10	13	31	19	807	123.0	8388607.0	218952.0	8388607.0
10	13	31	19	809	124.0	8388607.0	228098.0	8388607.0
10	13	31	19	825	125.0	8388607.0	233084.0	8388607.0
10	13	31	19	826	126.0	8388607.0	233866.0	8388607.0
10	13	31	19	826	127.0	8388607.0	238003.0	8388607.0
10	13	31	19	827	128.0	8388607.0	242530.0	8388607.0
10	13	31	19	827	129.0	8388607.0	246851.0	8388607.0
10	13	31	19	844	130.0	8388607.0	244549.0	8388607.0
10	13	31	19	844	131.0	8388607.0	243003.0	8388607.0
10	13	31	19	845	132.0	8388607.0	243739.0	8388607.0
10	13	31	19	846	133.0	8388607.0	247226.0	8388607.0
10	13	31	19	868	134.0	8388607.0	251891.0	8388607.0
10	13	31	19	910	135.0	8388607.0	251827.0	8388607.0
10	13	31	19	911	136.0	8388607.0	249033.0	8388607.0
10	13	31	19	913	137.0	8388607.0	251899.0	8388607.0
10	13	31	19	913	138.0	8388607.0	253909.0	8388607.0
10	13	31	19	914	139.0	8388607.0	257033.0	8388607.0
10	13	31	19	915	140.0	8388607.0	256608.0	8388607.0
10	13	31	19	915	141.0	8388607.0	251028.0	8388607.0
10	13	31	19	916	142.0	8388607.0	252319.0	8388607.0
10	13	31	19	917	143.0	8388607.0	256196.0	8388607.0
10	13	31	19	917	144.0	8388607.0	258886.0	8388607.0
10	13	31	19	918	145.0	8388607.0	252914.0	8388607.0
10	13	31	19	919	146.0	8388607.0	243489.0	8388607.0
10	13	31	19	919	147.0	8388607.0	242694.0	8388607.0
10	13	31	19	920	148.0	8388607.0	249661.0	8388607.0
10	13	31	19	921	149.0	8388607.0	255346.0	8388607.0
10	13	31	19	921	151.0	8388607.0	251114.0	8388607.0
10	13	31	19	922	152.0	8388607.0	252931.0	8388607.0
10	13	31	19	922	153.0	8388607.0	255211.0	8388607.0
10	13	31	19	955	154.0	8388607.0	256842.0	8388607.0
10	13	31	19	955	155.0	8388607.0	253588.0	8388607.0
10	13	31	19	956	156.0	8388607.0	254462.0	8388607.0
10	13	31	19	957	157.0	8388607.0	271319.0	8388607.0
10	13	31	19	957	158.0	8388607.0	294944.0	8388607.0
10	13	31	19	958	159.0	8388607.0	288540.0	8388607.0
10	13	31	19	959	160.0	8388607.0	238732.0	8388607.0
10	13	31	19	959	161.0	8388607.0	168224.0	8388607.0
10	13	31	19	961	162.0	8388607.0	119374.0	8388607.0
10	13	31	19	961	163.0	8388607.0	89979.0	8388607.0
10	13	31	20	1	164.0	8388607.0	99129.0	8388607.0
10	13	31	20	1	165.0	8388607.0	105152.0	8388607.0
10	13	31	20	2	166.0	8388607.0	130006.0	8388607.0
10	13	31	20	3	167.0	8388607.0	142304.0	8388607.0
10	13	31	20	3	168.0	8388607.0	170987.0	8388607.0
10	13	31	20	4	169.0	8388607.0	217398.0	8388607.0
10	13	31	20	4	170.0	8388607.0	240609.0	8388607.0
10	13	31	20	5	171.0	8388607.0	237568.0	8388607.0
10	13	31	20	5	172.0	8388607.0	239422.0	8388607.0
10	13	31	20	6	173.0	8388607.0	252889.0	8388607.0
10	13	31	20	7	174.0	8388607.0	261536.0	8388607.0
10	13	31	20	46	175.0	8388607.0	260484.0	8388607.0
10	13	31	20	46	176.0	8388607.0	256420.0	8388607.0
10	13	31	20	47	177.0	8388607.0	254709.0	8388607.0
10	13	31	20	48	178.0	8388607.0	257213.0	8388607.0
10	13	31	20	48	179.0	8388607.0	258453.0	8388607.0
10	13	31	20	49	180.0	8388607.0	252364.0	8388607.0
10	13	31	20	50	181.0	8388607.0	248235.0	8388607.0
10	13	31	20	50	182.0	8388607.0	251928.0	8388607.0
10	13	31	20	51	183.0	8388607.0	259351.0	8388607.0
10	13	31	20	52	184.0	8388607.0	267188.0	8388607.0
10	13	31	20	53	185.0	8388607.0	262788.0	8388607.0
10	13	31	20	91	186.0	8388607.0	259321.0	8388607.0
10	13	31	20	92	187.0	8388607.0	262033.0	8388607.0
10	13	31	20	93	188.0	8388607.0	267581.0	8388607.0
10	13	31	20	94	189.0	8388607.0	271930.0	8388607.0
10	13	31	20	94	190.0	8388607.0	265831.0	8388607.0
10	13	31	20	95	191.0	8388607.0	262579.0	8388607.0
10	13	31	20	96	192.0	8388607.0	265662.0	8388607.0
10	13	31	20	97	193.0	8388607.0	276363.0	8388607.0
10	13	31	20	97	194.0	8388607.0	279578.0	8388607.0
10	13	31	20	98	195.0	8388607.0	275401.0	8388607.0
10	13	31	20	99	196.0	8388607.0	275419.0	8388607.0
10	13	31	20	100	197.0	8388607.0	278385.0	8388607.0
10	13	31	20	135	198.0	8388607.0	281550.0	8388607.0
10	13	31	20	135	199.0	8388607.0	283879.0	8388607.0
10	13	31	20	136	200.0	8388607.0	280918.0	8388607.0
10	13	31	20	137	201.0	8388607.0	278728.0	8388607.0
10	13	31	20	137	202.0	8388607.0	282537.0	8388607.0
10	13	31	20	138	203.0	8388607.0	290377.0	8388607.0
10	13	31	20	139	204.0	8388607.0	293627.0	8388607.0
10	13	31	20	139	205.0	8388607.0	285601.0	8388607.0
10	13	31	20	140	206.0	8388607.0	281885.0	8388607.0
10	13	31	20	141	207.0	8388607.0	283933.0	8388607.0
10	13	31	20	141	208.0	8388607.0	289157.0	8388607.0
10	13	31	20	182	209.0	8388607.0	298388.0	8388607.0
10	13	31	20	182	210.0	8388607.0	290574.0	8388607.0
10	13	31	20	183	211.0	8388607.0	283438.0	8388607.0
10	13	31	20	184	212.0	8388607.0	286101.0	8388607.0
10	13	31	20	184	213.0	8388607.0	288910.0	8388607.0
10	13	31	20	185	214.0	8388607.0	289254.0	8388607.0
10	13	31	20	186	215.0	8388607.0	283358.0	8388607.0
10	13	31	20	186	216.0	8388607.0	281252.0	8388607.0
10	13	31	20	187	217.0	8388607.0	281267.0	8388607.0
10	13	31	20	188	218.0	8388607.0	283743.0	8388607.0
10	13	31	20	188	219.0	8388607.0	285044.0	8388607.0
10	13	31	20	228	220.0	8388607.0	277417.0	8388607.0
10	13	31	20	229	221.0	8388607.0	265319.0	8388607.0
10	13	31	20	229	222.0	8388607.0	267128.0	8388607.0
10	13	31	20	230	223.0	8388607.0	275120.0	8388607.0
10	13	31	20	231	224.0	8388607.0	272319.0	8388607.0
10	13	31	20	231	225.0	8388607.0	263468.0	8388607.0
10	13	31	20	232	226.0	8388607.0	257353.0	8388607.0
10	13	31	20	233	227.0	8388607.0	254215.0	8388607.0
10	13	31	20	234	228.0	8388607.0	253797.0	8388607.0
10	13	31	20	235	229.0	8388607.0	249226.0	8388607.0
10	13	31	20	237	230.0	8388607.0	245732.0	8388607.0
10	13	31	20	270	231.0	8388607.0	242711.0	8388607.0
10	13	31	20	271	232.0	8388607.0	237655.0	8388607.0
10	13	31	20	271	233.0	8388607.0	234754.0	8388607.0
10	13	31	20	315	234.0	8388607.0	232808.0	8388607.0
10	13	31	20	316	235.0	8388607.0	229148.0	8388607.0
10	13	31	20	316	236.0	8388607.0	221283.0	8388607.0
10	13	31	20	317	237.0	8388607.0	223881.0	8388607.0
10	13	31	20	318	238.0	8388607.0	232424.0	8388607.0
10	13	31	20	319	239.0	8388607.0	233914.0	8388607.0
10	13	31	20	320	240.0	8388607.0	225713.0	8388607.0
10	13	31	20	321	241.0	8388607.0	218376.0	8388607.0
10	13	31	20	321	242.0	8388607.0	221988.0	8388607.0
10	13	31	20	322	243.0	8388607.0	224483.0	8388607.0
10	13	31	20	323	244.0	8388607.0	223223.0	8388607.0
10	13	31	20	324	245.0	8388607.0	218571.0	8388607.0
10	13	31	20	325	246.0	8388607.0	211758.0	8388607.0
10	13	31	20	325	247.0	8388607.0	211989.0	8388607.0
10	13	31	20	326	248.0	8388607.0	216668.0	8388607.0
10	13	31	20	327	249.0	8388607.0	221463.0	8388607.0
10	13	31	20	328	252.0	8388607.0	205318.0	8388607.0
10	13	31	20	328	253.0	8388607.0	207396.0	8388607.0
10	13	31	20	329	254.0	8388607.0	210581.0	8388607.0
10	13	31	20	360	255.0	8388607.0	206576.0	8388607.0
10	13	31	20	360	0.0	8388607.0	195888.0	8388607.0
10	13	31	20	361	1.0	8388607.0	196687.0	8388607.0
10	13	31	20	362	2.0	8388607.0	205068.0	8388607.0
10	13	31	20	362	3.0	8388607.0	206183.0	8388607.0
10	13	31	20	363	4.0	8388607.0	199259.0	8388607.0
10	13	31	20	364	5.0	8388607.0	195968.0	8388607.0
10	13	31	20	364	6.0	8388607.0	195816.0	8388607.0
10	13	31	20	365	7.0	8388607.0	200441.0	8388607.0
10	13	31	20	365	8.0	8388607.0	201046.0	8388607.0
10	13	31	20	404	9.0	8388607.0	197204.0	8388607.0
10	13	31	20	405	10.0	8388607.0	191834.0	8388607.0
10	13	31	20	406	11.0	8388607.0	193402.0	8388607.0
10	13	31	20	406	12.0	8388607.0	193994.0	8388607.0
10	13	31	20	407	13.0	8388607.0	197609.0	8388607.0
10	13	31	20	408	14.0	8388607.0	189166.0	8388607.0
10	13	31	20	408	15.0	8388607.0	182187.0	8388607.0
10	13	31	20	409	16.0	8388607.0	183939.0	8388607.0
10	13	31	20	409	17.0	8388607.0	184249.0	8388607.0
10	13	31	20	420	18.0	8388607.0	182911.0	8388607.0
10	13	31	20	422	19.0	8388607.0	175918.0	8388607.0
10	13	31	20	449	20.0	8388607.0	175136.0	8388607.0
10	13	31	20	450	21.0	8388607.0	175451.0	8388607.0
10	13	31	20	451	22.0	8388607.0	174024.0	8388607.0
10	13	31	20	451	23.0	8388607.0	175499.0	8388607.0
10	13	31	20	452	24.0	8388607.0	173493.0	8388607.0
10	13	31	20	452	25.0	8388607.0	164819.0	8388607.0
10	13	31	20	453	26.0	8388607.0	164386.0	8388607.0
10	13	31	20	454	27.0	8388607.0	164815.0	8388607.0
10	13	31	20	454	28.0	8388607.0	165093.0	8388607.0
10	13	31	20	455	29.0	8388607.0	160152.0	8388607.0
10	13	31	20	455	30.0	8388607.0	153996.0	8388607.0
10	13	31	20	495	31.0	8388607.0	156831.0	8388607.0
10	13	31	20	496	32.0	8388607.0	162271.0	8388607.0
10	13	31	20	497	33.0	8388607.0	159649.0	8388607.0
10	13	31	20	497	34.0	8388607.0	150601.0	8388607.0
10	13	31	20	498	35.0	8388607.0	143596.0	8388607.0
10	13	31	20	498	36.0	8388607.0	145848.0	8388607.0
10	13	31	20	499	37.0	8388607.0	148294.0	8388607.0
10	13	31	20	499	38.0	8388607.0	145558.0	8388607.0
10	13	31	20	500	39.0	8388607.0	139143.0	8388607.0
10	13	31	20	500	40.0	8388607.0	135149.0	8388607.0
10	13	31	20	501	41.0	8388607.0	137513.0	8388607.0
10	13	31	20	502	42.0	8388607.0	143296.0	8388607.0
10	13	31	20	541	43.0	8388607.0	143513.0	8388607.0
10	13	31	20	542	44.0	8388607.0	139184.0	8388607.0
10	13	31	20	542	45.0	8388607.0	133638.0	8388607.0
10	13	31	20	543	46.0	8388607.0	134936.0	8388607.0
10	13	31	20	544	47.0	8388607.0	138623.0	8388607.0
10	13	31	20	544	48.0	8388607.0	140693.0	8388607.0
10	13	31	20	545	49.0	8388607.0	135825.0	8388607.0
10	13	31	20	545	50.0	8388607.0	131819.0	8388607.0
10	13	31	20	546	51.0	8388607.0	138911.0	8388607.0
10	13	31	20	546	52.0	8388607.0	149124.0	8388607.0
10	13	31	20	547	53.0	8388607.0	151647.0	8388607.0
10	13	31	20	585	54.0	8388607.0	151653.0	8388607.0
10	13	31	20	586	55.0	8388607.0	150329.0	8388607.0
10	13	31	20	586	56.0	8388607.0	149762.0	8388607.0
10	13	31	20	587	57.0	8388607.0	154667.0	8388607.0
10	13	31	20	588	58.0	8388607.0	162244.0	8388607.0
10	13	31	20	588	59.0	8388607.0	155284.0	8388607.0
10	13	31	20	589	60.0	8388607.0	152031.0	8388607.0
10	13	31	20	589	61.0	8388607.0	157703.0	8388607.0
10	13	31	20	590	62.0	8388607.0	164637.0	8388607.0
10	13	31	20	591	63.0	8388607.0	162963.0	8388607.0
10	13	31	20	591	64.0	8388607.0	157979.0	8388607.0
10	13	31	20	631	65.0	8388607.0	157809.0	8388607.0
10	13	31	20	631	66.0	8388607.0	164866.0	8388607.0
10	13	31	20	632	67.0	8388607.0	171304.0	8388607.0
10	13	31	20	633	68.0	8388607.0	177915.0	8388607.0
10	13	31	20	633	69.0	8388607.0	173096.0	8388607.0
10	13	31	20	634	70.0	8388607.0	171496.0	8388607.0
10	13	31	20	634	71.0	8388607.0	175662.0	8388607.0
10	13	31	20	635	72.0	8388607.0	181416.0	8388607.0
10	13	31	20	635	73.0	8388607.0	181302.0	8388607.0
10	13	31	20	636	74.0	8388607.0	170856.0	8388607.0
10	13	31	20	637	75.0	8388607.0	168032.0	8388607.0
10	13	31	20	675	76.0	8388607.0	168378.0	8388607.0
10	13	31	20	676	77.0	8388607.0	173975.0	8388607.0
10	13	31	20	676	78.0	8388607.0	173736.0	8388607.0
10	13	31	20	677	79.0	8388607.0	166863.0	8388607.0
10	13	31	20	678	80.0	8388607.0	161771.0	8388607.0
10	13	31	20	678	81.0	8388607.0	166207.0	8388607.0
10	13	31	20	679	82.0	8388607.0	170511.0	8388607.0
10	13	31	20	679	83.0	8388607.0	167368.0	8388607.0
10	13	31	20	680	84.0	8388607.0	162683.0	8388607.0
10	13	31	20	681	85.0	8388607.0	149846.0	8388607.0
10	13	31	20	681	86.0	8388607.0	152205.0	8388607.0
10	13	31	20	682	87.0	8388607.0	167761.0	8388607.0
10	13	31	20	723	88.0	8388607.0	182881.0	8388607.0
10	13	31	20	723	89.0	8388607.0	180289.0	8388607.0
10	13	31	20	724	90.0	8388607.0	164320.0	8388607.0
10	13	31	20	725	91.0	8388607.0	122403.0	8388607.0
10	13	31	20	726	92.0	8388607.0	66156.0	8388607.0
10	13	31	20	726	93.0	8388607.0	13616.0	8388607.0
10	13	31	20	727	94.0	8388607.0	-27875.0	8388607.0
10	13	31	20	727	95.0	8388607.0	-34707.0	8388607.0
10	13	31	20	728	96.0	8388607.0	-21292.0	8388607.0
10	13	31	20	729	97.0	8388607.0	15265.0	8388607.0
10	13	31	20	729	98.0	8388607.0	37054.0	8388607.0
10	13	31	20	765	99.0	8388607.0	54044.0	8388607.0
10	13	31	20	766	100.0	8388607.0	91886.0	8388607.0
10	13	31	20	766	101.0	8388607.0	116615.0	8388607.0
10	13	31	20	767	102.0	8388607.0	128726.0	8388607.0
10	13	31	20	768	103.0	8388607.0	134906.0	8388607.0
10	13	31	20	768	104.0	8388607.0	133591.0	8388607.0
10	13	31	20	769	105.0	8388607.0	130381.0	8388607.0
10	13	31	20	770	106.0	8388607.0	133661.0	8388607.0
10	13	31	20	770	107.0	8388607.0	134359.0	8388607.0
10	13	31	20	771	108.0	8388607.0	133388.0	8388607.0
10	13	31	20	772	109.0	8388607.0	129631.0	8388607.0
10	13	31	20	810	110.0	8388607.0	129013.0	8388607.0
10	13	31	20	811	111.0	8388607.0	127499.0	8388607.0
10	13	31	20	812	112.0	8388607.0	119228.0	8388607.0
10	13	31	20	813	113.0	8388607.0	113340.0	8388607.0
10	13	31	20	813	114.0	8388607.0	102113.0	8388607.0
10	13	31	20	814	115.0	8388607.0	89189.0	8388607.0
10	13	31	20	815	116.0	8388607.0	90168.0	8388607.0
10	13	31	20	815	117.0	8388607.0	91888.0	8388607.0
10	13	31	20	816	118.0	8388607.0	87193.0	8388607.0
10	13	31	20	817	119.0	8388607.0	78103.0	8388607.0
10	13	31	20	817	120.0	8388607.0	74298.0	8388607.0
10	13	31	20	856	121.0	8388607.0	76726.0	8388607.0
10	13	31	20	857	122.0	8388607.0	74511.0	8388607.0
10	13	31	20	858	123.0	8388607.0	71491.0	8388607.0
10	13	31	20	858	124.0	8388607.0	66906.0	8388607.0
10	13	31	20	859	125.0	8388607.0	63991.0	8388607.0
10	13	31	20	859	126.0	8388607.0	69411.0	8388607.0
10	13	31	20	860	127.0	8388607.0	75737.0	8388607.0
10	13	31	20	861	128.0	8388607.0	76640.0	8388607.0
10	13	31	20	900	129.0	8388607.0	69270.0	8388607.0
10	13	31	20	901	130.0	8388607.0	70409.0	8388607.0
10	13	31	20	902	131.0	8388607.0	68753.0	8388607.0
10	13	31	20	902	132.0	8388607.0	70411.0	8388607.0
10	13	31	20	903	133.0	8388607.0	72385.0	8388607.0
10	13	31	20	904	134.0	8388607.0	65002.0	8388607.0
10	13	31	20	904	135.0	8388607.0	55896.0	8388607.0
10	13	31	20	905	136.0	8388607.0	55338.0	8388607.0
10	13	31	20	906	137.0	8388607.0	58444.0	8388607.0
10	13	31	20	906	138.0	8388607.0	56718.0	8388607.0
10	13	31	20	907	139.0	8388607.0	49204.0	8388607.0
10	13	31	20	908	140.0	8388607.0	46246.0	8388607.0
10	13	31	20	908	141.0	8388607.0	49176.0	8388607.0
10	13	31	20	909	142.0	8388607.0	54405.0	8388607.0
10	13	31	20	910	143.0	8388607.0	53434.0	8388607.0
10	13	31	20	945	144.0	8388607.0	48136.0	8388607.0
10	13	31	20	946	145.0	8388607.0	46360.0	8388607.0
10	13	31	20	947	146.0	8388607.0	45271.0	8388607.0
10	13	31	20	947	147.0	8388607.0	48213.0	8388607.0
10	13	31	20	948	148.0	8388607.0	44273.0	8388607.0
10	13	31	20	949	149.0	8388607.0	38321.0	8388607.0
10	13	31	20	949	150.0	8388607.0	35654.0	8388607.0
10	13	31	20	950	151.0	8388607.0	38632.0	8388607.0
10	13	31	20	951	152.0	8388607.0	37099.0	8388607.0
10	13	31	20	951	153.0	8388607.0	35076.0	8388607.0
10	13	31	20	952	154.0	8388607.0	32949.0	8388607.0
10	13	31	20	990	155.0	8388607.0	29629.0	8388607.0
10	13	31	20	991	156.0	8388607.0	25653.0	8388607.0
10	13	31	20	992	157.0	8388607.0	20811.0	8388607.0
10	13	31	20	992	158.0	8388607.0	11059.0	8388607.0
10	13	31	20	993	159.0	8388607.0	-218.0	8388607.0
10	13	31	20	993	160.0	8388607.0	-4204.0	8388607.0
10	13	31	20	994	161.0	8388607.0	-1904.0	8388607.0
10	13	31	20	995	162.0	8388607.0	-2566.0	8388607.0
10	13	31	20	995	163.0	8388607.0	-9084.0	8388607.0
10	13	31	20	996	164.0	8388607.0	-22319.0	8388607.0
10	13	31	20	996	165.0	8388607.0	-32474.0	8388607.0
10	13	31	21	35	166.0	8388607.0	-28340.0	8388607.0
10	13	31	21	37	167.0	8388607.0	-25219.0	8388607.0
10	13	31	21	38	168.0	8388607.0	-26229.0	8388607.0
10	13	31	21	38	169.0	8388607.0	-33401.0	8388607.0
10	13	31	21	39	170.0	8388607.0	-35127.0	8388607.0
10	13	31	21	40	171.0	8388607.0	-35879.0	8388607.0
10	13	31	21	40	172.0	8388607.0	-31409.0	8388607.0
10	13	31	21	41	173.0	8388607.0	-31777.0	8388607.0
10	13	31	21	42	174.0	8388607.0	-36949.0	8388607.0
10	13	31	21	42	175.0	8388607.0	-40840.0	8388607.0
10	13	31	21	43	176.0	8388607.0	-36918.0	8388607.0
10	13	31	21	44	177.0	8388607.0	-35412.0	8388607.0
10	13	31	21	80	178.0	8388607.0	-39862.0	8388607.0
10	13	31	21	81	179.0	8388607.0	-52437.0	8388607.0
10	13	31	21	82	180.0	8388607.0	-55193.0	8388607.0
10	13	31	21	83	181.0	8388607.0	-54482.0	8388607.0
10	13	31	21	84	182.0	8388607.0	-54321.0	8388607.0
10	13	31	21	84	183.0	8388607.0	-55684.0	8388607.0
10	13	31	21	85	184.0	8388607.0	-66114.0	8388607.0
10	13	31	21	86	185.0	8388607.0	-70994.0	8388607.0
10	13	31	21	87	186.0	8388607.0	-63038.0	8388607.0
10	13	31	21	88	187.0	8388607.0	-61634.0	8388607.0
10	13	31	21	88	188.0	8388607.0	-66283.0	8388607.0
10	13	31	21	125	189.0	8388607.0	-72504.0	8388607.0
10	13	31	21	126	190.0	8388607.0	-75442.0	8388607.0
10	13	31	21	127	191.0	8388607.0	-75485.0	8388607.0
10	13	31	21	128	192.0	8388607.0	-75650.0	8388607.0
10	13	31	21	128	193.0	8388607.0	-80167.0	8388607.0
10	13	31	21	129	194.0	8388607.0	-81976.0	8388607.0
10	13	31	21	130	195.0	8388607.0	-83407.0	8388607.0
10	13	31	21	130	196.0	8388607.0	-80261.0	8388607.0
10	13	31	21	131	197.0	8388607.0	-76427.0	8388607.0
10	13	31	21	132	198.0	8388607.0	-80465.0	8388607.0
10	13	31	21	132	199.0	8388607.0	-86424.0	8388607.0
10	13	31	21	170	200.0	8388607.0	-86933.0	8388607.0
10	13	31	21	171	201.0	8388607.0	-86594.0	8388607.0
10	13	31	21	172	202.0	8388607.0	-84494.0	8388607.0
10	13	31	21	173	203.0	8388607.0	-90609.0	8388607.0
10	13	31	21	173	204.0	8388607.0	-103091.0	8388607.0
10	13	31	21	174	205.0	8388607.0	-102286.0	8388607.0
10	13	31	21	175	206.0	8388607.0	-99257.0	8388607.0
10	13	31	21	175	207.0	8388607.0	-97453.0	8388607.0
10	13	31	21	176	208.0	8388607.0	-101957.0	8388607.0
10	13	31	21	177	209.0	8388607.0	-110822.0	8388607.0
10	13	31	21	177	210.0	8388607.0	-111483.0	8388607.0
10	13	31	21	216	211.0	8388607.0	-106052.0	8388607.0
10	13	31	21	217	212.0	8388607.0	-99869.0	8388607.0
10	13	31	21	218	213.0	8388607.0	-105894.0	8388607.0
10	13	31	21	218	214.0	8388607.0	-113678.0	8388607.0
10	13	31	21	219	215.0	8388607.0	-119899.0	8388607.0
10	13	31	21	220	216.0	8388607.0	-122997.0	8388607.0
10	13	31	21	221	217.0	8388607.0	-121854.0	8388607.0
10	13	31	21	221	218.0	8388607.0	-124220.0	8388607.0
10	13	31	21	222	219.0	8388607.0	-129647.0	8388607.0
10	13	31	21	223	220.0	8388607.0	-133106.0	8388607.0
10	13	31	21	223	221.0	8388607.0	-131710.0	8388607.0
10	13	31	21	260	222.0	8388607.0	-131919.0	8388607.0
10	13	31	21	261	223.0	8388607.0	-134159.0	8388607.0
10	13	31	21	262	224.0	8388607.0	-140689.0	8388607.0
10	13	31	21	263	225.0	8388607.0	-135683.0	8388607.0
10	13	31	21	263	226.0	8388607.0	-131342.0	8388607.0
10	13	31	21	264	227.0	8388607.0	-130439.0	8388607.0
10	13	31	21	265	228.0	8388607.0	-133089.0	8388607.0
10	13	31	21	265	229.0	8388607.0	-140849.0	8388607.0
10	13	31	21	266	230.0	8388607.0	-145274.0	8388607.0
10	13	31	21	267	231.0	8388607.0	-141102.0	8388607.0
10	13	31	21	267	232.0	8388607.0	-135272.0	8388607.0
10	13	31	21	268	233.0	8388607.0	-141196.0	8388607.0
10	13	31	21	306	234.0	8388607.0	-144081.0	8388607.0
10	13	31	21	306	235.0	8388607.0	-142954.0	8388607.0
10	13	31	21	307	236.0	8388607.0	-136152.0	8388607.0
10	13	31	21	308	237.0	8388607.0	-133817.0	8388607.0
10	13	31	21	309	238.0	8388607.0	-139543.0	8388607.0
10	13	31	21	309	239.0	8388607.0	-142286.0	8388607.0
10	13	31	21	310	240.0	8388607.0	-141103.0	8388607.0
10	13	31	21	311	241.0	8388607.0	-140734.0	8388607.0
10	13	31	21	311	242.0	8388607.0	-142696.0	8388607.0
10	13	31	21	312	243.0	8388607.0	-143142.0	8388607.0
10	13	31	21	313	244.0	8388607.0	-140370.0	8388607.0
10	13	31	21	350	245.0	8388607.0	-139830.0	8388607.0
10	13	31	21	374	246.0	8388607.0	-142412.0	8388607.0
10	13	31	21	375	247.0	8388607.0	-142203.0	8388607.0
10	13	31	21	376	248.0	8388607.0	-141582.0	8388607.0
10	13	31	21	376	249.0	8388607.0	-144758.0	8388607.0
10	13	31	21	377	250.0	8388607.0	-145753.0	8388607.0
10	13	31	21	378	251.0	8388607.0	-144097.0	8388607.0
10	13	31	21	378	252.0	8388607.0	-135022.0	8388607.0
10	13	31	21	379	253.0	8388607.0	-137596.0	8388607.0
10	13	31	21	379	254.0	8388607.0	-146854.0	8388607.0
10	13	31	21	380	255.0	8388607.0	-145959.0	8388607.0
10	13	31	21	396	0.0	8388607.0	-141899.0	8388607.0
10	13	31	21	405	1.0	8388607.0	-140376.0	8388607.0
10	13	31	21	406	2.0	8388607.0	-141703.0	8388607.0
10	13	31	21	406	3.0	8388607.0	-144752.0	8388607.0
10	13	31	21	407	4.0	8388607.0	-143607.0	8388607.0
10	13	31	21	408	5.0	8388607.0	-141557.0	8388607.0
10	13	31	21	408	6.0	8388607.0	-139117.0	8388607.0
10	13	31	21	409	7.0	8388607.0	-143819.0	8388607.0
10	13	31	21	409	8.0	8388607.0	-145283.0	8388607.0
10	13	31	21	410	9.0	8388607.0	-137824.0	8388607.0
10	13	31	21	411	10.0	8388607.0	-131059.0	8388607.0
10	13	31	21	440	11.0	8388607.0	-128179.0	8388607.0
10	13	31	21	441	12.0	8388607.0	-134701.0	8388607.0
10	13	31	21	441	13.0	8388607.0	-144930.0	8388607.0
10	13	31	21	442	14.0	8388607.0	-146432.0	8388607.0
10	13	31	21	443	15.0	8388607.0	-146637.0	8388607.0
10	13	31	21	443	16.0	8388607.0	-145042.0	8388607.0
10	13	31	21	444	17.0	8388607.0	-148769.0	8388607.0
10	13	31	21	445	18.0	8388607.0	-155576.0	8388607.0
10	13	31	21	445	19.0	8388607.0	-151587.0	8388607.0
10	13	31	21	446	20.0	8388607.0	-141942.0	8388607.0
10	13	31	21	446	21.0	8388607.0	-136346.0	8388607.0
10	13	31	21	447	22.0	8388607.0	-140747.0	8388607.0
10	13	31	21	486	23.0	8388607.0	-149777.0	8388607.0
10	13	31	21	487	24.0	8388607.0	-149911.0	8388607.0
10	13	31	21	487	25.0	8388607.0	-145088.0	8388607.0
10	13	31	21	488	26.0	8388607.0	-137939.0	8388607.0
10	13	31	21	489	27.0	8388607.0	-142942.0	8388607.0
10	13	31	21	489	28.0	8388607.0	-146289.0	8388607.0
10	13	31	21	490	29.0	8388607.0	-144253.0	8388607.0
10	13	31	21	490	30.0	8388607.0	-144766.0	8388607.0
10	13	31	21	491	31.0	8388607.0	-144766.0	8388607.0
10	13	31	21	492	32.0	8388607.0	-148150.0	8388607.0
10	13	31	21	492	33.0	8388607.0	-150316.0	8388607.0
10	13	31	21	530	34.0	8388607.0	-144566.0	8388607.0
10	13	31	21	531	35.0	8388607.0	-135989.0	8388607.0
10	13	31	21	532	36.0	8388607.0	-128994.0	8388607.0
10	13	31	21	533	37.0	8388607.0	-121862.0	8388607.0
10	13	31	21	533	38.0	8388607.0	-114325.0	8388607.0
10	13	31	21	534	39.0	8388607.0	-116842.0	8388607.0
10	13	31	21	535	40.0	8388607.0	-145254.0	8388607.0
10	13	31	21	537	41.0	8388607.0	-193922.0	8388607.0
10	13	31	21	537	42.0	8388607.0	-250263.0	8388607.0
10	13	31	21	538	43.0	8388607.0	-287037.0	8388607.0
10	13	31	21	538	44.0	8388607.0	-306062.0	8388607.0
10	13	31	21	621	45.0	8388607.0	-286642.0	8388607.0
10	13	31	21	622	46.0	8388607.0	-258843.0	8388607.0
10	13	31	21	623	47.0	8388607.0	-235935.0	8388607.0
10	13	31	21	623	48.0	8388607.0	-225554.0	8388607.0
10	13	31	21	624	49.0	8388607.0	-192434.0	8388607.0
10	13	31	21	625	50.0	8388607.0	-152442.0	8388607.0
10	13	31	21	625	51.0	8388607.0	-136472.0	8388607.0
10	13	31	21	626	52.0	8388607.0	-135448.0	8388607.0
10	13	31	21	627	53.0	8388607.0	-142403.0	8388607.0
10	13	31	21	628	54.0	8388607.0	-142931.0	8388607.0
10	13	31	21	628	55.0	8388607.0	-133676.0	8388607.0
10	13	31	21	629	56.0	8388607.0	-126071.0	8388607.0
10	13	31	21	630	57.0	8388607.0	-131811.0	8388607.0
10	13	31	21	630	58.0	8388607.0	-136860.0	8388607.0
10	13	31	21	631	59.0	8388607.0	-133439.0	8388607.0
10	13	31	21	631	60.0	8388607.0	-130428.0	8388607.0
10	13	31	21	632	66.0	8388607.0	-127809.0	8388607.0
10	13	31	21	633	67.0	8388607.0	-130973.0	8388607.0
10	13	31	21	633	68.0	8388607.0	-130497.0	8388607.0
10	13	31	21	711	69.0	8388607.0	-125947.0	8388607.0
10	13	31	21	712	70.0	8388607.0	-118416.0	8388607.0
10	13	31	21	713	71.0	8388607.0	-114024.0	8388607.0
10	13	31	21	714	72.0	8388607.0	-126198.0	8388607.0
10	13	31	21	715	73.0	8388607.0	-126755.0	8388607.0
10	13	31	21	715	74.0	8388607.0	-118712.0	8388607.0
10	13	31	21	716	75.0	8388607.0	-113657.0	8388607.0
10	13	31	21	717	76.0	8388607.0	-112659.0	8388607.0
10	13	31	21	718	77.0	8388607.0	-115634.0	8388607.0
10	13	31	21	718	78.0	8388607.0	-120027.0	8388607.0
10	13	31	21	719	79.0	8388607.0	-112168.0	8388607.0
10	13	31	21	720	80.0	8388607.0	-107599.0	8388607.0
10	13	31	21	720	81.0	8388607.0	-107483.0	8388607.0
10	13	31	21	721	82.0	8388607.0	-112829.0	8388607.0
10	13	31	21	722	83.0	8388607.0	-120097.0	8388607.0
10	13	31	21	722	88.0	8388607.0	-117285.0	8388607.0
10	13	31	21	723	89.0	8388607.0	-116519.0	8388607.0
10	13	31	21	723	90.0	8388607.0	-107893.0	8388607.0
10	13	31	21	755	91.0	8388607.0	-104728.0	8388607.0
10	13	31	21	755	92.0	8388607.0	-107032.0	8388607.0
10	13	31	21	756	93.0	8388607.0	-109345.0	8388607.0
10	13	31	21	757	94.0	8388607.0	-115260.0	8388607.0
10	13	31	21	758	95.0	8388607.0	-119421.0	8388607.0
10	13	31	21	758	96.0	8388607.0	-121583.0	8388607.0
10	13	31	21	759	97.0	8388607.0	-133738.0	8388607.0
10	13	31	21	759	98.0	8388607.0	-147119.0	8388607.0
10	13	31	21	760	99.0	8369438.0	-154651.0	8372253.0
10	13	31	21	760	100.0	8329238.0	-155710.0	8332189.0
10	13	31	21	801	101.0	8295023.0	-156185.0	8298149.0
10	13	31	21	802	102.0	8264871.0	-165848.0	8268065.0
10	13	31	21	803	103.0	8236881.0	-175918.0	8240010.0
10	13	31	21	803	104.0	8212893.0	-175169.0	8215886.0
10	13	31	21	804	105.0	8195066.0	-176151.0	8197936.0
10	13	31	21	804	106.0	8183558.0	-181066.0	8186468.0
10	13	31	21	805	107.0	8175138.0	-187423.0	8178224.0
10	13	31	21	806	108.0	8170258.0	-193653.0	8173479.0
10	13	31	21	806	109.0	8168629.0	-197504.0	8171858.0
10	13	31	21	807	110.0	8170778.0	-196916.0	8173899.0
10	13	31	21	807	111.0	8176253.0	-197938.0	8179205.0
10	13	31	21	845	112.0	8184029.0	-202213.0	8186896.0
10	13	31	21	846	113.0	8193919.0	-204258.0	8196898.0
10	13	31	21	870	114.0	8205161.0	-203091.0	8208324.0
10	13	31	21	871	115.0	8216388.0	-198280.0	8219626.0
10	13	31	21	872	116.0	8228638.0	-198571.0	8231813.0
10	13	31	21	872	117.0	8241541.0	-202977.0	8244563.0
10	13	31	21	873	118.0	8254556.0	-208137.0	8257425.0
10	13	31	21	874	119.0	8269913.0	-205935.0	8272783.0
10	13	31	21	874	120.0	8282793.0	-201110.0	8285828.0
10	13	31	21	875	121.0	8296766.0	-198492.0	8299958.0
10	13	31	21	875	122.0	8311626.0	-193964.0	8314832.0
10	13	31	21	876	123.0	8324826.0	-194308.0	8327908.0
10	13	31	21	889	124.0	8338673.0	-191905.0	8341589.0
10	13	31	21	890	125.0	8352774.0	-186048.0	8355594.0
10	13	31	21	891	126.0	8365848.0	-186274.0	8368777.0
10	13	31	21	891	127.0	8381284.0	-191768.0	8384396.0
10	13	31	21	892	128.0	8388607.0	-199179.0	8388607.0
10	13	31	21	893	129.0	8388607.0	-191221.0	8388607.0
10	13	31	21	893	130.0	8388607.0	-180650.0	8388607.0
10	13	31	21	894	131.0	8388607.0	-181749.0	8388607.0
10	13	31	21	894	132.0	8388607.0	-187191.0	8388607.0
10	13	31	21	895	133.0	8388607.0	-189821.0	8388607.0
10	13	31	21	896	134.0	8388607.0	-185316.0	8388607.0
10	13	31	21	936	135.0	8388607.0	-178621.0	8388607.0
10	13	31	21	937	136.0	8388607.0	-179197.0	8388607.0
10	13	31	21	937	137.0	8388607.0	-183347.0	8388607.0
10	13	31	21	938	138.0	8388607.0	-185031.0	8388607.0
10	13	31	21	939	139.0	8388607.0	-182061.0	8388607.0
10	13	31	21	939	140.0	8388607.0	-179860.0	8388607.0
10	13	31	21	940	141.0	8388607.0	-176347.0	8388607.0
10	13	31	21	940	142.0	8388607.0	-173312.0	8388607.0
10	13	31	21	941	143.0	8388607.0	-175069.0	8388607.0
10	13	31	21	941	144.0	8388607.0	-177382.0	8388607.0
10	13	31	21	942	145.0	8388607.0	-172405.0	8388607.0
10	13	31	21	980	146.0	8388607.0	-168719.0	8388607.0
10	13	31	21	981	147.0	8388607.0	-172266.0	8388607.0
10	13	31	21	982	148.0	8388607.0	-178165.0	8388607.0
10	13	31	21	982	149.0	8388607.0	-176703.0	8388607.0
10	13	31	21	983	150.0	8388607.0	-172559.0	8388607.0
10	13	31	21	983	151.0	8388607.0	-168684.0	8388607.0
10	13	31	21	984	152.0	8388607.0	-175141.0	8388607.0
10	13	31	21	985	153.0	8388607.0	-178519.0	8388607.0
10	13	31	21	985	154.0	8388607.0	-178382.0	8388607.0
10	13	31	21	986	155.0	8388607.0	-168052.0	8388607.0
10	13	31	21	986	156.0	8388607.0	-164180.0	8388607.0
10	13	31	22	25	157.0	8388607.0	-166429.0	8388607.0
10	13	31	22	26	158.0	8388607.0	-165524.0	8388607.0
10	13	31	22	27	159.0	8388607.0	-163892.0	8388607.0
10	13	31	22	27	160.0	8388607.0	-161967.0	8388607.0
10	13	31	22	28	161.0	8388607.0	-160374.0	8388607.0
10	13	31	22	30	162.0	8388607.0	-165499.0	8388607.0
10	13	31	22	31	163.0	8388607.0	-168478.0	8388607.0
10	13	31	22	32	164.0	8388607.0	-161847.0	8388607.0
10	13	31	22	33	165.0	8388607.0	-159451.0	8388607.0
10	13	31	22	34	166.0	8388607.0	-158663.0	8388607.0
10	13	31	22	34	167.0	8388607.0	-163792.0	8388607.0
10	13	31	22	35	168.0	8388607.0	-162779.0	8388607.0
10	13	31	22	71	169.0	8388607.0	-157089.0	8388607.0
10	13	31	22	72	170.0	8388607.0	-155593.0	8388607.0
10	13	31	22	73	171.0	8388607.0	-158706.0	8388607.0
10	13	31	22	73	172.0	8388607.0	-167259.0	8388607.0
10	13	31	22	74	173.0	8388607.0	-168203.0	8388607.0
10	13	31	22	74	174.0	8388607.0	-166156.0	8388607.0
10	13	31	22	75	175.0	8388607.0	-163576.0	8388607.0
10	13	31	22	75	176.0	8388607.0	-163740.0	8388607.0
10	13	31	22	76	177.0	8388607.0	-172403.0	8388607.0
10	13	31	22	77	178.0	8388607.0	-173714.0	8388607.0
10	13	31	22	77	179.0	8388607.0	-169817.0	8388607.0
10	13	31	22	116	180.0	8388607.0	-162603.0	8388607.0
10	13	31	22	117	181.0	8388607.0	-163541.0	8388607.0
10	13	31	22	117	182.0	8388607.0	-171262.0	8388607.0
10	13	31	22	118	183.0	8388607.0	-175587.0	8388607.0
10	13	31	22	119	184.0	8388607.0	-176769.0	8388607.0
10	13	31	22	119	185.0	8388607.0	-170920.0	8388607.0
10	13	31	22	120	186.0	8388607.0	-171232.0	8388607.0
10	13	31	22	120	187.0	8388607.0	-176838.0	8388607.0
10	13	31	22	121	188.0	8388607.0	-177249.0	8388607.0
10	13	31	22	121	189.0	8388607.0	-176838.0	8388607.0
10	13	31	22	122	190.0	8388607.0	-173765.0	8388607.0
10	13	31	22	161	191.0	8388607.0	-172989.0	8388607.0
10	13	31	22	162	192.0	8388607.0	-179175.0	8388607.0
10	13	31	22	164	193.0	8388607.0	-184410.0	8388607.0
10	13	31	22	165	194.0	8388607.0	-184071.0	8388607.0
10	13	31	22	165	195.0	8388607.0	-180002.0	8388607.0
10	13	31	22	166	196.0	8388607.0	-178541.0	8388607.0
10	13	31	22	167	197.0	8388607.0	-182896.0	8388607.0
10	13	31	22	167	198.0	8388607.0	-184921.0	8388607.0
10	13	31	22	168	199.0	8388607.0	-181073.0	8388607.0
10	13	31	22	168	200.0	8388607.0	-177711.0	8388607.0
10	13	31	22	169	201.0	8388607.0	-179005.0	8388607.0
10	13	31	22	206	202.0	8388607.0	-185876.0	8388607.0
10	13	31	22	206	203.0	8388607.0	-190504.0	8388607.0
10	13	31	22	207	204.0	8388607.0	-187397.0	8388607.0
10	13	31	22	208	205.0	8388607.0	-183485.0	8388607.0
10	13	31	22	209	206.0	8388607.0	-180834.0	8388607.0
10	13	31	22	209	207.0	8388607.0	-186271.0	8388607.0
10	13	31	22	210	208.0	8388607.0	-190401.0	8388607.0
10	13	31	22	211	209.0	8388607.0	-186179.0	8388607.0
10	13	31	22	211	210.0	8388607.0	-184163.0	8388607.0
10	13	31	22	212	211.0	8388607.0	-186665.0	8388607.0
10	13	31	22	213	212.0	8388607.0	-193254.0	8388607.0
10	13	31	22	213	213.0	8388607.0	-194726.0	8388607.0
10	13	31	22	250	214.0	8388607.0	-189134.0	8388607.0
10	13	31	22	251	215.0	8388607.0	-181294.0	8388607.0
10	13	31	22	252	216.0	8388607.0	-180586.0	8388607.0
10	13	31	22	253	217.0	8388607.0	-191042.0	8388607.0
10	13	31	22	253	218.0	8388607.0	-196071.0	8388607.0
10	13	31	22	254	219.0	8388607.0	-192392.0	8388607.0
10	13	31	22	254	220.0	8388607.0	-187154.0	8388607.0
10	13	31	22	255	221.0	8388607.0	-188646.0	8388607.0
10	13	31	22	256	222.0	8388607.0	-194013.0	8388607.0
10	13	31	22	256	223.0	8388607.0	-197703.0	8388607.0
10	13	31	22	257	224.0	8388607.0	-190939.0	8388607.0
10	13	31	22	295	225.0	8388607.0	-186096.0	8388607.0
10	13	31	22	296	226.0	8388607.0	-186783.0	8388607.0
10	13	31	22	297	227.0	8388607.0	-192391.0	8388607.0
10	13	31	22	297	228.0	8388607.0	-193882.0	8388607.0
10	13	31	22	340	229.0	8388607.0	-192204.0	8388607.0
10	13	31	22	341	230.0	8388607.0	-193284.0	8388607.0
10	13	31	22	342	231.0	8388607.0	-193581.0	8388607.0
10	13	31	22	343	232.0	8388607.0	-197553.0	8388607.0
10	13	31	22	343	233.0	8388607.0	-198452.0	8388607.0
10	13	31	22	344	234.0	8388607.0	-198796.0	8388607.0
10	13	31	22	345	235.0	8388607.0	-197215.0	8388607.0
10	13	31	22	345	236.0	8388607.0	-194315.0	8388607.0
10	13	31	22	346	237.0	8388607.0	-203517.0	8388607.0
10	13	31	22	347	238.0	8388607.0	-205054.0	8388607.0
10	13	31	22	347	239.0	8388607.0	-199384.0	8388607.0
10	13	31	22	348	240.0	8388607.0	-196412.0	8388607.0
10	13	31	22	349	241.0	8388607.0	-198278.0	8388607.0
10	13	31	22	350	242.0	8388607.0	-205584.0	8388607.0
10	13	31	22	351	243.0	8388607.0	-212771.0	8388607.0
10	13	31	22	351	244.0	8388607.0	-210922.0	8388607.0
10	13	31	22	352	246.0	8388607.0	-202335.0	8388607.0
10	13	31	22	352	247.0	8388607.0	-205025.0	8388607.0
10	13	31	22	385	248.0	8388607.0	-207251.0	8388607.0
10	13	31	22	386	249.0	8388607.0	-208341.0	8388607.0
10	13	31	22	388	250.0	8388607.0	-205019.0	8388607.0
10	13	31	22	389	251.0	8388607.0	-204896.0	8388607.0
10	13	31	22	389	252.0	8388607.0	-212507.0	8388607.0
10	13	31	22	390	253.0	8388607.0	-216356.0	8388607.0
10	13	31	22	390	254.0	8388607.0	-217938.0	8388607.0
10	13	31	22	391	255.0	8388607.0	-216471.0	8388607.0
10	13	31	22	391	0.0	8388607.0	-212609.0	8388607.0
10	13	31	22	392	1.0	8388607.0	-220050.0	8388607.0
10	13	31	22	432	2.0	8388607.0	-225871.0	8388607.0
10	13	31	22	433	3.0	8388607.0	-224631.0	8388607.0
10	13	31	22	433	4.0	8388607.0	-212817.0	8388607.0
10	13	31	22	434	5.0	8388607.0	-212622.0	8388607.0
10	13	31	22	435	6.0	8388607.0	-218699.0	8388607.0
10	13	31	22	435	7.0	8388607.0	-217822.0	8388607.0
10	13	31	22	436	8.0	8388607.0	-212260.0	8388607.0
10	13	31	22	436	9.0	8388607.0	-211039.0	8388607.0
10	13	31	22	437	10.0	8388607.0	-216284.0	8388607.0
10	13	31	22	438	11.0	8388607.0	-223937.0	8388607.0
10	13	31	22	438	12.0	8388607.0	-217210.0	8388607.0
10	13	31	22	439	13.0	8388607.0	-201027.0	8388607.0
10	13	31	22	475	14.0	8388607.0	-180950.0	8388607.0
10	13	31	22	476	15.0	8388607.0	-185460.0	8388607.0
10	13	31	22	477	16.0	8388607.0	-221273.0	8388607.0
10	13	31	22	478	17.0	8388607.0	-271099.0	8388607.0
10	13	31	22	478	18.0	8388607.0	-321692.0	8388607.0
10	13	31	22	479	19.0	8388607.0	-350054.0	8388607.0
10	13	31	22	480	20.0	8388607.0	-381679.0	8388607.0
10	13	31	22	480	21.0	8388607.0	-380219.0	8388607.0
10	13	31	22	481	22.0	8388607.0	-363981.0	8388607.0
10	13	31	22	481	23.0	8388607.0	-324534.0	8388607.0
10	13	31	22	482	24.0	8388607.0	-294391.0	8388607.0
10	13	31	22	565	25.0	8388607.0	-256344.0	8388607.0
10	13	31	22	565	26.0	8388607.0	-230201.0	8388607.0
10	13	31	22	566	27.0	8388607.0	-222628.0	8388607.0
10	13	31	22	567	28.0	8388607.0	-215179.0	8388607.0
10	13	31	22	567	29.0	8388607.0	-209821.0	8388607.0
10	13	31	22	568	30.0	8388607.0	-211824.0	8388607.0
10	13	31	22	569	31.0	8388607.0	-217124.0	8388607.0
10	13	31	22	569	32.0	8388607.0	-216789.0	8388607.0
10	13	31	22	570	33.0	8388607.0	-212160.0	8388607.0
10	13	31	22	571	34.0	8388607.0	-206546.0	8388607.0
10	13	31	22	571	35.0	8388607.0	-210742.0	8388607.0
10	13	31	22	572	36.0	8388607.0	-220310.0	8388607.0
10	13	31	22	573	37.0	8388607.0	-220453.0	8388607.0
10	13	31	22	573	38.0	8388607.0	-213027.0	8388607.0
10	13	31	22	574	39.0	8388607.0	-209359.0	8388607.0
10	13	31	22	575	40.0	8388607.0	-209554.0	8388607.0
10	13	31	22	584	46.0	8388607.0	-222786.0	8388607.0
10	13	31	22	585	47.0	8388607.0	-217291.0	8388607.0
10	13	31	22	586	48.0	8388607.0	-208465.0	8388607.0
10	13	31	22	609	49.0	8388607.0	-204439.0	8388607.0
10	13	31	22	610	50.0	8388607.0	-207835.0	8388607.0
10	13	31	22	610	51.0	8388607.0	-215210.0	8388607.0
10	13	31	22	631	52.0	8388607.0	-219312.0	8388607.0
10	13	31	22	632	53.0	8388607.0	-215863.0	8388607.0
10	13	31	22	632	54.0	8388607.0	-208701.0	8388607.0
10	13	31	22	633	55.0	8388607.0	-205155.0	8388607.0
10	13	31	22	634	56.0	8388607.0	-213501.0	8388607.0
10	13	31	22	634	57.0	8388607.0	-213856.0	8388607.0
10	13	31	22	655	58.0	8388607.0	-207816.0	8388607.0
10	13	31	22	656	59.0	8388607.0	-203112.0	8388607.0
10	13	31	22	657	60.0	8388607.0	-206172.0	8388607.0
10	13	31	22	664	61.0	8388607.0	-211851.0	8388607.0
10	13	31	22	665	62.0	8388607.0	-209236.0	8388607.0
10	13	31	22	666	63.0	8388607.0	-207445.0	8388607.0
10	13	31	22	666	64.0	8388607.0	-211689.0	8388607.0
10	13	31	22	667	65.0	8388607.0	-215776.0	8388607.0
10	13	31	22	667	66.0	8388607.0	-214907.0	8388607.0
10	13	31	22	668	67.0	8388607.0	-215183.0	8388607.0
10	13	31	22	668	68.0	8388607.0	-213459.0	8388607.0
10	13	31	22	669	69.0	8388607.0	-211652.0	8388607.0
10	13	31	22	700	70.0	8388607.0	-213288.0	8388607.0
10	13	31	22	701	71.0	8388607.0	-219330.0	8388607.0
10	13	31	22	701	72.0	8388607.0	-218301.0	8388607.0
10	13	31	22	702	73.0	8388607.0	-217867.0	8388607.0
10	13	31	22	702	74.0	8388607.0	-215094.0	8388607.0
10	13	31	22	703	75.0	8388607.0	-215490.0	8388607.0
10	13	31	22	704	76.0	8388607.0	-225251.0	8388607.0
10	13	31	22	704	77.0	8388607.0	-226354.0	8388607.0
10	13	31	22	705	78.0	8388607.0	-222002.0	8388607.0
10	13	31	22	705	79.0	8388607.0	-217576.0	8388607.0
10	13	31	22	706	80.0	8388607.0	-215817.0	8388607.0
10	13	31	22	745	81.0	8388607.0	-218634.0	8388607.0
10	13	31	22	745	82.0	8388607.0	-222131.0	8388607.0
10	13	31	22	746	83.0	8388607.0	-227262.0	8388607.0
10	13	31	22	747	84.0	8388607.0	-227037.0	8388607.0
10	13	31	22	747	85.0	8388607.0	-228852.0	8388607.0
10	13	31	22	748	86.0	8388607.0	-237316.0	8388607.0
10	13	31	22	749	87.0	8388607.0	-239757.0	8388607.0
10	13	31	22	749	88.0	8388607.0	-239932.0	8388607.0
10	13	31	22	750	89.0	8388607.0	-237562.0	8388607.0
10	13	31	22	750	90.0	8388607.0	-243641.0	8388607.0
10	13	31	22	751	91.0	8388607.0	-253992.0	8388607.0
10	13	31	22	790	92.0	8388607.0	-254279.0	8388607.0
10	13	31	22	791	93.0	8388607.0	-247301.0	8388607.0
10	13	31	22	792	94.0	8388607.0	-243771.0	8388607.0
10	13	31	22	792	95.0	8388607.0	-246994.0	8388607.0
10	13	31	22	793	96.0	8388607.0	-253162.0	8388607.0
10	13	31	22	794	97.0	8388607.0	-257647.0	8388607.0
10	13	31	22	794	98.0	8388607.0	-258541.0	8388607.0
10	13	31	22	795	99.0	8388607.0	-253020.0	8388607.0
10	13	31	22	795	100.0	8388607.0	-256217.0	8388607.0
10	13	31	22	796	101.0	8388607.0	-263726.0	8388607.0
10	13	31	22	796	102.0	8388607.0	-271681.0	8388607.0
10	13	31	22	797	103.0	8388607.0	-267182.0	8388607.0
10	13	31	22	835	104.0	8388607.0	-259409.0	8388607.0
10	13	31	22	836	105.0	8388607.0	-263516.0	8388607.0
10	13	31	22	837	106.0	8388607.0	-271310.0	8388607.0
10	13	31	22	837	107.0	8388607.0	-274734.0	8388607.0
10	13	31	22	838	108.0	8388607.0	-274464.0	8388607.0
10	13	31	22	838	109.0	8388607.0	-271214.0	8388607.0
10	13	31	22	839	110.0	8388607.0	-275657.0	8388607.0
10	13	31	22	840	111.0	8388607.0	-280037.0	8388607.0
10	13	31	22	840	112.0	8388607.0	-278750.0	8388607.0
10	13	31	22	841	113.0	8388607.0	-272122.0	8388607.0
10	13	31	22	849	114.0	8388607.0	-272335.0	8388607.0
10	13	31	22	882	115.0	8388607.0	-278216.0	8388607.0
10	13	31	22	883	116.0	8388607.0	-286622.0	8388607.0
10	13	31	22	883	117.0	8388607.0	-286792.0	8388607.0
10	13	31	22	884	118.0	8388607.0	-283593.0	8388607.0
10	13	31	22	885	119.0	8388607.0	-282270.0	8388607.0
10	13	31	22	885	120.0	8388607.0	-281652.0	8388607.0
10	13	31	22	886	121.0	8388607.0	-290901.0	8388607.0
10	13	31	22	886	122.0	8388607.0	-292433.0	8388607.0
10	13	31	22	887	123.0	8388607.0	-289967.0	8388607.0
10	13	31	22	887	124.0	8388607.0	-291152.0	8388607.0
10	13	31	22	888	125.0	8388607.0	-296822.0	8388607.0
10	13	31	22	925	126.0	8388607.0	-307799.0	8388607.0
10	13	31	22	926	127.0	8388607.0	-309703.0	8388607.0
10	13	31	22	927	128.0	8388607.0	-309157.0	8388607.0
10	13	31	22	927	129.0	8388607.0	-311105.0	8388607.0
10	13	31	22	929	130.0	8388607.0	-314631.0	8388607.0
10	13	31	22	929	131.0	8388607.0	-318351.0	8388607.0
10	13	31	22	930	132.0	8388607.0	-317947.0	8388607.0
10	13	31	22	931	133.0	8388607.0	-313997.0	8388607.0
10	13	31	22	931	134.0	8388607.0	-314882.0	8388607.0
10	13	31	22	932	135.0	8388607.0	-317921.0	8388607.0
10	13	31	22	933	136.0	8388607.0	-324664.0	8388607.0
10	13	31	22	970	137.0	8388607.0	-320855.0	8388607.0
10	13	31	22	971	138.0	8388607.0	-317949.0	8388607.0
10	13	31	22	972	139.0	8388607.0	-319071.0	8388607.0
10	13	31	22	973	140.0	8388607.0	-326111.0	8388607.0
10	13	31	22	973	141.0	8388607.0	-335728.0	8388607.0
10	13	31	22	974	142.0	8388607.0	-339621.0	8388607.0
10	13	31	22	975	143.0	8388607.0	-337762.0	8388607.0
10	13	31	22	975	144.0	8388607.0	-340066.0	8388607.0
10	13	31	22	976	145.0	8388607.0	-347597.0	8388607.0
10	13	31	22	977	146.0	8388607.0	-353249.0	8388607.0
10	13	31	22	977	147.0	8388607.0	-351359.0	8388607.0
10	13	31	22	978	148.0	8388607.0	-349559.0	8388607.0
10	13	31	23	15	149.0	8388607.0	-344234.0	8388607.0
10	13	31	23	16	150.0	8388607.0	-349591.0	8388607.0
10	13	31	23	17	151.0	8388607.0	-360545.0	8388607.0
10	13	31	23	17	152.0	8388607.0	-367215.0	8388607.0
10	13	31	23	18	153.0	8388607.0	-364262.0	8388607.0
10	13	31	23	19	154.0	8388607.0	-358986.0	8388607.0
10	13	31	23	19	155.0	8388607.0	-362619.0	8388607.0
10	13	31	23	20	156.0	8388607.0	-371426.0	8388607.0
10	13	31	23	21	157.0	8388607.0	-364977.0	8388607.0
10	13	31	23	21	158.0	8388607.0	-358755.0	8388607.0
10	13	31	23	22	159.0	8388607.0	-361516.0	8388607.0
10	13	31	23	60	160.0	8388607.0	-365557.0	8388607.0
10	13	31	23	60	161.0	8388607.0	-375024.0	8388607.0
10	13	31	23	61	162.0	8388607.0	-377741.0	8388607.0
10	13	31	23	62	163.0	8388607.0	-370512.0	8388607.0
10	13	31	23	63	164.0	8388607.0	-369857.0	8388607.0
10	13	31	23	63	165.0	8388607.0	-378068.0	8388607.0
10	13	31	23	64	166.0	8388607.0	-383702.0	8388607.0
10	13	31	23	65	167.0	8388607.0	-383983.0	8388607.0
10	13	31	23	65	168.0	8388607.0	-383691.0	8388607.0
10	13	31	23	66	169.0	8388607.0	-384268.0	8388607.0
10	13	31	23	67	170.0	8388607.0	-389491.0	8388607.0
10	13	31	23	106	171.0	8388607.0	-394527.0	8388607.0
10	13	31	23	107	172.0	8388607.0	-394717.0	8388607.0
10	13	31	23	107	173.0	8388607.0	-397115.0	8388607.0
10	13	31	23	108	174.0	8388607.0	-400847.0	8388607.0
10	13	31	23	109	175.0	8388607.0	-410279.0	8388607.0
10	13	31	23	109	176.0	8388607.0	-419661.0	8388607.0
10	13	31	23	110	177.0	8388607.0	-417562.0	8388607.0
10	13	31	23	111	178.0	8388607.0	-415607.0	8388607.0
10	13	31	23	111	179.0	8388607.0	-409271.0	8388607.0
10	13	31	23	112	180.0	8388607.0	-418556.0	8388607.0
10	13	31	23	113	181.0	8388607.0	-427587.0	8388607.0
10	13	31	23	151	182.0	8388607.0	-426695.0	8388607.0
10	13	31	23	151	183.0	8388607.0	-423134.0	8388607.0
10	13	31	23	152	184.0	8388607.0	-429463.0	8388607.0
10	13	31	23	153	185.0	8388607.0	-444084.0	8388607.0
10	13	31	23	154	186.0	8388607.0	-456982.0	8388607.0
10	13	31	23	163	187.0	8388607.0	-454461.0	8388607.0
10	13	31	23	164	188.0	8388607.0	-449260.0	8388607.0
10	13	31	23	164	189.0	8388607.0	-451250.0	8388607.0
10	13	31	23	165	190.0	8388607.0	-459785.0	8388607.0
10	13	31	23	166	191.0	8388607.0	-466874.0	8388607.0
10	13	31	23	166	192.0	8388607.0	-462705.0	8388607.0
10	13	31	23	167	193.0	8388607.0	-455204.0	8388607.0
10	13	31	23	194	194.0	8388607.0	-454304.0	8388607.0
10	13	31	23	195	195.0	8388607.0	-457679.0	8388607.0
10	13	31	23	196	196.0	8388607.0	-463752.0	8388607.0
10	13	31	23	196	197.0	8388607.0	-462041.0	8388607.0
10	13	31	23	197	198.0	8388607.0	-452754.0	8388607.0
10	13	31	23	198	199.0	8388607.0	-450836.0	8388607.0
10	13	31	23	198	200.0	8388607.0	-455245.0	8388607.0
10	13	31	23	199	201.0	8388607.0	-457921.0	8388607.0
10	13	31	23	200	202.0	8388607.0	-452499.0	8388607.0
10	13	31	23	201	203.0	8388607.0	-449387.0	8388607.0
10	13	31	23	201	204.0	8388607.0	-445622.0	8388607.0
10	13	31	23	286	205.0	8388607.0	-445292.0	8388607.0
10	13	31	23	287	206.0	8388607.0	-453638.0	8388607.0
10	13	31	23	288	207.0	8388607.0	-449796.0	8388607.0
10	13	31	23	289	208.0	8388607.0	-442132.0	8388607.0
10	13	31	23	289	209.0	8388607.0	-436569.0	8388607.0
10	13	31	23	290	210.0	8388607.0	-445752.0	8388607.0
10	13	31	23	291	211.0	8388607.0	-450007.0	8388607.0
10	13	31	23	292	212.0	8388607.0	-448766.0	8388607.0
10	13	31	23	313	213.0	8388607.0	-442001.0	8388607.0
10	13	31	23	313	214.0	8388607.0	-438746.0	8388607.0
10	13	31	23	314	215.0	8388607.0	-445802.0	8388607.0
10	13	31	23	314	216.0	8388607.0	-446421.0	8388607.0
10	13	31	23	315	217.0	8388607.0	-437927.0	8388607.0
10	13	31	23	315	218.0	8388607.0	-432166.0	8388607.0
10	13	31	23	316	219.0	8388607.0	-431687.0	8388607.0
10	13	31	23	317	220.0	8388607.0	-438628.0	8388607.0
10	13	31	23	317	226.0	8388607.0	-443301.0	8388607.0
10	13	31	23	318	227.0	8388607.0	-441980.0	8388607.0
10	13	31	23	330	228.0	8388607.0	-439142.0	8388607.0
10	13	31	23	331	229.0	8388607.0	-436539.0	8388607.0
10	13	31	23	332	230.0	8388607.0	-441074.0	8388607.0
10	13	31	23	332	231.0	8388607.0	-448654.0	8388607.0
10	13	31	23	333	232.0	8388607.0	-446361.0	8388607.0
10	13	31	23	333	233.0	8388607.0	-437956.0	8388607.0
10	13	31	23	334	234.0	8388607.0	-434309.0	8388607.0
10	13	31	23	334	235.0	8388607.0	-444478.0	8388607.0
10	13	31	23	335	236.0	8388607.0	-451187.0	8388607.0
10	13	31	23	335	237.0	8388607.0	-446582.0	8388607.0
10	13	31	23	374	238.0	8388607.0	-439837.0	8388607.0
10	13	31	23	375	239.0	8388607.0	-429174.0	8388607.0
10	13	31	23	375	240.0	8388607.0	-420966.0	8388607.0
10	13	31	23	376	241.0	8388607.0	-412123.0	8388607.0
10	13	31	23	377	242.0	8388607.0	-412336.0	8388607.0
10	13	31	23	377	243.0	8388607.0	-434800.0	8388607.0
10	13	31	23	378	244.0	8388607.0	-476551.0	8388607.0
10	13	31	23	378	245.0	8388607.0	-523592.0	8388607.0
10	13	31	23	379	246.0	8388607.0	-557842.0	8388607.0
10	13	31	23	379	247.0	8388607.0	-569492.0	8388607.0
10	13	31	23	380	248.0	8388607.0	-550160.0	8388607.0
10	13	31	23	381	249.0	8388607.0	-537067.0	8388607.0
10	13	31	23	421	250.0	8388607.0	-517823.0	8388607.0
10	13	31	23	421	251.0	8388607.0	-501686.0	8388607.0
10	13	31	23	422	252.0	8388607.0	-457687.0	8388607.0
10	13	31	23	422	253.0	8388607.0	-424561.0	8388607.0
10	13	31	23	423	254.0	8388607.0	-414144.0	8388607.0
10	13	31	23	465	255.0	8388607.0	-420507.0	8388607.0
10	13	31	23	466	0.0	8388607.0	-424482.0	8388607.0
10	13	31	23	466	1.0	8388607.0	-424470.0	8388607.0
10	13	31	23	467	2.0	8388607.0	-421642.0	8388607.0
10	13	31	23	468	3.0	8388607.0	-415384.0	8388607.0
10	13	31	23	468	4.0	8388607.0	-415386.0	8388607.0
10	13	31	23	469	5.0	8388607.0	-417402.0	8388607.0
10	13	31	23	469	6.0	8388607.0	-419215.0	8388607.0
10	13	31	23	471	7.0	8388607.0	-416452.0	8388607.0
10	13	31	23	472	8.0	8388607.0	-412184.0	8388607.0
10	13	31	23	472	9.0	8388607.0	-415745.0	8388607.0
10	13	31	23	473	10.0	8388607.0	-418683.0	8388607.0
10	13	31	23	473	11.0	8388607.0	-418098.0	8388607.0
10	13	31	23	474	12.0	8388607.0	-411261.0	8388607.0
10	13	31	23	475	13.0	8388607.0	-410089.0	8388607.0
10	13	31	23	475	14.0	8388607.0	-414225.0	8388607.0
10	13	31	23	476	15.0	8388607.0	-412311.0	8388607.0
10	13	31	23	476	16.0	8388607.0	-406327.0	8388607.0
10	13	31	23	510	17.0	8388607.0	-401934.0	8388607.0
10	13	31	23	512	18.0	8388607.0	-400447.0	8388607.0
10	13	31	23	513	19.0	8388607.0	-408561.0	8388607.0
10	13	31	23	513	20.0	8388607.0	-411896.0	8388607.0
10	13	31	23	514	21.0	8388607.0	-405250.0	8388607.0
10	13	31	23	515	22.0	8388607.0	-396061.0	8388607.0
10	13	31	23	515	23.0	8388607.0	-393007.0	8388607.0
10	13	31	23	516	24.0	8388607.0	-400061.0	8388607.0
10	13	31	23	516	25.0	8388607.0	-401489.0	8388607.0
10	13	31	23	517	26.0	8388607.0	-395058.0	8388607.0
10	13	31	23	555	27.0	8388607.0	-387350.0	8388607.0
10	13	31	23	556	28.0	8388607.0	-386796.0	8388607.0
10	13	31	23	557	29.0	8388607.0	-390816.0	8388607.0
10	13	31	23	557	30.0	8388607.0	-395639.0	8388607.0
10	13	31	23	558	31.0	8388607.0	-391959.0	8388607.0
10	13	31	23	559	32.0	8388607.0	-386381.0	8388607.0
10	13	31	23	559	33.0	8388607.0	-385498.0	8388607.0
10	13	31	23	560	34.0	8388607.0	-392659.0	8388607.0
10	13	31	23	560	35.0	8388607.0	-395371.0	8388607.0
10	13	31	23	561	36.0	8388607.0	-395074.0	8388607.0
10	13	31	23	601	37.0	8388607.0	-391177.0	8388607.0
10	13	31	23	602	38.0	8388607.0	-385845.0	8388607.0
10	13	31	23	603	39.0	8388607.0	-390163.0	8388607.0
10	13	31	23	603	40.0	8388607.0	-396731.0	8388607.0
10	13	31	23	604	41.0	8388607.0	-390292.0	8388607.0
10	13	31	23	605	42.0	8388607.0	-385116.0	8388607.0
10	13	31	23	605	43.0	8388607.0	-384986.0	8388607.0
10	13	31	23	606	44.0	8388607.0	-390014.0	8388607.0
10	13	31	23	607	45.0	8388607.0	-389297.0	8388607.0
10	13	31	23	607	46.0	8388607.0	-385932.0	8388607.0
10	13	31	23	608	47.0	8388607.0	-382572.0	8388607.0
10	13	31	23	608	48.0	8388607.0	-381284.0	8388607.0
10	13	31	23	609	49.0	8388607.0	-382902.0	8388607.0
10	13	31	23	645	50.0	8388607.0	-388252.0	8388607.0
10	13	31	23	646	51.0	8388607.0	-388651.0	8388607.0
10	13	31	23	647	52.0	8388607.0	-385735.0	8388607.0
10	13	31	23	647	53.0	8388607.0	-385327.0	8388607.0
10	13	31	23	648	54.0	8388607.0	-393213.0	8388607.0
10	13	31	23	649	55.0	8388607.0	-393007.0	8388607.0
10	13	31	23	649	56.0	8388607.0	-385110.0	8388607.0
10	13	31	23	650	57.0	8388607.0	-382154.0	8388607.0
10	13	31	23	650	58.0	8388607.0	-388660.0	8388607.0
10	13	31	23	651	59.0	8388607.0	-394242.0	8388607.0
10	13	31	23	652	60.0	8388607.0	-398431.0	8388607.0
10	13	31	23	691	61.0	8388607.0	-392417.0	8388607.0
10	13	31	23	692	62.0	8388607.0	-386029.0	8388607.0
10	13	31	23	692	63.0	8388607.0	-386269.0	8388607.0
10	13	31	23	693	64.0	8388607.0	-394937.0	8388607.0
10	13	31	23	694	65.0	8388607.0	-397629.0	8388607.0
10	13	31	23	695	66.0	8388607.0	-395136.0	8388607.0
10	13	31	23	695	67.0	8388607.0	-385894.0	8388607.0
10	13	31	23	696	68.0	8388607.0	-383563.0	8388607.0
10	13	31	23	697	69.0	8388607.0	-392149.0	8388607.0
10	13	31	23	697	70.0	8388607.0	-391951.0	8388607.0
10	13	31	23	698	71.0	8388607.0	-388912.0	8388607.0
10	13	31	23	734	72.0	8388607.0	-389669.0	8388607.0
10	13	31	23	735	73.0	8388607.0	-387131.0	8388607.0
10	13	31	23	736	74.0	8388607.0	-393290.0	8388607.0
10	13	31	23	737	75.0	8388607.0	-396589.0	8388607.0
10	13	31	23	737	76.0	8388607.0	-394834.0	8388607.0
10	13	31	23	738	77.0	8388607.0	-388342.0	8388607.0
10	13	31	23	738	78.0	8388607.0	-387281.0	8388607.0
10	13	31	23	739	79.0	8388607.0	-393644.0	8388607.0
10	13	31	23	739	80.0	8388607.0	-395698.0	8388607.0
10	13	31	23	740	81.0	8388607.0	-393858.0	8388607.0
10	13	31	23	741	82.0	8388607.0	-389832.0	8388607.0
10	13	31	23	741	83.0	8388607.0	-389258.0	8388607.0
10	13	31	23	780	84.0	8388607.0	-396381.0	8388607.0
10	13	31	23	781	85.0	8388607.0	-401936.0	8388607.0
10	13	31	23	782	86.0	8388607.0	-396576.0	8388607.0
10	13	31	23	782	87.0	8388607.0	-391592.0	8388607.0
10	13	31	23	783	88.0	8388607.0	-389797.0	8388607.0
10	13	31	23	783	89.0	8388607.0	-400514.0	8388607.0
10	13	31	23	784	90.0	8388607.0	-395004.0	8388607.0
10	13	31	23	785	91.0	8388607.0	-388534.0	8388607.0
10	13	31	23	785	92.0	8388607.0	-386376.0	8388607.0
10	13	31	23	786	93.0	8388607.0	-386188.0	8388607.0
10	13	31	23	786	94.0	8388607.0	-391091.0	8388607.0
10	13	31	23	825	95.0	8388607.0	-391380.0	8388607.0
10	13	31	23	826	96.0	8388607.0	-388834.0	8388607.0
10	13	31	23	827	97.0	8388607.0	-384940.0	8388607.0
10	13	31	23	828	98.0	8388607.0	-386361.0	8388607.0
10	13	31	23	829	99.0	8388607.0	-396112.0	8388607.0
10	13	31	23	829	100.0	8388607.0	-399361.0	8388607.0
10	13	31	23	830	101.0	8388607.0	-390307.0	8388607.0
10	13	31	23	831	102.0	8388607.0	-384274.0	8388607.0
10	13	31	23	832	103.0	8388607.0	-384646.0	8388607.0
10	13	31	23	833	104.0	8388607.0	-392733.0	8388607.0
10	13	31	23	833	105.0	8388607.0	-396260.0	8388607.0
10	13	31	23	869	106.0	8388607.0	-395078.0	8388607.0
10	13	31	23	870	107.0	8388607.0	-392709.0	8388607.0
10	13	31	23	871	108.0	8388607.0	-393777.0	8388607.0
10	13	31	23	871	109.0	8388607.0	-400896.0	8388607.0
10	13	31	23	873	110.0	8388607.0	-402678.0	8388607.0
10	13	31	23	873	111.0	8388607.0	-401776.0	8388607.0
10	13	31	23	874	112.0	8388607.0	-401389.0	8388607.0
10	13	31	23	875	113.0	8388607.0	-403427.0	8388607.0
10	13	31	23	915	114.0	8388607.0	-411275.0	8388607.0
10	13	31	23	939	115.0	8388607.0	-415096.0	8388607.0
10	13	31	23	940	116.0	8388607.0	-408950.0	8388607.0
10	13	31	23	940	117.0	8388607.0	-401386.0	8388607.0
10	13	31	23	941	118.0	8388607.0	-401062.0	8388607.0
10	13	31	23	942	119.0	8388607.0	-409117.0	8388607.0
10	13	31	23	942	120.0	8388607.0	-410287.0	8388607.0
10	13	31	23	943	121.0	8388607.0	-402906.0	8388607.0
10	13	31	23	943	122.0	8388607.0	-401522.0	8388607.0
10	13	31	23	944	123.0	8388607.0	-407687.0	8388607.0
10	13	31	23	945	124.0	8388607.0	-416785.0	8388607.0
10	13	31	23	945	125.0	8388607.0	-414929.0	8388607.0
10	13	31	23	946	126.0	8388607.0	-409750.0	8388607.0
10	13	31	23	946	127.0	8388607.0	-409764.0	8388607.0
10	13	31	23	947	128.0	8388607.0	-411971.0	8388607.0
10	13	31	23	959	129.0	8388607.0	-412668.0	8388607.0
10	13	31	24	5	130.0	8388607.0	-413681.0	8388607.0
10	13	31	24	6	131.0	8388607.0	-411398.0	8388607.0
10	13	31	24	6	132.0	8388607.0	-410695.0	8388607.0
10	13	31	24	7	133.0	8388607.0	-409296.0	8388607.0
10	13	31	24	8	134.0	8388607.0	-411105.0	8388607.0
10	13	31	24	8	135.0	8388607.0	-410018.0	8388607.0
10	13	31	24	9	136.0	8388607.0	-405015.0	8388607.0
10	13	31	24	10	137.0	8388607.0	-400492.0	8388607.0
10	13	31	24	10	138.0	8388607.0	-398227.0	8388607.0
10	13	31	24	11	139.0	8388607.0	-404310.0	8388607.0
10	13	31	24	12	140.0	8388607.0	-408879.0	8388607.0
10	13	31	24	12	141.0	8388607.0	-405132.0	8388607.0
10	13	31	24	13	142.0	8388607.0	-395766.0	8388607.0
10	13	31	24	13	143.0	8388607.0	-395706.0	8388607.0
10	13	31	24	14	144.0	8388607.0	-400407.0	8388607.0
10	13	31	24	14	149.0	8388607.0	-407062.0	8388607.0
10	13	31	24	15	150.0	8388607.0	-407087.0	8388607.0
10	13	31	24	16	151.0	8388607.0	-399325.0	8388607.0
10	13	31	24	49	152.0	8388607.0	-391527.0	8388607.0
10	13	31	24	50	153.0	8388607.0	-394141.0	8388607.0
10	13	31	24	51	154.0	8388607.0	-403209.0	8388607.0
10	13	31	24	51	155.0	8388607.0	-402736.0	8388607.0
10	13	31	24	52	156.0	8388607.0	-402842.0	8388607.0
10	13	31	24	53	157.0	8388607.0	-396260.0	8388607.0
10	13	31	24	53	158.0	8388607.0	-398566.0	8388607.0
10	13	31	24	54	159.0	8388607.0	-405093.0	8388607.0
10	13	31	24	55	160.0	8388607.0	-408895.0	8388607.0
10	13	31	24	70	161.0	8388607.0	-403692.0	8388607.0
10	13	31	24	95	162.0	8388607.0	-397458.0	8388607.0
10	13	31	24	96	163.0	8388607.0	-397465.0	8388607.0
10	13	31	24	97	164.0	8388607.0	-405404.0	8388607.0
10	13	31	24	97	165.0	8388607.0	-403871.0	8388607.0
10	13	31	24	98	166.0	8388607.0	-398729.0	8388607.0
10	13	31	24	99	167.0	8388607.0	-397928.0	8388607.0
10	13	31	24	99	168.0	8388607.0	-398951.0	8388607.0
10	13	31	24	100	169.0	8388607.0	-403071.0	8388607.0
10	13	31	24	101	170.0	8388607.0	-400201.0	8388607.0
10	13	31	24	101	171.0	8388607.0	-395224.0	8388607.0
10	13	31	24	102	172.0	8388607.0	-393285.0	8388607.0
10	13	31	24	185	173.0	8388607.0	-398032.0	8388607.0
10	13	31	24	186	174.0	8388607.0	-401309.0	8388607.0
10	13	31	24	187	175.0	8388607.0	-402786.0	8388607.0
10	13	31	24	188	176.0	8388607.0	-394956.0	8388607.0
10	13	31	24	188	177.0	8388607.0	-389486.0	8388607.0
10	13	31	24	189	178.0	8388607.0	-389845.0	8388607.0
10	13	31	24	190	179.0	8388607.0	-394592.0	8388607.0
10	13	31	24	190	180.0	8388607.0	-392165.0	8388607.0
10	13	31	24	191	181.0	8388607.0	-385874.0	8388607.0
10	13	31	24	192	182.0	8388607.0	-380609.0	8388607.0
10	13	31	24	192	183.0	8388607.0	-381012.0	8388607.0
10	13	31	24	193	184.0	8388607.0	-387284.0	8388607.0
10	13	31	24	194	185.0	8388607.0	-387157.0	8388607.0
10	13	31	24	194	186.0	8388607.0	-388333.0	8388607.0
10	13	31	24	195	187.0	8388607.0	-383699.0	8388607.0
10	13	31	24	196	188.0	8388607.0	-385549.0	8388607.0
10	13	31	24	196	195.0	8388607.0	-385866.0	8388607.0
10	13	31	24	197	196.0	8388607.0	-384194.0	8388607.0
10	13	31	24	230	197.0	8388607.0	-380571.0	8388607.0
10	13	31	24	231	198.0	8388607.0	-384238.0	8388607.0
10	13	31	24	231	199.0	8388607.0	-393357.0	8388607.0
10	13	31	24	232	200.0	8388607.0	-391775.0	8388607.0
10	13	31	24	234	201.0	8388607.0	-383422.0	8388607.0
10	13	31	24	235	202.0	8388607.0	-380210.0	8388607.0
10	13	31	24	236	203.0	8388607.0	-380118.0	8388607.0
10	13	31	24	237	204.0	8388607.0	-381004.0	8388607.0
10	13	31	24	238	205.0	8388607.0	-371838.0	8388607.0
10	13	31	24	238	206.0	8388607.0	-351029.0	8388607.0
10	13	31	24	275	207.0	8388607.0	-338289.0	8388607.0
10	13	31	24	276	208.0	8388607.0	-347219.0	8388607.0
10	13	31	24	276	209.0	8388607.0	-383291.0	8388607.0
10	13	31	24	277	210.0	8388607.0	-431519.0	8388607.0
10	13	31	24	278	211.0	8388607.0	-469805.0	8388607.0
10	13	31	24	278	212.0	8388607.0	-491076.0	8388607.0
10	13	31	24	279	213.0	8388607.0	-487802.0	8388607.0
10	13	31	24	280	214.0	8388607.0	-475356.0	8388607.0
10	13	31	24	281	215.0	8388607.0	-461487.0	8388607.0
10	13	31	24	281	216.0	8388607.0	-447634.0	8388607.0
10	13	31	24	282	217.0	8388607.0	-427667.0	8388607.0
10	13	31	24	335	218.0	8388607.0	-389869.0	8388607.0
10	13	31	24	352	219.0	8388607.0	-370247.0	8388607.0
10	13	31	24	353	220.0	8388607.0	-367815.0	8388607.0
10	13	31	24	354	221.0	8388607.0	-364334.0	8388607.0
10	13	31	24	354	222.0	8388607.0	-359030.0	8388607.0
10	13	31	24	355	223.0	8388607.0	-358019.0	8388607.0
10	13	31	24	356	224.0	8388607.0	-360163.0	8388607.0
10	13	31	24	356	225.0	8388607.0	-360679.0	8388607.0
10	13	31	24	357	226.0	8388607.0	-355879.0	8388607.0
10	13	31	24	358	227.0	8388607.0	-349827.0	8388607.0
10	13	31	24	358	228.0	8388607.0	-355457.0	8388607.0
10	13	31	24	359	229.0	8388607.0	-362971.0	8388607.0
10	13	31	24	359	230.0	8388607.0	-362086.0	8388607.0
10	13	31	24	360	231.0	8388607.0	-353752.0	8388607.0
10	13	31	24	361	232.0	8388607.0	-346839.0	8388607.0
10	13	31	24	361	233.0	8388607.0	-351086.0	8388607.0
10	13	31	24	362	236.0	8388607.0	-346408.0	8388607.0
10	13	31	24	363	237.0	8388607.0	-338512.0	8388607.0
10	13	31	24	380	238.0	8388607.0	-340742.0	8388607.0
10	13	31	24	381	239.0	8388607.0	-345213.0	8388607.0
10	13	31	24	382	240.0	8388607.0	-347342.0	8388607.0
10	13	31	24	382	241.0	8388607.0	-344362.0	8388607.0
10	13	31	24	383	242.0	8388607.0	-339121.0	8388607.0
10	13	31	24	384	243.0	8388607.0	-337519.0	8388607.0
10	13	31	24	401	244.0	8388607.0	-342027.0	8388607.0
10	13	31	24	402	245.0	8388607.0	-340729.0	8388607.0
10	13	31	24	402	246.0	8388607.0	-337194.0	8388607.0
10	13	31	24	417	247.0	8388607.0	-332892.0	8388607.0
10	13	31	24	418	248.0	8388607.0	-335317.0	8388607.0
10	13	31	24	419	249.0	8388607.0	-341611.0	8388607.0
10	13	31	24	419	250.0	8388607.0	-340525.0	8388607.0
10	13	31	24	434	251.0	8388607.0	-336150.0	8388607.0
10	13	31	24	435	252.0	8388607.0	-332707.0	8388607.0
10	13	31	24	435	253.0	8388607.0	-340407.0	8388607.0
10	13	31	24	436	254.0	8388607.0	-343845.0	8388607.0
10	13	31	24	451	255.0	8388607.0	-342729.0	8388607.0
10	13	31	24	452	0.0	8388607.0	-333936.0	8388607.0
10	13	31	24	452	1.0	8388607.0	-328864.0	8388607.0
10	13	31	24	467	2.0	8388607.0	-330682.0	8388607.0
10	13	31	24	467	3.0	8388607.0	-333082.0	8388607.0
10	13	31	24	468	4.0	8388607.0	-329659.0	8388607.0
10	13	31	24	469	5.0	8388607.0	-320662.0	8388607.0
10	13	31	24	470	6.0	8388607.0	-316166.0	8388607.0
10	13	31	24	470	7.0	8388607.0	-320151.0	8388607.0
10	13	31	24	471	8.0	8388607.0	-327451.0	8388607.0
10	13	31	24	472	9.0	8388607.0	-329467.0	8388607.0
10	13	31	24	484	10.0	8388607.0	-322714.0	8388607.0
10	13	31	24	485	11.0	8388607.0	-317022.0	8388607.0
10	13	31	24	485	12.0	8388607.0	-319465.0	8388607.0
10	13	31	24	486	13.0	8388607.0	-326786.0	8388607.0
10	13	31	24	500	14.0	8388607.0	-322915.0	8388607.0
10	13	31	24	500	15.0	8388607.0	-319794.0	8388607.0
10	13	31	24	501	16.0	8388607.0	-316794.0	8388607.0
10	13	31	24	516	17.0	8388607.0	-316526.0	8388607.0
10	13	31	24	517	18.0	8388607.0	-320439.0	8388607.0
10	13	31	24	517	19.0	8388607.0	-324626.0	8388607.0
10	13	31	24	518	20.0	8388607.0	-320936.0	8388607.0
10	13	31	24	533	21.0	8388607.0	-317190.0	8388607.0
10	13	31	24	533	22.0	8388607.0	-317941.0	8388607.0
10	13	31	24	534	23.0	8388607.0	-327572.0	8388607.0
10	13	31	24	535	24.0	8388607.0	-330689.0	8388607.0
10	13	31	24	549	25.0	8388607.0	-326976.0	8388607.0
10	13	31	24	550	26.0	8388607.0	-320397.0	8388607.0
10	13	31	24	551	27.0	8388607.0	-319876.0	8388607.0
10	13	31	24	552	28.0	8388607.0	-325971.0	8388607.0
10	13	31	24	567	29.0	8388607.0	-324549.0	8388607.0
10	13	31	24	567	30.0	8388607.0	-325182.0	8388607.0
10	13	31	24	568	31.0	8388607.0	-322156.0	8388607.0
10	13	31	24	582	32.0	8388607.0	-322261.0	8388607.0
10	13	31	24	583	33.0	8388607.0	-325924.0	8388607.0
10	13	31	24	584	34.0	8388607.0	-328131.0	8388607.0
10	13	31	24	585	35.0	8388607.0	-323345.0	8388607.0
10	13	31	24	599	36.0	8388607.0	-313898.0	8388607.0
10	13	31	24	600	37.0	8388607.0	-320742.0	8388607.0
10	13	31	24	601	38.0	8388607.0	-327956.0	8388607.0
10	13	31	24	602	39.0	8388607.0	-325776.0	8388607.0
10	13	31	24	616	40.0	8388607.0	-321076.0	8388607.0
10	13	31	24	616	41.0	8388607.0	-316126.0	8388607.0
10	13	31	24	617	42.0	8388607.0	-321980.0	8388607.0
10	13	31	24	618	43.0	8388607.0	-327466.0	8388607.0
10	13	31	24	643	44.0	8388607.0	-324444.0	8388607.0
10	13	31	24	643	45.0	8388607.0	-322314.0	8388607.0
10	13	31	24	644	46.0	8388607.0	-321931.0	8388607.0
10	13	31	24	645	47.0	8388607.0	-325234.0	8388607.0
10	13	31	24	645	48.0	8388607.0	-328459.0	8388607.0
10	13	31	24	646	49.0	8388607.0	-329061.0	8388607.0
10	13	31	24	646	50.0	8388607.0	-323806.0	8388607.0
10	13	31	24	667	51.0	8388607.0	-321795.0	8388607.0
10	13	31	24	667	52.0	8388607.0	-326379.0	8388607.0
10	13	31	24	668	53.0	8388607.0	-329399.0	8388607.0
10	13	31	24	668	54.0	8388607.0	-324632.0	8388607.0
10	13	31	24	669	55.0	8388607.0	-318021.0	8388607.0
10	13	31	24	669	56.0	8388607.0	-310061.0	8388607.0
10	13	31	24	670	57.0	8388607.0	-312224.0	8388607.0
10	13	31	24	682	58.0	8388607.0	-316197.0	8388607.0
10	13	31	24	682	59.0	8388607.0	-313201.0	8388607.0
10	13	31	24	683	60.0	8388607.0	-307817.0	8388607.0
10	13	31	24	684	61.0	8388607.0	-306576.0	8388607.0
10	13	31	24	698	62.0	8388607.0	-310921.0	8388607.0
10	13	31	24	698	63.0	8388607.0	-314996.0	8388607.0
10	13	31	24	699	64.0	8388607.0	-314609.0	8388607.0
10	13	31	24	700	65.0	8388607.0	-311721.0	8388607.0
10	13	31	24	715	66.0	8388607.0	-308849.0	8388607.0
10	13	31	24	715	67.0	8388607.0	-313578.0	8388607.0
10	13	31	24	716	68.0	8388607.0	-320136.0	8388607.0
10	13	31	24	717	69.0	8388607.0	-317064.0	8388607.0
10	13	31	24	731	70.0	8388607.0	-312622.0	8388607.0
10	13	31	24	731	71.0	8388607.0	-304474.0	8388607.0
10	13	31	24	732	72.0	8388607.0	-307575.0	8388607.0
10	13	31	24	748	73.0	8388607.0	-314766.0	8388607.0
10	13	31	24	748	74.0	8388607.0	-312026.0	8388607.0
10	13	31	24	749	75.0	8388607.0	-306997.0	8388607.0
10	13	31	24	749	76.0	8388607.0	-308218.0	8388607.0
10	13	31	24	764	77.0	8388607.0	-314767.0	8388607.0
10	13	31	24	765	78.0	8388607.0	-319882.0	8388607.0
10	13	31	24	765	79.0	8388607.0	-317222.0	8388607.0
10	13	31	24	766	80.0	8388607.0	-315538.0	8388607.0
10	13	31	24	781	81.0	8388607.0	-315067.0	8388607.0
10	13	31	24	781	82.0	8388607.0	-326666.0	8388607.0
10	13	31	24	782	83.0	8388607.0	-337057.0	8388607.0
10	13	31	24	783	84.0	8388607.0	-337764.0	8388607.0
10	13	31	24	798	85.0	8388607.0	-329264.0	8388607.0
10	13	31	24	798	86.0	8388607.0	-325939.0	8388607.0
10	13	31	24	799	87.0	8388607.0	-335674.0	8388607.0
10	13	31	24	799	88.0	8388607.0	-341471.0	8388607.0
10	13	31	24	800	89.0	8388607.0	-338407.0	8388607.0
10	13	31	24	800	90.0	8388607.0	-337985.0	8388607.0
10	13	31	24	801	91.0	8388607.0	-338584.0	8388607.0
10	13	31	24	814	92.0	8388607.0	-346144.0	8388607.0
10	13	31	24	814	93.0	8388607.0	-343978.0	8388607.0
10	13	31	24	815	94.0	8388607.0	-341143.0	8388607.0
10	13	31	24	815	95.0	8388607.0	-339803.0	8388607.0
10	13	31	24	830	96.0	8388607.0	-340007.0	8388607.0
10	13	31	24	831	97.0	8388607.0	-345524.0	8388607.0
10	13	31	24	831	98.0	8388607.0	-349497.0	8388607.0
10	13	31	24	832	99.0	8388607.0	-346338.0	8388607.0
10	13	31	24	847	100.0	8388607.0	-342642.0	8388607.0
10	13	31	24	847	101.0	8388607.0	-338147.0	8388607.0
10	13	31	24	848	102.0	8388607.0	-343603.0	8388607.0
10	13	31	24	863	103.0	8388607.0	-348541.0	8388607.0
10	13	31	24	864	104.0	8388607.0	-345623.0	8388607.0
10	13	31	24	864	105.0	8388607.0	-338732.0	8388607.0
10	13	31	24	865	106.0	8388607.0	-337249.0	8388607.0
10	13	31	24	881	107.0	8388607.0	-347157.0	8388607.0
10	13	31	24	881	108.0	8388607.0	-353291.0	8388607.0
10	13	31	24	882	109.0	8388607.0	-353131.0	8388607.0
10	13	31	24	882	110.0	8388607.0	-351037.0	8388607.0
10	13	31	24	897	111.0	8388607.0	-352542.0	8388607.0
10	13	31	24	897	112.0	8388607.0	-357044.0	8388607.0
10	13	31	24	898	113.0	8388607.0	-354506.0	8388607.0
10	13	31	24	898	114.0	8388607.0	-349907.0	8388607.0
10	13	31	24	913	115.0	8388607.0	-344627.0	8388607.0
10	13	31	24	914	116.0	8388607.0	-344266.0	8388607.0
10	13	31	24	914	117.0	8388607.0	-349167.0	8388607.0
10	13	31	24	929	118.0	8388607.0	-347870.0	8388607.0
10	13	31	24	930	119.0	8388607.0	-344831.0	8388607.0
10	13	31	24	930	120.0	8388607.0	-338036.0	8388607.0
10	13	31	24	931	121.0	8388607.0	-341199.0	8388607.0
10	13	31	24	949	122.0	8388607.0	-346114.0	8388607.0
10	13	31	24	950	123.0	8388607.0	-344829.0	8388607.0
10	13	31	24	950	124.0	8388607.0	-340004.0	8388607.0
10	13	31	24	951	125.0	8388607.0	-340857.0	8388607.0
10	13	31	24	952	126.0	8388607.0	-344209.0	8388607.0
10	13	31	24	952	127.0	8388607.0	-349344.0	8388607.0
10	13	31	24	953	128.0	8388607.0	-349334.0	8388607.0
10	13	31	24	953	129.0	8388607.0	-340833.0	8388607.0
10	13	31	24	964	130.0	8388607.0	-330261.0	8388607.0
10	13	31	24	965	131.0	8388607.0	-329602.0	8388607.0
10	13	31	24	965	132.0	8388607.0	-339577.0	8388607.0
10	13	31	24	995	133.0	8388607.0	-338594.0	8388607.0
10	13	31	24	995	134.0	8388607.0	-335636.0	8388607.0
10	13	31	24	996	135.0	8388607.0	-334130.0	8388607.0
10	13	31	24	997	136.0	8388607.0	-332505.0	8388607.0
10	13	31	24	997	137.0	8388607.0	-335375.0	8388607.0
10	13	31	24	998	138.0	8388607.0	-339149.0	8388607.0
10	13	31	24	999	139.0	8388607.0	-335079.0	8388607.0
10	13	31	24	999	140.0	8388607.0	-335798.0	8388607.0
10	13	31	25	0	141.0	8388607.0	-335916.0	8388607.0
10	13	31	25	14	142.0	8388607.0	-339494.0	8388607.0
10	13	31	25	15	143.0	8388607.0	-337994.0	8388607.0
10	13	31	25	31	144.0	8388607.0	-336972.0	8388607.0
10	13	31	25	31	145.0	8388607.0	-329586.0	8388607.0
10	13	31	25	32	146.0	8388607.0	-322729.0	8388607.0
10	13	31	25	33	147.0	8388607.0	-327671.0	8388607.0
10	13	31	25	33	148.0	8388607.0	-332154.0	8388607.0
10	13	31	25	45	149.0	8388607.0	-319972.0	8388607.0
10	13	31	25	46	150.0	8388607.0	-306211.0	8388607.0
10	13	31	25	47	151.0	8388607.0	-287419.0	8388607.0
10	13	31	25	62	152.0	8388607.0	-278132.0	8388607.0
10	13	31	25	62	153.0	8388607.0	-299530.0	8388607.0
10	13	31	25	63	154.0	8388607.0	-341901.0	8388607.0
10	13	31	25	64	155.0	8388607.0	-392979.0	8388607.0
10	13	31	25	79	156.0	8388607.0	-431711.0	8388607.0
10	13	31	25	100	157.0	8388607.0	-455072.0	8388607.0
10	13	31	25	101	158.0	8388607.0	-446459.0	8388607.0
10	13	31	25	101	159.0	8388607.0	-430821.0	8388607.0
10	13	31	25	102	160.0	8388607.0	-409700.0	8388607.0
10	13	31	25	103	161.0	8388607.0	-402635.0	8388607.0
10	13	31	25	103	162.0	8388607.0	-376839.0	8388607.0
10	13	31	25	104	163.0	8388607.0	-342761.0	8388607.0
10	13	31	25	104	164.0	8388607.0	-320383.0	8388607.0
10	13	31	25	105	165.0	8388607.0	-311595.0	8388607.0
10	13	31	25	106	166.0	8388607.0	-305490.0	8388607.0
10	13	31	25	106	167.0	8388607.0	-309657.0	8388607.0
10	13	31	25	114	168.0	8388607.0	-306635.0	8388607.0
10	13	31	25	115	169.0	8388607.0	-301329.0	8388607.0
10	13	31	25	116	170.0	8388607.0	-302438.0	8388607.0
10	13	31	25	129	171.0	8388607.0	-300043.0	8388607.0
10	13	31	25	129	172.0	8388607.0	-301015.0	8388607.0
10	13	31	25	130	173.0	8388607.0	-305400.0	8388607.0
10	13	31	25	131	174.0	8388607.0	-302851.0	8388607.0
10	13	31	25	145	175.0	8388607.0	-293422.0	8388607.0
10	13	31	25	145	176.0	8388607.0	-289777.0	8388607.0
10	13	31	25	146	177.0	8388607.0	-299137.0	8388607.0
10	13	31	25	176	178.0	8388607.0	-301170.0	8388607.0
10	13	31	25	177	179.0	8388607.0	-296639.0	8388607.0
10	13	31	25	178	180.0	8388607.0	-291093.0	8388607.0
10	13	31	25	178	181.0	8388607.0	-290255.0	8388607.0
10	13	31	25	179	182.0	8388607.0	-293269.0	8388607.0
10	13	31	25	179	183.0	8388607.0	-293622.0	8388607.0
10	13	31	25	180	184.0	8388607.0	-288426.0	8388607.0
10	13	31	25	180	185.0	8388607.0	-285603.0	8388607.0
10	13	31	25	181	186.0	8388607.0	-288829.0	8388607.0
10	13	31	25	195	187.0	8388607.0	-289767.0	8388607.0
10	13	31	25	196	188.0	8388607.0	-288016.0	8388607.0
10	13	31	25	211	189.0	8388607.0	-286628.0	8388607.0
10	13	31	25	212	190.0	8388607.0	-285977.0	8388607.0
10	13	31	25	212	191.0	8388607.0	-285412.0	8388607.0
10	13	31	25	213	192.0	8388607.0	-288890.0	8388607.0
10	13	31	25	228	193.0	8388607.0	-291107.0	8388607.0
10	13	31	25	229	194.0	8388607.0	-286976.0	8388607.0
10	13	31	25	230	195.0	8388607.0	-277727.0	8388607.0
10	13	31	25	230	196.0	8388607.0	-269962.0	8388607.0
10	13	31	25	244	197.0	8388607.0	-272892.0	8388607.0
10	13	31	25	245	198.0	8388607.0	-274022.0	8388607.0
10	13	31	25	245	199.0	8388607.0	-269840.0	8388607.0
10	13	31	25	246	200.0	8388607.0	-266511.0	8388607.0
10	13	31	25	260	201.0	8388607.0	-267679.0	8388607.0
10	13	31	25	261	202.0	8388607.0	-274753.0	8388607.0
10	13	31	25	262	203.0	8388607.0	-277466.0	8388607.0
10	13	31	25	262	204.0	8388607.0	-272411.0	8388607.0
10	13	31	25	277	205.0	8388607.0	-264976.0	8388607.0
10	13	31	25	278	206.0	8388607.0	-258870.0	8388607.0
10	13	31	25	279	207.0	8388607.0	-265422.0	8388607.0
10	13	31	25	279	208.0	8388607.0	-269191.0	8388607.0
10	13	31	25	280	209.0	8388607.0	-263188.0	8388607.0
10	13	31	25	281	210.0	8388607.0	-256504.0	8388607.0
10	13	31	25	281	211.0	8388607.0	-255247.0	8388607.0
10	13	31	25	294	212.0	8388607.0	-261595.0	8388607.0
10	13	31	25	294	213.0	8388607.0	-262502.0	8388607.0
10	13	31	25	295	214.0	8388607.0	-261129.0	8388607.0
10	13	31	25	296	215.0	8388607.0	-254731.0	8388607.0
10	13	31	25	311	216.0	8388607.0	-258318.0	8388607.0
10	13	31	25	311	217.0	8388607.0	-263034.0	8388607.0
10	13	31	25	312	218.0	8388607.0	-264586.0	8388607.0
10	13	31	25	312	219.0	8388607.0	-262810.0	8388607.0
10	13	31	25	327	220.0	8388607.0	-262300.0	8388607.0
10	13	31	25	327	221.0	8388607.0	-265900.0	8388607.0
10	13	31	25	328	222.0	8388607.0	-274412.0	8388607.0
10	13	31	25	344	223.0	8388607.0	-276677.0	8388607.0
10	13	31	25	345	224.0	8388607.0	-272624.0	8388607.0
10	13	31	25	346	225.0	8388607.0	-267196.0	8388607.0
10	13	31	25	346	226.0	8388607.0	-269599.0	8388607.0
10	13	31	25	360	227.0	8388607.0	-278232.0	8388607.0
10	13	31	25	361	228.0	8388607.0	-275536.0	8388607.0
10	13	31	25	361	229.0	8388607.0	-270322.0	8388607.0
10	13	31	25	362	230.0	8388607.0	-264959.0	8388607.0
10	13	31	25	376	231.0	8388607.0	-264137.0	8388607.0
10	13	31	25	377	232.0	8388607.0	-267442.0	8388607.0
10	13	31	25	377	233.0	8388607.0	-269084.0	8388607.0
10	13	31	25	393	234.0	8388607.0	-264398.0	8388607.0
10	13	31	25	393	235.0	8388607.0	-260289.0	8388607.0
10	13	31	25	394	236.0	8388607.0	-259555.0	8388607.0
10	13	31	25	394	237.0	8388607.0	-262591.0	8388607.0
10	13	31	25	395	238.0	8388607.0	-262305.0	8388607.0
10	13	31	25	414	239.0	8388607.0	-254633.0	8388607.0
10	13	31	25	415	240.0	8388607.0	-247492.0	8388607.0
10	13	31	25	415	241.0	8388607.0	-245642.0	8388607.0
10	13	31	25	416	242.0	8388607.0	-249373.0	8388607.0
10	13	31	25	417	243.0	8388607.0	-249508.0	8388607.0
10	13	31	25	417	244.0	8388607.0	-245395.0	8388607.0
10	13	31	25	418	245.0	8388607.0	-245329.0	8388607.0
10	13	31	25	430	246.0	8388607.0	-245041.0	8388607.0
10	13	31	25	436	247.0	8388607.0	-246512.0	8388607.0
10	13	31	25	439	248.0	8388607.0	-247553.0	8388607.0
10	13	31	25	448	249.0	8388607.0	-241368.0	8388607.0
10	13	31	25	449	250.0	8388607.0	-236522.0	8388607.0
10	13	31	25	449	251.0	8388607.0	-242889.0	8388607.0
10	13	31	25	450	252.0	8388607.0	-249837.0	8388607.0
10	13	31	25	462	253.0	8388607.0	-248965.0	8388607.0
10	13	31	25	462	254.0	8388607.0	-241174.0	8388607.0
10	13	31	25	463	255.0	8388607.0	-235571.0	8388607.0
10	13	31	25	464	0.0	8388607.0	-237174.0	8388607.0
10	13	31	25	477	1.0	8388607.0	-238629.0	8388607.0
10	13	31	25	478	2.0	8388607.0	-239516.0	8388607.0
10	13	31	25	478	3.0	8388607.0	-239141.0	8388607.0
10	13	31	25	479	4.0	8388607.0	-229501.0	8388607.0
10	13	31	25	492	5.0	8388607.0	-231219.0	8388607.0
10	13	31	25	493	6.0	8388607.0	-238041.0	8388607.0
10	13	31	25	494	7.0	8388607.0	-240166.0	8388607.0
10	13	31	25	509	8.0	8388607.0	-234770.0	8388607.0
10	13	31	25	509	9.0	8388607.0	-227597.0	8388607.0
10	13	31	25	510	10.0	8388607.0	-225637.0	8388607.0
10	13	31	25	510	11.0	8388607.0	-231864.0	8388607.0
10	13	31	25	525	12.0	8388607.0	-231746.0	8388607.0
10	13	31	25	526	13.0	8388607.0	-227231.0	8388607.0
10	13	31	25	526	14.0	8388607.0	-224890.0	8388607.0
10	13	31	25	527	15.0	8388607.0	-228201.0	8388607.0
10	13	31	25	542	16.0	8388607.0	-233454.0	8388607.0
10	13	31	25	543	17.0	8388607.0	-235151.0	8388607.0
10	13	31	25	543	18.0	8388607.0	-233277.0	8388607.0
10	13	31	25	544	19.0	8388607.0	-231861.0	8388607.0
10	13	31	25	558	20.0	8388607.0	-230658.0	8388607.0
10	13	31	25	559	21.0	8388607.0	-235332.0	8388607.0
10	13	31	25	559	22.0	8388607.0	-236882.0	8388607.0
10	13	31	25	575	23.0	8388607.0	-233511.0	8388607.0
10	13	31	25	575	24.0	8388607.0	-230086.0	8388607.0
10	13	31	25	576	25.0	8388607.0	-233582.0	8388607.0
10	13	31	25	577	26.0	8388607.0	-239267.0	8388607.0
10	13	31	25	591	27.0	8388607.0	-238369.0	8388607.0
10	13	31	25	592	28.0	8388607.0	-233220.0	8388607.0
10	13	31	25	592	29.0	8388607.0	-234574.0	8388607.0
10	13	31	25	593	30.0	8388607.0	-237967.0	8388607.0
10	13	31	25	594	31.0	8388607.0	-243261.0	8388607.0
10	13	31	25	594	32.0	8388607.0	-244261.0	8388607.0
10	13	31	25	595	33.0	8388607.0	-240072.0	8388607.0
10	13	31	25	595	34.0	8388607.0	-238682.0	8388607.0
10	13	31	25	609	35.0	8388607.0	-239306.0	8388607.0
10	13	31	25	609	36.0	8388607.0	-243456.0	8388607.0
10	13	31	25	610	37.0	8388607.0	-244996.0	8388607.0
10	13	31	25	624	38.0	8388607.0	-237037.0	8388607.0
10	13	31	25	625	39.0	8388607.0	-229606.0	8388607.0
10	13	31	25	626	40.0	8388607.0	-231570.0	8388607.0
10	13	31	25	626	41.0	8388607.0	-238967.0	8388607.0
10	13	31	25	641	42.0	8388607.0	-237147.0	8388607.0
10	13	31	25	641	43.0	8388607.0	-230376.0	8388607.0
10	13	31	25	642	44.0	8388607.0	-224259.0	8388607.0
10	13	31	25	642	45.0	8388607.0	-224047.0	8388607.0
10	13	31	25	658	46.0	8388607.0	-226619.0	8388607.0
10	13	31	25	658	47.0	8388607.0	-223662.0	8388607.0
10	13	31	25	659	48.0	8388607.0	-217490.0	8388607.0
10	13	31	25	659	49.0	8388607.0	-217936.0	8388607.0
10	13	31	25	674	50.0	8388607.0	-215592.0	8388607.0
10	13	31	25	675	51.0	8388607.0	-221847.0	8388607.0
10	13	31	25	675	52.0	8388607.0	-221386.0	8388607.0
10	13	31	25	690	53.0	8388607.0	-220127.0	8388607.0
10	13	31	25	691	54.0	8388607.0	-216492.0	8388607.0
10	13	31	25	691	55.0	8388607.0	-213620.0	8388607.0
10	13	31	25	692	56.0	8388607.0	-215157.0	8388607.0
10	13	31	25	707	57.0	8388607.0	-208997.0	8388607.0
10	13	31	25	708	58.0	8388607.0	-203633.0	8388607.0
10	13	31	25	708	59.0	8388607.0	-207823.0	8388607.0
10	13	31	25	709	60.0	8388607.0	-214279.0	8388607.0
10	13	31	25	724	61.0	8388607.0	-222609.0	8388607.0
10	13	31	25	725	62.0	8388607.0	-226409.0	8388607.0
10	13	31	25	725	63.0	8388607.0	-227672.0	8388607.0
10	13	31	25	740	64.0	8388607.0	-224531.0	8388607.0
10	13	31	25	741	65.0	8388607.0	-225079.0	8388607.0
10	13	31	25	742	66.0	8388607.0	-233770.0	8388607.0
10	13	31	25	742	67.0	8388607.0	-238164.0	8388607.0
10	13	31	25	743	68.0	8388607.0	-234161.0	8388607.0
10	13	31	25	757	69.0	8388607.0	-228137.0	8388607.0
10	13	31	25	758	70.0	8388607.0	-231260.0	8388607.0
10	13	31	25	759	71.0	8388607.0	-235262.0	8388607.0
10	13	31	25	759	72.0	8388607.0	-223147.0	8388607.0
10	13	31	25	760	73.0	8388607.0	-208130.0	8388607.0
10	13	31	25	760	74.0	8388607.0	-192230.0	8388607.0
10	13	31	25	761	75.0	8388607.0	-205439.0	8388607.0
10	13	31	25	774	76.0	8388607.0	-253401.0	8388607.0
10	13	31	25	775	77.0	8388607.0	-309737.0	8388607.0
10	13	31	25	775	78.0	8388607.0	-349412.0	8388607.0
10	13	31	25	776	79.0	8388607.0	-372632.0	8388607.0
10	13	31	25	790	80.0	8388607.0	-366814.0	8388607.0
10	13	31	25	790	81.0	8388607.0	-353182.0	8388607.0
10	13	31	25	791	82.0	8388607.0	-321533.0	8388607.0
10	13	31	25	806	83.0	8388607.0	-303238.0	8388607.0
10	13	31	25	807	84.0	8388607.0	-276514.0	8388607.0
10	13	31	25	807	85.0	8388607.0	-235156.0	8388607.0
10	13	31	25	808	86.0	8388607.0	-211033.0	8388607.0
10	13	31	25	823	87.0	8388607.0	-198431.0	8388607.0
10	13	31	25	824	88.0	8388607.0	-192463.0	8388607.0
10	13	31	25	824	89.0	8388607.0	-191522.0	8388607.0
10	13	31	25	825	90.0	8388607.0	-188988.0	8388607.0
10	13	31	25	840	91.0	8388607.0	-189236.0	8388607.0
10	13	31	25	841	92.0	8388607.0	-187811.0	8388607.0
10	13	31	25	841	93.0	8388607.0	-181758.0	8388607.0
10	13	31	25	842	94.0	8388607.0	-170109.0	8388607.0
10	13	31	25	856	95.0	8388607.0	-160909.0	8388607.0
10	13	31	25	857	96.0	8388607.0	-159313.0	8388607.0
10	13	31	25	857	97.0	8388607.0	-155146.0	8388607.0
10	13	31	25	873	98.0	8388607.0	-149874.0	8388607.0
10	13	31	25	873	99.0	8388607.0	-143165.0	8388607.0
10	13	31	25	874	100.0	8388607.0	-142997.0	8388607.0
10	13	31	25	874	101.0	8388607.0	-144092.0	8388607.0
10	13	31	25	889	102.0	8388607.0	-134360.0	8388607.0
10	13	31	25	906	103.0	8388607.0	-119412.0	8388607.0
10	13	31	25	907	104.0	8388607.0	-111237.0	8388607.0
10	13	31	25	907	105.0	8388607.0	-114870.0	8388607.0
10	13	31	25	908	106.0	8388607.0	-123986.0	8388607.0
10	13	31	25	909	107.0	8388607.0	-120581.0	8388607.0
10	13	31	25	909	108.0	8388607.0	-109227.0	8388607.0
10	13	31	25	910	109.0	8388607.0	-102084.0	8388607.0
10	13	31	25	910	110.0	8388607.0	-100165.0	8388607.0
10	13	31	25	911	111.0	8388607.0	-99471.0	8388607.0
10	13	31	25	911	112.0	8388607.0	-93923.0	8388607.0
10	13	31	25	925	113.0	8388607.0	-88469.0	8388607.0
10	13	31	25	925	114.0	8388607.0	-84170.0	8388607.0
10	13	31	25	926	115.0	8388607.0	-84877.0	8388607.0
10	13	31	25	926	116.0	8388607.0	-90918.0	8388607.0
10	13	31	25	939	117.0	8388607.0	-88611.0	8388607.0
10	13	31	25	939	118.0	8388607.0	-82081.0	8388607.0
10	13	31	25	940	119.0	8388607.0	-72179.0	8388607.0
10	13	31	25	941	120.0	8388607.0	-71717.0	8388607.0
10	13	31	25	955	121.0	8388607.0	-75665.0	8388607.0
10	13	31	25	956	122.0	8388607.0	-69935.0	8388607.0
10	13	31	25	956	123.0	8388607.0	-65564.0	8388607.0
10	13	31	25	957	124.0	8388607.0	-60061.0	8388607.0
10	13	31	25	972	125.0	8388607.0	-58302.0	8388607.0
10	13	31	25	972	126.0	8388607.0	-59322.0	8388607.0
10	13	31	25	988	127.0	8388607.0	-57412.0	8388607.0
10	13	31	25	989	128.0	8388607.0	-48626.0	8388607.0
10	13	31	25	990	129.0	8388607.0	-41760.0	8388607.0
10	13	31	25	990	130.0	8388607.0	-46485.0	8388607.0
10	13	31	25	991	131.0	8388607.0	-51895.0	8388607.0
10	13	31	26	5	132.0	8388607.0	-46736.0	8388607.0
10	13	31	26	6	133.0	8388607.0	-36499.0	8388607.0
10	13	31	26	6	134.0	8388607.0	-37774.0	8388607.0
10	13	31	26	7	135.0	8388607.0	-44203.0	8388607.0
10	13	31	26	21	136.0	8388607.0	-48557.0	8388607.0
10	13	31	26	38	137.0	8388607.0	-48781.0	8388607.0
10	13	31	26	39	138.0	8388607.0	-48906.0	8388607.0
10	13	31	26	39	139.0	8388607.0	-47779.0	8388607.0
10	13	31	26	40	140.0	8388607.0	-51681.0	8388607.0
10	13	31	26	40	141.0	8388607.0	-59181.0	8388607.0
10	13	31	26	41	142.0	8388607.0	-63860.0	8388607.0
10	13	31	26	41	143.0	8388607.0	-64664.0	8388607.0
10	13	31	26	54	144.0	8388607.0	-57167.0	8388607.0
10	13	31	26	55	145.0	8388607.0	-58611.0	8388607.0
10	13	31	26	56	146.0	8388607.0	-66714.0	8388607.0
10	13	31	26	71	147.0	8388607.0	-65909.0	8388607.0
10	13	31	26	72	148.0	8388607.0	-62829.0	8388607.0
10	13	31	26	73	149.0	8388607.0	-64093.0	8388607.0
10	13	31	26	73	150.0	8388607.0	-63788.0	8388607.0
10	13	31	26	74	151.0	8388607.0	-66220.0	8388607.0
10	13	31	26	74	152.0	8388607.0	-63737.0	8388607.0
10	13	31	26	75	153.0	8388607.0	-58786.0	8388607.0
10	13	31	26	76	154.0	8388607.0	-58213.0	8388607.0
10	13	31	26	104	155.0	8388607.0	-58661.0	8388607.0
10	13	31	26	105	156.0	8388607.0	-58477.0	8388607.0
10	13	31	26	106	157.0	8388607.0	-58175.0	8388607.0
10	13	31	26	106	158.0	8388607.0	-56272.0	8388607.0
10	13	31	26	107	159.0	8388607.0	-57029.0	8388607.0
10	13	31	26	107	160.0	8388607.0	-58440.0	8388607.0
10	13	31	26	108	161.0	8388607.0	-60147.0	8388607.0
10	13	31	26	109	162.0	8388607.0	-64631.0	8388607.0
10	13	31	26	123	163.0	8388607.0	-61365.0	8388607.0
10	13	31	26	123	164.0	8388607.0	-58059.0	8388607.0
10	13	31	26	124	165.0	8388607.0	-65275.0	8388607.0
10	13	31	26	138	166.0	8388607.0	-63922.0	8388607.0
10	13	31	26	138	167.0	8388607.0	-62182.0	8388607.0
10	13	31	26	139	168.0	8388607.0	-62621.0	8388607.0
10	13	31	26	154	169.0	8388607.0	-59492.0	8388607.0
10	13	31	26	155	170.0	8388607.0	-63238.0	8388607.0
10	13	31	26	156	171.0	8388607.0	-71004.0	8388607.0
10	13	31	26	156	172.0	8388607.0	-70318.0	8388607.0
10	13	31	26	171	173.0	8388607.0	-64968.0	8388607.0
10	13	31	26	171	174.0	8388607.0	-58121.0	8388607.0
10	13	31	26	172	175.0	8388607.0	-63194.0	8388607.0
10	13	31	26	173	176.0	8388607.0	-64032.0	8388607.0
10	13	31	26	187	177.0	8388607.0	-59819.0	8388607.0
10	13	31	26	188	178.0	8388607.0	-56588.0	8388607.0
10	13	31	26	188	179.0	8388607.0	-55883.0	8388607.0
10	13	31	26	189	180.0	8388607.0	-58414.0	8388607.0
10	13	31	26	213	181.0	8388607.0	-62737.0	8388607.0
10	13	31	26	215	182.0	8388607.0	-61271.0	8388607.0
10	13	31	26	216	183.0	8388607.0	-57144.0	8388607.0
10	13	31	26	217	184.0	8388607.0	-56197.0	8388607.0
10	13	31	26	217	185.0	8388607.0	-58309.0	8388607.0
10	13	31	26	218	186.0	8388607.0	-62615.0	8388607.0
10	13	31	26	218	187.0	8388607.0	-59424.0	8388607.0
10	13	31	26	226	188.0	8388607.0	-55991.0	8388607.0
10	13	31	26	226	189.0	8388607.0	-52556.0	8388607.0
10	13	31	26	227	190.0	8388607.0	-56726.0	8388607.0
10	13	31	26	228	191.0	8388607.0	-65514.0	8388607.0
10	13	31	26	241	192.0	8388607.0	-65468.0	8388607.0
10	13	31	26	241	193.0	8388607.0	-58862.0	8388607.0
10	13	31	26	242	194.0	8388607.0	-58344.0	8388607.0
10	13	31	26	243	195.0	8388607.0	-66309.0	8388607.0
10	13	31	26	256	196.0	8388607.0	-70823.0	8388607.0
10	13	31	26	256	197.0	8388607.0	-62167.0	8388607.0
10	13	31	26	257	198.0	8388607.0	-58980.0	8388607.0
10	13	31	26	284	199.0	8388607.0	-60332.0	8388607.0
10	13	31	26	284	200.0	8388607.0	-65711.0	8388607.0
10	13	31	26	285	201.0	8388607.0	-76451.0	8388607.0
10	13	31	26	286	202.0	8388607.0	-75427.0	8388607.0
10	13	31	26	286	203.0	8388607.0	-67724.0	8388607.0
10	13	31	26	287	204.0	8388607.0	-70258.0	8388607.0
10	13	31	26	287	205.0	8388607.0	-72183.0	8388607.0
10	13	31	26	288	206.0	8388607.0	-72859.0	8388607.0
10	13	31	26	288	207.0	8388607.0	-72549.0	8388607.0
10	13	31	26	304	208.0	8388607.0	-66741.0	8388607.0
10	13	31	26	305	209.0	8388607.0	-69079.0	8388607.0
10	13	31	26	305	210.0	8388607.0	-75410.0	8388607.0
10	13	31	26	319	211.0	8388607.0	-77340.0	8388607.0
10	13	31	26	320	212.0	8388607.0	-76622.0	8388607.0
10	13	31	26	320	213.0	8388607.0	-72654.0	8388607.0
10	13	31	26	337	214.0	8388607.0	-73848.0	8388607.0
10	13	31	26	337	215.0	8388607.0	-79552.0	8388607.0
10	13	31	26	338	216.0	8388607.0	-82727.0	8388607.0
10	13	31	26	338	217.0	8388607.0	-85571.0	8388607.0
10	13	31	26	353	218.0	8388607.0	-76123.0	8388607.0
10	13	31	26	353	219.0	8388607.0	-74976.0	8388607.0
10	13	31	26	354	220.0	8388607.0	-78991.0	8388607.0
10	13	31	26	355	221.0	8388607.0	-80012.0	8388607.0
10	13	31	26	370	222.0	8388607.0	-74585.0	8388607.0
10	13	31	26	370	223.0	8388607.0	-67384.0	8388607.0
10	13	31	26	371	224.0	8388607.0	-67627.0	8388607.0
10	13	31	26	372	225.0	8388607.0	-73314.0	8388607.0
10	13	31	26	390	226.0	8388607.0	-74709.0	8388607.0
10	13	31	26	391	227.0	8388607.0	-71971.0	8388607.0
10	13	31	26	391	228.0	8388607.0	-67637.0	8388607.0
10	13	31	26	392	229.0	8388607.0	-64109.0	8388607.0
10	13	31	26	392	230.0	8388607.0	-69703.0	8388607.0
10	13	31	26	393	231.0	8388607.0	-70391.0	8388607.0
10	13	31	26	394	232.0	8388607.0	-68258.0	8388607.0
10	13	31	26	394	233.0	8388607.0	-70331.0	8388607.0
10	13	31	26	404	234.0	8388607.0	-66597.0	8388607.0
10	13	31	26	405	235.0	8388607.0	-71246.0	8388607.0
10	13	31	26	405	236.0	8388607.0	-81284.0	8388607.0
10	13	31	26	419	237.0	8388607.0	-80373.0	8388607.0
10	13	31	26	419	238.0	8388607.0	-75673.0	8388607.0
10	13	31	26	420	239.0	8388607.0	-77461.0	8388607.0
10	13	31	26	421	240.0	8388607.0	-84992.0	8388607.0
10	13	31	26	435	241.0	8388607.0	-84481.0	8388607.0
10	13	31	26	436	242.0	8388607.0	-78347.0	8388607.0
10	13	31	26	436	243.0	8388607.0	-70821.0	8388607.0
10	13	31	26	451	244.0	8388607.0	-66567.0	8388607.0
10	13	31	26	452	245.0	8388607.0	-70952.0	8388607.0
10	13	31	26	452	246.0	8388607.0	-81859.0	8388607.0
10	13	31	26	453	247.0	8388607.0	-84421.0	8388607.0
10	13	31	26	469	248.0	8388607.0	-74232.0	8388607.0
10	13	31	26	469	249.0	8388607.0	-72789.0	8388607.0
10	13	31	26	470	250.0	8388607.0	-76128.0	8388607.0
10	13	31	26	470	251.0	8388607.0	-79048.0	8388607.0
10	13	31	26	485	252.0	8388607.0	-78738.0	8388607.0
10	13	31	26	486	253.0	8388607.0	-73984.0	8388607.0
10	13	31	26	486	254.0	8388607.0	-69485.0	8388607.0
10	13	31	26	487	255.0	8388607.0	-73080.0	8388607.0
10	13	31	26	501	0.0	8388607.0	-72077.0	8388607.0
10	13	31	26	518	1.0	8388607.0	-66148.0	8388607.0
10	13	31	26	519	2.0	8388607.0	-56867.0	8388607.0
10	13	31	26	519	3.0	8388607.0	-39786.0	8388607.0
10	13	31	26	520	4.0	8388607.0	-31529.0	8388607.0
10	13	31	26	520	5.0	8388607.0	-41854.0	8388607.0
10	13	31	26	521	6.0	8388607.0	-73266.0	8388607.0
10	13	31	26	534	7.0	8388607.0	-117791.0	8388607.0
10	13	31	26	535	8.0	8388607.0	-159621.0	8388607.0
10	13	31	26	535	9.0	8388607.0	-193270.0	8388607.0
10	13	31	26	551	10.0	8388607.0	-209601.0	8388607.0
10	13	31	26	551	11.0	8388607.0	-195489.0	8388607.0
10	13	31	26	552	12.0	8388607.0	-169217.0	8388607.0
10	13	31	26	553	13.0	8388607.0	-143631.0	8388607.0
10	13	31	26	553	14.0	8388607.0	-128380.0	8388607.0
10	13	31	26	554	15.0	8388607.0	-90607.0	8388607.0
10	13	31	26	554	16.0	8388607.0	-54396.0	8388607.0
10	13	31	26	555	17.0	8388607.0	-40251.0	8388607.0
10	13	31	26	569	18.0	8388607.0	-40867.0	8388607.0
10	13	31	26	570	19.0	8388607.0	-42257.0	8388607.0
10	13	31	26	571	20.0	8388607.0	-46627.0	8388607.0
10	13	31	26	571	21.0	8388607.0	-44995.0	8388607.0
10	13	31	26	584	22.0	8388607.0	-33457.0	8388607.0
10	13	31	26	584	23.0	8388607.0	-27999.0	8388607.0
10	13	31	26	585	24.0	8388607.0	-34137.0	8388607.0
10	13	31	26	586	25.0	8388607.0	-39878.0	8388607.0
10	13	31	26	601	26.0	8388607.0	-35444.0	8388607.0
10	13	31	26	601	27.0	8388607.0	-30129.0	8388607.0
10	13	31	26	602	28.0	8388607.0	-26989.0	8388607.0
10	13	31	26	602	29.0	8388607.0	-28402.0	8388607.0
10	13	31	26	617	30.0	8388607.0	-30987.0	8388607.0
10	13	31	26	618	31.0	8388607.0	-27798.0	8388607.0
10	13	31	26	618	32.0	8388607.0	-23356.0	8388607.0
10	13	31	26	634	33.0	8388607.0	-21667.0	8388607.0
10	13	31	26	634	34.0	8388607.0	-30266.0	8388607.0
10	13	31	26	635	35.0	8388607.0	-30507.0	8388607.0
10	13	31	26	636	36.0	8388607.0	-24601.0	8388607.0
10	13	31	26	651	37.0	8388607.0	-20879.0	8388607.0
10	13	31	26	652	38.0	8388607.0	-16767.0	8388607.0
10	13	31	26	652	39.0	8388607.0	-25384.0	8388607.0
10	13	31	26	653	40.0	8388607.0	-27624.0	8388607.0
10	13	31	26	666	41.0	8388607.0	-27009.0	8388607.0
10	13	31	26	667	42.0	8388607.0	-24142.0	8388607.0
10	13	31	26	667	43.0	8388607.0	-23585.0	8388607.0
10	13	31	26	668	44.0	8388607.0	-24260.0	8388607.0
10	13	31	26	684	45.0	8388607.0	-26466.0	8388607.0
10	13	31	26	684	46.0	8388607.0	-24073.0	8388607.0
10	13	31	26	685	47.0	8388607.0	-19771.0	8388607.0
10	13	31	26	700	48.0	8388607.0	-17012.0	8388607.0
10	13	31	26	701	49.0	8388607.0	-18194.0	8388607.0
10	13	31	26	702	50.0	8388607.0	-22589.0	8388607.0
10	13	31	26	702	51.0	8388607.0	-21706.0	8388607.0
10	13	31	26	717	52.0	8388607.0	-18271.0	8388607.0
10	13	31	26	717	53.0	8388607.0	-17771.0	8388607.0
10	13	31	26	718	54.0	8388607.0	-23521.0	8388607.0
10	13	31	26	719	55.0	8388607.0	-26306.0	8388607.0
10	13	31	26	719	56.0	8388607.0	-21045.0	8388607.0
10	13	31	26	720	57.0	8388607.0	-12174.0	8388607.0
10	13	31	26	720	58.0	8388607.0	-10963.0	8388607.0
10	13	31	26	721	59.0	8388607.0	-15696.0	8388607.0
10	13	31	26	733	60.0	8388607.0	-20620.0	8388607.0
10	13	31	26	734	61.0	8388607.0	-16177.0	8388607.0
10	13	31	26	735	62.0	8388607.0	-11856.0	8388607.0
10	13	31	26	749	63.0	8388607.0	-8497.0	8388607.0
10	13	31	26	766	64.0	8388607.0	-14426.0	8388607.0
10	13	31	26	766	65.0	8388607.0	-18942.0	8388607.0
10	13	31	26	767	66.0	8388607.0	-16104.0	8388607.0
10	13	31	26	768	67.0	8388607.0	-13076.0	8388607.0
10	13	31	26	768	68.0	8388607.0	-12627.0	8388607.0
10	13	31	26	769	69.0	8388607.0	-16221.0	8388607.0
10	13	31	26	769	70.0	8388607.0	-23589.0	8388607.0
10	13	31	26	783	71.0	8388607.0	-24669.0	8388607.0
10	13	31	26	783	72.0	8388607.0	-18590.0	8388607.0
10	13	31	26	784	73.0	8388607.0	-20029.0	8388607.0
10	13	31	26	785	74.0	8388607.0	-32026.0	8388607.0
10	13	31	26	799	75.0	8388607.0	-35145.0	8388607.0
10	13	31	26	800	76.0	8388607.0	-33779.0	8388607.0
10	13	31	26	801	77.0	8388607.0	-34484.0	8388607.0
10	13	31	26	816	78.0	8388607.0	-36880.0	8388607.0
10	13	31	26	816	79.0	8388607.0	-42859.0	8388607.0
10	13	31	26	817	80.0	8388607.0	-46764.0	8388607.0
10	13	31	26	817	81.0	8388607.0	-44897.0	8388607.0
10	13	31	26	840	82.0	8388607.0	-40156.0	8388607.0
10	13	31	26	841	83.0	8388607.0	-35406.0	8388607.0
10	13	31	26	842	84.0	8388607.0	-40959.0	8388607.0
10	13	31	26	842	85.0	8388607.0	-48837.0	8388607.0
10	13	31	26	843	86.0	8388607.0	-48948.0	8388607.0
10	13	31	26	844	87.0	8388607.0	-44449.0	8388607.0
10	13	31	26	844	88.0	8388607.0	-42637.0	8388607.0
10	13	31	26	845	89.0	8388607.0	-48941.0	8388607.0
10	13	31	26	854	90.0	8388607.0	-49866.0	8388607.0
10	13	31	26	855	91.0	8388607.0	-46894.0	8388607.0
10	13	31	26	855	92.0	8388607.0	-44420.0	8388607.0
10	13	31	26	869	93.0	8388607.0	-46302.0	8388607.0
10	13	31	26	870	94.0	8388607.0	-51911.0	8388607.0
10	13	31	26	870	95.0	8388607.0	-54897.0	8388607.0
10	13	31	26	871	96.0	8388607.0	-52087.0	8388607.0
10	13	31	26	884	97.0	8388607.0	-50285.0	8388607.0
10	13	31	26	885	98.0	8388607.0	-51061.0	8388607.0
10	13	31	26	885	99.0	8388607.0	-56656.0	8388607.0
10	13	31	26	886	100.0	8388607.0	-57131.0	8388607.0
10	13	31	26	899	101.0	8388607.0	-53466.0	8388607.0
10	13	31	26	900	102.0	8388607.0	-48656.0	8388607.0
10	13	31	26	900	103.0	8388607.0	-51821.0	8388607.0
10	13	31	26	915	104.0	8388607.0	-54529.0	8388607.0
10	13	31	26	916	105.0	8388607.0	-57958.0	8388607.0
10	13	31	26	916	106.0	8388607.0	-53110.0	8388607.0
10	13	31	26	917	107.0	8388607.0	-53056.0	8388607.0
10	13	31	26	932	108.0	8388607.0	-51303.0	8388607.0
10	13	31	26	932	109.0	8388607.0	-54377.0	8388607.0
10	13	31	26	933	110.0	8388607.0	-56707.0	8388607.0
10	13	31	26	933	111.0	8388607.0	-54748.0	8388607.0
10	13	31	26	948	112.0	8388607.0	-48516.0	8388607.0
10	13	31	26	949	113.0	8388607.0	-48268.0	8388607.0
10	13	31	26	950	114.0	8388607.0	-54201.0	8388607.0
10	13	31	26	950	115.0	8388607.0	-52520.0	8388607.0
10	13	31	26	976	116.0	8388607.0	-47117.0	8388607.0
10	13	31	26	977	117.0	8388607.0	-43755.0	8388607.0
10	13	31	26	977	118.0	8388607.0	-48716.0	8388607.0
10	13	31	26	978	119.0	8388607.0	-55492.0	8388607.0
10	13	31	26	979	120.0	8388607.0	-56702.0	8388607.0
10	13	31	26	979	121.0	8388607.0	-54039.0	8388607.0
10	13	31	26	980	122.0	8388607.0	-55350.0	8388607.0
10	13	31	26	980	123.0	8388607.0	-55338.0	8388607.0
10	13	31	26	998	124.0	8388607.0	-60052.0	8388607.0
10	13	31	26	999	125.0	8388607.0	-64597.0	8388607.0
10	13	31	27	0	126.0	8388607.0	-64420.0	8388607.0
10	13	31	27	14	127.0	8388607.0	-59747.0	8388607.0
10	13	31	27	15	128.0	8388607.0	-57347.0	8388607.0
10	13	31	27	16	129.0	8388607.0	-62404.0	8388607.0
10	13	31	27	16	130.0	8388607.0	-65494.0	8388607.0
10	13	31	27	32	131.0	8388607.0	-61267.0	8388607.0
10	13	31	27	32	132.0	8388607.0	-57730.0	8388607.0
10	13	31	27	33	133.0	8388607.0	-59707.0	8388607.0
10	13	31	27	48	134.0	8388607.0	-68102.0	8388607.0
10	13	31	27	48	135.0	8388607.0	-68609.0	8388607.0
10	13	31	27	49	136.0	8388607.0	-68877.0	8388607.0
10	13	31	27	50	137.0	8388607.0	-67267.0	8388607.0
10	13	31	27	50	138.0	8388607.0	-67772.0	8388607.0
10	13	31	27	51	139.0	8388607.0	-74005.0	8388607.0
10	13	31	27	51	140.0	8388607.0	-75907.0	8388607.0
10	13	31	27	52	141.0	8388607.0	-77392.0	8388607.0
10	13	31	27	79	142.0	8388607.0	-74319.0	8388607.0
10	13	31	27	80	143.0	8388607.0	-76866.0	8388607.0
10	13	31	27	80	144.0	8388607.0	-80841.0	8388607.0
10	13	31	27	81	145.0	8388607.0	-81568.0	8388607.0
10	13	31	27	82	146.0	8388607.0	-77569.0	8388607.0
10	13	31	27	82	147.0	8388607.0	-77504.0	8388607.0
10	13	31	27	83	148.0	8388607.0	-78834.0	8388607.0
10	13	31	27	83	149.0	8388607.0	-85455.0	8388607.0
10	13	31	27	98	150.0	8388607.0	-83157.0	8388607.0
10	13	31	27	99	151.0	8388607.0	-80181.0	8388607.0
10	13	31	27	100	152.0	8388607.0	-78096.0	8388607.0
10	13	31	27	114	153.0	8388607.0	-80161.0	8388607.0
10	13	31	27	114	154.0	8388607.0	-86451.0	8388607.0
10	13	31	27	115	155.0	8388607.0	-93119.0	8388607.0
10	13	31	27	115	156.0	8388607.0	-92266.0	8388607.0
10	13	31	27	130	157.0	8388607.0	-86757.0	8388607.0
10	13	31	27	131	158.0	8388607.0	-84642.0	8388607.0
10	13	31	27	132	159.0	8388607.0	-90530.0	8388607.0
10	13	31	27	132	160.0	8388607.0	-89459.0	8388607.0
10	13	31	27	147	161.0	8388607.0	-85816.0	8388607.0
10	13	31	27	147	162.0	8388607.0	-81602.0	8388607.0
10	13	31	27	148	163.0	8388607.0	-87907.0	8388607.0
10	13	31	27	149	164.0	8388607.0	-91686.0	8388607.0
10	13	31	27	164	165.0	8388607.0	-88799.0	8388607.0
10	13	31	27	165	166.0	8388607.0	-85367.0	8388607.0
10	13	31	27	165	167.0	8388607.0	-83431.0	8388607.0
10	13	31	27	180	168.0	8388607.0	-85376.0	8388607.0
10	13	31	27	180	169.0	8388607.0	-88406.0	8388607.0
10	13	31	27	181	170.0	8388607.0	-92009.0	8388607.0
10	13	31	27	182	171.0	8388607.0	-87307.0	8388607.0
10	13	31	27	196	172.0	8388607.0	-85724.0	8388607.0
10	13	31	27	197	173.0	8388607.0	-86830.0	8388607.0
10	13	31	27	198	174.0	8388607.0	-87459.0	8388607.0
10	13	31	27	198	175.0	8388607.0	-88332.0	8388607.0
10	13	31	27	199	176.0	8388607.0	-85269.0	8388607.0
10	13	31	27	200	177.0	8388607.0	-81012.0	8388607.0
10	13	31	27	200	178.0	8388607.0	-84941.0	8388607.0
10	13	31	27	214	179.0	8388607.0	-87101.0	8388607.0
10	13	31	27	214	180.0	8388607.0	-86262.0	8388607.0
10	13	31	27	215	181.0	8388607.0	-84342.0	8388607.0
10	13	31	27	215	182.0	8388607.0	-82316.0	8388607.0
10	13	31	27	229	183.0	8388607.0	-80256.0	8388607.0
10	13	31	27	230	184.0	8388607.0	-84096.0	8388607.0
10	13	31	27	231	185.0	8388607.0	-84281.0	8388607.0
10	13	31	27	231	186.0	8388607.0	-79192.0	8388607.0
10	13	31	27	246	187.0	8388607.0	-74304.0	8388607.0
10	13	31	27	246	188.0	8388607.0	-73562.0	8388607.0
10	13	31	27	247	189.0	8388607.0	-76343.0	8388607.0
10	13	31	27	263	190.0	8388607.0	-78288.0	8388607.0
10	13	31	27	263	191.0	8388607.0	-79166.0	8388607.0
10	13	31	27	264	192.0	8388607.0	-72331.0	8388607.0
10	13	31	27	265	193.0	8388607.0	-74669.0	8388607.0
10	13	31	27	265	194.0	8388607.0	-77881.0	8388607.0
10	13	31	27	279	195.0	8388607.0	-75699.0	8388607.0
10	13	31	27	280	196.0	8388607.0	-74147.0	8388607.0
10	13	31	27	281	197.0	8388607.0	-72862.0	8388607.0
10	13	31	27	296	198.0	8388607.0	-71499.0	8388607.0
10	13	31	27	296	199.0	8388607.0	-77693.0	8388607.0
10	13	31	27	297	200.0	8388607.0	-78553.0	8388607.0
10	13	31	27	298	201.0	8388607.0	-73069.0	8388607.0
10	13	31	27	312	202.0	8388607.0	-68690.0	8388607.0
10	13	31	27	313	203.0	8388607.0	-70569.0	8388607.0
10	13	31	27	313	204.0	8388607.0	-77161.0	8388607.0
10	13	31	27	329	205.0	8388607.0	-78590.0	8388607.0
10	13	31	27	330	206.0	8388607.0	-77804.0	8388607.0
10	13	31	27	330	207.0	8388607.0	-74477.0	8388607.0
10	13	31	27	331	208.0	8388607.0	-77238.0	8388607.0
10	13	31	27	345	209.0	8388607.0	-82841.0	8388607.0
10	13	31	27	346	210.0	8388607.0	-76304.0	8388607.0
10	13	31	27	347	211.0	8388607.0	-68766.0	8388607.0
10	13	31	27	347	212.0	8388607.0	-66201.0	8388607.0
10	13	31	27	362	213.0	8388607.0	-68432.0	8388607.0
10	13	31	27	362	214.0	8388607.0	-73232.0	8388607.0
10	13	31	27	363	215.0	8388607.0	-71977.0	8388607.0
10	13	31	27	364	216.0	8388607.0	-71450.0	8388607.0
10	13	31	27	364	217.0	8388607.0	-63731.0	8388607.0
10	13	31	27	365	218.0	8388607.0	-56059.0	8388607.0
10	13	31	27	365	219.0	8388607.0	-51052.0	8388607.0
10	13	31	27	366	220.0	8388607.0	-35780.0	8388607.0
10	13	31	27	394	221.0	8388607.0	-23703.0	8388607.0
10	13	31	27	395	222.0	8388607.0	-48750.0	8388607.0
10	13	31	27	395	223.0	8388607.0	-100451.0	8388607.0
10	13	31	27	396	224.0	8388607.0	-158232.0	8388607.0
10	13	31	27	397	225.0	8388607.0	-186842.0	8388607.0
10	13	31	27	397	226.0	8388607.0	-205434.0	8388607.0
10	13	31	27	398	227.0	8388607.0	-195307.0	8388607.0
10	13	31	27	399	228.0	8388607.0	-180997.0	8388607.0
10	13	31	27	412	229.0	8388607.0	-150361.0	8388607.0
10	13	31	27	413	230.0	8388607.0	-135288.0	8388607.0
10	13	31	27	413	231.0	8388607.0	-103676.0	8388607.0
10	13	31	27	428	232.0	8388607.0	-67963.0	8388607.0
10	13	31	27	428	233.0	8388607.0	-52339.0	8388607.0
10	13	31	27	429	234.0	8388607.0	-57756.0	8388607.0
10	13	31	27	430	235.0	8388607.0	-55247.0	8388607.0
10	13	31	27	444	236.0	8388607.0	-50286.0	8388607.0
10	13	31	27	445	237.0	8388607.0	-49860.0	8388607.0
10	13	31	27	446	238.0	8388607.0	-54009.0	8388607.0
10	13	31	27	461	239.0	8388607.0	-57394.0	8388607.0
10	13	31	27	462	240.0	8388607.0	-54212.0	8388607.0
10	13	31	27	462	241.0	8388607.0	-48774.0	8388607.0
10	13	31	27	463	242.0	8388607.0	-43942.0	8388607.0
10	13	31	27	477	243.0	8388607.0	-45281.0	8388607.0
10	13	31	27	478	244.0	8388607.0	-45182.0	8388607.0
10	13	31	27	479	245.0	8388607.0	-46833.0	8388607.0
10	13	31	27	479	246.0	8388607.0	-43627.0	8388607.0
10	13	31	27	494	247.0	8388607.0	-34539.0	8388607.0
10	13	31	27	494	248.0	8388607.0	-38024.0	8388607.0
10	13	31	27	495	249.0	8388607.0	-43966.0	8388607.0
10	13	31	27	496	250.0	8388607.0	-46395.0	8388607.0
10	13	31	27	511	251.0	8388607.0	-39927.0	8388607.0
10	13	31	27	511	252.0	8388607.0	-36952.0	8388607.0
10	13	31	27	512	253.0	8388607.0	-43772.0	8388607.0
10	13	31	27	527	254.0	8388607.0	-50689.0	8388607.0
10	13	31	27	528	255.0	8388607.0	-51204.0	8388607.0
10	13	31	27	529	0.0	8388607.0	-47247.0	8388607.0
10	13	31	27	529	1.0	8388607.0	-42639.0	8388607.0
10	13	31	27	530	2.0	8388607.0	-46587.0	8388607.0
10	13	31	27	530	3.0	8388607.0	-52227.0	8388607.0
10	13	31	27	531	4.0	8388607.0	-50446.0	8388607.0
10	13	31	27	532	5.0	8388607.0	-40639.0	8388607.0
10	13	31	27	544	6.0	8388607.0	-37949.0	8388607.0
10	13	31	27	544	7.0	8388607.0	-41541.0	8388607.0
10	13	31	27	545	8.0	8388607.0	-47252.0	8388607.0
10	13	31	27	560	9.0	8388607.0	-45525.0	8388607.0
10	13	31	27	561	10.0	8388607.0	-37584.0	8388607.0
10	13	31	27	561	11.0	8388607.0	-33911.0	8388607.0
10	13	31	27	562	12.0	8388607.0	-36511.0	8388607.0
10	13	31	27	578	13.0	8388607.0	-40321.0	8388607.0
10	13	31	27	578	14.0	8388607.0	-38822.0	8388607.0
10	13	31	27	579	15.0	8388607.0	-36502.0	8388607.0
10	13	31	27	580	16.0	8388607.0	-33667.0	8388607.0
10	13	31	27	593	17.0	8388607.0	-36511.0	8388607.0
10	13	31	27	594	18.0	8388607.0	-38186.0	8388607.0
10	13	31	27	594	19.0	8388607.0	-38347.0	8388607.0
10	13	31	27	595	20.0	8388607.0	-31922.0	8388607.0
10	13	31	27	610	21.0	8388607.0	-30062.0	8388607.0
10	13	31	27	635	22.0	8388607.0	-31560.0	8388607.0
10	13	31	27	636	23.0	8388607.0	-41608.0	8388607.0
10	13	31	27	637	24.0	8388607.0	-41859.0	8388607.0
10	13	31	27	638	25.0	8388607.0	-34361.0	8388607.0
10	13	31	27	639	26.0	8388607.0	-30551.0	8388607.0
10	13	31	27	640	27.0	8388607.0	-32938.0	8388607.0
10	13	31	27	640	28.0	8388607.0	-39348.0	8388607.0
10	13	31	27	641	29.0	8388607.0	-42306.0	8388607.0
10	13	31	27	642	30.0	8388607.0	-38536.0	8388607.0
10	13	31	27	642	31.0	8388607.0	-39079.0	8388607.0
10	13	31	27	643	32.0	8388607.0	-43470.0	8388607.0
10	13	31	27	660	33.0	8388607.0	-49241.0	8388607.0
10	13	31	27	661	34.0	8388607.0	-48952.0	8388607.0
10	13	31	27	662	35.0	8388607.0	-50527.0	8388607.0
10	13	31	27	676	36.0	8388607.0	-49170.0	8388607.0
10	13	31	27	677	37.0	8388607.0	-54572.0	8388607.0
10	13	31	27	678	38.0	8388607.0	-62545.0	8388607.0
10	13	31	27	678	39.0	8388607.0	-68611.0	8388607.0
10	13	31	27	679	40.0	8388607.0	-66072.0	8388607.0
10	13	31	27	680	41.0	8388607.0	-63271.0	8388607.0
10	13	31	27	680	42.0	8388607.0	-66336.0	8388607.0
10	13	31	27	695	43.0	8388607.0	-71700.0	8388607.0
10	13	31	27	695	44.0	8388607.0	-69013.0	8388607.0
10	13	31	27	696	45.0	8388607.0	-68034.0	8388607.0
10	13	31	27	697	46.0	8388607.0	-69100.0	8388607.0
10	13	31	27	709	47.0	8388607.0	-73142.0	8388607.0
10	13	31	27	710	48.0	8388607.0	-76584.0	8388607.0
10	13	31	27	711	49.0	8388607.0	-75446.0	8388607.0
10	13	31	27	711	50.0	8388607.0	-77018.0	8388607.0
10	13	31	27	726	51.0	8388607.0	-74971.0	8388607.0
10	13	31	27	727	52.0	8388607.0	-74521.0	8388607.0
10	13	31	27	728	53.0	8388607.0	-84494.0	8388607.0
10	13	31	27	742	54.0	8388607.0	-82029.0	8388607.0
10	13	31	27	743	55.0	8388607.0	-74234.0	8388607.0
10	13	31	27	744	56.0	8388607.0	-76864.0	8388607.0
10	13	31	27	744	57.0	8388607.0	-79992.0	8388607.0
10	13	31	27	759	58.0	8388607.0	-83086.0	8388607.0
10	13	31	27	760	59.0	8388607.0	-80941.0	8388607.0
10	13	31	27	760	60.0	8388607.0	-78767.0	8388607.0
10	13	31	27	761	61.0	8388607.0	-76381.0	8388607.0
10	13	31	27	777	62.0	8388607.0	-78305.0	8388607.0
10	13	31	27	778	63.0	8388607.0	-78689.0	8388607.0
10	13	31	27	784	64.0	8388607.0	-79438.0	8388607.0
10	13	31	27	785	65.0	8388607.0	-74463.0	8388607.0
10	13	31	27	786	66.0	8388607.0	-70346.0	8388607.0
10	13	31	27	787	67.0	8388607.0	-70861.0	8388607.0
10	13	31	27	787	68.0	8388607.0	-77722.0	8388607.0
10	13	31	27	798	69.0	8388607.0	-79004.0	8388607.0
10	13	31	27	799	70.0	8388607.0	-74645.0	8388607.0
10	13	31	27	800	71.0	8388607.0	-71478.0	8388607.0
10	13	31	27	800	72.0	8388607.0	-77011.0	8388607.0
10	13	31	27	814	73.0	8388607.0	-81277.0	8388607.0
10	13	31	27	815	74.0	8388607.0	-74611.0	8388607.0
10	13	31	27	815	75.0	8388607.0	-66854.0	8388607.0
10	13	31	27	816	76.0	8388607.0	-64524.0	8388607.0
10	13	31	27	829	77.0	8388607.0	-72184.0	8388607.0
10	13	31	27	829	78.0	8388607.0	-77254.0	8388607.0
10	13	31	27	830	79.0	8388607.0	-77136.0	8388607.0
10	13	31	27	843	80.0	8388607.0	-75739.0	8388607.0
10	13	31	27	844	81.0	8388607.0	-67747.0	8388607.0
10	13	31	27	845	82.0	8388607.0	-69342.0	8388607.0
10	13	31	27	858	83.0	8388607.0	-79674.0	8388607.0
10	13	31	27	858	84.0	8388607.0	-78389.0	8388607.0
10	13	31	27	859	85.0	8388607.0	-71484.0	8388607.0
10	13	31	27	860	86.0	8388607.0	-73504.0	8388607.0
10	13	31	27	860	87.0	8388607.0	-81399.0	8388607.0
10	13	31	27	874	88.0	8388607.0	-85594.0	8388607.0
10	13	31	27	875	89.0	8388607.0	-83807.0	8388607.0
10	13	31	27	876	90.0	8388607.0	-83016.0	8388607.0
10	13	31	27	876	91.0	8388607.0	-84539.0	8388607.0
10	13	31	27	891	92.0	8388607.0	-93095.0	8388607.0
10	13	31	27	892	93.0	8388607.0	-97570.0	8388607.0
10	13	31	27	893	94.0	8388607.0	-97751.0	8388607.0
10	13	31	27	893	95.0	8388607.0	-92656.0	8388607.0
10	13	31	27	907	96.0	8388607.0	-90372.0	8388607.0
10	13	31	27	908	97.0	8388607.0	-92082.0	8388607.0
10	13	31	27	908	98.0	8388607.0	-99019.0	8388607.0
10	13	31	27	925	99.0	8388607.0	-94995.0	8388607.0
10	13	31	27	925	100.0	8388607.0	-93012.0	8388607.0
10	13	31	27	926	101.0	8388607.0	-93149.0	8388607.0
10	13	31	27	927	102.0	8388607.0	-102241.0	8388607.0
10	13	31	27	949	103.0	8388607.0	-109159.0	8388607.0
10	13	31	27	950	104.0	8388607.0	-108482.0	8388607.0
10	13	31	27	950	105.0	8388607.0	-104687.0	8388607.0
10	13	31	27	951	106.0	8388607.0	-104339.0	8388607.0
10	13	31	27	952	107.0	8388607.0	-108796.0	8388607.0
10	13	31	27	953	108.0	8388607.0	-109621.0	8388607.0
10	13	31	27	953	109.0	8388607.0	-109662.0	8388607.0
10	13	31	27	954	110.0	8388607.0	-106403.0	8388607.0
10	13	31	27	965	111.0	8388607.0	-107629.0	8388607.0
10	13	31	27	965	112.0	8388607.0	-112222.0	8388607.0
10	13	31	27	966	113.0	8388607.0	-115241.0	8388607.0
10	13	31	27	980	114.0	8388607.0	-114427.0	8388607.0
10	13	31	27	980	115.0	8388607.0	-111067.0	8388607.0
10	13	31	27	981	116.0	8388607.0	-107966.0	8388607.0
10	13	31	27	982	117.0	8388607.0	-115720.0	8388607.0
10	13	31	27	993	118.0	8388607.0	-121889.0	8388607.0
10	13	31	27	994	119.0	8388607.0	-120322.0	8388607.0
10	13	31	27	995	120.0	8388607.0	-113232.0	8388607.0
10	13	31	27	995	121.0	8388607.0	-112419.0	8388607.0
10	13	31	28	9	122.0	8388607.0	-116712.0	8388607.0
10	13	31	28	10	123.0	8388607.0	-116956.0	8388607.0
10	13	31	28	10	124.0	8388607.0	-117925.0	8388607.0
10	13	31	28	11	125.0	8388607.0	-116676.0	8388607.0
10	13	31	28	24	126.0	8388607.0	-114585.0	8388607.0
10	13	31	28	25	127.0	8388607.0	-118496.0	8388607.0
10	13	31	28	26	128.0	8388607.0	-120514.0	8388607.0
10	13	31	28	40	129.0	8388607.0	-116538.0	8388607.0
10	13	31	28	41	130.0	8388607.0	-109742.0	8388607.0
10	13	31	28	41	131.0	8388607.0	-109503.0	8388607.0
10	13	31	28	42	132.0	8388607.0	-115329.0	8388607.0
10	13	31	28	57	133.0	8388607.0	-125035.0	8388607.0
10	13	31	28	57	134.0	8388607.0	-127380.0	8388607.0
10	13	31	28	58	135.0	8388607.0	-119704.0	8388607.0
10	13	31	28	58	136.0	8388607.0	-114561.0	8388607.0
10	13	31	28	85	137.0	8388607.0	-118142.0	8388607.0
10	13	31	28	86	138.0	8388607.0	-122305.0	8388607.0
10	13	31	28	86	139.0	8388607.0	-120686.0	8388607.0
10	13	31	28	87	140.0	8388607.0	-115244.0	8388607.0
10	13	31	28	87	141.0	8388607.0	-117397.0	8388607.0
10	13	31	28	88	142.0	8388607.0	-125584.0	8388607.0
10	13	31	28	89	143.0	8388607.0	-129399.0	8388607.0
10	13	31	28	89	144.0	8388607.0	-128326.0	8388607.0
10	13	31	28	106	145.0	8388607.0	-118191.0	8388607.0
10	13	31	28	107	146.0	8388607.0	-114376.0	8388607.0
10	13	31	28	108	147.0	8388607.0	-124057.0	8388607.0
10	13	31	28	123	148.0	8388607.0	-126017.0	8388607.0
10	13	31	28	124	149.0	8388607.0	-120699.0	8388607.0
10	13	31	28	124	150.0	8388607.0	-114825.0	8388607.0
10	13	31	28	125	151.0	8388607.0	-113117.0	8388607.0
10	13	31	28	139	152.0	8388607.0	-116604.0	8388607.0
10	13	31	28	140	153.0	8388607.0	-119275.0	8388607.0
10	13	31	28	140	154.0	8388607.0	-117792.0	8388607.0
10	13	31	28	141	155.0	8388607.0	-115559.0	8388607.0
10	13	31	28	156	156.0	8388607.0	-111580.0	8388607.0
10	13	31	28	156	157.0	8388607.0	-118612.0	8388607.0
10	13	31	28	157	158.0	8388607.0	-118452.0	8388607.0
10	13	31	28	175	159.0	8388607.0	-112457.0	8388607.0
10	13	31	28	175	160.0	8388607.0	-109497.0	8388607.0
10	13	31	28	176	161.0	8388607.0	-110349.0	8388607.0
10	13	31	28	177	162.0	8388607.0	-116676.0	8388607.0
10	13	31	28	189	163.0	8388607.0	-118686.0	8388607.0
10	13	31	28	189	164.0	8388607.0	-114885.0	8388607.0
10	13	31	28	190	165.0	8388607.0	-108987.0	8388607.0
10	13	31	28	191	166.0	8388607.0	-110184.0	8388607.0
10	13	31	28	191	167.0	8388607.0	-121553.0	8388607.0
10	13	31	28	192	168.0	8388607.0	-126594.0	8388607.0
10	13	31	28	193	169.0	8388607.0	-118719.0	8388607.0
10	13	31	28	193	170.0	8388607.0	-116790.0	8388607.0
10	13	31	28	205	171.0	8388607.0	-120902.0	8388607.0
10	13	31	28	206	172.0	8388607.0	-124477.0	8388607.0
10	13	31	28	206	173.0	8388607.0	-127691.0	8388607.0
10	13	31	28	222	174.0	8388607.0	-127152.0	8388607.0
10	13	31	28	223	175.0	8388607.0	-124483.0	8388607.0
10	13	31	28	223	176.0	8388607.0	-125793.0	8388607.0
10	13	31	28	224	177.0	8388607.0	-129520.0	8388607.0
10	13	31	28	239	178.0	8388607.0	-133308.0	8388607.0
10	13	31	28	240	179.0	8388607.0	-126251.0	8388607.0
10	13	31	28	240	180.0	8388607.0	-108939.0	8388607.0
10	13	31	28	255	181.0	8388607.0	-92642.0	8388607.0
10	13	31	28	256	182.0	8388607.0	-86679.0	8388607.0
10	13	31	28	256	183.0	8388607.0	-108533.0	8388607.0
10	13	31	28	257	184.0	8388607.0	-154312.0	8388607.0
10	13	31	28	258	185.0	8388607.0	-211682.0	8388607.0
10	13	31	28	272	186.0	8388607.0	-249338.0	8388607.0
10	13	31	28	272	187.0	8388607.0	-281095.0	8388607.0
10	13	31	28	273	188.0	8388607.0	-278874.0	8388607.0
10	13	31	28	288	189.0	8388607.0	-264124.0	8388607.0
10	13	31	28	289	190.0	8388607.0	-221587.0	8388607.0
10	13	31	28	289	191.0	8388607.0	-202873.0	8388607.0
10	13	31	28	290	192.0	8388607.0	-175579.0	8388607.0
10	13	31	28	305	193.0	8388607.0	-137460.0	8388607.0
10	13	31	28	306	194.0	8388607.0	-114578.0	8388607.0
10	13	31	28	306	195.0	8388607.0	-102356.0	8388607.0
10	13	31	28	307	196.0	8388607.0	-101329.0	8388607.0
10	13	31	28	321	197.0	8388607.0	-103347.0	8388607.0
10	13	31	28	322	198.0	8388607.0	-101557.0	8388607.0
10	13	31	28	323	199.0	8388607.0	-100437.0	8388607.0
10	13	31	28	323	200.0	8388607.0	-97251.0	8388607.0
10	13	31	28	324	201.0	8388607.0	-92641.0	8388607.0
10	13	31	28	325	202.0	8388607.0	-91611.0	8388607.0
10	13	31	28	325	203.0	8388607.0	-93961.0	8388607.0
10	13	31	28	338	204.0	8388607.0	-93559.0	8388607.0
10	13	31	28	339	205.0	8388607.0	-87556.0	8388607.0
10	13	31	28	340	206.0	8388607.0	-83499.0	8388607.0
10	13	31	28	340	207.0	8388607.0	-87344.0	8388607.0
10	13	31	28	355	208.0	8388607.0	-92603.0	8388607.0
10	13	31	28	355	209.0	8388607.0	-90237.0	8388607.0
10	13	31	28	356	210.0	8388607.0	-87156.0	8388607.0
10	13	31	28	357	211.0	8388607.0	-89751.0	8388607.0
10	13	31	28	371	212.0	8388607.0	-91469.0	8388607.0
10	13	31	28	372	213.0	8388607.0	-89551.0	8388607.0
10	13	31	28	373	214.0	8388607.0	-83465.0	8388607.0
10	13	31	28	388	215.0	8388607.0	-77111.0	8388607.0
10	13	31	28	388	216.0	8388607.0	-79962.0	8388607.0
10	13	31	28	389	217.0	8388607.0	-85304.0	8388607.0
10	13	31	28	390	218.0	8388607.0	-84905.0	8388607.0
10	13	31	28	404	219.0	8388607.0	-77382.0	8388607.0
10	13	31	28	405	220.0	8388607.0	-75059.0	8388607.0
10	13	31	28	406	221.0	8388607.0	-74132.0	8388607.0
10	13	31	28	406	222.0	8388607.0	-76757.0	8388607.0
10	13	31	28	421	223.0	8388607.0	-81469.0	8388607.0
10	13	31	28	422	224.0	8388607.0	-73765.0	8388607.0
10	13	31	28	422	225.0	8388607.0	-67904.0	8388607.0
10	13	31	28	423	226.0	8388607.0	-68811.0	8388607.0
10	13	31	28	437	227.0	8388607.0	-71802.0	8388607.0
10	13	31	28	438	228.0	8388607.0	-69105.0	8388607.0
10	13	31	28	439	229.0	8388607.0	-67614.0	8388607.0
10	13	31	28	454	230.0	8388607.0	-64083.0	8388607.0
10	13	31	28	455	231.0	8388607.0	-58596.0	8388607.0
10	13	31	28	455	232.0	8388607.0	-63286.0	8388607.0
10	13	31	28	456	233.0	8388607.0	-63685.0	8388607.0
10	13	31	28	470	234.0	8388607.0	-62641.0	8388607.0
10	13	31	28	471	235.0	8388607.0	-53497.0	8388607.0
10	13	31	28	472	236.0	8388607.0	-47476.0	8388607.0
10	13	31	28	473	237.0	8388607.0	-54056.0	8388607.0
10	13	31	28	487	238.0	8388607.0	-59908.0	8388607.0
10	13	31	28	488	239.0	8388607.0	-58562.0	8388607.0
10	13	31	28	488	240.0	8388607.0	-49394.0	8388607.0
10	13	31	28	489	241.0	8388607.0	-46426.0	8388607.0
10	13	31	28	490	242.0	8388607.0	-46701.0	8388607.0
10	13	31	28	490	243.0	8388607.0	-48952.0	8388607.0
10	13	31	28	491	244.0	8388607.0	-53748.0	8388607.0
10	13	31	28	504	245.0	8388607.0	-48111.0	8388607.0
10	13	31	28	505	246.0	8388607.0	-48021.0	8388607.0
10	13	31	28	505	247.0	8388607.0	-58387.0	8388607.0
10	13	31	28	506	248.0	8388607.0	-58674.0	8388607.0
10	13	31	28	519	249.0	8388607.0	-56461.0	8388607.0
10	13	31	28	520	250.0	8388607.0	-49734.0	8388607.0
10	13	31	28	521	251.0	8388607.0	-50823.0	8388607.0
10	13	31	28	521	252.0	8388607.0	-57678.0	8388607.0
10	13	31	28	544	253.0	8388607.0	-57979.0	8388607.0
10	13	31	28	546	254.0	8388607.0	-55031.0	8388607.0
10	13	31	28	548	255.0	8388607.0	-54627.0	8388607.0
10	13	31	28	549	0.0	8388607.0	-58389.0	8388607.0
10	13	31	28	549	1.0	8388607.0	-63786.0	8388607.0
10	13	31	28	550	2.0	8388607.0	-66975.0	8388607.0
10	13	31	28	550	3.0	8388607.0	-62209.0	8388607.0
10	13	31	28	565	4.0	8388607.0	-59002.0	8388607.0
10	13	31	28	565	5.0	8388607.0	-57564.0	8388607.0
10	13	31	28	566	6.0	8388607.0	-62262.0	8388607.0
10	13	31	28	566	7.0	8388607.0	-63419.0	8388607.0
10	13	31	28	586	8.0	8388607.0	-60762.0	8388607.0
10	13	31	28	587	9.0	8388607.0	-56998.0	8388607.0
10	13	31	28	588	10.0	8388607.0	-56276.0	8388607.0
10	13	31	28	588	11.0	8388607.0	-57531.0	8388607.0
10	13	31	28	602	12.0	8388607.0	-60515.0	8388607.0
10	13	31	28	603	13.0	8388607.0	-56723.0	8388607.0
10	13	31	28	603	14.0	8388607.0	-52702.0	8388607.0
10	13	31	28	604	15.0	8388607.0	-46967.0	8388607.0
10	13	31	28	620	16.0	8388607.0	-48596.0	8388607.0
10	13	31	28	620	17.0	8388607.0	-51348.0	8388607.0
10	13	31	28	621	18.0	8388607.0	-48624.0	8388607.0
10	13	31	28	636	19.0	8388607.0	-42945.0	8388607.0
10	13	31	28	637	20.0	8388607.0	-41459.0	8388607.0
10	13	31	28	637	21.0	8388607.0	-46462.0	8388607.0
10	13	31	28	638	22.0	8388607.0	-45230.0	8388607.0
10	13	31	28	638	23.0	8388607.0	-39569.0	8388607.0
10	13	31	28	639	24.0	8388607.0	-30427.0	8388607.0
10	13	31	28	640	25.0	8388607.0	-34256.0	8388607.0
10	13	31	28	640	26.0	8388607.0	-41721.0	8388607.0
10	13	31	28	654	27.0	8388607.0	-38631.0	8388607.0
10	13	31	28	654	28.0	8388607.0	-29847.0	8388607.0
10	13	31	28	655	29.0	8388607.0	-23499.0	8388607.0
10	13	31	28	655	30.0	8388607.0	-21181.0	8388607.0
10	13	31	28	669	31.0	8388607.0	-23032.0	8388607.0
10	13	31	28	669	32.0	8388607.0	-26604.0	8388607.0
10	13	31	28	670	33.0	8388607.0	-22656.0	8388607.0
10	13	31	28	685	34.0	8388607.0	-20135.0	8388607.0
10	13	31	28	686	35.0	8388607.0	-18250.0	8388607.0
10	13	31	28	686	36.0	8388607.0	-18922.0	8388607.0
10	13	31	28	687	37.0	8388607.0	-19737.0	8388607.0
10	13	31	28	702	38.0	8388607.0	-16024.0	8388607.0
10	13	31	28	703	39.0	8388607.0	-10709.0	8388607.0
10	13	31	28	703	40.0	8388607.0	-11366.0	8388607.0
10	13	31	28	704	41.0	8388607.0	-15663.0	8388607.0
10	13	31	28	719	42.0	8388607.0	-13797.0	8388607.0
10	13	31	28	719	43.0	8388607.0	-10446.0	8388607.0
10	13	31	28	720	44.0	8388607.0	-8707.0	8388607.0
10	13	31	28	721	45.0	8388607.0	-7832.0	8388607.0
10	13	31	28	735	46.0	8388607.0	-13310.0	8388607.0
10	13	31	28	736	47.0	8388607.0	-16182.0	8388607.0
10	13	31	28	736	48.0	8388607.0	-17191.0	8388607.0
10	13	31	28	752	49.0	8388607.0	-13856.0	8388607.0
10	13	31	28	752	50.0	8388607.0	-12419.0	8388607.0
10	13	31	28	753	51.0	8388607.0	-19897.0	8388607.0
10	13	31	28	754	52.0	8388607.0	-19959.0	8388607.0
10	13	31	28	768	53.0	8388607.0	-21780.0	8388607.0
10	13	31	28	769	54.0	8388607.0	-17054.0	8388607.0
10	13	31	28	769	55.0	8388607.0	-14332.0	8388607.0
10	13	31	28	770	56.0	8388607.0	-24591.0	8388607.0
10	13	31	28	785	57.0	8388607.0	-24619.0	8388607.0
10	13	31	28	786	58.0	8388607.0	-18892.0	8388607.0
10	13	31	28	786	59.0	8388607.0	-21064.0	8388607.0
10	13	31	28	787	60.0	8388607.0	-22409.0	8388607.0
10	13	31	28	801	61.0	8388607.0	-26406.0	8388607.0
10	13	31	28	802	62.0	8388607.0	-24166.0	8388607.0
10	13	31	28	803	63.0	8388607.0	-21767.0	8388607.0
10	13	31	28	817	64.0	8388607.0	-17700.0	8388607.0
10	13	31	28	818	65.0	8388607.0	-21734.0	8388607.0
10	13	31	28	818	66.0	8388607.0	-30471.0	8388607.0
10	13	31	28	819	67.0	8388607.0	-28156.0	8388607.0
10	13	31	28	820	68.0	8388607.0	-22579.0	8388607.0
10	13	31	28	820	69.0	8388607.0	-17692.0	8388607.0
10	13	31	28	821	70.0	8388607.0	-21393.0	8388607.0
10	13	31	28	821	71.0	8388607.0	-26239.0	8388607.0
10	13	31	28	834	72.0	8388607.0	-26091.0	8388607.0
10	13	31	28	835	73.0	8388607.0	-18616.0	8388607.0
10	13	31	28	835	74.0	8388607.0	-17456.0	8388607.0
10	13	31	28	836	75.0	8388607.0	-20797.0	8388607.0
10	13	31	28	851	76.0	8388607.0	-25596.0	8388607.0
10	13	31	28	852	77.0	8388607.0	-21031.0	8388607.0
10	13	31	28	852	78.0	8388607.0	-13118.0	8388607.0
10	13	31	28	868	79.0	8388607.0	-10281.0	8388607.0
10	13	31	28	884	80.0	8388607.0	-9560.0	8388607.0
10	13	31	28	885	81.0	8388607.0	-16967.0	8388607.0
10	13	31	28	885	82.0	8388607.0	-21007.0	8388607.0
10	13	31	28	886	83.0	8388607.0	-17934.0	8388607.0
10	13	31	28	886	84.0	8388607.0	-16169.0	8388607.0
10	13	31	28	887	85.0	8388607.0	-16269.0	8388607.0
10	13	31	28	888	86.0	8388607.0	-16571.0	8388607.0
10	13	31	28	902	87.0	8388607.0	-19046.0	8388607.0
10	13	31	28	903	88.0	8388607.0	-12193.0	8388607.0
10	13	31	28	903	89.0	8388607.0	-10243.0	8388607.0
10	13	31	28	904	90.0	8388607.0	-13773.0	8388607.0
10	13	31	28	917	91.0	8388607.0	-17197.0	8388607.0
10	13	31	28	917	92.0	8388607.0	-15823.0	8388607.0
10	13	31	28	918	93.0	8388607.0	-17142.0	8388607.0
10	13	31	28	934	94.0	8388607.0	-10394.0	8388607.0
10	13	31	28	935	95.0	8388607.0	-8509.0	8388607.0
10	13	31	28	935	96.0	8388607.0	-16784.0	8388607.0
10	13	31	28	936	97.0	8388607.0	-18212.0	8388607.0
10	13	31	28	954	98.0	8388607.0	-14697.0	8388607.0
10	13	31	28	955	99.0	8388607.0	-3892.0	8388607.0
10	13	31	28	956	100.0	8388607.0	-9105.0	8388607.0
10	13	31	28	956	101.0	8388607.0	-22610.0	8388607.0
10	13	31	28	957	102.0	8388607.0	-21501.0	8388607.0
10	13	31	28	958	103.0	8388607.0	-8414.0	8388607.0
10	13	31	28	958	104.0	8388607.0	-6096.0	8388607.0
10	13	31	28	959	105.0	8388607.0	-11746.0	8388607.0
10	13	31	28	967	106.0	8388607.0	-16429.0	8388607.0
10	13	31	28	983	107.0	8388607.0	-11196.0	8388607.0
10	13	31	28	983	108.0	8388607.0	-7314.0	8388607.0
10	13	31	28	984	109.0	8388607.0	-7905.0	8388607.0
10	13	31	28	985	110.0	8388607.0	-11928.0	8388607.0
10	13	31	28	985	111.0	8388607.0	-17672.0	8388607.0
10	13	31	28	986	112.0	8388607.0	-17894.0	8388607.0
10	13	31	28	999	113.0	8388607.0	-14190.0	8388607.0
10	13	31	29	0	114.0	8388607.0	-7207.0	8388607.0
10	13	31	29	1	115.0	8388607.0	-10129.0	8388607.0
10	13	31	29	1	116.0	8388607.0	-18610.0	8388607.0
10	13	31	29	16	117.0	8388607.0	-14661.0	8388607.0
10	13	31	29	17	118.0	8388607.0	-8234.0	8388607.0
10	13	31	29	18	119.0	8388607.0	-7562.0	8388607.0
10	13	31	29	18	120.0	8388607.0	-15557.0	8388607.0
10	13	31	29	33	121.0	8388607.0	-21821.0	8388607.0
10	13	31	29	33	122.0	8388607.0	-21542.0	8388607.0
10	13	31	29	34	123.0	8388607.0	-14584.0	8388607.0
10	13	31	29	50	124.0	8388607.0	-10532.0	8388607.0
10	13	31	29	50	125.0	8388607.0	-16225.0	8388607.0
10	13	31	29	51	126.0	8388607.0	-19173.0	8388607.0
10	13	31	29	52	127.0	8388607.0	-18516.0	8388607.0
10	13	31	29	66	128.0	8388607.0	-11945.0	8388607.0
10	13	31	29	67	129.0	8388607.0	-8332.0	8388607.0
10	13	31	29	67	130.0	8388607.0	-15575.0	8388607.0
10	13	31	29	68	131.0	8388607.0	-20387.0	8388607.0
10	13	31	29	82	132.0	8388607.0	-13898.0	8388607.0
10	13	31	29	83	133.0	8388607.0	3191.0	8388607.0
10	13	31	29	84	134.0	8388607.0	22326.0	8388607.0
10	13	31	29	99	135.0	8388607.0	27480.0	8388607.0
10	13	31	29	100	136.0	8388607.0	16168.0	8388607.0
10	13	31	29	100	137.0	8388607.0	-17146.0	8388607.0
10	13	31	29	101	138.0	8388607.0	-70932.0	8388607.0
10	13	31	29	116	139.0	8388607.0	-117413.0	8388607.0
10	13	31	29	116	140.0	8388607.0	-146433.0	8388607.0
10	13	31	29	117	141.0	8388607.0	-164844.0	8388607.0
10	13	31	29	117	142.0	8388607.0	-157238.0	8388607.0
10	13	31	29	132	143.0	8388607.0	-126659.0	8388607.0
10	13	31	29	133	144.0	8388607.0	-91056.0	8388607.0
10	13	31	29	133	145.0	8388607.0	-71474.0	8388607.0
10	13	31	29	134	146.0	8388607.0	-35067.0	8388607.0
10	13	31	29	134	147.0	8388607.0	-6359.0	8388607.0
10	13	31	29	135	148.0	8388607.0	4644.0	8388607.0
10	13	31	29	136	149.0	8388607.0	8993.0	8388607.0
10	13	31	29	149	150.0	8388607.0	6199.0	8388607.0
10	13	31	29	149	151.0	8388607.0	2489.0	8388607.0
10	13	31	29	150	152.0	8388607.0	6216.0	8388607.0
10	13	31	29	151	153.0	8388607.0	15659.0	8388607.0
10	13	31	29	165	154.0	8388607.0	21901.0	8388607.0
10	13	31	29	165	155.0	8388607.0	16842.0	8388607.0
10	13	31	29	166	156.0	8388607.0	14471.0	8388607.0
10	13	31	29	167	157.0	8388607.0	16318.0	8388607.0
10	13	31	29	182	158.0	8388607.0	21541.0	8388607.0
10	13	31	29	183	159.0	8388607.0	27056.0	8388607.0
10	13	31	29	183	160.0	8388607.0	24068.0	8388607.0
10	13	31	29	184	161.0	8388607.0	20156.0	8388607.0
10	13	31	29	198	162.0	8388607.0	21878.0	8388607.0
10	13	31	29	199	163.0	8388607.0	27674.0	8388607.0
10	13	31	29	199	164.0	8388607.0	30439.0	8388607.0
10	13	31	29	215	165.0	8388607.0	27466.0	8388607.0
10	13	31	29	216	166.0	8388607.0	25330.0	8388607.0
10	13	31	29	216	167.0	8388607.0	34081.0	8388607.0
10	13	31	29	217	168.0	8388607.0	37136.0	8388607.0
10	13	31	29	231	169.0	8388607.0	40249.0	8388607.0
10	13	31	29	232	170.0	8388607.0	38303.0	8388607.0
10	13	31	29	233	171.0	8388607.0	32753.0	8388607.0
10	13	31	29	233	172.0	8388607.0	32128.0	8388607.0
10	13	31	29	248	173.0	8388607.0	35241.0	8388607.0
10	13	31	29	249	174.0	8388607.0	40843.0	8388607.0
10	13	31	29	249	175.0	8388607.0	40672.0	8388607.0
10	13	31	29	250	176.0	8388607.0	37348.0	8388607.0
10	13	31	29	265	177.0	8388607.0	37379.0	8388607.0
10	13	31	29	265	178.0	8388607.0	41622.0	8388607.0
10	13	31	29	266	179.0	8388607.0	49720.0	8388607.0
10	13	31	29	281	180.0	8388607.0	45066.0	8388607.0
10	13	31	29	281	181.0	8388607.0	41275.0	8388607.0
10	13	31	29	282	182.0	8388607.0	44128.0	8388607.0
10	13	31	29	283	183.0	8388607.0	47133.0	8388607.0
10	13	31	29	283	184.0	8388607.0	52379.0	8388607.0
10	13	31	29	284	185.0	8388607.0	50511.0	8388607.0
10	13	31	29	284	186.0	8388607.0	43603.0	8388607.0
10	13	31	29	285	187.0	8388607.0	45824.0	8388607.0
10	13	31	29	299	188.0	8388607.0	53013.0	8388607.0
10	13	31	29	300	189.0	8388607.0	59064.0	8388607.0
10	13	31	29	301	190.0	8388607.0	54499.0	8388607.0
10	13	31	29	301	191.0	8388607.0	47913.0	8388607.0
10	13	31	29	316	192.0	8388607.0	49541.0	8388607.0
10	13	31	29	317	193.0	8388607.0	49738.0	8388607.0
10	13	31	29	317	194.0	8388607.0	55740.0	8388607.0
10	13	31	29	331	195.0	8388607.0	57801.0	8388607.0
10	13	31	29	331	196.0	8388607.0	53450.0	8388607.0
10	13	31	29	332	197.0	8388607.0	51485.0	8388607.0
10	13	31	29	332	198.0	8388607.0	54587.0	8388607.0
10	13	31	29	347	199.0	8388607.0	55622.0	8388607.0
10	13	31	29	347	200.0	8388607.0	51502.0	8388607.0
10	13	31	29	348	201.0	8388607.0	45042.0	8388607.0
10	13	31	29	348	202.0	8388607.0	47674.0	8388607.0
10	13	31	29	363	203.0	8388607.0	52251.0	8388607.0
10	13	31	29	364	204.0	8388607.0	53920.0	8388607.0
10	13	31	29	364	205.0	8388607.0	45707.0	8388607.0
10	13	31	29	365	206.0	8388607.0	38528.0	8388607.0
10	13	31	29	380	207.0	8388607.0	42386.0	8388607.0
10	13	31	29	381	208.0	8388607.0	50384.0	8388607.0
