27	18	11	26	311	4.0	-5805811.0	182826.0	-5429977.0
27	18	11	26	314	5.0	-5745402.0	185586.0	-5349656.0
27	18	11	26	317	6.0	-6459629.0	178856.0	-6078286.0
27	18	11	26	320	7.0	-7432798.0	191164.0	-7202594.0
27	18	11	26	334	8.0	-7905029.0	186932.0	-7778731.0
27	18	11	26	335	9.0	-8191467.0	184435.0	-8288223.0
27	18	11	26	335	10.0	-8388608.0	184976.0	-8388608.0
27	18	11	26	336	11.0	-8388608.0	189517.0	-8388608.0
27	18	11	26	361	12.0	-8388608.0	191573.0	-8388608.0
27	18	11	26	361	13.0	-8388608.0	189088.0	-8388608.0
27	18	11	26	362	14.0	-8388608.0	185963.0	-8388608.0
27	18	11	26	390	15.0	-8388608.0	179402.0	-8388608.0
27	18	11	26	440	16.0	-8388608.0	185568.0	-8388608.0
27	18	11	26	440	17.0	-8388608.0	190020.0	-8388608.0
27	18	11	26	441	18.0	-8388608.0	194018.0	-8388608.0
27	18	11	26	442	19.0	-8388608.0	190645.0	-8388608.0
27	18	11	26	442	20.0	-8388608.0	177426.0	-8388608.0
27	18	11	26	443	21.0	-8388608.0	180083.0	-8388608.0
27	18	11	26	443	22.0	-8388608.0	175527.0	-8388608.0
27	18	11	26	444	23.0	-8388608.0	186843.0	-8388608.0
27	18	11	26	445	24.0	-8388608.0	177786.0	-8388608.0
27	18	11	26	445	25.0	-8388608.0	174900.0	-8388608.0
27	18	11	26	446	26.0	-8388608.0	166571.0	-8388608.0
27	18	11	26	446	27.0	-8388608.0	160963.0	-8388608.0
27	18	11	26	447	28.0	-8388608.0	157434.0	-8388608.0
27	18	11	26	447	29.0	-8388608.0	166606.0	-8388608.0
27	18	11	26	448	30.0	-8388608.0	161031.0	-8388608.0
27	18	11	26	448	38.0	-6760869.0	157866.0	-6617387.0
27	18	11	26	449	39.0	-5789026.0	151065.0	-5642869.0
27	18	11	26	488	40.0	-4964256.0	154247.0	-4799749.0
27	18	11	26	489	41.0	-4766992.0	167513.0	-4583069.0
27	18	11	26	490	42.0	-4860574.0	178796.0	-4680402.0
27	18	11	26	490	43.0	-4599911.0	184118.0	-4432534.0
27	18	11	26	491	44.0	-3961565.0	186518.0	-3795243.0
27	18	11	26	491	45.0	-3467594.0	187146.0	-3302347.0
27	18	11	26	492	46.0	-3358144.0	193182.0	-3210140.0
27	18	11	26	492	47.0	-3296077.0	195701.0	-3168681.0
27	18	11	26	493	48.0	-2786491.0	199583.0	-2674009.0
27	18	11	26	494	49.0	-1894234.0	208573.0	-1767655.0
27	18	11	26	525	50.0	-1153466.0	208151.0	-1015073.0
27	18	11	26	526	51.0	-785664.0	211524.0	-659582.0
27	18	11	26	527	52.0	-463629.0	204973.0	-345500.0
27	18	11	26	527	53.0	371438.0	208388.0	504703.0
27	18	11	26	528	54.0	1686399.0	202625.0	1829944.0
27	18	11	26	528	55.0	2905850.0	197037.0	3043783.0
27	18	11	26	529	56.0	3642541.0	180123.0	3770024.0
27	18	11	26	530	57.0	4262503.0	188443.0	4388344.0
27	18	11	26	530	58.0	5340102.0	190257.0	5478001.0
27	18	11	26	531	59.0	6590081.0	197321.0	6757753.0
27	18	11	26	532	60.0	7477348.0	185508.0	7859164.0
27	18	11	26	532	61.0	8039534.0	186498.0	8388607.0
27	18	11	26	570	62.0	8388607.0	172614.0	8223918.0
27	18	11	26	570	63.0	8388607.0	166416.0	8388607.0
27	18	11	26	571	64.0	8388607.0	166408.0	8388607.0
27	18	11	26	572	65.0	8388607.0	172133.0	8388607.0
27	18	11	26	572	66.0	8388607.0	164321.0	8388607.0
27	18	11	26	573	67.0	8388607.0	158125.0	8388607.0
27	18	11	26	573	68.0	8388607.0	156438.0	8388607.0
27	18	11	26	574	69.0	8388607.0	140811.0	8388607.0
27	18	11	26	575	70.0	8388607.0	131105.0	8388607.0
27	18	11	26	589	71.0	8388607.0	124924.0	8388607.0
27	18	11	26	589	72.0	8388607.0	110162.0	8388607.0
27	18	11	26	621	73.0	8388607.0	89167.0	8388607.0
27	18	11	26	621	74.0	8388607.0	88978.0	8388607.0
27	18	11	26	622	75.0	8388607.0	87456.0	8388607.0
27	18	11	26	622	76.0	8388607.0	92979.0	8388607.0
27	18	11	26	623	77.0	8388607.0	88394.0	8388607.0
27	18	11	26	623	78.0	8388607.0	87421.0	8388607.0
27	18	11	26	624	79.0	8388607.0	66555.0	8388607.0
27	18	11	26	625	80.0	8388607.0	82294.0	8388607.0
27	18	11	26	625	81.0	8388607.0	92464.0	8388607.0
27	18	11	26	626	82.0	8388607.0	92027.0	8388607.0
27	18	11	26	626	83.0	8388607.0	87686.0	8388607.0
27	18	11	26	662	84.0	8388607.0	88198.0	8388607.0
27	18	11	26	663	85.0	8388607.0	86216.0	8388607.0
27	18	11	26	664	86.0	8388607.0	93898.0	8388607.0
27	18	11	26	664	87.0	8388607.0	101456.0	8388607.0
27	18	11	26	665	88.0	8388607.0	108200.0	8388607.0
27	18	11	26	665	89.0	8388607.0	113839.0	8388607.0
27	18	11	26	666	90.0	8388607.0	118143.0	8388607.0
27	18	11	26	666	91.0	8388607.0	133668.0	8388607.0
27	18	11	26	667	92.0	8388607.0	134448.0	8388607.0
27	18	11	26	668	93.0	8388607.0	139681.0	8388607.0
27	18	11	26	668	94.0	8388607.0	133604.0	8388607.0
27	18	11	26	706	95.0	8388607.0	134764.0	8388607.0
27	18	11	26	706	96.0	8388607.0	142310.0	8388607.0
27	18	11	26	707	97.0	8388607.0	141759.0	8388607.0
27	18	11	26	708	98.0	8388607.0	151693.0	8388607.0
27	18	11	26	708	99.0	8388607.0	147991.0	8388607.0
27	18	11	26	709	100.0	8388607.0	160641.0	8388607.0
27	18	11	26	709	101.0	8388607.0	185601.0	8388607.0
27	18	11	26	710	102.0	7365778.0	181426.0	7096534.0
27	18	11	26	711	103.0	5794143.0	198267.0	5462196.0
27	18	11	26	711	104.0	3752760.0	212106.0	3413176.0
27	18	11	26	712	105.0	2045130.0	209091.0	1647901.0
27	18	11	26	712	106.0	1279137.0	219658.0	756606.0
27	18	11	26	751	107.0	757803.0	221403.0	121424.0
27	18	11	26	751	108.0	1723504.0	225172.0	1099551.0
27	18	11	26	752	109.0	3029266.0	222331.0	2419981.0
27	18	11	26	753	110.0	4626929.0	208987.0	4019531.0
27	18	11	26	753	111.0	5943522.0	195343.0	5335831.0
27	18	11	26	754	112.0	7405844.0	184196.0	7052378.0
27	18	11	26	754	113.0	8157317.0	169683.0	8341797.0
27	18	11	26	755	114.0	8388607.0	164496.0	8388607.0
27	18	11	26	755	115.0	8388607.0	149206.0	8388607.0
27	18	11	26	756	116.0	8388607.0	139482.0	8388607.0
27	18	11	26	757	117.0	8388607.0	121393.0	8388607.0
27	18	11	26	795	118.0	8388607.0	125643.0	8388607.0
27	18	11	26	815	119.0	8388607.0	102138.0	8388607.0
27	18	11	26	816	120.0	8388607.0	92037.0	8388607.0
27	18	11	26	817	121.0	8388607.0	109453.0	8388607.0
27	18	11	26	817	122.0	8388607.0	119001.0	8388607.0
27	18	11	26	818	123.0	8388607.0	113242.0	8388607.0
27	18	11	26	818	124.0	8388607.0	113062.0	8388607.0
27	18	11	26	819	125.0	8388607.0	128091.0	8388607.0
27	18	11	26	819	126.0	8388607.0	131848.0	8388607.0
27	18	11	26	820	127.0	8388607.0	142293.0	8388607.0
27	18	11	26	820	128.0	8388607.0	147112.0	8388607.0
27	18	11	26	839	129.0	8388607.0	143122.0	8388607.0
27	18	11	26	840	130.0	8388607.0	157119.0	8388607.0
27	18	11	26	840	131.0	8388607.0	151190.0	8388607.0
27	18	11	26	841	132.0	8388607.0	164198.0	8388607.0
27	18	11	26	841	133.0	8388607.0	176494.0	8388607.0
27	18	11	26	842	134.0	8388607.0	168421.0	8388607.0
27	18	11	26	843	135.0	8388607.0	183799.0	8388607.0
27	18	11	26	843	136.0	7881942.0	180866.0	7869825.0
27	18	11	26	860	137.0	6742101.0	195723.0	6680933.0
27	18	11	26	860	138.0	6284752.0	196973.0	6237509.0
27	18	11	26	861	139.0	6138864.0	176259.0	6091921.0
27	18	11	26	901	140.0	5400539.0	129899.0	5350023.0
27	18	11	26	930	141.0	4201706.0	111663.0	4139499.0
27	18	11	26	931	142.0	3347814.0	109718.0	3276409.0
27	18	11	26	932	143.0	3333034.0	177669.0	3288970.0
27	18	11	26	932	144.0	3578322.0	302828.0	3594368.0
27	18	11	26	933	145.0	3405348.0	410413.0	3468666.0
27	18	11	26	934	146.0	2824406.0	485756.0	2914873.0
27	18	11	26	934	147.0	2509156.0	557526.0	2616444.0
27	18	11	26	935	148.0	2871713.0	567164.0	3007979.0
27	18	11	26	935	149.0	3338106.0	503588.0	3496396.0
27	18	11	26	936	150.0	3195970.0	445160.0	3352565.0
27	18	11	26	937	151.0	2592442.0	420888.0	2743061.0
27	18	11	26	937	152.0	2220294.0	322796.0	2358149.0
27	18	11	26	938	153.0	2543631.0	221583.0	2698429.0
27	18	11	26	938	154.0	2988996.0	199680.0	3165771.0
27	18	11	26	939	155.0	2822301.0	191912.0	2979319.0
27	18	11	26	940	161.0	3469119.0	174418.0	3610902.0
27	18	11	26	940	162.0	3456826.0	174941.0	3570416.0
27	18	11	26	966	163.0	4229588.0	168530.0	4325588.0
27	18	11	26	987	164.0	5004298.0	158772.0	5078654.0
27	18	11	26	988	165.0	5010444.0	152316.0	5061849.0
27	18	11	26	988	166.0	4486218.0	132577.0	4517853.0
27	18	11	26	989	167.0	4358289.0	154690.0	4392157.0
27	18	11	26	989	168.0	5013411.0	155356.0	5065692.0
27	18	11	26	990	169.0	5671463.0	152260.0	5737511.0
27	18	11	26	990	170.0	5543021.0	148530.0	5616072.0
27	18	11	26	991	171.0	4910212.0	152861.0	4981964.0
27	18	11	26	992	172.0	4684291.0	148265.0	4767571.0
27	18	11	26	992	173.0	5093346.0	147321.0	5192752.0
27	18	11	27	34	174.0	5367927.0	141659.0	5454596.0
27	18	11	27	34	175.0	4784658.0	146218.0	4841790.0
27	18	11	27	35	176.0	3755567.0	133446.0	3777801.0
27	18	11	27	36	177.0	3171771.0	145686.0	3187125.0
27	18	11	27	36	178.0	3242986.0	134958.0	3264693.0
27	18	11	27	37	179.0	3223009.0	138070.0	3245085.0
27	18	11	27	37	180.0	2508390.0	142111.0	2518641.0
27	18	11	27	38	181.0	1384383.0	150066.0	1365531.0
27	18	11	27	38	182.0	910797.0	137305.0	886032.0
27	18	11	27	39	183.0	1678284.0	131952.0	1676486.0
27	18	11	27	39	184.0	2861893.0	130542.0	2887092.0
27	18	11	27	66	185.0	3927044.0	123104.0	3950151.0
27	18	11	27	66	186.0	4544686.0	114961.0	4549028.0
27	18	11	27	67	187.0	5463181.0	104925.0	5472309.0
27	18	11	27	68	188.0	6705159.0	98461.0	6868440.0
27	18	11	27	68	189.0	7532869.0	92871.0	7903314.0
27	18	11	27	70	190.0	7720884.0	95905.0	7797330.0
27	18	11	27	71	191.0	7286186.0	97448.0	7339868.0
27	18	11	27	72	192.0	7219353.0	94288.0	7304832.0
27	18	11	27	73	193.0	7671464.0	84977.0	7876055.0
27	18	11	27	73	194.0	8017127.0	77064.0	8388607.0
27	18	11	27	74	195.0	8238552.0	56607.0	8387686.0
27	18	11	27	111	196.0	8388607.0	61748.0	8358784.0
27	18	11	27	111	197.0	8388607.0	70199.0	8388607.0
27	18	11	27	112	198.0	8388607.0	64434.0	8388607.0
27	18	11	27	113	199.0	8388607.0	49383.0	8388607.0
27	18	11	27	113	200.0	8388607.0	29452.0	8388607.0
27	18	11	27	114	201.0	8388607.0	14154.0	8388607.0
27	18	11	27	114	202.0	8388607.0	23571.0	8388607.0
27	18	11	27	115	203.0	8388607.0	13499.0	8388607.0
27	18	11	27	116	204.0	8388607.0	13704.0	8388607.0
27	18	11	27	116	205.0	8388607.0	-28.0	8388607.0
27	18	11	27	117	206.0	8388607.0	-1146.0	8388607.0
27	18	11	27	117	207.0	8388607.0	-5367.0	8388607.0
27	18	11	27	155	208.0	8388607.0	8743.0	8388607.0
27	18	11	27	156	209.0	8388607.0	-8411.0	8388607.0
27	18	11	27	157	210.0	8388607.0	8323.0	8388607.0
27	18	11	27	158	211.0	8388607.0	21544.0	8388607.0
27	18	11	27	158	212.0	8388607.0	41339.0	8388607.0
27	18	11	27	159	213.0	8388607.0	43106.0	8388607.0
27	18	11	27	160	214.0	8388607.0	74892.0	8388607.0
27	18	11	27	160	215.0	8388607.0	93211.0	8388607.0
27	18	11	27	161	216.0	8388607.0	109960.0	8388607.0
27	18	11	27	161	217.0	8388607.0	123088.0	8388607.0
27	18	11	27	162	218.0	8387189.0	150332.0	8388607.0
27	18	11	27	200	219.0	6531079.0	163239.0	6600004.0
27	18	11	27	200	220.0	3546489.0	175260.0	3574341.0
27	18	11	27	201	221.0	542274.0	181067.0	542873.0
27	18	11	27	202	222.0	-1794541.0	201205.0	-1807441.0
27	18	11	27	202	223.0	-3406016.0	212765.0	-3416904.0
27	18	11	27	203	224.0	-5126617.0	209005.0	-5161719.0
27	18	11	27	204	225.0	-7241188.0	214890.0	-7319590.0
27	18	11	27	204	226.0	-8388608.0	230378.0	-8388608.0
27	18	11	27	205	227.0	-8388608.0	222486.0	-8388608.0
27	18	11	27	206	228.0	-8388608.0	229582.0	-8388608.0
27	18	11	27	206	229.0	-8388608.0	235588.0	-8388608.0
27	18	11	27	246	230.0	-8388608.0	237471.0	-8388608.0
27	18	11	27	246	231.0	-8388608.0	247108.0	-8388608.0
27	18	11	27	247	232.0	-8388608.0	237299.0	-8388608.0
27	18	11	27	248	233.0	-8388608.0	239779.0	-8388608.0
27	18	11	27	248	234.0	-8388608.0	241746.0	-8388608.0
27	18	11	27	249	235.0	-8388608.0	238596.0	-8388608.0
27	18	11	27	250	236.0	-8388608.0	249686.0	-8388608.0
27	18	11	27	250	237.0	-8388608.0	248238.0	-8388608.0
27	18	11	27	251	238.0	-8388608.0	246486.0	-8388608.0
27	18	11	27	252	239.0	-8388608.0	253938.0	-8388608.0
27	18	11	27	252	240.0	-8388608.0	256993.0	-8388608.0
27	18	11	27	290	241.0	-8388608.0	255939.0	-8388608.0
27	18	11	27	290	242.0	-8388608.0	246656.0	-8388608.0
27	18	11	27	291	243.0	-8388608.0	233888.0	-8388608.0
27	18	11	27	292	244.0	-8388608.0	222186.0	-8388608.0
27	18	11	27	293	245.0	-8388608.0	229961.0	-8388608.0
27	18	11	27	293	246.0	-8388608.0	223093.0	-8388608.0
27	18	11	27	294	247.0	-8388608.0	206643.0	-8388608.0
27	18	11	27	295	248.0	-8388608.0	194607.0	-8388608.0
27	18	11	27	295	249.0	-8388608.0	183136.0	-8388608.0
27	18	11	27	296	250.0	-8369681.0	177289.0	-8388608.0
27	18	11	27	297	251.0	-6504931.0	166217.0	-6727891.0
27	18	11	27	297	252.0	-2532416.0	134280.0	-2695959.0
27	18	11	27	335	253.0	2350209.0	97781.0	2195871.0
27	18	11	27	335	254.0	6701580.0	102563.0	6742476.0
27	18	11	27	336	255.0	8388607.0	64571.0	8388607.0
27	18	11	27	337	0.0	8388607.0	71036.0	8388607.0
27	18	11	27	337	1.0	8388607.0	49932.0	8388607.0
27	18	11	27	338	2.0	8388607.0	-2121.0	8388607.0
27	18	11	27	339	3.0	8388607.0	-10757.0	8388607.0
27	18	11	27	339	4.0	8388607.0	-42905.0	8388607.0
27	18	11	27	340	5.0	8388607.0	-63560.0	8388607.0
27	18	11	27	340	6.0	8388607.0	-92238.0	8388607.0
27	18	11	27	341	7.0	8388607.0	-29024.0	8388607.0
27	18	11	27	380	8.0	8388607.0	-63765.0	8388607.0
27	18	11	27	394	9.0	8388607.0	-133602.0	8388607.0
27	18	11	27	395	10.0	8388607.0	-78677.0	8388607.0
27	18	11	27	395	11.0	8388607.0	-37755.0	8388607.0
27	18	11	27	396	12.0	8388607.0	-192688.0	8388607.0
27	18	11	27	397	13.0	8388607.0	-176070.0	8388607.0
27	18	11	27	397	14.0	8388607.0	-156571.0	8388607.0
27	18	11	27	398	15.0	8388607.0	-183989.0	8388607.0
27	18	11	27	398	16.0	8388607.0	-178741.0	8388607.0
27	18	11	27	399	17.0	8388607.0	-166722.0	8388607.0
27	18	11	27	399	18.0	8388607.0	-124184.0	8388607.0
27	18	11	27	425	19.0	8388607.0	-47025.0	8388607.0
27	18	11	27	426	20.0	8388607.0	-184064.0	8388607.0
27	18	11	27	426	21.0	8388607.0	-178453.0	8388607.0
27	18	11	27	427	22.0	8388607.0	-99881.0	8388607.0
27	18	11	27	428	23.0	8388607.0	-177814.0	8388607.0
27	18	11	27	428	24.0	8388607.0	-200489.0	8388607.0
27	18	11	27	429	25.0	8388607.0	-191942.0	8388607.0
27	18	11	27	430	26.0	8388607.0	-132491.0	8388607.0
27	18	11	27	430	27.0	8388607.0	-120606.0	8388607.0
27	18	11	27	431	28.0	8388607.0	-161710.0	8388607.0
27	18	11	27	432	29.0	8388607.0	-168390.0	8388607.0
27	18	11	27	471	30.0	8388607.0	-187444.0	8388607.0
27	18	11	27	472	31.0	8388607.0	-193910.0	8388607.0
27	18	11	27	473	32.0	8388607.0	-164186.0	8388607.0
27	18	11	27	473	33.0	8388607.0	-163946.0	8388607.0
27	18	11	27	474	34.0	8388607.0	-145471.0	8388607.0
27	18	11	27	475	35.0	8388607.0	-124186.0	8388607.0
27	18	11	27	475	36.0	8388607.0	-101852.0	8388607.0
27	18	11	27	476	37.0	8388607.0	-79971.0	8388607.0
27	18	11	27	477	38.0	8388607.0	-69706.0	8388607.0
27	18	11	27	477	39.0	8388607.0	-66459.0	8388607.0
27	18	11	27	478	40.0	8388607.0	-61778.0	8388607.0
27	18	11	27	515	41.0	8388607.0	-83678.0	8388607.0
27	18	11	27	516	42.0	8388607.0	-108640.0	8388607.0
27	18	11	27	517	43.0	8388607.0	-109839.0	8388607.0
27	18	11	27	518	44.0	8388607.0	-119344.0	8388607.0
27	18	11	27	519	45.0	8388607.0	-135536.0	8388607.0
27	18	11	27	519	46.0	8388607.0	-150299.0	8388607.0
27	18	11	27	520	47.0	8388607.0	-150521.0	8388607.0
27	18	11	27	521	48.0	8388607.0	-147348.0	8388607.0
27	18	11	27	521	49.0	8388607.0	-140076.0	8388607.0
27	18	11	27	522	50.0	8388607.0	-140502.0	8388607.0
27	18	11	27	523	51.0	8388607.0	-135562.0	8388607.0
27	18	11	27	523	52.0	8388607.0	-125327.0	8388607.0
27	18	11	27	560	53.0	8388607.0	-101996.0	8388607.0
27	18	11	27	561	54.0	8388607.0	-97234.0	8388607.0
27	18	11	27	561	55.0	8388607.0	-71273.0	8388607.0
27	18	11	27	562	56.0	8388607.0	-53217.0	8388607.0
27	18	11	27	563	57.0	8388607.0	-36118.0	8388607.0
27	18	11	27	563	58.0	8388607.0	-14619.0	8388607.0
27	18	11	27	565	59.0	8388607.0	-9639.0	8388607.0
27	18	11	27	566	60.0	8388607.0	-4644.0	8388607.0
27	18	11	27	566	61.0	8388607.0	-37860.0	8388607.0
27	18	11	27	567	62.0	8388607.0	-50548.0	8388607.0
27	18	11	27	568	63.0	8388607.0	-26564.0	8388607.0
27	18	11	27	606	64.0	7447003.0	48552.0	7029048.0
27	18	11	27	606	65.0	5454799.0	157371.0	4991479.0
27	18	11	27	607	66.0	4345736.0	260673.0	3947659.0
27	18	11	27	608	67.0	3774126.0	307838.0	3393448.0
27	18	11	27	609	68.0	2569197.0	367007.0	2190603.0
27	18	11	27	609	69.0	991727.0	348265.0	606194.0
27	18	11	27	610	70.0	201226.0	283243.0	-188495.0
27	18	11	27	611	71.0	378881.0	229565.0	22031.0
27	18	11	27	611	72.0	572283.0	211691.0	221421.0
27	18	11	27	612	73.0	-191699.0	123785.0	-556839.0
27	18	11	27	613	74.0	-1548558.0	52141.0	-1937959.0
27	18	11	27	650	75.0	-2450984.0	41933.0	-2842834.0
27	18	11	27	651	76.0	-2217093.0	41403.0	-2591072.0
27	18	11	27	652	77.0	-1900926.0	36795.0	-2257532.0
27	18	11	27	653	78.0	-2655027.0	31503.0	-2985806.0
27	18	11	27	654	79.0	-4045193.0	27501.0	-4376622.0
27	18	11	27	655	80.0	-4834564.0	29466.0	-5190037.0
27	18	11	27	655	81.0	-4556233.0	22466.0	-4912031.0
27	18	11	27	656	82.0	-4288871.0	31221.0	-4649609.0
27	18	11	27	657	83.0	-5250453.0	36862.0	-5610826.0
27	18	11	27	657	84.0	-6850436.0	34712.0	-7176477.0
27	18	11	27	658	85.0	-7462438.0	49376.0	-7833520.0
27	18	11	27	696	86.0	-6904407.0	40741.0	-7281717.0
27	18	11	27	697	87.0	-6352458.0	58689.0	-6667404.0
27	18	11	27	697	88.0	-6932778.0	67628.0	-7277303.0
27	18	11	27	698	89.0	-7882174.0	77447.0	-8186886.0
27	18	11	27	699	90.0	-8093199.0	72161.0	-8388608.0
27	18	11	27	700	91.0	-7236686.0	68147.0	-7638518.0
27	18	11	27	700	92.0	-6104853.0	44313.0	-6426419.0
27	18	11	27	701	93.0	-6408771.0	49753.0	-6724407.0
27	18	11	27	702	94.0	-7481568.0	73196.0	-7817057.0
27	18	11	27	702	95.0	-7467779.0	95488.0	-7785707.0
27	18	11	27	703	96.0	-6492027.0	96011.0	-6833504.0
27	18	11	27	703	97.0	-5282101.0	98025.0	-5560272.0
27	18	11	27	739	98.0	-5154034.0	98092.0	-5427268.0
27	18	11	27	740	99.0	-5916571.0	73902.0	-6203331.0
27	18	11	27	741	100.0	-5756858.0	88814.0	-6054875.0
27	18	11	27	742	101.0	-4458402.0	69060.0	-4753467.0
27	18	11	27	742	102.0	-3655816.0	39865.0	-3950491.0
27	18	11	27	743	103.0	-4646643.0	24074.0	-4945268.0
27	18	11	27	744	104.0	-6400601.0	13415.0	-6703974.0
27	18	11	27	744	105.0	-7054653.0	7054.0	-7347001.0
27	18	11	27	745	106.0	-6487352.0	-15866.0	-6793494.0
27	18	11	27	746	107.0	-6345331.0	-40939.0	-6612669.0
27	18	11	27	746	108.0	-7632322.0	-61501.0	-7766568.0
27	18	11	27	785	109.0	-8388608.0	-36946.0	-8388608.0
27	18	11	27	786	110.0	-8388608.0	-54785.0	-8388608.0
27	18	11	27	786	111.0	-8388608.0	-65024.0	-8388608.0
27	18	11	27	787	112.0	-8388608.0	-72944.0	-8388608.0
27	18	11	27	788	113.0	-8388608.0	-84144.0	-8388608.0
27	18	11	27	789	114.0	-8388608.0	-80953.0	-8388608.0
27	18	11	27	790	115.0	-8388608.0	-96295.0	-8388608.0
27	18	11	27	790	116.0	-8388608.0	-106972.0	-8388608.0
27	18	11	27	791	117.0	-8388608.0	-116392.0	-8388608.0
27	18	11	27	792	118.0	-8388608.0	-108506.0	-8388608.0
27	18	11	27	792	119.0	-8388608.0	-106198.0	-8388608.0
27	18	11	27	831	120.0	-8388608.0	-110251.0	-8388608.0
27	18	11	27	832	121.0	-8388608.0	-119496.0	-8388608.0
27	18	11	27	833	122.0	-8388608.0	-135590.0	-8388608.0
27	18	11	27	834	123.0	-8388608.0	-125205.0	-8388608.0
27	18	11	27	835	124.0	-8388608.0	-124537.0	-8388608.0
27	18	11	27	835	125.0	-8388608.0	-124776.0	-8388608.0
27	18	11	27	836	126.0	-8388608.0	-137175.0	-8388608.0
27	18	11	27	837	127.0	-8355961.0	-143086.0	-8388608.0
27	18	11	27	838	128.0	-8388608.0	-151189.0	-8388608.0
27	18	11	27	838	129.0	-8388608.0	-129164.0	-8388608.0
27	18	11	27	839	130.0	-8388608.0	-113642.0	-8388608.0
27	18	11	27	875	131.0	-7876174.0	-110993.0	-8180970.0
27	18	11	27	876	132.0	-7497796.0	-106616.0	-8012717.0
27	18	11	27	877	133.0	-8271362.0	-112300.0	-8388608.0
27	18	11	27	878	134.0	-8388608.0	-98863.0	-8388608.0
27	18	11	27	879	135.0	-8388608.0	-100673.0	-8388608.0
27	18	11	27	879	136.0	-7784532.0	-88900.0	-8082011.0
27	18	11	27	880	137.0	-7731009.0	-97728.0	-8219616.0
27	18	11	27	881	138.0	-8388608.0	-71055.0	-8388608.0
27	18	11	27	882	139.0	-8388608.0	-54443.0	-8388608.0
27	18	11	27	882	140.0	-8388608.0	-47677.0	-8388608.0
27	18	11	27	883	141.0	-8388608.0	-43649.0	-8388608.0
27	18	11	27	921	142.0	-8341439.0	-56969.0	-8388608.0
27	18	11	27	922	143.0	-8388608.0	-45751.0	-8388608.0
27	18	11	27	922	144.0	-8388608.0	-32902.0	-8388608.0
27	18	11	27	923	145.0	-8388608.0	-15033.0	-8388608.0
27	18	11	27	924	146.0	-8388608.0	-31721.0	-8388608.0
27	18	11	27	925	147.0	-8388608.0	-24273.0	-8388608.0
27	18	11	27	925	148.0	-8388608.0	-25890.0	-8388608.0
27	18	11	27	926	149.0	-8388608.0	-33492.0	-8388608.0
27	18	11	27	927	150.0	-8388608.0	-27765.0	-8388608.0
27	18	11	27	927	151.0	-8388608.0	-39246.0	-8388608.0
27	18	11	27	928	152.0	-8388608.0	-45649.0	-8388608.0
27	18	11	27	928	153.0	-8388608.0	-34792.0	-8388608.0
27	18	11	27	965	154.0	-8388608.0	-18298.0	-8388608.0
27	18	11	27	966	155.0	-8388608.0	-24592.0	-8388608.0
27	18	11	27	967	156.0	-8228126.0	-29144.0	-8388608.0
27	18	11	27	968	157.0	-8247251.0	-55391.0	-8388608.0
27	18	11	27	969	158.0	-8388608.0	-44386.0	-8388608.0
27	18	11	27	969	159.0	-8388608.0	-23104.0	-8388608.0
27	18	11	27	970	160.0	-8388608.0	-23734.0	-8388608.0
27	18	11	27	971	161.0	-8388608.0	-29007.0	-8388608.0
27	18	11	27	971	162.0	-8388608.0	-36192.0	-8388608.0
27	18	11	27	972	163.0	-8388608.0	-20972.0	-8388608.0
27	18	11	27	973	164.0	-8388608.0	-18976.0	-8388608.0
27	18	11	28	10	165.0	-8388608.0	-11509.0	-8388608.0
27	18	11	28	11	166.0	-8388608.0	-23886.0	-8388608.0
27	18	11	28	11	167.0	-8388608.0	-28900.0	-8388608.0
27	18	11	28	12	168.0	-8388608.0	-12139.0	-8388608.0
27	18	11	28	13	169.0	-8388608.0	-7757.0	-8388608.0
27	18	11	28	14	170.0	-8388608.0	-10832.0	-8388608.0
27	18	11	28	14	171.0	-8388608.0	-26845.0	-8388608.0
27	18	11	28	15	172.0	-8388608.0	-26947.0	-8388608.0
27	18	11	28	16	173.0	-8388608.0	-6701.0	-8388608.0
27	18	11	28	17	174.0	-8388608.0	-11263.0	-8388608.0
27	18	11	28	17	175.0	-8388608.0	-3791.0	-8388608.0
27	18	11	28	56	176.0	-8388608.0	-7326.0	-8388608.0
27	18	11	28	57	177.0	-8388608.0	-5552.0	-8388608.0
27	18	11	28	58	178.0	-8388608.0	-16189.0	-8388608.0
27	18	11	28	58	179.0	-8388608.0	-7706.0	-8388608.0
27	18	11	28	59	180.0	-8388608.0	-8402.0	-8388608.0
27	18	11	28	60	181.0	-8388608.0	-10744.0	-8388608.0
27	18	11	28	61	182.0	-8388608.0	-8474.0	-8388608.0
27	18	11	28	61	183.0	-8388608.0	-3691.0	-8388608.0
27	18	11	28	62	184.0	-8388608.0	3484.0	-8388608.0
27	18	11	28	62	185.0	-8388608.0	-9463.0	-8388608.0
27	18	11	28	63	186.0	-8388608.0	-2941.0	-8388608.0
27	18	11	28	100	187.0	-8388608.0	-14102.0	-8388608.0
27	18	11	28	101	188.0	-8388608.0	6324.0	-8388608.0
27	18	11	28	101	189.0	-8388608.0	7159.0	-8388608.0
27	18	11	28	102	190.0	-8388608.0	7318.0	-8388608.0
27	18	11	28	103	191.0	-8388608.0	1763.0	-8388608.0
27	18	11	28	103	192.0	-8388608.0	-2452.0	-8388608.0
27	18	11	28	104	193.0	-8388608.0	3519.0	-8388608.0
27	18	11	28	105	194.0	-8388608.0	9171.0	-8388608.0
27	18	11	28	105	195.0	-8388608.0	12839.0	-8388608.0
27	18	11	28	106	196.0	-8388608.0	12964.0	-8388608.0
27	18	11	28	107	197.0	-8388608.0	18796.0	-8388608.0
27	18	11	28	107	198.0	-8388608.0	14826.0	-8388608.0
27	18	11	28	145	199.0	-8388608.0	20158.0	-8388608.0
27	18	11	28	146	200.0	-8388608.0	20569.0	-8388608.0
27	18	11	28	147	201.0	-8388608.0	14197.0	-8388608.0
27	18	11	28	147	202.0	-8388608.0	18146.0	-8388608.0
27	18	11	28	148	203.0	-8388608.0	23503.0	-8388608.0
27	18	11	28	149	204.0	-8388608.0	28611.0	-8388608.0
27	18	11	28	149	205.0	-8388608.0	11874.0	-8388608.0
27	18	11	28	150	206.0	-8388608.0	13898.0	-8388608.0
27	18	11	28	151	207.0	-8388608.0	11703.0	-8388608.0
27	18	11	28	151	208.0	-8388608.0	25629.0	-8388608.0
27	18	11	28	152	209.0	-8388608.0	39535.0	-8388608.0
27	18	11	28	191	210.0	-8388608.0	40836.0	-8388608.0
27	18	11	28	191	211.0	-8388608.0	25391.0	-8388608.0
27	18	11	28	192	212.0	-8388608.0	17241.0	-8388608.0
27	18	11	28	193	213.0	-8388608.0	30064.0	-8388608.0
27	18	11	28	194	214.0	-8388608.0	25393.0	-8388608.0
27	18	11	28	194	215.0	-8388608.0	25664.0	-8388608.0
27	18	11	28	195	216.0	-7958861.0	13446.0	-7954544.0
27	18	11	28	196	217.0	-7736324.0	3344.0	-8075331.0
27	18	11	28	196	218.0	-8212971.0	1830.0	-8388608.0
27	18	11	28	197	219.0	-8388608.0	14708.0	-8388608.0
27	18	11	28	198	220.0	-7973951.0	6037.0	-8289449.0
27	18	11	28	235	221.0	-7228601.0	14699.0	-7368357.0
27	18	11	28	235	222.0	-7486646.0	19261.0	-7795362.0
27	18	11	28	236	223.0	-8275709.0	17053.0	-8388608.0
27	18	11	28	237	224.0	-8388608.0	27190.0	-8388608.0
27	18	11	28	238	225.0	-8256152.0	15230.0	-8388608.0
27	18	11	28	238	226.0	-7820192.0	19955.0	-7973404.0
27	18	11	28	239	227.0	-8278130.0	22896.0	-8259683.0
27	18	11	28	240	228.0	-8388608.0	31905.0	-8388608.0
27	18	11	28	240	229.0	-8388608.0	33511.0	-8388608.0
27	18	11	28	241	230.0	-8388608.0	22508.0	-8388608.0
27	18	11	28	242	231.0	-8227289.0	10793.0	-8388608.0
27	18	11	28	281	232.0	-8388608.0	-1243.0	-8388608.0
27	18	11	28	282	233.0	-8388608.0	-12602.0	-8388608.0
27	18	11	28	283	234.0	-8388608.0	-45674.0	-8388608.0
27	18	11	28	283	235.0	-8388608.0	-64712.0	-8388608.0
27	18	11	28	284	236.0	-8027312.0	-21559.0	-8388608.0
27	18	11	28	285	237.0	-8388608.0	99106.0	-8387183.0
27	18	11	28	286	238.0	-8388608.0	216845.0	-8388608.0
27	18	11	28	286	239.0	-8388608.0	322453.0	-8388608.0
27	18	11	28	287	240.0	-8239671.0	391334.0	-8388608.0
27	18	11	28	288	241.0	-7947558.0	394068.0	-8388608.0
27	18	11	28	288	242.0	-8388608.0	342753.0	-8388608.0
27	18	11	28	324	243.0	-8388608.0	272360.0	-8388608.0
27	18	11	28	325	244.0	-8388608.0	268673.0	-8388608.0
27	18	11	28	326	245.0	-8373712.0	165050.0	-8388608.0
27	18	11	28	327	246.0	-8017842.0	58817.0	-8388608.0
27	18	11	28	328	247.0	-8388608.0	25033.0	-8388608.0
27	18	11	28	329	248.0	-8388608.0	39039.0	-8388608.0
27	18	11	28	329	249.0	-8388608.0	28932.0	-8388608.0
27	18	11	28	331	250.0	-8304117.0	15899.0	-8388608.0
27	18	11	28	332	251.0	-7933506.0	-5244.0	-8388608.0
27	18	11	28	333	252.0	-8361876.0	-12621.0	-8388608.0
27	18	11	28	334	253.0	-8388608.0	-6181.0	-8388608.0
27	18	11	28	334	254.0	-8388608.0	-85.0	-8388608.0
27	18	11	28	370	255.0	-8027523.0	-2576.0	-8304230.0
27	18	11	28	371	0.0	-7540535.0	-12696.0	-8134407.0
27	18	11	28	372	1.0	-8141307.0	-8334.0	-8280827.0
27	18	11	28	372	2.0	-8388608.0	-17156.0	-8388608.0
27	18	11	28	373	3.0	-8388608.0	-17523.0	-8388608.0
27	18	11	28	374	4.0	-7938670.0	-20167.0	-8214391.0
27	18	11	28	374	5.0	-7260099.0	-23793.0	-7826059.0
27	18	11	28	375	6.0	-7710200.0	-14038.0	-7955672.0
27	18	11	28	376	7.0	-8388608.0	-11299.0	-8388608.0
27	18	11	28	376	8.0	-8388608.0	-16322.0	-8388608.0
27	18	11	28	377	9.0	-7482584.0	-32732.0	-7752804.0
27	18	11	28	415	10.0	-6747084.0	-24436.0	-7230339.0
27	18	11	28	416	11.0	-7245897.0	-25704.0	-7641522.0
27	18	11	28	417	12.0	-8191377.0	-20492.0	-8210655.0
27	18	11	28	419	13.0	-8235469.0	-22851.0	-8388608.0
27	18	11	28	420	14.0	-7272737.0	-21078.0	-7548364.0
27	18	11	28	421	15.0	-6596268.0	-29967.0	-6945014.0
27	18	11	28	422	16.0	-6977952.0	-27836.0	-7302860.0
27	18	11	28	422	17.0	-7676354.0	-28847.0	-7754712.0
27	18	11	28	423	18.0	-7658302.0	-42743.0	-7841135.0
27	18	11	28	424	19.0	-6705347.0	-35120.0	-7029786.0
27	18	11	28	424	20.0	-6094589.0	-29432.0	-6414708.0
27	18	11	28	460	21.0	-6546341.0	-27111.0	-6866401.0
27	18	11	28	460	22.0	-7228447.0	-29712.0	-7451755.0
27	18	11	28	461	23.0	-7046881.0	-42811.0	-7324286.0
27	18	11	28	462	24.0	-6060915.0	-71899.0	-6409026.0
27	18	11	28	462	25.0	-5412945.0	-56511.0	-5763079.0
27	18	11	28	463	26.0	-5756318.0	-56102.0	-6122847.0
27	18	11	28	464	27.0	-6344759.0	-56694.0	-6720016.0
27	18	11	28	464	28.0	-6206401.0	-66967.0	-6573124.0
27	18	11	28	465	29.0	-5443357.0	-80101.0	-5800331.0
27	18	11	28	465	30.0	-5115850.0	-88823.0	-5468744.0
27	18	11	28	466	31.0	-5764271.0	-81223.0	-6131869.0
27	18	11	28	505	32.0	-6578439.0	-66314.0	-6987366.0
27	18	11	28	506	33.0	-6613032.0	-73102.0	-6978290.0
27	18	11	28	507	34.0	-6004849.0	-75515.0	-6386986.0
27	18	11	28	507	35.0	-5412197.0	-87120.0	-5827072.0
27	18	11	28	508	36.0	-5122981.0	-96686.0	-5556507.0
27	18	11	28	509	37.0	-6336097.0	-106282.0	-6793421.0
27	18	11	28	510	38.0	-6686048.0	-91674.0	-7148234.0
27	18	11	28	511	39.0	-5592887.0	-87060.0	-6039154.0
27	18	11	28	512	40.0	-4519804.0	-96312.0	-4976091.0
27	18	11	28	513	41.0	-4325131.0	-88220.0	-4824476.0
27	18	11	28	513	42.0	-4653888.0	-87999.0	-5243304.0
27	18	11	28	514	43.0	-4484324.0	-80252.0	-5195325.0
27	18	11	28	550	44.0	-4398449.0	-64926.0	-5126219.0
27	18	11	28	551	45.0	-4937712.0	-65316.0	-5680262.0
27	18	11	28	552	46.0	-6438111.0	-57356.0	-7099117.0
27	18	11	28	553	47.0	-7756268.0	-49253.0	-8259610.0
27	18	11	28	553	48.0	-8014594.0	-39178.0	-8388608.0
27	18	11	28	554	49.0	-7685857.0	-33997.0	-8214095.0
27	18	11	28	555	50.0	-7716572.0	-31619.0	-8388608.0
27	18	11	28	555	51.0	-8388608.0	-26955.0	-8388608.0
27	18	11	28	556	52.0	-8388608.0	-5464.0	-8388608.0
27	18	11	28	556	53.0	-8388608.0	2531.0	-8388608.0
27	18	11	28	557	54.0	-8388608.0	7593.0	-8388608.0
27	18	11	28	595	55.0	-8388608.0	6979.0	-8388608.0
27	18	11	28	595	56.0	-8388608.0	6744.0	-8388608.0
27	18	11	28	596	57.0	-8388608.0	5210.0	-8388608.0
27	18	11	28	597	58.0	-8388608.0	8609.0	-8388608.0
27	18	11	28	597	59.0	-8229088.0	23630.0	-8388608.0
27	18	11	28	598	60.0	-7976455.0	18534.0	-8388608.0
27	18	11	28	599	61.0	-8388608.0	24128.0	-8388608.0
27	18	11	28	599	62.0	-8388608.0	13413.0	-8388608.0
27	18	11	28	600	63.0	-8388608.0	10704.0	-8388608.0
27	18	11	28	601	64.0	-7961761.0	24403.0	-8388608.0
27	18	11	28	601	65.0	-7464624.0	36482.0	-8022553.0
27	18	11	28	640	66.0	-7821284.0	31014.0	-8388608.0
27	18	11	28	641	67.0	-8342752.0	30228.0	-8388608.0
27	18	11	28	641	68.0	-8388608.0	28164.0	-8388608.0
27	18	11	28	642	69.0	-8016794.0	14441.0	-8388608.0
27	18	11	28	642	70.0	-7791819.0	25489.0	-8319358.0
27	18	11	28	643	71.0	-8043297.0	29221.0	-8388608.0
27	18	11	28	644	72.0	-8388608.0	35999.0	-8388608.0
27	18	11	28	644	73.0	-8388608.0	32143.0	-8388608.0
27	18	11	28	645	74.0	-8388608.0	34753.0	-8388608.0
27	18	11	28	645	75.0	-8388608.0	32351.0	-8388608.0
27	18	11	28	646	76.0	-8388608.0	38289.0	-8388608.0
27	18	11	28	685	77.0	-8388608.0	32611.0	-8388608.0
27	18	11	28	686	78.0	-8388608.0	29878.0	-8388608.0
27	18	11	28	687	79.0	-8388608.0	31564.0	-8388608.0
27	18	11	28	688	80.0	-8388608.0	44601.0	-8388608.0
27	18	11	28	688	81.0	-8388608.0	48601.0	-8388608.0
27	18	11	28	689	82.0	-8388608.0	46224.0	-8388608.0
27	18	11	28	690	83.0	-8388608.0	42804.0	-8388608.0
27	18	11	28	690	84.0	-8388608.0	19677.0	-8388608.0
27	18	11	28	691	85.0	-8388608.0	27656.0	-8388608.0
27	18	11	28	692	86.0	-8388608.0	43843.0	-8388608.0
27	18	11	28	692	87.0	-8388608.0	47529.0	-8388608.0
27	18	11	28	730	88.0	-8388608.0	43289.0	-8388608.0
27	18	11	28	731	89.0	-8388608.0	46916.0	-8388608.0
27	18	11	28	731	90.0	-8388608.0	30089.0	-8388608.0
27	18	11	28	732	91.0	-8388608.0	30965.0	-8388608.0
27	18	11	28	733	92.0	-8388608.0	41950.0	-8388608.0
27	18	11	28	734	93.0	-8388608.0	41974.0	-8388608.0
27	18	11	28	734	94.0	-8388608.0	41011.0	-8388608.0
27	18	11	28	735	95.0	-8388608.0	36336.0	-8388608.0
27	18	11	28	736	96.0	-8388608.0	38538.0	-8388608.0
27	18	11	28	736	97.0	-8388608.0	38515.0	-8388608.0
27	18	11	28	737	98.0	-8388608.0	42300.0	-8388608.0
27	18	11	28	738	99.0	-8388608.0	47005.0	-8388608.0
27	18	11	28	775	100.0	-8388608.0	53569.0	-8388608.0
27	18	11	28	776	101.0	-8388608.0	59453.0	-8388608.0
27	18	11	28	776	102.0	-8388608.0	54463.0	-8388608.0
27	18	11	28	777	103.0	-8388608.0	48654.0	-8388608.0
27	18	11	28	777	104.0	-8388608.0	39234.0	-8388608.0
27	18	11	28	778	105.0	-8388608.0	53002.0	-8388608.0
27	18	11	28	779	106.0	-8388608.0	48086.0	-8388608.0
27	18	11	28	779	107.0	-8388608.0	60821.0	-8388608.0
27	18	11	28	780	108.0	-8388608.0	55730.0	-8388608.0
27	18	11	28	780	109.0	-8388608.0	52363.0	-8388608.0
27	18	11	28	781	110.0	-8388608.0	53686.0	-8388608.0
27	18	11	28	821	111.0	-8388608.0	64043.0	-8388608.0
27	18	11	28	821	112.0	-8388608.0	62742.0	-8388608.0
27	18	11	28	822	113.0	-8388608.0	62961.0	-8388608.0
27	18	11	28	823	114.0	-8388608.0	66217.0	-8388608.0
27	18	11	28	823	115.0	-8388608.0	72396.0	-8388608.0
27	18	11	28	824	116.0	-8388608.0	84688.0	-8388608.0
27	18	11	28	825	117.0	-8388608.0	73742.0	-8388608.0
27	18	11	28	825	118.0	-8388608.0	71029.0	-8388608.0
27	18	11	28	826	119.0	-8388608.0	70293.0	-8388608.0
27	18	11	28	827	120.0	-8388608.0	86034.0	-8388608.0
27	18	11	28	827	121.0	-8388608.0	86802.0	-8388608.0
27	18	11	28	865	122.0	-8388608.0	79976.0	-8388608.0
27	18	11	28	866	123.0	-8388608.0	64764.0	-8388608.0
27	18	11	28	867	124.0	-8388608.0	51519.0	-8388608.0
27	18	11	28	867	125.0	-8388608.0	69952.0	-8388608.0
27	18	11	28	869	126.0	-8388608.0	79173.0	-8388608.0
27	18	11	28	870	127.0	-8388608.0	85566.0	-8388608.0
27	18	11	28	871	128.0	-8388608.0	77671.0	-8388608.0
27	18	11	28	872	129.0	-8388608.0	71405.0	-8388608.0
27	18	11	28	873	130.0	-8388608.0	76314.0	-8388608.0
27	18	11	28	874	131.0	-8388608.0	89399.0	-8388608.0
27	18	11	28	874	132.0	-8388608.0	87647.0	-8388608.0
27	18	11	28	912	133.0	-8388608.0	83994.0	-8388608.0
27	18	11	28	913	134.0	-8388608.0	86284.0	-8388608.0
27	18	11	28	913	135.0	-8388608.0	77352.0	-8388608.0
27	18	11	28	914	136.0	-8388608.0	83019.0	-8388608.0
27	18	11	28	915	137.0	-8388608.0	84715.0	-8388608.0
27	18	11	28	915	138.0	-8388608.0	71292.0	-8388608.0
27	18	11	28	916	139.0	-8388608.0	34840.0	-8388608.0
27	18	11	28	917	140.0	-8388608.0	9301.0	-8388608.0
27	18	11	28	917	141.0	-8388608.0	-3885.0	-8388608.0
27	18	11	28	918	142.0	-8388608.0	48499.0	-8388608.0
27	18	11	28	919	143.0	-8388608.0	177771.0	-8388608.0
27	18	11	28	919	144.0	-8388608.0	299317.0	-8388608.0
27	18	11	28	955	145.0	-8388608.0	386220.0	-8388608.0
27	18	11	28	956	146.0	-8388608.0	457300.0	-8388608.0
27	18	11	28	957	147.0	-8388608.0	463229.0	-8388608.0
27	18	11	28	957	148.0	-8388608.0	392579.0	-8388608.0
27	18	11	28	958	149.0	-8388608.0	307004.0	-8388608.0
27	18	11	28	958	150.0	-8388608.0	302699.0	-8388608.0
27	18	11	28	959	151.0	-8388608.0	220352.0	-8388608.0
27	18	11	28	960	152.0	-8388608.0	124356.0	-8388608.0
27	18	11	28	960	153.0	-8388608.0	68881.0	-8388608.0
27	18	11	28	961	154.0	-8388608.0	56819.0	-8388608.0
27	18	11	28	961	155.0	-8388608.0	54269.0	-8388608.0
27	18	11	29	0	156.0	-8388608.0	70504.0	-8388608.0
27	18	11	29	1	157.0	-8388608.0	55426.0	-8388608.0
27	18	11	29	2	158.0	-8388608.0	51639.0	-8388608.0
27	18	11	29	2	159.0	-8388608.0	40856.0	-8388608.0
27	18	11	29	3	160.0	-8388608.0	39666.0	-8388608.0
27	18	11	29	4	161.0	-8388608.0	39648.0	-8388608.0
27	18	11	29	4	162.0	-8388608.0	44542.0	-8388608.0
27	18	11	29	5	163.0	-8388608.0	43945.0	-8388608.0
27	18	11	29	6	164.0	-8388608.0	47219.0	-8388608.0
27	18	11	29	6	165.0	-8388608.0	51592.0	-8388608.0
27	18	11	29	7	166.0	-8388608.0	40027.0	-8388608.0
27	18	11	29	46	167.0	-8388608.0	49508.0	-8388608.0
27	18	11	29	46	168.0	-8388608.0	47716.0	-8388608.0
27	18	11	29	47	169.0	-8388608.0	44583.0	-8388608.0
27	18	11	29	48	170.0	-8388608.0	48911.0	-8388608.0
27	18	11	29	50	171.0	-8388608.0	49017.0	-8388608.0
27	18	11	29	51	172.0	-8388608.0	45741.0	-8388608.0
27	18	11	29	52	173.0	-8388608.0	40997.0	-8388608.0
27	18	11	29	53	174.0	-8388608.0	41849.0	-8388608.0
27	18	11	29	53	175.0	-8388608.0	35911.0	-8388608.0
27	18	11	29	54	176.0	-8388608.0	39308.0	-8388608.0
27	18	11	29	55	177.0	-8388608.0	37304.0	-8388608.0
27	18	11	29	94	178.0	-8388608.0	36917.0	-8388608.0
27	18	11	29	95	179.0	-8388608.0	27635.0	-8388608.0
27	18	11	29	95	180.0	-8388608.0	26423.0	-8388608.0
27	18	11	29	96	181.0	-8388608.0	20311.0	-8388608.0
27	18	11	29	97	182.0	-8388608.0	18392.0	-8388608.0
27	18	11	29	97	183.0	-8388608.0	17729.0	-8388608.0
27	18	11	29	98	184.0	-8388608.0	8863.0	-8388608.0
27	18	11	29	99	185.0	-8388608.0	6776.0	-8388608.0
27	18	11	29	99	186.0	-8388608.0	1289.0	-8388608.0
27	18	11	29	100	187.0	-8388608.0	5545.0	-8388608.0
27	18	11	29	101	188.0	-8388608.0	4703.0	-8388608.0
27	18	11	29	135	189.0	-8388608.0	8449.0	-8388608.0
27	18	11	29	136	190.0	-8388608.0	-810.0	-8388608.0
27	18	11	29	136	191.0	-8388608.0	-12319.0	-8388608.0
27	18	11	29	137	192.0	-8388608.0	-11074.0	-8388608.0
27	18	11	29	138	193.0	-8388608.0	-23227.0	-8388608.0
27	18	11	29	139	194.0	-8388608.0	-16613.0	-8388608.0
27	18	11	29	139	195.0	-8388608.0	-17779.0	-8388608.0
27	18	11	29	140	196.0	-8388608.0	-24605.0	-8388608.0
27	18	11	29	141	197.0	-8388608.0	-32991.0	-8388608.0
27	18	11	29	141	198.0	-8388608.0	-28307.0	-8388608.0
27	18	11	29	142	199.0	-8388608.0	-35631.0	-8388608.0
27	18	11	29	143	200.0	-8388608.0	-26494.0	-8388608.0
27	18	11	29	180	201.0	-8388608.0	-19177.0	-8388608.0
27	18	11	29	181	202.0	-8388608.0	-22731.0	-8388608.0
27	18	11	29	182	203.0	-8388608.0	-19952.0	-8388608.0
27	18	11	29	183	204.0	-8388608.0	-24425.0	-8388608.0
27	18	11	29	183	205.0	-8388608.0	-17413.0	-8388608.0
27	18	11	29	184	206.0	-8388608.0	-8467.0	-8388608.0
27	18	11	29	185	207.0	-8388608.0	7354.0	-8388608.0
27	18	11	29	185	208.0	-8388608.0	8059.0	-8388608.0
27	18	11	29	186	209.0	-8388608.0	11711.0	-8388608.0
27	18	11	29	187	210.0	-8388608.0	10991.0	-8388608.0
27	18	11	29	187	211.0	-8388608.0	21149.0	-8388608.0
27	18	11	29	226	212.0	-8388608.0	44598.0	-8388608.0
27	18	11	29	226	213.0	-8388608.0	61285.0	-8388608.0
27	18	11	29	227	214.0	-8388608.0	65358.0	-8388608.0
27	18	11	29	228	215.0	-8388608.0	68298.0	-8388608.0
27	18	11	29	229	216.0	-8388608.0	75397.0	-8388608.0
27	18	11	29	229	217.0	-8388608.0	76433.0	-8388608.0
27	18	11	29	230	218.0	-8388608.0	91397.0	-8388608.0
27	18	11	29	231	219.0	-8388608.0	99614.0	-8388608.0
27	18	11	29	232	220.0	-8388608.0	105889.0	-8388608.0
27	18	11	29	232	221.0	-8388608.0	118253.0	-8388608.0
27	18	11	29	233	222.0	-8388608.0	117669.0	-8388608.0
27	18	11	29	270	223.0	-8388608.0	132663.0	-8388608.0
27	18	11	29	271	224.0	-8388608.0	139104.0	-8388608.0
27	18	11	29	272	225.0	-8388608.0	137591.0	-8388608.0
27	18	11	29	273	226.0	-8388608.0	152598.0	-8388608.0
27	18	11	29	273	227.0	-8388608.0	152249.0	-8388608.0
27	18	11	29	274	228.0	-8388608.0	156034.0	-8388608.0
27	18	11	29	275	229.0	-8388608.0	160050.0	-8388608.0
27	18	11	29	276	230.0	-8388608.0	163160.0	-8388608.0
27	18	11	29	276	231.0	-8388608.0	171407.0	-8388608.0
27	18	11	29	277	232.0	-8388608.0	163636.0	-8388608.0
27	18	11	29	278	233.0	-8388608.0	168469.0	-8388608.0
27	18	11	29	314	234.0	-8388608.0	179987.0	-8388608.0
27	18	11	29	315	235.0	-8388608.0	191583.0	-8388608.0
27	18	11	29	316	236.0	-8388608.0	201585.0	-8388608.0
27	18	11	29	317	237.0	-8388608.0	205844.0	-8388608.0
27	18	11	29	317	238.0	-8388608.0	205246.0	-8388608.0
27	18	11	29	318	239.0	-8388608.0	206190.0	-8388608.0
27	18	11	29	319	240.0	-8388608.0	215283.0	-8388608.0
27	18	11	29	319	241.0	-8388608.0	208064.0	-8388608.0
27	18	11	29	320	242.0	-8388608.0	214638.0	-8388608.0
27	18	11	29	321	243.0	-8388608.0	223714.0	-8388608.0
27	18	11	29	321	244.0	-8388608.0	226527.0	-8388608.0
27	18	11	29	322	245.0	-8388608.0	234368.0	-8388608.0
27	18	11	29	360	246.0	-8388608.0	252130.0	-8388608.0
27	18	11	29	361	247.0	-8388608.0	245248.0	-8388608.0
27	18	11	29	362	248.0	-8388608.0	239952.0	-8388608.0
27	18	11	29	363	249.0	-8388608.0	248334.0	-8388608.0
27	18	11	29	364	250.0	-8388608.0	243471.0	-8388608.0
27	18	11	29	365	251.0	-8388608.0	239112.0	-8388608.0
27	18	11	29	366	252.0	-8388608.0	230941.0	-8388608.0
27	18	11	29	366	253.0	-8388608.0	213627.0	-8388608.0
27	18	11	29	367	254.0	-8388608.0	228779.0	-8388608.0
27	18	11	29	368	255.0	-8388608.0	227430.0	-8388608.0
27	18	11	29	368	0.0	-8388608.0	229971.0	-8388608.0
27	18	11	29	405	1.0	-8388608.0	234079.0	-8388608.0
27	18	11	29	430	2.0	-8388608.0	221214.0	-8388608.0
27	18	11	29	431	3.0	-8388608.0	222368.0	-8388608.0
27	18	11	29	432	4.0	-8388608.0	226263.0	-8388608.0
27	18	11	29	432	5.0	-8388608.0	236264.0	-8388608.0
27	18	11	29	433	6.0	-8388608.0	245441.0	-8388608.0
27	18	11	29	434	7.0	-8388608.0	243554.0	-8388608.0
27	18	11	29	434	8.0	-8388608.0	242271.0	-8388608.0
27	18	11	29	435	9.0	-8388608.0	249600.0	-8388608.0
27	18	11	29	436	10.0	-8388608.0	252617.0	-8388608.0
27	18	11	29	436	11.0	-8388608.0	250193.0	-8388608.0
27	18	11	29	451	12.0	-8388608.0	268397.0	-8388608.0
27	18	11	29	452	13.0	-8388608.0	264691.0	-8388608.0
27	18	11	29	453	14.0	-8388608.0	265369.0	-8388608.0
27	18	11	29	453	15.0	-8388608.0	272356.0	-8388608.0
27	18	11	29	455	16.0	-8388608.0	262608.0	-8388608.0
27	18	11	29	455	17.0	-8388608.0	249288.0	-8388608.0
27	18	11	29	456	18.0	-8388608.0	248195.0	-8388608.0
27	18	11	29	457	19.0	-8388608.0	249728.0	-8388608.0
27	18	11	29	457	20.0	-8388608.0	256178.0	-8388608.0
27	18	11	29	458	21.0	-8388608.0	244719.0	-8388608.0
27	18	11	29	459	22.0	-8388608.0	236794.0	-8388608.0
27	18	11	29	494	23.0	-8388608.0	224082.0	-8388608.0
27	18	11	29	495	24.0	-8388608.0	217418.0	-8388608.0
27	18	11	29	496	25.0	-8388608.0	231654.0	-8388608.0
27	18	11	29	497	26.0	-8388608.0	214474.0	-8388608.0
27	18	11	29	497	27.0	-8388608.0	212446.0	-8388608.0
27	18	11	29	498	28.0	-8388608.0	197686.0	-8388608.0
27	18	11	29	498	29.0	-8388608.0	182753.0	-8388608.0
27	18	11	29	499	30.0	-8388608.0	192867.0	-8388608.0
27	18	11	29	500	31.0	-8388608.0	185333.0	-8388608.0
27	18	11	29	500	32.0	-8388608.0	184666.0	-8388608.0
27	18	11	29	501	33.0	-8388608.0	179234.0	-8388608.0
27	18	11	29	541	34.0	-8388608.0	170291.0	-8388608.0
27	18	11	29	542	35.0	-8388608.0	161012.0	-8388608.0
27	18	11	29	543	36.0	-8388608.0	170756.0	-8388608.0
27	18	11	29	544	37.0	-8388608.0	167578.0	-8388608.0
27	18	11	29	545	38.0	-8388608.0	165054.0	-8388608.0
27	18	11	29	545	39.0	-8388608.0	163989.0	-8388608.0
27	18	11	29	546	40.0	-8388608.0	153853.0	-8388608.0
27	18	11	29	547	41.0	-8388608.0	160333.0	-8388608.0
27	18	11	29	547	42.0	-8388608.0	164238.0	-8388608.0
27	18	11	29	548	43.0	-8388608.0	170655.0	-8388608.0
27	18	11	29	548	44.0	-8388608.0	167251.0	-8388608.0
27	18	11	29	549	45.0	-8388608.0	170224.0	-8388608.0
27	18	11	29	586	46.0	-8388608.0	152625.0	-8388608.0
27	18	11	29	586	47.0	-8388608.0	139484.0	-8388608.0
27	18	11	29	587	48.0	-8388608.0	142081.0	-8388608.0
27	18	11	29	588	49.0	-8388608.0	151124.0	-8388608.0
27	18	11	29	588	50.0	-8388608.0	157728.0	-8388608.0
27	18	11	29	589	51.0	-8388608.0	153244.0	-8388608.0
27	18	11	29	589	52.0	-8388608.0	145321.0	-8388608.0
27	18	11	29	590	53.0	-8388608.0	139265.0	-8388608.0
27	18	11	29	590	54.0	-8388608.0	159900.0	-8388608.0
27	18	11	29	591	55.0	-8388608.0	162170.0	-8388608.0
27	18	11	29	592	56.0	-8388608.0	160118.0	-8388608.0
27	18	11	29	630	57.0	-8388608.0	151918.0	-8388608.0
27	18	11	29	631	58.0	-8388608.0	143383.0	-8388608.0
27	18	11	29	632	59.0	-8388608.0	146818.0	-8388608.0
27	18	11	29	632	60.0	-8388608.0	153304.0	-8388608.0
27	18	11	29	633	61.0	-8388608.0	157699.0	-8388608.0
27	18	11	29	634	62.0	-8388608.0	146812.0	-8388608.0
27	18	11	29	634	63.0	-8388608.0	138389.0	-8388608.0
27	18	11	29	635	64.0	-8388608.0	102637.0	-8388608.0
27	18	11	29	635	65.0	-8388608.0	74360.0	-8388608.0
27	18	11	29	636	66.0	-8388608.0	64113.0	-8388608.0
27	18	11	29	636	67.0	-8388608.0	113768.0	-8388608.0
27	18	11	29	677	68.0	-8388608.0	229029.0	-8388608.0
27	18	11	29	677	69.0	-8388608.0	335758.0	-8388608.0
27	18	11	29	678	70.0	-8388608.0	389755.0	-8388608.0
27	18	11	29	679	71.0	-8388608.0	447501.0	-8388608.0
27	18	11	29	679	72.0	-8388608.0	489346.0	-8388608.0
27	18	11	29	680	73.0	-8388608.0	440614.0	-8388608.0
27	18	11	29	680	74.0	-8388608.0	340921.0	-8388608.0
27	18	11	29	681	75.0	-8388608.0	319034.0	-8388608.0
27	18	11	29	682	76.0	-8388608.0	254743.0	-8388608.0
27	18	11	29	682	77.0	-8388608.0	149118.0	-8388608.0
27	18	11	29	683	78.0	-8388608.0	127010.0	-8388608.0
27	18	11	29	721	79.0	-8388608.0	133269.0	-8388608.0
27	18	11	29	722	80.0	-8388608.0	128990.0	-8388608.0
27	18	11	29	722	81.0	-8388608.0	125455.0	-8388608.0
27	18	11	29	723	82.0	-8388608.0	109068.0	-8388608.0
27	18	11	29	723	83.0	-8388608.0	127384.0	-8388608.0
27	18	11	29	724	84.0	-8388608.0	139253.0	-8388608.0
27	18	11	29	725	85.0	-8388608.0	140711.0	-8388608.0
27	18	11	29	725	86.0	-8388608.0	140218.0	-8388608.0
27	18	11	29	726	87.0	-8388608.0	143169.0	-8388608.0
27	18	11	29	727	88.0	-8388608.0	151764.0	-8388608.0
27	18	11	29	727	89.0	-8388608.0	157101.0	-8388608.0
27	18	11	29	728	90.0	-8388608.0	154162.0	-8388608.0
27	18	11	29	766	91.0	-8388608.0	149972.0	-8388608.0
27	18	11	29	767	92.0	-8388608.0	148252.0	-8388608.0
27	18	11	29	768	93.0	-8388608.0	150425.0	-8388608.0
27	18	11	29	768	94.0	-8388608.0	154508.0	-8388608.0
27	18	11	29	769	95.0	-8388608.0	153319.0	-8388608.0
27	18	11	29	770	96.0	-8388608.0	129530.0	-8388608.0
27	18	11	29	770	97.0	-8388608.0	117210.0	-8388608.0
27	18	11	29	771	98.0	-8388608.0	125124.0	-8388608.0
27	18	11	29	772	99.0	-8388608.0	133573.0	-8388608.0
27	18	11	29	772	100.0	-8388608.0	129128.0	-8388608.0
27	18	11	29	773	101.0	-8388608.0	121880.0	-8388608.0
27	18	11	29	811	102.0	-8388608.0	108378.0	-8388608.0
27	18	11	29	812	103.0	-8388608.0	103476.0	-8388608.0
27	18	11	29	813	104.0	-8388608.0	115693.0	-8388608.0
27	18	11	29	814	105.0	-8388608.0	114356.0	-8388608.0
27	18	11	29	814	106.0	-8388608.0	101499.0	-8388608.0
27	18	11	29	815	107.0	-8388608.0	81661.0	-8388608.0
27	18	11	29	816	108.0	-8388608.0	83029.0	-8388608.0
27	18	11	29	816	109.0	-8388608.0	72465.0	-8388608.0
27	18	11	29	817	110.0	-8388608.0	77932.0	-8388608.0
27	18	11	29	818	111.0	-8388608.0	75194.0	-8388608.0
27	18	11	29	818	112.0	-8388608.0	67757.0	-8388608.0
27	18	11	29	857	113.0	-8388608.0	72572.0	-8388608.0
27	18	11	29	858	114.0	-8388608.0	68874.0	-8388608.0
27	18	11	29	859	115.0	-8388608.0	63106.0	-8388608.0
27	18	11	29	859	116.0	-8269642.0	48839.0	-8388608.0
27	18	11	29	860	117.0	-7744436.0	50752.0	-8388608.0
27	18	11	29	861	118.0	-7548089.0	35918.0	-8281134.0
27	18	11	29	861	119.0	-7210840.0	39735.0	-8028743.0
27	18	11	29	862	120.0	-6083879.0	26143.0	-7304911.0
27	18	11	29	863	121.0	-4421081.0	29350.0	-5643056.0
27	18	11	29	863	122.0	-3462292.0	19499.0	-4654474.0
27	18	11	29	864	123.0	-3771868.0	21994.0	-4918082.0
27	18	11	29	900	124.0	-4238868.0	14744.0	-5337837.0
27	18	11	29	901	125.0	-3676331.0	2855.0	-4737987.0
27	18	11	29	902	126.0	-2498559.0	1006.0	-3524899.0
27	18	11	29	903	127.0	-2077550.0	16684.0	-3089981.0
27	18	11	29	904	128.0	-2805317.0	19891.0	-3812640.0
27	18	11	29	904	129.0	-3351494.0	18151.0	-4339917.0
27	18	11	29	905	130.0	-2588597.0	9698.0	-3564103.0
27	18	11	29	906	131.0	-1034962.0	-2080.0	-1988050.0
27	18	11	29	906	132.0	-297608.0	5182.0	-1244271.0
27	18	11	29	907	133.0	-813701.0	22129.0	-1764445.0
27	18	11	29	908	134.0	-1180674.0	31553.0	-2125226.0
27	18	11	29	945	135.0	-159424.0	30807.0	-1093674.0
27	18	11	29	946	136.0	1612551.0	36510.0	693239.0
27	18	11	29	946	137.0	2388951.0	18458.0	1476244.0
27	18	11	29	947	138.0	1816918.0	38459.0	900671.0
27	18	11	29	948	139.0	1505162.0	57363.0	590572.0
27	18	11	29	948	140.0	2878108.0	61467.0	1987981.0
27	18	11	29	949	141.0	4929836.0	61239.0	4068119.0
27	18	11	29	950	142.0	5711922.0	68144.0	4862401.0
27	18	11	29	950	143.0	5015851.0	67688.0	4169783.0
27	18	11	29	951	144.0	4519633.0	73066.0	3681344.0
27	18	11	29	991	145.0	5440122.0	65575.0	4618484.0
27	18	11	29	991	146.0	6819972.0	80951.0	6022117.0
27	18	11	29	992	147.0	6776778.0	91709.0	5994169.0
27	18	11	29	993	148.0	5173046.0	97191.0	4392354.0
27	18	11	29	994	149.0	3831120.0	107141.0	3040549.0
27	18	11	29	994	150.0	3962251.0	99169.0	3172391.0
27	18	11	29	995	151.0	4587334.0	98626.0	3815000.0
27	18	11	29	995	152.0	3883171.0	108459.0	3127805.0
27	18	11	29	996	153.0	1829196.0	130081.0	1061591.0
27	18	11	29	997	154.0	214924.0	129847.0	-587983.0
27	18	11	29	997	155.0	103228.0	126853.0	-711422.0
27	18	11	29	998	156.0	453133.0	120285.0	-327743.0
27	18	11	29	998	157.0	-303976.0	116687.0	-1041246.0
27	18	11	30	36	158.0	-2078179.0	141198.0	-2829411.0
27	18	11	30	37	159.0	-3326101.0	135842.0	-4078826.0
27	18	11	30	38	160.0	-3183868.0	138439.0	-3926780.0
27	18	11	30	38	161.0	-2536881.0	132247.0	-3274192.0
27	18	11	30	39	162.0	-2884211.0	134371.0	-3623344.0
27	18	11	30	40	163.0	-4198802.0	141158.0	-4928759.0
27	18	11	30	41	164.0	-5006247.0	137161.0	-5739586.0
27	18	11	30	41	165.0	-4561487.0	129823.0	-5274685.0
27	18	11	30	42	166.0	-3739886.0	130348.0	-4431970.0
27	18	11	30	42	167.0	-3925043.0	138306.0	-4592925.0
27	18	11	30	43	168.0	-5024470.0	140231.0	-5710266.0
27	18	11	30	81	169.0	-5641343.0	155472.0	-6354797.0
27	18	11	30	82	170.0	-5013514.0	139249.0	-5719417.0
27	18	11	30	82	171.0	-4057539.0	137531.0	-4753812.0
27	18	11	30	83	172.0	-4136857.0	142194.0	-4838579.0
27	18	11	30	84	173.0	-5101221.0	145644.0	-5824397.0
27	18	11	30	85	174.0	-5527769.0	144333.0	-6252501.0
27	18	11	30	85	175.0	-4707934.0	137622.0	-5406782.0
27	18	11	30	86	176.0	-3561831.0	122791.0	-4245648.0
27	18	11	30	87	177.0	-3441842.0	136047.0	-4140597.0
27	18	11	30	87	178.0	-4236541.0	145378.0	-4950769.0
27	18	11	30	88	179.0	-4412629.0	145583.0	-5141814.0
27	18	11	30	126	180.0	-3292377.0	136754.0	-4012208.0
27	18	11	30	126	181.0	-1951313.0	128558.0	-2661081.0
27	18	11	30	127	182.0	-1804998.0	138118.0	-2510299.0
27	18	11	30	128	183.0	-2515843.0	138884.0	-3243615.0
27	18	11	30	129	184.0	-2602759.0	137415.0	-3364716.0
27	18	11	30	129	185.0	-1396454.0	133960.0	-2154106.0
27	18	11	30	130	186.0	-77059.0	130824.0	-798101.0
27	18	11	30	131	187.0	-76184.0	115324.0	-791365.0
27	18	11	30	131	188.0	-1078062.0	134462.0	-1827089.0
27	18	11	30	132	189.0	-1420333.0	140893.0	-2184084.0
27	18	11	30	133	190.0	-360153.0	143022.0	-1128842.0
27	18	11	30	133	191.0	797933.0	132684.0	27834.0
27	18	11	30	171	192.0	571295.0	146831.0	-218084.0
27	18	11	30	172	193.0	-637321.0	141195.0	-1431941.0
27	18	11	30	173	194.0	-1052266.0	139473.0	-1847402.0
27	18	11	30	174	195.0	-39327.0	142138.0	-815914.0
27	18	11	30	175	196.0	1023709.0	131455.0	258150.0
27	18	11	30	175	197.0	658194.0	138524.0	-91023.0
27	18	11	30	176	198.0	-576513.0	145414.0	-1319196.0
27	18	11	30	177	199.0	-915329.0	148279.0	-1644308.0
27	18	11	30	177	200.0	239777.0	134933.0	-462159.0
27	18	11	30	178	201.0	1419661.0	140300.0	744303.0
27	18	11	30	178	202.0	1152710.0	132633.0	464391.0
27	18	11	30	215	203.0	59111.0	148164.0	-666015.0
27	18	11	30	216	204.0	-129446.0	149249.0	-857694.0
27	18	11	30	217	205.0	1097532.0	136351.0	401059.0
27	18	11	30	218	206.0	2257453.0	118151.0	1606464.0
27	18	11	30	218	207.0	1987447.0	127980.0	1351533.0
27	18	11	30	219	208.0	935926.0	153146.0	287293.0
27	18	11	30	220	209.0	871776.0	148454.0	219425.0
27	18	11	30	220	210.0	2244103.0	144293.0	1610656.0
27	18	11	30	221	211.0	3447390.0	132243.0	2838929.0
27	18	11	30	222	212.0	3067458.0	139320.0	2462258.0
27	18	11	30	222	213.0	1911642.0	143167.0	1307728.0
27	18	11	30	260	214.0	1842717.0	158071.0	1255290.0
27	18	11	30	261	215.0	3199748.0	144288.0	2640613.0
27	18	11	30	261	216.0	4342997.0	138923.0	3802198.0
27	18	11	30	262	217.0	3865916.0	140023.0	3306956.0
27	18	11	30	263	218.0	2628646.0	150808.0	2033502.0
27	18	11	30	264	219.0	2494443.0	149377.0	1886556.0
27	18	11	30	264	220.0	3725119.0	145835.0	3129565.0
27	18	11	30	265	221.0	4567601.0	132256.0	3989348.0
27	18	11	30	266	222.0	3771862.0	140623.0	3198284.0
27	18	11	30	266	223.0	2292247.0	153930.0	1703611.0
27	18	11	30	267	224.0	1934551.0	151958.0	1330620.0
27	18	11	30	306	225.0	2920056.0	150636.0	2332871.0
27	18	11	30	307	226.0	3558066.0	148060.0	2991431.0
27	18	11	30	307	227.0	2594725.0	161353.0	2026861.0
27	18	11	30	308	228.0	1051358.0	154494.0	472303.0
27	18	11	30	309	229.0	726333.0	159384.0	155076.0
27	18	11	30	310	230.0	1735406.0	160232.0	1188919.0
27	18	11	30	310	231.0	2370238.0	160623.0	1837941.0
27	18	11	30	311	232.0	1522965.0	159234.0	976216.0
27	18	11	30	312	233.0	195609.0	166219.0	-360106.0
27	18	11	30	312	234.0	114108.0	158148.0	-437389.0
27	18	11	30	313	235.0	1291163.0	159073.0	762607.0
27	18	11	30	352	236.0	2044519.0	170906.0	1537021.0
27	18	11	30	353	237.0	1267704.0	173785.0	757874.0
27	18	11	30	353	238.0	93338.0	170991.0	-420174.0
27	18	11	30	354	239.0	215218.0	159136.0	-297818.0
27	18	11	30	355	240.0	1588386.0	145810.0	1077813.0
27	18	11	30	355	241.0	2448334.0	131831.0	1947644.0
27	18	11	30	356	242.0	1770188.0	157835.0	1267649.0
27	18	11	30	356	243.0	703216.0	164296.0	190887.0
27	18	11	30	357	244.0	940315.0	165183.0	424765.0
27	18	11	30	358	245.0	2374682.0	152876.0	1863845.0
27	18	11	30	358	246.0	3221989.0	147833.0	2717070.0
27	18	11	30	359	247.0	2492684.0	145950.0	1959346.0
27	18	11	30	395	248.0	1410053.0	167029.0	862740.0
27	18	11	30	396	249.0	1649654.0	165911.0	1115561.0
27	18	11	30	397	250.0	3074141.0	155339.0	2546783.0
27	18	11	30	398	251.0	3796398.0	150671.0	3272841.0
27	18	11	30	398	252.0	2930153.0	137678.0	2391275.0
27	18	11	30	399	253.0	1801381.0	158714.0	1251493.0
27	18	11	30	400	254.0	2037766.0	156208.0	1499006.0
27	18	11	30	400	255.0	3383646.0	140687.0	2875091.0
27	18	11	30	401	0.0	3997583.0	102941.0	3501666.0
27	18	11	30	402	1.0	3044115.0	85791.0	2527306.0
27	18	11	30	402	2.0	1832624.0	64049.0	1297304.0
27	18	11	30	441	3.0	2044777.0	107661.0	1520350.0
27	18	11	30	442	4.0	3371343.0	200243.0	2877089.0
27	18	11	30	456	5.0	3920386.0	316686.0	3428485.0
27	18	11	30	456	6.0	2837908.0	389723.0	2320082.0
27	18	11	30	457	7.0	1603853.0	476622.0	1057104.0
27	18	11	30	458	8.0	1759897.0	502001.0	1219028.0
27	18	11	30	458	9.0	2873995.0	445173.0	2353982.0
27	18	11	30	459	10.0	3153569.0	366676.0	2632106.0
27	18	11	30	459	11.0	1956441.0	368181.0	1408506.0
27	18	11	30	460	12.0	708463.0	309598.0	144447.0
27	18	11	30	461	13.0	909780.0	208228.0	340866.0
27	18	11	30	485	14.0	2142704.0	162672.0	1591742.0
27	18	11	30	486	15.0	2605528.0	135767.0	2040136.0
27	18	11	30	487	16.0	1651398.0	151807.0	1050303.0
27	18	11	30	506	17.0	721206.0	156371.0	95596.0
27	18	11	30	507	18.0	1218894.0	145684.0	594240.0
27	18	11	30	508	19.0	2622959.0	129942.0	2013844.0
27	18	11	30	508	20.0	3128044.0	133665.0	2528898.0
27	18	11	30	509	21.0	2145290.0	128042.0	1534046.0
27	18	11	30	510	22.0	1200723.0	124069.0	579054.0
27	18	11	30	510	23.0	1764403.0	128861.0	1164900.0
27	18	11	30	511	24.0	3196078.0	122383.0	2626407.0
27	18	11	30	532	25.0	3608351.0	124513.0	3033982.0
27	18	11	30	575	26.0	2527981.0	130025.0	1961671.0
27	18	11	30	576	27.0	1569823.0	138226.0	1007060.0
27	18	11	30	577	28.0	2136771.0	126026.0	1563286.0
27	18	11	30	578	29.0	3569144.0	114248.0	3000176.0
27	18	11	30	579	30.0	4009773.0	100394.0	3452026.0
27	18	11	30	580	31.0	3012312.0	113830.0	2448802.0
27	18	11	30	581	32.0	2170589.0	110981.0	1595440.0
27	18	11	30	582	33.0	2828881.0	119678.0	2260614.0
27	18	11	30	583	34.0	4221607.0	106738.0	3678644.0
27	18	11	30	583	35.0	4462999.0	100455.0	3925138.0
27	18	11	30	584	36.0	3269023.0	97890.0	2709104.0
27	18	11	30	585	37.0	2327334.0	100272.0	1746811.0
27	18	11	30	586	38.0	2970663.0	94565.0	2375793.0
27	18	11	30	586	39.0	4331988.0	100568.0	3757754.0
27	18	11	30	587	40.0	4595424.0	95358.0	4043078.0
27	18	11	30	588	46.0	4772309.0	76436.0	4249019.0
27	18	11	30	588	47.0	4387321.0	69751.0	3854984.0
27	18	11	30	589	48.0	5587230.0	68615.0	5088704.0
27	18	11	30	620	49.0	7088276.0	46399.0	6912998.0
27	18	11	30	621	50.0	7522304.0	43661.0	7456654.0
27	18	11	30	621	51.0	7085294.0	49356.0	6625059.0
27	18	11	30	622	52.0	6754229.0	41091.0	6200978.0
27	18	11	30	623	53.0	7734910.0	28694.0	7146134.0
27	18	11	30	624	54.0	8388607.0	12926.0	8083995.0
27	18	11	30	625	55.0	8381323.0	26763.0	8388607.0
27	18	11	30	625	56.0	7659098.0	26586.0	7557359.0
27	18	11	30	626	57.0	7225041.0	32582.0	6780391.0
27	18	11	30	626	58.0	7834711.0	21554.0	7626993.0
27	18	11	30	665	59.0	8388607.0	12198.0	8388607.0
27	18	11	30	666	60.0	8388607.0	4748.0	8221962.0
27	18	11	30	666	61.0	7916783.0	21947.0	7305099.0
27	18	11	30	667	62.0	7022383.0	26351.0	6561149.0
27	18	11	30	668	63.0	7350195.0	25173.0	7106616.0
27	18	11	30	669	64.0	8040356.0	21045.0	8054009.0
27	18	11	30	669	65.0	7956567.0	32828.0	7645019.0
27	18	11	30	670	66.0	6643167.0	39029.0	6152181.0
27	18	11	30	670	67.0	5832429.0	38742.0	5353352.0
27	18	11	30	671	68.0	6489679.0	48916.0	6157264.0
27	18	11	30	672	69.0	7427733.0	36489.0	7372920.0
27	18	11	30	711	70.0	7619288.0	50559.0	7349291.0
27	18	11	30	711	71.0	6585947.0	64353.0	6148041.0
27	18	11	30	712	72.0	6017146.0	71084.0	5602608.0
27	18	11	30	713	73.0	6782768.0	70766.0	6501543.0
27	18	11	30	714	74.0	7608876.0	77464.0	7652298.0
27	18	11	30	714	75.0	7685091.0	63013.0	7678937.0
27	18	11	30	715	76.0	6796537.0	87438.0	6446043.0
27	18	11	30	716	77.0	6222749.0	103532.0	5845071.0
27	18	11	30	716	78.0	6910545.0	116718.0	6626623.0
27	18	11	30	717	79.0	7605344.0	107125.0	7557934.0
27	18	11	30	717	80.0	7557854.0	111611.0	7505701.0
27	18	11	30	756	81.0	6552681.0	119142.0	6235226.0
27	18	11	30	757	82.0	5951756.0	121073.0	5634188.0
27	18	11	30	758	83.0	6723032.0	127724.0	6443871.0
27	18	11	30	758	84.0	7345531.0	126711.0	7166374.0
27	18	11	30	759	85.0	6963455.0	123411.0	6861932.0
27	18	11	30	760	86.0	5758385.0	136041.0	5531066.0
27	18	11	30	761	87.0	5079815.0	144918.0	4856243.0
27	18	11	30	761	88.0	5767646.0	140577.0	5585103.0
27	18	11	30	762	89.0	6492789.0	140811.0	6346716.0
27	18	11	30	763	90.0	5963369.0	127514.0	5831068.0
27	18	11	30	763	91.0	4581038.0	146688.0	4436016.0
27	18	11	30	764	92.0	3900930.0	146932.0	3771270.0
27	18	11	30	801	93.0	4574905.0	153145.0	4481228.0
27	18	11	30	802	94.0	5270046.0	148355.0	5224894.0
27	18	11	30	803	95.0	4690981.0	143911.0	4682644.0
27	18	11	30	803	96.0	3418731.0	149326.0	3411475.0
27	18	11	30	805	97.0	3008984.0	139216.0	2992836.0
27	18	11	30	806	98.0	3931517.0	136341.0	3923601.0
27	18	11	30	807	99.0	4770280.0	138871.0	4780276.0
27	18	11	30	809	100.0	4368319.0	148760.0	4388556.0
27	18	11	30	809	101.0	3266076.0	146514.0	3300124.0
27	18	11	30	810	102.0	3003321.0	146189.0	3054757.0
27	18	11	30	811	103.0	3971679.0	124282.0	4043431.0
27	18	11	30	846	104.0	4841575.0	131774.0	4918449.0
27	18	11	30	847	105.0	4457239.0	151391.0	4536993.0
27	18	11	30	848	106.0	3396142.0	150728.0	3459444.0
27	18	11	30	848	107.0	3104793.0	150898.0	3162523.0
27	18	11	30	849	108.0	3973568.0	137664.0	4048146.0
27	18	11	30	850	109.0	4631254.0	130257.0	4737964.0
27	18	11	30	851	110.0	4054864.0	131195.0	4169011.0
27	18	11	30	851	111.0	2938422.0	153212.0	3054180.0
27	18	11	30	852	112.0	2674656.0	151514.0	2805306.0
27	18	11	30	852	113.0	3539118.0	153253.0	3685206.0
27	18	11	30	853	114.0	4269122.0	145495.0	4437712.0
27	18	11	30	906	115.0	3863171.0	148239.0	4050073.0
27	18	11	30	920	116.0	2979213.0	137524.0	3163498.0
27	18	11	30	921	117.0	2987237.0	140621.0	3180764.0
27	18	11	30	921	118.0	4039796.0	145278.0	4250668.0
27	18	11	30	922	119.0	4827436.0	152269.0	5054194.0
27	18	11	30	923	120.0	4467863.0	141378.0	4712916.0
27	18	11	30	923	121.0	3645037.0	149218.0	3883060.0
27	18	11	30	924	122.0	3612342.0	148225.0	3856211.0
27	18	11	30	925	123.0	4460586.0	144707.0	4744023.0
27	18	11	30	925	124.0	4990521.0	144964.0	5304383.0
27	18	11	30	926	125.0	4398287.0	148476.0	4721031.0
27	18	11	30	927	126.0	3437064.0	145318.0	3754659.0
27	18	11	30	927	127.0	3233346.0	151361.0	3554019.0
27	18	11	30	928	128.0	3771316.0	152015.0	4098732.0
27	18	11	30	929	129.0	3947678.0	140817.0	4288610.0
27	18	11	30	929	130.0	3070061.0	158691.0	3417755.0
27	18	11	30	930	132.0	1745759.0	166259.0	2093609.0
27	18	11	30	931	133.0	2343574.0	157734.0	2721271.0
27	18	11	30	932	134.0	2625958.0	166648.0	3006556.0
27	18	11	30	940	135.0	1980868.0	167122.0	2329850.0
27	18	11	30	958	136.0	1114546.0	174205.0	1437960.0
27	18	11	30	958	137.0	1153898.0	169913.0	1479530.0
27	18	11	30	959	138.0	2086856.0	160870.0	2411211.0
27	18	11	30	960	139.0	2742784.0	158401.0	3068722.0
27	18	11	30	983	140.0	2526112.0	167351.0	2839787.0
27	18	11	30	983	141.0	2158211.0	176335.0	2478948.0
27	18	11	30	984	142.0	2635069.0	165911.0	2972788.0
27	18	11	30	984	143.0	3845058.0	158045.0	4203893.0
27	18	11	30	985	144.0	4651641.0	151788.0	5046386.0
27	18	11	30	985	145.0	4503930.0	164818.0	4914559.0
27	18	11	30	986	146.0	4082176.0	174236.0	4493005.0
27	18	11	30	987	147.0	4391361.0	179353.0	4809271.0
27	18	11	31	0	148.0	5311972.0	170694.0	5765991.0
27	18	11	31	1	149.0	5744431.0	171818.0	6212159.0
27	18	11	31	2	150.0	5252759.0	174971.0	5733946.0
27	18	11	31	19	151.0	4684233.0	168191.0	5176089.0
27	18	11	31	20	152.0	4906123.0	172684.0	5399464.0
27	18	11	31	20	153.0	5517078.0	165574.0	6024349.0
27	18	11	31	21	154.0	5480432.0	158496.0	5992194.0
27	18	11	31	37	155.0	4516697.0	161559.0	5019251.0
27	18	11	31	37	156.0	3430968.0	170939.0	3918066.0
27	18	11	31	38	157.0	3148989.0	160029.0	3624056.0
27	18	11	31	39	158.0	3341254.0	171470.0	3812976.0
27	18	11	31	39	159.0	3043336.0	178778.0	3497251.0
27	18	11	31	40	160.0	2024319.0	182375.0	2456533.0
27	18	11	31	40	161.0	994654.0	182266.0	1421491.0
27	18	11	31	55	162.0	693176.0	171910.0	1138327.0
27	18	11	31	56	163.0	828380.0	167251.0	1294833.0
27	18	11	31	56	164.0	510942.0	171396.0	991414.0
27	18	11	31	57	165.0	-549351.0	179988.0	-69631.0
27	18	11	31	73	166.0	-1714440.0	185006.0	-1231806.0
27	18	11	31	73	167.0	-2022727.0	189016.0	-1530296.0
27	18	11	31	74	168.0	-1882417.0	180399.0	-1375288.0
27	18	11	31	74	169.0	-2164238.0	153185.0	-1645743.0
27	18	11	31	92	170.0	-3037922.0	112446.0	-2526314.0
27	18	11	31	92	171.0	-3915425.0	106163.0	-3421679.0
27	18	11	31	93	172.0	-4252434.0	98303.0	-3752271.0
27	18	11	31	93	173.0	-4173524.0	191699.0	-3656894.0
27	18	11	31	116	174.0	-4357914.0	331157.0	-3840491.0
27	18	11	31	116	175.0	-5008429.0	430194.0	-4514482.0
27	18	11	31	117	176.0	-5687028.0	498414.0	-5216560.0
27	18	11	31	117	177.0	-5879762.0	583656.0	-5418981.0
27	18	11	31	118	178.0	-5810214.0	575318.0	-5333194.0
27	18	11	31	119	179.0	-6047721.0	493332.0	-5558634.0
27	18	11	31	119	180.0	-6664867.0	417428.0	-6190836.0
27	18	11	31	133	181.0	-7146941.0	387376.0	-6689787.0
27	18	11	31	134	182.0	-7086849.0	287711.0	-6710166.0
27	18	11	31	135	183.0	-6859421.0	193704.0	-6575338.0
27	18	11	31	135	184.0	-7005698.0	164400.0	-6680751.0
27	18	11	31	152	185.0	-7555463.0	165021.0	-7031079.0
27	18	11	31	153	186.0	-8002559.0	165039.0	-7488524.0
27	18	11	31	153	187.0	-7908081.0	155863.0	-7445735.0
27	18	11	31	154	188.0	-7472609.0	144695.0	-7083797.0
27	18	11	31	171	189.0	-7267044.0	140436.0	-7171694.0
27	18	11	31	172	190.0	-7446017.0	142751.0	-7383151.0
27	18	11	31	172	191.0	-7783434.0	138028.0	-7471632.0
27	18	11	31	190	192.0	-7967839.0	135954.0	-7621387.0
27	18	11	31	190	193.0	-7860554.0	135373.0	-7402424.0
27	18	11	31	191	194.0	-7828246.0	128758.0	-7400753.0
27	18	11	31	191	195.0	-7885542.0	129390.0	-7931818.0
27	18	11	31	192	196.0	-7959840.0	141014.0	-7984152.0
27	18	11	31	193	197.0	-8103243.0	138391.0	-7998587.0
27	18	11	31	193	198.0	-8388608.0	135739.0	-8379442.0
27	18	11	31	194	199.0	-8388608.0	136889.0	-8294342.0
27	18	11	31	209	200.0	-8388608.0	130476.0	-8388608.0
27	18	11	31	209	201.0	-8388608.0	128235.0	-8388608.0
27	18	11	31	210	202.0	-8388608.0	130573.0	-8388608.0
27	18	11	31	211	203.0	-8388608.0	120494.0	-8388608.0
27	18	11	31	233	204.0	-8388608.0	127240.0	-8388608.0
27	18	11	31	233	205.0	-8388608.0	134591.0	-8388608.0
27	18	11	31	234	206.0	-8388608.0	128684.0	-8388608.0
27	18	11	31	235	207.0	-8388608.0	122283.0	-8388608.0
27	18	11	31	235	208.0	-8388608.0	120609.0	-8388608.0
27	18	11	31	236	209.0	-8388608.0	114165.0	-8388608.0
27	18	11	31	236	210.0	-8388608.0	122286.0	-8388608.0
27	18	11	31	251	211.0	-8388608.0	130393.0	-8388608.0
27	18	11	31	252	212.0	-8388608.0	132142.0	-8388608.0
27	18	11	31	252	213.0	-8388608.0	129396.0	-8388608.0
27	18	11	31	253	214.0	-8388608.0	125971.0	-8388608.0
27	18	11	31	270	215.0	-8388608.0	130181.0	-8388608.0
27	18	11	31	270	216.0	-8388608.0	136771.0	-8388608.0
27	18	11	31	271	217.0	-8388608.0	135761.0	-8388608.0
27	18	11	31	272	218.0	-8388608.0	135504.0	-8388608.0
27	18	11	31	289	219.0	-8388608.0	131211.0	-8388608.0
27	18	11	31	289	220.0	-8388608.0	133546.0	-8388608.0
27	18	11	31	290	221.0	-8388608.0	135003.0	-8388608.0
27	18	11	31	316	222.0	-8388608.0	140860.0	-8388608.0
27	18	11	31	316	223.0	-8388608.0	142209.0	-8388608.0
27	18	11	31	317	224.0	-8388608.0	139628.0	-8388608.0
27	18	11	31	317	225.0	-8388608.0	144408.0	-8388608.0
27	18	11	31	318	226.0	-8388608.0	145183.0	-8388608.0
27	18	11	31	319	227.0	-8388608.0	147785.0	-8388608.0
27	18	11	31	319	228.0	-8388608.0	140428.0	-8388608.0
27	18	11	31	320	229.0	-8388608.0	145558.0	-8388608.0
27	18	11	31	334	230.0	-8388608.0	150435.0	-8388608.0
27	18	11	31	335	231.0	-8388608.0	158500.0	-8388608.0
27	18	11	31	335	232.0	-8388608.0	156369.0	-8388608.0
27	18	11	31	336	233.0	-8388608.0	157008.0	-8388608.0
27	18	11	31	353	234.0	-8388608.0	165548.0	-8388608.0
27	18	11	31	354	235.0	-8388608.0	176876.0	-8388608.0
27	18	11	31	355	236.0	-8388608.0	183959.0	-8388608.0
27	18	11	31	355	237.0	-8388608.0	187523.0	-8388608.0
27	18	11	31	356	238.0	-8388608.0	197416.0	-8388608.0
27	18	11	31	357	239.0	-8388608.0	201798.0	-8388608.0
27	18	11	31	357	240.0	-8388608.0	213964.0	-8388608.0
27	18	11	31	372	241.0	-8388608.0	225779.0	-8388608.0
27	18	11	31	373	242.0	-8388608.0	231802.0	-8388608.0
27	18	11	31	373	243.0	-8388608.0	241516.0	-8388608.0
27	18	11	31	374	244.0	-8388608.0	258289.0	-8388608.0
27	18	11	31	398	245.0	-8388608.0	276376.0	-8388608.0
27	18	11	31	399	246.0	-8388608.0	286464.0	-8388608.0
27	18	11	31	399	247.0	-8388608.0	289344.0	-8388608.0
27	18	11	31	400	248.0	-8388608.0	294831.0	-8388608.0
27	18	11	31	400	249.0	-8388608.0	304277.0	-8388608.0
27	18	11	31	401	250.0	-8388608.0	310434.0	-8388608.0
27	18	11	31	402	251.0	-8388608.0	306501.0	-8388608.0
27	18	11	31	416	252.0	-8388608.0	309728.0	-8388608.0
27	18	11	31	417	253.0	-8388608.0	323348.0	-8388608.0
27	18	11	31	417	254.0	-8388608.0	322454.0	-8388608.0
27	18	11	31	418	255.0	-8388608.0	317988.0	-8388608.0
27	18	11	31	434	0.0	-8388608.0	301345.0	-8388608.0
27	18	11	31	435	1.0	-8388608.0	290889.0	-8388608.0
27	18	11	31	436	2.0	-8388608.0	288601.0	-8388608.0
27	18	11	31	436	3.0	-8388608.0	297529.0	-8388608.0
27	18	11	31	453	4.0	-8388608.0	294479.0	-8388608.0
27	18	11	31	454	5.0	-8388608.0	292759.0	-8388608.0
27	18	11	31	473	6.0	-8388608.0	273978.0	-8388608.0
27	18	11	31	474	7.0	-8388608.0	256019.0	-8388608.0
27	18	11	31	474	8.0	-8388608.0	248796.0	-8388608.0
27	18	11	31	475	9.0	-8388608.0	246178.0	-8388608.0
27	18	11	31	475	10.0	-8388608.0	238156.0	-8388608.0
27	18	11	31	476	11.0	-8388608.0	219396.0	-8388608.0
27	18	11	31	477	12.0	-8388608.0	200569.0	-8388608.0
27	18	11	31	477	13.0	-8388608.0	184656.0	-8388608.0
27	18	11	31	478	14.0	-8388608.0	175819.0	-8388608.0
27	18	11	31	497	15.0	-8388608.0	167553.0	-8388608.0
27	18	11	31	515	16.0	-8388608.0	133881.0	-8388608.0
27	18	11	31	515	17.0	-8388608.0	121919.0	-8388608.0
27	18	11	31	516	18.0	-8388608.0	127331.0	-8388608.0
27	18	11	31	517	19.0	-8388608.0	118956.0	-8388608.0
27	18	11	31	517	20.0	-8388608.0	103849.0	-8388608.0
27	18	11	31	518	21.0	-8388608.0	84298.0	-8388608.0
27	18	11	31	518	22.0	-8388608.0	71740.0	-8388608.0
27	18	11	31	519	23.0	-8388608.0	71907.0	-8388608.0
27	18	11	31	533	24.0	-8388608.0	70278.0	-8388608.0
27	18	11	31	534	25.0	-8316264.0	57865.0	-8386868.0
27	18	11	31	552	26.0	-7360851.0	42859.0	-7766839.0
27	18	11	31	553	27.0	-6540603.0	38527.0	-6698976.0
27	18	11	31	554	28.0	-5929542.0	38006.0	-5909097.0
27	18	11	31	554	29.0	-5317889.0	37746.0	-5273374.0
27	18	11	31	555	30.0	-4276416.0	34111.0	-4206806.0
27	18	11	31	555	31.0	-2881352.0	18441.0	-2775891.0
27	18	11	31	556	32.0	-1666886.0	8659.0	-1509478.0
27	18	11	31	556	33.0	-979247.0	13961.0	-774294.0
27	18	11	31	571	34.0	-497701.0	19971.0	-247812.0
27	18	11	31	572	35.0	296308.0	15120.0	585941.0
27	18	11	31	572	36.0	1531008.0	5557.0	1847866.0
27	18	11	31	597	37.0	2736433.0	-7019.0	3080604.0
27	18	11	31	597	38.0	3446560.0	-9986.0	3797515.0
27	18	11	31	598	39.0	4035701.0	-16158.0	4384243.0
27	18	11	31	598	40.0	5245718.0	-12845.0	5586989.0
27	18	11	31	599	41.0	7096645.0	-18873.0	7206985.0
27	18	11	31	600	42.0	8330374.0	-33726.0	8388607.0
27	18	11	31	600	43.0	8388607.0	-39044.0	8388607.0
27	18	11	31	601	44.0	8388607.0	-31713.0	8388607.0
27	18	11	31	616	45.0	8388607.0	-46540.0	8388607.0
27	18	11	31	617	46.0	8388607.0	-51023.0	8388607.0
27	18	11	31	617	47.0	8388607.0	-60416.0	8388607.0
27	18	11	31	618	48.0	8388607.0	-72153.0	8388607.0
27	18	11	31	637	49.0	8388607.0	-76700.0	8388607.0
27	18	11	31	638	50.0	8388607.0	-68013.0	8388607.0
27	18	11	31	639	51.0	8388607.0	-68466.0	8388607.0
27	18	11	31	639	52.0	8388607.0	-76976.0	8388607.0
27	18	11	31	640	53.0	8388607.0	-86073.0	8388607.0
27	18	11	31	640	54.0	8388607.0	-82946.0	8388607.0
27	18	11	31	641	55.0	8388607.0	-91402.0	8388607.0
27	18	11	31	658	56.0	8388607.0	-93781.0	8388607.0
27	18	11	31	658	57.0	8388607.0	-87544.0	8388607.0
27	18	11	31	659	58.0	8388607.0	-82010.0	8388607.0
27	18	11	31	659	59.0	8388607.0	-78016.0	8388607.0
27	18	11	31	679	60.0	8388607.0	-74897.0	8388607.0
27	18	11	31	680	61.0	8388607.0	-86076.0	8388607.0
27	18	11	31	680	62.0	8388607.0	-84189.0	8388607.0
27	18	11	31	681	63.0	8388607.0	-68352.0	8388607.0
27	18	11	31	698	64.0	8388607.0	-58471.0	8388607.0
27	18	11	31	699	65.0	8388607.0	-58406.0	8388607.0
27	18	11	31	700	66.0	8388607.0	-57701.0	8388607.0
27	18	11	31	700	67.0	8388607.0	-54434.0	8388607.0
27	18	11	31	718	68.0	8228286.0	-52891.0	8388607.0
27	18	11	31	718	69.0	7066484.0	-49484.0	7840186.0
27	18	11	31	719	70.0	6141773.0	-53619.0	7029031.0
27	18	11	31	719	71.0	5759121.0	-46989.0	6622093.0
27	18	11	31	720	72.0	5039103.0	-43973.0	5869569.0
27	18	11	31	721	73.0	3655958.0	-45756.0	4454191.0
27	18	11	31	721	74.0	2308049.0	-43796.0	3075939.0
27	18	11	31	738	75.0	1638113.0	-39092.0	2384436.0
27	18	11	31	738	76.0	1390929.0	-33803.0	2122378.0
27	18	11	31	739	77.0	805127.0	-24322.0	1523006.0
27	18	11	31	739	78.0	-314334.0	-20691.0	382821.0
27	18	11	31	764	79.0	-1385016.0	-19779.0	-714984.0
27	18	11	31	764	80.0	-1947492.0	-19429.0	-1304417.0
27	18	11	31	765	81.0	-2206416.0	-29755.0	-1582476.0
27	18	11	31	766	82.0	-2746501.0	-36734.0	-2125641.0
27	18	11	31	766	83.0	-3693417.0	-31476.0	-3079126.0
27	18	11	31	767	84.0	-4576946.0	-31316.0	-3966062.0
27	18	11	31	767	85.0	-4896716.0	-27247.0	-4286857.0
27	18	11	31	788	86.0	-4838507.0	-21827.0	-4236569.0
27	18	11	31	788	87.0	-5071460.0	-27524.0	-4489484.0
27	18	11	31	789	88.0	-5767389.0	-36637.0	-5199811.0
27	18	11	31	790	89.0	-6386246.0	-37112.0	-5826029.0
27	18	11	31	790	90.0	-6460094.0	-31764.0	-5910815.0
27	18	11	31	791	91.0	-6248071.0	-22378.0	-5708376.0
27	18	11	31	791	92.0	-6441712.0	-27972.0	-5881071.0
27	18	11	31	792	93.0	-7091774.0	-26636.0	-6534711.0
27	18	11	31	811	94.0	-7657897.0	-30577.0	-7062668.0
27	18	11	31	812	95.0	-7674670.0	-41607.0	-7165614.0
27	18	11	31	812	96.0	-7257800.0	-40939.0	-6845422.0
27	18	11	31	832	97.0	-7024557.0	-32352.0	-6753953.0
27	18	11	31	833	98.0	-7266111.0	-36484.0	-7102160.0
27	18	11	31	834	99.0	-7379068.0	-56629.0	-7007257.0
27	18	11	31	834	100.0	-6536642.0	-97349.0	-6021794.0
27	18	11	31	835	101.0	-4906731.0	-136399.0	-4381426.0
27	18	11	31	853	102.0	-3339004.0	-143021.0	-2796944.0
27	18	11	31	853	103.0	-2069956.0	-67678.0	-1531289.0
27	18	11	31	854	104.0	-596401.0	25174.0	-48501.0
27	18	11	31	855	105.0	1542892.0	90554.0	2108408.0
27	18	11	31	855	106.0	3977189.0	147830.0	4567457.0
27	18	11	31	856	107.0	5619482.0	214599.0	6200231.0
27	18	11	31	877	108.0	6181835.0	195122.0	6815058.0
27	18	11	31	877	109.0	6490250.0	121678.0	7092383.0
27	18	11	31	878	110.0	7330014.0	53739.0	7632899.0
27	18	11	31	878	111.0	8246188.0	34963.0	8388607.0
27	18	11	31	898	112.0	8335241.0	-45356.0	8388607.0
27	18	11	31	898	113.0	7608936.0	-96830.0	7981956.0
27	18	11	31	899	114.0	7168501.0	-115136.0	8007271.0
27	18	11	31	899	115.0	7538550.0	-122292.0	8308353.0
27	18	11	31	900	116.0	8194241.0	-129747.0	8388607.0
27	18	11	31	900	117.0	8388607.0	-142182.0	8388607.0
27	18	11	31	901	118.0	8388607.0	-155569.0	8388607.0
27	18	11	31	902	119.0	8388607.0	-148923.0	8388607.0
27	18	11	31	919	120.0	8388607.0	-146909.0	8388607.0
27	18	11	31	919	121.0	8388607.0	-144557.0	8388607.0
27	18	11	31	920	122.0	8388607.0	-153421.0	8388607.0
27	18	11	31	939	123.0	8388607.0	-158434.0	8388607.0
27	18	11	31	940	124.0	8388607.0	-169620.0	8388607.0
27	18	11	31	941	125.0	8388607.0	-175746.0	8388607.0
27	18	11	31	941	126.0	8388607.0	-175402.0	8388607.0
27	18	11	31	942	127.0	8388607.0	-164481.0	8388607.0
27	18	11	31	942	128.0	8388607.0	-160762.0	8388607.0
27	18	11	31	943	129.0	8388607.0	-168706.0	8388607.0
27	18	11	31	943	130.0	8388607.0	-179641.0	8388607.0
27	18	11	31	962	131.0	8388607.0	-192602.0	8388607.0
27	18	11	31	963	132.0	8388607.0	-191111.0	8388607.0
27	18	11	31	963	133.0	8388607.0	-177625.0	8388607.0
27	18	11	31	964	134.0	8388607.0	-179209.0	8388607.0
27	18	11	31	982	135.0	8388607.0	-186344.0	8388607.0
27	18	11	31	983	136.0	8388607.0	-196090.0	8388607.0
27	18	11	31	983	137.0	8388607.0	-204366.0	8388607.0
27	18	11	32	2	138.0	8388607.0	-213309.0	8388607.0
27	18	11	32	2	139.0	8388607.0	-208411.0	8388607.0
27	18	11	32	3	140.0	8388607.0	-208025.0	8388607.0
27	18	11	32	3	141.0	8388607.0	-212122.0	8388607.0
27	18	11	32	4	142.0	8388607.0	-218942.0	8388607.0
27	18	11	32	4	143.0	8388607.0	-222242.0	8388607.0
27	18	11	32	5	144.0	8388607.0	-236822.0	8388607.0
27	18	11	32	6	145.0	8388607.0	-244607.0	8388607.0
27	18	11	32	26	146.0	8388607.0	-246490.0	8388607.0
27	18	11	32	27	147.0	8388607.0	-240227.0	8388607.0
27	18	11	32	28	148.0	8388607.0	-239877.0	8388607.0
27	18	11	32	28	149.0	8388607.0	-241424.0	8388607.0
27	18	11	32	29	150.0	8388607.0	-253446.0	8388607.0
27	18	11	32	30	151.0	8388607.0	-265656.0	8388607.0
27	18	11	32	30	152.0	8388607.0	-270137.0	8388607.0
27	18	11	32	46	153.0	8388607.0	-261228.0	8388607.0
27	18	11	32	47	154.0	8388607.0	-254438.0	8388607.0
27	18	11	32	47	155.0	8388607.0	-264028.0	8388607.0
27	18	11	32	48	156.0	8388607.0	-276539.0	8388607.0
27	18	11	32	65	157.0	8388607.0	-284742.0	8388607.0
27	18	11	32	66	158.0	8388607.0	-293706.0	8388607.0
27	18	11	32	67	159.0	8388607.0	-286686.0	8388607.0
27	18	11	32	67	160.0	8388607.0	-278169.0	8388607.0
27	18	11	32	86	161.0	8388607.0	-278121.0	8388607.0
27	18	11	32	86	162.0	8388607.0	-278757.0	8388607.0
27	18	11	32	87	163.0	8388607.0	-285931.0	8388607.0
27	18	11	32	88	164.0	8388607.0	-299536.0	8388607.0
27	18	11	32	110	165.0	8388607.0	-298691.0	8388607.0
27	18	11	32	111	166.0	8388607.0	-284381.0	8388607.0
27	18	11	32	111	167.0	8388607.0	-269484.0	8388607.0
27	18	11	32	112	168.0	8388607.0	-258666.0	8388607.0
27	18	11	32	112	169.0	7914730.0	-253848.0	8388607.0
27	18	11	32	113	170.0	7371098.0	-252761.0	7907590.0
27	18	11	32	114	171.0	6676304.0	-244736.0	7245322.0
27	18	11	32	130	172.0	5323658.0	-230054.0	5838652.0
27	18	11	32	130	173.0	3853657.0	-220787.0	4316218.0
27	18	11	32	131	174.0	3270056.0	-208091.0	3678725.0
27	18	11	32	132	175.0	3659149.0	-208588.0	4065746.0
27	18	11	32	149	176.0	4033748.0	-204737.0	4446775.0
27	18	11	32	150	177.0	3836114.0	-192482.0	4241811.0
27	18	11	32	150	178.0	3672055.0	-184607.0	4070344.0
27	18	11	32	151	179.0	4382821.0	-194718.0	4792171.0
27	18	11	32	151	180.0	5919409.0	-200396.0	6282336.0
27	18	11	32	152	181.0	7097994.0	-187639.0	7302412.0
27	18	11	32	153	182.0	7177974.0	-182834.0	7606846.0
27	18	11	32	169	183.0	6913593.0	-180500.0	7361140.0
27	18	11	32	170	184.0	7234660.0	-180579.0	7674142.0
27	18	11	32	170	185.0	7932848.0	-189934.0	8388607.0
27	18	11	32	171	186.0	8380729.0	-199664.0	8388607.0
27	18	11	32	193	187.0	8336581.0	-191988.0	8243705.0
27	18	11	32	194	188.0	7861234.0	-179482.0	8173684.0
27	18	11	32	194	189.0	7612591.0	-173386.0	7975459.0
27	18	11	32	195	190.0	7778724.0	-181850.0	8315785.0
27	18	11	32	196	191.0	7920193.0	-182355.0	8388607.0
27	18	11	32	196	192.0	7466094.0	-180993.0	7779981.0
27	18	11	32	197	193.0	6733786.0	-188467.0	7121480.0
27	18	11	32	197	194.0	6673704.0	-186581.0	7051369.0
27	18	11	32	213	195.0	6925688.0	-183649.0	7272913.0
27	18	11	32	214	196.0	6958254.0	-188948.0	7471934.0
27	18	11	32	214	197.0	6769846.0	-185222.0	7150860.0
27	18	11	32	233	198.0	6619988.0	-185629.0	6926186.0
27	18	11	32	234	199.0	7020296.0	-196826.0	7322221.0
27	18	11	32	235	200.0	7689296.0	-204283.0	7822259.0
27	18	11	32	235	201.0	7753561.0	-198988.0	7810323.0
27	18	11	32	258	202.0	7322488.0	-196091.0	7731931.0
27	18	11	32	258	203.0	7112038.0	-191436.0	7393041.0
27	18	11	32	259	204.0	7416160.0	-198316.0	7555546.0
27	18	11	32	260	205.0	7878956.0	-204028.0	8149954.0
27	18	11	32	278	206.0	7836466.0	-212211.0	7986932.0
27	18	11	32	278	207.0	7309393.0	-206516.0	7438501.0
27	18	11	32	279	208.0	6919780.0	-200227.0	7196422.0
27	18	11	32	279	209.0	6960536.0	-196356.0	7229740.0
27	18	11	32	280	210.0	7301217.0	-205178.0	7601868.0
27	18	11	32	280	211.0	7403738.0	-203586.0	7742653.0
27	18	11	32	281	212.0	7122153.0	-204290.0	7392284.0
27	18	11	32	282	213.0	7087081.0	-209807.0	7382233.0
27	18	11	32	298	214.0	7378776.0	-206972.0	7705228.0
27	18	11	32	298	215.0	7384533.0	-200999.0	7680587.0
27	18	11	32	299	216.0	7250927.0	-207534.0	7693314.0
27	18	11	32	317	217.0	7151045.0	-203342.0	7483213.0
27	18	11	32	318	218.0	7158786.0	-199321.0	7376266.0
27	18	11	32	318	219.0	7377686.0	-207856.0	7651717.0
27	18	11	32	319	220.0	7296178.0	-205312.0	7516826.0
27	18	11	32	319	221.0	6733228.0	-199227.0	6948767.0
27	18	11	32	320	222.0	6372053.0	-201101.0	6629823.0
27	18	11	32	321	223.0	6326491.0	-201438.0	6568854.0
27	18	11	32	321	224.0	6216535.0	-200152.0	6441087.0
27	18	11	32	340	225.0	5754369.0	-191944.0	5957398.0
27	18	11	32	341	226.0	5124819.0	-184752.0	5315850.0
27	18	11	32	342	227.0	4866101.0	-187702.0	5046229.0
27	18	11	32	360	228.0	4895917.0	-193277.0	5074528.0
27	18	11	32	361	229.0	4798195.0	-195184.0	4976567.0
27	18	11	32	361	230.0	4456519.0	-193085.0	4626115.0
27	18	11	32	362	231.0	4200229.0	-183304.0	4367621.0
27	18	11	32	362	232.0	4463108.0	-184425.0	4633302.0
27	18	11	32	363	233.0	4926734.0	-188506.0	5103760.0
27	18	11	32	364	234.0	5187907.0	-189269.0	5373279.0
27	18	11	32	364	235.0	5160089.0	-194345.0	5344054.0
27	18	11	32	379	236.0	5248278.0	-192547.0	5431988.0
27	18	11	32	380	237.0	5841907.0	-180422.0	6033344.0
27	18	11	32	380	238.0	6525324.0	-186166.0	6691296.0
27	18	11	32	399	239.0	6889462.0	-200946.0	7016887.0
27	18	11	32	400	240.0	6784422.0	-200169.0	6891599.0
27	18	11	32	401	241.0	6655437.0	-198427.0	6769878.0
27	18	11	32	401	242.0	6970530.0	-203435.0	7128807.0
27	18	11	32	426	243.0	7301081.0	-196908.0	7322763.0
27	18	11	32	427	244.0	7100084.0	-193266.0	7104973.0
27	18	11	32	427	245.0	6449126.0	-194532.0	6504566.0
27	18	11	32	428	246.0	5913378.0	-190117.0	5958559.0
27	18	11	32	428	247.0	5909903.0	-194479.0	5953536.0
27	18	11	32	429	248.0	5996878.0	-202336.0	6051841.0
27	18	11	32	429	249.0	5742893.0	-200828.0	5807461.0
27	18	11	32	430	250.0	5212466.0	-192134.0	5264220.0
27	18	11	32	446	251.0	4952116.0	-185642.0	4980671.0
27	18	11	32	446	252.0	5173227.0	-188244.0	5200284.0
27	18	11	32	447	253.0	5318517.0	-197383.0	5351628.0
27	18	11	32	465	254.0	5023154.0	-197874.0	5046993.0
27	18	11	32	466	255.0	4397643.0	-199244.0	4410062.0
27	18	11	32	466	0.0	4043068.0	-190565.0	4047466.0
27	18	11	32	467	1.0	4190014.0	-186637.0	4207507.0
27	18	11	32	468	2.0	4292791.0	-188017.0	4306743.0
27	18	11	32	468	3.0	4024513.0	-189656.0	4028344.0
27	18	11	32	469	4.0	3492598.0	-192592.0	3477656.0
27	18	11	32	469	5.0	3232181.0	-202553.0	3202067.0
27	18	11	32	489	6.0	3448548.0	-197649.0	3415461.0
27	18	11	32	490	7.0	3535251.0	-190130.0	3494281.0
27	18	11	32	491	8.0	3305804.0	-191012.0	3254487.0
27	18	11	32	491	9.0	2969539.0	-188812.0	2909453.0
27	18	11	32	510	10.0	3013905.0	-191371.0	2946584.0
27	18	11	32	510	11.0	3526393.0	-205001.0	3478088.0
27	18	11	32	511	12.0	4003901.0	-209597.0	3974886.0
27	18	11	32	530	13.0	4092141.0	-201477.0	4060466.0
27	18	11	32	530	14.0	3816933.0	-197019.0	3770919.0
27	18	11	32	531	15.0	3229173.0	-193430.0	3166778.0
27	18	11	32	532	16.0	3683418.0	-196045.0	3636043.0
27	18	11	32	532	17.0	4332548.0	-206254.0	4304151.0
27	18	11	32	533	18.0	4536671.0	-212074.0	4512328.0
27	18	11	32	534	19.0	4482415.0	-205799.0	4450407.0
27	18	11	32	534	20.0	4732416.0	-194292.0	4708293.0
27	18	11	32	535	21.0	5361963.0	-194317.0	5345448.0
27	18	11	32	552	22.0	5741933.0	-200347.0	5721309.0
27	18	11	32	552	23.0	5608128.0	-205770.0	5587134.0
27	18	11	32	573	24.0	5224199.0	-212932.0	5215536.0
27	18	11	32	573	25.0	5165399.0	-216917.0	5163411.0
27	18	11	32	574	26.0	5438408.0	-211164.0	5447213.0
27	18	11	32	575	27.0	5501884.0	-209310.0	5491253.0
27	18	11	32	575	28.0	5120175.0	-213502.0	5097344.0
27	18	11	32	576	29.0	4554721.0	-213631.0	4535634.0
27	18	11	32	576	30.0	4377119.0	-210219.0	4360524.0
27	18	11	32	577	31.0	4635799.0	-215105.0	4619432.0
27	18	11	32	577	32.0	4694152.0	-207791.0	4675595.0
27	18	11	32	593	33.0	4357722.0	-198780.0	4335978.0
27	18	11	32	593	34.0	3912271.0	-193696.0	3885151.0
27	18	11	32	594	35.0	3938194.0	-195562.0	3899232.0
27	18	11	32	612	36.0	4372362.0	-198211.0	4343548.0
27	18	11	32	613	37.0	4585021.0	-214684.0	4554066.0
27	18	11	32	613	38.0	4442658.0	-210298.0	4404009.0
27	18	11	32	614	39.0	4174536.0	-200513.0	4142449.0
27	18	11	32	614	40.0	4380426.0	-199186.0	4353845.0
27	18	11	32	615	41.0	4986029.0	-206544.0	4946752.0
27	18	11	32	616	42.0	5351769.0	-215122.0	5289286.0
27	18	11	32	632	43.0	5305678.0	-244307.0	5240225.0
27	18	11	32	632	44.0	5157161.0	-275247.0	5102564.0
27	18	11	32	633	45.0	5481824.0	-294704.0	5433691.0
27	18	11	32	633	46.0	6133746.0	-303698.0	6099768.0
27	18	11	32	656	47.0	6476523.0	-242645.0	6460059.0
27	18	11	32	656	48.0	6395149.0	-131385.0	6366815.0
27	18	11	32	657	49.0	6199558.0	-37584.0	6148395.0
27	18	11	32	658	50.0	6368853.0	29640.0	6329950.0
27	18	11	32	675	51.0	6844653.0	105874.0	6780006.0
27	18	11	32	676	52.0	6995969.0	108237.0	6967184.0
27	18	11	32	676	53.0	6571448.0	45658.0	6572748.0
27	18	11	32	677	54.0	6068412.0	-29387.0	6070608.0
27	18	11	32	678	55.0	6065909.0	-35206.0	6068968.0
27	18	11	32	678	56.0	6253854.0	-115524.0	6270462.0
27	18	11	32	679	57.0	6097139.0	-211181.0	6135057.0
27	18	11	32	695	58.0	5562641.0	-234904.0	5612628.0
27	18	11	32	695	59.0	5055188.0	-229619.0	5099593.0
27	18	11	32	696	60.0	5050499.0	-232228.0	5106924.0
27	18	11	32	697	61.0	5339510.0	-239245.0	5403596.0
27	18	11	32	715	62.0	5321294.0	-251357.0	5376784.0
27	18	11	32	715	63.0	4919216.0	-266501.0	4963630.0
27	18	11	32	716	64.0	4525470.0	-264539.0	4555798.0
27	18	11	32	717	65.0	4683018.0	-262796.0	4720139.0
27	18	11	32	739	66.0	5137794.0	-262226.0	5194949.0
27	18	11	32	740	67.0	5305098.0	-268441.0	5367729.0
27	18	11	32	740	68.0	5088003.0	-280992.0	5147210.0
27	18	11	32	741	69.0	4864317.0	-288717.0	4913046.0
27	18	11	32	741	70.0	5149290.0	-292267.0	5206928.0
27	18	11	32	742	71.0	5669008.0	-300569.0	5754783.0
27	18	11	32	742	72.0	5848571.0	-297102.0	5950004.0
27	18	11	32	759	73.0	5607657.0	-297803.0	5702271.0
27	18	11	32	760	74.0	5379271.0	-302129.0	5457789.0
27	18	11	32	760	75.0	5686573.0	-313607.0	5750966.0
27	18	11	32	761	76.0	6208205.0	-321487.0	6274147.0
27	18	11	32	778	77.0	6321004.0	-331525.0	6396256.0
27	18	11	32	779	78.0	6004301.0	-327662.0	6105954.0
27	18	11	32	780	79.0	5684548.0	-324429.0	5808828.0
27	18	11	32	780	80.0	5906631.0	-331849.0	6045299.0
27	18	11	32	781	81.0	6291870.0	-340357.0	6448382.0
27	18	11	32	781	82.0	6180835.0	-342551.0	6337543.0
27	18	11	32	782	83.0	5609454.0	-349498.0	5746269.0
27	18	11	32	798	84.0	5078129.0	-343518.0	5203222.0
27	18	11	32	799	85.0	5119663.0	-343279.0	5238761.0
27	18	11	32	799	86.0	5303384.0	-347679.0	5424304.0
27	18	11	32	800	87.0	5101826.0	-354719.0	5219790.0
27	18	11	32	821	88.0	4546134.0	-362214.0	4661301.0
27	18	11	32	821	89.0	4136173.0	-374150.0	4231483.0
27	18	11	32	822	90.0	4340421.0	-377923.0	4434289.0
27	18	11	32	822	91.0	4705922.0	-379706.0	4810794.0
27	18	11	32	841	92.0	4696781.0	-378687.0	4796678.0
27	18	11	32	841	93.0	4396065.0	-383373.0	4497055.0
27	18	11	32	842	94.0	4215924.0	-391009.0	4304701.0
27	18	11	32	843	95.0	4521374.0	-404991.0	4619450.0
27	18	11	32	843	96.0	4933468.0	-414798.0	5038778.0
27	18	11	32	844	97.0	4902318.0	-415601.0	5003003.0
27	18	11	32	844	98.0	4500338.0	-409882.0	4577841.0
27	18	11	32	861	99.0	4233237.0	-408467.0	4314358.0
27	18	11	32	861	100.0	4511658.0	-414099.0	4620903.0
27	18	11	32	862	101.0	4899879.0	-421836.0	5012141.0
27	18	11	32	862	102.0	4848155.0	-430311.0	4962923.0
27	18	11	32	881	103.0	4397094.0	-436229.0	4516240.0
27	18	11	32	882	104.0	4130081.0	-423762.0	4248164.0
27	18	11	32	883	105.0	4451083.0	-417039.0	4579823.0
27	18	11	32	883	106.0	4847834.0	-419672.0	4984041.0
27	18	11	32	884	107.0	4858873.0	-417810.0	4979401.0
27	18	11	32	885	108.0	4537507.0	-417453.0	4655748.0
27	18	11	32	885	109.0	4434890.0	-423626.0	4564438.0
27	18	11	32	886	110.0	4911284.0	-414406.0	5051152.0
27	18	11	32	904	111.0	5381846.0	-405294.0	5524637.0
27	18	11	32	905	112.0	5352611.0	-397279.0	5479047.0
27	18	11	32	905	113.0	4979600.0	-394757.0	5089201.0
27	18	11	32	923	114.0	4833565.0	-392159.0	4925658.0
27	18	11	32	924	115.0	5214381.0	-395596.0	5315431.0
27	18	11	32	924	116.0	5559799.0	-388866.0	5678444.0
27	18	11	32	925	117.0	5417479.0	-381889.0	5535703.0
27	18	11	32	943	118.0	4938454.0	-365377.0	5044383.0
27	18	11	32	944	119.0	4691312.0	-353276.0	4784335.0
27	18	11	32	944	120.0	4914807.0	-344767.0	5023496.0
27	18	11	32	945	121.0	5120662.0	-345305.0	5245351.0
27	18	11	32	945	122.0	4883303.0	-343107.0	5007668.0
27	18	11	32	946	123.0	4347715.0	-336247.0	4467857.0
27	18	11	32	947	124.0	4102614.0	-320051.0	4218371.0
27	18	11	32	947	125.0	4403164.0	-313331.0	4527849.0
27	18	11	32	962	126.0	4649137.0	-308836.0	4773731.0
27	18	11	32	963	127.0	4418056.0	-304644.0	4551309.0
27	18	11	32	963	128.0	3912548.0	-305523.0	4058107.0
27	18	11	32	988	129.0	3685569.0	-307264.0	3841224.0
27	18	11	32	988	130.0	3990422.0	-294134.0	4166637.0
27	18	11	32	989	131.0	4208156.0	-289551.0	4402543.0
27	18	11	32	990	132.0	3990903.0	-289283.0	4199038.0
27	18	11	32	990	133.0	3566789.0	-282089.0	3762584.0
27	18	11	32	991	134.0	3456899.0	-282014.0	3640624.0
27	18	11	32	991	135.0	3871310.0	-294916.0	4057121.0
27	18	11	32	992	136.0	4223870.0	-295611.0	4415884.0
27	18	11	33	7	137.0	4109048.0	-285380.0	4289624.0
27	18	11	33	8	138.0	3710125.0	-274624.0	3875380.0
27	18	11	33	9	139.0	3627310.0	-273101.0	3806863.0
27	18	11	33	9	140.0	4049939.0	-277535.0	4247076.0
27	18	11	33	28	141.0	4302881.0	-284421.0	4498739.0
27	18	11	33	28	142.0	4097069.0	-285522.0	4269670.0
27	18	11	33	29	143.0	3638386.0	-283469.0	3785837.0
27	18	11	33	52	144.0	3531103.0	-267094.0	3658195.0
27	18	11	33	53	145.0	3879691.0	-265129.0	4000306.0
27	18	11	33	54	146.0	4054973.0	-269894.0	4188033.0
27	18	11	33	54	147.0	3765396.0	-271505.0	3913853.0
27	18	11	33	55	148.0	3272318.0	-275081.0	3415163.0
27	18	11	33	55	149.0	3123979.0	-277903.0	3273518.0
27	18	11	33	56	150.0	3459784.0	-263789.0	3610869.0
27	18	11	33	57	151.0	3621324.0	-261869.0	3787316.0
27	18	11	33	71	152.0	3301699.0	-263573.0	3466391.0
27	18	11	33	72	153.0	2789138.0	-259089.0	2952374.0
27	18	11	33	73	154.0	2660681.0	-261707.0	2824860.0
27	18	11	33	90	155.0	3060239.0	-272994.0	3221315.0
27	18	11	33	91	156.0	3369960.0	-266722.0	3524800.0
27	18	11	33	92	157.0	3231525.0	-257402.0	3390219.0
27	18	11	33	93	158.0	2974813.0	-252347.0	3115926.0
27	18	11	33	110	159.0	3160627.0	-249298.0	3267354.0
27	18	11	33	110	160.0	3797516.0	-251462.0	3891334.0
27	18	11	33	111	161.0	4231181.0	-267245.0	4320075.0
27	18	11	33	112	162.0	4144889.0	-265922.0	4235170.0
27	18	11	33	112	163.0	3853566.0	-252915.0	3945793.0
27	18	11	33	113	164.0	3932269.0	-241866.0	4019707.0
27	18	11	33	113	165.0	4425131.0	-243015.0	4510929.0
27	18	11	33	114	166.0	4603088.0	-246707.0	4692053.0
27	18	11	33	130	167.0	4221013.0	-250727.0	4310246.0
27	18	11	33	130	168.0	3646539.0	-250748.0	3734077.0
27	18	11	33	131	169.0	3419535.0	-248021.0	3522896.0
27	18	11	33	152	170.0	3577701.0	-234626.0	3706257.0
27	18	11	33	153	171.0	3507992.0	-230784.0	3660451.0
27	18	11	33	154	172.0	3036591.0	-230702.0	3189930.0
27	18	11	33	154	173.0	2392808.0	-223461.0	2531963.0
27	18	11	33	155	174.0	2112020.0	-229454.0	2238650.0
27	18	11	33	155	175.0	2240151.0	-232801.0	2386549.0
27	18	11	33	156	176.0	2210633.0	-220000.0	2388662.0
27	18	11	33	157	177.0	1863561.0	-217275.0	2053375.0
27	18	11	33	171	178.0	1358814.0	-213898.0	1532379.0
27	18	11	33	172	179.0	980674.0	-206307.0	1139586.0
27	18	11	33	173	180.0	778280.0	-208089.0	932059.0
27	18	11	33	173	181.0	567604.0	-221001.0	722215.0
27	18	11	33	191	182.0	340095.0	-212546.0	508058.0
27	18	11	33	192	183.0	-69036.0	-202587.0	98186.0
27	18	11	33	193	184.0	-584971.0	-194274.0	-422857.0
27	18	11	33	210	185.0	-977502.0	-191633.0	-816944.0
27	18	11	33	211	186.0	-1224020.0	-193569.0	-1055109.0
27	18	11	33	212	187.0	-1406166.0	-201122.0	-1237911.0
27	18	11	33	212	188.0	-1712068.0	-197255.0	-1541059.0
27	18	11	33	234	189.0	-2149521.0	-187221.0	-1979174.0
27	18	11	33	235	190.0	-2499421.0	-173756.0	-2315053.0
27	18	11	33	235	191.0	-2771899.0	-170789.0	-2586981.0
27	18	11	33	236	192.0	-3030748.0	-162856.0	-2848629.0
27	18	11	33	237	193.0	-3406717.0	-160091.0	-3235527.0
27	18	11	33	237	194.0	-3824934.0	-159481.0	-3661976.0
27	18	11	33	238	195.0	-4132905.0	-156349.0	-3983093.0
27	18	11	33	238	196.0	-4366216.0	-151537.0	-4214199.0
27	18	11	33	254	197.0	-4625194.0	-152879.0	-4460701.0
27	18	11	33	255	198.0	-5010733.0	-150603.0	-4830329.0
27	18	11	33	255	199.0	-5436793.0	-157256.0	-5249529.0
27	18	11	33	280	200.0	-5742734.0	-164655.0	-5550226.0
27	18	11	33	281	201.0	-5954783.0	-158408.0	-5759598.0
27	18	11	33	281	202.0	-6138189.0	-148709.0	-5968284.0
27	18	11	33	282	203.0	-6399679.0	-148311.0	-6235294.0
27	18	11	33	282	204.0	-6572718.0	-143165.0	-6407099.0
27	18	11	33	283	205.0	-6532759.0	-140411.0	-6371330.0
27	18	11	33	283	206.0	-6414533.0	-154564.0	-6248389.0
27	18	11	33	284	207.0	-6316469.0	-155314.0	-6160055.0
27	18	11	33	299	208.0	-6290109.0	-144347.0	-6168894.0
27	18	11	33	300	209.0	-6242352.0	-138211.0	-6133828.0
27	18	11	33	300	210.0	-6138238.0	-137921.0	-6012766.0
27	18	11	33	301	211.0	-5965417.0	-139043.0	-5842756.0
27	18	11	33	319	212.0	-5874347.0	-150389.0	-5764388.0
27	18	11	33	320	213.0	-5889996.0	-155447.0	-5777032.0
27	18	11	33	321	214.0	-5887891.0	-154319.0	-5770993.0
27	18	11	33	321	215.0	-5848947.0	-175355.0	-5729948.0
27	18	11	33	322	216.0	-5792089.0	-208095.0	-5688879.0
27	18	11	33	322	217.0	-5789835.0	-231015.0	-5703492.0
27	18	11	33	323	218.0	-5887856.0	-215222.0	-5824714.0
27	18	11	33	340	219.0	-5910676.0	-109087.0	-5858302.0
27	18	11	33	341	220.0	-5821247.0	19294.0	-5763605.0
27	18	11	33	341	221.0	-5669919.0	109558.0	-5604727.0
27	18	11	33	342	222.0	-5513203.0	199399.0	-5427873.0
27	18	11	33	361	223.0	-5401877.0	255340.0	-5320407.0
27	18	11	33	361	224.0	-5211664.0	233251.0	-5144628.0
27	18	11	33	362	225.0	-4894962.0	120983.0	-4826409.0
27	18	11	33	362	226.0	-4432695.0	76908.0	-4369851.0
27	18	11	33	384	227.0	-3992703.0	30366.0	-3931947.0
27	18	11	33	385	228.0	-3690511.0	-66474.0	-3605009.0
27	18	11	33	386	229.0	-3333994.0	-137468.0	-3228364.0
27	18	11	33	386	230.0	-2874644.0	-159759.0	-2767011.0
27	18	11	33	387	231.0	-2479148.0	-162311.0	-2369747.0
27	18	11	33	387	232.0	-2272819.0	-167319.0	-2178044.0
27	18	11	33	388	233.0	-2267322.0	-167308.0	-2208484.0
27	18	11	33	405	234.0	-2262461.0	-159799.0	-2206213.0
27	18	11	33	406	235.0	-2221881.0	-161765.0	-2153494.0
27	18	11	33	406	236.0	-2275455.0	-174625.0	-2218774.0
27	18	11	33	407	237.0	-2459232.0	-171411.0	-2424740.0
27	18	11	33	426	238.0	-2751592.0	-170363.0	-2744444.0
27	18	11	33	426	239.0	-2962308.0	-167961.0	-2958955.0
27	18	11	33	427	240.0	-3081752.0	-162962.0	-3075463.0
27	18	11	33	428	241.0	-3250231.0	-164881.0	-3221581.0
27	18	11	33	428	242.0	-3503398.0	-167762.0	-3468791.0
27	18	11	33	429	243.0	-3798782.0	-159320.0	-3775647.0
27	18	11	33	430	244.0	-3971174.0	-164902.0	-3949834.0
27	18	11	33	451	245.0	-4072600.0	-168329.0	-4029718.0
27	18	11	33	452	246.0	-4211895.0	-162254.0	-4151985.0
27	18	11	33	453	247.0	-4416071.0	-164603.0	-4373245.0
27	18	11	33	453	248.0	-4612645.0	-168382.0	-4565809.0
27	18	11	33	454	249.0	-4657175.0	-164245.0	-4577551.0
27	18	11	33	455	250.0	-4556547.0	-161487.0	-4446749.0
27	18	11	33	455	251.0	-4432789.0	-164566.0	-4312046.0
27	18	11	33	456	252.0	-4365308.0	-165561.0	-4243015.0
27	18	11	33	472	253.0	-4355927.0	-160346.0	-4228259.0
27	18	11	33	473	254.0	-4183826.0	-163729.0	-4043122.0
27	18	11	33	473	255.0	-3894232.0	-176594.0	-3751858.0
27	18	11	33	494	0.0	-3637951.0	-178119.0	-3500173.0
27	18	11	33	495	1.0	-3500996.0	-170766.0	-3364676.0
27	18	11	33	495	2.0	-3453462.0	-168646.0	-3299816.0
27	18	11	33	496	3.0	-3244456.0	-173500.0	-3070478.0
27	18	11	33	518	4.0	-2940376.0	-183496.0	-2755567.0
27	18	11	33	519	5.0	-2696729.0	-193909.0	-2518196.0
27	18	11	33	520	6.0	-2569088.0	-198633.0	-2402967.0
27	18	11	33	520	7.0	-2452276.0	-183501.0	-2301372.0
27	18	11	33	521	8.0	-2158060.0	-181776.0	-1990633.0
27	18	11	33	522	9.0	-1775325.0	-186372.0	-1604576.0
27	18	11	33	522	10.0	-1505188.0	-198437.0	-1338218.0
27	18	11	33	523	11.0	-1358852.0	-204862.0	-1203452.0
27	18	11	33	538	12.0	-1232387.0	-210649.0	-1095598.0
27	18	11	33	539	13.0	-933574.0	-201600.0	-807269.0
27	18	11	33	540	14.0	-627987.0	-203781.0	-493490.0
27	18	11	33	560	15.0	-474725.0	-212546.0	-338479.0
27	18	11	33	561	16.0	-501616.0	-215411.0	-384464.0
27	18	11	33	562	17.0	-606243.0	-214235.0	-492801.0
27	18	11	33	562	18.0	-582672.0	-224143.0	-473642.0
27	18	11	33	563	19.0	-563377.0	-219156.0	-470051.0
27	18	11	33	563	20.0	-675827.0	-210232.0	-595362.0
27	18	11	33	564	21.0	-949422.0	-209548.0	-868459.0
27	18	11	33	565	22.0	-1206210.0	-210006.0	-1125306.0
27	18	11	33	583	23.0	-1259746.0	-206711.0	-1175424.0
27	18	11	33	583	24.0	-1288841.0	-209066.0	-1198707.0
27	18	11	33	584	25.0	-1424312.0	-201793.0	-1332737.0
27	18	11	33	585	26.0	-1701897.0	-192316.0	-1611175.0
27	18	11	33	604	27.0	-1955005.0	-188179.0	-1879577.0
27	18	11	33	604	28.0	-2012355.0	-182452.0	-1935784.0
27	18	11	33	605	29.0	-2037208.0	-176714.0	-1950936.0
27	18	11	33	606	30.0	-2146799.0	-171863.0	-2052843.0
27	18	11	33	606	31.0	-2347577.0	-163525.0	-2256040.0
27	18	11	33	607	32.0	-2519719.0	-150051.0	-2437407.0
27	18	11	33	607	33.0	-2471340.0	-139012.0	-2387896.0
27	18	11	33	625	34.0	-2366101.0	-134442.0	-2280158.0
27	18	11	33	626	35.0	-2348084.0	-125477.0	-2265973.0
27	18	11	33	626	36.0	-2449482.0	-116661.0	-2365339.0
27	18	11	33	627	37.0	-2519482.0	-106921.0	-2436829.0
27	18	11	33	650	38.0	-2364899.0	-98092.0	-2283569.0
27	18	11	33	651	39.0	-2167204.0	-91842.0	-2068951.0
27	18	11	33	651	40.0	-2064011.0	-100069.0	-1941656.0
27	18	11	33	652	41.0	-2034702.0	-100773.0	-1903133.0
27	18	11	33	653	42.0	-1943547.0	-86990.0	-1804516.0
27	18	11	33	653	43.0	-1640449.0	-76753.0	-1507987.0
27	18	11	33	654	44.0	-1303327.0	-81890.0	-1191314.0
27	18	11	33	672	45.0	-1064341.0	-79594.0	-968901.0
27	18	11	33	673	46.0	-950164.0	-77612.0	-862544.0
27	18	11	33	673	47.0	-791632.0	-84694.0	-714942.0
27	18	11	33	674	48.0	-454749.0	-88712.0	-377264.0
27	18	11	33	694	49.0	-120332.0	-76256.0	-36154.0
27	18	11	33	695	50.0	35097.0	-75604.0	124609.0
27	18	11	33	696	51.0	16136.0	-74991.0	98835.0
27	18	11	33	696	52.0	43004.0	-74424.0	123258.0
27	18	11	33	697	53.0	257565.0	-83617.0	356409.0
27	18	11	33	697	54.0	454423.0	-91576.0	542963.0
27	18	11	33	698	55.0	492811.0	-80477.0	569666.0
27	18	11	33	699	56.0	380800.0	-71471.0	471011.0
27	18	11	33	717	57.0	336264.0	-73429.0	416365.0
27	18	11	33	718	58.0	521066.0	-72717.0	600804.0
27	18	11	33	719	59.0	677953.0	-78746.0	765294.0
27	18	11	33	740	60.0	698748.0	-89911.0	799983.0
27	18	11	33	741	61.0	600631.0	-84741.0	704468.0
27	18	11	33	741	62.0	589858.0	-77571.0	706965.0
27	18	11	33	742	63.0	779354.0	-75385.0	905059.0
27	18	11	33	742	64.0	959922.0	-78330.0	1077661.0
27	18	11	33	743	65.0	1010894.0	-80951.0	1122346.0
27	18	11	33	744	66.0	895358.0	-82044.0	1007238.0
27	18	11	33	744	67.0	868428.0	-80991.0	986361.0
27	18	11	33	763	68.0	1016004.0	-79910.0	1123116.0
27	18	11	33	764	69.0	1115671.0	-71411.0	1201898.0
27	18	11	33	765	70.0	1055561.0	-73702.0	1128076.0
27	18	11	33	765	71.0	877201.0	-76407.0	952008.0
27	18	11	33	785	72.0	827957.0	-72163.0	918828.0
27	18	11	33	786	73.0	984812.0	-71991.0	1085981.0
27	18	11	33	786	74.0	1102052.0	-73887.0	1190180.0
27	18	11	33	787	75.0	1075491.0	-64016.0	1146378.0
27	18	11	33	788	76.0	921176.0	-60883.0	974765.0
27	18	11	33	788	77.0	888255.0	-61458.0	941679.0
27	18	11	33	789	78.0	1070084.0	-61877.0	1130919.0
27	18	11	33	807	79.0	1194058.0	-70294.0	1264489.0
27	18	11	33	808	80.0	1175133.0	-67686.0	1270221.0
27	18	11	33	808	81.0	1028921.0	-55969.0	1133591.0
27	18	11	33	809	82.0	1007338.0	-53957.0	1122676.0
27	18	11	33	833	83.0	1146323.0	-58412.0	1279115.0
27	18	11	33	833	84.0	1224963.0	-53783.0	1350054.0
27	18	11	33	834	85.0	1155265.0	-54415.0	1270194.0
27	18	11	33	835	86.0	975931.0	-51256.0	1082309.0
27	18	11	33	835	87.0	932554.0	-42885.0	1033155.0
27	18	11	33	836	88.0	1077911.0	-39178.0	1199898.0
27	18	11	33	837	89.0	1141153.0	-47208.0	1283517.0
27	18	11	33	854	90.0	1086420.0	-46674.0	1207111.0
27	18	11	33	855	91.0	868538.0	-38095.0	981370.0
27	18	11	33	855	92.0	786039.0	-37320.0	888347.0
27	18	11	33	856	93.0	917504.0	-34031.0	1019987.0
27	18	11	33	876	94.0	995987.0	-29173.0	1092719.0
27	18	11	33	877	95.0	921241.0	-35037.0	1013648.0
27	18	11	33	877	96.0	735711.0	-34383.0	830752.0
27	18	11	33	878	97.0	710118.0	-33309.0	819904.0
27	18	11	33	878	98.0	879517.0	-25552.0	1012403.0
27	18	11	33	879	99.0	1004994.0	-21622.0	1153336.0
27	18	11	33	880	100.0	985854.0	-25670.0	1144793.0
27	18	11	33	898	101.0	882987.0	-23799.0	1049026.0
27	18	11	33	899	102.0	1004340.0	-23446.0	1171808.0
27	18	11	33	899	103.0	1309948.0	-28963.0	1486199.0
27	18	11	33	900	104.0	1508623.0	-23871.0	1712061.0
27	18	11	33	919	105.0	1558784.0	-18218.0	1761189.0
27	18	11	33	920	106.0	1528982.0	-15967.0	1712294.0
27	18	11	33	921	107.0	1669641.0	-9641.0	1845449.0
27	18	11	33	921	108.0	1969108.0	-18536.0	2160355.0
27	18	11	33	922	109.0	2186364.0	-27764.0	2384825.0
27	18	11	33	923	110.0	2237725.0	-15331.0	2424516.0
27	18	11	33	923	111.0	2167038.0	-7340.0	2353029.0
27	18	11	33	924	112.0	2268783.0	-6986.0	2451633.0
27	18	11	33	941	113.0	2522893.0	-3932.0	2709199.0
27	18	11	33	941	114.0	2629985.0	-7146.0	2836863.0
27	18	11	33	942	115.0	2528934.0	-21082.0	2744163.0
27	18	11	33	966	116.0	2329648.0	-10286.0	2536918.0
27	18	11	33	967	117.0	2284610.0	8633.0	2485496.0
27	18	11	33	967	118.0	2339119.0	19643.0	2550786.0
27	18	11	33	968	119.0	2262265.0	17093.0	2477583.0
27	18	11	33	969	120.0	1984646.0	17784.0	2180708.0
27	18	11	33	969	121.0	1612988.0	12368.0	1808212.0
27	18	11	33	970	122.0	1419781.0	5336.0	1630120.0
27	18	11	33	971	123.0	1374769.0	7656.0	1593458.0
27	18	11	33	988	124.0	1213832.0	12268.0	1434498.0
27	18	11	33	989	125.0	888977.0	11523.0	1090846.0
27	18	11	33	989	126.0	516168.0	8409.0	695916.0
27	18	11	33	990	127.0	354974.0	8407.0	513563.0
27	18	11	34	13	128.0	331072.0	10436.0	479826.0
27	18	11	34	15	129.0	186866.0	14581.0	360364.0
27	18	11	34	15	130.0	-137119.0	21863.0	62686.0
27	18	11	34	16	131.0	-426032.0	25390.0	-224279.0
27	18	11	34	17	132.0	-492544.0	26653.0	-289856.0
27	18	11	34	17	133.0	-416099.0	26980.0	-207206.0
27	18	11	34	18	134.0	-420627.0	18529.0	-226884.0
27	18	11	34	34	135.0	-590857.0	12654.0	-414918.0
27	18	11	34	35	136.0	-790584.0	24724.0	-630856.0
27	18	11	34	36	137.0	-752118.0	37329.0	-577403.0
27	18	11	34	36	138.0	-579024.0	33130.0	-384517.0
27	18	11	34	57	139.0	-517026.0	30468.0	-324339.0
27	18	11	34	58	140.0	-619244.0	19264.0	-430656.0
27	18	11	34	58	141.0	-771004.0	-20268.0	-572606.0
27	18	11	34	59	142.0	-651608.0	-46186.0	-455136.0
27	18	11	34	59	143.0	-394256.0	-49737.0	-212022.0
27	18	11	34	60	144.0	-275285.0	-30186.0	-101122.0
27	18	11	34	61	145.0	-288868.0	62886.0	-112462.0
27	18	11	34	84	146.0	-310714.0	177088.0	-129975.0
27	18	11	34	84	147.0	-93820.0	242571.0	83729.0
27	18	11	34	85	148.0	225254.0	311604.0	380282.0
27	18	11	34	86	149.0	429566.0	371737.0	584840.0
27	18	11	34	86	150.0	446189.0	342483.0	595516.0
27	18	11	34	87	151.0	417163.0	238602.0	549490.0
27	18	11	34	87	152.0	673849.0	197103.0	804299.0
27	18	11	34	88	153.0	1007034.0	160527.0	1159168.0
27	18	11	34	107	154.0	1131202.0	66839.0	1292605.0
27	18	11	34	107	155.0	1063819.0	16381.0	1216166.0
27	18	11	34	108	156.0	983936.0	12352.0	1139161.0
27	18	11	34	109	157.0	1162769.0	14767.0	1328930.0
27	18	11	34	129	158.0	1391044.0	10499.0	1568220.0
27	18	11	34	130	159.0	1410516.0	4205.0	1582848.0
27	18	11	34	131	160.0	1214338.0	1165.0	1375745.0
27	18	11	34	131	161.0	1018375.0	-1049.0	1184604.0
27	18	11	34	132	162.0	1085475.0	4328.0	1249113.0
27	18	11	34	132	163.0	1207094.0	3388.0	1381400.0
27	18	11	34	133	164.0	1181427.0	-3997.0	1353654.0
27	18	11	34	152	165.0	993701.0	-1995.0	1154688.0
27	18	11	34	153	166.0	805839.0	3928.0	961726.0
27	18	11	34	154	167.0	830688.0	1719.0	976413.0
27	18	11	34	154	168.0	907633.0	1678.0	1051260.0
27	18	11	34	175	169.0	804427.0	2467.0	949857.0
27	18	11	34	175	170.0	548293.0	-1262.0	679458.0
27	18	11	34	176	171.0	385493.0	-3126.0	494654.0
27	18	11	34	177	172.0	533095.0	909.0	635911.0
27	18	11	34	177	173.0	796584.0	-2421.0	887428.0
27	18	11	34	178	174.0	922828.0	-1376.0	1016306.0
27	18	11	34	178	175.0	906234.0	-751.0	996820.0
27	18	11	34	197	176.0	949429.0	-2830.0	1019911.0
27	18	11	34	198	177.0	1270278.0	-8869.0	1340706.0
27	18	11	34	199	178.0	1574868.0	-7349.0	1667971.0
27	18	11	34	199	179.0	1664579.0	-12336.0	1761926.0
27	18	11	34	220	180.0	1544545.0	-11254.0	1614870.0
27	18	11	34	221	181.0	1429654.0	-7739.0	1486650.0
27	18	11	34	221	182.0	1539744.0	-10176.0	1611356.0
27	18	11	34	222	183.0	1666851.0	-21316.0	1739696.0
27	18	11	34	223	184.0	1622250.0	-19031.0	1678861.0
27	18	11	34	223	185.0	1378189.0	-19027.0	1424226.0
27	18	11	34	224	186.0	1221520.0	-14864.0	1269164.0
27	18	11	34	224	187.0	1353741.0	-22242.0	1412431.0
27	18	11	34	243	188.0	1520211.0	-22026.0	1582764.0
27	18	11	34	244	189.0	1587186.0	-31679.0	1652024.0
27	18	11	34	244	190.0	1533204.0	-37070.0	1585207.0
27	18	11	34	266	191.0	1540953.0	-35951.0	1577356.0
27	18	11	34	266	192.0	1800309.0	-25142.0	1833744.0
27	18	11	34	267	193.0	1968255.0	-31215.0	2010392.0
27	18	11	34	267	194.0	1954266.0	-37699.0	1977269.0
27	18	11	34	268	195.0	1723571.0	-42856.0	1723691.0
27	18	11	34	269	196.0	1537505.0	-52350.0	1526988.0
27	18	11	34	269	197.0	1570031.0	-55381.0	1574777.0
27	18	11	34	270	198.0	1539776.0	-44913.0	1561084.0
27	18	11	34	288	199.0	1334794.0	-45203.0	1344990.0
27	18	11	34	289	200.0	943566.0	-47531.0	933576.0
27	18	11	34	290	201.0	645758.0	-52006.0	633824.0
27	18	11	34	314	202.0	622456.0	-61136.0	612784.0
27	18	11	34	314	203.0	587124.0	-61099.0	573836.0
27	18	11	34	315	204.0	404037.0	-49508.0	386659.0
27	18	11	34	316	205.0	119541.0	-46699.0	106006.0
27	18	11	34	316	206.0	-6188.0	-45764.0	-15826.0
27	18	11	34	317	207.0	108053.0	-38964.0	107488.0
27	18	11	34	317	208.0	225747.0	-43378.0	225003.0
27	18	11	34	318	209.0	189077.0	-52945.0	176989.0
27	18	11	34	337	210.0	19304.0	-41051.0	-11184.0
27	18	11	34	338	211.0	-22777.0	-25386.0	-63306.0
27	18	11	34	338	212.0	190249.0	-15556.0	149860.0
27	18	11	34	339	213.0	383766.0	-12616.0	359075.0
27	18	11	34	340	214.0	437743.0	-8749.0	406940.0
27	18	11	34	340	215.0	361962.0	-5111.0	329094.0
27	18	11	34	341	216.0	373878.0	3675.0	352535.0
27	18	11	34	360	217.0	610716.0	12961.0	603760.0
27	18	11	34	360	218.0	784363.0	26902.0	807853.0
27	18	11	34	361	219.0	782047.0	30327.0	812179.0
27	18	11	34	362	220.0	656709.0	38012.0	673093.0
27	18	11	34	382	221.0	692717.0	44251.0	699884.0
27	18	11	34	383	222.0	949834.0	43210.0	961451.0
27	18	11	34	384	223.0	1092024.0	43566.0	1094559.0
27	18	11	34	384	224.0	1025928.0	54474.0	1018351.0
27	18	11	34	385	225.0	812422.0	67078.0	799457.0
27	18	11	34	386	226.0	753396.0	69012.0	747846.0
27	18	11	34	386	227.0	920681.0	67098.0	933999.0
27	18	11	34	387	228.0	993835.0	67311.0	1015203.0
27	18	11	34	405	229.0	865186.0	59041.0	888258.0
27	18	11	34	405	230.0	611651.0	69208.0	623394.0
27	18	11	34	406	231.0	510428.0	78151.0	512454.0
27	18	11	34	429	232.0	609653.0	82543.0	614163.0
27	18	11	34	430	233.0	625532.0	81485.0	632528.0
27	18	11	34	431	234.0	473578.0	75426.0	465496.0
27	18	11	34	431	235.0	241128.0	65859.0	215619.0
27	18	11	34	432	236.0	197444.0	75014.0	154951.0
27	18	11	34	433	237.0	377705.0	85168.0	323142.0
27	18	11	34	433	238.0	465735.0	86314.0	420460.0
27	18	11	34	434	239.0	420848.0	78899.0	383205.0
27	18	11	34	452	240.0	269641.0	75692.0	235508.0
27	18	11	34	453	241.0	310851.0	75978.0	272879.0
27	18	11	34	453	242.0	544693.0	78894.0	496785.0
27	18	11	34	454	243.0	654960.0	77721.0	593109.0
27	18	11	34	475	244.0	556221.0	80441.0	507594.0
27	18	11	34	475	245.0	385063.0	78411.0	340254.0
27	18	11	34	476	246.0	433754.0	74978.0	377724.0
27	18	11	34	477	247.0	710066.0	72149.0	669621.0
27	18	11	34	477	248.0	867739.0	73673.0	842864.0
27	18	11	34	478	249.0	834371.0	71203.0	817854.0
27	18	11	34	478	250.0	701841.0	79865.0	700428.0
27	18	11	34	498	251.0	780039.0	79258.0	798888.0
27	18	11	34	499	252.0	1074631.0	73881.0	1101958.0
27	18	11	34	499	253.0	1281584.0	72444.0	1306029.0
27	18	11	34	500	254.0	1287428.0	71723.0	1320777.0
27	18	11	34	521	255.0	1159004.0	74302.0	1181016.0
27	18	11	34	521	0.0	1244471.0	86083.0	1273442.0
27	18	11	34	522	1.0	1535273.0	88726.0	1583380.0
27	18	11	34	523	2.0	1707214.0	81568.0	1758883.0
27	18	11	34	523	3.0	1680677.0	82906.0	1722498.0
27	18	11	34	524	4.0	1546125.0	86673.0	1568109.0
27	18	11	34	524	5.0	1627328.0	83948.0	1629701.0
27	18	11	34	546	6.0	1834163.0	89868.0	1844982.0
27	18	11	34	546	7.0	1852901.0	90684.0	1873417.0
27	18	11	34	547	8.0	1634323.0	81774.0	1652313.0
27	18	11	34	548	9.0	1332504.0	82098.0	1351949.0
27	18	11	34	549	10.0	1248998.0	90286.0	1280194.0
27	18	11	34	549	11.0	1359881.0	99028.0	1399212.0
27	18	11	34	550	12.0	1325330.0	98889.0	1361843.0
27	18	11	34	550	13.0	1085448.0	100326.0	1102158.0
27	18	11	34	569	14.0	813854.0	99963.0	814039.0
27	18	11	34	591	15.0	826195.0	98404.0	824186.0
27	18	11	34	591	16.0	1016124.0	95289.0	1016989.0
27	18	11	34	592	17.0	1091593.0	100994.0	1097694.0
27	18	11	34	593	18.0	955973.0	103869.0	992719.0
27	18	11	34	593	19.0	777007.0	108534.0	835996.0
27	18	11	34	594	20.0	842833.0	113458.0	916449.0
27	18	11	34	595	21.0	1088419.0	107410.0	1173989.0
27	18	11	34	595	22.0	1236708.0	106029.0	1327523.0
27	18	11	34	596	23.0	1213227.0	113557.0	1305466.0
27	18	11	34	596	24.0	1164511.0	114295.0	1249894.0
27	18	11	34	614	25.0	1389323.0	116464.0	1477118.0
27	18	11	34	614	26.0	1789906.0	117771.0	1887768.0
27	18	11	34	615	27.0	2076216.0	112769.0	2176743.0
27	18	11	34	616	28.0	2162871.0	102803.0	2259446.0
27	18	11	34	636	29.0	2169223.0	115138.0	2271423.0
27	18	11	34	637	30.0	2395075.0	121787.0	2501198.0
27	18	11	34	638	31.0	2730553.0	119584.0	2838867.0
27	18	11	34	639	32.0	2877251.0	119741.0	2991384.0
27	18	11	34	639	33.0	2796332.0	119008.0	2908261.0
27	18	11	34	640	34.0	2697841.0	107097.0	2787105.0
27	18	11	34	641	35.0	2861504.0	111487.0	2946131.0
27	18	11	34	662	36.0	3127188.0	117641.0	3196644.0
27	18	11	34	662	37.0	3183347.0	120674.0	3255911.0
27	18	11	34	663	38.0	2985613.0	120993.0	3071227.0
27	18	11	34	664	39.0	2721987.0	123381.0	2821801.0
27	18	11	34	685	40.0	2747469.0	114330.0	2855263.0
27	18	11	34	685	41.0	2860021.0	111836.0	2960866.0
27	18	11	34	686	42.0	2735211.0	119398.0	2825205.0
27	18	11	34	687	43.0	2366234.0	127651.0	2443059.0
27	18	11	34	687	44.0	1999921.0	129644.0	2065467.0
27	18	11	34	688	45.0	1954611.0	131490.0	2020776.0
27	18	11	34	689	46.0	1980773.0	128144.0	2065849.0
27	18	11	34	707	47.0	1842993.0	124851.0	1958071.0
27	18	11	34	708	48.0	1543898.0	126789.0	1672333.0
27	18	11	34	708	49.0	1267265.0	137318.0	1384789.0
27	18	11	34	709	50.0	1291386.0	138716.0	1389456.0
27	18	11	34	729	51.0	1405055.0	141121.0	1483448.0
27	18	11	34	730	52.0	1325761.0	150059.0	1381391.0
27	18	11	34	731	53.0	1050558.0	142975.0	1086399.0
27	18	11	34	731	54.0	839250.0	139291.0	869529.0
27	18	11	34	732	55.0	948849.0	145010.0	973729.0
27	18	11	34	733	56.0	1133169.0	144381.0	1169394.0
27	18	11	34	733	57.0	1154041.0	137886.0	1203883.0
27	18	11	34	734	58.0	1022549.0	138916.0	1076204.0
27	18	11	34	753	59.0	939957.0	134161.0	988466.0
27	18	11	34	753	60.0	1158119.0	125058.0	1205904.0
27	18	11	34	754	61.0	1444671.0	131521.0	1503656.0
27	18	11	34	779	62.0	1544014.0	138521.0	1623059.0
27	18	11	34	779	63.0	1453498.0	144361.0	1531431.0
27	18	11	34	780	64.0	1378590.0	148240.0	1435260.0
27	18	11	34	781	65.0	1599952.0	151786.0	1656183.0
27	18	11	34	781	66.0	1854434.0	138621.0	1895577.0
27	18	11	34	782	67.0	1894598.0	135743.0	1914646.0
27	18	11	34	782	68.0	1721844.0	136955.0	1711836.0
27	18	11	34	783	69.0	1606003.0	146697.0	1584698.0
27	18	11	34	802	70.0	1765083.0	152573.0	1748176.0
27	18	11	34	802	71.0	1890049.0	150731.0	1866653.0
27	18	11	34	803	72.0	1749499.0	140344.0	1710029.0
27	18	11	34	804	73.0	1425130.0	135409.0	1376855.0
27	18	11	34	804	74.0	1152119.0	127574.0	1099949.0
27	18	11	34	805	75.0	1129218.0	111198.0	1077879.0
27	18	11	34	805	76.0	1114023.0	84453.0	1078021.0
27	18	11	34	826	77.0	903569.0	62061.0	884923.0
27	18	11	34	827	78.0	567935.0	99436.0	553239.0
27	18	11	34	828	79.0	357458.0	190506.0	345686.0
27	18	11	34	828	80.0	481797.0	282349.0	454293.0
27	18	11	34	849	81.0	583899.0	352208.0	544221.0
27	18	11	34	850	82.0	503827.0	437636.0	472069.0
27	18	11	34	850	83.0	224616.0	455426.0	200453.0
27	18	11	34	851	84.0	-5232.0	401538.0	-28801.0
27	18	11	34	852	85.0	66984.0	316393.0	49782.0
27	18	11	34	852	86.0	218161.0	314724.0	204036.0
27	18	11	34	853	87.0	161156.0	260785.0	153916.0
27	18	11	34	853	88.0	-98042.0	176398.0	-89684.0
27	18	11	34	872	89.0	-247581.0	144449.0	-233963.0
27	18	11	34	872	90.0	-74745.0	142779.0	-48848.0
27	18	11	34	873	91.0	89614.0	135284.0	118686.0
27	18	11	34	894	92.0	90088.0	120964.0	107745.0
27	18	11	34	895	93.0	-46729.0	120627.0	-31757.0
27	18	11	34	895	94.0	-88164.0	123528.0	-62627.0
27	18	11	34	896	95.0	187084.0	127453.0	215834.0
27	18	11	34	897	96.0	434892.0	125336.0	473531.0
27	18	11	34	897	97.0	508577.0	126137.0	533666.0
27	18	11	34	898	98.0	389761.0	123092.0	398378.0
27	18	11	34	898	99.0	365511.0	117939.0	367494.0
27	18	11	34	917	100.0	633236.0	111487.0	627982.0
27	18	11	34	917	101.0	820169.0	120008.0	818652.0
27	18	11	34	918	102.0	794566.0	121768.0	795728.0
27	18	11	34	919	103.0	612189.0	118294.0	611443.0
27	18	11	34	938	104.0	596636.0	114174.0	575709.0
27	18	11	34	939	105.0	881747.0	115800.0	872822.0
27	18	11	34	939	106.0	1150532.0	106556.0	1154452.0
27	18	11	34	940	107.0	1260434.0	108241.0	1249708.0
27	18	11	34	941	108.0	1212138.0	111625.0	1190855.0
27	18	11	34	942	109.0	1260005.0	110517.0	1255226.0
27	18	11	34	942	110.0	1589861.0	104407.0	1597943.0
27	18	11	34	960	111.0	1830675.0	105187.0	1833886.0
27	18	11	34	961	112.0	1746750.0	100172.0	1763613.0
27	18	11	34	962	113.0	1465541.0	100136.0	1486433.0
27	18	11	34	962	114.0	1328978.0	108143.0	1355626.0
27	18	11	34	983	115.0	1457032.0	101423.0	1501064.0
27	18	11	34	984	116.0	1507953.0	93699.0	1573149.0
27	18	11	34	985	117.0	1302631.0	88977.0	1375993.0
27	18	11	34	985	118.0	946043.0	84760.0	1009459.0
27	18	11	34	986	119.0	788787.0	86706.0	849522.0
27	18	11	34	986	120.0	919448.0	88687.0	980029.0
27	18	11	34	987	121.0	978181.0	83828.0	1045898.0
27	18	11	35	8	122.0	862103.0	81002.0	946547.0
27	18	11	35	8	123.0	676864.0	82792.0	768182.0
27	18	11	35	9	124.0	719801.0	78029.0	795435.0
27	18	11	35	10	125.0	1022749.0	78684.0	1096448.0
27	18	11	35	30	126.0	1262944.0	74851.0	1325394.0
27	18	11	35	30	127.0	1288498.0	70370.0	1334656.0
27	18	11	35	31	128.0	1175436.0	59169.0	1227008.0
27	18	11	35	31	129.0	1247179.0	56736.0	1307000.0
27	18	11	35	32	130.0	1550573.0	55028.0	1626141.0
27	18	11	35	32	131.0	1716400.0	54658.0	1807839.0
27	18	11	35	33	132.0	1604787.0	45049.0	1715482.0
27	18	11	35	34	133.0	1343238.0	47019.0	1459373.0
27	18	11	35	54	134.0	1300874.0	50353.0	1419268.0
27	18	11	35	55	135.0	1542517.0	46376.0	1633575.0
27	18	11	35	55	136.0	1700242.0	43642.0	1759396.0
27	18	11	35	77	137.0	1627089.0	49559.0	1684656.0
27	18	11	35	78	138.0	1419286.0	47786.0	1493587.0
27	18	11	35	78	139.0	1425460.0	50580.0	1489728.0
27	18	11	35	79	140.0	1644858.0	49110.0	1713354.0
27	18	11	35	99	141.0	1697238.0	42069.0	1772752.0
27	18	11	35	100	142.0	1523481.0	48967.0	1602258.0
27	18	11	35	101	143.0	1188732.0	60363.0	1287274.0
27	18	11	35	101	144.0	1066464.0	61189.0	1164764.0
27	18	11	35	102	145.0	1139996.0	70369.0	1229294.0
27	18	11	35	102	146.0	1055933.0	74935.0	1123046.0
27	18	11	35	103	147.0	785386.0	75463.0	828430.0
27	18	11	35	103	148.0	433121.0	85684.0	458098.0
27	18	11	35	125	149.0	346448.0	96326.0	355262.0
27	18	11	35	126	150.0	477266.0	108093.0	483914.0
27	18	11	35	126	151.0	476239.0	116883.0	486338.0
27	18	11	35	127	152.0	292850.0	123700.0	288145.0
27	18	11	35	127	153.0	5147.0	128823.0	-19716.0
27	18	11	35	128	154.0	-54834.0	134454.0	-87067.0
27	18	11	35	128	155.0	116919.0	138692.0	94904.0
27	18	11	35	148	156.0	144493.0	145497.0	142844.0
27	18	11	35	149	157.0	-35809.0	153754.0	-11167.0
27	18	11	35	149	158.0	-294809.0	152924.0	-260331.0
27	18	11	35	150	159.0	-281997.0	157299.0	-247501.0
27	18	11	35	151	160.0	-64142.0	155304.0	-28044.0
27	18	11	35	151	161.0	-5978.0	152519.0	42748.0
27	18	11	35	152	162.0	-121189.0	157647.0	-75058.0
27	18	11	35	170	163.0	-231192.0	167111.0	-204189.0
27	18	11	35	171	164.0	-71698.0	169812.0	-64401.0
27	18	11	35	171	165.0	253825.0	170226.0	258624.0
27	18	11	35	172	166.0	423416.0	162757.0	439235.0
27	18	11	35	193	167.0	425211.0	154088.0	445314.0
27	18	11	35	194	168.0	358964.0	162646.0	386723.0
27	18	11	35	195	169.0	545942.0	172371.0	585958.0
27	18	11	35	195	170.0	916356.0	165236.0	975706.0
27	18	11	35	196	171.0	1145709.0	164114.0	1205136.0
27	18	11	35	196	172.0	1137386.0	163829.0	1192898.0
27	18	11	35	197	173.0	1037678.0	153476.0	1102273.0
27	18	11	35	197	174.0	1193404.0	151271.0	1272553.0
27	18	11	35	216	175.0	1516229.0	165323.0	1591448.0
27	18	11	35	217	176.0	1648047.0	167083.0	1718739.0
27	18	11	35	217	177.0	1562294.0	163714.0	1616529.0
27	18	11	35	239	178.0	1434837.0	164032.0	1470134.0
27	18	11	35	240	179.0	1541486.0	155043.0	1593945.0
27	18	11	35	241	180.0	1797050.0	151936.0	1868958.0
27	18	11	35	241	181.0	1889301.0	159983.0	1971109.0
27	18	11	35	242	182.0	1735566.0	166014.0	1816838.0
27	18	11	35	242	183.0	1541056.0	170803.0	1617677.0
27	18	11	35	243	184.0	1633167.0	165414.0	1717648.0
27	18	11	35	243	185.0	1890841.0	158891.0	1973493.0
27	18	11	35	262	186.0	1988699.0	151144.0	2069301.0
27	18	11	35	263	187.0	1863455.0	148765.0	1939459.0
27	18	11	35	263	188.0	1731119.0	158546.0	1813253.0
27	18	11	35	264	189.0	1920298.0	173699.0	2015178.0
27	18	11	35	285	190.0	2271301.0	172008.0	2371456.0
27	18	11	35	286	191.0	2467317.0	169201.0	2552061.0
27	18	11	35	287	192.0	2427928.0	166013.0	2496455.0
27	18	11	35	287	193.0	2331940.0	165698.0	2404266.0
27	18	11	35	288	194.0	2538548.0	166852.0	2625011.0
27	18	11	35	288	195.0	2853159.0	177682.0	2949068.0
27	18	11	35	289	196.0	2940129.0	172263.0	3039316.0
27	18	11	35	309	197.0	2797426.0	166823.0	2900207.0
27	18	11	35	309	198.0	2613279.0	170301.0	2716956.0
27	18	11	35	310	199.0	2708658.0	164923.0	2819635.0
27	18	11	35	310	200.0	2892567.0	165484.0	3002908.0
27	18	11	35	331	201.0	2869751.0	178580.0	2960070.0
27	18	11	35	332	202.0	2607693.0	187171.0	2687756.0
27	18	11	35	332	203.0	2333957.0	188842.0	2415853.0
27	18	11	35	333	204.0	2409269.0	187189.0	2503388.0
27	18	11	35	333	205.0	2610478.0	177085.0	2700929.0
27	18	11	35	334	206.0	2593349.0	177601.0	2667984.0
27	18	11	35	335	207.0	2354193.0	182076.0	2417951.0
27	18	11	35	355	208.0	2162280.0	188163.0	2214529.0
27	18	11	35	355	209.0	2331380.0	193153.0	2373812.0
27	18	11	35	356	210.0	2574346.0	190388.0	2629249.0
27	18	11	35	357	211.0	2591899.0	186828.0	2665130.0
27	18	11	35	377	212.0	2393843.0	180506.0	2466771.0
27	18	11	35	378	213.0	2245363.0	182413.0	2319834.0
27	18	11	35	378	214.0	2409134.0	189464.0	2496658.0
27	18	11	35	379	215.0	2634621.0	195228.0	2727488.0
27	18	11	35	380	216.0	2623126.0	194084.0	2712659.0
27	18	11	35	380	217.0	2388250.0	196211.0	2479291.0
27	18	11	35	381	218.0	2260274.0	193698.0	2346224.0
27	18	11	35	381	219.0	2435369.0	187476.0	2528785.0
27	18	11	35	401	220.0	2625621.0	191816.0	2739364.0
27	18	11	35	402	221.0	2622668.0	200202.0	2745872.0
27	18	11	35	402	222.0	2407183.0	195886.0	2521382.0
27	18	11	35	423	223.0	2252973.0	195543.0	2365412.0
27	18	11	35	424	224.0	2468268.0	199298.0	2567224.0
27	18	11	35	425	225.0	2696097.0	191469.0	2791911.0
27	18	11	35	425	226.0	2679749.0	189461.0	2779759.0
27	18	11	35	426	227.0	2445732.0	194279.0	2537189.0
27	18	11	35	426	228.0	2291394.0	197309.0	2392865.0
27	18	11	35	427	229.0	2509428.0	199894.0	2629343.0
27	18	11	35	427	230.0	2798213.0	200674.0	2919335.0
27	18	11	35	446	231.0	2820234.0	191141.0	2927977.0
27	18	11	35	447	232.0	2608251.0	194129.0	2719652.0
27	18	11	35	448	233.0	2492058.0	201031.0	2615777.0
27	18	11	35	448	234.0	2745189.0	210363.0	2866125.0
27	18	11	35	449	235.0	3028468.0	209291.0	3148261.0
27	18	11	35	449	236.0	3055576.0	207673.0	3171736.0
27	18	11	35	450	237.0	2845863.0	199029.0	2945884.0
27	18	11	35	479	238.0	2732100.0	197294.0	2811323.0
27	18	11	35	480	239.0	2949823.0	199729.0	3045798.0
27	18	11	35	481	240.0	3164522.0	204761.0	3276101.0
27	18	11	35	481	241.0	3115745.0	206348.0	3237034.0
27	18	11	35	482	242.0	2882871.0	200054.0	3013853.0
27	18	11	35	483	243.0	2804929.0	197313.0	2957539.0
27	18	11	35	483	244.0	3054574.0	198199.0	3216174.0
27	18	11	35	484	245.0	3252098.0	197794.0	3416996.0
27	18	11	35	499	246.0	3159653.0	204311.0	3338869.0
27	18	11	35	500	247.0	2848957.0	213263.0	3015379.0
27	18	11	35	501	248.0	2691267.0	212634.0	2830799.0
27	18	11	35	523	249.0	2894414.0	205944.0	3022066.0
27	18	11	35	523	250.0	3049840.0	202720.0	3184963.0
27	18	11	35	524	251.0	2947428.0	198109.0	3086429.0
27	18	11	35	525	252.0	2663166.0	202731.0	2810354.0
27	18	11	35	525	253.0	2531013.0	211614.0	2684301.0
27	18	11	35	526	254.0	2786324.0	211154.0	2931516.0
27	18	11	35	526	255.0	2957675.0	211576.0	3095479.0
27	18	11	35	527	0.0	2841012.0	207376.0	2979580.0
27	18	11	35	545	1.0	2534987.0	183838.0	2678266.0
27	18	11	35	546	2.0	2382420.0	154896.0	2533397.0
27	18	11	35	546	3.0	2571057.0	134013.0	2747477.0
27	18	11	35	547	4.0	2719445.0	117984.0	2906595.0
27	18	11	35	570	5.0	2566563.0	149431.0	2740776.0
27	18	11	35	570	6.0	2277224.0	250155.0	2448021.0
27	18	11	35	571	7.0	2209971.0	347535.0	2390531.0
27	18	11	35	572	8.0	2445109.0	417072.0	2645603.0
27	18	11	35	572	9.0	2628249.0	495831.0	2823334.0
27	18	11	35	573	10.0	2485359.0	526943.0	2667319.0
27	18	11	35	573	11.0	2160811.0	490349.0	2323204.0
27	18	11	35	593	12.0	2063171.0	412981.0	2197708.0
27	18	11	35	594	13.0	2349563.0	411746.0	2469409.0
27	18	11	35	594	14.0	2497358.0	352683.0	2622514.0
27	18	11	35	616	15.0	2384246.0	247983.0	2513301.0
27	18	11	35	616	16.0	2228681.0	213577.0	2342823.0
27	18	11	35	617	17.0	2348901.0	206542.0	2456426.0
27	18	11	35	618	18.0	2779791.0	193132.0	2895299.0
27	18	11	35	618	19.0	3154251.0	182663.0	3274517.0
27	18	11	35	619	20.0	3261364.0	176808.0	3389468.0
27	18	11	35	620	21.0	3206224.0	173509.0	3336528.0
27	18	11	35	620	22.0	3318717.0	178989.0	3447671.0
27	18	11	35	639	23.0	3739205.0	180163.0	3879422.0
27	18	11	35	639	24.0	4037909.0	175229.0	4184205.0
27	18	11	35	640	25.0	4011554.0	172664.0	4162549.0
27	18	11	35	640	26.0	3823187.0	167941.0	3956194.0
27	18	11	35	662	27.0	3803286.0	159981.0	3933633.0
27	18	11	35	663	28.0	4025153.0	166037.0	4157312.0
27	18	11	35	664	29.0	4108480.0	170053.0	4234908.0
27	18	11	35	664	30.0	3909234.0	162773.0	4025450.0
27	18	11	35	665	31.0	3565007.0	161946.0	3662528.0
27	18	11	35	665	32.0	3466296.0	165354.0	3552784.0
27	18	11	35	666	33.0	3664755.0	163981.0	3741258.0
27	18	11	35	667	34.0	3762174.0	162026.0	3842054.0
27	18	11	35	686	35.0	3572213.0	160961.0	3652144.0
27	18	11	35	687	36.0	3255454.0	161291.0	3337352.0
27	18	11	35	687	37.0	3209049.0	158449.0	3313544.0
27	18	11	35	709	38.0	3488533.0	154559.0	3639831.0
27	18	11	35	709	39.0	3654484.0	153644.0	3818219.0
27	18	11	35	710	40.0	3506245.0	151105.0	3641992.0
27	18	11	35	710	41.0	3192687.0	149779.0	3307881.0
27	18	11	35	711	42.0	3155910.0	156884.0	3265831.0
27	18	11	35	711	43.0	3421496.0	155897.0	3519614.0
27	18	11	35	712	44.0	3508996.0	146312.0	3597681.0
27	18	11	35	713	45.0	3308321.0	141584.0	3396148.0
27	18	11	35	733	46.0	2985761.0	133361.0	3073771.0
27	18	11	35	733	47.0	2978912.0	135284.0	3040938.0
27	18	11	35	734	48.0	3304724.0	140916.0	3353514.0
27	18	11	35	734	49.0	3505433.0	134338.0	3535090.0
27	18	11	35	735	50.0	3507754.0	124660.0	3524353.0
27	18	11	35	736	51.0	3469504.0	128449.0	3473487.0
27	18	11	35	736	52.0	3762340.0	121625.0	3744211.0
27	18	11	35	756	53.0	4319503.0	112259.0	4303413.0
27	18	11	35	756	54.0	4637853.0	117178.0	4637047.0
27	18	11	35	757	55.0	4669096.0	114969.0	4651025.0
27	18	11	35	757	56.0	4591383.0	109943.0	4557934.0
27	18	11	35	778	57.0	4778081.0	105454.0	4750153.0
27	18	11	35	778	58.0	5137864.0	98008.0	5113911.0
27	18	11	35	779	59.0	5240791.0	88384.0	5224442.0
27	18	11	35	780	60.0	5008931.0	88644.0	5010054.0
27	18	11	35	780	61.0	4672528.0	95837.0	4688340.0
27	18	11	35	781	62.0	4641698.0	100177.0	4675694.0
27	18	11	35	781	63.0	4847478.0	98598.0	4889581.0
27	18	11	35	782	64.0	4889933.0	95224.0	4919646.0
27	18	11	35	802	65.0	4693234.0	93849.0	4717947.0
27	18	11	35	802	66.0	4428769.0	94079.0	4451138.0
27	18	11	35	803	67.0	4486091.0	100597.0	4513660.0
27	18	11	35	824	68.0	4729867.0	106741.0	4767884.0
27	18	11	35	825	69.0	4702110.0	109669.0	4747924.0
27	18	11	35	825	70.0	4381586.0	109213.0	4431762.0
