Time_s,Raw_mV,Denoised_mV
0.0,0.46573839146161644,-0.5680748177496666
0.002777777777777778,0.4653628673918004,-0.5647042518445383
0.005555555555555556,0.48227280158638236,-0.5434383741788568
0.008333333333333333,0.5040386379805414,-0.5261047192767265
0.011111111111111112,0.4922330340431528,-0.5324473790532586
0.013888888888888888,0.4593554468003008,-0.5598758469946941
0.016666666666666666,0.43598235747934405,-0.5935222399889181
0.019444444444444445,0.4016370062068296,-0.618919726449664
0.022222222222222223,0.39290518061275637,-0.6235190289170566
0.025,0.42293257516581345,-0.60609679036523
0.027777777777777776,0.42737625487231007,-0.5863190186296529
0.030555555555555555,0.419595496944553,-0.5920517074164625
0.03333333333333333,0.3750227265063394,-0.6276698354316049
0.03611111111111111,0.3693414728165614,-0.6576065538322458
0.03888888888888889,0.3381680299088261,-0.6516801631510061
0.041666666666666664,0.3557997043438492,-0.6496219558805226
0.044444444444444446,0.31633778785612693,-0.7134162362235005
0.04722222222222222,0.14661885015645656,-0.8084989228439288
0.05,0.19489050811636768,-0.8374504933608448
0.05277777777777778,0.15419746735727527,-0.8025663667748628
0.05555555555555555,0.21260231834186596,-0.8065588393989346
0.058333333333333334,0.09470815679883245,-0.8755764082802421
0.06111111111111111,0.053076606308929644,-0.9108048596695657
0.06388888888888888,0.17008193842603578,-0.8469092070358561
0.06666666666666667,0.1614792913167892,-0.7572354168143925
0.06944444444444445,0.1930092691853384,-0.7400238073314352
0.07222222222222222,0.2325431110343721,-0.747272712036098
0.075,0.2116622026512349,-0.6381001326207119
0.07777777777777778,0.5425137621145725,-0.4200985197669188
0.08055555555555556,0.6642507791564317,-0.27358343822769116
0.08333333333333333,0.5906076974866794,-0.2781293395576595
0.08611111111111111,0.6173675531209357,-0.31281888716200307
0.08888888888888889,0.6158312016332184,-0.2804517258650632
0.09166666666666666,0.6618805995554818,-0.22756669842592434
0.09444444444444444,0.6709093789410516,-0.21173838094575767
0.09722222222222222,0.6857247197940413,-0.21872247855878413
0.1,0.6472508342945132,-0.22606320562434512
0.10277777777777777,0.6534770873597766,-0.23916040546983622
0.10555555555555556,0.6234654601762395,-0.2560652588299779
0.10833333333333334,0.617495849000945,-0.2557790496732903
0.1111111111111111,0.6431589913487723,-0.23155152491058098
0.11388888888888889,0.6657370327936464,-0.20651950225283544
0.11666666666666667,0.6589769960394378,-0.20364990518224096
0.11944444444444445,0.651211707070543,-0.21735532818041955
0.12222222222222222,0.6305378406399885,-0.2271577478780159
0.125,0.6401580205682248,-0.22409541236794675
0.12777777777777777,0.6467826120672111,-0.2128680645012617
0.13055555555555556,0.6446486483479626,-0.2015710656734533
0.13333333333333333,0.6666815206997165,-0.19473791732453946
0.1361111111111111,0.6644141278222107,-0.1871021757737143
0.1388888888888889,0.6539991345619668,-0.16646995555130206
0.14166666666666666,0.7412025694458675,-0.12744933659255814
0.14444444444444443,0.7307672298236502,-0.08344585150183172
0.14722222222222223,0.7609775304244806,-0.06742690919017746
0.15,0.7511748632071441,-0.09668753355639877
0.1527777777777778,0.6939500482094192,-0.12732071802036532
0.15555555555555556,0.6994291043390866,-0.10144945203094045
0.15833333333333333,0.806839144244223,-0.04419628060544188
0.16111111111111112,0.7760826494225058,-0.026092380182785074
0.1638888888888889,0.7696206713020355,-0.04380023839620748
0.16666666666666666,0.7723667178552903,-0.03967747104708425
0.16944444444444445,0.7885793786917493,-0.008248036404776877
0.17222222222222222,0.7921887719080174,0.00696977518040639
0.175,0.7769820917663397,-0.009440378510513018
0.17777777777777778,0.756675857749253,-0.025249300583028596
0.18055555555555555,0.789335197258111,-0.0038668343969612265
0.18333333333333332,0.7938409426178206,0.03509653834364646
0.18611111111111112,0.8008303634574971,0.013074485354598311
0.18888888888888888,0.6909272501150531,-0.09548354443543926
0.19166666666666668,0.5571331129183807,-0.19336192605453945
0.19444444444444445,0.5827995354884129,-0.19855715495714815
0.19722222222222222,0.5874666633382224,-0.1683393092674459
0.2,0.6177686581044677,-0.1655572346134994
0.20277777777777778,0.589763988434181,-0.12968672402403594
0.20555555555555555,0.759401522334985,-0.01756592595490112
0.20833333333333334,0.8337187545851634,0.07799089377448239
0.2111111111111111,0.7998982276506491,0.07774391733181094
0.21388888888888888,0.7881242343078243,0.0375881065014208
0.21666666666666667,0.7631059798415676,0.03226051105096206
0.21944444444444444,0.7920819182577549,0.05277833602894075
0.2222222222222222,0.7889093601645156,0.07018344171132203
0.225,0.8243970277445056,0.088077169631694
0.22777777777777777,0.8226538590723707,0.10480091967602341
0.23055555555555557,0.8278700742860705,0.10301534747700225
0.23333333333333334,0.8049067317241416,0.08532590040743863
0.2361111111111111,0.7841255584821734,0.07185339161925149
0.2388888888888889,0.795474202739671,0.07227991439892582
0.24166666666666667,0.8026695791983903,0.08705717599636303
0.24444444444444444,0.8108048089973848,0.108639565733733
0.24722222222222223,0.8320617642373602,0.109509790775134
0.25,0.7757965662633237,0.06611098633313753
0.25277777777777777,0.6952309888747776,-0.01195871188491864
0.25555555555555554,0.5895816177278046,-0.1040108501676737
0.25833333333333336,0.5562495850409778,-0.18011689079647106
0.2611111111111111,0.5211847275119643,-0.1556947272251175
0.2638888888888889,0.7755572799751319,0.07533343779450187
0.26666666666666666,1.252240268665419,0.5249308446274931
0.26944444444444443,1.7413064355792487,1.0662151665986133
0.2722222222222222,2.1951930076545785,1.5045675676352366
0.275,2.4379992951487934,1.7161577829767998
0.2777777777777778,2.441780671447009,1.7644152721575779
0.28055555555555556,2.495706321943214,1.816796816995125
0.2833333333333333,2.6193562922708713,1.904920826845086
0.2861111111111111,2.5583314930532457,1.8878820025436116
0.28888888888888886,2.3818652634018003,1.6789254523150698
0.2916666666666667,2.03145163411571,1.3488519348885022
0.29444444444444445,1.7071330318603115,0.9883584903075252
0.2972222222222222,1.3350453314220467,0.6288102978472986
0.3,1.0020955262254931,0.31192573004619506
0.30277777777777776,0.8357650776117695,0.10227486717511962
0.3055555555555556,0.6987443719819938,0.007750934836416291
0.30833333333333335,0.6770059768469535,-0.034031698000115115
0.3111111111111111,0.6409621097395668,-0.07584369266860712
0.3138888888888889,0.598047180297302,-0.10857271370862266
0.31666666666666665,0.6221083252153037,-0.10347753768773581
0.3194444444444444,0.6291647936354557,-0.07839386068369371
0.32222222222222224,0.6461388583337977,-0.08130760652198948
0.325,0.607342514588544,-0.11741536065537424
0.3277777777777778,0.5552225042450991,-0.14838569887767056
0.33055555555555555,0.5761722579954665,-0.1621135297565059
0.3333333333333333,0.5241414007205396,-0.1822874110801319
0.33611111111111114,0.5017165704646236,-0.21574199491226137
0.3388888888888889,0.46736892098259464,-0.24700165593573775
0.3416666666666667,0.45683615118789717,-0.26744255904241493
0.34444444444444444,0.44414031905563156,-0.27068851362476054
0.3472222222222222,0.4508893411759152,-0.25096860766229334
0.35,0.5160548385510831,-0.2244826893988898
0.3527777777777778,0.4830287074080565,-0.21683726348187612
0.35555555555555557,0.4845666026355657,-0.23185145243772246
0.35833333333333334,0.4738636534298876,-0.2570307424563519
0.3611111111111111,0.4305947957415552,-0.2780215530219215
0.3638888888888889,0.4506857916299915,-0.2786269971196249
0.36666666666666664,0.45402327634400225,-0.25583799693714815
0.36944444444444446,0.4946045892234166,-0.23109862418066313
0.37222222222222223,0.48905114871712924,-0.22597814635238284
0.375,0.4703698006797745,-0.24331520512436122
0.37777777777777777,0.44147171109600764,-0.2776910893247484
0.38055555555555554,0.400903947267533,-0.31443960282381694
0.38333333333333336,0.3856499055637812,-0.3245709244716747
0.3861111111111111,0.4090984448507025,-0.29905756636669467
0.3888888888888889,0.44568675232221633,-0.2752961698618347
0.39166666666666666,0.4026179658793523,-0.2912617730128098
0.39444444444444443,0.395217884436554,-0.3328638946179261
0.3972222222222222,0.3271089814695838,-0.36381409289814226
0.4,0.33053956362136744,-0.381697191709227
0.4027777777777778,0.30867971003718,-0.4025361234041244
0.40555555555555556,0.26898686896896906,-0.4180950981244106
0.4083333333333333,0.2970145638511335,-0.41802063200758793
0.4111111111111111,0.2672182063672646,-0.4275146872101494
0.41388888888888886,0.23081392762475958,-0.4701990816173921
0.4166666666666667,0.18301129547646083,-0.5191109395229826
0.41944444444444445,0.152820112245874,-0.5353816028005575
0.4222222222222222,0.17111990616688938,-0.5287358173207259
0.425,0.16869422772726567,-0.5330534760393894
0.42777777777777776,0.12629264463115897,-0.553244339472512
0.4305555555555556,0.1330980273555293,-0.5778510624179691
0.43333333333333335,0.08309811181239787,-0.607071147099935
0.4361111111111111,0.06285380116024726,-0.6346656989343251
0.4388888888888889,0.05328145093465192,-0.6427128922482568
0.44166666666666665,0.055335344176083344,-0.634253654010809
0.4444444444444444,0.07203634690519928,-0.6314902004472471
0.44722222222222224,0.039894857786118135,-0.641158396374129
0.45,0.030503229269216284,-0.6575189360312266
0.4527777777777778,0.020707927424298344,-0.6791512723532614
0.45555555555555555,-0.01902388361474208,-0.6935300609568648
0.4583333333333333,0.0019128585293608595,-0.6817153890343256
0.46111111111111114,0.03522468250191201,-0.6565174140017542
0.4638888888888889,0.019787525968110592,-0.6529401601597995
0.4666666666666667,0.002975149339324336,-0.6770971207540788
0.46944444444444444,-0.022028554441570442,-0.7024196022639655
0.4722222222222222,-0.035636442772164545,-0.706619067262288
0.475,-0.0056491598039961725,-0.6872556474738225
0.4777777777777778,0.002438264659100158,-0.6573183746043414
0.48055555555555557,0.04832331668644685,-0.6351565088501102
0.48333333333333334,0.03814786685351424,-0.6256090978138537
0.4861111111111111,0.044158474755119886,-0.6185586532781204
0.4888888888888889,0.06389907472322627,-0.608229455161114
0.49166666666666664,0.07361642623396265,-0.5903636564059266
0.49444444444444446,0.11356792135615984,-0.553170200153429
0.49722222222222223,0.16324652123543898,-0.5027915561456854
0.5,0.2101728200937223,-0.4687178912778969
0.5027777777777778,0.19986504211525577,-0.45785298761389626
0.5055555555555555,0.21411449558101675,-0.446779973313461
0.5083333333333333,0.24500021030825783,-0.42578512670292973
0.5111111111111111,0.26353829037595083,-0.39571377606898805
0.5138888888888888,0.3065926306939527,-0.3396641751046827
0.5166666666666667,0.4059895157603318,-0.25640486278672675
0.5194444444444445,0.4634433448516577,-0.1864158409812148
0.5222222222222223,0.4842403983924521,-0.1567221408117351
0.525,0.5040351566843562,-0.14421911355897876
0.5277777777777778,0.5152398774584505,-0.12234168460783912
0.5305555555555556,0.5419637193503191,-0.0933705305456931
0.5333333333333333,0.5759836551073014,-0.0588872932337062
0.5361111111111111,0.6256308746163343,-0.012381917291707545
0.5388888888888889,0.6450075836240835,0.026578563659538364
0.5416666666666666,0.6742671256189107,0.027134012618313243
0.5444444444444444,0.6239236513274511,0.006913763958061918
0.5472222222222223,0.6377516238243203,0.016639175160396882
0.55,0.6948408020225163,0.060347361084792994
0.5527777777777778,0.7153094717723225,0.09526281379820607
0.5555555555555556,0.7195014059216759,0.10262665986289206
0.5583333333333333,0.7167975767075284,0.095308665784208
0.5611111111111111,0.7072404607525757,0.07749392685579069
0.5638888888888889,0.6566158510603604,0.05144182434554361
0.5666666666666667,0.6657325454374662,0.03711222006402481
0.5694444444444444,0.6605478876511107,0.04864094873800387
0.5722222222222222,0.6901082743184279,0.07353454804481561
0.575,0.702175328884306,0.08861256422304044
0.5777777777777777,0.6936031143460029,0.08085450167982618
0.5805555555555556,0.6665433729575183,0.056168089312564694
0.5833333333333334,0.6506259599762068,0.03677139579053921
0.5861111111111111,0.6411544474916309,0.03744793230439284
0.5888888888888889,0.6522054702068377,0.045125173401744205
0.5916666666666667,0.6590874644720218,0.041253885165085
0.5944444444444444,0.6176141641077635,0.03150168194427526
0.5972222222222222,0.6472536497580655,0.027099846733309563
0.6,0.61432719651611,0.019619665792473234
0.6027777777777777,0.6074507076346424,0.004193635686133562
0.6055555555555555,0.6019370650083845,0.0020602864835863417
0.6083333333333333,0.6307955396755689,0.0316346887805676
0.6111111111111112,0.6753642200865728,0.07579100079348224
0.6138888888888889,0.6905827119704684,0.09878233405208388
0.6166666666666667,0.6906770068033415,0.08789624296840957
0.6194444444444445,0.6541178363409054,0.06523387399868354
0.6222222222222222,0.6546986119167889,0.05860825885909677
0.625,0.674885320075564,0.07287787815967432
0.6277777777777778,0.6872367508717231,0.09441220689627709
0.6305555555555555,0.7057967825191311,0.10990807059395782
0.6333333333333333,0.7136781292695733,0.11390181571646452
0.6361111111111111,0.7034398323181645,0.10811660788877933
0.6388888888888888,0.6936113621282584,0.0982384152426425
0.6416666666666667,0.6943683611498911,0.09152952083025133
0.6444444444444445,0.6954818966685853,0.09823252759099213
0.6472222222222223,0.7172040152888143,0.12248165141163607
0.65,0.7480887365916774,0.1474988182098127
0.6527777777777778,0.7575523911764357,0.15118283216695635
0.6555555555555556,0.7333346171727302,0.137691055324942
0.6583333333333333,0.7461345946179656,0.12887200176445718
0.6611111111111111,0.726073706380311,0.13223391579960542
0.6638888888888889,0.7591042873957699,0.14344973766409091
0.6666666666666666,0.7637314284265619,0.16348708094669254
0.6694444444444444,0.7901169470272054,0.18722797713127287
0.6722222222222223,0.814609224662406,0.19735407832591392
0.675,0.785896516226836,0.18988682410684113
0.6777777777777778,0.7898936286806961,0.1799525425139735
0.6805555555555556,0.7829428493580306,0.17377383735897275
0.6833333333333333,0.7673926614140162,0.16623993244630844
0.6861111111111111,0.7693444332151722,0.1649779279410342
0.6888888888888889,0.7878416118937326,0.18296976496479386
0.6916666666666667,0.8109567794697844,0.2096658729432862
0.6944444444444444,0.8180289503964662,0.21722443705567834
0.6972222222222222,0.799604728322185,0.19669472309132
0.7,0.7689114190009918,0.17035276535786317
0.7027777777777777,0.7621633851038906,0.1639400258570098
0.7055555555555556,0.780403929674928,0.17900886085480985
0.7083333333333334,0.7947766025191345,0.1998474125968725
0.7111111111111111,0.8138416576709947,0.21501176122850008
0.7138888888888889,0.8153699088528642,0.22006164597916228
0.7166666666666667,0.8066582354067316,0.21159478796632455
0.7194444444444444,0.7920895980203575,0.19423311327447373
0.7222222222222222,0.7745051265914134,0.18432347404066546
0.725,0.7871537555166489,0.19246652485089744
0.7277777777777777,0.8065989109427755,0.20863263158411852
0.7305555555555555,0.797276848082791,0.21595937436479565
0.7333333333333333,0.8180945078376873,0.21529973776541625
0.7361111111111112,0.809241931817704,0.22134512904147904
0.7388888888888889,0.8124137192185436,0.23105804433023483
0.7416666666666667,0.8263872951726337,0.2221070985809561
0.7444444444444445,0.7796637401123228,0.19960383273865198
0.7472222222222222,0.7946552120597213,0.20433622911080063
0.75,0.8320563666860311,0.2462548523045205
0.7527777777777778,0.87447160958998,0.2802627259751299
0.7555555555555555,0.8575524620418878,0.27567251795344117
0.7583333333333333,0.8376327289275911,0.25305077690004246
0.7611111111111111,0.8262348010684919,0.2371071533509079
0.7638888888888888,0.8213653627606272,0.23217442721745304
0.7666666666666667,0.819051949657333,0.24385381090352806
0.7694444444444445,0.8621309474366105,0.2711337672596475
0.7722222222222223,0.8744541821959189,0.29038068630619224
0.775,0.8661786274077883,0.28348083778425526
0.7777777777777778,0.8353470474567225,0.25654272417565166
0.7805555555555556,0.806951968499008,0.21911310433330675
0.7833333333333333,0.7660322864923214,0.18233889364356565
0.7861111111111111,0.7415744550405476,0.1689038898501278
0.7888888888888889,0.7738597808126397,0.18190261350363948
0.7916666666666666,0.7575453475400441,0.1856984923085765
0.7944444444444444,0.7449930905114456,0.1554204349700528
0.7972222222222223,0.6863964032413827,0.11329537719460041
0.8,0.6673341013279742,0.08876757057958443
0.8027777777777778,0.6730520451805279,0.08330426465703722
0.8055555555555556,0.6586255800607064,0.08856013487649735
0.8083333333333333,0.671109927268162,0.09447567176423118
0.8111111111111111,0.6706443914954269,0.08251171537883323
0.8138888888888889,0.624751076906083,0.05065461164771774
0.8166666666666667,0.5932561534861954,0.020235277217167287
0.8194444444444444,0.5758718126559129,-0.003063565634584699
0.8222222222222222,0.5654957710224416,-0.024349170624248167
0.825,0.5390734563324547,-0.021049534016978858
0.8277777777777777,0.6020340726182394,0.022507068935766178
0.8305555555555556,0.6631304893702893,0.07250796087273267
0.8333333333333334,0.6605015902712473,0.09823569536446979
0.8361111111111111,0.6870338265896672,0.10905337696653122
0.8388888888888889,0.6847173652975472,0.10552527922798155
0.8416666666666667,0.6576238580016066,0.07935706118766911
0.8444444444444444,0.6393454702811937,0.06793084014611742
0.8472222222222222,0.6817859357665018,0.11242577588634539
0.85,0.7682440355348029,0.1790727031165314
0.8527777777777777,0.7754983514390258,0.2074053831000605
0.8555555555555555,0.7643902842569644,0.19811634979313117
0.8583333333333333,0.7748038068360419,0.18975531377441948
0.8611111111111112,0.7639905984376095,0.19862796966306875
0.8638888888888889,0.7899762034980776,0.22005992553592676
0.8666666666666667,0.8165509394413974,0.24434080475624
0.8694444444444445,0.8343785172297368,0.2589362675069367
0.8722222222222222,0.827475745655217,0.26028378494907106
0.875,0.8219352898287204,0.25372716325698214
0.8777777777777778,0.8153463086655014,0.2409096480547703
0.8805555555555555,0.7956291493941996,0.22973576499261
0.8833333333333333,0.7974432137720591,0.2365914910742563
0.8861111111111111,0.8294180997497502,0.25621189384343424
0.8888888888888888,0.8328698799604345,0.26242553560260456
0.8916666666666667,0.8059913804372707,0.248772968597107
0.8944444444444445,0.8056728830433845,0.23058688339666183
0.8972222222222223,0.7801253673532331,0.21501215271595392
0.9,0.772766514502063,0.20525240284501342
0.9027777777777778,0.7756304036964337,0.21060392279521128
0.9055555555555556,0.7893003066541396,0.21912379507377389
0.9083333333333333,0.7550628717634679,0.18935801966791405
0.9111111111111111,0.6666681325653401,0.09897222691149386
0.9138888888888889,0.5502268004681797,-0.017246417607889506
0.9166666666666666,0.4804497946149297,-0.08657814249189415
0.9194444444444444,0.5362183982875349,-0.025848445984510585
0.9222222222222223,0.8110567126659419,0.2406153627054521
0.925,1.274730809218334,0.7055151527699132
0.9277777777777778,1.7372442725619313,1.1948715867383326
0.9305555555555556,2.073041917186796,1.482758768691381
0.9333333333333333,2.112731715426461,1.5523660417779903
0.9361111111111111,2.1207411337963604,1.5978008119206775
0.9388888888888889,2.2986301742508264,1.7148584653795473
0.9416666666666667,2.3366356129719095,1.790594248857178
0.9444444444444444,2.2851122739196343,1.7455501232243742
0.9472222222222222,2.196561324265902,1.644844112382969
0.95,2.0617994240018302,1.514607907759466
0.9527777777777777,1.8200531106258842,1.2746225074798148
0.9555555555555556,1.4492564685078941,0.911838789220095
0.9583333333333334,1.0938955460572928,0.5545786682573887
0.9611111111111111,0.879340581662339,0.3296945048593467
0.9638888888888889,0.7728484416951417,0.24390875658299144
0.9666666666666667,0.7536616490957412,0.22509637446935765
0.9694444444444444,0.7722746108514731,0.2183142666910904
0.9722222222222222,0.7216688884139688,0.21319813307705363
0.975,0.7415405145605135,0.20383907081701785
0.9777777777777777,0.6961319720511371,0.17403255022159855
0.9805555555555555,0.6539719487457187,0.1356504215374006
0.9833333333333333,0.6498099343951521,0.12744590338634457
0.9861111111111112,0.6804882561102669,0.1532537611939333
0.9888888888888889,0.6907099550873458,0.1728063590513075
0.9916666666666667,0.6927636913663119,0.16460301574411257
0.9944444444444445,0.6611863588904852,0.1448061762330305
0.9972222222222222,0.6381589227104717,0.12451955664523956
1.0,0.6179100667035052,0.10238019497157075
1.0027777777777778,0.5933499518501943,0.09178202746736445
1.0055555555555555,0.6085564121825322,0.10447243018786324
1.0083333333333333,0.6390612153820969,0.121467547330927
1.011111111111111,0.6159863372512153,0.12120462495101375
1.0138888888888888,0.620585033627627,0.10968238429831188
1.0166666666666666,0.5944610578934327,0.09472782530610692
1.0194444444444444,0.5793442364126089,0.07265790070853209
1.0222222222222221,0.5657442825689994,0.05579047541161593
1.025,0.5441916663247103,0.06190670755954252
1.0277777777777777,0.6031802397378817,0.07640541684701375
1.0305555555555554,0.5705776041330908,0.0730298738649179
1.0333333333333334,0.5415039196065686,0.052272979819592585
1.0361111111111112,0.5497401502933518,0.027279958926056135
1.038888888888889,0.5085897183123066,0.008353323690222509
1.0416666666666667,0.49577536152923996,0.005383456943819994
1.0444444444444445,0.5212039282266498,0.005436236021919371
1.0472222222222223,0.485233430540842,-0.024087000640596948
1.05,0.4090682126120037,-0.08179794807719128
1.0527777777777778,0.3820300163246339,-0.1300947231425725
1.0555555555555556,0.36217609163782394,-0.1519372413340668
1.0583333333333333,0.3329806357846345,-0.15866932106243645
1.0611111111111111,0.3600733507814246,-0.1551286125379456
1.0638888888888889,0.3706362225124845,-0.14069070171240616
1.0666666666666667,0.3649489256746509,-0.12964278271726554
1.0694444444444444,0.38075098932816553,-0.1396829177615195
1.0722222222222222,0.339520266435439,-0.1666925479539143
1.075,0.30868430402172814,-0.19240974722044882
1.0777777777777777,0.30561523091586057,-0.21368310194728773
1.0805555555555555,0.2682180867848475,-0.23859576216873143
1.0833333333333333,0.24773306460520553,-0.2594145935207164
1.086111111111111,0.25201829553276994,-0.2642289368943739
1.0888888888888888,0.23820859248253493,-0.26717592914750343
1.0916666666666666,0.2285505433857454,-0.2923652844399801
1.0944444444444446,0.16316775310086418,-0.3399633579402419
1.0972222222222223,0.12269353860865324,-0.39175757276331435
1.1,0.0923000654918994,-0.4327852815891805
1.1027777777777779,0.036381353808725383,-0.45937270965799515
1.1055555555555556,0.041159527006043445,-0.48387842967167366
1.1083333333333334,-0.0031178932062314014,-0.524396595563638
1.1111111111111112,-0.08445442749233839,-0.5815288999501628
1.113888888888889,-0.10953460565098656,-0.6453735969265676
1.1166666666666667,-0.2143813173206438,-0.7158660284344923
1.1194444444444445,-0.2576155278871128,-0.7874080257382807
1.1222222222222222,-0.323489901541586,-0.8386379725559754
1.125,-0.34972225503938276,-0.8647720938703022
1.1277777777777778,-0.34587076253315385,-0.885273299520205
1.1305555555555555,-0.3926190290903723,-0.9071530320533093
1.1333333333333333,-0.40649552683908724,-0.9228921157260224
1.136111111111111,-0.386757913957599,-0.9357452703634977
1.1388888888888888,-0.4357859093860623,-0.9444736236056669
1.1416666666666666,-0.40650753341606705,-0.932566081060032
1.1444444444444444,-0.36228088454660917,-0.9028149615963127
1.1472222222222221,-0.3614791847315669,-0.8801085044886854
1.15,-0.3427855353625948,-0.8717057179736445
1.1527777777777777,-0.33489489335076644,-0.866128650471892
1.1555555555555554,-0.32545143685352884,-0.8584137987729517
1.1583333333333334,-0.3239284010170378,-0.8488151597315062
1.1611111111111112,-0.3092192315311132,-0.8376880752301337
1.163888888888889,-0.289216209041981,-0.8261124404969662
1.1666666666666667,-0.28025990012248087,-0.8057734366614381
1.1694444444444445,-0.24316178078871847,-0.7689678743537394
1.1722222222222223,-0.19601086743123194,-0.7334885302988278
1.175,-0.19265776406761945,-0.7210053372082806
1.1777777777777778,-0.20037029890905808,-0.7181069446312445
1.1805555555555556,-0.15586439499902893,-0.6978759837013135
1.1833333333333333,-0.1515600415643083,-0.6625637189158906
1.1861111111111111,-0.09423249547776753,-0.6322818610922986
1.1888888888888889,-0.09825270980859209,-0.6130755038437181
1.1916666666666667,-0.0703072196673798,-0.5987357557199561
1.1944444444444444,-0.053760019636879056,-0.5850570550830039
1.1972222222222222,-0.054483289307714296,-0.5687843067548651
1.2,-0.007249850994249774,-0.5423952319496907
1.2027777777777777,0.027950689385331337,-0.4954518078317591
1.2055555555555555,0.0944873806307721,-0.42586777827504885
1.2083333333333333,0.17966476049140712,-0.35556215838074934
1.211111111111111,0.20329354625223367,-0.319735982611281
1.2138888888888888,0.20247412061690304,-0.3235808208357576
1.2166666666666666,0.21272948179688542,-0.32517916812243464
1.2194444444444446,0.2403588326953323,-0.2841307885508377
1.2222222222222223,0.31751510974489333,-0.21320676897684343
1.225,0.39441892082298086,-0.15401977756313784
1.2277777777777779,0.39767437913908815,-0.11926626300927629
1.2305555555555556,0.4468333283673092,-0.09560604727851844
1.2333333333333334,0.4617021463930303,-0.07952924566702856
1.2361111111111112,0.45740189207384424,-0.06892446187854298
1.238888888888889,0.4976815498244379,-0.04715772166589933
1.2416666666666667,0.5222809592094134,-0.008110782296575067
1.2444444444444445,0.5807066652259084,0.031980825563152016
1.2472222222222222,0.5886945476163663,0.059550457892951485
1.25,0.6126112291168138,0.0714888194119804
1.2527777777777778,0.6142451309472672,0.06536167766175796
1.2555555555555555,0.5786242626453668,0.04754370492759544
1.2583333333333333,0.5790783761103192,0.037033510186290856
1.261111111111111,0.6008016061931579,0.04744246495974424
1.2638888888888888,0.604621951781982,0.07507995356259817
1.2666666666666666,0.6507902656208115,0.10303478143167018
1.2694444444444444,0.6664699450309732,0.11407760555800565
1.2722222222222221,0.6377486668429275,0.10587142605572006
1.275,0.6385361054584953,0.08901481746138322
1.2777777777777777,0.6201725255503238,0.07402240417006474
1.2805555555555554,0.6113789213380997,0.0710174270108386
1.2833333333333334,0.6263789636383656,0.08527059339551182
1.2861111111111112,0.6576472792658118,0.10286329389599157
1.288888888888889,0.6389802443957616,0.10277347078402178
1.2916666666666667,0.636485222373885,0.0831863328600165
1.2944444444444445,0.5978205254366034,0.056614422980620326
1.2972222222222223,0.5883255365034208,0.033537573055319965
1.3,0.5680164016358756,0.02646137563318851
1.3027777777777778,0.6003838068884154,0.04504324405401648
1.3055555555555556,0.6174437596232819,0.07319289750504172
1.3083333333333333,0.6392969155540046,0.07942277192737465
1.3111111111111111,0.6061960856399266,0.060754462145510384
1.3138888888888889,0.6052579338611485,0.0453813091873029
1.3166666666666667,0.5890647125292069,0.04579164402085228
1.3194444444444444,0.6179775399014374,0.04743190783917347
1.3222222222222222,0.5895329101805206,0.04749550436386637
1.325,0.6272790610749635,0.059413366823740564
1.3277777777777777,0.6330601883932951,0.07558934697655718
1.3305555555555555,0.6347361821915358,0.0727177219708293
1.3333333333333333,0.6191449436241893,0.05441990595531744
1.336111111111111,0.6085173689695376,0.04533589929135778
1.3388888888888888,0.614811455339811,0.05026413070307436
1.3416666666666666,0.6344908418113884,0.05867172174733659
1.3444444444444446,0.6252745119876362,0.07375265947933807
1.3472222222222223,0.6787204137955688,0.0994760214931042
1.35,0.6845653029139824,0.11688686810906845
1.3527777777777779,0.6652272858066607,0.1052557493192508
1.3555555555555556,0.6539008380893832,0.07532545359758815
1.3583333333333334,0.6310553267107352,0.060894344959148666
1.3611111111111112,0.6378652714606086,0.07920486859786485
1.363888888888889,0.7014242937063623,0.11257825778968798
1.3666666666666667,0.6938082411291512,0.1359216527609774
1.3694444444444445,0.7264343731035693,0.14631901363791153
1.3722222222222222,0.7197755575633115,0.15162135462373583
1.375,0.7308155330035011,0.15243946198176853
1.3777777777777778,0.7233772828331297,0.15011645281328362
1.3805555555555555,0.7180722084562218,0.14888536703396096
1.3833333333333333,0.7300936517010422,0.14633113317307386
1.386111111111111,0.7159182900480618,0.14219980337604957
1.3888888888888888,0.7145186285342955,0.1433295427797964
1.3916666666666666,0.7273688613931166,0.14485670322579175
1.3944444444444444,0.7144794930480818,0.13331304003850564
1.3972222222222221,0.6838370775390875,0.11524840389575057
1.4,0.6975723573898924,0.1130876200052858
1.4027777777777777,0.720329548501273,0.13399296295375718
1.4055555555555554,0.7263679936957488,0.16257483279517
1.4083333333333334,0.772394451750041,0.1766889740309043
1.4111111111111112,0.7425597917350956,0.16541878703494337
1.413888888888889,0.713904043129048,0.14066465111843257
1.4166666666666667,0.7240822674521675,0.1265850151878572
1.4194444444444445,0.7023099708690526,0.13236013975143915
1.4222222222222223,0.7329383541721721,0.14502198462791147
1.425,0.740710532202392,0.15369274426679255
1.4277777777777778,0.7451064281146182,0.16417164267074869
1.4305555555555556,0.7585732501957261,0.17409766636712526
1.4333333333333333,0.7451062536025217,0.1598108659024697
1.4361111111111111,0.7145795799335559,0.12035004675954282
1.4388888888888889,0.6727803459161926,0.09860879299807303
1.4416666666666667,0.7088716319382746,0.11717475972353655
1.4444444444444444,0.7355518059226228,0.1408537655046687
1.4472222222222222,0.7178231297802601,0.1396862180318086
1.45,0.7191311039007199,0.12525829829468874
1.4527777777777777,0.6846065221274702,0.09869827437906112
1.4555555555555555,0.6361244566090827,0.04263661296460734
1.4583333333333333,0.5748838749161578,-0.01598577195656801
1.461111111111111,0.5595048547170247,-0.020453290407775094
1.4638888888888888,0.6290922181944837,0.022847261467897884
1.4666666666666666,0.6235007094706062,0.04316091967813816
1.4694444444444446,0.6023333964923464,0.005454784513007924
1.4722222222222223,0.53786432232064,-0.05307976557321187
1.475,0.5039374552445572,-0.08776570382811856
1.4777777777777779,0.503837519935041,-0.09349441769034184
1.4805555555555556,0.504901501252766,-0.08482137901097497
1.4833333333333334,0.5260312375274425,-0.06669721293680687
1.4861111111111112,0.5700925518121825,-0.033557933266679794
1.488888888888889,0.5955677449555586,0.011380435588277726
1.4916666666666667,0.640290665021194,0.04209166022814184
1.4944444444444445,0.6384345503023957,0.03350310994111439
1.4972222222222222,0.5846147964192657,0.0018118989202964987
1.5,0.5956331766124213,-0.008565641289362788
1.5027777777777778,0.6182665314219048,0.019644430941209164
1.5055555555555555,0.6540530845613154,0.06276290876817904
1.5083333333333333,0.6956088441722283,0.0910583897754112
1.511111111111111,0.686073226837026,0.0950695432745945
1.5138888888888888,0.6967680743198195,0.0889222667172941
1.5166666666666666,0.6882384218982587,0.09876767192969658
1.5194444444444444,0.7410254773575584,0.13544740957517853
1.5222222222222221,0.7775007032510205,0.17923342537529868
1.525,0.8016570482247467,0.20284673167183773
1.5277777777777777,0.800545643281043,0.19917564826150594
1.5305555555555554,0.7795479154178097,0.17588086854123317
1.5333333333333334,0.7340012683307059,0.14323506962708485
1.5361111111111112,0.7405827295647665,0.12248259845503114
1.538888888888889,0.7271616387167821,0.13693866904013974
1.5416666666666667,0.7696021017147573,0.1756856319671889
1.5444444444444445,0.8324993226793101,0.2023500340375751
1.5472222222222223,0.7819748725793472,0.20602538096260045
1.55,0.8041729858114962,0.1955507711513009
1.5527777777777778,0.7799208829476066,0.16773345037727444
1.5555555555555556,0.7329280110036495,0.13941984419586254
1.5583333333333333,0.7461944964618441,0.15041075963065395
1.5611111111111111,0.7874157636324285,0.1832191942123986
1.5638888888888889,0.7830902330266722,0.17085587561285942
1.5666666666666667,0.6959402026520488,0.10463209148227424
1.5694444444444444,0.6164774851012828,0.025718113312014172
1.5722222222222222,0.5635344390377163,-0.058105100107692556
1.575,0.47213475309424174,-0.11775382601510678
1.5777777777777777,0.5524722384851359,-0.027690265072140244
1.5805555555555555,0.9359120088751622,0.31223501442033097
1.5833333333333333,1.39238626863325,0.8077257380329372
1.586111111111111,1.8003423798935083,1.2194597770225728
1.5888888888888888,2.025232887599328,1.399311860532497
1.5916666666666666,2.0219221993958865,1.4360688009527793
1.5944444444444446,2.0889855198805396,1.5098617411009578
1.5972222222222223,2.263068536860922,1.6384445268067376
1.6,2.2827956169430546,1.6906767148406443
1.6027777777777779,2.2082389175781842,1.6128877801463453
1.6055555555555556,2.072179224635703,1.46592402202972
1.6083333333333334,1.8731726284055632,1.2652650898730347
1.6111111111111112,1.5635223516162626,0.9689210725522904
1.613888888888889,1.2285553170377268,0.6182539581048604
1.6166666666666667,0.933322031284566,0.33817335496992135
1.6194444444444445,0.7920780327397057,0.18546004113035233
1.6222222222222222,0.7058572967598506,0.10445076311150549
1.625,0.6507743922389603,0.040683342520007354
1.6277777777777778,0.601818090753539,0.0027892566095149723
1.6305555555555555,0.6054451211638513,-0.0011918524465749634
1.6333333333333333,0.616059884595117,0.0018859210815240241
1.636111111111111,0.5859252874233708,-0.0024165493090481808
1.6388888888888888,0.5933969708000525,-0.004826764759880132
1.6416666666666666,0.6087664935871004,-0.0050759987355184924
1.6444444444444444,0.5843610660172737,-0.004998816136865908
1.6472222222222221,0.5968718806028853,-0.0006899052931092615
1.65,0.5942479957698473,-0.008559062706974225
1.6527777777777777,0.5494934208331348,-0.04394071855192527
1.6555555555555554,0.5148774533961581,-0.07461224635260433
1.6583333333333334,0.5280499196023457,-0.06264893306046039
1.6611111111111112,0.5744533602220371,-0.02877205037512584
1.663888888888889,0.5674080034308702,-0.014514145505110038
1.6666666666666667,0.571607858812087,-0.020697209200113763
1.6694444444444445,0.5665294272760206,-0.028089628913551837
1.6722222222222223,0.5490055722497716,-0.03504788165171854
1.675,0.5340502192060996,-0.0465678854969581
1.6777777777777778,0.5362106677323802,-0.0565601894609923
1.6805555555555556,0.5301354840905909,-0.05429643607904483
1.6833333333333333,0.5406817692594306,-0.04125965678418437
1.6861111111111111,0.5482156250963982,-0.03725453742205558
1.6888888888888889,0.5409608616717853,-0.05558724408308943
1.6916666666666667,0.4904893460026481,-0.07810463517128446
1.6944444444444444,0.5156627066206702,-0.08237157927774262
1.6972222222222222,0.5042048463027868,-0.07865104913462395
1.7,0.49466474969407065,-0.08809103057451925
1.7027777777777777,0.4817166331818683,-0.10644109764101936
1.7055555555555555,0.4660545859774929,-0.11828755461782221
1.7083333333333333,0.4608262897051061,-0.12619362038392937
1.711111111111111,0.4384890703582616,-0.1432480229452553
1.7138888888888888,0.42199131214161345,-0.16828892728478062
1.7166666666666666,0.3982074085063739,-0.1836130190454765
1.7194444444444446,0.40702383105878837,-0.17702985178840805
1.7222222222222223,0.4320945021382148,-0.1588411332823571
1.725,0.42503422760124504,-0.1525550302132448
1.7277777777777779,0.41824201385759774,-0.17101200692339436
1.7305555555555556,0.38164266873142944,-0.20466813765285138
1.7333333333333334,0.3449102508489262,-0.2336621152422004
1.7361111111111112,0.3431920299035673,-0.24808165902914328
1.738888888888889,0.3295275171275726,-0.25016342950266995
1.7416666666666667,0.34509308591838456,-0.24330776175830982
1.7444444444444445,0.34431864644302,-0.23583682557358784
1.7472222222222222,0.33712141022558934,-0.24712532639078325
1.75,0.30788066015777227,-0.28545790853888137
1.7527777777777778,0.23905855412418175,-0.3264270828713379
1.7555555555555555,0.2646304811081563,-0.3365123155425573
1.7583333333333333,0.2626861202987458,-0.31791976769390523
1.761111111111111,0.2505996289866828,-0.31446339269586965
1.7638888888888888,0.2568968360955457,-0.35787528699719745
1.7666666666666666,0.14189686630313625,-0.4164395253288515
1.7694444444444444,0.15459290790441535,-0.43654643238711843
1.7722222222222221,0.1553176893858545,-0.42945268684795246
1.775,0.1321427839657554,-0.4520649245909233
1.7777777777777777,0.06732860243932248,-0.508811102348593
1.7805555555555554,0.04166894517658118,-0.5492921002536633
1.7833333333333334,0.032520498849150786,-0.553576212710034
1.7861111111111112,0.04157432423748667,-0.5484666036973966
1.788888888888889,0.036028959253234946,-0.5517444554653773
1.7916666666666667,0.028117031459837502,-0.5582470592163634
1.7944444444444445,0.018340356415375385,-0.5678626711016971
1.7972222222222223,-6.332465005416176e-05,-0.5832695680618036
1.8,-0.01841592010274742,-0.5921819588691043
1.8027777777777778,0.007326095078888154,-0.5829477848099898
1.8055555555555556,0.006260448489753073,-0.565530373148177
1.8083333333333333,0.02858368835410628,-0.5568345268697978
1.8111111111111111,0.018568837062218527,-0.5599678189371482
1.8138888888888889,-0.001249510604933137,-0.571030265242031
1.8166666666666667,0.002014628249934556,-0.5863010577252616
1.8194444444444444,-0.02750510442769255,-0.5910233662395945
1.8222222222222222,0.016833483962297027,-0.5661117026511956
1.825,0.04807655162694301,-0.519684108811656
1.8277777777777777,0.09126729220562776,-0.48622969139373134
1.8305555555555555,0.09022500149132119,-0.4816588350684761
1.8333333333333333,0.08606247353596821,-0.48384170612353417
1.836111111111111,0.11149520820454074,-0.46655946921436486
1.8388888888888888,0.13772858705917557,-0.427386274641501
1.8416666666666666,0.20463225112661906,-0.3759615294227965
1.8444444444444446,0.24100296388761747,-0.32201323203124577
1.8472222222222223,0.2944500250811413,-0.2809448352587137
1.85,0.30944902024887716,-0.2643717261648517
1.8527777777777779,0.30477878506749767,-0.2602771015907928
1.8555555555555556,0.3284113011058954,-0.2439912748578041
1.8583333333333334,0.36698208514378905,-0.20628740933028372
1.8611111111111112,0.41000783425795645,-0.15630511686906653
1.863888888888889,0.46051731729500966,-0.10841475919755364
1.8666666666666667,0.4976729495868261,-0.07352769915890205
1.8694444444444445,0.5210110663753243,-0.050918128747787415
1.8722222222222222,0.5267651368294805,-0.031944981859250744
1.875,0.5623862763373045,-0.015074998770018062
1.8777777777777778,0.5709470854498528,6.015994106997222e-05
1.8805555555555555,0.5821306423306281,0.024943848260989984
1.8833333333333333,0.6442999779941023,0.06257165370716591
1.886111111111111,0.6544511563430666,0.09223029933459413
1.8888888888888888,0.6628035204950022,0.09632783935137434
1.8916666666666666,0.6550976376693811,0.08162140468663509
1.8944444444444444,0.6216735510031108,0.06326419454741498
1.8972222222222221,0.6265758864428491,0.05236833034708509
1.9,0.6170476014554911,0.06031673911301687
1.9027777777777777,0.6581604807490841,0.08713794371039049
1.9055555555555554,0.6633815901215799,0.1068924424617801
1.9083333333333334,0.6651218478371529,0.09304083837479711
1.9111111111111112,0.6139269878917477,0.05523932111807871
1.913888888888889,0.5838028479566443,0.025238644043116633
1.9166666666666667,0.590247920026446,0.017498375722317824
1.9194444444444445,0.5826772811682096,0.027773656657073237
1.9222222222222223,0.6102557106187001,0.049651864761323286
1.925,0.6384632456503544,0.07058676461110504
1.9277777777777778,0.6284763829889307,0.07424692180111761
1.9305555555555556,0.626062287625592,0.058077953107396496
1.9333333333333333,0.5817471534384,0.032917544617341574
1.9361111111111111,0.5872825047317929,0.014760825951566402
1.9388888888888889,0.5789287745184761,0.023055941547032662
1.9416666666666667,0.6048307797912815,0.057049606852396795
1.9444444444444444,0.6545984868663908,0.07985623438207021
1.9472222222222222,0.6146906174736363,0.06588815775544671
1.95,0.5872799939581188,0.03916555176803086
1.9527777777777777,0.5871087086328932,0.02755595636077734
1.9555555555555555,0.5727936865990726,0.025962510880790577
1.9583333333333333,0.5809454140453963,0.029991191723713378
1.961111111111111,0.5869495627115238,0.045480613039644756
1.9638888888888888,0.6150559572753904,0.058081900169619595
1.9666666666666666,0.6010693824256523,0.051311140179245075
1.9694444444444446,0.5705802834858483,0.03687803797048567
1.9722222222222223,0.583648171111069,0.025231732251531722
1.975,0.5589077753663644,0.009434634610290822
1.9777777777777779,0.5333783765247374,0.0006909568547538349
1.9805555555555556,0.5789342311954528,0.021246020820449543
1.9833333333333334,0.5972716502653358,0.05655462682103655
1.9861111111111112,0.6162747141566339,0.07109502145694949
1.988888888888889,0.6078910881279084,0.06201560774372372
1.9916666666666667,0.5939433635433793,0.05198969565775271
1.9944444444444445,0.59497235737695,0.050453661679674106
1.9972222222222222,0.6045072677003175,0.05716609714843566
2.0,0.61285822439814,0.07683245199521095
2.0027777777777778,0.6479795895809194,0.10254157894323188
2.0055555555555555,0.660143744106068,0.11324772850158783
2.0083333333333333,0.6381662318873439,0.10450754981015907
2.011111111111111,0.6378071504855009,0.09133381630784394
2.013888888888889,0.6185576030167965,0.07864009949059889
2.0166666666666666,0.6037725665269447,0.06538110501479649
2.0194444444444444,0.6155262684540753,0.06830827662265522
2.022222222222222,0.6256109454880442,0.09915605405502212
2.025,0.6848818266234986,0.13268411796686452
2.0277777777777777,0.674368608101766,0.13755484508768342
2.0305555555555554,0.6462505132856385,0.11991252597827916
2.033333333333333,0.6622325177461216,0.10477912839489541
2.036111111111111,0.6208812680988404,0.09997189103040137
2.0388888888888888,0.6491117683737434,0.10308349576104645
2.0416666666666665,0.6547727786739066,0.117952249031464
2.0444444444444443,0.6730771662330917,0.1432745602539269
2.047222222222222,0.7067296558029099,0.16113697420846881
2.05,0.6822330756581025,0.15334601209099397
2.0527777777777776,0.6613353848684452,0.12743923281170155
2.0555555555555554,0.6608970781168421,0.1149341979520709
2.058333333333333,0.6516826819466544,0.13095913049203556
2.061111111111111,0.6851574767322973,0.14716525352462292
2.063888888888889,0.6794125846892017,0.1345412389623048
2.066666666666667,0.6304063032316833,0.11313504102448546
2.0694444444444446,0.6505725185300737,0.10966101951165312
2.0722222222222224,0.6325194808770466,0.10106709796992151
2.075,0.6031738364438528,0.0661698135390126
2.077777777777778,0.5651566569719493,0.04268818399861162
2.0805555555555557,0.5969558772083554,0.06279273806126329
2.0833333333333335,0.6306591679387253,0.0909011808059965
2.0861111111111112,0.6022856939278235,0.08220146861089724
2.088888888888889,0.5740132943440418,0.04211483964269092
2.091666666666667,0.531294215590515,-0.004379018833964074
2.0944444444444446,0.4811223544661676,-0.04456905862488195
2.0972222222222223,0.4582509140130286,-0.06922725448934017
2.1,0.4549106050939088,-0.07584649309183508
2.102777777777778,0.4593149060703985,-0.0727105359823559
2.1055555555555556,0.46103729933348625,-0.05793086669460156
2.1083333333333334,0.5171316156581697,-0.022299912914634415
2.111111111111111,0.5321241674673767,0.016203517360219515
2.113888888888889,0.5560883641122888,0.022514050757529273
2.1166666666666667,0.5311497082807276,0.0009394729138576518
2.1194444444444445,0.509862463109996,-0.004752977241531999
2.1222222222222222,0.5569497437119935,0.020442603817295502
2.125,0.5679717757484397,0.046253293685416905
2.1277777777777778,0.5836557562004631,0.05636762854723458
2.1305555555555555,0.5860915053066725,0.06538553464657386
2.1333333333333333,0.603057670396291,0.07776481249456459
2.136111111111111,0.6241526446613316,0.08934064076864921
2.138888888888889,0.6213105069820929,0.11246919453237673
2.1416666666666666,0.6743281078054766,0.14810025441632532
2.1444444444444444,0.709723300286136,0.1690673178218108
2.147222222222222,0.6642149426332445,0.16481289888984618
2.15,0.6882538054532078,0.15424295511659256
2.1527777777777777,0.6748528330575754,0.14843872633072266
2.1555555555555554,0.6658127063608821,0.149812886598804
2.158333333333333,0.6872979626528855,0.1666759649852482
2.161111111111111,0.7168596847586822,0.1925287813834164
2.1638888888888888,0.7332202576708232,0.20535363379523874
2.1666666666666665,0.7030345671365784,0.19667123658226104
2.1694444444444443,0.6995748722829819,0.17032210897208555
2.172222222222222,0.6618487094293899,0.13409247307876565
2.175,0.6157422378580617,0.11174359370603398
2.1777777777777776,0.6544901983356984,0.1251678585219502
2.1805555555555554,0.6845645311886861,0.16137966417139818
2.183333333333333,0.6981848363171496,0.18809161692056597
2.186111111111111,0.7002526238438549,0.18342805330248932
2.188888888888889,0.6543054039073868,0.133776873149644
2.191666666666667,0.5387645514361269,0.03666407993269386
2.1944444444444446,0.4349669785507354,-0.07614166479930853
2.1972222222222224,0.38190120331891303,-0.1284706757807109
2.2,0.4721793708327524,-0.01647929661870526
2.202777777777778,0.8415648696909205,0.33132663674872626
2.2055555555555557,1.3352918807191865,0.8520253665658298
2.2083333333333335,1.7822700378064444,1.3246732615828773
2.2111111111111112,2.0564586600202195,1.5516301818215983
2.213888888888889,2.04247467196094,1.5783931543461813
2.216666666666667,2.079887112148266,1.6140392036191549
2.2194444444444446,2.2173414199772883,1.7269134228574263
2.2222222222222223,2.259048591805229,1.78601101520099
2.225,2.1865384048580525,1.7070204691523485
2.227777777777778,2.0035927758830874,1.5461705734524118
2.2305555555555556,1.8340947147756916,1.3360190220431225
2.2333333333333334,1.5060454013852775,1.0391902901547656
2.236111111111111,1.1555445898500283,0.6848097631580525
2.238888888888889,0.8594226891183159,0.381585689827227
2.2416666666666667,0.6677832373066862,0.1900490137074725
2.2444444444444445,0.5662043968814257,0.09037076343453593
2.2472222222222222,0.5107105094585885,0.04520553605027977
2.25,0.5040645268924312,0.022728942752883195
2.2527777777777778,0.48290174952293674,0.001392113896341268
2.2555555555555555,0.443943078309859,-0.012569782342756412
2.2583333333333333,0.48006929414107724,-0.00736392116013937
2.261111111111111,0.47758762915862213,0.002781481730251618
2.263888888888889,0.46321695126429924,-0.0014592845218724254
2.2666666666666666,0.4601454499526099,-0.019833048162966944
2.2694444444444444,0.42996089083824796,-0.04583643682863029
2.272222222222222,0.39323704209425736,-0.07560768495673964
2.275,0.37497644852693673,-0.09900565414671614
2.2777777777777777,0.37810031989562576,-0.10110457665446569
2.2805555555555554,0.3907105013104958,-0.07730056987974307
2.283333333333333,0.42651117115188997,-0.047103665197187186
2.286111111111111,0.4341068577737941,-0.043048825431931656
2.2888888888888888,0.4012644732801281,-0.07221527683488439
2.2916666666666665,0.3620654512197548,-0.1058044779228267
2.2944444444444443,0.35849456596787016,-0.11978454588404477
2.297222222222222,0.35824841150275877,-0.11815527038611043
2.3,0.3545319412305966,-0.10939412718757931
2.3027777777777776,0.3881734551143736,-0.09446070290524292
2.3055555555555554,0.3874416247736282,-0.08221454743381529
2.308333333333333,0.38439495602657736,-0.08837805285149145
2.311111111111111,0.3595833422084369,-0.11528197745070186
2.313888888888889,0.3291918731041685,-0.14525812038358193
2.316666666666667,0.3142046589669947,-0.15645257217414943
2.3194444444444446,0.3327939059725093,-0.14434029710635266
2.3222222222222224,0.34568152149237275,-0.12431919121129699
2.325,0.36540310192476716,-0.11191546000016495
2.327777777777778,0.3608236990381167,-0.11348202972242728
2.3305555555555557,0.3282548427347837,-0.1360040843855393
2.3333333333333335,0.3134133570622698,-0.17706941644822116
2.3361111111111112,0.2575643822870959,-0.20590060995341203
2.338888888888889,0.27334005616427687,-0.194308390540658
2.341666666666667,0.33395511508338427,-0.16086252794524625
2.3444444444444446,0.30939080488056697,-0.14478177091193084
2.3472222222222223,0.32973358004886605,-0.1551098665688319
2.35,0.29456872132630174,-0.17783756011293586
2.352777777777778,0.27220795167573036,-0.2024076484165445
2.3555555555555556,0.25720981873715054,-0.22037426308962446
2.3583333333333334,0.23980484351976644,-0.22728022825117522
2.361111111111111,0.25518595234302577,-0.2304731680664743
2.363888888888889,0.23479031075303686,-0.23869198232545957
2.3666666666666667,0.20492346778352316,-0.25649389239037995
2.3694444444444445,0.2126285132376293,-0.28812188101172564
2.3722222222222222,0.13131445746768558,-0.32411818094981754
2.375,0.14154758171013523,-0.34093444211939805
2.3777777777777778,0.1475996877997978,-0.33439093227631017
2.3805555555555555,0.14242355440712207,-0.3249956234227078
2.3833333333333333,0.16234691656437586,-0.32280064924008
2.386111111111111,0.1464991828997176,-0.3254334240126739
2.388888888888889,0.13057908635422025,-0.34577397475903116
2.3916666666666666,0.09052395382521428,-0.3952406601788033
2.3944444444444444,0.02491418692027304,-0.4481615808545288
2.397222222222222,0.030905147092283324,-0.4693756880556763
2.4,0.03260874786439722,-0.466453886720509
2.4027777777777777,0.033803876848393574,-0.4722232174162967
2.4055555555555554,0.009936919592113068,-0.4927106725647342
2.408333333333333,0.009535377099886028,-0.5135812996873202
2.411111111111111,-0.026934068091733297,-0.5391338336321244
2.4138888888888888,-0.053488038569999834,-0.582775197603551
2.4166666666666665,-0.08881484649575462,-0.6284188549408983
2.4194444444444443,-0.10650893325107115,-0.6412492158452493
2.422222222222222,-0.06497549888283298,-0.6218730237082762
2.425,-0.06588346430927776,-0.6146469526655485
2.4277777777777776,-0.08866310766615217,-0.6462445448215385
2.4305555555555554,-0.1215136361465962,-0.6883855105481248
2.433333333333333,-0.14670048330101448,-0.7031480108945144
2.436111111111111,-0.11493248573792178,-0.69183530751979
2.438888888888889,-0.10950821470659992,-0.6733219556325096
2.441666666666667,-0.07994413918255944,-0.6499395063668367
2.4444444444444446,-0.055528452748470104,-0.624700656049439
2.4472222222222224,-0.0459822227783702,-0.6157281003501178
2.45,-0.050250706184132174,-0.6243463526851868
2.452777777777778,-0.06381344656339613,-0.6262762317209618
2.4555555555555557,-0.04851327080806082,-0.6125692632310406
2.4583333333333335,-0.010740752558212325,-0.5941753774634464
2.4611111111111112,-0.013060984941430473,-0.565845535805277
2.463888888888889,0.048681287888643864,-0.5230321445635887
2.466666666666667,0.0817218599546304,-0.4968897348838513
2.4694444444444446,0.05321947367799567,-0.5095423307594094
2.4722222222222223,0.042415133156931226,-0.5264165805708637
2.475,0.06955186595163843,-0.5058042683258207
2.477777777777778,0.12195598802319563,-0.4533916720423469
2.4805555555555556,0.1773532377633612,-0.39558365742931806
2.4833333333333334,0.22841907642281742,-0.3462153807745508
2.486111111111111,0.2698567875550893,-0.3125699034499397
2.488888888888889,0.2803009449079291,-0.29314924771016443
2.4916666666666667,0.30428341094555245,-0.2710604797048848
2.4944444444444445,0.34848343910948826,-0.23533539437845463
2.4972222222222222,0.3824021585997414,-0.19487174310612743
2.5,0.41954727570926764,-0.1582390891989892
2.5027777777777778,0.4716205978214299,-0.12079411347586211
2.5055555555555555,0.495993869506421,-0.08172678328818962
2.5083333333333333,0.5338206581381922,-0.053730067657117374
2.511111111111111,0.5508015396488432,-0.04385280825265727
2.513888888888889,0.5337366377116932,-0.03981582586141551
2.5166666666666666,0.5722845080942355,-0.024787246743149496
2.5194444444444444,0.5978082105785375,0.007491564134934249
2.522222222222222,0.6302367770915521,0.050540959699490066
2.525,0.6787982073243056,0.08167210075512596
2.5277777777777777,0.6659034638297457,0.07712678074817723
2.5305555555555554,0.6399673618979901,0.04792298755115719
2.533333333333333,0.6192959762540926,0.032951972759099925
2.536111111111111,0.6450483731477483,0.04672623395230904
2.5388888888888888,0.6611142572425032,0.06739125036317412
2.5416666666666665,0.6615471204954737,0.07545600001717549
2.5444444444444443,0.6727523555517171,0.07250945839640335
2.547222222222222,0.6685267855389612,0.06661822428247702
2.55,0.642323460595608,0.05955403463227053
2.5527777777777776,0.6648757497453682,0.049441239572405066
2.5555555555555554,0.64153867535841,0.04246384788441091
2.558333333333333,0.638438008541777,0.04865525828403916
2.561111111111111,0.6820775115766091,0.05886946708491035
2.563888888888889,0.6486706411204944,0.052347323616974265
2.566666666666667,0.6457969159250563,0.03209005480617464
2.5694444444444446,0.6332952434238246,0.016662837728700548
2.5722222222222224,0.6140512013280454,0.005452468362433614
2.575,0.6278957811557466,-0.004759397902457775
2.577777777777778,0.611486671755123,0.006661033654538987
2.5805555555555557,0.6719593423477787,0.044902938378935754
2.5833333333333335,0.6926380280000454,0.0694672755195846
2.5861111111111112,0.6764854132627344,0.05175644698198807
2.588888888888889,0.6404255836283824,0.018924754413706658
2.591666666666667,0.6334272668362982,0.000987094259758193
2.5944444444444446,0.6257257978669531,-0.010844351437414381
2.5972222222222223,0.6027624862199151,-0.023129509020998557
2.6,0.6240936337070238,-0.018011435728751322
2.602777777777778,0.6484022681606937,0.0036516497840189334
2.6055555555555556,0.6532537552460079,0.009999506434057323
2.6083333333333334,0.6384480442515988,-0.010994678661477856
2.611111111111111,0.6269828464146258,-0.027061309368239084
2.613888888888889,0.6406933533167306,-0.00794823527785508
2.6166666666666667,0.6889105314429922,0.02730373554555787
2.6194444444444445,0.6916039125229609,0.03597610293759493
2.6222222222222222,0.6759777835792988,0.015153074444411134
2.625,0.6695422901692725,0.002040484116296773
2.6277777777777778,0.6590473468132102,0.00924757898564248
2.6305555555555555,0.6952431666571238,0.01144392382176942
2.6333333333333333,0.666772638694352,0.005066874783878721
2.636111111111111,0.6797576425582255,0.014940493048313056
2.638888888888889,0.7175598096025537,0.03275374476934116
2.6416666666666666,0.7005376325068432,0.024016784722172002
2.6444444444444444,0.6690358932107755,-0.005441251869413838
2.647222222222222,0.6564402535416719,-0.020529818761083486
2.65,0.6888476140650198,-0.011341427040689312
2.6527777777777777,0.6908723631451346,0.01586278832623489
2.6555555555555554,0.7449120880603309,0.05577478095725376
2.658333333333333,0.7927307893959353,0.08472883666545734
2.661111111111111,0.7633552754624184,0.07992330124657605
2.6638888888888888,0.7562337752218781,0.0576041052077823
2.6666666666666665,0.745694281321987,0.04630517984580468
2.6694444444444443,0.7529068763372005,0.04920908749697742
2.672222222222222,0.760362556794842,0.06118744233023159
2.675,0.7828848645943116,0.08105705535861847
2.6777777777777776,0.8164670120366919,0.09426067909458212
2.6805555555555554,0.8002448282867799,0.0819196943441574
2.683333333333333,0.7878276896257679,0.04928044280659237
2.686111111111111,0.7685719436378411,0.02319565574660702
2.688888888888889,0.7579239212432778,0.02314287145551979
2.691666666666667,0.7896717731963616,0.04022557872916775
2.6944444444444446,0.8055877849070537,0.049241184747803805
2.6972222222222224,0.8059326197133329,0.04400748280247234
2.7,0.7991470769156944,0.03969462325854907
2.702777777777778,0.8056586656645637,0.03615331291420033
2.7055555555555557,0.7928632826849465,0.017885325522741125
2.7083333333333335,0.7566731642421435,-0.005412976151372716
2.7111111111111112,0.7811758350264764,-0.00370582990880106
2.713888888888889,0.7992251239779077,0.02489096870362419
2.716666666666667,0.8231823571018597,0.048459613553762736
2.7194444444444446,0.8298919135756115,0.044056419820727506
2.7222222222222223,0.7915210146057412,0.018870053653912016
2.725,0.7790707168715166,-0.010050378935590963
2.727777777777778,0.7375312782372562,-0.03428591409101306
2.7305555555555556,0.7473837526971795,-0.04854018762416778
2.7333333333333334,0.7246148586403083,-0.050359889468359155
2.736111111111111,0.729053374800027,-0.05287632977256353
2.738888888888889,0.73149151385716,-0.06962937135990847
2.7416666666666667,0.6868777364744092,-0.08766259747484438
2.7444444444444445,0.6904115112047796,-0.09425975695706851
2.7472222222222222,0.6947496701731369,-0.11035830590168784
2.75,0.6292913709159684,-0.14857073208126315
2.7527777777777778,0.6136428504961845,-0.17787733613908022
2.7555555555555555,0.6193132355410074,-0.17749284498435697
2.7583333333333333,0.6204538641091992,-0.17125694410421693
2.761111111111111,0.6207041783883505,-0.1738654379812971
2.763888888888889,0.6276252604538641,-0.16254690083260553
2.7666666666666666,0.6813693719631337,-0.12244211719393377
2.7694444444444444,0.7242431893841761,-0.07147701348813881
2.772222222222222,0.7539755811099556,-0.034558720110620625
2.775,0.793160330579929,-0.022329038837741566
2.7777777777777777,0.7582611240926,-0.029407289751679756
2.7805555555555554,0.7641018635377205,-0.03896769810245922
2.783333333333333,0.775513680356616,-0.03408295974316848
2.786111111111111,0.7850280982167244,-0.009605956955848604
2.7888888888888888,0.8321821551643934,0.02432761760312788
2.7916666666666665,0.8584095846279823,0.05268982955013173
2.7944444444444443,0.8816387042869964,0.07436133689204277
2.797222222222222,0.9014226679282318,0.09780841142446005
2.8,0.9248465161275111,0.11542369075479263
2.8027777777777776,0.9272087672587328,0.1129783981922077
2.8055555555555554,0.9083579025794629,0.10491925570775293
2.808333333333333,0.9317824787720228,0.11712403804381856
2.811111111111111,0.9510052347344187,0.13973491230952173
2.813888888888889,0.9611127117699101,0.14532933276974808
2.816666666666667,0.9518410663072062,0.13986957620949425
2.8194444444444446,0.9577649794351514,0.14461937412475
2.8222222222222224,0.9699670396870288,0.14812685659175243
2.825,0.9438659868786418,0.1282102959113518
2.827777777777778,0.9222540015263072,0.10080216724211659
2.8305555555555557,0.924813951679394,0.10028779140070117
2.8333333333333335,0.9494689501776808,0.12947773056092346
2.8361111111111112,0.9984861553047819,0.16073828111869523
2.838888888888889,0.9771768811431586,0.16483161818325962
2.841666666666667,0.9669473559168459,0.124345585979436
2.8444444444444446,0.8876960298423476,0.047681666852518304
2.8472222222222223,0.7882600168462,-0.030234422504620002
2.85,0.7755908916981163,-0.08187630634130867
2.852777777777778,0.7491991736551941,-0.08607293856284914
2.8555555555555556,0.8789705264507667,0.028938699957612012
2.8583333333333334,1.2129291663233606,0.3601150244986539
2.861111111111111,1.726816537656077,0.8791695318867734
2.863888888888889,2.2352739925657037,1.375634761135238
2.8666666666666667,2.5032143291401505,1.649131147251527
2.8694444444444445,2.602170871893643,1.7277339928792173
2.8722222222222222,2.6341386484615743,1.7886502332584222
2.875,2.7607712198633845,1.8836551289834087
2.8777777777777778,2.7600153808501044,1.892543187340829
2.8805555555555555,2.6291247020155972,1.7551504393677717
2.8833333333333333,2.420604791597809,1.55873914705879
2.886111111111111,2.2226527333305492,1.3483860046987373
2.888888888888889,1.9398056091017681,1.053399366068665
2.8916666666666666,1.5435242579778352,0.6732958188451987
2.8944444444444444,1.214219896901825,0.34695869227256215
2.897222222222222,1.0650132354943713,0.16656977780296045
2.9,0.954788092096763,0.08102155405160101
2.9027777777777777,0.9020738730853894,0.02217745438122737
2.9055555555555554,0.8746791730825285,-0.010799604492917657
2.908333333333333,0.8814196721639542,-0.010693594986990124
2.911111111111111,0.8850915707707473,0.0013018481496054005
2.9138888888888888,0.906754882655603,0.009157667831615932
2.9166666666666665,0.904789727110404,0.011495069524868727
2.9194444444444443,0.8991271616207038,0.0024493433110027323
2.922222222222222,0.8791429986248485,-0.02141563822219781
2.925,0.8601319573765699,-0.04487496991707881
2.9277777777777776,0.848536314873625,-0.049250470349046636
2.9305555555555554,0.8719483440152331,-0.0358509255663321
2.933333333333333,0.8884192696306931,-0.018782349673380182
2.936111111111111,0.8950709886290208,-0.010240020292343305
2.938888888888889,0.8817171884469237,-0.02471618175221017
2.941666666666667,0.8604975958160086,-0.0680304170758706
2.9444444444444446,0.7842803061913047,-0.11129563928020537
2.9472222222222224,0.8104405061182781,-0.11439786267632539
2.95,0.8402261619369392,-0.08166689269455746
2.952777777777778,0.8549170622280489,-0.05786538002750527
2.9555555555555557,0.8631921250234736,-0.07288273234120982
2.9583333333333335,0.8048459488614768,-0.11805000714535205
2.9611111111111112,0.7753253175536131,-0.16414984966412305
2.963888888888889,0.7525596203966253,-0.1839002648873373
2.966666666666667,0.7652947250850006,-0.16988059968338876
2.9694444444444446,0.8124690890596687,-0.1409717037367791
2.9722222222222223,0.8110818552799771,-0.12535823674976107
2.975,0.8264737936654067,-0.13558389822195102
2.977777777777778,0.7869861334733352,-0.1600624345797749
2.9805555555555556,0.7880037238145247,-0.17606213439752447
2.9833333333333334,0.7907485696625498,-0.17178406511822047
2.986111111111111,0.8214353241443489,-0.1544364366631081
2.988888888888889,0.8309400956228201,-0.13817334887432486
2.9916666666666667,0.8394857670611551,-0.13370048715584296
2.9944444444444445,0.8401280270218813,-0.1451983909907271
2.9972222222222222,0.8080170729074998,-0.16459672676984016
