17	15	27	42	892	254.0	-195240.0	-8952.0	19915.0
17	15	27	42	894	255.0	-196539.0	-9039.0	19840.0
17	15	27	42	897	0.0	-197149.0	-9152.0	19770.0
17	15	27	42	899	1.0	-197946.0	-9247.0	19504.0
17	15	27	42	901	2.0	-198915.0	-9337.0	19108.0
17	15	27	42	923	3.0	-199865.0	-9405.0	19581.0
17	15	27	42	924	4.0	-201457.0	-9498.0	19505.0
17	15	27	42	925	5.0	-203619.0	-9608.0	18859.0
17	15	27	42	926	6.0	-204748.0	-9721.0	19186.0
17	15	27	42	926	7.0	-205084.0	-9799.0	19170.0
17	15	27	42	927	8.0	-204324.0	-9897.0	18915.0
17	15	27	42	927	9.0	-202866.0	-10015.0	18620.0
17	15	27	42	928	10.0	-201684.0	-10111.0	18689.0
17	15	27	42	929	11.0	-201043.0	-10177.0	18445.0
17	15	27	42	929	12.0	-199964.0	-10271.0	18331.0
17	15	27	42	930	13.0	-198235.0	-10383.0	18466.0
17	15	27	42	930	14.0	-195442.0	-10506.0	18350.0
17	15	27	42	931	15.0	-192341.0	-10586.0	18277.0
17	15	27	42	931	16.0	-189617.0	-10684.0	17843.0
17	15	27	42	932	17.0	-188397.0	-10777.0	17837.0
17	15	27	42	932	18.0	-188039.0	-10877.0	17871.0
17	15	27	42	933	19.0	-188334.0	-10962.0	17267.0
17	15	27	42	933	20.0	-189575.0	-11046.0	17156.0
17	15	27	42	972	21.0	-190595.0	-11129.0	17110.0
17	15	27	43	17	22.0	-191494.0	-11191.0	16765.0
17	15	27	43	17	23.0	-193270.0	-11264.0	16711.0
17	15	27	43	18	24.0	-196050.0	-11333.0	16455.0
17	15	27	43	19	25.0	-199076.0	-11394.0	16731.0
17	15	27	43	19	26.0	-201593.0	-11444.0	16824.0
17	15	27	43	20	27.0	-203922.0	-11500.0	16500.0
17	15	27	43	21	28.0	-205654.0	-11546.0	16368.0
17	15	27	43	21	29.0	-206961.0	-11589.0	16430.0
17	15	27	43	22	30.0	-207333.0	-11636.0	16582.0
17	15	27	43	23	31.0	-207159.0	-11658.0	16335.0
17	15	27	43	23	32.0	-206461.0	-11666.0	16081.0
17	15	27	43	24	33.0	-205609.0	-11651.0	16076.0
17	15	27	43	25	34.0	-204642.0	-11661.0	16087.0
17	15	27	43	25	35.0	-203097.0	-11655.0	15977.0
17	15	27	43	34	42.0	-208604.0	-11391.0	15678.0
17	15	27	43	35	65.0	-198991.0	-9075.0	19152.0
17	15	27	43	36	66.0	-199031.0	-8947.0	19235.0
17	15	27	43	36	67.0	-198288.0	-8812.0	19236.0
17	15	27	43	37	68.0	-196792.0	-8674.0	18710.0
17	15	27	43	38	69.0	-194914.0	-8547.0	16264.0
17	15	27	43	38	70.0	-192545.0	-8427.0	17789.0
17	15	27	43	62	71.0	-189671.0	-8295.0	19824.0
17	15	27	43	63	72.0	-186691.0	-8163.0	21013.0
17	15	27	43	63	73.0	-184690.0	-8046.0	22054.0
17	15	27	43	64	74.0	-185157.0	-7928.0	22606.0
17	15	27	43	65	75.0	-187615.0	-7819.0	23423.0
17	15	27	43	65	76.0	-192255.0	-7719.0	24046.0
17	15	27	43	66	77.0	-198289.0	-7611.0	24542.0
17	15	27	43	66	78.0	-204221.0	-7501.0	24199.0
17	15	27	43	67	79.0	-209239.0	-7393.0	24371.0
17	15	27	43	68	80.0	-213156.0	-7280.0	25188.0
17	15	27	43	68	81.0	-216265.0	-7178.0	25344.0
17	15	27	43	69	82.0	-218446.0	-7080.0	25454.0
17	15	27	43	69	83.0	-219535.0	-6972.0	26123.0
17	15	27	43	70	84.0	-219746.0	-6869.0	26824.0
17	15	27	43	71	85.0	-218639.0	-6779.0	27099.0
17	15	27	43	71	87.0	-213161.0	-6584.0	27716.0
17	15	27	43	72	88.0	-209336.0	-6492.0	27792.0
17	15	27	43	72	89.0	-205123.0	-6404.0	28217.0
17	15	27	43	73	90.0	-200746.0	-6292.0	29224.0
17	15	27	43	74	91.0	-195248.0	-6186.0	28991.0
17	15	27	43	74	92.0	-188095.0	-6080.0	28732.0
17	15	27	43	75	93.0	-177667.0	-5975.0	28674.0
17	15	27	43	107	94.0	-164495.0	-5882.0	29133.0
17	15	27	43	107	95.0	-154750.0	-5788.0	29198.0
17	15	27	43	108	96.0	-152799.0	-5703.0	29270.0
17	15	27	43	109	97.0	-164482.0	-5619.0	29790.0
17	15	27	43	109	98.0	-184506.0	-5530.0	29659.0
17	15	27	43	110	99.0	-204896.0	-5451.0	29584.0
17	15	27	43	110	100.0	-223031.0	-5382.0	29361.0
17	15	27	43	111	101.0	-233788.0	-5317.0	29352.0
17	15	27	43	153	102.0	-236750.0	-5240.0	29327.0
17	15	27	43	154	103.0	-235419.0	-5142.0	29308.0
17	15	27	43	154	104.0	-229182.0	-5088.0	29373.0
17	15	27	43	155	105.0	-219261.0	-5027.0	29493.0
17	15	27	43	155	106.0	-207332.0	-4938.0	29936.0
17	15	27	43	156	107.0	-194997.0	-4875.0	30115.0
17	15	27	43	157	108.0	-185071.0	-4807.0	30239.0
17	15	27	43	198	110.0	-179241.0	-4651.0	30166.0
17	15	27	43	199	111.0	-182587.0	-4587.0	30157.0
17	15	27	43	199	112.0	-187860.0	-4496.0	30378.0
17	15	27	43	200	113.0	-192043.0	-4421.0	30297.0
17	15	27	43	201	114.0	-193634.0	-4331.0	30616.0
17	15	27	43	201	115.0	-193044.0	-4251.0	30894.0
17	15	27	43	202	116.0	-190936.0	-4189.0	30736.0
17	15	27	43	242	117.0	-189973.0	-4118.0	30629.0
17	15	27	43	243	132.0	-196268.0	-2986.0	30690.0
17	15	27	43	244	133.0	-200084.0	-2909.0	30581.0
17	15	27	43	244	134.0	-203641.0	-2837.0	30848.0
17	15	27	43	245	135.0	-206928.0	-2741.0	31508.0
17	15	27	43	246	136.0	-209938.0	-2682.0	31741.0
17	15	27	43	246	137.0	-212361.0	-2624.0	31190.0
17	15	27	43	247	138.0	-213719.0	-2562.0	31050.0
17	15	27	43	248	139.0	-213957.0	-2520.0	31739.0
17	15	27	43	248	155.0	-187294.0	-1937.0	33564.0
17	15	27	43	249	156.0	-188052.0	-1887.0	33686.0
17	15	27	43	251	157.0	-189078.0	-1850.0	33977.0
17	15	27	43	251	158.0	-190338.0	-1828.0	33783.0
17	15	27	43	252	159.0	-192227.0	-1807.0	33748.0
17	15	27	43	253	160.0	-194638.0	-1798.0	33466.0
17	15	27	43	253	161.0	-197065.0	-1791.0	33578.0
17	15	27	43	254	177.0	-213780.0	-1595.0	37268.0
17	15	27	43	255	178.0	-213495.0	-1589.0	37155.0
17	15	27	43	255	179.0	-213306.0	-1582.0	37658.0
17	15	27	43	256	180.0	-212982.0	-1566.0	37667.0
17	15	27	43	256	181.0	-212354.0	-1537.0	37897.0
17	15	27	43	257	182.0	-211346.0	-1519.0	37881.0
17	15	27	43	257	183.0	-209952.0	-1502.0	38168.0
17	15	27	43	288	184.0	-209090.0	-1489.0	38609.0
17	15	27	43	289	185.0	-208334.0	-1476.0	38870.0
17	15	27	43	290	186.0	-207494.0	-1486.0	38706.0
17	15	27	43	291	187.0	-206588.0	-1465.0	39002.0
17	15	27	43	291	188.0	-205667.0	-1477.0	39248.0
17	15	27	43	292	189.0	-204555.0	-1471.0	38812.0
17	15	27	43	292	190.0	-203123.0	-1457.0	38574.0
17	15	27	43	293	191.0	-201367.0	-1469.0	38604.0
17	15	27	43	332	192.0	-199182.0	-1474.0	38569.0
17	15	27	43	333	193.0	-197017.0	-1469.0	38755.0
17	15	27	43	334	194.0	-195137.0	-1452.0	39093.0
17	15	27	43	334	195.0	-193286.0	-1448.0	39069.0
17	15	27	43	335	196.0	-191400.0	-1441.0	38668.0
17	15	27	43	336	197.0	-189614.0	-1450.0	38754.0
17	15	27	43	336	198.0	-188109.0	-1437.0	39373.0
17	15	27	43	378	199.0	-187063.0	-1452.0	39197.0
17	15	27	43	379	200.0	-186402.0	-1444.0	39216.0
17	15	27	43	379	201.0	-186419.0	-1426.0	39468.0
17	15	27	43	380	202.0	-187390.0	-1432.0	39677.0
17	15	27	43	380	203.0	-189004.0	-1411.0	39731.0
17	15	27	43	381	204.0	-191055.0	-1400.0	39631.0
17	15	27	43	382	205.0	-193208.0	-1426.0	39771.0
17	15	27	43	422	206.0	-195363.0	-1407.0	39645.0
17	15	27	43	423	222.0	-202282.0	-1372.0	38572.0
17	15	27	43	424	223.0	-198535.0	-1363.0	38886.0
17	15	27	43	424	224.0	-195396.0	-1346.0	39209.0
17	15	27	43	425	225.0	-193257.0	-1341.0	39019.0
17	15	27	43	426	226.0	-192226.0	-1328.0	39253.0
17	15	27	43	426	227.0	-191922.0	-1336.0	39576.0
17	15	27	43	427	228.0	-191687.0	-1339.0	39782.0
17	15	27	43	428	229.0	-191665.0	-1351.0	40395.0
17	15	27	43	428	245.0	-190446.0	-1425.0	43726.0
17	15	27	43	429	246.0	-189931.0	-1414.0	43878.0
17	15	27	43	430	247.0	-190085.0	-1424.0	43987.0
17	15	27	43	430	248.0	-190921.0	-1420.0	44041.0
17	15	27	43	431	249.0	-192302.0	-1410.0	44206.0
17	15	27	43	432	250.0	-194333.0	-1426.0	44226.0
17	15	27	43	432	251.0	-196534.0	-1427.0	43838.0
17	15	27	43	433	11.0	-190465.0	-1646.0	44992.0
17	15	27	43	433	12.0	-189567.0	-1665.0	44765.0
17	15	27	43	434	13.0	-188904.0	-1671.0	44626.0
17	15	27	43	435	14.0	-189265.0	-1657.0	43901.0
17	15	27	43	435	15.0	-190749.0	-1655.0	42703.0
17	15	27	43	436	16.0	-192708.0	-1667.0	42345.0
17	15	27	43	468	17.0	-194757.0	-1671.0	41805.0
17	15	27	43	468	18.0	-196930.0	-1680.0	40913.0
17	15	27	43	469	19.0	-199439.0	-1689.0	41211.0
17	15	27	43	470	20.0	-201931.0	-1702.0	42219.0
17	15	27	43	470	21.0	-203947.0	-1735.0	44726.0
17	15	27	43	471	22.0	-205302.0	-1772.0	48268.0
17	15	27	43	472	23.0	-205802.0	-1776.0	52263.0
17	15	27	43	472	24.0	-205729.0	-1774.0	54989.0
17	15	27	43	473	25.0	-206323.0	-1802.0	57759.0
17	15	27	43	474	26.0	-207475.0	-1823.0	59422.0
17	15	27	43	474	27.0	-208509.0	-1851.0	59254.0
17	15	27	43	475	28.0	-210607.0	-1872.0	59889.0
17	15	27	43	476	29.0	-212766.0	-1877.0	61527.0
17	15	27	43	476	30.0	-214934.0	-1890.0	62796.0
17	15	27	43	477	31.0	-216792.0	-1917.0	63584.0
17	15	27	43	477	33.0	-219456.0	-1952.0	61901.0
17	15	27	43	478	34.0	-220221.0	-1970.0	60540.0
17	15	27	43	479	35.0	-221083.0	-1965.0	59629.0
17	15	27	43	479	36.0	-222214.0	-1981.0	58299.0
17	15	27	43	480	37.0	-224631.0	-1981.0	56792.0
17	15	27	43	480	38.0	-227821.0	-1973.0	54750.0
17	15	27	43	481	39.0	-231666.0	-1977.0	52009.0
17	15	27	43	512	40.0	-235641.0	-1975.0	49909.0
17	15	27	43	513	41.0	-239559.0	-1990.0	48178.0
17	15	27	43	514	42.0	-241386.0	-1994.0	46973.0
17	15	27	43	514	43.0	-240294.0	-2016.0	45987.0
17	15	27	43	515	44.0	-235516.0	-2034.0	45423.0
17	15	27	43	516	45.0	-225681.0	-2047.0	45279.0
17	15	27	43	516	46.0	-208516.0	-2052.0	45272.0
17	15	27	43	603	47.0	-185922.0	-2076.0	45297.0
17	15	27	43	604	48.0	-163804.0	-2100.0	45210.0
17	15	27	43	604	49.0	-146977.0	-2116.0	45455.0
17	15	27	43	605	50.0	-139674.0	-2133.0	45635.0
17	15	27	43	606	51.0	-143809.0	-2159.0	45372.0
17	15	27	43	606	52.0	-159667.0	-2159.0	45370.0
17	15	27	43	607	53.0	-185009.0	-2163.0	45578.0
17	15	27	43	648	54.0	-215788.0	-2185.0	45513.0
17	15	27	43	649	56.0	-266496.0	-2236.0	45574.0
17	15	27	43	649	57.0	-280506.0	-2255.0	45709.0
17	15	27	43	650	58.0	-283031.0	-2256.0	45645.0
17	15	27	43	651	59.0	-271999.0	-2246.0	45869.0
17	15	27	43	651	60.0	-248177.0	-2268.0	46359.0
17	15	27	43	652	61.0	-217237.0	-2284.0	46653.0
17	15	27	43	653	62.0	-185254.0	-2305.0	46582.0
17	15	27	43	654	63.0	-155228.0	-2314.0	45986.0
17	15	27	43	654	101.0	-197679.0	-3707.0	46387.0
17	15	27	43	655	102.0	-194409.0	-3768.0	46427.0
17	15	27	43	656	103.0	-192372.0	-3804.0	46868.0
17	15	27	43	656	104.0	-192242.0	-3855.0	46523.0
17	15	27	43	657	105.0	-193167.0	-3910.0	46304.0
17	15	27	43	657	106.0	-195665.0	-3976.0	46554.0
17	15	27	43	658	107.0	-199231.0	-4041.0	46564.0
17	15	27	43	659	123.0	-192824.0	-4977.0	46080.0
17	15	27	43	659	124.0	-192162.0	-5022.0	45870.0
17	15	27	43	660	125.0	-191350.0	-5067.0	45599.0
17	15	27	43	660	126.0	-189996.0	-5087.0	46149.0
17	15	27	43	661	127.0	-188183.0	-5103.0	45981.0
17	15	27	43	662	128.0	-186355.0	-5123.0	45730.0
17	15	27	43	662	129.0	-184988.0	-5139.0	45883.0
17	15	27	43	693	130.0	-184207.0	-5143.0	45764.0
17	15	27	43	694	131.0	-184145.0	-5156.0	45254.0
17	15	27	43	695	132.0	-184673.0	-5182.0	44936.0
17	15	27	43	695	133.0	-185791.0	-5196.0	45381.0
17	15	27	43	696	134.0	-186908.0	-5192.0	45660.0
17	15	27	43	696	135.0	-188045.0	-5183.0	45528.0
17	15	27	43	697	136.0	-189457.0	-5181.0	45825.0
17	15	27	43	737	137.0	-191393.0	-5174.0	46175.0
17	15	27	43	737	138.0	-193824.0	-5148.0	46127.0
17	15	27	43	738	139.0	-195370.0	-5130.0	46309.0
17	15	27	43	739	140.0	-195744.0	-5111.0	46504.0
17	15	27	43	739	141.0	-195549.0	-5070.0	46284.0
17	15	27	43	740	142.0	-194872.0	-5022.0	45993.0
17	15	27	43	740	143.0	-194307.0	-4979.0	45908.0
17	15	27	43	782	144.0	-193920.0	-4908.0	46198.0
17	15	27	43	783	145.0	-194322.0	-4854.0	46418.0
17	15	27	43	784	146.0	-195671.0	-4791.0	46613.0
17	15	27	43	784	147.0	-197687.0	-4707.0	47088.0
17	15	27	43	785	148.0	-200329.0	-4616.0	47261.0
17	15	27	43	786	149.0	-203534.0	-4536.0	47112.0
17	15	27	43	786	150.0	-206732.0	-4475.0	47059.0
17	15	27	43	828	151.0	-209416.0	-4390.0	47361.0
17	15	27	43	829	152.0	-211160.0	-4302.0	47778.0
17	15	27	43	829	168.0	-200489.0	-2586.0	52804.0
17	15	27	43	830	169.0	-201509.0	-2469.0	53413.0
17	15	27	43	831	170.0	-201988.0	-2306.0	54119.0
17	15	27	43	831	171.0	-201714.0	-2173.0	54376.0
17	15	27	43	832	172.0	-201249.0	-2055.0	54657.0
17	15	27	43	872	173.0	-200513.0	-1936.0	55154.0
17	15	27	43	873	174.0	-200157.0	-1837.0	55947.0
17	15	27	43	874	190.0	-200314.0	-121.0	63501.0
17	15	27	43	874	191.0	-196812.0	-20.0	63465.0
17	15	27	43	875	192.0	-193016.0	93.0	63786.0
17	15	27	43	876	193.0	-188527.0	191.0	64031.0
17	15	27	43	876	194.0	-183067.0	301.0	64224.0
17	15	27	43	877	195.0	-176098.0	379.0	65084.0
17	15	27	43	916	196.0	-167709.0	481.0	65218.0
17	15	27	43	917	213.0	-166062.0	2029.0	68656.0
17	15	27	43	918	214.0	-170799.0	2141.0	69159.0
17	15	27	43	919	215.0	-178542.0	2252.0	69320.0
17	15	27	43	919	216.0	-186440.0	2349.0	69132.0
17	15	27	43	920	217.0	-191679.0	2449.0	69192.0
17	15	27	43	921	218.0	-193513.0	2536.0	69402.0
17	15	27	43	921	219.0	-194170.0	2629.0	69764.0
17	15	27	43	962	235.0	-196986.0	3840.0	72104.0
17	15	27	43	963	236.0	-198068.0	3884.0	71854.0
17	15	27	43	964	237.0	-199062.0	3957.0	71622.0
17	15	27	43	965	238.0	-199907.0	4033.0	71857.0
17	15	27	43	966	239.0	-200836.0	4094.0	72208.0
17	15	27	43	966	240.0	-202051.0	4132.0	72023.0
17	15	27	43	967	241.0	-203991.0	4186.0	72321.0
17	15	27	43	968	1.0	-200784.0	4686.0	75298.0
17	15	27	43	968	2.0	-201669.0	4713.0	75915.0
17	15	27	43	969	3.0	-203410.0	4748.0	75854.0
17	15	27	43	970	4.0	-205531.0	4765.0	75459.0
17	15	27	43	970	5.0	-207693.0	4791.0	75492.0
17	15	27	43	971	6.0	-210185.0	4807.0	75899.0
17	15	27	43	972	7.0	-212427.0	4812.0	76466.0
17	15	27	43	972	8.0	-214160.0	4809.0	76391.0
17	15	27	43	973	24.0	-197543.0	4921.0	79532.0
17	15	27	43	974	25.0	-197954.0	4936.0	79212.0
17	15	27	43	974	26.0	-198670.0	4949.0	79159.0
17	15	27	43	975	27.0	-199582.0	4964.0	79048.0
17	15	27	43	975	28.0	-200711.0	4974.0	79356.0
17	15	27	43	976	29.0	-202056.0	5001.0	79290.0
17	15	27	44	7	30.0	-203439.0	5019.0	79561.0
17	15	27	44	8	31.0	-205147.0	5033.0	79736.0
17	15	27	44	9	32.0	-206759.0	5049.0	80113.0
17	15	27	44	10	33.0	-207842.0	5056.0	79885.0
17	15	27	44	10	34.0	-208552.0	5067.0	80166.0
17	15	27	44	11	35.0	-208417.0	5059.0	80575.0
17	15	27	44	12	36.0	-207816.0	5047.0	80204.0
17	15	27	44	12	37.0	-206744.0	5061.0	80356.0
17	15	27	44	52	38.0	-204999.0	5069.0	80837.0
17	15	27	44	52	39.0	-202947.0	5091.0	80856.0
17	15	27	44	53	40.0	-201674.0	5103.0	80729.0
17	15	27	44	54	41.0	-200447.0	5104.0	80784.0
17	15	27	44	55	42.0	-198468.0	5096.0	80859.0
17	15	27	44	55	43.0	-196096.0	5110.0	80981.0
17	15	27	44	56	44.0	-193829.0	5118.0	81333.0
17	15	27	44	56	46.0	-190832.0	5143.0	81048.0
17	15	27	44	97	47.0	-190646.0	5141.0	81484.0
17	15	27	44	98	48.0	-191357.0	5163.0	81677.0
17	15	27	44	99	49.0	-193200.0	5176.0	81615.0
17	15	27	44	100	50.0	-195839.0	5183.0	81881.0
17	15	27	44	100	51.0	-198840.0	5175.0	81949.0
17	15	27	44	101	52.0	-201792.0	5166.0	81582.0
17	15	27	44	101	53.0	-204589.0	5176.0	81855.0
17	15	27	44	102	69.0	-185421.0	5146.0	80867.0
17	15	27	44	142	70.0	-188041.0	5147.0	80879.0
17	15	27	44	143	71.0	-192399.0	5151.0	80879.0
17	15	27	44	144	72.0	-197201.0	5161.0	81079.0
17	15	27	44	145	73.0	-201067.0	5147.0	81287.0
17	15	27	44	145	74.0	-204414.0	5120.0	81108.0
17	15	27	44	146	75.0	-207250.0	5126.0	81187.0
17	15	27	44	147	76.0	-209444.0	5108.0	81140.0
17	15	27	44	147	91.0	-206787.0	4806.0	81341.0
17	15	27	44	148	92.0	-204697.0	4765.0	81058.0
17	15	27	44	149	93.0	-202946.0	4736.0	81674.0
17	15	27	44	150	94.0	-201704.0	4733.0	81901.0
17	15	27	44	150	95.0	-200901.0	4699.0	81447.0
17	15	27	44	151	96.0	-200596.0	4663.0	81317.0
17	15	27	44	152	97.0	-200406.0	4626.0	81790.0
17	15	27	44	153	98.0	-200222.0	4605.0	82205.0
17	15	27	44	154	114.0	-196951.0	3987.0	81290.0
17	15	27	44	154	115.0	-198857.0	3958.0	81594.0
17	15	27	44	155	116.0	-200337.0	3938.0	81607.0
17	15	27	44	156	117.0	-201047.0	3913.0	81833.0
17	15	27	44	156	118.0	-201204.0	3881.0	81813.0
17	15	27	44	157	119.0	-200820.0	3844.0	81946.0
17	15	27	44	187	120.0	-199886.0	3829.0	82141.0
17	15	27	44	188	121.0	-198806.0	3796.0	82513.0
17	15	27	44	189	122.0	-197841.0	3778.0	82709.0
17	15	27	44	190	123.0	-197679.0	3748.0	83069.0
17	15	27	44	190	124.0	-198228.0	3684.0	83303.0
17	15	27	44	191	125.0	-199602.0	3632.0	83644.0
17	15	27	44	192	126.0	-200832.0	3578.0	83386.0
17	15	27	44	193	127.0	-201991.0	3535.0	83699.0
17	15	27	44	193	128.0	-202837.0	3506.0	84024.0
17	15	27	44	194	129.0	-203690.0	3475.0	84539.0
17	15	27	44	195	130.0	-204592.0	3434.0	84914.0
17	15	27	44	195	131.0	-204958.0	3395.0	85600.0
17	15	27	44	196	132.0	-205002.0	3343.0	85862.0
17	15	27	44	197	133.0	-204912.0	3287.0	85869.0
17	15	27	44	198	134.0	-204874.0	3237.0	85844.0
17	15	27	44	198	136.0	-204531.0	3158.0	85276.0
17	15	27	44	199	137.0	-204064.0	3118.0	85503.0
17	15	27	44	200	138.0	-202863.0	3063.0	85929.0
17	15	27	44	200	139.0	-201171.0	3044.0	86239.0
17	15	27	44	201	140.0	-199053.0	3016.0	86393.0
17	15	27	44	201	141.0	-196548.0	2987.0	86633.0
17	15	27	44	202	142.0	-193774.0	2953.0	86792.0
17	15	27	44	233	143.0	-191103.0	2904.0	86412.0
17	15	27	44	233	144.0	-188874.0	2864.0	86363.0
17	15	27	44	234	145.0	-187428.0	2824.0	86841.0
17	15	27	44	235	146.0	-186975.0	2781.0	87135.0
17	15	27	44	236	147.0	-187587.0	2736.0	87341.0
17	15	27	44	237	148.0	-188907.0	2696.0	87445.0
17	15	27	44	238	149.0	-190678.0	2634.0	87672.0
17	15	27	44	238	150.0	-192911.0	2573.0	87789.0
17	15	27	44	239	151.0	-195233.0	2518.0	88069.0
17	15	27	44	240	152.0	-197220.0	2464.0	87941.0
17	15	27	44	240	153.0	-198642.0	2421.0	87801.0
17	15	27	44	241	154.0	-199668.0	2361.0	87513.0
17	15	27	44	242	155.0	-200507.0	2313.0	87354.0
17	15	27	44	243	156.0	-201653.0	2274.0	87641.0
17	15	27	44	243	157.0	-202942.0	2213.0	87756.0
17	15	27	44	244	158.0	-204162.0	2171.0	88003.0
17	15	27	44	245	159.0	-204994.0	2109.0	88108.0
17	15	27	44	245	160.0	-205660.0	2066.0	88241.0
17	15	27	44	246	161.0	-206262.0	2019.0	88452.0
17	15	27	44	246	162.0	-206662.0	1996.0	88274.0
17	15	27	44	247	163.0	-206831.0	1963.0	88146.0
17	15	27	44	248	164.0	-206436.0	1915.0	88379.0
17	15	27	44	278	165.0	-205726.0	1848.0	88393.0
17	15	27	44	279	166.0	-205223.0	1805.0	88264.0
17	15	27	44	280	167.0	-204671.0	1761.0	87961.0
17	15	27	44	281	168.0	-204337.0	1714.0	87468.0
17	15	27	44	281	169.0	-204350.0	1633.0	86666.0
17	15	27	44	282	170.0	-204614.0	1559.0	86381.0
17	15	27	44	283	171.0	-205558.0	1520.0	86175.0
17	15	27	44	284	172.0	-207216.0	1463.0	85694.0
17	15	27	44	284	173.0	-208844.0	1405.0	85017.0
17	15	27	44	285	174.0	-209924.0	1346.0	85408.0
17	15	27	44	286	175.0	-210477.0	1293.0	87931.0
17	15	27	44	287	176.0	-210269.0	1229.0	91836.0
17	15	27	44	287	177.0	-209204.0	1159.0	96045.0
17	15	27	44	288	178.0	-207396.0	1119.0	101068.0
17	15	27	44	289	179.0	-205115.0	1083.0	104678.0
17	15	27	44	289	181.0	-200422.0	952.0	106791.0
17	15	27	44	290	182.0	-199001.0	896.0	107159.0
17	15	27	44	290	183.0	-198141.0	861.0	109318.0
17	15	27	44	291	184.0	-197384.0	829.0	111094.0
17	15	27	44	292	185.0	-196750.0	775.0	111148.0
17	15	27	44	292	186.0	-196598.0	743.0	109996.0
17	15	27	44	323	187.0	-197202.0	694.0	109716.0
17	15	27	44	323	188.0	-198797.0	666.0	108976.0
17	15	27	44	324	189.0	-201208.0	601.0	106488.0
17	15	27	44	325	190.0	-203552.0	551.0	105061.0
17	15	27	44	326	191.0	-205190.0	506.0	103916.0
17	15	27	44	326	192.0	-205663.0	439.0	101243.0
17	15	27	44	327	193.0	-205157.0	388.0	98096.0
17	15	27	44	366	194.0	-204486.0	324.0	95014.0
17	15	27	44	367	195.0	-205162.0	258.0	92704.0
17	15	27	44	368	196.0	-206855.0	201.0	91321.0
17	15	27	44	369	197.0	-206160.0	130.0	90504.0
17	15	27	44	369	198.0	-201242.0	85.0	89807.0
17	15	27	44	370	199.0	-191307.0	29.0	89412.0
17	15	27	44	371	200.0	-176310.0	-27.0	89339.0
17	15	27	44	412	201.0	-161164.0	-94.0	89333.0
17	15	27	44	412	203.0	-147535.0	-214.0	89624.0
17	15	27	44	413	204.0	-153469.0	-263.0	89921.0
17	15	27	44	414	205.0	-168592.0	-322.0	89743.0
17	15	27	44	415	206.0	-192316.0	-370.0	89213.0
17	15	27	44	415	207.0	-221162.0	-409.0	89344.0
17	15	27	44	416	208.0	-249306.0	-462.0	89768.0
17	15	27	44	417	209.0	-271676.0	-523.0	89160.0
17	15	27	44	457	210.0	-284609.0	-607.0	88691.0
17	15	27	44	458	226.0	-243184.0	-1522.0	88552.0
17	15	27	44	459	227.0	-246701.0	-1578.0	88363.0
17	15	27	44	459	228.0	-243693.0	-1620.0	88296.0
17	15	27	44	460	229.0	-235334.0	-1667.0	88383.0
17	15	27	44	461	230.0	-222674.0	-1715.0	88726.0
17	15	27	44	462	231.0	-207584.0	-1769.0	88818.0
17	15	27	44	462	232.0	-192794.0	-1827.0	88933.0
17	15	27	44	463	249.0	-214426.0	-2939.0	88287.0
17	15	27	44	464	250.0	-213121.0	-3001.0	88112.0
17	15	27	44	464	251.0	-211601.0	-3068.0	88179.0
17	15	27	44	465	252.0	-209694.0	-3119.0	88143.0
17	15	27	44	466	253.0	-207230.0	-3184.0	87901.0
17	15	27	44	467	254.0	-204651.0	-3265.0	88033.0
17	15	27	44	467	255.0	-202038.0	-3343.0	88091.0
17	15	27	44	468	15.0	-201822.0	-4446.0	85366.0
17	15	27	44	468	16.0	-199009.0	-4496.0	85013.0
17	15	27	44	469	17.0	-195774.0	-4535.0	84491.0
17	15	27	44	470	18.0	-192306.0	-4558.0	84729.0
17	15	27	44	470	19.0	-189314.0	-4603.0	84241.0
17	15	27	44	471	20.0	-186603.0	-4636.0	83899.0
17	15	27	44	502	21.0	-184675.0	-4651.0	83920.0
17	15	27	44	503	22.0	-183232.0	-4668.0	83782.0
17	15	27	44	504	23.0	-182147.0	-4698.0	83391.0
17	15	27	44	504	24.0	-181525.0	-4711.0	83380.0
17	15	27	44	505	25.0	-181264.0	-4701.0	83274.0
17	15	27	44	505	26.0	-181570.0	-4700.0	83248.0
17	15	27	44	506	27.0	-182507.0	-4694.0	82946.0
17	15	27	44	547	28.0	-184141.0	-4689.0	82691.0
17	15	27	44	548	29.0	-186315.0	-4695.0	82526.0
17	15	27	44	549	30.0	-189007.0	-4669.0	82541.0
17	15	27	44	549	31.0	-191710.0	-4616.0	82457.0
17	15	27	44	550	32.0	-194307.0	-4576.0	82303.0
17	15	27	44	550	33.0	-196836.0	-4542.0	81976.0
17	15	27	44	551	34.0	-198964.0	-4491.0	81860.0
17	15	27	44	552	35.0	-200505.0	-4434.0	81754.0
17	15	27	44	593	37.0	-202084.0	-4288.0	81289.0
17	15	27	44	593	38.0	-202097.0	-4209.0	80934.0
17	15	27	44	594	39.0	-201884.0	-4097.0	80994.0
17	15	27	44	595	40.0	-201288.0	-4001.0	80777.0
17	15	27	44	595	41.0	-200179.0	-3892.0	80553.0
17	15	27	44	596	42.0	-198676.0	-3801.0	80299.0
17	15	27	44	597	43.0	-196933.0	-3688.0	80368.0
17	15	27	44	597	44.0	-195727.0	-3562.0	80429.0
17	15	27	44	637	60.0	-199960.0	-1321.0	79874.0
17	15	27	44	638	61.0	-197480.0	-1169.0	80328.0
17	15	27	44	639	62.0	-195638.0	-995.0	80207.0
17	15	27	44	639	63.0	-194526.0	-835.0	80256.0
17	15	27	44	640	64.0	-194936.0	-677.0	80773.0
17	15	27	44	640	65.0	-196976.0	-519.0	80695.0
17	15	27	44	641	66.0	-199820.0	-360.0	80921.0
17	15	27	44	642	82.0	-191419.0	1952.0	87034.0
17	15	27	44	682	83.0	-189539.0	2080.0	87268.0
17	15	27	44	683	84.0	-188067.0	2218.0	88264.0
17	15	27	44	683	85.0	-186735.0	2379.0	88478.0
17	15	27	44	684	86.0	-185785.0	2527.0	88723.0
17	15	27	44	685	87.0	-185286.0	2631.0	89164.0
17	15	27	44	685	88.0	-185229.0	2754.0	89829.0
17	15	27	44	686	89.0	-185499.0	2879.0	89674.0
17	15	27	44	727	104.0	-190836.0	4694.0	91481.0
17	15	27	44	728	105.0	-213177.0	4825.0	91501.0
17	15	27	44	729	106.0	-237136.0	4941.0	91346.0
17	15	27	44	730	107.0	-252786.0	5054.0	91156.0
17	15	27	44	730	108.0	-259916.0	5181.0	91144.0
17	15	27	44	731	109.0	-256790.0	5288.0	91391.0
17	15	27	44	731	110.0	-248221.0	5414.0	91859.0
17	15	27	44	773	111.0	-240478.0	5530.0	92043.0
17	15	27	44	774	127.0	-187219.0	7134.0	90928.0
17	15	27	44	775	128.0	-191895.0	7223.0	90904.0
17	15	27	44	775	129.0	-198039.0	7322.0	90450.0
17	15	27	44	776	130.0	-204777.0	7408.0	90601.0
17	15	27	44	777	131.0	-211017.0	7513.0	90834.0
17	15	27	44	777	132.0	-215665.0	7594.0	90359.0
17	15	27	44	778	133.0	-217799.0	7667.0	90277.0
17	15	27	44	779	134.0	-217022.0	7754.0	90144.0
17	15	27	44	779	150.0	-189621.0	8824.0	88920.0
17	15	27	44	780	151.0	-194505.0	8898.0	88937.0
17	15	27	44	781	152.0	-200240.0	8962.0	88601.0
17	15	27	44	782	153.0	-206288.0	9022.0	88881.0
17	15	27	44	782	154.0	-212099.0	9049.0	89011.0
17	15	27	44	783	155.0	-217192.0	9117.0	88593.0
17	15	27	44	784	156.0	-221507.0	9161.0	88291.0
17	15	27	44	784	172.0	-194796.0	9416.0	90734.0
17	15	27	44	785	173.0	-192671.0	9436.0	90647.0
17	15	27	44	786	174.0	-191191.0	9464.0	90528.0
17	15	27	44	786	175.0	-190357.0	9473.0	90771.0
17	15	27	44	817	176.0	-189914.0	9484.0	90950.0
17	15	27	44	818	177.0	-189359.0	9510.0	90981.0
17	15	27	44	819	178.0	-188396.0	9515.0	90675.0
17	15	27	44	819	179.0	-187202.0	9518.0	90721.0
17	15	27	44	820	180.0	-186139.0	9524.0	90866.0
17	15	27	44	821	181.0	-185073.0	9508.0	90874.0
17	15	27	44	822	182.0	-183651.0	9509.0	91215.0
17	15	27	44	823	183.0	-181844.0	9488.0	91289.0
17	15	27	44	823	184.0	-180151.0	9493.0	91291.0
17	15	27	44	824	185.0	-178977.0	9467.0	91429.0
17	15	27	44	833	186.0	-178163.0	9469.0	91175.0
17	15	27	44	834	187.0	-178139.0	9466.0	91123.0
17	15	27	44	834	188.0	-178804.0	9469.0	91633.0
17	15	27	44	835	189.0	-179246.0	9484.0	91456.0
17	15	27	44	836	190.0	-179584.0	9489.0	91414.0
17	15	27	44	836	194.0	-178465.0	9470.0	91648.0
17	15	27	44	837	195.0	-177791.0	9483.0	91795.0
17	15	27	44	837	196.0	-177602.0	9506.0	91597.0
17	15	27	44	838	197.0	-178769.0	9509.0	91518.0
17	15	27	44	838	198.0	-180877.0	9540.0	91694.0
17	15	27	44	839	199.0	-183602.0	9535.0	91842.0
17	15	27	44	839	200.0	-187279.0	9540.0	91833.0
17	15	27	44	862	201.0	-191744.0	9546.0	91855.0
17	15	27	44	863	202.0	-196896.0	9555.0	92151.0
17	15	27	44	863	203.0	-202796.0	9546.0	92321.0
17	15	27	44	864	204.0	-208683.0	9551.0	92486.0
17	15	27	44	865	205.0	-214298.0	9569.0	92676.0
17	15	27	44	865	206.0	-219283.0	9556.0	92763.0
17	15	27	44	884	207.0	-223394.0	9549.0	92589.0
17	15	27	44	884	208.0	-226979.0	9553.0	92616.0
17	15	27	44	885	209.0	-230524.0	9571.0	92915.0
17	15	27	44	885	210.0	-234128.0	9572.0	93049.0
17	15	27	44	886	211.0	-237525.0	9544.0	93198.0
17	15	27	44	886	212.0	-240189.0	9548.0	93613.0
17	15	27	44	887	213.0	-242010.0	9527.0	94081.0
17	15	27	44	888	214.0	-242855.0	9512.0	93454.0
17	15	27	44	888	215.0	-242666.0	9498.0	93127.0
17	15	27	44	889	217.0	-239596.0	9483.0	93482.0
17	15	27	44	889	218.0	-236743.0	9461.0	93288.0
17	15	27	44	890	219.0	-233357.0	9478.0	93531.0
17	15	27	44	890	220.0	-229627.0	9477.0	93785.0
17	15	27	44	891	221.0	-225580.0	9483.0	93923.0
17	15	27	44	891	222.0	-221541.0	9468.0	94238.0
17	15	27	44	908	223.0	-217628.0	9439.0	94138.0
17	15	27	44	909	224.0	-213597.0	9433.0	93916.0
17	15	27	44	909	225.0	-209516.0	9424.0	93973.0
17	15	27	44	910	226.0	-205726.0	9408.0	93945.0
17	15	27	44	910	227.0	-202566.0	9383.0	94211.0
17	15	27	44	911	228.0	-200157.0	9362.0	93818.0
17	15	27	44	911	229.0	-198696.0	9351.0	93689.0
17	15	27	44	912	230.0	-198298.0	9316.0	94169.0
17	15	27	44	913	231.0	-198752.0	9283.0	94771.0
17	15	27	44	913	232.0	-199736.0	9250.0	94783.0
17	15	27	44	914	233.0	-200882.0	9246.0	94838.0
17	15	27	44	952	234.0	-201811.0	9212.0	95186.0
17	15	27	44	953	235.0	-202288.0	9189.0	95030.0
17	15	27	44	953	236.0	-202105.0	9173.0	94877.0
17	15	27	44	954	237.0	-201417.0	9145.0	94841.0
17	15	27	44	954	239.0	-199594.0	9106.0	94993.0
17	15	27	44	955	240.0	-199024.0	9083.0	94944.0
17	15	27	44	955	241.0	-198696.0	9063.0	95432.0
17	15	27	44	997	242.0	-198503.0	9042.0	95186.0
17	15	27	44	998	243.0	-198465.0	9023.0	95204.0
17	15	27	44	998	244.0	-198580.0	9011.0	95474.0
17	15	27	44	999	245.0	-198733.0	8960.0	95502.0
17	15	27	45	0	246.0	-198702.0	8933.0	95029.0
17	15	27	45	1	247.0	-198701.0	8890.0	94705.0
17	15	27	45	1	248.0	-199156.0	8860.0	95193.0
17	15	27	45	88	249.0	-200193.0	8843.0	95639.0
17	15	27	45	89	250.0	-201846.0	8792.0	95617.0
17	15	27	45	90	6.0	-188161.0	8306.0	95387.0
17	15	27	45	91	7.0	-185258.0	8288.0	95499.0
17	15	27	45	93	8.0	-183345.0	8253.0	95448.0
17	15	27	45	93	9.0	-182817.0	8223.0	95231.0
17	15	27	45	94	10.0	-183434.0	8183.0	95011.0
17	15	27	45	94	11.0	-184334.0	8123.0	95237.0
17	15	27	45	132	12.0	-185465.0	8088.0	95335.0
17	15	27	45	133	28.0	-211176.0	7388.0	94608.0
17	15	27	45	133	29.0	-216137.0	7349.0	94603.0
17	15	27	45	134	30.0	-220359.0	7311.0	94606.0
17	15	27	45	134	31.0	-223111.0	7273.0	94162.0
17	15	27	45	135	32.0	-224591.0	7224.0	94138.0
17	15	27	45	135	33.0	-224736.0	7167.0	93989.0
17	15	27	45	136	34.0	-223474.0	7115.0	94242.0
17	15	27	45	176	73.0	-224866.0	4404.0	97929.0
17	15	27	45	177	74.0	-225451.0	4359.0	98006.0
17	15	27	45	178	75.0	-225104.0	4334.0	98163.0
17	15	27	45	179	76.0	-223652.0	4281.0	98466.0
17	15	27	45	179	77.0	-221639.0	4204.0	98590.0
17	15	27	45	180	78.0	-219010.0	4137.0	98815.0
17	15	27	45	180	79.0	-215916.0	4091.0	98449.0
17	15	27	45	223	95.0	-190346.0	2988.0	100651.0
17	15	27	45	223	96.0	-191429.0	2921.0	100745.0
17	15	27	45	224	97.0	-192839.0	2876.0	100631.0
17	15	27	45	225	98.0	-194173.0	2820.0	100594.0
17	15	27	45	225	99.0	-195282.0	2757.0	100618.0
17	15	27	45	226	100.0	-196075.0	2676.0	101009.0
17	15	27	45	226	101.0	-196436.0	2592.0	101082.0
17	15	27	45	268	102.0	-196480.0	2522.0	101153.0
17	15	27	45	269	118.0	-218036.0	1385.0	110475.0
17	15	27	45	269	119.0	-213119.0	1333.0	114874.0
17	15	27	45	270	120.0	-208369.0	1287.0	118178.0
17	15	27	45	271	121.0	-203146.0	1247.0	119901.0
17	15	27	45	272	122.0	-198432.0	1169.0	120678.0
17	15	27	45	273	123.0	-195229.0	1091.0	121116.0
17	15	27	45	274	124.0	-193661.0	1031.0	122916.0
17	15	27	45	275	125.0	-193617.0	958.0	124243.0
17	15	27	45	275	140.0	-173043.0	-42.0	102621.0
17	15	27	45	276	141.0	-157201.0	-92.0	102648.0
17	15	27	45	277	142.0	-146832.0	-142.0	102236.0
17	15	27	45	277	143.0	-143324.0	-189.0	102158.0
17	15	27	45	278	144.0	-147872.0	-254.0	102528.0
17	15	27	45	279	145.0	-160726.0	-311.0	102472.0
17	15	27	45	279	146.0	-181578.0	-372.0	102245.0
17	15	27	45	280	163.0	-183704.0	-1442.0	101507.0
17	15	27	45	281	164.0	-208163.0	-1507.0	101081.0
17	15	27	45	281	165.0	-226162.0	-1568.0	101175.0
17	15	27	45	282	166.0	-236627.0	-1624.0	101521.0
17	15	27	45	283	167.0	-239864.0	-1677.0	101303.0
17	15	27	45	283	168.0	-236482.0	-1741.0	101519.0
17	15	27	45	313	169.0	-227365.0	-1783.0	101614.0
17	15	27	45	314	170.0	-213992.0	-1826.0	101464.0
17	15	27	45	315	171.0	-198296.0	-1887.0	101472.0
17	15	27	45	315	172.0	-182354.0	-1957.0	101712.0
17	15	27	45	316	173.0	-168983.0	-2039.0	101997.0
17	15	27	45	317	174.0	-159909.0	-2121.0	101899.0
17	15	27	45	317	175.0	-155275.0	-2189.0	101954.0
17	15	27	45	318	176.0	-154067.0	-2249.0	101881.0
17	15	27	45	318	177.0	-155627.0	-2316.0	101943.0
17	15	27	45	319	178.0	-159269.0	-2392.0	102224.0
17	15	27	45	320	179.0	-164592.0	-2474.0	101958.0
17	15	27	45	320	180.0	-171324.0	-2551.0	102223.0
17	15	27	45	321	181.0	-178063.0	-2626.0	101736.0
17	15	27	45	322	182.0	-184532.0	-2695.0	101721.0
17	15	27	45	322	183.0	-190469.0	-2763.0	101901.0
17	15	27	45	323	185.0	-198144.0	-2889.0	102191.0
17	15	27	45	323	186.0	-199441.0	-2943.0	101832.0
17	15	27	45	324	187.0	-198603.0	-3010.0	101731.0
17	15	27	45	325	188.0	-196337.0	-3079.0	101583.0
17	15	27	45	325	189.0	-193917.0	-3124.0	101326.0
17	15	27	45	326	190.0	-192294.0	-3155.0	101806.0
17	15	27	45	357	191.0	-191751.0	-3246.0	102092.0
17	15	27	45	358	192.0	-191774.0	-3297.0	101732.0
17	15	27	45	358	193.0	-192702.0	-3352.0	101511.0
17	15	27	45	359	194.0	-194938.0	-3404.0	101705.0
17	15	27	45	360	195.0	-197887.0	-3465.0	101576.0
17	15	27	45	360	196.0	-201230.0	-3546.0	101594.0
17	15	27	45	361	197.0	-204197.0	-3618.0	101730.0
17	15	27	45	402	198.0	-206421.0	-3685.0	101617.0
17	15	27	45	403	199.0	-208091.0	-3759.0	101239.0
17	15	27	45	404	200.0	-209476.0	-3827.0	100928.0
17	15	27	45	404	201.0	-210953.0	-3896.0	101216.0
17	15	27	45	405	202.0	-212077.0	-3971.0	101343.0
17	15	27	45	406	203.0	-212391.0	-4037.0	101289.0
17	15	27	45	406	204.0	-211716.0	-4092.0	101377.0
17	15	27	45	407	205.0	-210887.0	-4166.0	101259.0
17	15	27	45	447	207.0	-208499.0	-4311.0	101213.0
17	15	27	45	448	208.0	-207747.0	-4355.0	101141.0
17	15	27	45	449	209.0	-207637.0	-4411.0	100778.0
17	15	27	45	449	210.0	-207701.0	-4482.0	100666.0
17	15	27	45	450	211.0	-207447.0	-4545.0	100776.0
17	15	27	45	451	212.0	-206768.0	-4606.0	100326.0
17	15	27	45	451	213.0	-205993.0	-4674.0	100565.0
17	15	27	45	493	214.0	-205142.0	-4724.0	100616.0
17	15	27	45	494	230.0	-188766.0	-5109.0	97066.0
17	15	27	45	494	231.0	-189144.0	-5074.0	96683.0
17	15	27	45	495	232.0	-190560.0	-5020.0	96326.0
17	15	27	45	495	233.0	-192886.0	-4955.0	96009.0
17	15	27	45	496	234.0	-195747.0	-4911.0	96145.0
17	15	27	45	497	235.0	-198731.0	-4847.0	96440.0
17	15	27	45	497	236.0	-201673.0	-4785.0	96002.0
17	15	27	45	498	252.0	-212362.0	-3068.0	93523.0
17	15	27	45	499	253.0	-209697.0	-2910.0	93146.0
17	15	27	45	499	254.0	-206801.0	-2760.0	93129.0
17	15	27	45	500	255.0	-203828.0	-2609.0	93202.0
17	15	27	45	501	0.0	-201234.0	-2454.0	93329.0
17	15	27	45	501	1.0	-198571.0	-2311.0	94011.0
17	15	27	45	502	2.0	-195394.0	-2169.0	93990.0
17	15	27	45	503	3.0	-191943.0	-2026.0	94140.0
17	15	27	45	503	19.0	-196695.0	385.0	98833.0
17	15	27	45	504	20.0	-195971.0	541.0	99801.0
17	15	27	45	504	21.0	-194832.0	708.0	100513.0
17	15	27	45	505	22.0	-193524.0	856.0	100503.0
17	15	27	45	505	23.0	-192017.0	1034.0	100734.0
17	15	27	45	506	24.0	-190816.0	1169.0	101115.0
17	15	27	45	538	25.0	-190050.0	1312.0	101613.0
17	15	27	45	538	26.0	-189834.0	1453.0	101978.0
17	15	27	45	539	27.0	-190226.0	1599.0	102799.0
17	15	27	45	540	28.0	-191246.0	1744.0	103313.0
17	15	27	45	540	29.0	-192369.0	1889.0	103122.0
17	15	27	45	541	30.0	-193794.0	2028.0	103439.0
17	15	27	45	542	31.0	-194517.0	2157.0	104249.0
17	15	27	45	542	32.0	-195136.0	2269.0	104506.0
17	15	27	45	583	33.0	-195363.0	2376.0	104688.0
17	15	27	45	583	34.0	-195105.0	2511.0	104596.0
17	15	27	45	584	35.0	-194495.0	2641.0	104821.0
17	15	27	45	585	36.0	-193744.0	2774.0	105329.0
17	15	27	45	586	37.0	-192779.0	2874.0	105619.0
17	15	27	45	586	38.0	-192062.0	3019.0	105634.0
17	15	27	45	587	39.0	-191178.0	3149.0	105751.0
17	15	27	45	588	41.0	-184885.0	3369.0	106642.0
17	15	27	45	588	42.0	-177397.0	3492.0	107553.0
17	15	27	45	589	43.0	-170586.0	3622.0	108186.0
17	15	27	45	590	44.0	-170757.0	3764.0	107991.0
17	15	27	45	590	45.0	-182917.0	3901.0	108494.0
17	15	27	45	591	46.0	-207871.0	4010.0	108949.0
17	15	27	45	591	47.0	-233726.0	4136.0	109067.0
17	15	27	45	592	48.0	-249332.0	4254.0	108973.0
17	15	27	45	593	63.0	-213214.0	5874.0	108224.0
17	15	27	45	593	64.0	-214477.0	5971.0	107824.0
17	15	27	45	594	65.0	-212922.0	6088.0	107208.0
17	15	27	45	594	66.0	-210333.0	6196.0	107049.0
17	15	27	45	595	67.0	-208186.0	6303.0	107121.0
17	15	27	45	596	68.0	-207646.0	6411.0	107129.0
17	15	27	45	596	69.0	-209207.0	6534.0	106824.0
17	15	27	45	635	70.0	-211782.0	6646.0	107069.0
17	15	27	45	636	71.0	-214456.0	6762.0	106986.0
17	15	27	45	636	72.0	-217162.0	6855.0	106765.0
17	15	27	45	637	73.0	-218766.0	6943.0	106604.0
17	15	27	45	638	74.0	-218684.0	7036.0	106566.0
17	15	27	45	638	75.0	-216927.0	7129.0	106543.0
17	15	27	45	639	76.0	-213982.0	7238.0	106340.0
17	15	27	45	640	77.0	-210072.0	7326.0	106331.0
17	15	27	45	640	78.0	-205128.0	7398.0	106566.0
17	15	27	45	641	79.0	-199790.0	7478.0	106285.0
17	15	27	45	641	80.0	-194780.0	7573.0	106147.0
17	15	27	45	642	81.0	-190424.0	7661.0	106115.0
17	15	27	45	643	82.0	-187284.0	7739.0	105993.0
17	15	27	45	643	83.0	-185207.0	7821.0	106048.0
17	15	27	45	644	84.0	-184453.0	7889.0	105519.0
17	15	27	45	644	86.0	-186354.0	8056.0	105511.0
17	15	27	45	645	87.0	-188639.0	8123.0	105438.0
17	15	27	45	646	88.0	-191481.0	8201.0	105080.0
17	15	27	45	646	89.0	-194268.0	8291.0	105111.0
17	15	27	45	647	90.0	-196559.0	8354.0	105169.0
17	15	27	45	647	91.0	-198407.0	8422.0	105361.0
17	15	27	45	672	92.0	-199856.0	8506.0	104408.0
17	15	27	45	673	93.0	-200602.0	8574.0	104104.0
17	15	27	45	695	94.0	-200971.0	8618.0	103550.0
17	15	27	45	695	95.0	-201087.0	8666.0	101934.0
17	15	27	45	696	96.0	-201091.0	8711.0	101346.0
17	15	27	45	697	97.0	-200921.0	8761.0	102551.0
17	15	27	45	697	98.0	-200664.0	8799.0	103329.0
17	15	27	45	719	99.0	-200582.0	8833.0	103521.0
17	15	27	45	720	100.0	-200829.0	8873.0	103923.0
17	15	27	45	720	101.0	-201089.0	8908.0	103941.0
17	15	27	45	721	102.0	-201125.0	8919.0	103661.0
17	15	27	45	722	103.0	-200905.0	8959.0	103444.0
17	15	27	45	722	104.0	-200436.0	8979.0	103788.0
17	15	27	45	723	105.0	-200201.0	8988.0	103686.0
17	15	27	45	723	106.0	-200053.0	9018.0	103840.0
17	15	27	45	761	108.0	-200669.0	9033.0	103940.0
17	15	27	45	762	109.0	-201762.0	9045.0	103658.0
17	15	27	45	763	110.0	-203274.0	9065.0	103515.0
17	15	27	45	764	111.0	-204576.0	9109.0	103578.0
17	15	27	45	764	112.0	-205462.0	9128.0	103211.0
17	15	27	45	765	113.0	-205938.0	9122.0	102918.0
17	15	27	45	766	114.0	-205546.0	9114.0	102701.0
17	15	27	45	766	115.0	-204643.0	9127.0	102994.0
17	15	27	45	767	131.0	-209797.0	8963.0	100636.0
17	15	27	45	768	132.0	-207609.0	8960.0	100383.0
17	15	27	45	768	133.0	-204342.0	8968.0	100324.0
17	15	27	45	769	134.0	-201089.0	8951.0	100004.0
17	15	27	45	770	135.0	-198067.0	8938.0	100294.0
17	15	27	45	770	136.0	-195755.0	8894.0	100398.0
17	15	27	45	771	137.0	-194165.0	8864.0	100188.0
17	15	27	45	771	153.0	-203826.0	8343.0	97439.0
17	15	27	45	772	154.0	-202985.0	8309.0	97309.0
17	15	27	45	773	155.0	-201927.0	8266.0	97749.0
17	15	27	45	773	156.0	-200287.0	8249.0	98095.0
17	15	27	45	774	157.0	-199046.0	8238.0	97886.0
17	15	27	45	775	158.0	-198207.0	8213.0	97568.0
17	15	27	45	775	159.0	-198091.0	8185.0	97724.0
17	15	27	45	808	160.0	-198545.0	8151.0	97948.0
17	15	27	45	809	161.0	-199341.0	8130.0	97349.0
17	15	27	45	809	162.0	-200154.0	8113.0	96933.0
17	15	27	45	851	163.0	-201157.0	8076.0	96660.0
17	15	27	45	852	164.0	-202151.0	8024.0	96488.0
17	15	27	45	853	165.0	-202836.0	7981.0	96462.0
17	15	27	45	854	166.0	-202964.0	7940.0	96913.0
17	15	27	45	854	167.0	-202769.0	7908.0	97086.0
17	15	27	45	855	168.0	-202573.0	7864.0	97001.0
17	15	27	45	855	169.0	-201563.0	7826.0	96463.0
17	15	27	45	900	170.0	-199874.0	7770.0	96553.0
17	15	27	45	901	171.0	-197967.0	7733.0	96447.0
17	15	27	45	901	172.0	-196441.0	7694.0	96085.0
17	15	27	45	902	173.0	-195749.0	7654.0	96004.0
17	15	27	45	903	174.0	-195592.0	7584.0	96095.0
17	15	27	45	903	176.0	-196762.0	7508.0	95764.0
17	15	27	45	904	177.0	-198172.0	7448.0	95999.0
17	15	27	45	941	178.0	-200200.0	7410.0	96305.0
17	15	27	45	942	198.0	-185495.0	6298.0	94113.0
17	15	27	45	943	199.0	-186102.0	6230.0	94395.0
17	15	27	45	943	200.0	-187472.0	6180.0	94073.0
17	15	27	45	944	201.0	-189121.0	6129.0	93852.0
17	15	27	45	945	202.0	-191181.0	6063.0	93332.0
17	15	27	45	945	203.0	-192160.0	6003.0	93473.0
17	15	27	45	986	204.0	-192983.0	5937.0	93164.0
17	15	27	45	987	205.0	-193483.0	5856.0	92608.0
17	15	27	45	988	221.0	-201822.0	4655.0	91671.0
17	15	27	45	988	222.0	-202489.0	4591.0	92068.0
17	15	27	45	989	223.0	-203760.0	4543.0	91575.0
17	15	27	45	990	224.0	-205731.0	4461.0	91514.0
17	15	27	45	990	225.0	-207611.0	4371.0	92029.0
17	15	27	45	991	226.0	-209274.0	4296.0	92364.0
17	15	27	45	992	227.0	-210720.0	4231.0	92509.0
17	15	27	45	992	243.0	-204683.0	2714.0	90592.0
17	15	27	45	993	244.0	-202547.0	2594.0	90784.0
17	15	27	45	994	245.0	-200577.0	2491.0	90945.0
17	15	27	45	994	246.0	-198610.0	2394.0	91198.0
17	15	27	45	995	247.0	-197154.0	2270.0	91483.0
17	15	27	45	996	248.0	-195744.0	2136.0	91632.0
17	15	27	45	997	249.0	-194353.0	2033.0	91766.0
17	15	27	45	997	10.0	-195096.0	-127.0	90454.0
17	15	27	45	998	11.0	-196926.0	-238.0	90148.0
17	15	27	45	999	12.0	-199349.0	-351.0	89916.0
17	15	27	45	999	13.0	-201831.0	-451.0	89760.0
17	15	27	46	0	14.0	-204294.0	-537.0	89781.0
17	15	27	46	0	15.0	-206462.0	-627.0	89814.0
17	15	27	46	33	16.0	-208183.0	-725.0	89905.0
17	15	27	46	33	17.0	-209589.0	-823.0	89749.0
17	15	27	46	34	18.0	-210679.0	-951.0	89562.0
17	15	27	46	35	19.0	-212022.0	-1052.0	89640.0
17	15	27	46	35	20.0	-213534.0	-1167.0	89423.0
17	15	27	46	36	21.0	-215153.0	-1267.0	89391.0
17	15	27	46	37	22.0	-216387.0	-1384.0	89613.0
17	15	27	46	77	23.0	-217659.0	-1498.0	89221.0
17	15	27	46	78	24.0	-217943.0	-1594.0	89041.0
17	15	27	46	79	25.0	-217117.0	-1691.0	88285.0
17	15	27	46	79	26.0	-215386.0	-1804.0	87433.0
17	15	27	46	80	27.0	-212773.0	-1903.0	87356.0
17	15	27	46	81	28.0	-209321.0	-1997.0	87656.0
17	15	27	46	81	29.0	-205634.0	-2104.0	87889.0
17	15	27	46	122	30.0	-202469.0	-2211.0	87449.0
17	15	27	46	122	32.0	-197136.0	-2383.0	86518.0
17	15	27	46	123	33.0	-194994.0	-2480.0	85862.0
17	15	27	46	124	34.0	-193433.0	-2559.0	85176.0
17	15	27	46	124	35.0	-192854.0	-2619.0	84201.0
17	15	27	46	125	36.0	-193586.0	-2724.0	84278.0
17	15	27	46	126	37.0	-195181.0	-2805.0	85167.0
17	15	27	46	167	38.0	-198707.0	-2888.0	88584.0
17	15	27	46	168	39.0	-204076.0	-2983.0	92581.0
17	15	27	46	168	55.0	-227107.0	-4357.0	97526.0
17	15	27	46	169	56.0	-229432.0	-4420.0	94408.0
17	15	27	46	170	57.0	-235177.0	-4473.0	91656.0
17	15	27	46	170	58.0	-240665.0	-4537.0	89421.0
17	15	27	46	171	59.0	-242630.0	-4613.0	87940.0
17	15	27	46	212	60.0	-238776.0	-4689.0	86916.0
17	15	27	46	213	61.0	-229569.0	-4764.0	85889.0
17	15	27	46	214	77.0	-238874.0	-5904.0	79639.0
17	15	27	46	214	78.0	-207195.0	-5962.0	79705.0
17	15	27	46	215	79.0	-169021.0	-6016.0	79633.0
17	15	27	46	216	80.0	-132768.0	-6073.0	79414.0
17	15	27	46	216	81.0	-106633.0	-6150.0	79234.0
17	15	27	46	217	82.0	-96855.0	-6186.0	79559.0
17	15	27	46	257	83.0	-103673.0	-6263.0	79592.0
17	15	27	46	258	99.0	-145359.0	-7297.0	78834.0
17	15	27	46	259	100.0	-148036.0	-7347.0	78373.0
17	15	27	46	259	101.0	-153263.0	-7386.0	78149.0
17	15	27	46	260	102.0	-160544.0	-7434.0	78136.0
17	15	27	46	261	103.0	-169000.0	-7499.0	78023.0
17	15	27	46	261	104.0	-177830.0	-7532.0	77399.0
17	15	27	46	302	105.0	-186029.0	-7605.0	77624.0
17	15	27	46	303	122.0	-187307.0	-8703.0	77156.0
17	15	27	46	304	123.0	-182037.0	-8769.0	77294.0
17	15	27	46	305	124.0	-177811.0	-8802.0	77191.0
17	15	27	46	305	125.0	-174750.0	-8846.0	77094.0
17	15	27	46	306	126.0	-173532.0	-8911.0	76378.0
17	15	27	46	307	127.0	-174413.0	-8982.0	76078.0
17	15	27	46	347	128.0	-175653.0	-9035.0	75818.0
17	15	27	46	348	129.0	-177271.0	-9101.0	74771.0
17	15	27	46	357	144.0	-195626.0	-9808.0	70063.0
17	15	27	46	357	145.0	-198130.0	-9824.0	69942.0
17	15	27	46	358	146.0	-201181.0	-9837.0	69914.0
17	15	27	46	358	147.0	-204119.0	-9844.0	69294.0
17	15	27	46	392	148.0	-206364.0	-9836.0	68996.0
17	15	27	46	393	149.0	-206946.0	-9837.0	69034.0
17	15	27	46	393	150.0	-206711.0	-9814.0	68577.0
17	15	27	46	394	167.0	-188182.0	-8669.0	63082.0
17	15	27	46	395	168.0	-188261.0	-8571.0	62706.0
17	15	27	46	395	169.0	-188490.0	-8426.0	62298.0
17	15	27	46	396	170.0	-188539.0	-8288.0	61619.0
17	15	27	46	436	171.0	-188421.0	-8179.0	61758.0
17	15	27	46	437	172.0	-188089.0	-8049.0	62050.0
17	15	27	46	437	173.0	-188021.0	-7933.0	61756.0
17	15	27	46	438	189.0	-197422.0	-5599.0	63352.0
17	15	27	46	439	190.0	-199013.0	-5467.0	63997.0
17	15	27	46	439	191.0	-201229.0	-5312.0	63919.0
17	15	27	46	440	192.0	-203096.0	-5149.0	64594.0
17	15	27	46	482	193.0	-204993.0	-4983.0	65334.0
17	15	27	46	483	194.0	-206867.0	-4821.0	65854.0
17	15	27	46	483	212.0	-190039.0	-2401.0	70523.0
17	15	27	46	484	213.0	-189694.0	-2283.0	70537.0
17	15	27	46	485	214.0	-188737.0	-2167.0	70281.0
17	15	27	46	485	215.0	-186902.0	-2030.0	70313.0
17	15	27	46	486	216.0	-183934.0	-1924.0	70462.0
17	15	27	46	528	217.0	-179096.0	-1810.0	70130.0
17	15	27	46	528	218.0	-172444.0	-1695.0	70268.0
17	15	27	46	529	234.0	-175759.0	-47.0	70758.0
17	15	27	46	530	235.0	-175509.0	31.0	70070.0
17	15	27	46	530	236.0	-180397.0	128.0	69726.0
17	15	27	46	531	237.0	-187591.0	253.0	69506.0
17	15	27	46	531	238.0	-193166.0	324.0	69027.0
17	15	27	46	572	239.0	-194776.0	402.0	68871.0
17	15	27	46	573	240.0	-193828.0	494.0	69643.0
17	15	27	46	574	0.0	-198824.0	1620.0	69376.0
17	15	27	46	574	1.0	-196591.0	1671.0	69074.0
17	15	27	46	575	2.0	-193897.0	1769.0	68956.0
17	15	27	46	576	3.0	-190686.0	1842.0	68876.0
17	15	27	46	577	4.0	-188079.0	1896.0	68952.0
17	15	27	46	577	5.0	-186671.0	1953.0	69354.0
17	15	27	46	617	6.0	-186821.0	2019.0	69660.0
17	15	27	46	617	23.0	-223696.0	2561.0	68763.0
17	15	27	46	618	24.0	-223490.0	2561.0	68763.0
17	15	27	46	619	25.0	-222536.0	2594.0	68861.0
17	15	27	46	619	26.0	-222027.0	2634.0	69107.0
17	15	27	46	620	27.0	-220148.0	2633.0	68880.0
17	15	27	46	621	28.0	-217647.0	2651.0	68723.0
17	15	27	46	662	29.0	-215715.0	2652.0	69209.0
17	15	27	46	663	45.0	-191049.0	2529.0	69555.0
17	15	27	46	664	46.0	-191362.0	2516.0	69550.0
17	15	27	46	664	47.0	-191729.0	2509.0	69841.0
17	15	27	46	665	48.0	-192049.0	2505.0	69681.0
17	15	27	46	665	49.0	-192034.0	2498.0	69342.0
17	15	27	46	666	50.0	-192019.0	2494.0	69255.0
17	15	27	46	708	51.0	-191496.0	2490.0	69586.0
17	15	27	46	708	52.0	-190696.0	2477.0	69708.0
17	15	27	46	709	68.0	-211017.0	2293.0	69905.0
17	15	27	46	710	69.0	-210938.0	2309.0	69799.0
17	15	27	46	710	70.0	-210461.0	2299.0	69396.0
17	15	27	46	711	71.0	-209688.0	2293.0	69331.0
17	15	27	46	712	72.0	-208711.0	2271.0	69717.0
17	15	27	46	712	73.0	-207054.0	2269.0	69913.0
17	15	27	46	713	74.0	-204946.0	2259.0	70142.0
17	15	27	46	714	90.0	-207667.0	1862.0	72072.0
17	15	27	46	714	91.0	-207635.0	1822.0	72173.0
17	15	27	46	715	92.0	-207571.0	1817.0	72424.0
17	15	27	46	715	93.0	-207981.0	1799.0	72288.0
17	15	27	46	716	94.0	-208046.0	1753.0	72242.0
17	15	27	46	717	95.0	-207870.0	1716.0	72279.0
17	15	27	46	717	96.0	-207752.0	1679.0	72142.0
17	15	27	46	718	113.0	-194383.0	964.0	72788.0
17	15	27	46	719	114.0	-196292.0	930.0	73076.0
17	15	27	46	719	115.0	-199236.0	891.0	73154.0
17	15	27	46	720	116.0	-202202.0	857.0	73388.0
17	15	27	46	721	117.0	-204567.0	828.0	73707.0
17	15	27	46	721	118.0	-205652.0	800.0	73361.0
17	15	27	46	753	119.0	-206497.0	748.0	73078.0
17	15	27	46	753	120.0	-206627.0	711.0	73161.0
17	15	27	46	754	121.0	-206941.0	675.0	73408.0
17	15	27	46	755	122.0	-206759.0	621.0	73756.0
17	15	27	46	755	123.0	-206289.0	574.0	74079.0
17	15	27	46	756	124.0	-204808.0	511.0	73982.0
17	15	27	46	756	125.0	-202337.0	446.0	73703.0
17	15	27	46	757	126.0	-198709.0	406.0	74349.0
17	15	27	46	758	127.0	-195374.0	368.0	74503.0
17	15	27	46	758	128.0	-192636.0	302.0	75088.0
17	15	27	46	759	129.0	-191387.0	256.0	75490.0
17	15	27	46	759	130.0	-192159.0	206.0	76038.0
17	15	27	46	760	131.0	-194944.0	158.0	76087.0
17	15	27	46	761	132.0	-198864.0	92.0	75978.0
17	15	27	46	761	133.0	-204375.0	38.0	76015.0
17	15	27	46	762	135.0	-213444.0	-64.0	76651.0
17	15	27	46	762	136.0	-215025.0	-109.0	76619.0
17	15	27	46	763	137.0	-214667.0	-151.0	76679.0
17	15	27	46	763	138.0	-212494.0	-185.0	76749.0
17	15	27	46	764	139.0	-209679.0	-219.0	76738.0
17	15	27	46	765	140.0	-206775.0	-270.0	77379.0
17	15	27	46	796	141.0	-203827.0	-306.0	77728.0
17	15	27	46	797	142.0	-201113.0	-356.0	78040.0
17	15	27	46	797	143.0	-199170.0	-392.0	78329.0
17	15	27	46	798	144.0	-197412.0	-460.0	78802.0
17	15	27	46	799	145.0	-194871.0	-513.0	78496.0
17	15	27	46	799	146.0	-193674.0	-564.0	78567.0
17	15	27	46	800	147.0	-194264.0	-628.0	78326.0
17	15	27	46	842	148.0	-195527.0	-682.0	77776.0
17	15	27	46	843	149.0	-196074.0	-719.0	77769.0
17	15	27	46	843	150.0	-197061.0	-792.0	77875.0
17	15	27	46	844	151.0	-198246.0	-859.0	77801.0
17	15	27	46	845	152.0	-199128.0	-917.0	77801.0
17	15	27	46	845	153.0	-199604.0	-975.0	78226.0
17	15	27	46	846	154.0	-199296.0	-1037.0	78584.0
17	15	27	46	887	155.0	-198926.0	-1089.0	78572.0
17	15	27	46	888	157.0	-198784.0	-1199.0	78233.0
17	15	27	46	889	158.0	-198496.0	-1236.0	78249.0
17	15	27	46	889	159.0	-197967.0	-1300.0	77919.0
17	15	27	46	890	160.0	-196600.0	-1345.0	77944.0
17	15	27	46	890	161.0	-194862.0	-1386.0	78357.0
17	15	27	46	891	162.0	-193086.0	-1442.0	78258.0
17	15	27	46	932	163.0	-192102.0	-1487.0	77906.0
17	15	27	46	933	164.0	-191839.0	-1561.0	78384.0
17	15	27	46	934	180.0	-199873.0	-2533.0	91704.0
17	15	27	46	934	181.0	-200132.0	-2578.0	92465.0
17	15	27	46	935	182.0	-201044.0	-2644.0	93367.0
17	15	27	46	935	183.0	-202062.0	-2699.0	95532.0
17	15	27	46	936	184.0	-204188.0	-2755.0	97598.0
17	15	27	46	937	185.0	-205864.0	-2829.0	99305.0
17	15	27	46	977	186.0	-207502.0	-2910.0	99959.0
17	15	27	46	977	202.0	-154198.0	-3936.0	84878.0
17	15	27	46	978	203.0	-138714.0	-3969.0	84851.0
17	15	27	46	978	204.0	-128717.0	-4008.0	84640.0
17	15	27	46	979	205.0	-127428.0	-4046.0	84542.0
17	15	27	46	980	206.0	-137657.0	-4092.0	84378.0
17	15	27	46	980	207.0	-160196.0	-4150.0	84093.0
17	15	27	47	23	208.0	-190754.0	-4225.0	83711.0
17	15	27	47	23	225.0	-154981.0	-5178.0	90591.0
17	15	27	47	24	226.0	-177031.0	-5226.0	91026.0
17	15	27	47	25	227.0	-196580.0	-5281.0	91219.0
17	15	27	47	25	228.0	-210617.0	-5327.0	91584.0
17	15	27	47	26	229.0	-217989.0	-5398.0	91453.0
17	15	27	47	27	230.0	-219332.0	-5469.0	91506.0
17	15	27	47	27	231.0	-216073.0	-5512.0	91898.0
17	15	27	47	28	232.0	-210163.0	-5572.0	92020.0
17	15	27	47	29	247.0	-205722.0	-6611.0	93778.0
17	15	27	47	29	248.0	-209756.0	-6694.0	94434.0
17	15	27	47	30	249.0	-212399.0	-6756.0	94364.0
17	15	27	47	30	250.0	-212910.0	-6809.0	94383.0
17	15	27	47	67	251.0	-210872.0	-6897.0	95006.0
17	15	27	47	67	252.0	-207517.0	-6972.0	95398.0
17	15	27	47	68	253.0	-203738.0	-7042.0	95494.0
17	15	27	47	69	14.0	-201566.0	-8459.0	95772.0
17	15	27	47	69	15.0	-197832.0	-8528.0	96088.0
17	15	27	47	70	16.0	-194613.0	-8598.0	96714.0
17	15	27	47	71	17.0	-192341.0	-8651.0	96943.0
17	15	27	47	71	18.0	-190646.0	-8714.0	96679.0
17	15	27	47	72	19.0	-189362.0	-8785.0	96578.0
17	15	27	47	73	20.0	-188536.0	-8847.0	96263.0
17	15	27	47	74	21.0	-187981.0	-8932.0	95974.0
17	15	27	47	74	22.0	-187625.0	-9001.0	96334.0
17	15	27	47	75	23.0	-187440.0	-9057.0	96789.0
17	15	27	47	75	24.0	-187761.0	-9123.0	96178.0
17	15	27	47	113	25.0	-188935.0	-9203.0	96941.0
17	15	27	47	158	36.0	-207517.0	-9536.0	96251.0
17	15	27	47	159	37.0	-206306.0	-9530.0	96872.0
17	15	27	47	160	38.0	-204720.0	-9499.0	96569.0
17	15	27	47	160	39.0	-203412.0	-9474.0	96485.0
17	15	27	47	161	40.0	-202276.0	-9434.0	96233.0
17	15	27	47	161	41.0	-201323.0	-9400.0	96640.0
17	15	27	47	162	42.0	-200701.0	-9349.0	96586.0
17	15	27	47	202	43.0	-200382.0	-9306.0	96190.0
17	15	27	47	203	44.0	-200566.0	-9255.0	96517.0
17	15	27	47	204	45.0	-201695.0	-9201.0	97276.0
17	15	27	47	204	46.0	-203492.0	-9166.0	97058.0
17	15	27	47	205	47.0	-205577.0	-9086.0	96893.0
17	15	27	47	206	48.0	-207906.0	-9015.0	97004.0
17	15	27	47	206	49.0	-209730.0	-8931.0	96974.0
17	15	27	47	293	58.0	-209221.0	-8040.0	97293.0
17	15	27	47	294	81.0	-179094.0	-5042.0	101938.0
17	15	27	47	294	82.0	-181942.0	-4917.0	102689.0
17	15	27	47	295	83.0	-187241.0	-4783.0	102879.0
17	15	27	47	295	84.0	-194566.0	-4638.0	103506.0
17	15	27	47	296	85.0	-202030.0	-4526.0	104078.0
17	15	27	47	297	86.0	-208003.0	-4417.0	104578.0
17	15	27	47	337	87.0	-211900.0	-4315.0	104576.0
17	15	27	47	338	88.0	-213460.0	-4204.0	104921.0
17	15	27	47	339	103.0	-242567.0	-2777.0	107809.0
17	15	27	47	339	104.0	-231864.0	-2682.0	107743.0
17	15	27	47	340	105.0	-218058.0	-2577.0	107626.0
17	15	27	47	340	106.0	-203049.0	-2486.0	107970.0
17	15	27	47	341	107.0	-189918.0	-2401.0	107778.0
17	15	27	47	342	108.0	-180712.0	-2308.0	107543.0
17	15	27	47	383	109.0	-175687.0	-2227.0	107563.0
17	15	27	47	384	148.0	-210744.0	64.0	107747.0
17	15	27	47	384	149.0	-207365.0	98.0	107438.0
17	15	27	47	385	150.0	-204671.0	154.0	107556.0
17	15	27	47	386	151.0	-202836.0	196.0	107754.0
17	15	27	47	386	152.0	-201835.0	237.0	107566.0
17	15	27	47	387	153.0	-201999.0	248.0	107451.0
17	15	27	47	388	154.0	-203053.0	261.0	107933.0
17	15	27	47	427	171.0	-198731.0	313.0	109656.0
17	15	27	47	428	172.0	-196736.0	318.0	109980.0
17	15	27	47	429	173.0	-195032.0	321.0	110081.0
17	15	27	47	430	174.0	-193886.0	338.0	110194.0
17	15	27	47	431	175.0	-193239.0	349.0	110456.0
17	15	27	47	431	176.0	-193082.0	326.0	110729.0
17	15	27	47	432	177.0	-193676.0	314.0	110739.0
17	15	27	47	433	178.0	-194189.0	311.0	110598.0
17	15	27	47	434	193.0	-196403.0	327.0	110747.0
17	15	27	47	435	194.0	-196002.0	337.0	110773.0
17	15	27	47	436	195.0	-195436.0	368.0	110526.0
17	15	27	47	436	196.0	-195112.0	375.0	110328.0
17	15	27	47	437	197.0	-195547.0	390.0	110046.0
17	15	27	47	438	198.0	-197374.0	407.0	110118.0
17	15	27	47	439	199.0	-200490.0	421.0	110547.0
17	15	27	47	440	215.0	-207987.0	472.0	110192.0
17	15	27	47	441	216.0	-207422.0	466.0	110762.0
17	15	27	47	442	217.0	-205891.0	498.0	110758.0
17	15	27	47	442	218.0	-203652.0	506.0	110706.0
17	15	27	47	443	219.0	-201758.0	508.0	109943.0
17	15	27	47	444	220.0	-200066.0	522.0	110085.0
17	15	27	47	487	221.0	-198510.0	515.0	110182.0
17	15	27	47	501	222.0	-197086.0	520.0	109448.0
17	15	27	47	502	223.0	-195806.0	531.0	109359.0
17	15	27	47	503	224.0	-194658.0	533.0	109657.0
17	15	27	47	503	225.0	-193622.0	523.0	109863.0
17	15	27	47	521	226.0	-193314.0	489.0	110043.0
17	15	27	47	522	227.0	-193797.0	473.0	110264.0
17	15	27	47	522	228.0	-194157.0	468.0	110508.0
17	15	27	47	523	229.0	-194584.0	457.0	110624.0
17	15	27	47	524	230.0	-195096.0	453.0	110629.0
17	15	27	47	524	231.0	-195851.0	438.0	110836.0
17	15	27	47	525	232.0	-197073.0	428.0	110857.0
17	15	27	47	545	233.0	-197987.0	406.0	110889.0
17	15	27	47	546	234.0	-198244.0	405.0	110091.0
17	15	27	47	547	235.0	-198049.0	386.0	109609.0
17	15	27	47	547	236.0	-197557.0	393.0	109004.0
17	15	27	47	548	253.0	-203637.0	64.0	111333.0
17	15	27	47	549	254.0	-201749.0	43.0	111493.0
17	15	27	47	549	255.0	-200524.0	36.0	111580.0
17	15	27	47	550	0.0	-199914.0	13.0	111531.0
17	15	27	47	550	4.0	-200621.0	-110.0	111994.0
17	15	27	47	551	5.0	-199184.0	-139.0	111936.0
17	15	27	47	551	6.0	-197341.0	-162.0	111991.0
17	15	27	47	552	7.0	-195560.0	-183.0	111543.0
17	15	27	47	553	8.0	-193776.0	-179.0	111868.0
17	15	27	47	553	9.0	-192039.0	-225.0	112028.0
17	15	27	47	554	10.0	-190196.0	-252.0	111771.0
17	15	27	47	554	11.0	-188286.0	-287.0	111904.0
17	15	27	47	555	12.0	-186782.0	-334.0	112064.0
17	15	27	47	555	13.0	-185779.0	-377.0	111654.0
17	15	27	47	556	14.0	-185128.0	-407.0	110746.0
17	15	27	47	557	15.0	-185230.0	-429.0	109793.0
17	15	27	47	568	16.0	-186531.0	-450.0	109210.0
17	15	27	47	569	17.0	-188225.0	-476.0	108333.0
17	15	27	47	569	18.0	-189931.0	-511.0	107113.0
17	15	27	47	570	19.0	-191402.0	-533.0	106584.0
17	15	27	47	571	20.0	-192381.0	-569.0	107021.0
17	15	27	47	571	21.0	-192811.0	-607.0	107894.0
17	15	27	47	572	22.0	-192281.0	-631.0	110523.0
17	15	27	47	591	23.0	-191220.0	-671.0	113496.0
17	15	27	47	592	24.0	-189364.0	-704.0	117123.0
17	15	27	47	593	25.0	-187218.0	-746.0	119903.0
17	15	27	47	594	26.0	-185097.0	-789.0	121942.0
17	15	27	47	594	27.0	-183606.0	-827.0	122285.0
17	15	27	47	595	28.0	-183133.0	-866.0	122556.0
17	15	27	47	596	29.0	-183857.0	-872.0	123679.0
17	15	27	47	596	30.0	-185449.0	-896.0	124850.0
17	15	27	47	597	31.0	-187809.0	-933.0	125771.0
17	15	27	47	597	32.0	-190719.0	-979.0	125965.0
17	15	27	47	598	33.0	-193577.0	-1019.0	124863.0
17	15	27	47	598	34.0	-196527.0	-1050.0	123551.0
17	15	27	47	599	35.0	-200274.0	-1075.0	121826.0
17	15	27	47	600	36.0	-204686.0	-1101.0	120765.0
17	15	27	47	600	37.0	-209486.0	-1128.0	119192.0
17	15	27	47	621	38.0	-214497.0	-1148.0	116615.0
17	15	27	47	622	39.0	-220109.0	-1182.0	114241.0
17	15	27	47	623	40.0	-225439.0	-1182.0	111970.0
17	15	27	47	623	41.0	-229991.0	-1209.0	110364.0
17	15	27	47	624	42.0	-233829.0	-1270.0	108921.0
17	15	27	47	625	43.0	-236685.0	-1298.0	108084.0
17	15	27	47	625	44.0	-236707.0	-1302.0	106667.0
17	15	27	47	637	45.0	-231701.0	-1318.0	105977.0
17	15	27	47	638	46.0	-221341.0	-1346.0	105328.0
17	15	27	47	639	47.0	-204701.0	-1379.0	105054.0
17	15	27	47	639	48.0	-184789.0	-1409.0	104794.0
17	15	27	47	640	49.0	-165935.0	-1417.0	104519.0
17	15	27	47	640	50.0	-153287.0	-1464.0	104460.0
17	15	27	47	641	51.0	-149339.0	-1479.0	104341.0
17	15	27	47	661	52.0	-155617.0	-1524.0	103937.0
17	15	27	47	662	56.0	-256599.0	-1664.0	103253.0
17	15	27	47	662	57.0	-277542.0	-1691.0	103684.0
17	15	27	47	663	58.0	-288658.0	-1729.0	103948.0
17	15	27	47	663	59.0	-288386.0	-1736.0	104068.0
17	15	27	47	664	60.0	-276991.0	-1766.0	103540.0
17	15	27	47	665	61.0	-253937.0	-1816.0	103615.0
17	15	27	47	684	62.0	-221284.0	-1847.0	103281.0
17	15	27	47	684	63.0	-184895.0	-1879.0	102825.0
17	15	27	47	685	64.0	-150796.0	-1927.0	102638.0
17	15	27	47	685	65.0	-124881.0	-1952.0	102804.0
17	15	27	47	686	66.0	-109797.0	-1973.0	102803.0
17	15	27	47	687	67.0	-106080.0	-1988.0	103227.0
17	15	27	47	687	68.0	-112927.0	-2028.0	102823.0
17	15	27	47	688	69.0	-128479.0	-2056.0	102594.0
17	15	27	47	688	70.0	-149216.0	-2087.0	102360.0
17	15	27	47	689	72.0	-189026.0	-2190.0	102031.0
17	15	27	47	689	73.0	-202150.0	-2211.0	102074.0
17	15	27	47	690	74.0	-209475.0	-2240.0	101654.0
17	15	27	47	691	75.0	-211226.0	-2266.0	101644.0
17	15	27	47	691	76.0	-208346.0	-2316.0	101553.0
17	15	27	47	707	77.0	-202208.0	-2378.0	101544.0
17	15	27	47	708	78.0	-194415.0	-2426.0	101596.0
17	15	27	47	708	79.0	-187019.0	-2456.0	101618.0
17	15	27	47	709	80.0	-180715.0	-2507.0	101340.0
17	15	27	47	710	81.0	-176411.0	-2526.0	101328.0
17	15	27	47	710	82.0	-174532.0	-2554.0	101388.0
17	15	27	47	711	83.0	-176090.0	-2579.0	100834.0
17	15	27	47	712	84.0	-179436.0	-2625.0	99854.0
17	15	27	47	712	85.0	-184246.0	-2677.0	100189.0
17	15	27	47	713	87.0	-196607.0	-2781.0	100067.0
17	15	27	47	714	88.0	-203010.0	-2831.0	99905.0
17	15	27	47	714	89.0	-208486.0	-2863.0	100261.0
17	15	27	47	715	90.0	-213426.0	-2919.0	100339.0
17	15	27	47	715	91.0	-216974.0	-2959.0	99866.0
17	15	27	47	730	92.0	-219916.0	-3012.0	99933.0
17	15	27	47	731	93.0	-221158.0	-3062.0	100076.0
17	15	27	47	732	94.0	-221786.0	-3112.0	99841.0
17	15	27	47	732	95.0	-221136.0	-3177.0	99950.0
17	15	27	47	733	96.0	-219984.0	-3224.0	100562.0
17	15	27	47	733	97.0	-218253.0	-3259.0	100336.0
17	15	27	47	734	98.0	-215816.0	-3317.0	99456.0
17	15	27	47	754	99.0	-212467.0	-3377.0	99605.0
17	15	27	47	755	100.0	-208176.0	-3424.0	99745.0
17	15	27	47	755	102.0	-199512.0	-3541.0	99081.0
17	15	27	47	756	103.0	-196609.0	-3591.0	99081.0
17	15	27	47	757	104.0	-194829.0	-3647.0	99232.0
17	15	27	47	758	105.0	-194593.0	-3678.0	99392.0
17	15	27	47	758	106.0	-195282.0	-3764.0	99764.0
17	15	27	47	759	107.0	-196799.0	-3815.0	100223.0
17	15	27	47	759	108.0	-198946.0	-3865.0	100328.0
17	15	27	47	760	109.0	-201018.0	-3921.0	100547.0
17	15	27	47	760	110.0	-203601.0	-4004.0	100574.0
17	15	27	47	761	111.0	-205991.0	-4053.0	100664.0
17	15	27	47	762	112.0	-208447.0	-4098.0	100425.0
17	15	27	47	762	113.0	-210099.0	-4171.0	100290.0
17	15	27	47	777	114.0	-210782.0	-4224.0	100724.0
17	15	27	47	778	115.0	-210844.0	-4288.0	100266.0
17	15	27	47	779	117.0	-208061.0	-4422.0	100605.0
17	15	27	47	780	118.0	-204446.0	-4472.0	101183.0
17	15	27	47	780	119.0	-200456.0	-4520.0	100923.0
17	15	27	47	781	120.0	-195829.0	-4565.0	100694.0
17	15	27	47	782	121.0	-191332.0	-4635.0	100974.0
17	15	27	47	782	122.0	-186765.0	-4707.0	100859.0
17	15	27	47	783	123.0	-183732.0	-4751.0	100815.0
17	15	27	47	783	124.0	-182409.0	-4806.0	100661.0
17	15	27	47	784	125.0	-182017.0	-4874.0	100159.0
17	15	27	47	785	126.0	-182429.0	-4904.0	100264.0
17	15	27	47	785	127.0	-182283.0	-4919.0	100097.0
17	15	27	47	786	128.0	-182462.0	-4949.0	100011.0
17	15	27	47	787	129.0	-182501.0	-4989.0	99962.0
17	15	27	47	787	130.0	-182678.0	-5025.0	100248.0
17	15	27	47	788	132.0	-183474.0	-5050.0	99729.0
17	15	27	47	788	133.0	-184609.0	-5059.0	99763.0
17	15	27	47	789	134.0	-185660.0	-5054.0	99804.0
17	15	27	47	790	135.0	-186658.0	-5046.0	99454.0
17	15	27	47	790	136.0	-187705.0	-5024.0	98574.0
17	15	27	47	791	137.0	-188494.0	-4997.0	99191.0
17	15	27	47	792	138.0	-189107.0	-4974.0	99307.0
17	15	27	47	801	139.0	-189399.0	-4937.0	98774.0
17	15	27	47	802	140.0	-189608.0	-4897.0	98571.0
17	15	27	47	802	141.0	-190496.0	-4849.0	98558.0
17	15	27	47	803	142.0	-191442.0	-4799.0	98099.0
17	15	27	47	804	143.0	-192893.0	-4755.0	97716.0
17	15	27	47	804	144.0	-195032.0	-4704.0	97474.0
17	15	27	47	805	145.0	-197326.0	-4646.0	97360.0
17	15	27	47	805	146.0	-199665.0	-4579.0	97132.0
17	15	27	47	816	147.0	-201943.0	-4502.0	96954.0
17	15	27	47	817	148.0	-204921.0	-4401.0	96914.0
17	15	27	47	817	149.0	-207527.0	-4298.0	96616.0
17	15	27	47	818	150.0	-210037.0	-4189.0	96299.0
17	15	27	47	818	151.0	-212042.0	-4089.0	96553.0
17	15	27	47	840	152.0	-213740.0	-3989.0	96830.0
17	15	27	47	841	153.0	-215312.0	-3875.0	96953.0
17	15	27	47	841	154.0	-216350.0	-3765.0	96718.0
17	15	27	47	842	155.0	-217702.0	-3642.0	96751.0
17	15	27	47	843	156.0	-218650.0	-3504.0	97069.0
17	15	27	47	843	157.0	-219312.0	-3374.0	96834.0
17	15	27	47	844	158.0	-219693.0	-3265.0	96244.0
17	15	27	47	844	159.0	-220067.0	-3158.0	96208.0
17	15	27	47	845	160.0	-220584.0	-3032.0	96406.0
17	15	27	47	845	161.0	-219969.0	-2901.0	96988.0
17	15	27	47	846	162.0	-219622.0	-2769.0	97094.0
17	15	27	47	847	163.0	-218488.0	-2646.0	96997.0
17	15	27	47	847	164.0	-217347.0	-2499.0	96845.0
17	15	27	47	848	165.0	-216299.0	-2356.0	96893.0
17	15	27	47	848	166.0	-214959.0	-2202.0	97446.0
17	15	27	47	849	167.0	-213318.0	-2084.0	97832.0
17	15	27	47	849	168.0	-211721.0	-1958.0	97803.0
17	15	27	47	850	169.0	-210173.0	-1814.0	98586.0
17	15	27	47	862	170.0	-208460.0	-1668.0	99117.0
17	15	27	47	863	171.0	-206819.0	-1551.0	99319.0
17	15	27	47	863	172.0	-205192.0	-1426.0	99821.0
17	15	27	47	864	173.0	-204752.0	-1292.0	100065.0
17	15	27	47	865	174.0	-205682.0	-1176.0	100013.0
17	15	27	47	865	175.0	-207421.0	-1053.0	100651.0
17	15	27	47	866	176.0	-209550.0	-921.0	101321.0
17	15	27	47	866	177.0	-210904.0	-785.0	101444.0
17	15	27	47	886	178.0	-211819.0	-671.0	101185.0
17	15	27	47	886	179.0	-211655.0	-542.0	101179.0
17	15	27	47	887	180.0	-210622.0	-421.0	101607.0
17	15	27	47	887	181.0	-209043.0	-323.0	101783.0
17	15	27	47	888	182.0	-207172.0	-212.0	102053.0
17	15	27	47	889	183.0	-205144.0	-99.0	102529.0
17	15	27	47	889	184.0	-202772.0	23.0	102746.0
17	15	27	47	909	185.0	-199981.0	133.0	102798.0
17	15	27	47	910	186.0	-196567.0	241.0	103089.0
17	15	27	47	910	187.0	-192976.0	350.0	103366.0
17	15	27	47	911	188.0	-189593.0	455.0	103666.0
17	15	27	47	911	189.0	-186324.0	561.0	103835.0
17	15	27	47	912	190.0	-183531.0	643.0	104156.0
17	15	27	47	913	191.0	-181311.0	728.0	104279.0
17	15	27	47	913	192.0	-180051.0	824.0	104396.0
17	15	27	47	914	193.0	-179184.0	934.0	104330.0
17	15	27	47	914	194.0	-177844.0	1033.0	103658.0
17	15	27	47	915	195.0	-175809.0	1148.0	103663.0
17	15	27	47	915	196.0	-171434.0	1225.0	104453.0
17	15	27	47	916	197.0	-164039.0	1289.0	104615.0
17	15	27	47	916	198.0	-157453.0	1373.0	104438.0
17	15	27	47	917	199.0	-156354.0	1463.0	104679.0
17	15	27	47	933	200.0	-167366.0	1539.0	105169.0
17	15	27	47	933	201.0	-188613.0	1628.0	104877.0
17	15	27	47	934	202.0	-210014.0	1723.0	104994.0
17	15	27	47	934	203.0	-227244.0	1807.0	105214.0
17	15	27	47	935	204.0	-238262.0	1865.0	105038.0
17	15	27	47	935	205.0	-240659.0	1923.0	105172.0
17	15	27	47	936	206.0	-238097.0	2010.0	105166.0
17	15	27	47	937	207.0	-231455.0	2069.0	105669.0
17	15	27	47	937	208.0	-219517.0	2151.0	105224.0
17	15	27	47	938	209.0	-205321.0	2248.0	104978.0
17	15	27	47	938	210.0	-190368.0	2327.0	105771.0
17	15	27	47	939	211.0	-176403.0	2400.0	105676.0
17	15	27	47	940	212.0	-165809.0	2472.0	105342.0
17	15	27	47	940	213.0	-160477.0	2543.0	105409.0
17	15	27	47	955	214.0	-160706.0	2606.0	105347.0
17	15	27	47	956	215.0	-165355.0	2675.0	105013.0
17	15	27	47	956	216.0	-172161.0	2761.0	104846.0
17	15	27	47	957	217.0	-178284.0	2847.0	105313.0
17	15	27	47	958	218.0	-182029.0	2904.0	105244.0
17	15	27	47	958	219.0	-183340.0	2963.0	104901.0
17	15	27	47	959	220.0	-184410.0	3043.0	105176.0
17	15	27	47	981	221.0	-187186.0	3085.0	105831.0
17	15	27	47	982	222.0	-192369.0	3133.0	105461.0
17	15	27	47	982	223.0	-199319.0	3234.0	104809.0
17	15	27	47	983	224.0	-206761.0	3299.0	104919.0
17	15	27	47	984	225.0	-213269.0	3384.0	105180.0
17	15	27	47	984	226.0	-218427.0	3435.0	104515.0
17	15	27	47	985	227.0	-222235.0	3484.0	104385.0
17	15	27	47	985	228.0	-224126.0	3543.0	104708.0
17	15	27	47	986	229.0	-223774.0	3616.0	104754.0
17	15	27	47	986	230.0	-221485.0	3661.0	104666.0
17	15	27	47	987	231.0	-218054.0	3720.0	104774.0
17	15	27	47	988	232.0	-214450.0	3776.0	104521.0
17	15	27	47	988	233.0	-210962.0	3823.0	104359.0
17	15	27	47	989	234.0	-207359.0	3863.0	104316.0
17	15	27	48	5	235.0	-204289.0	3924.0	104536.0
17	15	27	48	6	236.0	-201840.0	3954.0	104461.0
17	15	27	48	6	237.0	-200002.0	4003.0	103604.0
17	15	27	48	7	238.0	-198578.0	4068.0	103370.0
17	15	27	48	28	239.0	-197669.0	4121.0	103748.0
17	15	27	48	29	240.0	-197741.0	4165.0	104038.0
17	15	27	48	30	241.0	-198919.0	4193.0	103647.0
17	15	27	48	30	242.0	-200542.0	4216.0	103516.0
17	15	27	48	31	243.0	-202123.0	4232.0	103601.0
17	15	27	48	31	244.0	-202744.0	4271.0	103524.0
17	15	27	48	32	245.0	-202192.0	4313.0	103903.0
17	15	27	48	32	246.0	-200203.0	4353.0	103258.0
17	15	27	48	33	247.0	-197422.0	4385.0	103073.0
17	15	27	48	33	248.0	-194325.0	4416.0	103001.0
17	15	27	48	34	249.0	-190915.0	4424.0	102998.0
17	15	27	48	34	250.0	-188222.0	4446.0	102654.0
17	15	27	48	35	251.0	-186397.0	4456.0	102409.0
17	15	27	48	35	252.0	-185902.0	4489.0	102418.0
17	15	27	48	36	253.0	-185907.0	4530.0	102088.0
17	15	27	48	37	254.0	-185882.0	4560.0	102206.0
17	15	27	48	37	255.0	-185681.0	4597.0	102176.0
17	15	27	48	38	0.0	-185362.0	4602.0	101616.0
17	15	27	48	51	1.0	-185096.0	4624.0	101459.0
17	15	27	48	52	2.0	-185281.0	4648.0	101601.0
17	15	27	48	52	3.0	-185721.0	4664.0	101678.0
17	15	27	48	53	4.0	-186502.0	4691.0	101463.0
17	15	27	48	53	5.0	-187670.0	4731.0	101323.0
17	15	27	48	54	6.0	-189309.0	4751.0	101470.0
17	15	27	48	54	7.0	-190930.0	4764.0	101275.0
17	15	27	48	55	8.0	-192276.0	4781.0	100788.0
17	15	27	48	56	9.0	-193332.0	4799.0	100854.0
17	15	27	48	56	10.0	-194453.0	4789.0	100594.0
17	15	27	48	57	11.0	-195706.0	4803.0	99964.0
17	15	27	48	57	12.0	-196656.0	4839.0	100229.0
17	15	27	48	58	13.0	-197483.0	4863.0	100027.0
17	15	27	48	59	14.0	-198609.0	4874.0	100143.0
17	15	27	48	59	15.0	-200056.0	4901.0	99941.0
17	15	27	48	60	16.0	-201465.0	4908.0	99959.0
17	15	27	48	60	17.0	-202567.0	4901.0	100034.0
17	15	27	48	61	18.0	-203619.0	4903.0	99815.0
17	15	27	48	74	19.0	-204547.0	4926.0	100128.0
17	15	27	48	75	20.0	-205619.0	4948.0	100204.0
17	15	27	48	75	21.0	-206601.0	4952.0	99987.0
17	15	27	48	76	22.0	-207232.0	4943.0	100004.0
17	15	27	48	77	23.0	-207645.0	4944.0	100123.0
17	15	27	48	77	24.0	-207967.0	4939.0	99974.0
17	15	27	48	78	25.0	-208566.0	4963.0	99616.0
17	15	27	48	78	26.0	-209070.0	4967.0	99771.0
17	15	27	48	98	27.0	-208893.0	4981.0	99488.0
17	15	27	48	99	28.0	-208486.0	5001.0	99248.0
17	15	27	48	100	29.0	-207970.0	5004.0	98939.0
17	15	27	48	100	30.0	-207148.0	5020.0	99167.0
17	15	27	48	101	31.0	-206415.0	5013.0	99683.0
17	15	27	48	102	32.0	-206637.0	5006.0	99779.0
17	15	27	48	103	33.0	-206882.0	5021.0	99534.0
17	15	27	48	103	34.0	-207587.0	5044.0	99389.0
17	15	27	48	104	35.0	-208708.0	5067.0	99169.0
17	15	27	48	105	36.0	-210217.0	5091.0	98993.0
17	15	27	48	105	37.0	-211519.0	5099.0	98776.0
17	15	27	48	106	38.0	-212457.0	5103.0	98548.0
17	15	27	48	106	39.0	-213801.0	5128.0	98456.0
17	15	27	48	107	40.0	-214856.0	5143.0	98795.0
17	15	27	48	107	41.0	-215321.0	5152.0	98743.0
17	15	27	48	122	42.0	-215353.0	5169.0	99070.0
17	15	27	48	122	43.0	-214925.0	5203.0	99003.0
17	15	27	48	123	44.0	-213840.0	5230.0	99241.0
17	15	27	48	124	45.0	-212584.0	5238.0	99426.0
17	15	27	48	124	46.0	-211476.0	5246.0	98752.0
17	15	27	48	125	47.0	-211164.0	5271.0	98568.0
17	15	27	48	125	48.0	-211680.0	5287.0	98168.0
17	15	27	48	147	49.0	-212717.0	5310.0	97862.0
17	15	27	48	147	50.0	-212906.0	5343.0	98528.0
17	15	27	48	148	51.0	-212667.0	5367.0	98344.0
17	15	27	48	148	52.0	-212176.0	5388.0	97903.0
17	15	27	48	149	53.0	-212646.0	5384.0	98085.0
17	15	27	48	150	54.0	-213043.0	5392.0	98392.0
17	15	27	48	150	55.0	-213177.0	5404.0	98874.0
17	15	27	48	151	56.0	-213234.0	5429.0	98804.0
17	15	27	48	151	57.0	-213004.0	5461.0	98691.0
17	15	27	48	152	58.0	-212466.0	5494.0	98596.0
17	15	27	48	152	59.0	-212223.0	5510.0	98545.0
17	15	27	48	153	60.0	-212234.0	5517.0	98513.0
17	15	27	48	154	61.0	-212176.0	5543.0	97711.0
17	15	27	48	154	62.0	-212372.0	5528.0	97524.0
17	15	27	48	155	63.0	-213099.0	5541.0	98238.0
17	15	27	48	169	64.0	-213667.0	5576.0	99163.0
17	15	27	48	170	65.0	-214454.0	5587.0	99080.0
17	15	27	48	170	66.0	-214996.0	5583.0	99093.0
17	15	27	48	171	67.0	-214659.0	5589.0	98946.0
17	15	27	48	172	68.0	-213491.0	5608.0	99324.0
17	15	27	48	172	69.0	-211632.0	5594.0	99227.0
17	15	27	48	173	70.0	-209271.0	5585.0	99020.0
17	15	27	48	173	71.0	-206018.0	5575.0	99063.0
17	15	27	48	193	72.0	-202261.0	5596.0	99279.0
17	15	27	48	194	73.0	-198924.0	5593.0	99066.0
17	15	27	48	194	74.0	-196354.0	5584.0	98929.0
17	15	27	48	195	75.0	-194443.0	5581.0	99126.0
17	15	27	48	195	76.0	-193117.0	5559.0	99311.0
17	15	27	48	196	77.0	-192516.0	5538.0	99569.0
17	15	27	48	197	78.0	-192554.0	5553.0	99718.0
17	15	27	48	197	79.0	-193514.0	5552.0	99228.0
17	15	27	48	198	80.0	-194863.0	5528.0	99058.0
17	15	27	48	198	81.0	-196131.0	5534.0	99006.0
17	15	27	48	199	82.0	-197047.0	5516.0	99479.0
17	15	27	48	199	83.0	-198256.0	5475.0	99441.0
17	15	27	48	200	84.0	-199699.0	5456.0	98987.0
17	15	27	48	200	85.0	-200528.0	5435.0	98808.0
17	15	27	48	201	86.0	-201240.0	5421.0	98664.0
17	15	27	48	216	87.0	-201457.0	5419.0	98536.0
17	15	27	48	217	88.0	-201409.0	5375.0	98204.0
17	15	27	48	217	89.0	-200747.0	5365.0	98191.0
17	15	27	48	218	90.0	-199415.0	5341.0	98108.0
17	15	27	48	219	91.0	-197786.0	5314.0	97635.0
17	15	27	48	219	92.0	-196104.0	5294.0	97711.0
17	15	27	48	220	93.0	-194156.0	5266.0	97636.0
17	15	27	48	220	94.0	-192317.0	5244.0	97561.0
17	15	27	48	221	95.0	-190707.0	5214.0	97797.0
17	15	27	48	222	96.0	-189746.0	5188.0	97966.0
17	15	27	48	222	97.0	-189669.0	5154.0	97825.0
17	15	27	48	223	98.0	-190444.0	5108.0	97533.0
17	15	27	48	224	99.0	-191691.0	5090.0	97465.0
17	15	27	48	224	100.0	-193373.0	5049.0	97912.0
17	15	27	48	238	101.0	-195309.0	5010.0	97390.0
17	15	27	48	239	102.0	-197752.0	4971.0	97431.0
17	15	27	48	239	103.0	-199847.0	4934.0	97783.0
17	15	27	48	240	104.0	-201253.0	4903.0	98013.0
17	15	27	48	241	105.0	-201376.0	4851.0	97330.0
17	15	27	48	241	106.0	-200918.0	4807.0	96970.0
17	15	27	48	242	107.0	-200264.0	4766.0	96938.0
17	15	27	48	262	108.0	-200000.0	4719.0	96721.0
17	15	27	48	262	109.0	-200381.0	4691.0	96839.0
17	15	27	48	263	110.0	-201846.0	4653.0	97151.0
17	15	27	48	264	111.0	-204199.0	4607.0	97414.0
17	15	27	48	264	112.0	-206518.0	4555.0	97105.0
17	15	27	48	265	113.0	-208636.0	4514.0	96683.0
17	15	27	48	265	114.0	-210593.0	4469.0	95811.0
17	15	27	48	266	115.0	-211901.0	4431.0	95226.0
17	15	27	48	267	116.0	-212381.0	4377.0	94738.0
17	15	27	48	268	117.0	-212332.0	4348.0	94827.0
17	15	27	48	268	118.0	-212410.0	4317.0	95394.0
17	15	27	48	269	119.0	-211422.0	4275.0	95988.0
17	15	27	48	270	120.0	-209506.0	4218.0	95697.0
17	15	27	48	270	121.0	-206966.0	4153.0	95777.0
17	15	27	48	284	122.0	-204184.0	4106.0	96311.0
17	15	27	48	285	123.0	-200855.0	4068.0	96869.0
17	15	27	48	285	124.0	-197587.0	4038.0	96862.0
17	15	27	48	286	125.0	-194672.0	3989.0	96812.0
17	15	27	48	287	126.0	-192054.0	3938.0	96884.0
17	15	27	48	287	127.0	-190137.0	3897.0	96797.0
17	15	27	48	288	128.0	-188720.0	3838.0	96702.0
17	15	27	48	309	129.0	-188116.0	3787.0	96532.0
17	15	27	48	309	130.0	-188466.0	3743.0	96290.0
17	15	27	48	310	131.0	-189535.0	3694.0	95884.0
17	15	27	48	311	132.0	-190659.0	3671.0	95851.0
17	15	27	48	311	133.0	-191372.0	3611.0	95634.0
17	15	27	48	312	134.0	-191469.0	3551.0	95751.0
17	15	27	48	313	135.0	-191254.0	3492.0	94138.0
17	15	27	48	313	136.0	-190619.0	3436.0	91423.0
17	15	27	48	314	137.0	-190037.0	3368.0	90060.0
17	15	27	48	314	138.0	-190126.0	3320.0	89901.0
17	15	27	48	315	139.0	-190929.0	3269.0	89612.0
17	15	27	48	315	140.0	-191828.0	3236.0	89685.0
17	15	27	48	316	141.0	-192702.0	3186.0	90026.0
17	15	27	48	317	142.0	-193505.0	3116.0	90378.0
17	15	27	48	332	143.0	-194072.0	3083.0	90783.0
17	15	27	48	332	144.0	-194725.0	3024.0	91099.0
17	15	27	48	333	145.0	-195742.0	2958.0	90792.0
17	15	27	48	334	146.0	-197136.0	2910.0	90165.0
17	15	27	48	334	147.0	-198484.0	2859.0	90190.0
17	15	27	48	335	148.0	-200046.0	2807.0	90467.0
17	15	27	48	335	149.0	-201922.0	2758.0	90128.0
17	15	27	48	355	150.0	-203552.0	2698.0	89333.0
17	15	27	48	355	151.0	-205819.0	2632.0	88738.0
17	15	27	48	356	152.0	-208696.0	2584.0	88283.0
17	15	27	48	357	153.0	-210931.0	2511.0	87309.0
17	15	27	48	357	154.0	-212764.0	2454.0	86963.0
17	15	27	48	358	155.0	-214049.0	2430.0	86025.0
17	15	27	48	358	156.0	-214880.0	2372.0	85193.0
17	15	27	48	359	157.0	-214769.0	2308.0	85268.0
17	15	27	48	360	158.0	-213951.0	2244.0	88207.0
17	15	27	48	360	159.0	-212734.0	2197.0	93063.0
17	15	27	48	361	160.0	-211125.0	2146.0	96538.0
17	15	27	48	361	161.0	-209232.0	2083.0	100628.0
17	15	27	48	362	162.0	-206636.0	2036.0	104345.0
17	15	27	48	362	163.0	-204341.0	1979.0	106255.0
17	15	27	48	363	164.0	-202396.0	1923.0	106350.0
17	15	27	48	364	165.0	-200636.0	1853.0	106655.0
17	15	27	48	364	166.0	-199531.0	1769.0	108978.0
17	15	27	48	365	167.0	-198979.0	1713.0	110435.0
17	15	27	48	379	168.0	-199034.0	1653.0	110331.0
17	15	27	48	380	169.0	-199788.0	1601.0	110110.0
17	15	27	48	402	170.0	-201329.0	1559.0	109239.0
17	15	27	48	402	171.0	-203445.0	1473.0	107969.0
17	15	27	48	403	172.0	-205981.0	1402.0	105382.0
17	15	27	48	404	173.0	-208456.0	1331.0	104334.0
17	15	27	48	404	174.0	-209786.0	1256.0	102694.0
17	15	27	48	405	175.0	-210224.0	1181.0	99978.0
17	15	27	48	405	176.0	-210049.0	1115.0	96726.0
17	15	27	48	406	177.0	-210161.0	1078.0	93714.0
17	15	27	48	407	178.0	-210852.0	997.0	91413.0
17	15	27	48	407	179.0	-211598.0	929.0	90118.0
17	15	27	48	408	180.0	-210181.0	853.0	89318.0
17	15	27	48	408	181.0	-205062.0	758.0	88814.0
17	15	27	48	409	182.0	-194526.0	699.0	88152.0
17	15	27	48	409	183.0	-178223.0	651.0	88189.0
17	15	27	48	410	184.0	-159702.0	587.0	88179.0
17	15	27	48	411	185.0	-145005.0	542.0	88161.0
17	15	27	48	411	186.0	-137732.0	475.0	88399.0
17	15	27	48	412	187.0	-140114.0	407.0	88208.0
17	15	27	48	412	188.0	-153045.0	339.0	88386.0
17	15	27	48	413	189.0	-175899.0	272.0	88703.0
17	15	27	48	429	190.0	-205421.0	220.0	88760.0
17	15	27	48	429	191.0	-236216.0	153.0	88438.0
17	15	27	48	430	192.0	-263890.0	66.0	88211.0
17	15	27	48	431	193.0	-282211.0	-12.0	88267.0
17	15	27	48	431	194.0	-285719.0	-88.0	87977.0
17	15	27	48	432	195.0	-277626.0	-179.0	87958.0
17	15	27	48	433	196.0	-262644.0	-253.0	87928.0
17	15	27	48	433	197.0	-240954.0	-313.0	87469.0
17	15	27	48	434	198.0	-211391.0	-381.0	87356.0
17	15	27	48	434	199.0	-175241.0	-449.0	87955.0
17	15	27	48	435	200.0	-138182.0	-499.0	88361.0
17	15	27	48	436	201.0	-109556.0	-572.0	87857.0
17	15	27	48	436	202.0	-97447.0	-640.0	87793.0
17	15	27	48	437	203.0	-103941.0	-709.0	87873.0
17	15	27	48	451	204.0	-125447.0	-769.0	88036.0
17	15	27	48	452	205.0	-155019.0	-849.0	87891.0
17	15	27	48	452	206.0	-185563.0	-907.0	87970.0
17	15	27	48	453	207.0	-211399.0	-966.0	88065.0
17	15	27	48	453	208.0	-230118.0	-1037.0	88399.0
17	15	27	48	454	209.0	-240906.0	-1107.0	88623.0
17	15	27	48	455	210.0	-245116.0	-1158.0	89216.0
17	15	27	48	474	211.0	-242626.0	-1226.0	89158.0
17	15	27	48	475	212.0	-234844.0	-1315.0	89064.0
17	15	27	48	476	213.0	-223103.0	-1377.0	89553.0
17	15	27	48	476	214.0	-208873.0	-1430.0	89895.0
17	15	27	48	477	215.0	-194812.0	-1470.0	89179.0
17	15	27	48	477	216.0	-183118.0	-1558.0	89313.0
17	15	27	48	478	217.0	-174904.0	-1626.0	89399.0
17	15	27	48	479	218.0	-169742.0	-1713.0	89610.0
17	15	27	48	479	219.0	-168027.0	-1781.0	89494.0
17	15	27	48	480	220.0	-168882.0	-1849.0	89288.0
17	15	27	48	481	221.0	-172577.0	-1904.0	89538.0
17	15	27	48	481	222.0	-177963.0	-1969.0	89621.0
17	15	27	48	482	223.0	-185087.0	-2034.0	89216.0
17	15	27	48	482	224.0	-192991.0	-2111.0	89276.0
17	15	27	48	496	225.0	-201158.0	-2202.0	88993.0
17	15	27	48	497	226.0	-208852.0	-2293.0	88352.0
17	15	27	48	498	227.0	-214648.0	-2362.0	88297.0
17	15	27	48	498	228.0	-217778.0	-2456.0	88693.0
17	15	27	48	499	229.0	-217501.0	-2512.0	88593.0
17	15	27	48	500	230.0	-214384.0	-2589.0	88866.0
17	15	27	48	500	231.0	-208096.0	-2681.0	88978.0
17	15	27	48	519	232.0	-200436.0	-2771.0	88921.0
17	15	27	48	520	233.0	-192616.0	-2852.0	88593.0
17	15	27	48	521	234.0	-186296.0	-2958.0	88150.0
17	15	27	48	522	235.0	-182167.0	-3048.0	88357.0
17	15	27	48	522	236.0	-179866.0	-3104.0	87695.0
17	15	27	48	523	237.0	-179963.0	-3166.0	86713.0
17	15	27	48	523	238.0	-181431.0	-3252.0	86263.0
17	15	27	48	524	239.0	-184232.0	-3342.0	85877.0
17	15	27	48	525	240.0	-186843.0	-3441.0	85419.0
17	15	27	48	525	241.0	-189509.0	-3532.0	84528.0
17	15	27	48	526	242.0	-192379.0	-3624.0	83862.0
17	15	27	48	526	243.0	-194539.0	-3713.0	83323.0
17	15	27	48	527	244.0	-195940.0	-3771.0	82746.0
17	15	27	48	528	245.0	-196721.0	-3833.0	82921.0
17	15	27	48	544	246.0	-198385.0	-3910.0	82601.0
17	15	27	48	545	247.0	-200337.0	-4004.0	82367.0
17	15	27	48	546	248.0	-202607.0	-4099.0	82055.0
17	15	27	48	546	249.0	-204277.0	-4187.0	82383.0
17	15	27	48	547	250.0	-205429.0	-4280.0	81836.0
17	15	27	48	547	251.0	-205854.0	-4337.0	81263.0
17	15	27	48	548	252.0	-205651.0	-4396.0	81110.0
17	15	27	48	549	253.0	-204977.0	-4475.0	81299.0
17	15	27	48	549	254.0	-203695.0	-4567.0	81296.0
17	15	27	48	550	255.0	-202711.0	-4637.0	81393.0
17	15	27	48	550	0.0	-201506.0	-4716.0	81389.0
17	15	27	48	551	1.0	-201215.0	-4779.0	80921.0
17	15	27	48	552	2.0	-200806.0	-4836.0	81463.0
17	15	27	48	552	3.0	-200567.0	-4876.0	81896.0
17	15	27	48	553	4.0	-200111.0	-4921.0	81396.0
17	15	27	48	553	5.0	-199576.0	-4958.0	81209.0
17	15	27	48	554	6.0	-199063.0	-5002.0	81003.0
17	15	27	48	555	7.0	-198172.0	-5061.0	80566.0
17	15	27	48	555	8.0	-197217.0	-5102.0	80213.0
17	15	27	48	567	9.0	-195884.0	-5121.0	79786.0
17	15	27	48	568	10.0	-195116.0	-5154.0	79397.0
17	15	27	48	568	11.0	-194854.0	-5182.0	78981.0
17	15	27	48	569	12.0	-195349.0	-5201.0	79058.0
17	15	27	48	570	13.0	-196287.0	-5208.0	79030.0
17	15	27	48	570	14.0	-197172.0	-5203.0	78517.0
17	15	27	48	571	15.0	-198157.0	-5196.0	77962.0
17	15	27	48	571	16.0	-198719.0	-5189.0	78329.0
17	15	27	48	572	17.0	-199273.0	-5162.0	77707.0
17	15	27	48	594	18.0	-199323.0	-5154.0	76641.0
17	15	27	48	594	19.0	-199903.0	-5117.0	76028.0
17	15	27	48	595	20.0	-199780.0	-5063.0	75661.0
17	15	27	48	595	21.0	-199367.0	-5026.0	75033.0
17	15	27	48	596	22.0	-198772.0	-4976.0	74538.0
17	15	27	48	597	23.0	-197907.0	-4926.0	74289.0
17	15	27	48	598	24.0	-196908.0	-4869.0	74380.0
17	15	27	48	598	25.0	-195117.0	-4792.0	74231.0
17	15	27	48	599	26.0	-193119.0	-4708.0	73849.0
17	15	27	48	599	27.0	-190569.0	-4628.0	74147.0
17	15	27	48	600	28.0	-188663.0	-4554.0	73803.0
17	15	27	48	601	29.0	-187285.0	-4477.0	73512.0
17	15	27	48	601	30.0	-186252.0	-4387.0	73413.0
17	15	27	48	602	31.0	-185617.0	-4291.0	73971.0
17	15	27	48	616	32.0	-184862.0	-4215.0	73973.0
17	15	27	48	617	33.0	-184547.0	-4101.0	73664.0
17	15	27	48	618	34.0	-183987.0	-3995.0	73663.0
17	15	27	48	618	35.0	-184137.0	-3914.0	74325.0
17	15	27	48	619	36.0	-184476.0	-3810.0	74377.0
17	15	27	48	619	37.0	-185027.0	-3703.0	74290.0
17	15	27	48	620	38.0	-185307.0	-3602.0	73874.0
17	15	27	48	621	39.0	-185589.0	-3479.0	73448.0
17	15	27	48	640	40.0	-186631.0	-3360.0	73231.0
17	15	27	48	641	41.0	-188201.0	-3226.0	73993.0
17	15	27	48	642	42.0	-190313.0	-3099.0	74249.0
17	15	27	48	652	43.0	-192423.0	-3003.0	74592.0
17	15	27	48	654	44.0	-194883.0	-2874.0	74645.0
17	15	27	48	656	45.0	-197250.0	-2749.0	75304.0
17	15	27	48	657	46.0	-199697.0	-2642.0	75418.0
17	15	27	48	658	47.0	-201948.0	-2511.0	75654.0
17	15	27	48	658	48.0	-204151.0	-2381.0	76026.0
17	15	27	48	659	49.0	-206531.0	-2253.0	76212.0
17	15	27	48	660	50.0	-208749.0	-2131.0	76504.0
17	15	27	48	660	51.0	-210954.0	-2027.0	77208.0
17	15	27	48	661	52.0	-212549.0	-1926.0	77376.0
17	15	27	48	661	53.0	-214123.0	-1814.0	77607.0
17	15	27	48	662	54.0	-215099.0	-1694.0	77717.0
17	15	27	48	663	55.0	-215671.0	-1547.0	78301.0
17	15	27	48	663	56.0	-215796.0	-1424.0	78673.0
17	15	27	48	664	57.0	-215217.0	-1317.0	78867.0
17	15	27	48	664	58.0	-213890.0	-1224.0	79084.0
17	15	27	48	665	59.0	-211739.0	-1107.0	79304.0
17	15	27	48	665	60.0	-209650.0	-980.0	79448.0
17	15	27	48	666	61.0	-206996.0	-879.0	79883.0
17	15	27	48	674	62.0	-204437.0	-783.0	80812.0
17	15	27	48	675	63.0	-201657.0	-644.0	81081.0
17	15	27	48	675	64.0	-199396.0	-532.0	81344.0
17	15	27	48	676	65.0	-197878.0	-437.0	81549.0
17	15	27	48	677	66.0	-197124.0	-333.0	81921.0
17	15	27	48	677	67.0	-197053.0	-226.0	82601.0
17	15	27	48	678	68.0	-197049.0	-117.0	82913.0
17	15	27	48	697	69.0	-197281.0	-17.0	82779.0
17	15	27	48	698	70.0	-197036.0	97.0	82671.0
17	15	27	48	698	71.0	-197024.0	207.0	82652.0
17	15	27	48	699	72.0	-196061.0	288.0	83049.0
17	15	27	48	700	73.0	-194538.0	375.0	82551.0
17	15	27	48	700	74.0	-192567.0	489.0	81878.0
17	15	27	48	701	75.0	-190014.0	588.0	81723.0
17	15	27	48	701	76.0	-187419.0	654.0	81168.0
17	15	27	48	702	77.0	-184777.0	754.0	80544.0
17	15	27	48	703	78.0	-182901.0	867.0	80499.0
17	15	27	48	703	79.0	-181300.0	971.0	80761.0
17	15	27	48	704	80.0	-180203.0	1045.0	81254.0
17	15	27	48	705	81.0	-178914.0	1137.0	81632.0
17	15	27	48	705	82.0	-176341.0	1239.0	82011.0
17	15	27	48	706	83.0	-171414.0	1314.0	82094.0
17	15	27	48	706	84.0	-166784.0	1415.0	82930.0
17	15	27	48	720	85.0	-166967.0	1504.0	83436.0
17	15	27	48	721	86.0	-176706.0	1594.0	83703.0
17	15	27	48	721	87.0	-198123.0	1693.0	83806.0
17	15	27	48	722	88.0	-222343.0	1776.0	83889.0
17	15	27	48	722	89.0	-240782.0	1853.0	84354.0
17	15	27	48	723	90.0	-252296.0	1943.0	84526.0
17	15	27	48	723	91.0	-253823.0	2022.0	84708.0
17	15	27	48	744	92.0	-248520.0	2128.0	84893.0
17	15	27	48	745	93.0	-241512.0	2235.0	85218.0
17	15	27	48	745	94.0	-231021.0	2323.0	85607.0
17	15	27	48	746	95.0	-218811.0	2402.0	85291.0
17	15	27	48	746	96.0	-207399.0	2476.0	85214.0
17	15	27	48	747	97.0	-197027.0	2563.0	84901.0
17	15	27	48	748	98.0	-188018.0	2648.0	84576.0
17	15	27	48	748	99.0	-181961.0	2738.0	84263.0
17	15	27	48	749	100.0	-179406.0	2851.0	84123.0
17	15	27	48	749	101.0	-181657.0	2958.0	84257.0
17	15	27	48	750	102.0	-187765.0	3033.0	84253.0
17	15	27	48	750	103.0	-194257.0	3105.0	84021.0
17	15	27	48	751	104.0	-198842.0	3183.0	84285.0
17	15	27	48	752	105.0	-201096.0	3257.0	84857.0
17	15	27	48	752	106.0	-201421.0	3343.0	84674.0
17	15	27	48	766	107.0	-199999.0	3436.0	84367.0
17	15	27	48	767	108.0	-198178.0	3517.0	84511.0
17	15	27	48	768	109.0	-197271.0	3589.0	84485.0
17	15	27	48	768	110.0	-198309.0	3664.0	83914.0
17	15	27	48	769	111.0	-201231.0	3733.0	84091.0
17	15	27	48	769	112.0	-205114.0	3813.0	84409.0
17	15	27	48	770	113.0	-208953.0	3884.0	84124.0
17	15	27	48	770	114.0	-212111.0	3966.0	83794.0
17	15	27	48	792	115.0	-213827.0	4031.0	84154.0
17	15	27	48	792	116.0	-214244.0	4090.0	84153.0
17	15	27	48	793	117.0	-213576.0	4168.0	84321.0
17	15	27	48	794	118.0	-211912.0	4232.0	84434.0
17	15	27	48	794	119.0	-209951.0	4296.0	84493.0
17	15	27	48	795	120.0	-207779.0	4348.0	84436.0
17	15	27	48	795	121.0	-205592.0	4409.0	84599.0
17	15	27	48	796	122.0	-203481.0	4484.0	83994.0
17	15	27	48	796	123.0	-201236.0	4539.0	84151.0
17	15	27	48	797	124.0	-199094.0	4606.0	84463.0
17	15	27	48	797	125.0	-197264.0	4653.0	84194.0
17	15	27	48	798	126.0	-196658.0	4701.0	83997.0
17	15	27	48	798	127.0	-196761.0	4735.0	83970.0
17	15	27	48	799	128.0	-197649.0	4781.0	83836.0
17	15	27	48	800	129.0	-199397.0	4829.0	83901.0
17	15	27	48	815	130.0	-201787.0	4884.0	84131.0
17	15	27	48	815	131.0	-203995.0	4941.0	83863.0
17	15	27	48	816	132.0	-205512.0	4959.0	83628.0
17	15	27	48	817	133.0	-206762.0	4993.0	83319.0
17	15	27	48	817	134.0	-207625.0	5046.0	83473.0
17	15	27	48	818	135.0	-208425.0	5063.0	83624.0
17	15	27	48	818	136.0	-209021.0	5090.0	83431.0
17	15	27	48	838	137.0	-209858.0	5123.0	83288.0
17	15	27	48	839	138.0	-210884.0	5158.0	83244.0
17	15	27	48	839	139.0	-211657.0	5183.0	83343.0
17	15	27	48	840	140.0	-212155.0	5211.0	83186.0
17	15	27	48	840	141.0	-211902.0	5221.0	83219.0
17	15	27	48	841	142.0	-211475.0	5251.0	83321.0
17	15	27	48	841	143.0	-210146.0	5267.0	83148.0
17	15	27	48	842	144.0	-208264.0	5289.0	82946.0
17	15	27	48	842	145.0	-205962.0	5308.0	82662.0
17	15	27	48	843	146.0	-203757.0	5339.0	81888.0
17	15	27	48	844	147.0	-201901.0	5339.0	81344.0
17	15	27	48	844	148.0	-200141.0	5344.0	81224.0
17	15	27	48	845	149.0	-198719.0	5351.0	81404.0
17	15	27	48	845	150.0	-197656.0	5354.0	81116.0
17	15	27	48	846	151.0	-196944.0	5357.0	81228.0
17	15	27	48	861	152.0	-196616.0	5382.0	81951.0
17	15	27	48	862	153.0	-196731.0	5383.0	81380.0
17	15	27	48	863	154.0	-197047.0	5384.0	80933.0
17	15	27	48	863	155.0	-197312.0	5399.0	80927.0
17	15	27	48	864	156.0	-197651.0	5398.0	81701.0
17	15	27	48	864	157.0	-197858.0	5389.0	81703.0
17	15	27	48	865	158.0	-198189.0	5374.0	81662.0
17	15	27	48	885	159.0	-197744.0	5369.0	81531.0
17	15	27	48	885	160.0	-196760.0	5383.0	81555.0
17	15	27	48	886	161.0	-195712.0	5404.0	82133.0
17	15	27	48	886	162.0	-194150.0	5395.0	82360.0
17	15	27	48	887	163.0	-192544.0	5387.0	82505.0
17	15	27	48	888	164.0	-190991.0	5367.0	82824.0
17	15	27	48	888	165.0	-189501.0	5353.0	82543.0
17	15	27	48	909	166.0	-188232.0	5366.0	82746.0
17	15	27	48	910	167.0	-187307.0	5364.0	82485.0
17	15	27	48	911	168.0	-186762.0	5368.0	82173.0
17	15	27	48	911	169.0	-186481.0	5359.0	82306.0
17	15	27	48	912	170.0	-186579.0	5348.0	82108.0
17	15	27	48	912	171.0	-186785.0	5339.0	82263.0
17	15	27	48	913	172.0	-186986.0	5322.0	82682.0
17	15	27	48	914	173.0	-187678.0	5321.0	82957.0
17	15	27	48	914	174.0	-187892.0	5333.0	82798.0
17	15	27	48	915	175.0	-187942.0	5321.0	82193.0
17	15	27	48	915	176.0	-187661.0	5311.0	81400.0
17	15	27	48	916	177.0	-187557.0	5298.0	81298.0
17	15	27	48	917	178.0	-187998.0	5277.0	81229.0
17	15	27	48	917	179.0	-188303.0	5262.0	81027.0
17	15	27	48	932	180.0	-189147.0	5256.0	81012.0
17	15	27	48	932	181.0	-190441.0	5250.0	80655.0
17	15	27	48	933	182.0	-192684.0	5236.0	80596.0
17	15	27	48	934	183.0	-195748.0	5252.0	80661.0
17	15	27	48	934	184.0	-199263.0	5249.0	80104.0
17	15	27	48	935	185.0	-203694.0	5233.0	79509.0
17	15	27	48	935	186.0	-208601.0	5221.0	79689.0
17	15	27	48	955	187.0	-214332.0	5223.0	79438.0
17	15	27	48	955	188.0	-220491.0	5226.0	79529.0
17	15	27	48	956	189.0	-226266.0	5200.0	79753.0
17	15	27	48	956	190.0	-231192.0	5205.0	79681.0
17	15	27	48	957	191.0	-234987.0	5205.0	79600.0
17	15	27	48	958	192.0	-237660.0	5199.0	79541.0
17	15	27	48	958	193.0	-238205.0	5186.0	79497.0
17	15	27	48	959	194.0	-237529.0	5170.0	79426.0
17	15	27	48	959	195.0	-235551.0	5156.0	78912.0
17	15	27	48	978	196.0	-232683.0	5114.0	79103.0
17	15	27	48	979	197.0	-229971.0	5103.0	78798.0
17	15	27	48	980	198.0	-227168.0	5101.0	78708.0
17	15	27	48	980	199.0	-225844.0	5083.0	78503.0
17	15	27	48	981	200.0	-224877.0	5052.0	78862.0
17	15	27	48	981	201.0	-223726.0	5035.0	79151.0
17	15	27	48	982	202.0	-222250.0	4998.0	78609.0
17	15	27	49	2	203.0	-220422.0	4969.0	78944.0
17	15	27	49	2	204.0	-217889.0	4956.0	78721.0
17	15	27	49	3	210.0	-201234.0	4781.0	77554.0
17	15	27	49	3	211.0	-200091.0	4763.0	77796.0
17	15	27	49	4	212.0	-199404.0	4738.0	77654.0
17	15	27	49	5	213.0	-199306.0	4698.0	77139.0
17	15	27	49	5	214.0	-199046.0	4673.0	77115.0
17	15	27	49	6	215.0	-198739.0	4656.0	77161.0
17	15	27	49	6	216.0	-198041.0	4616.0	77019.0
17	15	27	49	7	218.0	-195358.0	4541.0	77021.0
17	15	27	49	7	219.0	-193930.0	4489.0	76423.0
17	15	27	49	8	220.0	-192469.0	4466.0	76084.0
17	15	27	49	8	221.0	-190993.0	4444.0	76383.0
17	15	27	49	9	222.0	-190006.0	4399.0	77135.0
17	15	27	49	26	223.0	-189491.0	4376.0	76928.0
17	15	27	49	26	224.0	-189869.0	4343.0	77060.0
17	15	27	49	27	225.0	-190911.0	4308.0	77294.0
17	15	27	49	27	226.0	-192459.0	4268.0	77407.0
17	15	27	49	28	227.0	-194632.0	4228.0	77004.0
17	15	27	49	29	228.0	-197289.0	4201.0	76921.0
17	15	27	49	29	229.0	-199819.0	4176.0	76807.0
17	15	27	49	49	230.0	-202096.0	4133.0	76584.0
17	15	27	49	49	231.0	-204042.0	4091.0	77123.0
17	15	27	49	50	233.0	-204992.0	4019.0	77064.0
17	15	27	49	51	234.0	-204222.0	3982.0	76884.0
17	15	27	49	51	235.0	-202854.0	3952.0	76784.0
17	15	27	49	52	236.0	-201491.0	3935.0	76672.0
17	15	27	49	53	237.0	-200987.0	3893.0	76431.0
17	15	27	49	53	238.0	-201046.0	3861.0	75851.0
17	15	27	49	54	239.0	-202344.0	3823.0	75809.0
17	15	27	49	54	240.0	-204314.0	3770.0	75869.0
17	15	27	49	55	241.0	-206895.0	3738.0	75711.0
17	15	27	49	56	242.0	-209552.0	3703.0	75434.0
17	15	27	49	56	243.0	-211444.0	3665.0	75136.0
17	15	27	49	57	244.0	-212039.0	3631.0	75200.0
17	15	27	49	57	245.0	-211484.0	3566.0	75464.0
17	15	27	49	58	246.0	-209887.0	3514.0	75245.0
17	15	27	49	59	248.0	-204295.0	3414.0	74779.0
17	15	27	49	59	249.0	-201302.0	3387.0	74476.0
17	15	27	49	60	250.0	-198416.0	3346.0	74144.0
17	15	27	49	60	251.0	-195494.0	3316.0	74419.0
17	15	27	49	61	252.0	-192725.0	3271.0	74632.0
17	15	27	49	62	253.0	-191061.0	3199.0	74391.0
17	15	27	49	62	254.0	-190452.0	3141.0	74293.0
17	15	27	49	63	255.0	-190944.0	3080.0	74138.0
17	15	27	49	63	0.0	-191830.0	3018.0	73896.0
17	15	27	49	64	1.0	-193014.0	2979.0	73792.0
17	15	27	49	65	2.0	-194332.0	2938.0	74054.0
17	15	27	49	65	3.0	-195409.0	2884.0	73804.0
17	15	27	49	66	4.0	-196525.0	2841.0	73758.0
17	15	27	49	67	5.0	-198033.0	2814.0	73564.0
17	15	27	49	67	6.0	-199832.0	2768.0	73628.0
17	15	27	49	68	7.0	-201731.0	2714.0	73496.0
17	15	27	49	77	8.0	-203404.0	2665.0	73767.0
17	15	27	49	77	9.0	-204874.0	2613.0	73971.0
17	15	27	49	78	10.0	-205426.0	2553.0	73916.0
17	15	27	49	79	11.0	-204963.0	2482.0	73932.0
17	15	27	49	79	12.0	-203597.0	2425.0	73464.0
17	15	27	49	80	13.0	-201710.0	2379.0	73550.0
17	15	27	49	81	14.0	-199590.0	2325.0	74126.0
17	15	27	49	81	15.0	-197756.0	2278.0	73671.0
17	15	27	49	99	16.0	-196234.0	2225.0	73475.0
17	15	27	49	100	17.0	-195310.0	2164.0	74133.0
17	15	27	49	100	18.0	-195287.0	2097.0	74221.0
17	15	27	49	101	19.0	-196101.0	2046.0	73978.0
17	15	27	49	101	20.0	-197315.0	1998.0	74133.0
17	15	27	49	121	21.0	-198996.0	1941.0	74148.0
17	15	27	49	122	22.0	-200872.0	1896.0	73636.0
17	15	27	49	123	23.0	-202044.0	1856.0	73666.0
17	15	27	49	123	24.0	-203094.0	1809.0	73668.0
17	15	27	49	124	25.0	-203834.0	1753.0	73534.0
17	15	27	49	125	26.0	-204099.0	1679.0	73449.0
17	15	27	49	125	27.0	-204217.0	1623.0	73378.0
17	15	27	49	126	28.0	-204565.0	1580.0	73603.0
17	15	27	49	126	29.0	-205167.0	1511.0	73565.0
17	15	27	49	127	30.0	-205580.0	1476.0	73237.0
17	15	27	49	127	31.0	-205938.0	1448.0	73424.0
17	15	27	49	128	32.0	-206171.0	1380.0	73123.0
17	15	27	49	129	33.0	-205662.0	1339.0	72878.0
17	15	27	49	129	34.0	-205089.0	1304.0	72989.0
17	15	27	49	130	35.0	-204432.0	1236.0	72921.0
17	15	27	49	130	36.0	-203892.0	1176.0	72633.0
17	15	27	49	131	37.0	-203196.0	1109.0	73065.0
17	15	27	49	144	38.0	-202714.0	1060.0	73020.0
17	15	27	49	145	39.0	-202287.0	1022.0	72752.0
17	15	27	49	146	40.0	-202449.0	971.0	72874.0
17	15	27	49	146	41.0	-202589.0	901.0	73531.0
17	15	27	49	147	42.0	-202919.0	842.0	74147.0
17	15	27	49	147	43.0	-202756.0	786.0	74581.0
17	15	27	49	148	44.0	-201717.0	723.0	74446.0
17	15	27	49	168	45.0	-199561.0	668.0	74296.0
17	15	27	49	169	46.0	-196901.0	608.0	74199.0
17	15	27	49	170	47.0	-195205.0	565.0	74588.0
17	15	27	49	170	48.0	-194570.0	504.0	74415.0
17	15	27	49	171	49.0	-194661.0	426.0	74479.0
17	15	27	49	171	50.0	-195668.0	365.0	74509.0
17	15	27	49	172	51.0	-197504.0	294.0	74389.0
17	15	27	49	173	52.0	-200050.0	235.0	74212.0
17	15	27	49	173	53.0	-203166.0	191.0	74236.0
17	15	27	49	174	54.0	-206468.0	137.0	74484.0
17	15	27	49	174	55.0	-209222.0	86.0	74226.0
17	15	27	49	175	56.0	-211181.0	4.0	73728.0
17	15	27	49	175	57.0	-211996.0	-67.0	73398.0
17	15	27	49	176	58.0	-211776.0	-139.0	73071.0
17	15	27	49	192	59.0	-210594.0	-208.0	72900.0
17	15	27	49	193	60.0	-208342.0	-278.0	72668.0
17	15	27	49	193	61.0	-205296.0	-330.0	72824.0
17	15	27	49	194	62.0	-201872.0	-381.0	73113.0
17	15	27	49	195	63.0	-198141.0	-441.0	72772.0
17	15	27	49	195	64.0	-194807.0	-533.0	72684.0
17	15	27	49	196	65.0	-192481.0	-592.0	72865.0
17	15	27	49	197	66.0	-191655.0	-647.0	72960.0
17	15	27	49	197	67.0	-191997.0	-727.0	72813.0
17	15	27	49	198	68.0	-193119.0	-781.0	72886.0
17	15	27	49	198	69.0	-194970.0	-834.0	73306.0
17	15	27	49	199	70.0	-197369.0	-916.0	73246.0
17	15	27	49	200	71.0	-199247.0	-989.0	73271.0
17	15	27	49	200	72.0	-201033.0	-1033.0	73734.0
17	15	27	49	215	73.0	-202651.0	-1124.0	73415.0
17	15	27	49	215	74.0	-204073.0	-1204.0	73378.0
17	15	27	49	216	75.0	-205272.0	-1241.0	73811.0
17	15	27	49	217	76.0	-206413.0	-1304.0	74317.0
17	15	27	49	217	77.0	-207196.0	-1357.0	74118.0
17	15	27	49	218	78.0	-207172.0	-1414.0	73920.0
17	15	27	49	218	79.0	-206064.0	-1482.0	74051.0
17	15	27	49	239	80.0	-204446.0	-1558.0	73798.0
17	15	27	49	239	81.0	-202912.0	-1638.0	73511.0
17	15	27	49	240	82.0	-201682.0	-1698.0	73559.0
17	15	27	49	241	83.0	-201207.0	-1767.0	73739.0
17	15	27	49	241	84.0	-201308.0	-1834.0	73547.0
17	15	27	49	242	85.0	-201704.0	-1894.0	73282.0
17	15	27	49	243	86.0	-202404.0	-1975.0	74007.0
17	15	27	49	243	87.0	-203159.0	-2063.0	74594.0
17	15	27	49	244	88.0	-203597.0	-2141.0	74676.0
17	15	27	49	244	89.0	-203883.0	-2196.0	74523.0
17	15	27	49	245	90.0	-204075.0	-2261.0	74859.0
17	15	27	49	246	91.0	-203959.0	-2342.0	74717.0
17	15	27	49	246	92.0	-203664.0	-2408.0	75046.0
17	15	27	49	247	93.0	-203349.0	-2492.0	75473.0
17	15	27	49	261	94.0	-202911.0	-2564.0	75491.0
17	15	27	49	262	95.0	-202168.0	-2622.0	75464.0
17	15	27	49	262	96.0	-201039.0	-2707.0	75614.0
17	15	27	49	263	97.0	-199956.0	-2791.0	76061.0
17	15	27	49	263	98.0	-199412.0	-2869.0	75720.0
17	15	27	49	264	99.0	-199009.0	-2931.0	75431.0
17	15	27	49	265	100.0	-198926.0	-2999.0	75148.0
17	15	27	49	265	101.0	-198519.0	-3093.0	75044.0
17	15	27	49	266	102.0	-198253.0	-3186.0	74460.0
17	15	27	49	266	103.0	-197721.0	-3272.0	73756.0
17	15	27	49	267	104.0	-197531.0	-3336.0	73639.0
17	15	27	49	268	105.0	-197167.0	-3435.0	73696.0
17	15	27	49	268	106.0	-197191.0	-3507.0	73833.0
17	15	27	49	284	107.0	-196863.0	-3566.0	73854.0
17	15	27	49	285	108.0	-196419.0	-3637.0	73992.0
17	15	27	49	286	109.0	-195752.0	-3719.0	74037.0
17	15	27	49	286	110.0	-194950.0	-3802.0	74161.0
17	15	27	49	287	111.0	-193941.0	-3886.0	74486.0
17	15	27	49	288	112.0	-193082.0	-3987.0	74484.0
17	15	27	49	288	113.0	-192281.0	-4051.0	74155.0
17	15	27	49	289	114.0	-191567.0	-4127.0	73414.0
17	15	27	49	290	115.0	-191177.0	-4216.0	72540.0
17	15	27	49	290	116.0	-191491.0	-4329.0	72152.0
17	15	27	49	291	117.0	-192691.0	-4402.0	71651.0
17	15	27	49	307	118.0	-194627.0	-4485.0	71280.0
17	15	27	49	308	119.0	-196388.0	-4571.0	70657.0
17	15	27	49	308	120.0	-197293.0	-4630.0	70886.0
17	15	27	49	309	121.0	-197872.0	-4708.0	73088.0
17	15	27	49	310	122.0	-198003.0	-4791.0	77003.0
17	15	27	49	310	123.0	-197919.0	-4886.0	80090.0
17	15	27	49	311	124.0	-197341.0	-4977.0	84774.0
17	15	27	49	330	125.0	-196302.0	-5054.0	89090.0
17	15	27	49	331	126.0	-194952.0	-5131.0	90713.0
17	15	27	49	332	127.0	-193947.0	-5214.0	92046.0
17	15	27	49	332	128.0	-193827.0	-5277.0	92747.0
17	15	27	49	333	129.0	-194407.0	-5352.0	93795.0
17	15	27	49	333	130.0	-195604.0	-5428.0	95393.0
17	15	27	49	334	131.0	-196877.0	-5516.0	96547.0
17	15	27	49	335	132.0	-197610.0	-5593.0	95350.0
17	15	27	49	335	133.0	-198124.0	-5679.0	94391.0
17	15	27	49	336	134.0	-198539.0	-5765.0	93548.0
17	15	27	49	336	135.0	-198521.0	-5839.0	91979.0
17	15	27	49	337	136.0	-198257.0	-5893.0	89686.0
17	15	27	49	337	137.0	-197606.0	-5946.0	88168.0
17	15	27	49	338	138.0	-197036.0	-6012.0	86147.0
17	15	27	49	339	139.0	-197334.0	-6096.0	82825.0
17	15	27	49	339	140.0	-199264.0	-6191.0	79290.0
17	15	27	49	340	141.0	-202238.0	-6263.0	77081.0
17	15	27	49	354	142.0	-203654.0	-6341.0	75381.0
17	15	27	49	355	143.0	-200218.0	-6402.0	74234.0
17	15	27	49	356	144.0	-191764.0	-6479.0	73703.0
17	15	27	49	356	145.0	-178081.0	-6536.0	73396.0
17	15	27	49	357	146.0	-163394.0	-6604.0	73471.0
17	15	27	49	357	147.0	-152444.0	-6682.0	73243.0
17	15	27	49	358	148.0	-147811.0	-6764.0	72658.0
17	15	27	49	359	149.0	-150842.0	-6840.0	72381.0
17	15	27	49	359	150.0	-161916.0	-6892.0	72384.0
17	15	27	49	378	151.0	-180582.0	-6945.0	71897.0
17	15	27	49	378	152.0	-205206.0	-7003.0	71438.0
17	15	27	49	379	153.0	-231996.0	-7083.0	71231.0
17	15	27	49	379	154.0	-254984.0	-7155.0	71333.0
17	15	27	49	380	155.0	-270741.0	-7232.0	71626.0
17	15	27	49	381	156.0	-277074.0	-7311.0	71409.0
17	15	27	49	381	157.0	-270331.0	-7392.0	71326.0
17	15	27	49	382	158.0	-253437.0	-7452.0	71575.0
17	15	27	49	382	159.0	-235612.0	-7521.0	71404.0
17	15	27	49	383	160.0	-217321.0	-7571.0	71109.0
17	15	27	49	384	161.0	-195384.0	-7638.0	70788.0
17	15	27	49	384	162.0	-168377.0	-7711.0	70932.0
17	15	27	49	385	163.0	-140504.0	-7775.0	71139.0
17	15	27	49	385	164.0	-117881.0	-7842.0	71025.0
17	15	27	49	386	165.0	-109086.0	-7911.0	71370.0
17	15	27	49	401	166.0	-117235.0	-7974.0	71307.0
17	15	27	49	401	167.0	-138924.0	-8015.0	70999.0
17	15	27	49	402	168.0	-166513.0	-8067.0	69517.0
17	15	27	49	403	169.0	-193391.0	-8144.0	68711.0
17	15	27	49	403	170.0	-214543.0	-8204.0	68679.0
17	15	27	49	404	171.0	-228169.0	-8262.0	68797.0
17	15	27	49	423	172.0	-234157.0	-8325.0	68815.0
17	15	27	49	424	173.0	-233216.0	-8390.0	69029.0
17	15	27	49	424	174.0	-225793.0	-8451.0	69769.0
17	15	27	49	425	175.0	-212641.0	-8512.0	70361.0
17	15	27	49	425	176.0	-195462.0	-8554.0	70792.0
17	15	27	49	426	177.0	-177505.0	-8614.0	70967.0
17	15	27	49	427	178.0	-162621.0	-8690.0	70958.0
17	15	27	49	427	179.0	-152334.0	-8731.0	71523.0
17	15	27	49	428	180.0	-146899.0	-8782.0	71359.0
17	15	27	49	428	181.0	-145628.0	-8837.0	71089.0
17	15	27	49	429	182.0	-147699.0	-8887.0	70989.0
17	15	27	49	430	183.0	-152226.0	-8961.0	71368.0
17	15	27	49	430	184.0	-158716.0	-9041.0	71441.0
17	15	27	49	431	185.0	-166146.0	-9087.0	71460.0
17	15	27	49	431	186.0	-173934.0	-9140.0	71904.0
17	15	27	49	446	187.0	-181520.0	-9196.0	72077.0
17	15	27	49	447	188.0	-189400.0	-9259.0	72148.0
17	15	27	49	447	189.0	-197675.0	-9292.0	72429.0
17	15	27	49	448	190.0	-206089.0	-9357.0	72520.0
17	15	27	49	449	191.0	-213604.0	-9436.0	71866.0
17	15	27	49	449	192.0	-219826.0	-9514.0	71604.0
17	15	27	49	450	193.0	-225279.0	-9596.0	71847.0
17	15	27	49	451	194.0	-229376.0	-9652.0	72776.0
17	15	27	49	451	195.0	-231779.0	-9697.0	73184.0
17	15	27	49	452	196.0	-233296.0	-9744.0	73283.0
17	15	27	49	453	197.0	-234891.0	-9806.0	73464.0
17	15	27	49	453	198.0	-236427.0	-9874.0	73887.0
17	15	27	49	454	199.0	-237887.0	-9931.0	73963.0
17	15	27	49	454	200.0	-238840.0	-10006.0	74066.0
17	15	27	49	471	201.0	-238715.0	-10083.0	73670.0
17	15	27	49	472	202.0	-236987.0	-10154.0	73121.0
17	15	27	49	481	203.0	-233454.0	-10212.0	72851.0
17	15	27	49	483	204.0	-228354.0	-10276.0	73206.0
17	15	27	49	483	205.0	-223332.0	-10313.0	73234.0
17	15	27	49	484	206.0	-218580.0	-10385.0	73166.0
17	15	27	49	485	207.0	-214391.0	-10459.0	73099.0
17	15	27	49	485	208.0	-210769.0	-10536.0	73512.0
17	15	27	49	486	209.0	-207586.0	-10594.0	73404.0
17	15	27	49	486	210.0	-204854.0	-10667.0	72624.0
17	15	27	49	487	211.0	-202825.0	-10716.0	72616.0
17	15	27	49	487	212.0	-201219.0	-10796.0	72819.0
17	15	27	49	488	213.0	-200419.0	-10869.0	72718.0
17	15	27	49	489	214.0	-201396.0	-10937.0	72441.0
17	15	27	49	497	215.0	-203387.0	-10991.0	72416.0
17	15	27	49	497	216.0	-206112.0	-11052.0	72638.0
17	15	27	49	520	217.0	-208851.0	-11104.0	72721.0
17	15	27	49	520	218.0	-211340.0	-11149.0	72406.0
17	15	27	49	521	219.0	-212995.0	-11185.0	72467.0
17	15	27	49	521	220.0	-214295.0	-11240.0	72212.0
17	15	27	49	522	221.0	-214549.0	-11283.0	72703.0
17	15	27	49	522	222.0	-213731.0	-11322.0	72874.0
17	15	27	49	523	223.0	-211311.0	-11371.0	73076.0
17	15	27	49	523	224.0	-207937.0	-11421.0	73666.0
17	15	27	49	524	225.0	-204224.0	-11431.0	74130.0
17	15	27	49	525	226.0	-201058.0	-11422.0	74051.0
17	15	27	49	525	227.0	-198164.0	-11420.0	74058.0
17	15	27	49	526	228.0	-195522.0	-11452.0	74106.0
17	15	27	49	526	229.0	-193340.0	-11452.0	73851.0
17	15	27	49	527	230.0	-191921.0	-11457.0	73656.0
17	15	27	49	528	231.0	-191072.0	-11433.0	73354.0
17	15	27	49	528	232.0	-190813.0	-11407.0	73351.0
17	15	27	49	529	233.0	-190318.0	-11385.0	73278.0
17	15	27	49	529	234.0	-189765.0	-11332.0	72796.0
17	15	27	49	530	235.0	-190086.0	-11287.0	72428.0
17	15	27	49	542	236.0	-190692.0	-11236.0	72389.0
17	15	27	49	543	237.0	-191336.0	-11193.0	72048.0
17	15	27	49	544	238.0	-191951.0	-11142.0	71848.0
17	15	27	49	544	239.0	-192872.0	-11077.0	71444.0
17	15	27	49	545	240.0	-194108.0	-10994.0	70901.0
17	15	27	49	545	241.0	-195774.0	-10903.0	71034.0
17	15	27	49	546	242.0	-197424.0	-10807.0	71079.0
17	15	27	49	566	243.0	-198907.0	-10721.0	70851.0
17	15	27	49	566	244.0	-199304.0	-10632.0	71356.0
17	15	27	49	567	245.0	-199137.0	-10530.0	71524.0
17	15	27	49	568	246.0	-198762.0	-10437.0	71532.0
17	15	27	49	589	247.0	-198508.0	-10332.0	71295.0
17	15	27	49	590	248.0	-198701.0	-10184.0	71699.0
17	15	27	49	590	249.0	-199489.0	-10049.0	71662.0
17	15	27	49	591	250.0	-201001.0	-9924.0	71054.0
17	15	27	49	591	251.0	-203992.0	-9787.0	70680.0
17	15	27	49	592	252.0	-207762.0	-9677.0	70673.0
17	15	27	49	592	253.0	-212015.0	-9542.0	70415.0
17	15	27	49	593	254.0	-215796.0	-9410.0	70270.0
17	15	27	49	594	255.0	-219295.0	-9254.0	70594.0
17	15	27	49	594	0.0	-221781.0	-9104.0	70552.0
17	15	27	49	595	1.0	-223356.0	-8962.0	70331.0
17	15	27	49	595	2.0	-223876.0	-8822.0	70073.0
17	15	27	49	596	3.0	-223437.0	-8656.0	70105.0
17	15	27	49	596	4.0	-221942.0	-8517.0	70099.0
17	15	27	49	597	5.0	-219322.0	-8369.0	69589.0
17	15	27	49	597	6.0	-215522.0	-8218.0	69454.0
17	15	27	49	598	7.0	-210656.0	-8048.0	70049.0
17	15	27	49	598	8.0	-205081.0	-7896.0	70128.0
17	15	27	49	599	9.0	-199427.0	-7705.0	70081.0
17	15	27	49	600	10.0	-194137.0	-7519.0	70148.0
17	15	27	49	600	11.0	-189499.0	-7381.0	70436.0
17	15	27	49	612	12.0	-185703.0	-7222.0	70559.0
17	15	27	49	612	13.0	-182770.0	-7076.0	70476.0
17	15	27	49	613	14.0	-180713.0	-6914.0	70606.0
17	15	27	49	614	15.0	-180059.0	-6749.0	71024.0
17	15	27	49	614	16.0	-180806.0	-6618.0	71401.0
17	15	27	49	615	17.0	-182724.0	-6476.0	71971.0
17	15	27	49	615	18.0	-185614.0	-6338.0	71993.0
17	15	27	49	616	19.0	-188959.0	-6171.0	72211.0
17	15	27	49	616	20.0	-192143.0	-6032.0	72792.0
17	15	27	49	617	21.0	-194769.0	-5880.0	73508.0
17	15	27	49	618	22.0	-197033.0	-5742.0	73935.0
17	15	27	49	618	23.0	-198702.0	-5601.0	73977.0
17	15	27	49	619	24.0	-199886.0	-5444.0	74496.0
17	15	27	49	619	25.0	-200489.0	-5292.0	74644.0
17	15	27	49	620	26.0	-200629.0	-5171.0	74673.0
17	15	27	49	620	27.0	-200358.0	-5051.0	75155.0
17	15	27	49	621	28.0	-199831.0	-4919.0	75561.0
17	15	27	49	636	29.0	-199309.0	-4777.0	75906.0
17	15	27	49	637	30.0	-198982.0	-4621.0	76582.0
17	15	27	49	638	31.0	-198671.0	-4496.0	77361.0
17	15	27	49	638	32.0	-198009.0	-4381.0	77763.0
17	15	27	49	639	33.0	-196898.0	-4259.0	77771.0
17	15	27	49	639	34.0	-195849.0	-4146.0	78353.0
17	15	27	49	640	35.0	-195272.0	-4026.0	78554.0
17	15	27	49	660	36.0	-195397.0	-3887.0	78234.0
17	15	27	49	661	37.0	-195897.0	-3772.0	78369.0
17	15	27	49	661	38.0	-196918.0	-3643.0	78799.0
17	15	27	49	662	39.0	-198084.0	-3529.0	79234.0
17	15	27	49	662	40.0	-199117.0	-3421.0	79611.0
17	15	27	49	663	41.0	-200057.0	-3313.0	79929.0
17	15	27	49	664	42.0	-200297.0	-3212.0	80413.0
17	15	27	49	664	43.0	-199512.0	-3109.0	80904.0
17	15	27	49	665	44.0	-197915.0	-2984.0	81529.0
17	15	27	49	665	45.0	-195206.0	-2849.0	81943.0
17	15	27	49	666	46.0	-191923.0	-2751.0	82227.0
17	15	27	49	666	47.0	-187626.0	-2650.0	82684.0
17	15	27	49	667	48.0	-180951.0	-2543.0	83109.0
17	15	27	49	667	49.0	-171649.0	-2441.0	83139.0
17	15	27	49	683	50.0	-164703.0	-2351.0	83159.0
17	15	27	49	683	51.0	-165356.0	-2239.0	83793.0
17	15	27	49	684	52.0	-179639.0	-2102.0	83909.0
17	15	27	49	684	53.0	-203482.0	-2004.0	83537.0
17	15	27	49	685	54.0	-224655.0	-1913.0	83483.0
17	15	27	49	686	55.0	-236816.0	-1814.0	83687.0
17	15	27	49	686	56.0	-239049.0	-1719.0	83639.0
17	15	27	49	706	57.0	-230994.0	-1623.0	83794.0
17	15	27	49	707	58.0	-219492.0	-1536.0	83874.0
17	15	27	49	707	59.0	-209750.0	-1424.0	83772.0
17	15	27	49	708	60.0	-200551.0	-1302.0	83806.0
17	15	27	49	708	61.0	-192436.0	-1186.0	83824.0
17	15	27	49	709	62.0	-183781.0	-1106.0	84006.0
17	15	27	49	709	63.0	-173749.0	-1007.0	84044.0
17	15	27	49	710	64.0	-165094.0	-905.0	83827.0
17	15	27	49	711	65.0	-161153.0	-820.0	83868.0
17	15	27	49	711	66.0	-162097.0	-706.0	83868.0
17	15	27	49	712	67.0	-166358.0	-595.0	83704.0
17	15	27	49	712	68.0	-172506.0	-510.0	84053.0
17	15	27	49	713	69.0	-178941.0	-412.0	84474.0
17	15	27	49	713	70.0	-184132.0	-307.0	84135.0
17	15	27	49	729	71.0	-187161.0	-216.0	84065.0
17	15	27	49	730	72.0	-188944.0	-126.0	84677.0
17	15	27	49	731	73.0	-190346.0	-38.0	84705.0
17	15	27	49	731	74.0	-193057.0	49.0	84174.0
17	15	27	49	732	75.0	-197561.0	141.0	83733.0
17	15	27	49	732	76.0	-203667.0	258.0	83988.0
17	15	27	49	733	77.0	-210861.0	338.0	84286.0
17	15	27	49	752	78.0	-217841.0	408.0	83952.0
17	15	27	49	753	79.0	-223417.0	496.0	83811.0
17	15	27	49	753	80.0	-227387.0	591.0	83803.0
17	15	27	49	754	81.0	-228810.0	688.0	83552.0
17	15	27	49	755	82.0	-227861.0	794.0	83706.0
17	15	27	49	755	83.0	-225156.0	866.0	83421.0
17	15	27	49	756	84.0	-221567.0	947.0	82909.0
17	15	27	49	756	85.0	-217846.0	1008.0	82816.0
17	15	27	49	757	86.0	-214348.0	1078.0	82726.0
17	15	27	49	757	87.0	-211050.0	1144.0	82504.0
17	15	27	49	758	88.0	-207984.0	1218.0	82286.0
17	15	27	49	759	89.0	-205492.0	1316.0	81915.0
17	15	27	49	759	90.0	-203531.0	1386.0	81577.0
17	15	27	49	760	91.0	-202299.0	1436.0	81268.0
17	15	27	49	775	92.0	-201292.0	1501.0	81594.0
17	15	27	49	776	93.0	-200809.0	1559.0	81320.0
17	15	27	49	777	94.0	-200518.0	1609.0	81161.0
17	15	27	49	777	95.0	-200417.0	1666.0	80836.0
17	15	27	49	778	96.0	-200247.0	1716.0	80813.0
17	15	27	49	778	97.0	-200131.0	1782.0	80759.0
17	15	27	49	779	98.0	-199957.0	1839.0	80756.0
17	15	27	49	798	99.0	-200301.0	1878.0	81072.0
17	15	27	49	799	100.0	-201223.0	1909.0	81131.0
17	15	27	49	799	101.0	-202771.0	1953.0	81300.0
17	15	27	49	800	102.0	-204670.0	1988.0	81554.0
17	15	27	49	801	103.0	-206388.0	2028.0	81673.0
17	15	27	49	801	104.0	-207877.0	2084.0	81311.0
17	15	27	49	802	105.0	-208905.0	2114.0	81058.0
17	15	27	49	802	106.0	-209309.0	2131.0	81253.0
17	15	27	49	803	107.0	-208985.0	2158.0	81244.0
17	15	27	49	803	108.0	-207534.0	2183.0	81243.0
17	15	27	49	804	109.0	-205761.0	2208.0	80933.0
17	15	27	49	805	110.0	-203790.0	2219.0	80734.0
17	15	27	49	805	111.0	-201759.0	2234.0	81040.0
17	15	27	49	806	112.0	-200199.0	2257.0	80429.0
17	15	27	49	822	113.0	-198828.0	2286.0	80294.0
17	15	27	49	822	114.0	-197988.0	2286.0	80400.0
17	15	27	49	823	115.0	-197226.0	2299.0	80237.0
17	15	27	49	823	116.0	-196889.0	2321.0	80411.0
17	15	27	49	824	117.0	-196739.0	2311.0	80964.0
17	15	27	49	825	118.0	-197363.0	2310.0	80979.0
17	15	27	49	825	119.0	-198801.0	2327.0	81078.0
17	15	27	49	826	120.0	-200712.0	2340.0	81180.0
17	15	27	49	826	121.0	-202468.0	2364.0	81331.0
17	15	27	49	827	122.0	-203568.0	2361.0	81346.0
17	15	27	49	828	123.0	-203824.0	2331.0	81263.0
17	15	27	49	828	124.0	-202889.0	2348.0	81207.0
17	15	27	49	829	125.0	-201224.0	2363.0	80561.0
17	15	27	49	829	126.0	-199055.0	2374.0	80203.0
17	15	27	49	845	127.0	-197055.0	2381.0	80721.0
17	15	27	49	845	128.0	-195782.0	2401.0	80691.0
17	15	27	49	846	129.0	-195222.0	2399.0	80628.0
17	15	27	49	846	130.0	-195318.0	2399.0	80529.0
17	15	27	49	847	131.0	-195770.0	2406.0	80569.0
17	15	27	49	847	132.0	-196722.0	2384.0	80693.0
17	15	27	49	848	133.0	-197761.0	2393.0	80214.0
17	15	27	49	868	134.0	-198761.0	2398.0	80325.0
17	15	27	49	869	135.0	-199281.0	2394.0	80518.0
17	15	27	49	869	136.0	-199048.0	2411.0	80482.0
17	15	27	49	870	137.0	-198343.0	2411.0	80334.0
17	15	27	49	871	138.0	-197656.0	2396.0	79951.0
17	15	27	49	871	139.0	-197516.0	2409.0	80120.0
17	15	27	49	872	140.0	-198275.0	2436.0	80294.0
17	15	27	49	872	141.0	-199696.0	2451.0	80281.0
17	15	27	49	873	142.0	-201607.0	2448.0	80261.0
17	15	27	49	874	143.0	-203683.0	2454.0	80061.0
17	15	27	49	874	144.0	-205553.0	2447.0	79974.0
17	15	27	49	875	145.0	-207248.0	2459.0	80201.0
17	15	27	49	876	146.0	-208214.0	2466.0	80649.0
17	15	27	49	876	147.0	-208645.0	2467.0	80534.0
17	15	27	49	877	148.0	-208479.0	2473.0	80212.0
17	15	27	49	877	149.0	-207951.0	2480.0	80771.0
17	15	27	49	878	150.0	-207343.0	2496.0	80690.0
17	15	27	49	879	151.0	-206667.0	2493.0	81081.0
17	15	27	49	879	152.0	-206204.0	2476.0	80569.0
17	15	27	49	880	153.0	-206164.0	2494.0	80744.0
17	15	27	49	881	154.0	-206783.0	2493.0	80809.0
17	15	27	49	881	155.0	-207639.0	2489.0	80549.0
17	15	27	49	882	156.0	-208437.0	2500.0	80344.0
17	15	27	49	882	157.0	-208811.0	2525.0	80239.0
17	15	27	49	883	158.0	-208611.0	2543.0	79974.0
17	15	27	49	884	159.0	-207919.0	2533.0	79530.0
17	15	27	49	891	160.0	-206947.0	2554.0	79291.0
17	15	27	49	892	161.0	-205666.0	2574.0	79644.0
17	15	27	49	917	162.0	-204176.0	2551.0	79353.0
17	15	27	49	918	163.0	-202823.0	2549.0	78846.0
17	15	27	49	918	164.0	-201589.0	2542.0	78848.0
17	15	27	49	919	165.0	-200827.0	2519.0	78993.0
17	15	27	49	920	166.0	-200676.0	2538.0	78946.0
17	15	27	49	920	167.0	-200507.0	2536.0	79199.0
17	15	27	49	921	168.0	-199982.0	2516.0	79281.0
17	15	27	49	921	169.0	-199706.0	2517.0	79219.0
17	15	27	49	922	170.0	-199722.0	2521.0	79140.0
17	15	27	49	922	171.0	-199659.0	2528.0	78848.0
17	15	27	49	923	172.0	-199627.0	2532.0	78916.0
17	15	27	49	924	173.0	-199325.0	2534.0	78807.0
17	15	27	49	924	174.0	-198602.0	2517.0	78202.0
17	15	27	49	925	175.0	-197706.0	2503.0	78313.0
17	15	27	49	925	176.0	-196831.0	2499.0	78262.0
17	15	27	49	926	177.0	-196050.0	2489.0	77817.0
17	15	27	49	940	178.0	-195339.0	2484.0	77426.0
17	15	27	49	940	179.0	-194840.0	2479.0	77548.0
17	15	27	49	941	180.0	-194064.0	2475.0	77148.0
17	15	27	49	942	181.0	-193011.0	2478.0	76764.0
17	15	27	49	942	182.0	-191896.0	2459.0	77047.0
17	15	27	49	943	183.0	-191079.0	2428.0	77029.0
17	15	27	49	943	184.0	-190452.0	2394.0	76406.0
17	15	27	49	944	185.0	-190065.0	2382.0	76577.0
17	15	27	49	963	186.0	-190402.0	2394.0	77120.0
17	15	27	49	963	187.0	-191336.0	2389.0	77046.0
17	15	27	49	964	188.0	-192981.0	2371.0	76333.0
17	15	27	49	964	189.0	-195188.0	2348.0	76267.0
17	15	27	49	965	190.0	-197603.0	2331.0	76541.0
17	15	27	49	966	191.0	-200264.0	2303.0	76671.0
17	15	27	49	966	192.0	-203069.0	2283.0	76149.0
17	15	27	49	967	193.0	-205026.0	2263.0	76524.0
17	15	27	49	967	194.0	-205653.0	2270.0	76498.0
17	15	27	49	968	195.0	-205612.0	2243.0	76499.0
17	15	27	49	968	196.0	-204701.0	2202.0	76186.0
17	15	27	49	969	197.0	-202911.0	2174.0	75637.0
17	15	27	49	970	198.0	-200944.0	2163.0	75305.0
17	15	27	49	970	199.0	-199144.0	2124.0	74755.0
17	15	27	49	986	200.0	-197622.0	2106.0	74744.0
17	15	27	49	987	201.0	-196420.0	2081.0	74998.0
17	15	27	49	987	202.0	-195079.0	2069.0	74658.0
17	15	27	49	988	203.0	-194155.0	2037.0	74383.0
17	15	27	49	988	204.0	-193767.0	2007.0	74782.0
17	15	27	49	989	205.0	-193434.0	1971.0	75218.0
17	15	27	49	990	206.0	-193383.0	1942.0	75324.0
17	15	27	49	990	207.0	-193637.0	1904.0	75501.0
17	15	27	49	991	208.0	-193971.0	1883.0	75263.0
17	15	27	49	992	209.0	-194465.0	1861.0	75168.0
17	15	27	49	992	210.0	-195251.0	1837.0	75325.0
17	15	27	49	997	211.0	-196200.0	1794.0	75666.0
17	15	27	49	999	212.0	-197439.0	1744.0	75247.0
17	15	27	50	0	213.0	-199355.0	1703.0	75226.0
17	15	27	50	2	214.0	-201816.0	1667.0	75004.0
17	15	27	50	4	215.0	-204599.0	1601.0	75152.0
17	15	27	50	11	216.0	-206832.0	1548.0	74989.0
17	15	27	50	12	217.0	-208257.0	1526.0	75164.0
17	15	27	50	13	218.0	-208556.0	1474.0	75344.0
17	15	27	50	13	219.0	-208091.0	1431.0	75041.0
17	15	27	50	14	220.0	-207377.0	1398.0	74536.0
17	15	27	50	14	221.0	-206824.0	1331.0	74219.0
17	15	27	50	15	222.0	-206296.0	1291.0	73821.0
17	15	27	50	35	223.0	-205614.0	1253.0	73063.0
17	15	27	50	36	224.0	-205036.0	1209.0	71517.0
17	15	27	50	36	225.0	-204551.0	1161.0	69706.0
17	15	27	50	38	226.0	-203754.0	1113.0	69729.0
17	15	27	50	39	227.0	-202561.0	1073.0	70664.0
17	15	27	50	39	228.0	-201398.0	1019.0	71321.0
17	15	27	50	40	229.0	-200504.0	956.0	71402.0
17	15	27	50	41	230.0	-199882.0	899.0	71699.0
17	15	27	50	41	231.0	-199719.0	873.0	71839.0
17	15	27	50	42	232.0	-199811.0	829.0	71174.0
17	15	27	50	43	233.0	-200093.0	758.0	70906.0
17	15	27	50	43	234.0	-200599.0	696.0	71128.0
17	15	27	50	44	235.0	-200793.0	643.0	71231.0
17	15	27	50	45	236.0	-200229.0	599.0	71353.0
17	15	27	50	45	237.0	-198867.0	534.0	72029.0
17	15	27	50	46	238.0	-196880.0	479.0	72643.0
17	15	27	50	46	239.0	-193961.0	449.0	72978.0
17	15	27	50	47	240.0	-190723.0	417.0	72565.0
17	15	27	50	59	241.0	-187701.0	368.0	72756.0
17	15	27	50	59	242.0	-185367.0	313.0	72362.0
17	15	27	50	60	243.0	-184758.0	272.0	72015.0
17	15	27	50	61	244.0	-186024.0	217.0	72258.0
17	15	27	50	82	245.0	-188102.0	170.0	72494.0
17	15	27	50	82	246.0	-190962.0	108.0	72606.0
17	15	27	50	83	247.0	-194017.0	49.0	72748.0
17	15	27	50	84	248.0	-196707.0	-7.0	72603.0
17	15	27	50	84	249.0	-198956.0	-82.0	72539.0
17	15	27	50	85	250.0	-201169.0	-148.0	72121.0
17	15	27	50	85	251.0	-202991.0	-206.0	72043.0
17	15	27	50	86	252.0	-204384.0	-242.0	71884.0
17	15	27	50	87	253.0	-205579.0	-297.0	71677.0
17	15	27	50	87	254.0	-205936.0	-349.0	71301.0
17	15	27	50	88	255.0	-205668.0	-416.0	70911.0
17	15	27	50	88	0.0	-205030.0	-474.0	70581.0
17	15	27	50	89	1.0	-203473.0	-531.0	70403.0
17	15	27	50	89	2.0	-201184.0	-597.0	70586.0
17	15	27	50	105	3.0	-198968.0	-655.0	70776.0
17	15	27	50	106	4.0	-196382.0	-718.0	70613.0
17	15	27	50	107	5.0	-193536.0	-770.0	70005.0
17	15	27	50	107	6.0	-191509.0	-813.0	69529.0
17	15	27	50	108	7.0	-189882.0	-869.0	69581.0
17	15	27	50	108	8.0	-189255.0	-931.0	69264.0
17	15	27	50	109	9.0	-189907.0	-996.0	69893.0
17	15	27	50	128	10.0	-191062.0	-1078.0	70308.0
17	15	27	50	129	11.0	-193152.0	-1149.0	70748.0
17	15	27	50	130	12.0	-196436.0	-1167.0	70559.0
17	15	27	50	130	13.0	-200640.0	-1211.0	70828.0
17	15	27	50	131	14.0	-205289.0	-1256.0	71109.0
17	15	27	50	131	15.0	-209802.0	-1297.0	70909.0
17	15	27	50	132	16.0	-213393.0	-1392.0	69244.0
17	15	27	50	152	17.0	-215768.0	-1457.0	69192.0
17	15	27	50	153	18.0	-216636.0	-1507.0	68913.0
17	15	27	50	154	19.0	-216070.0	-1577.0	68566.0
17	15	27	50	154	20.0	-214041.0	-1639.0	68889.0
17	15	27	50	155	21.0	-210690.0	-1682.0	68973.0
17	15	27	50	156	22.0	-206210.0	-1738.0	68707.0
17	15	27	50	156	23.0	-201271.0	-1804.0	68864.0
17	15	27	50	157	24.0	-196772.0	-1863.0	69271.0
17	15	27	50	158	25.0	-192884.0	-1918.0	69261.0
17	15	27	50	158	26.0	-189644.0	-1964.0	68974.0
17	15	27	50	159	27.0	-187631.0	-1995.0	68600.0
17	15	27	50	160	28.0	-186783.0	-2039.0	68612.0
17	15	27	50	160	29.0	-186671.0	-2095.0	68916.0
17	15	27	50	161	30.0	-187546.0	-2139.0	69074.0
17	15	27	50	175	31.0	-189234.0	-2190.0	68662.0
17	15	27	50	176	32.0	-190997.0	-2252.0	68611.0
17	15	27	50	176	33.0	-192965.0	-2314.0	68629.0
17	15	27	50	177	34.0	-194736.0	-2369.0	68808.0
17	15	27	50	177	35.0	-196050.0	-2407.0	68811.0
17	15	27	50	178	36.0	-197374.0	-2446.0	68439.0
17	15	27	50	179	37.0	-198709.0	-2494.0	68717.0
17	15	27	50	198	38.0	-199894.0	-2534.0	68376.0
17	15	27	50	199	39.0	-200675.0	-2609.0	68475.0
17	15	27	50	200	41.0	-201528.0	-2719.0	68701.0
17	15	27	50	200	42.0	-201736.0	-2755.0	68470.0
17	15	27	50	201	43.0	-202046.0	-2787.0	68312.0
17	15	27	50	202	44.0	-202406.0	-2818.0	68301.0
17	15	27	50	203	45.0	-202512.0	-2874.0	68047.0
17	15	27	50	203	46.0	-202015.0	-2928.0	67458.0
17	15	27	50	204	47.0	-201126.0	-2981.0	67360.0
17	15	27	50	204	48.0	-199983.0	-3029.0	67583.0
17	15	27	50	205	49.0	-199101.0	-3072.0	67362.0
17	15	27	50	206	50.0	-199017.0	-3081.0	67524.0
17	15	27	50	206	51.0	-199308.0	-3119.0	67614.0
17	15	27	50	207	52.0	-200139.0	-3158.0	67773.0
17	15	27	50	220	53.0	-201484.0	-3215.0	67172.0
17	15	27	50	221	54.0	-202643.0	-3265.0	66750.0
17	15	27	50	221	56.0	-204024.0	-3357.0	65044.0
17	15	27	50	222	57.0	-204830.0	-3405.0	64593.0
17	15	27	50	222	58.0	-206548.0	-3444.0	64166.0
17	15	27	50	223	59.0	-208460.0	-3487.0	63929.0
17	15	27	50	224	60.0	-210012.0	-3524.0	64527.0
17	15	27	50	244	61.0	-210640.0	-3575.0	66236.0
17	15	27	50	245	62.0	-210266.0	-3622.0	70116.0
17	15	27	50	245	63.0	-208667.0	-3677.0	73726.0
17	15	27	50	246	64.0	-206426.0	-3722.0	77156.0
17	15	27	50	247	65.0	-204109.0	-3757.0	81578.0
17	15	27	50	247	66.0	-201887.0	-3786.0	83698.0
17	15	27	50	248	67.0	-199697.0	-3832.0	83679.0
17	15	27	50	248	68.0	-197901.0	-3893.0	84032.0
17	15	27	50	249	69.0	-196852.0	-3937.0	84804.0
17	15	27	50	250	70.0	-196596.0	-3967.0	86185.0
17	15	27	50	250	71.0	-197254.0	-4006.0	85872.0
17	15	27	50	251	72.0	-199089.0	-4052.0	85663.0
17	15	27	50	251	73.0	-201939.0	-4094.0	84913.0
17	15	27	50	252	74.0	-205242.0	-4137.0	83965.0
17	15	27	50	266	75.0	-208729.0	-4167.0	82467.0
17	15	27	50	267	76.0	-211494.0	-4222.0	80582.0
17	15	27	50	267	78.0	-215187.0	-4318.0	77320.0
17	15	27	50	268	79.0	-216161.0	-4356.0	74304.0
17	15	27	50	268	80.0	-216752.0	-4402.0	71090.0
17	15	27	50	269	81.0	-217131.0	-4437.0	68203.0
17	15	27	50	270	82.0	-216624.0	-4472.0	66777.0
17	15	27	50	289	83.0	-212922.0	-4549.0	65153.0
17	15	27	50	290	84.0	-204006.0	-4616.0	63773.0
17	15	27	50	291	85.0	-189815.0	-4658.0	63071.0
17	15	27	50	292	86.0	-171602.0	-4702.0	62711.0
17	15	27	50	292	87.0	-153384.0	-4751.0	62053.0
17	15	27	50	293	88.0	-139181.0	-4797.0	61504.0
17	15	27	50	294	89.0	-131545.0	-4842.0	61894.0
17	15	27	50	294	90.0	-131564.0	-4894.0	61724.0
17	15	27	50	295	91.0	-139993.0	-4944.0	60913.0
17	15	27	50	295	93.0	-183001.0	-5036.0	59934.0
17	15	27	50	296	94.0	-211737.0	-5086.0	59723.0
17	15	27	50	297	95.0	-240110.0	-5134.0	59269.0
17	15	27	50	297	96.0	-263681.0	-5168.0	59104.0
17	15	27	50	298	97.0	-274789.0	-5231.0	58649.0
17	15	27	50	298	98.0	-273120.0	-5263.0	58202.0
17	15	27	50	299	99.0	-264706.0	-5312.0	58104.0
17	15	27	50	299	100.0	-250629.0	-5375.0	58129.0
17	15	27	50	300	101.0	-227862.0	-5412.0	57683.0
17	15	27	50	301	102.0	-194444.0	-5450.0	57749.0
17	15	27	50	301	103.0	-155496.0	-5464.0	58483.0
17	15	27	50	302	104.0	-119342.0	-5491.0	58317.0
17	15	27	50	302	105.0	-94821.0	-5514.0	57419.0
17	15	27	50	303	106.0	-88255.0	-5529.0	57043.0
17	15	27	50	304	107.0	-99892.0	-5551.0	57141.0
17	15	27	50	305	108.0	-124490.0	-5592.0	56581.0
17	15	27	50	305	109.0	-156104.0	-5617.0	56498.0
17	15	27	50	306	110.0	-189086.0	-5637.0	57113.0
17	15	27	50	315	111.0	-218974.0	-5675.0	57031.0
17	15	27	50	315	112.0	-242804.0	-5719.0	57313.0
17	15	27	50	316	113.0	-258940.0	-5737.0	57385.0
17	15	27	50	317	114.0	-266543.0	-5770.0	57235.0
17	15	27	50	318	115.0	-265436.0	-5822.0	56581.0
17	15	27	50	318	116.0	-256842.0	-5865.0	56175.0
17	15	27	50	326	117.0	-242614.0	-5891.0	56067.0
17	15	27	50	327	118.0	-225367.0	-5922.0	55976.0
17	15	27	50	328	119.0	-207740.0	-5974.0	56088.0
17	15	27	50	328	120.0	-191957.0	-5992.0	56216.0
17	15	27	50	329	121.0	-179536.0	-6020.0	56433.0
17	15	27	50	329	122.0	-171191.0	-6054.0	55893.0
17	15	27	50	330	123.0	-167465.0	-6092.0	56105.0
17	15	27	50	350	124.0	-168553.0	-6125.0	56491.0
17	15	27	50	351	125.0	-173583.0	-6151.0	56139.0
17	15	27	50	351	126.0	-181207.0	-6182.0	55628.0
17	15	27	50	352	127.0	-189823.0	-6215.0	55484.0
17	15	27	50	352	128.0	-198791.0	-6259.0	56001.0
17	15	27	50	353	129.0	-207520.0	-6309.0	56159.0
17	15	27	50	354	130.0	-214917.0	-6341.0	56216.0
17	15	27	50	354	131.0	-219972.0	-6383.0	56448.0
17	15	27	50	355	132.0	-221989.0	-6407.0	56933.0
17	15	27	50	355	133.0	-221566.0	-6428.0	56919.0
17	15	27	50	356	134.0	-219007.0	-6449.0	56919.0
17	15	27	50	356	135.0	-214531.0	-6491.0	56803.0
17	15	27	50	357	136.0	-208617.0	-6556.0	56711.0
17	15	27	50	357	137.0	-202440.0	-6597.0	56054.0
17	15	27	50	373	138.0	-197259.0	-6636.0	56166.0
17	15	27	50	374	139.0	-193274.0	-6666.0	56076.0
17	15	27	50	374	140.0	-190767.0	-6681.0	55738.0
17	15	27	50	375	141.0	-189753.0	-6712.0	55154.0
17	15	27	50	375	142.0	-190046.0	-6746.0	54622.0
17	15	27	50	376	143.0	-191019.0	-6785.0	53738.0
17	15	27	50	377	144.0	-192367.0	-6834.0	53243.0
17	15	27	50	396	145.0	-194191.0	-6887.0	53179.0
17	15	27	50	397	146.0	-196004.0	-6921.0	53015.0
17	15	27	50	398	147.0	-197014.0	-6934.0	52610.0
17	15	27	50	398	148.0	-197082.0	-6950.0	51844.0
17	15	27	50	399	149.0	-196784.0	-6989.0	51788.0
17	15	27	50	399	150.0	-196675.0	-7046.0	51608.0
17	15	27	50	400	151.0	-196906.0	-7088.0	51237.0
17	15	27	50	400	152.0	-197234.0	-7116.0	51213.0
17	15	27	50	401	153.0	-197571.0	-7156.0	50456.0
17	15	27	50	401	154.0	-197217.0	-7196.0	50404.0
17	15	27	50	402	155.0	-196772.0	-7199.0	50275.0
17	15	27	50	403	156.0	-196404.0	-7215.0	49212.0
17	15	27	50	403	157.0	-195658.0	-7265.0	48454.0
17	15	27	50	404	158.0	-194984.0	-7299.0	48345.0
17	15	27	50	421	159.0	-194318.0	-7344.0	48078.0
17	15	27	50	421	160.0	-192942.0	-7390.0	47711.0
17	15	27	50	422	161.0	-191379.0	-7415.0	47733.0
17	15	27	50	422	162.0	-190136.0	-7443.0	47395.0
17	15	27	50	423	163.0	-189612.0	-7441.0	46875.0
17	15	27	50	423	164.0	-189816.0	-7486.0	46228.0
17	15	27	50	424	165.0	-191197.0	-7501.0	45724.0
17	15	27	50	443	166.0	-193754.0	-7514.0	45520.0
17	15	27	50	444	167.0	-196982.0	-7536.0	45098.0
17	15	27	50	444	168.0	-200539.0	-7542.0	44707.0
17	15	27	50	445	169.0	-203622.0	-7543.0	44764.0
17	15	27	50	445	170.0	-205934.0	-7532.0	44381.0
17	15	27	50	446	171.0	-207506.0	-7517.0	44169.0
17	15	27	50	447	172.0	-207892.0	-7506.0	44379.0
17	15	27	50	467	173.0	-207422.0	-7497.0	44184.0
17	15	27	50	467	174.0	-206733.0	-7462.0	43660.0
17	15	27	50	468	175.0	-206028.0	-7414.0	42966.0
17	15	27	50	469	176.0	-205221.0	-7391.0	42867.0
17	15	27	50	469	177.0	-204619.0	-7338.0	42549.0
17	15	27	50	470	178.0	-204151.0	-7247.0	41969.0
17	15	27	50	470	179.0	-203934.0	-7181.0	41972.0
17	15	27	50	471	180.0	-204083.0	-7142.0	41501.0
17	15	27	50	472	181.0	-205312.0	-7077.0	41319.0
17	15	27	50	472	182.0	-207809.0	-6991.0	41131.0
17	15	27	50	473	183.0	-209716.0	-6904.0	41123.0
17	15	27	50	473	184.0	-210432.0	-6807.0	40729.0
17	15	27	50	474	185.0	-210249.0	-6701.0	39977.0
17	15	27	50	474	186.0	-209186.0	-6614.0	40069.0
