27	15	34	18	855	57.0	-154485.0	-2709.0	207868.0
27	15	34	18	857	58.0	-144851.0	-2640.0	208007.0
27	15	34	18	860	59.0	-149733.0	-2542.0	207493.0
27	15	34	18	862	60.0	-165964.0	-2474.0	207386.0
27	15	34	18	864	61.0	-186895.0	-2409.0	207858.0
27	15	34	18	867	62.0	-204051.0	-2328.0	208160.0
27	15	34	18	869	63.0	-216093.0	-2258.0	208331.0
27	15	34	18	870	64.0	-223809.0	-2189.0	207556.0
27	15	34	18	871	65.0	-227495.0	-2121.0	206588.0
27	15	34	18	872	66.0	-228413.0	-2047.0	205765.0
27	15	34	18	873	67.0	-226871.0	-1997.0	204408.0
27	15	34	18	874	68.0	-223151.0	-1936.0	203245.0
27	15	34	18	875	69.0	-217621.0	-1857.0	202543.0
27	15	34	18	876	70.0	-209954.0	-1772.0	202291.0
27	15	34	18	876	71.0	-202106.0	-1709.0	202080.0
27	15	34	18	877	72.0	-195275.0	-1639.0	201520.0
27	15	34	18	886	73.0	-189834.0	-1554.0	201198.0
27	15	34	18	887	74.0	-186514.0	-1501.0	200704.0
27	15	34	18	887	75.0	-186416.0	-1411.0	200262.0
27	15	34	18	888	76.0	-187635.0	-1329.0	199668.0
27	15	34	18	889	77.0	-188713.0	-1272.0	199106.0
27	15	34	18	890	78.0	-189722.0	-1217.0	198662.0
27	15	34	18	890	79.0	-190094.0	-1149.0	197948.0
27	15	34	18	989	80.0	-190430.0	-1087.0	198354.0
27	15	34	19	78	81.0	-191075.0	-1025.0	198798.0
27	15	34	19	79	82.0	-193526.0	-962.0	198771.0
27	15	34	19	80	83.0	-198212.0	-900.0	198764.0
27	15	34	19	80	84.0	-202866.0	-847.0	198104.0
27	15	34	19	81	85.0	-206709.0	-784.0	197339.0
27	15	34	19	82	86.0	-209779.0	-720.0	197036.0
27	15	34	19	82	87.0	-211867.0	-651.0	197301.0
27	15	34	19	123	88.0	-212619.0	-606.0	197724.0
27	15	34	19	125	89.0	-212345.0	-556.0	197151.0
27	15	34	19	125	90.0	-210956.0	-499.0	196714.0
27	15	34	19	126	91.0	-208546.0	-448.0	196781.0
27	15	34	19	127	92.0	-205481.0	-396.0	196630.0
27	15	34	19	127	93.0	-202038.0	-354.0	195964.0
27	15	34	19	128	94.0	-198610.0	-292.0	195558.0
27	15	34	19	129	128.0	-199639.0	491.0	190509.0
27	15	34	19	129	173.0	-203762.0	144.0	174406.0
27	15	34	19	130	174.0	-202586.0	107.0	174243.0
27	15	34	19	131	175.0	-201916.0	92.0	173786.0
27	15	34	19	132	176.0	-201898.0	79.0	173976.0
27	15	34	19	132	177.0	-202029.0	80.0	174476.0
27	15	34	19	133	178.0	-202026.0	73.0	174003.0
27	15	34	19	133	179.0	-202740.0	35.0	172966.0
27	15	34	19	134	180.0	-203506.0	21.0	172396.0
27	15	34	19	135	196.0	-208332.0	-306.0	170743.0
27	15	34	19	135	197.0	-206216.0	-324.0	170668.0
27	15	34	19	136	198.0	-204287.0	-342.0	170288.0
27	15	34	19	136	199.0	-202141.0	-361.0	170161.0
27	15	34	19	137	200.0	-199284.0	-391.0	170394.0
27	15	34	19	138	201.0	-196397.0	-421.0	170318.0
27	15	34	19	169	202.0	-193756.0	-441.0	169924.0
27	15	34	19	169	203.0	-191493.0	-459.0	170418.0
27	15	34	19	170	204.0	-189496.0	-497.0	170182.0
27	15	34	19	171	205.0	-188259.0	-512.0	170236.0
27	15	34	19	171	206.0	-188098.0	-553.0	170126.0
27	15	34	19	172	207.0	-188578.0	-578.0	169878.0
27	15	34	19	173	208.0	-189521.0	-606.0	169539.0
27	15	34	19	212	209.0	-190812.0	-608.0	168894.0
27	15	34	19	214	210.0	-192717.0	-637.0	168471.0
27	15	34	19	215	211.0	-194361.0	-674.0	167979.0
27	15	34	19	216	212.0	-195737.0	-704.0	167976.0
27	15	34	19	217	213.0	-197013.0	-723.0	167821.0
27	15	34	19	217	214.0	-198402.0	-759.0	167091.0
27	15	34	19	218	215.0	-200196.0	-788.0	166581.0
27	15	34	19	219	216.0	-202459.0	-816.0	166624.0
27	15	34	19	219	218.0	-207954.0	-866.0	166508.0
27	15	34	19	220	219.0	-210368.0	-909.0	166448.0
27	15	34	19	221	220.0	-212073.0	-948.0	165852.0
27	15	34	19	221	221.0	-213229.0	-984.0	165248.0
27	15	34	19	222	222.0	-214283.0	-1007.0	164762.0
27	15	34	19	223	223.0	-215292.0	-1031.0	164923.0
27	15	34	19	223	224.0	-215559.0	-1058.0	164281.0
27	15	34	19	224	225.0	-214589.0	-1093.0	163129.0
27	15	34	19	225	241.0	-184285.0	-1712.0	188979.0
27	15	34	19	225	242.0	-184184.0	-1721.0	185184.0
27	15	34	19	226	243.0	-184653.0	-1776.0	181130.0
27	15	34	19	226	244.0	-185701.0	-1807.0	178551.0
27	15	34	19	227	245.0	-187327.0	-1849.0	175337.0
27	15	34	19	228	246.0	-189804.0	-1899.0	170938.0
27	15	34	19	258	247.0	-193660.0	-1945.0	166699.0
27	15	34	19	303	248.0	-198147.0	-1972.0	163867.0
27	15	34	19	303	249.0	-203722.0	-2016.0	161256.0
27	15	34	19	304	250.0	-210409.0	-2041.0	158644.0
27	15	34	19	305	251.0	-216779.0	-2079.0	156448.0
27	15	34	19	306	252.0	-221857.0	-2114.0	155150.0
27	15	34	19	306	253.0	-223307.0	-2156.0	153636.0
27	15	34	19	307	254.0	-218797.0	-2192.0	151952.0
27	15	34	19	308	255.0	-209290.0	-2221.0	150596.0
27	15	34	19	308	0.0	-196104.0	-2266.0	149661.0
27	15	34	19	309	1.0	-183172.0	-2314.0	149676.0
27	15	34	19	310	2.0	-174934.0	-2342.0	149309.0
27	15	34	19	311	3.0	-172497.0	-2361.0	148268.0
27	15	34	19	311	4.0	-177194.0	-2407.0	147718.0
27	15	34	19	312	5.0	-189975.0	-2452.0	147529.0
27	15	34	19	313	7.0	-229894.0	-2521.0	147477.0
27	15	34	19	314	29.0	-206889.0	-3344.0	139456.0
27	15	34	19	315	30.0	-203394.0	-3395.0	139807.0
27	15	34	19	315	31.0	-198359.0	-3444.0	139666.0
27	15	34	19	316	32.0	-192778.0	-3476.0	139449.0
27	15	34	19	316	33.0	-187382.0	-3507.0	139366.0
27	15	34	19	317	34.0	-183559.0	-3556.0	138736.0
27	15	34	19	318	35.0	-182322.0	-3599.0	138483.0
27	15	34	19	348	36.0	-183047.0	-3646.0	138164.0
27	15	34	19	349	37.0	-184983.0	-3704.0	137469.0
27	15	34	19	349	38.0	-188377.0	-3737.0	136655.0
27	15	34	19	350	39.0	-192064.0	-3749.0	136388.0
27	15	34	19	351	40.0	-194804.0	-3792.0	135734.0
27	15	34	19	351	41.0	-197586.0	-3846.0	135426.0
27	15	34	19	352	42.0	-199612.0	-3893.0	134979.0
27	15	34	19	352	43.0	-199941.0	-3935.0	134308.0
27	15	34	19	353	44.0	-199536.0	-3979.0	133884.0
27	15	34	19	354	45.0	-198699.0	-4024.0	133398.0
27	15	34	19	354	46.0	-197556.0	-4059.0	133389.0
27	15	34	19	355	47.0	-196134.0	-4119.0	132864.0
27	15	34	19	355	48.0	-194672.0	-4151.0	132261.0
27	15	34	19	356	49.0	-193166.0	-4190.0	132047.0
27	15	34	19	356	50.0	-191839.0	-4216.0	132279.0
27	15	34	19	357	52.0	-190094.0	-4311.0	131292.0
27	15	34	19	358	53.0	-189959.0	-4367.0	131018.0
27	15	34	19	358	54.0	-190068.0	-4418.0	130872.0
27	15	34	19	359	55.0	-190115.0	-4446.0	130536.0
27	15	34	19	359	56.0	-190722.0	-4479.0	130428.0
27	15	34	19	360	57.0	-191386.0	-4537.0	130211.0
27	15	34	19	391	58.0	-191633.0	-4577.0	129409.0
27	15	34	19	392	59.0	-191776.0	-4627.0	129353.0
27	15	34	19	393	60.0	-192225.0	-4681.0	129411.0
27	15	34	19	393	61.0	-192345.0	-4707.0	129018.0
27	15	34	19	394	62.0	-192192.0	-4764.0	128360.0
27	15	34	19	394	63.0	-191781.0	-4816.0	127876.0
27	15	34	19	395	64.0	-191182.0	-4868.0	127980.0
27	15	34	19	395	65.0	-190440.0	-4919.0	127688.0
27	15	34	19	396	66.0	-189412.0	-4956.0	127956.0
27	15	34	19	397	67.0	-188850.0	-5001.0	128056.0
27	15	34	19	397	68.0	-188708.0	-5046.0	127613.0
27	15	34	19	398	69.0	-189067.0	-5087.0	126829.0
27	15	34	19	398	70.0	-189519.0	-5118.0	126545.0
27	15	34	19	399	71.0	-189536.0	-5150.0	125962.0
27	15	34	19	399	72.0	-189249.0	-5215.0	125624.0
27	15	34	19	415	74.0	-188786.0	-5287.0	124863.0
27	15	34	19	416	75.0	-188587.0	-5315.0	124309.0
27	15	34	19	416	76.0	-188542.0	-5352.0	124160.0
27	15	34	19	417	77.0	-188201.0	-5386.0	123758.0
27	15	34	19	417	78.0	-188019.0	-5411.0	123308.0
27	15	34	19	418	79.0	-188397.0	-5439.0	123456.0
27	15	34	19	439	80.0	-189527.0	-5467.0	122874.0
27	15	34	19	440	81.0	-191133.0	-5497.0	122334.0
27	15	34	19	441	82.0	-193146.0	-5512.0	121443.0
27	15	34	19	442	83.0	-195812.0	-5535.0	121311.0
27	15	34	19	442	84.0	-198994.0	-5551.0	120973.0
27	15	34	19	443	85.0	-202079.0	-5577.0	120489.0
27	15	34	19	443	86.0	-204929.0	-5572.0	119796.0
27	15	34	19	444	87.0	-206859.0	-5567.0	119784.0
27	15	34	19	445	88.0	-208321.0	-5563.0	119126.0
27	15	34	19	445	89.0	-209782.0	-5545.0	118355.0
27	15	34	19	446	90.0	-211144.0	-5534.0	118686.0
27	15	34	19	446	91.0	-212984.0	-5527.0	118713.0
27	15	34	19	447	92.0	-215137.0	-5509.0	118386.0
27	15	34	19	447	93.0	-217255.0	-5466.0	117616.0
27	15	34	19	448	94.0	-218786.0	-5443.0	117216.0
27	15	34	19	449	95.0	-219587.0	-5443.0	117261.0
27	15	34	19	449	97.0	-219623.0	-5336.0	115218.0
27	15	34	19	450	98.0	-218087.0	-5282.0	115241.0
27	15	34	19	450	99.0	-215884.0	-5228.0	115052.0
27	15	34	19	451	100.0	-213404.0	-5179.0	115268.0
27	15	34	19	451	101.0	-210626.0	-5122.0	115207.0
27	15	34	19	452	102.0	-207946.0	-5066.0	114595.0
27	15	34	19	482	103.0	-205709.0	-4997.0	114353.0
27	15	34	19	528	104.0	-204280.0	-4931.0	114466.0
27	15	34	19	529	105.0	-203629.0	-4857.0	114704.0
27	15	34	19	529	106.0	-203076.0	-4789.0	114798.0
27	15	34	19	530	107.0	-202936.0	-4709.0	114828.0
27	15	34	19	531	108.0	-203363.0	-4624.0	114916.0
27	15	34	19	531	109.0	-203514.0	-4531.0	114139.0
27	15	34	19	572	110.0	-203370.0	-4476.0	113837.0
27	15	34	19	573	111.0	-203317.0	-4377.0	114083.0
27	15	34	19	574	112.0	-202918.0	-4282.0	114288.0
27	15	34	19	574	113.0	-202967.0	-4219.0	114338.0
27	15	34	19	575	114.0	-203272.0	-4136.0	114668.0
27	15	34	19	575	115.0	-203821.0	-4031.0	114557.0
27	15	34	19	576	116.0	-204008.0	-3949.0	113946.0
27	15	34	19	617	117.0	-204147.0	-3848.0	113546.0
27	15	34	19	618	119.0	-202839.0	-3676.0	114121.0
27	15	34	19	619	142.0	-187684.0	-1611.0	112674.0
27	15	34	19	619	143.0	-189272.0	-1526.0	113103.0
27	15	34	19	620	144.0	-191092.0	-1420.0	112854.0
27	15	34	19	621	145.0	-193004.0	-1339.0	112761.0
27	15	34	19	621	146.0	-195051.0	-1258.0	112738.0
27	15	34	19	622	147.0	-195920.0	-1171.0	112596.0
27	15	34	19	622	164.0	-202370.0	317.0	108401.0
27	15	34	19	623	165.0	-198518.0	395.0	108147.0
27	15	34	19	624	166.0	-197251.0	468.0	107429.0
27	15	34	19	624	167.0	-200269.0	557.0	106786.0
27	15	34	19	625	168.0	-207163.0	636.0	106563.0
27	15	34	19	626	169.0	-215967.0	711.0	106050.0
27	15	34	19	627	170.0	-224272.0	811.0	105391.0
27	15	34	19	628	171.0	-230339.0	884.0	104581.0
27	15	34	19	629	187.0	-187909.0	2063.0	99840.0
27	15	34	19	629	188.0	-187976.0	2120.0	99691.0
27	15	34	19	630	189.0	-188656.0	2173.0	100113.0
27	15	34	19	630	190.0	-189762.0	2240.0	99883.0
27	15	34	19	631	191.0	-190915.0	2278.0	99057.0
27	15	34	19	631	192.0	-191681.0	2326.0	98761.0
27	15	34	19	663	193.0	-192792.0	2383.0	98700.0
27	15	34	19	664	194.0	-193757.0	2434.0	98516.0
27	15	34	19	664	195.0	-194289.0	2464.0	98703.0
27	15	34	19	665	196.0	-194612.0	2494.0	98659.0
27	15	34	19	665	197.0	-194809.0	2537.0	98236.0
27	15	34	19	666	198.0	-194722.0	2573.0	97937.0
27	15	34	19	667	199.0	-194291.0	2600.0	98280.0
27	15	34	19	667	200.0	-193518.0	2639.0	98717.0
27	15	34	19	668	201.0	-193611.0	2663.0	98081.0
27	15	34	19	669	202.0	-194467.0	2686.0	97884.0
27	15	34	19	669	203.0	-195719.0	2715.0	98183.0
27	15	34	19	670	204.0	-196785.0	2738.0	98201.0
27	15	34	19	707	205.0	-198051.0	2769.0	97788.0
27	15	34	19	708	206.0	-199699.0	2785.0	97525.0
27	15	34	19	709	207.0	-201796.0	2782.0	97745.0
27	15	34	19	709	209.0	-207031.0	2828.0	97131.0
27	15	34	19	710	210.0	-209409.0	2840.0	97503.0
27	15	34	19	710	211.0	-211131.0	2863.0	97157.0
27	15	34	19	711	212.0	-212691.0	2873.0	96300.0
27	15	34	19	753	213.0	-214212.0	2893.0	96377.0
27	15	34	19	754	214.0	-214974.0	2888.0	96444.0
27	15	34	19	754	215.0	-215459.0	2879.0	95706.0
27	15	34	19	755	216.0	-215502.0	2871.0	95244.0
27	15	34	19	755	217.0	-214210.0	2886.0	95102.0
27	15	34	19	756	218.0	-211867.0	2884.0	94763.0
27	15	34	19	756	219.0	-209491.0	2906.0	94676.0
27	15	34	19	757	220.0	-207359.0	2893.0	94074.0
27	15	34	19	758	221.0	-205277.0	2874.0	93887.0
27	15	34	19	759	232.0	-184889.0	2804.0	93029.0
27	15	34	19	759	233.0	-185046.0	2803.0	92945.0
27	15	34	19	760	234.0	-185333.0	2814.0	92610.0
27	15	34	19	761	235.0	-185655.0	2811.0	91694.0
27	15	34	19	761	236.0	-186036.0	2800.0	90961.0
27	15	34	19	762	237.0	-186229.0	2780.0	91164.0
27	15	34	19	797	238.0	-185962.0	2769.0	90509.0
27	15	34	19	798	254.0	-206539.0	2567.0	88338.0
27	15	34	19	799	255.0	-207207.0	2557.0	89093.0
27	15	34	19	799	0.0	-207246.0	2511.0	88811.0
27	15	34	19	800	1.0	-207179.0	2488.0	88296.0
27	15	34	19	801	2.0	-206932.0	2487.0	88078.0
27	15	34	19	801	3.0	-206077.0	2461.0	87614.0
27	15	34	19	802	4.0	-205472.0	2448.0	87334.0
27	15	34	19	803	5.0	-204901.0	2430.0	87159.0
27	15	34	19	803	6.0	-204300.0	2401.0	86983.0
27	15	34	19	804	7.0	-203857.0	2384.0	86356.0
27	15	34	19	804	8.0	-203522.0	2374.0	85671.0
27	15	34	19	805	9.0	-203400.0	2343.0	85448.0
27	15	34	19	813	10.0	-203345.0	2319.0	85903.0
27	15	34	19	814	11.0	-203233.0	2278.0	86221.0
27	15	34	19	815	12.0	-202795.0	2260.0	85837.0
27	15	34	19	815	21.0	-205907.0	2033.0	79732.0
27	15	34	19	816	22.0	-206057.0	2016.0	79203.0
27	15	34	19	816	23.0	-206419.0	2004.0	78799.0
27	15	34	19	817	24.0	-206962.0	1981.0	78471.0
27	15	34	19	817	25.0	-207559.0	1939.0	78038.0
27	15	34	19	818	26.0	-208049.0	1904.0	77883.0
27	15	34	19	842	27.0	-208220.0	1880.0	78126.0
27	15	34	19	843	28.0	-208405.0	1839.0	78263.0
27	15	34	19	843	29.0	-208639.0	1808.0	78336.0
27	15	34	19	844	30.0	-209314.0	1783.0	77434.0
27	15	34	19	845	31.0	-209778.0	1751.0	77108.0
27	15	34	19	845	32.0	-209915.0	1729.0	77669.0
27	15	34	19	846	33.0	-209399.0	1703.0	78493.0
27	15	34	19	846	34.0	-209252.0	1681.0	78631.0
27	15	34	19	847	35.0	-209173.0	1633.0	78152.0
27	15	34	19	848	36.0	-208213.0	1612.0	77831.0
27	15	34	19	848	37.0	-207019.0	1582.0	77839.0
27	15	34	19	849	38.0	-205675.0	1553.0	77470.0
27	15	34	19	850	39.0	-203875.0	1513.0	77104.0
27	15	34	19	850	40.0	-202298.0	1494.0	76411.0
27	15	34	19	851	41.0	-200516.0	1463.0	76466.0
27	15	34	19	851	43.0	-197122.0	1399.0	76681.0
27	15	34	19	852	44.0	-195116.0	1352.0	76932.0
27	15	34	19	853	45.0	-193275.0	1316.0	76603.0
27	15	34	19	853	46.0	-191536.0	1301.0	76788.0
27	15	34	19	854	47.0	-189486.0	1281.0	77203.0
27	15	34	19	854	48.0	-187481.0	1229.0	76923.0
27	15	34	19	887	49.0	-185679.0	1187.0	76133.0
27	15	34	19	888	50.0	-183752.0	1159.0	75289.0
27	15	34	19	888	51.0	-181890.0	1121.0	74649.0
27	15	34	19	889	52.0	-179744.0	1095.0	74770.0
27	15	34	19	889	53.0	-177161.0	1066.0	74621.0
27	15	34	19	890	54.0	-174690.0	1014.0	74621.0
27	15	34	19	891	55.0	-173157.0	979.0	74759.0
27	15	34	19	933	56.0	-171996.0	954.0	74346.0
27	15	34	19	934	57.0	-171628.0	933.0	74309.0
27	15	34	19	934	58.0	-172449.0	902.0	73640.0
27	15	34	19	935	59.0	-174045.0	854.0	73360.0
27	15	34	19	936	60.0	-176127.0	804.0	73013.0
27	15	34	19	936	61.0	-179184.0	768.0	72878.0
27	15	34	19	977	62.0	-183263.0	718.0	72642.0
27	15	34	19	978	63.0	-187771.0	693.0	72452.0
27	15	34	19	978	65.0	-197356.0	609.0	71453.0
27	15	34	19	979	66.0	-201923.0	565.0	70827.0
27	15	34	19	980	67.0	-205447.0	547.0	69665.0
27	15	34	19	980	68.0	-208362.0	504.0	67947.0
27	15	34	19	981	69.0	-211187.0	457.0	66459.0
27	15	34	20	22	70.0	-213672.0	406.0	65736.0
27	15	34	20	23	71.0	-215667.0	377.0	66498.0
27	15	34	20	24	72.0	-217277.0	344.0	69765.0
27	15	34	20	24	88.0	-222409.0	-300.0	77997.0
27	15	34	20	25	89.0	-223004.0	-351.0	73411.0
27	15	34	20	26	90.0	-224021.0	-363.0	70598.0
27	15	34	20	26	91.0	-225471.0	-394.0	68466.0
27	15	34	20	27	92.0	-227286.0	-441.0	66031.0
27	15	34	20	27	93.0	-228257.0	-474.0	64057.0
27	15	34	20	28	110.0	-265574.0	-1137.0	50319.0
27	15	34	20	29	111.0	-265341.0	-1184.0	49555.0
27	15	34	20	68	112.0	-250590.0	-1222.0	48733.0
27	15	34	20	69	113.0	-222392.0	-1259.0	47858.0
27	15	34	20	69	114.0	-190477.0	-1283.0	47470.0
27	15	34	20	70	115.0	-163633.0	-1325.0	47580.0
27	15	34	20	71	116.0	-148887.0	-1385.0	47569.0
27	15	34	20	71	133.0	-206273.0	-2057.0	39051.0
27	15	34	20	72	134.0	-205606.0	-2105.0	38364.0
27	15	34	20	73	135.0	-206052.0	-2130.0	38015.0
27	15	34	20	73	136.0	-207856.0	-2163.0	37858.0
27	15	34	20	74	137.0	-209602.0	-2217.0	37751.0
27	15	34	20	74	138.0	-210240.0	-2267.0	37765.0
27	15	34	20	75	139.0	-210581.0	-2311.0	37776.0
27	15	34	20	76	140.0	-210372.0	-2341.0	37239.0
27	15	34	20	76	141.0	-209290.0	-2394.0	37096.0
27	15	34	20	77	142.0	-206515.0	-2449.0	36833.0
27	15	34	20	78	143.0	-202785.0	-2490.0	36621.0
27	15	34	20	78	155.0	-188599.0	-3039.0	35551.0
27	15	34	20	79	156.0	-190311.0	-3072.0	35573.0
27	15	34	20	112	157.0	-191898.0	-3106.0	35705.0
27	15	34	20	113	158.0	-193189.0	-3156.0	36122.0
27	15	34	20	158	159.0	-194482.0	-3199.0	35820.0
27	15	34	20	159	160.0	-195692.0	-3249.0	35307.0
27	15	34	20	159	161.0	-197076.0	-3303.0	34994.0
27	15	34	20	160	162.0	-198139.0	-3330.0	34893.0
27	15	34	20	161	163.0	-198696.0	-3371.0	34096.0
27	15	34	20	161	164.0	-199263.0	-3421.0	33116.0
27	15	34	20	162	165.0	-199472.0	-3465.0	32666.0
27	15	34	20	202	166.0	-199604.0	-3509.0	32494.0
27	15	34	20	203	167.0	-200066.0	-3552.0	32039.0
27	15	34	20	204	168.0	-200667.0	-3599.0	31649.0
27	15	34	20	204	169.0	-201342.0	-3636.0	30952.0
27	15	34	20	205	170.0	-202169.0	-3676.0	30264.0
27	15	34	20	206	171.0	-203209.0	-3702.0	30128.0
27	15	34	20	207	177.0	-201849.0	-3887.0	29863.0
27	15	34	20	208	178.0	-200486.0	-3914.0	29836.0
27	15	34	20	208	179.0	-199607.0	-3932.0	29549.0
27	15	34	20	209	200.0	-184654.0	-3458.0	24718.0
27	15	34	20	210	201.0	-183231.0	-3383.0	24744.0
27	15	34	20	211	202.0	-182256.0	-3302.0	24767.0
27	15	34	20	211	203.0	-181509.0	-3231.0	25211.0
27	15	34	20	212	204.0	-180642.0	-3149.0	25143.0
27	15	34	20	213	205.0	-180180.0	-3099.0	24936.0
27	15	34	20	214	206.0	-180059.0	-3012.0	25227.0
27	15	34	20	214	222.0	-215056.0	-1600.0	32796.0
27	15	34	20	215	223.0	-217938.0	-1522.0	32920.0
27	15	34	20	216	224.0	-219615.0	-1423.0	33016.0
27	15	34	20	216	225.0	-221150.0	-1321.0	32983.0
27	15	34	20	217	226.0	-222466.0	-1236.0	33117.0
27	15	34	20	218	227.0	-223469.0	-1149.0	33705.0
27	15	34	20	218	228.0	-224602.0	-1075.0	33974.0
27	15	34	20	248	229.0	-224804.0	-983.0	33526.0
27	15	34	20	248	230.0	-224342.0	-895.0	33815.0
27	15	34	20	249	231.0	-223370.0	-827.0	34133.0
27	15	34	20	250	232.0	-221639.0	-741.0	34151.0
27	15	34	20	250	233.0	-219563.0	-638.0	33810.0
27	15	34	20	251	234.0	-217079.0	-547.0	33773.0
27	15	34	20	252	235.0	-214219.0	-451.0	34231.0
27	15	34	20	252	236.0	-211652.0	-381.0	34558.0
27	15	34	20	253	237.0	-209269.0	-297.0	34831.0
27	15	34	20	254	238.0	-206596.0	-209.0	34739.0
27	15	34	20	254	239.0	-203532.0	-120.0	34142.0
27	15	34	20	255	240.0	-200581.0	-33.0	33661.0
27	15	34	20	255	241.0	-197655.0	46.0	33158.0
27	15	34	20	256	242.0	-194535.0	124.0	32594.0
27	15	34	20	257	243.0	-191027.0	190.0	32836.0
27	15	34	20	257	245.0	-184438.0	378.0	32248.0
27	15	34	20	258	246.0	-179589.0	444.0	31745.0
27	15	34	20	259	247.0	-171777.0	542.0	31453.0
27	15	34	20	259	248.0	-160509.0	616.0	30930.0
27	15	34	20	260	249.0	-151243.0	705.0	30591.0
27	15	34	20	260	250.0	-154290.0	780.0	30356.0
27	15	34	20	293	251.0	-167341.0	859.0	30276.0
27	15	34	20	294	252.0	-182953.0	945.0	29929.0
27	15	34	20	294	253.0	-193403.0	1026.0	29396.0
27	15	34	20	295	254.0	-197334.0	1121.0	25145.0
27	15	34	20	295	255.0	-196624.0	1199.0	20186.0
27	15	34	20	296	0.0	-193071.0	1279.0	18213.0
27	15	34	20	297	1.0	-190537.0	1354.0	17926.0
27	15	34	20	337	2.0	-189748.0	1449.0	17984.0
27	15	34	20	338	3.0	-189154.0	1528.0	18153.0
27	15	34	20	338	4.0	-190216.0	1624.0	20690.0
27	15	34	20	339	5.0	-192562.0	1681.0	23958.0
27	15	34	20	340	6.0	-195802.0	1763.0	25256.0
27	15	34	20	340	7.0	-199835.0	1849.0	26114.0
27	15	34	20	341	8.0	-204629.0	1916.0	26383.0
27	15	34	20	429	9.0	-210167.0	1994.0	26779.0
27	15	34	20	430	11.0	-223832.0	2138.0	26881.0
27	15	34	20	431	12.0	-230019.0	2212.0	26861.0
27	15	34	20	431	13.0	-234626.0	2289.0	26286.0
27	15	34	20	432	14.0	-237367.0	2380.0	25602.0
27	15	34	20	433	15.0	-238242.0	2438.0	25829.0
27	15	34	20	433	16.0	-236941.0	2494.0	25963.0
27	15	34	20	434	17.0	-233291.0	2576.0	26433.0
27	15	34	20	435	18.0	-228454.0	2646.0	25833.0
27	15	34	20	435	34.0	-202862.0	3539.0	17548.0
27	15	34	20	436	35.0	-201652.0	3594.0	17321.0
27	15	34	20	436	36.0	-200289.0	3628.0	17993.0
27	15	34	20	437	37.0	-198996.0	3661.0	18170.0
27	15	34	20	437	38.0	-198173.0	3697.0	17647.0
27	15	34	20	472	39.0	-197181.0	3733.0	17688.0
27	15	34	20	473	40.0	-196638.0	3742.0	17831.0
27	15	34	20	473	79.0	-176381.0	3709.0	15586.0
27	15	34	20	474	80.0	-176184.0	3703.0	15575.0
27	15	34	20	475	81.0	-176450.0	3695.0	16379.0
27	15	34	20	475	82.0	-176816.0	3658.0	16178.0
27	15	34	20	517	83.0	-177492.0	3643.0	15784.0
27	15	34	20	518	84.0	-178704.0	3623.0	15424.0
27	15	34	20	518	85.0	-179921.0	3609.0	15649.0
27	15	34	20	519	86.0	-181152.0	3599.0	15934.0
27	15	34	20	520	87.0	-182999.0	3569.0	16083.0
27	15	34	20	521	88.0	-185266.0	3541.0	16054.0
27	15	34	20	521	89.0	-188117.0	3538.0	16249.0
27	15	34	20	522	90.0	-191940.0	3511.0	16172.0
27	15	34	20	523	91.0	-196267.0	3496.0	16044.0
27	15	34	20	524	101.0	-217561.0	3282.0	16552.0
27	15	34	20	525	102.0	-216161.0	3281.0	16024.0
27	15	34	20	526	103.0	-214237.0	3251.0	16016.0
27	15	34	20	526	104.0	-212364.0	3244.0	16816.0
27	15	34	20	527	105.0	-210839.0	3214.0	17063.0
27	15	34	20	528	106.0	-209761.0	3213.0	16473.0
27	15	34	20	528	123.0	-181012.0	2717.0	15106.0
27	15	34	20	529	124.0	-180684.0	2689.0	15064.0
27	15	34	20	529	125.0	-180877.0	2668.0	15291.0
27	15	34	20	530	126.0	-181639.0	2642.0	15601.0
27	15	34	20	531	127.0	-182240.0	2603.0	15379.0
27	15	34	20	531	128.0	-182496.0	2567.0	15186.0
27	15	34	20	532	129.0	-182810.0	2542.0	14669.0
27	15	34	20	562	130.0	-183415.0	2510.0	13992.0
27	15	34	20	563	131.0	-184349.0	2473.0	13691.0
27	15	34	20	564	132.0	-185526.0	2432.0	13608.0
27	15	34	20	564	133.0	-186504.0	2388.0	13084.0
27	15	34	20	565	134.0	-187567.0	2369.0	12713.0
27	15	34	20	566	135.0	-188564.0	2334.0	13089.0
27	15	34	20	566	136.0	-189559.0	2303.0	13136.0
27	15	34	20	567	137.0	-191170.0	2251.0	12676.0
27	15	34	20	568	138.0	-192797.0	2204.0	12316.0
27	15	34	20	568	139.0	-194334.0	2169.0	11567.0
27	15	34	20	569	140.0	-196251.0	2138.0	11049.0
27	15	34	20	570	141.0	-197974.0	2096.0	10913.0
27	15	34	20	570	142.0	-199387.0	2049.0	10266.0
27	15	34	20	571	143.0	-200631.0	2024.0	10774.0
27	15	34	20	572	144.0	-201724.0	1984.0	11645.0
27	15	34	20	572	146.0	-203317.0	1901.0	12708.0
27	15	34	20	573	147.0	-203027.0	1871.0	12805.0
27	15	34	20	574	148.0	-202252.0	1828.0	12801.0
27	15	34	20	574	149.0	-201255.0	1772.0	13324.0
27	15	34	20	575	150.0	-200632.0	1738.0	12786.0
27	15	34	20	576	151.0	-200821.0	1694.0	12341.0
27	15	34	20	606	152.0	-201724.0	1658.0	12474.0
27	15	34	20	653	153.0	-203260.0	1628.0	12456.0
27	15	34	20	654	154.0	-204206.0	1601.0	11569.0
27	15	34	20	655	155.0	-203882.0	1558.0	11742.0
27	15	34	20	655	156.0	-202631.0	1526.0	11809.0
27	15	34	20	656	157.0	-200628.0	1468.0	11475.0
27	15	34	20	657	158.0	-198120.0	1435.0	11199.0
27	15	34	20	657	159.0	-195897.0	1408.0	10419.0
27	15	34	20	698	160.0	-194292.0	1362.0	10071.0
27	15	34	20	699	161.0	-192642.0	1309.0	9760.0
27	15	34	20	699	162.0	-191470.0	1279.0	9367.0
27	15	34	20	700	163.0	-191082.0	1241.0	9650.0
27	15	34	20	701	164.0	-190894.0	1191.0	9673.0
27	15	34	20	701	165.0	-190916.0	1169.0	8764.0
27	15	34	20	743	166.0	-191006.0	1126.0	8138.0
27	15	34	20	744	168.0	-191220.0	1028.0	7051.0
27	15	34	20	745	190.0	-218256.0	180.0	6228.0
27	15	34	20	745	191.0	-216502.0	128.0	5473.0
27	15	34	20	746	192.0	-214786.0	79.0	4717.0
27	15	34	20	747	193.0	-213404.0	44.0	4851.0
27	15	34	20	747	194.0	-212047.0	6.0	4748.0
27	15	34	20	788	195.0	-210744.0	-45.0	4203.0
27	15	34	20	789	196.0	-209034.0	-78.0	4243.0
27	15	34	20	790	197.0	-206906.0	-144.0	5094.0
27	15	34	20	791	213.0	-187351.0	-874.0	3621.0
27	15	34	20	791	214.0	-187153.0	-923.0	3463.0
27	15	34	20	792	215.0	-186419.0	-984.0	3874.0
27	15	34	20	793	216.0	-185601.0	-1027.0	3809.0
27	15	34	20	793	217.0	-185067.0	-1079.0	3693.0
27	15	34	20	794	218.0	-184546.0	-1117.0	3239.0
27	15	34	20	795	236.0	-202646.0	-1954.0	43.0
27	15	34	20	795	237.0	-204684.0	-1992.0	-441.0
27	15	34	20	833	238.0	-206872.0	-2017.0	-246.0
27	15	34	20	833	239.0	-209591.0	-2083.0	-36.0
27	15	34	20	834	240.0	-212328.0	-2134.0	-776.0
27	15	34	20	857	241.0	-215743.0	-2176.0	-1916.0
27	15	34	20	858	242.0	-219461.0	-2230.0	-1901.0
27	15	34	20	859	2.0	-214120.0	-2952.0	36578.0
27	15	34	20	859	3.0	-210384.0	-3018.0	37426.0
27	15	34	20	860	4.0	-206904.0	-3063.0	36576.0
27	15	34	20	869	5.0	-203896.0	-3096.0	33121.0
27	15	34	20	873	6.0	-201356.0	-3137.0	30121.0
27	15	34	20	874	7.0	-199674.0	-3203.0	26254.0
27	15	34	20	874	8.0	-199166.0	-3259.0	22749.0
27	15	34	20	875	9.0	-200181.0	-3305.0	20212.0
27	15	34	20	876	10.0	-202330.0	-3350.0	15019.0
27	15	34	20	876	11.0	-205331.0	-3394.0	7216.0
27	15	34	20	877	24.0	-146719.0	-4002.0	-14382.0
27	15	34	20	878	25.0	-152052.0	-4055.0	-14784.0
27	15	34	20	878	26.0	-166306.0	-4103.0	-15390.0
27	15	34	20	879	27.0	-186309.0	-4122.0	-14630.0
27	15	34	20	879	28.0	-207751.0	-4178.0	-13997.0
27	15	34	20	880	29.0	-228586.0	-4237.0	-14239.0
27	15	34	20	881	30.0	-245206.0	-4283.0	-13982.0
27	15	34	20	881	31.0	-253493.0	-4328.0	-14187.0
27	15	34	20	882	32.0	-250662.0	-4385.0	-13941.0
27	15	34	20	882	33.0	-252131.0	-4419.0	-13636.0
27	15	34	20	883	34.0	-253366.0	-4449.0	-13087.0
27	15	34	20	884	35.0	-239587.0	-4491.0	-13361.0
27	15	34	20	884	36.0	-213632.0	-4537.0	-13083.0
27	15	34	20	885	37.0	-184849.0	-4586.0	-13241.0
27	15	34	20	885	38.0	-161669.0	-4642.0	-13037.0
27	15	34	20	886	39.0	-150666.0	-4691.0	-13265.0
27	15	34	20	886	40.0	-151167.0	-4722.0	-13639.0
27	15	34	20	887	41.0	-159154.0	-4772.0	-14098.0
27	15	34	20	888	42.0	-171600.0	-4818.0	-14534.0
27	15	34	20	888	43.0	-186904.0	-4856.0	-14555.0
27	15	34	20	889	47.0	-232637.0	-5007.0	-14647.0
27	15	34	20	889	48.0	-231181.0	-5057.0	-14882.0
27	15	34	20	890	49.0	-226769.0	-5101.0	-15020.0
27	15	34	20	890	50.0	-221373.0	-5148.0	-15082.0
27	15	34	20	891	51.0	-216648.0	-5182.0	-15036.0
27	15	34	20	891	52.0	-213008.0	-5234.0	-15226.0
27	15	34	20	968	53.0	-210254.0	-5280.0	-15461.0
27	15	34	20	969	54.0	-208126.0	-5319.0	-14951.0
27	15	34	20	969	55.0	-206161.0	-5366.0	-15570.0
27	15	34	20	970	56.0	-203978.0	-5401.0	-17621.0
27	15	34	20	970	57.0	-202034.0	-5441.0	-18199.0
27	15	34	20	971	58.0	-200342.0	-5479.0	-17548.0
27	15	34	20	971	59.0	-198874.0	-5529.0	-17516.0
27	15	34	20	972	60.0	-197104.0	-5571.0	-17096.0
27	15	34	20	973	61.0	-195246.0	-5613.0	-16710.0
27	15	34	20	973	62.0	-193046.0	-5647.0	-16632.0
27	15	34	20	974	63.0	-190399.0	-5701.0	-16833.0
27	15	34	20	974	64.0	-187594.0	-5754.0	-16936.0
27	15	34	20	975	65.0	-184609.0	-5791.0	-16927.0
27	15	34	20	975	66.0	-180904.0	-5839.0	-17108.0
27	15	34	20	976	67.0	-176723.0	-5886.0	-16798.0
27	15	34	20	977	92.0	-173243.0	-7004.0	-9982.0
27	15	34	20	977	93.0	-178294.0	-7029.0	-12519.0
27	15	34	20	978	94.0	-183422.0	-7045.0	-14889.0
27	15	34	20	978	95.0	-189199.0	-7087.0	-15485.0
27	15	34	20	979	96.0	-195550.0	-7112.0	-14451.0
27	15	34	20	979	97.0	-201693.0	-7141.0	-14739.0
27	15	34	21	12	98.0	-207958.0	-7159.0	-13903.0
27	15	34	21	13	99.0	-214849.0	-7174.0	-13390.0
27	15	34	21	13	100.0	-221896.0	-7199.0	-13223.0
27	15	34	21	14	101.0	-228659.0	-7202.0	-13421.0
27	15	34	21	14	102.0	-235303.0	-7227.0	-13076.0
27	15	34	21	15	103.0	-242242.0	-7245.0	-13221.0
27	15	34	21	16	104.0	-249257.0	-7269.0	-13647.0
27	15	34	21	58	105.0	-255269.0	-7260.0	-13525.0
27	15	34	21	58	106.0	-260741.0	-7244.0	-13346.0
27	15	34	21	59	107.0	-265057.0	-7251.0	-12926.0
27	15	34	21	60	108.0	-267899.0	-7253.0	-12857.0
27	15	34	21	60	109.0	-269075.0	-7231.0	-12629.0
27	15	34	21	61	110.0	-269726.0	-7225.0	-12167.0
27	15	34	21	61	111.0	-269685.0	-7202.0	-11573.0
27	15	34	21	102	112.0	-269076.0	-7180.0	-11339.0
27	15	34	21	103	114.0	-265249.0	-7126.0	-11811.0
27	15	34	21	103	115.0	-262958.0	-7091.0	-12362.0
27	15	34	21	104	116.0	-260069.0	-7065.0	-13607.0
27	15	34	21	104	117.0	-256786.0	-7015.0	-14102.0
27	15	34	21	105	118.0	-253099.0	-6957.0	-14647.0
27	15	34	21	105	119.0	-248507.0	-6912.0	-14757.0
27	15	34	21	147	120.0	-243586.0	-6862.0	-14823.0
27	15	34	21	148	121.0	-238597.0	-6814.0	-14772.0
27	15	34	21	149	137.0	-173381.0	-5500.0	-13816.0
27	15	34	21	149	138.0	-173658.0	-5411.0	-13618.0
27	15	34	21	150	139.0	-174692.0	-5312.0	-12729.0
27	15	34	21	150	140.0	-176356.0	-5202.0	-11131.0
27	15	34	21	151	141.0	-178525.0	-5109.0	-10927.0
27	15	34	21	151	142.0	-181801.0	-5002.0	-11132.0
27	15	34	21	152	143.0	-185528.0	-4906.0	-10571.0
27	15	34	21	153	159.0	-205361.0	-3294.0	-5857.0
27	15	34	21	193	160.0	-203866.0	-3213.0	-5999.0
27	15	34	21	194	161.0	-201963.0	-3117.0	-6522.0
27	15	34	21	194	162.0	-199820.0	-3027.0	-6753.0
27	15	34	21	195	163.0	-198006.0	-2941.0	-7262.0
27	15	34	21	196	164.0	-196581.0	-2851.0	-7833.0
27	15	34	21	196	165.0	-194872.0	-2755.0	-7939.0
27	15	34	21	197	182.0	-176804.0	-1178.0	-9961.0
27	15	34	21	197	183.0	-171944.0	-1094.0	-10161.0
27	15	34	21	198	184.0	-168957.0	-1001.0	-10672.0
27	15	34	21	199	185.0	-167897.0	-904.0	-10659.0
27	15	34	21	199	186.0	-168971.0	-828.0	-11564.0
27	15	34	21	200	187.0	-172521.0	-734.0	-12770.0
27	15	34	21	200	188.0	-178502.0	-635.0	-13252.0
27	15	34	21	238	189.0	-186646.0	-555.0	-13404.0
27	15	34	21	238	190.0	-195261.0	-474.0	-13605.0
27	15	34	21	239	191.0	-203661.0	-391.0	-14060.0
27	15	34	21	240	204.0	-227307.0	624.0	-21927.0
27	15	34	21	240	205.0	-226725.0	683.0	-20598.0
27	15	34	21	241	206.0	-226574.0	746.0	-19887.0
27	15	34	21	242	207.0	-226295.0	831.0	-19504.0
27	15	34	21	242	208.0	-225697.0	877.0	-19507.0
27	15	34	21	243	209.0	-225026.0	932.0	-19679.0
27	15	34	21	243	210.0	-224488.0	991.0	-19746.0
27	15	34	21	244	211.0	-223526.0	1043.0	-18879.0
27	15	34	21	245	212.0	-222338.0	1097.0	-17729.0
27	15	34	21	245	213.0	-221223.0	1154.0	-17097.0
27	15	34	21	246	214.0	-220232.0	1208.0	-14687.0
27	15	34	21	246	215.0	-218981.0	1270.0	-12134.0
27	15	34	21	247	216.0	-217075.0	1316.0	-10729.0
27	15	34	21	248	226.0	-180578.0	1656.0	-6882.0
27	15	34	21	248	227.0	-178007.0	1678.0	-5987.0
27	15	34	21	249	228.0	-175542.0	1689.0	-5157.0
27	15	34	21	250	229.0	-173234.0	1701.0	-5335.0
27	15	34	21	250	230.0	-170895.0	1723.0	-5929.0
27	15	34	21	251	231.0	-169298.0	1748.0	-6283.0
27	15	34	21	282	232.0	-168207.0	1768.0	-6337.0
27	15	34	21	283	233.0	-167990.0	1786.0	-6386.0
27	15	34	21	283	234.0	-169251.0	1797.0	-6058.0
27	15	34	21	284	235.0	-172324.0	1809.0	-6699.0
27	15	34	21	285	236.0	-176808.0	1826.0	-7298.0
27	15	34	21	285	237.0	-181396.0	1836.0	-7217.0
27	15	34	21	286	238.0	-185457.0	1849.0	-7372.0
27	15	34	21	286	239.0	-188661.0	1859.0	-7449.0
27	15	34	21	287	240.0	-191265.0	1867.0	-8125.0
27	15	34	21	288	241.0	-193722.0	1859.0	-8255.0
27	15	34	21	288	242.0	-195714.0	1863.0	-7786.0
27	15	34	21	289	243.0	-197661.0	1870.0	-8015.0
27	15	34	21	289	244.0	-199829.0	1859.0	-8945.0
27	15	34	21	290	245.0	-201638.0	1874.0	-8847.0
27	15	34	21	291	246.0	-202912.0	1891.0	-8173.0
27	15	34	21	291	249.0	-206167.0	1894.0	-8667.0
27	15	34	21	292	250.0	-206210.0	1889.0	-9551.0
27	15	34	21	293	251.0	-205992.0	1891.0	-9338.0
27	15	34	21	293	252.0	-205761.0	1898.0	-9858.0
27	15	34	21	294	253.0	-205777.0	1903.0	-9917.0
27	15	34	21	294	254.0	-205970.0	1908.0	-9901.0
27	15	34	21	328	255.0	-206602.0	1896.0	-10239.0
27	15	34	21	328	0.0	-207888.0	1890.0	-10761.0
27	15	34	21	329	1.0	-209311.0	1874.0	-10934.0
27	15	34	21	329	2.0	-210643.0	1868.0	-10525.0
27	15	34	21	330	3.0	-212111.0	1861.0	-9941.0
27	15	34	21	331	4.0	-212916.0	1838.0	-9507.0
27	15	34	21	331	5.0	-212585.0	1839.0	-9758.0
27	15	34	21	373	6.0	-211464.0	1850.0	-10062.0
27	15	34	21	374	7.0	-210303.0	1838.0	-10680.0
27	15	34	21	419	8.0	-208903.0	1814.0	-10329.0
27	15	34	21	420	9.0	-207197.0	1804.0	-9429.0
27	15	34	21	421	10.0	-205660.0	1806.0	-9326.0
27	15	34	21	422	11.0	-204574.0	1789.0	-9066.0
27	15	34	21	422	12.0	-203639.0	1763.0	-8690.0
27	15	34	21	423	13.0	-202941.0	1764.0	-8715.0
27	15	34	21	424	15.0	-202462.0	1744.0	-8320.0
27	15	34	21	424	16.0	-202424.0	1737.0	-8225.0
27	15	34	21	425	17.0	-202677.0	1724.0	-8156.0
27	15	34	21	426	18.0	-203031.0	1709.0	-8614.0
27	15	34	21	427	19.0	-203088.0	1718.0	-8329.0
27	15	34	21	429	20.0	-202847.0	1704.0	-7590.0
27	15	34	21	429	21.0	-202607.0	1679.0	-7621.0
27	15	34	21	430	22.0	-202529.0	1671.0	-7859.0
27	15	34	21	431	38.0	-197936.0	1430.0	-13029.0
27	15	34	21	431	60.0	-212741.0	886.0	-15456.0
27	15	34	21	432	61.0	-212726.0	866.0	-15300.0
27	15	34	21	432	62.0	-212751.0	833.0	-15601.0
27	15	34	21	433	63.0	-212539.0	788.0	-15467.0
27	15	34	21	433	64.0	-212381.0	770.0	-14900.0
27	15	34	21	434	65.0	-212820.0	739.0	-14516.0
27	15	34	21	464	66.0	-213397.0	698.0	-14893.0
27	15	34	21	465	67.0	-213931.0	675.0	-15222.0
27	15	34	21	465	68.0	-214704.0	654.0	-14292.0
27	15	34	21	466	69.0	-215131.0	631.0	-14188.0
27	15	34	21	467	70.0	-214904.0	596.0	-14082.0
27	15	34	21	467	71.0	-214018.0	568.0	-13567.0
27	15	34	21	468	72.0	-213249.0	514.0	-13298.0
27	15	34	21	468	73.0	-212327.0	479.0	-13246.0
27	15	34	21	469	74.0	-210851.0	444.0	-13489.0
27	15	34	21	470	75.0	-209582.0	403.0	-13887.0
27	15	34	21	470	76.0	-208082.0	379.0	-14204.0
27	15	34	21	471	77.0	-205881.0	338.0	-14291.0
27	15	34	21	472	78.0	-203527.0	312.0	-14197.0
27	15	34	21	472	79.0	-201288.0	286.0	-14104.0
27	15	34	21	473	80.0	-198711.0	249.0	-14086.0
27	15	34	21	473	82.0	-192874.0	172.0	-13137.0
27	15	34	21	474	83.0	-189264.0	129.0	-12737.0
27	15	34	21	474	84.0	-185564.0	91.0	-13110.0
27	15	34	21	475	85.0	-181965.0	69.0	-12714.0
27	15	34	21	476	86.0	-179022.0	24.0	-11664.0
27	15	34	21	476	87.0	-176963.0	-22.0	-12010.0
27	15	34	21	477	88.0	-175954.0	-57.0	-12345.0
27	15	34	21	507	89.0	-175751.0	-92.0	-12791.0
27	15	34	21	508	90.0	-175812.0	-100.0	-13156.0
27	15	34	21	509	91.0	-176211.0	-116.0	-12494.0
27	15	34	21	509	92.0	-176469.0	-154.0	-11384.0
27	15	34	21	510	93.0	-176496.0	-192.0	-11209.0
27	15	34	21	511	94.0	-176742.0	-239.0	-12108.0
27	15	34	21	511	95.0	-176879.0	-272.0	-13483.0
27	15	34	21	512	96.0	-177265.0	-303.0	-14707.0
27	15	34	21	512	97.0	-178311.0	-332.0	-15907.0
27	15	34	21	513	98.0	-180071.0	-362.0	-15852.0
27	15	34	21	514	99.0	-182811.0	-401.0	-14801.0
27	15	34	21	514	100.0	-186399.0	-427.0	-14187.0
27	15	34	21	515	101.0	-190177.0	-468.0	-14165.0
27	15	34	21	516	102.0	-194234.0	-513.0	-13754.0
27	15	34	21	516	103.0	-198058.0	-552.0	-13667.0
27	15	34	21	517	105.0	-204127.0	-644.0	-14524.0
27	15	34	21	517	106.0	-206302.0	-662.0	-14796.0
27	15	34	21	518	107.0	-207980.0	-686.0	-15144.0
27	15	34	21	519	108.0	-209492.0	-735.0	-15548.0
27	15	34	21	519	109.0	-210065.0	-784.0	-15586.0
27	15	34	21	520	110.0	-210470.0	-825.0	-15436.0
27	15	34	21	552	111.0	-211231.0	-854.0	-15652.0
27	15	34	21	553	112.0	-212621.0	-873.0	-15638.0
27	15	34	21	554	113.0	-214538.0	-908.0	-15107.0
27	15	34	21	597	114.0	-216707.0	-942.0	-15314.0
27	15	34	21	598	115.0	-219004.0	-1002.0	-15722.0
27	15	34	21	599	116.0	-221007.0	-1046.0	-15475.0
27	15	34	21	600	117.0	-222758.0	-1082.0	-14912.0
27	15	34	21	601	118.0	-223822.0	-1119.0	-14512.0
27	15	34	21	601	119.0	-223809.0	-1167.0	-14277.0
27	15	34	21	643	120.0	-223086.0	-1206.0	-14032.0
27	15	34	21	643	121.0	-222084.0	-1252.0	-13971.0
27	15	34	21	644	122.0	-220794.0	-1291.0	-13756.0
27	15	34	21	645	123.0	-219364.0	-1323.0	-13826.0
27	15	34	21	645	124.0	-217785.0	-1370.0	-14144.0
27	15	34	21	646	125.0	-216240.0	-1406.0	-14276.0
27	15	34	21	647	127.0	-212682.0	-1471.0	-14840.0
27	15	34	21	647	128.0	-211066.0	-1516.0	-14012.0
27	15	34	21	648	129.0	-209586.0	-1552.0	-13877.0
27	15	34	21	648	150.0	-185539.0	-2320.0	-7152.0
27	15	34	21	649	151.0	-184447.0	-2366.0	-7317.0
27	15	34	21	650	152.0	-183365.0	-2398.0	-7332.0
27	15	34	21	650	153.0	-182689.0	-2431.0	-7175.0
27	15	34	21	651	154.0	-182012.0	-2469.0	-7787.0
27	15	34	21	652	155.0	-181471.0	-2507.0	-8632.0
27	15	34	21	652	172.0	-206869.0	-3134.0	25712.0
27	15	34	21	653	173.0	-206216.0	-3167.0	22658.0
27	15	34	21	653	174.0	-206192.0	-3209.0	19741.0
27	15	34	21	654	175.0	-207308.0	-3247.0	16310.0
27	15	34	21	655	176.0	-209247.0	-3283.0	13560.0
27	15	34	21	655	177.0	-211449.0	-3307.0	10879.0
27	15	34	21	696	178.0	-213944.0	-3332.0	7514.0
27	15	34	21	697	179.0	-216521.0	-3376.0	3656.0
27	15	34	21	698	180.0	-219720.0	-3408.0	693.0
27	15	34	21	698	181.0	-223346.0	-3444.0	-1792.0
27	15	34	21	699	182.0	-227029.0	-3476.0	-4342.0
27	15	34	21	700	183.0	-230264.0	-3516.0	-6425.0
27	15	34	21	700	184.0	-232274.0	-3548.0	-8109.0
27	15	34	21	701	185.0	-231927.0	-3594.0	-9596.0
27	15	34	21	701	186.0	-226416.0	-3644.0	-10711.0
27	15	34	21	702	187.0	-214939.0	-3674.0	-11922.0
27	15	34	21	703	188.0	-199234.0	-3712.0	-13409.0
27	15	34	21	703	189.0	-180010.0	-3718.0	-12590.0
27	15	34	21	704	190.0	-162351.0	-3750.0	-11587.0
27	15	34	21	704	191.0	-150374.0	-3804.0	-11542.0
27	15	34	21	705	192.0	-145477.0	-3843.0	-11438.0
27	15	34	21	705	194.0	-161144.0	-3907.0	-11314.0
27	15	34	21	706	195.0	-178832.0	-3927.0	-11380.0
27	15	34	21	706	196.0	-199579.0	-3980.0	-11895.0
27	15	34	21	707	197.0	-220275.0	-4032.0	-12307.0
27	15	34	21	708	198.0	-239432.0	-4049.0	-12732.0
27	15	34	21	708	199.0	-251595.0	-4080.0	-12539.0
27	15	34	21	709	200.0	-259049.0	-4129.0	-12384.0
27	15	34	21	733	201.0	-267104.0	-4137.0	-12317.0
27	15	34	21	733	202.0	-264341.0	-4174.0	-12464.0
27	15	34	21	734	203.0	-243417.0	-4235.0	-11874.0
27	15	34	21	735	204.0	-210559.0	-4279.0	-11881.0
27	15	34	21	735	205.0	-177739.0	-4313.0	-11739.0
27	15	34	21	736	206.0	-153699.0	-4338.0	-11936.0
27	15	34	21	737	207.0	-141833.0	-4363.0	-12790.0
27	15	34	21	737	208.0	-140043.0	-4398.0	-12824.0
27	15	34	21	738	209.0	-144507.0	-4445.0	-12710.0
27	15	34	21	739	210.0	-153392.0	-4479.0	-12487.0
27	15	34	21	739	211.0	-166196.0	-4520.0	-12052.0
27	15	34	21	740	212.0	-181999.0	-4542.0	-12454.0
27	15	34	21	741	213.0	-197602.0	-4580.0	-12799.0
27	15	34	21	741	214.0	-209774.0	-4622.0	-12758.0
27	15	34	21	742	215.0	-216923.0	-4661.0	-12271.0
27	15	34	21	743	217.0	-217454.0	-4738.0	-12127.0
27	15	34	21	743	218.0	-213417.0	-4761.0	-11658.0
27	15	34	21	744	219.0	-208059.0	-4779.0	-11110.0
27	15	34	21	744	220.0	-202569.0	-4808.0	-11121.0
27	15	34	21	745	221.0	-196743.0	-4857.0	-11403.0
27	15	34	21	746	222.0	-191046.0	-4907.0	-11250.0
27	15	34	21	777	223.0	-186780.0	-4949.0	-10606.0
27	15	34	21	778	224.0	-184762.0	-4987.0	-10587.0
27	15	34	21	779	225.0	-185846.0	-5014.0	-10213.0
27	15	34	21	779	226.0	-188791.0	-5045.0	-10231.0
27	15	34	21	780	227.0	-192772.0	-5089.0	-10751.0
27	15	34	21	781	228.0	-196880.0	-5132.0	-11064.0
27	15	34	21	781	229.0	-200682.0	-5169.0	-10962.0
27	15	34	21	782	230.0	-203598.0	-5214.0	-10764.0
27	15	34	21	782	231.0	-205617.0	-5247.0	-11498.0
27	15	34	21	783	232.0	-206635.0	-5274.0	-12124.0
27	15	34	21	784	233.0	-206210.0	-5304.0	-12265.0
27	15	34	21	784	234.0	-204730.0	-5347.0	-12486.0
27	15	34	21	785	235.0	-202304.0	-5371.0	-12696.0
27	15	34	21	786	236.0	-198816.0	-5429.0	-12714.0
27	15	34	21	786	237.0	-194962.0	-5465.0	-12687.0
27	15	34	21	787	239.0	-188018.0	-5549.0	-11317.0
27	15	34	21	788	240.0	-186133.0	-5572.0	-10297.0
27	15	34	21	788	241.0	-185122.0	-5607.0	-10079.0
27	15	34	21	789	242.0	-184550.0	-5645.0	-9661.0
27	15	34	21	789	243.0	-184107.0	-5684.0	-10014.0
27	15	34	21	790	244.0	-184414.0	-5725.0	-9802.0
27	15	34	21	791	245.0	-185378.0	-5759.0	-9799.0
27	15	34	21	822	246.0	-186301.0	-5807.0	-9529.0
27	15	34	21	823	247.0	-187315.0	-5831.0	-9444.0
27	15	34	21	824	248.0	-188332.0	-5866.0	-9410.0
27	15	34	21	868	249.0	-189564.0	-5894.0	-8811.0
27	15	34	21	869	250.0	-190723.0	-5924.0	-8507.0
27	15	34	21	869	251.0	-191572.0	-5971.0	-7482.0
27	15	34	21	871	252.0	-192506.0	-6009.0	-6447.0
27	15	34	21	872	253.0	-193576.0	-6052.0	-5961.0
27	15	34	21	873	254.0	-194162.0	-6074.0	-6152.0
27	15	34	21	874	255.0	-194400.0	-6124.0	-6350.0
27	15	34	21	874	0.0	-194693.0	-6170.0	-5736.0
27	15	34	21	875	1.0	-194599.0	-6191.0	-5670.0
27	15	34	21	876	2.0	-194384.0	-6230.0	-6133.0
27	15	34	21	876	3.0	-194596.0	-6272.0	-6341.0
27	15	34	21	877	4.0	-195137.0	-6303.0	-6242.0
27	15	34	21	878	6.0	-197116.0	-6369.0	-6772.0
27	15	34	21	878	7.0	-198793.0	-6394.0	-6928.0
27	15	34	21	879	8.0	-200307.0	-6405.0	-6902.0
27	15	34	21	880	9.0	-201610.0	-6428.0	-7159.0
27	15	34	21	880	29.0	-213250.0	-6407.0	-4899.0
27	15	34	21	881	30.0	-212514.0	-6361.0	-5173.0
27	15	34	21	881	31.0	-211622.0	-6306.0	-5084.0
27	15	34	21	882	32.0	-211317.0	-6293.0	-4935.0
27	15	34	21	883	33.0	-210630.0	-6249.0	-4307.0
27	15	34	21	883	34.0	-209038.0	-6193.0	-3404.0
27	15	34	21	913	35.0	-207517.0	-6140.0	-2992.0
27	15	34	21	913	36.0	-206014.0	-6067.0	-3263.0
27	15	34	21	914	37.0	-204483.0	-6015.0	-3250.0
27	15	34	21	915	38.0	-203067.0	-5957.0	-2651.0
27	15	34	21	915	39.0	-202032.0	-5887.0	-2275.0
27	15	34	21	916	40.0	-201767.0	-5806.0	-1691.0
27	15	34	21	917	41.0	-201376.0	-5726.0	-1054.0
27	15	34	21	917	42.0	-200931.0	-5647.0	-352.0
27	15	34	21	918	43.0	-200617.0	-5578.0	565.0
27	15	34	21	919	44.0	-199932.0	-5497.0	1190.0
27	15	34	21	919	45.0	-199797.0	-5412.0	1684.0
27	15	34	21	920	46.0	-200234.0	-5317.0	1848.0
27	15	34	21	921	47.0	-200832.0	-5234.0	1426.0
27	15	34	21	921	48.0	-201152.0	-5153.0	1918.0
27	15	34	21	922	49.0	-200747.0	-5064.0	2458.0
27	15	34	21	923	51.0	-199592.0	-4882.0	1717.0
27	15	34	21	923	52.0	-198291.0	-4800.0	2589.0
27	15	34	21	924	53.0	-196966.0	-4691.0	3524.0
27	15	34	21	924	54.0	-196002.0	-4609.0	4023.0
27	15	34	21	925	55.0	-195827.0	-4515.0	4334.0
27	15	34	21	926	56.0	-196294.0	-4410.0	5001.0
27	15	34	21	957	57.0	-197465.0	-4327.0	5444.0
27	15	34	21	958	58.0	-198825.0	-4236.0	5668.0
27	15	34	21	980	59.0	-200012.0	-4157.0	5674.0
27	15	34	21	981	60.0	-200902.0	-4069.0	6002.0
27	15	34	21	981	61.0	-201208.0	-3969.0	7013.0
27	15	34	21	982	62.0	-201871.0	-3864.0	7703.0
27	15	34	21	983	63.0	-202581.0	-3776.0	8003.0
27	15	34	21	983	64.0	-203656.0	-3706.0	8484.0
27	15	34	21	984	65.0	-204851.0	-3614.0	9049.0
27	15	34	21	984	66.0	-205072.0	-3514.0	9678.0
27	15	34	21	985	67.0	-204837.0	-3416.0	10257.0
27	15	34	21	985	68.0	-204137.0	-3342.0	10656.0
27	15	34	21	986	69.0	-202884.0	-3240.0	10953.0
27	15	34	21	987	70.0	-201103.0	-3164.0	11124.0
27	15	34	21	987	71.0	-199109.0	-3083.0	11683.0
27	15	34	21	988	73.0	-197019.0	-2910.0	12316.0
27	15	34	21	989	74.0	-196804.0	-2841.0	12874.0
27	15	34	21	989	75.0	-196764.0	-2752.0	13517.0
27	15	34	21	990	76.0	-196961.0	-2652.0	13355.0
27	15	34	21	991	77.0	-197176.0	-2567.0	13546.0
27	15	34	21	991	78.0	-197449.0	-2483.0	14064.0
27	15	34	22	2	79.0	-197499.0	-2411.0	14687.0
27	15	34	22	26	80.0	-195827.0	-2333.0	14976.0
27	15	34	22	27	81.0	-191397.0	-2244.0	15724.0
27	15	34	22	27	82.0	-183159.0	-2151.0	16358.0
27	15	34	22	28	83.0	-173775.0	-2072.0	16878.0
27	15	34	22	29	84.0	-171984.0	-2000.0	17072.0
27	15	34	22	29	85.0	-184296.0	-1927.0	16783.0
27	15	34	22	30	86.0	-202192.0	-1851.0	16019.0
27	15	34	22	31	87.0	-218504.0	-1791.0	13981.0
27	15	34	22	31	88.0	-226652.0	-1691.0	11669.0
27	15	34	22	32	89.0	-229252.0	-1621.0	11159.0
27	15	34	22	32	90.0	-227762.0	-1549.0	10725.0
27	15	34	22	33	91.0	-223904.0	-1461.0	10674.0
27	15	34	22	34	92.0	-219511.0	-1382.0	10731.0
27	15	34	22	34	93.0	-213249.0	-1322.0	10864.0
27	15	34	22	35	96.0	-189239.0	-1116.0	11569.0
27	15	34	22	36	97.0	-181561.0	-1028.0	11632.0
27	15	34	22	36	98.0	-175441.0	-944.0	11784.0
27	15	34	22	37	99.0	-173239.0	-865.0	11364.0
27	15	34	22	38	100.0	-174557.0	-780.0	10689.0
27	15	34	22	38	101.0	-179235.0	-711.0	10799.0
27	15	34	22	93	102.0	-186623.0	-658.0	11543.0
27	15	34	22	94	103.0	-194456.0	-571.0	12223.0
27	15	34	22	95	104.0	-200864.0	-506.0	12338.0
27	15	34	22	96	105.0	-205571.0	-452.0	12587.0
27	15	34	22	96	106.0	-208144.0	-381.0	12958.0
27	15	34	22	97	107.0	-209500.0	-310.0	13493.0
27	15	34	22	98	108.0	-210092.0	-261.0	14158.0
27	15	34	22	99	109.0	-209552.0	-181.0	14280.0
27	15	34	22	99	110.0	-208349.0	-122.0	14635.0
27	15	34	22	100	111.0	-206814.0	-59.0	15401.0
27	15	34	22	101	112.0	-205275.0	22.0	16258.0
27	15	34	22	101	113.0	-204417.0	88.0	16748.0
27	15	34	22	102	114.0	-204157.0	151.0	17071.0
27	15	34	22	103	115.0	-204513.0	204.0	16933.0
27	15	34	22	103	116.0	-205656.0	256.0	17077.0
27	15	34	22	104	140.0	-208013.0	1224.0	23825.0
27	15	34	22	105	141.0	-206264.0	1239.0	23945.0
27	15	34	22	105	142.0	-203939.0	1257.0	24174.0
27	15	34	22	106	143.0	-201299.0	1252.0	24720.0
27	15	34	22	106	144.0	-198879.0	1260.0	24656.0
27	15	34	22	107	145.0	-196617.0	1288.0	24559.0
27	15	34	22	108	146.0	-194099.0	1285.0	24628.0
27	15	34	22	137	147.0	-191614.0	1289.0	25371.0
27	15	34	22	138	148.0	-189404.0	1296.0	25498.0
27	15	34	22	139	149.0	-187612.0	1298.0	25208.0
27	15	34	22	140	150.0	-187019.0	1299.0	25217.0
27	15	34	22	140	151.0	-186372.0	1298.0	25550.0
27	15	34	22	141	152.0	-185468.0	1306.0	26073.0
27	15	34	22	142	153.0	-185059.0	1298.0	26758.0
27	15	34	22	143	154.0	-185041.0	1291.0	27323.0
27	15	34	22	143	155.0	-185589.0	1287.0	27783.0
27	15	34	22	144	156.0	-187112.0	1290.0	28281.0
27	15	34	22	145	157.0	-189354.0	1284.0	29267.0
27	15	34	22	145	158.0	-191862.0	1273.0	30591.0
27	15	34	22	183	159.0	-194944.0	1262.0	30518.0
27	15	34	22	183	160.0	-197761.0	1258.0	29344.0
27	15	34	22	184	161.0	-200176.0	1269.0	29033.0
27	15	34	22	185	163.0	-202441.0	1261.0	29841.0
27	15	34	22	186	164.0	-203448.0	1243.0	30426.0
27	15	34	22	186	165.0	-205103.0	1220.0	30988.0
27	15	34	22	187	166.0	-207074.0	1227.0	31906.0
27	15	34	22	188	167.0	-209431.0	1222.0	32762.0
27	15	34	22	188	168.0	-211509.0	1224.0	33733.0
27	15	34	22	189	169.0	-213164.0	1189.0	33947.0
27	15	34	22	190	170.0	-214622.0	1169.0	33410.0
27	15	34	22	191	171.0	-215703.0	1169.0	33379.0
27	15	34	22	192	172.0	-216251.0	1164.0	33420.0
27	15	34	22	192	173.0	-215974.0	1143.0	34460.0
27	15	34	22	193	174.0	-215437.0	1144.0	35307.0
27	15	34	22	194	185.0	-213054.0	1006.0	38973.0
27	15	34	22	194	186.0	-213231.0	981.0	39096.0
27	15	34	22	195	187.0	-212976.0	956.0	39631.0
27	15	34	22	196	188.0	-212438.0	953.0	39787.0
27	15	34	22	196	189.0	-210836.0	938.0	39465.0
27	15	34	22	197	190.0	-207681.0	932.0	39725.0
27	15	34	22	197	191.0	-203606.0	918.0	39664.0
27	15	34	22	228	192.0	-200386.0	902.0	39952.0
27	15	34	22	229	193.0	-197572.0	887.0	40518.0
27	15	34	22	229	194.0	-194634.0	859.0	41058.0
27	15	34	22	230	195.0	-191988.0	841.0	41368.0
27	15	34	22	231	196.0	-190051.0	823.0	41744.0
27	15	34	22	231	197.0	-188617.0	811.0	41901.0
27	15	34	22	232	198.0	-186941.0	794.0	42015.0
27	15	34	22	233	199.0	-184993.0	781.0	42379.0
27	15	34	22	234	200.0	-183197.0	765.0	42499.0
27	15	34	22	234	201.0	-181072.0	739.0	42839.0
27	15	34	22	235	202.0	-178797.0	726.0	43965.0
27	15	34	22	236	203.0	-176647.0	721.0	44897.0
27	15	34	22	236	204.0	-174509.0	690.0	45718.0
27	15	34	22	237	205.0	-172608.0	684.0	46503.0
27	15	34	22	238	206.0	-171498.0	633.0	47408.0
27	15	34	22	238	208.0	-171140.0	600.0	47164.0
27	15	34	22	239	209.0	-172537.0	581.0	47396.0
27	15	34	22	239	210.0	-174836.0	553.0	48164.0
27	15	34	22	240	211.0	-178046.0	533.0	49116.0
27	15	34	22	241	212.0	-181958.0	519.0	49527.0
27	15	34	22	241	213.0	-186210.0	500.0	49890.0
27	15	34	22	273	214.0	-190458.0	479.0	50595.0
27	15	34	22	273	215.0	-194394.0	439.0	51689.0
27	15	34	22	274	216.0	-197821.0	414.0	51468.0
27	15	34	22	275	217.0	-200623.0	403.0	51083.0
27	15	34	22	275	218.0	-203164.0	361.0	50977.0
27	15	34	22	276	219.0	-206109.0	338.0	50626.0
27	15	34	22	318	220.0	-209389.0	327.0	50596.0
27	15	34	22	319	221.0	-212106.0	300.0	51464.0
27	15	34	22	319	222.0	-214100.0	264.0	52618.0
27	15	34	22	320	223.0	-215732.0	230.0	52601.0
27	15	34	22	321	224.0	-217047.0	224.0	51883.0
27	15	34	22	321	225.0	-217663.0	188.0	52755.0
27	15	34	22	322	226.0	-217418.0	159.0	52802.0
27	15	34	22	323	227.0	-216867.0	143.0	51838.0
27	15	34	22	323	228.0	-216292.0	121.0	49568.0
27	15	34	22	324	230.0	-215082.0	50.0	53654.0
27	15	34	22	325	231.0	-214639.0	-1.0	54383.0
27	15	34	22	325	232.0	-214156.0	-39.0	54874.0
27	15	34	22	326	233.0	-213707.0	-61.0	55287.0
27	15	34	22	327	234.0	-213912.0	-73.0	54893.0
27	15	34	22	327	235.0	-214495.0	-119.0	55726.0
27	15	34	22	328	253.0	-191916.0	-721.0	59184.0
27	15	34	22	328	254.0	-191079.0	-747.0	59129.0
27	15	34	22	329	255.0	-190031.0	-789.0	59383.0
27	15	34	22	329	0.0	-189489.0	-821.0	59485.0
27	15	34	22	330	1.0	-189164.0	-871.0	59436.0
27	15	34	22	330	2.0	-189247.0	-909.0	60205.0
27	15	34	22	362	3.0	-189973.0	-939.0	60781.0
27	15	34	22	362	4.0	-191622.0	-972.0	60451.0
27	15	34	22	408	5.0	-193727.0	-1008.0	60550.0
27	15	34	22	408	6.0	-195690.0	-1048.0	60804.0
27	15	34	22	409	7.0	-198137.0	-1093.0	61636.0
27	15	34	22	410	8.0	-200192.0	-1122.0	62623.0
27	15	34	22	410	9.0	-201581.0	-1182.0	63577.0
27	15	34	22	411	10.0	-202764.0	-1225.0	64619.0
27	15	34	22	412	11.0	-203629.0	-1249.0	65743.0
27	15	34	22	412	12.0	-204644.0	-1287.0	66445.0
27	15	34	22	413	13.0	-205822.0	-1315.0	67506.0
27	15	34	22	413	14.0	-207041.0	-1366.0	68185.0
27	15	34	22	414	15.0	-208106.0	-1386.0	68296.0
27	15	34	22	415	16.0	-208865.0	-1420.0	67869.0
27	15	34	22	415	17.0	-209430.0	-1482.0	68008.0
27	15	34	22	416	19.0	-210672.0	-1573.0	68231.0
27	15	34	22	416	20.0	-210566.0	-1606.0	68429.0
27	15	34	22	417	41.0	-189122.0	-2482.0	75459.0
27	15	34	22	417	42.0	-189239.0	-2517.0	76013.0
27	15	34	22	418	43.0	-188887.0	-2531.0	75408.0
27	15	34	22	419	44.0	-187920.0	-2556.0	74838.0
27	15	34	22	419	45.0	-187189.0	-2604.0	74636.0
27	15	34	22	420	46.0	-186669.0	-2646.0	74384.0
27	15	34	22	428	47.0	-186005.0	-2683.0	74100.0
27	15	34	22	453	48.0	-185577.0	-2732.0	73964.0
27	15	34	22	453	49.0	-185584.0	-2802.0	74024.0
27	15	34	22	454	50.0	-186166.0	-2858.0	73746.0
27	15	34	22	455	51.0	-187348.0	-2883.0	72344.0
27	15	34	22	455	52.0	-188793.0	-2913.0	71747.0
27	15	34	22	456	53.0	-190299.0	-2952.0	71709.0
27	15	34	22	457	54.0	-191465.0	-3012.0	72851.0
27	15	34	22	457	55.0	-192547.0	-3041.0	77110.0
27	15	34	22	458	56.0	-194249.0	-3083.0	84351.0
27	15	34	22	458	57.0	-196417.0	-3125.0	92552.0
27	15	34	22	459	58.0	-198174.0	-3167.0	98141.0
27	15	34	22	460	59.0	-200483.0	-3212.0	102809.0
27	15	34	22	460	60.0	-203362.0	-3245.0	107777.0
27	15	34	22	461	61.0	-205820.0	-3292.0	111994.0
27	15	34	22	461	62.0	-207994.0	-3329.0	114849.0
27	15	34	22	462	64.0	-212908.0	-3401.0	112816.0
27	15	34	22	463	65.0	-214982.0	-3428.0	110337.0
27	15	34	22	463	66.0	-217154.0	-3464.0	108197.0
27	15	34	22	464	67.0	-219411.0	-3525.0	104797.0
27	15	34	22	464	68.0	-221149.0	-3561.0	102746.0
27	15	34	22	465	69.0	-222878.0	-3604.0	101525.0
27	15	34	22	497	70.0	-225164.0	-3628.0	98169.0
27	15	34	22	498	71.0	-227564.0	-3672.0	94369.0
27	15	34	22	498	72.0	-230270.0	-3719.0	90733.0
27	15	34	22	499	73.0	-233577.0	-3765.0	88404.0
27	15	34	22	499	74.0	-236459.0	-3802.0	86850.0
27	15	34	22	500	75.0	-237774.0	-3847.0	85093.0
27	15	34	22	501	76.0	-237755.0	-3889.0	82370.0
27	15	34	22	501	77.0	-236708.0	-3943.0	78219.0
27	15	34	22	502	78.0	-231739.0	-3983.0	75544.0
27	15	34	22	502	79.0	-220926.0	-4018.0	72269.0
27	15	34	22	503	80.0	-205909.0	-4047.0	66963.0
27	15	34	22	504	81.0	-188101.0	-4104.0	62002.0
27	15	34	22	504	82.0	-169800.0	-4136.0	59259.0
27	15	34	22	505	83.0	-154643.0	-4182.0	56956.0
27	15	34	22	505	84.0	-145466.0	-4224.0	53700.0
27	15	34	22	506	86.0	-149297.0	-4292.0	50327.0
27	15	34	22	507	87.0	-163197.0	-4341.0	48460.0
27	15	34	22	507	88.0	-182617.0	-4371.0	45672.0
27	15	34	22	508	89.0	-203331.0	-4412.0	42351.0
27	15	34	22	508	90.0	-223531.0	-4478.0	38913.0
27	15	34	22	509	91.0	-240300.0	-4520.0	33558.0
27	15	34	22	509	92.0	-247220.0	-4575.0	29271.0
27	15	34	22	542	93.0	-250066.0	-4627.0	26589.0
27	15	34	22	543	94.0	-257601.0	-4642.0	24378.0
27	15	34	22	543	95.0	-251218.0	-4661.0	21643.0
27	15	34	22	544	96.0	-227942.0	-4709.0	18620.0
27	15	34	22	545	97.0	-194957.0	-4758.0	16269.0
27	15	34	22	545	98.0	-163520.0	-4814.0	14570.0
27	15	34	22	546	99.0	-141431.0	-4846.0	13186.0
27	15	34	22	546	100.0	-132403.0	-4893.0	11563.0
27	15	34	22	547	101.0	-133457.0	-4929.0	10153.0
27	15	34	22	548	102.0	-140182.0	-4970.0	8802.0
27	15	34	22	548	103.0	-150764.0	-5009.0	6828.0
27	15	34	22	549	104.0	-165253.0	-5029.0	4879.0
27	15	34	22	549	105.0	-183599.0	-5078.0	2894.0
27	15	34	22	550	106.0	-202210.0	-5118.0	1606.0
27	15	34	22	551	107.0	-217222.0	-5163.0	374.0
27	15	34	22	551	109.0	-232816.0	-5246.0	-1845.0
27	15	34	22	552	110.0	-235139.0	-5282.0	-3159.0
27	15	34	22	552	111.0	-235037.0	-5316.0	-5009.0
27	15	34	22	553	112.0	-233354.0	-5359.0	-6372.0
27	15	34	22	554	113.0	-230677.0	-5404.0	-7603.0
27	15	34	22	554	114.0	-226688.0	-5431.0	-8676.0
27	15	34	22	587	115.0	-222382.0	-5460.0	-9381.0
27	15	34	22	587	116.0	-218961.0	-5508.0	-10207.0
27	15	34	22	633	117.0	-216632.0	-5564.0	-11143.0
27	15	34	22	633	118.0	-215857.0	-5602.0	-11742.0
27	15	34	22	634	119.0	-216158.0	-5648.0	-12634.0
27	15	34	22	635	120.0	-217015.0	-5684.0	-13938.0
27	15	34	22	635	121.0	-217862.0	-5729.0	-15206.0
27	15	34	22	636	122.0	-218410.0	-5781.0	-16587.0
27	15	34	22	636	123.0	-218007.0	-5816.0	-17385.0
27	15	34	22	637	124.0	-216313.0	-5851.0	-18101.0
27	15	34	22	638	125.0	-213572.0	-5901.0	-19286.0
27	15	34	22	638	126.0	-210049.0	-5932.0	-19938.0
27	15	34	22	639	127.0	-205644.0	-5982.0	-20436.0
27	15	34	22	639	128.0	-200999.0	-6030.0	-20472.0
27	15	34	22	640	129.0	-196729.0	-6066.0	-21455.0
27	15	34	22	641	131.0	-187684.0	-6172.0	-23212.0
27	15	34	22	641	132.0	-183550.0	-6213.0	-23414.0
27	15	34	22	642	133.0	-179719.0	-6251.0	-23846.0
27	15	34	22	642	154.0	-173355.0	-7162.0	-28670.0
27	15	34	22	643	155.0	-175721.0	-7199.0	-29654.0
27	15	34	22	644	156.0	-178711.0	-7232.0	-31522.0
27	15	34	22	644	157.0	-182148.0	-7254.0	-33322.0
27	15	34	22	645	158.0	-185807.0	-7290.0	-34820.0
27	15	34	22	645	159.0	-189749.0	-7311.0	-36120.0
27	15	34	22	677	160.0	-193597.0	-7340.0	-36969.0
27	15	34	22	678	161.0	-197030.0	-7381.0	-38581.0
27	15	34	22	678	162.0	-201054.0	-7394.0	-39887.0
27	15	34	22	679	163.0	-204919.0	-7396.0	-40536.0
27	15	34	22	679	164.0	-207788.0	-7415.0	-40357.0
27	15	34	22	680	165.0	-210224.0	-7421.0	-40204.0
27	15	34	22	681	166.0	-211858.0	-7435.0	-39884.0
27	15	34	22	682	167.0	-212212.0	-7446.0	-40029.0
27	15	34	22	682	168.0	-212209.0	-7454.0	-39747.0
27	15	34	22	683	169.0	-212080.0	-7461.0	-39627.0
27	15	34	22	684	170.0	-211654.0	-7456.0	-40762.0
27	15	34	22	685	171.0	-212216.0	-7441.0	-41211.0
27	15	34	22	685	172.0	-213204.0	-7434.0	-40812.0
27	15	34	22	686	173.0	-214034.0	-7419.0	-41306.0
27	15	34	22	687	174.0	-214351.0	-7412.0	-40870.0
27	15	34	22	687	176.0	-213816.0	-7371.0	-39690.0
27	15	34	22	688	177.0	-213132.0	-7347.0	-39466.0
27	15	34	22	688	178.0	-212491.0	-7314.0	-39284.0
27	15	34	22	689	179.0	-211401.0	-7280.0	-39258.0
27	15	34	22	690	180.0	-210121.0	-7230.0	-39589.0
27	15	34	22	690	181.0	-209068.0	-7193.0	-39831.0
27	15	34	22	722	182.0	-207581.0	-7157.0	-39867.0
27	15	34	22	723	183.0	-205534.0	-7102.0	-40314.0
27	15	34	22	723	184.0	-203886.0	-7047.0	-40468.0
27	15	34	22	724	185.0	-202156.0	-6995.0	-39771.0
27	15	34	22	724	186.0	-200151.0	-6951.0	-38784.0
27	15	34	22	725	187.0	-198540.0	-6893.0	-38580.0
27	15	34	22	726	188.0	-196887.0	-6813.0	-39185.0
27	15	34	22	726	189.0	-196061.0	-6753.0	-39876.0
27	15	34	22	727	190.0	-196652.0	-6691.0	-40149.0
27	15	34	22	727	191.0	-197499.0	-6611.0	-40726.0
27	15	34	22	728	192.0	-198453.0	-6544.0	-41325.0
27	15	34	22	729	193.0	-199655.0	-6469.0	-41227.0
27	15	34	22	729	194.0	-200316.0	-6407.0	-40455.0
27	15	34	22	730	195.0	-200449.0	-6327.0	-38434.0
27	15	34	22	731	196.0	-200771.0	-6246.0	-37258.0
27	15	34	22	731	198.0	-201489.0	-6092.0	-37324.0
27	15	34	22	732	199.0	-202084.0	-6011.0	-35807.0
27	15	34	22	767	200.0	-202561.0	-5932.0	-32480.0
27	15	34	22	768	201.0	-202706.0	-5843.0	-30352.0
27	15	34	22	769	202.0	-203100.0	-5761.0	-28398.0
27	15	34	22	770	203.0	-203960.0	-5676.0	-27149.0
27	15	34	22	770	204.0	-204614.0	-5583.0	-25742.0
27	15	34	22	771	205.0	-205393.0	-5492.0	-24854.0
27	15	34	22	771	206.0	-206712.0	-5404.0	-24366.0
27	15	34	22	772	207.0	-208540.0	-5324.0	-24069.0
27	15	34	22	773	208.0	-211111.0	-5259.0	-24076.0
27	15	34	22	773	209.0	-212887.0	-5172.0	-23856.0
27	15	34	22	774	210.0	-214342.0	-5072.0	-23677.0
27	15	34	22	774	211.0	-216064.0	-4991.0	-23366.0
27	15	34	22	775	212.0	-217819.0	-4907.0	-22791.0
27	15	34	22	776	213.0	-218852.0	-4821.0	-21909.0
27	15	34	22	776	214.0	-219001.0	-4733.0	-21467.0
27	15	34	22	777	215.0	-218894.0	-4637.0	-21373.0
27	15	34	22	777	221.0	-212540.0	-4196.0	-17613.0
27	15	34	22	813	222.0	-209795.0	-4115.0	-18504.0
27	15	34	22	814	223.0	-207288.0	-4039.0	-18431.0
27	15	34	22	815	224.0	-204512.0	-3976.0	-18823.0
27	15	34	22	858	225.0	-200576.0	-3894.0	-18694.0
27	15	34	22	859	226.0	-195286.0	-3806.0	-18202.0
27	15	34	22	859	227.0	-188811.0	-3731.0	-17679.0
27	15	34	22	860	228.0	-180862.0	-3658.0	-17721.0
27	15	34	22	861	229.0	-168263.0	-3599.0	-17726.0
27	15	34	22	861	230.0	-153102.0	-3540.0	-17428.0
27	15	34	22	862	231.0	-146996.0	-3450.0	-17709.0
27	15	34	22	862	232.0	-156285.0	-3376.0	-18596.0
27	15	34	22	863	233.0	-172907.0	-3317.0	-18609.0
27	15	34	22	864	234.0	-189846.0	-3238.0	-18604.0
27	15	34	22	864	235.0	-200794.0	-3168.0	-17667.0
27	15	34	22	865	236.0	-205309.0	-3099.0	-16097.0
27	15	34	22	866	243.0	-176524.0	-2596.0	-18404.0
27	15	34	22	866	244.0	-169870.0	-2534.0	-18623.0
27	15	34	22	867	245.0	-165136.0	-2467.0	-19352.0
27	15	34	22	867	10.0	-212192.0	-1163.0	-15713.0
27	15	34	22	868	11.0	-211561.0	-1118.0	-14656.0
27	15	34	22	869	12.0	-210613.0	-1076.0	-14031.0
27	15	34	22	869	13.0	-209392.0	-1017.0	-14086.0
27	15	34	22	870	14.0	-208471.0	-962.0	-13932.0
27	15	34	22	870	15.0	-207292.0	-906.0	-13196.0
27	15	34	22	902	16.0	-205927.0	-876.0	-13189.0
27	15	34	22	903	17.0	-204911.0	-834.0	-14047.0
27	15	34	22	904	18.0	-204039.0	-795.0	-16603.0
27	15	34	22	904	19.0	-202762.0	-756.0	-21135.0
27	15	34	22	905	20.0	-201602.0	-722.0	-39296.0
27	15	34	22	906	21.0	-200398.0	-699.0	-67737.0
27	15	34	22	906	22.0	-199116.0	-654.0	-85608.0
27	15	34	22	907	23.0	-198164.0	-620.0	-94066.0
27	15	34	22	907	24.0	-197199.0	-622.0	-92146.0
27	15	34	22	908	25.0	-196089.0	-595.0	-92772.0
27	15	34	22	909	26.0	-194862.0	-576.0	-98773.0
27	15	34	22	909	27.0	-193756.0	-563.0	-112742.0
27	15	34	22	910	28.0	-192558.0	-524.0	-132752.0
27	15	34	22	911	29.0	-191584.0	-498.0	-152225.0
27	15	34	22	911	30.0	-190554.0	-496.0	-169601.0
27	15	34	22	912	32.0	-187911.0	-462.0	-196285.0
27	15	34	22	913	33.0	-186938.0	-452.0	-213454.0
27	15	34	22	914	34.0	-186712.0	-432.0	-222307.0
27	15	34	22	914	35.0	-186254.0	-421.0	-231727.0
27	15	34	22	915	36.0	-186219.0	-405.0	-243337.0
27	15	34	22	916	37.0	-186731.0	-389.0	-249659.0
27	15	34	22	916	38.0	-187566.0	-381.0	-251711.0
27	15	34	22	947	39.0	-189112.0	-371.0	-252635.0
27	15	34	22	948	40.0	-191651.0	-370.0	-252252.0
27	15	34	22	949	41.0	-194658.0	-383.0	-254196.0
27	15	34	22	949	42.0	-198387.0	-374.0	-257128.0
27	15	34	22	950	43.0	-202449.0	-374.0	-259182.0
27	15	34	22	951	44.0	-205801.0	-382.0	-262229.0
27	15	34	22	951	45.0	-208747.0	-376.0	-265698.0
27	15	34	22	952	46.0	-211437.0	-363.0	-267099.0
27	15	34	22	953	47.0	-213391.0	-366.0	-268467.0
27	15	34	22	953	48.0	-215141.0	-384.0	-268475.0
27	15	34	22	954	49.0	-216538.0	-367.0	-271054.0
27	15	34	22	955	50.0	-217020.0	-376.0	-275620.0
27	15	34	22	955	51.0	-216868.0	-396.0	-279179.0
27	15	34	22	956	52.0	-216563.0	-384.0	-285975.0
27	15	34	22	956	53.0	-215837.0	-386.0	-291231.0
27	15	34	22	957	55.0	-213224.0	-401.0	-299590.0
27	15	34	22	958	56.0	-211414.0	-413.0	-306794.0
27	15	34	22	958	57.0	-209508.0	-416.0	-313816.0
27	15	34	22	959	58.0	-207386.0	-414.0	-318170.0
27	15	34	22	959	59.0	-205034.0	-422.0	-319482.0
27	15	34	22	960	60.0	-202657.0	-439.0	-319484.0
27	15	34	22	993	61.0	-200537.0	-448.0	-319501.0
27	15	34	22	994	62.0	-198750.0	-451.0	-319116.0
27	15	34	22	994	63.0	-197575.0	-436.0	-317590.0
27	15	34	22	995	64.0	-196966.0	-466.0	-315668.0
27	15	34	22	995	65.0	-196904.0	-477.0	-314482.0
27	15	34	22	996	66.0	-197404.0	-476.0	-312441.0
27	15	34	22	997	67.0	-197859.0	-472.0	-310933.0
27	15	34	22	997	68.0	-198471.0	-477.0	-309091.0
27	15	34	23	39	69.0	-199594.0	-499.0	-308787.0
27	15	34	23	82	70.0	-200641.0	-505.0	-308946.0
27	15	34	23	83	71.0	-201222.0	-520.0	-307776.0
27	15	34	23	84	72.0	-201510.0	-532.0	-307211.0
27	15	34	23	84	73.0	-201411.0	-545.0	-306250.0
27	15	34	23	85	74.0	-201312.0	-537.0	-304497.0
27	15	34	23	86	77.0	-201630.0	-572.0	-300864.0
27	15	34	23	86	78.0	-202327.0	-596.0	-298311.0
27	15	34	23	87	79.0	-203032.0	-620.0	-296291.0
27	15	34	23	88	80.0	-204019.0	-624.0	-295854.0
27	15	34	23	88	81.0	-205326.0	-629.0	-295227.0
27	15	34	23	89	82.0	-206491.0	-641.0	-296412.0
27	15	34	23	90	83.0	-207683.0	-666.0	-297334.0
27	15	34	23	90	84.0	-208676.0	-687.0	-296540.0
27	15	34	23	91	85.0	-208952.0	-697.0	-295799.0
27	15	34	23	91	100.0	-200350.0	-948.0	-278646.0
27	15	34	23	92	122.0	-195787.0	-1483.0	-242207.0
27	15	34	23	93	123.0	-198929.0	-1501.0	-239685.0
27	15	34	23	93	124.0	-202121.0	-1519.0	-237898.0
27	15	34	23	94	125.0	-205071.0	-1558.0	-237809.0
27	15	34	23	94	126.0	-207944.0	-1594.0	-238313.0
27	15	34	23	95	127.0	-210561.0	-1620.0	-236416.0
27	15	34	23	127	128.0	-212789.0	-1639.0	-235098.0
27	15	34	23	128	129.0	-215225.0	-1664.0	-234311.0
27	15	34	23	129	130.0	-217239.0	-1681.0	-232365.0
27	15	34	23	130	131.0	-219132.0	-1716.0	-229752.0
27	15	34	23	130	132.0	-220523.0	-1735.0	-229420.0
27	15	34	23	131	133.0	-221138.0	-1759.0	-229372.0
27	15	34	23	131	134.0	-220937.0	-1804.0	-227750.0
27	15	34	23	132	135.0	-220497.0	-1819.0	-225926.0
27	15	34	23	133	136.0	-219612.0	-1837.0	-225222.0
27	15	34	23	133	137.0	-218763.0	-1858.0	-225100.0
27	15	34	23	134	138.0	-218318.0	-1889.0	-224227.0
27	15	34	23	135	139.0	-217602.0	-1923.0	-222012.0
27	15	34	23	135	140.0	-216551.0	-1974.0	-220656.0
27	15	34	23	136	141.0	-215767.0	-1999.0	-219404.0
27	15	34	23	137	142.0	-214851.0	-2030.0	-217989.0
27	15	34	23	137	144.0	-211373.0	-2092.0	-214961.0
27	15	34	23	138	145.0	-209709.0	-2117.0	-213434.0
27	15	34	23	138	146.0	-207848.0	-2151.0	-211732.0
27	15	34	23	139	147.0	-205537.0	-2186.0	-210554.0
27	15	34	23	140	148.0	-203068.0	-2226.0	-209152.0
27	15	34	23	140	149.0	-200412.0	-2266.0	-207432.0
27	15	34	23	141	150.0	-197940.0	-2294.0	-206354.0
27	15	34	23	173	151.0	-196215.0	-2319.0	-205308.0
27	15	34	23	173	152.0	-194906.0	-2358.0	-204924.0
27	15	34	23	174	153.0	-193739.0	-2391.0	-203274.0
27	15	34	23	175	154.0	-192446.0	-2439.0	-200721.0
27	15	34	23	175	155.0	-190968.0	-2472.0	-200808.0
27	15	34	23	176	156.0	-189798.0	-2503.0	-201580.0
27	15	34	23	188	157.0	-189415.0	-2537.0	-200095.0
27	15	34	23	188	158.0	-189453.0	-2563.0	-198369.0
27	15	34	23	189	159.0	-189791.0	-2607.0	-197217.0
27	15	34	23	190	160.0	-189752.0	-2646.0	-195722.0
27	15	34	23	190	161.0	-189415.0	-2693.0	-194413.0
27	15	34	23	191	162.0	-189803.0	-2741.0	-195410.0
27	15	34	23	191	163.0	-190172.0	-2759.0	-195861.0
27	15	34	23	192	164.0	-190740.0	-2779.0	-195254.0
27	15	34	23	192	165.0	-192064.0	-2806.0	-193132.0
27	15	34	23	193	167.0	-196540.0	-2862.0	-181011.0
27	15	34	23	194	168.0	-198826.0	-2921.0	-173100.0
27	15	34	23	194	169.0	-200734.0	-2959.0	-167142.0
27	15	34	23	195	170.0	-202366.0	-2978.0	-160963.0
27	15	34	23	195	171.0	-203399.0	-3029.0	-153775.0
27	15	34	23	196	172.0	-204720.0	-3077.0	-146435.0
27	15	34	23	217	173.0	-206294.0	-3109.0	-140831.0
27	15	34	23	218	174.0	-207751.0	-3126.0	-140219.0
27	15	34	23	219	175.0	-210001.0	-3180.0	-144220.0
27	15	34	23	219	176.0	-212142.0	-3217.0	-147187.0
27	15	34	23	220	177.0	-214057.0	-3251.0	-148181.0
27	15	34	23	221	178.0	-215968.0	-3276.0	-147906.0
27	15	34	23	221	179.0	-217962.0	-3308.0	-148125.0
27	15	34	23	222	180.0	-219829.0	-3341.0	-150434.0
27	15	34	23	223	181.0	-221809.0	-3384.0	-153529.0
27	15	34	23	223	182.0	-223724.0	-3431.0	-155214.0
27	15	34	23	224	183.0	-225952.0	-3469.0	-156119.0
27	15	34	23	225	184.0	-227766.0	-3499.0	-157112.0
27	15	34	23	226	185.0	-228174.0	-3532.0	-159048.0
27	15	34	23	226	186.0	-227524.0	-3554.0	-161759.0
27	15	34	23	227	187.0	-225392.0	-3602.0	-163616.0
27	15	34	23	228	189.0	-214614.0	-3673.0	-164907.0
27	15	34	23	228	190.0	-203235.0	-3722.0	-164141.0
27	15	34	23	229	191.0	-188199.0	-3752.0	-164240.0
27	15	34	23	230	192.0	-171257.0	-3777.0	-164631.0
27	15	34	23	230	193.0	-154154.0	-3814.0	-164899.0
27	15	34	23	231	194.0	-140712.0	-3854.0	-163377.0
27	15	34	23	232	195.0	-132614.0	-3901.0	-160631.0
27	15	34	23	262	196.0	-132808.0	-3946.0	-157587.0
27	15	34	23	263	197.0	-141823.0	-3976.0	-154793.0
27	15	34	23	264	198.0	-158459.0	-4027.0	-153909.0
27	15	34	23	264	199.0	-180460.0	-4041.0	-155474.0
27	15	34	23	265	200.0	-204552.0	-4094.0	-156656.0
27	15	34	23	266	201.0	-228702.0	-4150.0	-156439.0
27	15	34	23	266	202.0	-250302.0	-4182.0	-155892.0
27	15	34	23	267	203.0	-263804.0	-4212.0	-155954.0
27	15	34	23	267	204.0	-271673.0	-4259.0	-156106.0
27	15	34	23	268	205.0	-281551.0	-4310.0	-155960.0
27	15	34	23	269	206.0	-280696.0	-4344.0	-155351.0
27	15	34	23	269	207.0	-261834.0	-4376.0	-154895.0
27	15	34	23	270	208.0	-228876.0	-4416.0	-154901.0
27	15	34	23	271	209.0	-194117.0	-4464.0	-154771.0
27	15	34	23	271	210.0	-166087.0	-4494.0	-153899.0
27	15	34	23	272	212.0	-143516.0	-4589.0	-150379.0
27	15	34	23	308	213.0	-142860.0	-4633.0	-147682.0
27	15	34	23	309	214.0	-146293.0	-4662.0	-144820.0
27	15	34	23	310	215.0	-154811.0	-4714.0	-141989.0
27	15	34	23	310	216.0	-168708.0	-4750.0	-140180.0
27	15	34	23	311	217.0	-185343.0	-4797.0	-138926.0
27	15	34	23	312	218.0	-201027.0	-4840.0	-137818.0
27	15	34	23	313	219.0	-213377.0	-4891.0	-137800.0
27	15	34	23	313	220.0	-221619.0	-4927.0	-138044.0
27	15	34	23	314	221.0	-226146.0	-4959.0	-138351.0
27	15	34	23	315	222.0	-227402.0	-4996.0	-137990.0
27	15	34	23	315	223.0	-225819.0	-5031.0	-137629.0
27	15	34	23	316	224.0	-222219.0	-5083.0	-138540.0
27	15	34	23	317	225.0	-216937.0	-5116.0	-139707.0
27	15	34	23	317	226.0	-210337.0	-5152.0	-140294.0
27	15	34	23	318	227.0	-203401.0	-5207.0	-141429.0
27	15	34	23	318	234.0	-199207.0	-5525.0	-139769.0
27	15	34	23	319	235.0	-200941.0	-5578.0	-138172.0
27	15	34	23	320	236.0	-201419.0	-5591.0	-135583.0
27	15	34	23	320	237.0	-201074.0	-5643.0	-132143.0
27	15	34	23	321	238.0	-200673.0	-5694.0	-129767.0
27	15	34	23	321	239.0	-199686.0	-5739.0	-129503.0
27	15	34	23	322	240.0	-198609.0	-5805.0	-130057.0
27	15	34	23	353	241.0	-197367.0	-5843.0	-131208.0
27	15	34	23	353	242.0	-196061.0	-5868.0	-130941.0
27	15	34	23	354	243.0	-194766.0	-5909.0	-130437.0
27	15	34	23	355	244.0	-193524.0	-5975.0	-130527.0
27	15	34	23	356	245.0	-192949.0	-6019.0	-130564.0
27	15	34	23	356	246.0	-192967.0	-6053.0	-130176.0
27	15	34	23	357	247.0	-192964.0	-6100.0	-127627.0
27	15	34	23	357	248.0	-192811.0	-6143.0	-123950.0
27	15	34	23	358	249.0	-192209.0	-6183.0	-122028.0
27	15	34	23	359	250.0	-192001.0	-6228.0	-122662.0
27	15	34	23	359	251.0	-191686.0	-6278.0	-122436.0
27	15	34	23	360	252.0	-190907.0	-6307.0	-121757.0
27	15	34	23	361	253.0	-190876.0	-6359.0	-120867.0
27	15	34	23	361	254.0	-190020.0	-6429.0	-121166.0
27	15	34	23	362	255.0	-188982.0	-6465.0	-121699.0
27	15	34	23	363	1.0	-188459.0	-6562.0	-120054.0
27	15	34	23	363	2.0	-188267.0	-6584.0	-119362.0
27	15	34	23	364	3.0	-187964.0	-6616.0	-115994.0
27	15	34	23	364	4.0	-187493.0	-6674.0	-112153.0
27	15	34	23	365	5.0	-187187.0	-6726.0	-110939.0
27	15	34	23	366	6.0	-187446.0	-6779.0	-108579.0
27	15	34	23	413	7.0	-187826.0	-6826.0	-105582.0
27	15	34	23	436	8.0	-186975.0	-6865.0	-104158.0
27	15	34	23	437	9.0	-186483.0	-6905.0	-103897.0
27	15	34	23	438	10.0	-185578.0	-6952.0	-103699.0
27	15	34	23	438	11.0	-184426.0	-6994.0	-104646.0
27	15	34	23	439	12.0	-183744.0	-7032.0	-107367.0
27	15	34	23	439	13.0	-183075.0	-7061.0	-108731.0
27	15	34	23	440	14.0	-183744.0	-7092.0	-107871.0
27	15	34	23	441	15.0	-185108.0	-7128.0	-107102.0
27	15	34	23	441	16.0	-185876.0	-7178.0	-106721.0
27	15	34	23	442	17.0	-186199.0	-7185.0	-105342.0
27	15	34	23	442	18.0	-187511.0	-7205.0	-103454.0
27	15	34	23	443	19.0	-188634.0	-7254.0	-101924.0
27	15	34	23	444	20.0	-189610.0	-7269.0	-100427.0
27	15	34	23	444	21.0	-191217.0	-7286.0	-99316.0
27	15	34	23	445	30.0	-199893.0	-7340.0	-92929.0
27	15	34	23	445	38.0	-200473.0	-7154.0	-84949.0
27	15	34	23	446	39.0	-200726.0	-7114.0	-84148.0
27	15	34	23	446	40.0	-200490.0	-7070.0	-84125.0
27	15	34	23	447	41.0	-200309.0	-7026.0	-83777.0
27	15	34	23	459	42.0	-200504.0	-6992.0	-83366.0
27	15	34	23	460	43.0	-201226.0	-6939.0	-82422.0
27	15	34	23	461	44.0	-202916.0	-6888.0	-81584.0
27	15	34	23	461	45.0	-204695.0	-6841.0	-80437.0
27	15	34	23	462	46.0	-206176.0	-6782.0	-79210.0
27	15	34	23	463	47.0	-208926.0	-6716.0	-78339.0
27	15	34	23	463	48.0	-211576.0	-6644.0	-76707.0
27	15	34	23	464	49.0	-213434.0	-6574.0	-74806.0
27	15	34	23	465	50.0	-214089.0	-6526.0	-73214.0
27	15	34	23	465	51.0	-214403.0	-6462.0	-71620.0
27	15	34	23	466	52.0	-214322.0	-6379.0	-70310.0
27	15	34	23	466	53.0	-213804.0	-6306.0	-69083.0
27	15	34	23	467	54.0	-213517.0	-6246.0	-67685.0
27	15	34	23	468	55.0	-212872.0	-6180.0	-66227.0
27	15	34	23	468	56.0	-211644.0	-6115.0	-64085.0
27	15	34	23	482	57.0	-211004.0	-6035.0	-62555.0
27	15	34	23	482	58.0	-211287.0	-5966.0	-61770.0
27	15	34	23	483	59.0	-211077.0	-5913.0	-61768.0
27	15	34	23	484	60.0	-211180.0	-5833.0	-61467.0
27	15	34	23	506	61.0	-212366.0	-5749.0	-60336.0
27	15	34	23	506	62.0	-212582.0	-5670.0	-59510.0
27	15	34	23	507	63.0	-212927.0	-5607.0	-58494.0
27	15	34	23	508	64.0	-212782.0	-5538.0	-56964.0
27	15	34	23	510	65.0	-212332.0	-5459.0	-55959.0
27	15	34	23	512	66.0	-211573.0	-5395.0	-55029.0
27	15	34	23	514	67.0	-209513.0	-5326.0	-53749.0
27	15	34	23	525	68.0	-209159.0	-5251.0	-52070.0
27	15	34	23	526	69.0	-208154.0	-5183.0	-49896.0
27	15	34	23	526	70.0	-206143.0	-5096.0	-48057.0
27	15	34	23	527	71.0	-204627.0	-5044.0	-47256.0
27	15	34	23	528	72.0	-202916.0	-4970.0	-45802.0
27	15	34	23	528	73.0	-200512.0	-4901.0	-44774.0
27	15	34	23	529	74.0	-199058.0	-4834.0	-44553.0
27	15	34	23	529	75.0	-198697.0	-4753.0	-44096.0
27	15	34	23	530	76.0	-196821.0	-4691.0	-43235.0
27	15	34	23	530	77.0	-196759.0	-4615.0	-42079.0
27	15	34	23	531	78.0	-196963.0	-4544.0	-41648.0
27	15	34	23	532	79.0	-196119.0	-4468.0	-40971.0
27	15	34	23	532	80.0	-194085.0	-4408.0	-39556.0
27	15	34	23	533	81.0	-190489.0	-4341.0	-37979.0
27	15	34	23	533	82.0	-183473.0	-4292.0	-37194.0
27	15	34	23	534	83.0	-172471.0	-4215.0	-36586.0
27	15	34	23	534	84.0	-160722.0	-4158.0	-36206.0
27	15	34	23	535	85.0	-158079.0	-4102.0	-36710.0
27	15	34	23	535	86.0	-167534.0	-4061.0	-36557.0
27	15	34	23	536	87.0	-183126.0	-4004.0	-35265.0
27	15	34	23	537	88.0	-198758.0	-3933.0	-34289.0
27	15	34	23	537	89.0	-206387.0	-3862.0	-33192.0
27	15	34	23	538	90.0	-211623.0	-3815.0	-31521.0
27	15	34	23	538	91.0	-212538.0	-3742.0	-28940.0
27	15	34	23	539	92.0	-210996.0	-3674.0	-28722.0
27	15	34	23	539	93.0	-209819.0	-3614.0	-29067.0
27	15	34	23	540	94.0	-205792.0	-3570.0	-28529.0
27	15	34	23	548	95.0	-202749.0	-3510.0	-28318.0
27	15	34	23	549	96.0	-199012.0	-3439.0	-27913.0
27	15	34	23	549	97.0	-194122.0	-3396.0	-27321.0
27	15	34	23	573	98.0	-189683.0	-3324.0	-27038.0
27	15	34	23	573	99.0	-187147.0	-3242.0	-27103.0
27	15	34	23	574	100.0	-186238.0	-3212.0	-26537.0
27	15	34	23	575	101.0	-185151.0	-3166.0	-25729.0
27	15	34	23	575	102.0	-187748.0	-3112.0	-24960.0
27	15	34	23	576	103.0	-191971.0	-3055.0	-24009.0
27	15	34	23	576	104.0	-196702.0	-2999.0	-23446.0
27	15	34	23	577	105.0	-201944.0	-2954.0	-22420.0
27	15	34	23	578	106.0	-205919.0	-2908.0	-22028.0
27	15	34	23	578	107.0	-209161.0	-2862.0	-21369.0
27	15	34	23	579	108.0	-212865.0	-2827.0	-20041.0
27	15	34	23	579	109.0	-215111.0	-2771.0	-19595.0
27	15	34	23	580	110.0	-216023.0	-2712.0	-18212.0
27	15	34	23	581	111.0	-216516.0	-2669.0	-17466.0
27	15	34	23	581	112.0	-217307.0	-2616.0	-16626.0
27	15	34	23	582	113.0	-218484.0	-2584.0	-15782.0
27	15	34	23	595	114.0	-219121.0	-2561.0	-14556.0
27	15	34	23	596	115.0	-218944.0	-2519.0	-13461.0
27	15	34	23	618	116.0	-217826.0	-2457.0	-13555.0
27	15	34	23	619	117.0	-218537.0	-2405.0	-13649.0
27	15	34	23	619	118.0	-219351.0	-2374.0	-13236.0
27	15	34	23	620	119.0	-219306.0	-2342.0	-13351.0
27	15	34	23	620	120.0	-219722.0	-2309.0	-13657.0
27	15	34	23	621	121.0	-220262.0	-2266.0	-14161.0
27	15	34	23	622	122.0	-220435.0	-2241.0	-13864.0
27	15	34	23	622	123.0	-221175.0	-2209.0	-13587.0
27	15	34	23	623	124.0	-221546.0	-2187.0	-12274.0
27	15	34	23	623	125.0	-222938.0	-2154.0	-11336.0
27	15	34	23	624	126.0	-224629.0	-2130.0	-10810.0
27	15	34	23	624	127.0	-225587.0	-2091.0	-11173.0
27	15	34	23	625	128.0	-226667.0	-2059.0	-11345.0
27	15	34	23	626	129.0	-228719.0	-2031.0	-10631.0
27	15	34	23	626	130.0	-230898.0	-2006.0	-11001.0
27	15	34	23	627	131.0	-230709.0	-1969.0	-10899.0
27	15	34	23	640	132.0	-231625.0	-1956.0	-9409.0
27	15	34	23	641	133.0	-232331.0	-1950.0	-8260.0
27	15	34	23	642	134.0	-232051.0	-1931.0	-6768.0
27	15	34	23	642	135.0	-230834.0	-1906.0	-5642.0
27	15	34	23	643	136.0	-230042.0	-1883.0	-4876.0
27	15	34	23	643	137.0	-230206.0	-1868.0	-4917.0
27	15	34	23	644	138.0	-229979.0	-1845.0	-5958.0
27	15	34	23	645	139.0	-228201.0	-1828.0	-5516.0
27	15	34	23	645	140.0	-227522.0	-1813.0	-4444.0
27	15	34	23	646	141.0	-227094.0	-1818.0	-3393.0
27	15	34	23	646	142.0	-225032.0	-1806.0	-2865.0
27	15	34	23	647	143.0	-222384.0	-1798.0	-2369.0
27	15	34	23	648	144.0	-221135.0	-1797.0	-1939.0
27	15	34	23	648	145.0	-218332.0	-1766.0	-1617.0
27	15	34	23	649	146.0	-215406.0	-1771.0	-59.0
27	15	34	23	663	147.0	-212859.0	-1774.0	1738.0
27	15	34	23	664	148.0	-209505.0	-1781.0	4138.0
27	15	34	23	665	149.0	-205266.0	-1788.0	6171.0
27	15	34	23	665	150.0	-201462.0	-1762.0	6999.0
27	15	34	23	666	151.0	-197539.0	-1764.0	7874.0
27	15	34	23	667	152.0	-193419.0	-1774.0	9649.0
27	15	34	23	667	153.0	-189531.0	-1771.0	10883.0
27	15	34	23	668	154.0	-186039.0	-1801.0	12433.0
27	15	34	23	668	155.0	-183757.0	-1801.0	14878.0
27	15	34	23	669	156.0	-183207.0	-1818.0	17536.0
27	15	34	23	670	157.0	-181752.0	-1819.0	18092.0
27	15	34	23	670	158.0	-180386.0	-1828.0	16753.0
27	15	34	23	671	159.0	-180398.0	-1841.0	16065.0
27	15	34	23	688	160.0	-181161.0	-1836.0	16139.0
27	15	34	23	689	161.0	-181259.0	-1842.0	16566.0
27	15	34	23	690	162.0	-181358.0	-1855.0	16629.0
27	15	34	23	690	163.0	-183047.0	-1861.0	17689.0
27	15	34	23	691	164.0	-183850.0	-1896.0	18848.0
27	15	34	23	692	165.0	-183327.0	-1912.0	19514.0
27	15	34	23	692	166.0	-183955.0	-1921.0	20034.0
27	15	34	23	711	167.0	-184297.0	-1926.0	20185.0
27	15	34	23	737	168.0	-183474.0	-1926.0	19500.0
27	15	34	23	738	169.0	-182850.0	-1927.0	19288.0
27	15	34	23	739	170.0	-182857.0	-1952.0	20309.0
27	15	34	23	739	171.0	-183582.0	-1962.0	21096.0
27	15	34	23	740	172.0	-185131.0	-1996.0	21558.0
27	15	34	23	740	173.0	-186226.0	-2007.0	21226.0
27	15	34	23	741	174.0	-187668.0	-2020.0	19759.0
27	15	34	23	742	175.0	-189805.0	-2029.0	18654.0
27	15	34	23	742	176.0	-191342.0	-2026.0	18942.0
27	15	34	23	743	177.0	-194354.0	-2031.0	19264.0
27	15	34	23	744	178.0	-196950.0	-2080.0	19519.0
27	15	34	23	744	179.0	-199496.0	-2092.0	18537.0
27	15	34	23	745	180.0	-202414.0	-2098.0	18401.0
27	15	34	23	745	181.0	-204094.0	-2114.0	18113.0
27	15	34	23	746	182.0	-205046.0	-2148.0	16973.0
27	15	34	23	747	183.0	-205451.0	-2158.0	9605.0
27	15	34	23	747	184.0	-205200.0	-2164.0	-132.0
27	15	34	23	748	185.0	-204367.0	-2187.0	-4022.0
27	15	34	23	748	186.0	-204276.0	-2210.0	-6523.0
27	15	34	23	749	187.0	-203629.0	-2230.0	-8436.0
27	15	34	23	750	188.0	-201727.0	-2226.0	-9141.0
27	15	34	23	750	189.0	-200779.0	-2230.0	-9241.0
27	15	34	23	751	190.0	-200356.0	-2269.0	-9127.0
27	15	34	23	751	191.0	-200466.0	-2272.0	-9201.0
27	15	34	23	752	192.0	-201088.0	-2285.0	-9584.0
27	15	34	23	752	193.0	-202472.0	-2311.0	-9142.0
27	15	34	23	753	194.0	-203251.0	-2327.0	-7636.0
27	15	34	23	754	195.0	-204064.0	-2352.0	-7429.0
27	15	34	23	754	196.0	-204205.0	-2390.0	-7066.0
27	15	34	23	755	197.0	-204891.0	-2397.0	-7086.0
27	15	34	23	763	198.0	-206022.0	-2403.0	-7606.0
27	15	34	23	763	199.0	-205678.0	-2432.0	-7409.0
27	15	34	23	764	200.0	-204676.0	-2462.0	-7978.0
27	15	34	23	764	201.0	-203687.0	-2472.0	-8372.0
27	15	34	23	765	202.0	-201438.0	-2497.0	-7911.0
27	15	34	23	766	203.0	-199580.0	-2514.0	-7504.0
27	15	34	23	785	204.0	-198181.0	-2531.0	-7227.0
27	15	34	23	786	205.0	-196044.0	-2547.0	-6693.0
27	15	34	23	786	206.0	-194261.0	-2583.0	-6234.0
27	15	34	23	787	207.0	-192703.0	-2596.0	-5156.0
27	15	34	23	788	208.0	-191060.0	-2616.0	-4487.0
27	15	34	23	788	209.0	-189568.0	-2643.0	-4540.0
27	15	34	23	789	210.0	-188737.0	-2665.0	-4378.0
27	15	34	23	790	211.0	-188747.0	-2689.0	-4908.0
27	15	34	23	790	212.0	-189375.0	-2722.0	-6294.0
27	15	34	23	791	213.0	-190699.0	-2734.0	-6485.0
27	15	34	23	791	214.0	-192262.0	-2761.0	-6356.0
27	15	34	23	792	215.0	-193849.0	-2797.0	-5848.0
27	15	34	23	793	216.0	-195549.0	-2833.0	-5241.0
27	15	34	23	793	217.0	-197449.0	-2866.0	-5381.0
27	15	34	23	794	218.0	-198989.0	-2880.0	-5147.0
27	15	34	23	794	219.0	-199574.0	-2899.0	-3822.0
27	15	34	23	795	220.0	-199923.0	-2926.0	-2566.0
27	15	34	23	807	221.0	-200076.0	-2958.0	-3385.0
27	15	34	23	807	222.0	-200916.0	-3002.0	-4228.0
27	15	34	23	808	223.0	-201857.0	-3027.0	-4609.0
27	15	34	23	808	224.0	-202900.0	-3059.0	-4999.0
27	15	34	23	809	225.0	-203813.0	-3084.0	-4447.0
27	15	34	23	830	226.0	-203342.0	-3107.0	-4727.0
27	15	34	23	830	227.0	-201921.0	-3137.0	-4826.0
27	15	34	23	831	228.0	-200054.0	-3160.0	-4904.0
27	15	34	23	832	229.0	-197726.0	-3177.0	-4679.0
27	15	34	23	833	230.0	-195719.0	-3201.0	-3714.0
27	15	34	23	833	231.0	-193391.0	-3247.0	-3622.0
27	15	34	23	834	232.0	-191392.0	-3277.0	-2829.0
27	15	34	23	834	233.0	-190386.0	-3316.0	-2075.0
27	15	34	23	835	234.0	-190582.0	-3344.0	-2050.0
27	15	34	23	836	235.0	-191640.0	-3373.0	-2008.0
27	15	34	23	836	236.0	-192832.0	-3402.0	-1447.0
27	15	34	23	837	237.0	-194089.0	-3434.0	-1384.0
27	15	34	23	837	238.0	-194955.0	-3476.0	-271.0
27	15	34	23	838	239.0	-196052.0	-3499.0	995.0
27	15	34	23	839	240.0	-197519.0	-3521.0	1573.0
27	15	34	23	854	241.0	-199177.0	-3565.0	2040.0
27	15	34	23	855	242.0	-200992.0	-3592.0	1748.0
27	15	34	23	855	243.0	-202627.0	-3617.0	580.0
27	15	34	23	856	244.0	-204634.0	-3654.0	-850.0
27	15	34	23	857	245.0	-206055.0	-3712.0	-1492.0
27	15	34	23	857	246.0	-207004.0	-3730.0	-1721.0
27	15	34	23	858	247.0	-207368.0	-3741.0	-3367.0
27	15	34	23	858	248.0	-206091.0	-3794.0	-4758.0
27	15	34	23	859	249.0	-203757.0	-3834.0	-3357.0
27	15	34	23	877	250.0	-201628.0	-3854.0	1666.0
27	15	34	23	878	251.0	-198233.0	-3896.0	9607.0
27	15	34	23	878	252.0	-194259.0	-3916.0	17342.0
27	15	34	23	879	253.0	-190819.0	-3959.0	23499.0
27	15	34	23	879	254.0	-188091.0	-4000.0	30111.0
27	15	34	23	880	255.0	-185686.0	-4030.0	35585.0
27	15	34	23	881	0.0	-183780.0	-4075.0	39626.0
27	15	34	23	881	1.0	-182946.0	-4109.0	41075.0
27	15	34	23	882	2.0	-183288.0	-4155.0	38729.0
27	15	34	23	882	3.0	-185146.0	-4179.0	36756.0
27	15	34	23	883	4.0	-188083.0	-4221.0	36071.0
27	15	34	23	883	5.0	-191248.0	-4266.0	34681.0
27	15	34	23	884	6.0	-194718.0	-4293.0	33305.0
27	15	34	23	885	7.0	-198204.0	-4336.0	30703.0
27	15	34	23	885	8.0	-201371.0	-4364.0	27586.0
27	15	34	23	903	9.0	-204506.0	-4395.0	24527.0
27	15	34	23	903	10.0	-207312.0	-4431.0	21462.0
27	15	34	23	904	11.0	-210081.0	-4476.0	18803.0
27	15	34	23	905	12.0	-212978.0	-4506.0	16689.0
27	15	34	23	905	13.0	-215092.0	-4529.0	15173.0
27	15	34	23	906	14.0	-217552.0	-4577.0	13793.0
27	15	34	23	907	15.0	-219667.0	-4614.0	12368.0
27	15	34	23	907	16.0	-220001.0	-4654.0	11824.0
27	15	34	23	908	17.0	-218227.0	-4692.0	12069.0
27	15	34	23	908	18.0	-213146.0	-4724.0	12573.0
27	15	34	23	926	19.0	-203877.0	-4748.0	12839.0
27	15	34	23	926	20.0	-190303.0	-4802.0	12968.0
27	15	34	23	927	21.0	-175114.0	-4829.0	13239.0
27	15	34	23	927	22.0	-161087.0	-4871.0	14162.0
27	15	34	23	928	23.0	-150539.0	-4891.0	15023.0
27	15	34	23	928	24.0	-146293.0	-4919.0	15341.0
27	15	34	23	929	25.0	-151127.0	-4959.0	14451.0
27	15	34	23	930	26.0	-166230.0	-4999.0	13049.0
27	15	34	23	930	27.0	-190665.0	-5015.0	12481.0
27	15	34	23	948	28.0	-219071.0	-5067.0	11893.0
27	15	34	23	949	29.0	-247679.0	-5109.0	11279.0
27	15	34	23	949	30.0	-269230.0	-5157.0	10208.0
27	15	34	23	950	31.0	-284255.0	-5174.0	11356.0
27	15	34	23	951	32.0	-293716.0	-5206.0	12477.0
27	15	34	23	951	33.0	-289276.0	-5242.0	13421.0
27	15	34	23	952	34.0	-271906.0	-5255.0	14431.0
27	15	34	23	953	35.0	-248917.0	-5299.0	16199.0
27	15	34	23	953	36.0	-223358.0	-5340.0	16579.0
27	15	34	23	954	37.0	-198102.0	-5376.0	16824.0
27	15	34	23	954	38.0	-175349.0	-5406.0	16574.0
27	15	34	23	955	39.0	-157329.0	-5439.0	16612.0
27	15	34	23	955	40.0	-145803.0	-5469.0	16537.0
27	15	34	23	956	41.0	-141772.0	-5503.0	16182.0
27	15	34	23	957	42.0	-145671.0	-5536.0	16358.0
27	15	34	23	957	43.0	-157687.0	-5578.0	16286.0
27	15	34	23	958	44.0	-173963.0	-5601.0	16259.0
27	15	34	23	971	45.0	-188847.0	-5646.0	16721.0
27	15	34	23	971	46.0	-200132.0	-5672.0	17383.0
27	15	34	23	972	47.0	-208097.0	-5710.0	17471.0
27	15	34	23	972	48.0	-213298.0	-5751.0	17283.0
27	15	34	23	973	49.0	-216371.0	-5772.0	16436.0
27	15	34	23	974	50.0	-216957.0	-5821.0	16631.0
27	15	34	23	974	51.0	-213977.0	-5874.0	17723.0
27	15	34	23	975	52.0	-208891.0	-5908.0	17784.0
27	15	34	23	994	53.0	-203429.0	-5948.0	18234.0
27	15	34	23	995	54.0	-197834.0	-5989.0	16888.0
27	15	34	23	996	55.0	-193529.0	-6033.0	14936.0
27	15	34	23	996	56.0	-190476.0	-6057.0	12693.0
27	15	34	23	997	57.0	-188691.0	-6114.0	11056.0
27	15	34	23	997	58.0	-187859.0	-6152.0	10906.0
27	15	34	23	998	59.0	-188067.0	-6210.0	10753.0
27	15	34	23	999	60.0	-189403.0	-6232.0	11391.0
27	15	34	23	999	61.0	-191121.0	-6264.0	12321.0
27	15	34	24	0	62.0	-192091.0	-6284.0	13875.0
27	15	34	24	0	63.0	-192566.0	-6343.0	13636.0
27	15	34	24	1	64.0	-192076.0	-6381.0	12697.0
27	15	34	24	1	65.0	-190964.0	-6420.0	12004.0
27	15	34	24	17	66.0	-189399.0	-6460.0	12969.0
27	15	34	24	18	67.0	-187451.0	-6527.0	14413.0
27	15	34	24	19	68.0	-185801.0	-6558.0	14883.0
27	15	34	24	19	69.0	-184636.0	-6602.0	16330.0
27	15	34	24	20	70.0	-183594.0	-6660.0	17428.0
27	15	34	24	20	71.0	-182771.0	-6719.0	17683.0
27	15	34	24	21	72.0	-182595.0	-6752.0	18111.0
27	15	34	24	21	73.0	-182354.0	-6780.0	18513.0
27	15	34	24	22	74.0	-182172.0	-6829.0	18384.0
27	15	34	24	23	75.0	-182193.0	-6893.0	17039.0
27	15	34	24	41	76.0	-183244.0	-6927.0	17081.0
27	15	34	24	41	77.0	-184365.0	-6969.0	17884.0
27	15	34	24	42	78.0	-185834.0	-7016.0	17758.0
27	15	34	24	43	79.0	-187357.0	-7056.0	16621.0
27	15	34	24	43	80.0	-188438.0	-7098.0	15209.0
27	15	34	24	44	81.0	-189767.0	-7146.0	14333.0
27	15	34	24	44	82.0	-191199.0	-7205.0	14476.0
27	15	34	24	45	83.0	-191447.0	-7250.0	14821.0
27	15	34	24	46	84.0	-191359.0	-7289.0	14354.0
27	15	34	24	46	85.0	-191314.0	-7354.0	13544.0
27	15	34	24	47	86.0	-190694.0	-7397.0	12746.0
27	15	34	24	47	87.0	-189547.0	-7429.0	12389.0
27	15	34	24	48	88.0	-188256.0	-7479.0	11956.0
27	15	34	24	48	89.0	-186401.0	-7527.0	11699.0
27	15	34	24	64	90.0	-184555.0	-7574.0	10296.0
27	15	34	24	65	91.0	-183161.0	-7638.0	10014.0
27	15	34	24	65	92.0	-182164.0	-7689.0	10344.0
27	15	34	24	66	93.0	-182002.0	-7729.0	10353.0
27	15	34	24	66	94.0	-183176.0	-7782.0	9538.0
27	15	34	24	67	95.0	-185444.0	-7816.0	9406.0
27	15	34	24	68	96.0	-187772.0	-7849.0	10094.0
27	15	34	24	68	97.0	-190347.0	-7871.0	11328.0
27	15	34	24	87	98.0	-193336.0	-7904.0	12323.0
27	15	34	24	88	99.0	-196221.0	-7958.0	11734.0
27	15	34	24	89	100.0	-198424.0	-8011.0	11959.0
27	15	34	24	90	101.0	-199609.0	-8041.0	12451.0
27	15	34	24	90	102.0	-199817.0	-8071.0	13163.0
27	15	34	24	91	103.0	-199905.0	-8097.0	13129.0
27	15	34	24	92	104.0	-200271.0	-8124.0	13596.0
27	15	34	24	92	105.0	-200840.0	-8144.0	13689.0
27	15	34	24	93	106.0	-201637.0	-8189.0	13631.0
27	15	34	24	94	107.0	-201936.0	-8209.0	13564.0
27	15	34	24	94	108.0	-201852.0	-8217.0	14139.0
27	15	34	24	95	109.0	-201659.0	-8252.0	13501.0
27	15	34	24	95	110.0	-201089.0	-8247.0	12281.0
27	15	34	24	96	111.0	-200016.0	-8253.0	12476.0
27	15	34	24	97	112.0	-198726.0	-8279.0	13068.0
27	15	34	24	97	113.0	-197388.0	-8263.0	13496.0
27	15	34	24	98	114.0	-195581.0	-8291.0	14242.0
27	15	34	24	98	115.0	-194106.0	-8287.0	13852.0
27	15	34	24	111	116.0	-192771.0	-8278.0	12811.0
27	15	34	24	112	117.0	-191723.0	-8281.0	11310.0
27	15	34	24	135	118.0	-191081.0	-8272.0	10435.0
27	15	34	24	136	119.0	-190755.0	-8264.0	11066.0
27	15	34	24	136	120.0	-190578.0	-8234.0	11816.0
27	15	34	24	137	121.0	-190799.0	-8200.0	12358.0
27	15	34	24	137	122.0	-191146.0	-8173.0	12874.0
27	15	34	24	138	123.0	-191206.0	-8153.0	12678.0
27	15	34	24	139	124.0	-191722.0	-8125.0	12844.0
27	15	34	24	139	125.0	-192758.0	-8093.0	13342.0
27	15	34	24	140	126.0	-194218.0	-8049.0	13518.0
27	15	34	24	140	127.0	-195945.0	-8027.0	13384.0
27	15	34	24	141	128.0	-197427.0	-7988.0	13511.0
27	15	34	24	141	129.0	-199267.0	-7938.0	14561.0
27	15	34	24	142	130.0	-201237.0	-7902.0	15146.0
27	15	34	24	143	131.0	-203298.0	-7847.0	15876.0
27	15	34	24	143	132.0	-206071.0	-7776.0	16139.0
27	15	34	24	144	133.0	-209087.0	-7736.0	16533.0
27	15	34	24	144	134.0	-212337.0	-7697.0	16986.0
27	15	34	24	162	135.0	-216374.0	-7627.0	17770.0
27	15	34	24	163	136.0	-220894.0	-7573.0	18703.0
27	15	34	24	163	137.0	-224801.0	-7532.0	19380.0
27	15	34	24	164	138.0	-227739.0	-7479.0	19315.0
27	15	34	24	165	139.0	-230361.0	-7404.0	18851.0
27	15	34	24	165	140.0	-232159.0	-7339.0	18524.0
27	15	34	24	166	141.0	-232794.0	-7272.0	18686.0
27	15	34	24	167	142.0	-232919.0	-7214.0	19094.0
27	15	34	24	167	143.0	-232782.0	-7143.0	19046.0
27	15	34	24	168	144.0	-232464.0	-7091.0	18335.0
27	15	34	24	169	145.0	-231912.0	-7024.0	18154.0
27	15	34	24	169	146.0	-230749.0	-6971.0	18198.0
27	15	34	24	170	147.0	-229204.0	-6907.0	18066.0
27	15	34	24	171	148.0	-227857.0	-6846.0	17611.0
27	15	34	24	171	149.0	-226156.0	-6789.0	17114.0
27	15	34	24	172	150.0	-224137.0	-6725.0	16898.0
27	15	34	24	172	151.0	-221712.0	-6653.0	16733.0
27	15	34	24	173	152.0	-218457.0	-6587.0	17865.0
27	15	34	24	192	153.0	-214806.0	-6553.0	18596.0
27	15	34	24	193	154.0	-211559.0	-6486.0	19314.0
27	15	34	24	194	155.0	-208444.0	-6426.0	19868.0
27	15	34	24	194	156.0	-205231.0	-6385.0	19455.0
27	15	34	24	195	157.0	-201874.0	-6329.0	18366.0
27	15	34	24	196	158.0	-198294.0	-6270.0	17593.0
27	15	34	24	196	159.0	-194837.0	-6208.0	16911.0
27	15	34	24	197	160.0	-190766.0	-6155.0	16526.0
27	15	34	24	198	161.0	-185041.0	-6091.0	16437.0
27	15	34	24	199	162.0	-176794.0	-6017.0	17495.0
27	15	34	24	199	163.0	-163907.0	-5981.0	18458.0
27	15	34	24	200	164.0	-152680.0	-5921.0	19017.0
27	15	34	24	201	165.0	-155454.0	-5864.0	20005.0
27	15	34	24	201	166.0	-169765.0	-5809.0	20325.0
27	15	34	24	202	167.0	-190161.0	-5747.0	21308.0
27	15	34	24	213	168.0	-207270.0	-5704.0	22954.0
27	15	34	24	214	169.0	-216855.0	-5667.0	23128.0
27	15	34	24	214	170.0	-220395.0	-5607.0	22949.0
27	15	34	24	237	171.0	-219969.0	-5557.0	23221.0
27	15	34	24	238	172.0	-217415.0	-5506.0	24052.0
27	15	34	24	238	173.0	-213161.0	-5446.0	24821.0
27	15	34	24	239	174.0	-208042.0	-5391.0	24659.0
27	15	34	24	239	175.0	-203377.0	-5342.0	24279.0
27	15	34	24	240	176.0	-197869.0	-5286.0	24121.0
27	15	34	24	241	177.0	-193164.0	-5232.0	23889.0
27	15	34	24	241	178.0	-189951.0	-5174.0	23314.0
27	15	34	24	242	179.0	-189062.0	-5135.0	22946.0
27	15	34	24	242	180.0	-191584.0	-5081.0	23198.0
27	15	34	24	243	181.0	-196609.0	-5026.0	23515.0
27	15	34	24	243	182.0	-202647.0	-4985.0	23256.0
27	15	34	24	244	183.0	-207808.0	-4941.0	23276.0
27	15	34	24	244	184.0	-210774.0	-4892.0	23909.0
27	15	34	24	245	185.0	-211136.0	-4834.0	24254.0
27	15	34	24	246	186.0	-209164.0	-4784.0	25173.0
27	15	34	24	267	187.0	-205698.0	-4732.0	26046.0
27	15	34	24	268	188.0	-200581.0	-4679.0	25901.0
27	15	34	24	269	189.0	-195673.0	-4644.0	25154.0
27	15	34	24	270	190.0	-191851.0	-4576.0	23969.0
27	15	34	24	272	191.0	-189323.0	-4543.0	23724.0
27	15	34	24	273	192.0	-188613.0	-4507.0	24916.0
27	15	34	24	274	193.0	-190391.0	-4437.0	26039.0
27	15	34	24	274	194.0	-194049.0	-4389.0	25995.0
27	15	34	24	275	195.0	-199763.0	-4340.0	25340.0
27	15	34	24	276	196.0	-206399.0	-4309.0	23651.0
27	15	34	24	276	197.0	-212204.0	-4272.0	23449.0
27	15	34	24	277	198.0	-216886.0	-4204.0	24081.0
27	15	34	24	277	199.0	-220414.0	-4147.0	24251.0
27	15	34	24	278	200.0	-221953.0	-4111.0	24321.0
27	15	34	24	279	201.0	-221978.0	-4076.0	24061.0
27	15	34	24	279	202.0	-220448.0	-4056.0	23593.0
27	15	34	24	280	203.0	-218404.0	-4017.0	23191.0
27	15	34	24	281	204.0	-215944.0	-3969.0	22897.0
27	15	34	24	281	205.0	-213114.0	-3932.0	22803.0
27	15	34	24	282	206.0	-210279.0	-3901.0	21780.0
27	15	34	24	283	207.0	-207076.0	-3881.0	21356.0
27	15	34	24	283	208.0	-204064.0	-3840.0	20196.0
27	15	34	24	297	209.0	-201822.0	-3810.0	19593.0
27	15	34	24	298	210.0	-200316.0	-3779.0	19448.0
27	15	34	24	298	211.0	-199381.0	-3760.0	20548.0
27	15	34	24	299	212.0	-198877.0	-3740.0	22052.0
27	15	34	24	300	213.0	-199095.0	-3709.0	22239.0
27	15	34	24	300	214.0	-200299.0	-3692.0	21891.0
27	15	34	24	301	215.0	-201329.0	-3677.0	21492.0
27	15	34	24	302	216.0	-202702.0	-3642.0	21028.0
27	15	34	24	302	217.0	-204995.0	-3616.0	20673.0
27	15	34	24	314	218.0	-208022.0	-3589.0	21440.0
27	15	34	24	314	219.0	-211392.0	-3577.0	20811.0
27	15	34	24	315	220.0	-214708.0	-3554.0	19824.0
27	15	34	24	342	221.0	-217867.0	-3537.0	18971.0
27	15	34	24	342	222.0	-219760.0	-3532.0	18798.0
27	15	34	24	343	223.0	-220305.0	-3528.0	18096.0
27	15	34	24	344	224.0	-219877.0	-3525.0	17961.0
27	15	34	24	344	225.0	-218303.0	-3504.0	19159.0
27	15	34	24	345	226.0	-215991.0	-3490.0	18897.0
27	15	34	24	346	227.0	-213219.0	-3484.0	17821.0
27	15	34	24	347	228.0	-210842.0	-3478.0	17289.0
27	15	34	24	347	229.0	-208906.0	-3473.0	17883.0
27	15	34	24	348	230.0	-206399.0	-3462.0	18754.0
27	15	34	24	349	231.0	-204241.0	-3461.0	19299.0
27	15	34	24	349	232.0	-202647.0	-3471.0	20100.0
27	15	34	24	350	233.0	-201058.0	-3470.0	20798.0
27	15	34	24	351	234.0	-199861.0	-3474.0	21941.0
27	15	34	24	351	235.0	-198584.0	-3469.0	22954.0
27	15	34	24	352	238.0	-197010.0	-3449.0	22732.0
27	15	34	24	353	239.0	-197291.0	-3457.0	22485.0
27	15	34	24	353	240.0	-197337.0	-3456.0	21732.0
27	15	34	24	354	241.0	-197620.0	-3469.0	21073.0
27	15	34	24	363	242.0	-197634.0	-3487.0	20788.0
27	15	34	24	364	243.0	-197632.0	-3479.0	21371.0
27	15	34	24	365	244.0	-196987.0	-3472.0	21589.0
27	15	34	24	365	245.0	-196077.0	-3485.0	21193.0
27	15	34	24	375	246.0	-194786.0	-3505.0	20595.0
27	15	34	24	377	247.0	-193021.0	-3497.0	19649.0
27	15	34	24	379	248.0	-191902.0	-3494.0	18586.0
27	15	34	24	380	249.0	-191311.0	-3509.0	17458.0
27	15	34	24	381	250.0	-190959.0	-3505.0	16957.0
27	15	34	24	382	251.0	-190814.0	-3509.0	16661.0
27	15	34	24	382	252.0	-190677.0	-3512.0	16571.0
27	15	34	24	383	253.0	-190786.0	-3516.0	16274.0
27	15	34	24	384	254.0	-191305.0	-3528.0	15994.0
27	15	34	24	392	255.0	-192485.0	-3525.0	15966.0
27	15	34	24	392	0.0	-194646.0	-3521.0	15910.0
27	15	34	24	393	1.0	-197694.0	-3530.0	15105.0
27	15	34	24	394	2.0	-201092.0	-3538.0	13469.0
27	15	34	24	394	3.0	-204623.0	-3542.0	12538.0
27	15	34	24	395	4.0	-207987.0	-3541.0	13704.0
27	15	34	24	395	5.0	-210997.0	-3546.0	14997.0
27	15	34	24	417	6.0	-213414.0	-3556.0	14966.0
27	15	34	24	417	7.0	-215277.0	-3575.0	13907.0
27	15	34	24	418	8.0	-217504.0	-3577.0	12882.0
27	15	34	24	419	9.0	-219887.0	-3561.0	12694.0
27	15	34	24	419	10.0	-221982.0	-3564.0	13111.0
27	15	34	24	420	11.0	-223727.0	-3579.0	13562.0
27	15	34	24	421	12.0	-224802.0	-3592.0	12928.0
27	15	34	24	421	13.0	-225589.0	-3591.0	12499.0
27	15	34	24	422	14.0	-225714.0	-3585.0	13269.0
27	15	34	24	423	15.0	-225010.0	-3590.0	14059.0
27	15	34	24	423	16.0	-223813.0	-3622.0	15246.0
27	15	34	24	424	17.0	-222448.0	-3639.0	16396.0
27	15	34	24	424	18.0	-221391.0	-3633.0	17359.0
27	15	34	24	425	19.0	-220440.0	-3631.0	17546.0
27	15	34	24	426	20.0	-219385.0	-3651.0	16745.0
27	15	34	24	426	21.0	-217974.0	-3677.0	16813.0
27	15	34	24	427	22.0	-215714.0	-3685.0	16851.0
27	15	34	24	427	23.0	-213011.0	-3689.0	16367.0
27	15	34	24	428	24.0	-210421.0	-3670.0	16196.0
27	15	34	24	438	25.0	-207692.0	-3697.0	16296.0
27	15	34	24	439	26.0	-204703.0	-3709.0	16306.0
27	15	34	24	461	27.0	-201228.0	-3714.0	16829.0
27	15	34	24	462	28.0	-197251.0	-3737.0	17659.0
27	15	34	24	462	29.0	-193125.0	-3743.0	17680.0
27	15	34	24	463	30.0	-189182.0	-3760.0	17675.0
27	15	34	24	463	31.0	-185504.0	-3769.0	18123.0
27	15	34	24	464	32.0	-182426.0	-3757.0	18236.0
27	15	34	24	464	33.0	-179879.0	-3777.0	18277.0
27	15	34	24	465	34.0	-177500.0	-3797.0	18573.0
27	15	34	24	466	35.0	-175021.0	-3786.0	18809.0
27	15	34	24	466	36.0	-172352.0	-3792.0	19023.0
27	15	34	24	467	37.0	-169568.0	-3818.0	18781.0
27	15	34	24	467	38.0	-167130.0	-3832.0	18683.0
27	15	34	24	468	39.0	-164853.0	-3855.0	18613.0
27	15	34	24	468	40.0	-162660.0	-3864.0	18288.0
27	15	34	24	469	41.0	-161321.0	-3885.0	18245.0
27	15	34	24	469	42.0	-161036.0	-3902.0	17978.0
27	15	34	24	470	43.0	-161284.0	-3902.0	17032.0
27	15	34	24	491	44.0	-161994.0	-3901.0	16616.0
27	15	34	24	492	45.0	-162687.0	-3912.0	16533.0
27	15	34	24	492	46.0	-163549.0	-3929.0	15546.0
27	15	34	24	493	47.0	-164975.0	-3951.0	14671.0
27	15	34	24	493	48.0	-167129.0	-3957.0	14234.0
27	15	34	24	494	49.0	-170056.0	-3956.0	13340.0
27	15	34	24	494	50.0	-173883.0	-3971.0	13128.0
27	15	34	24	511	51.0	-178209.0	-3979.0	12909.0
27	15	34	24	511	52.0	-183284.0	-3992.0	12301.0
27	15	34	24	512	53.0	-189072.0	-4021.0	12595.0
27	15	34	24	512	54.0	-194402.0	-4035.0	16466.0
27	15	34	24	513	55.0	-199403.0	-4041.0	17721.0
27	15	34	24	513	56.0	-203897.0	-4056.0	17264.0
27	15	34	24	514	57.0	-207951.0	-4087.0	16559.0
27	15	34	24	514	58.0	-212284.0	-4121.0	15121.0
27	15	34	24	515	59.0	-216574.0	-4124.0	14526.0
27	15	34	24	515	60.0	-220342.0	-4147.0	15818.0
27	15	34	24	516	61.0	-223002.0	-4154.0	19293.0
27	15	34	24	517	62.0	-224494.0	-4162.0	25168.0
27	15	34	24	517	63.0	-225221.0	-4197.0	31864.0
27	15	34	24	518	64.0	-225295.0	-4201.0	37149.0
27	15	34	24	535	65.0	-224699.0	-4227.0	42706.0
27	15	34	24	535	66.0	-223564.0	-4262.0	48564.0
27	15	34	24	536	67.0	-222664.0	-4275.0	53415.0
27	15	34	24	537	68.0	-221737.0	-4310.0	55608.0
27	15	34	24	537	69.0	-220586.0	-4336.0	54432.0
27	15	34	24	538	70.0	-219109.0	-4349.0	52194.0
27	15	34	24	538	71.0	-217877.0	-4344.0	50521.0
27	15	34	24	539	72.0	-217300.0	-4361.0	48393.0
27	15	34	24	539	73.0	-217258.0	-4379.0	46757.0
27	15	34	24	540	74.0	-217674.0	-4400.0	44634.0
27	15	34	24	541	75.0	-217193.0	-4421.0	41295.0
27	15	34	24	541	76.0	-216584.0	-4444.0	37130.0
27	15	34	24	542	77.0	-215915.0	-4466.0	32846.0
27	15	34	24	542	78.0	-214938.0	-4479.0	28860.0
27	15	34	24	543	79.0	-214161.0	-4505.0	26018.0
27	15	34	24	543	80.0	-213146.0	-4541.0	23201.0
27	15	34	24	557	81.0	-211666.0	-4558.0	20861.0
27	15	34	24	581	82.0	-210260.0	-4567.0	18901.0
27	15	34	24	582	83.0	-208599.0	-4586.0	17362.0
27	15	34	24	582	84.0	-203406.0	-4606.0	17400.0
27	15	34	24	583	85.0	-193469.0	-4641.0	17564.0
27	15	34	24	583	86.0	-180111.0	-4664.0	17192.0
27	15	34	24	584	87.0	-164442.0	-4692.0	16937.0
27	15	34	24	585	88.0	-150238.0	-4702.0	17200.0
27	15	34	24	585	89.0	-141120.0	-4696.0	17186.0
27	15	34	24	586	90.0	-136541.0	-4724.0	17036.0
27	15	34	24	586	91.0	-138919.0	-4760.0	17270.0
27	15	34	24	587	92.0	-150510.0	-4782.0	18301.0
27	15	34	24	587	93.0	-171808.0	-4802.0	18613.0
27	15	34	24	588	94.0	-198847.0	-4817.0	18586.0
27	15	34	24	588	95.0	-227736.0	-4836.0	18241.0
27	15	34	24	589	96.0	-250356.0	-4869.0	17674.0
27	15	34	24	589	97.0	-265341.0	-4875.0	18076.0
27	15	34	24	590	98.0	-276048.0	-4900.0	18339.0
27	15	34	24	591	99.0	-274019.0	-4923.0	18251.0
27	15	34	24	591	100.0	-256736.0	-4957.0	17522.0
27	15	34	24	592	101.0	-231008.0	-4999.0	16409.0
27	15	34	24	603	102.0	-201776.0	-5032.0	15144.0
27	15	34	24	604	103.0	-172573.0	-5045.0	14425.0
27	15	34	24	605	104.0	-146621.0	-5049.0	14738.0
27	15	34	24	605	105.0	-127578.0	-5084.0	14539.0
27	15	34	24	606	106.0	-118926.0	-5092.0	14108.0
27	15	34	24	606	107.0	-120740.0	-5115.0	14491.0
27	15	34	24	607	108.0	-131484.0	-5149.0	15231.0
27	15	34	24	607	109.0	-148207.0	-5180.0	15283.0
27	15	34	24	608	110.0	-168211.0	-5201.0	15057.0
27	15	34	24	608	111.0	-188160.0	-5237.0	14998.0
27	15	34	24	626	112.0	-205497.0	-5267.0	14738.0
27	15	34	24	627	113.0	-218407.0	-5290.0	13661.0
27	15	34	24	627	114.0	-226171.0	-5304.0	13052.0
27	15	34	24	628	115.0	-230524.0	-5323.0	12993.0
27	15	34	24	628	116.0	-231867.0	-5354.0	13053.0
27	15	34	24	629	117.0	-229998.0	-5386.0	13028.0
27	15	34	24	630	118.0	-225306.0	-5404.0	13609.0
27	15	34	24	649	119.0	-219224.0	-5412.0	14650.0
27	15	34	24	650	120.0	-213659.0	-5451.0	15040.0
27	15	34	24	650	121.0	-209964.0	-5494.0	14916.0
27	15	34	24	651	122.0	-208165.0	-5518.0	15187.0
27	15	34	24	651	123.0	-208883.0	-5548.0	14993.0
27	15	34	24	652	124.0	-211277.0	-5571.0	15053.0
27	15	34	24	652	125.0	-214464.0	-5594.0	14735.0
27	15	34	24	653	126.0	-217737.0	-5642.0	14721.0
27	15	34	24	654	127.0	-220217.0	-5655.0	14551.0
27	15	34	24	654	128.0	-221524.0	-5680.0	14739.0
27	15	34	24	655	129.0	-220997.0	-5699.0	15204.0
27	15	34	24	655	130.0	-218508.0	-5740.0	15103.0
27	15	34	24	656	131.0	-214156.0	-5773.0	15379.0
27	15	34	24	656	132.0	-208186.0	-5809.0	15281.0
27	15	34	24	657	133.0	-202028.0	-5856.0	14523.0
27	15	34	24	658	134.0	-195842.0	-5877.0	14287.0
27	15	34	24	658	135.0	-189290.0	-5911.0	13349.0
27	15	34	24	659	136.0	-182324.0	-5952.0	13449.0
27	15	34	24	659	137.0	-176019.0	-5991.0	13630.0
27	15	34	24	660	138.0	-170773.0	-6010.0	13336.0
27	15	34	24	660	139.0	-166817.0	-6036.0	12879.0
27	15	34	24	672	140.0	-164222.0	-6079.0	12622.0
27	15	34	24	673	141.0	-163352.0	-6113.0	12491.0
27	15	34	24	674	142.0	-164062.0	-6157.0	12109.0
27	15	34	24	674	143.0	-165599.0	-6182.0	12434.0
27	15	34	24	675	144.0	-167681.0	-6206.0	13379.0
27	15	34	24	675	145.0	-170201.0	-6251.0	13391.0
27	15	34	24	676	146.0	-172750.0	-6277.0	12087.0
27	15	34	24	676	147.0	-175436.0	-6314.0	11444.0
27	15	34	24	677	148.0	-177958.0	-6367.0	11419.0
27	15	34	24	698	149.0	-180393.0	-6398.0	10489.0
27	15	34	24	699	150.0	-182623.0	-6429.0	9752.0
27	15	34	24	699	151.0	-185076.0	-6467.0	9070.0
27	15	34	24	700	152.0	-187819.0	-6497.0	7561.0
27	15	34	24	701	153.0	-190193.0	-6538.0	6599.0
27	15	34	24	701	154.0	-192257.0	-6574.0	5841.0
27	15	34	24	702	155.0	-193751.0	-6613.0	5979.0
27	15	34	24	702	156.0	-195721.0	-6647.0	6600.0
27	15	34	24	703	157.0	-197734.0	-6669.0	5951.0
27	15	34	24	703	158.0	-199634.0	-6701.0	5527.0
27	15	34	24	704	159.0	-201252.0	-6739.0	6133.0
27	15	34	24	705	160.0	-203031.0	-6781.0	6594.0
27	15	34	24	721	161.0	-204869.0	-6802.0	6334.0
27	15	34	24	722	162.0	-206989.0	-6809.0	5863.0
27	15	34	24	722	163.0	-209587.0	-6818.0	6346.0
27	15	34	24	723	164.0	-211257.0	-6834.0	7174.0
27	15	34	24	723	165.0	-211424.0	-6852.0	7154.0
27	15	34	24	724	166.0	-211024.0	-6871.0	6467.0
27	15	34	24	724	167.0	-210657.0	-6896.0	6405.0
27	15	34	24	725	168.0	-209074.0	-6901.0	6199.0
27	15	34	24	725	169.0	-207212.0	-6909.0	5999.0
27	15	34	24	726	170.0	-205862.0	-6931.0	5983.0
27	15	34	24	727	171.0	-205079.0	-6936.0	5118.0
27	15	34	24	743	172.0	-204245.0	-6926.0	4448.0
27	15	34	24	744	173.0	-203834.0	-6915.0	4476.0
27	15	34	24	745	174.0	-204368.0	-6922.0	4339.0
27	15	34	24	745	175.0	-205346.0	-6909.0	4662.0
27	15	34	24	746	176.0	-206517.0	-6904.0	4566.0
27	15	34	24	746	177.0	-207583.0	-6875.0	4971.0
27	15	34	24	747	178.0	-208270.0	-6840.0	5608.0
27	15	34	24	748	179.0	-208322.0	-6832.0	5555.0
27	15	34	24	748	180.0	-208060.0	-6841.0	4769.0
27	15	34	24	749	181.0	-207223.0	-6787.0	4316.0
27	15	34	24	749	182.0	-206273.0	-6754.0	4576.0
27	15	34	24	750	183.0	-205463.0	-6712.0	5645.0
27	15	34	24	751	184.0	-204752.0	-6669.0	7104.0
27	15	34	24	751	185.0	-203437.0	-6624.0	7478.0
27	15	34	24	766	186.0	-201317.0	-6571.0	6924.0
27	15	34	24	767	187.0	-199455.0	-6522.0	6298.0
27	15	34	24	768	188.0	-197931.0	-6442.0	6013.0
27	15	34	24	768	189.0	-196496.0	-6392.0	5639.0
27	15	34	24	769	190.0	-195735.0	-6341.0	5948.0
27	15	34	24	769	191.0	-195128.0	-6283.0	5399.0
27	15	34	24	770	192.0	-194924.0	-6223.0	4661.0
27	15	34	24	789	193.0	-195637.0	-6157.0	4902.0
27	15	34	24	790	194.0	-196826.0	-6079.0	6173.0
27	15	34	24	791	195.0	-198081.0	-6001.0	6471.0
27	15	34	24	791	196.0	-199429.0	-5907.0	7215.0
27	15	34	24	792	197.0	-201330.0	-5859.0	8264.0
27	15	34	24	793	198.0	-203326.0	-5787.0	8572.0
27	15	34	24	793	199.0	-205252.0	-5698.0	8382.0
27	15	34	24	794	200.0	-207331.0	-5606.0	8103.0
27	15	34	24	794	201.0	-208869.0	-5506.0	8583.0
27	15	34	24	795	202.0	-210464.0	-5418.0	9003.0
27	15	34	24	796	203.0	-212236.0	-5338.0	9262.0
27	15	34	24	796	204.0	-213348.0	-5241.0	9612.0
27	15	34	24	797	205.0	-214198.0	-5153.0	9835.0
27	15	34	24	797	206.0	-215234.0	-5081.0	9545.0
27	15	34	24	798	207.0	-215642.0	-4979.0	9251.0
27	15	34	24	813	208.0	-215565.0	-4897.0	9548.0
27	15	34	24	835	209.0	-216139.0	-4816.0	10559.0
27	15	34	24	836	210.0	-216652.0	-4747.0	11114.0
27	15	34	24	837	211.0	-217236.0	-4664.0	11095.0
27	15	34	24	837	212.0	-217438.0	-4580.0	11331.0
27	15	34	24	838	213.0	-217977.0	-4492.0	11548.0
27	15	34	24	838	214.0	-217897.0	-4387.0	11703.0
27	15	34	24	839	215.0	-216945.0	-4308.0	11436.0
27	15	34	24	839	216.0	-214942.0	-4213.0	11609.0
27	15	34	24	840	217.0	-212478.0	-4108.0	11504.0
27	15	34	24	841	218.0	-209769.0	-4029.0	11309.0
27	15	34	24	841	219.0	-207429.0	-3947.0	10812.0
27	15	34	24	842	220.0	-205099.0	-3864.0	10378.0
27	15	34	24	842	221.0	-202926.0	-3787.0	9913.0
27	15	34	24	843	222.0	-201197.0	-3692.0	9521.0
27	15	34	24	843	223.0	-198836.0	-3599.0	9704.0
27	15	34	24	844	224.0	-196151.0	-3498.0	10066.0
27	15	34	24	844	225.0	-193089.0	-3420.0	9512.0
27	15	34	24	845	226.0	-189387.0	-3329.0	8274.0
27	15	34	24	846	227.0	-185940.0	-3251.0	7270.0
27	15	34	24	846	228.0	-182814.0	-3177.0	6793.0
27	15	34	24	858	229.0	-180114.0	-3100.0	7280.0
27	15	34	24	859	230.0	-176959.0	-3012.0	7393.0
27	15	34	24	860	231.0	-172236.0	-2922.0	7494.0
27	15	34	24	860	232.0	-165408.0	-2832.0	7822.0
27	15	34	24	861	233.0	-155763.0	-2753.0	8667.0
27	15	34	24	861	234.0	-143827.0	-2666.0	9341.0
27	15	34	24	862	235.0	-140151.0	-2564.0	10057.0
27	15	34	24	863	236.0	-150878.0	-2477.0	9873.0
27	15	34	24	863	237.0	-169909.0	-2386.0	9746.0
27	15	34	24	864	238.0	-189870.0	-2299.0	9652.0
27	15	34	24	882	239.0	-204468.0	-2199.0	8781.0
27	15	34	24	883	240.0	-213973.0	-2106.0	8196.0
27	15	34	24	883	241.0	-218788.0	-2021.0	7328.0
27	15	34	24	884	242.0	-220566.0	-1919.0	6752.0
27	15	34	24	884	243.0	-220926.0	-1816.0	8479.0
27	15	34	24	885	244.0	-218644.0	-1745.0	10372.0
27	15	34	24	904	245.0	-214871.0	-1661.0	11220.0
27	15	34	24	905	246.0	-209768.0	-1554.0	12049.0
27	15	34	24	905	247.0	-204143.0	-1464.0	12731.0
27	15	34	24	906	248.0	-199433.0	-1381.0	13134.0
27	15	34	24	907	249.0	-196569.0	-1302.0	13175.0
27	15	34	24	907	250.0	-195773.0	-1186.0	13119.0
27	15	34	24	908	251.0	-196937.0	-1091.0	14206.0
27	15	34	24	908	252.0	-199452.0	-999.0	14954.0
27	15	34	24	909	253.0	-202436.0	-924.0	15617.0
27	15	34	24	910	254.0	-204559.0	-840.0	16338.0
27	15	34	24	910	255.0	-205216.0	-757.0	17213.0
27	15	34	24	911	0.0	-205714.0	-677.0	17579.0
27	15	34	24	911	1.0	-206532.0	-582.0	17260.0
27	15	34	24	912	2.0	-208229.0	-495.0	16268.0
27	15	34	24	913	3.0	-211046.0	-386.0	14591.0
27	15	34	24	913	4.0	-214424.0	-314.0	13358.0
27	15	34	24	914	5.0	-216651.0	-241.0	12907.0
27	15	34	24	914	6.0	-217744.0	-147.0	11892.0
27	15	34	24	915	7.0	-217916.0	-68.0	11189.0
27	15	34	24	915	8.0	-217557.0	13.0	10871.0
27	15	34	24	916	9.0	-216828.0	100.0	10633.0
27	15	34	24	917	10.0	-215724.0	164.0	10979.0
27	15	34	24	927	11.0	-214130.0	239.0	11541.0
27	15	34	24	928	12.0	-212522.0	329.0	11450.0
27	15	34	24	929	13.0	-210880.0	393.0	11016.0
27	15	34	24	929	14.0	-209047.0	473.0	11261.0
27	15	34	24	930	15.0	-207747.0	527.0	11064.0
27	15	34	24	930	16.0	-206926.0	594.0	10968.0
27	15	34	24	931	17.0	-206662.0	678.0	11892.0
27	15	34	24	931	18.0	-206169.0	760.0	13408.0
27	15	34	24	932	19.0	-205937.0	812.0	14218.0
27	15	34	24	950	20.0	-206126.0	871.0	13899.0
27	15	34	24	951	21.0	-206234.0	944.0	14814.0
27	15	34	24	951	22.0	-205665.0	1001.0	15734.0
27	15	34	24	952	23.0	-204444.0	1043.0	14894.0
27	15	34	24	953	24.0	-203033.0	1108.0	14228.0
27	15	34	24	953	25.0	-201598.0	1166.0	14468.0
27	15	34	24	954	26.0	-200239.0	1209.0	14880.0
27	15	34	24	974	27.0	-198779.0	1269.0	14460.0
27	15	34	24	975	28.0	-197356.0	1314.0	14142.0
27	15	34	24	976	29.0	-196117.0	1354.0	13634.0
27	15	34	24	977	30.0	-194833.0	1409.0	13343.0
27	15	34	24	977	31.0	-193510.0	1446.0	12713.0
27	15	34	24	978	32.0	-192448.0	1486.0	12063.0
27	15	34	24	979	33.0	-191288.0	1526.0	11626.0
27	15	34	24	979	34.0	-189889.0	1561.0	10004.0
27	15	34	24	980	35.0	-188619.0	1605.0	8508.0
27	15	34	24	980	36.0	-187885.0	1657.0	7754.0
27	15	34	24	981	37.0	-186958.0	1694.0	7396.0
27	15	34	24	982	38.0	-186204.0	1723.0	7205.0
27	15	34	24	982	39.0	-186088.0	1755.0	6827.0
27	15	34	24	983	40.0	-186055.0	1775.0	6024.0
27	15	34	24	983	41.0	-186441.0	1805.0	5277.0
27	15	34	24	984	42.0	-187503.0	1851.0	4594.0
27	15	34	24	985	43.0	-188452.0	1878.0	4462.0
27	15	34	24	985	44.0	-189657.0	1898.0	4691.0
27	15	34	24	986	45.0	-192002.0	1931.0	5289.0
27	15	34	24	986	46.0	-194896.0	1944.0	5736.0
27	15	34	24	987	47.0	-197861.0	1956.0	6028.0
27	15	34	25	2	48.0	-200427.0	1992.0	7183.0
27	15	34	25	2	49.0	-202308.0	2004.0	7549.0
27	15	34	25	3	50.0	-203542.0	2019.0	7843.0
27	15	34	25	4	51.0	-204654.0	2029.0	8348.0
27	15	34	25	4	52.0	-205454.0	2038.0	8886.0
27	15	34	25	5	53.0	-205679.0	2067.0	9186.0
27	15	34	25	6	54.0	-205466.0	2086.0	8119.0
27	15	34	25	6	55.0	-205880.0	2086.0	6597.0
27	15	34	25	7	56.0	-206155.0	2093.0	6071.0
27	15	34	25	7	57.0	-206194.0	2111.0	6369.0
27	15	34	25	24	58.0	-205903.0	2130.0	7169.0
27	15	34	25	24	59.0	-206037.0	2147.0	8230.0
27	15	34	25	25	60.0	-206184.0	2170.0	9123.0
27	15	34	25	26	61.0	-206072.0	2164.0	9397.0
27	15	34	25	26	62.0	-206291.0	2167.0	10033.0
27	15	34	25	27	63.0	-206724.0	2192.0	10481.0
27	15	34	25	47	64.0	-207304.0	2193.0	9396.0
27	15	34	25	48	65.0	-207814.0	2184.0	8410.0
27	15	34	25	49	66.0	-207716.0	2199.0	8444.0
27	15	34	25	49	67.0	-207482.0	2203.0	8973.0
27	15	34	25	50	68.0	-206690.0	2208.0	8731.0
27	15	34	25	51	69.0	-205781.0	2204.0	8633.0
27	15	34	25	51	70.0	-204856.0	2208.0	9331.0
27	15	34	25	52	71.0	-203918.0	2189.0	10381.0
27	15	34	25	53	72.0	-203211.0	2199.0	10746.0
27	15	34	25	53	73.0	-202409.0	2216.0	10499.0
27	15	34	25	54	74.0	-202211.0	2221.0	10383.0
27	15	34	25	55	75.0	-202486.0	2208.0	10779.0
27	15	34	25	55	76.0	-203094.0	2213.0	10571.0
27	15	34	25	56	77.0	-203711.0	2210.0	10733.0
27	15	34	25	56	78.0	-203470.0	2211.0	11212.0
27	15	34	25	57	79.0	-202609.0	2209.0	11027.0
27	15	34	25	58	80.0	-202146.0	2211.0	10933.0
27	15	34	25	58	81.0	-201859.0	2218.0	11503.0
27	15	34	25	70	82.0	-202017.0	2219.0	11412.0
27	15	34	25	70	83.0	-202914.0	2223.0	11601.0
27	15	34	25	71	84.0	-204248.0	2236.0	11946.0
27	15	34	25	72	85.0	-205197.0	2242.0	12125.0
27	15	34	25	96	86.0	-206086.0	2233.0	11909.0
27	15	34	25	97	87.0	-206889.0	2238.0	11793.0
27	15	34	25	98	88.0	-207876.0	2229.0	11148.0
27	15	34	25	99	89.0	-208599.0	2232.0	10799.0
27	15	34	25	99	90.0	-208805.0	2226.0	11639.0
27	15	34	25	100	91.0	-208706.0	2224.0	12932.0
27	15	34	25	101	92.0	-208832.0	2219.0	13851.0
27	15	34	25	101	93.0	-208631.0	2213.0	14339.0
27	15	34	25	102	94.0	-208758.0	2216.0	14320.0
27	15	34	25	102	95.0	-209417.0	2212.0	14074.0
27	15	34	25	103	96.0	-209952.0	2214.0	14909.0
27	15	34	25	104	97.0	-210713.0	2219.0	16289.0
27	15	34	25	104	98.0	-211260.0	2201.0	18528.0
27	15	34	25	105	99.0	-211292.0	2205.0	19366.0
27	15	34	25	106	100.0	-211384.0	2179.0	19331.0
27	15	34	25	106	101.0	-211231.0	2183.0	20189.0
27	15	34	25	123	102.0	-210993.0	2174.0	20480.0
27	15	34	25	124	103.0	-210684.0	2164.0	20652.0
27	15	34	25	124	104.0	-210303.0	2149.0	20763.0
27	15	34	25	125	105.0	-209733.0	2153.0	20856.0
27	15	34	25	126	106.0	-208772.0	2158.0	20888.0
27	15	34	25	126	107.0	-207528.0	2164.0	21039.0
27	15	34	25	127	108.0	-205997.0	2138.0	21796.0
27	15	34	25	128	109.0	-204179.0	2137.0	22412.0
27	15	34	25	128	110.0	-202168.0	2133.0	22501.0
27	15	34	25	129	111.0	-200278.0	2123.0	22214.0
27	15	34	25	130	112.0	-198625.0	2111.0	21833.0
27	15	34	25	130	113.0	-197254.0	2092.0	20988.0
27	15	34	25	131	114.0	-196320.0	2081.0	19997.0
27	15	34	25	131	115.0	-195177.0	2072.0	20555.0
27	15	34	25	132	116.0	-193826.0	2069.0	21449.0
27	15	34	25	133	117.0	-192260.0	2049.0	21899.0
27	15	34	25	133	118.0	-190366.0	2049.0	22229.0
27	15	34	25	134	119.0	-188222.0	2049.0	22946.0
27	15	34	25	142	120.0	-185651.0	2008.0	23895.0
27	15	34	25	142	121.0	-182988.0	1991.0	23979.0
27	15	34	25	143	122.0	-181106.0	1980.0	23654.0
27	15	34	25	164	123.0	-180016.0	1976.0	23851.0
27	15	34	25	165	124.0	-179499.0	1970.0	24017.0
27	15	34	25	165	125.0	-180062.0	1964.0	24174.0
27	15	34	25	166	126.0	-181239.0	1959.0	25043.0
27	15	34	25	167	127.0	-183419.0	1926.0	25199.0
27	15	34	25	167	128.0	-185847.0	1904.0	25263.0
27	15	34	25	168	129.0	-187526.0	1899.0	24689.0
27	15	34	25	169	130.0	-189211.0	1873.0	25152.0
27	15	34	25	169	131.0	-191023.0	1864.0	25826.0
27	15	34	25	170	132.0	-192615.0	1864.0	25784.0
27	15	34	25	171	133.0	-194874.0	1846.0	25853.0
27	15	34	25	171	134.0	-197209.0	1811.0	25049.0
27	15	34	25	172	135.0	-198614.0	1796.0	24416.0
27	15	34	25	172	136.0	-199571.0	1776.0	24128.0
27	15	34	25	173	137.0	-200357.0	1761.0	23386.0
27	15	34	25	174	138.0	-200562.0	1741.0	21636.0
27	15	34	25	187	139.0	-201286.0	1723.0	19649.0
27	15	34	25	211	140.0	-202517.0	1696.0	18346.0
27	15	34	25	211	141.0	-203867.0	1685.0	19160.0
27	15	34	25	212	142.0	-205465.0	1664.0	22536.0
27	15	34	25	213	143.0	-206887.0	1641.0	28815.0
27	15	34	25	214	144.0	-208128.0	1605.0	36838.0
27	15	34	25	214	145.0	-209066.0	1591.0	43405.0
27	15	34	25	215	146.0	-209789.0	1592.0	49196.0
27	15	34	25	216	147.0	-210255.0	1581.0	54858.0
27	15	34	25	217	148.0	-210367.0	1539.0	59098.0
27	15	34	25	217	149.0	-210574.0	1513.0	60784.0
27	15	34	25	218	150.0	-210863.0	1495.0	62043.0
27	15	34	25	219	151.0	-211507.0	1469.0	60558.0
27	15	34	25	220	152.0	-213036.0	1459.0	58026.0
27	15	34	25	220	153.0	-214891.0	1444.0	56081.0
27	15	34	25	221	154.0	-217020.0	1406.0	52341.0
27	15	34	25	222	155.0	-219125.0	1401.0	48419.0
27	15	34	25	222	156.0	-221314.0	1375.0	45143.0
27	15	34	25	223	157.0	-223225.0	1350.0	40706.0
27	15	34	25	224	158.0	-224606.0	1328.0	36328.0
27	15	34	25	224	159.0	-225816.0	1319.0	32796.0
27	15	34	25	256	160.0	-227318.0	1298.0	30488.0
27	15	34	25	258	161.0	-228479.0	1278.0	28882.0
27	15	34	25	260	162.0	-229544.0	1274.0	26712.0
27	15	34	25	263	163.0	-230299.0	1250.0	24348.0
27	15	34	25	265	164.0	-230568.0	1211.0	22603.0
27	15	34	25	266	165.0	-226777.0	1188.0	21218.0
27	15	34	25	269	166.0	-217006.0	1164.0	19566.0
27	15	34	25	272	167.0	-203774.0	1136.0	17818.0
27	15	34	25	273	168.0	-188247.0	1114.0	16986.0
27	15	34	25	273	169.0	-174103.0	1098.0	17044.0
27	15	34	25	274	170.0	-164558.0	1074.0	16519.0
27	15	34	25	274	171.0	-160083.0	1063.0	16389.0
27	15	34	25	275	172.0	-163546.0	1028.0	15927.0
27	15	34	25	276	173.0	-176366.0	1009.0	15201.0
27	15	34	25	276	174.0	-195861.0	985.0	15160.0
27	15	34	25	277	175.0	-217987.0	979.0	14794.0
27	15	34	25	278	176.0	-239395.0	961.0	14190.0
27	15	34	25	278	177.0	-255271.0	948.0	14193.0
27	15	34	25	279	178.0	-263416.0	913.0	14043.0
27	15	34	25	279	179.0	-267211.0	895.0	13269.0
27	15	34	25	280	180.0	-267253.0	868.0	13618.0
27	15	34	25	281	181.0	-256799.0	851.0	13711.0
27	15	34	25	281	182.0	-230182.0	817.0	13336.0
27	15	34	25	282	183.0	-196851.0	798.0	13586.0
27	15	34	25	282	184.0	-165556.0	787.0	13143.0
27	15	34	25	283	185.0	-142547.0	753.0	12691.0
27	15	34	25	284	186.0	-130398.0	733.0	12488.0
27	15	34	25	284	187.0	-128632.0	716.0	11634.0
27	15	34	25	285	188.0	-135537.0	679.0	11901.0
27	15	34	25	286	189.0	-148921.0	660.0	12279.0
27	15	34	25	286	190.0	-166634.0	637.0	11981.0
27	15	34	25	287	191.0	-187022.0	622.0	11298.0
27	15	34	25	287	192.0	-206332.0	598.0	10189.0
27	15	34	25	288	193.0	-221251.0	579.0	8804.0
27	15	34	25	289	194.0	-231119.0	558.0	7714.0
27	15	34	25	289	195.0	-236667.0	536.0	7486.0
27	15	34	25	290	196.0	-237869.0	507.0	7546.0
27	15	34	25	290	197.0	-236032.0	499.0	7764.0
27	15	34	25	304	198.0	-232057.0	492.0	8311.0
27	15	34	25	306	199.0	-226331.0	449.0	8622.0
27	15	34	25	309	200.0	-219614.0	424.0	9029.0
27	15	34	25	311	201.0	-213767.0	396.0	9718.0
27	15	34	25	313	202.0	-208699.0	360.0	9855.0
27	15	34	25	317	203.0	-204899.0	341.0	9965.0
27	15	34	25	319	204.0	-202753.0	321.0	10134.0
27	15	34	25	321	205.0	-201773.0	277.0	10819.0
27	15	34	25	322	206.0	-201002.0	250.0	11504.0
27	15	34	25	322	207.0	-199980.0	236.0	11039.0
27	15	34	25	323	208.0	-198933.0	213.0	10693.0
27	15	34	25	324	209.0	-198104.0	168.0	10564.0
27	15	34	25	324	210.0	-197295.0	116.0	10099.0
27	15	34	25	325	211.0	-196275.0	82.0	9117.0
27	15	34	25	326	212.0	-195077.0	66.0	8370.0
27	15	34	25	326	213.0	-193012.0	38.0	8179.0
27	15	34	25	336	214.0	-190356.0	11.0	8246.0
27	15	34	25	338	215.0	-187861.0	-22.0	8579.0
27	15	34	25	340	216.0	-185231.0	-52.0	7905.0
27	15	34	25	343	217.0	-182115.0	-116.0	7446.0
27	15	34	25	345	218.0	-179742.0	-146.0	7125.0
27	15	34	25	348	219.0	-178074.0	-172.0	6832.0
27	15	34	25	351	220.0	-176943.0	-211.0	5380.0
27	15	34	25	353	221.0	-176136.0	-270.0	4074.0
27	15	34	25	354	222.0	-175467.0	-291.0	3249.0
27	15	34	25	355	223.0	-175150.0	-321.0	1286.0
27	15	34	25	355	224.0	-175296.0	-365.0	-612.0
27	15	34	25	356	225.0	-175655.0	-407.0	-1222.0
27	15	34	25	357	226.0	-176179.0	-432.0	-629.0
27	15	34	25	357	227.0	-176887.0	-474.0	-909.0
27	15	34	25	358	228.0	-178211.0	-520.0	-1911.0
27	15	34	25	367	229.0	-180425.0	-541.0	-1852.0
27	15	34	25	390	230.0	-182851.0	-586.0	-706.0
27	15	34	25	391	231.0	-185452.0	-629.0	-171.0
27	15	34	25	392	232.0	-188409.0	-658.0	-707.0
27	15	34	25	392	233.0	-191529.0	-697.0	-1441.0
27	15	34	25	393	234.0	-194396.0	-744.0	-2378.0
27	15	34	25	394	235.0	-196374.0	-777.0	-3393.0
27	15	34	25	394	236.0	-197901.0	-793.0	-3620.0
27	15	34	25	395	237.0	-199147.0	-840.0	-3484.0
27	15	34	25	395	238.0	-200410.0	-862.0	-3128.0
27	15	34	25	396	239.0	-201234.0	-897.0	-2582.0
27	15	34	25	397	240.0	-201460.0	-932.0	-2229.0
27	15	34	25	397	241.0	-201133.0	-974.0	-1504.0
27	15	34	25	398	242.0	-200089.0	-987.0	-1608.0
27	15	34	25	398	243.0	-199366.0	-1002.0	-2361.0
27	15	34	25	399	244.0	-198911.0	-1032.0	-2807.0
27	15	34	25	399	245.0	-198144.0	-1058.0	-3081.0
27	15	34	25	400	246.0	-197771.0	-1067.0	-3358.0
27	15	34	25	401	247.0	-197427.0	-1090.0	-2679.0
27	15	34	25	401	248.0	-196482.0	-1113.0	-2677.0
27	15	34	25	402	249.0	-195842.0	-1122.0	-3084.0
27	15	34	25	414	250.0	-195562.0	-1132.0	-2444.0
27	15	34	25	415	251.0	-195216.0	-1142.0	-2017.0
27	15	34	25	416	252.0	-194950.0	-1137.0	-1747.0
27	15	34	25	416	253.0	-194439.0	-1141.0	-1386.0
27	15	34	25	417	254.0	-193527.0	-1139.0	-1336.0
27	15	34	25	417	255.0	-192764.0	-1124.0	-1282.0
27	15	34	25	418	0.0	-192522.0	-1099.0	-1455.0
27	15	34	25	419	1.0	-192640.0	-1089.0	-1507.0
27	15	34	25	419	2.0	-193299.0	-1077.0	-1426.0
27	15	34	25	420	3.0	-194316.0	-1041.0	-1706.0
27	15	34	25	421	4.0	-195239.0	-1035.0	-1631.0
27	15	34	25	421	5.0	-195863.0	-1016.0	-1047.0
27	15	34	25	422	6.0	-195897.0	-982.0	-1122.0
27	15	34	25	423	7.0	-195611.0	-941.0	-1329.0
27	15	34	25	423	8.0	-195130.0	-905.0	-966.0
27	15	34	25	424	9.0	-194552.0	-866.0	-3.0
27	15	34	25	453	10.0	-193816.0	-804.0	728.0
27	15	34	25	453	11.0	-192916.0	-740.0	831.0
27	15	34	25	454	12.0	-191933.0	-695.0	402.0
27	15	34	25	455	13.0	-191483.0	-636.0	-167.0
27	15	34	25	455	14.0	-191924.0	-572.0	-388.0
27	15	34	25	456	15.0	-192697.0	-502.0	76.0
27	15	34	25	457	16.0	-193927.0	-432.0	81.0
27	15	34	25	457	17.0	-195471.0	-364.0	-26.0
27	15	34	25	458	18.0	-197043.0	-282.0	-647.0
27	15	34	25	459	19.0	-198828.0	-206.0	357.0
27	15	34	25	459	20.0	-201049.0	-119.0	1279.0
27	15	34	25	460	21.0	-203232.0	-44.0	1234.0
27	15	34	25	461	22.0	-205447.0	40.0	1805.0
27	15	34	25	461	23.0	-207582.0	129.0	2574.0
27	15	34	25	462	24.0	-209926.0	198.0	2996.0
27	15	34	25	462	25.0	-212472.0	301.0	2951.0
27	15	34	25	463	26.0	-215025.0	392.0	2630.0
27	15	34	25	463	27.0	-216977.0	474.0	2781.0
27	15	34	25	464	28.0	-218568.0	564.0	2576.0
27	15	34	25	472	29.0	-219766.0	663.0	2580.0
27	15	34	25	473	30.0	-220197.0	753.0	3028.0
27	15	34	25	496	31.0	-220176.0	840.0	3307.0
27	15	34	25	497	32.0	-219951.0	917.0	4598.0
27	15	34	25	497	33.0	-220062.0	1004.0	5451.0
27	15	34	25	498	34.0	-219823.0	1104.0	5056.0
27	15	34	25	499	35.0	-219084.0	1181.0	4463.0
27	15	34	25	499	36.0	-217224.0	1283.0	4329.0
27	15	34	25	500	37.0	-214168.0	1396.0	3975.0
27	15	34	25	500	38.0	-210746.0	1471.0	3458.0
27	15	34	25	501	39.0	-206967.0	1564.0	3494.0
27	15	34	25	502	40.0	-202921.0	1649.0	4047.0
27	15	34	25	502	41.0	-198976.0	1743.0	4103.0
27	15	34	25	503	42.0	-195219.0	1837.0	3853.0
27	15	34	25	503	43.0	-191876.0	1929.0	4444.0
27	15	34	25	504	44.0	-189007.0	2001.0	4921.0
27	15	34	25	504	45.0	-187012.0	2084.0	4689.0
27	15	34	25	505	46.0	-186069.0	2176.0	5094.0
27	15	34	25	505	47.0	-185111.0	2277.0	5781.0
27	15	34	25	528	48.0	-184510.0	2365.0	6014.0
27	15	34	25	529	49.0	-184674.0	2451.0	6344.0
27	15	34	25	530	50.0	-184564.0	2544.0	6816.0
27	15	34	25	530	51.0	-184211.0	2635.0	6662.0
27	15	34	25	531	52.0	-183723.0	2714.0	6132.0
27	15	34	25	532	53.0	-182431.0	2806.0	6002.0
27	15	34	25	532	54.0	-181162.0	2896.0	5491.0
27	15	34	25	533	55.0	-179982.0	2993.0	5074.0
27	15	34	25	534	56.0	-178898.0	3076.0	4385.0
27	15	34	25	534	57.0	-178280.0	3153.0	4645.0
27	15	34	25	535	58.0	-177548.0	3241.0	5360.0
27	15	34	25	536	59.0	-176626.0	3331.0	6122.0
27	15	34	25	536	60.0	-175702.0	3400.0	6745.0
27	15	34	25	537	61.0	-174447.0	3510.0	7346.0
27	15	34	25	538	62.0	-171497.0	3602.0	8074.0
27	15	34	25	538	63.0	-164001.0	3677.0	8423.0
27	15	34	25	539	64.0	-155564.0	3766.0	8523.0
27	15	34	25	540	65.0	-156597.0	3853.0	7883.0
27	15	34	25	540	66.0	-168905.0	3949.0	7211.0
27	15	34	25	541	67.0	-185289.0	4035.0	6929.0
27	15	34	25	541	68.0	-197483.0	4119.0	6816.0
27	15	34	25	557	69.0	-203444.0	4218.0	6547.0
27	15	34	25	558	70.0	-205571.0	4309.0	6601.0
27	15	34	25	558	71.0	-204277.0	4409.0	6938.0
27	15	34	25	559	72.0	-202211.0	4486.0	7116.0
27	15	34	25	559	73.0	-200644.0	4581.0	7839.0
27	15	34	25	560	74.0	-198367.0	4669.0	8223.0
27	15	34	25	561	75.0	-196524.0	4745.0	8673.0
27	15	34	25	561	76.0	-195187.0	4843.0	8910.0
27	15	34	25	562	77.0	-195474.0	4926.0	8811.0
27	15	34	25	573	78.0	-198484.0	5017.0	8858.0
27	15	34	25	573	79.0	-203644.0	5096.0	7963.0
27	15	34	25	574	80.0	-210262.0	5184.0	7082.0
27	15	34	25	574	81.0	-217981.0	5290.0	7515.0
27	15	34	25	575	82.0	-226223.0	5361.0	8413.0
27	15	34	25	575	83.0	-233980.0	5428.0	8553.0
27	15	34	25	576	84.0	-240370.0	5518.0	8312.0
27	15	34	25	595	85.0	-244437.0	5588.0	7744.0
27	15	34	25	596	86.0	-246407.0	5671.0	7003.0
27	15	34	25	619	87.0	-246419.0	5768.0	6051.0
27	15	34	25	620	88.0	-244021.0	5848.0	6240.0
27	15	34	25	620	89.0	-239811.0	5919.0	6769.0
27	15	34	25	621	90.0	-234610.0	5994.0	6880.0
27	15	34	25	622	91.0	-229031.0	6059.0	6515.0
27	15	34	25	622	92.0	-224102.0	6144.0	6104.0
27	15	34	25	623	93.0	-219818.0	6206.0	5709.0
27	15	34	25	623	94.0	-216137.0	6269.0	5366.0
27	15	34	25	624	95.0	-213287.0	6333.0	5181.0
27	15	34	25	624	96.0	-211447.0	6410.0	4866.0
27	15	34	25	625	97.0	-210617.0	6461.0	4836.0
27	15	34	25	625	98.0	-210889.0	6511.0	4486.0
27	15	34	25	626	99.0	-211662.0	6567.0	4207.0
27	15	34	25	627	100.0	-212788.0	6636.0	3867.0
27	15	34	25	627	101.0	-213859.0	6685.0	3474.0
27	15	34	25	628	102.0	-215029.0	6731.0	3135.0
27	15	34	25	628	103.0	-215729.0	6778.0	3404.0
27	15	34	25	629	104.0	-216442.0	6813.0	3671.0
27	15	34	25	629	105.0	-216603.0	6836.0	3121.0
27	15	34	25	642	106.0	-215902.0	6887.0	2982.0
27	15	34	25	643	107.0	-214394.0	6951.0	3231.0
27	15	34	25	643	108.0	-212326.0	6978.0	2723.0
27	15	34	25	644	109.0	-209514.0	7011.0	2568.0
27	15	34	25	645	110.0	-206204.0	7043.0	2087.0
27	15	34	25	645	111.0	-202394.0	7074.0	2639.0
27	15	34	25	646	112.0	-198232.0	7096.0	3795.0
27	15	34	25	647	113.0	-195158.0	7118.0	4943.0
27	15	34	25	647	114.0	-192765.0	7127.0	5873.0
27	15	34	25	648	115.0	-190844.0	7156.0	6287.0
27	15	34	25	648	116.0	-189989.0	7171.0	6579.0
27	15	34	25	649	117.0	-189617.0	7184.0	5878.0
27	15	34	25	650	118.0	-189027.0	7182.0	4953.0
27	15	34	25	650	119.0	-188677.0	7203.0	5247.0
27	15	34	25	651	120.0	-188763.0	7211.0	5451.0
27	15	34	25	651	121.0	-188839.0	7230.0	5614.0
27	15	34	25	665	122.0	-188591.0	7244.0	5781.0
27	15	34	25	687	123.0	-188375.0	7251.0	5673.0
27	15	34	25	688	124.0	-188087.0	7234.0	5235.0
27	15	34	25	688	125.0	-188151.0	7229.0	5511.0
27	15	34	25	689	126.0	-188511.0	7236.0	6391.0
27	15	34	25	690	127.0	-189249.0	7215.0	7115.0
27	15	34	25	690	128.0	-190285.0	7208.0	6958.0
27	15	34	25	691	129.0	-191526.0	7208.0	7244.0
27	15	34	25	691	130.0	-192735.0	7206.0	7373.0
27	15	34	25	692	131.0	-194014.0	7204.0	7819.0
27	15	34	25	693	132.0	-195836.0	7194.0	8157.0
27	15	34	25	693	133.0	-197867.0	7176.0	8603.0
27	15	34	25	694	134.0	-199734.0	7171.0	8849.0
27	15	34	25	694	135.0	-201779.0	7173.0	7506.0
27	15	34	25	695	136.0	-203732.0	7154.0	6021.0
27	15	34	25	695	137.0	-205799.0	7133.0	6188.0
27	15	34	25	696	138.0	-207389.0	7122.0	6343.0
27	15	34	25	697	139.0	-208304.0	7091.0	5959.0
27	15	34	25	697	140.0	-208361.0	7092.0	5464.0
27	15	34	25	698	141.0	-207766.0	7071.0	4611.0
27	15	34	25	698	142.0	-206602.0	7049.0	3730.0
27	15	34	25	699	143.0	-204997.0	7030.0	2430.0
27	15	34	25	709	144.0	-203000.0	6998.0	1220.0
27	15	34	25	709	145.0	-200750.0	6993.0	379.0
27	15	34	25	710	146.0	-198302.0	6983.0	-854.0
27	15	34	25	711	147.0	-196288.0	6958.0	-2787.0
27	15	34	25	711	148.0	-195237.0	6916.0	-3787.0
27	15	34	25	712	149.0	-194990.0	6884.0	-4695.0
