27	16	36	9	244	128.0	-197700.0	132.0	-10915.0
27	16	36	9	247	129.0	-198030.0	111.0	-10511.0
27	16	36	9	249	130.0	-198281.0	64.0	-10284.0
27	16	36	9	251	131.0	-198457.0	29.0	-10247.0
27	16	36	9	253	132.0	-198451.0	-5.0	-9932.0
27	16	36	9	256	133.0	-198429.0	-47.0	-9932.0
27	16	36	9	258	134.0	-198214.0	-95.0	-10075.0
27	16	36	9	259	135.0	-197859.0	-125.0	-10076.0
27	16	36	9	261	136.0	-197547.0	-173.0	-10333.0
27	16	36	9	263	137.0	-197701.0	-198.0	-10669.0
27	16	36	9	264	138.0	-197830.0	-210.0	-10472.0
27	16	36	9	265	139.0	-198073.0	-244.0	-10214.0
27	16	36	9	266	140.0	-198527.0	-263.0	-10137.0
27	16	36	9	266	141.0	-198945.0	-277.0	-10004.0
27	16	36	9	267	142.0	-199651.0	-318.0	-10116.0
27	16	36	9	268	143.0	-200706.0	-349.0	-10154.0
27	16	36	9	269	144.0	-201623.0	-395.0	-10081.0
27	16	36	9	270	145.0	-202242.0	-433.0	-10007.0
27	16	36	9	270	146.0	-202669.0	-471.0	-10395.0
27	16	36	9	271	147.0	-203476.0	-514.0	-10327.0
27	16	36	9	272	148.0	-204434.0	-556.0	-9952.0
27	16	36	9	273	149.0	-205266.0	-592.0	-10032.0
27	16	36	9	273	150.0	-206049.0	-619.0	-10068.0
27	16	36	9	303	151.0	-206782.0	-636.0	-9506.0
27	16	36	9	347	152.0	-207493.0	-678.0	-9537.0
27	16	36	9	348	153.0	-208079.0	-716.0	-9767.0
27	16	36	9	349	154.0	-208516.0	-749.0	-9282.0
27	16	36	9	349	155.0	-208696.0	-804.0	-9356.0
27	16	36	9	350	156.0	-208420.0	-846.0	-9788.0
27	16	36	9	351	157.0	-207606.0	-873.0	-9789.0
27	16	36	9	351	158.0	-206265.0	-909.0	-9729.0
27	16	36	9	352	159.0	-204742.0	-946.0	-10021.0
27	16	36	9	352	160.0	-203229.0	-991.0	-10111.0
27	16	36	9	353	161.0	-201585.0	-1025.0	-9927.0
27	16	36	9	353	162.0	-199942.0	-1059.0	-10105.0
27	16	36	9	354	163.0	-198703.0	-1106.0	-10439.0
27	16	36	9	355	164.0	-197907.0	-1158.0	-10622.0
27	16	36	9	355	165.0	-197396.0	-1187.0	-10597.0
27	16	36	9	356	166.0	-196920.0	-1221.0	-10639.0
27	16	36	9	356	188.0	-209042.0	-2141.0	7254.0
27	16	36	9	357	189.0	-208188.0	-2181.0	9046.0
27	16	36	9	358	190.0	-206197.0	-2207.0	10322.0
27	16	36	9	358	191.0	-203419.0	-2236.0	10576.0
27	16	36	9	359	192.0	-200269.0	-2282.0	10316.0
27	16	36	9	359	193.0	-196964.0	-2319.0	9585.0
27	16	36	9	390	194.0	-193754.0	-2351.0	9032.0
27	16	36	9	391	195.0	-190953.0	-2388.0	7256.0
27	16	36	9	392	196.0	-188707.0	-2449.0	5494.0
27	16	36	9	392	197.0	-186916.0	-2490.0	3208.0
27	16	36	9	393	198.0	-185916.0	-2519.0	689.0
27	16	36	9	394	199.0	-185991.0	-2562.0	-1060.0
27	16	36	9	394	200.0	-187154.0	-2599.0	-2750.0
27	16	36	9	395	201.0	-188422.0	-2632.0	-4356.0
27	16	36	9	395	202.0	-189669.0	-2694.0	-4981.0
27	16	36	9	396	203.0	-190822.0	-2739.0	-5594.0
27	16	36	9	397	204.0	-191931.0	-2791.0	-6405.0
27	16	36	9	397	205.0	-193117.0	-2847.0	-7278.0
27	16	36	9	398	206.0	-194722.0	-2877.0	-8183.0
27	16	36	9	399	207.0	-196711.0	-2917.0	-8467.0
27	16	36	9	399	208.0	-198080.0	-2957.0	-8355.0
27	16	36	9	400	210.0	-197509.0	-3036.0	-8809.0
27	16	36	9	401	211.0	-189504.0	-3069.0	-8644.0
27	16	36	9	401	212.0	-169877.0	-3116.0	-8787.0
27	16	36	9	402	213.0	-151545.0	-3151.0	-9359.0
27	16	36	9	403	214.0	-141844.0	-3182.0	-9849.0
27	16	36	9	403	215.0	-140531.0	-3230.0	-9972.0
27	16	36	9	436	216.0	-144159.0	-3269.0	-10249.0
27	16	36	9	437	217.0	-150681.0	-3309.0	-10564.0
27	16	36	9	437	218.0	-160696.0	-3357.0	-10656.0
27	16	36	9	438	219.0	-174405.0	-3376.0	-10955.0
27	16	36	9	439	220.0	-189908.0	-3394.0	-11046.0
27	16	36	9	439	221.0	-203832.0	-3451.0	-10670.0
27	16	36	9	440	222.0	-213406.0	-3485.0	-10677.0
27	16	36	9	441	223.0	-219054.0	-3532.0	-11034.0
27	16	36	9	441	224.0	-220721.0	-3594.0	-10582.0
27	16	36	9	442	225.0	-217606.0	-3659.0	-10408.0
27	16	36	9	442	226.0	-212309.0	-3697.0	-10896.0
27	16	36	9	443	227.0	-204413.0	-3730.0	-11015.0
27	16	36	9	444	228.0	-198310.0	-3778.0	-10766.0
27	16	36	9	444	229.0	-197707.0	-3812.0	-10836.0
27	16	36	9	445	230.0	-200431.0	-3856.0	-10930.0
27	16	36	9	445	233.0	-210206.0	-3961.0	-11177.0
27	16	36	9	446	234.0	-213300.0	-4004.0	-10981.0
27	16	36	9	446	235.0	-213198.0	-4044.0	-10953.0
27	16	36	9	447	236.0	-210027.0	-4086.0	-10923.0
27	16	36	9	447	237.0	-207370.0	-4100.0	-11107.0
27	16	36	9	448	238.0	-207871.0	-4136.0	-11148.0
27	16	36	9	483	239.0	-211042.0	-4158.0	-11308.0
27	16	36	9	483	240.0	-214177.0	-4200.0	-11201.0
27	16	36	9	484	241.0	-214985.0	-4236.0	-11197.0
27	16	36	9	485	242.0	-212924.0	-4262.0	-11289.0
27	16	36	9	485	243.0	-208883.0	-4304.0	-11091.0
27	16	36	9	486	244.0	-205062.0	-4342.0	-11002.0
27	16	36	9	487	245.0	-203026.0	-4393.0	-10762.0
27	16	36	9	487	246.0	-202496.0	-4453.0	-10024.0
27	16	36	9	488	247.0	-202122.0	-4488.0	-9909.0
27	16	36	9	488	248.0	-201577.0	-4497.0	-10182.0
27	16	36	9	489	249.0	-201269.0	-4541.0	-10181.0
27	16	36	9	489	250.0	-201289.0	-4565.0	-10004.0
27	16	36	9	490	251.0	-201935.0	-4588.0	-10241.0
27	16	36	9	491	252.0	-202635.0	-4613.0	-10562.0
27	16	36	9	491	253.0	-203284.0	-4682.0	-10374.0
27	16	36	9	492	255.0	-204872.0	-4771.0	-11013.0
27	16	36	9	492	0.0	-205065.0	-4828.0	-10444.0
27	16	36	9	493	1.0	-204817.0	-4849.0	-10646.0
27	16	36	9	493	2.0	-204390.0	-4874.0	-10759.0
27	16	36	9	494	3.0	-203870.0	-4907.0	-10175.0
27	16	36	9	495	4.0	-203463.0	-4912.0	-10018.0
27	16	36	9	526	5.0	-203091.0	-4929.0	-10357.0
27	16	36	9	527	6.0	-202807.0	-4968.0	-10326.0
27	16	36	9	527	7.0	-202519.0	-5010.0	-10402.0
27	16	36	9	528	8.0	-202293.0	-5041.0	-10351.0
27	16	36	9	529	9.0	-202340.0	-5084.0	-10365.0
27	16	36	9	529	10.0	-202342.0	-5134.0	-10457.0
27	16	36	9	530	11.0	-202682.0	-5169.0	-10539.0
27	16	36	9	530	12.0	-203173.0	-5192.0	-10234.0
27	16	36	9	531	13.0	-203624.0	-5233.0	-10317.0
27	16	36	9	532	14.0	-204044.0	-5254.0	-10269.0
27	16	36	9	532	15.0	-204647.0	-5299.0	-10090.0
27	16	36	9	533	16.0	-205274.0	-5342.0	-10247.0
27	16	36	9	533	17.0	-205907.0	-5375.0	-10635.0
27	16	36	9	534	18.0	-206474.0	-5424.0	-10899.0
27	16	36	9	535	19.0	-207036.0	-5471.0	-10466.0
27	16	36	9	535	21.0	-208147.0	-5576.0	-11301.0
27	16	36	9	536	22.0	-208461.0	-5603.0	-10828.0
27	16	36	9	536	23.0	-208561.0	-5646.0	-10494.0
27	16	36	9	537	24.0	-208584.0	-5653.0	-10439.0
27	16	36	9	538	25.0	-208555.0	-5674.0	-10046.0
27	16	36	9	538	26.0	-208389.0	-5719.0	-9849.0
27	16	36	9	539	27.0	-208006.0	-5759.0	-9969.0
27	16	36	9	572	28.0	-207599.0	-5797.0	-9677.0
27	16	36	9	573	29.0	-207641.0	-5829.0	-9374.0
27	16	36	9	573	30.0	-208003.0	-5860.0	-9873.0
27	16	36	9	574	31.0	-207886.0	-5891.0	-9891.0
27	16	36	9	575	32.0	-207570.0	-5921.0	-9754.0
27	16	36	9	575	33.0	-207459.0	-5942.0	-9717.0
27	16	36	9	576	34.0	-207117.0	-5966.0	-9803.0
27	16	36	9	577	35.0	-206674.0	-6006.0	-9546.0
27	16	36	9	577	36.0	-206468.0	-6022.0	-8979.0
27	16	36	9	578	37.0	-206302.0	-6050.0	-8622.0
27	16	36	9	578	38.0	-206207.0	-6083.0	-8381.0
27	16	36	9	579	39.0	-205972.0	-6093.0	-8186.0
27	16	36	9	580	40.0	-205646.0	-6101.0	-8237.0
27	16	36	9	580	41.0	-204902.0	-6110.0	-8210.0
27	16	36	9	581	42.0	-204022.0	-6112.0	-7830.0
27	16	36	9	581	44.0	-202111.0	-6096.0	-7649.0
27	16	36	9	582	45.0	-200965.0	-6072.0	-7581.0
27	16	36	9	582	46.0	-199915.0	-6055.0	-7537.0
27	16	36	9	583	47.0	-199507.0	-6051.0	-7025.0
27	16	36	9	584	48.0	-199362.0	-6006.0	-6742.0
27	16	36	9	584	49.0	-199134.0	-5983.0	-6662.0
27	16	36	9	618	50.0	-198831.0	-5940.0	-6481.0
27	16	36	9	618	51.0	-198376.0	-5895.0	-6502.0
27	16	36	9	619	52.0	-197739.0	-5847.0	-6498.0
27	16	36	9	620	53.0	-197279.0	-5801.0	-6287.0
27	16	36	9	620	54.0	-197031.0	-5742.0	-5926.0
27	16	36	9	621	55.0	-197018.0	-5663.0	-6209.0
27	16	36	9	622	56.0	-197007.0	-5622.0	-6144.0
27	16	36	9	623	57.0	-197091.0	-5577.0	-5704.0
27	16	36	9	623	58.0	-197231.0	-5504.0	-5304.0
27	16	36	9	624	59.0	-196883.0	-5440.0	-5558.0
27	16	36	9	624	60.0	-196584.0	-5357.0	-5184.0
27	16	36	9	625	61.0	-196256.0	-5270.0	-4701.0
27	16	36	9	626	62.0	-195578.0	-5179.0	-4642.0
27	16	36	9	626	63.0	-194868.0	-5077.0	-4647.0
27	16	36	9	627	64.0	-194159.0	-4985.0	-4314.0
27	16	36	9	627	66.0	-192313.0	-4809.0	-4742.0
27	16	36	9	628	67.0	-191901.0	-4707.0	-4889.0
27	16	36	9	629	68.0	-191722.0	-4600.0	-5367.0
27	16	36	9	629	69.0	-191449.0	-4491.0	-5975.0
27	16	36	9	630	70.0	-191354.0	-4377.0	-6112.0
27	16	36	9	630	71.0	-191417.0	-4242.0	-6086.0
27	16	36	9	631	72.0	-191895.0	-4139.0	-6530.0
27	16	36	9	707	73.0	-192391.0	-4009.0	-6921.0
27	16	36	9	708	74.0	-193109.0	-3890.0	-6923.0
27	16	36	9	709	75.0	-193725.0	-3759.0	-7471.0
27	16	36	9	709	76.0	-194344.0	-3662.0	-8074.0
27	16	36	9	710	77.0	-195019.0	-3546.0	-8508.0
27	16	36	9	711	78.0	-195677.0	-3444.0	-9150.0
27	16	36	9	711	79.0	-196197.0	-3332.0	-9315.0
27	16	36	9	712	80.0	-196681.0	-3217.0	-9687.0
27	16	36	9	712	81.0	-197191.0	-3103.0	-10264.0
27	16	36	9	713	82.0	-197619.0	-3006.0	-10581.0
27	16	36	9	714	83.0	-198186.0	-2881.0	-10458.0
27	16	36	9	714	84.0	-198945.0	-2754.0	-10682.0
27	16	36	9	715	85.0	-199884.0	-2639.0	-11084.0
27	16	36	9	716	86.0	-200978.0	-2526.0	-11367.0
27	16	36	9	716	87.0	-202046.0	-2421.0	-11846.0
27	16	36	9	717	111.0	-211541.0	-91.0	-12746.0
27	16	36	9	717	112.0	-211831.0	3.0	-12688.0
27	16	36	9	718	113.0	-211925.0	116.0	-12605.0
27	16	36	9	719	114.0	-210913.0	243.0	-12591.0
27	16	36	9	719	115.0	-209322.0	313.0	-12674.0
27	16	36	9	720	116.0	-208378.0	373.0	-12524.0
27	16	36	9	720	117.0	-206616.0	458.0	-12554.0
27	16	36	9	751	118.0	-203937.0	531.0	-12596.0
27	16	36	9	752	119.0	-200541.0	579.0	-12433.0
27	16	36	9	797	120.0	-192651.0	651.0	-12131.0
27	16	36	9	808	121.0	-176757.0	715.0	-12134.0
27	16	36	9	809	122.0	-161868.0	766.0	-12301.0
27	16	36	9	809	123.0	-161987.0	849.0	-12381.0
27	16	36	9	810	124.0	-174889.0	939.0	-12247.0
27	16	36	9	811	125.0	-191808.0	993.0	-12559.0
27	16	36	9	811	126.0	-206449.0	1051.0	-12652.0
27	16	36	9	812	127.0	-210974.0	1116.0	-12481.0
27	16	36	9	812	128.0	-208284.0	1151.0	-12297.0
27	16	36	9	813	129.0	-202032.0	1204.0	-12881.0
27	16	36	9	813	130.0	-193237.0	1257.0	-12754.0
27	16	36	9	814	131.0	-186034.0	1305.0	-11831.0
27	16	36	9	815	132.0	-183539.0	1371.0	-11679.0
27	16	36	9	815	134.0	-188528.0	1486.0	-11826.0
27	16	36	9	816	135.0	-192806.0	1543.0	-11983.0
27	16	36	9	816	136.0	-196882.0	1608.0	-11734.0
27	16	36	9	817	156.0	-201774.0	2194.0	-11294.0
27	16	36	9	817	157.0	-201472.0	2200.0	-11288.0
27	16	36	9	818	158.0	-201129.0	2236.0	-11481.0
27	16	36	9	819	159.0	-200749.0	2237.0	-11439.0
27	16	36	9	819	160.0	-200251.0	2248.0	-11916.0
27	16	36	9	820	161.0	-199985.0	2249.0	-11999.0
27	16	36	9	820	162.0	-199844.0	2281.0	-11803.0
27	16	36	9	841	163.0	-199169.0	2301.0	-11824.0
27	16	36	9	842	164.0	-198558.0	2294.0	-11986.0
27	16	36	9	843	165.0	-198174.0	2293.0	-11847.0
27	16	36	9	843	166.0	-198014.0	2295.0	-11219.0
27	16	36	9	844	167.0	-197570.0	2268.0	-11366.0
27	16	36	9	845	168.0	-197046.0	2251.0	-11562.0
27	16	36	9	845	169.0	-197099.0	2226.0	-11528.0
27	16	36	9	846	170.0	-197465.0	2201.0	-11720.0
27	16	36	9	847	171.0	-198078.0	2182.0	-11664.0
27	16	36	9	847	172.0	-199168.0	2163.0	-11882.0
27	16	36	9	848	173.0	-199846.0	2168.0	-11968.0
27	16	36	9	849	174.0	-199176.0	2140.0	-11874.0
27	16	36	9	849	175.0	-197513.0	2106.0	-11708.0
27	16	36	9	850	176.0	-196385.0	2076.0	-11619.0
27	16	36	9	851	177.0	-196135.0	2049.0	-11714.0
27	16	36	9	851	179.0	-195567.0	1961.0	-11984.0
27	16	36	9	852	180.0	-195119.0	1937.0	-12043.0
27	16	36	9	853	181.0	-194503.0	1915.0	-11972.0
27	16	36	9	853	182.0	-194219.0	1882.0	-11974.0
27	16	36	9	854	183.0	-194049.0	1868.0	-11897.0
27	16	36	9	854	184.0	-194296.0	1846.0	-11905.0
27	16	36	9	887	185.0	-195104.0	1804.0	-11936.0
27	16	36	9	887	186.0	-196547.0	1759.0	-12039.0
27	16	36	9	888	187.0	-198204.0	1724.0	-11701.0
27	16	36	9	889	188.0	-199610.0	1670.0	-11631.0
27	16	36	9	889	189.0	-200423.0	1614.0	-11679.0
27	16	36	9	890	190.0	-201084.0	1567.0	-11456.0
27	16	36	9	891	191.0	-201462.0	1524.0	-11331.0
27	16	36	9	891	192.0	-201694.0	1508.0	-11211.0
27	16	36	9	892	193.0	-201688.0	1460.0	-11511.0
27	16	36	9	892	194.0	-201794.0	1431.0	-11477.0
27	16	36	9	893	195.0	-201807.0	1399.0	-11590.0
27	16	36	9	894	196.0	-201924.0	1346.0	-11792.0
27	16	36	9	894	197.0	-202219.0	1288.0	-11674.0
27	16	36	9	895	198.0	-202727.0	1253.0	-12022.0
27	16	36	9	896	199.0	-202801.0	1200.0	-12421.0
27	16	36	9	897	201.0	-201427.0	1096.0	-11849.0
27	16	36	9	897	202.0	-200726.0	1054.0	-11804.0
27	16	36	9	898	203.0	-200418.0	1026.0	-11685.0
27	16	36	9	899	204.0	-200227.0	1005.0	-11525.0
27	16	36	9	900	205.0	-200027.0	981.0	-11586.0
27	16	36	9	900	206.0	-199549.0	957.0	-11973.0
27	16	36	9	931	207.0	-199491.0	929.0	-12182.0
27	16	36	9	931	208.0	-199834.0	882.0	-12179.0
27	16	36	9	932	209.0	-200592.0	823.0	-12392.0
27	16	36	9	933	210.0	-200890.0	791.0	-12172.0
27	16	36	9	933	211.0	-201433.0	770.0	-11982.0
27	16	36	9	934	212.0	-202107.0	739.0	-12232.0
27	16	36	9	935	213.0	-203126.0	699.0	-12289.0
27	16	36	9	935	214.0	-203386.0	666.0	-12017.0
27	16	36	9	936	215.0	-203764.0	653.0	-12312.0
27	16	36	9	937	216.0	-203516.0	622.0	-12326.0
27	16	36	9	937	217.0	-203531.0	566.0	-12307.0
27	16	36	9	938	218.0	-203422.0	520.0	-13077.0
27	16	36	9	939	219.0	-203359.0	474.0	-12886.0
27	16	36	9	940	220.0	-203031.0	460.0	-12689.0
27	16	36	9	940	221.0	-202547.0	446.0	-12884.0
27	16	36	9	941	224.0	-200144.0	330.0	-11933.0
27	16	36	9	941	225.0	-200189.0	294.0	-11892.0
27	16	36	9	942	226.0	-200009.0	269.0	-11410.0
27	16	36	9	943	227.0	-199751.0	258.0	-11602.0
27	16	36	9	943	228.0	-199994.0	216.0	-11747.0
27	16	36	9	944	229.0	-199651.0	186.0	-11864.0
27	16	36	9	977	230.0	-199584.0	154.0	-12162.0
27	16	36	9	978	231.0	-199177.0	132.0	-12343.0
27	16	36	9	979	232.0	-198471.0	100.0	-12299.0
27	16	36	9	980	233.0	-197190.0	81.0	-12272.0
27	16	36	9	980	234.0	-196624.0	24.0	-12524.0
27	16	36	9	981	235.0	-195454.0	-3.0	-12320.0
27	16	36	9	982	236.0	-196491.0	-41.0	-11962.0
27	16	36	9	982	237.0	-197309.0	-96.0	-12198.0
27	16	36	9	983	238.0	-197886.0	-132.0	-12342.0
27	16	36	9	984	239.0	-197907.0	-156.0	-11926.0
27	16	36	9	984	240.0	-198036.0	-195.0	-11632.0
27	16	36	9	985	241.0	-197681.0	-240.0	-11903.0
27	16	36	9	986	242.0	-197809.0	-263.0	-11997.0
27	16	36	9	986	243.0	-197562.0	-298.0	-12019.0
27	16	36	9	987	244.0	-197555.0	-330.0	-11674.0
27	16	36	9	988	246.0	-199612.0	-387.0	-11619.0
27	16	36	9	988	247.0	-199811.0	-434.0	-11631.0
27	16	36	9	989	248.0	-200171.0	-484.0	-11794.0
27	16	36	9	989	249.0	-201092.0	-510.0	-12297.0
27	16	36	9	990	250.0	-201491.0	-559.0	-12521.0
27	16	36	9	991	251.0	-201512.0	-572.0	-12145.0
27	16	36	9	991	252.0	-200075.0	-599.0	-12087.0
27	16	36	10	21	253.0	-198532.0	-629.0	-12449.0
27	16	36	10	22	254.0	-198011.0	-626.0	-12295.0
27	16	36	10	23	255.0	-197606.0	-672.0	-12117.0
27	16	36	10	24	0.0	-198067.0	-709.0	-12254.0
27	16	36	10	24	1.0	-199354.0	-739.0	-12301.0
27	16	36	10	25	2.0	-200107.0	-783.0	-11789.0
27	16	36	10	26	3.0	-200723.0	-844.0	-11916.0
27	16	36	10	26	4.0	-201242.0	-875.0	-11601.0
27	16	36	10	27	5.0	-201899.0	-912.0	-11007.0
27	16	36	10	28	6.0	-202467.0	-950.0	-11042.0
27	16	36	10	28	7.0	-202571.0	-989.0	-11104.0
27	16	36	10	29	8.0	-202920.0	-1027.0	-11387.0
27	16	36	10	30	9.0	-202716.0	-1057.0	-11539.0
27	16	36	10	30	10.0	-202255.0	-1091.0	-11531.0
27	16	36	10	31	11.0	-202182.0	-1134.0	-11876.0
27	16	36	10	32	12.0	-202285.0	-1198.0	-12089.0
27	16	36	10	32	13.0	-201930.0	-1247.0	-12156.0
27	16	36	10	33	14.0	-202146.0	-1296.0	-11959.0
27	16	36	10	33	15.0	-202661.0	-1307.0	-11432.0
27	16	36	10	34	16.0	-203679.0	-1337.0	-11726.0
27	16	36	10	35	17.0	-204969.0	-1376.0	-12157.0
27	16	36	10	35	18.0	-206176.0	-1401.0	-11964.0
27	16	36	10	67	19.0	-207416.0	-1434.0	-11949.0
27	16	36	10	67	20.0	-208258.0	-1463.0	-12151.0
27	16	36	10	68	21.0	-208837.0	-1521.0	-11989.0
27	16	36	10	69	22.0	-209266.0	-1570.0	-12077.0
27	16	36	10	69	23.0	-209417.0	-1596.0	-12246.0
27	16	36	10	70	24.0	-209175.0	-1649.0	-12231.0
27	16	36	10	71	25.0	-208961.0	-1706.0	-12076.0
27	16	36	10	72	26.0	-208802.0	-1737.0	-11973.0
27	16	36	10	72	27.0	-208572.0	-1771.0	-12264.0
27	16	36	10	73	28.0	-208297.0	-1821.0	-12469.0
27	16	36	10	74	29.0	-208036.0	-1872.0	-12350.0
27	16	36	10	74	30.0	-207912.0	-1921.0	-12232.0
27	16	36	10	75	31.0	-207691.0	-1959.0	-12332.0
27	16	36	10	76	32.0	-207424.0	-2023.0	-12824.0
27	16	36	10	77	33.0	-206969.0	-2057.0	-12920.0
27	16	36	10	78	35.0	-206074.0	-2152.0	-13131.0
27	16	36	10	78	36.0	-205280.0	-2182.0	-12711.0
27	16	36	10	79	37.0	-204597.0	-2196.0	-12171.0
27	16	36	10	80	38.0	-203921.0	-2211.0	-11935.0
27	16	36	10	80	39.0	-203415.0	-2272.0	-11899.0
27	16	36	10	81	40.0	-202782.0	-2311.0	-11505.0
27	16	36	10	112	41.0	-202234.0	-2329.0	-11582.0
27	16	36	10	113	42.0	-201833.0	-2360.0	-11612.0
27	16	36	10	113	43.0	-201531.0	-2431.0	-11572.0
27	16	36	10	114	44.0	-201340.0	-2472.0	-11656.0
27	16	36	10	115	45.0	-201154.0	-2495.0	-11801.0
27	16	36	10	116	46.0	-200788.0	-2545.0	-11724.0
27	16	36	10	116	47.0	-200157.0	-2579.0	-11686.0
27	16	36	10	117	48.0	-199598.0	-2619.0	-11530.0
27	16	36	10	118	49.0	-199044.0	-2666.0	-11358.0
27	16	36	10	118	50.0	-198136.0	-2720.0	-11420.0
27	16	36	10	119	51.0	-197476.0	-2743.0	-11306.0
27	16	36	10	120	52.0	-197087.0	-2796.0	-11402.0
27	16	36	10	120	53.0	-196839.0	-2851.0	-11479.0
27	16	36	10	121	54.0	-196147.0	-2897.0	-11302.0
27	16	36	10	122	55.0	-195299.0	-2924.0	-11466.0
27	16	36	10	122	57.0	-194464.0	-3004.0	-11439.0
27	16	36	10	123	58.0	-194114.0	-3047.0	-11681.0
27	16	36	10	123	59.0	-193895.0	-3096.0	-11614.0
27	16	36	10	124	60.0	-193736.0	-3119.0	-11646.0
27	16	36	10	125	61.0	-193496.0	-3155.0	-11966.0
27	16	36	10	125	62.0	-193252.0	-3180.0	-11794.0
27	16	36	10	126	63.0	-193340.0	-3231.0	-11985.0
27	16	36	10	156	64.0	-193448.0	-3272.0	-11956.0
27	16	36	10	157	65.0	-193740.0	-3299.0	-11626.0
27	16	36	10	158	66.0	-194169.0	-3325.0	-12079.0
27	16	36	10	158	67.0	-194759.0	-3364.0	-12460.0
27	16	36	10	159	68.0	-195590.0	-3409.0	-12391.0
27	16	36	10	160	69.0	-197069.0	-3454.0	-12462.0
27	16	36	10	161	70.0	-198912.0	-3478.0	-13295.0
27	16	36	10	161	71.0	-200840.0	-3527.0	-13659.0
27	16	36	10	162	72.0	-202909.0	-3593.0	-13874.0
27	16	36	10	163	73.0	-204903.0	-3647.0	-14386.0
27	16	36	10	163	74.0	-207222.0	-3703.0	-14792.0
27	16	36	10	164	75.0	-208856.0	-3727.0	-14712.0
27	16	36	10	165	76.0	-210506.0	-3771.0	-14931.0
27	16	36	10	165	77.0	-213136.0	-3796.0	-16099.0
27	16	36	10	166	78.0	-215901.0	-3824.0	-16499.0
27	16	36	10	167	80.0	-219394.0	-3927.0	-13779.0
27	16	36	10	167	81.0	-219755.0	-3966.0	-9238.0
27	16	36	10	168	82.0	-218374.0	-3996.0	-4732.0
27	16	36	10	168	83.0	-216618.0	-4031.0	-479.0
27	16	36	10	169	84.0	-214603.0	-4081.0	3428.0
27	16	36	10	170	85.0	-211246.0	-4088.0	6087.0
27	16	36	10	201	86.0	-206689.0	-4114.0	7268.0
27	16	36	10	201	87.0	-201644.0	-4139.0	8195.0
27	16	36	10	202	88.0	-196237.0	-4181.0	8144.0
27	16	36	10	203	89.0	-190302.0	-4228.0	7519.0
27	16	36	10	204	90.0	-184043.0	-4261.0	7030.0
27	16	36	10	204	91.0	-178360.0	-4322.0	6365.0
27	16	36	10	205	92.0	-173622.0	-4359.0	4511.0
27	16	36	10	206	93.0	-169589.0	-4416.0	2766.0
27	16	36	10	207	94.0	-166745.0	-4443.0	452.0
27	16	36	10	208	95.0	-165141.0	-4464.0	-1759.0
27	16	36	10	209	96.0	-165260.0	-4504.0	-3414.0
27	16	36	10	210	97.0	-166478.0	-4551.0	-4975.0
27	16	36	10	211	98.0	-168464.0	-4575.0	-5946.0
27	16	36	10	211	99.0	-170834.0	-4621.0	-6166.0
27	16	36	10	212	100.0	-173749.0	-4661.0	-6572.0
27	16	36	10	213	102.0	-180563.0	-4735.0	-8890.0
27	16	36	10	213	103.0	-184654.0	-4787.0	-9207.0
27	16	36	10	214	104.0	-187896.0	-4812.0	-9407.0
27	16	36	10	215	105.0	-189989.0	-4836.0	-10205.0
27	16	36	10	215	106.0	-191260.0	-4866.0	-10341.0
27	16	36	10	216	107.0	-186661.0	-4887.0	-10425.0
27	16	36	10	217	108.0	-170157.0	-4912.0	-10707.0
27	16	36	10	217	109.0	-151721.0	-4938.0	-10862.0
27	16	36	10	247	110.0	-141232.0	-4978.0	-10457.0
27	16	36	10	248	111.0	-140167.0	-5002.0	-10586.0
27	16	36	10	248	112.0	-145377.0	-5044.0	-11057.0
27	16	36	10	249	113.0	-153685.0	-5099.0	-11352.0
27	16	36	10	250	114.0	-165008.0	-5135.0	-11139.0
27	16	36	10	250	115.0	-180069.0	-5156.0	-11583.0
27	16	36	10	251	116.0	-197514.0	-5191.0	-11931.0
27	16	36	10	291	117.0	-212257.0	-5224.0	-11679.0
27	16	36	10	292	118.0	-222374.0	-5278.0	-11928.0
27	16	36	10	292	119.0	-228877.0	-5329.0	-12157.0
27	16	36	10	293	120.0	-231015.0	-5359.0	-12113.0
27	16	36	10	294	121.0	-229401.0	-5394.0	-12209.0
27	16	36	10	294	122.0	-224418.0	-5447.0	-12219.0
27	16	36	10	295	123.0	-217328.0	-5485.0	-12201.0
27	16	36	10	295	124.0	-210988.0	-5526.0	-12217.0
27	16	36	10	296	125.0	-210628.0	-5552.0	-12522.0
27	16	36	10	296	126.0	-212227.0	-5574.0	-12527.0
27	16	36	10	297	127.0	-213614.0	-5597.0	-12529.0
27	16	36	10	298	128.0	-214187.0	-5626.0	-12555.0
27	16	36	10	299	129.0	-214948.0	-5660.0	-12486.0
27	16	36	10	299	130.0	-216919.0	-5691.0	-12438.0
27	16	36	10	300	131.0	-218469.0	-5731.0	-12536.0
27	16	36	10	300	147.0	-203223.0	-6287.0	-11845.0
27	16	36	10	301	148.0	-203039.0	-6334.0	-11769.0
27	16	36	10	301	149.0	-202666.0	-6364.0	-11961.0
27	16	36	10	302	150.0	-202359.0	-6379.0	-11777.0
27	16	36	10	302	151.0	-201789.0	-6414.0	-11908.0
27	16	36	10	303	152.0	-200991.0	-6449.0	-11976.0
27	16	36	10	304	153.0	-199819.0	-6489.0	-12096.0
27	16	36	10	336	154.0	-198409.0	-6517.0	-12427.0
27	16	36	10	337	155.0	-197182.0	-6531.0	-11936.0
27	16	36	10	337	156.0	-195937.0	-6569.0	-12068.0
27	16	36	10	338	157.0	-194559.0	-6587.0	-11947.0
27	16	36	10	338	158.0	-193524.0	-6636.0	-11811.0
27	16	36	10	339	159.0	-193063.0	-6682.0	-12032.0
27	16	36	10	339	160.0	-193056.0	-6711.0	-12226.0
27	16	36	10	340	161.0	-193220.0	-6753.0	-12117.0
27	16	36	10	341	162.0	-193232.0	-6791.0	-12212.0
27	16	36	10	341	163.0	-193075.0	-6832.0	-12144.0
27	16	36	10	342	164.0	-193197.0	-6872.0	-11990.0
27	16	36	10	342	165.0	-194067.0	-6916.0	-12171.0
27	16	36	10	343	166.0	-195004.0	-6937.0	-12004.0
27	16	36	10	343	167.0	-195566.0	-6972.0	-11569.0
27	16	36	10	344	168.0	-196523.0	-7027.0	-11414.0
27	16	36	10	345	170.0	-200768.0	-7091.0	-11292.0
27	16	36	10	345	171.0	-203042.0	-7132.0	-10982.0
27	16	36	10	346	172.0	-204886.0	-7167.0	-11357.0
27	16	36	10	346	173.0	-206214.0	-7206.0	-11495.0
27	16	36	10	347	174.0	-207217.0	-7247.0	-11608.0
27	16	36	10	347	175.0	-208095.0	-7257.0	-11862.0
27	16	36	10	427	176.0	-208603.0	-7282.0	-11992.0
27	16	36	10	428	177.0	-208649.0	-7308.0	-11477.0
27	16	36	10	428	178.0	-208451.0	-7336.0	-11214.0
27	16	36	10	429	179.0	-208573.0	-7364.0	-11263.0
27	16	36	10	430	180.0	-208820.0	-7423.0	-11112.0
27	16	36	10	430	181.0	-208982.0	-7479.0	-10876.0
27	16	36	10	431	182.0	-208842.0	-7523.0	-11086.0
27	16	36	10	431	183.0	-208412.0	-7542.0	-10713.0
27	16	36	10	432	184.0	-207589.0	-7552.0	-10162.0
27	16	36	10	433	185.0	-206888.0	-7575.0	-10298.0
27	16	36	10	433	186.0	-206224.0	-7601.0	-10169.0
27	16	36	10	434	187.0	-205841.0	-7620.0	-9996.0
27	16	36	10	434	188.0	-205401.0	-7628.0	-10002.0
27	16	36	10	435	189.0	-205114.0	-7654.0	-9997.0
27	16	36	10	435	190.0	-204898.0	-7674.0	-9829.0
27	16	36	10	436	215.0	-197407.0	-6376.0	-7982.0
27	16	36	10	437	216.0	-197142.0	-6249.0	-8087.0
27	16	36	10	437	217.0	-196572.0	-6106.0	-8082.0
27	16	36	10	438	218.0	-196121.0	-5996.0	-8465.0
27	16	36	10	438	219.0	-195736.0	-5864.0	-8752.0
27	16	36	10	439	220.0	-195314.0	-5737.0	-8975.0
27	16	36	10	472	221.0	-195004.0	-5604.0	-9351.0
27	16	36	10	472	222.0	-194801.0	-5474.0	-9834.0
27	16	36	10	473	223.0	-194755.0	-5349.0	-10061.0
27	16	36	10	473	224.0	-194797.0	-5224.0	-10134.0
27	16	36	10	474	225.0	-194672.0	-5102.0	-10797.0
27	16	36	10	475	226.0	-194557.0	-4984.0	-11070.0
27	16	36	10	517	227.0	-194947.0	-4872.0	-11355.0
27	16	36	10	517	228.0	-195321.0	-4737.0	-11684.0
27	16	36	10	518	229.0	-196127.0	-4609.0	-12261.0
27	16	36	10	519	230.0	-197142.0	-4483.0	-12868.0
27	16	36	10	519	231.0	-198131.0	-4342.0	-13187.0
27	16	36	10	520	232.0	-199241.0	-4216.0	-13752.0
27	16	36	10	520	233.0	-200386.0	-4112.0	-14017.0
27	16	36	10	521	234.0	-201154.0	-3979.0	-14406.0
27	16	36	10	522	235.0	-201759.0	-3836.0	-14981.0
27	16	36	10	522	237.0	-202634.0	-3579.0	-15288.0
27	16	36	10	523	238.0	-203360.0	-3454.0	-15624.0
27	16	36	10	523	239.0	-203902.0	-3321.0	-15644.0
27	16	36	10	524	240.0	-204619.0	-3197.0	-15976.0
27	16	36	10	525	241.0	-205442.0	-3063.0	-16340.0
27	16	36	10	525	242.0	-206656.0	-2942.0	-16182.0
27	16	36	10	526	3.0	-217412.0	-1085.0	-15867.0
27	16	36	10	526	4.0	-217665.0	-982.0	-15893.0
27	16	36	10	527	5.0	-218134.0	-895.0	-15726.0
27	16	36	10	528	6.0	-218742.0	-791.0	-15621.0
27	16	36	10	528	7.0	-219574.0	-686.0	-15624.0
27	16	36	10	529	8.0	-220436.0	-588.0	-15648.0
27	16	36	10	529	9.0	-220924.0	-483.0	-15357.0
27	16	36	10	562	10.0	-220771.0	-391.0	-15315.0
27	16	36	10	563	11.0	-219974.0	-289.0	-15270.0
27	16	36	10	563	12.0	-218566.0	-172.0	-15175.0
27	16	36	10	586	13.0	-216545.0	-106.0	-15337.0
27	16	36	10	587	14.0	-213106.0	-24.0	-15372.0
27	16	36	10	587	15.0	-207494.0	55.0	-15148.0
27	16	36	10	588	16.0	-196669.0	113.0	-15369.0
27	16	36	10	588	17.0	-178977.0	166.0	-15296.0
27	16	36	10	589	18.0	-166580.0	259.0	-14979.0
27	16	36	10	590	19.0	-169796.0	350.0	-14896.0
27	16	36	10	590	20.0	-183125.0	415.0	-14794.0
27	16	36	10	591	21.0	-196970.0	514.0	-14465.0
27	16	36	10	591	22.0	-207832.0	580.0	-13976.0
27	16	36	10	592	23.0	-211067.0	651.0	-13935.0
27	16	36	10	592	24.0	-209234.0	701.0	-14057.0
27	16	36	10	593	26.0	-192156.0	811.0	-14750.0
27	16	36	10	593	27.0	-183748.0	865.0	-14456.0
27	16	36	10	594	28.0	-178542.0	946.0	-14254.0
27	16	36	10	595	29.0	-176879.0	1031.0	-14802.0
27	16	36	10	595	30.0	-178107.0	1087.0	-14408.0
27	16	36	10	596	31.0	-180519.0	1156.0	-13623.0
27	16	36	10	609	32.0	-182644.0	1219.0	-13571.0
27	16	36	10	610	33.0	-185432.0	1276.0	-14079.0
27	16	36	10	610	34.0	-189108.0	1340.0	-13746.0
27	16	36	10	611	35.0	-192283.0	1383.0	-13197.0
27	16	36	10	612	36.0	-194772.0	1433.0	-13561.0
27	16	36	10	612	37.0	-196682.0	1469.0	-13608.0
27	16	36	10	613	38.0	-197336.0	1510.0	-13592.0
27	16	36	10	614	39.0	-196568.0	1562.0	-13419.0
27	16	36	10	614	40.0	-195049.0	1620.0	-13339.0
27	16	36	10	615	41.0	-193634.0	1664.0	-13371.0
27	16	36	10	615	42.0	-192649.0	1715.0	-13039.0
27	16	36	10	616	43.0	-192341.0	1726.0	-13240.0
27	16	36	10	617	44.0	-192657.0	1752.0	-13547.0
27	16	36	10	617	45.0	-193342.0	1794.0	-13572.0
27	16	36	10	618	46.0	-194255.0	1813.0	-13305.0
27	16	36	10	618	48.0	-196187.0	1860.0	-13472.0
27	16	36	10	619	49.0	-196512.0	1896.0	-13429.0
27	16	36	10	620	50.0	-196736.0	1944.0	-13597.0
27	16	36	10	620	51.0	-196544.0	1978.0	-13881.0
27	16	36	10	621	52.0	-196026.0	2001.0	-13579.0
27	16	36	10	621	53.0	-195387.0	2015.0	-13461.0
27	16	36	10	622	54.0	-194518.0	2041.0	-13504.0
27	16	36	10	651	55.0	-194037.0	2051.0	-13474.0
27	16	36	10	652	56.0	-193819.0	2064.0	-12750.0
27	16	36	10	652	57.0	-193763.0	2057.0	-12314.0
27	16	36	10	653	58.0	-193930.0	2051.0	-12387.0
27	16	36	10	654	59.0	-194076.0	2073.0	-12334.0
27	16	36	10	654	60.0	-194361.0	2076.0	-12450.0
27	16	36	10	655	61.0	-194737.0	2092.0	-12645.0
27	16	36	10	656	62.0	-194969.0	2094.0	-12423.0
27	16	36	10	656	63.0	-194930.0	2094.0	-12544.0
27	16	36	10	657	64.0	-194902.0	2079.0	-13154.0
27	16	36	10	657	65.0	-194404.0	2053.0	-13283.0
27	16	36	10	658	66.0	-194304.0	2040.0	-12801.0
27	16	36	10	659	67.0	-194636.0	2016.0	-12654.0
27	16	36	10	659	68.0	-195500.0	2012.0	-12909.0
27	16	36	10	660	69.0	-196286.0	1999.0	-12561.0
27	16	36	10	660	71.0	-197905.0	1954.0	-12047.0
27	16	36	10	661	72.0	-198755.0	1934.0	-12019.0
27	16	36	10	662	73.0	-199763.0	1937.0	-12234.0
27	16	36	10	662	74.0	-200974.0	1896.0	-12611.0
27	16	36	10	663	75.0	-201797.0	1883.0	-12603.0
27	16	36	10	663	76.0	-202782.0	1848.0	-12612.0
27	16	36	10	696	77.0	-203684.0	1822.0	-12646.0
27	16	36	10	697	78.0	-203996.0	1805.0	-12547.0
27	16	36	10	697	79.0	-203687.0	1780.0	-12406.0
27	16	36	10	698	80.0	-203278.0	1736.0	-12382.0
27	16	36	10	699	81.0	-202877.0	1701.0	-12244.0
27	16	36	10	699	82.0	-202527.0	1676.0	-12281.0
27	16	36	10	700	83.0	-202250.0	1646.0	-12501.0
27	16	36	10	701	84.0	-202287.0	1597.0	-12469.0
27	16	36	10	701	85.0	-202726.0	1544.0	-12512.0
27	16	36	10	702	86.0	-203326.0	1494.0	-12822.0
27	16	36	10	702	87.0	-203783.0	1433.0	-12429.0
27	16	36	10	703	88.0	-203797.0	1409.0	-12248.0
27	16	36	10	704	89.0	-203780.0	1383.0	-12654.0
27	16	36	10	704	90.0	-203689.0	1333.0	-12498.0
27	16	36	10	705	91.0	-203724.0	1286.0	-12087.0
27	16	36	10	705	93.0	-203221.0	1239.0	-12011.0
27	16	36	10	706	94.0	-202628.0	1173.0	-11902.0
27	16	36	10	741	95.0	-201684.0	1143.0	-11830.0
27	16	36	10	741	96.0	-200860.0	1121.0	-11924.0
27	16	36	10	742	97.0	-199891.0	1076.0	-11979.0
27	16	36	10	743	98.0	-198924.0	1048.0	-12139.0
27	16	36	10	743	99.0	-198164.0	1026.0	-12563.0
27	16	36	10	744	100.0	-197635.0	1004.0	-12116.0
27	16	36	10	744	101.0	-196951.0	972.0	-11772.0
27	16	36	10	745	102.0	-196572.0	928.0	-11937.0
27	16	36	10	746	103.0	-196047.0	888.0	-12231.0
27	16	36	10	746	104.0	-195550.0	868.0	-12225.0
27	16	36	10	747	105.0	-195465.0	807.0	-12049.0
27	16	36	10	748	106.0	-195605.0	732.0	-12131.0
27	16	36	10	748	107.0	-196111.0	719.0	-12340.0
27	16	36	10	749	108.0	-196696.0	692.0	-12321.0
27	16	36	10	749	109.0	-197627.0	654.0	-12184.0
27	16	36	10	750	110.0	-198403.0	629.0	-12124.0
27	16	36	10	751	116.0	-201449.0	417.0	-11507.0
27	16	36	10	751	117.0	-201460.0	377.0	-11861.0
27	16	36	10	752	118.0	-201352.0	355.0	-12104.0
27	16	36	10	752	119.0	-201364.0	333.0	-11871.0
27	16	36	10	753	120.0	-201402.0	326.0	-11657.0
27	16	36	10	754	121.0	-201561.0	309.0	-12138.0
27	16	36	10	754	122.0	-201887.0	278.0	-11956.0
27	16	36	10	786	123.0	-202171.0	263.0	-11601.0
27	16	36	10	787	124.0	-202207.0	236.0	-11711.0
27	16	36	10	788	125.0	-202433.0	191.0	-11559.0
27	16	36	10	788	126.0	-202131.0	158.0	-11332.0
27	16	36	10	789	127.0	-201577.0	124.0	-11137.0
27	16	36	10	790	128.0	-200542.0	93.0	-11050.0
27	16	36	10	791	129.0	-199789.0	63.0	-10847.0
27	16	36	10	791	130.0	-199026.0	32.0	-10682.0
27	16	36	10	792	131.0	-198384.0	-18.0	-10923.0
27	16	36	10	793	132.0	-197831.0	-47.0	-10803.0
27	16	36	10	793	133.0	-197186.0	-54.0	-10862.0
27	16	36	10	794	134.0	-196797.0	-79.0	-11107.0
27	16	36	10	795	135.0	-196009.0	-136.0	-11201.0
27	16	36	10	795	136.0	-195686.0	-159.0	-11140.0
27	16	36	10	796	137.0	-195592.0	-206.0	-11328.0
27	16	36	10	797	138.0	-195862.0	-233.0	-11289.0
27	16	36	10	797	139.0	-196489.0	-256.0	-10990.0
27	16	36	10	798	140.0	-197046.0	-300.0	-10879.0
27	16	36	10	798	141.0	-197773.0	-298.0	-10942.0
27	16	36	10	799	142.0	-198548.0	-313.0	-10719.0
27	16	36	10	799	143.0	-199165.0	-360.0	-10851.0
27	16	36	10	800	144.0	-199418.0	-396.0	-11208.0
27	16	36	10	831	145.0	-199795.0	-417.0	-11139.0
27	16	36	10	832	146.0	-199937.0	-450.0	-11321.0
27	16	36	10	832	147.0	-200047.0	-484.0	-11332.0
27	16	36	10	833	148.0	-199973.0	-520.0	-11222.0
27	16	36	10	834	149.0	-199590.0	-559.0	-11097.0
27	16	36	10	834	150.0	-199392.0	-584.0	-10860.0
27	16	36	10	835	151.0	-199276.0	-607.0	-10684.0
27	16	36	10	836	152.0	-199577.0	-653.0	-10822.0
27	16	36	10	836	153.0	-200030.0	-688.0	-11228.0
27	16	36	10	837	154.0	-200844.0	-710.0	-11152.0
27	16	36	10	838	155.0	-201441.0	-752.0	-10899.0
27	16	36	10	838	156.0	-201752.0	-792.0	-11542.0
27	16	36	10	839	157.0	-201828.0	-829.0	-11878.0
27	16	36	10	840	158.0	-202077.0	-864.0	-11432.0
27	16	36	10	840	159.0	-202320.0	-894.0	-11466.0
27	16	36	10	841	161.0	-202777.0	-950.0	-10990.0
27	16	36	10	842	162.0	-203091.0	-973.0	-10965.0
27	16	36	10	842	163.0	-203392.0	-986.0	-11201.0
27	16	36	10	843	164.0	-203242.0	-1024.0	-10886.0
27	16	36	10	843	165.0	-203164.0	-1062.0	-10628.0
27	16	36	10	876	166.0	-203041.0	-1106.0	-10809.0
27	16	36	10	877	167.0	-203195.0	-1131.0	-10921.0
27	16	36	10	878	168.0	-203183.0	-1176.0	-11002.0
27	16	36	10	879	169.0	-203174.0	-1209.0	-10946.0
27	16	36	10	879	170.0	-202997.0	-1232.0	-10888.0
27	16	36	10	880	171.0	-202466.0	-1274.0	-10925.0
27	16	36	10	881	172.0	-201550.0	-1314.0	-10913.0
27	16	36	10	882	173.0	-200622.0	-1337.0	-10981.0
27	16	36	10	882	174.0	-200186.0	-1375.0	-10918.0
27	16	36	10	883	175.0	-199671.0	-1417.0	-10957.0
27	16	36	10	884	176.0	-199045.0	-1482.0	-11147.0
27	16	36	10	884	177.0	-198679.0	-1523.0	-11022.0
27	16	36	10	885	178.0	-198895.0	-1564.0	-11322.0
27	16	36	10	886	179.0	-199126.0	-1571.0	-11331.0
27	16	36	10	886	180.0	-199235.0	-1606.0	-11391.0
27	16	36	10	887	181.0	-199273.0	-1641.0	-10951.0
27	16	36	10	887	183.0	-198532.0	-1702.0	-10884.0
27	16	36	10	888	184.0	-198176.0	-1733.0	-11090.0
27	16	36	10	889	185.0	-197996.0	-1772.0	-10806.0
27	16	36	10	889	186.0	-198296.0	-1824.0	-10331.0
27	16	36	10	890	187.0	-198439.0	-1858.0	-10921.0
27	16	36	10	890	188.0	-197796.0	-1885.0	-11093.0
27	16	36	10	891	189.0	-197436.0	-1918.0	-10818.0
27	16	36	10	922	190.0	-197314.0	-1938.0	-10724.0
27	16	36	10	923	191.0	-197202.0	-1948.0	-11375.0
27	16	36	10	923	192.0	-197132.0	-1978.0	-11451.0
27	16	36	10	924	193.0	-197155.0	-2019.0	-11167.0
27	16	36	10	925	194.0	-197427.0	-2087.0	-10746.0
27	16	36	10	925	195.0	-198136.0	-2133.0	-11025.0
27	16	36	10	926	196.0	-199102.0	-2200.0	-10704.0
27	16	36	10	927	197.0	-200133.0	-2249.0	-10671.0
27	16	36	10	927	198.0	-200951.0	-2265.0	-10886.0
27	16	36	10	928	199.0	-201731.0	-2296.0	-10802.0
27	16	36	10	929	200.0	-202336.0	-2321.0	-10649.0
27	16	36	10	929	201.0	-202737.0	-2357.0	-10807.0
27	16	36	10	930	202.0	-203087.0	-2401.0	-10867.0
27	16	36	10	931	203.0	-202777.0	-2437.0	-10904.0
27	16	36	10	931	204.0	-202189.0	-2478.0	-11086.0
27	16	36	10	932	206.0	-200980.0	-2594.0	-11687.0
27	16	36	10	933	207.0	-200060.0	-2636.0	-11644.0
27	16	36	10	933	208.0	-199217.0	-2666.0	-11422.0
27	16	36	10	934	209.0	-198351.0	-2667.0	-11340.0
27	16	36	10	934	210.0	-197595.0	-2707.0	-11494.0
27	16	36	10	935	211.0	-197301.0	-2721.0	-11511.0
27	16	36	10	966	212.0	-197451.0	-2738.0	-11330.0
27	16	36	10	967	213.0	-198137.0	-2781.0	-11421.0
27	16	36	10	968	214.0	-198984.0	-2813.0	-11304.0
27	16	36	10	968	215.0	-199862.0	-2866.0	-11104.0
27	16	36	10	969	216.0	-200488.0	-2918.0	-10976.0
27	16	36	10	970	217.0	-200874.0	-2971.0	-10981.0
27	16	36	10	970	218.0	-200866.0	-3011.0	-10677.0
27	16	36	10	971	219.0	-200565.0	-3062.0	-10520.0
27	16	36	10	972	220.0	-200296.0	-3079.0	-10239.0
27	16	36	10	972	221.0	-199833.0	-3119.0	-9939.0
27	16	36	10	973	222.0	-199405.0	-3169.0	-10252.0
27	16	36	10	974	223.0	-199158.0	-3210.0	-10492.0
27	16	36	10	974	224.0	-198787.0	-3249.0	-10278.0
27	16	36	10	975	225.0	-198310.0	-3304.0	-10239.0
27	16	36	10	976	226.0	-197871.0	-3351.0	-10891.0
27	16	36	10	976	228.0	-197332.0	-3436.0	-10709.0
27	16	36	10	977	229.0	-197122.0	-3452.0	-10484.0
27	16	36	10	977	230.0	-196984.0	-3479.0	-10831.0
27	16	36	10	978	231.0	-196999.0	-3522.0	-10606.0
27	16	36	10	979	232.0	-197306.0	-3557.0	-10359.0
27	16	36	10	979	233.0	-198201.0	-3583.0	-10509.0
27	16	36	11	11	234.0	-199473.0	-3616.0	-10587.0
27	16	36	11	12	235.0	-200676.0	-3652.0	-10283.0
27	16	36	11	12	236.0	-201403.0	-3703.0	-10435.0
27	16	36	11	13	237.0	-201731.0	-3779.0	-10736.0
27	16	36	11	14	238.0	-202039.0	-3804.0	-10691.0
27	16	36	11	14	239.0	-202601.0	-3839.0	-10855.0
27	16	36	11	15	240.0	-203337.0	-3867.0	-10839.0
27	16	36	11	16	241.0	-204108.0	-3892.0	-10681.0
27	16	36	11	17	242.0	-204996.0	-3916.0	-10584.0
27	16	36	11	17	243.0	-206190.0	-3988.0	-10960.0
27	16	36	11	18	244.0	-207413.0	-4026.0	-11620.0
27	16	36	11	19	245.0	-208679.0	-4077.0	-12423.0
27	16	36	11	19	246.0	-209976.0	-4131.0	-12710.0
27	16	36	11	20	247.0	-211092.0	-4174.0	-13111.0
27	16	36	11	21	248.0	-212087.0	-4204.0	-13987.0
27	16	36	11	21	251.0	-214592.0	-4317.0	-14862.0
27	16	36	11	22	252.0	-214877.0	-4355.0	-12886.0
27	16	36	11	23	253.0	-214869.0	-4374.0	-8586.0
27	16	36	11	23	254.0	-214542.0	-4423.0	-3316.0
27	16	36	11	24	255.0	-213637.0	-4456.0	506.0
27	16	36	11	24	0.0	-212477.0	-4482.0	4190.0
27	16	36	11	56	1.0	-210759.0	-4506.0	7196.0
27	16	36	11	57	2.0	-207622.0	-4551.0	8950.0
27	16	36	11	58	3.0	-203192.0	-4591.0	9851.0
27	16	36	11	58	4.0	-197466.0	-4637.0	9897.0
27	16	36	11	59	5.0	-191224.0	-4669.0	9167.0
27	16	36	11	60	6.0	-184800.0	-4712.0	8761.0
27	16	36	11	60	7.0	-178642.0	-4741.0	8258.0
27	16	36	11	61	8.0	-173514.0	-4787.0	6184.0
27	16	36	11	62	9.0	-169969.0	-4828.0	4278.0
27	16	36	11	62	10.0	-167323.0	-4857.0	2336.0
27	16	36	11	63	11.0	-165398.0	-4919.0	224.0
27	16	36	11	64	12.0	-165677.0	-4965.0	-1726.0
27	16	36	11	64	13.0	-167611.0	-4997.0	-3504.0
27	16	36	11	65	14.0	-170244.0	-5022.0	-4467.0
27	16	36	11	66	15.0	-173657.0	-5047.0	-5002.0
27	16	36	11	66	17.0	-181887.0	-5132.0	-6047.0
27	16	36	11	67	18.0	-187149.0	-5183.0	-6762.0
27	16	36	11	67	19.0	-192666.0	-5219.0	-7360.0
27	16	36	11	68	20.0	-197217.0	-5271.0	-7732.0
27	16	36	11	69	21.0	-200592.0	-5309.0	-7984.0
27	16	36	11	69	22.0	-202802.0	-5335.0	-8461.0
27	16	36	11	102	23.0	-198663.0	-5365.0	-8346.0
27	16	36	11	102	24.0	-182379.0	-5374.0	-8565.0
27	16	36	11	103	25.0	-164126.0	-5394.0	-9142.0
27	16	36	11	104	26.0	-152797.0	-5447.0	-9165.0
27	16	36	11	105	27.0	-150295.0	-5496.0	-9531.0
27	16	36	11	105	28.0	-154134.0	-5528.0	-9616.0
27	16	36	11	106	29.0	-161083.0	-5597.0	-9609.0
27	16	36	11	107	30.0	-170604.0	-5649.0	-10079.0
27	16	36	11	108	31.0	-182967.0	-5690.0	-10392.0
27	16	36	11	108	32.0	-197392.0	-5722.0	-9861.0
27	16	36	11	109	33.0	-210241.0	-5752.0	-9437.0
27	16	36	11	109	34.0	-218522.0	-5794.0	-9750.0
27	16	36	11	110	35.0	-222422.0	-5804.0	-9534.0
27	16	36	11	111	36.0	-223347.0	-5852.0	-9034.0
27	16	36	11	112	37.0	-221076.0	-5895.0	-9084.0
27	16	36	11	112	39.0	-209662.0	-5989.0	-9644.0
27	16	36	11	113	40.0	-201928.0	-6024.0	-9791.0
27	16	36	11	113	41.0	-201079.0	-6065.0	-10037.0
27	16	36	11	114	42.0	-202219.0	-6086.0	-9927.0
27	16	36	11	115	43.0	-205529.0	-6110.0	-9830.0
27	16	36	11	115	44.0	-207854.0	-6134.0	-10055.0
27	16	36	11	116	45.0	-211532.0	-6166.0	-9666.0
27	16	36	11	147	46.0	-216401.0	-6177.0	-9375.0
27	16	36	11	147	47.0	-218940.0	-6196.0	-9577.0
27	16	36	11	148	48.0	-216839.0	-6256.0	-9691.0
27	16	36	11	149	49.0	-212654.0	-6294.0	-9621.0
27	16	36	11	150	50.0	-210679.0	-6351.0	-9636.0
27	16	36	11	151	51.0	-211777.0	-6402.0	-9597.0
27	16	36	11	151	52.0	-213889.0	-6447.0	-9661.0
27	16	36	11	152	53.0	-214808.0	-6452.0	-9498.0
27	16	36	11	153	54.0	-212950.0	-6469.0	-9531.0
27	16	36	11	153	55.0	-209576.0	-6505.0	-9281.0
27	16	36	11	154	56.0	-207367.0	-6522.0	-9297.0
27	16	36	11	155	57.0	-206749.0	-6567.0	-9289.0
27	16	36	11	155	58.0	-206341.0	-6607.0	-9176.0
27	16	36	11	156	59.0	-205463.0	-6646.0	-9326.0
27	16	36	11	157	60.0	-204632.0	-6698.0	-9145.0
27	16	36	11	157	62.0	-204758.0	-6752.0	-9469.0
27	16	36	11	158	63.0	-205222.0	-6778.0	-9497.0
27	16	36	11	158	64.0	-205778.0	-6797.0	-9227.0
27	16	36	11	159	65.0	-206236.0	-6821.0	-9645.0
27	16	36	11	160	66.0	-206644.0	-6845.0	-9592.0
27	16	36	11	160	67.0	-206842.0	-6867.0	-9087.0
27	16	36	11	191	68.0	-206409.0	-6896.0	-8695.0
27	16	36	11	192	69.0	-205322.0	-6924.0	-8954.0
27	16	36	11	192	70.0	-203426.0	-6955.0	-9078.0
27	16	36	11	193	71.0	-201225.0	-7004.0	-8451.0
27	16	36	11	194	72.0	-199041.0	-7039.0	-8246.0
27	16	36	11	195	73.0	-197316.0	-7072.0	-8694.0
27	16	36	11	195	74.0	-196309.0	-7089.0	-8682.0
27	16	36	11	196	75.0	-196119.0	-7104.0	-8576.0
27	16	36	11	197	76.0	-196428.0	-7141.0	-8719.0
27	16	36	11	197	77.0	-197001.0	-7163.0	-8942.0
27	16	36	11	198	78.0	-198163.0	-7205.0	-8956.0
27	16	36	11	237	79.0	-199531.0	-7263.0	-8933.0
27	16	36	11	237	80.0	-200682.0	-7302.0	-8389.0
27	16	36	11	238	81.0	-201297.0	-7334.0	-8184.0
27	16	36	11	239	82.0	-201667.0	-7370.0	-7891.0
27	16	36	11	240	84.0	-201924.0	-7419.0	-7839.0
27	16	36	11	240	85.0	-202410.0	-7441.0	-7897.0
27	16	36	11	241	86.0	-203268.0	-7480.0	-8132.0
27	16	36	11	242	87.0	-204501.0	-7496.0	-8011.0
27	16	36	11	242	88.0	-206081.0	-7539.0	-7857.0
27	16	36	11	243	89.0	-207884.0	-7566.0	-8026.0
27	16	36	11	244	90.0	-209288.0	-7602.0	-7756.0
27	16	36	11	244	91.0	-210153.0	-7640.0	-7807.0
27	16	36	11	245	92.0	-210592.0	-7670.0	-7335.0
27	16	36	11	246	93.0	-211018.0	-7690.0	-6910.0
27	16	36	11	246	94.0	-211736.0	-7700.0	-6906.0
27	16	36	11	247	107.0	-202226.0	-7932.0	-5349.0
27	16	36	11	247	108.0	-200596.0	-7924.0	-5218.0
27	16	36	11	248	109.0	-199177.0	-7921.0	-5172.0
27	16	36	11	249	110.0	-197868.0	-7916.0	-4869.0
27	16	36	11	249	111.0	-196506.0	-7893.0	-4911.0
27	16	36	11	250	112.0	-195079.0	-7871.0	-4813.0
27	16	36	11	281	113.0	-193616.0	-7832.0	-4832.0
27	16	36	11	282	114.0	-192577.0	-7779.0	-4752.0
27	16	36	11	283	115.0	-192139.0	-7729.0	-4501.0
27	16	36	11	284	116.0	-191641.0	-7689.0	-4047.0
27	16	36	11	284	117.0	-191513.0	-7641.0	-3843.0
27	16	36	11	285	118.0	-191449.0	-7612.0	-3694.0
27	16	36	11	286	119.0	-191640.0	-7558.0	-3844.0
27	16	36	11	287	120.0	-191686.0	-7513.0	-3870.0
27	16	36	11	287	121.0	-191931.0	-7437.0	-3531.0
27	16	36	11	288	122.0	-192260.0	-7378.0	-3316.0
27	16	36	11	289	123.0	-192775.0	-7277.0	-3353.0
27	16	36	11	289	124.0	-193002.0	-7199.0	-3351.0
27	16	36	11	290	125.0	-193687.0	-7110.0	-2989.0
27	16	36	11	291	126.0	-194813.0	-7030.0	-2791.0
27	16	36	11	292	127.0	-196231.0	-6931.0	-2401.0
27	16	36	11	292	129.0	-199237.0	-6752.0	-2128.0
27	16	36	11	293	130.0	-200351.0	-6661.0	-1842.0
27	16	36	11	294	131.0	-200866.0	-6532.0	-2076.0
27	16	36	11	294	132.0	-201504.0	-6394.0	-2634.0
27	16	36	11	295	133.0	-202147.0	-6261.0	-2744.0
27	16	36	11	296	134.0	-202701.0	-6123.0	-2665.0
27	16	36	11	296	135.0	-203314.0	-5997.0	-2855.0
27	16	36	11	372	136.0	-203950.0	-5861.0	-3118.0
27	16	36	11	373	137.0	-204329.0	-5725.0	-3239.0
27	16	36	11	374	138.0	-204435.0	-5589.0	-3405.0
27	16	36	11	375	139.0	-204569.0	-5481.0	-3616.0
27	16	36	11	376	140.0	-204397.0	-5359.0	-3719.0
27	16	36	11	376	141.0	-204271.0	-5226.0	-3351.0
27	16	36	11	377	142.0	-203831.0	-5093.0	-3541.0
27	16	36	11	378	143.0	-203797.0	-4952.0	-4029.0
27	16	36	11	378	144.0	-203859.0	-4806.0	-4566.0
27	16	36	11	379	145.0	-204289.0	-4660.0	-4982.0
27	16	36	11	380	146.0	-204762.0	-4526.0	-5517.0
27	16	36	11	380	147.0	-205268.0	-4389.0	-6187.0
27	16	36	11	381	148.0	-205856.0	-4257.0	-6819.0
27	16	36	11	382	149.0	-206335.0	-4116.0	-7058.0
27	16	36	11	382	150.0	-206811.0	-3987.0	-7314.0
27	16	36	11	383	174.0	-209171.0	-1199.0	-11736.0
27	16	36	11	384	175.0	-209985.0	-1101.0	-11763.0
27	16	36	11	384	176.0	-210736.0	-988.0	-11516.0
27	16	36	11	385	177.0	-211867.0	-887.0	-11377.0
27	16	36	11	385	178.0	-212784.0	-804.0	-11388.0
27	16	36	11	386	179.0	-213974.0	-714.0	-11632.0
27	16	36	11	387	180.0	-215112.0	-636.0	-11847.0
27	16	36	11	462	181.0	-216479.0	-528.0	-11984.0
27	16	36	11	463	182.0	-217527.0	-422.0	-11829.0
27	16	36	11	464	183.0	-217902.0	-352.0	-11883.0
27	16	36	11	464	184.0	-217637.0	-252.0	-11709.0
27	16	36	11	465	185.0	-216954.0	-169.0	-11756.0
27	16	36	11	466	186.0	-215337.0	-93.0	-11966.0
27	16	36	11	467	187.0	-211531.0	-23.0	-11989.0
27	16	36	11	467	188.0	-203826.0	49.0	-12054.0
27	16	36	11	468	189.0	-188526.0	121.0	-12487.0
27	16	36	11	469	190.0	-174182.0	199.0	-12711.0
27	16	36	11	469	191.0	-172368.0	263.0	-12381.0
27	16	36	11	470	192.0	-183934.0	316.0	-12533.0
27	16	36	11	471	193.0	-197946.0	396.0	-12758.0
27	16	36	11	472	194.0	-211896.0	467.0	-12529.0
27	16	36	11	472	195.0	-217556.0	549.0	-12219.0
27	16	36	11	473	197.0	-212662.0	669.0	-12472.0
27	16	36	11	474	219.0	-190600.0	1636.0	-12826.0
27	16	36	11	475	220.0	-192067.0	1659.0	-12627.0
27	16	36	11	475	221.0	-193562.0	1684.0	-12709.0
27	16	36	11	476	222.0	-195090.0	1711.0	-12869.0
27	16	36	11	477	223.0	-196489.0	1769.0	-12495.0
27	16	36	11	477	224.0	-197807.0	1806.0	-12499.0
27	16	36	11	478	225.0	-198749.0	1828.0	-12535.0
27	16	36	11	506	226.0	-199576.0	1853.0	-12717.0
27	16	36	11	507	227.0	-200029.0	1859.0	-12708.0
27	16	36	11	508	228.0	-200124.0	1868.0	-12948.0
27	16	36	11	509	229.0	-200156.0	1861.0	-12812.0
27	16	36	11	509	230.0	-200351.0	1838.0	-12586.0
27	16	36	11	510	231.0	-200794.0	1844.0	-12710.0
27	16	36	11	511	232.0	-201095.0	1831.0	-12869.0
27	16	36	11	512	233.0	-201444.0	1840.0	-12192.0
27	16	36	11	512	234.0	-201707.0	1838.0	-11899.0
27	16	36	11	513	235.0	-202081.0	1824.0	-12014.0
27	16	36	11	514	236.0	-202207.0	1804.0	-12434.0
27	16	36	11	514	237.0	-202237.0	1809.0	-12666.0
27	16	36	11	515	238.0	-202030.0	1804.0	-12583.0
27	16	36	11	516	239.0	-201794.0	1768.0	-12310.0
27	16	36	11	516	240.0	-201624.0	1736.0	-12394.0
27	16	36	11	517	242.0	-201706.0	1700.0	-13622.0
27	16	36	11	518	243.0	-202017.0	1694.0	-13071.0
27	16	36	11	518	244.0	-202304.0	1682.0	-12800.0
27	16	36	11	519	245.0	-202846.0	1641.0	-12822.0
27	16	36	11	520	246.0	-203324.0	1613.0	-12870.0
27	16	36	11	520	247.0	-203939.0	1608.0	-12797.0
27	16	36	11	552	248.0	-204454.0	1581.0	-12992.0
27	16	36	11	553	249.0	-204835.0	1542.0	-13016.0
27	16	36	11	553	250.0	-204915.0	1498.0	-12878.0
27	16	36	11	554	251.0	-204768.0	1463.0	-13101.0
27	16	36	11	555	252.0	-204462.0	1450.0	-13147.0
27	16	36	11	555	253.0	-203875.0	1415.0	-13067.0
27	16	36	11	556	254.0	-203634.0	1381.0	-12813.0
27	16	36	11	556	255.0	-203500.0	1347.0	-12811.0
27	16	36	11	557	0.0	-203381.0	1293.0	-12691.0
27	16	36	11	558	1.0	-202923.0	1252.0	-12971.0
27	16	36	11	558	2.0	-202871.0	1211.0	-12914.0
27	16	36	11	559	3.0	-202891.0	1143.0	-12887.0
27	16	36	11	559	4.0	-203314.0	1100.0	-13161.0
27	16	36	11	560	5.0	-203385.0	1067.0	-13390.0
27	16	36	11	561	6.0	-203470.0	1032.0	-13064.0
27	16	36	11	561	8.0	-203364.0	953.0	-13446.0
27	16	36	11	562	9.0	-203084.0	922.0	-13044.0
27	16	36	11	562	10.0	-202564.0	886.0	-13075.0
27	16	36	11	563	11.0	-202129.0	838.0	-13173.0
27	16	36	11	563	12.0	-201527.0	809.0	-12952.0
27	16	36	11	564	13.0	-200733.0	768.0	-12634.0
27	16	36	11	596	14.0	-200002.0	738.0	-12885.0
27	16	36	11	596	15.0	-199442.0	691.0	-12856.0
27	16	36	11	597	16.0	-199226.0	657.0	-12681.0
27	16	36	11	597	17.0	-199002.0	631.0	-13199.0
27	16	36	11	598	18.0	-199117.0	586.0	-13272.0
27	16	36	11	599	19.0	-199274.0	558.0	-13231.0
27	16	36	11	599	20.0	-199655.0	507.0	-13244.0
27	16	36	11	600	21.0	-199492.0	471.0	-13806.0
27	16	36	11	601	22.0	-199482.0	409.0	-13470.0
27	16	36	11	601	23.0	-200011.0	376.0	-13427.0
27	16	36	11	602	24.0	-200246.0	323.0	-13872.0
27	16	36	11	603	25.0	-199562.0	289.0	-13939.0
27	16	36	11	603	26.0	-199119.0	244.0	-13619.0
27	16	36	11	604	27.0	-199171.0	219.0	-13630.0
27	16	36	11	605	28.0	-198884.0	196.0	-13796.0
27	16	36	11	605	30.0	-198274.0	112.0	-13742.0
27	16	36	11	606	31.0	-198114.0	66.0	-13756.0
27	16	36	11	606	32.0	-198102.0	51.0	-13763.0
27	16	36	11	607	33.0	-198462.0	15.0	-13736.0
27	16	36	11	608	34.0	-199042.0	-16.0	-14244.0
27	16	36	11	608	35.0	-199645.0	-41.0	-14060.0
27	16	36	11	609	36.0	-199929.0	-77.0	-13592.0
27	16	36	11	640	37.0	-199851.0	-105.0	-13271.0
27	16	36	11	641	38.0	-199742.0	-130.0	-13307.0
27	16	36	11	642	39.0	-199323.0	-154.0	-13645.0
27	16	36	11	642	40.0	-198611.0	-189.0	-13773.0
27	16	36	11	643	41.0	-197947.0	-241.0	-13832.0
27	16	36	11	644	42.0	-197730.0	-274.0	-14059.0
27	16	36	11	644	43.0	-197617.0	-312.0	-14303.0
27	16	36	11	645	44.0	-197819.0	-349.0	-14157.0
27	16	36	11	646	45.0	-197986.0	-389.0	-14180.0
27	16	36	11	646	46.0	-198575.0	-441.0	-14401.0
27	16	36	11	647	47.0	-198972.0	-479.0	-13833.0
27	16	36	11	648	48.0	-199222.0	-479.0	-13736.0
27	16	36	11	648	49.0	-199344.0	-502.0	-13791.0
27	16	36	11	649	50.0	-199507.0	-546.0	-13623.0
27	16	36	11	649	51.0	-199594.0	-592.0	-13312.0
27	16	36	11	650	53.0	-199295.0	-665.0	-13531.0
27	16	36	11	651	54.0	-199043.0	-704.0	-13810.0
27	16	36	11	651	55.0	-198667.0	-717.0	-14063.0
27	16	36	11	652	56.0	-198393.0	-734.0	-14122.0
27	16	36	11	652	57.0	-198359.0	-762.0	-13934.0
27	16	36	11	653	58.0	-198176.0	-779.0	-13884.0
27	16	36	11	653	59.0	-197962.0	-796.0	-13977.0
27	16	36	11	686	60.0	-197984.0	-812.0	-13924.0
27	16	36	11	687	61.0	-197947.0	-849.0	-13932.0
27	16	36	11	687	62.0	-197762.0	-891.0	-13862.0
27	16	36	11	688	63.0	-197722.0	-927.0	-13704.0
27	16	36	11	688	64.0	-197630.0	-960.0	-13922.0
27	16	36	11	689	65.0	-197526.0	-1012.0	-14043.0
27	16	36	11	690	66.0	-197485.0	-1027.0	-14072.0
27	16	36	11	690	67.0	-197439.0	-1064.0	-14066.0
27	16	36	11	691	68.0	-197166.0	-1117.0	-14132.0
27	16	36	11	691	69.0	-196742.0	-1149.0	-13932.0
27	16	36	11	692	70.0	-196199.0	-1154.0	-13574.0
27	16	36	11	693	71.0	-195839.0	-1196.0	-13644.0
27	16	36	11	693	72.0	-195321.0	-1236.0	-13557.0
27	16	36	11	694	73.0	-195248.0	-1289.0	-13522.0
27	16	36	11	694	74.0	-195314.0	-1324.0	-13703.0
27	16	36	11	695	75.0	-195451.0	-1341.0	-13808.0
27	16	36	11	696	76.0	-195631.0	-1372.0	-13591.0
27	16	36	11	696	77.0	-195989.0	-1414.0	-14052.0
27	16	36	11	697	78.0	-196239.0	-1446.0	-13886.0
27	16	36	11	697	79.0	-196198.0	-1462.0	-13896.0
27	16	36	11	698	80.0	-195989.0	-1479.0	-14281.0
27	16	36	11	699	81.0	-196228.0	-1507.0	-14198.0
27	16	36	11	731	82.0	-196644.0	-1560.0	-13673.0
27	16	36	11	731	83.0	-197227.0	-1594.0	-13496.0
27	16	36	11	732	84.0	-197557.0	-1627.0	-13671.0
27	16	36	11	733	85.0	-198022.0	-1653.0	-13191.0
27	16	36	11	733	86.0	-198416.0	-1687.0	-12747.0
27	16	36	11	734	87.0	-199055.0	-1734.0	-12950.0
27	16	36	11	735	88.0	-199582.0	-1761.0	-13273.0
27	16	36	11	735	89.0	-200291.0	-1796.0	-13089.0
27	16	36	11	736	90.0	-200489.0	-1857.0	-13001.0
27	16	36	11	736	91.0	-200704.0	-1891.0	-13084.0
27	16	36	11	737	92.0	-200732.0	-1937.0	-13173.0
27	16	36	11	738	93.0	-200939.0	-1991.0	-13340.0
27	16	36	11	738	94.0	-201260.0	-2028.0	-13401.0
27	16	36	11	739	95.0	-201851.0	-2077.0	-13140.0
27	16	36	11	739	96.0	-202584.0	-2127.0	-13104.0
27	16	36	11	740	98.0	-203257.0	-2169.0	-12938.0
27	16	36	11	741	99.0	-203623.0	-2214.0	-13117.0
27	16	36	11	741	100.0	-203456.0	-2244.0	-12911.0
27	16	36	11	742	101.0	-203207.0	-2275.0	-12556.0
27	16	36	11	742	102.0	-203296.0	-2333.0	-12712.0
27	16	36	11	743	103.0	-203317.0	-2381.0	-13344.0
27	16	36	11	776	104.0	-203097.0	-2426.0	-13011.0
27	16	36	11	777	105.0	-202449.0	-2439.0	-12842.0
27	16	36	11	778	106.0	-201949.0	-2471.0	-12722.0
27	16	36	11	780	107.0	-201881.0	-2525.0	-12368.0
27	16	36	11	781	108.0	-202014.0	-2573.0	-11830.0
27	16	36	11	781	109.0	-201862.0	-2596.0	-11942.0
27	16	36	11	782	110.0	-201824.0	-2636.0	-12214.0
27	16	36	11	783	111.0	-201591.0	-2694.0	-12272.0
27	16	36	11	784	112.0	-201675.0	-2744.0	-12335.0
27	16	36	11	785	113.0	-201477.0	-2785.0	-12615.0
27	16	36	11	785	114.0	-201927.0	-2839.0	-12726.0
27	16	36	11	786	115.0	-202022.0	-2861.0	-12827.0
27	16	36	11	787	116.0	-202449.0	-2886.0	-13012.0
27	16	36	11	787	117.0	-202361.0	-2932.0	-12607.0
27	16	36	11	788	118.0	-202455.0	-2968.0	-12377.0
27	16	36	11	788	120.0	-202906.0	-3046.0	-11926.0
27	16	36	11	789	121.0	-203103.0	-3086.0	-11773.0
27	16	36	11	790	122.0	-203181.0	-3152.0	-12099.0
27	16	36	11	790	123.0	-203001.0	-3201.0	-12512.0
27	16	36	11	791	124.0	-202430.0	-3232.0	-12337.0
27	16	36	11	791	125.0	-201986.0	-3267.0	-12087.0
27	16	36	11	792	126.0	-202054.0	-3299.0	-12457.0
27	16	36	11	821	127.0	-202378.0	-3309.0	-12309.0
27	16	36	11	822	128.0	-202784.0	-3357.0	-12249.0
27	16	36	11	823	129.0	-202819.0	-3409.0	-12128.0
27	16	36	11	823	130.0	-202213.0	-3452.0	-12012.0
27	16	36	11	824	131.0	-201291.0	-3503.0	-12332.0
27	16	36	11	825	132.0	-200403.0	-3566.0	-12276.0
27	16	36	11	825	133.0	-200051.0	-3625.0	-12191.0
27	16	36	11	826	134.0	-199814.0	-3669.0	-12359.0
27	16	36	11	826	135.0	-199812.0	-3708.0	-12535.0
27	16	36	11	827	136.0	-200054.0	-3746.0	-12184.0
27	16	36	11	828	137.0	-200196.0	-3790.0	-12412.0
27	16	36	11	828	138.0	-200420.0	-3837.0	-12666.0
27	16	36	11	829	139.0	-200557.0	-3871.0	-12442.0
27	16	36	11	829	140.0	-200791.0	-3916.0	-12143.0
27	16	36	11	830	141.0	-201102.0	-3960.0	-12406.0
27	16	36	11	831	143.0	-201344.0	-4076.0	-11958.0
27	16	36	11	831	144.0	-201524.0	-4109.0	-11797.0
27	16	36	11	832	145.0	-201686.0	-4145.0	-11949.0
27	16	36	11	832	146.0	-201656.0	-4181.0	-11769.0
27	16	36	11	833	147.0	-201612.0	-4202.0	-11779.0
27	16	36	11	833	148.0	-201691.0	-4237.0	-12081.0
27	16	36	11	867	149.0	-201646.0	-4289.0	-12354.0
27	16	36	11	867	150.0	-201310.0	-4321.0	-12476.0
27	16	36	11	868	151.0	-201247.0	-4359.0	-12852.0
27	16	36	11	869	152.0	-201261.0	-4411.0	-12823.0
27	16	36	11	869	153.0	-201180.0	-4482.0	-12562.0
27	16	36	11	870	154.0	-201234.0	-4542.0	-12532.0
27	16	36	11	870	155.0	-201601.0	-4575.0	-12474.0
27	16	36	11	871	156.0	-202433.0	-4607.0	-12054.0
27	16	36	11	872	157.0	-203036.0	-4658.0	-11597.0
27	16	36	11	872	158.0	-203640.0	-4706.0	-11482.0
27	16	36	11	873	159.0	-204121.0	-4734.0	-11285.0
27	16	36	11	873	160.0	-204217.0	-4773.0	-11096.0
27	16	36	11	874	161.0	-204228.0	-4832.0	-11065.0
27	16	36	11	875	162.0	-204312.0	-4888.0	-11562.0
27	16	36	11	875	163.0	-204591.0	-4933.0	-11363.0
27	16	36	11	876	165.0	-204902.0	-5033.0	-11417.0
27	16	36	11	877	166.0	-205054.0	-5079.0	-11331.0
27	16	36	11	877	167.0	-205038.0	-5106.0	-11607.0
27	16	36	11	878	168.0	-204698.0	-5131.0	-11404.0
27	16	36	11	878	169.0	-204330.0	-5184.0	-11381.0
27	16	36	11	879	170.0	-203548.0	-5222.0	-11567.0
27	16	36	11	879	171.0	-202737.0	-5256.0	-11253.0
27	16	36	11	911	172.0	-201917.0	-5305.0	-11401.0
27	16	36	11	911	173.0	-201079.0	-5351.0	-11127.0
27	16	36	11	912	174.0	-200029.0	-5382.0	-11304.0
27	16	36	11	913	175.0	-198685.0	-5431.0	-11372.0
27	16	36	11	913	176.0	-197871.0	-5469.0	-11248.0
27	16	36	11	914	177.0	-197564.0	-5532.0	-11147.0
27	16	36	11	915	178.0	-197166.0	-5562.0	-10676.0
27	16	36	11	915	179.0	-196674.0	-5576.0	-10558.0
27	16	36	11	916	180.0	-196105.0	-5627.0	-10610.0
27	16	36	11	916	181.0	-195789.0	-5665.0	-10396.0
27	16	36	11	917	182.0	-195268.0	-5739.0	-10567.0
27	16	36	11	918	183.0	-194779.0	-5785.0	-10885.0
27	16	36	11	919	184.0	-194672.0	-5837.0	-10882.0
27	16	36	11	919	185.0	-195114.0	-5867.0	-11070.0
27	16	36	11	920	186.0	-195815.0	-5915.0	-11581.0
27	16	36	11	921	188.0	-198311.0	-5977.0	-12472.0
27	16	36	11	921	189.0	-199847.0	-6021.0	-13049.0
27	16	36	11	922	190.0	-201390.0	-6066.0	-13579.0
27	16	36	11	923	191.0	-203008.0	-6095.0	-13619.0
27	16	36	11	923	192.0	-204657.0	-6123.0	-14075.0
27	16	36	11	924	193.0	-206459.0	-6167.0	-15144.0
27	16	36	11	924	194.0	-207997.0	-6187.0	-15877.0
27	16	36	11	963	195.0	-208923.0	-6227.0	-15171.0
27	16	36	11	964	196.0	-209899.0	-6269.0	-13305.0
27	16	36	11	964	197.0	-210937.0	-6302.0	-9282.0
27	16	36	11	965	198.0	-211607.0	-6337.0	-4592.0
27	16	36	11	965	199.0	-211556.0	-6369.0	-484.0
27	16	36	11	966	200.0	-210884.0	-6426.0	3144.0
27	16	36	11	967	201.0	-209806.0	-6493.0	5714.0
27	16	36	11	967	202.0	-207496.0	-6523.0	6895.0
27	16	36	11	968	203.0	-203996.0	-6582.0	7952.0
27	16	36	11	969	204.0	-199481.0	-6629.0	7988.0
27	16	36	11	969	205.0	-194580.0	-6658.0	7061.0
27	16	36	11	970	206.0	-189687.0	-6700.0	6703.0
27	16	36	11	970	207.0	-185121.0	-6730.0	6060.0
27	16	36	11	971	208.0	-181842.0	-6756.0	4641.0
27	16	36	11	971	209.0	-179859.0	-6786.0	3181.0
27	16	36	11	972	210.0	-179216.0	-6832.0	1078.0
27	16	36	11	973	211.0	-179786.0	-6886.0	-1523.0
27	16	36	11	973	212.0	-181359.0	-6943.0	-3387.0
27	16	36	11	974	213.0	-183460.0	-6959.0	-4437.0
27	16	36	11	974	214.0	-185949.0	-6998.0	-5517.0
27	16	36	11	975	215.0	-188785.0	-7032.0	-5908.0
27	16	36	11	975	216.0	-191854.0	-7069.0	-5912.0
27	16	36	12	3	217.0	-194819.0	-7085.0	-6602.0
27	16	36	12	4	218.0	-197561.0	-7114.0	-7691.0
27	16	36	12	4	219.0	-200164.0	-7164.0	-8127.0
27	16	36	12	5	220.0	-201839.0	-7204.0	-8686.0
27	16	36	12	6	221.0	-202778.0	-7244.0	-9448.0
27	16	36	12	6	222.0	-202714.0	-7287.0	-9674.0
27	16	36	12	7	223.0	-196274.0	-7339.0	-9623.0
27	16	36	12	8	224.0	-179079.0	-7394.0	-9806.0
27	16	36	12	8	225.0	-159839.0	-7436.0	-10222.0
27	16	36	12	9	226.0	-147246.0	-7469.0	-10421.0
27	16	36	12	9	227.0	-142857.0	-7501.0	-10311.0
27	16	36	12	10	228.0	-144559.0	-7511.0	-10304.0
27	16	36	12	11	229.0	-149571.0	-7559.0	-10467.0
27	16	36	12	11	230.0	-157699.0	-7586.0	-10768.0
27	16	36	12	12	231.0	-170055.0	-7655.0	-11119.0
27	16	36	12	12	233.0	-199349.0	-7761.0	-11429.0
27	16	36	12	13	234.0	-209558.0	-7784.0	-11394.0
27	16	36	12	13	235.0	-215468.0	-7818.0	-11316.0
27	16	36	12	14	236.0	-217949.0	-7832.0	-11382.0
27	16	36	12	15	237.0	-218212.0	-7868.0	-11353.0
27	16	36	12	15	238.0	-212809.0	-7894.0	-11304.0
27	16	36	12	47	239.0	-203495.0	-7919.0	-11324.0
27	16	36	12	47	240.0	-197845.0	-7949.0	-11402.0
27	16	36	12	48	241.0	-196314.0	-8001.0	-11672.0
27	16	36	12	49	242.0	-195912.0	-8046.0	-11947.0
27	16	36	12	49	243.0	-197594.0	-8091.0	-11926.0
27	16	36	12	50	244.0	-200413.0	-8137.0	-12005.0
27	16	36	12	51	245.0	-205594.0	-8158.0	-11772.0
27	16	36	12	51	246.0	-211187.0	-8187.0	-11944.0
27	16	36	12	52	247.0	-214254.0	-8231.0	-11733.0
27	16	36	12	52	248.0	-213652.0	-8262.0	-11352.0
27	16	36	12	53	249.0	-212046.0	-8307.0	-11049.0
27	16	36	12	54	250.0	-212014.0	-8337.0	-11129.0
27	16	36	12	54	251.0	-213990.0	-8373.0	-10907.0
27	16	36	12	55	252.0	-215364.0	-8436.0	-10779.0
27	16	36	12	56	253.0	-214588.0	-8492.0	-11364.0
27	16	36	12	56	255.0	-206626.0	-8541.0	-11704.0
27	16	36	12	57	0.0	-204098.0	-8593.0	-11712.0
27	16	36	12	57	1.0	-203051.0	-8613.0	-12089.0
27	16	36	12	58	2.0	-202136.0	-8625.0	-11941.0
27	16	36	12	59	3.0	-200092.0	-8651.0	-11474.0
27	16	36	12	59	4.0	-197786.0	-8657.0	-11274.0
27	16	36	12	90	5.0	-196156.0	-8678.0	-11277.0
27	16	36	12	91	6.0	-195603.0	-8721.0	-11179.0
27	16	36	12	92	7.0	-195508.0	-8755.0	-11264.0
27	16	36	12	108	8.0	-196096.0	-8822.0	-11673.0
27	16	36	12	108	9.0	-196696.0	-8845.0	-11571.0
27	16	36	12	109	10.0	-197473.0	-8857.0	-11517.0
27	16	36	12	109	11.0	-198248.0	-8884.0	-11517.0
27	16	36	12	110	12.0	-199119.0	-8922.0	-11635.0
27	16	36	12	111	13.0	-199809.0	-8939.0	-11703.0
27	16	36	12	111	14.0	-200051.0	-8970.0	-11526.0
27	16	36	12	112	15.0	-200014.0	-9007.0	-11417.0
27	16	36	12	112	16.0	-199698.0	-9049.0	-11701.0
27	16	36	12	113	17.0	-199536.0	-9108.0	-11494.0
27	16	36	12	113	18.0	-199790.0	-9130.0	-11461.0
27	16	36	12	114	19.0	-200751.0	-9157.0	-11709.0
27	16	36	12	114	22.0	-207236.0	-9241.0	-11596.0
27	16	36	12	115	23.0	-208886.0	-9266.0	-11719.0
27	16	36	12	116	24.0	-209996.0	-9294.0	-11711.0
27	16	36	12	116	25.0	-210765.0	-9321.0	-11682.0
27	16	36	12	117	26.0	-211141.0	-9348.0	-11181.0
27	16	36	12	117	27.0	-211391.0	-9377.0	-11000.0
27	16	36	12	136	28.0	-211350.0	-9402.0	-10846.0
27	16	36	12	137	29.0	-211520.0	-9422.0	-11091.0
27	16	36	12	137	30.0	-211901.0	-9464.0	-10793.0
27	16	36	12	138	31.0	-212544.0	-9482.0	-10281.0
27	16	36	12	138	32.0	-212588.0	-9497.0	-10651.0
27	16	36	12	139	33.0	-212166.0	-9544.0	-10779.0
27	16	36	12	181	34.0	-211697.0	-9577.0	-10721.0
27	16	36	12	182	35.0	-211612.0	-9614.0	-10865.0
27	16	36	12	182	36.0	-211522.0	-9657.0	-10780.0
27	16	36	12	183	37.0	-211237.0	-9711.0	-10656.0
27	16	36	12	184	38.0	-210319.0	-9734.0	-10692.0
27	16	36	12	184	39.0	-208364.0	-9759.0	-10721.0
27	16	36	12	185	40.0	-206049.0	-9770.0	-10795.0
27	16	36	12	186	41.0	-205126.0	-9797.0	-10772.0
27	16	36	12	194	42.0	-205536.0	-9832.0	-10782.0
27	16	36	12	194	44.0	-200337.0	-9886.0	-10436.0
27	16	36	12	195	45.0	-198067.0	-9907.0	-10631.0
27	16	36	12	196	46.0	-196443.0	-9907.0	-10608.0
27	16	36	12	196	47.0	-194765.0	-9930.0	-10639.0
27	16	36	12	197	48.0	-193641.0	-9962.0	-10609.0
27	16	36	12	197	49.0	-193482.0	-9966.0	-10248.0
27	16	36	12	198	50.0	-193887.0	-9971.0	-9641.0
27	16	36	12	198	67.0	-200721.0	-9426.0	-6741.0
27	16	36	12	199	68.0	-201141.0	-9357.0	-6919.0
27	16	36	12	200	69.0	-201605.0	-9261.0	-6536.0
27	16	36	12	200	70.0	-202062.0	-9154.0	-6329.0
27	16	36	12	227	71.0	-202819.0	-9057.0	-6723.0
27	16	36	12	228	72.0	-203649.0	-8932.0	-6534.0
27	16	36	12	228	73.0	-204596.0	-8797.0	-6521.0
27	16	36	12	229	74.0	-204906.0	-8698.0	-6089.0
27	16	36	12	230	75.0	-204581.0	-8594.0	-5828.0
27	16	36	12	231	76.0	-204349.0	-8493.0	-5722.0
27	16	36	12	231	77.0	-204427.0	-8403.0	-5687.0
27	16	36	12	232	78.0	-204784.0	-8289.0	-5683.0
27	16	36	12	233	79.0	-204851.0	-8165.0	-5881.0
27	16	36	12	233	80.0	-204827.0	-8027.0	-5826.0
27	16	36	12	234	81.0	-204524.0	-7904.0	-6064.0
27	16	36	12	235	82.0	-204063.0	-7762.0	-6093.0
27	16	36	12	235	83.0	-203409.0	-7621.0	-5996.0
27	16	36	12	236	84.0	-202459.0	-7488.0	-6180.0
27	16	36	12	237	85.0	-201886.0	-7361.0	-6481.0
27	16	36	12	237	86.0	-201481.0	-7223.0	-6626.0
27	16	36	12	238	89.0	-200748.0	-6833.0	-7357.0
27	16	36	12	239	90.0	-200344.0	-6711.0	-8158.0
27	16	36	12	239	91.0	-199896.0	-6541.0	-8186.0
27	16	36	12	240	92.0	-199518.0	-6402.0	-9146.0
27	16	36	12	240	93.0	-198962.0	-6268.0	-9802.0
27	16	36	12	241	94.0	-198562.0	-6134.0	-10321.0
27	16	36	12	242	95.0	-198339.0	-6006.0	-10327.0
27	16	36	12	271	96.0	-198448.0	-5867.0	-10621.0
27	16	36	12	272	97.0	-198370.0	-5735.0	-11287.0
27	16	36	12	273	98.0	-198409.0	-5604.0	-11194.0
27	16	36	12	273	99.0	-198485.0	-5484.0	-11377.0
27	16	36	12	274	100.0	-198627.0	-5362.0	-11440.0
27	16	36	12	275	101.0	-198347.0	-5234.0	-11375.0
27	16	36	12	275	102.0	-198319.0	-5111.0	-11806.0
27	16	36	12	276	103.0	-198464.0	-4982.0	-12126.0
27	16	36	12	277	104.0	-198650.0	-4869.0	-12036.0
27	16	36	12	277	105.0	-199020.0	-4751.0	-12254.0
27	16	36	12	278	106.0	-199912.0	-4652.0	-13127.0
27	16	36	12	279	107.0	-201293.0	-4566.0	-13309.0
27	16	36	12	280	108.0	-202990.0	-4436.0	-13409.0
27	16	36	12	280	109.0	-204871.0	-4321.0	-13424.0
27	16	36	12	281	110.0	-206999.0	-4219.0	-13404.0
27	16	36	12	282	111.0	-209064.0	-4106.0	-13052.0
27	16	36	12	283	112.0	-210762.0	-4024.0	-13306.0
27	16	36	12	284	113.0	-212179.0	-3907.0	-13427.0
27	16	36	12	284	114.0	-213513.0	-3796.0	-13454.0
27	16	36	12	285	115.0	-214529.0	-3697.0	-13508.0
27	16	36	12	285	116.0	-215513.0	-3607.0	-13729.0
27	16	36	12	286	117.0	-216437.0	-3521.0	-13806.0
27	16	36	12	316	118.0	-217362.0	-3407.0	-13918.0
27	16	36	12	317	119.0	-218329.0	-3320.0	-13974.0
27	16	36	12	317	120.0	-219384.0	-3222.0	-13677.0
27	16	36	12	318	121.0	-220204.0	-3143.0	-13479.0
27	16	36	12	319	122.0	-220709.0	-3047.0	-13131.0
27	16	36	12	320	123.0	-220899.0	-2963.0	-13020.0
27	16	36	12	320	124.0	-221150.0	-2901.0	-13221.0
27	16	36	12	321	125.0	-221477.0	-2831.0	-13199.0
27	16	36	12	322	126.0	-221417.0	-2743.0	-12752.0
27	16	36	12	322	127.0	-220640.0	-2664.0	-13362.0
27	16	36	12	323	128.0	-219256.0	-2600.0	-14066.0
27	16	36	12	324	129.0	-217363.0	-2526.0	-13781.0
27	16	36	12	324	130.0	-214093.0	-2449.0	-14026.0
27	16	36	12	325	131.0	-209114.0	-2367.0	-14137.0
27	16	36	12	326	132.0	-199644.0	-2286.0	-14174.0
27	16	36	12	326	134.0	-168834.0	-2153.0	-13801.0
27	16	36	12	327	135.0	-171019.0	-2086.0	-13701.0
27	16	36	12	328	136.0	-183409.0	-2022.0	-13607.0
27	16	36	12	328	137.0	-195356.0	-1957.0	-13556.0
27	16	36	12	329	138.0	-206462.0	-1885.0	-13637.0
27	16	36	12	329	139.0	-211001.0	-1826.0	-13382.0
27	16	36	12	362	140.0	-210610.0	-1761.0	-13773.0
27	16	36	12	363	141.0	-206815.0	-1692.0	-13881.0
27	16	36	12	363	142.0	-201400.0	-1627.0	-13635.0
27	16	36	12	364	143.0	-195761.0	-1592.0	-13674.0
27	16	36	12	364	144.0	-188992.0	-1554.0	-13651.0
27	16	36	12	407	145.0	-181382.0	-1497.0	-13580.0
27	16	36	12	408	146.0	-176146.0	-1447.0	-13526.0
27	16	36	12	409	147.0	-174175.0	-1413.0	-13614.0
27	16	36	12	409	148.0	-173422.0	-1381.0	-13622.0
27	16	36	12	410	149.0	-174261.0	-1340.0	-13681.0
27	16	36	12	411	150.0	-176872.0	-1283.0	-13704.0
27	16	36	12	411	151.0	-180181.0	-1244.0	-13589.0
27	16	36	12	412	152.0	-183900.0	-1203.0	-13642.0
27	16	36	12	413	153.0	-188315.0	-1157.0	-14003.0
27	16	36	12	414	154.0	-193048.0	-1126.0	-13643.0
27	16	36	12	415	156.0	-200748.0	-1079.0	-13327.0
27	16	36	12	416	157.0	-202839.0	-1058.0	-13223.0
27	16	36	12	416	158.0	-203124.0	-997.0	-13010.0
27	16	36	12	417	159.0	-201999.0	-978.0	-13061.0
27	16	36	12	418	160.0	-200348.0	-952.0	-12888.0
27	16	36	12	418	161.0	-199155.0	-917.0	-12627.0
27	16	36	12	419	179.0	-200047.0	-847.0	-13556.0
27	16	36	12	420	180.0	-199465.0	-861.0	-13609.0
27	16	36	12	420	181.0	-198897.0	-860.0	-13572.0
27	16	36	12	421	182.0	-198181.0	-859.0	-13672.0
27	16	36	12	421	183.0	-197651.0	-875.0	-13857.0
27	16	36	12	422	184.0	-197445.0	-903.0	-14184.0
27	16	36	12	453	185.0	-197261.0	-909.0	-14152.0
27	16	36	12	454	186.0	-196764.0	-939.0	-14369.0
27	16	36	12	455	187.0	-196516.0	-967.0	-14431.0
27	16	36	12	455	188.0	-196656.0	-992.0	-14708.0
27	16	36	12	456	189.0	-196922.0	-1023.0	-14426.0
27	16	36	12	457	190.0	-197396.0	-1061.0	-14294.0
27	16	36	12	457	191.0	-198065.0	-1079.0	-14385.0
27	16	36	12	458	192.0	-198948.0	-1115.0	-14300.0
27	16	36	12	459	193.0	-199789.0	-1147.0	-14137.0
27	16	36	12	459	194.0	-200680.0	-1182.0	-13902.0
27	16	36	12	460	195.0	-201495.0	-1227.0	-13932.0
27	16	36	12	461	196.0	-202211.0	-1271.0	-14031.0
27	16	36	12	461	197.0	-202823.0	-1299.0	-14037.0
27	16	36	12	462	198.0	-203955.0	-1353.0	-14548.0
27	16	36	12	463	199.0	-205330.0	-1391.0	-14227.0
27	16	36	12	463	201.0	-208126.0	-1461.0	-14832.0
27	16	36	12	464	202.0	-209280.0	-1497.0	-14926.0
27	16	36	12	464	203.0	-210264.0	-1540.0	-14264.0
27	16	36	12	465	204.0	-211094.0	-1584.0	-14340.0
27	16	36	12	466	205.0	-211767.0	-1620.0	-14327.0
27	16	36	12	466	206.0	-212433.0	-1657.0	-14402.0
27	16	36	12	467	207.0	-213129.0	-1711.0	-13978.0
27	16	36	12	496	208.0	-213696.0	-1756.0	-14128.0
27	16	36	12	497	209.0	-213623.0	-1782.0	-14357.0
27	16	36	12	498	210.0	-212840.0	-1819.0	-14279.0
27	16	36	12	499	211.0	-211774.0	-1857.0	-14467.0
27	16	36	12	500	212.0	-210565.0	-1909.0	-14415.0
27	16	36	12	500	213.0	-209381.0	-1961.0	-14244.0
27	16	36	12	501	214.0	-208166.0	-2025.0	-14246.0
27	16	36	12	502	215.0	-206676.0	-2064.0	-14212.0
27	16	36	12	503	216.0	-205051.0	-2080.0	-14334.0
27	16	36	12	503	217.0	-203254.0	-2152.0	-14335.0
27	16	36	12	504	218.0	-201777.0	-2211.0	-14372.0
27	16	36	12	505	219.0	-200398.0	-2272.0	-14291.0
27	16	36	12	505	220.0	-199063.0	-2304.0	-14339.0
27	16	36	12	506	221.0	-197852.0	-2324.0	-14261.0
27	16	36	12	507	222.0	-196793.0	-2382.0	-14183.0
27	16	36	12	507	224.0	-195747.0	-2466.0	-14488.0
27	16	36	12	508	225.0	-195802.0	-2516.0	-14387.0
27	16	36	12	508	226.0	-196052.0	-2571.0	-14457.0
27	16	36	12	509	227.0	-195991.0	-2599.0	-14654.0
27	16	36	12	510	228.0	-195854.0	-2616.0	-14031.0
27	16	36	12	510	229.0	-196099.0	-2645.0	-13546.0
27	16	36	12	541	230.0	-196503.0	-2672.0	-13708.0
27	16	36	12	542	231.0	-196807.0	-2687.0	-13581.0
27	16	36	12	543	232.0	-196929.0	-2714.0	-13257.0
27	16	36	12	544	233.0	-196902.0	-2774.0	-13834.0
27	16	36	12	544	234.0	-196906.0	-2810.0	-14022.0
27	16	36	12	545	235.0	-196726.0	-2876.0	-14255.0
27	16	36	12	546	236.0	-196615.0	-2924.0	-14657.0
27	16	36	12	547	237.0	-196920.0	-2966.0	-14863.0
27	16	36	12	547	238.0	-196917.0	-2992.0	-14441.0
27	16	36	12	548	239.0	-196979.0	-3025.0	-14350.0
27	16	36	12	549	240.0	-196931.0	-3049.0	-14316.0
27	16	36	12	549	241.0	-196761.0	-3096.0	-13919.0
27	16	36	12	550	242.0	-196692.0	-3129.0	-14026.0
27	16	36	12	551	243.0	-196707.0	-3148.0	-14363.0
27	16	36	12	552	244.0	-196824.0	-3187.0	-14211.0
27	16	36	12	552	246.0	-196930.0	-3288.0	-14409.0
27	16	36	12	553	247.0	-196686.0	-3320.0	-14460.0
27	16	36	12	553	248.0	-196477.0	-3346.0	-14476.0
27	16	36	12	554	249.0	-196106.0	-3359.0	-14408.0
27	16	36	12	555	250.0	-195499.0	-3377.0	-14316.0
27	16	36	12	555	251.0	-195260.0	-3409.0	-14147.0
27	16	36	12	586	252.0	-195191.0	-3441.0	-13909.0
27	16	36	12	587	253.0	-194861.0	-3481.0	-13853.0
27	16	36	12	588	254.0	-194271.0	-3494.0	-14084.0
27	16	36	12	588	255.0	-193804.0	-3547.0	-14068.0
27	16	36	12	589	0.0	-193044.0	-3596.0	-14197.0
27	16	36	12	590	1.0	-192302.0	-3634.0	-14247.0
27	16	36	12	590	2.0	-192126.0	-3669.0	-14669.0
27	16	36	12	591	3.0	-192166.0	-3694.0	-14592.0
27	16	36	12	592	4.0	-192097.0	-3736.0	-14161.0
27	16	36	12	592	5.0	-192326.0	-3763.0	-14178.0
27	16	36	12	593	6.0	-192751.0	-3804.0	-14051.0
27	16	36	12	594	7.0	-193036.0	-3844.0	-13854.0
27	16	36	12	595	8.0	-193199.0	-3876.0	-13444.0
27	16	36	12	595	9.0	-193299.0	-3917.0	-13781.0
27	16	36	12	596	10.0	-193309.0	-3975.0	-13661.0
27	16	36	12	596	13.0	-193615.0	-4092.0	-13579.0
27	16	36	12	597	14.0	-193981.0	-4114.0	-13576.0
27	16	36	12	598	15.0	-194229.0	-4136.0	-13494.0
27	16	36	12	598	16.0	-194377.0	-4193.0	-13550.0
27	16	36	12	599	17.0	-194421.0	-4226.0	-13597.0
27	16	36	12	600	18.0	-194727.0	-4238.0	-13559.0
27	16	36	12	632	19.0	-195069.0	-4271.0	-13599.0
27	16	36	12	677	20.0	-195311.0	-4326.0	-13692.0
27	16	36	12	678	21.0	-195681.0	-4349.0	-13588.0
27	16	36	12	679	22.0	-196371.0	-4388.0	-13618.0
27	16	36	12	679	23.0	-196636.0	-4436.0	-13513.0
27	16	36	12	680	24.0	-196986.0	-4479.0	-13304.0
27	16	36	12	680	25.0	-197427.0	-4506.0	-13203.0
27	16	36	12	681	26.0	-197938.0	-4564.0	-13361.0
27	16	36	12	682	27.0	-198649.0	-4612.0	-13431.0
27	16	36	12	682	28.0	-199515.0	-4642.0	-13665.0
27	16	36	12	683	29.0	-200188.0	-4692.0	-13457.0
27	16	36	12	683	30.0	-200640.0	-4749.0	-13588.0
27	16	36	12	684	31.0	-200763.0	-4789.0	-13619.0
27	16	36	12	684	32.0	-201172.0	-4833.0	-13026.0
27	16	36	12	685	33.0	-201611.0	-4886.0	-13074.0
27	16	36	12	686	35.0	-201911.0	-4951.0	-13162.0
27	16	36	12	686	57.0	-199030.0	-5966.0	-12424.0
27	16	36	12	687	58.0	-199171.0	-6030.0	-12259.0
27	16	36	12	687	59.0	-199366.0	-6092.0	-12421.0
27	16	36	12	688	60.0	-199687.0	-6116.0	-12333.0
27	16	36	12	688	61.0	-200199.0	-6155.0	-12621.0
27	16	36	12	689	62.0	-200569.0	-6174.0	-12803.0
27	16	36	12	689	63.0	-200734.0	-6212.0	-12552.0
27	16	36	12	721	64.0	-201131.0	-6256.0	-12416.0
27	16	36	12	721	65.0	-201456.0	-6294.0	-12179.0
27	16	36	12	722	66.0	-201789.0	-6353.0	-12014.0
27	16	36	12	723	67.0	-201977.0	-6400.0	-11757.0
27	16	36	12	723	68.0	-202429.0	-6437.0	-11952.0
27	16	36	12	724	69.0	-202377.0	-6506.0	-12014.0
27	16	36	12	724	70.0	-201819.0	-6548.0	-11917.0
27	16	36	12	725	71.0	-201509.0	-6617.0	-11838.0
27	16	36	12	725	72.0	-201172.0	-6666.0	-12059.0
27	16	36	12	726	73.0	-200555.0	-6687.0	-12390.0
27	16	36	12	727	74.0	-200030.0	-6738.0	-11963.0
27	16	36	12	727	75.0	-199381.0	-6789.0	-12036.0
27	16	36	12	728	76.0	-199012.0	-6828.0	-12027.0
27	16	36	12	728	77.0	-198777.0	-6875.0	-12001.0
27	16	36	12	730	78.0	-198863.0	-6928.0	-11746.0
27	16	36	12	731	80.0	-199494.0	-7032.0	-11286.0
27	16	36	12	731	81.0	-199703.0	-7096.0	-11698.0
27	16	36	12	732	82.0	-199872.0	-7137.0	-11739.0
27	16	36	12	733	83.0	-199924.0	-7181.0	-11375.0
27	16	36	12	733	84.0	-199722.0	-7212.0	-11322.0
27	16	36	12	734	85.0	-199557.0	-7243.0	-11608.0
27	16	36	12	767	86.0	-199824.0	-7275.0	-11912.0
27	16	36	12	767	87.0	-200331.0	-7309.0	-11686.0
27	16	36	12	768	88.0	-200659.0	-7356.0	-11679.0
27	16	36	12	769	89.0	-200770.0	-7420.0	-11649.0
27	16	36	12	769	90.0	-200677.0	-7484.0	-11679.0
27	16	36	12	770	91.0	-200692.0	-7535.0	-11618.0
27	16	36	12	770	92.0	-200571.0	-7581.0	-11517.0
27	16	36	12	771	93.0	-200503.0	-7627.0	-11468.0
27	16	36	12	772	94.0	-200559.0	-7647.0	-11317.0
27	16	36	12	772	95.0	-200600.0	-7706.0	-11236.0
27	16	36	12	773	96.0	-200918.0	-7774.0	-11364.0
27	16	36	12	773	97.0	-201367.0	-7814.0	-11262.0
27	16	36	12	774	98.0	-201477.0	-7844.0	-11331.0
27	16	36	12	774	99.0	-201851.0	-7912.0	-11012.0
27	16	36	12	775	100.0	-202001.0	-7969.0	-11043.0
27	16	36	12	776	102.0	-202242.0	-8079.0	-10662.0
27	16	36	12	776	103.0	-202002.0	-8120.0	-10593.0
27	16	36	12	777	104.0	-202037.0	-8140.0	-10872.0
27	16	36	12	777	105.0	-202193.0	-8178.0	-10879.0
27	16	36	12	778	106.0	-202109.0	-8208.0	-10846.0
27	16	36	12	778	107.0	-202500.0	-8231.0	-11272.0
27	16	36	12	779	108.0	-203010.0	-8277.0	-11663.0
27	16	36	12	811	109.0	-203230.0	-8341.0	-11444.0
27	16	36	12	811	110.0	-203066.0	-8376.0	-10966.0
27	16	36	12	812	111.0	-202692.0	-8437.0	-11429.0
27	16	36	12	812	112.0	-202315.0	-8488.0	-11435.0
27	16	36	12	813	113.0	-202482.0	-8527.0	-10541.0
27	16	36	12	814	114.0	-202891.0	-8549.0	-10276.0
27	16	36	12	814	115.0	-203402.0	-8594.0	-10117.0
27	16	36	12	815	116.0	-204042.0	-8651.0	-10060.0
27	16	36	12	815	117.0	-204707.0	-8702.0	-9945.0
27	16	36	12	816	118.0	-205229.0	-8741.0	-9908.0
27	16	36	12	817	119.0	-205346.0	-8787.0	-9859.0
27	16	36	12	817	120.0	-205242.0	-8861.0	-10169.0
27	16	36	12	818	121.0	-205413.0	-8906.0	-10465.0
27	16	36	12	818	122.0	-205645.0	-8942.0	-10119.0
27	16	36	12	819	123.0	-205671.0	-8981.0	-10205.0
27	16	36	12	819	125.0	-205579.0	-9053.0	-10339.0
27	16	36	12	820	126.0	-204951.0	-9086.0	-10249.0
27	16	36	12	821	127.0	-203803.0	-9142.0	-10432.0
27	16	36	12	821	128.0	-202837.0	-9178.0	-10871.0
27	16	36	12	822	129.0	-201985.0	-9214.0	-10895.0
27	16	36	12	822	130.0	-201192.0	-9268.0	-10912.0
27	16	36	12	857	131.0	-200484.0	-9292.0	-10912.0
27	16	36	12	857	132.0	-199884.0	-9346.0	-10952.0
27	16	36	12	858	133.0	-199540.0	-9378.0	-11183.0
27	16	36	12	901	134.0	-199127.0	-9419.0	-11008.0
27	16	36	12	902	135.0	-198677.0	-9473.0	-10644.0
27	16	36	12	902	136.0	-198090.0	-9505.0	-10480.0
27	16	36	12	903	137.0	-197292.0	-9551.0	-10275.0
27	16	36	12	903	138.0	-196549.0	-9607.0	-10074.0
27	16	36	12	904	139.0	-195845.0	-9657.0	-10284.0
27	16	36	12	905	140.0	-195119.0	-9708.0	-10529.0
27	16	36	12	905	141.0	-194228.0	-9759.0	-10724.0
27	16	36	12	906	142.0	-193444.0	-9793.0	-11459.0
27	16	36	12	907	143.0	-192504.0	-9831.0	-12006.0
27	16	36	12	908	144.0	-191861.0	-9866.0	-11883.0
27	16	36	12	908	145.0	-191665.0	-9903.0	-12267.0
27	16	36	12	909	148.0	-192609.0	-10030.0	-12881.0
27	16	36	12	909	149.0	-192877.0	-10096.0	-13492.0
27	16	36	12	910	150.0	-193539.0	-10142.0	-15251.0
27	16	36	12	910	170.0	-201098.0	-10894.0	-4084.0
27	16	36	12	911	171.0	-202501.0	-10931.0	-4602.0
27	16	36	12	912	172.0	-203526.0	-10951.0	-4613.0
27	16	36	12	912	173.0	-203933.0	-10976.0	-4414.0
27	16	36	12	913	174.0	-203601.0	-11007.0	-5210.0
27	16	36	12	913	175.0	-202534.0	-11034.0	-6436.0
27	16	36	12	947	176.0	-200441.0	-11057.0	-6697.0
27	16	36	12	948	177.0	-197742.0	-11087.0	-7354.0
27	16	36	12	948	178.0	-194194.0	-11119.0	-8251.0
27	16	36	12	949	179.0	-190457.0	-11169.0	-8689.0
27	16	36	12	949	180.0	-185556.0	-11226.0	-8860.0
27	16	36	12	950	181.0	-173730.0	-11259.0	-9426.0
27	16	36	12	951	182.0	-157985.0	-11292.0	-9444.0
27	16	36	12	951	183.0	-148259.0	-11327.0	-9254.0
27	16	36	12	952	184.0	-145459.0	-11365.0	-9549.0
27	16	36	12	952	185.0	-145483.0	-11395.0	-10181.0
27	16	36	12	953	186.0	-146583.0	-11411.0	-9996.0
27	16	36	12	954	187.0	-151774.0	-11443.0	-9879.0
27	16	36	12	954	188.0	-164264.0	-11484.0	-10003.0
27	16	36	12	955	189.0	-182951.0	-11537.0	-10068.0
27	16	36	12	955	190.0	-201663.0	-11581.0	-10427.0
27	16	36	12	956	192.0	-221843.0	-11677.0	-10603.0
27	16	36	12	957	193.0	-225567.0	-11712.0	-10329.0
27	16	36	12	957	194.0	-225409.0	-11724.0	-10354.0
27	16	36	12	958	195.0	-222271.0	-11756.0	-10334.0
27	16	36	12	958	196.0	-215406.0	-11782.0	-10610.0
27	16	36	12	959	197.0	-202460.0	-11810.0	-10896.0
27	16	36	12	959	198.0	-194052.0	-11834.0	-10662.0
27	16	36	12	991	199.0	-190316.0	-11877.0	-10617.0
27	16	36	12	992	200.0	-191238.0	-11924.0	-11069.0
27	16	36	12	993	201.0	-196919.0	-11949.0	-10985.0
27	16	36	12	993	202.0	-204537.0	-11989.0	-10797.0
27	16	36	12	994	203.0	-211901.0	-12008.0	-11074.0
27	16	36	12	994	204.0	-218861.0	-12046.0	-10729.0
27	16	36	12	995	205.0	-224854.0	-12070.0	-10355.0
27	16	36	12	995	206.0	-228556.0	-12099.0	-10553.0
27	16	36	12	996	207.0	-230568.0	-12122.0	-10321.0
27	16	36	12	997	208.0	-232141.0	-12166.0	-10010.0
27	16	36	12	997	209.0	-231967.0	-12222.0	-10146.0
27	16	36	12	998	210.0	-227766.0	-12271.0	-10208.0
27	16	36	12	998	211.0	-219533.0	-12303.0	-9751.0
27	16	36	12	999	212.0	-211902.0	-12347.0	-10045.0
27	16	36	13	0	213.0	-207496.0	-12367.0	-10325.0
27	16	36	13	0	215.0	-204014.0	-12418.0	-10549.0
27	16	36	13	1	216.0	-203129.0	-12450.0	-10924.0
27	16	36	13	1	217.0	-202869.0	-12467.0	-10863.0
27	16	36	13	2	218.0	-202952.0	-12499.0	-10532.0
27	16	36	13	3	219.0	-202889.0	-12547.0	-10599.0
27	16	36	13	3	220.0	-202723.0	-12571.0	-10733.0
27	16	36	13	37	221.0	-202722.0	-12594.0	-10513.0
27	16	36	13	37	222.0	-202406.0	-12629.0	-10376.0
27	16	36	13	38	223.0	-201332.0	-12648.0	-10422.0
27	16	36	13	38	224.0	-199629.0	-12672.0	-10591.0
27	16	36	13	39	225.0	-197747.0	-12699.0	-10649.0
27	16	36	13	40	226.0	-196312.0	-12729.0	-10607.0
27	16	36	13	40	227.0	-195196.0	-12757.0	-10785.0
27	16	36	13	41	228.0	-194394.0	-12794.0	-11247.0
27	16	36	13	41	229.0	-193719.0	-12836.0	-10883.0
27	16	36	13	42	230.0	-193319.0	-12882.0	-10470.0
27	16	36	13	45	231.0	-192958.0	-12912.0	-10858.0
27	16	36	13	45	232.0	-192486.0	-12947.0	-10937.0
27	16	36	13	46	233.0	-192126.0	-12978.0	-10901.0
27	16	36	13	47	234.0	-191902.0	-12992.0	-10854.0
27	16	36	13	48	235.0	-192103.0	-13007.0	-10977.0
27	16	36	13	49	237.0	-193901.0	-13096.0	-10771.0
27	16	36	13	49	238.0	-195472.0	-13134.0	-10832.0
27	16	36	13	50	239.0	-196668.0	-13168.0	-10798.0
27	16	36	13	50	240.0	-198018.0	-13182.0	-10806.0
27	16	36	13	51	241.0	-199088.0	-13207.0	-10622.0
27	16	36	13	51	242.0	-200227.0	-13236.0	-10221.0
27	16	36	13	52	243.0	-201479.0	-13258.0	-9762.0
27	16	36	13	127	244.0	-203194.0	-13287.0	-9680.0
27	16	36	13	128	245.0	-204860.0	-13301.0	-9735.0
27	16	36	13	128	246.0	-205955.0	-13316.0	-9678.0
27	16	36	13	129	247.0	-206187.0	-13365.0	-9669.0
27	16	36	13	130	248.0	-206232.0	-13393.0	-10403.0
27	16	36	13	130	249.0	-206565.0	-13431.0	-10409.0
27	16	36	13	131	250.0	-206705.0	-13486.0	-10065.0
27	16	36	13	132	251.0	-206907.0	-13520.0	-10095.0
27	16	36	13	132	252.0	-206923.0	-13552.0	-9992.0
27	16	36	13	133	253.0	-206711.0	-13576.0	-9642.0
27	16	36	13	133	254.0	-206611.0	-13607.0	-9785.0
27	16	36	13	134	255.0	-206688.0	-13627.0	-9306.0
27	16	36	13	135	0.0	-206828.0	-13664.0	-8779.0
27	16	36	13	135	1.0	-206773.0	-13692.0	-8802.0
27	16	36	13	136	2.0	-206237.0	-13711.0	-8984.0
27	16	36	13	136	26.0	-206087.0	-13215.0	-4699.0
27	16	36	13	137	27.0	-206204.0	-13127.0	-5055.0
27	16	36	13	138	28.0	-205821.0	-13037.0	-5093.0
27	16	36	13	138	29.0	-205258.0	-12940.0	-4709.0
27	16	36	13	139	30.0	-204687.0	-12832.0	-4584.0
27	16	36	13	139	31.0	-203902.0	-12719.0	-4757.0
27	16	36	13	172	32.0	-203102.0	-12607.0	-4697.0
27	16	36	13	172	33.0	-202401.0	-12502.0	-4344.0
27	16	36	13	173	34.0	-201525.0	-12397.0	-4486.0
27	16	36	13	174	35.0	-200734.0	-12279.0	-4487.0
27	16	36	13	174	36.0	-200191.0	-12156.0	-4472.0
27	16	36	13	175	37.0	-199938.0	-12031.0	-4609.0
27	16	36	13	176	38.0	-199814.0	-11909.0	-4830.0
27	16	36	13	176	39.0	-199734.0	-11771.0	-4959.0
27	16	36	13	177	40.0	-199551.0	-11636.0	-4837.0
27	16	36	13	177	41.0	-199067.0	-11500.0	-4932.0
27	16	36	13	178	42.0	-198562.0	-11377.0	-5257.0
27	16	36	13	179	43.0	-197964.0	-11261.0	-5280.0
27	16	36	13	179	44.0	-197214.0	-11127.0	-5503.0
27	16	36	13	180	45.0	-196429.0	-10989.0	-5768.0
27	16	36	13	181	46.0	-195618.0	-10837.0	-5957.0
27	16	36	13	181	48.0	-194766.0	-10547.0	-6374.0
27	16	36	13	182	49.0	-194896.0	-10410.0	-7239.0
27	16	36	13	183	50.0	-195371.0	-10258.0	-7650.0
27	16	36	13	183	51.0	-195872.0	-10112.0	-7772.0
27	16	36	13	184	52.0	-196102.0	-9977.0	-8359.0
27	16	36	13	184	53.0	-196407.0	-9859.0	-9054.0
27	16	36	13	185	54.0	-196802.0	-9711.0	-9343.0
27	16	36	13	216	55.0	-197008.0	-9566.0	-9257.0
27	16	36	13	216	56.0	-197246.0	-9411.0	-9589.0
27	16	36	13	217	57.0	-197864.0	-9300.0	-9710.0
27	16	36	13	218	58.0	-198560.0	-9186.0	-9874.0
27	16	36	13	218	59.0	-199217.0	-9035.0	-10084.0
27	16	36	13	219	60.0	-199817.0	-8906.0	-10116.0
27	16	36	13	220	61.0	-200574.0	-8788.0	-10249.0
27	16	36	13	220	62.0	-201219.0	-8674.0	-10426.0
27	16	36	13	221	63.0	-201434.0	-8553.0	-10990.0
27	16	36	13	221	64.0	-201811.0	-8442.0	-10917.0
27	16	36	13	222	65.0	-202156.0	-8344.0	-11031.0
27	16	36	13	223	66.0	-202619.0	-8217.0	-11307.0
27	16	36	13	223	67.0	-203302.0	-8114.0	-11379.0
27	16	36	13	224	68.0	-204042.0	-8010.0	-11235.0
27	16	36	13	224	69.0	-204572.0	-7887.0	-11122.0
27	16	36	13	225	71.0	-205982.0	-7667.0	-11392.0
27	16	36	13	226	72.0	-206667.0	-7577.0	-11700.0
27	16	36	13	226	73.0	-207425.0	-7487.0	-11756.0
27	16	36	13	227	74.0	-208719.0	-7392.0	-11625.0
27	16	36	13	228	75.0	-210186.0	-7286.0	-11729.0
27	16	36	13	228	76.0	-211728.0	-7188.0	-11522.0
27	16	36	13	262	77.0	-213316.0	-7098.0	-11654.0
27	16	36	13	263	78.0	-214394.0	-7007.0	-11640.0
27	16	36	13	263	79.0	-215123.0	-6891.0	-11214.0
27	16	36	13	264	80.0	-215402.0	-6794.0	-11028.0
27	16	36	13	265	81.0	-215002.0	-6734.0	-11098.0
27	16	36	13	265	82.0	-214150.0	-6659.0	-11037.0
27	16	36	13	266	83.0	-212662.0	-6575.0	-11316.0
27	16	36	13	266	84.0	-210691.0	-6516.0	-11643.0
27	16	36	13	267	85.0	-207144.0	-6457.0	-11546.0
27	16	36	13	268	86.0	-200370.0	-6391.0	-11197.0
27	16	36	13	268	87.0	-187831.0	-6312.0	-11801.0
27	16	36	13	269	88.0	-176213.0	-6236.0	-12190.0
27	16	36	13	270	89.0	-176701.0	-6171.0	-11788.0
27	16	36	13	271	90.0	-190016.0	-6114.0	-11449.0
27	16	36	13	271	91.0	-201650.0	-6031.0	-11575.0
27	16	36	13	272	93.0	-222163.0	-5922.0	-11591.0
27	16	36	13	273	94.0	-225752.0	-5862.0	-11666.0
27	16	36	13	273	95.0	-225654.0	-5806.0	-11502.0
27	16	36	13	274	96.0	-221640.0	-5742.0	-11392.0
27	16	36	13	274	97.0	-214327.0	-5679.0	-11549.0
27	16	36	13	275	98.0	-206861.0	-5607.0	-11589.0
27	16	36	13	275	99.0	-201136.0	-5539.0	-11627.0
27	16	36	13	306	100.0	-197802.0	-5484.0	-11705.0
27	16	36	13	307	101.0	-195242.0	-5428.0	-11831.0
27	16	36	13	352	102.0	-193132.0	-5375.0	-11637.0
27	16	36	13	353	103.0	-192079.0	-5344.0	-11474.0
27	16	36	13	353	104.0	-192664.0	-5309.0	-11520.0
27	16	36	13	354	105.0	-193801.0	-5262.0	-11666.0
27	16	36	13	355	106.0	-193310.0	-5231.0	-11720.0
27	16	36	13	356	107.0	-190299.0	-5157.0	-11832.0
27	16	36	13	357	108.0	-184979.0	-5113.0	-11735.0
27	16	36	13	358	109.0	-180194.0	-5091.0	-11657.0
27	16	36	13	359	110.0	-178069.0	-5063.0	-11724.0
27	16	36	13	360	111.0	-177128.0	-5024.0	-11738.0
27	16	36	13	360	112.0	-176724.0	-5000.0	-11831.0
27	16	36	13	361	113.0	-178299.0	-4966.0	-11651.0
27	16	36	13	362	114.0	-181423.0	-4936.0	-11532.0
27	16	36	13	362	116.0	-189842.0	-4889.0	-11030.0
27	16	36	13	363	138.0	-205815.0	-4694.0	-10527.0
27	16	36	13	363	139.0	-206417.0	-4714.0	-10602.0
27	16	36	13	364	140.0	-207387.0	-4714.0	-10424.0
27	16	36	13	365	141.0	-208102.0	-4707.0	-10350.0
27	16	36	13	365	142.0	-208424.0	-4712.0	-10677.0
27	16	36	13	398	143.0	-208501.0	-4747.0	-10749.0
27	16	36	13	441	144.0	-208440.0	-4764.0	-10556.0
27	16	36	13	442	145.0	-208422.0	-4773.0	-10936.0
27	16	36	13	443	146.0	-208394.0	-4792.0	-11073.0
27	16	36	13	443	147.0	-208384.0	-4807.0	-10850.0
27	16	36	13	444	148.0	-208533.0	-4839.0	-10569.0
27	16	36	13	445	149.0	-208447.0	-4854.0	-10159.0
27	16	36	13	445	150.0	-208322.0	-4867.0	-9931.0
27	16	36	13	446	151.0	-208239.0	-4909.0	-10115.0
27	16	36	13	447	152.0	-208113.0	-4946.0	-10241.0
27	16	36	13	447	153.0	-207827.0	-4992.0	-10172.0
27	16	36	13	448	154.0	-207541.0	-5025.0	-10341.0
27	16	36	13	449	155.0	-207119.0	-5061.0	-10437.0
27	16	36	13	449	156.0	-206731.0	-5083.0	-10369.0
27	16	36	13	450	157.0	-206306.0	-5103.0	-10611.0
27	16	36	13	450	161.0	-204180.0	-5226.0	-10619.0
27	16	36	13	451	183.0	-196410.0	-5936.0	-10493.0
27	16	36	13	452	184.0	-196678.0	-5974.0	-10239.0
27	16	36	13	453	185.0	-196901.0	-5988.0	-10191.0
27	16	36	13	454	186.0	-196951.0	-5982.0	-9994.0
27	16	36	13	454	187.0	-197174.0	-6006.0	-9793.0
27	16	36	13	455	188.0	-197636.0	-6021.0	-9721.0
27	16	36	13	455	189.0	-197879.0	-6041.0	-9955.0
27	16	36	13	487	190.0	-197544.0	-6069.0	-10269.0
27	16	36	13	488	191.0	-196936.0	-6074.0	-10194.0
27	16	36	13	488	192.0	-196639.0	-6081.0	-10071.0
27	16	36	13	489	193.0	-196494.0	-6121.0	-10341.0
27	16	36	13	490	194.0	-196264.0	-6170.0	-10951.0
27	16	36	13	490	195.0	-196067.0	-6197.0	-10479.0
27	16	36	13	491	196.0	-196177.0	-6232.0	-10562.0
27	16	36	13	492	197.0	-196148.0	-6262.0	-10472.0
27	16	36	13	492	198.0	-195839.0	-6269.0	-10264.0
27	16	36	13	493	199.0	-195359.0	-6285.0	-10304.0
27	16	36	13	494	200.0	-195031.0	-6307.0	-10441.0
27	16	36	13	494	201.0	-195017.0	-6332.0	-10549.0
27	16	36	13	495	202.0	-194871.0	-6373.0	-10134.0
27	16	36	13	496	203.0	-194402.0	-6406.0	-10354.0
27	16	36	13	496	204.0	-193988.0	-6443.0	-10338.0
27	16	36	13	497	206.0	-193916.0	-6481.0	-8988.0
27	16	36	13	497	207.0	-193876.0	-6478.0	-8722.0
27	16	36	13	498	208.0	-194061.0	-6475.0	-9046.0
27	16	36	13	499	209.0	-194195.0	-6478.0	-9100.0
27	16	36	13	499	210.0	-194359.0	-6491.0	-8967.0
27	16	36	13	500	211.0	-194554.0	-6484.0	-8986.0
27	16	36	13	623	212.0	-194766.0	-6538.0	-9302.0
27	16	36	13	623	213.0	-195066.0	-6570.0	-9194.0
27	16	36	13	624	214.0	-195289.0	-6602.0	-9276.0
27	16	36	13	625	215.0	-195401.0	-6604.0	-9566.0
27	16	36	13	625	216.0	-195547.0	-6617.0	-9639.0
27	16	36	13	626	217.0	-195554.0	-6634.0	-9362.0
27	16	36	13	627	218.0	-195427.0	-6658.0	-9412.0
27	16	36	13	627	219.0	-195410.0	-6684.0	-9364.0
27	16	36	13	628	220.0	-195176.0	-6700.0	-8838.0
27	16	36	13	629	221.0	-194871.0	-6732.0	-9012.0
27	16	36	13	629	222.0	-194506.0	-6772.0	-9162.0
27	16	36	13	630	223.0	-194362.0	-6784.0	-8681.0
27	16	36	13	631	224.0	-194081.0	-6822.0	-8596.0
27	16	36	13	631	225.0	-193672.0	-6837.0	-9194.0
27	16	36	13	632	226.0	-193216.0	-6861.0	-9024.0
27	16	36	13	632	17.0	-200443.0	-8166.0	-10526.0
27	16	36	13	633	18.0	-199554.0	-8206.0	-10738.0
27	16	36	13	633	19.0	-198863.0	-8225.0	-11023.0
27	16	36	13	634	20.0	-198528.0	-8212.0	-10977.0
27	16	36	13	635	21.0	-198363.0	-8224.0	-10922.0
27	16	36	13	635	22.0	-198554.0	-8251.0	-10810.0
27	16	36	13	667	23.0	-198573.0	-8283.0	-10585.0
27	16	36	13	668	24.0	-198806.0	-8306.0	-10588.0
27	16	36	13	668	25.0	-199178.0	-8334.0	-10244.0
27	16	36	13	669	26.0	-199800.0	-8384.0	-10477.0
27	16	36	13	670	27.0	-199942.0	-8404.0	-10839.0
27	16	36	13	670	28.0	-199786.0	-8449.0	-10992.0
27	16	36	13	671	29.0	-199391.0	-8492.0	-11397.0
27	16	36	13	672	30.0	-198769.0	-8518.0	-11542.0
27	16	36	13	672	31.0	-198351.0	-8524.0	-11496.0
27	16	36	13	673	32.0	-198255.0	-8556.0	-11887.0
27	16	36	13	674	33.0	-198332.0	-8602.0	-12046.0
27	16	36	13	674	34.0	-198394.0	-8636.0	-11705.0
27	16	36	13	675	35.0	-198200.0	-8672.0	-11612.0
27	16	36	13	676	36.0	-198191.0	-8704.0	-11695.0
27	16	36	13	676	37.0	-198566.0	-8731.0	-11677.0
27	16	36	13	677	40.0	-200077.0	-8844.0	-11194.0
27	16	36	13	677	41.0	-200787.0	-8876.0	-11214.0
27	16	36	13	711	42.0	-201397.0	-8871.0	-11292.0
27	16	36	13	712	43.0	-201775.0	-8905.0	-11185.0
27	16	36	13	712	44.0	-202216.0	-8939.0	-10956.0
27	16	36	13	713	45.0	-202657.0	-8959.0	-10614.0
27	16	36	13	714	46.0	-203052.0	-9012.0	-10627.0
27	16	36	13	714	47.0	-203334.0	-9053.0	-10362.0
27	16	36	13	715	48.0	-203709.0	-9074.0	-10557.0
27	16	36	13	716	49.0	-204252.0	-9099.0	-10572.0
27	16	36	13	716	50.0	-204634.0	-9132.0	-10592.0
27	16	36	13	717	51.0	-204676.0	-9166.0	-10592.0
27	16	36	13	717	52.0	-204581.0	-9201.0	-10753.0
27	16	36	13	718	53.0	-204508.0	-9219.0	-10664.0
27	16	36	13	719	54.0	-204246.0	-9270.0	-10769.0
27	16	36	13	719	55.0	-204229.0	-9312.0	-10979.0
27	16	36	13	720	56.0	-204238.0	-9340.0	-10468.0
27	16	36	13	721	57.0	-204201.0	-9381.0	-10368.0
27	16	36	13	721	62.0	-205056.0	-9537.0	-10329.0
27	16	36	13	722	63.0	-205258.0	-9563.0	-10396.0
27	16	36	13	723	64.0	-205014.0	-9583.0	-10496.0
27	16	36	13	723	65.0	-204479.0	-9606.0	-10570.0
27	16	36	13	724	66.0	-203670.0	-9638.0	-10857.0
27	16	36	13	724	67.0	-202809.0	-9663.0	-11339.0
27	16	36	13	733	68.0	-202235.0	-9679.0	-11421.0
27	16	36	13	772	69.0	-201861.0	-9694.0	-11154.0
27	16	36	13	802	70.0	-201193.0	-9715.0	-11120.0
27	16	36	13	803	71.0	-200821.0	-9750.0	-11243.0
27	16	36	13	803	72.0	-200914.0	-9779.0	-11347.0
27	16	36	13	804	73.0	-201046.0	-9816.0	-11445.0
27	16	36	13	805	74.0	-201089.0	-9842.0	-11868.0
27	16	36	13	805	75.0	-201115.0	-9875.0	-12422.0
27	16	36	13	806	76.0	-200928.0	-9905.0	-12884.0
27	16	36	13	807	77.0	-200416.0	-9951.0	-13286.0
27	16	36	13	807	78.0	-199758.0	-9980.0	-14731.0
27	16	36	13	808	79.0	-199432.0	-10024.0	-15553.0
27	16	36	13	809	80.0	-199633.0	-10025.0	-14580.0
27	16	36	13	810	81.0	-200151.0	-10050.0	-12518.0
27	16	36	13	810	82.0	-200686.0	-10081.0	-8532.0
27	16	36	13	811	83.0	-201109.0	-10096.0	-4491.0
27	16	36	13	811	92.0	-190609.0	-10360.0	4096.0
27	16	36	13	812	107.0	-193644.0	-10807.0	-8317.0
27	16	36	13	813	108.0	-190537.0	-10847.0	-7967.0
27	16	36	13	813	109.0	-180450.0	-10860.0	-8270.0
27	16	36	13	814	110.0	-165556.0	-10873.0	-8808.0
27	16	36	13	822	111.0	-155145.0	-10880.0	-8767.0
27	16	36	13	823	112.0	-151704.0	-10903.0	-9074.0
27	16	36	13	823	113.0	-151961.0	-10926.0	-9702.0
27	16	36	13	824	114.0	-154231.0	-10953.0	-9717.0
27	16	36	13	844	115.0	-160260.0	-10979.0	-9771.0
27	16	36	13	845	116.0	-171675.0	-11011.0	-9899.0
27	16	36	13	846	117.0	-187688.0	-11037.0	-9862.0
27	16	36	13	846	118.0	-204419.0	-11049.0	-9947.0
27	16	36	13	847	119.0	-217128.0	-11081.0	-9869.0
27	16	36	13	848	120.0	-224935.0	-11104.0	-9914.0
27	16	36	13	848	121.0	-228399.0	-11111.0	-10237.0
27	16	36	13	849	122.0	-227577.0	-11138.0	-10372.0
27	16	36	13	849	123.0	-224989.0	-11174.0	-10129.0
27	16	36	13	850	124.0	-218349.0	-11181.0	-10087.0
27	16	36	13	851	125.0	-206819.0	-11212.0	-10426.0
27	16	36	13	851	126.0	-195696.0	-11238.0	-10455.0
27	16	36	13	852	127.0	-187334.0	-11270.0	-10159.0
27	16	36	13	852	128.0	-184676.0	-11291.0	-10376.0
27	16	36	13	853	129.0	-189535.0	-11310.0	-10215.0
27	16	36	13	853	130.0	-197914.0	-11335.0	-9807.0
27	16	36	13	876	131.0	-206134.0	-11341.0	-9786.0
27	16	36	13	877	132.0	-213534.0	-11362.0	-9664.0
27	16	36	13	877	133.0	-219929.0	-11382.0	-9711.0
27	16	36	13	878	134.0	-224525.0	-11407.0	-9748.0
27	16	36	13	879	135.0	-227091.0	-11439.0	-9974.0
27	16	36	13	880	136.0	-227912.0	-11476.0	-10416.0
27	16	36	13	880	137.0	-226875.0	-11501.0	-10457.0
27	16	36	13	881	138.0	-222650.0	-11531.0	-10615.0
27	16	36	13	882	139.0	-215416.0	-11531.0	-10492.0
27	16	36	13	882	140.0	-207999.0	-11552.0	-10294.0
27	16	36	13	883	141.0	-202942.0	-11556.0	-10128.0
27	16	36	13	884	142.0	-200829.0	-11556.0	-9982.0
27	16	36	13	884	143.0	-200332.0	-11584.0	-10063.0
27	16	36	13	885	144.0	-200086.0	-11623.0	-10280.0
27	16	36	13	886	145.0	-200516.0	-11644.0	-10342.0
27	16	36	13	886	146.0	-201956.0	-11692.0	-10439.0
27	16	36	13	887	147.0	-203546.0	-11721.0	-10560.0
27	16	36	13	888	148.0	-204776.0	-11728.0	-10927.0
27	16	36	13	888	149.0	-205736.0	-11727.0	-10971.0
27	16	36	13	896	150.0	-205984.0	-11742.0	-10633.0
27	16	36	13	897	151.0	-205206.0	-11736.0	-10497.0
27	16	36	13	920	152.0	-203912.0	-11736.0	-10419.0
27	16	36	13	921	153.0	-202117.0	-11754.0	-10799.0
27	16	36	13	922	154.0	-200854.0	-11797.0	-10559.0
27	16	36	13	922	155.0	-199787.0	-11849.0	-10545.0
27	16	36	13	923	156.0	-198879.0	-11859.0	-10863.0
27	16	36	13	924	157.0	-198003.0	-11896.0	-11071.0
27	16	36	13	924	158.0	-197431.0	-11914.0	-10923.0
27	16	36	13	925	159.0	-197479.0	-11921.0	-10845.0
27	16	36	13	925	160.0	-197741.0	-11943.0	-11060.0
27	16	36	13	926	161.0	-198292.0	-11963.0	-10889.0
27	16	36	13	927	162.0	-198771.0	-11961.0	-10492.0
27	16	36	13	927	163.0	-199057.0	-11962.0	-10352.0
27	16	36	13	928	164.0	-199510.0	-11969.0	-10494.0
27	16	36	13	928	165.0	-200203.0	-12010.0	-10163.0
27	16	36	13	929	166.0	-201416.0	-12059.0	-9983.0
27	16	36	13	929	167.0	-202506.0	-12101.0	-9884.0
27	16	36	13	944	168.0	-203168.0	-12114.0	-9925.0
27	16	36	13	945	169.0	-203236.0	-12143.0	-9869.0
27	16	36	13	946	170.0	-203191.0	-12126.0	-10017.0
27	16	36	13	953	171.0	-202896.0	-12146.0	-9834.0
27	16	36	13	956	172.0	-203180.0	-12166.0	-9884.0
27	16	36	13	957	173.0	-204169.0	-12192.0	-9986.0
27	16	36	13	957	174.0	-205048.0	-12212.0	-9911.0
27	16	36	13	958	175.0	-205613.0	-12242.0	-9752.0
27	16	36	13	959	176.0	-205823.0	-12278.0	-9531.0
27	16	36	13	969	177.0	-205821.0	-12311.0	-9569.0
27	16	36	13	969	178.0	-205724.0	-12316.0	-9574.0
27	16	36	13	970	179.0	-205581.0	-12336.0	-9795.0
27	16	36	13	970	180.0	-205467.0	-12359.0	-9529.0
27	16	36	13	971	181.0	-205302.0	-12395.0	-9729.0
27	16	36	13	972	182.0	-205176.0	-12401.0	-9668.0
27	16	36	13	972	183.0	-204776.0	-12417.0	-9577.0
27	16	36	13	973	184.0	-204678.0	-12422.0	-9296.0
27	16	36	13	973	185.0	-204971.0	-12471.0	-9077.0
27	16	36	13	974	186.0	-205580.0	-12494.0	-9374.0
27	16	36	13	975	187.0	-205897.0	-12516.0	-8959.0
27	16	36	13	975	188.0	-206012.0	-12529.0	-8472.0
27	16	36	13	976	189.0	-205647.0	-12527.0	-8281.0
27	16	36	13	976	190.0	-205394.0	-12537.0	-7874.0
27	16	36	13	977	191.0	-205286.0	-12532.0	-7956.0
27	16	36	13	977	192.0	-205287.0	-12507.0	-8142.0
27	16	36	13	978	193.0	-204907.0	-12486.0	-7811.0
27	16	36	13	978	194.0	-204285.0	-12481.0	-8066.0
27	16	36	13	979	195.0	-203940.0	-12472.0	-7994.0
27	16	36	13	993	196.0	-203644.0	-12476.0	-7650.0
27	16	36	14	15	197.0	-203639.0	-12467.0	-7485.0
27	16	36	14	16	198.0	-203744.0	-12451.0	-7379.0
27	16	36	14	16	199.0	-203576.0	-12394.0	-7203.0
27	16	36	14	17	200.0	-203337.0	-12354.0	-6629.0
27	16	36	14	17	201.0	-202884.0	-12308.0	-5987.0
27	16	36	14	18	202.0	-202606.0	-12255.0	-5957.0
27	16	36	14	18	203.0	-202186.0	-12207.0	-6241.0
27	16	36	14	19	204.0	-201658.0	-12146.0	-6090.0
27	16	36	14	19	205.0	-201172.0	-12094.0	-5830.0
27	16	36	14	20	206.0	-200590.0	-12039.0	-5856.0
27	16	36	14	20	207.0	-199902.0	-11977.0	-6153.0
27	16	36	14	21	208.0	-199147.0	-11899.0	-6211.0
27	16	36	14	22	209.0	-198884.0	-11808.0	-6073.0
27	16	36	14	22	210.0	-198607.0	-11702.0	-6011.0
27	16	36	14	23	211.0	-198285.0	-11602.0	-5658.0
27	16	36	14	23	212.0	-197824.0	-11506.0	-5220.0
27	16	36	14	41	213.0	-197279.0	-11385.0	-5306.0
27	16	36	14	42	214.0	-197256.0	-11266.0	-5174.0
27	16	36	14	43	215.0	-197694.0	-11151.0	-5271.0
27	16	36	14	43	216.0	-198091.0	-11065.0	-5242.0
27	16	36	14	44	217.0	-198103.0	-10954.0	-5290.0
27	16	36	14	44	218.0	-197733.0	-10821.0	-5572.0
27	16	36	14	45	219.0	-197307.0	-10687.0	-5149.0
27	16	36	14	46	220.0	-197047.0	-10570.0	-5155.0
27	16	36	14	46	221.0	-196977.0	-10411.0	-5358.0
27	16	36	14	47	222.0	-196807.0	-10264.0	-4876.0
27	16	36	14	47	223.0	-196491.0	-10110.0	-4929.0
27	16	36	14	48	224.0	-196291.0	-9981.0	-5208.0
27	16	36	14	49	225.0	-196342.0	-9860.0	-5232.0
27	16	36	14	49	226.0	-196561.0	-9701.0	-5679.0
27	16	36	14	50	227.0	-196852.0	-9577.0	-6252.0
27	16	36	14	50	228.0	-197256.0	-9399.0	-6747.0
27	16	36	14	51	229.0	-197374.0	-9226.0	-7141.0
27	16	36	14	51	230.0	-197481.0	-9082.0	-7879.0
27	16	36	14	52	231.0	-197607.0	-8933.0	-8249.0
27	16	36	14	60	232.0	-197699.0	-8750.0	-8506.0
27	16	36	14	61	233.0	-197794.0	-8582.0	-9084.0
27	16	36	14	86	234.0	-197941.0	-8418.0	-9641.0
27	16	36	14	87	235.0	-198350.0	-8274.0	-9284.0
27	16	36	14	87	236.0	-199024.0	-8124.0	-9512.0
27	16	36	14	88	237.0	-199554.0	-7988.0	-10114.0
27	16	36	14	88	238.0	-199975.0	-7835.0	-10381.0
27	16	36	14	89	239.0	-200162.0	-7692.0	-10466.0
27	16	36	14	90	240.0	-200429.0	-7549.0	-10935.0
27	16	36	14	90	241.0	-200708.0	-7379.0	-11146.0
27	16	36	14	91	242.0	-201272.0	-7213.0	-11427.0
27	16	36	14	92	243.0	-201752.0	-7077.0	-11602.0
27	16	36	14	92	244.0	-202431.0	-6937.0	-11859.0
27	16	36	14	93	245.0	-202759.0	-6789.0	-12057.0
27	16	36	14	93	246.0	-202665.0	-6661.0	-12198.0
27	16	36	14	94	247.0	-202764.0	-6543.0	-12624.0
27	16	36	14	94	248.0	-202779.0	-6430.0	-12834.0
27	16	36	14	95	249.0	-202796.0	-6286.0	-12966.0
27	16	36	14	96	250.0	-203057.0	-6168.0	-12786.0
27	16	36	14	96	251.0	-203269.0	-6009.0	-12986.0
27	16	36	14	97	252.0	-203536.0	-5871.0	-13176.0
27	16	36	14	116	253.0	-203702.0	-5752.0	-13463.0
27	16	36	14	116	254.0	-203933.0	-5630.0	-13375.0
27	16	36	14	117	255.0	-204389.0	-5503.0	-13410.0
27	16	36	14	118	0.0	-205108.0	-5388.0	-13814.0
27	16	36	14	118	1.0	-206139.0	-5286.0	-13364.0
27	16	36	14	119	2.0	-207174.0	-5162.0	-12774.0
27	16	36	14	120	3.0	-208486.0	-5060.0	-13102.0
27	16	36	14	120	4.0	-210000.0	-4945.0	-12977.0
27	16	36	14	121	5.0	-211569.0	-4824.0	-12649.0
27	16	36	14	121	6.0	-213263.0	-4735.0	-12795.0
27	16	36	14	122	7.0	-215178.0	-4626.0	-13137.0
27	16	36	14	123	8.0	-216886.0	-4528.0	-13126.0
27	16	36	14	123	9.0	-218268.0	-4427.0	-13492.0
27	16	36	14	124	10.0	-219153.0	-4337.0	-13727.0
27	16	36	14	124	11.0	-219569.0	-4248.0	-13512.0
27	16	36	14	125	12.0	-219612.0	-4156.0	-13763.0
27	16	36	14	133	13.0	-218951.0	-4039.0	-13743.0
27	16	36	14	133	14.0	-217087.0	-3922.0	-13558.0
27	16	36	14	134	15.0	-213251.0	-3831.0	-13081.0
27	16	36	14	155	16.0	-205436.0	-3781.0	-13222.0
27	16	36	14	156	17.0	-191625.0	-3689.0	-13113.0
27	16	36	14	156	18.0	-179624.0	-3604.0	-12909.0
27	16	36	14	157	19.0	-176717.0	-3541.0	-13103.0
27	16	36	14	157	20.0	-186640.0	-3474.0	-13329.0
27	16	36	14	158	21.0	-198306.0	-3392.0	-13198.0
27	16	36	14	159	22.0	-212017.0	-3314.0	-13420.0
27	16	36	14	159	23.0	-223014.0	-3247.0	-13415.0
27	16	36	14	160	24.0	-226592.0	-3171.0	-13253.0
27	16	36	14	160	25.0	-226765.0	-3088.0	-13263.0
27	16	36	14	161	26.0	-223380.0	-3001.0	-13458.0
27	16	36	14	162	27.0	-216640.0	-2933.0	-13643.0
27	16	36	14	162	28.0	-209107.0	-2877.0	-13769.0
27	16	36	14	163	29.0	-202360.0	-2801.0	-13916.0
27	16	36	14	163	30.0	-198006.0	-2755.0	-13749.0
27	16	36	14	164	31.0	-195246.0	-2699.0	-14029.0
27	16	36	14	180	32.0	-193100.0	-2637.0	-14162.0
27	16	36	14	181	33.0	-191980.0	-2544.0	-14015.0
27	16	36	14	203	34.0	-191824.0	-2468.0	-13966.0
27	16	36	14	204	35.0	-189435.0	-2408.0	-13772.0
27	16	36	14	205	36.0	-183567.0	-2352.0	-13521.0
27	16	36	14	205	37.0	-177689.0	-2279.0	-13264.0
27	16	36	14	206	38.0	-172590.0	-2217.0	-13237.0
27	16	36	14	206	39.0	-170541.0	-2178.0	-13153.0
27	16	36	14	207	40.0	-171741.0	-2116.0	-12600.0
27	16	36	14	208	41.0	-174257.0	-2064.0	-12784.0
27	16	36	14	208	42.0	-177285.0	-2026.0	-13312.0
27	16	36	14	209	43.0	-180155.0	-1966.0	-12891.0
27	16	36	14	209	44.0	-182889.0	-1908.0	-12602.0
27	16	36	14	210	45.0	-185646.0	-1857.0	-13009.0
27	16	36	14	210	46.0	-188007.0	-1813.0	-13148.0
27	16	36	14	211	47.0	-189439.0	-1774.0	-13271.0
27	16	36	14	211	48.0	-189758.0	-1697.0	-13271.0
27	16	36	14	212	49.0	-189341.0	-1659.0	-13067.0
27	16	36	14	213	50.0	-188387.0	-1632.0	-13061.0
27	16	36	14	213	51.0	-187544.0	-1579.0	-13089.0
27	16	36	14	214	52.0	-187459.0	-1547.0	-13176.0
27	16	36	14	214	53.0	-188276.0	-1517.0	-12811.0
27	16	36	14	226	54.0	-190084.0	-1477.0	-12897.0
27	16	36	14	227	55.0	-192209.0	-1430.0	-12993.0
27	16	36	14	227	56.0	-194626.0	-1391.0	-12897.0
27	16	36	14	228	57.0	-196677.0	-1363.0	-12844.0
27	16	36	14	229	58.0	-198269.0	-1332.0	-12998.0
27	16	36	14	229	59.0	-199237.0	-1309.0	-12959.0
27	16	36	14	230	60.0	-199867.0	-1289.0	-12993.0
27	16	36	14	230	61.0	-200411.0	-1269.0	-13230.0
27	16	36	14	231	62.0	-200971.0	-1249.0	-13517.0
27	16	36	14	249	63.0	-201468.0	-1212.0	-13170.0
27	16	36	14	250	64.0	-202068.0	-1166.0	-13125.0
27	16	36	14	251	65.0	-202774.0	-1156.0	-12848.0
27	16	36	14	251	66.0	-203442.0	-1163.0	-13023.0
27	16	36	14	252	67.0	-203899.0	-1143.0	-13530.0
27	16	36	14	253	68.0	-204421.0	-1127.0	-13466.0
27	16	36	14	253	69.0	-204891.0	-1141.0	-13531.0
27	16	36	14	254	70.0	-205148.0	-1147.0	-13795.0
27	16	36	14	254	71.0	-205077.0	-1146.0	-13643.0
27	16	36	14	255	72.0	-204684.0	-1144.0	-13235.0
27	16	36	14	255	73.0	-204121.0	-1134.0	-13216.0
27	16	36	14	256	74.0	-203880.0	-1137.0	-13079.0
27	16	36	14	257	75.0	-203817.0	-1139.0	-12556.0
27	16	36	14	257	76.0	-203396.0	-1158.0	-12632.0
27	16	36	14	272	77.0	-202977.0	-1166.0	-12914.0
27	16	36	14	272	78.0	-203164.0	-1156.0	-12849.0
27	16	36	14	273	79.0	-203404.0	-1167.0	-12937.0
27	16	36	14	274	80.0	-203627.0	-1185.0	-13268.0
27	16	36	14	274	81.0	-203874.0	-1200.0	-13638.0
27	16	36	14	275	82.0	-203957.0	-1225.0	-13796.0
27	16	36	14	294	83.0	-204185.0	-1237.0	-13762.0
27	16	36	14	295	84.0	-204427.0	-1234.0	-13205.0
27	16	36	14	296	85.0	-204247.0	-1252.0	-13003.0
27	16	36	14	296	86.0	-204156.0	-1245.0	-13116.0
27	16	36	14	297	87.0	-203814.0	-1252.0	-12995.0
27	16	36	14	297	88.0	-203236.0	-1289.0	-12984.0
27	16	36	14	298	89.0	-202597.0	-1308.0	-13243.0
27	16	36	14	299	90.0	-201935.0	-1337.0	-13344.0
27	16	36	14	299	91.0	-201326.0	-1371.0	-13521.0
27	16	36	14	300	92.0	-200689.0	-1391.0	-13572.0
27	16	36	14	300	93.0	-200340.0	-1388.0	-13512.0
27	16	36	14	301	94.0	-199998.0	-1373.0	-13383.0
27	16	36	14	301	95.0	-199977.0	-1397.0	-13401.0
27	16	36	14	302	96.0	-199889.0	-1419.0	-13412.0
27	16	36	14	303	97.0	-199953.0	-1444.0	-13201.0
27	16	36	14	303	98.0	-200369.0	-1454.0	-12943.0
27	16	36	14	317	99.0	-201111.0	-1461.0	-12932.0
27	16	36	14	318	100.0	-202062.0	-1498.0	-13154.0
27	16	36	14	318	101.0	-203169.0	-1524.0	-13339.0
27	16	36	14	319	102.0	-204215.0	-1542.0	-13641.0
27	16	36	14	320	103.0	-205069.0	-1557.0	-13569.0
27	16	36	14	320	104.0	-205921.0	-1570.0	-13512.0
27	16	36	14	321	105.0	-206451.0	-1583.0	-13572.0
27	16	36	14	321	106.0	-206900.0	-1617.0	-13554.0
27	16	36	14	322	107.0	-207182.0	-1642.0	-13030.0
27	16	36	14	341	108.0	-207025.0	-1637.0	-12947.0
27	16	36	14	341	109.0	-206677.0	-1655.0	-13187.0
27	16	36	14	342	110.0	-206139.0	-1669.0	-12915.0
27	16	36	14	343	111.0	-205359.0	-1689.0	-12676.0
27	16	36	14	343	112.0	-204648.0	-1692.0	-12996.0
27	16	36	14	344	113.0	-204412.0	-1728.0	-12577.0
27	16	36	14	364	114.0	-204257.0	-1745.0	-12076.0
27	16	36	14	365	115.0	-204242.0	-1725.0	-12697.0
27	16	36	14	365	116.0	-204243.0	-1739.0	-13091.0
27	16	36	14	366	117.0	-203909.0	-1761.0	-12831.0
27	16	36	14	366	118.0	-203669.0	-1772.0	-12632.0
27	16	36	14	367	119.0	-203209.0	-1796.0	-12939.0
27	16	36	14	368	120.0	-202292.0	-1833.0	-12786.0
27	16	36	14	368	121.0	-201051.0	-1856.0	-12712.0
27	16	36	14	369	122.0	-200005.0	-1869.0	-12521.0
27	16	36	14	369	123.0	-199494.0	-1868.0	-12532.0
27	16	36	14	370	124.0	-199337.0	-1877.0	-12600.0
27	16	36	14	371	125.0	-199005.0	-1884.0	-12882.0
27	16	36	14	371	126.0	-199008.0	-1887.0	-12628.0
27	16	36	14	372	127.0	-199125.0	-1903.0	-12544.0
27	16	36	14	372	128.0	-199519.0	-1919.0	-12671.0
27	16	36	14	373	129.0	-199594.0	-1942.0	-12320.0
27	16	36	14	373	130.0	-199280.0	-1959.0	-12574.0
27	16	36	14	374	131.0	-199041.0	-1983.0	-12652.0
27	16	36	14	375	132.0	-198949.0	-1976.0	-12229.0
27	16	36	14	375	133.0	-198772.0	-1951.0	-12046.0
27	16	36	14	376	134.0	-198359.0	-1951.0	-12247.0
27	16	36	14	376	135.0	-197757.0	-1950.0	-12579.0
27	16	36	14	386	136.0	-197222.0	-1986.0	-12363.0
27	16	36	14	387	137.0	-196622.0	-1999.0	-12528.0
27	16	36	14	388	138.0	-195921.0	-2024.0	-12811.0
27	16	36	14	388	139.0	-195496.0	-2047.0	-12888.0
27	16	36	14	389	140.0	-195282.0	-2068.0	-13079.0
27	16	36	14	390	141.0	-195242.0	-2070.0	-12706.0
27	16	36	14	390	142.0	-195451.0	-2086.0	-12377.0
27	16	36	14	391	143.0	-195872.0	-2114.0	-12146.0
27	16	36	14	391	144.0	-196242.0	-2122.0	-12116.0
27	16	36	14	409	145.0	-196691.0	-2115.0	-11991.0
27	16	36	14	410	146.0	-196677.0	-2111.0	-11652.0
27	16	36	14	410	147.0	-196201.0	-2137.0	-11831.0
27	16	36	14	411	148.0	-195399.0	-2174.0	-12069.0
27	16	36	14	411	149.0	-195039.0	-2200.0	-11790.0
27	16	36	14	412	150.0	-194868.0	-2237.0	-12324.0
27	16	36	14	413	151.0	-195008.0	-2245.0	-12519.0
27	16	36	14	432	152.0	-195059.0	-2236.0	-12254.0
27	16	36	14	433	153.0	-195178.0	-2246.0	-12289.0
27	16	36	14	434	154.0	-195307.0	-2256.0	-12251.0
27	16	36	14	434	155.0	-195616.0	-2260.0	-12030.0
27	16	36	14	435	156.0	-195907.0	-2285.0	-12022.0
27	16	36	14	436	157.0	-196122.0	-2309.0	-12192.0
27	16	36	14	436	158.0	-196257.0	-2331.0	-12221.0
27	16	36	14	437	159.0	-196279.0	-2356.0	-12244.0
27	16	36	14	437	160.0	-196164.0	-2384.0	-12203.0
27	16	36	14	438	161.0	-196196.0	-2414.0	-12282.0
27	16	36	14	455	162.0	-196158.0	-2439.0	-12269.0
27	16	36	14	455	163.0	-196757.0	-2454.0	-12050.0
27	16	36	14	456	164.0	-197304.0	-2461.0	-11910.0
27	16	36	14	456	165.0	-198000.0	-2485.0	-12106.0
27	16	36	14	457	166.0	-198617.0	-2502.0	-12157.0
27	16	36	14	458	167.0	-199288.0	-2525.0	-11524.0
27	16	36	14	458	168.0	-199942.0	-2527.0	-11486.0
27	16	36	14	459	169.0	-200664.0	-2549.0	-11763.0
27	16	36	14	459	170.0	-201077.0	-2571.0	-11622.0
27	16	36	14	460	171.0	-201566.0	-2609.0	-11666.0
27	16	36	14	460	172.0	-201731.0	-2637.0	-11908.0
27	16	36	14	461	173.0	-201877.0	-2668.0	-12064.0
27	16	36	14	462	174.0	-201836.0	-2679.0	-12006.0
27	16	36	14	462	175.0	-201924.0	-2676.0	-12139.0
27	16	36	14	463	176.0	-202311.0	-2687.0	-12172.0
27	16	36	14	477	177.0	-202198.0	-2718.0	-11956.0
27	16	36	14	478	178.0	-202391.0	-2716.0	-11610.0
27	16	36	14	479	179.0	-202741.0	-2739.0	-11628.0
27	16	36	14	479	180.0	-202816.0	-2791.0	-11675.0
27	16	36	14	480	181.0	-203049.0	-2819.0	-11396.0
27	16	36	14	481	182.0	-203685.0	-2841.0	-11099.0
27	16	36	14	481	183.0	-204585.0	-2864.0	-11304.0
27	16	36	14	482	184.0	-205412.0	-2889.0	-11154.0
27	16	36	14	483	185.0	-205657.0	-2915.0	-11481.0
27	16	36	14	483	186.0	-205595.0	-2931.0	-11619.0
27	16	36	14	484	187.0	-205312.0	-2956.0	-11302.0
27	16	36	14	485	188.0	-204814.0	-2971.0	-11271.0
27	16	36	14	485	189.0	-204136.0	-3019.0	-11242.0
27	16	36	14	486	190.0	-203507.0	-3046.0	-11144.0
27	16	36	14	486	191.0	-202778.0	-3079.0	-11291.0
27	16	36	14	506	192.0	-201822.0	-3086.0	-11347.0
27	16	36	14	523	193.0	-200804.0	-3085.0	-11249.0
27	16	36	14	524	194.0	-199902.0	-3094.0	-11379.0
27	16	36	14	525	195.0	-199100.0	-3150.0	-11502.0
27	16	36	14	526	196.0	-198368.0	-3193.0	-11341.0
27	16	36	14	526	197.0	-197867.0	-3189.0	-11017.0
27	16	36	14	527	198.0	-197586.0	-3208.0	-10862.0
27	16	36	14	528	199.0	-197431.0	-3237.0	-10916.0
27	16	36	14	528	200.0	-197492.0	-3274.0	-11122.0
27	16	36	14	529	201.0	-197542.0	-3309.0	-10927.0
27	16	36	14	530	202.0	-197423.0	-3346.0	-10118.0
27	16	36	14	530	203.0	-197333.0	-3372.0	-9939.0
27	16	36	14	531	204.0	-197115.0	-3393.0	-10192.0
27	16	36	14	532	205.0	-196936.0	-3416.0	-10022.0
27	16	36	14	532	206.0	-196927.0	-3459.0	-9703.0
27	16	36	14	533	207.0	-196878.0	-3477.0	-10189.0
27	16	36	14	533	210.0	-195859.0	-3582.0	-10494.0
27	16	36	14	534	211.0	-195761.0	-3621.0	-10684.0
27	16	36	14	535	212.0	-195579.0	-3629.0	-10822.0
27	16	36	14	535	213.0	-195451.0	-3661.0	-10431.0
27	16	36	14	536	214.0	-195516.0	-3679.0	-10412.0
27	16	36	14	537	215.0	-195733.0	-3692.0	-10261.0
27	16	36	14	537	216.0	-196049.0	-3700.0	-10024.0
27	16	36	14	538	217.0	-196619.0	-3732.0	-10007.0
27	16	36	14	538	218.0	-197601.0	-3759.0	-10069.0
27	16	36	14	551	219.0	-198541.0	-3787.0	-10002.0
27	16	36	14	552	220.0	-199408.0	-3819.0	-10100.0
27	16	36	14	552	221.0	-200302.0	-3854.0	-10256.0
27	16	36	14	553	222.0	-201123.0	-3887.0	-10142.0
27	16	36	14	553	223.0	-201877.0	-3917.0	-9914.0
27	16	36	14	554	224.0	-202559.0	-3952.0	-9878.0
27	16	36	14	555	225.0	-203063.0	-3966.0	-9844.0
27	16	36	14	555	226.0	-203712.0	-3981.0	-9973.0
27	16	36	14	572	227.0	-204131.0	-4029.0	-10238.0
27	16	36	14	573	228.0	-204087.0	-4056.0	-9916.0
27	16	36	14	574	229.0	-203710.0	-4082.0	-10147.0
27	16	36	14	574	230.0	-203477.0	-4132.0	-10333.0
27	16	36	14	575	231.0	-203564.0	-4186.0	-10256.0
27	16	36	14	575	232.0	-203657.0	-4204.0	-10207.0
27	16	36	14	576	233.0	-203699.0	-4235.0	-10261.0
27	16	36	14	577	234.0	-203642.0	-4267.0	-10274.0
27	16	36	14	596	235.0	-203584.0	-4278.0	-10082.0
27	16	36	14	597	236.0	-203506.0	-4298.0	-10029.0
27	16	36	14	597	237.0	-203409.0	-4317.0	-9777.0
27	16	36	14	598	238.0	-203433.0	-4363.0	-9473.0
27	16	36	14	599	239.0	-203521.0	-4396.0	-9947.0
27	16	36	14	599	240.0	-203241.0	-4439.0	-9564.0
27	16	36	14	600	241.0	-202761.0	-4473.0	-9294.0
27	16	36	14	601	242.0	-202358.0	-4495.0	-9739.0
27	16	36	14	601	243.0	-202051.0	-4529.0	-10086.0
27	16	36	14	602	244.0	-202069.0	-4557.0	-10032.0
27	16	36	14	603	245.0	-202262.0	-4569.0	-10086.0
27	16	36	14	603	246.0	-202509.0	-4598.0	-10026.0
27	16	36	14	604	247.0	-202597.0	-4647.0	-10074.0
27	16	36	14	604	248.0	-202659.0	-4681.0	-10037.0
27	16	36	14	605	249.0	-202561.0	-4702.0	-10037.0
27	16	36	14	605	250.0	-202479.0	-4745.0	-9792.0
27	16	36	14	606	251.0	-202383.0	-4767.0	-9649.0
27	16	36	14	619	252.0	-202501.0	-4781.0	-9352.0
27	16	36	14	619	253.0	-202398.0	-4800.0	-9481.0
27	16	36	14	620	254.0	-202161.0	-4815.0	-9213.0
27	16	36	14	621	255.0	-201728.0	-4855.0	-8967.0
27	16	36	14	643	0.0	-201319.0	-4880.0	-9011.0
27	16	36	14	644	1.0	-201062.0	-4896.0	-8926.0
27	16	36	14	645	2.0	-200981.0	-4931.0	-8860.0
27	16	36	14	645	3.0	-200684.0	-4966.0	-8849.0
27	16	36	14	646	4.0	-200277.0	-5029.0	-8712.0
27	16	36	14	646	5.0	-199992.0	-5071.0	-8649.0
27	16	36	14	647	6.0	-199780.0	-5082.0	-8686.0
27	16	36	14	648	7.0	-199772.0	-5098.0	-8754.0
27	16	36	14	648	8.0	-199906.0	-5117.0	-9202.0
27	16	36	14	649	9.0	-199621.0	-5148.0	-9567.0
27	16	36	14	649	10.0	-198927.0	-5168.0	-9438.0
27	16	36	14	650	11.0	-198321.0	-5192.0	-9249.0
27	16	36	14	650	12.0	-197861.0	-5216.0	-9319.0
27	16	36	14	651	13.0	-196966.0	-5254.0	-9299.0
27	16	36	14	652	14.0	-196257.0	-5280.0	-9167.0
27	16	36	14	652	15.0	-195732.0	-5351.0	-9127.0
27	16	36	14	667	16.0	-194993.0	-5366.0	-8952.0
27	16	36	14	694	17.0	-194278.0	-5381.0	-8646.0
27	16	36	14	695	18.0	-193839.0	-5382.0	-8777.0
27	16	36	14	695	19.0	-193698.0	-5414.0	-8509.0
27	16	36	14	696	20.0	-193957.0	-5446.0	-8540.0
27	16	36	14	696	21.0	-194907.0	-5500.0	-8949.0
27	16	36	14	697	22.0	-196386.0	-5519.0	-9203.0
27	16	36	14	698	23.0	-197900.0	-5533.0	-9102.0
27	16	36	14	698	24.0	-199291.0	-5578.0	-9357.0
27	16	36	14	699	25.0	-200686.0	-5618.0	-10114.0
27	16	36	14	700	26.0	-202082.0	-5647.0	-10567.0
27	16	36	14	700	27.0	-203394.0	-5659.0	-10781.0
27	16	36	14	701	28.0	-204765.0	-5689.0	-10826.0
27	16	36	14	702	29.0	-206204.0	-5720.0	-11046.0
27	16	36	14	702	30.0	-207707.0	-5752.0	-11561.0
27	16	36	14	703	31.0	-209211.0	-5761.0	-12284.0
27	16	36	14	704	32.0	-210677.0	-5797.0	-13229.0
27	16	36	14	704	33.0	-212214.0	-5825.0	-12866.0
27	16	36	14	705	34.0	-213432.0	-5832.0	-11245.0
27	16	36	14	705	35.0	-214264.0	-5869.0	-7824.0
27	16	36	14	706	36.0	-214602.0	-5892.0	-3312.0
27	16	36	14	707	37.0	-214289.0	-5929.0	793.0
27	16	36	14	707	38.0	-213190.0	-5940.0	4953.0
27	16	36	14	708	39.0	-211119.0	-5952.0	7990.0
27	16	36	14	708	40.0	-208239.0	-5990.0	9610.0
27	16	36	14	709	41.0	-204424.0	-5998.0	10663.0
27	16	36	14	710	42.0	-200112.0	-6044.0	11352.0
27	16	36	14	710	43.0	-195332.0	-6080.0	10715.0
27	16	36	14	711	44.0	-190830.0	-6118.0	9708.0
27	16	36	14	712	45.0	-186271.0	-6142.0	9639.0
27	16	36	14	712	46.0	-182416.0	-6162.0	8307.0
27	16	36	14	720	47.0	-179880.0	-6157.0	6531.0
27	16	36	14	721	48.0	-178744.0	-6178.0	5049.0
27	16	36	14	722	49.0	-178772.0	-6221.0	3311.0
27	16	36	14	722	50.0	-180062.0	-6272.0	1325.0
27	16	36	14	723	51.0	-182189.0	-6278.0	-511.0
27	16	36	14	723	52.0	-184745.0	-6306.0	-1756.0
27	16	36	14	752	53.0	-187397.0	-6336.0	-2099.0
27	16	36	14	753	54.0	-190108.0	-6339.0	-2561.0
27	16	36	14	753	55.0	-192633.0	-6366.0	-3112.0
27	16	36	14	754	56.0	-194959.0	-6397.0	-4016.0
27	16	36	14	754	57.0	-196914.0	-6418.0	-4909.0
27	16	36	14	755	58.0	-198262.0	-6463.0	-5126.0
27	16	36	14	755	59.0	-198612.0	-6481.0	-5578.0
27	16	36	14	756	60.0	-198641.0	-6514.0	-6231.0
27	16	36	14	756	61.0	-195007.0	-6533.0	-6701.0
27	16	36	14	757	62.0	-181537.0	-6549.0	-6827.0
27	16	36	14	758	63.0	-162890.0	-6576.0	-7012.0
27	16	36	14	758	64.0	-148979.0	-6618.0	-7480.0
27	16	36	14	759	65.0	-144254.0	-6636.0	-7593.0
27	16	36	14	759	66.0	-147962.0	-6660.0	-7736.0
27	16	36	14	760	67.0	-156618.0	-6684.0	-7941.0
27	16	36	14	760	68.0	-167631.0	-6708.0	-7957.0
27	16	36	14	761	69.0	-179742.0	-6719.0	-8224.0
27	16	36	14	762	70.0	-191996.0	-6716.0	-8233.0
27	16	36	14	762	71.0	-203025.0	-6759.0	-8514.0
27	16	36	14	763	72.0	-211288.0	-6781.0	-8782.0
27	16	36	14	763	73.0	-217116.0	-6825.0	-8801.0
27	16	36	14	764	74.0	-220256.0	-6882.0	-8412.0
27	16	36	14	764	75.0	-219353.0	-6907.0	-8325.0
27	16	36	14	775	76.0	-214112.0	-6899.0	-8312.0
27	16	36	14	776	77.0	-204700.0	-6914.0	-8023.0
27	16	36	14	777	78.0	-193617.0	-6944.0	-7942.0
27	16	36	14	777	79.0	-189071.0	-6989.0	-7975.0
27	16	36	14	778	80.0	-192232.0	-7007.0	-8019.0
27	16	36	14	778	81.0	-197949.0	-7034.0	-8022.0
27	16	36	14	779	82.0	-202976.0	-7044.0	-8571.0
27	16	36	14	795	83.0	-206149.0	-7085.0	-8850.0
27	16	36	14	795	84.0	-211404.0	-7105.0	-8387.0
27	16	36	14	796	85.0	-216316.0	-7113.0	-8385.0
27	16	36	14	796	86.0	-218017.0	-7148.0	-8547.0
27	16	36	14	797	87.0	-215439.0	-7173.0	-8031.0
27	16	36	14	797	88.0	-211878.0	-7189.0	-7817.0
27	16	36	14	798	89.0	-211438.0	-7196.0	-7783.0
27	16	36	14	798	90.0	-214401.0	-7219.0	-8015.0
27	16	36	14	817	91.0	-218576.0	-7239.0	-7837.0
27	16	36	14	818	92.0	-220874.0	-7244.0	-7874.0
27	16	36	14	819	93.0	-219545.0	-7291.0	-7871.0
27	16	36	14	819	94.0	-215686.0	-7336.0	-8314.0
27	16	36	14	820	95.0	-211574.0	-7357.0	-8596.0
27	16	36	14	820	96.0	-208687.0	-7387.0	-8641.0
27	16	36	14	821	97.0	-206364.0	-7400.0	-8287.0
27	16	36	14	822	98.0	-203863.0	-7406.0	-8189.0
27	16	36	14	822	99.0	-201707.0	-7417.0	-8495.0
27	16	36	14	823	100.0	-200604.0	-7441.0	-8316.0
27	16	36	14	841	101.0	-200679.0	-7457.0	-8466.0
27	16	36	14	842	102.0	-201600.0	-7472.0	-8239.0
27	16	36	14	843	103.0	-203095.0	-7527.0	-8243.0
27	16	36	14	843	104.0	-204207.0	-7562.0	-8451.0
27	16	36	14	844	105.0	-204428.0	-7586.0	-8853.0
27	16	36	14	844	106.0	-204162.0	-7583.0	-9041.0
27	16	36	14	845	107.0	-202879.0	-7601.0	-9074.0
27	16	36	14	845	108.0	-201245.0	-7600.0	-8732.0
27	16	36	14	846	109.0	-199482.0	-7597.0	-8276.0
27	16	36	14	847	110.0	-197537.0	-7634.0	-8080.0
27	16	36	14	847	111.0	-195964.0	-7660.0	-8325.0
27	16	36	14	848	112.0	-194801.0	-7678.0	-8213.0
27	16	36	14	848	113.0	-194331.0	-7694.0	-8287.0
27	16	36	14	849	114.0	-194901.0	-7719.0	-8567.0
27	16	36	14	849	115.0	-196447.0	-7735.0	-8615.0
27	16	36	14	865	116.0	-198586.0	-7747.0	-8828.0
27	16	36	14	865	117.0	-200803.0	-7769.0	-9031.0
27	16	36	14	866	118.0	-202513.0	-7787.0	-8606.0
27	16	36	14	866	119.0	-203171.0	-7787.0	-8324.0
27	16	36	14	887	120.0	-203004.0	-7808.0	-8452.0
27	16	36	14	888	121.0	-202858.0	-7846.0	-8312.0
27	16	36	14	888	122.0	-203219.0	-7869.0	-7537.0
27	16	36	14	889	123.0	-203819.0	-7894.0	-7452.0
27	16	36	14	889	124.0	-204014.0	-7916.0	-8096.0
27	16	36	14	890	125.0	-203984.0	-7952.0	-8094.0
27	16	36	14	891	126.0	-204106.0	-7987.0	-7668.0
27	16	36	14	891	127.0	-205106.0	-7996.0	-7456.0
27	16	36	14	892	128.0	-205661.0	-8018.0	-7617.0
27	16	36	14	892	129.0	-205919.0	-8022.0	-7699.0
27	16	36	14	893	130.0	-206363.0	-8031.0	-7478.0
27	16	36	14	893	131.0	-206839.0	-8062.0	-7339.0
27	16	36	14	894	132.0	-207214.0	-8105.0	-7266.0
27	16	36	14	894	133.0	-207829.0	-8132.0	-7291.0
27	16	36	14	895	134.0	-208481.0	-8166.0	-7712.0
27	16	36	14	896	135.0	-208937.0	-8185.0	-7585.0
27	16	36	14	896	136.0	-209174.0	-8182.0	-7296.0
27	16	36	14	897	137.0	-209222.0	-8197.0	-7032.0
27	16	36	14	897	138.0	-209059.0	-8191.0	-6788.0
27	16	36	14	898	139.0	-208995.0	-8175.0	-6879.0
27	16	36	14	911	140.0	-209304.0	-8187.0	-6966.0
27	16	36	14	911	141.0	-209601.0	-8184.0	-6863.0
27	16	36	14	912	142.0	-209638.0	-8202.0	-6342.0
27	16	36	14	912	143.0	-209369.0	-8222.0	-6299.0
27	16	36	14	913	144.0	-208911.0	-8216.0	-5931.0
27	16	36	14	933	145.0	-208212.0	-8217.0	-5377.0
27	16	36	14	933	146.0	-206606.0	-8209.0	-5369.0
27	16	36	14	934	147.0	-205693.0	-8181.0	-5039.0
27	16	36	14	935	148.0	-204741.0	-8146.0	-4559.0
27	16	36	14	935	149.0	-204553.0	-8116.0	-4637.0
27	16	36	14	936	150.0	-204174.0	-8103.0	-4761.0
27	16	36	14	936	151.0	-203519.0	-8054.0	-4847.0
27	16	36	14	937	152.0	-202396.0	-8006.0	-4905.0
27	16	36	14	937	153.0	-201531.0	-7964.0	-4666.0
27	16	36	14	938	154.0	-200613.0	-7921.0	-4577.0
27	16	36	14	938	155.0	-200042.0	-7861.0	-4569.0
27	16	36	14	939	156.0	-199309.0	-7787.0	-4324.0
27	16	36	14	940	157.0	-198862.0	-7713.0	-3663.0
27	16	36	14	940	158.0	-198669.0	-7615.0	-3191.0
27	16	36	14	941	159.0	-198396.0	-7508.0	-3391.0
27	16	36	14	941	160.0	-198270.0	-7418.0	-3297.0
27	16	36	14	942	161.0	-197972.0	-7346.0	-2763.0
27	16	36	14	943	162.0	-196944.0	-7244.0	-2746.0
27	16	36	14	943	163.0	-196022.0	-7139.0	-2854.0
27	16	36	14	944	164.0	-195824.0	-7053.0	-3108.0
27	16	36	14	944	165.0	-195981.0	-6939.0	-2756.0
27	16	36	14	955	166.0	-196373.0	-6799.0	-2732.0
27	16	36	14	956	167.0	-196706.0	-6663.0	-2500.0
27	16	36	14	957	168.0	-196997.0	-6527.0	-2321.0
27	16	36	14	957	169.0	-197534.0	-6366.0	-2558.0
27	16	36	14	958	170.0	-197548.0	-6241.0	-2326.0
27	16	36	14	958	171.0	-197397.0	-6122.0	-2239.0
27	16	36	14	959	172.0	-197307.0	-5975.0	-2339.0
27	16	36	14	979	173.0	-197242.0	-5832.0	-2574.0
27	16	36	15	3	174.0	-197229.0	-5671.0	-2792.0
27	16	36	15	4	175.0	-197303.0	-5540.0	-2587.0
27	16	36	15	4	176.0	-197493.0	-5366.0	-2456.0
27	16	36	15	5	177.0	-197780.0	-5189.0	-2744.0
27	16	36	15	5	178.0	-198171.0	-5022.0	-2596.0
27	16	36	15	6	179.0	-198263.0	-4860.0	-2376.0
27	16	36	15	6	180.0	-198463.0	-4691.0	-2250.0
27	16	36	15	7	181.0	-198665.0	-4527.0	-2975.0
27	16	36	15	7	182.0	-198904.0	-4374.0	-3192.0
27	16	36	15	8	183.0	-199066.0	-4218.0	-3111.0
27	16	36	15	9	184.0	-199014.0	-4057.0	-3759.0
27	16	36	15	9	185.0	-198834.0	-3894.0	-4657.0
27	16	36	15	10	186.0	-198849.0	-3723.0	-4552.0
27	16	36	15	10	187.0	-199169.0	-3584.0	-4973.0
27	16	36	15	11	188.0	-199266.0	-3409.0	-5915.0
27	16	36	15	11	189.0	-199572.0	-3233.0	-6065.0
27	16	36	15	12	190.0	-200058.0	-3042.0	-6061.0
27	16	36	15	12	191.0	-200651.0	-2878.0	-6431.0
27	16	36	15	13	192.0	-200732.0	-2739.0	-6469.0
27	16	36	15	14	193.0	-200747.0	-2576.0	-6663.0
27	16	36	15	26	194.0	-200645.0	-2434.0	-7072.0
27	16	36	15	27	195.0	-200297.0	-2273.0	-7049.0
27	16	36	15	28	196.0	-199954.0	-2124.0	-7233.0
27	16	36	15	28	197.0	-199375.0	-1992.0	-7704.0
27	16	36	15	29	198.0	-199361.0	-1842.0	-8173.0
27	16	36	15	50	199.0	-199659.0	-1688.0	-8036.0
27	16	36	15	51	200.0	-200470.0	-1540.0	-8250.0
27	16	36	15	51	201.0	-201317.0	-1404.0	-8812.0
27	16	36	15	52	202.0	-201933.0	-1275.0	-8982.0
27	16	36	15	52	203.0	-202719.0	-1157.0	-8999.0
27	16	36	15	53	204.0	-203199.0	-1012.0	-9217.0
27	16	36	15	54	205.0	-203972.0	-884.0	-9179.0
27	16	36	15	54	206.0	-204648.0	-769.0	-9437.0
27	16	36	15	55	207.0	-205841.0	-657.0	-9653.0
27	16	36	15	55	208.0	-207194.0	-521.0	-9550.0
27	16	36	15	56	209.0	-208779.0	-412.0	-9628.0
27	16	36	15	56	210.0	-210466.0	-280.0	-9806.0
27	16	36	15	57	211.0	-211865.0	-134.0	-9601.0
27	16	36	15	57	212.0	-213508.0	-12.0	-9878.0
27	16	36	15	58	213.0	-215081.0	75.0	-10166.0
27	16	36	15	59	214.0	-217079.0	175.0	-9726.0
27	16	36	15	59	215.0	-218674.0	278.0	-9442.0
27	16	36	15	60	216.0	-220175.0	372.0	-9365.0
27	16	36	15	74	217.0	-221329.0	491.0	-9067.0
27	16	36	15	75	218.0	-221964.0	606.0	-8952.0
27	16	36	15	75	219.0	-222651.0	727.0	-9529.0
27	16	36	15	76	220.0	-222681.0	801.0	-9920.0
27	16	36	15	77	221.0	-222240.0	889.0	-9724.0
27	16	36	15	77	222.0	-221204.0	971.0	-9472.0
27	16	36	15	78	223.0	-220347.0	1061.0	-10122.0
27	16	36	15	79	224.0	-218662.0	1150.0	-10172.0
27	16	36	15	79	225.0	-216216.0	1236.0	-10004.0
27	16	36	15	80	226.0	-212404.0	1350.0	-9830.0
27	16	36	15	81	227.0	-205287.0	1444.0	-9428.0
27	16	36	15	81	228.0	-190855.0	1535.0	-9322.0
27	16	36	15	82	229.0	-174289.0	1636.0	-9638.0
27	16	36	15	82	230.0	-168736.0	1722.0	-9470.0
27	16	36	15	83	231.0	-175892.0	1794.0	-9231.0
27	16	36	15	84	232.0	-186816.0	1863.0	-9287.0
27	16	36	15	84	233.0	-198661.0	1923.0	-9766.0
27	16	36	15	85	234.0	-208409.0	2003.0	-9654.0
27	16	36	15	96	235.0	-210707.0	2106.0	-9762.0
27	16	36	15	97	236.0	-208259.0	2187.0	-9562.0
27	16	36	15	97	237.0	-204241.0	2261.0	-9394.0
27	16	36	15	98	238.0	-198169.0	2349.0	-9469.0
27	16	36	15	119	239.0	-191203.0	2408.0	-9706.0
27	16	36	15	120	240.0	-182389.0	2469.0	-9451.0
27	16	36	15	120	241.0	-174039.0	2543.0	-9436.0
27	16	36	15	121	242.0	-168667.0	2597.0	-9864.0
27	16	36	15	122	243.0	-164342.0	2659.0	-9939.0
27	16	36	15	122	244.0	-162990.0	2736.0	-9956.0
27	16	36	15	123	245.0	-165416.0	2779.0	-10292.0
27	16	36	15	123	246.0	-169996.0	2850.0	-10230.0
27	16	36	15	124	247.0	-175454.0	2936.0	-10313.0
27	16	36	15	125	248.0	-181252.0	3003.0	-10460.0
27	16	36	15	125	249.0	-187122.0	3063.0	-9934.0
27	16	36	15	126	250.0	-191966.0	3123.0	-9484.0
27	16	36	15	126	251.0	-195263.0	3186.0	-9229.0
27	16	36	15	127	252.0	-196991.0	3235.0	-8997.0
27	16	36	15	127	253.0	-197336.0	3270.0	-8682.0
27	16	36	15	128	254.0	-195989.0	3309.0	-8852.0
27	16	36	15	142	255.0	-193751.0	3359.0	-9357.0
27	16	36	15	143	0.0	-191850.0	3430.0	-8866.0
27	16	36	15	143	1.0	-190816.0	3497.0	-9224.0
27	16	36	15	144	2.0	-191251.0	3549.0	-9593.0
27	16	36	15	144	3.0	-193421.0	3592.0	-9337.0
27	16	36	15	145	4.0	-196676.0	3624.0	-8891.0
27	16	36	15	145	5.0	-200326.0	3673.0	-9001.0
27	16	36	15	146	6.0	-203824.0	3717.0	-8962.0
27	16	36	15	166	7.0	-206541.0	3770.0	-9068.0
27	16	36	15	166	8.0	-208496.0	3779.0	-9001.0
27	16	36	15	190	9.0	-209647.0	3814.0	-9104.0
27	16	36	15	213	10.0	-210203.0	3851.0	-8721.0
27	16	36	15	213	11.0	-210515.0	3895.0	-8858.0
27	16	36	15	214	12.0	-210641.0	3922.0	-9014.0
27	16	36	15	214	13.0	-210347.0	3958.0	-8717.0
27	16	36	15	215	14.0	-209706.0	3991.0	-8672.0
27	16	36	15	216	15.0	-209021.0	3995.0	-8941.0
27	16	36	15	216	16.0	-208423.0	4018.0	-8789.0
27	16	36	15	217	17.0	-207792.0	4013.0	-9197.0
27	16	36	15	217	18.0	-207261.0	4034.0	-9304.0
27	16	36	15	218	19.0	-206859.0	4049.0	-8900.0
27	16	36	15	218	20.0	-206503.0	4068.0	-8880.0
27	16	36	15	219	21.0	-206477.0	4059.0	-9211.0
27	16	36	15	219	22.0	-206320.0	4093.0	-8909.0
27	16	36	15	220	23.0	-206119.0	4132.0	-8855.0
27	16	36	15	221	24.0	-205713.0	4119.0	-9190.0
27	16	36	15	221	35.0	-197904.0	4016.0	-8109.0
27	16	36	15	222	36.0	-197731.0	4009.0	-8106.0
27	16	36	15	222	37.0	-197588.0	3995.0	-8729.0
27	16	36	15	223	38.0	-197369.0	3973.0	-9122.0
27	16	36	15	223	39.0	-197339.0	3967.0	-8942.0
27	16	36	15	224	40.0	-197516.0	3953.0	-9012.0
27	16	36	15	224	41.0	-197968.0	3936.0	-9237.0
27	16	36	15	225	42.0	-198706.0	3938.0	-8915.0
27	16	36	15	226	43.0	-199312.0	3921.0	-8704.0
