27	15	36	10	605	215.0	-173544.0	2429.0	15713.0
27	15	36	10	608	216.0	-170396.0	2477.0	15329.0
27	15	36	10	611	217.0	-168615.0	2524.0	14833.0
27	15	36	10	614	218.0	-168572.0	2568.0	14687.0
27	15	36	10	617	219.0	-170464.0	2598.0	14976.0
27	15	36	10	619	220.0	-174018.0	2645.0	15262.0
27	15	36	10	621	221.0	-178663.0	2693.0	14905.0
27	15	36	10	622	222.0	-183350.0	2719.0	14653.0
27	15	36	10	623	223.0	-188054.0	2749.0	14986.0
27	15	36	10	624	224.0	-192841.0	2786.0	15546.0
27	15	36	10	625	225.0	-196784.0	2797.0	15477.0
27	15	36	10	626	226.0	-199491.0	2815.0	15221.0
27	15	36	10	635	227.0	-202026.0	2845.0	14859.0
27	15	36	10	636	228.0	-204436.0	2888.0	14940.0
27	15	36	10	637	229.0	-206600.0	2914.0	15164.0
27	15	36	10	637	230.0	-208621.0	2924.0	15135.0
27	15	36	10	638	231.0	-210461.0	2954.0	14962.0
27	15	36	10	639	232.0	-212306.0	2959.0	15016.0
27	15	36	10	640	233.0	-214476.0	2973.0	14868.0
27	15	36	10	640	234.0	-217303.0	2996.0	15139.0
27	15	36	10	641	235.0	-219928.0	3011.0	15399.0
27	15	36	10	641	236.0	-222685.0	3024.0	15507.0
27	15	36	10	642	237.0	-225852.0	3036.0	15093.0
27	15	36	10	676	238.0	-229014.0	3042.0	14588.0
27	15	36	10	721	239.0	-232007.0	3039.0	15034.0
27	15	36	10	722	240.0	-234062.0	3049.0	15134.0
27	15	36	10	723	241.0	-235829.0	3056.0	14878.0
27	15	36	10	723	242.0	-237212.0	3041.0	14857.0
27	15	36	10	724	243.0	-237958.0	3038.0	14949.0
27	15	36	10	725	244.0	-238124.0	3025.0	15060.0
27	15	36	10	725	245.0	-237297.0	3018.0	15253.0
27	15	36	10	726	246.0	-236115.0	3034.0	15419.0
27	15	36	10	727	247.0	-234171.0	3027.0	15400.0
27	15	36	10	728	248.0	-231888.0	3022.0	15433.0
27	15	36	10	729	249.0	-229737.0	3036.0	15542.0
27	15	36	10	729	250.0	-227461.0	3001.0	15643.0
27	15	36	10	730	251.0	-224491.0	2994.0	15721.0
27	15	36	10	731	252.0	-221729.0	2976.0	15969.0
27	15	36	10	731	0.0	-213767.0	2911.0	15924.0
27	15	36	10	732	23.0	-199112.0	2428.0	14643.0
27	15	36	10	732	24.0	-200872.0	2397.0	14383.0
27	15	36	10	733	25.0	-202595.0	2388.0	14549.0
27	15	36	10	734	26.0	-204126.0	2373.0	14782.0
27	15	36	10	735	27.0	-204768.0	2340.0	15009.0
27	15	36	10	735	28.0	-205636.0	2319.0	15100.0
27	15	36	10	766	29.0	-206756.0	2304.0	14663.0
27	15	36	10	767	30.0	-207637.0	2286.0	14738.0
27	15	36	10	768	31.0	-209267.0	2248.0	15282.0
27	15	36	10	768	32.0	-210897.0	2225.0	16239.0
27	15	36	10	769	33.0	-211866.0	2200.0	16803.0
27	15	36	10	769	34.0	-213257.0	2181.0	16906.0
27	15	36	10	770	35.0	-214549.0	2167.0	16723.0
27	15	36	10	771	36.0	-215036.0	2128.0	16797.0
27	15	36	10	771	37.0	-216066.0	2129.0	16899.0
27	15	36	10	772	38.0	-217741.0	2106.0	16564.0
27	15	36	10	773	39.0	-218642.0	2081.0	16304.0
27	15	36	10	774	40.0	-219841.0	2076.0	16561.0
27	15	36	10	774	41.0	-221823.0	2031.0	17068.0
27	15	36	10	775	42.0	-222456.0	1998.0	17314.0
27	15	36	10	776	43.0	-222421.0	1988.0	17427.0
27	15	36	10	777	45.0	-221489.0	1923.0	17133.0
27	15	36	10	778	46.0	-220037.0	1893.0	17176.0
27	15	36	10	778	47.0	-218756.0	1875.0	17454.0
27	15	36	10	779	48.0	-216582.0	1862.0	17875.0
27	15	36	10	779	49.0	-214242.0	1841.0	17644.0
27	15	36	10	780	50.0	-211761.0	1813.0	17812.0
27	15	36	10	811	51.0	-208915.0	1796.0	18460.0
27	15	36	10	811	52.0	-205574.0	1766.0	18831.0
27	15	36	10	812	53.0	-202461.0	1744.0	19150.0
27	15	36	10	813	54.0	-199258.0	1706.0	19042.0
27	15	36	10	813	55.0	-195906.0	1673.0	19010.0
27	15	36	10	814	56.0	-192924.0	1640.0	19019.0
27	15	36	10	815	57.0	-189987.0	1626.0	18911.0
27	15	36	10	815	58.0	-187517.0	1593.0	18980.0
27	15	36	10	816	59.0	-185447.0	1562.0	18940.0
27	15	36	10	817	60.0	-182363.0	1533.0	18623.0
27	15	36	10	817	61.0	-179798.0	1513.0	18556.0
27	15	36	10	818	62.0	-176453.0	1471.0	18417.0
27	15	36	10	819	63.0	-172619.0	1436.0	18208.0
27	15	36	10	819	64.0	-169565.0	1398.0	18107.0
27	15	36	10	820	65.0	-166517.0	1390.0	18236.0
27	15	36	10	820	67.0	-162189.0	1318.0	18568.0
27	15	36	10	821	68.0	-161399.0	1281.0	18616.0
27	15	36	10	822	69.0	-161936.0	1244.0	18846.0
27	15	36	10	822	70.0	-163891.0	1211.0	18836.0
27	15	36	10	823	71.0	-166522.0	1176.0	18426.0
27	15	36	10	824	72.0	-170457.0	1134.0	18192.0
27	15	36	10	825	73.0	-174976.0	1097.0	17686.0
27	15	36	10	857	74.0	-180321.0	1049.0	16997.0
27	15	36	10	858	75.0	-185457.0	1028.0	15464.0
27	15	36	10	859	76.0	-190234.0	998.0	13914.0
27	15	36	10	859	77.0	-194588.0	968.0	12868.0
27	15	36	10	860	78.0	-198124.0	929.0	12877.0
27	15	36	10	861	79.0	-200526.0	913.0	14413.0
27	15	36	10	861	80.0	-202729.0	865.0	18968.0
27	15	36	10	862	81.0	-204794.0	818.0	23264.0
27	15	36	10	863	82.0	-206390.0	779.0	26038.0
27	15	36	10	863	83.0	-207362.0	743.0	29071.0
27	15	36	10	864	84.0	-208773.0	698.0	32368.0
27	15	36	10	865	85.0	-210477.0	666.0	34369.0
27	15	36	10	865	86.0	-213047.0	622.0	35356.0
27	15	36	10	866	87.0	-215806.0	569.0	34210.0
27	15	36	10	866	88.0	-219512.0	536.0	33624.0
27	15	36	10	867	90.0	-227296.0	461.0	32117.0
27	15	36	10	868	91.0	-230457.0	426.0	30830.0
27	15	36	10	868	92.0	-232534.0	389.0	29872.0
27	15	36	10	869	93.0	-233709.0	349.0	28586.0
27	15	36	10	869	94.0	-233989.0	318.0	26385.0
27	15	36	10	870	95.0	-233441.0	268.0	25271.0
27	15	36	10	903	96.0	-232602.0	241.0	24121.0
27	15	36	10	904	97.0	-231693.0	191.0	22393.0
27	15	36	10	904	98.0	-231018.0	148.0	19531.0
27	15	36	10	905	99.0	-230349.0	116.0	17375.0
27	15	36	10	906	100.0	-229354.0	79.0	15709.0
27	15	36	10	906	101.0	-225392.0	34.0	14514.0
27	15	36	10	907	102.0	-215277.0	-9.0	13246.0
27	15	36	10	908	103.0	-201383.0	-42.0	13411.0
27	15	36	10	908	104.0	-184727.0	-90.0	13298.0
27	15	36	10	909	105.0	-167059.0	-127.0	12653.0
27	15	36	10	910	106.0	-152046.0	-157.0	12720.0
27	15	36	10	910	107.0	-140435.0	-199.0	12967.0
27	15	36	10	911	108.0	-133977.0	-248.0	12503.0
27	15	36	10	912	109.0	-136224.0	-268.0	12173.0
27	15	36	10	912	110.0	-148303.0	-311.0	12379.0
27	15	36	10	913	112.0	-196972.0	-382.0	12046.0
27	15	36	10	914	113.0	-224340.0	-421.0	12269.0
27	15	36	10	914	114.0	-247880.0	-461.0	12203.0
27	15	36	10	915	115.0	-264765.0	-512.0	12527.0
27	15	36	10	915	116.0	-278235.0	-553.0	12313.0
27	15	36	10	916	117.0	-278643.0	-590.0	12251.0
27	15	36	10	916	118.0	-260754.0	-631.0	12383.0
27	15	36	10	947	119.0	-230839.0	-686.0	12138.0
27	15	36	10	947	120.0	-197131.0	-712.0	12066.0
27	15	36	10	948	121.0	-165789.0	-741.0	12108.0
27	15	36	10	949	122.0	-140986.0	-779.0	12208.0
27	15	36	10	949	123.0	-123286.0	-821.0	12009.0
27	15	36	10	950	124.0	-113962.0	-832.0	11998.0
27	15	36	10	950	125.0	-114947.0	-866.0	11938.0
27	15	36	10	951	126.0	-125853.0	-903.0	12229.0
27	15	36	10	952	127.0	-144465.0	-949.0	12224.0
27	15	36	10	952	128.0	-167037.0	-982.0	12268.0
27	15	36	10	953	129.0	-189146.0	-1027.0	12363.0
27	15	36	10	954	130.0	-207688.0	-1058.0	12139.0
27	15	36	10	954	131.0	-221246.0	-1107.0	12271.0
27	15	36	10	955	132.0	-230493.0	-1162.0	12174.0
27	15	36	10	956	133.0	-235827.0	-1197.0	12108.0
27	15	36	10	957	135.0	-235314.0	-1291.0	11985.0
27	15	36	10	958	136.0	-230369.0	-1326.0	12188.0
27	15	36	10	958	137.0	-223382.0	-1367.0	11901.0
27	15	36	10	959	138.0	-216461.0	-1405.0	11581.0
27	15	36	10	959	139.0	-211314.0	-1456.0	11859.0
27	15	36	10	960	140.0	-208488.0	-1493.0	11629.0
27	15	36	10	990	141.0	-207457.0	-1542.0	11435.0
27	15	36	10	991	142.0	-207582.0	-1587.0	11515.0
27	15	36	11	12	143.0	-209322.0	-1641.0	11583.0
27	15	36	11	13	144.0	-212462.0	-1687.0	11417.0
27	15	36	11	14	145.0	-215039.0	-1740.0	10937.0
27	15	36	11	14	146.0	-216453.0	-1774.0	10813.0
27	15	36	11	15	147.0	-216380.0	-1848.0	10547.0
27	15	36	11	15	148.0	-214497.0	-1895.0	10446.0
27	15	36	11	16	149.0	-211687.0	-1949.0	10454.0
27	15	36	11	17	150.0	-208146.0	-2008.0	10002.0
27	15	36	11	17	151.0	-203445.0	-2054.0	9912.0
27	15	36	11	18	152.0	-198296.0	-2107.0	10161.0
27	15	36	11	18	153.0	-193622.0	-2159.0	9981.0
27	15	36	11	19	154.0	-189106.0	-2204.0	9608.0
27	15	36	11	19	155.0	-185227.0	-2262.0	9722.0
27	15	36	11	20	157.0	-180860.0	-2368.0	9018.0
27	15	36	11	21	158.0	-180759.0	-2421.0	8381.0
27	15	36	11	21	159.0	-182156.0	-2479.0	8316.0
27	15	36	11	22	160.0	-184477.0	-2540.0	8199.0
27	15	36	11	22	161.0	-187887.0	-2600.0	7943.0
27	15	36	11	23	162.0	-191712.0	-2649.0	8338.0
27	15	36	11	23	163.0	-195501.0	-2702.0	8590.0
27	15	36	11	83	164.0	-199390.0	-2776.0	8389.0
27	15	36	11	84	165.0	-203001.0	-2836.0	8131.0
27	15	36	11	85	166.0	-206138.0	-2896.0	8241.0
27	15	36	11	85	167.0	-208306.0	-2948.0	8336.0
27	15	36	11	86	168.0	-209986.0	-3000.0	8231.0
27	15	36	11	87	169.0	-210920.0	-3040.0	8083.0
27	15	36	11	87	170.0	-211249.0	-3114.0	7718.0
27	15	36	11	88	171.0	-210900.0	-3184.0	7115.0
27	15	36	11	89	172.0	-209841.0	-3224.0	6381.0
27	15	36	11	89	173.0	-208088.0	-3253.0	6492.0
27	15	36	11	90	174.0	-205833.0	-3306.0	6769.0
27	15	36	11	91	175.0	-203424.0	-3366.0	6439.0
27	15	36	11	92	176.0	-201216.0	-3417.0	6106.0
27	15	36	11	93	177.0	-198981.0	-3461.0	6038.0
27	15	36	11	94	178.0	-196499.0	-3501.0	6143.0
27	15	36	11	94	202.0	-189022.0	-3312.0	2479.0
27	15	36	11	95	203.0	-191084.0	-3239.0	2511.0
27	15	36	11	96	204.0	-192764.0	-3161.0	2922.0
27	15	36	11	96	205.0	-194016.0	-3101.0	3008.0
27	15	36	11	97	206.0	-194995.0	-3025.0	2536.0
27	15	36	11	97	207.0	-196121.0	-2957.0	2516.0
27	15	36	11	127	208.0	-197675.0	-2867.0	2906.0
27	15	36	11	127	209.0	-199368.0	-2776.0	3098.0
27	15	36	11	128	210.0	-201501.0	-2695.0	2723.0
27	15	36	11	129	211.0	-203591.0	-2609.0	2834.0
27	15	36	11	130	212.0	-205542.0	-2525.0	2708.0
27	15	36	11	130	213.0	-207855.0	-2423.0	3038.0
27	15	36	11	131	214.0	-210479.0	-2348.0	3564.0
27	15	36	11	132	215.0	-213346.0	-2251.0	3783.0
27	15	36	11	133	216.0	-215862.0	-2143.0	3649.0
27	15	36	11	133	217.0	-217371.0	-2046.0	3651.0
27	15	36	11	134	218.0	-218481.0	-1962.0	4231.0
27	15	36	11	135	219.0	-218659.0	-1867.0	4752.0
27	15	36	11	135	220.0	-218585.0	-1761.0	4283.0
27	15	36	11	136	221.0	-218747.0	-1669.0	4368.0
27	15	36	11	137	222.0	-218560.0	-1576.0	4588.0
27	15	36	11	137	224.0	-217043.0	-1374.0	5211.0
27	15	36	11	138	225.0	-216252.0	-1290.0	5291.0
27	15	36	11	139	226.0	-215866.0	-1207.0	5385.0
27	15	36	11	139	227.0	-215803.0	-1118.0	5428.0
27	15	36	11	140	228.0	-215574.0	-1021.0	5850.0
27	15	36	11	141	229.0	-214853.0	-954.0	6229.0
27	15	36	11	141	230.0	-213771.0	-875.0	6062.0
27	15	36	11	218	231.0	-212813.0	-792.0	6048.0
27	15	36	11	219	232.0	-211927.0	-684.0	6489.0
27	15	36	11	221	233.0	-211035.0	-615.0	6843.0
27	15	36	11	221	234.0	-209579.0	-526.0	6846.0
27	15	36	11	222	235.0	-207824.0	-461.0	6757.0
27	15	36	11	223	236.0	-206011.0	-398.0	6823.0
27	15	36	11	224	237.0	-204148.0	-339.0	6818.0
27	15	36	11	224	238.0	-202440.0	-259.0	7083.0
27	15	36	11	225	239.0	-201053.0	-159.0	7163.0
27	15	36	11	226	240.0	-199319.0	-89.0	6925.0
27	15	36	11	226	241.0	-197721.0	-27.0	7191.0
27	15	36	11	227	242.0	-196733.0	34.0	7327.0
27	15	36	11	228	243.0	-196461.0	108.0	7376.0
27	15	36	11	228	244.0	-196028.0	182.0	7216.0
27	15	36	11	229	245.0	-194920.0	268.0	6865.0
27	15	36	11	230	13.0	-183626.0	1764.0	5750.0
27	15	36	11	230	14.0	-183647.0	1834.0	5478.0
27	15	36	11	231	15.0	-184361.0	1886.0	5484.0
27	15	36	11	232	16.0	-186107.0	1920.0	5593.0
27	15	36	11	232	17.0	-189314.0	1978.0	5566.0
27	15	36	11	233	18.0	-193024.0	2039.0	5436.0
27	15	36	11	233	19.0	-196380.0	2096.0	5208.0
27	15	36	11	263	20.0	-199291.0	2146.0	5205.0
27	15	36	11	264	21.0	-201411.0	2180.0	5097.0
27	15	36	11	265	22.0	-202826.0	2225.0	5101.0
27	15	36	11	266	23.0	-203778.0	2278.0	5162.0
27	15	36	11	266	24.0	-204497.0	2321.0	4773.0
27	15	36	11	267	25.0	-204976.0	2351.0	4779.0
27	15	36	11	268	26.0	-206100.0	2394.0	4625.0
27	15	36	11	269	27.0	-206741.0	2446.0	4655.0
27	15	36	11	269	28.0	-206942.0	2493.0	4699.0
27	15	36	11	270	29.0	-207094.0	2516.0	4786.0
27	15	36	11	271	30.0	-207176.0	2539.0	4402.0
27	15	36	11	271	31.0	-207997.0	2572.0	4031.0
27	15	36	11	272	32.0	-208694.0	2577.0	4117.0
27	15	36	11	273	33.0	-208992.0	2599.0	3721.0
27	15	36	11	273	34.0	-209182.0	2641.0	3621.0
27	15	36	11	274	36.0	-209633.0	2686.0	3366.0
27	15	36	11	275	37.0	-209364.0	2700.0	3371.0
27	15	36	11	275	38.0	-209374.0	2721.0	3819.0
27	15	36	11	276	39.0	-209494.0	2720.0	3832.0
27	15	36	11	276	40.0	-209818.0	2728.0	3779.0
27	15	36	11	277	41.0	-210346.0	2753.0	3353.0
27	15	36	11	306	42.0	-210712.0	2748.0	3683.0
27	15	36	11	307	43.0	-210584.0	2750.0	3313.0
27	15	36	11	308	44.0	-210594.0	2756.0	3119.0
27	15	36	11	309	45.0	-211017.0	2770.0	3498.0
27	15	36	11	352	46.0	-211352.0	2759.0	3168.0
27	15	36	11	353	47.0	-211141.0	2737.0	3172.0
27	15	36	11	353	48.0	-210556.0	2749.0	3421.0
27	15	36	11	354	49.0	-209717.0	2756.0	3152.0
27	15	36	11	355	50.0	-208392.0	2748.0	3110.0
27	15	36	11	355	51.0	-206732.0	2738.0	2955.0
27	15	36	11	356	52.0	-205231.0	2731.0	3053.0
27	15	36	11	357	53.0	-203699.0	2720.0	2786.0
27	15	36	11	357	54.0	-202412.0	2700.0	2181.0
27	15	36	11	358	55.0	-201036.0	2691.0	1922.0
27	15	36	11	359	56.0	-199956.0	2683.0	2231.0
27	15	36	11	376	58.0	-198842.0	2639.0	939.0
27	15	36	11	377	59.0	-197518.0	2629.0	601.0
27	15	36	11	378	60.0	-195826.0	2625.0	525.0
27	15	36	11	378	61.0	-194782.0	2601.0	648.0
27	15	36	11	379	81.0	-210208.0	2110.0	-5208.0
27	15	36	11	379	82.0	-210503.0	2083.0	-5644.0
27	15	36	11	380	83.0	-210695.0	2062.0	-6053.0
27	15	36	11	381	84.0	-211237.0	2037.0	-5782.0
27	15	36	11	381	85.0	-211825.0	2033.0	-5645.0
27	15	36	11	382	86.0	-212591.0	1987.0	-5916.0
27	15	36	11	398	87.0	-213023.0	1981.0	-5895.0
27	15	36	11	399	88.0	-214677.0	1958.0	-5858.0
27	15	36	11	400	89.0	-216652.0	1929.0	-5378.0
27	15	36	11	401	90.0	-218057.0	1908.0	-5205.0
27	15	36	11	402	91.0	-219011.0	1891.0	-5036.0
27	15	36	11	402	92.0	-219208.0	1844.0	-4803.0
27	15	36	11	403	93.0	-218797.0	1816.0	-4744.0
27	15	36	11	404	94.0	-217634.0	1807.0	-4569.0
27	15	36	11	404	95.0	-215792.0	1773.0	-4663.0
27	15	36	11	405	96.0	-213557.0	1757.0	-5276.0
27	15	36	11	406	97.0	-211357.0	1743.0	-5349.0
27	15	36	11	406	98.0	-209276.0	1720.0	-5846.0
27	15	36	11	407	99.0	-207517.0	1689.0	-6302.0
27	15	36	11	408	100.0	-206081.0	1657.0	-6327.0
27	15	36	11	408	101.0	-204907.0	1634.0	-5977.0
27	15	36	11	409	103.0	-201196.0	1591.0	-6404.0
27	15	36	11	410	104.0	-199426.0	1553.0	-6248.0
27	15	36	11	410	105.0	-198017.0	1543.0	-5977.0
27	15	36	11	411	106.0	-196246.0	1504.0	-5961.0
27	15	36	11	411	107.0	-194427.0	1479.0	-5553.0
27	15	36	11	412	108.0	-193301.0	1460.0	-5711.0
27	15	36	11	443	109.0	-191869.0	1421.0	-5934.0
27	15	36	11	486	110.0	-190775.0	1394.0	-6050.0
27	15	36	11	487	111.0	-189862.0	1361.0	-5946.0
27	15	36	11	488	112.0	-188987.0	1337.0	-5855.0
27	15	36	11	489	113.0	-188171.0	1309.0	-6230.0
27	15	36	11	489	114.0	-186874.0	1288.0	-6222.0
27	15	36	11	490	115.0	-185685.0	1247.0	-5923.0
27	15	36	11	491	116.0	-184359.0	1225.0	-5563.0
27	15	36	11	491	117.0	-183435.0	1203.0	-4962.0
27	15	36	11	492	118.0	-183136.0	1174.0	-4374.0
27	15	36	11	493	119.0	-183016.0	1139.0	-4484.0
27	15	36	11	494	120.0	-182607.0	1108.0	-4720.0
27	15	36	11	494	121.0	-181600.0	1077.0	-5141.0
27	15	36	11	495	122.0	-180439.0	1057.0	-5209.0
27	15	36	11	496	123.0	-179133.0	1009.0	-5242.0
27	15	36	11	496	125.0	-178005.0	952.0	-6002.0
27	15	36	11	497	148.0	-207577.0	10.0	8422.0
27	15	36	11	498	149.0	-209396.0	-36.0	6406.0
27	15	36	11	498	150.0	-211099.0	-82.0	4872.0
27	15	36	11	499	151.0	-213124.0	-132.0	3747.0
27	15	36	11	499	152.0	-214888.0	-187.0	1736.0
27	15	36	11	500	153.0	-215922.0	-231.0	-522.0
27	15	36	11	532	154.0	-216719.0	-267.0	-1644.0
27	15	36	11	533	155.0	-217364.0	-316.0	-3016.0
27	15	36	11	534	156.0	-217752.0	-367.0	-5042.0
27	15	36	11	535	157.0	-217223.0	-409.0	-7692.0
27	15	36	11	535	158.0	-216512.0	-462.0	-10531.0
27	15	36	11	536	159.0	-215548.0	-496.0	-12325.0
27	15	36	11	537	160.0	-210019.0	-532.0	-13192.0
27	15	36	11	538	161.0	-200098.0	-597.0	-13772.0
27	15	36	11	538	162.0	-186983.0	-617.0	-14608.0
27	15	36	11	539	163.0	-172469.0	-646.0	-14972.0
27	15	36	11	540	164.0	-161206.0	-691.0	-15341.0
27	15	36	11	540	165.0	-155722.0	-734.0	-15701.0
27	15	36	11	541	166.0	-155236.0	-782.0	-15951.0
27	15	36	11	542	167.0	-161386.0	-832.0	-16202.0
27	15	36	11	542	168.0	-175999.0	-871.0	-16713.0
27	15	36	11	543	170.0	-223940.0	-943.0	-16392.0
27	15	36	11	544	171.0	-251321.0	-1004.0	-16161.0
27	15	36	11	544	172.0	-276905.0	-1064.0	-16176.0
27	15	36	11	545	173.0	-292957.0	-1086.0	-16420.0
27	15	36	11	546	174.0	-301060.0	-1118.0	-16769.0
27	15	36	11	546	175.0	-306487.0	-1169.0	-16312.0
27	15	36	11	547	176.0	-300175.0	-1210.0	-16254.0
27	15	36	11	577	177.0	-275131.0	-1251.0	-16792.0
27	15	36	11	578	178.0	-237345.0	-1285.0	-17234.0
27	15	36	11	579	179.0	-198059.0	-1334.0	-17011.0
27	15	36	11	579	180.0	-165063.0	-1378.0	-17049.0
27	15	36	11	580	181.0	-141746.0	-1419.0	-17505.0
27	15	36	11	581	182.0	-129075.0	-1469.0	-17924.0
27	15	36	11	581	183.0	-125994.0	-1507.0	-17804.0
27	15	36	11	582	184.0	-131166.0	-1544.0	-17989.0
27	15	36	11	583	185.0	-143384.0	-1597.0	-18439.0
27	15	36	11	584	186.0	-161477.0	-1630.0	-18631.0
27	15	36	11	584	187.0	-181531.0	-1674.0	-18642.0
27	15	36	11	585	188.0	-199301.0	-1722.0	-18654.0
27	15	36	11	586	189.0	-211734.0	-1775.0	-18983.0
27	15	36	11	587	190.0	-218478.0	-1815.0	-19125.0
27	15	36	11	587	191.0	-221162.0	-1861.0	-19408.0
27	15	36	11	588	193.0	-216989.0	-1964.0	-19793.0
27	15	36	11	589	194.0	-210662.0	-1997.0	-19756.0
27	15	36	11	589	195.0	-203158.0	-2037.0	-19755.0
27	15	36	11	590	196.0	-195437.0	-2086.0	-19692.0
27	15	36	11	591	197.0	-188894.0	-2140.0	-20001.0
27	15	36	11	591	198.0	-184393.0	-2184.0	-20542.0
27	15	36	11	622	199.0	-183090.0	-2250.0	-20651.0
27	15	36	11	622	200.0	-184878.0	-2291.0	-20732.0
27	15	36	11	623	201.0	-187560.0	-2334.0	-20684.0
27	15	36	11	624	202.0	-192007.0	-2369.0	-21127.0
27	15	36	11	625	203.0	-196680.0	-2420.0	-22213.0
27	15	36	11	626	204.0	-200289.0	-2481.0	-22332.0
27	15	36	11	627	205.0	-203195.0	-2525.0	-22111.0
27	15	36	11	627	206.0	-204594.0	-2574.0	-22374.0
27	15	36	11	628	207.0	-204105.0	-2621.0	-22761.0
27	15	36	11	629	208.0	-201618.0	-2672.0	-23357.0
27	15	36	11	630	209.0	-197914.0	-2714.0	-23776.0
27	15	36	11	631	210.0	-194100.0	-2759.0	-23786.0
27	15	36	11	631	211.0	-189959.0	-2799.0	-24405.0
27	15	36	11	632	212.0	-186301.0	-2853.0	-24829.0
27	15	36	11	633	213.0	-182836.0	-2900.0	-25052.0
27	15	36	11	633	215.0	-177311.0	-2989.0	-25696.0
27	15	36	11	634	216.0	-175607.0	-3037.0	-25794.0
27	15	36	11	634	217.0	-173854.0	-3104.0	-25751.0
27	15	36	11	635	218.0	-172441.0	-3158.0	-26212.0
27	15	36	11	636	219.0	-171402.0	-3199.0	-26252.0
27	15	36	11	636	220.0	-171215.0	-3249.0	-26696.0
27	15	36	11	637	221.0	-172551.0	-3296.0	-27332.0
27	15	36	11	666	222.0	-174098.0	-3329.0	-27504.0
27	15	36	11	667	223.0	-175815.0	-3379.0	-27791.0
27	15	36	11	668	224.0	-177536.0	-3425.0	-27522.0
27	15	36	11	669	225.0	-179981.0	-3468.0	-27680.0
27	15	36	11	670	226.0	-182165.0	-3501.0	-27664.0
27	15	36	11	670	227.0	-183612.0	-3550.0	-27531.0
27	15	36	11	671	228.0	-184975.0	-3607.0	-27454.0
27	15	36	11	672	229.0	-186354.0	-3649.0	-27416.0
27	15	36	11	672	230.0	-186751.0	-3671.0	-27604.0
27	15	36	11	673	231.0	-186114.0	-3716.0	-27511.0
27	15	36	11	674	232.0	-185271.0	-3762.0	-27818.0
27	15	36	11	674	233.0	-184494.0	-3793.0	-27857.0
27	15	36	11	675	234.0	-183602.0	-3819.0	-27689.0
27	15	36	11	676	235.0	-182768.0	-3853.0	-27614.0
27	15	36	11	676	236.0	-181315.0	-3890.0	-27907.0
27	15	36	11	677	238.0	-178312.0	-3931.0	-28494.0
27	15	36	11	678	239.0	-177944.0	-3946.0	-28843.0
27	15	36	11	678	240.0	-178679.0	-3973.0	-29056.0
27	15	36	11	679	241.0	-179993.0	-3984.0	-29372.0
27	15	36	11	680	242.0	-182156.0	-3996.0	-29280.0
27	15	36	11	680	243.0	-184306.0	-3998.0	-28197.0
27	15	36	11	712	244.0	-187627.0	-3979.0	-28227.0
27	15	36	11	712	245.0	-191434.0	-3973.0	-28899.0
27	15	36	11	713	246.0	-195017.0	-3959.0	-29089.0
27	15	36	11	714	247.0	-198909.0	-3946.0	-29242.0
27	15	36	11	714	248.0	-202124.0	-3928.0	-29311.0
27	15	36	11	715	249.0	-204997.0	-3904.0	-29542.0
27	15	36	11	715	250.0	-208044.0	-3891.0	-29508.0
27	15	36	11	716	251.0	-210578.0	-3864.0	-29221.0
27	15	36	11	716	252.0	-212324.0	-3820.0	-29419.0
27	15	36	11	717	253.0	-214211.0	-3757.0	-29714.0
27	15	36	11	718	254.0	-216817.0	-3717.0	-29322.0
27	15	36	11	718	255.0	-219167.0	-3661.0	-29146.0
27	15	36	11	719	0.0	-221267.0	-3595.0	-29645.0
27	15	36	11	719	1.0	-223595.0	-3528.0	-29846.0
27	15	36	11	720	2.0	-225766.0	-3484.0	-29806.0
27	15	36	11	721	4.0	-227579.0	-3328.0	-29499.0
27	15	36	11	721	5.0	-228087.0	-3234.0	-29596.0
27	15	36	11	722	6.0	-228427.0	-3156.0	-29922.0
27	15	36	11	722	7.0	-228214.0	-3090.0	-30251.0
27	15	36	11	723	8.0	-226980.0	-3012.0	-29787.0
27	15	36	11	723	9.0	-225387.0	-2898.0	-29525.0
27	15	36	11	757	10.0	-224199.0	-2801.0	-29560.0
27	15	36	11	758	11.0	-222456.0	-2709.0	-29829.0
27	15	36	11	758	12.0	-220257.0	-2607.0	-29464.0
27	15	36	11	759	13.0	-217585.0	-2512.0	-28977.0
27	15	36	11	760	14.0	-214322.0	-2409.0	-29241.0
27	15	36	11	760	15.0	-210973.0	-2315.0	-29589.0
27	15	36	11	761	16.0	-207702.0	-2207.0	-29459.0
27	15	36	11	762	17.0	-204369.0	-2094.0	-29062.0
27	15	36	11	762	18.0	-200797.0	-1962.0	-28876.0
27	15	36	11	763	19.0	-197186.0	-1845.0	-28402.0
27	15	36	11	764	20.0	-193716.0	-1752.0	-28491.0
27	15	36	11	764	21.0	-190972.0	-1632.0	-28543.0
27	15	36	11	765	22.0	-188815.0	-1500.0	-27987.0
27	15	36	11	765	23.0	-186727.0	-1408.0	-27797.0
27	15	36	11	766	24.0	-185522.0	-1302.0	-27660.0
27	15	36	11	767	26.0	-184513.0	-1093.0	-27618.0
27	15	36	11	767	27.0	-183787.0	-974.0	-27285.0
27	15	36	11	768	28.0	-182342.0	-881.0	-27266.0
27	15	36	11	769	29.0	-181792.0	-776.0	-27272.0
27	15	36	11	769	30.0	-181872.0	-664.0	-26855.0
27	15	36	11	770	31.0	-182310.0	-556.0	-26288.0
27	15	36	11	770	32.0	-182947.0	-452.0	-25461.0
27	15	36	11	848	33.0	-183975.0	-350.0	-25536.0
27	15	36	11	848	34.0	-184758.0	-249.0	-25242.0
27	15	36	11	849	35.0	-185355.0	-137.0	-25178.0
27	15	36	11	850	36.0	-185782.0	-56.0	-24882.0
27	15	36	11	850	37.0	-185388.0	23.0	-24433.0
27	15	36	11	852	38.0	-185314.0	116.0	-24272.0
27	15	36	11	853	39.0	-185800.0	227.0	-23690.0
27	15	36	11	853	40.0	-186426.0	310.0	-23160.0
27	15	36	11	854	41.0	-187251.0	394.0	-22876.0
27	15	36	11	855	42.0	-188256.0	476.0	-22377.0
27	15	36	11	855	43.0	-189397.0	572.0	-21941.0
27	15	36	11	856	44.0	-190097.0	662.0	-21733.0
27	15	36	11	856	45.0	-191151.0	747.0	-21873.0
27	15	36	11	857	46.0	-192469.0	836.0	-21753.0
27	15	36	11	857	47.0	-193661.0	924.0	-21127.0
27	15	36	11	858	71.0	-145129.0	2731.0	-20535.0
27	15	36	11	859	72.0	-155526.0	2808.0	-20201.0
27	15	36	11	859	73.0	-168722.0	2872.0	-20061.0
27	15	36	11	860	74.0	-182656.0	2965.0	-20253.0
27	15	36	11	893	75.0	-195654.0	3026.0	-20331.0
27	15	36	11	894	76.0	-207714.0	3083.0	-19827.0
27	15	36	11	894	77.0	-218266.0	3146.0	-19786.0
27	15	36	11	895	78.0	-228421.0	3197.0	-19757.0
27	15	36	11	896	79.0	-237349.0	3268.0	-19496.0
27	15	36	11	896	80.0	-245259.0	3341.0	-19407.0
27	15	36	11	897	81.0	-250654.0	3401.0	-19246.0
27	15	36	11	897	82.0	-254670.0	3457.0	-18864.0
27	15	36	11	898	83.0	-258236.0	3508.0	-18844.0
27	15	36	11	899	84.0	-261216.0	3573.0	-18639.0
27	15	36	11	899	85.0	-264202.0	3616.0	-18540.0
27	15	36	11	900	86.0	-268034.0	3669.0	-18569.0
27	15	36	11	901	87.0	-272961.0	3719.0	-17976.0
27	15	36	11	901	88.0	-278192.0	3777.0	-17992.0
27	15	36	11	902	89.0	-284045.0	3823.0	-17896.0
27	15	36	11	902	94.0	-318662.0	4013.0	-17386.0
27	15	36	11	903	95.0	-325609.0	4058.0	-17401.0
27	15	36	11	903	96.0	-331219.0	4088.0	-17427.0
27	15	36	11	904	97.0	-335555.0	4114.0	-16997.0
27	15	36	11	904	98.0	-337758.0	4140.0	-16932.0
27	15	36	11	905	99.0	-336920.0	4172.0	-16442.0
27	15	36	11	936	100.0	-332502.0	4179.0	-15965.0
27	15	36	11	937	101.0	-324844.0	4196.0	-16579.0
27	15	36	11	982	102.0	-315204.0	4206.0	-16452.0
27	15	36	11	983	103.0	-303866.0	4217.0	-15757.0
27	15	36	11	984	104.0	-290784.0	4219.0	-15521.0
27	15	36	11	984	105.0	-275988.0	4229.0	-15689.0
27	15	36	11	985	106.0	-260165.0	4231.0	-15488.0
27	15	36	11	986	107.0	-243491.0	4234.0	-15539.0
27	15	36	11	986	108.0	-225908.0	4235.0	-15589.0
27	15	36	11	987	109.0	-207242.0	4232.0	-15355.0
27	15	36	11	987	110.0	-188111.0	4223.0	-15082.0
27	15	36	11	988	111.0	-169706.0	4217.0	-14677.0
27	15	36	11	989	112.0	-153596.0	4198.0	-13712.0
27	15	36	11	989	113.0	-140125.0	4196.0	-12834.0
27	15	36	11	990	114.0	-129139.0	4196.0	-12267.0
27	15	36	11	990	116.0	-110809.0	4161.0	-11738.0
27	15	36	11	991	117.0	-100574.0	4164.0	-11312.0
27	15	36	11	992	139.0	-106189.0	3346.0	2783.0
27	15	36	11	992	140.0	-113698.0	3322.0	5279.0
27	15	36	11	993	141.0	-122647.0	3282.0	6422.0
27	15	36	11	993	142.0	-132960.0	3218.0	7104.0
27	15	36	11	994	143.0	-144655.0	3166.0	7425.0
27	15	36	11	994	144.0	-157312.0	3124.0	8113.0
27	15	36	12	28	145.0	-170718.0	3073.0	8478.0
27	15	36	12	29	146.0	-184783.0	3028.0	8722.0
27	15	36	12	29	147.0	-199283.0	2984.0	9028.0
27	15	36	12	30	148.0	-214563.0	2937.0	9919.0
27	15	36	12	31	149.0	-231305.0	2887.0	10668.0
27	15	36	12	31	150.0	-249147.0	2837.0	10589.0
27	15	36	12	32	151.0	-267418.0	2803.0	10965.0
27	15	36	12	32	152.0	-286459.0	2743.0	12108.0
27	15	36	12	33	153.0	-305711.0	2706.0	11572.0
27	15	36	12	34	154.0	-324771.0	2653.0	11644.0
27	15	36	12	34	155.0	-343776.0	2607.0	12028.0
27	15	36	12	35	156.0	-362525.0	2559.0	12299.0
27	15	36	12	35	157.0	-379731.0	2529.0	12786.0
27	15	36	12	36	158.0	-395793.0	2478.0	12905.0
27	15	36	12	37	159.0	-410379.0	2427.0	13133.0
27	15	36	12	37	161.0	-431979.0	2377.0	13169.0
27	15	36	12	38	162.0	-436087.0	2334.0	14053.0
27	15	36	12	38	163.0	-434599.0	2276.0	14618.0
27	15	36	12	39	164.0	-427119.0	2244.0	14176.0
27	15	36	12	40	165.0	-414418.0	2198.0	14552.0
27	15	36	12	40	166.0	-397992.0	2158.0	15103.0
27	15	36	12	72	167.0	-377875.0	2124.0	15443.0
27	15	36	12	72	168.0	-355409.0	2078.0	15766.0
27	15	36	12	117	169.0	-332058.0	2042.0	16041.0
27	15	36	12	118	170.0	-309564.0	2022.0	16326.0
27	15	36	12	118	171.0	-288130.0	1978.0	16607.0
27	15	36	12	119	172.0	-265022.0	1951.0	16348.0
27	15	36	12	119	173.0	-239066.0	1919.0	16373.0
27	15	36	12	120	174.0	-209210.0	1880.0	17001.0
27	15	36	12	121	175.0	-176019.0	1824.0	17531.0
27	15	36	12	121	176.0	-144301.0	1804.0	18413.0
27	15	36	12	122	177.0	-116807.0	1784.0	18664.0
27	15	36	12	123	178.0	-94132.0	1756.0	18512.0
27	15	36	12	123	179.0	-75461.0	1728.0	18781.0
27	15	36	12	124	180.0	-59791.0	1698.0	19347.0
27	15	36	12	124	181.0	-46202.0	1654.0	19435.0
27	15	36	12	125	184.0	-17146.0	1538.0	19699.0
27	15	36	12	126	185.0	-12829.0	1494.0	19833.0
27	15	36	12	126	186.0	-11987.0	1455.0	19983.0
27	15	36	12	127	206.0	-236307.0	466.0	24391.0
27	15	36	12	127	207.0	-242487.0	412.0	24469.0
27	15	36	12	128	208.0	-247570.0	369.0	24724.0
27	15	36	12	129	209.0	-252012.0	303.0	24398.0
27	15	36	12	129	210.0	-255937.0	242.0	23614.0
27	15	36	12	130	211.0	-259009.0	193.0	23515.0
27	15	36	12	130	212.0	-262432.0	129.0	22906.0
27	15	36	12	162	213.0	-265726.0	70.0	23280.0
27	15	36	12	163	214.0	-268122.0	21.0	25918.0
27	15	36	12	164	215.0	-269776.0	-44.0	30979.0
27	15	36	12	164	216.0	-270714.0	-112.0	36247.0
27	15	36	12	165	217.0	-271317.0	-158.0	40356.0
27	15	36	12	166	218.0	-271357.0	-216.0	44429.0
27	15	36	12	166	219.0	-271251.0	-270.0	48109.0
27	15	36	12	167	220.0	-271716.0	-324.0	50529.0
27	15	36	12	167	221.0	-272899.0	-395.0	51529.0
27	15	36	12	168	222.0	-274524.0	-469.0	51635.0
27	15	36	12	169	223.0	-276197.0	-519.0	49983.0
27	15	36	12	169	224.0	-278323.0	-565.0	48370.0
27	15	36	12	170	225.0	-280814.0	-613.0	46253.0
27	15	36	12	171	226.0	-283304.0	-667.0	44054.0
27	15	36	12	171	227.0	-286312.0	-720.0	43087.0
27	15	36	12	172	228.0	-290041.0	-789.0	42220.0
27	15	36	12	172	229.0	-294102.0	-838.0	40258.0
27	15	36	12	173	230.0	-297336.0	-892.0	37579.0
27	15	36	12	174	231.0	-299559.0	-942.0	35875.0
27	15	36	12	174	232.0	-300737.0	-986.0	33803.0
27	15	36	12	175	233.0	-300699.0	-1034.0	31385.0
27	15	36	12	175	234.0	-298406.0	-1079.0	28643.0
27	15	36	12	253	235.0	-293662.0	-1132.0	26490.0
27	15	36	12	254	236.0	-283671.0	-1201.0	25196.0
27	15	36	12	254	237.0	-267191.0	-1249.0	24568.0
27	15	36	12	255	238.0	-247539.0	-1295.0	24041.0
27	15	36	12	256	239.0	-225295.0	-1326.0	23368.0
27	15	36	12	256	240.0	-205207.0	-1377.0	22879.0
27	15	36	12	258	241.0	-189780.0	-1445.0	22806.0
27	15	36	12	259	242.0	-178333.0	-1501.0	23121.0
27	15	36	12	259	243.0	-172262.0	-1527.0	23041.0
27	15	36	12	260	244.0	-171251.0	-1552.0	23006.0
27	15	36	12	261	245.0	-174534.0	-1594.0	22866.0
27	15	36	12	261	246.0	-180797.0	-1661.0	22633.0
27	15	36	12	262	247.0	-188162.0	-1712.0	22464.0
27	15	36	12	263	248.0	-195325.0	-1756.0	22569.0
27	15	36	12	263	249.0	-200875.0	-1814.0	22411.0
27	15	36	12	264	17.0	-188032.0	-2963.0	15927.0
27	15	36	12	264	18.0	-192009.0	-3017.0	15612.0
27	15	36	12	265	19.0	-196681.0	-3059.0	15429.0
27	15	36	12	266	20.0	-201598.0	-3099.0	15361.0
27	15	36	12	266	21.0	-206192.0	-3164.0	15234.0
27	15	36	12	267	22.0	-209852.0	-3221.0	14648.0
27	15	36	12	267	23.0	-210196.0	-3273.0	14026.0
27	15	36	12	298	24.0	-212799.0	-3302.0	13783.0
27	15	36	12	298	25.0	-216470.0	-3369.0	13260.0
27	15	36	12	299	26.0	-222787.0	-3410.0	12578.0
27	15	36	12	299	27.0	-228234.0	-3464.0	12298.0
27	15	36	12	300	28.0	-232851.0	-3508.0	11988.0
27	15	36	12	301	29.0	-236271.0	-3551.0	11618.0
27	15	36	12	301	30.0	-238436.0	-3604.0	11016.0
27	15	36	12	302	31.0	-240045.0	-3656.0	10163.0
27	15	36	12	303	32.0	-240547.0	-3707.0	9949.0
27	15	36	12	303	33.0	-240061.0	-3774.0	9431.0
27	15	36	12	304	34.0	-239577.0	-3811.0	8442.0
27	15	36	12	305	35.0	-239387.0	-3857.0	7841.0
27	15	36	12	305	36.0	-238820.0	-3913.0	7513.0
27	15	36	12	306	37.0	-238282.0	-3987.0	7308.0
27	15	36	12	306	38.0	-237606.0	-4049.0	6605.0
27	15	36	12	307	40.0	-236666.0	-4144.0	5050.0
27	15	36	12	308	41.0	-236844.0	-4209.0	4816.0
27	15	36	12	308	42.0	-237406.0	-4267.0	4721.0
27	15	36	12	309	43.0	-237315.0	-4320.0	4243.0
27	15	36	12	309	44.0	-236903.0	-4372.0	3680.0
27	15	36	12	310	45.0	-236354.0	-4426.0	3277.0
27	15	36	12	389	46.0	-235883.0	-4467.0	2776.0
27	15	36	12	390	47.0	-235239.0	-4529.0	1811.0
27	15	36	12	390	48.0	-233869.0	-4583.0	1582.0
27	15	36	12	391	49.0	-231865.0	-4637.0	1143.0
27	15	36	12	392	50.0	-229692.0	-4682.0	350.0
27	15	36	12	392	51.0	-227275.0	-4725.0	-159.0
27	15	36	12	393	52.0	-224172.0	-4761.0	-546.0
27	15	36	12	394	53.0	-221041.0	-4802.0	-1281.0
27	15	36	12	394	54.0	-216965.0	-4845.0	-1869.0
27	15	36	12	395	55.0	-211884.0	-4879.0	-2831.0
27	15	36	12	395	56.0	-206252.0	-4924.0	-3342.0
27	15	36	12	396	57.0	-201152.0	-4957.0	-3667.0
27	15	36	12	397	58.0	-196492.0	-4977.0	-4180.0
27	15	36	12	397	59.0	-192226.0	-4999.0	-4522.0
27	15	36	12	398	60.0	-188857.0	-5031.0	-5021.0
27	15	36	12	398	85.0	-156379.0	-3863.0	-8356.0
27	15	36	12	399	86.0	-155559.0	-3767.0	-8354.0
27	15	36	12	399	87.0	-155121.0	-3661.0	-8390.0
27	15	36	12	400	88.0	-154438.0	-3566.0	-8488.0
27	15	36	12	401	89.0	-154326.0	-3453.0	-8636.0
27	15	36	12	401	90.0	-154981.0	-3360.0	-8665.0
27	15	36	12	432	91.0	-155731.0	-3250.0	-8296.0
27	15	36	12	433	92.0	-156648.0	-3132.0	-8376.0
27	15	36	12	434	93.0	-157715.0	-3010.0	-7885.0
27	15	36	12	434	94.0	-158963.0	-2916.0	-7991.0
27	15	36	12	435	95.0	-160661.0	-2814.0	-8214.0
27	15	36	12	436	96.0	-162721.0	-2697.0	-8095.0
27	15	36	12	436	97.0	-164929.0	-2596.0	-8037.0
27	15	36	12	437	98.0	-167739.0	-2478.0	-8674.0
27	15	36	12	438	99.0	-171317.0	-2356.0	-8685.0
27	15	36	12	438	100.0	-175426.0	-2249.0	-8764.0
27	15	36	12	439	101.0	-179569.0	-2149.0	-8620.0
27	15	36	12	440	102.0	-183449.0	-2046.0	-9059.0
27	15	36	12	440	103.0	-187061.0	-1944.0	-8582.0
27	15	36	12	441	104.0	-190543.0	-1824.0	-7719.0
27	15	36	12	442	105.0	-194097.0	-1732.0	-7469.0
27	15	36	12	442	107.0	-201879.0	-1516.0	-7762.0
27	15	36	12	443	108.0	-205782.0	-1409.0	-7825.0
27	15	36	12	443	109.0	-209314.0	-1317.0	-8808.0
27	15	36	12	444	110.0	-212885.0	-1226.0	-9828.0
27	15	36	12	444	111.0	-216628.0	-1137.0	-10376.0
27	15	36	12	445	112.0	-219791.0	-1054.0	-10361.0
27	15	36	12	478	113.0	-221987.0	-954.0	-10716.0
27	15	36	12	479	114.0	-223463.0	-864.0	-11641.0
27	15	36	12	479	115.0	-224227.0	-782.0	-11903.0
27	15	36	12	480	116.0	-224043.0	-694.0	-12594.0
27	15	36	12	481	117.0	-222787.0	-601.0	-12456.0
27	15	36	12	481	118.0	-221027.0	-517.0	-11989.0
27	15	36	12	482	119.0	-219203.0	-439.0	-11626.0
27	15	36	12	483	120.0	-217516.0	-359.0	-11653.0
27	15	36	12	483	121.0	-215911.0	-281.0	-11407.0
27	15	36	12	484	122.0	-214734.0	-202.0	-10845.0
27	15	36	12	485	123.0	-214217.0	-124.0	-10381.0
27	15	36	12	485	124.0	-214330.0	-46.0	-10246.0
27	15	36	12	486	125.0	-214363.0	51.0	-10157.0
27	15	36	12	487	126.0	-213564.0	137.0	-9799.0
27	15	36	12	488	127.0	-211722.0	208.0	-9596.0
27	15	36	12	488	129.0	-204773.0	363.0	-9438.0
27	15	36	12	489	130.0	-198726.0	426.0	-9203.0
27	15	36	12	490	131.0	-189439.0	495.0	-8499.0
27	15	36	12	490	132.0	-175084.0	573.0	-7711.0
27	15	36	12	491	133.0	-158941.0	640.0	-7430.0
27	15	36	12	491	134.0	-151408.0	717.0	-7612.0
27	15	36	12	492	135.0	-155712.0	795.0	-6978.0
27	15	36	12	523	136.0	-162853.0	870.0	-6812.0
27	15	36	12	523	137.0	-168224.0	944.0	-6621.0
27	15	36	12	524	138.0	-169327.0	1006.0	-6426.0
27	15	36	12	525	139.0	-170341.0	1078.0	-6694.0
27	15	36	12	525	140.0	-169741.0	1153.0	-6483.0
27	15	36	12	526	141.0	-169751.0	1219.0	-6316.0
27	15	36	12	527	142.0	-173457.0	1298.0	-6170.0
27	15	36	12	528	143.0	-175938.0	1371.0	-5994.0
27	15	36	12	528	144.0	-177372.0	1441.0	-4794.0
27	15	36	12	529	145.0	-178975.0	1503.0	-3702.0
27	15	36	12	530	146.0	-181019.0	1563.0	-2755.0
27	15	36	12	530	147.0	-183779.0	1649.0	-2377.0
27	15	36	12	531	148.0	-187594.0	1725.0	-2017.0
27	15	36	12	532	149.0	-193303.0	1789.0	-1663.0
27	15	36	12	532	150.0	-200843.0	1866.0	-1742.0
27	15	36	12	533	152.0	-214660.0	1973.0	-807.0
27	15	36	12	533	153.0	-221034.0	2061.0	-62.0
27	15	36	12	534	154.0	-226617.0	2108.0	75.0
27	15	36	12	535	155.0	-230916.0	2182.0	-143.0
27	15	36	12	535	156.0	-233846.0	2249.0	389.0
27	15	36	12	536	157.0	-234876.0	2313.0	579.0
27	15	36	12	567	158.0	-235424.0	2363.0	541.0
27	15	36	12	568	159.0	-235362.0	2431.0	1225.0
27	15	36	12	569	160.0	-234534.0	2481.0	1642.0
27	15	36	12	570	161.0	-232942.0	2551.0	1660.0
27	15	36	12	570	162.0	-230814.0	2608.0	1854.0
27	15	36	12	571	163.0	-230023.0	2654.0	2654.0
27	15	36	12	572	164.0	-230684.0	2709.0	2511.0
27	15	36	12	573	165.0	-232777.0	2761.0	3067.0
27	15	36	12	574	166.0	-236658.0	2803.0	3684.0
27	15	36	12	575	167.0	-242169.0	2849.0	3885.0
27	15	36	12	575	168.0	-247384.0	2897.0	3866.0
27	15	36	12	576	169.0	-252238.0	2952.0	3491.0
27	15	36	12	577	170.0	-256459.0	2993.0	3749.0
27	15	36	12	577	171.0	-259626.0	3022.0	4341.0
27	15	36	12	578	172.0	-262234.0	3064.0	4398.0
27	15	36	12	578	174.0	-263552.0	3136.0	4224.0
27	15	36	12	579	175.0	-262404.0	3143.0	3788.0
27	15	36	12	580	176.0	-259602.0	3179.0	3432.0
27	15	36	12	580	177.0	-255407.0	3201.0	3719.0
27	15	36	12	581	178.0	-250187.0	3215.0	3778.0
27	15	36	12	581	179.0	-244264.0	3251.0	3158.0
27	15	36	12	582	180.0	-237565.0	3253.0	2781.0
27	15	36	12	611	181.0	-230406.0	3251.0	3157.0
27	15	36	12	613	182.0	-223148.0	3265.0	3111.0
27	15	36	12	614	183.0	-215594.0	3257.0	2889.0
27	15	36	12	614	184.0	-208388.0	3268.0	2832.0
27	15	36	12	615	185.0	-202052.0	3286.0	3098.0
27	15	36	12	616	186.0	-196438.0	3271.0	3248.0
27	15	36	12	616	187.0	-191594.0	3255.0	3154.0
27	15	36	12	617	188.0	-187931.0	3248.0	3009.0
27	15	36	12	618	189.0	-184898.0	3238.0	2939.0
27	15	36	12	618	190.0	-182397.0	3233.0	2461.0
27	15	36	12	619	191.0	-179844.0	3232.0	2951.0
27	15	36	12	620	192.0	-177282.0	3208.0	3246.0
27	15	36	12	620	193.0	-174730.0	3202.0	2978.0
27	15	36	12	621	194.0	-172501.0	3185.0	3089.0
27	15	36	12	622	195.0	-170681.0	3160.0	2943.0
27	15	36	12	622	197.0	-168952.0	3111.0	3073.0
27	15	36	12	623	198.0	-168754.0	3099.0	2982.0
27	15	36	12	624	199.0	-169692.0	3073.0	2804.0
27	15	36	12	624	200.0	-171551.0	3050.0	2931.0
27	15	36	12	625	201.0	-174222.0	3029.0	3097.0
27	15	36	12	625	202.0	-177849.0	3016.0	2619.0
27	15	36	12	657	203.0	-181899.0	2972.0	2453.0
27	15	36	12	658	204.0	-186511.0	2947.0	2338.0
27	15	36	12	659	205.0	-192137.0	2929.0	2609.0
27	15	36	12	659	206.0	-197416.0	2901.0	2271.0
27	15	36	12	660	207.0	-202148.0	2888.0	2119.0
27	15	36	12	661	208.0	-206517.0	2853.0	2669.0
27	15	36	12	661	209.0	-210790.0	2827.0	2551.0
27	15	36	12	662	210.0	-215064.0	2798.0	2203.0
27	15	36	12	663	211.0	-218922.0	2773.0	1893.0
27	15	36	12	663	212.0	-222371.0	2751.0	1796.0
27	15	36	12	664	213.0	-225190.0	2703.0	1686.0
27	15	36	12	665	214.0	-227624.0	2670.0	1206.0
27	15	36	12	666	215.0	-229767.0	2666.0	1468.0
27	15	36	12	666	216.0	-231121.0	2646.0	1494.0
27	15	36	12	667	217.0	-231914.0	2614.0	868.0
27	15	36	12	668	219.0	-232002.0	2531.0	738.0
27	15	36	12	668	220.0	-231190.0	2507.0	801.0
27	15	36	12	669	221.0	-230394.0	2484.0	341.0
27	15	36	12	669	222.0	-229364.0	2458.0	303.0
27	15	36	12	670	223.0	-227666.0	2422.0	243.0
27	15	36	12	671	224.0	-224856.0	2381.0	195.0
27	15	36	12	671	225.0	-221391.0	2358.0	-253.0
27	15	36	12	702	226.0	-218019.0	2338.0	-346.0
27	15	36	12	747	227.0	-215153.0	2307.0	-119.0
27	15	36	12	748	228.0	-212335.0	2280.0	-477.0
27	15	36	12	748	229.0	-208889.0	2254.0	-730.0
27	15	36	12	749	230.0	-205401.0	2218.0	-880.0
27	15	36	12	750	231.0	-202094.0	2203.0	-1306.0
27	15	36	12	750	232.0	-198939.0	2149.0	-1632.0
27	15	36	12	751	233.0	-196809.0	2115.0	-1332.0
27	15	36	12	752	234.0	-196964.0	2107.0	-1389.0
27	15	36	12	753	235.0	-199875.0	2076.0	-1451.0
27	15	36	12	753	236.0	-202438.0	2044.0	-1356.0
27	15	36	12	754	237.0	-201989.0	2013.0	-1761.0
27	15	36	12	755	238.0	-199706.0	1982.0	-2136.0
27	15	36	12	755	239.0	-196662.0	1946.0	-2407.0
27	15	36	12	756	240.0	-191799.0	1920.0	-2524.0
27	15	36	12	757	242.0	-180371.0	1843.0	-2180.0
27	15	36	12	757	8.0	-229674.0	999.0	-1249.0
27	15	36	12	758	9.0	-232020.0	949.0	-1079.0
27	15	36	12	759	10.0	-233394.0	916.0	-1221.0
27	15	36	12	759	11.0	-233798.0	866.0	-1184.0
27	15	36	12	760	12.0	-233700.0	835.0	-1016.0
27	15	36	12	761	13.0	-233433.0	785.0	-516.0
27	15	36	12	794	14.0	-232233.0	732.0	-215.0
27	15	36	12	795	15.0	-229712.0	678.0	-112.0
27	15	36	12	796	16.0	-226311.0	631.0	-221.0
27	15	36	12	796	17.0	-222271.0	589.0	-327.0
27	15	36	12	797	18.0	-217643.0	534.0	-212.0
27	15	36	12	798	19.0	-212069.0	469.0	424.0
27	15	36	12	799	20.0	-205858.0	420.0	993.0
27	15	36	12	800	21.0	-199139.0	381.0	676.0
27	15	36	12	800	22.0	-192289.0	347.0	333.0
27	15	36	12	801	23.0	-185763.0	307.0	366.0
27	15	36	12	802	24.0	-180206.0	245.0	616.0
27	15	36	12	803	25.0	-175692.0	188.0	1246.0
27	15	36	12	803	26.0	-172216.0	138.0	1464.0
27	15	36	12	804	27.0	-169618.0	85.0	1278.0
27	15	36	12	804	28.0	-167836.0	53.0	1134.0
27	15	36	12	805	30.0	-165584.0	-56.0	1606.0
27	15	36	12	806	31.0	-164935.0	-97.0	1381.0
27	15	36	12	806	32.0	-164513.0	-151.0	858.0
27	15	36	12	807	33.0	-165222.0	-203.0	1123.0
27	15	36	12	807	34.0	-167410.0	-241.0	1406.0
27	15	36	12	808	35.0	-169885.0	-296.0	1117.0
27	15	36	12	809	36.0	-172097.0	-362.0	1215.0
27	15	36	12	837	37.0	-174350.0	-416.0	1061.0
27	15	36	12	837	38.0	-176524.0	-447.0	232.0
27	15	36	12	883	39.0	-178677.0	-487.0	-787.0
27	15	36	12	883	40.0	-180094.0	-539.0	-1589.0
27	15	36	12	884	41.0	-181385.0	-599.0	-1807.0
27	15	36	12	885	42.0	-182748.0	-636.0	128.0
27	15	36	12	886	43.0	-184300.0	-671.0	4487.0
27	15	36	12	886	44.0	-186323.0	-722.0	10777.0
27	15	36	12	887	45.0	-187859.0	-758.0	15098.0
27	15	36	12	888	46.0	-189460.0	-802.0	19073.0
27	15	36	12	888	47.0	-191216.0	-859.0	23234.0
27	15	36	12	889	48.0	-192486.0	-914.0	25763.0
27	15	36	12	890	49.0	-193272.0	-962.0	27268.0
27	15	36	12	890	50.0	-194116.0	-1007.0	28270.0
27	15	36	12	891	51.0	-195256.0	-1052.0	27009.0
27	15	36	12	892	53.0	-199046.0	-1151.0	23953.0
27	15	36	12	893	54.0	-202781.0	-1202.0	22128.0
27	15	36	12	893	55.0	-207543.0	-1246.0	21119.0
27	15	36	12	894	76.0	-247470.0	-2261.0	4995.0
27	15	36	12	894	77.0	-263257.0	-2317.0	4979.0
27	15	36	12	895	78.0	-274604.0	-2372.0	5628.0
27	15	36	12	896	79.0	-278462.0	-2417.0	5315.0
27	15	36	12	896	80.0	-269884.0	-2452.0	4833.0
27	15	36	12	897	81.0	-258101.0	-2492.0	4793.0
27	15	36	12	927	82.0	-249543.0	-2547.0	4629.0
27	15	36	12	928	83.0	-231776.0	-2612.0	4968.0
27	15	36	12	929	84.0	-205194.0	-2651.0	4806.0
27	15	36	12	930	85.0	-175052.0	-2694.0	5439.0
27	15	36	12	930	86.0	-149069.0	-2747.0	5943.0
27	15	36	12	931	87.0	-132601.0	-2797.0	6017.0
27	15	36	12	932	88.0	-127410.0	-2856.0	6292.0
27	15	36	12	932	89.0	-130961.0	-2899.0	6782.0
27	15	36	12	933	90.0	-139550.0	-2936.0	6897.0
27	15	36	12	934	91.0	-150667.0	-2987.0	6571.0
27	15	36	12	935	92.0	-163015.0	-3032.0	6487.0
27	15	36	12	935	93.0	-176618.0	-3091.0	8259.0
27	15	36	12	936	94.0	-188668.0	-3141.0	14919.0
27	15	36	12	937	95.0	-197094.0	-3182.0	18163.0
27	15	36	12	937	96.0	-201522.0	-3247.0	17083.0
27	15	36	12	938	98.0	-201676.0	-3335.0	13023.0
27	15	36	12	939	99.0	-200564.0	-3386.0	12198.0
27	15	36	12	939	100.0	-199542.0	-3436.0	10997.0
27	15	36	12	940	101.0	-198443.0	-3486.0	10224.0
27	15	36	12	940	102.0	-197698.0	-3542.0	10293.0
27	15	36	12	941	103.0	-197352.0	-3594.0	10228.0
27	15	36	13	18	104.0	-197602.0	-3654.0	10480.0
27	15	36	13	19	105.0	-198859.0	-3709.0	10634.0
27	15	36	13	20	106.0	-200707.0	-3756.0	10517.0
27	15	36	13	21	107.0	-202712.0	-3816.0	10036.0
27	15	36	13	21	108.0	-205099.0	-3862.0	9871.0
27	15	36	13	22	109.0	-207757.0	-3922.0	10163.0
27	15	36	13	23	110.0	-210131.0	-3987.0	9951.0
27	15	36	13	23	111.0	-212128.0	-4027.0	9436.0
27	15	36	13	24	112.0	-212811.0	-4072.0	9333.0
27	15	36	13	25	113.0	-212104.0	-4144.0	9846.0
27	15	36	13	25	114.0	-210101.0	-4206.0	9854.0
27	15	36	13	26	115.0	-206733.0	-4259.0	9309.0
27	15	36	13	27	116.0	-202451.0	-4314.0	9499.0
27	15	36	13	27	117.0	-198061.0	-4353.0	9461.0
27	15	36	13	28	118.0	-194329.0	-4430.0	9219.0
27	15	36	13	29	120.0	-189029.0	-4547.0	9334.0
27	15	36	13	29	143.0	-179472.0	-5679.0	5421.0
27	15	36	13	30	144.0	-179941.0	-5711.0	4976.0
27	15	36	13	30	145.0	-180387.0	-5733.0	4479.0
27	15	36	13	31	146.0	-181395.0	-5754.0	4354.0
27	15	36	13	31	147.0	-182398.0	-5757.0	3827.0
27	15	36	13	32	148.0	-183170.0	-5764.0	3950.0
27	15	36	13	64	149.0	-184139.0	-5765.0	3724.0
27	15	36	13	65	150.0	-185797.0	-5776.0	3270.0
27	15	36	13	65	151.0	-187917.0	-5759.0	3343.0
27	15	36	13	66	152.0	-190913.0	-5738.0	3656.0
27	15	36	13	67	153.0	-194388.0	-5739.0	3613.0
27	15	36	13	68	154.0	-197777.0	-5703.0	4053.0
27	15	36	13	68	155.0	-201626.0	-5684.0	4386.0
27	15	36	13	69	156.0	-205696.0	-5652.0	4015.0
27	15	36	13	70	157.0	-209139.0	-5607.0	4083.0
27	15	36	13	70	158.0	-212341.0	-5580.0	4103.0
27	15	36	13	71	159.0	-214613.0	-5529.0	4039.0
27	15	36	13	72	160.0	-215978.0	-5460.0	3889.0
27	15	36	13	72	161.0	-216194.0	-5402.0	4001.0
27	15	36	13	73	162.0	-215746.0	-5354.0	3864.0
27	15	36	13	74	163.0	-215053.0	-5295.0	3823.0
27	15	36	13	74	165.0	-212307.0	-5165.0	4996.0
27	15	36	13	75	166.0	-210019.0	-5089.0	4528.0
27	15	36	13	75	167.0	-207599.0	-4996.0	3656.0
27	15	36	13	76	168.0	-205339.0	-4919.0	3761.0
27	15	36	13	77	169.0	-202924.0	-4834.0	3846.0
27	15	36	13	77	170.0	-200734.0	-4764.0	3483.0
27	15	36	13	107	171.0	-198951.0	-4673.0	3079.0
27	15	36	13	108	172.0	-197627.0	-4567.0	3407.0
27	15	36	13	152	173.0	-196520.0	-4481.0	3599.0
27	15	36	13	153	174.0	-195526.0	-4381.0	3753.0
27	15	36	13	154	175.0	-194351.0	-4274.0	3703.0
27	15	36	13	154	176.0	-193837.0	-4178.0	3712.0
27	15	36	13	155	177.0	-193496.0	-4069.0	3511.0
27	15	36	13	156	178.0	-193482.0	-3972.0	3932.0
27	15	36	13	157	179.0	-193382.0	-3872.0	4369.0
27	15	36	13	157	180.0	-193169.0	-3744.0	4439.0
27	15	36	13	158	181.0	-192680.0	-3639.0	4406.0
27	15	36	13	159	182.0	-192307.0	-3529.0	4629.0
27	15	36	13	159	183.0	-192136.0	-3419.0	4964.0
27	15	36	13	160	184.0	-191739.0	-3331.0	5018.0
27	15	36	13	161	185.0	-191674.0	-3242.0	4878.0
27	15	36	13	162	187.0	-192777.0	-3006.0	6128.0
27	15	36	13	162	188.0	-193906.0	-2912.0	6219.0
27	15	36	13	163	210.0	-220662.0	-985.0	10518.0
27	15	36	13	163	211.0	-217774.0	-909.0	10858.0
27	15	36	13	164	212.0	-212530.0	-828.0	10819.0
27	15	36	13	165	213.0	-202877.0	-761.0	11271.0
27	15	36	13	165	214.0	-188847.0	-687.0	11501.0
27	15	36	13	166	215.0	-177978.0	-607.0	11011.0
27	15	36	13	198	216.0	-179662.0	-534.0	11126.0
27	15	36	13	199	217.0	-191736.0	-454.0	11324.0
27	15	36	13	199	218.0	-206221.0	-401.0	11012.0
27	15	36	13	200	219.0	-215284.0	-322.0	10087.0
27	15	36	13	200	220.0	-217922.0	-238.0	10054.0
27	15	36	13	201	221.0	-215090.0	-164.0	10630.0
27	15	36	13	202	222.0	-208341.0	-101.0	10394.0
27	15	36	13	202	223.0	-201881.0	-34.0	10185.0
27	15	36	13	203	224.0	-194183.0	40.0	10566.0
27	15	36	13	203	225.0	-185465.0	134.0	10284.0
27	15	36	13	204	226.0	-178991.0	201.0	9860.0
27	15	36	13	205	227.0	-174836.0	263.0	9993.0
27	15	36	13	205	228.0	-174099.0	333.0	10513.0
27	15	36	13	206	229.0	-176222.0	414.0	10523.0
27	15	36	13	206	230.0	-180681.0	488.0	10023.0
27	15	36	13	207	232.0	-191696.0	608.0	10603.0
27	15	36	13	207	233.0	-196982.0	669.0	10411.0
27	15	36	13	208	234.0	-201077.0	744.0	10201.0
27	15	36	13	209	235.0	-204508.0	803.0	10106.0
27	15	36	13	209	236.0	-206929.0	862.0	10027.0
27	15	36	13	210	237.0	-208248.0	934.0	9916.0
27	15	36	13	210	238.0	-209075.0	1008.0	9823.0
27	15	36	13	241	239.0	-209005.0	1080.0	9855.0
27	15	36	13	242	240.0	-207453.0	1136.0	10134.0
27	15	36	13	243	241.0	-205566.0	1185.0	10091.0
27	15	36	13	243	242.0	-204200.0	1251.0	10363.0
27	15	36	13	244	243.0	-202465.0	1301.0	10438.0
27	15	36	13	245	244.0	-200670.0	1356.0	10774.0
27	15	36	13	246	245.0	-199774.0	1396.0	10504.0
27	15	36	13	247	246.0	-199647.0	1448.0	10487.0
27	15	36	13	248	247.0	-200047.0	1488.0	10499.0
27	15	36	13	249	248.0	-200987.0	1538.0	10363.0
27	15	36	13	249	249.0	-202766.0	1581.0	10315.0
27	15	36	13	250	250.0	-205238.0	1634.0	10458.0
27	15	36	13	251	251.0	-208210.0	1663.0	10571.0
27	15	36	13	251	252.0	-210653.0	1685.0	10720.0
27	15	36	13	252	253.0	-212202.0	1712.0	10882.0
27	15	36	13	252	255.0	-213900.0	1782.0	11228.0
27	15	36	13	253	0.0	-213962.0	1824.0	11164.0
27	15	36	13	253	1.0	-212863.0	1844.0	10574.0
27	15	36	13	254	2.0	-211494.0	1858.0	11097.0
27	15	36	13	255	3.0	-210243.0	1861.0	11079.0
27	15	36	13	255	4.0	-208764.0	1873.0	11283.0
27	15	36	13	286	5.0	-206949.0	1880.0	11598.0
27	15	36	13	287	6.0	-204974.0	1881.0	12428.0
27	15	36	13	288	7.0	-202952.0	1876.0	13060.0
27	15	36	13	288	8.0	-200601.0	1896.0	13269.0
27	15	36	13	289	9.0	-198426.0	1896.0	13125.0
27	15	36	13	290	10.0	-195847.0	1898.0	13254.0
27	15	36	13	290	11.0	-192969.0	1879.0	12999.0
27	15	36	13	291	12.0	-189661.0	1876.0	13189.0
27	15	36	13	291	13.0	-186938.0	1856.0	12783.0
27	15	36	13	292	14.0	-184954.0	1857.0	12602.0
27	15	36	13	293	15.0	-183529.0	1836.0	12523.0
27	15	36	13	293	16.0	-182516.0	1824.0	13006.0
27	15	36	13	294	17.0	-182291.0	1814.0	13481.0
27	15	36	13	294	18.0	-182257.0	1773.0	13058.0
27	15	36	13	295	19.0	-182811.0	1750.0	13078.0
27	15	36	13	296	21.0	-186335.0	1715.0	12934.0
27	15	36	13	296	22.0	-188509.0	1693.0	12802.0
27	15	36	13	297	23.0	-190824.0	1663.0	12478.0
27	15	36	13	297	24.0	-193025.0	1628.0	12958.0
27	15	36	13	298	25.0	-195230.0	1604.0	13361.0
27	15	36	13	299	26.0	-197777.0	1575.0	13651.0
27	15	36	13	299	27.0	-199450.0	1540.0	13574.0
27	15	36	13	332	28.0	-201591.0	1503.0	14076.0
27	15	36	13	333	29.0	-204104.0	1488.0	14398.0
27	15	36	13	334	30.0	-206189.0	1449.0	14458.0
27	15	36	13	334	31.0	-208108.0	1414.0	14794.0
27	15	36	13	335	32.0	-209632.0	1389.0	15078.0
27	15	36	13	336	33.0	-210346.0	1351.0	14766.0
27	15	36	13	336	34.0	-210339.0	1329.0	14714.0
27	15	36	13	337	35.0	-209996.0	1296.0	15215.0
27	15	36	13	337	36.0	-209134.0	1264.0	15650.0
27	15	36	13	338	37.0	-207920.0	1228.0	15813.0
27	15	36	13	339	38.0	-206620.0	1179.0	15991.0
27	15	36	13	339	39.0	-205451.0	1137.0	16717.0
27	15	36	13	340	40.0	-204194.0	1098.0	17056.0
27	15	36	13	341	41.0	-203134.0	1061.0	17274.0
27	15	36	13	341	42.0	-202361.0	1019.0	17344.0
27	15	36	13	342	44.0	-201217.0	958.0	18346.0
27	15	36	13	342	45.0	-200971.0	920.0	18645.0
27	15	36	13	343	46.0	-201103.0	881.0	18939.0
27	15	36	13	343	47.0	-201495.0	834.0	18866.0
27	15	36	13	344	48.0	-201637.0	804.0	19234.0
27	15	36	13	345	49.0	-202207.0	769.0	19542.0
27	15	36	13	377	50.0	-202998.0	724.0	20456.0
27	15	36	13	378	51.0	-204053.0	683.0	21834.0
27	15	36	13	378	52.0	-205063.0	649.0	21743.0
27	15	36	13	379	53.0	-206514.0	619.0	21690.0
27	15	36	13	379	54.0	-208223.0	570.0	22366.0
27	15	36	13	380	55.0	-209962.0	548.0	22779.0
27	15	36	13	381	56.0	-211474.0	503.0	22952.0
27	15	36	13	381	57.0	-212402.0	460.0	23290.0
27	15	36	13	382	58.0	-212752.0	421.0	23740.0
27	15	36	13	383	59.0	-212721.0	398.0	23386.0
27	15	36	13	383	60.0	-212437.0	368.0	22961.0
27	15	36	13	384	61.0	-212049.0	323.0	22509.0
27	15	36	13	384	62.0	-211543.0	274.0	22705.0
27	15	36	13	385	63.0	-211532.0	248.0	22391.0
27	15	36	13	386	64.0	-211118.0	228.0	22394.0
27	15	36	13	386	66.0	-208961.0	155.0	22979.0
27	15	36	13	387	67.0	-207640.0	127.0	23305.0
27	15	36	13	387	68.0	-206245.0	84.0	23594.0
27	15	36	13	388	69.0	-204861.0	52.0	23634.0
27	15	36	13	388	70.0	-202819.0	20.0	23604.0
27	15	36	13	397	71.0	-200764.0	-9.0	24031.0
27	15	36	13	422	72.0	-198971.0	-59.0	24324.0
27	15	36	13	422	73.0	-197593.0	-95.0	24173.0
27	15	36	13	423	74.0	-196624.0	-125.0	24075.0
27	15	36	13	424	75.0	-195826.0	-161.0	23610.0
27	15	36	13	424	76.0	-195149.0	-193.0	23913.0
27	15	36	13	425	77.0	-194811.0	-221.0	23781.0
27	15	36	13	426	78.0	-195057.0	-269.0	23290.0
27	15	36	13	426	79.0	-195337.0	-290.0	23033.0
27	15	36	13	427	80.0	-195846.0	-338.0	23213.0
27	15	36	13	427	81.0	-196540.0	-385.0	23079.0
27	15	36	13	428	82.0	-197404.0	-401.0	22573.0
27	15	36	13	429	83.0	-198621.0	-452.0	22454.0
27	15	36	13	429	84.0	-199919.0	-495.0	22957.0
27	15	36	13	430	85.0	-201257.0	-518.0	23626.0
27	15	36	13	431	86.0	-202277.0	-556.0	24316.0
27	15	36	13	431	88.0	-204904.0	-652.0	25086.0
27	15	36	13	432	89.0	-205999.0	-688.0	24994.0
27	15	36	13	432	90.0	-206599.0	-749.0	24824.0
27	15	36	13	433	91.0	-206746.0	-793.0	24009.0
27	15	36	13	433	92.0	-206894.0	-819.0	22964.0
27	15	36	13	434	93.0	-207392.0	-867.0	22970.0
27	15	36	13	435	94.0	-208167.0	-923.0	23354.0
27	15	36	13	466	95.0	-208891.0	-936.0	23873.0
27	15	36	13	467	96.0	-209555.0	-980.0	24309.0
27	15	36	13	512	97.0	-210324.0	-1032.0	24372.0
27	15	36	13	513	98.0	-211626.0	-1077.0	24350.0
27	15	36	13	514	99.0	-212367.0	-1118.0	24686.0
27	15	36	13	514	100.0	-212858.0	-1157.0	24707.0
27	15	36	13	516	101.0	-213229.0	-1202.0	24514.0
27	15	36	13	517	102.0	-212810.0	-1250.0	24428.0
27	15	36	13	517	103.0	-211818.0	-1285.0	24531.0
27	15	36	13	518	104.0	-211130.0	-1318.0	24782.0
27	15	36	13	519	105.0	-210453.0	-1365.0	25018.0
27	15	36	13	519	106.0	-209276.0	-1416.0	25316.0
27	15	36	13	520	107.0	-207264.0	-1469.0	25289.0
27	15	36	13	520	108.0	-204629.0	-1503.0	25063.0
27	15	36	13	521	109.0	-201502.0	-1547.0	24863.0
27	15	36	13	522	111.0	-193921.0	-1637.0	25561.0
27	15	36	13	522	112.0	-190132.0	-1684.0	25141.0
27	15	36	13	523	133.0	-213316.0	-2689.0	26054.0
27	15	36	13	524	134.0	-213864.0	-2746.0	31386.0
27	15	36	13	524	135.0	-213433.0	-2792.0	36240.0
27	15	36	13	525	136.0	-212456.0	-2826.0	40034.0
27	15	36	13	525	137.0	-211073.0	-2872.0	43981.0
27	15	36	13	526	138.0	-209054.0	-2940.0	47518.0
27	15	36	13	527	139.0	-206596.0	-2985.0	49026.0
27	15	36	13	558	140.0	-204009.0	-3040.0	49460.0
27	15	36	13	559	141.0	-201857.0	-3086.0	48531.0
27	15	36	13	559	142.0	-200094.0	-3153.0	46046.0
27	15	36	13	560	143.0	-199639.0	-3193.0	44040.0
27	15	36	13	561	144.0	-200786.0	-3237.0	42181.0
27	15	36	13	561	145.0	-203346.0	-3302.0	39903.0
27	15	36	13	562	146.0	-206296.0	-3351.0	38272.0
27	15	36	13	563	147.0	-209862.0	-3401.0	37064.0
27	15	36	13	563	148.0	-213981.0	-3471.0	34973.0
27	15	36	13	564	149.0	-218675.0	-3522.0	33543.0
27	15	36	13	564	150.0	-223463.0	-3581.0	31929.0
27	15	36	13	565	151.0	-226958.0	-3614.0	29573.0
27	15	36	13	566	152.0	-228603.0	-3651.0	27193.0
27	15	36	13	566	153.0	-228541.0	-3706.0	24941.0
27	15	36	13	567	154.0	-225897.0	-3749.0	23593.0
27	15	36	13	567	156.0	-205119.0	-3856.0	22851.0
27	15	36	13	568	157.0	-188806.0	-3897.0	22302.0
27	15	36	13	569	158.0	-170491.0	-3952.0	21586.0
27	15	36	13	569	159.0	-154452.0	-3993.0	21083.0
27	15	36	13	570	160.0	-143843.0	-4041.0	20376.0
27	15	36	13	570	161.0	-139548.0	-4079.0	19791.0
27	15	36	13	648	162.0	-142241.0	-4128.0	19324.0
27	15	36	13	648	163.0	-151802.0	-4176.0	19157.0
27	15	36	13	649	164.0	-167825.0	-4236.0	18646.0
27	15	36	13	650	165.0	-188877.0	-4273.0	18657.0
27	15	36	13	650	166.0	-212059.0	-4308.0	19397.0
27	15	36	13	651	167.0	-234847.0	-4351.0	19105.0
27	15	36	13	651	168.0	-255268.0	-4407.0	18911.0
27	15	36	13	652	169.0	-271771.0	-4447.0	19356.0
27	15	36	13	653	170.0	-279584.0	-4495.0	19506.0
27	15	36	13	653	171.0	-274632.0	-4544.0	18951.0
27	15	36	13	654	172.0	-269164.0	-4572.0	18506.0
27	15	36	13	655	173.0	-263946.0	-4617.0	18256.0
27	15	36	13	655	174.0	-247909.0	-4661.0	18909.0
27	15	36	13	656	175.0	-221886.0	-4709.0	18773.0
27	15	36	13	656	176.0	-192658.0	-4745.0	17982.0
27	15	36	13	657	201.0	-186920.0	-5964.0	16355.0
27	15	36	13	657	202.0	-187035.0	-6018.0	16166.0
27	15	36	13	658	203.0	-186662.0	-6079.0	16082.0
27	15	36	13	659	204.0	-185767.0	-6130.0	16524.0
27	15	36	13	659	205.0	-184267.0	-6177.0	16993.0
27	15	36	13	660	206.0	-182635.0	-6226.0	16670.0
27	15	36	13	692	207.0	-181597.0	-6299.0	16494.0
27	15	36	13	693	208.0	-180771.0	-6354.0	16060.0
27	15	36	13	693	209.0	-180764.0	-6393.0	15796.0
27	15	36	13	694	210.0	-181450.0	-6461.0	15883.0
27	15	36	13	695	211.0	-182954.0	-6511.0	16028.0
27	15	36	13	695	212.0	-184943.0	-6559.0	15735.0
27	15	36	13	696	213.0	-186979.0	-6616.0	15384.0
27	15	36	13	697	214.0	-189081.0	-6671.0	15570.0
27	15	36	13	697	215.0	-191414.0	-6734.0	15992.0
27	15	36	13	698	216.0	-193641.0	-6799.0	15840.0
27	15	36	13	698	217.0	-195449.0	-6849.0	15321.0
27	15	36	13	699	218.0	-196938.0	-6904.0	15188.0
27	15	36	13	700	219.0	-198564.0	-6960.0	14889.0
27	15	36	13	700	220.0	-200441.0	-6990.0	14366.0
27	15	36	13	701	221.0	-202283.0	-7052.0	14417.0
27	15	36	13	701	223.0	-206400.0	-7161.0	13051.0
27	15	36	13	702	224.0	-207494.0	-7192.0	12441.0
27	15	36	13	703	225.0	-208076.0	-7258.0	12861.0
27	15	36	13	703	226.0	-208812.0	-7301.0	12604.0
27	15	36	13	704	227.0	-209540.0	-7355.0	12588.0
27	15	36	13	704	228.0	-210406.0	-7395.0	12466.0
27	15	36	13	783	229.0	-210402.0	-7442.0	12466.0
27	15	36	13	783	230.0	-209918.0	-7490.0	12029.0
27	15	36	13	784	231.0	-208758.0	-7531.0	11714.0
27	15	36	13	785	232.0	-206942.0	-7544.0	11479.0
27	15	36	13	785	233.0	-204574.0	-7566.0	11404.0
27	15	36	13	786	234.0	-201966.0	-7586.0	10954.0
27	15	36	13	787	235.0	-199382.0	-7615.0	10738.0
27	15	36	13	787	236.0	-196874.0	-7632.0	10763.0
27	15	36	13	788	237.0	-194536.0	-7646.0	10688.0
27	15	36	13	789	238.0	-192293.0	-7672.0	10674.0
27	15	36	13	789	239.0	-190379.0	-7682.0	10643.0
27	15	36	13	790	240.0	-188724.0	-7663.0	9818.0
27	15	36	13	790	241.0	-187501.0	-7635.0	9739.0
27	15	36	13	791	242.0	-186574.0	-7612.0	9924.0
27	15	36	13	792	243.0	-185762.0	-7610.0	10491.0
27	15	36	13	793	12.0	-222757.0	-5813.0	10407.0
27	15	36	13	794	13.0	-223238.0	-5708.0	10603.0
27	15	36	13	794	14.0	-223669.0	-5595.0	9897.0
27	15	36	13	795	15.0	-223859.0	-5482.0	9496.0
27	15	36	13	795	16.0	-223774.0	-5377.0	8961.0
27	15	36	13	796	17.0	-223037.0	-5261.0	9094.0
27	15	36	14	53	18.0	-221587.0	-5145.0	9952.0
27	15	36	14	54	19.0	-220007.0	-5034.0	10437.0
27	15	36	14	54	20.0	-217892.0	-4922.0	10656.0
27	15	36	14	55	21.0	-215545.0	-4814.0	10789.0
27	15	36	14	55	22.0	-212839.0	-4730.0	10991.0
27	15	36	14	56	23.0	-209547.0	-4639.0	10781.0
27	15	36	14	57	24.0	-206639.0	-4519.0	10971.0
27	15	36	14	57	25.0	-204321.0	-4420.0	11246.0
27	15	36	14	58	26.0	-202227.0	-4336.0	11394.0
27	15	36	14	59	27.0	-200406.0	-4240.0	11509.0
27	15	36	14	59	28.0	-199299.0	-4136.0	11935.0
27	15	36	14	60	29.0	-198526.0	-4048.0	12063.0
27	15	36	14	61	30.0	-198206.0	-3941.0	12044.0
27	15	36	14	62	31.0	-198090.0	-3854.0	12351.0
27	15	36	14	63	32.0	-198068.0	-3772.0	12409.0
27	15	36	14	64	146.0	-213939.0	-935.0	10961.0
27	15	36	14	65	147.0	-213713.0	-947.0	11350.0
27	15	36	14	65	148.0	-213866.0	-975.0	11739.0
27	15	36	14	66	149.0	-213965.0	-999.0	11486.0
27	15	36	14	66	150.0	-214011.0	-1017.0	11433.0
27	15	36	14	67	151.0	-214104.0	-1040.0	11788.0
27	15	36	14	68	152.0	-214414.0	-1064.0	11693.0
27	15	36	14	97	153.0	-214859.0	-1071.0	11670.0
27	15	36	14	99	154.0	-214996.0	-1091.0	11103.0
27	15	36	14	100	155.0	-215472.0	-1104.0	10264.0
27	15	36	14	100	156.0	-216223.0	-1091.0	10066.0
27	15	36	14	101	157.0	-216466.0	-1121.0	9771.0
27	15	36	14	102	158.0	-216446.0	-1128.0	9236.0
27	15	36	14	102	159.0	-216642.0	-1146.0	9155.0
27	15	36	14	103	160.0	-216599.0	-1165.0	9490.0
27	15	36	14	104	161.0	-216591.0	-1180.0	9498.0
27	15	36	14	104	162.0	-216570.0	-1203.0	9497.0
27	15	36	14	105	163.0	-215698.0	-1214.0	9549.0
27	15	36	14	106	164.0	-214286.0	-1241.0	9970.0
27	15	36	14	106	165.0	-212453.0	-1269.0	9670.0
27	15	36	14	107	166.0	-209408.0	-1297.0	9487.0
27	15	36	14	108	167.0	-205801.0	-1316.0	9841.0
27	15	36	14	108	169.0	-198889.0	-1336.0	8451.0
27	15	36	14	109	170.0	-196466.0	-1367.0	8316.0
27	15	36	14	109	171.0	-194256.0	-1409.0	8673.0
27	15	36	14	110	172.0	-192171.0	-1446.0	8447.0
27	15	36	14	110	173.0	-189970.0	-1484.0	8651.0
27	15	36	14	111	174.0	-187783.0	-1512.0	8999.0
27	15	36	14	141	175.0	-185570.0	-1547.0	8796.0
27	15	36	14	142	176.0	-183019.0	-1587.0	8449.0
27	15	36	14	143	177.0	-180519.0	-1632.0	8584.0
27	15	36	14	143	178.0	-177943.0	-1661.0	8838.0
27	15	36	14	144	179.0	-175088.0	-1701.0	9455.0
27	15	36	14	145	180.0	-172284.0	-1735.0	9321.0
27	15	36	14	145	181.0	-170444.0	-1774.0	9379.0
27	15	36	14	146	182.0	-169767.0	-1819.0	9179.0
27	15	36	14	147	183.0	-169881.0	-1868.0	8924.0
27	15	36	14	147	184.0	-170651.0	-1913.0	8786.0
27	15	36	14	148	185.0	-172597.0	-1959.0	8844.0
27	15	36	14	149	186.0	-174822.0	-2011.0	9349.0
27	15	36	14	150	187.0	-177027.0	-2061.0	9068.0
27	15	36	14	151	188.0	-179439.0	-2110.0	9238.0
27	15	36	14	160	189.0	-182240.0	-2149.0	9903.0
27	15	36	14	160	191.0	-198103.0	-2232.0	9729.0
27	15	36	14	161	192.0	-208706.0	-2288.0	9710.0
27	15	36	14	162	193.0	-214970.0	-2332.0	9933.0
27	15	36	14	162	194.0	-216763.0	-2387.0	10135.0
27	15	36	14	163	195.0	-217169.0	-2451.0	9876.0
27	15	36	14	163	196.0	-214562.0	-2500.0	9710.0
27	15	36	14	164	197.0	-210056.0	-2535.0	9788.0
27	15	36	14	186	198.0	-204512.0	-2583.0	10416.0
27	15	36	14	187	199.0	-198482.0	-2646.0	10986.0
27	15	36	14	187	200.0	-192213.0	-2682.0	10971.0
27	15	36	14	188	201.0	-186002.0	-2716.0	10872.0
27	15	36	14	189	202.0	-180365.0	-2768.0	11132.0
27	15	36	14	189	203.0	-176997.0	-2834.0	10373.0
27	15	36	14	190	204.0	-175775.0	-2867.0	10162.0
27	15	36	14	191	205.0	-176238.0	-2894.0	10331.0
27	15	36	14	191	206.0	-178341.0	-2946.0	10387.0
27	15	36	14	192	207.0	-181295.0	-2994.0	10063.0
27	15	36	14	193	208.0	-184271.0	-3037.0	10209.0
27	15	36	14	194	209.0	-187111.0	-3063.0	10119.0
27	15	36	14	194	210.0	-189891.0	-3116.0	9769.0
27	15	36	14	195	211.0	-192363.0	-3156.0	9693.0
27	15	36	14	196	212.0	-193812.0	-3204.0	9588.0
27	15	36	14	196	214.0	-195045.0	-3276.0	8808.0
27	15	36	14	197	215.0	-195144.0	-3312.0	8358.0
27	15	36	14	198	216.0	-195315.0	-3351.0	8249.0
27	15	36	14	198	217.0	-195297.0	-3405.0	7748.0
27	15	36	14	199	218.0	-195169.0	-3446.0	7763.0
27	15	36	14	200	219.0	-195536.0	-3489.0	7631.0
27	15	36	14	232	220.0	-195722.0	-3532.0	7026.0
27	15	36	14	233	221.0	-195109.0	-3595.0	5653.0
27	15	36	14	234	222.0	-194007.0	-3637.0	4920.0
27	15	36	14	235	223.0	-192684.0	-3684.0	5829.0
27	15	36	14	236	224.0	-191136.0	-3711.0	8106.0
27	15	36	14	236	225.0	-189735.0	-3754.0	12709.0
27	15	36	14	237	226.0	-188106.0	-3794.0	17289.0
27	15	36	14	237	227.0	-186295.0	-3848.0	20039.0
27	15	36	14	238	228.0	-183994.0	-3912.0	23144.0
27	15	36	14	239	229.0	-181281.0	-3971.0	26866.0
27	15	36	14	239	230.0	-178919.0	-4023.0	28897.0
27	15	36	14	240	231.0	-176954.0	-4072.0	29670.0
27	15	36	14	241	232.0	-175550.0	-4113.0	28037.0
27	15	36	14	242	233.0	-175221.0	-4158.0	23262.0
27	15	36	14	243	234.0	-176165.0	-4215.0	18218.0
27	15	36	14	243	236.0	-183087.0	-4303.0	9506.0
27	15	36	14	244	237.0	-188423.0	-4368.0	3163.0
27	15	36	14	244	238.0	-194297.0	-4424.0	3348.0
27	15	36	14	245	239.0	-200662.0	-4475.0	2666.0
27	15	36	14	246	240.0	-206465.0	-4536.0	1551.0
27	15	36	14	246	241.0	-211330.0	-4593.0	-816.0
27	15	36	14	247	242.0	-214719.0	-4647.0	-3575.0
27	15	36	14	277	243.0	-215834.0	-4702.0	-6381.0
27	15	36	14	278	244.0	-215045.0	-4754.0	-8306.0
27	15	36	14	279	245.0	-212129.0	-4806.0	-9728.0
27	15	36	14	279	246.0	-207154.0	-4852.0	-10202.0
27	15	36	14	280	247.0	-198489.0	-4897.0	-10422.0
27	15	36	14	281	248.0	-186640.0	-4970.0	-10102.0
27	15	36	14	281	249.0	-172975.0	-5027.0	-9504.0
27	15	36	14	282	250.0	-160147.0	-5059.0	-9371.0
27	15	36	14	283	251.0	-150912.0	-5104.0	-9656.0
27	15	36	14	283	252.0	-147312.0	-5142.0	-9867.0
27	15	36	14	284	253.0	-150285.0	-5206.0	-9884.0
27	15	36	14	285	254.0	-159981.0	-5249.0	-9668.0
27	15	36	14	285	255.0	-176174.0	-5297.0	-9779.0
27	15	36	14	286	0.0	-196709.0	-5352.0	-10239.0
27	15	36	14	287	1.0	-217437.0	-5391.0	-10251.0
27	15	36	14	287	3.0	-252118.0	-5475.0	-9067.0
27	15	36	14	288	4.0	-263076.0	-5516.0	-8956.0
27	15	36	14	289	5.0	-263722.0	-5578.0	-8907.0
27	15	36	14	289	6.0	-260526.0	-5614.0	-8633.0
27	15	36	14	290	7.0	-258176.0	-5667.0	-8735.0
27	15	36	14	290	8.0	-245364.0	-5716.0	-8904.0
27	15	36	14	322	9.0	-216251.0	-5762.0	-9181.0
27	15	36	14	323	10.0	-178891.0	-5811.0	-9565.0
27	15	36	14	324	11.0	-145724.0	-5844.0	-9367.0
27	15	36	14	325	12.0	-125524.0	-5889.0	-9410.0
27	15	36	14	325	13.0	-119912.0	-5957.0	-9360.0
27	15	36	14	326	14.0	-125935.0	-5996.0	-9638.0
27	15	36	14	327	15.0	-138704.0	-6026.0	-9884.0
27	15	36	14	327	16.0	-154754.0	-6072.0	-10331.0
27	15	36	14	328	17.0	-172741.0	-6121.0	-10652.0
27	15	36	14	329	18.0	-190902.0	-6168.0	-10414.0
27	15	36	14	329	19.0	-206447.0	-6218.0	-10246.0
27	15	36	14	330	20.0	-217079.0	-6265.0	-9989.0
27	15	36	14	331	21.0	-221713.0	-6304.0	-10066.0
27	15	36	14	331	22.0	-220912.0	-6343.0	-9920.0
27	15	36	14	332	23.0	-218487.0	-6402.0	-9914.0
27	15	36	14	333	25.0	-212876.0	-6485.0	-10734.0
27	15	36	14	333	26.0	-209251.0	-6536.0	-11349.0
27	15	36	14	334	27.0	-205802.0	-6592.0	-11270.0
27	15	36	14	334	28.0	-202658.0	-6640.0	-10427.0
27	15	36	14	335	29.0	-201186.0	-6697.0	-9513.0
27	15	36	14	335	30.0	-201613.0	-6713.0	-8968.0
27	15	36	14	413	31.0	-202894.0	-6760.0	-8503.0
27	15	36	14	414	32.0	-205239.0	-6820.0	-8752.0
27	15	36	14	415	33.0	-207710.0	-6871.0	-9070.0
27	15	36	14	415	34.0	-210219.0	-6924.0	-9500.0
27	15	36	14	416	35.0	-212498.0	-6972.0	-10320.0
27	15	36	14	417	36.0	-213436.0	-7016.0	-10376.0
27	15	36	14	417	37.0	-212854.0	-7077.0	-10384.0
27	15	36	14	418	38.0	-211293.0	-7146.0	-10997.0
27	15	36	14	419	39.0	-208467.0	-7208.0	-11472.0
27	15	36	14	419	40.0	-204780.0	-7265.0	-11557.0
27	15	36	14	420	41.0	-199931.0	-7302.0	-11709.0
27	15	36	14	421	42.0	-194306.0	-7372.0	-11924.0
27	15	36	14	421	43.0	-188589.0	-7432.0	-11785.0
27	15	36	14	422	44.0	-183445.0	-7472.0	-11954.0
27	15	36	14	423	45.0	-178989.0	-7537.0	-12068.0
27	15	36	14	423	48.0	-171016.0	-7682.0	-12129.0
27	15	36	14	424	70.0	-200486.0	-8739.0	-7282.0
27	15	36	14	425	71.0	-202056.0	-8743.0	-7190.0
27	15	36	14	425	72.0	-202377.0	-8764.0	-7182.0
27	15	36	14	426	73.0	-202063.0	-8783.0	-7481.0
27	15	36	14	426	74.0	-201221.0	-8785.0	-7807.0
27	15	36	14	427	75.0	-200506.0	-8801.0	-7613.0
27	15	36	14	427	76.0	-200462.0	-8811.0	-7559.0
27	15	36	14	457	77.0	-200812.0	-8802.0	-7807.0
27	15	36	14	458	78.0	-201324.0	-8789.0	-7762.0
27	15	36	14	459	79.0	-201933.0	-8795.0	-7752.0
27	15	36	14	460	80.0	-202681.0	-8773.0	-7658.0
27	15	36	14	460	81.0	-202967.0	-8721.0	-7142.0
27	15	36	14	461	82.0	-203060.0	-8689.0	-6990.0
27	15	36	14	462	83.0	-203509.0	-8669.0	-7143.0
27	15	36	14	462	84.0	-203638.0	-8647.0	-7057.0
27	15	36	14	463	85.0	-203382.0	-8591.0	-6974.0
27	15	36	14	464	86.0	-203446.0	-8537.0	-6959.0
27	15	36	14	464	87.0	-203915.0	-8487.0	-6914.0
27	15	36	14	465	88.0	-204149.0	-8435.0	-6890.0
27	15	36	14	466	89.0	-204858.0	-8383.0	-6729.0
27	15	36	14	466	90.0	-204754.0	-8318.0	-6787.0
27	15	36	14	467	91.0	-203686.0	-8246.0	-6742.0
27	15	36	14	468	92.0	-202432.0	-8171.0	-6230.0
27	15	36	14	468	93.0	-200636.0	-8102.0	-6046.0
27	15	36	14	469	94.0	-198213.0	-8020.0	-6117.0
27	15	36	14	470	95.0	-195740.0	-7936.0	-6010.0
27	15	36	14	470	96.0	-193274.0	-7857.0	-5987.0
27	15	36	14	471	97.0	-190785.0	-7777.0	-5613.0
27	15	36	14	471	98.0	-188850.0	-7679.0	-5465.0
27	15	36	14	549	99.0	-187504.0	-7586.0	-5786.0
27	15	36	14	549	100.0	-187257.0	-7504.0	-6178.0
27	15	36	14	550	101.0	-188337.0	-7417.0	-5824.0
27	15	36	14	552	102.0	-189642.0	-7324.0	-5356.0
27	15	36	14	553	103.0	-191023.0	-7234.0	-5517.0
27	15	36	14	553	104.0	-192579.0	-7127.0	-5432.0
27	15	36	14	554	105.0	-193796.0	-7012.0	-5371.0
27	15	36	14	555	106.0	-195329.0	-6932.0	-5197.0
27	15	36	14	555	107.0	-197125.0	-6834.0	-5385.0
27	15	36	14	556	108.0	-198804.0	-6728.0	-4976.0
27	15	36	14	557	109.0	-200537.0	-6618.0	-4572.0
27	15	36	14	558	110.0	-202464.0	-6511.0	-4774.0
27	15	36	14	559	111.0	-203971.0	-6421.0	-4480.0
27	15	36	14	560	112.0	-205302.0	-6319.0	-4321.0
27	15	36	14	561	113.0	-206674.0	-6195.0	-3592.0
27	15	36	14	561	115.0	-208869.0	-6019.0	-3473.0
27	15	36	14	562	138.0	-191610.0	-4116.0	404.0
27	15	36	14	563	139.0	-212276.0	-4057.0	298.0
27	15	36	14	563	140.0	-226674.0	-4016.0	638.0
27	15	36	14	564	141.0	-232821.0	-3942.0	667.0
27	15	36	14	564	142.0	-231065.0	-3863.0	688.0
27	15	36	14	565	143.0	-225281.0	-3807.0	896.0
27	15	36	14	593	144.0	-219816.0	-3760.0	989.0
27	15	36	14	594	145.0	-214936.0	-3693.0	846.0
27	15	36	14	595	146.0	-210836.0	-3623.0	216.0
27	15	36	14	596	147.0	-208674.0	-3567.0	68.0
27	15	36	14	597	148.0	-207565.0	-3525.0	-2.0
27	15	36	14	597	149.0	-206634.0	-3447.0	252.0
27	15	36	14	598	150.0	-205992.0	-3389.0	337.0
27	15	36	14	599	151.0	-205889.0	-3330.0	300.0
27	15	36	14	599	152.0	-206471.0	-3264.0	395.0
27	15	36	14	600	153.0	-208016.0	-3218.0	858.0
27	15	36	14	601	154.0	-210192.0	-3159.0	1017.0
27	15	36	14	602	155.0	-212841.0	-3107.0	372.0
27	15	36	14	602	156.0	-215386.0	-3050.0	313.0
27	15	36	14	603	157.0	-217241.0	-2997.0	738.0
27	15	36	14	604	158.0	-217512.0	-2931.0	704.0
27	15	36	14	604	160.0	-213356.0	-2806.0	926.0
27	15	36	14	605	161.0	-209769.0	-2779.0	1238.0
27	15	36	14	606	162.0	-205517.0	-2738.0	1243.0
27	15	36	14	606	163.0	-201461.0	-2670.0	1243.0
27	15	36	14	607	164.0	-198042.0	-2626.0	924.0
27	15	36	14	607	165.0	-195652.0	-2584.0	942.0
27	15	36	14	683	166.0	-194246.0	-2534.0	886.0
27	15	36	14	684	167.0	-193850.0	-2476.0	781.0
27	15	36	14	685	168.0	-194501.0	-2437.0	740.0
27	15	36	14	686	169.0	-195969.0	-2386.0	848.0
27	15	36	14	686	170.0	-197558.0	-2366.0	976.0
27	15	36	14	687	171.0	-198957.0	-2327.0	1003.0
27	15	36	14	689	172.0	-199566.0	-2272.0	1611.0
27	15	36	14	690	173.0	-200072.0	-2231.0	1263.0
27	15	36	14	690	174.0	-200297.0	-2201.0	929.0
27	15	36	14	691	175.0	-200189.0	-2166.0	801.0
27	15	36	14	692	176.0	-199867.0	-2139.0	1080.0
27	15	36	14	693	177.0	-199681.0	-2094.0	719.0
27	15	36	14	693	178.0	-199461.0	-2066.0	768.0
27	15	36	14	694	179.0	-199051.0	-2044.0	995.0
27	15	36	14	694	180.0	-198650.0	-2022.0	1152.0
27	15	36	14	695	182.0	-196711.0	-1991.0	1042.0
27	15	36	14	696	205.0	-216609.0	-2099.0	1689.0
27	15	36	14	696	206.0	-219426.0	-2110.0	1793.0
27	15	36	14	697	207.0	-222692.0	-2127.0	1778.0
27	15	36	14	697	208.0	-225906.0	-2149.0	1342.0
27	15	36	14	698	209.0	-228616.0	-2176.0	1217.0
27	15	36	14	698	210.0	-231443.0	-2169.0	1286.0
27	15	36	14	729	211.0	-233778.0	-2188.0	907.0
27	15	36	14	730	212.0	-234467.0	-2196.0	619.0
27	15	36	14	730	213.0	-234024.0	-2220.0	715.0
27	15	36	14	731	214.0	-232089.0	-2251.0	801.0
27	15	36	14	732	215.0	-228716.0	-2274.0	338.0
27	15	36	14	732	216.0	-224472.0	-2294.0	686.0
27	15	36	14	733	217.0	-219959.0	-2293.0	911.0
27	15	36	14	734	218.0	-215313.0	-2302.0	671.0
27	15	36	14	734	219.0	-211066.0	-2310.0	736.0
27	15	36	14	735	220.0	-206749.0	-2338.0	1121.0
27	15	36	14	735	221.0	-202794.0	-2349.0	1927.0
27	15	36	14	736	222.0	-198884.0	-2364.0	2141.0
27	15	36	14	819	223.0	-194897.0	-2371.0	1693.0
27	15	36	14	863	224.0	-190955.0	-2391.0	1456.0
27	15	36	14	864	227.0	-177766.0	-2437.0	603.0
27	15	36	14	864	228.0	-172970.0	-2452.0	761.0
27	15	36	14	865	229.0	-169064.0	-2451.0	846.0
27	15	36	14	866	230.0	-165962.0	-2461.0	1054.0
27	15	36	14	866	231.0	-163449.0	-2479.0	1167.0
27	15	36	14	867	232.0	-161710.0	-2514.0	1248.0
27	15	36	14	868	233.0	-160604.0	-2516.0	1310.0
27	15	36	14	869	234.0	-160819.0	-2516.0	853.0
27	15	36	14	869	235.0	-162062.0	-2506.0	600.0
27	15	36	14	870	236.0	-164408.0	-2534.0	410.0
27	15	36	14	871	237.0	-167363.0	-2562.0	17.0
27	15	36	14	871	238.0	-170522.0	-2584.0	-276.0
27	15	36	14	872	239.0	-173703.0	-2583.0	-182.0
27	15	36	14	873	16.0	-196830.0	-3266.0	-2000.0
27	15	36	14	873	38.0	-192593.0	-3904.0	741.0
27	15	36	14	874	39.0	-193287.0	-3926.0	668.0
27	15	36	14	875	40.0	-193077.0	-3946.0	724.0
27	15	36	14	875	41.0	-192571.0	-3980.0	459.0
27	15	36	14	876	42.0	-192371.0	-4006.0	525.0
27	15	36	14	876	43.0	-192710.0	-4032.0	1076.0
27	15	36	14	877	44.0	-193653.0	-4072.0	1337.0
27	15	36	14	908	45.0	-195909.0	-4097.0	765.0
27	15	36	14	908	46.0	-199161.0	-4122.0	743.0
27	15	36	14	909	47.0	-202259.0	-4162.0	1102.0
27	15	36	14	910	48.0	-205118.0	-4202.0	1098.0
27	15	36	14	910	49.0	-207537.0	-4251.0	1219.0
27	15	36	14	911	50.0	-208771.0	-4282.0	1311.0
27	15	36	14	911	51.0	-209065.0	-4315.0	811.0
27	15	36	14	912	52.0	-209191.0	-4347.0	-1547.0
27	15	36	14	913	53.0	-208842.0	-4391.0	-1532.0
27	15	36	14	913	54.0	-208559.0	-4426.0	-1319.0
27	15	36	14	914	55.0	-208858.0	-4458.0	-1401.0
27	15	36	14	915	56.0	-209629.0	-4487.0	-1341.0
27	15	36	14	915	57.0	-210456.0	-4524.0	-1394.0
27	15	36	14	916	58.0	-211397.0	-4584.0	-1120.0
27	15	36	14	916	59.0	-211915.0	-4617.0	-1367.0
27	15	36	14	917	61.0	-213654.0	-4681.0	-2824.0
27	15	36	14	918	62.0	-214594.0	-4719.0	-3475.0
27	15	36	14	918	63.0	-215758.0	-4770.0	-3874.0
27	15	36	14	919	64.0	-216894.0	-4811.0	-3304.0
27	15	36	14	919	65.0	-217621.0	-4836.0	-1787.0
27	15	36	14	920	66.0	-217370.0	-4867.0	1743.0
27	15	36	14	952	67.0	-216941.0	-4904.0	5861.0
27	15	36	14	953	68.0	-216362.0	-4944.0	9100.0
27	15	36	14	953	69.0	-215092.0	-4992.0	11606.0
27	15	36	14	954	70.0	-212796.0	-5014.0	14793.0
27	15	36	14	954	71.0	-210102.0	-5066.0	16592.0
27	15	36	14	955	72.0	-207724.0	-5114.0	17711.0
27	15	36	14	956	73.0	-206821.0	-5149.0	17431.0
27	15	36	14	956	74.0	-207397.0	-5186.0	16054.0
27	15	36	14	957	75.0	-209154.0	-5221.0	14698.0
27	15	36	14	957	76.0	-212609.0	-5258.0	13094.0
27	15	36	14	958	77.0	-218074.0	-5300.0	11608.0
27	15	36	14	959	78.0	-225476.0	-5350.0	11025.0
27	15	36	14	959	79.0	-234469.0	-5372.0	10727.0
27	15	36	14	960	80.0	-245261.0	-5419.0	9568.0
27	15	36	14	960	81.0	-257412.0	-5452.0	8498.0
27	15	36	14	961	83.0	-282514.0	-5537.0	5924.0
27	15	36	14	962	84.0	-292163.0	-5572.0	4190.0
27	15	36	14	962	85.0	-298141.0	-5619.0	2031.0
27	15	36	14	963	86.0	-300689.0	-5666.0	315.0
27	15	36	14	963	87.0	-299059.0	-5699.0	-720.0
27	15	36	14	964	88.0	-292652.0	-5735.0	-1389.0
27	15	36	14	964	89.0	-280081.0	-5775.0	-1924.0
27	15	36	14	996	90.0	-262461.0	-5824.0	-1596.0
27	15	36	14	997	91.0	-241399.0	-5872.0	-1618.0
27	15	36	14	998	92.0	-220888.0	-5910.0	-1446.0
27	15	36	14	998	93.0	-204465.0	-5944.0	-1563.0
27	15	36	14	999	94.0	-194406.0	-5979.0	-1949.0
27	15	36	14	999	95.0	-192269.0	-6034.0	-2285.0
27	15	36	15	0	96.0	-197782.0	-6066.0	-2492.0
27	15	36	15	1	97.0	-210047.0	-6109.0	-2487.0
27	15	36	15	1	98.0	-225642.0	-6162.0	-2717.0
27	15	36	15	2	99.0	-241247.0	-6216.0	-2546.0
27	15	36	15	2	100.0	-255967.0	-6270.0	-2577.0
27	15	36	15	3	101.0	-267094.0	-6309.0	-2856.0
27	15	36	15	4	102.0	-267419.0	-6335.0	-2842.0
27	15	36	15	4	103.0	-263324.0	-6386.0	-2540.0
27	15	36	15	5	104.0	-258417.0	-6439.0	-2738.0
27	15	36	15	5	106.0	-207344.0	-6541.0	-2345.0
27	15	36	15	6	107.0	-162769.0	-6591.0	-2124.0
27	15	36	15	6	108.0	-121028.0	-6624.0	-2511.0
27	15	36	15	7	109.0	-90811.0	-6675.0	-2508.0
27	15	36	15	8	110.0	-77537.0	-6730.0	-2262.0
27	15	36	15	8	111.0	-78989.0	-6764.0	-2387.0
27	15	36	15	42	112.0	-88741.0	-6816.0	-2734.0
27	15	36	15	66	113.0	-103183.0	-6871.0	-2133.0
27	15	36	15	67	114.0	-121256.0	-6926.0	-1474.0
27	15	36	15	67	115.0	-141198.0	-6961.0	-1339.0
27	15	36	15	68	116.0	-159798.0	-7002.0	-1318.0
27	15	36	15	68	117.0	-173496.0	-7066.0	-1086.0
27	15	36	15	69	118.0	-180310.0	-7120.0	-971.0
27	15	36	15	70	119.0	-181594.0	-7162.0	-586.0
27	15	36	15	70	120.0	-178207.0	-7221.0	-136.0
27	15	36	15	71	121.0	-171491.0	-7269.0	-355.0
27	15	36	15	71	122.0	-164118.0	-7337.0	-384.0
27	15	36	15	72	123.0	-156354.0	-7380.0	-289.0
27	15	36	15	72	124.0	-148479.0	-7414.0	21.0
27	15	36	15	73	125.0	-142132.0	-7472.0	48.0
27	15	36	15	73	126.0	-138199.0	-7530.0	-161.0
27	15	36	15	74	128.0	-139096.0	-7621.0	-14.0
27	15	36	15	75	129.0	-144028.0	-7677.0	-68.0
27	15	36	15	75	130.0	-151075.0	-7747.0	12.0
27	15	36	15	76	131.0	-159047.0	-7799.0	338.0
27	15	36	15	76	132.0	-167387.0	-7862.0	64.0
27	15	36	15	77	133.0	-174613.0	-7899.0	-50.0
27	15	36	15	89	134.0	-180124.0	-7939.0	-205.0
27	15	36	15	90	135.0	-184567.0	-7991.0	-639.0
27	15	36	15	90	136.0	-188158.0	-8083.0	-297.0
27	15	36	15	91	137.0	-189731.0	-8148.0	-96.0
27	15	36	15	92	138.0	-190937.0	-8211.0	-324.0
27	15	36	15	92	139.0	-190417.0	-8261.0	-466.0
27	15	36	15	93	140.0	-190854.0	-8309.0	-813.0
27	15	36	15	94	141.0	-190786.0	-8374.0	-595.0
27	15	36	15	94	142.0	-191200.0	-8440.0	-833.0
27	15	36	15	95	143.0	-192396.0	-8496.0	-849.0
27	15	36	15	95	144.0	-194906.0	-8571.0	-724.0
27	15	36	15	96	145.0	-198122.0	-8635.0	-695.0
27	15	36	15	97	146.0	-202289.0	-8682.0	-1334.0
27	15	36	15	98	147.0	-206994.0	-8737.0	-884.0
27	15	36	15	98	148.0	-212016.0	-8789.0	-910.0
27	15	36	15	99	150.0	-221134.0	-8935.0	-1569.0
27	15	36	15	99	151.0	-225511.0	-8981.0	-1457.0
27	15	36	15	100	152.0	-230024.0	-9037.0	-1707.0
27	15	36	15	101	153.0	-233646.0	-9106.0	-2054.0
27	15	36	15	101	154.0	-236227.0	-9181.0	-1814.0
27	15	36	15	102	155.0	-237690.0	-9234.0	-1522.0
27	15	36	15	102	156.0	-237542.0	-9291.0	-1795.0
27	15	36	15	148	157.0	-235483.0	-9338.0	-1987.0
27	15	36	15	166	158.0	-232619.0	-9414.0	-1797.0
27	15	36	15	166	159.0	-228779.0	-9482.0	-1551.0
27	15	36	15	167	160.0	-222861.0	-9529.0	-1957.0
27	15	36	15	168	161.0	-216586.0	-9588.0	-2167.0
27	15	36	15	168	162.0	-209842.0	-9644.0	-2052.0
27	15	36	15	169	163.0	-202895.0	-9687.0	-2076.0
27	15	36	15	170	164.0	-195707.0	-9730.0	-1916.0
27	15	36	15	170	165.0	-190139.0	-9766.0	-1580.0
27	15	36	15	171	166.0	-186423.0	-9839.0	-1331.0
27	15	36	15	171	167.0	-183931.0	-9876.0	-1759.0
27	15	36	15	172	168.0	-182649.0	-9896.0	-1866.0
27	15	36	15	172	169.0	-182450.0	-9929.0	-1709.0
27	15	36	15	173	170.0	-183433.0	-9974.0	-1960.0
27	15	36	15	174	171.0	-184626.0	-9996.0	-2067.0
27	15	36	15	174	180.0	-206443.0	-9982.0	-519.0
27	15	36	15	175	188.0	-226637.0	-9704.0	4125.0
27	15	36	15	175	189.0	-227471.0	-9646.0	4429.0
27	15	36	15	176	190.0	-227344.0	-9592.0	4516.0
27	15	36	15	176	191.0	-226422.0	-9516.0	4709.0
27	15	36	15	177	192.0	-225800.0	-9441.0	4547.0
27	15	36	15	178	193.0	-224463.0	-9368.0	4244.0
27	15	36	15	178	194.0	-223445.0	-9297.0	4249.0
27	15	36	15	179	195.0	-223811.0	-9222.0	4761.0
27	15	36	15	192	196.0	-224118.0	-9147.0	6078.0
27	15	36	15	192	197.0	-224532.0	-9046.0	10296.0
27	15	36	15	193	198.0	-225074.0	-8962.0	17569.0
27	15	36	15	194	199.0	-224182.0	-8867.0	22841.0
27	15	36	15	194	200.0	-223966.0	-8776.0	25814.0
27	15	36	15	195	201.0	-224791.0	-8676.0	23350.0
27	15	36	15	195	202.0	-226129.0	-8573.0	18040.0
27	15	36	15	196	203.0	-226803.0	-8472.0	15315.0
27	15	36	15	196	204.0	-226651.0	-8363.0	13363.0
27	15	36	15	215	205.0	-226268.0	-8280.0	12063.0
27	15	36	15	215	206.0	-226576.0	-8174.0	10911.0
27	15	36	15	216	207.0	-225339.0	-8072.0	10085.0
27	15	36	15	217	208.0	-226043.0	-7955.0	9356.0
27	15	36	15	217	209.0	-225488.0	-7847.0	8968.0
27	15	36	15	218	210.0	-224619.0	-7760.0	8748.0
27	15	36	15	218	211.0	-224080.0	-7658.0	8569.0
27	15	36	15	238	212.0	-222466.0	-7544.0	8666.0
27	15	36	15	239	213.0	-221093.0	-7451.0	8806.0
27	15	36	15	239	214.0	-220185.0	-7364.0	8944.0
27	15	36	15	240	215.0	-218601.0	-7252.0	8468.0
27	15	36	15	240	216.0	-217332.0	-7159.0	8228.0
27	15	36	15	241	217.0	-214931.0	-7066.0	8350.0
27	15	36	15	241	218.0	-214005.0	-6979.0	8134.0
27	15	36	15	242	219.0	-211426.0	-6871.0	8252.0
27	15	36	15	260	220.0	-208802.0	-6777.0	8604.0
27	15	36	15	261	221.0	-207438.0	-6697.0	8793.0
27	15	36	15	262	222.0	-204691.0	-6602.0	9358.0
27	15	36	15	262	223.0	-201584.0	-6521.0	9234.0
27	15	36	15	263	224.0	-198825.0	-6413.0	9079.0
27	15	36	15	263	225.0	-194741.0	-6339.0	9570.0
27	15	36	15	264	226.0	-191199.0	-6279.0	10528.0
27	15	36	15	265	227.0	-187152.0	-6197.0	11244.0
27	15	36	15	265	228.0	-182265.0	-6101.0	10850.0
27	15	36	15	266	229.0	-178147.0	-6034.0	11146.0
27	15	36	15	266	230.0	-172497.0	-5958.0	11347.0
27	15	36	15	267	231.0	-162462.0	-5874.0	11996.0
27	15	36	15	267	232.0	-145626.0	-5789.0	11653.0
27	15	36	15	268	233.0	-138275.0	-5723.0	11345.0
27	15	36	15	269	234.0	-145379.0	-5644.0	11063.0
27	15	36	15	269	235.0	-159952.0	-5567.0	11043.0
27	15	36	15	270	236.0	-179175.0	-5490.0	10841.0
27	15	36	15	270	237.0	-193592.0	-5442.0	10733.0
27	15	36	15	271	238.0	-201237.0	-5379.0	10921.0
27	15	36	15	271	239.0	-203771.0	-5302.0	11260.0
27	15	36	15	284	240.0	-202049.0	-5236.0	11737.0
27	15	36	15	307	241.0	-199534.0	-5166.0	12356.0
27	15	36	15	307	242.0	-195844.0	-5103.0	11734.0
27	15	36	15	308	243.0	-189112.0	-5019.0	11141.0
27	15	36	15	309	244.0	-181571.0	-4952.0	11623.0
27	15	36	15	309	245.0	-172406.0	-4896.0	11660.0
27	15	36	15	310	246.0	-164077.0	-4829.0	10806.0
27	15	36	15	310	247.0	-158095.0	-4775.0	10863.0
27	15	36	15	311	248.0	-155622.0	-4693.0	10947.0
27	15	36	15	312	249.0	-154152.0	-4639.0	11141.0
27	15	36	15	312	250.0	-154431.0	-4564.0	11598.0
27	15	36	15	313	251.0	-154591.0	-4521.0	11544.0
27	15	36	15	313	252.0	-157181.0	-4457.0	11542.0
27	15	36	15	314	253.0	-160229.0	-4381.0	11112.0
27	15	36	15	314	254.0	-163352.0	-4312.0	11372.0
27	15	36	15	315	255.0	-170522.0	-4247.0	11896.0
27	15	36	15	315	0.0	-174908.0	-4197.0	12147.0
27	15	36	15	316	1.0	-179969.0	-4113.0	11689.0
27	15	36	15	317	2.0	-183687.0	-4057.0	11554.0
27	15	36	15	317	3.0	-187705.0	-3996.0	11524.0
27	15	36	15	318	4.0	-192909.0	-3948.0	11371.0
27	15	36	15	318	5.0	-197557.0	-3896.0	11330.0
27	15	36	15	319	6.0	-202848.0	-3842.0	11872.0
27	15	36	15	342	7.0	-208366.0	-3774.0	12209.0
27	15	36	15	343	8.0	-214221.0	-3713.0	12015.0
27	15	36	15	344	9.0	-218912.0	-3661.0	12141.0
27	15	36	15	363	10.0	-224768.0	-3607.0	12351.0
27	15	36	15	364	11.0	-227935.0	-3551.0	11900.0
27	15	36	15	364	12.0	-228777.0	-3514.0	12231.0
27	15	36	15	365	13.0	-232033.0	-3462.0	12185.0
27	15	36	15	366	14.0	-235437.0	-3412.0	11761.0
27	15	36	15	366	15.0	-236114.0	-3367.0	12031.0
27	15	36	15	367	16.0	-237980.0	-3335.0	11857.0
27	15	36	15	367	17.0	-239153.0	-3296.0	11946.0
27	15	36	15	368	18.0	-238914.0	-3261.0	11421.0
27	15	36	15	368	19.0	-238483.0	-3212.0	11041.0
27	15	36	15	369	20.0	-238435.0	-3189.0	10898.0
27	15	36	15	370	21.0	-236708.0	-3151.0	11234.0
27	15	36	15	370	22.0	-233758.0	-3106.0	11305.0
27	15	36	15	371	23.0	-230750.0	-3075.0	12140.0
27	15	36	15	371	24.0	-226111.0	-3069.0	12515.0
27	15	36	15	372	25.0	-221845.0	-3022.0	12078.0
27	15	36	15	373	26.0	-218511.0	-3004.0	12198.0
27	15	36	15	373	27.0	-214043.0	-2981.0	12772.0
27	15	36	15	374	28.0	-208656.0	-2960.0	12525.0
27	15	36	15	375	29.0	-202699.0	-2936.0	12537.0
27	15	36	15	375	30.0	-199116.0	-2921.0	13023.0
27	15	36	15	376	31.0	-194782.0	-2903.0	13191.0
27	15	36	15	376	32.0	-188616.0	-2894.0	13217.0
27	15	36	15	377	33.0	-186123.0	-2892.0	12884.0
27	15	36	15	377	34.0	-184289.0	-2884.0	12820.0
27	15	36	15	378	35.0	-182815.0	-2880.0	12136.0
27	15	36	15	379	36.0	-183337.0	-2867.0	12509.0
27	15	36	15	379	37.0	-185482.0	-2865.0	12672.0
27	15	36	15	380	38.0	-186136.0	-2879.0	13406.0
27	15	36	15	387	39.0	-188149.0	-2861.0	13416.0
27	15	36	15	388	40.0	-192132.0	-2857.0	13475.0
27	15	36	15	389	41.0	-195126.0	-2849.0	13411.0
27	15	36	15	389	42.0	-199051.0	-2832.0	14146.0
27	15	36	15	390	43.0	-205462.0	-2824.0	14161.0
27	15	36	15	390	44.0	-212056.0	-2833.0	14026.0
27	15	36	15	391	45.0	-219096.0	-2854.0	13474.0
27	15	36	15	410	46.0	-225979.0	-2846.0	13321.0
27	15	36	15	411	47.0	-233834.0	-2872.0	14240.0
27	15	36	15	411	48.0	-239952.0	-2867.0	15586.0
27	15	36	15	412	49.0	-246569.0	-2878.0	15344.0
27	15	36	15	413	50.0	-251951.0	-2896.0	14541.0
27	15	36	15	413	51.0	-254346.0	-2892.0	14162.0
27	15	36	15	414	52.0	-255611.0	-2879.0	13755.0
27	15	36	15	433	53.0	-257332.0	-2890.0	13658.0
27	15	36	15	434	54.0	-257652.0	-2906.0	14282.0
27	15	36	15	434	55.0	-255407.0	-2904.0	14730.0
27	15	36	15	435	56.0	-252662.0	-2904.0	14891.0
27	15	36	15	435	57.0	-249454.0	-2926.0	15086.0
27	15	36	15	436	58.0	-245822.0	-2932.0	15678.0
27	15	36	15	436	59.0	-242068.0	-2936.0	16167.0
27	15	36	15	437	60.0	-238336.0	-2937.0	15516.0
27	15	36	15	438	61.0	-235354.0	-2962.0	15464.0
27	15	36	15	438	62.0	-231576.0	-2979.0	15659.0
27	15	36	15	439	63.0	-228355.0	-2980.0	16130.0
27	15	36	15	439	64.0	-225835.0	-2998.0	16433.0
27	15	36	15	440	65.0	-222202.0	-3011.0	15812.0
27	15	36	15	441	66.0	-219193.0	-3032.0	15525.0
27	15	36	15	441	67.0	-216960.0	-3046.0	14974.0
27	15	36	15	461	68.0	-214002.0	-3055.0	15331.0
27	15	36	15	462	69.0	-211824.0	-3075.0	15401.0
27	15	36	15	463	70.0	-209256.0	-3082.0	15820.0
27	15	36	15	463	71.0	-207074.0	-3089.0	15586.0
27	15	36	15	464	72.0	-204594.0	-3089.0	15162.0
27	15	36	15	465	73.0	-201279.0	-3096.0	14986.0
27	15	36	15	465	74.0	-199216.0	-3116.0	14632.0
27	15	36	15	466	75.0	-197299.0	-3117.0	14544.0
27	15	36	15	467	76.0	-194831.0	-3112.0	14534.0
27	15	36	15	467	77.0	-193232.0	-3135.0	13739.0
27	15	36	15	468	78.0	-192079.0	-3140.0	13536.0
27	15	36	15	469	79.0	-190227.0	-3149.0	13565.0
27	15	36	15	469	80.0	-189290.0	-3157.0	13078.0
27	15	36	15	470	81.0	-187897.0	-3148.0	13142.0
27	15	36	15	471	82.0	-185477.0	-3146.0	13449.0
27	15	36	15	471	83.0	-184370.0	-3171.0	13781.0
27	15	36	15	472	84.0	-183904.0	-3191.0	14449.0
27	15	36	15	473	85.0	-182887.0	-3195.0	14373.0
27	15	36	15	473	86.0	-181375.0	-3190.0	13548.0
27	15	36	15	481	87.0	-180669.0	-3206.0	13134.0
27	15	36	15	482	88.0	-180109.0	-3216.0	13609.0
27	15	36	15	505	89.0	-180084.0	-3230.0	13679.0
27	15	36	15	506	90.0	-180432.0	-3232.0	13476.0
27	15	36	15	507	91.0	-180922.0	-3239.0	13681.0
27	15	36	15	507	92.0	-182682.0	-3260.0	15521.0
27	15	36	15	508	93.0	-184677.0	-3262.0	16055.0
27	15	36	15	508	94.0	-185751.0	-3272.0	14940.0
27	15	36	15	509	95.0	-186184.0	-3294.0	14071.0
27	15	36	15	510	96.0	-185156.0	-3302.0	14526.0
27	15	36	15	510	97.0	-182614.0	-3301.0	15215.0
27	15	36	15	511	98.0	-179321.0	-3314.0	16307.0
27	15	36	15	511	99.0	-174222.0	-3318.0	16347.0
27	15	36	15	512	100.0	-168567.0	-3328.0	16424.0
27	15	36	15	513	101.0	-162890.0	-3369.0	16198.0
27	15	36	15	513	102.0	-158016.0	-3366.0	15920.0
27	15	36	15	514	103.0	-155141.0	-3384.0	15475.0
27	15	36	15	514	104.0	-152874.0	-3414.0	15673.0
27	15	36	15	529	105.0	-152369.0	-3416.0	15320.0
27	15	36	15	530	106.0	-153277.0	-3446.0	15790.0
27	15	36	15	530	107.0	-155142.0	-3461.0	15939.0
27	15	36	15	531	108.0	-156757.0	-3468.0	15912.0
27	15	36	15	531	109.0	-158526.0	-3483.0	15996.0
27	15	36	15	532	110.0	-160400.0	-3518.0	16069.0
27	15	36	15	532	111.0	-161814.0	-3543.0	16856.0
27	15	36	15	533	112.0	-162443.0	-3570.0	17434.0
27	15	36	15	551	113.0	-162061.0	-3595.0	17753.0
27	15	36	15	552	114.0	-161796.0	-3602.0	18221.0
27	15	36	15	553	115.0	-161537.0	-3612.0	17845.0
27	15	36	15	553	116.0	-161144.0	-3652.0	17389.0
27	15	36	15	554	117.0	-160896.0	-3672.0	17323.0
27	15	36	15	555	118.0	-160697.0	-3712.0	17667.0
27	15	36	15	555	119.0	-160691.0	-3740.0	17344.0
27	15	36	15	556	120.0	-160937.0	-3750.0	17396.0
27	15	36	15	557	121.0	-161379.0	-3764.0	18196.0
27	15	36	15	557	122.0	-162288.0	-3794.0	17411.0
27	15	36	15	558	123.0	-163050.0	-3822.0	17029.0
27	15	36	15	559	124.0	-164436.0	-3837.0	16663.0
27	15	36	15	559	125.0	-165351.0	-3874.0	16754.0
27	15	36	15	560	126.0	-166081.0	-3905.0	17737.0
27	15	36	15	561	127.0	-167113.0	-3921.0	17396.0
27	15	36	15	561	128.0	-168229.0	-3947.0	17261.0
27	15	36	15	562	129.0	-169184.0	-3973.0	16966.0
27	15	36	15	562	130.0	-170344.0	-4006.0	16779.0
27	15	36	15	574	131.0	-171805.0	-4041.0	16006.0
27	15	36	15	575	132.0	-173239.0	-4074.0	13966.0
27	15	36	15	575	133.0	-174931.0	-4085.0	12688.0
27	15	36	15	599	134.0	-176057.0	-4117.0	12124.0
27	15	36	15	600	135.0	-177066.0	-4140.0	12626.0
27	15	36	15	601	136.0	-177807.0	-4183.0	14882.0
27	15	36	15	601	137.0	-177626.0	-4230.0	18801.0
27	15	36	15	602	138.0	-177081.0	-4263.0	22586.0
27	15	36	15	603	139.0	-176691.0	-4308.0	26108.0
27	15	36	15	603	140.0	-176896.0	-4330.0	30262.0
27	15	36	15	604	141.0	-178021.0	-4359.0	32872.0
27	15	36	15	605	142.0	-179516.0	-4404.0	34256.0
27	15	36	15	605	143.0	-181579.0	-4437.0	33657.0
27	15	36	15	606	144.0	-184241.0	-4461.0	33843.0
27	15	36	15	607	145.0	-187578.0	-4492.0	34200.0
27	15	36	15	607	146.0	-191027.0	-4523.0	33853.0
27	15	36	15	608	147.0	-194704.0	-4556.0	33658.0
27	15	36	15	608	148.0	-198539.0	-4591.0	33363.0
27	15	36	15	609	149.0	-201432.0	-4640.0	32633.0
27	15	36	15	610	150.0	-204118.0	-4674.0	31085.0
27	15	36	15	610	151.0	-206832.0	-4714.0	30894.0
27	15	36	15	611	152.0	-208801.0	-4744.0	30100.0
27	15	36	15	612	153.0	-209738.0	-4786.0	28319.0
27	15	36	15	612	154.0	-210479.0	-4817.0	26550.0
27	15	36	15	613	155.0	-209326.0	-4852.0	23660.0
27	15	36	15	613	156.0	-207659.0	-4871.0	21248.0
27	15	36	15	628	157.0	-205265.0	-4912.0	19981.0
27	15	36	15	629	158.0	-201179.0	-4941.0	19173.0
27	15	36	15	630	159.0	-194626.0	-4989.0	18636.0
27	15	36	15	630	160.0	-184357.0	-5030.0	18240.0
27	15	36	15	631	161.0	-169867.0	-5062.0	18395.0
27	15	36	15	632	162.0	-153674.0	-5091.0	18725.0
27	15	36	15	632	163.0	-137574.0	-5132.0	20328.0
27	15	36	15	633	164.0	-124264.0	-5166.0	20176.0
27	15	36	15	633	165.0	-117519.0	-5206.0	19408.0
27	15	36	15	645	166.0	-119879.0	-5254.0	19603.0
27	15	36	15	646	167.0	-133262.0	-5294.0	19414.0
27	15	36	15	646	168.0	-157341.0	-5315.0	19053.0
27	15	36	15	647	169.0	-188236.0	-5347.0	19063.0
27	15	36	15	648	170.0	-221900.0	-5396.0	20598.0
27	15	36	15	648	171.0	-254634.0	-5432.0	21556.0
27	15	36	15	649	172.0	-282671.0	-5466.0	20588.0
27	15	36	15	667	173.0	-306421.0	-5527.0	19388.0
27	15	36	15	668	174.0	-320870.0	-5584.0	18218.0
27	15	36	15	669	175.0	-322894.0	-5616.0	17746.0
27	15	36	15	670	176.0	-315404.0	-5632.0	17241.0
27	15	36	15	671	177.0	-301602.0	-5699.0	16930.0
27	15	36	15	671	178.0	-284859.0	-5746.0	18486.0
27	15	36	15	672	179.0	-268085.0	-5759.0	18351.0
27	15	36	15	673	180.0	-253982.0	-5787.0	17138.0
27	15	36	15	674	181.0	-243789.0	-5827.0	17198.0
27	15	36	15	674	182.0	-239077.0	-5859.0	17532.0
27	15	36	15	675	183.0	-239698.0	-5896.0	18189.0
27	15	36	15	675	184.0	-244426.0	-5947.0	19331.0
27	15	36	15	676	185.0	-252890.0	-5988.0	19774.0
27	15	36	15	677	186.0	-262692.0	-6021.0	19861.0
27	15	36	15	677	187.0	-271134.0	-6060.0	19410.0
27	15	36	15	694	188.0	-275441.0	-6103.0	19275.0
27	15	36	15	695	189.0	-276296.0	-6126.0	19123.0
27	15	36	15	695	190.0	-275302.0	-6182.0	18901.0
27	15	36	15	696	191.0	-271492.0	-6229.0	19993.0
27	15	36	15	697	192.0	-264609.0	-6262.0	21042.0
27	15	36	15	697	193.0	-254606.0	-6306.0	21509.0
27	15	36	15	698	194.0	-243414.0	-6330.0	20268.0
27	15	36	15	717	195.0	-231678.0	-6369.0	20273.0
27	15	36	15	717	196.0	-220033.0	-6441.0	20947.0
27	15	36	15	718	197.0	-209505.0	-6481.0	20386.0
27	15	36	15	719	198.0	-199674.0	-6529.0	19512.0
27	15	36	15	719	199.0	-191014.0	-6569.0	19887.0
27	15	36	15	720	200.0	-183383.0	-6603.0	21371.0
27	15	36	15	721	201.0	-177264.0	-6654.0	22108.0
27	15	36	15	721	202.0	-172473.0	-6699.0	22831.0
27	15	36	15	722	203.0	-168429.0	-6746.0	24239.0
27	15	36	15	722	204.0	-164829.0	-6799.0	25081.0
27	15	36	15	723	205.0	-161329.0	-6857.0	25997.0
27	15	36	15	723	206.0	-159281.0	-6909.0	26785.0
27	15	36	15	724	207.0	-158530.0	-6949.0	27388.0
27	15	36	15	725	208.0	-158221.0	-7011.0	27816.0
27	15	36	15	725	209.0	-157878.0	-7065.0	27341.0
27	15	36	15	739	210.0	-157834.0	-7106.0	26129.0
27	15	36	15	739	211.0	-158636.0	-7152.0	24679.0
27	15	36	15	740	212.0	-160141.0	-7206.0	23768.0
27	15	36	15	741	213.0	-161199.0	-7254.0	23206.0
27	15	36	15	741	214.0	-161956.0	-7309.0	22776.0
27	15	36	15	742	215.0	-163029.0	-7355.0	21878.0
27	15	36	15	742	216.0	-164410.0	-7390.0	21296.0
27	15	36	15	743	217.0	-166876.0	-7424.0	21082.0
27	15	36	15	761	218.0	-170367.0	-7485.0	20724.0
27	15	36	15	762	219.0	-175506.0	-7541.0	20567.0
27	15	36	15	762	220.0	-182561.0	-7586.0	20346.0
27	15	36	15	763	221.0	-190393.0	-7639.0	19847.0
27	15	36	15	764	222.0	-198551.0	-7690.0	19296.0
27	15	36	15	764	223.0	-207149.0	-7738.0	19836.0
27	15	36	15	765	224.0	-215149.0	-7779.0	19955.0
27	15	36	15	766	225.0	-222094.0	-7818.0	19716.0
27	15	36	15	766	226.0	-227827.0	-7887.0	19460.0
27	15	36	15	767	227.0	-232731.0	-7933.0	19464.0
27	15	36	15	767	228.0	-236036.0	-7993.0	18911.0
27	15	36	15	768	229.0	-238676.0	-8033.0	17808.0
27	15	36	15	768	230.0	-240547.0	-8099.0	17656.0
27	15	36	15	769	231.0	-241064.0	-8132.0	17204.0
27	15	36	15	770	232.0	-240864.0	-8176.0	17551.0
27	15	36	15	784	233.0	-239701.0	-8216.0	17507.0
27	15	36	15	785	234.0	-237900.0	-8268.0	17707.0
27	15	36	15	785	235.0	-235529.0	-8316.0	17964.0
27	15	36	15	786	236.0	-232645.0	-8351.0	17203.0
27	15	36	15	786	237.0	-229579.0	-8397.0	16545.0
27	15	36	15	787	238.0	-226184.0	-8429.0	16813.0
27	15	36	15	788	239.0	-222197.0	-8449.0	16411.0
27	15	36	15	810	240.0	-218334.0	-8480.0	16028.0
27	15	36	15	812	241.0	-214662.0	-8512.0	16278.0
27	15	36	15	813	242.0	-210725.0	-8549.0	15896.0
27	15	36	15	814	243.0	-205794.0	-8566.0	15427.0
27	15	36	15	814	244.0	-199984.0	-8586.0	15065.0
27	15	36	15	815	245.0	-194655.0	-8594.0	15021.0
27	15	36	15	815	246.0	-189752.0	-8601.0	14278.0
27	15	36	15	816	247.0	-185657.0	-8599.0	14039.0
27	15	36	15	816	248.0	-182850.0	-8603.0	13950.0
27	15	36	15	817	249.0	-181646.0	-8597.0	14288.0
27	15	36	15	817	250.0	-182363.0	-8587.0	15146.0
27	15	36	15	818	251.0	-183865.0	-8568.0	15615.0
27	15	36	15	818	252.0	-186109.0	-8540.0	15734.0
27	15	36	15	820	253.0	-189691.0	-8521.0	15827.0
27	15	36	15	821	254.0	-194424.0	-8494.0	15884.0
27	15	36	15	821	255.0	-199406.0	-8444.0	16176.0
27	15	36	15	822	0.0	-204696.0	-8407.0	16338.0
27	15	36	15	823	1.0	-210389.0	-8371.0	16071.0
27	15	36	15	823	2.0	-216641.0	-8324.0	16269.0
27	15	36	15	824	3.0	-222884.0	-8283.0	16506.0
27	15	36	15	824	4.0	-228632.0	-8211.0	16497.0
27	15	36	15	825	5.0	-233644.0	-8135.0	18181.0
27	15	36	15	837	6.0	-238193.0	-8063.0	20290.0
27	15	36	15	838	7.0	-241518.0	-7995.0	20584.0
27	15	36	15	838	8.0	-243071.0	-7915.0	20571.0
27	15	36	15	839	9.0	-242737.0	-7827.0	20559.0
27	15	36	15	840	10.0	-240791.0	-7756.0	21154.0
27	15	36	15	840	11.0	-238539.0	-7682.0	22614.0
27	15	36	15	841	12.0	-235464.0	-7589.0	24049.0
27	15	36	15	841	13.0	-231664.0	-7498.0	24355.0
27	15	36	15	842	14.0	-228391.0	-7399.0	24320.0
27	15	36	15	859	15.0	-226542.0	-7314.0	24919.0
27	15	36	15	860	16.0	-225796.0	-7211.0	24974.0
27	15	36	15	861	17.0	-224599.0	-7118.0	25030.0
27	15	36	15	861	18.0	-222992.0	-7026.0	24592.0
27	15	36	15	862	19.0	-221199.0	-6908.0	24794.0
27	15	36	15	883	20.0	-219793.0	-6804.0	24316.0
27	15	36	15	884	21.0	-218384.0	-6704.0	24012.0
27	15	36	15	884	22.0	-216923.0	-6601.0	24022.0
27	15	36	15	885	23.0	-215355.0	-6504.0	23913.0
27	15	36	15	886	24.0	-213792.0	-6396.0	24042.0
27	15	36	15	886	25.0	-212400.0	-6297.0	23319.0
27	15	36	15	887	26.0	-211159.0	-6192.0	23241.0
27	15	36	15	887	27.0	-209891.0	-6100.0	23629.0
27	15	36	15	888	28.0	-208284.0	-6003.0	23848.0
27	15	36	15	888	29.0	-206651.0	-5888.0	24132.0
27	15	36	15	889	30.0	-204605.0	-5774.0	24632.0
27	15	36	15	906	31.0	-201504.0	-5687.0	25065.0
27	15	36	15	907	32.0	-198446.0	-5586.0	24526.0
27	15	36	15	907	33.0	-195175.0	-5474.0	24361.0
27	15	36	15	908	34.0	-191101.0	-5384.0	24777.0
27	15	36	15	908	35.0	-186327.0	-5278.0	24435.0
27	15	36	15	909	36.0	-181093.0	-5194.0	24561.0
27	15	36	15	909	37.0	-175681.0	-5126.0	25004.0
27	15	36	15	910	38.0	-169812.0	-5029.0	25418.0
27	15	36	15	910	39.0	-163591.0	-4938.0	25769.0
27	15	36	15	911	40.0	-156678.0	-4842.0	26112.0
27	15	36	15	912	41.0	-147681.0	-4773.0	26609.0
27	15	36	15	912	42.0	-135147.0	-4704.0	26774.0
27	15	36	15	913	43.0	-122651.0	-4619.0	26282.0
27	15	36	15	913	44.0	-118795.0	-4514.0	26216.0
27	15	36	15	914	45.0	-129359.0	-4442.0	26571.0
27	15	36	15	914	46.0	-147564.0	-4379.0	26748.0
27	15	36	15	915	47.0	-167187.0	-4319.0	27004.0
27	15	36	15	915	48.0	-181446.0	-4252.0	26973.0
27	15	36	15	916	49.0	-191174.0	-4174.0	27214.0
27	15	36	15	929	50.0	-196756.0	-4096.0	27091.0
27	15	36	15	930	51.0	-199524.0	-4031.0	26843.0
27	15	36	15	930	52.0	-200217.0	-3964.0	26736.0
27	15	36	15	931	53.0	-197389.0	-3889.0	25933.0
27	15	36	15	932	54.0	-192889.0	-3811.0	25683.0
27	15	36	15	932	55.0	-186166.0	-3761.0	25246.0
27	15	36	15	933	56.0	-177828.0	-3689.0	24550.0
27	15	36	15	933	57.0	-171802.0	-3617.0	24917.0
27	15	36	15	934	58.0	-168794.0	-3555.0	25805.0
27	15	36	15	934	59.0	-169056.0	-3502.0	26135.0
27	15	36	15	953	60.0	-172550.0	-3421.0	25823.0
27	15	36	15	954	61.0	-178687.0	-3353.0	25369.0
27	15	36	15	954	62.0	-185528.0	-3299.0	24611.0
27	15	36	15	955	63.0	-191887.0	-3236.0	24061.0
27	15	36	15	955	64.0	-196532.0	-3164.0	23504.0
27	15	36	15	956	65.0	-200221.0	-3104.0	23346.0
27	15	36	15	957	66.0	-203208.0	-3040.0	24506.0
27	15	36	15	957	67.0	-206542.0	-2978.0	24877.0
27	15	36	15	958	68.0	-209802.0	-2923.0	23830.0
27	15	36	15	958	69.0	-212210.0	-2851.0	23013.0
27	15	36	15	959	70.0	-214591.0	-2807.0	22631.0
27	15	36	15	960	71.0	-217123.0	-2743.0	22343.0
27	15	36	15	960	72.0	-218826.0	-2687.0	22569.0
27	15	36	15	961	73.0	-220456.0	-2627.0	22156.0
27	15	36	15	976	74.0	-222450.0	-2567.0	22458.0
27	15	36	15	977	75.0	-225204.0	-2524.0	23533.0
27	15	36	15	977	76.0	-228803.0	-2452.0	23493.0
27	15	36	15	978	77.0	-234131.0	-2408.0	22614.0
27	15	36	15	978	78.0	-239266.0	-2351.0	21943.0
27	15	36	15	979	79.0	-243138.0	-2304.0	21863.0
27	15	36	15	979	80.0	-246099.0	-2261.0	21281.0
27	15	36	15	999	81.0	-248427.0	-2211.0	21126.0
27	15	36	16	0	82.0	-249999.0	-2164.0	21164.0
27	15	36	16	1	83.0	-250644.0	-2135.0	21018.0
27	15	36	16	1	84.0	-250409.0	-2105.0	20569.0
27	15	36	16	2	85.0	-249134.0	-2055.0	20196.0
27	15	36	16	3	86.0	-247299.0	-2015.0	20306.0
27	15	36	16	3	87.0	-244893.0	-1971.0	19835.0
27	15	36	16	4	88.0	-242187.0	-1944.0	20596.0
27	15	36	16	4	89.0	-240045.0	-1904.0	23248.0
27	15	36	16	5	90.0	-237701.0	-1889.0	23466.0
27	15	36	16	5	91.0	-235589.0	-1890.0	22426.0
27	15	36	16	6	92.0	-234607.0	-1861.0	21571.0
27	15	36	16	7	93.0	-233772.0	-1841.0	21309.0
27	15	36	16	7	94.0	-233050.0	-1813.0	21475.0
27	15	36	16	8	95.0	-232522.0	-1781.0	21903.0
27	15	36	16	22	96.0	-232172.0	-1774.0	22488.0
27	15	36	16	23	97.0	-232197.0	-1773.0	22345.0
27	15	36	16	23	98.0	-231241.0	-1751.0	22009.0
27	15	36	16	24	99.0	-229962.0	-1751.0	22436.0
27	15	36	16	25	100.0	-228742.0	-1751.0	22354.0
27	15	36	16	25	101.0	-226652.0	-1746.0	22223.0
27	15	36	16	26	102.0	-223716.0	-1739.0	22339.0
27	15	36	16	26	103.0	-219762.0	-1744.0	22646.0
27	15	36	16	45	104.0	-216159.0	-1734.0	22833.0
27	15	36	16	46	105.0	-212860.0	-1730.0	22981.0
27	15	36	16	46	106.0	-208909.0	-1726.0	23433.0
27	15	36	16	47	107.0	-204672.0	-1725.0	23546.0
27	15	36	16	47	108.0	-199722.0	-1751.0	23348.0
27	15	36	16	48	109.0	-194455.0	-1741.0	23216.0
27	15	36	16	49	110.0	-189396.0	-1734.0	23111.0
27	15	36	16	49	111.0	-184152.0	-1721.0	23047.0
27	15	36	16	50	112.0	-178952.0	-1718.0	22831.0
27	15	36	16	50	113.0	-174193.0	-1732.0	22901.0
27	15	36	16	51	114.0	-170042.0	-1737.0	23419.0
27	15	36	16	51	115.0	-166357.0	-1737.0	23975.0
27	15	36	16	52	116.0	-163176.0	-1747.0	24325.0
27	15	36	16	67	117.0	-161220.0	-1760.0	23894.0
27	15	36	16	68	118.0	-160677.0	-1769.0	23458.0
27	15	36	16	68	119.0	-161889.0	-1774.0	23593.0
27	15	36	16	69	120.0	-163947.0	-1762.0	23367.0
27	15	36	16	70	121.0	-166934.0	-1758.0	23018.0
27	15	36	16	70	122.0	-170965.0	-1778.0	23306.0
27	15	36	16	71	123.0	-175556.0	-1777.0	23693.0
27	15	36	16	71	124.0	-180677.0	-1765.0	23719.0
27	15	36	16	72	125.0	-186537.0	-1776.0	23479.0
27	15	36	16	72	126.0	-192842.0	-1774.0	23571.0
27	15	36	16	91	127.0	-198471.0	-1775.0	23973.0
27	15	36	16	92	128.0	-203097.0	-1782.0	23809.0
27	15	36	16	93	129.0	-206511.0	-1801.0	23266.0
27	15	36	16	93	130.0	-209137.0	-1800.0	23349.0
27	15	36	16	94	131.0	-210904.0	-1805.0	23536.0
27	15	36	16	94	132.0	-212415.0	-1807.0	23448.0
27	15	36	16	95	133.0	-213971.0	-1808.0	22411.0
27	15	36	16	114	134.0	-215684.0	-1816.0	22228.0
27	15	36	16	114	135.0	-216682.0	-1833.0	22617.0
27	15	36	16	115	136.0	-216864.0	-1835.0	22304.0
27	15	36	16	116	137.0	-216852.0	-1837.0	21828.0
27	15	36	16	116	138.0	-216312.0	-1852.0	22126.0
27	15	36	16	117	139.0	-215499.0	-1856.0	21706.0
27	15	36	16	117	140.0	-214050.0	-1871.0	23072.0
27	15	36	16	118	141.0	-211869.0	-1881.0	24443.0
27	15	36	16	119	142.0	-209997.0	-1916.0	25369.0
27	15	36	16	119	143.0	-207691.0	-1917.0	25911.0
27	15	36	16	120	144.0	-204745.0	-1931.0	25956.0
27	15	36	16	120	145.0	-202077.0	-1949.0	26391.0
27	15	36	16	121	146.0	-199499.0	-1950.0	26168.0
27	15	36	16	122	147.0	-197317.0	-1944.0	25669.0
27	15	36	16	122	148.0	-195896.0	-1955.0	25681.0
27	15	36	16	123	149.0	-195291.0	-1972.0	25571.0
27	15	36	16	123	150.0	-195351.0	-1974.0	25107.0
27	15	36	16	124	151.0	-195808.0	-1988.0	24948.0
27	15	36	16	124	152.0	-196832.0	-2010.0	24934.0
27	15	36	16	125	153.0	-198412.0	-2024.0	24878.0
27	15	36	16	126	154.0	-200406.0	-2047.0	24956.0
27	15	36	16	136	155.0	-202186.0	-2058.0	24886.0
27	15	36	16	137	156.0	-203762.0	-2076.0	24755.0
27	15	36	16	138	157.0	-204717.0	-2088.0	24484.0
27	15	36	16	138	158.0	-205572.0	-2116.0	24718.0
27	15	36	16	139	159.0	-206642.0	-2135.0	24578.0
27	15	36	16	140	160.0	-207702.0	-2150.0	24376.0
27	15	36	16	140	161.0	-208809.0	-2151.0	25043.0
27	15	36	16	141	162.0	-209638.0	-2164.0	25074.0
27	15	36	16	141	163.0	-210497.0	-2172.0	24792.0
27	15	36	16	161	164.0	-210312.0	-2194.0	24554.0
27	15	36	16	162	165.0	-209382.0	-2231.0	24599.0
27	15	36	16	162	166.0	-208047.0	-2241.0	24479.0
27	15	36	16	163	167.0	-205401.0	-2250.0	24836.0
27	15	36	16	163	168.0	-201846.0	-2275.0	25236.0
27	15	36	16	164	169.0	-198011.0	-2297.0	25468.0
27	15	36	16	165	170.0	-193881.0	-2321.0	25494.0
27	15	36	16	165	171.0	-189577.0	-2339.0	25524.0
27	15	36	16	166	172.0	-185604.0	-2367.0	25193.0
27	15	36	16	167	173.0	-181686.0	-2398.0	24822.0
27	15	36	16	167	174.0	-177893.0	-2417.0	24483.0
27	15	36	16	168	175.0	-174551.0	-2437.0	24236.0
27	15	36	16	169	176.0	-171629.0	-2450.0	24308.0
27	15	36	16	169	177.0	-169225.0	-2473.0	24646.0
27	15	36	16	183	178.0	-167701.0	-2507.0	24959.0
27	15	36	16	184	179.0	-167235.0	-2529.0	25338.0
27	15	36	16	184	180.0	-167598.0	-2553.0	25462.0
27	15	36	16	185	181.0	-169139.0	-2597.0	25420.0
27	15	36	16	186	182.0	-171775.0	-2626.0	24900.0
27	15	36	16	186	183.0	-175416.0	-2630.0	24644.0
27	15	36	16	187	184.0	-180256.0	-2664.0	23673.0
27	15	36	16	187	185.0	-185271.0	-2678.0	22552.0
27	15	36	16	206	186.0	-191037.0	-2701.0	20788.0
27	15	36	16	207	187.0	-196866.0	-2735.0	19405.0
27	15	36	16	208	188.0	-201590.0	-2754.0	18301.0
27	15	36	16	208	189.0	-205415.0	-2780.0	19139.0
27	15	36	16	209	190.0	-208786.0	-2801.0	22343.0
27	15	36	16	209	191.0	-211677.0	-2837.0	27707.0
27	15	36	16	210	192.0	-213312.0	-2889.0	31857.0
27	15	36	16	211	193.0	-214414.0	-2905.0	35524.0
27	15	36	16	211	194.0	-215775.0	-2919.0	38881.0
27	15	36	16	212	195.0	-217384.0	-2935.0	42058.0
27	15	36	16	213	196.0	-219174.0	-2954.0	44061.0
27	15	36	16	213	197.0	-220939.0	-2998.0	43602.0
27	15	36	16	214	198.0	-223301.0	-3037.0	42356.0
27	15	36	16	214	199.0	-225029.0	-3090.0	42167.0
27	15	36	16	215	200.0	-225881.0	-3097.0	41333.0
27	15	36	16	228	201.0	-226755.0	-3114.0	41083.0
27	15	36	16	229	202.0	-228049.0	-3146.0	40315.0
27	15	36	16	229	203.0	-228740.0	-3174.0	39156.0
27	15	36	16	230	204.0	-228956.0	-3202.0	37647.0
27	15	36	16	231	205.0	-228755.0	-3226.0	36154.0
27	15	36	16	231	206.0	-227302.0	-3249.0	34667.0
27	15	36	16	232	207.0	-225029.0	-3289.0	32973.0
27	15	36	16	232	208.0	-222159.0	-3306.0	30788.0
27	15	36	16	251	209.0	-217848.0	-3343.0	28321.0
27	15	36	16	252	210.0	-212404.0	-3374.0	26376.0
27	15	36	16	252	211.0	-207273.0	-3406.0	24462.0
27	15	36	16	253	212.0	-200570.0	-3434.0	23353.0
27	15	36	16	253	213.0	-190194.0	-3474.0	23478.0
27	15	36	16	254	214.0	-176372.0	-3499.0	22788.0
27	15	36	16	254	215.0	-161239.0	-3508.0	21781.0
27	15	36	16	273	216.0	-146531.0	-3536.0	21855.0
27	15	36	16	273	217.0	-134307.0	-3562.0	21504.0
27	15	36	16	274	218.0	-125999.0	-3604.0	21271.0
27	15	36	16	275	219.0	-121964.0	-3624.0	21158.0
27	15	36	16	275	220.0	-125099.0	-3652.0	21439.0
27	15	36	16	276	221.0	-138197.0	-3674.0	21683.0
27	15	36	16	276	222.0	-161004.0	-3698.0	20826.0
27	15	36	16	277	223.0	-190059.0	-3739.0	20343.0
27	15	36	16	278	224.0	-220415.0	-3778.0	19808.0
27	15	36	16	278	225.0	-244524.0	-3809.0	20078.0
27	15	36	16	279	226.0	-264214.0	-3849.0	19923.0
27	15	36	16	279	227.0	-274190.0	-3879.0	20034.0
27	15	36	16	280	228.0	-267894.0	-3911.0	19968.0
27	15	36	16	280	229.0	-250667.0	-3930.0	19878.0
27	15	36	16	281	230.0	-227819.0	-3974.0	20381.0
27	15	36	16	296	231.0	-199616.0	-4004.0	20867.0
27	15	36	16	296	232.0	-170645.0	-4044.0	21165.0
27	15	36	16	297	233.0	-144901.0	-4064.0	20525.0
27	15	36	16	298	234.0	-124575.0	-4092.0	20286.0
27	15	36	16	298	235.0	-113679.0	-4111.0	20219.0
27	15	36	16	299	236.0	-112577.0	-4148.0	20246.0
27	15	36	16	299	237.0	-120399.0	-4185.0	19928.0
27	15	36	16	319	238.0	-134866.0	-4228.0	20099.0
27	15	36	16	319	239.0	-152031.0	-4254.0	20031.0
27	15	36	16	320	240.0	-168522.0	-4264.0	20040.0
27	15	36	16	321	241.0	-182526.0	-4318.0	19928.0
27	15	36	16	321	242.0	-192667.0	-4365.0	19783.0
27	15	36	16	322	243.0	-199197.0	-4406.0	20094.0
27	15	36	16	322	244.0	-203449.0	-4444.0	19811.0
27	15	36	16	323	245.0	-205827.0	-4471.0	19585.0
27	15	36	16	324	246.0	-205904.0	-4522.0	19294.0
27	15	36	16	324	247.0	-204416.0	-4557.0	19410.0
27	15	36	16	325	248.0	-201935.0	-4592.0	19628.0
27	15	36	16	326	249.0	-200069.0	-4652.0	19084.0
27	15	36	16	326	250.0	-200144.0	-4685.0	18861.0
27	15	36	16	327	251.0	-202036.0	-4715.0	19006.0
27	15	36	16	327	252.0	-204974.0	-4742.0	18986.0
27	15	36	16	328	253.0	-208791.0	-4769.0	19168.0
27	15	36	16	328	254.0	-212953.0	-4817.0	19400.0
27	15	36	16	329	255.0	-217507.0	-4849.0	19034.0
27	15	36	16	330	0.0	-222296.0	-4884.0	18833.0
27	15	36	16	342	1.0	-227031.0	-4934.0	18733.0
27	15	36	16	342	2.0	-231358.0	-4995.0	18565.0
27	15	36	16	364	3.0	-233966.0	-5031.0	18878.0
27	15	36	16	365	4.0	-235897.0	-5086.0	19078.0
27	15	36	16	366	5.0	-237102.0	-5127.0	19166.0
27	15	36	16	366	6.0	-237481.0	-5154.0	19244.0
27	15	36	16	367	7.0	-237095.0	-5212.0	19182.0
27	15	36	16	368	8.0	-236016.0	-5257.0	18540.0
27	15	36	16	368	9.0	-234339.0	-5288.0	18671.0
27	15	36	16	369	10.0	-232707.0	-5345.0	18384.0
27	15	36	16	370	11.0	-231196.0	-5381.0	17971.0
27	15	36	16	370	12.0	-229028.0	-5435.0	17759.0
27	15	36	16	371	13.0	-227023.0	-5482.0	17642.0
27	15	36	16	372	14.0	-225385.0	-5527.0	17265.0
27	15	36	16	372	15.0	-224699.0	-5573.0	17076.0
27	15	36	16	373	16.0	-223723.0	-5608.0	16964.0
27	15	36	16	373	17.0	-222687.0	-5656.0	16705.0
27	15	36	16	374	18.0	-222097.0	-5700.0	16231.0
27	15	36	16	374	19.0	-221571.0	-5741.0	15762.0
27	15	36	16	375	20.0	-221016.0	-5789.0	15205.0
27	15	36	16	376	21.0	-220367.0	-5837.0	14790.0
27	15	36	16	377	22.0	-219826.0	-5889.0	14454.0
27	15	36	16	378	23.0	-219321.0	-5912.0	14367.0
27	15	36	16	378	24.0	-218710.0	-5969.0	14421.0
27	15	36	16	379	25.0	-218448.0	-6020.0	14251.0
27	15	36	16	379	26.0	-218355.0	-6057.0	13841.0
27	15	36	16	391	27.0	-217974.0	-6094.0	13767.0
27	15	36	16	392	28.0	-217062.0	-6127.0	13398.0
27	15	36	16	409	29.0	-215982.0	-6152.0	13094.0
27	15	36	16	410	30.0	-215167.0	-6204.0	13364.0
27	15	36	16	411	31.0	-213551.0	-6247.0	13869.0
27	15	36	16	411	32.0	-211438.0	-6271.0	13704.0
27	15	36	16	412	33.0	-209864.0	-6281.0	13534.0
27	15	36	16	413	34.0	-208221.0	-6303.0	13386.0
27	15	36	16	413	35.0	-206056.0	-6322.0	13350.0
27	15	36	16	414	36.0	-203269.0	-6345.0	13332.0
27	15	36	16	414	37.0	-200729.0	-6359.0	12826.0
27	15	36	16	415	38.0	-198935.0	-6361.0	12735.0
27	15	36	16	416	39.0	-197676.0	-6376.0	12786.0
27	15	36	16	416	40.0	-196827.0	-6376.0	12532.0
27	15	36	16	417	41.0	-196359.0	-6382.0	12569.0
27	15	36	16	417	42.0	-195781.0	-6384.0	12309.0
27	15	36	16	418	43.0	-195907.0	-6356.0	11908.0
27	15	36	16	418	44.0	-196240.0	-6334.0	11858.0
27	15	36	16	431	45.0	-196681.0	-6321.0	12128.0
27	15	36	16	432	46.0	-197676.0	-6292.0	11806.0
27	15	36	16	433	47.0	-199159.0	-6254.0	11616.0
27	15	36	16	433	48.0	-200932.0	-6219.0	11086.0
27	15	36	16	456	49.0	-202710.0	-6178.0	10941.0
27	15	36	16	456	50.0	-204448.0	-6134.0	11497.0
27	15	36	16	457	51.0	-206229.0	-6092.0	11579.0
27	15	36	16	458	52.0	-207661.0	-6018.0	10975.0
27	15	36	16	458	53.0	-209009.0	-5954.0	11033.0
27	15	36	16	459	54.0	-210487.0	-5904.0	11439.0
27	15	36	16	459	55.0	-211654.0	-5852.0	11132.0
27	15	36	16	460	56.0	-211959.0	-5782.0	10936.0
27	15	36	16	461	57.0	-212096.0	-5699.0	10739.0
27	15	36	16	461	58.0	-211868.0	-5622.0	10935.0
27	15	36	16	462	59.0	-211071.0	-5537.0	10982.0
27	15	36	16	463	60.0	-210382.0	-5470.0	10928.0
27	15	36	16	463	61.0	-209651.0	-5387.0	10858.0
27	15	36	16	464	62.0	-208697.0	-5302.0	10704.0
27	15	36	16	464	63.0	-208110.0	-5219.0	10428.0
27	15	36	16	465	64.0	-207637.0	-5121.0	10891.0
27	15	36	16	466	65.0	-206104.0	-5039.0	11104.0
27	15	36	16	466	66.0	-203750.0	-4947.0	10720.0
27	15	36	16	467	67.0	-201687.0	-4837.0	10671.0
27	15	36	16	467	68.0	-199204.0	-4741.0	10601.0
27	15	36	16	468	69.0	-196049.0	-4654.0	10763.0
27	15	36	16	469	70.0	-192908.0	-4557.0	10867.0
27	15	36	16	482	71.0	-189662.0	-4449.0	11108.0
27	15	36	16	483	72.0	-187184.0	-4345.0	11345.0
27	15	36	16	484	73.0	-185417.0	-4235.0	11553.0
27	15	36	16	484	74.0	-184387.0	-4151.0	11870.0
27	15	36	16	485	75.0	-184199.0	-4060.0	12252.0
27	15	36	16	486	76.0	-184220.0	-3972.0	12319.0
27	15	36	16	486	77.0	-184122.0	-3869.0	12090.0
27	15	36	16	487	78.0	-184189.0	-3762.0	12368.0
27	15	36	16	487	79.0	-183762.0	-3672.0	12743.0
27	15	36	16	505	80.0	-182957.0	-3577.0	13052.0
27	15	36	16	506	81.0	-181926.0	-3482.0	13200.0
27	15	36	16	506	82.0	-180841.0	-3401.0	13285.0
27	15	36	16	507	83.0	-179622.0	-3296.0	13461.0
27	15	36	16	507	84.0	-178443.0	-3226.0	13145.0
27	15	36	16	508	85.0	-176619.0	-3142.0	13262.0
27	15	36	16	509	86.0	-173895.0	-3037.0	13318.0
27	15	36	16	528	87.0	-170815.0	-2962.0	13188.0
27	15	36	16	528	88.0	-168602.0	-2880.0	13488.0
27	15	36	16	529	89.0	-166856.0	-2785.0	13366.0
27	15	36	16	530	90.0	-165251.0	-2713.0	13548.0
27	15	36	16	530	91.0	-164027.0	-2624.0	13506.0
27	15	36	16	531	92.0	-163360.0	-2537.0	13725.0
27	15	36	16	531	93.0	-163027.0	-2480.0	14013.0
27	15	36	16	532	94.0	-163279.0	-2427.0	14194.0
27	15	36	16	533	95.0	-163272.0	-2337.0	14518.0
27	15	36	16	533	96.0	-163055.0	-2246.0	14783.0
27	15	36	16	534	97.0	-162836.0	-2197.0	14579.0
27	15	36	16	534	98.0	-161799.0	-2125.0	14764.0
27	15	36	16	535	99.0	-158910.0	-2061.0	15066.0
27	15	36	16	536	100.0	-152395.0	-2002.0	15612.0
27	15	36	16	536	101.0	-143809.0	-1934.0	15552.0
27	15	36	16	551	102.0	-140496.0	-1849.0	15433.0
27	15	36	16	551	103.0	-150402.0	-1802.0	15156.0
27	15	36	16	552	104.0	-169393.0	-1751.0	15028.0
27	15	36	16	553	105.0	-191971.0	-1692.0	14818.0
27	15	36	16	553	106.0	-208912.0	-1631.0	14850.0
27	15	36	16	554	107.0	-219186.0	-1569.0	14520.0
27	15	36	16	554	108.0	-223417.0	-1500.0	14184.0
27	15	36	16	555	109.0	-223329.0	-1440.0	14177.0
27	15	36	16	556	110.0	-220813.0	-1385.0	14459.0
27	15	36	16	556	111.0	-214619.0	-1337.0	14225.0
27	15	36	16	557	112.0	-206121.0	-1286.0	13610.0
27	15	36	16	558	113.0	-197530.0	-1241.0	13961.0
27	15	36	16	558	114.0	-189242.0	-1181.0	14044.0
27	15	36	16	559	115.0	-182303.0	-1124.0	13646.0
27	15	36	16	575	116.0	-178252.0	-1070.0	13739.0
27	15	36	16	575	117.0	-177577.0	-1017.0	13685.0
27	15	36	16	576	118.0	-179630.0	-965.0	13793.0
27	15	36	16	577	119.0	-183771.0	-897.0	13764.0
27	15	36	16	577	120.0	-188531.0	-863.0	13859.0
27	15	36	16	578	121.0	-192432.0	-824.0	13884.0
27	15	36	16	578	122.0	-194692.0	-774.0	13746.0
27	15	36	16	579	123.0	-196417.0	-720.0	14016.0
27	15	36	16	580	124.0	-197936.0	-661.0	13925.0
27	15	36	16	597	125.0	-198252.0	-607.0	13979.0
27	15	36	16	598	126.0	-198414.0	-559.0	13545.0
27	15	36	16	599	127.0	-200643.0	-521.0	13320.0
27	15	36	16	599	128.0	-204289.0	-477.0	13210.0
27	15	36	16	600	129.0	-211109.0	-424.0	13272.0
27	15	36	16	601	130.0	-220084.0	-350.0	13303.0
27	15	36	16	601	131.0	-229221.0	-321.0	13400.0
27	15	36	16	602	132.0	-237017.0	-294.0	12993.0
27	15	36	16	603	133.0	-244272.0	-244.0	12699.0
27	15	36	16	603	134.0	-249756.0	-222.0	12549.0
27	15	36	16	621	135.0	-253154.0	-177.0	12567.0
27	15	36	16	622	136.0	-254223.0	-142.0	12511.0
27	15	36	16	622	137.0	-253088.0	-99.0	12671.0
27	15	36	16	623	138.0	-250277.0	-70.0	12473.0
27	15	36	16	624	139.0	-246279.0	-36.0	12623.0
27	15	36	16	624	140.0	-241058.0	-2.0	12923.0
27	15	36	16	625	141.0	-235159.0	28.0	12912.0
27	15	36	16	625	142.0	-229787.0	60.0	12562.0
27	15	36	16	626	143.0	-225341.0	69.0	12576.0
27	15	36	16	627	144.0	-221436.0	84.0	12633.0
27	15	36	16	627	145.0	-217916.0	111.0	12323.0
27	15	36	16	628	146.0	-214214.0	125.0	11770.0
27	15	36	16	628	147.0	-210695.0	133.0	11391.0
27	15	36	16	629	148.0	-207547.0	149.0	11610.0
27	15	36	16	643	149.0	-204609.0	161.0	11831.0
27	15	36	16	644	150.0	-201793.0	168.0	12056.0
27	15	36	16	644	151.0	-199534.0	171.0	11667.0
27	15	36	16	645	152.0	-197787.0	187.0	11802.0
27	15	36	16	646	153.0	-196559.0	189.0	11501.0
27	15	36	16	668	154.0	-195312.0	170.0	11539.0
27	15	36	16	669	155.0	-194312.0	184.0	12109.0
27	15	36	16	670	156.0	-193409.0	171.0	11640.0
27	15	36	16	671	157.0	-193066.0	168.0	10968.0
27	15	36	16	671	158.0	-192401.0	166.0	11582.0
27	15	36	16	672	159.0	-191961.0	168.0	11323.0
27	15	36	16	672	160.0	-191615.0	161.0	11079.0
27	15	36	16	673	161.0	-190976.0	161.0	11187.0
27	15	36	16	673	162.0	-190504.0	140.0	11299.0
27	15	36	16	674	163.0	-190501.0	123.0	11253.0
27	15	36	16	675	164.0	-191001.0	122.0	11003.0
27	15	36	16	675	165.0	-190917.0	103.0	11201.0
27	15	36	16	676	166.0	-190069.0	110.0	11126.0
27	15	36	16	676	167.0	-189234.0	98.0	10409.0
27	15	36	16	677	168.0	-188361.0	78.0	10441.0
27	15	36	16	677	169.0	-187590.0	51.0	10696.0
27	15	36	16	678	170.0	-187097.0	45.0	11495.0
27	15	36	16	678	171.0	-187161.0	42.0	11066.0
27	15	36	16	679	172.0	-188210.0	18.0	11082.0
27	15	36	16	680	173.0	-189183.0	-9.0	11659.0
27	15	36	16	680	174.0	-190219.0	-37.0	11861.0
27	15	36	16	692	175.0	-191334.0	-49.0	11821.0
27	15	36	16	714	176.0	-191984.0	-66.0	11529.0
27	15	36	16	715	177.0	-192344.0	-79.0	11681.0
27	15	36	16	715	178.0	-192247.0	-109.0	11756.0
27	15	36	16	716	179.0	-192626.0	-116.0	11872.0
27	15	36	16	716	180.0	-192670.0	-139.0	11760.0
27	15	36	16	717	181.0	-192449.0	-165.0	11671.0
27	15	36	16	718	182.0	-192737.0	-179.0	11439.0
27	15	36	16	718	183.0	-193559.0	-198.0	11412.0
27	15	36	16	719	184.0	-193766.0	-206.0	10995.0
27	15	36	16	719	185.0	-193377.0	-228.0	10556.0
27	15	36	16	720	186.0	-193102.0	-257.0	10179.0
27	15	36	16	720	187.0	-192794.0	-265.0	10163.0
27	15	36	16	721	188.0	-192591.0	-266.0	10205.0
27	15	36	16	721	189.0	-192733.0	-275.0	9788.0
27	15	36	16	722	190.0	-193064.0	-317.0	9796.0
27	15	36	16	723	191.0	-193729.0	-336.0	9509.0
27	15	36	16	723	192.0	-194257.0	-322.0	10118.0
27	15	36	16	724	193.0	-195356.0	-361.0	10767.0
27	15	36	16	724	194.0	-196671.0	-380.0	10744.0
27	15	36	16	725	195.0	-197687.0	-374.0	10961.0
27	15	36	16	725	196.0	-198407.0	-394.0	10953.0
27	15	36	16	726	197.0	-199245.0	-416.0	10767.0
27	15	36	16	737	198.0	-199782.0	-436.0	11151.0
27	15	36	16	737	199.0	-199737.0	-451.0	11310.0
27	15	36	16	738	200.0	-199749.0	-459.0	11109.0
27	15	36	16	739	201.0	-199251.0	-462.0	10803.0
27	15	36	16	739	202.0	-198834.0	-484.0	10946.0
27	15	36	16	740	203.0	-198616.0	-516.0	11818.0
27	15	36	16	740	204.0	-198626.0	-520.0	11749.0
27	15	36	16	741	205.0	-198404.0	-527.0	11197.0
27	15	36	16	742	206.0	-198154.0	-528.0	11171.0
27	15	36	16	760	207.0	-198233.0	-536.0	11225.0
27	15	36	16	760	208.0	-198334.0	-551.0	11558.0
27	15	36	16	761	209.0	-197577.0	-564.0	11928.0
27	15	36	16	761	210.0	-196826.0	-577.0	12192.0
27	15	36	16	762	211.0	-196685.0	-584.0	12155.0
27	15	36	16	762	212.0	-196413.0	-597.0	12389.0
27	15	36	16	763	213.0	-196184.0	-606.0	12332.0
27	15	36	16	783	214.0	-196545.0	-633.0	12869.0
27	15	36	16	783	215.0	-196576.0	-644.0	13173.0
27	15	36	16	784	216.0	-196977.0	-664.0	13551.0
27	15	36	16	784	217.0	-197906.0	-683.0	15681.0
27	15	36	16	785	218.0	-198326.0	-709.0	18639.0
27	15	36	16	786	219.0	-198276.0	-724.0	21074.0
27	15	36	16	786	220.0	-197995.0	-741.0	22883.0
27	15	36	16	787	221.0	-197212.0	-763.0	24560.0
27	15	36	16	787	222.0	-196068.0	-778.0	25664.0
27	15	36	16	788	223.0	-195429.0	-777.0	26446.0
27	15	36	16	788	224.0	-195712.0	-797.0	27379.0
27	15	36	16	789	225.0	-196718.0	-834.0	28403.0
27	15	36	16	789	226.0	-198552.0	-842.0	29123.0
27	15	36	16	790	227.0	-200137.0	-878.0	30267.0
27	15	36	16	790	228.0	-201321.0	-888.0	31067.0
27	15	36	16	807	229.0	-201529.0	-909.0	31227.0
27	15	36	16	807	230.0	-200636.0	-935.0	31694.0
27	15	36	16	808	231.0	-199459.0	-962.0	32283.0
27	15	36	16	808	232.0	-198124.0	-995.0	32629.0
27	15	36	16	809	233.0	-196993.0	-1019.0	33175.0
27	15	36	16	810	234.0	-196594.0	-1059.0	33526.0
27	15	36	16	811	235.0	-196824.0	-1084.0	33244.0
27	15	36	16	811	236.0	-197136.0	-1110.0	32047.0
27	15	36	16	812	237.0	-198062.0	-1141.0	31160.0
27	15	36	16	813	238.0	-199174.0	-1184.0	31152.0
27	15	36	16	813	239.0	-199997.0	-1210.0	31446.0
27	15	36	16	814	240.0	-200384.0	-1242.0	33778.0
27	15	36	16	829	241.0	-200094.0	-1256.0	38688.0
27	15	36	16	830	242.0	-199882.0	-1295.0	44124.0
27	15	36	16	830	243.0	-199415.0	-1336.0	47419.0
27	15	36	16	831	244.0	-198809.0	-1372.0	51116.0
27	15	36	16	831	245.0	-198798.0	-1387.0	55243.0
27	15	36	16	832	246.0	-199184.0	-1440.0	56997.0
27	15	36	16	833	247.0	-199854.0	-1476.0	58566.0
27	15	36	16	833	248.0	-200639.0	-1506.0	59252.0
27	15	36	16	834	249.0	-202209.0	-1542.0	58369.0
27	15	36	16	834	250.0	-204286.0	-1576.0	57126.0
27	15	36	16	835	251.0	-206793.0	-1592.0	55250.0
27	15	36	16	835	252.0	-209290.0	-1621.0	53911.0
27	15	36	16	852	253.0	-212712.0	-1662.0	52829.0
27	15	36	16	853	254.0	-216247.0	-1701.0	51076.0
27	15	36	16	853	255.0	-220130.0	-1729.0	49504.0
27	15	36	16	854	0.0	-224590.0	-1758.0	47889.0
27	15	36	16	854	1.0	-228797.0	-1802.0	46409.0
27	15	36	16	855	2.0	-232828.0	-1833.0	44884.0
27	15	36	16	876	3.0	-235339.0	-1864.0	43168.0
27	15	36	16	876	4.0	-235867.0	-1900.0	40377.0
27	15	36	16	877	5.0	-235177.0	-1929.0	38225.0
27	15	36	16	877	6.0	-232195.0	-1964.0	37344.0
27	15	36	16	878	7.0	-222282.0	-1987.0	36779.0
27	15	36	16	879	8.0	-206191.0	-2012.0	36152.0
27	15	36	16	879	9.0	-188462.0	-2042.0	35819.0
27	15	36	16	880	10.0	-171022.0	-2076.0	35556.0
27	15	36	16	880	11.0	-158571.0	-2102.0	35221.0
27	15	36	16	881	12.0	-153121.0	-2131.0	35329.0
27	15	36	16	881	13.0	-154357.0	-2170.0	35924.0
27	15	36	16	882	14.0	-163269.0	-2209.0	35998.0
27	15	36	16	883	15.0	-180516.0	-2252.0	35431.0
27	15	36	16	883	16.0	-204832.0	-2285.0	35509.0
27	15	36	16	884	17.0	-232860.0	-2304.0	35348.0
27	15	36	16	884	18.0	-260936.0	-2343.0	35079.0
27	15	36	16	898	19.0	-284294.0	-2382.0	35111.0
27	15	36	16	899	20.0	-299234.0	-2422.0	35120.0
27	15	36	16	900	21.0	-303446.0	-2438.0	35100.0
27	15	36	16	900	22.0	-306127.0	-2486.0	34936.0
27	15	36	16	901	23.0	-302073.0	-2524.0	34846.0
27	15	36	16	901	24.0	-282779.0	-2544.0	35169.0
27	15	36	16	924	25.0	-250089.0	-2581.0	35211.0
27	15	36	16	924	26.0	-211708.0	-2627.0	35474.0
27	15	36	16	925	27.0	-175562.0	-2658.0	35348.0
27	15	36	16	926	28.0	-147766.0	-2696.0	34976.0
27	15	36	16	926	29.0	-131241.0	-2727.0	34778.0
27	15	36	16	927	30.0	-124302.0	-2766.0	34946.0
27	15	36	16	927	31.0	-123837.0	-2809.0	34969.0
27	15	36	16	928	32.0	-128871.0	-2839.0	35197.0
27	15	36	16	928	33.0	-139640.0	-2874.0	35516.0
27	15	36	16	929	34.0	-153987.0	-2909.0	35699.0
27	15	36	16	930	35.0	-168233.0	-2942.0	34641.0
27	15	36	16	930	36.0	-179014.0	-2999.0	34759.0
27	15	36	16	931	37.0	-184702.0	-3031.0	34968.0
27	15	36	16	931	38.0	-186220.0	-3080.0	34614.0
27	15	36	16	932	39.0	-184582.0	-3117.0	34294.0
27	15	36	16	932	40.0	-180889.0	-3152.0	33927.0
27	15	36	16	933	41.0	-176059.0	-3179.0	33656.0
27	15	36	16	934	42.0	-169545.0	-3254.0	33506.0
27	15	36	16	934	43.0	-161660.0	-3298.0	33648.0
27	15	36	16	935	44.0	-154047.0	-3314.0	33716.0
27	15	36	16	935	45.0	-147600.0	-3376.0	33501.0
27	15	36	16	963	46.0	-142795.0	-3421.0	33348.0
27	15	36	16	964	47.0	-140479.0	-3468.0	33273.0
27	15	36	16	965	48.0	-140330.0	-3522.0	33316.0
27	15	36	16	965	49.0	-142067.0	-3559.0	33531.0
27	15	36	16	966	50.0	-145469.0	-3619.0	33621.0
27	15	36	16	967	51.0	-149687.0	-3679.0	34377.0
27	15	36	16	967	52.0	-154466.0	-3709.0	34811.0
27	15	36	16	968	53.0	-159711.0	-3753.0	34984.0
27	15	36	16	969	54.0	-164934.0	-3809.0	34957.0
27	15	36	16	969	55.0	-170493.0	-3867.0	35315.0
27	15	36	16	970	56.0	-175918.0	-3914.0	35381.0
27	15	36	16	971	57.0	-180476.0	-3972.0	35538.0
27	15	36	16	971	58.0	-185881.0	-4016.0	34947.0
27	15	36	16	972	59.0	-191579.0	-4062.0	33964.0
27	15	36	16	972	60.0	-197412.0	-4119.0	33540.0
27	15	36	16	973	61.0	-203948.0	-4176.0	33094.0
27	15	36	16	973	62.0	-210951.0	-4229.0	33058.0
27	15	36	16	974	63.0	-217694.0	-4261.0	32757.0
27	15	36	16	975	64.0	-224839.0	-4330.0	32253.0
27	15	36	16	985	65.0	-231456.0	-4391.0	32078.0
27	15	36	16	985	66.0	-237147.0	-4446.0	31549.0
27	15	36	16	986	67.0	-242286.0	-4479.0	31029.0
27	15	36	16	986	68.0	-245441.0	-4539.0	30724.0
27	15	36	17	7	69.0	-247101.0	-4602.0	30283.0
27	15	36	17	7	70.0	-248572.0	-4661.0	29652.0
27	15	36	17	8	71.0	-249159.0	-4713.0	29169.0
27	15	36	17	9	72.0	-249362.0	-4776.0	28611.0
27	15	36	17	9	73.0	-249004.0	-4815.0	28337.0
27	15	36	17	10	74.0	-247766.0	-4864.0	27986.0
27	15	36	17	11	75.0	-246240.0	-4918.0	27576.0
27	15	36	17	12	76.0	-244237.0	-4964.0	26552.0
27	15	36	17	12	77.0	-241631.0	-5014.0	25748.0
27	15	36	17	13	78.0	-237964.0	-5065.0	25136.0
27	15	36	17	13	79.0	-233844.0	-5106.0	24356.0
27	15	36	17	14	80.0	-228956.0	-5144.0	23214.0
27	15	36	17	15	81.0	-223733.0	-5209.0	22845.0
27	15	36	17	15	82.0	-218762.0	-5222.0	23099.0
27	15	36	17	16	83.0	-213524.0	-5244.0	22598.0
27	15	36	17	16	84.0	-208266.0	-5257.0	21986.0
27	15	36	17	17	85.0	-204059.0	-5286.0	21651.0
27	15	36	17	17	86.0	-199908.0	-5297.0	21315.0
27	15	36	17	18	87.0	-196531.0	-5327.0	21046.0
27	15	36	17	29	88.0	-194249.0	-5327.0	21497.0
27	15	36	17	29	89.0	-192464.0	-5332.0	23264.0
27	15	36	17	30	90.0	-190929.0	-5327.0	24562.0
27	15	36	17	31	91.0	-189791.0	-5344.0	24656.0
27	15	36	17	56	92.0	-188621.0	-5324.0	25126.0
27	15	36	17	57	93.0	-188284.0	-5310.0	25414.0
27	15	36	17	57	94.0	-189259.0	-5294.0	25598.0
27	15	36	17	58	95.0	-191399.0	-5270.0	25978.0
27	15	36	17	58	96.0	-194245.0	-5239.0	26684.0
27	15	36	17	59	97.0	-197922.0	-5206.0	26408.0
27	15	36	17	60	98.0	-202647.0	-5154.0	25776.0
27	15	36	17	60	99.0	-208037.0	-5125.0	25262.0
27	15	36	17	61	100.0	-213624.0	-5088.0	25464.0
27	15	36	17	61	101.0	-219071.0	-5017.0	25633.0
27	15	36	17	62	102.0	-223802.0	-4944.0	26221.0
27	15	36	17	62	103.0	-227313.0	-4910.0	25855.0
27	15	36	17	63	104.0	-230269.0	-4852.0	26043.0
27	15	36	17	63	105.0	-231839.0	-4771.0	25513.0
27	15	36	17	64	106.0	-232197.0	-4700.0	25420.0
27	15	36	17	65	107.0	-231503.0	-4637.0	25524.0
27	15	36	17	79	108.0	-229787.0	-4562.0	25440.0
27	15	36	17	80	109.0	-227909.0	-4470.0	25087.0
27	15	36	17	81	110.0	-225989.0	-4381.0	25048.0
27	15	36	17	81	111.0	-223160.0	-4309.0	24948.0
27	15	36	17	82	112.0	-219746.0	-4218.0	25293.0
27	15	36	17	82	113.0	-216084.0	-4149.0	25533.0
27	15	36	17	83	114.0	-212121.0	-4044.0	25628.0
27	15	36	17	84	115.0	-208300.0	-3952.0	25733.0
27	15	36	17	84	116.0	-204484.0	-3856.0	25161.0
27	15	36	17	85	117.0	-200936.0	-3779.0	24433.0
27	15	36	17	86	118.0	-197911.0	-3687.0	23824.0
27	15	36	17	86	119.0	-194901.0	-3594.0	23159.0
27	15	36	17	87	120.0	-192553.0	-3494.0	22499.0
27	15	36	17	87	121.0	-190939.0	-3383.0	22006.0
27	15	36	17	88	122.0	-189152.0	-3283.0	21661.0
27	15	36	17	126	123.0	-187044.0	-3189.0	21692.0
27	15	36	17	127	124.0	-185311.0	-3087.0	20936.0
27	15	36	17	127	125.0	-183876.0	-2991.0	20126.0
27	15	36	17	128	126.0	-182754.0	-2890.0	19258.0
27	15	36	17	129	127.0	-182173.0	-2790.0	18704.0
27	15	36	17	129	128.0	-182335.0	-2700.0	18413.0
27	15	36	17	130	129.0	-183257.0	-2608.0	18154.0
27	15	36	17	131	130.0	-184759.0	-2508.0	18526.0
27	15	36	17	131	131.0	-186999.0	-2392.0	18839.0
