27	16	46	37	735	9.0	-138407.0	-2689.0	-4957.0
27	16	46	37	738	10.0	-135914.0	-2719.0	-5409.0
27	16	46	37	741	11.0	-141544.0	-2756.0	-5345.0
27	16	46	37	744	12.0	-151899.0	-2794.0	-5377.0
27	16	46	37	746	13.0	-164511.0	-2853.0	-5511.0
27	16	46	37	749	14.0	-175602.0	-2879.0	-5745.0
27	16	46	37	751	15.0	-184074.0	-2906.0	-5956.0
27	16	46	37	753	16.0	-189983.0	-2959.0	-6147.0
27	16	46	37	754	17.0	-192206.0	-3024.0	-6182.0
27	16	46	37	755	18.0	-193330.0	-3064.0	-5696.0
27	16	46	37	756	19.0	-195863.0	-3102.0	-6113.0
27	16	46	37	757	20.0	-196602.0	-3176.0	-6068.0
27	16	46	37	757	21.0	-194107.0	-3206.0	-5716.0
27	16	46	37	758	22.0	-190107.0	-3227.0	-5418.0
27	16	46	37	759	23.0	-185816.0	-3264.0	-5663.0
27	16	46	37	760	24.0	-187289.0	-3317.0	-5954.0
27	16	46	37	770	25.0	-189218.0	-3362.0	-6253.0
27	16	46	37	771	26.0	-193406.0	-3417.0	-6087.0
27	16	46	37	772	27.0	-200421.0	-3479.0	-6422.0
27	16	46	37	773	28.0	-207506.0	-3516.0	-6432.0
27	16	46	37	774	29.0	-213551.0	-3553.0	-6634.0
27	16	46	37	774	30.0	-218493.0	-3596.0	-6369.0
27	16	46	37	775	31.0	-221967.0	-3636.0	-6471.0
27	16	46	37	776	32.0	-223141.0	-3662.0	-6496.0
27	16	46	37	853	33.0	-223599.0	-3717.0	-6490.0
27	16	46	37	853	34.0	-224323.0	-3761.0	-6835.0
27	16	46	37	854	35.0	-225283.0	-3801.0	-6762.0
27	16	46	37	855	36.0	-225261.0	-3825.0	-6812.0
27	16	46	37	855	37.0	-224353.0	-3862.0	-6784.0
27	16	46	37	856	38.0	-222987.0	-3919.0	-6654.0
27	16	46	37	857	39.0	-222059.0	-3970.0	-6896.0
27	16	46	37	857	40.0	-221944.0	-4006.0	-6929.0
27	16	46	37	858	41.0	-222231.0	-4055.0	-6952.0
27	16	46	37	859	42.0	-222774.0	-4090.0	-6869.0
27	16	46	37	859	43.0	-223348.0	-4143.0	-7164.0
27	16	46	37	860	44.0	-223562.0	-4162.0	-7214.0
27	16	46	37	861	45.0	-224064.0	-4219.0	-7439.0
27	16	46	37	861	46.0	-224614.0	-4257.0	-7364.0
27	16	46	37	862	47.0	-224921.0	-4309.0	-7156.0
27	16	46	37	863	50.0	-223316.0	-4436.0	-6804.0
27	16	46	37	863	73.0	-200892.0	-5289.0	-7951.0
27	16	46	37	864	74.0	-201926.0	-5313.0	-8023.0
27	16	46	37	864	75.0	-203468.0	-5351.0	-8294.0
27	16	46	37	865	76.0	-204737.0	-5394.0	-8087.0
27	16	46	37	866	77.0	-205409.0	-5428.0	-7705.0
27	16	46	37	866	78.0	-205302.0	-5449.0	-7147.0
27	16	46	37	898	79.0	-205609.0	-5469.0	-7439.0
27	16	46	37	899	80.0	-205839.0	-5491.0	-7449.0
27	16	46	37	900	81.0	-206347.0	-5526.0	-7244.0
27	16	46	37	900	82.0	-206622.0	-5530.0	-7026.0
27	16	46	37	901	83.0	-206693.0	-5536.0	-7769.0
27	16	46	37	902	84.0	-206408.0	-5589.0	-8001.0
27	16	46	37	902	85.0	-205996.0	-5616.0	-7315.0
27	16	46	37	903	86.0	-205442.0	-5624.0	-6822.0
27	16	46	37	904	87.0	-204853.0	-5643.0	-6939.0
27	16	46	37	905	88.0	-204329.0	-5666.0	-6962.0
27	16	46	37	906	89.0	-203733.0	-5687.0	-6507.0
27	16	46	37	907	90.0	-203299.0	-5702.0	-6393.0
27	16	46	37	908	91.0	-203027.0	-5707.0	-6267.0
27	16	46	37	909	92.0	-202449.0	-5705.0	-6717.0
27	16	46	37	910	93.0	-201829.0	-5698.0	-7060.0
27	16	46	37	911	95.0	-200170.0	-5666.0	-6958.0
27	16	46	37	911	96.0	-199614.0	-5652.0	-6576.0
27	16	46	37	912	97.0	-199299.0	-5648.0	-6786.0
27	16	46	37	913	98.0	-198819.0	-5639.0	-6699.0
27	16	46	37	913	99.0	-198086.0	-5624.0	-6138.0
27	16	46	37	914	100.0	-197286.0	-5582.0	-6497.0
27	16	46	37	914	101.0	-196377.0	-5525.0	-6631.0
27	16	46	37	943	102.0	-195290.0	-5490.0	-6450.0
27	16	46	37	944	103.0	-194069.0	-5444.0	-6546.0
27	16	46	37	945	104.0	-193055.0	-5389.0	-6253.0
27	16	46	37	945	105.0	-191892.0	-5344.0	-6284.0
27	16	46	37	946	106.0	-191150.0	-5299.0	-5965.0
27	16	46	37	947	107.0	-190428.0	-5236.0	-6039.0
27	16	46	37	947	108.0	-189807.0	-5178.0	-6089.0
27	16	46	37	948	109.0	-189647.0	-5116.0	-6103.0
27	16	46	37	949	110.0	-190309.0	-5042.0	-6171.0
27	16	46	37	949	111.0	-191907.0	-4968.0	-5712.0
27	16	46	37	950	112.0	-193906.0	-4894.0	-5905.0
27	16	46	37	951	113.0	-195736.0	-4799.0	-6269.0
27	16	46	37	951	114.0	-197001.0	-4696.0	-5951.0
27	16	46	37	952	115.0	-197867.0	-4603.0	-4908.0
27	16	46	37	952	116.0	-198386.0	-4526.0	-4998.0
27	16	46	37	953	118.0	-199085.0	-4325.0	-5024.0
27	16	46	37	954	119.0	-199135.0	-4216.0	-4527.0
27	16	46	37	954	120.0	-199249.0	-4097.0	-5183.0
27	16	46	37	955	121.0	-199383.0	-3975.0	-5819.0
27	16	46	37	955	122.0	-199205.0	-3851.0	-5609.0
27	16	46	37	956	123.0	-199201.0	-3713.0	-5632.0
27	16	46	38	33	124.0	-199409.0	-3613.0	-5514.0
27	16	46	38	33	125.0	-199846.0	-3494.0	-5684.0
27	16	46	38	78	126.0	-200445.0	-3343.0	-5961.0
27	16	46	38	79	127.0	-201197.0	-3205.0	-6024.0
27	16	46	38	80	128.0	-202092.0	-3113.0	-5939.0
27	16	46	38	81	129.0	-203456.0	-3002.0	-6287.0
27	16	46	38	81	130.0	-205134.0	-2869.0	-6465.0
27	16	46	38	82	131.0	-206457.0	-2716.0	-6672.0
27	16	46	38	83	132.0	-207495.0	-2589.0	-6758.0
27	16	46	38	84	133.0	-208119.0	-2469.0	-7036.0
27	16	46	38	84	134.0	-208479.0	-2334.0	-7076.0
27	16	46	38	85	135.0	-208656.0	-2197.0	-7145.0
27	16	46	38	86	136.0	-208438.0	-2067.0	-7411.0
27	16	46	38	86	137.0	-208144.0	-1930.0	-7546.0
27	16	46	38	87	138.0	-207596.0	-1819.0	-7700.0
27	16	46	38	88	163.0	-220126.0	1014.0	-7856.0
27	16	46	38	89	164.0	-217871.0	1108.0	-8046.0
27	16	46	38	89	185.0	-188806.0	2556.0	-7588.0
27	16	46	38	90	186.0	-191499.0	2593.0	-7966.0
27	16	46	38	90	187.0	-193537.0	2643.0	-8357.0
27	16	46	38	91	188.0	-195315.0	2713.0	-8200.0
27	16	46	38	92	189.0	-196829.0	2755.0	-8253.0
27	16	46	38	92	190.0	-198359.0	2790.0	-8175.0
27	16	46	38	122	191.0	-199772.0	2837.0	-8416.0
27	16	46	38	123	192.0	-200896.0	2904.0	-8095.0
27	16	46	38	123	193.0	-201790.0	2950.0	-8028.0
27	16	46	38	124	194.0	-202127.0	2997.0	-8168.0
27	16	46	38	125	195.0	-201940.0	3031.0	-8407.0
27	16	46	38	126	196.0	-201284.0	3065.0	-8271.0
27	16	46	38	126	197.0	-200278.0	3088.0	-8304.0
27	16	46	38	127	198.0	-199544.0	3117.0	-8205.0
27	16	46	38	128	199.0	-198991.0	3144.0	-8351.0
27	16	46	38	128	200.0	-198394.0	3183.0	-8286.0
27	16	46	38	129	201.0	-197468.0	3204.0	-8531.0
27	16	46	38	130	202.0	-196529.0	3225.0	-8462.0
27	16	46	38	131	203.0	-195618.0	3266.0	-8819.0
27	16	46	38	131	204.0	-195017.0	3307.0	-9048.0
27	16	46	38	132	205.0	-194672.0	3316.0	-8906.0
27	16	46	38	133	207.0	-194364.0	3339.0	-9432.0
27	16	46	38	133	208.0	-194501.0	3359.0	-9162.0
27	16	46	38	134	209.0	-194918.0	3401.0	-8746.0
27	16	46	38	135	210.0	-195321.0	3421.0	-8994.0
27	16	46	38	135	211.0	-195579.0	3441.0	-8959.0
27	16	46	38	136	212.0	-195998.0	3453.0	-8739.0
27	16	46	38	137	213.0	-196100.0	3483.0	-8655.0
27	16	46	38	167	214.0	-196116.0	3474.0	-9085.0
27	16	46	38	168	215.0	-196468.0	3476.0	-9382.0
27	16	46	38	169	216.0	-196676.0	3485.0	-9559.0
27	16	46	38	170	217.0	-196879.0	3490.0	-9675.0
27	16	46	38	170	218.0	-197097.0	3479.0	-9519.0
27	16	46	38	171	219.0	-197321.0	3466.0	-9201.0
27	16	46	38	172	220.0	-197624.0	3460.0	-8872.0
27	16	46	38	173	221.0	-197877.0	3455.0	-8863.0
27	16	46	38	173	222.0	-198320.0	3458.0	-8555.0
27	16	46	38	174	223.0	-198617.0	3446.0	-8747.0
27	16	46	38	175	224.0	-198671.0	3428.0	-9229.0
27	16	46	38	176	225.0	-198761.0	3416.0	-9209.0
27	16	46	38	176	226.0	-198804.0	3413.0	-9169.0
27	16	46	38	177	227.0	-198647.0	3400.0	-9794.0
27	16	46	38	178	228.0	-198521.0	3377.0	-9948.0
27	16	46	38	178	230.0	-198819.0	3328.0	-9947.0
27	16	46	38	179	231.0	-199327.0	3309.0	-10201.0
27	16	46	38	180	232.0	-200225.0	3302.0	-10823.0
27	16	46	38	180	233.0	-201436.0	3291.0	-11177.0
27	16	46	38	181	234.0	-202344.0	3270.0	-11484.0
27	16	46	38	182	235.0	-203335.0	3250.0	-12042.0
27	16	46	38	214	236.0	-204602.0	3229.0	-12434.0
27	16	46	38	214	237.0	-206022.0	3194.0	-12197.0
27	16	46	38	215	238.0	-207554.0	3154.0	-11719.0
27	16	46	38	216	239.0	-208521.0	3121.0	-11867.0
27	16	46	38	217	240.0	-209611.0	3091.0	-12039.0
27	16	46	38	218	241.0	-210274.0	3088.0	-11641.0
27	16	46	38	219	242.0	-210290.0	3063.0	-11500.0
27	16	46	38	219	243.0	-210084.0	3024.0	-11920.0
27	16	46	38	220	244.0	-210377.0	2986.0	-12292.0
27	16	46	38	221	245.0	-209916.0	2944.0	-11828.0
27	16	46	38	222	246.0	-208883.0	2915.0	-11414.0
27	16	46	38	222	247.0	-207464.0	2874.0	-11737.0
27	16	46	38	223	248.0	-205886.0	2828.0	-11697.0
27	16	46	38	224	249.0	-204101.0	2791.0	-11147.0
27	16	46	38	225	250.0	-202800.0	2764.0	-10726.0
27	16	46	38	226	252.0	-201769.0	2678.0	-11312.0
27	16	46	38	226	253.0	-201564.0	2637.0	-11542.0
27	16	46	38	227	254.0	-201600.0	2615.0	-11691.0
27	16	46	38	227	255.0	-201880.0	2599.0	-11636.0
27	16	46	38	228	0.0	-202144.0	2578.0	-11924.0
27	16	46	38	229	1.0	-202296.0	2520.0	-12015.0
27	16	46	38	229	2.0	-202518.0	2483.0	-11722.0
27	16	46	38	258	3.0	-203120.0	2464.0	-10990.0
27	16	46	38	260	4.0	-203838.0	2439.0	-11019.0
27	16	46	38	262	5.0	-204379.0	2383.0	-11251.0
27	16	46	38	264	6.0	-204839.0	2341.0	-11327.0
27	16	46	38	266	7.0	-204679.0	2314.0	-11274.0
27	16	46	38	268	8.0	-204267.0	2285.0	-11439.0
27	16	46	38	268	9.0	-203859.0	2233.0	-11284.0
27	16	46	38	269	10.0	-203435.0	2201.0	-11363.0
27	16	46	38	270	11.0	-202889.0	2156.0	-11245.0
27	16	46	38	270	12.0	-202359.0	2123.0	-11014.0
27	16	46	38	302	13.0	-201667.0	2072.0	-10994.0
27	16	46	38	302	14.0	-201062.0	2046.0	-10825.0
27	16	46	38	303	15.0	-200794.0	2026.0	-10814.0
27	16	46	38	304	16.0	-200727.0	1995.0	-11007.0
27	16	46	38	304	17.0	-200904.0	1958.0	-11142.0
27	16	46	38	305	19.0	-201227.0	1885.0	-10942.0
27	16	46	38	306	20.0	-201710.0	1859.0	-10796.0
27	16	46	38	306	21.0	-202157.0	1831.0	-11203.0
27	16	46	38	307	22.0	-202604.0	1805.0	-10351.0
27	16	46	38	307	23.0	-203209.0	1768.0	-9518.0
27	16	46	38	308	24.0	-203467.0	1746.0	-10208.0
27	16	46	38	309	25.0	-203437.0	1718.0	-10562.0
27	16	46	38	309	26.0	-203054.0	1695.0	-10337.0
27	16	46	38	310	27.0	-202047.0	1661.0	-10311.0
27	16	46	38	311	28.0	-201107.0	1605.0	-10466.0
27	16	46	38	311	29.0	-200619.0	1583.0	-10816.0
27	16	46	38	312	42.0	-196780.0	1142.0	-10332.0
27	16	46	38	312	43.0	-196143.0	1121.0	-10239.0
27	16	46	38	313	44.0	-195751.0	1110.0	-10328.0
27	16	46	38	314	45.0	-195103.0	1078.0	-10319.0
27	16	46	38	314	46.0	-194374.0	1066.0	-10617.0
27	16	46	38	315	47.0	-193986.0	1056.0	-10455.0
27	16	46	38	347	48.0	-193468.0	1013.0	-10172.0
27	16	46	38	348	49.0	-192739.0	975.0	-9879.0
27	16	46	38	348	50.0	-192179.0	935.0	-9629.0
27	16	46	38	349	51.0	-192192.0	916.0	-9352.0
27	16	46	38	393	52.0	-192336.0	879.0	-9343.0
27	16	46	38	394	53.0	-192326.0	831.0	-9638.0
27	16	46	38	394	54.0	-191995.0	779.0	-10287.0
27	16	46	38	395	55.0	-191995.0	751.0	-10376.0
27	16	46	38	395	56.0	-192117.0	740.0	-10087.0
27	16	46	38	396	57.0	-192842.0	718.0	-10300.0
27	16	46	38	397	58.0	-193781.0	654.0	-10753.0
27	16	46	38	397	59.0	-194875.0	611.0	-10679.0
27	16	46	38	398	60.0	-196342.0	584.0	-10376.0
27	16	46	38	399	61.0	-197899.0	558.0	-10607.0
27	16	46	38	400	62.0	-198747.0	509.0	-10689.0
27	16	46	38	401	64.0	-199984.0	440.0	-10819.0
27	16	46	38	401	65.0	-200077.0	396.0	-11106.0
27	16	46	38	402	66.0	-200242.0	379.0	-10894.0
27	16	46	38	402	67.0	-200443.0	361.0	-11117.0
27	16	46	38	403	68.0	-200624.0	328.0	-11041.0
27	16	46	38	403	86.0	-204398.0	-382.0	-10444.0
27	16	46	38	404	87.0	-204237.0	-420.0	-10014.0
27	16	46	38	405	88.0	-204336.0	-449.0	-9990.0
27	16	46	38	405	89.0	-204621.0	-496.0	-9875.0
27	16	46	38	406	90.0	-204504.0	-521.0	-9810.0
27	16	46	38	406	91.0	-204917.0	-557.0	-9649.0
27	16	46	38	414	92.0	-204908.0	-601.0	-9760.0
27	16	46	38	438	93.0	-204836.0	-646.0	-9923.0
27	16	46	38	439	94.0	-204206.0	-677.0	-10253.0
27	16	46	38	439	95.0	-203259.0	-686.0	-10360.0
27	16	46	38	440	96.0	-202228.0	-741.0	-9805.0
27	16	46	38	441	97.0	-200988.0	-785.0	-9516.0
27	16	46	38	441	98.0	-199781.0	-831.0	-9904.0
27	16	46	38	442	99.0	-198996.0	-869.0	-10227.0
27	16	46	38	442	100.0	-198476.0	-906.0	-9658.0
27	16	46	38	443	101.0	-197941.0	-956.0	-9743.0
27	16	46	38	443	102.0	-197199.0	-993.0	-9805.0
27	16	46	38	444	103.0	-196262.0	-1046.0	-9925.0
27	16	46	38	445	104.0	-195496.0	-1086.0	-9930.0
27	16	46	38	445	105.0	-194966.0	-1115.0	-10007.0
27	16	46	38	446	106.0	-194287.0	-1159.0	-10087.0
27	16	46	38	446	107.0	-193972.0	-1204.0	-9945.0
27	16	46	38	447	109.0	-193936.0	-1302.0	-10262.0
27	16	46	38	448	110.0	-193904.0	-1338.0	-10259.0
27	16	46	38	448	111.0	-193639.0	-1384.0	-10249.0
27	16	46	38	449	112.0	-193234.0	-1427.0	-10023.0
27	16	46	38	449	113.0	-192679.0	-1471.0	-10224.0
27	16	46	38	450	114.0	-192282.0	-1483.0	-10041.0
27	16	46	38	529	115.0	-192490.0	-1526.0	-9822.0
27	16	46	38	529	116.0	-193298.0	-1557.0	-9320.0
27	16	46	38	530	117.0	-193997.0	-1593.0	-9444.0
27	16	46	38	531	118.0	-194525.0	-1651.0	-9734.0
27	16	46	38	531	119.0	-195378.0	-1701.0	-10129.0
27	16	46	38	532	120.0	-195979.0	-1734.0	-10597.0
27	16	46	38	532	121.0	-196424.0	-1786.0	-11670.0
27	16	46	38	533	122.0	-199401.0	-1840.0	-12436.0
27	16	46	38	534	123.0	-200122.0	-1876.0	-12976.0
27	16	46	38	534	124.0	-201679.0	-1909.0	-13279.0
27	16	46	38	535	125.0	-204777.0	-1953.0	-13849.0
27	16	46	38	535	126.0	-206879.0	-1996.0	-14077.0
27	16	46	38	536	127.0	-208760.0	-2051.0	-13509.0
27	16	46	38	537	128.0	-210825.0	-2094.0	-11715.0
27	16	46	38	537	129.0	-212532.0	-2131.0	-7182.0
27	16	46	38	538	154.0	-199245.0	-3152.0	-7484.0
27	16	46	38	538	155.0	-182646.0	-3193.0	-7689.0
27	16	46	38	539	156.0	-162567.0	-3224.0	-8480.0
27	16	46	38	539	157.0	-146710.0	-3253.0	-8609.0
27	16	46	38	540	158.0	-140696.0	-3277.0	-8767.0
27	16	46	38	540	159.0	-142499.0	-3311.0	-9307.0
27	16	46	38	573	160.0	-149211.0	-3342.0	-10035.0
27	16	46	38	574	161.0	-159401.0	-3391.0	-10394.0
27	16	46	38	574	162.0	-171089.0	-3427.0	-10179.0
27	16	46	38	575	163.0	-181901.0	-3458.0	-10184.0
27	16	46	38	576	164.0	-191231.0	-3509.0	-10330.0
27	16	46	38	576	165.0	-197291.0	-3537.0	-10310.0
27	16	46	38	577	166.0	-199838.0	-3562.0	-9939.0
27	16	46	38	577	167.0	-201978.0	-3611.0	-9770.0
27	16	46	38	578	168.0	-204494.0	-3661.0	-10076.0
27	16	46	38	579	169.0	-201058.0	-3699.0	-10222.0
27	16	46	38	579	170.0	-194732.0	-3734.0	-10276.0
27	16	46	38	580	171.0	-190331.0	-3795.0	-10084.0
27	16	46	38	580	172.0	-189582.0	-3829.0	-9984.0
27	16	46	38	581	173.0	-192592.0	-3862.0	-10169.0
27	16	46	38	582	174.0	-195937.0	-3892.0	-10187.0
27	16	46	38	582	176.0	-204996.0	-3978.0	-9893.0
27	16	46	38	583	177.0	-209276.0	-4015.0	-10146.0
27	16	46	38	583	178.0	-213206.0	-4046.0	-10097.0
27	16	46	38	584	179.0	-216087.0	-4069.0	-10289.0
27	16	46	38	584	180.0	-217659.0	-4110.0	-10273.0
27	16	46	38	585	181.0	-219095.0	-4148.0	-10425.0
27	16	46	38	618	182.0	-220694.0	-4179.0	-9915.0
27	16	46	38	618	183.0	-221197.0	-4217.0	-9411.0
27	16	46	38	619	184.0	-220320.0	-4240.0	-9597.0
27	16	46	38	620	185.0	-217914.0	-4268.0	-9581.0
27	16	46	38	620	186.0	-215158.0	-4313.0	-9040.0
27	16	46	38	621	187.0	-213369.0	-4337.0	-8749.0
27	16	46	38	621	188.0	-212684.0	-4382.0	-9334.0
27	16	46	38	622	189.0	-213156.0	-4421.0	-9327.0
27	16	46	38	623	190.0	-213921.0	-4462.0	-9496.0
27	16	46	38	623	191.0	-214806.0	-4503.0	-9291.0
27	16	46	38	624	192.0	-215349.0	-4534.0	-9281.0
27	16	46	38	624	193.0	-215574.0	-4573.0	-8856.0
27	16	46	38	625	194.0	-215674.0	-4602.0	-8605.0
27	16	46	38	626	195.0	-214981.0	-4636.0	-8641.0
27	16	46	38	626	196.0	-214506.0	-4660.0	-8724.0
27	16	46	38	627	198.0	-212981.0	-4746.0	-8968.0
27	16	46	38	627	199.0	-211752.0	-4774.0	-9289.0
27	16	46	38	628	200.0	-210618.0	-4808.0	-9302.0
27	16	46	38	628	201.0	-209132.0	-4851.0	-9579.0
27	16	46	38	629	202.0	-207714.0	-4875.0	-9579.0
27	16	46	38	630	203.0	-206592.0	-4889.0	-9331.0
27	16	46	38	630	204.0	-205466.0	-4918.0	-9555.0
27	16	46	38	662	205.0	-204788.0	-4950.0	-9244.0
27	16	46	38	663	206.0	-203865.0	-4969.0	-9343.0
27	16	46	38	664	207.0	-202671.0	-4995.0	-9502.0
27	16	46	38	664	208.0	-202176.0	-5042.0	-9447.0
27	16	46	38	665	209.0	-202212.0	-5085.0	-9442.0
27	16	46	38	665	210.0	-202342.0	-5114.0	-9462.0
27	16	46	38	666	211.0	-202571.0	-5164.0	-9217.0
27	16	46	38	667	212.0	-202632.0	-5207.0	-8984.0
27	16	46	38	667	213.0	-202519.0	-5245.0	-8983.0
27	16	46	38	668	214.0	-202551.0	-5268.0	-9384.0
27	16	46	38	668	215.0	-202335.0	-5309.0	-8913.0
27	16	46	38	669	216.0	-202149.0	-5344.0	-8702.0
27	16	46	38	670	217.0	-202126.0	-5371.0	-9202.0
27	16	46	38	670	218.0	-202782.0	-5405.0	-9790.0
27	16	46	38	671	219.0	-204015.0	-5438.0	-9624.0
27	16	46	38	672	221.0	-206482.0	-5521.0	-9006.0
27	16	46	38	673	222.0	-206834.0	-5561.0	-8862.0
27	16	46	38	673	223.0	-207156.0	-5577.0	-8869.0
27	16	46	38	674	224.0	-207362.0	-5612.0	-8573.0
27	16	46	38	675	225.0	-207342.0	-5622.0	-8771.0
27	16	46	38	675	226.0	-207226.0	-5654.0	-9012.0
27	16	46	38	714	227.0	-206956.0	-5684.0	-9144.0
27	16	46	38	714	228.0	-206332.0	-5707.0	-8949.0
27	16	46	38	715	229.0	-205488.0	-5731.0	-8874.0
27	16	46	38	716	230.0	-204454.0	-5761.0	-8929.0
27	16	46	38	716	231.0	-203532.0	-5782.0	-8649.0
27	16	46	38	717	232.0	-203083.0	-5823.0	-8824.0
27	16	46	38	717	233.0	-202976.0	-5857.0	-8892.0
27	16	46	38	718	234.0	-202556.0	-5877.0	-8951.0
27	16	46	38	718	235.0	-201976.0	-5892.0	-9026.0
27	16	46	38	719	236.0	-201411.0	-5916.0	-9219.0
27	16	46	38	719	237.0	-200763.0	-5943.0	-8972.0
27	16	46	38	720	238.0	-199911.0	-5962.0	-8922.0
27	16	46	38	752	239.0	-198673.0	-5967.0	-8836.0
27	16	46	38	753	240.0	-197683.0	-5967.0	-8812.0
27	16	46	38	754	241.0	-196929.0	-5981.0	-8734.0
27	16	46	38	754	243.0	-196128.0	-5986.0	-8502.0
27	16	46	38	755	244.0	-195534.0	-5961.0	-8523.0
27	16	46	38	755	245.0	-195106.0	-5940.0	-8521.0
27	16	46	38	756	246.0	-194391.0	-5929.0	-8482.0
27	16	46	38	757	247.0	-193736.0	-5899.0	-8184.0
27	16	46	38	757	248.0	-193531.0	-5867.0	-8374.0
27	16	46	38	758	249.0	-193506.0	-5831.0	-7877.0
27	16	46	38	759	250.0	-193539.0	-5804.0	-7576.0
27	16	46	38	759	251.0	-193930.0	-5801.0	-7332.0
27	16	46	38	760	252.0	-193775.0	-5741.0	-7490.0
27	16	46	38	760	253.0	-193639.0	-5702.0	-6999.0
27	16	46	38	761	254.0	-193896.0	-5647.0	-7037.0
27	16	46	38	762	255.0	-194596.0	-5600.0	-7414.0
27	16	46	38	762	10.0	-198051.0	-4754.0	-6990.0
27	16	46	38	763	11.0	-197656.0	-4653.0	-6992.0
27	16	46	38	763	12.0	-197391.0	-4542.0	-6765.0
27	16	46	38	764	13.0	-197149.0	-4424.0	-6907.0
27	16	46	38	765	14.0	-197017.0	-4324.0	-7117.0
27	16	46	38	765	15.0	-197414.0	-4206.0	-7142.0
27	16	46	38	766	16.0	-197522.0	-4093.0	-7568.0
27	16	46	38	798	17.0	-197147.0	-3994.0	-7802.0
27	16	46	38	798	18.0	-196656.0	-3844.0	-8080.0
27	16	46	38	799	19.0	-196650.0	-3729.0	-8137.0
27	16	46	38	800	20.0	-196951.0	-3610.0	-8107.0
27	16	46	38	800	21.0	-196976.0	-3487.0	-8072.0
27	16	46	38	801	22.0	-196837.0	-3359.0	-7819.0
27	16	46	38	802	23.0	-197379.0	-3264.0	-8086.0
27	16	46	38	802	24.0	-197952.0	-3141.0	-7769.0
27	16	46	38	803	25.0	-198359.0	-3030.0	-8157.0
27	16	46	38	803	26.0	-199178.0	-2904.0	-8127.0
27	16	46	38	804	27.0	-200007.0	-2779.0	-8131.0
27	16	46	38	805	28.0	-200587.0	-2671.0	-8334.0
27	16	46	38	805	29.0	-201143.0	-2542.0	-8867.0
27	16	46	38	806	30.0	-201582.0	-2428.0	-8964.0
27	16	46	38	807	31.0	-201887.0	-2306.0	-8702.0
27	16	46	38	807	32.0	-202061.0	-2176.0	-8680.0
27	16	46	38	808	33.0	-202432.0	-2054.0	-8181.0
27	16	46	38	808	34.0	-202922.0	-1929.0	-8504.0
27	16	46	38	809	35.0	-203522.0	-1809.0	-8441.0
27	16	46	38	810	36.0	-204112.0	-1696.0	-8669.0
27	16	46	38	810	37.0	-204991.0	-1571.0	-8659.0
27	16	46	38	811	38.0	-205718.0	-1459.0	-8532.0
27	16	46	38	843	39.0	-206586.0	-1337.0	-8528.0
27	16	46	38	844	40.0	-207778.0	-1214.0	-8758.0
27	16	46	38	845	41.0	-209049.0	-1088.0	-8694.0
27	16	46	38	845	42.0	-210378.0	-1001.0	-8498.0
27	16	46	38	846	43.0	-211985.0	-901.0	-8582.0
27	16	46	38	847	44.0	-214056.0	-801.0	-8470.0
27	16	46	38	847	45.0	-216009.0	-698.0	-8589.0
27	16	46	38	848	46.0	-217875.0	-601.0	-8593.0
27	16	46	38	848	47.0	-219914.0	-496.0	-8523.0
27	16	46	38	849	48.0	-222562.0	-395.0	-8591.0
27	16	46	38	850	49.0	-225115.0	-294.0	-8397.0
27	16	46	38	850	50.0	-227202.0	-189.0	-8597.0
27	16	46	38	851	51.0	-229056.0	-111.0	-8516.0
27	16	46	38	852	52.0	-230185.0	-21.0	-8117.0
27	16	46	38	852	53.0	-230232.0	84.0	-7926.0
27	16	46	38	853	55.0	-228477.0	244.0	-8417.0
27	16	46	38	854	56.0	-225955.0	319.0	-8493.0
27	16	46	38	854	57.0	-222967.0	419.0	-8099.0
27	16	46	38	855	58.0	-217210.0	503.0	-8121.0
27	16	46	38	856	59.0	-204087.0	579.0	-8144.0
27	16	46	38	856	60.0	-189397.0	666.0	-7847.0
27	16	46	38	857	61.0	-182936.0	752.0	-7275.0
27	16	46	38	888	62.0	-185642.0	840.0	-7454.0
27	16	46	38	889	63.0	-192794.0	943.0	-7591.0
27	16	46	38	890	64.0	-204804.0	998.0	-7480.0
27	16	46	38	890	65.0	-214699.0	1049.0	-7615.0
27	16	46	38	891	66.0	-215118.0	1121.0	-7821.0
27	16	46	38	892	67.0	-212417.0	1178.0	-7753.0
27	16	46	38	892	68.0	-209386.0	1249.0	-7803.0
27	16	46	38	893	69.0	-206422.0	1309.0	-7925.0
27	16	46	38	979	70.0	-203191.0	1371.0	-7579.0
27	16	46	38	979	71.0	-199021.0	1436.0	-7476.0
27	16	46	38	980	72.0	-195464.0	1494.0	-7503.0
27	16	46	38	981	73.0	-192114.0	1551.0	-7774.0
27	16	46	38	981	74.0	-189543.0	1606.0	-7544.0
27	16	46	38	982	75.0	-187265.0	1649.0	-7934.0
27	16	46	38	983	76.0	-185086.0	1706.0	-8121.0
27	16	46	38	983	77.0	-184249.0	1766.0	-8288.0
27	16	46	38	984	78.0	-185231.0	1808.0	-8167.0
27	16	46	38	985	79.0	-187137.0	1862.0	-8081.0
27	16	46	38	985	80.0	-190492.0	1923.0	-8298.0
27	16	46	38	986	81.0	-195023.0	1989.0	-8283.0
27	16	46	38	986	82.0	-199281.0	2026.0	-8474.0
27	16	46	38	987	83.0	-202221.0	2053.0	-8807.0
27	16	46	38	988	84.0	-203746.0	2093.0	-8834.0
27	16	46	38	988	100.0	-189877.0	2539.0	-7472.0
27	16	46	38	989	122.0	-197992.0	2504.0	-7704.0
27	16	46	38	990	123.0	-198831.0	2494.0	-7301.0
27	16	46	38	990	124.0	-198942.0	2457.0	-6998.0
27	16	46	38	991	125.0	-199649.0	2439.0	-7489.0
27	16	46	38	991	126.0	-200616.0	2417.0	-7623.0
27	16	46	38	992	127.0	-202169.0	2404.0	-6808.0
27	16	46	38	992	128.0	-203447.0	2388.0	-6322.0
27	16	46	39	23	129.0	-204117.0	2390.0	-6824.0
27	16	46	39	24	130.0	-205088.0	2380.0	-6831.0
27	16	46	39	25	131.0	-205786.0	2353.0	-6311.0
27	16	46	39	26	132.0	-206057.0	2316.0	-6331.0
27	16	46	39	26	133.0	-206155.0	2281.0	-7104.0
27	16	46	39	27	134.0	-206266.0	2241.0	-7458.0
27	16	46	39	28	135.0	-206046.0	2208.0	-6900.0
27	16	46	39	28	136.0	-205306.0	2179.0	-6970.0
27	16	46	39	29	137.0	-204533.0	2139.0	-6873.0
27	16	46	39	30	138.0	-203816.0	2104.0	-6730.0
27	16	46	39	30	139.0	-202826.0	2068.0	-6552.0
27	16	46	39	31	140.0	-201882.0	2050.0	-6602.0
27	16	46	39	31	141.0	-200659.0	2018.0	-6346.0
27	16	46	39	32	142.0	-199547.0	1966.0	-6673.0
27	16	46	39	33	143.0	-199844.0	1944.0	-6922.0
27	16	46	39	33	144.0	-200771.0	1898.0	-6849.0
27	16	46	39	34	145.0	-201126.0	1879.0	-6606.0
27	16	46	39	35	146.0	-200826.0	1859.0	-6711.0
27	16	46	39	35	147.0	-200212.0	1807.0	-6552.0
27	16	46	39	36	148.0	-199873.0	1781.0	-6650.0
27	16	46	39	36	149.0	-199967.0	1749.0	-6643.0
27	16	46	39	37	150.0	-200058.0	1739.0	-6628.0
27	16	46	39	68	151.0	-200289.0	1721.0	-6790.0
27	16	46	39	68	152.0	-200094.0	1686.0	-6765.0
27	16	46	39	69	153.0	-200047.0	1660.0	-6589.0
27	16	46	39	70	154.0	-200009.0	1606.0	-6805.0
27	16	46	39	70	155.0	-200033.0	1559.0	-6820.0
27	16	46	39	71	156.0	-199678.0	1523.0	-6277.0
27	16	46	39	72	157.0	-199187.0	1491.0	-5731.0
27	16	46	39	72	158.0	-199140.0	1450.0	-5746.0
27	16	46	39	73	159.0	-199477.0	1424.0	-5869.0
27	16	46	39	74	160.0	-199390.0	1404.0	-5472.0
27	16	46	39	74	161.0	-199137.0	1366.0	-5497.0
27	16	46	39	75	162.0	-200013.0	1338.0	-6039.0
27	16	46	39	76	163.0	-200366.0	1301.0	-6651.0
27	16	46	39	76	164.0	-200406.0	1256.0	-6383.0
27	16	46	39	77	165.0	-200710.0	1220.0	-5858.0
27	16	46	39	78	167.0	-200952.0	1151.0	-5759.0
27	16	46	39	78	168.0	-200847.0	1115.0	-5406.0
27	16	46	39	79	169.0	-200561.0	1095.0	-4969.0
27	16	46	39	79	170.0	-200071.0	1076.0	-4929.0
27	16	46	39	80	171.0	-199596.0	1047.0	-5211.0
27	16	46	39	81	172.0	-199240.0	1020.0	-5300.0
27	16	46	39	113	173.0	-198568.0	988.0	-5288.0
27	16	46	39	113	174.0	-197805.0	938.0	-5169.0
27	16	46	39	114	175.0	-196997.0	909.0	-5402.0
27	16	46	39	115	176.0	-196594.0	879.0	-5443.0
27	16	46	39	115	177.0	-196714.0	856.0	-5355.0
27	16	46	39	116	178.0	-196331.0	839.0	-5069.0
27	16	46	39	117	179.0	-195601.0	813.0	-5187.0
27	16	46	39	117	180.0	-195357.0	794.0	-5351.0
27	16	46	39	118	181.0	-195106.0	762.0	-5246.0
27	16	46	39	119	182.0	-194484.0	713.0	-5254.0
27	16	46	39	119	183.0	-193912.0	681.0	-5321.0
27	16	46	39	120	184.0	-193416.0	658.0	-5221.0
27	16	46	39	121	185.0	-192651.0	609.0	-4887.0
27	16	46	39	121	186.0	-192237.0	562.0	-4876.0
27	16	46	39	122	187.0	-192136.0	543.0	-5175.0
27	16	46	39	123	189.0	-192203.0	480.0	-4502.0
27	16	46	39	123	190.0	-191741.0	479.0	-4884.0
27	16	46	39	124	191.0	-191316.0	459.0	-5281.0
27	16	46	39	124	192.0	-190844.0	409.0	-5557.0
27	16	46	39	125	193.0	-190049.0	400.0	-5483.0
27	16	46	39	126	194.0	-189581.0	371.0	-5011.0
27	16	46	39	126	195.0	-189369.0	339.0	-5137.0
27	16	46	39	203	196.0	-189009.0	289.0	-5282.0
27	16	46	39	204	197.0	-189306.0	275.0	-4522.0
27	16	46	39	205	198.0	-189913.0	265.0	-4020.0
27	16	46	39	206	199.0	-190245.0	234.0	-4539.0
27	16	46	39	206	200.0	-190539.0	189.0	-4952.0
27	16	46	39	208	201.0	-190654.0	143.0	-4837.0
27	16	46	39	209	202.0	-190783.0	125.0	-4878.0
27	16	46	39	210	203.0	-191255.0	93.0	-5299.0
27	16	46	39	210	204.0	-192213.0	41.0	-5343.0
27	16	46	39	211	205.0	-192206.0	26.0	-5526.0
27	16	46	39	212	206.0	-194412.0	-1.0	-4939.0
27	16	46	39	212	207.0	-197187.0	-27.0	-4844.0
27	16	46	39	214	208.0	-197496.0	-65.0	-4860.0
27	16	46	39	215	209.0	-196122.0	-104.0	-4861.0
27	16	46	39	216	210.0	-195549.0	-145.0	-4596.0
27	16	46	39	217	212.0	-198951.0	-197.0	-4607.0
27	16	46	39	217	235.0	-207594.0	-1042.0	-2144.0
27	16	46	39	218	236.0	-207441.0	-1086.0	-2014.0
27	16	46	39	219	237.0	-206960.0	-1112.0	-2113.0
27	16	46	39	219	238.0	-206245.0	-1109.0	-1851.0
27	16	46	39	220	239.0	-205364.0	-1139.0	-1901.0
27	16	46	39	220	240.0	-204197.0	-1179.0	-2169.0
27	16	46	39	293	241.0	-203139.0	-1197.0	-1912.0
27	16	46	39	294	242.0	-201924.0	-1226.0	-2107.0
27	16	46	39	295	243.0	-200420.0	-1280.0	-2235.0
27	16	46	39	296	244.0	-199308.0	-1316.0	-1929.0
27	16	46	39	296	245.0	-198198.0	-1340.0	-1956.0
27	16	46	39	297	246.0	-197118.0	-1385.0	-2406.0
27	16	46	39	298	247.0	-195944.0	-1427.0	-2329.0
27	16	46	39	298	248.0	-194944.0	-1449.0	-2237.0
27	16	46	39	299	249.0	-194143.0	-1495.0	-2584.0
27	16	46	39	300	250.0	-192343.0	-1541.0	-2628.0
27	16	46	39	300	251.0	-192496.0	-1556.0	-2970.0
27	16	46	39	301	252.0	-192998.0	-1586.0	-3466.0
27	16	46	39	302	253.0	-192954.0	-1643.0	-3844.0
27	16	46	39	302	254.0	-191542.0	-1704.0	-3779.0
27	16	46	39	303	255.0	-191116.0	-1746.0	-4317.0
27	16	46	39	304	23.0	-195017.0	-2655.0	6223.0
27	16	46	39	304	24.0	-197198.0	-2692.0	5276.0
27	16	46	39	305	25.0	-198951.0	-2725.0	4402.0
27	16	46	39	306	26.0	-200117.0	-2766.0	3521.0
27	16	46	39	306	27.0	-200538.0	-2791.0	3022.0
27	16	46	39	307	28.0	-200015.0	-2833.0	2280.0
27	16	46	39	307	29.0	-197626.0	-2871.0	1647.0
27	16	46	39	338	30.0	-193230.0	-2906.0	846.0
27	16	46	39	339	31.0	-182964.0	-2936.0	766.0
27	16	46	39	340	32.0	-167475.0	-2969.0	202.0
27	16	46	39	341	33.0	-153841.0	-3017.0	-422.0
27	16	46	39	341	34.0	-146585.0	-3049.0	-432.0
27	16	46	39	342	35.0	-146321.0	-3093.0	-222.0
27	16	46	39	343	36.0	-148948.0	-3114.0	-359.0
27	16	46	39	344	37.0	-154262.0	-3160.0	-532.0
27	16	46	39	345	38.0	-164497.0	-3214.0	-531.0
27	16	46	39	346	39.0	-177966.0	-3260.0	-419.0
27	16	46	39	346	40.0	-191484.0	-3307.0	-960.0
27	16	46	39	347	41.0	-203118.0	-3327.0	-1337.0
27	16	46	39	348	42.0	-211429.0	-3361.0	-1235.0
27	16	46	39	349	43.0	-216085.0	-3401.0	-1287.0
27	16	46	39	349	44.0	-217361.0	-3439.0	-1304.0
27	16	46	39	350	46.0	-216812.0	-3492.0	-1527.0
27	16	46	39	351	47.0	-210990.0	-3536.0	-1386.0
27	16	46	39	351	48.0	-203691.0	-3581.0	-916.0
27	16	46	39	352	49.0	-198401.0	-3620.0	-1277.0
27	16	46	39	352	50.0	-197767.0	-3634.0	-1301.0
27	16	46	39	353	51.0	-199694.0	-3654.0	-1207.0
27	16	46	39	429	52.0	-204460.0	-3694.0	-1196.0
27	16	46	39	430	53.0	-211392.0	-3736.0	-1464.0
27	16	46	39	431	54.0	-220610.0	-3757.0	-1436.0
27	16	46	39	432	55.0	-225707.0	-3812.0	-1225.0
27	16	46	39	433	56.0	-227646.0	-3871.0	-1247.0
27	16	46	39	434	57.0	-227839.0	-3892.0	-1385.0
27	16	46	39	434	58.0	-228479.0	-3921.0	-1377.0
27	16	46	39	435	59.0	-228401.0	-3987.0	-1667.0
27	16	46	39	436	60.0	-226246.0	-4004.0	-1662.0
27	16	46	39	437	61.0	-222790.0	-4049.0	-1716.0
27	16	46	39	437	62.0	-218704.0	-4077.0	-1661.0
27	16	46	39	438	63.0	-215469.0	-4099.0	-1299.0
27	16	46	39	439	64.0	-213646.0	-4144.0	-1005.0
27	16	46	39	439	65.0	-213366.0	-4187.0	-624.0
27	16	46	39	440	66.0	-212782.0	-4224.0	-920.0
27	16	46	39	441	91.0	-198115.0	-5056.0	-3161.0
27	16	46	39	441	92.0	-196904.0	-5099.0	-2730.0
27	16	46	39	442	93.0	-196831.0	-5131.0	-2706.0
27	16	46	39	442	94.0	-197821.0	-5157.0	-2589.0
27	16	46	39	443	95.0	-199142.0	-5190.0	-2219.0
27	16	46	39	444	96.0	-200251.0	-5230.0	-2156.0
27	16	46	39	473	97.0	-200994.0	-5269.0	-2105.0
27	16	46	39	518	98.0	-201675.0	-5299.0	-2454.0
27	16	46	39	519	99.0	-202401.0	-5322.0	-2903.0
27	16	46	39	520	100.0	-203616.0	-5373.0	-3062.0
27	16	46	39	521	101.0	-204757.0	-5419.0	-2383.0
27	16	46	39	522	102.0	-205672.0	-5439.0	-2300.0
27	16	46	39	523	103.0	-206434.0	-5489.0	-2704.0
27	16	46	39	524	104.0	-207117.0	-5522.0	-2655.0
27	16	46	39	525	105.0	-207665.0	-5538.0	-1872.0
27	16	46	39	526	106.0	-207954.0	-5594.0	-2039.0
27	16	46	39	527	107.0	-207961.0	-5649.0	-2522.0
27	16	46	39	527	108.0	-207614.0	-5691.0	-2812.0
27	16	46	39	528	109.0	-206920.0	-5727.0	-2546.0
27	16	46	39	529	110.0	-206329.0	-5749.0	-2265.0
27	16	46	39	530	111.0	-205767.0	-5763.0	-2087.0
27	16	46	39	530	113.0	-204739.0	-5820.0	-2488.0
27	16	46	39	531	114.0	-204071.0	-5843.0	-2336.0
27	16	46	39	532	136.0	-198945.0	-5528.0	-1016.0
27	16	46	39	533	137.0	-199007.0	-5466.0	-1690.0
27	16	46	39	533	138.0	-198986.0	-5397.0	-1415.0
27	16	46	39	534	139.0	-198819.0	-5332.0	-980.0
27	16	46	39	535	140.0	-198364.0	-5264.0	-1433.0
27	16	46	39	535	141.0	-197810.0	-5186.0	-1773.0
27	16	46	39	563	142.0	-197546.0	-5086.0	-1182.0
27	16	46	39	564	143.0	-197164.0	-4996.0	-1084.0
27	16	46	39	565	144.0	-197284.0	-4900.0	-1037.0
27	16	46	39	566	145.0	-197401.0	-4834.0	-1432.0
27	16	46	39	566	146.0	-197678.0	-4726.0	-1137.0
27	16	46	39	567	147.0	-198184.0	-4651.0	-1064.0
27	16	46	39	568	148.0	-198547.0	-4555.0	-1492.0
27	16	46	39	569	149.0	-198905.0	-4462.0	-1951.0
27	16	46	39	569	150.0	-199167.0	-4372.0	-2312.0
27	16	46	39	570	151.0	-199391.0	-4287.0	-2482.0
27	16	46	39	571	152.0	-199610.0	-4167.0	-2520.0
27	16	46	39	572	153.0	-199784.0	-4059.0	-2654.0
27	16	46	39	572	154.0	-200401.0	-3952.0	-2686.0
27	16	46	39	573	155.0	-201096.0	-3851.0	-3009.0
27	16	46	39	574	156.0	-201702.0	-3744.0	-3536.0
27	16	46	39	574	158.0	-202117.0	-3556.0	-3881.0
27	16	46	39	575	159.0	-201938.0	-3454.0	-3530.0
27	16	46	39	576	160.0	-202289.0	-3342.0	-3839.0
27	16	46	39	576	161.0	-202833.0	-3205.0	-3929.0
27	16	46	39	577	162.0	-203269.0	-3094.0	-3392.0
27	16	46	39	578	163.0	-203709.0	-2985.0	-2811.0
27	16	46	39	609	164.0	-204285.0	-2872.0	-2962.0
27	16	46	39	609	165.0	-204602.0	-2760.0	-3656.0
27	16	46	39	610	166.0	-204702.0	-2659.0	-3755.0
27	16	46	39	611	167.0	-205038.0	-2552.0	-3990.0
27	16	46	39	612	168.0	-205614.0	-2461.0	-3764.0
27	16	46	39	613	169.0	-206250.0	-2362.0	-4118.0
27	16	46	39	613	170.0	-206945.0	-2264.0	-4319.0
27	16	46	39	614	171.0	-207706.0	-2159.0	-3817.0
27	16	46	39	615	172.0	-208600.0	-2065.0	-3495.0
27	16	46	39	616	173.0	-209852.0	-1994.0	-3757.0
27	16	46	39	616	174.0	-211240.0	-1897.0	-4046.0
27	16	46	39	617	175.0	-212696.0	-1793.0	-3809.0
27	16	46	39	618	176.0	-214460.0	-1684.0	-3671.0
27	16	46	39	619	177.0	-216151.0	-1618.0	-3781.0
27	16	46	39	619	178.0	-217388.0	-1522.0	-3866.0
27	16	46	39	620	180.0	-218727.0	-1352.0	-3635.0
27	16	46	39	621	181.0	-218819.0	-1275.0	-3360.0
27	16	46	39	621	182.0	-218448.0	-1184.0	-3097.0
27	16	46	39	622	183.0	-217523.0	-1090.0	-2860.0
27	16	46	39	622	184.0	-216011.0	-990.0	-2808.0
27	16	46	39	623	185.0	-213181.0	-901.0	-3082.0
27	16	46	39	624	186.0	-207524.0	-819.0	-3137.0
27	16	46	39	834	187.0	-195816.0	-771.0	-3273.0
27	16	46	39	835	188.0	-185724.0	-696.0	-3047.0
27	16	46	39	836	189.0	-187549.0	-604.0	-2853.0
27	16	46	39	837	190.0	-193797.0	-546.0	-2835.0
27	16	46	39	838	191.0	-202099.0	-473.0	-2293.0
27	16	46	39	839	192.0	-211939.0	-399.0	-2202.0
27	16	46	39	840	193.0	-218241.0	-325.0	-2879.0
27	16	46	39	841	194.0	-219719.0	-265.0	-3029.0
27	16	46	39	841	195.0	-218658.0	-196.0	-2979.0
27	16	46	39	842	196.0	-214916.0	-143.0	-2788.0
27	16	46	39	843	197.0	-211127.0	-87.0	-2949.0
27	16	46	39	844	198.0	-207592.0	-34.0	-2995.0
27	16	46	39	844	199.0	-204149.0	28.0	-2712.0
27	16	46	39	845	200.0	-202361.0	91.0	-2054.0
27	16	46	39	846	201.0	-201115.0	155.0	-1481.0
27	16	46	39	846	37.0	-197069.0	306.0	-1395.0
27	16	46	39	847	38.0	-197949.0	293.0	-927.0
27	16	46	39	848	39.0	-198589.0	287.0	-219.0
27	16	46	39	848	40.0	-198722.0	266.0	-339.0
27	16	46	39	849	41.0	-198453.0	238.0	-344.0
27	16	46	39	849	42.0	-197887.0	210.0	225.0
27	16	46	39	879	43.0	-197617.0	192.0	149.0
27	16	46	39	879	44.0	-197468.0	188.0	-311.0
27	16	46	39	881	45.0	-197598.0	180.0	-298.0
27	16	46	39	881	46.0	-197803.0	151.0	-362.0
27	16	46	39	882	47.0	-198241.0	122.0	-401.0
27	16	46	39	883	48.0	-198734.0	94.0	-522.0
27	16	46	39	884	49.0	-199269.0	79.0	-681.0
27	16	46	39	885	50.0	-199597.0	55.0	-671.0
27	16	46	39	885	51.0	-199753.0	19.0	-549.0
27	16	46	39	886	52.0	-199885.0	-14.0	-268.0
27	16	46	39	887	53.0	-199766.0	-28.0	-521.0
27	16	46	39	888	54.0	-199339.0	-61.0	-723.0
27	16	46	39	888	55.0	-198984.0	-74.0	-955.0
27	16	46	39	889	56.0	-198817.0	-97.0	-1213.0
27	16	46	39	890	57.0	-198132.0	-116.0	-1550.0
27	16	46	39	890	59.0	-197418.0	-163.0	-1467.0
27	16	46	39	891	60.0	-197774.0	-202.0	-1731.0
27	16	46	39	892	61.0	-198778.0	-223.0	-1957.0
27	16	46	39	892	62.0	-199890.0	-230.0	-1741.0
27	16	46	39	893	63.0	-200220.0	-255.0	-1902.0
27	16	46	39	893	64.0	-200507.0	-261.0	-2087.0
27	16	46	39	968	65.0	-200725.0	-293.0	-2244.0
27	16	46	39	969	66.0	-201055.0	-305.0	-2090.0
27	16	46	39	970	67.0	-201375.0	-346.0	-1984.0
27	16	46	39	970	68.0	-201673.0	-384.0	-1650.0
27	16	46	39	971	69.0	-201719.0	-401.0	-1469.0
27	16	46	39	972	70.0	-201451.0	-419.0	-1254.0
27	16	46	39	972	71.0	-201286.0	-443.0	-984.0
27	16	46	39	974	72.0	-201739.0	-489.0	-557.0
27	16	46	39	975	73.0	-202573.0	-509.0	-874.0
27	16	46	39	975	74.0	-203149.0	-524.0	-1341.0
27	16	46	39	976	75.0	-203659.0	-555.0	-1176.0
27	16	46	39	977	76.0	-204120.0	-594.0	-807.0
27	16	46	39	977	77.0	-204436.0	-614.0	-999.0
27	16	46	39	978	78.0	-204779.0	-644.0	-983.0
27	16	46	39	978	79.0	-204552.0	-656.0	-298.0
27	16	46	39	979	82.0	-204256.0	-759.0	-799.0
27	16	46	39	979	104.0	-193444.0	-1454.0	-80.0
27	16	46	39	980	105.0	-192809.0	-1477.0	573.0
27	16	46	39	981	106.0	-192051.0	-1509.0	719.0
27	16	46	39	981	107.0	-191355.0	-1526.0	489.0
27	16	46	39	982	108.0	-190761.0	-1547.0	1081.0
27	16	46	39	982	109.0	-190144.0	-1564.0	1450.0
27	16	46	39	983	110.0	-189472.0	-1604.0	893.0
27	16	46	40	13	111.0	-189149.0	-1647.0	368.0
27	16	46	40	13	112.0	-189502.0	-1679.0	162.0
27	16	46	40	14	113.0	-189964.0	-1707.0	-73.0
27	16	46	40	15	114.0	-190630.0	-1748.0	-1012.0
27	16	46	40	15	115.0	-191584.0	-1788.0	-1554.0
27	16	46	40	16	116.0	-193059.0	-1819.0	-1501.0
27	16	46	40	17	117.0	-194634.0	-1844.0	-1874.0
27	16	46	40	17	118.0	-196108.0	-1882.0	-2330.0
27	16	46	40	18	119.0	-197845.0	-1916.0	-3261.0
27	16	46	40	18	120.0	-200263.0	-1942.0	-3929.0
27	16	46	40	19	121.0	-202631.0	-1980.0	-3718.0
27	16	46	40	20	122.0	-204372.0	-2043.0	-2619.0
27	16	46	40	20	123.0	-205706.0	-2095.0	544.0
27	16	46	40	21	124.0	-206684.0	-2122.0	4976.0
27	16	46	40	21	125.0	-207562.0	-2149.0	8763.0
27	16	46	40	22	126.0	-208062.0	-2192.0	12239.0
27	16	46	40	22	127.0	-208099.0	-2239.0	14826.0
27	16	46	40	23	128.0	-207586.0	-2266.0	17008.0
27	16	46	40	24	129.0	-206467.0	-2306.0	18089.0
27	16	46	40	24	130.0	-204767.0	-2328.0	18238.0
27	16	46	40	25	131.0	-202647.0	-2369.0	17869.0
27	16	46	40	25	132.0	-200500.0	-2399.0	17063.0
27	16	46	40	58	133.0	-198139.0	-2438.0	16977.0
27	16	46	40	58	134.0	-195599.0	-2461.0	15860.0
27	16	46	40	59	135.0	-193042.0	-2503.0	14862.0
27	16	46	40	60	136.0	-190854.0	-2539.0	13574.0
27	16	46	40	60	137.0	-189389.0	-2589.0	12616.0
27	16	46	40	61	138.0	-188537.0	-2622.0	12293.0
27	16	46	40	62	139.0	-188825.0	-2677.0	11368.0
27	16	46	40	62	140.0	-190297.0	-2717.0	10198.0
27	16	46	40	63	141.0	-192137.0	-2762.0	9307.0
27	16	46	40	63	142.0	-193812.0	-2796.0	9111.0
27	16	46	40	64	143.0	-194821.0	-2847.0	8240.0
27	16	46	40	64	144.0	-195214.0	-2889.0	6894.0
27	16	46	40	65	145.0	-194795.0	-2914.0	6538.0
27	16	46	40	66	146.0	-193639.0	-2960.0	6401.0
27	16	46	40	66	147.0	-191804.0	-3005.0	5778.0
27	16	46	40	67	149.0	-181309.0	-3097.0	4341.0
27	16	46	40	67	150.0	-168167.0	-3133.0	3900.0
27	16	46	40	68	151.0	-153929.0	-3162.0	3365.0
27	16	46	40	69	152.0	-144767.0	-3203.0	2903.0
27	16	46	40	69	153.0	-142393.0	-3241.0	2528.0
27	16	46	40	70	154.0	-144205.0	-3281.0	2224.0
27	16	46	40	103	155.0	-147812.0	-3325.0	1863.0
27	16	46	40	104	156.0	-155624.0	-3343.0	1830.0
27	16	46	40	105	157.0	-169456.0	-3364.0	1548.0
27	16	46	40	105	158.0	-185173.0	-3410.0	1456.0
27	16	46	40	106	159.0	-199212.0	-3461.0	1315.0
27	16	46	40	106	160.0	-211915.0	-3491.0	1119.0
27	16	46	40	107	161.0	-220340.0	-3538.0	1099.0
27	16	46	40	107	162.0	-223502.0	-3595.0	1022.0
27	16	46	40	108	163.0	-221732.0	-3643.0	629.0
27	16	46	40	109	164.0	-214791.0	-3682.0	648.0
27	16	46	40	109	165.0	-206174.0	-3734.0	918.0
27	16	46	40	110	166.0	-197525.0	-3783.0	1545.0
27	16	46	40	111	167.0	-194952.0	-3809.0	1743.0
27	16	46	40	111	168.0	-200451.0	-3852.0	1517.0
27	16	46	40	112	169.0	-212242.0	-3913.0	1059.0
27	16	46	40	112	171.0	-233219.0	-3983.0	1172.0
27	16	46	40	113	172.0	-237228.0	-4012.0	1368.0
27	16	46	40	114	173.0	-237808.0	-4055.0	579.0
27	16	46	40	114	174.0	-236365.0	-4099.0	991.0
27	16	46	40	238	175.0	-232466.0	-4125.0	2219.0
27	16	46	40	239	176.0	-226593.0	-4164.0	2040.0
27	16	46	40	240	177.0	-220207.0	-4184.0	1891.0
27	16	46	40	240	178.0	-215239.0	-4234.0	1625.0
27	16	46	40	241	179.0	-213142.0	-4271.0	1848.0
27	16	46	40	242	180.0	-212666.0	-4318.0	1634.0
27	16	46	40	243	181.0	-212216.0	-4369.0	1109.0
27	16	46	40	244	182.0	-211322.0	-4419.0	1231.0
27	16	46	40	245	183.0	-209456.0	-4477.0	1534.0
27	16	46	40	246	184.0	-207064.0	-4496.0	1393.0
27	16	46	40	246	185.0	-204709.0	-4537.0	1360.0
27	16	46	40	247	186.0	-202690.0	-4562.0	1415.0
27	16	46	40	247	187.0	-200920.0	-4606.0	1319.0
27	16	46	40	248	188.0	-199452.0	-4647.0	1203.0
27	16	46	40	249	189.0	-198542.0	-4702.0	1138.0
27	16	46	40	249	190.0	-198586.0	-4742.0	873.0
27	16	46	40	250	239.0	-194779.0	-6352.0	2050.0
27	16	46	40	250	240.0	-193999.0	-6347.0	1965.0
27	16	46	40	251	241.0	-192841.0	-6330.0	2121.0
27	16	46	40	251	242.0	-191367.0	-6301.0	2921.0
27	16	46	40	252	243.0	-190284.0	-6287.0	3093.0
27	16	46	40	252	244.0	-189274.0	-6255.0	3060.0
27	16	46	40	283	245.0	-188066.0	-6231.0	3228.0
27	16	46	40	283	246.0	-186900.0	-6208.0	3286.0
27	16	46	40	284	247.0	-185679.0	-6153.0	3044.0
27	16	46	40	285	248.0	-184388.0	-6127.0	3003.0
27	16	46	40	285	249.0	-183183.0	-6090.0	2939.0
27	16	46	40	286	250.0	-182889.0	-6051.0	2909.0
27	16	46	40	287	251.0	-184004.0	-5985.0	2765.0
27	16	46	40	287	252.0	-186264.0	-5954.0	2854.0
27	16	46	40	288	253.0	-188219.0	-5907.0	3121.0
27	16	46	40	288	254.0	-189669.0	-5836.0	3148.0
27	16	46	40	289	255.0	-191287.0	-5773.0	3020.0
27	16	46	40	290	0.0	-193071.0	-5707.0	3100.0
27	16	46	40	290	1.0	-194910.0	-5636.0	3084.0
27	16	46	40	291	2.0	-196199.0	-5551.0	2872.0
27	16	46	40	291	3.0	-197132.0	-5474.0	3045.0
27	16	46	40	292	5.0	-199139.0	-5303.0	3274.0
27	16	46	40	293	6.0	-199466.0	-5219.0	3891.0
27	16	46	40	293	7.0	-199374.0	-5153.0	3831.0
27	16	46	40	294	8.0	-199617.0	-5055.0	3419.0
27	16	46	40	294	9.0	-200183.0	-4942.0	3253.0
27	16	46	40	295	10.0	-201016.0	-4823.0	2774.0
27	16	46	40	295	11.0	-202159.0	-4699.0	2550.0
27	16	46	40	327	12.0	-203491.0	-4606.0	2345.0
27	16	46	40	328	13.0	-204583.0	-4497.0	2050.0
27	16	46	40	329	14.0	-205463.0	-4383.0	2279.0
27	16	46	40	329	15.0	-206309.0	-4299.0	2268.0
27	16	46	40	330	16.0	-207052.0	-4190.0	2219.0
27	16	46	40	331	17.0	-207789.0	-4096.0	2128.0
27	16	46	40	331	18.0	-208480.0	-3969.0	1896.0
27	16	46	40	332	19.0	-208844.0	-3854.0	2009.0
27	16	46	40	332	20.0	-209061.0	-3754.0	1561.0
27	16	46	40	418	21.0	-208951.0	-3646.0	1241.0
27	16	46	40	419	22.0	-208596.0	-3534.0	937.0
27	16	46	40	420	23.0	-207924.0	-3421.0	1014.0
27	16	46	40	420	24.0	-206953.0	-3320.0	965.0
27	16	46	40	421	25.0	-206231.0	-3187.0	1039.0
27	16	46	40	422	26.0	-205463.0	-3094.0	766.0
27	16	46	40	422	28.0	-204402.0	-2871.0	829.0
27	16	46	40	423	29.0	-204157.0	-2762.0	599.0
27	16	46	40	424	30.0	-204054.0	-2642.0	471.0
27	16	46	40	424	31.0	-204031.0	-2539.0	468.0
27	16	46	40	425	32.0	-204582.0	-2417.0	601.0
27	16	46	40	425	33.0	-205469.0	-2312.0	481.0
27	16	46	40	426	34.0	-206538.0	-2239.0	562.0
27	16	46	40	427	35.0	-207952.0	-2140.0	719.0
27	16	46	40	427	36.0	-209631.0	-2028.0	778.0
27	16	46	40	428	72.0	-193210.0	656.0	937.0
27	16	46	40	429	73.0	-189280.0	714.0	756.0
27	16	46	40	430	74.0	-185127.0	773.0	1303.0
27	16	46	40	430	75.0	-180816.0	825.0	1689.0
27	16	46	40	431	76.0	-177466.0	885.0	1569.0
27	16	46	40	432	77.0	-176166.0	931.0	1391.0
27	16	46	40	433	78.0	-176695.0	985.0	1368.0
27	16	46	40	463	79.0	-178710.0	1044.0	1341.0
27	16	46	40	464	80.0	-181948.0	1086.0	1218.0
27	16	46	40	464	81.0	-184595.0	1144.0	1079.0
27	16	46	40	465	82.0	-186499.0	1171.0	1509.0
27	16	46	40	466	83.0	-188211.0	1198.0	1841.0
27	16	46	40	466	84.0	-189161.0	1226.0	1990.0
27	16	46	40	467	85.0	-189682.0	1264.0	1551.0
27	16	46	40	467	86.0	-190057.0	1294.0	1470.0
27	16	46	40	468	87.0	-189641.0	1311.0	1639.0
27	16	46	40	469	88.0	-188541.0	1333.0	1619.0
27	16	46	40	469	89.0	-187679.0	1371.0	1268.0
27	16	46	40	470	90.0	-187684.0	1398.0	986.0
27	16	46	40	471	91.0	-188208.0	1414.0	787.0
27	16	46	40	471	92.0	-189333.0	1433.0	985.0
27	16	46	40	472	93.0	-190728.0	1458.0	1284.0
27	16	46	40	473	95.0	-193852.0	1504.0	778.0
27	16	46	40	473	96.0	-195033.0	1495.0	806.0
27	16	46	40	474	97.0	-196127.0	1518.0	993.0
27	16	46	40	474	98.0	-197004.0	1543.0	1000.0
27	16	46	40	475	99.0	-198028.0	1567.0	948.0
27	16	46	40	475	100.0	-199429.0	1581.0	905.0
27	16	46	40	509	101.0	-201312.0	1577.0	857.0
27	16	46	40	510	102.0	-202975.0	1608.0	1132.0
27	16	46	40	510	103.0	-204299.0	1607.0	1205.0
27	16	46	40	511	104.0	-205361.0	1606.0	1248.0
27	16	46	40	512	105.0	-206406.0	1608.0	1088.0
27	16	46	40	512	106.0	-207099.0	1594.0	1199.0
27	16	46	40	513	107.0	-207607.0	1603.0	1000.0
27	16	46	40	514	108.0	-208312.0	1593.0	1242.0
27	16	46	40	514	109.0	-208957.0	1583.0	1293.0
27	16	46	40	515	110.0	-209450.0	1567.0	929.0
27	16	46	40	516	111.0	-209361.0	1562.0	1329.0
27	16	46	40	516	112.0	-209108.0	1558.0	1781.0
27	16	46	40	517	113.0	-208751.0	1561.0	1843.0
27	16	46	40	517	114.0	-208292.0	1549.0	1618.0
27	16	46	40	518	115.0	-207571.0	1523.0	1526.0
27	16	46	40	519	117.0	-205783.0	1482.0	1871.0
27	16	46	40	519	118.0	-204538.0	1458.0	1345.0
27	16	46	40	520	119.0	-203705.0	1435.0	1189.0
27	16	46	40	520	120.0	-202871.0	1438.0	1669.0
27	16	46	40	521	121.0	-201594.0	1412.0	1993.0
27	16	46	40	522	122.0	-200284.0	1406.0	1789.0
27	16	46	40	522	123.0	-199227.0	1398.0	1787.0
27	16	46	40	733	124.0	-198772.0	1384.0	2023.0
27	16	46	40	734	125.0	-198215.0	1353.0	1988.0
27	16	46	40	735	126.0	-197518.0	1314.0	1620.0
27	16	46	40	735	127.0	-196654.0	1296.0	1769.0
27	16	46	40	736	128.0	-195799.0	1286.0	1558.0
27	16	46	40	737	129.0	-195035.0	1228.0	1576.0
27	16	46	40	737	130.0	-194366.0	1206.0	1495.0
27	16	46	40	738	131.0	-193496.0	1200.0	1334.0
27	16	46	40	739	132.0	-193001.0	1182.0	1856.0
27	16	46	40	739	133.0	-192690.0	1162.0	1705.0
27	16	46	40	740	134.0	-192057.0	1124.0	1269.0
27	16	46	40	741	135.0	-191292.0	1085.0	1094.0
27	16	46	40	741	136.0	-192601.0	1060.0	1420.0
27	16	46	40	742	137.0	-192219.0	1037.0	1272.0
27	16	46	40	743	138.0	-192669.0	994.0	1285.0
27	16	46	40	743	230.0	-191792.0	-1482.0	639.0
27	16	46	40	744	231.0	-192004.0	-1501.0	481.0
27	16	46	40	744	232.0	-192341.0	-1529.0	59.0
27	16	46	40	745	233.0	-192522.0	-1556.0	4.0
27	16	46	40	746	234.0	-192898.0	-1598.0	201.0
27	16	46	40	746	235.0	-193022.0	-1614.0	343.0
27	16	46	40	778	236.0	-193215.0	-1649.0	209.0
27	16	46	40	779	237.0	-193837.0	-1674.0	321.0
27	16	46	40	780	238.0	-194906.0	-1719.0	280.0
27	16	46	40	781	239.0	-196263.0	-1763.0	493.0
27	16	46	40	781	240.0	-198106.0	-1786.0	329.0
27	16	46	40	782	241.0	-200073.0	-1804.0	-76.0
27	16	46	40	783	242.0	-202122.0	-1834.0	-867.0
27	16	46	40	784	243.0	-203938.0	-1869.0	-1614.0
27	16	46	40	785	244.0	-206136.0	-1930.0	-2207.0
27	16	46	40	785	245.0	-208399.0	-1968.0	-2721.0
27	16	46	40	786	246.0	-210382.0	-2000.0	-2884.0
27	16	46	40	787	247.0	-211869.0	-2057.0	-3772.0
27	16	46	40	787	248.0	-213186.0	-2085.0	-3571.0
27	16	46	40	788	249.0	-214538.0	-2119.0	-2007.0
27	16	46	40	788	250.0	-215495.0	-2164.0	728.0
27	16	46	40	789	252.0	-215541.0	-2211.0	9283.0
27	16	46	40	790	253.0	-214367.0	-2248.0	13336.0
27	16	46	40	790	254.0	-212152.0	-2252.0	16539.0
27	16	46	40	791	255.0	-208495.0	-2304.0	19071.0
27	16	46	40	791	0.0	-204167.0	-2345.0	21002.0
27	16	46	40	792	1.0	-199350.0	-2357.0	22056.0
27	16	46	40	822	2.0	-193863.0	-2377.0	22141.0
27	16	46	40	823	3.0	-188529.0	-2411.0	21742.0
27	16	46	40	824	4.0	-183952.0	-2456.0	21090.0
27	16	46	40	826	5.0	-180530.0	-2486.0	19498.0
27	16	46	40	826	6.0	-177975.0	-2524.0	17383.0
27	16	46	40	827	7.0	-176599.0	-2560.0	16071.0
27	16	46	40	828	8.0	-176864.0	-2586.0	14293.0
27	16	46	40	829	9.0	-178106.0	-2637.0	12741.0
27	16	46	40	829	10.0	-180218.0	-2684.0	11697.0
27	16	46	40	830	11.0	-183322.0	-2726.0	10578.0
27	16	46	40	830	12.0	-186751.0	-2742.0	9866.0
27	16	46	40	831	13.0	-190510.0	-2778.0	9044.0
27	16	46	40	832	14.0	-194126.0	-2814.0	7587.0
27	16	46	40	832	15.0	-197595.0	-2857.0	6382.0
27	16	46	40	833	16.0	-200367.0	-2890.0	5535.0
27	16	46	40	833	19.0	-198906.0	-2993.0	3059.0
27	16	46	40	867	20.0	-184887.0	-3028.0	3225.0
27	16	46	40	868	21.0	-164283.0	-3060.0	2736.0
27	16	46	40	869	22.0	-146405.0	-3092.0	2353.0
27	16	46	40	870	23.0	-139552.0	-3127.0	2078.0
27	16	46	40	870	24.0	-142458.0	-3152.0	1417.0
27	16	46	40	871	25.0	-151703.0	-3169.0	591.0
27	16	46	40	872	26.0	-164407.0	-3199.0	457.0
27	16	46	40	872	27.0	-177897.0	-3256.0	20.0
27	16	46	40	873	28.0	-189208.0	-3304.0	-316.0
27	16	46	40	873	29.0	-197435.0	-3360.0	19.0
27	16	46	40	874	30.0	-201942.0	-3396.0	161.0
27	16	46	40	875	31.0	-204104.0	-3419.0	118.0
27	16	46	40	875	32.0	-205881.0	-3429.0	-38.0
27	16	46	40	876	33.0	-208136.0	-3467.0	304.0
27	16	46	40	877	34.0	-209127.0	-3531.0	215.0
27	16	46	40	877	35.0	-205275.0	-3578.0	-67.0
27	16	46	40	878	41.0	-208084.0	-3811.0	-769.0
27	16	46	40	879	42.0	-214446.0	-3836.0	-672.0
27	16	46	40	879	43.0	-219732.0	-3864.0	-1036.0
27	16	46	40	880	44.0	-222577.0	-3897.0	-1171.0
27	16	46	40	880	45.0	-223353.0	-3914.0	-1178.0
27	16	46	40	881	46.0	-222491.0	-3945.0	-1731.0
27	16	46	40	882	47.0	-220551.0	-3991.0	-2092.0
27	16	46	40	913	48.0	-218320.0	-4025.0	-1952.0
27	16	46	40	914	49.0	-216277.0	-4054.0	-1249.0
27	16	46	40	914	50.0	-214376.0	-4084.0	-1067.0
27	16	46	40	915	51.0	-213086.0	-4120.0	-1256.0
27	16	46	40	916	52.0	-211989.0	-4147.0	-919.0
27	16	46	40	916	53.0	-211146.0	-4190.0	-784.0
27	16	46	40	917	54.0	-210952.0	-4228.0	-1430.0
27	16	46	40	918	55.0	-210664.0	-4268.0	-1835.0
27	16	46	40	918	56.0	-210157.0	-4309.0	-1864.0
27	16	46	40	919	57.0	-210116.0	-4337.0	-1755.0
27	16	46	40	919	58.0	-210328.0	-4380.0	-1977.0
27	16	46	40	920	59.0	-211056.0	-4429.0	-1875.0
27	16	46	40	921	60.0	-211953.0	-4467.0	-1652.0
27	16	46	40	958	61.0	-212507.0	-4504.0	-1699.0
27	16	46	40	959	62.0	-212699.0	-4524.0	-1627.0
27	16	46	40	959	63.0	-212513.0	-4541.0	-1474.0
27	16	46	40	960	64.0	-212275.0	-4587.0	-1736.0
27	16	46	40	961	65.0	-211849.0	-4632.0	-1972.0
27	16	46	40	961	66.0	-210591.0	-4656.0	-1850.0
27	16	46	40	962	67.0	-209464.0	-4683.0	-1986.0
27	16	46	40	963	68.0	-208564.0	-4696.0	-2159.0
27	16	46	40	963	69.0	-207521.0	-4716.0	-2146.0
27	16	46	40	964	70.0	-206102.0	-4781.0	-2007.0
27	16	46	40	964	71.0	-204249.0	-4822.0	-2131.0
27	16	46	40	965	72.0	-202105.0	-4837.0	-2264.0
27	16	46	41	3	73.0	-200429.0	-4865.0	-2181.0
27	16	46	41	3	74.0	-199421.0	-4906.0	-2076.0
27	16	46	41	4	75.0	-199641.0	-4954.0	-2529.0
27	16	46	41	5	86.0	-202976.0	-5317.0	-3143.0
27	16	46	41	5	87.0	-204379.0	-5351.0	-2564.0
27	16	46	41	6	88.0	-206161.0	-5397.0	-2721.0
27	16	46	41	7	89.0	-207485.0	-5421.0	-2739.0
27	16	46	41	7	90.0	-208499.0	-5427.0	-2200.0
27	16	46	41	8	91.0	-209311.0	-5489.0	-1928.0
27	16	46	41	9	92.0	-209802.0	-5523.0	-2210.0
27	16	46	41	10	93.0	-209749.0	-5556.0	-2540.0
27	16	46	41	10	94.0	-209676.0	-5578.0	-2436.0
27	16	46	41	11	95.0	-209515.0	-5612.0	-2609.0
27	16	46	41	11	96.0	-209240.0	-5628.0	-2798.0
27	16	46	41	12	97.0	-209030.0	-5649.0	-2979.0
27	16	46	41	13	108.0	-200289.0	-5809.0	-2592.0
27	16	46	41	13	109.0	-199719.0	-5829.0	-2632.0
27	16	46	41	14	110.0	-199209.0	-5817.0	-2202.0
27	16	46	41	15	111.0	-198564.0	-5788.0	-2034.0
27	16	46	41	15	112.0	-198081.0	-5740.0	-2039.0
27	16	46	41	16	113.0	-197667.0	-5706.0	-2324.0
27	16	46	41	16	114.0	-197195.0	-5664.0	-2487.0
27	16	46	41	48	115.0	-196699.0	-5628.0	-2545.0
27	16	46	41	49	116.0	-196194.0	-5599.0	-2049.0
27	16	46	41	49	117.0	-195829.0	-5542.0	-2071.0
27	16	46	41	50	118.0	-195387.0	-5506.0	-1855.0
27	16	46	41	51	119.0	-195269.0	-5482.0	-961.0
27	16	46	41	139	120.0	-195547.0	-5435.0	-854.0
27	16	46	41	139	121.0	-196274.0	-5376.0	-1434.0
27	16	46	41	140	122.0	-197129.0	-5305.0	-1325.0
27	16	46	41	141	123.0	-197449.0	-5241.0	-904.0
27	16	46	41	141	124.0	-197430.0	-5174.0	-1091.0
27	16	46	41	183	125.0	-197390.0	-5107.0	-1375.0
27	16	46	41	184	126.0	-197356.0	-5015.0	-1642.0
27	16	46	41	185	127.0	-197408.0	-4942.0	-1156.0
27	16	46	41	185	128.0	-197580.0	-4854.0	-1024.0
27	16	46	41	186	129.0	-197977.0	-4791.0	-839.0
27	16	46	41	187	131.0	-199343.0	-4617.0	-787.0
27	16	46	41	187	132.0	-199767.0	-4501.0	-1094.0
27	16	46	41	188	133.0	-200001.0	-4410.0	-1091.0
27	16	46	41	189	134.0	-200453.0	-4293.0	-1390.0
27	16	46	41	189	135.0	-200629.0	-4179.0	-1587.0
27	16	46	41	190	136.0	-200642.0	-4087.0	-1641.0
27	16	46	41	191	176.0	-227282.0	419.0	-3859.0
27	16	46	41	191	177.0	-226079.0	507.0	-3327.0
27	16	46	41	192	178.0	-224458.0	615.0	-3479.0
27	16	46	41	193	179.0	-221689.0	686.0	-3821.0
27	16	46	41	193	180.0	-216319.0	758.0	-3826.0
27	16	46	41	194	198.0	-181369.0	2054.0	-4147.0
27	16	46	41	195	199.0	-183534.0	2099.0	-4259.0
27	16	46	41	195	200.0	-186306.0	2166.0	-3908.0
27	16	46	41	196	201.0	-189119.0	2243.0	-3831.0
27	16	46	41	197	202.0	-192401.0	2306.0	-4044.0
27	16	46	41	197	203.0	-195838.0	2345.0	-3934.0
27	16	46	41	198	204.0	-198684.0	2413.0	-3746.0
27	16	46	41	199	205.0	-200674.0	2486.0	-3701.0
27	16	46	41	228	206.0	-201947.0	2529.0	-3520.0
27	16	46	41	229	207.0	-202136.0	2580.0	-3767.0
27	16	46	41	230	208.0	-201241.0	2637.0	-4130.0
27	16	46	41	231	209.0	-199916.0	2681.0	-4187.0
27	16	46	41	231	210.0	-198555.0	2724.0	-3567.0
27	16	46	41	232	211.0	-197281.0	2764.0	-4070.0
27	16	46	41	233	212.0	-196242.0	2795.0	-4245.0
27	16	46	41	234	213.0	-195704.0	2851.0	-3762.0
27	16	46	41	235	214.0	-195541.0	2881.0	-3454.0
27	16	46	41	235	215.0	-195484.0	2920.0	-3309.0
27	16	46	41	236	216.0	-195494.0	2951.0	-3119.0
27	16	46	41	237	217.0	-195247.0	2961.0	-3281.0
27	16	46	41	237	218.0	-194544.0	3011.0	-3308.0
27	16	46	41	238	219.0	-193794.0	3042.0	-3314.0
27	16	46	41	239	220.0	-192806.0	3066.0	-3218.0
27	16	46	41	239	221.0	-191858.0	3104.0	-3742.0
27	16	46	41	240	222.0	-190804.0	3121.0	-4191.0
27	16	46	41	241	223.0	-189748.0	3154.0	-3746.0
27	16	46	41	241	224.0	-188951.0	3171.0	-3612.0
27	16	46	41	242	225.0	-188711.0	3188.0	-3913.0
27	16	46	41	242	226.0	-188812.0	3234.0	-3947.0
27	16	46	41	274	227.0	-189258.0	3249.0	-3386.0
27	16	46	41	275	228.0	-190102.0	3253.0	-3434.0
27	16	46	41	276	229.0	-190959.0	3255.0	-3447.0
27	16	46	41	276	230.0	-191869.0	3261.0	-3762.0
27	16	46	41	277	231.0	-192422.0	3285.0	-3837.0
27	16	46	41	278	232.0	-193056.0	3298.0	-3929.0
27	16	46	41	279	233.0	-193751.0	3304.0	-4024.0
27	16	46	41	279	234.0	-194573.0	3291.0	-4217.0
27	16	46	41	280	235.0	-195284.0	3298.0	-4160.0
27	16	46	41	281	236.0	-195697.0	3298.0	-4019.0
27	16	46	41	281	237.0	-196009.0	3299.0	-4414.0
27	16	46	41	282	238.0	-196147.0	3296.0	-4519.0
27	16	46	41	283	239.0	-196318.0	3269.0	-4294.0
27	16	46	41	283	240.0	-197291.0	3257.0	-4379.0
27	16	46	41	284	241.0	-198287.0	3239.0	-4847.0
27	16	46	41	285	243.0	-199779.0	3239.0	-4059.0
27	16	46	41	285	244.0	-200772.0	3223.0	-3942.0
27	16	46	41	286	245.0	-201444.0	3226.0	-4050.0
27	16	46	41	286	246.0	-201921.0	3216.0	-3983.0
27	16	46	41	287	247.0	-202765.0	3218.0	-3416.0
27	16	46	41	288	248.0	-203776.0	3193.0	-3820.0
27	16	46	41	318	249.0	-204886.0	3186.0	-4274.0
27	16	46	41	319	250.0	-205934.0	3149.0	-4525.0
27	16	46	41	319	251.0	-206507.0	3140.0	-4190.0
27	16	46	41	320	252.0	-206666.0	3139.0	-3999.0
27	16	46	41	321	253.0	-206613.0	3109.0	-3981.0
27	16	46	41	321	254.0	-206216.0	3085.0	-4319.0
27	16	46	41	322	255.0	-205445.0	3063.0	-4170.0
27	16	46	41	323	0.0	-204362.0	3054.0	-3381.0
27	16	46	41	323	1.0	-203441.0	3018.0	-3437.0
27	16	46	41	324	2.0	-202612.0	2994.0	-3884.0
27	16	46	41	325	3.0	-201801.0	2955.0	-3968.0
27	16	46	41	326	4.0	-200817.0	2925.0	-3514.0
27	16	46	41	326	5.0	-199534.0	2912.0	-3666.0
27	16	46	41	327	6.0	-198399.0	2870.0	-4364.0
27	16	46	41	328	7.0	-197733.0	2854.0	-4509.0
27	16	46	41	328	9.0	-198002.0	2808.0	-4153.0
27	16	46	41	329	10.0	-199198.0	2779.0	-4198.0
27	16	46	41	330	11.0	-200289.0	2761.0	-4196.0
27	16	46	41	330	12.0	-200942.0	2718.0	-4179.0
27	16	46	41	331	13.0	-201386.0	2696.0	-4204.0
27	16	46	41	331	14.0	-201687.0	2677.0	-4480.0
27	16	46	41	332	15.0	-202159.0	2640.0	-4323.0
27	16	46	41	363	16.0	-202793.0	2616.0	-4002.0
27	16	46	41	364	17.0	-202972.0	2602.0	-4086.0
27	16	46	41	364	18.0	-202904.0	2570.0	-4357.0
27	16	46	41	365	19.0	-202646.0	2546.0	-4060.0
27	16	46	41	366	20.0	-202299.0	2511.0	-3826.0
27	16	46	41	367	21.0	-201681.0	2481.0	-4086.0
27	16	46	41	367	22.0	-200736.0	2429.0	-4559.0
27	16	46	41	368	23.0	-199842.0	2390.0	-4319.0
27	16	46	41	369	24.0	-198714.0	2362.0	-4171.0
27	16	46	41	369	25.0	-197943.0	2335.0	-4571.0
27	16	46	41	370	26.0	-197142.0	2299.0	-4836.0
27	16	46	41	371	27.0	-196197.0	2262.0	-4276.0
27	16	46	41	371	28.0	-195308.0	2241.0	-3576.0
27	16	46	41	372	29.0	-194561.0	2215.0	-3484.0
27	16	46	41	373	30.0	-194142.0	2188.0	-3609.0
27	16	46	41	374	32.0	-193519.0	2124.0	-4253.0
27	16	46	41	375	33.0	-193203.0	2096.0	-4266.0
27	16	46	41	375	34.0	-192431.0	2061.0	-4205.0
27	16	46	41	376	35.0	-191822.0	2035.0	-4777.0
27	16	46	41	377	36.0	-191327.0	2026.0	-4749.0
27	16	46	41	377	37.0	-190471.0	1990.0	-4242.0
27	16	46	41	378	38.0	-190016.0	1963.0	-3903.0
27	16	46	41	408	39.0	-189756.0	1938.0	-4294.0
27	16	46	41	409	40.0	-189192.0	1918.0	-4349.0
27	16	46	41	410	41.0	-188624.0	1874.0	-4264.0
27	16	46	41	411	42.0	-188331.0	1823.0	-4371.0
27	16	46	41	411	43.0	-188176.0	1786.0	-4387.0
27	16	46	41	412	44.0	-188024.0	1743.0	-4414.0
27	16	46	41	413	45.0	-187846.0	1713.0	-4407.0
27	16	46	41	413	46.0	-188174.0	1698.0	-4240.0
27	16	46	41	414	47.0	-188478.0	1673.0	-4084.0
27	16	46	41	415	48.0	-188695.0	1647.0	-4391.0
27	16	46	41	415	49.0	-189374.0	1611.0	-4321.0
27	16	46	41	416	50.0	-189861.0	1579.0	-4394.0
27	16	46	41	417	51.0	-190814.0	1551.0	-4944.0
27	16	46	41	418	52.0	-191673.0	1494.0	-5011.0
27	16	46	41	418	53.0	-192342.0	1451.0	-4812.0
27	16	46	41	419	54.0	-192728.0	1421.0	-4676.0
27	16	46	41	419	55.0	-193072.0	1379.0	-5064.0
27	16	46	41	420	56.0	-193210.0	1365.0	-4398.0
27	16	46	41	421	57.0	-192828.0	1363.0	-3709.0
27	16	46	41	421	58.0	-192382.0	1344.0	-4027.0
27	16	46	41	422	59.0	-192199.0	1317.0	-4981.0
27	16	46	41	422	60.0	-192699.0	1302.0	-5189.0
27	16	46	41	453	61.0	-193656.0	1262.0	-5224.0
27	16	46	41	454	62.0	-194619.0	1231.0	-5530.0
27	16	46	41	455	63.0	-195379.0	1193.0	-5709.0
27	16	46	41	455	64.0	-196090.0	1146.0	-5639.0
27	16	46	41	456	65.0	-196944.0	1120.0	-5537.0
27	16	46	41	457	66.0	-197524.0	1101.0	-5264.0
27	16	46	41	457	67.0	-198249.0	1051.0	-5187.0
27	16	46	41	458	68.0	-198865.0	1012.0	-5303.0
27	16	46	41	459	69.0	-199516.0	973.0	-5319.0
27	16	46	41	460	70.0	-200309.0	944.0	-5271.0
27	16	46	41	460	71.0	-201137.0	903.0	-5571.0
27	16	46	41	461	72.0	-201762.0	876.0	-6126.0
27	16	46	41	462	73.0	-202296.0	831.0	-6265.0
27	16	46	41	462	74.0	-202534.0	794.0	-6371.0
27	16	46	41	463	75.0	-202437.0	754.0	-6522.0
27	16	46	41	464	77.0	-201642.0	709.0	-7216.0
27	16	46	41	464	78.0	-201241.0	671.0	-7286.0
27	16	46	41	465	79.0	-200897.0	646.0	-7459.0
27	16	46	41	465	80.0	-200619.0	613.0	-7980.0
27	16	46	41	466	81.0	-200422.0	600.0	-7732.0
27	16	46	41	467	82.0	-200322.0	554.0	-7653.0
27	16	46	41	498	83.0	-200827.0	525.0	-7938.0
27	16	46	41	499	84.0	-201837.0	494.0	-8170.0
27	16	46	41	499	85.0	-202797.0	476.0	-7836.0
27	16	46	41	500	86.0	-203140.0	436.0	-7407.0
27	16	46	41	501	87.0	-203157.0	377.0	-7245.0
27	16	46	41	502	88.0	-203043.0	344.0	-7686.0
27	16	46	41	503	89.0	-202801.0	331.0	-7774.0
27	16	46	41	503	90.0	-202300.0	304.0	-7545.0
27	16	46	41	504	91.0	-201681.0	233.0	-7851.0
27	16	46	41	505	92.0	-201082.0	184.0	-8463.0
27	16	46	41	505	93.0	-200471.0	138.0	-8080.0
27	16	46	41	506	94.0	-199804.0	101.0	-7377.0
27	16	46	41	507	95.0	-198998.0	79.0	-7147.0
27	16	46	41	507	96.0	-197918.0	60.0	-7293.0
27	16	46	41	508	97.0	-196846.0	23.0	-7007.0
27	16	46	41	509	99.0	-195221.0	-64.0	-6836.0
27	16	46	41	509	100.0	-194126.0	-106.0	-7037.0
27	16	46	41	510	101.0	-192993.0	-146.0	-7625.0
27	16	46	41	511	102.0	-191629.0	-172.0	-7353.0
27	16	46	41	511	103.0	-190110.0	-204.0	-7229.0
27	16	46	41	512	104.0	-188366.0	-250.0	-6955.0
27	16	46	41	512	105.0	-186895.0	-292.0	-7131.0
27	16	46	41	543	106.0	-185845.0	-316.0	-6866.0
27	16	46	41	544	107.0	-184051.0	-335.0	-6248.0
27	16	46	41	545	108.0	-182406.0	-357.0	-6406.0
27	16	46	41	546	109.0	-180546.0	-399.0	-6877.0
27	16	46	41	546	110.0	-178046.0	-450.0	-6607.0
27	16	46	41	547	111.0	-176562.0	-483.0	-6442.0
27	16	46	41	548	112.0	-173711.0	-558.0	-6318.0
27	16	46	41	548	113.0	-172007.0	-609.0	-6649.0
27	16	46	41	589	114.0	-171114.0	-652.0	-6124.0
27	16	46	41	589	115.0	-169604.0	-678.0	-6001.0
27	16	46	41	590	116.0	-169636.0	-722.0	-5831.0
27	16	46	41	633	117.0	-170681.0	-759.0	-5705.0
27	16	46	41	633	118.0	-171879.0	-799.0	-5870.0
27	16	46	41	634	119.0	-174313.0	-832.0	-6007.0
27	16	46	41	634	120.0	-177375.0	-891.0	-6344.0
27	16	46	41	635	122.0	-184676.0	-986.0	-7812.0
27	16	46	41	636	123.0	-189925.0	-1043.0	-7303.0
27	16	46	41	636	124.0	-195647.0	-1073.0	-7272.0
27	16	46	41	637	125.0	-201044.0	-1118.0	-8247.0
27	16	46	41	637	126.0	-205906.0	-1165.0	-8349.0
27	16	46	41	638	127.0	-210632.0	-1186.0	-7077.0
27	16	46	41	639	128.0	-215266.0	-1221.0	-5114.0
27	16	46	41	639	129.0	-219646.0	-1262.0	-1761.0
27	16	46	41	640	130.0	-223579.0	-1294.0	2899.0
27	16	46	41	640	145.0	-216251.0	-1905.0	7713.0
27	16	46	41	641	146.0	-219581.0	-1944.0	6210.0
27	16	46	41	642	147.0	-223435.0	-1974.0	5211.0
27	16	46	41	642	167.0	-202254.0	-2746.0	-2061.0
27	16	46	41	643	168.0	-202241.0	-2791.0	-2340.0
27	16	46	41	643	169.0	-196722.0	-2824.0	-2457.0
27	16	46	41	644	170.0	-189336.0	-2860.0	-2642.0
27	16	46	41	644	171.0	-183601.0	-2892.0	-2401.0
27	16	46	41	645	172.0	-181747.0	-2931.0	-2664.0
27	16	46	41	678	173.0	-183557.0	-2967.0	-2726.0
27	16	46	41	678	174.0	-185926.0	-3001.0	-2436.0
27	16	46	41	679	175.0	-188686.0	-3039.0	-2366.0
27	16	46	41	680	176.0	-191844.0	-3078.0	-2840.0
27	16	46	41	680	177.0	-194937.0	-3097.0	-2904.0
27	16	46	41	681	178.0	-198582.0	-3129.0	-2756.0
27	16	46	41	682	179.0	-201222.0	-3175.0	-2739.0
27	16	46	41	682	180.0	-201916.0	-3219.0	-2741.0
27	16	46	41	683	181.0	-202216.0	-3267.0	-2743.0
27	16	46	41	683	182.0	-202554.0	-3304.0	-2806.0
27	16	46	41	684	183.0	-203297.0	-3345.0	-2786.0
27	16	46	41	685	184.0	-203122.0	-3396.0	-2696.0
27	16	46	41	685	185.0	-202038.0	-3423.0	-2559.0
27	16	46	41	686	186.0	-201141.0	-3458.0	-2702.0
27	16	46	41	686	187.0	-201327.0	-3496.0	-2621.0
27	16	46	41	687	189.0	-204641.0	-3576.0	-2996.0
27	16	46	41	687	190.0	-206921.0	-3602.0	-2522.0
27	16	46	41	688	191.0	-209079.0	-3633.0	-2632.0
27	16	46	41	689	192.0	-210647.0	-3679.0	-2833.0
27	16	46	41	689	193.0	-212038.0	-3721.0	-2417.0
27	16	46	41	690	194.0	-213417.0	-3732.0	-2013.0
27	16	46	41	723	195.0	-214457.0	-3760.0	-2251.0
27	16	46	41	723	196.0	-215718.0	-3773.0	-2692.0
27	16	46	41	724	197.0	-216757.0	-3826.0	-2630.0
27	16	46	41	725	198.0	-217075.0	-3864.0	-2692.0
27	16	46	41	725	199.0	-216541.0	-3903.0	-3092.0
27	16	46	41	726	200.0	-215534.0	-3946.0	-2672.0
27	16	46	41	727	201.0	-214414.0	-3981.0	-2834.0
27	16	46	41	727	202.0	-213234.0	-4028.0	-2713.0
27	16	46	41	728	203.0	-212501.0	-4067.0	-2939.0
27	16	46	41	728	204.0	-211921.0	-4112.0	-3089.0
27	16	46	41	729	205.0	-210943.0	-4151.0	-3054.0
27	16	46	41	730	206.0	-209495.0	-4152.0	-2813.0
27	16	46	41	730	207.0	-208328.0	-4186.0	-2891.0
27	16	46	41	731	208.0	-207387.0	-4235.0	-2953.0
27	16	46	41	731	209.0	-206887.0	-4278.0	-2983.0
27	16	46	41	732	212.0	-205948.0	-4374.0	-3266.0
27	16	46	41	733	213.0	-205462.0	-4424.0	-3556.0
27	16	46	41	733	214.0	-204977.0	-4462.0	-3476.0
27	16	46	41	734	215.0	-204507.0	-4494.0	-3647.0
27	16	46	41	734	216.0	-204351.0	-4523.0	-3631.0
27	16	46	41	735	217.0	-204321.0	-4546.0	-3675.0
27	16	46	41	859	218.0	-204119.0	-4591.0	-3259.0
27	16	46	41	860	219.0	-203427.0	-4617.0	-3609.0
27	16	46	41	860	220.0	-202684.0	-4651.0	-3377.0
27	16	46	41	861	221.0	-201876.0	-4703.0	-3086.0
27	16	46	41	862	222.0	-201840.0	-4731.0	-3054.0
27	16	46	41	864	223.0	-202226.0	-4776.0	-2902.0
27	16	46	41	865	224.0	-202493.0	-4816.0	-3074.0
27	16	46	41	865	225.0	-202211.0	-4856.0	-3189.0
27	16	46	41	866	226.0	-201262.0	-4906.0	-3476.0
27	16	46	41	867	227.0	-200339.0	-4923.0	-3458.0
27	16	46	41	867	228.0	-199932.0	-4960.0	-3639.0
27	16	46	41	868	229.0	-199925.0	-4977.0	-4107.0
27	16	46	41	868	230.0	-200379.0	-5018.0	-3952.0
27	16	46	41	869	231.0	-201224.0	-5069.0	-3444.0
27	16	46	41	869	232.0	-201454.0	-5126.0	-3366.0
27	16	46	41	870	0.0	-193399.0	-4916.0	-2760.0
27	16	46	41	871	23.0	-210334.0	-2790.0	-2903.0
27	16	46	41	872	24.0	-210671.0	-2657.0	-3186.0
27	16	46	41	872	25.0	-211061.0	-2555.0	-3334.0
27	16	46	41	873	26.0	-211185.0	-2459.0	-3376.0
27	16	46	41	874	27.0	-210917.0	-2332.0	-3467.0
27	16	46	41	874	28.0	-210329.0	-2227.0	-4290.0
27	16	46	41	904	29.0	-209557.0	-2119.0	-4376.0
27	16	46	41	947	30.0	-209041.0	-1969.0	-4501.0
27	16	46	41	969	31.0	-208254.0	-1849.0	-4379.0
27	16	46	41	969	32.0	-207541.0	-1728.0	-4179.0
27	16	46	41	970	33.0	-207047.0	-1604.0	-4370.0
27	16	46	41	970	34.0	-206302.0	-1511.0	-3853.0
27	16	46	41	971	35.0	-205468.0	-1391.0	-3482.0
27	16	46	42	39	36.0	-204909.0	-1276.0	-3749.0
27	16	46	42	39	37.0	-204854.0	-1154.0	-3962.0
27	16	46	42	83	38.0	-205456.0	-1034.0	-3876.0
27	16	46	42	84	39.0	-206669.0	-927.0	-4003.0
27	16	46	42	84	40.0	-208052.0	-829.0	-4143.0
27	16	46	42	85	41.0	-209501.0	-725.0	-4351.0
27	16	46	42	86	42.0	-210411.0	-606.0	-3918.0
27	16	46	42	86	43.0	-211067.0	-509.0	-3740.0
27	16	46	42	87	45.0	-213883.0	-294.0	-3824.0
27	16	46	42	88	68.0	-206091.0	1691.0	-2871.0
27	16	46	42	89	69.0	-199347.0	1789.0	-3156.0
27	16	46	42	89	70.0	-192904.0	1849.0	-3601.0
27	16	46	42	90	71.0	-187296.0	1917.0	-3159.0
27	16	46	42	91	72.0	-183115.0	1995.0	-2679.0
27	16	46	42	91	73.0	-181610.0	2064.0	-2622.0
27	16	46	42	92	74.0	-182104.0	2142.0	-3031.0
27	16	46	42	93	113.0	-193160.0	3373.0	-2496.0
27	16	46	42	94	114.0	-193330.0	3380.0	-2610.0
27	16	46	42	94	135.0	-213017.0	3070.0	-2282.0
27	16	46	42	95	136.0	-213061.0	3025.0	-2433.0
27	16	46	42	96	137.0	-212817.0	3001.0	-2873.0
27	16	46	42	96	138.0	-212205.0	2992.0	-2747.0
27	16	46	42	97	139.0	-211144.0	2975.0	-2418.0
27	16	46	42	98	140.0	-209674.0	2946.0	-2332.0
27	16	46	42	98	141.0	-208210.0	2931.0	-2356.0
27	16	46	42	127	142.0	-206472.0	2909.0	-1927.0
27	16	46	42	128	143.0	-204855.0	2896.0	-1922.0
27	16	46	42	129	144.0	-203710.0	2869.0	-2647.0
27	16	46	42	129	145.0	-202691.0	2838.0	-2907.0
27	16	46	42	130	146.0	-201677.0	2805.0	-2914.0
27	16	46	42	130	147.0	-200661.0	2782.0	-2820.0
27	16	46	42	131	148.0	-200248.0	2748.0	-3103.0
27	16	46	42	132	149.0	-200437.0	2716.0	-3294.0
27	16	46	42	132	150.0	-200594.0	2681.0	-2995.0
27	16	46	42	133	151.0	-200351.0	2647.0	-2675.0
27	16	46	42	133	152.0	-200085.0	2619.0	-2862.0
27	16	46	42	134	153.0	-199631.0	2600.0	-3029.0
27	16	46	42	135	154.0	-199165.0	2558.0	-2921.0
27	16	46	42	135	155.0	-198574.0	2528.0	-3051.0
27	16	46	42	136	156.0	-197748.0	2494.0	-3197.0
27	16	46	42	137	158.0	-195472.0	2403.0	-2891.0
27	16	46	42	137	159.0	-195171.0	2395.0	-2727.0
27	16	46	42	138	160.0	-194871.0	2384.0	-2800.0
27	16	46	42	139	161.0	-194932.0	2351.0	-2816.0
27	16	46	42	139	162.0	-195754.0	2324.0	-2824.0
27	16	46	42	140	163.0	-196529.0	2271.0	-2841.0
27	16	46	42	174	164.0	-196839.0	2249.0	-2771.0
27	16	46	42	175	165.0	-197011.0	2238.0	-2860.0
27	16	46	42	175	166.0	-197068.0	2208.0	-3197.0
27	16	46	42	176	167.0	-196634.0	2181.0	-3031.0
27	16	46	42	176	168.0	-196775.0	2133.0	-2631.0
27	16	46	42	177	169.0	-197107.0	2101.0	-2637.0
27	16	46	42	178	170.0	-197306.0	2079.0	-2507.0
27	16	46	42	178	171.0	-197556.0	2034.0	-1665.0
27	16	46	42	179	172.0	-197809.0	2005.0	-1507.0
27	16	46	42	180	173.0	-197856.0	1976.0	-1969.0
27	16	46	42	180	174.0	-197584.0	1940.0	-2798.0
27	16	46	42	181	175.0	-197546.0	1891.0	-2531.0
27	16	46	42	182	176.0	-197935.0	1872.0	-2579.0
27	16	46	42	182	177.0	-198767.0	1856.0	-2789.0
27	16	46	42	183	178.0	-199315.0	1808.0	-2892.0
27	16	46	42	183	180.0	-199234.0	1753.0	-2236.0
27	16	46	42	184	181.0	-199099.0	1730.0	-2441.0
27	16	46	42	185	182.0	-199552.0	1689.0	-2444.0
27	16	46	42	185	183.0	-200037.0	1671.0	-2139.0
27	16	46	42	186	184.0	-200353.0	1654.0	-2476.0
27	16	46	42	186	185.0	-201101.0	1608.0	-2635.0
27	16	46	42	187	186.0	-201329.0	1573.0	-2666.0
27	16	46	42	218	187.0	-201084.0	1571.0	-2738.0
27	16	46	42	294	188.0	-201091.0	1539.0	-2459.0
27	16	46	42	295	189.0	-200764.0	1509.0	-2409.0
27	16	46	42	295	190.0	-200552.0	1469.0	-2381.0
27	16	46	42	296	191.0	-200309.0	1446.0	-2346.0
27	16	46	42	297	192.0	-199904.0	1418.0	-2226.0
27	16	46	42	297	193.0	-199106.0	1375.0	-2347.0
27	16	46	42	298	194.0	-198312.0	1344.0	-2419.0
27	16	46	42	299	195.0	-197963.0	1325.0	-2678.0
27	16	46	42	299	196.0	-197678.0	1275.0	-2566.0
27	16	46	42	300	197.0	-197296.0	1215.0	-2568.0
27	16	46	42	300	198.0	-197273.0	1191.0	-2500.0
27	16	46	42	301	199.0	-197631.0	1164.0	-2156.0
27	16	46	42	302	200.0	-197511.0	1143.0	-2029.0
27	16	46	42	302	201.0	-197564.0	1128.0	-2127.0
27	16	46	42	303	202.0	-198196.0	1106.0	-2283.0
27	16	46	42	303	203.0	-198767.0	1068.0	-2827.0
27	16	46	42	304	240.0	-193472.0	-228.0	-1971.0
27	16	46	42	305	241.0	-192283.0	-249.0	-1994.0
27	16	46	42	305	242.0	-191307.0	-276.0	-2412.0
27	16	46	42	322	243.0	-190029.0	-294.0	-2898.0
27	16	46	42	323	244.0	-189107.0	-327.0	-2766.0
27	16	46	42	324	245.0	-188463.0	-347.0	-2638.0
27	16	46	42	325	246.0	-187237.0	-384.0	-2577.0
27	16	46	42	325	247.0	-186949.0	-427.0	-2318.0
27	16	46	42	339	248.0	-187027.0	-471.0	-2428.0
27	16	46	42	340	249.0	-186642.0	-511.0	-2312.0
27	16	46	42	340	250.0	-186454.0	-538.0	-2205.0
27	16	46	42	341	251.0	-186572.0	-569.0	-2548.0
27	16	46	42	342	252.0	-187240.0	-616.0	-2577.0
27	16	46	42	342	253.0	-188630.0	-661.0	-2504.0
27	16	46	42	343	254.0	-189951.0	-697.0	-2615.0
27	16	46	42	343	255.0	-190972.0	-729.0	-2593.0
27	16	46	42	344	0.0	-191672.0	-782.0	-2344.0
27	16	46	42	345	1.0	-192829.0	-802.0	-2251.0
27	16	46	42	345	2.0	-194262.0	-824.0	-2586.0
27	16	46	42	346	3.0	-195607.0	-871.0	-2586.0
27	16	46	42	346	4.0	-197265.0	-908.0	-2577.0
27	16	46	42	347	5.0	-199824.0	-911.0	-2827.0
27	16	46	42	347	6.0	-202278.0	-962.0	-3277.0
27	16	46	42	368	7.0	-204018.0	-1019.0	-3452.0
27	16	46	42	369	8.0	-205538.0	-1052.0	-4119.0
27	16	46	42	370	9.0	-206669.0	-1091.0	-4575.0
27	16	46	42	370	10.0	-208307.0	-1127.0	-4927.0
27	16	46	42	371	11.0	-209919.0	-1175.0	-5071.0
27	16	46	42	372	12.0	-211651.0	-1219.0	-4813.0
27	16	46	42	372	13.0	-213737.0	-1256.0	-5266.0
27	16	46	42	373	14.0	-216118.0	-1294.0	-6331.0
27	16	46	42	373	15.0	-218716.0	-1329.0	-6206.0
27	16	46	42	374	16.0	-220562.0	-1356.0	-4929.0
27	16	46	42	375	17.0	-221664.0	-1389.0	-1382.0
27	16	46	42	375	18.0	-222461.0	-1429.0	3286.0
27	16	46	42	376	19.0	-222376.0	-1486.0	7212.0
27	16	46	42	398	20.0	-221526.0	-1536.0	11398.0
27	16	46	42	398	21.0	-219872.0	-1564.0	14983.0
27	16	46	42	399	22.0	-217170.0	-1601.0	17656.0
27	16	46	42	400	23.0	-213613.0	-1652.0	18704.0
27	16	46	42	401	24.0	-209779.0	-1686.0	19086.0
27	16	46	42	401	25.0	-205617.0	-1700.0	18821.0
27	16	46	42	402	26.0	-201296.0	-1740.0	18054.0
27	16	46	42	403	27.0	-197384.0	-1784.0	16939.0
27	16	46	42	403	28.0	-193727.0	-1821.0	15501.0
27	16	46	42	404	29.0	-191244.0	-1850.0	13697.0
27	16	46	42	405	30.0	-189549.0	-1910.0	12394.0
27	16	46	42	405	31.0	-188566.0	-1965.0	10847.0
27	16	46	42	406	32.0	-188954.0	-1997.0	9443.0
27	16	46	42	406	33.0	-190021.0	-2034.0	8020.0
27	16	46	42	407	34.0	-191802.0	-2072.0	6624.0
27	16	46	42	408	35.0	-194099.0	-2112.0	5624.0
27	16	46	42	408	37.0	-196744.0	-2197.0	4173.0
27	16	46	42	409	38.0	-197194.0	-2227.0	3421.0
27	16	46	42	410	39.0	-196341.0	-2247.0	2386.0
27	16	46	42	418	40.0	-194652.0	-2296.0	1846.0
27	16	46	42	418	41.0	-192193.0	-2331.0	1193.0
27	16	46	42	419	42.0	-187517.0	-2367.0	646.0
27	16	46	42	420	43.0	-174152.0	-2406.0	106.0
27	16	46	42	420	44.0	-155576.0	-2456.0	-534.0
27	16	46	42	442	45.0	-140037.0	-2486.0	-971.0
27	16	46	42	443	46.0	-133829.0	-2499.0	-1456.0
27	16	46	42	444	47.0	-136479.0	-2552.0	-1371.0
27	16	46	42	444	48.0	-143037.0	-2604.0	-1677.0
27	16	46	42	445	49.0	-152264.0	-2634.0	-1659.0
27	16	46	42	446	50.0	-164640.0	-2668.0	-1483.0
27	16	46	42	447	51.0	-177714.0	-2707.0	-1620.0
27	16	46	42	447	52.0	-189817.0	-2749.0	-1811.0
27	16	46	42	448	53.0	-200084.0	-2774.0	-1678.0
27	16	46	42	449	54.0	-206049.0	-2838.0	-1994.0
27	16	46	42	449	55.0	-209041.0	-2869.0	-2102.0
27	16	46	42	450	56.0	-210446.0	-2907.0	-2323.0
27	16	46	42	451	57.0	-207859.0	-2956.0	-2750.0
27	16	46	42	473	58.0	-204292.0	-3004.0	-2742.0
27	16	46	42	473	59.0	-201857.0	-3053.0	-2436.0
27	16	46	42	474	60.0	-200902.0	-3083.0	-2503.0
27	16	46	42	475	61.0	-201702.0	-3108.0	-2517.0
27	16	46	42	475	62.0	-202392.0	-3146.0	-2556.0
27	16	46	42	476	63.0	-205719.0	-3168.0	-2350.0
27	16	46	42	477	64.0	-210267.0	-3215.0	-2166.0
27	16	46	42	478	65.0	-214322.0	-3274.0	-2490.0
27	16	46	42	478	66.0	-220285.0	-3289.0	-2747.0
27	16	46	42	479	67.0	-225281.0	-3351.0	-3257.0
27	16	46	42	479	68.0	-228651.0	-3376.0	-3009.0
27	16	46	42	480	69.0	-231643.0	-3412.0	-2473.0
27	16	46	42	481	70.0	-233309.0	-3461.0	-2746.0
27	16	46	42	482	71.0	-232914.0	-3496.0	-2892.0
27	16	46	42	482	72.0	-231179.0	-3531.0	-2877.0
27	16	46	42	483	74.0	-223416.0	-3619.0	-3706.0
27	16	46	42	483	75.0	-220439.0	-3644.0	-3882.0
27	16	46	42	484	76.0	-218640.0	-3655.0	-3604.0
27	16	46	42	485	77.0	-217421.0	-3686.0	-3464.0
27	16	46	42	493	78.0	-217097.0	-3714.0	-3554.0
27	16	46	42	494	79.0	-216754.0	-3772.0	-3145.0
27	16	46	42	494	80.0	-215677.0	-3812.0	-2859.0
27	16	46	42	495	81.0	-214749.0	-3834.0	-2901.0
27	16	46	42	516	82.0	-213799.0	-3859.0	-2942.0
27	16	46	42	517	83.0	-212877.0	-3907.0	-3334.0
27	16	46	42	518	84.0	-212129.0	-3953.0	-3592.0
27	16	46	42	518	85.0	-211201.0	-4010.0	-4206.0
27	16	46	42	519	86.0	-209922.0	-4030.0	-4054.0
27	16	46	42	520	87.0	-208151.0	-4056.0	-3885.0
27	16	46	42	520	88.0	-206205.0	-4088.0	-3859.0
27	16	46	42	521	89.0	-203703.0	-4121.0	-4253.0
27	16	46	42	521	90.0	-201328.0	-4181.0	-4191.0
27	16	46	42	522	91.0	-198772.0	-4209.0	-4183.0
27	16	46	42	522	92.0	-195825.0	-4231.0	-4051.0
27	16	46	42	523	93.0	-194107.0	-4284.0	-4082.0
27	16	46	42	524	94.0	-192958.0	-4311.0	-4061.0
27	16	46	42	524	95.0	-191747.0	-4332.0	-4389.0
27	16	46	42	525	96.0	-190922.0	-4364.0	-4481.0
27	16	46	42	525	97.0	-190167.0	-4406.0	-4413.0
27	16	46	42	548	98.0	-189620.0	-4457.0	-4304.0
27	16	46	42	549	99.0	-189556.0	-4472.0	-4617.0
27	16	46	42	549	100.0	-189849.0	-4523.0	-4640.0
27	16	46	42	550	101.0	-189401.0	-4553.0	-4653.0
27	16	46	42	551	102.0	-191146.0	-4602.0	-4519.0
27	16	46	42	551	103.0	-193164.0	-4631.0	-4834.0
27	16	46	42	552	104.0	-193910.0	-4660.0	-5050.0
27	16	46	42	553	105.0	-195921.0	-4714.0	-4684.0
27	16	46	42	553	106.0	-197398.0	-4761.0	-4421.0
27	16	46	42	554	107.0	-198579.0	-4794.0	-4571.0
27	16	46	42	555	108.0	-199029.0	-4828.0	-4284.0
27	16	46	42	555	109.0	-199698.0	-4858.0	-4004.0
27	16	46	42	557	110.0	-200587.0	-4913.0	-4049.0
27	16	46	42	558	111.0	-202294.0	-4960.0	-4407.0
27	16	46	42	558	112.0	-203951.0	-4990.0	-4270.0
27	16	46	42	559	113.0	-204819.0	-5027.0	-3850.0
27	16	46	42	559	114.0	-205179.0	-5055.0	-4387.0
27	16	46	42	560	115.0	-205969.0	-5070.0	-5028.0
27	16	46	42	561	116.0	-205713.0	-5099.0	-4785.0
27	16	46	42	561	117.0	-204189.0	-5141.0	-4419.0
27	16	46	42	562	118.0	-204392.0	-5167.0	-4446.0
27	16	46	42	578	119.0	-204007.0	-5211.0	-4034.0
27	16	46	42	579	120.0	-202852.0	-5235.0	-3945.0
27	16	46	42	580	121.0	-202075.0	-5265.0	-3735.0
27	16	46	42	581	122.0	-201674.0	-5301.0	-3874.0
27	16	46	42	582	123.0	-201284.0	-5324.0	-3702.0
27	16	46	42	582	124.0	-200784.0	-5339.0	-3826.0
27	16	46	42	583	125.0	-200667.0	-5354.0	-4042.0
27	16	46	42	583	126.0	-201123.0	-5374.0	-4006.0
27	16	46	42	584	127.0	-201719.0	-5395.0	-3777.0
27	16	46	42	585	128.0	-201767.0	-5399.0	-4090.0
27	16	46	42	653	129.0	-201462.0	-5420.0	-4444.0
27	16	46	42	654	130.0	-200857.0	-5426.0	-4156.0
27	16	46	42	655	131.0	-199854.0	-5417.0	-4093.0
27	16	46	42	655	132.0	-198699.0	-5444.0	-4246.0
27	16	46	42	656	133.0	-197710.0	-5437.0	-3934.0
27	16	46	42	657	134.0	-196924.0	-5423.0	-3883.0
27	16	46	42	658	135.0	-196286.0	-5412.0	-3951.0
27	16	46	42	658	136.0	-195936.0	-5380.0	-3624.0
27	16	46	42	659	137.0	-196094.0	-5353.0	-3268.0
27	16	46	42	659	138.0	-195647.0	-5331.0	-3067.0
27	16	46	42	660	139.0	-194976.0	-5307.0	-2899.0
27	16	46	42	661	140.0	-194260.0	-5279.0	-3027.0
27	16	46	42	661	141.0	-193564.0	-5265.0	-3154.0
27	16	46	42	662	142.0	-193564.0	-5207.0	-2633.0
27	16	46	42	663	143.0	-193962.0	-5139.0	-2912.0
27	16	46	42	663	144.0	-194787.0	-5097.0	-3505.0
27	16	46	42	664	164.0	-210208.0	-3558.0	-3175.0
27	16	46	42	664	165.0	-210681.0	-3437.0	-3223.0
27	16	46	42	673	166.0	-211194.0	-3329.0	-3079.0
27	16	46	42	674	167.0	-210895.0	-3229.0	-3191.0
27	16	46	42	674	168.0	-210419.0	-3132.0	-3539.0
27	16	46	42	675	169.0	-209965.0	-3020.0	-3612.0
27	16	46	42	675	170.0	-209600.0	-2921.0	-3570.0
27	16	46	42	676	171.0	-209622.0	-2813.0	-3766.0
27	16	46	42	677	172.0	-209440.0	-2719.0	-3859.0
27	16	46	42	697	173.0	-208400.0	-2619.0	-4456.0
27	16	46	42	698	174.0	-207359.0	-2512.0	-4159.0
27	16	46	42	698	175.0	-205920.0	-2411.0	-3973.0
27	16	46	42	699	176.0	-204429.0	-2307.0	-3777.0
27	16	46	42	700	177.0	-203311.0	-2203.0	-3966.0
27	16	46	42	701	178.0	-202319.0	-2107.0	-3752.0
27	16	46	42	701	179.0	-201854.0	-2021.0	-3312.0
27	16	46	42	702	180.0	-201794.0	-1932.0	-3517.0
27	16	46	42	703	181.0	-201653.0	-1839.0	-4119.0
27	16	46	42	703	182.0	-201821.0	-1759.0	-4267.0
27	16	46	42	704	183.0	-202512.0	-1649.0	-3759.0
27	16	46	42	705	184.0	-203684.0	-1559.0	-4134.0
27	16	46	42	705	185.0	-204829.0	-1471.0	-4223.0
27	16	46	42	706	186.0	-206116.0	-1371.0	-4080.0
27	16	46	42	707	187.0	-207552.0	-1284.0	-3732.0
27	16	46	42	708	188.0	-208901.0	-1207.0	-3957.0
27	16	46	42	708	189.0	-210543.0	-1117.0	-3784.0
27	16	46	42	709	190.0	-212864.0	-1029.0	-3807.0
27	16	46	42	720	191.0	-214492.0	-950.0	-3946.0
27	16	46	42	721	192.0	-215960.0	-861.0	-3867.0
27	16	46	42	721	193.0	-217375.0	-761.0	-4278.0
27	16	46	42	743	194.0	-218725.0	-671.0	-4511.0
27	16	46	42	744	195.0	-219464.0	-572.0	-4583.0
27	16	46	42	745	196.0	-219469.0	-503.0	-4426.0
27	16	46	42	745	197.0	-219087.0	-432.0	-4391.0
27	16	46	42	746	198.0	-218140.0	-366.0	-4440.0
27	16	46	42	746	199.0	-216610.0	-304.0	-4383.0
27	16	46	42	747	200.0	-213917.0	-227.0	-4691.0
27	16	46	42	748	201.0	-207393.0	-164.0	-4839.0
27	16	46	42	748	202.0	-194108.0	-79.0	-4766.0
27	16	46	42	749	203.0	-183999.0	9.0	-4227.0
27	16	46	42	749	204.0	-186422.0	73.0	-4319.0
27	16	46	42	750	205.0	-192852.0	151.0	-4290.0
27	16	46	42	750	206.0	-202484.0	195.0	-3836.0
27	16	46	42	751	207.0	-213544.0	266.0	-3627.0
27	16	46	42	752	208.0	-218869.0	329.0	-3508.0
27	16	46	42	752	209.0	-218304.0	369.0	-3301.0
27	16	46	42	773	210.0	-216380.0	451.0	-3706.0
27	16	46	42	773	211.0	-212669.0	504.0	-3522.0
27	16	46	42	774	212.0	-209517.0	561.0	-3391.0
27	16	46	42	775	213.0	-206439.0	602.0	-3527.0
27	16	46	42	776	214.0	-202893.0	669.0	-3614.0
27	16	46	42	776	215.0	-201243.0	737.0	-3425.0
27	16	46	42	777	216.0	-200286.0	786.0	-2832.0
27	16	46	42	778	217.0	-198208.0	829.0	-2345.0
27	16	46	42	778	218.0	-194955.0	867.0	-2365.0
27	16	46	42	779	219.0	-191416.0	902.0	-2726.0
27	16	46	42	795	220.0	-188084.0	924.0	-2341.0
27	16	46	42	796	221.0	-185838.0	976.0	-2361.0
27	16	46	42	797	222.0	-184547.0	1028.0	-2765.0
27	16	46	42	797	223.0	-184944.0	1093.0	-3125.0
27	16	46	42	798	224.0	-186621.0	1133.0	-2804.0
27	16	46	42	798	225.0	-188607.0	1178.0	-2621.0
27	16	46	42	799	226.0	-190491.0	1224.0	-2394.0
27	16	46	42	800	227.0	-192908.0	1262.0	-2552.0
27	16	46	42	800	228.0	-194865.0	1296.0	-2580.0
27	16	46	42	801	229.0	-196517.0	1328.0	-2554.0
27	16	46	42	801	230.0	-197946.0	1345.0	-2675.0
27	16	46	42	802	231.0	-198225.0	1374.0	-2670.0
27	16	46	42	803	232.0	-197449.0	1426.0	-2519.0
27	16	46	42	803	233.0	-195861.0	1461.0	-2424.0
27	16	46	42	804	234.0	-193843.0	1496.0	-2289.0
27	16	46	42	805	235.0	-191893.0	1538.0	-2256.0
27	16	46	42	805	236.0	-190613.0	1549.0	-1951.0
27	16	46	42	806	237.0	-190492.0	1588.0	-2119.0
27	16	46	42	806	238.0	-190514.0	1603.0	-2268.0
27	16	46	42	819	239.0	-190702.0	1618.0	-2417.0
27	16	46	42	819	240.0	-191263.0	1645.0	-1852.0
27	16	46	42	847	241.0	-191655.0	1648.0	-2471.0
27	16	46	42	848	242.0	-191861.0	1664.0	-2419.0
27	16	46	42	848	243.0	-192007.0	1688.0	-2177.0
27	16	46	42	849	244.0	-192342.0	1698.0	-1612.0
27	16	46	42	850	245.0	-192747.0	1704.0	-1442.0
27	16	46	42	850	246.0	-192934.0	1729.0	-1175.0
27	16	46	42	851	247.0	-193454.0	1748.0	-1562.0
27	16	46	42	851	248.0	-194204.0	1746.0	-1807.0
27	16	46	42	852	249.0	-194774.0	1749.0	-1411.0
27	16	46	42	852	250.0	-195407.0	1748.0	-1389.0
27	16	46	42	853	251.0	-196107.0	1764.0	-1867.0
27	16	46	42	854	252.0	-196320.0	1761.0	-1924.0
27	16	46	42	854	253.0	-196561.0	1749.0	-1351.0
27	16	46	42	855	254.0	-197107.0	1751.0	-976.0
27	16	46	42	855	255.0	-197397.0	1768.0	-1159.0
27	16	46	42	856	0.0	-197337.0	1764.0	-1239.0
27	16	46	42	857	5.0	-199239.0	1701.0	-1074.0
27	16	46	42	857	6.0	-199869.0	1686.0	-762.0
27	16	46	42	867	7.0	-200839.0	1706.0	-716.0
27	16	46	42	868	8.0	-201774.0	1678.0	-866.0
27	16	46	42	869	9.0	-202462.0	1670.0	-1043.0
27	16	46	42	869	10.0	-203075.0	1662.0	-1199.0
27	16	46	42	870	11.0	-203340.0	1641.0	-1338.0
27	16	46	42	870	12.0	-203239.0	1616.0	-1230.0
27	16	46	42	871	13.0	-203210.0	1593.0	-1098.0
27	16	46	42	891	14.0	-202920.0	1575.0	-1492.0
27	16	46	42	891	15.0	-202401.0	1566.0	-1720.0
27	16	46	42	892	16.0	-202332.0	1541.0	-1340.0
27	16	46	42	892	17.0	-202694.0	1512.0	-609.0
27	16	46	42	893	18.0	-202790.0	1482.0	-591.0
27	16	46	42	894	19.0	-202831.0	1453.0	-911.0
27	16	46	42	894	20.0	-202871.0	1413.0	-464.0
27	16	46	42	895	21.0	-202477.0	1378.0	-159.0
27	16	46	42	895	22.0	-201819.0	1344.0	54.0
27	16	46	42	896	23.0	-200791.0	1319.0	-602.0
27	16	46	42	897	24.0	-199416.0	1298.0	-839.0
27	16	46	42	897	25.0	-198459.0	1263.0	-802.0
27	16	46	42	898	26.0	-197825.0	1209.0	-438.0
27	16	46	42	898	27.0	-197124.0	1166.0	-555.0
27	16	46	42	899	28.0	-196524.0	1128.0	-738.0
27	16	46	42	922	29.0	-196093.0	1112.0	-684.0
27	16	46	42	922	30.0	-195989.0	1086.0	44.0
27	16	46	42	923	31.0	-196149.0	1054.0	-119.0
27	16	46	42	924	32.0	-196290.0	1019.0	-278.0
27	16	46	42	924	33.0	-196487.0	962.0	-400.0
27	16	46	42	925	34.0	-196274.0	928.0	-93.0
27	16	46	42	925	35.0	-196325.0	891.0	-135.0
27	16	46	42	926	36.0	-196682.0	857.0	-375.0
27	16	46	42	927	37.0	-196326.0	829.0	-113.0
27	16	46	42	927	38.0	-195989.0	797.0	-193.0
27	16	46	42	928	39.0	-196411.0	761.0	-352.0
27	16	46	42	928	40.0	-196998.0	744.0	-514.0
27	16	46	42	929	41.0	-197527.0	703.0	-482.0
27	16	46	42	930	42.0	-198181.0	654.0	-240.0
27	16	46	42	930	43.0	-198382.0	607.0	-298.0
27	16	46	42	931	44.0	-197992.0	568.0	-554.0
27	16	46	42	931	45.0	-197287.0	569.0	-244.0
27	16	46	42	932	46.0	-196755.0	542.0	111.0
27	16	46	42	933	47.0	-196942.0	516.0	84.0
27	16	46	42	952	48.0	-197581.0	476.0	-214.0
27	16	46	42	953	49.0	-198359.0	429.0	445.0
27	16	46	42	953	50.0	-198831.0	394.0	502.0
27	16	46	42	954	51.0	-199178.0	369.0	173.0
27	16	46	42	955	52.0	-199467.0	338.0	-26.0
27	16	46	42	955	53.0	-199879.0	302.0	-182.0
27	16	46	42	956	54.0	-200459.0	264.0	-156.0
27	16	46	42	956	55.0	-200907.0	221.0	-299.0
27	16	46	42	957	56.0	-200944.0	189.0	-471.0
27	16	46	42	958	57.0	-200881.0	178.0	166.0
27	16	46	42	958	58.0	-200803.0	143.0	493.0
27	16	46	42	959	59.0	-200749.0	118.0	626.0
27	16	46	42	959	60.0	-200597.0	91.0	584.0
27	16	46	42	967	61.0	-200380.0	60.0	497.0
27	16	46	42	968	62.0	-200176.0	24.0	110.0
27	16	46	42	969	63.0	-199804.0	11.0	234.0
27	16	46	42	969	64.0	-199258.0	-28.0	-217.0
27	16	46	42	970	65.0	-198668.0	-61.0	-917.0
27	16	46	42	991	66.0	-198148.0	-84.0	-851.0
27	16	46	42	991	67.0	-197803.0	-106.0	-294.0
27	16	46	42	992	68.0	-197258.0	-135.0	-114.0
27	16	46	42	993	69.0	-196821.0	-152.0	-409.0
27	16	46	43	16	70.0	-196489.0	-206.0	-547.0
27	16	46	43	16	71.0	-196026.0	-218.0	-464.0
27	16	46	43	17	72.0	-195394.0	-246.0	-714.0
27	16	46	43	18	73.0	-194794.0	-279.0	-599.0
27	16	46	43	18	74.0	-194253.0	-309.0	-452.0
27	16	46	43	19	75.0	-193840.0	-339.0	-656.0
27	16	46	43	19	76.0	-193537.0	-364.0	-923.0
27	16	46	43	20	77.0	-193443.0	-374.0	-852.0
27	16	46	43	20	78.0	-193537.0	-402.0	-543.0
27	16	46	43	21	79.0	-193760.0	-440.0	-449.0
27	16	46	43	39	80.0	-194131.0	-450.0	-753.0
27	16	46	43	39	81.0	-194249.0	-479.0	-856.0
27	16	46	43	40	82.0	-194527.0	-506.0	-636.0
27	16	46	43	41	83.0	-194864.0	-531.0	-342.0
27	16	46	43	41	84.0	-195539.0	-572.0	-422.0
27	16	46	43	42	87.0	-197896.0	-664.0	829.0
27	16	46	43	42	88.0	-199304.0	-680.0	852.0
27	16	46	43	43	89.0	-200637.0	-707.0	680.0
27	16	46	43	43	90.0	-201396.0	-719.0	898.0
27	16	46	43	44	91.0	-202134.0	-746.0	1052.0
27	16	46	43	45	92.0	-202917.0	-774.0	359.0
27	16	46	43	45	93.0	-203428.0	-809.0	19.0
27	16	46	43	46	94.0	-203903.0	-846.0	-128.0
27	16	46	43	46	95.0	-204151.0	-879.0	-172.0
27	16	46	43	47	96.0	-203994.0	-887.0	106.0
27	16	46	43	47	97.0	-203641.0	-897.0	-202.0
27	16	46	43	48	98.0	-203246.0	-901.0	-157.0
27	16	46	43	49	99.0	-203003.0	-902.0	0.0
27	16	46	43	49	100.0	-203012.0	-943.0	562.0
27	16	46	43	50	101.0	-202584.0	-973.0	381.0
27	16	46	43	64	102.0	-202152.0	-996.0	288.0
27	16	46	43	65	103.0	-202247.0	-1012.0	52.0
27	16	46	43	65	104.0	-202420.0	-1061.0	400.0
27	16	46	43	66	105.0	-202297.0	-1092.0	413.0
27	16	46	43	67	106.0	-201854.0	-1110.0	131.0
27	16	46	43	67	107.0	-201554.0	-1137.0	181.0
27	16	46	43	68	108.0	-201428.0	-1159.0	210.0
27	16	46	43	68	109.0	-201346.0	-1174.0	278.0
27	16	46	43	69	110.0	-200861.0	-1202.0	246.0
27	16	46	43	69	111.0	-200309.0	-1248.0	212.0
27	16	46	43	88	112.0	-199702.0	-1275.0	151.0
27	16	46	43	89	113.0	-199096.0	-1291.0	110.0
27	16	46	43	89	114.0	-198286.0	-1331.0	24.0
27	16	46	43	90	115.0	-197212.0	-1377.0	-111.0
27	16	46	43	90	116.0	-196387.0	-1383.0	279.0
27	16	46	43	91	117.0	-195618.0	-1401.0	528.0
27	16	46	43	91	118.0	-194085.0	-1435.0	633.0
27	16	46	43	111	119.0	-193148.0	-1460.0	658.0
27	16	46	43	111	120.0	-192808.0	-1479.0	880.0
27	16	46	43	112	121.0	-192421.0	-1521.0	604.0
27	16	46	43	113	122.0	-192246.0	-1552.0	-399.0
27	16	46	43	113	123.0	-192089.0	-1584.0	-717.0
27	16	46	43	114	124.0	-192614.0	-1611.0	-967.0
27	16	46	43	114	125.0	-193817.0	-1642.0	-1342.0
27	16	46	43	115	126.0	-195537.0	-1679.0	-2543.0
27	16	46	43	115	127.0	-197001.0	-1692.0	-2653.0
27	16	46	43	116	128.0	-197826.0	-1720.0	-2701.0
27	16	46	43	117	129.0	-198702.0	-1754.0	-3077.0
27	16	46	43	117	130.0	-199471.0	-1792.0	-3939.0
27	16	46	43	118	131.0	-199716.0	-1810.0	-5129.0
27	16	46	43	118	132.0	-199861.0	-1841.0	-5199.0
27	16	46	43	119	133.0	-200099.0	-1876.0	-4124.0
27	16	46	43	119	134.0	-200275.0	-1897.0	-1743.0
27	16	46	43	120	135.0	-200773.0	-1939.0	2231.0
27	16	46	43	121	136.0	-201251.0	-1976.0	5843.0
27	16	46	43	121	137.0	-201626.0	-1994.0	9368.0
27	16	46	43	122	138.0	-201746.0	-2007.0	12296.0
27	16	46	43	122	139.0	-201615.0	-2025.0	14278.0
27	16	46	43	134	140.0	-201995.0	-2050.0	15559.0
27	16	46	43	135	141.0	-202341.0	-2084.0	16012.0
27	16	46	43	135	142.0	-200967.0	-2116.0	16045.0
27	16	46	43	136	143.0	-198781.0	-2161.0	15497.0
27	16	46	43	137	144.0	-197022.0	-2194.0	14773.0
27	16	46	43	137	145.0	-195946.0	-2235.0	13905.0
27	16	46	43	138	146.0	-194585.0	-2266.0	12941.0
27	16	46	43	138	147.0	-193901.0	-2294.0	11819.0
27	16	46	43	139	148.0	-193026.0	-2313.0	10889.0
27	16	46	43	139	149.0	-191544.0	-2354.0	10320.0
27	16	46	43	157	150.0	-190166.0	-2387.0	9283.0
27	16	46	43	158	151.0	-190786.0	-2416.0	7946.0
27	16	46	43	158	152.0	-193550.0	-2443.0	6892.0
27	16	46	43	159	153.0	-193017.0	-2477.0	7107.0
27	16	46	43	159	154.0	-195168.0	-2529.0	6393.0
27	16	46	43	160	155.0	-197099.0	-2555.0	5048.0
27	16	46	43	181	156.0	-198394.0	-2574.0	4575.0
27	16	46	43	181	157.0	-199085.0	-2618.0	4539.0
27	16	46	43	182	158.0	-198085.0	-2662.0	3843.0
27	16	46	43	182	159.0	-195595.0	-2679.0	2531.0
27	16	46	43	183	160.0	-191318.0	-2707.0	2036.0
27	16	46	43	183	161.0	-182554.0	-2763.0	1695.0
27	16	46	43	203	162.0	-169966.0	-2803.0	1144.0
27	16	46	43	204	163.0	-159856.0	-2833.0	147.0
27	16	46	43	205	164.0	-156137.0	-2858.0	-101.0
27	16	46	43	205	165.0	-157422.0	-2904.0	-385.0
27	16	46	43	206	166.0	-159701.0	-2917.0	-565.0
27	16	46	43	207	167.0	-163927.0	-2970.0	-644.0
27	16	46	43	207	168.0	-172412.0	-3015.0	-971.0
27	16	46	43	208	169.0	-184859.0	-3032.0	-1245.0
27	16	46	43	209	170.0	-198716.0	-3074.0	-1252.0
27	16	46	43	209	171.0	-210665.0	-3105.0	-1241.0
27	16	46	43	210	172.0	-217749.0	-3123.0	-1363.0
27	16	46	43	210	173.0	-221016.0	-3154.0	-1522.0
27	16	46	43	211	174.0	-223007.0	-3206.0	-1643.0
27	16	46	43	211	175.0	-220597.0	-3262.0	-1562.0
27	16	46	43	212	176.0	-213372.0	-3285.0	-1270.0
27	16	46	43	213	177.0	-204797.0	-3319.0	-1081.0
27	16	46	43	213	178.0	-199312.0	-3347.0	-1257.0
27	16	46	43	214	179.0	-198153.0	-3381.0	-1552.0
27	16	46	43	214	180.0	-201663.0	-3397.0	-1662.0
27	16	46	43	215	181.0	-209277.0	-3437.0	-1567.0
27	16	46	43	215	182.0	-219447.0	-3467.0	-1597.0
27	16	46	43	216	183.0	-227839.0	-3489.0	-1719.0
27	16	46	43	217	184.0	-232971.0	-3518.0	-1516.0
27	16	46	43	217	185.0	-235310.0	-3569.0	-1259.0
27	16	46	43	238	186.0	-234771.0	-3611.0	-832.0
27	16	46	43	238	187.0	-231894.0	-3646.0	-646.0
27	16	46	43	239	188.0	-226919.0	-3672.0	-938.0
27	16	46	43	240	189.0	-220806.0	-3710.0	-1233.0
27	16	46	43	240	190.0	-215487.0	-3742.0	-1029.0
27	16	46	43	241	191.0	-211826.0	-3769.0	-1124.0
27	16	46	43	242	192.0	-210391.0	-3816.0	-1793.0
27	16	46	43	259	193.0	-209494.0	-3852.0	-1642.0
27	16	46	43	260	194.0	-208021.0	-3901.0	-1316.0
27	16	46	43	260	195.0	-206139.0	-3937.0	-1272.0
27	16	46	43	261	196.0	-204330.0	-3971.0	-1374.0
27	16	46	43	262	197.0	-203115.0	-3994.0	-862.0
27	16	46	43	262	198.0	-202856.0	-4032.0	-679.0
27	16	46	43	263	199.0	-203251.0	-4073.0	-957.0
27	16	46	43	264	200.0	-204229.0	-4108.0	-1262.0
27	16	46	43	281	201.0	-205129.0	-4139.0	-1374.0
27	16	46	43	282	202.0	-205379.0	-4164.0	-1496.0
27	16	46	43	282	203.0	-204399.0	-4186.0	-1280.0
27	16	46	43	283	204.0	-203495.0	-4232.0	-1306.0
27	16	46	43	284	205.0	-203122.0	-4284.0	-1084.0
27	16	46	43	284	206.0	-202526.0	-4309.0	-1169.0
27	16	46	43	285	207.0	-201641.0	-4334.0	-1242.0
27	16	46	43	285	208.0	-200384.0	-4375.0	-1457.0
27	16	46	43	286	209.0	-199152.0	-4396.0	-1771.0
27	16	46	43	286	210.0	-198270.0	-4412.0	-1591.0
27	16	46	43	287	211.0	-197167.0	-4424.0	-1634.0
27	16	46	43	288	212.0	-195969.0	-4489.0	-1733.0
27	16	46	43	288	213.0	-194751.0	-4532.0	-1448.0
27	16	46	43	289	214.0	-193695.0	-4566.0	-880.0
27	16	46	43	289	215.0	-193152.0	-4626.0	-716.0
27	16	46	43	290	216.0	-193437.0	-4646.0	-492.0
27	16	46	43	290	217.0	-193786.0	-4677.0	-127.0
27	16	46	43	291	218.0	-193817.0	-4711.0	-175.0
27	16	46	43	292	219.0	-193797.0	-4724.0	-252.0
27	16	46	43	292	220.0	-194420.0	-4759.0	-497.0
27	16	46	43	293	221.0	-195552.0	-4788.0	-813.0
27	16	46	43	313	222.0	-196697.0	-4807.0	-1096.0
27	16	46	43	313	223.0	-198201.0	-4862.0	-696.0
27	16	46	43	314	224.0	-199826.0	-4914.0	-623.0
27	16	46	43	315	225.0	-201204.0	-4931.0	-276.0
27	16	46	43	315	226.0	-202148.0	-4977.0	-306.0
27	16	46	43	316	227.0	-202982.0	-5023.0	1.0
27	16	46	43	317	228.0	-204385.0	-5048.0	-9.0
27	16	46	43	317	229.0	-205512.0	-5086.0	-109.0
27	16	46	43	318	230.0	-206812.0	-5129.0	-341.0
27	16	46	43	318	231.0	-208556.0	-5152.0	-202.0
27	16	46	43	319	232.0	-210081.0	-5202.0	-267.0
27	16	46	43	328	233.0	-210916.0	-5238.0	-599.0
27	16	46	43	329	234.0	-211115.0	-5277.0	-353.0
27	16	46	43	329	235.0	-210625.0	-5324.0	-297.0
27	16	46	43	330	236.0	-210133.0	-5371.0	-431.0
27	16	46	43	331	237.0	-209915.0	-5403.0	-64.0
27	16	46	43	331	238.0	-209568.0	-5436.0	-109.0
27	16	46	43	332	239.0	-209137.0	-5470.0	-612.0
27	16	46	43	333	240.0	-208566.0	-5487.0	-787.0
27	16	46	43	333	241.0	-207629.0	-5506.0	-530.0
27	16	46	43	334	242.0	-206360.0	-5519.0	-531.0
27	16	46	43	334	243.0	-205060.0	-5557.0	-277.0
27	16	46	43	335	244.0	-203844.0	-5588.0	-253.0
27	16	46	43	335	245.0	-202859.0	-5603.0	-494.0
27	16	46	43	351	246.0	-201947.0	-5619.0	48.0
27	16	46	43	352	247.0	-201462.0	-5631.0	127.0
27	16	46	43	353	248.0	-201278.0	-5636.0	-171.0
27	16	46	43	353	249.0	-201471.0	-5628.0	110.0
27	16	46	43	354	250.0	-201781.0	-5637.0	96.0
27	16	46	43	354	251.0	-202145.0	-5649.0	365.0
27	16	46	43	355	252.0	-202141.0	-5650.0	847.0
27	16	46	43	374	253.0	-202004.0	-5636.0	841.0
27	16	46	43	375	254.0	-201677.0	-5619.0	1045.0
27	16	46	43	376	255.0	-201220.0	-5631.0	1462.0
27	16	46	43	376	0.0	-200886.0	-5617.0	1286.0
27	16	46	43	377	1.0	-200481.0	-5585.0	1469.0
27	16	46	43	378	2.0	-199849.0	-5557.0	1114.0
27	16	46	43	378	3.0	-199758.0	-5519.0	1023.0
27	16	46	43	379	4.0	-199778.0	-5505.0	1285.0
27	16	46	43	379	5.0	-199872.0	-5466.0	1292.0
27	16	46	43	380	6.0	-199913.0	-5417.0	1041.0
27	16	46	43	380	7.0	-199675.0	-5362.0	1234.0
27	16	46	43	381	8.0	-199461.0	-5327.0	1731.0
27	16	46	43	382	9.0	-199252.0	-5290.0	1549.0
27	16	46	43	382	10.0	-199196.0	-5233.0	1676.0
27	16	46	43	383	11.0	-199224.0	-5173.0	1599.0
27	16	46	43	383	12.0	-199071.0	-5101.0	1734.0
27	16	46	43	398	13.0	-198974.0	-5031.0	1467.0
27	16	46	43	421	14.0	-199203.0	-4949.0	1547.0
27	16	46	43	422	15.0	-199234.0	-4886.0	1566.0
27	16	46	43	422	16.0	-199195.0	-4816.0	1259.0
27	16	46	43	423	17.0	-199071.0	-4727.0	1123.0
27	16	46	43	423	18.0	-199096.0	-4657.0	1094.0
27	16	46	43	424	19.0	-199089.0	-4574.0	1319.0
27	16	46	43	424	20.0	-199447.0	-4473.0	1139.0
27	16	46	43	425	21.0	-199632.0	-4372.0	926.0
27	16	46	43	426	22.0	-199974.0	-4292.0	496.0
27	16	46	43	426	23.0	-200560.0	-4202.0	-67.0
27	16	46	43	427	24.0	-200506.0	-4113.0	88.0
27	16	46	43	427	25.0	-200413.0	-4007.0	201.0
27	16	46	43	428	26.0	-200214.0	-3904.0	119.0
27	16	46	43	428	27.0	-200372.0	-3820.0	439.0
27	16	46	43	429	28.0	-200790.0	-3703.0	636.0
27	16	46	43	430	29.0	-201222.0	-3584.0	264.0
27	16	46	43	430	30.0	-201523.0	-3491.0	-18.0
27	16	46	43	431	31.0	-201517.0	-3375.0	-191.0
27	16	46	43	431	32.0	-201319.0	-3266.0	-794.0
27	16	46	43	432	33.0	-201012.0	-3154.0	-962.0
27	16	46	43	433	34.0	-200078.0	-3071.0	-1082.0
27	16	46	43	434	35.0	-198824.0	-2948.0	-1022.0
27	16	46	43	434	36.0	-197935.0	-2843.0	-1141.0
27	16	46	43	435	37.0	-197187.0	-2764.0	-933.0
27	16	46	43	436	38.0	-196798.0	-2643.0	-684.0
27	16	46	43	436	39.0	-196796.0	-2552.0	-635.0
27	16	46	43	437	40.0	-196899.0	-2451.0	-924.0
27	16	46	43	438	41.0	-197057.0	-2352.0	-1060.0
27	16	46	43	438	42.0	-197412.0	-2272.0	-1079.0
27	16	46	43	447	43.0	-198064.0	-2131.0	-1037.0
27	16	46	43	448	44.0	-198982.0	-2031.0	-1081.0
27	16	46	43	449	45.0	-200323.0	-1940.0	-987.0
27	16	46	43	449	46.0	-202009.0	-1835.0	-1093.0
27	16	46	43	450	47.0	-204006.0	-1739.0	-792.0
27	16	46	43	450	48.0	-205806.0	-1656.0	-634.0
27	16	46	43	451	49.0	-207208.0	-1551.0	-907.0
27	16	46	43	478	50.0	-208889.0	-1457.0	-1364.0
27	16	46	43	479	51.0	-210274.0	-1361.0	-1342.0
27	16	46	43	479	52.0	-211203.0	-1256.0	-1742.0
27	16	46	43	480	53.0	-211564.0	-1173.0	-1342.0
27	16	46	43	481	54.0	-211867.0	-1104.0	-1144.0
27	16	46	43	481	55.0	-211716.0	-1013.0	-1012.0
27	16	46	43	482	56.0	-211077.0	-922.0	-737.0
27	16	46	43	483	57.0	-209950.0	-845.0	-347.0
27	16	46	43	483	58.0	-208082.0	-758.0	-260.0
27	16	46	43	492	59.0	-202957.0	-676.0	-650.0
27	16	46	43	493	60.0	-191640.0	-600.0	-811.0
27	16	46	43	494	61.0	-183829.0	-529.0	-569.0
27	16	46	43	494	62.0	-187841.0	-446.0	-1209.0
27	16	46	43	495	63.0	-193774.0	-374.0	-1785.0
27	16	46	43	496	64.0	-202185.0	-314.0	-1572.0
27	16	46	43	496	65.0	-212019.0	-242.0	-1255.0
27	16	46	43	497	66.0	-217196.0	-151.0	-1313.0
27	16	46	43	498	67.0	-218146.0	-81.0	-1446.0
27	16	46	43	498	68.0	-216759.0	-40.0	-1246.0
27	16	46	43	499	69.0	-212360.0	16.0	-1435.0
27	16	46	43	500	70.0	-207930.0	83.0	-1592.0
27	16	46	43	500	71.0	-204258.0	141.0	-1637.0
27	16	46	43	501	72.0	-201241.0	208.0	-1615.0
27	16	46	43	502	73.0	-199674.0	261.0	-2089.0
27	16	46	43	502	74.0	-198999.0	333.0	-1965.0
27	16	46	43	514	75.0	-198568.0	399.0	-1989.0
27	16	46	43	515	76.0	-198803.0	447.0	-1941.0
27	16	46	43	515	77.0	-199683.0	499.0	-2041.0
27	16	46	43	516	78.0	-200737.0	535.0	-2195.0
27	16	46	43	537	79.0	-201804.0	575.0	-2129.0
27	16	46	43	538	80.0	-202621.0	661.0	-2110.0
27	16	46	43	538	81.0	-202182.0	716.0	-2527.0
27	16	46	43	539	82.0	-200944.0	730.0	-2729.0
27	16	46	43	540	83.0	-198499.0	778.0	-2469.0
27	16	46	43	540	84.0	-194511.0	830.0	-2575.0
27	16	46	43	541	85.0	-188986.0	874.0	-2504.0
27	16	46	43	560	86.0	-184311.0	924.0	-2192.0
27	16	46	43	561	87.0	-180792.0	949.0	-1942.0
27	16	46	43	562	88.0	-179028.0	1004.0	-1704.0
27	16	46	43	562	89.0	-179363.0	1071.0	-1985.0
27	16	46	43	563	90.0	-181569.0	1084.0	-2102.0
27	16	46	43	563	91.0	-184041.0	1114.0	-2006.0
27	16	46	43	564	92.0	-186502.0	1164.0	-2370.0
27	16	46	43	565	93.0	-188579.0	1186.0	-2824.0
27	16	46	43	565	94.0	-189332.0	1210.0	-2394.0
27	16	46	43	566	95.0	-189698.0	1256.0	-2299.0
27	16	46	43	567	96.0	-189806.0	1300.0	-2179.0
27	16	46	43	567	97.0	-189911.0	1294.0	-1910.0
27	16	46	43	568	98.0	-190098.0	1316.0	-1612.0
27	16	46	43	569	99.0	-190489.0	1346.0	-1971.0
27	16	46	43	569	100.0	-190971.0	1371.0	-2484.0
27	16	46	43	570	101.0	-191497.0	1393.0	-2291.0
27	16	46	43	570	102.0	-192152.0	1421.0	-2220.0
27	16	46	43	571	103.0	-193091.0	1437.0	-2381.0
27	16	46	43	572	104.0	-194321.0	1472.0	-2415.0
27	16	46	43	572	105.0	-195874.0	1508.0	-2123.0
27	16	46	43	573	106.0	-197318.0	1515.0	-2328.0
27	16	46	43	573	107.0	-198447.0	1530.0	-2708.0
27	16	46	43	583	108.0	-199459.0	1537.0	-2683.0
27	16	46	43	584	109.0	-200622.0	1556.0	-2602.0
27	16	46	43	585	110.0	-201987.0	1562.0	-2766.0
27	16	46	43	585	111.0	-203165.0	1581.0	-3070.0
27	16	46	43	586	112.0	-203969.0	1585.0	-2884.0
27	16	46	43	587	113.0	-204856.0	1604.0	-3052.0
27	16	46	43	587	114.0	-205692.0	1616.0	-3079.0
27	16	46	43	588	115.0	-206491.0	1608.0	-2645.0
27	16	46	43	589	116.0	-207090.0	1603.0	-2533.0
27	16	46	43	589	117.0	-207266.0	1586.0	-2304.0
27	16	46	43	606	118.0	-207749.0	1575.0	-2619.0
27	16	46	43	607	119.0	-208317.0	1573.0	-2913.0
27	16	46	43	607	120.0	-208887.0	1570.0	-2694.0
27	16	46	43	608	121.0	-209128.0	1571.0	-3015.0
27	16	46	43	608	122.0	-209177.0	1553.0	-3420.0
27	16	46	43	609	123.0	-209067.0	1546.0	-3079.0
27	16	46	43	610	124.0	-208954.0	1541.0	-2928.0
27	16	46	43	629	125.0	-208864.0	1541.0	-2712.0
27	16	46	43	630	126.0	-208550.0	1536.0	-2626.0
27	16	46	43	630	127.0	-208089.0	1517.0	-2466.0
27	16	46	43	631	128.0	-207603.0	1484.0	-2106.0
27	16	46	43	631	129.0	-207016.0	1461.0	-2681.0
27	16	46	43	632	130.0	-206355.0	1453.0	-3292.0
27	16	46	43	633	131.0	-205561.0	1415.0	-3182.0
27	16	46	43	633	132.0	-204720.0	1406.0	-3186.0
27	16	46	43	634	133.0	-203722.0	1397.0	-3512.0
27	16	46	43	634	134.0	-202602.0	1382.0	-3367.0
27	16	46	43	635	135.0	-201510.0	1356.0	-3022.0
27	16	46	43	651	136.0	-200544.0	1335.0	-3177.0
27	16	46	43	652	137.0	-199912.0	1309.0	-3327.0
27	16	46	43	653	138.0	-199285.0	1267.0	-3094.0
27	16	46	43	653	139.0	-199146.0	1255.0	-3017.0
27	16	46	43	654	140.0	-199061.0	1243.0	-3080.0
27	16	46	43	655	141.0	-199142.0	1231.0	-3177.0
27	16	46	43	655	142.0	-199357.0	1194.0	-3341.0
27	16	46	43	656	143.0	-199496.0	1171.0	-3613.0
27	16	46	43	657	144.0	-199382.0	1148.0	-3498.0
27	16	46	43	657	145.0	-199340.0	1127.0	-3539.0
27	16	46	43	658	146.0	-199544.0	1101.0	-3564.0
27	16	46	43	659	147.0	-199827.0	1064.0	-3594.0
27	16	46	43	659	148.0	-200169.0	1045.0	-3854.0
27	16	46	43	660	149.0	-200664.0	1031.0	-3850.0
27	16	46	43	660	150.0	-201155.0	1005.0	-3935.0
27	16	46	43	661	151.0	-201564.0	960.0	-3979.0
27	16	46	43	661	152.0	-201986.0	944.0	-4063.0
27	16	46	43	662	153.0	-202174.0	928.0	-3751.0
27	16	46	43	677	154.0	-202237.0	885.0	-3314.0
27	16	46	43	686	155.0	-202197.0	845.0	-3712.0
27	16	46	43	689	156.0	-202207.0	835.0	-3527.0
27	16	46	43	690	157.0	-202253.0	824.0	-2938.0
27	16	46	43	690	158.0	-202477.0	799.0	-3131.0
27	16	46	43	691	159.0	-202441.0	756.0	-3869.0
27	16	46	43	691	160.0	-202154.0	729.0	-3864.0
27	16	46	43	692	161.0	-201837.0	726.0	-3743.0
27	16	46	43	693	162.0	-201446.0	703.0	-3810.0
27	16	46	43	693	163.0	-201056.0	661.0	-4039.0
27	16	46	43	694	164.0	-200704.0	657.0	-4151.0
27	16	46	43	694	165.0	-200291.0	634.0	-3657.0
27	16	46	43	695	166.0	-199991.0	603.0	-3895.0
27	16	46	43	695	167.0	-199836.0	564.0	-4086.0
27	16	46	43	696	168.0	-199675.0	551.0	-3797.0
27	16	46	43	718	169.0	-199594.0	523.0	-3571.0
27	16	46	43	718	170.0	-199559.0	501.0	-3838.0
27	16	46	43	719	171.0	-199441.0	494.0	-3836.0
27	16	46	43	739	172.0	-199122.0	476.0	-4020.0
27	16	46	43	739	173.0	-198462.0	436.0	-4333.0
27	16	46	43	740	174.0	-197761.0	418.0	-4269.0
27	16	46	43	741	175.0	-197104.0	398.0	-4406.0
27	16	46	43	741	176.0	-196601.0	384.0	-4692.0
27	16	46	43	742	177.0	-196101.0	350.0	-4802.0
27	16	46	43	742	178.0	-195252.0	313.0	-5133.0
27	16	46	43	743	179.0	-194335.0	281.0	-5341.0
27	16	46	43	744	180.0	-193593.0	288.0	-5425.0
27	16	46	43	744	181.0	-192968.0	263.0	-5289.0
27	16	46	43	745	182.0	-192240.0	241.0	-5281.0
27	16	46	43	745	183.0	-191883.0	226.0	-5089.0
27	16	46	43	746	184.0	-191772.0	195.0	-5197.0
27	16	46	43	746	185.0	-191762.0	164.0	-5081.0
27	16	46	43	747	186.0	-191825.0	134.0	-4724.0
27	16	46	43	748	190.0	-193487.0	48.0	-5158.0
27	16	46	43	748	191.0	-193734.0	38.0	-5152.0
27	16	46	43	749	192.0	-194038.0	24.0	-5442.0
27	16	46	43	749	193.0	-194546.0	18.0	-5234.0
27	16	46	43	750	194.0	-195185.0	-2.0	-4461.0
27	16	46	43	750	195.0	-195696.0	-11.0	-4492.0
27	16	46	43	751	196.0	-196386.0	-42.0	-4493.0
27	16	46	43	751	197.0	-197310.0	-79.0	-4268.0
27	16	46	43	762	198.0	-198517.0	-96.0	-4204.0
27	16	46	43	762	199.0	-199697.0	-104.0	-4341.0
27	16	46	43	763	200.0	-200211.0	-127.0	-4514.0
27	16	46	43	763	201.0	-200415.0	-161.0	-4641.0
27	16	46	43	764	202.0	-200935.0	-195.0	-4495.0
27	16	46	43	765	203.0	-201632.0	-207.0	-4681.0
27	16	46	43	765	204.0	-202402.0	-232.0	-4825.0
27	16	46	43	766	205.0	-203184.0	-274.0	-4717.0
27	16	46	43	767	206.0	-204062.0	-282.0	-4372.0
27	16	46	43	767	207.0	-204629.0	-315.0	-4645.0
27	16	46	43	784	208.0	-205204.0	-352.0	-4875.0
27	16	46	43	785	209.0	-205702.0	-363.0	-5246.0
27	16	46	43	786	210.0	-206061.0	-379.0	-5111.0
27	16	46	43	786	211.0	-206341.0	-411.0	-4968.0
27	16	46	43	787	212.0	-206239.0	-455.0	-5291.0
27	16	46	43	787	213.0	-205661.0	-478.0	-4897.0
27	16	46	43	809	214.0	-205306.0	-496.0	-4683.0
27	16	46	43	810	215.0	-204572.0	-524.0	-4382.0
27	16	46	43	810	216.0	-203694.0	-544.0	-4747.0
27	16	46	43	811	217.0	-202946.0	-571.0	-4432.0
27	16	46	43	811	218.0	-202317.0	-615.0	-4169.0
27	16	46	43	812	219.0	-202130.0	-639.0	-4057.0
27	16	46	43	813	220.0	-201894.0	-686.0	-4273.0
27	16	46	43	813	221.0	-201008.0	-699.0	-4306.0
27	16	46	43	814	222.0	-200061.0	-741.0	-4234.0
27	16	46	43	814	223.0	-199336.0	-756.0	-3927.0
27	16	46	43	815	224.0	-198536.0	-784.0	-3796.0
27	16	46	43	816	225.0	-197908.0	-834.0	-3808.0
27	16	46	43	816	226.0	-197627.0	-863.0	-3823.0
27	16	46	43	817	227.0	-197548.0	-909.0	-3471.0
27	16	46	43	817	228.0	-197677.0	-930.0	-3544.0
27	16	46	43	818	229.0	-197476.0	-961.0	-4349.0
27	16	46	43	818	230.0	-196662.0	-1002.0	-4466.0
27	16	46	43	819	231.0	-195669.0	-1019.0	-4138.0
27	16	46	43	820	232.0	-194963.0	-1030.0	-3861.0
27	16	46	43	832	233.0	-194915.0	-1047.0	-4254.0
27	16	46	43	833	234.0	-195406.0	-1082.0	-4719.0
27	16	46	43	834	235.0	-195650.0	-1127.0	-5076.0
27	16	46	43	861	236.0	-196037.0	-1151.0	-5926.0
27	16	46	43	862	237.0	-196491.0	-1189.0	-6181.0
27	16	46	43	862	238.0	-196913.0	-1237.0	-6710.0
27	16	46	43	863	239.0	-197862.0	-1287.0	-7264.0
27	16	46	43	863	240.0	-199654.0	-1312.0	-7962.0
27	16	46	43	864	241.0	-201882.0	-1367.0	-8841.0
27	16	46	43	865	242.0	-204076.0	-1392.0	-8779.0
27	16	46	43	865	243.0	-205326.0	-1411.0	-7644.0
27	16	46	43	866	244.0	-206161.0	-1454.0	-4690.0
27	16	46	43	866	245.0	-206789.0	-1481.0	-431.0
27	16	46	43	867	246.0	-206894.0	-1521.0	3718.0
27	16	46	43	867	247.0	-206403.0	-1562.0	7653.0
27	16	46	43	868	248.0	-205734.0	-1583.0	10458.0
27	16	46	43	869	249.0	-204428.0	-1629.0	12533.0
27	16	46	43	869	250.0	-202374.0	-1666.0	14235.0
27	16	46	43	870	251.0	-199582.0	-1699.0	15152.0
27	16	46	43	870	252.0	-196368.0	-1721.0	15678.0
27	16	46	43	871	253.0	-192982.0	-1755.0	14928.0
27	16	46	43	884	254.0	-189789.0	-1801.0	14743.0
27	16	46	43	885	255.0	-187032.0	-1837.0	13309.0
27	16	46	43	885	0.0	-185036.0	-1866.0	12257.0
27	16	46	43	886	1.0	-183579.0	-1928.0	11011.0
27	16	46	43	887	2.0	-182771.0	-1981.0	9148.0
27	16	46	43	887	3.0	-182541.0	-2012.0	7858.0
27	16	46	43	888	4.0	-183276.0	-2031.0	7330.0
27	16	46	43	888	5.0	-185065.0	-2071.0	6356.0
27	16	46	43	889	6.0	-187492.0	-2109.0	5388.0
27	16	46	43	890	7.0	-189968.0	-2153.0	4892.0
27	16	46	43	890	8.0	-192491.0	-2192.0	4713.0
27	16	46	43	891	9.0	-195147.0	-2226.0	3750.0
27	16	46	43	891	10.0	-197333.0	-2280.0	2484.0
27	16	46	43	892	11.0	-197882.0	-2309.0	1117.0
27	16	46	43	893	12.0	-197266.0	-2339.0	748.0
27	16	46	43	893	13.0	-194601.0	-2384.0	63.0
27	16	46	43	907	14.0	-184020.0	-2404.0	-337.0
27	16	46	43	907	15.0	-166618.0	-2428.0	-1051.0
27	16	46	43	908	16.0	-150706.0	-2472.0	-1304.0
27	16	46	43	931	17.0	-143286.0	-2500.0	-1636.0
27	16	46	43	931	18.0	-144904.0	-2527.0	-2317.0
27	16	46	43	932	19.0	-151122.0	-2566.0	-2759.0
27	16	46	43	933	20.0	-160496.0	-2616.0	-3094.0
27	16	46	43	933	21.0	-172616.0	-2665.0	-3266.0
27	16	46	43	934	22.0	-184816.0	-2699.0	-3472.0
27	16	46	43	934	23.0	-196268.0	-2738.0	-3556.0
27	16	46	43	935	24.0	-205732.0	-2770.0	-3478.0
27	16	46	43	936	25.0	-211342.0	-2807.0	-3366.0
27	16	46	43	936	26.0	-216838.0	-2842.0	-3711.0
27	16	46	43	953	27.0	-219913.0	-2889.0	-3469.0
27	16	46	43	954	28.0	-216820.0	-2930.0	-2919.0
27	16	46	43	954	29.0	-210516.0	-2959.0	-3064.0
27	16	46	43	955	30.0	-202072.0	-2995.0	-3416.0
27	16	46	43	956	31.0	-194947.0	-3044.0	-3502.0
27	16	46	43	956	32.0	-193759.0	-3087.0	-3476.0
27	16	46	43	957	33.0	-198100.0	-3121.0	-3887.0
27	16	46	43	957	34.0	-208899.0	-3163.0	-4037.0
27	16	46	43	958	35.0	-220352.0	-3211.0	-3806.0
27	16	46	43	958	36.0	-226853.0	-3267.0	-3742.0
27	16	46	43	959	37.0	-228472.0	-3289.0	-3996.0
27	16	46	43	960	38.0	-227321.0	-3313.0	-3721.0
27	16	46	43	960	39.0	-224009.0	-3361.0	-3469.0
27	16	46	43	976	40.0	-219556.0	-3396.0	-3452.0
27	16	46	43	977	41.0	-214427.0	-3443.0	-3956.0
27	16	46	43	977	42.0	-209933.0	-3479.0	-3701.0
27	16	46	43	978	43.0	-207312.0	-3509.0	-4075.0
27	16	46	43	979	44.0	-207059.0	-3529.0	-4273.0
27	16	46	43	979	45.0	-208199.0	-3570.0	-4221.0
27	16	46	43	980	46.0	-209147.0	-3627.0	-4098.0
27	16	46	43	981	47.0	-208592.0	-3655.0	-4176.0
27	16	46	43	981	48.0	-207387.0	-3707.0	-4121.0
27	16	46	43	982	49.0	-206248.0	-3729.0	-4172.0
27	16	46	43	982	50.0	-205479.0	-3757.0	-4297.0
27	16	46	43	983	51.0	-205367.0	-3808.0	-4297.0
27	16	46	43	984	52.0	-205651.0	-3852.0	-4484.0
27	16	46	43	984	53.0	-205947.0	-3877.0	-4519.0
27	16	46	43	985	54.0	-206177.0	-3901.0	-4363.0
27	16	46	43	985	55.0	-206445.0	-3925.0	-4541.0
27	16	46	43	986	56.0	-206822.0	-3967.0	-4509.0
27	16	46	43	987	57.0	-207127.0	-4002.0	-4014.0
27	16	46	43	987	58.0	-207209.0	-4023.0	-3998.0
27	16	46	43	988	59.0	-207049.0	-4059.0	-4366.0
27	16	46	43	988	60.0	-206827.0	-4091.0	-4314.0
27	16	46	43	989	61.0	-206247.0	-4116.0	-4085.0
27	16	46	44	2	62.0	-204964.0	-4149.0	-4302.0
27	16	46	44	3	63.0	-204077.0	-4194.0	-4912.0
27	16	46	44	4	64.0	-202961.0	-4229.0	-4792.0
27	16	46	44	4	65.0	-201664.0	-4260.0	-4256.0
27	16	46	44	5	66.0	-200965.0	-4282.0	-4329.0
27	16	46	44	5	67.0	-200667.0	-4316.0	-4433.0
27	16	46	44	6	68.0	-200729.0	-4354.0	-4132.0
27	16	46	44	7	69.0	-200676.0	-4387.0	-3685.0
27	16	46	44	33	70.0	-200848.0	-4432.0	-4154.0
27	16	46	44	34	71.0	-201942.0	-4460.0	-4090.0
27	16	46	44	34	72.0	-203632.0	-4484.0	-4397.0
27	16	46	44	35	73.0	-205219.0	-4540.0	-4535.0
27	16	46	44	36	74.0	-206844.0	-4560.0	-4673.0
27	16	46	44	36	75.0	-208184.0	-4587.0	-4593.0
27	16	46	44	37	76.0	-209132.0	-4630.0	-4738.0
27	16	46	44	37	77.0	-209706.0	-4665.0	-4844.0
27	16	46	44	38	78.0	-210148.0	-4686.0	-4749.0
27	16	46	44	53	79.0	-210516.0	-4726.0	-4664.0
27	16	46	44	54	80.0	-211235.0	-4770.0	-4794.0
27	16	46	44	54	81.0	-212082.0	-4816.0	-4959.0
27	16	46	44	55	82.0	-212701.0	-4850.0	-4816.0
27	16	46	44	55	83.0	-213141.0	-4889.0	-4729.0
27	16	46	44	56	84.0	-212992.0	-4914.0	-4729.0
27	16	46	44	76	85.0	-212227.0	-4940.0	-4767.0
27	16	46	44	77	86.0	-211664.0	-4969.0	-4616.0
27	16	46	44	78	87.0	-211492.0	-4987.0	-4592.0
27	16	46	44	78	88.0	-211469.0	-5009.0	-4768.0
27	16	46	44	79	89.0	-210983.0	-5059.0	-4986.0
27	16	46	44	80	90.0	-210512.0	-5104.0	-5047.0
27	16	46	44	80	91.0	-209852.0	-5127.0	-4811.0
27	16	46	44	81	92.0	-209067.0	-5141.0	-4790.0
27	16	46	44	81	93.0	-208284.0	-5161.0	-5258.0
27	16	46	44	82	94.0	-207549.0	-5189.0	-4437.0
27	16	46	44	83	95.0	-206464.0	-5192.0	-4166.0
27	16	46	44	83	96.0	-205183.0	-5211.0	-4444.0
27	16	46	44	84	97.0	-203220.0	-5227.0	-4311.0
27	16	46	44	84	98.0	-201016.0	-5236.0	-3874.0
27	16	46	44	85	99.0	-199402.0	-5265.0	-3977.0
27	16	46	44	85	100.0	-197932.0	-5266.0	-4147.0
27	16	46	44	86	101.0	-196846.0	-5261.0	-4212.0
27	16	46	44	86	102.0	-195634.0	-5252.0	-3844.0
27	16	46	44	87	103.0	-194879.0	-5249.0	-4187.0
27	16	46	44	88	104.0	-194487.0	-5228.0	-4671.0
27	16	46	44	88	105.0	-194091.0	-5204.0	-4814.0
27	16	46	44	89	106.0	-193839.0	-5207.0	-3987.0
27	16	46	44	89	107.0	-193148.0	-5187.0	-3816.0
27	16	46	44	90	108.0	-192164.0	-5138.0	-3611.0
27	16	46	44	90	109.0	-191689.0	-5111.0	-3778.0
27	16	46	44	107	110.0	-192162.0	-5093.0	-3613.0
27	16	46	44	108	111.0	-192747.0	-5058.0	-3815.0
27	16	46	44	109	112.0	-193403.0	-5009.0	-3721.0
27	16	46	44	109	113.0	-194061.0	-4979.0	-3913.0
27	16	46	44	110	114.0	-194842.0	-4935.0	-3876.0
27	16	46	44	110	115.0	-195373.0	-4866.0	-4149.0
27	16	46	44	111	116.0	-195608.0	-4817.0	-3963.0
27	16	46	44	112	117.0	-195792.0	-4754.0	-4081.0
27	16	46	44	112	118.0	-195938.0	-4684.0	-4155.0
27	16	46	44	113	119.0	-195736.0	-4636.0	-4203.0
27	16	46	44	113	120.0	-195683.0	-4552.0	-4246.0
27	16	46	44	114	121.0	-196008.0	-4470.0	-4164.0
27	16	46	44	115	122.0	-196552.0	-4382.0	-4383.0
27	16	46	44	116	123.0	-196884.0	-4311.0	-4442.0
27	16	46	44	116	124.0	-197151.0	-4213.0	-4473.0
27	16	46	44	117	125.0	-197351.0	-4118.0	-4435.0
27	16	46	44	124	126.0	-197898.0	-4021.0	-4294.0
27	16	46	44	125	127.0	-198311.0	-3926.0	-3861.0
27	16	46	44	125	128.0	-199102.0	-3825.0	-3821.0
27	16	46	44	126	129.0	-200436.0	-3721.0	-4328.0
27	16	46	44	147	130.0	-201964.0	-3595.0	-4521.0
27	16	46	44	148	131.0	-203058.0	-3491.0	-4302.0
27	16	46	44	148	132.0	-203734.0	-3396.0	-4789.0
27	16	46	44	170	133.0	-204557.0	-3291.0	-5502.0
27	16	46	44	170	134.0	-205715.0	-3185.0	-5642.0
27	16	46	44	171	135.0	-206542.0	-3041.0	-5262.0
27	16	46	44	172	136.0	-207133.0	-2924.0	-5339.0
27	16	46	44	172	137.0	-207492.0	-2807.0	-5744.0
27	16	46	44	173	138.0	-207490.0	-2676.0	-5941.0
27	16	46	44	173	139.0	-207548.0	-2559.0	-5671.0
27	16	46	44	174	140.0	-207382.0	-2431.0	-5956.0
27	16	46	44	175	141.0	-207079.0	-2304.0	-6228.0
27	16	46	44	175	142.0	-206749.0	-2187.0	-6341.0
27	16	46	44	176	143.0	-206732.0	-2070.0	-6338.0
27	16	46	44	176	144.0	-206769.0	-1942.0	-6684.0
27	16	46	44	177	145.0	-206804.0	-1804.0	-6686.0
27	16	46	44	177	146.0	-206871.0	-1682.0	-6966.0
27	16	46	44	178	147.0	-207193.0	-1571.0	-7122.0
27	16	46	44	179	148.0	-207720.0	-1442.0	-7148.0
27	16	46	44	179	149.0	-208248.0	-1311.0	-7069.0
27	16	46	44	180	150.0	-208544.0	-1176.0	-7221.0
27	16	46	44	180	151.0	-208483.0	-1046.0	-7420.0
27	16	46	44	194	152.0	-207886.0	-942.0	-7394.0
27	16	46	44	194	153.0	-207115.0	-822.0	-7657.0
27	16	46	44	195	154.0	-206581.0	-708.0	-7768.0
27	16	46	44	196	155.0	-206109.0	-584.0	-7604.0
27	16	46	44	196	156.0	-206162.0	-461.0	-7392.0
27	16	46	44	197	157.0	-206723.0	-347.0	-7321.0
27	16	46	44	197	158.0	-207613.0	-244.0	-7467.0
27	16	46	44	198	159.0	-208307.0	-152.0	-7188.0
27	16	46	44	199	160.0	-209154.0	-52.0	-6892.0
27	16	46	44	199	161.0	-210504.0	73.0	-7194.0
27	16	46	44	200	162.0	-211853.0	188.0	-7511.0
27	16	46	44	201	163.0	-213385.0	281.0	-7206.0
27	16	46	44	201	164.0	-215135.0	376.0	-7277.0
27	16	46	44	202	165.0	-216967.0	468.0	-7351.0
27	16	46	44	202	166.0	-218781.0	551.0	-7456.0
27	16	46	44	203	167.0	-219928.0	649.0	-7514.0
27	16	46	44	216	168.0	-220292.0	748.0	-6839.0
27	16	46	44	217	169.0	-220239.0	848.0	-6797.0
27	16	46	44	218	170.0	-219454.0	943.0	-7233.0
27	16	46	44	218	171.0	-217293.0	1004.0	-7101.0
27	16	46	44	219	172.0	-213104.0	1078.0	-7072.0
27	16	46	44	219	173.0	-204716.0	1160.0	-7237.0
27	16	46	44	220	174.0	-190487.0	1251.0	-7624.0
27	16	46	44	220	175.0	-181207.0	1321.0	-7557.0
27	16	46	44	239	176.0	-183274.0	1396.0	-7441.0
27	16	46	44	240	177.0	-188519.0	1471.0	-7243.0
27	16	46	44	241	178.0	-198368.0	1551.0	-7370.0
27	16	46	44	241	179.0	-207557.0	1612.0	-7421.0
27	16	46	44	242	180.0	-212332.0	1680.0	-7260.0
27	16	46	44	243	181.0	-213582.0	1761.0	-7104.0
27	16	46	44	243	182.0	-212251.0	1833.0	-7226.0
27	16	46	44	244	183.0	-209109.0	1882.0	-7580.0
27	16	46	44	245	184.0	-206676.0	1946.0	-7781.0
27	16	46	44	245	185.0	-203461.0	2000.0	-7601.0
27	16	46	44	246	186.0	-199777.0	2062.0	-7708.0
27	16	46	44	246	187.0	-197107.0	2129.0	-7742.0
27	16	46	44	247	188.0	-194883.0	2198.0	-7379.0
27	16	46	44	248	189.0	-193049.0	2242.0	-7351.0
27	16	46	44	248	190.0	-190913.0	2265.0	-7585.0
27	16	46	44	262	191.0	-187392.0	2339.0	-8068.0
27	16	46	44	263	192.0	-183757.0	2386.0	-8107.0
27	16	46	44	263	193.0	-180381.0	2428.0	-8257.0
27	16	46	44	264	194.0	-177371.0	2484.0	-8441.0
27	16	46	44	264	195.0	-176486.0	2524.0	-8244.0
27	16	46	44	265	196.0	-178001.0	2569.0	-8007.0
27	16	46	44	265	197.0	-180467.0	2610.0	-7814.0
27	16	46	44	287	198.0	-183737.0	2664.0	-7331.0
27	16	46	44	288	199.0	-187451.0	2705.0	-7545.0
27	16	46	44	288	200.0	-190654.0	2751.0	-7638.0
27	16	46	44	289	201.0	-193032.0	2778.0	-7962.0
27	16	46	44	290	202.0	-194244.0	2805.0	-7896.0
27	16	46	44	290	203.0	-194267.0	2831.0	-8018.0
27	16	46	44	308	204.0	-193711.0	2879.0	-8131.0
27	16	46	44	309	205.0	-192791.0	2910.0	-8127.0
27	16	46	44	309	206.0	-191454.0	2921.0	-7783.0
27	16	46	44	310	207.0	-190019.0	2958.0	-8085.0
27	16	46	44	311	208.0	-189090.0	2994.0	-7611.0
27	16	46	44	331	209.0	-188613.0	3020.0	-7864.0
27	16	46	44	331	210.0	-188552.0	3030.0	-8075.0
27	16	46	44	332	211.0	-188722.0	3053.0	-7856.0
27	16	46	44	333	212.0	-189255.0	3056.0	-7767.0
27	16	46	44	333	213.0	-189943.0	3060.0	-8024.0
27	16	46	44	334	214.0	-190554.0	3096.0	-7744.0
27	16	46	44	334	215.0	-191372.0	3111.0	-7749.0
27	16	46	44	335	216.0	-192260.0	3129.0	-8044.0
27	16	46	44	335	217.0	-193082.0	3144.0	-8094.0
27	16	46	44	336	218.0	-193798.0	3156.0	-8002.0
27	16	46	44	337	219.0	-194534.0	3151.0	-8216.0
27	16	46	44	337	220.0	-195193.0	3160.0	-8060.0
27	16	46	44	338	221.0	-195687.0	3179.0	-8412.0
27	16	46	44	338	222.0	-196382.0	3177.0	-8417.0
27	16	46	44	339	223.0	-196671.0	3177.0	-8427.0
27	16	46	44	339	226.0	-196844.0	3170.0	-8206.0
27	16	46	44	340	227.0	-196955.0	3178.0	-8062.0
27	16	46	44	341	228.0	-196954.0	3162.0	-7381.0
27	16	46	44	341	229.0	-197309.0	3171.0	-7462.0
27	16	46	44	362	230.0	-198381.0	3163.0	-7383.0
27	16	46	44	384	231.0	-199659.0	3149.0	-7477.0
27	16	46	44	385	232.0	-200731.0	3125.0	-7471.0
27	16	46	44	385	233.0	-201664.0	3119.0	-7814.0
27	16	46	44	386	234.0	-202105.0	3121.0	-8139.0
27	16	46	44	387	235.0	-202497.0	3089.0	-8004.0
27	16	46	44	387	236.0	-203041.0	3061.0	-7793.0
27	16	46	44	388	237.0	-203582.0	3054.0	-7487.0
27	16	46	44	389	238.0	-204162.0	3037.0	-7290.0
27	16	46	44	389	239.0	-205069.0	3034.0	-7227.0
27	16	46	44	390	240.0	-206366.0	2998.0	-7417.0
27	16	46	44	390	241.0	-207735.0	2961.0	-7334.0
27	16	46	44	391	242.0	-209137.0	2912.0	-7504.0
27	16	46	44	391	243.0	-209675.0	2889.0	-7571.0
27	16	46	44	392	244.0	-209997.0	2864.0	-8014.0
27	16	46	44	393	245.0	-209659.0	2841.0	-7671.0
27	16	46	44	393	249.0	-208405.0	2719.0	-7595.0
27	16	46	44	394	0.0	-206179.0	2508.0	-7963.0
27	16	46	44	394	1.0	-206091.0	2481.0	-7801.0
27	16	46	44	407	2.0	-205934.0	2454.0	-7927.0
27	16	46	44	408	3.0	-205562.0	2417.0	-7607.0
27	16	46	44	408	4.0	-204941.0	2383.0	-7541.0
27	16	46	44	409	5.0	-204411.0	2348.0	-7801.0
27	16	46	44	410	6.0	-203691.0	2318.0	-7968.0
27	16	46	44	410	7.0	-203309.0	2300.0	-8025.0
27	16	46	44	411	8.0	-203037.0	2258.0	-8359.0
27	16	46	44	412	9.0	-202730.0	2238.0	-8060.0
27	16	46	44	412	10.0	-202486.0	2211.0	-7687.0
27	16	46	44	413	11.0	-202217.0	2179.0	-7816.0
27	16	46	44	414	12.0	-202075.0	2151.0	-7661.0
27	16	46	44	414	13.0	-201831.0	2123.0	-7174.0
27	16	46	44	429	14.0	-201591.0	2071.0	-7352.0
27	16	46	44	453	15.0	-200979.0	2024.0	-7412.0
27	16	46	44	454	16.0	-200054.0	2001.0	-8045.0
27	16	46	44	455	17.0	-199230.0	1995.0	-8064.0
27	16	46	44	455	18.0	-198778.0	1984.0	-8291.0
27	16	46	44	456	19.0	-198272.0	1939.0	-8390.0
27	16	46	44	457	20.0	-197664.0	1898.0	-8422.0
27	16	46	44	457	21.0	-197112.0	1876.0	-8289.0
27	16	46	44	458	22.0	-196229.0	1850.0	-8282.0
27	16	46	44	458	23.0	-195626.0	1811.0	-8186.0
27	16	46	44	459	24.0	-195353.0	1779.0	-8123.0
27	16	46	44	459	25.0	-194968.0	1754.0	-8334.0
27	16	46	44	460	26.0	-195139.0	1724.0	-8480.0
27	16	46	44	461	27.0	-195575.0	1706.0	-8535.0
27	16	46	44	461	28.0	-196146.0	1691.0	-8392.0
27	16	46	44	462	29.0	-197026.0	1646.0	-8454.0
27	16	46	44	462	30.0	-197682.0	1608.0	-8504.0
27	16	46	44	463	31.0	-197777.0	1590.0	-8547.0
27	16	46	44	464	32.0	-197786.0	1561.0	-8679.0
27	16	46	44	464	33.0	-197989.0	1554.0	-8304.0
27	16	46	44	465	34.0	-198023.0	1539.0	-8444.0
27	16	46	44	465	35.0	-197771.0	1509.0	-8711.0
27	16	46	44	466	36.0	-197409.0	1493.0	-9036.0
27	16	46	44	467	37.0	-197329.0	1468.0	-8989.0
27	16	46	44	467	38.0	-197491.0	1459.0	-9146.0
27	16	46	44	468	39.0	-197260.0	1463.0	-9141.0
27	16	46	44	469	40.0	-196977.0	1421.0	-8752.0
27	16	46	44	470	41.0	-196637.0	1385.0	-8768.0
27	16	46	44	470	42.0	-195972.0	1350.0	-8699.0
27	16	46	44	471	43.0	-195354.0	1336.0	-8534.0
27	16	46	44	472	44.0	-194967.0	1310.0	-8385.0
27	16	46	44	472	45.0	-194886.0	1278.0	-8813.0
27	16	46	44	473	46.0	-194991.0	1246.0	-8564.0
27	16	46	44	474	47.0	-194858.0	1245.0	-8349.0
27	16	46	44	482	48.0	-194716.0	1213.0	-8857.0
27	16	46	44	483	49.0	-194800.0	1204.0	-9333.0
27	16	46	44	484	50.0	-195237.0	1193.0	-9196.0
27	16	46	44	485	51.0	-195752.0	1149.0	-8598.0
27	16	46	44	485	52.0	-195994.0	1121.0	-8834.0
27	16	46	44	486	53.0	-196267.0	1089.0	-9001.0
27	16	46	44	506	54.0	-196912.0	1067.0	-8646.0
27	16	46	44	530	55.0	-197822.0	1056.0	-8475.0
27	16	46	44	531	56.0	-198427.0	1044.0	-8464.0
27	16	46	44	531	57.0	-198874.0	1003.0	-8519.0
27	16	46	44	532	58.0	-199174.0	992.0	-8499.0
27	16	46	44	533	59.0	-199614.0	961.0	-8577.0
27	16	46	44	533	60.0	-200081.0	918.0	-8476.0
27	16	46	44	534	61.0	-200591.0	893.0	-8733.0
27	16	46	44	534	62.0	-201611.0	868.0	-8381.0
27	16	46	44	535	63.0	-202454.0	848.0	-8305.0
27	16	46	44	535	64.0	-203172.0	812.0	-8407.0
27	16	46	44	536	65.0	-203907.0	799.0	-8422.0
27	16	46	44	537	66.0	-204554.0	788.0	-8422.0
27	16	46	44	537	67.0	-204952.0	750.0	-8752.0
27	16	46	44	538	68.0	-205727.0	721.0	-8823.0
27	16	46	44	538	69.0	-206224.0	699.0	-8676.0
27	16	46	44	539	70.0	-206692.0	670.0	-8320.0
27	16	46	44	540	71.0	-206841.0	653.0	-8031.0
27	16	46	44	540	72.0	-206624.0	645.0	-8427.0
27	16	46	44	541	73.0	-206388.0	626.0	-8246.0
27	16	46	44	542	74.0	-206125.0	591.0	-7968.0
27	16	46	44	542	75.0	-205776.0	556.0	-7910.0
27	16	46	44	543	76.0	-205300.0	531.0	-8191.0
27	16	46	44	544	77.0	-204824.0	494.0	-8449.0
27	16	46	44	544	78.0	-204498.0	460.0	-8982.0
27	16	46	44	546	79.0	-203982.0	427.0	-8567.0
27	16	46	44	546	80.0	-203452.0	397.0	-7971.0
27	16	46	44	547	81.0	-203494.0	379.0	-7958.0
27	16	46	44	548	82.0	-203774.0	343.0	-8364.0
27	16	46	44	548	83.0	-203542.0	293.0	-8084.0
27	16	46	44	549	84.0	-203175.0	261.0	-7650.0
27	16	46	44	557	85.0	-202751.0	229.0	-8063.0
27	16	46	44	558	86.0	-202347.0	188.0	-8248.0
27	16	46	44	588	87.0	-202113.0	154.0	-7957.0
27	16	46	44	589	88.0	-201774.0	134.0	-7966.0
27	16	46	44	589	89.0	-201134.0	109.0	-8469.0
27	16	46	44	590	90.0	-200172.0	75.0	-8535.0
27	16	46	44	590	91.0	-199233.0	53.0	-8393.0
27	16	46	44	591	92.0	-198297.0	8.0	-8234.0
27	16	46	44	592	93.0	-197349.0	-52.0	-8266.0
27	16	46	44	592	94.0	-196696.0	-92.0	-8431.0
27	16	46	44	618	95.0	-196274.0	-134.0	-8622.0
27	16	46	44	618	96.0	-195834.0	-176.0	-8570.0
27	16	46	44	619	97.0	-196236.0	-196.0	-8437.0
27	16	46	44	620	98.0	-197233.0	-219.0	-9109.0
27	16	46	44	620	99.0	-198341.0	-264.0	-9652.0
27	16	46	44	621	100.0	-199337.0	-305.0	-10009.0
27	16	46	44	621	101.0	-200419.0	-354.0	-10836.0
27	16	46	44	622	102.0	-201971.0	-372.0	-11236.0
27	16	46	44	623	106.0	-209422.0	-575.0	-12573.0
27	16	46	44	623	107.0	-210220.0	-596.0	-10492.0
27	16	46	44	624	108.0	-210509.0	-632.0	-6412.0
27	16	46	44	624	109.0	-210584.0	-675.0	-1584.0
27	16	46	44	625	110.0	-210541.0	-719.0	2435.0
27	16	46	44	626	111.0	-209804.0	-749.0	7081.0
27	16	46	44	626	112.0	-207896.0	-791.0	11159.0
27	16	46	44	627	113.0	-204702.0	-857.0	13816.0
27	16	46	44	627	120.0	-176301.0	-1147.0	8956.0
27	16	46	44	628	121.0	-175851.0	-1190.0	7747.0
27	16	46	44	636	122.0	-176842.0	-1235.0	5814.0
27	16	46	44	637	123.0	-179485.0	-1266.0	4020.0
27	16	46	44	637	124.0	-183457.0	-1313.0	2553.0
27	16	46	44	638	125.0	-188282.0	-1351.0	1761.0
27	16	46	44	638	126.0	-193412.0	-1412.0	801.0
27	16	46	44	639	127.0	-198458.0	-1436.0	-507.0
27	16	46	44	640	128.0	-202999.0	-1472.0	-1503.0
27	16	46	44	662	129.0	-206723.0	-1519.0	-2587.0
27	16	46	44	663	130.0	-209056.0	-1546.0	-3816.0
27	16	46	44	664	131.0	-210186.0	-1576.0	-4835.0
27	16	46	44	664	132.0	-209819.0	-1623.0	-5477.0
27	16	46	44	665	133.0	-200213.0	-1683.0	-5850.0
27	16	46	44	666	134.0	-181942.0	-1742.0	-6604.0
27	16	46	44	666	135.0	-163045.0	-1791.0	-7147.0
27	16	46	44	667	136.0	-152054.0	-1817.0	-7233.0
27	16	46	44	667	137.0	-151631.0	-1865.0	-7584.0
27	16	46	44	668	138.0	-158932.0	-1894.0	-8017.0
27	16	46	44	669	139.0	-170886.0	-1940.0	-8266.0
27	16	46	44	669	140.0	-184560.0	-2002.0	-7942.0
27	16	46	44	670	141.0	-196086.0	-2050.0	-7727.0
27	16	46	44	670	142.0	-204132.0	-2096.0	-7727.0
27	16	46	44	671	143.0	-208248.0	-2153.0	-8084.0
27	16	46	44	682	144.0	-208825.0	-2181.0	-7834.0
27	16	46	44	683	145.0	-208616.0	-2214.0	-7986.0
27	16	46	44	684	146.0	-209657.0	-2243.0	-8256.0
27	16	46	44	684	147.0	-208836.0	-2291.0	-8555.0
27	16	46	44	685	148.0	-203989.0	-2322.0	-8575.0
27	16	46	44	707	149.0	-196917.0	-2366.0	-8486.0
27	16	46	44	707	150.0	-191881.0	-2407.0	-8515.0
27	16	46	44	708	151.0	-190556.0	-2461.0	-8642.0
27	16	46	44	709	152.0	-193162.0	-2495.0	-8543.0
27	16	46	44	709	153.0	-195170.0	-2541.0	-8257.0
27	16	46	44	710	154.0	-198721.0	-2581.0	-8030.0
27	16	46	44	710	155.0	-203679.0	-2626.0	-8106.0
27	16	46	44	711	156.0	-208696.0	-2677.0	-8234.0
27	16	46	44	711	157.0	-213195.0	-2728.0	-8382.0
27	16	46	44	712	158.0	-215042.0	-2766.0	-8416.0
27	16	46	44	713	159.0	-214796.0	-2796.0	-8511.0
27	16	46	44	713	160.0	-214252.0	-2826.0	-8629.0
27	16	46	44	714	161.0	-213546.0	-2869.0	-8814.0
27	16	46	44	714	162.0	-213078.0	-2894.0	-8562.0
27	16	46	44	715	163.0	-212195.0	-2941.0	-8677.0
27	16	46	44	715	164.0	-211110.0	-2988.0	-8819.0
27	16	46	44	716	165.0	-210849.0	-3037.0	-8656.0
27	16	46	44	730	166.0	-211611.0	-3076.0	-8989.0
27	16	46	44	731	167.0	-212725.0	-3114.0	-9251.0
