28	17	53	44	990	175.0	-218295.0	12198.0	317531.0
28	17	53	44	992	176.0	-221648.0	12156.0	316639.0
28	17	53	44	995	177.0	-224924.0	12117.0	311471.0
28	17	53	44	997	178.0	-228206.0	12051.0	299206.0
28	17	53	44	999	179.0	-232207.0	11986.0	282229.0
28	17	53	45	14	180.0	-236164.0	11912.0	265300.0
28	17	53	45	14	181.0	-239680.0	11848.0	253963.0
28	17	53	45	15	182.0	-243754.0	11777.0	256288.0
28	17	53	45	16	183.0	-247906.0	11721.0	269653.0
28	17	53	45	16	184.0	-252978.0	11659.0	285921.0
28	17	53	45	17	185.0	-258201.0	11595.0	291318.0
28	17	53	45	17	186.0	-263727.0	11538.0	286865.0
28	17	53	45	18	187.0	-269642.0	11488.0	279921.0
28	17	53	45	19	188.0	-275382.0	11428.0	266014.0
28	17	53	45	19	189.0	-280656.0	11377.0	251009.0
28	17	53	45	20	190.0	-285741.0	11323.0	235429.0
28	17	53	45	20	191.0	-290907.0	11246.0	225359.0
28	17	53	45	21	192.0	-295632.0	11181.0	229736.0
28	17	53	45	21	193.0	-300249.0	11104.0	247697.0
28	17	53	45	22	194.0	-304708.0	11053.0	268816.0
28	17	53	45	42	195.0	-308831.0	11010.0	277304.0
28	17	53	45	42	196.0	-312620.0	10953.0	273278.0
28	17	53	45	43	197.0	-315218.0	10926.0	264169.0
28	17	53	45	77	198.0	-317338.0	10881.0	248166.0
28	17	53	45	122	199.0	-319349.0	10841.0	228901.0
28	17	53	45	123	200.0	-320562.0	10791.0	212014.0
28	17	53	45	124	201.0	-321702.0	10734.0	203049.0
28	17	53	45	124	202.0	-320929.0	10679.0	206918.0
28	17	53	45	125	203.0	-318331.0	10598.0	220541.0
28	17	53	45	126	204.0	-313937.0	10548.0	235231.0
28	17	53	45	126	205.0	-306976.0	10532.0	241114.0
28	17	53	45	127	206.0	-297369.0	10488.0	238274.0
28	17	53	45	127	207.0	-286076.0	10444.0	232439.0
28	17	53	45	128	208.0	-274325.0	10410.0	220055.0
28	17	53	45	128	209.0	-264337.0	10378.0	207089.0
28	17	53	45	129	210.0	-256787.0	10348.0	195453.0
28	17	53	45	129	211.0	-250859.0	10308.0	187901.0
28	17	53	45	130	212.0	-248275.0	10258.0	192332.0
28	17	53	45	131	224.0	-225754.0	9946.0	214854.0
28	17	53	45	131	246.0	-314191.0	9554.0	139590.0
28	17	53	45	132	247.0	-314759.0	9541.0	125358.0
28	17	53	45	133	248.0	-311546.0	9539.0	106567.0
28	17	53	45	134	249.0	-308836.0	9540.0	90321.0
28	17	53	45	135	250.0	-305552.0	9544.0	75650.0
28	17	53	45	135	251.0	-301234.0	9526.0	67080.0
28	17	53	45	167	252.0	-299750.0	9521.0	68689.0
28	17	53	45	168	253.0	-299991.0	9503.0	77466.0
28	17	53	45	168	254.0	-298672.0	9503.0	84062.0
28	17	53	45	169	255.0	-299802.0	9513.0	82409.0
28	17	53	45	170	0.0	-301819.0	9504.0	75643.0
28	17	53	45	170	1.0	-301310.0	9518.0	65725.0
28	17	53	45	171	2.0	-301455.0	9528.0	51399.0
28	17	53	45	171	3.0	-302394.0	9532.0	37416.0
28	17	53	45	172	4.0	-301999.0	9501.0	22910.0
28	17	53	45	172	5.0	-301680.0	9489.0	13011.0
28	17	53	45	173	6.0	-301109.0	9483.0	15260.0
28	17	53	45	174	7.0	-299296.0	9456.0	24397.0
28	17	53	45	174	8.0	-297742.0	9469.0	31607.0
28	17	53	45	175	9.0	-295913.0	9469.0	30253.0
28	17	53	45	175	10.0	-293314.0	9458.0	24006.0
28	17	53	45	176	12.0	-285391.0	9478.0	-89.0
28	17	53	45	177	13.0	-279956.0	9483.0	-12209.0
28	17	53	45	177	14.0	-274129.0	9478.0	-23952.0
28	17	53	45	178	15.0	-268902.0	9456.0	-31507.0
28	17	53	45	178	16.0	-263590.0	9443.0	-28330.0
28	17	53	45	179	17.0	-257640.0	9413.0	-18129.0
28	17	53	45	179	18.0	-251815.0	9417.0	-11129.0
28	17	53	45	213	19.0	-245641.0	9416.0	-12907.0
28	17	53	45	213	20.0	-239830.0	9417.0	-18949.0
28	17	53	45	214	21.0	-234189.0	9396.0	-29724.0
28	17	53	45	214	22.0	-229872.0	9391.0	-43246.0
28	17	53	45	215	23.0	-225409.0	9369.0	-54267.0
28	17	53	45	216	24.0	-221807.0	9336.0	-64261.0
28	17	53	45	216	25.0	-218497.0	9312.0	-68642.0
28	17	53	45	217	26.0	-215326.0	9273.0	-63514.0
28	17	53	45	217	27.0	-213069.0	9251.0	-52726.0
28	17	53	45	218	28.0	-212999.0	9238.0	-46009.0
28	17	53	45	219	29.0	-212777.0	9218.0	-47810.0
28	17	53	45	219	30.0	-213814.0	9198.0	-52679.0
28	17	53	45	220	31.0	-216614.0	9179.0	-61678.0
28	17	53	45	220	32.0	-220051.0	9144.0	-73514.0
28	17	53	45	221	33.0	-224119.0	9121.0	-83571.0
28	17	53	45	222	35.0	-233555.0	9041.0	-96789.0
28	17	53	45	222	36.0	-237511.0	9017.0	-90891.0
28	17	53	45	223	37.0	-241542.0	8984.0	-80039.0
28	17	53	45	223	38.0	-244633.0	8947.0	-72587.0
28	17	53	45	224	39.0	-247869.0	8928.0	-73378.0
28	17	53	45	224	40.0	-249901.0	8930.0	-77294.0
28	17	53	45	225	41.0	-249810.0	8919.0	-85486.0
28	17	53	45	258	42.0	-251512.0	8896.0	-97232.0
28	17	53	45	259	43.0	-252852.0	8884.0	-107268.0
28	17	53	45	260	44.0	-252543.0	8861.0	-116463.0
28	17	53	45	260	45.0	-252987.0	8822.0	-118869.0
28	17	53	45	261	46.0	-252918.0	8798.0	-113021.0
28	17	53	45	262	47.0	-251932.0	8794.0	-101427.0
28	17	53	45	262	48.0	-252796.0	8791.0	-93053.0
28	17	53	45	263	49.0	-253389.0	8802.0	-93276.0
28	17	53	45	263	50.0	-253969.0	8790.0	-95557.0
28	17	53	45	264	51.0	-254332.0	8806.0	-101445.0
28	17	53	45	264	52.0	-254906.0	8808.0	-110502.0
28	17	53	45	265	53.0	-256789.0	8817.0	-119026.0
28	17	53	45	266	54.0	-262094.0	8830.0	-127785.0
28	17	53	45	266	55.0	-266166.0	8846.0	-129741.0
28	17	53	45	267	56.0	-268722.0	8829.0	-123112.0
28	17	53	45	267	57.0	-272134.0	8850.0	-111264.0
28	17	53	45	268	58.0	-273986.0	8857.0	-102889.0
28	17	53	45	269	59.0	-274504.0	8903.0	-103192.0
28	17	53	45	269	60.0	-274569.0	8953.0	-106622.0
28	17	53	45	270	61.0	-273042.0	8981.0	-112054.0
28	17	53	45	270	62.0	-271526.0	8997.0	-119717.0
28	17	53	45	271	63.0	-271457.0	9055.0	-125776.0
28	17	53	45	348	64.0	-271791.0	9096.0	-130726.0
28	17	53	45	349	65.0	-273573.0	9119.0	-128842.0
28	17	53	45	349	66.0	-275934.0	9144.0	-120869.0
28	17	53	45	350	67.0	-295311.0	9167.0	-110852.0
28	17	53	45	350	68.0	-301485.0	9331.0	-107910.0
28	17	53	45	351	69.0	-285697.0	9518.0	-109415.0
28	17	53	45	352	70.0	-270646.0	9688.0	-111551.0
28	17	53	45	352	71.0	-261523.0	9847.0	-119271.0
28	17	53	45	353	72.0	-259429.0	10011.0	-130534.0
28	17	53	45	353	73.0	-259391.0	10164.0	-139863.0
28	17	53	45	354	74.0	-258538.0	10326.0	-148232.0
28	17	53	45	355	75.0	-259401.0	10450.0	-147693.0
28	17	53	45	355	76.0	-263345.0	10579.0	-138276.0
28	17	53	45	356	77.0	-269404.0	10718.0	-125080.0
28	17	53	45	356	78.0	-275476.0	10881.0	-106800.0
28	17	53	45	357	102.0	-291197.0	13649.0	-266010.0
28	17	53	45	358	103.0	-284847.0	13726.0	-277428.0
28	17	53	45	358	104.0	-279237.0	13826.0	-287969.0
28	17	53	45	359	105.0	-272134.0	13907.0	-292746.0
28	17	53	45	359	106.0	-267259.0	13995.0	-290140.0
28	17	53	45	360	107.0	-268581.0	14076.0	-285371.0
28	17	53	45	360	108.0	-288526.0	14204.0	-287174.0
28	17	53	45	393	109.0	-296967.0	14395.0	-296542.0
28	17	53	45	394	110.0	-281589.0	14677.0	-308002.0
28	17	53	45	394	111.0	-261747.0	14955.0	-320540.0
28	17	53	45	395	112.0	-257949.0	15221.0	-333821.0
28	17	53	45	395	113.0	-265932.0	15485.0	-347107.0
28	17	53	45	396	114.0	-275326.0	15735.0	-359988.0
28	17	53	45	397	115.0	-284249.0	15967.0	-367738.0
28	17	53	45	397	116.0	-292222.0	16211.0	-369037.0
28	17	53	45	398	117.0	-300851.0	16436.0	-368102.0
28	17	53	45	399	118.0	-310663.0	16668.0	-371992.0
28	17	53	45	399	119.0	-319463.0	16889.0	-381823.0
28	17	53	45	400	120.0	-327708.0	17129.0	-394611.0
28	17	53	45	400	121.0	-336193.0	17343.0	-410477.0
28	17	53	45	401	122.0	-343930.0	17541.0	-425700.0
28	17	53	45	402	123.0	-348653.0	17737.0	-439748.0
28	17	53	45	402	125.0	-348587.0	18118.0	-460603.0
28	17	53	45	403	126.0	-344000.0	18288.0	-462104.0
28	17	53	45	403	127.0	-340024.0	18483.0	-460074.0
28	17	53	45	404	128.0	-337452.0	18666.0	-462476.0
28	17	53	45	404	129.0	-337214.0	18828.0	-471206.0
28	17	53	45	405	130.0	-339512.0	19031.0	-481277.0
28	17	53	45	437	131.0	-344717.0	19221.0	-494584.0
28	17	53	45	438	132.0	-350974.0	19398.0	-508189.0
28	17	53	45	438	133.0	-359256.0	19548.0	-519728.0
28	17	53	45	439	134.0	-366411.0	19677.0	-531556.0
28	17	53	45	440	135.0	-371239.0	19811.0	-538139.0
28	17	53	45	440	136.0	-374620.0	19934.0	-539672.0
28	17	53	45	441	137.0	-374760.0	20069.0	-540007.0
28	17	53	45	441	138.0	-372554.0	20233.0	-543978.0
28	17	53	45	442	139.0	-369789.0	20392.0	-551662.0
28	17	53	45	443	140.0	-363987.0	20511.0	-561583.0
28	17	53	45	443	141.0	-358540.0	20635.0	-573992.0
28	17	53	45	444	142.0	-352615.0	20758.0	-586247.0
28	17	53	45	444	143.0	-345887.0	20901.0	-597679.0
28	17	53	45	445	144.0	-339855.0	21022.0	-607855.0
28	17	53	45	446	145.0	-333749.0	21122.0	-614701.0
28	17	53	45	446	147.0	-324368.0	21328.0	-622051.0
28	17	53	45	447	148.0	-318842.0	21439.0	-629019.0
28	17	53	45	447	149.0	-313730.0	21553.0	-639430.0
28	17	53	45	448	150.0	-309857.0	21671.0	-650594.0
28	17	53	45	449	151.0	-305012.0	21781.0	-662955.0
28	17	53	45	449	152.0	-299964.0	21884.0	-675845.0
28	17	53	45	483	153.0	-294476.0	21983.0	-688209.0
28	17	53	45	483	154.0	-288456.0	22077.0	-698129.0
28	17	53	45	484	155.0	-284679.0	22154.0	-704279.0
28	17	53	45	485	156.0	-281161.0	22236.0	-705782.0
28	17	53	45	485	157.0	-277609.0	22322.0	-706109.0
28	17	53	45	486	158.0	-273986.0	22394.0	-709724.0
28	17	53	45	487	159.0	-270046.0	22490.0	-715938.0
28	17	53	45	487	160.0	-265432.0	22592.0	-721857.0
28	17	53	45	488	161.0	-260249.0	22681.0	-729246.0
28	17	53	45	488	162.0	-254549.0	22739.0	-737184.0
28	17	53	45	489	163.0	-249971.0	22818.0	-744804.0
28	17	53	45	490	164.0	-245636.0	22883.0	-750907.0
28	17	53	45	490	165.0	-241057.0	22948.0	-752952.0
28	17	53	45	491	166.0	-235718.0	23020.0	-751557.0
28	17	53	45	491	167.0	-229557.0	23094.0	-750309.0
28	17	53	45	492	169.0	-212109.0	23234.0	-756837.0
28	17	53	45	493	170.0	-201941.0	23297.0	-761644.0
28	17	53	45	493	171.0	-191049.0	23358.0	-766984.0
28	17	53	45	494	172.0	-180086.0	23433.0	-771556.0
28	17	53	45	494	173.0	-170682.0	23499.0	-776183.0
28	17	53	45	495	174.0	-161618.0	23544.0	-779351.0
28	17	53	45	496	175.0	-155378.0	23581.0	-779681.0
28	17	53	45	573	176.0	-149637.0	23623.0	-777627.0
28	17	53	45	574	177.0	-146182.0	23673.0	-776484.0
28	17	53	45	575	178.0	-144143.0	23750.0	-778035.0
28	17	53	45	575	179.0	-143448.0	23805.0	-781864.0
28	17	53	45	576	180.0	-144130.0	23829.0	-786493.0
28	17	53	45	577	181.0	-152416.0	23879.0	-791649.0
28	17	53	45	577	182.0	-168507.0	24023.0	-797182.0
28	17	53	45	578	183.0	-160082.0	24242.0	-801726.0
28	17	53	45	579	184.0	-134170.0	24458.0	-805643.0
28	17	53	45	579	185.0	-123833.0	24657.0	-806548.0
28	17	53	45	580	186.0	-130747.0	24866.0	-805655.0
28	17	53	45	580	187.0	-141232.0	25075.0	-804614.0
28	17	53	45	581	188.0	-151004.0	25284.0	-805185.0
28	17	53	45	582	189.0	-162847.0	25479.0	-807486.0
28	17	53	45	582	190.0	-175452.0	25654.0	-810211.0
28	17	53	45	583	214.0	-192122.0	28178.0	-846249.0
28	17	53	45	583	215.0	-189693.0	28218.0	-845561.0
28	17	53	45	584	216.0	-187033.0	28258.0	-843032.0
28	17	53	45	584	217.0	-183356.0	28307.0	-841403.0
28	17	53	45	585	218.0	-179269.0	28384.0	-841630.0
28	17	53	45	586	219.0	-174534.0	28425.0	-842586.0
28	17	53	45	586	220.0	-170647.0	28454.0	-843804.0
28	17	53	45	618	221.0	-167676.0	28493.0	-845213.0
28	17	53	45	619	222.0	-165255.0	28537.0	-846944.0
28	17	53	45	619	223.0	-161769.0	28584.0	-848193.0
28	17	53	45	620	224.0	-159302.0	28623.0	-849280.0
28	17	53	45	620	225.0	-156564.0	28620.0	-847856.0
28	17	53	45	621	226.0	-152877.0	28641.0	-845559.0
28	17	53	45	622	227.0	-151536.0	28664.0	-843909.0
28	17	53	45	622	228.0	-150097.0	28688.0	-843957.0
28	17	53	45	623	229.0	-150247.0	28721.0	-844509.0
28	17	53	45	624	230.0	-151646.0	28743.0	-845002.0
28	17	53	45	624	231.0	-154037.0	28761.0	-846709.0
28	17	53	45	625	232.0	-156161.0	28778.0	-848016.0
28	17	53	45	625	233.0	-159561.0	28780.0	-849237.0
28	17	53	45	626	234.0	-160526.0	28762.0	-849390.0
28	17	53	45	627	235.0	-160252.0	28752.0	-847687.0
28	17	53	45	627	237.0	-158675.0	28748.0	-842269.0
28	17	53	45	628	238.0	-155181.0	28761.0	-841514.0
28	17	53	45	628	239.0	-148643.0	28739.0	-841362.0
28	17	53	45	629	240.0	-140501.0	28740.0	-841952.0
28	17	53	45	630	241.0	-131712.0	28750.0	-843303.0
28	17	53	45	630	242.0	-123361.0	28736.0	-844465.0
28	17	53	45	662	243.0	-111912.0	28739.0	-844839.0
28	17	53	45	662	244.0	-101736.0	28714.0	-844449.0
28	17	53	45	663	245.0	-91887.0	28718.0	-842743.0
28	17	53	45	664	246.0	-80122.0	28706.0	-839994.0
28	17	53	45	664	247.0	-68967.0	28681.0	-837696.0
28	17	53	45	665	248.0	-58148.0	28663.0	-837272.0
28	17	53	45	666	249.0	-51953.0	28658.0	-837713.0
28	17	53	45	666	250.0	-49856.0	28649.0	-838039.0
28	17	53	45	667	251.0	-48068.0	28643.0	-838420.0
28	17	53	45	668	252.0	-46344.0	28649.0	-838826.0
28	17	53	45	668	253.0	-46583.0	28612.0	-839784.0
28	17	53	45	669	254.0	-47924.0	28589.0	-839354.0
28	17	53	45	669	255.0	-50569.0	28570.0	-837389.0
28	17	53	45	670	0.0	-55400.0	28526.0	-834411.0
28	17	53	45	671	1.0	-63251.0	28501.0	-832234.0
28	17	53	45	672	3.0	-85611.0	28467.0	-830739.0
28	17	53	45	672	4.0	-98364.0	28456.0	-830862.0
28	17	53	45	673	5.0	-111211.0	28447.0	-831561.0
28	17	53	45	674	6.0	-123052.0	28409.0	-832674.0
28	17	53	45	674	7.0	-132287.0	28393.0	-832872.0
28	17	53	45	675	8.0	-140918.0	28341.0	-832074.0
28	17	53	45	675	9.0	-147240.0	28299.0	-830871.0
28	17	53	45	707	10.0	-152771.0	28241.0	-828122.0
28	17	53	45	708	11.0	-155316.0	28206.0	-825799.0
28	17	53	45	709	12.0	-157981.0	28173.0	-825282.0
28	17	53	45	710	13.0	-156992.0	28134.0	-825307.0
28	17	53	45	710	14.0	-156285.0	28077.0	-825332.0
28	17	53	45	711	15.0	-152317.0	28040.0	-825797.0
28	17	53	45	711	16.0	-149338.0	27998.0	-826332.0
28	17	53	45	712	17.0	-144867.0	27950.0	-826748.0
28	17	53	45	713	18.0	-143519.0	27878.0	-826199.0
28	17	53	45	714	19.0	-140383.0	27811.0	-824505.0
28	17	53	45	714	20.0	-138679.0	27751.0	-822658.0
28	17	53	45	715	21.0	-134542.0	27682.0	-820584.0
28	17	53	45	716	22.0	-131896.0	27615.0	-820086.0
28	17	53	45	716	23.0	-127767.0	27583.0	-821042.0
28	17	53	45	717	24.0	-126089.0	27529.0	-823034.0
28	17	53	45	718	26.0	-117107.0	27382.0	-827397.0
28	17	53	45	718	27.0	-113451.0	27311.0	-828859.0
28	17	53	45	719	28.0	-108414.0	27231.0	-828766.0
28	17	53	45	719	29.0	-105164.0	27122.0	-826926.0
28	17	53	45	720	30.0	-100262.0	27021.0	-824371.0
28	17	53	45	720	31.0	-98321.0	26953.0	-822792.0
28	17	53	45	752	32.0	-94996.0	26896.0	-822252.0
28	17	53	45	797	33.0	-94921.0	26828.0	-819971.0
28	17	53	45	798	34.0	-92392.0	26746.0	-816631.0
28	17	53	45	799	35.0	-95645.0	26656.0	-813584.0
28	17	53	45	800	36.0	-96116.0	26534.0	-810983.0
28	17	53	45	802	37.0	-99734.0	26477.0	-808349.0
28	17	53	45	803	38.0	-102345.0	26388.0	-803647.0
28	17	53	45	803	39.0	-105661.0	26268.0	-798960.0
28	17	53	45	804	40.0	-109777.0	26165.0	-795395.0
28	17	53	45	805	41.0	-115866.0	26085.0	-793339.0
28	17	53	45	805	42.0	-121762.0	26009.0	-794169.0
28	17	53	45	806	43.0	-126711.0	25918.0	-796950.0
28	17	53	45	807	44.0	-130491.0	25825.0	-799661.0
28	17	53	45	807	45.0	-131334.0	25752.0	-801584.0
28	17	53	45	808	46.0	-131166.0	25652.0	-803017.0
28	17	53	45	809	48.0	-131823.0	25448.0	-803740.0
28	17	53	45	809	49.0	-130486.0	25329.0	-802461.0
28	17	53	45	810	71.0	-70677.0	23313.0	-784011.0
28	17	53	45	811	72.0	-65079.0	23234.0	-783349.0
28	17	53	45	811	73.0	-63229.0	23157.0	-783017.0
28	17	53	45	812	74.0	-64258.0	23069.0	-783272.0
28	17	53	45	812	75.0	-65446.0	23004.0	-784146.0
28	17	53	45	813	76.0	-67546.0	22930.0	-784845.0
28	17	53	45	843	77.0	-69596.0	22838.0	-784987.0
28	17	53	45	844	78.0	-71216.0	22739.0	-784271.0
28	17	53	45	845	79.0	-72471.0	22631.0	-782382.0
28	17	53	45	846	80.0	-72829.0	22550.0	-779850.0
28	17	53	45	846	81.0	-71201.0	22472.0	-778259.0
28	17	53	45	847	82.0	-69187.0	22391.0	-777839.0
28	17	53	45	847	83.0	-65826.0	22305.0	-778286.0
28	17	53	45	848	84.0	-63383.0	22216.0	-778842.0
28	17	53	45	849	85.0	-60243.0	22159.0	-779324.0
28	17	53	45	849	86.0	-56053.0	22089.0	-779878.0
28	17	53	45	850	87.0	-52089.0	22001.0	-780177.0
28	17	53	45	850	88.0	-47582.0	21904.0	-779212.0
28	17	53	45	851	89.0	-42147.0	21809.0	-776891.0
28	17	53	45	888	90.0	-37634.0	21723.0	-774683.0
28	17	53	45	889	91.0	-32834.0	21633.0	-773807.0
28	17	53	45	889	93.0	-26804.0	21481.0	-772847.0
28	17	53	45	890	94.0	-26651.0	21392.0	-773443.0
28	17	53	45	890	95.0	-28682.0	21319.0	-774294.0
28	17	53	45	891	96.0	-33459.0	21234.0	-774642.0
28	17	53	45	892	97.0	-40666.0	21144.0	-775062.0
28	17	53	45	892	98.0	-50109.0	21058.0	-774016.0
28	17	53	45	893	99.0	-60516.0	20977.0	-770942.0
28	17	53	45	893	100.0	-71417.0	20868.0	-768334.0
28	17	53	45	894	101.0	-83638.0	20788.0	-767773.0
28	17	53	45	894	102.0	-96169.0	20713.0	-767426.0
28	17	53	45	895	103.0	-107948.0	20622.0	-767539.0
28	17	53	45	895	104.0	-119526.0	20534.0	-768277.0
28	17	53	45	896	105.0	-129420.0	20448.0	-769426.0
28	17	53	45	897	106.0	-138437.0	20347.0	-769339.0
28	17	53	45	897	116.0	-138872.0	19260.0	-763364.0
28	17	53	45	898	117.0	-131536.0	19156.0	-763396.0
28	17	53	45	898	118.0	-125163.0	19046.0	-762239.0
28	17	53	45	899	119.0	-119582.0	18894.0	-759833.0
28	17	53	45	899	120.0	-114673.0	18805.0	-757485.0
28	17	53	45	900	121.0	-110570.0	18707.0	-756803.0
28	17	53	45	932	122.0	-107999.0	18601.0	-756643.0
28	17	53	45	933	123.0	-107201.0	18503.0	-756421.0
28	17	53	45	935	124.0	-107729.0	18404.0	-757156.0
28	17	53	45	935	125.0	-110292.0	18291.0	-757944.0
28	17	53	45	949	126.0	-113789.0	18181.0	-758438.0
28	17	53	45	950	127.0	-116607.0	18053.0	-758544.0
28	17	53	45	951	128.0	-117718.0	17939.0	-757493.0
28	17	53	45	951	129.0	-119693.0	17824.0	-755447.0
28	17	53	45	952	130.0	-119719.0	17722.0	-753377.0
28	17	53	45	952	131.0	-123141.0	17623.0	-751993.0
28	17	53	45	953	132.0	-126836.0	17511.0	-751561.0
28	17	53	45	953	133.0	-132766.0	17413.0	-751507.0
28	17	53	45	954	134.0	-139252.0	17313.0	-752241.0
28	17	53	45	954	135.0	-146724.0	17204.0	-753492.0
28	17	53	45	955	136.0	-154073.0	17076.0	-754203.0
28	17	53	45	955	138.0	-164251.0	16848.0	-753833.0
28	17	53	45	956	139.0	-166501.0	16747.0	-752255.0
28	17	53	45	956	140.0	-166224.0	16666.0	-749797.0
28	17	53	45	957	141.0	-164908.0	16596.0	-748082.0
28	17	53	45	958	142.0	-163624.0	16508.0	-747802.0
28	17	53	45	958	143.0	-161696.0	16431.0	-747779.0
28	17	53	46	23	144.0	-159269.0	16362.0	-748234.0
28	17	53	46	23	145.0	-157373.0	16283.0	-749092.0
28	17	53	46	24	146.0	-154287.0	16211.0	-749769.0
28	17	53	46	25	147.0	-152481.0	16140.0	-749732.0
28	17	53	46	25	148.0	-150131.0	16035.0	-748539.0
28	17	53	46	26	149.0	-147221.0	15966.0	-746041.0
28	17	53	46	27	150.0	-143832.0	15899.0	-743704.0
28	17	53	46	27	151.0	-140025.0	15858.0	-742369.0
28	17	53	46	28	152.0	-136045.0	15803.0	-741977.0
28	17	53	46	28	153.0	-133959.0	15750.0	-741988.0
28	17	53	46	29	154.0	-131778.0	15699.0	-742556.0
28	17	53	46	29	155.0	-130866.0	15657.0	-743278.0
28	17	53	46	30	156.0	-130669.0	15638.0	-743782.0
28	17	53	46	31	157.0	-129914.0	15588.0	-743944.0
28	17	53	46	31	158.0	-129915.0	15543.0	-742254.0
28	17	53	46	32	183.0	-160524.0	15439.0	-710737.0
28	17	53	46	32	184.0	-169925.0	15447.0	-711018.0
28	17	53	46	33	185.0	-177194.0	15458.0	-711009.0
28	17	53	46	34	186.0	-183211.0	15468.0	-711646.0
28	17	53	46	34	187.0	-188316.0	15483.0	-711387.0
28	17	53	46	35	188.0	-191325.0	15461.0	-709387.0
28	17	53	46	68	189.0	-193829.0	15451.0	-706492.0
28	17	53	46	69	190.0	-195682.0	15453.0	-703821.0
28	17	53	46	70	191.0	-198854.0	15475.0	-702747.0
28	17	53	46	112	192.0	-204647.0	15487.0	-702403.0
28	17	53	46	113	193.0	-210022.0	15489.0	-702801.0
28	17	53	46	113	194.0	-214635.0	15503.0	-703316.0
28	17	53	46	114	195.0	-217279.0	15499.0	-703707.0
28	17	53	46	114	196.0	-218166.0	15496.0	-704145.0
28	17	53	46	115	197.0	-218572.0	15487.0	-704698.0
28	17	53	46	116	198.0	-218532.0	15463.0	-703009.0
28	17	53	46	116	199.0	-216832.0	15464.0	-700019.0
28	17	53	46	117	200.0	-213424.0	15475.0	-697710.0
28	17	53	46	117	201.0	-206296.0	15464.0	-696669.0
28	17	53	46	118	202.0	-198519.0	15464.0	-695662.0
28	17	53	46	119	203.0	-188499.0	15468.0	-695679.0
28	17	53	46	119	205.0	-165779.0	15473.0	-697835.0
28	17	53	46	120	206.0	-165162.0	15462.0	-698275.0
28	17	53	46	120	207.0	-167729.0	15454.0	-698068.0
28	17	53	46	121	208.0	-171105.0	15416.0	-696742.0
28	17	53	46	121	228.0	-185984.0	14943.0	-684580.0
28	17	53	46	122	229.0	-181831.0	14918.0	-682299.0
28	17	53	46	123	230.0	-180436.0	14879.0	-680408.0
28	17	53	46	123	231.0	-181571.0	14879.0	-679700.0
28	17	53	46	124	232.0	-184428.0	14868.0	-679734.0
28	17	53	46	124	233.0	-189186.0	14833.0	-680230.0
28	17	53	46	156	234.0	-193986.0	14838.0	-681208.0
28	17	53	46	157	235.0	-198851.0	14810.0	-681514.0
28	17	53	46	157	236.0	-202489.0	14791.0	-681513.0
28	17	53	46	158	237.0	-205300.0	14785.0	-680749.0
28	17	53	46	159	238.0	-206522.0	14737.0	-679071.0
28	17	53	46	159	239.0	-207117.0	14689.0	-676574.0
28	17	53	46	160	240.0	-207197.0	14677.0	-673984.0
28	17	53	46	160	241.0	-207339.0	14659.0	-673439.0
28	17	53	46	161	242.0	-207162.0	14637.0	-673541.0
28	17	53	46	162	243.0	-207172.0	14623.0	-673628.0
28	17	53	46	162	244.0	-207375.0	14614.0	-674347.0
28	17	53	46	163	245.0	-207526.0	14591.0	-675081.0
28	17	53	46	164	246.0	-207707.0	14562.0	-675746.0
28	17	53	46	164	247.0	-207078.0	14523.0	-675025.0
28	17	53	46	165	248.0	-205658.0	14476.0	-673334.0
28	17	53	46	165	250.0	-199564.0	14462.0	-669409.0
28	17	53	46	166	251.0	-196064.0	14437.0	-668428.0
28	17	53	46	166	252.0	-192500.0	14392.0	-667896.0
28	17	53	46	167	253.0	-188679.0	14375.0	-667998.0
28	17	53	46	168	254.0	-185157.0	14376.0	-668815.0
28	17	53	46	169	255.0	-181529.0	14340.0	-669529.0
28	17	53	46	247	0.0	-177997.0	14301.0	-670011.0
28	17	53	46	248	1.0	-174777.0	14286.0	-669609.0
28	17	53	46	249	2.0	-171828.0	14268.0	-667597.0
28	17	53	46	249	3.0	-168493.0	14213.0	-664882.0
28	17	53	46	250	4.0	-165085.0	14185.0	-662537.0
28	17	53	46	292	5.0	-161341.0	14175.0	-661851.0
28	17	53	46	293	6.0	-158243.0	14142.0	-662111.0
28	17	53	46	294	7.0	-154966.0	14131.0	-661936.0
28	17	53	46	337	8.0	-151834.0	14111.0	-662859.0
28	17	53	46	338	9.0	-149226.0	14063.0	-663831.0
28	17	53	46	338	10.0	-146013.0	14044.0	-664709.0
28	17	53	46	339	11.0	-142306.0	13995.0	-664227.0
28	17	53	46	340	12.0	-140256.0	13961.0	-662304.0
28	17	53	46	340	13.0	-139382.0	13913.0	-660132.0
28	17	53	46	341	14.0	-139891.0	13921.0	-658227.0
28	17	53	46	342	16.0	-144812.0	13888.0	-656816.0
28	17	53	46	343	39.0	-190535.0	15239.0	-646824.0
28	17	53	46	343	40.0	-192449.0	15398.0	-647114.0
28	17	53	46	344	41.0	-195191.0	15542.0	-646814.0
28	17	53	46	345	42.0	-196756.0	15674.0	-645280.0
28	17	53	46	345	43.0	-197674.0	15804.0	-642616.0
28	17	53	46	346	62.0	-205801.0	19203.0	-634087.0
28	17	53	46	347	63.0	-208554.0	19311.0	-631199.0
28	17	53	46	347	64.0	-209955.0	19418.0	-629281.0
28	17	53	46	348	84.0	-206957.0	20803.0	-620540.0
28	17	53	46	349	85.0	-204804.0	20827.0	-620174.0
28	17	53	46	349	86.0	-203306.0	20857.0	-619849.0
28	17	53	46	350	87.0	-202299.0	20885.0	-620461.0
28	17	53	46	351	88.0	-200384.0	20901.0	-621425.0
28	17	53	46	351	89.0	-197992.0	20926.0	-622356.0
28	17	53	46	382	90.0	-194617.0	20929.0	-622807.0
28	17	53	46	383	91.0	-191809.0	20945.0	-621486.0
28	17	53	46	384	92.0	-189017.0	20949.0	-619551.0
28	17	53	46	384	93.0	-187144.0	20938.0	-617395.0
28	17	53	46	385	94.0	-185986.0	20953.0	-616597.0
28	17	53	46	386	95.0	-185066.0	20967.0	-617134.0
28	17	53	46	386	96.0	-183215.0	20971.0	-617156.0
28	17	53	46	387	97.0	-182324.0	20959.0	-617434.0
28	17	53	46	388	98.0	-182254.0	20961.0	-618141.0
28	17	53	46	388	99.0	-180874.0	20967.0	-618946.0
28	17	53	46	389	100.0	-179466.0	20921.0	-618982.0
28	17	53	46	389	101.0	-177561.0	20896.0	-617959.0
28	17	53	46	390	102.0	-174734.0	20862.0	-616232.0
28	17	53	46	391	103.0	-171777.0	20836.0	-614201.0
28	17	53	46	391	104.0	-169264.0	20834.0	-613392.0
28	17	53	46	392	106.0	-164381.0	20788.0	-614752.0
28	17	53	46	392	107.0	-163021.0	20754.0	-615187.0
28	17	53	46	393	108.0	-161822.0	20729.0	-615397.0
28	17	53	46	394	109.0	-161838.0	20691.0	-615987.0
28	17	53	46	394	110.0	-162366.0	20669.0	-615706.0
28	17	53	46	395	111.0	-164330.0	20622.0	-613771.0
28	17	53	46	426	112.0	-164436.0	20547.0	-611005.0
28	17	53	46	426	113.0	-165322.0	20512.0	-609188.0
28	17	53	46	427	114.0	-166561.0	20494.0	-608136.0
28	17	53	46	428	115.0	-168301.0	20473.0	-608046.0
28	17	53	46	447	116.0	-169264.0	20412.0	-608009.0
28	17	53	46	448	117.0	-168809.0	20364.0	-608166.0
28	17	53	46	448	118.0	-167572.0	20289.0	-608717.0
28	17	53	46	449	119.0	-166563.0	20250.0	-608852.0
28	17	53	46	450	120.0	-166708.0	20208.0	-608411.0
28	17	53	46	450	121.0	-165981.0	20151.0	-606808.0
28	17	53	46	451	122.0	-166396.0	20081.0	-604914.0
28	17	53	46	451	123.0	-168098.0	19999.0	-602871.0
28	17	53	46	452	124.0	-170362.0	19938.0	-601420.0
28	17	53	46	452	125.0	-172764.0	19874.0	-601204.0
28	17	53	46	453	126.0	-175614.0	19830.0	-601247.0
28	17	53	46	453	129.0	-184257.0	19634.0	-602237.0
28	17	53	46	454	130.0	-185760.0	19551.0	-602102.0
28	17	53	46	455	131.0	-186840.0	19461.0	-600702.0
28	17	53	46	455	132.0	-189118.0	19371.0	-598078.0
28	17	53	46	456	133.0	-191210.0	19282.0	-595942.0
28	17	53	46	456	134.0	-193760.0	19216.0	-594766.0
28	17	53	46	472	135.0	-196675.0	19139.0	-594689.0
28	17	53	46	473	136.0	-197772.0	19053.0	-594762.0
28	17	53	46	473	137.0	-199236.0	18959.0	-594936.0
28	17	53	46	474	138.0	-200329.0	18851.0	-595260.0
28	17	53	46	475	139.0	-200259.0	18766.0	-596033.0
28	17	53	46	475	140.0	-199474.0	18679.0	-596782.0
28	17	53	46	476	141.0	-197836.0	18553.0	-595776.0
28	17	53	46	477	142.0	-196184.0	18434.0	-593129.0
28	17	53	46	477	143.0	-194216.0	18338.0	-591102.0
28	17	53	46	478	144.0	-190774.0	18239.0	-590324.0
28	17	53	46	479	145.0	-188070.0	18141.0	-589709.0
28	17	53	46	479	146.0	-186187.0	18051.0	-588998.0
28	17	53	46	480	147.0	-182466.0	17954.0	-589462.0
28	17	53	46	480	148.0	-178495.0	17858.0	-589965.0
28	17	53	46	481	149.0	-175649.0	17746.0	-590122.0
28	17	53	46	482	151.0	-170312.0	17554.0	-588855.0
28	17	53	46	482	152.0	-167740.0	17433.0	-587180.0
28	17	53	46	483	153.0	-165878.0	17310.0	-586049.0
28	17	53	46	484	154.0	-163991.0	17226.0	-585866.0
28	17	53	46	484	155.0	-161052.0	17134.0	-586980.0
28	17	53	46	485	156.0	-159357.0	17022.0	-589081.0
28	17	53	46	516	157.0	-158128.0	16951.0	-591737.0
28	17	53	46	517	158.0	-157972.0	16839.0	-594925.0
28	17	53	46	518	159.0	-159404.0	16748.0	-597387.0
28	17	53	46	518	160.0	-162308.0	16629.0	-598911.0
28	17	53	46	519	161.0	-165692.0	16509.0	-598532.0
28	17	53	46	562	162.0	-168991.0	16384.0	-597011.0
28	17	53	46	563	163.0	-174060.0	16294.0	-595166.0
28	17	53	46	563	164.0	-178366.0	16190.0	-592807.0
28	17	53	46	564	165.0	-181784.0	16107.0	-589907.0
28	17	53	46	565	166.0	-185716.0	15996.0	-585482.0
28	17	53	46	565	167.0	-189347.0	15907.0	-582353.0
28	17	53	46	566	168.0	-192629.0	15803.0	-579522.0
28	17	53	46	567	169.0	-195527.0	15666.0	-574166.0
28	17	53	46	567	170.0	-198708.0	15570.0	-569688.0
28	17	53	46	568	171.0	-201667.0	15431.0	-566214.0
28	17	53	46	568	173.0	-207491.0	15225.0	-563187.0
28	17	53	46	569	174.0	-211645.0	15120.0	-565859.0
28	17	53	46	570	175.0	-216184.0	15011.0	-569429.0
28	17	53	46	570	176.0	-219977.0	14928.0	-571662.0
28	17	53	46	571	177.0	-223379.0	14825.0	-573711.0
28	17	53	46	572	178.0	-225458.0	14708.0	-575616.0
28	17	53	46	572	196.0	-152952.0	12631.0	-568403.0
28	17	53	46	573	197.0	-155889.0	12538.0	-568797.0
28	17	53	46	574	198.0	-156613.0	12426.0	-569204.0
28	17	53	46	574	199.0	-152697.0	12296.0	-570101.0
28	17	53	46	575	200.0	-145723.0	12164.0	-569694.0
28	17	53	46	575	201.0	-136790.0	12036.0	-568306.0
28	17	53	46	576	202.0	-127067.0	11921.0	-566724.0
28	17	53	46	607	203.0	-120287.0	11809.0	-564864.0
28	17	53	46	608	204.0	-117110.0	11708.0	-563691.0
28	17	53	46	609	205.0	-119184.0	11589.0	-564142.0
28	17	53	46	609	206.0	-125869.0	11490.0	-564729.0
28	17	53	46	610	207.0	-135287.0	11395.0	-565459.0
28	17	53	46	610	208.0	-146892.0	11294.0	-566241.0
28	17	53	46	611	209.0	-158397.0	11179.0	-566884.0
28	17	53	46	612	210.0	-169550.0	11057.0	-566249.0
28	17	53	46	612	211.0	-180444.0	10908.0	-564619.0
28	17	53	46	613	212.0	-190503.0	10782.0	-562605.0
28	17	53	46	614	213.0	-199969.0	10673.0	-561091.0
28	17	53	46	614	214.0	-208367.0	10572.0	-560273.0
28	17	53	46	615	215.0	-215426.0	10458.0	-559803.0
28	17	53	46	615	216.0	-220491.0	10343.0	-560029.0
28	17	53	46	616	217.0	-223929.0	10256.0	-561259.0
28	17	53	46	617	218.0	-225627.0	10125.0	-562174.0
28	17	53	46	617	219.0	-225598.0	10003.0	-562457.0
28	17	53	46	618	220.0	-224200.0	9887.0	-562606.0
28	17	53	46	618	221.0	-221377.0	9756.0	-561559.0
28	17	53	46	619	222.0	-217694.0	9628.0	-559776.0
28	17	53	46	619	223.0	-213479.0	9528.0	-558156.0
28	17	53	46	620	224.0	-209114.0	9448.0	-557671.0
28	17	53	46	652	225.0	-204719.0	9333.0	-557313.0
28	17	53	46	653	226.0	-199698.0	9223.0	-557474.0
28	17	53	46	654	227.0	-194487.0	9136.0	-558415.0
28	17	53	46	654	228.0	-188834.0	9040.0	-559246.0
28	17	53	46	655	229.0	-182637.0	8923.0	-560486.0
28	17	53	46	655	230.0	-174941.0	8791.0	-560530.0
28	17	53	46	656	231.0	-165636.0	8666.0	-559161.0
28	17	53	46	657	232.0	-157807.0	8540.0	-557162.0
28	17	53	46	657	233.0	-151160.0	8445.0	-556178.0
28	17	53	46	658	234.0	-146172.0	8351.0	-555816.0
28	17	53	46	659	235.0	-142792.0	8252.0	-555416.0
28	17	53	46	659	236.0	-140758.0	8172.0	-556160.0
28	17	53	46	660	237.0	-140896.0	8079.0	-557041.0
28	17	53	46	660	238.0	-141619.0	7969.0	-557669.0
28	17	53	46	661	239.0	-143294.0	7864.0	-557976.0
28	17	53	46	662	241.0	-148089.0	7650.0	-556879.0
28	17	53	46	662	242.0	-151082.0	7519.0	-554589.0
28	17	53	46	663	243.0	-152282.0	7417.0	-553433.0
28	17	53	46	663	244.0	-152131.0	7332.0	-552827.0
28	17	53	46	664	245.0	-151257.0	7236.0	-552513.0
28	17	53	46	665	246.0	-150162.0	7151.0	-553521.0
28	17	53	46	697	247.0	-149537.0	7066.0	-555279.0
28	17	53	46	698	248.0	-148777.0	6949.0	-556415.0
28	17	53	46	699	249.0	-148101.0	6847.0	-556706.0
28	17	53	46	699	250.0	-148187.0	6717.0	-556314.0
28	17	53	46	700	251.0	-148599.0	6599.0	-555491.0
28	17	53	46	701	252.0	-149318.0	6504.0	-553692.0
28	17	53	46	701	253.0	-150109.0	6426.0	-552615.0
28	17	53	46	702	254.0	-150408.0	6327.0	-552419.0
28	17	53	46	703	255.0	-150748.0	6216.0	-552641.0
28	17	53	46	703	0.0	-151046.0	6125.0	-553483.0
28	17	53	46	704	1.0	-151695.0	6031.0	-554457.0
28	17	53	46	704	2.0	-153223.0	5934.0	-555399.0
28	17	53	46	705	3.0	-155839.0	5806.0	-556656.0
28	17	53	46	706	4.0	-158856.0	5696.0	-556416.0
28	17	53	46	788	5.0	-161919.0	5595.0	-554367.0
28	17	53	46	789	7.0	-167008.0	5389.0	-551232.0
28	17	53	46	790	8.0	-168619.0	5288.0	-550985.0
28	17	53	46	790	9.0	-169858.0	5201.0	-551387.0
28	17	53	46	791	10.0	-170633.0	5114.0	-551894.0
28	17	53	46	792	11.0	-170942.0	5019.0	-553111.0
28	17	53	46	792	12.0	-171520.0	4934.0	-554411.0
28	17	53	46	793	13.0	-172475.0	4846.0	-555556.0
28	17	53	46	794	14.0	-174084.0	4756.0	-555219.0
28	17	53	46	794	15.0	-175695.0	4660.0	-553861.0
28	17	53	46	795	16.0	-177190.0	4564.0	-551560.0
28	17	53	46	796	17.0	-178069.0	4486.0	-550226.0
28	17	53	46	796	18.0	-178962.0	4431.0	-550167.0
28	17	53	46	797	19.0	-179326.0	4368.0	-550488.0
28	17	53	46	797	20.0	-178930.0	4296.0	-550716.0
28	17	53	46	798	52.0	-211316.0	3389.0	-531580.0
28	17	53	46	799	53.0	-210129.0	3383.0	-531326.0
28	17	53	46	799	54.0	-209728.0	3406.0	-529526.0
28	17	53	46	800	55.0	-209560.0	3391.0	-526482.0
28	17	53	46	800	56.0	-209284.0	3384.0	-524196.0
28	17	53	46	801	57.0	-209205.0	3396.0	-522711.0
28	17	53	46	833	58.0	-208335.0	3437.0	-522428.0
28	17	53	46	834	59.0	-207604.0	3459.0	-522064.0
28	17	53	46	835	60.0	-207266.0	3462.0	-522801.0
28	17	53	46	835	61.0	-206361.0	3461.0	-523519.0
28	17	53	46	836	62.0	-206159.0	3474.0	-523443.0
28	17	53	46	837	63.0	-205727.0	3484.0	-523347.0
28	17	53	46	837	64.0	-205068.0	3473.0	-522337.0
28	17	53	46	838	65.0	-204226.0	3471.0	-519904.0
28	17	53	46	839	66.0	-202982.0	3502.0	-517419.0
28	17	53	46	839	67.0	-201452.0	3524.0	-516214.0
28	17	53	46	840	68.0	-199051.0	3534.0	-516111.0
28	17	53	46	841	69.0	-194428.0	3568.0	-515659.0
28	17	53	46	841	70.0	-186654.0	3612.0	-516026.0
28	17	53	46	842	71.0	-177481.0	3639.0	-516923.0
28	17	53	46	842	72.0	-167314.0	3662.0	-517786.0
28	17	53	46	843	74.0	-147534.0	3692.0	-517052.0
28	17	53	46	844	75.0	-145594.0	3695.0	-515274.0
28	17	53	46	844	76.0	-146997.0	3750.0	-513399.0
28	17	53	46	845	77.0	-146662.0	3809.0	-512488.0
28	17	53	46	845	78.0	-144689.0	3844.0	-512282.0
28	17	53	46	846	79.0	-143882.0	3894.0	-512352.0
28	17	53	46	847	80.0	-144412.0	3984.0	-513294.0
28	17	53	46	878	81.0	-143867.0	4034.0	-514260.0
28	17	53	46	878	82.0	-141406.0	4093.0	-514424.0
28	17	53	46	879	83.0	-137801.0	4168.0	-514458.0
28	17	53	46	881	84.0	-133851.0	4213.0	-513686.0
28	17	53	46	881	85.0	-129864.0	4263.0	-511682.0
28	17	53	46	882	86.0	-127096.0	4346.0	-509647.0
28	17	53	46	883	87.0	-125745.0	4442.0	-509151.0
28	17	53	46	883	88.0	-126219.0	4559.0	-508968.0
28	17	53	46	884	89.0	-129429.0	4649.0	-509171.0
28	17	53	46	885	90.0	-135391.0	4757.0	-510221.0
28	17	53	46	885	91.0	-143015.0	4866.0	-510746.0
28	17	53	46	886	92.0	-149722.0	4968.0	-511193.0
28	17	53	46	887	93.0	-153511.0	5061.0	-511380.0
28	17	53	46	887	94.0	-154470.0	5178.0	-510451.0
28	17	53	46	888	95.0	-152374.0	5278.0	-508466.0
28	17	53	46	888	97.0	-144439.0	5541.0	-505091.0
28	17	53	46	889	98.0	-141361.0	5671.0	-505209.0
28	17	53	46	890	99.0	-140359.0	5826.0	-505207.0
28	17	53	46	890	100.0	-143102.0	5969.0	-505766.0
28	17	53	46	891	101.0	-149105.0	6094.0	-506912.0
28	17	53	46	891	102.0	-157104.0	6254.0	-507604.0
28	17	53	46	922	103.0	-165874.0	6358.0	-507616.0
28	17	53	46	922	104.0	-173792.0	6496.0	-506563.0
28	17	53	46	923	105.0	-180104.0	6631.0	-504204.0
28	17	53	46	924	106.0	-184559.0	6773.0	-501967.0
28	17	53	46	924	107.0	-187314.0	6911.0	-501182.0
28	17	53	46	925	108.0	-189229.0	7058.0	-501299.0
28	17	53	46	926	109.0	-190302.0	7223.0	-501244.0
28	17	53	46	926	110.0	-191199.0	7371.0	-502082.0
28	17	53	46	927	111.0	-191739.0	7500.0	-503589.0
28	17	53	46	927	112.0	-193022.0	7619.0	-504416.0
28	17	53	46	928	113.0	-195244.0	7754.0	-504244.0
28	17	53	46	929	114.0	-198503.0	7878.0	-503041.0
28	17	53	46	929	115.0	-202396.0	7993.0	-500712.0
28	17	53	46	930	116.0	-206888.0	8119.0	-498507.0
28	17	53	46	931	117.0	-211181.0	8262.0	-497167.0
28	17	53	46	931	119.0	-220389.0	8527.0	-496986.0
28	17	53	46	932	120.0	-224718.0	8652.0	-497610.0
28	17	53	46	933	121.0	-227269.0	8761.0	-498324.0
28	17	53	46	933	122.0	-228787.0	8888.0	-499646.0
28	17	53	46	934	123.0	-229099.0	9003.0	-499806.0
28	17	53	46	934	124.0	-229123.0	9105.0	-498528.0
28	17	53	46	943	125.0	-228771.0	9203.0	-496167.0
28	17	53	47	13	126.0	-228357.0	9316.0	-494307.0
28	17	53	47	14	127.0	-228229.0	9423.0	-493579.0
28	17	53	47	14	128.0	-228409.0	9553.0	-493596.0
28	17	53	47	15	129.0	-228134.0	9648.0	-494093.0
28	17	53	47	16	130.0	-228402.0	9778.0	-494918.0
28	17	53	47	17	131.0	-230191.0	9883.0	-495528.0
28	17	53	47	17	132.0	-232591.0	9959.0	-496160.0
28	17	53	47	18	133.0	-234647.0	10063.0	-496529.0
28	17	53	47	18	134.0	-235937.0	10154.0	-495296.0
28	17	53	47	19	135.0	-238184.0	10253.0	-493118.0
28	17	53	47	20	136.0	-241295.0	10355.0	-490767.0
28	17	53	47	20	137.0	-244754.0	10461.0	-489804.0
28	17	53	47	21	138.0	-248287.0	10556.0	-489191.0
28	17	53	47	22	139.0	-251311.0	10652.0	-489391.0
28	17	53	47	22	140.0	-262666.0	10752.0	-490129.0
28	17	53	47	23	142.0	-265541.0	11096.0	-491455.0
28	17	53	47	23	164.0	-264002.0	14423.0	-482113.0
28	17	53	47	24	165.0	-266845.0	14507.0	-479718.0
28	17	53	47	25	166.0	-269727.0	14590.0	-478186.0
28	17	53	47	25	167.0	-272372.0	14681.0	-477828.0
28	17	53	47	26	168.0	-274141.0	14769.0	-477994.0
28	17	53	47	26	169.0	-274377.0	14860.0	-478672.0
28	17	53	47	27	170.0	-273138.0	14917.0	-479354.0
28	17	53	47	57	171.0	-271192.0	14989.0	-479816.0
28	17	53	47	58	172.0	-269116.0	15066.0	-480118.0
28	17	53	47	58	173.0	-267104.0	15134.0	-479847.0
28	17	53	47	59	174.0	-264339.0	15164.0	-478052.0
28	17	53	47	60	175.0	-261833.0	15192.0	-475497.0
28	17	53	47	60	176.0	-259954.0	15239.0	-473806.0
28	17	53	47	61	177.0	-257873.0	15305.0	-473879.0
28	17	53	47	62	178.0	-257235.0	15373.0	-473951.0
28	17	53	47	62	179.0	-257452.0	15413.0	-474339.0
28	17	53	47	63	180.0	-259121.0	15449.0	-475610.0
28	17	53	47	64	181.0	-260495.0	15498.0	-476344.0
28	17	53	47	64	182.0	-263392.0	15520.0	-476296.0
28	17	53	47	65	183.0	-266494.0	15548.0	-475936.0
28	17	53	47	66	184.0	-269406.0	15553.0	-474529.0
28	17	53	47	66	185.0	-271371.0	15576.0	-472324.0
28	17	53	47	67	187.0	-273707.0	15642.0	-469856.0
28	17	53	47	68	188.0	-272570.0	15666.0	-470231.0
28	17	53	47	69	189.0	-270639.0	15681.0	-470646.0
28	17	53	47	69	190.0	-268294.0	15717.0	-471367.0
28	17	53	47	70	191.0	-266141.0	15744.0	-471988.0
28	17	53	47	70	192.0	-264082.0	15751.0	-472551.0
28	17	53	47	103	193.0	-262157.0	15741.0	-472306.0
28	17	53	47	104	194.0	-259943.0	15739.0	-470720.0
28	17	53	47	105	195.0	-259267.0	15750.0	-468424.0
28	17	53	47	105	196.0	-260061.0	15739.0	-466730.0
28	17	53	47	106	197.0	-260702.0	15761.0	-466631.0
28	17	53	47	107	198.0	-260256.0	15768.0	-467134.0
28	17	53	47	107	199.0	-260059.0	15763.0	-467509.0
28	17	53	47	108	200.0	-260334.0	15745.0	-467865.0
28	17	53	47	109	201.0	-261371.0	15734.0	-468671.0
28	17	53	47	109	202.0	-261646.0	15714.0	-469287.0
28	17	53	47	110	203.0	-262180.0	15694.0	-468603.0
28	17	53	47	111	204.0	-262351.0	15644.0	-467065.0
28	17	53	47	111	205.0	-262139.0	15615.0	-464736.0
28	17	53	47	112	206.0	-261829.0	15581.0	-463032.0
28	17	53	47	113	207.0	-262326.0	15563.0	-463131.0
28	17	53	47	113	209.0	-264211.0	15529.0	-463799.0
28	17	53	47	114	210.0	-265019.0	15488.0	-464707.0
28	17	53	47	114	211.0	-266112.0	15439.0	-465192.0
28	17	53	47	115	212.0	-266892.0	15392.0	-465697.0
28	17	53	47	115	213.0	-267334.0	15309.0	-464780.0
28	17	53	47	116	214.0	-267841.0	15235.0	-463176.0
28	17	53	47	147	215.0	-267993.0	15192.0	-461037.0
28	17	53	47	148	216.0	-268285.0	15136.0	-459097.0
28	17	53	47	148	217.0	-268676.0	15085.0	-459022.0
28	17	53	47	149	218.0	-268860.0	14999.0	-459303.0
28	17	53	47	150	219.0	-269473.0	14951.0	-460450.0
28	17	53	47	150	220.0	-270601.0	14880.0	-461633.0
28	17	53	47	151	221.0	-271138.0	14802.0	-462297.0
28	17	53	47	152	222.0	-271733.0	14722.0	-462770.0
28	17	53	47	153	223.0	-272832.0	14624.0	-462395.0
28	17	53	47	153	224.0	-273349.0	14513.0	-460583.0
28	17	53	47	154	225.0	-273488.0	14429.0	-458267.0
28	17	53	47	154	226.0	-273382.0	14355.0	-456741.0
28	17	53	47	155	227.0	-273352.0	14259.0	-456502.0
28	17	53	47	156	228.0	-272999.0	14166.0	-456987.0
28	17	53	47	156	229.0	-272070.0	14098.0	-458225.0
28	17	53	47	157	231.0	-270234.0	13898.0	-459942.0
28	17	53	47	158	232.0	-267420.0	13776.0	-460330.0
28	17	53	47	158	233.0	-264419.0	13649.0	-459459.0
28	17	53	47	159	234.0	-261026.0	13544.0	-457634.0
28	17	53	47	160	235.0	-257929.0	13427.0	-455556.0
28	17	53	47	160	236.0	-256604.0	13327.0	-453886.0
28	17	53	47	161	237.0	-256301.0	13238.0	-453318.0
28	17	53	47	192	238.0	-255047.0	13127.0	-453614.0
28	17	53	47	193	239.0	-252632.0	13003.0	-454641.0
28	17	53	47	237	240.0	-249369.0	12887.0	-455684.0
28	17	53	47	238	241.0	-244217.0	12765.0	-456730.0
28	17	53	47	239	242.0	-239395.0	12647.0	-457772.0
28	17	53	47	239	243.0	-235996.0	12514.0	-457391.0
28	17	53	47	240	244.0	-232487.0	12388.0	-455784.0
28	17	53	47	241	245.0	-229564.0	12253.0	-453950.0
28	17	53	47	242	246.0	-229391.0	12129.0	-451986.0
28	17	53	47	242	247.0	-230606.0	12031.0	-451410.0
28	17	53	47	243	248.0	-232006.0	11906.0	-451171.0
28	17	53	47	244	249.0	-232769.0	11797.0	-451611.0
28	17	53	47	245	250.0	-233517.0	11661.0	-452416.0
28	17	53	47	246	251.0	-233711.0	11558.0	-453309.0
28	17	53	47	247	252.0	-232302.0	11429.0	-453498.0
28	17	53	47	247	254.0	-230427.0	11191.0	-450756.0
28	17	53	47	248	255.0	-229958.0	11065.0	-448246.0
28	17	53	47	248	0.0	-229585.0	10958.0	-446665.0
28	17	53	47	249	21.0	-211147.0	8993.0	-439101.0
28	17	53	47	250	22.0	-212758.0	8913.0	-438866.0
28	17	53	47	250	23.0	-213814.0	8843.0	-439722.0
28	17	53	47	251	24.0	-214471.0	8781.0	-441283.0
28	17	53	47	251	25.0	-216171.0	8701.0	-441839.0
28	17	53	47	252	26.0	-217682.0	8624.0	-442066.0
28	17	53	47	283	27.0	-218756.0	8537.0	-441597.0
28	17	53	47	284	28.0	-218731.0	8445.0	-439387.0
28	17	53	47	284	29.0	-218756.0	8345.0	-436852.0
28	17	53	47	328	30.0	-217199.0	8281.0	-435700.0
28	17	53	47	329	31.0	-214902.0	8217.0	-436329.0
28	17	53	47	330	32.0	-212347.0	8142.0	-437129.0
28	17	53	47	330	33.0	-209942.0	8064.0	-438133.0
28	17	53	47	332	34.0	-207426.0	7994.0	-439659.0
28	17	53	47	333	35.0	-205139.0	7920.0	-442162.0
28	17	53	47	333	36.0	-203590.0	7832.0	-444566.0
28	17	53	47	334	37.0	-202304.0	7750.0	-445754.0
28	17	53	47	335	38.0	-199887.0	7654.0	-446469.0
28	17	53	47	335	39.0	-195622.0	7610.0	-446588.0
28	17	53	47	336	40.0	-191206.0	7562.0	-447313.0
28	17	53	47	337	41.0	-186647.0	7496.0	-447760.0
28	17	53	47	337	43.0	-182447.0	7367.0	-448642.0
28	17	53	47	338	44.0	-181871.0	7317.0	-447749.0
28	17	53	47	339	45.0	-181836.0	7271.0	-445858.0
28	17	53	47	339	46.0	-182451.0	7206.0	-442451.0
28	17	53	47	340	65.0	-173389.0	6694.0	-429829.0
28	17	53	47	341	66.0	-166566.0	6706.0	-430612.0
28	17	53	47	341	67.0	-160252.0	6676.0	-429651.0
28	17	53	47	342	68.0	-156837.0	6668.0	-427391.0
28	17	53	47	342	69.0	-158064.0	6672.0	-424905.0
28	17	53	47	343	70.0	-163034.0	6696.0	-424149.0
28	17	53	47	343	71.0	-170866.0	6713.0	-424327.0
28	17	53	47	372	72.0	-179942.0	6708.0	-424929.0
28	17	53	47	373	73.0	-189307.0	6708.0	-425831.0
28	17	53	47	374	74.0	-197711.0	6713.0	-427344.0
28	17	53	47	374	75.0	-205119.0	6735.0	-427791.0
28	17	53	47	375	76.0	-211914.0	6730.0	-427771.0
28	17	53	47	376	77.0	-217732.0	6724.0	-426666.0
28	17	53	47	376	78.0	-219832.0	6713.0	-424501.0
28	17	53	47	377	79.0	-219101.0	6706.0	-422411.0
28	17	53	47	378	80.0	-216726.0	6707.0	-421250.0
28	17	53	47	378	81.0	-211307.0	6712.0	-421578.0
28	17	53	47	379	82.0	-204734.0	6724.0	-422125.0
28	17	53	47	380	83.0	-200096.0	6719.0	-423108.0
28	17	53	47	380	84.0	-197699.0	6727.0	-423682.0
28	17	53	47	381	85.0	-197824.0	6729.0	-424401.0
28	17	53	47	382	86.0	-200038.0	6708.0	-424798.0
28	17	53	47	382	88.0	-206199.0	6668.0	-421071.0
28	17	53	47	383	89.0	-209824.0	6653.0	-419009.0
28	17	53	47	384	90.0	-214586.0	6640.0	-418374.0
28	17	53	47	384	91.0	-219309.0	6640.0	-418276.0
28	17	53	47	385	92.0	-223910.0	6633.0	-418928.0
28	17	53	47	385	93.0	-228532.0	6641.0	-420305.0
28	17	53	47	417	94.0	-232831.0	6633.0	-421433.0
28	17	53	47	418	95.0	-236078.0	6614.0	-422151.0
28	17	53	47	419	96.0	-238233.0	6586.0	-422409.0
28	17	53	47	420	97.0	-239079.0	6572.0	-421487.0
28	17	53	47	421	98.0	-238536.0	6533.0	-419039.0
28	17	53	47	421	99.0	-236754.0	6503.0	-417017.0
28	17	53	47	422	100.0	-234917.0	6490.0	-416028.0
28	17	53	47	463	101.0	-233309.0	6470.0	-415881.0
28	17	53	47	463	102.0	-231440.0	6462.0	-416421.0
28	17	53	47	464	103.0	-229062.0	6464.0	-417744.0
28	17	53	47	465	104.0	-227201.0	6448.0	-418726.0
28	17	53	47	465	105.0	-226098.0	6415.0	-419640.0
28	17	53	47	466	106.0	-225468.0	6369.0	-419132.0
28	17	53	47	466	107.0	-225386.0	6334.0	-418177.0
28	17	53	47	467	108.0	-226471.0	6314.0	-416036.0
28	17	53	47	468	110.0	-229561.0	6283.0	-414037.0
28	17	53	47	468	111.0	-231517.0	6264.0	-414176.0
28	17	53	47	469	112.0	-232986.0	6247.0	-414668.0
28	17	53	47	469	113.0	-233241.0	6229.0	-416165.0
28	17	53	47	470	114.0	-231981.0	6199.0	-416768.0
28	17	53	47	470	115.0	-229741.0	6163.0	-417556.0
28	17	53	47	471	116.0	-227714.0	6146.0	-417644.0
28	17	53	47	472	117.0	-226221.0	6107.0	-416599.0
28	17	53	47	472	133.0	-208573.0	5793.0	-412433.0
28	17	53	47	473	134.0	-211247.0	5782.0	-413427.0
28	17	53	47	473	135.0	-212364.0	5746.0	-414571.0
28	17	53	47	474	136.0	-213249.0	5696.0	-414632.0
28	17	53	47	487	137.0	-213171.0	5655.0	-413403.0
28	17	53	47	487	138.0	-212695.0	5616.0	-411334.0
28	17	53	47	488	139.0	-211636.0	5574.0	-410085.0
28	17	53	47	510	140.0	-210676.0	5548.0	-409662.0
28	17	53	47	511	141.0	-210251.0	5519.0	-409491.0
28	17	53	47	512	142.0	-210234.0	5504.0	-410186.0
28	17	53	47	512	143.0	-210451.0	5463.0	-411369.0
28	17	53	47	513	144.0	-211164.0	5429.0	-412106.0
28	17	53	47	552	145.0	-211832.0	5411.0	-413064.0
28	17	53	47	553	146.0	-211449.0	5349.0	-413162.0
28	17	53	47	597	147.0	-211001.0	5273.0	-412024.0
28	17	53	47	598	148.0	-210145.0	5214.0	-410302.0
28	17	53	47	599	149.0	-209021.0	5144.0	-408584.0
28	17	53	47	599	150.0	-209151.0	5099.0	-407497.0
28	17	53	47	600	151.0	-208784.0	5049.0	-408027.0
28	17	53	47	601	152.0	-207296.0	5019.0	-409162.0
28	17	53	47	601	153.0	-206537.0	4966.0	-410327.0
28	17	53	47	602	154.0	-205721.0	4911.0	-411388.0
28	17	53	47	602	155.0	-205029.0	4863.0	-412599.0
28	17	53	47	603	156.0	-205804.0	4813.0	-413082.0
28	17	53	47	604	157.0	-206931.0	4744.0	-411509.0
28	17	53	47	620	158.0	-209001.0	4673.0	-409238.0
28	17	53	47	620	159.0	-211025.0	4610.0	-408137.0
28	17	53	47	621	160.0	-213384.0	4557.0	-407707.0
28	17	53	47	621	178.0	-197536.0	3763.0	-398421.0
28	17	53	47	622	200.0	-162724.0	3527.0	-379628.0
28	17	53	47	623	201.0	-164292.0	3519.0	-380195.0
28	17	53	47	623	202.0	-164502.0	3523.0	-380359.0
28	17	53	47	624	203.0	-164524.0	3537.0	-381081.0
28	17	53	47	624	204.0	-164307.0	3539.0	-381885.0
28	17	53	47	625	205.0	-162226.0	3526.0	-382704.0
28	17	53	47	688	206.0	-160253.0	3518.0	-381958.0
28	17	53	47	689	207.0	-156594.0	3505.0	-380400.0
28	17	53	47	690	208.0	-154153.0	3479.0	-378548.0
28	17	53	47	690	209.0	-156153.0	3501.0	-376802.0
28	17	53	47	691	210.0	-161968.0	3522.0	-376763.0
28	17	53	47	691	211.0	-169796.0	3496.0	-377094.0
28	17	53	47	692	212.0	-177649.0	3474.0	-377642.0
28	17	53	47	693	213.0	-185215.0	3464.0	-378459.0
28	17	53	47	693	214.0	-193182.0	3463.0	-378672.0
28	17	53	47	694	215.0	-198636.0	3464.0	-379079.0
28	17	53	47	694	216.0	-200864.0	3438.0	-378867.0
28	17	53	47	695	217.0	-202434.0	3434.0	-377407.0
28	17	53	47	696	218.0	-202320.0	3388.0	-375062.0
28	17	53	47	696	219.0	-199502.0	3368.0	-373500.0
28	17	53	47	697	220.0	-195700.0	3361.0	-373313.0
28	17	53	47	698	222.0	-192164.0	3325.0	-373311.0
28	17	53	47	698	245.0	-215396.0	2188.0	-370630.0
28	17	53	47	699	246.0	-209736.0	2131.0	-369712.0
28	17	53	47	699	247.0	-203814.0	2051.0	-367897.0
28	17	53	47	700	248.0	-198836.0	2000.0	-365646.0
28	17	53	47	700	249.0	-194944.0	1936.0	-364569.0
28	17	53	47	701	250.0	-191184.0	1887.0	-364761.0
28	17	53	47	732	251.0	-187905.0	1849.0	-365103.0
28	17	53	47	777	252.0	-184772.0	1821.0	-365325.0
28	17	53	47	778	253.0	-182274.0	1757.0	-366001.0
28	17	53	47	778	254.0	-179653.0	1682.0	-366952.0
28	17	53	47	779	255.0	-176395.0	1631.0	-367342.0
28	17	53	47	780	0.0	-173596.0	1586.0	-366497.0
28	17	53	47	780	1.0	-171148.0	1521.0	-364841.0
28	17	53	47	781	2.0	-169554.0	1486.0	-363030.0
28	17	53	47	781	3.0	-168791.0	1469.0	-361712.0
28	17	53	47	782	4.0	-168547.0	1418.0	-361420.0
28	17	53	47	783	5.0	-168617.0	1354.0	-361120.0
28	17	53	47	783	6.0	-168684.0	1336.0	-361756.0
28	17	53	47	784	7.0	-168928.0	1292.0	-362929.0
28	17	53	47	785	8.0	-169697.0	1253.0	-363352.0
28	17	53	47	785	9.0	-170305.0	1233.0	-363871.0
28	17	53	47	786	11.0	-173292.0	1113.0	-363109.0
28	17	53	47	787	12.0	-175005.0	1095.0	-360923.0
28	17	53	47	788	34.0	-190004.0	439.0	-352317.0
28	17	53	47	789	35.0	-187546.0	404.0	-352322.0
28	17	53	47	789	36.0	-184629.0	363.0	-352574.0
28	17	53	47	790	37.0	-181669.0	351.0	-353522.0
28	17	53	47	791	38.0	-179857.0	332.0	-354456.0
28	17	53	47	791	39.0	-179247.0	310.0	-354605.0
28	17	53	47	822	40.0	-178740.0	269.0	-353191.0
28	17	53	47	823	41.0	-178702.0	233.0	-351448.0
28	17	53	47	823	42.0	-179172.0	213.0	-349658.0
28	17	53	47	824	43.0	-180298.0	186.0	-348591.0
28	17	53	47	825	44.0	-182007.0	149.0	-349047.0
28	17	53	47	825	45.0	-183947.0	154.0	-350037.0
28	17	53	47	826	46.0	-185743.0	136.0	-350266.0
28	17	53	47	826	47.0	-187272.0	117.0	-350365.0
28	17	53	47	827	48.0	-189182.0	99.0	-351344.0
28	17	53	47	828	49.0	-190529.0	98.0	-351986.0
28	17	53	47	836	50.0	-191244.0	57.0	-351287.0
28	17	53	47	837	51.0	-192109.0	29.0	-349663.0
28	17	53	47	837	52.0	-192781.0	12.0	-347719.0
28	17	53	47	838	53.0	-193727.0	9.0	-346242.0
28	17	53	47	838	54.0	-194641.0	12.0	-345632.0
28	17	53	47	839	56.0	-193883.0	28.0	-346951.0
28	17	53	47	839	57.0	-192427.0	27.0	-347654.0
28	17	53	47	840	58.0	-190126.0	23.0	-348006.0
28	17	53	47	841	59.0	-187741.0	17.0	-348736.0
28	17	53	47	841	60.0	-185324.0	23.0	-347928.0
28	17	53	47	842	61.0	-182229.0	46.0	-345814.0
28	17	53	47	867	62.0	-178827.0	39.0	-343632.0
28	17	53	47	868	63.0	-175987.0	78.0	-342993.0
28	17	53	47	869	64.0	-172928.0	108.0	-343287.0
28	17	53	47	869	65.0	-170331.0	136.0	-343799.0
28	17	53	47	913	66.0	-168408.0	160.0	-344786.0
28	17	53	47	913	67.0	-166277.0	203.0	-345744.0
28	17	53	47	914	68.0	-162174.0	246.0	-346283.0
28	17	53	47	915	69.0	-167770.0	313.0	-346576.0
28	17	53	47	915	70.0	-169976.0	422.0	-345869.0
28	17	53	47	916	71.0	-149102.0	547.0	-344193.0
28	17	53	47	916	72.0	-138661.0	691.0	-342555.0
28	17	53	47	917	73.0	-138781.0	874.0	-341516.0
28	17	53	47	918	74.0	-141307.0	1052.0	-341298.0
28	17	53	47	918	75.0	-142676.0	1221.0	-341380.0
28	17	53	47	919	76.0	-144310.0	1369.0	-342463.0
28	17	53	47	920	78.0	-150841.0	1689.0	-344297.0
28	17	53	47	920	79.0	-151547.0	1833.0	-344769.0
28	17	53	47	921	80.0	-153085.0	2003.0	-343591.0
28	17	53	47	921	81.0	-156709.0	2148.0	-341808.0
28	17	53	47	922	101.0	-167371.0	5312.0	-333081.0
28	17	53	47	923	102.0	-166206.0	5458.0	-331257.0
28	17	53	47	924	103.0	-165766.0	5611.0	-330644.0
28	17	53	47	924	104.0	-166320.0	5786.0	-330843.0
28	17	53	47	925	105.0	-166639.0	5923.0	-331367.0
28	17	53	47	926	106.0	-166453.0	6079.0	-332499.0
28	17	53	47	957	107.0	-166851.0	6221.0	-333335.0
28	17	53	47	957	108.0	-167382.0	6380.0	-333626.0
28	17	53	48	1	109.0	-167501.0	6521.0	-333392.0
28	17	53	48	1	110.0	-167821.0	6635.0	-332359.0
28	17	53	48	2	111.0	-167856.0	6761.0	-330159.0
28	17	53	48	3	112.0	-167815.0	6881.0	-327882.0
28	17	53	48	3	113.0	-168004.0	7024.0	-327387.0
28	17	53	48	4	114.0	-167527.0	7183.0	-327498.0
28	17	53	48	5	115.0	-167235.0	7312.0	-327769.0
28	17	53	48	5	116.0	-167551.0	7445.0	-328475.0
28	17	53	48	6	117.0	-168102.0	7596.0	-329014.0
28	17	53	48	7	118.0	-169402.0	7721.0	-329961.0
28	17	53	48	8	119.0	-170854.0	7835.0	-329917.0
28	17	53	48	9	120.0	-171285.0	7934.0	-328138.0
28	17	53	48	10	121.0	-174106.0	8063.0	-326654.0
28	17	53	48	10	123.0	-172327.0	8496.0	-324450.0
28	17	53	48	11	124.0	-161046.0	8721.0	-324647.0
28	17	53	48	12	125.0	-157209.0	8933.0	-325461.0
28	17	53	48	12	146.0	-198189.0	12769.0	-312530.0
28	17	53	48	13	147.0	-202521.0	12920.0	-309654.0
28	17	53	48	14	148.0	-206101.0	13058.0	-308967.0
28	17	53	48	14	149.0	-209803.0	13207.0	-309796.0
28	17	53	48	15	150.0	-213317.0	13330.0	-310284.0
28	17	53	48	15	151.0	-215452.0	13439.0	-309821.0
28	17	53	48	47	152.0	-216964.0	13578.0	-310964.0
28	17	53	48	48	153.0	-217444.0	13698.0	-313143.0
28	17	53	48	49	154.0	-216916.0	13824.0	-314218.0
28	17	53	48	49	155.0	-215345.0	13929.0	-315615.0
28	17	53	48	50	156.0	-214165.0	14040.0	-317600.0
28	17	53	48	51	157.0	-212224.0	14152.0	-319056.0
28	17	53	48	51	158.0	-209521.0	14259.0	-319862.0
28	17	53	48	52	159.0	-204796.0	14345.0	-319617.0
28	17	53	48	52	160.0	-197582.0	14414.0	-318282.0
28	17	53	48	53	161.0	-189016.0	14497.0	-316387.0
28	17	53	48	54	162.0	-177917.0	14594.0	-315047.0
28	17	53	48	54	163.0	-167842.0	14657.0	-314668.0
28	17	53	48	55	164.0	-158629.0	14741.0	-314932.0
28	17	53	48	55	165.0	-153472.0	14817.0	-315986.0
28	17	53	48	56	166.0	-152539.0	14910.0	-317099.0
28	17	53	48	57	168.0	-159587.0	15008.0	-317799.0
28	17	53	48	57	169.0	-166957.0	15056.0	-318152.0
28	17	53	48	58	170.0	-175058.0	15105.0	-316690.0
28	17	53	48	58	171.0	-183164.0	15140.0	-314551.0
28	17	53	48	59	172.0	-190859.0	15191.0	-313009.0
28	17	53	48	59	173.0	-196830.0	15262.0	-312518.0
28	17	53	48	92	174.0	-201400.0	15291.0	-312689.0
28	17	53	48	93	175.0	-205509.0	15331.0	-312878.0
28	17	53	48	93	176.0	-208453.0	15381.0	-314176.0
28	17	53	48	94	177.0	-210807.0	15413.0	-315202.0
28	17	53	48	95	178.0	-212888.0	15419.0	-315525.0
28	17	53	48	95	179.0	-213459.0	15446.0	-315469.0
28	17	53	48	96	180.0	-213965.0	15435.0	-314385.0
28	17	53	48	96	181.0	-214426.0	15449.0	-312792.0
28	17	53	48	97	182.0	-214889.0	15494.0	-311459.0
28	17	53	48	98	183.0	-216936.0	15506.0	-311658.0
28	17	53	48	98	184.0	-219892.0	15504.0	-311774.0
28	17	53	48	99	185.0	-224480.0	15531.0	-311904.0
28	17	53	48	100	186.0	-229476.0	15552.0	-313076.0
28	17	53	48	100	187.0	-234916.0	15538.0	-313812.0
28	17	53	48	101	188.0	-240551.0	15564.0	-313869.0
28	17	53	48	101	190.0	-248127.0	15510.0	-311718.0
28	17	53	48	102	191.0	-249879.0	15509.0	-309772.0
28	17	53	48	103	192.0	-250419.0	15522.0	-308154.0
28	17	53	48	103	193.0	-249629.0	15536.0	-307953.0
28	17	53	48	104	194.0	-246852.0	15529.0	-308071.0
28	17	53	48	104	195.0	-243363.0	15534.0	-308851.0
28	17	53	48	105	196.0	-239026.0	15540.0	-310404.0
28	17	53	48	137	197.0	-235403.0	15518.0	-311294.0
28	17	53	48	138	198.0	-233062.0	15518.0	-311955.0
28	17	53	48	228	199.0	-232003.0	15501.0	-311275.0
28	17	53	48	229	200.0	-232307.0	15488.0	-310186.0
28	17	53	48	229	201.0	-232527.0	15463.0	-307657.0
28	17	53	48	230	202.0	-232422.0	15445.0	-306170.0
28	17	53	48	231	203.0	-231898.0	15440.0	-306188.0
28	17	53	48	231	204.0	-230612.0	15407.0	-306640.0
28	17	53	48	232	205.0	-228531.0	15409.0	-307936.0
28	17	53	48	232	206.0	-225732.0	15408.0	-309056.0
28	17	53	48	233	207.0	-222519.0	15388.0	-309541.0
28	17	53	48	234	208.0	-219564.0	15350.0	-310422.0
28	17	53	48	234	209.0	-216596.0	15313.0	-309487.0
28	17	53	48	235	210.0	-214089.0	15267.0	-307571.0
28	17	53	48	235	211.0	-211538.0	15228.0	-305584.0
28	17	53	48	236	213.0	-208321.0	15201.0	-304884.0
28	17	53	48	237	214.0	-207911.0	15165.0	-304942.0
28	17	53	48	238	235.0	-207782.0	14154.0	-304622.0
28	17	53	48	239	2.0	-204101.0	12656.0	-307622.0
28	17	53	48	240	3.0	-204771.0	12579.0	-306945.0
28	17	53	48	241	4.0	-205817.0	12509.0	-305515.0
28	17	53	48	241	5.0	-206686.0	12439.0	-303014.0
28	17	53	48	242	6.0	-207346.0	12384.0	-301599.0
28	17	53	48	242	7.0	-208237.0	12325.0	-301681.0
28	17	53	48	243	8.0	-208043.0	12259.0	-301843.0
28	17	53	48	273	9.0	-206892.0	12208.0	-302521.0
28	17	53	48	274	10.0	-204726.0	12138.0	-302996.0
28	17	53	48	274	11.0	-202367.0	12089.0	-303465.0
28	17	53	48	275	12.0	-200871.0	12037.0	-303565.0
28	17	53	48	275	13.0	-200287.0	11930.0	-302626.0
28	17	53	48	276	14.0	-200908.0	11842.0	-300742.0
28	17	53	48	277	15.0	-202679.0	11761.0	-298615.0
28	17	53	48	277	16.0	-205164.0	11711.0	-296814.0
28	17	53	48	278	17.0	-207334.0	11638.0	-296200.0
28	17	53	48	279	18.0	-209309.0	11578.0	-295572.0
28	17	53	48	279	19.0	-210372.0	11498.0	-295749.0
28	17	53	48	280	20.0	-209174.0	11433.0	-295949.0
28	17	53	48	280	21.0	-206109.0	11349.0	-296443.0
28	17	53	48	281	22.0	-202259.0	11276.0	-296132.0
28	17	53	48	282	23.0	-197527.0	11206.0	-294699.0
28	17	53	48	282	24.0	-192519.0	11114.0	-292730.0
28	17	53	48	283	25.0	-188541.0	11026.0	-289927.0
28	17	53	48	283	26.0	-185933.0	10978.0	-288414.0
28	17	53	48	284	27.0	-183440.0	10914.0	-288171.0
28	17	53	48	285	28.0	-182063.0	10863.0	-287681.0
28	17	53	48	285	29.0	-181644.0	10797.0	-288032.0
28	17	53	48	286	30.0	-181823.0	10736.0	-288673.0
28	17	53	48	318	31.0	-183747.0	10673.0	-288758.0
28	17	53	48	318	32.0	-186618.0	10583.0	-288411.0
28	17	53	48	319	33.0	-189599.0	10504.0	-287319.0
28	17	53	48	320	34.0	-193075.0	10423.0	-285277.0
28	17	53	48	320	35.0	-197686.0	10339.0	-283239.0
28	17	53	48	321	36.0	-202027.0	10290.0	-281927.0
28	17	53	48	322	37.0	-205540.0	10229.0	-281392.0
28	17	53	48	322	38.0	-209299.0	10166.0	-281986.0
28	17	53	48	323	39.0	-211832.0	10124.0	-282866.0
28	17	53	48	323	40.0	-212637.0	10049.0	-283587.0
28	17	53	48	324	41.0	-212544.0	9986.0	-283644.0
28	17	53	48	325	42.0	-212331.0	9899.0	-283941.0
28	17	53	48	325	43.0	-212884.0	9816.0	-282932.0
28	17	53	48	326	44.0	-212796.0	9754.0	-280673.0
28	17	53	48	327	45.0	-210676.0	9703.0	-278157.0
28	17	53	48	327	47.0	-197309.0	9584.0	-276641.0
28	17	53	48	328	48.0	-189324.0	9521.0	-276178.0
28	17	53	48	328	49.0	-181016.0	9478.0	-277242.0
28	17	53	48	329	50.0	-175496.0	9417.0	-278490.0
28	17	53	48	330	51.0	-174211.0	9369.0	-279652.0
28	17	53	48	330	52.0	-174346.0	9298.0	-279986.0
28	17	53	48	362	53.0	-174092.0	9228.0	-278527.0
28	17	53	48	363	54.0	-173924.0	9154.0	-276514.0
28	17	53	48	363	55.0	-174286.0	9104.0	-274737.0
28	17	53	48	364	56.0	-172863.0	9071.0	-273976.0
28	17	53	48	365	57.0	-168242.0	9007.0	-273912.0
28	17	53	48	365	58.0	-162480.0	8954.0	-274525.0
28	17	53	48	366	59.0	-155674.0	8904.0	-275622.0
28	17	53	48	366	60.0	-147930.0	8838.0	-276263.0
28	17	53	48	367	61.0	-140369.0	8776.0	-276965.0
28	17	53	48	368	62.0	-134830.0	8720.0	-277365.0
28	17	53	48	368	63.0	-131932.0	8642.0	-275942.0
28	17	53	48	369	64.0	-132051.0	8572.0	-273563.0
28	17	53	48	370	65.0	-135373.0	8524.0	-271697.0
28	17	53	48	370	66.0	-140813.0	8484.0	-270770.0
28	17	53	48	371	67.0	-146689.0	8406.0	-270816.0
28	17	53	48	371	69.0	-155567.0	8294.0	-271725.0
28	17	53	48	372	70.0	-158442.0	8217.0	-273097.0
28	17	53	48	373	71.0	-161086.0	8129.0	-273670.0
28	17	53	48	374	72.0	-163797.0	8023.0	-273811.0
28	17	53	48	374	73.0	-166769.0	7923.0	-273033.0
28	17	53	48	375	74.0	-170900.0	7844.0	-271150.0
28	17	53	48	408	75.0	-177598.0	7755.0	-269270.0
28	17	53	48	409	76.0	-188657.0	7646.0	-268757.0
28	17	53	48	409	77.0	-203216.0	7541.0	-269331.0
28	17	53	48	410	78.0	-218330.0	7439.0	-269400.0
28	17	53	48	410	79.0	-232228.0	7327.0	-270129.0
28	17	53	48	411	80.0	-242816.0	7187.0	-271051.0
28	17	53	48	412	81.0	-249282.0	7049.0	-271461.0
28	17	53	48	412	82.0	-251006.0	6939.0	-271378.0
28	17	53	48	413	83.0	-247621.0	6775.0	-269887.0
28	17	53	48	413	84.0	-239702.0	6626.0	-267775.0
28	17	53	48	452	85.0	-229462.0	6504.0	-265845.0
28	17	53	48	453	86.0	-218274.0	6359.0	-265582.0
28	17	53	48	454	87.0	-206957.0	6253.0	-265922.0
28	17	53	48	455	88.0	-196672.0	6108.0	-266234.0
28	17	53	48	455	89.0	-187779.0	5988.0	-267574.0
28	17	53	48	456	92.0	-168773.0	5606.0	-268841.0
28	17	53	48	457	93.0	-164995.0	5474.0	-268017.0
28	17	53	48	457	94.0	-162267.0	5336.0	-265997.0
28	17	53	48	458	95.0	-159591.0	5211.0	-264259.0
28	17	53	48	459	96.0	-156651.0	5081.0	-263914.0
28	17	53	48	459	97.0	-153106.0	4974.0	-264539.0
28	17	53	48	460	98.0	-149714.0	4874.0	-264920.0
28	17	53	48	460	99.0	-146464.0	4764.0	-265452.0
28	17	53	48	461	100.0	-143090.0	4641.0	-266383.0
28	17	53	48	462	101.0	-139724.0	4528.0	-267314.0
28	17	53	48	462	102.0	-136326.0	4403.0	-266984.0
28	17	53	48	463	114.0	-132566.0	3166.0	-261832.0
28	17	53	48	464	115.0	-135430.0	3052.0	-260204.0
28	17	53	48	464	116.0	-137989.0	2970.0	-259791.0
28	17	53	48	465	117.0	-139969.0	2879.0	-259361.0
28	17	53	48	466	118.0	-141501.0	2778.0	-259501.0
28	17	53	48	466	119.0	-142849.0	2674.0	-260369.0
28	17	53	48	467	120.0	-143896.0	2571.0	-261596.0
28	17	53	48	498	121.0	-145153.0	2466.0	-262658.0
28	17	53	48	498	122.0	-146648.0	2343.0	-262412.0
28	17	53	48	499	123.0	-147822.0	2218.0	-260784.0
28	17	53	48	500	124.0	-149580.0	2099.0	-258722.0
28	17	53	48	501	125.0	-151941.0	1982.0	-256711.0
28	17	53	48	501	126.0	-154424.0	1871.0	-256276.0
28	17	53	48	502	127.0	-156872.0	1747.0	-256585.0
28	17	53	48	503	128.0	-160029.0	1639.0	-257237.0
28	17	53	48	503	129.0	-163714.0	1535.0	-258323.0
28	17	53	48	504	130.0	-167411.0	1390.0	-259732.0
28	17	53	48	505	131.0	-171429.0	1246.0	-261054.0
28	17	53	48	505	132.0	-174700.0	1105.0	-261216.0
28	17	53	48	506	133.0	-177277.0	952.0	-259589.0
28	17	53	48	507	134.0	-179259.0	809.0	-256744.0
28	17	53	48	507	135.0	-179549.0	705.0	-254912.0
28	17	53	48	508	136.0	-176126.0	572.0	-254411.0
28	17	53	48	508	137.0	-171302.0	424.0	-253929.0
28	17	53	48	509	138.0	-169744.0	313.0	-254897.0
28	17	53	48	510	139.0	-167626.0	187.0	-256033.0
28	17	53	48	510	140.0	-165211.0	42.0	-257569.0
28	17	53	48	511	141.0	-163759.0	-84.0	-259989.0
28	17	53	48	511	142.0	-164057.0	-234.0	-260860.0
28	17	53	48	542	143.0	-164061.0	-379.0	-259056.0
28	17	53	48	543	144.0	-164333.0	-502.0	-255960.0
28	17	53	48	544	145.0	-165584.0	-637.0	-254268.0
28	17	53	48	544	146.0	-166757.0	-747.0	-254077.0
28	17	53	48	545	147.0	-168599.0	-850.0	-254025.0
28	17	53	48	546	148.0	-170392.0	-977.0	-254712.0
28	17	53	48	546	149.0	-172286.0	-1100.0	-256208.0
28	17	53	48	547	150.0	-174099.0	-1218.0	-257240.0
28	17	53	48	548	151.0	-176044.0	-1325.0	-257942.0
28	17	53	48	548	152.0	-178042.0	-1439.0	-257166.0
28	17	53	48	549	153.0	-179971.0	-1574.0	-255154.0
28	17	53	48	550	154.0	-181651.0	-1686.0	-252715.0
28	17	53	48	550	155.0	-183641.0	-1807.0	-250876.0
28	17	53	48	551	156.0	-186286.0	-1917.0	-250854.0
28	17	53	48	552	157.0	-189149.0	-2014.0	-251157.0
28	17	53	48	552	159.0	-195688.0	-2202.0	-253077.0
28	17	53	48	553	160.0	-199000.0	-2301.0	-254328.0
28	17	53	48	554	161.0	-201700.0	-2397.0	-254907.0
28	17	53	48	554	162.0	-203358.0	-2504.0	-254433.0
28	17	53	48	555	163.0	-204042.0	-2621.0	-253066.0
28	17	53	48	555	164.0	-204275.0	-2714.0	-249973.0
28	17	53	48	587	165.0	-204458.0	-2804.0	-247152.0
28	17	53	48	588	166.0	-205303.0	-2911.0	-247156.0
28	17	53	48	589	167.0	-206429.0	-3007.0	-247586.0
28	17	53	48	589	168.0	-207382.0	-3099.0	-247857.0
28	17	53	48	590	169.0	-208028.0	-3185.0	-249050.0
28	17	53	48	591	170.0	-208387.0	-3287.0	-249906.0
28	17	53	48	591	171.0	-208415.0	-3369.0	-250724.0
28	17	53	48	592	172.0	-208428.0	-3468.0	-250091.0
28	17	53	48	593	173.0	-208210.0	-3583.0	-247666.0
28	17	53	48	593	174.0	-207679.0	-3682.0	-243929.0
28	17	53	48	594	175.0	-207172.0	-3764.0	-241424.0
28	17	53	48	594	176.0	-206696.0	-3859.0	-240987.0
28	17	53	48	595	177.0	-206244.0	-3933.0	-241034.0
28	17	53	48	596	178.0	-206834.0	-4016.0	-241524.0
28	17	53	48	597	179.0	-208528.0	-4118.0	-242804.0
28	17	53	48	597	181.0	-212052.0	-4302.0	-244351.0
28	17	53	48	598	182.0	-213192.0	-4422.0	-243422.0
28	17	53	48	598	183.0	-213282.0	-4520.0	-240468.0
28	17	53	48	599	184.0	-213715.0	-4612.0	-237002.0
28	17	53	48	600	185.0	-214699.0	-4701.0	-234166.0
28	17	53	48	600	186.0	-215255.0	-4771.0	-233209.0
28	17	53	48	601	187.0	-215394.0	-4859.0	-233277.0
28	17	53	48	679	188.0	-214986.0	-4936.0	-233766.0
28	17	53	48	679	189.0	-214116.0	-5010.0	-234102.0
28	17	53	48	680	190.0	-213111.0	-5113.0	-233941.0
28	17	53	48	681	191.0	-212348.0	-5208.0	-234112.0
28	17	53	48	682	192.0	-211515.0	-5292.0	-232849.0
28	17	53	48	682	193.0	-210611.0	-5402.0	-229615.0
28	17	53	48	683	194.0	-210576.0	-5477.0	-225199.0
28	17	53	48	684	195.0	-211212.0	-5564.0	-222456.0
28	17	53	48	684	196.0	-212985.0	-5651.0	-221576.0
28	17	53	48	685	197.0	-215150.0	-5722.0	-221281.0
28	17	53	48	686	198.0	-217497.0	-5805.0	-221544.0
28	17	53	48	686	199.0	-219591.0	-5906.0	-223198.0
28	17	53	48	687	200.0	-221311.0	-5982.0	-224019.0
28	17	53	48	688	201.0	-222804.0	-6057.0	-224116.0
28	17	53	48	688	202.0	-224301.0	-6151.0	-222290.0
28	17	53	48	689	204.0	-229056.0	-6312.0	-214087.0
28	17	53	48	689	226.0	-223186.0	-7750.0	-192966.0
28	17	53	48	690	227.0	-223686.0	-7802.0	-193001.0
28	17	53	48	691	228.0	-225738.0	-7839.0	-194104.0
28	17	53	48	691	229.0	-228929.0	-7857.0	-195724.0
28	17	53	48	692	230.0	-232087.0	-7894.0	-197117.0
28	17	53	48	692	231.0	-235074.0	-7939.0	-197401.0
28	17	53	48	693	232.0	-237502.0	-7989.0	-195689.0
28	17	53	48	723	233.0	-239740.0	-8032.0	-191445.0
28	17	53	48	724	234.0	-241386.0	-8047.0	-187541.0
28	17	53	48	725	235.0	-242211.0	-8062.0	-185904.0
28	17	53	48	726	236.0	-243304.0	-8096.0	-185965.0
28	17	53	48	726	237.0	-244491.0	-8109.0	-185518.0
28	17	53	48	727	238.0	-246066.0	-8126.0	-186593.0
28	17	53	48	728	239.0	-247976.0	-8159.0	-188196.0
28	17	53	48	728	240.0	-250251.0	-8152.0	-189010.0
28	17	53	48	729	241.0	-252773.0	-8192.0	-189163.0
28	17	53	48	730	242.0	-255195.0	-8226.0	-188017.0
28	17	53	48	730	243.0	-257311.0	-8254.0	-185242.0
28	17	53	48	731	244.0	-258887.0	-8265.0	-182119.0
28	17	53	48	731	245.0	-259752.0	-8288.0	-180747.0
28	17	53	48	732	246.0	-259594.0	-8294.0	-181939.0
28	17	53	48	734	247.0	-259620.0	-8296.0	-183674.0
28	17	53	48	734	249.0	-259317.0	-8286.0	-190467.0
28	17	53	48	735	250.0	-258513.0	-8302.0	-194141.0
28	17	53	48	736	251.0	-257832.0	-8302.0	-196746.0
28	17	53	48	736	252.0	-257141.0	-8311.0	-196561.0
28	17	53	48	737	253.0	-256430.0	-8306.0	-194521.0
28	17	53	48	737	254.0	-256026.0	-8303.0	-191694.0
28	17	53	48	768	255.0	-255462.0	-8291.0	-188926.0
28	17	53	48	769	0.0	-254836.0	-8282.0	-186429.0
28	17	53	48	769	1.0	-254396.0	-8276.0	-183741.0
28	17	53	48	770	2.0	-254189.0	-8251.0	-181008.0
28	17	53	48	771	3.0	-254299.0	-8229.0	-179177.0
28	17	53	48	771	4.0	-254897.0	-8242.0	-176332.0
28	17	53	48	772	5.0	-255977.0	-8248.0	-170856.0
28	17	53	48	773	6.0	-257854.0	-8231.0	-165450.0
28	17	53	48	773	7.0	-260577.0	-8217.0	-160739.0
28	17	53	48	774	8.0	-263234.0	-8198.0	-157942.0
28	17	53	48	775	9.0	-265347.0	-8165.0	-158357.0
28	17	53	48	776	10.0	-266874.0	-8124.0	-160667.0
28	17	53	48	777	11.0	-267372.0	-8100.0	-163716.0
28	17	53	48	777	12.0	-266964.0	-8094.0	-166819.0
28	17	53	48	778	13.0	-265824.0	-8083.0	-169369.0
28	17	53	48	779	15.0	-259470.0	-8062.0	-172779.0
28	17	53	48	779	16.0	-253954.0	-8045.0	-171264.0
28	17	53	48	780	17.0	-247833.0	-8021.0	-168029.0
28	17	53	48	780	18.0	-239092.0	-7997.0	-165016.0
28	17	53	48	781	19.0	-227617.0	-7968.0	-163261.0
28	17	53	48	782	20.0	-214900.0	-7937.0	-163514.0
28	17	53	48	811	21.0	-202714.0	-7912.0	-164646.0
28	17	53	48	812	22.0	-193280.0	-7871.0	-165866.0
28	17	53	48	813	23.0	-187691.0	-7850.0	-166954.0
28	17	53	48	814	24.0	-186551.0	-7831.0	-167941.0
28	17	53	48	814	25.0	-188669.0	-7806.0	-168189.0
28	17	53	48	815	26.0	-193936.0	-7805.0	-166835.0
28	17	53	48	816	27.0	-201003.0	-7782.0	-163724.0
28	17	53	48	816	28.0	-209093.0	-7759.0	-160384.0
28	17	53	48	817	29.0	-217949.0	-7722.0	-159014.0
28	17	53	48	818	30.0	-225851.0	-7691.0	-159023.0
28	17	53	48	818	31.0	-231866.0	-7671.0	-159444.0
28	17	53	48	819	32.0	-235814.0	-7647.0	-161019.0
28	17	53	48	820	33.0	-235928.0	-7626.0	-162429.0
28	17	53	48	820	34.0	-232016.0	-7594.0	-163237.0
28	17	53	48	821	35.0	-224738.0	-7578.0	-163984.0
28	17	53	48	822	37.0	-205847.0	-7547.0	-158588.0
28	17	53	48	822	38.0	-197814.0	-7541.0	-154686.0
28	17	53	48	823	39.0	-192846.0	-7502.0	-153906.0
28	17	53	48	824	40.0	-191591.0	-7462.0	-154383.0
28	17	53	48	824	41.0	-193642.0	-7427.0	-154423.0
28	17	53	48	825	42.0	-198062.0	-7383.0	-156241.0
28	17	53	48	825	43.0	-202915.0	-7352.0	-157413.0
28	17	53	48	857	44.0	-207844.0	-7331.0	-158504.0
28	17	53	48	902	45.0	-213092.0	-7317.0	-159049.0
28	17	53	48	903	46.0	-218723.0	-7297.0	-157252.0
28	17	53	48	903	47.0	-224884.0	-7280.0	-154026.0
28	17	53	48	904	48.0	-230634.0	-7256.0	-151264.0
28	17	53	48	905	49.0	-234702.0	-7222.0	-149822.0
28	17	53	48	905	50.0	-237506.0	-7192.0	-150277.0
28	17	53	48	906	51.0	-239015.0	-7146.0	-151234.0
28	17	53	48	906	52.0	-240378.0	-7114.0	-153374.0
28	17	53	48	907	53.0	-241353.0	-7104.0	-155047.0
28	17	53	48	907	54.0	-242036.0	-7075.0	-155846.0
28	17	53	48	908	55.0	-242138.0	-7048.0	-156291.0
28	17	53	48	909	56.0	-242216.0	-7043.0	-154448.0
28	17	53	48	909	57.0	-241964.0	-7030.0	-150557.0
28	17	53	48	910	58.0	-242516.0	-7012.0	-147264.0
28	17	53	48	911	60.0	-243666.0	-6906.0	-146414.0
28	17	53	48	912	82.0	-209533.0	-6307.0	-146602.0
28	17	53	48	912	83.0	-207289.0	-6300.0	-148326.0
28	17	53	48	913	84.0	-205675.0	-6283.0	-149611.0
28	17	53	48	913	85.0	-204741.0	-6275.0	-150007.0
28	17	53	48	914	86.0	-204332.0	-6269.0	-148001.0
28	17	53	48	914	87.0	-204342.0	-6267.0	-145067.0
28	17	53	48	915	88.0	-204749.0	-6247.0	-142469.0
28	17	53	48	948	89.0	-204377.0	-6237.0	-142215.0
28	17	53	48	948	90.0	-204347.0	-6208.0	-143162.0
28	17	53	48	949	91.0	-203857.0	-6211.0	-144414.0
28	17	53	48	950	92.0	-203539.0	-6197.0	-145858.0
28	17	53	48	950	93.0	-203242.0	-6202.0	-147678.0
28	17	53	48	951	94.0	-203179.0	-6217.0	-149042.0
28	17	53	48	952	95.0	-202676.0	-6254.0	-149419.0
28	17	53	48	952	96.0	-202060.0	-6260.0	-147106.0
28	17	53	48	953	97.0	-201336.0	-6267.0	-144121.0
28	17	53	48	953	98.0	-201228.0	-6275.0	-141737.0
28	17	53	48	954	99.0	-200631.0	-6274.0	-141082.0
28	17	53	48	955	100.0	-199394.0	-6274.0	-141634.0
28	17	53	48	955	101.0	-197856.0	-6276.0	-143717.0
28	17	53	48	956	102.0	-196457.0	-6283.0	-146209.0
28	17	53	48	956	103.0	-194417.0	-6276.0	-148021.0
28	17	53	48	957	105.0	-191062.0	-6331.0	-149763.0
28	17	53	48	958	106.0	-189753.0	-6359.0	-148199.0
28	17	53	48	958	107.0	-188539.0	-6380.0	-144807.0
28	17	53	48	959	108.0	-186692.0	-6381.0	-142208.0
28	17	53	48	959	109.0	-184642.0	-6384.0	-142167.0
28	17	53	48	960	110.0	-182161.0	-6407.0	-142572.0
28	17	53	48	992	111.0	-178901.0	-6419.0	-143859.0
28	17	53	48	993	112.0	-176176.0	-6433.0	-146000.0
28	17	53	48	993	113.0	-173481.0	-6474.0	-148236.0
28	17	53	48	994	114.0	-170193.0	-6495.0	-150271.0
28	17	53	48	995	115.0	-165962.0	-6510.0	-150162.0
28	17	53	48	995	116.0	-161717.0	-6559.0	-147642.0
28	17	53	48	996	117.0	-158232.0	-6582.0	-143956.0
28	17	53	48	996	118.0	-155246.0	-6588.0	-141520.0
28	17	53	48	997	119.0	-153824.0	-6587.0	-141562.0
28	17	53	48	997	120.0	-153427.0	-6617.0	-141712.0
28	17	53	48	998	121.0	-153294.0	-6641.0	-143202.0
28	17	53	48	999	122.0	-152439.0	-6666.0	-145447.0
28	17	53	48	999	123.0	-152375.0	-6680.0	-146814.0
28	17	53	49	0	124.0	-152789.0	-6711.0	-148408.0
28	17	53	49	0	125.0	-153688.0	-6747.0	-148174.0
28	17	53	49	1	127.0	-152697.0	-6838.0	-141501.0
28	17	53	49	2	128.0	-152032.0	-6867.0	-139049.0
28	17	53	49	2	129.0	-152435.0	-6868.0	-138759.0
28	17	53	49	3	130.0	-154334.0	-6907.0	-138790.0
28	17	53	49	4	131.0	-156939.0	-6940.0	-138717.0
28	17	53	49	5	132.0	-160448.0	-6951.0	-139901.0
28	17	53	49	5	133.0	-164607.0	-6986.0	-141362.0
28	17	53	49	37	134.0	-165900.0	-7024.0	-142141.0
28	17	53	49	38	135.0	-165343.0	-7062.0	-140761.0
28	17	53	49	38	136.0	-165747.0	-7123.0	-137684.0
28	17	53	49	39	137.0	-167104.0	-7166.0	-133890.0
28	17	53	49	40	138.0	-162960.0	-7208.0	-130471.0
28	17	53	49	40	139.0	-137760.0	-7309.0	-129791.0
28	17	53	49	41	140.0	-155141.0	-7496.0	-130044.0
28	17	53	49	41	141.0	-179324.0	-7717.0	-130891.0
28	17	53	49	42	142.0	-197839.0	-7968.0	-132273.0
28	17	53	49	43	143.0	-200908.0	-8184.0	-132946.0
28	17	53	49	43	144.0	-184151.0	-8436.0	-133478.0
28	17	53	49	44	145.0	-183971.0	-8746.0	-132584.0
28	17	53	49	44	146.0	-195837.0	-9082.0	-129711.0
28	17	53	49	45	147.0	-204623.0	-9399.0	-125878.0
28	17	53	49	45	148.0	-200569.0	-9707.0	-123271.0
28	17	53	49	46	150.0	-183243.0	-10426.0	-122836.0
28	17	53	49	47	151.0	-195843.0	-10804.0	-123831.0
28	17	53	49	47	152.0	-195708.0	-11199.0	-125474.0
28	17	53	49	48	153.0	-176480.0	-11611.0	-127270.0
28	17	53	49	48	154.0	-177363.0	-12022.0	-128499.0
28	17	53	49	49	155.0	-186152.0	-12450.0	-127347.0
28	17	53	49	128	156.0	-173988.0	-12896.0	-124421.0
28	17	53	49	129	157.0	-160979.0	-13342.0	-120730.0
28	17	53	49	130	158.0	-161099.0	-13784.0	-118237.0
28	17	53	49	130	159.0	-160306.0	-14209.0	-118255.0
28	17	53	49	131	160.0	-156166.0	-14636.0	-119304.0
28	17	53	49	132	161.0	-152679.0	-15074.0	-120568.0
28	17	53	49	132	162.0	-147539.0	-15511.0	-123078.0
28	17	53	49	133	163.0	-141416.0	-15917.0	-124897.0
28	17	53	49	133	164.0	-131393.0	-16332.0	-126436.0
28	17	53	49	134	165.0	-120268.0	-16731.0	-125678.0
28	17	53	49	134	166.0	-106783.0	-17114.0	-122734.0
28	17	53	49	135	167.0	-89326.0	-17486.0	-119006.0
28	17	53	49	136	168.0	-75912.0	-17829.0	-116340.0
28	17	53	49	136	169.0	-64939.0	-18159.0	-115453.0
28	17	53	49	137	170.0	-54146.0	-18491.0	-115334.0
28	17	53	49	174	194.0	-121812.0	-23000.0	-114769.0
28	17	53	49	174	195.0	-111644.0	-23036.0	-113838.0
28	17	53	49	175	196.0	-102045.0	-23062.0	-110911.0
28	17	53	49	176	197.0	-96056.0	-23095.0	-106983.0
28	17	53	49	217	198.0	-95256.0	-23131.0	-104706.0
28	17	53	49	217	199.0	-95405.0	-23174.0	-104607.0
28	17	53	49	264	200.0	-93526.0	-23209.0	-104582.0
28	17	53	49	353	201.0	-90097.0	-23203.0	-106044.0
28	17	53	49	354	202.0	-71507.0	-23116.0	-108189.0
28	17	53	49	354	203.0	-79330.0	-22994.0	-109079.0
28	17	53	49	355	204.0	-94571.0	-22899.0	-109806.0
28	17	53	49	356	205.0	-105951.0	-22818.0	-107530.0
28	17	53	49	357	206.0	-110941.0	-22771.0	-104231.0
28	17	53	49	357	207.0	-111235.0	-22737.0	-100482.0
28	17	53	49	358	208.0	-111421.0	-22716.0	-98132.0
28	17	53	49	359	217.0	-172962.0	-23341.0	-94557.0
28	17	53	49	360	218.0	-179248.0	-23546.0	-92182.0
28	17	53	49	360	219.0	-192573.0	-23787.0	-92177.0
28	17	53	49	361	220.0	-203789.0	-24032.0	-92950.0
28	17	53	49	362	221.0	-196396.0	-24372.0	-94897.0
28	17	53	49	362	240.0	-205954.0	-41563.0	-82502.0
28	17	53	49	363	6.0	-312064.0	-46327.0	-80757.0
28	17	53	49	364	28.0	-282656.0	-24075.0	-81026.0
28	17	53	49	365	51.0	-226977.0	-5954.0	-77796.0
28	17	53	49	366	52.0	-226800.0	-5316.0	-77148.0
28	17	53	49	366	53.0	-227538.0	-4689.0	-78019.0
28	17	53	49	367	54.0	-230112.0	-4048.0	-79696.0
28	17	53	49	368	55.0	-234282.0	-3444.0	-81946.0
28	17	53	49	368	56.0	-239631.0	-2841.0	-84717.0
28	17	53	49	398	57.0	-246820.0	-2231.0	-87410.0
28	17	53	49	443	58.0	-252015.0	-1686.0	-88614.0
28	17	53	49	443	59.0	-253653.0	-1137.0	-86733.0
28	17	53	49	444	60.0	-238762.0	-611.0	-83264.0
28	17	53	49	445	61.0	-244601.0	-197.0	-80494.0
28	17	53	49	445	62.0	-246924.0	107.0	-79834.0
28	17	53	49	446	63.0	-247671.0	287.0	-80391.0
28	17	53	49	456	64.0	-244401.0	320.0	-81321.0
28	17	53	49	457	65.0	-240258.0	324.0	-83739.0
28	17	53	49	457	66.0	-237403.0	282.0	-85879.0
28	17	53	49	458	67.0	-234276.0	234.0	-88300.0
28	17	53	49	458	68.0	-232723.0	125.0	-88935.0
28	17	53	49	459	69.0	-232614.0	-19.0	-86689.0
28	17	53	49	460	70.0	-232101.0	-169.0	-83501.0
28	17	53	49	460	71.0	-232644.0	-337.0	-81214.0
28	17	53	49	461	73.0	-232141.0	-728.0	-81485.0
28	17	53	49	461	74.0	-227386.0	-930.0	-82687.0
28	17	53	49	462	96.0	-216239.0	-9061.0	-84627.0
28	17	53	49	462	97.0	-209997.0	-9574.0	-86391.0
28	17	53	49	463	98.0	-206057.0	-10071.0	-86430.0
28	17	53	49	463	99.0	-203943.0	-10548.0	-83982.0
28	17	53	49	464	100.0	-203308.0	-11017.0	-79816.0
28	17	53	49	465	101.0	-204334.0	-11438.0	-77817.0
28	17	53	49	488	102.0	-205496.0	-11838.0	-77693.0
28	17	53	49	489	103.0	-205971.0	-12235.0	-78232.0
28	17	53	49	489	104.0	-205168.0	-12633.0	-79712.0
28	17	53	49	490	105.0	-203021.0	-13008.0	-82324.0
28	17	53	49	490	106.0	-199523.0	-13367.0	-84501.0
28	17	53	49	491	107.0	-195581.0	-13718.0	-85861.0
28	17	53	49	492	108.0	-192671.0	-14052.0	-85707.0
28	17	53	49	492	109.0	-190066.0	-14394.0	-83284.0
28	17	53	49	493	110.0	-187665.0	-14712.0	-79730.0
28	17	53	49	493	111.0	-185313.0	-15010.0	-77284.0
28	17	53	49	494	112.0	-183681.0	-15279.0	-77292.0
28	17	53	49	495	113.0	-183106.0	-15515.0	-78108.0
28	17	53	49	495	114.0	-183421.0	-15760.0	-79388.0
28	17	53	49	496	115.0	-170429.0	-16030.0	-82167.0
28	17	53	49	497	116.0	-164112.0	-16374.0	-84324.0
28	17	53	49	497	118.0	-186767.0	-17446.0	-87299.0
28	17	53	49	498	119.0	-190067.0	-18014.0	-86327.0
28	17	53	49	499	120.0	-194330.0	-18567.0	-84053.0
28	17	53	49	499	121.0	-200246.0	-19078.0	-83147.0
28	17	53	49	500	122.0	-207177.0	-19549.0	-85511.0
28	17	53	49	500	123.0	-214725.0	-19998.0	-88343.0
28	17	53	49	578	124.0	-223259.0	-20444.0	-91486.0
28	17	53	49	579	125.0	-232198.0	-20877.0	-95283.0
28	17	53	49	580	126.0	-240794.0	-21287.0	-98388.0
28	17	53	49	580	127.0	-248732.0	-21687.0	-100837.0
28	17	53	49	581	128.0	-255876.0	-22061.0	-100428.0
28	17	53	49	582	129.0	-259337.0	-22431.0	-96487.0
28	17	53	49	582	130.0	-242472.0	-22827.0	-89479.0
28	17	53	49	583	131.0	-238847.0	-23319.0	-82784.0
28	17	53	49	584	132.0	-246360.0	-23967.0	-79934.0
28	17	53	49	584	133.0	-247826.0	-24730.0	-75682.0
28	17	53	49	585	134.0	-244155.0	-25530.0	-71854.0
28	17	53	49	585	135.0	-237422.0	-26330.0	-70758.0
28	17	53	49	586	136.0	-229967.0	-27131.0	-71634.0
28	17	53	49	587	137.0	-224638.0	-27939.0	-73787.0
28	17	53	49	587	138.0	-223764.0	-28813.0	-75205.0
28	17	53	49	588	140.0	-219271.0	-30598.0	-75187.0
28	17	53	49	588	163.0	-205656.0	-46512.0	-78104.0
28	17	53	49	589	164.0	-195744.0	-46955.0	-80421.0
28	17	53	49	590	165.0	-187508.0	-47374.0	-82241.0
28	17	53	49	590	166.0	-179194.0	-47801.0	-83644.0
28	17	53	49	591	167.0	-174521.0	-48197.0	-85374.0
28	17	53	49	591	168.0	-174311.0	-48592.0	-84767.0
28	17	53	49	653	169.0	-176690.0	-48969.0	-82092.0
28	17	53	49	653	170.0	-183496.0	-49319.0	-78697.0
28	17	53	49	654	171.0	-192696.0	-49630.0	-77210.0
28	17	53	49	655	172.0	-200462.0	-49951.0	-77395.0
28	17	53	49	655	173.0	-206263.0	-50257.0	-78156.0
28	17	53	49	656	174.0	-206156.0	-50544.0	-80112.0
28	17	53	49	657	175.0	-213299.0	-50840.0	-82739.0
28	17	53	49	657	176.0	-224382.0	-51149.0	-84554.0
28	17	53	49	658	177.0	-229003.0	-51466.0	-85590.0
28	17	53	49	659	178.0	-229407.0	-51757.0	-85106.0
28	17	53	49	659	179.0	-228820.0	-52044.0	-82536.0
28	17	53	49	660	180.0	-226528.0	-52289.0	-79008.0
28	17	53	49	660	181.0	-219918.0	-52544.0	-77509.0
28	17	53	49	661	182.0	-219077.0	-52772.0	-77859.0
28	17	53	49	662	183.0	-222726.0	-53002.0	-78782.0
28	17	53	49	662	193.0	-209990.0	-54984.0	-80697.0
28	17	53	49	663	200.0	-240600.0	-55941.0	-80701.0
28	17	53	49	663	201.0	-244992.0	-56068.0	-79206.0
28	17	53	49	664	202.0	-249942.0	-56178.0	-79962.0
28	17	53	49	672	203.0	-254863.0	-56271.0	-81060.0
28	17	53	49	673	204.0	-259784.0	-56349.0	-83507.0
28	17	53	49	673	205.0	-263971.0	-56425.0	-85699.0
28	17	53	49	674	206.0	-266306.0	-56495.0	-87606.0
28	17	53	49	675	207.0	-267226.0	-56584.0	-88839.0
28	17	53	49	675	208.0	-267904.0	-56692.0	-88001.0
28	17	53	49	697	209.0	-266507.0	-56769.0	-85488.0
28	17	53	49	697	210.0	-263967.0	-56839.0	-82436.0
28	17	53	49	698	211.0	-262332.0	-56889.0	-81446.0
28	17	53	49	699	212.0	-259695.0	-56936.0	-82137.0
28	17	53	49	699	213.0	-255554.0	-56975.0	-83191.0
28	17	53	49	700	214.0	-250501.0	-57029.0	-86023.0
28	17	53	49	700	215.0	-245043.0	-57076.0	-87919.0
28	17	53	49	701	216.0	-239595.0	-57126.0	-89821.0
28	17	53	49	702	217.0	-234701.0	-57165.0	-91178.0
28	17	53	49	702	218.0	-229574.0	-57217.0	-90221.0
28	17	53	49	703	219.0	-224139.0	-57251.0	-87210.0
28	17	53	49	703	220.0	-219268.0	-57261.0	-84269.0
28	17	53	49	704	221.0	-214336.0	-57298.0	-83251.0
28	17	53	49	704	222.0	-208771.0	-57317.0	-83721.0
28	17	53	49	705	223.0	-204342.0	-57323.0	-84664.0
28	17	53	49	727	224.0	-201560.0	-57341.0	-87527.0
28	17	53	49	728	225.0	-199014.0	-57329.0	-89411.0
28	17	53	49	729	226.0	-197429.0	-57331.0	-90704.0
28	17	53	49	729	227.0	-196250.0	-57330.0	-91288.0
28	17	53	49	730	228.0	-194406.0	-57343.0	-90207.0
28	17	53	49	730	229.0	-193609.0	-57351.0	-87597.0
28	17	53	49	731	230.0	-193850.0	-57346.0	-85101.0
28	17	53	49	732	231.0	-195581.0	-57300.0	-84721.0
28	17	53	49	732	232.0	-199047.0	-57285.0	-85331.0
28	17	53	49	733	233.0	-202624.0	-57246.0	-86867.0
28	17	53	49	734	234.0	-206435.0	-57186.0	-89407.0
28	17	53	49	734	235.0	-211128.0	-57156.0	-92091.0
28	17	53	49	735	236.0	-215217.0	-57108.0	-94049.0
28	17	53	49	736	237.0	-219147.0	-57062.0	-95593.0
28	17	53	49	736	238.0	-223849.0	-57021.0	-94928.0
28	17	53	49	737	239.0	-228748.0	-56966.0	-92141.0
28	17	53	49	738	240.0	-233259.0	-56898.0	-88689.0
28	17	53	49	738	241.0	-236994.0	-56824.0	-87717.0
28	17	53	49	739	242.0	-239914.0	-56717.0	-88577.0
28	17	53	49	747	243.0	-242014.0	-56609.0	-89631.0
28	17	53	49	747	244.0	-243339.0	-56494.0	-91882.0
28	17	53	49	770	245.0	-243334.0	-56384.0	-94436.0
28	17	53	49	771	246.0	-242951.0	-56277.0	-96650.0
28	17	53	49	772	247.0	-242069.0	-56161.0	-98193.0
28	17	53	49	772	248.0	-240212.0	-56050.0	-97492.0
28	17	53	49	773	249.0	-238061.0	-55909.0	-94664.0
28	17	53	49	774	250.0	-235877.0	-55796.0	-91111.0
28	17	53	49	774	251.0	-233199.0	-55642.0	-89832.0
28	17	53	49	775	252.0	-231063.0	-55484.0	-91035.0
28	17	53	49	775	253.0	-229277.0	-55320.0	-92124.0
28	17	53	49	776	254.0	-226729.0	-55145.0	-93722.0
28	17	53	49	776	255.0	-224194.0	-54965.0	-95697.0
28	17	53	49	777	0.0	-221666.0	-54787.0	-97279.0
28	17	53	49	778	1.0	-219542.0	-54612.0	-98029.0
28	17	53	49	778	2.0	-219020.0	-54441.0	-97034.0
28	17	53	49	779	3.0	-219691.0	-54264.0	-93684.0
28	17	53	49	779	4.0	-221591.0	-54062.0	-90141.0
28	17	53	49	780	5.0	-224411.0	-53841.0	-88789.0
28	17	53	49	793	6.0	-227355.0	-53605.0	-89157.0
28	17	53	49	793	7.0	-230364.0	-53369.0	-89865.0
28	17	53	49	794	8.0	-233414.0	-53159.0	-91330.0
28	17	53	49	815	9.0	-237412.0	-52940.0	-92607.0
28	17	53	49	816	10.0	-241917.0	-52724.0	-93383.0
28	17	53	49	817	11.0	-246056.0	-52486.0	-93402.0
28	17	53	49	817	12.0	-250109.0	-52258.0	-91934.0
28	17	53	49	818	13.0	-254299.0	-52042.0	-88394.0
28	17	53	49	818	14.0	-257355.0	-51784.0	-85127.0
28	17	53	49	819	15.0	-260182.0	-51522.0	-84446.0
28	17	53	49	819	16.0	-262101.0	-51276.0	-84592.0
28	17	53	49	820	17.0	-264116.0	-51022.0	-84812.0
28	17	53	49	821	18.0	-265491.0	-50770.0	-86367.0
28	17	53	49	821	19.0	-265275.0	-50525.0	-87867.0
28	17	53	49	822	20.0	-264247.0	-50271.0	-89796.0
28	17	53	49	822	21.0	-262889.0	-50017.0	-89990.0
28	17	53	49	823	22.0	-260833.0	-49778.0	-87506.0
28	17	53	49	823	23.0	-258201.0	-49532.0	-83728.0
28	17	53	49	824	24.0	-254931.0	-49274.0	-80725.0
28	17	53	49	825	25.0	-252948.0	-49003.0	-80162.0
28	17	53	49	825	26.0	-251141.0	-48723.0	-80902.0
28	17	53	49	838	27.0	-249136.0	-48467.0	-82092.0
28	17	53	49	838	28.0	-248389.0	-48196.0	-84507.0
28	17	53	49	839	29.0	-247154.0	-47961.0	-86523.0
28	17	53	49	840	30.0	-245776.0	-47706.0	-88137.0
28	17	53	49	840	31.0	-244772.0	-47454.0	-88083.0
28	17	53	49	841	32.0	-244509.0	-47220.0	-86506.0
28	17	53	49	841	33.0	-244638.0	-46967.0	-83747.0
28	17	53	49	842	34.0	-246591.0	-46720.0	-81164.0
28	17	53	49	843	35.0	-248699.0	-46461.0	-80520.0
28	17	53	49	861	36.0	-249741.0	-46208.0	-81393.0
28	17	53	49	861	37.0	-250581.0	-45948.0	-82791.0
28	17	53	49	862	38.0	-251243.0	-45707.0	-84707.0
28	17	53	49	862	39.0	-250554.0	-45462.0	-86522.0
28	17	53	49	863	40.0	-245892.0	-45224.0	-88556.0
28	17	53	49	864	41.0	-242656.0	-44968.0	-89201.0
28	17	53	49	864	42.0	-244766.0	-44730.0	-87821.0
28	17	53	49	865	43.0	-239579.0	-44530.0	-84796.0
28	17	53	49	883	44.0	-239707.0	-44311.0	-83174.0
28	17	53	49	883	45.0	-244425.0	-44067.0	-82682.0
28	17	53	49	884	46.0	-248793.0	-43834.0	-83188.0
28	17	53	49	885	47.0	-250871.0	-43596.0	-84343.0
28	17	53	49	885	48.0	-252493.0	-43381.0	-86421.0
28	17	53	49	886	49.0	-253676.0	-43143.0	-88294.0
28	17	53	49	887	50.0	-253109.0	-42917.0	-89691.0
28	17	53	49	887	51.0	-251664.0	-42721.0	-90558.0
28	17	53	49	888	52.0	-250737.0	-42521.0	-89257.0
28	17	53	49	888	53.0	-249953.0	-42339.0	-86104.0
28	17	53	49	889	54.0	-246854.0	-42132.0	-84479.0
28	17	53	49	889	55.0	-247769.0	-41904.0	-84650.0
28	17	53	49	890	56.0	-248818.0	-41699.0	-85113.0
28	17	53	49	891	57.0	-249502.0	-41519.0	-86130.0
28	17	53	49	891	58.0	-252069.0	-41326.0	-88259.0
28	17	53	49	892	59.0	-255151.0	-41134.0	-89927.0
28	17	53	49	892	60.0	-257774.0	-40939.0	-91705.0
28	17	53	49	893	61.0	-258182.0	-40764.0	-92145.0
28	17	53	49	894	62.0	-255895.0	-40595.0	-90514.0
28	17	53	49	894	63.0	-251983.0	-40430.0	-87410.0
28	17	53	49	907	64.0	-245516.0	-40247.0	-85702.0
28	17	53	49	907	65.0	-237579.0	-40069.0	-85999.0
28	17	53	49	908	66.0	-229977.0	-39901.0	-86939.0
28	17	53	49	909	67.0	-224507.0	-39735.0	-88563.0
28	17	53	49	910	68.0	-221453.0	-39550.0	-90447.0
28	17	53	49	910	69.0	-221789.0	-39409.0	-92198.0
28	17	53	49	911	70.0	-224550.0	-39282.0	-94137.0
28	17	53	49	911	71.0	-228914.0	-39146.0	-94730.0
28	17	53	49	912	72.0	-234360.0	-38987.0	-93269.0
28	17	53	49	913	73.0	-241459.0	-38834.0	-90155.0
28	17	53	49	929	74.0	-248911.0	-38698.0	-88113.0
28	17	53	49	930	75.0	-255679.0	-38544.0	-88327.0
28	17	53	49	930	76.0	-261379.0	-38406.0	-89154.0
28	17	53	49	931	77.0	-266249.0	-38261.0	-90728.0
28	17	53	49	931	78.0	-269719.0	-38118.0	-93189.0
28	17	53	49	932	79.0	-273142.0	-37989.0	-95244.0
28	17	53	49	952	80.0	-275634.0	-37863.0	-97239.0
28	17	53	49	953	81.0	-276429.0	-37746.0	-97668.0
28	17	53	49	953	82.0	-276821.0	-37621.0	-95226.0
28	17	53	49	954	83.0	-276874.0	-37515.0	-91854.0
28	17	53	49	955	84.0	-275027.0	-37380.0	-89579.0
28	17	53	49	955	85.0	-272450.0	-37256.0	-89969.0
28	17	53	49	956	86.0	-269319.0	-37137.0	-91085.0
28	17	53	49	957	87.0	-264982.0	-37021.0	-92102.0
28	17	53	49	957	88.0	-260359.0	-36888.0	-94206.0
28	17	53	49	958	89.0	-256323.0	-36789.0	-96095.0
28	17	53	49	959	90.0	-252417.0	-36677.0	-98070.0
28	17	53	49	959	91.0	-248916.0	-36567.0	-98560.0
28	17	53	49	960	92.0	-245396.0	-36477.0	-96919.0
28	17	53	49	960	93.0	-240451.0	-36387.0	-94085.0
28	17	53	49	961	94.0	-234988.0	-36289.0	-92372.0
28	17	53	49	962	95.0	-228836.0	-36184.0	-91739.0
28	17	53	49	962	96.0	-221500.0	-36076.0	-92402.0
28	17	53	49	963	97.0	-214824.0	-35968.0	-94032.0
28	17	53	49	974	98.0	-208199.0	-35872.0	-96141.0
28	17	53	49	975	99.0	-201045.0	-35789.0	-97752.0
28	17	53	49	976	100.0	-194969.0	-35701.0	-98961.0
28	17	53	49	976	101.0	-188921.0	-35626.0	-99215.0
28	17	53	49	997	102.0	-182709.0	-35564.0	-97737.0
28	17	53	49	998	103.0	-178577.0	-35484.0	-94701.0
28	17	53	49	999	104.0	-175651.0	-35396.0	-92689.0
28	17	53	49	999	105.0	-174124.0	-35287.0	-93142.0
28	17	53	50	0	106.0	-174252.0	-35197.0	-93721.0
28	17	53	50	1	107.0	-175604.0	-35116.0	-94715.0
28	17	53	50	1	108.0	-177836.0	-35027.0	-96469.0
28	17	53	50	2	109.0	-179684.0	-34964.0	-98216.0
28	17	53	50	2	110.0	-181516.0	-34909.0	-99768.0
28	17	53	50	3	111.0	-184709.0	-34858.0	-99694.0
28	17	53	50	3	112.0	-187842.0	-34786.0	-97756.0
28	17	53	50	4	113.0	-191221.0	-34701.0	-95093.0
28	17	53	50	5	114.0	-195354.0	-34632.0	-93284.0
28	17	53	50	5	115.0	-201111.0	-34556.0	-92973.0
28	17	53	50	6	116.0	-208676.0	-34499.0	-93692.0
28	17	53	50	6	117.0	-215774.0	-34438.0	-95771.0
28	17	53	50	27	118.0	-222419.0	-34373.0	-97669.0
28	17	53	50	28	119.0	-229508.0	-34289.0	-99229.0
28	17	53	50	28	120.0	-235144.0	-34241.0	-100185.0
28	17	53	50	29	121.0	-238973.0	-34209.0	-99416.0
28	17	53	50	30	122.0	-242214.0	-34154.0	-97131.0
28	17	53	50	43	123.0	-244374.0	-34125.0	-94791.0
28	17	53	50	43	124.0	-245539.0	-34079.0	-93324.0
28	17	53	50	44	125.0	-245483.0	-34004.0	-93331.0
28	17	53	50	45	126.0	-244081.0	-33930.0	-93898.0
28	17	53	50	45	127.0	-241587.0	-33862.0	-95519.0
28	17	53	50	46	128.0	-238557.0	-33837.0	-97921.0
28	17	53	50	66	129.0	-234386.0	-33765.0	-99424.0
28	17	53	50	67	130.0	-228964.0	-33732.0	-100571.0
28	17	53	50	67	131.0	-222727.0	-33707.0	-100287.0
28	17	53	50	68	132.0	-215862.0	-33670.0	-97816.0
28	17	53	50	69	133.0	-209848.0	-33629.0	-94387.0
28	17	53	50	69	134.0	-205277.0	-33577.0	-92637.0
28	17	53	50	70	135.0	-202348.0	-33528.0	-93190.0
28	17	53	50	70	136.0	-201124.0	-33483.0	-94139.0
28	17	53	50	71	137.0	-200450.0	-33427.0	-96102.0
28	17	53	50	72	139.0	-201354.0	-33338.0	-99423.0
28	17	53	50	72	140.0	-201705.0	-33302.0	-100341.0
28	17	53	50	73	141.0	-202453.0	-33263.0	-99839.0
28	17	53	50	74	142.0	-203423.0	-33205.0	-97783.0
28	17	53	50	74	143.0	-203793.0	-33180.0	-94979.0
28	17	53	50	75	144.0	-203580.0	-33143.0	-93348.0
28	17	53	50	75	145.0	-203359.0	-33099.0	-93634.0
28	17	53	50	76	146.0	-202969.0	-33062.0	-94492.0
28	17	53	50	77	147.0	-202584.0	-32997.0	-96159.0
28	17	53	50	77	148.0	-202634.0	-32966.0	-97811.0
28	17	53	50	78	149.0	-202473.0	-32941.0	-99154.0
28	17	53	50	78	150.0	-202674.0	-32904.0	-100159.0
28	17	53	50	79	151.0	-203271.0	-32882.0	-99796.0
28	17	53	50	79	152.0	-204312.0	-32860.0	-97352.0
28	17	53	50	80	153.0	-205622.0	-32826.0	-94562.0
28	17	53	50	81	154.0	-207512.0	-32779.0	-93062.0
28	17	53	50	104	155.0	-209829.0	-32736.0	-93513.0
28	17	53	50	105	156.0	-212320.0	-32690.0	-94025.0
28	17	53	50	106	157.0	-213531.0	-32652.0	-95536.0
28	17	53	50	106	158.0	-214589.0	-32619.0	-97742.0
28	17	53	50	107	159.0	-214509.0	-32595.0	-99048.0
28	17	53	50	108	160.0	-214049.0	-32584.0	-99849.0
28	17	53	50	108	161.0	-213129.0	-32561.0	-98879.0
28	17	53	50	109	162.0	-212144.0	-32521.0	-96656.0
28	17	53	50	109	163.0	-210217.0	-32517.0	-93630.0
28	17	53	50	110	164.0	-207449.0	-32488.0	-92211.0
28	17	53	50	110	165.0	-204462.0	-32429.0	-93181.0
28	17	53	50	111	166.0	-201829.0	-32418.0	-94434.0
28	17	53	50	111	167.0	-198881.0	-32404.0	-95654.0
28	17	53	50	112	168.0	-195861.0	-32373.0	-96938.0
28	17	53	50	113	169.0	-193927.0	-32370.0	-98634.0
28	17	53	50	113	170.0	-192653.0	-32337.0	-99834.0
28	17	53	50	114	171.0	-191864.0	-32322.0	-98941.0
28	17	53	50	114	172.0	-192641.0	-32329.0	-96777.0
28	17	53	50	115	173.0	-193301.0	-32321.0	-94227.0
28	17	53	50	115	174.0	-194442.0	-32268.0	-92879.0
28	17	53	50	133	175.0	-195912.0	-32234.0	-93134.0
28	17	53	50	134	176.0	-197146.0	-32201.0	-94322.0
28	17	53	50	134	177.0	-198644.0	-32165.0	-96637.0
28	17	53	50	135	178.0	-200632.0	-32153.0	-98322.0
28	17	53	50	135	179.0	-201622.0	-32149.0	-99684.0
28	17	53	50	136	180.0	-201706.0	-32129.0	-100536.0
28	17	53	50	136	181.0	-201397.0	-32111.0	-99830.0
28	17	53	50	137	182.0	-200677.0	-32121.0	-97609.0
28	17	53	50	138	183.0	-200229.0	-32115.0	-94714.0
28	17	53	50	138	184.0	-199351.0	-32091.0	-93837.0
28	17	53	50	139	185.0	-198440.0	-32059.0	-94907.0
28	17	53	50	139	186.0	-198099.0	-32037.0	-96584.0
28	17	53	50	150	187.0	-197944.0	-32014.0	-98301.0
28	17	53	50	151	188.0	-197221.0	-31994.0	-99857.0
28	17	53	50	152	189.0	-196459.0	-32004.0	-101457.0
28	17	53	50	152	190.0	-195909.0	-31996.0	-102640.0
28	17	53	50	153	191.0	-196289.0	-31998.0	-102138.0
28	17	53	50	175	192.0	-196638.0	-32006.0	-99587.0
28	17	53	50	176	193.0	-196627.0	-31996.0	-97092.0
28	17	53	50	176	194.0	-196751.0	-31971.0	-95116.0
28	17	53	50	177	195.0	-196841.0	-31944.0	-95311.0
28	17	53	50	178	196.0	-196596.0	-31934.0	-96133.0
28	17	53	50	178	197.0	-195472.0	-31922.0	-97701.0
28	17	53	50	179	198.0	-194291.0	-31919.0	-99126.0
28	17	53	50	179	199.0	-193552.0	-31920.0	-100577.0
28	17	53	50	180	200.0	-193152.0	-31924.0	-102217.0
28	17	53	50	181	201.0	-192551.0	-31937.0	-101319.0
28	17	53	50	181	202.0	-192517.0	-31940.0	-98744.0
28	17	53	50	182	203.0	-193645.0	-31941.0	-95831.0
28	17	53	50	182	204.0	-195374.0	-31946.0	-94979.0
28	17	53	50	183	205.0	-197041.0	-31940.0	-94811.0
28	17	53	50	183	206.0	-198522.0	-31922.0	-95422.0
28	17	53	50	184	207.0	-199562.0	-31922.0	-96754.0
28	17	53	50	185	208.0	-200226.0	-31932.0	-98246.0
28	17	53	50	197	209.0	-200279.0	-31941.0	-99672.0
28	17	53	50	198	210.0	-200772.0	-31933.0	-100432.0
28	17	53	50	198	211.0	-201625.0	-31973.0	-99745.0
28	17	53	50	220	212.0	-202297.0	-31991.0	-96909.0
28	17	53	50	221	213.0	-203292.0	-31999.0	-94056.0
28	17	53	50	222	214.0	-205222.0	-31999.0	-93012.0
28	17	53	50	222	215.0	-207268.0	-32016.0	-93049.0
28	17	53	50	223	216.0	-209121.0	-32025.0	-93637.0
28	17	53	50	223	217.0	-210185.0	-32004.0	-95271.0
28	17	53	50	224	218.0	-210614.0	-32031.0	-97138.0
28	17	53	50	225	219.0	-210565.0	-32042.0	-98535.0
28	17	53	50	225	220.0	-209991.0	-32052.0	-99506.0
28	17	53	50	226	221.0	-209302.0	-32077.0	-98506.0
28	17	53	50	226	222.0	-209304.0	-32119.0	-96233.0
28	17	53	50	227	223.0	-209273.0	-32126.0	-93340.0
28	17	53	50	227	224.0	-208449.0	-32134.0	-92342.0
28	17	53	50	228	225.0	-207411.0	-32151.0	-93294.0
28	17	53	50	228	226.0	-206824.0	-32180.0	-94439.0
28	17	53	50	229	227.0	-206221.0	-32187.0	-96241.0
28	17	53	50	229	228.0	-205244.0	-32203.0	-97538.0
28	17	53	50	230	229.0	-203957.0	-32231.0	-98387.0
28	17	53	50	243	230.0	-201996.0	-32249.0	-99564.0
28	17	53	50	243	231.0	-199528.0	-32268.0	-98630.0
28	17	53	50	244	232.0	-197311.0	-32300.0	-95624.0
28	17	53	50	245	233.0	-195175.0	-32331.0	-92794.0
28	17	53	50	245	234.0	-192804.0	-32340.0	-91692.0
28	17	53	50	246	235.0	-190692.0	-32371.0	-92799.0
28	17	53	50	246	236.0	-189168.0	-32377.0	-94096.0
28	17	53	50	247	237.0	-187591.0	-32414.0	-96486.0
28	17	53	50	266	238.0	-186206.0	-32437.0	-99127.0
28	17	53	50	267	239.0	-184994.0	-32449.0	-102368.0
28	17	53	50	267	240.0	-183506.0	-32492.0	-104913.0
28	17	53	50	268	241.0	-181905.0	-32524.0	-105866.0
28	17	53	50	268	242.0	-181111.0	-32558.0	-105890.0
28	17	53	50	269	243.0	-181342.0	-32603.0	-105146.0
28	17	53	50	269	244.0	-182527.0	-32627.0	-106050.0
28	17	53	50	270	245.0	-183336.0	-32655.0	-106882.0
28	17	53	50	270	246.0	-184085.0	-32672.0	-107902.0
28	17	53	50	271	247.0	-184885.0	-32711.0	-108526.0
28	17	53	50	289	248.0	-185697.0	-32716.0	-108459.0
28	17	53	50	290	249.0	-186688.0	-32756.0	-108631.0
28	17	53	50	290	250.0	-188424.0	-32807.0	-105981.0
28	17	53	50	291	251.0	-190087.0	-32842.0	-101623.0
28	17	53	50	291	252.0	-192202.0	-32896.0	-94781.0
28	17	53	50	292	253.0	-194022.0	-32928.0	-86849.0
28	17	53	50	292	254.0	-196350.0	-32944.0	-82034.0
28	17	53	50	293	255.0	-199257.0	-32969.0	-80494.0
28	17	53	50	293	0.0	-202172.0	-32986.0	-81132.0
28	17	53	50	294	1.0	-204392.0	-33017.0	-84268.0
28	17	53	50	295	2.0	-206334.0	-33048.0	-87576.0
28	17	53	50	295	3.0	-206687.0	-33090.0	-91486.0
28	17	53	50	296	4.0	-206189.0	-33130.0	-94360.0
28	17	53	50	297	5.0	-205246.0	-33177.0	-95091.0
28	17	53	50	297	6.0	-203082.0	-33226.0	-93999.0
28	17	53	50	298	7.0	-200082.0	-33242.0	-92796.0
28	17	53	50	299	8.0	-197291.0	-33261.0	-92770.0
28	17	53	50	300	9.0	-193483.0	-33294.0	-93323.0
28	17	53	50	300	10.0	-188498.0	-33358.0	-94756.0
28	17	53	50	312	11.0	-182122.0	-33371.0	-96322.0
28	17	53	50	312	12.0	-173796.0	-33397.0	-97564.0
28	17	53	50	313	13.0	-165202.0	-33434.0	-98892.0
28	17	53	50	313	14.0	-158561.0	-33497.0	-99895.0
28	17	53	50	314	15.0	-154792.0	-33531.0	-98142.0
28	17	53	50	315	16.0	-154126.0	-33582.0	-95203.0
28	17	53	50	315	17.0	-156822.0	-33617.0	-93437.0
28	17	53	50	316	18.0	-162147.0	-33656.0	-92904.0
28	17	53	50	334	19.0	-168876.0	-33689.0	-93406.0
28	17	53	50	334	20.0	-175927.0	-33717.0	-94650.0
28	17	53	50	335	21.0	-182313.0	-33751.0	-96513.0
28	17	53	50	336	22.0	-188037.0	-33781.0	-98144.0
28	17	53	50	336	23.0	-191763.0	-33806.0	-99746.0
28	17	53	50	337	24.0	-194446.0	-33856.0	-100499.0
28	17	53	50	337	25.0	-194377.0	-33907.0	-98961.0
28	17	53	50	338	26.0	-191797.0	-33969.0	-95848.0
28	17	53	50	357	27.0	-187121.0	-34003.0	-93485.0
28	17	53	50	357	28.0	-180046.0	-34018.0	-93090.0
28	17	53	50	358	29.0	-172909.0	-34036.0	-93727.0
28	17	53	50	359	30.0	-165962.0	-34072.0	-94774.0
28	17	53	50	359	31.0	-161757.0	-34121.0	-97190.0
28	17	53	50	379	32.0	-160184.0	-34154.0	-98534.0
28	17	53	50	380	33.0	-161210.0	-34190.0	-99902.0
28	17	53	50	380	34.0	-164490.0	-34237.0	-100331.0
28	17	53	50	381	35.0	-167870.0	-34288.0	-98616.0
28	17	53	50	382	36.0	-173628.0	-34334.0	-96166.0
28	17	53	50	382	37.0	-180896.0	-34379.0	-93832.0
28	17	53	50	383	38.0	-189135.0	-34394.0	-93167.0
28	17	53	50	383	39.0	-197219.0	-34417.0	-93663.0
28	17	53	50	384	40.0	-205486.0	-34446.0	-94936.0
28	17	53	50	384	41.0	-212069.0	-34495.0	-97324.0
28	17	53	50	385	42.0	-216057.0	-34514.0	-98744.0
28	17	53	50	385	43.0	-219254.0	-34552.0	-100131.0
28	17	53	50	386	44.0	-219683.0	-34598.0	-100539.0
28	17	53	50	387	45.0	-218467.0	-34656.0	-99071.0
28	17	53	50	387	46.0	-214940.0	-34681.0	-96566.0
28	17	53	50	388	47.0	-211091.0	-34706.0	-94612.0
28	17	53	50	388	48.0	-205942.0	-34735.0	-94966.0
28	17	53	50	389	49.0	-201135.0	-34772.0	-95183.0
28	17	53	50	389	50.0	-196921.0	-34779.0	-95893.0
28	17	53	50	390	51.0	-193137.0	-34812.0	-98060.0
28	17	53	50	390	52.0	-190660.0	-34865.0	-99701.0
28	17	53	50	391	53.0	-187368.0	-34893.0	-100756.0
28	17	53	50	392	54.0	-184630.0	-34924.0	-100895.0
28	17	53	50	402	55.0	-182627.0	-34992.0	-99469.0
28	17	53	50	403	56.0	-181381.0	-35031.0	-96992.0
28	17	53	50	403	57.0	-182052.0	-35051.0	-94602.0
28	17	53	50	404	58.0	-183826.0	-35071.0	-94623.0
28	17	53	50	404	59.0	-186551.0	-35099.0	-95878.0
28	17	53	50	405	60.0	-189609.0	-35139.0	-96723.0
28	17	53	50	406	61.0	-193311.0	-35188.0	-98668.0
28	17	53	50	406	62.0	-197166.0	-35218.0	-100541.0
28	17	53	50	407	63.0	-200147.0	-35254.0	-101765.0
28	17	53	50	407	64.0	-203052.0	-35306.0	-102035.0
28	17	53	50	432	65.0	-205302.0	-35345.0	-100418.0
28	17	53	50	433	66.0	-207200.0	-35388.0	-97678.0
28	17	53	50	434	67.0	-209806.0	-35444.0	-95552.0
28	17	53	50	434	68.0	-210587.0	-35485.0	-95561.0
28	17	53	50	435	69.0	-211104.0	-35521.0	-96782.0
28	17	53	50	436	70.0	-210907.0	-35557.0	-98051.0
28	17	53	50	436	71.0	-210284.0	-35590.0	-99835.0
28	17	53	50	437	72.0	-209932.0	-35599.0	-101111.0
28	17	53	50	437	73.0	-208492.0	-35662.0	-102356.0
28	17	53	50	438	74.0	-207269.0	-35729.0	-102746.0
28	17	53	50	439	75.0	-204891.0	-35780.0	-101320.0
28	17	53	50	439	76.0	-201929.0	-35821.0	-98491.0
28	17	53	50	440	77.0	-199202.0	-35851.0	-97109.0
28	17	53	50	441	78.0	-196106.0	-35905.0	-97705.0
28	17	53	50	441	79.0	-193653.0	-35937.0	-98373.0
28	17	53	50	449	80.0	-192007.0	-35939.0	-99899.0
28	17	53	50	450	81.0	-190632.0	-35974.0	-101934.0
28	17	53	50	450	82.0	-189976.0	-36012.0	-103875.0
28	17	53	50	451	83.0	-189544.0	-36062.0	-105421.0
28	17	53	50	451	84.0	-189732.0	-36123.0	-105152.0
28	17	53	50	473	85.0	-190072.0	-36171.0	-103948.0
28	17	53	50	474	86.0	-190505.0	-36232.0	-102005.0
28	17	53	50	475	87.0	-190537.0	-36263.0	-100291.0
28	17	53	50	475	88.0	-189921.0	-36297.0	-100074.0
28	17	53	50	476	89.0	-189656.0	-36333.0	-100658.0
28	17	53	50	477	90.0	-188661.0	-36356.0	-102176.0
28	17	53	50	477	91.0	-187699.0	-36378.0	-104195.0
28	17	53	50	478	92.0	-186329.0	-36436.0	-105372.0
28	17	53	50	478	93.0	-184024.0	-36478.0	-106499.0
28	17	53	50	479	94.0	-181772.0	-36509.0	-106879.0
28	17	53	50	479	95.0	-179826.0	-36546.0	-105769.0
28	17	53	50	480	96.0	-177635.0	-36594.0	-103787.0
28	17	53	50	481	97.0	-175769.0	-36627.0	-102882.0
28	17	53	50	481	98.0	-173714.0	-36649.0	-103036.0
28	17	53	50	482	99.0	-171854.0	-36661.0	-104166.0
28	17	53	50	482	100.0	-170487.0	-36695.0	-105594.0
28	17	53	50	507	101.0	-169785.0	-36701.0	-107397.0
28	17	53	50	507	102.0	-169393.0	-36722.0	-108442.0
28	17	53	50	508	103.0	-169686.0	-36740.0	-109589.0
28	17	53	50	509	104.0	-170679.0	-36760.0	-109551.0
28	17	53	50	509	105.0	-171829.0	-36779.0	-107691.0
28	17	53	50	510	106.0	-173432.0	-36772.0	-105314.0
28	17	53	50	511	107.0	-175384.0	-36771.0	-103973.0
28	17	53	50	511	108.0	-176595.0	-36743.0	-104084.0
28	17	53	50	512	109.0	-178777.0	-36719.0	-104969.0
28	17	53	50	513	110.0	-180314.0	-36703.0	-106489.0
28	17	53	50	514	111.0	-182392.0	-36667.0	-108056.0
28	17	53	50	514	112.0	-183643.0	-36633.0	-109151.0
28	17	53	50	515	113.0	-185039.0	-36602.0	-110044.0
28	17	53	50	515	114.0	-186347.0	-36570.0	-109697.0
28	17	53	50	516	115.0	-186994.0	-36529.0	-107886.0
28	17	53	50	517	116.0	-187651.0	-36472.0	-105417.0
28	17	53	50	517	117.0	-187195.0	-36409.0	-104019.0
28	17	53	50	518	118.0	-186797.0	-36326.0	-104302.0
28	17	53	50	518	119.0	-185174.0	-36255.0	-104477.0
28	17	53	50	531	120.0	-183367.0	-36177.0	-105403.0
28	17	53	50	532	121.0	-181496.0	-36104.0	-107006.0
28	17	53	50	554	122.0	-178964.0	-36018.0	-108354.0
28	17	53	50	555	123.0	-177270.0	-35918.0	-108902.0
28	17	53	50	555	124.0	-173930.0	-35850.0	-107677.0
28	17	53	50	556	125.0	-170662.0	-35785.0	-105100.0
28	17	53	50	557	126.0	-167789.0	-35672.0	-101494.0
28	17	53	50	557	127.0	-164321.0	-35572.0	-98872.0
28	17	53	50	558	128.0	-162033.0	-35457.0	-98482.0
28	17	53	50	558	129.0	-160402.0	-35334.0	-98807.0
28	17	53	50	559	130.0	-158976.0	-35204.0	-98996.0
28	17	53	50	559	131.0	-157839.0	-35086.0	-100129.0
28	17	53	50	560	132.0	-157403.0	-34948.0	-101489.0
28	17	53	50	560	133.0	-156989.0	-34825.0	-101560.0
28	17	53	50	561	134.0	-157107.0	-34718.0	-100754.0
28	17	53	50	562	135.0	-156834.0	-34610.0	-98327.0
28	17	53	50	562	136.0	-155054.0	-34489.0	-95557.0
28	17	53	50	563	137.0	-153172.0	-34341.0	-93502.0
28	17	53	50	577	138.0	-152229.0	-34200.0	-93009.0
28	17	53	50	578	139.0	-151682.0	-34071.0	-93117.0
28	17	53	50	579	140.0	-151853.0	-33909.0	-93959.0
28	17	53	50	579	141.0	-152534.0	-33756.0	-95534.0
28	17	53	50	580	142.0	-152985.0	-33614.0	-96532.0
28	17	53	50	580	143.0	-153576.0	-33461.0	-96954.0
28	17	53	50	581	144.0	-154987.0	-33340.0	-96132.0
28	17	53	50	582	145.0	-155744.0	-33228.0	-94238.0
28	17	53	50	582	146.0	-157742.0	-33069.0	-91721.0
28	17	53	50	583	147.0	-159387.0	-32932.0	-89888.0
28	17	53	50	584	148.0	-161539.0	-32772.0	-89879.0
28	17	53	50	584	149.0	-163419.0	-32634.0	-90581.0
28	17	53	50	585	150.0	-165022.0	-32478.0	-92010.0
28	17	53	50	585	151.0	-166066.0	-32321.0	-93417.0
28	17	53	50	586	152.0	-165804.0	-32172.0	-94559.0
28	17	53	50	587	153.0	-164519.0	-32041.0	-95663.0
28	17	53	50	587	154.0	-161880.0	-31878.0	-94524.0
28	17	53	50	613	155.0	-157365.0	-31749.0	-92680.0
28	17	53	50	614	156.0	-152229.0	-31614.0	-90067.0
28	17	53	50	614	157.0	-146106.0	-31456.0	-88649.0
28	17	53	50	615	158.0	-140459.0	-31303.0	-88784.0
28	17	53	50	616	159.0	-136102.0	-31157.0	-89289.0
28	17	53	50	616	160.0	-134629.0	-31017.0	-90177.0
28	17	53	50	617	161.0	-138073.0	-30845.0	-91710.0
28	17	53	50	618	162.0	-144543.0	-30697.0	-93239.0
28	17	53	50	618	163.0	-151460.0	-30567.0	-94245.0
28	17	53	50	619	164.0	-157024.0	-30472.0	-93610.0
28	17	53	50	620	165.0	-161279.0	-30317.0	-90844.0
28	17	53	50	620	166.0	-164329.0	-30190.0	-88103.0
28	17	53	50	621	167.0	-165544.0	-30049.0	-86856.0
28	17	53	50	622	168.0	-164011.0	-29896.0	-87212.0
28	17	53	50	622	169.0	-161461.0	-29756.0	-88022.0
28	17	53	50	623	170.0	-158380.0	-29616.0	-89838.0
28	17	53	50	623	171.0	-155642.0	-29477.0	-91488.0
28	17	53	50	631	172.0	-153033.0	-29364.0	-92623.0
28	17	53	50	632	173.0	-152439.0	-29233.0	-93119.0
28	17	53	50	656	174.0	-154869.0	-29139.0	-92319.0
28	17	53	50	657	175.0	-159722.0	-29019.0	-90351.0
28	17	53	50	658	176.0	-165911.0	-28881.0	-87803.0
28	17	53	50	658	177.0	-171036.0	-28776.0	-86727.0
28	17	53	50	659	178.0	-174265.0	-28642.0	-87260.0
28	17	53	50	659	179.0	-175362.0	-28494.0	-87693.0
28	17	53	50	660	180.0	-174749.0	-28367.0	-89501.0
28	17	53	50	661	181.0	-172527.0	-28272.0	-90895.0
28	17	53	50	661	182.0	-170387.0	-28154.0	-91715.0
28	17	53	50	662	183.0	-170119.0	-28030.0	-92966.0
28	17	53	50	663	184.0	-173441.0	-27949.0	-92431.0
28	17	53	50	663	185.0	-178178.0	-27854.0	-90306.0
28	17	53	50	664	186.0	-186048.0	-27742.0	-88412.0
28	17	53	50	665	187.0	-196944.0	-27661.0	-87299.0
28	17	53	50	665	188.0	-208284.0	-27542.0	-87489.0
28	17	53	50	666	189.0	-218447.0	-27442.0	-87944.0
28	17	53	50	667	190.0	-225114.0	-27309.0	-89539.0
28	17	53	50	667	191.0	-228660.0	-27208.0	-90822.0
28	17	53	50	668	192.0	-228725.0	-27100.0	-91838.0
28	17	53	50	668	193.0	-226185.0	-27006.0	-92692.0
28	17	53	50	680	194.0	-222220.0	-26931.0	-92407.0
28	17	53	50	681	195.0	-218136.0	-26845.0	-90571.0
28	17	53	50	705	196.0	-214494.0	-26744.0	-87843.0
28	17	53	50	705	197.0	-212334.0	-26652.0	-87077.0
28	17	53	50	706	198.0	-211515.0	-26559.0	-87776.0
28	17	53	50	706	199.0	-211567.0	-26466.0	-87858.0
28	17	53	50	707	200.0	-212256.0	-26374.0	-89283.0
28	17	53	50	708	201.0	-212766.0	-26279.0	-90726.0
28	17	53	50	708	202.0	-213750.0	-26194.0	-91891.0
28	17	53	50	709	203.0	-214489.0	-26136.0	-92141.0
28	17	53	50	709	204.0	-214661.0	-26054.0	-90922.0
28	17	53	50	710	205.0	-214104.0	-26001.0	-88771.0
28	17	53	50	710	206.0	-211930.0	-25926.0	-85994.0
28	17	53	50	711	207.0	-209311.0	-25826.0	-85417.0
28	17	53	50	711	208.0	-206302.0	-25744.0	-86382.0
28	17	53	50	712	209.0	-203290.0	-25647.0	-87074.0
28	17	53	50	713	210.0	-200052.0	-25546.0	-88382.0
28	17	53	50	713	211.0	-196851.0	-25473.0	-90290.0
28	17	53	50	714	212.0	-193561.0	-25411.0	-91448.0
28	17	53	50	727	213.0	-190500.0	-25382.0	-92111.0
28	17	53	50	728	214.0	-188609.0	-25314.0	-90711.0
28	17	53	50	729	215.0	-187283.0	-25251.0	-88052.0
28	17	53	50	729	216.0	-187494.0	-25173.0	-85692.0
28	17	53	50	730	217.0	-188317.0	-25091.0	-85006.0
28	17	53	50	730	218.0	-191345.0	-25019.0	-85666.0
28	17	53	50	731	219.0	-194811.0	-24971.0	-86606.0
28	17	53	50	732	220.0	-198635.0	-24922.0	-88333.0
28	17	53	50	732	221.0	-202582.0	-24866.0	-89868.0
28	17	53	50	733	222.0	-206237.0	-24804.0	-90902.0
28	17	53	50	734	223.0	-208896.0	-24752.0	-91627.0
28	17	53	50	734	224.0	-211227.0	-24705.0	-90662.0
28	17	53	50	735	225.0	-214206.0	-24683.0	-88266.0
28	17	53	50	735	226.0	-217207.0	-24636.0	-85374.0
28	17	53	50	736	227.0	-220050.0	-24577.0	-84526.0
28	17	53	50	762	228.0	-222009.0	-24501.0	-85732.0
28	17	53	50	762	229.0	-223579.0	-24429.0	-86809.0
28	17	53	50	763	230.0	-224333.0	-24400.0	-87844.0
28	17	53	50	764	231.0	-225035.0	-24356.0	-89014.0
28	17	53	50	765	232.0	-224091.0	-24304.0	-90829.0
28	17	53	50	766	233.0	-223064.0	-24267.0	-91458.0
28	17	53	50	766	234.0	-220799.0	-24237.0	-89916.0
28	17	53	50	767	235.0	-218307.0	-24218.0	-87664.0
28	17	53	50	768	236.0	-215100.0	-24171.0	-85788.0
28	17	53	50	768	237.0	-212858.0	-24093.0	-85196.0
28	17	53	50	769	238.0	-210227.0	-24047.0	-85696.0
28	17	53	50	770	239.0	-208042.0	-24031.0	-86384.0
28	17	53	50	771	240.0	-206811.0	-23991.0	-87527.0
28	17	53	50	771	241.0	-205577.0	-23938.0	-88768.0
28	17	53	50	772	242.0	-204508.0	-23895.0	-89896.0
28	17	53	50	772	243.0	-203616.0	-23854.0	-90266.0
28	17	53	50	773	244.0	-201509.0	-23827.0	-89262.0
28	17	53	50	774	245.0	-199803.0	-23809.0	-86475.0
28	17	53	50	774	246.0	-197359.0	-23759.0	-84384.0
28	17	53	50	783	247.0	-195246.0	-23704.0	-84221.0
28	17	53	50	783	248.0	-193339.0	-23655.0	-84637.0
28	17	53	50	807	249.0	-191479.0	-23621.0	-85142.0
28	17	53	50	808	250.0	-191752.0	-23572.0	-87068.0
28	17	53	50	808	251.0	-192610.0	-23531.0	-88381.0
28	17	53	50	809	252.0	-194045.0	-23491.0	-89368.0
28	17	53	50	809	253.0	-196170.0	-23475.0	-90102.0
28	17	53	50	810	254.0	-198781.0	-23441.0	-88534.0
28	17	53	50	811	255.0	-200635.0	-23402.0	-86017.0
28	17	53	50	811	0.0	-203001.0	-23357.0	-84089.0
28	17	53	50	812	1.0	-205650.0	-23301.0	-83737.0
28	17	53	50	812	2.0	-208379.0	-23251.0	-84444.0
28	17	53	50	813	3.0	-210724.0	-23191.0	-85442.0
28	17	53	50	813	4.0	-212522.0	-23132.0	-86891.0
28	17	53	50	814	5.0	-213859.0	-23084.0	-88249.0
28	17	53	50	815	6.0	-214322.0	-23050.0	-89611.0
28	17	53	50	815	7.0	-213871.0	-23025.0	-90119.0
28	17	53	50	829	8.0	-212461.0	-23007.0	-88848.0
28	17	53	50	851	9.0	-210311.0	-22966.0	-85546.0
28	17	53	50	851	10.0	-207516.0	-22903.0	-83487.0
28	17	53	50	852	11.0	-205012.0	-22856.0	-83144.0
28	17	53	50	853	12.0	-202392.0	-22803.0	-83541.0
28	17	53	50	853	13.0	-198078.0	-22758.0	-84218.0
28	17	53	50	854	14.0	-193887.0	-22711.0	-85596.0
28	17	53	50	854	15.0	-191336.0	-22664.0	-87719.0
28	17	53	50	855	16.0	-188392.0	-22616.0	-89787.0
28	17	53	50	855	17.0	-185490.0	-22561.0	-89509.0
28	17	53	50	856	18.0	-183328.0	-22544.0	-88256.0
28	17	53	50	857	19.0	-181939.0	-22509.0	-85824.0
28	17	53	50	857	20.0	-181834.0	-22454.0	-83592.0
28	17	53	50	858	21.0	-181942.0	-22409.0	-82735.0
28	17	53	50	858	22.0	-181465.0	-22363.0	-83446.0
28	17	53	50	859	23.0	-180155.0	-22309.0	-84176.0
28	17	53	50	859	24.0	-179921.0	-22256.0	-86230.0
28	17	53	50	860	25.0	-179352.0	-22211.0	-87924.0
28	17	53	50	861	26.0	-179637.0	-22154.0	-89176.0
28	17	53	50	861	27.0	-181657.0	-22102.0	-89755.0
28	17	53	50	862	28.0	-183297.0	-22074.0	-88284.0
28	17	53	50	862	29.0	-185318.0	-22036.0	-86324.0
28	17	53	50	863	30.0	-187979.0	-21996.0	-84868.0
28	17	53	50	873	31.0	-190746.0	-21949.0	-84191.0
28	17	53	50	873	32.0	-193506.0	-21902.0	-84356.0
28	17	53	50	874	33.0	-196486.0	-21853.0	-85296.0
28	17	53	50	875	34.0	-199479.0	-21814.0	-87352.0
28	17	53	50	875	35.0	-201734.0	-21774.0	-88851.0
28	17	53	50	876	36.0	-204593.0	-21746.0	-90082.0
28	17	53	50	876	37.0	-206957.0	-21724.0	-90114.0
28	17	53	50	877	38.0	-208828.0	-21702.0	-88736.0
28	17	53	50	878	39.0	-210506.0	-21678.0	-86767.0
28	17	53	50	899	40.0	-211396.0	-21659.0	-84870.0
28	17	53	50	900	41.0	-211964.0	-21618.0	-84843.0
28	17	53	50	901	42.0	-211998.0	-21581.0	-85606.0
28	17	53	50	901	43.0	-212598.0	-21557.0	-85911.0
28	17	53	50	902	44.0	-211783.0	-21517.0	-87639.0
28	17	53	50	902	45.0	-211007.0	-21477.0	-88936.0
28	17	53	50	903	46.0	-210350.0	-21458.0	-89800.0
28	17	53	50	903	47.0	-208917.0	-21439.0	-89486.0
28	17	53	50	921	48.0	-206644.0	-21429.0	-87184.0
28	17	53	50	922	49.0	-203062.0	-21432.0	-85072.0
28	17	53	50	922	50.0	-199237.0	-21394.0	-83248.0
28	17	53	50	923	51.0	-195184.0	-21364.0	-82489.0
28	17	53	50	924	52.0	-190722.0	-21345.0	-82675.0
28	17	53	50	924	53.0	-186814.0	-21337.0	-83739.0
28	17	53	50	925	54.0	-183196.0	-21328.0	-85630.0
28	17	53	50	925	55.0	-181204.0	-21307.0	-87194.0
28	17	53	50	926	56.0	-178574.0	-21289.0	-88463.0
28	17	53	50	927	57.0	-176883.0	-21287.0	-88039.0
28	17	53	50	927	58.0	-175158.0	-21286.0	-85592.0
28	17	53	50	928	59.0	-173652.0	-21297.0	-82879.0
28	17	53	50	928	60.0	-174109.0	-21268.0	-81347.0
28	17	53	50	929	61.0	-174801.0	-21240.0	-80994.0
28	17	53	50	930	62.0	-175787.0	-21235.0	-81320.0
28	17	53	50	930	63.0	-176492.0	-21218.0	-82644.0
28	17	53	50	931	64.0	-178226.0	-21209.0	-84096.0
28	17	53	50	931	65.0	-178849.0	-21204.0	-85241.0
28	17	53	50	932	66.0	-181129.0	-21197.0	-86503.0
28	17	53	50	933	67.0	-184057.0	-21184.0	-86650.0
28	17	53	50	949	68.0	-186496.0	-21195.0	-84918.0
28	17	53	50	950	69.0	-189284.0	-21214.0	-82020.0
28	17	53	50	951	70.0	-192271.0	-21201.0	-80888.0
28	17	53	50	952	71.0	-195106.0	-21182.0	-80815.0
28	17	53	50	961	72.0	-197536.0	-21174.0	-81406.0
28	17	53	50	964	73.0	-200944.0	-21152.0	-82574.0
28	17	53	50	965	74.0	-204341.0	-21171.0	-84276.0
28	17	53	50	966	75.0	-207156.0	-21169.0	-85459.0
28	17	53	50	966	76.0	-210147.0	-21180.0	-86885.0
28	17	53	50	967	77.0	-211752.0	-21198.0	-86674.0
28	17	53	50	967	78.0	-213459.0	-21230.0	-84766.0
28	17	53	50	968	79.0	-214787.0	-21251.0	-82457.0
28	17	53	50	968	80.0	-215370.0	-21256.0	-81075.0
28	17	53	50	969	81.0	-215307.0	-21247.0	-80401.0
28	17	53	50	970	82.0	-215132.0	-21254.0	-80995.0
28	17	53	50	970	83.0	-215761.0	-21256.0	-82178.0
28	17	53	50	978	84.0	-215831.0	-21257.0	-83962.0
28	17	53	50	979	85.0	-215899.0	-21277.0	-85732.0
28	17	53	50	979	86.0	-215236.0	-21287.0	-87155.0
28	17	53	51	1	87.0	-214762.0	-21309.0	-88099.0
28	17	53	51	2	88.0	-214993.0	-21336.0	-88276.0
28	17	53	51	2	89.0	-214331.0	-21360.0	-87482.0
28	17	53	51	3	90.0	-213354.0	-21379.0	-88273.0
28	17	53	51	3	91.0	-211564.0	-21387.0	-91660.0
28	17	53	51	4	92.0	-209224.0	-21385.0	-94499.0
28	17	53	51	4	93.0	-207494.0	-21389.0	-97025.0
28	17	53	51	5	94.0	-205414.0	-21417.0	-99329.0
28	17	53	51	5	95.0	-203643.0	-21421.0	-101090.0
28	17	53	51	6	96.0	-200890.0	-21432.0	-101322.0
28	17	53	51	7	97.0	-198092.0	-21481.0	-99014.0
28	17	53	51	7	98.0	-195316.0	-21503.0	-94869.0
28	17	53	51	8	99.0	-193246.0	-21512.0	-88465.0
28	17	53	51	8	100.0	-195724.0	-21537.0	-83678.0
28	17	53	51	9	101.0	-193216.0	-21552.0	-79597.0
28	17	53	51	9	102.0	-191289.0	-21579.0	-75067.0
28	17	53	51	10	103.0	-190465.0	-21601.0	-72654.0
28	17	53	51	10	104.0	-190933.0	-21636.0	-72289.0
28	17	53	51	11	105.0	-192719.0	-21639.0	-73954.0
28	17	53	51	23	106.0	-194606.0	-21670.0	-76917.0
28	17	53	51	23	107.0	-196475.0	-21709.0	-78141.0
28	17	53	51	24	108.0	-196817.0	-21742.0	-77951.0
28	17	53	51	25	109.0	-197555.0	-21761.0	-77566.0
28	17	53	51	25	110.0	-196874.0	-21775.0	-77239.0
28	17	53	51	26	111.0	-196072.0	-21784.0	-79102.0
28	17	53	51	26	112.0	-195127.0	-21807.0	-80856.0
28	17	53	51	27	113.0	-192417.0	-21845.0	-82523.0
28	17	53	51	27	114.0	-189297.0	-21861.0	-84367.0
28	17	53	51	47	115.0	-183939.0	-21887.0	-86101.0
28	17	53	51	48	116.0	-176731.0	-21911.0	-87444.0
28	17	53	51	49	117.0	-167761.0	-21964.0	-87288.0
28	17	53	51	49	118.0	-158603.0	-22008.0	-85421.0
28	17	53	51	50	119.0	-151577.0	-22027.0	-82657.0
28	17	53	51	50	120.0	-146276.0	-22053.0	-81112.0
28	17	53	51	51	121.0	-144442.0	-22071.0	-81161.0
28	17	53	51	51	122.0	-145611.0	-22097.0	-81669.0
28	17	53	51	70	123.0	-149177.0	-22116.0	-83119.0
28	17	53	51	71	124.0	-156036.0	-22147.0	-84196.0
28	17	53	51	71	125.0	-164249.0	-22161.0	-85523.0
28	17	53	51	72	126.0	-172069.0	-22195.0	-86917.0
28	17	53	51	72	127.0	-179986.0	-22241.0	-86557.0
28	17	53	51	73	128.0	-185816.0	-22287.0	-84747.0
28	17	53	51	73	129.0	-188819.0	-22340.0	-82497.0
28	17	53	51	74	130.0	-189768.0	-22354.0	-81144.0
28	17	53	51	75	131.0	-188682.0	-22355.0	-81545.0
28	17	53	51	75	132.0	-187726.0	-22387.0	-82229.0
28	17	53	51	76	133.0	-185425.0	-22399.0	-84069.0
28	17	53	51	76	134.0	-183155.0	-22433.0	-85585.0
28	17	53	51	77	135.0	-181753.0	-22457.0	-86645.0
28	17	53	51	77	136.0	-179754.0	-22492.0	-87455.0
28	17	53	51	78	137.0	-180377.0	-22522.0	-86926.0
28	17	53	51	78	138.0	-183178.0	-22557.0	-84691.0
28	17	53	51	79	139.0	-186166.0	-22584.0	-81811.0
28	17	53	51	79	140.0	-190166.0	-22609.0	-80657.0
28	17	53	51	80	141.0	-194253.0	-22617.0	-80815.0
28	17	53	51	81	142.0	-200838.0	-22648.0	-81359.0
28	17	53	51	94	143.0	-208309.0	-22672.0	-83356.0
28	17	53	51	95	144.0	-216136.0	-22688.0	-85224.0
28	17	53	51	95	145.0	-222786.0	-22706.0	-86868.0
28	17	53	51	96	146.0	-226980.0	-22754.0	-87713.0
28	17	53	51	96	147.0	-230177.0	-22777.0	-86665.0
28	17	53	51	97	148.0	-231803.0	-22807.0	-84157.0
28	17	53	51	98	149.0	-231378.0	-22840.0	-82189.0
28	17	53	51	98	150.0	-229845.0	-22872.0	-81661.0
28	17	53	51	99	151.0	-227272.0	-22888.0	-81946.0
28	17	53	51	99	152.0	-224709.0	-22910.0	-82447.0
28	17	53	51	118	153.0	-222618.0	-22917.0	-84244.0
28	17	53	51	118	154.0	-221536.0	-22912.0	-85932.0
28	17	53	51	119	155.0	-221067.0	-22944.0	-87032.0
28	17	53	51	119	156.0	-221424.0	-22987.0	-87731.0
28	17	53	51	120	157.0	-221960.0	-23020.0	-86934.0
28	17	53	51	121	158.0	-224227.0	-23054.0	-84738.0
28	17	53	51	142	159.0	-226091.0	-23086.0	-82391.0
28	17	53	51	143	160.0	-228054.0	-23076.0	-81832.0
28	17	53	51	143	161.0	-231009.0	-23089.0	-82418.0
28	17	53	51	144	162.0	-233774.0	-23101.0	-82964.0
28	17	53	51	144	163.0	-237089.0	-23125.0	-84377.0
28	17	53	51	145	164.0	-239647.0	-23149.0	-86339.0
28	17	53	51	145	165.0	-241599.0	-23150.0	-88073.0
28	17	53	51	146	166.0	-243484.0	-23188.0	-88869.0
28	17	53	51	147	167.0	-244141.0	-23224.0	-88367.0
28	17	53	51	147	168.0	-244591.0	-23266.0	-86469.0
28	17	53	51	148	169.0	-244445.0	-23296.0	-83828.0
28	17	53	51	148	170.0	-243695.0	-23319.0	-82609.0
28	17	53	51	149	171.0	-243206.0	-23334.0	-83335.0
28	17	53	51	149	172.0	-242133.0	-23345.0	-84064.0
28	17	53	51	150	173.0	-241568.0	-23369.0	-85471.0
28	17	53	51	150	174.0	-240286.0	-23371.0	-86921.0
28	17	53	51	151	175.0	-238967.0	-23375.0	-88022.0
28	17	53	51	152	176.0	-237054.0	-23403.0	-89160.0
28	17	53	51	152	177.0	-235367.0	-23434.0	-88835.0
28	17	53	51	167	178.0	-232772.0	-23469.0	-86876.0
28	17	53	51	168	179.0	-230419.0	-23476.0	-84559.0
28	17	53	51	168	180.0	-228454.0	-23496.0	-83807.0
28	17	53	51	169	181.0	-225469.0	-23527.0	-84155.0
28	17	53	51	170	182.0	-223116.0	-23533.0	-85071.0
28	17	53	51	170	183.0	-220677.0	-23546.0	-86672.0
28	17	53	51	171	184.0	-219382.0	-23571.0	-88303.0
28	17	53	51	186	185.0	-219697.0	-23619.0	-90066.0
28	17	53	51	187	186.0	-219806.0	-23618.0	-90971.0
28	17	53	51	187	187.0	-221658.0	-23639.0	-90230.0
28	17	53	51	188	188.0	-222779.0	-23694.0	-88740.0
28	17	53	51	188	189.0	-225053.0	-23730.0	-86692.0
28	17	53	51	189	190.0	-227067.0	-23748.0	-86031.0
28	17	53	51	189	191.0	-228736.0	-23739.0	-86619.0
28	17	53	51	190	192.0	-231082.0	-23760.0	-87187.0
28	17	53	51	191	193.0	-233062.0	-23784.0	-88822.0
28	17	53	51	191	194.0	-235369.0	-23797.0	-90750.0
28	17	53	51	212	195.0	-237200.0	-23801.0	-92726.0
28	17	53	51	212	196.0	-239039.0	-23846.0	-93420.0
28	17	53	51	213	197.0	-241495.0	-23862.0	-92126.0
28	17	53	51	214	198.0	-244831.0	-23904.0	-90077.0
28	17	53	51	214	199.0	-247278.0	-23924.0	-87833.0
28	17	53	51	215	200.0	-249516.0	-23922.0	-87435.0
28	17	53	51	215	201.0	-251032.0	-23926.0	-88215.0
28	17	53	51	216	202.0	-251715.0	-23946.0	-89640.0
28	17	53	51	217	203.0	-251451.0	-23947.0	-91518.0
28	17	53	51	218	204.0	-250281.0	-23942.0	-93451.0
28	17	53	51	218	205.0	-250162.0	-23956.0	-95270.0
28	17	53	51	219	206.0	-250294.0	-23976.0	-96142.0
28	17	53	51	219	207.0	-250162.0	-23969.0	-94906.0
28	17	53	51	232	208.0	-250316.0	-23999.0	-92907.0
28	17	53	51	232	209.0	-249514.0	-23992.0	-91087.0
28	17	53	51	233	210.0	-248917.0	-23965.0	-90554.0
28	17	53	51	233	211.0	-248821.0	-23925.0	-90816.0
28	17	53	51	234	212.0	-248795.0	-23891.0	-91549.0
28	17	53	51	234	213.0	-246416.0	-23857.0	-93357.0
28	17	53	51	235	214.0	-244497.0	-23831.0	-94758.0
28	17	53	51	236	215.0	-243318.0	-23794.0	-96144.0
28	17	53	51	254	216.0	-241731.0	-23749.0	-96704.0
28	17	53	51	255	217.0	-239914.0	-23723.0	-95440.0
28	17	53	51	256	218.0	-237748.0	-23704.0	-92798.0
28	17	53	51	256	219.0	-234695.0	-23654.0	-90789.0
28	17	53	51	257	220.0	-231758.0	-23592.0	-90256.0
28	17	53	51	258	221.0	-228799.0	-23531.0	-90778.0
28	17	53	51	258	222.0	-226385.0	-23470.0	-91501.0
28	17	53	51	259	223.0	-223811.0	-23397.0	-92545.0
28	17	53	51	259	224.0	-220633.0	-23324.0	-93912.0
28	17	53	51	260	225.0	-217998.0	-23247.0	-94714.0
28	17	53	51	260	226.0	-215942.0	-23174.0	-95171.0
28	17	53	51	261	227.0	-214001.0	-23096.0	-93242.0
28	17	53	51	262	228.0	-211877.0	-23039.0	-90240.0
28	17	53	51	262	229.0	-210526.0	-22936.0	-88094.0
28	17	53	51	263	230.0	-208582.0	-22826.0	-87223.0
28	17	53	51	263	231.0	-206569.0	-22738.0	-87028.0
28	17	53	51	264	232.0	-204576.0	-22636.0	-86947.0
28	17	53	51	276	233.0	-202370.0	-22526.0	-87959.0
28	17	53	51	277	234.0	-200564.0	-22427.0	-88796.0
28	17	53	51	278	235.0	-197489.0	-22299.0	-89122.0
28	17	53	51	278	236.0	-195055.0	-22194.0	-89104.0
28	17	53	51	279	237.0	-192137.0	-22099.0	-87416.0
28	17	53	51	299	238.0	-189127.0	-22008.0	-84369.0
28	17	53	51	299	239.0	-186852.0	-21898.0	-81787.0
28	17	53	51	300	240.0	-185191.0	-21769.0	-81439.0
28	17	53	51	300	241.0	-184719.0	-21644.0	-81745.0
28	17	53	51	301	242.0	-184697.0	-21516.0	-81932.0
28	17	53	51	302	243.0	-185336.0	-21388.0	-82592.0
28	17	53	51	302	244.0	-186098.0	-21271.0	-83604.0
28	17	53	51	303	245.0	-187072.0	-21128.0	-84332.0
28	17	53	51	303	246.0	-188949.0	-21011.0	-84491.0
28	17	53	51	304	247.0	-190628.0	-20902.0	-82696.0
28	17	53	51	304	248.0	-192704.0	-20783.0	-79929.0
28	17	53	51	305	249.0	-194856.0	-20657.0	-77607.0
28	17	53	51	305	250.0	-196799.0	-20504.0	-76842.0
28	17	53	51	321	251.0	-198892.0	-20393.0	-77042.0
28	17	53	51	321	252.0	-200649.0	-20262.0	-78012.0
28	17	53	51	322	253.0	-202416.0	-20122.0	-80074.0
28	17	53	51	323	254.0	-203946.0	-19988.0	-80783.0
28	17	53	51	324	255.0	-205374.0	-19877.0	-81382.0
28	17	53	51	324	0.0	-206191.0	-19758.0	-81944.0
28	17	53	51	325	1.0	-206521.0	-19662.0	-80802.0
28	17	53	51	325	2.0	-205878.0	-19557.0	-78657.0
28	17	53	51	326	3.0	-204505.0	-19419.0	-76592.0
28	17	53	51	329	4.0	-202349.0	-19284.0	-76248.0
28	17	53	51	330	5.0	-199009.0	-19162.0	-76583.0
28	17	53	51	330	6.0	-194386.0	-19039.0	-77356.0
28	17	53	51	331	7.0	-187309.0	-18922.0	-78726.0
28	17	53	51	332	8.0	-180798.0	-18801.0	-80020.0
28	17	53	51	332	9.0	-175581.0	-18680.0	-81196.0
28	17	53	51	333	10.0	-170614.0	-18589.0	-81021.0
28	17	53	51	333	11.0	-169178.0	-18489.0	-79788.0
28	17	53	51	334	12.0	-171883.0	-18392.0	-77616.0
28	17	53	51	335	13.0	-176710.0	-18278.0	-76078.0
28	17	53	51	361	14.0	-180474.0	-18159.0	-75202.0
28	17	53	51	362	15.0	-183202.0	-18079.0	-75954.0
28	17	53	51	363	16.0	-185516.0	-17980.0	-76747.0
28	17	53	51	363	17.0	-187090.0	-17877.0	-77966.0
28	17	53	51	364	18.0	-186111.0	-17775.0	-79398.0
28	17	53	51	365	19.0	-183579.0	-17677.0	-80477.0
28	17	53	51	365	20.0	-180970.0	-17616.0	-80672.0
28	17	53	51	366	21.0	-177662.0	-17527.0	-79475.0
28	17	53	51	367	22.0	-175247.0	-17450.0	-77912.0
28	17	53	51	367	23.0	-173904.0	-17385.0	-76482.0
28	17	53	51	368	24.0	-174648.0	-17296.0	-76258.0
28	17	53	51	369	25.0	-178781.0	-17218.0	-76164.0
28	17	53	51	369	26.0	-185330.0	-17140.0	-77057.0
28	17	53	51	370	27.0	-193969.0	-17065.0	-78506.0
28	17	53	51	371	28.0	-203866.0	-16989.0	-79757.0
28	17	53	51	371	29.0	-212989.0	-16933.0	-80572.0
28	17	53	51	372	30.0	-218661.0	-16864.0	-80841.0
28	17	53	51	372	31.0	-220877.0	-16779.0	-79210.0
28	17	53	51	373	32.0	-220652.0	-16746.0	-76480.0
28	17	53	51	391	33.0	-218821.0	-16686.0	-74748.0
28	17	53	51	392	34.0	-217357.0	-16599.0	-74687.0
28	17	53	51	393	35.0	-217178.0	-16537.0	-75421.0
28	17	53	51	393	36.0	-218789.0	-16474.0	-76594.0
28	17	53	51	394	37.0	-222244.0	-16439.0	-78437.0
28	17	53	51	395	38.0	-226516.0	-16393.0	-79473.0
28	17	53	51	395	39.0	-230682.0	-16332.0	-80719.0
28	17	53	51	396	40.0	-233721.0	-16296.0	-80687.0
28	17	53	51	397	41.0	-235533.0	-16270.0	-78675.0
28	17	53	51	397	42.0	-235522.0	-16236.0	-76221.0
28	17	53	51	398	43.0	-233149.0	-16205.0	-74711.0
28	17	53	51	399	44.0	-228654.0	-16164.0	-75069.0
28	17	53	51	399	45.0	-223419.0	-16136.0	-75754.0
28	17	53	51	400	46.0	-218874.0	-16084.0	-76742.0
28	17	53	51	401	47.0	-216007.0	-16054.0	-78573.0
28	17	53	51	412	48.0	-214514.0	-16009.0	-79491.0
28	17	53	51	414	49.0	-213582.0	-15962.0	-80395.0
28	17	53	51	415	50.0	-213058.0	-15939.0	-80536.0
28	17	53	51	417	51.0	-212757.0	-15941.0	-78363.0
28	17	53	51	433	52.0	-212461.0	-15919.0	-75534.0
28	17	53	51	433	53.0	-211097.0	-15903.0	-73993.0
28	17	53	51	434	54.0	-208621.0	-15847.0	-74195.0
28	17	53	51	434	55.0	-205994.0	-15821.0	-74382.0
28	17	53	51	435	56.0	-203221.0	-15813.0	-75403.0
28	17	53	51	436	57.0	-200371.0	-15790.0	-77379.0
28	17	53	51	436	58.0	-197014.0	-15777.0	-78297.0
28	17	53	51	437	59.0	-192691.0	-15768.0	-79517.0
28	17	53	51	438	60.0	-187570.0	-15758.0	-79606.0
28	17	53	51	438	61.0	-182427.0	-15760.0	-78015.0
28	17	53	51	439	62.0	-177034.0	-15759.0	-75576.0
28	17	53	51	439	63.0	-172504.0	-15747.0	-74212.0
