3	17	29	5	348	81.0	-154737.0	-8116.0	92752.0
3	17	29	5	350	82.0	-156271.0	-8061.0	89028.0
3	17	29	5	353	83.0	-158384.0	-8029.0	89843.0
3	17	29	5	355	84.0	-160712.0	-7989.0	87131.0
3	17	29	5	357	85.0	-163277.0	-7932.0	88374.0
3	17	29	5	359	86.0	-166437.0	-7872.0	89538.0
3	17	29	5	360	87.0	-169406.0	-7801.0	85166.0
3	17	29	5	362	88.0	-172380.0	-7721.0	81199.0
3	17	29	5	363	89.0	-175369.0	-7628.0	75262.0
3	17	29	5	365	90.0	-178059.0	-7542.0	66143.0
3	17	29	5	366	91.0	-180452.0	-7437.0	60858.0
3	17	29	5	366	92.0	-182592.0	-7318.0	55248.0
3	17	29	5	376	93.0	-184193.0	-7200.0	55098.0
3	17	29	5	377	94.0	-185589.0	-7081.0	54522.0
3	17	29	5	377	95.0	-186500.0	-6945.0	53098.0
3	17	29	5	378	96.0	-186766.0	-6813.0	54443.0
3	17	29	5	379	97.0	-186721.0	-6664.0	55766.0
3	17	29	5	379	98.0	-186828.0	-6520.0	59347.0
3	17	29	5	380	99.0	-186307.0	-6351.0	64379.0
3	17	29	5	380	100.0	-185666.0	-6204.0	59950.0
3	17	29	5	382	101.0	-185275.0	-6036.0	58766.0
3	17	29	5	382	102.0	-184689.0	-5857.0	62278.0
3	17	29	5	435	103.0	-183744.0	-5679.0	63444.0
3	17	29	5	480	104.0	-182176.0	-5499.0	63772.0
3	17	29	5	481	105.0	-180826.0	-5291.0	65082.0
3	17	29	5	482	106.0	-179969.0	-5096.0	65969.0
3	17	29	5	482	107.0	-179554.0	-4895.0	66876.0
3	17	29	5	483	108.0	-179239.0	-4709.0	67294.0
3	17	29	5	483	109.0	-179857.0	-4509.0	68203.0
3	17	29	5	484	110.0	-181235.0	-4306.0	68683.0
3	17	29	5	485	111.0	-183245.0	-4091.0	69466.0
3	17	29	5	485	112.0	-186054.0	-3893.0	70401.0
3	17	29	5	486	113.0	-189647.0	-3684.0	73472.0
3	17	29	5	486	114.0	-193466.0	-3461.0	75873.0
3	17	29	5	487	115.0	-196924.0	-3258.0	81368.0
3	17	29	5	488	116.0	-199214.0	-3046.0	88451.0
3	17	29	5	488	117.0	-200419.0	-2829.0	95138.0
3	17	29	5	489	129.0	-192977.0	-407.0	151974.0
3	17	29	5	489	152.0	-132111.0	2854.0	109546.0
3	17	29	5	490	153.0	-129160.0	2962.0	101626.0
3	17	29	5	491	154.0	-128196.0	3052.0	104369.0
3	17	29	5	491	155.0	-129506.0	3180.0	103999.0
3	17	29	5	492	156.0	-132821.0	3247.0	104045.0
3	17	29	5	492	157.0	-137511.0	3329.0	105324.0
3	17	29	5	524	158.0	-143341.0	3424.0	103951.0
3	17	29	5	525	159.0	-149622.0	3498.0	101726.0
3	17	29	5	526	160.0	-155654.0	3569.0	100426.0
3	17	29	5	526	161.0	-161102.0	3635.0	98098.0
3	17	29	5	527	162.0	-166029.0	3699.0	96213.0
3	17	29	5	527	163.0	-170724.0	3748.0	95833.0
3	17	29	5	528	164.0	-175199.0	3811.0	94853.0
3	17	29	5	528	165.0	-179716.0	3878.0	93154.0
3	17	29	5	529	166.0	-184698.0	3933.0	92258.0
3	17	29	5	530	167.0	-189911.0	3976.0	92423.0
3	17	29	5	530	168.0	-195039.0	3989.0	91566.0
3	17	29	5	531	169.0	-199911.0	4039.0	90881.0
3	17	29	5	531	170.0	-204639.0	4093.0	89703.0
3	17	29	5	532	171.0	-209224.0	4136.0	89961.0
3	17	29	5	533	172.0	-213659.0	4163.0	84861.0
3	17	29	5	533	174.0	-222097.0	4222.0	79230.0
3	17	29	5	534	175.0	-226213.0	4256.0	76951.0
3	17	29	5	534	176.0	-229765.0	4286.0	74804.0
3	17	29	5	535	177.0	-232619.0	4280.0	74800.0
3	17	29	5	535	178.0	-235250.0	4284.0	74729.0
3	17	29	5	543	179.0	-237907.0	4311.0	74077.0
3	17	29	5	544	180.0	-240197.0	4331.0	73438.0
3	17	29	5	615	181.0	-241959.0	4343.0	73340.0
3	17	29	5	615	182.0	-243291.0	4366.0	72711.0
3	17	29	5	616	183.0	-244404.0	4366.0	71215.0
3	17	29	5	617	184.0	-245073.0	4368.0	69994.0
3	17	29	5	617	185.0	-245124.0	4351.0	69805.0
3	17	29	5	618	186.0	-244544.0	4346.0	69309.0
3	17	29	5	706	187.0	-243411.0	4351.0	67935.0
3	17	29	5	706	188.0	-241737.0	4325.0	67286.0
3	17	29	5	707	189.0	-239765.0	4311.0	66361.0
3	17	29	5	708	190.0	-237907.0	4297.0	65959.0
3	17	29	5	709	191.0	-236171.0	4288.0	66685.0
3	17	29	5	710	192.0	-234438.0	4256.0	66059.0
3	17	29	5	711	193.0	-232836.0	4246.0	63305.0
3	17	29	5	711	194.0	-231382.0	4252.0	59826.0
3	17	29	5	712	195.0	-229765.0	4231.0	56358.0
3	17	29	5	712	219.0	-230844.0	3608.0	-44462.0
3	17	29	5	713	220.0	-232731.0	3578.0	-47021.0
3	17	29	5	714	221.0	-234835.0	3543.0	-51878.0
3	17	29	5	714	222.0	-236876.0	3538.0	-54481.0
3	17	29	5	715	223.0	-239042.0	3531.0	-55862.0
3	17	29	5	715	224.0	-241041.0	3493.0	-56392.0
3	17	29	5	716	225.0	-242609.0	3476.0	-56871.0
3	17	29	5	717	8.0	-197828.0	2936.0	-7615.0
3	17	29	5	717	9.0	-197959.0	2924.0	-6072.0
3	17	29	5	718	10.0	-198163.0	2899.0	-3996.0
3	17	29	5	718	11.0	-198748.0	2877.0	-1847.0
3	17	29	5	719	12.0	-199455.0	2861.0	-637.0
3	17	29	5	719	13.0	-200114.0	2851.0	848.0
3	17	29	5	720	14.0	-200896.0	2833.0	1563.0
3	17	29	5	750	15.0	-201494.0	2808.0	2001.0
3	17	29	5	751	16.0	-201933.0	2785.0	2596.0
3	17	29	5	751	17.0	-202524.0	2766.0	2704.0
3	17	29	5	752	18.0	-203197.0	2743.0	3040.0
3	17	29	5	753	19.0	-204178.0	2736.0	1771.0
3	17	29	5	753	20.0	-205650.0	2696.0	1665.0
3	17	29	5	754	21.0	-207519.0	2661.0	2878.0
3	17	29	5	754	22.0	-209797.0	2622.0	4203.0
3	17	29	5	755	23.0	-212174.0	2585.0	4245.0
3	17	29	5	756	24.0	-214471.0	2561.0	5003.0
3	17	29	5	756	25.0	-216396.0	2544.0	5348.0
3	17	29	5	757	26.0	-217934.0	2509.0	4521.0
3	17	29	5	757	27.0	-219114.0	2464.0	4408.0
3	17	29	5	758	28.0	-219726.0	2440.0	4796.0
3	17	29	5	759	29.0	-220056.0	2386.0	5180.0
3	17	29	5	759	31.0	-220759.0	2299.0	5579.0
3	17	29	5	760	32.0	-220929.0	2269.0	5826.0
3	17	29	5	760	33.0	-221144.0	2241.0	6128.0
3	17	29	5	761	34.0	-221624.0	2205.0	7909.0
3	17	29	5	762	35.0	-222254.0	2159.0	9428.0
3	17	29	5	762	36.0	-223013.0	2124.0	8633.0
3	17	29	5	794	37.0	-223975.0	2074.0	7219.0
3	17	29	5	795	38.0	-225127.0	2031.0	11396.0
3	17	29	5	796	39.0	-226521.0	1992.0	13723.0
3	17	29	5	807	40.0	-227926.0	1948.0	13226.0
3	17	29	5	807	41.0	-229349.0	1887.0	12106.0
3	17	29	5	808	42.0	-231002.0	1838.0	8119.0
3	17	29	5	809	43.0	-232499.0	1774.0	5436.0
3	17	29	5	809	44.0	-234251.0	1719.0	4712.0
3	17	29	5	810	45.0	-236403.0	1668.0	5044.0
3	17	29	5	810	46.0	-238603.0	1633.0	6760.0
3	17	29	5	811	47.0	-240882.0	1571.0	7774.0
3	17	29	5	811	48.0	-243407.0	1516.0	8509.0
3	17	29	5	812	49.0	-245914.0	1458.0	8234.0
3	17	29	5	813	50.0	-248209.0	1398.0	6840.0
3	17	29	5	813	51.0	-249871.0	1351.0	6188.0
3	17	29	5	814	53.0	-251919.0	1241.0	6851.0
3	17	29	5	814	54.0	-252036.0	1183.0	6718.0
3	17	29	5	815	55.0	-251656.0	1113.0	6008.0
3	17	29	5	815	56.0	-251011.0	1072.0	5628.0
3	17	29	5	816	57.0	-250126.0	1018.0	6067.0
3	17	29	5	816	58.0	-249352.0	945.0	6360.0
3	17	29	5	886	59.0	-248581.0	883.0	6083.0
3	17	29	5	887	60.0	-247809.0	826.0	4514.0
3	17	29	5	888	61.0	-246993.0	761.0	1866.0
3	17	29	5	889	62.0	-245997.0	679.0	702.0
3	17	29	5	889	63.0	-244792.0	611.0	1037.0
3	17	29	5	890	64.0	-243255.0	536.0	1100.0
3	17	29	5	891	65.0	-241534.0	468.0	749.0
3	17	29	5	891	66.0	-239472.0	388.0	1178.0
3	17	29	5	892	67.0	-237029.0	341.0	1185.0
3	17	29	5	893	68.0	-234350.0	273.0	2598.0
3	17	29	5	894	69.0	-231159.0	194.0	3154.0
3	17	29	5	894	70.0	-227527.0	114.0	2099.0
3	17	29	5	895	71.0	-224042.0	54.0	351.0
3	17	29	5	896	72.0	-220634.0	-17.0	-1663.0
3	17	29	5	896	73.0	-217533.0	-104.0	-2046.0
3	17	29	5	897	75.0	-212792.0	-211.0	-547.0
3	17	29	5	897	76.0	-211239.0	-281.0	104.0
3	17	29	5	898	77.0	-210230.0	-345.0	557.0
3	17	29	5	899	78.0	-209491.0	-434.0	3474.0
3	17	29	5	899	79.0	-208962.0	-504.0	8329.0
3	17	29	5	900	80.0	-208799.0	-566.0	18685.0
3	17	29	5	901	81.0	-209086.0	-639.0	35172.0
3	17	29	5	901	82.0	-209832.0	-714.0	61812.0
3	17	29	5	902	83.0	-211129.0	-774.0	78171.0
3	17	29	5	902	84.0	-213122.0	-852.0	86036.0
3	17	29	5	903	85.0	-215310.0	-924.0	97531.0
3	17	29	5	904	86.0	-217100.0	-989.0	110188.0
3	17	29	5	904	87.0	-218123.0	-1039.0	124050.0
3	17	29	5	905	88.0	-217952.0	-1117.0	137719.0
3	17	29	5	905	89.0	-216094.0	-1207.0	118359.0
3	17	29	5	906	90.0	-211926.0	-1274.0	77077.0
3	17	29	5	906	91.0	-205841.0	-1349.0	70091.0
3	17	29	5	907	92.0	-198129.0	-1448.0	62134.0
3	17	29	5	907	93.0	-189086.0	-1524.0	43350.0
3	17	29	5	908	94.0	-179359.0	-1598.0	23215.0
3	17	29	5	909	95.0	-170117.0	-1661.0	6436.0
3	17	29	5	909	96.0	-162833.0	-1734.0	-8206.0
3	17	29	5	910	98.0	-163268.0	-1855.0	-14814.0
3	17	29	5	910	99.0	-172159.0	-1931.0	472.0
3	17	29	5	911	100.0	-185936.0	-2016.0	3874.0
3	17	29	5	911	101.0	-203407.0	-2080.0	19216.0
3	17	29	5	912	102.0	-222634.0	-2142.0	30239.0
3	17	29	5	913	103.0	-242917.0	-2193.0	29574.0
3	17	29	5	930	104.0	-263541.0	-2258.0	25636.0
3	17	29	5	930	105.0	-283478.0	-2338.0	20615.0
3	17	29	5	931	106.0	-300264.0	-2399.0	11506.0
3	17	29	5	974	107.0	-309744.0	-2459.0	384.0
3	17	29	5	975	108.0	-306671.0	-2535.0	-5124.0
3	17	29	6	20	109.0	-288971.0	-2609.0	-8651.0
3	17	29	6	21	110.0	-260539.0	-2687.0	-15593.0
3	17	29	6	21	111.0	-229864.0	-2749.0	-22314.0
3	17	29	6	22	112.0	-203876.0	-2816.0	-30227.0
3	17	29	6	23	113.0	-188271.0	-2896.0	-39753.0
3	17	29	6	23	114.0	-183400.0	-2966.0	-43696.0
3	17	29	6	24	115.0	-184852.0	-3028.0	-43057.0
3	17	29	6	25	116.0	-185783.0	-3077.0	-44147.0
3	17	29	6	25	117.0	-185702.0	-3151.0	-44567.0
3	17	29	6	26	118.0	-189418.0	-3214.0	-46104.0
3	17	29	6	26	120.0	-213186.0	-3352.0	-43652.0
3	17	29	6	27	121.0	-221426.0	-3427.0	-43202.0
3	17	29	6	28	122.0	-227997.0	-3489.0	-43208.0
3	17	29	6	28	123.0	-231861.0	-3560.0	-42827.0
3	17	29	6	29	143.0	-162324.0	-4747.0	-20862.0
3	17	29	6	30	144.0	-169077.0	-4841.0	-26095.0
3	17	29	6	30	166.0	-153217.0	-6057.0	-84609.0
3	17	29	6	31	167.0	-153048.0	-6098.0	-78852.0
3	17	29	6	31	168.0	-154795.0	-6137.0	-73317.0
3	17	29	6	32	169.0	-158206.0	-6192.0	-69914.0
3	17	29	6	32	170.0	-162738.0	-6254.0	-71646.0
3	17	29	6	33	171.0	-167984.0	-6309.0	-74296.0
3	17	29	6	64	172.0	-173235.0	-6361.0	-75712.0
3	17	29	6	65	173.0	-178238.0	-6414.0	-74807.0
3	17	29	6	66	174.0	-182719.0	-6490.0	-76156.0
3	17	29	6	66	175.0	-187088.0	-6553.0	-80348.0
3	17	29	6	67	176.0	-191282.0	-6589.0	-83842.0
3	17	29	6	67	177.0	-194797.0	-6627.0	-85689.0
3	17	29	6	68	178.0	-197894.0	-6684.0	-81751.0
3	17	29	6	69	179.0	-200780.0	-6742.0	-75822.0
3	17	29	6	69	180.0	-203354.0	-6822.0	-72074.0
3	17	29	6	70	181.0	-205426.0	-6881.0	-71988.0
3	17	29	6	71	182.0	-207113.0	-6927.0	-71681.0
3	17	29	6	71	183.0	-207753.0	-6967.0	-71654.0
3	17	29	6	72	184.0	-207933.0	-7021.0	-76168.0
3	17	29	6	72	185.0	-207344.0	-7079.0	-82130.0
3	17	29	6	73	186.0	-205749.0	-7137.0	-80601.0
3	17	29	6	74	188.0	-200466.0	-7250.0	-82914.0
3	17	29	6	74	189.0	-196537.0	-7294.0	-82867.0
3	17	29	6	75	190.0	-191991.0	-7325.0	-82298.0
3	17	29	6	75	191.0	-187464.0	-7383.0	-83783.0
3	17	29	6	76	192.0	-183490.0	-7428.0	-85531.0
3	17	29	6	77	193.0	-179712.0	-7448.0	-87379.0
3	17	29	6	110	194.0	-175801.0	-7470.0	-88982.0
3	17	29	6	111	195.0	-171694.0	-7507.0	-91182.0
3	17	29	6	111	196.0	-167903.0	-7531.0	-90781.0
3	17	29	6	112	197.0	-164325.0	-7564.0	-89026.0
3	17	29	6	112	198.0	-160899.0	-7593.0	-86779.0
3	17	29	6	113	199.0	-157889.0	-7612.0	-85217.0
3	17	29	6	114	200.0	-155095.0	-7621.0	-74984.0
3	17	29	6	114	201.0	-153180.0	-7653.0	-63438.0
3	17	29	6	115	202.0	-151729.0	-7666.0	-66933.0
3	17	29	6	116	203.0	-150757.0	-7661.0	-61124.0
3	17	29	6	116	204.0	-150492.0	-7652.0	-55850.0
3	17	29	6	124	205.0	-150849.0	-7647.0	-59510.0
3	17	29	6	125	206.0	-151661.0	-7628.0	-61313.0
3	17	29	6	125	207.0	-152687.0	-7604.0	-61986.0
3	17	29	6	126	208.0	-154117.0	-7594.0	-63501.0
3	17	29	6	127	210.0	-157777.0	-7515.0	-67538.0
3	17	29	6	127	211.0	-159572.0	-7461.0	-75760.0
3	17	29	6	128	212.0	-161494.0	-7404.0	-84124.0
3	17	29	6	128	213.0	-162857.0	-7337.0	-82172.0
3	17	29	6	129	214.0	-164092.0	-7263.0	-78245.0
3	17	29	6	129	215.0	-165506.0	-7189.0	-84090.0
3	17	29	6	130	216.0	-167154.0	-7112.0	-93258.0
3	17	29	6	154	217.0	-169015.0	-7013.0	-102086.0
3	17	29	6	154	218.0	-170944.0	-6909.0	-108762.0
3	17	29	6	155	219.0	-173517.0	-6793.0	-119601.0
3	17	29	6	156	220.0	-176711.0	-6701.0	-129649.0
3	17	29	6	156	221.0	-179884.0	-6590.0	-148276.0
3	17	29	6	157	222.0	-182661.0	-6442.0	-167241.0
3	17	29	6	158	223.0	-185187.0	-6321.0	-180185.0
3	17	29	6	158	224.0	-187341.0	-6183.0	-189360.0
3	17	29	6	159	225.0	-188837.0	-6031.0	-195544.0
3	17	29	6	159	226.0	-189782.0	-5864.0	-197682.0
3	17	29	6	160	227.0	-190371.0	-5715.0	-197725.0
3	17	29	6	161	228.0	-190731.0	-5564.0	-199903.0
3	17	29	6	161	229.0	-190743.0	-5394.0	-202492.0
3	17	29	6	162	230.0	-190473.0	-5202.0	-203822.0
3	17	29	6	163	231.0	-190068.0	-5042.0	-210809.0
3	17	29	6	164	233.0	-189645.0	-4656.0	-227888.0
3	17	29	6	164	234.0	-189840.0	-4471.0	-218066.0
3	17	29	6	165	235.0	-190482.0	-4239.0	-214330.0
3	17	29	6	166	236.0	-191544.0	-4063.0	-214149.0
3	17	29	6	166	237.0	-192644.0	-3853.0	-214476.0
3	17	29	6	167	238.0	-194020.0	-3620.0	-217579.0
3	17	29	6	200	239.0	-195447.0	-3412.0	-246416.0
3	17	29	6	201	240.0	-196816.0	-3204.0	-252069.0
3	17	29	6	202	241.0	-198377.0	-2998.0	-245379.0
3	17	29	6	203	242.0	-199345.0	-2780.0	-247516.0
3	17	29	6	203	243.0	-199204.0	-2576.0	-257067.0
3	17	29	6	204	244.0	-198192.0	-2376.0	-294597.0
3	17	29	6	205	245.0	-195885.0	-2165.0	-309325.0
3	17	29	6	205	246.0	-191607.0	-1941.0	-305353.0
3	17	29	6	206	247.0	-184678.0	-1736.0	-302209.0
3	17	29	6	206	248.0	-167467.0	-1528.0	-300387.0
3	17	29	6	207	249.0	-139179.0	-1315.0	-299152.0
3	17	29	6	208	250.0	-118622.0	-1100.0	-299814.0
3	17	29	6	208	251.0	-111159.0	-887.0	-301031.0
3	17	29	6	209	252.0	-115360.0	-693.0	-301234.0
3	17	29	6	210	253.0	-126899.0	-492.0	-301028.0
3	17	29	6	210	255.0	-164400.0	-68.0	-293357.0
3	17	29	6	211	0.0	-178621.0	125.0	-280743.0
3	17	29	6	211	1.0	-188082.0	301.0	-272080.0
3	17	29	6	212	2.0	-194137.0	493.0	-270176.0
3	17	29	6	213	3.0	-198001.0	668.0	-271289.0
3	17	29	6	213	4.0	-200972.0	836.0	-271799.0
3	17	29	6	214	5.0	-203981.0	1042.0	-270007.0
3	17	29	6	245	6.0	-207349.0	1218.0	-270372.0
3	17	29	6	246	7.0	-211200.0	1394.0	-270630.0
3	17	29	6	247	8.0	-214985.0	1547.0	-270881.0
3	17	29	6	271	9.0	-218095.0	1706.0	-270621.0
3	17	29	6	271	10.0	-220029.0	1867.0	-268213.0
3	17	29	6	272	11.0	-220789.0	2024.0	-266286.0
3	17	29	6	273	12.0	-219631.0	2176.0	-266825.0
3	17	29	6	273	13.0	-216539.0	2335.0	-268501.0
3	17	29	6	274	14.0	-211917.0	2470.0	-271201.0
3	17	29	6	274	15.0	-205689.0	2621.0	-271732.0
3	17	29	6	275	16.0	-197529.0	2754.0	-277362.0
3	17	29	6	275	17.0	-187013.0	2879.0	-288754.0
3	17	29	6	276	18.0	-174099.0	2989.0	-296274.0
3	17	29	6	277	19.0	-159739.0	3116.0	-300257.0
3	17	29	6	277	20.0	-144809.0	3244.0	-302552.0
3	17	29	6	278	22.0	-114717.0	3483.0	-302939.0
3	17	29	6	278	23.0	-102156.0	3586.0	-302330.0
3	17	29	6	279	24.0	-91471.0	3684.0	-300916.0
3	17	29	6	279	25.0	-83053.0	3795.0	-301058.0
3	17	29	6	280	26.0	-77441.0	3905.0	-302771.0
3	17	29	6	281	27.0	-75144.0	4008.0	-307655.0
3	17	29	6	294	28.0	-75716.0	4089.0	-316767.0
3	17	29	6	295	29.0	-79277.0	4188.0	-324032.0
3	17	29	6	296	30.0	-84692.0	4286.0	-325486.0
3	17	29	6	297	31.0	-91666.0	4365.0	-320364.0
3	17	29	6	297	32.0	-99632.0	4408.0	-308909.0
3	17	29	6	298	33.0	-108510.0	4478.0	-300287.0
3	17	29	6	299	34.0	-117857.0	4553.0	-297820.0
3	17	29	6	299	35.0	-126737.0	4629.0	-296449.0
3	17	29	6	300	36.0	-135094.0	4676.0	-295638.0
3	17	29	6	301	37.0	-142577.0	4719.0	-295117.0
3	17	29	6	301	38.0	-149507.0	4770.0	-293857.0
3	17	29	6	302	39.0	-156025.0	4828.0	-292824.0
3	17	29	6	302	40.0	-162058.0	4888.0	-293040.0
3	17	29	6	303	41.0	-168096.0	4954.0	-293668.0
3	17	29	6	303	42.0	-174817.0	4970.0	-292283.0
3	17	29	6	304	44.0	-189154.0	5027.0	-289775.0
3	17	29	6	305	45.0	-195950.0	5070.0	-288172.0
3	17	29	6	305	46.0	-202531.0	5107.0	-286377.0
3	17	29	6	306	47.0	-209137.0	5154.0	-284856.0
3	17	29	6	306	48.0	-215062.0	5168.0	-284385.0
3	17	29	6	307	49.0	-220227.0	5206.0	-284042.0
3	17	29	6	336	50.0	-224864.0	5220.0	-281296.0
3	17	29	6	337	51.0	-228861.0	5234.0	-279896.0
3	17	29	6	338	52.0	-231990.0	5264.0	-277227.0
3	17	29	6	338	53.0	-234158.0	5271.0	-275628.0
3	17	29	6	339	54.0	-235379.0	5250.0	-274384.0
3	17	29	6	339	55.0	-235752.0	5253.0	-273076.0
3	17	29	6	340	56.0	-235051.0	5274.0	-273631.0
3	17	29	6	341	57.0	-233139.0	5274.0	-273229.0
3	17	29	6	341	58.0	-230383.0	5264.0	-272656.0
3	17	29	6	342	59.0	-227023.0	5266.0	-272030.0
3	17	29	6	343	60.0	-223077.0	5276.0	-270026.0
3	17	29	6	343	61.0	-218516.0	5274.0	-267083.0
3	17	29	6	344	62.0	-213963.0	5258.0	-264528.0
3	17	29	6	345	63.0	-209005.0	5238.0	-262378.0
3	17	29	6	345	64.0	-203625.0	5216.0	-261030.0
3	17	29	6	346	67.0	-188142.0	5173.0	-253109.0
3	17	29	6	346	68.0	-183135.0	5176.0	-250538.0
3	17	29	6	347	69.0	-178561.0	5165.0	-249944.0
3	17	29	6	348	70.0	-174001.0	5158.0	-250859.0
3	17	29	6	348	71.0	-170368.0	5129.0	-251947.0
3	17	29	6	349	72.0	-167357.0	5121.0	-252826.0
3	17	29	6	379	73.0	-164918.0	5099.0	-256777.0
3	17	29	6	380	74.0	-163312.0	5086.0	-259802.0
3	17	29	6	381	75.0	-162218.0	5063.0	-260621.0
3	17	29	6	381	76.0	-161640.0	5039.0	-261029.0
3	17	29	6	382	77.0	-161381.0	5026.0	-260977.0
3	17	29	6	383	78.0	-161664.0	5001.0	-260711.0
3	17	29	6	383	79.0	-162304.0	4964.0	-258993.0
3	17	29	6	384	80.0	-163214.0	4939.0	-258063.0
3	17	29	6	385	81.0	-164822.0	4923.0	-256615.0
3	17	29	6	385	82.0	-167307.0	4911.0	-256461.0
3	17	29	6	386	83.0	-170487.0	4891.0	-256563.0
3	17	29	6	387	84.0	-174075.0	4862.0	-257024.0
3	17	29	6	387	85.0	-178437.0	4839.0	-256807.0
3	17	29	6	388	86.0	-183708.0	4821.0	-256158.0
3	17	29	6	389	87.0	-189615.0	4800.0	-254672.0
3	17	29	6	389	89.0	-202494.0	4745.0	-253551.0
3	17	29	6	390	90.0	-209441.0	4714.0	-252146.0
3	17	29	6	391	91.0	-216219.0	4703.0	-248786.0
3	17	29	6	391	92.0	-222546.0	4698.0	-247634.0
3	17	29	6	392	93.0	-228442.0	4689.0	-248551.0
3	17	29	6	392	94.0	-234092.0	4671.0	-247569.0
3	17	29	6	425	95.0	-238847.0	4657.0	-245871.0
3	17	29	6	425	96.0	-242733.0	4633.0	-246799.0
3	17	29	6	426	97.0	-245643.0	4613.0	-247775.0
3	17	29	6	427	98.0	-247705.0	4594.0	-246059.0
3	17	29	6	428	99.0	-249414.0	4584.0	-245544.0
3	17	29	6	429	100.0	-250684.0	4594.0	-245722.0
3	17	29	6	429	101.0	-251516.0	4578.0	-244874.0
3	17	29	6	430	102.0	-252122.0	4553.0	-244762.0
3	17	29	6	431	103.0	-252068.0	4534.0	-245229.0
3	17	29	6	431	104.0	-251531.0	4547.0	-245457.0
3	17	29	6	432	105.0	-250496.0	4529.0	-246040.0
3	17	29	6	433	106.0	-248383.0	4524.0	-246197.0
3	17	29	6	433	107.0	-245422.0	4511.0	-246947.0
3	17	29	6	434	108.0	-241672.0	4493.0	-248007.0
3	17	29	6	434	109.0	-237409.0	4473.0	-249271.0
3	17	29	6	435	111.0	-227244.0	4464.0	-249024.0
3	17	29	6	436	112.0	-221560.0	4446.0	-249265.0
3	17	29	6	436	113.0	-215962.0	4448.0	-253226.0
3	17	29	6	437	114.0	-210450.0	4440.0	-258102.0
3	17	29	6	437	115.0	-205444.0	4449.0	-260899.0
3	17	29	6	438	116.0	-200937.0	4448.0	-262177.0
3	17	29	6	439	117.0	-196376.0	4443.0	-262827.0
3	17	29	6	468	118.0	-192152.0	4447.0	-261606.0
3	17	29	6	469	119.0	-188742.0	4446.0	-261814.0
3	17	29	6	470	120.0	-186295.0	4453.0	-260989.0
3	17	29	6	470	121.0	-184372.0	4433.0	-259520.0
3	17	29	6	471	122.0	-182971.0	4421.0	-257462.0
3	17	29	6	472	123.0	-182531.0	4413.0	-254806.0
3	17	29	6	472	124.0	-182683.0	4403.0	-253327.0
3	17	29	6	473	125.0	-183894.0	4403.0	-251357.0
3	17	29	6	474	126.0	-186344.0	4389.0	-248221.0
3	17	29	6	474	127.0	-189427.0	4379.0	-247151.0
3	17	29	6	475	128.0	-193082.0	4374.0	-247679.0
3	17	29	6	476	129.0	-197039.0	4375.0	-248912.0
3	17	29	6	476	130.0	-200830.0	4363.0	-250852.0
3	17	29	6	477	131.0	-204273.0	4342.0	-252218.0
3	17	29	6	478	132.0	-207299.0	4324.0	-250921.0
3	17	29	6	479	134.0	-211977.0	4311.0	-251064.0
3	17	29	6	479	135.0	-213800.0	4294.0	-249483.0
3	17	29	6	480	136.0	-215350.0	4269.0	-250744.0
3	17	29	6	481	137.0	-216961.0	4263.0	-249997.0
3	17	29	6	481	138.0	-218444.0	4256.0	-247787.0
3	17	29	6	482	139.0	-219602.0	4242.0	-245805.0
3	17	29	6	514	140.0	-220523.0	4235.0	-242641.0
3	17	29	6	515	141.0	-221278.0	4228.0	-240062.0
3	17	29	6	515	142.0	-221890.0	4204.0	-238654.0
3	17	29	6	516	143.0	-222316.0	4170.0	-238133.0
3	17	29	6	517	144.0	-222524.0	4132.0	-237082.0
3	17	29	6	517	145.0	-222517.0	4127.0	-235541.0
3	17	29	6	518	146.0	-222199.0	4114.0	-233477.0
3	17	29	6	519	147.0	-221095.0	4089.0	-231944.0
3	17	29	6	519	148.0	-219205.0	4045.0	-231632.0
3	17	29	6	520	149.0	-217170.0	4009.0	-231594.0
3	17	29	6	521	150.0	-214509.0	3984.0	-231596.0
3	17	29	6	521	151.0	-211964.0	3955.0	-230692.0
3	17	29	6	522	152.0	-210119.0	3935.0	-229203.0
3	17	29	6	523	153.0	-208911.0	3901.0	-230121.0
3	17	29	6	523	154.0	-208282.0	3873.0	-231642.0
3	17	29	6	524	156.0	-207336.0	3795.0	-230889.0
3	17	29	6	525	157.0	-206987.0	3759.0	-232002.0
3	17	29	6	525	158.0	-206766.0	3731.0	-233851.0
3	17	29	6	526	159.0	-206871.0	3701.0	-236840.0
3	17	29	6	527	160.0	-207466.0	3669.0	-239744.0
3	17	29	6	527	161.0	-208159.0	3624.0	-238844.0
3	17	29	6	528	162.0	-208780.0	3588.0	-237426.0
3	17	29	6	559	163.0	-209274.0	3542.0	-237282.0
3	17	29	6	560	164.0	-209756.0	3504.0	-237905.0
3	17	29	6	561	165.0	-210402.0	3471.0	-238373.0
3	17	29	6	561	166.0	-210767.0	3417.0	-237632.0
3	17	29	6	606	167.0	-210874.0	3364.0	-236926.0
3	17	29	6	607	168.0	-211069.0	3318.0	-236666.0
3	17	29	6	607	169.0	-211251.0	3275.0	-235979.0
3	17	29	6	608	170.0	-211502.0	3234.0	-237076.0
3	17	29	6	609	171.0	-212000.0	3174.0	-237313.0
3	17	29	6	610	172.0	-212692.0	3132.0	-237774.0
3	17	29	6	610	173.0	-213742.0	3077.0	-239109.0
3	17	29	6	611	174.0	-214954.0	3006.0	-240159.0
3	17	29	6	612	175.0	-216047.0	2964.0	-240357.0
3	17	29	6	612	176.0	-217367.0	2908.0	-240427.0
3	17	29	6	613	177.0	-218323.0	2843.0	-240209.0
3	17	29	6	614	179.0	-219951.0	2748.0	-236772.0
3	17	29	6	614	180.0	-221227.0	2683.0	-234985.0
3	17	29	6	615	181.0	-222601.0	2625.0	-234961.0
3	17	29	6	616	182.0	-223787.0	2574.0	-236361.0
3	17	29	6	616	201.0	-235708.0	1356.0	-229784.0
3	17	29	6	617	202.0	-233767.0	1286.0	-230472.0
3	17	29	6	618	203.0	-231344.0	1197.0	-232001.0
3	17	29	6	618	204.0	-228747.0	1127.0	-231570.0
3	17	29	6	619	205.0	-226371.0	1054.0	-230240.0
3	17	29	6	619	206.0	-224336.0	991.0	-229109.0
3	17	29	6	620	207.0	-222321.0	928.0	-225733.0
3	17	29	6	649	208.0	-220613.0	861.0	-223014.0
3	17	29	6	650	209.0	-219030.0	818.0	-223412.0
3	17	29	6	651	210.0	-217747.0	746.0	-223643.0
3	17	29	6	652	211.0	-216881.0	651.0	-225125.0
3	17	29	6	653	212.0	-216131.0	590.0	-225273.0
3	17	29	6	654	213.0	-215679.0	548.0	-227072.0
3	17	29	6	654	214.0	-215764.0	479.0	-231834.0
3	17	29	6	655	215.0	-216384.0	401.0	-234132.0
3	17	29	6	656	216.0	-217377.0	344.0	-237854.0
3	17	29	6	656	217.0	-218822.0	272.0	-238547.0
3	17	29	6	657	218.0	-220771.0	173.0	-237909.0
3	17	29	6	658	219.0	-222640.0	101.0	-238592.0
3	17	29	6	658	220.0	-223793.0	46.0	-236337.0
3	17	29	6	659	221.0	-224417.0	-14.0	-234382.0
3	17	29	6	660	222.0	-224708.0	-89.0	-232974.0
3	17	29	6	660	224.0	-224241.0	-249.0	-232916.0
3	17	29	6	661	225.0	-223407.0	-311.0	-232048.0
3	17	29	6	662	226.0	-222563.0	-373.0	-232300.0
3	17	29	6	662	227.0	-221991.0	-445.0	-230322.0
3	17	29	6	663	228.0	-222075.0	-507.0	-229914.0
3	17	29	6	663	229.0	-222976.0	-549.0	-228090.0
3	17	29	6	694	230.0	-224563.0	-621.0	-223854.0
3	17	29	6	695	231.0	-226553.0	-694.0	-218957.0
3	17	29	6	696	232.0	-229037.0	-755.0	-214177.0
3	17	29	6	697	233.0	-231442.0	-831.0	-206403.0
3	17	29	6	697	234.0	-232987.0	-904.0	-196591.0
3	17	29	6	698	235.0	-232968.0	-958.0	-186975.0
3	17	29	6	699	236.0	-230892.0	-1039.0	-178950.0
3	17	29	6	699	237.0	-226619.0	-1110.0	-174061.0
3	17	29	6	700	238.0	-219972.0	-1163.0	-171759.0
3	17	29	6	701	239.0	-210701.0	-1225.0	-171646.0
3	17	29	6	702	240.0	-199420.0	-1302.0	-175671.0
3	17	29	6	702	241.0	-186519.0	-1365.0	-180450.0
3	17	29	6	703	242.0	-173277.0	-1437.0	-185220.0
3	17	29	6	704	243.0	-161644.0	-1511.0	-193684.0
3	17	29	6	704	244.0	-153074.0	-1576.0	-205571.0
3	17	29	6	705	246.0	-149748.0	-1714.0	-218794.0
3	17	29	6	706	247.0	-154872.0	-1770.0	-222649.0
3	17	29	6	706	248.0	-163577.0	-1832.0	-223946.0
3	17	29	6	707	249.0	-175236.0	-1879.0	-225806.0
3	17	29	6	708	250.0	-189069.0	-1941.0	-227369.0
3	17	29	6	708	251.0	-203643.0	-2024.0	-228283.0
3	17	29	6	709	252.0	-217551.0	-2089.0	-231202.0
3	17	29	6	740	253.0	-230486.0	-2134.0	-235763.0
3	17	29	6	741	254.0	-240284.0	-2194.0	-238186.0
3	17	29	6	741	255.0	-241062.0	-2280.0	-239731.0
3	17	29	6	742	0.0	-225624.0	-2349.0	-239984.0
3	17	29	6	743	1.0	-195518.0	-2412.0	-239404.0
3	17	29	6	743	2.0	-159627.0	-2478.0	-239485.0
3	17	29	6	744	3.0	-129064.0	-2524.0	-237658.0
3	17	29	6	745	4.0	-113861.0	-2576.0	-236670.0
3	17	29	6	746	5.0	-119796.0	-2652.0	-237827.0
3	17	29	6	746	6.0	-140719.0	-2702.0	-237631.0
3	17	29	6	747	7.0	-164998.0	-2773.0	-238652.0
3	17	29	6	748	8.0	-185312.0	-2837.0	-240679.0
3	17	29	6	748	9.0	-202467.0	-2899.0	-241709.0
3	17	29	6	749	10.0	-217454.0	-2949.0	-241307.0
3	17	29	6	750	11.0	-232536.0	-3014.0	-241669.0
3	17	29	6	750	13.0	-265932.0	-3129.0	-241143.0
3	17	29	6	751	14.0	-273966.0	-3199.0	-240524.0
3	17	29	6	751	15.0	-267890.0	-3268.0	-240153.0
3	17	29	6	752	16.0	-246055.0	-3307.0	-240159.0
3	17	29	6	753	17.0	-221504.0	-3359.0	-240071.0
3	17	29	6	753	18.0	-204531.0	-3434.0	-239909.0
3	17	29	6	784	19.0	-197750.0	-3475.0	-239526.0
3	17	29	6	785	20.0	-201984.0	-3514.0	-240107.0
3	17	29	6	786	21.0	-214112.0	-3567.0	-240157.0
3	17	29	6	786	22.0	-228411.0	-3630.0	-244166.0
3	17	29	6	787	23.0	-240491.0	-3683.0	-248359.0
3	17	29	6	788	24.0	-246962.0	-3746.0	-250717.0
3	17	29	6	788	25.0	-246063.0	-3811.0	-252408.0
3	17	29	6	789	26.0	-237021.0	-3872.0	-255050.0
3	17	29	6	790	27.0	-221101.0	-3923.0	-256439.0
3	17	29	6	790	28.0	-201306.0	-3987.0	-255904.0
3	17	29	6	791	29.0	-181324.0	-4041.0	-255977.0
3	17	29	6	792	30.0	-163192.0	-4090.0	-254642.0
3	17	29	6	792	31.0	-147756.0	-4148.0	-253022.0
3	17	29	6	793	32.0	-134423.0	-4199.0	-252762.0
3	17	29	6	794	33.0	-122529.0	-4231.0	-252408.0
3	17	29	6	794	35.0	-106500.0	-4354.0	-248927.0
3	17	29	6	795	36.0	-103572.0	-4421.0	-247082.0
3	17	29	6	796	37.0	-104097.0	-4477.0	-247271.0
3	17	29	6	796	38.0	-107542.0	-4516.0	-247345.0
3	17	29	6	797	39.0	-113659.0	-4566.0	-246463.0
3	17	29	6	797	40.0	-122216.0	-4626.0	-244798.0
3	17	29	6	798	41.0	-133402.0	-4661.0	-243037.0
3	17	29	6	829	42.0	-145926.0	-4692.0	-242924.0
3	17	29	6	830	43.0	-157960.0	-4746.0	-242075.0
3	17	29	6	831	44.0	-168878.0	-4822.0	-241796.0
3	17	29	6	850	45.0	-177662.0	-4886.0	-240424.0
3	17	29	6	850	46.0	-184076.0	-4923.0	-240524.0
3	17	29	6	851	47.0	-188127.0	-4989.0	-241753.0
3	17	29	6	852	48.0	-190352.0	-5049.0	-242037.0
3	17	29	6	852	49.0	-190853.0	-5089.0	-241783.0
3	17	29	6	853	50.0	-190200.0	-5168.0	-241527.0
3	17	29	6	853	51.0	-188405.0	-5233.0	-242211.0
3	17	29	6	854	52.0	-186037.0	-5277.0	-243452.0
3	17	29	6	854	53.0	-183349.0	-5348.0	-242811.0
3	17	29	6	855	54.0	-180889.0	-5379.0	-241412.0
3	17	29	6	856	55.0	-178238.0	-5423.0	-241184.0
3	17	29	6	856	56.0	-175262.0	-5495.0	-241709.0
3	17	29	6	857	58.0	-170062.0	-5639.0	-241699.0
3	17	29	6	857	59.0	-168002.0	-5697.0	-243303.0
3	17	29	6	858	60.0	-166340.0	-5733.0	-243404.0
3	17	29	6	858	61.0	-165009.0	-5779.0	-243458.0
3	17	29	6	859	62.0	-164126.0	-5839.0	-245346.0
3	17	29	6	860	63.0	-163422.0	-5886.0	-243991.0
3	17	29	6	875	64.0	-162767.0	-5947.0	-240509.0
3	17	29	6	876	65.0	-162596.0	-6009.0	-238754.0
3	17	29	6	876	66.0	-162431.0	-6043.0	-238419.0
3	17	29	6	877	67.0	-162447.0	-6087.0	-238206.0
3	17	29	6	878	68.0	-162952.0	-6153.0	-231437.0
3	17	29	6	878	69.0	-163816.0	-6229.0	-209086.0
3	17	29	6	879	70.0	-164176.0	-6291.0	-201191.0
3	17	29	6	880	71.0	-164032.0	-6370.0	-199856.0
3	17	29	6	880	72.0	-164054.0	-6412.0	-199414.0
3	17	29	6	881	73.0	-164285.0	-6462.0	-199064.0
3	17	29	6	882	74.0	-164606.0	-6519.0	-198796.0
3	17	29	6	882	75.0	-165431.0	-6579.0	-199189.0
3	17	29	6	883	76.0	-166443.0	-6632.0	-199369.0
3	17	29	6	884	77.0	-167339.0	-6688.0	-198127.0
3	17	29	6	884	78.0	-168619.0	-6739.0	-199131.0
3	17	29	6	885	80.0	-172042.0	-6872.0	-199732.0
3	17	29	6	886	81.0	-174092.0	-6909.0	-198832.0
3	17	29	6	886	82.0	-175876.0	-6929.0	-198301.0
3	17	29	6	887	83.0	-177850.0	-6977.0	-197366.0
3	17	29	6	887	84.0	-180304.0	-7010.0	-195561.0
3	17	29	6	888	85.0	-182472.0	-7049.0	-190808.0
3	17	29	6	919	86.0	-184719.0	-7098.0	-187472.0
3	17	29	6	920	87.0	-186166.0	-7122.0	-185650.0
3	17	29	6	921	88.0	-187706.0	-7125.0	-184472.0
3	17	29	6	922	89.0	-189170.0	-7159.0	-184021.0
3	17	29	6	922	90.0	-190754.0	-7192.0	-183262.0
3	17	29	6	923	91.0	-192799.0	-7204.0	-184010.0
3	17	29	6	924	92.0	-194059.0	-7204.0	-184157.0
3	17	29	6	924	93.0	-195421.0	-7204.0	-181629.0
3	17	29	6	925	94.0	-196476.0	-7192.0	-178724.0
3	17	29	6	926	95.0	-198202.0	-7192.0	-175794.0
3	17	29	6	926	96.0	-200289.0	-7181.0	-173566.0
3	17	29	6	927	97.0	-201899.0	-7157.0	-173589.0
3	17	29	6	928	98.0	-203394.0	-7129.0	-173546.0
3	17	29	6	928	99.0	-204236.0	-7089.0	-173251.0
3	17	29	6	929	100.0	-204602.0	-7037.0	-170044.0
3	17	29	6	930	102.0	-202888.0	-6918.0	-171912.0
3	17	29	6	930	103.0	-201231.0	-6842.0	-175636.0
3	17	29	6	931	104.0	-198722.0	-6758.0	-179111.0
3	17	29	6	932	105.0	-196692.0	-6666.0	-182219.0
3	17	29	6	932	106.0	-194374.0	-6579.0	-182745.0
3	17	29	6	933	107.0	-191977.0	-6471.0	-183752.0
3	17	29	6	933	108.0	-190216.0	-6354.0	-187949.0
3	17	29	6	965	109.0	-188796.0	-6222.0	-185075.0
3	17	29	6	965	110.0	-187365.0	-6095.0	-180345.0
3	17	29	6	966	111.0	-186217.0	-5952.0	-175169.0
3	17	29	6	967	112.0	-184806.0	-5826.0	-171703.0
3	17	29	7	9	113.0	-183774.0	-5668.0	-169884.0
3	17	29	7	10	114.0	-182453.0	-5511.0	-166882.0
3	17	29	7	11	115.0	-181304.0	-5356.0	-165309.0
3	17	29	7	11	116.0	-180385.0	-5166.0	-165699.0
3	17	29	7	12	117.0	-179838.0	-5001.0	-165459.0
3	17	29	7	13	118.0	-179776.0	-4834.0	-165151.0
3	17	29	7	13	119.0	-180525.0	-4641.0	-169017.0
3	17	29	7	14	120.0	-181017.0	-4449.0	-178274.0
3	17	29	7	15	121.0	-180879.0	-4232.0	-184971.0
3	17	29	7	15	122.0	-180700.0	-4029.0	-186844.0
3	17	29	7	16	123.0	-180796.0	-3803.0	-187058.0
3	17	29	7	17	125.0	-182994.0	-3366.0	-185591.0
3	17	29	7	17	126.0	-185267.0	-3148.0	-184959.0
3	17	29	7	18	127.0	-188098.0	-2927.0	-183506.0
3	17	29	7	19	128.0	-191179.0	-2716.0	-180624.0
3	17	29	7	19	129.0	-194458.0	-2484.0	-177737.0
3	17	29	7	20	148.0	-169782.0	1741.0	-158259.0
3	17	29	7	21	149.0	-182126.0	1947.0	-157317.0
3	17	29	7	21	150.0	-189132.0	2146.0	-155142.0
3	17	29	7	22	151.0	-189916.0	2356.0	-155192.0
3	17	29	7	22	152.0	-186726.0	2539.0	-155107.0
3	17	29	7	23	153.0	-182369.0	2728.0	-155008.0
3	17	29	7	55	154.0	-177459.0	2909.0	-153791.0
3	17	29	7	56	155.0	-173532.0	3076.0	-152817.0
3	17	29	7	57	156.0	-171761.0	3264.0	-150621.0
3	17	29	7	58	157.0	-171761.0	3423.0	-147996.0
3	17	29	7	58	158.0	-172852.0	3589.0	-147816.0
3	17	29	7	59	159.0	-174787.0	3743.0	-150074.0
3	17	29	7	60	160.0	-178152.0	3909.0	-149226.0
3	17	29	7	60	161.0	-182287.0	4057.0	-147290.0
3	17	29	7	61	162.0	-187244.0	4209.0	-145252.0
3	17	29	7	62	163.0	-192805.0	4351.0	-146349.0
3	17	29	7	62	164.0	-197473.0	4486.0	-147486.0
3	17	29	7	63	165.0	-201594.0	4621.0	-146444.0
3	17	29	7	64	166.0	-204690.0	4751.0	-146309.0
3	17	29	7	65	167.0	-206257.0	4879.0	-147648.0
3	17	29	7	65	168.0	-206884.0	5006.0	-150454.0
3	17	29	7	67	170.0	-203292.0	5241.0	-148664.0
3	17	29	7	68	171.0	-199329.0	5343.0	-145372.0
3	17	29	7	76	172.0	-194431.0	5470.0	-132141.0
3	17	29	7	77	173.0	-188961.0	5591.0	-119883.0
3	17	29	7	78	174.0	-183468.0	5692.0	-125494.0
3	17	29	7	79	175.0	-178675.0	5771.0	-123911.0
3	17	29	7	100	176.0	-175276.0	5866.0	-119839.0
3	17	29	7	100	177.0	-173175.0	5954.0	-118917.0
3	17	29	7	101	178.0	-172353.0	6054.0	-113492.0
3	17	29	7	102	179.0	-172337.0	6134.0	-112716.0
3	17	29	7	102	180.0	-172974.0	6223.0	-55782.0
3	17	29	7	103	181.0	-173412.0	6291.0	31135.0
3	17	29	7	103	182.0	-173562.0	6367.0	28492.0
3	17	29	7	104	183.0	-173997.0	6448.0	-9623.0
3	17	29	7	104	184.0	-174436.0	6501.0	-34890.0
3	17	29	7	105	185.0	-175091.0	6548.0	-44133.0
3	17	29	7	106	186.0	-175747.0	6606.0	-39141.0
3	17	29	7	106	187.0	-176664.0	6659.0	-44001.0
3	17	29	7	107	188.0	-177443.0	6703.0	-47766.0
3	17	29	7	107	189.0	-178465.0	6761.0	-47766.0
3	17	29	7	108	190.0	-178781.0	6803.0	-48980.0
3	17	29	7	109	192.0	-178420.0	6894.0	-49463.0
3	17	29	7	109	193.0	-179020.0	6925.0	-45830.0
3	17	29	7	110	194.0	-179844.0	6959.0	-45380.0
3	17	29	7	110	195.0	-180964.0	6995.0	-46285.0
3	17	29	7	111	196.0	-182594.0	7035.0	-46095.0
3	17	29	7	111	197.0	-184989.0	7082.0	-43764.0
3	17	29	7	112	198.0	-187852.0	7089.0	-36363.0
3	17	29	7	144	199.0	-190942.0	7107.0	-35759.0
3	17	29	7	145	200.0	-194884.0	7138.0	-41087.0
3	17	29	7	145	201.0	-199209.0	7155.0	-42432.0
3	17	29	7	146	202.0	-203954.0	7162.0	-43015.0
3	17	29	7	146	203.0	-208550.0	7180.0	-44554.0
3	17	29	7	147	204.0	-213458.0	7195.0	-47476.0
3	17	29	7	147	205.0	-218080.0	7176.0	-50385.0
3	17	29	7	148	206.0	-222915.0	7189.0	-57084.0
3	17	29	7	149	207.0	-227684.0	7192.0	-65311.0
3	17	29	7	149	208.0	-232376.0	7184.0	-67574.0
3	17	29	7	150	209.0	-236805.0	7183.0	-69994.0
3	17	29	7	150	210.0	-240784.0	7185.0	-71338.0
3	17	29	7	151	211.0	-244519.0	7192.0	-70705.0
3	17	29	7	151	212.0	-248299.0	7181.0	-69457.0
3	17	29	7	152	213.0	-251672.0	7168.0	-68849.0
3	17	29	7	153	215.0	-258277.0	7153.0	-66149.0
3	17	29	7	153	216.0	-261062.0	7145.0	-64404.0
3	17	29	7	154	217.0	-263992.0	7131.0	-63340.0
3	17	29	7	154	218.0	-265985.0	7109.0	-62633.0
3	17	29	7	155	219.0	-267272.0	7106.0	-61490.0
3	17	29	7	155	220.0	-268047.0	7098.0	-60275.0
3	17	29	7	189	221.0	-268554.0	7081.0	-59803.0
3	17	29	7	189	222.0	-268691.0	7064.0	-60079.0
3	17	29	7	214	223.0	-268901.0	7070.0	-59187.0
3	17	29	7	214	224.0	-269161.0	7043.0	-55329.0
3	17	29	7	215	225.0	-269731.0	7020.0	-54687.0
3	17	29	7	215	226.0	-269629.0	7002.0	-55191.0
3	17	29	7	216	227.0	-268404.0	6961.0	-53612.0
3	17	29	7	217	228.0	-266782.0	6935.0	-50806.0
3	17	29	7	217	229.0	-264659.0	6924.0	-50908.0
3	17	29	7	218	230.0	-262121.0	6890.0	-56072.0
3	17	29	7	218	231.0	-259286.0	6878.0	-59006.0
3	17	29	7	219	232.0	-256372.0	6885.0	-58572.0
3	17	29	7	219	233.0	-253895.0	6843.0	-58687.0
3	17	29	7	220	234.0	-251142.0	6813.0	-58848.0
3	17	29	7	220	235.0	-248532.0	6786.0	-60739.0
3	17	29	7	221	237.0	-243544.0	6740.0	-61184.0
3	17	29	7	221	238.0	-242014.0	6723.0	-60176.0
3	17	29	7	222	239.0	-240583.0	6709.0	-58497.0
3	17	29	7	223	240.0	-239763.0	6693.0	-58145.0
3	17	29	7	223	241.0	-240081.0	6675.0	-61031.0
3	17	29	7	224	242.0	-240529.0	6651.0	-62652.0
3	17	29	7	224	243.0	-241824.0	6641.0	-61096.0
3	17	29	7	237	244.0	-242911.0	6624.0	-59207.0
3	17	29	7	238	245.0	-244396.0	6624.0	-58861.0
3	17	29	7	239	246.0	-246479.0	6614.0	-58637.0
3	17	29	7	240	247.0	-248816.0	6586.0	-58553.0
3	17	29	7	240	248.0	-251641.0	6578.0	-58901.0
3	17	29	7	241	249.0	-254098.0	6540.0	-58607.0
3	17	29	7	241	250.0	-256949.0	6503.0	-57534.0
3	17	29	7	242	251.0	-259431.0	6512.0	-59031.0
3	17	29	7	243	252.0	-261786.0	6506.0	-59454.0
3	17	29	7	243	253.0	-264032.0	6489.0	-57298.0
3	17	29	7	244	254.0	-265800.0	6458.0	-54119.0
3	17	29	7	244	255.0	-267266.0	6444.0	-53883.0
3	17	29	7	245	0.0	-268686.0	6445.0	-53614.0
3	17	29	7	246	1.0	-269776.0	6414.0	-53819.0
3	17	29	7	246	2.0	-270601.0	6406.0	-53494.0
3	17	29	7	247	4.0	-270347.0	6371.0	-57142.0
3	17	29	7	247	5.0	-269252.0	6361.0	-61716.0
3	17	29	7	248	6.0	-267469.0	6366.0	-72784.0
3	17	29	7	248	7.0	-265209.0	6343.0	-81624.0
3	17	29	7	249	8.0	-262352.0	6336.0	-86017.0
3	17	29	7	249	9.0	-259334.0	6343.0	-88217.0
3	17	29	7	281	10.0	-255574.0	6329.0	-91158.0
3	17	29	7	281	11.0	-251279.0	6314.0	-94062.0
3	17	29	7	282	12.0	-246963.0	6314.0	-90847.0
3	17	29	7	283	13.0	-242791.0	6290.0	-95017.0
3	17	29	7	283	14.0	-238834.0	6266.0	-98959.0
3	17	29	7	284	15.0	-234780.0	6271.0	-94253.0
3	17	29	7	284	16.0	-230882.0	6256.0	-93343.0
3	17	29	7	285	17.0	-227572.0	6237.0	-99462.0
3	17	29	7	285	18.0	-224841.0	6228.0	-98830.0
3	17	29	7	286	19.0	-222685.0	6213.0	-93834.0
3	17	29	7	287	20.0	-221729.0	6191.0	-92104.0
3	17	29	7	287	21.0	-221762.0	6185.0	-92302.0
3	17	29	7	288	22.0	-222213.0	6166.0	-92041.0
3	17	29	7	288	23.0	-223362.0	6138.0	-91340.0
3	17	29	7	289	24.0	-225290.0	6115.0	-91124.0
3	17	29	7	290	26.0	-231215.0	6080.0	-89639.0
3	17	29	7	290	27.0	-235279.0	6057.0	-87612.0
3	17	29	7	291	28.0	-239808.0	6039.0	-84762.0
3	17	29	7	291	29.0	-244953.0	6036.0	-83169.0
3	17	29	7	292	30.0	-249799.0	6020.0	-82291.0
3	17	29	7	292	31.0	-254359.0	5990.0	-80199.0
3	17	29	7	293	32.0	-258142.0	5959.0	-81189.0
3	17	29	7	324	33.0	-260889.0	5933.0	-83117.0
3	17	29	7	325	34.0	-262749.0	5916.0	-82914.0
3	17	29	7	326	35.0	-264029.0	5891.0	-82889.0
3	17	29	7	326	36.0	-264516.0	5867.0	-81947.0
3	17	29	7	327	37.0	-264821.0	5836.0	-81163.0
3	17	29	7	327	38.0	-264795.0	5774.0	-80473.0
3	17	29	7	328	39.0	-264735.0	5733.0	-80949.0
3	17	29	7	329	40.0	-264475.0	5708.0	-80770.0
3	17	29	7	329	41.0	-263909.0	5691.0	-80820.0
3	17	29	7	330	42.0	-262682.0	5646.0	-82535.0
3	17	29	7	330	43.0	-261502.0	5614.0	-85069.0
3	17	29	7	331	44.0	-259805.0	5573.0	-84724.0
3	17	29	7	331	45.0	-257500.0	5544.0	-82115.0
3	17	29	7	332	46.0	-255017.0	5509.0	-81781.0
3	17	29	7	333	47.0	-252111.0	5460.0	-80919.0
3	17	29	7	333	49.0	-246239.0	5376.0	-77184.0
3	17	29	7	334	50.0	-243107.0	5331.0	-77065.0
3	17	29	7	334	51.0	-240026.0	5303.0	-75691.0
3	17	29	7	335	52.0	-237197.0	5249.0	-75107.0
3	17	29	7	335	53.0	-234044.0	5193.0	-75266.0
3	17	29	7	345	54.0	-231290.0	5177.0	-75176.0
3	17	29	7	370	55.0	-228659.0	5130.0	-76621.0
3	17	29	7	371	56.0	-226769.0	5087.0	-75409.0
3	17	29	7	371	57.0	-225790.0	5049.0	-71563.0
3	17	29	7	372	58.0	-225569.0	4986.0	-69579.0
3	17	29	7	373	59.0	-226641.0	4936.0	-69244.0
3	17	29	7	373	60.0	-228169.0	4886.0	-68619.0
3	17	29	7	374	61.0	-230566.0	4816.0	-68302.0
3	17	29	7	374	62.0	-232947.0	4754.0	-67552.0
3	17	29	7	375	63.0	-235482.0	4701.0	-66469.0
3	17	29	7	375	64.0	-238347.0	4649.0	-66145.0
3	17	29	7	376	65.0	-241342.0	4581.0	-67211.0
3	17	29	7	377	66.0	-244353.0	4533.0	-69006.0
3	17	29	7	377	67.0	-247351.0	4472.0	-68746.0
3	17	29	7	378	68.0	-250137.0	4386.0	-66657.0
3	17	29	7	378	69.0	-252642.0	4326.0	-64594.0
3	17	29	7	379	71.0	-257085.0	4213.0	-65421.0
3	17	29	7	380	72.0	-258816.0	4160.0	-67552.0
3	17	29	7	380	73.0	-259976.0	4098.0	-71104.0
3	17	29	7	381	74.0	-261286.0	4036.0	-72351.0
3	17	29	7	381	75.0	-262770.0	3980.0	-73599.0
3	17	29	7	382	76.0	-264552.0	3930.0	-74899.0
3	17	29	7	413	77.0	-266123.0	3871.0	-78501.0
3	17	29	7	414	78.0	-267004.0	3801.0	-88906.0
3	17	29	7	415	79.0	-267366.0	3726.0	-101521.0
3	17	29	7	460	80.0	-267409.0	3679.0	-105416.0
3	17	29	7	461	81.0	-266393.0	3604.0	-108113.0
3	17	29	7	461	82.0	-264828.0	3538.0	-110064.0
3	17	29	7	462	83.0	-263055.0	3482.0	-111610.0
3	17	29	7	462	84.0	-261505.0	3401.0	-112606.0
3	17	29	7	463	85.0	-260091.0	3330.0	-111859.0
3	17	29	7	464	86.0	-259273.0	3260.0	-110559.0
3	17	29	7	464	87.0	-259586.0	3178.0	-111557.0
3	17	29	7	465	88.0	-260196.0	3112.0	-111573.0
3	17	29	7	466	89.0	-261049.0	3032.0	-109969.0
3	17	29	7	466	90.0	-262423.0	2953.0	-109468.0
3	17	29	7	467	91.0	-263763.0	2884.0	-108842.0
3	17	29	7	467	94.0	-264179.0	2676.0	-106031.0
3	17	29	7	468	95.0	-263560.0	2619.0	-103329.0
3	17	29	7	469	96.0	-262352.0	2562.0	-100325.0
3	17	29	7	469	97.0	-260309.0	2476.0	-96997.0
3	17	29	7	470	116.0	-190096.0	1072.0	-193421.0
3	17	29	7	471	117.0	-187319.0	1008.0	-224073.0
3	17	29	7	472	118.0	-184995.0	942.0	-255274.0
3	17	29	7	472	119.0	-183959.0	868.0	-261204.0
3	17	29	7	473	120.0	-183941.0	791.0	-261254.0
3	17	29	7	474	121.0	-184642.0	718.0	-258759.0
3	17	29	7	474	122.0	-186080.0	653.0	-254885.0
3	17	29	7	505	123.0	-187897.0	596.0	-253171.0
3	17	29	7	505	124.0	-189743.0	539.0	-247483.0
3	17	29	7	506	125.0	-190816.0	486.0	-237634.0
3	17	29	7	507	126.0	-190764.0	403.0	-225864.0
3	17	29	7	507	127.0	-189066.0	334.0	-215077.0
3	17	29	7	508	128.0	-185540.0	264.0	-209000.0
3	17	29	7	509	129.0	-180057.0	198.0	-206929.0
3	17	29	7	509	130.0	-172577.0	126.0	-207385.0
3	17	29	7	510	131.0	-163759.0	61.0	-212446.0
3	17	29	7	511	132.0	-154791.0	-6.0	-221969.0
3	17	29	7	511	133.0	-146396.0	-70.0	-232594.0
3	17	29	7	512	134.0	-139530.0	-147.0	-253414.0
3	17	29	7	512	135.0	-136382.0	-194.0	-268833.0
3	17	29	7	513	136.0	-139083.0	-255.0	-274844.0
3	17	29	7	514	137.0	-147630.0	-318.0	-272541.0
3	17	29	7	514	138.0	-161194.0	-393.0	-274273.0
3	17	29	7	515	139.0	-180032.0	-449.0	-278294.0
3	17	29	7	516	140.0	-201155.0	-522.0	-282139.0
3	17	29	7	516	141.0	-223992.0	-586.0	-285951.0
3	17	29	7	517	142.0	-247391.0	-646.0	-285829.0
3	17	29	7	517	143.0	-271067.0	-696.0	-283542.0
3	17	29	7	518	144.0	-293948.0	-736.0	-283204.0
3	17	29	7	550	145.0	-313934.0	-782.0	-285096.0
3	17	29	7	551	146.0	-326122.0	-838.0	-286647.0
3	17	29	7	551	147.0	-325148.0	-899.0	-284426.0
3	17	29	7	552	148.0	-309537.0	-977.0	-281949.0
3	17	29	7	552	149.0	-283024.0	-1040.0	-282455.0
3	17	29	7	553	150.0	-251521.0	-1080.0	-283239.0
3	17	29	7	561	151.0	-224262.0	-1151.0	-287034.0
3	17	29	7	561	152.0	-209932.0	-1229.0	-287067.0
3	17	29	7	595	153.0	-209232.0	-1268.0	-278432.0
3	17	29	7	595	154.0	-215789.0	-1319.0	-273019.0
3	17	29	7	596	155.0	-222011.0	-1367.0	-273002.0
3	17	29	7	597	156.0	-227841.0	-1436.0	-263180.0
3	17	29	7	640	157.0	-236444.0	-1494.0	-248511.0
3	17	29	7	641	158.0	-248322.0	-1546.0	-241458.0
3	17	29	7	642	159.0	-258617.0	-1604.0	-237203.0
3	17	29	7	643	161.0	-260327.0	-1746.0	-227622.0
3	17	29	7	684	162.0	-244696.0	-1795.0	-224512.0
3	17	29	7	685	163.0	-225167.0	-1837.0	-224036.0
3	17	29	7	686	164.0	-205896.0	-1902.0	-224448.0
3	17	29	7	686	165.0	-189192.0	-1951.0	-223693.0
3	17	29	7	687	166.0	-178861.0	-1997.0	-225229.0
3	17	29	7	687	167.0	-175736.0	-2046.0	-229406.0
3	17	29	7	688	168.0	-179086.0	-2087.0	-245964.0
3	17	29	7	689	169.0	-187592.0	-2145.0	-270241.0
3	17	29	7	689	184.0	-188332.0	-2914.0	-198292.0
3	17	29	7	690	185.0	-203019.0	-2959.0	-192746.0
3	17	29	7	691	186.0	-216868.0	-2999.0	-187988.0
3	17	29	7	691	187.0	-229546.0	-3050.0	-183989.0
3	17	29	7	692	206.0	-129688.0	-4072.0	-145041.0
3	17	29	7	693	207.0	-125548.0	-4131.0	-144042.0
3	17	29	7	693	208.0	-122496.0	-4167.0	-142944.0
3	17	29	7	694	209.0	-120277.0	-4221.0	-144068.0
3	17	29	7	695	229.0	-168747.0	-5360.0	-134533.0
3	17	29	7	695	230.0	-171272.0	-5389.0	-135493.0
3	17	29	7	696	231.0	-173449.0	-5431.0	-134036.0
3	17	29	7	697	232.0	-174851.0	-5464.0	-135189.0
3	17	29	7	697	233.0	-175562.0	-5495.0	-138421.0
3	17	29	7	698	234.0	-175450.0	-5554.0	-139723.0
3	17	29	7	729	235.0	-174899.0	-5586.0	-140403.0
3	17	29	7	730	236.0	-173786.0	-5602.0	-141640.0
3	17	29	7	730	237.0	-171374.0	-5629.0	-143453.0
3	17	29	7	743	238.0	-168309.0	-5657.0	-143019.0
3	17	29	7	743	239.0	-164592.0	-5666.0	-141479.0
3	17	29	7	744	240.0	-160046.0	-5685.0	-141684.0
3	17	29	7	745	241.0	-154867.0	-5706.0	-142359.0
3	17	29	7	745	242.0	-149139.0	-5697.0	-141339.0
3	17	29	7	746	243.0	-143174.0	-5686.0	-140869.0
3	17	29	7	746	244.0	-137031.0	-5670.0	-141802.0
3	17	29	7	747	245.0	-131115.0	-5651.0	-142453.0
3	17	29	7	747	246.0	-125903.0	-5626.0	-143956.0
3	17	29	7	748	247.0	-121173.0	-5602.0	-142187.0
3	17	29	7	749	248.0	-117637.0	-5562.0	-142720.0
3	17	29	7	749	249.0	-115024.0	-5501.0	-144516.0
3	17	29	7	750	251.0	-112753.0	-5401.0	-143822.0
3	17	29	7	750	252.0	-112861.0	-5336.0	-142441.0
3	17	29	7	751	253.0	-113202.0	-5251.0	-137612.0
3	17	29	7	751	254.0	-113872.0	-5166.0	-139617.0
3	17	29	7	752	255.0	-114641.0	-5066.0	-139926.0
3	17	29	7	752	0.0	-115833.0	-4946.0	-139696.0
3	17	29	7	775	1.0	-117291.0	-4831.0	-142994.0
3	17	29	7	776	2.0	-118951.0	-4709.0	-143092.0
3	17	29	7	777	3.0	-120789.0	-4584.0	-143020.0
3	17	29	7	777	4.0	-122774.0	-4454.0	-142876.0
3	17	29	7	778	5.0	-125254.0	-4299.0	-140142.0
3	17	29	7	779	6.0	-128761.0	-4153.0	-138494.0
3	17	29	7	779	7.0	-132617.0	-3991.0	-136901.0
3	17	29	7	780	8.0	-136777.0	-3834.0	-135497.0
3	17	29	7	781	9.0	-141641.0	-3666.0	-132736.0
3	17	29	7	781	10.0	-146986.0	-3492.0	-128131.0
3	17	29	7	782	11.0	-152300.0	-3312.0	-125439.0
3	17	29	7	783	12.0	-157632.0	-3118.0	-123435.0
3	17	29	7	783	13.0	-162777.0	-2931.0	-120807.0
3	17	29	7	784	14.0	-168116.0	-2720.0	-120394.0
3	17	29	7	785	15.0	-173171.0	-2516.0	-120727.0
3	17	29	7	785	17.0	-182767.0	-2097.0	-124832.0
3	17	29	7	786	18.0	-187500.0	-1869.0	-122292.0
3	17	29	7	786	19.0	-192389.0	-1639.0	-119276.0
3	17	29	7	787	20.0	-197082.0	-1412.0	-119169.0
3	17	29	7	788	21.0	-202117.0	-1179.0	-119915.0
3	17	29	7	788	22.0	-207522.0	-967.0	-118734.0
3	17	29	7	789	23.0	-213056.0	-744.0	-120670.0
3	17	29	7	820	24.0	-218737.0	-506.0	-120961.0
3	17	29	7	820	25.0	-224499.0	-272.0	-121022.0
3	17	29	7	821	26.0	-230369.0	-48.0	-120915.0
3	17	29	7	822	27.0	-235494.0	198.0	-119766.0
3	17	29	7	822	28.0	-239249.0	425.0	-118878.0
3	17	29	7	823	29.0	-240467.0	644.0	-117667.0
3	17	29	7	824	30.0	-237484.0	861.0	-116833.0
3	17	29	7	824	31.0	-227803.0	1101.0	-116270.0
3	17	29	7	825	32.0	-202539.0	1326.0	-114325.0
3	17	29	7	826	33.0	-170353.0	1545.0	-113777.0
3	17	29	7	826	34.0	-150196.0	1776.0	-112995.0
3	17	29	7	827	35.0	-144606.0	1969.0	-115166.0
3	17	29	7	827	36.0	-147971.0	2193.0	-131731.0
3	17	29	7	828	37.0	-160226.0	2421.0	-144812.0
3	17	29	7	829	38.0	-177672.0	2634.0	-147566.0
3	17	29	7	829	40.0	-202797.0	3037.0	-149610.0
3	17	29	7	830	41.0	-206907.0	3234.0	-150926.0
3	17	29	7	831	42.0	-206327.0	3431.0	-149654.0
3	17	29	7	831	43.0	-203302.0	3630.0	-150447.0
3	17	29	7	832	44.0	-200302.0	3817.0	-151416.0
3	17	29	7	832	45.0	-198634.0	3999.0	-150416.0
3	17	29	7	865	46.0	-195984.0	4177.0	-151207.0
3	17	29	7	865	47.0	-193593.0	4363.0	-152016.0
3	17	29	7	866	48.0	-192647.0	4547.0	-152627.0
3	17	29	7	867	49.0	-193151.0	4692.0	-152834.0
3	17	29	7	867	50.0	-194290.0	4846.0	-152099.0
3	17	29	7	868	51.0	-195355.0	5026.0	-155593.0
3	17	29	7	869	52.0	-196152.0	5164.0	-159631.0
3	17	29	7	869	53.0	-195932.0	5306.0	-161256.0
3	17	29	7	870	54.0	-194251.0	5445.0	-161145.0
3	17	29	7	871	55.0	-190754.0	5591.0	-162483.0
3	17	29	7	871	56.0	-184818.0	5728.0	-160631.0
3	17	29	7	872	57.0	-176070.0	5851.0	-159810.0
3	17	29	7	873	58.0	-164114.0	5988.0	-160314.0
3	17	29	7	873	59.0	-150074.0	6096.0	-159058.0
3	17	29	7	874	60.0	-134615.0	6218.0	-156127.0
3	17	29	7	874	62.0	-106018.0	6423.0	-157723.0
3	17	29	7	875	63.0	-94452.0	6507.0	-161785.0
3	17	29	7	876	64.0	-86247.0	6615.0	-163807.0
3	17	29	7	876	65.0	-82704.0	6716.0	-164021.0
3	17	29	7	877	66.0	-83194.0	6813.0	-163666.0
3	17	29	7	877	67.0	-87255.0	6906.0	-164409.0
3	17	29	7	878	68.0	-93786.0	7001.0	-162999.0
3	17	29	7	909	69.0	-101692.0	7083.0	-163260.0
3	17	29	7	910	70.0	-109958.0	7168.0	-161826.0
3	17	29	7	911	71.0	-118147.0	7219.0	-158723.0
3	17	29	7	911	72.0	-126501.0	7276.0	-157936.0
3	17	29	7	912	73.0	-135225.0	7345.0	-161087.0
3	17	29	7	913	74.0	-143228.0	7404.0	-173368.0
3	17	29	7	913	75.0	-150611.0	7450.0	-186931.0
3	17	29	7	914	76.0	-157204.0	7510.0	-194504.0
3	17	29	7	915	77.0	-163576.0	7548.0	-200015.0
3	17	29	7	915	78.0	-169589.0	7603.0	-202491.0
3	17	29	7	916	79.0	-175661.0	7634.0	-203359.0
3	17	29	7	917	80.0	-181613.0	7666.0	-202192.0
3	17	29	7	917	81.0	-187293.0	7709.0	-201217.0
3	17	29	7	918	82.0	-192893.0	7753.0	-200833.0
3	17	29	7	918	83.0	-198255.0	7772.0	-200318.0
3	17	29	7	919	85.0	-207726.0	7808.0	-203672.0
3	17	29	7	920	86.0	-211846.0	7857.0	-204211.0
3	17	29	7	920	87.0	-215669.0	7875.0	-204036.0
3	17	29	7	921	88.0	-218811.0	7899.0	-204917.0
3	17	29	7	922	89.0	-221197.0	7899.0	-206140.0
3	17	29	7	922	90.0	-223018.0	7905.0	-208562.0
3	17	29	7	954	91.0	-224345.0	7906.0	-209961.0
3	17	29	7	955	92.0	-225046.0	7906.0	-210076.0
3	17	29	7	956	93.0	-224860.0	7918.0	-209515.0
3	17	29	7	956	94.0	-224437.0	7916.0	-207511.0
3	17	29	8	0	95.0	-223858.0	7913.0	-202880.0
3	17	29	8	0	96.0	-223298.0	7903.0	-195242.0
3	17	29	8	1	97.0	-222556.0	7921.0	-187674.0
3	17	29	8	2	98.0	-222298.0	7901.0	-182377.0
3	17	29	8	2	99.0	-222195.0	7879.0	-179061.0
3	17	29	8	3	100.0	-222276.0	7879.0	-177046.0
3	17	29	8	4	101.0	-221679.0	7844.0	-174559.0
3	17	29	8	4	102.0	-220905.0	7837.0	-174350.0
3	17	29	8	5	103.0	-219562.0	7816.0	-173125.0
3	17	29	8	6	104.0	-218084.0	7792.0	-171809.0
3	17	29	8	6	105.0	-215665.0	7762.0	-171648.0
3	17	29	8	7	107.0	-210239.0	7724.0	-174937.0
3	17	29	8	7	108.0	-207659.0	7685.0	-177172.0
3	17	29	8	46	109.0	-205171.0	7676.0	-177897.0
3	17	29	8	46	110.0	-203299.0	7645.0	-178742.0
3	17	29	8	47	111.0	-202019.0	7613.0	-178464.0
3	17	29	8	48	130.0	-229173.0	7020.0	-157561.0
3	17	29	8	48	131.0	-230664.0	7014.0	-152622.0
3	17	29	8	49	132.0	-231822.0	6983.0	-149874.0
3	17	29	8	50	133.0	-232715.0	6959.0	-147494.0
3	17	29	8	50	134.0	-233279.0	6944.0	-145403.0
3	17	29	8	51	135.0	-233142.0	6938.0	-142131.0
3	17	29	8	52	136.0	-232352.0	6914.0	-139238.0
3	17	29	8	52	137.0	-231146.0	6872.0	-135419.0
3	17	29	8	53	138.0	-229476.0	6856.0	-132892.0
3	17	29	8	54	139.0	-227236.0	6833.0	-127421.0
3	17	29	8	54	140.0	-224569.0	6811.0	-124104.0
3	17	29	8	55	141.0	-221997.0	6799.0	-126319.0
3	17	29	8	56	142.0	-219351.0	6783.0	-128924.0
3	17	29	8	56	152.0	-203790.0	6579.0	-109612.0
3	17	29	8	57	153.0	-203771.0	6571.0	-106763.0
3	17	29	8	57	154.0	-203784.0	6564.0	-104624.0
3	17	29	8	58	155.0	-203550.0	6565.0	-103508.0
3	17	29	8	59	156.0	-203840.0	6548.0	-101038.0
3	17	29	8	59	157.0	-204332.0	6528.0	-99568.0
3	17	29	8	60	158.0	-204265.0	6512.0	-98242.0
3	17	29	8	90	159.0	-204229.0	6505.0	-95912.0
3	17	29	8	91	160.0	-204611.0	6496.0	-96313.0
3	17	29	8	91	161.0	-205349.0	6464.0	-98879.0
3	17	29	8	92	162.0	-206029.0	6438.0	-101261.0
3	17	29	8	93	163.0	-206504.0	6429.0	-102957.0
3	17	29	8	93	164.0	-207201.0	6410.0	-104116.0
3	17	29	8	94	165.0	-207320.0	6387.0	-103471.0
3	17	29	8	95	166.0	-207239.0	6358.0	-103524.0
3	17	29	8	95	167.0	-207139.0	6345.0	-103694.0
3	17	29	8	96	168.0	-207024.0	6320.0	-102064.0
3	17	29	8	97	169.0	-206628.0	6301.0	-102061.0
3	17	29	8	97	170.0	-205806.0	6283.0	-102027.0
3	17	29	8	98	171.0	-204969.0	6254.0	-102498.0
3	17	29	8	99	172.0	-204274.0	6243.0	-103151.0
3	17	29	8	99	173.0	-203927.0	6202.0	-105873.0
3	17	29	8	100	174.0	-203708.0	6176.0	-109017.0
3	17	29	8	101	175.0	-203519.0	6154.0	-104484.0
3	17	29	8	101	176.0	-203277.0	6131.0	-101583.0
3	17	29	8	102	177.0	-203279.0	6109.0	-102982.0
3	17	29	8	103	178.0	-203789.0	6076.0	-103955.0
3	17	29	8	103	179.0	-204537.0	6052.0	-104092.0
3	17	29	8	104	180.0	-205333.0	6021.0	-103567.0
3	17	29	8	134	181.0	-206246.0	5986.0	-101037.0
3	17	29	8	134	182.0	-207210.0	5956.0	-99334.0
3	17	29	8	135	183.0	-208083.0	5916.0	-96916.0
3	17	29	8	136	184.0	-208736.0	5865.0	-94751.0
3	17	29	8	137	185.0	-209336.0	5823.0	-92962.0
3	17	29	8	137	186.0	-209986.0	5793.0	-92147.0
3	17	29	8	138	187.0	-210255.0	5752.0	-91271.0
3	17	29	8	139	188.0	-210331.0	5717.0	-88101.0
3	17	29	8	139	189.0	-210166.0	5684.0	-86347.0
3	17	29	8	140	190.0	-209864.0	5632.0	-87766.0
3	17	29	8	141	191.0	-209619.0	5578.0	-88506.0
3	17	29	8	141	192.0	-209033.0	5526.0	-89926.0
3	17	29	8	142	193.0	-208822.0	5480.0	-90689.0
3	17	29	8	143	194.0	-208435.0	5435.0	-91361.0
3	17	29	8	143	195.0	-207997.0	5389.0	-90918.0
3	17	29	8	144	197.0	-207506.0	5296.0	-94408.0
3	17	29	8	145	198.0	-207542.0	5243.0	-95784.0
3	17	29	8	145	199.0	-208107.0	5192.0	-100326.0
3	17	29	8	146	200.0	-208676.0	5141.0	-107403.0
3	17	29	8	147	201.0	-209332.0	5095.0	-112378.0
3	17	29	8	147	202.0	-209614.0	5028.0	-114702.0
3	17	29	8	180	203.0	-209831.0	4976.0	-117107.0
3	17	29	8	181	204.0	-210020.0	4911.0	-118889.0
3	17	29	8	181	205.0	-209984.0	4872.0	-119114.0
3	17	29	8	182	206.0	-210214.0	4809.0	-116812.0
3	17	29	8	183	207.0	-210013.0	4747.0	-114047.0
3	17	29	8	183	208.0	-209726.0	4688.0	-111744.0
3	17	29	8	184	209.0	-209054.0	4626.0	-108601.0
3	17	29	8	185	210.0	-208075.0	4549.0	-107264.0
3	17	29	8	185	211.0	-207669.0	4491.0	-105044.0
3	17	29	8	186	212.0	-207011.0	4418.0	-104330.0
3	17	29	8	187	213.0	-206380.0	4351.0	-103251.0
3	17	29	8	187	214.0	-206433.0	4267.0	-106587.0
3	17	29	8	188	215.0	-205957.0	4204.0	-109496.0
3	17	29	8	189	216.0	-206201.0	4151.0	-109161.0
3	17	29	8	189	217.0	-206210.0	4089.0	-105897.0
3	17	29	8	190	219.0	-206817.0	3941.0	-102322.0
3	17	29	8	191	220.0	-207048.0	3869.0	-100930.0
3	17	29	8	191	221.0	-207467.0	3801.0	-101011.0
3	17	29	8	192	222.0	-208337.0	3728.0	-101311.0
3	17	29	8	192	223.0	-208998.0	3661.0	-98847.0
3	17	29	8	193	224.0	-208938.0	3569.0	-97767.0
3	17	29	8	194	225.0	-209189.0	3491.0	-98271.0
3	17	29	8	225	226.0	-209607.0	3436.0	-98575.0
3	17	29	8	226	227.0	-210160.0	3370.0	-97464.0
3	17	29	8	227	228.0	-211187.0	3291.0	-95242.0
3	17	29	8	227	229.0	-211740.0	3221.0	-92149.0
3	17	29	8	228	230.0	-212726.0	3150.0	-94492.0
3	17	29	8	229	231.0	-214436.0	3059.0	-98179.0
3	17	29	8	229	232.0	-216029.0	2981.0	-100707.0
3	17	29	8	230	233.0	-217527.0	2899.0	-102401.0
3	17	29	8	231	234.0	-218831.0	2818.0	-108426.0
3	17	29	8	232	235.0	-219842.0	2748.0	-110284.0
3	17	29	8	233	236.0	-220746.0	2674.0	-111453.0
3	17	29	8	234	237.0	-221322.0	2608.0	-111724.0
3	17	29	8	235	238.0	-221316.0	2506.0	-112925.0
3	17	29	8	235	239.0	-221283.0	2431.0	-113581.0
3	17	29	8	236	240.0	-221401.0	2341.0	-112727.0
3	17	29	8	236	242.0	-222115.0	2198.0	-111347.0
3	17	29	8	237	243.0	-223329.0	2124.0	-112497.0
3	17	29	8	238	244.0	-224691.0	2057.0	-115556.0
3	17	29	8	238	245.0	-226121.0	1982.0	-119266.0
3	17	29	8	239	246.0	-227564.0	1904.0	-118987.0
3	17	29	8	239	247.0	-229090.0	1841.0	-118282.0
3	17	29	8	270	248.0	-230331.0	1764.0	-117524.0
3	17	29	8	270	249.0	-231284.0	1673.0	-118329.0
3	17	29	8	271	250.0	-232601.0	1603.0	-117402.0
3	17	29	8	272	251.0	-233390.0	1505.0	-115204.0
3	17	29	8	273	252.0	-233672.0	1429.0	-112709.0
3	17	29	8	273	253.0	-233796.0	1354.0	-111047.0
3	17	29	8	274	254.0	-234311.0	1273.0	-106356.0
3	17	29	8	274	255.0	-234832.0	1181.0	-102520.0
3	17	29	8	275	0.0	-234768.0	1107.0	-100521.0
3	17	29	8	276	1.0	-235021.0	1046.0	-99812.0
3	17	29	8	315	2.0	-235696.0	975.0	-98576.0
3	17	29	8	316	3.0	-236201.0	894.0	-93717.0
3	17	29	8	317	4.0	-237410.0	830.0	-92361.0
3	17	29	8	360	5.0	-238831.0	753.0	-93067.0
3	17	29	8	361	6.0	-240036.0	669.0	-92411.0
3	17	29	8	362	8.0	-241734.0	511.0	-90214.0
3	17	29	8	362	9.0	-241497.0	438.0	-87676.0
3	17	29	8	363	10.0	-239780.0	368.0	-89811.0
3	17	29	8	364	11.0	-237312.0	291.0	-90919.0
3	17	29	8	364	12.0	-234286.0	218.0	-92939.0
3	17	29	8	365	13.0	-229711.0	157.0	-95052.0
3	17	29	8	366	14.0	-224401.0	83.0	-94884.0
3	17	29	8	366	15.0	-219773.0	22.0	-96036.0
3	17	29	8	367	16.0	-215791.0	-67.0	-94774.0
3	17	29	8	368	17.0	-212611.0	-142.0	-93161.0
3	17	29	8	369	18.0	-210711.0	-207.0	-92822.0
3	17	29	8	369	31.0	-161120.0	-1137.0	-39647.0
3	17	29	8	370	32.0	-147755.0	-1200.0	-47136.0
3	17	29	8	371	33.0	-135959.0	-1263.0	-53201.0
3	17	29	8	371	53.0	-152287.0	-2591.0	-18047.0
3	17	29	8	372	54.0	-169163.0	-2657.0	-10832.0
3	17	29	8	373	55.0	-184302.0	-2722.0	1790.0
3	17	29	8	373	56.0	-198759.0	-2774.0	-466.0
3	17	29	8	374	57.0	-214499.0	-2830.0	-5957.0
3	17	29	8	374	58.0	-232062.0	-2901.0	-9682.0
3	17	29	8	375	59.0	-247222.0	-2955.0	-17368.0
3	17	29	8	404	60.0	-253900.0	-2997.0	-18374.0
3	17	29	8	405	61.0	-250275.0	-3058.0	-16624.0
3	17	29	8	406	62.0	-237796.0	-3101.0	-18482.0
3	17	29	8	406	63.0	-219732.0	-3180.0	-21039.0
3	17	29	8	407	64.0	-205428.0	-3241.0	-21151.0
3	17	29	8	408	65.0	-201031.0	-3307.0	-18882.0
3	17	29	8	409	66.0	-208946.0	-3364.0	-11199.0
3	17	29	8	409	67.0	-224381.0	-3432.0	-9642.0
3	17	29	8	410	68.0	-239256.0	-3479.0	-11879.0
3	17	29	8	411	69.0	-248299.0	-3534.0	-24831.0
3	17	29	8	411	70.0	-250912.0	-3600.0	-36778.0
3	17	29	8	412	71.0	-245660.0	-3661.0	-41797.0
3	17	29	8	422	72.0	-232286.0	-3716.0	-42180.0
3	17	29	8	422	73.0	-214099.0	-3780.0	-39754.0
3	17	29	8	423	74.0	-194597.0	-3836.0	-41232.0
3	17	29	8	424	76.0	-159857.0	-3957.0	-64713.0
3	17	29	8	424	77.0	-149279.0	-4028.0	-72999.0
3	17	29	8	425	78.0	-143117.0	-4079.0	-76184.0
3	17	29	8	425	79.0	-138974.0	-4131.0	-81329.0
3	17	29	8	426	80.0	-135907.0	-4186.0	-87624.0
3	17	29	8	426	81.0	-135719.0	-4226.0	-83597.0
3	17	29	8	450	82.0	-138233.0	-4284.0	-81666.0
3	17	29	8	451	83.0	-143549.0	-4341.0	-79915.0
3	17	29	8	451	84.0	-151629.0	-4404.0	-76501.0
3	17	29	8	452	85.0	-160994.0	-4475.0	-75346.0
3	17	29	8	453	86.0	-171346.0	-4541.0	-74656.0
3	17	29	8	454	87.0	-181841.0	-4592.0	-69835.0
3	17	29	8	454	88.0	-192923.0	-4659.0	-69621.0
3	17	29	8	455	89.0	-203069.0	-4711.0	-69022.0
3	17	29	8	456	90.0	-210899.0	-4759.0	-69054.0
3	17	29	8	456	91.0	-217209.0	-4824.0	-68512.0
3	17	29	8	457	92.0	-220000.0	-4879.0	-67162.0
3	17	29	8	458	93.0	-220719.0	-4946.0	-66196.0
3	17	29	8	458	94.0	-218842.0	-5009.0	-63418.0
3	17	29	8	459	95.0	-214302.0	-5070.0	-66594.0
3	17	29	8	459	96.0	-208232.0	-5130.0	-68346.0
3	17	29	8	460	98.0	-193685.0	-5234.0	-74687.0
3	17	29	8	461	99.0	-187170.0	-5286.0	-92682.0
3	17	29	8	462	100.0	-181353.0	-5360.0	-92726.0
3	17	29	8	462	101.0	-175900.0	-5411.0	-81771.0
3	17	29	8	463	102.0	-171747.0	-5478.0	-73328.0
3	17	29	8	464	103.0	-168248.0	-5531.0	-70456.0
3	17	29	8	494	104.0	-166406.0	-5576.0	-68646.0
3	17	29	8	495	105.0	-165886.0	-5639.0	-69441.0
3	17	29	8	496	106.0	-166155.0	-5704.0	-68338.0
3	17	29	8	496	107.0	-167241.0	-5764.0	-66441.0
3	17	29	8	497	108.0	-168961.0	-5821.0	-65221.0
3	17	29	8	498	109.0	-171412.0	-5886.0	-68498.0
3	17	29	8	498	110.0	-174178.0	-5959.0	-73624.0
3	17	29	8	499	111.0	-177829.0	-6020.0	-74212.0
3	17	29	8	500	112.0	-181009.0	-6067.0	-72526.0
3	17	29	8	501	113.0	-183974.0	-6136.0	-69631.0
3	17	29	8	501	114.0	-187586.0	-6217.0	-65271.0
3	17	29	8	502	115.0	-190091.0	-6297.0	-61422.0
3	17	29	8	503	116.0	-191831.0	-6336.0	-61530.0
3	17	29	8	503	117.0	-192662.0	-6394.0	-65782.0
3	17	29	8	504	118.0	-191893.0	-6472.0	-70375.0
3	17	29	8	505	121.0	-187674.0	-6636.0	-77422.0
3	17	29	8	505	122.0	-186047.0	-6707.0	-77216.0
3	17	29	8	506	123.0	-183834.0	-6775.0	-77393.0
3	17	29	8	507	124.0	-181097.0	-6822.0	-76419.0
3	17	29	8	507	125.0	-177819.0	-6871.0	-73592.0
3	17	29	8	508	126.0	-175174.0	-6936.0	-75071.0
3	17	29	8	539	127.0	-172728.0	-6982.0	-74855.0
3	17	29	8	540	128.0	-171251.0	-7009.0	-71269.0
3	17	29	8	541	129.0	-170546.0	-7049.0	-69880.0
3	17	29	8	541	130.0	-169492.0	-7110.0	-70366.0
3	17	29	8	542	131.0	-168563.0	-7146.0	-72864.0
3	17	29	8	542	132.0	-167691.0	-7187.0	-76109.0
3	17	29	8	543	133.0	-167689.0	-7245.0	-77633.0
3	17	29	8	543	134.0	-167952.0	-7272.0	-79274.0
3	17	29	8	544	135.0	-167206.0	-7286.0	-81241.0
3	17	29	8	545	136.0	-167127.0	-7321.0	-89461.0
3	17	29	8	545	137.0	-166641.0	-7350.0	-102713.0
3	17	29	8	546	138.0	-165204.0	-7369.0	-105484.0
3	17	29	8	546	139.0	-163522.0	-7360.0	-97789.0
3	17	29	8	547	140.0	-162338.0	-7362.0	-93029.0
3	17	29	8	548	141.0	-160680.0	-7347.0	-91281.0
3	17	29	8	548	143.0	-157653.0	-7312.0	-93421.0
3	17	29	8	549	144.0	-156057.0	-7286.0	-97480.0
3	17	29	8	549	145.0	-155274.0	-7257.0	-103114.0
3	17	29	8	550	146.0	-155084.0	-7208.0	-118772.0
3	17	29	8	550	147.0	-155423.0	-7139.0	-125959.0
3	17	29	8	551	148.0	-157198.0	-7090.0	-115307.0
3	17	29	8	584	149.0	-158081.0	-7015.0	-110839.0
3	17	29	8	585	150.0	-159462.0	-6912.0	-109380.0
3	17	29	8	586	151.0	-161194.0	-6832.0	-108502.0
3	17	29	8	586	152.0	-162787.0	-6741.0	-108458.0
3	17	29	8	587	153.0	-165267.0	-6636.0	-114419.0
3	17	29	8	587	154.0	-167958.0	-6532.0	-121331.0
3	17	29	8	588	155.0	-171198.0	-6416.0	-125419.0
3	17	29	8	589	156.0	-174921.0	-6289.0	-127507.0
3	17	29	8	589	157.0	-178546.0	-6146.0	-129520.0
3	17	29	8	590	158.0	-182319.0	-6011.0	-130444.0
3	17	29	8	590	159.0	-185304.0	-5847.0	-132259.0
3	17	29	8	591	160.0	-188421.0	-5676.0	-138828.0
3	17	29	8	592	161.0	-190592.0	-5499.0	-145412.0
3	17	29	8	592	162.0	-191657.0	-5336.0	-151202.0
3	17	29	8	593	163.0	-191772.0	-5132.0	-165421.0
3	17	29	8	593	165.0	-190337.0	-4745.0	-173531.0
3	17	29	8	594	166.0	-188849.0	-4557.0	-164170.0
3	17	29	8	594	167.0	-186304.0	-4341.0	-159742.0
3	17	29	8	595	168.0	-183316.0	-4127.0	-158924.0
3	17	29	8	595	169.0	-179791.0	-3911.0	-158028.0
3	17	29	8	596	170.0	-175690.0	-3659.0	-160036.0
3	17	29	8	597	171.0	-171967.0	-3438.0	-164027.0
3	17	29	8	674	172.0	-168791.0	-3204.0	-167294.0
3	17	29	8	721	173.0	-164762.0	-2962.0	-168896.0
3	17	29	8	721	174.0	-162009.0	-2729.0	-170281.0
3	17	29	8	722	175.0	-160632.0	-2492.0	-172489.0
3	17	29	8	723	176.0	-158636.0	-2256.0	-174207.0
3	17	29	8	723	177.0	-159171.0	-2001.0	-179042.0
3	17	29	8	724	178.0	-159641.0	-1757.0	-180864.0
3	17	29	8	725	179.0	-160955.0	-1514.0	-181693.0
3	17	29	8	725	180.0	-163967.0	-1266.0	-183744.0
3	17	29	8	726	181.0	-166435.0	-1025.0	-193099.0
3	17	29	8	726	182.0	-169586.0	-791.0	-197934.0
3	17	29	8	727	183.0	-172539.0	-556.0	-190479.0
3	17	29	8	727	184.0	-175266.0	-339.0	-185277.0
3	17	29	8	728	185.0	-176446.0	-86.0	-187960.0
3	17	29	8	729	186.0	-176729.0	169.0	-191401.0
3	17	29	8	731	188.0	-173232.0	633.0	-202077.0
3	17	29	8	732	211.0	-193384.0	4982.0	-219068.0
3	17	29	8	733	233.0	-126438.0	7173.0	-254339.0
3	17	29	8	733	234.0	-133706.0	7221.0	-254496.0
3	17	29	8	734	235.0	-142030.0	7273.0	-255714.0
3	17	29	8	734	236.0	-150517.0	7338.0	-256431.0
3	17	29	8	735	237.0	-159462.0	7393.0	-256919.0
3	17	29	8	735	238.0	-169041.0	7438.0	-260259.0
3	17	29	8	736	239.0	-178597.0	7489.0	-264806.0
3	17	29	8	764	240.0	-187883.0	7548.0	-265149.0
3	17	29	8	765	241.0	-196541.0	7590.0	-261447.0
3	17	29	8	766	242.0	-204198.0	7614.0	-261827.0
3	17	29	8	766	243.0	-210248.0	7655.0	-262644.0
3	17	29	8	767	244.0	-215018.0	7667.0	-263754.0
3	17	29	8	767	245.0	-218943.0	7701.0	-265991.0
3	17	29	8	768	246.0	-220641.0	7718.0	-267276.0
3	17	29	8	769	247.0	-221457.0	7735.0	-268523.0
3	17	29	8	769	248.0	-220679.0	7754.0	-269175.0
3	17	29	8	770	249.0	-218726.0	7778.0	-268287.0
3	17	29	8	770	250.0	-217392.0	7801.0	-267636.0
3	17	29	8	771	251.0	-215582.0	7796.0	-269496.0
3	17	29	8	771	252.0	-213307.0	7808.0	-273353.0
3	17	29	8	772	253.0	-211249.0	7829.0	-293265.0
3	17	29	8	773	254.0	-208948.0	7843.0	-303411.0
3	17	29	8	774	255.0	-206229.0	7826.0	-285274.0
3	17	29	8	774	0.0	-203095.0	7824.0	-269909.0
3	17	29	8	775	1.0	-199871.0	7818.0	-261757.0
3	17	29	8	776	2.0	-196161.0	7822.0	-258974.0
3	17	29	8	777	3.0	-192047.0	7824.0	-258483.0
3	17	29	8	777	4.0	-187684.0	7844.0	-257179.0
3	17	29	8	778	5.0	-183421.0	7835.0	-257442.0
3	17	29	8	810	6.0	-179249.0	7806.0	-257381.0
3	17	29	8	811	7.0	-174656.0	7821.0	-256906.0
3	17	29	8	811	8.0	-170687.0	7826.0	-257987.0
3	17	29	8	812	9.0	-168159.0	7803.0	-259843.0
3	17	29	8	812	10.0	-166742.0	7777.0	-260587.0
3	17	29	8	813	11.0	-166771.0	7771.0	-259853.0
3	17	29	8	814	12.0	-167538.0	7776.0	-259314.0
3	17	29	8	814	13.0	-169113.0	7771.0	-256866.0
3	17	29	8	815	14.0	-171557.0	7756.0	-254465.0
3	17	29	8	815	15.0	-173902.0	7736.0	-251834.0
3	17	29	8	816	16.0	-176888.0	7719.0	-250362.0
3	17	29	8	817	17.0	-180333.0	7684.0	-249802.0
3	17	29	8	817	18.0	-183720.0	7673.0	-250056.0
3	17	29	8	818	19.0	-187621.0	7679.0	-255996.0
3	17	29	8	819	20.0	-191757.0	7654.0	-279789.0
3	17	29	8	819	22.0	-199769.0	7608.0	-343141.0
3	17	29	8	820	23.0	-203160.0	7595.0	-367027.0
3	17	29	8	821	24.0	-206097.0	7584.0	-380982.0
3	17	29	8	821	25.0	-208627.0	7569.0	-391497.0
3	17	29	8	822	26.0	-210911.0	7549.0	-400841.0
3	17	29	8	822	27.0	-212136.0	7544.0	-408626.0
3	17	29	8	855	28.0	-213342.0	7528.0	-416322.0
3	17	29	8	856	29.0	-214484.0	7518.0	-423479.0
3	17	29	8	857	30.0	-214485.0	7507.0	-453842.0
3	17	29	8	857	31.0	-215062.0	7480.0	-489617.0
3	17	29	8	858	32.0	-215972.0	7448.0	-478936.0
3	17	29	8	858	33.0	-216559.0	7431.0	-462789.0
3	17	29	8	859	34.0	-217199.0	7426.0	-457761.0
3	17	29	8	860	35.0	-217965.0	7394.0	-457136.0
3	17	29	8	860	36.0	-219326.0	7386.0	-457958.0
3	17	29	8	861	37.0	-221306.0	7388.0	-461906.0
3	17	29	8	861	38.0	-224131.0	7359.0	-465808.0
3	17	29	8	862	39.0	-227267.0	7349.0	-470276.0
3	17	29	8	863	40.0	-230272.0	7321.0	-474297.0
3	17	29	8	863	41.0	-233624.0	7306.0	-478143.0
3	17	29	8	864	42.0	-236207.0	7293.0	-480816.0
3	17	29	8	864	44.0	-238960.0	7273.0	-489427.0
3	17	29	8	865	45.0	-238827.0	7256.0	-493532.0
3	17	29	8	866	46.0	-238164.0	7244.0	-496264.0
3	17	29	8	866	47.0	-237111.0	7226.0	-500890.0
3	17	29	8	867	48.0	-235984.0	7228.0	-508687.0
3	17	29	8	867	49.0	-234392.0	7214.0	-532097.0
3	17	29	8	868	50.0	-232574.0	7197.0	-547197.0
3	17	29	8	900	51.0	-230288.0	7189.0	-531922.0
3	17	29	8	901	52.0	-227163.0	7183.0	-520777.0
3	17	29	8	901	53.0	-223887.0	7173.0	-518316.0
3	17	29	8	902	54.0	-220072.0	7148.0	-517763.0
3	17	29	8	902	55.0	-215460.0	7152.0	-517533.0
3	17	29	8	903	56.0	-210634.0	7142.0	-519061.0
3	17	29	8	904	57.0	-206406.0	7127.0	-522151.0
3	17	29	8	904	58.0	-201891.0	7084.0	-524322.0
3	17	29	8	905	59.0	-197687.0	7071.0	-526711.0
3	17	29	8	905	60.0	-193772.0	7078.0	-532171.0
3	17	29	8	906	61.0	-189676.0	7058.0	-534514.0
3	17	29	8	907	62.0	-185686.0	7029.0	-536437.0
3	17	29	8	907	63.0	-181967.0	7008.0	-539063.0
3	17	29	8	908	64.0	-178957.0	7003.0	-541041.0
3	17	29	8	908	65.0	-176506.0	6984.0	-542407.0
3	17	29	8	909	67.0	-174065.0	6946.0	-549116.0
3	17	29	8	910	68.0	-174506.0	6921.0	-554259.0
3	17	29	8	910	69.0	-175368.0	6908.0	-555692.0
3	17	29	8	911	70.0	-177067.0	6905.0	-558974.0
3	17	29	8	911	71.0	-180511.0	6884.0	-561679.0
3	17	29	8	912	72.0	-184567.0	6866.0	-562884.0
3	17	29	8	945	73.0	-190257.0	6844.0	-562247.0
3	17	29	8	945	74.0	-197169.0	6831.0	-562625.0
3	17	29	8	946	75.0	-204447.0	6798.0	-562106.0
3	17	29	8	946	76.0	-212429.0	6777.0	-559688.0
3	17	29	8	947	77.0	-220204.0	6746.0	-557984.0
3	17	29	8	948	78.0	-228085.0	6718.0	-558392.0
3	17	29	8	948	79.0	-234741.0	6687.0	-560732.0
3	17	29	8	949	80.0	-240605.0	6660.0	-562690.0
3	17	29	8	949	81.0	-246673.0	6643.0	-565477.0
3	17	29	8	950	82.0	-250867.0	6618.0	-567876.0
3	17	29	8	951	83.0	-256145.0	6575.0	-571156.0
3	17	29	8	951	84.0	-260475.0	6535.0	-578662.0
3	17	29	8	952	85.0	-263909.0	6511.0	-579135.0
3	17	29	8	953	86.0	-267951.0	6471.0	-580291.0
3	17	29	8	953	87.0	-270297.0	6438.0	-585312.0
3	17	29	8	954	89.0	-274464.0	6341.0	-590259.0
3	17	29	8	954	90.0	-275311.0	6309.0	-592539.0
3	17	29	8	955	91.0	-276081.0	6274.0	-596872.0
3	17	29	8	955	92.0	-274722.0	6222.0	-599069.0
3	17	29	8	956	93.0	-273336.0	6179.0	-599964.0
3	17	29	8	957	94.0	-270127.0	6136.0	-601668.0
3	17	29	8	989	95.0	-265631.0	6100.0	-603891.0
3	17	29	8	990	96.0	-260730.0	6051.0	-605024.0
3	17	29	8	990	97.0	-253353.0	5996.0	-605640.0
3	17	29	8	991	98.0	-246181.0	5955.0	-606291.0
3	17	29	8	991	99.0	-238679.0	5904.0	-605877.0
3	17	29	8	992	100.0	-230641.0	5855.0	-604814.0
3	17	29	8	993	101.0	-222551.0	5792.0	-606112.0
3	17	29	8	993	102.0	-214228.0	5739.0	-638411.0
3	17	29	8	994	103.0	-206600.0	5691.0	-697264.0
3	17	29	8	994	104.0	-198867.0	5627.0	-728802.0
3	17	29	8	995	105.0	-191952.0	5573.0	-740304.0
3	17	29	8	996	106.0	-185995.0	5508.0	-743215.0
3	17	29	8	996	107.0	-180349.0	5461.0	-740807.0
3	17	29	8	997	108.0	-175564.0	5405.0	-735858.0
3	17	29	8	998	109.0	-171074.0	5344.0	-730009.0
3	17	29	8	998	110.0	-167624.0	5283.0	-722614.0
3	17	29	8	999	112.0	-162267.0	5143.0	-709505.0
3	17	29	8	999	113.0	-160872.0	5099.0	-700907.0
3	17	29	9	0	114.0	-159524.0	5039.0	-692490.0
3	17	29	9	1	115.0	-158976.0	4967.0	-683481.0
3	17	29	9	1	116.0	-158957.0	4910.0	-673322.0
3	17	29	9	2	117.0	-159724.0	4839.0	-662502.0
3	17	29	9	34	118.0	-161403.0	4775.0	-651437.0
3	17	29	9	35	119.0	-164287.0	4711.0	-639011.0
3	17	29	9	36	120.0	-167792.0	4651.0	-618526.0
3	17	29	9	36	121.0	-172109.0	4568.0	-584492.0
3	17	29	9	37	122.0	-177453.0	4506.0	-558356.0
3	17	29	9	38	123.0	-182925.0	4427.0	-549118.0
3	17	29	9	39	124.0	-189092.0	4354.0	-547224.0
3	17	29	9	39	125.0	-195002.0	4291.0	-548577.0
3	17	29	9	40	126.0	-200438.0	4213.0	-552907.0
3	17	29	9	41	127.0	-206602.0	4148.0	-556849.0
3	17	29	9	41	128.0	-211654.0	4069.0	-560259.0
3	17	29	9	42	129.0	-215724.0	3989.0	-564117.0
3	17	29	9	42	130.0	-219546.0	3921.0	-566540.0
3	17	29	9	43	131.0	-221574.0	3826.0	-566201.0
3	17	29	9	44	132.0	-223219.0	3740.0	-565819.0
3	17	29	9	44	134.0	-222419.0	3612.0	-574057.0
3	17	29	9	45	135.0	-220900.0	3531.0	-579906.0
3	17	29	9	46	136.0	-217822.0	3449.0	-581643.0
3	17	29	9	47	137.0	-214686.0	3392.0	-583082.0
3	17	29	9	48	138.0	-210794.0	3301.0	-583297.0
3	17	29	9	48	139.0	-206905.0	3229.0	-584056.0
3	17	29	9	80	140.0	-203951.0	3154.0	-585775.0
3	17	29	9	81	141.0	-200826.0	3074.0	-587707.0
3	17	29	9	81	142.0	-198590.0	2987.0	-589127.0
3	17	29	9	82	143.0	-196847.0	2920.0	-587259.0
3	17	29	9	83	144.0	-194829.0	2833.0	-585329.0
3	17	29	9	83	145.0	-193443.0	2745.0	-585105.0
3	17	29	9	84	146.0	-192131.0	2673.0	-585160.0
3	17	29	9	85	147.0	-190650.0	2596.0	-586138.0
3	17	29	9	85	148.0	-189122.0	2520.0	-587524.0
3	17	29	9	86	149.0	-186697.0	2435.0	-588564.0
3	17	29	9	87	150.0	-184924.0	2340.0	-595657.0
3	17	29	9	87	151.0	-182852.0	2274.0	-629712.0
3	17	29	9	88	152.0	-180780.0	2179.0	-652066.0
3	17	29	9	89	153.0	-179484.0	2094.0	-638928.0
3	17	29	9	89	154.0	-178178.0	2010.0	-610152.0
3	17	29	9	90	157.0	-176549.0	1785.0	-575254.0
3	17	29	9	90	158.0	-177625.0	1691.0	-573379.0
3	17	29	9	91	159.0	-178569.0	1608.0	-574154.0
3	17	29	9	92	160.0	-180151.0	1547.0	-576208.0
3	17	29	9	92	161.0	-181574.0	1464.0	-577732.0
3	17	29	9	93	162.0	-182463.0	1378.0	-578319.0
3	17	29	9	124	163.0	-183611.0	1323.0	-578800.0
3	17	29	9	125	164.0	-185318.0	1263.0	-581821.0
3	17	29	9	126	165.0	-187566.0	1162.0	-584479.0
3	17	29	9	134	166.0	-190041.0	1075.0	-585336.0
3	17	29	9	134	167.0	-192389.0	983.0	-586727.0
3	17	29	9	135	168.0	-195191.0	912.0	-588979.0
3	17	29	9	136	169.0	-198066.0	833.0	-590992.0
3	17	29	9	136	170.0	-200210.0	751.0	-591627.0
3	17	29	9	137	171.0	-202077.0	689.0	-593532.0
3	17	29	9	137	172.0	-203571.0	602.0	-595716.0
3	17	29	9	138	173.0	-204584.0	524.0	-595614.0
3	17	29	9	138	174.0	-205413.0	446.0	-597139.0
3	17	29	9	139	175.0	-204801.0	355.0	-600781.0
3	17	29	9	140	176.0	-203769.0	281.0	-603209.0
3	17	29	9	140	177.0	-202079.0	204.0	-606596.0
3	17	29	9	141	179.0	-196413.0	48.0	-612487.0
3	17	29	9	141	180.0	-192652.0	-37.0	-630567.0
3	17	29	9	142	181.0	-188856.0	-127.0	-666652.0
3	17	29	9	142	182.0	-184909.0	-191.0	-678617.0
3	17	29	9	143	183.0	-180910.0	-250.0	-664114.0
3	17	29	9	144	184.0	-176816.0	-326.0	-631709.0
3	17	29	9	170	185.0	-172347.0	-393.0	-603639.0
3	17	29	9	171	186.0	-168743.0	-436.0	-587920.0
3	17	29	9	172	187.0	-165719.0	-522.0	-579937.0
3	17	29	9	173	188.0	-164582.0	-610.0	-572825.0
3	17	29	9	173	189.0	-164276.0	-688.0	-567509.0
3	17	29	9	174	190.0	-164823.0	-775.0	-563891.0
3	17	29	9	175	191.0	-166947.0	-849.0	-563055.0
3	17	29	9	175	192.0	-169532.0	-920.0	-562164.0
3	17	29	9	176	193.0	-173447.0	-999.0	-555435.0
3	17	29	9	177	194.0	-177535.0	-1076.0	-541832.0
3	17	29	9	177	195.0	-180969.0	-1156.0	-528816.0
3	17	29	9	178	196.0	-183336.0	-1221.0	-519128.0
3	17	29	9	179	197.0	-184032.0	-1303.0	-511127.0
3	17	29	9	179	198.0	-182127.0	-1391.0	-505633.0
3	17	29	9	180	199.0	-177931.0	-1480.0	-503391.0
3	17	29	9	181	201.0	-163874.0	-1633.0	-516452.0
3	17	29	9	181	202.0	-155569.0	-1703.0	-525874.0
3	17	29	9	182	203.0	-148489.0	-1758.0	-545029.0
3	17	29	9	182	204.0	-144284.0	-1829.0	-586736.0
3	17	29	9	183	205.0	-144224.0	-1913.0	-609742.0
3	17	29	9	183	206.0	-148830.0	-1992.0	-599385.0
3	17	29	9	184	207.0	-158086.0	-2074.0	-579416.0
3	17	29	9	214	208.0	-171746.0	-2117.0	-568637.0
3	17	29	9	215	209.0	-188492.0	-2186.0	-567345.0
3	17	29	9	215	210.0	-207856.0	-2269.0	-568316.0
3	17	29	9	216	211.0	-226993.0	-2340.0	-568974.0
3	17	29	9	217	212.0	-246531.0	-2420.0	-571623.0
3	17	29	9	218	213.0	-264400.0	-2474.0	-574026.0
3	17	29	9	218	214.0	-278756.0	-2541.0	-574841.0
3	17	29	9	219	215.0	-285967.0	-2626.0	-576932.0
3	17	29	9	219	216.0	-276877.0	-2695.0	-579404.0
3	17	29	9	220	217.0	-250592.0	-2777.0	-581754.0
3	17	29	9	221	218.0	-214189.0	-2858.0	-581244.0
3	17	29	9	222	219.0	-178336.0	-2929.0	-581052.0
3	17	29	9	222	220.0	-153406.0	-3007.0	-581256.0
3	17	29	9	223	221.0	-148997.0	-3061.0	-581630.0
3	17	29	9	223	222.0	-162837.0	-3133.0	-580148.0
3	17	29	9	224	224.0	-204197.0	-3261.0	-577199.0
3	17	29	9	260	225.0	-221679.0	-3347.0	-573574.0
3	17	29	9	261	226.0	-239139.0	-3411.0	-567044.0
3	17	29	9	262	227.0	-256627.0	-3482.0	-560172.0
3	17	29	9	262	228.0	-274368.0	-3561.0	-557732.0
3	17	29	9	263	229.0	-289394.0	-3628.0	-558265.0
3	17	29	9	264	230.0	-296439.0	-3672.0	-583594.0
3	17	29	9	264	231.0	-289944.0	-3741.0	-615512.0
3	17	29	9	265	232.0	-273442.0	-3825.0	-614067.0
3	17	29	9	265	233.0	-251164.0	-3893.0	-586637.0
3	17	29	9	266	234.0	-226357.0	-3959.0	-556918.0
3	17	29	9	267	235.0	-210190.0	-4032.0	-540342.0
3	17	29	9	267	236.0	-202828.0	-4089.0	-532672.0
3	17	29	9	268	237.0	-201576.0	-4176.0	-530199.0
3	17	29	9	269	238.0	-205941.0	-4243.0	-529323.0
3	17	29	9	269	239.0	-216354.0	-4313.0	-530161.0
3	17	29	9	270	246.0	-190747.0	-4790.0	-534692.0
3	17	29	9	270	247.0	-176862.0	-4856.0	-535450.0
3	17	29	9	271	248.0	-164262.0	-4927.0	-536186.0
3	17	29	9	272	249.0	-151924.0	-5002.0	-537956.0
3	17	29	9	272	250.0	-141987.0	-5069.0	-543325.0
3	17	29	9	273	251.0	-133925.0	-5112.0	-545577.0
3	17	29	9	273	252.0	-130159.0	-5187.0	-544829.0
3	17	29	9	305	253.0	-130221.0	-5240.0	-543776.0
3	17	29	9	305	254.0	-133560.0	-5294.0	-542050.0
3	17	29	9	306	255.0	-139407.0	-5365.0	-541867.0
3	17	29	9	307	0.0	-146507.0	-5434.0	-543609.0
3	17	29	9	307	1.0	-155135.0	-5531.0	-546422.0
3	17	29	9	308	2.0	-164819.0	-5591.0	-547397.0
3	17	29	9	309	3.0	-173741.0	-5662.0	-548521.0
3	17	29	9	309	4.0	-182649.0	-5735.0	-550876.0
3	17	29	9	310	5.0	-188839.0	-5804.0	-551479.0
3	17	29	9	311	6.0	-191928.0	-5857.0	-549174.0
3	17	29	9	311	7.0	-192933.0	-5934.0	-544518.0
3	17	29	9	312	8.0	-191704.0	-6004.0	-540292.0
3	17	29	9	312	9.0	-188997.0	-6084.0	-540896.0
3	17	29	9	313	10.0	-185764.0	-6154.0	-553429.0
3	17	29	9	352	11.0	-183189.0	-6217.0	-593740.0
3	17	29	9	353	13.0	-179809.0	-6347.0	-599725.0
3	17	29	9	354	14.0	-179337.0	-6434.0	-568546.0
3	17	29	9	354	15.0	-179369.0	-6494.0	-542112.0
3	17	29	9	355	16.0	-179834.0	-6571.0	-527279.0
3	17	29	9	356	17.0	-179839.0	-6637.0	-519420.0
3	17	29	9	356	18.0	-179791.0	-6679.0	-511319.0
3	17	29	9	357	19.0	-180490.0	-6752.0	-505781.0
3	17	29	9	358	20.0	-180131.0	-6841.0	-507535.0
3	17	29	9	359	21.0	-180431.0	-6920.0	-517164.0
3	17	29	9	360	22.0	-181540.0	-6982.0	-529926.0
3	17	29	9	360	23.0	-182377.0	-7051.0	-539761.0
3	17	29	9	361	24.0	-184446.0	-7134.0	-572113.0
3	17	29	9	362	25.0	-186827.0	-7207.0	-585971.0
3	17	29	9	362	26.0	-189896.0	-7264.0	-590666.0
3	17	29	9	363	27.0	-193402.0	-7342.0	-589877.0
3	17	29	9	363	36.0	-206106.0	-7994.0	-570115.0
3	17	29	9	364	37.0	-204552.0	-8059.0	-564831.0
3	17	29	9	365	38.0	-202679.0	-8117.0	-562410.0
3	17	29	9	365	39.0	-200377.0	-8179.0	-552556.0
3	17	29	9	366	40.0	-198175.0	-8234.0	-544521.0
3	17	29	9	366	41.0	-196130.0	-8305.0	-538004.0
3	17	29	9	395	42.0	-193773.0	-8369.0	-533032.0
3	17	29	9	396	43.0	-191766.0	-8413.0	-529538.0
3	17	29	9	396	44.0	-190222.0	-8464.0	-527407.0
3	17	29	9	397	45.0	-189192.0	-8518.0	-525407.0
3	17	29	9	398	46.0	-187893.0	-8583.0	-521961.0
3	17	29	9	398	47.0	-186776.0	-8626.0	-518938.0
3	17	29	9	399	48.0	-185249.0	-8676.0	-515954.0
3	17	29	9	400	49.0	-183365.0	-8710.0	-512730.0
3	17	29	9	400	50.0	-181146.0	-8761.0	-508293.0
3	17	29	9	401	51.0	-179131.0	-8787.0	-507386.0
3	17	29	9	402	52.0	-176678.0	-8802.0	-510045.0
3	17	29	9	402	53.0	-173791.0	-8821.0	-507954.0
3	17	29	9	403	54.0	-171491.0	-8837.0	-502145.0
3	17	29	9	404	55.0	-168631.0	-8831.0	-495106.0
3	17	29	9	404	56.0	-165184.0	-8844.0	-488098.0
3	17	29	9	405	58.0	-160104.0	-8831.0	-477037.0
3	17	29	9	406	59.0	-157811.0	-8811.0	-481059.0
3	17	29	9	406	60.0	-156126.0	-8766.0	-482353.0
3	17	29	9	407	61.0	-155098.0	-8724.0	-483061.0
3	17	29	9	407	62.0	-153982.0	-8682.0	-482722.0
3	17	29	9	408	63.0	-153281.0	-8636.0	-482937.0
3	17	29	9	439	64.0	-152726.0	-8581.0	-485404.0
3	17	29	9	440	65.0	-152235.0	-8496.0	-485628.0
3	17	29	9	440	66.0	-153396.0	-8402.0	-482774.0
3	17	29	9	441	67.0	-153841.0	-8324.0	-475745.0
3	17	29	9	442	68.0	-154132.0	-8234.0	-462434.0
3	17	29	9	442	69.0	-155166.0	-8124.0	-468770.0
3	17	29	9	443	70.0	-157031.0	-8007.0	-469147.0
3	17	29	9	443	71.0	-159120.0	-7898.0	-452042.0
3	17	29	9	444	72.0	-161310.0	-7758.0	-421279.0
3	17	29	9	445	73.0	-164208.0	-7644.0	-382541.0
3	17	29	9	446	74.0	-167564.0	-7503.0	-354331.0
3	17	29	9	446	75.0	-170531.0	-7337.0	-337277.0
3	17	29	9	447	76.0	-173310.0	-7185.0	-323332.0
3	17	29	9	447	77.0	-177596.0	-7022.0	-308985.0
3	17	29	9	448	78.0	-180565.0	-6839.0	-299474.0
3	17	29	9	449	80.0	-185972.0	-6472.0	-291721.0
3	17	29	9	449	81.0	-188289.0	-6281.0	-287214.0
3	17	29	9	450	82.0	-190451.0	-6074.0	-269066.0
3	17	29	9	451	83.0	-192546.0	-5864.0	-252336.0
3	17	29	9	451	84.0	-194956.0	-5647.0	-249594.0
3	17	29	9	452	85.0	-197641.0	-5431.0	-251972.0
3	17	29	9	452	86.0	-200126.0	-5213.0	-259356.0
3	17	29	9	484	87.0	-203757.0	-4997.0	-270084.0
3	17	29	9	485	88.0	-208227.0	-4770.0	-281491.0
3	17	29	9	486	89.0	-212747.0	-4549.0	-290658.0
3	17	29	9	486	90.0	-217772.0	-4315.0	-303666.0
3	17	29	9	487	91.0	-222647.0	-4092.0	-314741.0
3	17	29	9	488	92.0	-228452.0	-3862.0	-322866.0
3	17	29	9	488	93.0	-233644.0	-3641.0	-329881.0
3	17	29	9	489	94.0	-238609.0	-3404.0	-336740.0
3	17	29	9	490	95.0	-243822.0	-3177.0	-345680.0
3	17	29	9	490	96.0	-248053.0	-2935.0	-355007.0
3	17	29	9	491	97.0	-252015.0	-2700.0	-365102.0
3	17	29	9	491	98.0	-255301.0	-2476.0	-375927.0
3	17	29	9	492	99.0	-257808.0	-2240.0	-386532.0
3	17	29	9	493	100.0	-258724.0	-2022.0	-395182.0
3	17	29	9	493	101.0	-258574.0	-1799.0	-400944.0
3	17	29	9	494	103.0	-251017.0	-1344.0	-463717.0
3	17	29	9	495	104.0	-238982.0	-1137.0	-474342.0
3	17	29	9	495	105.0	-213028.0	-924.0	-458821.0
3	17	29	9	496	106.0	-185248.0	-700.0	-428306.0
3	17	29	9	497	107.0	-172922.0	-487.0	-401181.0
3	17	29	9	497	108.0	-172676.0	-280.0	-384572.0
3	17	29	9	529	109.0	-180156.0	-78.0	-379214.0
3	17	29	9	530	110.0	-193822.0	137.0	-376951.0
3	17	29	9	530	111.0	-207632.0	331.0	-372086.0
3	17	29	9	531	112.0	-215976.0	524.0	-364102.0
3	17	29	9	532	113.0	-218595.0	701.0	-355127.0
3	17	29	9	532	114.0	-215740.0	886.0	-345165.0
3	17	29	9	533	115.0	-209284.0	1082.0	-333953.0
3	17	29	9	534	116.0	-201555.0	1259.0	-322220.0
3	17	29	9	535	117.0	-194596.0	1417.0	-308418.0
3	17	29	9	535	118.0	-189700.0	1582.0	-292441.0
3	17	29	9	536	119.0	-186342.0	1732.0	-286037.0
3	17	29	9	537	120.0	-183570.0	1894.0	-280866.0
3	17	29	9	537	121.0	-180636.0	2067.0	-277538.0
3	17	29	9	538	122.0	-178541.0	2201.0	-276289.0
3	17	29	9	539	125.0	-181077.0	2633.0	-279276.0
3	17	29	9	539	126.0	-182996.0	2780.0	-278214.0
3	17	29	9	575	127.0	-184010.0	2909.0	-278082.0
3	17	29	9	665	128.0	-184907.0	3023.0	-280303.0
3	17	29	9	666	129.0	-183437.0	3156.0	-281481.0
3	17	29	9	667	130.0	-179232.0	3284.0	-281709.0
3	17	29	9	668	131.0	-174350.0	3401.0	-285086.0
3	17	29	9	669	132.0	-168137.0	3493.0	-288564.0
3	17	29	9	671	133.0	-161512.0	3589.0	-291757.0
3	17	29	9	672	134.0	-154167.0	3689.0	-317371.0
3	17	29	9	673	135.0	-147349.0	3801.0	-357616.0
3	17	29	9	674	136.0	-142438.0	3889.0	-367621.0
3	17	29	9	674	137.0	-139434.0	3974.0	-353685.0
3	17	29	9	675	138.0	-137493.0	4039.0	-326906.0
3	17	29	9	676	139.0	-137062.0	4124.0	-303009.0
3	17	29	9	676	140.0	-137851.0	4208.0	-291684.0
3	17	29	9	677	141.0	-139078.0	4280.0	-292904.0
3	17	29	9	678	148.0	-156044.0	4724.0	-294467.0
3	17	29	9	678	170.0	-217960.0	5075.0	-147986.0
3	17	29	9	679	193.0	-232828.0	4535.0	-243469.0
3	17	29	9	679	194.0	-230281.0	4504.0	-246806.0
3	17	29	9	680	195.0	-227752.0	4502.0	-248157.0
3	17	29	9	681	196.0	-225175.0	4466.0	-249841.0
3	17	29	9	681	197.0	-222902.0	4445.0	-251218.0
3	17	29	9	682	198.0	-221670.0	4412.0	-252562.0
3	17	29	9	710	199.0	-220491.0	4403.0	-252872.0
3	17	29	9	711	200.0	-220348.0	4376.0	-253892.0
3	17	29	9	712	201.0	-221072.0	4345.0	-254991.0
3	17	29	9	713	202.0	-222855.0	4319.0	-257472.0
3	17	29	9	713	203.0	-225036.0	4286.0	-260325.0
3	17	29	9	714	204.0	-227362.0	4267.0	-263831.0
3	17	29	9	715	205.0	-230471.0	4249.0	-267690.0
3	17	29	9	715	206.0	-233483.0	4208.0	-272546.0
3	17	29	9	716	207.0	-236634.0	4199.0	-296029.0
3	17	29	9	717	208.0	-239512.0	4183.0	-332410.0
3	17	29	9	717	209.0	-242546.0	4135.0	-345542.0
3	17	29	9	718	210.0	-245382.0	4100.0	-345571.0
3	17	29	9	719	211.0	-247707.0	4064.0	-332161.0
3	17	29	9	719	212.0	-249647.0	4036.0	-311819.0
3	17	29	9	720	213.0	-251563.0	4028.0	-294657.0
3	17	29	9	721	214.0	-253156.0	4025.0	-282816.0
3	17	29	9	721	215.0	-254916.0	3995.0	-275632.0
3	17	29	9	722	216.0	-256171.0	3976.0	-271299.0
3	17	29	9	722	217.0	-257254.0	3958.0	-267914.0
3	17	29	9	723	218.0	-258054.0	3929.0	-267119.0
3	17	29	9	724	219.0	-258636.0	3911.0	-265584.0
3	17	29	9	724	220.0	-259357.0	3897.0	-264114.0
3	17	29	9	725	221.0	-259581.0	3882.0	-263677.0
3	17	29	9	755	222.0	-260050.0	3873.0	-265531.0
3	17	29	9	755	223.0	-259824.0	3868.0	-267657.0
3	17	29	9	756	224.0	-259509.0	3823.0	-269341.0
3	17	29	9	757	225.0	-258462.0	3800.0	-270495.0
3	17	29	9	758	226.0	-257494.0	3784.0	-271249.0
3	17	29	9	758	227.0	-256772.0	3768.0	-272139.0
3	17	29	9	759	228.0	-255257.0	3754.0	-280302.0
3	17	29	9	760	229.0	-254166.0	3709.0	-289939.0
3	17	29	9	760	230.0	-252643.0	3670.0	-297138.0
3	17	29	9	761	231.0	-251487.0	3664.0	-303501.0
3	17	29	9	762	232.0	-250317.0	3623.0	-308834.0
3	17	29	9	762	233.0	-248521.0	3629.0	-313592.0
3	17	29	9	763	234.0	-247286.0	3603.0	-318039.0
3	17	29	9	764	235.0	-245797.0	3586.0	-321167.0
3	17	29	9	764	236.0	-244790.0	3577.0	-323221.0
3	17	29	9	765	237.0	-243938.0	3544.0	-324249.0
3	17	29	9	766	238.0	-243257.0	3498.0	-326657.0
3	17	29	9	766	239.0	-243541.0	3487.0	-330052.0
3	17	29	9	767	240.0	-243763.0	3481.0	-334196.0
3	17	29	9	767	241.0	-244114.0	3443.0	-337211.0
3	17	29	9	768	242.0	-244557.0	3433.0	-340074.0
3	17	29	9	769	243.0	-244801.0	3429.0	-358507.0
3	17	29	9	801	244.0	-245232.0	3393.0	-395427.0
3	17	29	9	802	245.0	-244432.0	3358.0	-407721.0
3	17	29	9	802	246.0	-243844.0	3337.0	-408466.0
3	17	29	9	803	247.0	-243219.0	3296.0	-406053.0
3	17	29	9	804	248.0	-241850.0	3261.0	-405140.0
3	17	29	9	804	249.0	-241070.0	3216.0	-409016.0
3	17	29	9	805	250.0	-239893.0	3196.0	-414391.0
3	17	29	9	806	251.0	-238831.0	3154.0	-421654.0
3	17	29	9	806	252.0	-237783.0	3120.0	-426212.0
3	17	29	9	807	253.0	-236431.0	3075.0	-429808.0
3	17	29	9	808	254.0	-235801.0	3043.0	-434332.0
3	17	29	9	808	255.0	-235467.0	3004.0	-436991.0
3	17	29	9	809	0.0	-235176.0	2952.0	-436288.0
3	17	29	9	810	1.0	-234812.0	2908.0	-436034.0
3	17	29	9	810	2.0	-234287.0	2860.0	-436932.0
3	17	29	9	811	4.0	-232187.0	2769.0	-440880.0
3	17	29	9	812	5.0	-231097.0	2719.0	-441544.0
3	17	29	9	812	6.0	-229317.0	2671.0	-441212.0
3	17	29	9	813	7.0	-227699.0	2636.0	-440899.0
3	17	29	9	813	8.0	-226372.0	2601.0	-438644.0
3	17	29	9	814	9.0	-224982.0	2549.0	-436446.0
3	17	29	9	845	10.0	-224272.0	2498.0	-432529.0
3	17	29	9	845	11.0	-223955.0	2461.0	-429446.0
3	17	29	9	846	12.0	-223757.0	2418.0	-427464.0
3	17	29	9	847	13.0	-224061.0	2349.0	-426234.0
3	17	29	9	847	14.0	-224452.0	2287.0	-425641.0
3	17	29	9	848	15.0	-224324.0	2232.0	-424232.0
3	17	29	9	849	16.0	-224256.0	2167.0	-422025.0
3	17	29	9	849	17.0	-223502.0	2114.0	-421974.0
3	17	29	9	850	18.0	-222273.0	2079.0	-422375.0
3	17	29	9	851	19.0	-221162.0	2038.0	-422884.0
3	17	29	9	851	20.0	-219629.0	1963.0	-422207.0
3	17	29	9	852	21.0	-217770.0	1902.0	-417788.0
3	17	29	9	853	22.0	-215880.0	1816.0	-418326.0
3	17	29	9	854	23.0	-213806.0	1756.0	-417682.0
3	17	29	9	854	24.0	-211686.0	1691.0	-414082.0
3	17	29	9	855	26.0	-208071.0	1551.0	-409609.0
3	17	29	9	856	27.0	-207067.0	1494.0	-423716.0
3	17	29	9	857	28.0	-206856.0	1448.0	-469872.0
3	17	29	9	857	29.0	-207353.0	1379.0	-497597.0
3	17	29	9	858	30.0	-207098.0	1286.0	-499101.0
3	17	29	9	858	31.0	-206762.0	1240.0	-489559.0
3	17	29	9	859	32.0	-205991.0	1166.0	-473904.0
3	17	29	9	889	33.0	-204658.0	1118.0	-456811.0
3	17	29	9	890	34.0	-203549.0	1039.0	-433594.0
3	17	29	9	891	35.0	-202620.0	970.0	-401457.0
3	17	29	9	891	36.0	-201959.0	888.0	-370863.0
3	17	29	9	892	37.0	-202170.0	819.0	-349461.0
3	17	29	9	893	38.0	-203229.0	766.0	-336631.0
3	17	29	9	893	39.0	-204733.0	692.0	-319404.0
3	17	29	9	894	40.0	-206380.0	616.0	-298456.0
3	17	29	9	895	41.0	-208415.0	547.0	-290742.0
3	17	29	9	895	42.0	-210767.0	456.0	-288262.0
3	17	29	9	896	43.0	-213191.0	382.0	-288027.0
3	17	29	9	897	44.0	-215824.0	298.0	-288762.0
3	17	29	9	897	45.0	-218465.0	226.0	-289979.0
3	17	29	9	898	46.0	-221011.0	156.0	-293691.0
3	17	29	9	899	47.0	-223637.0	81.0	-300659.0
3	17	29	9	899	49.0	-228423.0	-85.0	-314204.0
3	17	29	9	900	50.0	-230904.0	-164.0	-322956.0
3	17	29	9	901	51.0	-233644.0	-242.0	-330442.0
3	17	29	9	902	52.0	-236687.0	-312.0	-333614.0
3	17	29	9	903	53.0	-239379.0	-392.0	-335346.0
3	17	29	9	903	54.0	-241960.0	-470.0	-335661.0
3	17	29	9	981	55.0	-244078.0	-539.0	-334162.0
3	17	29	9	982	56.0	-246146.0	-627.0	-332451.0
3	17	29	9	982	57.0	-248249.0	-703.0	-331694.0
3	17	29	9	983	58.0	-249606.0	-760.0	-328004.0
3	17	29	9	983	59.0	-250144.0	-851.0	-323779.0
3	17	29	9	984	60.0	-250332.0	-917.0	-323323.0
3	17	29	9	985	61.0	-250090.0	-985.0	-323627.0
3	17	29	9	985	62.0	-248918.0	-1075.0	-324892.0
3	17	29	9	986	63.0	-246937.0	-1164.0	-325039.0
3	17	29	9	986	64.0	-244497.0	-1248.0	-324830.0
3	17	29	9	987	65.0	-241113.0	-1336.0	-324982.0
3	17	29	9	988	66.0	-237271.0	-1399.0	-326177.0
3	17	29	9	989	67.0	-232670.0	-1479.0	-331074.0
3	17	29	9	989	68.0	-227543.0	-1566.0	-333886.0
3	17	29	9	990	69.0	-221986.0	-1639.0	-332201.0
3	17	29	9	990	79.0	-172013.0	-2443.0	-338959.0
3	17	29	9	991	94.0	-198098.0	-3566.0	-342784.0
3	17	29	9	991	95.0	-204244.0	-3642.0	-339632.0
3	17	29	9	992	96.0	-211170.0	-3709.0	-338217.0
3	17	29	10	0	97.0	-219431.0	-3778.0	-337229.0
3	17	29	10	1	98.0	-228142.0	-3831.0	-338542.0
3	17	29	10	1	99.0	-236756.0	-3881.0	-340288.0
3	17	29	10	2	100.0	-245016.0	-3948.0	-337017.0
3	17	29	10	2	101.0	-252264.0	-4034.0	-331255.0
3	17	29	10	24	102.0	-258162.0	-4116.0	-320855.0
3	17	29	10	24	103.0	-261713.0	-4179.0	-308660.0
3	17	29	10	25	104.0	-261959.0	-4237.0	-297038.0
3	17	29	10	25	105.0	-258602.0	-4317.0	-290734.0
3	17	29	10	26	106.0	-251558.0	-4401.0	-287480.0
3	17	29	10	27	107.0	-240942.0	-4457.0	-286536.0
3	17	29	10	27	108.0	-227558.0	-4534.0	-289332.0
3	17	29	10	28	109.0	-212215.0	-4586.0	-297827.0
3	17	29	10	28	110.0	-196307.0	-4664.0	-301285.0
3	17	29	10	29	111.0	-180861.0	-4731.0	-308650.0
3	17	29	10	29	112.0	-168036.0	-4802.0	-338797.0
3	17	29	10	30	113.0	-159637.0	-4854.0	-361762.0
3	17	29	10	30	114.0	-156599.0	-4934.0	-373447.0
3	17	29	10	31	115.0	-159546.0	-5006.0	-384132.0
3	17	29	10	32	116.0	-167254.0	-5049.0	-413868.0
3	17	29	10	32	117.0	-178914.0	-5116.0	-455294.0
3	17	29	10	47	118.0	-193096.0	-5188.0	-473504.0
3	17	29	10	47	119.0	-207917.0	-5224.0	-469758.0
3	17	29	10	48	120.0	-222865.0	-5298.0	-453019.0
3	17	29	10	48	121.0	-236821.0	-5378.0	-430757.0
3	17	29	10	49	122.0	-249304.0	-5425.0	-405691.0
3	17	29	10	49	123.0	-257975.0	-5499.0	-386032.0
3	17	29	10	85	124.0	-258281.0	-5570.0	-373241.0
3	17	29	10	109	125.0	-244591.0	-5627.0	-366124.0
3	17	29	10	109	126.0	-215374.0	-5679.0	-362841.0
3	17	29	10	110	127.0	-179269.0	-5741.0	-361911.0
3	17	29	10	110	128.0	-144148.0	-5806.0	-362958.0
3	17	29	10	111	129.0	-118521.0	-5865.0	-362162.0
3	17	29	10	111	130.0	-109309.0	-5917.0	-361994.0
3	17	29	10	112	131.0	-113652.0	-5985.0	-364183.0
3	17	29	10	113	132.0	-125229.0	-6055.0	-363009.0
3	17	29	10	113	133.0	-135970.0	-6124.0	-361295.0
3	17	29	10	114	134.0	-148037.0	-6189.0	-357636.0
3	17	29	10	114	135.0	-164546.0	-6230.0	-351062.0
3	17	29	10	115	136.0	-186921.0	-6292.0	-347063.0
3	17	29	10	115	137.0	-208019.0	-6362.0	-349424.0
3	17	29	10	116	138.0	-224974.0	-6412.0	-352115.0
3	17	29	10	117	139.0	-239511.0	-6459.0	-353667.0
3	17	29	10	118	146.0	-290906.0	-6897.0	-353321.0
3	17	29	10	118	147.0	-309782.0	-6917.0	-356934.0
3	17	29	10	119	148.0	-321247.0	-6966.0	-360139.0
3	17	29	10	120	149.0	-320998.0	-7021.0	-365681.0
3	17	29	10	120	150.0	-309338.0	-7085.0	-368842.0
3	17	29	10	121	151.0	-288851.0	-7145.0	-362829.0
3	17	29	10	121	152.0	-265201.0	-7193.0	-355085.0
3	17	29	10	122	153.0	-242274.0	-7232.0	-348055.0
3	17	29	10	122	154.0	-222215.0	-7298.0	-345776.0
3	17	29	10	123	155.0	-207020.0	-7342.0	-348146.0
3	17	29	10	123	156.0	-195184.0	-7388.0	-349663.0
3	17	29	10	124	157.0	-186912.0	-7434.0	-366201.0
3	17	29	10	125	158.0	-180997.0	-7476.0	-412659.0
3	17	29	10	125	159.0	-178224.0	-7533.0	-440550.0
3	17	29	10	126	160.0	-178538.0	-7599.0	-440496.0
3	17	29	10	126	161.0	-182184.0	-7669.0	-425398.0
3	17	29	10	127	162.0	-189411.0	-7734.0	-404927.0
3	17	29	10	135	163.0	-197312.0	-7792.0	-371688.0
3	17	29	10	135	164.0	-206314.0	-7837.0	-336487.0
3	17	29	10	136	165.0	-215130.0	-7892.0	-313432.0
3	17	29	10	137	166.0	-223205.0	-7954.0	-297017.0
3	17	29	10	137	167.0	-230655.0	-7988.0	-285436.0
3	17	29	10	138	168.0	-236572.0	-8044.0	-274707.0
3	17	29	10	138	169.0	-241239.0	-8106.0	-264692.0
3	17	29	10	158	170.0	-241954.0	-8159.0	-253245.0
3	17	29	10	159	171.0	-238686.0	-8201.0	-233811.0
3	17	29	10	159	172.0	-232344.0	-8241.0	-216969.0
3	17	29	10	160	173.0	-222211.0	-8306.0	-213617.0
3	17	29	10	161	174.0	-210766.0	-8365.0	-213046.0
3	17	29	10	161	175.0	-198946.0	-8424.0	-212611.0
3	17	29	10	162	176.0	-187468.0	-8482.0	-212651.0
3	17	29	10	162	177.0	-177110.0	-8542.0	-213882.0
3	17	29	10	163	178.0	-167949.0	-8586.0	-215686.0
3	17	29	10	163	179.0	-161000.0	-8614.0	-215790.0
3	17	29	10	164	180.0	-155985.0	-8685.0	-212491.0
3	17	29	10	165	181.0	-153556.0	-8757.0	-207967.0
3	17	29	10	165	182.0	-153532.0	-8821.0	-203689.0
3	17	29	10	166	183.0	-155612.0	-8881.0	-197784.0
3	17	29	10	166	184.0	-160109.0	-8933.0	-195201.0
3	17	29	10	181	185.0	-165734.0	-8985.0	-191801.0
3	17	29	10	182	186.0	-172416.0	-9044.0	-191279.0
3	17	29	10	182	187.0	-179448.0	-9097.0	-190679.0
3	17	29	10	183	188.0	-187134.0	-9152.0	-189361.0
3	17	29	10	183	189.0	-195092.0	-9201.0	-190814.0
3	17	29	10	184	190.0	-203039.0	-9262.0	-193722.0
3	17	29	10	185	191.0	-210777.0	-9319.0	-194011.0
3	17	29	10	185	192.0	-217647.0	-9377.0	-194853.0
3	17	29	10	205	193.0	-223747.0	-9429.0	-194236.0
3	17	29	10	206	194.0	-229247.0	-9475.0	-195487.0
3	17	29	10	207	195.0	-233867.0	-9542.0	-196839.0
3	17	29	10	207	196.0	-237521.0	-9607.0	-197855.0
3	17	29	10	208	197.0	-240257.0	-9651.0	-202573.0
3	17	29	10	208	198.0	-242387.0	-9702.0	-213099.0
3	17	29	10	209	199.0	-243674.0	-9767.0	-215905.0
3	17	29	10	210	200.0	-243674.0	-9830.0	-212709.0
3	17	29	10	210	201.0	-242868.0	-9884.0	-208377.0
3	17	29	10	211	202.0	-240850.0	-9944.0	-206201.0
3	17	29	10	211	203.0	-238391.0	-10010.0	-205296.0
3	17	29	10	212	204.0	-235356.0	-10062.0	-205591.0
3	17	29	10	213	205.0	-232039.0	-10129.0	-204277.0
3	17	29	10	213	206.0	-228297.0	-10163.0	-205563.0
3	17	29	10	214	207.0	-223923.0	-10214.0	-205801.0
3	17	29	10	214	208.0	-218689.0	-10255.0	-205027.0
3	17	29	10	215	209.0	-212424.0	-10285.0	-205151.0
3	17	29	10	215	210.0	-205678.0	-10320.0	-204637.0
3	17	29	10	229	211.0	-198355.0	-10354.0	-204404.0
3	17	29	10	230	212.0	-190250.0	-10392.0	-204986.0
3	17	29	10	230	213.0	-181387.0	-10421.0	-206208.0
3	17	29	10	252	214.0	-172246.0	-10442.0	-205968.0
3	17	29	10	253	215.0	-163212.0	-10479.0	-205819.0
3	17	29	10	254	216.0	-154554.0	-10509.0	-205549.0
3	17	29	10	254	217.0	-146911.0	-10501.0	-206001.0
3	17	29	10	255	218.0	-140292.0	-10511.0	-207402.0
3	17	29	10	255	219.0	-135242.0	-10534.0	-210219.0
3	17	29	10	256	220.0	-131421.0	-10530.0	-212049.0
3	17	29	10	256	221.0	-128662.0	-10500.0	-213159.0
3	17	29	10	257	222.0	-126865.0	-10497.0	-215366.0
3	17	29	10	258	223.0	-125563.0	-10472.0	-215971.0
3	17	29	10	258	224.0	-124582.0	-10432.0	-215941.0
3	17	29	10	259	225.0	-124027.0	-10399.0	-214290.0
3	17	29	10	259	226.0	-124411.0	-10358.0	-214624.0
3	17	29	10	260	227.0	-125255.0	-10296.0	-215831.0
3	17	29	10	260	228.0	-126603.0	-10232.0	-215674.0
3	17	29	10	261	229.0	-129044.0	-10176.0	-215724.0
3	17	29	10	275	230.0	-132622.0	-10104.0	-214463.0
3	17	29	10	275	231.0	-137156.0	-10031.0	-208009.0
3	17	29	10	276	232.0	-142849.0	-9929.0	-200525.0
3	17	29	10	276	233.0	-149327.0	-9842.0	-199727.0
3	17	29	10	277	234.0	-156329.0	-9756.0	-201761.0
3	17	29	10	278	235.0	-163226.0	-9632.0	-212689.0
3	17	29	10	278	236.0	-170045.0	-9485.0	-255549.0
3	17	29	10	279	237.0	-176889.0	-9347.0	-295194.0
3	17	29	10	279	238.0	-183686.0	-9216.0	-306665.0
3	17	29	10	280	239.0	-190448.0	-9087.0	-304359.0
3	17	29	10	281	240.0	-196614.0	-8919.0	-295148.0
3	17	29	10	281	241.0	-201774.0	-8761.0	-281780.0
3	17	29	10	282	242.0	-206579.0	-8599.0	-265415.0
3	17	29	10	282	243.0	-209708.0	-8433.0	-245054.0
3	17	29	10	283	244.0	-212059.0	-8246.0	-222894.0
3	17	29	10	297	245.0	-213771.0	-8056.0	-198831.0
3	17	29	10	298	246.0	-214884.0	-7855.0	-171041.0
3	17	29	10	298	247.0	-215719.0	-7652.0	-149824.0
3	17	29	10	299	248.0	-215922.0	-7445.0	-137923.0
3	17	29	10	300	249.0	-215771.0	-7238.0	-131944.0
3	17	29	10	300	250.0	-215506.0	-7031.0	-128016.0
3	17	29	10	301	251.0	-215218.0	-6802.0	-127094.0
3	17	29	10	301	252.0	-214249.0	-6582.0	-127297.0
3	17	29	10	320	253.0	-213265.0	-6367.0	-127456.0
3	17	29	10	321	254.0	-212076.0	-6141.0	-128348.0
3	17	29	10	321	255.0	-210487.0	-5926.0	-128674.0
3	17	29	10	322	0.0	-208404.0	-5695.0	-128192.0
3	17	29	10	322	1.0	-205894.0	-5452.0	-127836.0
3	17	29	10	323	2.0	-204169.0	-5202.0	-128040.0
3	17	29	10	324	3.0	-202548.0	-4979.0	-128419.0
3	17	29	10	324	4.0	-200803.0	-4755.0	-130457.0
3	17	29	10	325	5.0	-198987.0	-4517.0	-132882.0
3	17	29	10	326	6.0	-197151.0	-4275.0	-135041.0
3	17	29	10	326	7.0	-194299.0	-4043.0	-136001.0
3	17	29	10	327	8.0	-189681.0	-3818.0	-140234.0
3	17	29	10	327	9.0	-182133.0	-3607.0	-140333.0
3	17	29	10	328	10.0	-171401.0	-3383.0	-139342.0
3	17	29	10	328	11.0	-148488.0	-3159.0	-138772.0
3	17	29	10	344	12.0	-118855.0	-2917.0	-138489.0
3	17	29	10	344	13.0	-100739.0	-2699.0	-139285.0
3	17	29	10	345	14.0	-96460.0	-2492.0	-138181.0
3	17	29	10	346	15.0	-102814.0	-2291.0	-137669.0
3	17	29	10	346	16.0	-116638.0	-2079.0	-136058.0
3	17	29	10	347	17.0	-135666.0	-1879.0	-134634.0
3	17	29	10	347	18.0	-152756.0	-1687.0	-134541.0
3	17	29	10	366	19.0	-163931.0	-1477.0	-134019.0
3	17	29	10	367	20.0	-169866.0	-1271.0	-134179.0
3	17	29	10	368	21.0	-172602.0	-1071.0	-136301.0
3	17	29	10	368	22.0	-174926.0	-894.0	-138164.0
3	17	29	10	369	23.0	-178271.0	-693.0	-138334.0
3	17	29	10	370	24.0	-182762.0	-524.0	-139196.0
3	17	29	10	370	25.0	-187974.0	-341.0	-139813.0
3	17	29	10	371	26.0	-193974.0	-180.0	-140016.0
3	17	29	10	371	27.0	-199683.0	-13.0	-139874.0
3	17	29	10	372	28.0	-204077.0	153.0	-141540.0
3	17	29	10	373	29.0	-207064.0	308.0	-141862.0
3	17	29	10	373	30.0	-208278.0	473.0	-141888.0
3	17	29	10	374	31.0	-207979.0	612.0	-145114.0
3	17	29	10	374	32.0	-206092.0	757.0	-147728.0
3	17	29	10	375	33.0	-202493.0	919.0	-149814.0
3	17	29	10	390	34.0	-196760.0	1051.0	-151079.0
3	17	29	10	390	35.0	-189057.0	1191.0	-152049.0
3	17	29	10	391	36.0	-179578.0	1311.0	-154222.0
3	17	29	10	392	37.0	-168387.0	1428.0	-156645.0
3	17	29	10	392	38.0	-155715.0	1554.0	-158934.0
3	17	29	10	393	39.0	-142627.0	1667.0	-161126.0
3	17	29	10	393	40.0	-130196.0	1765.0	-163264.0
3	17	29	10	394	41.0	-118127.0	1882.0	-162642.0
3	17	29	10	413	42.0	-107382.0	2001.0	-161284.0
3	17	29	10	413	43.0	-98577.0	2109.0	-157678.0
3	17	29	10	414	44.0	-92237.0	2203.0	-154748.0
3	17	29	10	415	45.0	-87989.0	2296.0	-152913.0
3	17	29	10	415	46.0	-86314.0	2374.0	-152044.0
3	17	29	10	416	47.0	-87594.0	2461.0	-151591.0
3	17	29	10	417	48.0	-91702.0	2552.0	-150423.0
3	17	29	10	417	49.0	-98554.0	2617.0	-150936.0
3	17	29	10	418	50.0	-107299.0	2689.0	-153353.0
3	17	29	10	418	51.0	-116823.0	2749.0	-152719.0
3	17	29	10	435	52.0	-126024.0	2829.0	-154343.0
3	17	29	10	436	53.0	-134146.0	2916.0	-160093.0
3	17	29	10	436	54.0	-141691.0	2958.0	-161628.0
3	17	29	10	437	55.0	-148616.0	3026.0	-161006.0
3	17	29	10	437	56.0	-154452.0	3075.0	-161732.0
3	17	29	10	438	57.0	-159881.0	3134.0	-161480.0
3	17	29	10	438	58.0	-165094.0	3183.0	-159289.0
3	17	29	10	439	59.0	-170331.0	3219.0	-156389.0
3	17	29	10	440	60.0	-176492.0	3289.0	-153792.0
3	17	29	10	440	61.0	-183454.0	3322.0	-152679.0
3	17	29	10	441	62.0	-191190.0	3373.0	-152509.0
3	17	29	10	441	63.0	-199570.0	3387.0	-152280.0
3	17	29	10	442	64.0	-207650.0	3404.0	-152961.0
3	17	29	10	442	65.0	-214987.0	3449.0	-157385.0
3	17	29	10	458	66.0	-221612.0	3498.0	-190682.0
3	17	29	10	459	67.0	-228168.0	3497.0	-227443.0
3	17	29	10	460	68.0	-234255.0	3500.0	-237714.0
3	17	29	10	461	69.0	-239579.0	3516.0	-230749.0
3	17	29	10	461	70.0	-243736.0	3524.0	-215719.0
3	17	29	10	462	71.0	-246867.0	3544.0	-194461.0
3	17	29	10	462	72.0	-249210.0	3560.0	-165723.0
3	17	29	10	463	73.0	-250447.0	3559.0	-132679.0
3	17	29	10	464	74.0	-250545.0	3549.0	-111255.0
3	17	29	10	464	75.0	-249837.0	3559.0	-98775.0
3	17	29	10	465	76.0	-248612.0	3556.0	-91876.0
3	17	29	10	465	77.0	-246872.0	3551.0	-87049.0
3	17	29	10	466	78.0	-244712.0	3549.0	-84201.0
3	17	29	10	482	79.0	-242171.0	3534.0	-83149.0
3	17	29	10	482	80.0	-238932.0	3526.0	-83356.0
3	17	29	10	483	81.0	-235392.0	3526.0	-84347.0
3	17	29	10	483	82.0	-231326.0	3543.0	-84829.0
3	17	29	10	484	83.0	-226407.0	3526.0	-84259.0
3	17	29	10	485	84.0	-221162.0	3515.0	-84089.0
3	17	29	10	485	85.0	-216192.0	3495.0	-85890.0
3	17	29	10	486	86.0	-211351.0	3463.0	-86522.0
3	17	29	10	505	87.0	-206342.0	3443.0	-87272.0
3	17	29	10	506	88.0	-201599.0	3448.0	-87879.0
3	17	29	10	507	89.0	-197382.0	3434.0	-89854.0
3	17	29	10	507	90.0	-193171.0	3419.0	-92231.0
3	17	29	10	508	91.0	-189037.0	3400.0	-93843.0
3	17	29	10	508	92.0	-184997.0	3374.0	-95670.0
3	17	29	10	509	93.0	-181390.0	3339.0	-97171.0
3	17	29	10	510	94.0	-178236.0	3320.0	-98264.0
3	17	29	10	510	95.0	-175216.0	3320.0	-97799.0
3	17	29	10	511	96.0	-172407.0	3300.0	-97232.0
3	17	29	10	511	97.0	-169886.0	3286.0	-98086.0
3	17	29	10	512	98.0	-167661.0	3244.0	-100364.0
3	17	29	10	512	99.0	-166207.0	3211.0	-101327.0
3	17	29	10	513	100.0	-165624.0	3197.0	-103009.0
3	17	29	10	528	101.0	-166013.0	3182.0	-102464.0
3	17	29	10	529	102.0	-167243.0	3159.0	-100624.0
3	17	29	10	529	103.0	-169152.0	3134.0	-99474.0
3	17	29	10	530	104.0	-171544.0	3130.0	-100818.0
3	17	29	10	530	105.0	-174027.0	3098.0	-102822.0
3	17	29	10	531	106.0	-176935.0	3064.0	-103876.0
3	17	29	10	531	107.0	-180187.0	3059.0	-106077.0
3	17	29	10	532	108.0	-183493.0	3041.0	-106959.0
3	17	29	10	533	109.0	-186750.0	3013.0	-107729.0
3	17	29	10	533	110.0	-190191.0	2994.0	-108996.0
3	17	29	10	534	111.0	-193846.0	2984.0	-108335.0
3	17	29	10	535	112.0	-197566.0	2948.0	-106887.0
3	17	29	10	535	113.0	-201641.0	2928.0	-107132.0
3	17	29	10	536	114.0	-206127.0	2915.0	-107754.0
3	17	29	10	537	115.0	-210437.0	2893.0	-108730.0
3	17	29	10	550	116.0	-214591.0	2881.0	-109870.0
3	17	29	10	551	117.0	-219081.0	2866.0	-111380.0
3	17	29	10	552	118.0	-223436.0	2844.0	-113094.0
3	17	29	10	553	119.0	-227076.0	2831.0	-115014.0
3	17	29	10	553	120.0	-230185.0	2819.0	-116346.0
3	17	29	10	554	121.0	-232826.0	2810.0	-116114.0
3	17	29	10	554	122.0	-234707.0	2784.0	-113812.0
3	17	29	10	555	123.0	-235991.0	2781.0	-111460.0
3	17	29	10	575	124.0	-236466.0	2777.0	-110860.0
3	17	29	10	576	125.0	-235599.0	2746.0	-111248.0
3	17	29	10	577	126.0	-233850.0	2739.0	-113459.0
3	17	29	10	577	127.0	-231407.0	2741.0	-114868.0
3	17	29	10	578	128.0	-228306.0	2732.0	-115219.0
3	17	29	10	579	129.0	-225036.0	2704.0	-116016.0
3	17	29	10	579	130.0	-222030.0	2689.0	-116494.0
3	17	29	10	580	131.0	-219237.0	2678.0	-117924.0
3	17	29	10	581	132.0	-217072.0	2671.0	-117707.0
3	17	29	10	581	133.0	-214616.0	2681.0	-117376.0
3	17	29	10	582	134.0	-211479.0	2663.0	-117652.0
3	17	29	10	582	135.0	-208395.0	2658.0	-116984.0
3	17	29	10	583	136.0	-204905.0	2646.0	-116109.0
3	17	29	10	584	137.0	-201221.0	2617.0	-114352.0
3	17	29	10	584	138.0	-198052.0	2594.0	-113825.0
3	17	29	10	598	139.0	-195534.0	2586.0	-113739.0
3	17	29	10	598	140.0	-193422.0	2590.0	-113269.0
3	17	29	10	599	141.0	-192044.0	2588.0	-112235.0
3	17	29	10	599	142.0	-191264.0	2566.0	-115707.0
3	17	29	10	600	143.0	-190534.0	2548.0	-121231.0
3	17	29	10	601	144.0	-189849.0	2539.0	-123828.0
3	17	29	10	601	145.0	-189864.0	2511.0	-123465.0
3	17	29	10	602	146.0	-190471.0	2499.0	-124184.0
3	17	29	10	622	147.0	-191078.0	2487.0	-125999.0
3	17	29	10	622	148.0	-192197.0	2468.0	-126536.0
3	17	29	10	623	149.0	-193736.0	2452.0	-127421.0
3	17	29	10	624	150.0	-195352.0	2449.0	-127659.0
3	17	29	10	624	151.0	-196859.0	2428.0	-127626.0
3	17	29	10	625	152.0	-198312.0	2409.0	-127154.0
3	17	29	10	625	153.0	-199714.0	2373.0	-124967.0
3	17	29	10	626	154.0	-201309.0	2365.0	-123580.0
3	17	29	10	627	155.0	-203209.0	2348.0	-124293.0
3	17	29	10	627	156.0	-205023.0	2333.0	-123124.0
3	17	29	10	644	157.0	-206584.0	2295.0	-119833.0
3	17	29	10	644	158.0	-207661.0	2265.0	-115321.0
3	17	29	10	645	159.0	-208402.0	2225.0	-93274.0
3	17	29	10	645	160.0	-208811.0	2215.0	-72216.0
3	17	29	10	646	161.0	-208657.0	2208.0	-63657.0
3	17	29	10	647	162.0	-207579.0	2175.0	-58411.0
3	17	29	10	647	163.0	-205914.0	2138.0	-56167.0
3	17	29	10	648	164.0	-203941.0	2091.0	-55798.0
3	17	29	10	648	165.0	-201486.0	2064.0	-54078.0
3	17	29	10	649	166.0	-199156.0	2036.0	-50631.0
3	17	29	10	650	167.0	-196581.0	2004.0	-49037.0
3	17	29	10	667	168.0	-194102.0	1968.0	-48831.0
3	17	29	10	668	169.0	-191715.0	1933.0	-51750.0
3	17	29	10	669	170.0	-189661.0	1905.0	-60006.0
3	17	29	10	669	171.0	-187984.0	1874.0	-75461.0
3	17	29	10	670	172.0	-186557.0	1841.0	-90947.0
3	17	29	10	670	173.0	-184851.0	1811.0	-124777.0
3	17	29	10	671	174.0	-183424.0	1771.0	-165831.0
3	17	29	10	672	175.0	-182936.0	1698.0	-180931.0
3	17	29	10	672	176.0	-183395.0	1651.0	-174503.0
3	17	29	10	673	177.0	-184776.0	1618.0	-153441.0
3	17	29	10	674	178.0	-186364.0	1588.0	-128292.0
3	17	29	10	674	179.0	-187921.0	1522.0	-102862.0
3	17	29	10	675	180.0	-189958.0	1481.0	-72076.0
3	17	29	10	675	181.0	-192052.0	1429.0	-42213.0
3	17	29	10	676	182.0	-193768.0	1393.0	-20363.0
3	17	29	10	676	183.0	-195510.0	1352.0	-1552.0
3	17	29	10	689	184.0	-196980.0	1299.0	8684.0
3	17	29	10	689	185.0	-198096.0	1256.0	16854.0
3	17	29	10	690	186.0	-199091.0	1210.0	27593.0
3	17	29	10	690	187.0	-199962.0	1141.0	36265.0
3	17	29	10	691	188.0	-201471.0	1091.0	43309.0
3	17	29	10	692	189.0	-202820.0	1040.0	45008.0
3	17	29	10	692	190.0	-204333.0	989.0	47811.0
3	17	29	10	711	191.0	-206054.0	934.0	51974.0
3	17	29	10	712	192.0	-207830.0	880.0	58523.0
3	17	29	10	713	193.0	-209566.0	831.0	64928.0
3	17	29	10	713	194.0	-211204.0	774.0	69326.0
3	17	29	10	714	195.0	-213072.0	719.0	72346.0
3	17	29	10	715	196.0	-214498.0	656.0	74084.0
3	17	29	10	715	197.0	-215971.0	583.0	74153.0
3	17	29	10	716	198.0	-217135.0	501.0	69633.0
3	17	29	10	717	199.0	-218204.0	458.0	66631.0
3	17	29	10	717	200.0	-219169.0	398.0	67661.0
3	17	29	10	718	201.0	-219541.0	331.0	68358.0
3	17	29	10	719	202.0	-219131.0	266.0	69754.0
3	17	29	10	719	203.0	-218234.0	198.0	71385.0
3	17	29	10	720	204.0	-217038.0	136.0	73065.0
3	17	29	10	720	205.0	-214939.0	62.0	72968.0
3	17	29	10	759	206.0	-212762.0	11.0	71494.0
3	17	29	10	760	207.0	-210634.0	-72.0	72148.0
3	17	29	10	761	208.0	-208558.0	-127.0	73665.0
3	17	29	10	762	209.0	-206783.0	-187.0	72884.0
3	17	29	10	762	210.0	-204617.0	-253.0	70415.0
3	17	29	10	763	211.0	-202053.0	-299.0	71160.0
3	17	29	10	764	212.0	-199529.0	-373.0	72733.0
3	17	29	10	765	213.0	-197072.0	-437.0	72254.0
3	17	29	10	765	214.0	-194134.0	-512.0	70696.0
3	17	29	10	766	215.0	-191401.0	-567.0	69302.0
3	17	29	10	767	216.0	-188564.0	-650.0	69121.0
3	17	29	10	775	217.0	-185881.0	-729.0	68262.0
3	17	29	10	776	218.0	-183943.0	-797.0	68486.0
3	17	29	10	776	219.0	-182553.0	-871.0	68897.0
3	17	29	10	777	220.0	-182423.0	-949.0	69638.0
3	17	29	10	778	221.0	-183297.0	-1002.0	69106.0
3	17	29	10	778	227.0	-194341.0	-1426.0	70669.0
3	17	29	10	779	228.0	-196122.0	-1482.0	69419.0
3	17	29	10	779	229.0	-197660.0	-1561.0	68714.0
3	17	29	10	780	230.0	-198885.0	-1627.0	68490.0
3	17	29	10	781	231.0	-200443.0	-1697.0	67847.0
3	17	29	10	781	232.0	-201596.0	-1762.0	68989.0
3	17	29	10	782	233.0	-202618.0	-1830.0	69303.0
3	17	29	10	782	234.0	-203717.0	-1908.0	68273.0
3	17	29	10	783	235.0	-204471.0	-1959.0	68858.0
3	17	29	10	798	236.0	-204956.0	-2018.0	70639.0
3	17	29	10	799	237.0	-205242.0	-2098.0	72456.0
3	17	29	10	799	238.0	-205366.0	-2184.0	74036.0
3	17	29	10	800	239.0	-204918.0	-2254.0	72922.0
3	17	29	10	801	240.0	-204811.0	-2322.0	70444.0
3	17	29	10	801	241.0	-205280.0	-2386.0	71634.0
3	17	29	10	802	242.0	-206466.0	-2453.0	73164.0
3	17	29	10	803	243.0	-208044.0	-2550.0	70619.0
3	17	29	10	821	244.0	-210099.0	-2619.0	71150.0
3	17	29	10	822	245.0	-212901.0	-2659.0	72173.0
3	17	29	10	822	246.0	-215789.0	-2736.0	71642.0
3	17	29	10	823	247.0	-218916.0	-2819.0	72494.0
3	17	29	10	823	248.0	-221729.0	-2895.0	73477.0
3	17	29	10	824	249.0	-223737.0	-2959.0	73902.0
3	17	29	10	825	250.0	-225118.0	-3022.0	66294.0
3	17	29	10	825	251.0	-225859.0	-3079.0	62060.0
3	17	29	10	826	252.0	-225837.0	-3146.0	70853.0
3	17	29	10	826	253.0	-225404.0	-3223.0	78751.0
3	17	29	10	827	254.0	-224490.0	-3278.0	83286.0
3	17	29	10	828	255.0	-223069.0	-3333.0	89051.0
3	17	29	10	828	0.0	-221029.0	-3407.0	91173.0
3	17	29	10	829	1.0	-218469.0	-3483.0	89460.0
3	17	29	10	829	2.0	-215429.0	-3559.0	87493.0
3	17	29	10	853	3.0	-212552.0	-3619.0	85695.0
3	17	29	10	854	4.0	-209053.0	-3664.0	85943.0
3	17	29	10	854	5.0	-205131.0	-3722.0	87376.0
3	17	29	10	869	6.0	-201769.0	-3799.0	87469.0
3	17	29	10	870	7.0	-198547.0	-3870.0	85669.0
3	17	29	10	871	8.0	-195357.0	-3948.0	85804.0
3	17	29	10	871	9.0	-192391.0	-4003.0	85015.0
3	17	29	10	872	10.0	-189759.0	-4058.0	81785.0
3	17	29	10	872	11.0	-187539.0	-4129.0	80773.0
3	17	29	10	873	12.0	-185124.0	-4207.0	80754.0
3	17	29	10	873	13.0	-182732.0	-4257.0	80436.0
3	17	29	10	874	14.0	-181331.0	-4304.0	81375.0
3	17	29	10	875	15.0	-181346.0	-4375.0	83967.0
3	17	29	10	875	16.0	-182631.0	-4449.0	85580.0
3	17	29	10	876	17.0	-185252.0	-4491.0	85689.0
3	17	29	10	876	18.0	-189456.0	-4551.0	87760.0
3	17	29	10	877	19.0	-194686.0	-4616.0	89855.0
3	17	29	10	877	20.0	-200258.0	-4684.0	96078.0
3	17	29	10	878	21.0	-206285.0	-4749.0	103996.0
3	17	29	10	878	24.0	-220398.0	-4937.0	141199.0
3	17	29	10	879	25.0	-222164.0	-5002.0	148324.0
3	17	29	10	880	26.0	-221597.0	-5052.0	152674.0
3	17	29	10	880	27.0	-218571.0	-5090.0	154339.0
3	17	29	10	881	28.0	-212760.0	-5155.0	154320.0
3	17	29	10	881	29.0	-204936.0	-5217.0	149999.0
3	17	29	10	882	30.0	-196180.0	-5272.0	143580.0
3	17	29	10	882	31.0	-187917.0	-5341.0	135358.0
3	17	29	10	893	32.0	-181717.0	-5396.0	124427.0
3	17	29	10	894	33.0	-179477.0	-5426.0	109098.0
3	17	29	10	895	34.0	-182728.0	-5484.0	100352.0
3	17	29	10	895	35.0	-190718.0	-5555.0	93594.0
3	17	29	10	896	36.0	-202501.0	-5595.0	87398.0
3	17	29	10	897	37.0	-216734.0	-5654.0	84189.0
3	17	29	10	897	38.0	-232405.0	-5714.0	82674.0
3	17	29	10	898	39.0	-248343.0	-5777.0	80553.0
3	17	29	10	898	40.0	-263268.0	-5846.0	78523.0
3	17	29	10	915	41.0	-277153.0	-5899.0	78064.0
3	17	29	10	916	42.0	-288404.0	-5928.0	78436.0
3	17	29	10	916	43.0	-294084.0	-5991.0	77608.0
3	17	29	10	917	44.0	-285246.0	-6046.0	77056.0
3	17	29	10	917	45.0	-257009.0	-6103.0	77438.0
3	17	29	10	918	46.0	-215074.0	-6146.0	77884.0
3	17	29	10	940	47.0	-171432.0	-6221.0	76947.0
3	17	29	10	941	48.0	-135962.0	-6276.0	74490.0
3	17	29	10	941	49.0	-119702.0	-6313.0	72682.0
3	17	29	10	942	50.0	-123741.0	-6366.0	65201.0
3	17	29	10	942	51.0	-139638.0	-6397.0	20842.0
3	17	29	10	943	52.0	-155467.0	-6457.0	-22488.0
3	17	29	10	943	53.0	-167810.0	-6536.0	-35766.0
3	17	29	10	944	54.0	-179187.0	-6594.0	-35712.0
3	17	29	10	944	55.0	-191108.0	-6644.0	-25462.0
3	17	29	10	945	56.0	-203126.0	-6694.0	-5745.0
3	17	29	10	945	57.0	-216222.0	-6741.0	17471.0
3	17	29	10	946	58.0	-224456.0	-6819.0	43763.0
3	17	29	10	947	59.0	-223822.0	-6876.0	73816.0
3	17	29	10	947	60.0	-209359.0	-6904.0	101874.0
3	17	29	10	948	61.0	-185024.0	-6963.0	118992.0
3	17	29	10	963	62.0	-163187.0	-7026.0	129895.0
3	17	29	10	964	63.0	-151194.0	-7063.0	136770.0
3	17	29	10	986	64.0	-151197.0	-7110.0	139976.0
3	17	29	10	986	65.0	-161137.0	-7163.0	140449.0
3	17	29	10	987	66.0	-177879.0	-7198.0	141209.0
3	17	29	10	988	67.0	-196899.0	-7258.0	140740.0
3	17	29	10	988	68.0	-213248.0	-7318.0	138992.0
3	17	29	10	989	69.0	-223849.0	-7372.0	139011.0
3	17	29	10	989	70.0	-226574.0	-7416.0	146593.0
3	17	29	10	990	71.0	-220372.0	-7462.0	154478.0
3	17	29	10	990	72.0	-206645.0	-7524.0	157461.0
3	17	29	10	991	73.0	-189932.0	-7588.0	156908.0
3	17	29	10	992	74.0	-174021.0	-7634.0	155541.0
3	17	29	10	992	75.0	-161293.0	-7666.0	152362.0
3	17	29	10	993	76.0	-151334.0	-7719.0	149273.0
3	17	29	10	993	77.0	-143009.0	-7776.0	145689.0
3	17	29	10	994	78.0	-136041.0	-7833.0	144134.0
3	17	29	10	994	79.0	-130903.0	-7882.0	142193.0
3	17	29	10	995	80.0	-128719.0	-7944.0	141153.0
3	17	29	10	995	81.0	-129232.0	-7994.0	140447.0
3	17	29	10	996	82.0	-131948.0	-8025.0	140961.0
3	17	29	10	996	83.0	-136518.0	-8080.0	140014.0
3	17	29	10	997	84.0	-141961.0	-8115.0	139358.0
3	17	29	10	998	85.0	-148321.0	-8181.0	137834.0
3	17	29	10	999	86.0	-155139.0	-8241.0	136733.0
3	17	29	10	999	87.0	-162350.0	-8282.0	135918.0
3	17	29	11	0	88.0	-169051.0	-8321.0	135907.0
3	17	29	11	1	89.0	-174339.0	-8371.0	135377.0
3	17	29	11	1	90.0	-177152.0	-8434.0	134880.0
3	17	29	11	2	91.0	-177610.0	-8486.0	133981.0
3	17	29	11	14	92.0	-175868.0	-8509.0	134204.0
3	17	29	11	14	93.0	-172561.0	-8567.0	137358.0
3	17	29	11	15	94.0	-168599.0	-8627.0	139588.0
3	17	29	11	16	95.0	-163851.0	-8672.0	139482.0
3	17	29	11	16	96.0	-158814.0	-8727.0	140696.0
3	17	29	11	17	97.0	-154072.0	-8785.0	139008.0
3	17	29	11	17	98.0	-149280.0	-8827.0	136728.0
3	17	29	11	18	99.0	-144592.0	-8891.0	134932.0
3	17	29	11	35	100.0	-139791.0	-8962.0	135451.0
3	17	29	11	35	101.0	-135131.0	-9008.0	136211.0
3	17	29	11	36	102.0	-130881.0	-9043.0	134172.0
3	17	29	11	36	103.0	-127272.0	-9097.0	128964.0
3	17	29	11	37	104.0	-124350.0	-9147.0	123023.0
3	17	29	11	37	105.0	-122621.0	-9179.0	121744.0
3	17	29	11	38	106.0	-122432.0	-9232.0	127201.0
3	17	29	11	38	107.0	-123401.0	-9284.0	123782.0
3	17	29	11	58	108.0	-125126.0	-9336.0	113138.0
3	17	29	11	58	109.0	-128037.0	-9381.0	103971.0
3	17	29	11	59	110.0	-132144.0	-9438.0	100180.0
3	17	29	11	60	111.0	-137155.0	-9494.0	99642.0
3	17	29	11	60	112.0	-143608.0	-9542.0	103094.0
3	17	29	11	61	113.0	-150219.0	-9610.0	103463.0
3	17	29	11	61	114.0	-157209.0	-9653.0	102096.0
3	17	29	11	81	115.0	-164233.0	-9699.0	97393.0
3	17	29	11	81	116.0	-171586.0	-9755.0	99991.0
3	17	29	11	82	117.0	-178808.0	-9804.0	110298.0
3	17	29	11	83	118.0	-185899.0	-9872.0	121432.0
3	17	29	11	83	119.0	-193017.0	-9935.0	128160.0
3	17	29	11	84	120.0	-199319.0	-9999.0	133752.0
3	17	29	11	84	121.0	-205116.0	-10049.0	137567.0
3	17	29	11	85	122.0	-210880.0	-10103.0	139164.0
3	17	29	11	105	123.0	-215736.0	-10160.0	139783.0
3	17	29	11	105	124.0	-220157.0	-10217.0	137791.0
3	17	29	11	106	125.0	-223278.0	-10277.0	128029.0
3	17	29	11	106	126.0	-225010.0	-10318.0	129139.0
3	17	29	11	107	127.0	-225279.0	-10357.0	131899.0
3	17	29	11	107	128.0	-224646.0	-10382.0	133202.0
3	17	29	11	108	129.0	-222709.0	-10421.0	133263.0
3	17	29	11	109	130.0	-219897.0	-10476.0	131173.0
3	17	29	11	109	131.0	-216585.0	-10516.0	121049.0
3	17	29	11	110	132.0	-212455.0	-10537.0	115857.0
3	17	29	11	110	133.0	-207492.0	-10567.0	114604.0
3	17	29	11	111	134.0	-201454.0	-10594.0	100333.0
3	17	29	11	111	135.0	-195379.0	-10610.0	69694.0
3	17	29	11	112	136.0	-188701.0	-10615.0	73859.0
3	17	29	11	112	137.0	-180460.0	-10648.0	77744.0
3	17	29	11	113	138.0	-172004.0	-10647.0	77009.0
3	17	29	11	114	139.0	-163080.0	-10628.0	76514.0
3	17	29	11	114	140.0	-153603.0	-10619.0	76629.0
3	17	29	11	115	141.0	-144699.0	-10612.0	79617.0
3	17	29	11	115	142.0	-136632.0	-10584.0	79365.0
3	17	29	11	129	143.0	-129206.0	-10558.0	75893.0
3	17	29	11	130	144.0	-122199.0	-10527.0	80354.0
3	17	29	11	130	145.0	-116343.0	-10466.0	100961.0
3	17	29	11	131	146.0	-111563.0	-10402.0	116325.0
3	17	29	11	131	147.0	-108309.0	-10371.0	124901.0
3	17	29	11	132	148.0	-106431.0	-10311.0	135204.0
3	17	29	11	133	149.0	-106451.0	-10230.0	146933.0
3	17	29	11	133	150.0	-108219.0	-10155.0	158283.0
3	17	29	11	134	151.0	-112028.0	-10079.0	167650.0
3	17	29	11	134	152.0	-117217.0	-9991.0	172586.0
3	17	29	11	135	153.0	-124076.0	-9873.0	178344.0
3	17	29	11	136	154.0	-132173.0	-9754.0	183950.0
3	17	29	11	136	155.0	-140632.0	-9626.0	171956.0
3	17	29	11	137	156.0	-149339.0	-9493.0	150146.0
3	17	29	11	137	157.0	-158139.0	-9363.0	131022.0
3	17	29	11	138	158.0	-165735.0	-9234.0	115773.0
3	17	29	11	152	159.0	-173292.0	-9070.0	101794.0
3	17	29	11	152	160.0	-180347.0	-8902.0	87449.0
3	17	29	11	153	161.0	-186246.0	-8727.0	73122.0
3	17	29	11	153	162.0	-191079.0	-8554.0	60619.0
3	17	29	11	154	163.0	-194936.0	-8374.0	46995.0
3	17	29	11	154	164.0	-198334.0	-8169.0	38531.0
3	17	29	11	155	165.0	-201536.0	-7997.0	33373.0
3	17	29	11	156	166.0	-203724.0	-7809.0	26346.0
3	17	29	11	156	167.0	-205222.0	-7605.0	18965.0
3	17	29	11	175	168.0	-205703.0	-7384.0	15783.0
3	17	29	11	175	169.0	-204898.0	-7140.0	15089.0
3	17	29	11	176	170.0	-204072.0	-6939.0	15306.0
3	17	29	11	177	171.0	-202114.0	-6741.0	15544.0
3	17	29	11	177	172.0	-199962.0	-6500.0	14353.0
3	17	29	11	178	173.0	-197844.0	-6247.0	13645.0
3	17	29	11	178	174.0	-196261.0	-6022.0	8015.0
3	17	29	11	179	175.0	-194901.0	-5764.0	-28812.0
3	17	29	11	198	176.0	-193681.0	-5527.0	-62838.0
3	17	29	11	200	177.0	-193796.0	-5304.0	-75156.0
3	17	29	11	201	178.0	-194107.0	-5087.0	-71205.0
3	17	29	11	201	179.0	-194752.0	-4841.0	-57429.0
3	17	29	11	202	180.0	-195196.0	-4602.0	-34199.0
3	17	29	11	202	181.0	-195776.0	-4351.0	-4006.0
3	17	29	11	203	182.0	-195869.0	-4113.0	24160.0
3	17	29	11	203	183.0	-195522.0	-3852.0	43835.0
3	17	29	11	204	184.0	-193806.0	-3617.0	57010.0
3	17	29	11	205	185.0	-190062.0	-3371.0	66529.0
3	17	29	11	205	186.0	-183345.0	-3163.0	73013.0
3	17	29	11	206	187.0	-172923.0	-2916.0	75986.0
3	17	29	11	206	188.0	-153139.0	-2680.0	73548.0
3	17	29	11	207	189.0	-123772.0	-2451.0	68555.0
3	17	29	11	221	190.0	-104676.0	-2219.0	69727.0
3	17	29	11	222	191.0	-98168.0	-1997.0	69923.0
3	17	29	11	222	192.0	-102019.0	-1779.0	63455.0
3	17	29	11	223	193.0	-112576.0	-1559.0	70834.0
3	17	29	11	224	194.0	-129265.0	-1340.0	73099.0
3	17	29	11	224	195.0	-145634.0	-1124.0	74446.0
3	17	29	11	225	196.0	-157041.0	-929.0	74668.0
3	17	29	11	226	197.0	-162839.0	-730.0	76891.0
3	17	29	11	226	198.0	-165031.0	-508.0	80165.0
3	17	29	11	227	199.0	-166526.0	-314.0	83136.0
3	17	29	11	227	200.0	-167772.0	-136.0	85231.0
3	17	29	11	228	201.0	-169587.0	54.0	88054.0
3	17	29	11	229	202.0	-173135.0	237.0	89868.0
3	17	29	11	229	203.0	-177784.0	417.0	88293.0
3	17	29	11	230	204.0	-182501.0	593.0	88696.0
3	17	29	11	243	205.0	-186534.0	787.0	90229.0
3	17	29	11	244	206.0	-188922.0	924.0	92346.0
3	17	29	11	244	207.0	-191755.0	1089.0	93457.0
3	17	29	11	245	208.0	-195086.0	1240.0	94814.0
3	17	29	11	246	209.0	-198272.0	1403.0	99597.0
3	17	29	11	246	210.0	-201161.0	1569.0	101438.0
3	17	29	11	247	211.0	-202486.0	1715.0	102554.0
3	17	29	11	267	212.0	-202094.0	1859.0	104428.0
3	17	29	11	268	213.0	-199951.0	2004.0	108734.0
3	17	29	11	268	214.0	-195840.0	2133.0	111830.0
3	17	29	11	269	215.0	-190257.0	2253.0	112364.0
3	17	29	11	269	216.0	-183866.0	2371.0	114034.0
3	17	29	11	270	217.0	-175992.0	2481.0	114039.0
3	17	29	11	271	218.0	-167412.0	2591.0	115016.0
3	17	29	11	271	219.0	-158905.0	2709.0	117711.0
3	17	29	11	290	220.0	-150147.0	2817.0	117383.0
3	17	29	11	291	221.0	-142455.0	2925.0	116554.0
3	17	29	11	291	222.0	-136701.0	3041.0	116703.0
3	17	29	11	292	223.0	-132155.0	3136.0	116644.0
3	17	29	11	293	224.0	-129141.0	3211.0	116115.0
3	17	29	11	313	225.0	-127357.0	3297.0	113167.0
3	17	29	11	314	226.0	-126826.0	3374.0	104825.0
3	17	29	11	315	227.0	-127121.0	3467.0	104911.0
3	17	29	11	315	228.0	-128588.0	3543.0	106456.0
3	17	29	11	316	229.0	-130564.0	3600.0	104989.0
3	17	29	11	317	230.0	-133964.0	3678.0	103573.0
3	17	29	11	317	231.0	-137708.0	3741.0	103689.0
3	17	29	11	318	232.0	-142398.0	3819.0	103835.0
3	17	29	11	318	233.0	-147744.0	3879.0	103524.0
3	17	29	11	319	234.0	-153321.0	3930.0	106642.0
3	17	29	11	319	235.0	-159597.0	3980.0	109127.0
3	17	29	11	320	236.0	-166384.0	4026.0	110954.0
3	17	29	11	320	237.0	-172746.0	4063.0	111734.0
3	17	29	11	321	238.0	-178919.0	4109.0	110024.0
3	17	29	11	322	239.0	-184791.0	4141.0	109370.0
3	17	29	11	322	240.0	-190391.0	4184.0	109229.0
3	17	29	11	323	241.0	-195861.0	4213.0	111183.0
3	17	29	11	323	242.0	-201701.0	4253.0	113950.0
3	17	29	11	324	243.0	-207757.0	4286.0	115229.0
3	17	29	11	324	244.0	-213988.0	4319.0	117196.0
3	17	29	11	325	245.0	-219894.0	4344.0	120089.0
3	17	29	11	325	246.0	-225796.0	4347.0	123161.0
3	17	29	11	326	247.0	-231108.0	4363.0	124813.0
3	17	29	11	327	248.0	-235796.0	4379.0	127314.0
3	17	29	11	327	249.0	-239673.0	4383.0	129773.0
3	17	29	11	337	250.0	-243166.0	4399.0	130555.0
3	17	29	11	337	251.0	-245812.0	4411.0	132491.0
3	17	29	11	338	252.0	-247311.0	4422.0	133900.0
3	17	29	11	338	253.0	-248821.0	4430.0	138193.0
3	17	29	11	339	254.0	-249132.0	4436.0	141569.0
3	17	29	11	340	255.0	-248785.0	4439.0	146933.0
3	17	29	11	340	0.0	-248229.0	4423.0	151752.0
3	17	29	11	360	1.0	-247217.0	4424.0	156956.0
3	17	29	11	360	2.0	-245184.0	4419.0	161489.0
3	17	29	11	361	3.0	-242954.0	4391.0	165374.0
3	17	29	11	362	4.0	-240476.0	4376.0	167721.0
3	17	29	11	362	5.0	-238290.0	4368.0	167703.0
3	17	29	11	363	6.0	-236301.0	4373.0	173198.0
3	17	29	11	363	7.0	-234506.0	4356.0	187634.0
3	17	29	11	364	8.0	-233006.0	4344.0	195536.0
3	17	29	11	364	9.0	-231530.0	4324.0	208679.0
3	17	29	11	365	10.0	-229981.0	4312.0	218127.0
3	17	29	11	365	11.0	-228937.0	4302.0	216834.0
3	17	29	11	366	12.0	-227945.0	4256.0	231559.0
3	17	29	11	367	13.0	-226961.0	4219.0	251514.0
3	17	29	11	367	14.0	-226517.0	4213.0	258902.0
3	17	29	11	368	15.0	-226704.0	4195.0	239261.0
3	17	29	11	389	16.0	-227499.0	4189.0	187473.0
3	17	29	11	390	17.0	-228409.0	4188.0	148128.0
3	17	29	11	391	18.0	-229186.0	4156.0	125738.0
3	17	29	11	391	19.0	-230018.0	4133.0	113532.0
3	17	29	11	392	20.0	-230429.0	4103.0	106795.0
3	17	29	11	393	21.0	-231157.0	4082.0	103596.0
3	17	29	11	393	22.0	-231807.0	4044.0	105799.0
3	17	29	11	394	23.0	-232419.0	4014.0	110481.0
3	17	29	11	395	24.0	-233147.0	3977.0	118258.0
3	17	29	11	396	25.0	-234441.0	3961.0	127761.0
3	17	29	11	397	26.0	-236377.0	3936.0	136791.0
3	17	29	11	397	27.0	-238774.0	3916.0	144886.0
3	17	29	11	398	28.0	-241082.0	3884.0	151025.0
3	17	29	11	399	29.0	-243750.0	3873.0	154781.0
3	17	29	11	400	30.0	-246420.0	3846.0	157963.0
3	17	29	11	400	31.0	-248300.0	3814.0	162586.0
3	17	29	11	401	32.0	-250317.0	3788.0	167855.0
3	17	29	11	401	33.0	-252509.0	3762.0	174418.0
3	17	29	11	402	34.0	-254989.0	3757.0	182946.0
3	17	29	11	410	35.0	-257411.0	3750.0	195294.0
3	17	29	11	411	36.0	-259802.0	3726.0	209883.0
3	17	29	11	432	37.0	-261586.0	3686.0	228148.0
3	17	29	11	433	38.0	-262678.0	3652.0	247649.0
3	17	29	11	434	39.0	-263621.0	3653.0	262174.0
3	17	29	11	434	40.0	-263144.0	3634.0	271779.0
3	17	29	11	435	41.0	-261978.0	3609.0	277935.0
3	17	29	11	436	42.0	-261111.0	3600.0	277741.0
3	17	29	11	436	43.0	-260380.0	3574.0	275041.0
3	17	29	11	437	44.0	-259639.0	3558.0	275416.0
3	17	29	11	438	45.0	-259293.0	3549.0	274687.0
3	17	29	11	438	46.0	-258611.0	3537.0	273776.0
3	17	29	11	439	47.0	-257569.0	3526.0	272158.0
3	17	29	11	439	48.0	-256481.0	3494.0	272084.0
3	17	29	11	440	49.0	-255130.0	3486.0	270753.0
3	17	29	11	440	50.0	-253826.0	3459.0	269871.0
3	17	29	11	441	51.0	-252365.0	3454.0	270908.0
3	17	29	11	442	52.0	-250669.0	3439.0	273405.0
3	17	29	11	455	53.0	-248586.0	3426.0	274678.0
3	17	29	11	455	54.0	-246684.0	3409.0	278605.0
3	17	29	11	456	55.0	-244321.0	3388.0	280749.0
3	17	29	11	457	56.0	-241839.0	3356.0	280318.0
3	17	29	11	457	57.0	-239561.0	3364.0	278464.0
3	17	29	11	458	58.0	-237201.0	3353.0	276795.0
3	17	29	11	458	59.0	-234664.0	3326.0	276919.0
3	17	29	11	459	60.0	-232165.0	3321.0	276946.0
3	17	29	11	459	61.0	-229976.0	3297.0	277283.0
3	17	29	11	478	62.0	-227799.0	3275.0	277249.0
3	17	29	11	478	63.0	-226254.0	3273.0	277198.0
3	17	29	11	479	64.0	-225569.0	3254.0	277190.0
3	17	29	11	480	65.0	-225607.0	3240.0	276268.0
3	17	29	11	480	66.0	-225812.0	3223.0	278019.0
3	17	29	11	481	67.0	-226399.0	3183.0	279773.0
3	17	29	11	482	68.0	-227734.0	3180.0	281256.0
3	17	29	11	483	69.0	-228859.0	3162.0	282158.0
3	17	29	11	483	70.0	-230222.0	3141.0	283666.0
3	17	29	11	484	71.0	-231309.0	3119.0	283364.0
3	17	29	11	484	72.0	-232046.0	3098.0	282529.0
3	17	29	11	485	73.0	-233454.0	3067.0	281873.0
3	17	29	11	486	74.0	-234022.0	3036.0	282782.0
3	17	29	11	486	75.0	-234251.0	3004.0	284009.0
3	17	29	11	487	76.0	-234242.0	2993.0	286009.0
3	17	29	11	500	77.0	-234097.0	2974.0	287816.0
3	17	29	11	501	78.0	-234117.0	2949.0	287676.0
3	17	29	11	501	79.0	-233901.0	2911.0	289114.0
3	17	29	11	502	80.0	-233215.0	2891.0	290266.0
3	17	29	11	502	81.0	-232816.0	2863.0	290363.0
3	17	29	11	523	82.0	-232393.0	2832.0	291044.0
3	17	29	11	524	83.0	-231899.0	2798.0	290948.0
3	17	29	11	524	84.0	-230861.0	2778.0	292308.0
3	17	29	11	525	85.0	-229415.0	2745.0	293599.0
3	17	29	11	526	86.0	-227917.0	2705.0	294780.0
3	17	29	11	526	87.0	-226462.0	2680.0	296604.0
3	17	29	11	527	88.0	-225359.0	2643.0	298225.0
3	17	29	11	528	89.0	-224877.0	2601.0	298579.0
3	17	29	11	528	90.0	-225094.0	2556.0	291210.0
3	17	29	11	529	91.0	-225848.0	2516.0	284960.0
3	17	29	11	530	92.0	-227213.0	2475.0	289839.0
3	17	29	11	530	93.0	-228874.0	2418.0	294929.0
3	17	29	11	531	94.0	-230684.0	2364.0	296818.0
3	17	29	11	532	95.0	-232034.0	2320.0	298054.0
3	17	29	11	532	96.0	-232774.0	2289.0	298159.0
3	17	29	11	533	97.0	-232893.0	2249.0	299586.0
3	17	29	11	534	98.0	-232696.0	2193.0	299450.0
3	17	29	11	534	99.0	-232114.0	2156.0	299433.0
3	17	29	11	535	100.0	-231053.0	2097.0	301248.0
