3	18	7	32	711	199.0	-158284.0	-355880.0	-15970.0
3	18	7	32	713	200.0	-158732.0	-363391.0	-13132.0
3	18	7	32	716	201.0	-159171.0	-372027.0	-8292.0
3	18	7	32	718	202.0	-159722.0	-379374.0	-1181.0
3	18	7	32	720	203.0	-160171.0	-387506.0	1729.0
3	18	7	32	721	204.0	-160185.0	-395504.0	1086.0
3	18	7	32	723	205.0	-160296.0	-403919.0	-4987.0
3	18	7	32	725	206.0	-160599.0	-413152.0	-8982.0
3	18	7	32	726	207.0	-160908.0	-421729.0	-9808.0
3	18	7	32	727	208.0	-161157.0	-430251.0	-7191.0
3	18	7	32	728	209.0	-161357.0	-438517.0	-3421.0
3	18	7	32	729	210.0	-161672.0	-444046.0	-948.0
3	18	7	32	738	211.0	-162071.0	-446392.0	3448.0
3	18	7	32	739	212.0	-162461.0	-449772.0	12480.0
3	18	7	32	739	213.0	-162562.0	-454972.0	16583.0
3	18	7	32	740	214.0	-162484.0	-459189.0	14291.0
3	18	7	32	740	215.0	-162437.0	-466106.0	8731.0
3	18	7	32	741	216.0	-162406.0	-474084.0	2558.0
3	18	7	32	742	217.0	-162189.0	-481277.0	340.0
3	18	7	32	767	218.0	-162019.0	-488247.0	1161.0
3	18	7	32	767	219.0	-161844.0	-496009.0	641.0
3	18	7	32	768	220.0	-161622.0	-504097.0	2546.0
3	18	7	32	769	221.0	-161436.0	-511778.0	7216.0
3	18	7	32	769	222.0	-161316.0	-517574.0	12279.0
3	18	7	32	816	223.0	-161241.0	-523667.0	13879.0
3	18	7	32	817	224.0	-161350.0	-530127.0	9459.0
3	18	7	32	817	225.0	-161582.0	-533937.0	2477.0
3	18	7	32	818	226.0	-161786.0	-537726.0	-1419.0
3	18	7	32	819	227.0	-161902.0	-541928.0	-1408.0
3	18	7	32	819	228.0	-162167.0	-548519.0	-993.0
3	18	7	32	820	229.0	-162239.0	-565133.0	-561.0
3	18	7	32	820	230.0	-162042.0	-576098.0	4.0
3	18	7	32	821	231.0	-161849.0	-579684.0	3034.0
3	18	7	32	822	232.0	-161723.0	-578639.0	8374.0
3	18	7	32	822	233.0	-161703.0	-567281.0	7419.0
3	18	7	32	823	234.0	-161706.0	-551121.0	3263.0
3	18	7	32	824	235.0	-161925.0	-543443.0	-2942.0
3	18	7	32	824	236.0	-162147.0	-539098.0	-9472.0
3	18	7	32	825	237.0	-162071.0	-523114.0	-11021.0
3	18	7	32	825	255.0	-158934.0	-451022.0	-19659.0
3	18	7	32	826	0.0	-159089.0	-450977.0	-22858.0
3	18	7	32	827	1.0	-159207.0	-452973.0	-23811.0
3	18	7	32	827	2.0	-159203.0	-456769.0	-21856.0
3	18	7	32	828	3.0	-159150.0	-463934.0	-20264.0
3	18	7	32	828	4.0	-159740.0	-471651.0	-17896.0
3	18	7	32	859	5.0	-160227.0	-478519.0	-13227.0
3	18	7	32	860	6.0	-160237.0	-481142.0	-8367.0
3	18	7	32	871	7.0	-160454.0	-484847.0	-6482.0
3	18	7	32	872	8.0	-160569.0	-493008.0	-7781.0
3	18	7	32	873	9.0	-160304.0	-497813.0	-11221.0
3	18	7	32	873	10.0	-159926.0	-503594.0	-12665.0
3	18	7	32	874	11.0	-159372.0	-511230.0	-12278.0
3	18	7	32	874	12.0	-159524.0	-518964.0	-11516.0
3	18	7	32	875	13.0	-160151.0	-526346.0	-12376.0
3	18	7	32	876	14.0	-159532.0	-530801.0	-11057.0
3	18	7	32	876	15.0	-159190.0	-524227.0	-6554.0
3	18	7	32	877	16.0	-159207.0	-509796.0	-1669.0
3	18	7	32	877	17.0	-159550.0	-502449.0	440.0
3	18	7	32	878	18.0	-159258.0	-506021.0	-1417.0
3	18	7	32	878	19.0	-158935.0	-508344.0	-4357.0
3	18	7	32	879	21.0	-159069.0	-500856.0	-7118.0
3	18	7	32	879	22.0	-159267.0	-494464.0	-7311.0
3	18	7	32	880	23.0	-159122.0	-484027.0	-8709.0
3	18	7	32	880	24.0	-159330.0	-479539.0	-8597.0
3	18	7	32	881	25.0	-160325.0	-479922.0	-5503.0
3	18	7	32	881	26.0	-161044.0	-481646.0	-1983.0
3	18	7	32	882	27.0	-161455.0	-481881.0	-1137.0
3	18	7	32	905	28.0	-161827.0	-480392.0	-3367.0
3	18	7	32	905	29.0	-160933.0	-486651.0	-8058.0
3	18	7	32	906	30.0	-159774.0	-494392.0	-10250.0
3	18	7	32	907	31.0	-160412.0	-497096.0	-9663.0
3	18	7	32	907	32.0	-160954.0	-492332.0	-8845.0
3	18	7	32	908	33.0	-161285.0	-492566.0	-9019.0
3	18	7	32	908	34.0	-161454.0	-497176.0	-9231.0
3	18	7	32	909	35.0	-161642.0	-498264.0	-5975.0
3	18	7	32	910	36.0	-161264.0	-503887.0	-2894.0
3	18	7	32	910	37.0	-162547.0	-512129.0	-1269.0
3	18	7	32	911	38.0	-162211.0	-514629.0	-2470.0
3	18	7	32	911	39.0	-161001.0	-515774.0	-5882.0
3	18	7	32	912	40.0	-160391.0	-516364.0	-7752.0
3	18	7	32	913	41.0	-160001.0	-520499.0	-8436.0
3	18	7	32	913	42.0	-159587.0	-526922.0	-10217.0
3	18	7	32	914	44.0	-160682.0	-540282.0	-9998.0
3	18	7	32	914	45.0	-160112.0	-545508.0	-6414.0
3	18	7	32	915	46.0	-159710.0	-533372.0	-3228.0
3	18	7	32	916	47.0	-159816.0	-507552.0	-2957.0
3	18	7	32	916	48.0	-159534.0	-500486.0	-4891.0
3	18	7	32	917	49.0	-160484.0	-508695.0	-7701.0
3	18	7	32	949	50.0	-160387.0	-516118.0	-8571.0
3	18	7	32	949	51.0	-160185.0	-520606.0	-7711.0
3	18	7	32	950	52.0	-160333.0	-524502.0	-6675.0
3	18	7	32	950	53.0	-160741.0	-530783.0	-5444.0
3	18	7	32	951	54.0	-160377.0	-539556.0	-3230.0
3	18	7	32	952	55.0	-160274.0	-552807.0	618.0
3	18	7	32	952	56.0	-162923.0	-560768.0	2936.0
3	18	7	32	953	57.0	-162106.0	-566735.0	1471.0
3	18	7	32	953	58.0	-161442.0	-574284.0	-2776.0
3	18	7	32	954	59.0	-161022.0	-583000.0	-6827.0
3	18	7	32	954	60.0	-160788.0	-591270.0	-9207.0
3	18	7	32	955	61.0	-160595.0	-597813.0	-8766.0
3	18	7	32	956	62.0	-159969.0	-604579.0	-7535.0
3	18	7	32	956	63.0	-159458.0	-611472.0	-6323.0
3	18	7	32	957	64.0	-159107.0	-615736.0	-2622.0
3	18	7	32	971	66.0	-158050.0	-615994.0	9471.0
3	18	7	32	971	67.0	-157577.0	-614387.0	12354.0
3	18	7	32	972	68.0	-157055.0	-621894.0	9396.0
3	18	7	32	973	69.0	-157089.0	-629588.0	4165.0
3	18	7	32	973	70.0	-157846.0	-636079.0	1604.0
3	18	7	32	974	71.0	-158029.0	-635547.0	1582.0
3	18	7	32	974	72.0	-158606.0	-634486.0	2823.0
3	18	7	32	995	73.0	-158976.0	-641351.0	5845.0
3	18	7	32	996	74.0	-159391.0	-649316.0	8231.0
3	18	7	32	996	75.0	-159924.0	-656104.0	13568.0
3	18	7	32	997	76.0	-160080.0	-663067.0	19559.0
3	18	7	32	997	77.0	-159615.0	-670042.0	19093.0
3	18	7	32	998	78.0	-158947.0	-676889.0	13424.0
3	18	7	32	999	79.0	-157325.0	-683341.0	6494.0
3	18	7	32	999	80.0	-156450.0	-689824.0	2810.0
3	18	7	33	0	81.0	-156364.0	-626357.0	1884.0
3	18	7	33	1	82.0	-156783.0	-460400.0	3331.0
3	18	7	33	1	83.0	-156007.0	-434951.0	5212.0
3	18	7	33	2	84.0	-158696.0	-434898.0	8394.0
3	18	7	33	3	85.0	-155668.0	-434817.0	16139.0
3	18	7	33	3	86.0	-155348.0	-434701.0	20341.0
3	18	7	33	4	87.0	-155452.0	-434601.0	18281.0
3	18	7	33	4	89.0	-156502.0	-434295.0	5396.0
3	18	7	33	5	90.0	-156466.0	-434144.0	1684.0
3	18	7	33	5	91.0	-156897.0	-433989.0	2821.0
3	18	7	33	6	92.0	-157377.0	-433814.0	3475.0
3	18	7	33	7	93.0	-157599.0	-433591.0	4769.0
3	18	7	33	7	94.0	-157427.0	-433406.0	7979.0
3	18	7	33	39	95.0	-157332.0	-433220.0	15964.0
3	18	7	33	40	96.0	-158128.0	-432937.0	23758.0
3	18	7	33	40	97.0	-159429.0	-432677.0	24418.0
3	18	7	33	41	98.0	-160159.0	-432304.0	17763.0
3	18	7	33	42	99.0	-160547.0	-432014.0	9461.0
3	18	7	33	42	100.0	-160716.0	-431153.0	7319.0
3	18	7	33	43	101.0	-160731.0	-429799.0	6721.0
3	18	7	33	43	102.0	-160869.0	-444419.0	6841.0
3	18	7	33	44	103.0	-160993.0	-473253.0	9321.0
3	18	7	33	45	104.0	-160571.0	-484287.0	16001.0
3	18	7	33	45	105.0	-160429.0	-488129.0	26881.0
3	18	7	33	46	106.0	-160518.0	-497017.0	33819.0
3	18	7	33	47	107.0	-160839.0	-506968.0	34284.0
3	18	7	33	47	108.0	-161714.0	-516471.0	26014.0
3	18	7	33	48	109.0	-162451.0	-525235.0	15569.0
3	18	7	33	48	111.0	-163311.0	-544357.0	13108.0
3	18	7	33	49	112.0	-163568.0	-553939.0	17149.0
3	18	7	33	50	113.0	-163146.0	-562179.0	19029.0
3	18	7	33	50	114.0	-162819.0	-562596.0	22581.0
3	18	7	33	51	115.0	-162256.0	-532729.0	33723.0
3	18	7	33	51	116.0	-161816.0	-535039.0	41540.0
3	18	7	33	84	117.0	-161337.0	-549251.0	40659.0
3	18	7	33	85	118.0	-161081.0	-561691.0	30484.0
3	18	7	33	85	119.0	-160859.0	-574414.0	18837.0
3	18	7	33	86	120.0	-160775.0	-586917.0	13527.0
3	18	7	33	86	121.0	-160795.0	-598879.0	12050.0
3	18	7	33	87	122.0	-160706.0	-609567.0	11347.0
3	18	7	33	88	123.0	-160735.0	-619862.0	11898.0
3	18	7	33	88	124.0	-161038.0	-629466.0	14446.0
3	18	7	33	89	125.0	-160672.0	-630436.0	24011.0
3	18	7	33	89	126.0	-159994.0	-634476.0	30696.0
3	18	7	33	90	127.0	-160392.0	-634041.0	26929.0
3	18	7	33	91	128.0	-160811.0	-625191.0	14799.0
3	18	7	33	91	129.0	-161408.0	-593662.0	2084.0
3	18	7	33	92	130.0	-161804.0	-591995.0	-4252.0
3	18	7	33	92	131.0	-162454.0	-597232.0	-5814.0
3	18	7	33	93	134.0	-163106.0	-555114.0	-1342.0
3	18	7	33	94	135.0	-162819.0	-530053.0	9638.0
3	18	7	33	94	136.0	-162571.0	-519601.0	14737.0
3	18	7	33	95	137.0	-162573.0	-469384.0	11153.0
3	18	7	33	95	138.0	-162435.0	-420974.0	1244.0
3	18	7	33	96	139.0	-162081.0	-413416.0	-10042.0
3	18	7	33	129	140.0	-161869.0	-411879.0	-16256.0
3	18	7	33	129	141.0	-161661.0	-408062.0	-17289.0
3	18	7	33	130	142.0	-161458.0	-410687.0	-15771.0
3	18	7	33	131	143.0	-161437.0	-409408.0	-13246.0
3	18	7	33	131	144.0	-161401.0	-408673.0	-10526.0
3	18	7	33	132	145.0	-161171.0	-407939.0	-1340.0
3	18	7	33	132	146.0	-160125.0	-407263.0	3251.0
3	18	7	33	133	147.0	-161329.0	-406650.0	-2209.0
3	18	7	33	134	148.0	-161406.0	-405979.0	-12810.0
3	18	7	33	134	149.0	-161666.0	-405349.0	-21777.0
3	18	7	33	135	150.0	-161832.0	-406866.0	-25156.0
3	18	7	33	135	151.0	-161752.0	-405716.0	-24174.0
3	18	7	33	136	152.0	-160891.0	-403224.0	-22069.0
3	18	7	33	136	153.0	-161404.0	-402521.0	-19156.0
3	18	7	33	137	154.0	-162067.0	-401787.0	-13541.0
3	18	7	33	138	156.0	-161966.0	-400269.0	4066.0
3	18	7	33	175	157.0	-161699.0	-399030.0	3380.0
3	18	7	33	176	158.0	-161323.0	-395033.0	-6114.0
3	18	7	33	176	159.0	-160931.0	-396727.0	-15639.0
3	18	7	33	177	160.0	-161177.0	-410529.0	-19679.0
3	18	7	33	177	161.0	-161482.0	-426231.0	-17694.0
3	18	7	33	178	162.0	-162151.0	-435636.0	-15362.0
3	18	7	33	179	163.0	-162556.0	-440635.0	-13231.0
3	18	7	33	179	164.0	-162521.0	-448233.0	-8860.0
3	18	7	33	180	165.0	-162293.0	-449876.0	2154.0
3	18	7	33	180	166.0	-162177.0	-456141.0	10453.0
3	18	7	33	181	167.0	-162248.0	-462974.0	8333.0
3	18	7	33	182	168.0	-162296.0	-464119.0	-1416.0
3	18	7	33	182	169.0	-162634.0	-462131.0	-11661.0
3	18	7	33	183	170.0	-162760.0	-454769.0	-15673.0
3	18	7	33	184	171.0	-163051.0	-447380.0	-16343.0
3	18	7	33	185	178.0	-161882.0	-390294.0	3292.0
3	18	7	33	185	179.0	-161686.0	-382839.0	-3194.0
3	18	7	33	186	180.0	-161624.0	-380556.0	-6957.0
3	18	7	33	187	181.0	-161446.0	-375267.0	-6388.0
3	18	7	33	187	182.0	-161498.0	-379765.0	-4679.0
3	18	7	33	188	183.0	-161597.0	-384088.0	-2259.0
3	18	7	33	189	184.0	-161829.0	-391427.0	3809.0
3	18	7	33	220	185.0	-162413.0	-397926.0	13286.0
3	18	7	33	220	186.0	-162828.0	-399714.0	18269.0
3	18	7	33	221	187.0	-163084.0	-397935.0	14963.0
3	18	7	33	221	188.0	-162972.0	-401924.0	6307.0
3	18	7	33	222	189.0	-162796.0	-405604.0	-1729.0
3	18	7	33	223	190.0	-162637.0	-409666.0	-6436.0
3	18	7	33	223	191.0	-162498.0	-397276.0	-7599.0
3	18	7	33	224	192.0	-162420.0	-376595.0	-6776.0
3	18	7	33	224	193.0	-162011.0	-378722.0	-5782.0
3	18	7	33	225	194.0	-161686.0	-369121.0	-2287.0
3	18	7	33	226	195.0	-161606.0	-361226.0	6888.0
3	18	7	33	226	196.0	-161544.0	-363990.0	10588.0
3	18	7	33	227	197.0	-161591.0	-377765.0	6287.0
3	18	7	33	228	198.0	-161712.0	-387121.0	-2921.0
3	18	7	33	228	199.0	-161694.0	-381698.0	-10372.0
3	18	7	33	229	201.0	-161164.0	-384645.0	-14012.0
3	18	7	33	229	202.0	-160536.0	-378957.0	-13177.0
3	18	7	33	230	203.0	-160116.0	-368040.0	-9960.0
3	18	7	33	231	204.0	-159636.0	-363929.0	-4078.0
3	18	7	33	231	205.0	-159314.0	-364318.0	6345.0
3	18	7	33	232	206.0	-159129.0	-362861.0	11268.0
3	18	7	33	264	207.0	-158964.0	-362994.0	8368.0
3	18	7	33	265	208.0	-158746.0	-362341.0	-1138.0
3	18	7	33	266	209.0	-158809.0	-359445.0	-9347.0
3	18	7	33	266	210.0	-158834.0	-354855.0	-12304.0
3	18	7	33	267	211.0	-158948.0	-355469.0	-12890.0
3	18	7	33	310	212.0	-160232.0	-347090.0	-12064.0
3	18	7	33	311	213.0	-161125.0	-351452.0	-9073.0
3	18	7	33	311	214.0	-161257.0	-348948.0	-3288.0
3	18	7	33	312	215.0	-160998.0	-351323.0	4733.0
3	18	7	33	312	216.0	-160805.0	-355516.0	5479.0
3	18	7	33	313	217.0	-160706.0	-354942.0	1047.0
3	18	7	33	314	218.0	-160536.0	-354175.0	-4903.0
3	18	7	33	314	219.0	-160381.0	-353431.0	-9997.0
3	18	7	33	315	220.0	-160396.0	-352704.0	-11520.0
3	18	7	33	316	221.0	-160315.0	-351962.0	-10002.0
3	18	7	33	316	223.0	-160410.0	-350471.0	-5657.0
3	18	7	33	317	224.0	-160326.0	-349736.0	-2460.0
3	18	7	33	317	225.0	-160369.0	-349002.0	2555.0
3	18	7	33	318	226.0	-160451.0	-348254.0	4965.0
3	18	7	33	319	227.0	-160409.0	-347508.0	2154.0
3	18	7	33	319	228.0	-160277.0	-346807.0	-5891.0
3	18	7	33	320	246.0	-159962.0	-336506.0	7178.0
3	18	7	33	320	247.0	-159791.0	-336249.0	5775.0
3	18	7	33	321	248.0	-159439.0	-332084.0	3642.0
3	18	7	33	321	249.0	-159236.0	-328251.0	451.0
3	18	7	33	322	250.0	-159319.0	-331847.0	-2088.0
3	18	7	33	323	251.0	-159343.0	-334659.0	-1342.0
3	18	7	33	323	252.0	-159342.0	-331347.0	1274.0
3	18	7	33	354	253.0	-159401.0	-330100.0	4725.0
3	18	7	33	355	254.0	-159527.0	-328721.0	8637.0
3	18	7	33	356	255.0	-159536.0	-328272.0	14886.0
3	18	7	33	356	0.0	-159597.0	-327623.0	18406.0
3	18	7	33	357	1.0	-159412.0	-326943.0	17812.0
3	18	7	33	357	2.0	-159029.0	-326287.0	13823.0
3	18	7	33	358	3.0	-158485.0	-325642.0	8771.0
3	18	7	33	358	4.0	-157935.0	-324989.0	5722.0
3	18	7	33	359	5.0	-157810.0	-324349.0	5578.0
3	18	7	33	360	6.0	-158547.0	-323719.0	4687.0
3	18	7	33	360	7.0	-159656.0	-323078.0	5754.0
3	18	7	33	361	8.0	-160463.0	-322400.0	10129.0
3	18	7	33	361	9.0	-160683.0	-321761.0	14249.0
3	18	7	33	362	10.0	-160669.0	-321111.0	14772.0
3	18	7	33	362	11.0	-160486.0	-320469.0	11671.0
3	18	7	33	363	12.0	-160449.0	-320000.0	6946.0
3	18	7	33	364	13.0	-160507.0	-319570.0	3108.0
3	18	7	33	364	14.0	-160419.0	-318702.0	2188.0
3	18	7	33	365	15.0	-160517.0	-317975.0	4027.0
3	18	7	33	365	16.0	-160724.0	-317724.0	5442.0
3	18	7	33	366	17.0	-160961.0	-317452.0	6412.0
3	18	7	33	366	18.0	-161297.0	-315934.0	9860.0
3	18	7	33	399	19.0	-161461.0	-315156.0	14102.0
3	18	7	33	400	20.0	-161597.0	-315146.0	15129.0
3	18	7	33	400	21.0	-161527.0	-314779.0	12034.0
3	18	7	33	401	22.0	-161446.0	-313701.0	6169.0
3	18	7	33	401	23.0	-161441.0	-312744.0	3434.0
3	18	7	33	402	24.0	-161200.0	-312102.0	3703.0
3	18	7	33	403	25.0	-161079.0	-311486.0	3585.0
3	18	7	33	403	26.0	-161016.0	-310893.0	5194.0
3	18	7	33	404	27.0	-161042.0	-310261.0	8556.0
3	18	7	33	404	28.0	-161092.0	-309607.0	14514.0
3	18	7	33	405	29.0	-161131.0	-308971.0	19174.0
3	18	7	33	405	30.0	-161065.0	-308364.0	18808.0
3	18	7	33	406	31.0	-161129.0	-307729.0	16799.0
3	18	7	33	407	32.0	-161527.0	-307084.0	13418.0
3	18	7	33	407	33.0	-161389.0	-306465.0	10070.0
3	18	7	33	408	35.0	-160635.0	-305214.0	9646.0
3	18	7	33	408	36.0	-160599.0	-304588.0	12942.0
3	18	7	33	409	37.0	-160521.0	-303967.0	17082.0
3	18	7	33	409	38.0	-160502.0	-303357.0	22413.0
3	18	7	33	410	39.0	-160506.0	-302717.0	27276.0
3	18	7	33	418	40.0	-160532.0	-302094.0	27523.0
3	18	7	33	444	41.0	-160567.0	-301466.0	24059.0
3	18	7	33	444	42.0	-160661.0	-300813.0	20114.0
3	18	7	33	445	43.0	-160791.0	-300191.0	17163.0
3	18	7	33	445	44.0	-161108.0	-299572.0	14806.0
3	18	7	33	446	45.0	-160641.0	-298948.0	13563.0
3	18	7	33	447	46.0	-160254.0	-298326.0	14073.0
3	18	7	33	447	47.0	-160271.0	-297721.0	16307.0
3	18	7	33	448	48.0	-160325.0	-297112.0	20992.0
3	18	7	33	448	49.0	-160237.0	-296479.0	25314.0
3	18	7	33	449	50.0	-160230.0	-295876.0	24297.0
3	18	7	33	450	51.0	-160380.0	-295281.0	19760.0
3	18	7	33	450	52.0	-160449.0	-294676.0	14119.0
3	18	7	33	451	53.0	-160444.0	-294079.0	9681.0
3	18	7	33	451	54.0	-160299.0	-293485.0	8023.0
3	18	7	33	452	55.0	-160389.0	-292892.0	8829.0
3	18	7	33	452	57.0	-160325.0	-291664.0	13174.0
3	18	7	33	453	58.0	-160326.0	-291080.0	17354.0
3	18	7	33	454	59.0	-160459.0	-290459.0	21208.0
3	18	7	33	454	60.0	-160341.0	-289819.0	20919.0
3	18	7	33	455	61.0	-160408.0	-289206.0	16311.0
3	18	7	33	467	62.0	-160487.0	-288601.0	11099.0
3	18	7	33	467	63.0	-160539.0	-287991.0	7824.0
3	18	7	33	490	64.0	-160668.0	-287374.0	6178.0
3	18	7	33	491	65.0	-160882.0	-286756.0	5514.0
3	18	7	33	491	66.0	-160632.0	-286155.0	5808.0
3	18	7	33	493	67.0	-160548.0	-285564.0	7420.0
3	18	7	33	493	68.0	-160645.0	-284985.0	10244.0
3	18	7	33	494	69.0	-160593.0	-284382.0	13068.0
3	18	7	33	494	70.0	-160506.0	-283796.0	12321.0
3	18	7	33	495	71.0	-160518.0	-283237.0	8985.0
3	18	7	33	495	72.0	-160608.0	-282660.0	4623.0
3	18	7	33	496	73.0	-160520.0	-282072.0	2643.0
3	18	7	33	497	74.0	-161019.0	-281491.0	2098.0
3	18	7	33	497	75.0	-160866.0	-280884.0	2571.0
3	18	7	33	498	76.0	-160707.0	-280296.0	5015.0
3	18	7	33	498	77.0	-160106.0	-279764.0	10419.0
3	18	7	33	499	78.0	-159819.0	-279858.0	18197.0
3	18	7	33	499	80.0	-160343.0	-277859.0	23132.0
3	18	7	33	500	81.0	-160286.0	-277336.0	19058.0
3	18	7	33	501	82.0	-160409.0	-276744.0	11927.0
3	18	7	33	501	83.0	-160784.0	-276136.0	8189.0
3	18	7	33	502	84.0	-160604.0	-275537.0	8926.0
3	18	7	33	502	85.0	-161302.0	-274953.0	12333.0
3	18	7	33	534	86.0	-160954.0	-274354.0	15354.0
3	18	7	33	535	87.0	-160853.0	-273766.0	19241.0
3	18	7	33	535	88.0	-160953.0	-273188.0	27286.0
3	18	7	33	536	89.0	-160497.0	-272629.0	33303.0
3	18	7	33	536	90.0	-160534.0	-272072.0	33698.0
3	18	7	33	537	91.0	-160671.0	-271491.0	29289.0
3	18	7	33	537	92.0	-160461.0	-270917.0	23309.0
3	18	7	33	538	93.0	-160622.0	-270352.0	19066.0
3	18	7	33	539	94.0	-160762.0	-269792.0	19094.0
3	18	7	33	539	95.0	-160393.0	-269233.0	22768.0
3	18	7	33	540	96.0	-160381.0	-268661.0	27068.0
3	18	7	33	540	97.0	-160326.0	-268093.0	33475.0
3	18	7	33	541	98.0	-160096.0	-267531.0	43504.0
3	18	7	33	542	99.0	-160113.0	-266983.0	51533.0
3	18	7	33	542	100.0	-160108.0	-266422.0	50409.0
3	18	7	33	543	102.0	-158762.0	-265317.0	35122.0
3	18	7	33	543	103.0	-159011.0	-264760.0	28334.0
3	18	7	33	544	104.0	-159307.0	-264206.0	25753.0
3	18	7	33	545	105.0	-159794.0	-263632.0	28539.0
3	18	7	33	553	106.0	-160291.0	-263061.0	33501.0
3	18	7	33	553	107.0	-160346.0	-262504.0	39009.0
3	18	7	33	554	108.0	-160781.0	-261985.0	49408.0
3	18	7	33	579	109.0	-160872.0	-261412.0	56624.0
3	18	7	33	580	110.0	-160975.0	-260841.0	54993.0
3	18	7	33	580	111.0	-160971.0	-260331.0	45256.0
3	18	7	33	581	112.0	-160852.0	-259814.0	33599.0
3	18	7	33	581	113.0	-160480.0	-259285.0	25303.0
3	18	7	33	582	114.0	-160447.0	-258770.0	21456.0
3	18	7	33	582	115.0	-160283.0	-258252.0	21648.0
3	18	7	33	583	116.0	-160003.0	-257717.0	24817.0
3	18	7	33	584	117.0	-160306.0	-257197.0	29904.0
3	18	7	33	623	118.0	-160569.0	-256678.0	40734.0
3	18	7	33	624	119.0	-160824.0	-256169.0	47838.0
3	18	7	33	625	120.0	-161054.0	-255681.0	44589.0
3	18	7	33	625	121.0	-161204.0	-255161.0	33913.0
3	18	7	33	626	122.0	-161079.0	-254642.0	23078.0
3	18	7	33	626	123.0	-161092.0	-254125.0	15545.0
3	18	7	33	627	125.0	-160626.0	-253078.0	13713.0
3	18	7	33	627	126.0	-160235.0	-252569.0	18134.0
3	18	7	33	628	127.0	-160041.0	-252046.0	24010.0
3	18	7	33	636	128.0	-160008.0	-251490.0	34081.0
3	18	7	33	637	129.0	-159737.0	-250996.0	40153.0
3	18	7	33	637	130.0	-159384.0	-250500.0	37233.0
3	18	7	33	638	131.0	-159333.0	-249986.0	25729.0
3	18	7	33	639	132.0	-159505.0	-249486.0	13306.0
3	18	7	33	639	133.0	-159867.0	-249021.0	6660.0
3	18	7	33	640	134.0	-160343.0	-248520.0	7709.0
3	18	7	33	640	147.0	-160589.0	-242049.0	31286.0
3	18	7	33	641	148.0	-160596.0	-241566.0	40156.0
3	18	7	33	641	149.0	-160331.0	-241081.0	43329.0
3	18	7	33	642	150.0	-159973.0	-240584.0	40134.0
3	18	7	33	642	151.0	-160088.0	-240092.0	31039.0
3	18	7	33	643	152.0	-160424.0	-239591.0	21394.0
3	18	7	33	643	153.0	-160984.0	-239088.0	16338.0
3	18	7	33	669	154.0	-161170.0	-238585.0	14858.0
3	18	7	33	670	155.0	-161680.0	-238060.0	14309.0
3	18	7	33	670	156.0	-161677.0	-237561.0	16666.0
3	18	7	33	671	157.0	-161385.0	-237003.0	22058.0
3	18	7	33	672	158.0	-161542.0	-236289.0	30020.0
3	18	7	33	672	159.0	-161567.0	-235533.0	32725.0
3	18	7	33	673	160.0	-161609.0	-235475.0	28305.0
3	18	7	33	673	161.0	-161747.0	-236707.0	18456.0
3	18	7	33	674	162.0	-161967.0	-236147.0	10176.0
3	18	7	33	674	163.0	-161947.0	-234214.0	5726.0
3	18	7	33	675	164.0	-161711.0	-235225.0	5147.0
3	18	7	33	676	165.0	-162103.0	-233387.0	7361.0
3	18	7	33	676	166.0	-161857.0	-232877.0	8971.0
3	18	7	33	677	167.0	-161434.0	-232477.0	11748.0
3	18	7	33	715	168.0	-161379.0	-231439.0	17921.0
3	18	7	33	716	169.0	-161222.0	-231230.0	19353.0
3	18	7	33	716	170.0	-160944.0	-228584.0	15449.0
3	18	7	33	717	171.0	-160958.0	-231992.0	8654.0
3	18	7	33	717	172.0	-160931.0	-232472.0	4478.0
3	18	7	33	718	173.0	-160492.0	-236154.0	1147.0
3	18	7	33	719	174.0	-160426.0	-238648.0	-244.0
3	18	7	33	719	175.0	-160509.0	-242679.0	943.0
3	18	7	33	720	176.0	-160297.0	-246421.0	4146.0
3	18	7	33	720	177.0	-160295.0	-244683.0	8548.0
3	18	7	33	721	178.0	-160172.0	-237269.0	15498.0
3	18	7	33	721	179.0	-159529.0	-228156.0	18108.0
3	18	7	33	722	180.0	-159670.0	-225664.0	15540.0
3	18	7	33	723	181.0	-160064.0	-234582.0	9663.0
3	18	7	33	723	182.0	-160054.0	-247769.0	5322.0
3	18	7	33	724	192.0	-160213.0	-220450.0	14230.0
3	18	7	33	724	193.0	-159957.0	-219969.0	10040.0
3	18	7	33	725	194.0	-159750.0	-219487.0	9301.0
3	18	7	33	726	195.0	-159937.0	-219003.0	10291.0
3	18	7	33	726	196.0	-159867.0	-218536.0	11051.0
3	18	7	33	727	197.0	-159726.0	-218077.0	12215.0
3	18	7	33	760	198.0	-159917.0	-217623.0	16104.0
3	18	7	33	761	199.0	-160201.0	-217285.0	18343.0
3	18	7	33	762	200.0	-160311.0	-217393.0	17305.0
3	18	7	33	762	201.0	-160277.0	-216999.0	12088.0
3	18	7	33	763	202.0	-160179.0	-216210.0	7054.0
3	18	7	33	763	203.0	-160214.0	-215677.0	4091.0
3	18	7	33	764	204.0	-160241.0	-215056.0	3863.0
3	18	7	33	765	205.0	-160074.0	-214416.0	5350.0
3	18	7	33	765	206.0	-160306.0	-213946.0	7073.0
3	18	7	33	766	207.0	-160531.0	-213409.0	8401.0
3	18	7	33	766	208.0	-160476.0	-212904.0	13242.0
3	18	7	33	767	209.0	-160646.0	-212552.0	13474.0
3	18	7	33	768	210.0	-160855.0	-212559.0	9298.0
3	18	7	33	769	211.0	-160880.0	-212339.0	5031.0
3	18	7	33	804	212.0	-161001.0	-211297.0	18.0
3	18	7	33	805	214.0	-161172.0	-210204.0	-7094.0
3	18	7	33	806	215.0	-161152.0	-209851.0	-8717.0
3	18	7	33	806	216.0	-161098.0	-209759.0	-8282.0
3	18	7	33	807	217.0	-160945.0	-209349.0	-6808.0
3	18	7	33	808	218.0	-160913.0	-208726.0	-4709.0
3	18	7	33	808	219.0	-160949.0	-208135.0	-4488.0
3	18	7	33	809	220.0	-161010.0	-207707.0	-7074.0
3	18	7	33	810	221.0	-161091.0	-207266.0	-11132.0
3	18	7	33	810	222.0	-161289.0	-206768.0	-15644.0
3	18	7	33	811	223.0	-161344.0	-206330.0	-18643.0
3	18	7	33	812	224.0	-161238.0	-206023.0	-18402.0
3	18	7	33	812	225.0	-161257.0	-205514.0	-17837.0
3	18	7	33	813	226.0	-161359.0	-205069.0	-15719.0
3	18	7	33	813	227.0	-161222.0	-204654.0	-13522.0
3	18	7	33	814	237.0	-159938.0	-200475.0	-22204.0
3	18	7	33	815	238.0	-159954.0	-200091.0	-21128.0
3	18	7	33	815	239.0	-159912.0	-199618.0	-21029.0
3	18	7	33	816	240.0	-159808.0	-199162.0	-22549.0
3	18	7	33	816	241.0	-159797.0	-198787.0	-25384.0
3	18	7	33	817	242.0	-159891.0	-198374.0	-26392.0
3	18	7	33	850	243.0	-159911.0	-197890.0	-25360.0
3	18	7	33	850	244.0	-159737.0	-197414.0	-22553.0
3	18	7	33	851	245.0	-159756.0	-196920.0	-21132.0
3	18	7	33	852	246.0	-159952.0	-196607.0	-19159.0
3	18	7	33	852	247.0	-159799.0	-196229.0	-15747.0
3	18	7	33	853	248.0	-159774.0	-195819.0	-12536.0
3	18	7	33	853	249.0	-160079.0	-195374.0	-11536.0
3	18	7	33	854	250.0	-160133.0	-194971.0	-12387.0
3	18	7	33	855	251.0	-160218.0	-194547.0	-15597.0
3	18	7	33	855	252.0	-160773.0	-194145.0	-19157.0
3	18	7	33	856	253.0	-160765.0	-193749.0	-21493.0
3	18	7	33	856	254.0	-160230.0	-193326.0	-22151.0
3	18	7	33	857	255.0	-160332.0	-192906.0	-22042.0
3	18	7	33	858	0.0	-160619.0	-192492.0	-20894.0
3	18	7	33	858	1.0	-160771.0	-192068.0	-20152.0
3	18	7	33	859	3.0	-160893.0	-191291.0	-17072.0
3	18	7	33	859	4.0	-160691.0	-190861.0	-17637.0
3	18	7	33	860	5.0	-160574.0	-190414.0	-19184.0
3	18	7	33	861	6.0	-160603.0	-190049.0	-22572.0
3	18	7	33	861	7.0	-160493.0	-189614.0	-25618.0
3	18	7	33	862	8.0	-160527.0	-189136.0	-23307.0
3	18	7	33	862	9.0	-160696.0	-188710.0	-20655.0
3	18	7	33	940	10.0	-160736.0	-188322.0	-17262.0
3	18	7	33	941	11.0	-160770.0	-187865.0	-12711.0
3	18	7	33	942	12.0	-160803.0	-187463.0	-7722.0
3	18	7	33	942	13.0	-160732.0	-187057.0	-5021.0
3	18	7	33	943	14.0	-160665.0	-186654.0	-5139.0
3	18	7	33	943	15.0	-160671.0	-186257.0	-7134.0
3	18	7	33	944	16.0	-160752.0	-185879.0	-10204.0
3	18	7	33	945	17.0	-160666.0	-185476.0	-11337.0
3	18	7	33	945	18.0	-160487.0	-185072.0	-8995.0
3	18	7	33	946	19.0	-160361.0	-184657.0	-6979.0
3	18	7	33	946	20.0	-160310.0	-184252.0	-3829.0
3	18	7	33	947	21.0	-160173.0	-183867.0	-466.0
3	18	7	33	948	22.0	-159951.0	-183496.0	2258.0
3	18	7	33	948	23.0	-159795.0	-183064.0	3388.0
3	18	7	33	949	24.0	-159856.0	-182622.0	1699.0
3	18	7	33	949	48.0	-160634.0	-173201.0	-5900.0
3	18	7	33	950	49.0	-160532.0	-172836.0	-4071.0
3	18	7	33	951	50.0	-160546.0	-172414.0	-1633.0
3	18	7	33	951	51.0	-160877.0	-172022.0	2926.0
3	18	7	33	952	52.0	-161092.0	-171636.0	6243.0
3	18	7	33	952	53.0	-161339.0	-171281.0	6683.0
3	18	7	33	953	54.0	-161197.0	-170898.0	4813.0
3	18	7	33	985	55.0	-161031.0	-170486.0	1146.0
3	18	7	33	986	56.0	-161184.0	-170097.0	-1431.0
3	18	7	33	987	57.0	-161399.0	-169726.0	-2261.0
3	18	7	33	987	58.0	-161375.0	-169442.0	-1986.0
3	18	7	33	988	59.0	-161372.0	-168961.0	-1647.0
3	18	7	33	988	60.0	-161496.0	-168714.0	-349.0
3	18	7	33	989	61.0	-161519.0	-168460.0	2606.0
3	18	7	33	990	62.0	-161500.0	-167881.0	6076.0
3	18	7	33	990	63.0	-161434.0	-167689.0	5258.0
3	18	7	33	991	64.0	-161297.0	-167356.0	2284.0
3	18	7	33	992	65.0	-161096.0	-166933.0	-554.0
3	18	7	33	992	66.0	-160919.0	-166680.0	-1949.0
3	18	7	33	993	67.0	-160764.0	-166329.0	-1973.0
3	18	7	33	993	68.0	-160669.0	-166046.0	-1144.0
3	18	7	33	994	69.0	-160434.0	-165684.0	-759.0
3	18	7	33	995	71.0	-160338.0	-165029.0	10713.0
3	18	7	33	995	72.0	-160361.0	-164724.0	18917.0
3	18	7	33	996	73.0	-160332.0	-164349.0	22566.0
3	18	7	33	996	74.0	-160222.0	-163989.0	18736.0
3	18	7	33	997	75.0	-160151.0	-163739.0	11961.0
3	18	7	33	998	76.0	-160080.0	-163298.0	8108.0
3	18	7	34	29	77.0	-160066.0	-162911.0	6539.0
3	18	7	34	30	78.0	-160067.0	-162592.0	6206.0
3	18	7	34	30	79.0	-160141.0	-162260.0	7514.0
3	18	7	34	31	80.0	-160180.0	-161928.0	11088.0
3	18	7	34	32	81.0	-160220.0	-161617.0	18111.0
3	18	7	34	32	82.0	-160225.0	-161280.0	25401.0
3	18	7	34	33	83.0	-160231.0	-160978.0	25873.0
3	18	7	34	34	84.0	-160412.0	-160666.0	18659.0
3	18	7	34	34	85.0	-160426.0	-160345.0	10873.0
3	18	7	34	35	86.0	-160373.0	-160044.0	7428.0
3	18	7	34	36	87.0	-160287.0	-159742.0	6834.0
3	18	7	34	37	88.0	-160269.0	-159399.0	7573.0
3	18	7	34	38	89.0	-160130.0	-159067.0	8187.0
3	18	7	34	39	90.0	-160038.0	-158730.0	10158.0
3	18	7	34	39	91.0	-160049.0	-158453.0	16439.0
3	18	7	34	40	93.0	-160412.0	-157748.0	20561.0
3	18	7	34	40	94.0	-160656.0	-157460.0	16068.0
3	18	7	34	41	95.0	-160839.0	-157094.0	9803.0
3	18	7	34	42	96.0	-160864.0	-156795.0	5873.0
3	18	7	34	42	97.0	-160849.0	-156416.0	4771.0
3	18	7	34	43	98.0	-160997.0	-155927.0	4841.0
3	18	7	34	43	99.0	-161024.0	-155707.0	6056.0
3	18	7	34	74	100.0	-160864.0	-155416.0	8678.0
3	18	7	34	75	101.0	-160797.0	-155236.0	14504.0
3	18	7	34	76	102.0	-160860.0	-154756.0	20268.0
3	18	7	34	76	103.0	-160908.0	-154362.0	20142.0
3	18	7	34	77	104.0	-161028.0	-154160.0	15158.0
3	18	7	34	77	105.0	-161044.0	-153907.0	9864.0
3	18	7	34	78	106.0	-161016.0	-153181.0	6302.0
3	18	7	34	79	107.0	-161084.0	-154717.0	4388.0
3	18	7	34	79	108.0	-161024.0	-152449.0	4949.0
3	18	7	34	80	109.0	-160921.0	-148769.0	5682.0
3	18	7	34	81	110.0	-160891.0	-144412.0	9126.0
3	18	7	34	81	111.0	-160870.0	-151872.0	15071.0
3	18	7	34	82	112.0	-160779.0	-152110.0	18455.0
3	18	7	34	82	113.0	-160681.0	-151731.0	18626.0
3	18	7	34	83	114.0	-160669.0	-151849.0	14084.0
3	18	7	34	84	116.0	-160542.0	-151394.0	2813.0
3	18	7	34	84	117.0	-160446.0	-149223.0	1109.0
3	18	7	34	85	118.0	-160264.0	-152345.0	528.0
3	18	7	34	85	119.0	-160246.0	-152834.0	458.0
3	18	7	34	86	120.0	-160309.0	-152302.0	1246.0
3	18	7	34	87	121.0	-160446.0	-152675.0	6351.0
3	18	7	34	119	122.0	-160427.0	-152073.0	11437.0
3	18	7	34	120	123.0	-160352.0	-150327.0	11764.0
3	18	7	34	121	124.0	-160377.0	-150989.0	6580.0
3	18	7	34	122	125.0	-160467.0	-151372.0	164.0
3	18	7	34	122	126.0	-160497.0	-151350.0	-3835.0
3	18	7	34	123	127.0	-160466.0	-147552.0	-5386.0
3	18	7	34	124	128.0	-160446.0	-146556.0	-3690.0
3	18	7	34	124	129.0	-160416.0	-150507.0	-62.0
3	18	7	34	125	130.0	-160461.0	-151856.0	1414.0
3	18	7	34	126	131.0	-160429.0	-154928.0	5522.0
3	18	7	34	127	132.0	-160380.0	-159442.0	8874.0
3	18	7	34	127	133.0	-159957.0	-157887.0	8211.0
3	18	7	34	128	134.0	-160299.0	-153769.0	3394.0
3	18	7	34	128	135.0	-161266.0	-149621.0	-3466.0
3	18	7	34	129	136.0	-161101.0	-150680.0	-7904.0
3	18	7	34	130	138.0	-160732.0	-152643.0	-10028.0
3	18	7	34	130	139.0	-160674.0	-153526.0	-8338.0
3	18	7	34	131	140.0	-160564.0	-147717.0	-6191.0
3	18	7	34	132	141.0	-160527.0	-145697.0	-1931.0
3	18	7	34	132	142.0	-160589.0	-144147.0	570.0
3	18	7	34	133	143.0	-160641.0	-144794.0	-1226.0
3	18	7	34	165	144.0	-160697.0	-146281.0	-6266.0
3	18	7	34	180	145.0	-160665.0	-144424.0	-14034.0
3	18	7	34	180	146.0	-160729.0	-144379.0	-17377.0
3	18	7	34	181	147.0	-160859.0	-146779.0	-16261.0
3	18	7	34	181	148.0	-160857.0	-143101.0	-15324.0
3	18	7	34	182	149.0	-160743.0	-140958.0	-12912.0
3	18	7	34	183	150.0	-160737.0	-140494.0	-7879.0
3	18	7	34	183	151.0	-160740.0	-140753.0	-1516.0
3	18	7	34	184	152.0	-160732.0	-142523.0	839.0
3	18	7	34	184	153.0	-160835.0	-139968.0	-1636.0
3	18	7	34	185	154.0	-160933.0	-139541.0	-8385.0
3	18	7	34	185	155.0	-160939.0	-139616.0	-15377.0
3	18	7	34	186	156.0	-160860.0	-138169.0	-19961.0
3	18	7	34	186	157.0	-160674.0	-138334.0	-19351.0
3	18	7	34	187	158.0	-160513.0	-137774.0	-17143.0
3	18	7	34	188	161.0	-160541.0	-142477.0	-5697.0
3	18	7	34	188	162.0	-160585.0	-139484.0	-222.0
3	18	7	34	189	163.0	-160546.0	-138134.0	401.0
3	18	7	34	189	164.0	-160489.0	-138417.0	-4993.0
3	18	7	34	190	165.0	-160368.0	-141729.0	-9581.0
3	18	7	34	190	166.0	-160261.0	-141869.0	-12529.0
3	18	7	34	209	167.0	-160233.0	-136410.0	-12239.0
3	18	7	34	210	168.0	-160267.0	-134896.0	-10896.0
3	18	7	34	210	169.0	-160199.0	-133614.0	-7314.0
3	18	7	34	211	170.0	-160133.0	-133949.0	-2393.0
3	18	7	34	212	171.0	-159902.0	-134307.0	5229.0
3	18	7	34	212	172.0	-159853.0	-134303.0	7947.0
3	18	7	34	213	173.0	-159929.0	-133003.0	6384.0
3	18	7	34	214	174.0	-160119.0	-132681.0	1067.0
3	18	7	34	215	175.0	-160471.0	-132473.0	-5064.0
3	18	7	34	215	176.0	-160014.0	-133684.0	-9154.0
3	18	7	34	216	177.0	-159680.0	-133496.0	-9013.0
3	18	7	34	216	178.0	-160081.0	-135301.0	-7214.0
3	18	7	34	217	179.0	-162234.0	-132413.0	-4167.0
3	18	7	34	218	180.0	-160576.0	-130279.0	-496.0
3	18	7	34	218	181.0	-159272.0	-130542.0	3986.0
3	18	7	34	219	183.0	-158624.0	-128884.0	4559.0
3	18	7	34	220	184.0	-158551.0	-129272.0	1282.0
3	18	7	34	220	185.0	-158537.0	-129745.0	307.0
3	18	7	34	221	186.0	-158529.0	-129857.0	556.0
3	18	7	34	222	187.0	-159223.0	-129558.0	420.0
3	18	7	34	223	188.0	-159851.0	-127503.0	1244.0
3	18	7	34	223	189.0	-160395.0	-127896.0	1239.0
3	18	7	34	224	190.0	-160524.0	-130051.0	2526.0
3	18	7	34	255	191.0	-160174.0	-124814.0	5789.0
3	18	7	34	256	192.0	-159887.0	-128926.0	8033.0
3	18	7	34	256	193.0	-159749.0	-131069.0	7032.0
3	18	7	34	257	194.0	-159852.0	-128729.0	4688.0
3	18	7	34	258	195.0	-159419.0	-127614.0	3264.0
3	18	7	34	259	196.0	-158675.0	-128429.0	3390.0
3	18	7	34	260	197.0	-159355.0	-126729.0	3404.0
3	18	7	34	261	198.0	-160097.0	-127022.0	4316.0
3	18	7	34	261	199.0	-160614.0	-127194.0	5503.0
3	18	7	34	262	200.0	-160662.0	-127922.0	6399.0
3	18	7	34	263	201.0	-160705.0	-121701.0	9226.0
3	18	7	34	264	202.0	-160660.0	-121002.0	11038.0
3	18	7	34	265	203.0	-160374.0	-131373.0	10666.0
3	18	7	34	265	204.0	-160082.0	-138802.0	9584.0
3	18	7	34	266	205.0	-160076.0	-137872.0	8671.0
3	18	7	34	267	206.0	-160194.0	-136433.0	8253.0
3	18	7	34	267	207.0	-160454.0	-134647.0	8402.0
3	18	7	34	268	208.0	-160476.0	-131078.0	9014.0
3	18	7	34	268	209.0	-160381.0	-131318.0	12281.0
3	18	7	34	269	210.0	-160366.0	-133242.0	16669.0
3	18	7	34	270	211.0	-160514.0	-131251.0	19868.0
3	18	7	34	300	212.0	-160672.0	-126082.0	21708.0
3	18	7	34	301	213.0	-160829.0	-128474.0	23114.0
3	18	7	34	301	214.0	-161081.0	-132996.0	23519.0
3	18	7	34	302	215.0	-161197.0	-131859.0	22894.0
3	18	7	34	303	216.0	-161216.0	-133864.0	23128.0
3	18	7	34	304	217.0	-161208.0	-137157.0	23486.0
3	18	7	34	304	218.0	-161187.0	-137632.0	23693.0
3	18	7	34	305	219.0	-161250.0	-138754.0	23991.0
3	18	7	34	305	220.0	-161291.0	-133112.0	25145.0
3	18	7	34	306	221.0	-161216.0	-126912.0	26488.0
3	18	7	34	307	222.0	-161152.0	-124962.0	27666.0
3	18	7	34	307	223.0	-161187.0	-126662.0	24907.0
3	18	7	34	308	224.0	-161267.0	-130595.0	22637.0
3	18	7	34	309	225.0	-161349.0	-133862.0	20199.0
3	18	7	34	309	226.0	-161322.0	-133422.0	17321.0
3	18	7	34	310	228.0	-161421.0	-112596.0	17903.0
3	18	7	34	310	229.0	-161196.0	-111030.0	18711.0
3	18	7	34	311	230.0	-161911.0	-114842.0	20480.0
3	18	7	34	312	231.0	-162522.0	-117091.0	21986.0
3	18	7	34	312	232.0	-162452.0	-118857.0	22773.0
3	18	7	34	313	233.0	-162338.0	-117908.0	21440.0
3	18	7	34	343	234.0	-162254.0	-112674.0	19485.0
3	18	7	34	344	235.0	-162145.0	-113306.0	17363.0
3	18	7	34	345	236.0	-162232.0	-113586.0	15949.0
3	18	7	34	346	237.0	-162149.0	-118579.0	16076.0
3	18	7	34	347	238.0	-162366.0	-124949.0	16180.0
3	18	7	34	347	239.0	-162257.0	-115666.0	16098.0
3	18	7	34	348	240.0	-162231.0	-113245.0	14781.0
3	18	7	34	349	241.0	-162108.0	-113164.0	16156.0
3	18	7	34	349	242.0	-162034.0	-112916.0	18196.0
3	18	7	34	350	243.0	-161969.0	-112666.0	16550.0
3	18	7	34	351	244.0	-161924.0	-112439.0	13486.0
3	18	7	34	351	245.0	-162004.0	-112226.0	11209.0
3	18	7	34	352	246.0	-161930.0	-112004.0	10251.0
3	18	7	34	353	247.0	-161728.0	-112364.0	8890.0
3	18	7	34	354	248.0	-161647.0	-112728.0	8439.0
3	18	7	34	354	250.0	-161522.0	-111135.0	7065.0
3	18	7	34	355	251.0	-161226.0	-110932.0	6063.0
3	18	7	34	356	252.0	-161007.0	-110701.0	5391.0
3	18	7	34	356	253.0	-160730.0	-110458.0	5278.0
3	18	7	34	357	254.0	-160584.0	-110220.0	4725.0
3	18	7	34	357	255.0	-160363.0	-109982.0	3521.0
3	18	7	34	358	0.0	-160207.0	-109724.0	3028.0
3	18	7	34	390	1.0	-160342.0	-109509.0	2941.0
3	18	7	34	411	2.0	-160404.0	-111297.0	2798.0
3	18	7	34	412	3.0	-160325.0	-112975.0	5255.0
3	18	7	34	413	4.0	-160125.0	-109025.0	5704.0
3	18	7	34	413	5.0	-159994.0	-108562.0	7698.0
3	18	7	34	414	6.0	-160014.0	-108565.0	9564.0
3	18	7	34	415	7.0	-160022.0	-108432.0	11639.0
3	18	7	34	415	8.0	-159833.0	-108097.0	12591.0
3	18	7	34	416	9.0	-159712.0	-108859.0	10373.0
3	18	7	34	416	10.0	-159694.0	-108408.0	9477.0
3	18	7	34	417	11.0	-159730.0	-107950.0	10949.0
3	18	7	34	417	12.0	-159787.0	-108060.0	11422.0
3	18	7	34	418	13.0	-159864.0	-108235.0	11365.0
3	18	7	34	419	14.0	-159801.0	-108268.0	11876.0
3	18	7	34	419	15.0	-159792.0	-106544.0	11898.0
3	18	7	34	420	17.0	-160067.0	-107118.0	11570.0
3	18	7	34	420	18.0	-160191.0	-106536.0	12199.0
3	18	7	34	421	19.0	-160227.0	-106559.0	10199.0
3	18	7	34	422	20.0	-160259.0	-106209.0	7885.0
3	18	7	34	422	21.0	-160203.0	-105367.0	6522.0
3	18	7	34	423	22.0	-160124.0	-105072.0	5853.0
3	18	7	34	435	23.0	-160141.0	-104939.0	5031.0
3	18	7	34	436	24.0	-160209.0	-104737.0	4193.0
3	18	7	34	437	25.0	-160279.0	-104527.0	2749.0
3	18	7	34	437	26.0	-160342.0	-104342.0	1724.0
3	18	7	34	438	27.0	-160244.0	-104151.0	2714.0
3	18	7	34	439	28.0	-160057.0	-103958.0	2702.0
3	18	7	34	440	29.0	-159836.0	-103756.0	471.0
3	18	7	34	440	30.0	-159714.0	-103566.0	-1450.0
3	18	7	34	441	31.0	-159730.0	-103384.0	-2426.0
3	18	7	34	442	32.0	-159816.0	-103192.0	-2777.0
3	18	7	34	442	33.0	-159866.0	-103000.0	-2473.0
3	18	7	34	443	34.0	-159889.0	-102801.0	-4079.0
3	18	7	34	444	35.0	-159991.0	-102269.0	-5914.0
3	18	7	34	445	36.0	-160052.0	-101774.0	-6089.0
3	18	7	34	445	37.0	-159999.0	-102959.0	-7293.0
3	18	7	34	446	39.0	-160039.0	-102137.0	-7701.0
3	18	7	34	447	40.0	-160276.0	-101675.0	-11505.0
3	18	7	34	447	41.0	-160514.0	-101550.0	-11406.0
3	18	7	34	448	42.0	-160139.0	-101411.0	-9291.0
3	18	7	34	448	43.0	-160152.0	-101030.0	-8778.0
3	18	7	34	449	44.0	-160244.0	-100766.0	-9383.0
3	18	7	34	450	45.0	-160457.0	-100629.0	-10290.0
3	18	7	34	479	46.0	-160654.0	-100371.0	-9679.0
3	18	7	34	480	47.0	-160727.0	-100096.0	-8213.0
3	18	7	34	481	48.0	-160811.0	-99898.0	-5357.0
3	18	7	34	482	49.0	-160842.0	-99689.0	-5872.0
3	18	7	34	482	50.0	-160684.0	-99484.0	-9516.0
3	18	7	34	483	51.0	-160557.0	-99270.0	-12134.0
3	18	7	34	484	52.0	-160417.0	-99082.0	-12598.0
3	18	7	34	484	53.0	-160441.0	-98892.0	-13722.0
3	18	7	34	485	54.0	-160461.0	-98717.0	-14781.0
3	18	7	34	485	55.0	-160318.0	-98549.0	-15194.0
3	18	7	34	486	56.0	-160179.0	-98352.0	-15156.0
3	18	7	34	487	57.0	-160236.0	-98151.0	-13326.0
3	18	7	34	487	58.0	-160277.0	-97977.0	-10807.0
3	18	7	34	488	59.0	-160274.0	-97806.0	-10286.0
3	18	7	34	489	60.0	-160320.0	-97629.0	-9935.0
3	18	7	34	489	62.0	-160240.0	-97293.0	-10298.0
3	18	7	34	490	63.0	-160109.0	-97095.0	-8953.0
3	18	7	34	491	64.0	-160028.0	-96861.0	-8800.0
3	18	7	34	491	65.0	-160009.0	-96639.0	-9438.0
3	18	7	34	492	66.0	-159872.0	-96484.0	-8572.0
3	18	7	34	492	67.0	-159777.0	-96272.0	-6967.0
3	18	7	34	523	68.0	-159780.0	-96018.0	-6098.0
3	18	7	34	524	69.0	-159793.0	-95798.0	-7651.0
3	18	7	34	525	70.0	-159852.0	-95667.0	-7419.0
3	18	7	34	526	71.0	-159954.0	-95474.0	-5055.0
3	18	7	34	527	72.0	-159975.0	-95320.0	-3924.0
3	18	7	34	527	73.0	-160112.0	-95136.0	-3827.0
3	18	7	34	528	74.0	-160109.0	-94946.0	-4712.0
3	18	7	34	529	75.0	-160020.0	-94771.0	-4570.0
3	18	7	34	529	76.0	-160061.0	-94602.0	-3214.0
3	18	7	34	530	77.0	-160147.0	-94427.0	-1955.0
3	18	7	34	531	78.0	-160165.0	-94253.0	80.0
3	18	7	34	532	79.0	-160003.0	-94075.0	681.0
3	18	7	34	532	80.0	-159958.0	-93897.0	-212.0
3	18	7	34	533	81.0	-160088.0	-93694.0	-1170.0
3	18	7	34	533	82.0	-160099.0	-93500.0	-1487.0
3	18	7	34	534	84.0	-160108.0	-93132.0	-739.0
3	18	7	34	535	85.0	-160041.0	-92953.0	-532.0
3	18	7	34	535	86.0	-160099.0	-92751.0	845.0
3	18	7	34	536	87.0	-160222.0	-92550.0	2314.0
3	18	7	34	537	88.0	-160322.0	-92366.0	3519.0
3	18	7	34	537	89.0	-160310.0	-92199.0	2568.0
3	18	7	34	538	90.0	-160317.0	-92006.0	2052.0
3	18	7	34	570	91.0	-160437.0	-91825.0	1826.0
3	18	7	34	571	92.0	-160541.0	-91629.0	2683.0
3	18	7	34	572	93.0	-160675.0	-91449.0	4031.0
3	18	7	34	572	94.0	-160722.0	-91300.0	4997.0
3	18	7	34	615	95.0	-160699.0	-91138.0	4003.0
3	18	7	34	616	96.0	-160617.0	-90976.0	5207.0
3	18	7	34	617	97.0	-160611.0	-90828.0	6278.0
3	18	7	34	618	98.0	-160662.0	-90662.0	7706.0
3	18	7	34	618	99.0	-160764.0	-90500.0	7705.0
3	18	7	34	619	100.0	-160747.0	-90337.0	8024.0
3	18	7	34	620	101.0	-160863.0	-90166.0	7978.0
3	18	7	34	620	102.0	-160999.0	-89993.0	9189.0
3	18	7	34	621	103.0	-161009.0	-89825.0	10088.0
3	18	7	34	622	104.0	-161006.0	-89652.0	9837.0
3	18	7	34	622	105.0	-160976.0	-89468.0	9505.0
3	18	7	34	623	107.0	-161011.0	-89091.0	9073.0
3	18	7	34	624	108.0	-160875.0	-88887.0	9702.0
3	18	7	34	624	109.0	-160797.0	-88673.0	8570.0
3	18	7	34	660	110.0	-160795.0	-88500.0	7882.0
3	18	7	34	661	111.0	-160782.0	-88339.0	8051.0
3	18	7	34	661	129.0	-160549.0	-85047.0	14738.0
3	18	7	34	662	130.0	-160514.0	-84915.0	13716.0
3	18	7	34	662	131.0	-160549.0	-84438.0	14356.0
3	18	7	34	663	132.0	-160392.0	-84410.0	15306.0
3	18	7	34	663	133.0	-160299.0	-84295.0	16531.0
3	18	7	34	664	134.0	-160482.0	-83846.0	16703.0
3	18	7	34	665	135.0	-160548.0	-83769.0	17873.0
3	18	7	34	665	136.0	-160517.0	-83647.0	18839.0
3	18	7	34	666	137.0	-160519.0	-84147.0	19594.0
3	18	7	34	666	138.0	-160370.0	-83492.0	18908.0
3	18	7	34	667	139.0	-160238.0	-84587.0	17306.0
3	18	7	34	667	140.0	-160334.0	-83164.0	17358.0
3	18	7	34	668	141.0	-160400.0	-83354.0	17964.0
3	18	7	34	669	152.0	-160591.0	-81829.0	25041.0
3	18	7	34	669	153.0	-160689.0	-81249.0	26144.0
3	18	7	34	670	154.0	-160584.0	-79201.0	25827.0
3	18	7	34	670	155.0	-160839.0	-79771.0	25307.0
3	18	7	34	671	156.0	-160927.0	-79821.0	26181.0
3	18	7	34	671	157.0	-160774.0	-80511.0	26561.0
3	18	7	34	705	158.0	-160494.0	-80289.0	26339.0
3	18	7	34	706	159.0	-160391.0	-79651.0	25029.0
3	18	7	34	706	160.0	-160561.0	-79722.0	23278.0
3	18	7	34	707	161.0	-160757.0	-79282.0	22530.0
3	18	7	34	707	162.0	-160661.0	-79279.0	22132.0
3	18	7	34	708	163.0	-160571.0	-79341.0	21278.0
3	18	7	34	709	164.0	-160507.0	-79001.0	22277.0
3	18	7	34	709	165.0	-160497.0	-78848.0	22928.0
3	18	7	34	710	166.0	-160418.0	-78622.0	22049.0
3	18	7	34	710	167.0	-160361.0	-78333.0	21529.0
3	18	7	34	711	168.0	-160464.0	-78440.0	20804.0
3	18	7	34	712	169.0	-160530.0	-78231.0	18123.0
3	18	7	34	712	170.0	-160537.0	-78206.0	15035.0
3	18	7	34	713	171.0	-160471.0	-77715.0	13172.0
3	18	7	34	713	172.0	-160442.0	-77887.0	12079.0
3	18	7	34	714	174.0	-160820.0	-78364.0	8944.0
3	18	7	34	714	175.0	-160411.0	-74874.0	6380.0
3	18	7	34	715	176.0	-159986.0	-76130.0	5728.0
3	18	7	34	715	177.0	-159854.0	-75812.0	6269.0
3	18	7	34	716	178.0	-159627.0	-77144.0	5802.0
3	18	7	34	717	179.0	-159455.0	-77181.0	4656.0
3	18	7	34	749	180.0	-159573.0	-76610.0	3824.0
3	18	7	34	774	181.0	-159757.0	-76275.0	2768.0
3	18	7	34	775	182.0	-159946.0	-75994.0	1295.0
3	18	7	34	776	183.0	-159973.0	-75837.0	-1075.0
3	18	7	34	776	184.0	-160595.0	-75769.0	-3130.0
3	18	7	34	777	185.0	-160811.0	-75576.0	-3002.0
3	18	7	34	777	186.0	-160606.0	-75446.0	-3451.0
3	18	7	34	778	187.0	-160525.0	-75298.0	-3886.0
3	18	7	34	778	188.0	-160839.0	-75211.0	-1529.0
3	18	7	34	779	189.0	-160900.0	-75014.0	-1541.0
3	18	7	34	779	190.0	-160311.0	-74869.0	-1766.0
3	18	7	34	780	191.0	-159804.0	-74720.0	-2031.0
3	18	7	34	780	192.0	-159531.0	-74534.0	-1873.0
3	18	7	34	781	193.0	-159304.0	-74264.0	-2090.0
3	18	7	34	782	194.0	-158959.0	-74107.0	-5445.0
3	18	7	34	782	196.0	-158433.0	-73977.0	-5557.0
3	18	7	34	783	197.0	-158472.0	-73804.0	-3950.0
3	18	7	34	783	198.0	-158441.0	-73675.0	-4652.0
3	18	7	34	784	199.0	-158389.0	-73527.0	-8564.0
3	18	7	34	784	200.0	-158311.0	-73416.0	-11191.0
3	18	7	34	785	201.0	-158165.0	-71242.0	-13809.0
3	18	7	34	785	202.0	-157769.0	-71827.0	-17399.0
3	18	7	34	800	203.0	-157397.0	-71899.0	-23235.0
3	18	7	34	801	204.0	-157950.0	-72269.0	-30942.0
3	18	7	34	802	205.0	-158347.0	-72534.0	-36447.0
3	18	7	34	802	206.0	-158524.0	-72394.0	-37440.0
3	18	7	34	803	207.0	-158546.0	-72269.0	-35274.0
3	18	7	34	803	208.0	-158635.0	-72129.0	-34197.0
3	18	7	34	804	209.0	-158721.0	-71999.0	-36488.0
3	18	7	34	804	210.0	-158719.0	-71846.0	-38064.0
3	18	7	34	805	211.0	-158774.0	-71712.0	-39918.0
3	18	7	34	805	212.0	-158968.0	-71585.0	-43651.0
3	18	7	34	806	213.0	-159121.0	-71414.0	-49545.0
3	18	7	34	807	214.0	-159349.0	-71499.0	-56412.0
3	18	7	34	807	215.0	-159742.0	-72002.0	-59275.0
3	18	7	34	808	216.0	-160327.0	-71199.0	-57319.0
3	18	7	34	808	217.0	-160624.0	-72311.0	-51615.0
3	18	7	34	809	219.0	-161142.0	-71513.0	-48816.0
3	18	7	34	809	220.0	-161296.0	-71513.0	-49002.0
3	18	7	34	810	221.0	-161243.0	-70575.0	-49939.0
3	18	7	34	810	222.0	-161085.0	-73837.0	-51151.0
3	18	7	34	811	223.0	-160984.0	-68627.0	-55072.0
3	18	7	34	811	224.0	-161381.0	-68443.0	-62760.0
3	18	7	34	839	225.0	-161584.0	-71292.0	-64382.0
3	18	7	34	840	226.0	-161888.0	-74522.0	-58617.0
3	18	7	34	841	227.0	-162404.0	-74260.0	-44835.0
3	18	7	34	841	228.0	-163267.0	-67757.0	-33820.0
3	18	7	34	842	229.0	-163864.0	-60262.0	-29863.0
3	18	7	34	843	230.0	-164511.0	-68596.0	-26893.0
3	18	7	34	843	231.0	-165408.0	-70277.0	-22865.0
3	18	7	34	844	232.0	-166139.0	-69651.0	-19681.0
3	18	7	34	844	233.0	-166471.0	-69336.0	-20491.0
3	18	7	34	845	234.0	-166477.0	-69267.0	-22681.0
3	18	7	34	845	235.0	-166512.0	-69145.0	-18121.0
3	18	7	34	846	236.0	-166462.0	-69013.0	-8442.0
3	18	7	34	846	237.0	-165751.0	-66654.0	6908.0
3	18	7	34	847	238.0	-164931.0	-55670.0	18085.0
3	18	7	34	884	239.0	-164487.0	-63502.0	22321.0
3	18	7	34	885	241.0	-163637.0	-79427.0	32803.0
3	18	7	34	886	242.0	-163457.0	-85887.0	35821.0
3	18	7	34	886	243.0	-162924.0	-86181.0	31263.0
3	18	7	34	887	244.0	-162409.0	-84497.0	20436.0
3	18	7	34	887	245.0	-162231.0	-84400.0	19934.0
3	18	7	34	888	246.0	-162130.0	-78267.0	31119.0
3	18	7	34	888	247.0	-162479.0	-85463.0	55178.0
3	18	7	34	889	248.0	-162998.0	-90551.0	74741.0
3	18	7	34	975	249.0	-163301.0	-86159.0	85922.0
3	18	7	34	976	250.0	-163452.0	-76174.0	94398.0
3	18	7	34	976	251.0	-164407.0	-73551.0	100065.0
3	18	7	34	977	252.0	-168407.0	-74317.0	102016.0
3	18	7	34	977	253.0	-168827.0	-78672.0	95719.0
3	18	7	34	978	254.0	-167361.0	-86144.0	81896.0
3	18	7	34	979	8.0	-160666.0	-71276.0	113778.0
3	18	7	34	979	9.0	-160239.0	-71958.0	107467.0
3	18	7	34	980	10.0	-159748.0	-68951.0	119550.0
3	18	7	34	980	11.0	-159292.0	-68242.0	145489.0
3	18	7	34	981	12.0	-158839.0	-66544.0	164453.0
3	18	7	34	981	13.0	-158324.0	-70711.0	172584.0
3	18	7	34	982	14.0	-158106.0	-71387.0	173224.0
3	18	7	34	983	15.0	-158049.0	-69796.0	169815.0
3	18	7	34	983	16.0	-158160.0	-68784.0	164651.0
3	18	7	34	984	17.0	-158549.0	-68967.0	148033.0
3	18	7	34	984	53.0	-160609.0	-69886.0	20338.0
3	18	7	35	19	54.0	-160521.0	-69748.0	14844.0
3	18	7	35	20	55.0	-160236.0	-67391.0	4966.0
3	18	7	35	39	56.0	-160200.0	-68435.0	-10385.0
3	18	7	35	40	57.0	-159961.0	-69154.0	-40923.0
3	18	7	35	40	58.0	-159439.0	-68359.0	-72853.0
3	18	7	35	41	59.0	-159012.0	-63641.0	-79092.0
3	18	7	35	41	60.0	-158390.0	-58808.0	-63894.0
3	18	7	35	42	61.0	-157842.0	-72821.0	-38211.0
3	18	7	35	43	62.0	-157497.0	-69936.0	-19122.0
3	18	7	35	43	63.0	-157134.0	-69298.0	-13648.0
3	18	7	35	44	64.0	-157497.0	-69286.0	-17676.0
3	18	7	35	44	65.0	-157422.0	-69297.0	-25206.0
3	18	7	35	45	66.0	-157458.0	-69638.0	-37684.0
3	18	7	35	45	67.0	-157356.0	-71832.0	-63097.0
3	18	7	35	46	68.0	-157569.0	-71077.0	-87582.0
3	18	7	35	46	69.0	-157604.0	-69767.0	-92013.0
3	18	7	35	47	76.0	-157201.0	-69199.0	-40417.0
3	18	7	35	47	77.0	-157187.0	-69179.0	-62061.0
3	18	7	35	48	78.0	-157222.0	-69129.0	-82297.0
3	18	7	35	49	79.0	-157254.0	-69072.0	-85434.0
3	18	7	35	64	80.0	-157413.0	-69016.0	-71882.0
3	18	7	35	64	81.0	-157691.0	-68947.0	-50639.0
3	18	7	35	65	82.0	-157736.0	-68887.0	-39844.0
3	18	7	35	65	83.0	-157826.0	-68839.0	-37250.0
3	18	7	35	66	84.0	-157927.0	-68806.0	-37978.0
3	18	7	35	67	85.0	-157896.0	-68755.0	-40625.0
3	18	7	35	110	86.0	-157811.0	-68722.0	-46406.0
3	18	7	35	111	87.0	-158123.0	-68676.0	-62694.0
3	18	7	35	112	88.0	-158375.0	-68636.0	-77375.0
3	18	7	35	112	89.0	-158604.0	-68571.0	-79479.0
3	18	7	35	113	90.0	-158901.0	-68497.0	-70077.0
3	18	7	35	114	91.0	-159071.0	-68442.0	-55393.0
3	18	7	35	114	92.0	-159071.0	-68399.0	-48842.0
3	18	7	35	115	93.0	-158951.0	-68332.0	-47862.0
3	18	7	35	116	94.0	-158760.0	-68274.0	-47776.0
3	18	7	35	116	95.0	-158756.0	-68231.0	-46609.0
3	18	7	35	117	98.0	-158877.0	-68108.0	-61603.0
3	18	7	35	118	99.0	-158737.0	-68521.0	-59594.0
3	18	7	35	118	100.0	-158648.0	-71186.0	-52562.0
3	18	7	35	119	101.0	-158551.0	-70719.0	-43839.0
3	18	7	35	119	102.0	-158502.0	-67686.0	-39742.0
3	18	7	35	120	120.0	-158832.0	-69142.0	-63459.0
3	18	7	35	121	121.0	-159133.0	-68226.0	-74410.0
3	18	7	35	121	122.0	-159514.0	-68852.0	-88237.0
3	18	7	35	122	123.0	-162240.0	-67390.0	-100346.0
3	18	7	35	122	124.0	-157409.0	-72024.0	-85583.0
3	18	7	35	123	125.0	-158197.0	-75459.0	-45903.0
3	18	7	35	123	126.0	-157765.0	-68895.0	-17962.0
3	18	7	35	154	127.0	-159797.0	-72377.0	-4116.0
3	18	7	35	155	128.0	-160959.0	-68621.0	1013.0
3	18	7	35	156	129.0	-161112.0	-68246.0	-314.0
3	18	7	35	156	130.0	-161313.0	-73204.0	-8691.0
3	18	7	35	157	131.0	-161768.0	-73196.0	-21401.0
3	18	7	35	157	132.0	-162424.0	-70096.0	-32030.0
3	18	7	35	158	133.0	-163491.0	-71115.0	-38573.0
3	18	7	35	159	134.0	-160825.0	-73694.0	-42038.0
3	18	7	35	159	135.0	-161876.0	-73781.0	-43837.0
3	18	7	35	160	136.0	-161021.0	-69329.0	-42891.0
3	18	7	35	160	137.0	-163996.0	-75226.0	-37281.0
3	18	7	35	161	138.0	-159639.0	-72532.0	-31382.0
3	18	7	35	161	139.0	-161459.0	-66939.0	-34396.0
3	18	7	35	162	140.0	-164797.0	-69204.0	-44036.0
3	18	7	35	163	141.0	-161386.0	-69921.0	-55686.0
3	18	7	35	163	143.0	-161264.0	-72383.0	-69356.0
3	18	7	35	164	144.0	-160648.0	-73185.0	-71959.0
3	18	7	35	164	145.0	-159924.0	-72163.0	-73631.0
3	18	7	35	165	146.0	-159653.0	-69869.0	-73066.0
3	18	7	35	173	147.0	-159805.0	-68462.0	-67628.0
3	18	7	35	174	148.0	-159903.0	-73395.0	-66847.0
3	18	7	35	198	149.0	-160006.0	-71691.0	-73720.0
3	18	7	35	199	150.0	-159836.0	-70226.0	-85491.0
3	18	7	35	245	151.0	-159625.0	-65248.0	-99575.0
3	18	7	35	245	152.0	-159266.0	-65750.0	-112412.0
3	18	7	35	246	153.0	-159602.0	-72586.0	-120859.0
3	18	7	35	290	154.0	-160038.0	-68012.0	-126652.0
3	18	7	35	291	155.0	-160379.0	-65309.0	-128739.0
3	18	7	35	292	156.0	-160540.0	-65706.0	-130392.0
3	18	7	35	292	157.0	-160602.0	-66061.0	-128759.0
3	18	7	35	293	158.0	-160949.0	-63027.0	-129262.0
3	18	7	35	294	159.0	-161244.0	-55339.0	-139502.0
3	18	7	35	294	160.0	-161561.0	-64350.0	-159232.0
3	18	7	35	295	161.0	-161855.0	-70236.0	-178654.0
3	18	7	35	295	162.0	-162070.0	-69112.0	-196005.0
3	18	7	35	296	163.0	-162156.0	-65867.0	-205733.0
3	18	7	35	296	165.0	-162184.0	-66706.0	-220466.0
3	18	7	35	297	166.0	-162189.0	-63111.0	-222907.0
3	18	7	35	298	187.0	-160359.0	-64315.0	-459784.0
3	18	7	35	299	188.0	-160340.0	-64490.0	-463234.0
3	18	7	35	300	189.0	-160527.0	-70027.0	-474517.0
3	18	7	35	301	210.0	-161028.0	-66959.0	-455023.0
3	18	7	35	301	211.0	-162697.0	-64876.0	-439492.0
3	18	7	35	302	212.0	-164611.0	-62491.0	-415096.0
3	18	7	35	302	213.0	-164283.0	-61478.0	-377386.0
3	18	7	35	303	214.0	-163997.0	-61894.0	-342208.0
3	18	7	35	303	215.0	-163489.0	-64352.0	-310139.0
3	18	7	35	335	216.0	-164327.0	-64404.0	-277752.0
3	18	7	35	335	217.0	-164677.0	-61342.0	-243175.0
3	18	7	35	336	218.0	-164289.0	-62669.0	-216254.0
3	18	7	35	337	219.0	-164209.0	-63088.0	-196752.0
3	18	7	35	337	220.0	-164239.0	-60744.0	-183542.0
3	18	7	35	338	221.0	-163921.0	-62022.0	-174102.0
3	18	7	35	338	222.0	-163526.0	-62604.0	-162847.0
3	18	7	35	339	223.0	-163194.0	-61102.0	-146379.0
3	18	7	35	340	224.0	-162791.0	-62349.0	-128957.0
3	18	7	35	380	225.0	-162351.0	-61599.0	-111352.0
3	18	7	35	381	226.0	-161946.0	-60012.0	-92959.0
3	18	7	35	382	227.0	-161669.0	-60009.0	-72739.0
3	18	7	35	382	228.0	-161546.0	-60507.0	-57149.0
3	18	7	35	383	229.0	-161243.0	-60576.0	-48600.0
3	18	7	35	383	230.0	-161056.0	-59709.0	-46429.0
3	18	7	35	384	232.0	-160972.0	-59978.0	-40099.0
3	18	7	35	385	233.0	-160819.0	-59821.0	-30205.0
3	18	7	35	385	234.0	-160537.0	-59657.0	-20182.0
3	18	7	35	386	235.0	-160303.0	-57827.0	-10497.0
3	18	7	35	387	236.0	-160138.0	-57880.0	2368.0
3	18	7	35	387	237.0	-160111.0	-58617.0	20416.0
3	18	7	35	388	238.0	-160028.0	-58604.0	29810.0
3	18	7	35	388	239.0	-159971.0	-58061.0	30478.0
3	18	7	35	389	240.0	-160061.0	-57013.0	25856.0
3	18	7	35	390	255.0	-161926.0	-56542.0	82397.0
3	18	7	35	390	0.0	-161949.0	-56134.0	93592.0
3	18	7	35	391	1.0	-161939.0	-43718.0	107245.0
3	18	7	35	391	2.0	-162089.0	-39489.0	112956.0
3	18	7	35	392	3.0	-162117.0	-54409.0	112591.0
3	18	7	35	392	4.0	-161826.0	-61109.0	106985.0
3	18	7	35	424	5.0	-161734.0	-60457.0	102071.0
3	18	7	35	425	6.0	-161786.0	-61006.0	101459.0
3	18	7	35	426	7.0	-161682.0	-62182.0	105602.0
3	18	7	35	426	8.0	-161525.0	-67273.0	108934.0
3	18	7	35	427	9.0	-161527.0	-54437.0	114889.0
3	18	7	35	428	10.0	-161406.0	-45007.0	123754.0
3	18	7	35	428	11.0	-161342.0	-53339.0	134008.0
3	18	7	35	429	12.0	-161339.0	-62018.0	137426.0
3	18	7	35	429	13.0	-161229.0	-69442.0	132569.0
3	18	7	35	430	14.0	-161071.0	-76214.0	123278.0
3	18	7	35	431	15.0	-161025.0	-83472.0	116799.0
3	18	7	35	431	16.0	-161044.0	-90761.0	113784.0
3	18	7	35	432	17.0	-161056.0	-97807.0	113443.0
3	18	7	35	433	18.0	-161010.0	-103985.0	115185.0
3	18	7	35	433	19.0	-161182.0	-109799.0	118655.0
3	18	7	35	434	21.0	-161549.0	-125312.0	133610.0
3	18	7	35	434	22.0	-161372.0	-131712.0	134401.0
3	18	7	35	435	23.0	-161463.0	-136994.0	127926.0
3	18	7	35	436	24.0	-161236.0	-142624.0	116526.0
3	18	7	35	436	25.0	-160778.0	-148871.0	106504.0
3	18	7	35	437	26.0	-160911.0	-155272.0	100802.0
3	18	7	35	437	27.0	-160906.0	-160489.0	99355.0
3	18	7	35	476	28.0	-160561.0	-166769.0	96885.0
3	18	7	35	477	29.0	-160559.0	-173711.0	97773.0
3	18	7	35	478	30.0	-160674.0	-180874.0	100831.0
3	18	7	35	479	31.0	-160540.0	-187612.0	102056.0
3	18	7	35	479	32.0	-160157.0	-193423.0	93098.0
3	18	7	35	480	33.0	-160074.0	-199647.0	74274.0
3	18	7	35	480	34.0	-160449.0	-216916.0	47060.0
3	18	7	35	481	35.0	-159561.0	-228001.0	34471.0
3	18	7	35	482	36.0	-160074.0	-225629.0	28221.0
3	18	7	35	482	37.0	-159125.0	-223714.0	17559.0
3	18	7	35	483	38.0	-160026.0	-235165.0	7161.0
3	18	7	35	483	39.0	-160339.0	-246413.0	-1396.0
3	18	7	35	484	40.0	-160494.0	-247072.0	-3339.0
3	18	7	35	485	41.0	-160528.0	-247882.0	-269.0
3	18	7	35	485	42.0	-160265.0	-252252.0	1196.0
3	18	7	35	486	44.0	-159150.0	-261110.0	-18197.0
3	18	7	35	486	45.0	-159102.0	-265361.0	-30666.0
3	18	7	35	487	46.0	-158699.0	-271249.0	-40620.0
3	18	7	35	487	47.0	-158533.0	-279445.0	-49516.0
3	18	7	35	488	48.0	-158230.0	-289432.0	-58033.0
3	18	7	35	489	49.0	-158090.0	-296230.0	-67082.0
3	18	7	35	514	50.0	-158209.0	-303346.0	-72047.0
3	18	7	35	515	51.0	-157917.0	-310696.0	-76131.0
3	18	7	35	516	52.0	-157839.0	-317141.0	-89838.0
3	18	7	35	517	53.0	-158043.0	-322716.0	-112484.0
3	18	7	35	517	54.0	-157932.0	-328354.0	-139196.0
3	18	7	35	518	55.0	-157067.0	-329314.0	-166306.0
3	18	7	35	519	56.0	-156607.0	-332090.0	-186491.0
3	18	7	35	519	57.0	-157358.0	-339922.0	-201917.0
3	18	7	35	520	58.0	-158812.0	-348117.0	-213978.0
3	18	7	35	520	59.0	-159759.0	-355654.0	-225661.0
3	18	7	35	521	60.0	-159831.0	-363575.0	-235657.0
3	18	7	35	522	61.0	-158912.0	-371980.0	-244415.0
3	18	7	35	522	62.0	-157609.0	-380172.0	-261027.0
3	18	7	35	523	63.0	-156514.0	-388817.0	-282340.0
3	18	7	35	524	64.0	-153969.0	-397779.0	-304083.0
3	18	7	35	524	66.0	-144935.0	-413174.0	-327613.0
3	18	7	35	525	67.0	-141457.0	-421401.0	-326052.0
3	18	7	35	526	68.0	-141826.0	-429737.0	-319871.0
3	18	7	35	526	69.0	-152261.0	-436124.0	-349027.0
3	18	7	35	527	70.0	-137289.0	-422984.0	-420011.0
3	18	7	35	527	71.0	-143306.0	-385601.0	-375679.0
3	18	7	35	528	72.0	-161335.0	-320163.0	-293336.0
3	18	7	35	605	73.0	-175192.0	-183407.0	-251729.0
3	18	7	35	606	74.0	-179661.0	-163073.0	-226390.0
3	18	7	35	606	75.0	-182292.0	-166834.0	-205055.0
3	18	7	35	607	76.0	-183146.0	-173400.0	-184999.0
3	18	7	35	608	77.0	-180162.0	-180287.0	-165241.0
3	18	7	35	696	78.0	-173311.0	-182823.0	-143311.0
3	18	7	35	697	79.0	-165039.0	-184662.0	-117294.0
3	18	7	35	698	80.0	-158292.0	-186694.0	-85757.0
3	18	7	35	698	81.0	-154367.0	-189233.0	-54552.0
3	18	7	35	699	82.0	-152780.0	-190216.0	-32671.0
3	18	7	35	700	83.0	-151689.0	-191224.0	-18494.0
3	18	7	35	700	84.0	-152256.0	-193486.0	-12252.0
3	18	7	35	701	85.0	-153500.0	-195237.0	-7908.0
3	18	7	35	701	86.0	-154503.0	-197738.0	-3304.0
3	18	7	35	702	87.0	-155486.0	-200581.0	390.0
3	18	7	35	703	89.0	-156284.0	-204780.0	6579.0
3	18	7	35	703	111.0	-164988.0	-112494.0	144558.0
3	18	7	35	704	112.0	-164878.0	-90856.0	151789.0
3	18	7	35	704	113.0	-164891.0	-75889.0	152513.0
3	18	7	35	705	114.0	-164958.0	-69999.0	153322.0
3	18	7	35	706	115.0	-165030.0	-70252.0	155545.0
3	18	7	35	706	156.0	-160737.0	-191412.0	590184.0
3	18	7	35	707	157.0	-161027.0	-197300.0	609828.0
3	18	7	35	707	158.0	-160912.0	-204236.0	629103.0
3	18	7	35	708	159.0	-160965.0	-210524.0	650442.0
3	18	7	35	708	160.0	-160876.0	-214901.0	671983.0
3	18	7	35	709	161.0	-160845.0	-221404.0	687437.0
3	18	7	35	710	162.0	-160945.0	-228248.0	694011.0
3	18	7	35	739	163.0	-160935.0	-236826.0	691274.0
3	18	7	35	740	164.0	-160656.0	-242136.0	685141.0
3	18	7	35	741	165.0	-160676.0	-246946.0	679994.0
3	18	7	35	741	166.0	-160669.0	-251611.0	677550.0
3	18	7	35	742	167.0	-160687.0	-253687.0	675616.0
3	18	7	35	743	168.0	-160756.0	-252361.0	673195.0
3	18	7	35	743	169.0	-160681.0	-256021.0	671318.0
3	18	7	35	744	170.0	-160475.0	-260780.0	672945.0
3	18	7	35	744	171.0	-160517.0	-264082.0	669082.0
3	18	7	35	745	172.0	-160467.0	-265894.0	657811.0
3	18	7	35	746	173.0	-160161.0	-268127.0	638330.0
3	18	7	35	746	174.0	-160038.0	-271046.0	616759.0
3	18	7	35	747	175.0	-159797.0	-273296.0	598194.0
3	18	7	35	748	176.0	-159568.0	-275958.0	583446.0
3	18	7	35	748	177.0	-159458.0	-278862.0	570391.0
3	18	7	35	749	178.0	-159473.0	-281770.0	558583.0
3	18	7	35	750	179.0	-159441.0	-285062.0	548288.0
3	18	7	35	750	180.0	-159441.0	-287426.0	538467.0
3	18	7	35	751	181.0	-159571.0	-289371.0	520606.0
3	18	7	35	751	182.0	-159734.0	-291034.0	495717.0
3	18	7	35	752	183.0	-159913.0	-293341.0	465720.0
3	18	7	35	752	184.0	-160294.0	-294901.0	436570.0
3	18	7	35	784	185.0	-160366.0	-294326.0	411123.0
3	18	7	35	785	186.0	-160508.0	-290649.0	387593.0
3	18	7	35	786	187.0	-160701.0	-285899.0	367933.0
3	18	7	35	786	188.0	-160799.0	-286027.0	350472.0
3	18	7	35	787	189.0	-160787.0	-287386.0	336169.0
3	18	7	35	788	190.0	-160694.0	-289806.0	325869.0
3	18	7	35	788	191.0	-160532.0	-290357.0	311054.0
3	18	7	35	789	192.0	-160461.0	-291058.0	291350.0
3	18	7	35	790	193.0	-160411.0	-292810.0	267929.0
3	18	7	35	790	194.0	-160357.0	-295476.0	246191.0
3	18	7	35	791	195.0	-160527.0	-298779.0	228112.0
3	18	7	35	794	196.0	-160615.0	-301711.0	213342.0
3	18	7	35	795	197.0	-160549.0	-303869.0	200503.0
3	18	7	35	796	198.0	-160601.0	-308627.0	190197.0
3	18	7	35	796	199.0	-160786.0	-305228.0	183753.0
3	18	7	35	797	201.0	-161041.0	-288732.0	173139.0
3	18	7	35	797	202.0	-161161.0	-292696.0	155972.0
3	18	7	35	798	203.0	-161214.0	-293584.0	134334.0
3	18	7	35	799	204.0	-161244.0	-295246.0	114099.0
3	18	7	35	799	205.0	-161297.0	-298735.0	96498.0
3	18	7	35	800	206.0	-161228.0	-302711.0	81813.0
3	18	7	35	830	207.0	-161282.0	-307562.0	70424.0
3	18	7	35	849	208.0	-161288.0	-312040.0	60944.0
3	18	7	35	850	209.0	-161334.0	-315762.0	52911.0
3	18	7	35	851	210.0	-161517.0	-319616.0	50394.0
3	18	7	35	851	211.0	-161534.0	-324128.0	42341.0
3	18	7	35	852	212.0	-161525.0	-327874.0	26726.0
3	18	7	35	853	213.0	-161529.0	-330691.0	4260.0
3	18	7	35	853	214.0	-161425.0	-332819.0	-16127.0
3	18	7	35	854	215.0	-161224.0	-335034.0	-32205.0
3	18	7	35	854	216.0	-161149.0	-337028.0	-44139.0
3	18	7	35	855	217.0	-161249.0	-339782.0	-52834.0
3	18	7	35	856	218.0	-161197.0	-342556.0	-59382.0
3	18	7	35	856	219.0	-161000.0	-344379.0	-64140.0
3	18	7	35	857	220.0	-160996.0	-346101.0	-66656.0
3	18	7	35	858	221.0	-160906.0	-348576.0	-74184.0
3	18	7	35	858	223.0	-160786.0	-352795.0	-106499.0
3	18	7	35	859	224.0	-160884.0	-355419.0	-123443.0
3	18	7	35	859	225.0	-160711.0	-356256.0	-136102.0
3	18	7	35	860	226.0	-160537.0	-357328.0	-146488.0
3	18	7	35	860	227.0	-160527.0	-358806.0	-153566.0
3	18	7	35	861	228.0	-160567.0	-360746.0	-158024.0
3	18	7	35	862	229.0	-160577.0	-362904.0	-160764.0
3	18	7	35	877	230.0	-160487.0	-364889.0	-160671.0
3	18	7	35	877	231.0	-160407.0	-366067.0	-164920.0
3	18	7	35	878	232.0	-160280.0	-362512.0	-175377.0
3	18	7	35	878	233.0	-160142.0	-352302.0	-188254.0
3	18	7	35	879	234.0	-160169.0	-350796.0	-198926.0
3	18	7	35	879	235.0	-160215.0	-352262.0	-205502.0
3	18	7	35	920	236.0	-160195.0	-353672.0	-207099.0
3	18	7	35	921	237.0	-160253.0	-355662.0	-206342.0
3	18	7	35	921	238.0	-160414.0	-359199.0	-204155.0
3	18	7	35	922	239.0	-160509.0	-363707.0	-198833.0
3	18	7	35	922	240.0	-160405.0	-373236.0	-191474.0
3	18	7	35	923	241.0	-160239.0	-384937.0	-189821.0
3	18	7	35	923	242.0	-160312.0	-386357.0	-194147.0
3	18	7	35	924	243.0	-160450.0	-386156.0	-201567.0
3	18	7	35	924	244.0	-160172.0	-384146.0	-208082.0
3	18	7	35	964	246.0	-160016.0	-383055.0	-208436.0
3	18	7	35	965	247.0	-160084.0	-383595.0	-205564.0
3	18	7	35	965	248.0	-160144.0	-384355.0	-199934.0
3	18	7	35	966	249.0	-160382.0	-385229.0	-191162.0
3	18	7	35	966	250.0	-160703.0	-383711.0	-180007.0
3	18	7	35	967	251.0	-160659.0	-378461.0	-175127.0
3	18	7	35	968	12.0	-160693.0	-144020.0	-124039.0
3	18	7	35	968	13.0	-160729.0	-143115.0	-113473.0
3	18	7	35	969	14.0	-160762.0	-146345.0	-102389.0
3	18	7	35	969	15.0	-160656.0	-147695.0	-97686.0
3	18	7	35	970	16.0	-160595.0	-148925.0	-99308.0
3	18	7	35	970	17.0	-160648.0	-151197.0	-104111.0
3	18	7	35	971	18.0	-160586.0	-154447.0	-108152.0
3	18	7	35	971	19.0	-160532.0	-157963.0	-109769.0
3	18	7	35	972	20.0	-160627.0	-163856.0	-108282.0
3	18	7	35	972	35.0	-160011.0	-203012.0	-63688.0
3	18	7	35	973	36.0	-160142.0	-204002.0	-68602.0
3	18	7	35	973	37.0	-160198.0	-204375.0	-77905.0
3	18	7	35	974	38.0	-160321.0	-205885.0	-84043.0
3	18	7	35	975	39.0	-160507.0	-207001.0	-85982.0
3	18	7	35	975	40.0	-160669.0	-205369.0	-84075.0
3	18	7	36	9	41.0	-160623.0	-201623.0	-79944.0
3	18	7	36	10	42.0	-160584.0	-202044.0	-73994.0
3	18	7	36	10	43.0	-160659.0	-202694.0	-64403.0
3	18	7	36	11	44.0	-160614.0	-200156.0	-54447.0
3	18	7	36	12	45.0	-160445.0	-202476.0	-51076.0
3	18	7	36	12	46.0	-160364.0	-212771.0	-53452.0
3	18	7	36	13	47.0	-160441.0	-213769.0	-59551.0
3	18	7	36	13	48.0	-160447.0	-215461.0	-64266.0
3	18	7	36	14	49.0	-160537.0	-218545.0	-63317.0
3	18	7	36	15	50.0	-160744.0	-221521.0	-59249.0
3	18	7	36	15	51.0	-160902.0	-225439.0	-53754.0
3	18	7	36	16	52.0	-161023.0	-228196.0	-45902.0
3	18	7	36	16	53.0	-161011.0	-229651.0	-33261.0
3	18	7	36	17	54.0	-161044.0	-234776.0	-20942.0
3	18	7	36	18	55.0	-161076.0	-235895.0	-17351.0
3	18	7	36	18	57.0	-161249.0	-227611.0	-29033.0
3	18	7	36	19	58.0	-161322.0	-231464.0	-35551.0
3	18	7	36	19	59.0	-161326.0	-235434.0	-38785.0
3	18	7	36	20	60.0	-161248.0	-239756.0	-38035.0
3	18	7	36	20	61.0	-161232.0	-243474.0	-33563.0
3	18	7	36	21	62.0	-161046.0	-248123.0	-27501.0
3	18	7	36	22	63.0	-160912.0	-253766.0	-17571.0
3	18	7	36	54	64.0	-160872.0	-262102.0	-7460.0
3	18	7	36	55	65.0	-160717.0	-268726.0	-6811.0
3	18	7	36	55	66.0	-160600.0	-273225.0	-12280.0
3	18	7	36	56	67.0	-160549.0	-277254.0	-20962.0
3	18	7	36	56	68.0	-160591.0	-280699.0	-27914.0
3	18	7	36	57	69.0	-160467.0	-284396.0	-30714.0
3	18	7	36	58	70.0	-160371.0	-288214.0	-31289.0
3	18	7	36	58	71.0	-160322.0	-291909.0	-30369.0
3	18	7	36	59	72.0	-160296.0	-302859.0	-26769.0
3	18	7	36	59	73.0	-160149.0	-316330.0	-18587.0
3	18	7	36	60	74.0	-160088.0	-320720.0	-11274.0
3	18	7	36	61	75.0	-159949.0	-324001.0	-11457.0
3	18	7	36	61	76.0	-159746.0	-326639.0	-18339.0
3	18	7	36	62	77.0	-159557.0	-329014.0	-29676.0
3	18	7	36	62	78.0	-159544.0	-332675.0	-37457.0
3	18	7	36	63	80.0	-159755.0	-341019.0	-39251.0
3	18	7	36	63	81.0	-159757.0	-345113.0	-39712.0
3	18	7	36	64	82.0	-159714.0	-349259.0	-37833.0
3	18	7	36	65	83.0	-159636.0	-354319.0	-28983.0
3	18	7	36	65	84.0	-159643.0	-358799.0	-19740.0
3	18	7	36	66	85.0	-159614.0	-362129.0	-20339.0
3	18	7	36	99	86.0	-159630.0	-364173.0	-28620.0
3	18	7	36	100	87.0	-159796.0	-367646.0	-38434.0
3	18	7	36	101	88.0	-159971.0	-371031.0	-46008.0
3	18	7	36	101	89.0	-160067.0	-373889.0	-46410.0
3	18	7	36	102	90.0	-160196.0	-376207.0	-41665.0
3	18	7	36	102	91.0	-160426.0	-379063.0	-36109.0
3	18	7	36	103	92.0	-160568.0	-381605.0	-29584.0
3	18	7	36	104	93.0	-160682.0	-384381.0	-17626.0
3	18	7	36	104	94.0	-160857.0	-387316.0	-8099.0
3	18	7	36	105	95.0	-161021.0	-389116.0	-6989.0
3	18	7	36	105	96.0	-161060.0	-390957.0	-10551.0
3	18	7	36	106	97.0	-161133.0	-387742.0	-15511.0
3	18	7	36	106	98.0	-161164.0	-387491.0	-19427.0
3	18	7	36	107	99.0	-161228.0	-392017.0	-18324.0
3	18	7	36	108	100.0	-161209.0	-396284.0	-13839.0
3	18	7	36	108	102.0	-161107.0	-405697.0	-143.0
3	18	7	36	109	103.0	-161107.0	-417770.0	11807.0
3	18	7	36	110	104.0	-161191.0	-433881.0	22246.0
3	18	7	36	111	105.0	-161209.0	-438814.0	23661.0
3	18	7	36	111	106.0	-161269.0	-441114.0	19016.0
3	18	7	36	112	107.0	-161349.0	-438921.0	12753.0
3	18	7	36	113	108.0	-161417.0	-435236.0	7147.0
3	18	7	36	144	109.0	-161394.0	-434011.0	7843.0
3	18	7	36	145	110.0	-161409.0	-434667.0	14426.0
3	18	7	36	145	111.0	-161276.0	-433162.0	21046.0
3	18	7	36	146	112.0	-161267.0	-434523.0	27646.0
3	18	7	36	147	113.0	-161152.0	-438251.0	38309.0
3	18	7	36	147	114.0	-160963.0	-442592.0	46080.0
3	18	7	36	148	115.0	-160938.0	-446244.0	44078.0
3	18	7	36	148	116.0	-160761.0	-448621.0	34900.0
3	18	7	36	149	117.0	-160790.0	-449571.0	22485.0
3	18	7	36	150	118.0	-160584.0	-449666.0	12636.0
3	18	7	36	150	119.0	-160203.0	-447316.0	10071.0
3	18	7	36	151	120.0	-159871.0	-443540.0	11035.0
3	18	7	36	151	121.0	-159353.0	-441197.0	13029.0
3	18	7	36	152	122.0	-158976.0	-440419.0	16693.0
3	18	7	36	153	123.0	-159031.0	-439402.0	24318.0
3	18	7	36	153	125.0	-159078.0	-424329.0	25523.0
3	18	7	36	154	126.0	-159501.0	-419000.0	16614.0
3	18	7	36	154	127.0	-159566.0	-418730.0	7019.0
3	18	7	36	155	128.0	-159768.0	-421479.0	518.0
3	18	7	36	155	129.0	-160152.0	-425451.0	246.0
3	18	7	36	156	130.0	-159992.0	-428563.0	1696.0
3	18	7	36	190	131.0	-159876.0	-427131.0	5290.0
3	18	7	36	191	132.0	-160233.0	-427809.0	11872.0
3	18	7	36	191	133.0	-160457.0	-431759.0	23599.0
3	18	7	36	192	134.0	-160717.0	-437937.0	31013.0
3	18	7	36	192	135.0	-160826.0	-445124.0	29929.0
3	18	7	36	193	136.0	-160676.0	-454507.0	23328.0
3	18	7	36	194	137.0	-160483.0	-469771.0	15808.0
3	18	7	36	195	138.0	-160307.0	-475724.0	11189.0
3	18	7	36	195	139.0	-160077.0	-483321.0	13060.0
3	18	7	36	196	140.0	-160074.0	-492290.0	17668.0
3	18	7	36	196	141.0	-160467.0	-502848.0	25188.0
3	18	7	36	197	142.0	-160782.0	-505188.0	34368.0
3	18	7	36	198	143.0	-160902.0	-506710.0	47743.0
3	18	7	36	198	144.0	-161185.0	-506496.0	57247.0
3	18	7	36	199	145.0	-161395.0	-504934.0	59099.0
3	18	7	36	199	147.0	-161066.0	-504559.0	48199.0
3	18	7	36	200	148.0	-161015.0	-505687.0	43481.0
3	18	7	36	200	149.0	-161101.0	-506052.0	45151.0
3	18	7	36	201	150.0	-161145.0	-508606.0	50509.0
3	18	7	36	202	151.0	-161301.0	-514189.0	56768.0
3	18	7	36	202	152.0	-161390.0	-530065.0	65669.0
3	18	7	36	280	153.0	-161264.0	-539439.0	77254.0
3	18	7	36	282	154.0	-161242.0	-540284.0	84770.0
3	18	7	36	283	155.0	-161490.0	-531476.0	84465.0
3	18	7	36	284	156.0	-161388.0	-526212.0	78643.0
3	18	7	36	284	157.0	-161051.0	-528543.0	71429.0
3	18	7	36	285	158.0	-160821.0	-531131.0	66544.0
3	18	7	36	286	159.0	-160823.0	-535780.0	66838.0
3	18	7	36	286	160.0	-160664.0	-539807.0	71356.0
3	18	7	36	287	161.0	-160350.0	-542934.0	75458.0
3	18	7	36	287	162.0	-160394.0	-546343.0	81795.0
3	18	7	36	288	163.0	-160426.0	-550169.0	92813.0
3	18	7	36	289	164.0	-160252.0	-553434.0	99054.0
3	18	7	36	289	165.0	-160262.0	-564346.0	97172.0
3	18	7	36	290	166.0	-160387.0	-572921.0	89327.0
3	18	7	36	290	167.0	-160186.0	-587832.0	79962.0
3	18	7	36	291	192.0	-160769.0	-639038.0	40548.0
3	18	7	36	291	193.0	-160931.0	-642858.0	48412.0
3	18	7	36	292	194.0	-160933.0	-656081.0	50158.0
3	18	7	36	292	195.0	-160842.0	-661437.0	45104.0
3	18	7	36	293	196.0	-160932.0	-661481.0	32929.0
3	18	7	36	294	197.0	-161013.0	-661260.0	20981.0
3	18	7	36	324	198.0	-161014.0	-661325.0	12703.0
3	18	7	36	325	199.0	-160921.0	-661851.0	10159.0
3	18	7	36	325	200.0	-160936.0	-670199.0	10323.0
3	18	7	36	326	201.0	-161020.0	-673432.0	13838.0
3	18	7	36	327	202.0	-160946.0	-672154.0	21353.0
3	18	7	36	327	203.0	-160894.0	-673573.0	31677.0
3	18	7	36	328	204.0	-161020.0	-674876.0	33003.0
3	18	7	36	328	205.0	-161161.0	-675044.0	26612.0
3	18	7	36	329	206.0	-161136.0	-674579.0	15583.0
3	18	7	36	330	207.0	-161016.0	-674782.0	1616.0
3	18	7	36	330	208.0	-161037.0	-675749.0	-8032.0
3	18	7	36	331	209.0	-160844.0	-676676.0	-8511.0
3	18	7	36	331	210.0	-160767.0	-673991.0	-7192.0
3	18	7	36	332	211.0	-160814.0	-672886.0	-4342.0
3	18	7	36	333	212.0	-160687.0	-672598.0	2046.0
3	18	7	36	333	214.0	-160526.0	-674337.0	16886.0
3	18	7	36	334	215.0	-160485.0	-674422.0	11362.0
3	18	7	36	334	216.0	-160282.0	-674349.0	88.0
3	18	7	36	335	217.0	-160046.0	-675164.0	-10163.0
3	18	7	36	336	218.0	-159964.0	-675875.0	-16082.0
3	18	7	36	336	219.0	-159911.0	-677404.0	-15443.0
3	18	7	36	337	220.0	-159700.0	-679316.0	-14757.0
3	18	7	36	370	221.0	-159516.0	-681592.0	-12369.0
3	18	7	36	371	222.0	-159512.0	-684201.0	-4434.0
3	18	7	36	371	223.0	-159503.0	-688472.0	9827.0
3	18	7	36	372	224.0	-159327.0	-691649.0	15138.0
3	18	7	36	373	225.0	-159324.0	-694363.0	10155.0
3	18	7	36	373	226.0	-159619.0	-697817.0	-644.0
3	18	7	36	374	227.0	-159663.0	-705970.0	-9948.0
3	18	7	36	374	228.0	-159559.0	-711032.0	-14758.0
3	18	7	36	375	229.0	-159716.0	-721410.0	-15099.0
3	18	7	36	376	230.0	-159838.0	-728219.0	-11062.0
3	18	7	36	376	231.0	-159831.0	-739929.0	-6042.0
3	18	7	36	377	232.0	-159925.0	-742627.0	2755.0
3	18	7	36	377	233.0	-160094.0	-743614.0	16216.0
3	18	7	36	378	234.0	-160249.0	-744590.0	19458.0
3	18	7	36	378	235.0	-160270.0	-744912.0	14309.0
3	18	7	36	379	237.0	-160506.0	-744119.0	-8141.0
3	18	7	36	380	238.0	-160631.0	-745364.0	-14211.0
3	18	7	36	380	239.0	-160586.0	-747257.0	-14214.0
3	18	7	36	381	240.0	-160524.0	-748731.0	-11424.0
3	18	7	36	381	241.0	-160551.0	-749458.0	-4634.0
3	18	7	36	382	242.0	-160639.0	-745967.0	6438.0
3	18	7	36	414	243.0	-160594.0	-741322.0	19655.0
3	18	7	36	414	244.0	-160770.0	-742429.0	23524.0
3	18	7	36	415	245.0	-160919.0	-743472.0	21482.0
3	18	7	36	416	246.0	-160874.0	-744310.0	10379.0
3	18	7	36	416	247.0	-160789.0	-745698.0	-1392.0
3	18	7	36	417	248.0	-160691.0	-747653.0	-7408.0
3	18	7	36	417	249.0	-160698.0	-749493.0	-6671.0
3	18	7	36	418	250.0	-160526.0	-751201.0	-399.0
3	18	7	36	419	251.0	-160432.0	-752391.0	8034.0
3	18	7	36	419	252.0	-160557.0	-754561.0	18750.0
3	18	7	36	420	253.0	-160518.0	-756197.0	31804.0
3	18	7	36	420	254.0	-160437.0	-756627.0	36019.0
3	18	7	36	421	255.0	-160344.0	-756883.0	30586.0
3	18	7	36	422	0.0	-160157.0	-757289.0	19841.0
3	18	7	36	430	1.0	-160030.0	-757957.0	10571.0
3	18	7	36	431	3.0	-159972.0	-760612.0	11068.0
3	18	7	36	431	4.0	-159963.0	-762209.0	16030.0
3	18	7	36	432	5.0	-160037.0	-763366.0	22799.0
3	18	7	36	432	6.0	-160113.0	-764865.0	34378.0
3	18	7	36	433	7.0	-160127.0	-767053.0	48759.0
3	18	7	36	433	8.0	-160069.0	-768482.0	52918.0
3	18	7	36	434	9.0	-160153.0	-768932.0	47738.0
3	18	7	36	460	10.0	-160276.0	-768467.0	37082.0
3	18	7	36	461	11.0	-160454.0	-767857.0	29841.0
3	18	7	36	461	12.0	-160441.0	-768128.0	28034.0
3	18	7	36	462	13.0	-160499.0	-768262.0	30700.0
3	18	7	36	463	14.0	-160539.0	-768541.0	35979.0
3	18	7	36	463	15.0	-160442.0	-769303.0	44858.0
3	18	7	36	464	16.0	-160513.0	-771386.0	59379.0
3	18	7	36	464	17.0	-160666.0	-773984.0	75109.0
3	18	7	36	465	18.0	-160566.0	-775442.0	79201.0
3	18	7	36	466	19.0	-160399.0	-775549.0	71836.0
3	18	7	36	466	20.0	-160431.0	-774848.0	56421.0
3	18	7	36	467	21.0	-160376.0	-774314.0	45432.0
3	18	7	36	468	22.0	-160224.0	-775016.0	42591.0
3	18	7	36	468	23.0	-160106.0	-776499.0	45319.0
3	18	7	36	469	24.0	-160109.0	-777274.0	50111.0
3	18	7	36	469	26.0	-160211.0	-781252.0	71779.0
3	18	7	36	470	27.0	-160428.0	-785789.0	85756.0
3	18	7	36	471	28.0	-160442.0	-786921.0	87722.0
3	18	7	36	472	29.0	-160454.0	-786871.0	77813.0
3	18	7	36	472	30.0	-160561.0	-785887.0	63507.0
3	18	7	36	473	31.0	-160525.0	-784601.0	52304.0
3	18	7	36	505	32.0	-160554.0	-783684.0	45968.0
3	18	7	36	505	33.0	-160717.0	-783211.0	45559.0
3	18	7	36	506	34.0	-160926.0	-783728.0	49631.0
3	18	7	36	507	35.0	-160914.0	-785776.0	57068.0
3	18	7	36	507	36.0	-160695.0	-790049.0	70868.0
3	18	7	36	508	37.0	-160827.0	-792482.0	84644.0
3	18	7	36	508	38.0	-160788.0	-792776.0	86247.0
3	18	7	36	509	39.0	-161079.0	-790388.0	76083.0
3	18	7	36	510	40.0	-161166.0	-787259.0	58488.0
3	18	7	36	510	41.0	-161023.0	-792052.0	44470.0
3	18	7	36	511	42.0	-161043.0	-802447.0	39536.0
3	18	7	36	512	43.0	-161048.0	-799847.0	40527.0
3	18	7	36	512	44.0	-161025.0	-783558.0	42209.0
3	18	7	36	513	45.0	-160804.0	-757810.0	46586.0
3	18	7	36	514	46.0	-160627.0	-727807.0	57850.0
3	18	7	36	514	48.0	-160882.0	-714715.0	71226.0
3	18	7	36	515	49.0	-161077.0	-713699.0	60351.0
3	18	7	36	515	50.0	-160977.0	-713906.0	43285.0
3	18	7	36	516	51.0	-161251.0	-716847.0	30361.0
3	18	7	36	517	52.0	-161419.0	-717074.0	23084.0
3	18	7	36	517	53.0	-161166.0	-716841.0	22028.0
3	18	7	36	518	54.0	-161227.0	-717159.0	24427.0
3	18	7	36	550	55.0	-161329.0	-717977.0	27989.0
3	18	7	36	550	56.0	-161045.0	-719425.0	40488.0
3	18	7	36	551	57.0	-160996.0	-720629.0	53760.0
3	18	7	36	552	58.0	-160804.0	-718577.0	51991.0
3	18	7	36	552	59.0	-160294.0	-715722.0	37911.0
3	18	7	36	553	60.0	-160476.0	-713523.0	17943.0
3	18	7	36	553	61.0	-160787.0	-712149.0	3790.0
3	18	7	36	554	62.0	-160787.0	-711543.0	-1721.0
3	18	7	36	554	63.0	-161369.0	-710974.0	-1335.0
3	18	7	36	595	64.0	-161968.0	-710316.0	1088.0
3	18	7	36	596	65.0	-161829.0	-709394.0	6432.0
3	18	7	36	596	66.0	-161934.0	-709328.0	19613.0
3	18	7	36	597	67.0	-162115.0	-706739.0	31017.0
3	18	7	36	598	68.0	-161667.0	-701910.0	29848.0
3	18	7	36	598	69.0	-161156.0	-697057.0	17647.0
3	18	7	36	599	71.0	-160522.0	-688469.0	-16639.0
3	18	7	36	601	72.0	-160079.0	-684428.0	-23183.0
3	18	7	36	602	73.0	-159837.0	-681597.0	-24832.0
3	18	7	36	603	74.0	-159849.0	-677715.0	-22588.0
3	18	7	36	604	75.0	-159941.0	-674457.0	-16489.0
3	18	7	36	604	76.0	-159963.0	-673939.0	-3356.0
3	18	7	36	605	77.0	-159928.0	-672544.0	7909.0
3	18	7	36	606	78.0	-159579.0	-668812.0	4031.0
3	18	7	36	606	79.0	-158719.0	-663929.0	-10121.0
3	18	7	36	607	93.0	-160649.0	-636951.0	-56474.0
3	18	7	36	607	94.0	-160594.0	-636083.0	-51624.0
3	18	7	36	608	95.0	-160166.0	-641236.0	-43847.0
3	18	7	36	609	96.0	-160497.0	-651932.0	-28351.0
3	18	7	36	609	97.0	-160792.0	-652221.0	-16276.0
3	18	7	36	610	98.0	-160441.0	-650393.0	-17597.0
3	18	7	36	610	99.0	-160683.0	-647501.0	-32044.0
3	18	7	36	640	100.0	-161019.0	-644822.0	-48881.0
3	18	7	36	660	101.0	-160696.0	-642965.0	-59317.0
3	18	7	36	661	102.0	-160860.0	-641839.0	-61439.0
3	18	7	36	662	103.0	-161188.0	-641310.0	-59509.0
3	18	7	36	662	104.0	-160627.0	-642395.0	-54851.0
3	18	7	36	663	105.0	-160536.0	-646240.0	-48122.0
3	18	7	36	663	106.0	-160827.0	-657561.0	-33187.0
3	18	7	36	664	107.0	-160222.0	-658959.0	-23242.0
3	18	7	36	664	108.0	-159886.0	-658131.0	-26926.0
3	18	7	36	665	109.0	-160002.0	-655995.0	-41704.0
3	18	7	36	666	110.0	-159701.0	-654054.0	-57246.0
3	18	7	36	666	111.0	-159562.0	-650716.0	-66304.0
3	18	7	36	667	112.0	-159774.0	-647747.0	-67584.0
3	18	7	36	684	113.0	-159741.0	-645121.0	-65842.0
3	18	7	36	685	114.0	-159524.0	-642771.0	-59388.0
3	18	7	36	686	116.0	-159772.0	-637747.0	-32649.0
3	18	7	36	686	117.0	-159713.0	-632169.0	-22481.0
3	18	7	36	687	118.0	-159934.0	-626324.0	-24752.0
3	18	7	36	688	119.0	-159992.0	-621407.0	-38302.0
3	18	7	36	688	120.0	-159893.0	-615616.0	-51329.0
3	18	7	36	689	121.0	-160081.0	-608761.0	-57987.0
3	18	7	36	690	122.0	-160189.0	-601550.0	-58657.0
3	18	7	36	690	123.0	-160021.0	-597062.0	-54149.0
3	18	7	36	691	124.0	-160192.0	-592397.0	-46350.0
3	18	7	36	692	125.0	-160305.0	-592134.0	-33867.0
3	18	7	36	692	126.0	-160282.0	-593529.0	-14186.0
3	18	7	36	693	127.0	-160456.0	-596225.0	-2231.0
3	18	7	36	693	128.0	-160536.0	-598257.0	-3397.0
3	18	7	36	694	129.0	-160399.0	-601284.0	-14401.0
3	18	7	36	695	138.0	-160668.0	-631759.0	15211.0
3	18	7	36	695	139.0	-160495.0	-631524.0	3149.0
3	18	7	36	696	140.0	-160476.0	-630489.0	-9230.0
3	18	7	36	697	141.0	-160344.0	-630831.0	-15774.0
3	18	7	36	697	142.0	-160272.0	-632189.0	-16541.0
3	18	7	36	698	143.0	-160229.0	-634162.0	-13237.0
3	18	7	36	698	144.0	-160266.0	-636074.0	-7302.0
3	18	7	36	729	145.0	-160347.0	-636209.0	201.0
3	18	7	36	730	146.0	-160341.0	-631529.0	14523.0
3	18	7	36	731	147.0	-160364.0	-623182.0	26153.0
3	18	7	36	731	148.0	-160501.0	-621229.0	26029.0
3	18	7	36	732	149.0	-160521.0	-620660.0	15464.0
3	18	7	36	733	150.0	-160424.0	-620146.0	5639.0
3	18	7	36	733	151.0	-160466.0	-619737.0	-2173.0
3	18	7	36	734	152.0	-160491.0	-620133.0	-4685.0
3	18	7	36	735	153.0	-160552.0	-620997.0	-3194.0
3	18	7	36	735	154.0	-160744.0	-620526.0	-16.0
3	18	7	36	736	155.0	-160744.0	-619232.0	8031.0
3	18	7	36	737	156.0	-160806.0	-622146.0	22736.0
3	18	7	36	737	157.0	-160727.0	-635062.0	30665.0
3	18	7	36	738	158.0	-160469.0	-639017.0	28227.0
3	18	7	36	739	159.0	-160594.0	-636406.0	14408.0
3	18	7	36	739	161.0	-160517.0	-628762.0	-8479.0
3	18	7	36	740	162.0	-160562.0	-626846.0	-7327.0
3	18	7	36	741	163.0	-160728.0	-626022.0	-2692.0
3	18	7	36	741	164.0	-160593.0	-627308.0	1722.0
3	18	7	36	742	165.0	-160421.0	-628047.0	10481.0
3	18	7	36	742	166.0	-160446.0	-628233.0	25781.0
3	18	7	36	775	167.0	-160516.0	-627599.0	33713.0
3	18	7	36	775	168.0	-160527.0	-626117.0	29385.0
3	18	7	36	776	169.0	-160631.0	-623839.0	16413.0
3	18	7	36	777	170.0	-160805.0	-621382.0	4873.0
3	18	7	36	777	171.0	-160773.0	-618676.0	-1861.0
3	18	7	36	778	172.0	-160766.0	-616766.0	-1512.0
3	18	7	36	779	173.0	-160839.0	-613494.0	1073.0
3	18	7	36	779	174.0	-160825.0	-608656.0	5036.0
3	18	7	36	780	175.0	-160744.0	-604062.0	13736.0
3	18	7	36	781	176.0	-160651.0	-600180.0	28817.0
3	18	7	36	781	177.0	-160560.0	-595699.0	33033.0
3	18	7	36	782	178.0	-160513.0	-590811.0	26345.0
3	18	7	36	783	179.0	-160476.0	-585209.0	11333.0
3	18	7	36	783	180.0	-160497.0	-578842.0	-3964.0
3	18	7	36	784	181.0	-160554.0	-574351.0	-11403.0
3	18	7	36	785	183.0	-160654.0	-564757.0	-9879.0
3	18	7	36	785	184.0	-160557.0	-559099.0	-4178.0
3	18	7	36	786	185.0	-160623.0	-554700.0	4675.0
3	18	7	36	787	186.0	-160599.0	-550957.0	19663.0
3	18	7	36	788	187.0	-160522.0	-545461.0	26576.0
3	18	7	36	819	188.0	-160587.0	-539274.0	21838.0
3	18	7	36	866	189.0	-160664.0	-532682.0	7871.0
3	18	7	36	867	190.0	-160737.0	-525518.0	-3944.0
3	18	7	36	868	191.0	-160837.0	-520371.0	-9039.0
3	18	7	36	868	192.0	-160831.0	-515337.0	-6967.0
3	18	7	36	869	193.0	-160759.0	-509959.0	-3085.0
3	18	7	36	870	194.0	-160785.0	-504126.0	2776.0
3	18	7	36	870	195.0	-160834.0	-499294.0	15003.0
3	18	7	36	871	196.0	-160828.0	-491666.0	31733.0
3	18	7	36	872	197.0	-160834.0	-484265.0	37293.0
3	18	7	36	872	198.0	-160882.0	-479679.0	32838.0
3	18	7	36	873	199.0	-160917.0	-474164.0	20389.0
3	18	7	36	874	200.0	-160811.0	-477337.0	9779.0
3	18	7	36	874	201.0	-160848.0	-481991.0	4668.0
3	18	7	36	875	202.0	-160802.0	-477314.0	3124.0
3	18	7	36	876	205.0	-160742.0	-459422.0	22376.0
3	18	7	36	876	228.0	-160251.0	-385199.0	33153.0
3	18	7	36	877	229.0	-160460.0	-381671.0	15547.0
3	18	7	36	877	230.0	-160311.0	-378227.0	1758.0
3	18	7	36	878	231.0	-160202.0	-374933.0	-5792.0
3	18	7	36	878	232.0	-160279.0	-370003.0	-6842.0
3	18	7	36	879	233.0	-160055.0	-364826.0	-4834.0
3	18	7	36	910	234.0	-160037.0	-360521.0	-747.0
3	18	7	36	911	235.0	-160161.0	-358213.0	8866.0
3	18	7	36	912	236.0	-160101.0	-357125.0	24060.0
3	18	7	36	913	237.0	-160521.0	-353279.0	26878.0
3	18	7	36	913	238.0	-160424.0	-348406.0	19348.0
3	18	7	36	914	239.0	-160135.0	-343211.0	4840.0
3	18	7	36	915	240.0	-160413.0	-340413.0	-7585.0
3	18	7	36	915	241.0	-160286.0	-337599.0	-13165.0
3	18	7	36	916	242.0	-160282.0	-334729.0	-12004.0
3	18	7	36	917	243.0	-160502.0	-333135.0	-8551.0
3	18	7	36	917	244.0	-160675.0	-331885.0	-3540.0
3	18	7	36	918	245.0	-160531.0	-330302.0	7890.0
3	18	7	36	919	246.0	-160588.0	-328984.0	22795.0
3	18	7	36	919	247.0	-160652.0	-327377.0	26137.0
3	18	7	36	920	248.0	-160586.0	-321368.0	19558.0
3	18	7	36	921	250.0	-160733.0	-309053.0	-8456.0
3	18	7	36	921	251.0	-160703.0	-303072.0	-12913.0
3	18	7	36	922	252.0	-160551.0	-299209.0	-13403.0
3	18	7	36	923	253.0	-160631.0	-293780.0	-10747.0
3	18	7	36	923	254.0	-160734.0	-284910.0	-4944.0
3	18	7	36	924	255.0	-160752.0	-276905.0	7739.0
3	18	7	36	924	0.0	-160647.0	-267815.0	23280.0
3	18	7	36	954	1.0	-160554.0	-259126.0	26876.0
3	18	7	36	955	2.0	-160638.0	-251979.0	18906.0
3	18	7	36	955	3.0	-160611.0	-246023.0	4248.0
3	18	7	36	956	4.0	-160657.0	-241531.0	-8110.0
3	18	7	36	956	5.0	-160592.0	-239948.0	-12494.0
3	18	7	36	957	6.0	-160399.0	-246260.0	-12023.0
3	18	7	36	958	7.0	-160402.0	-258630.0	-10601.0
3	18	7	36	958	8.0	-160554.0	-260276.0	-6010.0
3	18	7	36	959	9.0	-160606.0	-261178.0	6454.0
3	18	7	36	959	10.0	-160567.0	-257657.0	21770.0
3	18	7	36	960	11.0	-160622.0	-247538.0	25726.0
3	18	7	36	960	12.0	-160647.0	-232081.0	19430.0
3	18	7	36	961	13.0	-160613.0	-175754.0	4306.0
3	18	7	36	961	14.0	-160503.0	-70657.0	-7469.0
3	18	7	36	962	15.0	-160331.0	-14689.0	-10113.0
3	18	7	36	963	17.0	-160567.0	-10834.0	-5026.0
3	18	7	36	963	18.0	-160507.0	-10529.0	-786.0
3	18	7	36	964	19.0	-160555.0	-12779.0	11925.0
3	18	7	36	964	20.0	-160616.0	-9843.0	28249.0
3	18	7	36	974	21.0	-160524.0	-9826.0	31913.0
3	18	7	36	975	22.0	-160492.0	-9565.0	22829.0
3	18	7	36	975	23.0	-160421.0	-12079.0	7366.0
3	18	7	37	45	24.0	-160275.0	-13222.0	-4550.0
3	18	7	37	45	25.0	-160394.0	-19562.0	-9567.0
3	18	7	37	46	26.0	-160293.0	-28398.0	-8252.0
3	18	7	37	47	27.0	-160516.0	-37180.0	-5216.0
3	18	7	37	47	28.0	-160668.0	-46354.0	1220.0
3	18	7	37	48	29.0	-160385.0	-53476.0	16386.0
3	18	7	37	48	30.0	-160771.0	-58054.0	32104.0
3	18	7	37	49	31.0	-160231.0	-65930.0	33030.0
3	18	7	37	50	32.0	-160478.0	-73252.0	22827.0
3	18	7	37	50	33.0	-160452.0	-85229.0	7193.0
3	18	7	37	51	34.0	-160254.0	-104029.0	-4568.0
3	18	7	37	51	35.0	-160562.0	-112721.0	-9727.0
3	18	7	37	52	36.0	-160332.0	-119800.0	-8986.0
3	18	7	37	52	37.0	-160439.0	-125513.0	-7179.0
3	18	7	37	53	38.0	-160531.0	-129987.0	-2146.0
3	18	7	37	54	62.0	-160238.0	-253772.0	1260.0
3	18	7	37	54	63.0	-160068.0	-257339.0	-12794.0
3	18	7	37	55	64.0	-160077.0	-261825.0	-23244.0
3	18	7	37	56	65.0	-160124.0	-266532.0	-27097.0
3	18	7	37	57	66.0	-160196.0	-271447.0	-26630.0
3	18	7	37	58	67.0	-160204.0	-277181.0	-22592.0
3	18	7	37	89	68.0	-160349.0	-282742.0	-14941.0
3	18	7	37	90	69.0	-160376.0	-288846.0	-486.0
3	18	7	37	107	70.0	-160264.0	-294876.0	10332.0
3	18	7	37	107	71.0	-160191.0	-299075.0	8404.0
3	18	7	37	108	72.0	-160126.0	-303002.0	-4477.0
3	18	7	37	108	73.0	-160166.0	-307451.0	-21564.0
3	18	7	37	109	74.0	-160312.0	-312868.0	-33609.0
3	18	7	37	109	75.0	-160319.0	-319048.0	-36597.0
3	18	7	37	110	76.0	-160249.0	-326122.0	-34722.0
3	18	7	37	110	77.0	-160210.0	-342845.0	-31742.0
3	18	7	37	111	78.0	-160246.0	-353514.0	-24270.0
3	18	7	37	112	79.0	-160386.0	-359359.0	-8736.0
3	18	7	37	112	80.0	-160470.0	-365198.0	2324.0
3	18	7	37	113	81.0	-160308.0	-369149.0	1243.0
3	18	7	37	113	82.0	-160328.0	-373507.0	-9300.0
3	18	7	37	114	84.0	-160135.0	-383712.0	-31559.0
3	18	7	37	114	85.0	-160083.0	-386207.0	-33547.0
3	18	7	37	115	86.0	-160055.0	-388955.0	-32101.0
3	18	7	37	115	87.0	-160028.0	-394605.0	-28311.0
3	18	7	37	116	88.0	-159977.0	-400152.0	-20826.0
3	18	7	37	116	89.0	-160091.0	-405241.0	-4462.0
3	18	7	37	117	90.0	-160265.0	-410629.0	9818.0
3	18	7	37	133	91.0	-160346.0	-415295.0	10614.0
3	18	7	37	134	92.0	-160507.0	-417686.0	2073.0
3	18	7	37	135	93.0	-160590.0	-418909.0	-9434.0
3	18	7	37	135	94.0	-160536.0	-411297.0	-17881.0
3	18	7	37	136	95.0	-160604.0	-413505.0	-19943.0
3	18	7	37	136	96.0	-160591.0	-420526.0	-16157.0
3	18	7	37	137	97.0	-160463.0	-426685.0	-9071.0
3	18	7	37	138	98.0	-160381.0	-433264.0	1221.0
3	18	7	37	138	99.0	-160301.0	-439605.0	18155.0
3	18	7	37	139	100.0	-160177.0	-445246.0	31127.0
3	18	7	37	139	101.0	-160309.0	-450442.0	31960.0
3	18	7	37	140	102.0	-160373.0	-453571.0	22656.0
3	18	7	37	140	103.0	-160546.0	-457739.0	10573.0
3	18	7	37	141	104.0	-160800.0	-463406.0	4486.0
3	18	7	37	141	105.0	-160997.0	-470441.0	5368.0
3	18	7	37	142	107.0	-160796.0	-484519.0	18304.0
3	18	7	37	143	108.0	-160706.0	-490237.0	28597.0
3	18	7	37	143	109.0	-160857.0	-494828.0	46654.0
3	18	7	37	144	110.0	-160749.0	-501717.0	57669.0
3	18	7	37	144	111.0	-160744.0	-511736.0	56098.0
3	18	7	37	156	112.0	-160843.0	-529596.0	45075.0
3	18	7	37	194	113.0	-160317.0	-536724.0	33801.0
3	18	7	37	208	114.0	-160416.0	-542772.0	29282.0
3	18	7	37	209	115.0	-160318.0	-549323.0	32994.0
3	18	7	37	209	116.0	-160290.0	-555821.0	37248.0
3	18	7	37	240	117.0	-160279.0	-563598.0	43596.0
3	18	7	37	240	118.0	-160100.0	-570516.0	53775.0
3	18	7	37	241	119.0	-160251.0	-573976.0	70921.0
3	18	7	37	241	120.0	-159838.0	-578509.0	83124.0
3	18	7	37	242	121.0	-159774.0	-584648.0	85688.0
3	18	7	37	243	122.0	-159869.0	-590513.0	80707.0
3	18	7	37	243	123.0	-159716.0	-593344.0	73986.0
3	18	7	37	244	124.0	-159921.0	-596874.0	73044.0
3	18	7	37	244	125.0	-159977.0	-602615.0	79028.0
3	18	7	37	245	126.0	-160130.0	-608305.0	85461.0
3	18	7	37	246	127.0	-160409.0	-613447.0	94189.0
3	18	7	37	246	137.0	-160712.0	-664849.0	174561.0
3	18	7	37	247	144.0	-160786.0	-696857.0	225906.0
3	18	7	37	247	145.0	-160769.0	-701080.0	230415.0
3	18	7	37	248	146.0	-160567.0	-705636.0	237451.0
3	18	7	37	249	152.0	-160167.0	-730670.0	279830.0
3	18	7	37	249	159.0	-160312.0	-755004.0	296404.0
3	18	7	37	250	160.0	-160359.0	-757562.0	297027.0
3	18	7	37	250	161.0	-160344.0	-760007.0	291126.0
3	18	7	37	258	162.0	-160347.0	-762759.0	282450.0
3	18	7	37	259	163.0	-160397.0	-765637.0	273581.0
3	18	7	37	259	164.0	-160306.0	-767460.0	265874.0
3	18	7	37	260	165.0	-160161.0	-768151.0	261364.0
3	18	7	37	261	166.0	-160216.0	-770403.0	258578.0
3	18	7	37	261	167.0	-160407.0	-772158.0	255449.0
3	18	7	37	281	168.0	-160550.0	-773457.0	253757.0
3	18	7	37	283	169.0	-160529.0	-776415.0	254787.0
3	18	7	37	285	170.0	-160516.0	-784731.0	252789.0
3	18	7	37	286	171.0	-160433.0	-791489.0	247331.0
3	18	7	37	288	172.0	-160156.0	-793757.0	236878.0
3	18	7	37	290	173.0	-160117.0	-795705.0	227472.0
3	18	7	37	291	174.0	-160169.0	-796647.0	221588.0
3	18	7	37	293	175.0	-160139.0	-797118.0	218626.0
3	18	7	37	295	176.0	-160132.0	-798643.0	217224.0
3	18	7	37	295	177.0	-160174.0	-811672.0	217226.0
3	18	7	37	296	178.0	-160341.0	-819973.0	216099.0
3	18	7	37	296	179.0	-160527.0	-819747.0	215614.0
3	18	7	37	297	180.0	-160567.0	-818184.0	213036.0
3	18	7	37	298	181.0	-160667.0	-819266.0	208482.0
3	18	7	37	298	182.0	-160666.0	-820992.0	201575.0
3	18	7	37	299	183.0	-160591.0	-822514.0	193444.0
3	18	7	37	300	184.0	-160606.0	-824323.0	186684.0
3	18	7	37	300	185.0	-160462.0	-826161.0	183849.0
3	18	7	37	301	186.0	-160277.0	-833747.0	182196.0
3	18	7	37	302	187.0	-160238.0	-845686.0	181173.0
3	18	7	37	302	188.0	-160502.0	-855498.0	180902.0
3	18	7	37	303	189.0	-160716.0	-867065.0	182158.0
3	18	7	37	303	190.0	-160861.0	-867473.0	180754.0
3	18	7	37	314	191.0	-161091.0	-868146.0	177773.0
3	18	7	37	314	192.0	-161105.0	-868367.0	172900.0
3	18	7	37	315	193.0	-161048.0	-868486.0	166513.0
3	18	7	37	345	194.0	-161121.0	-868299.0	161913.0
3	18	7	37	345	195.0	-161279.0	-867902.0	160329.0
3	18	7	37	346	196.0	-161366.0	-866894.0	159117.0
3	18	7	37	347	197.0	-161373.0	-865551.0	158666.0
3	18	7	37	348	198.0	-161487.0	-864031.0	157711.0
3	18	7	37	348	199.0	-161473.0	-861695.0	156164.0
3	18	7	37	350	200.0	-161302.0	-858248.0	153806.0
3	18	7	37	351	201.0	-161151.0	-847396.0	151666.0
3	18	7	37	352	202.0	-161001.0	-826564.0	148808.0
3	18	7	37	352	203.0	-160922.0	-805568.0	146925.0
3	18	7	37	353	204.0	-160834.0	-784048.0	145114.0
3	18	7	37	353	205.0	-160762.0	-762455.0	142848.0
3	18	7	37	354	206.0	-160691.0	-744439.0	139998.0
3	18	7	37	355	207.0	-160579.0	-731398.0	137524.0
3	18	7	37	355	208.0	-160544.0	-712436.0	135279.0
3	18	7	37	356	209.0	-160419.0	-661152.0	133396.0
3	18	7	37	356	212.0	-160194.0	-488917.0	129509.0
3	18	7	37	357	213.0	-160172.0	-440454.0	127692.0
3	18	7	37	358	214.0	-160239.0	-392547.0	124486.0
3	18	7	37	358	215.0	-160319.0	-338567.0	123004.0
3	18	7	37	359	216.0	-160462.0	-332647.0	121475.0
3	18	7	37	360	217.0	-160624.0	-334688.0	120237.0
3	18	7	37	360	218.0	-160767.0	-335733.0	118484.0
3	18	7	37	361	219.0	-160896.0	-333851.0	115006.0
3	18	7	37	374	220.0	-160987.0	-332443.0	111426.0
3	18	7	37	375	221.0	-161060.0	-327689.0	109931.0
3	18	7	37	375	222.0	-161089.0	-313673.0	108698.0
3	18	7	37	376	223.0	-161087.0	-308676.0	108413.0
3	18	7	37	377	224.0	-161107.0	-310519.0	107252.0
3	18	7	37	377	225.0	-161624.0	-309789.0	104115.0
3	18	7	37	378	226.0	-161623.0	-311867.0	100383.0
3	18	7	37	378	227.0	-161109.0	-313947.0	97379.0
3	18	7	37	379	228.0	-160984.0	-318577.0	93196.0
3	18	7	37	392	229.0	-160906.0	-322386.0	88578.0
3	18	7	37	393	230.0	-160885.0	-324974.0	85156.0
3	18	7	37	393	231.0	-160934.0	-330706.0	84143.0
3	18	7	37	394	232.0	-160904.0	-338010.0	86444.0
3	18	7	37	394	233.0	-160841.0	-344974.0	87409.0
3	18	7	37	395	234.0	-160663.0	-348873.0	85218.0
3	18	7	37	415	235.0	-160525.0	-347106.0	83539.0
3	18	7	37	416	236.0	-160504.0	-340416.0	81725.0
3	18	7	37	417	237.0	-160375.0	-344937.0	79642.0
3	18	7	37	417	238.0	-160318.0	-351528.0	76098.0
3	18	7	37	418	239.0	-160231.0	-356877.0	68048.0
3	18	7	37	418	240.0	-160140.0	-361425.0	62154.0
3	18	7	37	419	241.0	-160177.0	-366819.0	61996.0
3	18	7	37	420	242.0	-160247.0	-373544.0	64634.0
3	18	7	37	420	243.0	-160075.0	-379893.0	65033.0
3	18	7	37	421	244.0	-159736.0	-385985.0	63864.0
3	18	7	37	421	245.0	-159621.0	-391761.0	59901.0
3	18	7	37	422	246.0	-159634.0	-396675.0	55654.0
3	18	7	37	422	247.0	-159759.0	-401286.0	52270.0
3	18	7	37	423	248.0	-159707.0	-405072.0	44187.0
3	18	7	37	424	249.0	-159797.0	-407497.0	33098.0
3	18	7	37	449	250.0	-159802.0	-408544.0	27326.0
3	18	7	37	449	251.0	-159734.0	-413516.0	26764.0
3	18	7	37	450	252.0	-159786.0	-419549.0	32974.0
3	18	7	37	451	253.0	-159884.0	-425711.0	35204.0
3	18	7	37	451	254.0	-160010.0	-439602.0	33451.0
3	18	7	37	452	255.0	-160011.0	-454161.0	29204.0
3	18	7	37	453	0.0	-160129.0	-460949.0	23304.0
3	18	7	37	453	1.0	-160153.0	-466734.0	14011.0
3	18	7	37	454	2.0	-160137.0	-470256.0	258.0
3	18	7	37	455	3.0	-160052.0	-474462.0	-13780.0
3	18	7	37	455	4.0	-160072.0	-478899.0	-21317.0
3	18	7	37	456	5.0	-160116.0	-483706.0	-20432.0
3	18	7	37	456	6.0	-160114.0	-488464.0	-13149.0
3	18	7	37	457	7.0	-160214.0	-492837.0	-10146.0
3	18	7	37	458	8.0	-160237.0	-496713.0	-11815.0
3	18	7	37	458	9.0	-160369.0	-498945.0	-16073.0
3	18	7	37	459	10.0	-160406.0	-501101.0	-21102.0
3	18	7	37	459	11.0	-160406.0	-505256.0	-31632.0
3	18	7	37	471	12.0	-160559.0	-515784.0	-52105.0
3	18	7	37	471	13.0	-160777.0	-519952.0	-73778.0
3	18	7	37	472	14.0	-160949.0	-521419.0	-82859.0
3	18	7	37	473	15.0	-161010.0	-524696.0	-80029.0
3	18	7	37	494	16.0	-160652.0	-528755.0	-72981.0
3	18	7	37	495	17.0	-160529.0	-531361.0	-71992.0
3	18	7	37	495	18.0	-160122.0	-534989.0	-74114.0
3	18	7	37	496	19.0	-160090.0	-538632.0	-77458.0
3	18	7	37	496	20.0	-160686.0	-541600.0	-70184.0
3	18	7	37	497	21.0	-159956.0	-545046.0	16213.0
3	18	7	37	498	22.0	-160088.0	-547394.0	88533.0
3	18	7	37	498	23.0	-160074.0	-549207.0	92994.0
3	18	7	37	499	24.0	-161015.0	-549950.0	125721.0
3	18	7	37	499	25.0	-161678.0	-552131.0	197157.0
3	18	7	37	500	26.0	-160969.0	-555854.0	271979.0
3	18	7	37	500	27.0	-161434.0	-560273.0	318898.0
3	18	7	37	501	28.0	-161987.0	-564405.0	326997.0
3	18	7	37	501	29.0	-161807.0	-567021.0	316363.0
3	18	7	37	502	30.0	-161417.0	-569573.0	298153.0
3	18	7	37	517	31.0	-161488.0	-574087.0	274286.0
3	18	7	37	517	32.0	-161586.0	-579000.0	238013.0
3	18	7	37	518	33.0	-161492.0	-581754.0	199416.0
3	18	7	37	519	34.0	-161510.0	-585122.0	177389.0
3	18	7	37	519	35.0	-161239.0	-588829.0	174268.0
3	18	7	37	520	36.0	-159264.0	-594136.0	182075.0
3	18	7	37	520	37.0	-162069.0	-600239.0	183282.0
3	18	7	37	521	38.0	-162400.0	-605192.0	176000.0
3	18	7	37	521	39.0	-161719.0	-608056.0	163284.0
3	18	7	37	541	40.0	-161469.0	-611752.0	148580.0
3	18	7	37	542	41.0	-161498.0	-614741.0	127377.0
3	18	7	37	543	42.0	-161187.0	-616697.0	91094.0
3	18	7	37	543	43.0	-161106.0	-619223.0	56089.0
3	18	7	37	544	44.0	-162071.0	-622047.0	40838.0
3	18	7	37	544	45.0	-162034.0	-626606.0	48083.0
3	18	7	37	545	46.0	-162337.0	-633379.0	68022.0
3	18	7	37	569	47.0	-163388.0	-637287.0	77204.0
3	18	7	37	569	48.0	-163957.0	-643476.0	74461.0
3	18	7	37	570	49.0	-163816.0	-656329.0	67338.0
3	18	7	37	571	50.0	-163744.0	-660092.0	55889.0
3	18	7	37	571	51.0	-163243.0	-661482.0	36997.0
3	18	7	37	572	52.0	-162183.0	-664247.0	199.0
3	18	7	37	572	53.0	-161197.0	-677184.0	-34420.0
3	18	7	37	573	54.0	-160406.0	-681958.0	-43742.0
3	18	7	37	574	55.0	-159524.0	-683129.0	-26124.0
3	18	7	37	574	56.0	-157204.0	-684386.0	5277.0
3	18	7	37	575	57.0	-157882.0	-686226.0	20886.0
3	18	7	37	576	58.0	-159474.0	-689349.0	22264.0
3	18	7	37	576	59.0	-160719.0	-693375.0	16409.0
3	18	7	37	577	60.0	-160916.0	-697196.0	7058.0
3	18	7	37	577	61.0	-161336.0	-698945.0	-10219.0
3	18	7	37	578	68.0	-160218.0	-655574.0	-5677.0
3	18	7	37	579	69.0	-160363.0	-652588.0	-9952.0
3	18	7	37	579	70.0	-160581.0	-661757.0	-18657.0
3	18	7	37	580	71.0	-160792.0	-663036.0	-37154.0
3	18	7	37	587	72.0	-160891.0	-656809.0	-80347.0
3	18	7	37	588	73.0	-160734.0	-652812.0	-115764.0
3	18	7	37	589	74.0	-160647.0	-649797.0	-118537.0
3	18	7	37	589	75.0	-160662.0	-645426.0	-87549.0
3	18	7	37	610	76.0	-160554.0	-637894.0	-45814.0
3	18	7	37	611	77.0	-160526.0	-625757.0	-23723.0
3	18	7	37	612	78.0	-160282.0	-608407.0	-17735.0
3	18	7	37	613	79.0	-159067.0	-550889.0	-20584.0
3	18	7	37	613	80.0	-158549.0	-436116.0	-29492.0
3	18	7	37	614	81.0	-157229.0	-318879.0	-47032.0
3	18	7	37	614	82.0	-159331.0	-274967.0	-89936.0
3	18	7	37	615	83.0	-161827.0	-273085.0	-123212.0
3	18	7	37	616	84.0	-164839.0	-278804.0	-122118.0
3	18	7	37	616	85.0	-166449.0	-289240.0	-83879.0
3	18	7	37	617	86.0	-166200.0	-300147.0	-37224.0
3	18	7	37	617	87.0	-164750.0	-310654.0	-13462.0
3	18	7	37	618	88.0	-162931.0	-321918.0	-7811.0
3	18	7	37	618	89.0	-162035.0	-331712.0	-9687.0
3	18	7	37	619	90.0	-161190.0	-339292.0	-15132.0
3	18	7	37	620	91.0	-160324.0	-346567.0	-33850.0
3	18	7	37	633	92.0	-159831.0	-348477.0	-79544.0
3	18	7	37	634	93.0	-159554.0	-343904.0	-110816.0
3	18	7	37	635	94.0	-159546.0	-341990.0	-105889.0
3	18	7	37	635	95.0	-159654.0	-344420.0	-64417.0
3	18	7	37	636	96.0	-159222.0	-344227.0	-16418.0
3	18	7	37	637	97.0	-157806.0	-342946.0	6049.0
3	18	7	37	637	98.0	-158368.0	-348215.0	10894.0
3	18	7	37	638	99.0	-159916.0	-355849.0	9989.0
3	18	7	37	674	100.0	-161174.0	-363123.0	4419.0
3	18	7	37	675	101.0	-162066.0	-369360.0	-15080.0
3	18	7	37	675	102.0	-162123.0	-372638.0	-64151.0
3	18	7	37	676	103.0	-161531.0	-372669.0	-97270.0
3	18	7	37	677	104.0	-160579.0	-368887.0	-90970.0
3	18	7	37	677	105.0	-159679.0	-362737.0	-47332.0
3	18	7	37	678	106.0	-159095.0	-360316.0	133.0
3	18	7	37	679	107.0	-158906.0	-360206.0	22778.0
3	18	7	37	679	108.0	-159007.0	-362045.0	28072.0
3	18	7	37	680	109.0	-158889.0	-366458.0	26194.0
3	18	7	37	689	110.0	-159147.0	-373662.0	19135.0
3	18	7	37	689	111.0	-161696.0	-380537.0	-3494.0
3	18	7	37	690	112.0	-163735.0	-386556.0	-54102.0
3	18	7	37	691	113.0	-162549.0	-393726.0	-84834.0
3	18	7	37	691	114.0	-160764.0	-403677.0	-77107.0
3	18	7	37	692	115.0	-159732.0	-424654.0	-31920.0
3	18	7	37	693	120.0	-166109.0	-346375.0	35633.0
3	18	7	37	693	121.0	-163658.0	-295989.0	14894.0
3	18	7	37	694	122.0	-161895.0	-301964.0	-34901.0
3	18	7	37	710	123.0	-160948.0	-309512.0	-65082.0
3	18	7	37	711	124.0	-160470.0	-304794.0	-56704.0
3	18	7	37	712	125.0	-160210.0	-295096.0	-10587.0
3	18	7	37	712	126.0	-160171.0	-280514.0	34356.0
3	18	7	37	713	127.0	-160094.0	-266712.0	52568.0
3	18	7	37	714	128.0	-160070.0	-270210.0	56419.0
3	18	7	37	714	129.0	-160136.0	-276116.0	54331.0
3	18	7	37	715	130.0	-160178.0	-283532.0	47395.0
3	18	7	37	715	131.0	-160129.0	-287301.0	23962.0
3	18	7	37	716	132.0	-160221.0	-281275.0	-27867.0
3	18	7	37	716	133.0	-160464.0	-288036.0	-58322.0
3	18	7	37	717	134.0	-160615.0	-298052.0	-50086.0
3	18	7	37	718	135.0	-160546.0	-309472.0	-3267.0
3	18	7	37	718	136.0	-160522.0	-319901.0	40428.0
3	18	7	37	719	137.0	-160565.0	-328476.0	56816.0
3	18	7	37	719	138.0	-160630.0	-335222.0	57682.0
3	18	7	37	720	139.0	-160641.0	-341103.0	53737.0
3	18	7	37	720	140.0	-160552.0	-348390.0	44561.0
3	18	7	37	721	141.0	-160477.0	-356938.0	16229.0
3	18	7	37	722	142.0	-160459.0	-358642.0	-39299.0
3	18	7	37	733	143.0	-160236.0	-362820.0	-68722.0
3	18	7	37	734	144.0	-160212.0	-371655.0	-57486.0
3	18	7	37	735	145.0	-160261.0	-381914.0	-8434.0
3	18	7	37	735	146.0	-160142.0	-389619.0	34613.0
3	18	7	37	736	147.0	-159965.0	-394071.0	48496.0
3	18	7	37	737	148.0	-159732.0	-397716.0	48536.0
3	18	7	37	737	149.0	-159624.0	-401647.0	44051.0
3	18	7	37	738	150.0	-159714.0	-407142.0	33638.0
3	18	7	37	738	151.0	-159759.0	-411571.0	3468.0
3	18	7	37	739	152.0	-159809.0	-416003.0	-54249.0
3	18	7	37	756	153.0	-159887.0	-422589.0	-83841.0
3	18	7	37	757	154.0	-159996.0	-430812.0	-73997.0
3	18	7	37	757	155.0	-160128.0	-439216.0	-23859.0
3	18	7	37	758	156.0	-160187.0	-447419.0	19246.0
3	18	7	37	758	157.0	-160121.0	-454056.0	33779.0
3	18	7	37	759	158.0	-160084.0	-459375.0	35551.0
3	18	7	37	778	159.0	-159829.0	-463918.0	30424.0
3	18	7	37	779	160.0	-159733.0	-469437.0	19935.0
3	18	7	37	779	161.0	-159596.0	-482269.0	-11868.0
3	18	7	37	780	162.0	-159371.0	-491762.0	-70054.0
3	18	7	37	781	163.0	-159271.0	-497292.0	-96698.0
3	18	7	37	781	164.0	-159233.0	-504382.0	-83627.0
3	18	7	37	782	165.0	-159241.0	-516382.0	-30114.0
3	18	7	37	801	166.0	-159127.0	-527131.0	12969.0
3	18	7	37	801	167.0	-159141.0	-532482.0	25971.0
3	18	7	37	802	168.0	-159652.0	-537253.0	25743.0
3	18	7	37	802	169.0	-159452.0	-541521.0	20287.0
3	18	7	37	824	170.0	-159702.0	-545682.0	10029.0
3	18	7	37	824	171.0	-160056.0	-546479.0	-23437.0
3	18	7	37	825	172.0	-160202.0	-535716.0	-83646.0
3	18	7	37	825	173.0	-160322.0	-536041.0	-110339.0
3	18	7	37	826	174.0	-160241.0	-540722.0	-93746.0
3	18	7	37	826	175.0	-160294.0	-546924.0	-37727.0
3	18	7	37	827	176.0	-160354.0	-553569.0	5058.0
3	18	7	37	827	177.0	-160540.0	-559079.0	18570.0
3	18	7	37	828	178.0	-160650.0	-563748.0	18212.0
3	18	7	37	828	179.0	-160654.0	-568456.0	13635.0
3	18	7	37	829	180.0	-160652.0	-572444.0	2104.0
3	18	7	37	829	181.0	-160714.0	-575631.0	-36216.0
3	18	7	37	830	182.0	-160676.0	-578757.0	-97072.0
3	18	7	37	831	183.0	-160602.0	-583412.0	-123379.0
3	18	7	37	831	184.0	-160602.0	-587837.0	-104351.0
3	18	7	37	832	187.0	-160716.0	-601741.0	11383.0
3	18	7	37	832	188.0	-160745.0	-604646.0	11841.0
3	18	7	37	833	189.0	-160579.0	-607702.0	7328.0
3	18	7	37	833	190.0	-160562.0	-610032.0	-5254.0
3	18	7	37	834	191.0	-160519.0	-608496.0	-46403.0
3	18	7	37	834	192.0	-160296.0	-608144.0	-111404.0
3	18	7	37	835	193.0	-160505.0	-612150.0	-135864.0
3	18	7	37	835	194.0	-160150.0	-616847.0	-112246.0
3	18	7	37	836	195.0	-160026.0	-620769.0	-49153.0
3	18	7	37	853	196.0	-160616.0	-623636.0	-6984.0
3	18	7	37	854	197.0	-160584.0	-626230.0	4789.0
3	18	7	37	855	198.0	-160259.0	-629891.0	5401.0
3	18	7	37	855	199.0	-160019.0	-633374.0	-211.0
3	18	7	37	856	200.0	-159859.0	-636274.0	-12974.0
3	18	7	37	856	201.0	-159902.0	-638454.0	-55367.0
3	18	7	37	857	202.0	-159849.0	-640576.0	-120387.0
3	18	7	37	873	203.0	-159826.0	-643619.0	-143861.0
3	18	7	37	874	204.0	-159659.0	-647500.0	-117244.0
3	18	7	37	874	205.0	-159492.0	-651689.0	-48970.0
3	18	7	37	875	206.0	-159496.0	-653679.0	-4980.0
3	18	7	37	875	207.0	-159528.0	-654849.0	7001.0
3	18	7	37	876	208.0	-159451.0	-654443.0	9008.0
3	18	7	37	876	209.0	-159476.0	-656150.0	4016.0
3	18	7	37	877	210.0	-159736.0	-658345.0	-10281.0
3	18	7	37	877	211.0	-159977.0	-660781.0	-56699.0
3	18	7	37	878	212.0	-160042.0	-657336.0	-122271.0
3	18	7	37	879	213.0	-160182.0	-657622.0	-142847.0
3	18	7	37	879	214.0	-160541.0	-662327.0	-113595.0
3	18	7	37	898	215.0	-159606.0	-666239.0	-43850.0
3	18	7	37	919	216.0	-159781.0	-669297.0	-417.0
3	18	7	37	920	217.0	-160377.0	-671911.0	10839.0
3	18	7	37	920	218.0	-160603.0	-674732.0	10351.0
3	18	7	37	921	219.0	-160632.0	-677039.0	5154.0
3	18	7	37	921	220.0	-160621.0	-670757.0	-8722.0
3	18	7	37	922	221.0	-160589.0	-665302.0	-60660.0
3	18	7	37	923	222.0	-160527.0	-667554.0	-130528.0
3	18	7	37	923	223.0	-160421.0	-670791.0	-149812.0
3	18	7	37	924	224.0	-160434.0	-673242.0	-116598.0
3	18	7	37	924	225.0	-160404.0	-676221.0	-45012.0
3	18	7	37	925	226.0	-160461.0	-679582.0	-2046.0
3	18	7	37	925	227.0	-160621.0	-682219.0	9243.0
3	18	7	37	926	228.0	-160501.0	-684386.0	10566.0
3	18	7	37	926	229.0	-159769.0	-687547.0	5281.0
3	18	7	37	927	232.0	-161033.0	-694904.0	-137159.0
3	18	7	37	928	240.0	-160373.0	-709706.0	-22985.0
3	18	7	37	928	241.0	-160237.0	-708272.0	-84805.0
3	18	7	37	929	242.0	-160148.0	-710734.0	-158356.0
3	18	7	37	929	243.0	-160033.0	-717234.0	-175185.0
3	18	7	37	930	244.0	-159889.0	-731521.0	-134094.0
3	18	7	37	931	245.0	-159777.0	-737354.0	-52602.0
3	18	7	37	931	246.0	-159853.0	-739009.0	-7647.0
3	18	7	37	932	247.0	-160038.0	-741048.0	999.0
3	18	7	37	932	248.0	-159960.0	-743002.0	-2445.0
3	18	7	37	943	249.0	-159591.0	-745599.0	-10988.0
3	18	7	37	944	250.0	-159813.0	-750505.0	-28679.0
3	18	7	37	944	251.0	-159893.0	-753052.0	-93119.0
3	18	7	37	945	252.0	-160334.0	-755967.0	-166052.0
3	18	7	37	945	253.0	-159324.0	-758402.0	-179822.0
3	18	7	37	946	254.0	-158927.0	-760767.0	-132084.0
3	18	7	37	947	255.0	-159567.0	-762516.0	-48177.0
3	18	7	37	947	0.0	-160207.0	-772452.0	-5506.0
3	18	7	37	967	1.0	-160347.0	-784320.0	3769.0
3	18	7	37	967	2.0	-160112.0	-785694.0	1194.0
3	18	7	37	968	3.0	-159887.0	-787760.0	-8933.0
3	18	7	37	969	4.0	-159961.0	-789194.0	-31587.0
3	18	7	37	969	5.0	-160145.0	-790270.0	-100684.0
3	18	7	37	970	6.0	-160234.0	-791097.0	-175624.0
3	18	7	37	970	7.0	-160333.0	-792540.0	-189857.0
3	18	7	37	990	8.0	-160504.0	-794340.0	-138496.0
3	18	7	37	991	9.0	-160674.0	-795810.0	-53322.0
3	18	7	37	991	10.0	-160759.0	-796911.0	-12508.0
3	18	7	37	992	11.0	-160855.0	-796790.0	-2491.0
3	18	7	37	992	12.0	-161022.0	-796821.0	-3940.0
3	18	7	37	993	13.0	-161137.0	-796831.0	-13301.0
3	18	7	37	994	14.0	-161241.0	-796460.0	-37334.0
3	18	7	37	994	15.0	-161258.0	-796293.0	-110630.0
3	18	7	38	35	16.0	-161208.0	-796729.0	-181255.0
3	18	7	38	36	17.0	-161189.0	-788001.0	-185728.0
3	18	7	38	36	18.0	-161296.0	-781923.0	-126093.0
3	18	7	38	37	19.0	-161595.0	-785066.0	-38422.0
3	18	7	38	37	20.0	-161909.0	-785319.0	477.0
3	18	7	38	38	21.0	-162205.0	-786414.0	4926.0
3	18	7	38	39	22.0	-162505.0	-787674.0	642.0
3	18	7	38	39	23.0	-162584.0	-788489.0	-9682.0
3	18	7	38	40	24.0	-162650.0	-789434.0	-35377.0
3	18	7	38	40	25.0	-162764.0	-790702.0	-113337.0
3	18	7	38	41	26.0	-162847.0	-792708.0	-185506.0
3	18	7	38	41	27.0	-162834.0	-795462.0	-189954.0
3	18	7	38	42	28.0	-162772.0	-797503.0	-126436.0
3	18	7	38	43	29.0	-162378.0	-797090.0	-37218.0
3	18	7	38	43	30.0	-162066.0	-795403.0	276.0
3	18	7	38	44	36.0	-160494.0	-804153.0	-193319.0
3	18	7	38	44	44.0	-160034.0	-812562.0	-28555.0
3	18	7	38	45	45.0	-159959.0	-808491.0	-117296.0
3	18	7	38	46	46.0	-160002.0	-810283.0	-192526.0
3	18	7	38	54	47.0	-159581.0	-815841.0	-194792.0
3	18	7	38	55	48.0	-159626.0	-823448.0	-122238.0
3	18	7	38	55	49.0	-159857.0	-826426.0	-28102.0
3	18	7	38	56	50.0	-160447.0	-827439.0	12004.0
3	18	7	38	57	51.0	-160812.0	-829111.0	20181.0
3	18	7	38	57	52.0	-160580.0	-829892.0	18964.0
3	18	7	38	78	53.0	-159958.0	-830583.0	9639.0
3	18	7	38	79	54.0	-159647.0	-832635.0	-21731.0
3	18	7	38	79	55.0	-159659.0	-835352.0	-111484.0
3	18	7	38	80	56.0	-159684.0	-838256.0	-182185.0
3	18	7	38	81	57.0	-159624.0	-841976.0	-179055.0
3	18	7	38	81	58.0	-159622.0	-845155.0	-98981.0
3	18	7	38	82	59.0	-159390.0	-847151.0	-3226.0
3	18	7	38	82	60.0	-159271.0	-851451.0	35361.0
3	18	7	38	83	61.0	-159221.0	-853301.0	41811.0
3	18	7	38	83	62.0	-159209.0	-853148.0	39086.0
3	18	7	38	84	63.0	-159311.0	-854174.0	28838.0
3	18	7	38	84	64.0	-159179.0	-855830.0	-4575.0
3	18	7	38	85	65.0	-159254.0	-859010.0	-96519.0
3	18	7	38	85	66.0	-159134.0	-861449.0	-163944.0
3	18	7	38	86	67.0	-158787.0	-863595.0	-156824.0
3	18	7	38	101	68.0	-158951.0	-864723.0	-75356.0
3	18	7	38	101	69.0	-159213.0	-865504.0	18541.0
3	18	7	38	102	70.0	-159392.0	-865839.0	55824.0
3	18	7	38	102	71.0	-159371.0	-865795.0	63558.0
3	18	7	38	103	72.0	-159267.0	-866001.0	61945.0
3	18	7	38	103	73.0	-159199.0	-866821.0	52719.0
3	18	7	38	104	74.0	-159246.0	-878239.0	17555.0
3	18	7	38	104	75.0	-159344.0	-884679.0	-75542.0
3	18	7	38	124	76.0	-159506.0	-885103.0	-138988.0
3	18	7	38	148	77.0	-159620.0	-886833.0	-130194.0
3	18	7	38	149	78.0	-159786.0	-888431.0	-46884.0
3	18	7	38	150	79.0	-159972.0	-888653.0	41492.0
3	18	7	38	150	80.0	-160167.0	-887994.0	71446.0
3	18	7	38	151	81.0	-160271.0	-886299.0	73741.0
3	18	7	38	151	82.0	-160371.0	-885335.0	67932.0
3	18	7	38	152	83.0	-160425.0	-884845.0	55213.0
3	18	7	38	153	84.0	-160635.0	-885685.0	16164.0
3	18	7	38	153	85.0	-160733.0	-886976.0	-74374.0
3	18	7	38	154	86.0	-160756.0	-888282.0	-128739.0
3	18	7	38	154	87.0	-160790.0	-890718.0	-112408.0
3	18	7	38	155	88.0	-161020.0	-893675.0	-27781.0
3	18	7	38	155	89.0	-161297.0	-895279.0	55521.0
3	18	7	38	156	90.0	-161498.0	-900396.0	81696.0
3	18	7	38	157	91.0	-161674.0	-902061.0	81466.0
3	18	7	38	157	92.0	-161736.0	-901857.0	72899.0
3	18	7	38	158	96.0	-162129.0	-903369.0	-137728.0
3	18	7	38	158	97.0	-162076.0	-905214.0	-122247.0
3	18	7	38	159	98.0	-161906.0	-907094.0	-37889.0
3	18	7	38	159	99.0	-161714.0	-907951.0	41759.0
3	18	7	38	160	100.0	-161697.0	-907701.0	65208.0
3	18	7	38	160	101.0	-161674.0	-908099.0	63265.0
3	18	7	38	161	102.0	-161526.0	-908787.0	53836.0
3	18	7	38	162	103.0	-161101.0	-909200.0	37296.0
3	18	7	38	162	104.0	-161927.0	-910073.0	-10366.0
3	18	7	38	172	105.0	-161055.0	-909996.0	-107522.0
3	18	7	38	172	106.0	-161251.0	-910896.0	-160497.0
3	18	7	38	173	107.0	-161244.0	-913247.0	-141030.0
3	18	7	38	174	108.0	-161029.0	-915894.0	-51274.0
3	18	7	38	174	109.0	-160712.0	-917049.0	30193.0
3	18	7	38	175	110.0	-160594.0	-917024.0	54293.0
3	18	7	38	175	111.0	-160374.0	-916702.0	53993.0
3	18	7	38	176	112.0	-160096.0	-917125.0	45553.0
3	18	7	38	195	113.0	-160009.0	-917190.0	29384.0
3	18	7	38	196	114.0	-159966.0	-917122.0	-20297.0
3	18	7	38	197	115.0	-159881.0	-918136.0	-120258.0
3	18	7	38	197	116.0	-159958.0	-919915.0	-171249.0
3	18	7	38	198	117.0	-159992.0	-921831.0	-148972.0
3	18	7	38	198	118.0	-159971.0	-922796.0	-55170.0
3	18	7	38	199	119.0	-160028.0	-921042.0	27950.0
3	18	7	38	200	120.0	-160056.0	-919861.0	54159.0
3	18	7	38	200	121.0	-160006.0	-919339.0	55776.0
3	18	7	38	201	122.0	-159977.0	-918871.0	46841.0
3	18	7	38	201	123.0	-160017.0	-920139.0	29648.0
3	18	7	38	202	124.0	-160039.0	-920712.0	-23848.0
3	18	7	38	203	125.0	-160067.0	-920444.0	-126296.0
3	18	7	38	203	126.0	-160082.0	-921433.0	-176439.0
3	18	7	38	204	127.0	-160025.0	-922216.0	-151824.0
3	18	7	38	221	128.0	-159972.0	-922469.0	-54152.0
3	18	7	38	221	129.0	-159975.0	-922512.0	28136.0
3	18	7	38	222	130.0	-159969.0	-923601.0	52939.0
3	18	7	38	222	131.0	-160038.0	-924474.0	55254.0
3	18	7	38	223	132.0	-160041.0	-925352.0	47711.0
3	18	7	38	244	133.0	-160081.0	-927115.0	32726.0
3	18	7	38	245	134.0	-160054.0	-926456.0	-20083.0
3	18	7	38	245	135.0	-160179.0	-926331.0	-123232.0
3	18	7	38	246	136.0	-160260.0	-927279.0	-171619.0
3	18	7	38	246	137.0	-160262.0	-928656.0	-142476.0
3	18	7	38	247	138.0	-160266.0	-930377.0	-42901.0
3	18	7	38	247	139.0	-160116.0	-930140.0	36421.0
3	18	7	38	248	140.0	-159987.0	-936896.0	61178.0
3	18	7	38	249	141.0	-159945.0	-943537.0	63289.0
3	18	7	38	249	142.0	-160002.0	-943037.0	56588.0
3	18	7	38	250	143.0	-160099.0	-941109.0	41731.0
3	18	7	38	250	144.0	-160038.0	-941776.0	-13473.0
3	18	7	38	251	145.0	-159964.0	-947910.0	-115249.0
3	18	7	38	251	146.0	-160023.0	-962979.0	-159188.0
3	18	7	38	252	147.0	-159950.0	-967565.0	-128161.0
3	18	7	38	252	148.0	-159829.0	-969462.0	-27585.0
3	18	7	38	253	149.0	-159876.0	-970866.0	49741.0
3	18	7	38	268	150.0	-159891.0	-975514.0	72089.0
3	18	7	38	269	151.0	-159809.0	-980803.0	70786.0
3	18	7	38	270	152.0	-159167.0	-981064.0	62285.0
3	18	7	38	270	153.0	-160178.0	-981423.0	46882.0
3	18	7	38	271	154.0	-160606.0	-981597.0	-11310.0
3	18	7	38	271	155.0	-160420.0	-981923.0	-112488.0
3	18	7	38	272	156.0	-160127.0	-982744.0	-154829.0
3	18	7	38	272	157.0	-159977.0	-986628.0	-122249.0
3	18	7	38	273	158.0	-160018.0	-989070.0	-22948.0
3	18	7	38	274	159.0	-160046.0	-989506.0	50649.0
3	18	7	38	274	160.0	-160013.0	-989590.0	72317.0
3	18	7	38	275	161.0	-160454.0	-989982.0	73577.0
3	18	7	38	275	162.0	-160677.0	-990361.0	67099.0
3	18	7	38	276	163.0	-160620.0	-990384.0	51557.0
3	18	7	38	277	164.0	-160509.0	-988654.0	-9082.0
3	18	7	38	292	165.0	-160510.0	-987532.0	-108645.0
3	18	7	38	293	166.0	-160516.0	-987974.0	-145959.0
3	18	7	38	294	167.0	-160434.0	-988477.0	-111033.0
3	18	7	38	294	168.0	-160437.0	-988702.0	-12919.0
3	18	7	38	295	169.0	-160549.0	-987489.0	56109.0
3	18	7	38	295	170.0	-160617.0	-986649.0	74698.0
3	18	7	38	296	171.0	-160613.0	-996373.0	76049.0
3	18	7	38	296	172.0	-160604.0	-1001881.0	70196.0
3	18	7	38	316	173.0	-160557.0	-1001163.0	52678.0
3	18	7	38	316	174.0	-160760.0	-1000048.0	-9743.0
3	18	7	38	317	175.0	-161000.0	-999799.0	-105378.0
3	18	7	38	318	176.0	-161117.0	-1001110.0	-138255.0
3	18	7	38	318	177.0	-160969.0	-1002196.0	-99961.0
3	18	7	38	319	178.0	-160721.0	-1001359.0	-934.0
3	18	7	38	319	179.0	-160501.0	-1002198.0	64392.0
3	18	7	38	349	180.0	-160446.0	-1002457.0	79996.0
3	18	7	38	350	181.0	-160456.0	-1001837.0	79530.0
3	18	7	38	351	182.0	-160369.0	-1002167.0	71294.0
3	18	7	38	351	183.0	-160316.0	-1002959.0	52501.0
3	18	7	38	352	184.0	-160234.0	-1003266.0	-12359.0
3	18	7	38	353	185.0	-160124.0	-1006743.0	-107249.0
3	18	7	38	353	186.0	-160272.0	-1011876.0	-138400.0
3	18	7	38	354	187.0	-160361.0	-1013641.0	-98145.0
3	18	7	38	354	188.0	-160223.0	-1015476.0	-2519.0
3	18	7	38	355	189.0	-160132.0	-1016402.0	57557.0
3	18	7	38	356	190.0	-160198.0	-1016456.0	72001.0
3	18	7	38	356	191.0	-160229.0	-1016521.0	70796.0
3	18	7	38	357	192.0	-160301.0	-1016490.0	61639.0
3	18	7	38	358	193.0	-160437.0	-1016659.0	41888.0
3	18	7	38	358	194.0	-160554.0	-1016888.0	-23907.0
3	18	7	38	359	195.0	-160540.0	-1017282.0	-114782.0
3	18	7	38	360	201.0	-160676.0	-1027905.0	62372.0
3	18	7	38	360	202.0	-160499.0	-1029019.0	52981.0
3	18	7	38	361	203.0	-160477.0	-1030516.0	31847.0
3	18	7	38	369	204.0	-160457.0	-1030961.0	-37147.0
3	18	7	38	370	205.0	-160517.0	-1030652.0	-127109.0
3	18	7	38	370	206.0	-160543.0	-1022022.0	-153036.0
3	18	7	38	371	207.0	-160437.0	-1019159.0	-108911.0
3	18	7	38	371	208.0	-160287.0	-1021191.0	-14564.0
3	18	7	38	372	209.0	-160187.0	-1021932.0	40244.0
3	18	7	38	393	210.0	-160379.0	-1021782.0	51463.0
3	18	7	38	393	211.0	-160391.0	-1022467.0	47713.0
3	18	7	38	394	212.0	-160436.0	-1023527.0	38543.0
3	18	7	38	395	213.0	-160477.0	-1022589.0	19445.0
3	18	7	38	395	214.0	-160441.0	-1013175.0	-49498.0
3	18	7	38	396	215.0	-160412.0	-1009979.0	-137354.0
3	18	7	38	397	216.0	-160299.0	-1012777.0	-158530.0
3	18	7	38	397	217.0	-160281.0	-1015422.0	-108967.0
3	18	7	38	398	218.0	-160302.0	-1016821.0	-12806.0
3	18	7	38	398	219.0	-160287.0	-1017211.0	41493.0
3	18	7	38	399	220.0	-160323.0	-1017959.0	54749.0
3	18	7	38	399	221.0	-160266.0	-1017846.0	53544.0
3	18	7	38	400	222.0	-160143.0	-1018057.0	44798.0
3	18	7	38	401	223.0	-160297.0	-1015816.0	23811.0
3	18	7	38	401	224.0	-160400.0	-1013613.0	-47502.0
3	18	7	38	416	225.0	-160558.0	-1014079.0	-131081.0
3	18	7	38	417	226.0	-160526.0	-1014252.0	-150601.0
3	18	7	38	418	227.0	-160307.0	-1016165.0	-100387.0
3	18	7	38	418	228.0	-160334.0	-1019417.0	-7096.0
3	18	7	38	419	229.0	-160425.0	-1022547.0	42933.0
3	18	7	38	419	230.0	-160329.0	-1023696.0	53320.0
3	18	7	38	420	231.0	-160217.0	-1021417.0	51573.0
3	18	7	38	420	232.0	-160134.0	-1020006.0	43795.0
3	18	7	38	439	233.0	-160201.0	-1021359.0	21789.0
3	18	7	38	440	234.0	-160102.0	-1021729.0	-51544.0
3	18	7	38	440	235.0	-160087.0	-1023154.0	-133771.0
3	18	7	38	441	236.0	-160199.0	-1025916.0	-148442.0
3	18	7	38	441	237.0	-160287.0	-1034793.0	-95231.0
3	18	7	38	442	238.0	-160367.0	-1048403.0	-2191.0
3	18	7	38	462	239.0	-160366.0	-1051125.0	47860.0
3	18	7	38	463	240.0	-160320.0	-1051693.0	59840.0
3	18	7	38	463	241.0	-160369.0	-1052124.0	56892.0
3	18	7	38	464	242.0	-160391.0	-1052562.0	49004.0
3	18	7	38	465	243.0	-160380.0	-1053518.0	28126.0
3	18	7	38	465	244.0	-160327.0	-1054760.0	-45321.0
3	18	7	38	466	245.0	-160281.0	-1055898.0	-123443.0
3	18	7	38	466	246.0	-160279.0	-1058230.0	-134227.0
3	18	7	38	467	247.0	-160312.0	-1059777.0	-79042.0
3	18	7	38	467	248.0	-160252.0	-1061079.0	9626.0
3	18	7	38	468	249.0	-160296.0	-1062056.0	52479.0
3	18	7	38	469	250.0	-160439.0	-1062746.0	59665.0
3	18	7	38	469	251.0	-160514.0	-1063169.0	58761.0
3	18	7	38	470	252.0	-160418.0	-1063549.0	51091.0
3	18	7	38	470	253.0	-160369.0	-1064157.0	27168.0
3	18	7	38	471	254.0	-160437.0	-1064281.0	-49289.0
3	18	7	38	472	255.0	-160669.0	-1064449.0	-124625.0
3	18	7	38	472	0.0	-160745.0	-1065585.0	-135761.0
3	18	7	38	473	1.0	-160669.0	-1067887.0	-80031.0
3	18	7	38	473	2.0	-160596.0	-1070735.0	5661.0
3	18	7	38	474	3.0	-160534.0	-1071896.0	45916.0
3	18	7	38	474	4.0	-160546.0	-1072422.0	55460.0
3	18	7	38	486	5.0	-160684.0	-1073527.0	54066.0
3	18	7	38	489	6.0	-160835.0	-1073614.0	45166.0
3	18	7	38	491	7.0	-160799.0	-1074410.0	19464.0
3	18	7	38	492	8.0	-160815.0	-1072813.0	-58099.0
3	18	7	38	492	9.0	-160879.0	-1071249.0	-132560.0
3	18	7	38	493	10.0	-160909.0	-1061644.0	-141672.0
3	18	7	38	493	11.0	-160753.0	-1054144.0	-83148.0
3	18	7	38	494	12.0	-160674.0	-1056325.0	3461.0
3	18	7	38	494	13.0	-160629.0	-1057707.0	43546.0
3	18	7	38	495	14.0	-160668.0	-1058427.0	50893.0
3	18	7	38	512	15.0	-160714.0	-1061649.0	47994.0
3	18	7	38	512	16.0	-160543.0	-1063544.0	38924.0
3	18	7	38	513	17.0	-160559.0	-1064596.0	11965.0
3	18	7	38	513	18.0	-160535.0	-1065429.0	-67306.0
3	18	7	38	514	19.0	-160474.0	-1066657.0	-136089.0
3	18	7	38	515	20.0	-160387.0	-1067756.0	-142231.0
3	18	7	38	515	21.0	-160204.0	-1069448.0	-81747.0
3	18	7	38	516	22.0	-160635.0	-1070842.0	2924.0
3	18	7	38	516	23.0	-160688.0	-1071464.0	40394.0
3	18	7	38	517	24.0	-160561.0	-1072611.0	47461.0
3	18	7	38	517	25.0	-160387.0	-1072277.0	44799.0
3	18	7	38	518	26.0	-160429.0	-1071776.0	34024.0
3	18	7	38	518	27.0	-160345.0	-1071593.0	4198.0
3	18	7	38	519	28.0	-160199.0	-1070841.0	-75305.0
3	18	7	38	520	29.0	-160092.0	-1071621.0	-139769.0
3	18	7	38	537	30.0	-160191.0	-1074708.0	-141281.0
3	18	7	38	537	31.0	-160337.0	-1077445.0	-78459.0
3	18	7	38	538	32.0	-160362.0	-1079924.0	2246.0
3	18	7	38	538	33.0	-160346.0	-1081057.0	37520.0
3	18	7	38	539	34.0	-160341.0	-1080891.0	45864.0
3	18	7	38	539	35.0	-160383.0	-1081141.0	43508.0
3	18	7	38	560	36.0	-160375.0	-1081859.0	33043.0
3	18	7	38	561	37.0	-160184.0	-1082407.0	2648.0
3	18	7	38	561	38.0	-160172.0	-1082281.0	-76654.0
3	18	7	38	562	39.0	-160327.0	-1082821.0	-139554.0
3	18	7	38	562	40.0	-160437.0	-1083303.0	-140818.0
3	18	7	38	563	41.0	-160342.0	-1084728.0	-77561.0
3	18	7	38	564	42.0	-160304.0	-1086116.0	1595.0
3	18	7	38	564	43.0	-160444.0	-1087579.0	34055.0
3	18	7	38	565	44.0	-160548.0	-1089262.0	39843.0
3	18	7	38	565	45.0	-160532.0	-1089597.0	36760.0
3	18	7	38	566	46.0	-160417.0	-1089621.0	27073.0
3	18	7	38	566	47.0	-160457.0	-1090401.0	-1596.0
3	18	7	38	567	48.0	-160457.0	-1091167.0	-77052.0
3	18	7	38	568	49.0	-160317.0	-1092296.0	-134501.0
3	18	7	38	568	50.0	-160164.0	-1094189.0	-132657.0
3	18	7	38	569	51.0	-160122.0	-1097134.0	-69166.0
3	18	7	38	569	52.0	-160152.0	-1100996.0	4476.0
3	18	7	38	570	53.0	-160202.0	-1102642.0	35681.0
3	18	7	38	570	54.0	-160209.0	-1102794.0	43119.0
3	18	7	38	583	55.0	-160316.0	-1094995.0	46908.0
3	18	7	38	584	56.0	-160421.0	-1090273.0	45348.0
3	18	7	38	584	57.0	-160547.0	-1090038.0	21503.0
3	18	7	38	607	58.0	-160546.0	-1089003.0	-44524.0
3	18	7	38	607	59.0	-160362.0	-1089354.0	-89369.0
3	18	7	38	608	60.0	-160344.0	-1096326.0	-82361.0
3	18	7	38	609	61.0	-160564.0	-1103561.0	-24397.0
3	18	7	38	609	62.0	-160510.0	-1103744.0	37747.0
3	18	7	38	610	63.0	-160359.0	-1103481.0	61984.0
3	18	7	38	611	64.0	-160227.0	-1102976.0	65071.0
3	18	7	38	611	65.0	-160210.0	-1102389.0	60780.0
3	18	7	38	612	66.0	-160374.0	-1101294.0	50052.0
3	18	7	38	612	67.0	-160417.0	-1099202.0	18570.0
3	18	7	38	613	68.0	-160467.0	-1097702.0	-52107.0
3	18	7	38	613	69.0	-160421.0	-1096523.0	-96712.0
3	18	7	38	614	70.0	-160388.0	-1095866.0	-89557.0
3	18	7	38	615	71.0	-160489.0	-1094855.0	-30107.0
3	18	7	38	615	72.0	-160382.0	-1093932.0	29165.0
3	18	7	38	616	73.0	-159920.0	-1090001.0	50561.0
3	18	7	38	616	74.0	-160010.0	-1089656.0	52274.0
3	18	7	38	617	75.0	-160613.0	-1085529.0	46858.0
3	18	7	38	617	76.0	-160757.0	-1076356.0	34635.0
3	18	7	38	618	77.0	-160599.0	-1074648.0	2643.0
3	18	7	38	618	78.0	-160441.0	-1074371.0	-68781.0
3	18	7	38	619	79.0	-160362.0	-1075232.0	-112294.0
3	18	7	38	633	80.0	-160207.0	-1077039.0	-102649.0
3	18	7	38	634	81.0	-160239.0	-1078246.0	-42419.0
3	18	7	38	634	82.0	-160111.0	-1078251.0	16094.0
3	18	7	38	635	83.0	-159974.0	-1079246.0	38070.0
3	18	7	38	636	84.0	-159911.0	-1079957.0	40399.0
3	18	7	38	636	85.0	-160052.0	-1080659.0	36704.0
3	18	7	38	637	86.0	-160062.0	-1080662.0	27483.0
3	18	7	38	637	87.0	-160099.0	-1080921.0	-5772.0
3	18	7	38	638	88.0	-160153.0	-1080811.0	-78334.0
3	18	7	38	655	89.0	-160322.0	-1081874.0	-122204.0
3	18	7	38	656	90.0	-160289.0	-1083561.0	-113914.0
3	18	7	38	657	91.0	-160295.0	-1085417.0	-51123.0
3	18	7	38	657	92.0	-160279.0	-1087746.0	9791.0
3	18	7	38	658	93.0	-160459.0	-1088659.0	33024.0
3	18	7	38	658	94.0	-160616.0	-1088488.0	39073.0
3	18	7	38	659	95.0	-160807.0	-1088187.0	38313.0
3	18	7	38	679	96.0	-160847.0	-1088134.0	29782.0
3	18	7	38	702	97.0	-160836.0	-1088613.0	-7056.0
3	18	7	38	703	98.0	-160824.0	-1088709.0	-84241.0
3	18	7	38	703	99.0	-160817.0	-1089549.0	-128410.0
3	18	7	38	725	100.0	-160714.0	-1091787.0	-116316.0
3	18	7	38	726	101.0	-160837.0	-1093732.0	-48176.0
3	18	7	38	726	102.0	-160901.0	-1093932.0	14148.0
3	18	7	38	727	103.0	-160899.0	-1094209.0	37106.0
3	18	7	38	727	104.0	-160909.0	-1094501.0	40566.0
3	18	7	38	728	105.0	-160884.0	-1094778.0	34691.0
3	18	7	38	728	106.0	-160982.0	-1095430.0	22121.0
3	18	7	38	729	107.0	-161111.0	-1093046.0	-19274.0
3	18	7	38	730	108.0	-160997.0	-1090140.0	-101937.0
3	18	7	38	730	109.0	-160937.0	-1090811.0	-144662.0
3	18	7	38	731	110.0	-160929.0	-1093336.0	-128403.0
3	18	7	38	731	111.0	-160995.0	-1096584.0	-54187.0
3	18	7	38	732	112.0	-160529.0	-1097672.0	11015.0
3	18	7	38	732	117.0	-159489.0	-1101108.0	-24180.0
3	18	7	38	733	118.0	-159914.0	-1101287.0	-110956.0
3	18	7	38	733	125.0	-160683.0	-1122271.0	36828.0
3	18	7	38	734	126.0	-160441.0	-1123663.0	20180.0
3	18	7	38	734	127.0	-160279.0	-1124615.0	-32542.0
3	18	7	38	735	128.0	-160230.0	-1125762.0	-127020.0
3	18	7	38	736	129.0	-160162.0	-1127980.0	-170008.0
3	18	7	38	736	130.0	-160061.0	-1131446.0	-144910.0
3	18	7	38	737	131.0	-160174.0	-1135580.0	-55419.0
3	18	7	38	737	132.0	-160126.0	-1139269.0	18020.0
3	18	7	38	749	133.0	-160171.0	-1141884.0	44512.0
3	18	7	38	750	134.0	-160307.0	-1144707.0	48182.0
3	18	7	38	750	135.0	-160524.0	-1147419.0	41730.0
3	18	7	38	751	136.0	-160519.0	-1149269.0	24751.0
3	18	7	38	751	137.0	-160584.0	-1146125.0	-32486.0
3	18	7	38	752	138.0	-160593.0	-1142278.0	-131069.0
3	18	7	38	752	139.0	-160489.0	-1132947.0	-173293.0
3	18	7	38	753	140.0	-160385.0	-1127092.0	-144636.0
3	18	7	38	753	141.0	-160332.0	-1131389.0	-52153.0
3	18	7	38	754	142.0	-160370.0	-1135656.0	17696.0
3	18	7	38	784	143.0	-160382.0	-1138391.0	42231.0
3	18	7	38	785	144.0	-160481.0	-1140710.0	45693.0
3	18	7	38	786	145.0	-160510.0	-1142959.0	38509.0
3	18	7	38	787	146.0	-160567.0	-1144924.0	18817.0
3	18	7	38	787	147.0	-160588.0	-1146693.0	-45427.0
3	18	7	38	788	148.0	-160641.0	-1144461.0	-149036.0
3	18	7	38	789	149.0	-160725.0	-1132640.0	-191502.0
3	18	7	38	789	150.0	-160571.0	-1132621.0	-161287.0
3	18	7	38	790	151.0	-160538.0	-1136683.0	-66223.0
3	18	7	38	792	152.0	-160431.0	-1139743.0	6193.0
3	18	7	38	792	153.0	-160361.0	-1141893.0	33708.0
3	18	7	38	793	154.0	-160296.0	-1144220.0	37885.0
3	18	7	38	793	155.0	-160379.0	-1145730.0	29170.0
3	18	7	38	794	156.0	-160432.0	-1147492.0	8168.0
3	18	7	38	795	157.0	-160454.0	-1147663.0	-60934.0
3	18	7	38	795	158.0	-160395.0	-1146687.0	-168207.0
3	18	7	38	796	162.0	-160494.0	-1160082.0	10856.0
3	18	7	38	796	163.0	-160396.0	-1161989.0	37981.0
3	18	7	38	797	164.0	-160406.0	-1163564.0	40027.0
3	18	7	38	805	165.0	-160561.0	-1165169.0	31778.0
3	18	7	38	806	166.0	-160663.0	-1166991.0	9405.0
3	18	7	38	806	167.0	-160861.0	-1167972.0	-65265.0
3	18	7	38	807	168.0	-160859.0	-1168923.0	-174396.0
3	18	7	38	807	169.0	-160861.0	-1171432.0	-212744.0
3	18	7	38	808	170.0	-160839.0	-1174194.0	-169854.0
3	18	7	38	828	171.0	-160786.0	-1176080.0	-58752.0
3	18	7	38	828	172.0	-160711.0	-1178806.0	18541.0
3	18	7	38	829	173.0	-160694.0	-1181389.0	44001.0
3	18	7	38	829	174.0	-160460.0	-1183052.0	45577.0
3	18	7	38	830	175.0	-160294.0	-1184611.0	36440.0
3	18	7	38	831	176.0	-160313.0	-1187391.0	12182.0
3	18	7	38	831	177.0	-160409.0	-1189772.0	-69251.0
3	18	7	38	832	178.0	-160475.0	-1191636.0	-184304.0
3	18	7	38	832	179.0	-160308.0	-1198278.0	-223748.0
3	18	7	38	833	180.0	-160331.0	-1206221.0	-175477.0
3	18	7	38	834	181.0	-160374.0	-1211526.0	-60409.0
3	18	7	38	834	182.0	-160421.0	-1214258.0	16219.0
3	18	7	38	835	183.0	-160318.0	-1215993.0	42012.0
3	18	7	38	835	184.0	-160450.0	-1217786.0	44266.0
3	18	7	38	836	185.0	-160460.0	-1218937.0	33743.0
3	18	7	38	837	186.0	-160594.0	-1219357.0	6733.0
3	18	7	38	837	187.0	-160520.0	-1220066.0	-82112.0
3	18	7	38	838	188.0	-160432.0	-1221634.0	-198972.0
3	18	7	38	850	189.0	-160392.0	-1224536.0	-233779.0
3	18	7	38	851	190.0	-160437.0	-1226174.0	-177524.0
3	18	7	38	852	191.0	-160258.0	-1228487.0	-54616.0
3	18	7	38	852	192.0	-160474.0	-1230494.0	24534.0
3	18	7	38	873	193.0	-159552.0	-1231419.0	50158.0
3	18	7	38	874	194.0	-159211.0	-1232375.0	53058.0
3	18	7	38	874	195.0	-159784.0	-1234222.0	43974.0
3	18	7	38	875	196.0	-160407.0	-1233116.0	17751.0
3	18	7	38	875	197.0	-160811.0	-1232432.0	-72214.0
3	18	7	38	876	198.0	-160896.0	-1229501.0	-183819.0
3	18	7	38	877	199.0	-160947.0	-1229799.0	-210349.0
3	18	7	38	877	200.0	-161007.0	-1230734.0	-146722.0
3	18	7	38	878	201.0	-161339.0	-1233086.0	-24278.0
3	18	7	38	905	202.0	-161696.0	-1233916.0	49814.0
3	18	7	38	905	203.0	-162285.0	-1228239.0	71230.0
3	18	7	38	906	204.0	-163499.0	-1228175.0	69956.0
3	18	7	38	907	205.0	-163359.0	-1228117.0	56111.0
3	18	7	38	907	206.0	-162439.0	-1228304.0	24033.0
3	18	7	38	908	207.0	-161388.0	-1229819.0	-72946.0
3	18	7	38	908	208.0	-160309.0	-1232063.0	-186821.0
3	18	7	38	909	209.0	-159644.0	-1235318.0	-213084.0
3	18	7	38	910	210.0	-159757.0	-1238882.0	-147292.0
