3	18	39	52	238	184.0	-167595.0	-2417.0	306446.0
3	18	39	52	241	185.0	-166898.0	-2421.0	309507.0
3	18	39	52	244	186.0	-165437.0	-2425.0	310280.0
3	18	39	52	247	187.0	-163804.0	-2405.0	309559.0
3	18	39	52	249	188.0	-162005.0	-2402.0	306628.0
3	18	39	52	251	189.0	-160809.0	-2392.0	303605.0
3	18	39	52	253	190.0	-158134.0	-2384.0	301179.0
3	18	39	52	254	191.0	-150477.0	-2389.0	298732.0
3	18	39	52	256	192.0	-138266.0	-2371.0	295799.0
3	18	39	52	257	193.0	-134316.0	-2360.0	291444.0
3	18	39	52	258	194.0	-142837.0	-2364.0	288793.0
3	18	39	52	259	195.0	-156316.0	-2387.0	291984.0
3	18	39	52	260	196.0	-166820.0	-2376.0	294164.0
3	18	39	52	261	197.0	-176076.0	-2340.0	292361.0
3	18	39	52	262	198.0	-179241.0	-2327.0	288058.0
3	18	39	52	271	199.0	-180402.0	-2291.0	284679.0
3	18	39	52	272	200.0	-178204.0	-2285.0	283134.0
3	18	39	52	273	201.0	-174119.0	-2264.0	281694.0
3	18	39	52	273	202.0	-171887.0	-2262.0	279130.0
3	18	39	52	274	203.0	-167991.0	-2267.0	278064.0
3	18	39	52	274	204.0	-163292.0	-2251.0	278568.0
3	18	39	52	275	205.0	-160676.0	-2262.0	280788.0
3	18	39	52	275	206.0	-160700.0	-2277.0	283042.0
3	18	39	52	319	207.0	-162141.0	-2258.0	285088.0
3	18	39	52	363	208.0	-164621.0	-2210.0	282908.0
3	18	39	52	363	209.0	-168141.0	-2173.0	279360.0
3	18	39	52	364	210.0	-171376.0	-2144.0	277594.0
3	18	39	52	365	211.0	-174385.0	-2142.0	275769.0
3	18	39	52	365	212.0	-176952.0	-2125.0	273899.0
3	18	39	52	366	213.0	-178674.0	-2126.0	272498.0
3	18	39	52	366	214.0	-179123.0	-2134.0	273078.0
3	18	39	52	367	215.0	-178594.0	-2142.0	275243.0
3	18	39	52	368	216.0	-176667.0	-2121.0	278184.0
3	18	39	52	368	217.0	-172953.0	-2133.0	277555.0
3	18	39	52	369	218.0	-167834.0	-2126.0	274559.0
3	18	39	52	369	219.0	-162089.0	-2090.0	272606.0
3	18	39	52	370	220.0	-156080.0	-2067.0	271796.0
3	18	39	52	371	221.0	-149995.0	-2062.0	268398.0
3	18	39	52	371	228.0	-149652.0	-2072.0	226674.0
3	18	39	52	372	251.0	-169848.0	-2297.0	201813.0
3	18	39	52	372	252.0	-170407.0	-2276.0	197510.0
3	18	39	52	373	253.0	-170447.0	-2261.0	194959.0
3	18	39	52	373	254.0	-170890.0	-2264.0	195238.0
3	18	39	52	374	255.0	-171187.0	-2266.0	196228.0
3	18	39	52	375	0.0	-171439.0	-2262.0	196196.0
3	18	39	52	408	1.0	-171809.0	-2241.0	194448.0
3	18	39	52	408	2.0	-172490.0	-2230.0	192694.0
3	18	39	52	409	3.0	-173351.0	-2229.0	191857.0
3	18	39	52	410	4.0	-174102.0	-2244.0	190904.0
3	18	39	52	410	5.0	-174272.0	-2236.0	188893.0
3	18	39	52	411	6.0	-174044.0	-2259.0	187389.0
3	18	39	52	412	7.0	-173393.0	-2271.0	185991.0
3	18	39	52	412	8.0	-173312.0	-2286.0	186524.0
3	18	39	52	413	9.0	-173391.0	-2318.0	187001.0
3	18	39	52	413	10.0	-173506.0	-2330.0	187406.0
3	18	39	52	414	11.0	-173636.0	-2306.0	186742.0
3	18	39	52	415	12.0	-174085.0	-2307.0	185702.0
3	18	39	52	415	13.0	-174432.0	-2301.0	183986.0
3	18	39	52	416	14.0	-175193.0	-2301.0	183320.0
3	18	39	52	416	15.0	-176479.0	-2328.0	182086.0
3	18	39	52	417	17.0	-178911.0	-2324.0	179337.0
3	18	39	52	417	18.0	-179604.0	-2361.0	180294.0
3	18	39	52	418	19.0	-179843.0	-2372.0	180778.0
3	18	39	52	419	20.0	-179172.0	-2360.0	181066.0
3	18	39	52	419	21.0	-178298.0	-2326.0	180510.0
3	18	39	52	420	22.0	-176886.0	-2309.0	179273.0
3	18	39	52	420	23.0	-175008.0	-2290.0	177969.0
3	18	39	52	452	24.0	-173173.0	-2282.0	177146.0
3	18	39	52	454	25.0	-171408.0	-2272.0	175456.0
3	18	39	52	454	26.0	-167804.0	-2287.0	173645.0
3	18	39	52	455	27.0	-164914.0	-2298.0	172137.0
3	18	39	52	455	28.0	-162467.0	-2332.0	173106.0
3	18	39	52	456	29.0	-159154.0	-2363.0	174513.0
3	18	39	52	457	30.0	-156135.0	-2378.0	174572.0
3	18	39	52	457	31.0	-154204.0	-2369.0	173698.0
3	18	39	52	543	32.0	-152507.0	-2388.0	172386.0
3	18	39	52	544	33.0	-150318.0	-2405.0	171101.0
3	18	39	52	545	34.0	-149138.0	-2431.0	170253.0
3	18	39	52	545	35.0	-148447.0	-2551.0	170091.0
3	18	39	52	546	36.0	-148658.0	-2577.0	168684.0
3	18	39	52	547	37.0	-148806.0	-2539.0	168142.0
3	18	39	52	589	38.0	-149207.0	-2556.0	169354.0
3	18	39	52	589	40.0	-153432.0	-2543.0	171604.0
3	18	39	52	590	41.0	-154787.0	-2509.0	171394.0
3	18	39	52	591	42.0	-157662.0	-2474.0	170061.0
3	18	39	52	591	43.0	-158510.0	-2444.0	168789.0
3	18	39	52	592	44.0	-157782.0	-2451.0	168246.0
3	18	39	52	593	45.0	-158261.0	-2474.0	167184.0
3	18	39	52	593	46.0	-158867.0	-2465.0	165443.0
3	18	39	52	594	47.0	-159335.0	-2486.0	164306.0
3	18	39	52	594	48.0	-161681.0	-2522.0	164686.0
3	18	39	52	595	85.0	-161837.0	-3120.0	152681.0
3	18	39	52	596	86.0	-158958.0	-3129.0	151619.0
3	18	39	52	596	87.0	-154608.0	-3157.0	150989.0
3	18	39	52	597	88.0	-148119.0	-3229.0	150789.0
3	18	39	52	597	89.0	-137007.0	-3292.0	151116.0
3	18	39	52	598	107.0	-168840.0	-3747.0	131598.0
3	18	39	52	598	108.0	-162152.0	-3796.0	131926.0
3	18	39	52	599	109.0	-157064.0	-3837.0	131878.0
3	18	39	52	600	110.0	-153850.0	-3867.0	132139.0
3	18	39	52	600	111.0	-156876.0	-3874.0	131504.0
3	18	39	52	601	112.0	-161568.0	-3846.0	130532.0
3	18	39	52	633	113.0	-165883.0	-3834.0	129859.0
3	18	39	52	634	114.0	-169164.0	-3841.0	128455.0
3	18	39	52	634	115.0	-169151.0	-3847.0	126737.0
3	18	39	52	635	116.0	-165956.0	-3877.0	125052.0
3	18	39	52	653	117.0	-163109.0	-3912.0	124088.0
3	18	39	52	653	118.0	-160074.0	-3962.0	124799.0
3	18	39	52	654	119.0	-159069.0	-3987.0	124977.0
3	18	39	52	654	120.0	-158658.0	-3994.0	125465.0
3	18	39	52	655	121.0	-156326.0	-4000.0	125328.0
3	18	39	52	656	122.0	-153861.0	-3981.0	123337.0
3	18	39	52	656	123.0	-152839.0	-3987.0	121868.0
3	18	39	52	657	124.0	-149975.0	-3991.0	120708.0
3	18	39	52	657	125.0	-146374.0	-4001.0	119393.0
3	18	39	52	658	126.0	-144302.0	-4004.0	117471.0
3	18	39	52	658	127.0	-143164.0	-4047.0	116833.0
3	18	39	52	659	129.0	-139626.0	-4120.0	118009.0
3	18	39	52	660	130.0	-140127.0	-4121.0	118048.0
3	18	39	52	678	131.0	-141594.0	-4123.0	117678.0
3	18	39	52	678	132.0	-143536.0	-4126.0	116325.0
3	18	39	52	679	133.0	-145094.0	-4104.0	114912.0
3	18	39	52	680	134.0	-146778.0	-4101.0	113959.0
3	18	39	52	680	135.0	-148159.0	-4124.0	112933.0
3	18	39	52	681	136.0	-149780.0	-4121.0	111111.0
3	18	39	52	682	137.0	-149679.0	-4177.0	110081.0
3	18	39	52	682	138.0	-148469.0	-4237.0	110163.0
3	18	39	52	683	139.0	-149921.0	-4276.0	110750.0
3	18	39	52	723	140.0	-152571.0	-4284.0	110856.0
3	18	39	52	724	141.0	-153694.0	-4301.0	110849.0
3	18	39	52	724	142.0	-156775.0	-4321.0	109286.0
3	18	39	52	725	143.0	-159450.0	-4341.0	107957.0
3	18	39	52	726	144.0	-162899.0	-4337.0	106521.0
3	18	39	52	726	145.0	-166834.0	-4349.0	105405.0
3	18	39	52	727	146.0	-170857.0	-4387.0	104344.0
3	18	39	52	728	152.0	-181252.0	-4526.0	101848.0
3	18	39	52	728	153.0	-181574.0	-4551.0	100440.0
3	18	39	52	729	154.0	-180780.0	-4551.0	99042.0
3	18	39	52	729	155.0	-181217.0	-4563.0	97867.0
3	18	39	52	730	156.0	-181034.0	-4569.0	96027.0
3	18	39	52	731	157.0	-179076.0	-4582.0	94969.0
3	18	39	52	731	158.0	-179037.0	-4613.0	96128.0
3	18	39	52	732	159.0	-179457.0	-4630.0	96614.0
3	18	39	52	732	160.0	-178141.0	-4639.0	96289.0
3	18	39	52	733	175.0	-155356.0	-4864.0	82956.0
3	18	39	52	768	176.0	-153497.0	-4876.0	81549.0
3	18	39	52	768	177.0	-151826.0	-4913.0	81599.0
3	18	39	52	769	178.0	-150464.0	-4913.0	81984.0
3	18	39	52	770	179.0	-147974.0	-4929.0	82914.0
3	18	39	52	770	180.0	-146266.0	-4927.0	82968.0
3	18	39	52	771	181.0	-144052.0	-4918.0	82331.0
3	18	39	52	772	182.0	-142909.0	-4922.0	81246.0
3	18	39	52	772	183.0	-142157.0	-4936.0	80216.0
3	18	39	52	773	184.0	-141921.0	-4957.0	79058.0
3	18	39	52	773	185.0	-140170.0	-4974.0	78169.0
3	18	39	52	774	186.0	-138474.0	-4962.0	77083.0
3	18	39	52	775	187.0	-138089.0	-4988.0	77549.0
3	18	39	52	775	188.0	-137445.0	-4996.0	78587.0
3	18	39	52	776	189.0	-136654.0	-5004.0	79612.0
3	18	39	52	777	190.0	-136258.0	-5005.0	80001.0
3	18	39	52	777	191.0	-137697.0	-4968.0	79685.0
3	18	39	52	778	197.0	-153902.0	-4936.0	76354.0
3	18	39	52	778	198.0	-156021.0	-4953.0	77016.0
3	18	39	52	779	199.0	-158029.0	-4932.0	77673.0
3	18	39	52	780	200.0	-160902.0	-4863.0	77831.0
3	18	39	52	781	201.0	-163540.0	-4831.0	77234.0
3	18	39	52	781	202.0	-166172.0	-4817.0	76302.0
3	18	39	52	812	203.0	-168333.0	-4813.0	75850.0
3	18	39	52	812	204.0	-171284.0	-4797.0	74549.0
3	18	39	52	813	205.0	-172849.0	-4789.0	73545.0
3	18	39	52	814	206.0	-173979.0	-4790.0	72307.0
3	18	39	52	815	207.0	-175781.0	-4797.0	72947.0
3	18	39	52	815	208.0	-177551.0	-4822.0	73578.0
3	18	39	52	816	209.0	-179585.0	-4843.0	74282.0
3	18	39	52	816	210.0	-180266.0	-4840.0	74779.0
3	18	39	52	817	211.0	-182671.0	-4821.0	73575.0
3	18	39	52	818	212.0	-185849.0	-4834.0	72166.0
3	18	39	52	818	213.0	-187440.0	-4832.0	71129.0
3	18	39	52	819	214.0	-187768.0	-4834.0	69938.0
3	18	39	52	820	215.0	-188431.0	-4839.0	68604.0
3	18	39	52	820	216.0	-187791.0	-4843.0	67764.0
3	18	39	52	821	217.0	-185687.0	-4867.0	68278.0
3	18	39	52	821	219.0	-178262.0	-4893.0	69495.0
3	18	39	52	822	220.0	-172553.0	-4855.0	69529.0
3	18	39	52	823	221.0	-161994.0	-4806.0	68351.0
3	18	39	52	823	222.0	-148131.0	-4758.0	67150.0
3	18	39	52	824	223.0	-140451.0	-4732.0	65942.0
3	18	39	52	824	224.0	-145104.0	-4703.0	64409.0
3	18	39	52	825	225.0	-154963.0	-4692.0	62728.0
3	18	39	52	857	226.0	-168456.0	-4686.0	61737.0
3	18	39	52	858	227.0	-180549.0	-4696.0	62354.0
3	18	39	52	859	228.0	-185604.0	-4714.0	63091.0
3	18	39	52	860	229.0	-188159.0	-4706.0	63201.0
3	18	39	52	860	230.0	-186804.0	-4678.0	62945.0
3	18	39	52	861	231.0	-183284.0	-4657.0	62168.0
3	18	39	52	862	232.0	-180641.0	-4664.0	61466.0
3	18	39	52	862	233.0	-175617.0	-4661.0	60506.0
3	18	39	52	863	234.0	-170041.0	-4694.0	59113.0
3	18	39	52	863	235.0	-165095.0	-4705.0	57581.0
3	18	39	52	864	236.0	-160811.0	-4731.0	56813.0
3	18	39	52	865	237.0	-156782.0	-4743.0	56923.0
3	18	39	52	865	238.0	-154147.0	-4754.0	57732.0
3	18	39	52	866	239.0	-152103.0	-4762.0	58096.0
3	18	39	52	867	240.0	-150706.0	-4747.0	57948.0
3	18	39	52	867	242.0	-150011.0	-4704.0	55732.0
3	18	39	52	868	243.0	-150085.0	-4696.0	54681.0
3	18	39	52	868	244.0	-149113.0	-4664.0	53677.0
3	18	39	52	869	245.0	-147539.0	-4649.0	52410.0
3	18	39	52	870	246.0	-144514.0	-4648.0	51618.0
3	18	39	52	870	247.0	-140287.0	-4651.0	52183.0
3	18	39	52	948	248.0	-139337.0	-4646.0	52163.0
3	18	39	52	949	249.0	-140184.0	-4584.0	52114.0
3	18	39	52	949	250.0	-139320.0	-4547.0	52378.0
3	18	39	52	950	251.0	-140796.0	-4557.0	50576.0
3	18	39	52	951	252.0	-143138.0	-4544.0	48889.0
3	18	39	52	951	253.0	-144649.0	-4237.0	46706.0
3	18	39	52	952	254.0	-147191.0	-4225.0	43207.0
3	18	39	52	992	255.0	-149842.0	-4447.0	35303.0
3	18	39	52	993	0.0	-152969.0	-4532.0	32779.0
3	18	39	52	994	1.0	-155937.0	-4581.0	36526.0
3	18	39	52	994	2.0	-157739.0	-4596.0	40111.0
3	18	39	52	995	3.0	-158122.0	-4581.0	40860.0
3	18	39	52	996	4.0	-157519.0	-4562.0	39395.0
3	18	39	52	996	5.0	-156349.0	-4531.0	36076.0
3	18	39	52	997	6.0	-155180.0	-4521.0	33768.0
3	18	39	52	998	30.0	-147089.0	-4486.0	21959.0
3	18	39	52	998	31.0	-148379.0	-4484.0	23519.0
3	18	39	52	999	32.0	-150064.0	-4459.0	24486.0
3	18	39	52	999	33.0	-152127.0	-4411.0	24280.0
3	18	39	53	0	34.0	-153849.0	-4371.0	23049.0
3	18	39	53	1	35.0	-155571.0	-4351.0	20606.0
3	18	39	53	1	36.0	-157157.0	-4352.0	19007.0
3	18	39	53	2	37.0	-158397.0	-4337.0	17525.0
3	18	39	53	3	53.0	-148711.0	-4398.0	15971.0
3	18	39	53	3	54.0	-147440.0	-4394.0	14487.0
3	18	39	53	4	55.0	-145956.0	-4367.0	12129.0
3	18	39	53	5	56.0	-144282.0	-4364.0	10843.0
3	18	39	53	5	57.0	-142269.0	-4351.0	10014.0
3	18	39	53	6	58.0	-139986.0	-4337.0	9319.0
3	18	39	53	6	59.0	-137838.0	-4315.0	8396.0
3	18	39	53	38	60.0	-136367.0	-4346.0	9801.0
3	18	39	53	39	61.0	-135587.0	-4386.0	12070.0
3	18	39	53	39	62.0	-135367.0	-4400.0	13418.0
3	18	39	53	40	63.0	-135719.0	-4415.0	12539.0
3	18	39	53	41	64.0	-136234.0	-4416.0	11031.0
3	18	39	53	42	65.0	-137213.0	-4422.0	9073.0
3	18	39	53	42	66.0	-138605.0	-4441.0	8025.0
3	18	39	53	43	67.0	-139747.0	-4491.0	6603.0
3	18	39	53	44	68.0	-140770.0	-4509.0	5294.0
3	18	39	53	45	69.0	-142081.0	-4504.0	4379.0
3	18	39	53	45	70.0	-143744.0	-4543.0	5243.0
3	18	39	53	46	71.0	-145867.0	-4565.0	6578.0
3	18	39	53	46	72.0	-147949.0	-4573.0	7183.0
3	18	39	53	47	73.0	-150525.0	-4601.0	6588.0
3	18	39	53	48	74.0	-152747.0	-4626.0	5146.0
3	18	39	53	48	75.0	-154681.0	-4646.0	3703.0
3	18	39	53	49	76.0	-156069.0	-4687.0	3104.0
3	18	39	53	50	77.0	-156335.0	-4711.0	2130.0
3	18	39	53	50	78.0	-156089.0	-4686.0	939.0
3	18	39	53	51	79.0	-156217.0	-4716.0	-78.0
3	18	39	53	51	80.0	-156317.0	-4745.0	770.0
3	18	39	53	52	81.0	-156181.0	-4724.0	2157.0
3	18	39	53	84	82.0	-156494.0	-4744.0	4859.0
3	18	39	53	85	83.0	-156843.0	-4737.0	4561.0
3	18	39	53	85	84.0	-157429.0	-4741.0	1816.0
3	18	39	53	86	85.0	-157881.0	-4745.0	-2217.0
3	18	39	53	87	86.0	-158275.0	-4764.0	-5062.0
3	18	39	53	88	87.0	-158969.0	-4764.0	-7967.0
3	18	39	53	88	88.0	-160323.0	-4779.0	-10766.0
3	18	39	53	89	89.0	-161907.0	-4783.0	-13578.0
3	18	39	53	89	90.0	-163436.0	-4817.0	-13702.0
3	18	39	53	90	91.0	-165379.0	-4841.0	-14552.0
3	18	39	53	91	92.0	-166994.0	-4843.0	-15499.0
3	18	39	53	91	93.0	-168764.0	-4857.0	-16919.0
3	18	39	53	92	94.0	-170498.0	-4836.0	-20596.0
3	18	39	53	93	95.0	-171780.0	-4829.0	-23505.0
3	18	39	53	93	96.0	-172658.0	-4816.0	-22506.0
3	18	39	53	94	98.0	-172132.0	-4824.0	-15422.0
3	18	39	53	95	99.0	-170826.0	-4825.0	-9252.0
3	18	39	53	95	100.0	-168954.0	-4817.0	-1044.0
3	18	39	53	96	101.0	-167311.0	-4804.0	4348.0
3	18	39	53	96	102.0	-166598.0	-4789.0	7004.0
3	18	39	53	97	103.0	-167103.0	-4762.0	5696.0
3	18	39	53	127	104.0	-167969.0	-4745.0	5086.0
3	18	39	53	128	105.0	-169144.0	-4769.0	7202.0
3	18	39	53	128	106.0	-170412.0	-4779.0	5547.0
3	18	39	53	129	107.0	-170956.0	-4797.0	1891.0
3	18	39	53	130	108.0	-171264.0	-4779.0	-1297.0
3	18	39	53	130	109.0	-171319.0	-4767.0	-3821.0
3	18	39	53	131	110.0	-170841.0	-4766.0	-3711.0
3	18	39	53	132	111.0	-170213.0	-4754.0	-3442.0
3	18	39	53	132	112.0	-168716.0	-4754.0	-3156.0
3	18	39	53	133	113.0	-165073.0	-4751.0	-2952.0
3	18	39	53	134	114.0	-159795.0	-4727.0	-3479.0
3	18	39	53	134	115.0	-149853.0	-4726.0	-4732.0
3	18	39	53	135	116.0	-137284.0	-4744.0	-5842.0
3	18	39	53	136	117.0	-125831.0	-4751.0	-7180.0
3	18	39	53	136	118.0	-118521.0	-4751.0	-8460.0
3	18	39	53	137	120.0	-125223.0	-4782.0	-10013.0
3	18	39	53	138	121.0	-136512.0	-4794.0	-9471.0
3	18	39	53	138	122.0	-150341.0	-4771.0	-8724.0
3	18	39	53	139	123.0	-164641.0	-4734.0	-9021.0
3	18	39	53	139	124.0	-179280.0	-4701.0	-10581.0
3	18	39	53	140	125.0	-194008.0	-4684.0	-12127.0
3	18	39	53	141	126.0	-206339.0	-4677.0	-13857.0
3	18	39	53	172	127.0	-215619.0	-4662.0	-15279.0
3	18	39	53	173	128.0	-219934.0	-4651.0	-17057.0
3	18	39	53	174	129.0	-219313.0	-4651.0	-18123.0
3	18	39	53	217	130.0	-214782.0	-4686.0	-17776.0
3	18	39	53	219	131.0	-208233.0	-4714.0	-17496.0
3	18	39	53	220	132.0	-200076.0	-4712.0	-17157.0
3	18	39	53	221	133.0	-190770.0	-4708.0	-17786.0
3	18	39	53	221	134.0	-181177.0	-4698.0	-19309.0
3	18	39	53	222	135.0	-173338.0	-4707.0	-20395.0
3	18	39	53	223	136.0	-168275.0	-4729.0	-21580.0
3	18	39	53	224	137.0	-165787.0	-4752.0	-22782.0
3	18	39	53	224	138.0	-165862.0	-4774.0	-24149.0
3	18	39	53	225	139.0	-166292.0	-4797.0	-24575.0
3	18	39	53	226	140.0	-167164.0	-4826.0	-23634.0
3	18	39	53	226	141.0	-167339.0	-4836.0	-23053.0
3	18	39	53	227	143.0	-165886.0	-4882.0	-23252.0
3	18	39	53	228	144.0	-165342.0	-4852.0	-24486.0
3	18	39	53	228	145.0	-164664.0	-4829.0	-24896.0
3	18	39	53	229	146.0	-163614.0	-4852.0	-25646.0
3	18	39	53	230	165.0	-176456.0	-4978.0	-33655.0
3	18	39	53	230	166.0	-174476.0	-4941.0	-34478.0
3	18	39	53	231	167.0	-172434.0	-4923.0	-35151.0
3	18	39	53	231	168.0	-170486.0	-4909.0	-36225.0
3	18	39	53	232	169.0	-168960.0	-4898.0	-36524.0
3	18	39	53	233	170.0	-167948.0	-4887.0	-35531.0
3	18	39	53	233	171.0	-167127.0	-4863.0	-34680.0
3	18	39	53	264	172.0	-166549.0	-4848.0	-34521.0
3	18	39	53	265	173.0	-166319.0	-4833.0	-34852.0
3	18	39	53	266	174.0	-165922.0	-4806.0	-36259.0
3	18	39	53	266	175.0	-165233.0	-4804.0	-37412.0
3	18	39	53	267	176.0	-164363.0	-4811.0	-38424.0
3	18	39	53	268	177.0	-163932.0	-4811.0	-39413.0
3	18	39	53	268	178.0	-163593.0	-4792.0	-40619.0
3	18	39	53	269	179.0	-163736.0	-4808.0	-40417.0
3	18	39	53	270	180.0	-164248.0	-4827.0	-39881.0
3	18	39	53	270	181.0	-164596.0	-4850.0	-39741.0
3	18	39	53	271	182.0	-164967.0	-4822.0	-39954.0
3	18	39	53	272	183.0	-165039.0	-4792.0	-40014.0
3	18	39	53	272	184.0	-164299.0	-4756.0	-40944.0
3	18	39	53	273	185.0	-162990.0	-4754.0	-41657.0
3	18	39	53	274	186.0	-161728.0	-4762.0	-42219.0
3	18	39	53	274	187.0	-160668.0	-4735.0	-43022.0
3	18	39	53	275	188.0	-159371.0	-4732.0	-44669.0
3	18	39	53	276	189.0	-158290.0	-4732.0	-44917.0
3	18	39	53	276	190.0	-157653.0	-4729.0	-43798.0
3	18	39	53	277	191.0	-157617.0	-4718.0	-42951.0
3	18	39	53	278	192.0	-156917.0	-4682.0	-42987.0
3	18	39	53	278	193.0	-155842.0	-4640.0	-43740.0
3	18	39	53	308	194.0	-154973.0	-4631.0	-45004.0
3	18	39	53	309	195.0	-154602.0	-4599.0	-45598.0
3	18	39	53	309	196.0	-154601.0	-4569.0	-46609.0
3	18	39	53	310	197.0	-154666.0	-4577.0	-47756.0
3	18	39	53	310	198.0	-154756.0	-4565.0	-48479.0
3	18	39	53	311	199.0	-155122.0	-4589.0	-48066.0
3	18	39	53	312	200.0	-154966.0	-4619.0	-47389.0
3	18	39	53	312	201.0	-154539.0	-4616.0	-46586.0
3	18	39	53	313	202.0	-154651.0	-4595.0	-47100.0
3	18	39	53	313	203.0	-155751.0	-4567.0	-47607.0
3	18	39	53	314	204.0	-156881.0	-4548.0	-48870.0
3	18	39	53	314	205.0	-157944.0	-4537.0	-49915.0
3	18	39	53	315	206.0	-158542.0	-4544.0	-50926.0
3	18	39	53	316	207.0	-160076.0	-4542.0	-51772.0
3	18	39	53	316	208.0	-161799.0	-4532.0	-52845.0
3	18	39	53	317	210.0	-164517.0	-4562.0	-50654.0
3	18	39	53	317	211.0	-165657.0	-4567.0	-49856.0
3	18	39	53	318	212.0	-166832.0	-4539.0	-49370.0
3	18	39	53	318	213.0	-167544.0	-4496.0	-49647.0
3	18	39	53	319	214.0	-167496.0	-4452.0	-50616.0
3	18	39	53	320	215.0	-166704.0	-4414.0	-51252.0
3	18	39	53	353	216.0	-165971.0	-4390.0	-51883.0
3	18	39	53	353	217.0	-165639.0	-4385.0	-52252.0
3	18	39	53	354	218.0	-165199.0	-4383.0	-52727.0
3	18	39	53	355	219.0	-164632.0	-4397.0	-52397.0
3	18	39	53	355	220.0	-164420.0	-4439.0	-51593.0
3	18	39	53	356	221.0	-164761.0	-4447.0	-50074.0
3	18	39	53	356	222.0	-165789.0	-4410.0	-49366.0
3	18	39	53	357	223.0	-167226.0	-4309.0	-50043.0
3	18	39	53	358	224.0	-169057.0	-4174.0	-51824.0
3	18	39	53	358	225.0	-170584.0	-4206.0	-54701.0
3	18	39	53	359	226.0	-171654.0	-4251.0	-57443.0
3	18	39	53	359	227.0	-172398.0	-4248.0	-59868.0
3	18	39	53	360	228.0	-172566.0	-4256.0	-59562.0
3	18	39	53	360	229.0	-171608.0	-4285.0	-55686.0
3	18	39	53	361	230.0	-170267.0	-4301.0	-52837.0
3	18	39	53	362	232.0	-167131.0	-4287.0	-51766.0
3	18	39	53	362	233.0	-165184.0	-4269.0	-53777.0
3	18	39	53	363	234.0	-163201.0	-4234.0	-55611.0
3	18	39	53	363	235.0	-161141.0	-4212.0	-55717.0
3	18	39	53	364	236.0	-159422.0	-4184.0	-56239.0
3	18	39	53	364	237.0	-158237.0	-4178.0	-56841.0
3	18	39	53	365	238.0	-157176.0	-4147.0	-57922.0
3	18	39	53	397	239.0	-155973.0	-4135.0	-55946.0
3	18	39	53	398	240.0	-154830.0	-4138.0	-52758.0
3	18	39	53	414	241.0	-153320.0	-4136.0	-50081.0
3	18	39	53	415	242.0	-151072.0	-4128.0	-50514.0
3	18	39	53	416	243.0	-148661.0	-4124.0	-52912.0
3	18	39	53	416	244.0	-146026.0	-4123.0	-54745.0
3	18	39	53	417	245.0	-142314.0	-4113.0	-54643.0
3	18	39	53	417	246.0	-136144.0	-4104.0	-55434.0
3	18	39	53	418	247.0	-125029.0	-4079.0	-56662.0
3	18	39	53	418	248.0	-114401.0	-4082.0	-56991.0
3	18	39	53	419	249.0	-114065.0	-4097.0	-54049.0
3	18	39	53	419	250.0	-122564.0	-4096.0	-51736.0
3	18	39	53	420	251.0	-131267.0	-4095.0	-50731.0
3	18	39	53	420	252.0	-141924.0	-4054.0	-52419.0
3	18	39	53	421	253.0	-148870.0	-4041.0	-55384.0
3	18	39	53	422	255.0	-154849.0	-4054.0	-58948.0
3	18	39	53	422	0.0	-154786.0	-4054.0	-60251.0
3	18	39	53	423	1.0	-155169.0	-4023.0	-61440.0
3	18	39	53	423	2.0	-156123.0	-4019.0	-61855.0
3	18	39	53	424	3.0	-154833.0	-4011.0	-59932.0
3	18	39	53	424	4.0	-153493.0	-3982.0	-58308.0
3	18	39	53	443	5.0	-153061.0	-3951.0	-57615.0
3	18	39	53	444	6.0	-153837.0	-3930.0	-59101.0
3	18	39	53	444	7.0	-155549.0	-3896.0	-61216.0
3	18	39	53	445	8.0	-158696.0	-3877.0	-62759.0
3	18	39	53	446	9.0	-162137.0	-3874.0	-63391.0
3	18	39	53	446	10.0	-164487.0	-3842.0	-64347.0
3	18	39	53	447	11.0	-165193.0	-3824.0	-65377.0
3	18	39	53	448	12.0	-164884.0	-3820.0	-65527.0
3	18	39	53	448	13.0	-164136.0	-3835.0	-62997.0
3	18	39	53	449	14.0	-162481.0	-3852.0	-61342.0
3	18	39	53	449	15.0	-158795.0	-3833.0	-60409.0
3	18	39	53	450	16.0	-153999.0	-3791.0	-61577.0
3	18	39	53	450	17.0	-148703.0	-3794.0	-63459.0
3	18	39	53	451	18.0	-142944.0	-3774.0	-64594.0
3	18	39	53	452	19.0	-137719.0	-3774.0	-64786.0
3	18	39	53	452	21.0	-130766.0	-3737.0	-69063.0
3	18	39	53	453	22.0	-131489.0	-3756.0	-68887.0
3	18	39	53	454	23.0	-133224.0	-3746.0	-67186.0
3	18	39	53	454	24.0	-135931.0	-3756.0	-66507.0
3	18	39	53	455	25.0	-139254.0	-3730.0	-65916.0
3	18	39	53	455	26.0	-143245.0	-3704.0	-66559.0
3	18	39	53	456	27.0	-147005.0	-3668.0	-68302.0
3	18	39	53	487	28.0	-151502.0	-3649.0	-69445.0
3	18	39	53	488	29.0	-156307.0	-3641.0	-69737.0
3	18	39	53	489	30.0	-160614.0	-3636.0	-71039.0
3	18	39	53	489	31.0	-163682.0	-3628.0	-71874.0
3	18	39	53	490	32.0	-165075.0	-3622.0	-71526.0
3	18	39	53	490	33.0	-165743.0	-3645.0	-69542.0
3	18	39	53	491	34.0	-165982.0	-3662.0	-68197.0
3	18	39	53	492	35.0	-166150.0	-3676.0	-67921.0
3	18	39	53	492	36.0	-166107.0	-3655.0	-68746.0
3	18	39	53	493	37.0	-165715.0	-3622.0	-70079.0
3	18	39	53	493	38.0	-165236.0	-3639.0	-71179.0
3	18	39	53	494	39.0	-164775.0	-3626.0	-71603.0
3	18	39	53	494	40.0	-163854.0	-3639.0	-72196.0
3	18	39	53	495	41.0	-162532.0	-3645.0	-73245.0
3	18	39	53	496	42.0	-161438.0	-3682.0	-73664.0
3	18	39	53	497	44.0	-159989.0	-3687.0	-71304.0
3	18	39	53	497	45.0	-159452.0	-3681.0	-70486.0
3	18	39	53	498	46.0	-159159.0	-3629.0	-71181.0
3	18	39	53	499	47.0	-159036.0	-3593.0	-72617.0
3	18	39	53	499	48.0	-158826.0	-3586.0	-73197.0
3	18	39	53	500	49.0	-159022.0	-3578.0	-73948.0
3	18	39	53	533	50.0	-159285.0	-3564.0	-74252.0
3	18	39	53	534	51.0	-159742.0	-3563.0	-75406.0
3	18	39	53	534	52.0	-160580.0	-3578.0	-76507.0
3	18	39	53	535	53.0	-161454.0	-3604.0	-76112.0
3	18	39	53	536	54.0	-162235.0	-3616.0	-75051.0
3	18	39	53	537	55.0	-162692.0	-3612.0	-74766.0
3	18	39	53	537	56.0	-163184.0	-3610.0	-75126.0
3	18	39	53	538	57.0	-163222.0	-3604.0	-75697.0
3	18	39	53	539	58.0	-162754.0	-3611.0	-75827.0
3	18	39	53	539	59.0	-161876.0	-3616.0	-76164.0
3	18	39	53	540	60.0	-160894.0	-3615.0	-77118.0
3	18	39	53	541	61.0	-160307.0	-3632.0	-77892.0
3	18	39	53	541	62.0	-160209.0	-3619.0	-78030.0
3	18	39	53	542	63.0	-159539.0	-3642.0	-77962.0
3	18	39	53	542	64.0	-158617.0	-3652.0	-77409.0
3	18	39	53	543	66.0	-158396.0	-3632.0	-81346.0
3	18	39	53	544	67.0	-158890.0	-3636.0	-84354.0
3	18	39	53	544	68.0	-160066.0	-3646.0	-85347.0
3	18	39	53	545	69.0	-162520.0	-3640.0	-85965.0
3	18	39	53	545	70.0	-164674.0	-3642.0	-87199.0
3	18	39	53	546	71.0	-165982.0	-3635.0	-88417.0
3	18	39	53	578	72.0	-166627.0	-3654.0	-88375.0
3	18	39	53	578	73.0	-167352.0	-3662.0	-88538.0
3	18	39	53	579	74.0	-168003.0	-3646.0	-89416.0
3	18	39	53	580	75.0	-168589.0	-3664.0	-89554.0
3	18	39	53	580	76.0	-169224.0	-3662.0	-89910.0
3	18	39	53	581	77.0	-169247.0	-3660.0	-90995.0
3	18	39	53	582	78.0	-169074.0	-3678.0	-91595.0
3	18	39	53	582	79.0	-168356.0	-3680.0	-92013.0
3	18	39	53	583	80.0	-167113.0	-3687.0	-92696.0
3	18	39	53	583	81.0	-165719.0	-3709.0	-93618.0
3	18	39	53	584	82.0	-164032.0	-3700.0	-93449.0
3	18	39	53	585	83.0	-162251.0	-3712.0	-92424.0
3	18	39	53	585	84.0	-160492.0	-3723.0	-90968.0
3	18	39	53	586	85.0	-158570.0	-3732.0	-90062.0
3	18	39	53	586	86.0	-156872.0	-3742.0	-90067.0
3	18	39	53	587	89.0	-153389.0	-3734.0	-91401.0
3	18	39	53	588	90.0	-152470.0	-3740.0	-92269.0
3	18	39	53	588	91.0	-152255.0	-3740.0	-93350.0
3	18	39	53	589	92.0	-153271.0	-3749.0	-93544.0
3	18	39	53	589	93.0	-155453.0	-3746.0	-92816.0
3	18	39	53	590	94.0	-158194.0	-3714.0	-91959.0
3	18	39	53	623	95.0	-161050.0	-3686.0	-91479.0
3	18	39	53	623	96.0	-163105.0	-3669.0	-91720.0
3	18	39	53	624	97.0	-164942.0	-3659.0	-92520.0
3	18	39	53	625	98.0	-166517.0	-3667.0	-92663.0
3	18	39	53	625	99.0	-167344.0	-3667.0	-92948.0
3	18	39	53	626	100.0	-167487.0	-3665.0	-93411.0
3	18	39	53	626	101.0	-166994.0	-3669.0	-94290.0
3	18	39	53	627	102.0	-165981.0	-3686.0	-94237.0
3	18	39	53	628	103.0	-164747.0	-3693.0	-93479.0
3	18	39	53	628	104.0	-163411.0	-3693.0	-92216.0
3	18	39	53	629	105.0	-161651.0	-3688.0	-92099.0
3	18	39	53	630	106.0	-159694.0	-3676.0	-93471.0
3	18	39	53	631	107.0	-157575.0	-3630.0	-94906.0
3	18	39	53	632	108.0	-155554.0	-3628.0	-94591.0
3	18	39	53	632	109.0	-153634.0	-3619.0	-95272.0
3	18	39	53	633	111.0	-151632.0	-3652.0	-96343.0
3	18	39	53	633	112.0	-150727.0	-3646.0	-94731.0
3	18	39	53	634	113.0	-150599.0	-3622.0	-93296.0
3	18	39	53	635	114.0	-151319.0	-3626.0	-91224.0
3	18	39	53	635	115.0	-152160.0	-3598.0	-90950.0
3	18	39	53	636	116.0	-152846.0	-3562.0	-92533.0
3	18	39	53	668	117.0	-153992.0	-3537.0	-95635.0
3	18	39	53	668	118.0	-156504.0	-3504.0	-96641.0
3	18	39	53	669	119.0	-159627.0	-3501.0	-97958.0
3	18	39	53	713	120.0	-162560.0	-3482.0	-99181.0
3	18	39	53	714	121.0	-164154.0	-3468.0	-99984.0
3	18	39	53	715	122.0	-165844.0	-3483.0	-97937.0
3	18	39	53	715	123.0	-167647.0	-3489.0	-95819.0
3	18	39	53	716	124.0	-169087.0	-3480.0	-94236.0
3	18	39	53	717	125.0	-170138.0	-3486.0	-95692.0
3	18	39	53	717	126.0	-170357.0	-3457.0	-97877.0
3	18	39	53	718	127.0	-169871.0	-3450.0	-99892.0
3	18	39	53	719	128.0	-168861.0	-3444.0	-100421.0
3	18	39	53	719	129.0	-167297.0	-3447.0	-99849.0
3	18	39	53	720	130.0	-165683.0	-3451.0	-99568.0
3	18	39	53	720	131.0	-163954.0	-3433.0	-100927.0
3	18	39	53	721	133.0	-160899.0	-3451.0	-97346.0
3	18	39	53	722	134.0	-159849.0	-3444.0	-96499.0
3	18	39	53	722	135.0	-159079.0	-3429.0	-97850.0
3	18	39	53	723	136.0	-158734.0	-3415.0	-99476.0
3	18	39	53	723	156.0	-172982.0	-3542.0	-93278.0
3	18	39	53	724	157.0	-174005.0	-3527.0	-93875.0
3	18	39	53	725	158.0	-175554.0	-3534.0	-94142.0
3	18	39	53	725	159.0	-177074.0	-3531.0	-95807.0
3	18	39	53	726	160.0	-178623.0	-3551.0	-96920.0
3	18	39	53	726	161.0	-179929.0	-3551.0	-98191.0
3	18	39	53	727	162.0	-180796.0	-3531.0	-98769.0
3	18	39	53	757	163.0	-181081.0	-3546.0	-99386.0
3	18	39	53	759	164.0	-180306.0	-3534.0	-99304.0
3	18	39	53	760	165.0	-178211.0	-3524.0	-99749.0
3	18	39	53	761	166.0	-174179.0	-3538.0	-101324.0
3	18	39	53	761	167.0	-165696.0	-3532.0	-102387.0
3	18	39	53	762	168.0	-153457.0	-3537.0	-103146.0
3	18	39	53	763	169.0	-139271.0	-3542.0	-104699.0
3	18	39	53	763	170.0	-129624.0	-3561.0	-107434.0
3	18	39	53	764	171.0	-127632.0	-3573.0	-109718.0
3	18	39	53	764	172.0	-134102.0	-3588.0	-108794.0
3	18	39	53	765	173.0	-148682.0	-3609.0	-108217.0
3	18	39	53	766	174.0	-169049.0	-3596.0	-107892.0
3	18	39	53	766	175.0	-191556.0	-3579.0	-108762.0
3	18	39	53	767	176.0	-212042.0	-3587.0	-110487.0
3	18	39	53	767	177.0	-228849.0	-3577.0	-112014.0
3	18	39	53	768	178.0	-240215.0	-3564.0	-113634.0
3	18	39	53	769	179.0	-245285.0	-3547.0	-115409.0
3	18	39	53	769	180.0	-244359.0	-3541.0	-116892.0
3	18	39	53	770	181.0	-236871.0	-3517.0	-117808.0
3	18	39	53	770	182.0	-223826.0	-3516.0	-116900.0
3	18	39	53	771	183.0	-208557.0	-3507.0	-116012.0
3	18	39	53	772	184.0	-195633.0	-3502.0	-115716.0
3	18	39	53	803	185.0	-187583.0	-3471.0	-118048.0
3	18	39	53	804	186.0	-183519.0	-3396.0	-120454.0
3	18	39	53	805	187.0	-181572.0	-3366.0	-121529.0
3	18	39	53	806	188.0	-181398.0	-3371.0	-122519.0
3	18	39	53	806	189.0	-183589.0	-3362.0	-123959.0
3	18	39	53	807	190.0	-185896.0	-3371.0	-125223.0
3	18	39	53	808	191.0	-188002.0	-3372.0	-124837.0
3	18	39	53	808	192.0	-189635.0	-3391.0	-122322.0
3	18	39	53	809	193.0	-189441.0	-3397.0	-121836.0
3	18	39	53	809	194.0	-187274.0	-3337.0	-129575.0
3	18	39	53	810	195.0	-184632.0	-3312.0	-134166.0
3	18	39	53	811	196.0	-182824.0	-3326.0	-129681.0
3	18	39	53	811	197.0	-182312.0	-3349.0	-127859.0
3	18	39	53	812	198.0	-182019.0	-3379.0	-127632.0
3	18	39	53	813	199.0	-181339.0	-3377.0	-128047.0
3	18	39	53	813	201.0	-180474.0	-3399.0	-129501.0
3	18	39	53	814	202.0	-180430.0	-3412.0	-128434.0
3	18	39	53	814	203.0	-181039.0	-3437.0	-126876.0
3	18	39	53	815	204.0	-182064.0	-3434.0	-126526.0
3	18	39	53	816	205.0	-183694.0	-3398.0	-128189.0
3	18	39	53	816	206.0	-185761.0	-3318.0	-130061.0
3	18	39	53	848	207.0	-188007.0	-3379.0	-128690.0
3	18	39	53	849	208.0	-190137.0	-3419.0	-130089.0
3	18	39	53	850	209.0	-191992.0	-3441.0	-132140.0
3	18	39	53	850	210.0	-192905.0	-3449.0	-133155.0
3	18	39	53	851	211.0	-191942.0	-3479.0	-133859.0
3	18	39	53	852	212.0	-189739.0	-3566.0	-135022.0
3	18	39	53	852	213.0	-186952.0	-3560.0	-134920.0
3	18	39	53	853	214.0	-183644.0	-3487.0	-132966.0
3	18	39	53	854	215.0	-180092.0	-3469.0	-132435.0
3	18	39	53	854	216.0	-176400.0	-3475.0	-133300.0
3	18	39	53	855	217.0	-173218.0	-3452.0	-133793.0
3	18	39	53	856	218.0	-170431.0	-3440.0	-133969.0
3	18	39	53	857	219.0	-167997.0	-3437.0	-134703.0
3	18	39	53	857	220.0	-166157.0	-3439.0	-136530.0
3	18	39	53	858	221.0	-165886.0	-3472.0	-137894.0
3	18	39	53	859	223.0	-168306.0	-3526.0	-137421.0
3	18	39	53	860	224.0	-169702.0	-3536.0	-137059.0
3	18	39	53	860	225.0	-170904.0	-3541.0	-137366.0
3	18	39	53	861	226.0	-172454.0	-3540.0	-138399.0
3	18	39	53	862	227.0	-173082.0	-3545.0	-139413.0
3	18	39	53	862	228.0	-173762.0	-3556.0	-140439.0
3	18	39	53	863	229.0	-174424.0	-3578.0	-141612.0
3	18	39	53	939	230.0	-174903.0	-3584.0	-142062.0
3	18	39	53	939	231.0	-175243.0	-3589.0	-142554.0
3	18	39	53	940	232.0	-174814.0	-3599.0	-142459.0
3	18	39	53	941	233.0	-174201.0	-3636.0	-141916.0
3	18	39	53	942	234.0	-173062.0	-3672.0	-141841.0
3	18	39	53	942	235.0	-171124.0	-3655.0	-141825.0
3	18	39	53	943	236.0	-169295.0	-3651.0	-142997.0
3	18	39	53	944	237.0	-167784.0	-3674.0	-143494.0
3	18	39	53	945	238.0	-166349.0	-3673.0	-143672.0
3	18	39	53	945	239.0	-164817.0	-3696.0	-144824.0
3	18	39	53	946	240.0	-163574.0	-3723.0	-146104.0
3	18	39	53	947	241.0	-162511.0	-3750.0	-146570.0
3	18	39	53	947	242.0	-161895.0	-3762.0	-146701.0
3	18	39	53	948	243.0	-161333.0	-3784.0	-146596.0
3	18	39	53	949	244.0	-160277.0	-3811.0	-146582.0
3	18	39	53	949	12.0	-203207.0	-4164.0	-159997.0
3	18	39	53	950	13.0	-205997.0	-4171.0	-160416.0
3	18	39	53	950	14.0	-208631.0	-4182.0	-161439.0
3	18	39	53	951	15.0	-209543.0	-4171.0	-162870.0
3	18	39	53	951	16.0	-207445.0	-4147.0	-163144.0
3	18	39	53	952	17.0	-206082.0	-4097.0	-162354.0
3	18	39	53	983	18.0	-199916.0	-4062.0	-161338.0
3	18	39	53	984	19.0	-192207.0	-4039.0	-161029.0
3	18	39	53	985	20.0	-192957.0	-4026.0	-160932.0
3	18	39	53	985	21.0	-195574.0	-4039.0	-160724.0
3	18	39	53	986	22.0	-200338.0	-4041.0	-161009.0
3	18	39	53	987	23.0	-200023.0	-4050.0	-161464.0
3	18	39	53	987	24.0	-198308.0	-4035.0	-162298.0
3	18	39	53	988	25.0	-195826.0	-4036.0	-161873.0
3	18	39	53	989	26.0	-194567.0	-4035.0	-160735.0
3	18	39	53	989	27.0	-193189.0	-4040.0	-160069.0
3	18	39	53	990	28.0	-191122.0	-4035.0	-159702.0
3	18	39	53	990	29.0	-189097.0	-4030.0	-160154.0
3	18	39	53	991	30.0	-187825.0	-4014.0	-161117.0
3	18	39	53	992	31.0	-188733.0	-4022.0	-161991.0
3	18	39	53	992	32.0	-189362.0	-4036.0	-162930.0
3	18	39	53	993	34.0	-191877.0	-4033.0	-164384.0
3	18	39	53	994	35.0	-196480.0	-4046.0	-164032.0
3	18	39	53	994	36.0	-198954.0	-4039.0	-164253.0
3	18	39	53	995	37.0	-201453.0	-3972.0	-164064.0
3	18	39	53	995	38.0	-204268.0	-3941.0	-164294.0
3	18	39	53	996	39.0	-208071.0	-3924.0	-165456.0
3	18	39	53	997	40.0	-211291.0	-3882.0	-166589.0
3	18	39	54	29	41.0	-214816.0	-3851.0	-167981.0
3	18	39	54	30	42.0	-216737.0	-3836.0	-169483.0
3	18	39	54	31	43.0	-219559.0	-3831.0	-170776.0
3	18	39	54	31	44.0	-225312.0	-3824.0	-172187.0
3	18	39	54	32	45.0	-231665.0	-3820.0	-171996.0
3	18	39	54	33	46.0	-233506.0	-3832.0	-171874.0
3	18	39	54	33	47.0	-228922.0	-3814.0	-171876.0
3	18	39	54	34	48.0	-224817.0	-3792.0	-171419.0
3	18	39	54	35	49.0	-231102.0	-3757.0	-171637.0
3	18	39	54	35	50.0	-245799.0	-3731.0	-172351.0
3	18	39	54	36	51.0	-262224.0	-3732.0	-172726.0
3	18	39	54	37	52.0	-279401.0	-3746.0	-173269.0
3	18	39	54	37	53.0	-297529.0	-3727.0	-174236.0
3	18	39	54	38	54.0	-306511.0	-3736.0	-175067.0
3	18	39	54	39	55.0	-312192.0	-3712.0	-174549.0
3	18	39	54	39	57.0	-310129.0	-3680.0	-173005.0
3	18	39	54	40	58.0	-311859.0	-3667.0	-173592.0
3	18	39	54	40	59.0	-307374.0	-3614.0	-174545.0
3	18	39	54	41	60.0	-300430.0	-3572.0	-175827.0
3	18	39	54	42	61.0	-293533.0	-3532.0	-176708.0
3	18	39	54	42	62.0	-287471.0	-3483.0	-178012.0
3	18	39	54	73	63.0	-283125.0	-3484.0	-179631.0
3	18	39	54	73	64.0	-275852.0	-3469.0	-180337.0
3	18	39	54	74	65.0	-267746.0	-3499.0	-179852.0
3	18	39	54	75	66.0	-260617.0	-3499.0	-178729.0
3	18	39	54	75	67.0	-255232.0	-4991.0	-177678.0
3	18	39	54	76	68.0	-248322.0	-7297.0	-177976.0
3	18	39	54	77	69.0	-243781.0	-17026.0	-178871.0
3	18	39	54	77	70.0	-242397.0	-26057.0	-180292.0
3	18	39	54	78	71.0	-245696.0	-33424.0	-182100.0
3	18	39	54	117	72.0	-248681.0	-38624.0	-183317.0
3	18	39	54	118	73.0	-249029.0	-40391.0	-184822.0
3	18	39	54	119	74.0	-247176.0	-44718.0	-184377.0
3	18	39	54	120	75.0	-248671.0	-57177.0	-183178.0
3	18	39	54	120	76.0	-251352.0	-68316.0	-182406.0
3	18	39	54	121	77.0	-252999.0	-75350.0	-182071.0
3	18	39	54	122	79.0	-261620.0	-92486.0	-183564.0
3	18	39	54	122	80.0	-263022.0	-96816.0	-184681.0
3	18	39	54	123	81.0	-263544.0	-97793.0	-185812.0
3	18	39	54	124	82.0	-264135.0	-95688.0	-186326.0
3	18	39	54	124	83.0	-267051.0	-92396.0	-187345.0
3	18	39	54	125	84.0	-272107.0	-86396.0	-188805.0
3	18	39	54	126	85.0	-278686.0	-80920.0	-187820.0
3	18	39	54	126	86.0	-287948.0	-89207.0	-185499.0
3	18	39	54	127	87.0	-294477.0	-101601.0	-184204.0
3	18	39	54	128	88.0	-297903.0	-105917.0	-184253.0
3	18	39	54	128	102.0	-308092.0	-148998.0	-190146.0
3	18	39	54	129	103.0	-306494.0	-140854.0	-189377.0
3	18	39	54	129	104.0	-306005.0	-139908.0	-189838.0
3	18	39	54	130	105.0	-307822.0	-147831.0	-188856.0
3	18	39	54	131	106.0	-308737.0	-156140.0	-188287.0
3	18	39	54	131	107.0	-308544.0	-156662.0	-187257.0
3	18	39	54	163	108.0	-307144.0	-150269.0	-188717.0
3	18	39	54	164	109.0	-303812.0	-148973.0	-190376.0
3	18	39	54	165	110.0	-303555.0	-151427.0	-190597.0
3	18	39	54	166	111.0	-300162.0	-150363.0	-191891.0
3	18	39	54	166	112.0	-298522.0	-155683.0	-192382.0
3	18	39	54	167	113.0	-299443.0	-158980.0	-193018.0
3	18	39	54	168	114.0	-299839.0	-158536.0	-192286.0
3	18	39	54	168	115.0	-299661.0	-159882.0	-191257.0
3	18	39	54	169	116.0	-297849.0	-161668.0	-191041.0
3	18	39	54	169	117.0	-297119.0	-162371.0	-189864.0
3	18	39	54	170	118.0	-295101.0	-164431.0	-188853.0
3	18	39	54	171	119.0	-290852.0	-167052.0	-191167.0
3	18	39	54	171	120.0	-285220.0	-168393.0	-191980.0
3	18	39	54	172	121.0	-281962.0	-169694.0	-191727.0
3	18	39	54	173	122.0	-278258.0	-170349.0	-193176.0
3	18	39	54	173	124.0	-268018.0	-169840.0	-195157.0
3	18	39	54	174	125.0	-264173.0	-167324.0	-195414.0
3	18	39	54	175	126.0	-259154.0	-162257.0	-196356.0
3	18	39	54	175	127.0	-253348.0	-158919.0	-196782.0
3	18	39	54	176	128.0	-248812.0	-167623.0	-197418.0
3	18	39	54	176	129.0	-245624.0	-173864.0	-198412.0
3	18	39	54	177	130.0	-243719.0	-172382.0	-198229.0
3	18	39	54	209	131.0	-240746.0	-161764.0	-199092.0
3	18	39	54	209	132.0	-240310.0	-158914.0	-199632.0
3	18	39	54	210	133.0	-241430.0	-163007.0	-201177.0
3	18	39	54	211	134.0	-244284.0	-168460.0	-202192.0
3	18	39	54	212	135.0	-250114.0	-174884.0	-201402.0
3	18	39	54	212	136.0	-257016.0	-183577.0	-200462.0
3	18	39	54	213	137.0	-265576.0	-192062.0	-200340.0
3	18	39	54	214	138.0	-271967.0	-195801.0	-199728.0
3	18	39	54	215	139.0	-275509.0	-195712.0	-201174.0
3	18	39	54	215	140.0	-281706.0	-192588.0	-202354.0
3	18	39	54	216	141.0	-286196.0	-190556.0	-202911.0
3	18	39	54	217	142.0	-284593.0	-188521.0	-203762.0
3	18	39	54	218	143.0	-282232.0	-185188.0	-205447.0
3	18	39	54	218	144.0	-277300.0	-182397.0	-205241.0
3	18	39	54	219	145.0	-272576.0	-179550.0	-203545.0
3	18	39	54	219	147.0	-263676.0	-187606.0	-199426.0
3	18	39	54	220	148.0	-256769.0	-196722.0	-199067.0
3	18	39	54	221	149.0	-249999.0	-206200.0	-199449.0
3	18	39	54	221	150.0	-241581.0	-213176.0	-196428.0
3	18	39	54	222	151.0	-231969.0	-215979.0	-194121.0
3	18	39	54	222	152.0	-227135.0	-193812.0	-195241.0
3	18	39	54	252	153.0	-223947.0	-83831.0	-197519.0
3	18	39	54	253	154.0	-216102.0	-11612.0	-197628.0
3	18	39	54	254	155.0	-205242.0	-13411.0	-196834.0
3	18	39	54	254	156.0	-197133.0	-19532.0	-196007.0
3	18	39	54	255	157.0	-188956.0	-28015.0	-198906.0
3	18	39	54	256	158.0	-180057.0	-38326.0	-218011.0
3	18	39	54	256	159.0	-172096.0	-40324.0	-235794.0
3	18	39	54	257	160.0	-166315.0	-39514.0	-244291.0
3	18	39	54	257	161.0	-162061.0	-24962.0	-251697.0
3	18	39	54	258	162.0	-160834.0	-18786.0	-256330.0
3	18	39	54	259	163.0	-161691.0	-20754.0	-258764.0
3	18	39	54	260	164.0	-160282.0	-21619.0	-260179.0
3	18	39	54	261	165.0	-158848.0	-24821.0	-261743.0
3	18	39	54	261	166.0	-159962.0	-27850.0	-263833.0
3	18	39	54	262	167.0	-160604.0	-36491.0	-264756.0
3	18	39	54	262	169.0	-163183.0	-55958.0	-266887.0
3	18	39	54	263	170.0	-166770.0	-64209.0	-268294.0
3	18	39	54	264	171.0	-169492.0	-71297.0	-270022.0
3	18	39	54	264	172.0	-174541.0	-76907.0	-271257.0
3	18	39	54	265	173.0	-181422.0	-82241.0	-273004.0
3	18	39	54	265	174.0	-192464.0	-88529.0	-273387.0
3	18	39	54	298	175.0	-204729.0	-97227.0	-274171.0
3	18	39	54	299	176.0	-214626.0	-107777.0	-274926.0
3	18	39	54	300	177.0	-223576.0	-119011.0	-274756.0
3	18	39	54	301	178.0	-229069.0	-127746.0	-276094.0
3	18	39	54	301	179.0	-233876.0	-132280.0	-276747.0
3	18	39	54	302	180.0	-236660.0	-138170.0	-277307.0
3	18	39	54	303	181.0	-237014.0	-143672.0	-276552.0
3	18	39	54	303	182.0	-236198.0	-149356.0	-275302.0
3	18	39	54	304	183.0	-234774.0	-154443.0	-276514.0
3	18	39	54	305	184.0	-231233.0	-159477.0	-277338.0
3	18	39	54	305	185.0	-228083.0	-160224.0	-276050.0
3	18	39	54	306	186.0	-224526.0	-155055.0	-274395.0
3	18	39	54	307	187.0	-221488.0	-161606.0	-274106.0
3	18	39	54	307	188.0	-221010.0	-168761.0	-275223.0
3	18	39	54	308	189.0	-221708.0	-173362.0	-276017.0
3	18	39	54	309	191.0	-218267.0	-181977.0	-277789.0
3	18	39	54	309	192.0	-213095.0	-193742.0	-280252.0
3	18	39	54	310	193.0	-208457.0	-205728.0	-280987.0
3	18	39	54	310	194.0	-202894.0	-209736.0	-279645.0
3	18	39	54	311	195.0	-197878.0	-209333.0	-277343.0
3	18	39	54	312	196.0	-195291.0	-211815.0	-266901.0
3	18	39	54	312	197.0	-192516.0	-216681.0	-262596.0
3	18	39	54	343	198.0	-188020.0	-221556.0	-265580.0
3	18	39	54	356	199.0	-183692.0	-225057.0	-266169.0
3	18	39	54	357	200.0	-179541.0	-230717.0	-264981.0
3	18	39	54	357	201.0	-174462.0	-234911.0	-264612.0
3	18	39	54	358	202.0	-171721.0	-238220.0	-264702.0
3	18	39	54	358	203.0	-169979.0	-242790.0	-263511.0
3	18	39	54	359	204.0	-164729.0	-248862.0	-263407.0
3	18	39	54	360	205.0	-160061.0	-256154.0	-263310.0
3	18	39	54	360	206.0	-158633.0	-263074.0	-263684.0
3	18	39	54	361	207.0	-160889.0	-268966.0	-264842.0
3	18	39	54	361	208.0	-166967.0	-275512.0	-265934.0
3	18	39	54	362	209.0	-172775.0	-282328.0	-267684.0
3	18	39	54	362	210.0	-175282.0	-288167.0	-269589.0
3	18	39	54	363	211.0	-174507.0	-292481.0	-271651.0
3	18	39	54	364	212.0	-170410.0	-296346.0	-273896.0
3	18	39	54	364	214.0	-158285.0	-305394.0	-272067.0
3	18	39	54	365	215.0	-149953.0	-311516.0	-267400.0
3	18	39	54	365	216.0	-141554.0	-321571.0	-265719.0
3	18	39	54	366	217.0	-134307.0	-330679.0	-260739.0
3	18	39	54	367	218.0	-127747.0	-337666.0	-252753.0
3	18	39	54	367	219.0	-119746.0	-341756.0	-242562.0
3	18	39	54	433	220.0	-111650.0	-346716.0	-236416.0
3	18	39	54	434	221.0	-102732.0	-351864.0	-231673.0
3	18	39	54	435	222.0	-94491.0	-356936.0	-227304.0
3	18	39	54	436	223.0	-89295.0	-362087.0	-223866.0
3	18	39	54	436	224.0	-85569.0	-368512.0	-221119.0
3	18	39	54	437	225.0	-85364.0	-386742.0	-220310.0
3	18	39	54	438	226.0	-84435.0	-400779.0	-220617.0
3	18	39	54	438	227.0	-81749.0	-408073.0	-222327.0
3	18	39	54	439	228.0	-74860.0	-413899.0	-225710.0
3	18	39	54	440	229.0	-70971.0	-417973.0	-227115.0
3	18	39	54	440	230.0	-67806.0	-422202.0	-227995.0
3	18	39	54	441	231.0	-61292.0	-425959.0	-229108.0
3	18	39	54	441	232.0	-54417.0	-428815.0	-229058.0
3	18	39	54	442	233.0	-43900.0	-431599.0	-231501.0
3	18	39	54	443	234.0	-23278.0	-435792.0	-231476.0
3	18	39	54	443	3.0	-1400.0	-319095.0	-226497.0
3	18	39	54	480	4.0	-1377.0	-292896.0	-227697.0
3	18	39	54	481	5.0	-1345.0	-262178.0	-229958.0
3	18	39	54	481	6.0	-1313.0	-241332.0	-233028.0
3	18	39	54	482	7.0	-1299.0	-231993.0	-233757.0
3	18	39	54	483	8.0	-1295.0	-226664.0	-234867.0
3	18	39	54	483	9.0	-1287.0	-211814.0	-234668.0
3	18	39	54	484	10.0	-1277.0	-202097.0	-234040.0
3	18	39	54	485	11.0	-1293.0	-195406.0	-233566.0
3	18	39	54	485	12.0	-1312.0	-189384.0	-234167.0
3	18	39	54	486	13.0	-1335.0	-179294.0	-234712.0
3	18	39	54	487	14.0	-1366.0	-164850.0	-234972.0
3	18	39	54	487	15.0	-1407.0	-154888.0	-233549.0
3	18	39	54	488	16.0	-1431.0	-145279.0	-232775.0
3	18	39	54	489	17.0	-1454.0	-131393.0	-233563.0
3	18	39	54	489	18.0	-1480.0	-124751.0	-232629.0
3	18	39	54	490	19.0	-1482.0	-123959.0	-230740.0
3	18	39	54	490	26.0	-1362.0	-186290.0	-241711.0
3	18	39	54	491	27.0	-1319.0	-191987.0	-243002.0
3	18	39	54	492	28.0	-1290.0	-196449.0	-242526.0
3	18	39	54	492	29.0	-1258.0	-197330.0	-242236.0
3	18	39	54	493	30.0	-1242.0	-191204.0	-242810.0
3	18	39	54	493	31.0	-1230.0	-181234.0	-243840.0
3	18	39	54	524	32.0	-1229.0	-172449.0	-245896.0
3	18	39	54	526	33.0	-1235.0	-163724.0	-247137.0
3	18	39	54	526	34.0	-1249.0	-153359.0	-248336.0
3	18	39	54	527	35.0	-1286.0	-143437.0	-249767.0
3	18	39	54	528	36.0	-1335.0	-131004.0	-250466.0
3	18	39	54	529	37.0	-1389.0	-117369.0	-250409.0
3	18	39	54	529	38.0	-1449.0	-99114.0	-249848.0
3	18	39	54	530	39.0	-2699.0	-79166.0	-248883.0
3	18	39	54	531	40.0	-9973.0	-60598.0	-248170.0
3	18	39	54	531	41.0	-19253.0	-51024.0	-247916.0
3	18	39	54	532	42.0	-25774.0	-45383.0	-247834.0
3	18	39	54	533	43.0	-30712.0	-41085.0	-247398.0
3	18	39	54	533	44.0	-34304.0	-37588.0	-248058.0
3	18	39	54	534	45.0	-35509.0	-34345.0	-249516.0
3	18	39	54	534	46.0	-35469.0	-33458.0	-250181.0
3	18	39	54	535	48.0	-37272.0	-31167.0	-248174.0
3	18	39	54	536	49.0	-36930.0	-31510.0	-246514.0
3	18	39	54	536	50.0	-36426.0	-38139.0	-246268.0
3	18	39	54	537	51.0	-36225.0	-43098.0	-246496.0
3	18	39	54	537	52.0	-37199.0	-37623.0	-246296.0
3	18	39	54	538	53.0	-38837.0	-27269.0	-246752.0
3	18	39	54	568	54.0	-39848.0	-18848.0	-248181.0
3	18	39	54	569	55.0	-41022.0	-16092.0	-249892.0
3	18	39	54	569	56.0	-41258.0	-16397.0	-251504.0
3	18	39	54	570	57.0	-41072.0	-18422.0	-251411.0
3	18	39	54	613	58.0	-40785.0	-20718.0	-251284.0
3	18	39	54	614	59.0	-40817.0	-22892.0	-250539.0
3	18	39	54	615	60.0	-40629.0	-25144.0	-250152.0
3	18	39	54	616	61.0	-40514.0	-36052.0	-251479.0
3	18	39	54	616	62.0	-40902.0	-36618.0	-252578.0
3	18	39	54	617	63.0	-41317.0	-31734.0	-252900.0
3	18	39	54	618	64.0	-42046.0	-25717.0	-253127.0
3	18	39	54	618	65.0	-43385.0	-20691.0	-254354.0
3	18	39	54	619	66.0	-44441.0	-21655.0	-255033.0
3	18	39	54	619	67.0	-44231.0	-20820.0	-254188.0
3	18	39	54	620	68.0	-42923.0	-20914.0	-253823.0
3	18	39	54	621	70.0	-40721.0	-21332.0	-252492.0
3	18	39	54	621	71.0	-41078.0	-18074.0	-252345.0
3	18	39	54	622	72.0	-42446.0	-16762.0	-253369.0
3	18	39	54	623	73.0	-44592.0	-19001.0	-254576.0
3	18	39	54	623	92.0	-79975.0	-947.0	-262364.0
3	18	39	54	624	93.0	-79081.0	-729.0	-262368.0
3	18	39	54	624	94.0	-79397.0	2544.0	-262057.0
3	18	39	54	625	95.0	-81771.0	4503.0	-262062.0
3	18	39	54	626	96.0	-83778.0	2961.0	-262012.0
3	18	39	54	626	97.0	-85233.0	1572.0	-260941.0
3	18	39	54	627	98.0	-87824.0	403.0	-260319.0
3	18	39	54	658	99.0	-89413.0	562.0	-259271.0
3	18	39	54	659	100.0	-90110.0	282.0	-259096.0
3	18	39	54	660	101.0	-89754.0	-851.0	-258895.0
3	18	39	54	660	102.0	-88450.0	258.0	-259069.0
3	18	39	54	661	103.0	-88739.0	730.0	-259130.0
3	18	39	54	670	104.0	-89881.0	32.0	-258698.0
3	18	39	54	671	105.0	-90233.0	-567.0	-259004.0
3	18	39	54	672	106.0	-91497.0	958.0	-258383.0
3	18	39	54	672	107.0	-93785.0	1801.0	-257269.0
3	18	39	54	673	108.0	-95259.0	1538.0	-256407.0
3	18	39	54	673	109.0	-97156.0	1335.0	-255463.0
3	18	39	54	674	110.0	-99731.0	1293.0	-255185.0
3	18	39	54	674	111.0	-101649.0	208.0	-255372.0
3	18	39	54	675	112.0	-101807.0	-325.0	-255721.0
3	18	39	54	676	113.0	-96766.0	-226.0	-255666.0
3	18	39	54	676	115.0	-71094.0	-653.0	-257646.0
3	18	39	54	677	116.0	-70099.0	66.0	-258006.0
3	18	39	54	677	117.0	-80944.0	977.0	-256940.0
3	18	39	54	678	118.0	-95879.0	2168.0	-256267.0
3	18	39	54	678	119.0	-120307.0	2163.0	-255370.0
3	18	39	54	679	120.0	-140077.0	-517.0	-255114.0
3	18	39	54	680	121.0	-151064.0	-1977.0	-255529.0
3	18	39	54	703	122.0	-154761.0	-1259.0	-256030.0
3	18	39	54	704	123.0	-152906.0	198.0	-256752.0
3	18	39	54	748	124.0	-151211.0	-210.0	-257849.0
3	18	39	54	749	125.0	-150247.0	-440.0	-258169.0
3	18	39	54	749	126.0	-145952.0	-10.0	-258073.0
3	18	39	54	750	127.0	-140938.0	590.0	-256846.0
3	18	39	54	751	128.0	-138559.0	-431.0	-255627.0
3	18	39	54	751	129.0	-138368.0	-1012.0	-255326.0
3	18	39	54	752	130.0	-137356.0	-681.0	-255687.0
3	18	39	54	753	131.0	-134773.0	-724.0	-255926.0
3	18	39	54	753	132.0	-130242.0	4.0	-256567.0
3	18	39	54	754	133.0	-124986.0	-189.0	-257334.0
3	18	39	54	755	134.0	-119333.0	-464.0	-257776.0
3	18	39	54	755	135.0	-112687.0	-697.0	-258131.0
3	18	39	54	756	136.0	-108204.0	-916.0	-258302.0
3	18	39	54	757	137.0	-108156.0	-746.0	-257014.0
3	18	39	54	757	138.0	-108913.0	-741.0	-255578.0
3	18	39	54	758	160.0	-139489.0	-3132.0	-253866.0
3	18	39	54	759	161.0	-144364.0	-4388.0	-254808.0
3	18	39	54	759	162.0	-149767.0	-3872.0	-255192.0
3	18	39	54	760	163.0	-155205.0	-3947.0	-255000.0
3	18	39	54	760	164.0	-159537.0	-3368.0	-255039.0
3	18	39	54	761	165.0	-161337.0	-2212.0	-255611.0
3	18	39	54	792	166.0	-159534.0	-3258.0	-255886.0
3	18	39	54	838	167.0	-157269.0	-3620.0	-255363.0
3	18	39	54	839	168.0	-155043.0	-3896.0	-253864.0
3	18	39	54	840	169.0	-150626.0	-4302.0	-253529.0
3	18	39	54	841	170.0	-144923.0	-4505.0	-254136.0
3	18	39	54	843	171.0	-139221.0	-2974.0	-254541.0
3	18	39	54	844	172.0	-133192.0	-2365.0	-254573.0
3	18	39	54	845	173.0	-127807.0	-1647.0	-254897.0
3	18	39	54	846	174.0	-124334.0	-1538.0	-255502.0
3	18	39	54	847	175.0	-122241.0	-2076.0	-256011.0
3	18	39	54	847	176.0	-120372.0	-1538.0	-255409.0
3	18	39	54	848	177.0	-120268.0	-1984.0	-254084.0
3	18	39	54	849	178.0	-121656.0	-3499.0	-252551.0
3	18	39	54	849	179.0	-121534.0	-4187.0	-251936.0
3	18	39	54	850	180.0	-120874.0	-3358.0	-252611.0
3	18	39	54	850	182.0	-121719.0	-1612.0	-252852.0
3	18	39	54	851	183.0	-121271.0	-793.0	-252695.0
3	18	39	54	852	205.0	-160832.0	-1367.0	-302007.0
3	18	39	54	852	206.0	-165552.0	369.0	-302905.0
3	18	39	54	853	207.0	-170042.0	1799.0	-302469.0
3	18	39	54	853	208.0	-174232.0	-165.0	-301037.0
3	18	39	54	854	209.0	-180631.0	-2151.0	-300765.0
3	18	39	54	854	210.0	-186255.0	-1819.0	-300894.0
3	18	39	54	884	211.0	-191724.0	-1138.0	-301359.0
3	18	39	54	934	212.0	-195146.0	-1213.0	-301762.0
3	18	39	54	935	213.0	-195034.0	-2174.0	-302176.0
3	18	39	54	936	214.0	-192781.0	-2857.0	-302510.0
3	18	39	54	937	215.0	-190668.0	-2900.0	-303145.0
3	18	39	54	937	216.0	-189616.0	-2514.0	-302587.0
3	18	39	54	938	217.0	-187804.0	-1836.0	-299508.0
3	18	39	54	938	218.0	-183784.0	-2061.0	-297366.0
3	18	39	54	939	219.0	-182532.0	-4074.0	-296682.0
3	18	39	54	940	220.0	-182030.0	-1156.0	-297963.0
3	18	39	54	940	221.0	-181446.0	-1299.0	-300049.0
3	18	39	54	941	222.0	-180774.0	-4908.0	-300719.0
3	18	39	54	941	223.0	-180181.0	-2046.0	-301920.0
3	18	39	54	942	224.0	-180960.0	-3141.0	-303693.0
3	18	39	54	942	225.0	-179855.0	-3792.0	-305382.0
3	18	39	54	943	227.0	-174725.0	-2826.0	-304857.0
3	18	39	54	944	228.0	-172663.0	-2052.0	-304116.0
3	18	39	54	944	250.0	-116617.0	-6682.0	-305624.0
3	18	39	54	945	251.0	-120099.0	-7886.0	-306390.0
3	18	39	54	945	252.0	-122611.0	-7005.0	-306471.0
3	18	39	54	946	253.0	-125674.0	-7041.0	-307215.0
3	18	39	54	973	254.0	-129664.0	-8544.0	-308766.0
3	18	39	54	973	255.0	-132123.0	-9950.0	-309384.0
3	18	39	54	974	0.0	-134596.0	-8927.0	-308488.0
3	18	39	54	975	1.0	-137160.0	-8854.0	-307452.0
3	18	39	54	976	2.0	-137419.0	-8898.0	-306707.0
3	18	39	54	976	3.0	-139591.0	-6038.0	-306321.0
3	18	39	54	977	4.0	-142749.0	-6216.0	-306483.0
3	18	39	54	977	5.0	-142811.0	-7391.0	-307966.0
3	18	39	54	978	6.0	-143854.0	-4648.0	-316106.0
3	18	39	54	979	7.0	-145894.0	-1106.0	-331986.0
3	18	39	54	979	8.0	-146329.0	-4285.0	-337477.0
3	18	39	54	980	9.0	-148012.0	-7927.0	-338894.0
3	18	39	54	981	10.0	-150035.0	-3853.0	-340469.0
3	18	39	54	981	11.0	-152481.0	-4374.0	-341637.0
3	18	39	54	982	12.0	-153402.0	-4708.0	-342391.0
3	18	39	54	983	13.0	-154841.0	-6361.0	-342439.0
3	18	39	54	983	16.0	-159817.0	-2176.0	-345238.0
3	18	39	54	984	17.0	-163322.0	-4902.0	-345917.0
3	18	39	54	985	18.0	-166960.0	-3706.0	-347067.0
3	18	39	54	985	19.0	-171334.0	-4536.0	-348144.0
3	18	39	54	986	20.0	-174533.0	-5228.0	-348064.0
3	18	39	54	986	21.0	-175706.0	-4316.0	-348314.0
3	18	39	54	987	22.0	-176012.0	-5207.0	-349287.0
3	18	39	55	17	23.0	-179939.0	-6939.0	-351242.0
3	18	39	55	18	24.0	-181086.0	-5873.0	-354686.0
3	18	39	55	19	25.0	-180122.0	-5196.0	-357967.0
3	18	39	55	20	26.0	-182422.0	-3646.0	-361421.0
3	18	39	55	21	27.0	-183272.0	-4951.0	-365626.0
3	18	39	55	21	28.0	-182601.0	-5697.0	-369561.0
3	18	39	55	22	29.0	-180550.0	-6881.0	-369418.0
3	18	39	55	23	30.0	-178626.0	-4655.0	-364168.0
3	18	39	55	23	31.0	-176439.0	-5458.0	-357596.0
3	18	39	55	24	32.0	-173752.0	-5203.0	-351204.0
3	18	39	55	25	33.0	-170210.0	-2297.0	-344243.0
3	18	39	55	26	34.0	-164933.0	-2556.0	-338257.0
3	18	39	55	27	35.0	-162402.0	-1624.0	-335165.0
3	18	39	55	28	36.0	-161109.0	-3395.0	-333598.0
3	18	39	55	29	37.0	-159211.0	-5748.0	-332462.0
3	18	39	55	35	38.0	-158794.0	-7167.0	-331783.0
3	18	39	55	36	39.0	-160349.0	-7713.0	-331721.0
3	18	39	55	36	40.0	-163183.0	-9413.0	-332319.0
3	18	39	55	37	41.0	-166707.0	-11198.0	-333969.0
3	18	39	55	38	42.0	-167565.0	-12137.0	-336427.0
3	18	39	55	38	43.0	-166213.0	-11247.0	-338319.0
3	18	39	55	39	44.0	-164577.0	-11349.0	-339522.0
3	18	39	55	64	45.0	-160920.0	-11718.0	-340006.0
3	18	39	55	65	46.0	-153741.0	-11721.0	-339854.0
3	18	39	55	65	47.0	-145652.0	-10794.0	-340113.0
3	18	39	55	66	48.0	-130772.0	-9616.0	-341223.0
3	18	39	55	66	49.0	-110807.0	-9793.0	-342131.0
3	18	39	55	67	50.0	-93854.0	-11563.0	-341496.0
3	18	39	55	68	51.0	-86404.0	-13262.0	-341262.0
3	18	39	55	68	52.0	-89844.0	-12152.0	-341419.0
3	18	39	55	69	53.0	-102026.0	-10324.0	-341631.0
3	18	39	55	69	54.0	-122075.0	-12122.0	-342704.0
3	18	39	55	70	55.0	-147595.0	-12115.0	-343522.0
3	18	39	55	70	56.0	-173889.0	-10106.0	-344693.0
3	18	39	55	71	57.0	-197975.0	-5157.0	-345580.0
3	18	39	55	71	58.0	-218542.0	6524.0	-347021.0
3	18	39	55	72	59.0	-231945.0	2840.0	-347719.0
3	18	39	55	73	61.0	-232625.0	-8084.0	-347370.0
3	18	39	55	73	62.0	-220828.0	-9231.0	-346524.0
3	18	39	55	74	63.0	-202531.0	-9673.0	-346060.0
3	18	39	55	74	64.0	-178610.0	-9392.0	-346851.0
3	18	39	55	75	65.0	-154715.0	-7972.0	-347291.0
3	18	39	55	75	66.0	-134257.0	-7911.0	-347664.0
3	18	39	55	107	67.0	-121538.0	-6870.0	-348822.0
3	18	39	55	108	68.0	-116265.0	-2511.0	-350521.0
3	18	39	55	109	69.0	-115611.0	-4317.0	-350442.0
3	18	39	55	153	70.0	-119451.0	-6037.0	-349065.0
3	18	39	55	153	71.0	-128777.0	-7180.0	-348085.0
3	18	39	55	154	72.0	-140744.0	-7717.0	-348006.0
3	18	39	55	155	73.0	-150943.0	-3861.0	-348274.0
3	18	39	55	155	74.0	-158967.0	-4138.0	-348811.0
3	18	39	55	156	75.0	-165861.0	-7431.0	-349267.0
3	18	39	55	156	76.0	-169836.0	-5129.0	-350624.0
3	18	39	55	157	77.0	-173105.0	-2582.0	-351261.0
3	18	39	55	198	78.0	-174471.0	-8031.0	-351620.0
3	18	39	55	198	79.0	-175134.0	-5588.0	-351244.0
3	18	39	55	199	80.0	-178807.0	-6158.0	-350446.0
3	18	39	55	200	81.0	-177591.0	-7154.0	-350022.0
3	18	39	55	200	83.0	-176996.0	-7415.0	-355139.0
3	18	39	55	201	84.0	-176806.0	-6860.0	-353161.0
3	18	39	55	202	85.0	-176388.0	-5104.0	-351826.0
3	18	39	55	203	86.0	-176990.0	-3617.0	-351517.0
3	18	39	55	204	106.0	-179815.0	-9456.0	-354174.0
3	18	39	55	204	107.0	-183254.0	-8097.0	-355141.0
3	18	39	55	205	108.0	-186111.0	-7911.0	-355775.0
3	18	39	55	206	109.0	-188054.0	-10727.0	-355525.0
3	18	39	55	206	110.0	-188592.0	-13052.0	-354625.0
3	18	39	55	207	111.0	-187403.0	-17079.0	-353247.0
3	18	39	55	207	112.0	-185297.0	-17217.0	-352625.0
3	18	39	55	208	128.0	-128988.0	-9663.0	-358752.0
3	18	39	55	209	129.0	-131014.0	-9370.0	-358554.0
3	18	39	55	209	130.0	-135342.0	-9134.0	-357786.0
3	18	39	55	210	131.0	-137514.0	-10684.0	-356987.0
3	18	39	55	210	132.0	-140337.0	-11508.0	-357274.0
3	18	39	55	218	133.0	-144286.0	-10892.0	-357006.0
3	18	39	55	219	134.0	-147921.0	-11241.0	-357168.0
3	18	39	55	243	135.0	-152136.0	-9247.0	-357610.0
3	18	39	55	244	136.0	-155760.0	-7416.0	-357747.0
3	18	39	55	245	137.0	-159641.0	-6806.0	-358024.0
3	18	39	55	245	138.0	-162938.0	-8688.0	-358992.0
3	18	39	55	246	139.0	-165326.0	-6764.0	-358636.0
3	18	39	55	246	140.0	-167824.0	-7128.0	-357769.0
3	18	39	55	247	141.0	-170851.0	-8526.0	-356176.0
3	18	39	55	248	142.0	-172196.0	-9171.0	-355773.0
3	18	39	55	248	143.0	-172551.0	-11602.0	-355744.0
3	18	39	55	249	144.0	-171914.0	-10806.0	-356001.0
3	18	39	55	249	145.0	-170320.0	-9356.0	-356357.0
3	18	39	55	250	146.0	-167947.0	-6900.0	-356808.0
3	18	39	55	251	147.0	-164817.0	-4153.0	-357296.0
3	18	39	55	251	148.0	-161312.0	-6160.0	-357023.0
3	18	39	55	252	149.0	-157686.0	-8277.0	-355194.0
3	18	39	55	252	151.0	-150912.0	-9957.0	-352682.0
3	18	39	55	253	152.0	-148664.0	-9366.0	-352554.0
3	18	39	55	254	153.0	-147202.0	-8381.0	-352652.0
3	18	39	55	254	154.0	-145949.0	-9561.0	-352358.0
3	18	39	55	255	155.0	-144538.0	-7291.0	-351606.0
3	18	39	55	255	156.0	-144649.0	-5797.0	-351084.0
3	18	39	55	286	157.0	-146215.0	-5707.0	-351278.0
3	18	39	55	287	158.0	-147839.0	-5996.0	-351223.0
3	18	39	55	288	159.0	-149584.0	-6481.0	-350299.0
3	18	39	55	288	160.0	-151279.0	-9467.0	-349626.0
3	18	39	55	289	161.0	-153694.0	-9596.0	-348194.0
3	18	39	55	290	162.0	-157036.0	-9549.0	-347491.0
3	18	39	55	290	163.0	-159772.0	-10777.0	-347556.0
3	18	39	55	291	164.0	-161519.0	-7614.0	-347819.0
3	18	39	55	291	165.0	-163017.0	-1195.0	-347582.0
3	18	39	55	292	166.0	-164573.0	-3685.0	-347359.0
3	18	39	55	293	167.0	-165531.0	-2800.0	-346965.0
3	18	39	55	293	168.0	-166295.0	-4227.0	-347013.0
3	18	39	55	294	169.0	-166835.0	-9986.0	-346272.0
3	18	39	55	295	170.0	-167319.0	-4157.0	-344909.0
3	18	39	55	295	171.0	-168012.0	-3044.0	-343476.0
3	18	39	55	296	173.0	-168192.0	-9584.0	-342974.0
3	18	39	55	297	174.0	-167415.0	-7925.0	-343238.0
3	18	39	55	298	175.0	-167067.0	-6642.0	-343204.0
3	18	39	55	298	176.0	-167675.0	-7398.0	-343601.0
3	18	39	55	299	177.0	-168406.0	-7517.0	-344142.0
3	18	39	55	300	178.0	-168873.0	-8214.0	-344279.0
3	18	39	55	331	179.0	-169457.0	-8097.0	-343330.0
3	18	39	55	332	180.0	-170366.0	-9002.0	-342434.0
3	18	39	55	333	181.0	-168462.0	-10057.0	-341254.0
3	18	39	55	333	182.0	-160642.0	-10047.0	-340811.0
3	18	39	55	334	183.0	-145895.0	-9384.0	-340951.0
3	18	39	55	335	184.0	-133954.0	-7314.0	-341387.0
3	18	39	55	336	185.0	-132711.0	-9014.0	-340493.0
3	18	39	55	337	186.0	-141297.0	-9469.0	-340720.0
3	18	39	55	337	187.0	-153670.0	-9143.0	-340847.0
3	18	39	55	338	188.0	-172847.0	-7994.0	-341150.0
3	18	39	55	338	189.0	-184446.0	-7821.0	-340746.0
3	18	39	55	339	190.0	-190136.0	-8525.0	-339361.0
3	18	39	55	340	191.0	-189818.0	-11224.0	-338437.0
3	18	39	55	340	192.0	-185539.0	-8628.0	-338535.0
3	18	39	55	341	193.0	-180498.0	-5251.0	-339056.0
3	18	39	55	341	195.0	-169774.0	-9483.0	-339510.0
3	18	39	55	342	196.0	-165608.0	-12810.0	-339701.0
3	18	39	55	343	197.0	-162125.0	-9718.0	-340685.0
3	18	39	55	343	198.0	-160075.0	-8367.0	-340465.0
3	18	39	55	344	199.0	-159153.0	-5921.0	-338972.0
3	18	39	55	344	200.0	-157084.0	-7965.0	-337868.0
3	18	39	55	345	201.0	-154332.0	-11861.0	-336761.0
3	18	39	55	378	202.0	-152157.0	-13039.0	-336465.0
3	18	39	55	378	203.0	-150287.0	-10802.0	-337267.0
3	18	39	55	379	204.0	-149100.0	-10256.0	-337289.0
3	18	39	55	380	205.0	-147705.0	-8199.0	-337621.0
3	18	39	55	380	206.0	-144654.0	-8319.0	-338028.0
3	18	39	55	381	207.0	-139682.0	-9225.0	-338869.0
3	18	39	55	382	208.0	-132532.0	-8966.0	-338706.0
3	18	39	55	382	209.0	-127579.0	-9647.0	-337338.0
3	18	39	55	383	210.0	-127324.0	-9656.0	-336210.0
3	18	39	55	383	211.0	-127141.0	-8930.0	-335694.0
3	18	39	55	384	212.0	-128504.0	-9787.0	-335616.0
3	18	39	55	385	213.0	-131732.0	-10646.0	-336707.0
3	18	39	55	385	214.0	-135749.0	-9151.0	-337039.0
3	18	39	55	386	215.0	-144567.0	-8496.0	-336929.0
3	18	39	55	386	216.0	-151529.0	-4939.0	-337231.0
3	18	39	55	387	218.0	-159897.0	-6449.0	-338020.0
3	18	39	55	388	219.0	-166008.0	-7156.0	-337877.0
3	18	39	55	388	220.0	-172891.0	-7951.0	-337596.0
3	18	39	55	389	221.0	-177212.0	-9726.0	-337309.0
3	18	39	55	389	222.0	-178439.0	-9909.0	-337244.0
3	18	39	55	390	223.0	-177941.0	-8779.0	-335693.0
3	18	39	55	390	224.0	-178934.0	-10277.0	-336233.0
3	18	39	55	468	225.0	-181891.0	-9480.0	-336607.0
3	18	39	55	469	226.0	-186351.0	-8869.0	-336996.0
3	18	39	55	470	227.0	-184241.0	-7956.0	-337580.0
3	18	39	55	470	228.0	-181992.0	-7296.0	-337626.0
3	18	39	55	471	229.0	-182813.0	-8693.0	-337296.0
3	18	39	55	472	230.0	-186216.0	-9811.0	-337005.0
3	18	39	55	474	231.0	-190752.0	-9996.0	-336261.0
3	18	39	55	475	232.0	-192164.0	-8652.0	-336569.0
3	18	39	55	476	233.0	-191844.0	-4854.0	-337771.0
3	18	39	55	477	234.0	-190676.0	-6391.0	-337540.0
3	18	39	55	477	235.0	-190129.0	-6341.0	-337396.0
3	18	39	55	478	236.0	-190516.0	-756.0	-337852.0
3	18	39	55	478	237.0	-191356.0	-3099.0	-338691.0
3	18	39	55	479	238.0	-186184.0	-6647.0	-338487.0
3	18	39	55	479	239.0	-180227.0	-7812.0	-337821.0
3	18	39	55	480	7.0	-176592.0	-9906.0	-337300.0
3	18	39	55	481	8.0	-182585.0	-10477.0	-337542.0
3	18	39	55	481	9.0	-188701.0	-10544.0	-337984.0
3	18	39	55	482	10.0	-192625.0	-9953.0	-338884.0
3	18	39	55	482	11.0	-197128.0	-9343.0	-339319.0
3	18	39	55	558	12.0	-201641.0	-9471.0	-338599.0
3	18	39	55	559	13.0	-202146.0	-9906.0	-337831.0
3	18	39	55	560	14.0	-200684.0	-11263.0	-337177.0
3	18	39	55	561	15.0	-200972.0	-12510.0	-336716.0
3	18	39	55	561	16.0	-202490.0	-12375.0	-337061.0
3	18	39	55	562	17.0	-203234.0	-13773.0	-338014.0
3	18	39	55	563	18.0	-201837.0	-16835.0	-338722.0
3	18	39	55	563	19.0	-198532.0	-13859.0	-339074.0
3	18	39	55	564	20.0	-195145.0	-11706.0	-339958.0
3	18	39	55	564	21.0	-191126.0	-10622.0	-340636.0
3	18	39	55	565	22.0	-185226.0	-10915.0	-340004.0
3	18	39	55	566	23.0	-181114.0	-9968.0	-339366.0
3	18	39	55	566	24.0	-179024.0	-4282.0	-338766.0
3	18	39	55	567	25.0	-177879.0	-8261.0	-338717.0
3	18	39	55	567	26.0	-175609.0	-11371.0	-338750.0
3	18	39	55	568	27.0	-171718.0	-11872.0	-339449.0
3	18	39	55	569	52.0	-162663.0	-11204.0	-336834.0
3	18	39	55	603	53.0	-162009.0	-12721.0	-335445.0
3	18	39	55	604	54.0	-161697.0	-14189.0	-334437.0
3	18	39	55	604	55.0	-160941.0	-14924.0	-333580.0
3	18	39	55	605	56.0	-160775.0	-15471.0	-333249.0
3	18	39	55	648	57.0	-161332.0	-14557.0	-333327.0
3	18	39	55	649	58.0	-161621.0	-13092.0	-333461.0
3	18	39	55	649	59.0	-162096.0	-12607.0	-333338.0
3	18	39	55	650	60.0	-162362.0	-12451.0	-334334.0
3	18	39	55	651	61.0	-163031.0	-12828.0	-335235.0
3	18	39	55	651	62.0	-163219.0	-12107.0	-334357.0
3	18	39	55	652	63.0	-162634.0	-10446.0	-333106.0
3	18	39	55	653	64.0	-162452.0	-13304.0	-331924.0
3	18	39	55	655	65.0	-163112.0	-14850.0	-331751.0
3	18	39	55	656	66.0	-164327.0	-15072.0	-332956.0
3	18	39	55	657	67.0	-165345.0	-13749.0	-333246.0
3	18	39	55	657	68.0	-165884.0	-13629.0	-333237.0
3	18	39	55	658	74.0	-184541.0	-18306.0	-327706.0
3	18	39	55	658	75.0	-187371.0	-17774.0	-327636.0
3	18	39	55	659	76.0	-189894.0	-14994.0	-328154.0
3	18	39	55	660	77.0	-191706.0	-14162.0	-329251.0
3	18	39	55	660	97.0	-172673.0	-14867.0	-350568.0
3	18	39	55	661	98.0	-168631.0	-14906.0	-350963.0
3	18	39	55	661	99.0	-164122.0	-14011.0	-347610.0
3	18	39	55	662	100.0	-159291.0	-13656.0	-343594.0
3	18	39	55	662	101.0	-154928.0	-14278.0	-338008.0
3	18	39	55	663	102.0	-150986.0	-15051.0	-330406.0
3	18	39	55	695	103.0	-146947.0	-15623.0	-323404.0
3	18	39	55	695	104.0	-143031.0	-16546.0	-319465.0
3	18	39	55	696	105.0	-140020.0	-17056.0	-317940.0
3	18	39	55	697	106.0	-138228.0	-17074.0	-316974.0
3	18	39	55	697	107.0	-137818.0	-16690.0	-316338.0
3	18	39	55	698	108.0	-138050.0	-16577.0	-315910.0
3	18	39	55	699	109.0	-139051.0	-15949.0	-317546.0
3	18	39	55	699	110.0	-141162.0	-15477.0	-320700.0
3	18	39	55	700	111.0	-144084.0	-13093.0	-323202.0
3	18	39	55	701	112.0	-148103.0	-12537.0	-323371.0
3	18	39	55	701	113.0	-152331.0	-15169.0	-322990.0
3	18	39	55	702	114.0	-154956.0	-18469.0	-323192.0
3	18	39	55	702	115.0	-155524.0	-21729.0	-322564.0
3	18	39	55	703	116.0	-153784.0	-19442.0	-322654.0
3	18	39	55	704	117.0	-145380.0	-17681.0	-323577.0
3	18	39	55	704	119.0	-117262.0	-15047.0	-324426.0
3	18	39	55	705	120.0	-105177.0	-14844.0	-325906.0
3	18	39	55	705	121.0	-101602.0	-14630.0	-326833.0
3	18	39	55	706	122.0	-107429.0	-15831.0	-326161.0
3	18	39	55	707	123.0	-122756.0	-16777.0	-324921.0
3	18	39	55	708	124.0	-144099.0	-18116.0	-324575.0
3	18	39	55	738	125.0	-168421.0	-17933.0	-324287.0
3	18	39	55	739	126.0	-194054.0	-17150.0	-324834.0
3	18	39	55	740	127.0	-217237.0	-16307.0	-325675.0
3	18	39	55	740	128.0	-233447.0	-15696.0	-326552.0
3	18	39	55	741	129.0	-241241.0	-14609.0	-327302.0
3	18	39	55	742	130.0	-242962.0	-13820.0	-328569.0
3	18	39	55	742	131.0	-240177.0	-10669.0	-328510.0
3	18	39	55	743	132.0	-230414.0	-11476.0	-328519.0
3	18	39	55	744	133.0	-216562.0	-14497.0	-328132.0
3	18	39	55	744	134.0	-202197.0	-16323.0	-327494.0
3	18	39	55	745	135.0	-189266.0	-16281.0	-327512.0
3	18	39	55	746	136.0	-179274.0	-16076.0	-328336.0
3	18	39	55	746	137.0	-172648.0	-15491.0	-328754.0
3	18	39	55	747	138.0	-169331.0	-14859.0	-328862.0
3	18	39	55	747	139.0	-169139.0	-15593.0	-328921.0
3	18	39	55	748	141.0	-173572.0	-15632.0	-328480.0
3	18	39	55	749	142.0	-175793.0	-15746.0	-326916.0
3	18	39	55	749	143.0	-176800.0	-16599.0	-326054.0
3	18	39	55	750	144.0	-176794.0	-16544.0	-325739.0
3	18	39	55	751	145.0	-176546.0	-15893.0	-325397.0
3	18	39	55	751	146.0	-176527.0	-15500.0	-325586.0
3	18	39	55	752	147.0	-176789.0	-15328.0	-326164.0
3	18	39	55	784	148.0	-177382.0	-14849.0	-327226.0
3	18	39	55	785	149.0	-178379.0	-15051.0	-327504.0
3	18	39	55	785	150.0	-179221.0	-14786.0	-327816.0
3	18	39	55	786	151.0	-179821.0	-14147.0	-327015.0
3	18	39	55	787	152.0	-180635.0	-13660.0	-326066.0
3	18	39	55	787	153.0	-182116.0	-14171.0	-324999.0
3	18	39	55	788	154.0	-184541.0	-14679.0	-324052.0
3	18	39	55	789	155.0	-187802.0	-15123.0	-324291.0
3	18	39	55	789	156.0	-192051.0	-16682.0	-325149.0
3	18	39	55	790	157.0	-196967.0	-17489.0	-325966.0
3	18	39	55	790	158.0	-202479.0	-16794.0	-326486.0
3	18	39	55	791	159.0	-207942.0	-15330.0	-326766.0
3	18	39	55	792	160.0	-212234.0	-13979.0	-327768.0
3	18	39	55	792	161.0	-215512.0	-13741.0	-327297.0
3	18	39	55	793	162.0	-217336.0	-14856.0	-326406.0
3	18	39	55	794	164.0	-214997.0	-18802.0	-325162.0
3	18	39	55	794	165.0	-210774.0	-19054.0	-325118.0
3	18	39	55	795	166.0	-205457.0	-17679.0	-325757.0
3	18	39	55	795	167.0	-199712.0	-15646.0	-326244.0
3	18	39	55	796	168.0	-194679.0	-14029.0	-326631.0
3	18	39	55	796	169.0	-190246.0	-13317.0	-327235.0
3	18	39	55	919	170.0	-186276.0	-12633.0	-328122.0
3	18	39	55	920	171.0	-183743.0	-12228.0	-327642.0
3	18	39	55	921	172.0	-181569.0	-10929.0	-326472.0
3	18	39	55	921	173.0	-179607.0	-14452.0	-325796.0
3	18	39	55	922	174.0	-178069.0	-17399.0	-325384.0
3	18	39	55	923	175.0	-177708.0	-19439.0	-325047.0
3	18	39	55	923	176.0	-178068.0	-19057.0	-325516.0
3	18	39	55	924	177.0	-178346.0	-16752.0	-326274.0
3	18	39	55	925	178.0	-178655.0	-16384.0	-326632.0
3	18	39	55	925	179.0	-178516.0	-16334.0	-327258.0
3	18	39	55	926	180.0	-177869.0	-15366.0	-328512.0
3	18	39	55	926	181.0	-176341.0	-15714.0	-327793.0
3	18	39	55	927	182.0	-175145.0	-17001.0	-326404.0
3	18	39	55	928	183.0	-174084.0	-19117.0	-325899.0
3	18	39	55	928	184.0	-173676.0	-20482.0	-326075.0
3	18	39	55	929	186.0	-174528.0	-19149.0	-326491.0
3	18	39	55	962	231.0	-149456.0	-17243.0	-318551.0
3	18	39	55	963	232.0	-150846.0	-15844.0	-317096.0
3	18	39	55	964	233.0	-152840.0	-15639.0	-315757.0
3	18	39	55	965	234.0	-155661.0	-16077.0	-315080.0
3	18	39	55	966	235.0	-159039.0	-16209.0	-314897.0
3	18	39	55	967	236.0	-162867.0	-15074.0	-315057.0
3	18	39	55	968	237.0	-165702.0	-14456.0	-315396.0
3	18	39	55	969	238.0	-168545.0	-13524.0	-315547.0
3	18	39	55	969	239.0	-171781.0	-12916.0	-315444.0
3	18	39	55	970	240.0	-175009.0	-12226.0	-315573.0
3	18	39	55	971	241.0	-177820.0	-12295.0	-314536.0
3	18	39	56	8	242.0	-180141.0	-12714.0	-313382.0
3	18	39	56	9	243.0	-182476.0	-13199.0	-312725.0
3	18	39	56	9	244.0	-184464.0	-13220.0	-311908.0
3	18	39	56	10	245.0	-185914.0	-13288.0	-311242.0
3	18	39	56	11	254.0	-160770.0	-14370.0	-308099.0
3	18	39	56	11	255.0	-172962.0	-14101.0	-308426.0
3	18	39	56	12	0.0	-188108.0	-13244.0	-308440.0
3	18	39	56	13	1.0	-196296.0	-12160.0	-308360.0
3	18	39	56	13	2.0	-200701.0	-11818.0	-308908.0
3	18	39	56	14	3.0	-199989.0	-11823.0	-309505.0
3	18	39	56	15	4.0	-196990.0	-12025.0	-309928.0
3	18	39	56	15	5.0	-195464.0	-12314.0	-308867.0
3	18	39	56	16	6.0	-192294.0	-13538.0	-307272.0
3	18	39	56	17	7.0	-186479.0	-14666.0	-306627.0
3	18	39	56	17	8.0	-181312.0	-15538.0	-306482.0
3	18	39	56	18	9.0	-178939.0	-16017.0	-306402.0
3	18	39	56	19	21.0	-175956.0	-4896.0	-304329.0
3	18	39	56	19	22.0	-165047.0	-7738.0	-304581.0
3	18	39	56	20	23.0	-152013.0	-13647.0	-305496.0
3	18	39	56	21	24.0	-138543.0	-18710.0	-305582.0
3	18	39	56	21	25.0	-127288.0	-15446.0	-304596.0
3	18	39	56	144	26.0	-121187.0	-9764.0	-303506.0
3	18	39	56	145	27.0	-117987.0	-7361.0	-302581.0
3	18	39	56	146	28.0	-117424.0	-11081.0	-302280.0
3	18	39	56	146	29.0	-119394.0	-13866.0	-302612.0
3	18	39	56	147	30.0	-123851.0	-13639.0	-302562.0
3	18	39	56	148	31.0	-129399.0	-12250.0	-303103.0
3	18	39	56	149	32.0	-135894.0	-11712.0	-303436.0
3	18	39	56	149	33.0	-142944.0	-9667.0	-303914.0
3	18	39	56	150	34.0	-150206.0	-9367.0	-304077.0
3	18	39	56	151	35.0	-156621.0	-11295.0	-303944.0
3	18	39	56	151	36.0	-161333.0	-13326.0	-302622.0
3	18	39	56	152	37.0	-165090.0	-13517.0	-302114.0
3	18	39	56	153	38.0	-167007.0	-12613.0	-302352.0
3	18	39	56	153	39.0	-169301.0	-12186.0	-303209.0
3	18	39	56	154	40.0	-170501.0	-7530.0	-303650.0
3	18	39	56	155	41.0	-171141.0	-4933.0	-303556.0
3	18	39	56	155	88.0	-157831.0	-15096.0	-298721.0
3	18	39	56	156	89.0	-157227.0	-14567.0	-298500.0
3	18	39	56	156	90.0	-157526.0	-14233.0	-298336.0
3	18	39	56	157	91.0	-158024.0	-13873.0	-298945.0
3	18	39	56	158	92.0	-158383.0	-13616.0	-298999.0
3	18	39	56	158	93.0	-159012.0	-12595.0	-298772.0
3	18	39	56	188	94.0	-159579.0	-12640.0	-298104.0
3	18	39	56	189	95.0	-160194.0	-13729.0	-296862.0
3	18	39	56	189	96.0	-160391.0	-15238.0	-295097.0
3	18	39	56	190	97.0	-160939.0	-16266.0	-295329.0
3	18	39	56	191	98.0	-161744.0	-15614.0	-295661.0
3	18	39	56	192	99.0	-163022.0	-14929.0	-296304.0
3	18	39	56	192	100.0	-164612.0	-14502.0	-296773.0
3	18	39	56	193	101.0	-166270.0	-8929.0	-297899.0
3	18	39	56	194	102.0	-166837.0	-6796.0	-298505.0
3	18	39	56	194	103.0	-167782.0	-10579.0	-299116.0
3	18	39	56	195	104.0	-167604.0	-12664.0	-297994.0
3	18	39	56	196	105.0	-167187.0	-14649.0	-296779.0
3	18	39	56	196	106.0	-167019.0	-14972.0	-296307.0
3	18	39	56	197	107.0	-166611.0	-13637.0	-295971.0
3	18	39	56	198	108.0	-166309.0	-12704.0	-296132.0
3	18	39	56	199	110.0	-164886.0	-11189.0	-296727.0
3	18	39	56	199	111.0	-163419.0	-7462.0	-297300.0
3	18	39	56	200	112.0	-162161.0	-3156.0	-296913.0
3	18	39	56	201	113.0	-160529.0	-7918.0	-294625.0
3	18	39	56	201	114.0	-158238.0	-14832.0	-291149.0
3	18	39	56	202	115.0	-156102.0	-19456.0	-289329.0
3	18	39	56	233	116.0	-153611.0	-15991.0	-288886.0
3	18	39	56	234	117.0	-151034.0	-10184.0	-289811.0
3	18	39	56	235	118.0	-149253.0	-8184.0	-290051.0
3	18	39	56	235	119.0	-148070.0	-9796.0	-288329.0
3	18	39	56	237	120.0	-146786.0	-9842.0	-287766.0
3	18	39	56	237	121.0	-146058.0	-10266.0	-288761.0
3	18	39	56	238	122.0	-145879.0	-10417.0	-289404.0
3	18	39	56	239	123.0	-145832.0	-10291.0	-289279.0
3	18	39	56	239	124.0	-146370.0	-10767.0	-288727.0
3	18	39	56	240	125.0	-147746.0	-8924.0	-286180.0
3	18	39	56	277	126.0	-149201.0	-4841.0	-284792.0
3	18	39	56	278	127.0	-149922.0	-9206.0	-284574.0
3	18	39	56	279	128.0	-150404.0	-10949.0	-284015.0
3	18	39	56	280	129.0	-151126.0	-11212.0	-285170.0
3	18	39	56	280	130.0	-151825.0	-10889.0	-285604.0
3	18	39	56	281	132.0	-152685.0	-17726.0	-284441.0
3	18	39	56	282	133.0	-152291.0	-16888.0	-284341.0
3	18	39	56	282	134.0	-151852.0	-13157.0	-283004.0
3	18	39	56	283	135.0	-151771.0	-12797.0	-281643.0
3	18	39	56	284	136.0	-150819.0	-13257.0	-280581.0
3	18	39	56	284	137.0	-148963.0	-11631.0	-279963.0
3	18	39	56	285	138.0	-147024.0	-10457.0	-280291.0
3	18	39	56	369	139.0	-145482.0	-9615.0	-280754.0
3	18	39	56	370	140.0	-144204.0	-9779.0	-280686.0
3	18	39	56	371	141.0	-143473.0	-9509.0	-280771.0
3	18	39	56	371	142.0	-143182.0	-9140.0	-281241.0
3	18	39	56	372	155.0	-150832.0	-9817.0	-278744.0
3	18	39	56	374	156.0	-152744.0	-10860.0	-278075.0
3	18	39	56	375	157.0	-153808.0	-10457.0	-278616.0
3	18	39	56	376	158.0	-155217.0	-9837.0	-279110.0
3	18	39	56	377	159.0	-156676.0	-9750.0	-278954.0
3	18	39	56	378	160.0	-158666.0	-9347.0	-279576.0
3	18	39	56	378	161.0	-160638.0	-8494.0	-280102.0
3	18	39	56	379	162.0	-162054.0	-6850.0	-280334.0
3	18	39	56	379	163.0	-164081.0	-8072.0	-281062.0
3	18	39	56	380	164.0	-167246.0	-9082.0	-281468.0
3	18	39	56	381	165.0	-169471.0	-8737.0	-281556.0
3	18	39	56	381	166.0	-169954.0	-9128.0	-280216.0
3	18	39	56	382	200.0	-155637.0	-9397.0	-281312.0
3	18	39	56	382	201.0	-155822.0	-9416.0	-281712.0
3	18	39	56	383	202.0	-155441.0	-9391.0	-282162.0
3	18	39	56	384	203.0	-155869.0	-9330.0	-281718.0
3	18	39	56	415	204.0	-155909.0	-10625.0	-280598.0
3	18	39	56	458	205.0	-156462.0	-12305.0	-279163.0
3	18	39	56	459	206.0	-155596.0	-12000.0	-278942.0
3	18	39	56	459	207.0	-154061.0	-12417.0	-279771.0
3	18	39	56	460	208.0	-152407.0	-12770.0	-279750.0
3	18	39	56	461	209.0	-151520.0	-11677.0	-279825.0
3	18	39	56	462	210.0	-152001.0	-12631.0	-280359.0
3	18	39	56	462	211.0	-153014.0	-12269.0	-280974.0
3	18	39	56	463	212.0	-154347.0	-11485.0	-281374.0
3	18	39	56	464	213.0	-156724.0	-11387.0	-280645.0
3	18	39	56	464	214.0	-157577.0	-11042.0	-279272.0
3	18	39	56	465	215.0	-158014.0	-11701.0	-277954.0
3	18	39	56	504	216.0	-159104.0	-12576.0	-277382.0
3	18	39	56	505	217.0	-158877.0	-12170.0	-277494.0
3	18	39	56	506	218.0	-158220.0	-11549.0	-277633.0
3	18	39	56	506	222.0	-156241.0	-9709.0	-279794.0
3	18	39	56	507	244.0	-166855.0	-4716.0	-289456.0
3	18	39	56	509	245.0	-164944.0	-9542.0	-291386.0
3	18	39	56	510	246.0	-163442.0	-12170.0	-293909.0
3	18	39	56	511	247.0	-161519.0	-11929.0	-295379.0
3	18	39	56	512	248.0	-158069.0	-10742.0	-292821.0
3	18	39	56	513	249.0	-154939.0	-11129.0	-288041.0
3	18	39	56	513	250.0	-151987.0	-11067.0	-283504.0
3	18	39	56	514	251.0	-149182.0	-10641.0	-278507.0
3	18	39	56	515	252.0	-147492.0	-6886.0	-271627.0
3	18	39	56	515	253.0	-146404.0	-6165.0	-265050.0
3	18	39	56	516	254.0	-145843.0	-10760.0	-260232.0
3	18	39	56	517	255.0	-146602.0	-13468.0	-257463.0
3	18	39	56	517	11.0	-108665.0	-13314.0	-267097.0
3	18	39	56	518	12.0	-90204.0	-11741.0	-267807.0
3	18	39	56	519	13.0	-83209.0	-11621.0	-268285.0
3	18	39	56	519	14.0	-88431.0	-11180.0	-268938.0
3	18	39	56	520	15.0	-105364.0	-10936.0	-269904.0
3	18	39	56	521	16.0	-129472.0	-10411.0	-270388.0
3	18	39	56	594	17.0	-155622.0	-10209.0	-269531.0
3	18	39	56	595	18.0	-180682.0	-10551.0	-269033.0
3	18	39	56	596	19.0	-201330.0	-11950.0	-267914.0
3	18	39	56	597	20.0	-214702.0	-12649.0	-268336.0
3	18	39	56	597	21.0	-219246.0	-11856.0	-268996.0
3	18	39	56	598	22.0	-213581.0	-11105.0	-270412.0
3	18	39	56	599	23.0	-198875.0	-11054.0	-271229.0
3	18	39	56	599	24.0	-180087.0	-10541.0	-271832.0
3	18	39	56	600	25.0	-167687.0	-9914.0	-272546.0
3	18	39	56	601	26.0	-161522.0	-8827.0	-272980.0
3	18	39	56	602	27.0	-158561.0	-9589.0	-271957.0
3	18	39	56	602	28.0	-158214.0	-10920.0	-271114.0
3	18	39	56	603	29.0	-157807.0	-12369.0	-269929.0
3	18	39	56	604	30.0	-158136.0	-15495.0	-270014.0
3	18	39	56	604	31.0	-159514.0	-18041.0	-270605.0
3	18	39	56	605	56.0	-172166.0	-8224.0	-272065.0
3	18	39	56	605	57.0	-168712.0	-9144.0	-270979.0
3	18	39	56	606	58.0	-165711.0	-7424.0	-270306.0
3	18	39	56	607	59.0	-162997.0	-8238.0	-269492.0
3	18	39	56	607	60.0	-161457.0	-11790.0	-269517.0
3	18	39	56	608	61.0	-160922.0	-14924.0	-270271.0
3	18	39	56	638	62.0	-161617.0	-12811.0	-270862.0
3	18	39	56	639	63.0	-162734.0	-10811.0	-271324.0
3	18	39	56	639	64.0	-164156.0	-10514.0	-271367.0
3	18	39	56	640	65.0	-166348.0	-10262.0	-271439.0
3	18	39	56	641	66.0	-169416.0	-10190.0	-271824.0
3	18	39	56	641	67.0	-172666.0	-8643.0	-270689.0
3	18	39	56	642	68.0	-175967.0	-10086.0	-269322.0
3	18	39	56	643	69.0	-179161.0	-12075.0	-268551.0
3	18	39	56	644	70.0	-180374.0	-11615.0	-268469.0
3	18	39	56	644	71.0	-180119.0	-10659.0	-269419.0
3	18	39	56	645	72.0	-179516.0	-11125.0	-269626.0
3	18	39	56	646	73.0	-179206.0	-11144.0	-269719.0
3	18	39	56	646	74.0	-177988.0	-10903.0	-270012.0
3	18	39	56	647	75.0	-176684.0	-10212.0	-270249.0
3	18	39	56	648	76.0	-174197.0	-9719.0	-270331.0
3	18	39	56	648	78.0	-168297.0	-12227.0	-268857.0
3	18	39	56	649	79.0	-166416.0	-12978.0	-267499.0
3	18	39	56	650	80.0	-165603.0	-12111.0	-267711.0
3	18	39	56	650	81.0	-164563.0	-10857.0	-268532.0
3	18	39	56	651	82.0	-163959.0	-10701.0	-268523.0
3	18	39	56	651	83.0	-163477.0	-10112.0	-269293.0
3	18	39	56	683	84.0	-162852.0	-9868.0	-269685.0
3	18	39	56	684	85.0	-161926.0	-10231.0	-270156.0
3	18	39	56	685	86.0	-161219.0	-10286.0	-270288.0
3	18	39	56	686	87.0	-160929.0	-10506.0	-269406.0
3	18	39	56	687	88.0	-160172.0	-11364.0	-268180.0
3	18	39	56	687	89.0	-158934.0	-14159.0	-268271.0
3	18	39	56	688	90.0	-158413.0	-14347.0	-269239.0
3	18	39	56	689	91.0	-158823.0	-11980.0	-270114.0
3	18	39	56	689	92.0	-159521.0	-11111.0	-270492.0
3	18	39	56	690	93.0	-160547.0	-9930.0	-270839.0
3	18	39	56	691	94.0	-162167.0	-8559.0	-271501.0
3	18	39	56	692	95.0	-163436.0	-8653.0	-271402.0
3	18	39	56	692	96.0	-165224.0	-8692.0	-270854.0
3	18	39	56	693	97.0	-167252.0	-5489.0	-269883.0
3	18	39	56	694	98.0	-169236.0	-6601.0	-268822.0
3	18	39	56	694	100.0	-172301.0	-13460.0	-268627.0
3	18	39	56	695	101.0	-173609.0	-13630.0	-269030.0
3	18	39	56	695	102.0	-174136.0	-13410.0	-269070.0
3	18	39	56	696	103.0	-174053.0	-12606.0	-269564.0
3	18	39	56	697	104.0	-173454.0	-12507.0	-269752.0
3	18	39	56	697	105.0	-172145.0	-12662.0	-269329.0
3	18	39	56	698	106.0	-169341.0	-12224.0	-268563.0
3	18	39	56	729	107.0	-165993.0	-12603.0	-267546.0
3	18	39	56	729	108.0	-162989.0	-14553.0	-266555.0
3	18	39	56	730	109.0	-161382.0	-14666.0	-265440.0
3	18	39	56	731	110.0	-160289.0	-13139.0	-264899.0
3	18	39	56	732	111.0	-159599.0	-12499.0	-265474.0
3	18	39	56	732	112.0	-159392.0	-13332.0	-265281.0
3	18	39	56	733	113.0	-158825.0	-11671.0	-265115.0
3	18	39	56	734	114.0	-159046.0	-10087.0	-264880.0
3	18	39	56	734	115.0	-158510.0	-11319.0	-264782.0
3	18	39	56	735	116.0	-158471.0	-11497.0	-264056.0
3	18	39	56	736	117.0	-160239.0	-11900.0	-262522.0
3	18	39	56	736	118.0	-162536.0	-12762.0	-261104.0
3	18	39	56	737	119.0	-165847.0	-13201.0	-259839.0
3	18	39	56	738	120.0	-168064.0	-13786.0	-259031.0
3	18	39	56	739	121.0	-169779.0	-13909.0	-259028.0
3	18	39	56	804	123.0	-171491.0	-12317.0	-259184.0
3	18	39	56	822	124.0	-172424.0	-10892.0	-258739.0
3	18	39	56	823	125.0	-173268.0	-10368.0	-259186.0
3	18	39	56	824	126.0	-174348.0	-8746.0	-257805.0
3	18	39	56	824	127.0	-175050.0	-11366.0	-256246.0
3	18	39	56	825	128.0	-176774.0	-14970.0	-254736.0
3	18	39	56	826	129.0	-178844.0	-17450.0	-254067.0
3	18	39	56	827	130.0	-181007.0	-15384.0	-253887.0
3	18	39	56	827	131.0	-182374.0	-14695.0	-254372.0
3	18	39	56	828	132.0	-183934.0	-16408.0	-254502.0
3	18	39	56	829	133.0	-185762.0	-16067.0	-254789.0
3	18	39	56	829	134.0	-187228.0	-13046.0	-255392.0
3	18	39	56	830	135.0	-188419.0	-12444.0	-255698.0
3	18	39	56	830	136.0	-189679.0	-13111.0	-255124.0
3	18	39	56	831	137.0	-190836.0	-12852.0	-253589.0
3	18	39	56	832	138.0	-191429.0	-13990.0	-252174.0
3	18	39	56	832	168.0	-150384.0	-13049.0	-245612.0
3	18	39	56	833	169.0	-147293.0	-13077.0	-244979.0
3	18	39	56	834	170.0	-142726.0	-12722.0	-245651.0
3	18	39	56	834	171.0	-135712.0	-11684.0	-245484.0
3	18	39	56	835	172.0	-130092.0	-11028.0	-245319.0
3	18	39	56	835	173.0	-127754.0	-10280.0	-246216.0
3	18	39	56	836	174.0	-124532.0	-10119.0	-246247.0
3	18	39	56	837	175.0	-121442.0	-9942.0	-246939.0
3	18	39	56	847	176.0	-118914.0	-3534.0	-246227.0
3	18	39	56	848	177.0	-117137.0	-7871.0	-244752.0
3	18	39	56	849	178.0	-117205.0	-13547.0	-242904.0
3	18	39	56	850	179.0	-118468.0	-14761.0	-242336.0
3	18	39	56	850	180.0	-120429.0	-14442.0	-242147.0
3	18	39	56	851	181.0	-123169.0	-13625.0	-242597.0
3	18	39	56	852	182.0	-125243.0	-12727.0	-243103.0
3	18	39	56	852	183.0	-127938.0	-12246.0	-243711.0
3	18	39	56	853	184.0	-131037.0	-12192.0	-243981.0
3	18	39	56	877	185.0	-132557.0	-12264.0	-244508.0
3	18	39	56	878	186.0	-132911.0	-12504.0	-243844.0
3	18	39	56	895	187.0	-133754.0	-13429.0	-243132.0
3	18	39	56	896	188.0	-135409.0	-16518.0	-242602.0
3	18	39	56	897	189.0	-137283.0	-16471.0	-242858.0
3	18	39	56	898	190.0	-138902.0	-15573.0	-243041.0
3	18	39	56	898	191.0	-140607.0	-11264.0	-243186.0
3	18	39	56	899	192.0	-144154.0	-7762.0	-243486.0
3	18	39	56	900	193.0	-147761.0	-9829.0	-244127.0
3	18	39	56	900	194.0	-151921.0	-9772.0	-244830.0
3	18	39	56	901	195.0	-157092.0	-10869.0	-245427.0
3	18	39	56	902	196.0	-161661.0	-12049.0	-244936.0
3	18	39	56	902	197.0	-166192.0	-12667.0	-243939.0
3	18	39	56	903	198.0	-170960.0	-13133.0	-243027.0
3	18	39	56	903	199.0	-174789.0	-13308.0	-242231.0
3	18	39	56	904	200.0	-177879.0	-13382.0	-242032.0
3	18	39	56	905	201.0	-180371.0	-13326.0	-241976.0
3	18	39	56	905	205.0	-185647.0	-10061.0	-241552.0
3	18	39	56	906	206.0	-185412.0	-9807.0	-240052.0
3	18	39	56	907	207.0	-184007.0	-11582.0	-239082.0
3	18	39	56	907	208.0	-184009.0	-12896.0	-238129.0
3	18	39	56	908	209.0	-183384.0	-12891.0	-238499.0
3	18	39	56	909	210.0	-181310.0	-12499.0	-239359.0
3	18	39	56	909	211.0	-179844.0	-11072.0	-239733.0
3	18	39	56	910	212.0	-179147.0	-10182.0	-239803.0
3	18	39	56	910	213.0	-177731.0	-10476.0	-240155.0
3	18	39	56	925	214.0	-175310.0	-9541.0	-240187.0
3	18	39	56	926	215.0	-173091.0	-9486.0	-240181.0
3	18	39	56	927	216.0	-171479.0	-10384.0	-238817.0
3	18	39	56	927	217.0	-169909.0	-10667.0	-237412.0
3	18	39	56	928	218.0	-168715.0	-11036.0	-236154.0
3	18	39	56	929	219.0	-167602.0	-11074.0	-236009.0
3	18	39	56	929	220.0	-166411.0	-10736.0	-236216.0
3	18	39	56	930	221.0	-166064.0	-10085.0	-236822.0
3	18	39	56	967	222.0	-165934.0	-9616.0	-236840.0
3	18	39	56	968	223.0	-164331.0	-10112.0	-236892.0
3	18	39	56	969	224.0	-164096.0	-10442.0	-237251.0
3	18	39	56	970	225.0	-164527.0	-7230.0	-237374.0
3	18	39	56	971	226.0	-164500.0	-8180.0	-235320.0
3	18	39	56	972	227.0	-164579.0	-10934.0	-234026.0
3	18	39	56	973	228.0	-163914.0	-11957.0	-232913.0
3	18	39	56	973	229.0	-162952.0	-12163.0	-232497.0
3	18	39	56	974	230.0	-161939.0	-11462.0	-232668.0
3	18	39	56	975	231.0	-160131.0	-11058.0	-232986.0
3	18	39	56	975	232.0	-159036.0	-11313.0	-233190.0
3	18	39	56	976	233.0	-157892.0	-11269.0	-233551.0
3	18	39	56	977	234.0	-156566.0	-11493.0	-234417.0
3	18	39	56	977	235.0	-155967.0	-10147.0	-234812.0
3	18	39	56	978	236.0	-155377.0	-10244.0	-233478.0
3	18	39	56	979	237.0	-155807.0	-11217.0	-232031.0
3	18	39	56	979	243.0	-160470.0	-12751.0	-232775.0
3	18	39	56	980	244.0	-161227.0	-11446.0	-232975.0
3	18	39	56	980	245.0	-162017.0	-11147.0	-231699.0
3	18	39	56	981	246.0	-162134.0	-10804.0	-230094.0
3	18	39	56	982	247.0	-163017.0	-10844.0	-228424.0
3	18	39	56	983	248.0	-163354.0	-11361.0	-227447.0
3	18	39	56	983	249.0	-163484.0	-11941.0	-227284.0
3	18	39	56	984	250.0	-162888.0	-10599.0	-227457.0
3	18	39	56	998	251.0	-161959.0	-10314.0	-227648.0
3	18	39	56	999	252.0	-160808.0	-6637.0	-228262.0
3	18	39	57	0	253.0	-158962.0	-3732.0	-229116.0
3	18	39	57	1	254.0	-158745.0	-8806.0	-229464.0
3	18	39	57	1	255.0	-158517.0	-10297.0	-229192.0
3	18	39	57	2	0.0	-158631.0	-11268.0	-228074.0
3	18	39	57	3	1.0	-158803.0	-12572.0	-226971.0
3	18	39	57	3	2.0	-158656.0	-13000.0	-226329.0
3	18	39	57	4	3.0	-159190.0	-12807.0	-226249.0
3	18	39	57	20	4.0	-158860.0	-12139.0	-226657.0
3	18	39	57	21	5.0	-158872.0	-11987.0	-226099.0
3	18	39	57	22	6.0	-158489.0	-10391.0	-225974.0
3	18	39	57	43	7.0	-158222.0	-8555.0	-226195.0
3	18	39	57	44	8.0	-158548.0	-7771.0	-227093.0
3	18	39	57	45	9.0	-159762.0	-8936.0	-227171.0
3	18	39	57	46	10.0	-162284.0	-12796.0	-226576.0
3	18	39	57	47	11.0	-163859.0	-15002.0	-225417.0
3	18	39	57	48	12.0	-165101.0	-15153.0	-224600.0
3	18	39	57	48	13.0	-165199.0	-14886.0	-224661.0
3	18	39	57	49	14.0	-165306.0	-14069.0	-224846.0
3	18	39	57	50	15.0	-165138.0	-13372.0	-224737.0
3	18	39	57	51	16.0	-165076.0	-13201.0	-224954.0
3	18	39	57	51	17.0	-165319.0	-15171.0	-225149.0
3	18	39	57	52	18.0	-165757.0	-15825.0	-225514.0
3	18	39	57	53	19.0	-166793.0	-14097.0	-224741.0
3	18	39	57	53	20.0	-167896.0	-12057.0	-223567.0
3	18	39	57	54	21.0	-168457.0	-6137.0	-222523.0
3	18	39	57	55	22.0	-168022.0	-10291.0	-221666.0
3	18	39	57	58	24.0	-166982.0	-15632.0	-222370.0
3	18	39	57	64	25.0	-165581.0	-14953.0	-222431.0
3	18	39	57	65	26.0	-163099.0	-13321.0	-223171.0
3	18	39	57	66	27.0	-160124.0	-12071.0	-223027.0
3	18	39	57	66	28.0	-156761.0	-12101.0	-223548.0
3	18	39	57	67	29.0	-154684.0	-12938.0	-222910.0
3	18	39	57	68	30.0	-152851.0	-14677.0	-222166.0
3	18	39	57	68	31.0	-150296.0	-15117.0	-221539.0
3	18	39	57	69	32.0	-149230.0	-14896.0	-221284.0
3	18	39	57	76	33.0	-148502.0	-15006.0	-221800.0
3	18	39	57	77	34.0	-148829.0	-15276.0	-222622.0
3	18	39	57	78	35.0	-149732.0	-15266.0	-222992.0
3	18	39	57	78	36.0	-151284.0	-14581.0	-222858.0
3	18	39	57	79	37.0	-152772.0	-13437.0	-222854.0
3	18	39	57	79	38.0	-154025.0	-12941.0	-223621.0
3	18	39	57	80	39.0	-154872.0	-12994.0	-222631.0
3	18	39	57	80	40.0	-154372.0	-13686.0	-221719.0
3	18	39	57	102	41.0	-153199.0	-14624.0	-221006.0
3	18	39	57	103	42.0	-151972.0	-14719.0	-220884.0
3	18	39	57	104	43.0	-151476.0	-14926.0	-221226.0
3	18	39	57	133	44.0	-150846.0	-6587.0	-221755.0
3	18	39	57	133	45.0	-149889.0	-4787.0	-221825.0
3	18	39	57	134	46.0	-149301.0	-10374.0	-221460.0
3	18	39	57	134	47.0	-149611.0	-11798.0	-221451.0
3	18	39	57	135	48.0	-150343.0	-11600.0	-221857.0
3	18	39	57	136	49.0	-151041.0	-11369.0	-220881.0
3	18	39	57	136	50.0	-151267.0	-12641.0	-219571.0
3	18	39	57	137	51.0	-151601.0	-11081.0	-218927.0
3	18	39	57	138	52.0	-152200.0	-11567.0	-218656.0
3	18	39	57	138	53.0	-153488.0	-13485.0	-218475.0
3	18	39	57	139	54.0	-155790.0	-13732.0	-218832.0
3	18	39	57	139	55.0	-158195.0	-13288.0	-218845.0
3	18	39	57	140	56.0	-160614.0	-12560.0	-218629.0
3	18	39	57	141	57.0	-163277.0	-12657.0	-218850.0
3	18	39	57	141	58.0	-166306.0	-12977.0	-219661.0
3	18	39	57	142	59.0	-167745.0	-13426.0	-218949.0
3	18	39	57	142	69.0	-177759.0	-12468.0	-217851.0
3	18	39	57	143	70.0	-177770.0	-12601.0	-216922.0
3	18	39	57	144	71.0	-177397.0	-6991.0	-216069.0
3	18	39	57	151	72.0	-175923.0	-8839.0	-215015.0
3	18	39	57	152	73.0	-174237.0	-13416.0	-215329.0
3	18	39	57	153	74.0	-172480.0	-21450.0	-215882.0
3	18	39	57	153	75.0	-170866.0	-18875.0	-216061.0
3	18	39	57	154	76.0	-169223.0	-15282.0	-215982.0
3	18	39	57	154	77.0	-167703.0	-13864.0	-216598.0
3	18	39	57	175	78.0	-165704.0	-13049.0	-216886.0
3	18	39	57	175	79.0	-163049.0	-13079.0	-216392.0
3	18	39	57	207	80.0	-160976.0	-13359.0	-215636.0
3	18	39	57	208	81.0	-158394.0	-11259.0	-214799.0
3	18	39	57	208	82.0	-156706.0	-13178.0	-214504.0
3	18	39	57	209	83.0	-155422.0	-14822.0	-214583.0
3	18	39	57	210	84.0	-154772.0	-20509.0	-215124.0
3	18	39	57	210	85.0	-154296.0	-21779.0	-215586.0
3	18	39	57	211	86.0	-153956.0	-16855.0	-215769.0
3	18	39	57	211	87.0	-153794.0	-14464.0	-216261.0
3	18	39	57	212	88.0	-154564.0	-13404.0	-216876.0
3	18	39	57	213	89.0	-155278.0	-13737.0	-215799.0
3	18	39	57	213	90.0	-155746.0	-14819.0	-214877.0
3	18	39	57	214	91.0	-156315.0	-15943.0	-214052.0
3	18	39	57	214	92.0	-157304.0	-16247.0	-214007.0
3	18	39	57	215	93.0	-157196.0	-15826.0	-215437.0
3	18	39	57	216	94.0	-157191.0	-14645.0	-216497.0
3	18	39	57	216	95.0	-157101.0	-13665.0	-218449.0
3	18	39	57	217	107.0	-162234.0	-12167.0	-222009.0
3	18	39	57	217	108.0	-161202.0	-12716.0	-215042.0
3	18	39	57	218	109.0	-160268.0	-13301.0	-207467.0
3	18	39	57	226	110.0	-161000.0	-14318.0	-202312.0
3	18	39	57	226	111.0	-162146.0	-15455.0	-199369.0
3	18	39	57	227	112.0	-165116.0	-15645.0	-197450.0
3	18	39	57	228	113.0	-169671.0	-15385.0	-197201.0
3	18	39	57	228	114.0	-172623.0	-15516.0	-198290.0
3	18	39	57	250	115.0	-175339.0	-14960.0	-200446.0
3	18	39	57	250	116.0	-177376.0	-13045.0	-202344.0
3	18	39	57	251	117.0	-178326.0	-11828.0	-204589.0
3	18	39	57	251	118.0	-178001.0	-5632.0	-205823.0
3	18	39	57	252	119.0	-175584.0	-8934.0	-205219.0
3	18	39	57	252	120.0	-170986.0	-12660.0	-204644.0
3	18	39	57	253	121.0	-165097.0	-15027.0	-204271.0
3	18	39	57	253	122.0	-156741.0	-16338.0	-203611.0
3	18	39	57	297	123.0	-139319.0	-15437.0	-203564.0
3	18	39	57	317	124.0	-118259.0	-12629.0	-204437.0
3	18	39	57	318	125.0	-98031.0	-13348.0	-205826.0
3	18	39	57	318	126.0	-83204.0	-13589.0	-206611.0
3	18	39	57	319	127.0	-80067.0	-13564.0	-207759.0
3	18	39	57	319	128.0	-89040.0	-13514.0	-208272.0
3	18	39	57	320	129.0	-108341.0	-12970.0	-207660.0
3	18	39	57	321	130.0	-134049.0	-13871.0	-207310.0
3	18	39	57	321	131.0	-160807.0	-16918.0	-206467.0
3	18	39	57	322	132.0	-183069.0	-18001.0	-206340.0
3	18	39	57	322	133.0	-203259.0	-17512.0	-208105.0
3	18	39	57	323	134.0	-219046.0	-16422.0	-209041.0
3	18	39	57	323	135.0	-226604.0	-15042.0	-209566.0
3	18	39	57	324	136.0	-226712.0	-13869.0	-210488.0
3	18	39	57	324	137.0	-218462.0	-12951.0	-212057.0
3	18	39	57	325	138.0	-203039.0	-12891.0	-212237.0
3	18	39	57	326	151.0	-140756.0	-15061.0	-211082.0
3	18	39	57	326	152.0	-143937.0	-14776.0	-210797.0
3	18	39	57	327	153.0	-147559.0	-13896.0	-211420.0
3	18	39	57	327	154.0	-151534.0	-13921.0	-212518.0
3	18	39	57	328	155.0	-155070.0	-13669.0	-213178.0
3	18	39	57	328	156.0	-157587.0	-13121.0	-213471.0
3	18	39	57	329	157.0	-159758.0	-12471.0	-214519.0
3	18	39	57	330	158.0	-163089.0	-12536.0	-214567.0
3	18	39	57	330	159.0	-167037.0	-12431.0	-213317.0
3	18	39	57	331	160.0	-172277.0	-6146.0	-212266.0
3	18	39	57	331	161.0	-177623.0	-9512.0	-211931.0
3	18	39	57	332	162.0	-182791.0	-14001.0	-211410.0
3	18	39	57	332	163.0	-187714.0	-15259.0	-212873.0
3	18	39	57	333	164.0	-192528.0	-16736.0	-213564.0
3	18	39	57	341	165.0	-196271.0	-14809.0	-213619.0
3	18	39	57	364	166.0	-198703.0	-11071.0	-214602.0
3	18	39	57	365	167.0	-199552.0	-11454.0	-214949.0
3	18	39	57	365	168.0	-198743.0	-12434.0	-213952.0
3	18	39	57	366	169.0	-196950.0	-14001.0	-212836.0
3	18	39	57	366	170.0	-194736.0	-15186.0	-211942.0
3	18	39	57	367	171.0	-192726.0	-15902.0	-211352.0
3	18	39	57	368	172.0	-191274.0	-15939.0	-211359.0
3	18	39	57	368	173.0	-188636.0	-18070.0	-211731.0
3	18	39	57	369	174.0	-183354.0	-21704.0	-211851.0
3	18	39	57	369	175.0	-180441.0	-17363.0	-212094.0
3	18	39	57	370	176.0	-179086.0	-15105.0	-212918.0
3	18	39	57	370	177.0	-176679.0	-16807.0	-213960.0
3	18	39	57	371	178.0	-174639.0	-19052.0	-213485.0
3	18	39	57	372	179.0	-174130.0	-16667.0	-212575.0
3	18	39	57	372	180.0	-173502.0	-16534.0	-211884.0
3	18	39	57	373	181.0	-173687.0	-16827.0	-211375.0
3	18	39	57	373	182.0	-171484.0	-16438.0	-210781.0
3	18	39	57	374	183.0	-168729.0	-15507.0	-211370.0
3	18	39	57	374	184.0	-166039.0	-14766.0	-211854.0
3	18	39	57	375	185.0	-163132.0	-13974.0	-211674.0
3	18	39	57	376	186.0	-160501.0	-12699.0	-212364.0
3	18	39	57	376	187.0	-158749.0	-11757.0	-213610.0
3	18	39	57	377	188.0	-156976.0	-13027.0	-213334.0
3	18	39	57	387	189.0	-155504.0	-13988.0	-212947.0
3	18	39	57	387	190.0	-154166.0	-14931.0	-211626.0
3	18	39	57	388	191.0	-152509.0	-16083.0	-211196.0
3	18	39	57	389	192.0	-151352.0	-16627.0	-211407.0
3	18	39	57	389	193.0	-151294.0	-17381.0	-212707.0
3	18	39	57	390	194.0	-151799.0	-15929.0	-213748.0
3	18	39	57	390	195.0	-152901.0	-14079.0	-213784.0
3	18	39	57	391	196.0	-153431.0	-12737.0	-214321.0
3	18	39	57	392	197.0	-153169.0	-11500.0	-215326.0
3	18	39	57	410	198.0	-152461.0	-12067.0	-214494.0
3	18	39	57	411	199.0	-151377.0	-13464.0	-213785.0
3	18	39	57	412	200.0	-151494.0	-14367.0	-212902.0
3	18	39	57	413	201.0	-151759.0	-15406.0	-213238.0
3	18	39	57	413	202.0	-152449.0	-19014.0	-212936.0
3	18	39	57	414	203.0	-153160.0	-19605.0	-213166.0
3	18	39	57	414	204.0	-154604.0	-16117.0	-212105.0
3	18	39	57	438	205.0	-155293.0	-14384.0	-211451.0
3	18	39	57	439	206.0	-156137.0	-14073.0	-212217.0
3	18	39	57	439	207.0	-158002.0	-14607.0	-213477.0
3	18	39	57	440	208.0	-160026.0	-14099.0	-213561.0
3	18	39	57	440	209.0	-161107.0	-14240.0	-213776.0
3	18	39	57	441	210.0	-161471.0	-14816.0	-213140.0
3	18	39	57	441	211.0	-161941.0	-15513.0	-211841.0
3	18	39	57	442	212.0	-162179.0	-15377.0	-211684.0
3	18	39	57	443	213.0	-162187.0	-14790.0	-212648.0
3	18	39	57	443	214.0	-161858.0	-14181.0	-212835.0
3	18	39	57	444	215.0	-161201.0	-13594.0	-213318.0
3	18	39	57	444	216.0	-160892.0	-12489.0	-213578.0
3	18	39	57	462	217.0	-160410.0	-6627.0	-214291.0
3	18	39	57	462	218.0	-159392.0	-7974.0	-212664.0
3	18	39	57	463	219.0	-159053.0	-12216.0	-211144.0
3	18	39	57	464	220.0	-159093.0	-14839.0	-210487.0
3	18	39	57	464	221.0	-158857.0	-15373.0	-209892.0
3	18	39	57	465	222.0	-158456.0	-15750.0	-209697.0
3	18	39	57	465	223.0	-158237.0	-15166.0	-209790.0
3	18	39	57	466	224.0	-157520.0	-14525.0	-209854.0
3	18	39	57	466	225.0	-156956.0	-14212.0	-209990.0
3	18	39	57	467	226.0	-155981.0	-13269.0	-210917.0
3	18	39	57	467	227.0	-155239.0	-12857.0	-210747.0
3	18	39	57	468	228.0	-156331.0	-13738.0	-209209.0
3	18	39	57	469	229.0	-157297.0	-14840.0	-208174.0
3	18	39	57	469	230.0	-158689.0	-16680.0	-207041.0
3	18	39	57	523	231.0	-161586.0	-19826.0	-205470.0
3	18	39	57	523	232.0	-164777.0	-17481.0	-205158.0
3	18	39	57	524	233.0	-166998.0	-15561.0	-205589.0
3	18	39	57	525	234.0	-168776.0	-13417.0	-204879.0
3	18	39	57	525	235.0	-170401.0	-12204.0	-204934.0
3	18	39	57	526	236.0	-172539.0	-11930.0	-204591.0
3	18	39	57	526	237.0	-174746.0	-11872.0	-204665.0
3	18	39	57	527	238.0	-176151.0	-12670.0	-203252.0
3	18	39	57	528	239.0	-177692.0	-13967.0	-202155.0
3	18	39	57	529	240.0	-179239.0	-14920.0	-201349.0
3	18	39	57	530	241.0	-181390.0	-12997.0	-200271.0
3	18	39	57	532	242.0	-183837.0	-11020.0	-200240.0
3	18	39	57	532	243.0	-186552.0	-12889.0	-200483.0
3	18	39	57	533	244.0	-189271.0	-13479.0	-200010.0
3	18	39	57	533	245.0	-191776.0	-13307.0	-199905.0
3	18	39	57	534	246.0	-194502.0	-11902.0	-199787.0
3	18	39	57	535	8.0	-169601.0	-5099.0	-194979.0
3	18	39	57	535	9.0	-185570.0	-8708.0	-195812.0
3	18	39	57	536	10.0	-192729.0	-10826.0	-196605.0
3	18	39	57	536	11.0	-196274.0	-11227.0	-196240.0
3	18	39	57	537	12.0	-195251.0	-11563.0	-195093.0
3	18	39	57	537	13.0	-190300.0	-12286.0	-194141.0
3	18	39	57	538	14.0	-186933.0	-13746.0	-193339.0
3	18	39	57	539	15.0	-183354.0	-16454.0	-193196.0
3	18	39	57	552	16.0	-178217.0	-16405.0	-193801.0
3	18	39	57	553	17.0	-173699.0	-13931.0	-194119.0
3	18	39	57	553	18.0	-170744.0	-12380.0	-193929.0
3	18	39	57	554	19.0	-168912.0	-11806.0	-194194.0
3	18	39	57	555	20.0	-167700.0	-12034.0	-195211.0
3	18	39	57	555	21.0	-166646.0	-19267.0	-195337.0
3	18	39	57	556	22.0	-164825.0	-19842.0	-194221.0
3	18	39	57	556	23.0	-162836.0	-15729.0	-193251.0
3	18	39	57	570	24.0	-160670.0	-14907.0	-192222.0
3	18	39	57	570	25.0	-157967.0	-15066.0	-191475.0
3	18	39	57	571	26.0	-155336.0	-14286.0	-191740.0
3	18	39	57	572	27.0	-151510.0	-12452.0	-191792.0
3	18	39	57	572	28.0	-146871.0	-11766.0	-191877.0
3	18	39	57	573	29.0	-143336.0	-11337.0	-192323.0
3	18	39	57	573	30.0	-139911.0	-10460.0	-193569.0
3	18	39	57	574	31.0	-135386.0	-9644.0	-194017.0
3	18	39	57	597	32.0	-131379.0	-10256.0	-192956.0
3	18	39	57	597	33.0	-129662.0	-12732.0	-192591.0
3	18	39	57	598	34.0	-129857.0	-15779.0	-192036.0
3	18	39	57	599	35.0	-130854.0	-14864.0	-191403.0
3	18	39	57	599	36.0	-131330.0	-13764.0	-192044.0
3	18	39	57	600	37.0	-131991.0	-13077.0	-192531.0
3	18	39	57	601	38.0	-133366.0	-11749.0	-193099.0
3	18	39	57	601	39.0	-135227.0	-11562.0	-192922.0
3	18	39	57	602	40.0	-137624.0	-11814.0	-193379.0
3	18	39	57	602	41.0	-139921.0	-10974.0	-193149.0
3	18	39	57	603	42.0	-143375.0	-11332.0	-192615.0
3	18	39	57	604	43.0	-146197.0	-11827.0	-191646.0
3	18	39	57	604	44.0	-149012.0	-12611.0	-190986.0
3	18	39	57	605	45.0	-152264.0	-13866.0	-190148.0
3	18	39	57	605	46.0	-155966.0	-14691.0	-190681.0
3	18	39	57	606	47.0	-159465.0	-13376.0	-190672.0
3	18	39	57	607	48.0	-162553.0	-11644.0	-190934.0
3	18	39	57	607	49.0	-165741.0	-10240.0	-191205.0
3	18	39	57	620	50.0	-169605.0	-10143.0	-191821.0
3	18	39	57	621	51.0	-173175.0	-10995.0	-191849.0
3	18	39	57	644	52.0	-176035.0	-12692.0	-190385.0
3	18	39	57	644	53.0	-178699.0	-9768.0	-189606.0
3	18	39	57	673	54.0	-181633.0	-5869.0	-188396.0
3	18	39	57	673	55.0	-183164.0	-10428.0	-188032.0
3	18	39	57	674	56.0	-184501.0	-11801.0	-187756.0
3	18	39	57	675	57.0	-186967.0	-7414.0	-187588.0
3	18	39	57	675	58.0	-189643.0	-8181.0	-188026.0
3	18	39	57	676	59.0	-191696.0	-10162.0	-189202.0
3	18	39	57	676	60.0	-193526.0	-11410.0	-189694.0
3	18	39	57	677	61.0	-194962.0	-10783.0	-188842.0
3	18	39	57	678	62.0	-195706.0	-11522.0	-188024.0
3	18	39	57	693	63.0	-195487.0	-12713.0	-187350.0
3	18	39	57	694	64.0	-195437.0	-13798.0	-186395.0
3	18	39	57	695	65.0	-195347.0	-13518.0	-185914.0
3	18	39	57	695	66.0	-194959.0	-13992.0	-186247.0
3	18	39	57	696	67.0	-194556.0	-13382.0	-186549.0
3	18	39	57	697	68.0	-193882.0	-12136.0	-186565.0
3	18	39	57	697	69.0	-192785.0	-11107.0	-187267.0
3	18	39	57	698	82.0	-196566.0	-11328.0	-188530.0
3	18	39	57	698	83.0	-197987.0	-12649.0	-187487.0
3	18	39	57	699	84.0	-199371.0	-19439.0	-187257.0
3	18	39	57	699	85.0	-200245.0	-19260.0	-187734.0
3	18	39	57	700	86.0	-200212.0	-14873.0	-187929.0
3	18	39	57	701	87.0	-199944.0	-13386.0	-187427.0
3	18	39	57	701	88.0	-199214.0	-12198.0	-187930.0
3	18	39	57	702	89.0	-198436.0	-11401.0	-188577.0
3	18	39	57	702	90.0	-197706.0	-10583.0	-188601.0
3	18	39	57	703	91.0	-196887.0	-9920.0	-188259.0
3	18	39	57	704	92.0	-197216.0	-10383.0	-187410.0
3	18	39	57	704	93.0	-198364.0	-11652.0	-185818.0
3	18	39	57	705	94.0	-199961.0	-11545.0	-185276.0
3	18	39	57	705	95.0	-201579.0	-12105.0	-185459.0
3	18	39	57	706	96.0	-202905.0	-12171.0	-186192.0
3	18	39	57	706	97.0	-203929.0	-11804.0	-186379.0
3	18	39	57	707	98.0	-204992.0	-10664.0	-186210.0
3	18	39	57	733	99.0	-205811.0	-10353.0	-186885.0
3	18	39	57	733	100.0	-206136.0	-10265.0	-188043.0
3	18	39	57	734	101.0	-206316.0	-10449.0	-186836.0
3	18	39	57	735	102.0	-206464.0	-11511.0	-185825.0
3	18	39	57	735	103.0	-206813.0	-12992.0	-184990.0
3	18	39	57	736	104.0	-207069.0	-13497.0	-184892.0
3	18	39	57	737	105.0	-207136.0	-14029.0	-184572.0
3	18	39	57	737	106.0	-206788.0	-14769.0	-184799.0
3	18	39	57	738	107.0	-205424.0	-12929.0	-184073.0
3	18	39	57	747	108.0	-203296.0	-11826.0	-183916.0
3	18	39	57	748	109.0	-201268.0	-11635.0	-184453.0
3	18	39	57	748	110.0	-199510.0	-11283.0	-185420.0
3	18	39	57	749	111.0	-197839.0	-11062.0	-185042.0
3	18	39	57	750	112.0	-196112.0	-11531.0	-184186.0
3	18	39	57	750	113.0	-194672.0	-12224.0	-183202.0
3	18	39	57	751	114.0	-194171.0	-12817.0	-183694.0
3	18	39	57	751	115.0	-193480.0	-12581.0	-184229.0
3	18	39	57	752	116.0	-192479.0	-11972.0	-183332.0
3	18	39	57	753	117.0	-191394.0	-11597.0	-183641.0
3	18	39	57	770	118.0	-189677.0	-12534.0	-184689.0
3	18	39	57	771	119.0	-187616.0	-12448.0	-184951.0
3	18	39	57	771	120.0	-185401.0	-11010.0	-184896.0
3	18	39	57	772	121.0	-183058.0	-10942.0	-184225.0
3	18	39	57	772	122.0	-180661.0	-11405.0	-183109.0
3	18	39	57	773	123.0	-178361.0	-12506.0	-181246.0
3	18	39	57	774	124.0	-176737.0	-12975.0	-180721.0
3	18	39	57	774	125.0	-176496.0	-12687.0	-181119.0
3	18	39	57	775	126.0	-177393.0	-11905.0	-181464.0
3	18	39	57	775	127.0	-178599.0	-11629.0	-181696.0
3	18	39	57	776	128.0	-180797.0	-10899.0	-182231.0
3	18	39	57	777	129.0	-183162.0	-10462.0	-182662.0
3	18	39	57	777	130.0	-184728.0	-9913.0	-182706.0
3	18	39	57	778	131.0	-185722.0	-10144.0	-181426.0
3	18	39	57	778	132.0	-186495.0	-11154.0	-180733.0
3	18	39	57	779	133.0	-187297.0	-11948.0	-179967.0
3	18	39	57	780	134.0	-186644.0	-11646.0	-179782.0
3	18	39	57	780	135.0	-185616.0	-11622.0	-180153.0
3	18	39	57	793	136.0	-184347.0	-11230.0	-180803.0
3	18	39	57	794	137.0	-183688.0	-10958.0	-180636.0
3	18	39	57	794	138.0	-182986.0	-10222.0	-179622.0
3	18	39	57	795	139.0	-182367.0	-10591.0	-178636.0
3	18	39	57	796	140.0	-182684.0	-11605.0	-178387.0
3	18	39	57	796	141.0	-183501.0	-10912.0	-176891.0
3	18	39	57	797	142.0	-184071.0	-11201.0	-174704.0
3	18	39	57	818	143.0	-184577.0	-11681.0	-172356.0
3	18	39	57	818	144.0	-185479.0	-12174.0	-170717.0
3	18	39	57	819	145.0	-185716.0	-12619.0	-170399.0
3	18	39	57	820	146.0	-185722.0	-12591.0	-170676.0
3	18	39	57	820	147.0	-187142.0	-11999.0	-170932.0
3	18	39	57	821	148.0	-190311.0	-11096.0	-171544.0
3	18	39	57	821	149.0	-194797.0	-10254.0	-172992.0
3	18	39	57	822	150.0	-200512.0	-9466.0	-174688.0
3	18	39	57	822	151.0	-206579.0	-10156.0	-174562.0
3	18	39	57	840	152.0	-212061.0	-11397.0	-174200.0
3	18	39	57	841	153.0	-216829.0	-11984.0	-174528.0
3	18	39	57	842	154.0	-220822.0	-12516.0	-175567.0
3	18	39	57	842	155.0	-224389.0	-11893.0	-177645.0
3	18	39	57	843	156.0	-226949.0	-11048.0	-180707.0
3	18	39	57	844	157.0	-228735.0	-7332.0	-182721.0
3	18	39	57	844	158.0	-230000.0	-5249.0	-185269.0
3	18	39	57	845	159.0	-231752.0	-7561.0	-187789.0
3	18	39	57	846	160.0	-233429.0	-8530.0	-189172.0
3	18	39	57	846	161.0	-234066.0	-9842.0	-189253.0
3	18	39	57	847	162.0	-234254.0	-10823.0	-189481.0
3	18	39	57	847	163.0	-235176.0	-11821.0	-189117.0
3	18	39	57	848	164.0	-236797.0	-12366.0	-189827.0
3	18	39	57	849	165.0	-238041.0	-12092.0	-191054.0
3	18	39	57	849	166.0	-239168.0	-9817.0	-192345.0
3	18	39	57	850	167.0	-239912.0	-6957.0	-193327.0
3	18	39	57	850	168.0	-242044.0	-8020.0	-193531.0
3	18	39	57	851	169.0	-243979.0	-9725.0	-187607.0
3	18	39	57	852	170.0	-245527.0	-9957.0	-180067.0
3	18	39	57	852	171.0	-247504.0	-8137.0	-177522.0
3	18	39	57	867	172.0	-248269.0	-7743.0	-175669.0
3	18	39	57	868	173.0	-248354.0	-10462.0	-175001.0
3	18	39	57	868	174.0	-247779.0	-15207.0	-174515.0
3	18	39	57	869	175.0	-247206.0	-13771.0	-174237.0
3	18	39	57	870	176.0	-246825.0	-11359.0	-174672.0
3	18	39	57	870	177.0	-247631.0	-10427.0	-174898.0
3	18	39	57	871	178.0	-248239.0	-9375.0	-175013.0
3	18	39	57	872	179.0	-248831.0	-8201.0	-175453.0
3	18	39	57	873	180.0	-248272.0	-8584.0	-175199.0
3	18	39	57	873	181.0	-247274.0	-9098.0	-174260.0
3	18	39	57	889	182.0	-245907.0	-9967.0	-173013.0
3	18	39	57	890	183.0	-248564.0	-11199.0	-172727.0
3	18	39	57	890	184.0	-250756.0	-11736.0	-172722.0
3	18	39	57	891	185.0	-248338.0	-11701.0	-172763.0
3	18	39	57	891	186.0	-250332.0	-9816.0	-172836.0
3	18	39	57	913	187.0	-249389.0	-8445.0	-173353.0
3	18	39	57	913	188.0	-248427.0	-8461.0	-173877.0
3	18	39	57	914	189.0	-246264.0	-8022.0	-174250.0
3	18	39	57	915	190.0	-243389.0	-8262.0	-174457.0
3	18	39	57	915	191.0	-241274.0	-9061.0	-173416.0
3	18	39	57	916	192.0	-239876.0	-9610.0	-172145.0
3	18	39	57	916	193.0	-238052.0	-9871.0	-171416.0
3	18	39	57	917	194.0	-236188.0	-10253.0	-171532.0
3	18	39	57	918	195.0	-233116.0	-10412.0	-171332.0
3	18	39	57	918	196.0	-230071.0	-9889.0	-172161.0
3	18	39	57	919	197.0	-227048.0	-8864.0	-172571.0
3	18	39	57	919	198.0	-223100.0	-8497.0	-172992.0
3	18	39	57	920	199.0	-218899.0	-8369.0	-173637.0
3	18	39	57	920	200.0	-213391.0	-8433.0	-173634.0
3	18	39	57	921	201.0	-207058.0	-8954.0	-173066.0
3	18	39	57	922	202.0	-201252.0	-9949.0	-171676.0
3	18	39	57	937	203.0	-195437.0	-11126.0	-170942.0
3	18	39	57	937	204.0	-190349.0	-12636.0	-170934.0
3	18	39	57	938	205.0	-183750.0	-11550.0	-171452.0
3	18	39	57	938	206.0	-177381.0	-10167.0	-171605.0
3	18	39	57	939	207.0	-171312.0	-9491.0	-172217.0
3	18	39	57	940	208.0	-165628.0	-8752.0	-173146.0
3	18	39	57	940	209.0	-160959.0	-7692.0	-174522.0
3	18	39	57	941	210.0	-157471.0	-7692.0	-175133.0
3	18	39	57	941	211.0	-153642.0	-8846.0	-175847.0
3	18	39	57	942	212.0	-152301.0	-9482.0	-176987.0
3	18	39	57	943	213.0	-151261.0	-11112.0	-178464.0
3	18	39	57	943	214.0	-150380.0	-11118.0	-180300.0
3	18	39	57	944	215.0	-149334.0	-9782.0	-182401.0
3	18	39	57	945	216.0	-147204.0	-8747.0	-185642.0
3	18	39	57	945	217.0	-142751.0	-7882.0	-189466.0
3	18	39	57	946	218.0	-137005.0	-7273.0	-192740.0
3	18	39	57	959	219.0	-132616.0	-6774.0	-195168.0
3	18	39	57	984	220.0	-126333.0	-7461.0	-194101.0
3	18	39	57	985	221.0	-117200.0	-8698.0	-188130.0
3	18	39	57	985	222.0	-110324.0	-9514.0	-181782.0
3	18	39	57	986	223.0	-105916.0	-9859.0	-175491.0
3	18	39	57	986	224.0	-98897.0	-9954.0	-168203.0
3	18	39	57	987	225.0	-93762.0	-9893.0	-162752.0
3	18	39	57	988	226.0	-91337.0	-9447.0	-159179.0
3	18	39	57	988	227.0	-89887.0	-8936.0	-157963.0
3	18	39	57	989	228.0	-91659.0	-8301.0	-157415.0
3	18	39	57	989	229.0	-94909.0	-8274.0	-157296.0
3	18	39	57	990	230.0	-96719.0	-8789.0	-158105.0
3	18	39	57	991	231.0	-97296.0	-9276.0	-159069.0
3	18	39	57	991	232.0	-96741.0	-8516.0	-159501.0
3	18	39	57	992	233.0	-95672.0	-8179.0	-160898.0
3	18	39	57	992	234.0	-95146.0	-10241.0	-161738.0
3	18	39	57	993	235.0	-92784.0	-12624.0	-162712.0
3	18	39	57	993	236.0	-88701.0	-13377.0	-162642.0
3	18	39	57	994	237.0	-84969.0	-10890.0	-163018.0
3	18	39	58	6	238.0	-78615.0	-9927.0	-163807.0
3	18	39	58	7	239.0	-64636.0	-10876.0	-164259.0
3	18	39	58	8	240.0	-49299.0	-15531.0	-164343.0
3	18	39	58	8	241.0	-35012.0	-14625.0	-163635.0
3	18	39	58	9	242.0	-24524.0	-19383.0	-163289.0
3	18	39	58	10	243.0	-21822.0	-19209.0	-163389.0
3	18	39	58	10	244.0	-31090.0	-14504.0	-164044.0
3	18	39	58	11	245.0	-49461.0	-11009.0	-163732.0
3	18	39	58	11	246.0	-72546.0	-8802.0	-164172.0
3	18	39	58	12	247.0	-98689.0	-9241.0	-164987.0
3	18	39	58	13	248.0	-125165.0	-9116.0	-165587.0
3	18	39	58	13	249.0	-149299.0	-9021.0	-166592.0
3	18	39	58	32	250.0	-168232.0	-9065.0	-166825.0
3	18	39	58	33	251.0	-177552.0	-9992.0	-166142.0
3	18	39	58	33	252.0	-176523.0	-11432.0	-165848.0
3	18	39	58	34	253.0	-168990.0	-11899.0	-166316.0
3	18	39	58	35	254.0	-155100.0	-11537.0	-166158.0
3	18	39	58	35	255.0	-134919.0	-10672.0	-166670.0
3	18	39	58	55	0.0	-113824.0	-10278.0	-167647.0
3	18	39	58	56	1.0	-95231.0	-9823.0	-167997.0
3	18	39	58	56	2.0	-80703.0	-9101.0	-168849.0
3	18	39	58	57	3.0	-73055.0	-9235.0	-169447.0
3	18	39	58	58	4.0	-70788.0	-12579.0	-168606.0
3	18	39	58	58	5.0	-68601.0	-12706.0	-167136.0
3	18	39	58	59	6.0	-70820.0	-12541.0	-165714.0
3	18	39	58	59	7.0	-77153.0	-12267.0	-165558.0
3	18	39	58	60	8.0	-82169.0	-11761.0	-165830.0
3	18	39	58	61	9.0	-83058.0	-10744.0	-166822.0
3	18	39	58	61	10.0	-81859.0	-10747.0	-167859.0
3	18	39	58	62	11.0	-78832.0	-10605.0	-169532.0
3	18	39	58	62	12.0	-73485.0	-9898.0	-170847.0
3	18	39	58	63	13.0	-68061.0	-8452.0	-172074.0
3	18	39	58	64	14.0	-62084.0	-8532.0	-171699.0
3	18	39	58	64	15.0	-56326.0	-9596.0	-170871.0
3	18	39	58	65	16.0	-50639.0	-11444.0	-170002.0
3	18	39	58	65	17.0	-45378.0	-12529.0	-169752.0
3	18	39	58	66	18.0	-39195.0	-12899.0	-169869.0
3	18	39	58	83	19.0	-34092.0	-11827.0	-170470.0
3	18	39	58	83	20.0	-31734.0	-15546.0	-170561.0
3	18	39	58	84	21.0	-30204.0	-18002.0	-171150.0
3	18	39	58	85	22.0	-28929.0	-12487.0	-171652.0
3	18	39	58	85	23.0	-28241.0	-10211.0	-171971.0
3	18	39	58	86	24.0	-26603.0	-9845.0	-171067.0
3	18	39	58	86	25.0	-27179.0	-10387.0	-169798.0
3	18	39	58	87	26.0	-29087.0	-11404.0	-168793.0
3	18	39	58	87	27.0	-29171.0	-11337.0	-168757.0
3	18	39	58	88	28.0	-27871.0	-11303.0	-169479.0
3	18	39	58	89	29.0	-28367.0	-11944.0	-171239.0
3	18	39	58	89	30.0	-30269.0	-12259.0	-171739.0
3	18	39	58	106	31.0	-32443.0	-11064.0	-171805.0
3	18	39	58	107	32.0	-34266.0	-8878.0	-172138.0
3	18	39	58	107	33.0	-36816.0	-7975.0	-173206.0
3	18	39	58	108	34.0	-40441.0	-9838.0	-171680.0
3	18	39	58	108	35.0	-44027.0	-11285.0	-170617.0
3	18	39	58	109	36.0	-47954.0	-14054.0	-169563.0
3	18	39	58	110	37.0	-54124.0	-13482.0	-169313.0
3	18	39	58	133	38.0	-62159.0	-13608.0	-169139.0
3	18	39	58	156	39.0	-71448.0	-14411.0	-169648.0
3	18	39	58	157	40.0	-81081.0	-12982.0	-170337.0
3	18	39	58	158	41.0	-90214.0	-11841.0	-170082.0
3	18	39	58	158	42.0	-97287.0	-9827.0	-170136.0
3	18	39	58	159	43.0	-105699.0	-9531.0	-171056.0
3	18	39	58	160	44.0	-113661.0	-10209.0	-170061.0
3	18	39	58	160	45.0	-119682.0	-11217.0	-168677.0
3	18	39	58	161	46.0	-126406.0	-12149.0	-168094.0
3	18	39	58	162	47.0	-132711.0	-12191.0	-168338.0
3	18	39	58	162	48.0	-137762.0	-13087.0	-168844.0
3	18	39	58	163	49.0	-142072.0	-19203.0	-169331.0
3	18	39	58	163	50.0	-145644.0	-16371.0	-169715.0
3	18	39	58	164	51.0	-148847.0	-12542.0	-170109.0
3	18	39	58	164	52.0	-153862.0	-10330.0	-170237.0
3	18	39	58	165	53.0	-160250.0	-9812.0	-169296.0
3	18	39	58	166	54.0	-167489.0	-10515.0	-168179.0
3	18	39	58	166	66.0	-224853.0	-11929.0	-169937.0
3	18	39	58	167	67.0	-223843.0	-12118.0	-169692.0
3	18	39	58	168	68.0	-222687.0	-11716.0	-169957.0
3	18	39	58	168	69.0	-220662.0	-10996.0	-170424.0
3	18	39	58	169	70.0	-220411.0	-10471.0	-170529.0
3	18	39	58	169	71.0	-220161.0	-9821.0	-171103.0
3	18	39	58	170	72.0	-218164.0	-9131.0	-171982.0
3	18	39	58	171	73.0	-214142.0	-9396.0	-172287.0
3	18	39	58	186	74.0	-209139.0	-9599.0	-170737.0
3	18	39	58	187	75.0	-202554.0	-9843.0	-169950.0
3	18	39	58	187	76.0	-197136.0	-10483.0	-168855.0
3	18	39	58	188	77.0	-192767.0	-11346.0	-168494.0
3	18	39	58	189	78.0	-188215.0	-11228.0	-168531.0
3	18	39	58	189	79.0	-183721.0	-9310.0	-168581.0
3	18	39	58	190	80.0	-179362.0	-8368.0	-169306.0
3	18	39	58	190	81.0	-176051.0	-7753.0	-169050.0
3	18	39	58	191	82.0	-172124.0	-7537.0	-169205.0
3	18	39	58	212	83.0	-169123.0	-8187.0	-168491.0
3	18	39	58	213	84.0	-168126.0	-9226.0	-166355.0
3	18	39	58	232	85.0	-169278.0	-10602.0	-164965.0
3	18	39	58	233	86.0	-167506.0	-11652.0	-164094.0
3	18	39	58	261	87.0	-163665.0	-11236.0	-163155.0
3	18	39	58	263	88.0	-159259.0	-10374.0	-163277.0
3	18	39	58	264	89.0	-153039.0	-10106.0	-163302.0
3	18	39	58	264	90.0	-145054.0	-11811.0	-162494.0
3	18	39	58	265	91.0	-134661.0	-10458.0	-162512.0
3	18	39	58	265	92.0	-124433.0	-9067.0	-163242.0
3	18	39	58	266	93.0	-118708.0	-8661.0	-162670.0
3	18	39	58	266	94.0	-111479.0	-10688.0	-161084.0
3	18	39	58	267	95.0	-104649.0	-18337.0	-159082.0
3	18	39	58	268	96.0	-99814.0	-16697.0	-157989.0
3	18	39	58	268	97.0	-93044.0	-14064.0	-156753.0
3	18	39	58	269	98.0	-86736.0	-12795.0	-157514.0
3	18	39	58	269	99.0	-85076.0	-11446.0	-157484.0
3	18	39	58	270	100.0	-84318.0	-10431.0	-156386.0
3	18	39	58	270	103.0	-86664.0	-7764.0	-156122.0
3	18	39	58	271	104.0	-84843.0	-9085.0	-154048.0
3	18	39	58	271	111.0	-65839.0	-9710.0	-150740.0
3	18	39	58	272	112.0	-62391.0	-9471.0	-151954.0
3	18	39	58	272	113.0	-59021.0	-9372.0	-151478.0
3	18	39	58	273	114.0	-54826.0	-9415.0	-149587.0
3	18	39	58	273	115.0	-47976.0	-10586.0	-148637.0
3	18	39	58	274	116.0	-38267.0	-11577.0	-148342.0
3	18	39	58	275	117.0	-24076.0	-11163.0	-148251.0
3	18	39	58	275	118.0	-6940.0	-9651.0	-149118.0
3	18	39	58	276	119.0	-1404.0	-9117.0	-149127.0
3	18	39	58	276	120.0	-1245.0	-9454.0	-148915.0
3	18	39	58	277	121.0	-1235.0	-4547.0	-149257.0
3	18	39	58	287	122.0	-1256.0	-1086.0	-150247.0
3	18	39	58	288	123.0	-1270.0	-5353.0	-149576.0
3	18	39	58	289	124.0	-1272.0	-8299.0	-148499.0
3	18	39	58	289	125.0	-1227.0	-9915.0	-147175.0
3	18	39	58	290	126.0	821.0	-10717.0	-146281.0
3	18	39	58	290	127.0	11568.0	-10393.0	-146492.0
3	18	39	58	291	128.0	27014.0	-9944.0	-146305.0
3	18	39	58	291	129.0	42617.0	-9496.0	-146564.0
3	18	39	58	292	130.0	59705.0	-8736.0	-146375.0
3	18	39	58	293	131.0	75539.0	-7462.0	-147026.0
3	18	39	58	293	132.0	90224.0	-285.0	-147686.0
3	18	39	58	310	133.0	102321.0	-1163.0	-147201.0
3	18	39	58	310	134.0	112955.0	-10021.0	-146186.0
3	18	39	58	311	135.0	124346.0	-14452.0	-145002.0
3	18	39	58	312	136.0	135951.0	-8122.0	-144484.0
3	18	39	58	312	137.0	135621.0	-8697.0	-144607.0
3	18	39	58	313	138.0	149341.0	-8062.0	-145211.0
3	18	39	58	313	139.0	154479.0	-6280.0	-145140.0
3	18	39	58	314	140.0	161577.0	-3011.0	-145016.0
3	18	39	58	314	141.0	162429.0	-1744.0	-145612.0
3	18	39	58	315	142.0	163195.0	-3159.0	-146269.0
3	18	39	58	333	143.0	164103.0	375.0	-145811.0
3	18	39	58	334	144.0	164670.0	-4138.0	-145116.0
3	18	39	58	335	145.0	161969.0	-4803.0	-143877.0
3	18	39	58	335	146.0	157053.0	-3509.0	-142874.0
3	18	39	58	336	147.0	151419.0	-1059.0	-142097.0
3	18	39	58	336	148.0	146439.0	-1027.0	-143026.0
3	18	39	58	337	149.0	139456.0	888.0	-143597.0
3	18	39	58	338	150.0	144433.0	983.0	-143514.0
3	18	39	58	338	151.0	119356.0	863.0	-144167.0
3	18	39	58	339	152.0	84231.0	624.0	-145289.0
3	18	39	58	339	153.0	70639.0	649.0	-144755.0
3	18	39	58	340	154.0	40469.0	700.0	-143382.0
3	18	39	58	340	155.0	17014.0	723.0	-141237.0
3	18	39	58	341	156.0	3147.0	753.0	-140957.0
3	18	39	58	356	157.0	-1146.0	793.0	-140712.0
3	18	39	58	357	158.0	-1365.0	832.0	-141314.0
3	18	39	58	358	159.0	-1974.0	837.0	-141560.0
3	18	39	58	358	160.0	-9165.0	850.0	-141582.0
3	18	39	58	359	161.0	-20040.0	857.0	-141921.0
3	18	39	58	359	162.0	-25809.0	899.0	-141963.0
3	18	39	58	360	163.0	-37804.0	916.0	-141283.0
3	18	39	58	361	164.0	-44989.0	904.0	-140606.0
3	18	39	58	380	165.0	-43158.0	941.0	-139227.0
3	18	39	58	381	166.0	-41219.0	1001.0	-137383.0
3	18	39	58	382	167.0	-96750.0	1033.0	-136930.0
3	18	39	58	382	168.0	-234638.0	1048.0	-137713.0
3	18	39	58	383	169.0	-401545.0	1041.0	-137357.0
3	18	39	58	383	170.0	-546390.0	1034.0	-135674.0
3	18	39	58	384	171.0	-630276.0	1047.0	-133775.0
3	18	39	58	384	172.0	-681431.0	1067.0	-135412.0
3	18	39	58	385	173.0	-705997.0	1066.0	-135671.0
3	18	39	58	385	174.0	-717670.0	1069.0	-135547.0
3	18	39	58	386	175.0	-720661.0	1058.0	-134189.0
3	18	39	58	404	176.0	-708744.0	1062.0	-133141.0
3	18	39	58	404	177.0	-688687.0	1059.0	-133371.0
3	18	39	58	405	178.0	-665847.0	1063.0	-133971.0
3	18	39	58	406	179.0	-636424.0	1072.0	-133831.0
3	18	39	58	406	180.0	-607511.0	1101.0	-133779.0
3	18	39	58	407	181.0	-575886.0	1121.0	-134343.0
3	18	39	58	407	182.0	-546190.0	1087.0	-134864.0
3	18	39	58	408	183.0	-517631.0	1086.0	-133571.0
3	18	39	58	409	184.0	-490198.0	1087.0	-131893.0
3	18	39	58	409	185.0	-472990.0	1088.0	-130235.0
3	18	39	58	410	186.0	-487847.0	1085.0	-129759.0
3	18	39	58	410	187.0	-463614.0	1095.0	-130127.0
3	18	39	58	411	188.0	-445969.0	1117.0	-130540.0
3	18	39	58	411	189.0	-439375.0	1113.0	-130296.0
3	18	39	58	412	190.0	-435991.0	1088.0	-131067.0
3	18	39	58	412	191.0	-431217.0	1091.0	-130660.0
3	18	39	58	413	192.0	-427691.0	1106.0	-130176.0
3	18	39	58	414	193.0	-428463.0	1100.0	-129436.0
3	18	39	58	426	194.0	-434101.0	1113.0	-127901.0
3	18	39	58	427	195.0	-445963.0	1121.0	-127243.0
3	18	39	58	427	196.0	-459459.0	1074.0	-127670.0
3	18	39	58	428	197.0	-467809.0	1079.0	-127375.0
3	18	39	58	429	198.0	-478039.0	1063.0	-127446.0
3	18	39	58	429	199.0	-484898.0	1014.0	-127587.0
3	18	39	58	430	200.0	-470741.0	1030.0	-126805.0
3	18	39	58	430	201.0	-474604.0	1040.0	-126258.0
3	18	39	58	451	202.0	-464353.0	1036.0	-125775.0
3	18	39	58	451	203.0	-464240.0	1056.0	-125386.0
3	18	39	58	452	204.0	-457527.0	1056.0	-124736.0
3	18	39	58	453	205.0	-463155.0	1039.0	-123202.0
3	18	39	58	453	206.0	-471048.0	1034.0	-122904.0
3	18	39	58	454	207.0	-479606.0	1028.0	-123252.0
3	18	39	58	454	208.0	-484778.0	1013.0	-123822.0
3	18	39	58	455	209.0	-488835.0	988.0	-124774.0
3	18	39	58	456	210.0	-489293.0	988.0	-125748.0
3	18	39	58	456	211.0	-491715.0	997.0	-126396.0
3	18	39	58	457	212.0	-494916.0	1001.0	-126610.0
3	18	39	58	458	213.0	-498746.0	979.0	-126111.0
3	18	39	58	458	214.0	-503597.0	972.0	-124891.0
3	18	39	58	459	215.0	-508052.0	981.0	-122827.0
3	18	39	58	459	216.0	-508748.0	984.0	-121992.0
3	18	39	58	460	217.0	-502945.0	966.0	-121711.0
3	18	39	58	473	218.0	-492866.0	990.0	-121034.0
3	18	39	58	474	219.0	-480617.0	994.0	-119461.0
3	18	39	58	475	220.0	-466944.0	1008.0	-116190.0
3	18	39	58	475	221.0	-453766.0	999.0	-118347.0
3	18	39	58	476	222.0	-438027.0	999.0	-117933.0
3	18	39	58	476	223.0	-419657.0	1012.0	-115719.0
3	18	39	58	496	224.0	-401015.0	1016.0	-115260.0
3	18	39	58	497	225.0	-381548.0	1038.0	-114799.0
3	18	39	58	497	226.0	-361134.0	1076.0	-113688.0
3	18	39	58	498	227.0	-339504.0	1102.0	-110476.0
3	18	39	58	498	228.0	-318231.0	1112.0	-108786.0
3	18	39	58	499	229.0	-296883.0	1086.0	-110962.0
3	18	39	58	500	230.0	-274783.0	1103.0	-112713.0
3	18	39	58	500	231.0	-254605.0	1139.0	-112996.0
3	18	39	58	501	232.0	-235158.0	1163.0	-112912.0
3	18	39	58	501	233.0	-215811.0	1195.0	-112151.0
3	18	39	58	502	234.0	-196695.0	1231.0	-111157.0
3	18	39	58	502	235.0	-177750.0	1256.0	-110103.0
3	18	39	58	503	236.0	-159548.0	1290.0	-110581.0
3	18	39	58	504	237.0	-142154.0	1314.0	-111281.0
3	18	39	58	504	238.0	-126499.0	1358.0	-111767.0
3	18	39	58	519	239.0	-113368.0	1401.0	-112312.0
3	18	39	58	519	240.0	-103254.0	1464.0	-112512.0
3	18	39	58	520	241.0	-97561.0	1548.0	-112450.0
3	18	39	58	521	242.0	-95507.0	1531.0	-114347.0
3	18	39	58	521	243.0	-97163.0	1520.0	-116239.0
3	18	39	58	522	244.0	-106851.0	1534.0	-115354.0
3	18	39	58	522	245.0	-125257.0	1566.0	-113460.0
3	18	39	58	523	246.0	-151424.0	1599.0	-113422.0
3	18	39	58	541	247.0	-186390.0	1613.0	-114527.0
3	18	39	58	542	248.0	-228969.0	1646.0	-115195.0
3	18	39	58	543	249.0	-275110.0	1714.0	-115737.0
3	18	39	58	543	250.0	-322501.0	1743.0	-115971.0
3	18	39	58	544	251.0	-369738.0	1779.0	-116298.0
3	18	39	58	544	252.0	-412679.0	1811.0	-115423.0
3	18	39	58	545	253.0	-449014.0	1841.0	-113824.0
3	18	39	58	546	254.0	-479533.0	1921.0	-112996.0
3	18	39	58	546	255.0	-504252.0	1988.0	-112119.0
3	18	39	58	547	0.0	-523306.0	2015.0	-111801.0
3	18	39	58	547	1.0	-537762.0	2061.0	-112561.0
3	18	39	58	548	2.0	-548935.0	2131.0	-113014.0
3	18	39	58	549	3.0	-555268.0	2174.0	-113507.0
3	18	39	58	549	4.0	-560074.0	2224.0	-113511.0
3	18	39	58	550	5.0	-564592.0	2294.0	-113856.0
3	18	39	58	564	6.0	-564678.0	2363.0	-113246.0
3	18	39	58	565	7.0	-561340.0	2439.0	-112482.0
3	18	39	58	565	8.0	-555974.0	2507.0	-110944.0
3	18	39	58	566	9.0	-546512.0	2583.0	-109562.0
3	18	39	58	567	10.0	-535888.0	2647.0	-110021.0
3	18	39	58	567	11.0	-524421.0	2709.0	-110483.0
3	18	39	58	568	12.0	-510843.0	2764.0	-110140.0
3	18	39	58	587	13.0	-495330.0	2851.0	-110860.0
3	18	39	58	588	14.0	-477917.0	2940.0	-111596.0
3	18	39	58	589	15.0	-457674.0	3021.0	-111814.0
3	18	39	58	589	16.0	-434699.0	3078.0	-109072.0
3	18	39	58	590	17.0	-411719.0	3176.0	-105342.0
3	18	39	58	591	18.0	-389207.0	3247.0	-103002.0
3	18	39	58	591	19.0	-367235.0	3311.0	-101449.0
3	18	39	58	592	20.0	-347476.0	3398.0	-99048.0
3	18	39	58	592	21.0	-329062.0	3469.0	-95533.0
3	18	39	58	593	22.0	-312556.0	3557.0	-95711.0
3	18	39	58	593	23.0	-297989.0	3637.0	-97034.0
3	18	39	58	617	24.0	-283145.0	3683.0	-98412.0
3	18	39	58	641	25.0	-268441.0	3757.0	-99629.0
3	18	39	58	641	26.0	-252816.0	3821.0	-98814.0
3	18	39	58	642	27.0	-236192.0	3883.0	-97206.0
3	18	39	58	643	28.0	-216615.0	3959.0	-96011.0
3	18	39	58	643	29.0	-195914.0	4013.0	-95205.0
3	18	39	58	644	30.0	-175933.0	4073.0	-94779.0
3	18	39	58	645	31.0	-155343.0	4124.0	-95757.0
3	18	39	58	645	32.0	-134129.0	4163.0	-96411.0
3	18	39	58	646	33.0	-115654.0	4211.0	-96408.0
3	18	39	58	646	34.0	-97619.0	4256.0	-97189.0
3	18	39	58	647	35.0	-78588.0	4304.0	-97958.0
3	18	39	58	648	36.0	-61042.0	4341.0	-97117.0
3	18	39	58	648	37.0	-46029.0	4412.0	-96525.0
3	18	39	58	649	38.0	-29997.0	4474.0	-95361.0
3	18	39	58	649	39.0	-14822.0	4539.0	-94471.0
3	18	39	58	650	41.0	-1527.0	4666.0	-95250.0
3	18	39	58	651	42.0	-1371.0	4741.0	-95539.0
3	18	39	58	651	43.0	-1332.0	4851.0	-96319.0
3	18	39	58	652	44.0	-1284.0	4924.0	-97162.0
3	18	39	58	652	45.0	-1237.0	5009.0	-98620.0
3	18	39	58	653	46.0	-1056.0	5111.0	-98609.0
3	18	39	58	653	47.0	934.0	5207.0	-97740.0
3	18	39	58	654	48.0	6196.0	5288.0	-96502.0
3	18	39	58	655	49.0	8237.0	5377.0	-95562.0
3	18	39	58	655	50.0	7096.0	5454.0	-95892.0
3	18	39	58	656	51.0	11394.0	5549.0	-96114.0
3	18	39	58	656	52.0	16094.0	5671.0	-96291.0
3	18	39	58	657	53.0	20741.0	5773.0	-96814.0
3	18	39	58	658	54.0	25284.0	5877.0	-97191.0
3	18	39	58	658	55.0	29507.0	6001.0	-97498.0
3	18	39	58	659	56.0	28802.0	6095.0	-97046.0
3	18	39	58	659	57.0	27538.0	6200.0	-96903.0
3	18	39	58	693	58.0	25983.0	6320.0	-95851.0
3	18	39	58	693	59.0	25740.0	6455.0	-95087.0
3	18	39	58	694	60.0	29299.0	6619.0	-95322.0
3	18	39	58	695	61.0	34391.0	6741.0	-96038.0
3	18	39	58	695	62.0	37499.0	6877.0	-96851.0
3	18	39	58	696	63.0	42245.0	7009.0	-98785.0
3	18	39	58	697	64.0	47143.0	7171.0	-101243.0
3	18	39	58	697	65.0	51752.0	7318.0	-103564.0
3	18	39	58	698	66.0	55586.0	7449.0	-104534.0
3	18	39	58	699	67.0	59108.0	7597.0	-106184.0
3	18	39	58	700	68.0	60352.0	7740.0	-107237.0
3	18	39	58	700	69.0	62418.0	7886.0	-109033.0
3	18	39	58	701	70.0	63088.0	8025.0	-112742.0
3	18	39	58	702	71.0	60978.0	8151.0	-115563.0
3	18	39	58	702	72.0	56631.0	8275.0	-117042.0
3	18	39	58	703	73.0	50338.0	8409.0	-117062.0
3	18	39	58	703	79.0	42231.0	9456.0	-88258.0
3	18	39	58	704	80.0	41145.0	9684.0	-87660.0
3	18	39	58	705	81.0	33683.0	9917.0	-87021.0
3	18	39	58	713	82.0	20677.0	10144.0	-85708.0
3	18	39	58	714	83.0	7807.0	10400.0	-85611.0
3	18	39	58	714	84.0	190.0	10641.0	-86136.0
3	18	39	58	715	85.0	-1292.0	10876.0	-88644.0
3	18	39	58	715	86.0	-1389.0	11114.0	-89842.0
3	18	39	58	737	87.0	-1574.0	11353.0	-90109.0
3	18	39	58	737	88.0	-2932.0	11591.0	-89165.0
3	18	39	58	738	89.0	-4969.0	11859.0	-88494.0
3	18	39	58	739	90.0	-2049.0	12093.0	-89158.0
3	18	39	58	740	91.0	-1436.0	12359.0	-89928.0
3	18	39	58	740	92.0	-1397.0	12618.0	-90327.0
3	18	39	58	741	93.0	-1362.0	12891.0	-90819.0
3	18	39	58	741	94.0	-1319.0	13134.0	-90834.0
3	18	39	58	742	95.0	-1259.0	13386.0	-91324.0
3	18	39	58	742	96.0	-1171.0	13649.0	-91111.0
3	18	39	58	743	97.0	-964.0	13887.0	-90546.0
3	18	39	58	744	98.0	-1146.0	14111.0	-89437.0
3	18	39	58	744	99.0	-1241.0	14332.0	-90142.0
3	18	39	58	745	100.0	-1315.0	14545.0	-92039.0
3	18	39	58	745	101.0	-1444.0	14749.0	-93180.0
3	18	39	58	746	102.0	-5168.0	14979.0	-93127.0
3	18	39	58	783	103.0	-21632.0	15233.0	-93182.0
3	18	39	58	784	104.0	-43761.0	15479.0	-94484.0
3	18	39	58	785	105.0	-72856.0	15727.0	-94436.0
3	18	39	58	807	106.0	-82974.0	15986.0	-94792.0
3	18	39	58	807	107.0	-71840.0	16284.0	-93996.0
3	18	39	58	808	108.0	-58668.0	16594.0	-93194.0
3	18	39	58	809	109.0	-45389.0	16930.0	-93852.0
3	18	39	58	809	110.0	-36567.0	17351.0	-94689.0
3	18	39	58	810	111.0	-31763.0	17824.0	-95272.0
3	18	39	58	811	112.0	-36941.0	18361.0	-95594.0
3	18	39	58	811	113.0	-47234.0	18932.0	-95941.0
3	18	39	58	812	114.0	-60352.0	19551.0	-96766.0
3	18	39	58	812	115.0	-75569.0	20179.0	-97695.0
3	18	39	58	813	116.0	-89301.0	20868.0	-96848.0
3	18	39	58	814	117.0	-102474.0	21605.0	-95751.0
3	18	39	58	814	118.0	-110704.0	22393.0	-94758.0
3	18	39	58	815	124.0	-119615.0	28092.0	-96944.0
3	18	39	58	816	125.0	-121311.0	29153.0	-97287.0
3	18	39	58	816	126.0	-123640.0	30222.0	-96465.0
3	18	39	58	817	127.0	-127647.0	31306.0	-95712.0
3	18	39	58	817	128.0	-135997.0	32349.0	-95447.0
3	18	39	58	818	129.0	-146301.0	33345.0	-95543.0
3	18	39	58	818	130.0	-156878.0	34352.0	-95923.0
3	18	39	58	819	131.0	-166643.0	35303.0	-95337.0
3	18	39	58	820	132.0	-175513.0	36240.0	-96169.0
3	18	39	58	820	133.0	-184822.0	37166.0	-96757.0
3	18	39	58	821	134.0	-191260.0	38049.0	-97460.0
3	18	39	58	821	135.0	-196345.0	38873.0	-97780.0
3	18	39	58	822	136.0	-201849.0	39688.0	-97035.0
3	18	39	58	822	137.0	-206227.0	40490.0	-95888.0
3	18	39	58	823	138.0	-206289.0	41272.0	-95430.0
3	18	39	58	824	139.0	-205907.0	42004.0	-95486.0
3	18	39	58	824	140.0	-202014.0	42734.0	-96327.0
3	18	39	58	844	141.0	-196261.0	43436.0	-97434.0
3	18	39	58	844	142.0	-191736.0	44119.0	-97705.0
3	18	39	58	845	143.0	-186214.0	44797.0	-97966.0
3	18	39	58	846	144.0	-180612.0	45438.0	-98710.0
3	18	39	58	857	145.0	-175295.0	46071.0	-98776.0
3	18	39	58	858	146.0	-169316.0	46708.0	-97484.0
3	18	39	58	859	147.0	-165734.0	47336.0	-96251.0
3	18	39	58	860	148.0	-163244.0	47943.0	-95416.0
3	18	39	58	860	149.0	-163124.0	48533.0	-95651.0
3	18	39	58	861	150.0	-162449.0	49113.0	-96341.0
3	18	39	58	862	151.0	-163120.0	49681.0	-97391.0
3	18	39	58	862	152.0	-164771.0	50239.0	-98051.0
3	18	39	58	863	153.0	-166478.0	50805.0	-98432.0
3	18	39	58	864	154.0	-168721.0	51352.0	-99458.0
3	18	39	58	864	155.0	-170339.0	51871.0	-99485.0
3	18	39	58	865	156.0	-173282.0	52403.0	-98755.0
3	18	39	58	866	157.0	-174456.0	52895.0	-98129.0
3	18	39	58	866	158.0	-173797.0	53381.0	-97472.0
3	18	39	58	867	159.0	-173468.0	53881.0	-96910.0
3	18	39	58	868	160.0	-172377.0	54343.0	-97224.0
3	18	39	58	868	161.0	-170943.0	54804.0	-97814.0
3	18	39	58	869	162.0	-167601.0	55268.0	-98287.0
