3	18	23	1	831	203.0	-162148.0	-56.0	-8644.0
3	18	23	1	832	204.0	-162675.0	-78.0	-8850.0
3	18	23	1	835	205.0	-163302.0	-109.0	-8656.0
3	18	23	1	838	206.0	-164548.0	-118.0	-8169.0
3	18	23	1	840	207.0	-166072.0	-116.0	-7607.0
3	18	23	1	842	208.0	-167163.0	-116.0	-6797.0
3	18	23	1	844	209.0	-168205.0	-108.0	-7133.0
3	18	23	1	846	210.0	-168158.0	-95.0	-7318.0
3	18	23	1	848	211.0	-167174.0	-111.0	-7436.0
3	18	23	1	850	212.0	-165577.0	-130.0	-8409.0
3	18	23	1	851	213.0	-163389.0	-92.0	-9604.0
3	18	23	1	852	214.0	-160882.0	-95.0	-9471.0
3	18	23	1	853	215.0	-158684.0	-94.0	-8995.0
3	18	23	1	854	216.0	-157049.0	-85.0	-8734.0
3	18	23	1	854	217.0	-156226.0	-54.0	-8121.0
3	18	23	1	855	218.0	-156007.0	-64.0	-7481.0
3	18	23	1	864	219.0	-156396.0	-52.0	-7076.0
3	18	23	1	865	220.0	-158139.0	-51.0	-6871.0
3	18	23	1	865	221.0	-160454.0	-46.0	-7242.0
3	18	23	1	866	222.0	-163174.0	-34.0	-8088.0
3	18	23	1	867	223.0	-166005.0	-29.0	-8885.0
3	18	23	1	867	224.0	-168248.0	-14.0	-8932.0
3	18	23	1	868	225.0	-170505.0	-14.0	-8605.0
3	18	23	1	918	226.0	-172182.0	-6.0	-8565.0
3	18	23	1	964	227.0	-173416.0	7.0	-8466.0
3	18	23	1	964	228.0	-174065.0	33.0	-7939.0
3	18	23	1	966	229.0	-173618.0	11.0	-7470.0
3	18	23	1	966	230.0	-172252.0	-16.0	-7587.0
3	18	23	1	967	231.0	-169849.0	-37.0	-8232.0
3	18	23	1	967	232.0	-167017.0	-41.0	-8895.0
3	18	23	1	968	233.0	-163597.0	-6.0	-9566.0
3	18	23	1	968	234.0	-159721.0	8.0	-9602.0
3	18	23	1	969	235.0	-155992.0	16.0	-9812.0
3	18	23	1	970	236.0	-153047.0	19.0	-9374.0
3	18	23	1	970	237.0	-150519.0	26.0	-8611.0
3	18	23	1	971	238.0	-148739.0	-21.0	-8071.0
3	18	23	1	971	239.0	-148379.0	-42.0	-8021.0
3	18	23	1	972	240.0	-148745.0	-63.0	-8039.0
3	18	23	1	972	252.0	-151951.0	-206.0	-8794.0
3	18	23	1	973	18.0	-155749.0	-132.0	-9516.0
3	18	23	1	974	19.0	-153151.0	-125.0	-9147.0
3	18	23	1	974	20.0	-150887.0	-102.0	-9027.0
3	18	23	1	975	21.0	-148697.0	-77.0	-8546.0
3	18	23	1	975	22.0	-147135.0	-71.0	-7717.0
3	18	23	1	976	23.0	-145994.0	-95.0	-7461.0
3	18	23	1	976	24.0	-145134.0	-97.0	-7709.0
3	18	23	2	9	25.0	-144846.0	-114.0	-8063.0
3	18	23	2	9	26.0	-144799.0	-116.0	-8722.0
3	18	23	2	10	27.0	-146472.0	-141.0	-9247.0
3	18	23	2	11	28.0	-148892.0	-172.0	-8754.0
3	18	23	2	11	29.0	-151607.0	-192.0	-8602.0
3	18	23	2	12	30.0	-153976.0	-206.0	-8288.0
3	18	23	2	12	31.0	-156159.0	-238.0	-7606.0
3	18	23	2	13	32.0	-159519.0	-268.0	-7359.0
3	18	23	2	14	33.0	-161842.0	-311.0	-7336.0
3	18	23	2	14	34.0	-163963.0	-352.0	-7474.0
3	18	23	2	15	35.0	-164829.0	-386.0	-7992.0
3	18	23	2	15	36.0	-166816.0	-389.0	-8964.0
3	18	23	2	16	37.0	-169227.0	-377.0	-9228.0
3	18	23	2	16	38.0	-172927.0	-404.0	-9016.0
3	18	23	2	17	39.0	-177295.0	-406.0	-9421.0
3	18	23	2	18	41.0	-183061.0	-446.0	-8649.0
3	18	23	2	18	42.0	-182921.0	-466.0	-8251.0
3	18	23	2	19	43.0	-184156.0	-467.0	-8354.0
3	18	23	2	19	44.0	-184386.0	-491.0	-8112.0
3	18	23	2	20	45.0	-184754.0	-479.0	-7829.0
3	18	23	2	20	46.0	-181679.0	-500.0	-8644.0
3	18	23	2	54	47.0	-178422.0	-480.0	-9526.0
3	18	23	2	55	48.0	-175719.0	-458.0	-9710.0
3	18	23	2	56	49.0	-173112.0	-462.0	-9322.0
3	18	23	2	56	50.0	-171248.0	-489.0	-9088.0
3	18	23	2	57	51.0	-169042.0	-529.0	-9059.0
3	18	23	2	57	52.0	-165601.0	-550.0	-9042.0
3	18	23	2	58	53.0	-162957.0	-579.0	-8777.0
3	18	23	2	59	54.0	-158730.0	-589.0	-8939.0
3	18	23	2	59	55.0	-153890.0	-571.0	-9712.0
3	18	23	2	60	56.0	-148641.0	-583.0	-10317.0
3	18	23	2	60	57.0	-144225.0	-582.0	-10687.0
3	18	23	2	61	58.0	-141955.0	-572.0	-10428.0
3	18	23	2	62	59.0	-140960.0	-578.0	-10121.0
3	18	23	2	63	60.0	-142184.0	-567.0	-9537.0
3	18	23	2	63	61.0	-145623.0	-600.0	-9214.0
3	18	23	2	64	63.0	-155310.0	-716.0	-8929.0
3	18	23	2	64	64.0	-157290.0	-766.0	-9376.0
3	18	23	2	65	65.0	-155542.0	-777.0	-10363.0
3	18	23	2	65	66.0	-156421.0	-794.0	-10967.0
3	18	23	2	66	67.0	-157450.0	-809.0	-10800.0
3	18	23	2	67	68.0	-160139.0	-801.0	-10512.0
3	18	23	2	67	69.0	-159269.0	-807.0	-10059.0
3	18	23	2	99	70.0	-156645.0	-833.0	-9756.0
3	18	23	2	100	71.0	-153649.0	-856.0	-10156.0
3	18	23	2	100	72.0	-149642.0	-884.0	-9691.0
3	18	23	2	101	73.0	-145679.0	-919.0	-9292.0
3	18	23	2	101	74.0	-142927.0	-982.0	-9642.0
3	18	23	2	102	75.0	-143350.0	-1037.0	-9984.0
3	18	23	2	103	76.0	-143491.0	-1039.0	-9835.0
3	18	23	2	103	77.0	-144760.0	-1047.0	-8734.0
3	18	23	2	104	78.0	-142221.0	-1055.0	-8009.0
3	18	23	2	104	79.0	-143411.0	-1047.0	-6424.0
3	18	23	2	105	80.0	-144042.0	-1041.0	-4323.0
3	18	23	2	105	81.0	-147512.0	-1037.0	-2470.0
3	18	23	2	106	82.0	-151064.0	-1045.0	-436.0
3	18	23	2	107	83.0	-154214.0	-1052.0	1413.0
3	18	23	2	107	84.0	-159386.0	-1065.0	-143.0
3	18	23	2	108	86.0	-165402.0	-1091.0	-13090.0
3	18	23	2	108	87.0	-164319.0	-1095.0	-20524.0
3	18	23	2	109	88.0	-164707.0	-1061.0	-27429.0
3	18	23	2	109	89.0	-165131.0	-1037.0	-33024.0
3	18	23	2	110	90.0	-167105.0	-1007.0	-39897.0
3	18	23	2	111	91.0	-171294.0	-977.0	-47847.0
3	18	23	2	144	92.0	-175219.0	-967.0	-54956.0
3	18	23	2	145	93.0	-180179.0	-951.0	-61583.0
3	18	23	2	146	94.0	-183894.0	-979.0	-68639.0
3	18	23	2	146	95.0	-185446.0	-994.0	-73708.0
3	18	23	2	147	96.0	-187268.0	-986.0	-76726.0
3	18	23	2	148	97.0	-187957.0	-972.0	-77059.0
3	18	23	2	148	98.0	-187557.0	-969.0	-69957.0
3	18	23	2	149	99.0	-184170.0	-974.0	-56967.0
3	18	23	2	149	100.0	-177223.0	-962.0	-43418.0
3	18	23	2	150	101.0	-169744.0	-991.0	-34142.0
3	18	23	2	150	102.0	-160681.0	-1009.0	-29709.0
3	18	23	2	151	103.0	-152557.0	-1020.0	-26361.0
3	18	23	2	151	104.0	-146117.0	-1017.0	-23870.0
3	18	23	2	152	105.0	-141291.0	-1011.0	-20939.0
3	18	23	2	152	106.0	-140122.0	-986.0	-18973.0
3	18	23	2	153	108.0	-143746.0	-977.0	-15063.0
3	18	23	2	154	109.0	-146248.0	-999.0	-13864.0
3	18	23	2	154	110.0	-148912.0	-995.0	-13402.0
3	18	23	2	155	111.0	-151497.0	-989.0	-12222.0
3	18	23	2	155	112.0	-153237.0	-976.0	-11031.0
3	18	23	2	156	113.0	-157733.0	-972.0	-10271.0
3	18	23	2	156	114.0	-166809.0	-952.0	-10060.0
3	18	23	2	188	115.0	-175681.0	-927.0	-10039.0
3	18	23	2	189	116.0	-179186.0	-874.0	-10302.0
3	18	23	2	189	117.0	-175566.0	-861.0	-9638.0
3	18	23	2	190	118.0	-168691.0	-879.0	-8804.0
3	18	23	2	191	119.0	-158444.0	-870.0	-8122.0
3	18	23	2	191	120.0	-148385.0	-868.0	-7513.0
3	18	23	2	192	121.0	-142636.0	-882.0	-7101.0
3	18	23	2	192	122.0	-144883.0	-891.0	-6769.0
3	18	23	2	193	123.0	-155570.0	-916.0	-6711.0
3	18	23	2	193	124.0	-172859.0	-909.0	-6965.0
3	18	23	2	194	125.0	-193171.0	-943.0	-7158.0
3	18	23	2	194	126.0	-208828.0	-945.0	-7282.0
3	18	23	2	195	127.0	-217862.0	-939.0	-7316.0
3	18	23	2	195	128.0	-220021.0	-922.0	-6951.0
3	18	23	2	196	129.0	-214249.0	-926.0	-6729.0
3	18	23	2	197	131.0	-183162.0	-958.0	-5641.0
3	18	23	2	197	132.0	-165667.0	-966.0	-5521.0
3	18	23	2	198	133.0	-152036.0	-960.0	-5637.0
3	18	23	2	199	134.0	-142659.0	-957.0	-6089.0
3	18	23	2	199	135.0	-138648.0	-952.0	-6849.0
3	18	23	2	200	136.0	-136064.0	-947.0	-7434.0
3	18	23	2	233	137.0	-135843.0	-944.0	-7421.0
3	18	23	2	234	138.0	-135719.0	-921.0	-7391.0
3	18	23	2	235	139.0	-135301.0	-907.0	-6824.0
3	18	23	2	235	140.0	-133807.0	-905.0	-6224.0
3	18	23	2	236	141.0	-130625.0	-932.0	-5597.0
3	18	23	2	236	142.0	-127126.0	-929.0	-5267.0
3	18	23	2	237	143.0	-122556.0	-951.0	-4933.0
3	18	23	2	237	144.0	-118177.0	-989.0	-5527.0
3	18	23	2	238	145.0	-113764.0	-1021.0	-6401.0
3	18	23	2	238	146.0	-110432.0	-1025.0	-6638.0
3	18	23	2	239	147.0	-109005.0	-1044.0	-6762.0
3	18	23	2	240	148.0	-108551.0	-1059.0	-6348.0
3	18	23	2	241	149.0	-109542.0	-1062.0	-5258.0
3	18	23	2	242	150.0	-112003.0	-1095.0	-4974.0
3	18	23	2	242	151.0	-115849.0	-1115.0	-4566.0
3	18	23	2	243	153.0	-125189.0	-1157.0	-3351.0
3	18	23	2	243	154.0	-131367.0	-1167.0	-3810.0
3	18	23	2	244	155.0	-138471.0	-1194.0	-4288.0
3	18	23	2	244	156.0	-146811.0	-1174.0	-4654.0
3	18	23	2	245	157.0	-155391.0	-1152.0	-4688.0
3	18	23	2	245	158.0	-164101.0	-1141.0	-4450.0
3	18	23	2	278	159.0	-171979.0	-1119.0	-3922.0
3	18	23	2	279	160.0	-178144.0	-1126.0	-3132.0
3	18	23	2	279	161.0	-182923.0	-1132.0	-2718.0
3	18	23	2	288	162.0	-186289.0	-1144.0	-2264.0
3	18	23	2	288	163.0	-188038.0	-1176.0	-1942.0
3	18	23	2	289	164.0	-187982.0	-1189.0	-2229.0
3	18	23	2	289	165.0	-187112.0	-1199.0	-2806.0
3	18	23	2	290	166.0	-186117.0	-1192.0	-3094.0
3	18	23	2	290	167.0	-185012.0	-1195.0	-2921.0
3	18	23	2	291	168.0	-183329.0	-1193.0	-2516.0
3	18	23	2	292	169.0	-181044.0	-1190.0	-1418.0
3	18	23	2	292	170.0	-178624.0	-1210.0	-852.0
3	18	23	2	293	171.0	-175628.0	-1232.0	-816.0
3	18	23	2	293	172.0	-173122.0	-1246.0	-211.0
3	18	23	2	294	173.0	-170714.0	-1272.0	-191.0
3	18	23	2	294	175.0	-165848.0	-1307.0	-934.0
3	18	23	2	295	176.0	-163614.0	-1296.0	-1384.0
3	18	23	2	295	177.0	-162480.0	-1280.0	-996.0
3	18	23	2	296	178.0	-161912.0	-1266.0	-293.0
3	18	23	2	296	179.0	-161977.0	-1248.0	418.0
3	18	23	2	297	180.0	-162629.0	-1229.0	892.0
3	18	23	2	297	181.0	-163736.0	-1219.0	1692.0
3	18	23	2	324	182.0	-165593.0	-1213.0	2164.0
3	18	23	2	325	183.0	-167589.0	-1214.0	2658.0
3	18	23	2	325	184.0	-170072.0	-1231.0	3144.0
3	18	23	2	326	185.0	-172379.0	-1237.0	2293.0
3	18	23	2	327	186.0	-174718.0	-1224.0	1442.0
3	18	23	2	327	187.0	-176895.0	-1229.0	1861.0
3	18	23	2	328	188.0	-178759.0	-1222.0	2671.0
3	18	23	2	328	189.0	-179471.0	-1212.0	3228.0
3	18	23	2	329	190.0	-178379.0	-1241.0	3703.0
3	18	23	2	330	191.0	-177114.0	-1275.0	4679.0
3	18	23	2	330	192.0	-175211.0	-1278.0	5121.0
3	18	23	2	331	193.0	-172277.0	-1324.0	4956.0
3	18	23	2	331	194.0	-169401.0	-1340.0	4801.0
3	18	23	2	332	195.0	-166989.0	-1354.0	4091.0
3	18	23	2	332	196.0	-165072.0	-1346.0	3296.0
3	18	23	2	333	198.0	-162503.0	-1331.0	4144.0
3	18	23	2	333	199.0	-161475.0	-1336.0	4275.0
3	18	23	2	334	200.0	-160315.0	-1316.0	4862.0
3	18	23	2	335	201.0	-159458.0	-1313.0	5305.0
3	18	23	2	335	202.0	-158781.0	-1314.0	5487.0
3	18	23	2	336	203.0	-158294.0	-1303.0	5033.0
3	18	23	2	367	204.0	-157451.0	-1311.0	4263.0
3	18	23	2	368	205.0	-156844.0	-1281.0	3256.0
3	18	23	2	369	206.0	-156114.0	-1267.0	2619.0
3	18	23	2	369	207.0	-154836.0	-1285.0	2351.0
3	18	23	2	370	208.0	-153054.0	-1296.0	2231.0
3	18	23	2	370	209.0	-151885.0	-1311.0	1900.0
3	18	23	2	371	210.0	-150650.0	-1329.0	2103.0
3	18	23	2	371	211.0	-149669.0	-1332.0	1886.0
3	18	23	2	372	212.0	-149786.0	-1345.0	1319.0
3	18	23	2	373	213.0	-150646.0	-1388.0	383.0
3	18	23	2	373	214.0	-152432.0	-1411.0	-1022.0
3	18	23	2	374	215.0	-154821.0	-1427.0	-2214.0
3	18	23	2	374	216.0	-158114.0	-1434.0	-2972.0
3	18	23	2	375	217.0	-161641.0	-1437.0	-4060.0
3	18	23	2	387	218.0	-164856.0	-1436.0	-4354.0
3	18	23	2	388	220.0	-168459.0	-1413.0	-4097.0
3	18	23	2	388	221.0	-168789.0	-1417.0	-4689.0
3	18	23	2	389	222.0	-167780.0	-1413.0	-4916.0
3	18	23	2	389	223.0	-166430.0	-1399.0	-5769.0
3	18	23	2	390	224.0	-164796.0	-1394.0	-7017.0
3	18	23	2	390	225.0	-162419.0	-1365.0	-7532.0
3	18	23	2	391	226.0	-160306.0	-1329.0	-7724.0
3	18	23	2	413	227.0	-158638.0	-1292.0	-8542.0
3	18	23	2	413	228.0	-156622.0	-1276.0	-8767.0
3	18	23	2	414	229.0	-154439.0	-1258.0	-8706.0
3	18	23	2	415	230.0	-152676.0	-1249.0	-9011.0
3	18	23	2	415	231.0	-151531.0	-1244.0	-9401.0
3	18	23	2	416	232.0	-150940.0	-1279.0	-9572.0
3	18	23	2	416	233.0	-151702.0	-1289.0	-9820.0
3	18	23	2	417	234.0	-153263.0	-1306.0	-10312.0
3	18	23	2	417	235.0	-155321.0	-1319.0	-11235.0
3	18	23	2	418	236.0	-157485.0	-1297.0	-11603.0
3	18	23	2	459	237.0	-159661.0	-1288.0	-11284.0
3	18	23	2	460	238.0	-161744.0	-1297.0	-10947.0
3	18	23	2	460	239.0	-162761.0	-1292.0	-10647.0
3	18	23	2	461	240.0	-162845.0	-1281.0	-10473.0
3	18	23	2	461	241.0	-162589.0	-1293.0	-10735.0
3	18	23	2	462	243.0	-160959.0	-1305.0	-11004.0
3	18	23	2	463	244.0	-160109.0	-1309.0	-11364.0
3	18	23	2	463	245.0	-159747.0	-1280.0	-12226.0
3	18	23	2	464	246.0	-159969.0	-1262.0	-12656.0
3	18	23	2	464	247.0	-161076.0	-1228.0	-12421.0
3	18	23	2	465	248.0	-163447.0	-1204.0	-12251.0
3	18	23	2	465	249.0	-166297.0	-1226.0	-12181.0
3	18	23	2	466	250.0	-169844.0	-1259.0	-12027.0
3	18	23	2	467	251.0	-174344.0	-1273.0	-11798.0
3	18	23	2	467	252.0	-179179.0	-1281.0	-11568.0
3	18	23	2	468	253.0	-183682.0	-1291.0	-11869.0
3	18	23	2	468	10.0	-156046.0	-1357.0	-13413.0
3	18	23	2	469	11.0	-148452.0	-1354.0	-13291.0
3	18	23	2	469	12.0	-141688.0	-1341.0	-12633.0
3	18	23	2	470	13.0	-138099.0	-1316.0	-12157.0
3	18	23	2	471	14.0	-137783.0	-1326.0	-11552.0
3	18	23	2	471	15.0	-140569.0	-1322.0	-11372.0
3	18	23	2	503	16.0	-145692.0	-1316.0	-11371.0
3	18	23	2	504	17.0	-152204.0	-1329.0	-11819.0
3	18	23	2	504	18.0	-158404.0	-1354.0	-11947.0
3	18	23	2	505	19.0	-163675.0	-1364.0	-12652.0
3	18	23	2	506	20.0	-167641.0	-1372.0	-13184.0
3	18	23	2	506	21.0	-169972.0	-1388.0	-12645.0
3	18	23	2	507	22.0	-171661.0	-1395.0	-12271.0
3	18	23	2	507	23.0	-172100.0	-1406.0	-11979.0
3	18	23	2	508	24.0	-172356.0	-1423.0	-11500.0
3	18	23	2	508	25.0	-172339.0	-1466.0	-11247.0
3	18	23	2	509	26.0	-172080.0	-1524.0	-11304.0
3	18	23	2	510	27.0	-170728.0	-1537.0	-11784.0
3	18	23	2	510	28.0	-168875.0	-1550.0	-12167.0
3	18	23	2	511	29.0	-167402.0	-1546.0	-12641.0
3	18	23	2	511	30.0	-167441.0	-1515.0	-12858.0
3	18	23	2	512	32.0	-170171.0	-1503.0	-12227.0
3	18	23	2	512	33.0	-171877.0	-1479.0	-12239.0
3	18	23	2	513	34.0	-172943.0	-1459.0	-11366.0
3	18	23	2	521	35.0	-173081.0	-1438.0	-11332.0
3	18	23	2	522	36.0	-172222.0	-1444.0	-11494.0
3	18	23	2	522	37.0	-171079.0	-1438.0	-11999.0
3	18	23	2	549	38.0	-169632.0	-1406.0	-12824.0
3	18	23	2	550	39.0	-168581.0	-1377.0	-12936.0
3	18	23	2	550	40.0	-167531.0	-1336.0	-12979.0
3	18	23	2	551	41.0	-166549.0	-1341.0	-12682.0
3	18	23	2	552	42.0	-165310.0	-1326.0	-12606.0
3	18	23	2	569	43.0	-163632.0	-1311.0	-11794.0
3	18	23	2	570	44.0	-161517.0	-1326.0	-11402.0
3	18	23	2	570	45.0	-158801.0	-1334.0	-11517.0
3	18	23	2	571	46.0	-155656.0	-1351.0	-11377.0
3	18	23	2	571	47.0	-152557.0	-1345.0	-11885.0
3	18	23	2	572	48.0	-149446.0	-1364.0	-12772.0
3	18	23	2	573	49.0	-146591.0	-1383.0	-12887.0
3	18	23	2	573	50.0	-144715.0	-1398.0	-12629.0
3	18	23	2	574	51.0	-143563.0	-1423.0	-12748.0
3	18	23	2	574	52.0	-143782.0	-1461.0	-11962.0
3	18	23	2	575	54.0	-146267.0	-1472.0	-11209.0
3	18	23	2	575	55.0	-148406.0	-1496.0	-11324.0
3	18	23	2	576	56.0	-150577.0	-1487.0	-11515.0
3	18	23	2	576	57.0	-152672.0	-1464.0	-11961.0
3	18	23	2	577	58.0	-153994.0	-1466.0	-12323.0
3	18	23	2	577	59.0	-155381.0	-1448.0	-13085.0
3	18	23	2	578	60.0	-156629.0	-1453.0	-12999.0
3	18	23	2	593	61.0	-157901.0	-1446.0	-12785.0
3	18	23	2	594	62.0	-159467.0	-1426.0	-12248.0
3	18	23	2	594	63.0	-160889.0	-1437.0	-11680.0
3	18	23	2	595	64.0	-161855.0	-1461.0	-11251.0
3	18	23	2	615	65.0	-162601.0	-1499.0	-11488.0
3	18	23	2	616	66.0	-162777.0	-1559.0	-11388.0
3	18	23	2	617	67.0	-162076.0	-1567.0	-11810.0
3	18	23	2	617	68.0	-161089.0	-1584.0	-12794.0
3	18	23	2	618	69.0	-160610.0	-1601.0	-13240.0
3	18	23	2	618	70.0	-159880.0	-1593.0	-13492.0
3	18	23	2	619	71.0	-159721.0	-1592.0	-12584.0
3	18	23	2	619	72.0	-159914.0	-1589.0	-12169.0
3	18	23	2	620	73.0	-160232.0	-1569.0	-12258.0
3	18	23	2	620	74.0	-160709.0	-1587.0	-11658.0
3	18	23	2	621	75.0	-160962.0	-1616.0	-11390.0
3	18	23	2	621	77.0	-162129.0	-1685.0	-12188.0
3	18	23	2	622	78.0	-162417.0	-1691.0	-12970.0
3	18	23	2	623	79.0	-162489.0	-1659.0	-13503.0
3	18	23	2	623	80.0	-162849.0	-1645.0	-13498.0
3	18	23	2	624	81.0	-162596.0	-1661.0	-12833.0
3	18	23	2	624	82.0	-162582.0	-1636.0	-12674.0
3	18	23	2	641	83.0	-162275.0	-1627.0	-12662.0
3	18	23	2	641	84.0	-162031.0	-1623.0	-12133.0
3	18	23	2	642	85.0	-161522.0	-1621.0	-11431.0
3	18	23	2	643	86.0	-161381.0	-1636.0	-11844.0
3	18	23	2	643	87.0	-161140.0	-1663.0	-12534.0
3	18	23	2	644	88.0	-160627.0	-1654.0	-13076.0
3	18	23	2	644	89.0	-160572.0	-1649.0	-13616.0
3	18	23	2	645	90.0	-161046.0	-1651.0	-13741.0
3	18	23	2	646	91.0	-161563.0	-1646.0	-13157.0
3	18	23	2	646	92.0	-161857.0	-1636.0	-12844.0
3	18	23	2	647	93.0	-162061.0	-1651.0	-12639.0
3	18	23	2	647	94.0	-162223.0	-1670.0	-12264.0
3	18	23	2	648	95.0	-162419.0	-1703.0	-12008.0
3	18	23	2	649	96.0	-162766.0	-1749.0	-12341.0
3	18	23	2	649	97.0	-163064.0	-1783.0	-12817.0
3	18	23	2	650	99.0	-164557.0	-1772.0	-13874.0
3	18	23	2	650	100.0	-165654.0	-1764.0	-13774.0
3	18	23	2	651	101.0	-166100.0	-1747.0	-13289.0
3	18	23	2	651	102.0	-166309.0	-1724.0	-12817.0
3	18	23	2	652	103.0	-165906.0	-1706.0	-12314.0
3	18	23	2	653	104.0	-164932.0	-1713.0	-12059.0
3	18	23	2	683	105.0	-163491.0	-1724.0	-11500.0
3	18	23	2	684	106.0	-161620.0	-1748.0	-11389.0
3	18	23	2	730	107.0	-159731.0	-1756.0	-12455.0
3	18	23	2	731	108.0	-158080.0	-1754.0	-13316.0
3	18	23	2	731	109.0	-156737.0	-1753.0	-13504.0
3	18	23	2	732	110.0	-155815.0	-1763.0	-13395.0
3	18	23	2	732	111.0	-155812.0	-1782.0	-13088.0
3	18	23	2	733	112.0	-155394.0	-1799.0	-12706.0
3	18	23	2	734	113.0	-154788.0	-1801.0	-12234.0
3	18	23	2	734	114.0	-153998.0	-1821.0	-12351.0
3	18	23	2	735	115.0	-152899.0	-1837.0	-12017.0
3	18	23	2	735	116.0	-152149.0	-1876.0	-12204.0
3	18	23	2	736	117.0	-151456.0	-1873.0	-12857.0
3	18	23	2	737	118.0	-150599.0	-1869.0	-13776.0
3	18	23	2	737	119.0	-150224.0	-1859.0	-13945.0
3	18	23	2	738	122.0	-151117.0	-1847.0	-12854.0
3	18	23	2	738	123.0	-151895.0	-1815.0	-12480.0
3	18	23	2	739	144.0	-164766.0	-1709.0	-11429.0
3	18	23	2	739	145.0	-165608.0	-1727.0	-11327.0
3	18	23	2	740	146.0	-166011.0	-1707.0	-11468.0
3	18	23	2	752	147.0	-165687.0	-1676.0	-12016.0
3	18	23	2	752	148.0	-164934.0	-1649.0	-12983.0
3	18	23	2	753	149.0	-163816.0	-1631.0	-13527.0
3	18	23	2	775	150.0	-162656.0	-1609.0	-13397.0
3	18	23	2	776	151.0	-161427.0	-1607.0	-12877.0
3	18	23	2	776	152.0	-160250.0	-1611.0	-12637.0
3	18	23	2	777	153.0	-159177.0	-1609.0	-12269.0
3	18	23	2	778	154.0	-158922.0	-1622.0	-11505.0
3	18	23	2	778	155.0	-158620.0	-1661.0	-11506.0
3	18	23	2	779	156.0	-158069.0	-1696.0	-11994.0
3	18	23	2	779	157.0	-157762.0	-1700.0	-12111.0
3	18	23	2	780	158.0	-157606.0	-1692.0	-12961.0
3	18	23	2	781	159.0	-157704.0	-1668.0	-13677.0
3	18	23	2	781	160.0	-158145.0	-1669.0	-13316.0
3	18	23	2	782	161.0	-158594.0	-1681.0	-12651.0
3	18	23	2	783	162.0	-158794.0	-1679.0	-12446.0
3	18	23	2	783	163.0	-158513.0	-1687.0	-12209.0
3	18	23	2	784	164.0	-158244.0	-1710.0	-11646.0
3	18	23	2	784	166.0	-157509.0	-1721.0	-11769.0
3	18	23	2	785	167.0	-157631.0	-1734.0	-11787.0
3	18	23	2	785	168.0	-157981.0	-1722.0	-12338.0
3	18	23	2	786	169.0	-158913.0	-1691.0	-12578.0
3	18	23	2	787	170.0	-160606.0	-1667.0	-12151.0
3	18	23	2	787	171.0	-162831.0	-1659.0	-11527.0
3	18	23	2	788	172.0	-165294.0	-1624.0	-11712.0
3	18	23	2	819	173.0	-167688.0	-1631.0	-11397.0
3	18	23	2	819	174.0	-169944.0	-1641.0	-10551.0
3	18	23	2	820	175.0	-171701.0	-1654.0	-10272.0
3	18	23	2	821	176.0	-172404.0	-1672.0	-11071.0
3	18	23	2	821	177.0	-172459.0	-1676.0	-12042.0
3	18	23	2	822	178.0	-171786.0	-1672.0	-12720.0
3	18	23	2	822	179.0	-170964.0	-1677.0	-12994.0
3	18	23	2	823	180.0	-170140.0	-1656.0	-12961.0
3	18	23	2	824	181.0	-168624.0	-1671.0	-12319.0
3	18	23	2	824	182.0	-167201.0	-1651.0	-11935.0
3	18	23	2	825	183.0	-165786.0	-1632.0	-11435.0
3	18	23	2	826	184.0	-163606.0	-1632.0	-11204.0
3	18	23	2	827	185.0	-161677.0	-1659.0	-10952.0
3	18	23	2	827	186.0	-159747.0	-1680.0	-11356.0
3	18	23	2	828	187.0	-157590.0	-1697.0	-12217.0
3	18	23	2	829	189.0	-153343.0	-1666.0	-12834.0
3	18	23	2	829	190.0	-151385.0	-1645.0	-12779.0
3	18	23	2	830	191.0	-149847.0	-1627.0	-12458.0
3	18	23	2	831	192.0	-148461.0	-1615.0	-11821.0
3	18	23	2	831	193.0	-147410.0	-1588.0	-11136.0
3	18	23	2	832	194.0	-146567.0	-1586.0	-10854.0
3	18	23	2	863	195.0	-145831.0	-1596.0	-10622.0
3	18	23	2	864	196.0	-145132.0	-1592.0	-10942.0
3	18	23	2	865	197.0	-144805.0	-1579.0	-11694.0
3	18	23	2	866	198.0	-144734.0	-1552.0	-12945.0
3	18	23	2	866	199.0	-145158.0	-1559.0	-12967.0
3	18	23	2	867	200.0	-145774.0	-1534.0	-12617.0
3	18	23	2	867	201.0	-146483.0	-1537.0	-12244.0
3	18	23	2	868	202.0	-147767.0	-1532.0	-11621.0
3	18	23	2	869	203.0	-149156.0	-1528.0	-11139.0
3	18	23	2	884	204.0	-150850.0	-1544.0	-10927.0
3	18	23	2	884	205.0	-152836.0	-1569.0	-10415.0
3	18	23	2	885	206.0	-154374.0	-1602.0	-10352.0
3	18	23	2	886	207.0	-155297.0	-1628.0	-10987.0
3	18	23	2	886	208.0	-156950.0	-1614.0	-11966.0
3	18	23	2	887	209.0	-159115.0	-1589.0	-12268.0
3	18	23	2	887	211.0	-162885.0	-1580.0	-11556.0
3	18	23	2	888	212.0	-165231.0	-1602.0	-11311.0
3	18	23	2	888	213.0	-167348.0	-1606.0	-10887.0
3	18	23	2	889	214.0	-169568.0	-1563.0	-10616.0
3	18	23	2	890	215.0	-171677.0	-1561.0	-10329.0
3	18	23	2	890	216.0	-173762.0	-1576.0	-10536.0
3	18	23	2	891	217.0	-175835.0	-1586.0	-11376.0
3	18	23	2	909	218.0	-177378.0	-1566.0	-12427.0
3	18	23	2	910	219.0	-178469.0	-1531.0	-12136.0
3	18	23	2	910	220.0	-179019.0	-1541.0	-11902.0
3	18	23	2	911	221.0	-178598.0	-1553.0	-11797.0
3	18	23	2	911	222.0	-177217.0	-1555.0	-11705.0
3	18	23	2	912	223.0	-174874.0	-1573.0	-11204.0
3	18	23	2	913	224.0	-172018.0	-1582.0	-10931.0
3	18	23	2	913	225.0	-169094.0	-1619.0	-10394.0
3	18	23	2	914	226.0	-165519.0	-1629.0	-10923.0
3	18	23	2	915	227.0	-161692.0	-1631.0	-11559.0
3	18	23	2	915	228.0	-158152.0	-1607.0	-12299.0
3	18	23	2	916	229.0	-155200.0	-1585.0	-12400.0
3	18	23	2	917	230.0	-152656.0	-1572.0	-12141.0
3	18	23	2	917	231.0	-150797.0	-1588.0	-11564.0
3	18	23	2	918	232.0	-149660.0	-1581.0	-10617.0
3	18	23	2	919	234.0	-149024.0	-1577.0	-8772.0
3	18	23	2	919	235.0	-149483.0	-1585.0	-7817.0
3	18	23	2	920	236.0	-150489.0	-1573.0	-7437.0
3	18	23	2	921	237.0	-151615.0	-1565.0	-6296.0
3	18	23	2	921	238.0	-152673.0	-1549.0	-5307.0
3	18	23	2	922	239.0	-153804.0	-1508.0	-4150.0
3	18	23	2	954	240.0	-155120.0	-1489.0	-2278.0
3	18	23	2	954	241.0	-156215.0	-1447.0	-1752.0
3	18	23	2	955	242.0	-157456.0	-1422.0	-6118.0
3	18	23	2	956	243.0	-158679.0	-1437.0	-12731.0
3	18	23	2	956	244.0	-159687.0	-1454.0	-19425.0
3	18	23	2	957	245.0	-160901.0	-1458.0	-26110.0
3	18	23	2	958	246.0	-162172.0	-1494.0	-32607.0
3	18	23	2	958	247.0	-163186.0	-1484.0	-40311.0
3	18	23	2	959	248.0	-164331.0	-1465.0	-48989.0
3	18	23	2	960	249.0	-165632.0	-1465.0	-56797.0
3	18	23	2	960	250.0	-167269.0	-1443.0	-63420.0
3	18	23	2	961	251.0	-169022.0	-1448.0	-69641.0
3	18	23	2	962	252.0	-170859.0	-1442.0	-74420.0
3	18	23	2	962	253.0	-172012.0	-1413.0	-76618.0
3	18	23	2	963	254.0	-172801.0	-1412.0	-77087.0
3	18	23	2	963	0.0	-171070.0	-1437.0	-61369.0
3	18	23	2	964	1.0	-166808.0	-1466.0	-47901.0
3	18	23	2	965	2.0	-160729.0	-1421.0	-38048.0
3	18	23	2	965	3.0	-153391.0	-1404.0	-33526.0
3	18	23	2	966	4.0	-146469.0	-1376.0	-29864.0
3	18	23	2	966	5.0	-140437.0	-1354.0	-26221.0
3	18	23	2	967	6.0	-136125.0	-1341.0	-22672.0
3	18	23	2	999	7.0	-134712.0	-1337.0	-19537.0
3	18	23	2	999	8.0	-135707.0	-1339.0	-17408.0
3	18	23	3	0	9.0	-138409.0	-1371.0	-15939.0
3	18	23	3	1	10.0	-142252.0	-1389.0	-15831.0
3	18	23	3	1	11.0	-145672.0	-1375.0	-15802.0
3	18	23	3	2	12.0	-148300.0	-1351.0	-15739.0
3	18	23	3	3	13.0	-150204.0	-1366.0	-14363.0
3	18	23	3	3	14.0	-153464.0	-1367.0	-13391.0
3	18	23	3	4	15.0	-161022.0	-1356.0	-12902.0
3	18	23	3	4	16.0	-169564.0	-1356.0	-11887.0
3	18	23	3	5	17.0	-173732.0	-1371.0	-10697.0
3	18	23	3	6	18.0	-171968.0	-1406.0	-10089.0
3	18	23	3	7	19.0	-166192.0	-1426.0	-9940.0
3	18	23	3	7	20.0	-157266.0	-1431.0	-9659.0
3	18	23	3	8	21.0	-148171.0	-1450.0	-10317.0
3	18	23	3	8	23.0	-147639.0	-1422.0	-9706.0
3	18	23	3	9	24.0	-157401.0	-1404.0	-9487.0
3	18	23	3	10	25.0	-172816.0	-1396.0	-9117.0
3	18	23	3	10	26.0	-189541.0	-1386.0	-8419.0
3	18	23	3	11	27.0	-202805.0	-1369.0	-8047.0
3	18	23	3	11	28.0	-210142.0	-1391.0	-7854.0
3	18	23	3	43	29.0	-210930.0	-1422.0	-7574.0
3	18	23	3	44	30.0	-204672.0	-1427.0	-7941.0
3	18	23	3	45	31.0	-191679.0	-1437.0	-8584.0
3	18	23	3	46	32.0	-174827.0	-1426.0	-8696.0
3	18	23	3	46	33.0	-158689.0	-1429.0	-8594.0
3	18	23	3	47	34.0	-146924.0	-1436.0	-8127.0
3	18	23	3	48	35.0	-140328.0	-1444.0	-7690.0
3	18	23	3	48	36.0	-138281.0	-1452.0	-7384.0
3	18	23	3	49	37.0	-139615.0	-1474.0	-6979.0
3	18	23	3	50	38.0	-141667.0	-1496.0	-6841.0
3	18	23	3	50	39.0	-142877.0	-1506.0	-6821.0
3	18	23	3	51	40.0	-142967.0	-1522.0	-7280.0
3	18	23	3	52	41.0	-142245.0	-1527.0	-8123.0
3	18	23	3	52	42.0	-141010.0	-1538.0	-8469.0
3	18	23	3	53	43.0	-138682.0	-1524.0	-8376.0
3	18	23	3	54	45.0	-133496.0	-1540.0	-7104.0
3	18	23	3	54	46.0	-132403.0	-1532.0	-7135.0
3	18	23	3	55	47.0	-133448.0	-1534.0	-6644.0
3	18	23	3	55	48.0	-135322.0	-1541.0	-6087.0
3	18	23	3	56	49.0	-138174.0	-1553.0	-6361.0
3	18	23	3	57	50.0	-142086.0	-1554.0	-7022.0
3	18	23	3	57	51.0	-146089.0	-1549.0	-7377.0
3	18	23	3	89	52.0	-149635.0	-1542.0	-7200.0
3	18	23	3	90	53.0	-152921.0	-1553.0	-6927.0
3	18	23	3	91	54.0	-155989.0	-1552.0	-6293.0
3	18	23	3	91	55.0	-159985.0	-1560.0	-5917.0
3	18	23	3	92	56.0	-165153.0	-1596.0	-5476.0
3	18	23	3	93	57.0	-170805.0	-1636.0	-4861.0
3	18	23	3	93	58.0	-176977.0	-1667.0	-4339.0
3	18	23	3	94	59.0	-182304.0	-1679.0	-4496.0
3	18	23	3	95	60.0	-185977.0	-1706.0	-5267.0
3	18	23	3	95	61.0	-188024.0	-1716.0	-5479.0
3	18	23	3	96	62.0	-188442.0	-1709.0	-5210.0
3	18	23	3	97	63.0	-187502.0	-1721.0	-4890.0
3	18	23	3	97	64.0	-185454.0	-1749.0	-4467.0
3	18	23	3	98	65.0	-182150.0	-1766.0	-4076.0
3	18	23	3	98	66.0	-178059.0	-1806.0	-3677.0
3	18	23	3	99	68.0	-168742.0	-1850.0	-2062.0
3	18	23	3	100	69.0	-163212.0	-1880.0	-2700.0
3	18	23	3	100	70.0	-157569.0	-1874.0	-2907.0
3	18	23	3	101	71.0	-152213.0	-1848.0	-2795.0
3	18	23	3	101	72.0	-147392.0	-1848.0	-2914.0
3	18	23	3	102	73.0	-143106.0	-1822.0	-2697.0
3	18	23	3	134	74.0	-139827.0	-1791.0	-1958.0
3	18	23	3	135	75.0	-137291.0	-1757.0	-1261.0
3	18	23	3	135	76.0	-136336.0	-1750.0	-737.0
3	18	23	3	136	77.0	-136361.0	-1749.0	-89.0
3	18	23	3	137	78.0	-137067.0	-1751.0	492.0
3	18	23	3	137	79.0	-138910.0	-1753.0	386.0
3	18	23	3	138	80.0	-141500.0	-1760.0	285.0
3	18	23	3	139	81.0	-145032.0	-1744.0	-382.0
3	18	23	3	139	82.0	-149508.0	-1738.0	-334.0
3	18	23	3	140	83.0	-154116.0	-1738.0	158.0
3	18	23	3	141	84.0	-158728.0	-1726.0	806.0
3	18	23	3	142	85.0	-162792.0	-1733.0	1483.0
3	18	23	3	143	86.0	-166277.0	-1732.0	2184.0
3	18	23	3	143	87.0	-168602.0	-1716.0	2593.0
3	18	23	3	144	88.0	-170064.0	-1721.0	3094.0
3	18	23	3	144	90.0	-169461.0	-1729.0	2682.0
3	18	23	3	145	91.0	-168095.0	-1716.0	1968.0
3	18	23	3	146	92.0	-165732.0	-1677.0	2039.0
3	18	23	3	146	93.0	-163491.0	-1661.0	2390.0
3	18	23	3	147	94.0	-161361.0	-1634.0	3013.0
3	18	23	3	147	95.0	-158924.0	-1600.0	3443.0
3	18	23	3	179	96.0	-157275.0	-1584.0	3851.0
3	18	23	3	180	97.0	-156630.0	-1599.0	4129.0
3	18	23	3	181	98.0	-157127.0	-1601.0	4150.0
3	18	23	3	181	99.0	-159200.0	-1592.0	3581.0
3	18	23	3	182	100.0	-161754.0	-1602.0	3068.0
3	18	23	3	183	101.0	-164981.0	-1602.0	2004.0
3	18	23	3	183	102.0	-168062.0	-1587.0	1982.0
3	18	23	3	184	103.0	-170595.0	-1572.0	2490.0
3	18	23	3	185	104.0	-171942.0	-1572.0	2469.0
3	18	23	3	185	105.0	-172104.0	-1569.0	2310.0
3	18	23	3	186	106.0	-171512.0	-1566.0	2770.0
3	18	23	3	187	107.0	-169994.0	-1566.0	3323.0
3	18	23	3	187	108.0	-168940.0	-1561.0	3086.0
3	18	23	3	188	109.0	-167656.0	-1552.0	2384.0
3	18	23	3	188	110.0	-165578.0	-1586.0	1571.0
3	18	23	3	189	112.0	-161968.0	-1574.0	-287.0
3	18	23	3	190	113.0	-159542.0	-1589.0	-832.0
3	18	23	3	190	114.0	-156966.0	-1574.0	-1141.0
3	18	23	3	191	115.0	-154697.0	-1571.0	-1473.0
3	18	23	3	192	116.0	-152924.0	-1551.0	-1356.0
3	18	23	3	192	117.0	-151820.0	-1544.0	-1571.0
3	18	23	3	193	118.0	-151237.0	-1549.0	-2116.0
3	18	23	3	224	119.0	-151196.0	-1554.0	-2983.0
3	18	23	3	225	120.0	-151636.0	-1561.0	-4147.0
3	18	23	3	226	121.0	-152584.0	-1550.0	-5676.0
3	18	23	3	227	122.0	-154662.0	-1526.0	-6779.0
3	18	23	3	227	123.0	-157206.0	-1526.0	-7246.0
3	18	23	3	228	124.0	-160033.0	-1529.0	-7264.0
3	18	23	3	229	125.0	-162726.0	-1505.0	-7534.0
3	18	23	3	229	126.0	-165686.0	-1511.0	-7611.0
3	18	23	3	230	127.0	-168139.0	-1540.0	-7543.0
3	18	23	3	231	128.0	-170001.0	-1571.0	-7593.0
3	18	23	3	231	129.0	-171516.0	-1596.0	-8366.0
3	18	23	3	232	130.0	-172056.0	-1607.0	-9172.0
3	18	23	3	233	131.0	-172088.0	-1602.0	-10400.0
3	18	23	3	233	132.0	-171777.0	-1602.0	-11110.0
3	18	23	3	234	133.0	-170564.0	-1606.0	-11246.0
3	18	23	3	234	135.0	-166416.0	-1612.0	-10817.0
3	18	23	3	235	136.0	-163671.0	-1619.0	-10982.0
3	18	23	3	236	137.0	-160816.0	-1610.0	-11108.0
3	18	23	3	236	138.0	-158731.0	-1621.0	-10674.0
3	18	23	3	237	139.0	-157109.0	-1611.0	-11576.0
3	18	23	3	237	140.0	-156002.0	-1599.0	-12221.0
3	18	23	3	269	141.0	-155704.0	-1566.0	-12723.0
3	18	23	3	269	142.0	-155778.0	-1546.0	-13202.0
3	18	23	3	270	143.0	-156410.0	-1520.0	-12801.0
3	18	23	3	270	144.0	-157463.0	-1531.0	-12482.0
3	18	23	3	271	145.0	-158506.0	-1500.0	-12354.0
3	18	23	3	271	146.0	-159749.0	-1480.0	-12164.0
3	18	23	3	272	147.0	-161115.0	-1480.0	-11864.0
3	18	23	3	273	148.0	-162638.0	-1499.0	-11607.0
3	18	23	3	273	149.0	-164845.0	-1498.0	-12122.0
3	18	23	3	274	150.0	-167523.0	-1509.0	-12842.0
3	18	23	3	274	151.0	-170976.0	-1508.0	-13517.0
3	18	23	3	275	152.0	-174996.0	-1489.0	-13469.0
3	18	23	3	275	153.0	-178695.0	-1476.0	-13344.0
3	18	23	3	276	154.0	-182844.0	-1488.0	-13073.0
3	18	23	3	277	155.0	-185984.0	-1491.0	-12551.0
3	18	23	3	277	157.0	-178927.0	-1509.0	-11581.0
3	18	23	3	278	158.0	-171471.0	-1544.0	-11877.0
3	18	23	3	278	159.0	-164062.0	-1551.0	-13034.0
3	18	23	3	279	160.0	-160655.0	-1524.0	-13597.0
3	18	23	3	279	161.0	-162706.0	-1502.0	-14341.0
3	18	23	3	280	162.0	-168304.0	-1467.0	-14386.0
3	18	23	3	281	163.0	-172034.0	-1447.0	-14479.0
3	18	23	3	314	164.0	-170568.0	-1424.0	-13957.0
3	18	23	3	315	165.0	-164562.0	-1394.0	-13404.0
3	18	23	3	315	166.0	-157434.0	-1350.0	-12556.0
3	18	23	3	316	167.0	-150810.0	-1371.0	-12587.0
3	18	23	3	316	168.0	-143487.0	-1411.0	-12737.0
3	18	23	3	317	169.0	-137229.0	-1429.0	-13114.0
3	18	23	3	318	170.0	-134148.0	-1441.0	-14016.0
3	18	23	3	318	171.0	-134136.0	-1452.0	-14821.0
3	18	23	3	319	172.0	-137062.0	-1439.0	-14773.0
3	18	23	3	320	173.0	-142928.0	-1405.0	-14441.0
3	18	23	3	321	174.0	-149581.0	-1403.0	-14505.0
3	18	23	3	321	175.0	-156208.0	-1414.0	-13878.0
3	18	23	3	322	176.0	-161883.0	-1426.0	-13456.0
3	18	23	3	323	177.0	-165175.0	-1435.0	-13321.0
3	18	23	3	323	178.0	-167376.0	-1475.0	-13204.0
3	18	23	3	324	180.0	-166826.0	-1500.0	-13821.0
3	18	23	3	324	181.0	-165877.0	-1482.0	-14487.0
3	18	23	3	325	182.0	-164163.0	-1449.0	-14539.0
3	18	23	3	325	183.0	-161131.0	-1442.0	-14156.0
3	18	23	3	326	184.0	-157951.0	-1409.0	-13852.0
3	18	23	3	326	185.0	-153805.0	-1387.0	-13712.0
3	18	23	3	359	186.0	-149126.0	-1370.0	-13122.0
3	18	23	3	360	187.0	-145326.0	-1356.0	-12649.0
3	18	23	3	360	188.0	-143927.0	-1366.0	-12560.0
3	18	23	3	361	189.0	-144533.0	-1372.0	-13062.0
3	18	23	3	362	190.0	-146986.0	-1398.0	-14032.0
3	18	23	3	362	191.0	-150685.0	-1372.0	-14593.0
3	18	23	3	363	192.0	-155109.0	-1347.0	-14390.0
3	18	23	3	363	193.0	-159511.0	-1337.0	-14084.0
3	18	23	3	364	194.0	-163355.0	-1328.0	-13824.0
3	18	23	3	364	195.0	-166294.0	-1294.0	-13458.0
3	18	23	3	365	196.0	-169269.0	-1271.0	-13054.0
3	18	23	3	366	197.0	-171386.0	-1245.0	-12662.0
3	18	23	3	366	198.0	-172988.0	-1261.0	-12723.0
3	18	23	3	367	199.0	-174099.0	-1252.0	-13337.0
3	18	23	3	367	200.0	-173777.0	-1240.0	-13818.0
3	18	23	3	368	202.0	-172300.0	-1178.0	-14379.0
3	18	23	3	368	203.0	-170739.0	-1165.0	-14217.0
3	18	23	3	369	204.0	-169151.0	-1131.0	-13779.0
3	18	23	3	369	205.0	-167677.0	-1106.0	-13101.0
3	18	23	3	370	206.0	-165381.0	-1054.0	-12707.0
3	18	23	3	371	207.0	-163267.0	-1024.0	-12866.0
3	18	23	3	380	208.0	-161837.0	-1011.0	-13036.0
3	18	23	3	404	209.0	-160156.0	-1020.0	-13712.0
3	18	23	3	405	210.0	-158804.0	-1001.0	-14320.0
3	18	23	3	406	211.0	-157486.0	-954.0	-14524.0
3	18	23	3	406	212.0	-156039.0	-947.0	-14439.0
3	18	23	3	407	213.0	-155481.0	-924.0	-14168.0
3	18	23	3	407	214.0	-154809.0	-925.0	-13284.0
3	18	23	3	408	215.0	-155109.0	-939.0	-12741.0
3	18	23	3	409	216.0	-156116.0	-937.0	-12656.0
3	18	23	3	409	217.0	-157746.0	-949.0	-12652.0
3	18	23	3	410	218.0	-159764.0	-994.0	-12606.0
3	18	23	3	410	219.0	-162290.0	-1011.0	-13324.0
3	18	23	3	411	220.0	-165124.0	-1016.0	-13852.0
3	18	23	3	411	221.0	-166969.0	-1001.0	-14059.0
3	18	23	3	412	222.0	-169418.0	-976.0	-14337.0
3	18	23	3	413	223.0	-171207.0	-967.0	-13980.0
3	18	23	3	413	225.0	-174680.0	-989.0	-12928.0
3	18	23	3	414	226.0	-175396.0	-981.0	-12547.0
3	18	23	3	414	227.0	-175652.0	-974.0	-12122.0
3	18	23	3	415	228.0	-174502.0	-984.0	-12043.0
3	18	23	3	415	229.0	-173011.0	-968.0	-12656.0
3	18	23	3	416	230.0	-170727.0	-939.0	-13269.0
3	18	23	3	449	231.0	-168251.0	-901.0	-14016.0
3	18	23	3	449	232.0	-166159.0	-872.0	-14021.0
3	18	23	3	450	233.0	-163605.0	-853.0	-13351.0
3	18	23	3	450	234.0	-161282.0	-853.0	-12930.0
3	18	23	3	451	235.0	-158678.0	-854.0	-12584.0
3	18	23	3	452	236.0	-156350.0	-859.0	-12179.0
3	18	23	3	452	237.0	-153611.0	-856.0	-11841.0
3	18	23	3	453	238.0	-151787.0	-871.0	-11691.0
3	18	23	3	453	239.0	-149734.0	-884.0	-12394.0
3	18	23	3	454	240.0	-148341.0	-862.0	-13341.0
3	18	23	3	455	241.0	-146644.0	-837.0	-14071.0
3	18	23	3	455	242.0	-146402.0	-831.0	-13877.0
3	18	23	3	456	243.0	-146031.0	-798.0	-13692.0
3	18	23	3	456	244.0	-146121.0	-789.0	-13176.0
3	18	23	3	457	245.0	-146936.0	-787.0	-12552.0
3	18	23	3	457	247.0	-149032.0	-789.0	-11658.0
3	18	23	3	458	248.0	-150150.0	-786.0	-12223.0
3	18	23	3	459	249.0	-151217.0	-764.0	-12337.0
3	18	23	3	459	250.0	-152037.0	-744.0	-13012.0
3	18	23	3	460	251.0	-153393.0	-694.0	-13987.0
3	18	23	3	460	252.0	-154077.0	-666.0	-13677.0
3	18	23	3	461	253.0	-155311.0	-639.0	-13429.0
3	18	23	3	493	254.0	-155672.0	-591.0	-13166.0
3	18	23	3	494	255.0	-156629.0	-569.0	-12431.0
3	18	23	3	494	0.0	-157549.0	-539.0	-12046.0
3	18	23	3	495	1.0	-158112.0	-542.0	-12076.0
3	18	23	3	495	2.0	-158564.0	-572.0	-12099.0
3	18	23	3	496	3.0	-158690.0	-576.0	-12057.0
3	18	23	3	497	4.0	-158684.0	-576.0	-13006.0
3	18	23	3	497	5.0	-157844.0	-561.0	-13657.0
3	18	23	3	498	6.0	-157272.0	-551.0	-13198.0
3	18	23	3	498	7.0	-156899.0	-540.0	-12786.0
3	18	23	3	499	8.0	-156660.0	-544.0	-12639.0
3	18	23	3	500	9.0	-156687.0	-532.0	-11902.0
3	18	23	3	500	10.0	-157178.0	-534.0	-11441.0
3	18	23	3	501	11.0	-157175.0	-556.0	-11627.0
3	18	23	3	501	12.0	-157661.0	-583.0	-11631.0
3	18	23	3	502	14.0	-158740.0	-609.0	-12781.0
3	18	23	3	502	15.0	-159511.0	-594.0	-13279.0
3	18	23	3	503	16.0	-160471.0	-609.0	-13032.0
3	18	23	3	504	17.0	-161694.0	-602.0	-12926.0
3	18	23	3	504	18.0	-162299.0	-546.0	-12572.0
3	18	23	3	512	19.0	-162516.0	-528.0	-12025.0
3	18	23	3	539	20.0	-162536.0	-533.0	-11709.0
3	18	23	3	539	21.0	-162835.0	-562.0	-11427.0
3	18	23	3	540	22.0	-162942.0	-592.0	-11788.0
3	18	23	3	540	23.0	-163114.0	-617.0	-12212.0
3	18	23	3	541	24.0	-163126.0	-619.0	-12839.0
3	18	23	3	542	25.0	-163576.0	-636.0	-13047.0
3	18	23	3	542	26.0	-164336.0	-644.0	-12657.0
3	18	23	3	543	27.0	-165635.0	-621.0	-12394.0
3	18	23	3	543	28.0	-166975.0	-614.0	-12148.0
3	18	23	3	544	29.0	-168261.0	-615.0	-11707.0
3	18	23	3	545	30.0	-170137.0	-629.0	-11243.0
3	18	23	3	545	31.0	-171434.0	-652.0	-11095.0
3	18	23	3	546	32.0	-172844.0	-664.0	-11836.0
3	18	23	3	546	33.0	-173928.0	-668.0	-12732.0
3	18	23	3	547	34.0	-174925.0	-657.0	-13093.0
3	18	23	3	548	36.0	-175921.0	-632.0	-13173.0
3	18	23	3	548	37.0	-175537.0	-637.0	-13101.0
3	18	23	3	549	38.0	-175106.0	-614.0	-12383.0
3	18	23	3	549	39.0	-173903.0	-594.0	-11726.0
3	18	23	3	550	40.0	-171755.0	-573.0	-11414.0
3	18	23	3	551	41.0	-169304.0	-554.0	-10999.0
3	18	23	3	551	42.0	-166071.0	-549.0	-11268.0
3	18	23	3	584	43.0	-162023.0	-542.0	-12347.0
3	18	23	3	585	44.0	-158183.0	-534.0	-12516.0
3	18	23	3	585	45.0	-154246.0	-534.0	-12471.0
3	18	23	3	586	46.0	-151041.0	-521.0	-12514.0
3	18	23	3	587	47.0	-148776.0	-521.0	-12020.0
3	18	23	3	587	48.0	-147337.0	-522.0	-11456.0
3	18	23	3	588	49.0	-146391.0	-508.0	-10884.0
3	18	23	3	588	50.0	-146281.0	-517.0	-10607.0
3	18	23	3	589	51.0	-146938.0	-539.0	-10695.0
3	18	23	3	589	52.0	-147361.0	-562.0	-10967.0
3	18	23	3	590	53.0	-148197.0	-592.0	-11440.0
3	18	23	3	591	54.0	-149234.0	-587.0	-12044.0
3	18	23	3	591	55.0	-149985.0	-593.0	-12209.0
3	18	23	3	592	56.0	-151441.0	-605.0	-11867.0
3	18	23	3	592	57.0	-152787.0	-597.0	-11405.0
3	18	23	3	593	59.0	-156484.0	-612.0	-10915.0
3	18	23	3	593	60.0	-158555.0	-605.0	-10284.0
3	18	23	3	594	61.0	-161155.0	-616.0	-9945.0
3	18	23	3	595	62.0	-163829.0	-630.0	-10737.0
3	18	23	3	595	63.0	-165779.0	-661.0	-11729.0
3	18	23	3	596	64.0	-167541.0	-637.0	-12597.0
3	18	23	3	629	65.0	-168852.0	-591.0	-12954.0
3	18	23	3	630	66.0	-169457.0	-571.0	-12889.0
3	18	23	3	630	67.0	-169162.0	-585.0	-12606.0
3	18	23	3	631	68.0	-167842.0	-584.0	-12261.0
3	18	23	3	632	69.0	-166631.0	-591.0	-11481.0
3	18	23	3	632	70.0	-164952.0	-603.0	-11052.0
3	18	23	3	633	71.0	-162939.0	-589.0	-11242.0
3	18	23	3	633	72.0	-160829.0	-616.0	-11366.0
3	18	23	3	634	73.0	-158509.0	-629.0	-11651.0
3	18	23	3	635	74.0	-156097.0	-602.0	-12457.0
3	18	23	3	635	75.0	-153740.0	-577.0	-12258.0
3	18	23	3	636	76.0	-152056.0	-556.0	-11608.0
3	18	23	3	636	77.0	-150067.0	-552.0	-11221.0
3	18	23	3	637	78.0	-148496.0	-557.0	-10699.0
3	18	23	3	638	79.0	-147010.0	-530.0	-9727.0
3	18	23	3	638	81.0	-144209.0	-532.0	-9707.0
3	18	23	3	639	82.0	-143209.0	-519.0	-10161.0
3	18	23	3	639	83.0	-142346.0	-496.0	-10946.0
3	18	23	3	640	84.0	-142247.0	-447.0	-12150.0
3	18	23	3	640	85.0	-143072.0	-414.0	-12081.0
3	18	23	3	641	86.0	-144236.0	-384.0	-11477.0
3	18	23	3	720	87.0	-146572.0	-341.0	-11426.0
3	18	23	3	720	88.0	-150044.0	-302.0	-10842.0
3	18	23	3	721	89.0	-154361.0	-275.0	-9911.0
3	18	23	3	723	90.0	-158274.0	-268.0	-9479.0
3	18	23	3	723	91.0	-163254.0	-267.0	-9433.0
3	18	23	3	724	92.0	-167258.0	-291.0	-9574.0
3	18	23	3	725	93.0	-170860.0	-290.0	-10292.0
3	18	23	3	725	94.0	-173302.0	-256.0	-11219.0
3	18	23	3	726	95.0	-174464.0	-239.0	-11461.0
3	18	23	3	727	96.0	-174594.0	-236.0	-11472.0
3	18	23	3	727	97.0	-174161.0	-211.0	-10937.0
3	18	23	3	728	98.0	-172714.0	-202.0	-10504.0
3	18	23	3	728	99.0	-170676.0	-230.0	-9857.0
3	18	23	3	729	100.0	-168661.0	-237.0	-9262.0
3	18	23	3	730	101.0	-166421.0	-283.0	-9361.0
3	18	23	3	731	103.0	-162778.0	-352.0	-10924.0
3	18	23	3	732	126.0	-166371.0	-454.0	-11149.0
3	18	23	3	733	127.0	-162717.0	-459.0	-10703.0
3	18	23	3	733	128.0	-159078.0	-427.0	-9916.0
3	18	23	3	734	129.0	-156348.0	-427.0	-9312.0
3	18	23	3	735	130.0	-153503.0	-421.0	-8751.0
3	18	23	3	735	131.0	-151098.0	-410.0	-8656.0
3	18	23	3	736	132.0	-149015.0	-417.0	-9712.0
3	18	23	3	766	133.0	-147219.0	-399.0	-10962.0
3	18	23	3	766	134.0	-145715.0	-387.0	-11351.0
3	18	23	3	767	135.0	-144414.0	-389.0	-10966.0
3	18	23	3	768	136.0	-142989.0	-368.0	-10276.0
3	18	23	3	768	137.0	-142639.0	-348.0	-9391.0
3	18	23	3	769	138.0	-142714.0	-344.0	-8572.0
3	18	23	3	770	139.0	-143434.0	-344.0	-6909.0
3	18	23	3	770	140.0	-145362.0	-334.0	-5327.0
3	18	23	3	771	141.0	-148364.0	-349.0	-4711.0
3	18	23	3	771	142.0	-151384.0	-328.0	-4593.0
3	18	23	3	772	143.0	-154344.0	-301.0	-3501.0
3	18	23	3	772	144.0	-156417.0	-264.0	-2364.0
3	18	23	3	773	145.0	-158130.0	-236.0	-683.0
3	18	23	3	774	146.0	-160846.0	-209.0	-1516.0
3	18	23	3	774	147.0	-163730.0	-202.0	-7076.0
3	18	23	3	775	148.0	-166319.0	-194.0	-13501.0
3	18	23	3	775	149.0	-169274.0	-177.0	-19904.0
3	18	23	3	776	150.0	-171845.0	-166.0	-25989.0
3	18	23	3	776	151.0	-173837.0	-142.0	-32432.0
3	18	23	3	777	152.0	-175702.0	-117.0	-40336.0
3	18	23	3	778	153.0	-177354.0	-89.0	-50091.0
3	18	23	3	778	154.0	-178749.0	-54.0	-58198.0
3	18	23	3	809	155.0	-180986.0	-4.0	-64376.0
3	18	23	3	810	156.0	-182955.0	29.0	-70153.0
3	18	23	3	810	157.0	-184496.0	41.0	-74344.0
3	18	23	3	811	158.0	-185332.0	63.0	-75963.0
3	18	23	3	811	159.0	-186020.0	84.0	-75367.0
3	18	23	3	812	160.0	-184691.0	78.0	-67923.0
3	18	23	3	813	161.0	-181542.0	58.0	-55159.0
3	18	23	3	813	162.0	-175439.0	58.0	-42339.0
3	18	23	3	814	163.0	-167903.0	87.0	-34471.0
3	18	23	3	815	164.0	-158644.0	118.0	-31160.0
3	18	23	3	815	165.0	-149744.0	124.0	-26850.0
3	18	23	3	816	166.0	-142115.0	157.0	-23184.0
3	18	23	3	816	167.0	-136404.0	155.0	-19944.0
3	18	23	3	817	168.0	-132364.0	136.0	-16888.0
3	18	23	3	818	169.0	-130368.0	127.0	-14295.0
3	18	23	3	818	171.0	-130618.0	55.0	-12326.0
3	18	23	3	819	172.0	-131462.0	63.0	-11996.0
3	18	23	3	819	173.0	-132208.0	71.0	-11874.0
3	18	23	3	820	174.0	-133457.0	79.0	-11936.0
3	18	23	3	820	175.0	-138571.0	104.0	-11244.0
3	18	23	3	821	176.0	-148167.0	143.0	-10263.0
3	18	23	3	854	177.0	-157977.0	170.0	-9217.0
3	18	23	3	854	178.0	-162947.0	198.0	-8051.0
3	18	23	3	855	179.0	-162936.0	193.0	-6912.0
3	18	23	3	856	180.0	-158951.0	156.0	-6250.0
3	18	23	3	856	181.0	-153361.0	163.0	-6582.0
3	18	23	3	857	182.0	-148506.0	153.0	-7316.0
3	18	23	3	857	183.0	-148689.0	141.0	-8134.0
3	18	23	3	858	184.0	-156422.0	131.0	-7679.0
3	18	23	3	859	185.0	-168941.0	126.0	-7053.0
3	18	23	3	859	186.0	-185122.0	129.0	-6104.0
3	18	23	3	860	187.0	-202044.0	111.0	-5753.0
3	18	23	3	860	188.0	-213902.0	118.0	-4744.0
3	18	23	3	861	189.0	-218785.0	110.0	-4546.0
3	18	23	3	862	190.0	-217361.0	83.0	-4259.0
3	18	23	3	862	191.0	-209857.0	42.0	-3858.0
3	18	23	3	863	193.0	-179659.0	48.0	-5741.0
3	18	23	3	863	194.0	-164243.0	50.0	-6031.0
3	18	23	3	864	195.0	-152738.0	84.0	-5834.0
3	18	23	3	865	196.0	-144766.0	101.0	-5519.0
3	18	23	3	865	197.0	-140571.0	106.0	-4857.0
3	18	23	3	866	198.0	-139892.0	100.0	-4075.0
3	18	23	3	866	199.0	-140749.0	95.0	-3586.0
3	18	23	3	899	200.0	-141157.0	79.0	-3099.0
3	18	23	3	900	201.0	-141059.0	78.0	-3284.0
3	18	23	3	900	202.0	-140369.0	59.0	-3892.0
3	18	23	3	901	203.0	-138714.0	69.0	-5538.0
3	18	23	3	902	204.0	-137028.0	68.0	-5209.0
3	18	23	3	902	205.0	-135831.0	67.0	-4981.0
3	18	23	3	903	206.0	-135052.0	46.0	-4622.0
3	18	23	3	903	207.0	-135698.0	44.0	-4069.0
3	18	23	3	904	208.0	-137434.0	30.0	-3291.0
3	18	23	3	905	209.0	-140192.0	16.0	-2692.0
3	18	23	3	905	210.0	-143395.0	-30.0	-2261.0
3	18	23	3	906	211.0	-146822.0	-63.0	-2222.0
3	18	23	3	906	212.0	-148529.0	-67.0	-3037.0
3	18	23	3	907	213.0	-149506.0	-84.0	-4385.0
3	18	23	3	908	214.0	-150630.0	-80.0	-4371.0
3	18	23	3	908	216.0	-154962.0	-96.0	-3271.0
3	18	23	3	909	217.0	-158931.0	-107.0	-2681.0
3	18	23	3	909	218.0	-163742.0	-100.0	-1935.0
3	18	23	3	910	219.0	-168785.0	-99.0	-1145.0
3	18	23	3	911	220.0	-173046.0	-98.0	-799.0
3	18	23	3	911	221.0	-176451.0	-96.0	-1192.0
3	18	23	3	944	222.0	-178799.0	-100.0	-1592.0
3	18	23	3	945	223.0	-179709.0	-77.0	-2498.0
3	18	23	3	945	224.0	-179684.0	-56.0	-2684.0
3	18	23	3	946	225.0	-177941.0	-77.0	-2341.0
3	18	23	3	947	226.0	-175649.0	-87.0	-1326.0
3	18	23	3	947	227.0	-172965.0	-106.0	-537.0
3	18	23	3	948	228.0	-170050.0	-129.0	376.0
3	18	23	3	948	229.0	-167542.0	-171.0	1328.0
3	18	23	3	949	230.0	-165277.0	-197.0	1992.0
3	18	23	3	950	231.0	-163019.0	-226.0	1661.0
3	18	23	3	950	232.0	-160296.0	-257.0	1357.0
3	18	23	3	951	233.0	-157476.0	-258.0	954.0
3	18	23	3	951	234.0	-154257.0	-231.0	701.0
3	18	23	3	952	235.0	-151462.0	-239.0	1050.0
3	18	23	3	953	236.0	-149199.0	-237.0	1708.0
3	18	23	3	953	238.0	-147501.0	-271.0	3208.0
3	18	23	3	954	239.0	-148436.0	-277.0	4053.0
3	18	23	3	955	240.0	-150412.0	-294.0	4434.0
3	18	23	3	955	241.0	-153103.0	-284.0	4134.0
3	18	23	3	956	242.0	-155762.0	-288.0	4191.0
3	18	23	3	957	243.0	-158809.0	-276.0	3982.0
3	18	23	3	957	244.0	-161514.0	-262.0	4070.0
3	18	23	3	989	245.0	-163407.0	-254.0	4908.0
3	18	23	3	990	246.0	-164678.0	-227.0	5618.0
3	18	23	3	990	247.0	-165783.0	-228.0	6288.0
3	18	23	3	991	248.0	-166433.0	-230.0	6900.0
3	18	23	3	992	249.0	-167477.0	-267.0	7679.0
3	18	23	3	992	250.0	-168124.0	-291.0	8154.0
3	18	23	3	993	251.0	-168464.0	-338.0	7363.0
3	18	23	3	993	252.0	-168217.0	-368.0	6521.0
3	18	23	3	994	253.0	-167336.0	-331.0	6095.0
3	18	23	4	33	254.0	-166433.0	-307.0	6291.0
3	18	23	4	34	255.0	-165894.0	-327.0	6726.0
3	18	23	4	35	0.0	-165233.0	-330.0	6949.0
3	18	23	4	35	1.0	-165400.0	-302.0	7532.0
3	18	23	4	36	2.0	-165960.0	-294.0	8294.0
3	18	23	4	37	3.0	-166686.0	-302.0	8815.0
3	18	23	4	37	5.0	-168396.0	-298.0	8658.0
3	18	23	4	38	6.0	-168334.0	-304.0	7457.0
3	18	23	4	39	7.0	-167549.0	-252.0	6458.0
3	18	23	4	39	8.0	-167005.0	-208.0	6289.0
3	18	23	4	40	9.0	-165994.0	-211.0	6527.0
3	18	23	4	40	10.0	-165146.0	-228.0	6631.0
3	18	23	4	41	11.0	-164201.0	-214.0	7018.0
3	18	23	4	42	12.0	-163209.0	-205.0	7421.0
3	18	23	4	42	13.0	-162190.0	-222.0	7388.0
3	18	23	4	43	14.0	-161476.0	-239.0	6936.0
3	18	23	4	44	27.0	-162126.0	-184.0	-1439.0
3	18	23	4	44	28.0	-161928.0	-178.0	-2067.0
3	18	23	4	45	29.0	-161782.0	-178.0	-2365.0
3	18	23	4	45	30.0	-160678.0	-129.0	-2576.0
3	18	23	4	46	31.0	-159454.0	-124.0	-2580.0
3	18	23	4	47	32.0	-157469.0	-126.0	-2152.0
3	18	23	4	47	33.0	-155262.0	-126.0	-2024.0
3	18	23	4	79	34.0	-153580.0	-147.0	-2324.0
3	18	23	4	80	35.0	-152855.0	-140.0	-3275.0
3	18	23	4	80	36.0	-151972.0	-131.0	-4977.0
3	18	23	4	81	37.0	-151374.0	-126.0	-6189.0
3	18	23	4	82	38.0	-151634.0	-129.0	-6646.0
3	18	23	4	82	39.0	-152212.0	-145.0	-6666.0
3	18	23	4	83	40.0	-152811.0	-146.0	-6544.0
3	18	23	4	83	41.0	-153417.0	-131.0	-6091.0
3	18	23	4	84	42.0	-154027.0	-127.0	-5641.0
3	18	23	4	85	43.0	-154255.0	-123.0	-4835.0
3	18	23	4	85	44.0	-153650.0	-148.0	-4829.0
3	18	23	4	86	45.0	-153161.0	-179.0	-5982.0
3	18	23	4	87	46.0	-152537.0	-178.0	-7110.0
3	18	23	4	87	47.0	-152421.0	-169.0	-7871.0
3	18	23	4	88	48.0	-153004.0	-179.0	-7861.0
3	18	23	4	88	50.0	-154666.0	-174.0	-7088.0
3	18	23	4	89	51.0	-156319.0	-178.0	-6780.0
3	18	23	4	90	52.0	-158641.0	-174.0	-6703.0
3	18	23	4	90	53.0	-161191.0	-157.0	-6109.0
3	18	23	4	91	54.0	-164619.0	-154.0	-6089.0
3	18	23	4	91	55.0	-168351.0	-156.0	-7319.0
3	18	23	4	123	56.0	-172667.0	-152.0	-7753.0
3	18	23	4	124	57.0	-177876.0	-117.0	-7942.0
3	18	23	4	125	58.0	-183004.0	-89.0	-8084.0
3	18	23	4	125	59.0	-187811.0	-82.0	-7798.0
3	18	23	4	126	60.0	-191165.0	-80.0	-7328.0
3	18	23	4	127	61.0	-189566.0	-69.0	-6919.0
3	18	23	4	127	62.0	-184108.0	-71.0	-6707.0
3	18	23	4	128	63.0	-176932.0	-84.0	-6056.0
3	18	23	4	129	64.0	-170331.0	-99.0	-6416.0
3	18	23	4	130	65.0	-168182.0	-108.0	-7196.0
3	18	23	4	130	66.0	-171723.0	-103.0	-7961.0
3	18	23	4	131	67.0	-177313.0	-89.0	-8422.0
3	18	23	4	131	68.0	-179822.0	-62.0	-8760.0
3	18	23	4	132	69.0	-177124.0	-61.0	-8254.0
3	18	23	4	133	70.0	-169880.0	-26.0	-7789.0
3	18	23	4	133	72.0	-154451.0	2.0	-6630.0
3	18	23	4	134	73.0	-147236.0	-2.0	-6186.0
3	18	23	4	135	74.0	-141704.0	10.0	-6326.0
3	18	23	4	135	75.0	-138954.0	26.0	-7084.0
3	18	23	4	136	76.0	-139340.0	50.0	-8292.0
3	18	23	4	136	77.0	-141766.0	79.0	-9004.0
3	18	23	4	168	78.0	-145569.0	131.0	-8627.0
3	18	23	4	169	79.0	-149627.0	148.0	-7934.0
3	18	23	4	170	80.0	-153568.0	152.0	-8047.0
3	18	23	4	171	81.0	-156484.0	137.0	-7389.0
3	18	23	4	171	82.0	-157997.0	135.0	-6537.0
3	18	23	4	172	83.0	-159311.0	120.0	-6402.0
3	18	23	4	173	84.0	-159901.0	80.0	-6756.0
3	18	23	4	173	85.0	-160300.0	57.0	-7318.0
3	18	23	4	174	86.0	-161076.0	63.0	-8434.0
3	18	23	4	174	87.0	-161664.0	63.0	-8964.0
3	18	23	4	175	88.0	-161632.0	58.0	-8574.0
3	18	23	4	176	89.0	-160965.0	56.0	-8244.0
3	18	23	4	176	90.0	-159272.0	46.0	-7839.0
3	18	23	4	177	91.0	-157229.0	41.0	-7114.0
3	18	23	4	178	92.0	-156432.0	40.0	-5965.0
3	18	23	4	178	94.0	-158942.0	11.0	-6204.0
3	18	23	4	179	95.0	-161841.0	11.0	-6880.0
3	18	23	4	179	96.0	-165089.0	31.0	-8093.0
3	18	23	4	180	97.0	-168459.0	80.0	-8070.0
3	18	23	4	181	98.0	-171399.0	114.0	-7817.0
3	18	23	4	181	99.0	-173229.0	138.0	-7625.0
3	18	23	4	182	100.0	-173811.0	168.0	-7567.0
3	18	23	4	214	101.0	-173656.0	210.0	-6822.0
3	18	23	4	215	102.0	-173032.0	217.0	-6119.0
3	18	23	4	216	103.0	-172247.0	187.0	-5967.0
3	18	23	4	216	104.0	-172118.0	179.0	-6276.0
3	18	23	4	217	105.0	-171436.0	160.0	-6911.0
3	18	23	4	218	106.0	-170365.0	160.0	-7992.0
3	18	23	4	218	107.0	-169364.0	164.0	-8306.0
3	18	23	4	219	108.0	-167378.0	148.0	-8274.0
3	18	23	4	220	109.0	-164731.0	160.0	-7803.0
3	18	23	4	220	110.0	-162263.0	156.0	-7488.0
3	18	23	4	221	111.0	-159242.0	134.0	-7063.0
3	18	23	4	222	112.0	-156507.0	106.0	-6487.0
3	18	23	4	222	113.0	-153680.0	70.0	-5973.0
3	18	23	4	223	114.0	-150204.0	39.0	-6282.0
3	18	23	4	223	115.0	-146952.0	16.0	-7001.0
3	18	23	4	224	117.0	-140985.0	36.0	-8691.0
3	18	23	4	225	118.0	-139077.0	61.0	-8417.0
3	18	23	4	225	119.0	-137684.0	83.0	-7948.0
3	18	23	4	226	120.0	-136944.0	103.0	-7630.0
3	18	23	4	226	121.0	-136347.0	139.0	-7326.0
3	18	23	4	227	122.0	-135844.0	165.0	-6807.0
3	18	23	4	259	123.0	-135815.0	181.0	-6028.0
3	18	23	4	260	124.0	-135957.0	188.0	-6532.0
3	18	23	4	260	125.0	-136854.0	185.0	-7689.0
3	18	23	4	261	126.0	-137827.0	184.0	-8356.0
3	18	23	4	262	127.0	-139228.0	183.0	-8377.0
3	18	23	4	262	128.0	-141452.0	207.0	-8106.0
3	18	23	4	263	129.0	-143914.0	214.0	-7626.0
3	18	23	4	264	130.0	-147058.0	219.0	-6992.0
3	18	23	4	264	131.0	-150729.0	223.0	-6654.0
3	18	23	4	265	132.0	-154724.0	231.0	-6291.0
3	18	23	4	266	133.0	-158237.0	208.0	-5638.0
3	18	23	4	266	134.0	-161047.0	186.0	-6316.0
3	18	23	4	267	135.0	-163553.0	168.0	-7445.0
3	18	23	4	267	136.0	-165933.0	155.0	-8377.0
3	18	23	4	268	137.0	-167797.0	151.0	-8491.0
3	18	23	4	269	139.0	-172372.0	149.0	-7917.0
3	18	23	4	269	140.0	-174331.0	123.0	-7225.0
3	18	23	4	270	141.0	-177240.0	109.0	-6606.0
3	18	23	4	271	142.0	-179762.0	114.0	-6231.0
3	18	23	4	271	143.0	-181936.0	98.0	-5992.0
3	18	23	4	272	144.0	-183813.0	99.0	-6178.0
3	18	23	4	272	145.0	-184946.0	118.0	-7403.0
3	18	23	4	350	146.0	-186342.0	154.0	-8306.0
3	18	23	4	351	147.0	-187012.0	177.0	-8467.0
3	18	23	4	353	148.0	-187479.0	193.0	-8260.0
3	18	23	4	354	149.0	-186840.0	192.0	-7692.0
3	18	23	4	354	150.0	-185322.0	187.0	-7092.0
3	18	23	4	355	151.0	-183086.0	202.0	-6581.0
3	18	23	4	356	152.0	-180591.0	193.0	-6049.0
3	18	23	4	356	153.0	-177709.0	175.0	-6154.0
3	18	23	4	357	154.0	-174574.0	148.0	-6924.0
3	18	23	4	358	155.0	-171537.0	128.0	-7894.0
3	18	23	4	358	156.0	-167826.0	131.0	-8895.0
3	18	23	4	359	157.0	-164548.0	150.0	-9132.0
3	18	23	4	360	158.0	-161954.0	156.0	-8822.0
3	18	23	4	360	159.0	-158634.0	149.0	-8146.0
3	18	23	4	361	160.0	-154969.0	165.0	-7673.0
3	18	23	4	361	162.0	-147632.0	164.0	-6969.0
3	18	23	4	362	185.0	-175344.0	453.0	-7499.0
3	18	23	4	362	186.0	-175452.0	501.0	-8765.0
3	18	23	4	363	187.0	-174999.0	531.0	-8942.0
3	18	23	4	364	188.0	-174519.0	594.0	-8122.0
3	18	23	4	364	189.0	-173134.0	625.0	-7846.0
3	18	23	4	365	190.0	-172547.0	665.0	-7437.0
3	18	23	4	395	191.0	-171196.0	716.0	-6826.0
3	18	23	4	396	192.0	-169962.0	736.0	-6241.0
3	18	23	4	397	193.0	-168344.0	738.0	-6108.0
3	18	23	4	397	194.0	-166666.0	753.0	-7232.0
3	18	23	4	398	195.0	-164731.0	758.0	-8560.0
3	18	23	4	399	196.0	-163481.0	794.0	-9235.0
3	18	23	4	399	197.0	-162217.0	813.0	-9145.0
3	18	23	4	400	198.0	-160164.0	826.0	-8983.0
3	18	23	4	401	199.0	-158924.0	842.0	-8330.0
3	18	23	4	401	200.0	-157242.0	880.0	-7837.0
3	18	23	4	402	201.0	-155866.0	890.0	-7536.0
3	18	23	4	402	202.0	-154619.0	893.0	-7176.0
3	18	23	4	403	203.0	-153297.0	881.0	-6595.0
3	18	23	4	404	204.0	-151724.0	869.0	-7344.0
3	18	23	4	406	205.0	-150839.0	878.0	-8785.0
3	18	23	4	407	207.0	-149089.0	900.0	-9558.0
3	18	23	4	407	208.0	-148349.0	897.0	-9238.0
3	18	23	4	408	209.0	-147352.0	921.0	-8689.0
3	18	23	4	408	210.0	-146544.0	947.0	-7979.0
3	18	23	4	409	211.0	-145206.0	952.0	-7732.0
3	18	23	4	409	212.0	-144984.0	946.0	-7544.0
3	18	23	4	439	213.0	-144754.0	941.0	-6719.0
3	18	23	4	440	214.0	-145239.0	942.0	-7062.0
3	18	23	4	441	215.0	-146904.0	943.0	-8506.0
3	18	23	4	441	216.0	-148852.0	963.0	-8727.0
3	18	23	4	442	217.0	-151569.0	981.0	-8229.0
3	18	23	4	443	218.0	-154269.0	978.0	-7913.0
3	18	23	4	444	219.0	-157742.0	957.0	-7538.0
3	18	23	4	445	220.0	-160600.0	974.0	-7454.0
3	18	23	4	445	221.0	-163851.0	989.0	-7179.0
3	18	23	4	446	222.0	-167337.0	951.0	-6945.0
3	18	23	4	447	223.0	-170029.0	909.0	-7097.0
3	18	23	4	447	224.0	-172834.0	891.0	-7697.0
3	18	23	4	448	225.0	-174021.0	921.0	-8891.0
3	18	23	4	449	226.0	-174539.0	936.0	-9201.0
3	18	23	4	449	227.0	-174462.0	917.0	-9042.0
3	18	23	4	450	229.0	-172001.0	915.0	-8642.0
3	18	23	4	451	230.0	-170064.0	931.0	-8076.0
3	18	23	4	451	231.0	-168037.0	950.0	-7761.0
3	18	23	4	452	232.0	-165396.0	951.0	-6954.0
3	18	23	4	453	233.0	-162923.0	957.0	-7122.0
3	18	23	4	454	234.0	-161760.0	964.0	-7806.0
3	18	23	4	454	235.0	-160527.0	969.0	-8737.0
3	18	23	4	483	236.0	-160340.0	996.0	-9432.0
3	18	23	4	484	237.0	-161051.0	1025.0	-9466.0
3	18	23	4	485	238.0	-163082.0	1028.0	-8922.0
3	18	23	4	485	239.0	-165080.0	1013.0	-8351.0
3	18	23	4	486	240.0	-166452.0	1001.0	-7957.0
3	18	23	4	486	241.0	-168095.0	968.0	-7467.0
3	18	23	4	487	242.0	-168689.0	944.0	-6637.0
3	18	23	4	487	243.0	-168639.0	897.0	-6869.0
3	18	23	4	488	244.0	-168106.0	864.0	-7700.0
3	18	23	4	488	245.0	-166784.0	864.0	-8682.0
3	18	23	4	489	246.0	-165256.0	856.0	-9176.0
3	18	23	4	490	247.0	-164231.0	859.0	-8977.0
3	18	23	4	490	248.0	-163138.0	862.0	-8327.0
3	18	23	4	491	249.0	-162126.0	843.0	-8046.0
3	18	23	4	491	250.0	-161621.0	818.0	-8031.0
3	18	23	4	492	252.0	-158839.0	774.0	-6373.0
3	18	23	4	492	253.0	-157248.0	744.0	-6876.0
3	18	23	4	493	254.0	-155134.0	744.0	-7569.0
3	18	23	4	494	255.0	-153299.0	753.0	-8444.0
3	18	23	4	494	0.0	-151853.0	773.0	-9279.0
3	18	23	4	495	1.0	-150811.0	783.0	-9194.0
3	18	23	4	529	2.0	-150169.0	792.0	-8454.0
3	18	23	4	530	3.0	-150368.0	791.0	-7844.0
3	18	23	4	530	4.0	-150985.0	769.0	-7539.0
3	18	23	4	531	5.0	-152030.0	751.0	-7105.0
3	18	23	4	531	6.0	-153971.0	723.0	-6651.0
3	18	23	4	532	7.0	-155819.0	686.0	-6762.0
3	18	23	4	533	8.0	-157672.0	664.0	-7308.0
3	18	23	4	533	9.0	-159236.0	683.0	-8609.0
3	18	23	4	534	10.0	-160679.0	699.0	-9234.0
3	18	23	4	534	11.0	-161789.0	700.0	-9110.0
3	18	23	4	535	12.0	-162941.0	706.0	-8700.0
3	18	23	4	535	13.0	-163832.0	699.0	-8251.0
3	18	23	4	536	14.0	-164501.0	673.0	-7929.0
3	18	23	4	536	15.0	-165627.0	628.0	-7492.0
3	18	23	4	537	16.0	-166295.0	587.0	-7163.0
3	18	23	4	538	18.0	-165899.0	503.0	-7880.0
3	18	23	4	538	19.0	-165043.0	481.0	-9450.0
3	18	23	4	539	20.0	-164199.0	472.0	-9747.0
3	18	23	4	539	21.0	-162971.0	479.0	-9372.0
3	18	23	4	540	22.0	-161675.0	478.0	-8944.0
3	18	23	4	540	23.0	-159744.0	479.0	-8694.0
3	18	23	4	577	24.0	-157746.0	465.0	-8069.0
3	18	23	4	577	25.0	-156310.0	455.0	-7440.0
3	18	23	4	578	26.0	-154842.0	436.0	-7027.0
3	18	23	4	579	27.0	-154434.0	406.0	-7187.0
3	18	23	4	579	28.0	-154319.0	399.0	-8147.0
3	18	23	4	580	29.0	-155255.0	401.0	-9044.0
3	18	23	4	580	30.0	-157239.0	388.0	-8755.0
3	18	23	4	581	31.0	-159706.0	374.0	-8787.0
3	18	23	4	581	32.0	-162246.0	408.0	-9057.0
3	18	23	4	582	33.0	-164326.0	411.0	-8410.0
3	18	23	4	582	34.0	-166009.0	393.0	-7791.0
3	18	23	4	583	35.0	-166489.0	410.0	-7551.0
3	18	23	4	584	36.0	-166806.0	387.0	-7239.0
3	18	23	4	584	37.0	-166240.0	364.0	-7463.0
3	18	23	4	585	38.0	-165039.0	353.0	-8372.0
3	18	23	4	585	40.0	-162457.0	367.0	-9312.0
3	18	23	4	586	41.0	-161227.0	359.0	-9062.0
3	18	23	4	586	42.0	-159950.0	374.0	-8554.0
3	18	23	4	587	43.0	-158665.0	381.0	-7778.0
3	18	23	4	587	44.0	-157373.0	351.0	-6689.0
3	18	23	4	588	45.0	-155555.0	349.0	-5797.0
3	18	23	4	589	46.0	-154341.0	341.0	-4295.0
3	18	23	4	618	47.0	-153273.0	318.0	-2974.0
3	18	23	4	619	48.0	-152001.0	303.0	-2794.0
3	18	23	4	620	49.0	-151249.0	298.0	-2544.0
3	18	23	4	621	50.0	-151156.0	304.0	-944.0
3	18	23	4	622	51.0	-151659.0	310.0	862.0
3	18	23	4	622	52.0	-152145.0	325.0	2416.0
3	18	23	4	623	53.0	-153061.0	310.0	575.0
3	18	23	4	623	54.0	-154007.0	304.0	-4855.0
3	18	23	4	624	55.0	-155152.0	295.0	-10789.0
3	18	23	4	624	56.0	-156671.0	273.0	-17494.0
3	18	23	4	625	57.0	-158101.0	243.0	-24791.0
3	18	23	4	626	58.0	-160664.0	218.0	-32039.0
3	18	23	4	626	59.0	-163354.0	226.0	-40416.0
3	18	23	4	627	60.0	-167524.0	245.0	-48829.0
3	18	23	4	627	61.0	-172041.0	234.0	-55631.0
3	18	23	4	628	63.0	-182077.0	214.0	-68104.0
3	18	23	4	628	64.0	-186404.0	173.0	-71696.0
3	18	23	4	629	65.0	-190276.0	182.0	-72709.0
3	18	23	4	630	66.0	-192138.0	178.0	-72509.0
3	18	23	4	630	67.0	-192085.0	146.0	-66277.0
3	18	23	4	631	68.0	-188804.0	128.0	-53941.0
3	18	23	4	665	69.0	-182631.0	164.0	-41394.0
3	18	23	4	666	70.0	-174007.0	197.0	-33283.0
3	18	23	4	667	71.0	-163819.0	202.0	-29182.0
3	18	23	4	667	72.0	-153884.0	188.0	-25185.0
3	18	23	4	668	73.0	-145049.0	183.0	-21551.0
3	18	23	4	668	74.0	-138509.0	163.0	-17646.0
3	18	23	4	669	75.0	-134597.0	129.0	-14244.0
3	18	23	4	669	76.0	-133432.0	106.0	-12171.0
3	18	23	4	670	77.0	-133951.0	93.0	-11607.0
3	18	23	4	671	78.0	-135637.0	79.0	-11168.0
3	18	23	4	671	79.0	-137685.0	91.0	-10928.0
3	18	23	4	672	80.0	-139134.0	98.0	-10541.0
3	18	23	4	672	81.0	-140645.0	91.0	-10066.0
3	18	23	4	673	82.0	-144752.0	83.0	-9084.0
3	18	23	4	674	83.0	-153040.0	86.0	-8058.0
3	18	23	4	674	85.0	-163789.0	53.0	-5883.0
3	18	23	4	675	86.0	-161761.0	51.0	-5152.0
3	18	23	4	675	87.0	-155652.0	67.0	-5666.0
3	18	23	4	676	88.0	-147996.0	80.0	-6233.0
3	18	23	4	676	89.0	-141917.0	106.0	-6632.0
3	18	23	4	677	90.0	-140597.0	139.0	-6775.0
3	18	23	4	677	91.0	-147338.0	188.0	-6160.0
3	18	23	4	709	92.0	-160172.0	223.0	-5572.0
3	18	23	4	710	93.0	-177372.0	241.0	-4766.0
3	18	23	4	710	94.0	-195002.0	250.0	-3392.0
3	18	23	4	711	95.0	-207056.0	239.0	-2569.0
3	18	23	4	712	96.0	-212523.0	238.0	-2501.0
3	18	23	4	713	97.0	-211058.0	236.0	-2979.0
3	18	23	4	713	98.0	-203299.0	231.0	-4436.0
3	18	23	4	714	99.0	-189590.0	236.0	-5503.0
3	18	23	4	714	100.0	-173510.0	227.0	-5082.0
3	18	23	4	715	101.0	-159517.0	207.0	-4869.0
3	18	23	4	716	102.0	-149710.0	194.0	-4922.0
3	18	23	4	717	103.0	-144860.0	184.0	-4267.0
3	18	23	4	717	104.0	-144271.0	173.0	-3211.0
3	18	23	4	718	105.0	-146382.0	156.0	-2740.0
3	18	23	4	718	106.0	-149090.0	116.0	-2659.0
3	18	23	4	719	108.0	-150553.0	63.0	-4325.0
3	18	23	4	720	109.0	-150059.0	84.0	-5279.0
3	18	23	4	720	110.0	-149072.0	88.0	-4656.0
3	18	23	4	721	111.0	-147513.0	97.0	-4298.0
3	18	23	4	721	112.0	-145484.0	121.0	-4187.0
3	18	23	4	722	113.0	-143162.0	129.0	-3384.0
3	18	23	4	754	114.0	-140411.0	132.0	-2362.0
3	18	23	4	754	115.0	-137664.0	132.0	-2072.0
3	18	23	4	755	116.0	-135332.0	134.0	-2007.0
3	18	23	4	755	117.0	-133912.0	125.0	-2341.0
3	18	23	4	756	118.0	-133084.0	122.0	-3340.0
3	18	23	4	757	119.0	-133291.0	146.0	-3782.0
3	18	23	4	757	120.0	-134675.0	169.0	-3397.0
3	18	23	4	758	121.0	-137284.0	164.0	-3204.0
3	18	23	4	759	122.0	-141710.0	143.0	-2677.0
3	18	23	4	759	123.0	-146587.0	149.0	-1921.0
3	18	23	4	760	124.0	-152504.0	139.0	-1051.0
3	18	23	4	760	125.0	-158931.0	140.0	-470.0
3	18	23	4	761	126.0	-165139.0	122.0	-247.0
3	18	23	4	762	127.0	-170672.0	113.0	-512.0
3	18	23	4	762	128.0	-174507.0	98.0	-1229.0
3	18	23	4	763	130.0	-178353.0	141.0	-1898.0
3	18	23	4	763	131.0	-178189.0	172.0	-1481.0
3	18	23	4	764	132.0	-177568.0	185.0	-780.0
3	18	23	4	765	133.0	-176054.0	210.0	230.0
3	18	23	4	765	134.0	-174819.0	249.0	894.0
3	18	23	4	766	135.0	-173114.0	265.0	1879.0
3	18	23	4	767	136.0	-170924.0	282.0	1900.0
3	18	23	4	799	137.0	-168372.0	262.0	1441.0
3	18	23	4	800	138.0	-164461.0	251.0	783.0
3	18	23	4	800	139.0	-160438.0	266.0	123.0
3	18	23	4	801	140.0	-155726.0	296.0	263.0
3	18	23	4	802	141.0	-150911.0	304.0	1094.0
3	18	23	4	802	142.0	-146560.0	307.0	1717.0
3	18	23	4	803	143.0	-142821.0	309.0	2238.0
3	18	23	4	803	144.0	-140127.0	304.0	3086.0
3	18	23	4	804	145.0	-138990.0	271.0	4206.0
3	18	23	4	805	146.0	-139367.0	237.0	4313.0
3	18	23	4	805	147.0	-140746.0	208.0	4042.0
3	18	23	4	806	148.0	-143459.0	187.0	3525.0
3	18	23	4	806	149.0	-146840.0	210.0	3009.0
3	18	23	4	807	150.0	-151024.0	218.0	3281.0
3	18	23	4	808	151.0	-156399.0	230.0	4203.0
3	18	23	4	808	153.0	-168391.0	236.0	6049.0
3	18	23	4	809	154.0	-174472.0	253.0	6780.0
3	18	23	4	809	155.0	-179864.0	255.0	7671.0
3	18	23	4	810	156.0	-184291.0	262.0	7696.0
3	18	23	4	811	157.0	-187682.0	247.0	6961.0
3	18	23	4	811	158.0	-189547.0	269.0	6546.0
3	18	23	4	844	159.0	-190010.0	304.0	6153.0
3	18	23	4	845	160.0	-189992.0	319.0	6488.0
3	18	23	4	845	161.0	-190399.0	297.0	7121.0
3	18	23	4	846	162.0	-190804.0	279.0	7945.0
3	18	23	4	847	163.0	-191211.0	257.0	8606.0
3	18	23	4	847	164.0	-191132.0	234.0	9226.0
3	18	23	4	848	165.0	-190714.0	202.0	9951.0
3	18	23	4	849	166.0	-190085.0	178.0	9885.0
3	18	23	4	849	167.0	-188615.0	173.0	8772.0
3	18	23	4	850	168.0	-186948.0	176.0	7878.0
3	18	23	4	850	169.0	-184685.0	189.0	7363.0
3	18	23	4	851	170.0	-182199.0	174.0	7266.0
3	18	23	4	852	171.0	-179822.0	161.0	7200.0
3	18	23	4	852	172.0	-176941.0	135.0	7509.0
3	18	23	4	853	173.0	-174222.0	121.0	7917.0
3	18	23	4	854	175.0	-168152.0	77.0	8626.0
3	18	23	4	854	176.0	-164912.0	33.0	8054.0
3	18	23	4	855	177.0	-161404.0	38.0	6726.0
3	18	23	4	855	178.0	-157697.0	48.0	4887.0
3	18	23	4	856	179.0	-154542.0	58.0	3984.0
3	18	23	4	857	180.0	-151776.0	77.0	3975.0
3	18	23	4	857	181.0	-148957.0	89.0	3937.0
3	18	23	4	889	182.0	-146552.0	97.0	3842.0
3	18	23	4	889	183.0	-144394.0	93.0	3489.0
3	18	23	4	890	184.0	-142363.0	71.0	3503.0
3	18	23	4	891	185.0	-141346.0	63.0	3419.0
3	18	23	4	891	186.0	-140682.0	21.0	2412.0
3	18	23	4	892	187.0	-140659.0	-11.0	1293.0
3	18	23	4	893	188.0	-140995.0	-18.0	-634.0
3	18	23	4	893	189.0	-141940.0	11.0	-1871.0
3	18	23	4	894	190.0	-142924.0	23.0	-2112.0
3	18	23	4	894	191.0	-143701.0	-11.0	-1967.0
3	18	23	4	895	192.0	-143988.0	-25.0	-2309.0
3	18	23	4	896	193.0	-144197.0	-22.0	-2199.0
3	18	23	4	896	194.0	-144658.0	-37.0	-1838.0
3	18	23	4	897	195.0	-144784.0	-71.0	-1661.0
3	18	23	4	898	196.0	-144647.0	-84.0	-2212.0
3	18	23	4	898	198.0	-145344.0	-90.0	-4576.0
3	18	23	4	899	199.0	-146033.0	-114.0	-5616.0
3	18	23	4	899	200.0	-147612.0	-84.0	-5546.0
3	18	23	4	900	201.0	-149550.0	-42.0	-5476.0
3	18	23	4	901	202.0	-152051.0	-5.0	-5771.0
3	18	23	4	901	203.0	-155019.0	9.0	-5387.0
3	18	23	4	933	204.0	-158072.0	4.0	-4862.0
3	18	23	4	933	205.0	-162559.0	-15.0	-4773.0
3	18	23	4	934	206.0	-166444.0	-32.0	-5561.0
3	18	23	4	934	207.0	-170369.0	-48.0	-6202.0
3	18	23	4	935	208.0	-173834.0	-58.0	-7486.0
3	18	23	4	936	209.0	-175732.0	-56.0	-7665.0
3	18	23	4	936	210.0	-177058.0	-64.0	-7585.0
3	18	23	4	937	211.0	-176562.0	-72.0	-7306.0
3	18	23	4	937	212.0	-175358.0	-46.0	-6969.0
3	18	23	4	938	213.0	-174048.0	-51.0	-6629.0
3	18	23	4	939	214.0	-172975.0	-52.0	-6187.0
3	18	23	4	939	215.0	-173359.0	-72.0	-5852.0
3	18	23	4	940	216.0	-174275.0	-97.0	-6511.0
3	18	23	4	940	217.0	-176605.0	-128.0	-7539.0
3	18	23	4	941	218.0	-179171.0	-122.0	-8546.0
3	18	23	4	942	220.0	-185607.0	-115.0	-9004.0
3	18	23	4	942	221.0	-187872.0	-117.0	-8100.0
3	18	23	4	943	222.0	-189880.0	-76.0	-6872.0
3	18	23	4	944	223.0	-187110.0	-55.0	-6434.0
3	18	23	4	944	224.0	-180084.0	-51.0	-6536.0
3	18	23	4	945	225.0	-170907.0	-57.0	-6217.0
3	18	23	4	979	226.0	-161686.0	-65.0	-6653.0
3	18	23	4	980	227.0	-155131.0	-55.0	-7568.0
3	18	23	4	980	228.0	-154476.0	-24.0	-8696.0
3	18	23	4	981	229.0	-159076.0	-1.0	-9138.0
3	18	23	4	982	230.0	-164150.0	-9.0	-8916.0
3	18	23	4	982	231.0	-165527.0	-45.0	-8136.0
3	18	23	4	983	232.0	-161121.0	-32.0	-7451.0
3	18	23	4	983	233.0	-154949.0	-24.0	-7064.0
3	18	23	4	984	234.0	-149692.0	-32.0	-6793.0
3	18	23	4	985	235.0	-144394.0	-84.0	-6312.0
3	18	23	4	986	236.0	-140126.0	-110.0	-6716.0
3	18	23	4	986	237.0	-137932.0	-133.0	-7961.0
3	18	23	4	987	238.0	-138211.0	-106.0	-8772.0
3	18	23	4	988	239.0	-140895.0	-90.0	-8785.0
3	18	23	4	988	240.0	-145237.0	-91.0	-8544.0
3	18	23	4	989	243.0	-162788.0	-130.0	-7621.0
3	18	23	4	989	244.0	-167245.0	-142.0	-6767.0
3	18	23	4	990	245.0	-171082.0	-149.0	-6293.0
3	18	23	4	991	246.0	-173122.0	-158.0	-6841.0
3	18	23	4	991	247.0	-173617.0	-169.0	-7699.0
3	18	23	4	992	248.0	-173440.0	-150.0	-8512.0
3	18	23	4	992	249.0	-172138.0	-137.0	-8753.0
3	18	23	5	70	250.0	-170972.0	-124.0	-8459.0
3	18	23	5	71	251.0	-168454.0	-109.0	-8069.0
3	18	23	5	71	252.0	-164951.0	-86.0	-7352.0
3	18	23	5	72	253.0	-160737.0	-80.0	-6687.0
3	18	23	5	73	254.0	-156660.0	-115.0	-6604.0
3	18	23	5	73	255.0	-154000.0	-159.0	-6522.0
3	18	23	5	74	0.0	-153075.0	-197.0	-7017.0
3	18	23	5	75	1.0	-153708.0	-231.0	-8068.0
3	18	23	5	75	2.0	-155246.0	-215.0	-9265.0
3	18	23	5	76	3.0	-156891.0	-196.0	-9619.0
3	18	23	5	76	4.0	-158087.0	-206.0	-9399.0
3	18	23	5	77	5.0	-158742.0	-192.0	-8796.0
3	18	23	5	77	6.0	-158752.0	-189.0	-8202.0
3	18	23	5	113	7.0	-157574.0	-208.0	-7419.0
3	18	23	5	114	8.0	-156203.0	-250.0	-6989.0
3	18	23	5	115	9.0	-154964.0	-282.0	-6890.0
3	18	23	5	115	32.0	-165571.0	-452.0	-9097.0
3	18	23	5	159	33.0	-166689.0	-409.0	-9202.0
3	18	23	5	160	34.0	-168586.0	-377.0	-8979.0
3	18	23	5	161	35.0	-168867.0	-359.0	-9031.0
3	18	23	5	162	36.0	-169139.0	-343.0	-8247.0
3	18	23	5	162	37.0	-169079.0	-311.0	-7537.0
3	18	23	5	163	38.0	-167658.0	-331.0	-6978.0
3	18	23	5	163	39.0	-166232.0	-352.0	-7101.0
3	18	23	5	164	40.0	-163909.0	-366.0	-8211.0
3	18	23	5	165	41.0	-162024.0	-382.0	-9139.0
3	18	23	5	165	42.0	-159424.0	-370.0	-9676.0
3	18	23	5	166	43.0	-157408.0	-362.0	-9883.0
3	18	23	5	166	54.0	-158037.0	-401.0	-9251.0
3	18	23	5	167	55.0	-158246.0	-409.0	-8711.0
3	18	23	5	168	56.0	-157520.0	-386.0	-8199.0
3	18	23	5	168	57.0	-156832.0	-386.0	-7813.0
3	18	23	5	169	76.0	-160709.0	-209.0	-9029.0
3	18	23	5	169	77.0	-160959.0	-186.0	-8309.0
3	18	23	5	170	78.0	-161378.0	-186.0	-7692.0
3	18	23	5	171	79.0	-161714.0	-209.0	-7909.0
3	18	23	5	171	80.0	-162409.0	-211.0	-9171.0
3	18	23	5	172	81.0	-162571.0	-188.0	-10355.0
3	18	23	5	172	82.0	-162816.0	-174.0	-10719.0
3	18	23	5	205	83.0	-163146.0	-171.0	-10244.0
3	18	23	5	205	84.0	-162876.0	-172.0	-9476.0
3	18	23	5	206	85.0	-162069.0	-189.0	-9667.0
3	18	23	5	217	86.0	-160974.0	-216.0	-9196.0
3	18	23	5	217	87.0	-160052.0	-259.0	-8357.0
3	18	23	5	218	88.0	-159438.0	-287.0	-7906.0
3	18	23	5	219	89.0	-158951.0	-321.0	-8568.0
3	18	23	5	219	90.0	-159114.0	-336.0	-9211.0
3	18	23	5	220	91.0	-159429.0	-349.0	-9749.0
3	18	23	5	220	92.0	-160837.0	-349.0	-10099.0
3	18	23	5	221	93.0	-162587.0	-362.0	-10340.0
3	18	23	5	221	94.0	-164567.0	-385.0	-9922.0
3	18	23	5	222	95.0	-167405.0	-384.0	-9174.0
3	18	23	5	222	96.0	-170064.0	-362.0	-8499.0
3	18	23	5	223	97.0	-172631.0	-349.0	-7881.0
3	18	23	5	224	99.0	-176592.0	-360.0	-8358.0
3	18	23	5	224	100.0	-177786.0	-350.0	-8589.0
3	18	23	5	225	101.0	-177979.0	-325.0	-9371.0
3	18	23	5	225	102.0	-177180.0	-280.0	-10155.0
3	18	23	5	226	103.0	-176069.0	-291.0	-10049.0
3	18	23	5	226	104.0	-173784.0	-272.0	-9676.0
3	18	23	5	249	105.0	-171665.0	-237.0	-9642.0
3	18	23	5	250	106.0	-169294.0	-212.0	-8923.0
3	18	23	5	251	107.0	-167209.0	-187.0	-8226.0
3	18	23	5	251	108.0	-165491.0	-190.0	-7872.0
3	18	23	5	252	109.0	-163624.0	-202.0	-8486.0
3	18	23	5	253	110.0	-161950.0	-218.0	-9081.0
3	18	23	5	253	111.0	-160210.0	-199.0	-10123.0
3	18	23	5	254	112.0	-158741.0	-172.0	-10470.0
3	18	23	5	255	113.0	-157447.0	-161.0	-10093.0
3	18	23	5	256	114.0	-156288.0	-163.0	-9844.0
3	18	23	5	257	115.0	-155441.0	-141.0	-9467.0
3	18	23	5	258	116.0	-154241.0	-122.0	-9047.0
3	18	23	5	258	117.0	-153116.0	-127.0	-8528.0
3	18	23	5	259	118.0	-151876.0	-146.0	-8489.0
3	18	23	5	260	119.0	-149943.0	-182.0	-8801.0
3	18	23	5	260	121.0	-146650.0	-184.0	-10731.0
3	18	23	5	261	122.0	-145234.0	-144.0	-10654.0
3	18	23	5	262	123.0	-144389.0	-143.0	-10343.0
3	18	23	5	262	124.0	-143331.0	-131.0	-10205.0
3	18	23	5	263	125.0	-142969.0	-123.0	-9942.0
3	18	23	5	263	126.0	-143252.0	-108.0	-9287.0
3	18	23	5	264	127.0	-143347.0	-84.0	-8866.0
3	18	23	5	294	128.0	-143919.0	-93.0	-8377.0
3	18	23	5	295	129.0	-144714.0	-104.0	-8940.0
3	18	23	5	295	130.0	-145638.0	-127.0	-9956.0
3	18	23	5	296	131.0	-147151.0	-127.0	-11086.0
3	18	23	5	297	132.0	-149189.0	-151.0	-10937.0
3	18	23	5	297	133.0	-151736.0	-146.0	-10584.0
3	18	23	5	298	134.0	-154682.0	-134.0	-10237.0
3	18	23	5	299	135.0	-158057.0	-171.0	-9682.0
3	18	23	5	299	136.0	-160784.0	-194.0	-8847.0
3	18	23	5	300	137.0	-163330.0	-214.0	-8521.0
3	18	23	5	300	138.0	-165720.0	-232.0	-8314.0
3	18	23	5	301	139.0	-167469.0	-247.0	-8732.0
3	18	23	5	302	140.0	-169646.0	-261.0	-9465.0
3	18	23	5	302	141.0	-171091.0	-238.0	-10317.0
3	18	23	5	303	142.0	-172467.0	-234.0	-10212.0
3	18	23	5	304	144.0	-175505.0	-227.0	-10005.0
3	18	23	5	305	145.0	-177172.0	-226.0	-9680.0
3	18	23	5	306	146.0	-178240.0	-196.0	-9042.0
3	18	23	5	306	147.0	-179515.0	-181.0	-8866.0
3	18	23	5	307	148.0	-181061.0	-181.0	-8597.0
3	18	23	5	307	149.0	-181804.0	-192.0	-9197.0
3	18	23	5	338	150.0	-182324.0	-194.0	-10539.0
3	18	23	5	339	151.0	-181977.0	-167.0	-11429.0
3	18	23	5	340	152.0	-181396.0	-136.0	-11393.0
3	18	23	5	340	153.0	-180115.0	-149.0	-11166.0
3	18	23	5	341	154.0	-178121.0	-166.0	-10903.0
3	18	23	5	342	155.0	-175658.0	-163.0	-10265.0
3	18	23	5	342	156.0	-172516.0	-162.0	-9706.0
3	18	23	5	343	157.0	-169766.0	-172.0	-9281.0
3	18	23	5	344	158.0	-166343.0	-196.0	-8767.0
3	18	23	5	344	159.0	-163217.0	-216.0	-9607.0
3	18	23	5	345	160.0	-160074.0	-237.0	-10390.0
3	18	23	5	346	161.0	-157310.0	-245.0	-11408.0
3	18	23	5	346	162.0	-154989.0	-238.0	-11624.0
3	18	23	5	347	163.0	-153038.0	-244.0	-11156.0
3	18	23	5	348	164.0	-151732.0	-249.0	-10437.0
3	18	23	5	348	166.0	-150351.0	-281.0	-9602.0
3	18	23	5	349	167.0	-149699.0	-317.0	-9075.0
3	18	23	5	350	168.0	-149172.0	-357.0	-8807.0
3	18	23	5	350	169.0	-148431.0	-342.0	-9385.0
3	18	23	5	351	170.0	-147772.0	-363.0	-10484.0
3	18	23	5	351	171.0	-147351.0	-334.0	-11089.0
3	18	23	5	352	172.0	-146571.0	-327.0	-10991.0
3	18	23	5	384	173.0	-146964.0	-332.0	-10937.0
3	18	23	5	385	174.0	-148163.0	-307.0	-10461.0
3	18	23	5	385	175.0	-149276.0	-317.0	-9931.0
3	18	23	5	386	176.0	-150801.0	-330.0	-9580.0
3	18	23	5	387	177.0	-152234.0	-352.0	-8889.0
3	18	23	5	387	178.0	-154437.0	-364.0	-8623.0
3	18	23	5	388	179.0	-155932.0	-395.0	-9321.0
3	18	23	5	389	180.0	-156720.0	-429.0	-10112.0
3	18	23	5	389	181.0	-157072.0	-416.0	-10949.0
3	18	23	5	390	182.0	-157966.0	-421.0	-11050.0
3	18	23	5	391	183.0	-160356.0	-432.0	-11002.0
3	18	23	5	391	184.0	-163934.0	-452.0	-10826.0
3	18	23	5	392	185.0	-168107.0	-437.0	-10147.0
3	18	23	5	393	186.0	-172023.0	-427.0	-9199.0
3	18	23	5	393	187.0	-174977.0	-438.0	-8897.0
3	18	23	5	394	189.0	-176696.0	-476.0	-9484.0
3	18	23	5	395	190.0	-175550.0	-472.0	-10669.0
3	18	23	5	395	191.0	-173441.0	-463.0	-11607.0
3	18	23	5	396	192.0	-170928.0	-441.0	-11607.0
3	18	23	5	396	193.0	-168172.0	-414.0	-11362.0
3	18	23	5	397	194.0	-164724.0	-413.0	-11121.0
3	18	23	5	429	195.0	-161238.0	-387.0	-10666.0
3	18	23	5	429	196.0	-157609.0	-362.0	-9980.0
3	18	23	5	430	197.0	-154817.0	-353.0	-9950.0
3	18	23	5	431	198.0	-151690.0	-377.0	-9881.0
3	18	23	5	432	199.0	-149282.0	-389.0	-9810.0
3	18	23	5	432	200.0	-147280.0	-399.0	-10705.0
3	18	23	5	433	201.0	-145796.0	-377.0	-11087.0
3	18	23	5	434	202.0	-145046.0	-396.0	-10361.0
3	18	23	5	434	203.0	-144836.0	-406.0	-8730.0
3	18	23	5	435	204.0	-145027.0	-410.0	-7139.0
3	18	23	5	436	205.0	-145516.0	-432.0	-5969.0
3	18	23	5	436	206.0	-145804.0	-446.0	-4234.0
3	18	23	5	437	207.0	-146416.0	-469.0	-1839.0
3	18	23	5	437	208.0	-146792.0	-512.0	128.0
3	18	23	5	438	209.0	-147351.0	-521.0	1267.0
3	18	23	5	439	211.0	-150668.0	-487.0	-9762.0
3	18	23	5	439	212.0	-154105.0	-472.0	-15891.0
3	18	23	5	440	213.0	-158637.0	-446.0	-22629.0
3	18	23	5	440	214.0	-163947.0	-417.0	-28893.0
3	18	23	5	441	215.0	-169292.0	-381.0	-35366.0
3	18	23	5	442	216.0	-174618.0	-361.0	-42464.0
3	18	23	5	474	217.0	-179620.0	-341.0	-49682.0
3	18	23	5	475	218.0	-183652.0	-354.0	-56226.0
3	18	23	5	476	219.0	-187004.0	-341.0	-63310.0
3	18	23	5	476	220.0	-189346.0	-339.0	-70747.0
3	18	23	5	477	221.0	-191204.0	-331.0	-74554.0
3	18	23	5	478	222.0	-191856.0	-312.0	-76441.0
3	18	23	5	479	223.0	-191023.0	-309.0	-74499.0
3	18	23	5	479	224.0	-187862.0	-311.0	-64203.0
3	18	23	5	480	225.0	-181999.0	-299.0	-50387.0
3	18	23	5	481	226.0	-173539.0	-295.0	-38547.0
3	18	23	5	481	227.0	-162996.0	-324.0	-31771.0
3	18	23	5	482	228.0	-152058.0	-353.0	-29169.0
3	18	23	5	482	229.0	-141506.0	-376.0	-27676.0
3	18	23	5	483	230.0	-133104.0	-380.0	-26038.0
3	18	23	5	484	231.0	-127259.0	-356.0	-23001.0
3	18	23	5	484	233.0	-124660.0	-336.0	-17092.0
3	18	23	5	485	234.0	-127589.0	-327.0	-15335.0
3	18	23	5	486	235.0	-130945.0	-320.0	-14234.0
3	18	23	5	487	236.0	-135034.0	-326.0	-12969.0
3	18	23	5	487	237.0	-138285.0	-313.0	-11607.0
3	18	23	5	488	238.0	-140619.0	-337.0	-11038.0
3	18	23	5	488	239.0	-145637.0	-347.0	-11394.0
3	18	23	5	519	240.0	-155784.0	-343.0	-11732.0
3	18	23	5	520	241.0	-166782.0	-334.0	-12180.0
3	18	23	5	521	242.0	-172147.0	-328.0	-11796.0
3	18	23	5	522	243.0	-171553.0	-330.0	-10975.0
3	18	23	5	522	244.0	-166999.0	-336.0	-9907.0
3	18	23	5	523	245.0	-159462.0	-346.0	-9131.0
3	18	23	5	524	246.0	-151643.0	-377.0	-8533.0
3	18	23	5	524	247.0	-146756.0	-412.0	-7349.0
3	18	23	5	525	248.0	-148242.0	-435.0	-6552.0
3	18	23	5	526	249.0	-158037.0	-466.0	-7385.0
3	18	23	5	526	250.0	-176006.0	-471.0	-8566.0
3	18	23	5	527	251.0	-197488.0	-456.0	-8684.0
3	18	23	5	527	252.0	-215072.0	-474.0	-8362.0
3	18	23	5	528	253.0	-224648.0	-493.0	-7748.0
3	18	23	5	529	254.0	-226639.0	-510.0	-7136.0
3	18	23	5	529	0.0	-208131.0	-525.0	-6052.0
3	18	23	5	530	1.0	-190949.0	-546.0	-5660.0
3	18	23	5	531	2.0	-171804.0	-562.0	-5584.0
3	18	23	5	531	3.0	-153500.0	-561.0	-6188.0
3	18	23	5	532	4.0	-138580.0	-542.0	-7490.0
3	18	23	5	532	5.0	-128006.0	-521.0	-8016.0
3	18	23	5	564	6.0	-121287.0	-489.0	-7521.0
3	18	23	5	565	7.0	-117764.0	-481.0	-7255.0
3	18	23	5	566	8.0	-116876.0	-471.0	-6972.0
3	18	23	5	566	9.0	-117396.0	-459.0	-6664.0
3	18	23	5	567	10.0	-118359.0	-467.0	-6241.0
3	18	23	5	568	11.0	-118952.0	-487.0	-5677.0
3	18	23	5	568	12.0	-119197.0	-519.0	-5856.0
3	18	23	5	569	13.0	-119637.0	-524.0	-6631.0
3	18	23	5	570	14.0	-121697.0	-527.0	-7464.0
3	18	23	5	570	15.0	-125207.0	-524.0	-7768.0
3	18	23	5	571	16.0	-130144.0	-508.0	-7549.0
3	18	23	5	572	17.0	-135578.0	-519.0	-6703.0
3	18	23	5	572	18.0	-141488.0	-514.0	-6062.0
3	18	23	5	573	19.0	-147757.0	-512.0	-5494.0
3	18	23	5	574	20.0	-153198.0	-512.0	-4635.0
3	18	23	5	574	22.0	-162251.0	-576.0	-4756.0
3	18	23	5	575	23.0	-166114.0	-609.0	-5039.0
3	18	23	5	575	24.0	-170091.0	-620.0	-6134.0
3	18	23	5	576	25.0	-174084.0	-601.0	-6686.0
3	18	23	5	577	26.0	-179122.0	-584.0	-5867.0
3	18	23	5	577	27.0	-183799.0	-565.0	-5051.0
3	18	23	5	578	28.0	-187674.0	-527.0	-4686.0
3	18	23	5	610	29.0	-190320.0	-500.0	-4266.0
3	18	23	5	611	30.0	-190741.0	-496.0	-3613.0
3	18	23	5	611	31.0	-189841.0	-514.0	-2934.0
3	18	23	5	612	32.0	-186459.0	-536.0	-3009.0
3	18	23	5	613	33.0	-181284.0	-585.0	-2900.0
3	18	23	5	613	34.0	-175609.0	-584.0	-3974.0
3	18	23	5	614	35.0	-169844.0	-575.0	-4441.0
3	18	23	5	615	36.0	-164797.0	-571.0	-3893.0
3	18	23	5	615	37.0	-160654.0	-562.0	-3024.0
3	18	23	5	616	38.0	-157292.0	-526.0	-2311.0
3	18	23	5	617	39.0	-153959.0	-496.0	-1646.0
3	18	23	5	617	40.0	-150619.0	-501.0	-375.0
3	18	23	5	618	41.0	-147331.0	-497.0	159.0
3	18	23	5	619	42.0	-143969.0	-491.0	-78.0
3	18	23	5	619	43.0	-141119.0	-496.0	-536.0
3	18	23	5	620	45.0	-138185.0	-443.0	-1445.0
3	18	23	5	620	46.0	-138565.0	-429.0	-1147.0
3	18	23	5	621	47.0	-140212.0	-402.0	-559.0
3	18	23	5	621	48.0	-143077.0	-364.0	475.0
3	18	23	5	622	49.0	-146674.0	-332.0	1253.0
3	18	23	5	623	50.0	-150615.0	-298.0	1907.0
3	18	23	5	700	51.0	-154287.0	-287.0	2665.0
3	18	23	5	701	52.0	-158063.0	-270.0	2266.0
3	18	23	5	702	53.0	-161436.0	-262.0	1823.0
3	18	23	5	702	54.0	-164593.0	-241.0	1187.0
3	18	23	5	703	55.0	-167656.0	-227.0	1210.0
3	18	23	5	704	56.0	-170441.0	-212.0	1595.0
3	18	23	5	704	57.0	-172959.0	-204.0	1817.0
3	18	23	5	705	58.0	-175075.0	-174.0	2953.0
3	18	23	5	706	59.0	-177012.0	-132.0	3664.0
3	18	23	5	706	60.0	-178654.0	-122.0	3800.0
3	18	23	5	707	61.0	-179402.0	-131.0	4653.0
3	18	23	5	708	62.0	-179497.0	-122.0	4796.0
3	18	23	5	709	63.0	-179204.0	-135.0	4019.0
3	18	23	5	709	64.0	-178079.0	-115.0	3142.0
3	18	23	5	710	65.0	-176486.0	-91.0	3204.0
3	18	23	5	711	90.0	-149432.0	-69.0	-3420.0
3	18	23	5	711	91.0	-150684.0	-81.0	-3499.0
3	18	23	5	712	92.0	-153009.0	-97.0	-4467.0
3	18	23	5	713	93.0	-155972.0	-79.0	-5615.0
3	18	23	5	713	94.0	-159401.0	-60.0	-6932.0
3	18	23	5	714	95.0	-162947.0	-39.0	-7770.0
3	18	23	5	790	96.0	-166091.0	-12.0	-8074.0
3	18	23	5	791	97.0	-168453.0	7.0	-7967.0
3	18	23	5	792	98.0	-170240.0	19.0	-7983.0
3	18	23	5	792	99.0	-171414.0	29.0	-7376.0
3	18	23	5	793	100.0	-171483.0	-3.0	-6847.0
3	18	23	5	793	101.0	-171341.0	-26.0	-7183.0
3	18	23	5	794	102.0	-170770.0	-40.0	-8364.0
3	18	23	5	794	103.0	-169833.0	-58.0	-9057.0
3	18	23	5	795	104.0	-168453.0	-44.0	-10171.0
3	18	23	5	795	105.0	-166707.0	-26.0	-11103.0
3	18	23	5	796	106.0	-164534.0	-18.0	-10630.0
3	18	23	5	797	107.0	-162169.0	-9.0	-10327.0
3	18	23	5	797	108.0	-159958.0	-11.0	-10143.0
3	18	23	5	798	109.0	-157732.0	-16.0	-9831.0
3	18	23	5	798	110.0	-155864.0	-24.0	-9244.0
3	18	23	5	799	112.0	-154030.0	-61.0	-10120.0
3	18	23	5	800	135.0	-156206.0	136.0	-11436.0
3	18	23	5	800	136.0	-150982.0	166.0	-11111.0
3	18	23	5	802	137.0	-147759.0	198.0	-11119.0
3	18	23	5	802	138.0	-147431.0	223.0	-10742.0
3	18	23	5	803	139.0	-149971.0	238.0	-9923.0
3	18	23	5	803	140.0	-154137.0	247.0	-9795.0
3	18	23	5	835	141.0	-159664.0	248.0	-9457.0
3	18	23	5	835	142.0	-164942.0	264.0	-9929.0
3	18	23	5	836	143.0	-169037.0	286.0	-11471.0
3	18	23	5	837	144.0	-171538.0	287.0	-11554.0
3	18	23	5	838	145.0	-172393.0	289.0	-10877.0
3	18	23	5	838	146.0	-172214.0	305.0	-10430.0
3	18	23	5	839	147.0	-170989.0	317.0	-9872.0
3	18	23	5	839	148.0	-169249.0	373.0	-9171.0
3	18	23	5	841	149.0	-167602.0	383.0	-8778.0
3	18	23	5	842	150.0	-165714.0	374.0	-8368.0
3	18	23	5	842	151.0	-163499.0	340.0	-8486.0
3	18	23	5	843	152.0	-161642.0	313.0	-9302.0
3	18	23	5	844	153.0	-160079.0	321.0	-10460.0
3	18	23	5	845	154.0	-158013.0	345.0	-10724.0
3	18	23	5	846	155.0	-155582.0	349.0	-10491.0
3	18	23	5	846	157.0	-147674.0	385.0	-10144.0
3	18	23	5	847	158.0	-144331.0	376.0	-9679.0
3	18	23	5	847	159.0	-142313.0	376.0	-9014.0
3	18	23	5	848	160.0	-142507.0	385.0	-8549.0
3	18	23	5	848	161.0	-144344.0	387.0	-8448.0
3	18	23	5	849	162.0	-147089.0	386.0	-9181.0
3	18	23	5	849	163.0	-150104.0	398.0	-10363.0
3	18	23	5	879	164.0	-153124.0	409.0	-10726.0
3	18	23	5	880	165.0	-155372.0	425.0	-10509.0
3	18	23	5	880	166.0	-157061.0	433.0	-9927.0
3	18	23	5	881	167.0	-158287.0	430.0	-9566.0
3	18	23	5	881	168.0	-159569.0	457.0	-9096.0
3	18	23	5	882	169.0	-161038.0	521.0	-8302.0
3	18	23	5	883	170.0	-162493.0	592.0	-7771.0
3	18	23	5	883	171.0	-164077.0	643.0	-8352.0
3	18	23	5	884	172.0	-165219.0	679.0	-9447.0
3	18	23	5	884	173.0	-165414.0	738.0	-10492.0
3	18	23	5	885	174.0	-165381.0	803.0	-11420.0
3	18	23	5	886	175.0	-164721.0	873.0	-11091.0
3	18	23	5	886	176.0	-164105.0	929.0	-10550.0
3	18	23	5	887	177.0	-163449.0	993.0	-10255.0
3	18	23	5	887	178.0	-162759.0	1060.0	-9618.0
3	18	23	5	888	180.0	-161821.0	1158.0	-7852.0
3	18	23	5	888	181.0	-162054.0	1218.0	-8270.0
3	18	23	5	889	182.0	-162475.0	1273.0	-9207.0
3	18	23	5	890	183.0	-162331.0	1366.0	-10116.0
3	18	23	5	890	184.0	-161854.0	1463.0	-10183.0
3	18	23	5	891	185.0	-161338.0	1542.0	-10079.0
3	18	23	5	923	186.0	-160109.0	1628.0	-10056.0
3	18	23	5	923	187.0	-158800.0	1698.0	-9727.0
3	18	23	5	924	188.0	-157793.0	1739.0	-9390.0
3	18	23	5	925	189.0	-157170.0	1767.0	-8866.0
3	18	23	5	925	190.0	-157243.0	1789.0	-7826.0
3	18	23	5	926	191.0	-157592.0	1801.0	-8397.0
3	18	23	5	926	192.0	-158552.0	1824.0	-9176.0
3	18	23	5	927	193.0	-159935.0	1852.0	-9639.0
3	18	23	5	928	194.0	-161009.0	1883.0	-10026.0
3	18	23	5	928	195.0	-162429.0	1931.0	-10126.0
3	18	23	5	929	196.0	-163669.0	1968.0	-9520.0
3	18	23	5	929	197.0	-164309.0	1999.0	-9210.0
3	18	23	5	930	198.0	-164837.0	2035.0	-8266.0
3	18	23	5	930	199.0	-165241.0	2070.0	-7799.0
3	18	23	5	931	200.0	-165334.0	2105.0	-7506.0
3	18	23	5	932	202.0	-163542.0	2123.0	-9139.0
3	18	23	5	932	203.0	-162606.0	2153.0	-10305.0
3	18	23	5	933	204.0	-161717.0	2223.0	-10683.0
3	18	23	5	933	205.0	-161053.0	2304.0	-10232.0
3	18	23	5	934	206.0	-161319.0	2356.0	-10066.0
3	18	23	5	934	207.0	-161645.0	2401.0	-9916.0
3	18	23	6	14	208.0	-162368.0	2441.0	-9360.0
3	18	23	6	15	209.0	-163372.0	2473.0	-8763.0
3	18	23	6	16	210.0	-163714.0	2508.0	-8616.0
3	18	23	6	16	211.0	-163874.0	2508.0	-9065.0
3	18	23	6	17	212.0	-163702.0	2506.0	-9489.0
3	18	23	6	17	213.0	-163177.0	2523.0	-10596.0
3	18	23	6	18	214.0	-162571.0	2556.0	-11024.0
3	18	23	6	19	215.0	-161656.0	2576.0	-10581.0
3	18	23	6	28	216.0	-161178.0	2588.0	-10182.0
3	18	23	6	28	217.0	-160433.0	2589.0	-9900.0
3	18	23	6	29	218.0	-159409.0	2620.0	-9256.0
3	18	23	6	29	219.0	-159297.0	2643.0	-8281.0
3	18	23	6	30	220.0	-159019.0	2645.0	-8008.0
3	18	23	6	30	221.0	-158386.0	2633.0	-8356.0
3	18	23	6	31	222.0	-157553.0	2631.0	-9128.0
3	18	23	6	59	224.0	-155186.0	2646.0	-10881.0
3	18	23	6	60	247.0	-178062.0	2744.0	-9496.0
3	18	23	6	61	248.0	-178072.0	2751.0	-9246.0
3	18	23	6	77	249.0	-176892.0	2771.0	-8574.0
3	18	23	6	78	250.0	-175181.0	2776.0	-7998.0
3	18	23	6	78	251.0	-172426.0	2814.0	-8566.0
3	18	23	6	79	252.0	-168938.0	2831.0	-9688.0
3	18	23	6	79	253.0	-165237.0	2891.0	-10515.0
3	18	23	6	80	254.0	-161478.0	2922.0	-10769.0
3	18	23	6	104	255.0	-157814.0	2932.0	-10717.0
3	18	23	6	148	0.0	-154793.0	2929.0	-10295.0
3	18	23	6	148	1.0	-152616.0	2916.0	-9291.0
3	18	23	6	149	2.0	-150869.0	2939.0	-9215.0
3	18	23	6	150	3.0	-150072.0	2914.0	-8950.0
3	18	23	6	151	4.0	-150051.0	2899.0	-8227.0
3	18	23	6	151	14.0	-155109.0	2875.0	-7399.0
3	18	23	6	152	15.0	-155924.0	2864.0	-8193.0
3	18	23	6	152	16.0	-156939.0	2873.0	-9559.0
3	18	23	6	153	17.0	-158881.0	2890.0	-10291.0
3	18	23	6	154	18.0	-160819.0	2896.0	-10603.0
3	18	23	6	154	19.0	-162278.0	2879.0	-10490.0
3	18	23	6	155	20.0	-164021.0	2881.0	-9629.0
3	18	23	6	156	21.0	-165714.0	2884.0	-8920.0
3	18	23	6	156	22.0	-166874.0	2891.0	-8736.0
3	18	23	6	157	36.0	-154802.0	2729.0	-10229.0
3	18	23	6	157	58.0	-157231.0	2879.0	-10848.0
3	18	23	6	158	59.0	-156548.0	2874.0	-10532.0
3	18	23	6	159	60.0	-157411.0	2881.0	-10300.0
3	18	23	6	167	61.0	-157146.0	2899.0	-9849.0
3	18	23	6	167	62.0	-157343.0	2929.0	-9243.0
3	18	23	6	168	63.0	-157787.0	2944.0	-9006.0
3	18	23	6	168	64.0	-159117.0	2923.0	-9034.0
3	18	23	6	194	65.0	-160767.0	2906.0	-9622.0
3	18	23	6	194	66.0	-162785.0	2921.0	-10617.0
3	18	23	6	195	67.0	-164394.0	2927.0	-11333.0
3	18	23	6	196	68.0	-165198.0	2931.0	-11456.0
3	18	23	6	196	69.0	-165599.0	2929.0	-10942.0
3	18	23	6	197	70.0	-165426.0	2926.0	-10444.0
3	18	23	6	197	71.0	-164862.0	2923.0	-10091.0
3	18	23	6	198	72.0	-163906.0	2923.0	-9532.0
3	18	23	6	199	73.0	-162178.0	2921.0	-8863.0
3	18	23	6	199	74.0	-159862.0	2897.0	-8842.0
3	18	23	6	200	75.0	-157189.0	2878.0	-9941.0
3	18	23	6	200	76.0	-154738.0	2859.0	-11033.0
3	18	23	6	201	77.0	-152673.0	2868.0	-11010.0
3	18	23	6	201	78.0	-150590.0	2879.0	-11067.0
3	18	23	6	202	79.0	-148909.0	2868.0	-10637.0
3	18	23	6	203	81.0	-147311.0	2846.0	-9099.0
3	18	23	6	203	82.0	-147064.0	2853.0	-8875.0
3	18	23	6	204	83.0	-148114.0	2883.0	-9005.0
3	18	23	6	204	84.0	-150205.0	2874.0	-9082.0
3	18	23	6	205	85.0	-152828.0	2872.0	-9689.0
3	18	23	6	206	86.0	-156358.0	2888.0	-10577.0
3	18	23	6	238	87.0	-161429.0	2927.0	-11217.0
3	18	23	6	239	88.0	-166501.0	2966.0	-11444.0
3	18	23	6	239	89.0	-172096.0	3003.0	-10964.0
3	18	23	6	240	90.0	-177601.0	3028.0	-10033.0
3	18	23	6	241	91.0	-181751.0	3041.0	-9537.0
3	18	23	6	241	92.0	-184807.0	3028.0	-9316.0
3	18	23	6	242	93.0	-187418.0	3011.0	-8952.0
3	18	23	6	242	94.0	-189051.0	2983.0	-8582.0
3	18	23	6	243	95.0	-189276.0	2949.0	-9292.0
3	18	23	6	243	96.0	-188187.0	2946.0	-10366.0
3	18	23	6	259	97.0	-186486.0	2974.0	-10859.0
3	18	23	6	259	98.0	-183783.0	2989.0	-10570.0
3	18	23	6	260	99.0	-180238.0	2981.0	-9856.0
3	18	23	6	261	100.0	-176387.0	2961.0	-8573.0
3	18	23	6	261	101.0	-171982.0	2944.0	-6532.0
3	18	23	6	262	103.0	-162042.0	2884.0	-3189.0
3	18	23	6	263	104.0	-156838.0	2844.0	-1654.0
3	18	23	6	263	105.0	-151823.0	2834.0	-1071.0
3	18	23	6	264	106.0	-146805.0	2816.0	-189.0
3	18	23	6	264	107.0	-142579.0	2802.0	-966.0
3	18	23	6	265	108.0	-139001.0	2771.0	-5812.0
3	18	23	6	265	109.0	-136114.0	2748.0	-11552.0
3	18	23	6	284	110.0	-134391.0	2730.0	-19346.0
3	18	23	6	284	111.0	-133774.0	2702.0	-25730.0
3	18	23	6	285	112.0	-134664.0	2682.0	-31595.0
3	18	23	6	286	113.0	-137101.0	2654.0	-38894.0
3	18	23	6	286	114.0	-141311.0	2588.0	-48162.0
3	18	23	6	287	115.0	-147558.0	2556.0	-56376.0
3	18	23	6	287	116.0	-155162.0	2509.0	-63974.0
3	18	23	6	288	117.0	-163393.0	2513.0	-71379.0
3	18	23	6	289	118.0	-172201.0	2509.0	-75812.0
3	18	23	6	289	119.0	-180367.0	2501.0	-77768.0
3	18	23	6	290	120.0	-186618.0	2473.0	-77908.0
3	18	23	6	291	121.0	-190276.0	2471.0	-70463.0
3	18	23	6	291	122.0	-190630.0	2454.0	-57283.0
3	18	23	6	292	123.0	-187319.0	2423.0	-44657.0
3	18	23	6	292	124.0	-180947.0	2392.0	-36919.0
3	18	23	6	293	126.0	-163269.0	2373.0	-30336.0
3	18	23	6	294	127.0	-154376.0	2385.0	-28154.0
3	18	23	6	294	128.0	-146694.0	2403.0	-24674.0
3	18	23	6	295	129.0	-139749.0	2435.0	-20338.0
3	18	23	6	295	130.0	-137197.0	2448.0	-16840.0
3	18	23	6	296	131.0	-137937.0	2430.0	-14687.0
3	18	23	6	329	132.0	-135211.0	2429.0	-12989.0
3	18	23	6	330	133.0	-137271.0	2417.0	-11907.0
3	18	23	6	330	134.0	-137792.0	2388.0	-11918.0
3	18	23	6	331	135.0	-136517.0	2336.0	-11859.0
3	18	23	6	331	136.0	-140684.0	2284.0	-12195.0
3	18	23	6	332	137.0	-149499.0	2299.0	-11653.0
3	18	23	6	332	138.0	-160349.0	2288.0	-11133.0
3	18	23	6	374	139.0	-167014.0	2235.0	-10202.0
3	18	23	6	375	140.0	-168679.0	2214.0	-9267.0
3	18	23	6	375	141.0	-165714.0	2178.0	-8099.0
3	18	23	6	376	142.0	-160263.0	2159.0	-7559.0
3	18	23	6	376	143.0	-155020.0	2103.0	-7108.0
3	18	23	6	377	144.0	-153739.0	2078.0	-7165.0
3	18	23	6	378	145.0	-159121.0	2049.0	-7836.0
3	18	23	6	378	146.0	-169663.0	2039.0	-9149.0
3	18	23	6	379	148.0	-200512.0	2056.0	-8610.0
3	18	23	6	380	149.0	-216336.0	2050.0	-7872.0
3	18	23	6	380	150.0	-228307.0	2058.0	-7019.0
3	18	23	6	381	151.0	-234325.0	2076.0	-6145.0
3	18	23	6	382	152.0	-232323.0	2061.0	-5383.0
3	18	23	6	382	153.0	-221247.0	2015.0	-5071.0
3	18	23	6	383	154.0	-201780.0	1990.0	-5284.0
3	18	23	6	384	155.0	-176774.0	1955.0	-6222.0
3	18	23	6	385	171.0	-135941.0	1718.0	-4787.0
3	18	23	6	386	172.0	-151766.0	1733.0	-4090.0
3	18	23	6	386	173.0	-165992.0	1762.0	-3772.0
3	18	23	6	387	174.0	-177714.0	1778.0	-4141.0
3	18	23	6	388	175.0	-186321.0	1801.0	-4499.0
3	18	23	6	388	176.0	-191536.0	1849.0	-5021.0
3	18	23	6	419	177.0	-194951.0	1896.0	-5214.0
3	18	23	6	419	178.0	-196906.0	1946.0	-4917.0
3	18	23	6	420	179.0	-197947.0	1976.0	-3999.0
3	18	23	6	421	180.0	-198728.0	1987.0	-3330.0
3	18	23	6	422	181.0	-199546.0	1994.0	-3001.0
3	18	23	6	422	182.0	-199663.0	1993.0	-2505.0
3	18	23	6	423	183.0	-198857.0	2003.0	-2004.0
3	18	23	6	423	184.0	-196830.0	1989.0	-2481.0
3	18	23	6	424	185.0	-192855.0	1973.0	-3184.0
3	18	23	6	425	186.0	-187504.0	2006.0	-3542.0
3	18	23	6	425	187.0	-181299.0	2028.0	-3676.0
3	18	23	6	426	188.0	-174427.0	2030.0	-3096.0
3	18	23	6	427	189.0	-167561.0	2043.0	-2401.0
3	18	23	6	427	190.0	-160713.0	2040.0	-1982.0
3	18	23	6	428	191.0	-153914.0	2032.0	-1230.0
3	18	23	6	428	193.0	-142399.0	2024.0	270.0
3	18	23	6	429	194.0	-137797.0	2044.0	-425.0
3	18	23	6	430	195.0	-134141.0	2064.0	-811.0
3	18	23	6	430	196.0	-131457.0	2093.0	-1404.0
3	18	23	6	431	197.0	-129995.0	2127.0	-1473.0
3	18	23	6	431	198.0	-129826.0	2145.0	-676.0
3	18	23	6	480	199.0	-130853.0	2163.0	558.0
3	18	23	6	496	200.0	-132547.0	2204.0	1013.0
3	18	23	6	499	201.0	-134984.0	2216.0	1643.0
3	18	23	6	502	202.0	-138880.0	2213.0	2559.0
3	18	23	6	505	203.0	-143181.0	2193.0	3111.0
3	18	23	6	508	204.0	-148318.0	2153.0	2469.0
3	18	23	6	511	205.0	-153834.0	2123.0	1956.0
3	18	23	6	514	206.0	-159141.0	2111.0	1654.0
3	18	23	6	517	207.0	-164539.0	2108.0	1551.0
3	18	23	6	518	208.0	-169301.0	2116.0	2159.0
3	18	23	6	519	209.0	-173414.0	2093.0	2664.0
3	18	23	6	520	210.0	-176599.0	2070.0	3141.0
3	18	23	6	520	211.0	-178652.0	2068.0	3852.0
3	18	23	6	521	212.0	-179976.0	2048.0	4667.0
3	18	23	6	522	213.0	-180598.0	2027.0	4908.0
3	18	23	6	522	223.0	-163961.0	1949.0	5288.0
3	18	23	6	523	230.0	-153867.0	1951.0	2646.0
3	18	23	6	524	231.0	-152881.0	1971.0	2928.0
3	18	23	6	524	232.0	-152762.0	1980.0	2867.0
3	18	23	6	525	233.0	-152588.0	1971.0	2126.0
3	18	23	6	526	234.0	-152468.0	1959.0	1159.0
3	18	23	6	527	235.0	-152061.0	1968.0	16.0
3	18	23	6	527	236.0	-150969.0	2010.0	-1384.0
3	18	23	6	528	237.0	-149304.0	2023.0	-1596.0
3	18	23	6	529	238.0	-147280.0	2019.0	-1230.0
3	18	23	6	529	239.0	-144744.0	2006.0	-1585.0
3	18	23	6	530	240.0	-142297.0	2034.0	-1765.0
3	18	23	6	531	241.0	-140206.0	2041.0	-1763.0
3	18	23	6	531	242.0	-137978.0	2023.0	-2011.0
3	18	23	6	532	243.0	-136119.0	1988.0	-2595.0
3	18	23	6	532	244.0	-135004.0	1967.0	-3527.0
3	18	23	6	533	245.0	-134641.0	1967.0	-4902.0
3	18	23	6	534	246.0	-135166.0	1993.0	-6288.0
3	18	23	6	534	247.0	-136567.0	2006.0	-6482.0
3	18	23	6	544	248.0	-138328.0	2007.0	-6274.0
3	18	23	6	545	249.0	-140139.0	2008.0	-6472.0
3	18	23	6	546	250.0	-142297.0	2003.0	-6806.0
3	18	23	6	546	251.0	-144409.0	1960.0	-6671.0
3	18	23	6	547	252.0	-146462.0	1938.0	-6726.0
3	18	23	6	575	253.0	-148189.0	1923.0	-7152.0
3	18	23	6	575	254.0	-150060.0	1888.0	-7974.0
3	18	23	6	576	255.0	-152208.0	1854.0	-9255.0
3	18	23	6	577	0.0	-154696.0	1863.0	-10307.0
3	18	23	6	577	1.0	-157742.0	1837.0	-10996.0
3	18	23	6	578	2.0	-161024.0	1823.0	-10725.0
3	18	23	6	578	3.0	-164354.0	1814.0	-10251.0
3	18	23	6	579	4.0	-167432.0	1776.0	-9715.0
3	18	23	6	580	5.0	-169844.0	1741.0	-9395.0
3	18	23	6	580	6.0	-170827.0	1739.0	-9126.0
3	18	23	6	598	7.0	-170492.0	1731.0	-9229.0
3	18	23	6	599	8.0	-169534.0	1751.0	-10779.0
3	18	23	6	599	9.0	-167916.0	1761.0	-12054.0
3	18	23	6	600	10.0	-164856.0	1767.0	-12422.0
3	18	23	6	600	11.0	-163014.0	1761.0	-12507.0
3	18	23	6	601	12.0	-163252.0	1738.0	-12256.0
3	18	23	6	602	13.0	-165793.0	1718.0	-11622.0
3	18	23	6	602	14.0	-170642.0	1724.0	-11141.0
3	18	23	6	603	15.0	-176784.0	1703.0	-10856.0
3	18	23	6	603	16.0	-183312.0	1687.0	-10262.0
3	18	23	6	604	17.0	-189914.0	1676.0	-10715.0
3	18	23	6	604	18.0	-196159.0	1678.0	-11933.0
3	18	23	6	605	19.0	-201776.0	1668.0	-12905.0
3	18	23	6	606	20.0	-207060.0	1669.0	-13627.0
3	18	23	6	606	21.0	-209612.0	1714.0	-13670.0
3	18	23	6	607	22.0	-206686.0	1733.0	-13054.0
3	18	23	6	607	23.0	-198191.0	1741.0	-12446.0
3	18	23	6	608	24.0	-187091.0	1746.0	-12014.0
3	18	23	6	608	25.0	-178611.0	1751.0	-11774.0
3	18	23	6	609	26.0	-174816.0	1738.0	-10886.0
3	18	23	6	627	27.0	-175114.0	1683.0	-10813.0
3	18	23	6	628	28.0	-177421.0	1658.0	-11522.0
3	18	23	6	628	29.0	-176556.0	1649.0	-12974.0
3	18	23	6	629	30.0	-170161.0	1640.0	-13429.0
3	18	23	6	630	31.0	-161496.0	1633.0	-13548.0
3	18	23	6	630	32.0	-154486.0	1650.0	-12999.0
3	18	23	6	631	33.0	-148888.0	1651.0	-12561.0
3	18	23	6	631	34.0	-143705.0	1641.0	-12042.0
3	18	23	6	632	35.0	-140284.0	1624.0	-11379.0
3	18	23	6	633	36.0	-140497.0	1640.0	-11020.0
3	18	23	6	633	37.0	-143994.0	1631.0	-11339.0
3	18	23	6	634	38.0	-149574.0	1632.0	-11851.0
3	18	23	6	634	39.0	-156899.0	1633.0	-13066.0
3	18	23	6	635	40.0	-164694.0	1631.0	-13666.0
3	18	23	6	636	41.0	-171322.0	1663.0	-13766.0
3	18	23	6	636	42.0	-175951.0	1674.0	-13586.0
3	18	23	6	650	43.0	-178147.0	1696.0	-13119.0
3	18	23	6	676	44.0	-178969.0	1725.0	-12741.0
3	18	23	6	676	45.0	-178613.0	1743.0	-12241.0
3	18	23	6	677	46.0	-177740.0	1721.0	-11624.0
3	18	23	6	678	47.0	-176222.0	1679.0	-11588.0
3	18	23	6	679	48.0	-174748.0	1666.0	-12246.0
3	18	23	6	679	49.0	-173509.0	1646.0	-13439.0
3	18	23	6	680	50.0	-172686.0	1642.0	-14341.0
3	18	23	6	681	51.0	-172373.0	1647.0	-14307.0
3	18	23	6	681	52.0	-172757.0	1643.0	-13846.0
3	18	23	6	682	53.0	-173277.0	1641.0	-13306.0
3	18	23	6	682	54.0	-173272.0	1633.0	-12766.0
3	18	23	6	683	55.0	-171348.0	1611.0	-12267.0
3	18	23	6	684	56.0	-167872.0	1594.0	-12173.0
3	18	23	6	684	57.0	-164450.0	1561.0	-12592.0
3	18	23	6	685	58.0	-161561.0	1559.0	-12581.0
3	18	23	6	686	59.0	-160262.0	1562.0	-13657.0
3	18	23	6	686	65.0	-175059.0	1493.0	-11472.0
3	18	23	6	687	66.0	-176894.0	1460.0	-11024.0
3	18	23	6	687	67.0	-178030.0	1431.0	-11694.0
3	18	23	6	688	68.0	-178051.0	1385.0	-12443.0
3	18	23	6	689	69.0	-176627.0	1403.0	-13764.0
3	18	23	6	689	70.0	-174456.0	1457.0	-13857.0
3	18	23	6	690	71.0	-170832.0	1459.0	-13701.0
3	18	23	6	691	72.0	-166071.0	1439.0	-13383.0
3	18	23	6	703	73.0	-160917.0	1425.0	-13251.0
3	18	23	6	704	74.0	-155694.0	1424.0	-12646.0
3	18	23	6	705	75.0	-151177.0	1407.0	-11938.0
3	18	23	6	705	76.0	-147307.0	1347.0	-11492.0
3	18	23	6	706	77.0	-144233.0	1320.0	-11834.0
3	18	23	6	707	78.0	-142265.0	1293.0	-12797.0
3	18	23	6	707	79.0	-141521.0	1257.0	-13849.0
3	18	23	6	708	80.0	-141582.0	1255.0	-14183.0
3	18	23	6	722	81.0	-142386.0	1267.0	-13834.0
3	18	23	6	723	82.0	-143859.0	1253.0	-13494.0
3	18	23	6	723	83.0	-145699.0	1251.0	-12677.0
3	18	23	6	724	84.0	-147684.0	1233.0	-12480.0
3	18	23	6	724	85.0	-149850.0	1208.0	-12416.0
3	18	23	6	725	86.0	-151930.0	1151.0	-11861.0
3	18	23	6	726	87.0	-153863.0	1089.0	-12543.0
3	18	23	6	726	88.0	-155799.0	1068.0	-13620.0
3	18	23	6	746	89.0	-157807.0	1080.0	-14547.0
3	18	23	6	746	90.0	-159813.0	1089.0	-14240.0
3	18	23	6	747	91.0	-161734.0	1104.0	-14396.0
3	18	23	6	748	92.0	-163372.0	1090.0	-14063.0
3	18	23	6	748	93.0	-164989.0	1069.0	-13152.0
3	18	23	6	749	94.0	-166284.0	1057.0	-12447.0
3	18	23	6	750	95.0	-167380.0	1038.0	-12312.0
3	18	23	6	750	96.0	-168259.0	1000.0	-11743.0
3	18	23	6	751	97.0	-168814.0	967.0	-12080.0
3	18	23	6	751	98.0	-169207.0	953.0	-13277.0
3	18	23	6	752	99.0	-169288.0	954.0	-14297.0
3	18	23	6	753	100.0	-169199.0	941.0	-14284.0
3	18	23	6	753	101.0	-168947.0	916.0	-14325.0
3	18	23	6	754	102.0	-168046.0	924.0	-13949.0
3	18	23	6	754	103.0	-166636.0	929.0	-13466.0
3	18	23	6	778	104.0	-165187.0	938.0	-13115.0
3	18	23	6	779	105.0	-163650.0	919.0	-12654.0
3	18	23	6	780	106.0	-162104.0	878.0	-12120.0
3	18	23	6	781	107.0	-160566.0	842.0	-12687.0
3	18	23	6	781	108.0	-158858.0	816.0	-13616.0
3	18	23	6	782	109.0	-157099.0	819.0	-14955.0
3	18	23	6	783	110.0	-155224.0	798.0	-15242.0
3	18	23	6	783	111.0	-153112.0	806.0	-14994.0
3	18	23	6	784	112.0	-151162.0	806.0	-14498.0
3	18	23	6	785	113.0	-149439.0	794.0	-13736.0
3	18	23	6	786	114.0	-147966.0	798.0	-13068.0
3	18	23	6	786	115.0	-146241.0	800.0	-12546.0
3	18	23	6	787	116.0	-144616.0	761.0	-12227.0
3	18	23	6	788	117.0	-143352.0	758.0	-12572.0
3	18	23	6	788	118.0	-142558.0	747.0	-13701.0
3	18	23	6	789	119.0	-142258.0	795.0	-14703.0
3	18	23	6	790	120.0	-142360.0	816.0	-14782.0
3	18	23	6	790	121.0	-142654.0	806.0	-14476.0
3	18	23	6	798	122.0	-143452.0	803.0	-13852.0
3	18	23	6	799	123.0	-144722.0	836.0	-13796.0
3	18	23	6	823	124.0	-146412.0	845.0	-13413.0
3	18	23	6	824	125.0	-148747.0	819.0	-12695.0
3	18	23	6	826	126.0	-152024.0	806.0	-12175.0
3	18	23	6	826	127.0	-155848.0	780.0	-13534.0
3	18	23	6	827	128.0	-159559.0	769.0	-14229.0
3	18	23	6	828	129.0	-163481.0	805.0	-14889.0
3	18	23	6	828	130.0	-167789.0	819.0	-15281.0
3	18	23	6	829	131.0	-171907.0	820.0	-14986.0
3	18	23	6	829	132.0	-175778.0	825.0	-14126.0
3	18	23	6	830	133.0	-179583.0	854.0	-13376.0
3	18	23	6	830	134.0	-182948.0	822.0	-12932.0
3	18	23	6	831	135.0	-185490.0	757.0	-12374.0
3	18	23	6	832	136.0	-187079.0	706.0	-12547.0
3	18	23	6	839	137.0	-187937.0	639.0	-13604.0
3	18	23	6	841	138.0	-187622.0	591.0	-14229.0
3	18	23	6	841	139.0	-186289.0	564.0	-14947.0
3	18	23	6	842	140.0	-184137.0	561.0	-15424.0
3	18	23	6	843	141.0	-181010.0	578.0	-14765.0
3	18	23	6	843	142.0	-177162.0	535.0	-14050.0
3	18	23	6	844	143.0	-172525.0	502.0	-13315.0
3	18	23	6	844	144.0	-167966.0	484.0	-13098.0
3	18	23	6	845	145.0	-163747.0	429.0	-12800.0
3	18	23	6	846	146.0	-159484.0	377.0	-12743.0
3	18	23	6	846	147.0	-155131.0	325.0	-13299.0
3	18	23	6	854	148.0	-150764.0	286.0	-14481.0
3	18	23	6	855	149.0	-146293.0	309.0	-15407.0
3	18	23	6	855	150.0	-142031.0	306.0	-15478.0
3	18	23	6	856	151.0	-138361.0	263.0	-14737.0
3	18	23	6	856	152.0	-135650.0	236.0	-14386.0
3	18	23	6	857	153.0	-133756.0	201.0	-14281.0
3	18	23	6	858	154.0	-132704.0	141.0	-13549.0
3	18	23	6	858	155.0	-132948.0	111.0	-13101.0
3	18	23	6	914	156.0	-134416.0	84.0	-12997.0
3	18	23	6	915	157.0	-136712.0	59.0	-13686.0
3	18	23	6	915	158.0	-139259.0	36.0	-15009.0
3	18	23	6	937	159.0	-141896.0	25.0	-15806.0
3	18	23	6	937	160.0	-144849.0	50.0	-15737.0
3	18	23	6	938	161.0	-148222.0	28.0	-15272.0
3	18	23	6	938	162.0	-151621.0	9.0	-15272.0
3	18	23	6	939	163.0	-155473.0	6.0	-14544.0
3	18	23	6	939	164.0	-159087.0	11.0	-13441.0
3	18	23	6	940	165.0	-162527.0	-11.0	-12890.0
3	18	23	6	941	166.0	-166061.0	-24.0	-12899.0
3	18	23	6	941	167.0	-169081.0	-61.0	-13426.0
3	18	23	6	942	168.0	-171485.0	-116.0	-14792.0
3	18	23	6	942	169.0	-173492.0	-130.0	-15364.0
3	18	23	6	943	170.0	-175467.0	-125.0	-15126.0
3	18	23	6	943	171.0	-177365.0	-109.0	-14927.0
3	18	23	6	944	184.0	-163568.0	-371.0	-13329.0
3	18	23	6	944	185.0	-160307.0	-377.0	-12969.0
3	18	23	6	945	186.0	-156618.0	-402.0	-13138.0
3	18	23	6	946	192.0	-146513.0	-529.0	-14721.0
3	18	23	6	946	193.0	-147721.0	-529.0	-14629.0
3	18	23	6	947	194.0	-149619.0	-539.0	-14216.0
3	18	23	6	947	195.0	-151622.0	-554.0	-13207.0
3	18	23	6	948	196.0	-153757.0	-591.0	-13157.0
3	18	23	6	948	197.0	-155702.0	-594.0	-14167.0
3	18	23	6	949	198.0	-157372.0	-602.0	-15115.0
3	18	23	6	949	199.0	-158750.0	-587.0	-15471.0
3	18	23	6	961	200.0	-159512.0	-599.0	-15277.0
3	18	23	6	961	201.0	-159654.0	-627.0	-14404.0
3	18	23	6	962	202.0	-159216.0	-648.0	-13706.0
3	18	23	6	963	203.0	-158124.0	-658.0	-13249.0
3	18	23	6	963	204.0	-156906.0	-699.0	-12781.0
3	18	23	6	964	205.0	-155801.0	-742.0	-12387.0
3	18	23	6	964	206.0	-154889.0	-787.0	-12919.0
3	18	23	6	965	207.0	-154869.0	-842.0	-14235.0
3	18	23	6	965	208.0	-155656.0	-856.0	-14875.0
3	18	23	7	3	209.0	-157261.0	-814.0	-15296.0
3	18	23	7	4	210.0	-159226.0	-794.0	-15730.0
3	18	23	7	4	211.0	-161447.0	-818.0	-15465.0
3	18	23	7	5	212.0	-163921.0	-851.0	-14556.0
3	18	23	7	6	213.0	-166327.0	-848.0	-13922.0
3	18	23	7	6	214.0	-168261.0	-855.0	-13376.0
3	18	23	7	7	215.0	-169833.0	-901.0	-13049.0
3	18	23	7	7	216.0	-170661.0	-934.0	-13246.0
3	18	23	7	8	217.0	-170628.0	-956.0	-14157.0
3	18	23	7	9	218.0	-169888.0	-950.0	-15237.0
3	18	23	7	9	219.0	-168634.0	-918.0	-15554.0
3	18	23	7	10	220.0	-166834.0	-890.0	-15615.0
3	18	23	7	10	221.0	-164638.0	-887.0	-15159.0
3	18	23	7	11	222.0	-162501.0	-890.0	-14490.0
3	18	23	7	12	223.0	-160408.0	-884.0	-13926.0
3	18	23	7	12	224.0	-158500.0	-875.0	-13360.0
3	18	23	7	13	229.0	-161019.0	-939.0	-16249.0
3	18	23	7	13	230.0	-162822.0	-938.0	-15894.0
3	18	23	7	14	231.0	-164178.0	-922.0	-15193.0
3	18	23	7	22	232.0	-165122.0	-914.0	-15117.0
3	18	23	7	22	233.0	-165948.0	-907.0	-14632.0
3	18	23	7	23	234.0	-166447.0	-936.0	-13912.0
3	18	23	7	23	235.0	-166774.0	-962.0	-12971.0
3	18	23	7	24	236.0	-166401.0	-954.0	-13466.0
3	18	23	7	24	237.0	-165006.0	-1001.0	-14412.0
3	18	23	7	45	238.0	-162707.0	-997.0	-15899.0
3	18	23	7	46	239.0	-159927.0	-988.0	-16254.0
3	18	23	7	47	240.0	-157100.0	-1006.0	-15787.0
3	18	23	7	47	241.0	-154341.0	-1014.0	-15814.0
3	18	23	7	48	242.0	-151757.0	-1020.0	-15432.0
3	18	23	7	48	243.0	-150185.0	-1022.0	-14642.0
3	18	23	7	49	244.0	-149335.0	-1034.0	-13864.0
3	18	23	7	49	245.0	-148875.0	-1036.0	-13193.0
3	18	23	7	50	246.0	-148602.0	-1035.0	-13751.0
3	18	23	7	51	247.0	-148794.0	-1075.0	-14081.0
3	18	23	7	51	248.0	-149307.0	-1082.0	-14837.0
3	18	23	7	52	249.0	-150106.0	-1099.0	-14619.0
3	18	23	7	52	250.0	-150978.0	-1106.0	-13598.0
3	18	23	7	53	251.0	-151802.0	-1114.0	-12141.0
3	18	23	7	53	252.0	-152608.0	-1126.0	-10895.0
3	18	23	7	69	253.0	-153280.0	-1122.0	-9654.0
3	18	23	7	70	254.0	-154302.0	-1134.0	-7637.0
3	18	23	7	71	255.0	-155227.0	-1176.0	-5561.0
3	18	23	7	71	0.0	-156246.0	-1230.0	-4659.0
3	18	23	7	72	1.0	-157062.0	-1251.0	-3756.0
3	18	23	7	72	2.0	-157531.0	-1267.0	-6188.0
3	18	23	7	73	3.0	-158514.0	-1259.0	-11858.0
3	18	23	7	73	4.0	-159887.0	-1244.0	-18207.0
3	18	23	7	93	5.0	-161035.0	-1229.0	-25111.0
3	18	23	7	93	6.0	-162067.0	-1208.0	-31337.0
3	18	23	7	94	7.0	-162837.0	-1201.0	-37228.0
3	18	23	7	94	8.0	-164102.0	-1206.0	-44492.0
3	18	23	7	95	9.0	-165546.0	-1209.0	-52798.0
3	18	23	7	96	10.0	-167257.0	-1219.0	-61174.0
3	18	23	7	96	11.0	-169459.0	-1233.0	-68998.0
3	18	23	7	124	12.0	-171801.0	-1191.0	-77842.0
3	18	23	7	125	13.0	-174252.0	-1134.0	-83083.0
3	18	23	7	125	14.0	-176390.0	-1111.0	-85042.0
3	18	23	7	126	15.0	-177086.0	-1114.0	-85326.0
3	18	23	7	127	16.0	-175624.0	-1121.0	-77666.0
3	18	23	7	127	17.0	-172127.0	-1139.0	-64022.0
3	18	23	7	128	18.0	-166241.0	-1128.0	-50470.0
3	18	23	7	128	19.0	-158657.0	-1166.0	-41507.0
3	18	23	7	129	20.0	-150784.0	-1195.0	-37374.0
3	18	23	7	130	21.0	-143759.0	-1189.0	-33600.0
3	18	23	7	130	22.0	-138133.0	-1189.0	-30645.0
3	18	23	7	141	23.0	-134980.0	-1187.0	-27228.0
3	18	23	7	141	24.0	-133619.0	-1187.0	-23784.0
3	18	23	7	142	25.0	-134178.0	-1196.0	-21195.0
3	18	23	7	143	26.0	-135696.0	-1219.0	-19345.0
3	18	23	7	143	33.0	-171242.0	-1262.0	-15301.0
3	18	23	7	144	34.0	-174157.0	-1232.0	-14393.0
3	18	23	7	144	35.0	-170525.0	-1207.0	-13989.0
3	18	23	7	145	36.0	-162123.0	-1191.0	-13239.0
3	18	23	7	146	37.0	-152381.0	-1178.0	-12027.0
3	18	23	7	146	38.0	-145868.0	-1153.0	-11043.0
3	18	23	7	147	39.0	-148052.0	-1190.0	-10214.0
3	18	23	7	147	40.0	-158961.0	-1209.0	-10398.0
3	18	23	7	148	41.0	-176099.0	-1236.0	-11087.0
3	18	23	7	148	42.0	-196190.0	-1205.0	-11876.0
3	18	23	7	149	43.0	-214714.0	-1187.0	-11684.0
3	18	23	7	149	44.0	-227239.0	-1174.0	-11244.0
3	18	23	7	164	45.0	-231238.0	-1169.0	-10975.0
3	18	23	7	165	46.0	-226771.0	-1181.0	-10292.0
3	18	23	7	165	47.0	-213784.0	-1206.0	-9472.0
3	18	23	7	190	48.0	-194569.0	-1236.0	-9014.0
3	18	23	7	190	49.0	-173719.0	-1260.0	-9211.0
3	18	23	7	191	50.0	-155357.0	-1266.0	-9887.0
3	18	23	7	191	51.0	-141884.0	-1291.0	-10787.0
3	18	23	7	192	52.0	-133619.0	-1309.0	-11535.0
3	18	23	7	192	53.0	-129471.0	-1307.0	-11799.0
3	18	23	7	193	54.0	-127606.0	-1302.0	-11148.0
3	18	23	7	194	55.0	-126680.0	-1329.0	-10558.0
3	18	23	7	194	56.0	-126194.0	-1317.0	-10017.0
3	18	23	7	195	57.0	-125329.0	-1310.0	-9621.0
3	18	23	7	195	58.0	-123513.0	-1301.0	-9177.0
3	18	23	7	196	59.0	-120662.0	-1302.0	-8622.0
3	18	23	7	196	60.0	-117407.0	-1325.0	-9221.0
3	18	23	7	197	61.0	-115069.0	-1347.0	-10034.0
3	18	23	7	197	62.0	-114552.0	-1352.0	-10742.0
3	18	23	7	198	63.0	-116491.0	-1358.0	-10766.0
3	18	23	7	229	64.0	-121319.0	-1344.0	-10513.0
3	18	23	7	229	65.0	-127798.0	-1321.0	-9722.0
3	18	23	7	230	66.0	-134543.0	-1321.0	-9331.0
3	18	23	7	231	67.0	-140974.0	-1327.0	-8706.0
3	18	23	7	231	68.0	-146004.0	-1332.0	-7918.0
3	18	23	7	251	69.0	-149862.0	-1362.0	-7441.0
3	18	23	7	252	70.0	-152807.0	-1364.0	-8133.0
3	18	23	7	253	71.0	-155534.0	-1372.0	-8769.0
3	18	23	7	253	72.0	-159141.0	-1350.0	-9351.0
3	18	23	7	254	73.0	-163898.0	-1331.0	-8951.0
3	18	23	7	254	74.0	-169444.0	-1321.0	-8122.0
3	18	23	7	255	75.0	-175645.0	-1307.0	-7536.0
3	18	23	7	255	76.0	-181549.0	-1283.0	-7439.0
3	18	23	7	256	77.0	-186582.0	-1283.0	-6832.0
3	18	23	7	256	78.0	-190172.0	-1279.0	-5796.0
3	18	23	7	257	79.0	-191940.0	-1287.0	-5132.0
3	18	23	7	258	85.0	-167106.0	-1230.0	-5605.0
3	18	23	7	258	86.0	-161369.0	-1244.0	-5106.0
3	18	23	7	259	87.0	-155706.0	-1246.0	-4242.0
3	18	23	7	259	88.0	-149494.0	-1234.0	-3695.0
3	18	23	7	260	89.0	-143530.0	-1244.0	-3141.0
3	18	23	7	260	90.0	-137994.0	-1243.0	-3414.0
3	18	23	7	261	91.0	-133439.0	-1221.0	-4549.0
3	18	23	7	262	92.0	-130035.0	-1182.0	-5014.0
3	18	23	7	262	93.0	-128210.0	-1150.0	-4634.0
3	18	23	7	263	94.0	-127969.0	-1124.0	-3548.0
3	18	23	7	263	95.0	-129475.0	-1086.0	-3106.0
3	18	23	7	264	96.0	-132542.0	-1039.0	-1986.0
3	18	23	7	264	97.0	-137132.0	-1018.0	-1342.0
3	18	23	7	265	98.0	-143154.0	-1009.0	-864.0
3	18	23	7	266	99.0	-150195.0	-1001.0	-544.0
3	18	23	7	266	100.0	-157512.0	-1000.0	-684.0
3	18	23	7	267	101.0	-164829.0	-977.0	-1396.0
3	18	23	7	275	102.0	-172003.0	-909.0	-2171.0
3	18	23	7	275	103.0	-178404.0	-846.0	-1812.0
3	18	23	7	276	104.0	-183737.0	-809.0	-904.0
3	18	23	7	277	105.0	-187409.0	-801.0	-344.0
3	18	23	7	277	106.0	-189464.0	-799.0	446.0
3	18	23	7	278	107.0	-189979.0	-796.0	1299.0
3	18	23	7	278	108.0	-189247.0	-818.0	1625.0
3	18	23	7	298	109.0	-187341.0	-829.0	1668.0
3	18	23	7	298	110.0	-184984.0	-832.0	1524.0
3	18	23	7	299	111.0	-182504.0	-839.0	346.0
3	18	23	7	300	112.0	-180497.0	-826.0	-197.0
3	18	23	7	300	113.0	-178897.0	-791.0	486.0
3	18	23	7	301	114.0	-177371.0	-784.0	799.0
3	18	23	7	301	115.0	-176379.0	-768.0	769.0
3	18	23	7	302	116.0	-175787.0	-750.0	1152.0
3	18	23	7	303	117.0	-175471.0	-726.0	2054.0
3	18	23	7	303	118.0	-175694.0	-716.0	2521.0
3	18	23	7	304	119.0	-175952.0	-707.0	2046.0
3	18	23	7	304	120.0	-176288.0	-732.0	1571.0
3	18	23	7	305	121.0	-176251.0	-737.0	369.0
3	18	23	7	305	122.0	-175881.0	-726.0	-639.0
3	18	23	7	306	123.0	-174939.0	-709.0	-839.0
3	18	23	7	334	124.0	-173024.0	-712.0	-888.0
3	18	23	7	334	125.0	-170294.0	-674.0	-1101.0
3	18	23	7	335	126.0	-166744.0	-666.0	-800.0
3	18	23	7	336	127.0	-162902.0	-643.0	-66.0
3	18	23	7	336	128.0	-159178.0	-592.0	-475.0
3	18	23	7	337	129.0	-155697.0	-549.0	-939.0
3	18	23	7	338	130.0	-152022.0	-498.0	-2305.0
3	18	23	7	338	131.0	-148384.0	-419.0	-3854.0
3	18	23	7	339	132.0	-144823.0	-334.0	-4563.0
3	18	23	7	340	133.0	-141516.0	-226.0	-5125.0
3	18	23	7	340	134.0	-138514.0	-136.0	-5401.0
3	18	23	7	341	135.0	-135794.0	-77.0	-5520.0
3	18	23	7	342	136.0	-133331.0	-29.0	-5113.0
3	18	23	7	342	137.0	-131935.0	42.0	-5126.0
3	18	23	7	343	138.0	-131685.0	98.0	-5136.0
3	18	23	7	343	139.0	-132218.0	156.0	-5852.0
3	18	23	7	344	140.0	-134113.0	225.0	-7307.0
3	18	23	7	345	141.0	-137292.0	325.0	-8669.0
3	18	23	7	345	142.0	-141687.0	423.0	-9547.0
3	18	23	7	353	143.0	-146327.0	517.0	-10153.0
3	18	23	7	354	144.0	-150956.0	589.0	-10161.0
3	18	23	7	377	145.0	-155326.0	679.0	-9482.0
3	18	23	7	378	146.0	-158777.0	756.0	-9472.0
3	18	23	7	378	147.0	-161608.0	818.0	-9562.0
3	18	23	7	379	148.0	-163646.0	842.0	-9476.0
3	18	23	7	380	149.0	-165222.0	888.0	-9781.0
3	18	23	7	380	150.0	-166797.0	931.0	-10926.0
3	18	23	7	381	151.0	-168240.0	982.0	-12347.0
3	18	23	7	381	152.0	-169381.0	1048.0	-12912.0
3	18	23	7	382	153.0	-170002.0	1125.0	-12980.0
3	18	23	7	382	154.0	-170127.0	1197.0	-12584.0
3	18	23	7	383	155.0	-169872.0	1283.0	-12382.0
3	18	23	7	384	156.0	-168957.0	1338.0	-12008.0
3	18	23	7	384	157.0	-167392.0	1399.0	-11831.0
3	18	23	7	385	158.0	-165335.0	1439.0	-11407.0
3	18	23	7	385	159.0	-163467.0	1436.0	-11966.0
3	18	23	7	386	160.0	-161961.0	1449.0	-12909.0
3	18	23	7	400	161.0	-160857.0	1480.0	-13919.0
3	18	23	7	400	162.0	-160497.0	1538.0	-14469.0
3	18	23	7	401	163.0	-161444.0	1614.0	-14406.0
3	18	23	7	401	164.0	-163589.0	1647.0	-13828.0
3	18	23	7	402	165.0	-166678.0	1686.0	-13449.0
3	18	23	7	403	166.0	-170547.0	1694.0	-12859.0
3	18	23	7	403	167.0	-174809.0	1714.0	-11818.0
3	18	23	7	404	168.0	-178667.0	1724.0	-11496.0
3	18	23	7	404	169.0	-181784.0	1733.0	-12578.0
3	18	23	7	439	170.0	-184306.0	1739.0	-13516.0
3	18	23	7	440	171.0	-185749.0	1781.0	-14440.0
3	18	23	7	441	172.0	-186259.0	1836.0	-15137.0
3	18	23	7	442	173.0	-186006.0	1871.0	-14749.0
3	18	23	7	442	174.0	-184925.0	1898.0	-14156.0
3	18	23	7	443	175.0	-182851.0	1918.0	-13844.0
3	18	23	7	444	176.0	-176586.0	1961.0	-12841.0
3	18	23	7	444	177.0	-167629.0	1975.0	-12074.0
3	18	23	7	445	178.0	-157278.0	1946.0	-12034.0
3	18	23	7	445	179.0	-148310.0	1936.0	-12775.0
3	18	23	7	446	180.0	-142961.0	1934.0	-12947.0
3	18	23	7	446	181.0	-145294.0	1938.0	-14086.0
3	18	23	7	455	182.0	-153506.0	1962.0	-15139.0
3	18	23	7	455	183.0	-161961.0	1991.0	-14832.0
3	18	23	7	456	184.0	-166106.0	2006.0	-13926.0
3	18	23	7	457	185.0	-164137.0	2026.0	-13508.0
3	18	23	7	457	190.0	-142369.0	2067.0	-12981.0
3	18	23	7	458	191.0	-141801.0	2099.0	-13894.0
3	18	23	7	458	192.0	-143897.0	2154.0	-14196.0
3	18	23	7	459	193.0	-148434.0	2205.0	-13899.0
3	18	23	7	460	194.0	-154525.0	2253.0	-13603.0
3	18	23	7	460	195.0	-160238.0	2326.0	-13385.0
3	18	23	7	461	196.0	-164280.0	2347.0	-13012.0
3	18	23	7	461	197.0	-166249.0	2366.0	-12122.0
3	18	23	7	462	198.0	-166427.0	2361.0	-11944.0
3	18	23	7	463	199.0	-165402.0	2353.0	-12539.0
3	18	23	7	463	200.0	-163807.0	2374.0	-13296.0
3	18	23	7	464	201.0	-161207.0	2399.0	-14549.0
3	18	23	7	477	202.0	-158276.0	2453.0	-14754.0
3	18	23	7	478	203.0	-154864.0	2479.0	-14586.0
3	18	23	7	479	204.0	-151172.0	2511.0	-14642.0
3	18	23	7	499	205.0	-148234.0	2521.0	-14217.0
3	18	23	7	500	206.0	-146680.0	2541.0	-13401.0
3	18	23	7	501	207.0	-147360.0	2549.0	-12767.0
3	18	23	7	502	208.0	-150269.0	2530.0	-12527.0
3	18	23	7	502	209.0	-154886.0	2521.0	-12988.0
3	18	23	7	503	210.0	-159901.0	2509.0	-13791.0
3	18	23	7	504	211.0	-164533.0	2526.0	-14391.0
3	18	23	7	504	212.0	-168382.0	2549.0	-14391.0
3	18	23	7	505	213.0	-170831.0	2565.0	-14626.0
3	18	23	7	506	214.0	-172149.0	2580.0	-14377.0
3	18	23	7	506	215.0	-172375.0	2605.0	-13659.0
3	18	23	7	507	216.0	-172051.0	2627.0	-12562.0
3	18	23	7	508	217.0	-171513.0	2644.0	-12554.0
3	18	23	7	508	218.0	-170270.0	2630.0	-12374.0
3	18	23	7	509	219.0	-168688.0	2601.0	-12467.0
3	18	23	7	509	220.0	-166717.0	2582.0	-13389.0
3	18	23	7	522	221.0	-164326.0	2610.0	-14715.0
3	18	23	7	523	222.0	-161264.0	2643.0	-14692.0
3	18	23	7	524	223.0	-158242.0	2661.0	-14171.0
3	18	23	7	524	224.0	-155827.0	2650.0	-13782.0
3	18	23	7	525	225.0	-153663.0	2648.0	-12886.0
3	18	23	7	525	226.0	-152318.0	2667.0	-12106.0
3	18	23	7	526	227.0	-151783.0	2661.0	-11811.0
3	18	23	7	526	228.0	-151881.0	2629.0	-11594.0
3	18	23	7	559	229.0	-152498.0	2611.0	-12336.0
3	18	23	7	559	230.0	-152959.0	2614.0	-13627.0
3	18	23	7	560	231.0	-153829.0	2646.0	-14401.0
3	18	23	7	561	232.0	-155844.0	2655.0	-14574.0
3	18	23	7	562	233.0	-158265.0	2670.0	-14459.0
3	18	23	7	562	234.0	-160442.0	2674.0	-14000.0
3	18	23	7	563	235.0	-162490.0	2686.0	-13122.0
3	18	23	7	564	236.0	-164554.0	2700.0	-12501.0
3	18	23	7	565	237.0	-166127.0	2697.0	-11792.0
3	18	23	7	566	238.0	-167478.0	2690.0	-11628.0
3	18	23	7	566	239.0	-168111.0	2671.0	-12629.0
3	18	23	7	567	240.0	-168106.0	2636.0	-13690.0
3	18	23	7	568	241.0	-167979.0	2634.0	-14446.0
3	18	23	7	568	242.0	-167336.0	2630.0	-14782.0
3	18	23	7	569	243.0	-166756.0	2616.0	-14400.0
3	18	23	7	569	244.0	-166229.0	2599.0	-13973.0
3	18	23	7	570	250.0	-161366.0	2417.0	-14127.0
3	18	23	7	571	251.0	-160244.0	2443.0	-14627.0
3	18	23	7	571	252.0	-159157.0	2461.0	-14651.0
3	18	23	7	582	253.0	-158110.0	2458.0	-14419.0
3	18	23	7	583	254.0	-157316.0	2458.0	-13674.0
3	18	23	7	584	255.0	-156509.0	2446.0	-13694.0
3	18	23	7	584	0.0	-156187.0	2432.0	-12944.0
3	18	23	7	585	1.0	-156306.0	2404.0	-11989.0
3	18	23	7	605	2.0	-156337.0	2336.0	-11592.0
3	18	23	7	606	3.0	-156196.0	2319.0	-12414.0
3	18	23	7	606	4.0	-156360.0	2306.0	-13169.0
3	18	23	7	607	5.0	-156867.0	2310.0	-13577.0
3	18	23	7	607	6.0	-157094.0	2287.0	-14092.0
3	18	23	7	608	7.0	-157521.0	2284.0	-13790.0
3	18	23	7	609	8.0	-158014.0	2292.0	-13414.0
3	18	23	7	609	9.0	-159593.0	2266.0	-12899.0
3	18	23	7	610	10.0	-161868.0	2244.0	-12483.0
3	18	23	7	610	11.0	-164216.0	2260.0	-11901.0
3	18	23	7	611	12.0	-166467.0	2256.0	-12078.0
3	18	23	7	612	13.0	-169067.0	2253.0	-12869.0
3	18	23	7	612	14.0	-170881.0	2213.0	-13341.0
3	18	23	7	613	15.0	-172202.0	2197.0	-13904.0
3	18	23	7	613	16.0	-172834.0	2181.0	-14248.0
3	18	23	7	614	17.0	-172479.0	2166.0	-13851.0
3	18	23	7	628	18.0	-171509.0	2173.0	-13191.0
3	18	23	7	628	19.0	-170147.0	2180.0	-12544.0
3	18	23	7	629	20.0	-168399.0	2169.0	-11694.0
3	18	23	7	630	21.0	-166111.0	2129.0	-11775.0
3	18	23	7	630	22.0	-163571.0	2083.0	-12287.0
3	18	23	7	631	23.0	-160535.0	2041.0	-12724.0
3	18	23	7	631	24.0	-157460.0	2030.0	-13544.0
3	18	23	7	632	25.0	-154288.0	2039.0	-14332.0
3	18	23	7	650	26.0	-151664.0	2086.0	-14471.0
3	18	23	7	651	27.0	-149785.0	2099.0	-14202.0
3	18	23	7	651	28.0	-149376.0	2083.0	-13876.0
3	18	23	7	652	29.0	-150159.0	2064.0	-13249.0
3	18	23	7	652	30.0	-152446.0	2032.0	-12487.0
3	18	23	7	653	31.0	-155891.0	2019.0	-12173.0
3	18	23	7	654	32.0	-159792.0	1970.0	-12511.0
3	18	23	7	679	33.0	-163282.0	1969.0	-12759.0
3	18	23	7	680	34.0	-165599.0	1996.0	-14057.0
3	18	23	7	680	35.0	-167256.0	1985.0	-14843.0
3	18	23	7	681	36.0	-168108.0	1976.0	-14274.0
3	18	23	7	682	37.0	-168483.0	1942.0	-13653.0
3	18	23	7	682	38.0	-168324.0	1909.0	-13384.0
3	18	23	7	683	39.0	-168195.0	1901.0	-12855.0
3	18	23	7	684	40.0	-167974.0	1869.0	-11515.0
3	18	23	7	684	41.0	-167572.0	1816.0	-11265.0
3	18	23	7	685	42.0	-167249.0	1766.0	-11711.0
3	18	23	7	685	43.0	-166702.0	1736.0	-12406.0
3	18	23	7	686	44.0	-166224.0	1713.0	-13336.0
3	18	23	7	687	45.0	-165591.0	1716.0	-14061.0
3	18	23	7	687	46.0	-164803.0	1711.0	-13760.0
3	18	23	7	688	47.0	-163973.0	1699.0	-13113.0
3	18	23	7	689	54.0	-159992.0	1564.0	-12537.0
3	18	23	7	690	55.0	-159006.0	1559.0	-13062.0
3	18	23	7	690	56.0	-157872.0	1561.0	-13309.0
3	18	23	7	691	57.0	-156699.0	1570.0	-12813.0
3	18	23	7	700	58.0	-155361.0	1579.0	-12642.0
3	18	23	7	701	59.0	-153553.0	1596.0	-12057.0
3	18	23	7	701	60.0	-152060.0	1606.0	-11457.0
3	18	23	7	702	61.0	-150794.0	1595.0	-10960.0
3	18	23	7	724	62.0	-149662.0	1552.0	-11018.0
3	18	23	7	725	63.0	-148831.0	1526.0	-12148.0
3	18	23	7	725	64.0	-148083.0	1514.0	-13471.0
3	18	23	7	726	65.0	-147597.0	1478.0	-13995.0
3	18	23	7	727	66.0	-147054.0	1480.0	-14011.0
3	18	23	7	727	67.0	-146577.0	1483.0	-13432.0
3	18	23	7	728	68.0	-146968.0	1487.0	-12873.0
3	18	23	7	728	69.0	-148742.0	1493.0	-12572.0
3	18	23	7	729	70.0	-151642.0	1486.0	-12291.0
3	18	23	7	729	71.0	-155387.0	1484.0	-11430.0
3	18	23	7	730	72.0	-159734.0	1484.0	-11356.0
3	18	23	7	730	73.0	-163989.0	1467.0	-12537.0
3	18	23	7	731	74.0	-167959.0	1464.0	-13801.0
3	18	23	7	731	75.0	-171277.0	1467.0	-13915.0
3	18	23	7	732	76.0	-173260.0	1466.0	-13799.0
3	18	23	7	733	77.0	-173789.0	1461.0	-13337.0
3	18	23	7	747	78.0	-173536.0	1483.0	-12987.0
3	18	23	7	748	79.0	-172200.0	1512.0	-12281.0
3	18	23	7	748	80.0	-170806.0	1499.0	-11709.0
3	18	23	7	749	81.0	-168839.0	1470.0	-11414.0
3	18	23	7	749	82.0	-166641.0	1450.0	-11668.0
3	18	23	7	750	83.0	-164411.0	1429.0	-12669.0
3	18	23	7	750	84.0	-161729.0	1448.0	-13662.0
3	18	23	7	771	85.0	-158711.0	1486.0	-14277.0
3	18	23	7	772	86.0	-156097.0	1504.0	-13871.0
3	18	23	7	772	87.0	-153601.0	1531.0	-13195.0
3	18	23	7	773	88.0	-150807.0	1551.0	-12757.0
3	18	23	7	773	89.0	-149181.0	1562.0	-12137.0
3	18	23	7	774	90.0	-148654.0	1567.0	-11277.0
3	18	23	7	794	91.0	-149317.0	1548.0	-10313.0
3	18	23	7	794	92.0	-150785.0	1528.0	-10756.0
3	18	23	7	795	93.0	-152338.0	1513.0	-11780.0
3	18	23	7	795	94.0	-153971.0	1514.0	-13270.0
3	18	23	7	796	95.0	-155764.0	1533.0	-13560.0
3	18	23	7	796	96.0	-157125.0	1534.0	-13456.0
3	18	23	7	797	97.0	-157439.0	1534.0	-12168.0
3	18	23	7	798	98.0	-157412.0	1548.0	-11995.0
3	18	23	7	798	99.0	-156983.0	1548.0	-11427.0
3	18	23	7	799	100.0	-156342.0	1561.0	-10854.0
3	18	23	7	799	101.0	-155782.0	1578.0	-10793.0
3	18	23	7	800	102.0	-155061.0	1589.0	-11396.0
3	18	23	7	800	103.0	-155026.0	1584.0	-11894.0
3	18	23	7	801	104.0	-155512.0	1597.0	-12928.0
3	18	23	7	801	105.0	-156232.0	1638.0	-13656.0
3	18	23	7	802	106.0	-156914.0	1664.0	-13379.0
3	18	23	7	802	107.0	-157502.0	1665.0	-12829.0
3	18	23	7	803	108.0	-157899.0	1705.0	-12127.0
3	18	23	7	804	109.0	-157726.0	1727.0	-11687.0
3	18	23	7	804	110.0	-157147.0	1744.0	-11002.0
3	18	23	7	805	111.0	-156687.0	1757.0	-10320.0
3	18	23	7	805	112.0	-157021.0	1769.0	-10741.0
3	18	23	7	806	113.0	-158526.0	1749.0	-11552.0
3	18	23	7	816	114.0	-161377.0	1762.0	-12854.0
3	18	23	7	817	115.0	-165064.0	1799.0	-13491.0
3	18	23	7	818	116.0	-168539.0	1854.0	-12943.0
3	18	23	7	818	117.0	-171217.0	1878.0	-12146.0
3	18	23	7	819	118.0	-172456.0	1880.0	-12211.0
3	18	23	7	819	119.0	-171979.0	1888.0	-11681.0
3	18	23	7	820	120.0	-170694.0	1869.0	-11082.0
3	18	23	7	820	121.0	-167948.0	1874.0	-10402.0
3	18	23	7	821	122.0	-164521.0	1853.0	-11226.0
3	18	23	7	840	123.0	-160629.0	1845.0	-11434.0
3	18	23	7	840	124.0	-156726.0	1878.0	-12430.0
3	18	23	7	841	125.0	-153148.0	1904.0	-13049.0
3	18	23	7	841	126.0	-150486.0	1919.0	-12707.0
3	18	23	7	842	127.0	-148336.0	1932.0	-12066.0
3	18	23	7	843	128.0	-146794.0	1939.0	-11585.0
3	18	23	7	843	129.0	-146084.0	1930.0	-11102.0
3	18	23	7	844	130.0	-145794.0	1903.0	-10857.0
3	18	23	7	844	131.0	-146507.0	1898.0	-10691.0
3	18	23	7	845	132.0	-148051.0	1867.0	-11111.0
3	18	23	7	846	133.0	-150733.0	1848.0	-12248.0
3	18	23	7	846	134.0	-154418.0	1841.0	-13245.0
3	18	23	7	847	135.0	-158644.0	1833.0	-13541.0
3	18	23	7	847	136.0	-163080.0	1843.0	-13231.0
3	18	23	7	848	137.0	-167384.0	1857.0	-12844.0
3	18	23	7	863	138.0	-171000.0	1889.0	-12222.0
3	18	23	7	864	139.0	-174000.0	1912.0	-11709.0
3	18	23	7	864	140.0	-176277.0	1919.0	-11345.0
3	18	23	7	865	141.0	-177773.0	1884.0	-11051.0
3	18	23	7	865	142.0	-177860.0	1849.0	-11378.0
3	18	23	7	866	143.0	-176928.0	1812.0	-12198.0
3	18	23	7	866	144.0	-175320.0	1779.0	-13577.0
3	18	23	7	888	145.0	-173025.0	1774.0	-13745.0
3	18	23	7	889	146.0	-170696.0	1809.0	-12957.0
3	18	23	7	889	147.0	-168217.0	1811.0	-12884.0
3	18	23	7	890	148.0	-165967.0	1793.0	-12906.0
3	18	23	7	890	149.0	-163826.0	1782.0	-12212.0
3	18	23	7	891	150.0	-161651.0	1764.0	-11757.0
3	18	23	7	892	151.0	-159366.0	1753.0	-11307.0
3	18	23	7	892	152.0	-157004.0	1742.0	-11594.0
3	18	23	7	893	153.0	-153954.0	1718.0	-12642.0
3	18	23	7	893	154.0	-150959.0	1720.0	-13817.0
3	18	23	7	894	155.0	-148714.0	1735.0	-13324.0
3	18	23	7	895	156.0	-146716.0	1754.0	-12158.0
3	18	23	7	895	157.0	-144882.0	1771.0	-11659.0
3	18	23	7	896	158.0	-143429.0	1779.0	-10809.0
3	18	23	7	896	159.0	-142993.0	1763.0	-9854.0
3	18	23	7	897	160.0	-142937.0	1769.0	-8374.0
3	18	23	7	898	161.0	-143554.0	1762.0	-7015.0
3	18	23	7	898	162.0	-144332.0	1746.0	-6524.0
3	18	23	7	899	163.0	-145410.0	1758.0	-6440.0
3	18	23	7	908	164.0	-147040.0	1766.0	-6085.0
3	18	23	7	909	165.0	-148474.0	1783.0	-4393.0
3	18	23	7	933	166.0	-150282.0	1771.0	-3852.0
3	18	23	7	934	167.0	-152584.0	1774.0	-6834.0
3	18	23	7	934	168.0	-155335.0	1796.0	-12744.0
3	18	23	7	935	169.0	-158692.0	1762.0	-18847.0
3	18	23	7	936	170.0	-162794.0	1700.0	-25077.0
3	18	23	7	936	171.0	-167001.0	1618.0	-31249.0
3	18	23	7	937	172.0	-170954.0	1532.0	-38524.0
3	18	23	7	937	173.0	-174901.0	1429.0	-47853.0
3	18	23	7	938	174.0	-178059.0	1374.0	-57008.0
3	18	23	7	938	175.0	-180410.0	1341.0	-65321.0
3	18	23	7	939	176.0	-182749.0	1288.0	-72492.0
3	18	23	7	939	177.0	-184450.0	1240.0	-78492.0
3	18	23	7	940	178.0	-185740.0	1203.0	-81589.0
3	18	23	7	941	179.0	-186247.0	1130.0	-83152.0
3	18	23	7	941	180.0	-185651.0	1058.0	-82373.0
3	18	23	7	942	181.0	-183282.0	976.0	-74044.0
3	18	23	7	956	182.0	-178467.0	868.0	-60824.0
3	18	23	7	957	183.0	-171479.0	818.0	-48663.0
3	18	23	7	957	184.0	-163169.0	778.0	-41369.0
3	18	23	7	958	185.0	-154546.0	723.0	-36076.0
3	18	23	7	958	186.0	-146709.0	668.0	-30021.0
3	18	23	7	959	187.0	-140722.0	604.0	-24890.0
3	18	23	7	959	188.0	-136668.0	548.0	-21537.0
3	18	23	7	960	189.0	-134159.0	514.0	-18796.0
3	18	23	7	961	190.0	-132319.0	487.0	-17020.0
3	18	23	7	979	191.0	-131517.0	439.0	-15737.0
3	18	23	7	980	192.0	-131671.0	397.0	-15772.0
3	18	23	7	980	193.0	-131840.0	346.0	-15389.0
3	18	23	7	981	194.0	-134821.0	324.0	-15186.0
3	18	23	7	981	195.0	-143757.0	304.0	-14787.0
3	18	23	7	982	196.0	-155003.0	248.0	-13869.0
3	18	23	8	8	197.0	-163259.0	216.0	-12661.0
3	18	23	8	9	198.0	-165231.0	192.0	-11484.0
3	18	23	8	10	199.0	-161804.0	174.0	-10522.0
3	18	23	8	10	200.0	-156106.0	118.0	-9460.0
3	18	23	8	11	201.0	-151813.0	59.0	-8657.0
3	18	23	8	12	202.0	-152620.0	-22.0	-8694.0
3	18	23	8	12	203.0	-160773.0	-86.0	-9301.0
3	18	23	8	13	204.0	-174955.0	-122.0	-10033.0
3	18	23	8	14	205.0	-193428.0	-158.0	-10067.0
3	18	23	8	14	206.0	-213957.0	-199.0	-9547.0
3	18	23	8	15	207.0	-229661.0	-246.0	-8635.0
3	18	23	8	15	208.0	-237361.0	-323.0	-8072.0
3	18	23	8	16	209.0	-236112.0	-376.0	-7511.0
3	18	23	8	17	210.0	-226311.0	-432.0	-6926.0
3	18	23	8	17	211.0	-209038.0	-490.0	-6699.0
3	18	23	8	18	212.0	-186052.0	-559.0	-7570.0
3	18	23	8	18	219.0	-126027.0	-818.0	-7252.0
3	18	23	8	19	220.0	-125131.0	-847.0	-7094.0
3	18	23	8	20	221.0	-125198.0	-890.0	-6902.0
3	18	23	8	29	222.0	-126623.0	-923.0	-6948.0
3	18	23	8	30	223.0	-127938.0	-945.0	-7843.0
3	18	23	8	30	224.0	-129742.0	-948.0	-8442.0
3	18	23	8	31	225.0	-131988.0	-915.0	-8291.0
3	18	23	8	31	226.0	-134322.0	-937.0	-7981.0
3	18	23	8	53	227.0	-136980.0	-942.0	-7540.0
3	18	23	8	54	228.0	-138443.0	-929.0	-6586.0
3	18	23	8	54	229.0	-138785.0	-957.0	-5445.0
3	18	23	8	55	230.0	-138508.0	-1001.0	-4953.0
3	18	23	8	55	231.0	-137454.0	-1039.0	-5324.0
3	18	23	8	56	232.0	-136988.0	-1082.0	-5706.0
3	18	23	8	57	233.0	-137261.0	-1096.0	-6634.0
3	18	23	8	57	234.0	-138444.0	-1127.0	-7461.0
3	18	23	8	58	235.0	-141596.0	-1111.0	-7151.0
3	18	23	8	58	236.0	-147149.0	-1096.0	-6057.0
3	18	23	8	59	237.0	-153833.0	-1118.0	-5167.0
3	18	23	8	59	238.0	-161342.0	-1137.0	-4473.0
3	18	23	8	60	239.0	-169035.0	-1164.0	-3650.0
3	18	23	8	60	240.0	-176115.0	-1197.0	-2933.0
3	18	23	8	61	241.0	-182052.0	-1218.0	-2822.0
3	18	23	8	62	242.0	-186479.0	-1256.0	-3187.0
3	18	23	8	75	243.0	-189446.0	-1272.0	-4193.0
3	18	23	8	76	244.0	-191295.0	-1282.0	-4825.0
3	18	23	8	77	245.0	-192444.0	-1309.0	-4602.0
3	18	23	8	77	246.0	-193082.0	-1337.0	-3956.0
3	18	23	8	78	247.0	-192821.0	-1363.0	-3468.0
3	18	23	8	78	248.0	-191973.0	-1398.0	-2402.0
3	18	23	8	79	249.0	-189772.0	-1414.0	-1424.0
3	18	23	8	99	250.0	-186388.0	-1421.0	-644.0
3	18	23	8	100	251.0	-181430.0	-1446.0	-850.0
3	18	23	8	100	252.0	-175084.0	-1469.0	-1109.0
3	18	23	8	121	253.0	-168664.0	-1488.0	-2098.0
3	18	23	8	122	254.0	-161801.0	-1478.0	-2337.0
3	18	23	8	123	255.0	-155229.0	-1496.0	-2109.0
3	18	23	8	123	0.0	-149667.0	-1511.0	-1519.0
3	18	23	8	124	1.0	-145121.0	-1510.0	-511.0
3	18	23	8	124	2.0	-141787.0	-1492.0	628.0
3	18	23	8	125	3.0	-139894.0	-1494.0	959.0
3	18	23	8	126	4.0	-139109.0	-1502.0	1679.0
