4	15	34	52	654	13.0	-206052.0	21762.0	3631.0
4	15	34	52	656	14.0	-206314.0	21940.0	3550.0
4	15	34	52	658	15.0	-206246.0	22119.0	3122.0
4	15	34	52	661	16.0	-205964.0	22293.0	3979.0
4	15	34	52	662	17.0	-205366.0	22456.0	4518.0
4	15	34	52	664	18.0	-204646.0	22653.0	4042.0
4	15	34	52	666	19.0	-203841.0	22845.0	3891.0
4	15	34	52	668	20.0	-202657.0	23043.0	3367.0
4	15	34	52	669	21.0	-201220.0	23229.0	3374.0
4	15	34	52	670	22.0	-199912.0	23410.0	3884.0
4	15	34	52	671	23.0	-198525.0	23593.0	4190.0
4	15	34	52	672	24.0	-196989.0	23778.0	4030.0
4	15	34	52	682	25.0	-195470.0	23963.0	3786.0
4	15	34	52	682	26.0	-194314.0	24128.0	4158.0
4	15	34	52	683	27.0	-192887.0	24304.0	4089.0
4	15	34	52	683	28.0	-190472.0	24498.0	3606.0
4	15	34	52	684	29.0	-189798.0	24678.0	3254.0
4	15	34	52	685	30.0	-190237.0	24874.0	3347.0
4	15	34	52	685	31.0	-189882.0	25038.0	3396.0
4	15	34	52	686	32.0	-189088.0	25207.0	3370.0
4	15	34	52	712	33.0	-188774.0	25383.0	3999.0
4	15	34	52	757	34.0	-188797.0	25563.0	3896.0
4	15	34	52	779	35.0	-189043.0	25747.0	3854.0
4	15	34	52	780	36.0	-189793.0	25921.0	4118.0
4	15	34	52	780	37.0	-190724.0	26062.0	4498.0
4	15	34	52	781	38.0	-191801.0	26227.0	4014.0
4	15	34	52	782	39.0	-193027.0	26410.0	3914.0
4	15	34	52	782	40.0	-194125.0	26592.0	3704.0
4	15	34	52	803	41.0	-195166.0	26752.0	3320.0
4	15	34	52	803	42.0	-196461.0	26921.0	3551.0
4	15	34	52	804	43.0	-197876.0	27075.0	4302.0
4	15	34	52	805	44.0	-199117.0	27221.0	4167.0
4	15	34	52	805	45.0	-199779.0	27379.0	3850.0
4	15	34	52	806	46.0	-200195.0	27549.0	4213.0
4	15	34	52	807	47.0	-200539.0	27666.0	4431.0
4	15	34	52	848	48.0	-201027.0	27834.0	3933.0
4	15	34	52	849	69.0	-204347.0	30747.0	4836.0
4	15	34	52	850	70.0	-204936.0	30892.0	4448.0
4	15	34	52	850	71.0	-205449.0	31018.0	4348.0
4	15	34	52	851	72.0	-206011.0	31123.0	4874.0
4	15	34	52	851	73.0	-206451.0	31243.0	4859.0
4	15	34	52	852	74.0	-206502.0	31382.0	4944.0
4	15	34	52	893	75.0	-206408.0	31505.0	4914.0
4	15	34	52	894	76.0	-206114.0	31598.0	5348.0
4	15	34	52	894	92.0	-201851.0	33351.0	5380.0
4	15	34	52	895	93.0	-201133.0	33439.0	5323.0
4	15	34	52	895	94.0	-200269.0	33533.0	5149.0
4	15	34	52	896	95.0	-199360.0	33640.0	5239.0
4	15	34	52	897	96.0	-198412.0	33742.0	5369.0
4	15	34	52	938	97.0	-197640.0	33824.0	5013.0
4	15	34	52	938	98.0	-196995.0	33918.0	5211.0
4	15	34	52	939	114.0	-199574.0	35152.0	5241.0
4	15	34	52	940	115.0	-199590.0	35217.0	5141.0
4	15	34	52	940	116.0	-199659.0	35267.0	5891.0
4	15	34	52	941	117.0	-199696.0	35326.0	5205.0
4	15	34	52	941	118.0	-199974.0	35395.0	4693.0
4	15	34	52	983	119.0	-199916.0	35458.0	4693.0
4	15	34	52	983	120.0	-199567.0	35526.0	4796.0
4	15	34	52	984	137.0	-199332.0	36222.0	5264.0
4	15	34	52	984	138.0	-198905.0	36241.0	5523.0
4	15	34	52	985	139.0	-198661.0	36305.0	5033.0
4	15	34	52	986	140.0	-198566.0	36338.0	4729.0
4	15	34	52	986	141.0	-198604.0	36351.0	5057.0
4	15	34	53	28	142.0	-198684.0	36362.0	5131.0
4	15	34	53	29	143.0	-198601.0	36393.0	5128.0
4	15	34	53	29	159.0	-196914.0	36553.0	4620.0
4	15	34	53	30	160.0	-197231.0	36565.0	4509.0
4	15	34	53	30	161.0	-197436.0	36566.0	4628.0
4	15	34	53	31	162.0	-197817.0	36560.0	5241.0
4	15	34	53	32	163.0	-197977.0	36563.0	4851.0
4	15	34	53	32	164.0	-198149.0	36557.0	4843.0
4	15	34	53	33	165.0	-198239.0	36565.0	5547.0
4	15	34	53	33	182.0	-203534.0	36318.0	4829.0
4	15	34	53	34	183.0	-203881.0	36303.0	5052.0
4	15	34	53	35	184.0	-203946.0	36297.0	4846.0
4	15	34	53	74	185.0	-203813.0	36273.0	5151.0
4	15	34	53	74	186.0	-203551.0	36219.0	5267.0
4	15	34	53	75	187.0	-203166.0	36206.0	4961.0
4	15	34	53	76	188.0	-202552.0	36211.0	4668.0
4	15	34	53	76	204.0	-194874.0	35740.0	4966.0
4	15	34	53	77	205.0	-195543.0	35706.0	4952.0
4	15	34	53	78	206.0	-196157.0	35666.0	4509.0
4	15	34	53	117	207.0	-196818.0	35655.0	4823.0
4	15	34	53	125	208.0	-197339.0	35621.0	4266.0
4	15	34	53	125	209.0	-197477.0	35603.0	4067.0
4	15	34	53	126	210.0	-197757.0	35558.0	3941.0
4	15	34	53	127	211.0	-197862.0	35516.0	3898.0
4	15	34	53	127	212.0	-197856.0	35448.0	4359.0
4	15	34	53	128	213.0	-197751.0	35416.0	4679.0
4	15	34	53	129	214.0	-197562.0	35389.0	4698.0
4	15	34	53	129	215.0	-197297.0	35332.0	4289.0
4	15	34	53	130	227.0	-207604.0	34812.0	4545.0
4	15	34	53	130	228.0	-206898.0	34758.0	4313.0
4	15	34	53	131	229.0	-205732.0	34723.0	4439.0
4	15	34	53	131	230.0	-204415.0	34692.0	4488.0
4	15	34	53	132	231.0	-202729.0	34651.0	4414.0
4	15	34	53	133	232.0	-201207.0	34610.0	4548.0
4	15	34	53	133	233.0	-199687.0	34565.0	4749.0
4	15	34	53	134	249.0	-199926.0	33771.0	4199.0
4	15	34	53	134	250.0	-199904.0	33728.0	4100.0
4	15	34	53	135	251.0	-199537.0	33674.0	4139.0
4	15	34	53	135	252.0	-199191.0	33635.0	4300.0
4	15	34	53	136	253.0	-198552.0	33586.0	4580.0
4	15	34	53	136	254.0	-197764.0	33537.0	4008.0
4	15	34	53	163	255.0	-197323.0	33471.0	4142.0
4	15	34	53	207	0.0	-196937.0	33436.0	4251.0
4	15	34	53	252	1.0	-196568.0	33391.0	3509.0
4	15	34	53	253	2.0	-196224.0	33342.0	3385.0
4	15	34	53	254	3.0	-196010.0	33323.0	3756.0
4	15	34	53	254	4.0	-195789.0	33268.0	4072.0
4	15	34	53	255	5.0	-195799.0	33213.0	4179.0
4	15	34	53	256	6.0	-196408.0	33152.0	4413.0
4	15	34	53	256	7.0	-197039.0	33077.0	4483.0
4	15	34	53	297	8.0	-197963.0	33036.0	4104.0
4	15	34	53	298	9.0	-199381.0	32960.0	4587.0
4	15	34	53	299	10.0	-200596.0	32896.0	4156.0
4	15	34	53	342	11.0	-201752.0	32861.0	3348.0
4	15	34	53	343	12.0	-202698.0	32809.0	3070.0
4	15	34	53	344	13.0	-202823.0	32768.0	3239.0
4	15	34	53	345	15.0	-202802.0	32651.0	3996.0
4	15	34	53	345	38.0	-201732.0	31242.0	3551.0
4	15	34	53	346	60.0	-205396.0	29754.0	2986.0
4	15	34	53	346	61.0	-204624.0	29684.0	2971.0
4	15	34	53	387	62.0	-204206.0	29616.0	2730.0
4	15	34	53	388	63.0	-203658.0	29559.0	2880.0
4	15	34	53	389	64.0	-203126.0	29509.0	3003.0
4	15	34	53	390	65.0	-202612.0	29449.0	3468.0
4	15	34	53	390	66.0	-202447.0	29374.0	3608.0
4	15	34	53	391	67.0	-202433.0	29312.0	3303.0
4	15	34	53	392	83.0	-195317.0	28208.0	2901.0
4	15	34	53	392	84.0	-195136.0	28148.0	3454.0
4	15	34	53	393	85.0	-195136.0	28075.0	3656.0
4	15	34	53	394	105.0	-200066.0	26599.0	-6949.0
4	15	34	53	394	106.0	-198839.0	26530.0	-9851.0
4	15	34	53	395	107.0	-197884.0	26477.0	-13291.0
4	15	34	53	432	108.0	-196416.0	26418.0	-16830.0
4	15	34	53	433	109.0	-194679.0	26324.0	-21368.0
4	15	34	53	433	110.0	-192587.0	26263.0	-26926.0
4	15	34	53	434	111.0	-189714.0	26199.0	-29094.0
4	15	34	53	435	128.0	-151302.0	24941.0	5979.0
4	15	34	53	435	129.0	-148408.0	24859.0	5011.0
4	15	34	53	436	130.0	-152390.0	24781.0	3914.0
4	15	34	53	437	131.0	-160924.0	24745.0	2656.0
4	15	34	53	438	132.0	-171733.0	24665.0	1844.0
4	15	34	53	438	133.0	-180864.0	24605.0	1373.0
4	15	34	53	439	134.0	-187469.0	24526.0	1153.0
4	15	34	53	440	135.0	-192484.0	24439.0	559.0
4	15	34	53	478	136.0	-196350.0	24368.0	251.0
4	15	34	53	479	137.0	-198288.0	24314.0	231.0
4	15	34	53	480	138.0	-198670.0	24214.0	632.0
4	15	34	53	481	139.0	-199984.0	24141.0	628.0
4	15	34	53	481	150.0	-199916.0	23358.0	186.0
4	15	34	53	482	151.0	-206140.0	23300.0	388.0
4	15	34	53	483	152.0	-210782.0	23252.0	299.0
4	15	34	53	483	153.0	-213372.0	23198.0	-91.0
4	15	34	53	484	154.0	-214445.0	23126.0	359.0
4	15	34	53	485	155.0	-214654.0	23051.0	578.0
4	15	34	53	485	156.0	-213491.0	22973.0	492.0
4	15	34	53	486	157.0	-211473.0	22904.0	394.0
4	15	34	53	487	158.0	-210102.0	22819.0	839.0
4	15	34	53	488	159.0	-209917.0	22740.0	69.0
4	15	34	53	488	160.0	-211145.0	22683.0	-190.0
4	15	34	53	489	161.0	-213627.0	22635.0	-121.0
4	15	34	53	490	173.0	-188397.0	21828.0	-1110.0
4	15	34	53	490	174.0	-183929.0	21749.0	-1244.0
4	15	34	53	522	175.0	-179704.0	21681.0	-1163.0
4	15	34	53	523	176.0	-176029.0	21614.0	-967.0
4	15	34	53	524	177.0	-172668.0	21540.0	-966.0
4	15	34	53	525	178.0	-169635.0	21464.0	-1035.0
4	15	34	53	525	179.0	-167132.0	21416.0	-1338.0
4	15	34	53	526	180.0	-165581.0	21346.0	-1367.0
4	15	34	53	527	181.0	-164832.0	21274.0	-1532.0
4	15	34	53	527	182.0	-164466.0	21206.0	-1701.0
4	15	34	53	528	183.0	-164826.0	21144.0	-1879.0
4	15	34	53	529	184.0	-166231.0	21081.0	-1516.0
4	15	34	53	529	185.0	-168799.0	21009.0	-1487.0
4	15	34	53	530	186.0	-171952.0	20926.0	-2182.0
4	15	34	53	530	187.0	-175774.0	20852.0	-1763.0
4	15	34	53	531	188.0	-179846.0	20760.0	-1378.0
4	15	34	53	532	189.0	-183911.0	20698.0	-2086.0
4	15	34	53	532	190.0	-188406.0	20628.0	-2289.0
4	15	34	53	541	195.0	-212895.0	20274.0	-2699.0
4	15	34	53	541	196.0	-217052.0	20207.0	-3028.0
4	15	34	53	542	197.0	-220552.0	20148.0	-2416.0
4	15	34	53	543	198.0	-223272.0	20069.0	-2273.0
4	15	34	53	543	199.0	-225950.0	20013.0	-2901.0
4	15	34	53	544	200.0	-228273.0	19958.0	-2974.0
4	15	34	53	545	201.0	-230602.0	19914.0	-3589.0
4	15	34	53	568	202.0	-231733.0	19866.0	-3294.0
4	15	34	53	569	203.0	-231471.0	19795.0	-2870.0
4	15	34	53	569	204.0	-230647.0	19727.0	-3092.0
4	15	34	53	570	205.0	-229344.0	19653.0	-3659.0
4	15	34	53	571	206.0	-228449.0	19598.0	-3481.0
4	15	34	53	572	207.0	-227614.0	19529.0	-2968.0
4	15	34	53	572	208.0	-226447.0	19445.0	-3424.0
4	15	34	53	573	209.0	-224719.0	19386.0	-3670.0
4	15	34	53	574	210.0	-222746.0	19338.0	-3653.0
4	15	34	53	574	211.0	-220259.0	19298.0	-3932.0
4	15	34	53	575	212.0	-218002.0	19240.0	-3806.0
4	15	34	53	576	213.0	-215882.0	19211.0	-3852.0
4	15	34	53	576	214.0	-214147.0	19151.0	-3596.0
4	15	34	53	577	215.0	-212440.0	19109.0	-3581.0
4	15	34	53	578	216.0	-210990.0	19075.0	-3919.0
4	15	34	53	578	217.0	-209156.0	19044.0	-4156.0
4	15	34	53	579	218.0	-207459.0	18998.0	-4012.0
4	15	34	53	579	219.0	-205997.0	18978.0	-4367.0
4	15	34	53	580	220.0	-204882.0	18991.0	-4801.0
4	15	34	53	581	221.0	-203209.0	18989.0	-4978.0
4	15	34	53	582	222.0	-201669.0	18994.0	-5161.0
4	15	34	53	582	223.0	-200403.0	19013.0	-4894.0
4	15	34	53	612	224.0	-198987.0	19012.0	-4475.0
4	15	34	53	613	225.0	-198142.0	19038.0	-4977.0
4	15	34	53	613	226.0	-197972.0	19066.0	-5024.0
4	15	34	53	622	227.0	-198006.0	19094.0	-4866.0
4	15	34	53	623	228.0	-198170.0	19101.0	-5191.0
4	15	34	53	623	229.0	-198991.0	19141.0	-5060.0
4	15	34	53	624	230.0	-199445.0	19198.0	-4952.0
4	15	34	53	658	231.0	-199512.0	19246.0	-5301.0
4	15	34	53	658	232.0	-199909.0	19300.0	-5531.0
4	15	34	53	659	233.0	-200594.0	19363.0	-5451.0
4	15	34	53	660	234.0	-201004.0	19426.0	-5361.0
4	15	34	53	661	235.0	-201569.0	19500.0	-5659.0
4	15	34	53	661	236.0	-202345.0	19569.0	-5445.0
4	15	34	53	662	237.0	-204159.0	19642.0	-4934.0
4	15	34	53	702	238.0	-206308.0	19692.0	-5074.0
4	15	34	53	703	240.0	-210571.0	19867.0	-5391.0
4	15	34	53	704	241.0	-212101.0	19969.0	-5799.0
4	15	34	53	704	242.0	-213590.0	20092.0	-5652.0
4	15	34	53	705	243.0	-214962.0	20196.0	-5366.0
4	15	34	53	706	244.0	-216434.0	20276.0	-5036.0
4	15	34	53	706	245.0	-217581.0	20380.0	-5094.0
4	15	34	53	748	246.0	-218287.0	20491.0	-4930.0
4	15	34	53	748	247.0	-218807.0	20570.0	-4771.0
4	15	34	53	749	7.0	-216807.0	22148.0	-4051.0
4	15	34	53	750	8.0	-215351.0	22226.0	-3725.0
4	15	34	53	750	9.0	-213431.0	22319.0	-3550.0
4	15	34	53	751	10.0	-211614.0	22421.0	-3616.0
4	15	34	53	752	11.0	-209757.0	22496.0	-3702.0
4	15	34	53	794	12.0	-207927.0	22578.0	-3734.0
4	15	34	53	795	13.0	-206249.0	22639.0	-3662.0
4	15	34	53	795	29.0	-197279.0	23531.0	-760.0
4	15	34	53	796	30.0	-197066.0	23570.0	-1097.0
4	15	34	53	797	31.0	-196816.0	23586.0	-606.0
4	15	34	53	798	32.0	-197329.0	23630.0	-32.0
4	15	34	53	799	33.0	-197771.0	23668.0	-429.0
4	15	34	53	799	34.0	-198251.0	23709.0	-677.0
4	15	34	53	800	35.0	-199277.0	23760.0	-367.0
4	15	34	53	800	52.0	-189166.0	24044.0	1551.0
4	15	34	53	801	53.0	-188863.0	24070.0	1201.0
4	15	34	53	802	54.0	-188851.0	24118.0	1117.0
4	15	34	53	837	55.0	-189131.0	24133.0	1454.0
4	15	34	53	838	56.0	-189282.0	24140.0	1696.0
4	15	34	53	839	57.0	-189105.0	24148.0	1264.0
4	15	34	53	839	58.0	-188632.0	24156.0	1061.0
4	15	34	53	840	74.0	-195617.0	24248.0	1646.0
4	15	34	53	841	75.0	-197445.0	24256.0	1969.0
4	15	34	53	842	76.0	-199262.0	24263.0	1733.0
4	15	34	53	842	77.0	-200855.0	24269.0	1827.0
4	15	34	53	843	78.0	-202084.0	24268.0	2071.0
4	15	34	53	844	79.0	-203101.0	24276.0	2111.0
4	15	34	53	844	80.0	-203957.0	24289.0	2087.0
4	15	34	53	845	81.0	-204772.0	24254.0	2215.0
4	15	34	53	882	82.0	-205443.0	24255.0	2074.0
4	15	34	53	883	83.0	-205839.0	24249.0	1643.0
4	15	34	53	884	84.0	-206294.0	24254.0	1309.0
4	15	34	53	885	96.0	-203156.0	24233.0	1833.0
4	15	34	53	885	97.0	-201926.0	24218.0	2429.0
4	15	34	53	886	98.0	-200706.0	24209.0	2748.0
4	15	34	53	887	99.0	-199317.0	24220.0	2368.0
4	15	34	53	927	100.0	-197918.0	24213.0	2508.0
4	15	34	53	928	101.0	-196552.0	24188.0	2573.0
4	15	34	53	929	102.0	-195277.0	24194.0	2299.0
4	15	34	53	930	103.0	-194284.0	24214.0	1863.0
4	15	34	53	931	104.0	-193351.0	24220.0	1824.0
4	15	34	53	931	105.0	-192699.0	24223.0	2165.0
4	15	34	53	932	106.0	-192586.0	24211.0	2028.0
4	15	34	53	933	107.0	-193121.0	24193.0	2378.0
4	15	34	53	934	108.0	-193859.0	24195.0	2931.0
4	15	34	53	935	119.0	-211217.0	24113.0	2888.0
4	15	34	53	935	120.0	-212232.0	24108.0	3165.0
4	15	34	53	936	121.0	-213139.0	24084.0	3136.0
4	15	34	53	937	122.0	-213741.0	24091.0	2699.0
4	15	34	53	938	123.0	-214026.0	24096.0	2488.0
4	15	34	53	938	124.0	-213816.0	24104.0	2456.0
4	15	34	53	939	125.0	-213224.0	24101.0	2536.0
4	15	34	53	940	141.0	-204449.0	23896.0	2906.0
4	15	34	53	941	142.0	-203642.0	23878.0	2824.0
4	15	34	53	941	143.0	-202385.0	23883.0	2596.0
4	15	34	53	942	144.0	-201107.0	23885.0	2814.0
4	15	34	53	943	145.0	-199889.0	23888.0	2126.0
4	15	34	53	943	146.0	-198549.0	23875.0	2358.0
4	15	34	53	944	147.0	-197379.0	23874.0	3129.0
4	15	34	53	973	148.0	-196602.0	23842.0	3167.0
4	15	34	53	974	149.0	-196087.0	23821.0	2841.0
4	15	34	53	975	150.0	-195601.0	23794.0	3164.0
4	15	34	53	975	151.0	-195292.0	23761.0	3008.0
4	15	34	53	976	152.0	-195449.0	23756.0	2311.0
4	15	34	53	977	153.0	-195926.0	23740.0	2200.0
4	15	34	53	977	154.0	-196429.0	23711.0	2388.0
4	15	34	54	18	155.0	-197075.0	23683.0	2339.0
4	15	34	54	19	156.0	-197688.0	23653.0	2896.0
4	15	34	54	20	157.0	-198271.0	23624.0	3070.0
4	15	34	54	21	158.0	-198642.0	23583.0	2784.0
4	15	34	54	21	159.0	-198769.0	23563.0	2566.0
4	15	34	54	22	160.0	-198892.0	23500.0	3204.0
4	15	34	54	23	161.0	-199017.0	23456.0	2632.0
4	15	34	54	108	162.0	-199343.0	23430.0	2551.0
4	15	34	54	109	164.0	-200451.0	23371.0	2526.0
4	15	34	54	110	165.0	-200269.0	23358.0	2436.0
4	15	34	54	111	166.0	-200102.0	23319.0	2506.0
4	15	34	54	111	167.0	-199796.0	23286.0	2526.0
4	15	34	54	112	168.0	-199087.0	23243.0	2734.0
4	15	34	54	113	169.0	-197743.0	23206.0	2556.0
4	15	34	54	153	170.0	-196168.0	23166.0	2784.0
4	15	34	54	154	171.0	-194699.0	23109.0	2753.0
4	15	34	54	155	186.0	-189203.0	22402.0	2351.0
4	15	34	54	156	187.0	-189846.0	22341.0	2756.0
4	15	34	54	197	188.0	-190536.0	22286.0	2666.0
4	15	34	54	198	189.0	-191286.0	22247.0	2547.0
4	15	34	54	199	190.0	-192076.0	22184.0	2971.0
4	15	34	54	200	191.0	-193109.0	22115.0	2706.0
4	15	34	54	201	192.0	-194346.0	22081.0	2324.0
4	15	34	54	202	231.0	-187497.0	19608.0	1995.0
4	15	34	54	202	232.0	-187804.0	19542.0	2078.0
4	15	34	54	203	233.0	-188042.0	19501.0	2111.0
4	15	34	54	204	234.0	-188216.0	19449.0	1934.0
4	15	34	54	204	235.0	-188241.0	19383.0	2524.0
4	15	34	54	205	236.0	-188267.0	19327.0	2503.0
4	15	34	54	206	237.0	-188436.0	19261.0	2496.0
4	15	34	54	241	254.0	-193888.0	18141.0	1681.0
4	15	34	54	242	255.0	-193662.0	18098.0	1883.0
4	15	34	54	243	0.0	-193412.0	18048.0	2318.0
4	15	34	54	244	1.0	-193183.0	17969.0	1920.0
4	15	34	54	244	20.0	-188922.0	16804.0	2364.0
4	15	34	54	245	21.0	-189670.0	16741.0	2196.0
4	15	34	54	246	22.0	-190252.0	16694.0	1999.0
4	15	34	54	247	23.0	-190550.0	16634.0	2464.0
4	15	34	54	247	24.0	-190926.0	16568.0	2179.0
4	15	34	54	248	25.0	-191369.0	16515.0	1763.0
4	15	34	54	249	26.0	-191703.0	16456.0	1581.0
4	15	34	54	249	27.0	-191997.0	16390.0	1343.0
4	15	34	54	250	28.0	-192062.0	16336.0	1173.0
4	15	34	54	251	29.0	-192006.0	16283.0	1526.0
4	15	34	54	251	30.0	-192093.0	16233.0	1569.0
4	15	34	54	252	31.0	-192121.0	16182.0	1668.0
4	15	34	54	253	43.0	-190442.0	15480.0	751.0
4	15	34	54	253	44.0	-190669.0	15407.0	609.0
4	15	34	54	254	45.0	-191024.0	15355.0	574.0
4	15	34	54	255	46.0	-191469.0	15319.0	501.0
4	15	34	54	287	47.0	-191859.0	15269.0	664.0
4	15	34	54	288	48.0	-192297.0	15225.0	688.0
4	15	34	54	289	49.0	-192822.0	15168.0	1440.0
4	15	34	54	290	50.0	-193680.0	15110.0	1699.0
4	15	34	54	290	51.0	-194712.0	15049.0	1585.0
4	15	34	54	291	52.0	-195704.0	15003.0	1621.0
4	15	34	54	292	53.0	-196746.0	14938.0	1343.0
4	15	34	54	293	54.0	-197884.0	14868.0	939.0
4	15	34	54	293	55.0	-199340.0	14804.0	1379.0
4	15	34	54	294	56.0	-200964.0	14759.0	867.0
4	15	34	54	295	57.0	-202483.0	14712.0	788.0
4	15	34	54	296	58.0	-203936.0	14661.0	1581.0
4	15	34	54	296	59.0	-205476.0	14606.0	2061.0
4	15	34	54	297	60.0	-206931.0	14533.0	1951.0
4	15	34	54	298	61.0	-208329.0	14467.0	1866.0
4	15	34	54	298	62.0	-209641.0	14424.0	2181.0
4	15	34	54	299	65.0	-211649.0	14224.0	1978.0
4	15	34	54	300	66.0	-211664.0	14189.0	1446.0
4	15	34	54	300	67.0	-211431.0	14163.0	1516.0
4	15	34	54	301	68.0	-210915.0	14116.0	1463.0
4	15	34	54	302	69.0	-210165.0	14054.0	1844.0
4	15	34	54	302	70.0	-209173.0	13996.0	2068.0
4	15	34	54	303	71.0	-207886.0	13940.0	2041.0
4	15	34	54	333	72.0	-206367.0	13900.0	2329.0
4	15	34	54	334	73.0	-204602.0	13844.0	2911.0
4	15	34	54	335	74.0	-203061.0	13774.0	2123.0
4	15	34	54	336	75.0	-201730.0	13724.0	1920.0
4	15	34	54	337	76.0	-200466.0	13683.0	1682.0
4	15	34	54	337	77.0	-199223.0	13634.0	1298.0
4	15	34	54	338	78.0	-198204.0	13561.0	1294.0
4	15	34	54	339	79.0	-197476.0	13519.0	1681.0
4	15	34	54	340	80.0	-196819.0	13457.0	1677.0
4	15	34	54	340	81.0	-196057.0	13389.0	1793.0
4	15	34	54	341	82.0	-195001.0	13342.0	1698.0
4	15	34	54	342	83.0	-194025.0	13269.0	1809.0
4	15	34	54	342	84.0	-193387.0	13209.0	1374.0
4	15	34	54	343	85.0	-193024.0	13154.0	1406.0
4	15	34	54	344	86.0	-192704.0	13105.0	1180.0
4	15	34	54	345	87.0	-192574.0	13049.0	1109.0
4	15	34	54	345	88.0	-192477.0	13004.0	1089.0
4	15	34	54	346	89.0	-192622.0	12951.0	1284.0
4	15	34	54	346	90.0	-193163.0	12910.0	679.0
4	15	34	54	347	91.0	-193792.0	12847.0	416.0
4	15	34	54	348	92.0	-194289.0	12794.0	476.0
4	15	34	54	348	93.0	-194791.0	12716.0	88.0
4	15	34	54	378	94.0	-195519.0	12667.0	-551.0
4	15	34	54	378	95.0	-196374.0	12615.0	-1479.0
4	15	34	54	379	96.0	-197197.0	12583.0	-3919.0
4	15	34	54	380	97.0	-197940.0	12544.0	-5529.0
4	15	34	54	381	98.0	-198695.0	12481.0	-6972.0
4	15	34	54	381	99.0	-199574.0	12419.0	-9197.0
4	15	34	54	382	100.0	-200306.0	12363.0	-12219.0
4	15	34	54	422	101.0	-200872.0	12302.0	-14994.0
4	15	34	54	433	102.0	-201267.0	12239.0	-18542.0
4	15	34	54	434	103.0	-201292.0	12147.0	-22941.0
4	15	34	54	435	104.0	-200846.0	12093.0	-27601.0
4	15	34	54	436	105.0	-199869.0	12052.0	-30573.0
4	15	34	54	436	106.0	-198417.0	12015.0	-31804.0
4	15	34	54	437	107.0	-196777.0	11938.0	-32589.0
4	15	34	54	468	108.0	-195062.0	11879.0	-33182.0
4	15	34	54	469	110.0	-192064.0	11773.0	-29984.0
4	15	34	54	470	111.0	-190640.0	11721.0	-27149.0
4	15	34	54	513	112.0	-189397.0	11651.0	-23286.0
4	15	34	54	514	113.0	-188457.0	11573.0	-18589.0
4	15	34	54	515	114.0	-187910.0	11526.0	-12590.0
4	15	34	54	515	115.0	-188158.0	11477.0	-5418.0
4	15	34	54	516	116.0	-189188.0	11434.0	-1952.0
4	15	34	54	517	117.0	-190727.0	11381.0	-1368.0
4	15	34	54	517	133.0	-197929.0	10410.0	-293.0
4	15	34	54	558	134.0	-197291.0	10368.0	-521.0
4	15	34	54	559	135.0	-196821.0	10331.0	-594.0
4	15	34	54	559	136.0	-196353.0	10290.0	-752.0
4	15	34	54	560	137.0	-194648.0	10239.0	-519.0
4	15	34	54	561	138.0	-192244.0	10178.0	-339.0
4	15	34	54	562	139.0	-189707.0	10107.0	-401.0
4	15	34	54	562	155.0	-216021.0	9223.0	-1633.0
4	15	34	54	563	156.0	-217633.0	9173.0	-1766.0
4	15	34	54	564	157.0	-219192.0	9131.0	-1759.0
4	15	34	54	565	177.0	-194692.0	8001.0	-3007.0
4	15	34	54	565	178.0	-195455.0	7969.0	-3521.0
4	15	34	54	566	179.0	-196783.0	7907.0	-3412.0
4	15	34	54	648	180.0	-198591.0	7857.0	-3359.0
4	15	34	54	649	181.0	-200652.0	7822.0	-3462.0
4	15	34	54	650	182.0	-203024.0	7760.0	-2946.0
4	15	34	54	651	183.0	-205804.0	7694.0	-3053.0
4	15	34	54	651	200.0	-210964.0	6824.0	-4485.0
4	15	34	54	693	201.0	-209217.0	6789.0	-4971.0
4	15	34	54	694	202.0	-207397.0	6743.0	-5053.0
4	15	34	54	695	203.0	-205482.0	6697.0	-4829.0
4	15	34	54	738	204.0	-203565.0	6658.0	-5093.0
4	15	34	54	739	205.0	-201668.0	6633.0	-5432.0
4	15	34	54	740	206.0	-199897.0	6617.0	-5378.0
4	15	34	54	741	207.0	-198122.0	6586.0	-5471.0
4	15	34	54	742	208.0	-196905.0	6523.0	-5356.0
4	15	34	54	742	209.0	-196049.0	6478.0	-5292.0
4	15	34	54	743	210.0	-195447.0	6451.0	-5274.0
4	15	34	54	784	222.0	-198016.0	6371.0	-5674.0
4	15	34	54	785	245.0	-209174.0	7679.0	-6196.0
4	15	34	54	785	246.0	-209401.0	7744.0	-6034.0
4	15	34	54	786	247.0	-209457.0	7825.0	-6112.0
4	15	34	54	787	248.0	-209495.0	7904.0	-5806.0
4	15	34	54	787	249.0	-209713.0	7981.0	-5457.0
4	15	34	54	788	11.0	-201526.0	9031.0	-3998.0
4	15	34	54	828	12.0	-201082.0	9059.0	-3691.0
4	15	34	54	829	13.0	-200508.0	9103.0	-3196.0
4	15	34	54	830	34.0	-207807.0	9639.0	-299.0
4	15	34	54	831	35.0	-207384.0	9641.0	604.0
4	15	34	54	832	36.0	-206299.0	9647.0	782.0
4	15	34	54	832	37.0	-205101.0	9663.0	246.0
4	15	34	54	833	38.0	-203639.0	9674.0	337.0
4	15	34	54	872	39.0	-201445.0	9693.0	470.0
4	15	34	54	873	40.0	-199281.0	9702.0	437.0
4	15	34	54	874	56.0	-184839.0	9712.0	1086.0
4	15	34	54	875	57.0	-184307.0	9716.0	1096.0
4	15	34	54	876	58.0	-184026.0	9749.0	782.0
4	15	34	54	876	59.0	-183821.0	9768.0	619.0
4	15	34	54	877	60.0	-183892.0	9768.0	584.0
4	15	34	54	878	61.0	-183985.0	9756.0	294.0
4	15	34	54	879	62.0	-184180.0	9760.0	749.0
4	15	34	54	880	79.0	-200533.0	9661.0	1055.0
4	15	34	54	881	80.0	-201809.0	9679.0	703.0
4	15	34	54	882	81.0	-203186.0	9671.0	1115.0
4	15	34	54	883	82.0	-204635.0	9636.0	1338.0
4	15	34	54	884	83.0	-205999.0	9640.0	1041.0
4	15	34	54	885	84.0	-206999.0	9627.0	1419.0
4	15	34	54	886	85.0	-207857.0	9598.0	1894.0
4	15	34	54	886	101.0	-200129.0	9397.0	1374.0
4	15	34	54	887	102.0	-199906.0	9364.0	1806.0
4	15	34	54	888	103.0	-199763.0	9367.0	1601.0
4	15	34	54	889	104.0	-199847.0	9364.0	1505.0
4	15	34	54	889	105.0	-199929.0	9343.0	2175.0
4	15	34	54	890	106.0	-199905.0	9343.0	1936.0
4	15	34	54	890	107.0	-199882.0	9339.0	1986.0
4	15	34	54	918	108.0	-199858.0	9331.0	2127.0
4	15	34	54	919	109.0	-199637.0	9328.0	1596.0
4	15	34	54	920	110.0	-199064.0	9336.0	1363.0
4	15	34	54	921	111.0	-198269.0	9310.0	2144.0
4	15	34	54	922	112.0	-197545.0	9293.0	1991.0
4	15	34	54	923	113.0	-197037.0	9286.0	1775.0
4	15	34	54	923	114.0	-196581.0	9274.0	2065.0
4	15	34	54	924	115.0	-196191.0	9241.0	2164.0
4	15	34	54	925	116.0	-196132.0	9228.0	1558.0
4	15	34	54	926	117.0	-196250.0	9218.0	2230.0
4	15	34	54	926	118.0	-196465.0	9206.0	2219.0
4	15	34	54	927	119.0	-196865.0	9199.0	1644.0
4	15	34	54	928	120.0	-197474.0	9195.0	1716.0
4	15	34	54	929	121.0	-198196.0	9156.0	2042.0
4	15	34	54	929	122.0	-199040.0	9167.0	1984.0
4	15	34	54	930	123.0	-199939.0	9148.0	1777.0
4	15	34	54	931	124.0	-200729.0	9119.0	1979.0
4	15	34	54	931	125.0	-201634.0	9091.0	2042.0
4	15	34	54	932	126.0	-202492.0	9066.0	2036.0
4	15	34	54	932	127.0	-203532.0	9066.0	2221.0
4	15	34	54	933	128.0	-204304.0	9084.0	2009.0
4	15	34	54	934	129.0	-204682.0	9069.0	1627.0
4	15	34	54	963	130.0	-204861.0	9038.0	1703.0
4	15	34	54	964	131.0	-205142.0	9028.0	1873.0
4	15	34	54	965	132.0	-205564.0	8988.0	2024.0
4	15	34	54	966	133.0	-205915.0	8958.0	2079.0
4	15	34	54	967	134.0	-206152.0	8959.0	2139.0
4	15	34	54	967	135.0	-206111.0	8908.0	2251.0
4	15	34	54	968	136.0	-205809.0	8894.0	1969.0
4	15	34	54	969	137.0	-205143.0	8879.0	1664.0
4	15	34	54	970	138.0	-204057.0	8856.0	1605.0
4	15	34	54	971	139.0	-202936.0	8821.0	1810.0
4	15	34	54	971	140.0	-201787.0	8799.0	1910.0
4	15	34	54	972	141.0	-200713.0	8776.0	1998.0
4	15	34	54	973	142.0	-199909.0	8743.0	2136.0
4	15	34	54	973	143.0	-198994.0	8704.0	1646.0
4	15	34	54	974	144.0	-197887.0	8685.0	1978.0
4	15	34	54	975	146.0	-195102.0	8623.0	1403.0
4	15	34	54	975	147.0	-193656.0	8581.0	1669.0
4	15	34	54	976	148.0	-192342.0	8563.0	1762.0
4	15	34	54	977	149.0	-190991.0	8554.0	1541.0
4	15	34	54	977	150.0	-190107.0	8530.0	1809.0
4	15	34	54	978	151.0	-189531.0	8489.0	2079.0
4	15	34	55	7	152.0	-189202.0	8443.0	1813.0
4	15	34	55	8	153.0	-188999.0	8420.0	1915.0
4	15	34	55	9	154.0	-188816.0	8397.0	2156.0
4	15	34	55	10	155.0	-188747.0	8353.0	2052.0
4	15	34	55	10	156.0	-188651.0	8308.0	1334.0
4	15	34	55	11	157.0	-188664.0	8278.0	1661.0
4	15	34	55	12	158.0	-189059.0	8259.0	1573.0
4	15	34	55	13	159.0	-189674.0	8218.0	1306.0
4	15	34	55	14	160.0	-190702.0	8208.0	1456.0
4	15	34	55	14	161.0	-191883.0	8168.0	1659.0
4	15	34	55	15	162.0	-192915.0	8111.0	1811.0
4	15	34	55	16	163.0	-194111.0	8078.0	2108.0
4	15	34	55	17	164.0	-195166.0	8026.0	2108.0
4	15	34	55	18	165.0	-196063.0	7961.0	2208.0
4	15	34	55	19	166.0	-197300.0	7937.0	1966.0
4	15	34	55	19	168.0	-200051.0	7870.0	1794.0
4	15	34	55	20	169.0	-201370.0	7849.0	1478.0
4	15	34	55	21	170.0	-202738.0	7814.0	1611.0
4	15	34	55	22	171.0	-203824.0	7755.0	2023.0
4	15	34	55	22	172.0	-204772.0	7726.0	2016.0
4	15	34	55	23	173.0	-205375.0	7706.0	1781.0
4	15	34	55	24	174.0	-205472.0	7682.0	1987.0
4	15	34	55	52	175.0	-205322.0	7621.0	1944.0
4	15	34	55	53	176.0	-204924.0	7572.0	1692.0
4	15	34	55	54	177.0	-204314.0	7524.0	1735.0
4	15	34	55	54	178.0	-203603.0	7499.0	1413.0
4	15	34	55	55	179.0	-203024.0	7483.0	1367.0
4	15	34	55	55	180.0	-202487.0	7423.0	1601.0
4	15	34	55	56	181.0	-202171.0	7378.0	1939.0
4	15	34	55	57	182.0	-201927.0	7340.0	1881.0
4	15	34	55	57	183.0	-201541.0	7283.0	1534.0
4	15	34	55	58	184.0	-201249.0	7230.0	2236.0
4	15	34	55	58	185.0	-200786.0	7174.0	2149.0
4	15	34	55	59	186.0	-200231.0	7134.0	1853.0
4	15	34	55	60	187.0	-199654.0	7089.0	1607.0
4	15	34	55	60	188.0	-198780.0	7048.0	1018.0
4	15	34	55	61	189.0	-197832.0	7009.0	889.0
4	15	34	55	61	191.0	-196325.0	6905.0	2161.0
4	15	34	55	62	192.0	-195954.0	6860.0	1828.0
4	15	34	55	63	193.0	-195628.0	6822.0	2049.0
4	15	34	55	63	194.0	-195405.0	6765.0	2689.0
4	15	34	55	64	195.0	-195397.0	6718.0	1731.0
4	15	34	55	64	196.0	-195370.0	6702.0	1976.0
4	15	34	55	97	197.0	-195599.0	6664.0	1766.0
4	15	34	55	98	198.0	-195817.0	6623.0	1130.0
4	15	34	55	98	199.0	-195836.0	6588.0	1562.0
4	15	34	55	99	200.0	-195876.0	6541.0	1998.0
4	15	34	55	100	201.0	-196291.0	6476.0	2169.0
4	15	34	55	101	202.0	-196802.0	6416.0	1978.0
4	15	34	55	101	203.0	-197246.0	6383.0	1839.0
4	15	34	55	102	204.0	-197535.0	6325.0	2323.0
4	15	34	55	103	205.0	-197489.0	6258.0	2291.0
4	15	34	55	103	206.0	-197524.0	6226.0	2028.0
4	15	34	55	104	207.0	-197607.0	6171.0	1683.0
4	15	34	55	105	208.0	-197587.0	6136.0	1464.0
4	15	34	55	105	209.0	-197510.0	6080.0	1523.0
4	15	34	55	106	210.0	-197672.0	6034.0	1634.0
4	15	34	55	106	211.0	-198295.0	5971.0	1726.0
4	15	34	55	107	213.0	-199757.0	5871.0	1518.0
4	15	34	55	143	214.0	-200064.0	5807.0	1846.0
4	15	34	55	144	215.0	-199825.0	5759.0	2007.0
4	15	34	55	144	216.0	-199546.0	5718.0	1959.0
4	15	34	55	145	217.0	-199097.0	5691.0	1809.0
4	15	34	55	146	218.0	-198311.0	5664.0	1363.0
4	15	34	55	146	219.0	-197614.0	5619.0	1253.0
4	15	34	55	147	220.0	-197058.0	5562.0	1739.0
4	15	34	55	148	221.0	-196700.0	5504.0	1634.0
4	15	34	55	148	222.0	-196634.0	5457.0	1529.0
4	15	34	55	149	223.0	-196338.0	5409.0	1721.0
4	15	34	55	149	224.0	-196104.0	5336.0	1744.0
4	15	34	55	150	225.0	-196374.0	5281.0	1831.0
4	15	34	55	151	226.0	-196724.0	5244.0	1777.0
4	15	34	55	151	227.0	-196812.0	5210.0	1171.0
4	15	34	55	152	228.0	-196644.0	5173.0	934.0
4	15	34	55	152	236.0	-196767.0	4751.0	1918.0
4	15	34	55	153	237.0	-196797.0	4709.0	1046.0
4	15	34	55	154	238.0	-196898.0	4691.0	1159.0
4	15	34	55	154	239.0	-196936.0	4659.0	1313.0
4	15	34	55	155	240.0	-196914.0	4599.0	1467.0
4	15	34	55	155	241.0	-197049.0	4554.0	1340.0
4	15	34	55	188	242.0	-197209.0	4503.0	1459.0
4	15	34	55	189	243.0	-197486.0	4476.0	1460.0
4	15	34	55	190	244.0	-197730.0	4412.0	2068.0
4	15	34	55	190	245.0	-197828.0	4366.0	1769.0
4	15	34	55	191	246.0	-197716.0	4319.0	1398.0
4	15	34	55	192	247.0	-197557.0	4276.0	1229.0
4	15	34	55	192	248.0	-197277.0	4243.0	1176.0
4	15	34	55	193	249.0	-197049.0	4198.0	1295.0
4	15	34	55	194	250.0	-196988.0	4139.0	1626.0
4	15	34	55	194	251.0	-197069.0	4084.0	1843.0
4	15	34	55	195	252.0	-196774.0	4029.0	1735.0
4	15	34	55	195	253.0	-196514.0	3972.0	1613.0
4	15	34	55	196	254.0	-196216.0	3920.0	2041.0
4	15	34	55	197	255.0	-196399.0	3876.0	1730.0
4	15	34	55	197	0.0	-196852.0	3838.0	1500.0
4	15	34	55	198	2.0	-197396.0	3741.0	1198.0
4	15	34	55	198	3.0	-197578.0	3683.0	1294.0
4	15	34	55	199	4.0	-197691.0	3638.0	1668.0
4	15	34	55	200	5.0	-197737.0	3604.0	1750.0
4	15	34	55	200	6.0	-197666.0	3555.0	1462.0
4	15	34	55	201	7.0	-197571.0	3508.0	1365.0
4	15	34	55	201	8.0	-197357.0	3438.0	1610.0
4	15	34	55	233	9.0	-197311.0	3402.0	1224.0
4	15	34	55	234	10.0	-197221.0	3369.0	1046.0
4	15	34	55	235	11.0	-196929.0	3324.0	884.0
4	15	34	55	235	12.0	-196569.0	3293.0	1266.0
4	15	34	55	236	13.0	-196205.0	3240.0	1384.0
4	15	34	55	237	14.0	-195906.0	3173.0	1169.0
4	15	34	55	237	15.0	-195826.0	3127.0	1200.0
4	15	34	55	238	16.0	-195553.0	3078.0	1597.0
4	15	34	55	238	17.0	-195379.0	3021.0	1281.0
4	15	34	55	239	18.0	-195629.0	2943.0	1217.0
4	15	34	55	240	19.0	-196037.0	2916.0	1389.0
4	15	34	55	240	20.0	-196471.0	2889.0	1305.0
4	15	34	55	241	21.0	-197075.0	2834.0	999.0
4	15	34	55	242	22.0	-197580.0	2791.0	1094.0
4	15	34	55	242	23.0	-197897.0	2755.0	1227.0
4	15	34	55	243	25.0	-198958.0	2643.0	1790.0
4	15	34	55	243	26.0	-199516.0	2602.0	1716.0
4	15	34	55	244	27.0	-200017.0	2569.0	1347.0
4	15	34	55	244	28.0	-200277.0	2511.0	1573.0
4	15	34	55	245	29.0	-200103.0	2476.0	1464.0
4	15	34	55	246	30.0	-200029.0	2430.0	1204.0
4	15	34	55	277	31.0	-200071.0	2393.0	1169.0
4	15	34	55	278	32.0	-199978.0	2362.0	1273.0
4	15	34	55	278	33.0	-199853.0	2326.0	1219.0
4	15	34	55	279	34.0	-200126.0	2281.0	1327.0
4	15	34	55	280	35.0	-200494.0	2210.0	1613.0
4	15	34	55	280	36.0	-200672.0	2160.0	1486.0
4	15	34	55	281	37.0	-201067.0	2114.0	1312.0
4	15	34	55	281	38.0	-201541.0	2056.0	1308.0
4	15	34	55	282	39.0	-202018.0	2018.0	746.0
4	15	34	55	283	40.0	-202309.0	1968.0	918.0
4	15	34	55	283	41.0	-202326.0	1947.0	763.0
4	15	34	55	284	42.0	-202134.0	1902.0	428.0
4	15	34	55	285	43.0	-202012.0	1850.0	947.0
4	15	34	55	285	44.0	-202052.0	1781.0	1018.0
4	15	34	55	286	45.0	-202007.0	1727.0	655.0
4	15	34	55	287	47.0	-201085.0	1621.0	713.0
4	15	34	55	287	48.0	-200344.0	1557.0	654.0
4	15	34	55	288	49.0	-199599.0	1533.0	739.0
4	15	34	55	288	50.0	-198819.0	1511.0	177.0
4	15	34	55	289	51.0	-198176.0	1466.0	27.0
4	15	34	55	290	52.0	-197719.0	1435.0	258.0
4	15	34	55	322	53.0	-197627.0	1391.0	439.0
4	15	34	55	323	54.0	-197783.0	1359.0	39.0
4	15	34	55	324	55.0	-197945.0	1309.0	683.0
4	15	34	55	324	56.0	-197951.0	1246.0	857.0
4	15	34	55	325	57.0	-197958.0	1187.0	1140.0
4	15	34	55	326	58.0	-198113.0	1124.0	1506.0
4	15	34	55	326	59.0	-198307.0	1093.0	1458.0
4	15	34	55	327	60.0	-198449.0	1059.0	988.0
4	15	34	55	328	61.0	-198472.0	1008.0	864.0
4	15	34	55	328	62.0	-198392.0	961.0	1195.0
4	15	34	55	329	63.0	-198204.0	923.0	899.0
4	15	34	55	330	64.0	-198074.0	884.0	670.0
4	15	34	55	330	65.0	-198106.0	829.0	1163.0
4	15	34	55	331	66.0	-197901.0	761.0	1116.0
4	15	34	55	332	67.0	-197646.0	721.0	1602.0
4	15	34	55	332	70.0	-198146.0	584.0	1486.0
4	15	34	55	333	71.0	-198449.0	559.0	1326.0
4	15	34	55	333	72.0	-198562.0	515.0	1258.0
4	15	34	55	334	73.0	-198567.0	470.0	1520.0
4	15	34	55	335	74.0	-198690.0	424.0	1776.0
4	15	34	55	335	75.0	-198544.0	385.0	1674.0
4	15	34	55	373	76.0	-198196.0	342.0	1569.0
4	15	34	55	374	77.0	-197996.0	286.0	2081.0
4	15	34	55	375	78.0	-197939.0	246.0	1721.0
4	15	34	55	375	79.0	-198007.0	208.0	1518.0
4	15	34	55	376	80.0	-198275.0	162.0	1071.0
4	15	34	55	377	81.0	-198489.0	119.0	831.0
4	15	34	55	377	82.0	-198524.0	89.0	890.0
4	15	34	55	378	83.0	-198572.0	34.0	1168.0
4	15	34	55	378	84.0	-198616.0	-26.0	1219.0
4	15	34	55	379	85.0	-198526.0	-56.0	1286.0
4	15	34	55	412	86.0	-198339.0	-104.0	1079.0
4	15	34	55	413	87.0	-198147.0	-171.0	1370.0
4	15	34	55	414	88.0	-198115.0	-234.0	1549.0
4	15	34	55	415	89.0	-198205.0	-262.0	1370.0
4	15	34	55	416	90.0	-198532.0	-296.0	521.0
4	15	34	55	416	92.0	-199843.0	-363.0	1070.0
4	15	34	55	417	93.0	-201091.0	-399.0	910.0
4	15	34	55	418	94.0	-202820.0	-452.0	1273.0
4	15	34	55	418	95.0	-204764.0	-497.0	1441.0
4	15	34	55	419	96.0	-206631.0	-537.0	880.0
4	15	34	55	420	97.0	-208184.0	-575.0	1514.0
4	15	34	55	420	98.0	-209417.0	-636.0	1180.0
4	15	34	55	421	99.0	-210281.0	-666.0	146.0
4	15	34	55	422	100.0	-210633.0	-714.0	-562.0
4	15	34	55	422	101.0	-210534.0	-744.0	-154.0
4	15	34	55	423	102.0	-210196.0	-778.0	-54.0
4	15	34	55	424	115.0	-189655.0	-1363.0	-29339.0
4	15	34	55	424	116.0	-186369.0	-1395.0	-31297.0
4	15	34	55	425	117.0	-183700.0	-1439.0	-33201.0
4	15	34	55	426	118.0	-181736.0	-1498.0	-33967.0
4	15	34	55	426	119.0	-180663.0	-1522.0	-33002.0
4	15	34	55	427	120.0	-180184.0	-1547.0	-29909.0
4	15	34	55	457	121.0	-180169.0	-1561.0	-25341.0
4	15	34	55	458	122.0	-180570.0	-1596.0	-20489.0
4	15	34	55	459	123.0	-181391.0	-1642.0	-13706.0
4	15	34	55	460	124.0	-182370.0	-1683.0	-5907.0
4	15	34	55	460	125.0	-183689.0	-1721.0	-2463.0
4	15	34	55	461	126.0	-185687.0	-1763.0	-1163.0
4	15	34	55	462	127.0	-187475.0	-1821.0	301.0
4	15	34	55	462	128.0	-182871.0	-1866.0	1658.0
4	15	34	55	463	129.0	-171157.0	-1912.0	2503.0
4	15	34	55	464	130.0	-157937.0	-1941.0	2305.0
4	15	34	55	464	131.0	-152735.0	-1983.0	1777.0
4	15	34	55	465	132.0	-158919.0	-2038.0	591.0
4	15	34	55	466	133.0	-170940.0	-2074.0	-67.0
4	15	34	55	466	134.0	-183381.0	-2111.0	-11.0
4	15	34	55	467	135.0	-193074.0	-2146.0	-546.0
4	15	34	55	468	137.0	-199361.0	-2256.0	-1263.0
4	15	34	55	468	138.0	-197453.0	-2288.0	-814.0
4	15	34	55	469	139.0	-196056.0	-2323.0	-1145.0
4	15	34	55	470	140.0	-196541.0	-2328.0	-1646.0
4	15	34	55	470	141.0	-200247.0	-2367.0	-1019.0
4	15	34	55	471	142.0	-207439.0	-2395.0	-1338.0
4	15	34	55	501	143.0	-213555.0	-2421.0	-756.0
4	15	34	55	503	144.0	-215319.0	-2474.0	-801.0
4	15	34	55	504	145.0	-212514.0	-2516.0	-1106.0
4	15	34	55	505	146.0	-205927.0	-2558.0	-599.0
4	15	34	55	505	147.0	-198478.0	-2602.0	-212.0
4	15	34	55	506	148.0	-192702.0	-2651.0	-526.0
4	15	34	55	507	149.0	-188116.0	-2679.0	-809.0
4	15	34	55	508	150.0	-188217.0	-2721.0	-1151.0
4	15	34	55	509	151.0	-191572.0	-2757.0	-1201.0
4	15	34	55	509	152.0	-197385.0	-2797.0	-1161.0
4	15	34	55	510	153.0	-204898.0	-2844.0	-986.0
4	15	34	55	511	154.0	-211221.0	-2884.0	-925.0
4	15	34	55	511	155.0	-214500.0	-2946.0	-1252.0
4	15	34	55	512	156.0	-215320.0	-2980.0	-1029.0
4	15	34	55	513	157.0	-214392.0	-3051.0	-369.0
4	15	34	55	514	159.0	-210587.0	-3122.0	-1452.0
4	15	34	55	514	160.0	-209245.0	-3135.0	-1629.0
4	15	34	55	515	161.0	-207822.0	-3158.0	-2227.0
4	15	34	55	515	162.0	-206789.0	-3206.0	-2027.0
4	15	34	55	516	163.0	-207221.0	-3242.0	-1692.0
4	15	34	55	517	164.0	-209359.0	-3299.0	-1522.0
4	15	34	55	518	165.0	-212354.0	-3344.0	-1726.0
4	15	34	55	546	166.0	-215581.0	-3372.0	-1791.0
4	15	34	55	546	167.0	-217581.0	-3411.0	-1369.0
4	15	34	55	547	168.0	-218013.0	-3453.0	-1814.0
4	15	34	55	548	169.0	-217031.0	-3476.0	-2237.0
4	15	34	55	549	170.0	-214504.0	-3511.0	-2317.0
4	15	34	55	549	171.0	-211067.0	-3544.0	-2479.0
4	15	34	55	550	172.0	-207486.0	-3601.0	-2612.0
4	15	34	55	558	173.0	-204340.0	-3656.0	-2430.0
4	15	34	55	558	174.0	-201308.0	-3698.0	-2496.0
4	15	34	55	559	175.0	-198527.0	-3730.0	-2964.0
4	15	34	55	560	176.0	-195826.0	-3777.0	-2899.0
4	15	34	55	560	177.0	-192839.0	-3829.0	-2297.0
4	15	34	55	561	178.0	-189884.0	-3872.0	-2626.0
4	15	34	55	562	179.0	-187530.0	-3911.0	-3009.0
4	15	34	55	562	180.0	-185899.0	-3956.0	-2794.0
4	15	34	55	563	182.0	-184484.0	-3991.0	-3419.0
4	15	34	55	564	183.0	-184768.0	-4049.0	-2654.0
4	15	34	55	564	184.0	-186309.0	-4103.0	-2909.0
4	15	34	55	565	185.0	-188629.0	-4131.0	-3386.0
4	15	34	55	566	186.0	-190946.0	-4172.0	-3453.0
4	15	34	55	566	187.0	-192932.0	-4217.0	-3315.0
4	15	34	55	592	188.0	-195004.0	-4261.0	-3771.0
4	15	34	55	592	189.0	-197262.0	-4269.0	-3611.0
4	15	34	55	593	190.0	-199341.0	-4293.0	-3869.0
4	15	34	55	594	191.0	-201177.0	-4326.0	-4082.0
4	15	34	55	595	192.0	-203409.0	-4369.0	-3976.0
4	15	34	55	595	193.0	-205944.0	-4430.0	-3913.0
4	15	34	55	596	194.0	-208477.0	-4471.0	-4069.0
4	15	34	55	597	195.0	-210566.0	-4501.0	-4087.0
4	15	34	55	598	196.0	-212166.0	-4550.0	-3904.0
4	15	34	55	598	197.0	-214311.0	-4599.0	-4071.0
4	15	34	55	599	198.0	-216696.0	-4636.0	-4391.0
4	15	34	55	600	199.0	-218434.0	-4667.0	-4389.0
4	15	34	55	601	200.0	-219425.0	-4699.0	-4594.0
4	15	34	55	602	201.0	-219802.0	-4742.0	-4786.0
4	15	34	55	603	202.0	-220072.0	-4775.0	-4618.0
4	15	34	55	604	204.0	-220497.0	-4875.0	-4445.0
4	15	34	55	604	205.0	-220068.0	-4917.0	-5047.0
4	15	34	55	605	206.0	-219229.0	-4947.0	-5107.0
4	15	34	55	606	207.0	-218073.0	-4987.0	-4674.0
4	15	34	55	606	208.0	-216531.0	-5001.0	-5540.0
4	15	34	55	607	209.0	-214702.0	-5032.0	-5502.0
4	15	34	55	607	210.0	-212667.0	-5068.0	-5098.0
4	15	34	55	608	211.0	-210511.0	-5081.0	-5287.0
4	15	34	55	638	212.0	-208517.0	-5091.0	-5379.0
4	15	34	55	638	213.0	-206528.0	-5104.0	-5049.0
4	15	34	55	639	214.0	-204299.0	-5150.0	-5407.0
4	15	34	55	640	215.0	-201874.0	-5182.0	-6019.0
4	15	34	55	641	216.0	-199454.0	-5218.0	-5459.0
4	15	34	55	641	217.0	-196837.0	-5239.0	-5507.0
4	15	34	55	642	218.0	-194614.0	-5266.0	-6453.0
4	15	34	55	643	219.0	-193049.0	-5281.0	-6612.0
4	15	34	55	643	220.0	-191602.0	-5284.0	-6462.0
4	15	34	55	644	221.0	-190139.0	-5305.0	-6599.0
4	15	34	55	645	222.0	-189083.0	-5320.0	-6326.0
4	15	34	55	645	223.0	-188564.0	-5324.0	-5954.0
4	15	34	55	646	224.0	-188428.0	-5314.0	-6213.0
4	15	34	55	647	225.0	-188594.0	-5321.0	-6536.0
4	15	34	55	647	226.0	-188916.0	-5333.0	-5670.0
4	15	34	55	648	227.0	-189324.0	-5331.0	-5837.0
4	15	34	55	648	228.0	-189686.0	-5307.0	-6353.0
4	15	34	55	649	229.0	-189736.0	-5261.0	-5950.0
4	15	34	55	650	230.0	-189781.0	-5216.0	-6426.0
4	15	34	55	650	231.0	-190207.0	-5192.0	-6861.0
4	15	34	55	651	232.0	-190673.0	-5161.0	-6399.0
4	15	34	55	682	233.0	-191052.0	-5114.0	-6398.0
4	15	34	55	683	234.0	-191351.0	-5082.0	-6457.0
4	15	34	55	707	235.0	-191922.0	-5037.0	-6709.0
4	15	34	55	708	236.0	-192960.0	-5014.0	-6284.0
4	15	34	55	709	237.0	-194312.0	-4989.0	-6579.0
4	15	34	55	709	238.0	-195804.0	-4941.0	-6839.0
4	15	34	55	710	239.0	-197253.0	-4872.0	-7319.0
4	15	34	55	711	240.0	-198610.0	-4808.0	-7205.0
4	15	34	55	711	241.0	-199912.0	-4742.0	-7256.0
4	15	34	55	712	242.0	-201235.0	-4702.0	-7261.0
4	15	34	55	712	243.0	-202286.0	-4663.0	-7129.0
4	15	34	55	713	244.0	-203025.0	-4587.0	-7212.0
4	15	34	55	713	245.0	-203615.0	-4525.0	-7329.0
4	15	34	55	714	246.0	-204113.0	-4491.0	-6531.0
4	15	34	55	715	247.0	-204584.0	-4439.0	-6652.0
4	15	34	55	715	249.0	-204832.0	-4298.0	-7682.0
4	15	34	55	716	250.0	-204911.0	-4216.0	-7221.0
4	15	34	55	716	251.0	-205214.0	-4148.0	-7391.0
4	15	34	55	717	252.0	-205711.0	-4079.0	-7247.0
4	15	34	55	718	253.0	-206524.0	-4009.0	-6806.0
4	15	34	55	718	254.0	-207384.0	-3969.0	-7147.0
4	15	34	55	719	255.0	-207961.0	-3902.0	-7146.0
4	15	34	55	730	0.0	-208482.0	-3843.0	-5984.0
4	15	34	55	731	1.0	-209020.0	-3792.0	-6135.0
4	15	34	55	731	2.0	-209486.0	-3712.0	-6414.0
4	15	34	55	732	3.0	-209877.0	-3634.0	-6725.0
4	15	34	55	733	4.0	-210247.0	-3572.0	-6897.0
4	15	34	55	733	5.0	-210479.0	-3505.0	-6619.0
4	15	34	55	734	6.0	-210468.0	-3442.0	-5984.0
4	15	34	55	735	7.0	-210374.0	-3420.0	-5872.0
4	15	34	55	736	8.0	-210226.0	-3382.0	-6193.0
4	15	34	55	736	9.0	-210229.0	-3329.0	-6000.0
4	15	34	55	737	10.0	-210402.0	-3288.0	-5323.0
4	15	34	55	738	11.0	-210573.0	-3257.0	-5764.0
4	15	34	55	738	12.0	-210754.0	-3192.0	-6067.0
4	15	34	55	739	13.0	-210741.0	-3144.0	-6057.0
4	15	34	55	740	14.0	-210496.0	-3091.0	-6083.0
4	15	34	55	740	16.0	-210355.0	-3012.0	-5437.0
4	15	34	55	773	17.0	-210698.0	-2972.0	-5223.0
4	15	34	55	774	18.0	-210921.0	-2927.0	-5116.0
4	15	34	55	775	19.0	-210999.0	-2891.0	-4692.0
4	15	34	55	775	20.0	-210707.0	-2864.0	-4271.0
4	15	34	55	777	21.0	-210120.0	-2834.0	-4342.0
4	15	34	55	777	22.0	-209702.0	-2788.0	-4242.0
4	15	34	55	778	23.0	-209070.0	-2751.0	-4274.0
4	15	34	55	779	24.0	-207964.0	-2715.0	-4337.0
4	15	34	55	780	25.0	-206311.0	-2693.0	-4487.0
4	15	34	55	780	26.0	-203530.0	-2678.0	-3906.0
4	15	34	55	781	27.0	-198637.0	-2644.0	-3527.0
4	15	34	55	782	28.0	-190005.0	-2617.0	-3715.0
4	15	34	55	783	29.0	-182967.0	-2603.0	-3375.0
4	15	34	55	783	30.0	-186688.0	-2585.0	-2321.0
4	15	34	55	784	31.0	-192845.0	-2550.0	-2417.0
4	15	34	55	785	32.0	-198383.0	-2518.0	-2686.0
4	15	34	55	785	39.0	-193641.0	-2417.0	-1156.0
4	15	34	55	786	40.0	-193847.0	-2403.0	-725.0
4	15	34	55	787	41.0	-193924.0	-2381.0	-994.0
4	15	34	55	787	42.0	-194724.0	-2386.0	-817.0
4	15	34	55	788	43.0	-195385.0	-2359.0	-928.0
4	15	34	55	788	44.0	-195178.0	-2325.0	-938.0
4	15	34	55	818	45.0	-195049.0	-2304.0	-616.0
4	15	34	55	819	46.0	-195611.0	-2315.0	-90.0
4	15	34	55	819	47.0	-196726.0	-2302.0	-202.0
4	15	34	55	820	48.0	-198424.0	-2300.0	-122.0
4	15	34	55	821	49.0	-200333.0	-2264.0	271.0
4	15	34	55	822	50.0	-202184.0	-2274.0	436.0
4	15	34	55	823	51.0	-203454.0	-2270.0	116.0
4	15	34	55	824	52.0	-204266.0	-2264.0	199.0
4	15	34	55	824	53.0	-204654.0	-2237.0	-199.0
4	15	34	55	825	54.0	-204529.0	-2221.0	-324.0
4	15	34	55	826	55.0	-204307.0	-2226.0	-202.0
4	15	34	55	827	56.0	-203566.0	-2228.0	210.0
4	15	34	55	827	57.0	-202867.0	-2204.0	331.0
4	15	34	55	828	58.0	-201905.0	-2217.0	-53.0
4	15	34	55	829	59.0	-200790.0	-2209.0	-29.0
4	15	34	55	829	61.0	-198676.0	-2202.0	273.0
4	15	34	55	830	62.0	-197711.0	-2191.0	24.0
4	15	34	55	830	63.0	-196675.0	-2157.0	224.0
4	15	34	55	831	64.0	-195446.0	-2143.0	124.0
4	15	34	55	832	65.0	-194207.0	-2134.0	118.0
4	15	34	55	832	66.0	-193641.0	-2128.0	580.0
4	15	34	55	864	67.0	-193068.0	-2126.0	426.0
4	15	34	55	865	68.0	-192379.0	-2123.0	254.0
4	15	34	55	866	69.0	-192067.0	-2099.0	588.0
4	15	34	55	866	70.0	-191454.0	-2107.0	912.0
4	15	34	55	867	71.0	-190969.0	-2096.0	33.0
4	15	34	55	868	72.0	-190523.0	-2082.0	31.0
4	15	34	55	869	73.0	-190379.0	-2091.0	384.0
4	15	34	55	869	74.0	-190121.0	-2084.0	-172.0
4	15	34	55	870	75.0	-190219.0	-2071.0	255.0
4	15	34	55	871	76.0	-190776.0	-2059.0	588.0
4	15	34	55	872	77.0	-190999.0	-2059.0	245.0
4	15	34	55	872	78.0	-191271.0	-2040.0	340.0
4	15	34	55	873	79.0	-191743.0	-2057.0	841.0
4	15	34	55	874	80.0	-192577.0	-2085.0	574.0
4	15	34	55	875	81.0	-193459.0	-2083.0	363.0
4	15	34	55	876	83.0	-194914.0	-2037.0	494.0
4	15	34	55	877	84.0	-195252.0	-2038.0	133.0
4	15	34	55	877	85.0	-195222.0	-2016.0	671.0
4	15	34	55	878	86.0	-195769.0	-2009.0	982.0
4	15	34	55	879	87.0	-196445.0	-1997.0	568.0
4	15	34	55	879	88.0	-196117.0	-1997.0	745.0
4	15	34	55	880	89.0	-196318.0	-2011.0	919.0
4	15	34	55	908	90.0	-196762.0	-2023.0	853.0
4	15	34	55	909	91.0	-197124.0	-1993.0	614.0
4	15	34	55	910	92.0	-197626.0	-1984.0	254.0
4	15	34	55	911	93.0	-198126.0	-1968.0	172.0
4	15	34	55	912	94.0	-198676.0	-1964.0	273.0
4	15	34	55	912	95.0	-199357.0	-1962.0	458.0
4	15	34	55	913	96.0	-200334.0	-1976.0	800.0
4	15	34	55	914	97.0	-201251.0	-1975.0	1078.0
4	15	34	55	915	98.0	-202147.0	-1980.0	757.0
4	15	34	55	915	99.0	-203351.0	-1982.0	1361.0
4	15	34	55	916	100.0	-204162.0	-1991.0	1280.0
4	15	34	55	917	101.0	-205290.0	-1998.0	948.0
4	15	34	55	918	102.0	-206492.0	-1994.0	1043.0
4	15	34	55	918	103.0	-206888.0	-1985.0	647.0
4	15	34	55	919	104.0	-207018.0	-1974.0	554.0
4	15	34	55	920	106.0	-208366.0	-1995.0	1015.0
4	15	34	55	920	107.0	-207911.0	-1984.0	978.0
4	15	34	55	921	108.0	-208282.0	-1991.0	897.0
4	15	34	55	921	109.0	-208709.0	-1994.0	1486.0
4	15	34	55	922	110.0	-208179.0	-1994.0	1216.0
4	15	34	55	923	111.0	-208273.0	-1990.0	792.0
4	15	34	55	953	112.0	-208698.0	-1986.0	1339.0
4	15	34	55	954	113.0	-208556.0	-1983.0	1266.0
4	15	34	55	955	114.0	-208981.0	-1971.0	894.0
4	15	34	55	955	115.0	-209293.0	-1964.0	1182.0
4	15	34	55	956	116.0	-209356.0	-1981.0	1291.0
4	15	34	55	957	117.0	-209071.0	-1981.0	1341.0
4	15	34	55	958	118.0	-208782.0	-1997.0	1261.0
4	15	34	55	958	119.0	-208529.0	-2007.0	1680.0
4	15	34	55	959	120.0	-207566.0	-2022.0	1222.0
4	15	34	55	960	121.0	-206829.0	-2024.0	1316.0
4	15	34	55	961	122.0	-205921.0	-2025.0	1421.0
4	15	34	55	961	123.0	-204356.0	-2014.0	1075.0
4	15	34	55	962	124.0	-203199.0	-2006.0	1313.0
4	15	34	55	963	125.0	-202292.0	-2019.0	1763.0
4	15	34	55	963	126.0	-201389.0	-2031.0	1424.0
4	15	34	55	964	128.0	-198815.0	-2042.0	1676.0
4	15	34	55	965	129.0	-198486.0	-2074.0	1836.0
4	15	34	55	966	130.0	-197033.0	-2074.0	1331.0
4	15	34	55	966	131.0	-195929.0	-2069.0	1484.0
4	15	34	55	967	132.0	-195751.0	-2066.0	1084.0
4	15	34	55	967	133.0	-195317.0	-2064.0	804.0
4	15	34	55	997	134.0	-194303.0	-2044.0	1214.0
4	15	34	55	998	135.0	-194204.0	-2022.0	1622.0
4	15	34	55	999	136.0	-194326.0	-2035.0	1493.0
4	15	34	56	0	137.0	-193737.0	-2061.0	1318.0
4	15	34	56	1	138.0	-193846.0	-2066.0	1270.0
4	15	34	56	2	139.0	-194500.0	-2101.0	2130.0
4	15	34	56	2	140.0	-194897.0	-2114.0	1772.0
4	15	34	56	3	141.0	-195045.0	-2119.0	1466.0
4	15	34	56	4	142.0	-195479.0	-2117.0	1191.0
4	15	34	56	4	143.0	-195666.0	-2117.0	751.0
4	15	34	56	5	144.0	-196112.0	-2122.0	768.0
4	15	34	56	6	145.0	-196531.0	-2123.0	1270.0
4	15	34	56	6	146.0	-196861.0	-2151.0	1506.0
4	15	34	56	43	147.0	-197066.0	-2159.0	1340.0
4	15	34	56	44	148.0	-196971.0	-2157.0	1591.0
4	15	34	56	45	151.0	-197751.0	-2215.0	1306.0
4	15	34	56	45	152.0	-198426.0	-2209.0	939.0
4	15	34	56	88	153.0	-198809.0	-2210.0	818.0
4	15	34	56	89	154.0	-199500.0	-2212.0	1163.0
4	15	34	56	90	155.0	-200046.0	-2207.0	1398.0
4	15	34	56	91	156.0	-200278.0	-2223.0	1455.0
4	15	34	56	92	157.0	-201292.0	-2237.0	1496.0
4	15	34	56	93	158.0	-201984.0	-2236.0	1738.0
4	15	34	56	94	159.0	-202446.0	-2254.0	2157.0
4	15	34	56	96	160.0	-203247.0	-2276.0	1734.0
4	15	34	56	97	161.0	-203606.0	-2272.0	1704.0
4	15	34	56	98	162.0	-203739.0	-2267.0	1193.0
4	15	34	56	98	163.0	-203992.0	-2276.0	1469.0
4	15	34	56	99	164.0	-203999.0	-2297.0	1839.0
4	15	34	56	100	173.0	-201899.0	-2415.0	1568.0
4	15	34	56	101	174.0	-201527.0	-2426.0	1365.0
4	15	34	56	101	175.0	-201482.0	-2440.0	1416.0
4	15	34	56	102	195.0	-192801.0	-2825.0	1694.0
4	15	34	56	103	196.0	-193105.0	-2859.0	1338.0
4	15	34	56	103	197.0	-192843.0	-2883.0	1584.0
4	15	34	56	104	198.0	-192691.0	-2915.0	1862.0
4	15	34	56	104	199.0	-192829.0	-2946.0	1852.0
4	15	34	56	105	200.0	-192666.0	-2953.0	2216.0
4	15	34	56	106	201.0	-193156.0	-2963.0	1587.0
4	15	34	56	133	202.0	-193592.0	-2972.0	816.0
4	15	34	56	134	203.0	-193801.0	-2982.0	1151.0
4	15	34	56	135	204.0	-194214.0	-2997.0	1326.0
4	15	34	56	136	205.0	-194818.0	-3016.0	1386.0
4	15	34	56	137	206.0	-195162.0	-3044.0	1659.0
4	15	34	56	138	207.0	-195138.0	-3067.0	2030.0
4	15	34	56	138	208.0	-195392.0	-3097.0	2008.0
4	15	34	56	139	209.0	-195423.0	-3146.0	1933.0
4	15	34	56	140	210.0	-195846.0	-3172.0	1811.0
4	15	34	56	141	211.0	-196072.0	-3178.0	1329.0
4	15	34	56	141	212.0	-196188.0	-3183.0	1253.0
4	15	34	56	142	213.0	-196334.0	-3219.0	1436.0
4	15	34	56	143	214.0	-196737.0	-3234.0	1245.0
4	15	34	56	143	215.0	-197089.0	-3256.0	1848.0
4	15	34	56	144	216.0	-197737.0	-3304.0	2125.0
4	15	34	56	145	218.0	-199120.0	-3334.0	2192.0
4	15	34	56	145	219.0	-199935.0	-3371.0	2023.0
4	15	34	56	146	220.0	-200931.0	-3404.0	1350.0
4	15	34	56	147	221.0	-201716.0	-3422.0	1460.0
4	15	34	56	147	222.0	-202506.0	-3414.0	1238.0
4	15	34	56	148	223.0	-203012.0	-3436.0	840.0
4	15	34	56	179	224.0	-203216.0	-3456.0	1181.0
4	15	34	56	181	225.0	-203650.0	-3472.0	1343.0
4	15	34	56	182	226.0	-203651.0	-3506.0	1388.0
4	15	34	56	183	227.0	-203339.0	-3530.0	1601.0
4	15	34	56	183	228.0	-202867.0	-3547.0	1640.0
4	15	34	56	184	229.0	-203062.0	-3569.0	1494.0
4	15	34	56	185	230.0	-203276.0	-3592.0	1329.0
4	15	34	56	186	231.0	-203256.0	-3613.0	1359.0
4	15	34	56	187	232.0	-202882.0	-3626.0	1174.0
4	15	34	56	187	233.0	-202177.0	-3649.0	1188.0
4	15	34	56	188	234.0	-201504.0	-3686.0	1626.0
4	15	34	56	189	235.0	-200759.0	-3706.0	1751.0
4	15	34	56	190	236.0	-199994.0	-3728.0	2086.0
4	15	34	56	190	237.0	-199105.0	-3751.0	1984.0
4	15	34	56	191	238.0	-198172.0	-3791.0	1658.0
4	15	34	56	191	240.0	-196441.0	-3857.0	1941.0
4	15	34	56	192	241.0	-195848.0	-3889.0	1453.0
4	15	34	56	193	242.0	-195438.0	-3898.0	1459.0
4	15	34	56	193	243.0	-194989.0	-3906.0	1367.0
4	15	34	56	194	244.0	-194766.0	-3929.0	1667.0
4	15	34	56	194	245.0	-194602.0	-3946.0	1943.0
4	15	34	56	195	246.0	-194471.0	-3958.0	2002.0
4	15	34	56	223	247.0	-194309.0	-4000.0	2109.0
4	15	34	56	224	248.0	-193922.0	-4031.0	2181.0
4	15	34	56	225	249.0	-193593.0	-4049.0	2713.0
4	15	34	56	226	250.0	-193421.0	-4084.0	2941.0
4	15	34	56	227	251.0	-193191.0	-4122.0	2558.0
4	15	34	56	227	252.0	-193070.0	-4145.0	1791.0
4	15	34	56	228	253.0	-193093.0	-4133.0	1544.0
4	15	34	56	229	254.0	-193394.0	-4151.0	1681.0
4	15	34	56	229	255.0	-194325.0	-4206.0	2159.0
4	15	34	56	230	0.0	-195239.0	-4234.0	1978.0
4	15	34	56	231	1.0	-196092.0	-4253.0	1562.0
4	15	34	56	268	2.0	-197124.0	-4306.0	2271.0
4	15	34	56	269	3.0	-198182.0	-4341.0	1836.0
4	15	34	56	270	4.0	-199064.0	-4364.0	1644.0
4	15	34	56	270	5.0	-199809.0	-4380.0	1523.0
4	15	34	56	271	7.0	-199853.0	-4404.0	1536.0
4	15	34	56	272	8.0	-199882.0	-4446.0	1861.0
4	15	34	56	273	9.0	-199542.0	-4489.0	1680.0
4	15	34	56	273	10.0	-198611.0	-4496.0	1639.0
4	15	34	56	274	11.0	-197881.0	-4499.0	1466.0
4	15	34	56	275	12.0	-197179.0	-4539.0	1916.0
4	15	34	56	276	13.0	-196603.0	-4590.0	1893.0
4	15	34	56	276	14.0	-196621.0	-4612.0	1674.0
4	15	34	56	277	15.0	-196412.0	-4624.0	1521.0
4	15	34	56	278	16.0	-196098.0	-4635.0	1770.0
4	15	34	56	279	17.0	-196112.0	-4684.0	1933.0
4	15	34	56	279	18.0	-196473.0	-4711.0	1818.0
4	15	34	56	280	30.0	-200508.0	-5052.0	1783.0
4	15	34	56	281	31.0	-200538.0	-5052.0	1176.0
4	15	34	56	281	32.0	-200502.0	-5101.0	1403.0
4	15	34	56	282	33.0	-200629.0	-5127.0	1328.0
4	15	34	56	282	34.0	-200979.0	-5144.0	1123.0
4	15	34	56	283	35.0	-201259.0	-5172.0	924.0
4	15	34	56	313	36.0	-201340.0	-5161.0	898.0
4	15	34	56	314	37.0	-201593.0	-5172.0	702.0
4	15	34	56	315	38.0	-202056.0	-5220.0	1039.0
4	15	34	56	316	39.0	-202432.0	-5274.0	1181.0
4	15	34	56	317	40.0	-202618.0	-5301.0	1072.0
4	15	34	56	317	41.0	-202437.0	-5310.0	871.0
4	15	34	56	318	42.0	-202063.0	-5350.0	1066.0
4	15	34	56	319	43.0	-201617.0	-5397.0	799.0
4	15	34	56	320	44.0	-201094.0	-5409.0	541.0
4	15	34	56	320	45.0	-200456.0	-5435.0	284.0
4	15	34	56	321	46.0	-200221.0	-5458.0	376.0
4	15	34	56	322	47.0	-199947.0	-5516.0	664.0
4	15	34	56	323	48.0	-199892.0	-5536.0	1238.0
4	15	34	56	324	49.0	-199951.0	-5573.0	1485.0
4	15	34	56	324	50.0	-199597.0	-5601.0	1273.0
4	15	34	56	325	52.0	-198867.0	-5663.0	1411.0
4	15	34	56	326	53.0	-198475.0	-5698.0	1311.0
4	15	34	56	327	54.0	-198084.0	-5700.0	1079.0
4	15	34	56	327	55.0	-197843.0	-5716.0	817.0
4	15	34	56	328	56.0	-197685.0	-5744.0	1053.0
4	15	34	56	329	57.0	-197666.0	-5764.0	1141.0
4	15	34	56	329	58.0	-197694.0	-5783.0	1233.0
4	15	34	56	358	59.0	-197774.0	-5824.0	1909.0
4	15	34	56	359	60.0	-197734.0	-5839.0	2048.0
4	15	34	56	359	61.0	-197629.0	-5872.0	2055.0
4	15	34	56	360	62.0	-197272.0	-5924.0	2371.0
4	15	34	56	361	63.0	-196541.0	-5955.0	1931.0
4	15	34	56	361	64.0	-195891.0	-5977.0	1573.0
4	15	34	56	362	65.0	-195201.0	-5984.0	1190.0
4	15	34	56	363	66.0	-194397.0	-6019.0	1335.0
4	15	34	56	363	67.0	-193687.0	-6041.0	1534.0
4	15	34	56	364	68.0	-193004.0	-6079.0	1386.0
4	15	34	56	365	69.0	-192399.0	-6106.0	1949.0
4	15	34	56	365	70.0	-191843.0	-6137.0	1696.0
4	15	34	56	366	71.0	-191136.0	-6176.0	1647.0
4	15	34	56	366	72.0	-190585.0	-6212.0	2382.0
4	15	34	56	367	73.0	-190307.0	-6241.0	1876.0
4	15	34	56	368	74.0	-190152.0	-6267.0	1579.0
4	15	34	56	368	75.0	-190273.0	-6287.0	1498.0
4	15	34	56	369	76.0	-190765.0	-6293.0	1644.0
4	15	34	56	370	77.0	-191542.0	-6312.0	1760.0
4	15	34	56	370	78.0	-192576.0	-6352.0	1798.0
4	15	34	56	371	79.0	-193850.0	-6381.0	1793.0
4	15	34	56	371	80.0	-195214.0	-6409.0	1534.0
4	15	34	56	402	81.0	-196357.0	-6429.0	1616.0
4	15	34	56	403	82.0	-197427.0	-6474.0	2106.0
4	15	34	56	403	83.0	-198343.0	-6518.0	1921.0
4	15	34	56	404	84.0	-199143.0	-6526.0	1788.0
4	15	34	56	405	85.0	-200052.0	-6532.0	1561.0
4	15	34	56	405	86.0	-201091.0	-6564.0	1453.0
4	15	34	56	406	87.0	-201957.0	-6602.0	1227.0
4	15	34	56	407	88.0	-202894.0	-6643.0	918.0
4	15	34	56	407	89.0	-203536.0	-6674.0	584.0
4	15	34	56	408	90.0	-203724.0	-6703.0	-21.0
4	15	34	56	408	91.0	-203455.0	-6726.0	115.0
4	15	34	56	409	92.0	-203011.0	-6745.0	419.0
4	15	34	56	410	93.0	-202519.0	-6781.0	-228.0
4	15	34	56	410	94.0	-201890.0	-6814.0	-2065.0
4	15	34	56	411	95.0	-201131.0	-6837.0	-3805.0
4	15	34	56	411	97.0	-199877.0	-6883.0	-6641.0
4	15	34	56	412	98.0	-199414.0	-6909.0	-8722.0
4	15	34	56	413	99.0	-199209.0	-6932.0	-11390.0
4	15	34	56	413	100.0	-198814.0	-6976.0	-14491.0
4	15	34	56	414	101.0	-197902.0	-7006.0	-17974.0
4	15	34	56	414	102.0	-196760.0	-7026.0	-21974.0
4	15	34	56	447	103.0	-195249.0	-7052.0	-26652.0
4	15	34	56	448	104.0	-193267.0	-7064.0	-30680.0
4	15	34	56	449	105.0	-190934.0	-7066.0	-31354.0
4	15	34	56	449	106.0	-188666.0	-7074.0	-31366.0
4	15	34	56	450	107.0	-186481.0	-7121.0	-32107.0
4	15	34	56	450	108.0	-184336.0	-7157.0	-31717.0
4	15	34	56	451	109.0	-182276.0	-7201.0	-30279.0
4	15	34	56	452	110.0	-180340.0	-7242.0	-27869.0
4	15	34	56	452	111.0	-178821.0	-7252.0	-23177.0
4	15	34	56	453	112.0	-177793.0	-7289.0	-19030.0
4	15	34	56	454	113.0	-177448.0	-7315.0	-14096.0
4	15	34	56	454	114.0	-177837.0	-7329.0	-7088.0
4	15	34	56	455	115.0	-178799.0	-7327.0	-2369.0
4	15	34	56	455	116.0	-180441.0	-7352.0	-1343.0
4	15	34	56	456	117.0	-183096.0	-7386.0	168.0
4	15	34	56	457	119.0	-183744.0	-7465.0	3090.0
4	15	34	56	457	120.0	-175214.0	-7481.0	3944.0
4	15	34	56	458	121.0	-166776.0	-7511.0	4979.0
4	15	34	56	458	122.0	-161025.0	-7551.0	4732.0
4	15	34	56	459	123.0	-160835.0	-7582.0	3359.0
4	15	34	56	460	124.0	-165356.0	-7595.0	1954.0
4	15	34	56	460	125.0	-173586.0	-7589.0	969.0
4	15	34	56	492	126.0	-181770.0	-7620.0	367.0
4	15	34	56	493	127.0	-188317.0	-7640.0	-81.0
4	15	34	56	494	128.0	-193462.0	-7666.0	-25.0
4	15	34	56	494	129.0	-197627.0	-7711.0	-17.0
4	15	34	56	495	130.0	-200336.0	-7745.0	-296.0
4	15	34	56	495	131.0	-201333.0	-7776.0	-551.0
4	15	34	56	496	132.0	-201682.0	-7812.0	-361.0
4	15	34	56	497	133.0	-202694.0	-7839.0	-582.0
4	15	34	56	497	134.0	-202874.0	-7874.0	-847.0
4	15	34	56	498	135.0	-201314.0	-7893.0	-404.0
4	15	34	56	499	136.0	-197312.0	-7900.0	-794.0
4	15	34	56	499	137.0	-192740.0	-7934.0	-439.0
4	15	34	56	500	138.0	-187690.0	-7984.0	-57.0
4	15	34	56	501	139.0	-183301.0	-7995.0	-74.0
4	15	34	56	501	140.0	-182072.0	-8019.0	-356.0
4	15	34	56	502	142.0	-189984.0	-8130.0	-422.0
4	15	34	56	502	143.0	-196693.0	-8129.0	-567.0
4	15	34	56	503	144.0	-203314.0	-8128.0	-1019.0
4	15	34	56	504	145.0	-208799.0	-8155.0	-1015.0
4	15	34	56	504	146.0	-212588.0	-8159.0	-1146.0
4	15	34	56	505	147.0	-215089.0	-8175.0	-859.0
4	15	34	56	537	148.0	-216928.0	-8199.0	-660.0
4	15	34	56	538	149.0	-217806.0	-8230.0	-1117.0
4	15	34	56	539	150.0	-217202.0	-8271.0	-1352.0
4	15	34	56	539	151.0	-215890.0	-8319.0	-361.0
4	15	34	56	540	152.0	-215525.0	-8338.0	-300.0
4	15	34	56	541	153.0	-216836.0	-8371.0	-1074.0
4	15	34	56	541	154.0	-219266.0	-8390.0	-1307.0
4	15	34	56	542	155.0	-221717.0	-8412.0	-1414.0
4	15	34	56	543	156.0	-224056.0	-8425.0	-1381.0
4	15	34	56	543	157.0	-225504.0	-8463.0	-1115.0
4	15	34	56	544	158.0	-225377.0	-8509.0	-1227.0
4	15	34	56	544	159.0	-223774.0	-8544.0	-1279.0
4	15	34	56	545	160.0	-220787.0	-8552.0	-1328.0
4	15	34	56	546	161.0	-217069.0	-8599.0	-870.0
4	15	34	56	546	162.0	-213346.0	-8642.0	-1465.0
4	15	34	56	547	164.0	-206096.0	-8709.0	-2026.0
4	15	34	56	547	165.0	-202424.0	-8720.0	-2086.0
4	15	34	56	548	166.0	-199248.0	-8724.0	-2089.0
4	15	34	56	549	167.0	-196332.0	-8764.0	-1828.0
4	15	34	56	549	168.0	-193552.0	-8820.0	-1957.0
4	15	34	56	550	169.0	-190744.0	-8846.0	-1946.0
4	15	34	56	550	170.0	-187944.0	-8855.0	-2319.0
4	15	34	56	582	171.0	-185547.0	-8889.0	-1912.0
4	15	34	56	583	172.0	-183789.0	-8931.0	-2417.0
4	15	34	56	584	173.0	-182641.0	-8950.0	-2937.0
4	15	34	56	584	174.0	-182188.0	-8973.0	-2776.0
4	15	34	56	585	175.0	-182443.0	-8992.0	-2617.0
4	15	34	56	586	176.0	-183108.0	-9024.0	-2901.0
4	15	34	56	586	177.0	-184112.0	-9046.0	-2838.0
4	15	34	56	587	178.0	-185840.0	-9065.0	-2604.0
4	15	34	56	587	179.0	-187847.0	-9101.0	-2860.0
4	15	34	56	588	180.0	-190328.0	-9134.0	-3489.0
4	15	34	56	589	181.0	-193271.0	-9177.0	-3092.0
4	15	34	56	589	182.0	-196594.0	-9222.0	-3167.0
4	15	34	56	590	183.0	-200129.0	-9243.0	-3636.0
4	15	34	56	590	184.0	-203397.0	-9257.0	-3526.0
4	15	34	56	591	185.0	-206438.0	-9278.0	-3762.0
4	15	34	56	592	187.0	-211986.0	-9336.0	-3185.0
4	15	34	56	592	188.0	-214709.0	-9369.0	-3131.0
4	15	34	56	593	189.0	-217021.0	-9407.0	-3507.0
4	15	34	56	593	190.0	-218883.0	-9427.0	-3614.0
4	15	34	56	594	191.0	-219944.0	-9457.0	-3164.0
4	15	34	56	595	192.0	-220361.0	-9484.0	-3752.0
4	15	34	56	628	193.0	-220341.0	-9499.0	-4272.0
4	15	34	56	629	194.0	-220114.0	-9511.0	-4264.0
4	15	34	56	630	195.0	-219509.0	-9551.0	-4484.0
4	15	34	56	631	196.0	-218691.0	-9567.0	-4581.0
4	15	34	56	631	197.0	-217773.0	-9599.0	-4364.0
4	15	34	56	632	198.0	-216656.0	-9629.0	-4447.0
4	15	34	56	633	199.0	-215367.0	-9641.0	-4487.0
4	15	34	56	633	200.0	-213911.0	-9664.0	-4509.0
4	15	34	56	634	201.0	-212437.0	-9717.0	-4325.0
4	15	34	56	635	202.0	-210972.0	-9739.0	-4364.0
4	15	34	56	635	203.0	-209569.0	-9748.0	-4727.0
4	15	34	56	636	204.0	-208037.0	-9750.0	-5344.0
4	15	34	56	636	205.0	-206429.0	-9764.0	-5276.0
4	15	34	56	637	206.0	-204737.0	-9776.0	-5431.0
4	15	34	56	638	207.0	-202714.0	-9798.0	-5407.0
4	15	34	56	638	209.0	-199189.0	-9836.0	-5258.0
4	15	34	56	639	210.0	-197431.0	-9839.0	-5382.0
4	15	34	56	639	211.0	-195857.0	-9842.0	-4982.0
4	15	34	56	640	212.0	-194470.0	-9825.0	-5626.0
4	15	34	56	640	213.0	-193056.0	-9815.0	-6532.0
4	15	34	56	641	214.0	-191422.0	-9806.0	-6581.0
4	15	34	56	673	215.0	-189788.0	-9762.0	-6463.0
4	15	34	56	674	216.0	-188591.0	-9734.0	-6554.0
4	15	34	56	674	217.0	-187686.0	-9721.0	-6149.0
4	15	34	56	675	218.0	-186892.0	-9687.0	-5899.0
4	15	34	56	676	219.0	-186056.0	-9621.0	-6344.0
4	15	34	56	676	220.0	-185832.0	-9590.0	-6253.0
4	15	34	56	677	221.0	-185928.0	-9561.0	-5791.0
4	15	34	56	678	222.0	-185834.0	-9491.0	-6713.0
4	15	34	56	678	223.0	-186056.0	-9431.0	-7144.0
4	15	34	56	679	224.0	-186479.0	-9374.0	-6912.0
4	15	34	56	679	225.0	-187228.0	-9305.0	-7068.0
4	15	34	56	680	226.0	-188491.0	-9246.0	-6843.0
4	15	34	56	681	227.0	-189859.0	-9187.0	-6303.0
4	15	34	56	681	228.0	-191072.0	-9099.0	-6417.0
4	15	34	56	682	229.0	-192296.0	-9022.0	-6737.0
4	15	34	56	682	232.0	-196977.0	-8790.0	-6902.0
4	15	34	56	683	233.0	-198819.0	-8707.0	-6586.0
4	15	34	56	684	234.0	-200359.0	-8573.0	-6652.0
4	15	34	56	684	235.0	-201586.0	-8455.0	-6799.0
4	15	34	56	685	236.0	-202811.0	-8359.0	-6661.0
4	15	34	56	685	237.0	-204228.0	-8257.0	-6489.0
4	15	34	56	717	238.0	-205506.0	-8166.0	-6532.0
4	15	34	56	718	239.0	-206844.0	-8050.0	-6621.0
4	15	34	56	718	240.0	-208007.0	-7944.0	-6215.0
4	15	34	56	719	241.0	-208958.0	-7852.0	-5979.0
4	15	34	56	719	242.0	-209989.0	-7744.0	-6427.0
4	15	34	56	720	243.0	-210692.0	-7628.0	-6836.0
4	15	34	56	721	244.0	-210938.0	-7523.0	-6859.0
4	15	34	56	721	245.0	-211142.0	-7412.0	-6596.0
4	15	34	56	722	246.0	-211105.0	-7293.0	-6451.0
4	15	34	56	722	247.0	-211131.0	-7194.0	-6276.0
4	15	34	56	723	248.0	-211084.0	-7096.0	-6444.0
4	15	34	56	724	249.0	-210903.0	-6997.0	-6277.0
4	15	34	56	724	250.0	-210621.0	-6891.0	-5862.0
4	15	34	56	725	251.0	-210423.0	-6825.0	-5291.0
4	15	34	56	726	252.0	-210217.0	-6704.0	-5864.0
4	15	34	56	726	254.0	-209350.0	-6494.0	-6103.0
4	15	34	56	727	255.0	-208861.0	-6371.0	-5767.0
4	15	34	56	727	0.0	-208346.0	-6285.0	-5790.0
4	15	34	56	728	1.0	-207846.0	-6182.0	-5154.0
4	15	34	56	729	2.0	-207141.0	-6074.0	-4930.0
4	15	34	56	729	3.0	-206359.0	-5982.0	-5328.0
4	15	34	56	763	4.0	-205462.0	-5897.0	-4088.0
4	15	34	56	766	5.0	-204731.0	-5821.0	-3789.0
4	15	34	56	769	6.0	-204165.0	-5727.0	-4297.0
4	15	34	56	771	7.0	-203625.0	-5636.0	-4332.0
4	15	34	56	774	8.0	-203177.0	-5545.0	-4041.0
4	15	34	56	774	9.0	-202873.0	-5461.0	-4014.0
4	15	34	56	775	10.0	-202552.0	-5367.0	-3569.0
4	15	34	56	776	11.0	-202235.0	-5294.0	-2986.0
4	15	34	56	777	12.0	-201826.0	-5208.0	-3002.0
4	15	34	56	777	13.0	-201355.0	-5130.0	-2719.0
4	15	34	56	778	14.0	-200580.0	-5089.0	-1818.0
4	15	34	56	779	15.0	-198941.0	-5015.0	-2414.0
4	15	34	56	779	16.0	-195352.0	-4931.0	-2571.0
4	15	34	56	780	17.0	-188983.0	-4854.0	-2481.0
4	15	34	56	780	18.0	-179819.0	-4772.0	-2820.0
4	15	34	56	781	20.0	-181328.0	-4630.0	-1599.0
4	15	34	56	782	21.0	-188370.0	-4575.0	-1487.0
4	15	34	56	782	22.0	-194165.0	-4521.0	-1342.0
4	15	34	56	783	23.0	-196598.0	-4452.0	-1280.0
4	15	34	56	783	24.0	-196805.0	-4404.0	-711.0
4	15	34	56	784	25.0	-196786.0	-4352.0	-757.0
4	15	34	56	785	26.0	-197008.0	-4266.0	-675.0
4	15	34	56	807	27.0	-196507.0	-4177.0	-793.0
4	15	34	56	807	28.0	-196422.0	-4109.0	-381.0
4	15	34	56	808	29.0	-196279.0	-4057.0	-657.0
4	15	34	56	809	30.0	-196409.0	-4000.0	-287.0
4	15	34	56	810	31.0	-197530.0	-3958.0	246.0
4	15	34	56	810	32.0	-199207.0	-3912.0	393.0
4	15	34	56	811	33.0	-200543.0	-3862.0	461.0
4	15	34	56	834	34.0	-201207.0	-3828.0	958.0
4	15	34	56	834	35.0	-201232.0	-3791.0	971.0
4	15	34	56	835	36.0	-200759.0	-3726.0	571.0
4	15	34	56	836	37.0	-199406.0	-3672.0	618.0
4	15	34	56	837	38.0	-197232.0	-3616.0	771.0
4	15	34	56	837	39.0	-194739.0	-3549.0	383.0
4	15	34	56	838	40.0	-193178.0	-3501.0	1038.0
4	15	34	56	839	41.0	-192155.0	-3471.0	1834.0
4	15	34	56	839	43.0	-191588.0	-3383.0	1347.0
4	15	34	56	840	44.0	-191593.0	-3316.0	1452.0
4	15	34	56	841	45.0	-191936.0	-3269.0	1523.0
4	15	34	56	865	46.0	-192270.0	-3222.0	1238.0
4	15	34	56	897	47.0	-192174.0	-3163.0	1019.0
4	15	34	56	898	48.0	-191889.0	-3102.0	726.0
4	15	34	56	899	49.0	-191457.0	-3056.0	509.0
4	15	34	56	899	50.0	-191141.0	-2995.0	1054.0
4	15	34	56	900	51.0	-190984.0	-2953.0	1418.0
4	15	34	56	901	52.0	-190624.0	-2902.0	1106.0
4	15	34	56	902	53.0	-190030.0	-2856.0	1261.0
4	15	34	56	902	54.0	-189294.0	-2831.0	1727.0
4	15	34	56	903	55.0	-188492.0	-2768.0	1431.0
4	15	34	56	904	56.0	-187799.0	-2722.0	1339.0
4	15	34	56	904	57.0	-187317.0	-2670.0	956.0
4	15	34	56	905	58.0	-187172.0	-2627.0	618.0
4	15	34	56	906	59.0	-187507.0	-2573.0	729.0
4	15	34	56	906	60.0	-188347.0	-2525.0	1197.0
4	15	34	56	907	65.0	-193042.0	-2327.0	1363.0
4	15	34	56	908	88.0	-204972.0	-1494.0	1891.0
4	15	34	56	908	89.0	-205581.0	-1454.0	2200.0
4	15	34	56	909	90.0	-205950.0	-1439.0	2725.0
4	15	34	56	942	91.0	-206211.0	-1405.0	2030.0
4	15	34	56	943	92.0	-206268.0	-1365.0	1826.0
4	15	34	56	943	93.0	-205985.0	-1331.0	2133.0
4	15	34	56	944	94.0	-205759.0	-1302.0	2170.0
4	15	34	56	945	95.0	-205430.0	-1264.0	1875.0
4	15	34	56	945	96.0	-204596.0	-1237.0	1920.0
4	15	34	56	946	97.0	-203566.0	-1203.0	1801.0
4	15	34	56	947	98.0	-202461.0	-1162.0	2237.0
4	15	34	56	948	99.0	-201269.0	-1126.0	2688.0
4	15	34	56	948	100.0	-200305.0	-1119.0	2849.0
4	15	34	56	949	101.0	-199187.0	-1104.0	2671.0
4	15	34	56	950	102.0	-197888.0	-1059.0	2703.0
4	15	34	56	951	103.0	-196679.0	-1016.0	2764.0
4	15	34	56	951	104.0	-195876.0	-1011.0	2717.0
4	15	34	56	952	105.0	-195166.0	-999.0	2303.0
4	15	34	56	953	106.0	-194519.0	-956.0	2240.0
4	15	34	56	954	111.0	-195548.0	-802.0	2589.0
4	15	34	56	955	112.0	-196356.0	-766.0	2316.0
4	15	34	56	955	113.0	-197359.0	-747.0	2594.0
4	15	34	56	956	114.0	-198549.0	-727.0	3171.0
4	15	34	56	957	115.0	-199769.0	-707.0	2359.0
4	15	34	56	957	116.0	-200794.0	-669.0	2272.0
4	15	34	56	986	117.0	-201583.0	-627.0	2171.0
4	15	34	56	987	118.0	-202165.0	-587.0	2089.0
4	15	34	56	988	119.0	-202634.0	-560.0	2470.0
4	15	34	56	989	120.0	-202965.0	-529.0	2740.0
4	15	34	56	989	121.0	-203001.0	-502.0	2648.0
4	15	34	56	990	122.0	-202860.0	-479.0	2423.0
4	15	34	56	991	123.0	-202634.0	-456.0	2615.0
4	15	34	56	991	124.0	-202440.0	-447.0	2719.0
4	15	34	56	992	125.0	-202302.0	-426.0	2053.0
4	15	34	56	993	126.0	-201988.0	-418.0	2563.0
4	15	34	56	994	127.0	-201592.0	-381.0	2481.0
4	15	34	56	995	128.0	-201347.0	-343.0	2284.0
4	15	34	56	995	129.0	-201546.0	-314.0	2637.0
4	15	34	56	996	130.0	-202127.0	-312.0	2635.0
4	15	34	56	997	131.0	-203162.0	-277.0	2256.0
4	15	34	56	997	133.0	-205537.0	-261.0	2543.0
4	15	34	56	998	134.0	-206692.0	-257.0	2388.0
4	15	34	56	999	135.0	-207487.0	-224.0	2191.0
4	15	34	56	999	136.0	-207835.0	-200.0	2733.0
4	15	34	57	0	137.0	-207854.0	-172.0	2525.0
4	15	34	57	8	138.0	-207657.0	-150.0	2735.0
4	15	34	57	31	139.0	-207331.0	-121.0	3029.0
4	15	34	57	33	140.0	-206849.0	-91.0	2996.0
4	15	34	57	33	141.0	-206054.0	-98.0	3114.0
4	15	34	57	34	142.0	-204957.0	-71.0	3029.0
4	15	34	57	35	143.0	-203892.0	-55.0	3072.0
4	15	34	57	35	144.0	-202849.0	-74.0	2954.0
4	15	34	57	36	145.0	-201691.0	-65.0	2686.0
4	15	34	57	37	146.0	-200503.0	-46.0	2631.0
4	15	34	57	38	147.0	-199287.0	-21.0	2403.0
4	15	34	57	38	148.0	-197749.0	4.0	2247.0
4	15	34	57	39	149.0	-196064.0	9.0	2606.0
4	15	34	57	40	150.0	-194638.0	3.0	2725.0
4	15	34	57	40	151.0	-193552.0	-6.0	2668.0
4	15	34	57	41	152.0	-192738.0	24.0	2306.0
4	15	34	57	42	153.0	-192298.0	20.0	3255.0
4	15	34	57	42	155.0	-192436.0	18.0	2482.0
4	15	34	57	43	156.0	-192881.0	33.0	2433.0
4	15	34	57	44	157.0	-193379.0	51.0	2196.0
4	15	34	57	45	158.0	-193636.0	68.0	1987.0
4	15	34	57	45	159.0	-194052.0	79.0	2386.0
4	15	34	57	46	160.0	-194327.0	75.0	2654.0
4	15	34	57	47	161.0	-194451.0	66.0	2608.0
4	15	34	57	76	162.0	-194588.0	87.0	2369.0
4	15	34	57	77	163.0	-194856.0	73.0	3238.0
4	15	34	57	79	164.0	-195286.0	64.0	2988.0
4	15	34	57	80	165.0	-196062.0	61.0	2653.0
4	15	34	57	81	166.0	-196918.0	74.0	2393.0
4	15	34	57	82	167.0	-197779.0	87.0	2024.0
4	15	34	57	83	168.0	-198650.0	99.0	2310.0
4	15	34	57	83	169.0	-199442.0	101.0	2479.0
4	15	34	57	84	170.0	-200171.0	81.0	2244.0
4	15	34	57	85	171.0	-201042.0	56.0	2576.0
4	15	34	57	86	172.0	-201842.0	59.0	2836.0
4	15	34	57	86	173.0	-202675.0	53.0	3483.0
4	15	34	57	87	174.0	-203506.0	31.0	2899.0
4	15	34	57	88	175.0	-204408.0	32.0	2997.0
4	15	34	57	89	176.0	-205280.0	37.0	2732.0
4	15	34	57	89	178.0	-206681.0	38.0	2963.0
4	15	34	57	90	179.0	-207164.0	28.0	2831.0
4	15	34	57	91	180.0	-207516.0	23.0	2908.0
4	15	34	57	91	181.0	-207787.0	16.0	2576.0
4	15	34	57	92	182.0	-207802.0	-1.0	2491.0
4	15	34	57	93	183.0	-207530.0	-12.0	3151.0
4	15	34	57	122	184.0	-207359.0	-26.0	2926.0
4	15	34	57	123	185.0	-207191.0	-32.0	2675.0
4	15	34	57	123	186.0	-206704.0	-36.0	2513.0
4	15	34	57	124	187.0	-205972.0	-32.0	2354.0
4	15	34	57	125	188.0	-205036.0	-46.0	2078.0
4	15	34	57	126	189.0	-204156.0	-49.0	2411.0
4	15	34	57	126	190.0	-203501.0	-59.0	2727.0
4	15	34	57	127	191.0	-202571.0	-80.0	2495.0
4	15	34	57	128	192.0	-201562.0	-95.0	2534.0
4	15	34	57	128	193.0	-200862.0	-123.0	3064.0
4	15	34	57	129	194.0	-200440.0	-136.0	2851.0
4	15	34	57	130	195.0	-200151.0	-151.0	2583.0
4	15	34	57	130	196.0	-199777.0	-162.0	2394.0
4	15	34	57	131	197.0	-199333.0	-161.0	2255.0
4	15	34	57	132	198.0	-198875.0	-164.0	2114.0
4	15	34	57	133	200.0	-197411.0	-207.0	2586.0
4	15	34	57	133	201.0	-196774.0	-222.0	2315.0
4	15	34	57	134	202.0	-196371.0	-240.0	2336.0
4	15	34	57	135	203.0	-195949.0	-261.0	2329.0
4	15	34	57	135	204.0	-195522.0	-284.0	2673.0
4	15	34	57	136	205.0	-195026.0	-285.0	2816.0
4	15	34	57	137	206.0	-194437.0	-287.0	2049.0
4	15	34	57	167	207.0	-193837.0	-304.0	1999.0
4	15	34	57	168	208.0	-193283.0	-300.0	2193.0
4	15	34	57	169	209.0	-193042.0	-324.0	2618.0
4	15	34	57	169	210.0	-192948.0	-344.0	2653.0
4	15	34	57	170	211.0	-193060.0	-362.0	2914.0
4	15	34	57	171	212.0	-193419.0	-394.0	2966.0
4	15	34	57	172	213.0	-193992.0	-416.0	3088.0
4	15	34	57	173	214.0	-194745.0	-429.0	3305.0
4	15	34	57	173	215.0	-195744.0	-441.0	3216.0
4	15	34	57	174	216.0	-196851.0	-441.0	2540.0
4	15	34	57	175	217.0	-197806.0	-464.0	2346.0
4	15	34	57	176	218.0	-198843.0	-475.0	2182.0
4	15	34	57	176	219.0	-199986.0	-503.0	2554.0
4	15	34	57	177	220.0	-201036.0	-533.0	2599.0
4	15	34	57	178	221.0	-201877.0	-559.0	2531.0
4	15	34	57	178	223.0	-202764.0	-598.0	3135.0
4	15	34	57	179	224.0	-203150.0	-622.0	2878.0
4	15	34	57	179	225.0	-203414.0	-625.0	2814.0
4	15	34	57	180	226.0	-203622.0	-629.0	2654.0
4	15	34	57	226	227.0	-203901.0	-634.0	2275.0
4	15	34	57	245	228.0	-204111.0	-644.0	2196.0
4	15	34	57	246	229.0	-204069.0	-660.0	2618.0
4	15	34	57	246	230.0	-204166.0	-677.0	2623.0
4	15	34	57	247	231.0	-204349.0	-699.0	2631.0
4	15	34	57	248	232.0	-204526.0	-703.0	2591.0
4	15	34	57	249	233.0	-204557.0	-740.0	2944.0
4	15	34	57	250	234.0	-204315.0	-761.0	2432.0
4	15	34	57	250	235.0	-203861.0	-792.0	2716.0
4	15	34	57	251	236.0	-203232.0	-793.0	2576.0
4	15	34	57	252	237.0	-202542.0	-799.0	2238.0
4	15	34	57	253	238.0	-201899.0	-822.0	2437.0
4	15	34	57	253	239.0	-201359.0	-841.0	2643.0
4	15	34	57	254	240.0	-200704.0	-886.0	2269.0
4	15	34	57	255	241.0	-199781.0	-912.0	2731.0
4	15	34	57	256	242.0	-198854.0	-914.0	2763.0
4	15	34	57	256	4.0	-192442.0	-1322.0	2356.0
4	15	34	57	257	5.0	-192841.0	-1332.0	1981.0
4	15	34	57	258	6.0	-193529.0	-1349.0	2108.0
4	15	34	57	259	7.0	-194239.0	-1382.0	2449.0
4	15	34	57	259	8.0	-195068.0	-1395.0	2028.0
4	15	34	57	260	9.0	-196239.0	-1392.0	1696.0
4	15	34	57	261	10.0	-197426.0	-1408.0	1709.0
4	15	34	57	262	11.0	-198597.0	-1427.0	1471.0
4	15	34	57	262	12.0	-199847.0	-1444.0	1429.0
4	15	34	57	272	13.0	-201033.0	-1467.0	1324.0
4	15	34	57	273	14.0	-202099.0	-1491.0	1064.0
4	15	34	57	273	15.0	-203013.0	-1506.0	1199.0
4	15	34	57	274	16.0	-203654.0	-1534.0	1371.0
4	15	34	57	275	17.0	-204049.0	-1573.0	1443.0
4	15	34	57	276	18.0	-204399.0	-1580.0	1339.0
4	15	34	57	277	19.0	-204682.0	-1608.0	1592.0
4	15	34	57	277	20.0	-204886.0	-1616.0	1876.0
4	15	34	57	295	21.0	-204882.0	-1627.0	1902.0
4	15	34	57	295	22.0	-204774.0	-1626.0	2055.0
4	15	34	57	296	23.0	-204570.0	-1659.0	2186.0
4	15	34	57	317	24.0	-204352.0	-1678.0	2163.0
4	15	34	57	317	25.0	-203989.0	-1701.0	2265.0
4	15	34	57	318	26.0	-203589.0	-1736.0	2020.0
4	15	34	57	319	27.0	-203470.0	-1759.0	2066.0
4	15	34	57	320	28.0	-203645.0	-1764.0	2271.0
4	15	34	57	321	29.0	-203569.0	-1777.0	2228.0
4	15	34	57	321	30.0	-203656.0	-1792.0	2268.0
4	15	34	57	322	31.0	-203552.0	-1809.0	2373.0
4	15	34	57	323	32.0	-203591.0	-1821.0	2683.0
4	15	34	57	323	33.0	-203716.0	-1859.0	2683.0
4	15	34	57	324	34.0	-203719.0	-1895.0	2934.0
4	15	34	57	325	35.0	-203621.0	-1900.0	2943.0
4	15	34	57	326	36.0	-203304.0	-1922.0	2599.0
4	15	34	57	326	37.0	-203081.0	-1950.0	2598.0
4	15	34	57	327	38.0	-202679.0	-1959.0	2639.0
4	15	34	57	327	39.0	-201992.0	-1976.0	2189.0
4	15	34	57	328	40.0	-201332.0	-2001.0	2163.0
4	15	34	57	329	41.0	-200432.0	-2011.0	2444.0
4	15	34	57	338	42.0	-199610.0	-2034.0	2759.0
4	15	34	57	339	43.0	-198901.0	-2054.0	3078.0
4	15	34	57	362	44.0	-198239.0	-2079.0	3033.0
4	15	34	57	363	45.0	-197616.0	-2095.0	3009.0
4	15	34	57	364	46.0	-196896.0	-2136.0	3186.0
4	15	34	57	364	47.0	-196342.0	-2179.0	3167.0
4	15	34	57	365	48.0	-195710.0	-2204.0	2759.0
4	15	34	57	366	49.0	-195083.0	-2206.0	2476.0
4	15	34	57	366	50.0	-194562.0	-2203.0	2069.0
4	15	34	57	367	51.0	-194124.0	-2222.0	2004.0
4	15	34	57	368	52.0	-193790.0	-2241.0	2314.0
4	15	34	57	368	53.0	-193552.0	-2277.0	2402.0
4	15	34	57	369	54.0	-193292.0	-2324.0	2503.0
4	15	34	57	370	55.0	-193269.0	-2327.0	2568.0
4	15	34	57	370	56.0	-193485.0	-2351.0	3054.0
4	15	34	57	371	57.0	-194156.0	-2401.0	2720.0
4	15	34	57	372	58.0	-195284.0	-2419.0	2546.0
4	15	34	57	373	59.0	-196671.0	-2422.0	2359.0
4	15	34	57	373	60.0	-198122.0	-2430.0	1577.0
4	15	34	57	374	61.0	-199555.0	-2424.0	1123.0
4	15	34	57	375	62.0	-200891.0	-2448.0	1078.0
4	15	34	57	375	63.0	-201838.0	-2482.0	954.0
4	15	34	57	376	64.0	-202417.0	-2499.0	1218.0
4	15	34	57	377	65.0	-202692.0	-2506.0	729.0
4	15	34	57	378	66.0	-202836.0	-2551.0	532.0
4	15	34	57	379	67.0	-202585.0	-2587.0	-1265.0
4	15	34	57	380	68.0	-202314.0	-2586.0	-2914.0
4	15	34	57	380	69.0	-201861.0	-2592.0	-4864.0
4	15	34	57	381	70.0	-201359.0	-2627.0	-6878.0
4	15	34	57	382	71.0	-200822.0	-2649.0	-9255.0
4	15	34	57	382	72.0	-200316.0	-2679.0	-12533.0
4	15	34	57	383	73.0	-199761.0	-2697.0	-16514.0
4	15	34	57	392	74.0	-199246.0	-2716.0	-20924.0
4	15	34	57	393	75.0	-198125.0	-2717.0	-26202.0
4	15	34	57	394	76.0	-196412.0	-2756.0	-29776.0
4	15	34	57	394	77.0	-194309.0	-2794.0	-30442.0
4	15	34	57	395	78.0	-192045.0	-2833.0	-30829.0
4	15	34	57	396	79.0	-189880.0	-2850.0	-32414.0
4	15	34	57	396	80.0	-187813.0	-2856.0	-33305.0
4	15	34	57	413	81.0	-186008.0	-2852.0	-32416.0
4	15	34	57	414	82.0	-184536.0	-2876.0	-30267.0
4	15	34	57	415	83.0	-183550.0	-2909.0	-26508.0
4	15	34	57	415	84.0	-182781.0	-2951.0	-21707.0
4	15	34	57	416	85.0	-182304.0	-2958.0	-16618.0
4	15	34	57	417	86.0	-182494.0	-3001.0	-8743.0
4	15	34	57	417	87.0	-183316.0	-3054.0	-1719.0
4	15	34	57	436	88.0	-184697.0	-3066.0	216.0
4	15	34	57	437	89.0	-186731.0	-3061.0	694.0
4	15	34	57	438	90.0	-188544.0	-3074.0	1514.0
4	15	34	57	439	91.0	-184652.0	-3095.0	2673.0
4	15	34	57	439	92.0	-173736.0	-3145.0	4173.0
4	15	34	57	440	93.0	-161322.0	-3175.0	4603.0
4	15	34	57	441	94.0	-153760.0	-3190.0	4099.0
4	15	34	57	442	95.0	-155199.0	-3221.0	3497.0
4	15	34	57	442	96.0	-162726.0	-3248.0	2519.0
4	15	34	57	443	97.0	-172719.0	-3273.0	1168.0
4	15	34	57	444	98.0	-181537.0	-3301.0	689.0
4	15	34	57	445	99.0	-188000.0	-3321.0	-352.0
4	15	34	57	445	100.0	-192277.0	-3341.0	-499.0
4	15	34	57	446	101.0	-194908.0	-3368.0	-517.0
4	15	34	57	447	102.0	-197321.0	-3386.0	92.0
4	15	34	57	447	103.0	-199534.0	-3432.0	313.0
4	15	34	57	448	104.0	-202641.0	-3439.0	229.0
4	15	34	57	449	105.0	-206402.0	-3454.0	156.0
4	15	34	57	450	106.0	-208626.0	-3504.0	725.0
4	15	34	57	460	107.0	-207944.0	-3537.0	679.0
4	15	34	57	461	108.0	-203771.0	-3559.0	545.0
4	15	34	57	483	109.0	-199007.0	-3559.0	-89.0
4	15	34	57	484	110.0	-194361.0	-3577.0	209.0
4	15	34	57	484	111.0	-189867.0	-3576.0	191.0
4	15	34	57	485	112.0	-188550.0	-3614.0	-4.0
4	15	34	57	485	113.0	-189812.0	-3646.0	306.0
4	15	34	57	486	114.0	-193426.0	-3665.0	554.0
4	15	34	57	486	115.0	-198546.0	-3690.0	518.0
4	15	34	57	487	116.0	-204112.0	-3731.0	916.0
4	15	34	57	488	117.0	-209022.0	-3758.0	649.0
4	15	34	57	488	118.0	-212432.0	-3784.0	94.0
4	15	34	57	489	119.0	-214020.0	-3802.0	-114.0
4	15	34	57	489	120.0	-213937.0	-3816.0	-17.0
4	15	34	57	490	121.0	-213010.0	-3822.0	-339.0
4	15	34	57	490	122.0	-211696.0	-3863.0	-190.0
4	15	34	57	491	123.0	-210276.0	-3886.0	-78.0
4	15	34	57	505	124.0	-209119.0	-3907.0	-173.0
4	15	34	57	505	125.0	-209224.0	-3937.0	-297.0
4	15	34	57	506	126.0	-211019.0	-3971.0	-114.0
4	15	34	57	507	127.0	-214041.0	-3989.0	-239.0
4	15	34	57	507	128.0	-217652.0	-4000.0	-949.0
4	15	34	57	508	129.0	-220452.0	-4017.0	-1317.0
4	15	34	57	508	130.0	-222004.0	-4026.0	-1318.0
4	15	34	57	509	131.0	-222057.0	-4040.0	-1066.0
4	15	34	57	509	132.0	-220531.0	-4097.0	-822.0
4	15	34	57	510	133.0	-218176.0	-4118.0	-1022.0
4	15	34	57	529	134.0	-215334.0	-4128.0	-1034.0
4	15	34	57	529	135.0	-212634.0	-4164.0	-1113.0
4	15	34	57	530	136.0	-210222.0	-4194.0	-1106.0
4	15	34	57	530	137.0	-207949.0	-4214.0	-1291.0
4	15	34	57	531	138.0	-205426.0	-4237.0	-1715.0
4	15	34	57	531	139.0	-202607.0	-4252.0	-2311.0
4	15	34	57	532	140.0	-198907.0	-4254.0	-2102.0
4	15	34	57	533	141.0	-194423.0	-4286.0	-1962.0
4	15	34	57	533	142.0	-190237.0	-4311.0	-1702.0
4	15	34	57	534	143.0	-186739.0	-4324.0	-1816.0
4	15	34	57	534	144.0	-183599.0	-4361.0	-1659.0
4	15	34	57	535	145.0	-181269.0	-4394.0	-1838.0
4	15	34	57	535	146.0	-179857.0	-4452.0	-1541.0
4	15	34	57	536	147.0	-179157.0	-4465.0	-1691.0
4	15	34	57	537	148.0	-179037.0	-4474.0	-2759.0
4	15	34	57	552	149.0	-179388.0	-4479.0	-2886.0
4	15	34	57	552	150.0	-180160.0	-4481.0	-3006.0
4	15	34	57	553	151.0	-181722.0	-4487.0	-3219.0
4	15	34	57	553	152.0	-184122.0	-4525.0	-2934.0
4	15	34	57	554	153.0	-187055.0	-4559.0	-2741.0
4	15	34	57	554	154.0	-190416.0	-4601.0	-2709.0
4	15	34	57	576	155.0	-194154.0	-4621.0	-2687.0
4	15	34	57	576	156.0	-197929.0	-4657.0	-2166.0
4	15	34	57	577	157.0	-202104.0	-4667.0	-2451.0
4	15	34	57	577	158.0	-206270.0	-4692.0	-3347.0
4	15	34	57	578	159.0	-210233.0	-4708.0	-3441.0
4	15	34	57	579	160.0	-213864.0	-4731.0	-3561.0
4	15	34	57	579	161.0	-217119.0	-4747.0	-3700.0
4	15	34	57	580	162.0	-219697.0	-4772.0	-3293.0
4	15	34	57	580	163.0	-221483.0	-4811.0	-3157.0
4	15	34	57	581	164.0	-222503.0	-4816.0	-3379.0
4	15	34	57	581	165.0	-222964.0	-4822.0	-2791.0
4	15	34	57	582	166.0	-222982.0	-4873.0	-2776.0
4	15	34	57	582	167.0	-222636.0	-4897.0	-3710.0
4	15	34	57	583	168.0	-221946.0	-4914.0	-4044.0
4	15	34	57	584	169.0	-220891.0	-4904.0	-4287.0
4	15	34	57	599	170.0	-219552.0	-4922.0	-4534.0
4	15	34	57	599	171.0	-218068.0	-4947.0	-4576.0
4	15	34	57	600	172.0	-216080.0	-4988.0	-4584.0
4	15	34	57	600	173.0	-213908.0	-5016.0	-4200.0
4	15	34	57	601	174.0	-211841.0	-5023.0	-4097.0
4	15	34	57	601	175.0	-210149.0	-5037.0	-3987.0
4	15	34	57	602	176.0	-208747.0	-5080.0	-4139.0
4	15	34	57	603	177.0	-207339.0	-5099.0	-4686.0
4	15	34	57	603	178.0	-205724.0	-5084.0	-4937.0
4	15	34	57	604	179.0	-203922.0	-5079.0	-4979.0
4	15	34	57	604	180.0	-201837.0	-5076.0	-5007.0
4	15	34	57	605	181.0	-199871.0	-5072.0	-5080.0
4	15	34	57	605	182.0	-198164.0	-5094.0	-5164.0
4	15	34	57	606	183.0	-196499.0	-5098.0	-5196.0
4	15	34	57	607	184.0	-194949.0	-5069.0	-5498.0
4	15	34	57	621	185.0	-193715.0	-5061.0	-5687.0
4	15	34	57	621	186.0	-192756.0	-5056.0	-5301.0
4	15	34	57	622	187.0	-192065.0	-5036.0	-5401.0
4	15	34	57	622	188.0	-191494.0	-4999.0	-5644.0
4	15	34	57	623	189.0	-191131.0	-4970.0	-5453.0
4	15	34	57	623	190.0	-191058.0	-4924.0	-5807.0
4	15	34	57	624	191.0	-191310.0	-4895.0	-5792.0
4	15	34	57	625	192.0	-192264.0	-4876.0	-4904.0
4	15	34	57	625	193.0	-193679.0	-4822.0	-5016.0
4	15	34	57	646	194.0	-194916.0	-4754.0	-5847.0
4	15	34	57	647	195.0	-195926.0	-4703.0	-5772.0
4	15	34	57	648	196.0	-196784.0	-4653.0	-5696.0
4	15	34	57	648	197.0	-197521.0	-4576.0	-5960.0
4	15	34	57	649	198.0	-198201.0	-4510.0	-6327.0
4	15	34	57	649	199.0	-198784.0	-4459.0	-6253.0
4	15	34	57	650	200.0	-199559.0	-4362.0	-6383.0
4	15	34	57	651	201.0	-200476.0	-4299.0	-5991.0
4	15	34	57	651	202.0	-201517.0	-4223.0	-5704.0
4	15	34	57	669	203.0	-202277.0	-4142.0	-5960.0
4	15	34	57	670	204.0	-202774.0	-4054.0	-6112.0
4	15	34	57	671	205.0	-202871.0	-3986.0	-5687.0
4	15	34	57	671	206.0	-203154.0	-3927.0	-6086.0
4	15	34	57	672	207.0	-203546.0	-3831.0	-6335.0
4	15	34	57	672	208.0	-203965.0	-3731.0	-6321.0
4	15	34	57	673	209.0	-204322.0	-3627.0	-6417.0
4	15	34	57	673	210.0	-204972.0	-3509.0	-5919.0
4	15	34	57	674	211.0	-205681.0	-3406.0	-5493.0
4	15	34	57	675	212.0	-206203.0	-3322.0	-5701.0
4	15	34	57	675	213.0	-206371.0	-3247.0	-5901.0
4	15	34	57	692	214.0	-206364.0	-3138.0	-6337.0
4	15	34	57	692	215.0	-206108.0	-3049.0	-5641.0
4	15	34	57	693	216.0	-205747.0	-2977.0	-5601.0
4	15	34	57	694	217.0	-205227.0	-2877.0	-5720.0
4	15	34	57	694	218.0	-204464.0	-2771.0	-6152.0
4	15	34	57	695	219.0	-203457.0	-2666.0	-5979.0
4	15	34	57	695	220.0	-202477.0	-2581.0	-5814.0
4	15	34	57	696	221.0	-201662.0	-2502.0	-5816.0
4	15	34	57	696	222.0	-200940.0	-2409.0	-5376.0
4	15	34	57	697	223.0	-200302.0	-2321.0	-5232.0
4	15	34	57	698	224.0	-199475.0	-2246.0	-5565.0
4	15	34	57	698	225.0	-198829.0	-2162.0	-4511.0
4	15	34	57	699	226.0	-198734.0	-2077.0	-4817.0
4	15	34	57	699	227.0	-198937.0	-2004.0	-5384.0
4	15	34	57	700	228.0	-199106.0	-1912.0	-5056.0
4	15	34	57	700	229.0	-199394.0	-1820.0	-5039.0
4	15	34	57	714	230.0	-199819.0	-1713.0	-4694.0
4	15	34	57	715	231.0	-200259.0	-1627.0	-4654.0
4	15	34	57	715	232.0	-200759.0	-1577.0	-4182.0
4	15	34	57	716	233.0	-201521.0	-1526.0	-3854.0
4	15	34	57	716	234.0	-202307.0	-1439.0	-4161.0
4	15	34	57	717	235.0	-202952.0	-1390.0	-3466.0
4	15	34	57	718	236.0	-203441.0	-1327.0	-3241.0
4	15	34	57	718	237.0	-203904.0	-1246.0	-3462.0
4	15	34	57	737	238.0	-204407.0	-1164.0	-3025.0
4	15	34	57	737	239.0	-205232.0	-1093.0	-2871.0
4	15	34	57	738	240.0	-205920.0	-1013.0	-2905.0
4	15	34	57	739	241.0	-206731.0	-944.0	-2439.0
4	15	34	57	739	242.0	-207717.0	-895.0	-2067.0
4	15	34	57	740	243.0	-208400.0	-841.0	-2067.0
4	15	34	57	741	244.0	-208559.0	-788.0	-1612.0
4	15	34	57	741	245.0	-208073.0	-736.0	-1112.0
4	15	34	57	742	246.0	-205649.0	-687.0	-1391.0
4	15	34	57	742	247.0	-200466.0	-640.0	-1375.0
4	15	34	57	743	248.0	-192457.0	-569.0	-1537.0
4	15	34	57	743	249.0	-188120.0	-512.0	-1239.0
4	15	34	57	744	250.0	-191336.0	-444.0	-824.0
4	15	34	57	745	251.0	-197124.0	-416.0	-758.0
4	15	34	57	745	252.0	-202914.0	-372.0	-524.0
4	15	34	57	761	253.0	-206286.0	-338.0	-296.0
4	15	34	57	762	254.0	-206368.0	-289.0	-11.0
4	15	34	57	762	255.0	-205207.0	-233.0	908.0
4	15	34	57	763	0.0	-203817.0	-203.0	961.0
4	15	34	57	763	1.0	-202623.0	-159.0	579.0
4	15	34	57	764	2.0	-202711.0	-103.0	-58.0
4	15	34	57	765	3.0	-202049.0	-41.0	249.0
4	15	34	57	765	4.0	-200991.0	2.0	790.0
4	15	34	57	766	5.0	-200419.0	46.0	1136.0
4	15	34	57	784	6.0	-199609.0	89.0	1131.0
4	15	34	57	785	7.0	-197889.0	112.0	1053.0
4	15	34	57	785	8.0	-196143.0	152.0	1170.0
4	15	34	57	786	9.0	-195963.0	174.0	2343.0
4	15	34	57	786	10.0	-196272.0	213.0	1836.0
4	15	34	57	787	11.0	-196868.0	259.0	1456.0
4	15	34	57	788	12.0	-197702.0	306.0	1447.0
4	15	34	57	788	13.0	-198537.0	368.0	1504.0
4	15	34	57	789	14.0	-199780.0	418.0	1158.0
4	15	34	57	789	15.0	-200688.0	451.0	1543.0
4	15	34	57	790	16.0	-200852.0	449.0	2096.0
4	15	34	57	790	17.0	-200552.0	499.0	1699.0
4	15	34	57	791	18.0	-200021.0	544.0	1782.0
4	15	34	57	792	19.0	-199025.0	548.0	2829.0
4	15	34	57	807	20.0	-197837.0	604.0	2054.0
4	15	34	57	808	21.0	-196084.0	655.0	1543.0
4	15	34	57	808	22.0	-193712.0	699.0	1789.0
4	15	34	57	809	23.0	-191101.0	754.0	1380.0
4	15	34	57	810	24.0	-188612.0	794.0	1289.0
4	15	34	57	810	25.0	-186356.0	842.0	1761.0
4	15	34	57	811	26.0	-184305.0	871.0	1524.0
4	15	34	57	830	27.0	-182629.0	903.0	1261.0
4	15	34	57	830	28.0	-181009.0	951.0	1543.0
4	15	34	57	831	29.0	-179567.0	979.0	1851.0
4	15	34	57	832	30.0	-178491.0	1008.0	1437.0
4	15	34	57	832	31.0	-177936.0	1072.0	1448.0
4	15	34	57	833	32.0	-177781.0	1116.0	1289.0
4	15	34	57	833	33.0	-178181.0	1159.0	1414.0
4	15	34	57	834	34.0	-179168.0	1195.0	1093.0
4	15	34	57	835	35.0	-180557.0	1235.0	1753.0
4	15	34	57	835	36.0	-182221.0	1278.0	1903.0
4	15	34	57	836	37.0	-183874.0	1313.0	1116.0
4	15	34	57	836	38.0	-185547.0	1337.0	1488.0
4	15	34	57	837	39.0	-187409.0	1353.0	1921.0
4	15	34	57	837	40.0	-189031.0	1408.0	2001.0
4	15	34	57	838	41.0	-190477.0	1444.0	1129.0
4	15	34	57	853	42.0	-191826.0	1483.0	1131.0
4	15	34	57	853	43.0	-192946.0	1520.0	1605.0
4	15	34	57	854	44.0	-194448.0	1545.0	1498.0
4	15	34	57	855	45.0	-196347.0	1575.0	2071.0
4	15	34	57	855	46.0	-198586.0	1594.0	2367.0
4	15	34	57	881	47.0	-200776.0	1626.0	1843.0
4	15	34	57	882	48.0	-202823.0	1660.0	2001.0
4	15	34	57	883	49.0	-204729.0	1675.0	2097.0
4	15	34	57	883	50.0	-206524.0	1705.0	2286.0
4	15	34	57	884	51.0	-207906.0	1744.0	1859.0
4	15	34	57	885	52.0	-208691.0	1771.0	1551.0
4	15	34	57	885	53.0	-209260.0	1796.0	1351.0
4	15	34	57	886	54.0	-209891.0	1849.0	1554.0
4	15	34	57	887	55.0	-210529.0	1863.0	2384.0
4	15	34	57	887	56.0	-211207.0	1864.0	2114.0
4	15	34	57	888	57.0	-211504.0	1896.0	1214.0
4	15	34	57	889	58.0	-211657.0	1905.0	2066.0
4	15	34	57	889	59.0	-211821.0	1924.0	2483.0
4	15	34	57	890	60.0	-211850.0	1962.0	1944.0
4	15	34	57	890	61.0	-211709.0	1983.0	2091.0
4	15	34	57	891	62.0	-211324.0	2017.0	1843.0
4	15	34	57	892	63.0	-210637.0	2038.0	1787.0
4	15	34	57	892	64.0	-209802.0	2051.0	2403.0
4	15	34	57	893	65.0	-208893.0	2074.0	3021.0
4	15	34	57	893	66.0	-207909.0	2086.0	2781.0
4	15	34	57	894	67.0	-206746.0	2109.0	2470.0
4	15	34	57	895	68.0	-205385.0	2109.0	2886.0
4	15	34	57	895	69.0	-203878.0	2114.0	3073.0
4	15	34	57	896	70.0	-202553.0	2134.0	2743.0
4	15	34	57	897	71.0	-201334.0	2163.0	2487.0
4	15	34	57	904	72.0	-200089.0	2186.0	2561.0
4	15	34	57	905	73.0	-198765.0	2228.0	2171.0
4	15	34	57	906	74.0	-197182.0	2243.0	2341.0
4	15	34	57	906	75.0	-195499.0	2261.0	2706.0
4	15	34	57	907	76.0	-193702.0	2265.0	3001.0
4	15	34	57	907	77.0	-192008.0	2279.0	2509.0
4	15	34	57	908	78.0	-190611.0	2298.0	2748.0
4	15	34	57	927	79.0	-189424.0	2307.0	3455.0
4	15	34	57	927	80.0	-188491.0	2314.0	2853.0
4	15	34	57	928	81.0	-187704.0	2338.0	2993.0
4	15	34	57	929	82.0	-187296.0	2349.0	2994.0
4	15	34	57	929	83.0	-187198.0	2387.0	2323.0
4	15	34	57	930	84.0	-187004.0	2398.0	2362.0
4	15	34	57	930	85.0	-187056.0	2406.0	3084.0
4	15	34	57	931	86.0	-187727.0	2416.0	2994.0
4	15	34	57	932	87.0	-188362.0	2426.0	2353.0
4	15	34	57	932	88.0	-188873.0	2436.0	2663.0
4	15	34	57	950	89.0	-189597.0	2439.0	2999.0
4	15	34	57	951	90.0	-190733.0	2453.0	2733.0
4	15	34	57	951	91.0	-191821.0	2471.0	2838.0
4	15	34	57	952	92.0	-192941.0	2501.0	2782.0
4	15	34	57	953	93.0	-194157.0	2511.0	2298.0
4	15	34	57	953	94.0	-195592.0	2506.0	3099.0
4	15	34	57	954	95.0	-197294.0	2515.0	3563.0
4	15	34	57	955	96.0	-199210.0	2507.0	2829.0
4	15	34	57	955	97.0	-201347.0	2540.0	2808.0
4	15	34	57	956	98.0	-203274.0	2520.0	3284.0
4	15	34	57	957	99.0	-205040.0	2520.0	2978.0
4	15	34	57	957	100.0	-206480.0	2539.0	2624.0
4	15	34	57	958	101.0	-207912.0	2567.0	2884.0
4	15	34	57	958	102.0	-209367.0	2584.0	2869.0
4	15	34	57	959	103.0	-210702.0	2611.0	2533.0
4	15	34	57	959	104.0	-211872.0	2611.0	2686.0
4	15	34	57	973	105.0	-212950.0	2601.0	3033.0
4	15	34	57	974	106.0	-213862.0	2621.0	3338.0
4	15	34	57	974	107.0	-214587.0	2627.0	3229.0
4	15	34	57	995	108.0	-215109.0	2627.0	3756.0
4	15	34	57	996	109.0	-215330.0	2626.0	3242.0
4	15	34	57	997	110.0	-215410.0	2626.0	2810.0
4	15	34	57	997	111.0	-215315.0	2649.0	2663.0
4	15	34	57	998	112.0	-214374.0	2669.0	2841.0
4	15	34	57	999	113.0	-212995.0	2671.0	3074.0
4	15	34	57	999	114.0	-211431.0	2664.0	3103.0
4	15	34	58	0	115.0	-209674.0	2651.0	3103.0
4	15	34	58	0	116.0	-207431.0	2648.0	3222.0
4	15	34	58	1	117.0	-204864.0	2643.0	2680.0
4	15	34	58	1	118.0	-202157.0	2632.0	3671.0
4	15	34	58	2	119.0	-199467.0	2638.0	3456.0
4	15	34	58	3	120.0	-196957.0	2643.0	2649.0
4	15	34	58	3	121.0	-194733.0	2651.0	2611.0
4	15	34	58	4	122.0	-192497.0	2660.0	2878.0
4	15	34	58	4	123.0	-190474.0	2649.0	2733.0
4	15	34	58	18	124.0	-188911.0	2641.0	3010.0
4	15	34	58	19	125.0	-187464.0	2647.0	3368.0
4	15	34	58	19	126.0	-185924.0	2638.0	3203.0
4	15	34	58	20	127.0	-184597.0	2630.0	3034.0
4	15	34	58	21	128.0	-183469.0	2604.0	3498.0
4	15	34	58	21	129.0	-182647.0	2598.0	2901.0
4	15	34	58	22	130.0	-182434.0	2589.0	2717.0
4	15	34	58	23	131.0	-182317.0	2578.0	3064.0
4	15	34	58	23	132.0	-182328.0	2599.0	3139.0
4	15	34	58	24	133.0	-182420.0	2604.0	2929.0
4	15	34	58	25	134.0	-182795.0	2584.0	3293.0
4	15	34	58	25	135.0	-183496.0	2574.0	3296.0
4	15	34	58	26	136.0	-184565.0	2550.0	3159.0
4	15	34	58	26	137.0	-185962.0	2549.0	3301.0
4	15	34	58	27	138.0	-187437.0	2520.0	3752.0
4	15	34	58	43	139.0	-188844.0	2513.0	3048.0
4	15	34	58	44	140.0	-190334.0	2488.0	3221.0
4	15	34	58	45	141.0	-192224.0	2489.0	3185.0
4	15	34	58	45	142.0	-194272.0	2507.0	2809.0
4	15	34	58	46	143.0	-196158.0	2487.0	2688.0
4	15	34	58	46	144.0	-198121.0	2453.0	3273.0
4	15	34	58	47	145.0	-200361.0	2449.0	3254.0
4	15	34	58	48	146.0	-202579.0	2428.0	3422.0
4	15	34	58	69	147.0	-204756.0	2416.0	3559.0
4	15	34	58	69	148.0	-206544.0	2386.0	3645.0
4	15	34	58	70	149.0	-208141.0	2377.0	3218.0
4	15	34	58	71	150.0	-209281.0	2356.0	3024.0
4	15	34	58	71	151.0	-209878.0	2354.0	2809.0
4	15	34	58	72	152.0	-210289.0	2339.0	2746.0
4	15	34	58	72	153.0	-210526.0	2334.0	2684.0
4	15	34	58	73	154.0	-210734.0	2315.0	3093.0
4	15	34	58	74	155.0	-210812.0	2296.0	3148.0
4	15	34	58	74	156.0	-210599.0	2262.0	2818.0
4	15	34	58	75	157.0	-210089.0	2235.0	3176.0
4	15	34	58	75	158.0	-209486.0	2198.0	3901.0
4	15	34	58	76	159.0	-208694.0	2161.0	3166.0
4	15	34	58	77	160.0	-207694.0	2135.0	2756.0
4	15	34	58	77	161.0	-206676.0	2144.0	2630.0
4	15	34	58	91	162.0	-205451.0	2139.0	2750.0
4	15	34	58	92	163.0	-204201.0	2121.0	2533.0
4	15	34	58	93	164.0	-202817.0	2084.0	3013.0
4	15	34	58	93	165.0	-201461.0	2066.0	3348.0
4	15	34	58	94	166.0	-200197.0	2049.0	3051.0
4	15	34	58	94	167.0	-199086.0	2018.0	3511.0
4	15	34	58	95	168.0	-198237.0	1954.0	3733.0
4	15	34	58	114	169.0	-197471.0	1932.0	3041.0
4	15	34	58	114	170.0	-196547.0	1928.0	3154.0
4	15	34	58	115	171.0	-195526.0	1921.0	3045.0
4	15	34	58	116	172.0	-194421.0	1911.0	2899.0
4	15	34	58	116	173.0	-193270.0	1891.0	3424.0
4	15	34	58	117	174.0	-192509.0	1852.0	3609.0
4	15	34	58	117	175.0	-191958.0	1808.0	3251.0
4	15	34	58	118	176.0	-191604.0	1769.0	3011.0
4	15	34	58	119	177.0	-191390.0	1748.0	3104.0
4	15	34	58	119	178.0	-191396.0	1711.0	3012.0
4	15	34	58	120	179.0	-191685.0	1691.0	2651.0
4	15	34	58	120	180.0	-192036.0	1675.0	2969.0
4	15	34	58	121	181.0	-192253.0	1651.0	2731.0
4	15	34	58	122	182.0	-192552.0	1633.0	2934.0
4	15	34	58	122	183.0	-193344.0	1618.0	3039.0
4	15	34	58	137	184.0	-194398.0	1586.0	3267.0
4	15	34	58	138	185.0	-195449.0	1553.0	3527.0
4	15	34	58	138	186.0	-196579.0	1520.0	3248.0
4	15	34	58	139	187.0	-197892.0	1495.0	3471.0
4	15	34	58	140	188.0	-199116.0	1464.0	3448.0
4	15	34	58	140	189.0	-200232.0	1446.0	3233.0
4	15	34	58	141	190.0	-201167.0	1416.0	3306.0
4	15	34	58	142	191.0	-201480.0	1401.0	2754.0
4	15	34	58	142	192.0	-201472.0	1390.0	2513.0
4	15	34	58	143	193.0	-201741.0	1380.0	2660.0
4	15	34	58	144	194.0	-202271.0	1344.0	2894.0
4	15	34	58	144	195.0	-202784.0	1308.0	2949.0
4	15	34	58	145	196.0	-203469.0	1276.0	2644.0
4	15	34	58	145	197.0	-203904.0	1259.0	2990.0
4	15	34	58	146	198.0	-204064.0	1218.0	3221.0
4	15	34	58	159	199.0	-204276.0	1191.0	2539.0
4	15	34	58	160	200.0	-204157.0	1193.0	2481.0
4	15	34	58	161	201.0	-203632.0	1169.0	2488.0
4	15	34	58	161	202.0	-202941.0	1148.0	2268.0
4	15	34	58	162	203.0	-202179.0	1110.0	2599.0
4	15	34	58	163	204.0	-201335.0	1068.0	3189.0
4	15	34	58	163	205.0	-200562.0	1034.0	2931.0
4	15	34	58	164	206.0	-200066.0	1006.0	2819.0
4	15	34	58	182	207.0	-199724.0	974.0	3491.0
4	15	34	58	183	208.0	-199692.0	943.0	3206.0
4	15	34	58	183	209.0	-199866.0	906.0	2937.0
4	15	34	58	184	210.0	-200001.0	879.0	2764.0
4	15	34	58	185	211.0	-199973.0	868.0	1909.0
4	15	34	58	185	212.0	-199944.0	846.0	2156.0
4	15	34	58	186	213.0	-200012.0	816.0	2697.0
4	15	34	58	187	214.0	-200101.0	813.0	3058.0
4	15	34	58	187	215.0	-200156.0	781.0	2991.0
4	15	34	58	188	216.0	-200028.0	750.0	3001.0
4	15	34	58	205	217.0	-199781.0	712.0	3899.0
4	15	34	58	205	218.0	-199700.0	680.0	3439.0
4	15	34	58	206	219.0	-199805.0	654.0	3384.0
4	15	34	58	207	220.0	-199661.0	619.0	3073.0
4	15	34	58	208	221.0	-199729.0	612.0	2848.0
4	15	34	58	208	222.0	-199828.0	576.0	2668.0
4	15	34	58	209	223.0	-199599.0	541.0	2631.0
4	15	34	58	210	224.0	-199363.0	499.0	3115.0
4	15	34	58	210	225.0	-199232.0	471.0	3122.0
4	15	34	58	211	226.0	-198962.0	449.0	2816.0
4	15	34	58	211	227.0	-198917.0	409.0	3134.0
4	15	34	58	212	228.0	-198987.0	359.0	3016.0
4	15	34	58	213	229.0	-199312.0	340.0	2893.0
4	15	34	58	213	230.0	-199744.0	316.0	2551.0
4	15	34	58	229	231.0	-200068.0	304.0	2329.0
4	15	34	58	229	232.0	-200150.0	278.0	2064.0
4	15	34	58	230	233.0	-200106.0	269.0	2501.0
4	15	34	58	231	234.0	-200113.0	226.0	2712.0
4	15	34	58	231	235.0	-199841.0	191.0	2590.0
4	15	34	58	232	236.0	-198963.0	178.0	2626.0
4	15	34	58	233	237.0	-198234.0	132.0	2901.0
4	15	34	58	234	238.0	-197584.0	63.0	2564.0
4	15	34	58	234	239.0	-197379.0	46.0	2557.0
4	15	34	58	235	240.0	-197363.0	27.0	2613.0
4	15	34	58	236	241.0	-197257.0	1.0	2324.0
4	15	34	58	236	242.0	-197037.0	-23.0	1782.0
4	15	34	58	251	243.0	-196999.0	-65.0	2421.0
4	15	34	58	251	244.0	-197031.0	-85.0	2801.0
4	15	34	58	252	245.0	-197087.0	-113.0	2619.0
4	15	34	58	253	246.0	-197294.0	-139.0	2584.0
4	15	34	58	253	247.0	-197412.0	-192.0	2721.0
4	15	34	58	254	248.0	-197601.0	-221.0	2562.0
4	15	34	58	254	249.0	-198035.0	-246.0	2833.0
4	15	34	58	255	250.0	-198615.0	-284.0	2363.0
4	15	34	58	256	251.0	-199119.0	-299.0	2181.0
4	15	34	58	274	252.0	-199356.0	-291.0	2308.0
4	15	34	58	275	253.0	-199603.0	-333.0	3011.0
4	15	34	58	275	254.0	-199721.0	-399.0	2513.0
4	15	34	58	276	255.0	-199661.0	-420.0	2403.0
4	15	34	58	277	0.0	-199519.0	-434.0	2546.0
4	15	34	58	277	1.0	-199461.0	-484.0	2461.0
4	15	34	58	278	2.0	-199431.0	-515.0	2526.0
4	15	34	58	279	3.0	-199534.0	-543.0	2638.0
4	15	34	58	279	4.0	-199611.0	-557.0	1974.0
4	15	34	58	280	5.0	-199560.0	-566.0	1959.0
4	15	34	58	281	6.0	-199710.0	-603.0	1892.0
4	15	34	58	281	7.0	-199977.0	-653.0	2134.0
4	15	34	58	282	8.0	-200242.0	-689.0	2133.0
4	15	34	58	283	9.0	-200473.0	-721.0	2068.0
4	15	34	58	283	10.0	-200526.0	-744.0	1847.0
4	15	34	58	296	11.0	-200138.0	-799.0	2356.0
4	15	34	58	297	12.0	-199722.0	-835.0	2068.0
4	15	34	58	297	13.0	-199501.0	-836.0	1645.0
4	15	34	58	298	14.0	-199371.0	-855.0	1226.0
4	15	34	58	299	15.0	-199158.0	-888.0	1359.0
4	15	34	58	299	16.0	-199131.0	-919.0	1443.0
4	15	34	58	300	17.0	-198952.0	-956.0	1646.0
4	15	34	58	324	18.0	-198654.0	-986.0	1764.0
4	15	34	58	337	19.0	-198494.0	-1014.0	1668.0
4	15	34	58	340	20.0	-198476.0	-1048.0	1447.0
4	15	34	58	341	21.0	-198377.0	-1087.0	1591.0
4	15	34	58	341	22.0	-198502.0	-1119.0	894.0
4	15	34	58	342	23.0	-198560.0	-1149.0	816.0
4	15	34	58	343	24.0	-198547.0	-1172.0	818.0
4	15	34	58	343	25.0	-198494.0	-1195.0	786.0
4	15	34	58	344	26.0	-198552.0	-1217.0	1111.0
4	15	34	58	344	27.0	-198764.0	-1253.0	1591.0
4	15	34	58	345	28.0	-198584.0	-1284.0	1254.0
4	15	34	58	345	29.0	-198461.0	-1315.0	1497.0
4	15	34	58	346	30.0	-198505.0	-1336.0	1761.0
4	15	34	58	346	31.0	-198743.0	-1379.0	2014.0
4	15	34	58	347	32.0	-198931.0	-1417.0	1528.0
4	15	34	58	348	33.0	-198854.0	-1441.0	1548.0
4	15	34	58	348	34.0	-198859.0	-1443.0	1390.0
4	15	34	58	349	35.0	-199052.0	-1476.0	1364.0
4	15	34	58	349	36.0	-199292.0	-1512.0	1893.0
4	15	34	58	350	37.0	-199472.0	-1532.0	2143.0
4	15	34	58	350	38.0	-199558.0	-1557.0	1922.0
4	15	34	58	351	39.0	-199649.0	-1609.0	2304.0
4	15	34	58	351	40.0	-199762.0	-1646.0	2383.0
4	15	34	58	352	41.0	-200056.0	-1694.0	2166.0
4	15	34	58	353	42.0	-200502.0	-1729.0	2433.0
4	15	34	58	353	43.0	-200846.0	-1749.0	2509.0
4	15	34	58	354	44.0	-201156.0	-1761.0	1928.0
4	15	34	58	354	45.0	-201360.0	-1793.0	2118.0
4	15	34	58	355	46.0	-201366.0	-1799.0	2259.0
4	15	34	58	356	47.0	-201277.0	-1842.0	2010.0
4	15	34	58	383	48.0	-201182.0	-1874.0	2120.0
4	15	34	58	384	49.0	-200991.0	-1911.0	2365.0
4	15	34	58	385	50.0	-200575.0	-1928.0	2274.0
4	15	34	58	385	51.0	-199975.0	-1982.0	2957.0
4	15	34	58	386	52.0	-199222.0	-2024.0	2584.0
4	15	34	58	387	53.0	-198393.0	-2067.0	2176.0
4	15	34	58	387	54.0	-197285.0	-2062.0	1705.0
4	15	34	58	388	55.0	-196172.0	-2091.0	1631.0
4	15	34	58	389	56.0	-195199.0	-2117.0	1995.0
4	15	34	58	389	57.0	-194428.0	-2154.0	2511.0
4	15	34	58	390	58.0	-193692.0	-2206.0	2402.0
4	15	34	58	390	59.0	-193254.0	-2244.0	2163.0
4	15	34	58	391	60.0	-193017.0	-2272.0	2775.0
4	15	34	58	391	61.0	-192841.0	-2314.0	2940.0
4	15	34	58	392	62.0	-192747.0	-2353.0	2116.0
4	15	34	58	393	63.0	-192707.0	-2387.0	2225.0
4	15	34	58	393	64.0	-192659.0	-2396.0	1901.0
4	15	34	58	394	65.0	-192661.0	-2430.0	1432.0
4	15	34	58	394	66.0	-193022.0	-2456.0	1883.0
4	15	34	58	403	67.0	-193824.0	-2486.0	2090.0
4	15	34	58	404	68.0	-194812.0	-2520.0	2043.0
4	15	34	58	427	69.0	-196124.0	-2557.0	2250.0
4	15	34	58	427	70.0	-197861.0	-2581.0	2654.0
4	15	34	58	428	71.0	-199959.0	-2621.0	2554.0
4	15	34	58	429	72.0	-201652.0	-2631.0	1256.0
4	15	34	58	429	73.0	-203124.0	-2682.0	958.0
4	15	34	58	430	74.0	-204317.0	-2694.0	667.0
4	15	34	58	430	75.0	-205209.0	-2713.0	843.0
4	15	34	58	431	76.0	-205814.0	-2744.0	1072.0
4	15	34	58	431	77.0	-206004.0	-2781.0	170.0
4	15	34	58	432	78.0	-205762.0	-2807.0	-1148.0
4	15	34	58	433	79.0	-205414.0	-2834.0	-2857.0
4	15	34	58	433	80.0	-204984.0	-2871.0	-4194.0
4	15	34	58	434	81.0	-204292.0	-2911.0	-6131.0
4	15	34	58	434	82.0	-203858.0	-2950.0	-8771.0
4	15	34	58	435	83.0	-203432.0	-2977.0	-12249.0
4	15	34	58	435	84.0	-202469.0	-2985.0	-16255.0
4	15	34	58	450	85.0	-201077.0	-3017.0	-20886.0
4	15	34	58	450	86.0	-199061.0	-3031.0	-26112.0
4	15	34	58	451	87.0	-196580.0	-3073.0	-29446.0
4	15	34	58	452	88.0	-193927.0	-3109.0	-28611.0
4	15	34	58	452	89.0	-191301.0	-3142.0	-28468.0
4	15	34	58	453	90.0	-188710.0	-3166.0	-30597.0
4	15	34	58	453	91.0	-186404.0	-3210.0	-33122.0
4	15	34	58	454	92.0	-184914.0	-3248.0	-33269.0
4	15	34	58	473	93.0	-184322.0	-3269.0	-31655.0
4	15	34	58	474	94.0	-184287.0	-3276.0	-27924.0
4	15	34	58	475	95.0	-184819.0	-3301.0	-23356.0
4	15	34	58	475	96.0	-185955.0	-3325.0	-18648.0
4	15	34	58	476	97.0	-187428.0	-3355.0	-11142.0
4	15	34	58	477	98.0	-189112.0	-3409.0	-3941.0
4	15	34	58	477	99.0	-191088.0	-3433.0	-1267.0
4	15	34	58	478	100.0	-193757.0	-3478.0	740.0
4	15	34	58	478	101.0	-194243.0	-3511.0	1619.0
4	15	34	58	479	102.0	-186571.0	-3533.0	2859.0
4	15	34	58	480	103.0	-173427.0	-3559.0	3639.0
4	15	34	58	480	104.0	-161605.0	-3577.0	3369.0
4	15	34	58	481	105.0	-160556.0	-3606.0	2335.0
4	15	34	58	481	106.0	-168794.0	-3642.0	1516.0
4	15	34	58	482	107.0	-180492.0	-3669.0	1008.0
4	15	34	58	497	108.0	-190710.0	-3694.0	181.0
4	15	34	58	498	109.0	-197583.0	-3721.0	-205.0
4	15	34	58	498	110.0	-200423.0	-3781.0	-35.0
4	15	34	58	499	111.0	-199702.0	-3826.0	-530.0
4	15	34	58	499	112.0	-198397.0	-3844.0	-560.0
4	15	34	58	500	113.0	-198396.0	-3851.0	-904.0
4	15	34	58	501	114.0	-200479.0	-3865.0	-1090.0
4	15	34	58	501	115.0	-206016.0	-3890.0	-479.0
4	15	34	58	502	116.0	-212831.0	-3937.0	-402.0
4	15	34	58	503	117.0	-216313.0	-3948.0	-366.0
4	15	34	58	503	118.0	-214731.0	-3995.0	-342.0
4	15	34	58	504	119.0	-209141.0	-4025.0	-378.0
4	15	34	58	504	120.0	-200651.0	-4061.0	379.0
4	15	34	58	505	121.0	-192866.0	-4097.0	442.0
4	15	34	58	506	122.0	-187070.0	-4108.0	334.0
4	15	34	58	524	123.0	-182427.0	-4136.0	-382.0
4	15	34	58	524	124.0	-182425.0	-4162.0	-566.0
4	15	34	58	525	125.0	-185293.0	-4187.0	-272.0
4	15	34	58	526	126.0	-190802.0	-4204.0	-311.0
4	15	34	58	526	127.0	-197804.0	-4238.0	-429.0
4	15	34	58	527	128.0	-203294.0	-4262.0	-474.0
4	15	34	58	527	129.0	-206195.0	-4290.0	-564.0
4	15	34	58	547	130.0	-207070.0	-4332.0	48.0
4	15	34	58	548	131.0	-206336.0	-4372.0	-296.0
4	15	34	58	548	132.0	-205045.0	-4397.0	-761.0
4	15	34	58	549	133.0	-203894.0	-4412.0	-1040.0
4	15	34	58	550	134.0	-202954.0	-4431.0	-1130.0
4	15	34	58	551	135.0	-202261.0	-4467.0	-1116.0
4	15	34	58	551	136.0	-202307.0	-4502.0	-669.0
4	15	34	58	552	137.0	-203502.0	-4528.0	-666.0
4	15	34	58	553	138.0	-206255.0	-4557.0	-1014.0
4	15	34	58	553	139.0	-209704.0	-4584.0	-1309.0
4	15	34	58	554	140.0	-213357.0	-4616.0	-1229.0
4	15	34	58	554	141.0	-216036.0	-4647.0	-1502.0
4	15	34	58	555	142.0	-217192.0	-4689.0	-1429.0
4	15	34	58	556	143.0	-217086.0	-4694.0	-2221.0
4	15	34	58	556	144.0	-215964.0	-4716.0	-2505.0
4	15	34	58	557	145.0	-214026.0	-4747.0	-2192.0
4	15	34	58	558	146.0	-211439.0	-4761.0	-1756.0
4	15	34	58	558	147.0	-209107.0	-4779.0	-1921.0
4	15	34	58	559	148.0	-207087.0	-4822.0	-1939.0
4	15	34	58	570	149.0	-204935.0	-4857.0	-1947.0
4	15	34	58	570	150.0	-202475.0	-4898.0	-2212.0
4	15	34	58	593	151.0	-199997.0	-4925.0	-2111.0
4	15	34	58	593	152.0	-197839.0	-4947.0	-1894.0
4	15	34	58	594	153.0	-195452.0	-4957.0	-2665.0
4	15	34	58	595	154.0	-193293.0	-4982.0	-2646.0
4	15	34	58	595	155.0	-191819.0	-4986.0	-2760.0
4	15	34	58	596	156.0	-191109.0	-5025.0	-2597.0
4	15	34	58	597	157.0	-190821.0	-5060.0	-2781.0
4	15	34	58	597	158.0	-191102.0	-5099.0	-2939.0
4	15	34	58	598	159.0	-191981.0	-5125.0	-3202.0
4	15	34	58	599	160.0	-193204.0	-5171.0	-2506.0
4	15	34	58	599	161.0	-194239.0	-5206.0	-2614.0
4	15	34	58	600	162.0	-195422.0	-5237.0	-2965.0
4	15	34	58	601	163.0	-196741.0	-5238.0	-3561.0
4	15	34	58	601	164.0	-198162.0	-5266.0	-3398.0
4	15	34	58	602	165.0	-199976.0	-5291.0	-3587.0
4	15	34	58	602	166.0	-201881.0	-5326.0	-3311.0
4	15	34	58	603	167.0	-203919.0	-5362.0	-3130.0
4	15	34	58	604	168.0	-205916.0	-5389.0	-3032.0
4	15	34	58	604	169.0	-207985.0	-5406.0	-3313.0
4	15	34	58	605	170.0	-209539.0	-5452.0	-3211.0
4	15	34	58	615	171.0	-210479.0	-5464.0	-3647.0
4	15	34	58	616	172.0	-211056.0	-5482.0	-4067.0
4	15	34	58	617	173.0	-211412.0	-5509.0	-4219.0
4	15	34	58	638	174.0	-211895.0	-5514.0	-4539.0
4	15	34	58	639	175.0	-212185.0	-5532.0	-4694.0
4	15	34	58	639	176.0	-211912.0	-5568.0	-4377.0
4	15	34	58	640	177.0	-210957.0	-5607.0	-4437.0
4	15	34	58	641	178.0	-209820.0	-5614.0	-4589.0
4	15	34	58	641	179.0	-208506.0	-5638.0	-4751.0
4	15	34	58	642	180.0	-207184.0	-5690.0	-4621.0
4	15	34	58	642	181.0	-205941.0	-5725.0	-4569.0
4	15	34	58	643	182.0	-204351.0	-5736.0	-4607.0
4	15	34	58	644	183.0	-202632.0	-5746.0	-5074.0
4	15	34	58	644	184.0	-200978.0	-5748.0	-5138.0
4	15	34	58	645	185.0	-199304.0	-5762.0	-4919.0
4	15	34	58	645	186.0	-197595.0	-5779.0	-4714.0
4	15	34	58	646	187.0	-196442.0	-5826.0	-4794.0
4	15	34	58	647	188.0	-195661.0	-5829.0	-4939.0
4	15	34	58	647	189.0	-195127.0	-5839.0	-5316.0
4	15	34	58	648	190.0	-194931.0	-5871.0	-5584.0
4	15	34	58	660	191.0	-194487.0	-5867.0	-5370.0
4	15	34	58	661	192.0	-193911.0	-5846.0	-5701.0
4	15	34	58	661	193.0	-193371.0	-5835.0	-5907.0
4	15	34	58	662	194.0	-193122.0	-5831.0	-5701.0
4	15	34	58	663	195.0	-193231.0	-5820.0	-5848.0
4	15	34	58	663	196.0	-193612.0	-5829.0	-5663.0
4	15	34	58	664	197.0	-193904.0	-5816.0	-5592.0
4	15	34	58	683	198.0	-194033.0	-5803.0	-5551.0
4	15	34	58	683	199.0	-194238.0	-5771.0	-6004.0
4	15	34	58	684	200.0	-194512.0	-5747.0	-6001.0
4	15	34	58	685	201.0	-195022.0	-5710.0	-5834.0
4	15	34	58	685	202.0	-195526.0	-5674.0	-6175.0
4	15	34	58	686	203.0	-195930.0	-5616.0	-6536.0
4	15	34	58	687	204.0	-196430.0	-5537.0	-6716.0
4	15	34	58	687	205.0	-196961.0	-5477.0	-6722.0
4	15	34	58	688	206.0	-197672.0	-5443.0	-6446.0
4	15	34	58	688	207.0	-198636.0	-5386.0	-6141.0
4	15	34	58	689	208.0	-199549.0	-5324.0	-6572.0
4	15	34	58	689	209.0	-200428.0	-5258.0	-6357.0
4	15	34	58	690	210.0	-201525.0	-5201.0	-6105.0
4	15	34	58	691	211.0	-202364.0	-5112.0	-6356.0
4	15	34	58	691	212.0	-202867.0	-5028.0	-6962.0
4	15	34	58	706	213.0	-203246.0	-4936.0	-7179.0
4	15	34	58	706	214.0	-203591.0	-4845.0	-7198.0
4	15	34	58	707	215.0	-204122.0	-4752.0	-6743.0
4	15	34	58	707	216.0	-204574.0	-4674.0	-6408.0
4	15	34	58	708	217.0	-204611.0	-4586.0	-6480.0
4	15	34	58	709	218.0	-204336.0	-4500.0	-6406.0
4	15	34	58	709	219.0	-203892.0	-4406.0	-6331.0
4	15	34	58	729	220.0	-203352.0	-4322.0	-6416.0
4	15	34	58	729	221.0	-202507.0	-4227.0	-6987.0
4	15	34	58	730	222.0	-201641.0	-4135.0	-7046.0
4	15	34	58	731	223.0	-200867.0	-4019.0	-7404.0
4	15	34	58	731	224.0	-200296.0	-3911.0	-7154.0
4	15	34	58	732	225.0	-199980.0	-3809.0	-6742.0
4	15	34	58	732	226.0	-200049.0	-3719.0	-6822.0
4	15	34	58	733	227.0	-200062.0	-3641.0	-6902.0
4	15	34	58	734	228.0	-199869.0	-3534.0	-6689.0
4	15	34	58	734	229.0	-199561.0	-3446.0	-6571.0
4	15	34	58	735	230.0	-199417.0	-3373.0	-6527.0
4	15	34	58	735	231.0	-199567.0	-3258.0	-6520.0
4	15	34	58	736	232.0	-199748.0	-3180.0	-6518.0
4	15	34	58	737	233.0	-199876.0	-3066.0	-6422.0
4	15	34	58	737	234.0	-199742.0	-2954.0	-6401.0
4	15	34	58	751	235.0	-199748.0	-2860.0	-6331.0
4	15	34	58	751	236.0	-199993.0	-2784.0	-6121.0
4	15	34	58	752	237.0	-200302.0	-2701.0	-5773.0
4	15	34	58	753	238.0	-200641.0	-2612.0	-6117.0
4	15	34	58	754	239.0	-201097.0	-2523.0	-6184.0
4	15	34	58	754	240.0	-201386.0	-2475.0	-5887.0
4	15	34	58	755	241.0	-201574.0	-2404.0	-5872.0
4	15	34	58	755	242.0	-202022.0	-2307.0	-6201.0
4	15	34	58	774	243.0	-202743.0	-2207.0	-5617.0
4	15	34	58	775	244.0	-203331.0	-2126.0	-5635.0
4	15	34	58	775	245.0	-204073.0	-2051.0	-5170.0
4	15	34	58	776	246.0	-204814.0	-2001.0	-4610.0
4	15	34	58	777	247.0	-205545.0	-1938.0	-4392.0
4	15	34	58	777	248.0	-206338.0	-1878.0	-4606.0
4	15	34	58	778	249.0	-206995.0	-1806.0	-4216.0
4	15	34	58	796	250.0	-207836.0	-1742.0	-4011.0
4	15	34	58	797	251.0	-208598.0	-1679.0	-4172.0
4	15	34	58	798	252.0	-209087.0	-1613.0	-4484.0
4	15	34	58	798	253.0	-209477.0	-1529.0	-4219.0
4	15	34	58	799	254.0	-209717.0	-1465.0	-4106.0
4	15	34	58	800	255.0	-209682.0	-1397.0	-3517.0
4	15	34	58	800	0.0	-209085.0	-1351.0	-2792.0
4	15	34	58	801	1.0	-206754.0	-1316.0	-2840.0
4	15	34	58	802	2.0	-201659.0	-1244.0	-2941.0
4	15	34	58	802	3.0	-193422.0	-1225.0	-2185.0
4	15	34	58	803	4.0	-187926.0	-1181.0	-2297.0
4	15	34	58	803	5.0	-191261.0	-1132.0	-2126.0
4	15	34	58	804	6.0	-197262.0	-1075.0	-2359.0
4	15	34	58	805	7.0	-202437.0	-1009.0	-2458.0
4	15	34	58	805	8.0	-204867.0	-961.0	-1861.0
4	15	34	58	806	9.0	-203817.0	-925.0	-1508.0
4	15	34	58	806	10.0	-201401.0	-881.0	-1598.0
4	15	34	58	807	11.0	-199172.0	-848.0	-936.0
4	15	34	58	807	12.0	-197276.0	-784.0	-666.0
4	15	34	58	808	13.0	-196680.0	-752.0	104.0
4	15	34	58	809	14.0	-196278.0	-718.0	-164.0
4	15	34	58	809	15.0	-195587.0	-676.0	-302.0
4	15	34	58	820	16.0	-195497.0	-632.0	-857.0
4	15	34	58	821	17.0	-195504.0	-582.0	-734.0
4	15	34	58	821	18.0	-194911.0	-539.0	18.0
4	15	34	58	822	19.0	-193587.0	-506.0	13.0
4	15	34	58	823	20.0	-193349.0	-474.0	24.0
4	15	34	58	823	21.0	-194241.0	-443.0	434.0
4	15	34	58	824	22.0	-195886.0	-386.0	-14.0
4	15	34	58	824	23.0	-198271.0	-374.0	548.0
4	15	34	58	825	24.0	-200772.0	-334.0	694.0
4	15	34	58	847	25.0	-202624.0	-289.0	348.0
4	15	34	58	848	26.0	-203677.0	-249.0	329.0
4	15	34	58	849	27.0	-204087.0	-197.0	488.0
4	15	34	58	850	28.0	-204050.0	-167.0	134.0
4	15	34	58	850	29.0	-203590.0	-127.0	363.0
4	15	34	58	851	30.0	-202638.0	-79.0	705.0
4	15	34	58	851	31.0	-201403.0	-57.0	918.0
4	15	34	58	852	32.0	-200022.0	-27.0	856.0
4	15	34	58	853	33.0	-198448.0	-14.0	1474.0
4	15	34	58	853	34.0	-196909.0	14.0	967.0
4	15	34	58	854	35.0	-195468.0	61.0	528.0
4	15	34	58	855	36.0	-193967.0	98.0	193.0
4	15	34	58	855	37.0	-192307.0	156.0	417.0
4	15	34	58	856	38.0	-190702.0	196.0	513.0
4	15	34	58	857	39.0	-189372.0	220.0	788.0
4	15	34	58	857	40.0	-188258.0	249.0	1016.0
4	15	34	58	858	41.0	-187439.0	306.0	774.0
4	15	34	58	866	42.0	-187042.0	341.0	816.0
4	15	34	58	867	43.0	-186809.0	378.0	1135.0
4	15	34	58	868	44.0	-186951.0	412.0	1060.0
4	15	34	58	891	45.0	-187569.0	439.0	732.0
4	15	34	58	891	46.0	-188399.0	501.0	29.0
4	15	34	58	892	47.0	-189313.0	548.0	425.0
4	15	34	58	893	48.0	-190361.0	580.0	549.0
4	15	34	58	893	49.0	-191711.0	615.0	651.0
4	15	34	58	894	50.0	-193315.0	636.0	856.0
4	15	34	58	895	51.0	-194596.0	671.0	990.0
4	15	34	58	895	52.0	-195980.0	698.0	925.0
4	15	34	58	896	53.0	-197748.0	708.0	1441.0
4	15	34	58	896	54.0	-199408.0	736.0	1298.0
4	15	34	58	897	55.0	-200792.0	799.0	1221.0
4	15	34	58	898	56.0	-201966.0	838.0	413.0
4	15	34	58	898	57.0	-203031.0	860.0	867.0
4	15	34	58	899	58.0	-203783.0	913.0	607.0
4	15	34	58	900	59.0	-204561.0	926.0	936.0
4	15	34	58	900	60.0	-205254.0	936.0	1339.0
4	15	34	58	913	61.0	-205775.0	967.0	1142.0
4	15	34	58	914	62.0	-206382.0	999.0	1179.0
4	15	34	58	914	63.0	-206913.0	994.0	2061.0
4	15	34	58	915	64.0	-207261.0	1029.0	1873.0
4	15	34	58	915	65.0	-207676.0	1053.0	1486.0
4	15	34	58	916	66.0	-208411.0	1087.0	1327.0
4	15	34	58	916	67.0	-209225.0	1123.0	1268.0
4	15	34	58	917	68.0	-209905.0	1166.0	815.0
4	15	34	58	918	69.0	-210116.0	1181.0	941.0
4	15	34	58	935	70.0	-210364.0	1201.0	1366.0
4	15	34	58	936	71.0	-210601.0	1230.0	1488.0
4	15	34	58	937	72.0	-210372.0	1248.0	1734.0
4	15	34	58	938	73.0	-210281.0	1244.0	2466.0
4	15	34	58	938	74.0	-210054.0	1244.0	1886.0
4	15	34	58	939	75.0	-209181.0	1265.0	1458.0
4	15	34	58	940	76.0	-207978.0	1316.0	1396.0
4	15	34	58	940	77.0	-206937.0	1351.0	1301.0
4	15	34	58	941	78.0	-205943.0	1374.0	1254.0
4	15	34	58	942	79.0	-205173.0	1373.0	1571.0
4	15	34	58	942	80.0	-204533.0	1384.0	1653.0
4	15	34	58	943	81.0	-203743.0	1399.0	1412.0
4	15	34	58	944	82.0	-203117.0	1413.0	1531.0
4	15	34	58	944	83.0	-202507.0	1409.0	2036.0
4	15	34	58	957	84.0	-202102.0	1438.0	2143.0
4	15	34	58	979	85.0	-201832.0	1467.0	1667.0
4	15	34	58	980	86.0	-201445.0	1496.0	1276.0
4	15	34	58	981	87.0	-200780.0	1509.0	1248.0
4	15	34	58	981	88.0	-200236.0	1506.0	1288.0
4	15	34	58	982	89.0	-200114.0	1515.0	1451.0
4	15	34	58	982	90.0	-200005.0	1526.0	1761.0
4	15	34	58	983	91.0	-199518.0	1534.0	1881.0
4	15	34	58	984	92.0	-199217.0	1549.0	1888.0
4	15	34	58	984	93.0	-198980.0	1551.0	2112.0
4	15	34	58	985	94.0	-198637.0	1565.0	2287.0
4	15	34	58	985	95.0	-198344.0	1564.0	1983.0
4	15	34	58	986	96.0	-198269.0	1596.0	1710.0
4	15	34	58	987	97.0	-198352.0	1605.0	1673.0
4	15	34	58	987	98.0	-198204.0	1607.0	1712.0
4	15	34	58	988	99.0	-198162.0	1627.0	2579.0
4	15	34	58	988	100.0	-198127.0	1626.0	2419.0
4	15	34	58	989	101.0	-198001.0	1631.0	1768.0
4	15	34	58	990	102.0	-197439.0	1648.0	2246.0
4	15	34	58	990	103.0	-197126.0	1646.0	2527.0
4	15	34	58	991	104.0	-196604.0	1658.0	2390.0
4	15	34	59	2	105.0	-196040.0	1677.0	2034.0
4	15	34	59	3	106.0	-195254.0	1695.0	1996.0
4	15	34	59	4	107.0	-194540.0	1699.0	1808.0
4	15	34	59	5	108.0	-194467.0	1703.0	2096.0
4	15	34	59	5	109.0	-194756.0	1698.0	2612.0
4	15	34	59	6	110.0	-195019.0	1711.0	2216.0
4	15	34	59	6	111.0	-195384.0	1714.0	1931.0
4	15	34	59	7	112.0	-196022.0	1718.0	2424.0
4	15	34	59	8	113.0	-197127.0	1698.0	2343.0
4	15	34	59	8	114.0	-198149.0	1698.0	1618.0
4	15	34	59	25	115.0	-199204.0	1714.0	1571.0
4	15	34	59	26	116.0	-200268.0	1734.0	1516.0
4	15	34	59	27	117.0	-200999.0	1758.0	1895.0
4	15	34	59	27	118.0	-201934.0	1749.0	2299.0
4	15	34	59	28	119.0	-202491.0	1740.0	2262.0
4	15	34	59	29	120.0	-202841.0	1751.0	2441.0
4	15	34	59	30	121.0	-203380.0	1762.0	2306.0
4	15	34	59	30	122.0	-203459.0	1742.0	2087.0
4	15	34	59	31	123.0	-203455.0	1704.0	2228.0
4	15	34	59	32	124.0	-203855.0	1715.0	1917.0
4	15	34	59	32	125.0	-203963.0	1726.0	1636.0
4	15	34	59	33	126.0	-203771.0	1735.0	1871.0
4	15	34	59	34	127.0	-203739.0	1743.0	1672.0
4	15	34	59	34	128.0	-203869.0	1725.0	1739.0
4	15	34	59	48	129.0	-203801.0	1710.0	1885.0
4	15	34	59	49	130.0	-203756.0	1698.0	2166.0
4	15	34	59	50	131.0	-203600.0	1701.0	1837.0
4	15	34	59	50	132.0	-203431.0	1694.0	1941.0
4	15	34	59	51	133.0	-203046.0	1669.0	2224.0
4	15	34	59	52	134.0	-202783.0	1659.0	2220.0
4	15	34	59	52	135.0	-202702.0	1662.0	1786.0
4	15	34	59	53	136.0	-201972.0	1656.0	2021.0
4	15	34	59	75	137.0	-201293.0	1656.0	1689.0
4	15	34	59	76	138.0	-200741.0	1668.0	1768.0
4	15	34	59	77	139.0	-200164.0	1639.0	2194.0
4	15	34	59	78	140.0	-199431.0	1639.0	2578.0
4	15	34	59	79	141.0	-198794.0	1623.0	2256.0
4	15	34	59	79	142.0	-198116.0	1597.0	2253.0
4	15	34	59	80	143.0	-197752.0	1570.0	2639.0
4	15	34	59	81	144.0	-197993.0	1559.0	2162.0
4	15	34	59	81	145.0	-197859.0	1553.0	2009.0
4	15	34	59	82	146.0	-197287.0	1570.0	2074.0
4	15	34	59	82	147.0	-196730.0	1555.0	1667.0
4	15	34	59	83	148.0	-196242.0	1518.0	2064.0
4	15	34	59	84	149.0	-195704.0	1513.0	2261.0
4	15	34	59	84	150.0	-195269.0	1484.0	1986.0
4	15	34	59	85	151.0	-195047.0	1462.0	1844.0
4	15	34	59	98	152.0	-194841.0	1432.0	2388.0
4	15	34	59	99	153.0	-194537.0	1414.0	2442.0
4	15	34	59	99	154.0	-194572.0	1403.0	1973.0
4	15	34	59	100	155.0	-194769.0	1397.0	1631.0
4	15	34	59	101	156.0	-194480.0	1378.0	1671.0
4	15	34	59	102	157.0	-194510.0	1364.0	1856.0
4	15	34	59	102	158.0	-195204.0	1342.0	1878.0
4	15	34	59	103	159.0	-195757.0	1313.0	2051.0
4	15	34	59	104	160.0	-196051.0	1298.0	2123.0
4	15	34	59	104	161.0	-196181.0	1280.0	1996.0
4	15	34	59	105	162.0	-196603.0	1248.0	2466.0
4	15	34	59	106	163.0	-197257.0	1216.0	2461.0
4	15	34	59	106	164.0	-197751.0	1191.0	1933.0
4	15	34	59	107	165.0	-198112.0	1179.0	1746.0
4	15	34	59	108	166.0	-198690.0	1167.0	1738.0
4	15	34	59	120	167.0	-199222.0	1150.0	1816.0
4	15	34	59	121	168.0	-199830.0	1136.0	1719.0
4	15	34	59	122	169.0	-200311.0	1109.0	1724.0
4	15	34	59	122	170.0	-200767.0	1065.0	1992.0
4	15	34	59	123	171.0	-200813.0	1036.0	1603.0
4	15	34	59	124	172.0	-200506.0	999.0	2319.0
4	15	34	59	124	173.0	-200593.0	978.0	2179.0
4	15	34	59	143	174.0	-200607.0	963.0	1759.0
4	15	34	59	144	175.0	-200066.0	939.0	1621.0
4	15	34	59	145	176.0	-199689.0	919.0	1909.0
4	15	34	59	146	177.0	-199524.0	894.0	1982.0
4	15	34	59	146	178.0	-199248.0	875.0	2099.0
4	15	34	59	147	179.0	-198747.0	833.0	2144.0
4	15	34	59	148	180.0	-198091.0	818.0	1998.0
4	15	34	59	149	181.0	-197525.0	801.0	1541.0
4	15	34	59	150	182.0	-197052.0	752.0	2152.0
4	15	34	59	150	183.0	-196634.0	722.0	1799.0
4	15	34	59	151	184.0	-196347.0	701.0	1566.0
4	15	34	59	152	185.0	-196141.0	683.0	1924.0
4	15	34	59	152	186.0	-195909.0	666.0	1605.0
4	15	34	59	153	187.0	-195655.0	668.0	1218.0
4	15	34	59	153	188.0	-195472.0	618.0	1821.0
4	15	34	59	165	189.0	-195205.0	562.0	2124.0
4	15	34	59	166	190.0	-194994.0	540.0	1716.0
4	15	34	59	167	191.0	-194817.0	529.0	1798.0
4	15	34	59	167	192.0	-194712.0	479.0	2441.0
4	15	34	59	168	193.0	-194865.0	447.0	2047.0
4	15	34	59	169	194.0	-195160.0	434.0	1951.0
4	15	34	59	169	195.0	-195649.0	404.0	1515.0
4	15	34	59	170	196.0	-196074.0	388.0	1431.0
4	15	34	59	188	197.0	-196423.0	377.0	1447.0
4	15	34	59	189	198.0	-196834.0	331.0	1868.0
4	15	34	59	190	199.0	-197206.0	293.0	1916.0
4	15	34	59	191	200.0	-197234.0	274.0	1839.0
4	15	34	59	192	201.0	-196841.0	266.0	1750.0
4	15	34	59	193	202.0	-196374.0	201.0	2020.0
4	15	34	59	193	203.0	-195937.0	152.0	1941.0
4	15	34	59	194	204.0	-195549.0	134.0	1366.0
4	15	34	59	195	205.0	-195501.0	126.0	1226.0
4	15	34	59	196	206.0	-195763.0	99.0	1663.0
4	15	34	59	197	207.0	-196162.0	72.0	1367.0
4	15	34	59	197	208.0	-196735.0	26.0	1631.0
4	15	34	59	198	209.0	-197354.0	-10.0	1884.0
4	15	34	59	199	210.0	-197818.0	-37.0	1756.0
4	15	34	59	219	211.0	-198066.0	-47.0	1786.0
4	15	34	59	220	212.0	-198546.0	-75.0	2318.0
4	15	34	59	221	213.0	-198971.0	-109.0	1998.0
4	15	34	59	221	214.0	-199112.0	-143.0	1568.0
4	15	34	59	222	215.0	-199091.0	-170.0	1268.0
4	15	34	59	223	216.0	-198940.0	-181.0	1248.0
4	15	34	59	223	217.0	-198881.0	-204.0	990.0
4	15	34	59	224	218.0	-198582.0	-255.0	1435.0
4	15	34	59	225	219.0	-198549.0	-293.0	1821.0
4	15	34	59	225	220.0	-198611.0	-311.0	1638.0
4	15	34	59	226	221.0	-198671.0	-340.0	1875.0
4	15	34	59	226	222.0	-198723.0	-376.0	2551.0
4	15	34	59	227	223.0	-198822.0	-411.0	1864.0
4	15	34	59	228	224.0	-198665.0	-436.0	1698.0
4	15	34	59	228	225.0	-198442.0	-457.0	1571.0
4	15	34	59	237	226.0	-198190.0	-477.0	1120.0
4	15	34	59	238	227.0	-197940.0	-506.0	1454.0
4	15	34	59	238	228.0	-197596.0	-536.0	1796.0
4	15	34	59	239	229.0	-197247.0	-580.0	1614.0
4	15	34	59	240	230.0	-197036.0	-616.0	1426.0
4	15	34	59	240	231.0	-196604.0	-625.0	1888.0
4	15	34	59	241	232.0	-196212.0	-681.0	1911.0
4	15	34	59	241	233.0	-196045.0	-712.0	1588.0
4	15	34	59	258	234.0	-195943.0	-750.0	1598.0
4	15	34	59	259	235.0	-195936.0	-774.0	1434.0
4	15	34	59	260	236.0	-195961.0	-809.0	779.0
4	15	34	59	260	237.0	-195977.0	-814.0	773.0
4	15	34	59	261	238.0	-196096.0	-837.0	1336.0
4	15	34	59	261	239.0	-196289.0	-868.0	1453.0
4	15	34	59	262	240.0	-196216.0	-918.0	1285.0
4	15	34	59	280	241.0	-196052.0	-949.0	1519.0
4	15	34	59	281	242.0	-195992.0	-1005.0	1869.0
4	15	34	59	282	243.0	-196197.0	-1029.0	1616.0
4	15	34	59	282	244.0	-196542.0	-1039.0	1098.0
4	15	34	59	283	245.0	-196819.0	-1074.0	1111.0
4	15	34	59	283	246.0	-197121.0	-1085.0	989.0
4	15	34	59	284	247.0	-197616.0	-1120.0	953.0
4	15	34	59	285	248.0	-198319.0	-1167.0	1684.0
4	15	34	59	285	249.0	-198674.0	-1194.0	1840.0
4	15	34	59	286	250.0	-198650.0	-1215.0	1334.0
4	15	34	59	286	251.0	-198395.0	-1251.0	2013.0
4	15	34	59	287	252.0	-198189.0	-1300.0	2014.0
4	15	34	59	287	253.0	-198125.0	-1339.0	1658.0
4	15	34	59	288	254.0	-197762.0	-1368.0	1599.0
4	15	34	59	288	255.0	-197424.0	-1383.0	1610.0
4	15	34	59	302	0.0	-197384.0	-1410.0	1346.0
4	15	34	59	303	1.0	-197723.0	-1441.0	1339.0
4	15	34	59	304	2.0	-197936.0	-1480.0	1724.0
4	15	34	59	304	3.0	-198007.0	-1537.0	1304.0
4	15	34	59	305	4.0	-198080.0	-1560.0	823.0
4	15	34	59	305	5.0	-198319.0	-1600.0	1753.0
4	15	34	59	306	6.0	-198539.0	-1651.0	1924.0
4	15	34	59	306	7.0	-198719.0	-1679.0	1681.0
4	15	34	59	326	8.0	-198531.0	-1691.0	1217.0
4	15	34	59	326	9.0	-198182.0	-1718.0	851.0
4	15	34	59	327	10.0	-197854.0	-1746.0	957.0
4	15	34	59	328	11.0	-197726.0	-1759.0	1319.0
4	15	34	59	328	12.0	-197667.0	-1807.0	1459.0
4	15	34	59	329	13.0	-197445.0	-1844.0	1514.0
4	15	34	59	329	14.0	-197080.0	-1879.0	1614.0
4	15	34	59	330	15.0	-196833.0	-1910.0	2110.0
4	15	34	59	330	16.0	-196824.0	-1951.0	2079.0
4	15	34	59	331	17.0	-196967.0	-1975.0	1562.0
4	15	34	59	332	18.0	-197010.0	-1996.0	1232.0
4	15	34	59	332	19.0	-196614.0	-2032.0	1087.0
4	15	34	59	333	20.0	-196171.0	-2056.0	847.0
4	15	34	59	333	21.0	-195784.0	-2087.0	1059.0
4	15	34	59	334	22.0	-195804.0	-2126.0	1213.0
4	15	34	59	351	23.0	-196057.0	-2154.0	1223.0
4	15	34	59	351	24.0	-196187.0	-2182.0	966.0
4	15	34	59	352	25.0	-196344.0	-2226.0	1413.0
4	15	34	59	353	26.0	-196687.0	-2276.0	1556.0
4	15	34	59	353	27.0	-197044.0	-2309.0	1144.0
4	15	34	59	354	28.0	-197256.0	-2338.0	846.0
4	15	34	59	354	29.0	-197348.0	-2363.0	986.0
4	15	34	59	373	30.0	-197277.0	-2389.0	588.0
4	15	34	59	374	31.0	-197100.0	-2412.0	1209.0
4	15	34	59	375	32.0	-197002.0	-2452.0	1738.0
4	15	34	59	375	33.0	-196771.0	-2490.0	1593.0
4	15	34	59	376	34.0	-196427.0	-2506.0	1067.0
4	15	34	59	376	35.0	-196368.0	-2555.0	1382.0
4	15	34	59	377	36.0	-196362.0	-2610.0	1567.0
4	15	34	59	377	37.0	-196323.0	-2636.0	1190.0
4	15	34	59	378	38.0	-196651.0	-2654.0	944.0
4	15	34	59	379	39.0	-197022.0	-2666.0	919.0
4	15	34	59	379	40.0	-197641.0	-2705.0	476.0
4	15	34	59	380	41.0	-198649.0	-2745.0	1182.0
4	15	34	59	380	42.0	-199832.0	-2771.0	1421.0
4	15	34	59	381	43.0	-200627.0	-2807.0	626.0
4	15	34	59	381	44.0	-201074.0	-2837.0	756.0
4	15	34	59	399	45.0	-201357.0	-2884.0	1229.0
4	15	34	59	400	46.0	-201517.0	-2928.0	661.0
4	15	34	59	401	47.0	-201675.0	-2969.0	598.0
4	15	34	59	401	48.0	-201974.0	-2987.0	383.0
4	15	34	59	402	49.0	-202059.0	-2997.0	89.0
4	15	34	59	403	50.0	-201911.0	-3022.0	121.0
4	15	34	59	403	51.0	-202095.0	-3061.0	955.0
4	15	34	59	404	52.0	-202417.0	-3114.0	857.0
4	15	34	59	404	53.0	-202501.0	-3147.0	800.0
4	15	34	59	405	54.0	-202467.0	-3157.0	956.0
4	15	34	59	406	55.0	-202588.0	-3203.0	1481.0
4	15	34	59	406	56.0	-202851.0	-3225.0	1123.0
4	15	34	59	407	57.0	-202937.0	-3246.0	1198.0
4	15	34	59	408	58.0	-202647.0	-3281.0	944.0
4	15	34	59	408	59.0	-202244.0	-3292.0	439.0
4	15	34	59	409	60.0	-201800.0	-3306.0	426.0
4	15	34	59	409	61.0	-201526.0	-3357.0	527.0
4	15	34	59	421	62.0	-201363.0	-3394.0	693.0
4	15	34	59	422	63.0	-201375.0	-3425.0	833.0
4	15	34	59	423	64.0	-201470.0	-3447.0	599.0
4	15	34	59	423	65.0	-201617.0	-3504.0	1214.0
4	15	34	59	424	66.0	-201709.0	-3529.0	910.0
4	15	34	59	445	67.0	-201767.0	-3543.0	713.0
4	15	34	59	446	68.0	-201961.0	-3560.0	644.0
4	15	34	59	447	69.0	-202166.0	-3580.0	848.0
4	15	34	59	447	70.0	-202304.0	-3616.0	889.0
4	15	34	59	448	71.0	-202702.0	-3656.0	1140.0
4	15	34	59	449	72.0	-203006.0	-3706.0	1506.0
4	15	34	59	449	73.0	-203123.0	-3730.0	1234.0
4	15	34	59	450	74.0	-203201.0	-3770.0	839.0
4	15	34	59	450	75.0	-202949.0	-3820.0	1569.0
4	15	34	59	451	76.0	-202409.0	-3848.0	816.0
4	15	34	59	451	77.0	-201899.0	-3867.0	641.0
4	15	34	59	452	78.0	-201262.0	-3905.0	1221.0
4	15	34	59	453	79.0	-200532.0	-3921.0	947.0
4	15	34	59	453	80.0	-199837.0	-3941.0	984.0
4	15	34	59	454	81.0	-199232.0	-3983.0	1561.0
4	15	34	59	467	82.0	-198686.0	-4020.0	1404.0
4	15	34	59	468	83.0	-198257.0	-4057.0	1269.0
4	15	34	59	469	84.0	-197904.0	-4082.0	996.0
4	15	34	59	469	85.0	-197537.0	-4131.0	1123.0
4	15	34	59	470	86.0	-197298.0	-4177.0	879.0
4	15	34	59	470	87.0	-197234.0	-4197.0	1178.0
4	15	34	59	471	88.0	-197437.0	-4223.0	1059.0
4	15	34	59	471	89.0	-197640.0	-4244.0	597.0
4	15	34	59	472	90.0	-197701.0	-4264.0	794.0
4	15	34	59	490	91.0	-197982.0	-4309.0	1266.0
4	15	34	59	491	92.0	-198149.0	-4336.0	1129.0
4	15	34	59	491	93.0	-198295.0	-4367.0	1248.0
4	15	34	59	492	94.0	-198712.0	-4401.0	1299.0
4	15	34	59	493	95.0	-199157.0	-4439.0	1053.0
4	15	34	59	494	96.0	-199727.0	-4467.0	245.0
4	15	34	59	495	97.0	-200396.0	-4501.0	-550.0
4	15	34	59	495	98.0	-200981.0	-4512.0	-1258.0
4	15	34	59	496	99.0	-201272.0	-4534.0	-1081.0
4	15	34	59	496	100.0	-201477.0	-4566.0	-1562.0
4	15	34	59	497	101.0	-201541.0	-4616.0	-2369.0
4	15	34	59	498	102.0	-201458.0	-4646.0	-3711.0
4	15	34	59	498	103.0	-200959.0	-4673.0	-5527.0
4	15	34	59	499	104.0	-200280.0	-4722.0	-6695.0
4	15	34	59	499	105.0	-199554.0	-4760.0	-7895.0
4	15	34	59	516	106.0	-199096.0	-4793.0	-11259.0
4	15	34	59	517	107.0	-198816.0	-4811.0	-14591.0
4	15	34	59	517	108.0	-198660.0	-4807.0	-17660.0
4	15	34	59	518	109.0	-198211.0	-4839.0	-21890.0
4	15	34	59	518	110.0	-197516.0	-4866.0	-26489.0
4	15	34	59	519	111.0	-196543.0	-4892.0	-30146.0
4	15	34	59	539	112.0	-195059.0	-4941.0	-30672.0
4	15	34	59	539	113.0	-193449.0	-4981.0	-30721.0
4	15	34	59	540	114.0	-192034.0	-5007.0	-30919.0
4	15	34	59	540	115.0	-190739.0	-5039.0	-31391.0
4	15	34	59	541	116.0	-189507.0	-5068.0	-31051.0
4	15	34	59	541	117.0	-188462.0	-5109.0	-29054.0
4	15	34	59	542	118.0	-187671.0	-5130.0	-26191.0
4	15	34	59	543	119.0	-187061.0	-5148.0	-22366.0
4	15	34	59	543	120.0	-186654.0	-5171.0	-17126.0
4	15	34	59	544	121.0	-186801.0	-5202.0	-10685.0
4	15	34	59	544	122.0	-187722.0	-5235.0	-4669.0
4	15	34	59	545	123.0	-188948.0	-5274.0	-2355.0
4	15	34	59	545	124.0	-190623.0	-5307.0	-772.0
4	15	34	59	546	125.0	-193057.0	-5359.0	758.0
4	15	34	59	547	126.0	-193978.0	-5372.0	1453.0
4	15	34	59	561	127.0	-187232.0	-5409.0	2558.0
