5	18	4	27	706	20.0	-142871.0	-6020167.0	-9676.0
5	18	4	27	707	21.0	-143525.0	-6019474.0	-7706.0
5	18	4	27	709	22.0	-143385.0	-6019346.0	-6361.0
5	18	4	27	711	23.0	-142868.0	-6019986.0	-5786.0
5	18	4	27	713	24.0	-142572.0	-6019985.0	-6244.0
5	18	4	27	715	25.0	-142461.0	-6017985.0	-6743.0
5	18	4	27	717	26.0	-142672.0	-6019751.0	-7546.0
5	18	4	27	718	27.0	-143001.0	-6020905.0	-8926.0
5	18	4	27	720	28.0	-143478.0	-6020912.0	-10944.0
5	18	4	27	721	29.0	-144221.0	-6020309.0	-11621.0
5	18	4	27	722	30.0	-145745.0	-6019377.0	-9874.0
5	18	4	27	732	31.0	-147050.0	-6019593.0	-7987.0
5	18	4	27	733	32.0	-148770.0	-6019329.0	-7894.0
5	18	4	27	734	33.0	-150739.0	-6020121.0	-6916.0
5	18	4	27	734	34.0	-151938.0	-6018669.0	-6271.0
5	18	4	27	735	35.0	-153581.0	-6019130.0	-7134.0
5	18	4	27	735	36.0	-155956.0	-6017002.0	-8559.0
5	18	4	27	736	37.0	-157381.0	-6017331.0	-9637.0
5	18	4	27	737	38.0	-158344.0	-6020604.0	-10898.0
5	18	4	27	759	39.0	-158857.0	-6020002.0	-12101.0
5	18	4	27	760	40.0	-160356.0	-6020211.0	-10916.0
5	18	4	27	761	41.0	-160456.0	-6018556.0	-9734.0
5	18	4	27	761	42.0	-159911.0	-6017906.0	-8858.0
5	18	4	27	784	43.0	-160941.0	-6018076.0	-9819.0
5	18	4	27	814	44.0	-162337.0	-6017653.0	-11295.0
5	18	4	27	815	45.0	-163339.0	-6017485.0	-13111.0
5	18	4	27	815	46.0	-163290.0	-6015345.0	-15164.0
5	18	4	27	816	47.0	-162774.0	-6018266.0	-17741.0
5	18	4	27	817	48.0	-162682.0	-6019348.0	-20419.0
5	18	4	27	817	49.0	-162001.0	-6021241.0	-22552.0
5	18	4	27	818	50.0	-161976.0	-6020051.0	-24889.0
5	18	4	27	819	51.0	-162558.0	-6017710.0	-27591.0
5	18	4	27	819	52.0	-162745.0	-6015300.0	-31337.0
5	18	4	27	820	53.0	-162549.0	-6016039.0	-34797.0
5	18	4	27	820	54.0	-161922.0	-6018187.0	-35761.0
5	18	4	27	821	55.0	-161356.0	-6018412.0	-34722.0
5	18	4	27	822	56.0	-160343.0	-6019670.0	-32313.0
5	18	4	27	822	57.0	-157007.0	-6020982.0	-30316.0
5	18	4	27	823	58.0	-152753.0	-6022170.0	-31004.0
5	18	4	27	823	79.0	-117907.0	-6020407.0	-14652.0
5	18	4	27	824	80.0	-118640.0	-6020407.0	-13781.0
5	18	4	27	825	81.0	-125862.0	-6021792.0	-12739.0
5	18	4	27	825	82.0	-138529.0	-6020979.0	-11637.0
5	18	4	27	826	83.0	-153047.0	-6016316.0	-11545.0
5	18	4	27	860	84.0	-167836.0	-6016490.0	-12411.0
5	18	4	27	860	85.0	-182367.0	-6020976.0	-13111.0
5	18	4	27	905	86.0	-192864.0	-6021458.0	-14162.0
5	18	4	27	906	87.0	-196746.0	-6021317.0	-15286.0
5	18	4	27	907	88.0	-199535.0	-6021633.0	-17199.0
5	18	4	27	907	89.0	-201483.0	-6021174.0	-16783.0
5	18	4	27	908	90.0	-199532.0	-6020607.0	-15697.0
5	18	4	27	908	91.0	-196967.0	-6020289.0	-13952.0
5	18	4	27	909	92.0	-195992.0	-6019206.0	-13548.0
5	18	4	27	910	93.0	-194582.0	-6019126.0	-13446.0
5	18	4	27	910	94.0	-191434.0	-6011885.0	-13633.0
5	18	4	27	911	95.0	-186947.0	-6009851.0	-14947.0
5	18	4	27	911	96.0	-179594.0	-6011173.0	-16399.0
5	18	4	27	912	97.0	-170931.0	-6014217.0	-17621.0
5	18	4	27	913	98.0	-166557.0	-6018302.0	-19529.0
5	18	4	27	913	102.0	-163296.0	-6017070.0	-16171.0
5	18	4	27	914	103.0	-162348.0	-6018754.0	-15664.0
5	18	4	27	915	124.0	-141377.0	-6019150.0	-14403.0
5	18	4	27	915	125.0	-140484.0	-6009936.0	-15294.0
5	18	4	27	916	126.0	-138787.0	-6011232.0	-16446.0
5	18	4	27	916	127.0	-136731.0	-6015706.0	-17808.0
5	18	4	27	917	128.0	-135475.0	-6014728.0	-19266.0
5	18	4	27	917	129.0	-134999.0	-6017529.0	-18642.0
5	18	4	27	918	130.0	-134921.0	-6018919.0	-18079.0
5	18	4	27	950	131.0	-135219.0	-6010992.0	-15832.0
5	18	4	27	951	132.0	-135932.0	-6012477.0	-14562.0
5	18	4	27	952	133.0	-137434.0	-6016429.0	-14680.0
5	18	4	27	953	134.0	-139316.0	-6019369.0	-14768.0
5	18	4	27	953	135.0	-140967.0	-6021349.0	-15602.0
5	18	4	27	954	136.0	-142467.0	-6021640.0	-16478.0
5	18	4	27	954	137.0	-144179.0	-6020019.0	-18352.0
5	18	4	27	955	138.0	-145835.0	-6020736.0	-19842.0
5	18	4	27	956	139.0	-147249.0	-6020055.0	-19105.0
5	18	4	27	956	140.0	-148351.0	-6019427.0	-18171.0
5	18	4	27	957	141.0	-148931.0	-6017317.0	-17208.0
5	18	4	27	958	142.0	-149304.0	-6017546.0	-16786.0
5	18	4	27	958	143.0	-150020.0	-6016471.0	-16426.0
5	18	4	27	959	144.0	-150532.0	-6019362.0	-16884.0
5	18	4	27	960	145.0	-150761.0	-6020184.0	-17916.0
5	18	4	27	960	147.0	-150811.0	-6021986.0	-19639.0
5	18	4	27	961	148.0	-150543.0	-6019099.0	-21049.0
5	18	4	27	962	149.0	-149984.0	-6016617.0	-20824.0
5	18	4	27	963	150.0	-150003.0	-6019416.0	-20047.0
5	18	4	27	964	151.0	-150636.0	-6014662.0	-18212.0
5	18	4	27	964	152.0	-151453.0	-6006659.0	-18139.0
5	18	4	27	995	153.0	-152310.0	-6012825.0	-18465.0
5	18	4	27	996	154.0	-153576.0	-6018254.0	-18859.0
5	18	4	27	997	155.0	-155569.0	-6019057.0	-19809.0
5	18	4	27	997	156.0	-157632.0	-6021097.0	-20812.0
5	18	4	27	998	157.0	-159364.0	-6020747.0	-22372.0
5	18	4	27	998	158.0	-160578.0	-6018863.0	-23297.0
5	18	4	27	999	159.0	-161641.0	-6017703.0	-22654.0
5	18	4	28	0	160.0	-162612.0	-6021074.0	-21636.0
5	18	4	28	0	161.0	-164192.0	-6022064.0	-21280.0
5	18	4	28	1	162.0	-165898.0	-6021226.0	-20040.0
5	18	4	28	1	163.0	-167610.0	-6020054.0	-19492.0
5	18	4	28	2	164.0	-169334.0	-6018107.0	-20277.0
5	18	4	28	3	165.0	-171501.0	-6020733.0	-21294.0
5	18	4	28	3	166.0	-173616.0	-6021447.0	-22361.0
5	18	4	28	4	167.0	-175663.0	-6021666.0	-23579.0
5	18	4	28	4	169.0	-180066.0	-6020826.0	-24475.0
5	18	4	28	5	170.0	-181970.0	-6019734.0	-23742.0
5	18	4	28	5	171.0	-184081.0	-6021371.0	-22739.0
5	18	4	28	6	172.0	-185951.0	-6021879.0	-21902.0
5	18	4	28	6	173.0	-187672.0	-6019740.0	-21719.0
5	18	4	28	7	174.0	-188859.0	-6021208.0	-22508.0
5	18	4	28	8	175.0	-189767.0	-6018400.0	-23042.0
5	18	4	28	41	176.0	-190198.0	-6017713.0	-23799.0
5	18	4	28	41	177.0	-190205.0	-6022244.0	-24590.0
5	18	4	28	42	178.0	-190045.0	-6021141.0	-26180.0
5	18	4	28	43	179.0	-189467.0	-6021844.0	-25592.0
5	18	4	28	43	180.0	-188334.0	-6020965.0	-24702.0
5	18	4	28	44	181.0	-186882.0	-6019575.0	-23080.0
5	18	4	28	45	182.0	-185308.0	-6016647.0	-22890.0
5	18	4	28	45	183.0	-183763.0	-6020476.0	-23904.0
5	18	4	28	46	184.0	-181955.0	-6021087.0	-24359.0
5	18	4	28	47	185.0	-180364.0	-6021030.0	-24410.0
5	18	4	28	47	186.0	-178665.0	-6021514.0	-25139.0
5	18	4	28	48	187.0	-176155.0	-6020949.0	-26276.0
5	18	4	28	48	188.0	-173265.0	-6020956.0	-26454.0
5	18	4	28	49	189.0	-170144.0	-6021008.0	-26297.0
5	18	4	28	50	190.0	-167212.0	-6021729.0	-25770.0
5	18	4	28	51	192.0	-161069.0	-6018914.0	-24342.0
5	18	4	28	52	193.0	-158146.0	-6022189.0	-24689.0
5	18	4	28	53	194.0	-155343.0	-6022283.0	-24971.0
5	18	4	28	53	195.0	-152816.0	-6023077.0	-25336.0
5	18	4	28	54	196.0	-150506.0	-6022781.0	-25897.0
5	18	4	28	54	197.0	-148392.0	-6022289.0	-26047.0
5	18	4	28	131	198.0	-146656.0	-6022004.0	-26326.0
5	18	4	28	132	199.0	-145261.0	-6022784.0	-26660.0
5	18	4	28	132	200.0	-144110.0	-6022904.0	-25993.0
5	18	4	28	133	201.0	-143093.0	-6021872.0	-25532.0
5	18	4	28	134	202.0	-142649.0	-6021396.0	-25132.0
5	18	4	28	134	203.0	-142638.0	-6020644.0	-24831.0
5	18	4	28	135	204.0	-142934.0	-6021775.0	-24909.0
5	18	4	28	135	205.0	-143065.0	-6020752.0	-25302.0
5	18	4	28	136	206.0	-142481.0	-6021397.0	-26010.0
5	18	4	28	136	207.0	-142410.0	-6022744.0	-26405.0
5	18	4	28	137	208.0	-142556.0	-6021716.0	-26897.0
5	18	4	28	138	209.0	-142521.0	-6018982.0	-27273.0
5	18	4	28	138	210.0	-141752.0	-6021116.0	-27287.0
5	18	4	28	139	211.0	-140329.0	-6021604.0	-26664.0
5	18	4	28	139	212.0	-138451.0	-6021014.0	-26047.0
5	18	4	28	140	237.0	-166249.0	-6022123.0	-29070.0
5	18	4	28	140	238.0	-167879.0	-6022343.0	-29825.0
5	18	4	28	141	239.0	-168696.0	-6021944.0	-30089.0
5	18	4	28	141	240.0	-169247.0	-6021872.0	-29393.0
5	18	4	28	142	241.0	-171198.0	-6020047.0	-28735.0
5	18	4	28	143	242.0	-174724.0	-6021421.0	-27946.0
5	18	4	28	175	243.0	-179057.0	-6022537.0	-27876.0
5	18	4	28	175	244.0	-182572.0	-6021891.0	-28373.0
5	18	4	28	176	245.0	-185035.0	-6022792.0	-29034.0
5	18	4	28	177	246.0	-186305.0	-6022270.0	-29629.0
5	18	4	28	177	247.0	-186691.0	-6021401.0	-30268.0
5	18	4	28	178	248.0	-185702.0	-6021390.0	-31126.0
5	18	4	28	179	249.0	-182861.0	-6019701.0	-30979.0
5	18	4	28	179	250.0	-178664.0	-6017760.0	-30346.0
5	18	4	28	187	251.0	-173986.0	-6019307.0	-29311.0
5	18	4	28	188	252.0	-169399.0	-6020096.0	-28921.0
5	18	4	28	189	253.0	-165130.0	-6020404.0	-29062.0
5	18	4	28	189	254.0	-161224.0	-6020983.0	-29617.0
5	18	4	28	190	255.0	-157989.0	-6022103.0	-30211.0
5	18	4	28	190	0.0	-155322.0	-6022435.0	-30526.0
5	18	4	28	191	1.0	-153299.0	-6019882.0	-31006.0
5	18	4	28	191	3.0	-150716.0	-6022378.0	-32309.0
5	18	4	28	192	4.0	-150180.0	-6022292.0	-31330.0
5	18	4	28	193	5.0	-150347.0	-6020869.0	-29881.0
5	18	4	28	193	6.0	-150811.0	-6019568.0	-29879.0
5	18	4	28	194	7.0	-151499.0	-6019086.0	-30137.0
5	18	4	28	194	8.0	-153125.0	-6017259.0	-29672.0
5	18	4	28	220	9.0	-155041.0	-6015543.0	-29659.0
5	18	4	28	221	10.0	-156447.0	-6019085.0	-30344.0
5	18	4	28	222	11.0	-157707.0	-6021856.0	-31015.0
5	18	4	28	222	12.0	-158785.0	-6021583.0	-31883.0
5	18	4	28	223	13.0	-159571.0	-6022108.0	-31699.0
5	18	4	28	223	14.0	-159725.0	-6022339.0	-31456.0
5	18	4	28	224	15.0	-159686.0	-6021271.0	-31033.0
5	18	4	28	225	16.0	-159869.0	-6020471.0	-30494.0
5	18	4	28	225	17.0	-160356.0	-6020646.0	-30548.0
5	18	4	28	226	18.0	-161044.0	-6021354.0	-30361.0
5	18	4	28	226	19.0	-161541.0	-6019734.0	-30678.0
5	18	4	28	227	20.0	-161881.0	-6021351.0	-31281.0
5	18	4	28	228	21.0	-162076.0	-6022343.0	-31648.0
5	18	4	28	228	22.0	-162157.0	-6019344.0	-32114.0
5	18	4	28	229	23.0	-162014.0	-6006357.0	-31660.0
5	18	4	28	229	25.0	-161639.0	-6011699.0	-31110.0
5	18	4	28	237	26.0	-161399.0	-6016864.0	-30802.0
5	18	4	28	238	27.0	-161044.0	-6014126.0	-30836.0
5	18	4	28	239	28.0	-160718.0	-6015767.0	-31416.0
5	18	4	28	239	29.0	-160606.0	-6020326.0	-32022.0
5	18	4	28	240	30.0	-160299.0	-6021640.0	-32510.0
5	18	4	28	240	31.0	-159827.0	-6022764.0	-32601.0
5	18	4	28	265	32.0	-159420.0	-6021953.0	-32779.0
5	18	4	28	266	33.0	-158956.0	-6021121.0	-33215.0
5	18	4	28	266	34.0	-158458.0	-6020677.0	-32447.0
5	18	4	28	267	35.0	-157881.0	-6021848.0	-31483.0
5	18	4	28	267	36.0	-156962.0	-6022027.0	-30795.0
5	18	4	28	268	37.0	-155676.0	-6023505.0	-31212.0
5	18	4	28	269	38.0	-154207.0	-6021977.0	-31727.0
5	18	4	28	269	39.0	-152794.0	-6021388.0	-32222.0
5	18	4	28	270	40.0	-151034.0	-6021719.0	-32654.0
5	18	4	28	270	41.0	-149219.0	-6020646.0	-33241.0
5	18	4	28	271	42.0	-147197.0	-6020136.0	-34046.0
5	18	4	28	272	43.0	-144986.0	-6017301.0	-33791.0
5	18	4	28	272	44.0	-142764.0	-6019219.0	-33302.0
5	18	4	28	273	45.0	-141367.0	-6018912.0	-32662.0
5	18	4	28	273	46.0	-140829.0	-6021174.0	-32357.0
5	18	4	28	274	48.0	-141587.0	-6021871.0	-33264.0
5	18	4	28	275	49.0	-143092.0	-6021509.0	-33847.0
5	18	4	28	275	50.0	-145626.0	-6022049.0	-34357.0
5	18	4	28	276	51.0	-148604.0	-6021391.0	-34435.0
5	18	4	28	276	52.0	-151892.0	-6021204.0	-34655.0
5	18	4	28	277	53.0	-155249.0	-6021042.0	-34523.0
5	18	4	28	309	54.0	-158481.0	-6019250.0	-34013.0
5	18	4	28	355	55.0	-161983.0	-6017421.0	-32218.0
5	18	4	28	356	56.0	-165592.0	-6019687.0	-31173.0
5	18	4	28	357	57.0	-168874.0	-6020677.0	-31489.0
5	18	4	28	357	58.0	-171774.0	-6020646.0	-32774.0
5	18	4	28	358	59.0	-174161.0	-6020183.0	-33228.0
5	18	4	28	359	60.0	-176406.0	-6018944.0	-33259.0
5	18	4	28	359	61.0	-178460.0	-6018544.0	-33566.0
5	18	4	28	360	62.0	-179793.0	-6020801.0	-34097.0
5	18	4	28	361	63.0	-180419.0	-6018047.0	-33936.0
5	18	4	28	361	64.0	-180519.0	-6017431.0	-32029.0
5	18	4	28	362	65.0	-180481.0	-6017869.0	-30707.0
5	18	4	28	362	66.0	-180341.0	-6013212.0	-30262.0
5	18	4	28	363	67.0	-180397.0	-6011382.0	-30519.0
5	18	4	28	364	68.0	-180757.0	-6013258.0	-30779.0
5	18	4	28	364	70.0	-181404.0	-6014566.0	-31649.0
5	18	4	28	365	93.0	-156950.0	-6001277.0	-30387.0
5	18	4	28	366	94.0	-151607.0	-5999347.0	-28671.0
5	18	4	28	366	95.0	-147018.0	-5999110.0	-28073.0
5	18	4	28	367	96.0	-143126.0	-6000904.0	-28894.0
5	18	4	28	367	97.0	-139226.0	-6002519.0	-29065.0
5	18	4	28	368	98.0	-135134.0	-6004294.0	-29004.0
5	18	4	28	400	99.0	-131551.0	-6005786.0	-29186.0
5	18	4	28	401	100.0	-128839.0	-6006730.0	-29943.0
5	18	4	28	402	101.0	-127222.0	-6009422.0	-30501.0
5	18	4	28	402	102.0	-126289.0	-6010012.0	-30244.0
5	18	4	28	403	103.0	-126099.0	-6011446.0	-29130.0
5	18	4	28	403	104.0	-126466.0	-6011463.0	-27528.0
5	18	4	28	404	105.0	-127493.0	-6012434.0	-27803.0
5	18	4	28	405	106.0	-128858.0	-6014642.0	-28894.0
5	18	4	28	405	107.0	-130618.0	-6015156.0	-29908.0
5	18	4	28	406	108.0	-133064.0	-6014441.0	-31566.0
5	18	4	28	406	109.0	-136386.0	-6017299.0	-33177.0
5	18	4	28	407	110.0	-139811.0	-6019359.0	-35205.0
5	18	4	28	408	111.0	-142556.0	-6011196.0	-36289.0
5	18	4	28	408	112.0	-145403.0	-6008566.0	-37649.0
5	18	4	28	409	113.0	-148782.0	-6010401.0	-37457.0
5	18	4	28	409	115.0	-156502.0	-6012266.0	-42014.0
5	18	4	28	410	116.0	-160402.0	-6014042.0	-46458.0
5	18	4	28	411	117.0	-164736.0	-6016949.0	-51027.0
5	18	4	28	411	118.0	-168968.0	-6019447.0	-54837.0
5	18	4	28	412	119.0	-172263.0	-6020322.0	-55779.0
5	18	4	28	412	120.0	-174560.0	-6019014.0	-53867.0
5	18	4	28	413	121.0	-175779.0	-6018151.0	-50511.0
5	18	4	28	445	122.0	-176452.0	-6020292.0	-47320.0
5	18	4	28	446	123.0	-176875.0	-6020109.0	-45271.0
5	18	4	28	447	124.0	-177486.0	-6020357.0	-43419.0
5	18	4	28	447	125.0	-178999.0	-6020400.0	-39977.0
5	18	4	28	448	126.0	-181647.0	-6019294.0	-35766.0
5	18	4	28	449	127.0	-185538.0	-6019976.0	-31795.0
5	18	4	28	449	128.0	-190395.0	-6020082.0	-26831.0
5	18	4	28	450	129.0	-195763.0	-6020623.0	-20103.0
5	18	4	28	450	130.0	-201462.0	-6020370.0	-15409.0
5	18	4	28	451	131.0	-206484.0	-6020002.0	-12576.0
5	18	4	28	452	132.0	-210411.0	-6021091.0	-10246.0
5	18	4	28	452	133.0	-213236.0	-6018675.0	-9581.0
5	18	4	28	453	134.0	-215166.0	-6018831.0	-9632.0
5	18	4	28	454	135.0	-216394.0	-6020379.0	-10661.0
5	18	4	28	454	136.0	-216312.0	-6017086.0	-11690.0
5	18	4	28	455	138.0	-208742.0	-6017016.0	-16652.0
5	18	4	28	455	139.0	-198752.0	-6019567.0	-19672.0
5	18	4	28	456	140.0	-184366.0	-6021678.0	-23357.0
5	18	4	28	457	141.0	-164922.0	-6020577.0	-25519.0
5	18	4	28	457	142.0	-144264.0	-6018202.0	-26856.0
5	18	4	28	458	143.0	-127421.0	-6018609.0	-25690.0
5	18	4	28	490	144.0	-114750.0	-6019906.0	-24916.0
5	18	4	28	515	145.0	-108304.0	-6018359.0	-25260.0
5	18	4	28	516	146.0	-108230.0	-6019731.0	-26032.0
5	18	4	28	516	147.0	-112597.0	-6019226.0	-27426.0
5	18	4	28	517	148.0	-120239.0	-6020222.0	-28229.0
5	18	4	28	518	149.0	-130022.0	-6021763.0	-29136.0
5	18	4	28	518	150.0	-139722.0	-6021047.0	-30922.0
5	18	4	28	519	151.0	-146068.0	-6019895.0	-30878.0
5	18	4	28	519	152.0	-147242.0	-6020372.0	-29506.0
5	18	4	28	520	153.0	-144561.0	-6020494.0	-27768.0
5	18	4	28	520	154.0	-139327.0	-6019712.0	-27501.0
5	18	4	28	521	155.0	-133229.0	-6019179.0	-27625.0
5	18	4	28	522	156.0	-126613.0	-6018756.0	-28292.0
5	18	4	28	522	157.0	-118983.0	-6018979.0	-29161.0
5	18	4	28	523	158.0	-111052.0	-6020174.0	-29937.0
5	18	4	28	523	160.0	-102829.0	-6021450.0	-32605.0
5	18	4	28	524	161.0	-105026.0	-6020672.0	-32176.0
5	18	4	28	524	162.0	-109671.0	-6020579.0	-31124.0
5	18	4	28	525	163.0	-114913.0	-6019000.0	-29862.0
5	18	4	28	525	164.0	-119332.0	-6018740.0	-29309.0
5	18	4	28	526	165.0	-123058.0	-6017158.0	-29459.0
5	18	4	28	527	166.0	-127076.0	-6008134.0	-30316.0
5	18	4	28	579	167.0	-132303.0	-6008032.0	-31229.0
5	18	4	28	580	168.0	-138589.0	-6011064.0	-31644.0
5	18	4	28	581	169.0	-145641.0	-6012251.0	-32236.0
5	18	4	28	582	170.0	-152942.0	-6015821.0	-33347.0
5	18	4	28	582	171.0	-159843.0	-6019099.0	-32645.0
5	18	4	28	583	172.0	-165722.0	-6015141.0	-31746.0
5	18	4	28	584	173.0	-169908.0	-6010371.0	-29624.0
5	18	4	28	584	174.0	-172004.0	-6011477.0	-28362.0
5	18	4	28	585	175.0	-172604.0	-6013174.0	-28935.0
5	18	4	28	586	176.0	-172512.0	-6012076.0	-29936.0
5	18	4	28	586	177.0	-172224.0	-6014169.0	-30824.0
5	18	4	28	587	178.0	-172577.0	-6018698.0	-31572.0
5	18	4	28	587	179.0	-172825.0	-6021323.0	-32760.0
5	18	4	28	588	180.0	-172929.0	-6021033.0	-34074.0
5	18	4	28	589	181.0	-173274.0	-6020951.0	-33534.0
5	18	4	28	597	205.0	-172308.0	-6017389.0	-32034.0
5	18	4	28	598	206.0	-172026.0	-6019896.0	-32251.0
5	18	4	28	598	207.0	-172117.0	-6018692.0	-33522.0
5	18	4	28	599	208.0	-171931.0	-6016840.0	-34855.0
5	18	4	28	600	209.0	-171646.0	-6020787.0	-35767.0
5	18	4	28	600	210.0	-171169.0	-6018935.0	-36274.0
5	18	4	28	624	211.0	-170302.0	-6017109.0	-35583.0
5	18	4	28	625	212.0	-168922.0	-6020415.0	-35396.0
5	18	4	28	625	213.0	-167051.0	-6020068.0	-33274.0
5	18	4	28	626	214.0	-165028.0	-6018724.0	-32513.0
5	18	4	28	627	215.0	-162767.0	-6019602.0	-32584.0
5	18	4	28	627	216.0	-160592.0	-6020969.0	-33162.0
5	18	4	28	628	217.0	-158524.0	-6021117.0	-34104.0
5	18	4	28	629	218.0	-156240.0	-6020355.0	-35237.0
5	18	4	28	629	219.0	-153495.0	-6020226.0	-36479.0
5	18	4	28	630	220.0	-150686.0	-6018536.0	-37589.0
5	18	4	28	631	221.0	-148332.0	-6015929.0	-36744.0
5	18	4	28	631	222.0	-146331.0	-6017257.0	-35587.0
5	18	4	28	632	223.0	-145074.0	-6018216.0	-34442.0
5	18	4	28	633	224.0	-145198.0	-6018179.0	-33694.0
5	18	4	28	633	225.0	-146563.0	-6016006.0	-34015.0
5	18	4	28	634	227.0	-150509.0	-6016604.0	-34761.0
5	18	4	28	635	228.0	-152689.0	-6017954.0	-35364.0
5	18	4	28	635	229.0	-155541.0	-6016929.0	-36550.0
5	18	4	28	636	230.0	-158374.0	-6018997.0	-37566.0
5	18	4	28	637	231.0	-160984.0	-6018220.0	-37293.0
5	18	4	28	637	232.0	-163464.0	-6017891.0	-36329.0
5	18	4	28	638	233.0	-166170.0	-6017530.0	-35043.0
5	18	4	28	669	234.0	-169137.0	-6015113.0	-34968.0
5	18	4	28	669	235.0	-172962.0	-6012941.0	-34830.0
5	18	4	28	670	236.0	-177482.0	-6013606.0	-35174.0
5	18	4	28	671	237.0	-182110.0	-6013626.0	-35450.0
5	18	4	28	671	238.0	-186504.0	-6015132.0	-36347.0
5	18	4	28	672	239.0	-189397.0	-6013946.0	-37086.0
5	18	4	28	673	240.0	-190759.0	-6016096.0	-37786.0
5	18	4	28	673	241.0	-191085.0	-6017896.0	-36721.0
5	18	4	28	674	242.0	-190683.0	-6019034.0	-35376.0
5	18	4	28	675	243.0	-189842.0	-6016990.0	-34453.0
5	18	4	28	675	244.0	-188794.0	-6016501.0	-33611.0
5	18	4	28	676	245.0	-187895.0	-6017470.0	-33744.0
5	18	4	28	677	246.0	-187146.0	-6017554.0	-33999.0
5	18	4	28	678	247.0	-186864.0	-6016932.0	-34137.0
5	18	4	28	678	248.0	-186632.0	-6019146.0	-34737.0
5	18	4	28	679	250.0	-185597.0	-6014447.0	-36190.0
5	18	4	28	679	251.0	-185849.0	-6012544.0	-35316.0
5	18	4	28	680	252.0	-186647.0	-6012901.0	-34694.0
5	18	4	28	681	253.0	-187239.0	-6012027.0	-33581.0
5	18	4	28	681	254.0	-187662.0	-6012549.0	-33279.0
5	18	4	28	682	255.0	-187801.0	-6013317.0	-32732.0
5	18	4	28	714	0.0	-187308.0	-6012598.0	-32377.0
5	18	4	28	715	1.0	-186067.0	-6015449.0	-32517.0
5	18	4	28	715	2.0	-184051.0	-6017558.0	-32751.0
5	18	4	28	716	3.0	-181515.0	-6018586.0	-33579.0
5	18	4	28	717	4.0	-178504.0	-6018517.0	-33242.0
5	18	4	28	717	5.0	-175844.0	-6016788.0	-33244.0
5	18	4	28	718	6.0	-173679.0	-6016668.0	-32498.0
5	18	4	28	719	7.0	-172294.0	-6015736.0	-31681.0
5	18	4	28	719	8.0	-171394.0	-6011734.0	-31661.0
5	18	4	28	720	9.0	-170007.0	-6010491.0	-31281.0
5	18	4	28	721	10.0	-168571.0	-6012225.0	-31613.0
5	18	4	28	721	11.0	-167709.0	-6014278.0	-31911.0
5	18	4	28	722	12.0	-167241.0	-6015662.0	-31941.0
5	18	4	28	723	13.0	-166884.0	-6016791.0	-32021.0
5	18	4	28	723	14.0	-167056.0	-6016989.0	-32122.0
5	18	4	28	724	16.0	-168948.0	-6015962.0	-30952.0
5	18	4	28	725	17.0	-171580.0	-6015069.0	-29638.0
5	18	4	28	726	18.0	-174621.0	-6012558.0	-29865.0
5	18	4	28	726	19.0	-178074.0	-6011286.0	-30629.0
5	18	4	28	727	20.0	-180496.0	-6011075.0	-31036.0
5	18	4	28	727	21.0	-181999.0	-6011071.0	-31327.0
5	18	4	28	728	22.0	-182946.0	-6012738.0	-31985.0
5	18	4	28	760	23.0	-183420.0	-6014161.0	-33031.0
5	18	4	28	761	24.0	-183717.0	-6014613.0	-32886.0
5	18	4	28	761	25.0	-182103.0	-6014686.0	-31537.0
5	18	4	28	762	26.0	-172991.0	-6013222.0	-30022.0
5	18	4	28	763	27.0	-159221.0	-6008164.0	-29905.0
5	18	4	28	763	28.0	-151831.0	-5996123.0	-29967.0
5	18	4	28	764	29.0	-157446.0	-5994889.0	-30265.0
5	18	4	28	765	30.0	-170946.0	-5995733.0	-30626.0
5	18	4	28	765	31.0	-182584.0	-5997724.0	-31398.0
5	18	4	28	766	32.0	-192186.0	-6000297.0	-32061.0
5	18	4	28	767	33.0	-199069.0	-6002686.0	-32607.0
5	18	4	28	767	34.0	-201604.0	-6004356.0	-32676.0
5	18	4	28	768	35.0	-200289.0	-6003213.0	-32435.0
5	18	4	28	769	36.0	-196977.0	-6000323.0	-31992.0
5	18	4	28	770	37.0	-193087.0	-5999352.0	-31150.0
5	18	4	28	771	39.0	-185231.0	-5999931.0	-32374.0
5	18	4	28	772	40.0	-183391.0	-6001797.0	-33391.0
5	18	4	28	772	41.0	-184272.0	-6004495.0	-33484.0
5	18	4	28	773	42.0	-186866.0	-6002751.0	-33596.0
5	18	4	28	774	43.0	-190406.0	-6002161.0	-34843.0
5	18	4	28	774	44.0	-193534.0	-6003237.0	-34987.0
5	18	4	28	851	45.0	-196077.0	-5999162.0	-33790.0
5	18	4	28	852	46.0	-197748.0	-5996184.0	-32352.0
5	18	4	28	853	47.0	-197215.0	-5995337.0	-32467.0
5	18	4	28	854	48.0	-193370.0	-5994659.0	-32792.0
5	18	4	28	854	49.0	-187699.0	-5990899.0	-33338.0
5	18	4	28	855	50.0	-180823.0	-5986609.0	-33859.0
5	18	4	28	856	51.0	-171680.0	-5988210.0	-34537.0
5	18	4	28	857	52.0	-158446.0	-5988974.0	-34531.0
5	18	4	28	857	53.0	-141173.0	-5990002.0	-35064.0
5	18	4	28	858	54.0	-121042.0	-5990118.0	-34033.0
5	18	4	28	859	55.0	-99816.0	-5988981.0	-32518.0
5	18	4	28	859	56.0	-79321.0	-5986844.0	-31124.0
5	18	4	28	860	57.0	-61352.0	-5985042.0	-30826.0
5	18	4	28	860	58.0	-45594.0	-5984663.0	-30649.0
5	18	4	28	861	59.0	-31904.0	-5982666.0	-30709.0
5	18	4	28	862	84.0	-156164.0	-6003270.0	-33125.0
5	18	4	28	862	85.0	-160285.0	-6003922.0	-33189.0
5	18	4	28	863	86.0	-162100.0	-6002891.0	-31989.0
5	18	4	28	864	87.0	-163757.0	-5996760.0	-30420.0
5	18	4	28	864	88.0	-164887.0	-5996714.0	-30608.0
5	18	4	28	865	89.0	-166147.0	-5999178.0	-31514.0
5	18	4	28	896	90.0	-167262.0	-6000763.0	-32209.0
5	18	4	28	897	91.0	-167026.0	-6002852.0	-32886.0
5	18	4	28	897	92.0	-165756.0	-6002349.0	-33692.0
5	18	4	28	898	93.0	-164169.0	-5997992.0	-34636.0
5	18	4	28	899	94.0	-160971.0	-6000696.0	-34615.0
5	18	4	28	900	95.0	-157171.0	-6001338.0	-33280.0
5	18	4	28	900	96.0	-153714.0	-5995774.0	-32302.0
5	18	4	28	901	97.0	-150071.0	-5991396.0	-32077.0
5	18	4	28	902	98.0	-146897.0	-5991427.0	-31992.0
5	18	4	28	902	99.0	-144028.0	-5992035.0	-32541.0
5	18	4	28	903	100.0	-139257.0	-5988615.0	-33454.0
5	18	4	28	904	101.0	-135018.0	-5987417.0	-34213.0
5	18	4	28	904	102.0	-131660.0	-5987372.0	-34576.0
5	18	4	28	905	103.0	-128512.0	-5987993.0	-35212.0
5	18	4	28	906	104.0	-126428.0	-5986990.0	-35046.0
5	18	4	28	906	106.0	-124930.0	-5982426.0	-33037.0
5	18	4	28	907	107.0	-122809.0	-5979927.0	-32125.0
5	18	4	28	908	108.0	-123917.0	-5974996.0	-31869.0
5	18	4	28	908	109.0	-125361.0	-5975801.0	-33202.0
5	18	4	28	909	110.0	-128497.0	-5973894.0	-33844.0
5	18	4	28	910	111.0	-133454.0	-5963010.0	-34546.0
5	18	4	28	910	112.0	-135326.0	-5960032.0	-35439.0
5	18	4	28	940	113.0	-139659.0	-5959879.0	-36613.0
5	18	4	28	941	114.0	-147202.0	-5957851.0	-36437.0
5	18	4	28	941	115.0	-156601.0	-5955011.0	-35256.0
5	18	4	28	942	116.0	-163311.0	-5947951.0	-33717.0
5	18	4	28	943	117.0	-173661.0	-5943370.0	-33666.0
5	18	4	28	944	118.0	-187738.0	-5939710.0	-33606.0
5	18	4	28	944	119.0	-201163.0	-5935842.0	-33820.0
5	18	4	28	945	120.0	-215237.0	-5931047.0	-34533.0
5	18	4	28	946	121.0	-226281.0	-5931367.0	-35871.0
5	18	4	28	946	122.0	-235707.0	-5932147.0	-36249.0
5	18	4	28	947	123.0	-242901.0	-5926596.0	-36560.0
5	18	4	28	948	124.0	-247169.0	-5920202.0	-36606.0
5	18	4	28	948	125.0	-250287.0	-5920446.0	-36376.0
5	18	4	28	949	126.0	-251424.0	-5921674.0	-35685.0
5	18	4	28	950	127.0	-251257.0	-5921934.0	-35921.0
5	18	4	28	950	129.0	-252041.0	-5920796.0	-36352.0
5	18	4	28	985	130.0	-252729.0	-5920159.0	-37776.0
5	18	4	28	986	131.0	-252847.0	-5920019.0	-39091.0
5	18	4	28	986	132.0	-251641.0	-5919818.0	-40192.0
5	18	4	28	987	133.0	-248639.0	-5919407.0	-41368.0
5	18	4	28	988	134.0	-243364.0	-5918422.0	-41202.0
5	18	4	28	989	135.0	-236078.0	-5917414.0	-40748.0
5	18	4	28	990	136.0	-227355.0	-5917310.0	-40016.0
5	18	4	28	990	137.0	-217864.0	-5918515.0	-40502.0
5	18	4	28	991	138.0	-208016.0	-5920447.0	-41189.0
5	18	4	28	992	139.0	-198968.0	-5923456.0	-42053.0
5	18	4	28	993	140.0	-189996.0	-5927341.0	-42190.0
5	18	4	28	993	141.0	-179963.0	-5932189.0	-42432.0
5	18	4	28	994	142.0	-169448.0	-5935766.0	-43013.0
5	18	4	28	995	143.0	-159321.0	-5937780.0	-43580.0
5	18	4	28	996	144.0	-149865.0	-5940553.0	-43310.0
5	18	4	28	997	145.0	-141194.0	-5943140.0	-43079.0
5	18	4	28	997	151.0	-90916.0	-5965934.0	-42853.0
5	18	4	28	998	152.0	-85724.0	-5969562.0	-43254.0
5	18	4	28	999	153.0	-82222.0	-5971927.0	-43746.0
5	18	4	28	999	154.0	-77848.0	-5974382.0	-44059.0
5	18	4	29	0	155.0	-73260.0	-5975190.0	-44614.0
5	18	4	29	0	156.0	-73877.0	-5974411.0	-43334.0
5	18	4	29	1	157.0	-75494.0	-5976238.0	-42289.0
5	18	4	29	76	158.0	-79007.0	-5977066.0	-42227.0
5	18	4	29	77	159.0	-84805.0	-5977834.0	-42421.0
5	18	4	29	78	160.0	-91063.0	-5980675.0	-42480.0
5	18	4	29	79	161.0	-98082.0	-5982419.0	-42146.0
5	18	4	29	79	162.0	-105164.0	-5983958.0	-42178.0
5	18	4	29	80	163.0	-112955.0	-5984642.0	-42909.0
5	18	4	29	81	164.0	-120649.0	-5984053.0	-43432.0
5	18	4	29	82	165.0	-130624.0	-5982589.0	-42661.0
5	18	4	29	82	166.0	-139676.0	-5982276.0	-41942.0
5	18	4	29	83	167.0	-151244.0	-5983086.0	-41083.0
5	18	4	29	84	168.0	-166617.0	-5983023.0	-40672.0
5	18	4	29	84	169.0	-177331.0	-5982615.0	-41103.0
5	18	4	29	85	170.0	-187328.0	-5984783.0	-40786.0
5	18	4	29	86	171.0	-196621.0	-5986337.0	-40379.0
5	18	4	29	86	172.0	-207671.0	-5987508.0	-41099.0
5	18	4	29	87	196.0	-180681.0	-5944978.0	-41832.0
5	18	4	29	88	197.0	-168805.0	-5941962.0	-43142.0
5	18	4	29	88	198.0	-157314.0	-5939401.0	-45772.0
5	18	4	29	89	199.0	-148023.0	-5937217.0	-50246.0
5	18	4	29	89	200.0	-137094.0	-5932697.0	-54971.0
5	18	4	29	90	201.0	-127982.0	-5929994.0	-59387.0
5	18	4	29	120	202.0	-121262.0	-5928416.0	-62723.0
5	18	4	29	121	203.0	-116319.0	-5924203.0	-63125.0
5	18	4	29	122	204.0	-112650.0	-5920289.0	-60471.0
5	18	4	29	123	205.0	-110346.0	-5917730.0	-56430.0
5	18	4	29	123	206.0	-109295.0	-5915248.0	-55907.0
5	18	4	29	124	207.0	-109199.0	-5913022.0	-57156.0
5	18	4	29	125	208.0	-110367.0	-5911691.0	-56199.0
5	18	4	29	126	209.0	-113271.0	-5908041.0	-53680.0
5	18	4	29	126	210.0	-117155.0	-5903906.0	-50358.0
5	18	4	29	127	211.0	-121895.0	-5903027.0	-46265.0
5	18	4	29	128	212.0	-126959.0	-5903326.0	-39992.0
5	18	4	29	129	213.0	-133429.0	-5905977.0	-32332.0
5	18	4	29	129	214.0	-140362.0	-5907862.0	-26817.0
5	18	4	29	130	215.0	-147722.0	-5905009.0	-22253.0
5	18	4	29	131	216.0	-154096.0	-5899571.0	-20902.0
5	18	4	29	131	218.0	-162746.0	-5896549.0	-22353.0
5	18	4	29	132	219.0	-163088.0	-5894750.0	-23088.0
5	18	4	29	133	220.0	-161313.0	-5894882.0	-23822.0
5	18	4	29	133	221.0	-158556.0	-5896619.0	-25351.0
5	18	4	29	134	222.0	-155397.0	-5900154.0	-27697.0
5	18	4	29	135	223.0	-151021.0	-5903812.0	-30121.0
5	18	4	29	135	224.0	-145840.0	-5899719.0	-32111.0
5	18	4	29	165	225.0	-142998.0	-5894961.0	-33533.0
5	18	4	29	166	226.0	-143643.0	-5895620.0	-33922.0
5	18	4	29	166	227.0	-147374.0	-5894185.0	-34725.0
5	18	4	29	167	228.0	-154416.0	-5894141.0	-35301.0
5	18	4	29	168	229.0	-164222.0	-5895384.0	-36285.0
5	18	4	29	169	230.0	-175377.0	-5893587.0	-37294.0
5	18	4	29	169	231.0	-187356.0	-5891416.0	-37764.0
5	18	4	29	170	232.0	-199456.0	-5894007.0	-38576.0
5	18	4	29	171	233.0	-210376.0	-5893558.0	-38173.0
5	18	4	29	171	234.0	-218031.0	-5893681.0	-37392.0
5	18	4	29	172	235.0	-221757.0	-5893916.0	-36049.0
5	18	4	29	173	236.0	-222091.0	-5893016.0	-35197.0
5	18	4	29	174	237.0	-219521.0	-5893146.0	-35396.0
5	18	4	29	174	238.0	-214472.0	-5888843.0	-36576.0
5	18	4	29	175	239.0	-208060.0	-5884959.0	-37947.0
5	18	4	29	176	241.0	-191614.0	-5893496.0	-39139.0
5	18	4	29	176	242.0	-181719.0	-5892330.0	-40804.0
5	18	4	29	177	243.0	-171444.0	-5893176.0	-40766.0
5	18	4	29	178	244.0	-162001.0	-5895563.0	-39365.0
5	18	4	29	178	245.0	-155712.0	-5891960.0	-37395.0
5	18	4	29	179	246.0	-153060.0	-5885159.0	-37402.0
5	18	4	29	210	247.0	-152266.0	-5890904.0	-37886.0
5	18	4	29	211	248.0	-148016.0	-5893744.0	-38292.0
5	18	4	29	212	249.0	-151227.0	-5892617.0	-39029.0
5	18	4	29	212	250.0	-149724.0	-5895190.0	-39637.0
5	18	4	29	213	251.0	-145206.0	-5892471.0	-40429.0
5	18	4	29	214	252.0	-142902.0	-5891780.0	-41399.0
5	18	4	29	214	253.0	-139520.0	-5892264.0	-41372.0
5	18	4	29	215	254.0	-135265.0	-5892113.0	-40014.0
5	18	4	29	215	255.0	-129807.0	-5892526.0	-38789.0
5	18	4	29	216	0.0	-123245.0	-5893198.0	-38571.0
5	18	4	29	217	1.0	-116155.0	-5896214.0	-38708.0
5	18	4	29	217	2.0	-108222.0	-5894852.0	-39251.0
5	18	4	29	218	3.0	-101182.0	-5893800.0	-39579.0
5	18	4	29	218	4.0	-94323.0	-5889949.0	-40081.0
5	18	4	29	219	5.0	-87788.0	-5889359.0	-41091.0
5	18	4	29	219	7.0	-79683.0	-5892795.0	-41455.0
5	18	4	29	220	8.0	-77838.0	-5893679.0	-40599.0
5	18	4	29	221	9.0	-78901.0	-5893434.0	-38862.0
5	18	4	29	221	10.0	-81219.0	-5894266.0	-38604.0
5	18	4	29	222	11.0	-86643.0	-5893617.0	-38649.0
5	18	4	29	222	12.0	-93517.0	-5892522.0	-39108.0
5	18	4	29	223	13.0	-100005.0	-5892993.0	-39554.0
5	18	4	29	254	14.0	-103172.0	-5891972.0	-40287.0
5	18	4	29	255	15.0	-108652.0	-5891755.0	-41401.0
5	18	4	29	255	16.0	-114437.0	-5893441.0	-42304.0
5	18	4	29	256	17.0	-119406.0	-5893329.0	-42216.0
5	18	4	29	257	18.0	-125107.0	-5891327.0	-40700.0
5	18	4	29	257	19.0	-129855.0	-5891169.0	-39843.0
5	18	4	29	299	20.0	-135036.0	-5893075.0	-39812.0
5	18	4	29	300	21.0	-138051.0	-5892581.0	-39722.0
5	18	4	29	301	22.0	-141779.0	-5892424.0	-39009.0
5	18	4	29	301	23.0	-146382.0	-5894862.0	-38736.0
5	18	4	29	302	24.0	-151479.0	-5894097.0	-39594.0
5	18	4	29	302	25.0	-158499.0	-5892944.0	-40685.0
5	18	4	29	303	26.0	-163054.0	-5891874.0	-41291.0
5	18	4	29	304	27.0	-165924.0	-5891700.0	-41050.0
5	18	4	29	304	28.0	-169115.0	-5892999.0	-40247.0
5	18	4	29	305	30.0	-179953.0	-5886771.0	-38731.0
5	18	4	29	306	31.0	-188347.0	-5878707.0	-37794.0
5	18	4	29	306	32.0	-192927.0	-5887354.0	-38164.0
5	18	4	29	307	33.0	-197189.0	-5893387.0	-38584.0
5	18	4	29	307	34.0	-196437.0	-5892279.0	-38883.0
5	18	4	29	308	35.0	-199359.0	-5893998.0	-39838.0
5	18	4	29	309	52.0	-175837.0	-5891631.0	-14284.0
5	18	4	29	309	53.0	-172621.0	-5891926.0	-4957.0
5	18	4	29	310	54.0	-170271.0	-5890982.0	4479.0
5	18	4	29	310	55.0	-166472.0	-5891468.0	11440.0
5	18	4	29	311	56.0	-162406.0	-5893074.0	17345.0
5	18	4	29	312	57.0	-158780.0	-5894713.0	22935.0
5	18	4	29	312	58.0	-156356.0	-5894468.0	28801.0
5	18	4	29	344	59.0	-157853.0	-5892398.0	33605.0
5	18	4	29	345	60.0	-157319.0	-5891293.0	38786.0
5	18	4	29	346	61.0	-156649.0	-5892884.0	43203.0
5	18	4	29	346	62.0	-155577.0	-5896162.0	46183.0
5	18	4	29	347	63.0	-154572.0	-5895323.0	49463.0
5	18	4	29	347	64.0	-154301.0	-5895560.0	53050.0
5	18	4	29	348	65.0	-155688.0	-5888882.0	53668.0
5	18	4	29	349	66.0	-157660.0	-5888819.0	55131.0
5	18	4	29	349	67.0	-160971.0	-5890424.0	59039.0
5	18	4	29	350	68.0	-162686.0	-5890349.0	63426.0
5	18	4	29	350	69.0	-164342.0	-5885080.0	61664.0
5	18	4	29	351	70.0	-165681.0	-5883982.0	58941.0
5	18	4	29	351	71.0	-167184.0	-5891909.0	57399.0
5	18	4	29	352	72.0	-169996.0	-5894680.0	57118.0
5	18	4	29	353	73.0	-175179.0	-5895691.0	57494.0
5	18	4	29	353	75.0	-171654.0	-5892696.0	59939.0
5	18	4	29	354	76.0	-172666.0	-5892521.0	60446.0
5	18	4	29	355	77.0	-170368.0	-5890726.0	60786.0
5	18	4	29	355	78.0	-169002.0	-5883082.0	59830.0
5	18	4	29	356	79.0	-167391.0	-5880873.0	55985.0
5	18	4	29	356	80.0	-164031.0	-5888376.0	50594.0
5	18	4	29	389	81.0	-162533.0	-5892380.0	44014.0
5	18	4	29	389	82.0	-163568.0	-5892508.0	35251.0
5	18	4	29	390	83.0	-161297.0	-5890146.0	25093.0
5	18	4	29	391	84.0	-159244.0	-5889399.0	12117.0
5	18	4	29	391	85.0	-157457.0	-5894269.0	-14256.0
5	18	4	29	392	86.0	-155829.0	-5893646.0	-56636.0
5	18	4	29	393	87.0	-156639.0	-5893011.0	-98057.0
5	18	4	29	393	88.0	-158115.0	-5893447.0	-142769.0
5	18	4	29	394	89.0	-158249.0	-5893928.0	-183266.0
5	18	4	29	395	90.0	-158681.0	-5893250.0	-213872.0
5	18	4	29	395	91.0	-159606.0	-5895209.0	-301488.0
5	18	4	29	396	92.0	-161673.0	-5897148.0	-475124.0
5	18	4	29	396	93.0	-164897.0	-5896191.0	-609512.0
5	18	4	29	397	94.0	-165627.0	-5896331.0	-590201.0
5	18	4	29	398	95.0	-163184.0	-5896439.0	-506189.0
5	18	4	29	398	97.0	-159329.0	-5893238.0	-614129.0
5	18	4	29	399	98.0	-162927.0	-5892307.0	-939459.0
5	18	4	29	399	99.0	-165251.0	-5891578.0	-1302941.0
5	18	4	29	400	100.0	-163696.0	-5895619.0	-1575351.0
5	18	4	29	401	101.0	-163902.0	-5898819.0	-1729722.0
5	18	4	29	401	102.0	-163502.0	-5897147.0	-1771482.0
5	18	4	29	436	103.0	-165006.0	-5895586.0	-1761647.0
5	18	4	29	436	104.0	-167909.0	-5894861.0	-1721742.0
5	18	4	29	437	105.0	-171819.0	-5897146.0	-1610697.0
5	18	4	29	437	106.0	-173981.0	-5899877.0	-1529639.0
5	18	4	29	438	107.0	-177509.0	-5897911.0	-1676079.0
5	18	4	29	439	108.0	-182449.0	-5896267.0	-1965754.0
5	18	4	29	439	109.0	-184639.0	-5895907.0	-2303551.0
5	18	4	29	440	110.0	-188007.0	-5898264.0	-2549326.0
5	18	4	29	441	111.0	-190502.0	-5897587.0	-2656699.0
5	18	4	29	442	112.0	-191292.0	-5894847.0	-2661399.0
5	18	4	29	443	113.0	-190192.0	-5895596.0	-2618942.0
5	18	4	29	444	114.0	-188126.0	-5898179.0	-2549362.0
5	18	4	29	445	115.0	-187118.0	-5899079.0	-2399870.0
5	18	4	29	445	116.0	-187983.0	-5898654.0	-2317632.0
5	18	4	29	446	117.0	-189377.0	-5896211.0	-2480464.0
5	18	4	29	446	119.0	-194980.0	-5892897.0	-3101091.0
5	18	4	29	447	120.0	-197489.0	-5894094.0	-3320501.0
5	18	4	29	447	121.0	-199612.0	-5893101.0	-3396349.0
5	18	4	29	448	122.0	-200950.0	-5894903.0	-3376999.0
5	18	4	29	449	123.0	-202056.0	-5895198.0	-3315894.0
5	18	4	29	449	124.0	-202420.0	-5894114.0	-3227347.0
5	18	4	29	450	125.0	-201739.0	-5896167.0	-3046611.0
5	18	4	29	480	126.0	-200988.0	-5898377.0	-2952184.0
5	18	4	29	481	127.0	-199524.0	-5898935.0	-3108726.0
5	18	4	29	482	128.0	-197719.0	-5900657.0	-3425194.0
5	18	4	29	482	129.0	-195692.0	-5897522.0	-3741673.0
5	18	4	29	483	130.0	-193835.0	-5895628.0	-3950776.0
5	18	4	29	483	131.0	-192254.0	-5896784.0	-4005843.0
5	18	4	29	484	132.0	-190299.0	-5899233.0	-3960325.0
5	18	4	29	485	133.0	-188652.0	-5899344.0	-3875349.0
5	18	4	29	485	134.0	-187454.0	-5898962.0	-3771229.0
5	18	4	29	486	135.0	-186864.0	-5901594.0	-3572015.0
5	18	4	29	487	136.0	-187117.0	-5903944.0	-3481427.0
5	18	4	29	488	137.0	-187913.0	-5894073.0	-3638142.0
5	18	4	29	488	138.0	-189801.0	-5892141.0	-3951359.0
5	18	4	29	489	139.0	-192184.0	-5893912.0	-4247811.0
5	18	4	29	490	140.0	-194222.0	-5897344.0	-4433247.0
5	18	4	29	490	142.0	-196065.0	-5897605.0	-4408289.0
5	18	4	29	491	143.0	-196238.0	-5900226.0	-4310989.0
5	18	4	29	491	144.0	-195979.0	-5902841.0	-4187664.0
5	18	4	29	492	145.0	-194353.0	-5905447.0	-3961852.0
5	18	4	29	492	146.0	-191300.0	-5904611.0	-3869816.0
5	18	4	29	493	147.0	-187152.0	-5900650.0	-4026520.0
5	18	4	29	525	148.0	-181774.0	-5896394.0	-4332181.0
5	18	4	29	526	149.0	-175584.0	-5895689.0	-4602850.0
5	18	4	29	526	150.0	-168838.0	-5896871.0	-4765114.0
5	18	4	29	527	151.0	-161826.0	-5893329.0	-4767047.0
5	18	4	29	528	152.0	-155497.0	-5893688.0	-4681351.0
5	18	4	29	528	153.0	-149842.0	-5899150.0	-4540220.0
5	18	4	29	529	154.0	-144591.0	-5901064.0	-4374549.0
5	18	4	29	530	155.0	-139984.0	-5902253.0	-4127587.0
5	18	4	29	530	156.0	-135830.0	-5902214.0	-4040373.0
5	18	4	29	531	157.0	-132008.0	-5899055.0	-4193929.0
5	18	4	29	532	158.0	-128881.0	-5895152.0	-4498267.0
5	18	4	29	532	159.0	-126777.0	-5892734.0	-4759953.0
5	18	4	29	533	160.0	-125201.0	-5894108.0	-4908402.0
5	18	4	29	534	161.0	-123795.0	-5897548.0	-4895157.0
5	18	4	29	534	162.0	-122497.0	-5898610.0	-4809314.0
5	18	4	29	535	164.0	-120158.0	-5899600.0	-4516535.0
5	18	4	29	535	165.0	-119433.0	-5902454.0	-4252384.0
5	18	4	29	536	166.0	-119129.0	-5901379.0	-4172715.0
5	18	4	29	537	167.0	-119304.0	-5897376.0	-4332999.0
5	18	4	29	537	168.0	-119763.0	-5893431.0	-4639887.0
5	18	4	29	538	169.0	-120626.0	-5895490.0	-4890950.0
5	18	4	29	538	170.0	-121869.0	-5897614.0	-5021152.0
5	18	4	29	569	171.0	-124175.0	-5897638.0	-4987141.0
5	18	4	29	570	172.0	-127388.0	-5894789.0	-4887103.0
5	18	4	29	570	173.0	-131626.0	-5893953.0	-4738631.0
5	18	4	29	571	174.0	-136976.0	-5894029.0	-4557287.0
5	18	4	29	572	175.0	-143575.0	-5894907.0	-4277151.0
5	18	4	29	573	176.0	-150856.0	-5893953.0	-4207906.0
5	18	4	29	573	177.0	-158233.0	-5893648.0	-4372936.0
5	18	4	29	574	178.0	-165507.0	-5891182.0	-4676504.0
5	18	4	29	575	179.0	-172052.0	-5893642.0	-4906762.0
5	18	4	29	575	180.0	-178129.0	-5894389.0	-5012154.0
5	18	4	29	576	181.0	-183663.0	-5894640.0	-4947626.0
5	18	4	29	577	182.0	-189609.0	-5895767.0	-4819120.0
5	18	4	29	577	183.0	-195589.0	-5897292.0	-4641946.0
5	18	4	29	578	184.0	-201377.0	-5896509.0	-4420184.0
5	18	4	29	578	185.0	-206417.0	-5898660.0	-4089806.0
5	18	4	29	579	187.0	-213959.0	-5896837.0	-3922905.0
5	18	4	29	580	188.0	-217451.0	-5889881.0	-3788253.0
5	18	4	29	580	189.0	-220525.0	-5892456.0	-3372645.0
5	18	4	29	581	190.0	-223317.0	-5894481.0	-2767412.0
5	18	4	29	582	191.0	-225516.0	-5897469.0	-2077767.0
5	18	4	29	582	192.0	-226669.0	-5901025.0	-1472480.0
5	18	4	29	615	193.0	-226792.0	-5899947.0	-1031223.0
5	18	4	29	640	194.0	-225727.0	-5897222.0	-735081.0
5	18	4	29	641	195.0	-224362.0	-5896278.0	-500542.0
5	18	4	29	641	196.0	-222118.0	-5889562.0	-391681.0
5	18	4	29	642	197.0	-219182.0	-5889821.0	-351047.0
5	18	4	29	643	198.0	-215539.0	-5891509.0	-344151.0
5	18	4	29	643	199.0	-212534.0	-5891439.0	-314846.0
5	18	4	29	644	200.0	-210696.0	-5894434.0	-270188.0
5	18	4	29	644	201.0	-207913.0	-5897019.0	-219921.0
5	18	4	29	645	202.0	-204002.0	-5897244.0	-166667.0
5	18	4	29	646	203.0	-199625.0	-5899411.0	-108544.0
5	18	4	29	646	204.0	-194379.0	-5901715.0	-67359.0
5	18	4	29	647	205.0	-188387.0	-5903047.0	-41981.0
5	18	4	29	647	206.0	-181029.0	-5902586.0	-51601.0
5	18	4	29	648	207.0	-171334.0	-5900721.0	-66403.0
5	18	4	29	648	209.0	-152996.0	-5895467.0	-76827.0
5	18	4	29	649	210.0	-143047.0	-5895879.0	-68785.0
5	18	4	29	649	211.0	-131931.0	-5897570.0	-58909.0
5	18	4	29	650	212.0	-120046.0	-5900116.0	-49713.0
5	18	4	29	651	213.0	-107771.0	-5902912.0	-40441.0
5	18	4	29	651	214.0	-95221.0	-5904836.0	-30276.0
5	18	4	29	652	215.0	-82982.0	-5907806.0	-23537.0
5	18	4	29	663	216.0	-71229.0	-5907401.0	-36328.0
5	18	4	29	663	217.0	-60155.0	-5902889.0	-50669.0
5	18	4	29	664	218.0	-50483.0	-5894996.0	-58995.0
5	18	4	29	665	219.0	-41916.0	-5893536.0	-58852.0
5	18	4	29	665	220.0	-33827.0	-5895178.0	-53736.0
5	18	4	29	666	221.0	-26611.0	-5896830.0	-48772.0
5	18	4	29	667	222.0	-20901.0	-5898543.0	-43998.0
5	18	4	29	667	223.0	-16901.0	-5899399.0	-39352.0
5	18	4	29	668	224.0	-14947.0	-5900674.0	-32574.0
5	18	4	29	669	225.0	-14669.0	-5902723.0	-26374.0
5	18	4	29	669	226.0	-16402.0	-5902785.0	-34301.0
5	18	4	29	670	227.0	-20041.0	-5899093.0	-44222.0
5	18	4	29	671	228.0	-25037.0	-5894329.0	-46896.0
5	18	4	29	671	229.0	-31119.0	-5894476.0	-45162.0
5	18	4	29	672	230.0	-37620.0	-5896644.0	-39226.0
5	18	4	29	673	232.0	-51257.0	-5898138.0	-26886.0
5	18	4	29	673	233.0	-58622.0	-5899365.0	-21413.0
5	18	4	29	674	234.0	-65604.0	-5902824.0	-11955.0
5	18	4	29	674	235.0	-73499.0	-5907817.0	-8516.0
5	18	4	29	675	236.0	-81827.0	-5907368.0	-14955.0
5	18	4	29	675	237.0	-90740.0	-5903182.0	-25262.0
5	18	4	29	704	238.0	-99863.0	-5898497.0	-25587.0
5	18	4	29	705	239.0	-108974.0	-5896442.0	-23018.0
5	18	4	29	706	240.0	-119119.0	-5898934.0	-17135.0
5	18	4	29	707	241.0	-130261.0	-5901455.0	-10034.0
5	18	4	29	707	242.0	-142443.0	-5902769.0	-3336.0
5	18	4	29	708	243.0	-154602.0	-5905314.0	2856.0
5	18	4	29	709	244.0	-167282.0	-5908630.0	13569.0
5	18	4	29	709	245.0	-179792.0	-5911499.0	15544.0
5	18	4	29	710	246.0	-191709.0	-5910287.0	9123.0
5	18	4	29	711	247.0	-203467.0	-5907369.0	-912.0
5	18	4	29	711	248.0	-215318.0	-5904957.0	-2314.0
5	18	4	29	722	249.0	-227191.0	-5900776.0	-737.0
5	18	4	29	723	250.0	-237692.0	-5897921.0	5533.0
5	18	4	29	724	251.0	-246999.0	-5898707.0	11418.0
5	18	4	29	725	252.0	-254628.0	-5901026.0	16444.0
5	18	4	29	725	254.0	-263722.0	-5898889.0	30113.0
5	18	4	29	726	255.0	-265766.0	-5903668.0	30121.0
5	18	4	29	726	0.0	-266036.0	-5905067.0	21310.0
5	18	4	29	727	1.0	-264992.0	-5901026.0	14509.0
5	18	4	29	728	2.0	-264612.0	-5896596.0	13959.0
5	18	4	29	728	3.0	-261594.0	-5895134.0	17238.0
5	18	4	29	729	4.0	-255871.0	-5896854.0	22998.0
5	18	4	29	750	5.0	-251049.0	-5900536.0	28874.0
5	18	4	29	750	6.0	-246306.0	-5904271.0	35608.0
5	18	4	29	751	7.0	-239071.0	-5903443.0	41468.0
5	18	4	29	752	8.0	-234460.0	-5900166.0	51338.0
5	18	4	29	753	9.0	-229522.0	-5904402.0	52403.0
5	18	4	29	753	10.0	-222317.0	-5905082.0	44381.0
5	18	4	29	754	11.0	-213483.0	-5901212.0	37485.0
5	18	4	29	755	12.0	-203353.0	-5896901.0	36941.0
5	18	4	29	755	13.0	-194727.0	-5894416.0	40077.0
5	18	4	29	756	14.0	-187247.0	-5897145.0	45959.0
5	18	4	29	757	15.0	-180056.0	-5899339.0	52318.0
5	18	4	29	757	16.0	-172883.0	-5900495.0	57706.0
5	18	4	29	758	17.0	-165229.0	-5902319.0	61015.0
5	18	4	29	759	18.0	-156216.0	-5906019.0	69201.0
5	18	4	29	759	19.0	-141092.0	-5909161.0	69378.0
5	18	4	29	760	21.0	-132289.0	-5898592.0	63708.0
5	18	4	29	761	22.0	-126586.0	-5894824.0	69559.0
5	18	4	29	761	23.0	-122251.0	-5893013.0	74642.0
5	18	4	29	762	24.0	-118390.0	-5894921.0	83206.0
5	18	4	29	763	25.0	-116042.0	-5897794.0	89325.0
5	18	4	29	763	26.0	-115170.0	-5899983.0	94900.0
5	18	4	29	794	27.0	-114522.0	-5903743.0	98728.0
5	18	4	29	795	28.0	-115564.0	-5907169.0	105934.0
5	18	4	29	796	29.0	-116544.0	-5909339.0	103010.0
5	18	4	29	797	30.0	-116987.0	-5907679.0	92801.0
5	18	4	29	797	31.0	-124263.0	-5902854.0	81209.0
5	18	4	29	798	32.0	-124030.0	-5895917.0	76983.0
5	18	4	29	799	33.0	-127464.0	-5893074.0	76572.0
5	18	4	29	799	34.0	-130724.0	-5893113.0	82943.0
5	18	4	29	800	35.0	-134123.0	-5893767.0	91223.0
5	18	4	29	801	36.0	-137144.0	-5894900.0	100146.0
5	18	4	29	801	37.0	-139102.0	-5895547.0	107425.0
5	18	4	29	802	38.0	-140570.0	-5895426.0	117039.0
5	18	4	29	803	39.0	-142441.0	-5895223.0	114456.0
5	18	4	29	803	40.0	-144111.0	-5892776.0	108451.0
5	18	4	29	804	41.0	-145573.0	-5890971.0	105443.0
5	18	4	29	805	43.0	-149937.0	-5897340.0	118906.0
5	18	4	29	805	44.0	-152551.0	-5893017.0	132594.0
5	18	4	29	806	45.0	-153721.0	-5892932.0	143813.0
5	18	4	29	807	46.0	-154649.0	-5893421.0	151551.0
5	18	4	29	807	47.0	-155209.0	-5894165.0	156892.0
5	18	4	29	808	48.0	-155005.0	-5899044.0	163612.0
5	18	4	29	839	49.0	-154409.0	-5898372.0	161201.0
5	18	4	29	840	50.0	-154100.0	-5893983.0	153518.0
5	18	4	29	841	51.0	-154565.0	-5890919.0	148084.0
5	18	4	29	841	52.0	-155212.0	-5894107.0	146436.0
5	18	4	29	842	53.0	-153109.0	-5903981.0	147241.0
5	18	4	29	843	54.0	-147766.0	-5900108.0	149729.0
5	18	4	29	843	55.0	-137601.0	-5895059.0	150621.0
5	18	4	29	844	56.0	-125566.0	-5888230.0	151469.0
5	18	4	29	845	57.0	-115101.0	-5892001.0	152315.0
5	18	4	29	846	58.0	-106794.0	-5898723.0	157381.0
5	18	4	29	846	59.0	-101809.0	-5898264.0	153389.0
5	18	4	29	847	60.0	-100908.0	-5896646.0	144901.0
5	18	4	29	848	61.0	-103438.0	-5893469.0	139339.0
5	18	4	29	848	62.0	-108135.0	-5892087.0	138538.0
5	18	4	29	849	63.0	-115249.0	-5892509.0	141111.0
5	18	4	29	850	66.0	-151149.0	-5898874.0	151399.0
5	18	4	29	850	67.0	-161510.0	-5899416.0	153665.0
5	18	4	29	851	68.0	-168922.0	-5901766.0	158586.0
5	18	4	29	851	69.0	-174329.0	-5900397.0	153188.0
5	18	4	29	852	70.0	-177484.0	-5895490.0	145031.0
5	18	4	29	853	71.0	-179074.0	-5892195.0	136809.0
5	18	4	29	885	72.0	-179769.0	-5892072.0	135863.0
5	18	4	29	886	73.0	-179997.0	-5891337.0	137603.0
5	18	4	29	887	74.0	-179454.0	-5893449.0	141575.0
5	18	4	29	888	75.0	-176656.0	-5895007.0	143397.0
5	18	4	29	888	76.0	-174622.0	-5894589.0	145838.0
5	18	4	29	889	77.0	-173708.0	-5893063.0	148518.0
5	18	4	29	890	78.0	-174522.0	-5891770.0	152891.0
5	18	4	29	891	79.0	-178061.0	-5891949.0	147253.0
5	18	4	29	891	80.0	-182559.0	-5890517.0	136494.0
5	18	4	29	892	81.0	-187936.0	-5888754.0	129215.0
5	18	4	29	893	82.0	-192557.0	-5890473.0	128624.0
5	18	4	29	893	83.0	-196307.0	-5889927.0	132874.0
5	18	4	29	894	84.0	-200511.0	-5891361.0	136822.0
5	18	4	29	895	85.0	-203854.0	-5893266.0	140313.0
5	18	4	29	895	86.0	-207128.0	-5894102.0	142450.0
5	18	4	29	896	88.0	-213754.0	-5893322.0	148489.0
5	18	4	29	897	89.0	-215185.0	-5891712.0	143805.0
5	18	4	29	897	90.0	-214359.0	-5891162.0	135350.0
5	18	4	29	898	91.0	-212623.0	-5890062.0	132548.0
5	18	4	29	898	92.0	-210411.0	-5888649.0	130625.0
5	18	4	29	899	93.0	-207204.0	-5889945.0	131841.0
5	18	4	29	900	94.0	-203297.0	-5890890.0	134878.0
5	18	4	29	931	95.0	-198899.0	-5891361.0	137241.0
5	18	4	29	931	96.0	-194217.0	-5893567.0	140195.0
5	18	4	29	932	97.0	-189474.0	-5895420.0	143398.0
5	18	4	29	933	98.0	-184823.0	-5893963.0	147640.0
5	18	4	29	934	99.0	-180741.0	-5891462.0	140202.0
5	18	4	29	934	100.0	-177155.0	-5891670.0	131416.0
5	18	4	29	935	101.0	-172922.0	-5890527.0	123068.0
5	18	4	29	936	102.0	-168437.0	-5890357.0	124979.0
5	18	4	29	937	103.0	-163644.0	-5891580.0	128679.0
5	18	4	29	937	104.0	-158098.0	-5893764.0	133764.0
5	18	4	29	938	105.0	-151719.0	-5895246.0	136774.0
5	18	4	29	939	106.0	-144898.0	-5893779.0	139197.0
5	18	4	29	939	107.0	-138176.0	-5891716.0	141811.0
5	18	4	29	940	108.0	-131382.0	-5893934.0	144936.0
5	18	4	29	941	109.0	-125048.0	-5892857.0	137717.0
5	18	4	29	942	110.0	-119908.0	-5890146.0	128397.0
5	18	4	29	942	111.0	-117194.0	-5894597.0	121046.0
5	18	4	29	943	112.0	-115699.0	-5894405.0	123436.0
5	18	4	29	944	113.0	-115114.0	-5892252.0	126839.0
5	18	4	29	944	114.0	-116165.0	-5894799.0	131144.0
5	18	4	29	945	115.0	-118777.0	-5893903.0	134389.0
5	18	4	29	946	116.0	-122934.0	-5892778.0	136860.0
5	18	4	29	975	117.0	-125624.0	-5893204.0	140683.0
5	18	4	29	976	118.0	-132745.0	-5893637.0	143748.0
5	18	4	29	977	119.0	-137442.0	-5892479.0	137201.0
5	18	4	29	978	120.0	-141573.0	-5890839.0	128209.0
5	18	4	29	978	121.0	-145717.0	-5888046.0	123509.0
5	18	4	29	979	122.0	-149927.0	-5889302.0	124221.0
5	18	4	29	980	123.0	-154262.0	-5891724.0	127398.0
5	18	4	29	980	124.0	-158822.0	-5891738.0	130916.0
5	18	4	29	981	125.0	-163569.0	-5894663.0	134104.0
5	18	4	29	982	126.0	-168463.0	-5898481.0	136731.0
5	18	4	30	20	127.0	-173245.0	-5894994.0	140679.0
5	18	4	30	21	128.0	-177572.0	-5893341.0	143354.0
5	18	4	30	22	129.0	-181321.0	-5891566.0	136353.0
5	18	4	30	23	130.0	-185825.0	-5891432.0	128495.0
5	18	4	30	24	131.0	-191201.0	-5890941.0	125531.0
5	18	4	30	24	133.0	-201858.0	-5900482.0	128588.0
5	18	4	30	25	134.0	-207173.0	-5900732.0	131081.0
5	18	4	30	26	135.0	-211949.0	-5893910.0	133463.0
5	18	4	30	26	136.0	-216252.0	-5892638.0	135926.0
5	18	4	30	27	137.0	-220047.0	-5892686.0	139833.0
5	18	4	30	28	138.0	-223029.0	-5892377.0	141443.0
5	18	4	30	29	139.0	-224721.0	-5891678.0	134089.0
5	18	4	30	29	140.0	-225279.0	-5891624.0	125324.0
5	18	4	30	30	141.0	-224337.0	-5890037.0	121104.0
5	18	4	30	31	142.0	-221962.0	-5888668.0	123048.0
5	18	4	30	31	155.0	-108618.0	-5889702.0	132784.0
5	18	4	30	32	156.0	-100888.0	-5890640.0	135111.0
5	18	4	30	33	157.0	-94696.0	-5891072.0	139789.0
5	18	4	30	33	158.0	-90384.0	-5885278.0	138942.0
5	18	4	30	34	159.0	-87847.0	-5880347.0	133299.0
5	18	4	30	35	160.0	-86959.0	-5879954.0	120162.0
5	18	4	30	35	161.0	-87643.0	-5878376.0	118609.0
5	18	4	30	65	162.0	-89971.0	-5877521.0	121069.0
5	18	4	30	66	163.0	-93536.0	-5880941.0	127781.0
5	18	4	30	66	164.0	-97691.0	-5887259.0	132199.0
5	18	4	30	67	165.0	-102335.0	-5890304.0	135625.0
5	18	4	30	68	166.0	-107285.0	-5889213.0	138278.0
5	18	4	30	69	167.0	-112396.0	-5891027.0	142381.0
5	18	4	30	69	168.0	-117832.0	-5891542.0	142178.0
5	18	4	30	70	169.0	-123752.0	-5889377.0	136403.0
5	18	4	30	71	170.0	-130001.0	-5887301.0	131699.0
5	18	4	30	71	171.0	-136200.0	-5884289.0	130936.0
5	18	4	30	72	172.0	-142089.0	-5882575.0	131143.0
5	18	4	30	73	173.0	-146667.0	-5884028.0	134471.0
5	18	4	30	74	174.0	-151432.0	-5887830.0	135974.0
5	18	4	30	74	175.0	-155532.0	-5891292.0	139193.0
5	18	4	30	75	176.0	-158018.0	-5892114.0	141068.0
5	18	4	30	76	178.0	-162468.0	-5890709.0	143277.0
5	18	4	30	77	179.0	-164487.0	-5889786.0	138551.0
5	18	4	30	77	180.0	-166581.0	-5887406.0	126851.0
5	18	4	30	78	181.0	-169793.0	-5884310.0	127091.0
5	18	4	30	79	182.0	-172057.0	-5886277.0	128857.0
5	18	4	30	79	183.0	-174191.0	-5889426.0	134651.0
5	18	4	30	111	184.0	-177326.0	-5890154.0	138236.0
5	18	4	30	156	185.0	-178699.0	-5890766.0	141183.0
5	18	4	30	157	186.0	-178737.0	-5890253.0	143439.0
5	18	4	30	157	187.0	-180692.0	-5891391.0	147154.0
5	18	4	30	159	188.0	-182571.0	-5891637.0	145727.0
5	18	4	30	161	189.0	-183792.0	-5890850.0	140708.0
5	18	4	30	161	190.0	-183563.0	-5889667.0	134849.0
5	18	4	30	162	191.0	-183381.0	-5886736.0	133929.0
5	18	4	30	163	192.0	-181478.0	-5888901.0	136024.0
5	18	4	30	164	193.0	-181812.0	-5888704.0	139108.0
5	18	4	30	164	194.0	-182372.0	-5890291.0	140573.0
5	18	4	30	165	195.0	-182495.0	-5891205.0	143466.0
5	18	4	30	166	196.0	-181659.0	-5891437.0	144832.0
5	18	4	30	167	197.0	-180498.0	-5892886.0	148773.0
5	18	4	30	167	198.0	-179134.0	-5891956.0	145999.0
5	18	4	30	168	200.0	-175319.0	-5889389.0	133602.0
5	18	4	30	169	201.0	-174141.0	-5889207.0	133564.0
5	18	4	30	169	223.0	-165590.0	-5886211.0	139948.0
5	18	4	30	170	224.0	-167404.0	-5888509.0	141254.0
5	18	4	30	170	225.0	-169122.0	-5890792.0	142949.0
5	18	4	30	171	226.0	-169750.0	-5893213.0	144293.0
5	18	4	30	172	227.0	-169641.0	-5892274.0	146784.0
5	18	4	30	172	228.0	-169500.0	-5891243.0	143513.0
5	18	4	30	201	229.0	-170427.0	-5890637.0	138779.0
5	18	4	30	201	230.0	-171882.0	-5887159.0	133817.0
5	18	4	30	202	231.0	-173006.0	-5883937.0	133717.0
5	18	4	30	203	232.0	-173266.0	-5881673.0	135628.0
5	18	4	30	204	233.0	-171777.0	-5883471.0	137493.0
5	18	4	30	205	234.0	-168756.0	-5885852.0	138529.0
5	18	4	30	205	235.0	-164756.0	-5889399.0	140996.0
5	18	4	30	206	236.0	-160621.0	-5891182.0	141864.0
5	18	4	30	207	237.0	-157137.0	-5889126.0	145071.0
5	18	4	30	208	238.0	-154849.0	-5887174.0	140868.0
5	18	4	30	208	239.0	-153535.0	-5886961.0	135972.0
5	18	4	30	209	240.0	-153573.0	-5884016.0	130511.0
5	18	4	30	210	241.0	-154905.0	-5881530.0	130561.0
5	18	4	30	210	242.0	-157166.0	-5883611.0	131667.0
5	18	4	30	211	243.0	-160024.0	-5887559.0	135121.0
5	18	4	30	211	245.0	-168368.0	-5891359.0	139643.0
5	18	4	30	245	246.0	-172357.0	-5890715.0	140789.0
5	18	4	30	245	247.0	-176078.0	-5892469.0	143353.0
5	18	4	30	246	248.0	-179794.0	-5891725.0	138506.0
5	18	4	30	247	249.0	-184511.0	-5891401.0	133773.0
5	18	4	30	248	250.0	-186986.0	-5891324.0	127885.0
5	18	4	30	248	251.0	-189034.0	-5890031.0	129229.0
5	18	4	30	249	252.0	-191236.0	-5889546.0	131546.0
5	18	4	30	250	253.0	-193103.0	-5891254.0	134399.0
5	18	4	30	251	254.0	-195157.0	-5896875.0	135886.0
5	18	4	30	251	255.0	-196142.0	-5902869.0	137693.0
5	18	4	30	252	0.0	-196172.0	-5896334.0	139462.0
5	18	4	30	253	1.0	-196754.0	-5893756.0	141069.0
5	18	4	30	254	2.0	-198556.0	-5891812.0	137386.0
5	18	4	30	254	3.0	-199462.0	-5890306.0	132816.0
5	18	4	30	255	4.0	-199107.0	-5887396.0	129599.0
5	18	4	30	256	12.0	-168695.0	-5904775.0	134599.0
5	18	4	30	256	13.0	-163439.0	-5897011.0	129788.0
5	18	4	30	257	14.0	-158719.0	-5890001.0	126253.0
5	18	4	30	258	15.0	-155005.0	-5889299.0	126688.0
5	18	4	30	258	16.0	-151935.0	-5891956.0	128856.0
5	18	4	30	259	17.0	-148823.0	-5891934.0	130928.0
5	18	4	30	289	18.0	-145821.0	-5894621.0	132439.0
5	18	4	30	290	19.0	-143133.0	-5900539.0	133876.0
5	18	4	30	291	20.0	-139601.0	-5903134.0	134957.0
5	18	4	30	291	21.0	-136270.0	-5906491.0	136794.0
5	18	4	30	292	22.0	-133767.0	-5907879.0	131776.0
5	18	4	30	293	23.0	-131966.0	-5905586.0	129375.0
5	18	4	30	294	24.0	-130277.0	-5895619.0	128205.0
5	18	4	30	295	25.0	-128603.0	-5890758.0	129859.0
5	18	4	30	295	26.0	-127074.0	-5891499.0	134123.0
5	18	4	30	296	27.0	-125140.0	-5893043.0	139181.0
5	18	4	30	297	28.0	-122685.0	-5892112.0	143831.0
5	18	4	30	298	29.0	-119891.0	-5892930.0	146764.0
5	18	4	30	298	30.0	-116901.0	-5897723.0	149852.0
5	18	4	30	299	31.0	-113836.0	-5895373.0	152124.0
5	18	4	30	300	32.0	-110823.0	-5890784.0	149464.0
5	18	4	30	300	34.0	-107146.0	-5876952.0	144530.0
5	18	4	30	301	35.0	-106144.0	-5879532.0	146003.0
5	18	4	30	302	36.0	-106387.0	-5883877.0	148659.0
5	18	4	30	302	37.0	-107698.0	-5888982.0	150003.0
5	18	4	30	303	38.0	-109560.0	-5890882.0	152489.0
5	18	4	30	304	39.0	-112136.0	-5887413.0	154431.0
5	18	4	30	334	40.0	-115760.0	-5890009.0	156223.0
5	18	4	30	335	41.0	-120534.0	-5891813.0	157008.0
5	18	4	30	336	42.0	-125746.0	-5888310.0	153568.0
5	18	4	30	337	43.0	-131577.0	-5890476.0	150191.0
5	18	4	30	337	44.0	-137454.0	-5892589.0	150003.0
5	18	4	30	338	45.0	-143653.0	-5897088.0	150788.0
5	18	4	30	338	46.0	-150182.0	-5895514.0	152265.0
5	18	4	30	339	47.0	-156899.0	-5892683.0	154735.0
5	18	4	30	340	48.0	-164300.0	-5893567.0	157129.0
5	18	4	30	340	49.0	-172354.0	-5892979.0	157732.0
5	18	4	30	341	50.0	-180863.0	-5892991.0	159414.0
5	18	4	30	342	51.0	-189832.0	-5890015.0	159360.0
5	18	4	30	342	52.0	-199074.0	-5886484.0	157054.0
5	18	4	30	343	53.0	-208204.0	-5889962.0	152218.0
5	18	4	30	344	54.0	-217237.0	-5891309.0	151683.0
5	18	4	30	344	56.0	-233356.0	-5894602.0	156054.0
5	18	4	30	345	57.0	-240522.0	-5893281.0	158175.0
5	18	4	30	346	58.0	-247162.0	-5892959.0	159708.0
5	18	4	30	347	59.0	-253169.0	-5892621.0	160855.0
5	18	4	30	347	60.0	-258831.0	-5891938.0	162814.0
5	18	4	30	348	61.0	-263835.0	-5893182.0	161354.0
5	18	4	30	348	62.0	-268246.0	-5893418.0	158329.0
5	18	4	30	378	63.0	-271398.0	-5888708.0	153588.0
5	18	4	30	401	64.0	-273649.0	-5886000.0	153747.0
5	18	4	30	401	65.0	-274591.0	-5891173.0	153159.0
5	18	4	30	402	66.0	-274139.0	-5894956.0	154990.0
5	18	4	30	402	67.0	-272266.0	-5894445.0	157066.0
5	18	4	30	403	68.0	-269632.0	-5892245.0	157293.0
5	18	4	30	404	69.0	-266294.0	-5891502.0	155886.0
5	18	4	30	404	70.0	-261101.0	-5892886.0	156573.0
5	18	4	30	439	71.0	-253854.0	-5892566.0	154428.0
5	18	4	30	439	72.0	-245576.0	-5891632.0	151112.0
5	18	4	30	440	73.0	-235924.0	-5892021.0	145342.0
5	18	4	30	440	74.0	-225344.0	-5891632.0	144657.0
5	18	4	30	441	75.0	-214687.0	-5885330.0	146373.0
5	18	4	30	441	76.0	-203564.0	-5884056.0	147463.0
5	18	4	30	442	77.0	-192357.0	-5890684.0	146574.0
5	18	4	30	443	79.0	-169927.0	-5891830.0	145615.0
5	18	4	30	443	80.0	-158998.0	-5891624.0	146757.0
5	18	4	30	444	81.0	-147504.0	-5892091.0	145408.0
5	18	4	30	444	82.0	-135960.0	-5891360.0	143948.0
5	18	4	30	445	83.0	-124906.0	-5890857.0	140448.0
5	18	4	30	445	84.0	-114264.0	-5890629.0	139499.0
5	18	4	30	446	85.0	-103849.0	-5891537.0	137733.0
5	18	4	30	446	86.0	-94607.0	-5892962.0	137878.0
5	18	4	30	447	101.0	-115302.0	-5892089.0	121637.0
5	18	4	30	447	102.0	-125582.0	-5892179.0	118728.0
5	18	4	30	448	103.0	-136187.0	-5891848.0	116584.0
5	18	4	30	448	104.0	-146131.0	-5890048.0	113771.0
5	18	4	30	449	105.0	-155426.0	-5891044.0	109968.0
5	18	4	30	450	106.0	-163736.0	-5892750.0	105995.0
5	18	4	30	450	107.0	-171432.0	-5889345.0	102495.0
5	18	4	30	515	108.0	-178030.0	-5895435.0	100012.0
5	18	4	30	516	109.0	-183637.0	-5899468.0	100218.0
5	18	4	30	517	110.0	-187739.0	-5902106.0	103671.0
5	18	4	30	517	111.0	-190355.0	-5903206.0	104273.0
5	18	4	30	518	112.0	-191021.0	-5902717.0	103857.0
5	18	4	30	518	113.0	-191077.0	-5898956.0	101264.0
5	18	4	30	519	114.0	-191636.0	-5894477.0	103180.0
5	18	4	30	519	115.0	-193208.0	-5891829.0	108253.0
5	18	4	30	520	116.0	-196134.0	-5894649.0	113779.0
5	18	4	30	521	117.0	-200432.0	-5893041.0	119858.0
5	18	4	30	521	118.0	-205339.0	-5892246.0	127841.0
5	18	4	30	522	119.0	-210872.0	-5892619.0	134192.0
5	18	4	30	522	120.0	-215984.0	-5893444.0	137667.0
5	18	4	30	523	121.0	-220000.0	-5892600.0	136946.0
5	18	4	30	523	122.0	-222547.0	-5892589.0	136125.0
5	18	4	30	524	146.0	-206484.0	-5886858.0	119180.0
5	18	4	30	525	147.0	-191822.0	-5891044.0	119341.0
5	18	4	30	525	148.0	-172631.0	-5892619.0	120500.0
5	18	4	30	526	149.0	-153133.0	-5892432.0	121204.0
5	18	4	30	526	150.0	-133587.0	-5892107.0	121568.0
5	18	4	30	527	151.0	-116713.0	-5891564.0	120592.0
5	18	4	30	535	152.0	-103728.0	-5892119.0	120718.0
5	18	4	30	560	153.0	-93305.0	-5892826.0	120687.0
5	18	4	30	560	154.0	-84466.0	-5894416.0	120554.0
5	18	4	30	561	155.0	-76562.0	-5894426.0	120219.0
5	18	4	30	562	156.0	-69686.0	-5893588.0	119821.0
5	18	4	30	562	157.0	-63781.0	-5893061.0	120597.0
5	18	4	30	563	158.0	-58676.0	-5892934.0	119991.0
5	18	4	30	563	159.0	-54518.0	-5891391.0	118646.0
5	18	4	30	564	160.0	-50802.0	-5892344.0	118676.0
5	18	4	30	564	161.0	-46494.0	-5891661.0	118046.0
5	18	4	30	565	162.0	-42889.0	-5892011.0	117840.0
5	18	4	30	566	163.0	-40318.0	-5893124.0	116634.0
5	18	4	30	566	164.0	-41124.0	-5892331.0	116678.0
5	18	4	30	567	165.0	-42689.0	-5891242.0	116958.0
5	18	4	30	567	166.0	-44122.0	-5891631.0	117013.0
5	18	4	30	568	167.0	-45077.0	-5890781.0	117272.0
5	18	4	30	569	169.0	-44273.0	-5892574.0	117854.0
5	18	4	30	569	170.0	-44410.0	-5893416.0	117579.0
5	18	4	30	570	171.0	-46492.0	-5892034.0	116913.0
5	18	4	30	570	172.0	-49481.0	-5891721.0	117266.0
5	18	4	30	571	173.0	-52997.0	-5890673.0	116773.0
5	18	4	30	571	174.0	-57597.0	-5892444.0	117268.0
5	18	4	30	604	175.0	-62357.0	-5897946.0	117718.0
5	18	4	30	605	176.0	-66811.0	-5893341.0	117251.0
5	18	4	30	606	177.0	-70086.0	-5891824.0	117103.0
5	18	4	30	606	178.0	-72834.0	-5891439.0	116894.0
5	18	4	30	607	179.0	-75336.0	-5891905.0	116641.0
5	18	4	30	607	180.0	-78026.0	-5892951.0	115656.0
5	18	4	30	608	181.0	-81451.0	-5891154.0	115600.0
5	18	4	30	609	182.0	-85482.0	-5890620.0	115443.0
5	18	4	30	609	183.0	-90127.0	-5890921.0	115414.0
5	18	4	30	610	184.0	-95548.0	-5891816.0	115567.0
5	18	4	30	610	185.0	-101468.0	-5891747.0	115114.0
5	18	4	30	611	186.0	-108074.0	-5891046.0	114966.0
5	18	4	30	612	187.0	-115000.0	-5890657.0	114891.0
5	18	4	30	613	188.0	-122201.0	-5890021.0	114512.0
5	18	4	30	613	189.0	-128180.0	-5883642.0	114181.0
5	18	4	30	614	191.0	-140734.0	-5886849.0	113348.0
5	18	4	30	615	192.0	-146783.0	-5889900.0	112978.0
5	18	4	30	615	193.0	-152387.0	-5891754.0	113221.0
5	18	4	30	616	194.0	-157671.0	-5892339.0	113138.0
5	18	4	30	617	195.0	-162706.0	-5890833.0	113331.0
5	18	4	30	617	196.0	-167040.0	-5891737.0	113456.0
5	18	4	30	618	197.0	-169795.0	-5892791.0	113806.0
5	18	4	30	649	198.0	-171751.0	-5893199.0	114024.0
5	18	4	30	650	199.0	-172114.0	-5894171.0	113968.0
5	18	4	30	650	200.0	-170731.0	-5893816.0	113062.0
5	18	4	30	651	201.0	-167949.0	-5889456.0	112873.0
5	18	4	30	652	202.0	-165293.0	-5890282.0	113396.0
5	18	4	30	652	203.0	-162153.0	-5891081.0	113181.0
5	18	4	30	653	204.0	-158144.0	-5890435.0	113105.0
5	18	4	30	653	205.0	-154969.0	-5889706.0	112746.0
5	18	4	30	654	206.0	-152222.0	-5890336.0	113083.0
5	18	4	30	654	207.0	-149913.0	-5890943.0	113100.0
5	18	4	30	655	208.0	-147496.0	-5890538.0	113126.0
5	18	4	30	656	209.0	-144809.0	-5887697.0	113716.0
5	18	4	30	656	210.0	-141432.0	-5881811.0	113810.0
5	18	4	30	657	211.0	-139667.0	-5885774.0	114533.0
5	18	4	30	657	212.0	-134887.0	-5889206.0	114863.0
5	18	4	30	658	214.0	-129008.0	-5891083.0	116044.0
5	18	4	30	666	215.0	-126465.0	-5890348.0	116752.0
5	18	4	30	667	216.0	-124843.0	-5890882.0	116940.0
5	18	4	30	667	217.0	-124451.0	-5890652.0	116723.0
5	18	4	30	668	218.0	-124946.0	-5889624.0	116986.0
5	18	4	30	668	219.0	-126556.0	-5891420.0	118459.0
5	18	4	30	741	220.0	-127056.0	-5892109.0	118621.0
5	18	4	30	742	221.0	-127863.0	-5890934.0	118827.0
5	18	4	30	744	222.0	-127120.0	-5889865.0	119092.0
5	18	4	30	745	223.0	-129646.0	-5887631.0	120254.0
5	18	4	30	746	224.0	-130727.0	-5890083.0	121147.0
5	18	4	30	747	225.0	-134184.0	-5890708.0	121374.0
5	18	4	30	749	226.0	-139091.0	-5890012.0	121686.0
5	18	4	30	749	227.0	-145422.0	-5890685.0	122648.0
5	18	4	30	750	228.0	-154476.0	-5890099.0	123644.0
5	18	4	30	750	229.0	-166457.0	-5889988.0	124481.0
5	18	4	30	751	230.0	-178100.0	-5888925.0	124832.0
5	18	4	30	751	231.0	-174299.0	-5885808.0	125321.0
5	18	4	30	752	232.0	-180999.0	-5884652.0	126494.0
5	18	4	30	753	233.0	-190794.0	-5880944.0	127682.0
5	18	4	30	753	234.0	-194733.0	-5875314.0	129250.0
5	18	4	30	754	2.0	-219837.0	-5860448.0	152933.0
5	18	4	30	754	3.0	-209728.0	-5862126.0	154106.0
5	18	4	30	755	4.0	-200578.0	-5865125.0	155208.0
5	18	4	30	755	5.0	-191795.0	-5868555.0	156994.0
5	18	4	30	756	6.0	-183221.0	-5870972.0	157796.0
5	18	4	30	756	7.0	-174577.0	-5873966.0	159632.0
5	18	4	30	757	8.0	-165476.0	-5878611.0	161735.0
5	18	4	30	784	9.0	-156096.0	-5883509.0	162704.0
5	18	4	30	785	10.0	-146154.0	-5887837.0	163625.0
5	18	4	30	786	11.0	-136601.0	-5890257.0	164702.0
5	18	4	30	786	12.0	-127893.0	-5889484.0	165939.0
5	18	4	30	787	13.0	-118341.0	-5888236.0	166975.0
5	18	4	30	787	14.0	-107624.0	-5886981.0	167813.0
5	18	4	30	788	15.0	-99307.0	-5878138.0	169237.0
5	18	4	30	789	16.0	-99333.0	-5864200.0	170384.0
5	18	4	30	789	17.0	-107133.0	-5862007.0	171583.0
5	18	4	30	790	18.0	-118021.0	-5862742.0	172200.0
5	18	4	30	790	19.0	-130158.0	-5864998.0	173524.0
5	18	4	30	791	20.0	-142514.0	-5866806.0	174754.0
5	18	4	30	792	21.0	-153779.0	-5868491.0	175566.0
5	18	4	30	792	22.0	-163921.0	-5871042.0	175861.0
5	18	4	30	793	23.0	-173685.0	-5879886.0	176744.0
5	18	4	30	793	25.0	-186185.0	-5886335.0	178322.0
5	18	4	30	794	26.0	-188737.0	-5886955.0	178994.0
5	18	4	30	795	27.0	-189031.0	-5884404.0	180173.0
5	18	4	30	795	28.0	-187997.0	-5872578.0	182547.0
5	18	4	30	796	29.0	-185551.0	-5870989.0	183266.0
5	18	4	30	796	30.0	-181481.0	-5872937.0	183129.0
5	18	4	30	829	31.0	-176266.0	-5876186.0	183216.0
5	18	4	30	830	32.0	-171191.0	-5880390.0	183538.0
5	18	4	30	830	33.0	-166682.0	-5885441.0	184177.0
5	18	4	30	831	34.0	-162689.0	-5888950.0	183743.0
5	18	4	30	831	35.0	-158497.0	-5890174.0	184339.0
5	18	4	30	832	36.0	-154009.0	-5889803.0	185184.0
5	18	4	30	833	37.0	-149254.0	-5890684.0	186499.0
5	18	4	30	834	38.0	-144519.0	-5889097.0	187258.0
5	18	4	30	834	39.0	-141109.0	-5889694.0	187577.0
5	18	4	30	835	40.0	-139342.0	-5889926.0	187834.0
5	18	4	30	836	41.0	-138332.0	-5889861.0	188297.0
5	18	4	30	836	42.0	-137322.0	-5889612.0	187623.0
5	18	4	30	837	43.0	-135902.0	-5890210.0	187214.0
5	18	4	30	837	44.0	-133924.0	-5891640.0	187378.0
5	18	4	30	838	45.0	-131021.0	-5890115.0	187714.0
5	18	4	30	838	47.0	-128289.0	-5886638.0	189438.0
5	18	4	30	839	48.0	-127979.0	-5889690.0	189922.0
5	18	4	30	840	49.0	-128064.0	-5890914.0	189906.0
5	18	4	30	840	50.0	-128604.0	-5891159.0	189573.0
5	18	4	30	841	51.0	-129067.0	-5890094.0	188068.0
5	18	4	30	841	52.0	-129124.0	-5888911.0	185933.0
5	18	4	30	842	53.0	-128967.0	-5891697.0	182207.0
5	18	4	30	874	54.0	-129054.0	-5889761.0	178306.0
5	18	4	30	875	55.0	-130171.0	-5885015.0	174552.0
5	18	4	30	875	56.0	-132276.0	-5887509.0	169957.0
5	18	4	30	876	57.0	-135222.0	-5890214.0	163638.0
5	18	4	30	877	58.0	-138719.0	-5891763.0	158310.0
5	18	4	30	877	59.0	-142794.0	-5890254.0	154588.0
5	18	4	30	878	60.0	-147131.0	-5889357.0	151473.0
5	18	4	30	879	61.0	-151812.0	-5891584.0	148473.0
5	18	4	30	879	62.0	-156799.0	-5892192.0	145423.0
5	18	4	30	880	63.0	-161202.0	-5892461.0	142945.0
5	18	4	30	880	64.0	-165366.0	-5891151.0	140128.0
5	18	4	30	881	65.0	-169677.0	-5890639.0	137531.0
5	18	4	30	882	66.0	-173764.0	-5891839.0	135732.0
5	18	4	30	883	67.0	-177742.0	-5891102.0	134411.0
5	18	4	30	883	68.0	-181451.0	-5891076.0	133304.0
5	18	4	30	884	70.0	-186855.0	-5891067.0	130942.0
5	18	4	30	885	71.0	-187856.0	-5890657.0	129420.0
5	18	4	30	885	72.0	-187817.0	-5891381.0	128191.0
5	18	4	30	886	73.0	-186679.0	-5892604.0	126864.0
5	18	4	30	886	74.0	-184111.0	-5892791.0	125803.0
5	18	4	30	887	75.0	-180746.0	-5891931.0	124694.0
5	18	4	30	966	76.0	-176847.0	-5890416.0	122556.0
5	18	4	30	967	77.0	-172271.0	-5889996.0	122116.0
5	18	4	30	967	78.0	-167764.0	-5891232.0	122099.0
5	18	4	30	968	79.0	-163361.0	-5892419.0	121981.0
5	18	4	30	969	80.0	-160454.0	-5891820.0	121239.0
5	18	4	30	969	81.0	-156571.0	-5891284.0	120879.0
5	18	4	30	970	82.0	-154101.0	-5890020.0	121043.0
5	18	4	30	971	83.0	-151753.0	-5889674.0	119598.0
5	18	4	30	971	84.0	-149102.0	-5887959.0	118038.0
5	18	4	30	972	85.0	-145636.0	-5881847.0	117068.0
5	18	4	30	972	86.0	-140501.0	-5880868.0	116598.0
5	18	4	30	973	87.0	-137326.0	-5880799.0	116098.0
5	18	4	30	974	88.0	-134254.0	-5882465.0	115298.0
5	18	4	30	974	89.0	-131213.0	-5883021.0	114974.0
5	18	4	30	975	90.0	-130909.0	-5883942.0	114763.0
5	18	4	30	975	115.0	-162063.0	-5877310.0	84266.0
5	18	4	30	976	116.0	-163165.0	-5879149.0	83136.0
5	18	4	30	976	117.0	-165506.0	-5882197.0	82284.0
5	18	4	30	977	118.0	-168010.0	-5884684.0	82001.0
5	18	4	30	978	119.0	-170814.0	-5887801.0	81978.0
5	18	4	30	978	120.0	-172807.0	-5890870.0	81668.0
5	18	4	31	9	121.0	-173176.0	-5890162.0	81253.0
5	18	4	31	10	122.0	-173950.0	-5890624.0	81629.0
5	18	4	31	11	123.0	-177866.0	-5891078.0	80107.0
5	18	4	31	11	124.0	-181846.0	-5890369.0	77713.0
5	18	4	31	12	125.0	-183744.0	-5890693.0	72628.0
5	18	4	31	13	126.0	-184226.0	-5889910.0	66338.0
5	18	4	31	13	127.0	-184291.0	-5886426.0	61539.0
5	18	4	31	14	128.0	-186345.0	-5883453.0	55351.0
5	18	4	31	14	129.0	-191251.0	-5888312.0	41254.0
5	18	4	31	15	130.0	-196288.0	-5890444.0	31484.0
5	18	4	31	16	131.0	-204291.0	-5891219.0	24863.0
5	18	4	31	16	132.0	-207148.0	-5891784.0	21279.0
5	18	4	31	17	133.0	-205193.0	-5891367.0	15271.0
5	18	4	31	18	134.0	-204252.0	-5890157.0	6095.0
5	18	4	31	18	135.0	-209277.0	-5889123.0	-4573.0
5	18	4	31	19	137.0	-190184.0	-5886290.0	-21459.0
5	18	4	31	19	138.0	-187023.0	-5888766.0	-32084.0
5	18	4	31	20	139.0	-179462.0	-5891320.0	-57727.0
5	18	4	31	21	140.0	-176067.0	-5892391.0	-116315.0
5	18	4	31	21	141.0	-170068.0	-5892663.0	-182479.0
5	18	4	31	22	142.0	-163090.0	-5892069.0	-256050.0
5	18	4	31	22	143.0	-157026.0	-5891436.0	-487477.0
5	18	4	31	54	144.0	-155734.0	-5889980.0	-917016.0
5	18	4	31	55	145.0	-161060.0	-5891667.0	-1260170.0
5	18	4	31	56	146.0	-161193.0	-5895840.0	-1552645.0
5	18	4	31	56	147.0	-157184.0	-5889999.0	-1787049.0
5	18	4	31	57	148.0	-160431.0	-5889373.0	-1918607.0
5	18	4	31	57	149.0	-155244.0	-5890626.0	-1955101.0
5	18	4	31	58	150.0	-151749.0	-5891527.0	-1918184.0
5	18	4	31	59	151.0	-153600.0	-5884542.0	-1846329.0
5	18	4	31	59	152.0	-153242.0	-5877625.0	-1723867.0
5	18	4	31	60	153.0	-159360.0	-5877137.0	-1664642.0
5	18	4	31	61	154.0	-163801.0	-5870012.0	-1828718.0
5	18	4	31	61	155.0	-166509.0	-5863507.0	-2164092.0
5	18	4	31	62	156.0	-170597.0	-5862444.0	-2519669.0
5	18	4	31	62	157.0	-173223.0	-5863676.0	-2750416.0
5	18	4	31	63	158.0	-178737.0	-5867024.0	-2848811.0
5	18	4	31	64	160.0	-190902.0	-5877851.0	-2863428.0
5	18	4	31	65	161.0	-193799.0	-5883227.0	-2813406.0
5	18	4	31	66	162.0	-202260.0	-5889701.0	-2680166.0
5	18	4	31	66	163.0	-211010.0	-5892716.0	-2599523.0
5	18	4	31	67	164.0	-219028.0	-5890171.0	-2705839.0
5	18	4	31	67	165.0	-218599.0	-5885769.0	-3032971.0
5	18	4	31	100	166.0	-215057.0	-5883972.0	-3371862.0
5	18	4	31	101	167.0	-212843.0	-5883242.0	-3554951.0
5	18	4	31	102	168.0	-212824.0	-5883697.0	-3553941.0
5	18	4	31	103	169.0	-213823.0	-5885102.0	-3527557.0
5	18	4	31	103	170.0	-214486.0	-5887909.0	-3427749.0
5	18	4	31	104	171.0	-214823.0	-5889427.0	-3334626.0
5	18	4	31	104	172.0	-216111.0	-5892224.0	-3176731.0
5	18	4	31	105	173.0	-216448.0	-5891519.0	-3133979.0
5	18	4	31	106	174.0	-218866.0	-5889087.0	-3315960.0
5	18	4	31	106	175.0	-221994.0	-5885929.0	-3653905.0
5	18	4	31	107	176.0	-218660.0	-5885826.0	-3991115.0
5	18	4	31	108	177.0	-215158.0	-5886053.0	-4224250.0
5	18	4	31	108	178.0	-212226.0	-5883198.0	-4296646.0
5	18	4	31	109	179.0	-208767.0	-5885959.0	-4271321.0
5	18	4	31	110	180.0	-205112.0	-5888640.0	-4199696.0
5	18	4	31	110	182.0	-197722.0	-5891049.0	-3905734.0
5	18	4	31	111	183.0	-194428.0	-5889165.0	-3851982.0
5	18	4	31	111	184.0	-191036.0	-5884277.0	-4022228.0
5	18	4	31	112	185.0	-187392.0	-5881374.0	-4355904.0
5	18	4	31	113	186.0	-183524.0	-5878821.0	-4667104.0
5	18	4	31	113	187.0	-179318.0	-5876999.0	-4866652.0
5	18	4	31	236	188.0	-175066.0	-5878961.0	-4904661.0
5	18	4	31	237	189.0	-170550.0	-5879873.0	-4860719.0
5	18	4	31	245	190.0	-165076.0	-5880242.0	-4755916.0
5	18	4	31	246	191.0	-158791.0	-5885153.0	-4612536.0
5	18	4	31	246	192.0	-151907.0	-5888731.0	-4374538.0
5	18	4	31	247	193.0	-145353.0	-5890609.0	-4300635.0
5	18	4	31	248	194.0	-139179.0	-5891271.0	-4451699.0
5	18	4	31	248	195.0	-133451.0	-5891088.0	-4763331.0
5	18	4	31	249	196.0	-128522.0	-5889151.0	-5038259.0
5	18	4	31	249	197.0	-124266.0	-5882212.0	-5197766.0
5	18	4	31	250	198.0	-120993.0	-5881029.0	-5191648.0
5	18	4	31	250	199.0	-118568.0	-5888547.0	-5112347.0
5	18	4	31	251	200.0	-117118.0	-5891430.0	-4975181.0
5	18	4	31	251	201.0	-116928.0	-5892789.0	-4798119.0
5	18	4	31	252	202.0	-117584.0	-5893821.0	-4527954.0
5	18	4	31	253	249.0	-125037.0	-5893359.0	-5155928.0
5	18	4	31	253	250.0	-130222.0	-5891563.0	-4924772.0
5	18	4	31	254	251.0	-135862.0	-5893006.0	-4616256.0
5	18	4	31	254	252.0	-140693.0	-5894406.0	-4265109.0
5	18	4	31	255	253.0	-145647.0	-5891077.0	-4246057.0
5	18	4	31	255	254.0	-151036.0	-5888392.0	-4494568.0
5	18	4	31	256	255.0	-157740.0	-5885760.0	-4887138.0
5	18	4	31	280	0.0	-166039.0	-5887720.0	-5165951.0
5	18	4	31	280	1.0	-169576.0	-5887993.0	-5241474.0
5	18	4	31	281	2.0	-176317.0	-5891342.0	-5105492.0
5	18	4	31	282	3.0	-183871.0	-5892550.0	-4937913.0
5	18	4	31	283	4.0	-186852.0	-5891989.0	-4727916.0
5	18	4	31	283	5.0	-189277.0	-5897672.0	-4417477.0
5	18	4	31	284	6.0	-190591.0	-5898250.0	-4060464.0
5	18	4	31	285	7.0	-191653.0	-5892198.0	-4037319.0
5	18	4	31	285	8.0	-193032.0	-5887973.0	-4339597.0
5	18	4	31	286	9.0	-195831.0	-5886339.0	-4777392.0
5	18	4	31	287	10.0	-197338.0	-5887447.0	-5080496.0
5	18	4	31	287	11.0	-197586.0	-5888434.0	-5174179.0
5	18	4	31	288	12.0	-195416.0	-5891117.0	-5074009.0
5	18	4	31	289	13.0	-193022.0	-5892004.0	-4897244.0
5	18	4	31	289	14.0	-192092.0	-5892562.0	-4672861.0
5	18	4	31	290	16.0	-190847.0	-5890952.0	-4017079.0
5	18	4	31	291	17.0	-188814.0	-5888767.0	-4094842.0
5	18	4	31	291	18.0	-186183.0	-5886340.0	-4470816.0
5	18	4	31	292	19.0	-181147.0	-5884598.0	-4947859.0
5	18	4	31	292	20.0	-175912.0	-5885219.0	-5267026.0
5	18	4	31	293	21.0	-171664.0	-5888702.0	-5369627.0
5	18	4	31	325	22.0	-167771.0	-5891352.0	-5282728.0
5	18	4	31	326	23.0	-164689.0	-5892259.0	-5108311.0
5	18	4	31	326	24.0	-161880.0	-5892624.0	-4878334.0
5	18	4	31	327	25.0	-159857.0	-5893106.0	-4521685.0
5	18	4	31	328	26.0	-157607.0	-5891435.0	-4201388.0
5	18	4	31	329	27.0	-156503.0	-5889822.0	-4298315.0
5	18	4	31	329	28.0	-156315.0	-5887546.0	-4700281.0
5	18	4	31	330	29.0	-155821.0	-5885476.0	-5186745.0
5	18	4	31	331	30.0	-157285.0	-5886916.0	-5498849.0
5	18	4	31	331	31.0	-161096.0	-5890484.0	-5569684.0
5	18	4	31	332	32.0	-165288.0	-5892481.0	-5451735.0
5	18	4	31	332	33.0	-167552.0	-5892159.0	-5243837.0
5	18	4	31	333	34.0	-168500.0	-5891539.0	-4981273.0
5	18	4	31	334	35.0	-167272.0	-5893578.0	-4576641.0
5	18	4	31	334	36.0	-168496.0	-5892812.0	-4250907.0
5	18	4	31	335	38.0	-174160.0	-5888386.0	-4797774.0
5	18	4	31	336	39.0	-183144.0	-5887501.0	-5284145.0
5	18	4	31	337	40.0	-203417.0	-5889819.0	-5580786.0
5	18	4	31	337	41.0	-199075.0	-5891523.0	-5617792.0
5	18	4	31	338	42.0	-184307.0	-5891421.0	-5480892.0
5	18	4	31	339	43.0	-174939.0	-5892111.0	-5249960.0
5	18	4	31	339	44.0	-167739.0	-5893983.0	-4956946.0
5	18	4	31	371	45.0	-162376.0	-5896718.0	-4492517.0
5	18	4	31	371	46.0	-158633.0	-5894071.0	-4166107.0
5	18	4	31	372	47.0	-156032.0	-5889986.0	-4313462.0
5	18	4	31	373	48.0	-153739.0	-5885631.0	-4795206.0
5	18	4	31	373	49.0	-151954.0	-5884468.0	-5303664.0
5	18	4	31	374	50.0	-150571.0	-5887946.0	-5616081.0
5	18	4	31	375	51.0	-149852.0	-5890997.0	-5646504.0
5	18	4	31	375	52.0	-149824.0	-5891820.0	-5503298.0
5	18	4	31	376	53.0	-150479.0	-5894188.0	-5266251.0
5	18	4	31	377	54.0	-151474.0	-5893471.0	-4975616.0
5	18	4	31	377	55.0	-152646.0	-5892921.0	-4504057.0
5	18	4	31	378	56.0	-154008.0	-5892367.0	-4215574.0
5	18	4	31	379	57.0	-155591.0	-5891931.0	-4406669.0
5	18	4	31	379	58.0	-157077.0	-5890103.0	-4938196.0
5	18	4	31	380	59.0	-158662.0	-5889350.0	-5468386.0
5	18	4	31	381	61.0	-161881.0	-5890032.0	-5813337.0
5	18	4	31	381	62.0	-163502.0	-5891733.0	-5681333.0
5	18	4	31	382	63.0	-164916.0	-5891479.0	-5453833.0
5	18	4	31	382	64.0	-166134.0	-5891624.0	-5181482.0
5	18	4	31	383	65.0	-167317.0	-5892434.0	-4718317.0
5	18	4	31	383	66.0	-168677.0	-5891361.0	-4483332.0
5	18	4	31	461	67.0	-170119.0	-5891036.0	-4731741.0
5	18	4	31	462	68.0	-171542.0	-5886908.0	-5311286.0
5	18	4	31	463	69.0	-172806.0	-5882402.0	-5857887.0
5	18	4	31	465	70.0	-173992.0	-5878886.0	-6189077.0
5	18	4	31	465	71.0	-175036.0	-5872294.0	-6225372.0
5	18	4	31	466	72.0	-175907.0	-5877512.0	-6103104.0
5	18	4	31	467	73.0	-176459.0	-5883670.0	-5883175.0
5	18	4	31	467	74.0	-176780.0	-5890979.0	-5614147.0
5	18	4	31	468	75.0	-176896.0	-5894523.0	-5151455.0
5	18	4	31	469	76.0	-176650.0	-5892586.0	-4957824.0
5	18	4	31	470	77.0	-176127.0	-5890491.0	-5228681.0
5	18	4	31	470	78.0	-174666.0	-5888280.0	-5810028.0
5	18	4	31	471	79.0	-175821.0	-5886612.0	-6326211.0
5	18	4	31	471	80.0	-175171.0	-5886762.0	-6621805.0
5	18	4	31	472	81.0	-174074.0	-5889221.0	-6616839.0
5	18	4	31	473	106.0	-146961.0	-5906007.0	-5057869.0
5	18	4	31	473	107.0	-143071.0	-5897113.0	-5289771.0
5	18	4	31	474	108.0	-139866.0	-5890148.0	-5717969.0
5	18	4	31	474	109.0	-138217.0	-5890200.0	-5928631.0
5	18	4	31	475	110.0	-137738.0	-5892544.0	-5888646.0
5	18	4	31	476	111.0	-137926.0	-5889482.0	-5562688.0
5	18	4	31	505	112.0	-138574.0	-5888792.0	-5081644.0
5	18	4	31	506	113.0	-139409.0	-5897719.0	-4453044.0
5	18	4	31	507	114.0	-140170.0	-5901294.0	-3801032.0
5	18	4	31	507	115.0	-140967.0	-5903751.0	-3108122.0
5	18	4	31	508	116.0	-141214.0	-5894184.0	-2845691.0
5	18	4	31	509	117.0	-141056.0	-5891108.0	-2943208.0
5	18	4	31	509	118.0	-140995.0	-5883896.0	-3213632.0
5	18	4	31	510	119.0	-141004.0	-5883416.0	-3363549.0
5	18	4	31	511	120.0	-141431.0	-5883849.0	-3375990.0
5	18	4	31	511	121.0	-143132.0	-5889327.0	-3169509.0
5	18	4	31	512	122.0	-145725.0	-5890899.0	-2900825.0
5	18	4	31	513	123.0	-149252.0	-5891461.0	-2546722.0
5	18	4	31	513	124.0	-154534.0	-5884039.0	-2125585.0
5	18	4	31	514	125.0	-161422.0	-5891567.0	-1623971.0
5	18	4	31	514	126.0	-169077.0	-5892754.0	-1429085.0
5	18	4	31	515	128.0	-186039.0	-5888007.0	-1387722.0
5	18	4	31	516	129.0	-194667.0	-5891392.0	-1202754.0
5	18	4	31	517	130.0	-203234.0	-5894275.0	-876247.0
5	18	4	31	517	131.0	-212272.0	-5895887.0	-447210.0
5	18	4	31	518	132.0	-221571.0	-5896746.0	190943.0
5	18	4	31	518	133.0	-230500.0	-5897621.0	1062486.0
5	18	4	31	549	134.0	-238470.0	-5899618.0	1503424.0
5	18	4	31	550	135.0	-245106.0	-5902201.0	1703732.0
5	18	4	31	551	136.0	-250643.0	-5898722.0	1721104.0
5	18	4	31	552	137.0	-256098.0	-5892526.0	1701447.0
5	18	4	31	553	138.0	-260816.0	-5892069.0	1677634.0
5	18	4	31	553	139.0	-264166.0	-5895138.0	1674563.0
5	18	4	31	554	140.0	-265071.0	-5895447.0	1701151.0
5	18	4	31	555	141.0	-263233.0	-5894797.0	1735148.0
5	18	4	31	555	142.0	-259754.0	-5894632.0	1761315.0
5	18	4	31	556	143.0	-253952.0	-5896134.0	1778403.0
5	18	4	31	557	144.0	-246672.0	-5894918.0	1797077.0
5	18	4	31	557	145.0	-237844.0	-5894880.0	1824202.0
5	18	4	31	595	146.0	-227482.0	-5892809.0	1823468.0
5	18	4	31	596	147.0	-215221.0	-5892575.0	1819012.0
5	18	4	31	597	148.0	-203261.0	-5891621.0	1820608.0
5	18	4	31	598	151.0	-157698.0	-5894577.0	1886859.0
5	18	4	31	599	152.0	-143321.0	-5893621.0	1910605.0
5	18	4	31	599	153.0	-128886.0	-5894477.0	1926784.0
5	18	4	31	600	154.0	-114311.0	-5894142.0	1940705.0
5	18	4	31	601	155.0	-100572.0	-5894688.0	1950173.0
5	18	4	31	602	156.0	-86456.0	-5894494.0	1944628.0
5	18	4	31	602	157.0	-73957.0	-5891622.0	1934681.0
5	18	4	31	603	158.0	-63009.0	-5890214.0	1933131.0
5	18	4	31	605	159.0	-53879.0	-5891761.0	1944028.0
5	18	4	31	605	160.0	-45691.0	-5894074.0	1953729.0
5	18	4	31	606	161.0	-39062.0	-5893662.0	1962382.0
5	18	4	31	607	162.0	-35304.0	-5892784.0	1967665.0
5	18	4	31	613	163.0	-33264.0	-5893052.0	1971539.0
5	18	4	31	613	173.0	-99468.0	-5895439.0	1980215.0
5	18	4	31	614	174.0	-113982.0	-5895399.0	1977496.0
5	18	4	31	615	175.0	-127485.0	-5895502.0	1978508.0
5	18	4	31	615	176.0	-139270.0	-5894443.0	1978853.0
5	18	4	31	616	177.0	-148148.0	-5892886.0	1970173.0
5	18	4	31	616	178.0	-154056.0	-5891988.0	1965479.0
5	18	4	31	617	179.0	-158850.0	-5891917.0	1967583.0
5	18	4	31	640	180.0	-162797.0	-5892447.0	1974176.0
5	18	4	31	641	181.0	-165508.0	-5892172.0	1976463.0
5	18	4	31	642	182.0	-167074.0	-5894875.0	1976068.0
5	18	4	31	642	183.0	-165852.0	-5894991.0	1973528.0
5	18	4	31	643	184.0	-161482.0	-5894594.0	1967156.0
5	18	4	31	643	185.0	-155494.0	-5894006.0	1967579.0
5	18	4	31	644	186.0	-146471.0	-5893872.0	1968609.0
5	18	4	31	645	187.0	-135567.0	-5892028.0	1960314.0
5	18	4	31	645	188.0	-123454.0	-5891524.0	1952516.0
5	18	4	31	647	189.0	-110062.0	-5892456.0	1953629.0
5	18	4	31	647	190.0	-100392.0	-5894912.0	1957848.0
5	18	4	31	648	191.0	-90860.0	-5894193.0	1958976.0
5	18	4	31	649	192.0	-84228.0	-5893097.0	1959083.0
5	18	4	31	649	193.0	-81191.0	-5894289.0	1955749.0
5	18	4	31	650	194.0	-81358.0	-5894539.0	1947938.0
5	18	4	31	650	195.0	-79837.0	-5890366.0	1950287.0
5	18	4	31	651	196.0	-79898.0	-5888761.0	1952261.0
5	18	4	31	651	197.0	-82792.0	-5889529.0	1946626.0
5	18	4	31	652	198.0	-91391.0	-5889464.0	1938116.0
5	18	4	31	653	199.0	-95024.0	-5890339.0	1937946.0
5	18	4	31	653	200.0	-85811.0	-5891768.0	1940797.0
5	18	4	31	654	201.0	-79184.0	-5887883.0	1940333.0
5	18	4	31	685	202.0	-78377.0	-5877522.0	1937953.0
5	18	4	31	686	203.0	-83937.0	-5874320.0	1932996.0
5	18	4	31	686	204.0	-85891.0	-5876848.0	1923855.0
5	18	4	31	687	205.0	-93547.0	-5881917.0	1929833.0
5	18	4	31	687	206.0	-105197.0	-5886967.0	1932219.0
5	18	4	31	730	207.0	-108479.0	-5884461.0	1930972.0
5	18	4	31	731	208.0	-122009.0	-5882138.0	1919390.0
5	18	4	31	732	209.0	-139809.0	-5883118.0	1915311.0
5	18	4	31	733	210.0	-156269.0	-5889241.0	1915762.0
5	18	4	31	733	211.0	-170559.0	-5894353.0	1914499.0
5	18	4	31	734	212.0	-183347.0	-5902011.0	1911511.0
5	18	4	31	735	213.0	-185688.0	-5893832.0	1906222.0
5	18	4	31	735	214.0	-202389.0	-5891396.0	1897264.0
5	18	4	31	736	215.0	-209325.0	-5889062.0	1903331.0
5	18	4	31	737	216.0	-218575.0	-5884484.0	1907355.0
5	18	4	31	737	218.0	-233609.0	-5867277.0	1898646.0
5	18	4	31	738	219.0	-234107.0	-5854744.0	1895371.0
5	18	4	31	738	220.0	-243654.0	-5838482.0	1894051.0
5	18	4	31	739	221.0	-248270.0	-5823160.0	1890601.0
5	18	4	31	739	222.0	-246831.0	-5806012.0	1887104.0
5	18	4	31	740	223.0	-249076.0	-5784899.0	1880690.0
5	18	4	31	741	241.0	-211149.0	-5623106.0	1838324.0
5	18	4	31	741	242.0	-219611.0	-5618232.0	1834491.0
5	18	4	31	742	243.0	-223086.0	-5612651.0	1831314.0
5	18	4	31	742	244.0	-223288.0	-5608654.0	1829668.0
5	18	4	31	743	245.0	-225549.0	-5601291.0	1835949.0
5	18	4	31	743	246.0	-223657.0	-5590631.0	1840605.0
5	18	4	31	775	247.0	-221982.0	-5576821.0	1841309.0
5	18	4	31	776	248.0	-221061.0	-5562131.0	1835085.0
5	18	4	31	776	249.0	-219351.0	-5549039.0	1830408.0
5	18	4	31	777	250.0	-217911.0	-5538389.0	1825581.0
5	18	4	31	777	251.0	-216712.0	-5531021.0	1821930.0
5	18	4	31	778	252.0	-215622.0	-5526336.0	1816996.0
5	18	4	31	779	253.0	-215134.0	-5521851.0	1809899.0
5	18	4	31	779	254.0	-215411.0	-5519699.0	1804956.0
5	18	4	31	780	255.0	-216714.0	-5519478.0	1808753.0
5	18	4	31	780	0.0	-219222.0	-5516262.0	1810043.0
5	18	4	31	781	1.0	-223374.0	-5511147.0	1807524.0
5	18	4	31	782	2.0	-228837.0	-5507026.0	1800328.0
5	18	4	31	783	3.0	-235352.0	-5510925.0	1798351.0
5	18	4	31	783	4.0	-244087.0	-5522479.0	1779488.0
5	18	4	31	784	5.0	-254788.0	-5534284.0	1710348.0
5	18	4	31	785	7.0	-280300.0	-5561651.0	1634371.0
5	18	4	31	786	8.0	-295464.0	-5574575.0	1611426.0
5	18	4	31	786	9.0	-311749.0	-5585764.0	1600321.0
5	18	4	31	787	10.0	-328582.0	-5594241.0	1586776.0
5	18	4	31	788	11.0	-345373.0	-5600202.0	1569714.0
5	18	4	31	788	12.0	-361849.0	-5605896.0	1549924.0
5	18	4	31	820	13.0	-378022.0	-5607443.0	1538165.0
5	18	4	31	821	14.0	-394862.0	-5604944.0	1533435.0
5	18	4	31	822	15.0	-411737.0	-5596397.0	1528662.0
5	18	4	31	822	16.0	-425971.0	-5588540.0	1523901.0
5	18	4	31	823	17.0	-438642.0	-5584702.0	1515959.0
5	18	4	31	823	18.0	-450306.0	-5583766.0	1510902.0
5	18	4	31	824	19.0	-460158.0	-5582509.0	1512377.0
5	18	4	31	825	20.0	-462834.0	-5580553.0	1511429.0
5	18	4	31	825	21.0	-463767.0	-5574904.0	1508952.0
5	18	4	31	826	22.0	-460021.0	-5570732.0	1508977.0
5	18	4	31	827	23.0	-454937.0	-5569717.0	1513238.0
5	18	4	31	827	24.0	-454496.0	-5573146.0	1512673.0
5	18	4	31	828	25.0	-450507.0	-5578959.0	1510761.0
5	18	4	31	828	26.0	-441931.0	-5583714.0	1506716.0
5	18	4	31	829	27.0	-430384.0	-5589381.0	1500971.0
5	18	4	31	830	29.0	-388507.0	-5598829.0	1495906.0
5	18	4	31	830	30.0	-359956.0	-5599496.0	1494629.0
5	18	4	31	831	31.0	-329015.0	-5598843.0	1493939.0
5	18	4	31	831	32.0	-288301.0	-5597754.0	1492346.0
5	18	4	31	832	33.0	-238099.0	-5599313.0	1489756.0
5	18	4	31	832	34.0	-181312.0	-5604465.0	1486931.0
5	18	4	31	833	35.0	-121866.0	-5602614.0	1484715.0
5	18	4	31	865	36.0	-63284.0	-5601877.0	1481575.0
5	18	4	31	865	37.0	-16606.0	-5605339.0	1478727.0
5	18	4	31	866	38.0	-1019.0	-5610454.0	1477893.0
5	18	4	31	867	39.0	12659.0	-5612742.0	1477938.0
5	18	4	31	875	40.0	44531.0	-5610908.0	1481018.0
5	18	4	31	875	41.0	74391.0	-5607914.0	1482419.0
5	18	4	31	876	42.0	100224.0	-5607533.0	1485163.0
5	18	4	31	877	43.0	125316.0	-5604531.0	1486524.0
5	18	4	31	877	44.0	144776.0	-5601662.0	1488132.0
5	18	4	31	878	45.0	157098.0	-5604612.0	1490179.0
5	18	4	31	879	46.0	161790.0	-5608312.0	1492735.0
5	18	4	31	879	47.0	162160.0	-5610626.0	1494985.0
5	18	4	31	880	48.0	160078.0	-5614174.0	1495791.0
5	18	4	31	911	49.0	153071.0	-5617154.0	1498008.0
5	18	4	31	955	52.0	118499.0	-5626269.0	1507960.0
5	18	4	31	956	53.0	102639.0	-5630701.0	1510302.0
5	18	4	31	957	54.0	85424.0	-5637446.0	1512223.0
5	18	4	31	957	55.0	67368.0	-5646109.0	1514689.0
5	18	4	31	958	56.0	48639.0	-5657631.0	1516676.0
5	18	4	31	958	57.0	28393.0	-5668326.0	1518534.0
5	18	4	31	959	58.0	8019.0	-5668390.0	1519974.0
5	18	4	31	960	59.0	-801.0	-5667731.0	1521699.0
5	18	4	31	960	60.0	-1331.0	-5668054.0	1524313.0
5	18	4	31	961	61.0	-1396.0	-5666618.0	1528389.0
5	18	4	31	962	62.0	-1506.0	-5665856.0	1531230.0
5	18	4	31	962	63.0	-4421.0	-5666782.0	1534484.0
5	18	4	31	963	64.0	-14936.0	-5671711.0	1537333.0
5	18	4	31	963	65.0	-27697.0	-5674857.0	1539676.0
5	18	4	31	964	74.0	-44310.0	-5709170.0	1576211.0
5	18	4	31	965	97.0	-146862.0	-5896181.0	1655566.0
5	18	4	31	965	98.0	-159619.0	-5892519.0	1658275.0
5	18	4	31	966	99.0	-171860.0	-5891161.0	1662458.0
5	18	4	31	966	100.0	-179667.0	-5890841.0	1667606.0
5	18	4	31	967	101.0	-191714.0	-5890836.0	1670493.0
5	18	4	31	967	102.0	-208893.0	-5888829.0	1673858.0
5	18	4	32	0	103.0	-224069.0	-5889267.0	1676514.0
5	18	4	32	1	104.0	-225909.0	-5890148.0	1678421.0
5	18	4	32	2	105.0	-231265.0	-5890594.0	1680074.0
5	18	4	32	2	106.0	-240865.0	-5887037.0	1681497.0
5	18	4	32	3	107.0	-255992.0	-5883861.0	1681745.0
5	18	4	32	4	108.0	-276134.0	-5878469.0	1683351.0
5	18	4	32	4	109.0	-277067.0	-5871636.0	1687881.0
5	18	4	32	5	110.0	-285574.0	-5873611.0	1691976.0
5	18	4	32	6	111.0	-286260.0	-5877461.0	1695091.0
5	18	4	32	6	112.0	-294570.0	-5879059.0	1697267.0
5	18	4	32	7	113.0	-302973.0	-5880450.0	1700260.0
5	18	4	32	7	114.0	-309514.0	-5879238.0	1702654.0
5	18	4	32	8	115.0	-310135.0	-5879937.0	1704564.0
5	18	4	32	9	116.0	-310824.0	-5880981.0	1706205.0
5	18	4	32	9	117.0	-309632.0	-5880817.0	1707058.0
5	18	4	32	10	119.0	-312211.0	-5868519.0	1712813.0
5	18	4	32	10	120.0	-308602.0	-5861580.0	1717366.0
5	18	4	32	11	121.0	-308399.0	-5853587.0	1719056.0
5	18	4	32	12	122.0	-306132.0	-5845292.0	1721666.0
5	18	4	32	12	123.0	-302562.0	-5836912.0	1724274.0
5	18	4	32	13	124.0	-298045.0	-5830342.0	1725339.0
5	18	4	32	45	125.0	-294425.0	-5826863.0	1726100.0
5	18	4	32	46	126.0	-290282.0	-5823672.0	1726213.0
5	18	4	32	46	127.0	-285641.0	-5822501.0	1726371.0
5	18	4	32	47	128.0	-281427.0	-5820243.0	1726563.0
5	18	4	32	48	129.0	-277012.0	-5815244.0	1729166.0
5	18	4	32	48	130.0	-271407.0	-5810850.0	1731207.0
5	18	4	32	49	131.0	-266019.0	-5807867.0	1733835.0
5	18	4	32	50	132.0	-259917.0	-5807156.0	1736043.0
5	18	4	32	50	133.0	-252474.0	-5807667.0	1737183.0
5	18	4	32	51	134.0	-245372.0	-5809359.0	1738796.0
5	18	4	32	52	135.0	-237867.0	-5809912.0	1740174.0
5	18	4	32	52	136.0	-229973.0	-5811670.0	1740314.0
5	18	4	32	53	137.0	-221823.0	-5815470.0	1740404.0
5	18	4	32	53	138.0	-214021.0	-5813092.0	1739915.0
5	18	4	32	54	139.0	-206994.0	-5809679.0	1741664.0
5	18	4	32	55	141.0	-193640.0	-5804238.0	1744648.0
5	18	4	32	55	142.0	-187360.0	-5798425.0	1745853.0
5	18	4	32	56	143.0	-180991.0	-5796769.0	1747489.0
5	18	4	32	56	144.0	-174627.0	-5796589.0	1748137.0
5	18	4	32	57	145.0	-168466.0	-5794494.0	1747958.0
5	18	4	32	57	146.0	-162329.0	-5795111.0	1747618.0
5	18	4	32	58	147.0	-156099.0	-5796262.0	1747579.0
5	18	4	32	90	148.0	-149884.0	-5785222.0	1746071.0
5	18	4	32	90	149.0	-143764.0	-5779298.0	1747678.0
5	18	4	32	91	150.0	-138095.0	-5776771.0	1748541.0
5	18	4	32	92	151.0	-133059.0	-5773543.0	1750806.0
5	18	4	32	92	152.0	-128482.0	-5772611.0	1752081.0
5	18	4	32	93	153.0	-124429.0	-5774411.0	1751934.0
5	18	4	32	94	154.0	-120865.0	-5777051.0	1751830.0
5	18	4	32	94	155.0	-118131.0	-5780527.0	1752301.0
5	18	4	32	95	156.0	-116206.0	-5782477.0	1751819.0
5	18	4	32	96	157.0	-114944.0	-5786604.0	1751668.0
5	18	4	32	96	158.0	-114682.0	-5791839.0	1751171.0
5	18	4	32	97	159.0	-114988.0	-5792029.0	1753575.0
5	18	4	32	97	160.0	-115938.0	-5795024.0	1754679.0
5	18	4	32	98	161.0	-117712.0	-5799464.0	1756160.0
5	18	4	32	99	162.0	-120076.0	-5801267.0	1756458.0
5	18	4	32	99	164.0	-126738.0	-5806869.0	1755088.0
5	18	4	32	180	165.0	-130450.0	-5808031.0	1754850.0
5	18	4	32	181	166.0	-133716.0	-5810547.0	1753951.0
5	18	4	32	182	167.0	-136601.0	-5814246.0	1752939.0
5	18	4	32	183	168.0	-145520.0	-5816395.0	1751976.0
5	18	4	32	183	169.0	-146362.0	-5816936.0	1753197.0
5	18	4	32	184	170.0	-151759.0	-5815442.0	1753668.0
5	18	4	32	185	171.0	-154947.0	-5813546.0	1754813.0
5	18	4	32	185	172.0	-157071.0	-5813170.0	1754926.0
5	18	4	32	186	173.0	-157794.0	-5814762.0	1754103.0
5	18	4	32	187	174.0	-156069.0	-5813072.0	1753526.0
5	18	4	32	187	175.0	-151294.0	-5813102.0	1752849.0
5	18	4	32	188	176.0	-145394.0	-5815799.0	1751633.0
5	18	4	32	188	177.0	-141813.0	-5819861.0	1750409.0
5	18	4	32	189	178.0	-143383.0	-5822102.0	1750351.0
5	18	4	32	189	179.0	-148526.0	-5822046.0	1750717.0
5	18	4	32	225	180.0	-154776.0	-5818446.0	1752036.0
5	18	4	32	226	209.0	-121957.0	-5733346.0	1731148.0
5	18	4	32	226	210.0	-125409.0	-5727289.0	1732055.0
5	18	4	32	227	211.0	-129276.0	-5720742.0	1731666.0
5	18	4	32	228	212.0	-133122.0	-5716998.0	1730869.0
5	18	4	32	228	213.0	-136481.0	-5717235.0	1729069.0
5	18	4	32	229	214.0	-139346.0	-5714202.0	1726764.0
5	18	4	32	230	215.0	-142491.0	-5710647.0	1724654.0
5	18	4	32	231	216.0	-146727.0	-5714459.0	1722574.0
5	18	4	32	231	217.0	-150682.0	-5717826.0	1721243.0
5	18	4	32	232	218.0	-155524.0	-5718056.0	1720490.0
5	18	4	32	233	219.0	-160817.0	-5716727.0	1721571.0
5	18	4	32	233	220.0	-165315.0	-5714708.0	1721151.0
5	18	4	32	234	221.0	-169216.0	-5712985.0	1721264.0
5	18	4	32	235	222.0	-172852.0	-5712067.0	1720554.0
5	18	4	32	235	223.0	-176051.0	-5708103.0	1719039.0
5	18	4	32	236	232.0	-219949.0	-5671119.0	1711119.0
5	18	4	32	237	233.0	-224247.0	-5672511.0	1709444.0
5	18	4	32	237	234.0	-228093.0	-5675732.0	1707453.0
5	18	4	32	238	235.0	-231312.0	-5678079.0	1705563.0
5	18	4	32	238	236.0	-233874.0	-5681399.0	1703354.0
5	18	4	32	239	237.0	-235721.0	-5684762.0	1702819.0
5	18	4	32	285	238.0	-237209.0	-5687479.0	1702318.0
5	18	4	32	304	239.0	-238712.0	-5689780.0	1702390.0
5	18	4	32	305	240.0	-240531.0	-5688532.0	1703671.0
5	18	4	32	306	241.0	-242837.0	-5686323.0	1703782.0
5	18	4	32	306	242.0	-245283.0	-5685348.0	1701746.0
5	18	4	32	307	243.0	-247732.0	-5684211.0	1699304.0
5	18	4	32	308	244.0	-250210.0	-5685579.0	1697610.0
5	18	4	32	308	245.0	-252540.0	-5687788.0	1695923.0
5	18	4	32	309	246.0	-254383.0	-5689607.0	1692713.0
5	18	4	32	309	247.0	-255778.0	-5689461.0	1691996.0
5	18	4	32	310	248.0	-256433.0	-5684126.0	1691047.0
5	18	4	32	311	249.0	-256108.0	-5678123.0	1691214.0
5	18	4	32	311	250.0	-254477.0	-5673656.0	1690752.0
5	18	4	32	312	251.0	-252036.0	-5670122.0	1689241.0
5	18	4	32	312	252.0	-248651.0	-5666024.0	1687192.0
5	18	4	32	313	5.0	-197213.0	-5727274.0	1671759.0
5	18	4	32	313	13.0	-152435.0	-5810221.0	1654716.0
5	18	4	32	314	14.0	-147095.0	-5816980.0	1653758.0
5	18	4	32	315	15.0	-142009.0	-5825870.0	1652383.0
5	18	4	32	315	16.0	-137434.0	-5834995.0	1650532.0
5	18	4	32	329	17.0	-133746.0	-5851646.0	1648220.0
5	18	4	32	330	18.0	-130957.0	-5867797.0	1646168.0
5	18	4	32	330	19.0	-129041.0	-5877586.0	1643738.0
5	18	4	32	331	20.0	-127753.0	-5886876.0	1641794.0
5	18	4	32	332	21.0	-127176.0	-5890630.0	1640839.0
5	18	4	32	333	22.0	-127007.0	-5890714.0	1640262.0
5	18	4	32	333	23.0	-128485.0	-5890434.0	1639924.0
5	18	4	32	334	24.0	-130565.0	-5890889.0	1641169.0
5	18	4	32	335	25.0	-132037.0	-5890642.0	1641233.0
5	18	4	32	335	26.0	-133682.0	-5889127.0	1640014.0
5	18	4	32	336	27.0	-136253.0	-5890190.0	1637604.0
5	18	4	32	336	28.0	-139871.0	-5892308.0	1635389.0
5	18	4	32	337	29.0	-144864.0	-5892049.0	1633329.0
5	18	4	32	338	30.0	-150849.0	-5892329.0	1630783.0
5	18	4	32	338	31.0	-157930.0	-5892289.0	1630313.0
5	18	4	32	353	32.0	-166051.0	-5892174.0	1629604.0
5	18	4	32	353	33.0	-173957.0	-5890744.0	1630176.0
5	18	4	32	354	34.0	-181707.0	-5890264.0	1630264.0
5	18	4	32	355	35.0	-191454.0	-5891328.0	1628750.0
5	18	4	32	375	36.0	-201651.0	-5896464.0	1626237.0
5	18	4	32	376	37.0	-210237.0	-5892875.0	1623634.0
5	18	4	32	376	38.0	-216821.0	-5888270.0	1621459.0
5	18	4	32	377	39.0	-220838.0	-5890701.0	1618709.0
5	18	4	32	378	40.0	-222724.0	-5893511.0	1615935.0
5	18	4	32	378	41.0	-222032.0	-5893416.0	1614593.0
5	18	4	32	379	42.0	-218741.0	-5892871.0	1613621.0
5	18	4	32	380	43.0	-213751.0	-5891674.0	1613592.0
5	18	4	32	380	44.0	-207274.0	-5890363.0	1612570.0
5	18	4	32	381	45.0	-199541.0	-5885328.0	1610820.0
5	18	4	32	381	46.0	-191294.0	-5892081.0	1608904.0
5	18	4	32	382	47.0	-183037.0	-5894012.0	1606439.0
5	18	4	32	383	48.0	-174186.0	-5892522.0	1603294.0
5	18	4	32	383	49.0	-165200.0	-5891140.0	1600739.0
5	18	4	32	384	50.0	-154964.0	-5892444.0	1597568.0
5	18	4	32	384	51.0	-143585.0	-5892959.0	1595104.0
5	18	4	32	398	52.0	-131742.0	-5891951.0	1594239.0
5	18	4	32	399	53.0	-120284.0	-5891469.0	1595278.0
5	18	4	32	399	54.0	-110040.0	-5895517.0	1596531.0
5	18	4	32	400	55.0	-100611.0	-5896197.0	1596384.0
5	18	4	32	401	56.0	-91985.0	-5893084.0	1594689.0
5	18	4	32	401	57.0	-84017.0	-5890672.0	1592188.0
5	18	4	32	402	58.0	-77412.0	-5889731.0	1589290.0
5	18	4	32	421	59.0	-72382.0	-5892977.0	1586696.0
5	18	4	32	422	60.0	-68264.0	-5892543.0	1583896.0
5	18	4	32	423	61.0	-65497.0	-5891169.0	1582562.0
5	18	4	32	423	62.0	-65062.0	-5890906.0	1581375.0
5	18	4	32	424	63.0	-66156.0	-5890291.0	1580641.0
5	18	4	32	425	64.0	-68826.0	-5892012.0	1579293.0
5	18	4	32	425	65.0	-73044.0	-5891754.0	1577309.0
5	18	4	32	426	66.0	-78689.0	-5892406.0	1575506.0
5	18	4	32	427	67.0	-85409.0	-5894717.0	1572785.0
5	18	4	32	427	68.0	-92750.0	-5894991.0	1569447.0
5	18	4	32	428	69.0	-100916.0	-5893403.0	1566638.0
5	18	4	32	429	70.0	-109824.0	-5892009.0	1564497.0
5	18	4	32	429	71.0	-119711.0	-5892102.0	1562313.0
5	18	4	32	430	72.0	-130759.0	-5891801.0	1559448.0
5	18	4	32	431	73.0	-143217.0	-5892291.0	1558295.0
5	18	4	32	431	74.0	-156464.0	-5891805.0	1556944.0
5	18	4	32	432	75.0	-170054.0	-5891975.0	1555282.0
5	18	4	32	433	76.0	-183672.0	-5893830.0	1552263.0
5	18	4	32	433	77.0	-197887.0	-5893946.0	1548693.0
5	18	4	32	434	78.0	-211653.0	-5892164.0	1545041.0
5	18	4	32	434	79.0	-224847.0	-5900648.0	1539611.0
5	18	4	32	450	80.0	-237416.0	-5898324.0	1532856.0
5	18	4	32	451	81.0	-248617.0	-5891519.0	1525931.0
5	18	4	32	452	82.0	-257692.0	-5891719.0	1521414.0
5	18	4	32	453	83.0	-264122.0	-5894784.0	1518993.0
5	18	4	32	453	84.0	-266809.0	-5899732.0	1518936.0
5	18	4	32	454	85.0	-267076.0	-5894077.0	1518492.0
5	18	4	32	455	86.0	-266283.0	-5893627.0	1517019.0
5	18	4	32	455	87.0	-262205.0	-5890964.0	1513931.0
5	18	4	32	456	88.0	-254784.0	-5890491.0	1511540.0
5	18	4	32	457	89.0	-245594.0	-5891941.0	1511597.0
5	18	4	32	469	90.0	-238546.0	-5893473.0	1513614.0
5	18	4	32	493	91.0	-232156.0	-5894325.0	1515884.0
5	18	4	32	494	92.0	-225937.0	-5890126.0	1521330.0
5	18	4	32	494	93.0	-217269.0	-5887974.0	1528538.0
5	18	4	32	495	94.0	-205979.0	-5889777.0	1533693.0
5	18	4	32	496	95.0	-193059.0	-5891476.0	1536448.0
5	18	4	32	497	96.0	-179474.0	-5892391.0	1537749.0
5	18	4	32	497	97.0	-165676.0	-5892631.0	1536053.0
5	18	4	32	498	98.0	-152037.0	-5891802.0	1533477.0
5	18	4	32	499	99.0	-139096.0	-5892991.0	1531575.0
5	18	4	32	499	100.0	-126870.0	-5893121.0	1530231.0
5	18	4	32	500	101.0	-115597.0	-5891730.0	1528671.0
5	18	4	32	501	102.0	-103032.0	-5891508.0	1527039.0
5	18	4	32	502	103.0	-86303.0	-5891114.0	1524397.0
5	18	4	32	502	104.0	-66597.0	-5890839.0	1520999.0
5	18	4	32	503	105.0	-44248.0	-5889632.0	1516655.0
5	18	4	32	503	106.0	-25456.0	-5891231.0	1512491.0
5	18	4	32	504	107.0	-12422.0	-5891504.0	1508858.0
5	18	4	32	505	108.0	-4206.0	-5892824.0	1505942.0
5	18	4	32	505	109.0	-1824.0	-5896737.0	1502861.0
5	18	4	32	506	110.0	-3847.0	-5904032.0	1500727.0
5	18	4	32	506	111.0	-9908.0	-5894138.0	1499850.0
5	18	4	32	507	112.0	-20039.0	-5889962.0	1499158.0
5	18	4	32	508	113.0	-35192.0	-5891321.0	1498541.0
5	18	4	32	508	114.0	-54112.0	-5891594.0	1497453.0
5	18	4	32	509	115.0	-75142.0	-5891039.0	1495726.0
5	18	4	32	511	116.0	-97922.0	-5890797.0	1493373.0
5	18	4	32	512	117.0	-115692.0	-5889141.0	1490958.0
5	18	4	32	512	118.0	-124990.0	-5891002.0	1488704.0
5	18	4	32	525	119.0	-128582.0	-5892826.0	1486355.0
5	18	4	32	526	120.0	-128681.0	-5892966.0	1483880.0
5	18	4	32	527	121.0	-128584.0	-5892733.0	1482664.0
5	18	4	32	527	122.0	-129942.0	-5900126.0	1482272.0
5	18	4	32	528	123.0	-133918.0	-5901107.0	1481468.0
5	18	4	32	529	124.0	-141214.0	-5893229.0	1480257.0
5	18	4	32	529	125.0	-151139.0	-5890694.0	1478811.0
5	18	4	32	530	126.0	-161499.0	-5890821.0	1476751.0
5	18	4	32	543	127.0	-169841.0	-5892581.0	1474277.0
5	18	4	32	544	128.0	-175954.0	-5891337.0	1472118.0
5	18	4	32	544	129.0	-180063.0	-5890997.0	1470780.0
5	18	4	32	545	130.0	-182241.0	-5890841.0	1468947.0
5	18	4	32	546	131.0	-182762.0	-5889954.0	1468311.0
5	18	4	32	546	132.0	-181617.0	-5890844.0	1467441.0
5	18	4	32	547	133.0	-179462.0	-5890674.0	1467022.0
5	18	4	32	566	134.0	-176688.0	-5890872.0	1466591.0
5	18	4	32	567	135.0	-172906.0	-5890866.0	1464457.0
5	18	4	32	568	136.0	-168379.0	-5891564.0	1461845.0
5	18	4	32	568	137.0	-165406.0	-5893289.0	1459611.0
5	18	4	32	569	138.0	-162153.0	-5887659.0	1457416.0
5	18	4	32	570	139.0	-158735.0	-5887063.0	1455259.0
5	18	4	32	571	140.0	-155864.0	-5891710.0	1453528.0
5	18	4	32	571	141.0	-154187.0	-5892577.0	1453484.0
5	18	4	32	572	142.0	-153029.0	-5890638.0	1453334.0
5	18	4	32	573	143.0	-153286.0	-5889966.0	1453508.0
5	18	4	32	573	144.0	-152417.0	-5890868.0	1452606.0
5	18	4	32	574	145.0	-150925.0	-5891962.0	1451162.0
5	18	4	32	575	146.0	-149823.0	-5891411.0	1449481.0
5	18	4	32	575	147.0	-148916.0	-5891660.0	1447529.0
5	18	4	32	576	148.0	-147343.0	-5891657.0	1445204.0
5	18	4	32	577	149.0	-145458.0	-5894675.0	1443005.0
5	18	4	32	577	150.0	-143054.0	-5894513.0	1441857.0
5	18	4	32	589	151.0	-140454.0	-5893171.0	1441163.0
5	18	4	32	590	152.0	-137977.0	-5891920.0	1440874.0
5	18	4	32	591	153.0	-134549.0	-5889526.0	1441047.0
5	18	4	32	592	154.0	-130574.0	-5890026.0	1440503.0
5	18	4	32	592	155.0	-126666.0	-5891249.0	1439516.0
5	18	4	32	618	156.0	-124089.0	-5891728.0	1438031.0
5	18	4	32	619	157.0	-123067.0	-5891926.0	1436138.0
5	18	4	32	619	158.0	-122561.0	-5893091.0	1434249.0
5	18	4	32	620	159.0	-122180.0	-5893057.0	1432321.0
5	18	4	32	620	160.0	-121532.0	-5893361.0	1431322.0
5	18	4	32	621	161.0	-121346.0	-5892200.0	1430454.0
5	18	4	32	621	162.0	-121764.0	-5890132.0	1430468.0
5	18	4	32	622	163.0	-123382.0	-5890691.0	1430048.0
5	18	4	32	622	164.0	-126291.0	-5890686.0	1428980.0
5	18	4	32	623	165.0	-130451.0	-5891303.0	1427614.0
5	18	4	32	623	166.0	-135747.0	-5890804.0	1425910.0
5	18	4	32	624	167.0	-141569.0	-5891982.0	1424052.0
5	18	4	32	625	168.0	-147569.0	-5892207.0	1422423.0
5	18	4	32	625	169.0	-153424.0	-5893777.0	1420511.0
5	18	4	32	626	170.0	-159054.0	-5892731.0	1419223.0
5	18	4	32	626	171.0	-164031.0	-5889934.0	1419125.0
5	18	4	32	627	172.0	-168303.0	-5891351.0	1418331.0
5	18	4	32	627	173.0	-171330.0	-5892597.0	1417911.0
5	18	4	32	645	174.0	-172238.0	-5891451.0	1417158.0
5	18	4	32	645	175.0	-170925.0	-5891914.0	1415681.0
5	18	4	32	646	176.0	-167567.0	-5891562.0	1414011.0
5	18	4	32	647	177.0	-162733.0	-5889726.0	1412580.0
5	18	4	32	648	178.0	-157132.0	-5891437.0	1410629.0
5	18	4	32	648	179.0	-151431.0	-5891722.0	1407954.0
5	18	4	32	649	180.0	-146237.0	-5889671.0	1406248.0
5	18	4	32	650	181.0	-141092.0	-5889224.0	1405333.0
5	18	4	32	650	182.0	-136716.0	-5889669.0	1405586.0
5	18	4	32	651	183.0	-132997.0	-5890207.0	1404558.0
5	18	4	32	651	184.0	-129941.0	-5890237.0	1402579.0
5	18	4	32	652	185.0	-127511.0	-5890707.0	1401934.0
5	18	4	32	653	186.0	-125272.0	-5890790.0	1400809.0
5	18	4	32	653	187.0	-123821.0	-5888941.0	1398545.0
5	18	4	32	654	188.0	-121952.0	-5889087.0	1396775.0
5	18	4	32	668	189.0	-120193.0	-5890739.0	1394603.0
5	18	4	32	669	190.0	-118289.0	-5887317.0	1392380.0
5	18	4	32	669	191.0	-116473.0	-5885239.0	1391654.0
5	18	4	32	670	192.0	-115351.0	-5889839.0	1391076.0
5	18	4	32	692	193.0	-113409.0	-5890868.0	1390009.0
5	18	4	32	693	194.0	-110011.0	-5890770.0	1388486.0
5	18	4	32	693	195.0	-107056.0	-5889806.0	1387116.0
5	18	4	32	694	196.0	-103336.0	-5890014.0	1385846.0
5	18	4	32	695	197.0	-98787.0	-5891076.0	1384531.0
5	18	4	32	695	198.0	-95392.0	-5890240.0	1383131.0
5	18	4	32	696	199.0	-92318.0	-5890279.0	1381851.0
5	18	4	32	696	200.0	-89439.0	-5890354.0	1380746.0
5	18	4	32	697	201.0	-86424.0	-5889109.0	1381540.0
5	18	4	32	697	202.0	-83813.0	-5885739.0	1381238.0
5	18	4	32	698	203.0	-81206.0	-5884553.0	1380676.0
5	18	4	32	698	204.0	-78910.0	-5884924.0	1380192.0
5	18	4	32	699	205.0	-75386.0	-5886939.0	1378682.0
5	18	4	32	700	206.0	-74069.0	-5889143.0	1376863.0
5	18	4	32	700	207.0	-71589.0	-5890172.0	1375512.0
5	18	4	32	701	208.0	-71001.0	-5890402.0	1374176.0
5	18	4	32	715	209.0	-70811.0	-5891615.0	1372616.0
5	18	4	32	715	210.0	-72916.0	-5891496.0	1371223.0
5	18	4	32	716	211.0	-77761.0	-5890772.0	1371488.0
5	18	4	32	738	212.0	-81432.0	-5890327.0	1371812.0
5	18	4	32	739	213.0	-87521.0	-5890184.0	1371992.0
5	18	4	32	740	214.0	-94589.0	-5889336.0	1370869.0
5	18	4	32	740	215.0	-102086.0	-5888994.0	1369638.0
5	18	4	32	741	216.0	-110091.0	-5888721.0	1368188.0
5	18	4	32	742	217.0	-119359.0	-5887592.0	1365992.0
5	18	4	32	742	218.0	-130064.0	-5888691.0	1363927.0
5	18	4	32	743	219.0	-140222.0	-5883127.0	1362076.0
5	18	4	32	743	220.0	-149596.0	-5880572.0	1361293.0
5	18	4	32	744	221.0	-158277.0	-5879478.0	1361239.0
5	18	4	32	744	222.0	-166736.0	-5879838.0	1361583.0
5	18	4	32	745	223.0	-174162.0	-5884523.0	1361523.0
5	18	4	32	746	224.0	-179702.0	-5888232.0	1360472.0
5	18	4	32	746	225.0	-186170.0	-5890399.0	1358761.0
5	18	4	32	747	226.0	-191427.0	-5896670.0	1357411.0
5	18	4	32	747	227.0	-194724.0	-5896055.0	1355652.0
5	18	4	32	748	228.0	-197972.0	-5888318.0	1354134.0
5	18	4	32	748	229.0	-201144.0	-5876166.0	1352894.0
5	18	4	32	749	230.0	-200291.0	-5876904.0	1351924.0
5	18	4	32	749	231.0	-201237.0	-5879552.0	1352119.0
5	18	4	32	750	232.0	-202269.0	-5883749.0	1352298.0
5	18	4	32	751	233.0	-202712.0	-5888047.0	1352937.0
5	18	4	32	751	234.0	-203614.0	-5889901.0	1352398.0
5	18	4	32	752	235.0	-203998.0	-5890047.0	1349831.0
5	18	4	32	752	236.0	-204239.0	-5891365.0	1347347.0
5	18	4	32	753	237.0	-203694.0	-5890690.0	1345073.0
5	18	4	32	754	238.0	-203119.0	-5890646.0	1342480.0
5	18	4	32	765	239.0	-201928.0	-5891079.0	1340569.0
5	18	4	32	765	240.0	-201567.0	-5890456.0	1340576.0
5	18	4	32	766	241.0	-200541.0	-5890116.0	1340830.0
5	18	4	32	767	242.0	-199237.0	-5888441.0	1340834.0
5	18	4	32	767	243.0	-197704.0	-5889342.0	1340811.0
5	18	4	32	768	244.0	-194840.0	-5889914.0	1339515.0
5	18	4	32	768	245.0	-187312.0	-5890442.0	1337694.0
5	18	4	32	794	246.0	-178139.0	-5891341.0	1335927.0
5	18	4	32	795	247.0	-171517.0	-5891656.0	1333864.0
5	18	4	32	816	248.0	-175792.0	-5891301.0	1332327.0
5	18	4	32	816	249.0	-189399.0	-5890592.0	1330521.0
5	18	4	32	817	250.0	-201770.0	-5890604.0	1330506.0
5	18	4	32	818	251.0	-211711.0	-5890427.0	1330394.0
5	18	4	32	818	252.0	-223311.0	-5888719.0	1329981.0
5	18	4	32	819	253.0	-231177.0	-5889642.0	1329991.0
5	18	4	32	819	254.0	-235783.0	-5889544.0	1329444.0
5	18	4	32	820	255.0	-240493.0	-5889809.0	1327763.0
5	18	4	32	839	0.0	-241937.0	-5890789.0	1325794.0
5	18	4	32	840	1.0	-239104.0	-5891451.0	1323746.0
5	18	4	32	841	2.0	-236510.0	-5891877.0	1321941.0
5	18	4	32	841	3.0	-232953.0	-5890697.0	1319831.0
5	18	4	32	842	4.0	-228549.0	-5889039.0	1318641.0
5	18	4	32	843	5.0	-224033.0	-5889537.0	1318066.0
5	18	4	32	843	6.0	-219463.0	-5889784.0	1318658.0
5	18	4	32	844	11.0	-179738.0	-5892146.0	1312959.0
5	18	4	32	844	12.0	-170565.0	-5891292.0	1311295.0
5	18	4	32	845	13.0	-162998.0	-5891364.0	1309348.0
5	18	4	32	845	14.0	-157732.0	-5890803.0	1307938.0
5	18	4	32	846	15.0	-154729.0	-5890876.0	1307666.0
5	18	4	32	847	16.0	-152463.0	-5893926.0	1307981.0
5	18	4	32	847	17.0	-150284.0	-5890489.0	1306968.0
5	18	4	32	848	18.0	-147045.0	-5885936.0	1305886.0
5	18	4	32	848	19.0	-143469.0	-5888797.0	1304504.0
5	18	4	32	849	20.0	-140444.0	-5890479.0	1302816.0
5	18	4	32	849	21.0	-138024.0	-5888762.0	1300813.0
5	18	4	32	850	22.0	-135341.0	-5890691.0	1298591.0
5	18	4	32	850	23.0	-132969.0	-5888401.0	1296438.0
5	18	4	32	851	24.0	-131181.0	-5886809.0	1295768.0
5	18	4	32	851	25.0	-127816.0	-5889662.0	1295414.0
5	18	4	32	852	26.0	-124787.0	-5891448.0	1295573.0
5	18	4	32	862	27.0	-123768.0	-5890921.0	1295180.0
5	18	4	32	863	28.0	-123672.0	-5888385.0	1294023.0
5	18	4	32	864	29.0	-123981.0	-5880720.0	1292409.0
5	18	4	32	864	30.0	-123389.0	-5885112.0	1291251.0
5	18	4	32	865	31.0	-123296.0	-5891327.0	1289949.0
5	18	4	32	865	32.0	-122534.0	-5893177.0	1288309.0
5	18	4	32	866	33.0	-122189.0	-5894848.0	1286783.0
5	18	4	32	866	34.0	-122404.0	-5892381.0	1285546.0
5	18	4	32	867	35.0	-122612.0	-5891977.0	1285381.0
5	18	4	32	886	36.0	-123124.0	-5890501.0	1286778.0
5	18	4	32	886	37.0	-124201.0	-5890722.0	1285979.0
5	18	4	32	887	38.0	-125472.0	-5891137.0	1283871.0
5	18	4	32	888	39.0	-126526.0	-5889924.0	1282192.0
5	18	4	32	888	40.0	-128048.0	-5887826.0	1281008.0
5	18	4	32	889	41.0	-131524.0	-5888638.0	1279040.0
5	18	4	32	890	42.0	-134223.0	-5889743.0	1276895.0
5	18	4	32	891	43.0	-138543.0	-5890932.0	1276119.0
5	18	4	32	891	44.0	-142206.0	-5890261.0	1275951.0
5	18	4	32	892	45.0	-147996.0	-5890819.0	1276450.0
5	18	4	32	893	46.0	-151538.0	-5892534.0	1276362.0
5	18	4	32	893	47.0	-154076.0	-5887341.0	1275054.0
5	18	4	32	894	48.0	-158829.0	-5879992.0	1273549.0
5	18	4	32	895	49.0	-164625.0	-5890012.0	1271565.0
5	18	4	32	895	50.0	-168571.0	-5902975.0	1269603.0
5	18	4	32	896	51.0	-171582.0	-5896569.0	1267811.0
5	18	4	32	896	52.0	-177855.0	-5891752.0	1265810.0
5	18	4	32	897	53.0	-182615.0	-5890111.0	1264525.0
5	18	4	32	909	54.0	-187387.0	-5890347.0	1263973.0
5	18	4	32	910	55.0	-192174.0	-5891550.0	1264708.0
5	18	4	32	932	56.0	-195715.0	-5892070.0	1263904.0
5	18	4	32	932	57.0	-198672.0	-5890827.0	1263086.0
5	18	4	32	933	58.0	-202429.0	-5889511.0	1261924.0
5	18	4	32	934	59.0	-205333.0	-5888964.0	1259667.0
5	18	4	32	934	60.0	-208226.0	-5889642.0	1257416.0
5	18	4	32	935	61.0	-209099.0	-5891294.0	1255559.0
5	18	4	32	935	62.0	-209624.0	-5891287.0	1254058.0
5	18	4	32	936	63.0	-210489.0	-5889661.0	1252726.0
5	18	4	32	936	64.0	-210937.0	-5890475.0	1252424.0
5	18	4	32	937	65.0	-210539.0	-5890411.0	1252818.0
5	18	4	32	938	66.0	-212228.0	-5890242.0	1252554.0
5	18	4	32	938	67.0	-214417.0	-5888354.0	1252268.0
5	18	4	32	939	68.0	-216159.0	-5889036.0	1250857.0
5	18	4	32	939	69.0	-217308.0	-5890661.0	1249008.0
5	18	4	32	940	70.0	-217433.0	-5890232.0	1247642.0
5	18	4	32	940	71.0	-217016.0	-5890372.0	1246030.0
5	18	4	32	960	72.0	-216357.0	-5889051.0	1243708.0
5	18	4	32	960	73.0	-215926.0	-5888792.0	1242125.0
5	18	4	32	961	74.0	-216854.0	-5889387.0	1241623.0
5	18	4	32	962	75.0	-217539.0	-5890144.0	1241607.0
5	18	4	32	963	76.0	-217294.0	-5889955.0	1241452.0
5	18	4	32	963	77.0	-219294.0	-5890835.0	1240651.0
5	18	4	32	964	78.0	-221681.0	-5892366.0	1239556.0
5	18	4	32	965	79.0	-224539.0	-5890029.0	1237549.0
5	18	4	32	965	80.0	-228316.0	-5885157.0	1235332.0
5	18	4	32	966	81.0	-230933.0	-5888383.0	1233348.0
5	18	4	32	966	82.0	-233988.0	-5893085.0	1231300.0
5	18	4	32	967	83.0	-236927.0	-5889844.0	1229451.0
5	18	4	32	968	84.0	-239323.0	-5883942.0	1229285.0
5	18	4	32	968	85.0	-241016.0	-5887046.0	1230338.0
5	18	4	32	969	86.0	-241832.0	-5889300.0	1230528.0
5	18	4	32	969	87.0	-242074.0	-5889756.0	1230021.0
5	18	4	32	970	88.0	-241670.0	-5889664.0	1229331.0
5	18	4	32	971	89.0	-240957.0	-5890397.0	1227893.0
5	18	4	32	981	90.0	-239957.0	-5890149.0	1226269.0
5	18	4	32	982	91.0	-238704.0	-5890486.0	1224319.0
5	18	4	32	982	92.0	-236997.0	-5892192.0	1222471.0
5	18	4	32	983	93.0	-234966.0	-5890832.0	1221390.0
5	18	4	33	4	94.0	-232239.0	-5887234.0	1221779.0
5	18	4	33	5	95.0	-228301.0	-5887959.0	1222090.0
5	18	4	33	5	96.0	-223746.0	-5890407.0	1222221.0
5	18	4	33	6	97.0	-218340.0	-5891837.0	1222574.0
5	18	4	33	7	98.0	-212237.0	-5891702.0	1221451.0
5	18	4	33	7	99.0	-205799.0	-5890644.0	1220296.0
5	18	4	33	8	100.0	-199310.0	-5892028.0	1218011.0
5	18	4	33	9	101.0	-193110.0	-5893095.0	1215301.0
5	18	4	33	9	102.0	-187404.0	-5893059.0	1213203.0
5	18	4	33	10	103.0	-182072.0	-5894156.0	1212086.0
5	18	4	33	10	104.0	-177000.0	-5894517.0	1212308.0
5	18	4	33	11	105.0	-171705.0	-5892444.0	1211407.0
5	18	4	33	12	106.0	-166158.0	-5892387.0	1211458.0
5	18	4	33	12	107.0	-160404.0	-5892037.0	1211098.0
5	18	4	33	13	108.0	-154815.0	-5891168.0	1210083.0
5	18	4	33	13	109.0	-149707.0	-5890541.0	1208223.0
5	18	4	33	50	110.0	-145194.0	-5890474.0	1205997.0
5	18	4	33	51	111.0	-141137.0	-5892400.0	1204094.0
5	18	4	33	51	112.0	-137067.0	-5892793.0	1202026.0
5	18	4	33	52	113.0	-133055.0	-5891553.0	1200992.0
5	18	4	33	53	114.0	-129062.0	-5883398.0	1200293.0
5	18	4	33	54	115.0	-124423.0	-5881046.0	1200341.0
5	18	4	33	54	116.0	-119258.0	-5876552.0	1200563.0
5	18	4	33	55	117.0	-114037.0	-5873242.0	1199748.0
5	18	4	33	55	118.0	-109286.0	-5870207.0	1198446.0
5	18	4	33	56	119.0	-105432.0	-5866860.0	1196798.0
5	18	4	33	57	120.0	-102299.0	-5874756.0	1195691.0
5	18	4	33	57	121.0	-99711.0	-5884361.0	1193886.0
5	18	4	33	58	122.0	-97307.0	-5895194.0	1191504.0
5	18	4	33	59	123.0	-95725.0	-5894668.0	1190845.0
5	18	4	33	59	124.0	-95212.0	-5891323.0	1190399.0
5	18	4	33	60	131.0	-113056.0	-5891448.0	1181691.0
5	18	4	33	61	132.0	-116204.0	-5891811.0	1179166.0
5	18	4	33	61	133.0	-118603.0	-5890226.0	1176736.0
5	18	4	33	62	134.0	-120822.0	-5889056.0	1175151.0
5	18	4	33	70	135.0	-123034.0	-5889766.0	1174609.0
5	18	4	33	71	136.0	-125549.0	-5891421.0	1173352.0
5	18	4	33	72	137.0	-128372.0	-5890057.0	1171225.0
5	18	4	33	73	138.0	-132019.0	-5890749.0	1168608.0
5	18	4	33	94	139.0	-136782.0	-5890376.0	1164734.0
5	18	4	33	95	140.0	-142114.0	-5890891.0	1159097.0
5	18	4	33	96	141.0	-147449.0	-5889651.0	1152649.0
5	18	4	33	96	142.0	-153222.0	-5891067.0	1145977.0
5	18	4	33	97	143.0	-158996.0	-5890789.0	1141650.0
5	18	4	33	98	144.0	-164124.0	-5889788.0	1139798.0
5	18	4	33	98	145.0	-168274.0	-5892039.0	1140351.0
5	18	4	33	99	146.0	-171252.0	-5891913.0	1141442.0
5	18	4	33	99	147.0	-174336.0	-5891614.0	1140575.0
5	18	4	33	100	148.0	-177551.0	-5891893.0	1137718.0
5	18	4	33	100	149.0	-180116.0	-5892279.0	1136331.0
5	18	4	33	101	150.0	-182802.0	-5892534.0	1138144.0
5	18	4	33	102	151.0	-186816.0	-5892795.0	1140711.0
5	18	4	33	102	152.0	-190794.0	-5891591.0	1143392.0
5	18	4	33	103	153.0	-194699.0	-5890470.0	1149683.0
5	18	4	33	103	154.0	-199714.0	-5894157.0	1157002.0
5	18	4	33	117	155.0	-205032.0	-5894794.0	1162750.0
5	18	4	33	117	156.0	-209834.0	-5892480.0	1165653.0
5	18	4	33	118	157.0	-213483.0	-5892391.0	1166203.0
5	18	4	33	119	158.0	-215531.0	-5891080.0	1164498.0
5	18	4	33	119	159.0	-216064.0	-5889845.0	1162399.0
5	18	4	33	140	160.0	-216135.0	-5896111.0	1160704.0
5	18	4	33	140	161.0	-216404.0	-5905541.0	1159231.0
5	18	4	33	141	162.0	-214714.0	-5899325.0	1157315.0
5	18	4	33	142	163.0	-208333.0	-5892985.0	1154389.0
5	18	4	33	143	164.0	-198446.0	-5892371.0	1152134.0
5	18	4	33	143	165.0	-184107.0	-5890884.0	1149779.0
5	18	4	33	144	166.0	-171810.0	-5890094.0	1145835.0
5	18	4	33	145	167.0	-164202.0	-5891135.0	1142761.0
5	18	4	33	145	168.0	-158603.0	-5891405.0	1139474.0
5	18	4	33	146	169.0	-155712.0	-5891044.0	1135869.0
5	18	4	33	147	170.0	-156617.0	-5891587.0	1133544.0
5	18	4	33	147	171.0	-159532.0	-5890744.0	1131961.0
5	18	4	33	148	172.0	-164137.0	-5891231.0	1130738.0
5	18	4	33	149	173.0	-171699.0	-5892619.0	1129713.0
5	18	4	33	149	174.0	-182291.0	-5892780.0	1129827.0
5	18	4	33	150	175.0	-194512.0	-5890559.0	1130111.0
5	18	4	33	150	176.0	-205861.0	-5890380.0	1128906.0
5	18	4	33	151	177.0	-211810.0	-5890369.0	1127004.0
5	18	4	33	152	178.0	-209972.0	-5890299.0	1125520.0
5	18	4	33	169	179.0	-199888.0	-5890965.0	1123684.0
5	18	4	33	170	180.0	-187157.0	-5891760.0	1121601.0
5	18	4	33	171	181.0	-176731.0	-5890724.0	1119029.0
5	18	4	33	172	182.0	-168112.0	-5891442.0	1117294.0
5	18	4	33	172	183.0	-162172.0	-5891753.0	1116425.0
5	18	4	33	173	184.0	-157158.0	-5890898.0	1116133.0
5	18	4	33	174	185.0	-153232.0	-5890697.0	1115856.0
5	18	4	33	175	186.0	-151965.0	-5887479.0	1114895.0
5	18	4	33	175	187.0	-152012.0	-5889937.0	1113513.0
5	18	4	33	176	188.0	-152762.0	-5891674.0	1111442.0
5	18	4	33	177	189.0	-152888.0	-5890580.0	1109393.0
5	18	4	33	177	190.0	-149532.0	-5887292.0	1107443.0
5	18	4	33	178	191.0	-144321.0	-5890242.0	1105143.0
5	18	4	33	179	192.0	-139804.0	-5890681.0	1103773.0
5	18	4	33	179	193.0	-134586.0	-5889097.0	1102620.0
5	18	4	33	180	194.0	-128742.0	-5888446.0	1102468.0
5	18	4	33	200	195.0	-124115.0	-5889249.0	1103159.0
5	18	4	33	201	196.0	-120969.0	-5891379.0	1102711.0
5	18	4	33	202	197.0	-118563.0	-5891651.0	1100798.0
5	18	4	33	203	198.0	-116040.0	-5889572.0	1098440.0
5	18	4	33	203	199.0	-113176.0	-5889889.0	1096574.0
5	18	4	33	204	200.0	-110019.0	-5890288.0	1094148.0
5	18	4	33	205	201.0	-107947.0	-5890994.0	1091021.0
5	18	4	33	206	202.0	-106019.0	-5890223.0	1089400.0
5	18	4	33	206	203.0	-107326.0	-5889877.0	1088891.0
5	18	4	33	207	204.0	-111186.0	-5888917.0	1089230.0
5	18	4	33	208	205.0	-115324.0	-5887229.0	1089413.0
5	18	4	33	208	206.0	-120309.0	-5885548.0	1088723.0
5	18	4	33	209	207.0	-126585.0	-5885092.0	1087379.0
5	18	4	33	210	208.0	-133297.0	-5885302.0	1085653.0
5	18	4	33	210	209.0	-139793.0	-5883102.0	1083565.0
5	18	4	33	219	210.0	-145449.0	-5885561.0	1081387.0
5	18	4	33	219	211.0	-151153.0	-5889841.0	1079211.0
5	18	4	33	220	212.0	-156613.0	-5891172.0	1077275.0
5	18	4	33	221	213.0	-161714.0	-5890141.0	1076476.0
5	18	4	33	242	214.0	-167002.0	-5889123.0	1076151.0
5	18	4	33	243	215.0	-171687.0	-5891092.0	1075516.0
5	18	4	33	244	216.0	-176193.0	-5891204.0	1075153.0
5	18	4	33	244	217.0	-180022.0	-5890197.0	1074744.0
5	18	4	33	245	218.0	-182917.0	-5891356.0	1073124.0
5	18	4	33	246	219.0	-186447.0	-5893165.0	1071276.0
5	18	4	33	246	220.0	-190401.0	-5892823.0	1069306.0
5	18	4	33	247	221.0	-193114.0	-5892256.0	1066781.0
5	18	4	33	248	222.0	-194671.0	-5891929.0	1063778.0
5	18	4	33	248	223.0	-195752.0	-5892015.0	1062625.0
5	18	4	33	249	224.0	-196556.0	-5891317.0	1062312.0
5	18	4	33	249	225.0	-195669.0	-5890988.0	1062143.0
5	18	4	33	250	226.0	-194248.0	-5891136.0	1061079.0
5	18	4	33	251	227.0	-193061.0	-5891117.0	1059605.0
5	18	4	33	251	228.0	-193092.0	-5892369.0	1057892.0
5	18	4	33	252	229.0	-192448.0	-5892484.0	1055911.0
5	18	4	33	276	230.0	-191347.0	-5893042.0	1053701.0
5	18	4	33	296	231.0	-190474.0	-5892196.0	1051481.0
5	18	4	33	297	232.0	-189315.0	-5891282.0	1050140.0
5	18	4	33	298	233.0	-189101.0	-5891331.0	1049317.0
5	18	4	33	298	234.0	-188416.0	-5890111.0	1048673.0
5	18	4	33	299	235.0	-186626.0	-5888789.0	1048008.0
5	18	4	33	300	236.0	-184685.0	-5890023.0	1046286.0
5	18	4	33	300	237.0	-181457.0	-5891359.0	1044565.0
5	18	4	33	301	238.0	-177597.0	-5893776.0	1042249.0
5	18	4	33	301	239.0	-173121.0	-5893447.0	1040292.0
5	18	4	33	302	240.0	-169343.0	-5891167.0	1038586.0
5	18	4	33	302	241.0	-164904.0	-5892383.0	1036645.0
5	18	4	33	303	242.0	-158876.0	-5892469.0	1034818.0
5	18	4	33	304	243.0	-152960.0	-5892210.0	1034003.0
5	18	4	33	304	244.0	-149021.0	-5892931.0	1033386.0
5	18	4	33	305	245.0	-144886.0	-5894844.0	1032676.0
5	18	4	33	306	246.0	-139161.0	-5892602.0	1031782.0
5	18	4	33	306	247.0	-135302.0	-5891516.0	1030351.0
5	18	4	33	307	248.0	-132617.0	-5891034.0	1028141.0
5	18	4	33	308	249.0	-128938.0	-5891226.0	1026264.0
5	18	4	33	309	250.0	-125482.0	-5891312.0	1024853.0
5	18	4	33	309	251.0	-123279.0	-5891431.0	1022721.0
5	18	4	33	310	252.0	-121356.0	-5892280.0	1021886.0
5	18	4	33	311	253.0	-119579.0	-5891806.0	1021170.0
5	18	4	33	311	254.0	-118911.0	-5888262.0	1020899.0
5	18	4	33	312	255.0	-118575.0	-5878207.0	1021372.0
5	18	4	33	313	0.0	-118959.0	-5878921.0	1019916.0
5	18	4	33	313	1.0	-120767.0	-5880901.0	1017299.0
5	18	4	33	314	2.0	-122029.0	-5885759.0	1015281.0
5	18	4	33	315	3.0	-124608.0	-5890318.0	1013624.0
5	18	4	33	315	4.0	-128767.0	-5891809.0	1012033.0
5	18	4	33	324	5.0	-133168.0	-5891742.0	1009912.0
5	18	4	33	325	6.0	-135146.0	-5891197.0	1009671.0
5	18	4	33	326	7.0	-136019.0	-5890282.0	1009674.0
5	18	4	33	326	8.0	-136522.0	-5887866.0	1009536.0
5	18	4	33	327	9.0	-136854.0	-5889389.0	1008466.0
5	18	4	33	327	10.0	-137336.0	-5890339.0	1007674.0
5	18	4	33	346	11.0	-138827.0	-5890697.0	1006473.0
5	18	4	33	347	12.0	-140693.0	-5895626.0	1004357.0
5	18	4	33	348	13.0	-142836.0	-5899677.0	1002326.0
5	18	4	33	349	14.0	-144152.0	-5893738.0	1000759.0
5	18	4	33	349	15.0	-144621.0	-5891635.0	998903.0
5	18	4	33	350	16.0	-145534.0	-5891823.0	997835.0
5	18	4	33	351	17.0	-146906.0	-5892027.0	996918.0
5	18	4	33	370	18.0	-147852.0	-5892524.0	996961.0
5	18	4	33	370	19.0	-148085.0	-5892187.0	996297.0
5	18	4	33	371	20.0	-149339.0	-5892092.0	995275.0
5	18	4	33	372	21.0	-150214.0	-5891839.0	993690.0
5	18	4	33	372	22.0	-149682.0	-5891969.0	991822.0
5	18	4	33	373	23.0	-151175.0	-5890150.0	990018.0
5	18	4	33	373	24.0	-151416.0	-5889536.0	988179.0
5	18	4	33	374	25.0	-150376.0	-5890950.0	986056.0
5	18	4	33	375	26.0	-151277.0	-5891216.0	984786.0
5	18	4	33	375	27.0	-149902.0	-5890641.0	984134.0
5	18	4	33	376	28.0	-147639.0	-5891008.0	984211.0
5	18	4	33	376	29.0	-145347.0	-5900156.0	983665.0
5	18	4	33	377	30.0	-143135.0	-5901041.0	983110.0
5	18	4	33	393	31.0	-140910.0	-5893417.0	981681.0
5	18	4	33	394	32.0	-138866.0	-5891134.0	979644.0
5	18	4	33	395	33.0	-139294.0	-5890729.0	977484.0
5	18	4	33	395	34.0	-139182.0	-5892762.0	975366.0
5	18	4	33	396	35.0	-137656.0	-5894186.0	973543.0
5	18	4	33	396	36.0	-136489.0	-5892881.0	972963.0
5	18	4	33	397	37.0	-136707.0	-5890824.0	972383.0
5	18	4	33	398	38.0	-138579.0	-5890467.0	972398.0
5	18	4	33	398	39.0	-139304.0	-5890029.0	971568.0
5	18	4	33	399	40.0	-140120.0	-5891357.0	970959.0
5	18	4	33	399	41.0	-140886.0	-5891957.0	969879.0
5	18	4	33	400	42.0	-141213.0	-5892166.0	968049.0
5	18	4	33	400	43.0	-142180.0	-5892467.0	965997.0
5	18	4	33	401	44.0	-142781.0	-5892603.0	964070.0
5	18	4	33	402	45.0	-143807.0	-5893263.0	962159.0
5	18	4	33	402	46.0	-145056.0	-5896219.0	960066.0
5	18	4	33	403	47.0	-144796.0	-5895254.0	959395.0
5	18	4	33	421	48.0	-143249.0	-5891262.0	960053.0
5	18	4	33	422	49.0	-140152.0	-5892970.0	959394.0
5	18	4	33	423	50.0	-131364.0	-5893612.0	958304.0
5	18	4	33	423	51.0	-118238.0	-5892014.0	957145.0
5	18	4	33	424	52.0	-112516.0	-5890964.0	956178.0
5	18	4	33	425	53.0	-119382.0	-5893238.0	954953.0
5	18	4	33	425	54.0	-135394.0	-5893034.0	952900.0
5	18	4	33	426	55.0	-154717.0	-5891167.0	951153.0
5	18	4	33	426	56.0	-171997.0	-5890760.0	949563.0
5	18	4	33	445	57.0	-184487.0	-5891916.0	949708.0
5	18	4	33	446	58.0	-190460.0	-5894921.0	949934.0
5	18	4	33	446	59.0	-195149.0	-5894779.0	949303.0
5	18	4	33	447	60.0	-198947.0	-5891918.0	948114.0
5	18	4	33	447	61.0	-198781.0	-5892529.0	946374.0
5	18	4	33	448	62.0	-197717.0	-5893968.0	945005.0
5	18	4	33	449	63.0	-197572.0	-5889246.0	943229.0
5	18	4	33	449	64.0	-195843.0	-5878312.0	941232.0
5	18	4	33	450	65.0	-194592.0	-5882852.0	939693.0
5	18	4	33	450	66.0	-192125.0	-5889025.0	939207.0
5	18	4	33	451	67.0	-186785.0	-5890884.0	939525.0
5	18	4	33	451	68.0	-181442.0	-5890057.0	939188.0
5	18	4	33	452	69.0	-175566.0	-5890142.0	938660.0
5	18	4	33	452	70.0	-169732.0	-5893986.0	937739.0
5	18	4	33	453	71.0	-165647.0	-5894314.0	935635.0
5	18	4	33	454	72.0	-162967.0	-5894396.0	933612.0
5	18	4	33	454	73.0	-160997.0	-5893666.0	931725.0
5	18	4	33	455	74.0	-162369.0	-5892519.0	930191.0
5	18	4	33	455	75.0	-165669.0	-5891070.0	928277.0
5	18	4	33	456	76.0	-169717.0	-5892504.0	927364.0
5	18	4	33	468	77.0	-175182.0	-5891433.0	927072.0
5	18	4	33	469	78.0	-179844.0	-5890619.0	926778.0
5	18	4	33	470	79.0	-182396.0	-5891416.0	925708.0
5	18	4	33	470	80.0	-183857.0	-5893741.0	923993.0
5	18	4	33	471	81.0	-182369.0	-5894362.0	922130.0
5	18	4	33	472	82.0	-179286.0	-5893053.0	920741.0
5	18	4	33	472	83.0	-176806.0	-5890079.0	919266.0
5	18	4	33	473	84.0	-173655.0	-5880096.0	917382.0
5	18	4	33	473	85.0	-170178.0	-5882490.0	915336.0
5	18	4	33	474	86.0	-166947.0	-5888024.0	914883.0
5	18	4	33	489	87.0	-162014.0	-5891093.0	915009.0
5	18	4	33	490	88.0	-157051.0	-5891158.0	914381.0
5	18	4	33	490	89.0	-153447.0	-5892300.0	913931.0
5	18	4	33	491	90.0	-150239.0	-5892800.0	912589.0
5	18	4	33	492	91.0	-147424.0	-5891604.0	910739.0
5	18	4	33	492	92.0	-145699.0	-5891072.0	908942.0
5	18	4	33	516	93.0	-145152.0	-5891642.0	906519.0
5	18	4	33	516	94.0	-146053.0	-5892546.0	904493.0
5	18	4	33	517	95.0	-146934.0	-5891770.0	903424.0
5	18	4	33	518	96.0	-147306.0	-5891102.0	902979.0
5	18	4	33	518	97.0	-147195.0	-5891964.0	902705.0
5	18	4	33	519	98.0	-148042.0	-5892961.0	902320.0
5	18	4	33	519	99.0	-149148.0	-5893049.0	901199.0
5	18	4	33	520	100.0	-150089.0	-5892045.0	900348.0
5	18	4	33	521	101.0	-151559.0	-5893484.0	898417.0
5	18	4	33	521	102.0	-152529.0	-5892302.0	895744.0
5	18	4	33	522	103.0	-154076.0	-5893768.0	893051.0
5	18	4	33	522	104.0	-155799.0	-5893306.0	891174.0
5	18	4	33	523	105.0	-156328.0	-5892905.0	889598.0
5	18	4	33	524	106.0	-156506.0	-5895084.0	888164.0
5	18	4	33	524	107.0	-157289.0	-5893186.0	887239.0
5	18	4	33	525	108.0	-158594.0	-5891507.0	887288.0
5	18	4	33	525	109.0	-159402.0	-5891299.0	886637.0
5	18	4	33	526	110.0	-160217.0	-5893058.0	885264.0
5	18	4	33	527	111.0	-162077.0	-5900764.0	883035.0
5	18	4	33	544	112.0	-163747.0	-5900974.0	881132.0
5	18	4	33	545	113.0	-165210.0	-5894911.0	878969.0
5	18	4	33	546	114.0	-166489.0	-5893281.0	876661.0
5	18	4	33	547	115.0	-167476.0	-5892172.0	874564.0
5	18	4	33	547	116.0	-169122.0	-5898796.0	873088.0
5	18	4	33	548	117.0	-170513.0	-5900909.0	872083.0
5	18	4	33	549	118.0	-171678.0	-5892874.0	871917.0
5	18	4	33	549	119.0	-173593.0	-5892486.0	871200.0
5	18	4	33	550	120.0	-176072.0	-5892650.0	868874.0
5	18	4	33	551	121.0	-177582.0	-5894099.0	866669.0
5	18	4	33	551	122.0	-178547.0	-5890972.0	864839.0
5	18	4	33	552	123.0	-179653.0	-5892849.0	862621.0
5	18	4	33	552	124.0	-180566.0	-5893174.0	860143.0
5	18	4	33	553	125.0	-181103.0	-5893741.0	858266.0
5	18	4	33	565	126.0	-181992.0	-5894271.0	857846.0
5	18	4	33	566	127.0	-182546.0	-5891692.0	857549.0
5	18	4	33	566	128.0	-182505.0	-5889004.0	856583.0
5	18	4	33	567	129.0	-182324.0	-5891891.0	855679.0
5	18	4	33	589	130.0	-181026.0	-5894674.0	854096.0
5	18	4	33	611	131.0	-179103.0	-5894157.0	852283.0
5	18	4	33	612	132.0	-177792.0	-5892864.0	850246.0
5	18	4	33	613	133.0	-176699.0	-5892400.0	848097.0
5	18	4	33	613	134.0	-175809.0	-5892529.0	846264.0
5	18	4	33	614	135.0	-174884.0	-5893086.0	844650.0
5	18	4	33	615	136.0	-173901.0	-5891669.0	843032.0
5	18	4	33	615	137.0	-173252.0	-5892031.0	842211.0
5	18	4	33	616	138.0	-172554.0	-5891494.0	841463.0
5	18	4	33	616	139.0	-172380.0	-5893254.0	839882.0
5	18	4	33	617	140.0	-172491.0	-5893508.0	838248.0
5	18	4	33	617	141.0	-172679.0	-5892479.0	836766.0
5	18	4	33	618	142.0	-172882.0	-5893662.0	834974.0
5	18	4	33	619	143.0	-172939.0	-5895248.0	833534.0
5	18	4	33	619	144.0	-172542.0	-5893172.0	831774.0
5	18	4	33	620	145.0	-171741.0	-5892724.0	829464.0
5	18	4	33	620	152.0	-159684.0	-5893187.0	817572.0
5	18	4	33	621	153.0	-156830.0	-5893597.0	814994.0
5	18	4	33	622	154.0	-154241.0	-5892886.0	812498.0
5	18	4	33	622	155.0	-151366.0	-5895291.0	810556.0
5	18	4	33	623	156.0	-148589.0	-5894381.0	810834.0
5	18	4	33	623	157.0	-146076.0	-5893831.0	810165.0
5	18	4	33	624	158.0	-143699.0	-5899896.0	809001.0
5	18	4	33	624	159.0	-142036.0	-5895536.0	808205.0
5	18	4	33	634	160.0	-140902.0	-5891071.0	806026.0
5	18	4	33	635	161.0	-140377.0	-5891529.0	803643.0
5	18	4	33	635	162.0	-140268.0	-5890632.0	801053.0
5	18	4	33	636	163.0	-139854.0	-5891140.0	798561.0
5	18	4	33	637	164.0	-139460.0	-5893074.0	796272.0
5	18	4	33	637	165.0	-139214.0	-5897219.0	795286.0
5	18	4	33	638	166.0	-138336.0	-5893437.0	794389.0
5	18	4	33	638	167.0	-137236.0	-5891696.0	793292.0
5	18	4	33	639	168.0	-135719.0	-5890426.0	792479.0
5	18	4	33	657	169.0	-132987.0	-5893336.0	790938.0
5	18	4	33	658	170.0	-129543.0	-5898214.0	789166.0
5	18	4	33	658	171.0	-126041.0	-5896462.0	786964.0
