5	18	2	34	344	45.0	-171916.0	-1077212.0	-46089.0
5	18	2	34	346	46.0	-160725.0	-1075212.0	-44609.0
5	18	2	34	348	47.0	-156302.0	-1075707.0	-43338.0
5	18	2	34	350	48.0	-164539.0	-1078451.0	-42756.0
5	18	2	34	352	49.0	-170127.0	-1080494.0	-42042.0
5	18	2	34	395	50.0	-165291.0	-1083601.0	-40799.0
5	18	2	34	396	51.0	-151913.0	-1085767.0	-40372.0
5	18	2	34	397	52.0	-148262.0	-1087714.0	-42433.0
5	18	2	34	398	53.0	-154646.0	-1086594.0	-44292.0
5	18	2	34	398	54.0	-159168.0	-1084742.0	-44672.0
5	18	2	34	399	55.0	-154859.0	-1086513.0	-44081.0
5	18	2	34	400	56.0	-144540.0	-1085988.0	-43074.0
5	18	2	34	400	57.0	-145233.0	-1079041.0	-42142.0
5	18	2	34	401	58.0	-154137.0	-1079293.0	-41348.0
5	18	2	34	402	59.0	-159641.0	-1080759.0	-41053.0
5	18	2	34	403	60.0	-155097.0	-1083302.0	-40029.0
5	18	2	34	403	61.0	-148987.0	-1085993.0	-39839.0
5	18	2	34	404	62.0	-154256.0	-1088198.0	-41411.0
5	18	2	34	405	63.0	-161635.0	-1089877.0	-43026.0
5	18	2	34	406	64.0	-164229.0	-1091646.0	-43714.0
5	18	2	34	407	65.0	-157386.0	-1093624.0	-43212.0
5	18	2	34	408	66.0	-153940.0	-1096523.0	-42099.0
5	18	2	34	409	67.0	-160776.0	-1101237.0	-41093.0
5	18	2	34	417	68.0	-166788.0	-1105996.0	-40175.0
5	18	2	34	508	69.0	-164766.0	-1112540.0	-39480.0
5	18	2	34	509	70.0	-156147.0	-1121289.0	-38197.0
5	18	2	34	510	71.0	-157844.0	-1124825.0	-38091.0
5	18	2	34	511	72.0	-165302.0	-1126551.0	-39982.0
5	18	2	34	512	73.0	-169482.0	-1125555.0	-42123.0
5	18	2	34	513	74.0	-163017.0	-1124388.0	-42723.0
5	18	2	34	515	75.0	-156409.0	-1125332.0	-42449.0
5	18	2	34	516	76.0	-162456.0	-1127661.0	-41385.0
5	18	2	34	517	77.0	-170121.0	-1130198.0	-40116.0
5	18	2	34	518	78.0	-171456.0	-1133164.0	-39390.0
5	18	2	34	519	79.0	-162929.0	-1136439.0	-38656.0
5	18	2	34	520	80.0	-159567.0	-1139855.0	-37784.0
5	18	2	34	522	81.0	-166556.0	-1143432.0	-37995.0
5	18	2	34	523	82.0	-173487.0	-1145869.0	-40300.0
5	18	2	34	524	86.0	-168332.0	-1150269.0	-41131.0
5	18	2	34	525	131.0	-161972.0	-1274203.0	-34046.0
5	18	2	34	526	132.0	-162249.0	-1265593.0	-36387.0
5	18	2	34	528	133.0	-162440.0	-1264545.0	-37246.0
5	18	2	34	529	134.0	-162347.0	-1264145.0	-37250.0
5	18	2	34	530	135.0	-162216.0	-1263683.0	-37601.0
5	18	2	34	532	136.0	-162124.0	-1265644.0	-36409.0
5	18	2	34	533	137.0	-161915.0	-1268613.0	-35197.0
5	18	2	34	552	138.0	-161813.0	-1271746.0	-34256.0
5	18	2	34	554	139.0	-161835.0	-1274816.0	-34004.0
5	18	2	34	555	140.0	-161473.0	-1278557.0	-32731.0
5	18	2	34	557	141.0	-161187.0	-1282079.0	-33777.0
5	18	2	34	558	142.0	-160545.0	-1292126.0	-35079.0
5	18	2	34	560	143.0	-159380.0	-1298281.0	-36776.0
5	18	2	34	562	144.0	-158955.0	-1299824.0	-36793.0
5	18	2	34	564	145.0	-158886.0	-1300528.0	-35847.0
5	18	2	34	565	146.0	-159311.0	-1294819.0	-35251.0
5	18	2	34	567	147.0	-159047.0	-1295080.0	-34886.0
5	18	2	34	569	148.0	-158169.0	-1298289.0	-34302.0
5	18	2	34	570	149.0	-157585.0	-1301802.0	-33921.0
5	18	2	34	572	150.0	-157043.0	-1306394.0	-33261.0
5	18	2	34	574	151.0	-156442.0	-1309941.0	-34835.0
5	18	2	34	575	152.0	-156289.0	-1311349.0	-35986.0
5	18	2	34	577	154.0	-155623.0	-1312957.0	-37543.0
5	18	2	34	579	155.0	-157414.0	-1314636.0	-36417.0
5	18	2	34	580	156.0	-165229.0	-1317706.0	-35302.0
5	18	2	34	582	157.0	-159394.0	-1320168.0	-34378.0
5	18	2	34	583	158.0	-154216.0	-1321472.0	-33672.0
5	18	2	34	584	159.0	-168101.0	-1326702.0	-32849.0
5	18	2	34	598	160.0	-174961.0	-1331936.0	-32654.0
5	18	2	34	600	161.0	-165075.0	-1333997.0	-34786.0
5	18	2	34	602	162.0	-151882.0	-1334366.0	-36652.0
5	18	2	34	604	163.0	-158017.0	-1334588.0	-38152.0
5	18	2	34	606	164.0	-163781.0	-1335601.0	-38419.0
5	18	2	34	608	165.0	-164889.0	-1337362.0	-38124.0
5	18	2	34	610	166.0	-154567.0	-1339591.0	-36968.0
5	18	2	34	612	167.0	-143813.0	-1342306.0	-35943.0
5	18	2	34	613	168.0	-149586.0	-1344449.0	-35077.0
5	18	2	34	615	169.0	-157151.0	-1347832.0	-34332.0
5	18	2	34	616	170.0	-153899.0	-1351814.0	-33477.0
5	18	2	34	617	171.0	-140847.0	-1350647.0	-34862.0
5	18	2	34	619	172.0	-144394.0	-1350029.0	-35661.0
5	18	2	34	620	173.0	-153464.0	-1360751.0	-36946.0
5	18	2	34	621	174.0	-157809.0	-1368248.0	-36825.0
5	18	2	34	622	176.0	-139419.0	-1371552.0	-34915.0
5	18	2	34	623	177.0	-147704.0	-1374276.0	-34536.0
5	18	2	34	623	178.0	-158297.0	-1376727.0	-33910.0
5	18	2	34	624	179.0	-159782.0	-1379275.0	-33246.0
5	18	2	34	624	180.0	-147267.0	-1381811.0	-32561.0
5	18	2	34	625	181.0	-144350.0	-1383266.0	-33707.0
5	18	2	34	641	182.0	-156071.0	-1384412.0	-34582.0
5	18	2	34	642	183.0	-164807.0	-1384626.0	-35212.0
5	18	2	34	642	184.0	-161996.0	-1385717.0	-34766.0
5	18	2	34	643	185.0	-150516.0	-1387439.0	-33528.0
5	18	2	34	643	186.0	-153826.0	-1390004.0	-32070.0
5	18	2	34	644	187.0	-167619.0	-1392295.0	-31166.0
5	18	2	34	644	188.0	-176334.0	-1394741.0	-30981.0
5	18	2	34	645	189.0	-169902.0	-1398001.0	-30359.0
5	18	2	34	645	190.0	-159315.0	-1401374.0	-30840.0
5	18	2	34	645	191.0	-167327.0	-1403616.0	-32272.0
5	18	2	34	646	192.0	-179560.0	-1404375.0	-33974.0
5	18	2	34	646	193.0	-183381.0	-1404807.0	-34835.0
5	18	2	34	653	194.0	-172518.0	-1406417.0	-35215.0
5	18	2	34	653	195.0	-163442.0	-1408179.0	-34676.0
5	18	2	34	654	196.0	-172133.0	-1410809.0	-33321.0
5	18	2	34	654	198.0	-180517.0	-1416702.0	-32149.0
5	18	2	34	655	199.0	-165192.0	-1420581.0	-31411.0
5	18	2	34	655	200.0	-158760.0	-1424106.0	-31324.0
5	18	2	34	655	201.0	-167696.0	-1433374.0	-32824.0
5	18	2	34	656	202.0	-173294.0	-1446367.0	-34546.0
5	18	2	34	656	203.0	-165772.0	-1447281.0	-35320.0
5	18	2	34	657	204.0	-148521.0	-1449005.0	-35129.0
5	18	2	34	686	205.0	-144782.0	-1450895.0	-33862.0
5	18	2	34	687	206.0	-153122.0	-1452556.0	-32681.0
5	18	2	34	687	207.0	-157606.0	-1453564.0	-31819.0
5	18	2	34	687	208.0	-147867.0	-1454591.0	-31339.0
5	18	2	34	688	209.0	-131863.0	-1457769.0	-30462.0
5	18	2	34	688	210.0	-133442.0	-1461216.0	-30486.0
5	18	2	34	689	211.0	-143077.0	-1463669.0	-31907.0
5	18	2	34	689	212.0	-146171.0	-1463252.0	-33368.0
5	18	2	34	689	213.0	-135278.0	-1454344.0	-33894.0
5	18	2	34	732	214.0	-122780.0	-1451695.0	-33680.0
5	18	2	34	733	215.0	-128610.0	-1454503.0	-33142.0
5	18	2	34	733	216.0	-139365.0	-1457455.0	-32088.0
5	18	2	34	733	217.0	-143116.0	-1460074.0	-30970.0
5	18	2	34	734	218.0	-132894.0	-1465716.0	-30691.0
5	18	2	34	734	219.0	-125699.0	-1470646.0	-30195.0
5	18	2	34	735	221.0	-145892.0	-1475232.0	-34689.0
5	18	2	34	735	222.0	-147698.0	-1472942.0	-38867.0
5	18	2	34	736	223.0	-138501.0	-1461401.0	-40292.0
5	18	2	34	736	224.0	-138019.0	-1459011.0	-41596.0
5	18	2	34	736	225.0	-148399.0	-1460864.0	-42294.0
5	18	2	34	737	226.0	-157106.0	-1463124.0	-42361.0
5	18	2	34	737	227.0	-156632.0	-1465130.0	-43693.0
5	18	2	34	738	228.0	-150457.0	-1467459.0	-47085.0
5	18	2	34	738	229.0	-154971.0	-1470175.0	-50930.0
5	18	2	34	738	243.0	-191686.0	-1465535.0	-9514.0
5	18	2	34	750	244.0	-194462.0	-1467720.0	-7423.0
5	18	2	34	750	245.0	-197230.0	-1470521.0	-6243.0
5	18	2	34	751	246.0	-198807.0	-1472796.0	-6440.0
5	18	2	34	751	247.0	-201252.0	-1474791.0	-7117.0
5	18	2	34	752	248.0	-202969.0	-1472665.0	-7752.0
5	18	2	34	752	249.0	-202534.0	-1472710.0	-8726.0
5	18	2	34	779	250.0	-201837.0	-1474506.0	-11939.0
5	18	2	34	779	251.0	-202002.0	-1471064.0	-16313.0
5	18	2	34	781	252.0	-197985.0	-1466491.0	-21579.0
5	18	2	34	782	253.0	-189239.0	-1466351.0	-25612.0
5	18	2	34	782	254.0	-176687.0	-1467118.0	-27459.0
5	18	2	34	783	255.0	-156310.0	-1468963.0	-28033.0
5	18	2	34	783	0.0	-136135.0	-1471546.0	-28501.0
5	18	2	34	784	1.0	-119361.0	-1474011.0	-28600.0
5	18	2	34	784	2.0	-103628.0	-1476971.0	-28092.0
5	18	2	34	784	3.0	-93327.0	-1480144.0	-27062.0
5	18	2	34	785	4.0	-93151.0	-1482323.0	-28050.0
5	18	2	34	785	5.0	-101036.0	-1480279.0	-29914.0
5	18	2	34	786	6.0	-115391.0	-1479143.0	-31244.0
5	18	2	34	786	7.0	-138827.0	-1479381.0	-31494.0
5	18	2	34	787	8.0	-165019.0	-1479939.0	-31182.0
5	18	2	34	787	10.0	-203003.0	-1482354.0	-30096.0
5	18	2	34	787	11.0	-214431.0	-1482187.0	-29580.0
5	18	2	34	788	12.0	-212256.0	-1484182.0	-28828.0
5	18	2	34	788	13.0	-201394.0	-1486254.0	-27883.0
5	18	2	34	789	14.0	-188915.0	-1486856.0	-29534.0
5	18	2	34	789	15.0	-167754.0	-1486670.0	-31255.0
5	18	2	34	822	16.0	-145059.0	-1485798.0	-32154.0
5	18	2	34	823	17.0	-133537.0	-1485060.0	-32508.0
5	18	2	34	823	18.0	-124287.0	-1484877.0	-32228.0
5	18	2	34	824	19.0	-112701.0	-1485874.0	-31019.0
5	18	2	34	824	20.0	-107805.0	-1486929.0	-29941.0
5	18	2	34	825	21.0	-112959.0	-1489081.0	-29464.0
5	18	2	34	825	22.0	-114894.0	-1492146.0	-29016.0
5	18	2	34	826	23.0	-113088.0	-1496351.0	-28467.0
5	18	2	34	826	24.0	-119690.0	-1495129.0	-29489.0
5	18	2	34	826	25.0	-133921.0	-1484007.0	-30869.0
5	18	2	34	827	26.0	-141016.0	-1481664.0	-32278.0
5	18	2	34	828	27.0	-141784.0	-1481645.0	-32647.0
5	18	2	34	829	28.0	-150024.0	-1482482.0	-32419.0
5	18	2	34	829	29.0	-162893.0	-1484221.0	-30844.0
5	18	2	34	830	30.0	-167987.0	-1486646.0	-29449.0
5	18	2	34	830	32.0	-160442.0	-1491910.0	-28211.0
5	18	2	34	830	33.0	-167741.0	-1494428.0	-27543.0
5	18	2	34	831	34.0	-174514.0	-1496359.0	-28357.0
5	18	2	34	831	35.0	-173851.0	-1497043.0	-29739.0
5	18	2	34	832	36.0	-163924.0	-1497039.0	-31359.0
5	18	2	34	833	37.0	-161831.0	-1497916.0	-31685.0
5	18	2	34	833	38.0	-168914.0	-1499177.0	-31122.0
5	18	2	34	867	39.0	-172467.0	-1500701.0	-30087.0
5	18	2	34	869	40.0	-163358.0	-1502283.0	-29431.0
5	18	2	34	869	41.0	-154568.0	-1504004.0	-29077.0
5	18	2	34	870	42.0	-160224.0	-1506460.0	-28557.0
5	18	2	34	870	43.0	-169998.0	-1510808.0	-28438.0
5	18	2	34	871	44.0	-172506.0	-1511817.0	-31391.0
5	18	2	34	871	45.0	-163202.0	-1511592.0	-35394.0
5	18	2	34	872	46.0	-159420.0	-1510841.0	-38434.0
5	18	2	34	872	47.0	-168475.0	-1509738.0	-39750.0
5	18	2	34	873	48.0	-176638.0	-1509133.0	-39965.0
5	18	2	34	873	49.0	-172719.0	-1509954.0	-39102.0
5	18	2	34	874	50.0	-159741.0	-1510624.0	-38413.0
5	18	2	34	874	51.0	-157442.0	-1511907.0	-38148.0
5	18	2	34	875	52.0	-163260.0	-1513403.0	-37781.0
5	18	2	34	875	53.0	-166063.0	-1514940.0	-37672.0
5	18	2	34	886	55.0	-146921.0	-1515939.0	-40956.0
5	18	2	34	886	56.0	-150424.0	-1515294.0	-42389.0
5	18	2	34	887	57.0	-158712.0	-1515254.0	-42582.0
5	18	2	34	887	58.0	-161920.0	-1516411.0	-42601.0
5	18	2	34	888	59.0	-156801.0	-1528014.0	-42015.0
5	18	2	34	888	60.0	-151604.0	-1539549.0	-41374.0
5	18	2	34	913	61.0	-153166.0	-1541332.0	-41077.0
5	18	2	34	914	62.0	-156871.0	-1542843.0	-40879.0
5	18	2	34	914	63.0	-158491.0	-1544569.0	-40441.0
5	18	2	34	956	64.0	-158402.0	-1540435.0	-41821.0
5	18	2	34	958	65.0	-159206.0	-1532821.0	-43631.0
5	18	2	34	959	66.0	-160684.0	-1530242.0	-44653.0
5	18	2	34	960	67.0	-161665.0	-1529136.0	-44771.0
5	18	2	34	961	68.0	-160506.0	-1529087.0	-44723.0
5	18	2	34	962	69.0	-158734.0	-1529741.0	-43792.0
5	18	2	34	963	70.0	-158790.0	-1530806.0	-43282.0
5	18	2	34	963	71.0	-160412.0	-1531942.0	-43112.0
5	18	2	34	964	72.0	-161836.0	-1533025.0	-42777.0
5	18	2	34	964	73.0	-162082.0	-1534191.0	-42583.0
5	18	2	34	965	74.0	-162368.0	-1534040.0	-44005.0
5	18	2	34	965	75.0	-162959.0	-1532544.0	-45629.0
5	18	2	34	966	78.0	-163712.0	-1524706.0	-46104.0
5	18	2	34	966	79.0	-163482.0	-1524927.0	-45296.0
5	18	2	34	967	80.0	-163391.0	-1526392.0	-44768.0
5	18	2	34	967	100.0	-154374.0	-1531153.0	-44487.0
5	18	2	34	968	101.0	-151764.0	-1532268.0	-43446.0
5	18	2	34	968	102.0	-149096.0	-1533349.0	-42895.0
5	18	2	34	969	103.0	-162616.0	-1534253.0	-42967.0
5	18	2	34	969	104.0	-168504.0	-1530477.0	-44256.0
5	18	2	34	970	105.0	-157818.0	-1525742.0	-45119.0
5	18	2	35	2	106.0	-157663.0	-1524960.0	-46641.0
5	18	2	35	3	107.0	-173324.0	-1524882.0	-46412.0
5	18	2	35	3	108.0	-179375.0	-1526737.0	-44564.0
5	18	2	35	4	109.0	-174587.0	-1531011.0	-43175.0
5	18	2	35	5	110.0	-163258.0	-1533283.0	-42225.0
5	18	2	35	6	111.0	-165207.0	-1533125.0	-41524.0
5	18	2	35	7	112.0	-175529.0	-1534717.0	-40341.0
5	18	2	35	9	113.0	-179501.0	-1547074.0	-40775.0
5	18	2	35	9	114.0	-168334.0	-1552278.0	-41732.0
5	18	2	35	10	115.0	-163754.0	-1550610.0	-42684.0
5	18	2	35	10	116.0	-171870.0	-1548637.0	-43737.0
5	18	2	35	11	117.0	-176324.0	-1547018.0	-43115.0
5	18	2	35	11	118.0	-169084.0	-1547060.0	-41647.0
5	18	2	35	12	119.0	-154951.0	-1548416.0	-40703.0
5	18	2	35	12	120.0	-158033.0	-1557988.0	-40171.0
5	18	2	35	13	122.0	-170514.0	-1571485.0	-38160.0
5	18	2	35	13	123.0	-158424.0	-1572301.0	-38144.0
5	18	2	35	47	124.0	-151332.0	-1570634.0	-39329.0
5	18	2	35	48	125.0	-160872.0	-1559853.0	-40921.0
5	18	2	35	50	126.0	-168347.0	-1554579.0	-40997.0
5	18	2	35	51	127.0	-163282.0	-1553466.0	-40620.0
5	18	2	35	52	128.0	-149863.0	-1553292.0	-39884.0
5	18	2	35	53	129.0	-153392.0	-1554803.0	-38836.0
5	18	2	35	53	130.0	-162553.0	-1556622.0	-38269.0
5	18	2	35	54	131.0	-165501.0	-1557987.0	-37529.0
5	18	2	35	55	132.0	-153021.0	-1558906.0	-36032.0
5	18	2	35	55	133.0	-145966.0	-1559435.0	-36367.0
5	18	2	35	56	134.0	-155619.0	-1559129.0	-37789.0
5	18	2	35	57	135.0	-164044.0	-1558490.0	-39309.0
5	18	2	35	57	136.0	-160381.0	-1557141.0	-40196.0
5	18	2	35	58	137.0	-145740.0	-1554973.0	-40122.0
5	18	2	35	58	138.0	-147602.0	-1554531.0	-38814.0
5	18	2	35	59	145.0	-172559.0	-1561872.0	-38490.0
5	18	2	35	59	146.0	-160637.0	-1560809.0	-39411.0
5	18	2	35	60	147.0	-159484.0	-1561591.0	-38414.0
5	18	2	35	60	148.0	-172888.0	-1563520.0	-36228.0
5	18	2	35	61	149.0	-183094.0	-1565146.0	-35227.0
5	18	2	35	61	150.0	-178530.0	-1566932.0	-34871.0
5	18	2	35	91	151.0	-163221.0	-1575191.0	-34406.0
5	18	2	35	92	152.0	-162082.0	-1583495.0	-32949.0
5	18	2	35	93	153.0	-161689.0	-1586462.0	-33509.0
5	18	2	35	94	154.0	-144816.0	-1587137.0	-36074.0
5	18	2	35	94	155.0	-116078.0	-1586179.0	-38346.0
5	18	2	35	95	156.0	-104886.0	-1585207.0	-38031.0
5	18	2	35	95	157.0	-130788.0	-1587639.0	-36928.0
5	18	2	35	96	158.0	-165728.0	-1592564.0	-35662.0
5	18	2	35	97	159.0	-192459.0	-1594639.0	-34454.0
5	18	2	35	97	160.0	-199264.0	-1596276.0	-32869.0
5	18	2	35	98	161.0	-199855.0	-1598645.0	-31977.0
5	18	2	35	98	162.0	-209278.0	-1601488.0	-31000.0
5	18	2	35	99	163.0	-212066.0	-1603514.0	-32005.0
5	18	2	35	99	164.0	-195792.0	-1604175.0	-34234.0
5	18	2	35	100	165.0	-165659.0	-1603066.0	-36776.0
5	18	2	35	101	167.0	-149092.0	-1600614.0	-36684.0
5	18	2	35	101	168.0	-146119.0	-1598056.0	-35011.0
5	18	2	35	102	169.0	-131584.0	-1586879.0	-33696.0
5	18	2	35	102	170.0	-116489.0	-1585554.0	-32684.0
5	18	2	35	103	171.0	-123599.0	-1588200.0	-31755.0
5	18	2	35	103	172.0	-142896.0	-1591977.0	-30294.0
5	18	2	35	136	173.0	-157721.0	-1594685.0	-31902.0
5	18	2	35	137	174.0	-156139.0	-1595854.0	-33766.0
5	18	2	35	138	175.0	-152627.0	-1596771.0	-35423.0
5	18	2	35	138	176.0	-165745.0	-1592487.0	-35586.0
5	18	2	35	148	177.0	-179931.0	-1579233.0	-35252.0
5	18	2	35	148	178.0	-182466.0	-1578677.0	-34289.0
5	18	2	35	149	179.0	-167874.0	-1581504.0	-33239.0
5	18	2	35	227	180.0	-154995.0	-1583919.0	-32226.0
5	18	2	35	228	181.0	-158329.0	-1585749.0	-31274.0
5	18	2	35	229	182.0	-161981.0	-1577887.0	-30569.0
5	18	2	35	230	183.0	-155214.0	-1572950.0	-31527.0
5	18	2	35	232	184.0	-135431.0	-1573942.0	-33504.0
5	18	2	35	232	185.0	-125722.0	-1572947.0	-35117.0
5	18	2	35	233	186.0	-134624.0	-1570614.0	-34974.0
5	18	2	35	234	187.0	-144200.0	-1570021.0	-34778.0
5	18	2	35	235	189.0	-133616.0	-1572811.0	-32378.0
5	18	2	35	236	190.0	-134662.0	-1574911.0	-31189.0
5	18	2	35	237	191.0	-149381.0	-1577476.0	-29967.0
5	18	2	35	238	192.0	-162334.0	-1582436.0	-29296.0
5	18	2	35	238	193.0	-163127.0	-1584614.0	-30347.0
5	18	2	35	239	194.0	-154932.0	-1584724.0	-31973.0
5	18	2	35	240	195.0	-158815.0	-1584127.0	-33017.0
5	18	2	35	241	234.0	-161324.0	-1656576.0	-28592.0
5	18	2	35	241	235.0	-167709.0	-1655110.0	-28420.0
5	18	2	35	242	236.0	-165262.0	-1654522.0	-27354.0
5	18	2	35	242	237.0	-155047.0	-1657148.0	-27542.0
5	18	2	35	243	238.0	-155149.0	-1670697.0	-27374.0
5	18	2	35	243	239.0	-162071.0	-1675354.0	-26696.0
5	18	2	35	244	240.0	-165834.0	-1676713.0	-26244.0
5	18	2	35	270	241.0	-158187.0	-1678785.0	-25222.0
5	18	2	35	272	242.0	-151240.0	-1681041.0	-24624.0
5	18	2	35	273	243.0	-158474.0	-1683106.0	-25965.0
5	18	2	35	274	244.0	-166801.0	-1683542.0	-27934.0
5	18	2	35	274	245.0	-168476.0	-1688181.0	-28196.0
5	18	2	35	275	246.0	-159734.0	-1692824.0	-28084.0
5	18	2	35	276	247.0	-156536.0	-1693051.0	-27654.0
5	18	2	35	276	248.0	-162002.0	-1693906.0	-27174.0
5	18	2	35	277	249.0	-164114.0	-1694981.0	-26528.0
5	18	2	35	278	250.0	-154814.0	-1697524.0	-25828.0
5	18	2	35	278	251.0	-139839.0	-1701489.0	-24630.0
5	18	2	35	279	252.0	-139399.0	-1704561.0	-24484.0
5	18	2	35	280	253.0	-144480.0	-1704834.0	-26094.0
5	18	2	35	280	254.0	-144917.0	-1702712.0	-27481.0
5	18	2	35	281	255.0	-133947.0	-1701216.0	-28239.0
5	18	2	35	282	1.0	-133274.0	-1701749.0	-27549.0
5	18	2	35	282	2.0	-142172.0	-1701904.0	-26802.0
5	18	2	35	283	3.0	-144224.0	-1703419.0	-26046.0
5	18	2	35	283	4.0	-136619.0	-1705577.0	-25494.0
5	18	2	35	284	5.0	-139246.0	-1708632.0	-23926.0
5	18	2	35	285	6.0	-152104.0	-1711206.0	-24429.0
5	18	2	35	316	7.0	-161584.0	-1711997.0	-25456.0
5	18	2	35	317	8.0	-159360.0	-1711750.0	-27901.0
5	18	2	35	318	9.0	-152596.0	-1711175.0	-27824.0
5	18	2	35	319	10.0	-159354.0	-1710178.0	-27231.0
5	18	2	35	319	11.0	-169735.0	-1709906.0	-26941.0
5	18	2	35	320	12.0	-173183.0	-1710966.0	-26529.0
5	18	2	35	321	13.0	-164227.0	-1713910.0	-26118.0
5	18	2	35	321	14.0	-158860.0	-1719599.0	-25859.0
5	18	2	35	322	15.0	-166345.0	-1720402.0	-24881.0
5	18	2	35	323	16.0	-173102.0	-1712089.0	-24649.0
5	18	2	35	323	17.0	-170020.0	-1709521.0	-26177.0
5	18	2	35	324	18.0	-159583.0	-1708591.0	-27805.0
5	18	2	35	325	19.0	-161169.0	-1707924.0	-27970.0
5	18	2	35	326	20.0	-169128.0	-1708170.0	-27126.0
5	18	2	35	326	21.0	-171865.0	-1707861.0	-25714.0
5	18	2	35	327	23.0	-155412.0	-1715164.0	-25106.0
5	18	2	35	328	24.0	-160570.0	-1721357.0	-24651.0
5	18	2	35	328	25.0	-166159.0	-1721394.0	-23521.0
5	18	2	35	329	26.0	-161746.0	-1710753.0	-23689.0
5	18	2	35	329	27.0	-151074.0	-1708321.0	-25698.0
5	18	2	35	330	28.0	-151312.0	-1708114.0	-27665.0
5	18	2	35	331	29.0	-157451.0	-1707936.0	-27424.0
5	18	2	35	361	30.0	-156892.0	-1708136.0	-27163.0
5	18	2	35	363	31.0	-148695.0	-1708611.0	-26300.0
5	18	2	35	364	32.0	-145488.0	-1709407.0	-25701.0
5	18	2	35	365	33.0	-151410.0	-1711606.0	-24825.0
5	18	2	35	365	34.0	-154268.0	-1716166.0	-24200.0
5	18	2	35	366	35.0	-149172.0	-1719969.0	-22782.0
5	18	2	35	367	36.0	-145074.0	-1722434.0	-23567.0
5	18	2	35	368	37.0	-150009.0	-1723001.0	-25416.0
5	18	2	35	368	38.0	-157032.0	-1722306.0	-26982.0
5	18	2	35	369	39.0	-156344.0	-1721072.0	-27163.0
5	18	2	35	370	40.0	-151902.0	-1720274.0	-26450.0
5	18	2	35	370	41.0	-153470.0	-1720999.0	-25366.0
5	18	2	35	371	42.0	-161477.0	-1722394.0	-25112.0
5	18	2	35	372	43.0	-165447.0	-1723769.0	-24792.0
5	18	2	35	372	44.0	-162212.0	-1725666.0	-23851.0
5	18	2	35	373	46.0	-164751.0	-1728303.0	-23349.0
5	18	2	35	374	47.0	-169075.0	-1725447.0	-24751.0
5	18	2	35	374	48.0	-167017.0	-1723486.0	-27346.0
5	18	2	35	375	49.0	-163907.0	-1722547.0	-26141.0
5	18	2	35	375	50.0	-166196.0	-1721883.0	-25441.0
5	18	2	35	376	51.0	-171316.0	-1722455.0	-24766.0
5	18	2	35	406	52.0	-171407.0	-1724296.0	-24431.0
5	18	2	35	407	53.0	-167364.0	-1725821.0	-23944.0
5	18	2	35	408	54.0	-166510.0	-1726780.0	-23404.0
5	18	2	35	452	55.0	-168831.0	-1730033.0	-22809.0
5	18	2	35	452	56.0	-168418.0	-1732304.0	-22898.0
5	18	2	35	453	57.0	-164839.0	-1733281.0	-24759.0
5	18	2	35	454	58.0	-163601.0	-1732484.0	-26601.0
5	18	2	35	455	59.0	-165107.0	-1730991.0	-26520.0
5	18	2	35	455	60.0	-164826.0	-1730544.0	-26714.0
5	18	2	35	456	61.0	-161511.0	-1731215.0	-25771.0
5	18	2	35	457	62.0	-159959.0	-1732477.0	-25176.0
5	18	2	35	458	63.0	-160756.0	-1734106.0	-24571.0
5	18	2	35	458	64.0	-160351.0	-1736299.0	-23872.0
5	18	2	35	459	65.0	-157609.0	-1739021.0	-23501.0
5	18	2	35	459	66.0	-156932.0	-1740508.0	-24378.0
5	18	2	35	460	68.0	-156971.0	-1738188.0	-27490.0
5	18	2	35	461	69.0	-155558.0	-1737451.0	-27332.0
5	18	2	35	461	70.0	-155462.0	-1736721.0	-26956.0
5	18	2	35	462	91.0	-175755.0	-1783769.0	-22553.0
5	18	2	35	497	92.0	-176952.0	-1784632.0	-21727.0
5	18	2	35	498	93.0	-178028.0	-1786583.0	-20901.0
5	18	2	35	498	94.0	-179085.0	-1789001.0	-19519.0
5	18	2	35	499	95.0	-179342.0	-1792629.0	-19422.0
5	18	2	35	500	96.0	-179474.0	-1798637.0	-20914.0
5	18	2	35	501	97.0	-179176.0	-1804663.0	-23669.0
5	18	2	35	502	98.0	-178192.0	-1805062.0	-24584.0
5	18	2	35	502	99.0	-175687.0	-1804842.0	-24870.0
5	18	2	35	503	100.0	-173451.0	-1805106.0	-24109.0
5	18	2	35	504	101.0	-171432.0	-1806626.0	-22611.0
5	18	2	35	505	102.0	-168490.0	-1808403.0	-21539.0
5	18	2	35	505	103.0	-164913.0	-1810264.0	-20417.0
5	18	2	35	506	104.0	-161604.0	-1812221.0	-18972.0
5	18	2	35	507	105.0	-157809.0	-1814896.0	-19209.0
5	18	2	35	508	106.0	-154803.0	-1815734.0	-20509.0
5	18	2	35	508	107.0	-151895.0	-1814498.0	-22376.0
5	18	2	35	509	113.0	-140818.0	-1820294.0	-20577.0
5	18	2	35	510	114.0	-140238.0	-1835832.0	-19949.0
5	18	2	35	510	115.0	-140622.0	-1839533.0	-19386.0
5	18	2	35	511	116.0	-141051.0	-1844659.0	-21051.0
5	18	2	35	512	117.0	-141053.0	-1851864.0	-24379.0
5	18	2	35	512	118.0	-141349.0	-1851096.0	-26512.0
5	18	2	35	513	119.0	-142190.0	-1849342.0	-28684.0
5	18	2	35	542	120.0	-143281.0	-1848230.0	-29517.0
5	18	2	35	542	121.0	-144806.0	-1848749.0	-30184.0
5	18	2	35	543	122.0	-146782.0	-1850204.0	-31322.0
5	18	2	35	544	123.0	-148879.0	-1851758.0	-32026.0
5	18	2	35	545	124.0	-151169.0	-1853324.0	-32757.0
5	18	2	35	546	125.0	-153714.0	-1855224.0	-35782.0
5	18	2	35	547	126.0	-156229.0	-1856199.0	-42640.0
5	18	2	35	548	127.0	-158393.0	-1855715.0	-48467.0
5	18	2	35	548	128.0	-160581.0	-1854050.0	-50573.0
5	18	2	35	549	129.0	-162044.0	-1852751.0	-47362.0
5	18	2	35	550	130.0	-162846.0	-1852718.0	-41792.0
5	18	2	35	551	131.0	-163617.0	-1853846.0	-34353.0
5	18	2	35	551	132.0	-164042.0	-1855004.0	-28299.0
5	18	2	35	552	133.0	-164047.0	-1856980.0	-26536.0
5	18	2	35	553	134.0	-165013.0	-1859653.0	-24340.0
5	18	2	35	553	135.0	-167276.0	-1862516.0	-21506.0
5	18	2	35	554	136.0	-170074.0	-1863280.0	-18689.0
5	18	2	35	555	137.0	-173287.0	-1862586.0	-16527.0
5	18	2	35	555	138.0	-177749.0	-1861604.0	-13019.0
5	18	2	35	556	139.0	-182098.0	-1860857.0	-7685.0
5	18	2	35	557	140.0	-185519.0	-1860599.0	-2788.0
5	18	2	35	557	141.0	-188766.0	-1861869.0	-322.0
5	18	2	35	587	142.0	-191713.0	-1863646.0	1228.0
5	18	2	35	588	143.0	-193836.0	-1865817.0	1132.0
5	18	2	35	589	144.0	-195014.0	-1869358.0	952.0
5	18	2	35	590	145.0	-196486.0	-1871429.0	1063.0
5	18	2	35	590	146.0	-197595.0	-1861487.0	-2558.0
5	18	2	35	591	147.0	-197532.0	-1855038.0	-6137.0
5	18	2	35	592	148.0	-197992.0	-1854042.0	-9276.0
5	18	2	35	592	149.0	-198509.0	-1853457.0	-13096.0
5	18	2	35	593	150.0	-194759.0	-1853251.0	-15916.0
5	18	2	35	632	151.0	-184928.0	-1860036.0	-18165.0
5	18	2	35	633	152.0	-169424.0	-1872997.0	-20041.0
5	18	2	35	634	153.0	-150275.0	-1876099.0	-20344.0
5	18	2	35	634	154.0	-132529.0	-1878573.0	-19420.0
5	18	2	35	637	155.0	-115802.0	-1880876.0	-19523.0
5	18	2	35	638	156.0	-101412.0	-1881615.0	-21671.0
5	18	2	35	639	158.0	-91532.0	-1879340.0	-23836.0
5	18	2	35	640	159.0	-96924.0	-1877951.0	-24239.0
5	18	2	35	640	160.0	-110449.0	-1878081.0	-23704.0
5	18	2	35	641	161.0	-130544.0	-1878982.0	-23271.0
5	18	2	35	642	162.0	-153464.0	-1875643.0	-22399.0
5	18	2	35	643	163.0	-175017.0	-1873887.0	-21922.0
5	18	2	35	643	164.0	-191182.0	-1869364.0	-20572.0
5	18	2	35	677	165.0	-199759.0	-1865201.0	-21120.0
5	18	2	35	678	166.0	-200167.0	-1864849.0	-23014.0
5	18	2	35	679	167.0	-193306.0	-1862824.0	-24743.0
5	18	2	35	679	181.0	-147032.0	-1868609.0	-22484.0
5	18	2	35	680	182.0	-156016.0	-1869034.0	-21888.0
5	18	2	35	681	183.0	-164248.0	-1870142.0	-21541.0
5	18	2	35	682	184.0	-169332.0	-1873396.0	-20249.0
5	18	2	35	683	185.0	-172897.0	-1876069.0	-19796.0
5	18	2	35	684	186.0	-174687.0	-1879043.0	-21479.0
5	18	2	35	685	187.0	-175714.0	-1881337.0	-23104.0
5	18	2	35	686	188.0	-175679.0	-1879846.0	-23464.0
5	18	2	35	687	189.0	-175224.0	-1879317.0	-23189.0
5	18	2	35	688	190.0	-173986.0	-1879237.0	-22022.0
5	18	2	35	689	191.0	-172194.0	-1878821.0	-21211.0
5	18	2	35	690	192.0	-170194.0	-1880199.0	-20595.0
5	18	2	35	691	203.0	-171349.0	-1885113.0	-20302.0
5	18	2	35	691	204.0	-167967.0	-1888282.0	-19072.0
5	18	2	35	692	205.0	-163801.0	-1890753.0	-19997.0
5	18	2	35	693	206.0	-159796.0	-1891534.0	-21221.0
5	18	2	35	693	207.0	-155856.0	-1890276.0	-23874.0
5	18	2	35	694	208.0	-152461.0	-1888828.0	-24026.0
5	18	2	35	722	209.0	-149637.0	-1887888.0	-23636.0
5	18	2	35	723	210.0	-147686.0	-1888562.0	-22407.0
5	18	2	35	724	211.0	-146998.0	-1890093.0	-22035.0
5	18	2	35	725	212.0	-146664.0	-1889200.0	-21206.0
5	18	2	35	726	213.0	-146496.0	-1891291.0	-20269.0
5	18	2	35	727	214.0	-146917.0	-1897170.0	-19354.0
5	18	2	35	728	215.0	-147574.0	-1900911.0	-20250.0
5	18	2	35	728	216.0	-148264.0	-1901382.0	-21961.0
5	18	2	35	729	217.0	-149202.0	-1899284.0	-23586.0
5	18	2	35	730	218.0	-150554.0	-1896593.0	-23228.0
5	18	2	35	731	219.0	-151335.0	-1895504.0	-22708.0
5	18	2	35	732	220.0	-151762.0	-1894853.0	-22104.0
5	18	2	35	732	221.0	-152401.0	-1896686.0	-21863.0
5	18	2	35	733	222.0	-153474.0	-1898154.0	-21607.0
5	18	2	35	734	223.0	-154671.0	-1887997.0	-20911.0
5	18	2	35	735	225.0	-156626.0	-1885387.0	-20409.0
5	18	2	35	735	226.0	-157272.0	-1885081.0	-22554.0
5	18	2	35	736	227.0	-157954.0	-1884007.0	-23846.0
5	18	2	35	737	228.0	-158789.0	-1883319.0	-23920.0
5	18	2	35	767	229.0	-159907.0	-1883456.0	-23759.0
5	18	2	35	768	230.0	-160969.0	-1883610.0	-23039.0
5	18	2	35	769	231.0	-162257.0	-1884198.0	-22249.0
5	18	2	35	770	232.0	-163079.0	-1886272.0	-21799.0
5	18	2	35	771	233.0	-163816.0	-1890266.0	-21205.0
5	18	2	35	772	234.0	-164557.0	-1894728.0	-20202.0
5	18	2	35	773	235.0	-165248.0	-1896391.0	-21491.0
5	18	2	35	774	236.0	-165586.0	-1896517.0	-23215.0
5	18	2	35	775	237.0	-165935.0	-1894669.0	-24750.0
5	18	2	35	776	238.0	-165922.0	-1894210.0	-25156.0
5	18	2	35	777	239.0	-165257.0	-1900718.0	-24466.0
5	18	2	35	777	240.0	-165067.0	-1904292.0	-23695.0
5	18	2	35	778	241.0	-164590.0	-1905814.0	-23012.0
5	18	2	35	779	242.0	-164230.0	-1908105.0	-22221.0
5	18	2	35	780	243.0	-162986.0	-1910731.0	-21133.0
5	18	2	35	780	244.0	-162377.0	-1913851.0	-20194.0
5	18	2	35	781	248.0	-164907.0	-1912662.0	-22892.0
5	18	2	35	782	249.0	-165318.0	-1910784.0	-23139.0
5	18	2	35	782	250.0	-165877.0	-1911038.0	-22347.0
5	18	2	35	783	251.0	-166563.0	-1905509.0	-21591.0
5	18	2	35	784	252.0	-167441.0	-1897685.0	-21156.0
5	18	2	35	784	253.0	-168137.0	-1899645.0	-20039.0
5	18	2	35	813	254.0	-168799.0	-1902720.0	-19377.0
5	18	2	35	814	255.0	-169459.0	-1904508.0	-19743.0
5	18	2	35	815	0.0	-169896.0	-1904839.0	-21813.0
5	18	2	35	816	1.0	-170556.0	-1903726.0	-22677.0
5	18	2	35	817	2.0	-171147.0	-1902120.0	-22329.0
5	18	2	35	818	3.0	-171916.0	-1901001.0	-21776.0
5	18	2	35	819	4.0	-172394.0	-1901694.0	-20507.0
5	18	2	35	820	5.0	-172841.0	-1903437.0	-19877.0
5	18	2	35	821	6.0	-173366.0	-1904791.0	-19330.0
5	18	2	35	822	7.0	-173621.0	-1906890.0	-17837.0
5	18	2	35	823	8.0	-173706.0	-1909683.0	-17228.0
5	18	2	35	823	9.0	-173588.0	-1911016.0	-18803.0
5	18	2	35	824	10.0	-172762.0	-1910841.0	-20593.0
5	18	2	35	825	11.0	-172082.0	-1909278.0	-21287.0
5	18	2	35	826	12.0	-171592.0	-1908457.0	-21229.0
5	18	2	35	826	14.0	-171134.0	-1909804.0	-19604.0
5	18	2	35	827	15.0	-170864.0	-1911822.0	-18634.0
5	18	2	35	828	16.0	-170456.0	-1917907.0	-17876.0
5	18	2	35	829	17.0	-169341.0	-1924291.0	-16340.0
5	18	2	35	829	18.0	-167999.0	-1927023.0	-15380.0
5	18	2	35	830	19.0	-167137.0	-1927784.0	-16861.0
5	18	2	35	831	20.0	-167335.0	-1926991.0	-17879.0
5	18	2	35	857	21.0	-167993.0	-1925484.0	-19617.0
5	18	2	35	858	22.0	-168265.0	-1923443.0	-18633.0
5	18	2	35	859	23.0	-167060.0	-1922001.0	-17377.0
5	18	2	35	902	24.0	-166920.0	-1921417.0	-16419.0
5	18	2	35	948	25.0	-165176.0	-1921876.0	-16146.0
5	18	2	35	949	26.0	-160749.0	-1932677.0	-15880.0
5	18	2	35	950	27.0	-157837.0	-1941325.0	-14095.0
5	18	2	35	951	28.0	-154804.0	-1944370.0	-14216.0
5	18	2	35	952	29.0	-150702.0	-1945190.0	-15372.0
5	18	2	35	953	30.0	-146976.0	-1943006.0	-16829.0
5	18	2	35	954	31.0	-145952.0	-1941039.0	-17432.0
5	18	2	35	955	32.0	-144314.0	-1940791.0	-17146.0
5	18	2	35	956	33.0	-143547.0	-1940834.0	-15986.0
5	18	2	35	957	34.0	-143934.0	-1942261.0	-15459.0
5	18	2	35	958	35.0	-144297.0	-1940199.0	-14684.0
5	18	2	35	959	37.0	-147769.0	-1933687.0	-12868.0
5	18	2	35	959	38.0	-150137.0	-1935804.0	-13022.0
5	18	2	35	960	39.0	-152907.0	-1936431.0	-13970.0
5	18	2	35	961	40.0	-156377.0	-1936019.0	-16193.0
5	18	2	35	962	82.0	-149451.0	-1933260.0	-16637.0
5	18	2	35	963	83.0	-148455.0	-1934462.0	-15706.0
5	18	2	35	963	84.0	-148951.0	-1935879.0	-14993.0
5	18	2	35	964	85.0	-150568.0	-1939403.0	-14071.0
5	18	2	35	965	86.0	-152781.0	-1946371.0	-13120.0
5	18	2	35	966	87.0	-155168.0	-1950026.0	-12047.0
5	18	2	35	992	88.0	-157538.0	-1952122.0	-12812.0
5	18	2	35	993	89.0	-159516.0	-1952253.0	-14571.0
5	18	2	35	994	90.0	-161127.0	-1951334.0	-15431.0
5	18	2	35	995	91.0	-162331.0	-1949337.0	-16119.0
5	18	2	35	996	92.0	-163371.0	-1950345.0	-15286.0
5	18	2	35	997	93.0	-163962.0	-1954890.0	-14277.0
5	18	2	35	998	94.0	-164294.0	-1955899.0	-13804.0
5	18	2	35	999	95.0	-164709.0	-1957193.0	-13297.0
5	18	2	36	0	96.0	-165130.0	-1959561.0	-12282.0
5	18	2	36	1	97.0	-165146.0	-1962865.0	-11292.0
5	18	2	36	1	98.0	-165371.0	-1965045.0	-13049.0
5	18	2	36	2	99.0	-165517.0	-1965670.0	-14758.0
5	18	2	36	3	100.0	-165372.0	-1964666.0	-15530.0
5	18	2	36	4	101.0	-165197.0	-1963737.0	-15860.0
5	18	2	36	4	102.0	-165041.0	-1963689.0	-15238.0
5	18	2	36	5	104.0	-165058.0	-1965502.0	-13397.0
5	18	2	36	6	105.0	-165482.0	-1967232.0	-12834.0
5	18	2	36	7	106.0	-166061.0	-1969954.0	-12306.0
5	18	2	36	7	107.0	-167048.0	-1971847.0	-11564.0
5	18	2	36	8	108.0	-168197.0	-1972588.0	-12766.0
5	18	2	36	9	109.0	-169298.0	-1972299.0	-14416.0
5	18	2	36	36	110.0	-170381.0	-1971206.0	-15691.0
5	18	2	36	37	111.0	-171257.0	-1970489.0	-15882.0
5	18	2	36	38	112.0	-172209.0	-1970062.0	-15452.0
5	18	2	36	39	113.0	-172924.0	-1971371.0	-14586.0
5	18	2	36	40	114.0	-172936.0	-1979111.0	-13637.0
5	18	2	36	41	115.0	-172654.0	-1984082.0	-13046.0
5	18	2	36	42	116.0	-172069.0	-1986758.0	-12572.0
5	18	2	36	43	117.0	-171076.0	-1987752.0	-11377.0
5	18	2	36	44	118.0	-170257.0	-1981749.0	-12724.0
5	18	2	36	45	119.0	-169239.0	-1979887.0	-14137.0
5	18	2	36	46	120.0	-168006.0	-1978945.0	-15761.0
5	18	2	36	46	121.0	-166816.0	-1977629.0	-16157.0
5	18	2	36	47	122.0	-165579.0	-1977038.0	-15763.0
5	18	2	36	48	123.0	-164484.0	-1977551.0	-14665.0
5	18	2	36	49	124.0	-163583.0	-1977734.0	-13944.0
5	18	2	36	50	126.0	-161281.0	-1981861.0	-12581.0
5	18	2	36	50	127.0	-159994.0	-1986536.0	-11599.0
5	18	2	36	51	128.0	-159054.0	-1990300.0	-12814.0
5	18	2	36	52	129.0	-158226.0	-1990683.0	-14948.0
5	18	2	36	52	130.0	-157522.0	-1990910.0	-15591.0
5	18	2	36	53	131.0	-157176.0	-1991894.0	-15948.0
5	18	2	36	54	132.0	-157107.0	-1992092.0	-15684.0
5	18	2	36	82	133.0	-157154.0	-1992113.0	-14526.0
5	18	2	36	83	134.0	-157232.0	-1992102.0	-13167.0
5	18	2	36	84	135.0	-157316.0	-1994015.0	-12460.0
5	18	2	36	85	136.0	-157177.0	-1996723.0	-12264.0
5	18	2	36	86	137.0	-157266.0	-1996826.0	-11508.0
5	18	2	36	87	138.0	-157556.0	-1986477.0	-12419.0
5	18	2	36	88	139.0	-157695.0	-1983183.0	-13681.0
5	18	2	36	89	140.0	-158019.0	-1982232.0	-16105.0
5	18	2	36	90	141.0	-158282.0	-1982092.0	-15796.0
5	18	2	36	91	142.0	-158204.0	-1982850.0	-14829.0
5	18	2	36	92	143.0	-158230.0	-1979523.0	-13439.0
5	18	2	36	92	144.0	-158391.0	-1974656.0	-12326.0
5	18	2	36	93	145.0	-158423.0	-1976664.0	-11621.0
5	18	2	36	94	146.0	-158543.0	-1979557.0	-11004.0
5	18	2	36	95	147.0	-158617.0	-1983870.0	-10265.0
5	18	2	36	95	149.0	-158378.0	-1975420.0	-13548.0
5	18	2	36	96	150.0	-158008.0	-1969032.0	-15599.0
5	18	2	36	97	151.0	-157601.0	-1968274.0	-15950.0
5	18	2	36	97	152.0	-157404.0	-1968761.0	-14858.0
5	18	2	36	98	153.0	-157226.0	-1969994.0	-13858.0
5	18	2	36	99	154.0	-157109.0	-1971711.0	-13261.0
5	18	2	36	173	155.0	-157156.0	-1974996.0	-12422.0
5	18	2	36	174	156.0	-157612.0	-1978094.0	-11016.0
5	18	2	36	175	157.0	-158354.0	-1981427.0	-10809.0
5	18	2	36	176	158.0	-159149.0	-1983034.0	-12172.0
5	18	2	36	177	159.0	-159887.0	-1982849.0	-13812.0
5	18	2	36	178	160.0	-160511.0	-1980857.0	-14558.0
5	18	2	36	178	161.0	-160979.0	-1979452.0	-14598.0
5	18	2	36	179	162.0	-161312.0	-1979243.0	-14570.0
5	18	2	36	180	163.0	-161544.0	-1980466.0	-13882.0
5	18	2	36	180	164.0	-161655.0	-1982292.0	-13002.0
5	18	2	36	181	165.0	-161597.0	-1984790.0	-12295.0
5	18	2	36	182	166.0	-161409.0	-1987814.0	-11209.0
5	18	2	36	216	167.0	-161099.0	-1990502.0	-11101.0
5	18	2	36	217	168.0	-160507.0	-1991897.0	-12120.0
5	18	2	36	218	169.0	-159921.0	-1993006.0	-14065.0
5	18	2	36	262	194.0	-160669.0	-2021779.0	-12752.0
5	18	2	36	263	195.0	-160829.0	-2030076.0	-12911.0
5	18	2	36	264	196.0	-160814.0	-2032420.0	-11501.0
5	18	2	36	265	197.0	-160731.0	-2032757.0	-11520.0
5	18	2	36	266	198.0	-160504.0	-2032624.0	-12449.0
5	18	2	36	267	199.0	-160188.0	-2031566.0	-15022.0
5	18	2	36	268	200.0	-159968.0	-2030689.0	-15496.0
5	18	2	36	269	201.0	-159667.0	-2030027.0	-14719.0
5	18	2	36	270	202.0	-159319.0	-2029609.0	-13990.0
5	18	2	36	271	203.0	-159344.0	-2029741.0	-13808.0
5	18	2	36	272	204.0	-159292.0	-2030717.0	-13385.0
5	18	2	36	272	205.0	-158791.0	-2032849.0	-12812.0
5	18	2	36	273	206.0	-158017.0	-2035595.0	-11617.0
5	18	2	36	274	217.0	-157786.0	-2032630.0	-15924.0
5	18	2	36	275	218.0	-158831.0	-2029291.0	-17920.0
5	18	2	36	275	219.0	-160115.0	-2026753.0	-19871.0
5	18	2	36	276	239.0	-165533.0	-2036659.0	-18953.0
5	18	2	36	277	240.0	-165518.0	-2033755.0	-18748.0
5	18	2	36	277	241.0	-165450.0	-2031688.0	-18786.0
5	18	2	36	307	242.0	-165392.0	-2031259.0	-17918.0
5	18	2	36	309	243.0	-165367.0	-2032257.0	-17338.0
5	18	2	36	310	244.0	-165179.0	-2033902.0	-16749.0
5	18	2	36	311	245.0	-164717.0	-2029276.0	-16157.0
5	18	2	36	312	246.0	-164213.0	-2027497.0	-14922.0
5	18	2	36	313	247.0	-163752.0	-2029431.0	-15628.0
5	18	2	36	313	248.0	-163204.0	-2029856.0	-17746.0
5	18	2	36	315	249.0	-162517.0	-2028896.0	-19893.0
5	18	2	36	316	250.0	-161836.0	-2027577.0	-20302.0
5	18	2	36	317	251.0	-161349.0	-2026669.0	-20437.0
5	18	2	36	318	252.0	-161137.0	-2027218.0	-19653.0
5	18	2	36	319	253.0	-161047.0	-2026919.0	-18928.0
5	18	2	36	319	254.0	-160659.0	-2027831.0	-18428.0
5	18	2	36	320	255.0	-160344.0	-2031139.0	-17721.0
5	18	2	36	321	0.0	-159842.0	-2034332.0	-15857.0
5	18	2	36	322	5.0	-155734.0	-2034827.0	-18982.0
5	18	2	36	322	6.0	-155289.0	-2035269.0	-18230.0
5	18	2	36	323	7.0	-155101.0	-2036937.0	-17352.0
5	18	2	36	324	8.0	-155241.0	-2039909.0	-17332.0
5	18	2	36	324	9.0	-155251.0	-2043052.0	-17906.0
5	18	2	36	325	10.0	-155777.0	-2052506.0	-17100.0
5	18	2	36	326	11.0	-156449.0	-2063331.0	-17987.0
5	18	2	36	352	12.0	-157259.0	-2064467.0	-19161.0
5	18	2	36	395	13.0	-157423.0	-2063447.0	-22141.0
5	18	2	36	397	14.0	-157677.0	-2062361.0	-22864.0
5	18	2	36	398	15.0	-157746.0	-2061872.0	-23644.0
5	18	2	36	399	16.0	-157560.0	-2062067.0	-24789.0
5	18	2	36	399	17.0	-157679.0	-2063366.0	-25702.0
5	18	2	36	400	18.0	-157724.0	-2065608.0	-26653.0
5	18	2	36	401	19.0	-157971.0	-2068605.0	-27441.0
5	18	2	36	402	20.0	-158404.0	-2072186.0	-28055.0
5	18	2	36	403	21.0	-159251.0	-2074029.0	-32327.0
5	18	2	36	404	22.0	-159898.0	-2073796.0	-38619.0
5	18	2	36	405	23.0	-160585.0	-2073172.0	-45092.0
5	18	2	36	406	24.0	-160859.0	-2072590.0	-47572.0
5	18	2	36	406	25.0	-160490.0	-2073047.0	-45442.0
5	18	2	36	407	26.0	-159267.0	-2074780.0	-40209.0
5	18	2	36	408	28.0	-154676.0	-2081063.0	-27781.0
5	18	2	36	409	50.0	-149609.0	-2125852.0	-17191.0
5	18	2	36	409	51.0	-136887.0	-2126956.0	-19197.0
5	18	2	36	410	52.0	-123736.0	-2126422.0	-20822.0
5	18	2	36	411	53.0	-112417.0	-2125226.0	-22542.0
5	18	2	36	411	54.0	-105250.0	-2124986.0	-22710.0
5	18	2	36	441	55.0	-103750.0	-2125598.0	-22180.0
5	18	2	36	442	56.0	-109376.0	-2127729.0	-20926.0
5	18	2	36	443	57.0	-123547.0	-2133602.0	-20458.0
5	18	2	36	444	58.0	-144557.0	-2138958.0	-20466.0
5	18	2	36	445	59.0	-169006.0	-2143307.0	-19746.0
5	18	2	36	446	60.0	-192290.0	-2148647.0	-19909.0
5	18	2	36	447	61.0	-209686.0	-2150596.0	-21427.0
5	18	2	36	448	62.0	-218278.0	-2150414.0	-23372.0
5	18	2	36	449	63.0	-218769.0	-2149821.0	-25187.0
5	18	2	36	449	64.0	-211999.0	-2149329.0	-25134.0
5	18	2	36	450	65.0	-198091.0	-2149638.0	-23852.0
5	18	2	36	451	66.0	-181051.0	-2150787.0	-22991.0
5	18	2	36	452	67.0	-163912.0	-2152102.0	-22669.0
5	18	2	36	453	68.0	-149129.0	-2153483.0	-22066.0
5	18	2	36	454	69.0	-140096.0	-2155222.0	-20766.0
5	18	2	36	454	70.0	-136143.0	-2157041.0	-20938.0
5	18	2	36	455	73.0	-137883.0	-2153788.0	-25472.0
5	18	2	36	456	74.0	-137389.0	-2150047.0	-25232.0
5	18	2	36	457	75.0	-137110.0	-2146532.0	-24639.0
5	18	2	36	457	76.0	-138252.0	-2138869.0	-24037.0
5	18	2	36	458	77.0	-142021.0	-2137007.0	-23187.0
5	18	2	36	459	78.0	-147647.0	-2138939.0	-22644.0
5	18	2	36	487	79.0	-154238.0	-2142758.0	-21480.0
5	18	2	36	488	80.0	-158916.0	-2145233.0	-21304.0
5	18	2	36	489	81.0	-161489.0	-2146194.0	-23352.0
5	18	2	36	490	82.0	-161467.0	-2146122.0	-25352.0
5	18	2	36	491	83.0	-158809.0	-2145177.0	-26511.0
5	18	2	36	492	84.0	-155227.0	-2144879.0	-26206.0
5	18	2	36	493	85.0	-151149.0	-2154573.0	-25297.0
5	18	2	36	494	86.0	-147761.0	-2167831.0	-24256.0
5	18	2	36	495	87.0	-144954.0	-2171010.0	-23304.0
5	18	2	36	496	88.0	-142734.0	-2173389.0	-23010.0
5	18	2	36	497	89.0	-141134.0	-2174526.0	-21831.0
5	18	2	36	498	90.0	-140140.0	-2176169.0	-22521.0
5	18	2	36	498	91.0	-139577.0	-2177062.0	-24232.0
5	18	2	36	499	92.0	-139961.0	-2176774.0	-26159.0
5	18	2	36	500	93.0	-141753.0	-2175800.0	-27220.0
5	18	2	36	501	95.0	-148917.0	-2175406.0	-26169.0
5	18	2	36	501	96.0	-153249.0	-2176651.0	-25477.0
5	18	2	36	502	97.0	-157273.0	-2178211.0	-24282.0
5	18	2	36	503	98.0	-160467.0	-2179454.0	-22862.0
5	18	2	36	504	99.0	-162874.0	-2181838.0	-21656.0
5	18	2	36	504	100.0	-164399.0	-2183510.0	-22361.0
5	18	2	36	505	101.0	-164460.0	-2179994.0	-24586.0
5	18	2	36	532	102.0	-163802.0	-2178114.0	-26587.0
5	18	2	36	533	103.0	-161521.0	-2177112.0	-26017.0
5	18	2	36	534	104.0	-159409.0	-2176058.0	-26389.0
5	18	2	36	535	105.0	-157071.0	-2177041.0	-25982.0
5	18	2	36	536	106.0	-155517.0	-2180246.0	-25162.0
5	18	2	36	537	107.0	-154931.0	-2183209.0	-24508.0
5	18	2	36	538	108.0	-154640.0	-2186252.0	-24117.0
5	18	2	36	539	109.0	-155661.0	-2189994.0	-22857.0
5	18	2	36	540	110.0	-156592.0	-2192684.0	-22538.0
5	18	2	36	540	111.0	-158151.0	-2192007.0	-24423.0
5	18	2	36	541	112.0	-159364.0	-2190941.0	-26337.0
5	18	2	36	542	113.0	-160911.0	-2190312.0	-26481.0
5	18	2	36	543	114.0	-162185.0	-2191188.0	-26937.0
5	18	2	36	544	115.0	-163401.0	-2202269.0	-26136.0
5	18	2	36	544	116.0	-164338.0	-2210795.0	-25496.0
5	18	2	36	545	117.0	-164819.0	-2212601.0	-25102.0
5	18	2	36	546	118.0	-165712.0	-2214756.0	-24361.0
5	18	2	36	546	119.0	-166456.0	-2217794.0	-23277.0
5	18	2	36	547	120.0	-167121.0	-2220764.0	-24027.0
5	18	2	36	548	121.0	-167517.0	-2222104.0	-26022.0
5	18	2	36	549	122.0	-167880.0	-2221256.0	-27661.0
5	18	2	36	550	123.0	-167840.0	-2219617.0	-28434.0
5	18	2	36	577	124.0	-167893.0	-2219744.0	-28403.0
5	18	2	36	578	125.0	-168044.0	-2216806.0	-27704.0
5	18	2	36	622	126.0	-167904.0	-2205851.0	-27026.0
5	18	2	36	623	127.0	-167556.0	-2202767.0	-26476.0
5	18	2	36	624	128.0	-167497.0	-2197306.0	-25624.0
5	18	2	36	625	129.0	-167749.0	-2199212.0	-24087.0
5	18	2	36	626	130.0	-167882.0	-2200969.0	-24891.0
5	18	2	36	627	131.0	-167841.0	-2202195.0	-26829.0
5	18	2	36	628	132.0	-167406.0	-2201785.0	-29192.0
5	18	2	36	628	133.0	-166740.0	-2201026.0	-29309.0
5	18	2	36	629	134.0	-165451.0	-2200581.0	-29060.0
5	18	2	36	630	135.0	-164159.0	-2201111.0	-28417.0
5	18	2	36	631	136.0	-162739.0	-2203066.0	-27782.0
5	18	2	36	632	137.0	-161324.0	-2205684.0	-26784.0
5	18	2	36	633	138.0	-160269.0	-2208456.0	-26215.0
5	18	2	36	634	140.0	-158361.0	-2213042.0	-25436.0
5	18	2	36	635	141.0	-157901.0	-2213052.0	-27512.0
5	18	2	36	636	142.0	-157547.0	-2212568.0	-28851.0
5	18	2	36	637	163.0	-166511.0	-2233876.0	-27369.0
5	18	2	36	638	164.0	-167839.0	-2236044.0	-26534.0
5	18	2	36	639	165.0	-168907.0	-2249896.0	-25551.0
5	18	2	36	639	166.0	-170251.0	-2255691.0	-25230.0
5	18	2	36	640	167.0	-170889.0	-2256856.0	-24070.0
5	18	2	36	641	168.0	-171016.0	-2258219.0	-22599.0
5	18	2	36	667	169.0	-171319.0	-2260798.0	-21757.0
5	18	2	36	668	170.0	-171003.0	-2261936.0	-22226.0
5	18	2	36	669	171.0	-170210.0	-2262137.0	-23634.0
5	18	2	36	670	172.0	-169289.0	-2261646.0	-24436.0
5	18	2	36	671	173.0	-168164.0	-2261152.0	-24431.0
5	18	2	36	672	174.0	-166777.0	-2261430.0	-24357.0
5	18	2	36	673	175.0	-165371.0	-2262574.0	-23423.0
5	18	2	36	674	176.0	-163953.0	-2263513.0	-22833.0
5	18	2	36	675	177.0	-162519.0	-2265547.0	-22191.0
5	18	2	36	676	178.0	-160018.0	-2269926.0	-20826.0
5	18	2	36	676	179.0	-158612.0	-2275291.0	-20116.0
5	18	2	36	677	180.0	-156764.0	-2278477.0	-20474.0
5	18	2	36	678	181.0	-155459.0	-2279895.0	-22466.0
5	18	2	36	679	182.0	-154692.0	-2279116.0	-23585.0
5	18	2	36	679	183.0	-153643.0	-2278595.0	-23329.0
5	18	2	36	680	185.0	-152669.0	-2278438.0	-22148.0
5	18	2	36	681	186.0	-152776.0	-2280777.0	-21757.0
5	18	2	36	682	187.0	-153531.0	-2283231.0	-21108.0
5	18	2	36	682	188.0	-154701.0	-2286177.0	-20379.0
5	18	2	36	683	189.0	-156740.0	-2286447.0	-19398.0
5	18	2	36	684	190.0	-159225.0	-2284019.0	-20746.0
5	18	2	36	713	191.0	-162006.0	-2284727.0	-22598.0
5	18	2	36	714	192.0	-164682.0	-2286461.0	-23854.0
5	18	2	36	715	193.0	-167529.0	-2286767.0	-23861.0
5	18	2	36	715	194.0	-170268.0	-2291407.0	-23390.0
5	18	2	36	716	195.0	-172534.0	-2297206.0	-22536.0
5	18	2	36	718	196.0	-173576.0	-2298571.0	-21789.0
5	18	2	36	718	197.0	-172751.0	-2300457.0	-20992.0
5	18	2	36	719	198.0	-168714.0	-2303747.0	-19806.0
5	18	2	36	720	199.0	-158339.0	-2308454.0	-19326.0
5	18	2	36	721	200.0	-136565.0	-2311925.0	-20702.0
5	18	2	36	722	201.0	-110254.0	-2309826.0	-21972.0
5	18	2	36	723	202.0	-94916.0	-2300026.0	-23666.0
5	18	2	36	724	203.0	-104521.0	-2298065.0	-23416.0
5	18	2	36	725	204.0	-129080.0	-2298972.0	-22524.0
5	18	2	36	725	205.0	-160466.0	-2300936.0	-21727.0
5	18	2	36	726	207.0	-214592.0	-2306127.0	-20776.0
5	18	2	36	727	208.0	-222201.0	-2309979.0	-19092.0
5	18	2	36	727	209.0	-223098.0	-2314367.0	-18990.0
5	18	2	36	728	210.0	-217141.0	-2323551.0	-19934.0
5	18	2	36	729	211.0	-208881.0	-2331141.0	-22480.0
5	18	2	36	729	212.0	-198697.0	-2330366.0	-23393.0
5	18	2	36	730	213.0	-187635.0	-2329660.0	-22184.0
5	18	2	36	757	214.0	-177441.0	-2329952.0	-21302.0
5	18	2	36	758	215.0	-166385.0	-2332120.0	-21270.0
5	18	2	36	759	216.0	-154409.0	-2335192.0	-20991.0
5	18	2	36	760	217.0	-142469.0	-2338549.0	-20447.0
5	18	2	36	761	218.0	-133232.0	-2342440.0	-19399.0
5	18	2	36	761	219.0	-128622.0	-2346409.0	-18924.0
5	18	2	36	762	220.0	-126792.0	-2347810.0	-20199.0
5	18	2	36	763	221.0	-127514.0	-2347891.0	-22324.0
5	18	2	36	764	222.0	-130912.0	-2347371.0	-22308.0
5	18	2	36	764	223.0	-137396.0	-2347099.0	-22318.0
5	18	2	36	765	224.0	-145105.0	-2347648.0	-21846.0
5	18	2	36	766	225.0	-152311.0	-2349561.0	-20962.0
5	18	2	36	801	226.0	-157682.0	-2352886.0	-20264.0
5	18	2	36	802	227.0	-160879.0	-2356104.0	-19854.0
5	18	2	36	846	228.0	-161102.0	-2359355.0	-18579.0
5	18	2	36	847	230.0	-153474.0	-2354368.0	-19838.0
5	18	2	36	848	231.0	-148131.0	-2354416.0	-21664.0
5	18	2	36	849	232.0	-142556.0	-2354195.0	-22649.0
5	18	2	36	850	233.0	-138206.0	-2354264.0	-22679.0
5	18	2	36	850	234.0	-135078.0	-2355232.0	-21873.0
5	18	2	36	892	235.0	-134352.0	-2358229.0	-21233.0
5	18	2	36	893	236.0	-134991.0	-2360126.0	-20532.0
5	18	2	36	894	237.0	-137191.0	-2360519.0	-19961.0
5	18	2	36	895	238.0	-142042.0	-2363164.0	-18204.0
5	18	2	36	896	239.0	-147360.0	-2364651.0	-18313.0
5	18	2	36	896	240.0	-153546.0	-2365871.0	-19594.0
5	18	2	36	897	241.0	-159846.0	-2366156.0	-21549.0
5	18	2	36	937	242.0	-165674.0	-2365997.0	-22024.0
5	18	2	36	938	252.0	-176583.0	-2405781.0	-22012.0
5	18	2	36	939	253.0	-175646.0	-2410033.0	-21361.0
5	18	2	36	940	19.0	-168531.0	-2456616.0	-19601.0
5	18	2	36	941	20.0	-168336.0	-2456816.0	-18783.0
5	18	2	36	942	21.0	-167933.0	-2459461.0	-18547.0
5	18	2	36	943	22.0	-167392.0	-2463520.0	-16722.0
5	18	2	36	943	23.0	-167152.0	-2467084.0	-17791.0
5	18	2	36	944	24.0	-167129.0	-2469693.0	-19186.0
5	18	2	36	945	41.0	-166044.0	-2509582.0	-17467.0
5	18	2	36	945	42.0	-164761.0	-2513614.0	-16185.0
5	18	2	36	946	43.0	-163516.0	-2515956.0	-17341.0
5	18	2	36	947	44.0	-162519.0	-2512996.0	-18892.0
5	18	2	36	982	45.0	-161848.0	-2508374.0	-21459.0
5	18	2	36	983	46.0	-161184.0	-2501724.0	-21396.0
5	18	2	36	984	63.0	-157962.0	-2516340.0	-17484.0
5	18	2	36	985	64.0	-159336.0	-2518593.0	-19379.0
5	18	2	36	986	65.0	-160674.0	-2518371.0	-21322.0
5	18	2	36	987	66.0	-162052.0	-2519533.0	-21237.0
5	18	2	36	987	67.0	-163618.0	-2520886.0	-19884.0
5	18	2	36	988	68.0	-165016.0	-2527121.0	-18426.0
5	18	2	36	989	69.0	-166136.0	-2538383.0	-17780.0
5	18	2	36	990	70.0	-166621.0	-2542493.0	-16959.0
5	18	2	36	991	71.0	-166811.0	-2546154.0	-16186.0
5	18	2	36	992	72.0	-166546.0	-2550377.0	-15671.0
5	18	2	36	992	73.0	-165664.0	-2552654.0	-17350.0
5	18	2	36	993	74.0	-164448.0	-2553866.0	-18943.0
5	18	2	36	994	75.0	-163055.0	-2553074.0	-21566.0
5	18	2	36	995	76.0	-161082.0	-2558458.0	-20742.0
5	18	2	36	996	86.0	-148692.0	-2586245.0	-20434.0
5	18	2	36	996	87.0	-148582.0	-2586840.0	-19627.0
5	18	2	36	997	88.0	-148433.0	-2588532.0	-18317.0
5	18	2	36	998	89.0	-148407.0	-2589739.0	-17423.0
5	18	2	36	998	90.0	-148436.0	-2591797.0	-16733.0
5	18	2	36	999	91.0	-148669.0	-2593566.0	-15498.0
5	18	2	37	0	92.0	-149422.0	-2590577.0	-15278.0
5	18	2	37	29	93.0	-150404.0	-2590541.0	-16388.0
5	18	2	37	30	94.0	-151559.0	-2590819.0	-18679.0
5	18	2	37	30	95.0	-152889.0	-2590525.0	-19956.0
5	18	2	37	31	96.0	-154417.0	-2590201.0	-20271.0
5	18	2	37	32	97.0	-155686.0	-2591091.0	-19737.0
5	18	2	37	33	98.0	-157061.0	-2594794.0	-18566.0
5	18	2	37	34	99.0	-158286.0	-2599824.0	-17890.0
5	18	2	37	35	100.0	-159611.0	-2603016.0	-17358.0
5	18	2	37	36	101.0	-161019.0	-2606472.0	-16357.0
5	18	2	37	37	102.0	-162158.0	-2610489.0	-15892.0
5	18	2	37	37	103.0	-163131.0	-2612023.0	-17879.0
5	18	2	37	38	104.0	-164591.0	-2613247.0	-20338.0
5	18	2	37	39	105.0	-166090.0	-2613629.0	-21538.0
5	18	2	37	40	106.0	-167295.0	-2613930.0	-21699.0
5	18	2	37	40	107.0	-168729.0	-2614587.0	-21258.0
5	18	2	37	41	108.0	-169866.0	-2616506.0	-20030.0
5	18	2	37	42	109.0	-170814.0	-2618836.0	-18912.0
5	18	2	37	42	110.0	-171691.0	-2622038.0	-18307.0
5	18	2	37	43	111.0	-172346.0	-2626487.0	-17282.0
5	18	2	37	44	112.0	-172716.0	-2630576.0	-16886.0
5	18	2	37	44	113.0	-173092.0	-2637628.0	-18431.0
5	18	2	37	45	114.0	-173250.0	-2644441.0	-20557.0
5	18	2	37	83	115.0	-173127.0	-2644278.0	-22236.0
5	18	2	37	84	116.0	-172877.0	-2644269.0	-22487.0
5	18	2	37	116	117.0	-172879.0	-2645164.0	-21896.0
5	18	2	37	118	118.0	-172654.0	-2646952.0	-20224.0
5	18	2	37	118	119.0	-172231.0	-2649624.0	-18946.0
5	18	2	37	119	120.0	-171757.0	-2652945.0	-18337.0
5	18	2	37	120	121.0	-170562.0	-2656626.0	-16327.0
5	18	2	37	121	122.0	-168981.0	-2659924.0	-16069.0
5	18	2	37	122	123.0	-167410.0	-2661816.0	-17212.0
5	18	2	37	123	124.0	-165389.0	-2663229.0	-19729.0
5	18	2	37	124	125.0	-163736.0	-2663006.0	-20679.0
5	18	2	37	125	126.0	-162690.0	-2662281.0	-19244.0
5	18	2	37	126	127.0	-161529.0	-2663366.0	-18534.0
5	18	2	37	127	128.0	-160662.0	-2666622.0	-18201.0
5	18	2	37	128	129.0	-159611.0	-2670376.0	-17485.0
5	18	2	37	128	131.0	-157559.0	-2678839.0	-14904.0
5	18	2	37	129	132.0	-156721.0	-2682556.0	-14980.0
5	18	2	37	130	133.0	-156182.0	-2684924.0	-16274.0
5	18	2	37	131	153.0	-153114.0	-2744836.0	-16590.0
5	18	2	37	131	154.0	-152240.0	-2746350.0	-17654.0
5	18	2	37	132	155.0	-151642.0	-2741764.0	-18765.0
5	18	2	37	133	156.0	-151031.0	-2739789.0	-18402.0
5	18	2	37	133	157.0	-150492.0	-2741429.0	-17770.0
5	18	2	37	134	158.0	-150394.0	-2743900.0	-17724.0
5	18	2	37	135	159.0	-150476.0	-2746742.0	-17069.0
5	18	2	37	161	160.0	-150793.0	-2750143.0	-16469.0
5	18	2	37	183	161.0	-151006.0	-2755461.0	-15309.0
5	18	2	37	184	162.0	-151699.0	-2759952.0	-16348.0
5	18	2	37	185	163.0	-152524.0	-2762023.0	-19441.0
5	18	2	37	186	164.0	-153387.0	-2762457.0	-23913.0
5	18	2	37	187	165.0	-154507.0	-2762562.0	-24950.0
5	18	2	37	187	166.0	-155671.0	-2763094.0	-26785.0
5	18	2	37	188	167.0	-156969.0	-2765203.0	-27130.0
5	18	2	37	189	168.0	-158262.0	-2768023.0	-27758.0
5	18	2	37	190	169.0	-159544.0	-2770749.0	-30344.0
5	18	2	37	190	170.0	-160764.0	-2772384.0	-34306.0
5	18	2	37	191	171.0	-161699.0	-2775168.0	-37226.0
5	18	2	37	192	172.0	-162557.0	-2778680.0	-40665.0
5	18	2	37	192	173.0	-163279.0	-2781584.0	-42174.0
5	18	2	37	193	174.0	-163753.0	-2781957.0	-40380.0
5	18	2	37	194	176.0	-163039.0	-2782622.0	-28107.0
5	18	2	37	194	177.0	-162368.0	-2783311.0	-24904.0
5	18	2	37	195	178.0	-162014.0	-2785030.0	-24343.0
5	18	2	37	196	179.0	-162286.0	-2788477.0	-21529.0
5	18	2	37	196	180.0	-163289.0	-2793525.0	-16872.0
5	18	2	37	197	181.0	-165261.0	-2798222.0	-11005.0
5	18	2	37	206	182.0	-168032.0	-2806931.0	-7816.0
5	18	2	37	207	183.0	-170954.0	-2821184.0	-5281.0
5	18	2	37	208	184.0	-174009.0	-2822449.0	-1612.0
5	18	2	37	209	185.0	-176797.0	-2821104.0	1310.0
5	18	2	37	210	186.0	-179218.0	-2821161.0	3168.0
5	18	2	37	211	187.0	-181431.0	-2823918.0	4033.0
5	18	2	37	212	188.0	-183678.0	-2826129.0	3671.0
5	18	2	37	213	189.0	-185541.0	-2827714.0	3721.0
5	18	2	37	214	190.0	-186749.0	-2830751.0	3286.0
5	18	2	37	215	191.0	-187515.0	-2835336.0	3716.0
5	18	2	37	216	192.0	-188022.0	-2838055.0	686.0
5	18	2	37	217	193.0	-188026.0	-2839319.0	-3429.0
5	18	2	37	217	194.0	-187793.0	-2839556.0	-9174.0
5	18	2	37	218	195.0	-184024.0	-2839983.0	-12152.0
5	18	2	37	219	196.0	-175336.0	-2840382.0	-13501.0
5	18	2	37	220	198.0	-146809.0	-2844777.0	-15655.0
5	18	2	37	221	199.0	-132425.0	-2847494.0	-15162.0
5	18	2	37	222	200.0	-118848.0	-2849695.0	-14489.0
5	18	2	37	222	201.0	-106207.0	-2853177.0	-13529.0
5	18	2	37	223	202.0	-97097.0	-2855350.0	-14812.0
5	18	2	37	224	203.0	-93234.0	-2852059.0	-16267.0
5	18	2	37	251	204.0	-96186.0	-2848743.0	-17918.0
5	18	2	37	252	205.0	-107284.0	-2848344.0	-17619.0
5	18	2	37	253	206.0	-126350.0	-2848614.0	-17419.0
5	18	2	37	254	207.0	-150119.0	-2850455.0	-17032.0
5	18	2	37	255	208.0	-173824.0	-2855841.0	-16757.0
5	18	2	37	256	209.0	-192902.0	-2859453.0	-16497.0
5	18	2	37	257	210.0	-203812.0	-2861277.0	-15952.0
5	18	2	37	257	211.0	-206553.0	-2864703.0	-15319.0
5	18	2	37	258	212.0	-200400.0	-2867340.0	-16334.0
5	18	2	37	259	213.0	-186998.0	-2867519.0	-18293.0
5	18	2	37	260	214.0	-169229.0	-2866059.0	-20302.0
5	18	2	37	261	215.0	-152061.0	-2866002.0	-20482.0
5	18	2	37	262	216.0	-139846.0	-2866644.0	-20070.0
5	18	2	37	262	217.0	-133414.0	-2868227.0	-19082.0
5	18	2	37	263	218.0	-132079.0	-2871046.0	-18439.0
5	18	2	37	264	221.0	-136252.0	-2885961.0	-15714.0
5	18	2	37	265	222.0	-136666.0	-2885664.0	-17627.0
5	18	2	37	265	223.0	-138763.0	-2886244.0	-19569.0
5	18	2	37	266	224.0	-143467.0	-2887160.0	-20526.0
5	18	2	37	267	225.0	-150527.0	-2887330.0	-21111.0
5	18	2	37	267	226.0	-158376.0	-2888408.0	-20509.0
5	18	2	37	296	227.0	-165481.0	-2889906.0	-19452.0
5	18	2	37	297	228.0	-170558.0	-2891804.0	-18755.0
5	18	2	37	298	229.0	-172715.0	-2902556.0	-18162.0
5	18	2	37	299	230.0	-171763.0	-2917264.0	-17353.0
5	18	2	37	341	231.0	-169387.0	-2921066.0	-16080.0
5	18	2	37	342	232.0	-166636.0	-2920711.0	-17198.0
5	18	2	37	343	233.0	-164849.0	-2920622.0	-19001.0
5	18	2	37	344	234.0	-163564.0	-2920404.0	-20710.0
5	18	2	37	345	235.0	-162104.0	-2920470.0	-20130.0
5	18	2	37	346	236.0	-160006.0	-2921042.0	-19035.0
5	18	2	37	347	237.0	-157557.0	-2922402.0	-18346.0
5	18	2	37	347	238.0	-155444.0	-2924602.0	-18365.0
5	18	2	37	348	239.0	-153874.0	-2927555.0	-17995.0
5	18	2	37	349	240.0	-152727.0	-2930871.0	-17307.0
5	18	2	37	349	241.0	-151904.0	-2934722.0	-16921.0
5	18	2	37	350	243.0	-151494.0	-2937349.0	-20116.0
5	18	2	37	386	244.0	-151551.0	-2936637.0	-21702.0
5	18	2	37	387	245.0	-151634.0	-2935922.0	-20754.0
5	18	2	37	388	246.0	-151651.0	-2936246.0	-20109.0
5	18	2	37	389	247.0	-151525.0	-2937827.0	-19544.0
5	18	2	37	390	10.0	-159349.0	-2983116.0	-21859.0
5	18	2	37	391	11.0	-160751.0	-2986523.0	-21523.0
5	18	2	37	392	12.0	-162188.0	-2989401.0	-21167.0
5	18	2	37	393	13.0	-163250.0	-2992269.0	-20033.0
5	18	2	37	393	14.0	-163996.0	-2994954.0	-19429.0
5	18	2	37	394	15.0	-164869.0	-2996959.0	-19459.0
5	18	2	37	395	16.0	-166150.0	-2997149.0	-21442.0
5	18	2	37	396	17.0	-167616.0	-2995694.0	-22425.0
5	18	2	37	397	18.0	-168924.0	-2994392.0	-23717.0
5	18	2	37	397	19.0	-170589.0	-2994307.0	-23793.0
5	18	2	37	398	20.0	-172522.0	-2995442.0	-22483.0
5	18	2	37	399	21.0	-174359.0	-2997407.0	-21571.0
5	18	2	37	399	32.0	-171502.0	-3012826.0	-21391.0
5	18	2	37	430	33.0	-170771.0	-3015378.0	-20886.0
5	18	2	37	431	34.0	-169656.0	-3019195.0	-19597.0
5	18	2	37	432	35.0	-168206.0	-3022947.0	-20186.0
5	18	2	37	433	36.0	-166623.0	-3029237.0	-21944.0
5	18	2	37	434	37.0	-164579.0	-3035987.0	-23328.0
5	18	2	37	435	38.0	-162465.0	-3036035.0	-24644.0
5	18	2	37	436	39.0	-160576.0	-3035921.0	-24075.0
5	18	2	37	437	40.0	-159017.0	-3036336.0	-22882.0
5	18	2	37	437	41.0	-157663.0	-3037697.0	-21742.0
5	18	2	37	438	42.0	-156589.0	-3041552.0	-20579.0
5	18	2	37	439	43.0	-155865.0	-3052604.0	-20122.0
5	18	2	37	440	44.0	-155206.0	-3057707.0	-19116.0
5	18	2	37	441	45.0	-154564.0	-3058594.0	-19354.0
5	18	2	37	442	46.0	-154018.0	-3058172.0	-20682.0
5	18	2	37	443	47.0	-153371.0	-3054586.0	-22851.0
5	18	2	37	443	54.0	-150297.0	-3033619.0	-17091.0
5	18	2	37	444	55.0	-149949.0	-3031401.0	-17989.0
5	18	2	37	445	56.0	-149972.0	-3027743.0	-20125.0
5	18	2	37	446	57.0	-150268.0	-3023215.0	-21454.0
5	18	2	37	446	58.0	-150727.0	-3018569.0	-21930.0
5	18	2	37	447	59.0	-151004.0	-3016111.0	-21376.0
5	18	2	37	448	60.0	-151873.0	-3014644.0	-19604.0
5	18	2	37	477	61.0	-153104.0	-3012645.0	-18734.0
5	18	2	37	478	62.0	-153864.0	-3010194.0	-17442.0
5	18	2	37	479	63.0	-154666.0	-3007205.0	-16319.0
5	18	2	37	479	64.0	-154931.0	-2996365.0	-14866.0
5	18	2	37	480	65.0	-155032.0	-2989226.0	-16646.0
5	18	2	37	481	66.0	-155305.0	-2986216.0	-17925.0
5	18	2	37	482	67.0	-155749.0	-2985127.0	-19275.0
5	18	2	37	483	68.0	-155845.0	-2989399.0	-20057.0
5	18	2	37	484	69.0	-156396.0	-2982618.0	-19611.0
5	18	2	37	485	70.0	-157681.0	-2972226.0	-18470.0
5	18	2	37	486	71.0	-158991.0	-2972129.0	-16802.0
5	18	2	37	486	72.0	-159928.0	-2973796.0	-15492.0
5	18	2	37	487	73.0	-161533.0	-2972815.0	-14977.0
5	18	2	37	488	74.0	-163502.0	-2972576.0	-13465.0
5	18	2	37	489	75.0	-164362.0	-2971046.0	-14958.0
5	18	2	37	489	77.0	-168676.0	-2964189.0	-17979.0
5	18	2	37	490	78.0	-170756.0	-2959555.0	-18582.0
5	18	2	37	491	79.0	-172793.0	-2954452.0	-17820.0
5	18	2	37	491	80.0	-175907.0	-2951211.0	-16769.0
5	18	2	37	492	81.0	-178749.0	-2949117.0	-15997.0
5	18	2	37	493	82.0	-181565.0	-2948525.0	-15476.0
5	18	2	37	523	83.0	-184651.0	-2950486.0	-14822.0
5	18	2	37	524	84.0	-187484.0	-2950605.0	-13099.0
5	18	2	37	525	85.0	-190321.0	-2949162.0	-14117.0
5	18	2	37	526	86.0	-192112.0	-2946296.0	-15997.0
5	18	2	37	527	87.0	-192568.0	-2942090.0	-17948.0
5	18	2	37	527	88.0	-191756.0	-2937957.0	-17374.0
5	18	2	37	528	89.0	-188597.0	-2934584.0	-17227.0
5	18	2	37	529	90.0	-181572.0	-2932079.0	-16036.0
5	18	2	37	529	91.0	-164301.0	-2929589.0	-15369.0
5	18	2	37	566	92.0	-134742.0	-2928104.0	-14748.0
5	18	2	37	567	93.0	-111686.0	-2927130.0	-13851.0
5	18	2	37	568	94.0	-109799.0	-2926011.0	-12966.0
5	18	2	37	569	95.0	-129524.0	-2924331.0	-13879.0
5	18	2	37	570	96.0	-158561.0	-2920457.0	-15866.0
5	18	2	37	571	97.0	-189030.0	-2914591.0	-17387.0
5	18	2	37	572	99.0	-223492.0	-2911556.0	-17658.0
5	18	2	37	573	100.0	-223906.0	-2908411.0	-16499.0
5	18	2	37	574	101.0	-217175.0	-2904394.0	-15352.0
5	18	2	37	574	102.0	-206883.0	-2901704.0	-14639.0
5	18	2	37	575	103.0	-196492.0	-2899827.0	-14080.0
5	18	2	37	576	104.0	-184966.0	-2899206.0	-12276.0
5	18	2	37	577	105.0	-173119.0	-2896745.0	-14364.0
5	18	2	37	578	106.0	-162067.0	-2892167.0	-16211.0
5	18	2	37	579	107.0	-151282.0	-2887286.0	-18063.0
5	18	2	37	579	122.0	-167119.0	-2843093.0	-13601.0
5	18	2	37	580	123.0	-170459.0	-2841588.0	-13234.0
5	18	2	37	581	124.0	-171927.0	-2841318.0	-12182.0
5	18	2	37	582	125.0	-171928.0	-2839598.0	-13379.0
5	18	2	37	583	126.0	-170250.0	-2836298.0	-14757.0
5	18	2	37	583	127.0	-167997.0	-2832099.0	-16386.0
5	18	2	37	584	128.0	-165884.0	-2828509.0	-16522.0
5	18	2	37	585	129.0	-164599.0	-2825590.0	-16203.0
5	18	2	37	612	130.0	-164672.0	-2823231.0	-15026.0
5	18	2	37	613	131.0	-166089.0	-2827856.0	-14404.0
5	18	2	37	614	132.0	-168486.0	-2832407.0	-14036.0
5	18	2	37	657	133.0	-171566.0	-2836792.0	-12843.0
5	18	2	37	658	134.0	-174619.0	-2840268.0	-12122.0
5	18	2	37	659	135.0	-176833.0	-2836323.0	-13553.0
5	18	2	37	660	136.0	-178559.0	-2831374.0	-15442.0
5	18	2	37	661	137.0	-179997.0	-2825942.0	-16657.0
5	18	2	37	662	138.0	-181036.0	-2820715.0	-16956.0
5	18	2	37	662	139.0	-181510.0	-2816290.0	-16291.0
5	18	2	37	663	140.0	-181697.0	-2813085.0	-15550.0
5	18	2	37	664	141.0	-181857.0	-2810624.0	-14697.0
5	18	2	37	665	142.0	-181729.0	-2809612.0	-13437.0
5	18	2	37	666	143.0	-181065.0	-2809559.0	-12298.0
5	18	2	37	667	144.0	-180076.0	-2807791.0	-11350.0
5	18	2	37	667	145.0	-178491.0	-2804751.0	-13389.0
5	18	2	37	668	146.0	-176199.0	-2801768.0	-14140.0
5	18	2	37	669	147.0	-173996.0	-2798737.0	-15443.0
5	18	2	37	670	148.0	-171767.0	-2794934.0	-15951.0
5	18	2	37	670	167.0	-155250.0	-2762736.0	-15077.0
5	18	2	37	671	168.0	-155969.0	-2758663.0	-14490.0
5	18	2	37	672	169.0	-156821.0	-2755115.0	-13766.0
5	18	2	37	672	170.0	-157687.0	-2752922.0	-12859.0
5	18	2	37	673	171.0	-158344.0	-2751115.0	-12279.0
5	18	2	37	674	172.0	-158719.0	-2749718.0	-11862.0
5	18	2	37	702	173.0	-159190.0	-2748472.0	-10744.0
5	18	2	37	703	174.0	-159514.0	-2747671.0	-10519.0
5	18	2	37	704	175.0	-159684.0	-2746072.0	-12443.0
5	18	2	37	705	176.0	-160166.0	-2743367.0	-14647.0
5	18	2	37	706	177.0	-161061.0	-2740607.0	-15076.0
5	18	2	37	707	178.0	-161892.0	-2738608.0	-14354.0
5	18	2	37	708	179.0	-162686.0	-2732637.0	-13933.0
5	18	2	37	709	180.0	-163482.0	-2726392.0	-13516.0
5	18	2	37	710	181.0	-164012.0	-2724395.0	-12487.0
5	18	2	37	710	182.0	-164628.0	-2722402.0	-11602.0
5	18	2	37	711	183.0	-165231.0	-2715554.0	-10829.0
5	18	2	37	712	184.0	-165692.0	-2712446.0	-10653.0
5	18	2	37	713	185.0	-166301.0	-2714339.0	-12406.0
5	18	2	37	714	186.0	-166817.0	-2711322.0	-13132.0
5	18	2	37	714	187.0	-167167.0	-2706365.0	-13776.0
5	18	2	37	715	189.0	-167721.0	-2714966.0	-13266.0
5	18	2	37	716	190.0	-167867.0	-2714042.0	-12878.0
5	18	2	37	717	191.0	-168196.0	-2711551.0	-11702.0
5	18	2	37	717	192.0	-168631.0	-2710452.0	-10854.0
5	18	2	37	718	193.0	-168919.0	-2708021.0	-9976.0
5	18	2	37	719	194.0	-169156.0	-2696578.0	-10007.0
5	18	2	37	719	195.0	-169329.0	-2690919.0	-11966.0
5	18	2	37	747	196.0	-169154.0	-2686707.0	-12811.0
5	18	2	37	748	197.0	-168557.0	-2682136.0	-13834.0
5	18	2	37	749	198.0	-167551.0	-2678140.0	-13706.0
5	18	2	37	750	199.0	-166639.0	-2674149.0	-12831.0
5	18	2	37	751	200.0	-165616.0	-2672344.0	-11923.0
5	18	2	37	753	201.0	-164242.0	-2678289.0	-11392.0
5	18	2	37	753	202.0	-162622.0	-2676636.0	-11126.0
5	18	2	37	754	203.0	-160567.0	-2660523.0	-9550.0
5	18	2	37	755	204.0	-158396.0	-2660805.0	-9913.0
5	18	2	37	756	205.0	-156348.0	-2670006.0	-11706.0
5	18	2	37	757	206.0	-154297.0	-2659059.0	-13802.0
5	18	2	37	758	207.0	-152486.0	-2642629.0	-14262.0
5	18	2	37	759	208.0	-150728.0	-2638622.0	-14104.0
5	18	2	37	759	209.0	-149050.0	-2636416.0	-13248.0
5	18	2	37	760	210.0	-147592.0	-2634944.0	-12464.0
5	18	2	37	761	211.0	-146576.0	-2634079.0	-11416.0
5	18	2	37	761	212.0	-145781.0	-2631112.0	-10629.0
5	18	2	37	762	213.0	-145536.0	-2629548.0	-9281.0
5	18	2	37	763	214.0	-145674.0	-2628019.0	-9138.0
5	18	2	37	763	215.0	-146219.0	-2625231.0	-11594.0
5	18	2	37	764	216.0	-147063.0	-2621704.0	-12541.0
5	18	2	37	765	217.0	-148082.0	-2616927.0	-13125.0
5	18	2	37	792	218.0	-149110.0	-2612846.0	-13644.0
5	18	2	37	793	219.0	-150097.0	-2610026.0	-12001.0
5	18	2	37	794	220.0	-151309.0	-2610131.0	-10914.0
5	18	2	37	795	221.0	-152514.0	-2613447.0	-10576.0
5	18	2	37	795	222.0	-153647.0	-2606816.0	-10059.0
5	18	2	37	796	223.0	-154686.0	-2594767.0	-8146.0
5	18	2	37	835	224.0	-155676.0	-2592521.0	-9214.0
5	18	2	37	837	225.0	-156571.0	-2590061.0	-11452.0
5	18	2	37	837	226.0	-157547.0	-2585866.0	-12665.0
5	18	2	37	838	227.0	-158416.0	-2582022.0	-12761.0
5	18	2	37	839	228.0	-159282.0	-2579612.0	-11791.0
5	18	2	37	840	229.0	-160244.0	-2576865.0	-10954.0
5	18	2	37	842	230.0	-161194.0	-2566516.0	-10764.0
5	18	2	37	843	231.0	-162121.0	-2565670.0	-10291.0
5	18	2	37	844	232.0	-163140.0	-2571735.0	-9766.0
5	18	2	37	845	234.0	-165377.0	-2569331.0	-9534.0
5	18	2	37	846	235.0	-166406.0	-2566694.0	-11064.0
5	18	2	37	847	236.0	-167313.0	-2562285.0	-12171.0
5	18	2	37	848	237.0	-167749.0	-2557401.0	-12801.0
5	18	2	37	849	238.0	-167889.0	-2543023.0	-12551.0
5	18	2	37	849	239.0	-167988.0	-2531230.0	-11891.0
5	18	2	37	850	0.0	-159108.0	-2549267.0	-13555.0
5	18	2	37	851	1.0	-159179.0	-2547073.0	-13278.0
5	18	2	37	851	2.0	-158792.0	-2546155.0	-13058.0
5	18	2	37	852	3.0	-158224.0	-2547725.0	-12701.0
5	18	2	37	853	4.0	-157811.0	-2550174.0	-12329.0
5	18	2	37	853	5.0	-157184.0	-2553069.0	-11896.0
5	18	2	37	854	6.0	-156814.0	-2557105.0	-11038.0
5	18	2	37	882	7.0	-156501.0	-2562317.0	-9741.0
5	18	2	37	883	8.0	-156395.0	-2564754.0	-11406.0
5	18	2	37	884	9.0	-156786.0	-2565811.0	-13476.0
5	18	2	37	885	10.0	-157486.0	-2564882.0	-14396.0
5	18	2	37	886	11.0	-158002.0	-2561301.0	-14915.0
5	18	2	37	887	12.0	-158510.0	-2560592.0	-13902.0
5	18	2	37	888	13.0	-159220.0	-2562074.0	-12846.0
5	18	2	37	889	14.0	-160121.0	-2563617.0	-11508.0
5	18	2	37	890	15.0	-161074.0	-2564633.0	-10669.0
5	18	2	37	890	16.0	-162349.0	-2566886.0	-9594.0
5	18	2	37	891	17.0	-163797.0	-2569984.0	-8484.0
5	18	2	37	892	18.0	-165144.0	-2572129.0	-10304.0
5	18	2	37	893	19.0	-166436.0	-2572796.0	-12132.0
5	18	2	37	893	20.0	-167864.0	-2570737.0	-12941.0
5	18	2	37	894	21.0	-169027.0	-2568053.0	-12574.0
5	18	2	37	895	23.0	-171034.0	-2569957.0	-10931.0
5	18	2	37	895	24.0	-171544.0	-2571753.0	-9940.0
5	18	2	37	896	25.0	-171617.0	-2573461.0	-9234.0
5	18	2	37	897	26.0	-171429.0	-2576318.0	-8263.0
5	18	2	37	897	27.0	-170894.0	-2578244.0	-7339.0
5	18	2	37	898	28.0	-170170.0	-2576784.0	-8801.0
5	18	2	37	927	29.0	-169706.0	-2576289.0	-10869.0
5	18	2	37	928	30.0	-169162.0	-2575213.0	-12247.0
5	18	2	37	929	31.0	-168304.0	-2574800.0	-11891.0
5	18	2	37	930	32.0	-167572.0	-2575113.0	-11395.0
5	18	2	37	931	33.0	-166967.0	-2576589.0	-9864.0
5	18	2	37	932	34.0	-165798.0	-2579179.0	-9234.0
5	18	2	37	933	35.0	-164790.0	-2582194.0	-8989.0
5	18	2	37	934	36.0	-163829.0	-2585889.0	-7744.0
5	18	2	37	934	37.0	-162371.0	-2590001.0	-6924.0
5	18	2	37	935	38.0	-161042.0	-2592382.0	-8832.0
5	18	2	37	936	39.0	-159916.0	-2592796.0	-11632.0
5	18	2	37	937	40.0	-158804.0	-2592390.0	-12135.0
5	18	2	37	937	41.0	-157446.0	-2591623.0	-11482.0
5	18	2	37	938	42.0	-156259.0	-2590536.0	-10381.0
5	18	2	37	939	43.0	-155012.0	-2593280.0	-9766.0
5	18	2	37	939	45.0	-152422.0	-2604199.0	-8114.0
5	18	2	37	940	46.0	-151366.0	-2607672.0	-7366.0
5	18	2	37	971	47.0	-150546.0	-2611286.0	-6946.0
5	18	2	37	972	48.0	-149971.0	-2617173.0	-8875.0
5	18	2	37	973	49.0	-149752.0	-2622800.0	-10524.0
5	18	2	37	974	50.0	-149145.0	-2622443.0	-11267.0
5	18	2	37	975	51.0	-148633.0	-2622453.0	-11356.0
5	18	2	37	975	52.0	-148592.0	-2623194.0	-10314.0
5	18	2	37	976	53.0	-148632.0	-2625205.0	-9436.0
5	18	2	38	62	54.0	-148634.0	-2627767.0	-9089.0
5	18	2	38	63	55.0	-148790.0	-2630544.0	-8921.0
5	18	2	38	64	56.0	-149496.0	-2633574.0	-9965.0
5	18	2	38	65	57.0	-150591.0	-2637434.0	-11715.0
5	18	2	38	66	58.0	-151856.0	-2638714.0	-15381.0
5	18	2	38	67	59.0	-153447.0	-2637586.0	-18381.0
5	18	2	38	68	60.0	-155404.0	-2635819.0	-21237.0
5	18	2	38	69	61.0	-157226.0	-2634244.0	-22992.0
5	18	2	38	70	68.0	-171011.0	-2644765.0	-29174.0
5	18	2	38	70	69.0	-171547.0	-2643596.0	-24984.0
5	18	2	38	71	70.0	-171569.0	-2641166.0	-21341.0
5	18	2	38	72	71.0	-171619.0	-2640324.0	-19666.0
5	18	2	38	73	72.0	-171816.0	-2639831.0	-17905.0
5	18	2	38	73	73.0	-171975.0	-2628827.0	-13916.0
5	18	2	38	74	74.0	-172843.0	-2622236.0	-8556.0
5	18	2	38	75	113.0	-133789.0	-2633656.0	-11571.0
5	18	2	38	75	114.0	-134904.0	-2635039.0	-10671.0
5	18	2	38	76	115.0	-134659.0	-2631686.0	-10148.0
5	18	2	38	77	116.0	-134602.0	-2630637.0	-8992.0
5	18	2	38	78	117.0	-136519.0	-2633734.0	-10295.0
5	18	2	38	78	118.0	-141143.0	-2635709.0	-11803.0
5	18	2	38	107	119.0	-147584.0	-2635666.0	-13829.0
5	18	2	38	108	120.0	-153849.0	-2635920.0	-14077.0
5	18	2	38	109	121.0	-158402.0	-2645762.0	-14100.0
5	18	2	38	110	122.0	-160287.0	-2650779.0	-13646.0
5	18	2	38	111	123.0	-159242.0	-2651637.0	-12722.0
5	18	2	38	112	124.0	-156282.0	-2652346.0	-11553.0
5	18	2	38	113	125.0	-153187.0	-2653728.0	-10466.0
5	18	2	38	113	126.0	-150781.0	-2656529.0	-9773.0
5	18	2	38	114	127.0	-148797.0	-2656977.0	-10570.0
5	18	2	38	115	128.0	-147029.0	-2655560.0	-12580.0
5	18	2	38	116	129.0	-145045.0	-2653181.0	-13870.0
5	18	2	38	117	130.0	-143280.0	-2651186.0	-14886.0
5	18	2	38	118	131.0	-142424.0	-2649964.0	-15546.0
5	18	2	38	118	132.0	-142598.0	-2648765.0	-14400.0
5	18	2	38	119	133.0	-143777.0	-2649166.0	-13324.0
5	18	2	38	120	135.0	-148276.0	-2663837.0	-11479.0
5	18	2	38	120	136.0	-151003.0	-2667155.0	-9872.0
5	18	2	38	121	137.0	-154135.0	-2668381.0	-10678.0
5	18	2	38	122	138.0	-157182.0	-2667091.0	-12998.0
5	18	2	38	122	139.0	-160043.0	-2664390.0	-13601.0
5	18	2	38	123	140.0	-162616.0	-2661701.0	-14267.0
5	18	2	38	151	141.0	-164332.0	-2659977.0	-14411.0
5	18	2	38	153	142.0	-165372.0	-2658666.0	-13906.0
5	18	2	38	154	143.0	-165374.0	-2658429.0	-13083.0
5	18	2	38	154	144.0	-164338.0	-2658618.0	-12686.0
5	18	2	38	155	145.0	-162926.0	-2659329.0	-12098.0
5	18	2	38	156	146.0	-161832.0	-2661671.0	-10599.0
5	18	2	38	157	147.0	-161179.0	-2662695.0	-12379.0
5	18	2	38	158	148.0	-161032.0	-2662964.0	-14413.0
5	18	2	38	159	149.0	-161091.0	-2661644.0	-15597.0
5	18	2	38	160	150.0	-161612.0	-2658954.0	-15371.0
5	18	2	38	160	151.0	-162647.0	-2658014.0	-14876.0
5	18	2	38	161	152.0	-163839.0	-2660205.0	-14375.0
5	18	2	38	162	153.0	-165075.0	-2661478.0	-13911.0
5	18	2	38	163	154.0	-166368.0	-2664357.0	-13103.0
5	18	2	38	164	155.0	-167569.0	-2666207.0	-12410.0
5	18	2	38	164	157.0	-169266.0	-2668391.0	-13076.0
5	18	2	38	165	158.0	-169667.0	-2667885.0	-14896.0
5	18	2	38	166	159.0	-169412.0	-2668230.0	-16787.0
5	18	2	38	167	160.0	-168741.0	-2679324.0	-16954.0
5	18	2	38	167	161.0	-167670.0	-2682981.0	-16847.0
5	18	2	38	168	162.0	-166271.0	-2683017.0	-16072.0
5	18	2	38	169	163.0	-164923.0	-2682982.0	-15361.0
5	18	2	38	198	164.0	-164018.0	-2683419.0	-14426.0
5	18	2	38	199	165.0	-163233.0	-2684526.0	-13301.0
5	18	2	38	200	166.0	-162629.0	-2686160.0	-12610.0
5	18	2	38	201	167.0	-162060.0	-2686177.0	-14312.0
5	18	2	38	202	168.0	-161422.0	-2685197.0	-16726.0
5	18	2	38	202	169.0	-160436.0	-2682801.0	-17534.0
5	18	2	38	203	170.0	-159666.0	-2680564.0	-16963.0
5	18	2	38	204	171.0	-158722.0	-2685432.0	-16722.0
5	18	2	38	205	172.0	-157604.0	-2696947.0	-16681.0
5	18	2	38	206	173.0	-156494.0	-2700109.0	-16129.0
5	18	2	38	207	174.0	-155174.0	-2702944.0	-15130.0
5	18	2	38	208	175.0	-154007.0	-2706135.0	-14109.0
5	18	2	38	209	176.0	-152724.0	-2709012.0	-13315.0
5	18	2	38	209	177.0	-151766.0	-2709992.0	-15154.0
5	18	2	38	210	178.0	-150784.0	-2709947.0	-16821.0
5	18	2	38	211	180.0	-149072.0	-2709064.0	-17744.0
5	18	2	38	211	181.0	-148911.0	-2709229.0	-17375.0
5	18	2	38	212	182.0	-149337.0	-2711277.0	-16269.0
5	18	2	38	213	183.0	-149813.0	-2713227.0	-15795.0
5	18	2	38	213	184.0	-150379.0	-2714774.0	-15481.0
5	18	2	38	214	185.0	-151441.0	-2717870.0	-14662.0
5	18	2	38	287	186.0	-152762.0	-2721722.0	-13254.0
5	18	2	38	288	187.0	-153607.0	-2723522.0	-14914.0
5	18	2	38	289	188.0	-154923.0	-2724004.0	-16496.0
5	18	2	38	290	189.0	-156725.0	-2723666.0	-17742.0
5	18	2	38	291	190.0	-158128.0	-2723668.0	-17746.0
5	18	2	38	291	191.0	-159937.0	-2724498.0	-16990.0
5	18	2	38	292	192.0	-161622.0	-2726004.0	-16304.0
5	18	2	38	293	193.0	-163293.0	-2728163.0	-15494.0
5	18	2	38	377	194.0	-164830.0	-2731045.0	-14582.0
5	18	2	38	378	195.0	-166702.0	-2734832.0	-13248.0
5	18	2	38	380	196.0	-168604.0	-2738387.0	-12647.0
5	18	2	38	381	197.0	-170827.0	-2740779.0	-14313.0
5	18	2	38	382	198.0	-172897.0	-2738608.0	-16304.0
5	18	2	38	383	199.0	-174963.0	-2733012.0	-17399.0
5	18	2	38	384	200.0	-176832.0	-2731705.0	-17047.0
5	18	2	38	386	225.0	-152757.0	-2799037.0	-9164.0
5	18	2	38	388	226.0	-152965.0	-2802915.0	-9105.0
5	18	2	38	389	227.0	-153733.0	-2804726.0	-10802.0
5	18	2	38	390	228.0	-154807.0	-2804071.0	-12358.0
5	18	2	38	391	229.0	-155900.0	-2803893.0	-12935.0
5	18	2	38	391	230.0	-157229.0	-2803637.0	-13137.0
5	18	2	38	392	231.0	-158500.0	-2804311.0	-12134.0
5	18	2	38	393	232.0	-160095.0	-2804740.0	-11324.0
5	18	2	38	393	233.0	-161991.0	-2806354.0	-10645.0
5	18	2	38	394	14.0	-148352.0	-2858189.0	-12526.0
5	18	2	38	395	15.0	-153743.0	-2863202.0	-11687.0
5	18	2	38	395	16.0	-157191.0	-2866351.0	-10806.0
5	18	2	38	396	17.0	-159059.0	-2868489.0	-9922.0
5	18	2	38	397	18.0	-159827.0	-2871101.0	-8627.0
5	18	2	38	397	19.0	-159555.0	-2874609.0	-7762.0
5	18	2	38	423	20.0	-158262.0	-2877196.0	-8606.0
5	18	2	38	424	21.0	-155736.0	-2876979.0	-10219.0
5	18	2	38	425	22.0	-152838.0	-2875439.0	-11934.0
5	18	2	38	426	23.0	-150668.0	-2874237.0	-12416.0
5	18	2	38	427	24.0	-149282.0	-2873584.0	-11951.0
5	18	2	38	427	25.0	-149324.0	-2874586.0	-10621.0
5	18	2	38	428	26.0	-150835.0	-2876428.0	-9700.0
5	18	2	38	429	27.0	-152966.0	-2878323.0	-9016.0
5	18	2	38	430	28.0	-155557.0	-2881151.0	-8168.0
5	18	2	38	431	29.0	-157840.0	-2884848.0	-7152.0
5	18	2	38	431	30.0	-159972.0	-2886836.0	-8324.0
5	18	2	38	432	31.0	-161833.0	-2886601.0	-9917.0
5	18	2	38	433	32.0	-163140.0	-2885473.0	-12714.0
5	18	2	38	433	33.0	-164741.0	-2884115.0	-12591.0
5	18	2	38	467	36.0	-168606.0	-2886047.0	-9644.0
5	18	2	38	557	37.0	-169477.0	-2888152.0	-8204.0
5	18	2	38	558	38.0	-170378.0	-2886265.0	-7129.0
5	18	2	38	559	39.0	-170469.0	-2876157.0	-6889.0
5	18	2	38	560	40.0	-170028.0	-2875892.0	-7831.0
5	18	2	38	562	41.0	-169757.0	-2876446.0	-9553.0
5	18	2	38	564	42.0	-169210.0	-2875422.0	-11331.0
5	18	2	38	565	43.0	-168742.0	-2873521.0	-11606.0
5	18	2	38	566	44.0	-168464.0	-2873486.0	-11884.0
5	18	2	38	567	45.0	-168477.0	-2875301.0	-10318.0
5	18	2	38	568	46.0	-169018.0	-2877935.0	-8883.0
5	18	2	38	568	47.0	-169185.0	-2879362.0	-7891.0
5	18	2	38	569	48.0	-169275.0	-2879986.0	-6789.0
5	18	2	38	570	49.0	-170281.0	-2883809.0	-6001.0
5	18	2	38	571	50.0	-170607.0	-2886771.0	-6861.0
5	18	2	38	571	59.0	-168396.0	-2906627.0	-5256.0
5	18	2	38	572	104.0	-155001.0	-2941056.0	-8059.0
5	18	2	38	573	105.0	-153534.0	-2943016.0	-6992.0
5	18	2	38	573	106.0	-152242.0	-2951846.0	-6054.0
5	18	2	38	574	107.0	-151032.0	-2965564.0	-5553.0
5	18	2	38	575	108.0	-149751.0	-2969427.0	-4254.0
5	18	2	38	575	109.0	-148337.0	-2972616.0	-4306.0
5	18	2	38	602	110.0	-147156.0	-2973821.0	-5911.0
5	18	2	38	603	111.0	-146022.0	-2973940.0	-7894.0
5	18	2	38	605	112.0	-145011.0	-2971097.0	-8939.0
5	18	2	38	606	113.0	-144449.0	-2968817.0	-9137.0
5	18	2	38	607	114.0	-144074.0	-2974331.0	-8464.0
5	18	2	38	607	115.0	-143675.0	-2979344.0	-7447.0
5	18	2	38	608	116.0	-143424.0	-2980797.0	-6265.0
5	18	2	38	609	117.0	-143683.0	-2983139.0	-5177.0
5	18	2	38	610	118.0	-144360.0	-2986662.0	-3891.0
5	18	2	38	611	119.0	-145356.0	-2989520.0	-3864.0
5	18	2	38	612	120.0	-146527.0	-2990338.0	-5790.0
5	18	2	38	613	121.0	-148066.0	-2989388.0	-6836.0
5	18	2	38	614	122.0	-149893.0	-2987316.0	-7918.0
5	18	2	38	614	123.0	-151702.0	-2985459.0	-7428.0
5	18	2	38	615	124.0	-153374.0	-2985487.0	-6362.0
5	18	2	38	616	126.0	-156804.0	-2988354.0	-5706.0
5	18	2	38	617	127.0	-158526.0	-2990593.0	-5083.0
5	18	2	38	617	128.0	-160294.0	-2993806.0	-3007.0
5	18	2	38	618	129.0	-162022.0	-2996797.0	-3414.0
5	18	2	38	619	130.0	-163687.0	-2996936.0	-4766.0
5	18	2	38	619	131.0	-165689.0	-2994879.0	-7081.0
5	18	2	38	647	132.0	-167644.0	-2993021.0	-7446.0
5	18	2	38	648	133.0	-169446.0	-2992067.0	-6818.0
5	18	2	38	649	134.0	-171129.0	-2992606.0	-6291.0
5	18	2	38	650	135.0	-172612.0	-2993576.0	-5809.0
5	18	2	38	651	136.0	-173676.0	-2995087.0	-5369.0
5	18	2	38	652	137.0	-174408.0	-2998156.0	-5236.0
5	18	2	38	652	138.0	-174720.0	-3002544.0	-3844.0
5	18	2	38	653	139.0	-174879.0	-3005649.0	-4349.0
5	18	2	38	654	140.0	-174827.0	-3006496.0	-5916.0
5	18	2	38	655	141.0	-174656.0	-3001371.0	-8196.0
5	18	2	38	656	142.0	-174231.0	-2995824.0	-8822.0
5	18	2	38	657	143.0	-173949.0	-2994493.0	-9009.0
5	18	2	38	657	144.0	-173492.0	-2994010.0	-8550.0
5	18	2	38	658	145.0	-173071.0	-2995504.0	-7891.0
5	18	2	38	659	146.0	-172729.0	-2997824.0	-7119.0
5	18	2	38	660	148.0	-171156.0	-3004308.0	-5162.0
5	18	2	38	660	149.0	-170134.0	-3006175.0	-5339.0
5	18	2	38	661	150.0	-168873.0	-3006026.0	-7184.0
5	18	2	38	662	151.0	-167276.0	-3007494.0	-9156.0
5	18	2	38	662	152.0	-165656.0	-3018437.0	-9331.0
5	18	2	38	663	153.0	-164462.0	-3020820.0	-9448.0
5	18	2	38	663	154.0	-163331.0	-3020980.0	-8310.0
5	18	2	38	692	155.0	-162609.0	-3021541.0	-7609.0
5	18	2	38	693	156.0	-161916.0	-3022772.0	-6608.0
5	18	2	38	694	157.0	-161545.0	-3024722.0	-6013.0
5	18	2	38	695	158.0	-161041.0	-3026962.0	-4246.0
5	18	2	38	696	159.0	-160458.0	-3029909.0	-5144.0
5	18	2	38	697	160.0	-160672.0	-3032214.0	-5975.0
5	18	2	38	697	161.0	-160394.0	-3028875.0	-7515.0
5	18	2	38	698	162.0	-160359.0	-3024686.0	-7624.0
5	18	2	38	699	163.0	-160328.0	-3024754.0	-6267.0
5	18	2	38	700	164.0	-160254.0	-3025379.0	-5756.0
5	18	2	38	701	165.0	-160682.0	-3025666.0	-4812.0
5	18	2	38	702	166.0	-160830.0	-3027081.0	-4090.0
5	18	2	38	702	167.0	-161383.0	-3030114.0	-3927.0
5	18	2	38	703	168.0	-161969.0	-3033187.0	-2329.0
5	18	2	38	704	169.0	-162530.0	-3034840.0	-3061.0
5	18	2	38	705	171.0	-163259.0	-3033447.0	-6586.0
5	18	2	38	705	172.0	-163576.0	-3031229.0	-7072.0
5	18	2	38	706	173.0	-163800.0	-3029279.0	-6008.0
5	18	2	38	707	174.0	-164053.0	-3028487.0	-4855.0
5	18	2	38	708	175.0	-164183.0	-3028571.0	-4359.0
5	18	2	38	708	176.0	-164096.0	-3030784.0	-3807.0
5	18	2	38	737	177.0	-163934.0	-3032796.0	-3289.0
5	18	2	38	782	178.0	-163977.0	-3036295.0	-2010.0
5	18	2	38	783	179.0	-164177.0	-3043751.0	-2699.0
5	18	2	38	784	180.0	-164317.0	-3046602.0	-4724.0
5	18	2	38	785	181.0	-164471.0	-3046951.0	-6690.0
5	18	2	38	786	182.0	-164389.0	-3046951.0	-6399.0
5	18	2	38	787	183.0	-164102.0	-3047044.0	-6069.0
5	18	2	38	788	184.0	-164000.0	-3048193.0	-5029.0
5	18	2	38	788	185.0	-163297.0	-3049982.0	-4294.0
5	18	2	38	789	186.0	-162631.0	-3051292.0	-3569.0
5	18	2	38	790	187.0	-161752.0	-3053019.0	-2573.0
5	18	2	38	791	188.0	-160535.0	-3056176.0	-1462.0
5	18	2	38	792	189.0	-159164.0	-3058320.0	-2642.0
5	18	2	38	793	190.0	-157462.0	-3059939.0	-4401.0
5	18	2	38	793	191.0	-155737.0	-3059714.0	-5762.0
5	18	2	38	794	193.0	-152451.0	-3057890.0	-5014.0
5	18	2	38	795	194.0	-151279.0	-3058194.0	-4151.0
5	18	2	38	795	216.0	-161237.0	-3090059.0	-9516.0
5	18	2	38	796	217.0	-161362.0	-3093994.0	-6883.0
5	18	2	38	797	218.0	-162118.0	-3106306.0	-2317.0
5	18	2	38	797	219.0	-163610.0	-3109170.0	1126.0
5	18	2	38	798	220.0	-165612.0	-3108257.0	3653.0
5	18	2	38	799	221.0	-168080.0	-3106077.0	5493.0
5	18	2	38	842	222.0	-171000.0	-3104580.0	10962.0
5	18	2	38	857	223.0	-173761.0	-3103494.0	15248.0
5	18	2	38	858	224.0	-176689.0	-3102287.0	18036.0
5	18	2	38	859	225.0	-179780.0	-3103130.0	18551.0
5	18	2	38	860	226.0	-182391.0	-3103011.0	18386.0
5	18	2	38	861	227.0	-184809.0	-3104952.0	18789.0
5	18	2	38	861	228.0	-186510.0	-3108425.0	18318.0
5	18	2	38	862	229.0	-187496.0	-3111528.0	15586.0
5	18	2	38	863	230.0	-188042.0	-3113620.0	11756.0
5	18	2	38	864	231.0	-188699.0	-3113530.0	7933.0
5	18	2	38	864	232.0	-188219.0	-3113437.0	4256.0
5	18	2	38	865	233.0	-182755.0	-3113525.0	1081.0
5	18	2	38	866	234.0	-172315.0	-3114290.0	-556.0
5	18	2	38	866	235.0	-157178.0	-3114801.0	-1387.0
5	18	2	38	877	236.0	-140721.0	-3116276.0	-1979.0
5	18	2	38	878	246.0	-184814.0	-3130861.0	-3642.0
5	18	2	38	879	253.0	-148773.0	-3136923.0	-8226.0
5	18	2	38	880	254.0	-138466.0	-3138413.0	-6686.0
5	18	2	38	881	255.0	-134824.0	-3140211.0	-5565.0
5	18	2	38	881	0.0	-135392.0	-3142637.0	-4634.0
5	18	2	38	882	1.0	-136999.0	-3146814.0	-2906.0
5	18	2	38	883	2.0	-137454.0	-3147596.0	-3271.0
5	18	2	38	883	3.0	-136692.0	-3146336.0	-5104.0
5	18	2	38	884	4.0	-135714.0	-3146401.0	-7754.0
5	18	2	38	885	5.0	-137433.0	-3145106.0	-8189.0
5	18	2	38	885	6.0	-142576.0	-3143674.0	-7274.0
5	18	2	38	886	7.0	-150212.0	-3142776.0	-7734.0
5	18	2	38	886	8.0	-158393.0	-3144004.0	-6867.0
5	18	2	38	901	9.0	-164767.0	-3145577.0	-6048.0
5	18	2	38	902	10.0	-167725.0	-3147781.0	-5171.0
5	18	2	38	903	11.0	-167077.0	-3151277.0	-3952.0
5	18	2	38	903	12.0	-163693.0	-3152989.0	-3888.0
5	18	2	38	904	13.0	-159134.0	-3153142.0	-5478.0
5	18	2	38	905	14.0	-154835.0	-3152296.0	-7386.0
5	18	2	38	906	15.0	-151226.0	-3149993.0	-8212.0
5	18	2	38	907	16.0	-148076.0	-3148989.0	-8337.0
5	18	2	38	907	17.0	-144845.0	-3149291.0	-7679.0
5	18	2	38	908	18.0	-142228.0	-3151139.0	-6797.0
5	18	2	38	909	19.0	-139897.0	-3153462.0	-6094.0
5	18	2	38	909	20.0	-139007.0	-3155962.0	-5647.0
5	18	2	38	910	21.0	-139247.0	-3159434.0	-4171.0
5	18	2	38	910	22.0	-140524.0	-3162506.0	-4230.0
5	18	2	38	911	23.0	-143276.0	-3163977.0	-6515.0
5	18	2	38	924	24.0	-146922.0	-3163583.0	-8396.0
5	18	2	38	925	25.0	-150885.0	-3163001.0	-9602.0
5	18	2	38	926	26.0	-155304.0	-3162942.0	-9651.0
5	18	2	38	927	27.0	-159002.0	-3163869.0	-8823.0
5	18	2	38	946	28.0	-161661.0	-3165540.0	-8115.0
5	18	2	38	947	29.0	-163760.0	-3168185.0	-7170.0
5	18	2	38	948	30.0	-164469.0	-3171638.0	-6315.0
5	18	2	38	949	31.0	-163896.0	-3175514.0	-4964.0
5	18	2	38	950	32.0	-162714.0	-3179724.0	-5438.0
5	18	2	38	950	33.0	-160544.0	-3182951.0	-7285.0
5	18	2	38	951	34.0	-158187.0	-3183566.0	-9586.0
5	18	2	38	951	35.0	-156656.0	-3183166.0	-10249.0
5	18	2	38	952	36.0	-155325.0	-3183219.0	-10061.0
5	18	2	38	953	37.0	-155032.0	-3182839.0	-9110.0
5	18	2	38	953	38.0	-155776.0	-3183853.0	-8761.0
5	18	2	38	954	39.0	-157096.0	-3188688.0	-8071.0
5	18	2	38	955	40.0	-158416.0	-3196096.0	-7323.0
5	18	2	38	955	41.0	-160177.0	-3200866.0	-5877.0
5	18	2	38	956	42.0	-161728.0	-3205238.0	-6124.0
5	18	2	38	956	43.0	-163372.0	-3207836.0	-8129.0
5	18	2	38	992	44.0	-164961.0	-3207870.0	-10210.0
5	18	2	38	993	45.0	-166514.0	-3208827.0	-9633.0
5	18	2	38	993	46.0	-167777.0	-3210082.0	-10207.0
5	18	2	38	994	47.0	-168952.0	-3211851.0	-9478.0
5	18	2	38	995	48.0	-170065.0	-3214451.0	-8959.0
5	18	2	38	996	49.0	-170863.0	-3217476.0	-8427.0
5	18	2	38	996	50.0	-171766.0	-3220972.0	-7427.0
5	18	2	38	997	51.0	-172004.0	-3226221.0	-6627.0
5	18	2	38	998	52.0	-171855.0	-3231809.0	-7324.0
5	18	2	38	999	53.0	-171877.0	-3233576.0	-9567.0
5	18	2	38	999	54.0	-171513.0	-3232848.0	-10984.0
5	18	2	39	0	55.0	-170823.0	-3232179.0	-10987.0
5	18	2	39	1	56.0	-170371.0	-3232039.0	-10917.0
5	18	2	39	2	57.0	-169644.0	-3232861.0	-10355.0
5	18	2	39	3	58.0	-169061.0	-3231509.0	-10084.0
5	18	2	39	4	65.0	-161157.0	-3226543.0	-13216.0
5	18	2	39	5	66.0	-160462.0	-3226317.0	-12902.0
5	18	2	39	5	67.0	-159681.0	-3228257.0	-12179.0
5	18	2	39	6	68.0	-158849.0	-3232109.0	-11299.0
5	18	2	39	7	69.0	-157809.0	-3237413.0	-10844.0
5	18	2	39	7	70.0	-156519.0	-3241887.0	-9796.0
5	18	2	39	21	71.0	-155666.0	-3246409.0	-8243.0
5	18	2	39	22	72.0	-154875.0	-3250094.0	-8816.0
5	18	2	39	23	73.0	-154401.0	-3250272.0	-9955.0
5	18	2	39	24	74.0	-154142.0	-3238049.0	-12148.0
5	18	2	39	25	75.0	-154204.0	-3230987.0	-11665.0
5	18	2	39	25	76.0	-154229.0	-3226635.0	-11669.0
5	18	2	39	26	77.0	-154029.0	-3226206.0	-10804.0
5	18	2	39	27	78.0	-154117.0	-3234406.0	-10083.0
5	18	2	39	28	79.0	-154284.0	-3235763.0	-9054.0
5	18	2	39	28	80.0	-154267.0	-3228519.0	-8256.0
5	18	2	39	29	81.0	-154522.0	-3229986.0	-7446.0
5	18	2	39	30	82.0	-154765.0	-3233169.0	-8034.0
5	18	2	39	39	83.0	-154184.0	-3235069.0	-9808.0
5	18	2	39	39	84.0	-154066.0	-3235642.0	-10952.0
5	18	2	39	40	85.0	-153824.0	-3234535.0	-11255.0
5	18	2	39	41	86.0	-154005.0	-3234040.0	-10421.0
5	18	2	39	42	87.0	-154439.0	-3236774.0	-9225.0
5	18	2	39	62	88.0	-155307.0	-3239456.0	-8410.0
5	18	2	39	85	89.0	-156597.0	-3237242.0	-7585.0
5	18	2	39	86	90.0	-156959.0	-3228924.0	-6433.0
5	18	2	39	87	91.0	-157767.0	-3229696.0	-5251.0
5	18	2	39	87	92.0	-157445.0	-3228105.0	-6021.0
5	18	2	39	88	93.0	-157513.0	-3228592.0	-8381.0
5	18	2	39	89	94.0	-158289.0	-3228362.0	-8924.0
5	18	2	39	89	95.0	-158946.0	-3226895.0	-9332.0
5	18	2	39	90	96.0	-159220.0	-3225330.0	-8631.0
5	18	2	39	91	97.0	-159409.0	-3228122.0	-7461.0
5	18	2	39	91	98.0	-160816.0	-3234963.0	-6819.0
5	18	2	39	92	99.0	-162276.0	-3239523.0	-6049.0
5	18	2	39	92	100.0	-163678.0	-3243249.0	-4923.0
5	18	2	39	93	101.0	-164331.0	-3246744.0	-3557.0
5	18	2	39	94	102.0	-165089.0	-3248809.0	-5015.0
5	18	2	39	95	103.0	-166036.0	-3255265.0	-6324.0
5	18	2	39	95	104.0	-166802.0	-3266232.0	-7947.0
5	18	2	39	96	105.0	-167774.0	-3266473.0	-8271.0
5	18	2	39	97	106.0	-168515.0	-3265741.0	-7391.0
5	18	2	39	98	107.0	-169057.0	-3265996.0	-5947.0
5	18	2	39	98	108.0	-169387.0	-3267230.0	-5527.0
5	18	2	39	99	109.0	-169621.0	-3269332.0	-4678.0
5	18	2	39	100	110.0	-169787.0	-3271779.0	-3135.0
5	18	2	39	100	111.0	-170506.0	-3274786.0	-2396.0
5	18	2	39	101	112.0	-171012.0	-3276447.0	-3639.0
5	18	2	39	102	113.0	-172021.0	-3275796.0	-5788.0
5	18	2	39	103	114.0	-172899.0	-3274384.0	-5936.0
5	18	2	39	103	115.0	-173696.0	-3275732.0	-5249.0
5	18	2	39	104	116.0	-174704.0	-3278261.0	-4712.0
5	18	2	39	105	117.0	-174709.0	-3278162.0	-4342.0
5	18	2	39	106	118.0	-175477.0	-3277897.0	-3974.0
5	18	2	39	114	119.0	-176089.0	-3280687.0	-3305.0
5	18	2	39	115	120.0	-176962.0	-3282965.0	-2262.0
5	18	2	39	116	121.0	-178027.0	-3284794.0	-1484.0
5	18	2	39	116	122.0	-178769.0	-3287925.0	-2860.0
5	18	2	39	117	123.0	-178912.0	-3290907.0	-5248.0
5	18	2	39	118	124.0	-179176.0	-3289605.0	-5795.0
5	18	2	39	118	125.0	-179013.0	-3288268.0	-5729.0
5	18	2	39	139	126.0	-177391.0	-3287672.0	-5256.0
5	18	2	39	141	127.0	-175929.0	-3287394.0	-4255.0
5	18	2	39	144	128.0	-173197.0	-3287897.0	-3214.0
5	18	2	39	147	129.0	-168323.0	-3289251.0	-2574.0
5	18	2	39	149	130.0	-156866.0	-3292464.0	-1687.0
5	18	2	39	152	131.0	-132156.0	-3296333.0	-902.0
5	18	2	39	155	132.0	-108232.0	-3298150.0	-2918.0
5	18	2	39	158	133.0	-103644.0	-3289839.0	-4984.0
5	18	2	39	160	134.0	-119922.0	-3281011.0	-5879.0
5	18	2	39	163	135.0	-147276.0	-3280723.0	-5691.0
5	18	2	39	165	136.0	-176222.0	-3282362.0	-4974.0
5	18	2	39	165	137.0	-201269.0	-3283618.0	-4167.0
5	18	2	39	166	138.0	-214381.0	-3281968.0	-3311.0
5	18	2	39	167	139.0	-216747.0	-3284667.0	-2601.0
5	18	2	39	168	140.0	-211981.0	-3292683.0	-1517.0
5	18	2	39	169	141.0	-202481.0	-3295551.0	-1395.0
5	18	2	39	169	142.0	-192241.0	-3290421.0	-2817.0
5	18	2	39	170	143.0	-181424.0	-3277074.0	-4856.0
5	18	2	39	171	144.0	-170141.0	-3274221.0	-5826.0
5	18	2	39	171	145.0	-160538.0	-3273851.0	-5017.0
5	18	2	39	172	146.0	-151590.0	-3274144.0	-4796.0
5	18	2	39	173	147.0	-142650.0	-3275356.0	-4164.0
5	18	2	39	174	148.0	-133187.0	-3277111.0	-3189.0
5	18	2	39	175	149.0	-122972.0	-3280679.0	-2763.0
5	18	2	39	175	150.0	-116942.0	-3284500.0	-2027.0
5	18	2	39	176	151.0	-114579.0	-3287957.0	-1418.0
5	18	2	39	177	152.0	-114737.0	-3289539.0	-3330.0
5	18	2	39	177	153.0	-118031.0	-3290781.0	-5766.0
5	18	2	39	178	154.0	-123897.0	-3290844.0	-6303.0
5	18	2	39	179	155.0	-133202.0	-3289662.0	-5911.0
5	18	2	39	180	156.0	-143950.0	-3289696.0	-4384.0
5	18	2	39	188	157.0	-153866.0	-3290610.0	-3357.0
5	18	2	39	189	158.0	-160436.0	-3291033.0	-3004.0
5	18	2	39	190	159.0	-166144.0	-3291107.0	-2857.0
5	18	2	39	191	160.0	-169389.0	-3293028.0	-1445.0
5	18	2	39	191	161.0	-170651.0	-3294901.0	-1305.0
5	18	2	39	192	162.0	-170508.0	-3294045.0	-3929.0
5	18	2	39	218	163.0	-169432.0	-3291514.0	-6236.0
5	18	2	39	220	164.0	-167536.0	-3288469.0	-5820.0
5	18	2	39	222	165.0	-165060.0	-3286089.0	-5530.0
5	18	2	39	225	166.0	-163644.0	-3283614.0	-4504.0
5	18	2	39	227	167.0	-163171.0	-3281394.0	-3572.0
5	18	2	39	229	168.0	-163840.0	-3280563.0	-2440.0
5	18	2	39	231	169.0	-165241.0	-3280488.0	-2124.0
5	18	2	39	233	170.0	-166909.0	-3281807.0	-1419.0
5	18	2	39	234	171.0	-168771.0	-3284022.0	-1344.0
5	18	2	39	235	172.0	-169774.0	-3282335.0	-3357.0
5	18	2	39	236	173.0	-170441.0	-3273896.0	-5200.0
5	18	2	39	237	174.0	-170478.0	-3268336.0	-5822.0
5	18	2	39	237	175.0	-169744.0	-3265901.0	-5540.0
5	18	2	39	238	176.0	-168848.0	-3264512.0	-4599.0
5	18	2	39	239	177.0	-167761.0	-3263896.0	-3555.0
5	18	2	39	239	178.0	-166121.0	-3264052.0	-2494.0
5	18	2	39	240	179.0	-164287.0	-3265012.0	-1809.0
5	18	2	39	241	180.0	-162102.0	-3266327.0	-108.0
5	18	2	39	241	181.0	-160076.0	-3267712.0	-447.0
5	18	2	39	251	182.0	-158335.0	-3265992.0	-2377.0
5	18	2	39	252	183.0	-156159.0	-3262747.0	-4203.0
5	18	2	39	252	184.0	-154335.0	-3261396.0	-4985.0
5	18	2	39	253	185.0	-152912.0	-3263122.0	-4626.0
5	18	2	39	254	186.0	-151772.0	-3264394.0	-3527.0
5	18	2	39	254	187.0	-150689.0	-3265422.0	-2767.0
5	18	2	39	255	188.0	-150110.0	-3266796.0	-1954.0
5	18	2	39	256	189.0	-150251.0	-3266112.0	-1402.0
5	18	2	39	257	190.0	-150467.0	-3267376.0	-468.0
5	18	2	39	257	191.0	-151469.0	-3268859.0	-629.0
5	18	2	39	258	192.0	-152987.0	-3267727.0	-2596.0
5	18	2	39	259	193.0	-154379.0	-3259953.0	-4454.0
5	18	2	39	260	194.0	-155394.0	-3255836.0	-4676.0
5	18	2	39	260	195.0	-156716.0	-3254719.0	-4725.0
5	18	2	39	261	196.0	-157931.0	-3255388.0	-3475.0
5	18	2	39	262	197.0	-159116.0	-3256097.0	-1922.0
5	18	2	39	263	198.0	-160449.0	-3257266.0	-697.0
5	18	2	39	263	199.0	-161852.0	-3258578.0	-191.0
5	18	2	39	284	200.0	-163502.0	-3259970.0	803.0
5	18	2	39	285	201.0	-165294.0	-3260104.0	-186.0
5	18	2	39	285	202.0	-167614.0	-3259194.0	-2018.0
5	18	2	39	286	203.0	-170082.0	-3257705.0	-3525.0
5	18	2	39	287	204.0	-172338.0	-3255359.0	-5325.0
5	18	2	39	287	205.0	-174441.0	-3252794.0	-5216.0
5	18	2	39	288	206.0	-176148.0	-3252024.0	-3212.0
5	18	2	39	288	207.0	-177772.0	-3253536.0	-2076.0
5	18	2	39	289	208.0	-179200.0	-3254837.0	-969.0
5	18	2	39	290	209.0	-180430.0	-3259154.0	219.0
5	18	2	39	290	210.0	-181669.0	-3263736.0	1924.0
5	18	2	39	291	211.0	-182700.0	-3265178.0	-39.0
5	18	2	39	291	212.0	-183374.0	-3264133.0	-2592.0
5	18	2	39	292	213.0	-183543.0	-3262458.0	-3833.0
5	18	2	39	307	214.0	-183248.0	-3261909.0	-4087.0
5	18	2	39	308	215.0	-182309.0	-3260554.0	-3754.0
5	18	2	39	308	216.0	-181036.0	-3260176.0	-2871.0
5	18	2	39	309	217.0	-179649.0	-3261701.0	-1934.0
5	18	2	39	309	218.0	-178086.0	-3263459.0	-783.0
5	18	2	39	310	219.0	-176033.0	-3265154.0	45.0
5	18	2	39	311	220.0	-173871.0	-3267714.0	1529.0
5	18	2	39	311	221.0	-171336.0	-3269232.0	176.0
5	18	2	39	329	222.0	-168609.0	-3269115.0	-1480.0
5	18	2	39	329	223.0	-165851.0	-3267581.0	-3201.0
5	18	2	39	330	224.0	-162890.0	-3265886.0	-3563.0
5	18	2	39	331	225.0	-160161.0	-3264882.0	-3109.0
5	18	2	39	331	226.0	-157497.0	-3265820.0	-2515.0
5	18	2	39	332	227.0	-155377.0	-3267381.0	-1421.0
5	18	2	39	332	228.0	-153423.0	-3268734.0	-591.0
5	18	2	39	333	229.0	-151349.0	-3270095.0	28.0
5	18	2	39	334	230.0	-149409.0	-3273124.0	1289.0
5	18	2	39	334	231.0	-147991.0	-3273807.0	32.0
5	18	2	39	335	232.0	-146811.0	-3272887.0	-1299.0
5	18	2	39	336	233.0	-145784.0	-3270594.0	-3371.0
5	18	2	39	337	234.0	-145076.0	-3261049.0	-3342.0
5	18	2	39	337	235.0	-144654.0	-3255174.0	-3178.0
5	18	2	39	338	236.0	-144258.0	-3254216.0	-2247.0
5	18	2	39	339	237.0	-143642.0	-3255472.0	-1498.0
5	18	2	39	355	238.0	-142986.0	-3258289.0	-515.0
5	18	2	39	356	239.0	-142234.0	-3261596.0	331.0
5	18	2	39	356	240.0	-141754.0	-3265231.0	1360.0
5	18	2	39	357	241.0	-141551.0	-3267062.0	-76.0
5	18	2	39	357	242.0	-141513.0	-3266556.0	-1952.0
5	18	2	39	358	243.0	-141647.0	-3265557.0	-3651.0
5	18	2	39	359	244.0	-142128.0	-3264481.0	-3672.0
5	18	2	39	359	245.0	-142919.0	-3263482.0	-3627.0
5	18	2	39	377	246.0	-144128.0	-3263381.0	-2717.0
5	18	2	39	399	247.0	-145538.0	-3258522.0	-1528.0
5	18	2	39	400	248.0	-147164.0	-3256575.0	-177.0
5	18	2	39	401	249.0	-148979.0	-3259397.0	247.0
5	18	2	39	401	250.0	-150972.0	-3262481.0	1511.0
5	18	2	39	402	251.0	-153600.0	-3264175.0	189.0
5	18	2	39	403	252.0	-156644.0	-3264517.0	-1043.0
5	18	2	39	403	253.0	-159715.0	-3271764.0	-3394.0
5	18	2	39	404	254.0	-162366.0	-3282741.0	-3510.0
5	18	2	39	404	255.0	-165256.0	-3284502.0	-2261.0
5	18	2	39	405	0.0	-168255.0	-3286545.0	-1727.0
5	18	2	39	405	1.0	-171139.0	-3287442.0	-1455.0
5	18	2	39	406	2.0	-174143.0	-3289635.0	-942.0
5	18	2	39	407	3.0	-177347.0	-3294820.0	246.0
5	18	2	39	407	4.0	-179919.0	-3298736.0	1618.0
5	18	2	39	408	5.0	-182078.0	-3297796.0	-261.0
5	18	2	39	408	6.0	-183509.0	-3295811.0	-1820.0
5	18	2	39	409	7.0	-184104.0	-3293401.0	-3393.0
5	18	2	39	410	8.0	-184051.0	-3285892.0	-3014.0
5	18	2	39	410	9.0	-183297.0	-3271666.0	-2361.0
5	18	2	39	411	10.0	-182256.0	-3270213.0	-1604.0
5	18	2	39	412	11.0	-180847.0	-3271738.0	-919.0
5	18	2	39	412	12.0	-179187.0	-3272613.0	-200.0
5	18	2	39	413	13.0	-177041.0	-3274495.0	1239.0
5	18	2	39	414	14.0	-174479.0	-3276250.0	1471.0
5	18	2	39	414	15.0	-171899.0	-3276104.0	268.0
5	18	2	39	415	16.0	-169097.0	-3274547.0	-1867.0
5	18	2	39	416	17.0	-166224.0	-3271447.0	-3202.0
5	18	2	39	416	18.0	-163932.0	-3268357.0	-3359.0
5	18	2	39	417	19.0	-161459.0	-3270617.0	-2881.0
5	18	2	39	418	20.0	-159406.0	-3274339.0	-1892.0
5	18	2	39	426	21.0	-157671.0	-3273466.0	-1294.0
5	18	2	39	427	22.0	-155695.0	-3272905.0	-384.0
5	18	2	39	427	23.0	-153669.0	-3274147.0	709.0
5	18	2	39	428	24.0	-152051.0	-3276832.0	1313.0
5	18	2	39	428	25.0	-150538.0	-3277854.0	-355.0
5	18	2	39	429	26.0	-149175.0	-3275551.0	-2325.0
5	18	2	39	449	27.0	-148105.0	-3271726.0	-3567.0
5	18	2	39	450	28.0	-147667.0	-3269757.0	-4222.0
5	18	2	39	450	29.0	-147383.0	-3270080.0	-3247.0
5	18	2	39	451	30.0	-147219.0	-3270731.0	-2151.0
5	18	2	39	472	31.0	-147597.0	-3271026.0	-1359.0
5	18	2	39	473	32.0	-148137.0	-3271896.0	-599.0
5	18	2	39	473	33.0	-149021.0	-3273162.0	1266.0
5	18	2	39	474	34.0	-150214.0	-3274261.0	1234.0
5	18	2	39	475	35.0	-151366.0	-3276332.0	-424.0
5	18	2	39	475	36.0	-152790.0	-3276352.0	-1704.0
5	18	2	39	476	37.0	-154197.0	-3273018.0	-2917.0
5	18	2	39	477	38.0	-155846.0	-3269937.0	-2714.0
5	18	2	39	477	39.0	-157856.0	-3268685.0	-2656.0
5	18	2	39	478	40.0	-159990.0	-3268351.0	-2042.0
5	18	2	39	479	41.0	-162019.0	-3268309.0	-1456.0
5	18	2	39	479	42.0	-164139.0	-3268239.0	-1105.0
5	18	2	39	480	43.0	-166622.0	-3264091.0	320.0
5	18	2	39	481	44.0	-168992.0	-3259758.0	-53.0
5	18	2	39	482	45.0	-171359.0	-3259489.0	-1059.0
5	18	2	39	482	46.0	-173693.0	-3258478.0	-3053.0
5	18	2	39	483	47.0	-175773.0	-3257252.0	-4701.0
5	18	2	39	484	48.0	-177491.0	-3255008.0	-4738.0
5	18	2	39	484	49.0	-179481.0	-3252899.0	-3649.0
5	18	2	39	485	50.0	-181298.0	-3251854.0	-2687.0
5	18	2	39	485	51.0	-182459.0	-3251677.0	-2199.0
5	18	2	39	486	52.0	-183137.0	-3249099.0	-1416.0
5	18	2	39	487	53.0	-183508.0	-3246968.0	-96.0
5	18	2	39	487	54.0	-183337.0	-3248476.0	-117.0
5	18	2	39	488	55.0	-182420.0	-3248425.0	-2163.0
5	18	2	39	500	56.0	-181325.0	-3246812.0	-4897.0
5	18	2	39	501	57.0	-179666.0	-3243906.0	-5281.0
5	18	2	39	501	58.0	-177600.0	-3238941.0	-5064.0
5	18	2	39	502	59.0	-174997.0	-3234014.0	-4026.0
5	18	2	39	503	60.0	-172617.0	-3230309.0	-3177.0
5	18	2	39	503	61.0	-170254.0	-3231192.0	-2048.0
5	18	2	39	504	62.0	-168037.0	-3242232.0	-1192.0
5	18	2	39	505	63.0	-166054.0	-3243885.0	565.0
5	18	2	39	505	64.0	-163675.0	-3243149.0	451.0
5	18	2	39	506	65.0	-160922.0	-3240096.0	-1452.0
5	18	2	39	519	66.0	-158102.0	-3235134.0	-2754.0
5	18	2	39	519	67.0	-155418.0	-3229314.0	-4164.0
5	18	2	39	520	68.0	-152955.0	-3223385.0	-4043.0
5	18	2	39	520	69.0	-150598.0	-3217654.0	-2457.0
5	18	2	39	521	70.0	-148723.0	-3213658.0	-1479.0
5	18	2	39	522	71.0	-146935.0	-3210592.0	-792.0
5	18	2	39	541	72.0	-145337.0	-3208794.0	-325.0
5	18	2	39	542	73.0	-143971.0	-3208727.0	1506.0
5	18	2	39	542	74.0	-143045.0	-3207364.0	712.0
5	18	2	39	543	75.0	-142484.0	-3203106.0	-947.0
5	18	2	39	544	76.0	-142391.0	-3197702.0	-2954.0
5	18	2	39	566	77.0	-142418.0	-3191843.0	-2654.0
5	18	2	39	566	78.0	-142831.0	-3188907.0	-1924.0
5	18	2	39	567	79.0	-143311.0	-3186790.0	-914.0
5	18	2	39	568	80.0	-144041.0	-3185659.0	-214.0
5	18	2	39	568	81.0	-144605.0	-3185317.0	339.0
5	18	2	39	569	82.0	-145277.0	-3183899.0	404.0
5	18	2	39	569	83.0	-145927.0	-3182870.0	1802.0
5	18	2	39	570	84.0	-146839.0	-3181879.0	1371.0
5	18	2	39	571	85.0	-148435.0	-3178422.0	-137.0
5	18	2	39	571	86.0	-150280.0	-3172574.0	-2601.0
5	18	2	39	572	87.0	-152521.0	-3166287.0	-1960.0
5	18	2	39	572	88.0	-154818.0	-3161437.0	-1545.0
5	18	2	39	573	89.0	-157326.0	-3156214.0	-815.0
5	18	2	39	574	90.0	-159582.0	-3151246.0	-166.0
5	18	2	39	574	91.0	-161581.0	-3150409.0	819.0
5	18	2	39	575	92.0	-163451.0	-3151174.0	1393.0
5	18	2	39	575	93.0	-165264.0	-3148559.0	2505.0
5	18	2	39	576	94.0	-166687.0	-3143630.0	2243.0
5	18	2	39	577	95.0	-167329.0	-3138656.0	208.0
5	18	2	39	578	96.0	-167814.0	-3124432.0	-2199.0
5	18	2	39	579	97.0	-167586.0	-3112316.0	-3171.0
5	18	2	39	580	98.0	-167124.0	-3107932.0	-3070.0
5	18	2	39	580	99.0	-166786.0	-3105905.0	-2454.0
5	18	2	39	581	100.0	-166437.0	-3110971.0	-1983.0
5	18	2	39	582	101.0	-165994.0	-3112224.0	-2437.0
5	18	2	39	582	102.0	-165654.0	-3110297.0	-3651.0
5	18	2	39	590	103.0	-165450.0	-3109222.0	-3649.0
5	18	2	39	591	104.0	-165137.0	-3107685.0	-5672.0
5	18	2	39	592	105.0	-165254.0	-3104904.0	-8879.0
5	18	2	39	592	106.0	-165361.0	-3099644.0	-12766.0
5	18	2	39	593	107.0	-165654.0	-3093456.0	-14424.0
5	18	2	39	594	108.0	-165854.0	-3088904.0	-16183.0
5	18	2	39	622	109.0	-166217.0	-3087419.0	-19664.0
5	18	2	39	622	110.0	-166516.0	-3086579.0	-23660.0
5	18	2	39	623	111.0	-166791.0	-3087009.0	-25387.0
5	18	2	39	624	112.0	-166316.0	-3088706.0	-23911.0
5	18	2	39	625	113.0	-165416.0	-3090903.0	-17975.0
5	18	2	39	625	114.0	-163969.0	-3091101.0	-13400.0
5	18	2	39	626	115.0	-162200.0	-3090514.0	-9277.0
5	18	2	39	627	116.0	-160679.0	-3088667.0	-9412.0
5	18	2	39	627	117.0	-159190.0	-3085902.0	-8907.0
5	18	2	39	628	118.0	-158366.0	-3085934.0	-5854.0
5	18	2	39	629	119.0	-158232.0	-3085678.0	-829.0
5	18	2	39	629	120.0	-159023.0	-3084377.0	4173.0
5	18	2	39	630	121.0	-160543.0	-3082939.0	8356.0
5	18	2	39	631	122.0	-162477.0	-3082128.0	12930.0
5	18	2	39	632	123.0	-164394.0	-3082675.0	19408.0
5	18	2	39	632	124.0	-165979.0	-3082157.0	22062.0
5	18	2	39	633	125.0	-167360.0	-3079430.0	21304.0
5	18	2	39	634	126.0	-168350.0	-3076402.0	19908.0
5	18	2	39	634	127.0	-169072.0	-3073443.0	19008.0
5	18	2	39	635	128.0	-169582.0	-3070339.0	18116.0
5	18	2	39	636	129.0	-170165.0	-3068435.0	18540.0
5	18	2	39	636	130.0	-170739.0	-3066851.0	18218.0
5	18	2	39	651	131.0	-171699.0	-3065823.0	16799.0
5	18	2	39	652	132.0	-173282.0	-3064393.0	14754.0
5	18	2	39	652	133.0	-174310.0	-3063565.0	11579.0
5	18	2	39	653	134.0	-170456.0	-3061043.0	6826.0
5	18	2	39	654	135.0	-160832.0	-3056608.0	2444.0
5	18	2	39	654	136.0	-145778.0	-3051919.0	-538.0
5	18	2	39	655	137.0	-128678.0	-3047160.0	-1584.0
5	18	2	39	656	138.0	-114489.0	-3043273.0	-1767.0
5	18	2	39	656	139.0	-102227.0	-3040277.0	-1014.0
5	18	2	39	666	140.0	-93737.0	-3038946.0	-684.0
5	18	2	39	667	141.0	-91469.0	-3039142.0	44.0
5	18	2	39	668	142.0	-96373.0	-3038979.0	1042.0
5	18	2	39	668	143.0	-109412.0	-3037608.0	2104.0
5	18	2	39	669	144.0	-130512.0	-3035934.0	459.0
5	18	2	39	669	145.0	-157448.0	-3033919.0	-1456.0
5	18	2	39	670	146.0	-185336.0	-3030475.0	-3397.0
5	18	2	39	689	147.0	-208530.0	-3028899.0	-3378.0
5	18	2	39	711	148.0	-223145.0	-3027771.0	-2478.0
5	18	2	39	712	149.0	-228210.0	-3024862.0	-2020.0
5	18	2	39	713	150.0	-224533.0	-3022850.0	-1394.0
5	18	2	39	713	151.0	-212264.0	-3020875.0	-802.0
5	18	2	39	714	152.0	-195177.0	-3019319.0	3.0
5	18	2	39	715	153.0	-175788.0	-3018197.0	161.0
5	18	2	39	715	154.0	-158162.0	-3016050.0	-618.0
5	18	2	39	716	155.0	-145399.0	-3013179.0	-3248.0
5	18	2	39	716	156.0	-138777.0	-3014494.0	-4941.0
5	18	2	39	717	157.0	-136087.0	-3011879.0	-4940.0
5	18	2	39	718	158.0	-135761.0	-3008871.0	-4169.0
5	18	2	39	718	159.0	-136547.0	-3006064.0	-2456.0
5	18	2	39	719	160.0	-137932.0	-2998823.0	-1833.0
5	18	2	39	720	161.0	-141159.0	-2996172.0	-1719.0
5	18	2	39	721	162.0	-146205.0	-3006154.0	-637.0
5	18	2	39	721	163.0	-153039.0	-3012424.0	-336.0
5	18	2	39	722	164.0	-160792.0	-3008417.0	-2085.0
5	18	2	39	722	165.0	-167264.0	-3003194.0	-4838.0
5	18	2	39	723	166.0	-171435.0	-2997683.0	-6041.0
5	18	2	39	724	167.0	-172172.0	-2991714.0	-5820.0
5	18	2	39	734	168.0	-170292.0	-2985814.0	-4116.0
5	18	2	39	735	169.0	-166577.0	-2981299.0	-3281.0
5	18	2	39	735	170.0	-161605.0	-2980319.0	-2602.0
5	18	2	39	736	171.0	-156504.0	-2978387.0	-1888.0
5	18	2	39	737	172.0	-151340.0	-2974376.0	-1165.0
5	18	2	39	737	173.0	-146536.0	-2970627.0	-706.0
5	18	2	39	738	174.0	-142137.0	-2962569.0	-2687.0
5	18	2	39	738	175.0	-137824.0	-2955579.0	-5280.0
5	18	2	39	739	176.0	-134585.0	-2948367.0	-5517.0
5	18	2	39	740	177.0	-132260.0	-2940292.0	-5745.0
5	18	2	39	740	178.0	-131924.0	-2932185.0	-5390.0
5	18	2	39	741	179.0	-134031.0	-2925952.0	-4372.0
5	18	2	39	742	180.0	-137609.0	-2920459.0	-3157.0
5	18	2	39	743	181.0	-142428.0	-2916489.0	-2560.0
5	18	2	39	743	182.0	-147303.0	-2913701.0	-1471.0
5	18	2	39	744	183.0	-151432.0	-2900851.0	-864.0
5	18	2	39	756	184.0	-154690.0	-2888185.0	-2786.0
5	18	2	39	757	185.0	-156432.0	-2882735.0	-4449.0
5	18	2	39	758	186.0	-156726.0	-2877180.0	-6013.0
5	18	2	39	759	187.0	-156296.0	-2871334.0	-6136.0
5	18	2	39	759	188.0	-154791.0	-2866972.0	-5319.0
5	18	2	39	760	189.0	-152742.0	-2862849.0	-4445.0
5	18	2	39	760	190.0	-151182.0	-2858786.0	-3686.0
5	18	2	39	761	191.0	-149642.0	-2855579.0	-3015.0
5	18	2	39	780	192.0	-148579.0	-2856597.0	-1557.0
5	18	2	39	781	193.0	-148514.0	-2860809.0	-1701.0
5	18	2	39	782	194.0	-148897.0	-2856734.0	-3826.0
5	18	2	39	782	195.0	-150352.0	-2850558.0	-6482.0
5	18	2	39	783	196.0	-152373.0	-2842301.0	-7087.0
5	18	2	39	783	197.0	-154634.0	-2834612.0	-7248.0
5	18	2	39	784	198.0	-157314.0	-2827821.0	-6797.0
5	18	2	39	785	199.0	-159459.0	-2821169.0	-6035.0
5	18	2	39	785	200.0	-160970.0	-2815385.0	-4844.0
5	18	2	39	786	201.0	-162194.0	-2811534.0	-3448.0
5	18	2	39	787	202.0	-163346.0	-2811944.0	-2473.0
5	18	2	39	787	203.0	-164556.0	-2805944.0	-2229.0
5	18	2	39	788	204.0	-165649.0	-2792361.0	-4372.0
5	18	2	39	789	205.0	-166473.0	-2784504.0	-6634.0
5	18	2	39	789	206.0	-167239.0	-2776909.0	-7539.0
5	18	2	39	803	207.0	-167422.0	-2769571.0	-7865.0
5	18	2	39	803	208.0	-167855.0	-2764384.0	-7505.0
5	18	2	39	804	209.0	-168675.0	-2760844.0	-6612.0
5	18	2	39	805	210.0	-169134.0	-2757462.0	-5441.0
5	18	2	39	805	211.0	-169681.0	-2754740.0	-4260.0
5	18	2	39	806	212.0	-170046.0	-2753955.0	-3351.0
5	18	2	39	807	213.0	-170101.0	-2754391.0	-3224.0
5	18	2	39	807	214.0	-169955.0	-2753609.0	-5398.0
5	18	2	39	825	215.0	-169385.0	-2751578.0	-6845.0
5	18	2	39	826	216.0	-168551.0	-2749252.0	-8896.0
5	18	2	39	826	217.0	-167322.0	-2747234.0	-8801.0
5	18	2	39	827	218.0	-165742.0	-2745696.0	-7648.0
5	18	2	39	828	219.0	-164562.0	-2745572.0	-6948.0
5	18	2	39	828	220.0	-163119.0	-2746212.0	-6664.0
5	18	2	39	829	221.0	-161573.0	-2746277.0	-5622.0
5	18	2	39	830	222.0	-160302.0	-2747261.0	-3987.0
5	18	2	39	830	223.0	-159177.0	-2748219.0	-4710.0
5	18	2	39	831	224.0	-158350.0	-2746936.0	-6646.0
5	18	2	39	832	225.0	-157739.0	-2744669.0	-8357.0
5	18	2	39	833	226.0	-157010.0	-2743174.0	-9254.0
5	18	2	39	833	227.0	-156539.0	-2740739.0	-9311.0
5	18	2	39	834	228.0	-156256.0	-2738807.0	-8663.0
5	18	2	39	851	229.0	-156334.0	-2737500.0	-7761.0
5	18	2	39	852	230.0	-156809.0	-2737869.0	-6509.0
5	18	2	39	853	231.0	-157031.0	-2739567.0	-5844.0
5	18	2	39	853	232.0	-157432.0	-2742261.0	-4355.0
5	18	2	39	874	233.0	-157954.0	-2744452.0	-5165.0
5	18	2	39	875	234.0	-158294.0	-2744285.0	-7228.0
5	18	2	39	876	235.0	-158447.0	-2742089.0	-9248.0
5	18	2	39	876	236.0	-158478.0	-2739810.0	-9761.0
5	18	2	39	877	237.0	-158434.0	-2738106.0	-9502.0
5	18	2	39	878	238.0	-158398.0	-2737877.0	-8471.0
5	18	2	39	879	239.0	-158189.0	-2738152.0	-7510.0
5	18	2	39	879	240.0	-157932.0	-2739195.0	-6572.0
5	18	2	39	880	241.0	-157836.0	-2740434.0	-5307.0
5	18	2	39	881	242.0	-158266.0	-2742393.0	-3469.0
5	18	2	39	881	243.0	-159252.0	-2743502.0	-4079.0
5	18	2	39	882	244.0	-160322.0	-2742456.0	-6336.0
5	18	2	39	883	245.0	-161511.0	-2739581.0	-7086.0
5	18	2	39	884	246.0	-162652.0	-2736976.0	-7895.0
5	18	2	39	884	247.0	-163990.0	-2736156.0	-8027.0
5	18	2	39	885	248.0	-165354.0	-2736416.0	-6745.0
5	18	2	39	885	249.0	-166863.0	-2735707.0	-6037.0
5	18	2	39	886	250.0	-168048.0	-2733709.0	-4914.0
5	18	2	39	887	251.0	-168123.0	-2729289.0	-3555.0
5	18	2	39	887	252.0	-169020.0	-2726120.0	-1438.0
5	18	2	39	888	253.0	-169364.0	-2723612.0	-2326.0
5	18	2	39	889	254.0	-169491.0	-2717954.0	-3741.0
5	18	2	39	897	255.0	-169651.0	-2704914.0	-5219.0
5	18	2	39	898	0.0	-169842.0	-2696941.0	-5474.0
5	18	2	39	899	1.0	-169528.0	-2693474.0	-4818.0
5	18	2	39	920	2.0	-168834.0	-2691265.0	-4333.0
5	18	2	39	921	3.0	-167522.0	-2689078.0	-2939.0
5	18	2	39	922	4.0	-166177.0	-2688996.0	-2451.0
5	18	2	39	922	5.0	-164807.0	-2689615.0	-2037.0
5	18	2	39	923	6.0	-164196.0	-2691341.0	-282.0
5	18	2	39	923	7.0	-163858.0	-2691655.0	-1302.0
5	18	2	39	924	8.0	-163391.0	-2690195.0	-2818.0
5	18	2	39	925	9.0	-163327.0	-2688254.0	-4668.0
5	18	2	39	925	10.0	-163244.0	-2686822.0	-4799.0
5	18	2	39	926	11.0	-163009.0	-2685068.0	-4190.0
5	18	2	39	943	12.0	-162728.0	-2686979.0	-3372.0
5	18	2	39	943	13.0	-162381.0	-2699171.0	-3005.0
5	18	2	39	944	14.0	-161971.0	-2703965.0	-2025.0
5	18	2	39	945	15.0	-161618.0	-2704974.0	-976.0
5	18	2	39	945	16.0	-161339.0	-2705627.0	359.0
5	18	2	39	946	17.0	-161312.0	-2700263.0	-351.0
5	18	2	39	947	18.0	-161246.0	-2696762.0	-2306.0
5	18	2	39	947	19.0	-161451.0	-2694208.0	-3595.0
5	18	2	39	948	20.0	-162339.0	-2691019.0	-4051.0
5	18	2	39	949	21.0	-163571.0	-2688664.0	-4543.0
5	18	2	39	949	22.0	-165503.0	-2688026.0	-3654.0
5	18	2	39	950	23.0	-167877.0	-2688382.0	-2327.0
5	18	2	39	951	24.0	-170442.0	-2690119.0	-1566.0
5	18	2	39	951	25.0	-173200.0	-2696064.0	-726.0
5	18	2	39	952	26.0	-175182.0	-2698862.0	1284.0
5	18	2	39	953	27.0	-177057.0	-2698181.0	-790.0
5	18	2	39	953	28.0	-178663.0	-2696787.0	-2263.0
5	18	2	39	954	29.0	-178572.0	-2693862.0	-3707.0
5	18	2	39	954	30.0	-176485.0	-2691196.0	-3881.0
5	18	2	39	955	31.0	-170386.0	-2691143.0	-1871.0
5	18	2	39	965	32.0	-153576.0	-2690882.0	-1404.0
5	18	2	39	966	33.0	-128779.0	-2688331.0	-1626.0
5	18	2	39	967	34.0	-117402.0	-2686922.0	-1237.0
5	18	2	39	968	35.0	-125450.0	-2688798.0	-208.0
5	18	2	39	969	36.0	-147698.0	-2691331.0	1021.0
5	18	2	39	969	37.0	-174360.0	-2691674.0	-234.0
5	18	2	39	970	38.0	-199331.0	-2690367.0	-1722.0
5	18	2	39	971	39.0	-217334.0	-2687100.0	-3437.0
5	18	2	39	971	40.0	-222816.0	-2683691.0	-3327.0
5	18	2	39	986	41.0	-220822.0	-2682030.0	-2894.0
5	18	2	39	987	42.0	-212887.0	-2682208.0	-1866.0
5	18	2	39	987	43.0	-201910.0	-2682836.0	-1101.0
5	18	2	39	988	44.0	-191552.0	-2683043.0	-424.0
5	18	2	39	989	45.0	-181427.0	-2683409.0	393.0
5	18	2	39	989	46.0	-171470.0	-2685289.0	834.0
5	18	2	39	990	47.0	-161041.0	-2685444.0	-154.0
5	18	2	40	8	48.0	-148228.0	-2682690.0	-1712.0
5	18	2	40	9	49.0	-136687.0	-2679720.0	-3724.0
5	18	2	40	10	50.0	-128549.0	-2678209.0	-3585.0
5	18	2	40	11	51.0	-122857.0	-2677519.0	-3337.0
5	18	2	40	11	52.0	-120736.0	-2677345.0	-2576.0
5	18	2	40	12	53.0	-121701.0	-2677313.0	-1749.0
5	18	2	40	13	54.0	-126165.0	-2676673.0	-713.0
5	18	2	40	14	55.0	-132705.0	-2668806.0	237.0
5	18	2	40	14	56.0	-139849.0	-2667552.0	1246.0
5	18	2	40	15	57.0	-146539.0	-2668078.0	-424.0
5	18	2	40	16	58.0	-151822.0	-2666172.0	-2733.0
5	18	2	40	17	59.0	-155093.0	-2664531.0	-3626.0
5	18	2	40	18	60.0	-156448.0	-2663078.0	-3601.0
5	18	2	40	18	61.0	-155886.0	-2658872.0	-3309.0
5	18	2	40	19	62.0	-154127.0	-2657036.0	-2384.0
5	18	2	40	20	63.0	-151605.0	-2654325.0	-1358.0
5	18	2	40	20	64.0	-148347.0	-2649561.0	-804.0
5	18	2	40	21	65.0	-145437.0	-2650052.0	15.0
5	18	2	40	32	66.0	-143458.0	-2651742.0	989.0
5	18	2	40	33	67.0	-142415.0	-2651967.0	-160.0
5	18	2	40	34	68.0	-142616.0	-2649753.0	-1540.0
5	18	2	40	56	69.0	-144062.0	-2646384.0	-3535.0
5	18	2	40	57	70.0	-146381.0	-2642874.0	-3369.0
5	18	2	40	58	71.0	-149512.0	-2641201.0	-2347.0
5	18	2	40	58	72.0	-152980.0	-2640712.0	-1202.0
5	18	2	40	59	73.0	-156147.0	-2640897.0	-791.0
5	18	2	40	59	74.0	-158596.0	-2640856.0	-301.0
5	18	2	40	60	75.0	-160264.0	-2629872.0	780.0
5	18	2	40	60	76.0	-161372.0	-2623101.0	1298.0
5	18	2	40	61	77.0	-162344.0	-2621126.0	-301.0
5	18	2	40	62	78.0	-163352.0	-2618262.0	-1241.0
5	18	2	40	62	79.0	-163994.0	-2615632.0	-3237.0
5	18	2	40	63	80.0	-164028.0	-2612154.0	-3112.0
5	18	2	40	63	81.0	-163952.0	-2610311.0	-1975.0
5	18	2	40	64	82.0	-163248.0	-2609338.0	-1334.0
5	18	2	40	64	83.0	-162601.0	-2608819.0	-887.0
5	18	2	40	65	84.0	-161891.0	-2609565.0	67.0
5	18	2	40	132	85.0	-161179.0	-2610782.0	1694.0
5	18	2	40	133	86.0	-160959.0	-2612617.0	2013.0
5	18	2	40	134	87.0	-161044.0	-2614512.0	87.0
5	18	2	40	134	88.0	-161424.0	-2614279.0	-2019.0
5	18	2	40	136	89.0	-161799.0	-2613491.0	-2687.0
5	18	2	40	137	90.0	-162249.0	-2612566.0	-2784.0
5	18	2	40	137	91.0	-162774.0	-2612069.0	-1983.0
5	18	2	40	138	92.0	-163762.0	-2612726.0	-1274.0
5	18	2	40	139	93.0	-164339.0	-2614496.0	-390.0
5	18	2	40	139	94.0	-165186.0	-2616481.0	821.0
5	18	2	40	140	95.0	-165999.0	-2617557.0	2308.0
5	18	2	40	140	96.0	-166706.0	-2618891.0	2761.0
5	18	2	40	141	97.0	-167879.0	-2618735.0	386.0
5	18	2	40	141	98.0	-168171.0	-2619967.0	-1081.0
5	18	2	40	142	99.0	-168476.0	-2632168.0	-2394.0
5	18	2	40	143	121.0	-169824.0	-2635694.0	-511.0
5	18	2	40	143	122.0	-168972.0	-2636331.0	86.0
5	18	2	40	144	123.0	-168331.0	-2637369.0	824.0
5	18	2	40	144	124.0	-167634.0	-2639675.0	1888.0
5	18	2	40	145	125.0	-166663.0	-2642776.0	3192.0
5	18	2	40	146	126.0	-165901.0	-2643498.0	2545.0
5	18	2	40	146	127.0	-164732.0	-2641692.0	1054.0
5	18	2	40	147	128.0	-163612.0	-2640232.0	-1059.0
5	18	2	40	147	129.0	-162699.0	-2636844.0	-1384.0
5	18	2	40	192	130.0	-161830.0	-2634182.0	-1905.0
5	18	2	40	194	131.0	-161096.0	-2632553.0	-936.0
5	18	2	40	195	132.0	-160324.0	-2626980.0	64.0
5	18	2	40	196	133.0	-159742.0	-2627301.0	1037.0
5	18	2	40	197	134.0	-159330.0	-2632647.0	2133.0
5	18	2	40	198	135.0	-159101.0	-2632183.0	3480.0
5	18	2	40	198	136.0	-159096.0	-2627842.0	3073.0
5	18	2	40	199	137.0	-159244.0	-2627779.0	1138.0
5	18	2	40	199	138.0	-159208.0	-2626797.0	-326.0
5	18	2	40	200	139.0	-159167.0	-2626447.0	-1376.0
5	18	2	40	201	140.0	-159095.0	-2625189.0	-752.0
5	18	2	40	201	141.0	-158907.0	-2625036.0	495.0
5	18	2	40	202	142.0	-158409.0	-2625811.0	1081.0
5	18	2	40	202	143.0	-157777.0	-2626482.0	1433.0
5	18	2	40	203	144.0	-157132.0	-2627695.0	2088.0
5	18	2	40	204	145.0	-156712.0	-2631534.0	3911.0
5	18	2	40	204	151.0	-154595.0	-2631831.0	209.0
5	18	2	40	205	152.0	-154559.0	-2632879.0	1221.0
5	18	2	40	205	153.0	-154372.0	-2635002.0	1847.0
5	18	2	40	206	154.0	-154432.0	-2636916.0	2491.0
5	18	2	40	207	155.0	-154874.0	-2639453.0	3829.0
5	18	2	40	207	156.0	-155614.0	-2641418.0	2214.0
5	18	2	40	208	157.0	-155968.0	-2641311.0	670.0
5	18	2	40	209	158.0	-156401.0	-2640342.0	-1125.0
5	18	2	40	209	159.0	-156834.0	-2639625.0	-989.0
5	18	2	40	210	160.0	-157231.0	-2639018.0	-527.0
5	18	2	40	221	161.0	-157622.0	-2640049.0	413.0
5	18	2	40	221	162.0	-158051.0	-2641509.0	1101.0
5	18	2	40	222	163.0	-158661.0	-2643985.0	2078.0
5	18	2	40	223	164.0	-159052.0	-2638722.0	2708.0
5	18	2	40	223	165.0	-159312.0	-2632870.0	3987.0
5	18	2	40	224	166.0	-159458.0	-2645249.0	2845.0
5	18	2	40	224	167.0	-159658.0	-2654084.0	1256.0
5	18	2	40	253	168.0	-159685.0	-2651937.0	-569.0
5	18	2	40	254	169.0	-159798.0	-2650586.0	-845.0
5	18	2	40	254	170.0	-160077.0	-2649292.0	-361.0
5	18	2	40	255	171.0	-160347.0	-2648706.0	439.0
5	18	2	40	256	172.0	-160722.0	-2649091.0	1063.0
5	18	2	40	257	173.0	-161124.0	-2649813.0	1958.0
5	18	2	40	257	174.0	-161626.0	-2650891.0	2623.0
5	18	2	40	258	175.0	-162048.0	-2654649.0	3956.0
5	18	2	40	259	176.0	-162713.0	-2656899.0	2369.0
5	18	2	40	259	177.0	-163601.0	-2657267.0	448.0
5	18	2	40	260	178.0	-164313.0	-2654197.0	-804.0
5	18	2	40	261	179.0	-164743.0	-2640384.0	-947.0
5	18	2	40	261	180.0	-165041.0	-2635222.0	-387.0
5	18	2	40	262	181.0	-165226.0	-2635741.0	711.0
5	18	2	40	263	182.0	-165109.0	-2636238.0	1971.0
5	18	2	40	263	183.0	-164714.0	-2637141.0	2476.0
5	18	2	40	264	184.0	-164014.0	-2639173.0	2479.0
5	18	2	40	264	185.0	-163230.0	-2642416.0	4046.0
5	18	2	40	265	186.0	-162089.0	-2645133.0	2204.0
5	18	2	40	266	187.0	-160909.0	-2645689.0	671.0
5	18	2	40	266	188.0	-159834.0	-2643520.0	-2217.0
5	18	2	40	281	189.0	-158721.0	-2640884.0	-2009.0
5	18	2	40	282	190.0	-158054.0	-2638894.0	-15.0
5	18	2	40	282	191.0	-157812.0	-2640594.0	596.0
5	18	2	40	283	192.0	-157757.0	-2643237.0	1050.0
5	18	2	40	284	193.0	-157726.0	-2645227.0	1543.0
5	18	2	40	284	194.0	-157844.0	-2647932.0	2361.0
5	18	2	40	285	195.0	-158244.0	-2650534.0	2806.0
5	18	2	40	285	196.0	-158721.0	-2651524.0	739.0
5	18	2	40	286	197.0	-159235.0	-2650657.0	-920.0
5	18	2	40	287	198.0	-159707.0	-2647674.0	-3348.0
5	18	2	40	299	199.0	-160239.0	-2645906.0	-3324.0
5	18	2	40	299	200.0	-160750.0	-2645827.0	-2264.0
5	18	2	40	300	201.0	-161122.0	-2647406.0	-927.0
5	18	2	40	300	202.0	-161791.0	-2654724.0	-584.0
5	18	2	40	301	203.0	-162486.0	-2660790.0	232.0
5	18	2	40	302	204.0	-163084.0	-2663614.0	1834.0
5	18	2	40	321	205.0	-163632.0	-2666462.0	2204.0
5	18	2	40	322	206.0	-164169.0	-2667011.0	505.0
5	18	2	40	323	207.0	-164699.0	-2664741.0	-1657.0
5	18	2	40	323	208.0	-165282.0	-2661972.0	-3226.0
5	18	2	40	324	209.0	-165982.0	-2660473.0	-3291.0
5	18	2	40	325	210.0	-166486.0	-2660146.0	-2721.0
5	18	2	40	325	211.0	-167034.0	-2660762.0	-1547.0
5	18	2	40	326	212.0	-167514.0	-2660149.0	-578.0
5	18	2	40	327	213.0	-168137.0	-2651106.0	369.0
5	18	2	40	327	214.0	-168716.0	-2645557.0	1394.0
5	18	2	40	328	215.0	-169392.0	-2647776.0	2544.0
5	18	2	40	328	216.0	-170645.0	-2648451.0	563.0
5	18	2	40	329	217.0	-171636.0	-2647236.0	-1124.0
5	18	2	40	329	218.0	-172472.0	-2644024.0	-2502.0
5	18	2	40	330	219.0	-173356.0	-2644020.0	-2430.0
5	18	2	40	348	220.0	-173726.0	-2651724.0	-1077.0
5	18	2	40	349	221.0	-173954.0	-2654467.0	476.0
5	18	2	40	349	222.0	-173829.0	-2656191.0	1287.0
5	18	2	40	350	223.0	-173526.0	-2657615.0	2199.0
5	18	2	40	350	224.0	-172702.0	-2663302.0	3652.0
5	18	2	40	351	225.0	-171787.0	-2670946.0	3240.0
5	18	2	40	352	226.0	-170701.0	-2670953.0	1784.0
5	18	2	40	352	227.0	-169081.0	-2669726.0	-273.0
5	18	2	40	371	228.0	-167477.0	-2667621.0	-1996.0
5	18	2	40	371	229.0	-165679.0	-2666306.0	-2503.0
5	18	2	40	372	230.0	-164047.0	-2665814.0	-2073.0
5	18	2	40	373	231.0	-162301.0	-2666091.0	-119.0
5	18	2	40	373	232.0	-160231.0	-2667112.0	1609.0
5	18	2	40	374	233.0	-158275.0	-2668671.0	2753.0
5	18	2	40	374	234.0	-156451.0	-2670867.0	4069.0
5	18	2	40	375	235.0	-154834.0	-2672416.0	3588.0
5	18	2	40	376	236.0	-153462.0	-2671762.0	2092.0
5	18	2	40	376	237.0	-152066.0	-2670592.0	-808.0
5	18	2	40	377	238.0	-150691.0	-2669624.0	-1964.0
5	18	2	40	377	239.0	-149089.0	-2668443.0	-1242.0
5	18	2	40	378	240.0	-147606.0	-2667733.0	-626.0
5	18	2	40	379	241.0	-146223.0	-2667792.0	524.0
5	18	2	40	379	242.0	-144531.0	-2665883.0	1394.0
5	18	2	40	415	243.0	-143011.0	-2664792.0	2159.0
5	18	2	40	416	244.0	-141869.0	-2667209.0	3913.0
5	18	2	40	417	245.0	-140826.0	-2671371.0	4338.0
5	18	2	40	417	246.0	-140131.0	-2672671.0	1921.0
5	18	2	40	418	247.0	-139732.0	-2671187.0	-684.0
5	18	2	40	419	248.0	-139553.0	-2669580.0	-1320.0
5	18	2	40	419	249.0	-139776.0	-2668068.0	-1049.0
5	18	2	40	420	250.0	-140339.0	-2667335.0	-777.0
5	18	2	40	421	251.0	-141090.0	-2667376.0	-629.0
5	18	2	40	421	252.0	-142212.0	-2669087.0	127.0
5	18	2	40	422	253.0	-143463.0	-2672469.0	1104.0
5	18	2	40	422	254.0	-144880.0	-2675546.0	1766.0
5	18	2	40	423	255.0	-146527.0	-2676691.0	185.0
5	18	2	40	432	0.0	-148302.0	-2676239.0	-3679.0
5	18	2	40	433	1.0	-150190.0	-2673856.0	-7680.0
5	18	2	40	434	2.0	-152481.0	-2673543.0	-9230.0
5	18	2	40	434	8.0	-168384.0	-2686148.0	-21618.0
5	18	2	40	435	9.0	-169531.0	-2688582.0	-23466.0
5	18	2	40	436	10.0	-169905.0	-2689357.0	-22936.0
5	18	2	40	436	11.0	-169668.0	-2687971.0	-19931.0
5	18	2	40	437	12.0	-168996.0	-2687641.0	-14640.0
5	18	2	40	438	13.0	-168103.0	-2687953.0	-9115.0
5	18	2	40	438	14.0	-167377.0	-2687976.0	-7035.0
5	18	2	40	439	15.0	-167357.0	-2688316.0	-5664.0
5	18	2	40	439	16.0	-167805.0	-2689147.0	-2137.0
5	18	2	40	440	17.0	-169026.0	-2689894.0	3103.0
5	18	2	40	440	18.0	-171069.0	-2692233.0	9056.0
5	18	2	40	455	19.0	-173866.0	-2692027.0	12656.0
5	18	2	40	455	20.0	-176978.0	-2680704.0	15298.0
5	18	2	40	456	21.0	-179787.0	-2676907.0	18041.0
5	18	2	40	477	22.0	-181914.0	-2676126.0	21015.0
5	18	2	40	478	23.0	-183437.0	-2675106.0	21531.0
5	18	2	40	478	24.0	-184645.0	-2667808.0	21288.0
5	18	2	40	479	25.0	-185562.0	-2657682.0	21180.0
5	18	2	40	480	26.0	-186021.0	-2661029.0	21382.0
5	18	2	40	480	27.0	-186126.0	-2669151.0	20946.0
5	18	2	40	481	28.0	-185946.0	-2672603.0	20254.0
5	18	2	40	482	29.0	-186169.0	-2674567.0	18230.0
5	18	2	40	482	30.0	-187176.0	-2674633.0	13268.0
5	18	2	40	483	31.0	-185052.0	-2672934.0	7080.0
5	18	2	40	483	32.0	-177315.0	-2672011.0	3273.0
5	18	2	40	500	33.0	-165012.0	-2680883.0	1177.0
5	18	2	40	501	34.0	-148670.0	-2689823.0	1156.0
5	18	2	40	501	35.0	-133203.0	-2691230.0	1084.0
5	18	2	40	502	36.0	-118536.0	-2692343.0	1674.0
5	18	2	40	503	37.0	-104901.0	-2693602.0	2229.0
5	18	2	40	503	38.0	-95971.0	-2695841.0	3586.0
5	18	2	40	504	39.0	-93502.0	-2697328.0	2428.0
5	18	2	40	505	40.0	-98197.0	-2696549.0	323.0
5	18	2	40	505	41.0	-111146.0	-2694835.0	-1504.0
5	18	2	40	506	42.0	-131749.0	-2693697.0	-2222.0
5	18	2	40	506	43.0	-156031.0	-2692321.0	-1981.0
5	18	2	40	507	44.0	-180324.0	-2691419.0	-1468.0
5	18	2	40	508	45.0	-198992.0	-2691872.0	-1067.0
5	18	2	40	508	46.0	-209539.0	-2691859.0	-378.0
5	18	2	40	509	47.0	-211963.0	-2690527.0	209.0
5	18	2	40	509	48.0	-206694.0	-2692169.0	1576.0
5	18	2	40	510	49.0	-194992.0	-2693227.0	589.0
5	18	2	40	511	50.0	-178998.0	-2691359.0	-1397.0
5	18	2	40	511	51.0	-162352.0	-2688158.0	-3868.0
5	18	2	40	512	52.0	-148351.0	-2684142.0	-4361.0
5	18	2	40	525	53.0	-139643.0	-2680901.0	-3446.0
5	18	2	40	525	54.0	-136291.0	-2679696.0	-2692.0
5	18	2	40	526	55.0	-136579.0	-2678251.0	-2438.0
5	18	2	40	527	56.0	-138544.0	-2672192.0	-1631.0
5	18	2	40	527	57.0	-140351.0	-2671199.0	-432.0
5	18	2	40	528	58.0	-142681.0	-2672516.0	1255.0
5	18	2	40	528	59.0	-147089.0	-2673237.0	19.0
5	18	2	40	529	60.0	-153309.0	-2673429.0	-2397.0
5	18	2	40	530	61.0	-160868.0	-2670199.0	-3646.0
5	18	2	40	549	62.0	-168710.0	-2667806.0	-4152.0
5	18	2	40	549	63.0	-175669.0	-2666192.0	-4070.0
5	18	2	40	550	64.0	-180287.0	-2665328.0	-3284.0
5	18	2	40	550	65.0	-181881.0	-2664982.0	-2839.0
5	18	2	40	551	66.0	-181191.0	-2665274.0	-2437.0
5	18	2	40	552	67.0	-178467.0	-2666593.0	-1029.0
5	18	2	40	552	68.0	-174544.0	-2666861.0	49.0
5	18	2	40	572	69.0	-170722.0	-2659837.0	-1739.0
5	18	2	40	573	70.0	-167001.0	-2657714.0	-4044.0
5	18	2	40	573	71.0	-162679.0	-2658975.0	-4652.0
5	18	2	40	574	72.0	-157903.0	-2656882.0	-5016.0
5	18	2	40	575	73.0	-153494.0	-2654916.0	-4734.0
5	18	2	40	575	74.0	-149417.0	-2653861.0	-3876.0
5	18	2	40	576	75.0	-145807.0	-2653052.0	-3012.0
5	18	2	40	577	76.0	-143749.0	-2652336.0	-2462.0
5	18	2	40	577	77.0	-142902.0	-2650784.0	-1801.0
5	18	2	40	578	78.0	-143595.0	-2648894.0	-726.0
5	18	2	40	578	79.0	-145261.0	-2648104.0	-2269.0
5	18	2	40	579	80.0	-146491.0	-2646159.0	-4095.0
5	18	2	40	580	81.0	-147327.0	-2642489.0	-6019.0
5	18	2	40	580	82.0	-147711.0	-2639154.0	-6589.0
5	18	2	40	581	83.0	-147039.0	-2638655.0	-6201.0
5	18	2	40	581	84.0	-145578.0	-2637174.0	-5349.0
5	18	2	40	582	85.0	-143691.0	-2634794.0	-4459.0
5	18	2	40	583	86.0	-141139.0	-2634367.0	-3678.0
5	18	2	40	583	87.0	-138706.0	-2634387.0	-2364.0
5	18	2	40	584	88.0	-136601.0	-2635472.0	-1687.0
5	18	2	40	584	89.0	-135020.0	-2634870.0	-2844.0
5	18	2	40	596	90.0	-134123.0	-2632274.0	-5294.0
5	18	2	40	596	91.0	-134009.0	-2626127.0	-6097.0
5	18	2	40	597	92.0	-134864.0	-2610687.0	-5891.0
5	18	2	40	598	93.0	-136362.0	-2605559.0	-6189.0
5	18	2	40	598	94.0	-138591.0	-2604982.0	-5721.0
5	18	2	40	599	95.0	-141068.0	-2605542.0	-4602.0
5	18	2	40	600	96.0	-143611.0	-2606866.0	-3919.0
5	18	2	40	600	97.0	-146435.0	-2608174.0	-3254.0
5	18	2	40	601	98.0	-149285.0	-2609940.0	-1877.0
5	18	2	40	602	99.0	-152133.0	-2609793.0	-3755.0
5	18	2	40	617	100.0	-154716.0	-2609113.0	-6162.0
5	18	2	40	618	101.0	-157059.0	-2607201.0	-6990.0
5	18	2	40	619	102.0	-159284.0	-2604668.0	-7241.0
5	18	2	40	619	103.0	-161106.0	-2603234.0	-6438.0
5	18	2	40	620	104.0	-162815.0	-2603109.0	-5672.0
5	18	2	40	621	105.0	-164656.0	-2603856.0	-5391.0
5	18	2	40	656	106.0	-166029.0	-2603341.0	-4716.0
5	18	2	40	656	107.0	-167757.0	-2601484.0	-3792.0
5	18	2	40	657	108.0	-169564.0	-2600046.0	-2929.0
5	18	2	40	658	109.0	-171047.0	-2599174.0	-5419.0
5	18	2	40	659	110.0	-172341.0	-2596444.0	-7072.0
5	18	2	40	659	111.0	-173599.0	-2591333.0	-8672.0
5	18	2	40	660	112.0	-174537.0	-2586573.0	-8312.0
5	18	2	40	661	113.0	-175071.0	-2582651.0	-7269.0
5	18	2	40	662	114.0	-175265.0	-2580431.0	-6997.0
5	18	2	40	662	115.0	-175061.0	-2570776.0	-6667.0
5	18	2	40	663	116.0	-174526.0	-2563954.0	-5877.0
5	18	2	40	663	117.0	-173354.0	-2573902.0	-4798.0
5	18	2	40	664	118.0	-171759.0	-2579657.0	-4159.0
5	18	2	40	665	119.0	-169751.0	-2574665.0	-6421.0
5	18	2	40	665	120.0	-167645.0	-2571624.0	-8585.0
5	18	2	40	666	127.0	-157829.0	-2571193.0	-5167.0
5	18	2	40	667	128.0	-157335.0	-2570455.0	-4644.0
5	18	2	40	667	129.0	-157437.0	-2566667.0	-6893.0
5	18	2	40	668	130.0	-158190.0	-2562416.0	-9465.0
5	18	2	40	677	131.0	-159181.0	-2557744.0	-9264.0
5	18	2	40	677	132.0	-158922.0	-2553028.0	-8825.0
5	18	2	40	678	133.0	-159643.0	-2549090.0	-7902.0
5	18	2	40	679	134.0	-160281.0	-2547617.0	-7573.0
5	18	2	40	679	135.0	-160692.0	-2547207.0	-6911.0
5	18	2	40	700	136.0	-161176.0	-2545824.0	-5644.0
5	18	2	40	701	137.0	-161096.0	-2544591.0	-4182.0
5	18	2	40	702	138.0	-161152.0	-2543219.0	-3668.0
5	18	2	40	702	139.0	-161012.0	-2540128.0	-5797.0
5	18	2	40	703	140.0	-160712.0	-2536029.0	-7300.0
5	18	2	40	704	141.0	-160310.0	-2530823.0	-7347.0
5	18	2	40	704	142.0	-160233.0	-2525621.0	-7246.0
5	18	2	40	705	143.0	-160101.0	-2522774.0	-6709.0
5	18	2	40	705	144.0	-159765.0	-2521146.0	-5807.0
5	18	2	40	706	145.0	-159456.0	-2520291.0	-4470.0
5	18	2	40	707	146.0	-159281.0	-2519599.0	-3965.0
5	18	2	40	707	147.0	-159139.0	-2519835.0	-2814.0
5	18	2	40	708	148.0	-159110.0	-2520084.0	-2314.0
5	18	2	40	708	149.0	-159302.0	-2518561.0	-4131.0
5	18	2	40	709	150.0	-160092.0	-2515354.0	-5846.0
5	18	2	40	730	151.0	-161354.0	-2510974.0	-6961.0
5	18	2	40	731	152.0	-161926.0	-2506028.0	-6384.0
5	18	2	40	732	153.0	-162292.0	-2502704.0	-4968.0
5	18	2	40	733	154.0	-162791.0	-2501031.0	-4022.0
5	18	2	40	733	155.0	-163120.0	-2500049.0	-2991.0
5	18	2	40	734	156.0	-163531.0	-2499254.0	-2110.0
5	18	2	40	735	157.0	-163866.0	-2499281.0	-378.0
5	18	2	40	736	158.0	-164320.0	-2498858.0	-571.0
5	18	2	40	737	159.0	-165188.0	-2496091.0	-2919.0
5	18	2	40	738	160.0	-166081.0	-2494048.0	-4816.0
5	18	2	40	738	161.0	-167142.0	-2501575.0	-5301.0
5	18	2	40	739	162.0	-168722.0	-2502695.0	-4877.0
5	18	2	40	740	163.0	-170552.0	-2501029.0	-4139.0
5	18	2	40	740	164.0	-171924.0	-2495642.0	-3275.0
5	18	2	40	741	165.0	-173245.0	-2480469.0	-2219.0
5	18	2	40	742	166.0	-174649.0	-2476843.0	-1406.0
5	18	2	40	742	167.0	-176021.0	-2476936.0	476.0
5	18	2	40	743	168.0	-177121.0	-2476338.0	356.0
5	18	2	40	744	169.0	-177999.0	-2474358.0	-1604.0
5	18	2	40	752	170.0	-178712.0	-2470927.0	-3855.0
5	18	2	40	753	171.0	-179442.0	-2466609.0	-4420.0
5	18	2	40	775	172.0	-180201.0	-2462410.0	-3806.0
5	18	2	40	776	173.0	-181147.0	-2459716.0	-2416.0
5	18	2	40	777	174.0	-182663.0	-2458307.0	-1373.0
5	18	2	40	777	175.0	-184223.0	-2457956.0	-1196.0
5	18	2	40	778	176.0	-185796.0	-2458569.0	-330.0
5	18	2	40	779	177.0	-187314.0	-2459858.0	1034.0
5	18	2	40	779	178.0	-188456.0	-2460494.0	185.0
5	18	2	40	780	179.0	-189156.0	-2459039.0	-2296.0
5	18	2	40	781	180.0	-189095.0	-2455187.0	-3319.0
5	18	2	40	781	181.0	-187758.0	-2450220.0	-3930.0
5	18	2	40	782	182.0	-184854.0	-2445789.0	-3499.0
5	18	2	40	783	183.0	-179796.0	-2443227.0	-2077.0
5	18	2	40	783	184.0	-172097.0	-2442602.0	-959.0
5	18	2	40	784	185.0	-158981.0	-2442571.0	-109.0
5	18	2	40	785	186.0	-133874.0	-2442537.0	457.0
5	18	2	40	785	187.0	-107626.0	-2443484.0	1606.0
5	18	2	40	786	188.0	-98601.0	-2443882.0	551.0
5	18	2	40	806	189.0	-109389.0	-2442327.0	-1500.0
5	18	2	40	807	190.0	-133247.0	-2438726.0	-2612.0
5	18	2	40	808	191.0	-160480.0	-2434110.0	-3303.0
5	18	2	40	809	192.0	-185022.0	-2431180.0	-3195.0
5	18	2	40	810	193.0	-198457.0	-2431572.0	-2234.0
5	18	2	40	810	194.0	-200735.0	-2431015.0	-1212.0
5	18	2	40	811	195.0	-197092.0	-2431234.0	-559.0
5	18	2	40	812	196.0	-188581.0	-2432114.0	-244.0
5	18	2	40	813	197.0	-178870.0	-2433552.0	1201.0
5	18	2	40	813	198.0	-169696.0	-2433534.0	-39.0
5	18	2	40	814	199.0	-160345.0	-2430144.0	-2236.0
