5	17	42	57	476	227.0	-154584.0	-6021148.0	25718.0
5	17	42	57	478	228.0	-154251.0	-6020709.0	25798.0
5	17	42	57	480	229.0	-150874.0	-6021088.0	25536.0
5	17	42	57	482	230.0	-149512.0	-6020798.0	25512.0
5	17	42	57	484	231.0	-150922.0	-6018526.0	25938.0
5	17	42	57	486	232.0	-150532.0	-6017637.0	26149.0
5	17	42	57	487	233.0	-149181.0	-6017508.0	25636.0
5	17	42	57	489	234.0	-150747.0	-6009876.0	25111.0
5	17	42	57	491	235.0	-154025.0	-5995779.0	25099.0
5	17	42	57	492	236.0	-154483.0	-5983059.0	25617.0
5	17	42	57	493	237.0	-153999.0	-5973374.0	26039.0
5	17	42	57	494	238.0	-155423.0	-5963407.0	25746.0
5	17	42	57	495	239.0	-155346.0	-5945056.0	25825.0
5	17	42	57	496	240.0	-153091.0	-5911080.0	26844.0
5	17	42	57	496	241.0	-152011.0	-5848264.0	27080.0
5	17	42	57	497	242.0	-153045.0	-5761314.0	27561.0
5	17	42	57	506	243.0	-154583.0	-5694650.0	27224.0
5	17	42	57	507	244.0	-155852.0	-5645854.0	26906.0
5	17	42	57	507	245.0	-158441.0	-5600194.0	27324.0
5	17	42	57	508	246.0	-161633.0	-5582101.0	27219.0
5	17	42	57	534	247.0	-163441.0	-5556309.0	27281.0
5	17	42	57	534	248.0	-164362.0	-5445322.0	27129.0
5	17	42	57	535	249.0	-165539.0	-5237769.0	26866.0
5	17	42	57	558	250.0	-166810.0	-5035552.0	26962.0
5	17	42	57	596	251.0	-167216.0	-4976297.0	26961.0
5	17	42	57	597	252.0	-166839.0	-4974922.0	27103.0
5	17	42	57	597	253.0	-166246.0	-4967557.0	27568.0
5	17	42	57	598	254.0	-164867.0	-4954067.0	27375.0
5	17	42	57	599	255.0	-162440.0	-4953285.0	27097.0
5	17	42	57	599	0.0	-159806.0	-4956441.0	27213.0
5	17	42	57	600	1.0	-157521.0	-4952114.0	26951.0
5	17	42	57	601	2.0	-155361.0	-4942013.0	26589.0
5	17	42	57	601	3.0	-153232.0	-4929228.0	26417.0
5	17	42	57	602	4.0	-151008.0	-4917994.0	26597.0
5	17	42	57	603	5.0	-149362.0	-4913641.0	26753.0
5	17	42	57	603	6.0	-147432.0	-4912367.0	26113.0
5	17	42	57	604	7.0	-145319.0	-4905715.0	26523.0
5	17	42	57	604	8.0	-143162.0	-4900691.0	26304.0
5	17	42	57	605	12.0	-138477.0	-4870375.0	25139.0
5	17	42	57	606	35.0	-140112.0	-4177827.0	13951.0
5	17	42	57	606	36.0	-140057.0	-4172371.0	12717.0
5	17	42	57	607	37.0	-139734.0	-4174214.0	12682.0
5	17	42	57	607	38.0	-139366.0	-4183942.0	14834.0
5	17	42	57	608	39.0	-139085.0	-4194692.0	20479.0
5	17	42	57	608	40.0	-138896.0	-4205570.0	27029.0
5	17	42	57	639	41.0	-139361.0	-4216857.0	33317.0
5	17	42	57	640	42.0	-140636.0	-4228599.0	39115.0
5	17	42	57	641	43.0	-142946.0	-4240071.0	42056.0
5	17	42	57	641	44.0	-146766.0	-4252174.0	43081.0
5	17	42	57	642	45.0	-152275.0	-4263214.0	43300.0
5	17	42	57	642	46.0	-158279.0	-4272876.0	42848.0
5	17	42	57	643	47.0	-165079.0	-4282536.0	41533.0
5	17	42	57	644	48.0	-172463.0	-4286637.0	39300.0
5	17	42	57	644	49.0	-179260.0	-4291522.0	37281.0
5	17	42	57	645	50.0	-185354.0	-4302030.0	34600.0
5	17	42	57	645	51.0	-190633.0	-4313417.0	33126.0
5	17	42	57	646	52.0	-194270.0	-4324331.0	30958.0
5	17	42	57	647	53.0	-188300.0	-4334491.0	29828.0
5	17	42	57	647	54.0	-172627.0	-4346622.0	28685.0
5	17	42	57	648	55.0	-151499.0	-4357097.0	27775.0
5	17	42	57	649	57.0	-114282.0	-4368637.0	24976.0
5	17	42	57	649	58.0	-104321.0	-4382724.0	24073.0
5	17	42	57	650	59.0	-102314.0	-4398800.0	23435.0
5	17	42	57	650	60.0	-107827.0	-4406642.0	22262.0
5	17	42	57	651	61.0	-118878.0	-4415460.0	21991.0
5	17	42	57	651	62.0	-132974.0	-4426161.0	21505.0
5	17	42	57	652	63.0	-149409.0	-4434706.0	20937.0
5	17	42	57	684	64.0	-168941.0	-4444471.0	20776.0
5	17	42	57	684	65.0	-188534.0	-4454301.0	20792.0
5	17	42	57	685	66.0	-205172.0	-4462952.0	20796.0
5	17	42	57	686	67.0	-216933.0	-4471162.0	20884.0
5	17	42	57	686	68.0	-223684.0	-4477163.0	20590.0
5	17	42	57	687	69.0	-225401.0	-4476854.0	19631.0
5	17	42	57	688	70.0	-223577.0	-4472442.0	19261.0
5	17	42	57	688	71.0	-219129.0	-4464403.0	19202.0
5	17	42	57	689	72.0	-212039.0	-4457084.0	18851.0
5	17	42	57	689	73.0	-202586.0	-4448616.0	19023.0
5	17	42	57	691	74.0	-191878.0	-4426953.0	18856.0
5	17	42	57	692	75.0	-181143.0	-4389781.0	17978.0
5	17	42	57	692	76.0	-172346.0	-4368019.0	18079.0
5	17	42	57	693	77.0	-167072.0	-4351059.0	18468.0
5	17	42	57	693	78.0	-166389.0	-4316218.0	18041.0
5	17	42	57	694	80.0	-171573.0	-4237689.0	16953.0
5	17	42	57	695	81.0	-174925.0	-4214613.0	16794.0
5	17	42	57	695	82.0	-177917.0	-4202235.0	16954.0
5	17	42	57	696	83.0	-179760.0	-4193297.0	17401.0
5	17	42	57	696	84.0	-180766.0	-4184875.0	17454.0
5	17	42	57	697	85.0	-181639.0	-4173134.0	16911.0
5	17	42	57	729	86.0	-182072.0	-4160944.0	16744.0
5	17	42	57	729	87.0	-181187.0	-4145992.0	16717.0
5	17	42	57	730	88.0	-178681.0	-4126693.0	16486.0
5	17	42	57	731	89.0	-175102.0	-4104804.0	16383.0
5	17	42	57	731	90.0	-170635.0	-4070115.0	16354.0
5	17	42	57	732	91.0	-166451.0	-4029018.0	15785.0
5	17	42	57	732	92.0	-163461.0	-3993826.0	15541.0
5	17	42	57	733	93.0	-160971.0	-3962305.0	15384.0
5	17	42	57	734	94.0	-157451.0	-3916825.0	15108.0
5	17	42	57	734	95.0	-153797.0	-3868730.0	14949.0
5	17	42	57	735	96.0	-151109.0	-3835954.0	14788.0
5	17	42	57	736	97.0	-149095.0	-3783916.0	14115.0
5	17	42	57	736	98.0	-147283.0	-3733185.0	13903.0
5	17	42	57	737	99.0	-145949.0	-3691322.0	13575.0
5	17	42	57	738	100.0	-144752.0	-3659737.0	13213.0
5	17	42	57	738	102.0	-142714.0	-3631897.0	13167.0
5	17	42	57	739	103.0	-141806.0	-3625988.0	12964.0
5	17	42	57	739	104.0	-141531.0	-3623927.0	12505.0
5	17	42	57	740	105.0	-141199.0	-3629227.0	12568.0
5	17	42	57	741	106.0	-140930.0	-3641666.0	12216.0
5	17	42	57	741	107.0	-141011.0	-3643593.0	11287.0
5	17	42	57	742	108.0	-140947.0	-3643919.0	11554.0
5	17	42	57	774	109.0	-141119.0	-3641480.0	11319.0
5	17	42	57	775	110.0	-141122.0	-3628313.0	10524.0
5	17	42	57	775	111.0	-141707.0	-3605680.0	10346.0
5	17	42	57	776	112.0	-142417.0	-3581027.0	10858.0
5	17	42	57	777	113.0	-142825.0	-3555095.0	10749.0
5	17	42	57	777	114.0	-143094.0	-3529099.0	10299.0
5	17	42	57	778	115.0	-144197.0	-3508933.0	10584.0
5	17	42	57	779	116.0	-145856.0	-3498902.0	10162.0
5	17	42	57	780	117.0	-147607.0	-3497372.0	9688.0
5	17	42	57	780	118.0	-149120.0	-3496924.0	9391.0
5	17	42	57	781	119.0	-150572.0	-3495087.0	8835.0
5	17	42	57	781	120.0	-151604.0	-3493386.0	8133.0
5	17	42	57	782	121.0	-151944.0	-3494065.0	7978.0
5	17	42	57	783	122.0	-151699.0	-3495447.0	7773.0
5	17	42	57	783	123.0	-152117.0	-3499496.0	7477.0
5	17	42	57	784	125.0	-152584.0	-3508587.0	6392.0
5	17	42	57	784	126.0	-152108.0	-3507993.0	6429.0
5	17	42	57	785	127.0	-151707.0	-3506693.0	6653.0
5	17	42	57	786	128.0	-151410.0	-3508261.0	6394.0
5	17	42	57	786	129.0	-150461.0	-3511708.0	5853.0
5	17	42	57	787	130.0	-149802.0	-3516609.0	5623.0
5	17	42	57	819	131.0	-149962.0	-3521056.0	4896.0
5	17	42	57	819	132.0	-150284.0	-3521580.0	5116.0
5	17	42	57	820	133.0	-150268.0	-3521368.0	5609.0
5	17	42	57	821	134.0	-150019.0	-3522982.0	5634.0
5	17	42	57	821	135.0	-149969.0	-3524541.0	5449.0
5	17	42	57	822	136.0	-149409.0	-3526061.0	5424.0
5	17	42	57	823	137.0	-149323.0	-3528072.0	5623.0
5	17	42	57	823	138.0	-149997.0	-3529417.0	4916.0
5	17	42	57	824	139.0	-150901.0	-3528658.0	4441.0
5	17	42	57	825	140.0	-152139.0	-3527141.0	4373.0
5	17	42	57	825	141.0	-153359.0	-3525716.0	4012.0
5	17	42	57	826	142.0	-154942.0	-3523083.0	3618.0
5	17	42	57	826	143.0	-155692.0	-3522922.0	3681.0
5	17	42	57	827	144.0	-156296.0	-3522401.0	3316.0
5	17	42	57	828	145.0	-157114.0	-3519439.0	2822.0
5	17	42	57	828	147.0	-157907.0	-3516224.0	3014.0
5	17	42	57	829	148.0	-158067.0	-3511763.0	2253.0
5	17	42	57	829	149.0	-159052.0	-3505717.0	2267.0
5	17	42	57	830	150.0	-160039.0	-3501838.0	2301.0
5	17	42	57	831	151.0	-160397.0	-3500531.0	2189.0
5	17	42	57	831	152.0	-160487.0	-3502421.0	2491.0
5	17	42	57	832	153.0	-160664.0	-3506063.0	2386.0
5	17	42	57	863	154.0	-160359.0	-3510883.0	2273.0
5	17	42	57	864	155.0	-159794.0	-3516265.0	2419.0
5	17	42	57	865	156.0	-159541.0	-3526249.0	2439.0
5	17	42	57	866	157.0	-159286.0	-3534346.0	2516.0
5	17	42	57	866	158.0	-158716.0	-3539990.0	2476.0
5	17	42	57	867	159.0	-157859.0	-3545679.0	2552.0
5	17	42	57	868	160.0	-156532.0	-3551683.0	2823.0
5	17	42	57	868	161.0	-155208.0	-3558061.0	3081.0
5	17	42	57	869	162.0	-153777.0	-3564881.0	3869.0
5	17	42	57	869	163.0	-152574.0	-3572204.0	4033.0
5	17	42	57	870	164.0	-152446.0	-3579060.0	4550.0
5	17	42	57	871	165.0	-152749.0	-3586052.0	4954.0
5	17	42	57	871	166.0	-153486.0	-3590969.0	5104.0
5	17	42	57	872	167.0	-154439.0	-3593141.0	5279.0
5	17	42	57	873	168.0	-155551.0	-3599557.0	5978.0
5	17	42	57	873	170.0	-157236.0	-3614178.0	6432.0
5	17	42	57	874	171.0	-157857.0	-3613690.0	7038.0
5	17	42	57	874	172.0	-158176.0	-3616574.0	7571.0
5	17	42	57	875	173.0	-158510.0	-3623540.0	8379.0
5	17	42	57	875	174.0	-158699.0	-3629141.0	9302.0
5	17	42	57	909	175.0	-158956.0	-3634995.0	10005.0
5	17	42	57	910	176.0	-159540.0	-3642254.0	9993.0
5	17	42	57	910	177.0	-160029.0	-3648706.0	10510.0
5	17	42	57	911	178.0	-160484.0	-3655343.0	11116.0
5	17	42	57	912	179.0	-161372.0	-3663197.0	11489.0
5	17	42	57	913	180.0	-163329.0	-3670832.0	11756.0
5	17	42	57	913	181.0	-165827.0	-3681719.0	11952.0
5	17	42	57	914	182.0	-168379.0	-3696692.0	11811.0
5	17	42	57	914	183.0	-171379.0	-3704007.0	11858.0
5	17	42	57	915	184.0	-174245.0	-3708741.0	12220.0
5	17	42	57	916	185.0	-177049.0	-3715382.0	12188.0
5	17	42	57	916	186.0	-179701.0	-3722663.0	12274.0
5	17	42	57	917	187.0	-182448.0	-3733636.0	12946.0
5	17	42	57	918	188.0	-185002.0	-3753411.0	12741.0
5	17	42	57	918	189.0	-187571.0	-3763012.0	12318.0
5	17	42	57	919	190.0	-189866.0	-3769504.0	12532.0
5	17	42	57	920	192.0	-193236.0	-3784876.0	12918.0
5	17	42	57	920	193.0	-194054.0	-3791745.0	13538.0
5	17	42	57	921	194.0	-194428.0	-3798599.0	13821.0
5	17	42	57	921	195.0	-193697.0	-3805329.0	13745.0
5	17	42	57	922	196.0	-191397.0	-3812151.0	14172.0
5	17	42	57	922	197.0	-188042.0	-3818462.0	13922.0
5	17	42	57	923	198.0	-182631.0	-3824354.0	13846.0
5	17	42	57	953	199.0	-174651.0	-3830861.0	14121.0
5	17	42	57	954	200.0	-162575.0	-3837941.0	14116.0
5	17	42	57	955	201.0	-143110.0	-3844309.0	14218.0
5	17	42	57	956	202.0	-113947.0	-3850823.0	14296.0
5	17	42	57	956	203.0	-81939.0	-3857743.0	14407.0
5	17	42	57	957	204.0	-66714.0	-3863953.0	14416.0
5	17	42	57	957	205.0	-77644.0	-3870941.0	14029.0
5	17	42	57	958	206.0	-105327.0	-3877475.0	14671.0
5	17	42	57	959	207.0	-144179.0	-3883214.0	14275.0
5	17	42	57	960	208.0	-177599.0	-3888678.0	13105.0
5	17	42	57	960	209.0	-198759.0	-3893891.0	13245.0
5	17	42	57	961	210.0	-205600.0	-3898493.0	13154.0
5	17	42	57	961	211.0	-204156.0	-3892477.0	13221.0
5	17	42	57	962	212.0	-200778.0	-3892260.0	13071.0
5	17	42	57	963	213.0	-195621.0	-3898151.0	13099.0
5	17	42	57	963	215.0	-179623.0	-3910732.0	13232.0
5	17	42	57	964	216.0	-171136.0	-3917204.0	13326.0
5	17	42	57	964	217.0	-162855.0	-3923502.0	13448.0
5	17	42	57	965	218.0	-155794.0	-3930739.0	12351.0
5	17	42	57	966	219.0	-150548.0	-3937918.0	12187.0
5	17	42	57	966	220.0	-145776.0	-3943837.0	12230.0
5	17	42	58	0	221.0	-140603.0	-3950796.0	12245.0
5	17	42	58	0	222.0	-136076.0	-3957900.0	11878.0
5	17	42	58	1	223.0	-131919.0	-3962382.0	11952.0
5	17	42	58	2	224.0	-128639.0	-3967731.0	11880.0
5	17	42	58	2	225.0	-126184.0	-3973738.0	11980.0
5	17	42	58	3	226.0	-124331.0	-3980457.0	11407.0
5	17	42	58	4	227.0	-122344.0	-3987724.0	11125.0
5	17	42	58	4	228.0	-120319.0	-3995274.0	11204.0
5	17	42	58	5	229.0	-117893.0	-4001167.0	11159.0
5	17	42	58	6	230.0	-115218.0	-4006862.0	10744.0
5	17	42	58	6	231.0	-112816.0	-4012789.0	10588.0
5	17	42	58	7	232.0	-110727.0	-4018407.0	10551.0
5	17	42	58	8	233.0	-109873.0	-4024666.0	10366.0
5	17	42	58	8	234.0	-110426.0	-4031109.0	10474.0
5	17	42	58	9	235.0	-112945.0	-4036615.0	10531.0
5	17	42	58	9	237.0	-121736.0	-4045981.0	11113.0
5	17	42	58	10	238.0	-127894.0	-4050056.0	11934.0
5	17	42	58	11	239.0	-134287.0	-4054112.0	11719.0
5	17	42	58	11	240.0	-140391.0	-4060014.0	11016.0
5	17	42	58	12	241.0	-145908.0	-4066726.0	11545.0
5	17	42	58	12	242.0	-150749.0	-4072872.0	11938.0
5	17	42	58	44	243.0	-155016.0	-4078899.0	11644.0
5	17	42	58	45	244.0	-158677.0	-4084707.0	11962.0
5	17	42	58	45	245.0	-161711.0	-4091094.0	12391.0
5	17	42	58	46	246.0	-164231.0	-4098052.0	12609.0
5	17	42	58	47	247.0	-166664.0	-4103587.0	12497.0
5	17	42	58	47	248.0	-169085.0	-4109015.0	12397.0
5	17	42	58	48	249.0	-171157.0	-4115057.0	11726.0
5	17	42	58	49	250.0	-174102.0	-4121210.0	11659.0
5	17	42	58	49	251.0	-177614.0	-4125419.0	11684.0
5	17	42	58	50	252.0	-180964.0	-4129251.0	11726.0
5	17	42	58	51	253.0	-184760.0	-4135460.0	11938.0
5	17	42	58	51	254.0	-188626.0	-4142078.0	12469.0
5	17	42	58	52	255.0	-192381.0	-4149128.0	12428.0
5	17	42	58	53	0.0	-195341.0	-4156073.0	12287.0
5	17	42	58	53	1.0	-198008.0	-4163554.0	11753.0
5	17	42	58	54	3.0	-201551.0	-4178728.0	12013.0
5	17	42	58	54	4.0	-202930.0	-4185928.0	11904.0
5	17	42	58	55	5.0	-203801.0	-4193247.0	11584.0
5	17	42	58	56	6.0	-203544.0	-4200434.0	11384.0
5	17	42	58	56	7.0	-203369.0	-4206733.0	11626.0
5	17	42	58	57	8.0	-202772.0	-4213818.0	11290.0
5	17	42	58	58	9.0	-201847.0	-4221067.0	11124.0
5	17	42	58	89	10.0	-200307.0	-4228632.0	11515.0
5	17	42	58	90	11.0	-198562.0	-4236095.0	11226.0
5	17	42	58	91	12.0	-197029.0	-4243612.0	10881.0
5	17	42	58	92	13.0	-195064.0	-4251531.0	11158.0
5	17	42	58	93	14.0	-192302.0	-4258950.0	11025.0
5	17	42	58	94	15.0	-189285.0	-4266686.0	11264.0
5	17	42	58	94	16.0	-186704.0	-4274458.0	11531.0
5	17	42	58	95	17.0	-184493.0	-4283036.0	11839.0
5	17	42	58	96	18.0	-182581.0	-4291582.0	11569.0
5	17	42	58	96	19.0	-180236.0	-4299982.0	11833.0
5	17	42	58	97	20.0	-178151.0	-4308631.0	12448.0
5	17	42	58	98	21.0	-176200.0	-4316903.0	12320.0
5	17	42	58	98	22.0	-174814.0	-4325691.0	11602.0
5	17	42	58	99	23.0	-174021.0	-4335097.0	11593.0
5	17	42	58	100	24.0	-173747.0	-4344716.0	11247.0
5	17	42	58	101	26.0	-172420.0	-4362300.0	11571.0
5	17	42	58	101	27.0	-172029.0	-4369819.0	11233.0
5	17	42	58	102	28.0	-171479.0	-4377676.0	11312.0
5	17	42	58	103	29.0	-170944.0	-4385247.0	11157.0
5	17	42	58	104	30.0	-170376.0	-4392708.0	10570.0
5	17	42	58	104	31.0	-170144.0	-4400371.0	10776.0
5	17	42	58	135	32.0	-170266.0	-4407850.0	10881.0
5	17	42	58	136	33.0	-171049.0	-4416679.0	10670.0
5	17	42	58	136	34.0	-172044.0	-4426992.0	11079.0
5	17	42	58	137	35.0	-173557.0	-4436871.0	11156.0
5	17	42	58	138	36.0	-175204.0	-4446082.0	10993.0
5	17	42	58	138	37.0	-177286.0	-4455930.0	11086.0
5	17	42	58	139	38.0	-178727.0	-4472351.0	11118.0
5	17	42	58	140	39.0	-180184.0	-4489494.0	10307.0
5	17	42	58	140	40.0	-181196.0	-4499572.0	10268.0
5	17	42	58	141	41.0	-182237.0	-4509242.0	10734.0
5	17	42	58	142	42.0	-183129.0	-4518803.0	10962.0
5	17	42	58	142	43.0	-184967.0	-4528927.0	10752.0
5	17	42	58	143	44.0	-186873.0	-4535966.0	10726.0
5	17	42	58	144	45.0	-187852.0	-4539473.0	11061.0
5	17	42	58	144	46.0	-188093.0	-4551381.0	11256.0
5	17	42	58	145	48.0	-187232.0	-4578013.0	10761.0
5	17	42	58	146	49.0	-185657.0	-4588104.0	9798.0
5	17	42	58	146	50.0	-183556.0	-4597790.0	9786.0
5	17	42	58	147	51.0	-180994.0	-4607807.0	10139.0
5	17	42	58	147	52.0	-178441.0	-4616741.0	9651.0
5	17	42	58	148	53.0	-176219.0	-4627329.0	9469.0
5	17	42	58	149	54.0	-174940.0	-4638141.0	9278.0
5	17	42	58	178	55.0	-173710.0	-4648526.0	9701.0
5	17	42	58	179	56.0	-172584.0	-4659568.0	9818.0
5	17	42	58	180	57.0	-170954.0	-4671128.0	9399.0
5	17	42	58	181	58.0	-168956.0	-4682502.0	9554.0
5	17	42	58	181	59.0	-166558.0	-4693957.0	9729.0
5	17	42	58	182	60.0	-163566.0	-4705687.0	9274.0
5	17	42	58	183	61.0	-160499.0	-4717279.0	9056.0
5	17	42	58	183	62.0	-157559.0	-4728581.0	8967.0
5	17	42	58	184	63.0	-154997.0	-4740155.0	8528.0
5	17	42	58	185	64.0	-152860.0	-4751889.0	8361.0
5	17	42	58	185	65.0	-151297.0	-4762926.0	8296.0
5	17	42	58	186	66.0	-150092.0	-4773812.0	8504.0
5	17	42	58	187	67.0	-149344.0	-4785384.0	8974.0
5	17	42	58	188	68.0	-148754.0	-4797298.0	8384.0
5	17	42	58	189	69.0	-148455.0	-4809744.0	8198.0
5	17	42	58	189	71.0	-147599.0	-4833307.0	8486.0
5	17	42	58	190	72.0	-147786.0	-4844953.0	8378.0
5	17	42	58	191	73.0	-147919.0	-4857359.0	8646.0
5	17	42	58	191	74.0	-147790.0	-4869433.0	8385.0
5	17	42	58	192	75.0	-148001.0	-4874257.0	8209.0
5	17	42	58	192	76.0	-148991.0	-4881525.0	8007.0
5	17	42	58	224	77.0	-150929.0	-4894688.0	8450.0
5	17	42	58	225	78.0	-152727.0	-4904759.0	8498.0
5	17	42	58	226	79.0	-154007.0	-4914517.0	8323.0
5	17	42	58	226	80.0	-155163.0	-4925149.0	8415.0
5	17	42	58	227	81.0	-156562.0	-4933643.0	8443.0
5	17	42	58	228	82.0	-158043.0	-4945604.0	8178.0
5	17	42	58	228	83.0	-159161.0	-4959057.0	7846.0
5	17	42	58	229	84.0	-160427.0	-4972825.0	7306.0
5	17	42	58	230	85.0	-161781.0	-4986299.0	6563.0
5	17	42	58	230	86.0	-163227.0	-4999759.0	6883.0
5	17	42	58	231	87.0	-163829.0	-5014028.0	6926.0
5	17	42	58	232	88.0	-164364.0	-5028071.0	7230.0
5	17	42	58	232	89.0	-164639.0	-5042498.0	7001.0
5	17	42	58	233	90.0	-164831.0	-5056176.0	6794.0
5	17	42	58	234	91.0	-164054.0	-5069511.0	6411.0
5	17	42	58	234	93.0	-161243.0	-5098678.0	7052.0
5	17	42	58	235	94.0	-160059.0	-5115258.0	7092.0
5	17	42	58	236	95.0	-158611.0	-5132025.0	7199.0
5	17	42	58	236	96.0	-157012.0	-5156091.0	7834.0
5	17	42	58	237	97.0	-154681.0	-5172851.0	7231.0
5	17	42	58	237	98.0	-152306.0	-5188538.0	6761.0
5	17	42	58	238	99.0	-150676.0	-5208164.0	6454.0
5	17	42	58	270	100.0	-148499.0	-5223949.0	5741.0
5	17	42	58	271	101.0	-145666.0	-5235951.0	5188.0
5	17	42	58	272	102.0	-143201.0	-5250654.0	5726.0
5	17	42	58	272	103.0	-141049.0	-5266151.0	5516.0
5	17	42	58	273	104.0	-138934.0	-5281712.0	5606.0
5	17	42	58	274	105.0	-136691.0	-5297242.0	6291.0
5	17	42	58	274	106.0	-134638.0	-5309542.0	6257.0
5	17	42	58	275	107.0	-134216.0	-5323225.0	5813.0
5	17	42	58	276	108.0	-134318.0	-5339105.0	6291.0
5	17	42	58	277	109.0	-134169.0	-5355360.0	5811.0
5	17	42	58	277	110.0	-134149.0	-5372678.0	5421.0
5	17	42	58	278	111.0	-133987.0	-5389644.0	6006.0
5	17	42	58	279	112.0	-134462.0	-5406057.0	6243.0
5	17	42	58	279	113.0	-135619.0	-5422638.0	5618.0
5	17	42	58	280	114.0	-137112.0	-5439522.0	5477.0
5	17	42	58	280	116.0	-139476.0	-5475546.0	5421.0
5	17	42	58	281	117.0	-140449.0	-5493484.0	5216.0
5	17	42	58	282	118.0	-141389.0	-5510154.0	5644.0
5	17	42	58	282	119.0	-142581.0	-5523814.0	5673.0
5	17	42	58	283	120.0	-144116.0	-5537736.0	5738.0
5	17	42	58	283	121.0	-145861.0	-5554886.0	6107.0
5	17	42	58	313	122.0	-148324.0	-5570326.0	6096.0
5	17	42	58	314	123.0	-151171.0	-5582312.0	6074.0
5	17	42	58	315	124.0	-154586.0	-5600116.0	6169.0
5	17	42	58	316	125.0	-158257.0	-5619129.0	6542.0
5	17	42	58	317	126.0	-161588.0	-5637633.0	7460.0
5	17	42	58	318	127.0	-164345.0	-5654883.0	7678.0
5	17	42	58	318	128.0	-167046.0	-5673041.0	7559.0
5	17	42	58	319	129.0	-169972.0	-5700926.0	7951.0
5	17	42	58	320	130.0	-172679.0	-5730494.0	8207.0
5	17	42	58	320	131.0	-175084.0	-5751112.0	7858.0
5	17	42	58	321	132.0	-177069.0	-5771361.0	7551.0
5	17	42	58	322	133.0	-178546.0	-5795971.0	7449.0
5	17	42	58	323	134.0	-178632.0	-5824711.0	7268.0
5	17	42	58	323	135.0	-178109.0	-5844589.0	7214.0
5	17	42	58	324	136.0	-177357.0	-5861374.0	8040.0
5	17	42	58	325	138.0	-174261.0	-5902092.0	7181.0
5	17	42	58	325	139.0	-172027.0	-5907947.0	7503.0
5	17	42	58	326	140.0	-169594.0	-5908545.0	7490.0
5	17	42	58	326	141.0	-166757.0	-5908656.0	7608.0
5	17	42	58	327	142.0	-163582.0	-5912371.0	7690.0
5	17	42	58	328	143.0	-160381.0	-5915664.0	8113.0
5	17	42	58	328	144.0	-157886.0	-5917396.0	8229.0
5	17	42	58	359	145.0	-155648.0	-5922213.0	8193.0
5	17	42	58	360	146.0	-153441.0	-5927212.0	8394.0
5	17	42	58	361	147.0	-151946.0	-5931965.0	8588.0
5	17	42	58	361	148.0	-151122.0	-5936137.0	8322.0
5	17	42	58	362	149.0	-150230.0	-5939964.0	7824.0
5	17	42	58	363	150.0	-148934.0	-5941722.0	7673.0
5	17	42	58	364	151.0	-147947.0	-5936816.0	7490.0
5	17	42	58	364	152.0	-146793.0	-5940954.0	7431.0
5	17	42	58	365	153.0	-145518.0	-5948944.0	7198.0
5	17	42	58	366	154.0	-144551.0	-5955897.0	7191.0
5	17	42	58	366	155.0	-143791.0	-5960999.0	6833.0
5	17	42	58	367	156.0	-143537.0	-5966566.0	6094.0
5	17	42	58	368	157.0	-144059.0	-5971682.0	6303.0
5	17	42	58	369	158.0	-145038.0	-5976836.0	6015.0
5	17	42	58	369	159.0	-145936.0	-5981992.0	6133.0
5	17	42	58	370	161.0	-147516.0	-5988880.0	3959.0
5	17	42	58	371	162.0	-148794.0	-5992835.0	2592.0
5	17	42	58	371	163.0	-149491.0	-5998340.0	1278.0
5	17	42	58	372	164.0	-150377.0	-6002471.0	305.0
5	17	42	58	372	165.0	-150882.0	-6007887.0	-610.0
5	17	42	58	373	166.0	-151868.0	-6014355.0	-2365.0
5	17	42	58	404	167.0	-152947.0	-6015986.0	-2431.0
5	17	42	58	404	168.0	-154103.0	-6018061.0	-1962.0
5	17	42	58	405	169.0	-155251.0	-6020647.0	-3782.0
5	17	42	58	405	170.0	-155587.0	-6020417.0	-5811.0
5	17	42	58	406	171.0	-154951.0	-6020866.0	-5954.0
5	17	42	58	407	172.0	-153853.0	-6020909.0	-5205.0
5	17	42	58	407	173.0	-153045.0	-6020506.0	-2503.0
5	17	42	58	408	174.0	-152096.0	-6021037.0	3355.0
5	17	42	58	409	175.0	-151565.0	-6018186.0	10707.0
5	17	42	58	409	176.0	-151916.0	-6014121.0	16829.0
5	17	42	58	410	177.0	-153848.0	-6018502.0	21280.0
5	17	42	58	410	178.0	-157219.0	-6019915.0	24051.0
5	17	42	58	411	179.0	-162464.0	-6020126.0	23961.0
5	17	42	58	412	180.0	-169285.0	-6020036.0	23748.0
5	17	42	58	412	181.0	-176952.0	-6019006.0	23098.0
5	17	42	58	413	183.0	-193360.0	-6021477.0	18000.0
5	17	42	58	413	184.0	-200731.0	-6020114.0	15806.0
5	17	42	58	414	185.0	-206227.0	-6019807.0	14461.0
5	17	42	58	415	186.0	-210509.0	-6020974.0	12693.0
5	17	42	58	415	187.0	-206841.0	-6014082.0	11634.0
5	17	42	58	416	188.0	-190602.0	-6016116.0	9969.0
5	17	42	58	416	189.0	-167337.0	-6020911.0	8401.0
5	17	42	58	448	190.0	-140967.0	-6016365.0	6729.0
5	17	42	58	449	191.0	-120497.0	-6016161.0	5751.0
5	17	42	58	450	192.0	-107669.0	-6020030.0	5212.0
5	17	42	58	450	193.0	-103531.0	-6020588.0	4909.0
5	17	42	58	451	194.0	-108331.0	-6022386.0	4510.0
5	17	42	58	452	195.0	-119542.0	-6021552.0	3834.0
5	17	42	58	452	196.0	-134414.0	-6021065.0	3876.0
5	17	42	58	453	197.0	-150733.0	-6020611.0	3625.0
5	17	42	58	453	198.0	-168277.0	-6021733.0	2993.0
5	17	42	58	454	199.0	-187092.0	-6021504.0	2554.0
5	17	42	58	455	200.0	-206352.0	-6020027.0	2116.0
5	17	42	58	455	201.0	-224121.0	-6018852.0	1925.0
5	17	42	58	456	202.0	-238234.0	-6021514.0	1576.0
5	17	42	58	456	203.0	-246411.0	-6020779.0	1526.0
5	17	42	58	457	204.0	-246552.0	-6019857.0	868.0
5	17	42	58	458	206.0	-221426.0	-6019652.0	826.0
5	17	42	58	458	207.0	-199887.0	-6020136.0	639.0
5	17	42	58	459	208.0	-176870.0	-6019379.0	58.0
5	17	42	58	459	209.0	-158335.0	-6020424.0	41.0
5	17	42	58	460	210.0	-147436.0	-6021068.0	396.0
5	17	42	58	460	211.0	-143812.0	-6021422.0	-565.0
5	17	42	58	493	212.0	-145867.0	-6021823.0	-699.0
5	17	42	58	494	213.0	-151453.0	-6021222.0	-646.0
5	17	42	58	495	214.0	-157991.0	-6020817.0	-891.0
5	17	42	58	495	215.0	-163764.0	-6020488.0	-879.0
5	17	42	58	496	216.0	-168217.0	-6021124.0	-393.0
5	17	42	58	496	217.0	-171884.0	-6021736.0	-416.0
5	17	42	58	497	218.0	-174296.0	-6021027.0	-771.0
5	17	42	58	498	219.0	-175876.0	-6019598.0	-1086.0
5	17	42	58	498	220.0	-177243.0	-6019311.0	-1479.0
5	17	42	58	499	221.0	-178400.0	-6020904.0	-1871.0
5	17	42	58	499	222.0	-177626.0	-6022028.0	-1817.0
5	17	42	58	500	223.0	-173791.0	-6020813.0	-1711.0
5	17	42	58	501	224.0	-168601.0	-6021715.0	-1514.0
5	17	42	58	501	225.0	-162896.0	-6021497.0	-1940.0
5	17	42	58	502	226.0	-157704.0	-6021549.0	-2124.0
5	17	42	58	502	228.0	-149461.0	-6016537.0	-2148.0
5	17	42	58	503	229.0	-146139.0	-6015701.0	-2337.0
5	17	42	58	504	230.0	-143506.0	-6020611.0	-2238.0
5	17	42	58	504	231.0	-141556.0	-6021719.0	-2381.0
5	17	42	58	505	232.0	-140701.0	-6019861.0	-2721.0
5	17	42	58	505	233.0	-140466.0	-6019897.0	-2546.0
5	17	42	58	538	234.0	-140717.0	-6021357.0	-2437.0
5	17	42	58	539	235.0	-141327.0	-6021654.0	-2400.0
5	17	42	58	540	236.0	-141424.0	-6021343.0	-2736.0
5	17	42	58	540	237.0	-141436.0	-6020847.0	-3077.0
5	17	42	58	541	238.0	-141683.0	-6019287.0	-3244.0
5	17	42	58	542	239.0	-142990.0	-6018556.0	-3632.0
5	17	42	58	542	240.0	-144867.0	-6020986.0	-3957.0
5	17	42	58	543	241.0	-146996.0	-6019884.0	-4132.0
5	17	42	58	544	242.0	-149309.0	-6018989.0	-4999.0
5	17	42	58	544	243.0	-151579.0	-6021848.0	-5110.0
5	17	42	58	545	244.0	-153587.0	-6021409.0	-4536.0
5	17	42	58	545	245.0	-154984.0	-6020988.0	-5109.0
5	17	42	58	546	246.0	-156166.0	-6019496.0	-4995.0
5	17	42	58	547	247.0	-157106.0	-6020410.0	-4653.0
5	17	42	58	547	248.0	-157176.0	-6020294.0	-4772.0
5	17	42	58	548	251.0	-157127.0	-6020897.0	-5665.0
5	17	42	58	548	252.0	-157352.0	-6020307.0	-5989.0
5	17	42	58	549	253.0	-157393.0	-6021372.0	-6241.0
5	17	42	58	550	254.0	-157369.0	-6022204.0	-6039.0
5	17	42	58	550	255.0	-157743.0	-6019298.0	-5913.0
5	17	42	58	551	0.0	-158306.0	-6019831.0	-6282.0
5	17	42	58	583	1.0	-158958.0	-6020905.0	-6767.0
5	17	42	58	583	2.0	-160016.0	-6019821.0	-6847.0
5	17	42	58	584	3.0	-160346.0	-6019069.0	-6377.0
5	17	42	58	585	4.0	-159777.0	-6017891.0	-6666.0
5	17	42	58	586	5.0	-158369.0	-6015994.0	-6989.0
5	17	42	58	586	6.0	-157254.0	-6019024.0	-7437.0
5	17	42	58	587	7.0	-156181.0	-6019731.0	-7823.0
5	17	42	58	588	8.0	-154898.0	-6019620.0	-8215.0
5	17	42	58	588	9.0	-153070.0	-6017971.0	-8362.0
5	17	42	58	589	10.0	-150966.0	-6017403.0	-8386.0
5	17	42	58	589	11.0	-149036.0	-6017061.0	-8603.0
5	17	42	58	590	12.0	-147515.0	-6019766.0	-8422.0
5	17	42	58	591	13.0	-146135.0	-6018875.0	-8644.0
5	17	42	58	591	14.0	-145209.0	-6019616.0	-9435.0
5	17	42	58	592	15.0	-144874.0	-6019429.0	-9816.0
5	17	42	58	592	17.0	-145021.0	-6020334.0	-9947.0
5	17	42	58	593	18.0	-145077.0	-6020082.0	-10094.0
5	17	42	58	594	19.0	-144716.0	-6019639.0	-9706.0
5	17	42	58	595	20.0	-144175.0	-6020326.0	-9439.0
5	17	42	58	595	21.0	-143673.0	-6021177.0	-10052.0
5	17	42	58	596	22.0	-143394.0	-6021700.0	-10237.0
5	17	42	58	629	23.0	-143478.0	-6018926.0	-10582.0
5	17	42	58	630	24.0	-143323.0	-6018221.0	-11034.0
5	17	42	58	630	25.0	-143224.0	-6020238.0	-11717.0
5	17	42	58	631	26.0	-143122.0	-6018619.0	-11710.0
5	17	42	58	632	27.0	-142898.0	-6018879.0	-11603.0
5	17	42	58	632	28.0	-142652.0	-6017606.0	-11935.0
5	17	42	58	633	29.0	-142067.0	-6019036.0	-11449.0
5	17	42	58	633	30.0	-141781.0	-6017833.0	-11760.0
5	17	42	58	634	31.0	-141834.0	-6019765.0	-11812.0
5	17	42	58	635	32.0	-142554.0	-6020398.0	-11634.0
5	17	42	58	635	33.0	-142908.0	-6019226.0	-11486.0
5	17	42	58	636	34.0	-143571.0	-6017981.0	-11444.0
5	17	42	58	637	35.0	-144602.0	-6018927.0	-11162.0
5	17	42	58	637	36.0	-145774.0	-6017526.0	-11094.0
5	17	42	58	638	37.0	-146895.0	-6017714.0	-10849.0
5	17	42	58	638	39.0	-150231.0	-6002531.0	-9869.0
5	17	42	58	639	40.0	-151611.0	-5977988.0	-9549.0
5	17	42	58	640	41.0	-153101.0	-5957937.0	-9579.0
5	17	42	58	640	42.0	-154236.0	-5941123.0	-9312.0
5	17	42	58	641	43.0	-155437.0	-5926621.0	-8856.0
5	17	42	58	641	44.0	-156338.0	-5910951.0	-8573.0
5	17	42	58	642	45.0	-156889.0	-5895720.0	-8507.0
5	17	42	58	673	46.0	-157214.0	-5892461.0	-8036.0
5	17	42	58	674	47.0	-157337.0	-5892142.0	-7198.0
5	17	42	58	674	48.0	-158112.0	-5893071.0	-6369.0
5	17	42	58	675	49.0	-159706.0	-5894972.0	-5951.0
5	17	42	58	676	50.0	-161864.0	-5892493.0	-5112.0
5	17	42	58	676	51.0	-164057.0	-5889965.0	-4661.0
5	17	42	58	677	52.0	-166201.0	-5892721.0	-4296.0
5	17	42	58	678	53.0	-167903.0	-5894928.0	-3975.0
5	17	42	58	678	54.0	-169241.0	-5893849.0	-3084.0
5	17	42	58	679	55.0	-170822.0	-5894316.0	-2956.0
5	17	42	58	679	56.0	-172013.0	-5896485.0	-3067.0
5	17	42	58	680	57.0	-173271.0	-5894810.0	-2672.0
5	17	42	58	681	58.0	-174457.0	-5894634.0	-2236.0
5	17	42	58	681	59.0	-175176.0	-5894404.0	-1912.0
5	17	42	58	682	60.0	-175591.0	-5893946.0	-1867.0
5	17	42	58	683	62.0	-176571.0	-5896533.0	-1628.0
5	17	42	58	684	63.0	-176757.0	-5889296.0	-1597.0
5	17	42	58	684	64.0	-176762.0	-5885747.0	-1219.0
5	17	42	58	685	65.0	-176952.0	-5883941.0	-695.0
5	17	42	58	686	66.0	-176827.0	-5884307.0	-432.0
5	17	42	58	686	67.0	-176601.0	-5892066.0	-378.0
5	17	42	58	718	68.0	-176003.0	-5887302.0	-271.0
5	17	42	58	719	69.0	-175142.0	-5882985.0	-12.0
5	17	42	58	720	70.0	-174256.0	-5883239.0	161.0
5	17	42	58	720	71.0	-172704.0	-5885997.0	-189.0
5	17	42	58	721	72.0	-171018.0	-5889799.0	-151.0
5	17	42	58	722	73.0	-169006.0	-5890690.0	-199.0
5	17	42	58	722	74.0	-166519.0	-5889654.0	-399.0
5	17	42	58	723	75.0	-163771.0	-5887407.0	-282.0
5	17	42	58	724	76.0	-160144.0	-5886027.0	-527.0
5	17	42	58	724	77.0	-154543.0	-5886638.0	-592.0
5	17	42	58	725	78.0	-145412.0	-5889152.0	-499.0
5	17	42	58	725	79.0	-129729.0	-5890191.0	54.0
5	17	42	58	726	80.0	-106454.0	-5887526.0	12.0
5	17	42	58	727	81.0	-77826.0	-5886210.0	35.0
5	17	42	58	727	82.0	-57172.0	-5882252.0	248.0
5	17	42	58	728	84.0	-82936.0	-5873954.0	-182.0
5	17	42	58	728	85.0	-118481.0	-5870002.0	-129.0
5	17	42	58	729	86.0	-153002.0	-5867056.0	-64.0
5	17	42	58	730	87.0	-176136.0	-5869339.0	-137.0
5	17	42	58	730	88.0	-186521.0	-5870819.0	164.0
5	17	42	58	731	89.0	-185641.0	-5871329.0	730.0
5	17	42	58	732	90.0	-181927.0	-5866524.0	948.0
5	17	42	58	763	91.0	-178227.0	-5848012.0	646.0
5	17	42	58	763	92.0	-172554.0	-5827733.0	601.0
5	17	42	58	764	93.0	-166424.0	-5823116.0	668.0
5	17	42	58	765	94.0	-159972.0	-5822987.0	334.0
5	17	42	58	766	95.0	-154186.0	-5818449.0	484.0
5	17	42	58	766	96.0	-150626.0	-5813602.0	876.0
5	17	42	58	767	97.0	-148449.0	-5809757.0	730.0
5	17	42	58	768	98.0	-145798.0	-5807764.0	1080.0
5	17	42	58	768	99.0	-142891.0	-5810289.0	1359.0
5	17	42	58	769	100.0	-140579.0	-5816030.0	1277.0
5	17	42	58	769	101.0	-139074.0	-5819286.0	1365.0
5	17	42	58	770	102.0	-136916.0	-5817925.0	1359.0
5	17	42	58	771	103.0	-133970.0	-5813789.0	1390.0
5	17	42	58	771	104.0	-130788.0	-5814395.0	1223.0
5	17	42	58	772	105.0	-128126.0	-5822240.0	697.0
5	17	42	58	773	107.0	-126177.0	-5837055.0	988.0
5	17	42	58	773	108.0	-126124.0	-5836304.0	1378.0
5	17	42	58	774	109.0	-126578.0	-5835716.0	812.0
5	17	42	58	774	110.0	-127397.0	-5835971.0	543.0
5	17	42	58	775	111.0	-128661.0	-5836975.0	616.0
5	17	42	58	775	112.0	-130372.0	-5837991.0	416.0
5	17	42	58	809	113.0	-132307.0	-5839548.0	69.0
5	17	42	58	810	114.0	-134816.0	-5840557.0	-269.0
5	17	42	58	811	115.0	-137712.0	-5847184.0	-315.0
5	17	42	58	812	116.0	-140956.0	-5857799.0	-493.0
5	17	42	58	812	117.0	-144586.0	-5869037.0	58.0
5	17	42	58	813	118.0	-148184.0	-5879382.0	39.0
5	17	42	58	813	119.0	-150787.0	-5886677.0	14.0
5	17	42	58	814	120.0	-153039.0	-5893342.0	329.0
5	17	42	58	815	121.0	-155126.0	-5893231.0	660.0
5	17	42	58	815	122.0	-156813.0	-5894739.0	161.0
5	17	42	58	816	123.0	-158094.0	-5899721.0	165.0
5	17	42	58	817	124.0	-159255.0	-5893667.0	379.0
5	17	42	58	818	125.0	-159817.0	-5886333.0	290.0
5	17	42	58	819	126.0	-159812.0	-5873429.0	85.0
5	17	42	58	819	127.0	-159467.0	-5861074.0	371.0
5	17	42	58	820	129.0	-157822.0	-5812684.0	186.0
5	17	42	58	821	130.0	-157117.0	-5773645.0	492.0
5	17	42	58	821	131.0	-156607.0	-5738290.0	449.0
5	17	42	58	822	132.0	-156356.0	-5711971.0	192.0
5	17	42	58	822	133.0	-156480.0	-5692589.0	87.0
5	17	42	58	823	134.0	-157337.0	-5682346.0	379.0
5	17	42	58	824	135.0	-159022.0	-5675409.0	-24.0
5	17	42	58	855	136.0	-161150.0	-5665076.0	-61.0
5	17	42	58	855	137.0	-163961.0	-5655336.0	158.0
5	17	42	58	856	138.0	-167821.0	-5648753.0	299.0
5	17	42	58	857	139.0	-171501.0	-5641978.0	299.0
5	17	42	58	857	140.0	-175017.0	-5628174.0	389.0
5	17	42	58	858	141.0	-178279.0	-5619496.0	29.0
5	17	42	58	859	142.0	-180991.0	-5613187.0	134.0
5	17	42	58	859	143.0	-183316.0	-5613706.0	46.0
5	17	42	58	860	144.0	-185576.0	-5614652.0	-400.0
5	17	42	58	861	145.0	-187459.0	-5607681.0	-56.0
5	17	42	58	861	146.0	-188832.0	-5592827.0	201.0
5	17	42	58	862	147.0	-189894.0	-5577864.0	193.0
5	17	42	58	863	148.0	-190979.0	-5555918.0	204.0
5	17	42	58	863	149.0	-192003.0	-5535189.0	1186.0
5	17	42	58	864	150.0	-193071.0	-5520797.0	988.0
5	17	42	58	864	152.0	-195135.0	-5504559.0	1257.0
5	17	42	58	865	153.0	-196152.0	-5503103.0	1641.0
5	17	42	58	866	154.0	-197399.0	-5510906.0	1427.0
5	17	42	58	866	155.0	-197751.0	-5524319.0	1821.0
5	17	42	58	867	156.0	-197499.0	-5524281.0	1663.0
5	17	42	58	867	157.0	-196636.0	-5527393.0	1824.0
5	17	42	58	898	158.0	-195493.0	-5538833.0	1789.0
5	17	42	58	899	159.0	-194454.0	-5551027.0	2046.0
5	17	42	58	900	160.0	-192713.0	-5564065.0	2319.0
5	17	42	58	901	161.0	-190769.0	-5576798.0	2798.0
5	17	42	58	901	162.0	-188814.0	-5589374.0	3165.0
5	17	42	58	902	163.0	-186517.0	-5605239.0	2926.0
5	17	42	58	903	164.0	-183652.0	-5618007.0	2343.0
5	17	42	58	903	165.0	-180716.0	-5628633.0	1988.0
5	17	42	58	904	166.0	-178370.0	-5639957.0	2340.0
5	17	42	58	905	167.0	-176319.0	-5654261.0	2283.0
5	17	42	58	905	168.0	-174172.0	-5670051.0	2338.0
5	17	42	58	906	169.0	-172609.0	-5687297.0	2230.0
5	17	42	58	906	170.0	-171553.0	-5705286.0	2056.0
5	17	42	58	907	171.0	-169839.0	-5722968.0	2369.0
5	17	42	58	908	172.0	-167656.0	-5742038.0	2208.0
5	17	42	58	908	174.0	-163125.0	-5784303.0	2029.0
5	17	42	58	909	175.0	-160571.0	-5806677.0	1651.0
5	17	42	58	910	176.0	-158378.0	-5828946.0	1652.0
5	17	42	58	910	177.0	-157032.0	-5851448.0	1731.0
5	17	42	58	911	178.0	-156566.0	-5874692.0	1730.0
5	17	42	58	911	179.0	-156994.0	-5894413.0	2103.0
5	17	42	58	912	180.0	-157563.0	-5903949.0	2581.0
5	17	42	58	943	181.0	-158296.0	-5912136.0	2819.0
5	17	42	58	944	182.0	-158856.0	-5919115.0	2869.0
5	17	42	58	945	183.0	-159451.0	-5926277.0	3076.0
5	17	42	58	945	184.0	-160972.0	-5932781.0	2950.0
5	17	42	58	946	185.0	-163232.0	-5938371.0	2824.0
5	17	42	58	947	186.0	-165644.0	-5944750.0	2986.0
5	17	42	58	947	187.0	-168452.0	-5951792.0	2714.0
5	17	42	58	948	188.0	-171929.0	-5958047.0	2429.0
5	17	42	58	948	189.0	-174902.0	-5964044.0	2601.0
5	17	42	58	957	190.0	-177792.0	-5970612.0	2951.0
5	17	42	58	958	191.0	-180684.0	-5977591.0	2858.0
5	17	42	58	958	192.0	-183199.0	-5984331.0	3136.0
5	17	42	58	959	193.0	-184887.0	-5988233.0	3061.0
5	17	42	58	959	194.0	-186482.0	-5988900.0	2932.0
5	17	42	58	960	195.0	-188061.0	-5990589.0	3010.0
5	17	42	58	960	197.0	-189342.0	-5993224.0	3278.0
5	17	42	58	961	198.0	-189335.0	-5992528.0	3326.0
5	17	42	58	962	199.0	-188371.0	-5994893.0	3324.0
5	17	42	58	962	200.0	-187026.0	-5997644.0	3756.0
5	17	42	58	963	201.0	-185201.0	-5994139.0	3564.0
5	17	42	58	963	202.0	-182754.0	-5982113.0	3159.0
5	17	42	58	989	203.0	-179874.0	-5965454.0	3264.0
5	17	42	58	990	204.0	-176823.0	-5952207.0	3432.0
5	17	42	58	991	205.0	-174007.0	-5946967.0	2996.0
5	17	42	58	991	206.0	-171314.0	-5938999.0	2987.0
5	17	42	58	992	207.0	-168397.0	-5924815.0	2933.0
5	17	42	58	993	208.0	-165815.0	-5915721.0	2651.0
5	17	42	58	993	209.0	-163325.0	-5907866.0	3061.0
5	17	42	58	994	210.0	-161340.0	-5898752.0	2801.0
5	17	42	58	995	211.0	-159359.0	-5894760.0	2106.0
5	17	42	58	995	212.0	-157206.0	-5896579.0	2516.0
5	17	42	58	996	213.0	-155344.0	-5896349.0	2161.0
5	17	42	58	997	214.0	-153793.0	-5896300.0	1950.0
5	17	42	58	997	215.0	-152862.0	-5896843.0	1910.0
5	17	42	58	998	216.0	-152389.0	-5897787.0	1844.0
5	17	42	58	999	217.0	-152032.0	-5898551.0	1763.0
5	17	42	58	999	219.0	-151340.0	-5899376.0	1876.0
5	17	42	59	0	220.0	-151307.0	-5897757.0	1504.0
5	17	42	59	1	221.0	-151623.0	-5896959.0	1628.0
5	17	42	59	1	222.0	-151999.0	-5899999.0	1593.0
5	17	42	59	2	223.0	-153119.0	-5896368.0	1196.0
5	17	42	59	2	224.0	-154749.0	-5891119.0	591.0
5	17	42	59	3	225.0	-156652.0	-5894014.0	466.0
5	17	42	59	33	226.0	-158742.0	-5893887.0	253.0
5	17	42	59	34	227.0	-160980.0	-5891617.0	-294.0
5	17	42	59	35	228.0	-163361.0	-5892431.0	291.0
5	17	42	59	35	229.0	-165876.0	-5890829.0	814.0
5	17	42	59	36	230.0	-168289.0	-5890147.0	554.0
5	17	42	59	37	231.0	-170950.0	-5887590.0	1086.0
5	17	42	59	37	232.0	-173309.0	-5881862.0	1264.0
5	17	42	59	38	233.0	-174928.0	-5876895.0	847.0
5	17	42	59	39	234.0	-176657.0	-5865605.0	509.0
5	17	42	59	39	235.0	-178102.0	-5800419.0	383.0
5	17	42	59	40	236.0	-179005.0	-5741535.0	228.0
5	17	42	59	41	237.0	-179546.0	-5703576.0	-325.0
5	17	42	59	41	238.0	-179492.0	-5659086.0	-952.0
5	17	42	59	42	239.0	-178869.0	-5627460.0	-935.0
5	17	42	59	43	240.0	-178047.0	-5603594.0	-1053.0
5	17	42	59	44	242.0	-175556.0	-5435814.0	-994.0
5	17	42	59	44	243.0	-174736.0	-5346544.0	-1195.0
5	17	42	59	45	244.0	-174394.0	-5281591.0	-945.0
5	17	42	59	45	245.0	-174532.0	-5216521.0	-1379.0
5	17	42	59	46	246.0	-175276.0	-5154976.0	-1002.0
5	17	42	59	47	247.0	-176024.0	-5082292.0	-786.0
5	17	42	59	79	248.0	-175858.0	-5035837.0	-982.0
5	17	42	59	80	249.0	-175407.0	-4996741.0	-802.0
5	17	42	59	80	250.0	-175529.0	-4949982.0	-349.0
5	17	42	59	81	251.0	-175636.0	-4922173.0	-388.0
5	17	42	59	81	252.0	-175470.0	-4910367.0	-352.0
5	17	42	59	82	253.0	-175431.0	-4901337.0	278.0
5	17	42	59	83	254.0	-175831.0	-4894040.0	698.0
5	17	42	59	83	255.0	-175711.0	-4886656.0	409.0
5	17	42	59	84	0.0	-175811.0	-4882300.0	641.0
5	17	42	59	85	1.0	-176160.0	-4878416.0	919.0
5	17	42	59	85	2.0	-176725.0	-4875955.0	651.0
5	17	42	59	86	3.0	-177545.0	-4876064.0	988.0
5	17	42	59	86	4.0	-178904.0	-4879104.0	1913.0
5	17	42	59	87	5.0	-180587.0	-4884596.0	1508.0
5	17	42	59	88	6.0	-181787.0	-4892481.0	1082.0
5	17	42	59	88	8.0	-182914.0	-4896308.0	1669.0
5	17	42	59	89	9.0	-184087.0	-4898741.0	1724.0
5	17	42	59	90	10.0	-185314.0	-4903933.0	1612.0
5	17	42	59	90	11.0	-185930.0	-4906734.0	1994.0
5	17	42	59	91	12.0	-186034.0	-4907259.0	1939.0
5	17	42	59	91	13.0	-186065.0	-4901680.0	2279.0
5	17	42	59	125	14.0	-186327.0	-4879231.0	2710.0
5	17	42	59	126	15.0	-186582.0	-4849236.0	2504.0
5	17	42	59	126	16.0	-186853.0	-4832281.0	3051.0
5	17	42	59	127	17.0	-186530.0	-4820381.0	3334.0
5	17	42	59	128	18.0	-185952.0	-4817681.0	2793.0
5	17	42	59	129	19.0	-185089.0	-4818159.0	2686.0
5	17	42	59	129	20.0	-183036.0	-4816932.0	2544.0
5	17	42	59	130	21.0	-180471.0	-4815227.0	2694.0
5	17	42	59	131	22.0	-178453.0	-4812859.0	3435.0
5	17	42	59	131	23.0	-176829.0	-4813560.0	4001.0
5	17	42	59	132	24.0	-175489.0	-4814838.0	4303.0
5	17	42	59	133	25.0	-174218.0	-4820593.0	4849.0
5	17	42	59	133	26.0	-173057.0	-4828081.0	4932.0
5	17	42	59	134	27.0	-172054.0	-4834226.0	4544.0
5	17	42	59	135	28.0	-171106.0	-4841782.0	4944.0
5	17	42	59	135	31.0	-167193.0	-4864985.0	5243.0
5	17	42	59	136	32.0	-166375.0	-4870312.0	5493.0
5	17	42	59	136	33.0	-165939.0	-4875168.0	4807.0
5	17	42	59	137	34.0	-165054.0	-4875562.0	5346.0
5	17	42	59	137	35.0	-163766.0	-4876734.0	5824.0
5	17	42	59	138	36.0	-162272.0	-4883589.0	5727.0
5	17	42	59	168	37.0	-161109.0	-4891188.0	4824.0
5	17	42	59	168	38.0	-160397.0	-4900132.0	4543.0
5	17	42	59	169	39.0	-159602.0	-4911786.0	4522.0
5	17	42	59	170	40.0	-158557.0	-4924894.0	4149.0
5	17	42	59	170	41.0	-158012.0	-4938311.0	4361.0
5	17	42	59	171	42.0	-157522.0	-4952099.0	4434.0
5	17	42	59	172	43.0	-156598.0	-4966760.0	3802.0
5	17	42	59	172	44.0	-155708.0	-4988778.0	2852.0
5	17	42	59	173	45.0	-155165.0	-5007865.0	1907.0
5	17	42	59	174	46.0	-154443.0	-5022816.0	739.0
5	17	42	59	174	47.0	-154124.0	-5036182.0	-866.0
5	17	42	59	175	48.0	-154191.0	-5049227.0	-1522.0
5	17	42	59	176	49.0	-153921.0	-5063794.0	-1316.0
5	17	42	59	176	50.0	-153768.0	-5079926.0	-471.0
5	17	42	59	177	51.0	-153356.0	-5097833.0	-394.0
5	17	42	59	178	53.0	-152894.0	-5131106.0	-4543.0
5	17	42	59	178	54.0	-152004.0	-5148107.0	-4994.0
5	17	42	59	179	55.0	-150708.0	-5164404.0	-3640.0
5	17	42	59	180	56.0	-148767.0	-5180603.0	-879.0
5	17	42	59	180	57.0	-146918.0	-5197638.0	4601.0
5	17	42	59	181	58.0	-145547.0	-5214907.0	9805.0
5	17	42	59	214	59.0	-145079.0	-5231931.0	15199.0
5	17	42	59	214	60.0	-145535.0	-5249341.0	20118.0
5	17	42	59	215	61.0	-147496.0	-5267508.0	23304.0
5	17	42	59	216	62.0	-151112.0	-5285867.0	23567.0
5	17	42	59	217	63.0	-156181.0	-5304545.0	23083.0
5	17	42	59	217	64.0	-162585.0	-5322917.0	22812.0
5	17	42	59	218	65.0	-170173.0	-5340709.0	20850.0
5	17	42	59	218	66.0	-178441.0	-5358814.0	18285.0
5	17	42	59	219	67.0	-186254.0	-5377868.0	16339.0
5	17	42	59	220	68.0	-193292.0	-5396459.0	14689.0
5	17	42	59	221	69.0	-199093.0	-5414892.0	12737.0
5	17	42	59	222	70.0	-199421.0	-5432882.0	11797.0
5	17	42	59	223	71.0	-186319.0	-5448544.0	10919.0
5	17	42	59	224	72.0	-164030.0	-5465724.0	9619.0
5	17	42	59	225	73.0	-137214.0	-5483034.0	8862.0
5	17	42	59	225	75.0	-97111.0	-5521860.0	6583.0
5	17	42	59	226	76.0	-90117.0	-5541151.0	6153.0
5	17	42	59	226	77.0	-91910.0	-5562674.0	5759.0
5	17	42	59	227	78.0	-100487.0	-5583319.0	5159.0
5	17	42	59	228	79.0	-113332.0	-5604009.0	4544.0
5	17	42	59	228	80.0	-128517.0	-5625577.0	4230.0
5	17	42	59	229	81.0	-146367.0	-5647125.0	4129.0
5	17	42	59	259	82.0	-166804.0	-5668868.0	4162.0
5	17	42	59	260	83.0	-187217.0	-5691358.0	3816.0
5	17	42	59	260	84.0	-205412.0	-5713139.0	3391.0
5	17	42	59	261	85.0	-218371.0	-5733667.0	3642.0
5	17	42	59	261	86.0	-224064.0	-5755032.0	3172.0
5	17	42	59	262	87.0	-221901.0	-5778719.0	2811.0
5	17	42	59	263	88.0	-212842.0	-5804860.0	2772.0
5	17	42	59	263	89.0	-196812.0	-5827686.0	2618.0
5	17	42	59	264	90.0	-178720.0	-5849536.0	1798.0
5	17	42	59	265	91.0	-161992.0	-5872262.0	1488.0
5	17	42	59	265	92.0	-148192.0	-5894762.0	1811.0
5	17	42	59	266	93.0	-138843.0	-5905444.0	1728.0
5	17	42	59	267	94.0	-134706.0	-5911681.0	722.0
5	17	42	59	267	95.0	-135624.0	-5918091.0	1073.0
5	17	42	59	268	96.0	-139991.0	-5923996.0	1058.0
5	17	42	59	269	98.0	-150986.0	-5933563.0	721.0
5	17	42	59	269	99.0	-154425.0	-5939341.0	984.0
5	17	42	59	270	100.0	-156651.0	-5944435.0	389.0
5	17	42	59	271	101.0	-158537.0	-5950301.0	214.0
5	17	42	59	271	102.0	-159681.0	-5956644.0	534.0
5	17	42	59	272	103.0	-159715.0	-5962253.0	388.0
5	17	42	59	303	104.0	-158396.0	-5966898.0	320.0
5	17	42	59	304	105.0	-155012.0	-5972693.0	310.0
5	17	42	59	305	106.0	-150082.0	-5979864.0	75.0
5	17	42	59	306	107.0	-144122.0	-5986574.0	-199.0
5	17	42	59	306	108.0	-137457.0	-5993032.0	-271.0
5	17	42	59	307	109.0	-131949.0	-5999773.0	-490.0
5	17	42	59	308	110.0	-127604.0	-6007303.0	-518.0
5	17	42	59	308	111.0	-124002.0	-6012304.0	-779.0
5	17	42	59	309	112.0	-121146.0	-6016822.0	-827.0
5	17	42	59	310	113.0	-119942.0	-6016372.0	-832.0
5	17	42	59	310	114.0	-119926.0	-6012026.0	-803.0
5	17	42	59	311	115.0	-119626.0	-6012723.0	-1115.0
5	17	42	59	312	116.0	-119746.0	-6014599.0	-1162.0
5	17	42	59	312	117.0	-119949.0	-6013845.0	-1271.0
5	17	42	59	313	118.0	-119827.0	-6014464.0	-1756.0
5	17	42	59	314	120.0	-120032.0	-6010167.0	-1768.0
5	17	42	59	314	121.0	-121052.0	-6007809.0	-2074.0
5	17	42	59	315	122.0	-122246.0	-6008968.0	-2159.0
5	17	42	59	316	123.0	-124212.0	-6011834.0	-2079.0
5	17	42	59	316	124.0	-126875.0	-6006346.0	-2064.0
5	17	42	59	317	125.0	-129194.0	-5994313.0	-2337.0
5	17	42	59	317	126.0	-131094.0	-5978007.0	-2383.0
5	17	42	59	349	127.0	-133400.0	-5964948.0	-2280.0
5	17	42	59	350	128.0	-135698.0	-5945346.0	-3074.0
5	17	42	59	351	129.0	-137562.0	-5928127.0	-3283.0
5	17	42	59	351	130.0	-139122.0	-5916832.0	-3171.0
5	17	42	59	352	131.0	-140152.0	-5903587.0	-3333.0
5	17	42	59	353	132.0	-141294.0	-5878262.0	-3686.0
5	17	42	59	353	133.0	-142427.0	-5852802.0	-3927.0
5	17	42	59	354	134.0	-143452.0	-5832324.0	-3914.0
5	17	42	59	355	135.0	-144867.0	-5813062.0	-5095.0
5	17	42	59	355	136.0	-146187.0	-5804453.0	-5161.0
5	17	42	59	356	137.0	-147708.0	-5803489.0	-4901.0
5	17	42	59	357	138.0	-149184.0	-5818111.0	-5223.0
5	17	42	59	358	139.0	-149979.0	-5827232.0	-5447.0
5	17	42	59	359	140.0	-150216.0	-5832024.0	-5304.0
5	17	42	59	359	141.0	-150069.0	-5842901.0	-5305.0
5	17	42	59	360	143.0	-149246.0	-5855415.0	-5209.0
5	17	42	59	361	144.0	-148446.0	-5839906.0	-5089.0
5	17	42	59	361	145.0	-147794.0	-5743117.0	-5172.0
5	17	42	59	362	146.0	-146671.0	-5630556.0	-5699.0
5	17	42	59	362	147.0	-145754.0	-5544973.0	-6209.0
5	17	42	59	363	148.0	-145160.0	-5431687.0	-6615.0
5	17	42	59	393	149.0	-144867.0	-5380091.0	-6594.0
5	17	42	59	394	150.0	-144557.0	-5371859.0	-6834.0
5	17	42	59	395	151.0	-144428.0	-5365237.0	-7313.0
5	17	42	59	395	152.0	-144390.0	-5350914.0	-7922.0
5	17	42	59	396	153.0	-144668.0	-5333472.0	-8022.0
5	17	42	59	397	154.0	-144912.0	-5297539.0	-8176.0
5	17	42	59	397	155.0	-144698.0	-5247807.0	-8746.0
5	17	42	59	398	156.0	-144117.0	-5213095.0	-9498.0
5	17	42	59	399	157.0	-143228.0	-5179833.0	-9664.0
5	17	42	59	399	158.0	-143054.0	-5147471.0	-9962.0
5	17	42	59	400	159.0	-143479.0	-5123031.0	-10401.0
5	17	42	59	401	160.0	-144497.0	-5107298.0	-10744.0
5	17	42	59	402	161.0	-145713.0	-5090024.0	-10878.0
5	17	42	59	403	162.0	-146910.0	-5066266.0	-10165.0
5	17	42	59	404	163.0	-148205.0	-5038586.0	-9919.0
5	17	42	59	404	165.0	-150794.0	-4984018.0	-10274.0
5	17	42	59	405	166.0	-151887.0	-4955544.0	-10230.0
5	17	42	59	405	167.0	-152584.0	-4936620.0	-10940.0
5	17	42	59	406	168.0	-153144.0	-4923757.0	-10846.0
5	17	42	59	407	169.0	-153553.0	-4911696.0	-10184.0
5	17	42	59	407	170.0	-153674.0	-4902348.0	-10664.0
5	17	42	59	408	171.0	-153873.0	-4900257.0	-10652.0
5	17	42	59	484	172.0	-153774.0	-4897945.0	-10484.0
5	17	42	59	485	173.0	-153267.0	-4892541.0	-10838.0
5	17	42	59	486	174.0	-152887.0	-4884654.0	-10584.0
5	17	42	59	486	175.0	-152829.0	-4869822.0	-9916.0
5	17	42	59	487	176.0	-153267.0	-4852502.0	-9353.0
5	17	42	59	488	177.0	-154138.0	-4837465.0	-9286.0
5	17	42	59	489	178.0	-155257.0	-4817679.0	-9195.0
5	17	42	59	502	179.0	-156551.0	-4801738.0	-8506.0
5	17	42	59	502	180.0	-157402.0	-4802061.0	-8279.0
5	17	42	59	503	181.0	-157576.0	-4808124.0	-8172.0
5	17	42	59	504	182.0	-157603.0	-4817894.0	-7732.0
5	17	42	59	505	183.0	-157804.0	-4827673.0	-7097.0
5	17	42	59	505	184.0	-157831.0	-4834136.0	-5910.0
5	17	42	59	506	185.0	-157799.0	-4838185.0	-5871.0
5	17	42	59	507	186.0	-157487.0	-4837804.0	-5602.0
5	17	42	59	507	210.0	-182887.0	-4919270.0	2230.0
5	17	42	59	508	211.0	-183547.0	-4931407.0	2211.0
5	17	42	59	509	212.0	-183064.0	-4939244.0	2445.0
5	17	42	59	509	213.0	-181116.0	-4943392.0	3023.0
5	17	42	59	510	214.0	-176642.0	-4947487.0	3291.0
5	17	42	59	510	215.0	-168674.0	-4940272.0	3304.0
5	17	42	59	511	216.0	-155128.0	-4920161.0	3131.0
5	17	42	59	528	217.0	-134229.0	-4919025.0	3304.0
5	17	42	59	528	218.0	-106399.0	-4921649.0	3501.0
5	17	42	59	529	219.0	-80427.0	-4928837.0	3297.0
5	17	42	59	530	220.0	-78008.0	-4938723.0	3315.0
5	17	42	59	531	221.0	-95676.0	-4946563.0	4061.0
5	17	42	59	531	222.0	-127815.0	-4951440.0	4152.0
5	17	42	59	532	223.0	-164649.0	-4953661.0	4047.0
5	17	42	59	533	224.0	-190572.0	-4952487.0	4526.0
5	17	42	59	533	225.0	-202571.0	-4946112.0	4493.0
5	17	42	59	534	226.0	-201025.0	-4941897.0	4084.0
5	17	42	59	535	227.0	-194326.0	-4940034.0	3986.0
5	17	42	59	536	228.0	-187411.0	-4936708.0	4228.0
5	17	42	59	537	229.0	-179233.0	-4928607.0	4141.0
5	17	42	59	537	230.0	-169989.0	-4922605.0	4104.0
5	17	42	59	538	231.0	-160544.0	-4920240.0	4606.0
5	17	42	59	539	233.0	-145611.0	-4919707.0	5118.0
5	17	42	59	539	234.0	-140957.0	-4908427.0	5491.0
5	17	42	59	540	235.0	-137155.0	-4883498.0	6016.0
5	17	42	59	541	236.0	-133532.0	-4856716.0	5608.0
5	17	42	59	541	237.0	-129887.0	-4833893.0	5460.0
5	17	42	59	542	238.0	-125813.0	-4807628.0	5126.0
5	17	42	59	572	239.0	-121724.0	-4776419.0	4688.0
5	17	42	59	573	240.0	-117548.0	-4746441.0	4634.0
5	17	42	59	574	241.0	-114046.0	-4712804.0	5904.0
5	17	42	59	575	242.0	-112281.0	-4685684.0	5714.0
5	17	42	59	576	243.0	-111547.0	-4673949.0	5026.0
5	17	42	59	576	244.0	-110894.0	-4656860.0	5491.0
5	17	42	59	577	245.0	-110634.0	-4634547.0	5715.0
5	17	42	59	578	246.0	-110822.0	-4622166.0	5151.0
5	17	42	59	578	247.0	-111213.0	-4614742.0	4941.0
5	17	42	59	579	248.0	-112552.0	-4613211.0	4608.0
5	17	42	59	581	249.0	-114623.0	-4623110.0	4771.0
5	17	42	59	582	250.0	-116052.0	-4635437.0	4503.0
5	17	42	59	582	251.0	-117296.0	-4646667.0	4429.0
5	17	42	59	583	252.0	-118709.0	-4657946.0	4983.0
5	17	42	59	584	253.0	-120924.0	-4670526.0	5122.0
5	17	42	59	585	255.0	-127535.0	-4695664.0	4852.0
5	17	42	59	586	0.0	-131917.0	-4706939.0	4747.0
5	17	42	59	587	1.0	-137187.0	-4716075.0	4700.0
5	17	42	59	587	2.0	-142747.0	-4722641.0	4196.0
5	17	42	59	588	3.0	-147744.0	-4727802.0	4536.0
5	17	42	59	589	4.0	-152263.0	-4732452.0	5296.0
5	17	42	59	589	5.0	-156291.0	-4735347.0	5148.0
5	17	42	59	619	6.0	-159943.0	-4734549.0	5646.0
5	17	42	59	620	7.0	-163379.0	-4733177.0	5523.0
5	17	42	59	621	8.0	-166252.0	-4728546.0	5080.0
5	17	42	59	622	9.0	-168419.0	-4723462.0	4906.0
5	17	42	59	623	10.0	-170146.0	-4722469.0	5171.0
5	17	42	59	623	11.0	-171700.0	-4713792.0	5186.0
5	17	42	59	624	12.0	-173272.0	-4703527.0	4915.0
5	17	42	59	625	13.0	-174611.0	-4696854.0	5178.0
5	17	42	59	625	14.0	-175329.0	-4698014.0	5333.0
5	17	42	59	626	15.0	-175443.0	-4702139.0	5319.0
5	17	42	59	627	16.0	-175792.0	-4707303.0	5049.0
5	17	42	59	627	17.0	-176549.0	-4712060.0	5028.0
5	17	42	59	628	18.0	-177307.0	-4716654.0	5113.0
5	17	42	59	629	19.0	-178156.0	-4721481.0	4984.0
5	17	42	59	629	20.0	-179326.0	-4725774.0	4776.0
5	17	42	59	630	22.0	-181930.0	-4732988.0	5069.0
5	17	42	59	630	23.0	-182753.0	-4735988.0	5026.0
5	17	42	59	631	24.0	-183294.0	-4742467.0	5296.0
5	17	42	59	632	25.0	-182850.0	-4750909.0	5483.0
5	17	42	59	632	26.0	-182223.0	-4758682.0	5399.0
5	17	42	59	633	27.0	-181906.0	-4761477.0	5649.0
5	17	42	59	662	28.0	-181173.0	-4760876.0	5721.0
5	17	42	59	663	29.0	-180928.0	-4767167.0	5103.0
5	17	42	59	664	30.0	-181344.0	-4776859.0	4490.0
5	17	42	59	665	31.0	-182397.0	-4787264.0	4501.0
5	17	42	59	665	32.0	-183661.0	-4795442.0	5449.0
5	17	42	59	666	33.0	-184954.0	-4803109.0	5393.0
5	17	42	59	667	34.0	-186636.0	-4809812.0	5018.0
5	17	42	59	667	35.0	-187804.0	-4816822.0	5708.0
5	17	42	59	668	36.0	-188116.0	-4829518.0	5979.0
5	17	42	59	669	37.0	-188683.0	-4843569.0	5638.0
5	17	42	59	669	38.0	-189327.0	-4850237.0	5969.0
5	17	42	59	670	39.0	-189884.0	-4857114.0	5804.0
5	17	42	59	671	40.0	-190078.0	-4863496.0	5386.0
5	17	42	59	672	41.0	-190321.0	-4869843.0	5814.0
5	17	42	59	672	42.0	-190886.0	-4875051.0	5874.0
5	17	42	59	673	44.0	-190707.0	-4880647.0	5099.0
5	17	42	59	674	45.0	-190190.0	-4875719.0	5612.0
5	17	42	59	675	46.0	-190019.0	-4863364.0	5780.0
5	17	42	59	678	47.0	-190035.0	-4858869.0	5867.0
5	17	42	59	679	48.0	-190159.0	-4851154.0	5932.0
5	17	42	59	680	49.0	-190203.0	-4838504.0	6274.0
5	17	42	59	710	50.0	-190416.0	-4821977.0	6384.0
5	17	42	59	711	51.0	-190267.0	-4804901.0	6148.0
5	17	42	59	712	52.0	-189959.0	-4791592.0	5963.0
5	17	42	59	712	53.0	-189692.0	-4770109.0	5634.0
5	17	42	59	713	54.0	-188999.0	-4753526.0	5671.0
5	17	42	59	714	55.0	-188398.0	-4756934.0	6082.0
5	17	42	59	715	56.0	-188210.0	-4763397.0	5417.0
5	17	42	59	715	57.0	-188296.0	-4762643.0	5840.0
5	17	42	59	716	58.0	-188547.0	-4757491.0	5898.0
5	17	42	59	717	59.0	-188502.0	-4751328.0	6266.0
5	17	42	59	718	60.0	-187805.0	-4745099.0	6258.0
5	17	42	59	718	61.0	-187121.0	-4743338.0	6516.0
5	17	42	59	719	62.0	-186307.0	-4736509.0	6273.0
5	17	42	59	719	63.0	-185444.0	-4734227.0	6114.0
5	17	42	59	720	64.0	-184601.0	-4743331.0	6472.0
5	17	42	59	721	67.0	-183727.0	-4722348.0	6712.0
5	17	42	59	721	68.0	-182705.0	-4719158.0	5976.0
5	17	42	59	722	69.0	-181317.0	-4709377.0	5644.0
5	17	42	59	722	70.0	-179618.0	-4691549.0	5703.0
5	17	42	59	723	71.0	-177903.0	-4680344.0	6142.0
5	17	42	59	724	72.0	-176341.0	-4681871.0	6112.0
5	17	42	59	752	73.0	-174672.0	-4669817.0	6378.0
5	17	42	59	753	74.0	-173070.0	-4648189.0	6568.0
5	17	42	59	754	75.0	-172015.0	-4627222.0	6774.0
5	17	42	59	755	76.0	-170986.0	-4608314.0	6806.0
5	17	42	59	755	77.0	-169776.0	-4590399.0	6418.0
5	17	42	59	756	78.0	-168176.0	-4575099.0	6376.0
5	17	42	59	757	79.0	-166799.0	-4570599.0	6269.0
5	17	42	59	757	80.0	-165516.0	-4568131.0	6579.0
5	17	42	59	758	81.0	-164326.0	-4563397.0	6223.0
5	17	42	59	759	82.0	-163707.0	-4559643.0	6204.0
5	17	42	59	759	83.0	-163200.0	-4560493.0	6450.0
5	17	42	59	760	84.0	-162912.0	-4558549.0	6394.0
5	17	42	59	761	85.0	-162741.0	-4553966.0	6176.0
5	17	42	59	761	86.0	-162198.0	-4549724.0	6068.0
5	17	42	59	762	87.0	-162053.0	-4546279.0	6074.0
5	17	42	59	763	89.0	-162826.0	-4545941.0	5824.0
5	17	42	59	764	90.0	-163190.0	-4546488.0	5587.0
5	17	42	59	764	91.0	-163904.0	-4542916.0	5261.0
5	17	42	59	765	92.0	-164524.0	-4537502.0	5424.0
5	17	42	59	766	93.0	-164533.0	-4540672.0	5147.0
5	17	42	59	767	94.0	-164436.0	-4544892.0	4916.0
5	17	42	59	796	95.0	-164456.0	-4546539.0	5357.0
5	17	42	59	797	96.0	-164694.0	-4552254.0	5278.0
5	17	42	59	798	97.0	-164913.0	-4562839.0	5192.0
5	17	42	59	799	98.0	-164451.0	-4578999.0	5435.0
5	17	42	59	799	99.0	-163713.0	-4586948.0	4888.0
5	17	42	59	800	100.0	-163494.0	-4595173.0	4682.0
5	17	42	59	801	101.0	-163279.0	-4599919.0	4842.0
5	17	42	59	801	102.0	-163025.0	-4599474.0	4996.0
5	17	42	59	802	103.0	-162869.0	-4604244.0	4769.0
5	17	42	59	803	104.0	-163009.0	-4610749.0	4640.0
5	17	42	59	804	105.0	-162801.0	-4618929.0	5096.0
5	17	42	59	804	106.0	-162291.0	-4628020.0	4536.0
5	17	42	59	805	107.0	-161681.0	-4637157.0	4355.0
5	17	42	59	806	108.0	-161244.0	-4637204.0	5096.0
5	17	42	59	807	109.0	-161009.0	-4614519.0	5294.0
5	17	42	59	808	111.0	-160125.0	-4600821.0	4813.0
5	17	42	59	808	112.0	-159737.0	-4601540.0	4378.0
5	17	42	59	809	113.0	-159272.0	-4606945.0	4161.0
5	17	42	59	810	114.0	-158929.0	-4617867.0	4510.0
5	17	42	59	811	115.0	-158134.0	-4626886.0	4444.0
5	17	42	59	812	116.0	-157079.0	-4632994.0	4438.0
5	17	42	59	813	117.0	-155737.0	-4634884.0	4231.0
5	17	42	59	845	118.0	-154855.0	-4626991.0	4008.0
5	17	42	59	846	119.0	-155020.0	-4618381.0	4381.0
5	17	42	59	846	120.0	-155344.0	-4625586.0	4251.0
5	17	42	59	847	121.0	-155482.0	-4635668.0	4183.0
5	17	42	59	848	122.0	-155782.0	-4646296.0	4349.0
5	17	42	59	848	123.0	-156541.0	-4658393.0	3995.0
5	17	42	59	849	124.0	-157735.0	-4669010.0	3255.0
5	17	42	59	849	125.0	-158842.0	-4679351.0	3023.0
5	17	42	59	850	126.0	-160502.0	-4686169.0	2956.0
5	17	42	59	850	127.0	-162052.0	-4691372.0	2269.0
5	17	42	59	851	128.0	-163404.0	-4699449.0	2316.0
5	17	42	59	852	129.0	-164686.0	-4708447.0	2482.0
5	17	42	59	852	130.0	-165891.0	-4717727.0	2844.0
5	17	42	59	853	131.0	-167731.0	-4719446.0	2674.0
5	17	42	59	853	132.0	-169567.0	-4724512.0	2828.0
5	17	42	59	854	134.0	-172332.0	-4747609.0	2532.0
5	17	42	59	854	135.0	-173833.0	-4757250.0	2727.0
5	17	42	59	855	136.0	-175575.0	-4766889.0	3461.0
5	17	42	59	856	137.0	-176420.0	-4776713.0	3872.0
5	17	42	59	856	138.0	-176733.0	-4783383.0	3414.0
5	17	42	59	857	139.0	-177036.0	-4786944.0	3189.0
5	17	42	59	887	140.0	-176999.0	-4796544.0	3664.0
5	17	42	59	887	141.0	-176436.0	-4806186.0	2986.0
5	17	42	59	888	142.0	-176019.0	-4813151.0	2644.0
5	17	42	59	889	143.0	-175429.0	-4816612.0	3156.0
5	17	42	59	889	144.0	-174641.0	-4821995.0	2983.0
5	17	42	59	897	145.0	-173738.0	-4830879.0	3311.0
5	17	42	59	898	146.0	-173517.0	-4840754.0	3621.0
5	17	42	59	898	147.0	-173317.0	-4850088.0	3852.0
5	17	42	59	899	148.0	-172655.0	-4849668.0	3819.0
5	17	42	59	899	149.0	-171975.0	-4821751.0	3878.0
5	17	42	59	900	150.0	-171101.0	-4795264.0	4064.0
5	17	42	59	900	151.0	-170089.0	-4770068.0	4158.0
5	17	42	59	901	152.0	-169227.0	-4742254.0	4048.0
5	17	42	59	902	153.0	-168181.0	-4711982.0	3658.0
5	17	42	59	902	154.0	-167554.0	-4678564.0	3907.0
5	17	42	59	903	156.0	-167077.0	-4612596.0	4424.0
5	17	42	59	903	157.0	-166677.0	-4601789.0	4404.0
5	17	42	59	904	158.0	-166438.0	-4596352.0	4301.0
5	17	42	59	904	159.0	-166686.0	-4596323.0	4100.0
5	17	42	59	905	160.0	-167134.0	-4596802.0	3831.0
5	17	42	59	905	161.0	-168006.0	-4598157.0	4022.0
5	17	42	59	906	162.0	-168842.0	-4599346.0	4096.0
5	17	42	59	933	163.0	-169897.0	-4601102.0	3646.0
5	17	42	59	934	164.0	-171446.0	-4601519.0	3817.0
5	17	42	59	934	165.0	-173282.0	-4597569.0	4116.0
5	17	42	59	935	166.0	-175267.0	-4585947.0	3587.0
5	17	42	59	936	167.0	-177033.0	-4581024.0	3709.0
5	17	42	59	936	168.0	-178894.0	-4589359.0	3961.0
5	17	42	59	937	169.0	-180642.0	-4607782.0	3509.0
5	17	42	59	937	170.0	-182139.0	-4616424.0	3300.0
5	17	42	59	938	171.0	-183334.0	-4612736.0	3477.0
5	17	42	59	939	172.0	-184677.0	-4609265.0	3778.0
5	17	42	59	939	173.0	-186224.0	-4608604.0	3549.0
5	17	42	59	940	174.0	-187561.0	-4610654.0	3621.0
5	17	42	59	940	175.0	-188696.0	-4614161.0	3889.0
5	17	42	59	941	176.0	-189231.0	-4618021.0	3795.0
5	17	42	59	942	177.0	-188837.0	-4620693.0	4089.0
5	17	42	59	942	179.0	-187382.0	-4627510.0	3511.0
5	17	42	59	943	180.0	-186683.0	-4627311.0	3296.0
5	17	42	59	943	181.0	-186452.0	-4621889.0	3588.0
5	17	42	59	944	182.0	-186812.0	-4612772.0	3379.0
5	17	42	59	944	183.0	-187339.0	-4609272.0	3613.0
5	17	42	59	945	184.0	-188827.0	-4611527.0	3275.0
5	17	42	59	977	185.0	-191101.0	-4614349.0	3259.0
5	17	42	59	977	186.0	-194203.0	-4619986.0	2845.0
5	17	42	59	978	187.0	-198773.0	-4629729.0	1624.0
5	17	42	59	979	188.0	-204447.0	-4640346.0	303.0
5	17	42	59	979	189.0	-211006.0	-4646651.0	-1293.0
5	17	42	59	980	190.0	-218096.0	-4649826.0	-1522.0
5	17	42	59	980	191.0	-225262.0	-4654018.0	-1533.0
5	17	42	59	981	192.0	-232464.0	-4660439.0	-1801.0
5	17	42	59	982	193.0	-239220.0	-4668428.0	-2446.0
5	17	42	59	982	194.0	-245335.0	-4675722.0	-4240.0
5	17	42	59	983	195.0	-251440.0	-4680234.0	-5554.0
5	17	42	59	996	196.0	-257490.0	-4685339.0	-5254.0
5	17	42	59	997	197.0	-263617.0	-4692315.0	-3266.0
5	17	42	59	998	198.0	-270345.0	-4693413.0	662.0
5	17	42	59	998	199.0	-277621.0	-4683925.0	7808.0
5	17	42	59	999	201.0	-292676.0	-4652021.0	20644.0
5	17	43	0	1	202.0	-299956.0	-4640203.0	26224.0
5	17	43	0	3	203.0	-306442.0	-4633252.0	30395.0
5	17	43	0	5	204.0	-312931.0	-4636539.0	31708.0
5	17	43	0	6	205.0	-320156.0	-4644964.0	30811.0
5	17	43	0	7	206.0	-327244.0	-4652157.0	30424.0
5	17	43	0	8	207.0	-333806.0	-4661210.0	30019.0
5	17	43	0	24	208.0	-340321.0	-4669232.0	27607.0
5	17	43	0	25	209.0	-347262.0	-4668840.0	26309.0
5	17	43	0	27	210.0	-352086.0	-4675756.0	25169.0
5	17	43	0	29	211.0	-353871.0	-4683905.0	23914.0
5	17	43	0	31	212.0	-352111.0	-4688386.0	22891.0
5	17	43	0	33	213.0	-339728.0	-4687559.0	22379.0
5	17	43	0	35	214.0	-314575.0	-4680163.0	21325.0
5	17	43	0	36	215.0	-282016.0	-4669953.0	20733.0
5	17	43	0	36	216.0	-246957.0	-4660282.0	20115.0
5	17	43	0	37	217.0	-215350.0	-4647766.0	19394.0
5	17	43	0	37	218.0	-188193.0	-4635168.0	19054.0
5	17	43	0	38	219.0	-166961.0	-4626336.0	19085.0
5	17	43	0	39	220.0	-152044.0	-4630585.0	18469.0
5	17	43	0	39	221.0	-142554.0	-4637266.0	17973.0
5	17	43	0	40	222.0	-138606.0	-4639318.0	17639.0
5	17	43	0	41	224.0	-147985.0	-4639489.0	17670.0
5	17	43	0	41	225.0	-157715.0	-4646778.0	18243.0
5	17	43	0	42	226.0	-166214.0	-4658039.0	18293.0
5	17	43	0	42	227.0	-169313.0	-4671074.0	18359.0
5	17	43	0	43	228.0	-165682.0	-4679025.0	18449.0
5	17	43	0	44	229.0	-156133.0	-4685719.0	18396.0
5	17	43	0	70	230.0	-140524.0	-4693378.0	18739.0
5	17	43	0	72	231.0	-119763.0	-4702784.0	18692.0
5	17	43	0	72	232.0	-97630.0	-4715887.0	18521.0
5	17	43	0	73	233.0	-77751.0	-4727726.0	17659.0
5	17	43	0	74	234.0	-61261.0	-4727494.0	17294.0
5	17	43	0	74	235.0	-50495.0	-4718372.0	17023.0
5	17	43	0	75	236.0	-46745.0	-4712820.0	16404.0
5	17	43	0	75	237.0	-49987.0	-4712917.0	15899.0
5	17	43	0	76	238.0	-57844.0	-4714487.0	16259.0
5	17	43	0	77	239.0	-66958.0	-4717612.0	15652.0
5	17	43	0	77	240.0	-74861.0	-4719875.0	15727.0
5	17	43	0	78	241.0	-80979.0	-4721519.0	15616.0
5	17	43	0	79	242.0	-86233.0	-4725184.0	15193.0
5	17	43	0	79	243.0	-92047.0	-4729802.0	14733.0
5	17	43	0	80	244.0	-98106.0	-4731294.0	14820.0
5	17	43	0	80	246.0	-108317.0	-4701891.0	14035.0
5	17	43	0	81	247.0	-110571.0	-4701326.0	14156.0
5	17	43	0	82	248.0	-111090.0	-4700946.0	13746.0
5	17	43	0	82	249.0	-109662.0	-4698395.0	14166.0
5	17	43	0	83	250.0	-106809.0	-4697497.0	14698.0
5	17	43	0	84	251.0	-103202.0	-4699858.0	14447.0
5	17	43	0	84	252.0	-98807.0	-4702839.0	14166.0
5	17	43	0	113	253.0	-95327.0	-4708407.0	14633.0
5	17	43	0	113	254.0	-93714.0	-4714713.0	14333.0
5	17	43	0	114	255.0	-93814.0	-4720965.0	13867.0
5	17	43	0	115	0.0	-94866.0	-4727632.0	13849.0
5	17	43	0	115	1.0	-94885.0	-4737304.0	13744.0
5	17	43	0	116	2.0	-94474.0	-4749960.0	13221.0
5	17	43	0	117	3.0	-92830.0	-4762359.0	13236.0
5	17	43	0	117	4.0	-90829.0	-4774564.0	12780.0
5	17	43	0	118	5.0	-88289.0	-4784556.0	12364.0
5	17	43	0	119	6.0	-84909.0	-4794447.0	12889.0
5	17	43	0	119	7.0	-80458.0	-4804765.0	13327.0
5	17	43	0	120	8.0	-75454.0	-4818987.0	13075.0
5	17	43	0	121	9.0	-70278.0	-4828626.0	12861.0
5	17	43	0	121	10.0	-65008.0	-4829832.0	12578.0
5	17	43	0	122	11.0	-60127.0	-4828049.0	12084.0
5	17	43	0	122	13.0	-52310.0	-4811847.0	11616.0
5	17	43	0	123	14.0	-49032.0	-4807786.0	10966.0
5	17	43	0	124	15.0	-46672.0	-4803624.0	10105.0
5	17	43	0	124	16.0	-43934.0	-4803278.0	10044.0
5	17	43	0	125	17.0	-41672.0	-4800067.0	10358.0
5	17	43	0	126	18.0	-40166.0	-4787401.0	10096.0
5	17	43	0	158	19.0	-39522.0	-4775874.0	9873.0
5	17	43	0	158	20.0	-40311.0	-4770019.0	9643.0
5	17	43	0	159	21.0	-42186.0	-4746811.0	9511.0
5	17	43	0	160	22.0	-45107.0	-4676777.0	9203.0
5	17	43	0	160	23.0	-49081.0	-4588911.0	9428.0
5	17	43	0	161	24.0	-52687.0	-4520107.0	9228.0
5	17	43	0	161	25.0	-55902.0	-4459523.0	8507.0
5	17	43	0	162	26.0	-58977.0	-4404644.0	8279.0
5	17	43	0	178	27.0	-62669.0	-4361646.0	8489.0
5	17	43	0	179	28.0	-66808.0	-4328795.0	8715.0
5	17	43	0	180	29.0	-70830.0	-4304197.0	8630.0
5	17	43	0	180	30.0	-75457.0	-4289717.0	8696.0
5	17	43	0	181	31.0	-80315.0	-4272496.0	8727.0
5	17	43	0	181	32.0	-85362.0	-4262340.0	8382.0
5	17	43	0	182	33.0	-91297.0	-4255081.0	8122.0
5	17	43	0	182	35.0	-103401.0	-4241844.0	8437.0
5	17	43	0	183	36.0	-108767.0	-4238024.0	8589.0
5	17	43	0	184	37.0	-114757.0	-4234471.0	8142.0
5	17	43	0	184	38.0	-120912.0	-4229190.0	8396.0
5	17	43	0	185	39.0	-126686.0	-4217344.0	8177.0
5	17	43	0	185	40.0	-131574.0	-4199222.0	8274.0
5	17	43	0	186	41.0	-135739.0	-4185036.0	8473.0
5	17	43	0	248	42.0	-138835.0	-4169684.0	8026.0
5	17	43	0	249	43.0	-141518.0	-4157682.0	7717.0
5	17	43	0	250	44.0	-143293.0	-4158208.0	9014.0
5	17	43	0	250	45.0	-144371.0	-4158256.0	11848.0
5	17	43	0	251	46.0	-145166.0	-4156338.0	13307.0
5	17	43	0	251	47.0	-144719.0	-4155555.0	14067.0
5	17	43	0	252	48.0	-143075.0	-4157759.0	14623.0
5	17	43	0	253	49.0	-140096.0	-4159569.0	14538.0
5	17	43	0	253	50.0	-135769.0	-4154333.0	14621.0
5	17	43	0	254	51.0	-130812.0	-4147669.0	14783.0
5	17	43	0	254	52.0	-125997.0	-4152942.0	15396.0
5	17	43	0	255	53.0	-121026.0	-4157648.0	15069.0
5	17	43	0	263	54.0	-117122.0	-4152596.0	14763.0
5	17	43	0	264	55.0	-113908.0	-4148968.0	14941.0
5	17	43	0	265	56.0	-109845.0	-4151360.0	15048.0
5	17	43	0	265	58.0	-102212.0	-4158649.0	14625.0
5	17	43	0	266	80.0	-171239.0	-4200617.0	22353.0
5	17	43	0	266	81.0	-177111.0	-4194091.0	22121.0
5	17	43	0	267	82.0	-181506.0	-4188156.0	21859.0
5	17	43	0	267	83.0	-184632.0	-4186562.0	21865.0
5	17	43	0	268	84.0	-187413.0	-4187289.0	21839.0
5	17	43	0	268	85.0	-189636.0	-4189482.0	22637.0
5	17	43	0	269	86.0	-191239.0	-4189431.0	22824.0
5	17	43	0	293	87.0	-192213.0	-4182849.0	23134.0
5	17	43	0	294	88.0	-192716.0	-4169805.0	23563.0
5	17	43	0	295	89.0	-193231.0	-4158382.0	23934.0
5	17	43	0	295	90.0	-193099.0	-4147496.0	23819.0
5	17	43	0	296	91.0	-192749.0	-4141488.0	23693.0
5	17	43	0	297	92.0	-191688.0	-4136487.0	23932.0
5	17	43	0	297	93.0	-190934.0	-4129553.0	23891.0
5	17	43	0	298	94.0	-190472.0	-4119885.0	24239.0
5	17	43	0	299	95.0	-189072.0	-4117604.0	24716.0
5	17	43	0	299	96.0	-187363.0	-4117707.0	24776.0
5	17	43	0	300	97.0	-185872.0	-4115684.0	25036.0
5	17	43	0	300	98.0	-183901.0	-4115129.0	24433.0
5	17	43	0	301	99.0	-179052.0	-4116912.0	23596.0
5	17	43	0	302	100.0	-170123.0	-4121906.0	23998.0
5	17	43	0	302	101.0	-156423.0	-4127993.0	24484.0
5	17	43	0	303	103.0	-107578.0	-4142486.0	24261.0
5	17	43	0	304	104.0	-77588.0	-4148955.0	24294.0
5	17	43	0	304	105.0	-68751.0	-4155290.0	24379.0
5	17	43	0	305	106.0	-84876.0	-4163429.0	24817.0
5	17	43	0	305	107.0	-111479.0	-4171497.0	24503.0
5	17	43	0	314	108.0	-143981.0	-4179769.0	25053.0
5	17	43	0	339	109.0	-168176.0	-4189136.0	24947.0
5	17	43	0	360	110.0	-183021.0	-4197767.0	24364.0
5	17	43	0	361	111.0	-186984.0	-4205266.0	24716.0
5	17	43	0	361	112.0	-184750.0	-4212068.0	24387.0
5	17	43	0	362	113.0	-181462.0	-4216389.0	24358.0
5	17	43	0	363	114.0	-176092.0	-4223936.0	24481.0
5	17	43	0	363	115.0	-169150.0	-4232995.0	24421.0
5	17	43	0	364	116.0	-161945.0	-4241328.0	24386.0
5	17	43	0	364	117.0	-156021.0	-4248043.0	24503.0
5	17	43	0	365	118.0	-150778.0	-4254325.0	24458.0
5	17	43	0	365	119.0	-147156.0	-4262262.0	23788.0
5	17	43	0	366	120.0	-144506.0	-4270682.0	23808.0
5	17	43	0	367	121.0	-142060.0	-4279270.0	23799.0
5	17	43	0	367	122.0	-140272.0	-4287194.0	23872.0
5	17	43	0	368	123.0	-138304.0	-4290539.0	24008.0
5	17	43	0	368	125.0	-134110.0	-4306196.0	23705.0
5	17	43	0	369	126.0	-131169.0	-4317374.0	23631.0
5	17	43	0	369	127.0	-127942.0	-4326996.0	23764.0
5	17	43	0	370	128.0	-125120.0	-4335107.0	23755.0
5	17	43	0	370	129.0	-123439.0	-4343539.0	23359.0
5	17	43	0	371	130.0	-121817.0	-4352616.0	22640.0
5	17	43	0	383	131.0	-120693.0	-4362284.0	22536.0
5	17	43	0	383	132.0	-121166.0	-4371215.0	22719.0
5	17	43	0	384	133.0	-122421.0	-4379487.0	22543.0
5	17	43	0	385	134.0	-123992.0	-4388674.0	22363.0
5	17	43	0	385	135.0	-126339.0	-4397955.0	22409.0
5	17	43	0	386	136.0	-128919.0	-4407433.0	22421.0
5	17	43	0	386	137.0	-131829.0	-4416532.0	22096.0
5	17	43	0	387	138.0	-134791.0	-4425769.0	22239.0
5	17	43	0	387	139.0	-137457.0	-4435825.0	22872.0
5	17	43	0	388	140.0	-140381.0	-4446872.0	23233.0
5	17	43	0	405	141.0	-143814.0	-4458539.0	22899.0
5	17	43	0	406	142.0	-147619.0	-4468021.0	23049.0
5	17	43	0	406	143.0	-151476.0	-4477537.0	22893.0
5	17	43	0	407	144.0	-155279.0	-4487519.0	22470.0
5	17	43	0	407	145.0	-158907.0	-4497446.0	22763.0
5	17	43	0	408	147.0	-163082.0	-4518236.0	23301.0
5	17	43	0	408	148.0	-164861.0	-4528114.0	23733.0
5	17	43	0	409	149.0	-165902.0	-4541002.0	23901.0
5	17	43	0	410	150.0	-167112.0	-4556321.0	23338.0
5	17	43	0	410	151.0	-169291.0	-4566163.0	23107.0
5	17	43	0	411	152.0	-171876.0	-4577037.0	23161.0
5	17	43	0	411	153.0	-174857.0	-4589821.0	23113.0
5	17	43	0	427	154.0	-178422.0	-4600378.0	23427.0
5	17	43	0	428	155.0	-181842.0	-4610458.0	23423.0
5	17	43	0	429	156.0	-185782.0	-4621279.0	23926.0
5	17	43	0	429	157.0	-190802.0	-4631319.0	23908.0
5	17	43	0	430	158.0	-196686.0	-4642110.0	23474.0
5	17	43	0	430	159.0	-201146.0	-4652691.0	22861.0
5	17	43	0	431	160.0	-204323.0	-4662516.0	22656.0
5	17	43	0	432	161.0	-207482.0	-4673126.0	22379.0
5	17	43	0	432	162.0	-209363.0	-4684055.0	22281.0
5	17	43	0	433	163.0	-211155.0	-4695806.0	21999.0
5	17	43	0	434	164.0	-212562.0	-4709701.0	22069.0
5	17	43	0	434	165.0	-213350.0	-4722317.0	22304.0
5	17	43	0	435	166.0	-213459.0	-4732492.0	22473.0
5	17	43	0	436	167.0	-212469.0	-4743441.0	22657.0
5	17	43	0	436	168.0	-210763.0	-4754905.0	22986.0
5	17	43	0	437	170.0	-206238.0	-4778493.0	22564.0
5	17	43	0	438	171.0	-203810.0	-4790427.0	22733.0
5	17	43	0	438	172.0	-201686.0	-4802496.0	22581.0
5	17	43	0	439	173.0	-199776.0	-4820998.0	22422.0
5	17	43	0	440	174.0	-197672.0	-4838418.0	22186.0
5	17	43	0	440	175.0	-195404.0	-4850973.0	21989.0
5	17	43	0	476	176.0	-193517.0	-4863805.0	22026.0
5	17	43	0	477	177.0	-192401.0	-4877549.0	22380.0
5	17	43	0	477	178.0	-192259.0	-4889931.0	22443.0
5	17	43	0	478	179.0	-191694.0	-4902599.0	22316.0
5	17	43	0	479	180.0	-190484.0	-4915199.0	22608.0
5	17	43	0	479	181.0	-189456.0	-4927444.0	22426.0
5	17	43	0	480	182.0	-189049.0	-4939691.0	22227.0
5	17	43	0	481	183.0	-188531.0	-4952276.0	21885.0
5	17	43	0	481	184.0	-187625.0	-4965240.0	22140.0
5	17	43	0	482	185.0	-186681.0	-4977917.0	22458.0
5	17	43	0	482	186.0	-185774.0	-4989884.0	22385.0
5	17	43	0	483	187.0	-185105.0	-5002209.0	22705.0
5	17	43	0	484	188.0	-185111.0	-5015507.0	22731.0
5	17	43	0	484	189.0	-185311.0	-5029532.0	22880.0
5	17	43	0	485	190.0	-185709.0	-5043721.0	22900.0
5	17	43	0	486	192.0	-186891.0	-5070903.0	22540.0
5	17	43	0	486	193.0	-187673.0	-5083868.0	22123.0
5	17	43	0	487	194.0	-188182.0	-5096122.0	21720.0
5	17	43	0	487	195.0	-188196.0	-5110077.0	22022.0
5	17	43	0	488	196.0	-187937.0	-5124109.0	21858.0
5	17	43	0	488	197.0	-188080.0	-5136906.0	22092.0
5	17	43	0	489	198.0	-188264.0	-5151361.0	22354.0
5	17	43	0	519	199.0	-188189.0	-5166418.0	22395.0
5	17	43	0	520	200.0	-188073.0	-5181144.0	22327.0
5	17	43	0	521	201.0	-187777.0	-5195709.0	22115.0
5	17	43	0	521	202.0	-187279.0	-5209664.0	22289.0
5	17	43	0	522	203.0	-186514.0	-5223261.0	21982.0
5	17	43	0	523	204.0	-185312.0	-5238625.0	21801.0
5	17	43	0	523	205.0	-184159.0	-5253889.0	22354.0
5	17	43	0	524	206.0	-182852.0	-5269832.0	22504.0
5	17	43	0	525	207.0	-181358.0	-5285416.0	22442.0
5	17	43	0	525	208.0	-179723.0	-5303304.0	22494.0
5	17	43	0	526	209.0	-178021.0	-5321539.0	22750.0
5	17	43	0	527	210.0	-176677.0	-5337666.0	22673.0
5	17	43	0	527	211.0	-175077.0	-5354421.0	21881.0
5	17	43	0	528	212.0	-173366.0	-5369636.0	21906.0
5	17	43	0	528	213.0	-171722.0	-5384310.0	22030.0
5	17	43	0	529	215.0	-168169.0	-5418550.0	22691.0
5	17	43	0	530	216.0	-166953.0	-5435055.0	22522.0
5	17	43	0	530	217.0	-166066.0	-5444461.0	22833.0
5	17	43	0	531	218.0	-165675.0	-5455338.0	22719.0
5	17	43	0	532	219.0	-165584.0	-5471504.0	22702.0
5	17	43	0	532	220.0	-165374.0	-5485461.0	22313.0
5	17	43	0	533	221.0	-164888.0	-5499714.0	21660.0
5	17	43	0	563	222.0	-164761.0	-5517011.0	22054.0
5	17	43	0	564	223.0	-164419.0	-5533151.0	21428.0
5	17	43	0	565	224.0	-162887.0	-5548384.0	21254.0
5	17	43	0	565	225.0	-160933.0	-5563979.0	21583.0
5	17	43	0	566	226.0	-158133.0	-5578524.0	21557.0
5	17	43	0	567	227.0	-155109.0	-5591970.0	21596.0
5	17	43	0	576	228.0	-151816.0	-5598686.0	21274.0
5	17	43	0	576	229.0	-148327.0	-5609430.0	21146.0
5	17	43	0	577	230.0	-145194.0	-5623216.0	20854.0
5	17	43	0	577	231.0	-142803.0	-5638796.0	20963.0
5	17	43	0	578	232.0	-141405.0	-5654673.0	20614.0
5	17	43	0	579	233.0	-140291.0	-5669196.0	19772.0
5	17	43	0	579	234.0	-139429.0	-5684291.0	20178.0
5	17	43	0	580	235.0	-139158.0	-5698144.0	20415.0
5	17	43	0	580	236.0	-139370.0	-5701428.0	20454.0
5	17	43	0	581	237.0	-140256.0	-5700768.0	20173.0
5	17	43	0	581	238.0	-141714.0	-5711485.0	19768.0
5	17	43	0	582	239.0	-143490.0	-5724142.0	19133.0
5	17	43	0	583	240.0	-145119.0	-5735444.0	19114.0
5	17	43	0	583	241.0	-147066.0	-5745252.0	18958.0
5	17	43	0	584	242.0	-149702.0	-5752282.0	18739.0
5	17	43	0	584	243.0	-152764.0	-5760392.0	19016.0
5	17	43	0	609	244.0	-155904.0	-5770287.0	19209.0
5	17	43	0	609	245.0	-159095.0	-5783858.0	19754.0
5	17	43	0	610	246.0	-162354.0	-5792539.0	20387.0
5	17	43	0	611	247.0	-165952.0	-5798007.0	20284.0
5	17	43	0	611	248.0	-169534.0	-5806239.0	19989.0
5	17	43	0	612	249.0	-173608.0	-5814821.0	19750.0
5	17	43	0	613	250.0	-178027.0	-5825181.0	19838.0
5	17	43	0	613	251.0	-182106.0	-5837143.0	19753.0
5	17	43	0	614	252.0	-185817.0	-5842934.0	20014.0
5	17	43	0	615	253.0	-189576.0	-5848887.0	20288.0
5	17	43	0	615	254.0	-193164.0	-5858969.0	20141.0
5	17	43	0	616	255.0	-195976.0	-5865014.0	20085.0
5	17	43	0	617	0.0	-198077.0	-5868225.0	20114.0
5	17	43	0	617	1.0	-199641.0	-5869964.0	20386.0
5	17	43	0	618	2.0	-200564.0	-5867331.0	20739.0
5	17	43	0	619	4.0	-200321.0	-5875056.0	21340.0
5	17	43	0	619	5.0	-199371.0	-5874900.0	21489.0
5	17	43	0	620	6.0	-197858.0	-5874835.0	22181.0
5	17	43	0	621	7.0	-196407.0	-5876313.0	22256.0
5	17	43	0	621	8.0	-194753.0	-5876216.0	22264.0
5	17	43	0	622	9.0	-192689.0	-5885873.0	22686.0
5	17	43	0	653	10.0	-190200.0	-5896284.0	22893.0
5	17	43	0	654	11.0	-187924.0	-5891334.0	22908.0
5	17	43	0	654	12.0	-186075.0	-5886347.0	23011.0
5	17	43	0	655	13.0	-183788.0	-5888856.0	22996.0
5	17	43	0	656	14.0	-181171.0	-5891931.0	22574.0
5	17	43	0	656	15.0	-178586.0	-5893372.0	22223.0
5	17	43	0	657	16.0	-175308.0	-5892702.0	22364.0
5	17	43	0	658	17.0	-171999.0	-5893441.0	22056.0
5	17	43	0	659	18.0	-168884.0	-5895414.0	21766.0
5	17	43	0	659	19.0	-166381.0	-5896725.0	22361.0
5	17	43	0	660	20.0	-163651.0	-5892609.0	22742.0
5	17	43	0	661	21.0	-160962.0	-5890147.0	22483.0
5	17	43	0	661	22.0	-158776.0	-5889352.0	22275.0
5	17	43	0	662	23.0	-157352.0	-5881264.0	22351.0
5	17	43	0	663	24.0	-156300.0	-5873057.0	21974.0
5	17	43	0	663	26.0	-154536.0	-5874715.0	22205.0
5	17	43	0	664	27.0	-154014.0	-5887219.0	21828.0
5	17	43	0	665	28.0	-153431.0	-5887996.0	22003.0
5	17	43	0	666	29.0	-153300.0	-5880497.0	22253.0
5	17	43	0	666	30.0	-154479.0	-5874218.0	22689.0
5	17	43	0	667	31.0	-156423.0	-5862571.0	22737.0
5	17	43	0	668	32.0	-158583.0	-5853737.0	22108.0
5	17	43	0	699	33.0	-160626.0	-5852795.0	21924.0
5	17	43	0	700	34.0	-162718.0	-5855813.0	21806.0
5	17	43	0	701	35.0	-164626.0	-5862586.0	21486.0
5	17	43	0	701	36.0	-165796.0	-5871909.0	21389.0
5	17	43	0	702	37.0	-166839.0	-5878710.0	21493.0
5	17	43	0	703	38.0	-167456.0	-5881574.0	21109.0
5	17	43	0	704	39.0	-167985.0	-5887892.0	21160.0
5	17	43	0	704	40.0	-168207.0	-5889627.0	21673.0
5	17	43	0	705	41.0	-168252.0	-5887373.0	21636.0
5	17	43	0	706	42.0	-167983.0	-5884198.0	21603.0
5	17	43	0	706	43.0	-167315.0	-5890604.0	21721.0
5	17	43	0	707	44.0	-166413.0	-5892014.0	22026.0
5	17	43	0	708	45.0	-165666.0	-5891304.0	21359.0
5	17	43	0	709	46.0	-164695.0	-5892228.0	19635.0
5	17	43	0	709	47.0	-163774.0	-5890838.0	18392.0
5	17	43	0	710	49.0	-163156.0	-5887366.0	15418.0
5	17	43	0	710	50.0	-163224.0	-5883976.0	14941.0
5	17	43	0	711	51.0	-163236.0	-5884767.0	14376.0
5	17	43	0	712	52.0	-163236.0	-5889841.0	13451.0
5	17	43	0	712	53.0	-162881.0	-5890429.0	12491.0
5	17	43	0	713	54.0	-162644.0	-5893912.0	10498.0
5	17	43	0	744	55.0	-162093.0	-5892818.0	8561.0
5	17	43	0	744	56.0	-161222.0	-5888859.0	7944.0
5	17	43	0	745	57.0	-160451.0	-5880671.0	9479.0
5	17	43	0	746	58.0	-159710.0	-5865225.0	14160.0
5	17	43	0	747	59.0	-158671.0	-5846903.0	20919.0
5	17	43	0	748	60.0	-157982.0	-5826924.0	27570.0
5	17	43	0	748	61.0	-157483.0	-5813879.0	33747.0
5	17	43	0	749	62.0	-157842.0	-5797733.0	36583.0
5	17	43	0	750	63.0	-159339.0	-5768779.0	37636.0
5	17	43	0	750	64.0	-162089.0	-5738312.0	37639.0
5	17	43	0	751	65.0	-165907.0	-5711256.0	36887.0
5	17	43	0	752	66.0	-170636.0	-5692275.0	36584.0
5	17	43	0	753	67.0	-176072.0	-5678664.0	35891.0
5	17	43	0	753	68.0	-181685.0	-5676142.0	35059.0
5	17	43	0	754	69.0	-186922.0	-5675698.0	33404.0
5	17	43	0	755	71.0	-195134.0	-5669046.0	30462.0
5	17	43	0	755	72.0	-197606.0	-5677100.0	29428.0
5	17	43	0	756	73.0	-198347.0	-5688632.0	27969.0
5	17	43	0	757	74.0	-194842.0	-5705897.0	26348.0
5	17	43	0	757	75.0	-184001.0	-5724299.0	25364.0
5	17	43	0	758	76.0	-168764.0	-5749549.0	24418.0
5	17	43	0	758	77.0	-152124.0	-5774009.0	22896.0
5	17	43	0	788	78.0	-137271.0	-5789851.0	22003.0
5	17	43	0	789	79.0	-126254.0	-5812113.0	21603.0
5	17	43	0	790	80.0	-118477.0	-5838851.0	21099.0
5	17	43	0	790	81.0	-114284.0	-5857469.0	20451.0
5	17	43	0	791	82.0	-113997.0	-5874237.0	19953.0
5	17	43	0	792	83.0	-116042.0	-5888334.0	19508.0
5	17	43	0	793	84.0	-121197.0	-5893439.0	18912.0
5	17	43	0	793	85.0	-128979.0	-5892769.0	18535.0
5	17	43	0	794	86.0	-137786.0	-5890380.0	18253.0
5	17	43	0	795	87.0	-146778.0	-5889216.0	17760.0
5	17	43	0	796	88.0	-156888.0	-5891918.0	17252.0
5	17	43	0	796	89.0	-168177.0	-5892476.0	17394.0
5	17	43	0	797	90.0	-179921.0	-5894834.0	16971.0
5	17	43	0	798	91.0	-191576.0	-5895976.0	16476.0
5	17	43	0	798	92.0	-201254.0	-5898127.0	16539.0
5	17	43	0	799	94.0	-208263.0	-5893742.0	15524.0
5	17	43	0	800	95.0	-204419.0	-5893236.0	15279.0
5	17	43	0	800	96.0	-197033.0	-5892627.0	15362.0
5	17	43	0	801	97.0	-187664.0	-5896362.0	15618.0
5	17	43	0	802	98.0	-178511.0	-5898087.0	15841.0
5	17	43	0	802	99.0	-170912.0	-5898922.0	15731.0
5	17	43	0	833	100.0	-165076.0	-5894685.0	16066.0
5	17	43	0	834	101.0	-160266.0	-5893436.0	16356.0
5	17	43	0	835	102.0	-156851.0	-5894241.0	16254.0
5	17	43	0	836	103.0	-154258.0	-5892476.0	16217.0
5	17	43	0	837	104.0	-152194.0	-5892159.0	16454.0
5	17	43	0	838	105.0	-149709.0	-5890656.0	16074.0
5	17	43	0	838	106.0	-146617.0	-5874399.0	15588.0
5	17	43	0	839	107.0	-143537.0	-5843302.0	15844.0
5	17	43	0	840	108.0	-140753.0	-5817051.0	15962.0
5	17	43	0	841	109.0	-139004.0	-5797942.0	15974.0
5	17	43	0	841	110.0	-138336.0	-5789186.0	15921.0
5	17	43	0	842	111.0	-138333.0	-5788384.0	16122.0
5	17	43	0	843	112.0	-138498.0	-5782677.0	15824.0
5	17	43	0	844	113.0	-138842.0	-5773400.0	15788.0
5	17	43	0	844	114.0	-139351.0	-5761952.0	15145.0
5	17	43	0	845	116.0	-141451.0	-5714869.0	14348.0
5	17	43	0	846	117.0	-143232.0	-5688585.0	13836.0
5	17	43	0	846	118.0	-145502.0	-5663227.0	13888.0
5	17	43	0	847	119.0	-147724.0	-5630466.0	14196.0
5	17	43	0	847	120.0	-149706.0	-5607734.0	14681.0
5	17	43	0	848	121.0	-151828.0	-5584834.0	14674.0
5	17	43	0	879	122.0	-153816.0	-5553961.0	14439.0
5	17	43	0	880	123.0	-155298.0	-5523642.0	14168.0
5	17	43	0	881	124.0	-156736.0	-5494049.0	13798.0
5	17	43	0	881	125.0	-157788.0	-5466332.0	13498.0
5	17	43	0	882	126.0	-158187.0	-5410944.0	13198.0
5	17	43	0	883	127.0	-157712.0	-5362577.0	13362.0
5	17	43	0	884	128.0	-156854.0	-5320870.0	12944.0
5	17	43	0	885	129.0	-155798.0	-5275176.0	13041.0
5	17	43	0	885	130.0	-154434.0	-5247696.0	12796.0
5	17	43	0	886	131.0	-152604.0	-5237689.0	12493.0
5	17	43	0	887	132.0	-150720.0	-5237345.0	12204.0
5	17	43	0	888	133.0	-148708.0	-5241551.0	11653.0
5	17	43	0	888	134.0	-147048.0	-5246671.0	11009.0
5	17	43	0	889	135.0	-145814.0	-5251069.0	10604.0
5	17	43	0	890	136.0	-144719.0	-5253981.0	10383.0
5	17	43	0	890	139.0	-141352.0	-5266710.0	9574.0
5	17	43	0	891	140.0	-141278.0	-5261487.0	10027.0
5	17	43	0	892	141.0	-141061.0	-5251607.0	9836.0
5	17	43	0	892	142.0	-141309.0	-5252154.0	9587.0
5	17	43	0	893	143.0	-142420.0	-5254609.0	8936.0
5	17	43	0	894	144.0	-144775.0	-5252362.0	8850.0
5	17	43	0	923	145.0	-152245.0	-5253309.0	8713.0
5	17	43	0	924	146.0	-151634.0	-5255788.0	8869.0
5	17	43	0	925	147.0	-152709.0	-5255936.0	8316.0
5	17	43	0	925	148.0	-152818.0	-5246148.0	8104.0
5	17	43	0	926	149.0	-154583.0	-5222607.0	8408.0
5	17	43	0	927	150.0	-152831.0	-5203552.0	8018.0
5	17	43	0	928	151.0	-151239.0	-5193432.0	7516.0
5	17	43	0	929	152.0	-150842.0	-5192270.0	7553.0
5	17	43	0	929	153.0	-151109.0	-5195947.0	6954.0
5	17	43	0	930	154.0	-151162.0	-5189092.0	6623.0
5	17	43	0	931	155.0	-150593.0	-5180276.0	6087.0
5	17	43	0	932	156.0	-150630.0	-5174021.0	5926.0
5	17	43	0	932	157.0	-151267.0	-5168388.0	5544.0
5	17	43	0	933	158.0	-152562.0	-5161377.0	5339.0
5	17	43	0	934	159.0	-154422.0	-5152444.0	4351.0
5	17	43	0	934	161.0	-158755.0	-5140123.0	3548.0
5	17	43	0	935	162.0	-159507.0	-5124111.0	3455.0
5	17	43	0	936	163.0	-158936.0	-5103659.0	3476.0
5	17	43	0	936	164.0	-158033.0	-5077379.0	3124.0
5	17	43	0	937	165.0	-157037.0	-5051192.0	2527.0
5	17	43	0	938	166.0	-156273.0	-5030362.0	2395.0
5	17	43	0	968	167.0	-155824.0	-5017387.0	2430.0
5	17	43	0	969	168.0	-155758.0	-5013716.0	2016.0
5	17	43	0	970	169.0	-156586.0	-5013146.0	1424.0
5	17	43	0	971	170.0	-157740.0	-5015449.0	1325.0
5	17	43	0	971	171.0	-158529.0	-5017407.0	1973.0
5	17	43	0	972	172.0	-159312.0	-5017348.0	1518.0
5	17	43	0	973	173.0	-159931.0	-5016258.0	1580.0
5	17	43	0	974	174.0	-160826.0	-5023211.0	1413.0
5	17	43	0	974	175.0	-162204.0	-5029517.0	1077.0
5	17	43	0	975	176.0	-164805.0	-5031964.0	1674.0
5	17	43	0	976	177.0	-167594.0	-5036686.0	2203.0
5	17	43	0	977	178.0	-170204.0	-5041801.0	2406.0
5	17	43	0	978	179.0	-173032.0	-5045554.0	2581.0
5	17	43	0	979	180.0	-175227.0	-5051222.0	3624.0
5	17	43	0	980	181.0	-176846.0	-5056714.0	4324.0
5	17	43	0	980	183.0	-179561.0	-5058871.0	5026.0
5	17	43	0	981	184.0	-180572.0	-5058239.0	5118.0
5	17	43	0	982	185.0	-181367.0	-5057746.0	5627.0
5	17	43	0	982	186.0	-181838.0	-5055964.0	6175.0
5	17	43	0	983	187.0	-181795.0	-5054283.0	6583.0
5	17	43	0	983	188.0	-181979.0	-5053464.0	6805.0
5	17	43	0	984	189.0	-181929.0	-5053951.0	7083.0
5	17	43	1	13	190.0	-181124.0	-5055770.0	7632.0
5	17	43	1	14	191.0	-180412.0	-5057216.0	8520.0
5	17	43	1	15	192.0	-179871.0	-5056569.0	8992.0
5	17	43	1	16	193.0	-178783.0	-5054877.0	9308.0
5	17	43	1	17	194.0	-177170.0	-5055071.0	9490.0
5	17	43	1	17	195.0	-175525.0	-5055265.0	10056.0
5	17	43	1	18	196.0	-174181.0	-5046945.0	10988.0
5	17	43	1	19	197.0	-172242.0	-5037436.0	11289.0
5	17	43	1	20	198.0	-170659.0	-5032706.0	11525.0
5	17	43	1	20	199.0	-169624.0	-5031664.0	12307.0
5	17	43	1	21	200.0	-168168.0	-5029261.0	13353.0
5	17	43	1	22	201.0	-167121.0	-5031635.0	13439.0
5	17	43	1	22	202.0	-166495.0	-5035817.0	13716.0
5	17	43	1	23	203.0	-165317.0	-5038664.0	13611.0
5	17	43	1	24	204.0	-164306.0	-5042099.0	13896.0
5	17	43	1	24	206.0	-164131.0	-5047771.0	14099.0
5	17	43	1	25	207.0	-164221.0	-5045607.0	14414.0
5	17	43	1	26	208.0	-164681.0	-5043725.0	14605.0
5	17	43	1	27	209.0	-165081.0	-5042394.0	15031.0
5	17	43	1	27	210.0	-164636.0	-5040296.0	15634.0
5	17	43	1	28	211.0	-163179.0	-5038287.0	15569.0
5	17	43	1	59	212.0	-160363.0	-5034276.0	15915.0
5	17	43	1	60	213.0	-155579.0	-5027746.0	15824.0
5	17	43	1	61	214.0	-148445.0	-5022953.0	16199.0
5	17	43	1	61	215.0	-136576.0	-5021639.0	16370.0
5	17	43	1	62	216.0	-116296.0	-5021132.0	16028.0
5	17	43	1	63	217.0	-86771.0	-5017683.0	16151.0
5	17	43	1	64	218.0	-57260.0	-5014248.0	17178.0
5	17	43	1	65	219.0	-48526.0	-5011614.0	17414.0
5	17	43	1	66	220.0	-65700.0	-5007794.0	17438.0
5	17	43	1	67	221.0	-99548.0	-5005334.0	17969.0
5	17	43	1	68	222.0	-143737.0	-5004117.0	18258.0
5	17	43	1	68	223.0	-177074.0	-5002996.0	18414.0
5	17	43	1	69	224.0	-198022.0	-5000625.0	18104.0
5	17	43	1	70	225.0	-203661.0	-4998723.0	18091.0
5	17	43	1	70	226.0	-201429.0	-4998724.0	18119.0
5	17	43	1	71	228.0	-197069.0	-5004234.0	18493.0
5	17	43	1	72	229.0	-191827.0	-5001919.0	17990.0
5	17	43	1	72	230.0	-184444.0	-4992667.0	18328.0
5	17	43	1	73	231.0	-177289.0	-4983517.0	18057.0
5	17	43	1	73	232.0	-171401.0	-4973802.0	17764.0
5	17	43	1	74	233.0	-167090.0	-4965922.0	17953.0
5	17	43	1	75	234.0	-163446.0	-4963392.0	18098.0
5	17	43	1	103	235.0	-160387.0	-4961292.0	18024.0
5	17	43	1	104	236.0	-158102.0	-4961663.0	18174.0
5	17	43	1	105	237.0	-155700.0	-4962201.0	18391.0
5	17	43	1	105	238.0	-152916.0	-4962022.0	18196.0
5	17	43	1	106	239.0	-148942.0	-4960197.0	18384.0
5	17	43	1	106	240.0	-144091.0	-4956286.0	19012.0
5	17	43	1	107	241.0	-139246.0	-4949838.0	18926.0
5	17	43	1	108	242.0	-134380.0	-4941576.0	18913.0
5	17	43	1	108	243.0	-129619.0	-4927320.0	18527.0
5	17	43	1	109	244.0	-124805.0	-4913728.0	18247.0
5	17	43	1	109	245.0	-119807.0	-4912093.0	17951.0
5	17	43	1	110	246.0	-114980.0	-4908089.0	18280.0
5	17	43	1	111	247.0	-110777.0	-4899414.0	18814.0
5	17	43	1	111	248.0	-107752.0	-4892934.0	18951.0
5	17	43	1	112	249.0	-106675.0	-4887649.0	19076.0
5	17	43	1	112	251.0	-110393.0	-4877486.0	19317.0
5	17	43	1	113	252.0	-114231.0	-4874513.0	19566.0
5	17	43	1	113	253.0	-118657.0	-4866484.0	19487.0
5	17	43	1	114	254.0	-123533.0	-4858514.0	19579.0
5	17	43	1	122	255.0	-128053.0	-4852520.0	19306.0
5	17	43	1	123	0.0	-131676.0	-4845295.0	19497.0
5	17	43	1	148	1.0	-134139.0	-4840534.0	19962.0
5	17	43	1	149	2.0	-136003.0	-4838368.0	20114.0
5	17	43	1	150	3.0	-137540.0	-4836294.0	19991.0
5	17	43	1	150	4.0	-139634.0	-4836739.0	20293.0
5	17	43	1	151	5.0	-141828.0	-4839616.0	20194.0
5	17	43	1	151	6.0	-144723.0	-4839686.0	20364.0
5	17	43	1	152	7.0	-147859.0	-4837234.0	20083.0
5	17	43	1	153	8.0	-151174.0	-4833819.0	20040.0
5	17	43	1	153	9.0	-154994.0	-4828189.0	20012.0
5	17	43	1	154	10.0	-159086.0	-4820837.0	19830.0
5	17	43	1	154	11.0	-162121.0	-4816341.0	19714.0
5	17	43	1	155	12.0	-164661.0	-4813277.0	19819.0
5	17	43	1	156	13.0	-166734.0	-4810857.0	19897.0
5	17	43	1	156	14.0	-168102.0	-4807322.0	19861.0
5	17	43	1	157	15.0	-169208.0	-4802469.0	19914.0
5	17	43	1	157	17.0	-171317.0	-4797707.0	20348.0
5	17	43	1	158	18.0	-172549.0	-4797491.0	20266.0
5	17	43	1	158	19.0	-173786.0	-4794293.0	20263.0
5	17	43	1	159	20.0	-175067.0	-4792812.0	20095.0
5	17	43	1	160	21.0	-176433.0	-4799084.0	20537.0
5	17	43	1	160	22.0	-177916.0	-4812517.0	21173.0
5	17	43	1	161	23.0	-179108.0	-4814703.0	21238.0
5	17	43	1	194	24.0	-179811.0	-4811960.0	21100.0
5	17	43	1	194	25.0	-180982.0	-4806008.0	21276.0
5	17	43	1	195	26.0	-182176.0	-4799716.0	21171.0
5	17	43	1	196	27.0	-183123.0	-4793841.0	20891.0
5	17	43	1	196	28.0	-184372.0	-4788626.0	20819.0
5	17	43	1	197	29.0	-185504.0	-4784272.0	20569.0
5	17	43	1	197	30.0	-186435.0	-4782237.0	20935.0
5	17	43	1	238	31.0	-187425.0	-4781337.0	20312.0
5	17	43	1	239	32.0	-188351.0	-4777457.0	20524.0
5	17	43	1	240	33.0	-189104.0	-4770627.0	20913.0
5	17	43	1	240	34.0	-189694.0	-4762219.0	21141.0
5	17	43	1	241	35.0	-189906.0	-4746388.0	21214.0
5	17	43	1	242	36.0	-189966.0	-4722073.0	20906.0
5	17	43	1	242	37.0	-189710.0	-4700352.0	20586.0
5	17	43	1	243	38.0	-189018.0	-4680742.0	20646.0
5	17	43	1	243	40.0	-187097.0	-4637272.0	21393.0
5	17	43	1	244	41.0	-185619.0	-4618856.0	21024.0
5	17	43	1	246	42.0	-183761.0	-4603954.0	21244.0
5	17	43	1	247	43.0	-181964.0	-4595915.0	21953.0
5	17	43	1	248	44.0	-180576.0	-4591668.0	22429.0
5	17	43	1	248	45.0	-179427.0	-4585058.0	22308.0
5	17	43	1	249	46.0	-178596.0	-4580463.0	22378.0
5	17	43	1	249	47.0	-177973.0	-4584527.0	22576.0
5	17	43	1	250	63.0	-186853.0	-4665212.0	26072.0
5	17	43	1	251	64.0	-186999.0	-4666113.0	26122.0
5	17	43	1	251	65.0	-186755.0	-4667066.0	25824.0
5	17	43	1	252	66.0	-186448.0	-4667948.0	26176.0
5	17	43	1	252	67.0	-186133.0	-4669612.0	26171.0
5	17	43	1	253	68.0	-185946.0	-4672836.0	26513.0
5	17	43	1	284	69.0	-185822.0	-4679149.0	26887.0
5	17	43	1	285	70.0	-185619.0	-4684572.0	26946.0
5	17	43	1	285	71.0	-185206.0	-4687713.0	26702.0
5	17	43	1	286	72.0	-184489.0	-4691206.0	27403.0
5	17	43	1	287	73.0	-183747.0	-4684299.0	27635.0
5	17	43	1	287	74.0	-183002.0	-4677047.0	27706.0
5	17	43	1	288	75.0	-182114.0	-4677027.0	27754.0
5	17	43	1	288	76.0	-181029.0	-4676287.0	27713.0
5	17	43	1	289	77.0	-179862.0	-4678872.0	27661.0
5	17	43	1	290	78.0	-179002.0	-4681708.0	28012.0
5	17	43	1	291	79.0	-177902.0	-4684109.0	28058.0
5	17	43	1	291	80.0	-177027.0	-4689110.0	28005.0
5	17	43	1	292	81.0	-176267.0	-4702913.0	27994.0
5	17	43	1	293	82.0	-175461.0	-4715831.0	28116.0
5	17	43	1	293	83.0	-174766.0	-4721856.0	27866.0
5	17	43	1	294	85.0	-171549.0	-4729442.0	27752.0
5	17	43	1	294	86.0	-169667.0	-4728175.0	27390.0
5	17	43	1	295	87.0	-167840.0	-4723021.0	26413.0
5	17	43	1	295	88.0	-166854.0	-4726163.0	26415.0
5	17	43	1	296	89.0	-166036.0	-4733406.0	27261.0
5	17	43	1	297	90.0	-165089.0	-4734517.0	27520.0
5	17	43	1	329	91.0	-164115.0	-4738539.0	27279.0
5	17	43	1	329	92.0	-163229.0	-4746107.0	27763.0
5	17	43	1	330	93.0	-162624.0	-4749796.0	28143.0
5	17	43	1	331	94.0	-162286.0	-4747123.0	28559.0
5	17	43	1	331	95.0	-161879.0	-4737594.0	28873.0
5	17	43	1	332	96.0	-161190.0	-4725806.0	28518.0
5	17	43	1	332	97.0	-160784.0	-4710020.0	28436.0
5	17	43	1	333	98.0	-161292.0	-4693659.0	28114.0
5	17	43	1	333	99.0	-161796.0	-4684806.0	27877.0
5	17	43	1	334	100.0	-161488.0	-4682269.0	27973.0
5	17	43	1	335	101.0	-160659.0	-4681631.0	27827.0
5	17	43	1	335	102.0	-159658.0	-4686100.0	27584.0
5	17	43	1	336	103.0	-158884.0	-4693946.0	27540.0
5	17	43	1	336	104.0	-158374.0	-4699017.0	27616.0
5	17	43	1	337	105.0	-157575.0	-4704612.0	27659.0
5	17	43	1	337	107.0	-156456.0	-4717214.0	28223.0
5	17	43	1	338	108.0	-156522.0	-4727676.0	28323.0
5	17	43	1	339	109.0	-156712.0	-4742050.0	28299.0
5	17	43	1	339	110.0	-157042.0	-4752374.0	29183.0
5	17	43	1	340	111.0	-157351.0	-4762058.0	29434.0
5	17	43	1	340	112.0	-158020.0	-4773257.0	29074.0
5	17	43	1	341	113.0	-158811.0	-4783252.0	29624.0
5	17	43	1	374	114.0	-159860.0	-4791724.0	29588.0
5	17	43	1	375	115.0	-161054.0	-4800453.0	28955.0
5	17	43	1	386	116.0	-162014.0	-4809166.0	29037.0
5	17	43	1	387	117.0	-162669.0	-4822406.0	29443.0
5	17	43	1	388	118.0	-163646.0	-4836142.0	28949.0
5	17	43	1	388	119.0	-164781.0	-4844511.0	28602.0
5	17	43	1	389	120.0	-166398.0	-4852464.0	29366.0
5	17	43	1	389	121.0	-168484.0	-4863840.0	30246.0
5	17	43	1	390	122.0	-170260.0	-4876282.0	30486.0
5	17	43	1	390	123.0	-171926.0	-4888359.0	30653.0
5	17	43	1	391	124.0	-173743.0	-4900055.0	30653.0
5	17	43	1	392	125.0	-174711.0	-4911123.0	31078.0
5	17	43	1	392	126.0	-174921.0	-4920250.0	31298.0
5	17	43	1	393	127.0	-174523.0	-4927444.0	31150.0
5	17	43	1	393	128.0	-174204.0	-4935444.0	30554.0
5	17	43	1	394	130.0	-172132.0	-4960209.0	30594.0
5	17	43	1	394	131.0	-170672.0	-4969763.0	30908.0
5	17	43	1	395	132.0	-169289.0	-4980883.0	31294.0
5	17	43	1	395	133.0	-167689.0	-4991217.0	31257.0
5	17	43	1	396	134.0	-166214.0	-5001446.0	30934.0
5	17	43	1	396	135.0	-165217.0	-5011351.0	31056.0
5	17	43	1	419	136.0	-164617.0	-5021587.0	31084.0
5	17	43	1	419	137.0	-163868.0	-5032786.0	30488.0
5	17	43	1	420	138.0	-162877.0	-5042736.0	30519.0
5	17	43	1	421	139.0	-161925.0	-5052017.0	30919.0
5	17	43	1	421	140.0	-160959.0	-5056764.0	30419.0
5	17	43	1	422	141.0	-159936.0	-5064601.0	30271.0
5	17	43	1	422	142.0	-159230.0	-5071942.0	30829.0
5	17	43	1	423	143.0	-158184.0	-5080973.0	30778.0
5	17	43	1	424	144.0	-156769.0	-5092985.0	30954.0
5	17	43	1	424	145.0	-155655.0	-5105459.0	31971.0
5	17	43	1	425	146.0	-154767.0	-5118169.0	32192.0
5	17	43	1	426	147.0	-154367.0	-5130909.0	32197.0
5	17	43	1	426	148.0	-154219.0	-5144332.0	32458.0
5	17	43	1	427	149.0	-153715.0	-5157376.0	32538.0
5	17	43	1	428	150.0	-152799.0	-5170540.0	32247.0
5	17	43	1	428	152.0	-151094.0	-5195367.0	32606.0
5	17	43	1	429	153.0	-150292.0	-5207421.0	32340.0
5	17	43	1	429	154.0	-149981.0	-5219879.0	31916.0
5	17	43	1	430	155.0	-149431.0	-5232158.0	31848.0
5	17	43	1	430	156.0	-148801.0	-5244956.0	32273.0
5	17	43	1	431	157.0	-147427.0	-5256771.0	32461.0
5	17	43	1	464	158.0	-146075.0	-5265695.0	32675.0
5	17	43	1	465	159.0	-144825.0	-5272527.0	32385.0
5	17	43	1	465	160.0	-144272.0	-5275734.0	31908.0
5	17	43	1	466	161.0	-143554.0	-5271364.0	31128.0
5	17	43	1	466	162.0	-142841.0	-5269051.0	29696.0
5	17	43	1	467	163.0	-143151.0	-5268592.0	28216.0
5	17	43	1	468	164.0	-144141.0	-5263987.0	26310.0
5	17	43	1	468	165.0	-144996.0	-5262061.0	25586.0
5	17	43	1	469	166.0	-145740.0	-5264881.0	25391.0
5	17	43	1	469	167.0	-146481.0	-5269331.0	24618.0
5	17	43	1	470	168.0	-147246.0	-5273640.0	23975.0
5	17	43	1	471	169.0	-147977.0	-5280064.0	22636.0
5	17	43	1	472	170.0	-148202.0	-5287527.0	20288.0
5	17	43	1	472	171.0	-147804.0	-5301366.0	19364.0
5	17	43	1	473	172.0	-147114.0	-5312255.0	19995.0
5	17	43	1	474	175.0	-147891.0	-5327049.0	32846.0
5	17	43	1	474	176.0	-149265.0	-5331988.0	39058.0
5	17	43	1	475	177.0	-151757.0	-5339763.0	44556.0
5	17	43	1	475	178.0	-155145.0	-5348971.0	47070.0
5	17	43	1	476	179.0	-159554.0	-5358190.0	47614.0
5	17	43	1	476	180.0	-165919.0	-5365605.0	47091.0
5	17	43	1	508	181.0	-173616.0	-5373527.0	46690.0
5	17	43	1	508	182.0	-181385.0	-5383419.0	45755.0
5	17	43	1	509	183.0	-189264.0	-5396303.0	43820.0
5	17	43	1	510	184.0	-197029.0	-5410645.0	41234.0
5	17	43	1	553	185.0	-203916.0	-5424060.0	39109.0
5	17	43	1	554	186.0	-209521.0	-5437561.0	37305.0
5	17	43	1	555	187.0	-210589.0	-5451654.0	35414.0
5	17	43	1	556	188.0	-200429.0	-5461411.0	33548.0
5	17	43	1	598	189.0	-180956.0	-5470691.0	32298.0
5	17	43	1	599	190.0	-156255.0	-5479377.0	31237.0
5	17	43	1	600	191.0	-134216.0	-5486676.0	30955.0
5	17	43	1	601	192.0	-119547.0	-5493458.0	29803.0
5	17	43	1	602	193.0	-112878.0	-5496575.0	28624.0
5	17	43	1	603	194.0	-114811.0	-5497305.0	28143.0
5	17	43	1	604	195.0	-124021.0	-5503019.0	27619.0
5	17	43	1	604	197.0	-154251.0	-5497919.0	26434.0
5	17	43	1	605	198.0	-172626.0	-5484140.0	25749.0
5	17	43	1	606	199.0	-192796.0	-5456074.0	25964.0
5	17	43	1	606	200.0	-212678.0	-5432059.0	26175.0
5	17	43	1	607	201.0	-228580.0	-5414143.0	26126.0
5	17	43	1	608	220.0	-139997.0	-4503441.0	22604.0
5	17	43	1	608	221.0	-138066.0	-4487187.0	22749.0
5	17	43	1	609	222.0	-135607.0	-4475689.0	22745.0
5	17	43	1	610	223.0	-132631.0	-4460703.0	22020.0
5	17	43	1	610	242.0	-157395.0	-4025162.0	19464.0
5	17	43	1	611	243.0	-159073.0	-4010549.0	19344.0
5	17	43	1	611	244.0	-160743.0	-3998752.0	19041.0
5	17	43	1	612	245.0	-161932.0	-3985275.0	18157.0
5	17	43	1	613	246.0	-162556.0	-3975544.0	18120.0
5	17	43	1	613	247.0	-162310.0	-3967917.0	17974.0
5	17	43	1	614	248.0	-161322.0	-3959845.0	17131.0
5	17	43	1	643	249.0	-160540.0	-3950034.0	17098.0
5	17	43	1	691	250.0	-159526.0	-3944191.0	17324.0
5	17	43	1	734	251.0	-157942.0	-3942656.0	17241.0
5	17	43	1	734	252.0	-156542.0	-3939586.0	17214.0
5	17	43	1	735	253.0	-155007.0	-3934836.0	17241.0
5	17	43	1	736	254.0	-153307.0	-3930699.0	16694.0
5	17	43	1	736	255.0	-151535.0	-3926521.0	16325.0
5	17	43	1	737	0.0	-150199.0	-3920899.0	16229.0
5	17	43	1	737	1.0	-149297.0	-3914587.0	15760.0
5	17	43	1	738	2.0	-147749.0	-3908575.0	15156.0
5	17	43	1	739	3.0	-146107.0	-3899867.0	15014.0
5	17	43	1	739	4.0	-144803.0	-3884097.0	14729.0
5	17	43	1	740	5.0	-143394.0	-3872375.0	14630.0
5	17	43	1	741	6.0	-141929.0	-3862965.0	14893.0
5	17	43	1	741	7.0	-141087.0	-3854741.0	14715.0
5	17	43	1	742	8.0	-140824.0	-3848602.0	14411.0
5	17	43	1	742	31.0	-164921.0	-3590613.0	10590.0
5	17	43	1	743	53.0	-152538.0	-3508811.0	20005.0
5	17	43	1	744	54.0	-152711.0	-3505461.0	19878.0
5	17	43	1	744	55.0	-153283.0	-3500944.0	20136.0
5	17	43	1	745	56.0	-154606.0	-3495771.0	21120.0
5	17	43	1	745	57.0	-155635.0	-3490416.0	21218.0
5	17	43	1	746	58.0	-156173.0	-3485865.0	20962.0
5	17	43	1	746	59.0	-156824.0	-3480998.0	21078.0
5	17	43	1	778	60.0	-157589.0	-3476858.0	21540.0
5	17	43	1	778	61.0	-158634.0	-3474420.0	21654.0
5	17	43	1	779	62.0	-160074.0	-3471314.0	21844.0
5	17	43	1	780	63.0	-162119.0	-3468510.0	22193.0
5	17	43	1	781	64.0	-163874.0	-3464860.0	22202.0
5	17	43	1	781	65.0	-165481.0	-3463882.0	22488.0
5	17	43	1	782	66.0	-167622.0	-3464951.0	22611.0
5	17	43	1	782	67.0	-169975.0	-3465399.0	22774.0
5	17	43	1	783	68.0	-172487.0	-3464650.0	22955.0
5	17	43	1	784	69.0	-175042.0	-3464933.0	22682.0
5	17	43	1	784	70.0	-177817.0	-3471317.0	22579.0
5	17	43	1	785	71.0	-180797.0	-3475728.0	22314.0
5	17	43	1	786	72.0	-183712.0	-3473884.0	22630.0
5	17	43	1	786	73.0	-186132.0	-3473318.0	22830.0
5	17	43	1	787	74.0	-187329.0	-3471630.0	23123.0
5	17	43	1	787	76.0	-186187.0	-3458169.0	23669.0
5	17	43	1	788	77.0	-182453.0	-3451012.0	23526.0
5	17	43	1	789	78.0	-176236.0	-3444866.0	23908.0
5	17	43	1	789	79.0	-166380.0	-3426607.0	24075.0
5	17	43	1	790	80.0	-151202.0	-3398259.0	23886.0
5	17	43	1	790	81.0	-127005.0	-3369318.0	23762.0
5	17	43	1	824	82.0	-92837.0	-3344079.0	24343.0
5	17	43	1	824	83.0	-65494.0	-3329539.0	24031.0
5	17	43	1	826	84.0	-64039.0	-3309644.0	24374.0
5	17	43	1	827	85.0	-82319.0	-3290036.0	24878.0
5	17	43	1	827	86.0	-119164.0	-3270859.0	24828.0
5	17	43	1	828	87.0	-156506.0	-3254139.0	24659.0
5	17	43	1	829	88.0	-180407.0	-3236076.0	24833.0
5	17	43	1	829	89.0	-189906.0	-3215834.0	24437.0
5	17	43	1	830	90.0	-187173.0	-3198450.0	23878.0
5	17	43	1	830	91.0	-183069.0	-3181200.0	23953.0
5	17	43	1	831	92.0	-178784.0	-3169286.0	24331.0
5	17	43	1	832	93.0	-172085.0	-3161769.0	24009.0
5	17	43	1	832	94.0	-164034.0	-3153762.0	24122.0
5	17	43	1	833	95.0	-155922.0	-3141519.0	24229.0
5	17	43	1	834	96.0	-148961.0	-3120041.0	24025.0
5	17	43	1	834	98.0	-139881.0	-3074357.0	23981.0
5	17	43	1	835	99.0	-136495.0	-3052424.0	23868.0
5	17	43	1	835	100.0	-133398.0	-3033046.0	23576.0
5	17	43	1	836	101.0	-130379.0	-3014802.0	23293.0
5	17	43	1	837	102.0	-126849.0	-2996460.0	23549.0
5	17	43	1	837	103.0	-122407.0	-2978671.0	23534.0
5	17	43	1	838	104.0	-117974.0	-2959199.0	23359.0
5	17	43	1	868	105.0	-113967.0	-2940567.0	23116.0
5	17	43	1	869	106.0	-110398.0	-2924136.0	23136.0
5	17	43	1	869	107.0	-108270.0	-2903853.0	22883.0
5	17	43	1	870	108.0	-106966.0	-2882801.0	22281.0
5	17	43	1	870	109.0	-106279.0	-2861351.0	22421.0
5	17	43	1	871	110.0	-105622.0	-2840660.0	22759.0
5	17	43	1	914	111.0	-104847.0	-2823914.0	22256.0
5	17	43	1	915	112.0	-104112.0	-2807604.0	21951.0
5	17	43	1	915	113.0	-102950.0	-2792870.0	22438.0
5	17	43	1	916	114.0	-102419.0	-2778435.0	22394.0
5	17	43	1	917	115.0	-103786.0	-2766533.0	22704.0
5	17	43	1	917	116.0	-106884.0	-2755882.0	22791.0
5	17	43	1	918	117.0	-111570.0	-2744347.0	23068.0
5	17	43	1	919	118.0	-117684.0	-2730553.0	23528.0
5	17	43	1	919	119.0	-124951.0	-2714621.0	23628.0
5	17	43	1	920	121.0	-137637.0	-2686319.0	23153.0
5	17	43	1	920	122.0	-143670.0	-2691380.0	22949.0
5	17	43	1	921	123.0	-148512.0	-2687789.0	23264.0
5	17	43	1	922	124.0	-152964.0	-2682431.0	23529.0
5	17	43	1	922	125.0	-156831.0	-2677642.0	24079.0
5	17	43	1	923	126.0	-159663.0	-2669172.0	23928.0
5	17	43	1	924	143.0	-190279.0	-2443171.0	23187.0
5	17	43	1	924	144.0	-192937.0	-2432187.0	23350.0
5	17	43	1	925	145.0	-195461.0	-2427031.0	23347.0
5	17	43	1	925	146.0	-197473.0	-2423731.0	23021.0
5	17	43	1	926	147.0	-199249.0	-2418655.0	22956.0
5	17	43	1	926	148.0	-200933.0	-2409557.0	23391.0
5	17	43	1	927	149.0	-202139.0	-2403986.0	23444.0
5	17	43	1	960	150.0	-202859.0	-2399009.0	22522.0
5	17	43	1	960	151.0	-202825.0	-2390935.0	22833.0
5	17	43	1	961	152.0	-202609.0	-2386371.0	23311.0
5	17	43	1	962	153.0	-201945.0	-2385325.0	23228.0
5	17	43	1	962	154.0	-200632.0	-2384475.0	23526.0
5	17	43	1	963	155.0	-199080.0	-2384831.0	23743.0
5	17	43	1	964	156.0	-197570.0	-2387733.0	23326.0
5	17	43	1	964	157.0	-195906.0	-2390096.0	23314.0
5	17	43	1	965	158.0	-194127.0	-2391194.0	23119.0
5	17	43	1	965	159.0	-192803.0	-2390522.0	22421.0
5	17	43	1	966	160.0	-191423.0	-2390599.0	21456.0
5	17	43	1	967	161.0	-188930.0	-2390586.0	21159.0
5	17	43	1	967	162.0	-186359.0	-2391499.0	21159.0
5	17	43	1	968	163.0	-184585.0	-2392989.0	21661.0
5	17	43	1	969	164.0	-183557.0	-2392542.0	21773.0
5	17	43	1	969	166.0	-178257.0	-2391226.0	22036.0
5	17	43	1	970	167.0	-174794.0	-2399771.0	21909.0
5	17	43	1	970	168.0	-171360.0	-2408813.0	21903.0
5	17	43	1	971	169.0	-168239.0	-2407509.0	21638.0
5	17	43	1	972	170.0	-166459.0	-2407939.0	21450.0
5	17	43	1	972	171.0	-165221.0	-2410229.0	21461.0
5	17	43	2	4	172.0	-164065.0	-2409923.0	20979.0
5	17	43	2	4	173.0	-163044.0	-2408357.0	21273.0
5	17	43	2	5	174.0	-161991.0	-2406616.0	21520.0
5	17	43	2	6	175.0	-161721.0	-2404445.0	21798.0
5	17	43	2	6	176.0	-162141.0	-2402737.0	21948.0
5	17	43	2	7	177.0	-163211.0	-2401397.0	21856.0
5	17	43	2	8	178.0	-164541.0	-2399368.0	21979.0
5	17	43	2	8	179.0	-165839.0	-2399325.0	22336.0
5	17	43	2	9	180.0	-167275.0	-2398394.0	22932.0
5	17	43	2	10	181.0	-169006.0	-2396524.0	22560.0
5	17	43	2	11	182.0	-170792.0	-2394786.0	22865.0
5	17	43	2	11	183.0	-173331.0	-2392858.0	23230.0
5	17	43	2	12	184.0	-176263.0	-2390850.0	23216.0
5	17	43	2	13	185.0	-179552.0	-2382530.0	23510.0
5	17	43	2	13	186.0	-183354.0	-2369603.0	23914.0
5	17	43	2	14	188.0	-190094.0	-2369486.0	23836.0
5	17	43	2	15	189.0	-192957.0	-2371136.0	23938.0
5	17	43	2	16	190.0	-194950.0	-2376159.0	23430.0
5	17	43	2	16	191.0	-196360.0	-2379788.0	23974.0
5	17	43	2	17	192.0	-197187.0	-2380370.0	23813.0
5	17	43	2	17	193.0	-197317.0	-2370436.0	23820.0
5	17	43	2	64	194.0	-197147.0	-2363773.0	23845.0
5	17	43	2	83	195.0	-196617.0	-2363616.0	24006.0
5	17	43	2	83	196.0	-195614.0	-2362371.0	23827.0
5	17	43	2	84	197.0	-194032.0	-2361172.0	23781.0
5	17	43	2	85	198.0	-191961.0	-2360306.0	23658.0
5	17	43	2	85	199.0	-189760.0	-2359685.0	23382.0
5	17	43	2	86	200.0	-187475.0	-2359132.0	23223.0
5	17	43	2	87	201.0	-184673.0	-2359651.0	23131.0
5	17	43	2	87	202.0	-181243.0	-2359694.0	22918.0
5	17	43	2	88	203.0	-177731.0	-2358147.0	22940.0
5	17	43	2	88	204.0	-174349.0	-2357971.0	23033.0
5	17	43	2	89	205.0	-170824.0	-2357571.0	23423.0
5	17	43	2	90	206.0	-166882.0	-2356316.0	23169.0
5	17	43	2	90	207.0	-163127.0	-2354745.0	22634.0
5	17	43	2	91	208.0	-160004.0	-2351364.0	22725.0
5	17	43	2	92	218.0	-160951.0	-2332347.0	21267.0
5	17	43	2	92	226.0	-172175.0	-2316059.0	21131.0
5	17	43	2	93	227.0	-172632.0	-2317359.0	20401.0
5	17	43	2	93	228.0	-173081.0	-2318818.0	19940.0
5	17	43	2	94	229.0	-173025.0	-2321063.0	19899.0
5	17	43	2	95	230.0	-172966.0	-2323724.0	20208.0
5	17	43	2	95	231.0	-173152.0	-2325927.0	20403.0
5	17	43	2	96	232.0	-173306.0	-2327537.0	20771.0
5	17	43	2	96	233.0	-173490.0	-2331134.0	20951.0
5	17	43	2	108	234.0	-173497.0	-2334706.0	20514.0
5	17	43	2	109	235.0	-173339.0	-2336001.0	20243.0
5	17	43	2	109	236.0	-173439.0	-2338250.0	20524.0
5	17	43	2	110	237.0	-173810.0	-2340487.0	20620.0
5	17	43	2	111	238.0	-173795.0	-2342699.0	20742.0
5	17	43	2	112	239.0	-173779.0	-2344517.0	20738.0
5	17	43	2	112	240.0	-174097.0	-2347297.0	21116.0
5	17	43	2	113	241.0	-174665.0	-2351201.0	20826.0
5	17	43	2	113	242.0	-175566.0	-2355006.0	21399.0
5	17	43	2	132	243.0	-176290.0	-2359648.0	22048.0
5	17	43	2	133	244.0	-176956.0	-2361609.0	22043.0
5	17	43	2	133	245.0	-177852.0	-2362382.0	22191.0
5	17	43	2	134	246.0	-178884.0	-2366207.0	22171.0
5	17	43	2	134	247.0	-180347.0	-2370087.0	22169.0
5	17	43	2	135	248.0	-182451.0	-2373992.0	21760.0
5	17	43	2	136	249.0	-185306.0	-2378036.0	21814.0
5	17	43	2	154	250.0	-188149.0	-2381504.0	21846.0
5	17	43	2	155	251.0	-190883.0	-2384906.0	21785.0
5	17	43	2	155	252.0	-193574.0	-2388741.0	21831.0
5	17	43	2	156	253.0	-195759.0	-2391402.0	22662.0
5	17	43	2	157	254.0	-197166.0	-2393465.0	23048.0
5	17	43	2	157	255.0	-198021.0	-2396991.0	22616.0
5	17	43	2	158	0.0	-198744.0	-2400931.0	22456.0
5	17	43	2	159	1.0	-198624.0	-2404129.0	21637.0
5	17	43	2	159	2.0	-197431.0	-2406613.0	21728.0
5	17	43	2	160	3.0	-195562.0	-2408854.0	21811.0
5	17	43	2	160	4.0	-193280.0	-2411868.0	21729.0
5	17	43	2	161	5.0	-190397.0	-2414946.0	22018.0
5	17	43	2	161	6.0	-187811.0	-2418088.0	21813.0
5	17	43	2	162	7.0	-185613.0	-2420893.0	21891.0
5	17	43	2	163	8.0	-183100.0	-2423744.0	22329.0
5	17	43	2	176	9.0	-179777.0	-2427976.0	22402.0
5	17	43	2	177	10.0	-176648.0	-2431084.0	22635.0
5	17	43	2	177	11.0	-174022.0	-2433392.0	22739.0
5	17	43	2	178	12.0	-171422.0	-2436236.0	23261.0
5	17	43	2	178	13.0	-168757.0	-2439778.0	23345.0
5	17	43	2	179	14.0	-166216.0	-2443916.0	22933.0
5	17	43	2	180	15.0	-163804.0	-2446524.0	23350.0
5	17	43	2	202	16.0	-161693.0	-2449094.0	23195.0
5	17	43	2	203	17.0	-159625.0	-2452381.0	23037.0
5	17	43	2	203	18.0	-157919.0	-2455775.0	23308.0
5	17	43	2	204	19.0	-156868.0	-2459269.0	23654.0
5	17	43	2	204	20.0	-155333.0	-2462386.0	23762.0
5	17	43	2	205	21.0	-154249.0	-2464647.0	23699.0
5	17	43	2	206	22.0	-153973.0	-2466535.0	23804.0
5	17	43	2	206	23.0	-153952.0	-2467836.0	23249.0
5	17	43	2	207	24.0	-154976.0	-2470082.0	23088.0
5	17	43	2	207	25.0	-156682.0	-2475147.0	23882.0
5	17	43	2	208	26.0	-157972.0	-2487588.0	22973.0
5	17	43	2	208	27.0	-159687.0	-2491539.0	22918.0
5	17	43	2	209	28.0	-161032.0	-2494096.0	23515.0
5	17	43	2	210	29.0	-162359.0	-2496691.0	23690.0
5	17	43	2	210	30.0	-164168.0	-2499392.0	23319.0
5	17	43	2	226	31.0	-166029.0	-2502227.0	22534.0
5	17	43	2	226	32.0	-167576.0	-2504809.0	21231.0
5	17	43	2	227	33.0	-168676.0	-2507009.0	19714.0
5	17	43	2	228	34.0	-169618.0	-2509138.0	18181.0
5	17	43	2	229	35.0	-170865.0	-2511721.0	17371.0
5	17	43	2	229	36.0	-172347.0	-2514141.0	17002.0
5	17	43	2	230	37.0	-173881.0	-2516736.0	16166.0
5	17	43	2	230	38.0	-175608.0	-2518238.0	16078.0
5	17	43	2	231	39.0	-176412.0	-2519455.0	16558.0
5	17	43	2	232	40.0	-176367.0	-2521705.0	14551.0
5	17	43	2	232	41.0	-175986.0	-2525855.0	13282.0
5	17	43	2	233	42.0	-174194.0	-2535889.0	13274.0
5	17	43	2	233	43.0	-171028.0	-2535323.0	14592.0
5	17	43	2	234	44.0	-167516.0	-2531552.0	17833.0
5	17	43	2	235	45.0	-163892.0	-2533282.0	23376.0
5	17	43	2	248	46.0	-160677.0	-2535943.0	29991.0
5	17	43	2	248	47.0	-158360.0	-2537852.0	36321.0
5	17	43	2	249	48.0	-157221.0	-2540222.0	40603.0
5	17	43	2	250	49.0	-158125.0	-2541746.0	42097.0
5	17	43	2	250	50.0	-160804.0	-2544377.0	42464.0
5	17	43	2	251	51.0	-165104.0	-2545722.0	42145.0
5	17	43	2	252	52.0	-170299.0	-2546112.0	40647.0
5	17	43	2	252	53.0	-175328.0	-2549759.0	38898.0
5	17	43	2	272	54.0	-180708.0	-2555052.0	36724.0
5	17	43	2	273	55.0	-185192.0	-2558785.0	34102.0
5	17	43	2	273	56.0	-187974.0	-2562772.0	32237.0
5	17	43	2	274	57.0	-186128.0	-2567228.0	30898.0
5	17	43	2	275	58.0	-172254.0	-2571365.0	29413.0
5	17	43	2	275	59.0	-147487.0	-2574814.0	28564.0
5	17	43	2	276	60.0	-117497.0	-2577844.0	27679.0
5	17	43	2	277	61.0	-90317.0	-2579620.0	25994.0
5	17	43	2	277	62.0	-71371.0	-2580974.0	24246.0
5	17	43	2	278	63.0	-61859.0	-2582681.0	23565.0
5	17	43	2	278	64.0	-63471.0	-2583788.0	23056.0
5	17	43	2	279	65.0	-73827.0	-2585877.0	23367.0
5	17	43	2	280	66.0	-89132.0	-2588906.0	22796.0
5	17	43	2	280	67.0	-106109.0	-2592274.0	21989.0
5	17	43	2	281	68.0	-123467.0	-2594188.0	21880.0
5	17	43	2	294	69.0	-142067.0	-2596274.0	22299.0
5	17	43	2	295	70.0	-161378.0	-2600694.0	22326.0
5	17	43	2	295	71.0	-179548.0	-2614202.0	22386.0
5	17	43	2	296	72.0	-195289.0	-2621459.0	22290.0
5	17	43	2	296	73.0	-206392.0	-2624292.0	21911.0
5	17	43	2	297	74.0	-209877.0	-2627441.0	21836.0
5	17	43	2	299	75.0	-204498.0	-2630215.0	21799.0
5	17	43	2	316	76.0	-192319.0	-2632858.0	21418.0
5	17	43	2	316	77.0	-175270.0	-2635999.0	21084.0
5	17	43	2	317	78.0	-154625.0	-2639550.0	21410.0
5	17	43	2	318	79.0	-136060.0	-2643093.0	21117.0
5	17	43	2	318	80.0	-123270.0	-2646524.0	21230.0
5	17	43	2	319	81.0	-116845.0	-2649172.0	21076.0
5	17	43	2	320	82.0	-116513.0	-2650527.0	20565.0
5	17	43	2	320	83.0	-121416.0	-2652908.0	20018.0
5	17	43	2	321	84.0	-128965.0	-2655778.0	20116.0
5	17	43	2	322	85.0	-137287.0	-2658744.0	20198.0
5	17	43	2	322	86.0	-145736.0	-2661846.0	19706.0
5	17	43	2	323	87.0	-152753.0	-2664506.0	19514.0
5	17	43	2	323	88.0	-158149.0	-2665876.0	19363.0
5	17	43	2	324	89.0	-162625.0	-2660142.0	19041.0
5	17	43	2	325	90.0	-166190.0	-2658016.0	19055.0
5	17	43	2	338	91.0	-168010.0	-2661064.0	19303.0
5	17	43	2	338	92.0	-167323.0	-2664297.0	18992.0
5	17	43	2	339	93.0	-164349.0	-2667480.0	18429.0
5	17	43	2	340	94.0	-159531.0	-2670632.0	18184.0
5	17	43	2	340	95.0	-153092.0	-2673189.0	18149.0
5	17	43	2	341	96.0	-146195.0	-2675991.0	17821.0
5	17	43	2	360	97.0	-139906.0	-2679536.0	17686.0
5	17	43	2	361	98.0	-134654.0	-2680004.0	17943.0
5	17	43	2	362	99.0	-130189.0	-2672688.0	17408.0
5	17	43	2	362	100.0	-126440.0	-2664232.0	17189.0
5	17	43	2	363	101.0	-123238.0	-2657524.0	17144.0
5	17	43	2	364	102.0	-120559.0	-2646456.0	17290.0
5	17	43	2	364	103.0	-118176.0	-2632591.0	17018.0
5	17	43	2	365	104.0	-115558.0	-2620365.0	16858.0
5	17	43	2	366	105.0	-112556.0	-2606678.0	16416.0
5	17	43	2	366	106.0	-109804.0	-2599091.0	16611.0
5	17	43	2	367	107.0	-107857.0	-2601627.0	16843.0
5	17	43	2	367	108.0	-106559.0	-2603271.0	16671.0
5	17	43	2	368	109.0	-106457.0	-2602261.0	16826.0
5	17	43	2	369	110.0	-107272.0	-2604991.0	16689.0
5	17	43	2	369	111.0	-108621.0	-2608632.0	16113.0
5	17	43	2	370	112.0	-110591.0	-2611163.0	15641.0
5	17	43	2	383	113.0	-113004.0	-2612996.0	15987.0
5	17	43	2	384	114.0	-115982.0	-2615180.0	15536.0
5	17	43	2	384	115.0	-119456.0	-2617839.0	15436.0
5	17	43	2	385	116.0	-123023.0	-2620737.0	15819.0
5	17	43	2	385	117.0	-126823.0	-2624005.0	15683.0
5	17	43	2	386	118.0	-131205.0	-2627082.0	15341.0
5	17	43	2	387	119.0	-135724.0	-2629669.0	15063.0
5	17	43	2	387	120.0	-140412.0	-2631751.0	15176.0
5	17	43	2	406	121.0	-144331.0	-2634176.0	14072.0
5	17	43	2	406	122.0	-147569.0	-2636556.0	14046.0
5	17	43	2	407	123.0	-150576.0	-2638370.0	14003.0
5	17	43	2	408	124.0	-152771.0	-2641032.0	13793.0
5	17	43	2	409	125.0	-154097.0	-2643699.0	13634.0
5	17	43	2	409	126.0	-155114.0	-2647776.0	13538.0
5	17	43	2	410	127.0	-155637.0	-2655364.0	13341.0
5	17	43	2	410	128.0	-155767.0	-2659118.0	13179.0
5	17	43	2	411	129.0	-155334.0	-2660884.0	13048.0
5	17	43	2	412	130.0	-154472.0	-2662252.0	12781.0
5	17	43	2	412	131.0	-153312.0	-2666370.0	12338.0
5	17	43	2	413	132.0	-151676.0	-2675272.0	11767.0
5	17	43	2	413	133.0	-150112.0	-2679731.0	11024.0
5	17	43	2	414	134.0	-148662.0	-2682994.0	11290.0
5	17	43	2	415	135.0	-146899.0	-2685417.0	11183.0
5	17	43	2	432	136.0	-144899.0	-2687783.0	11311.0
5	17	43	2	441	137.0	-142679.0	-2690281.0	11786.0
5	17	43	2	444	138.0	-140604.0	-2693264.0	11292.0
5	17	43	2	446	139.0	-138544.0	-2695785.0	11236.0
5	17	43	2	448	140.0	-136381.0	-2698300.0	10743.0
5	17	43	2	451	141.0	-134237.0	-2699201.0	10964.0
5	17	43	2	452	142.0	-132017.0	-2699104.0	10846.0
5	17	43	2	452	143.0	-130070.0	-2693254.0	10486.0
5	17	43	2	453	144.0	-128449.0	-2690137.0	10297.0
5	17	43	2	453	145.0	-126852.0	-2691822.0	10580.0
5	17	43	2	454	146.0	-125584.0	-2693903.0	10061.0
5	17	43	2	455	147.0	-125062.0	-2695859.0	10279.0
5	17	43	2	455	148.0	-125291.0	-2696994.0	10366.0
5	17	43	2	456	149.0	-125859.0	-2698842.0	9986.0
5	17	43	2	456	150.0	-126141.0	-2701362.0	10214.0
5	17	43	2	457	151.0	-126927.0	-2703350.0	10504.0
5	17	43	2	458	152.0	-128424.0	-2705087.0	10319.0
5	17	43	2	458	153.0	-129779.0	-2706590.0	10037.0
5	17	43	2	459	154.0	-130833.0	-2707786.0	9806.0
5	17	43	2	459	155.0	-131849.0	-2709426.0	9748.0
5	17	43	2	460	156.0	-133034.0	-2710657.0	9748.0
5	17	43	2	460	157.0	-134302.0	-2710936.0	9689.0
5	17	43	2	461	158.0	-135368.0	-2709941.0	9482.0
5	17	43	2	469	159.0	-136993.0	-2708741.0	9478.0
5	17	43	2	470	160.0	-138640.0	-2707631.0	9500.0
5	17	43	2	471	161.0	-140422.0	-2707158.0	9858.0
5	17	43	2	471	162.0	-142799.0	-2708012.0	9816.0
5	17	43	2	472	163.0	-145527.0	-2709243.0	10036.0
5	17	43	2	472	164.0	-148874.0	-2710187.0	9699.0
5	17	43	2	473	165.0	-152714.0	-2710294.0	10180.0
5	17	43	2	493	166.0	-157247.0	-2710517.0	10457.0
5	17	43	2	494	167.0	-162232.0	-2710999.0	11077.0
5	17	43	2	494	168.0	-166861.0	-2711117.0	11966.0
5	17	43	2	495	169.0	-171092.0	-2712544.0	12606.0
5	17	43	2	495	170.0	-175009.0	-2714141.0	13492.0
5	17	43	2	496	171.0	-177707.0	-2714682.0	13466.0
5	17	43	2	496	172.0	-179777.0	-2715516.0	13785.0
5	17	43	2	497	173.0	-181364.0	-2715870.0	14517.0
5	17	43	2	498	174.0	-182236.0	-2713017.0	15188.0
5	17	43	2	498	175.0	-182599.0	-2714171.0	15283.0
5	17	43	2	499	176.0	-182494.0	-2715694.0	15649.0
5	17	43	2	499	177.0	-181750.0	-2714064.0	16482.0
5	17	43	2	500	178.0	-180824.0	-2712642.0	16490.0
5	17	43	2	500	179.0	-179306.0	-2712092.0	16716.0
5	17	43	2	501	180.0	-177286.0	-2709529.0	17602.0
5	17	43	2	515	181.0	-174892.0	-2707182.0	17920.0
5	17	43	2	516	182.0	-172052.0	-2706034.0	18012.0
5	17	43	2	516	183.0	-168970.0	-2706137.0	18177.0
5	17	43	2	517	184.0	-166206.0	-2706349.0	18345.0
5	17	43	2	517	185.0	-163501.0	-2707702.0	18856.0
5	17	43	2	518	186.0	-160849.0	-2708776.0	19978.0
5	17	43	2	519	187.0	-158561.0	-2711286.0	19706.0
5	17	43	2	519	188.0	-156731.0	-2724308.0	19867.0
5	17	43	2	538	189.0	-155994.0	-2728581.0	20393.0
5	17	43	2	539	190.0	-155476.0	-2728956.0	20809.0
5	17	43	2	539	191.0	-154080.0	-2732386.0	20373.0
5	17	43	2	540	192.0	-153101.0	-2733572.0	20512.0
5	17	43	2	540	193.0	-152473.0	-2735524.0	20739.0
5	17	43	2	541	194.0	-151682.0	-2736657.0	20325.0
5	17	43	2	541	195.0	-151329.0	-2737051.0	19921.0
5	17	43	2	542	196.0	-151314.0	-2736446.0	19964.0
5	17	43	2	543	197.0	-151799.0	-2735771.0	19662.0
5	17	43	2	543	198.0	-152431.0	-2735821.0	19529.0
5	17	43	2	544	199.0	-152437.0	-2724902.0	20222.0
5	17	43	2	544	200.0	-152779.0	-2702114.0	20152.0
5	17	43	2	545	201.0	-152974.0	-2686732.0	19709.0
5	17	43	2	545	202.0	-152495.0	-2673209.0	19453.0
5	17	43	2	546	203.0	-151611.0	-2654156.0	19805.0
5	17	43	2	573	204.0	-150393.0	-2635690.0	20029.0
5	17	43	2	574	205.0	-147442.0	-2625825.0	20238.0
5	17	43	2	575	206.0	-142353.0	-2609837.0	20031.0
5	17	43	2	575	207.0	-134389.0	-2595868.0	20088.0
5	17	43	2	576	208.0	-120526.0	-2581116.0	20006.0
5	17	43	2	576	209.0	-97452.0	-2563759.0	20134.0
5	17	43	2	577	210.0	-67307.0	-2546401.0	19789.0
5	17	43	2	578	211.0	-47336.0	-2535520.0	20263.0
5	17	43	2	578	212.0	-54075.0	-2527693.0	20556.0
5	17	43	2	579	213.0	-80349.0	-2523614.0	20360.0
5	17	43	2	579	214.0	-122096.0	-2526364.0	20959.0
5	17	43	2	580	215.0	-159676.0	-2529005.0	20981.0
5	17	43	2	581	216.0	-183017.0	-2531148.0	21250.0
5	17	43	2	581	217.0	-190264.0	-2529847.0	21892.0
5	17	43	2	582	218.0	-188814.0	-2530316.0	21946.0
5	17	43	2	583	219.0	-186297.0	-2533752.0	21261.0
5	17	43	2	583	220.0	-180787.0	-2541230.0	20944.0
5	17	43	2	584	221.0	-172622.0	-2547747.0	21211.0
5	17	43	2	594	222.0	-164001.0	-2550289.0	21388.0
5	17	43	2	595	223.0	-156716.0	-2553046.0	20955.0
5	17	43	2	617	224.0	-151141.0	-2556845.0	21035.0
5	17	43	2	617	225.0	-146968.0	-2559669.0	21123.0
5	17	43	2	618	226.0	-143018.0	-2561438.0	21725.0
5	17	43	2	619	227.0	-139088.0	-2564426.0	22028.0
5	17	43	2	619	228.0	-135152.0	-2567941.0	21854.0
5	17	43	2	620	229.0	-131565.0	-2572054.0	21813.0
5	17	43	2	620	230.0	-128336.0	-2581667.0	21555.0
5	17	43	2	621	231.0	-124690.0	-2587820.0	21640.0
5	17	43	2	622	232.0	-121816.0	-2589597.0	21696.0
5	17	43	2	622	233.0	-120153.0	-2593869.0	21636.0
5	17	43	2	623	234.0	-119684.0	-2601591.0	21328.0
5	17	43	2	623	235.0	-119562.0	-2607623.0	21340.0
5	17	43	2	624	236.0	-119010.0	-2611902.0	21319.0
5	17	43	2	624	237.0	-118196.0	-2613514.0	21596.0
5	17	43	2	625	238.0	-118090.0	-2613474.0	21549.0
5	17	43	2	625	239.0	-118756.0	-2608009.0	21845.0
5	17	43	2	626	240.0	-120677.0	-2595074.0	21638.0
5	17	43	2	639	241.0	-123810.0	-2593802.0	21242.0
5	17	43	2	639	242.0	-128351.0	-2597051.0	21181.0
5	17	43	2	640	243.0	-134309.0	-2604313.0	21461.0
5	17	43	2	640	244.0	-139559.0	-2605746.0	21577.0
5	17	43	2	641	245.0	-144270.0	-2606605.0	21712.0
5	17	43	2	642	246.0	-148597.0	-2607562.0	21873.0
5	17	43	2	642	247.0	-151694.0	-2605825.0	21429.0
5	17	43	2	664	248.0	-153217.0	-2605742.0	21594.0
5	17	43	2	664	249.0	-153797.0	-2606196.0	22254.0
5	17	43	2	665	250.0	-153934.0	-2606001.0	21799.0
5	17	43	2	665	251.0	-154210.0	-2606689.0	21125.0
5	17	43	2	666	252.0	-154966.0	-2608458.0	21029.0
5	17	43	2	667	253.0	-156429.0	-2610806.0	21071.0
5	17	43	2	667	254.0	-158894.0	-2610168.0	20723.0
5	17	43	2	668	255.0	-161598.0	-2610886.0	20728.0
5	17	43	2	668	0.0	-164793.0	-2614972.0	20496.0
5	17	43	2	669	1.0	-168617.0	-2618191.0	20334.0
5	17	43	2	669	2.0	-172284.0	-2620149.0	20198.0
5	17	43	2	670	3.0	-176022.0	-2622212.0	20166.0
5	17	43	2	670	4.0	-179585.0	-2623538.0	19817.0
5	17	43	2	671	5.0	-182214.0	-2625803.0	19461.0
5	17	43	2	672	6.0	-184599.0	-2629132.0	19705.0
5	17	43	2	686	7.0	-186860.0	-2632562.0	19726.0
5	17	43	2	686	8.0	-188751.0	-2634781.0	20088.0
5	17	43	2	687	9.0	-190316.0	-2636922.0	19636.0
5	17	43	2	688	10.0	-192130.0	-2639094.0	19503.0
5	17	43	2	688	11.0	-193956.0	-2641335.0	19984.0
5	17	43	2	689	12.0	-195410.0	-2643669.0	20443.0
5	17	43	2	689	13.0	-197045.0	-2645933.0	20005.0
5	17	43	2	690	14.0	-198594.0	-2647457.0	19584.0
5	17	43	2	710	15.0	-199759.0	-2647963.0	20233.0
5	17	43	2	710	16.0	-200798.0	-2648749.0	20021.0
5	17	43	2	711	17.0	-201059.0	-2649889.0	19323.0
5	17	43	2	711	18.0	-200804.0	-2653074.0	19906.0
5	17	43	2	712	19.0	-200380.0	-2656960.0	19274.0
5	17	43	2	713	20.0	-199444.0	-2659544.0	19287.0
5	17	43	2	713	21.0	-198390.0	-2660276.0	19784.0
5	17	43	2	714	22.0	-196775.0	-2662225.0	19973.0
5	17	43	2	714	23.0	-194832.0	-2664163.0	19852.0
5	17	43	2	715	24.0	-193315.0	-2665625.0	19755.0
5	17	43	2	715	25.0	-191852.0	-2666582.0	19648.0
5	17	43	2	716	26.0	-190043.0	-2667300.0	19207.0
5	17	43	2	717	27.0	-187491.0	-2668181.0	18953.0
5	17	43	2	717	28.0	-184567.0	-2670064.0	18949.0
5	17	43	2	718	29.0	-181728.0	-2670497.0	18639.0
5	17	43	2	733	30.0	-178980.0	-2670883.0	18936.0
5	17	43	2	734	31.0	-176579.0	-2671944.0	19254.0
5	17	43	2	734	32.0	-174914.0	-2670276.0	18934.0
5	17	43	2	735	33.0	-174182.0	-2668708.0	18597.0
5	17	43	2	736	34.0	-173370.0	-2669560.0	18684.0
5	17	43	2	736	35.0	-172800.0	-2671300.0	18873.0
5	17	43	2	737	36.0	-172328.0	-2672495.0	18789.0
5	17	43	2	756	37.0	-172279.0	-2672141.0	19250.0
5	17	43	2	757	38.0	-172680.0	-2672138.0	19021.0
5	17	43	2	757	39.0	-173654.0	-2671038.0	19202.0
5	17	43	2	758	40.0	-175027.0	-2669033.0	19506.0
5	17	43	2	758	41.0	-176314.0	-2667291.0	19751.0
5	17	43	2	759	42.0	-177638.0	-2665280.0	19667.0
5	17	43	2	759	43.0	-179012.0	-2663188.0	19794.0
5	17	43	2	760	44.0	-179972.0	-2661253.0	19319.0
5	17	43	2	760	45.0	-180951.0	-2658764.0	18879.0
5	17	43	2	761	46.0	-182081.0	-2655292.0	19297.0
5	17	43	2	762	47.0	-183706.0	-2655822.0	19457.0
5	17	43	2	762	48.0	-185557.0	-2657819.0	19348.0
5	17	43	2	763	49.0	-187285.0	-2659729.0	19871.0
5	17	43	2	763	50.0	-188990.0	-2661410.0	19837.0
5	17	43	2	764	51.0	-191107.0	-2662303.0	19709.0
5	17	43	2	778	52.0	-193642.0	-2661386.0	20163.0
5	17	43	2	779	53.0	-196131.0	-2658618.0	20182.0
5	17	43	2	779	54.0	-198480.0	-2655336.0	19651.0
5	17	43	2	780	55.0	-200307.0	-2653553.0	18172.0
5	17	43	2	781	56.0	-201825.0	-2652440.0	17386.0
5	17	43	2	781	57.0	-202233.0	-2648808.0	16286.0
5	17	43	2	782	58.0	-202161.0	-2638690.0	15549.0
5	17	43	2	782	59.0	-201989.0	-2634983.0	15154.0
5	17	43	2	783	60.0	-200735.0	-2634862.0	15069.0
5	17	43	2	784	61.0	-198952.0	-2636046.0	14854.0
5	17	43	2	785	62.0	-196485.0	-2637940.0	14278.0
5	17	43	2	785	63.0	-193717.0	-2638752.0	13294.0
5	17	43	2	786	64.0	-190559.0	-2638799.0	12801.0
5	17	43	2	786	65.0	-186989.0	-2639502.0	12645.0
5	17	43	2	787	66.0	-182741.0	-2640349.0	12927.0
5	17	43	2	800	67.0	-178453.0	-2640591.0	12679.0
5	17	43	2	801	68.0	-174791.0	-2641377.0	12761.0
5	17	43	2	801	69.0	-170920.0	-2643266.0	12968.0
5	17	43	2	802	70.0	-166764.0	-2645753.0	12876.0
5	17	43	2	802	71.0	-163175.0	-2648134.0	12948.0
5	17	43	2	803	72.0	-159937.0	-2649421.0	12965.0
5	17	43	2	803	73.0	-157189.0	-2648986.0	12339.0
5	17	43	2	804	74.0	-154867.0	-2647194.0	12500.0
5	17	43	2	822	75.0	-153291.0	-2643574.0	12261.0
5	17	43	2	823	76.0	-152629.0	-2643292.0	12081.0
5	17	43	2	824	77.0	-152592.0	-2655960.0	12330.0
5	17	43	2	824	78.0	-153009.0	-2661964.0	12464.0
5	17	43	2	825	79.0	-153531.0	-2668081.0	12221.0
5	17	43	2	825	80.0	-153662.0	-2672879.0	12356.0
5	17	43	2	826	81.0	-153720.0	-2674772.0	12654.0
5	17	43	2	845	82.0	-153309.0	-2676122.0	12389.0
5	17	43	2	846	83.0	-152917.0	-2676527.0	11874.0
5	17	43	2	847	84.0	-153096.0	-2668557.0	11984.0
5	17	43	2	847	85.0	-153741.0	-2665084.0	11970.0
5	17	43	2	848	86.0	-154136.0	-2666072.0	10931.0
5	17	43	2	848	87.0	-154733.0	-2667343.0	10194.0
5	17	43	2	849	88.0	-155259.0	-2668701.0	10524.0
5	17	43	2	849	89.0	-155981.0	-2669851.0	10284.0
5	17	43	2	850	90.0	-156586.0	-2671141.0	10391.0
5	17	43	2	851	91.0	-157701.0	-2672979.0	10673.0
5	17	43	2	851	92.0	-159040.0	-2675624.0	10489.0
5	17	43	2	852	93.0	-160142.0	-2678451.0	9724.0
5	17	43	2	852	94.0	-160942.0	-2680763.0	9121.0
5	17	43	2	853	95.0	-161830.0	-2682213.0	8791.0
5	17	43	2	853	96.0	-162976.0	-2683659.0	8589.0
5	17	43	2	869	97.0	-164207.0	-2685330.0	8767.0
5	17	43	2	869	98.0	-165612.0	-2687509.0	8619.0
5	17	43	2	870	99.0	-166552.0	-2689712.0	8852.0
5	17	43	2	871	100.0	-167569.0	-2691701.0	9439.0
5	17	43	2	871	101.0	-169114.0	-2693316.0	9234.0
5	17	43	2	872	102.0	-170095.0	-2694872.0	8976.0
5	17	43	2	872	103.0	-170510.0	-2696763.0	9196.0
5	17	43	2	873	104.0	-170730.0	-2698822.0	9188.0
5	17	43	2	874	105.0	-171141.0	-2701530.0	8349.0
5	17	43	2	874	106.0	-171035.0	-2704581.0	7843.0
5	17	43	2	875	107.0	-170629.0	-2707507.0	8129.0
5	17	43	2	875	108.0	-169902.0	-2710799.0	7525.0
5	17	43	2	876	109.0	-168863.0	-2713969.0	7480.0
5	17	43	2	877	110.0	-168396.0	-2717089.0	7255.0
5	17	43	2	877	111.0	-167954.0	-2720201.0	7559.0
5	17	43	2	892	112.0	-168206.0	-2723536.0	7698.0
5	17	43	2	893	113.0	-169147.0	-2727159.0	8261.0
5	17	43	2	893	114.0	-169661.0	-2729984.0	7899.0
5	17	43	2	894	115.0	-170042.0	-2732740.0	7472.0
5	17	43	2	894	116.0	-170362.0	-2735301.0	8028.0
5	17	43	2	895	117.0	-170969.0	-2738491.0	7925.0
5	17	43	2	896	118.0	-171597.0	-2741353.0	7251.0
5	17	43	2	896	119.0	-172146.0	-2743523.0	7766.0
5	17	43	2	915	120.0	-173240.0	-2746216.0	8548.0
5	17	43	2	915	121.0	-174777.0	-2747539.0	8278.0
5	17	43	2	916	122.0	-175860.0	-2749086.0	8529.0
5	17	43	2	917	123.0	-176514.0	-2751451.0	8476.0
5	17	43	2	917	124.0	-176886.0	-2753718.0	8174.0
5	17	43	2	918	125.0	-176886.0	-2755720.0	8004.0
5	17	43	2	919	126.0	-177059.0	-2758626.0	8082.0
5	17	43	2	919	127.0	-176372.0	-2761329.0	8340.0
5	17	43	2	920	128.0	-175659.0	-2757333.0	8019.0
5	17	43	2	920	129.0	-175308.0	-2751037.0	8489.0
5	17	43	2	921	130.0	-174984.0	-2753585.0	8963.0
5	17	43	2	922	131.0	-174629.0	-2756747.0	9071.0
5	17	43	2	922	132.0	-174789.0	-2759836.0	8861.0
5	17	43	2	923	133.0	-175290.0	-2762321.0	8510.0
5	17	43	2	923	134.0	-175921.0	-2764316.0	8102.0
5	17	43	2	947	135.0	-176082.0	-2768884.0	8510.0
5	17	43	2	948	136.0	-176174.0	-2774837.0	8365.0
5	17	43	2	948	137.0	-175885.0	-2778254.0	8459.0
5	17	43	2	949	138.0	-174944.0	-2781169.0	8525.0
5	17	43	2	950	139.0	-173172.0	-2784373.0	8407.0
5	17	43	2	950	140.0	-171304.0	-2787507.0	8693.0
5	17	43	2	951	141.0	-169731.0	-2790222.0	8343.0
5	17	43	2	951	142.0	-168351.0	-2792481.0	8284.0
5	17	43	2	952	143.0	-167136.0	-2795202.0	8231.0
5	17	43	2	953	144.0	-165871.0	-2798508.0	8696.0
5	17	43	2	961	145.0	-164674.0	-2801807.0	8486.0
5	17	43	2	962	146.0	-163822.0	-2805608.0	8182.0
5	17	43	2	963	147.0	-163150.0	-2808989.0	8296.0
5	17	43	2	963	148.0	-162534.0	-2811909.0	8873.0
5	17	43	2	964	149.0	-162201.0	-2814341.0	8917.0
5	17	43	2	964	150.0	-162088.0	-2816967.0	8728.0
5	17	43	2	965	151.0	-161309.0	-2821034.0	8548.0
5	17	43	2	966	152.0	-160759.0	-2825386.0	8295.0
5	17	43	2	966	153.0	-159996.0	-2827922.0	8416.0
5	17	43	2	967	154.0	-158414.0	-2830454.0	8368.0
5	17	43	2	967	155.0	-157297.0	-2833034.0	7868.0
5	17	43	2	984	156.0	-156692.0	-2835268.0	7546.0
5	17	43	2	985	157.0	-156246.0	-2837660.0	8106.0
5	17	43	2	985	158.0	-156055.0	-2840220.0	8918.0
5	17	43	2	986	159.0	-155948.0	-2842029.0	8909.0
5	17	43	2	987	160.0	-156766.0	-2844347.0	8938.0
5	17	43	2	987	161.0	-158703.0	-2847225.0	8551.0
5	17	43	2	988	162.0	-160644.0	-2850269.0	8096.0
5	17	43	2	988	163.0	-162721.0	-2853596.0	7554.0
5	17	43	2	989	164.0	-164907.0	-2856269.0	7323.0
5	17	43	3	8	165.0	-166811.0	-2858866.0	7485.0
5	17	43	3	8	166.0	-168746.0	-2862429.0	7198.0
5	17	43	3	9	167.0	-170200.0	-2865508.0	7012.0
5	17	43	3	10	168.0	-170324.0	-2868824.0	6928.0
5	17	43	3	10	169.0	-170368.0	-2872257.0	5889.0
5	17	43	3	11	170.0	-170273.0	-2875744.0	4810.0
5	17	43	3	11	171.0	-170551.0	-2878459.0	3703.0
