8	15	46	59	262	64.0	-196472.0	-8851.0	121799.0
8	15	46	59	264	65.0	-196559.0	-8847.0	148778.0
8	15	46	59	267	66.0	-196503.0	-8866.0	137825.0
8	15	46	59	269	67.0	-196421.0	-8877.0	80370.0
8	15	46	59	271	68.0	-196443.0	-8891.0	-12214.0
8	15	46	59	273	69.0	-196427.0	-8874.0	-122821.0
8	15	46	59	276	70.0	-196460.0	-8854.0	-185137.0
8	15	46	59	277	71.0	-196506.0	-8830.0	-161563.0
8	15	46	59	279	72.0	-196507.0	-8817.0	-54986.0
8	15	46	59	280	73.0	-196582.0	-8821.0	61626.0
8	15	46	59	281	74.0	-196657.0	-8839.0	130701.0
8	15	46	59	282	75.0	-196691.0	-8878.0	154188.0
8	15	46	59	292	76.0	-196409.0	-8893.0	139249.0
8	15	46	59	292	77.0	-196277.0	-8897.0	78501.0
8	15	46	59	293	78.0	-196372.0	-8900.0	-16748.0
8	15	46	59	294	79.0	-196408.0	-8901.0	-128622.0
8	15	46	59	294	80.0	-196137.0	-8884.0	-188781.0
8	15	46	59	295	81.0	-195971.0	-8867.0	-162249.0
8	15	46	59	295	82.0	-195943.0	-8872.0	-53270.0
8	15	46	59	296	83.0	-195889.0	-8879.0	63203.0
8	15	46	59	343	84.0	-195848.0	-8885.0	130876.0
8	15	46	59	389	85.0	-195688.0	-8878.0	152596.0
8	15	46	59	389	86.0	-195591.0	-8879.0	133837.0
8	15	46	59	390	87.0	-195437.0	-8902.0	69810.0
8	15	46	59	391	88.0	-195384.0	-8926.0	-28124.0
8	15	46	59	392	89.0	-195520.0	-8912.0	-138328.0
8	15	46	59	393	90.0	-195471.0	-8886.0	-193967.0
8	15	46	59	393	91.0	-195440.0	-8871.0	-161712.0
8	15	46	59	394	92.0	-195410.0	-8856.0	-51688.0
8	15	46	59	395	93.0	-195501.0	-8867.0	62205.0
8	15	46	59	395	94.0	-195542.0	-8880.0	129573.0
8	15	46	59	396	95.0	-195418.0	-8898.0	152244.0
8	15	46	59	397	96.0	-195379.0	-8911.0	133919.0
8	15	46	59	397	97.0	-195295.0	-8921.0	69361.0
8	15	46	59	398	98.0	-195457.0	-8938.0	-30445.0
8	15	46	59	399	109.0	-195497.0	-8895.0	-136382.0
8	15	46	59	400	132.0	-196349.0	-8836.0	-17541.0
8	15	46	59	400	133.0	-196240.0	-8845.0	89029.0
8	15	46	59	401	134.0	-196312.0	-8849.0	140795.0
8	15	46	59	402	135.0	-196451.0	-8871.0	152836.0
8	15	46	59	402	136.0	-196386.0	-8871.0	124161.0
8	15	46	59	403	137.0	-196253.0	-8876.0	53169.0
8	15	46	59	434	138.0	-196247.0	-8880.0	-53407.0
8	15	46	59	435	139.0	-196324.0	-8867.0	-155679.0
8	15	46	59	435	140.0	-196297.0	-8850.0	-188704.0
8	15	46	59	436	141.0	-196322.0	-8816.0	-128229.0
8	15	46	59	436	142.0	-196269.0	-8819.0	-10464.0
8	15	46	59	437	143.0	-196124.0	-8839.0	92639.0
8	15	46	59	438	144.0	-196136.0	-8849.0	142684.0
8	15	46	59	438	145.0	-196188.0	-8874.0	153132.0
8	15	46	59	439	146.0	-196132.0	-8874.0	119996.0
8	15	46	59	439	147.0	-196136.0	-8875.0	44395.0
8	15	46	59	440	148.0	-196032.0	-8886.0	-62524.0
8	15	46	59	440	149.0	-196084.0	-8862.0	-160651.0
8	15	46	59	441	150.0	-196205.0	-8832.0	-191157.0
8	15	46	59	442	151.0	-196144.0	-8796.0	-126413.0
8	15	46	59	442	152.0	-196071.0	-8782.0	-5017.0
8	15	46	59	443	154.0	-195764.0	-8800.0	143788.0
8	15	46	59	444	155.0	-195655.0	-8804.0	153219.0
8	15	46	59	444	156.0	-195566.0	-8806.0	117758.0
8	15	46	59	445	157.0	-195716.0	-8799.0	40342.0
8	15	46	59	445	158.0	-195823.0	-8808.0	-67251.0
8	15	46	59	446	159.0	-195949.0	-8790.0	-163719.0
8	15	46	59	479	160.0	-195889.0	-8778.0	-189176.0
8	15	46	59	480	161.0	-195899.0	-8737.0	-120785.0
8	15	46	59	480	162.0	-195895.0	-8707.0	-902.0
8	15	46	59	481	163.0	-195832.0	-8726.0	97029.0
8	15	46	59	481	164.0	-195836.0	-8743.0	140191.0
8	15	46	59	482	165.0	-196057.0	-8762.0	145903.0
8	15	46	59	484	166.0	-196044.0	-8774.0	110080.0
8	15	46	59	485	167.0	-195979.0	-8779.0	32941.0
8	15	46	59	486	168.0	-196096.0	-8769.0	-75210.0
8	15	46	59	486	169.0	-196079.0	-8756.0	-167424.0
8	15	46	59	487	170.0	-196076.0	-8707.0	-189708.0
8	15	46	59	487	171.0	-196038.0	-8689.0	-117557.0
8	15	46	59	488	172.0	-196147.0	-8678.0	3031.0
8	15	46	59	489	173.0	-196136.0	-8697.0	98701.0
8	15	46	59	489	174.0	-196119.0	-8707.0	140343.0
8	15	46	59	490	176.0	-196039.0	-8704.0	106709.0
8	15	46	59	490	177.0	-195939.0	-8701.0	27678.0
8	15	46	59	491	178.0	-195943.0	-8722.0	-82510.0
8	15	46	59	491	179.0	-196009.0	-8709.0	-171735.0
8	15	46	59	492	180.0	-196024.0	-8669.0	-186453.0
8	15	46	59	493	181.0	-196131.0	-8626.0	-108399.0
8	15	46	59	493	182.0	-196134.0	-8636.0	12003.0
8	15	46	59	570	183.0	-196091.0	-8652.0	104219.0
8	15	46	59	571	184.0	-196102.0	-8654.0	143429.0
8	15	46	59	572	185.0	-196019.0	-8656.0	145985.0
8	15	46	59	573	186.0	-195869.0	-8671.0	103641.0
8	15	46	59	573	187.0	-195759.0	-8687.0	24009.0
8	15	46	59	574	188.0	-195766.0	-8692.0	-85447.0
8	15	46	59	574	189.0	-195811.0	-8669.0	-172237.0
8	15	46	59	575	190.0	-195834.0	-8637.0	-182100.0
8	15	46	59	575	191.0	-195855.0	-8627.0	-97032.0
8	15	46	59	576	192.0	-195916.0	-8604.0	26424.0
8	15	46	59	577	193.0	-196019.0	-8632.0	117119.0
8	15	46	59	577	194.0	-196129.0	-8627.0	154753.0
8	15	46	59	578	195.0	-196119.0	-8618.0	154341.0
8	15	46	59	578	196.0	-196080.0	-8624.0	110218.0
8	15	46	59	579	197.0	-196099.0	-8628.0	28695.0
8	15	46	59	579	221.0	-196041.0	-8415.0	-72193.0
8	15	46	59	580	222.0	-195965.0	-8432.0	46676.0
8	15	46	59	580	223.0	-195963.0	-8460.0	124477.0
8	15	46	59	581	224.0	-195966.0	-8454.0	152654.0
8	15	46	59	581	225.0	-195822.0	-8453.0	144129.0
8	15	46	59	582	226.0	-195784.0	-8460.0	90968.0
8	15	46	59	583	227.0	-195846.0	-8465.0	3551.0
8	15	46	59	613	228.0	-195839.0	-8473.0	-108569.0
8	15	46	59	614	229.0	-195939.0	-8462.0	-182345.0
8	15	46	59	614	230.0	-195937.0	-8419.0	-171981.0
8	15	46	59	615	231.0	-195987.0	-8404.0	-71625.0
8	15	46	59	615	232.0	-195942.0	-8399.0	47763.0
8	15	46	59	616	233.0	-195802.0	-8418.0	124937.0
8	15	46	59	617	234.0	-195886.0	-8422.0	153217.0
8	15	46	59	617	235.0	-195936.0	-8444.0	144653.0
8	15	46	59	618	236.0	-195855.0	-8471.0	90088.0
8	15	46	59	618	237.0	-195896.0	-8460.0	1289.0
8	15	46	59	619	238.0	-195971.0	-8441.0	-111938.0
8	15	46	59	619	239.0	-196024.0	-8414.0	-181427.0
8	15	46	59	620	240.0	-195969.0	-8391.0	-163813.0
8	15	46	59	621	241.0	-195841.0	-8366.0	-59281.0
8	15	46	59	621	242.0	-195746.0	-8356.0	59699.0
8	15	46	59	622	244.0	-195856.0	-8382.0	155358.0
8	15	46	59	622	245.0	-195814.0	-8411.0	142237.0
8	15	46	59	623	246.0	-195779.0	-8422.0	85400.0
8	15	46	59	624	247.0	-195719.0	-8419.0	-7701.0
8	15	46	59	624	248.0	-195785.0	-8413.0	-119257.0
8	15	46	59	625	249.0	-195859.0	-8387.0	-184273.0
8	15	46	59	658	250.0	-195819.0	-8356.0	-163443.0
8	15	46	59	659	251.0	-195849.0	-8337.0	-57526.0
8	15	46	59	660	252.0	-195988.0	-8343.0	59194.0
8	15	46	59	660	253.0	-196131.0	-8356.0	129823.0
8	15	46	59	661	254.0	-196107.0	-8376.0	154705.0
8	15	46	59	661	255.0	-196124.0	-8383.0	139549.0
8	15	46	59	662	0.0	-196237.0	-8386.0	77890.0
8	15	46	59	663	1.0	-196321.0	-8396.0	-17172.0
8	15	46	59	663	2.0	-196452.0	-8362.0	-127521.0
8	15	46	59	664	3.0	-196469.0	-8346.0	-186141.0
8	15	46	59	664	4.0	-196445.0	-8324.0	-158679.0
8	15	46	59	665	5.0	-196367.0	-8294.0	-51290.0
8	15	46	59	665	6.0	-196297.0	-8301.0	64856.0
8	15	46	59	666	7.0	-196446.0	-8306.0	134239.0
8	15	46	59	667	8.0	-196532.0	-8312.0	157677.0
8	15	46	59	667	10.0	-196304.0	-8339.0	80259.0
8	15	46	59	668	11.0	-196265.0	-8358.0	-15856.0
8	15	46	59	668	12.0	-196241.0	-8351.0	-126571.0
8	15	46	59	669	13.0	-196217.0	-8331.0	-181961.0
8	15	46	59	670	14.0	-196087.0	-8288.0	-151472.0
8	15	46	59	678	15.0	-196022.0	-8271.0	-43245.0
8	15	46	59	678	16.0	-195971.0	-8268.0	70647.0
8	15	46	59	703	17.0	-196006.0	-8272.0	135394.0
8	15	46	59	704	18.0	-195976.0	-8294.0	155054.0
8	15	46	59	705	19.0	-195919.0	-8311.0	135801.0
8	15	46	59	705	20.0	-195902.0	-8303.0	72594.0
8	15	46	59	706	21.0	-195962.0	-8301.0	-26831.0
8	15	46	59	706	22.0	-196023.0	-8279.0	-136491.0
8	15	46	59	707	23.0	-196065.0	-8254.0	-187256.0
8	15	46	59	708	24.0	-196022.0	-8209.0	-147261.0
8	15	46	59	708	25.0	-196024.0	-8171.0	-34671.0
8	15	46	59	709	26.0	-196059.0	-8159.0	78085.0
8	15	46	59	710	27.0	-195979.0	-8176.0	138838.0
8	15	46	59	710	28.0	-195894.0	-8165.0	158252.0
8	15	46	59	711	29.0	-195881.0	-8163.0	135536.0
8	15	46	59	711	30.0	-195857.0	-8159.0	69859.0
8	15	46	59	712	31.0	-195899.0	-8136.0	-28847.0
8	15	46	59	712	33.0	-195881.0	-8057.0	-181086.0
8	15	46	59	713	34.0	-195979.0	-8015.0	-137707.0
8	15	46	59	714	35.0	-195924.0	-7987.0	-23851.0
8	15	46	59	714	36.0	-195921.0	-7984.0	85539.0
8	15	46	59	715	37.0	-196066.0	-7955.0	142757.0
8	15	46	59	715	38.0	-196089.0	-7955.0	159013.0
8	15	46	59	794	39.0	-196067.0	-7932.0	134951.0
8	15	46	59	794	40.0	-195983.0	-7897.0	67232.0
8	15	46	59	795	41.0	-195782.0	-7855.0	-33966.0
8	15	46	59	796	42.0	-195809.0	-7821.0	-138557.0
8	15	46	59	796	43.0	-195802.0	-7757.0	-181512.0
8	15	46	59	797	44.0	-195735.0	-7691.0	-134827.0
8	15	46	59	798	45.0	-195729.0	-7644.0	-19861.0
8	15	46	59	798	46.0	-195694.0	-7623.0	88663.0
8	15	46	59	799	47.0	-195749.0	-7606.0	143996.0
8	15	46	59	799	48.0	-195724.0	-7575.0	158924.0
8	15	46	59	800	49.0	-195732.0	-7542.0	131761.0
8	15	46	59	800	50.0	-195747.0	-7501.0	61118.0
8	15	46	59	801	51.0	-195778.0	-7476.0	-41252.0
8	15	46	59	802	52.0	-195809.0	-7442.0	-142550.0
8	15	46	59	802	53.0	-195842.0	-7363.0	-180203.0
8	15	46	59	803	78.0	-196310.0	-6228.0	161189.0
8	15	46	59	804	79.0	-196274.0	-6205.0	124633.0
8	15	46	59	805	80.0	-196105.0	-6187.0	47521.0
8	15	46	59	805	81.0	-195926.0	-6146.0	-60345.0
8	15	46	59	806	82.0	-195941.0	-6085.0	-154851.0
8	15	46	59	806	83.0	-195994.0	-6030.0	-178926.0
8	15	46	59	838	84.0	-195877.0	-5969.0	-110719.0
8	15	46	59	839	85.0	-195798.0	-5910.0	7696.0
8	15	46	59	839	86.0	-195887.0	-5887.0	103470.0
8	15	46	59	840	87.0	-196022.0	-5873.0	146559.0
8	15	46	59	841	88.0	-196094.0	-5834.0	153867.0
8	15	46	59	841	89.0	-195997.0	-5817.0	116899.0
8	15	46	59	842	90.0	-195906.0	-5793.0	39602.0
8	15	46	59	842	91.0	-195941.0	-5752.0	-69589.0
8	15	46	59	843	92.0	-195959.0	-5694.0	-160466.0
8	15	46	59	844	93.0	-195992.0	-5624.0	-180306.0
8	15	46	59	844	94.0	-196007.0	-5565.0	-108216.0
8	15	46	59	845	95.0	-196028.0	-5545.0	12543.0
8	15	46	59	845	96.0	-196042.0	-5534.0	105766.0
8	15	46	59	846	97.0	-196007.0	-5485.0	145621.0
8	15	46	59	847	98.0	-196037.0	-5473.0	148874.0
8	15	46	59	847	100.0	-196155.0	-5430.0	33721.0
8	15	46	59	848	101.0	-196118.0	-5404.0	-77187.0
8	15	46	59	848	102.0	-196097.0	-5353.0	-164560.0
8	15	46	59	849	103.0	-196152.0	-5307.0	-177259.0
8	15	46	59	849	104.0	-196193.0	-5278.0	-97862.0
8	15	46	59	850	105.0	-196184.0	-5234.0	21186.0
8	15	46	59	882	106.0	-196224.0	-5212.0	109339.0
8	15	46	59	883	107.0	-196386.0	-5182.0	146239.0
8	15	46	59	884	108.0	-196412.0	-5194.0	147739.0
8	15	46	59	884	109.0	-196364.0	-5194.0	106087.0
8	15	46	59	885	110.0	-196163.0	-5170.0	25860.0
8	15	46	59	886	111.0	-196153.0	-5146.0	-87337.0
8	15	46	59	886	112.0	-196116.0	-5095.0	-171978.0
8	15	46	59	887	113.0	-196118.0	-5049.0	-180267.0
8	15	46	59	887	114.0	-196064.0	-4999.0	-98646.0
8	15	46	59	888	115.0	-195999.0	-4969.0	21203.0
8	15	46	59	889	116.0	-196038.0	-4954.0	109218.0
8	15	46	59	889	117.0	-195883.0	-4947.0	146945.0
8	15	46	59	890	118.0	-195754.0	-4954.0	148336.0
8	15	46	59	891	119.0	-195721.0	-4946.0	104386.0
8	15	46	59	891	120.0	-195777.0	-4930.0	22766.0
8	15	46	59	892	122.0	-195872.0	-4875.0	-171557.0
8	15	46	59	892	123.0	-195901.0	-4825.0	-175747.0
8	15	46	59	893	124.0	-195958.0	-4789.0	-89727.0
8	15	46	59	894	125.0	-196039.0	-4753.0	28991.0
8	15	46	59	894	126.0	-196095.0	-4744.0	112301.0
8	15	46	59	895	127.0	-196037.0	-4768.0	145482.0
8	15	46	59	895	128.0	-195892.0	-4736.0	142945.0
8	15	46	59	928	129.0	-195881.0	-4724.0	97871.0
8	15	46	59	928	130.0	-195957.0	-4727.0	16316.0
8	15	46	59	929	131.0	-196069.0	-4727.0	-93734.0
8	15	46	59	930	132.0	-196046.0	-4688.0	-170456.0
8	15	46	59	930	133.0	-195947.0	-4641.0	-170702.0
8	15	46	59	931	134.0	-195927.0	-4595.0	-81242.0
8	15	46	59	932	135.0	-195981.0	-4585.0	37148.0
8	15	46	59	933	136.0	-196052.0	-4584.0	115615.0
8	15	46	59	934	137.0	-196184.0	-4569.0	146904.0
8	15	46	59	934	138.0	-196244.0	-4567.0	142651.0
8	15	46	59	935	139.0	-196236.0	-4561.0	94568.0
8	15	46	59	936	140.0	-196200.0	-4559.0	9596.0
8	15	46	59	936	141.0	-196282.0	-4541.0	-100774.0
8	15	46	59	937	142.0	-196181.0	-4524.0	-174809.0
8	15	46	59	938	143.0	-196078.0	-4467.0	-170772.0
8	15	46	59	938	145.0	-196109.0	-4429.0	38346.0
8	15	46	59	939	146.0	-196166.0	-4441.0	115559.0
8	15	46	59	939	147.0	-196114.0	-4428.0	144058.0
8	15	46	59	940	148.0	-196070.0	-4437.0	136055.0
8	15	46	59	941	149.0	-195982.0	-4425.0	85884.0
8	15	46	59	941	150.0	-196050.0	-4431.0	546.0
8	15	47	0	64	151.0	-196124.0	-4451.0	-111821.0
8	15	47	0	64	152.0	-196122.0	-4420.0	-180969.0
8	15	47	0	65	153.0	-196192.0	-4391.0	-170137.0
8	15	47	0	66	154.0	-196069.0	-4357.0	-72756.0
8	15	47	0	67	155.0	-195962.0	-4357.0	44271.0
8	15	47	0	67	156.0	-196021.0	-4358.0	118170.0
8	15	47	0	68	157.0	-196129.0	-4395.0	146300.0
8	15	47	0	68	158.0	-196032.0	-4399.0	137011.0
8	15	47	0	69	159.0	-195999.0	-4390.0	82265.0
8	15	47	0	70	160.0	-195787.0	-4394.0	-6735.0
8	15	47	0	70	161.0	-195815.0	-4387.0	-118645.0
8	15	47	0	71	162.0	-196087.0	-4371.0	-183405.0
8	15	47	0	72	163.0	-196234.0	-4341.0	-166409.0
8	15	47	0	72	164.0	-196245.0	-4313.0	-65141.0
8	15	47	0	73	165.0	-196281.0	-4319.0	50652.0
8	15	47	0	74	212.0	396050.0	-4340.0	-190426.0
8	15	47	0	74	213.0	349748.0	-4302.0	-146693.0
8	15	47	0	75	214.0	311979.0	-4295.0	-26164.0
8	15	47	0	75	215.0	283895.0	-4327.0	87854.0
8	15	47	0	76	216.0	265363.0	-4356.0	145250.0
8	15	47	0	77	217.0	256596.0	-4372.0	162170.0
8	15	47	0	77	218.0	257511.0	-4390.0	137903.0
8	15	47	0	110	219.0	267153.0	-4411.0	69131.0
8	15	47	0	112	220.0	281506.0	-4433.0	-36732.0
8	15	47	0	112	221.0	297028.0	-4428.0	-146703.0
8	15	47	0	113	222.0	312663.0	-4409.0	-191757.0
8	15	47	0	114	223.0	328706.0	-4389.0	-140524.0
8	15	47	0	114	224.0	344498.0	-4402.0	-19527.0
8	15	47	0	115	225.0	356061.0	-4414.0	90397.0
8	15	47	0	115	226.0	359099.0	-4427.0	145248.0
8	15	47	0	116	227.0	353043.0	-4447.0	158861.0
8	15	47	0	117	228.0	337881.0	-4475.0	128671.0
8	15	47	0	117	229.0	316472.0	-4472.0	55815.0
8	15	47	0	118	230.0	286468.0	-4486.0	-51996.0
8	15	47	0	118	231.0	253499.0	-4514.0	-159454.0
8	15	47	0	119	232.0	206056.0	-4499.0	-199740.0
8	15	47	0	120	233.0	135999.0	-4459.0	-143435.0
8	15	47	0	120	235.0	-42357.0	-4477.0	88032.0
8	15	47	0	121	236.0	-171599.0	-4482.0	142226.0
8	15	47	0	121	237.0	-339769.0	-4498.0	156414.0
8	15	47	0	122	238.0	-572281.0	-4534.0	125381.0
8	15	47	0	122	239.0	-716499.0	-4553.0	50406.0
8	15	47	0	123	240.0	-772825.0	-4566.0	-60034.0
8	15	47	0	153	241.0	-810354.0	-4567.0	-168009.0
8	15	47	0	153	242.0	-834876.0	-4554.0	-203383.0
8	15	47	0	154	243.0	-848692.0	-4527.0	-140349.0
8	15	47	0	155	244.0	-853758.0	-4536.0	-16304.0
8	15	47	0	155	245.0	-851641.0	-4551.0	91763.0
8	15	47	0	156	246.0	-843778.0	-4579.0	143433.0
8	15	47	0	156	247.0	-831154.0	-4608.0	154894.0
8	15	47	0	380	248.0	-814629.0	-4606.0	120553.0
8	15	47	0	380	249.0	-795138.0	-4628.0	43714.0
8	15	47	0	381	250.0	-773494.0	-4637.0	-66669.0
8	15	47	0	382	251.0	-750281.0	-4619.0	-167330.0
8	15	47	0	382	252.0	-726121.0	-4596.0	-196500.0
8	15	47	0	383	253.0	-701139.0	-4572.0	-128401.0
8	15	47	0	383	254.0	-675796.0	-4587.0	-3527.0
8	15	47	0	384	255.0	-650661.0	-4621.0	98763.0
8	15	47	0	385	1.0	-601159.0	-4641.0	152791.0
8	15	47	0	385	2.0	-577259.0	-4652.0	115976.0
8	15	47	0	386	3.0	-554031.0	-4671.0	38409.0
8	15	47	0	386	4.0	-531634.0	-4666.0	-71850.0
8	15	47	0	387	5.0	-510240.0	-4661.0	-169071.0
8	15	47	0	388	6.0	-489989.0	-4656.0	-191192.0
8	15	47	0	388	7.0	-470593.0	-4633.0	-118229.0
8	15	47	0	389	8.0	-452156.0	-4634.0	3845.0
8	15	47	0	389	114.0	-196242.0	-5363.0	-139946.0
8	15	47	0	390	115.0	-196242.0	-5332.0	-194246.0
8	15	47	0	391	116.0	-196164.0	-5313.0	-161371.0
8	15	47	0	391	117.0	-196076.0	-5324.0	-52184.0
8	15	47	0	392	118.0	-196106.0	-5340.0	60423.0
8	15	47	0	393	119.0	-195940.0	-5359.0	124304.0
8	15	47	0	424	120.0	-195849.0	-5370.0	145888.0
8	15	47	0	425	121.0	-195792.0	-5398.0	125032.0
8	15	47	0	451	122.0	-195754.0	-5425.0	60015.0
8	15	47	0	452	123.0	-195744.0	-5424.0	-35916.0
8	15	47	0	452	124.0	-195823.0	-5401.0	-141516.0
8	15	47	0	453	125.0	-195848.0	-5395.0	-190076.0
8	15	47	0	454	126.0	-195741.0	-5372.0	-150798.0
8	15	47	0	454	127.0	-195793.0	-5359.0	-40392.0
8	15	47	0	455	128.0	-195851.0	-5372.0	69954.0
8	15	47	0	455	129.0	-195861.0	-5390.0	129511.0
8	15	47	0	456	130.0	-195909.0	-5412.0	147738.0
8	15	47	0	457	131.0	-195934.0	-5422.0	126814.0
8	15	47	0	457	132.0	-195921.0	-5443.0	63426.0
8	15	47	0	458	133.0	-195858.0	-5439.0	-34305.0
8	15	47	0	458	134.0	-195957.0	-5423.0	-140255.0
8	15	47	0	459	136.0	-195939.0	-5392.0	-142739.0
8	15	47	0	459	137.0	-195977.0	-5391.0	-30596.0
8	15	47	0	460	138.0	-196057.0	-5394.0	75852.0
8	15	47	0	460	139.0	-196138.0	-5401.0	130547.0
8	15	47	0	461	140.0	-196234.0	-5411.0	145899.0
8	15	47	0	462	141.0	-196017.0	-5425.0	122814.0
8	15	47	0	462	142.0	-195805.0	-5439.0	58916.0
8	15	47	0	513	143.0	-195766.0	-5459.0	-38598.0
8	15	47	0	514	144.0	-195664.0	-5437.0	-143042.0
8	15	47	0	515	145.0	-195734.0	-5419.0	-185932.0
8	15	47	0	516	146.0	-195838.0	-5394.0	-138766.0
8	15	47	0	517	147.0	-195896.0	-5395.0	-25169.0
8	15	47	0	518	148.0	-195869.0	-5409.0	82394.0
8	15	47	0	520	149.0	-195870.0	-5430.0	135603.0
8	15	47	0	520	150.0	-195899.0	-5419.0	148910.0
8	15	47	0	521	151.0	-195808.0	-5429.0	122233.0
8	15	47	0	522	152.0	-195660.0	-5444.0	53952.0
8	15	47	0	522	153.0	-195582.0	-5453.0	-46724.0
8	15	47	0	523	154.0	-195566.0	-5417.0	-148389.0
8	15	47	0	524	155.0	-195576.0	-5401.0	-186366.0
8	15	47	0	524	156.0	-195525.0	-5388.0	-134261.0
8	15	47	0	525	157.0	-195573.0	-5366.0	-19655.0
8	15	47	0	525	181.0	-195531.0	-5384.0	121612.0
8	15	47	0	526	182.0	-195652.0	-5388.0	47877.0
8	15	47	0	527	183.0	-195647.0	-5399.0	-57055.0
8	15	47	0	528	184.0	-195554.0	-5393.0	-149101.0
8	15	47	0	528	185.0	-195497.0	-5371.0	-171768.0
8	15	47	0	529	186.0	-195598.0	-5344.0	-106112.0
8	15	47	0	559	187.0	-195640.0	-5345.0	10558.0
8	15	47	0	560	188.0	-195607.0	-5347.0	107310.0
8	15	47	0	561	189.0	-195741.0	-5349.0	150554.0
8	15	47	0	561	190.0	-195659.0	-5358.0	155854.0
8	15	47	0	562	191.0	-195549.0	-5371.0	120818.0
8	15	47	0	563	192.0	-195580.0	-5381.0	46178.0
8	15	47	0	563	193.0	-195509.0	-5378.0	-59922.0
8	15	47	0	564	194.0	-195500.0	-5359.0	-148493.0
8	15	47	0	565	195.0	-195599.0	-5321.0	-167552.0
8	15	47	0	565	196.0	-195597.0	-5287.0	-95979.0
8	15	47	0	566	197.0	-195697.0	-5312.0	20443.0
8	15	47	0	566	198.0	-195824.0	-5332.0	111681.0
8	15	47	0	567	199.0	-195859.0	-5329.0	150990.0
8	15	47	0	568	200.0	-195871.0	-5342.0	154778.0
8	15	47	0	568	201.0	-195912.0	-5349.0	115819.0
8	15	47	0	569	203.0	-195673.0	-5381.0	-65597.0
8	15	47	0	570	204.0	-195744.0	-5361.0	-150232.0
8	15	47	0	570	205.0	-195684.0	-5327.0	-164146.0
8	15	47	0	571	206.0	-195493.0	-5319.0	-90251.0
8	15	47	0	571	207.0	-195480.0	-5319.0	24593.0
8	15	47	0	572	208.0	-195554.0	-5333.0	114407.0
8	15	47	0	572	209.0	-195499.0	-5354.0	152551.0
8	15	47	0	603	210.0	-195647.0	-5376.0	154610.0
8	15	47	0	603	211.0	-195687.0	-5381.0	114057.0
8	15	47	0	604	212.0	-195596.0	-5398.0	34145.0
8	15	47	0	605	213.0	-195667.0	-5407.0	-74358.0
8	15	47	0	606	214.0	-195776.0	-5382.0	-157132.0
8	15	47	0	606	215.0	-195670.0	-5356.0	-166211.0
8	15	47	0	607	216.0	-195537.0	-5354.0	-86470.0
8	15	47	0	608	217.0	-195403.0	-5347.0	28904.0
8	15	47	0	608	218.0	-195274.0	-5361.0	112572.0
8	15	47	0	609	219.0	-195255.0	-5366.0	146663.0
8	15	47	0	609	220.0	-195230.0	-5392.0	144549.0
8	15	47	0	610	221.0	-195161.0	-5384.0	99996.0
8	15	47	0	611	222.0	-195152.0	-5399.0	21191.0
8	15	47	0	611	223.0	-195274.0	-5392.0	-84720.0
8	15	47	0	612	224.0	-195339.0	-5377.0	-162540.0
8	15	47	0	613	226.0	-195407.0	-5342.0	-85874.0
8	15	47	0	613	227.0	-195355.0	-5331.0	30413.0
8	15	47	0	614	228.0	-195231.0	-5352.0	114429.0
8	15	47	0	615	229.0	-195254.0	-5379.0	147589.0
8	15	47	0	616	230.0	-195331.0	-5379.0	143811.0
8	15	47	0	616	231.0	-195258.0	-5405.0	97271.0
8	15	47	0	647	232.0	-195303.0	-5435.0	14534.0
8	15	47	0	648	233.0	-195391.0	-5437.0	-93064.0
8	15	47	0	649	234.0	-195392.0	-5417.0	-167871.0
8	15	47	0	650	235.0	-195373.0	-5393.0	-167876.0
8	15	47	0	650	236.0	-195506.0	-5379.0	-81416.0
8	15	47	0	651	237.0	-195607.0	-5378.0	33220.0
8	15	47	0	652	238.0	-195584.0	-5405.0	113514.0
8	15	47	0	653	239.0	-195619.0	-5413.0	145648.0
8	15	47	0	653	240.0	-195648.0	-5412.0	140461.0
8	15	47	0	654	241.0	-195672.0	-5416.0	92020.0
8	15	47	0	654	242.0	-195762.0	-5426.0	8046.0
8	15	47	0	655	243.0	-195702.0	-5441.0	-99470.0
8	15	47	0	656	244.0	-195701.0	-5426.0	-171567.0
8	15	47	0	656	245.0	-195708.0	-5409.0	-166333.0
8	15	47	0	657	246.0	-195696.0	-5387.0	-73025.0
8	15	47	0	658	248.0	-196107.0	-5399.0	122795.0
8	15	47	0	658	249.0	-196316.0	-5389.0	151656.0
8	15	47	0	659	250.0	-196595.0	-5411.0	143846.0
8	15	47	0	660	251.0	-248420.0	-5394.0	92188.0
8	15	47	0	660	252.0	-2559096.0	-4889.0	1336.0
8	15	47	0	661	253.0	-5903867.0	-5157.0	-116484.0
8	15	47	0	661	254.0	-6178944.0	-5430.0	-190803.0
8	15	47	0	740	255.0	-5699686.0	-5672.0	-178048.0
8	15	47	0	741	0.0	-2207899.0	-5884.0	-75664.0
8	15	47	0	741	1.0	1567911.0	-5620.0	45186.0
8	15	47	0	742	2.0	2848218.0	-5440.0	123178.0
8	15	47	0	743	3.0	2858911.0	-5379.0	152752.0
8	15	47	0	743	4.0	2447996.0	-5349.0	144329.0
8	15	47	0	744	5.0	1820540.0	-5309.0	88729.0
8	15	47	0	745	6.0	1030351.0	-5289.0	-6207.0
8	15	47	0	745	7.0	157386.0	-5259.0	-123492.0
8	15	47	0	746	8.0	-633436.0	-5244.0	-192137.0
8	15	47	0	747	9.0	-1140082.0	-5245.0	-175254.0
8	15	47	0	747	10.0	-1241133.0	-5259.0	-68224.0
8	15	47	0	748	11.0	-965555.0	-5290.0	55093.0
8	15	47	0	749	12.0	-486017.0	-5295.0	129581.0
8	15	47	0	749	13.0	-19318.0	-5279.0	154359.0
8	15	47	0	750	37.0	609741.0	-4732.0	-138121.0
8	15	47	0	750	38.0	587566.0	-4687.0	-194449.0
8	15	47	0	751	39.0	551506.0	-4621.0	-159891.0
8	15	47	0	751	40.0	499447.0	-4587.0	-45016.0
8	15	47	0	752	41.0	427053.0	-4574.0	71845.0
8	15	47	0	753	42.0	341579.0	-4568.0	137142.0
8	15	47	0	784	43.0	241836.0	-4522.0	157597.0
8	15	47	0	785	44.0	127891.0	-4487.0	137914.0
8	15	47	0	786	45.0	-9794.0	-4454.0	71373.0
8	15	47	0	786	46.0	-180579.0	-4429.0	-31251.0
8	15	47	0	787	47.0	-402316.0	-4377.0	-142278.0
8	15	47	0	788	48.0	-615787.0	-4357.0	-195734.0
8	15	47	0	788	49.0	-716336.0	-4287.0	-156448.0
8	15	47	0	789	50.0	-782022.0	-4238.0	-41334.0
8	15	47	0	790	51.0	-829477.0	-4211.0	74063.0
8	15	47	0	790	52.0	-862227.0	-4200.0	136940.0
8	15	47	0	791	53.0	-882653.0	-4165.0	155821.0
8	15	47	0	792	54.0	-892867.0	-4138.0	133556.0
8	15	47	0	792	55.0	-894435.0	-4095.0	66071.0
8	15	47	0	793	56.0	-888805.0	-4052.0	-35763.0
8	15	47	0	794	57.0	-877777.0	-3997.0	-144358.0
8	15	47	0	794	59.0	-842976.0	-3888.0	-145519.0
8	15	47	0	795	60.0	-821086.0	-3839.0	-28814.0
8	15	47	0	796	61.0	-796993.0	-3814.0	82714.0
8	15	47	0	796	62.0	-771532.0	-3787.0	140279.0
8	15	47	0	797	63.0	-745351.0	-3757.0	156528.0
8	15	47	0	797	64.0	-718620.0	-3733.0	131818.0
8	15	47	0	798	65.0	-691644.0	-3710.0	62634.0
8	15	47	0	827	66.0	-664962.0	-3674.0	-38299.0
8	15	47	0	828	67.0	-638602.0	-3641.0	-143500.0
8	15	47	0	829	68.0	-612836.0	-3579.0	-186476.0
8	15	47	0	830	69.0	-587704.0	-3511.0	-139134.0
8	15	47	0	830	70.0	-563601.0	-3461.0	-25301.0
8	15	47	0	831	71.0	-540411.0	-3438.0	82294.0
8	15	47	0	832	72.0	-518144.0	-3421.0	137482.0
8	15	47	0	832	73.0	-496952.0	-3391.0	151409.0
8	15	47	0	833	74.0	-476854.0	-3364.0	124334.0
8	15	47	0	834	75.0	-457717.0	-3319.0	54839.0
8	15	47	0	834	76.0	-439613.0	-3288.0	-47239.0
8	15	47	0	835	77.0	-422636.0	-3235.0	-146967.0
8	15	47	0	835	78.0	-406624.0	-3179.0	-182016.0
8	15	47	0	836	79.0	-391579.0	-3119.0	-128079.0
8	15	47	0	837	80.0	-377412.0	-3070.0	-12732.0
8	15	47	0	838	82.0	-352090.0	-3037.0	140863.0
8	15	47	0	839	83.0	-340606.0	-3018.0	152095.0
8	15	47	0	840	84.0	-329849.0	-2979.0	122310.0
8	15	47	0	840	85.0	-319970.0	-2956.0	50262.0
8	15	47	0	841	86.0	-310781.0	-2934.0	-52791.0
8	15	47	0	841	87.0	-302157.0	-2896.0	-149402.0
8	15	47	0	873	88.0	-294271.0	-2852.0	-180025.0
8	15	47	0	874	89.0	-286942.0	-2796.0	-123352.0
8	15	47	1	99	90.0	-280076.0	-2756.0	-10508.0
8	15	47	1	100	91.0	-273786.0	-2747.0	89004.0
8	15	47	1	101	92.0	-268000.0	-2723.0	137403.0
8	15	47	1	144	93.0	-262753.0	-2694.0	147858.0
8	15	47	1	145	94.0	-257968.0	-2672.0	115578.0
8	15	47	1	145	95.0	-253404.0	-2669.0	43516.0
8	15	47	1	146	96.0	-249174.0	-2653.0	-57463.0
8	15	47	1	146	97.0	-245381.0	-2606.0	-151374.0
8	15	47	1	147	98.0	-241755.0	-2563.0	-180491.0
8	15	47	1	148	99.0	-238517.0	-2509.0	-120123.0
8	15	47	1	148	100.0	-235596.0	-2482.0	-6734.0
8	15	47	1	149	101.0	-232757.0	-2473.0	90026.0
8	15	47	1	149	102.0	-230112.0	-2450.0	135328.0
8	15	47	1	150	104.0	-225433.0	-2450.0	110476.0
8	15	47	1	150	105.0	-223347.0	-2442.0	38917.0
8	15	47	1	151	106.0	-221483.0	-2402.0	-62819.0
8	15	47	1	151	217.0	-195577.0	-1577.0	-173955.0
8	15	47	1	152	218.0	-195447.0	-1552.0	-143148.0
8	15	47	1	153	239.0	-195169.0	-1592.0	-22029.0
8	15	47	1	153	240.0	-195247.0	-1610.0	81979.0
8	15	47	1	154	241.0	-195219.0	-1630.0	135675.0
8	15	47	1	154	242.0	-195187.0	-1648.0	150482.0
8	15	47	1	155	243.0	-195174.0	-1667.0	125372.0
8	15	47	1	155	244.0	-195273.0	-1690.0	59193.0
8	15	47	1	234	245.0	-195262.0	-1696.0	-38399.0
8	15	47	1	235	246.0	-195297.0	-1712.0	-138677.0
8	15	47	1	235	247.0	-195307.0	-1704.0	-177421.0
8	15	47	1	236	248.0	-195270.0	-1668.0	-129189.0
8	15	47	1	237	249.0	-195307.0	-1679.0	-19149.0
8	15	47	1	237	250.0	-195227.0	-1687.0	82315.0
8	15	47	1	238	251.0	-195033.0	-1713.0	133951.0
8	15	47	1	238	252.0	-194957.0	-1714.0	147978.0
8	15	47	1	239	253.0	-194876.0	-1720.0	122520.0
8	15	47	1	239	254.0	-194870.0	-1736.0	54751.0
8	15	47	1	240	255.0	-194993.0	-1763.0	-45232.0
8	15	47	1	240	0.0	-195166.0	-1751.0	-142297.0
8	15	47	1	241	1.0	-195136.0	-1720.0	-176846.0
8	15	47	1	242	2.0	-195008.0	-1696.0	-124181.0
8	15	47	1	242	3.0	-194987.0	-1709.0	-12457.0
8	15	47	1	243	5.0	-195151.0	-1774.0	136127.0
8	15	47	1	243	28.0	-195032.0	-1957.0	37384.0
8	15	47	1	244	29.0	-195029.0	-1984.0	-65886.0
8	15	47	1	244	30.0	-194986.0	-1964.0	-155351.0
8	15	47	1	245	31.0	-195033.0	-1954.0	-176474.0
8	15	47	1	245	32.0	-195079.0	-1953.0	-108041.0
8	15	47	1	246	33.0	-194971.0	-1952.0	5510.0
8	15	47	1	246	34.0	-195005.0	-1972.0	96368.0
8	15	47	1	278	35.0	-195027.0	-2004.0	138138.0
8	15	47	1	279	36.0	-195014.0	-2027.0	144027.0
8	15	47	1	279	37.0	-195024.0	-2052.0	107898.0
8	15	47	1	295	38.0	-195039.0	-2066.0	32841.0
8	15	47	1	295	39.0	-195030.0	-2084.0	-71452.0
8	15	47	1	296	40.0	-195143.0	-2067.0	-159252.0
8	15	47	1	296	41.0	-195174.0	-2055.0	-177283.0
8	15	47	1	297	42.0	-195141.0	-2047.0	-105164.0
8	15	47	1	297	43.0	-195062.0	-2060.0	10644.0
8	15	47	1	298	44.0	-194994.0	-2082.0	100208.0
8	15	47	1	298	45.0	-195062.0	-2093.0	137974.0
8	15	47	1	299	46.0	-195088.0	-2111.0	140453.0
8	15	47	1	300	47.0	-195190.0	-2109.0	101366.0
8	15	47	1	300	48.0	-195131.0	-2117.0	25001.0
8	15	47	1	301	49.0	-195023.0	-2137.0	-79117.0
8	15	47	1	301	50.0	-195111.0	-2134.0	-162746.0
8	15	47	1	302	51.0	-195111.0	-2102.0	-176985.0
8	15	47	1	302	52.0	-195079.0	-2096.0	-102147.0
8	15	47	1	303	53.0	-195090.0	-2107.0	14595.0
8	15	47	1	303	54.0	-194983.0	-2132.0	102416.0
8	15	47	1	304	55.0	-194897.0	-2148.0	138954.0
8	15	47	1	304	56.0	-194840.0	-2149.0	139894.0
8	15	47	1	322	57.0	-194847.0	-2169.0	97688.0
8	15	47	1	323	58.0	-194836.0	-2175.0	17993.0
8	15	47	1	324	59.0	-194847.0	-2193.0	-90347.0
8	15	47	1	324	60.0	-194883.0	-2207.0	-172658.0
8	15	47	1	325	61.0	-195001.0	-2192.0	-179843.0
8	15	47	1	326	62.0	-195077.0	-2157.0	-98915.0
8	15	47	1	326	63.0	-195144.0	-2152.0	16874.0
8	15	47	1	327	64.0	-195184.0	-2177.0	101877.0
8	15	47	1	327	65.0	-195266.0	-2196.0	135038.0
8	15	47	1	328	66.0	-195246.0	-2233.0	132565.0
8	15	47	1	329	67.0	-195194.0	-2249.0	88012.0
8	15	47	1	329	68.0	-195214.0	-2247.0	5268.0
8	15	47	1	330	69.0	-195164.0	-2252.0	-104242.0
8	15	47	1	330	70.0	-195189.0	-2256.0	-182747.0
8	15	47	1	331	71.0	-195063.0	-2241.0	-184667.0
8	15	47	1	332	73.0	-195006.0	-2236.0	13191.0
8	15	47	1	332	74.0	-194984.0	-2265.0	96962.0
8	15	47	1	333	75.0	-195042.0	-2276.0	129309.0
8	15	47	1	333	76.0	-195057.0	-2293.0	126062.0
8	15	47	1	334	77.0	-194966.0	-2309.0	80397.0
8	15	47	1	335	78.0	-194908.0	-2331.0	-1691.0
8	15	47	1	368	79.0	-194843.0	-2351.0	-109872.0
8	15	47	1	368	80.0	-194927.0	-2344.0	-183409.0
8	15	47	1	369	81.0	-194949.0	-2320.0	-179269.0
8	15	47	1	370	82.0	-194896.0	-2302.0	-89971.0
8	15	47	1	370	83.0	-195051.0	-2307.0	24576.0
8	15	47	1	371	84.0	-195192.0	-2329.0	104288.0
8	15	47	1	371	85.0	-195062.0	-2347.0	135316.0
8	15	47	1	372	86.0	-194931.0	-2366.0	128313.0
8	15	47	1	373	87.0	-194857.0	-2386.0	77108.0
8	15	47	1	373	88.0	-194890.0	-2405.0	-7529.0
8	15	47	1	374	89.0	-194892.0	-2401.0	-116229.0
8	15	47	1	374	90.0	-194945.0	-2384.0	-186936.0
8	15	47	1	375	91.0	-194914.0	-2386.0	-179504.0
8	15	47	1	375	92.0	-194841.0	-2371.0	-86421.0
8	15	47	1	376	93.0	-194820.0	-2366.0	29006.0
8	15	47	1	377	95.0	-194832.0	-2417.0	135098.0
8	15	47	1	377	96.0	-194803.0	-2441.0	128643.0
8	15	47	1	378	97.0	-194796.0	-2457.0	77443.0
8	15	47	1	378	98.0	-194837.0	-2457.0	-8971.0
8	15	47	1	379	99.0	-194945.0	-2482.0	-116344.0
8	15	47	1	379	100.0	-194984.0	-2482.0	-183780.0
8	15	47	1	380	101.0	-194840.0	-2474.0	-171141.0
8	15	47	1	459	102.0	-194797.0	-2465.0	-74746.0
8	15	47	1	459	103.0	-194799.0	-2462.0	40559.0
8	15	47	1	503	104.0	-194843.0	-2477.0	114919.0
8	15	47	1	504	105.0	-194896.0	-2510.0	142592.0
8	15	47	1	504	106.0	-194862.0	-2527.0	133598.0
8	15	47	1	505	107.0	-194779.0	-2552.0	80013.0
8	15	47	1	506	108.0	-194869.0	-2558.0	-7782.0
8	15	47	1	506	109.0	-194977.0	-2576.0	-114864.0
8	15	47	1	507	110.0	-194992.0	-2544.0	-176683.0
8	15	47	1	508	111.0	-195016.0	-2511.0	-157636.0
8	15	47	1	508	112.0	-194970.0	-2514.0	-57950.0
8	15	47	1	509	113.0	-194793.0	-2539.0	55201.0
8	15	47	1	509	114.0	-194709.0	-2562.0	124129.0
8	15	47	1	510	115.0	-194757.0	-2592.0	148374.0
8	15	47	1	510	116.0	-194882.0	-2613.0	134467.0
8	15	47	1	511	140.0	-194732.0	-2779.0	-174080.0
8	15	47	1	512	141.0	-194708.0	-2767.0	-139844.0
8	15	47	1	512	142.0	-194689.0	-2772.0	-34062.0
8	15	47	1	513	163.0	-194792.0	-2973.0	81688.0
8	15	47	1	513	164.0	-194802.0	-2996.0	136234.0
8	15	47	1	514	165.0	-194731.0	-3008.0	150665.0
8	15	47	1	514	166.0	-194708.0	-3041.0	126044.0
8	15	47	1	515	167.0	-194761.0	-3060.0	59644.0
8	15	47	1	515	168.0	-194699.0	-3086.0	-37851.0
8	15	47	1	549	169.0	-194646.0	-3082.0	-136657.0
8	15	47	1	549	170.0	-194636.0	-3069.0	-173442.0
8	15	47	1	550	171.0	-194672.0	-3052.0	-123934.0
8	15	47	1	550	172.0	-194787.0	-3049.0	-11607.0
8	15	47	1	551	173.0	-194952.0	-3062.0	91545.0
8	15	47	1	552	174.0	-195005.0	-3084.0	141939.0
8	15	47	1	552	175.0	-195021.0	-3094.0	153785.0
8	15	47	1	553	176.0	-194872.0	-3102.0	126382.0
8	15	47	1	553	177.0	-194777.0	-3127.0	57349.0
8	15	47	1	554	178.0	-194894.0	-3138.0	-43171.0
8	15	47	1	554	179.0	-194902.0	-3134.0	-141597.0
8	15	47	1	555	180.0	-194855.0	-3107.0	-175454.0
8	15	47	1	556	181.0	-194797.0	-3091.0	-120976.0
8	15	47	1	556	182.0	-194742.0	-3102.0	-8581.0
8	15	47	1	557	183.0	-194660.0	-3111.0	91974.0
8	15	47	1	557	185.0	-194886.0	-3156.0	150161.0
8	15	47	1	558	186.0	-194833.0	-3193.0	121699.0
8	15	47	1	558	187.0	-194833.0	-3189.0	52849.0
8	15	47	1	559	188.0	-194997.0	-3189.0	-50912.0
8	15	47	1	560	189.0	-195097.0	-3194.0	-147552.0
8	15	47	1	560	190.0	-195129.0	-3181.0	-176936.0
8	15	47	1	730	191.0	-195092.0	-3169.0	-117666.0
8	15	47	1	730	192.0	-195114.0	-3158.0	-3931.0
8	15	47	1	731	193.0	-195113.0	-3161.0	93439.0
8	15	47	1	732	194.0	-195151.0	-3165.0	139026.0
8	15	47	1	732	195.0	-195235.0	-3186.0	147643.0
8	15	47	1	733	196.0	-195249.0	-3204.0	114423.0
8	15	47	1	733	197.0	-195187.0	-3197.0	41479.0
8	15	47	1	734	198.0	-195182.0	-3207.0	-63566.0
8	15	47	1	735	199.0	-195241.0	-3201.0	-157867.0
8	15	47	1	735	200.0	-195277.0	-3186.0	-184510.0
8	15	47	1	736	201.0	-195300.0	-3166.0	-121601.0
8	15	47	1	737	202.0	-195239.0	-3160.0	-7367.0
8	15	47	1	737	203.0	-195290.0	-3165.0	88075.0
8	15	47	1	738	204.0	-195334.0	-3185.0	132760.0
8	15	47	1	738	205.0	-195289.0	-3211.0	141186.0
8	15	47	1	739	19.0	-469963.0	-2456.0	150897.0
8	15	47	1	739	20.0	-514717.0	-2451.0	95318.0
8	15	47	1	740	21.0	-547864.0	-2416.0	2373.0
8	15	47	1	741	22.0	-571400.0	-2385.0	-113499.0
8	15	47	1	741	23.0	-586565.0	-2318.0	-180898.0
8	15	47	1	742	24.0	-594841.0	-2241.0	-166176.0
8	15	47	1	773	25.0	-597389.0	-2191.0	-64342.0
8	15	47	1	774	26.0	-595322.0	-2177.0	55381.0
8	15	47	1	775	27.0	-589598.0	-2141.0	129954.0
8	15	47	1	775	28.0	-580932.0	-2104.0	157016.0
8	15	47	1	776	29.0	-569781.0	-2073.0	146150.0
8	15	47	1	777	30.0	-556892.0	-2044.0	88799.0
8	15	47	1	777	31.0	-542839.0	-2006.0	-4291.0
8	15	47	1	778	32.0	-527842.0	-1957.0	-119073.0
8	15	47	1	778	33.0	-512304.0	-1908.0	-185243.0
8	15	47	1	779	34.0	-496477.0	-1838.0	-164842.0
8	15	47	1	780	35.0	-480498.0	-1787.0	-61272.0
8	15	47	1	780	36.0	-464670.0	-1751.0	53276.0
8	15	47	1	781	37.0	-449147.0	-1712.0	123204.0
8	15	47	1	781	38.0	-434041.0	-1684.0	147098.0
8	15	47	1	782	39.0	-419466.0	-1663.0	132817.0
8	15	47	1	782	41.0	-391627.0	-1627.0	-19837.0
8	15	47	1	783	42.0	-378676.0	-1602.0	-129501.0
8	15	47	1	784	43.0	-366319.0	-1536.0	-188339.0
8	15	47	1	784	44.0	-354478.0	-1464.0	-160141.0
8	15	47	1	785	45.0	-343298.0	-1430.0	-51566.0
8	15	47	1	786	46.0	-333014.0	-1407.0	62134.0
8	15	47	1	786	47.0	-323332.0	-1376.0	127288.0
8	15	47	1	822	48.0	-314175.0	-1357.0	148808.0
8	15	47	1	823	49.0	-305695.0	-1339.0	134198.0
8	15	47	1	823	50.0	-297850.0	-1312.0	75238.0
8	15	47	1	824	51.0	-290422.0	-1279.0	-19205.0
8	15	47	1	825	52.0	-283528.0	-1241.0	-126972.0
8	15	47	1	825	53.0	-277039.0	-1194.0	-181646.0
8	15	47	1	826	54.0	-270970.0	-1146.0	-150392.0
8	15	47	1	827	55.0	-265371.0	-1097.0	-43569.0
8	15	47	1	827	56.0	-260211.0	-1064.0	67458.0
8	15	47	1	828	57.0	-255352.0	-1055.0	128693.0
8	15	47	1	829	58.0	-250820.0	-1032.0	148193.0
8	15	47	1	829	59.0	-246744.0	-1012.0	128465.0
8	15	47	1	830	60.0	-242872.0	-987.0	64868.0
8	15	47	1	830	61.0	-239397.0	-985.0	-31383.0
8	15	47	1	831	62.0	-236182.0	-949.0	-136374.0
8	15	47	1	831	64.0	-230495.0	-846.0	-150421.0
8	15	47	1	832	65.0	-227955.0	-821.0	-42211.0
8	15	47	1	832	66.0	-225580.0	-794.0	66186.0
8	15	47	1	833	67.0	-223397.0	-800.0	125747.0
8	15	47	1	834	68.0	-221426.0	-778.0	143251.0
8	15	47	1	834	69.0	-219481.0	-781.0	123234.0
8	15	47	1	953	70.0	-217762.0	-775.0	60961.0
8	15	47	1	954	71.0	-216187.0	-758.0	-35348.0
8	15	47	1	954	72.0	-214722.0	-722.0	-139102.0
8	15	47	1	998	73.0	-213409.0	-684.0	-185384.0
8	15	47	2	23	74.0	-212196.0	-626.0	-144904.0
8	15	47	2	23	75.0	-211043.0	-585.0	-34839.0
8	15	47	2	24	76.0	-210106.0	-588.0	72379.0
8	15	47	2	25	77.0	-209188.0	-586.0	130410.0
8	15	47	2	25	78.0	-208302.0	-553.0	147299.0
8	15	47	2	26	79.0	-207457.0	-556.0	123619.0
8	15	47	2	26	80.0	-206657.0	-541.0	57005.0
8	15	47	2	27	81.0	-205952.0	-522.0	-41491.0
8	15	47	2	27	82.0	-205348.0	-479.0	-143012.0
8	15	47	2	28	83.0	-204742.0	-451.0	-183588.0
8	15	47	2	28	84.0	-204128.0	-407.0	-136964.0
8	15	47	2	29	131.0	-196511.0	-98.0	-69088.0
8	15	47	2	30	132.0	-196417.0	-97.0	-158566.0
8	15	47	2	30	133.0	-196495.0	-81.0	-178079.0
8	15	47	2	31	134.0	-196384.0	-56.0	-108857.0
8	15	47	2	31	154.0	-196265.0	-129.0	-99051.0
8	15	47	2	32	155.0	-196191.0	-143.0	20213.0
8	15	47	2	32	156.0	-196212.0	-167.0	107247.0
8	15	47	2	33	157.0	-196326.0	-187.0	141518.0
8	15	47	2	33	158.0	-196246.0	-199.0	138835.0
8	15	47	2	34	159.0	-196067.0	-226.0	92787.0
8	15	47	2	47	160.0	-196061.0	-236.0	11001.0
8	15	47	2	47	161.0	-196127.0	-226.0	-95347.0
8	15	47	2	48	162.0	-196131.0	-213.0	-172687.0
8	15	47	2	49	163.0	-196167.0	-183.0	-176458.0
8	15	47	2	49	164.0	-196176.0	-181.0	-91016.0
8	15	47	2	50	165.0	-196102.0	-192.0	25761.0
8	15	47	2	51	166.0	-196064.0	-207.0	109403.0
8	15	47	2	51	167.0	-196128.0	-217.0	143958.0
8	15	47	2	52	168.0	-196107.0	-247.0	141066.0
8	15	47	2	52	169.0	-196052.0	-272.0	93683.0
8	15	47	2	53	170.0	-195988.0	-279.0	10251.0
8	15	47	2	54	171.0	-196017.0	-281.0	-98182.0
8	15	47	2	54	172.0	-196182.0	-264.0	-173931.0
8	15	47	2	55	173.0	-196096.0	-245.0	-172187.0
8	15	47	2	55	174.0	-195961.0	-221.0	-83921.0
8	15	47	2	56	176.0	-196114.0	-257.0	111912.0
8	15	47	2	56	177.0	-196028.0	-286.0	142503.0
8	15	47	2	57	178.0	-196001.0	-298.0	137209.0
8	15	47	2	58	179.0	-195912.0	-322.0	86216.0
8	15	47	2	58	180.0	-195708.0	-332.0	1809.0
8	15	47	2	59	181.0	-195606.0	-341.0	-106316.0
8	15	47	2	135	182.0	-195609.0	-332.0	-178197.0
8	15	47	2	135	183.0	-195551.0	-320.0	-171201.0
8	15	47	2	136	184.0	-195582.0	-312.0	-79541.0
8	15	47	2	178	185.0	-195634.0	-336.0	35047.0
8	15	47	2	178	186.0	-195721.0	-349.0	112780.0
8	15	47	2	179	187.0	-195684.0	-350.0	142922.0
8	15	47	2	180	188.0	-195703.0	-361.0	135463.0
8	15	47	2	180	189.0	-195757.0	-381.0	84339.0
8	15	47	2	181	190.0	-195706.0	-396.0	-3306.0
8	15	47	2	181	191.0	-195667.0	-414.0	-112316.0
8	15	47	2	182	192.0	-195863.0	-383.0	-180075.0
8	15	47	2	183	193.0	-195826.0	-351.0	-169382.0
8	15	47	2	183	194.0	-195757.0	-362.0	-73265.0
8	15	47	2	184	195.0	-195807.0	-387.0	42627.0
8	15	47	2	185	196.0	-195812.0	-389.0	118102.0
8	15	47	2	185	198.0	-195515.0	-427.0	135848.0
8	15	47	2	186	221.0	-195622.0	-672.0	-131872.0
8	15	47	2	186	222.0	-195684.0	-673.0	-186786.0
8	15	47	2	187	223.0	-195576.0	-644.0	-157135.0
8	15	47	2	188	244.0	-195596.0	-946.0	-27459.0
8	15	47	2	188	245.0	-195507.0	-976.0	82461.0
8	15	47	2	189	246.0	-195605.0	-1006.0	141926.0
8	15	47	2	189	247.0	-195642.0	-1042.0	159594.0
8	15	47	2	190	248.0	-195691.0	-1066.0	135286.0
8	15	47	2	190	249.0	-195517.0	-1096.0	68924.0
8	15	47	2	222	250.0	-195657.0	-1136.0	-28516.0
8	15	47	2	223	251.0	-195602.0	-1142.0	-132622.0
8	15	47	2	223	252.0	-195551.0	-1134.0	-178091.0
8	15	47	2	224	253.0	-195471.0	-1131.0	-134940.0
8	15	47	2	225	254.0	-195393.0	-1127.0	-22617.0
8	15	47	2	225	255.0	-195395.0	-1159.0	85678.0
8	15	47	2	226	0.0	-195329.0	-1176.0	143171.0
8	15	47	2	227	1.0	-195457.0	-1199.0	160051.0
8	15	47	2	227	2.0	-195404.0	-1230.0	134397.0
8	15	47	2	228	3.0	-195456.0	-1250.0	64685.0
8	15	47	2	228	4.0	-195471.0	-1272.0	-37436.0
8	15	47	2	229	5.0	-195566.0	-1277.0	-140197.0
8	15	47	2	230	6.0	-195698.0	-1269.0	-178589.0
8	15	47	2	230	7.0	-195623.0	-1265.0	-127481.0
8	15	47	2	231	8.0	-195679.0	-1286.0	-12066.0
8	15	47	2	232	10.0	-195753.0	-1340.0	144591.0
8	15	47	2	232	11.0	-195766.0	-1352.0	157062.0
8	15	47	2	233	12.0	-195801.0	-1377.0	128233.0
8	15	47	2	233	13.0	-195816.0	-1411.0	56796.0
8	15	47	2	234	14.0	-195923.0	-1445.0	-46861.0
8	15	47	2	235	15.0	-195776.0	-1446.0	-149257.0
8	15	47	2	268	16.0	-195821.0	-1437.0	-184924.0
8	15	47	2	268	17.0	-195740.0	-1439.0	-128807.0
8	15	47	2	269	18.0	-195729.0	-1456.0	-12622.0
8	15	47	2	270	19.0	-195743.0	-1496.0	90929.0
8	15	47	2	271	20.0	-195741.0	-1512.0	141333.0
8	15	47	2	271	21.0	-195826.0	-1531.0	151094.0
8	15	47	2	272	22.0	-195763.0	-1564.0	119156.0
8	15	47	2	273	23.0	-195676.0	-1569.0	46253.0
8	15	47	2	273	24.0	-195648.0	-1584.0	-56627.0
8	15	47	2	274	25.0	-195693.0	-1586.0	-153793.0
8	15	47	2	275	26.0	-195578.0	-1595.0	-183898.0
8	15	47	2	275	27.0	-195544.0	-1573.0	-123706.0
8	15	47	2	276	28.0	-195570.0	-1586.0	-7466.0
8	15	47	2	277	29.0	-195626.0	-1604.0	94507.0
8	15	47	2	277	30.0	-195595.0	-1622.0	142900.0
8	15	47	2	278	32.0	-195396.0	-1666.0	118848.0
8	15	47	2	278	33.0	-195425.0	-1699.0	44333.0
8	15	47	2	279	34.0	-195612.0	-1729.0	-61808.0
8	15	47	2	280	35.0	-195634.0	-1730.0	-156880.0
8	15	47	2	280	36.0	-195650.0	-1727.0	-183230.0
8	15	47	2	281	37.0	-195681.0	-1725.0	-117937.0
8	15	47	2	281	38.0	-195558.0	-1727.0	749.0
8	15	47	2	312	39.0	-195516.0	-1760.0	97678.0
8	15	47	2	313	40.0	-195647.0	-1781.0	143201.0
8	15	47	2	314	41.0	-195620.0	-1794.0	150288.0
8	15	47	2	314	42.0	-195570.0	-1819.0	113424.0
8	15	47	2	315	43.0	-195619.0	-1846.0	36739.0
8	15	47	2	316	44.0	-195841.0	-1880.0	-70606.0
8	15	47	2	316	45.0	-195770.0	-1876.0	-160811.0
8	15	47	2	317	46.0	-195716.0	-1846.0	-181134.0
8	15	47	2	318	47.0	-195817.0	-1838.0	-111218.0
8	15	47	2	318	48.0	-195777.0	-1843.0	7228.0
8	15	47	2	319	49.0	-195798.0	-1891.0	102275.0
8	15	47	2	320	50.0	-195948.0	-1901.0	144771.0
8	15	47	2	320	51.0	-195838.0	-1914.0	148590.0
8	15	47	2	321	52.0	-195709.0	-1942.0	108526.0
8	15	47	2	322	53.0	-195886.0	-1959.0	29931.0
8	15	47	2	322	55.0	-195768.0	-1982.0	-167917.0
8	15	47	2	323	56.0	-195774.0	-1964.0	-185055.0
8	15	47	2	323	57.0	-195857.0	-1961.0	-109319.0
8	15	47	2	324	58.0	-195648.0	-1977.0	9393.0
8	15	47	2	325	59.0	-195656.0	-2016.0	100906.0
8	15	47	2	325	60.0	-195577.0	-2043.0	139153.0
8	15	47	2	404	61.0	-195557.0	-2074.0	141044.0
8	15	47	2	405	62.0	-195559.0	-2106.0	100251.0
8	15	47	2	405	63.0	-195667.0	-2112.0	20065.0
8	15	47	2	406	64.0	-195572.0	-2115.0	-87287.0
8	15	47	2	407	65.0	-195679.0	-2135.0	-171519.0
8	15	47	2	407	66.0	-195502.0	-2110.0	-182450.0
8	15	47	2	408	67.0	-195469.0	-2098.0	-102549.0
8	15	47	2	409	68.0	-195502.0	-2115.0	15041.0
8	15	47	2	409	69.0	-195457.0	-2149.0	103101.0
8	15	47	2	410	70.0	-195537.0	-2180.0	138484.0
8	15	47	2	411	71.0	-195563.0	-2192.0	138301.0
8	15	47	2	411	72.0	-195599.0	-2216.0	93612.0
8	15	47	2	412	73.0	-195437.0	-2219.0	10903.0
8	15	47	2	412	74.0	-195495.0	-2222.0	-98097.0
8	15	47	2	413	75.0	-195437.0	-2225.0	-176844.0
8	15	47	2	414	77.0	-195534.0	-2224.0	-101781.0
8	15	47	2	415	100.0	-195787.0	-2509.0	144563.0
8	15	47	2	416	101.0	-195633.0	-2534.0	137774.0
8	15	47	2	416	102.0	-195626.0	-2547.0	87225.0
8	15	47	2	417	103.0	-195582.0	-2573.0	101.0
8	15	47	2	418	104.0	-195454.0	-2582.0	-108822.0
8	15	47	2	418	105.0	-195415.0	-2582.0	-178941.0
8	15	47	2	449	106.0	-195462.0	-2578.0	-169653.0
8	15	47	2	449	107.0	-195530.0	-2581.0	-76082.0
8	15	47	2	450	108.0	-195440.0	-2591.0	39154.0
8	15	47	2	451	109.0	-195433.0	-2609.0	116521.0
8	15	47	2	451	110.0	-195532.0	-2629.0	145899.0
8	15	47	2	452	111.0	-195479.0	-2655.0	138584.0
8	15	47	2	453	112.0	-195431.0	-2652.0	86158.0
8	15	47	2	453	113.0	-195384.0	-2677.0	-748.0
8	15	47	2	454	114.0	-195570.0	-2694.0	-110034.0
8	15	47	2	455	115.0	-195517.0	-2717.0	-176435.0
8	15	47	2	455	116.0	-195444.0	-2673.0	-162870.0
8	15	47	2	456	117.0	-195534.0	-2669.0	-65497.0
8	15	47	2	457	118.0	-195652.0	-2696.0	48279.0
8	15	47	2	457	119.0	-195656.0	-2719.0	120133.0
8	15	47	2	458	120.0	-195811.0	-2745.0	147694.0
8	15	47	2	458	122.0	-195739.0	-2796.0	86679.0
8	15	47	2	459	123.0	-195579.0	-2811.0	-979.0
8	15	47	2	460	124.0	-195648.0	-2817.0	-111645.0
8	15	47	2	460	125.0	-195697.0	-2794.0	-175650.0
8	15	47	2	461	126.0	-195592.0	-2787.0	-155961.0
8	15	47	2	461	127.0	-195586.0	-2793.0	-55171.0
8	15	47	2	492	128.0	-195451.0	-2803.0	58251.0
8	15	47	2	493	129.0	-195637.0	-2844.0	128931.0
8	15	47	2	494	130.0	-195632.0	-2862.0	153861.0
8	15	47	2	494	131.0	-195517.0	-2901.0	139853.0
8	15	47	2	495	132.0	-195404.0	-2910.0	82941.0
8	15	47	2	496	133.0	-195457.0	-2919.0	-6716.0
8	15	47	2	496	134.0	-195460.0	-2921.0	-115288.0
8	15	47	2	497	135.0	-195389.0	-2916.0	-173842.0
8	15	47	2	498	136.0	-195419.0	-2926.0	-148994.0
8	15	47	2	498	137.0	-195251.0	-2915.0	-46011.0
8	15	47	2	499	138.0	-195164.0	-2919.0	64953.0
8	15	47	2	500	139.0	-195324.0	-2947.0	130602.0
8	15	47	2	500	140.0	-195456.0	-2969.0	154811.0
8	15	47	2	501	141.0	-195537.0	-2990.0	139354.0
8	15	47	2	502	142.0	-195661.0	-3014.0	77441.0
8	15	47	2	502	144.0	-195787.0	-3025.0	-124284.0
8	15	47	2	503	145.0	-195902.0	-3012.0	-178637.0
8	15	47	2	504	146.0	-195846.0	-2981.0	-149951.0
8	15	47	2	504	147.0	-195874.0	-2982.0	-47193.0
8	15	47	2	505	148.0	-195872.0	-3001.0	62858.0
8	15	47	2	505	149.0	-195834.0	-3023.0	129013.0
8	15	47	2	506	150.0	-195781.0	-3050.0	150442.0
8	15	47	2	538	151.0	-195798.0	-3089.0	132025.0
8	15	47	2	539	152.0	-195867.0	-3096.0	69078.0
8	15	47	2	539	153.0	-195856.0	-3106.0	-25991.0
8	15	47	2	540	154.0	-195887.0	-3118.0	-131429.0
8	15	47	2	541	155.0	-195965.0	-3121.0	-183156.0
8	15	47	2	541	156.0	-195781.0	-3080.0	-148794.0
8	15	47	2	542	157.0	-195875.0	-3074.0	-42021.0
8	15	47	2	543	158.0	-195898.0	-3089.0	67851.0
8	15	47	2	543	159.0	-195867.0	-3109.0	129283.0
8	15	47	2	544	160.0	-195817.0	-3116.0	147569.0
8	15	47	2	545	161.0	-195793.0	-3142.0	127186.0
8	15	47	2	545	162.0	-195756.0	-3159.0	63425.0
8	15	47	2	546	163.0	-195765.0	-3162.0	-32001.0
8	15	47	2	546	164.0	-195879.0	-3172.0	-132583.0
8	15	47	2	547	165.0	-195799.0	-3144.0	-178090.0
8	15	47	2	548	167.0	-195994.0	-3124.0	-28032.0
8	15	47	2	548	168.0	-195976.0	-3147.0	80631.0
8	15	47	2	549	169.0	-195836.0	-3169.0	139318.0
8	15	47	2	550	170.0	-195899.0	-3206.0	156818.0
8	15	47	2	550	171.0	-195707.0	-3226.0	133919.0
8	15	47	2	551	172.0	-195574.0	-3226.0	68159.0
8	15	47	2	674	173.0	-195586.0	-3253.0	-29747.0
8	15	47	2	675	174.0	-195738.0	-3253.0	-131069.0
8	15	47	2	676	175.0	-195732.0	-3260.0	-173938.0
8	15	47	2	677	176.0	-195654.0	-3254.0	-128720.0
8	15	47	2	677	177.0	-195617.0	-3259.0	-18066.0
8	15	47	2	719	178.0	-195592.0	-3262.0	86039.0
8	15	47	2	720	179.0	-195641.0	-3279.0	140241.0
8	15	47	2	720	180.0	-195491.0	-3294.0	154013.0
8	15	47	2	721	181.0	-195416.0	-3328.0	127600.0
8	15	47	2	722	182.0	-195420.0	-3352.0	59104.0
8	15	47	2	722	183.0	-195473.0	-3361.0	-42554.0
8	15	47	2	723	184.0	-195650.0	-3355.0	-143675.0
8	15	47	2	724	185.0	-195611.0	-3317.0	-182017.0
8	15	47	2	724	186.0	-195572.0	-3307.0	-130437.0
8	15	47	2	725	187.0	-195625.0	-3312.0	-17542.0
8	15	47	2	726	235.0	-431752.0	-3403.0	-195583.0
8	15	47	2	726	236.0	-517428.0	-3405.0	-111489.0
8	15	47	2	727	237.0	-359961.0	-3413.0	15548.0
8	15	47	2	727	238.0	-53288.0	-3417.0	113199.0
8	15	47	2	728	239.0	265650.0	-3444.0	155303.0
8	15	47	2	729	1.0	300308.0	-3317.0	32325.0
8	15	47	2	729	2.0	277569.0	-3306.0	123017.0
8	15	47	2	730	3.0	254624.0	-3297.0	159654.0
8	15	47	2	730	4.0	227796.0	-3304.0	159326.0
8	15	47	2	731	5.0	196897.0	-3308.0	109697.0
8	15	47	2	732	6.0	163302.0	-3306.0	21478.0
8	15	47	2	764	7.0	125588.0	-3295.0	-94486.0
8	15	47	2	764	8.0	86923.0	-3244.0	-176661.0
8	15	47	2	765	9.0	36604.0	-3205.0	-177316.0
8	15	47	2	766	10.0	-21608.0	-3171.0	-83715.0
8	15	47	2	767	11.0	-98734.0	-3172.0	41456.0
8	15	47	2	767	12.0	-205007.0	-3154.0	127664.0
8	15	47	2	768	13.0	-336173.0	-3151.0	160277.0
8	15	47	2	769	14.0	-419562.0	-3131.0	153278.0
8	15	47	2	769	15.0	-465850.0	-3105.0	98981.0
8	15	47	2	770	16.0	-499404.0	-3109.0	7878.0
8	15	47	2	771	17.0	-523149.0	-3069.0	-109550.0
8	15	47	2	771	18.0	-538659.0	-3004.0	-187474.0
8	15	47	2	772	19.0	-547584.0	-2961.0	-181529.0
8	15	47	2	773	20.0	-551099.0	-2917.0	-81984.0
8	15	47	2	773	21.0	-550236.0	-2892.0	43379.0
8	15	47	2	774	23.0	-538087.0	-2832.0	157867.0
8	15	47	2	774	24.0	-528473.0	-2810.0	149692.0
8	15	47	2	775	25.0	-517066.0	-2780.0	94661.0
8	15	47	2	776	26.0	-504564.0	-2763.0	2371.0
8	15	47	2	776	27.0	-491259.0	-2731.0	-112239.0
8	15	47	2	777	28.0	-477454.0	-2683.0	-184367.0
8	15	47	2	777	29.0	-463239.0	-2627.0	-171042.0
8	15	47	2	808	30.0	-448924.0	-2586.0	-68008.0
8	15	47	2	810	31.0	-434772.0	-2549.0	51707.0
8	15	47	2	810	32.0	-420997.0	-2555.0	129046.0
8	15	47	2	811	33.0	-407531.0	-2530.0	158123.0
8	15	47	2	812	34.0	-394406.0	-2499.0	148538.0
8	15	47	2	812	35.0	-381892.0	-2469.0	91122.0
8	15	47	2	813	36.0	-369843.0	-2446.0	-1376.0
8	15	47	2	814	37.0	-358443.0	-2409.0	-113894.0
8	15	47	2	814	38.0	-347444.0	-2345.0	-181107.0
8	15	47	2	815	39.0	-337019.0	-2292.0	-164452.0
8	15	47	2	899	40.0	-327251.0	-2242.0	-59220.0
8	15	47	2	900	41.0	-318192.0	-2225.0	59626.0
8	15	47	2	901	42.0	-309627.0	-2209.0	133223.0
8	15	47	2	901	43.0	-301472.0	-2182.0	159074.0
8	15	47	2	902	44.0	-293757.0	-2163.0	145766.0
8	15	47	2	903	46.0	-280041.0	-2121.0	-5771.0
8	15	47	2	903	47.0	-273799.0	-2087.0	-116074.0
8	15	47	2	904	48.0	-268034.0	-2051.0	-178961.0
8	15	47	2	905	49.0	-262484.0	-1999.0	-158869.0
8	15	47	2	905	50.0	-257469.0	-1952.0	-54929.0
8	15	47	2	906	51.0	-253012.0	-1938.0	59889.0
8	15	47	2	907	52.0	-248841.0	-1916.0	128343.0
8	15	47	2	907	53.0	-244964.0	-1907.0	152321.0
8	15	47	2	908	54.0	-241234.0	-1887.0	138396.0
8	15	47	2	908	55.0	-237992.0	-1879.0	79813.0
8	15	47	2	909	90.0	-200109.0	-1591.0	-28451.0
8	15	47	2	910	91.0	-199901.0	-1619.0	78499.0
8	15	47	2	910	92.0	-199657.0	-1639.0	135957.0
8	15	47	2	911	93.0	-199461.0	-1653.0	151189.0
8	15	47	2	911	94.0	-199353.0	-1686.0	125493.0
8	15	47	2	912	95.0	-199249.0	-1739.0	57824.0
8	15	47	2	913	96.0	-199134.0	-1744.0	-42187.0
8	15	47	2	944	97.0	-199098.0	-1740.0	-143220.0
8	15	47	2	944	98.0	-198974.0	-1763.0	-183236.0
8	15	47	2	945	99.0	-198857.0	-1749.0	-135294.0
8	15	47	2	946	100.0	-198841.0	-1778.0	-22385.0
8	15	47	2	946	101.0	-198667.0	-1804.0	82121.0
8	15	47	2	947	102.0	-198561.0	-1829.0	137049.0
8	15	47	2	948	103.0	-198436.0	-1853.0	151143.0
8	15	47	2	948	104.0	-198279.0	-1899.0	122871.0
8	15	47	2	949	105.0	-198132.0	-1939.0	54046.0
8	15	47	2	950	106.0	-198057.0	-1986.0	-47758.0
8	15	47	2	950	107.0	-197958.0	-1997.0	-148734.0
8	15	47	2	951	108.0	-197772.0	-1976.0	-185816.0
8	15	47	2	952	109.0	-197678.0	-1979.0	-133540.0
8	15	47	2	952	110.0	-197614.0	-2009.0	-20016.0
8	15	47	2	953	111.0	-197619.0	-2031.0	83903.0
8	15	47	2	953	113.0	-197606.0	-2109.0	146402.0
8	15	47	2	954	114.0	-197598.0	-2166.0	115603.0
8	15	47	2	955	115.0	-197461.0	-2184.0	43837.0
8	15	47	2	955	116.0	-197464.0	-2229.0	-59873.0
8	15	47	2	956	117.0	-197499.0	-2261.0	-156875.0
8	15	47	2	956	118.0	-197479.0	-2268.0	-185544.0
8	15	47	2	987	119.0	-197385.0	-2266.0	-123477.0
8	15	47	2	999	120.0	-197318.0	-2291.0	-7740.0
8	15	47	3	0	121.0	-197404.0	-2350.0	93521.0
8	15	47	3	0	122.0	-197376.0	-2388.0	142131.0
8	15	47	3	1	123.0	-197371.0	-2416.0	150503.0
8	15	47	3	1	124.0	-197126.0	-2454.0	117112.0
8	15	47	3	2	125.0	-196974.0	-2494.0	44014.0
8	15	47	3	3	126.0	-196975.0	-2536.0	-60548.0
8	15	47	3	3	127.0	-196926.0	-2540.0	-155119.0
8	15	47	3	4	128.0	-196851.0	-2544.0	-181424.0
8	15	47	3	4	129.0	-196849.0	-2548.0	-118347.0
8	15	47	3	5	130.0	-196748.0	-2574.0	-2241.0
8	15	47	3	5	131.0	-196625.0	-2614.0	96915.0
8	15	47	3	6	132.0	-196709.0	-2627.0	144114.0
8	15	47	3	7	133.0	-196736.0	-2685.0	152513.0
8	15	47	3	7	135.0	-196673.0	-2769.0	41584.0
8	15	47	3	8	136.0	-196665.0	-2819.0	-62867.0
8	15	47	3	8	137.0	-196736.0	-2839.0	-154412.0
8	15	47	3	9	138.0	-196699.0	-2826.0	-174802.0
8	15	47	3	9	139.0	-196719.0	-2816.0	-103682.0
8	15	47	3	10	140.0	-196813.0	-2853.0	13226.0
8	15	47	3	11	141.0	-196912.0	-2927.0	107146.0
8	15	47	3	32	142.0	-196871.0	-2942.0	148033.0
8	15	47	3	33	143.0	-196790.0	-2962.0	152776.0
8	15	47	3	34	144.0	-196677.0	-3009.0	115270.0
8	15	47	3	34	145.0	-196617.0	-3041.0	39029.0
8	15	47	3	35	146.0	-196656.0	-3080.0	-68359.0
8	15	47	3	36	147.0	-196624.0	-3051.0	-156480.0
8	15	47	3	36	148.0	-196681.0	-3065.0	-172307.0
8	15	47	3	37	149.0	-196619.0	-3066.0	-98099.0
8	15	47	3	38	150.0	-196466.0	-3077.0	19723.0
8	15	47	3	39	151.0	-196516.0	-3118.0	111764.0
8	15	47	3	39	152.0	-196496.0	-3152.0	153839.0
8	15	47	3	40	153.0	-196480.0	-3177.0	157058.0
8	15	47	3	41	154.0	-196432.0	-3217.0	116107.0
8	15	47	3	41	155.0	-196435.0	-3232.0	37898.0
8	15	47	3	42	156.0	-196483.0	-3264.0	-69878.0
8	15	47	3	43	158.0	-196680.0	-3254.0	-166580.0
8	15	47	3	43	159.0	-196603.0	-3251.0	-87542.0
8	15	47	3	44	160.0	-196636.0	-3274.0	29738.0
8	15	47	3	45	161.0	-196654.0	-3318.0	117544.0
8	15	47	3	45	162.0	-196687.0	-3351.0	152365.0
8	15	47	3	46	163.0	-196706.0	-3374.0	149943.0
8	15	47	3	124	164.0	-196669.0	-3402.0	105961.0
8	15	47	3	125	165.0	-196432.0	-3429.0	26009.0
8	15	47	3	126	166.0	-196329.0	-3432.0	-81620.0
8	15	47	3	126	167.0	-196419.0	-3453.0	-163801.0
8	15	47	3	127	168.0	-196330.0	-3451.0	-172836.0
8	15	47	3	128	169.0	-196237.0	-3429.0	-89160.0
8	15	47	3	128	170.0	-196255.0	-3436.0	28187.0
8	15	47	3	129	171.0	-196281.0	-3478.0	111904.0
8	15	47	3	129	172.0	-196264.0	-3504.0	145735.0
8	15	47	3	130	173.0	-196275.0	-3496.0	144243.0
8	15	47	3	131	174.0	-196144.0	-3531.0	98936.0
8	15	47	3	131	175.0	-196018.0	-3564.0	15378.0
8	15	47	3	132	176.0	-196206.0	-3567.0	-92869.0
8	15	47	3	133	177.0	-196316.0	-3563.0	-168821.0
8	15	47	3	133	178.0	-196303.0	-3534.0	-170345.0
8	15	47	3	134	203.0	-195987.0	-3862.0	144532.0
8	15	47	3	134	204.0	-195989.0	-3877.0	91256.0
8	15	47	3	135	205.0	-195993.0	-3909.0	3640.0
8	15	47	3	136	206.0	-195984.0	-3916.0	-103465.0
8	15	47	3	136	207.0	-196024.0	-3927.0	-168742.0
8	15	47	3	137	208.0	-196034.0	-3907.0	-156134.0
8	15	47	3	169	209.0	-195909.0	-3914.0	-60154.0
8	15	47	3	170	210.0	-196116.0	-3926.0	53106.0
8	15	47	3	171	211.0	-196207.0	-3962.0	127335.0
8	15	47	3	171	212.0	-196259.0	-3977.0	154074.0
8	15	47	3	172	213.0	-196211.0	-4003.0	143206.0
8	15	47	3	173	214.0	-196235.0	-4001.0	88372.0
8	15	47	3	174	215.0	-196192.0	-4044.0	84.0
8	15	47	3	174	216.0	-196192.0	-4059.0	-107475.0
8	15	47	3	175	217.0	-196285.0	-4049.0	-169009.0
8	15	47	3	176	218.0	-196274.0	-4024.0	-149092.0
8	15	47	3	176	219.0	-196215.0	-4029.0	-50983.0
8	15	47	3	177	220.0	-196228.0	-4064.0	58691.0
8	15	47	3	177	221.0	-196156.0	-4083.0	126324.0
8	15	47	3	178	222.0	-196142.0	-4108.0	151013.0
8	15	47	3	179	223.0	-196117.0	-4142.0	137486.0
8	15	47	3	179	225.0	-195937.0	-4189.0	-10610.0
8	15	47	3	180	226.0	-196067.0	-4207.0	-116673.0
8	15	47	3	180	227.0	-196060.0	-4187.0	-175006.0
8	15	47	3	181	228.0	-196095.0	-4184.0	-152782.0
8	15	47	3	182	229.0	-196171.0	-4191.0	-50652.0
8	15	47	3	182	230.0	-196176.0	-4204.0	60974.0
8	15	47	3	183	231.0	-196246.0	-4256.0	128374.0
8	15	47	3	213	232.0	-196370.0	-4299.0	151803.0
8	15	47	3	214	233.0	-196332.0	-4324.0	135251.0
8	15	47	3	214	234.0	-196161.0	-4337.0	74071.0
8	15	47	3	215	235.0	-196202.0	-4343.0	-19686.0
8	15	47	3	216	236.0	-196202.0	-4352.0	-122522.0
8	15	47	3	216	237.0	-196179.0	-4352.0	-172880.0
8	15	47	3	217	238.0	-196222.0	-4349.0	-142506.0
8	15	47	3	218	239.0	-196137.0	-4341.0	-39807.0
8	15	47	3	218	240.0	-196097.0	-4364.0	67841.0
8	15	47	3	219	241.0	-196118.0	-4378.0	130824.0
8	15	47	3	220	242.0	-196077.0	-4397.0	151653.0
8	15	47	3	220	243.0	-196093.0	-4439.0	134446.0
8	15	47	3	221	244.0	-196045.0	-4462.0	74628.0
8	15	47	3	222	245.0	-196086.0	-4477.0	-18191.0
8	15	47	3	222	246.0	-196029.0	-4496.0	-120615.0
8	15	47	3	223	248.0	-196156.0	-4474.0	-134384.0
8	15	47	3	224	249.0	-196060.0	-4474.0	-29577.0
8	15	47	3	224	250.0	-195906.0	-4516.0	77387.0
8	15	47	3	225	251.0	-195987.0	-4540.0	135862.0
8	15	47	3	225	252.0	-195987.0	-4554.0	154535.0
8	15	47	3	226	253.0	-195929.0	-4582.0	135184.0
8	15	47	3	258	254.0	-195881.0	-4630.0	72688.0
8	15	47	3	259	255.0	-195924.0	-4642.0	-22947.0
8	15	47	3	260	0.0	-196056.0	-4654.0	-124257.0
8	15	47	3	261	1.0	-196120.0	-4649.0	-169102.0
8	15	47	3	261	2.0	-196102.0	-4621.0	-129187.0
8	15	47	3	262	3.0	-195979.0	-4616.0	-21834.0
8	15	47	3	263	4.0	-195913.0	-4644.0	82141.0
8	15	47	3	263	5.0	-195896.0	-4671.0	137989.0
8	15	47	3	264	6.0	-195931.0	-4690.0	153941.0
8	15	47	3	265	7.0	-195946.0	-4714.0	128753.0
8	15	47	3	265	8.0	-195989.0	-4747.0	62664.0
8	15	47	3	266	9.0	-195875.0	-4762.0	-34207.0
8	15	47	3	267	10.0	-195859.0	-4762.0	-133741.0
8	15	47	3	267	11.0	-195834.0	-4754.0	-173455.0
8	15	47	3	268	12.0	-195905.0	-4731.0	-127375.0
8	15	47	3	268	14.0	-195948.0	-4755.0	82903.0
8	15	47	3	269	15.0	-196037.0	-4802.0	134851.0
8	15	47	3	270	16.0	-196069.0	-4829.0	147396.0
8	15	47	3	394	17.0	-195989.0	-4841.0	118773.0
8	15	47	3	395	18.0	-195934.0	-4849.0	52260.0
8	15	47	3	396	19.0	-195786.0	-4870.0	-46417.0
8	15	47	3	396	20.0	-195872.0	-4866.0	-144345.0
8	15	47	3	397	21.0	-195985.0	-4849.0	-182189.0
8	15	47	3	398	22.0	-196022.0	-4825.0	-132741.0
8	15	47	3	398	23.0	-196011.0	-4835.0	-20427.0
8	15	47	3	399	24.0	-196009.0	-4859.0	80608.0
8	15	47	3	400	25.0	-196076.0	-4894.0	130942.0
8	15	47	3	400	26.0	-196081.0	-4908.0	142202.0
8	15	47	3	401	27.0	-196023.0	-4927.0	113557.0
8	15	47	3	401	28.0	-196075.0	-4937.0	44486.0
8	15	47	3	402	29.0	-196111.0	-4951.0	-54646.0
8	15	47	3	403	30.0	-196074.0	-4932.0	-150511.0
8	15	47	3	403	31.0	-196065.0	-4918.0	-183594.0
8	15	47	3	404	59.0	-195987.0	-4987.0	-67115.0
8	15	47	3	405	82.0	-195949.0	-4919.0	-92075.0
8	15	47	3	405	83.0	-195934.0	-4921.0	26333.0
8	15	47	3	406	84.0	-195976.0	-4941.0	113251.0
8	15	47	3	406	85.0	-196022.0	-4968.0	149909.0
8	15	47	3	407	86.0	-196179.0	-4973.0	149656.0
8	15	47	3	408	87.0	-196134.0	-4994.0	103535.0
8	15	47	3	408	88.0	-196166.0	-5000.0	20162.0
8	15	47	3	439	89.0	-196166.0	-4994.0	-90214.0
8	15	47	3	440	90.0	-196202.0	-4987.0	-169048.0
8	15	47	3	441	91.0	-196291.0	-4977.0	-171119.0
8	15	47	3	441	92.0	-196134.0	-4946.0	-84727.0
8	15	47	3	442	93.0	-196085.0	-4958.0	32324.0
8	15	47	3	443	94.0	-196098.0	-4961.0	116372.0
8	15	47	3	444	95.0	-195987.0	-4968.0	149978.0
8	15	47	3	444	96.0	-195896.0	-4969.0	148589.0
8	15	47	3	445	97.0	-195876.0	-4970.0	101769.0
8	15	47	3	446	98.0	-195902.0	-4996.0	18167.0
8	15	47	3	462	99.0	-196115.0	-5004.0	-90036.0
8	15	47	3	463	100.0	-196118.0	-4979.0	-164391.0
8	15	47	3	464	101.0	-195974.0	-4959.0	-162732.0
8	15	47	3	464	102.0	-195944.0	-4919.0	-74841.0
8	15	47	3	465	103.0	-195899.0	-4908.0	40396.0
8	15	47	3	465	104.0	-195953.0	-4933.0	120498.0
8	15	47	3	466	105.0	-195912.0	-4954.0	151714.0
8	15	47	3	466	106.0	-195857.0	-4961.0	145946.0
8	15	47	3	467	107.0	-195789.0	-4982.0	95153.0
8	15	47	3	468	108.0	-195697.0	-5003.0	8878.0
8	15	47	3	468	109.0	-195756.0	-5004.0	-100322.0
8	15	47	3	486	110.0	-195713.0	-4975.0	-172253.0
8	15	47	3	487	111.0	-195562.0	-4969.0	-165122.0
8	15	47	3	487	112.0	-195576.0	-4956.0	-71225.0
8	15	47	3	488	113.0	-195654.0	-4956.0	44583.0
8	15	47	3	489	114.0	-195764.0	-4976.0	120448.0
8	15	47	3	490	115.0	-195799.0	-4996.0	148717.0
8	15	47	3	491	116.0	-195751.0	-5016.0	140570.0
8	15	47	3	491	117.0	-195728.0	-5022.0	89938.0
8	15	47	3	492	118.0	-195781.0	-5014.0	3431.0
8	15	47	3	493	119.0	-195826.0	-5025.0	-105346.0
8	15	47	3	493	120.0	-195854.0	-4997.0	-174189.0
8	15	47	3	494	121.0	-195872.0	-4960.0	-162485.0
8	15	47	3	495	122.0	-195835.0	-4949.0	-66129.0
8	15	47	3	495	123.0	-195896.0	-4978.0	48078.0
8	15	47	3	496	124.0	-195867.0	-4996.0	122615.0
8	15	47	3	497	126.0	-195695.0	-5022.0	139227.0
8	15	47	3	497	127.0	-195631.0	-5028.0	84781.0
8	15	47	3	498	128.0	-195607.0	-5032.0	-3511.0
8	15	47	3	498	129.0	-195674.0	-5038.0	-111284.0
8	15	47	3	499	130.0	-195813.0	-5037.0	-175517.0
8	15	47	3	500	131.0	-195799.0	-4997.0	-159510.0
8	15	47	3	500	132.0	-195791.0	-4999.0	-62977.0
8	15	47	3	620	133.0	-195814.0	-5011.0	49889.0
8	15	47	3	621	134.0	-195872.0	-5028.0	121483.0
8	15	47	3	622	135.0	-195876.0	-5045.0	146374.0
8	15	47	3	623	136.0	-195999.0	-5061.0	133585.0
8	15	47	3	624	137.0	-196075.0	-5066.0	77598.0
8	15	47	3	625	138.0	-196027.0	-5073.0	-11172.0
8	15	47	3	625	139.0	-196059.0	-5074.0	-117710.0
8	15	47	3	626	140.0	-195873.0	-5049.0	-177155.0
8	15	47	3	626	141.0	-195886.0	-5036.0	-155516.0
8	15	47	3	627	142.0	-195898.0	-5035.0	-53444.0
8	15	47	3	628	143.0	-195852.0	-5036.0	60051.0
8	15	47	3	628	144.0	-196026.0	-5051.0	127193.0
8	15	47	3	630	145.0	-196170.0	-5076.0	150056.0
8	15	47	3	631	146.0	-196158.0	-5075.0	134766.0
8	15	47	3	632	147.0	-196146.0	-5095.0	75024.0
8	15	47	3	632	149.0	-196270.0	-5126.0	-123141.0
8	15	47	3	633	194.0	414551.0	-5155.0	144634.0
8	15	47	3	633	195.0	414192.0	-5171.0	158214.0
8	15	47	3	634	196.0	411856.0	-5194.0	126459.0
8	15	47	3	634	197.0	400944.0	-5219.0	50618.0
8	15	47	3	635	198.0	381680.0	-5252.0	-59308.0
8	15	47	3	636	199.0	358397.0	-5247.0	-166039.0
8	15	47	3	679	200.0	336274.0	-5231.0	-204247.0
8	15	47	3	694	201.0	322106.0	-5209.0	-144372.0
8	15	47	3	695	202.0	320697.0	-5216.0	-18518.0
8	15	47	3	696	203.0	332401.0	-5256.0	92839.0
8	15	47	3	696	204.0	350919.0	-5289.0	148054.0
8	15	47	3	697	205.0	368381.0	-5306.0	159172.0
8	15	47	3	698	206.0	383434.0	-5321.0	124257.0
8	15	47	3	698	207.0	392070.0	-5357.0	47277.0
8	15	47	3	699	208.0	390135.0	-5397.0	-62847.0
8	15	47	3	700	209.0	381331.0	-5394.0	-165833.0
8	15	47	3	700	210.0	368503.0	-5385.0	-196332.0
8	15	47	3	701	211.0	354528.0	-5366.0	-129477.0
8	15	47	3	702	212.0	338800.0	-5389.0	-2300.0
8	15	47	3	702	213.0	320768.0	-5417.0	105126.0
8	15	47	3	703	214.0	300547.0	-5433.0	157252.0
8	15	47	3	704	224.0	-128429.0	-5594.0	153022.0
8	15	47	3	704	231.0	-803726.0	-5660.0	-115987.0
8	15	47	3	705	232.0	-809019.0	-5670.0	12275.0
8	15	47	3	705	233.0	-807616.0	-5711.0	114218.0
8	15	47	3	706	234.0	-800396.0	-5723.0	158763.0
8	15	47	3	717	235.0	-788384.0	-5727.0	164268.0
8	15	47	3	718	236.0	-772844.0	-5761.0	122614.0
8	15	47	3	719	237.0	-754492.0	-5771.0	40629.0
8	15	47	3	719	238.0	-733925.0	-5780.0	-73756.0
8	15	47	3	741	239.0	-711888.0	-5772.0	-167992.0
8	15	47	3	742	240.0	-688883.0	-5766.0	-184675.0
8	15	47	3	743	241.0	-665290.0	-5742.0	-103647.0
8	15	47	3	744	242.0	-641525.0	-5735.0	20883.0
8	15	47	3	745	243.0	-617804.0	-5732.0	117698.0
8	15	47	3	745	244.0	-594342.0	-5746.0	158176.0
8	15	47	3	746	245.0	-571435.0	-5749.0	158793.0
8	15	47	3	747	246.0	-548953.0	-5734.0	113978.0
8	15	47	3	747	247.0	-527299.0	-5731.0	32055.0
8	15	47	3	748	248.0	-506444.0	-5707.0	-78617.0
8	15	47	3	749	249.0	-486449.0	-5677.0	-164547.0
8	15	47	3	749	250.0	-467480.0	-5636.0	-174497.0
8	15	47	3	750	251.0	-449186.0	-5603.0	-91797.0
8	15	47	3	751	252.0	-432000.0	-5586.0	29336.0
8	15	47	3	751	253.0	-415704.0	-5559.0	119491.0
8	15	47	3	752	254.0	-400169.0	-5564.0	156991.0
8	15	47	3	753	255.0	-385861.0	-5540.0	157728.0
8	15	47	3	753	0.0	-372399.0	-5523.0	113168.0
8	15	47	3	754	1.0	-359734.0	-5504.0	28204.0
8	15	47	3	755	2.0	-348014.0	-5476.0	-84177.0
8	15	47	3	755	3.0	-337101.0	-5436.0	-166181.0
8	15	47	3	756	4.0	-326856.0	-5363.0	-170780.0
8	15	47	3	769	5.0	-317199.0	-5314.0	-84454.0
8	15	47	3	770	6.0	-308119.0	-5267.0	34556.0
8	15	47	3	770	7.0	-299911.0	-5222.0	120370.0
8	15	47	3	771	8.0	-292207.0	-5206.0	156158.0
8	15	47	3	771	9.0	-285129.0	-5185.0	153098.0
8	15	47	3	772	10.0	-278626.0	-5144.0	105848.0
8	15	47	3	773	11.0	-272604.0	-5107.0	25114.0
8	15	47	3	773	12.0	-267042.0	-5079.0	-81057.0
8	15	47	3	774	13.0	-261779.0	-5021.0	-159065.0
8	15	47	3	774	14.0	-257044.0	-4943.0	-160820.0
8	15	47	3	798	15.0	-252509.0	-4895.0	-73465.0
8	15	47	3	798	16.0	-248291.0	-4856.0	43562.0
8	15	47	3	799	17.0	-244580.0	-4796.0	125116.0
8	15	47	3	800	18.0	-240981.0	-4775.0	156483.0
8	15	47	3	800	19.0	-237792.0	-4747.0	151568.0
8	15	47	3	801	20.0	-234640.0	-4702.0	102774.0
8	15	47	3	801	21.0	-231873.0	-4662.0	17226.0
8	15	47	3	821	22.0	-229402.0	-4619.0	-90951.0
8	15	47	3	821	23.0	-226906.0	-4564.0	-162238.0
8	15	47	3	822	24.0	-224827.0	-4479.0	-157896.0
8	15	47	3	823	25.0	-222731.0	-4430.0	-67060.0
8	15	47	3	823	26.0	-220907.0	-4396.0	46771.0
8	15	47	3	824	27.0	-219267.0	-4366.0	123249.0
8	15	47	3	824	28.0	-217643.0	-4338.0	152694.0
8	15	47	3	825	29.0	-216354.0	-4300.0	146290.0
8	15	47	3	825	30.0	-214815.0	-4269.0	95760.0
8	15	47	3	826	31.0	-213771.0	-4242.0	9746.0
8	15	47	3	827	32.0	-212707.0	-4201.0	-98982.0
8	15	47	3	827	33.0	-211616.0	-4137.0	-168802.0
8	15	47	3	828	34.0	-210807.0	-4072.0	-160799.0
8	15	47	3	828	35.0	-209802.0	-4012.0	-67642.0
8	15	47	3	829	36.0	-209130.0	-3968.0	47283.0
8	15	47	3	829	37.0	-208391.0	-3937.0	122692.0
8	15	47	3	830	38.0	-207646.0	-3901.0	152306.0
8	15	47	3	830	39.0	-207112.0	-3882.0	144085.0
8	15	47	3	831	40.0	-206380.0	-3871.0	91380.0
8	15	47	3	832	41.0	-205902.0	-3849.0	4448.0
8	15	47	3	832	42.0	-205484.0	-3820.0	-104707.0
8	15	47	3	846	43.0	-204977.0	-3774.0	-171698.0
8	15	47	3	846	44.0	-204504.0	-3677.0	-156491.0
8	15	47	3	847	45.0	-204086.0	-3633.0	-58970.0
8	15	47	3	847	46.0	-203756.0	-3598.0	53694.0
8	15	47	3	848	47.0	-203501.0	-3587.0	124952.0
8	15	47	3	848	48.0	-203213.0	-3556.0	150946.0
8	15	47	3	849	49.0	-202867.0	-3528.0	139104.0
8	15	47	3	850	50.0	-202389.0	-3510.0	84413.0
8	15	47	3	850	51.0	-201993.0	-3494.0	-4191.0
8	15	47	3	869	52.0	-201990.0	-3459.0	-109668.0
8	15	47	3	870	53.0	-201641.0	-3391.0	-168732.0
8	15	47	3	871	54.0	-201559.0	-3321.0	-147712.0
8	15	47	3	871	55.0	-201248.0	-3271.0	-48691.0
8	15	47	3	872	56.0	-200920.0	-3250.0	61476.0
8	15	47	3	872	57.0	-200732.0	-3232.0	130094.0
8	15	47	3	873	58.0	-200447.0	-3220.0	153130.0
8	15	47	3	902	59.0	-200376.0	-3191.0	138592.0
8	15	47	3	903	60.0	-200057.0	-3162.0	80428.0
8	15	47	3	904	61.0	-199799.0	-3130.0	-10685.0
8	15	47	3	904	62.0	-199787.0	-3087.0	-117231.0
8	15	47	3	905	63.0	-199561.0	-3011.0	-173936.0
8	15	47	3	905	64.0	-199638.0	-2969.0	-148094.0
8	15	47	3	906	65.0	-199426.0	-2938.0	-44460.0
8	15	47	3	907	66.0	-199244.0	-2928.0	66317.0
8	15	47	3	907	67.0	-199121.0	-2919.0	131994.0
8	15	47	3	908	68.0	-198957.0	-2903.0	154273.0
8	15	47	3	908	69.0	-198700.0	-2889.0	138578.0
8	15	47	3	909	70.0	-198464.0	-2867.0	78559.0
8	15	47	3	910	71.0	-198316.0	-2860.0	-15581.0
8	15	47	3	910	72.0	-198183.0	-2825.0	-121374.0
8	15	47	3	911	73.0	-198093.0	-2776.0	-174731.0
8	15	47	3	912	74.0	-198043.0	-2717.0	-142355.0
8	15	47	3	912	80.0	-197341.0	-2631.0	72863.0
8	15	47	3	913	81.0	-197227.0	-2631.0	-24171.0
8	15	47	3	913	82.0	-197169.0	-2613.0	-130836.0
8	15	47	3	925	83.0	-197093.0	-2570.0	-182746.0
8	15	47	3	926	84.0	-197259.0	-2509.0	-146129.0
8	15	47	3	926	85.0	-197067.0	-2479.0	-36950.0
8	15	47	3	927	86.0	-196962.0	-2486.0	73854.0
8	15	47	3	927	87.0	-197055.0	-2494.0	134967.0
8	15	47	3	928	88.0	-196912.0	-2502.0	152113.0
8	15	47	3	948	89.0	-196960.0	-2486.0	128904.0
8	15	47	3	949	90.0	-196903.0	-2477.0	63206.0
8	15	47	3	950	91.0	-196841.0	-2454.0	-34841.0
8	15	47	3	950	92.0	-196736.0	-2430.0	-140519.0
8	15	47	3	951	93.0	-196631.0	-2402.0	-187112.0
8	15	47	3	952	94.0	-196784.0	-2341.0	-145257.0
8	15	47	3	952	95.0	-196711.0	-2317.0	-32896.0
8	15	47	3	953	96.0	-196707.0	-2319.0	76214.0
8	15	47	3	953	97.0	-196696.0	-2344.0	135977.0
8	15	47	3	954	98.0	-196639.0	-2341.0	153868.0
8	15	47	3	954	99.0	-196662.0	-2329.0	129268.0
8	15	47	3	955	100.0	-196739.0	-2331.0	59335.0
8	15	47	3	955	101.0	-196596.0	-2313.0	-42097.0
8	15	47	3	956	102.0	-196721.0	-2306.0	-145820.0
8	15	47	3	956	103.0	-196761.0	-2263.0	-187633.0
8	15	47	3	978	104.0	-196808.0	-2213.0	-139988.0
8	15	47	3	978	105.0	-196808.0	-2190.0	-27211.0
8	15	47	3	979	106.0	-196846.0	-2177.0	78238.0
8	15	47	3	980	107.0	-196839.0	-2192.0	132857.0
8	15	47	3	980	108.0	-196888.0	-2194.0	148262.0
8	15	47	3	981	109.0	-196742.0	-2192.0	120907.0
8	15	47	3	981	110.0	-196696.0	-2209.0	48583.0
8	15	47	3	982	111.0	-196611.0	-2214.0	-55655.0
8	15	47	3	983	112.0	-196634.0	-2170.0	-157668.0
8	15	47	3	983	113.0	-196589.0	-2148.0	-196004.0
8	15	47	3	984	114.0	-196408.0	-2107.0	-141450.0
8	15	47	3	985	115.0	-196466.0	-2086.0	-22291.0
8	15	47	3	985	116.0	-196402.0	-2090.0	84616.0
8	15	47	3	986	117.0	-196078.0	-2092.0	137877.0
8	15	47	3	987	118.0	-195956.0	-2081.0	151428.0
8	15	47	3	987	119.0	-195897.0	-2085.0	121841.0
8	15	47	3	988	120.0	-195933.0	-2089.0	46810.0
8	15	47	3	989	121.0	-195843.0	-2088.0	-61837.0
8	15	47	3	989	122.0	-196049.0	-2075.0	-161854.0
8	15	47	3	997	123.0	-196269.0	-2036.0	-193909.0
8	15	47	3	998	124.0	-196232.0	-1997.0	-133686.0
8	15	47	4	20	125.0	-196105.0	-1997.0	-14641.0
8	15	47	4	21	126.0	-196236.0	-2013.0	89487.0
8	15	47	4	22	127.0	-196319.0	-2014.0	140568.0
8	15	47	4	22	128.0	-196246.0	-2007.0	152541.0
8	15	47	4	23	129.0	-196061.0	-2006.0	118327.0
8	15	47	4	24	130.0	-196121.0	-2021.0	40401.0
8	15	47	4	24	131.0	-196177.0	-2035.0	-68861.0
8	15	47	4	25	132.0	-196067.0	-2006.0	-166821.0
8	15	47	4	25	133.0	-195997.0	-1961.0	-193778.0
8	15	47	4	26	134.0	-195885.0	-1933.0	-126345.0
8	15	47	4	27	135.0	-195979.0	-1950.0	-4457.0
8	15	47	4	27	136.0	-195947.0	-1960.0	98861.0
8	15	47	4	28	137.0	-195924.0	-1973.0	147055.0
8	15	47	4	28	138.0	-196069.0	-1986.0	155082.0
8	15	47	4	29	139.0	-196047.0	-1988.0	119623.0
8	15	47	4	29	140.0	-195892.0	-2001.0	42038.0
8	15	47	4	52	141.0	-196102.0	-2011.0	-67071.0
8	15	47	4	53	142.0	-196207.0	-1976.0	-160518.0
8	15	47	4	53	143.0	-196282.0	-1929.0	-183499.0
8	15	47	4	54	144.0	-196183.0	-1901.0	-111873.0
8	15	47	4	55	145.0	-196220.0	-1894.0	8467.0
8	15	47	4	55	146.0	-196399.0	-1915.0	106177.0
8	15	47	4	56	147.0	-196281.0	-1937.0	151033.0
8	15	47	4	57	148.0	-196180.0	-1958.0	155684.0
8	15	47	4	57	149.0	-196188.0	-1959.0	115564.0
8	15	47	4	58	150.0	-196280.0	-1957.0	34503.0
8	15	47	4	58	151.0	-196282.0	-1939.0	-77771.0
8	15	47	4	74	152.0	-196246.0	-1927.0	-171914.0
8	15	47	4	75	153.0	-196334.0	-1911.0	-191464.0
8	15	47	4	75	154.0	-196255.0	-1866.0	-115391.0
8	15	47	4	76	155.0	-196192.0	-1871.0	5381.0
8	15	47	4	77	156.0	-196203.0	-1892.0	101012.0
8	15	47	4	77	157.0	-196137.0	-1884.0	143328.0
8	15	47	4	78	158.0	-196122.0	-1903.0	148530.0
8	15	47	4	78	159.0	-196015.0	-1904.0	107779.0
8	15	47	4	79	160.0	-195943.0	-1903.0	25154.0
8	15	47	4	79	161.0	-195970.0	-1916.0	-86448.0
8	15	47	4	80	162.0	-196053.0	-1901.0	-173422.0
8	15	47	4	97	163.0	-196041.0	-1887.0	-186506.0
8	15	47	4	98	164.0	-195956.0	-1844.0	-104094.0
8	15	47	4	99	165.0	-195946.0	-1830.0	18683.0
8	15	47	4	99	166.0	-196002.0	-1866.0	109893.0
8	15	47	4	100	167.0	-195904.0	-1866.0	147816.0
8	15	47	4	101	168.0	-195893.0	-1877.0	148924.0
8	15	47	4	101	169.0	-195956.0	-1881.0	103390.0
8	15	47	4	102	170.0	-195952.0	-1896.0	19849.0
8	15	47	4	102	171.0	-195966.0	-1884.0	-92711.0
8	15	47	4	103	172.0	-196031.0	-1861.0	-177498.0
8	15	47	4	104	173.0	-196043.0	-1844.0	-185732.0
8	15	47	4	104	174.0	-196064.0	-1807.0	-100146.0
8	15	47	4	105	175.0	-195973.0	-1799.0	21239.0
8	15	47	4	105	176.0	-195803.0	-1800.0	110719.0
8	15	47	4	106	177.0	-195924.0	-1832.0	147135.0
8	15	47	4	106	178.0	-195772.0	-1830.0	144409.0
8	15	47	4	174	179.0	-195769.0	-1845.0	97198.0
8	15	47	4	175	180.0	-195777.0	-1847.0	10878.0
8	15	47	4	175	181.0	-195696.0	-1841.0	-102436.0
8	15	47	4	176	182.0	-195799.0	-1812.0	-184381.0
8	15	47	4	177	183.0	-195851.0	-1772.0	-186456.0
8	15	47	4	177	184.0	-195704.0	-1757.0	-95850.0
8	15	47	4	178	185.0	-195777.0	-1762.0	24682.0
8	15	47	4	179	186.0	-195817.0	-1762.0	111487.0
8	15	47	4	179	187.0	-195759.0	-1774.0	146691.0
8	15	47	4	180	188.0	-195602.0	-1777.0	142858.0
8	15	47	4	181	189.0	-195511.0	-1787.0	92921.0
8	15	47	4	181	190.0	-195581.0	-1801.0	4878.0
8	15	47	4	182	191.0	-195445.0	-1811.0	-108812.0
8	15	47	4	182	192.0	-195594.0	-1801.0	-185342.0
8	15	47	4	183	193.0	-195657.0	-1776.0	-181321.0
8	15	47	4	183	215.0	-195379.0	-1822.0	57628.0
8	15	47	4	184	216.0	-195628.0	-1841.0	135793.0
8	15	47	4	184	217.0	-195536.0	-1870.0	164689.0
8	15	47	4	185	218.0	-195578.0	-1907.0	154083.0
8	15	47	4	218	219.0	-195561.0	-1931.0	95778.0
8	15	47	4	219	220.0	-195767.0	-1948.0	776.0
8	15	47	4	219	221.0	-195706.0	-1967.0	-114099.0
8	15	47	4	220	222.0	-195756.0	-1967.0	-181520.0
8	15	47	4	220	223.0	-195743.0	-1964.0	-162309.0
8	15	47	4	221	224.0	-195615.0	-1951.0	-55954.0
8	15	47	4	222	225.0	-195752.0	-1967.0	64066.0
8	15	47	4	222	226.0	-195816.0	-2001.0	138087.0
8	15	47	4	223	227.0	-195753.0	-2032.0	163210.0
8	15	47	4	223	228.0	-195717.0	-2067.0	148894.0
8	15	47	4	224	229.0	-195626.0	-2098.0	88432.0
8	15	47	4	225	230.0	-195546.0	-2129.0	-8029.0
8	15	47	4	225	231.0	-195467.0	-2121.0	-123216.0
8	15	47	4	226	232.0	-195506.0	-2093.0	-187411.0
8	15	47	4	226	233.0	-195494.0	-2074.0	-162014.0
8	15	47	4	227	237.0	-195517.0	-2172.0	160973.0
8	15	47	4	227	238.0	-195481.0	-2207.0	144818.0
8	15	47	4	228	239.0	-195456.0	-2237.0	81519.0
8	15	47	4	229	240.0	-195482.0	-2257.0	-17450.0
8	15	47	4	239	241.0	-195578.0	-2272.0	-131906.0
8	15	47	4	240	242.0	-195641.0	-2281.0	-192422.0
8	15	47	4	240	243.0	-195500.0	-2269.0	-161725.0
8	15	47	4	241	244.0	-195419.0	-2276.0	-49822.0
8	15	47	4	262	245.0	-195529.0	-2329.0	67886.0
8	15	47	4	263	246.0	-195440.0	-2365.0	135556.0
8	15	47	4	264	247.0	-195441.0	-2391.0	156514.0
8	15	47	4	265	248.0	-195456.0	-2399.0	135158.0
8	15	47	4	265	249.0	-195564.0	-2424.0	66750.0
8	15	47	4	266	250.0	-195492.0	-2464.0	-33727.0
8	15	47	4	266	251.0	-195532.0	-2486.0	-143814.0
8	15	47	4	267	252.0	-195677.0	-2471.0	-198264.0
8	15	47	4	268	253.0	-195700.0	-2463.0	-160863.0
8	15	47	4	268	254.0	-195604.0	-2457.0	-46082.0
8	15	47	4	269	255.0	-195657.0	-2484.0	69160.0
8	15	47	4	269	0.0	-195634.0	-2504.0	135833.0
8	15	47	4	270	1.0	-195646.0	-2550.0	156049.0
8	15	47	4	270	2.0	-195661.0	-2577.0	132701.0
8	15	47	4	271	3.0	-195653.0	-2599.0	63104.0
8	15	47	4	271	4.0	-195670.0	-2626.0	-39391.0
8	15	47	4	292	5.0	-195596.0	-2626.0	-148562.0
8	15	47	4	293	6.0	-195801.0	-2601.0	-198094.0
8	15	47	4	294	7.0	-195804.0	-2569.0	-155959.0
8	15	47	4	295	8.0	-195817.0	-2613.0	-39701.0
8	15	47	4	295	9.0	-195726.0	-2609.0	75842.0
8	15	47	4	296	10.0	-195716.0	-2646.0	137575.0
8	15	47	4	297	11.0	-195873.0	-2674.0	155052.0
8	15	47	4	297	12.0	-195985.0	-2712.0	128113.0
8	15	47	4	298	13.0	-195990.0	-2729.0	54665.0
8	15	47	4	298	14.0	-196113.0	-2745.0	-50935.0
8	15	47	4	299	15.0	-196084.0	-2750.0	-158400.0
8	15	47	4	300	16.0	-196139.0	-2753.0	-202821.0
8	15	47	4	300	17.0	-196153.0	-2740.0	-153759.0
8	15	47	4	301	18.0	-196020.0	-2741.0	-34109.0
8	15	47	4	301	19.0	-196029.0	-2766.0	80136.0
8	15	47	4	302	20.0	-195981.0	-2809.0	139881.0
8	15	47	4	303	21.0	-196008.0	-2834.0	155851.0
8	15	47	4	303	22.0	-195840.0	-2872.0	129372.0
8	15	47	4	311	23.0	-195824.0	-2881.0	55849.0
8	15	47	4	312	24.0	-195783.0	-2902.0	-51750.0
8	15	47	4	313	25.0	-195911.0	-2914.0	-157686.0
8	15	47	4	343	26.0	-195858.0	-2909.0	-197552.0
8	15	47	4	343	27.0	-195731.0	-2906.0	-141284.0
8	15	47	4	344	28.0	-195794.0	-2906.0	-20252.0
8	15	47	4	345	29.0	-195779.0	-2935.0	89309.0
8	15	47	4	345	30.0	-195885.0	-2967.0	145828.0
8	15	47	4	346	31.0	-195912.0	-2989.0	159955.0
8	15	47	4	346	32.0	-195729.0	-3010.0	128326.0
8	15	47	4	347	33.0	-195806.0	-3023.0	53407.0
8	15	47	4	347	34.0	-195752.0	-3036.0	-54481.0
8	15	47	4	348	35.0	-195691.0	-3046.0	-158122.0
8	15	47	4	348	36.0	-195699.0	-3033.0	-193274.0
8	15	47	4	349	37.0	-195559.0	-3027.0	-133124.0
8	15	47	4	350	38.0	-195573.0	-3021.0	-12552.0
8	15	47	4	350	39.0	-195536.0	-3043.0	95100.0
8	15	47	4	351	40.0	-195363.0	-3066.0	147464.0
8	15	47	4	351	41.0	-195492.0	-3090.0	159238.0
8	15	47	4	368	42.0	-195442.0	-3137.0	125636.0
8	15	47	4	368	43.0	-195357.0	-3169.0	48513.0
8	15	47	4	369	44.0	-195444.0	-3182.0	-62020.0
8	15	47	4	370	45.0	-195514.0	-3185.0	-161886.0
8	15	47	4	370	46.0	-195582.0	-3154.0	-191459.0
8	15	47	4	371	47.0	-195767.0	-3151.0	-126176.0
8	15	47	4	372	48.0	-195771.0	-3149.0	-3969.0
8	15	47	4	373	49.0	-195628.0	-3143.0	100516.0
8	15	47	4	374	50.0	-195658.0	-3165.0	148874.0
8	15	47	4	374	51.0	-195692.0	-3196.0	156220.0
8	15	47	4	375	52.0	-195526.0	-3239.0	118581.0
8	15	47	4	376	53.0	-195456.0	-3253.0	38246.0
8	15	47	4	376	54.0	-195514.0	-3265.0	-72891.0
8	15	47	4	377	55.0	-195639.0	-3244.0	-170106.0
8	15	47	4	377	56.0	-195833.0	-3224.0	-193752.0
8	15	47	4	378	57.0	-195960.0	-3214.0	-121868.0
8	15	47	4	378	58.0	-195938.0	-3236.0	-452.0
8	15	47	4	379	59.0	-195851.0	-3256.0	100868.0
8	15	47	4	380	60.0	-195881.0	-3280.0	146678.0
8	15	47	4	392	61.0	-195961.0	-3304.0	152337.0
8	15	47	4	393	62.0	-195827.0	-3316.0	111779.0
8	15	47	4	393	63.0	-195883.0	-3328.0	29561.0
8	15	47	4	415	64.0	-196092.0	-3343.0	-82835.0
8	15	47	4	416	65.0	-195936.0	-3349.0	-177194.0
8	15	47	4	416	66.0	-195839.0	-3330.0	-196529.0
8	15	47	4	417	67.0	-195952.0	-3302.0	-120065.0
8	15	47	4	418	68.0	-195864.0	-3311.0	4444.0
8	15	47	4	418	69.0	-195559.0	-3329.0	106541.0
8	15	47	4	419	70.0	-195754.0	-3354.0	151979.0
8	15	47	4	419	71.0	-195906.0	-3364.0	156860.0
8	15	47	4	420	72.0	-195742.0	-3372.0	113886.0
8	15	47	4	421	73.0	-195794.0	-3399.0	29087.0
8	15	47	4	421	74.0	-196042.0	-3416.0	-84425.0
8	15	47	4	422	75.0	-196113.0	-3419.0	-174651.0
8	15	47	4	422	76.0	-195767.0	-3424.0	-188576.0
8	15	47	4	423	77.0	-195877.0	-3423.0	-108563.0
8	15	47	4	423	78.0	-196115.0	-3421.0	14972.0
8	15	47	4	424	79.0	-196136.0	-3416.0	110730.0
8	15	47	4	458	80.0	-196044.0	-3457.0	151610.0
8	15	47	4	459	81.0	-195921.0	-3462.0	153328.0
8	15	47	4	460	82.0	-196041.0	-3487.0	109144.0
8	15	47	4	460	83.0	-195979.0	-3516.0	24474.0
8	15	47	4	461	84.0	-195754.0	-3523.0	-90039.0
8	15	47	4	462	85.0	-195725.0	-3504.0	-178614.0
8	15	47	4	462	86.0	-195921.0	-3482.0	-189248.0
8	15	47	4	463	87.0	-195756.0	-3471.0	-103796.0
8	15	47	4	464	88.0	-195489.0	-3481.0	20749.0
8	15	47	4	464	89.0	-195701.0	-3490.0	113064.0
8	15	47	4	465	90.0	-196076.0	-3496.0	151235.0
8	15	47	4	465	91.0	-195783.0	-3507.0	150338.0
8	15	47	4	466	92.0	-195597.0	-3532.0	104064.0
8	15	47	4	467	93.0	-195674.0	-3559.0	17744.0
8	15	47	4	467	94.0	-195619.0	-3566.0	-98481.0
8	15	47	4	468	101.0	-195524.0	-3591.0	150473.0
8	15	47	4	469	102.0	-195598.0	-3626.0	99933.0
8	15	47	4	469	103.0	-195671.0	-3633.0	11599.0
8	15	47	4	470	104.0	-195441.0	-3642.0	-104709.0
8	15	47	4	478	105.0	-195541.0	-3627.0	-185134.0
8	15	47	4	479	106.0	-195718.0	-3617.0	-182704.0
8	15	47	4	479	107.0	-195554.0	-3607.0	-89306.0
8	15	47	4	480	108.0	-195530.0	-3610.0	31509.0
8	15	47	4	501	109.0	-195728.0	-3648.0	117101.0
8	15	47	4	502	110.0	-195739.0	-3666.0	151396.0
8	15	47	4	503	111.0	-195571.0	-3688.0	146282.0
8	15	47	4	504	112.0	-195540.0	-3707.0	92556.0
8	15	47	4	504	113.0	-195692.0	-3729.0	1323.0
8	15	47	4	505	114.0	-195802.0	-3733.0	-113413.0
8	15	47	4	506	115.0	-195690.0	-3716.0	-188755.0
8	15	47	4	506	116.0	-195767.0	-3709.0	-180982.0
8	15	47	4	507	117.0	-195772.0	-3704.0	-84949.0
8	15	47	4	507	118.0	-195577.0	-3717.0	35921.0
8	15	47	4	508	119.0	-195692.0	-3736.0	118979.0
8	15	47	4	508	120.0	-195881.0	-3741.0	150164.0
8	15	47	4	509	121.0	-195817.0	-3787.0	140040.0
8	15	47	4	509	122.0	-195877.0	-3796.0	82247.0
8	15	47	4	510	123.0	-195976.0	-3816.0	-11370.0
8	15	47	4	511	124.0	-195846.0	-3834.0	-124968.0
8	15	47	4	532	125.0	-195914.0	-3807.0	-196102.0
8	15	47	4	533	126.0	-195951.0	-3800.0	-183307.0
8	15	47	4	534	127.0	-195778.0	-3802.0	-81492.0
8	15	47	4	534	128.0	-195786.0	-3812.0	39707.0
8	15	47	4	535	129.0	-195977.0	-3830.0	119396.0
8	15	47	4	536	130.0	-195922.0	-3869.0	148322.0
8	15	47	4	536	131.0	-195966.0	-3889.0	136727.0
8	15	47	4	537	132.0	-196052.0	-3914.0	77624.0
8	15	47	4	538	133.0	-195966.0	-3935.0	-19911.0
8	15	47	4	538	134.0	-195957.0	-3945.0	-135679.0
8	15	47	4	539	135.0	-195982.0	-3909.0	-202319.0
8	15	47	4	540	136.0	-195891.0	-3856.0	-182799.0
8	15	47	4	540	137.0	-195961.0	-3862.0	-75339.0
8	15	47	4	541	138.0	-196225.0	-3867.0	47391.0
8	15	47	4	542	139.0	-196149.0	-3891.0	124518.0
8	15	47	4	542	140.0	-196053.0	-3910.0	151858.0
8	15	47	4	543	141.0	-196196.0	-3932.0	138791.0
8	15	47	4	544	142.0	-196277.0	-3952.0	75418.0
8	15	47	4	544	143.0	-196035.0	-3976.0	-26292.0
8	15	47	4	554	144.0	-196147.0	-3979.0	-149137.0
8	15	47	4	554	145.0	-196369.0	-3952.0	-219390.0
8	15	47	4	577	146.0	-196441.0	-3936.0	-194419.0
8	15	47	4	578	147.0	-849054.0	-3710.0	-76684.0
8	15	47	4	579	148.0	-4585496.0	-3417.0	54328.0
8	15	47	4	579	149.0	-6161456.0	-3874.0	132386.0
8	15	47	4	580	150.0	-6177114.0	-4017.0	159572.0
8	15	47	4	581	151.0	-5475376.0	-4302.0	141887.0
8	15	47	4	581	152.0	-2922457.0	-4291.0	73047.0
8	15	47	4	582	153.0	-939071.0	-4223.0	-34090.0
8	15	47	4	582	154.0	1161086.0	-4207.0	-157025.0
8	15	47	4	583	155.0	2576518.0	-4088.0	-220681.0
8	15	47	4	584	156.0	3190956.0	-3986.0	-185309.0
8	15	47	4	584	157.0	3258539.0	-3922.0	-60501.0
8	15	47	4	585	158.0	2977621.0	-3897.0	69583.0
8	15	47	4	585	159.0	2496446.0	-3884.0	145330.0
8	15	47	4	586	160.0	1903648.0	-3890.0	171259.0
8	15	47	4	586	161.0	1268002.0	-3894.0	152116.0
8	15	47	4	607	162.0	658580.0	-3896.0	81063.0
8	15	47	4	608	163.0	138892.0	-3921.0	-30489.0
8	15	47	4	609	164.0	-234879.0	-3923.0	-152788.0
8	15	47	4	610	165.0	-428013.0	-3935.0	-212699.0
8	15	47	4	610	166.0	-453521.0	-3929.0	-172443.0
8	15	47	4	611	167.0	-355782.0	-3932.0	-47979.0
8	15	47	4	612	168.0	-186377.0	-3956.0	79167.0
8	15	47	4	612	169.0	3587.0	-3980.0	151089.0
8	15	47	4	613	170.0	173840.0	-4001.0	173464.0
8	15	47	4	614	171.0	301839.0	-4023.0	149656.0
8	15	47	4	614	172.0	383905.0	-4045.0	74578.0
8	15	47	4	615	173.0	426105.0	-4075.0	-39061.0
8	15	47	4	616	174.0	431876.0	-4077.0	-162367.0
8	15	47	4	616	175.0	405661.0	-4068.0	-218569.0
8	15	47	4	617	176.0	357561.0	-4039.0	-170964.0
8	15	47	4	618	177.0	308401.0	-4029.0	-39335.0
8	15	47	4	619	178.0	251109.0	-4053.0	88568.0
8	15	47	4	619	179.0	177236.0	-4099.0	156731.0
8	15	47	4	620	180.0	84706.0	-4120.0	175999.0
8	15	47	4	628	181.0	-5699.0	-4137.0	147614.0
8	15	47	4	629	182.0	-94498.0	-4142.0	68990.0
8	15	47	4	650	183.0	-210352.0	-4169.0	-48314.0
8	15	47	4	651	184.0	-364093.0	-4186.0	-170937.0
8	15	47	4	652	185.0	-468964.0	-4162.0	-220152.0
8	15	47	4	653	186.0	-524181.0	-4158.0	-166464.0
8	15	47	4	654	187.0	-564316.0	-4144.0	-34820.0
8	15	47	4	654	188.0	-592587.0	-4157.0	89893.0
8	15	47	4	655	189.0	-611213.0	-4180.0	154430.0
8	15	47	4	655	190.0	-621922.0	-4192.0	171684.0
8	15	47	4	656	191.0	-626004.0	-4235.0	142585.0
8	15	47	4	656	192.0	-624909.0	-4267.0	62897.0
8	15	47	4	657	193.0	-619434.0	-4284.0	-55476.0
8	15	47	4	658	194.0	-610591.0	-4281.0	-172704.0
8	15	47	4	658	195.0	-599077.0	-4263.0	-215297.0
8	15	47	4	659	196.0	-585612.0	-4247.0	-156569.0
8	15	47	4	659	197.0	-570671.0	-4239.0	-26988.0
8	15	47	4	660	198.0	-554634.0	-4284.0	92382.0
8	15	47	4	698	199.0	-537887.0	-4310.0	153161.0
8	15	47	4	699	200.0	-520933.0	-4312.0	167737.0
8	15	47	4	699	201.0	-503827.0	-4322.0	134583.0
8	15	47	4	700	202.0	-486710.0	-4342.0	54768.0
8	15	47	4	701	203.0	-469904.0	-4367.0	-60340.0
8	15	47	4	701	204.0	-453566.0	-4352.0	-169314.0
8	15	47	4	702	205.0	-437671.0	-4339.0	-206595.0
8	15	47	4	703	206.0	-422319.0	-4326.0	-144967.0
8	15	47	4	703	207.0	-407554.0	-4322.0	-20262.0
8	15	47	4	704	208.0	-393532.0	-4344.0	91264.0
8	15	47	4	705	209.0	-380286.0	-4363.0	145674.0
8	15	47	4	706	210.0	-367551.0	-4374.0	157086.0
8	15	47	4	707	211.0	-355716.0	-4380.0	123211.0
8	15	47	4	708	212.0	-344449.0	-4417.0	45436.0
8	15	47	4	708	213.0	-333784.0	-4446.0	-65384.0
8	15	47	4	709	220.0	-276934.0	-4444.0	154323.0
8	15	47	4	709	221.0	-270961.0	-4465.0	119638.0
8	15	47	4	710	222.0	-265202.0	-4481.0	42486.0
8	15	47	4	711	223.0	-260061.0	-4482.0	-68219.0
8	15	47	4	711	224.0	-255382.0	-4485.0	-165184.0
8	15	47	4	712	225.0	-250893.0	-4466.0	-192102.0
8	15	47	4	713	226.0	-246801.0	-4458.0	-124006.0
8	15	47	4	714	227.0	-242988.0	-4471.0	-925.0
8	15	47	4	715	228.0	-239668.0	-4489.0	101365.0
8	15	47	4	732	229.0	-236507.0	-4485.0	148734.0
8	15	47	4	732	230.0	-233462.0	-4503.0	157359.0
8	15	47	4	733	231.0	-230556.0	-4526.0	119709.0
8	15	47	4	733	232.0	-228014.0	-4529.0	39786.0
8	15	47	4	734	233.0	-225722.0	-4536.0	-71687.0
8	15	47	4	734	234.0	-223497.0	-4516.0	-166184.0
8	15	47	4	735	235.0	-221471.0	-4503.0	-188879.0
8	15	47	4	735	236.0	-219662.0	-4497.0	-115278.0
8	15	47	4	736	237.0	-217791.0	-4478.0	8941.0
8	15	47	4	757	238.0	-216294.0	-4511.0	109038.0
8	15	47	4	758	239.0	-215036.0	-4541.0	154781.0
8	15	47	4	759	240.0	-213582.0	-4556.0	160175.0
8	15	47	4	759	241.0	-212256.0	-4573.0	119721.0
8	15	47	4	760	242.0	-211303.0	-4595.0	38910.0
8	15	47	4	761	243.0	-210356.0	-4596.0	-71056.0
8	15	47	4	761	244.0	-209376.0	-4584.0	-159758.0
8	15	47	4	762	245.0	-208592.0	-4571.0	-175702.0
8	15	47	4	762	246.0	-207795.0	-4541.0	-100203.0
8	15	47	4	763	247.0	-206898.0	-4555.0	18495.0
8	15	47	4	763	248.0	-206352.0	-4575.0	109197.0
8	15	47	4	775	249.0	-205862.0	-4575.0	148189.0
8	15	47	4	775	250.0	-205257.0	-4591.0	150135.0
8	15	47	4	776	251.0	-204674.0	-4622.0	105619.0
8	15	47	4	777	252.0	-204073.0	-4623.0	22322.0
8	15	47	4	777	253.0	-203454.0	-4641.0	-88634.0
8	15	47	4	778	254.0	-203131.0	-4646.0	-173391.0
8	15	47	4	778	255.0	-202608.0	-4599.0	-184409.0
8	15	47	4	779	0.0	-202162.0	-4557.0	-103850.0
8	15	47	4	779	1.0	-201755.0	-4558.0	14167.0
8	15	47	4	780	2.0	-201511.0	-4583.0	101568.0
8	15	47	4	780	3.0	-201152.0	-4592.0	138445.0
8	15	47	4	798	4.0	-200836.0	-4588.0	138356.0
8	15	47	4	799	5.0	-200664.0	-4582.0	92342.0
8	15	47	4	800	6.0	-200432.0	-4571.0	7656.0
8	15	47	4	800	7.0	-200019.0	-4566.0	-103421.0
8	15	47	4	801	8.0	-199834.0	-4542.0	-183304.0
8	15	47	4	802	9.0	-199654.0	-4502.0	-188859.0
8	15	47	4	802	10.0	-199508.0	-4445.0	-103207.0
8	15	47	4	803	11.0	-199153.0	-4439.0	17212.0
8	15	47	4	803	12.0	-198977.0	-4437.0	105128.0
8	15	47	4	804	13.0	-199073.0	-4418.0	140803.0
8	15	47	4	805	14.0	-198896.0	-4411.0	139943.0
8	15	47	4	805	15.0	-198710.0	-4399.0	93257.0
8	15	47	4	806	16.0	-198736.0	-4382.0	8020.0
8	15	47	4	806	17.0	-198704.0	-4356.0	-102454.0
8	15	47	4	807	18.0	-198431.0	-4331.0	-179469.0
8	15	47	4	824	19.0	-198305.0	-4277.0	-179769.0
8	15	47	4	825	20.0	-198365.0	-4219.0	-90332.0
8	15	47	4	825	21.0	-198297.0	-4197.0	29501.0
8	15	47	4	826	22.0	-198062.0	-4191.0	116113.0
8	15	47	4	826	23.0	-198064.0	-4169.0	150916.0
8	15	47	4	827	24.0	-198139.0	-4155.0	146053.0
8	15	47	4	827	25.0	-197945.0	-4116.0	95336.0
8	15	47	4	856	26.0	-197782.0	-4091.0	8231.0
8	15	47	4	857	27.0	-197875.0	-4057.0	-102693.0
8	15	47	4	857	28.0	-197962.0	-4007.0	-177449.0
8	15	47	4	858	29.0	-197866.0	-3943.0	-173710.0
8	15	47	4	858	30.0	-197660.0	-3882.0	-80284.0
8	15	47	4	879	31.0	-197722.0	-3841.0	37859.0
8	15	47	4	880	32.0	-197951.0	-3821.0	118859.0
8	15	47	4	880	33.0	-197719.0	-3799.0	149737.0
8	15	47	4	881	34.0	-197634.0	-3761.0	141919.0
8	15	47	4	882	35.0	-197704.0	-3728.0	88130.0
8	15	47	4	882	36.0	-197447.0	-3692.0	-326.0
8	15	47	4	883	37.0	-197106.0	-3637.0	-109372.0
8	15	47	4	883	38.0	-197161.0	-3574.0	-179600.0
8	15	47	4	884	39.0	-197180.0	-3494.0	-170090.0
8	15	47	4	884	40.0	-197006.0	-3459.0	-72716.0
8	15	47	4	885	41.0	-196868.0	-3417.0	45569.0
8	15	47	4	885	42.0	-197106.0	-3385.0	124336.0
8	15	47	4	886	43.0	-197129.0	-3371.0	155281.0
8	15	47	4	886	44.0	-197015.0	-3324.0	146756.0
8	15	47	4	887	45.0	-197011.0	-3301.0	89961.0
8	15	47	4	888	46.0	-197086.0	-3282.0	-1422.0
8	15	47	4	888	47.0	-197113.0	-3222.0	-111114.0
8	15	47	4	889	48.0	-197011.0	-3154.0	-177237.0
8	15	47	4	889	49.0	-197142.0	-3081.0	-163137.0
8	15	47	4	890	50.0	-197071.0	-3019.0	-65402.0
8	15	47	4	890	51.0	-196913.0	-2977.0	49250.0
8	15	47	4	891	52.0	-196742.0	-2957.0	122169.0
8	15	47	4	891	53.0	-196759.0	-2930.0	147252.0
8	15	47	4	892	54.0	-196818.0	-2914.0	136144.0
8	15	47	4	893	55.0	-196745.0	-2880.0	78704.0
8	15	47	4	893	56.0	-196809.0	-2836.0	-14922.0
8	15	47	4	894	57.0	-196741.0	-2799.0	-123739.0
8	15	47	4	894	58.0	-196688.0	-2758.0	-185341.0
8	15	47	4	895	59.0	-196756.0	-2705.0	-164777.0
8	15	47	4	895	60.0	-196637.0	-2647.0	-63014.0
8	15	47	4	896	61.0	-196452.0	-2629.0	53121.0
8	15	47	4	896	62.0	-196592.0	-2594.0	123706.0
8	15	47	4	897	63.0	-196676.0	-2571.0	148491.0
8	15	47	4	923	64.0	-196397.0	-2534.0	133744.0
8	15	47	4	924	65.0	-196461.0	-2524.0	73123.0
8	15	47	4	924	66.0	-196662.0	-2492.0	-20272.0
8	15	47	4	925	67.0	-196696.0	-2461.0	-128310.0
8	15	47	4	926	68.0	-196596.0	-2411.0	-186449.0
8	15	47	4	926	69.0	-196871.0	-2334.0	-159199.0
8	15	47	4	927	70.0	-196872.0	-2295.0	-52864.0
8	15	47	4	927	71.0	-196585.0	-2285.0	61974.0
8	15	47	4	928	72.0	-196769.0	-2279.0	130393.0
8	15	47	4	928	73.0	-196864.0	-2242.0	154570.0
8	15	47	4	929	74.0	-196696.0	-2228.0	138534.0
8	15	47	4	930	75.0	-196705.0	-2202.0	77262.0
8	15	47	4	930	76.0	-196747.0	-2186.0	-17041.0
8	15	47	4	931	77.0	-196714.0	-2174.0	-123961.0
8	15	47	4	931	78.0	-196598.0	-2115.0	-179083.0
8	15	47	4	932	79.0	-196314.0	-2069.0	-148302.0
8	15	47	4	932	80.0	-196184.0	-2039.0	-42895.0
8	15	47	4	933	81.0	-196273.0	-2016.0	69139.0
8	15	47	4	941	82.0	-196301.0	-1996.0	134086.0
8	15	47	4	942	83.0	-196145.0	-1983.0	154249.0
8	15	47	4	964	84.0	-196185.0	-1994.0	134213.0
8	15	47	4	965	85.0	-196279.0	-1973.0	68049.0
8	15	47	4	966	86.0	-196042.0	-1949.0	-31274.0
8	15	47	4	966	87.0	-196040.0	-1918.0	-139135.0
8	15	47	4	967	88.0	-196222.0	-1886.0	-189402.0
8	15	47	4	967	89.0	-196167.0	-1841.0	-151479.0
8	15	47	4	968	90.0	-196034.0	-1802.0	-41601.0
8	15	47	4	969	91.0	-196219.0	-1781.0	69056.0
8	15	47	4	969	92.0	-196148.0	-1760.0	130358.0
8	15	47	4	970	93.0	-195967.0	-1746.0	149339.0
8	15	47	4	970	94.0	-196146.0	-1754.0	126746.0
8	15	47	4	971	95.0	-196057.0	-1746.0	61405.0
8	15	47	4	971	96.0	-196014.0	-1719.0	-37222.0
8	15	47	5	14	97.0	-196236.0	-1687.0	-142779.0
8	15	47	5	14	98.0	-196224.0	-1663.0	-188691.0
8	15	47	5	15	99.0	-196128.0	-1620.0	-146163.0
8	15	47	5	16	100.0	-196088.0	-1614.0	-33464.0
8	15	47	5	16	101.0	-195989.0	-1586.0	76984.0
8	15	47	5	17	102.0	-195986.0	-1565.0	135671.0
8	15	47	5	17	103.0	-195854.0	-1570.0	152771.0
8	15	47	5	18	104.0	-195639.0	-1576.0	127920.0
8	15	47	5	18	105.0	-195614.0	-1562.0	60068.0
8	15	47	5	19	106.0	-195870.0	-1555.0	-39230.0
8	15	47	5	20	107.0	-195903.0	-1543.0	-140985.0
8	15	47	5	20	108.0	-195849.0	-1499.0	-183400.0
8	15	47	5	21	109.0	-196010.0	-1473.0	-133996.0
8	15	47	5	21	110.0	-195863.0	-1461.0	-20339.0
8	15	47	5	22	111.0	-195706.0	-1451.0	85351.0
8	15	47	5	22	112.0	-195934.0	-1454.0	139139.0
8	15	47	5	23	122.0	-196178.0	-1366.0	142327.0
8	15	47	5	24	123.0	-196017.0	-1376.0	155391.0
8	15	47	5	24	124.0	-196014.0	-1375.0	123367.0
8	15	47	5	33	125.0	-196152.0	-1377.0	47684.0
8	15	47	5	34	126.0	-196075.0	-1390.0	-59141.0
8	15	47	5	35	127.0	-196196.0	-1371.0	-158207.0
8	15	47	5	35	128.0	-196341.0	-1346.0	-190011.0
8	15	47	5	36	129.0	-196216.0	-1326.0	-128089.0
8	15	47	5	57	130.0	-196181.0	-1330.0	-6714.0
8	15	47	5	58	131.0	-196207.0	-1319.0	99419.0
8	15	47	5	58	132.0	-196157.0	-1331.0	152297.0
8	15	47	5	59	133.0	-196299.0	-1371.0	162857.0
8	15	47	5	60	134.0	-197110.0	-1382.0	127036.0
8	15	47	5	60	135.0	-313004.0	-1346.0	47544.0
8	15	47	5	61	136.0	-894425.0	-1316.0	-66784.0
8	15	47	5	61	137.0	-1720426.0	-1284.0	-169702.0
8	15	47	5	62	138.0	-2385657.0	-1297.0	-198576.0
8	15	47	5	62	139.0	-2470957.0	-1334.0	-129352.0
8	15	47	5	63	140.0	-2185832.0	-1349.0	-6497.0
8	15	47	5	64	141.0	-1699743.0	-1372.0	96143.0
8	15	47	5	64	142.0	-986877.0	-1417.0	145356.0
8	15	47	5	65	143.0	-232280.0	-1398.0	153963.0
8	15	47	5	65	144.0	317993.0	-1382.0	115228.0
8	15	47	5	66	145.0	618734.0	-1356.0	32977.0
8	15	47	5	88	146.0	704483.0	-1351.0	-80752.0
8	15	47	5	89	147.0	624202.0	-1307.0	-178823.0
8	15	47	5	90	148.0	433986.0	-1253.0	-201004.0
8	15	47	5	90	149.0	197148.0	-1226.0	-126374.0
8	15	47	5	91	150.0	-23924.0	-1226.0	-921.0
8	15	47	5	92	151.0	-185527.0	-1236.0	101204.0
8	15	47	5	92	152.0	-265856.0	-1229.0	147598.0
8	15	47	5	93	153.0	-266934.0	-1242.0	153294.0
8	15	47	5	94	154.0	-211999.0	-1247.0	112368.0
8	15	47	5	94	155.0	-132854.0	-1250.0	29047.0
8	15	47	5	95	156.0	-56272.0	-1250.0	-86681.0
8	15	47	5	96	157.0	4332.0	-1206.0	-182149.0
8	15	47	5	96	158.0	46671.0	-1156.0	-200336.0
8	15	47	5	97	159.0	73155.0	-1125.0	-119702.0
8	15	47	5	98	160.0	88784.0	-1136.0	7426.0
8	15	47	5	98	161.0	97981.0	-1143.0	107171.0
8	15	47	5	99	162.0	101576.0	-1131.0	151530.0
8	15	47	5	99	163.0	98088.0	-1136.0	156493.0
8	15	47	5	107	164.0	86263.0	-1144.0	113067.0
8	15	47	5	108	165.0	65578.0	-1152.0	28064.0
8	15	47	5	109	166.0	34753.0	-1148.0	-88548.0
8	15	47	5	131	167.0	-3453.0	-1119.0	-178718.0
8	15	47	5	131	168.0	-41991.0	-1068.0	-189084.0
8	15	47	5	132	169.0	-75263.0	-1042.0	-102975.0
8	15	47	5	133	170.0	-100039.0	-1047.0	23366.0
8	15	47	5	133	171.0	-116067.0	-1061.0	117201.0
8	15	47	5	134	172.0	-125341.0	-1059.0	157975.0
8	15	47	5	135	173.0	-132054.0	-1064.0	160010.0
8	15	47	5	135	174.0	-140524.0	-1049.0	112997.0
8	15	47	5	136	175.0	-152930.0	-1033.0	25227.0
8	15	47	5	137	176.0	-169156.0	-1021.0	-92842.0
8	15	47	5	137	177.0	-186856.0	-983.0	-180249.0
8	15	47	5	138	178.0	-203001.0	-961.0	-186702.0
8	15	47	5	138	179.0	-215622.0	-926.0	-95650.0
8	15	47	5	139	180.0	-223832.0	-909.0	31366.0
8	15	47	5	139	181.0	-228072.0	-924.0	123197.0
8	15	47	5	140	182.0	-228412.0	-926.0	161606.0
8	15	47	5	163	183.0	-225078.0	-934.0	161114.0
8	15	47	5	164	184.0	-218697.0	-930.0	111884.0
8	15	47	5	165	185.0	-210346.0	-932.0	21693.0
8	15	47	5	165	186.0	-200610.0	-923.0	-97476.0
8	15	47	5	166	187.0	-190254.0	-899.0	-180952.0
8	15	47	5	167	188.0	-180746.0	-869.0	-180973.0
8	15	47	5	167	189.0	-173325.0	-834.0	-84392.0
8	15	47	5	168	190.0	-168476.0	-817.0	41914.0
8	15	47	5	169	191.0	-166875.0	-823.0	131490.0
8	15	47	5	169	192.0	-168076.0	-822.0	168904.0
8	15	47	5	170	193.0	-170021.0	-832.0	165639.0
8	15	47	5	171	194.0	-170478.0	-836.0	111323.0
8	15	47	5	171	195.0	-168169.0	-838.0	16923.0
8	15	47	5	172	196.0	-164030.0	-815.0	-103316.0
8	15	47	5	173	197.0	-159914.0	-782.0	-183542.0
8	15	47	5	173	198.0	-160397.0	-755.0	-179182.0
8	15	47	5	174	199.0	-170649.0	-741.0	-80753.0
8	15	47	5	174	200.0	-192439.0	-739.0	45739.0
8	15	47	5	175	201.0	-221902.0	-749.0	130701.0
8	15	47	5	183	202.0	-252224.0	-752.0	164158.0
8	15	47	5	184	203.0	-279888.0	-755.0	156798.0
8	15	47	5	206	204.0	-306525.0	-766.0	101526.0
8	15	47	5	207	205.0	-336562.0	-785.0	7539.0
8	15	47	5	208	206.0	-373895.0	-779.0	-111053.0
8	15	47	5	208	207.0	-422202.0	-725.0	-188153.0
8	15	47	5	209	208.0	-487649.0	-702.0	-179143.0
8	15	47	5	210	209.0	-567361.0	-685.0	-77449.0
8	15	47	5	210	210.0	-646019.0	-694.0	48601.0
8	15	47	5	211	211.0	-710572.0	-731.0	131189.0
8	15	47	5	212	212.0	-762761.0	-731.0	163476.0
8	15	47	5	212	213.0	-804435.0	-734.0	155297.0
8	15	47	5	213	214.0	-833886.0	-765.0	99180.0
8	15	47	5	213	215.0	-859666.0	-764.0	3260.0
8	15	47	5	214	216.0	-893256.0	-764.0	-116292.0
8	15	47	5	214	217.0	-931391.0	-737.0	-188533.0
8	15	47	5	215	218.0	-956943.0	-719.0	-172814.0
8	15	47	5	216	219.0	-932654.0	-716.0	-66164.0
8	15	47	5	229	220.0	-839454.0	-729.0	58359.0
8	15	47	5	230	221.0	-807956.0	-742.0	137138.0
8	15	47	5	231	222.0	-899232.0	-746.0	165235.0
8	15	47	5	231	223.0	-976185.0	-774.0	153744.0
8	15	47	5	232	224.0	-984345.0	-811.0	93069.0
8	15	47	5	252	225.0	-937962.0	-853.0	-6127.0
8	15	47	5	253	226.0	-858212.0	-879.0	-125196.0
8	15	47	5	254	227.0	-767897.0	-896.0	-192837.0
8	15	47	5	255	228.0	-677746.0	-884.0	-171286.0
8	15	47	5	255	229.0	-554884.0	-916.0	-62746.0
8	15	47	5	256	230.0	-373634.0	-976.0	59943.0
8	15	47	5	256	231.0	-144697.0	-1017.0	136611.0
8	15	47	5	257	232.0	75781.0	-1051.0	163244.0
8	15	47	5	258	233.0	246558.0	-1102.0	148308.0
8	15	47	5	259	234.0	370214.0	-1156.0	84462.0
8	15	47	5	259	235.0	458974.0	-1196.0	-17401.0
8	15	47	5	260	236.0	526316.0	-1220.0	-136019.0
8	15	47	5	261	237.0	580253.0	-1251.0	-200058.0
8	15	47	5	261	238.0	622628.0	-1264.0	-171897.0
8	15	47	5	262	239.0	650676.0	-1285.0	-59356.0
8	15	47	5	263	241.0	649222.0	-1366.0	137153.0
8	15	47	5	263	242.0	622964.0	-1435.0	163381.0
8	15	47	5	264	243.0	589337.0	-1501.0	147104.0
8	15	47	5	264	244.0	551458.0	-1567.0	81538.0
8	15	47	5	275	245.0	508809.0	-1620.0	-22777.0
8	15	47	5	275	246.0	464400.0	-1673.0	-140686.0
8	15	47	5	276	247.0	422516.0	-1705.0	-201044.0
8	15	47	5	277	248.0	381204.0	-1734.0	-168009.0
8	15	47	5	277	249.0	337426.0	-1757.0	-49592.0
8	15	47	5	303	250.0	293126.0	-1835.0	73739.0
8	15	47	5	303	251.0	252576.0	-1910.0	145424.0
8	15	47	5	304	252.0	218783.0	-1966.0	168974.0
8	15	47	5	305	253.0	189677.0	-2034.0	147613.0
8	15	47	5	305	254.0	162582.0	-2109.0	77239.0
8	15	47	5	306	255.0	135192.0	-2186.0	-29907.0
8	15	47	5	306	0.0	109821.0	-2242.0	-147508.0
8	15	47	5	307	1.0	89693.0	-2276.0	-204712.0
8	15	47	5	326	2.0	70130.0	-2299.0	-164560.0
8	15	47	5	353	3.0	49314.0	-2351.0	-43121.0
8	15	47	5	354	4.0	30438.0	-2432.0	77790.0
8	15	47	5	354	5.0	14891.0	-2506.0	145623.0
8	15	47	5	355	6.0	-553.0	-2588.0	167063.0
8	15	47	5	356	7.0	-16829.0	-2671.0	142912.0
8	15	47	5	356	8.0	-31586.0	-2722.0	69035.0
8	15	47	5	357	9.0	-43402.0	-2777.0	-40475.0
8	15	47	5	358	10.0	-51126.0	-2844.0	-156606.0
8	15	47	5	358	11.0	-53841.0	-2876.0	-208119.0
8	15	47	5	359	12.0	-53291.0	-2897.0	-161789.0
8	15	47	5	359	13.0	-54211.0	-2956.0	-38064.0
8	15	47	5	360	14.0	-58232.0	-3017.0	81957.0
8	15	47	5	361	15.0	-63277.0	-3086.0	146052.0
8	15	47	5	361	16.0	-67431.0	-3151.0	164630.0
8	15	47	5	362	17.0	-72779.0	-3212.0	137327.0
8	15	47	5	362	18.0	-79581.0	-3291.0	62403.0
8	15	47	5	363	23.0	-95137.0	-3511.0	-25501.0
8	15	47	5	364	24.0	-94442.0	-3574.0	90555.0
8	15	47	5	364	30.0	-85818.0	-3949.0	-165248.0
8	15	47	5	365	31.0	-83729.0	-3991.0	-204682.0
8	15	47	5	365	32.0	-83280.0	-4009.0	-145046.0
8	15	47	5	366	33.0	-84512.0	-4039.0	-17176.0
8	15	47	5	366	34.0	-85736.0	-4114.0	97567.0
8	15	47	5	367	35.0	-84660.0	-4179.0	155078.0
8	15	47	5	368	36.0	-80292.0	-4257.0	169914.0
8	15	47	5	368	37.0	-72812.0	-4316.0	137049.0
8	15	47	5	369	38.0	-62893.0	-4380.0	59747.0
8	15	47	5	376	39.0	-50265.0	-4446.0	-53946.0
8	15	47	5	377	40.0	-35820.0	-4483.0	-162716.0
8	15	47	5	378	41.0	-21020.0	-4523.0	-197452.0
8	15	47	5	378	42.0	-6150.0	-4541.0	-133794.0
8	15	47	5	379	43.0	9306.0	-4594.0	-9519.0
8	15	47	5	380	44.0	26029.0	-4634.0	101446.0
8	15	47	5	380	45.0	40036.0	-4695.0	156321.0
8	15	47	5	381	46.0	52253.0	-4766.0	166706.0
8	15	47	5	403	47.0	65969.0	-4817.0	130876.0
8	15	47	5	404	48.0	84199.0	-4882.0	49163.0
8	15	47	5	405	49.0	102894.0	-4952.0	-67640.0
8	15	47	5	405	50.0	122742.0	-4984.0	-173066.0
8	15	47	5	406	51.0	140329.0	-5005.0	-204014.0
8	15	47	5	406	52.0	159763.0	-5022.0	-133144.0
8	15	47	5	407	53.0	180987.0	-5073.0	-4017.0
8	15	47	5	408	54.0	198083.0	-5125.0	105896.0
8	15	47	5	408	55.0	211636.0	-5174.0	159781.0
8	15	47	5	409	56.0	222265.0	-5234.0	170633.0
8	15	47	5	410	57.0	233825.0	-5293.0	131693.0
8	15	47	5	410	58.0	244733.0	-5334.0	49253.0
8	15	47	5	411	59.0	250693.0	-5374.0	-68075.0
8	15	47	5	411	60.0	253968.0	-5400.0	-169971.0
8	15	47	5	412	61.0	253235.0	-5411.0	-195279.0
8	15	47	5	413	62.0	251741.0	-5432.0	-119603.0
8	15	47	5	413	63.0	256789.0	-5472.0	8853.0
8	15	47	5	414	64.0	253103.0	-5532.0	113799.0
8	15	47	5	414	65.0	246708.0	-5592.0	160285.0
8	15	47	5	422	66.0	228992.0	-5649.0	166361.0
8	15	47	5	423	67.0	201949.0	-5707.0	124907.0
8	15	47	5	452	68.0	171222.0	-5737.0	40179.0
8	15	47	5	453	69.0	134645.0	-5779.0	-79931.0
8	15	47	5	453	70.0	101174.0	-5781.0	-179724.0
8	15	47	5	454	71.0	67562.0	-5781.0	-199969.0
8	15	47	5	454	72.0	34173.0	-5805.0	-118235.0
8	15	47	5	455	73.0	-1236.0	-5825.0	11686.0
8	15	47	5	456	74.0	-42909.0	-5858.0	115141.0
8	15	47	5	456	75.0	-85515.0	-5889.0	161896.0
8	15	47	5	457	76.0	-129495.0	-5947.0	166482.0
8	15	47	5	457	77.0	-173979.0	-5974.0	121717.0
8	15	47	5	458	78.0	-217489.0	-5978.0	34173.0
8	15	47	5	458	79.0	-262332.0	-6008.0	-85171.0
8	15	47	5	459	80.0	-306318.0	-6019.0	-179321.0
8	15	47	5	460	81.0	-344906.0	-5994.0	-195194.0
8	15	47	5	460	82.0	-380847.0	-5959.0	-109222.0
8	15	47	5	461	83.0	-411412.0	-5966.0	20234.0
8	15	47	5	479	84.0	-439824.0	-5993.0	118519.0
8	15	47	5	480	85.0	-464968.0	-5996.0	161707.0
8	15	47	5	481	86.0	-486386.0	-6000.0	163633.0
8	15	47	5	481	87.0	-505059.0	-6010.0	116469.0
8	15	47	5	482	88.0	-519997.0	-6012.0	26596.0
8	15	47	5	483	89.0	-529689.0	-6022.0	-92080.0
8	15	47	5	484	90.0	-533967.0	-5997.0	-182104.0
8	15	47	5	484	91.0	-537182.0	-5944.0	-192097.0
8	15	47	5	485	92.0	-540187.0	-5917.0	-102069.0
8	15	47	5	486	93.0	-538006.0	-5902.0	27417.0
8	15	47	5	486	94.0	-533301.0	-5913.0	122571.0
8	15	47	5	487	95.0	-526351.0	-5919.0	162609.0
8	15	47	5	488	96.0	-513945.0	-5914.0	161723.0
8	15	47	5	488	97.0	-494976.0	-5900.0	111898.0
8	15	47	5	489	98.0	-473690.0	-5891.0	20213.0
8	15	47	5	490	99.0	-452869.0	-5889.0	-100222.0
8	15	47	5	490	100.0	-433982.0	-5851.0	-188202.0
8	15	47	5	491	101.0	-418012.0	-5800.0	-192697.0
8	15	47	5	491	102.0	-405504.0	-5766.0	-97431.0
8	15	47	5	492	103.0	-397193.0	-5742.0	30976.0
8	15	47	5	492	104.0	-391933.0	-5730.0	123526.0
8	15	47	5	508	105.0	-389896.0	-5722.0	159244.0
8	15	47	5	508	106.0	-389484.0	-5717.0	155304.0
8	15	47	5	509	107.0	-390097.0	-5709.0	101861.0
8	15	47	5	510	108.0	-390165.0	-5694.0	6672.0
8	15	47	5	510	109.0	-386363.0	-5654.0	-115212.0
8	15	47	5	511	110.0	-378089.0	-5627.0	-196126.0
8	15	47	5	512	111.0	-368199.0	-5564.0	-193190.0
8	15	47	5	512	112.0	-356149.0	-5501.0	-94724.0
8	15	47	5	513	113.0	-343481.0	-5482.0	33360.0
8	15	47	5	513	114.0	-329520.0	-5476.0	122514.0
8	15	47	5	530	115.0	-317401.0	-5462.0	156413.0
8	15	47	5	530	116.0	-307408.0	-5437.0	151153.0
8	15	47	5	531	117.0	-299866.0	-5418.0	96699.0
8	15	47	5	531	118.0	-295075.0	-5386.0	78.0
8	15	47	5	532	119.0	-294907.0	-5349.0	-121029.0
8	15	47	5	533	120.0	-294246.0	-5309.0	-199027.0
8	15	47	5	533	121.0	-292497.0	-5242.0	-191461.0
8	15	47	5	568	122.0	-292159.0	-5176.0	-89884.0
8	15	47	5	569	123.0	-293047.0	-5146.0	36626.0
8	15	47	5	570	124.0	-298241.0	-5116.0	120859.0
8	15	47	5	571	125.0	-308801.0	-5102.0	151834.0
8	15	47	5	572	126.0	-321874.0	-5076.0	142355.0
8	15	47	5	573	127.0	-334354.0	-5036.0	85464.0
8	15	47	5	573	128.0	-340942.0	-4997.0	-10588.0
8	15	47	5	574	129.0	-343530.0	-4972.0	-130184.0
8	15	47	5	575	130.0	-345293.0	-4928.0	-202200.0
8	15	47	5	576	131.0	-345136.0	-4866.0	-185937.0
8	15	47	5	576	132.0	-344908.0	-4811.0	-78458.0
8	15	47	5	577	133.0	-345091.0	-4777.0	47723.0
8	15	47	5	578	134.0	-346939.0	-4754.0	128804.0
8	15	47	5	578	135.0	-349443.0	-4721.0	157349.0
8	15	47	5	579	136.0	-351718.0	-4708.0	144965.0
8	15	47	5	580	142.0	-380819.0	-4446.0	-78134.0
8	15	47	5	580	143.0	-380581.0	-4424.0	47959.0
8	15	47	5	581	144.0	-378223.0	-4391.0	126342.0
8	15	47	5	582	145.0	-374259.0	-4371.0	154009.0
8	15	47	5	582	146.0	-368776.0	-4363.0	139268.0
8	15	47	5	583	147.0	-362817.0	-4334.0	75700.0
8	15	47	5	583	148.0	-356513.0	-4314.0	-25643.0
8	15	47	5	584	149.0	-350032.0	-4277.0	-143753.0
8	15	47	5	585	150.0	-342976.0	-4223.0	-208731.0
8	15	47	5	597	151.0	-333905.0	-4152.0	-181886.0
8	15	47	5	616	152.0	-321325.0	-4101.0	-68898.0
8	15	47	5	617	153.0	-303980.0	-4076.0	54415.0
8	15	47	5	617	154.0	-282045.0	-4067.0	128771.0
8	15	47	5	618	155.0	-256044.0	-4054.0	154375.0
8	15	47	5	619	156.0	-227338.0	-4039.0	137810.0
8	15	47	5	619	157.0	-198239.0	-4012.0	71979.0
8	15	47	5	620	158.0	-171209.0	-4007.0	-30514.0
8	15	47	5	620	159.0	-149386.0	-3967.0	-147092.0
8	15	47	5	638	160.0	-133822.0	-3927.0	-207294.0
8	15	47	5	667	161.0	-123236.0	-3869.0	-174507.0
8	15	47	5	668	162.0	-119237.0	-3827.0	-57159.0
8	15	47	5	669	163.0	-121837.0	-3820.0	65037.0
8	15	47	5	670	164.0	-128929.0	-3828.0	136514.0
8	15	47	5	671	165.0	-141279.0	-3802.0	160473.0
8	15	47	5	671	166.0	-154905.0	-3780.0	139756.0
8	15	47	5	672	167.0	-167483.0	-3781.0	70343.0
8	15	47	5	673	168.0	-179151.0	-3762.0	-35614.0
8	15	47	5	674	169.0	-192501.0	-3737.0	-152474.0
8	15	47	5	674	170.0	-202841.0	-3694.0	-208947.0
8	15	47	5	675	171.0	-212891.0	-3641.0	-169604.0
8	15	47	5	675	172.0	-228607.0	-3597.0	-49175.0
8	15	47	5	676	173.0	-246685.0	-3587.0	73031.0
8	15	47	5	677	174.0	-259661.0	-3579.0	140215.0
8	15	47	5	677	175.0	-269366.0	-3567.0	159813.0
8	15	47	5	678	180.0	-306381.0	-3485.0	-206118.0
8	15	47	5	678	181.0	-312842.0	-3434.0	-160697.0
8	15	47	5	679	182.0	-317068.0	-3395.0	-37717.0
8	15	47	5	679	183.0	-317055.0	-3398.0	82029.0
8	15	47	5	680	184.0	-311406.0	-3418.0	145855.0
8	15	47	5	681	185.0	-303347.0	-3396.0	164664.0
8	15	47	5	682	186.0	-294413.0	-3387.0	136785.0
8	15	47	5	683	187.0	-285908.0	-3392.0	62109.0
8	15	47	5	683	188.0	-278721.0	-3421.0	-49129.0
8	15	47	5	684	189.0	-273776.0	-3384.0	-163359.0
8	15	47	5	685	190.0	-272581.0	-3330.0	-209219.0
8	15	47	5	685	191.0	-276014.0	-3291.0	-157334.0
8	15	47	5	686	192.0	-287947.0	-3267.0	-33434.0
8	15	47	5	687	193.0	-309886.0	-3265.0	83864.0
8	15	47	5	687	194.0	-341585.0	-3277.0	147129.0
8	15	47	5	688	195.0	-384548.0	-3275.0	167026.0
8	15	47	5	689	196.0	-443742.0	-3291.0	138972.0
8	15	47	5	689	197.0	-518614.0	-3292.0	62284.0
8	15	47	5	690	198.0	-617095.0	-3284.0	-51407.0
8	15	47	5	691	199.0	-751756.0	-3261.0	-164648.0
8	15	47	5	691	200.0	-927647.0	-3221.0	-207514.0
8	15	47	5	692	201.0	-1152073.0	-3174.0	-149605.0
8	15	47	5	693	202.0	-1425337.0	-3176.0	-22931.0
8	15	47	5	693	203.0	-1732439.0	-3200.0	92158.0
8	15	47	5	718	204.0	-1945866.0	-3219.0	150776.0
8	15	47	5	719	205.0	-1975474.0	-3233.0	165501.0
8	15	47	5	720	206.0	-1909348.0	-3256.0	133887.0
8	15	47	5	720	207.0	-1811712.0	-3275.0	55198.0
8	15	47	5	721	208.0	-1700946.0	-3284.0	-60269.0
8	15	47	5	721	209.0	-1580716.0	-3276.0	-171224.0
8	15	47	5	722	210.0	-1455337.0	-3251.0	-209201.0
8	15	47	5	722	211.0	-1324221.0	-3227.0	-145104.0
8	15	47	5	723	212.0	-1189229.0	-3221.0	-16406.0
8	15	47	5	724	213.0	-1058520.0	-3235.0	96748.0
8	15	47	5	724	214.0	-937062.0	-3262.0	151863.0
8	15	47	5	725	215.0	-825161.0	-3260.0	164248.0
8	15	47	5	725	216.0	-722729.0	-3266.0	129348.0
8	15	47	5	726	217.0	-625164.0	-3271.0	47712.0
8	15	47	5	726	218.0	-527814.0	-3305.0	-68776.0
8	15	47	5	727	219.0	-426599.0	-3305.0	-174367.0
8	15	47	5	728	220.0	-318986.0	-3309.0	-206482.0
8	15	47	5	728	221.0	-207583.0	-3272.0	-136379.0
8	15	47	5	729	222.0	-90329.0	-3252.0	-7807.0
8	15	47	5	737	223.0	35699.0	-3297.0	102360.0
8	15	47	5	737	224.0	181879.0	-3314.0	155619.0
8	15	47	5	761	225.0	355570.0	-3346.0	166343.0
8	15	47	5	761	226.0	562578.0	-3372.0	127808.0
8	15	47	5	762	227.0	749059.0	-3391.0	43360.0
8	15	47	5	762	228.0	888928.0	-3403.0	-75264.0
8	15	47	5	763	229.0	986500.0	-3397.0	-179717.0
8	15	47	5	764	230.0	1048594.0	-3368.0	-206454.0
8	15	47	5	764	231.0	1079446.0	-3353.0	-129804.0
8	15	47	5	765	232.0	1079633.0	-3347.0	2506.0
8	15	47	5	765	233.0	1052556.0	-3361.0	109460.0
8	15	47	5	766	234.0	1005986.0	-3383.0	158568.0
8	15	47	5	766	235.0	949244.0	-3399.0	165471.0
8	15	47	5	767	236.0	887155.0	-3406.0	122273.0
8	15	47	5	767	237.0	822413.0	-3439.0	35011.0
8	15	47	5	768	238.0	759933.0	-3439.0	-84722.0
8	15	47	5	769	239.0	703206.0	-3396.0	-184873.0
8	15	47	5	769	240.0	648780.0	-3370.0	-206964.0
8	15	47	5	808	241.0	592032.0	-3365.0	-124948.0
8	15	47	5	809	242.0	536019.0	-3351.0	6645.0
8	15	47	5	810	243.0	485278.0	-3339.0	108919.0
8	15	47	5	810	244.0	440434.0	-3359.0	154880.0
8	15	47	5	811	245.0	400203.0	-3368.0	159601.0
8	15	47	5	811	246.0	362288.0	-3369.0	116590.0
8	15	47	5	812	247.0	325585.0	-3346.0	28708.0
8	15	47	5	813	248.0	289253.0	-3336.0	-94128.0
8	15	47	5	813	249.0	252748.0	-3302.0	-191933.0
8	15	47	5	814	250.0	216531.0	-3242.0	-205911.0
8	15	47	5	814	251.0	180763.0	-3206.0	-118447.0
8	15	47	5	815	252.0	144695.0	-3182.0	14898.0
8	15	47	5	816	253.0	109284.0	-3155.0	116487.0
8	15	47	5	816	254.0	78776.0	-3148.0	160416.0
8	15	47	5	817	255.0	57719.0	-3132.0	164185.0
8	15	47	5	817	6.0	53913.0	-2862.0	20425.0
8	15	47	5	818	7.0	52996.0	-2847.0	118541.0
8	15	47	5	818	8.0	50425.0	-2826.0	160348.0
8	15	47	5	819	9.0	47116.0	-2793.0	161457.0
8	15	47	5	828	10.0	43948.0	-2772.0	110809.0
8	15	47	5	828	11.0	42265.0	-2749.0	18030.0
8	15	47	5	829	12.0	45351.0	-2729.0	-102937.0
8	15	47	5	829	13.0	56056.0	-2664.0	-190229.0
8	15	47	5	830	14.0	77427.0	-2608.0	-194592.0
8	15	47	5	851	15.0	109539.0	-2574.0	-98449.0
8	15	47	5	852	16.0	145283.0	-2541.0	33566.0
8	15	47	5	853	17.0	180386.0	-2524.0	127793.0
8	15	47	5	853	18.0	204888.0	-2484.0	166664.0
8	15	47	5	854	19.0	222859.0	-2473.0	164255.0
8	15	47	5	854	20.0	238659.0	-2469.0	112191.0
8	15	47	5	855	21.0	246724.0	-2450.0	18889.0
8	15	47	5	856	22.0	246339.0	-2419.0	-104026.0
8	15	47	5	883	23.0	240059.0	-2379.0	-189181.0
8	15	47	5	899	24.0	232014.0	-2326.0	-188810.0
8	15	47	5	900	25.0	219511.0	-2276.0	-88206.0
8	15	47	5	900	26.0	197818.0	-2254.0	42968.0
8	15	47	5	901	27.0	174853.0	-2234.0	132626.0
8	15	47	5	902	28.0	149994.0	-2221.0	169506.0
8	15	47	5	903	29.0	129462.0	-2205.0	165612.0
8	15	47	5	903	30.0	114781.0	-2200.0	110414.0
8	15	47	5	904	31.0	113376.0	-2181.0	14772.0
8	15	47	5	904	32.0	117394.0	-2148.0	-107165.0
8	15	47	5	905	33.0	121256.0	-2119.0	-185709.0
8	15	47	5	905	34.0	122076.0	-2084.0	-178291.0
8	15	47	5	906	35.0	117676.0	-2029.0	-75766.0
8	15	47	5	907	36.0	105819.0	-2018.0	51688.0
8	15	47	5	907	37.0	94757.0	-1994.0	136923.0
8	15	47	5	921	44.0	-102462.0	-1924.0	-174045.0
8	15	47	5	922	51.0	-372667.0	-1907.0	1724.0
8	15	47	5	923	52.0	-410787.0	-1873.0	-119347.0
8	15	47	5	923	53.0	-463111.0	-1829.0	-188539.0
8	15	47	5	924	54.0	-549141.0	-1788.0	-168258.0
8	15	47	5	947	55.0	-673754.0	-1747.0	-60663.0
8	15	47	5	948	56.0	-822609.0	-1742.0	63287.0
8	15	47	5	948	57.0	-979295.0	-1762.0	140751.0
8	15	47	5	949	58.0	-1130326.0	-1753.0	170030.0
8	15	47	5	950	59.0	-1262944.0	-1733.0	157667.0
8	15	47	5	950	60.0	-1362275.0	-1723.0	93731.0
8	15	47	5	951	61.0	-1417183.0	-1732.0	-9212.0
8	15	47	5	951	62.0	-1427036.0	-1714.0	-131104.0
8	15	47	5	952	63.0	-1400533.0	-1667.0	-198727.0
8	15	47	5	952	64.0	-1350721.0	-1639.0	-171550.0
8	15	47	5	953	65.0	-1289839.0	-1605.0	-57021.0
8	15	47	5	970	66.0	-1225957.0	-1597.0	65869.0
8	15	47	5	970	67.0	-1163502.0	-1582.0	140409.0
8	15	47	5	971	68.0	-1106224.0	-1579.0	167263.0
8	15	47	5	972	69.0	-1057457.0	-1577.0	151808.0
8	15	47	5	972	70.0	-1016369.0	-1569.0	85615.0
8	15	47	5	973	71.0	-980176.0	-1558.0	-19017.0
8	15	47	5	974	72.0	-946639.0	-1541.0	-139237.0
8	15	47	5	974	73.0	-915559.0	-1524.0	-203581.0
8	15	47	5	975	74.0	-885336.0	-1480.0	-171541.0
8	15	47	5	975	75.0	-854591.0	-1437.0	-53363.0
8	15	47	5	976	76.0	-822417.0	-1426.0	69108.0
8	15	47	5	976	77.0	-787099.0	-1436.0	141106.0
8	15	47	5	977	78.0	-746138.0	-1426.0	165132.0
8	15	47	5	978	79.0	-698505.0	-1431.0	145144.0
8	15	47	5	978	80.0	-648115.0	-1428.0	77119.0
8	15	47	5	979	81.0	-603238.0	-1427.0	-27112.0
8	15	47	5	979	82.0	-574476.0	-1406.0	-144228.0
8	15	47	5	980	83.0	-563371.0	-1356.0	-203152.0
8	15	47	5	980	84.0	-562077.0	-1308.0	-166554.0
8	15	47	5	981	85.0	-564686.0	-1297.0	-47763.0
8	15	47	5	981	86.0	-569166.0	-1287.0	75589.0
8	15	47	5	982	87.0	-575855.0	-1313.0	144664.0
8	15	47	5	983	88.0	-581536.0	-1307.0	166388.0
8	15	47	5	997	89.0	-579426.0	-1299.0	145699.0
8	15	47	5	998	90.0	-563404.0	-1305.0	76126.0
8	15	47	5	999	91.0	-531973.0	-1306.0	-32114.0
8	15	47	5	999	92.0	-487587.0	-1292.0	-146947.0
8	15	47	6	0	93.0	-436968.0	-1279.0	-199376.0
8	15	47	6	0	94.0	-387992.0	-1247.0	-155238.0
8	15	47	6	1	95.0	-345704.0	-1220.0	-32824.0
8	15	47	6	2	96.0	-310032.0	-1223.0	88806.0
8	15	47	6	3	97.0	-272860.0	-1246.0	155625.0
8	15	47	6	3	98.0	-224359.0	-1245.0	176153.0
8	15	47	6	4	99.0	-160744.0	-1262.0	151806.0
8	15	47	6	4	100.0	-89881.0	-1292.0	77894.0
8	15	47	6	5	101.0	-22271.0	-1304.0	-33309.0
8	15	47	6	5	102.0	31901.0	-1284.0	-147454.0
8	15	47	6	6	103.0	65177.0	-1274.0	-196224.0
8	15	47	6	6	104.0	78023.0	-1247.0	-146122.0
8	15	47	6	33	105.0	81218.0	-1250.0	-22222.0
8	15	47	6	34	106.0	86382.0	-1272.0	96204.0
8	15	47	6	34	107.0	95106.0	-1315.0	158371.0
8	15	47	6	35	108.0	99895.0	-1336.0	176658.0
8	15	47	6	47	109.0	96034.0	-1355.0	148353.0
8	15	47	6	48	110.0	88179.0	-1371.0	70290.0
8	15	47	6	49	111.0	84971.0	-1401.0	-45711.0
8	15	47	6	50	112.0	91368.0	-1415.0	-161504.0
8	15	47	6	50	113.0	100779.0	-1413.0	-206326.0
8	15	47	6	51	114.0	102423.0	-1396.0	-147921.0
8	15	47	6	52	115.0	88474.0	-1393.0	-19264.0
8	15	47	6	52	116.0	62114.0	-1435.0	97934.0
8	15	47	6	53	117.0	37099.0	-1489.0	158114.0
8	15	47	6	53	118.0	20787.0	-1537.0	173605.0
8	15	47	6	54	119.0	17254.0	-1586.0	140977.0
8	15	47	6	55	120.0	24953.0	-1606.0	58588.0
8	15	47	6	55	121.0	37613.0	-1647.0	-60961.0
8	15	47	6	56	122.0	50065.0	-1689.0	-173829.0
8	15	47	6	56	123.0	60861.0	-1688.0	-212028.0
8	15	47	6	57	126.0	79850.0	-1802.0	100918.0
8	15	47	6	58	127.0	70658.0	-1884.0	158585.0
8	15	47	6	58	128.0	60602.0	-1921.0	173693.0
8	15	47	6	59	129.0	51018.0	-1974.0	137834.0
8	15	47	6	69	130.0	44359.0	-2024.0	52839.0
8	15	47	6	70	131.0	41834.0	-2089.0	-67856.0
8	15	47	6	70	132.0	42568.0	-2153.0	-177793.0
8	15	47	6	71	133.0	46696.0	-2166.0	-212097.0
8	15	47	6	97	134.0	50208.0	-2191.0	-140730.0
8	15	47	6	98	135.0	46344.0	-2251.0	-5342.0
8	15	47	6	98	136.0	32197.0	-2308.0	110683.0
8	15	47	6	99	137.0	9259.0	-2384.0	165973.0
8	15	47	6	99	138.0	-16864.0	-2452.0	175399.0
8	15	47	6	100	139.0	-39036.0	-2527.0	135853.0
8	15	47	6	100	140.0	-51063.0	-2601.0	48541.0
8	15	47	6	101	141.0	-50437.0	-2669.0	-74627.0
8	15	47	6	102	142.0	-38185.0	-2724.0	-181787.0
8	15	47	6	153	143.0	-22782.0	-2753.0	-210149.0
8	15	47	6	176	144.0	-11719.0	-2824.0	-131553.0
8	15	47	6	176	145.0	-6152.0	-2891.0	5568.0
8	15	47	6	177	146.0	-5477.0	-2952.0	115009.0
8	15	47	6	178	147.0	-8274.0	-3056.0	167436.0
8	15	47	6	178	148.0	-13891.0	-3146.0	177723.0
8	15	47	6	179	149.0	-21529.0	-3237.0	136120.0
8	15	47	6	179	150.0	-28956.0	-3328.0	45895.0
8	15	47	6	180	151.0	-34912.0	-3410.0	-78646.0
8	15	47	6	181	152.0	-40659.0	-3473.0	-183141.0
8	15	47	6	181	153.0	-47791.0	-3504.0	-207727.0
8	15	47	6	182	154.0	-57658.0	-3552.0	-125429.0
8	15	47	6	182	155.0	-71293.0	-3634.0	9796.0
8	15	47	6	183	156.0	-86447.0	-3708.0	116700.0
8	15	47	6	183	157.0	-95798.0	-3798.0	164651.0
8	15	47	6	184	178.0	-121504.0	-4969.0	165811.0
8	15	47	6	184	179.0	-122257.0	-4994.0	113399.0
8	15	47	6	185	186.0	-115730.0	-5128.0	124478.0
8	15	47	6	186	187.0	-113672.0	-5178.0	164779.0
8	15	47	6	186	188.0	-113246.0	-5187.0	162653.0
8	15	47	6	200	189.0	-114326.0	-5216.0	109859.0
8	15	47	6	200	190.0	-115286.0	-5237.0	13089.0
8	15	47	6	201	191.0	-115177.0	-5274.0	-113875.0
8	15	47	6	202	192.0	-114919.0	-5269.0	-203134.0
8	15	47	6	202	193.0	-115145.0	-5254.0	-205116.0
8	15	47	6	203	194.0	-115891.0	-5262.0	-104334.0
8	15	47	6	203	195.0	-116402.0	-5296.0	28514.0
8	15	47	6	204	196.0	-116107.0	-5306.0	122503.0
8	15	47	6	205	197.0	-114518.0	-5330.0	161664.0
8	15	47	6	205	198.0	-112548.0	-5365.0	158096.0
8	15	47	6	206	199.0	-111382.0	-5388.0	103999.0
8	15	47	6	206	200.0	-110234.0	-5404.0	8702.0
8	15	47	6	207	201.0	-110214.0	-5384.0	-115272.0
8	15	47	6	208	202.0	-109497.0	-5380.0	-199336.0
8	15	47	6	208	203.0	-106961.0	-5363.0	-194966.0
8	15	47	6	209	204.0	-103067.0	-5371.0	-88847.0
8	15	47	6	223	205.0	-97144.0	-5383.0	44338.0
8	15	47	6	223	206.0	-89110.0	-5409.0	133193.0
8	15	47	6	224	207.0	-80243.0	-5428.0	169221.0
8	15	47	6	225	208.0	-71458.0	-5454.0	161556.0
8	15	47	6	245	209.0	-63466.0	-5472.0	102621.0
8	15	47	6	246	210.0	-58849.0	-5474.0	2242.0
8	15	47	6	246	211.0	-51689.0	-5484.0	-126314.0
8	15	47	6	247	212.0	-32541.0	-5475.0	-206517.0
8	15	47	6	248	213.0	-12303.0	-5443.0	-194941.0
8	15	47	6	248	214.0	4049.0	-5421.0	-84942.0
8	15	47	6	249	215.0	18012.0	-5434.0	46844.0
8	15	47	6	249	216.0	30608.0	-5436.0	131206.0
8	15	47	6	250	217.0	42219.0	-5444.0	163492.0
8	15	47	6	250	218.0	51891.0	-5456.0	153720.0
8	15	47	6	251	219.0	60218.0	-5453.0	92233.0
8	15	47	6	251	220.0	72483.0	-5459.0	-9459.0
8	15	47	6	252	221.0	82606.0	-5459.0	-133270.0
8	15	47	6	253	222.0	86983.0	-5427.0	-207819.0
8	15	47	6	253	223.0	88209.0	-5394.0	-190847.0
8	15	47	6	254	224.0	88634.0	-5346.0	-79556.0
8	15	47	6	279	225.0	85040.0	-5322.0	50429.0
8	15	47	6	280	226.0	78094.0	-5331.0	134139.0
8	15	47	6	281	227.0	71234.0	-5324.0	165089.0
8	15	47	6	281	228.0	68289.0	-5306.0	153994.0
8	15	47	6	282	229.0	65074.0	-5281.0	92293.0
8	15	47	6	282	230.0	54629.0	-5253.0	-9897.0
8	15	47	6	283	231.0	33869.0	-5206.0	-133016.0
8	15	47	6	284	232.0	5666.0	-5154.0	-202559.0
8	15	47	6	284	233.0	-30337.0	-5072.0	-177486.0
8	15	47	6	285	234.0	-74331.0	-4999.0	-62514.0
8	15	47	6	285	235.0	-120902.0	-4959.0	63696.0
8	15	47	6	286	236.0	-165207.0	-4907.0	140929.0
8	15	47	6	287	237.0	-206483.0	-4856.0	168973.0
8	15	47	6	287	238.0	-246336.0	-4808.0	153686.0
8	15	47	6	288	239.0	-279232.0	-4744.0	87787.0
8	15	47	6	288	240.0	-306469.0	-4659.0	-17622.0
8	15	47	6	289	241.0	-327405.0	-4606.0	-139436.0
8	15	47	6	289	242.0	-340840.0	-4507.0	-206283.0
8	15	47	6	290	243.0	-346767.0	-4400.0	-176582.0
8	15	47	6	291	244.0	-346789.0	-4312.0	-59799.0
8	15	47	6	291	245.0	-346154.0	-4238.0	63918.0
8	15	47	6	302	246.0	-348859.0	-4144.0	137224.0
8	15	47	6	303	247.0	-353617.0	-4062.0	162278.0
8	15	47	6	303	248.0	-360286.0	-3976.0	142551.0
8	15	47	6	304	249.0	-367147.0	-3886.0	72503.0
8	15	47	6	328	250.0	-373069.0	-3826.0	-35592.0
8	15	47	6	351	251.0	-379096.0	-3712.0	-154544.0
8	15	47	6	378	252.0	-385096.0	-3583.0	-214107.0
8	15	47	6	379	253.0	-389675.0	-3462.0	-179066.0
8	15	47	6	380	254.0	-392926.0	-3351.0	-58916.0
8	15	47	6	380	255.0	-394864.0	-3266.0	64599.0
8	15	47	6	381	0.0	-394549.0	-3208.0	134978.0
8	15	47	6	382	1.0	-392457.0	-3122.0	158374.0
8	15	47	6	382	2.0	-391426.0	-3035.0	139203.0
8	15	47	6	383	3.0	-392040.0	-2967.0	70096.0
8	15	47	6	383	4.0	-392859.0	-2901.0	-35376.0
8	15	47	6	384	5.0	-392702.0	-2810.0	-150417.0
8	15	47	6	384	6.0	-389892.0	-2680.0	-205003.0
8	15	47	6	385	7.0	-382734.0	-2583.0	-163022.0
8	15	47	6	386	8.0	-371182.0	-2479.0	-41442.0
8	15	47	6	386	9.0	-356006.0	-2412.0	78007.0
8	15	47	6	387	12.0	-296599.0	-2229.0	142591.0
8	15	47	6	387	27.0	-155145.0	-1247.0	-147607.0
8	15	47	6	388	28.0	-157504.0	-1193.0	-23697.0
8	15	47	6	388	29.0	-162028.0	-1149.0	89741.0
8	15	47	6	389	30.0	-169847.0	-1121.0	147485.0
8	15	47	6	389	31.0	-178559.0	-1076.0	162659.0
8	15	47	6	390	32.0	-185578.0	-1059.0	132803.0
8	15	47	6	391	33.0	-190996.0	-1022.0	57807.0
8	15	47	6	391	34.0	-196214.0	-976.0	-52946.0
8	15	47	6	392	35.0	-200982.0	-914.0	-161724.0
8	15	47	6	393	36.0	-204821.0	-850.0	-202572.0
8	15	47	6	394	37.0	-207842.0	-777.0	-143634.0
8	15	47	6	394	38.0	-210146.0	-740.0	-19180.0
8	15	47	6	395	39.0	-212436.0	-726.0	92296.0
8	15	47	6	396	40.0	-215025.0	-709.0	148986.0
8	15	47	6	396	41.0	-219432.0	-690.0	162051.0
8	15	47	6	397	42.0	-227732.0	-660.0	129634.0
8	15	47	6	397	43.0	-240964.0	-632.0	51667.0
8	15	47	6	398	44.0	-256388.0	-602.0	-60130.0
8	15	47	6	453	45.0	-270613.0	-542.0	-164089.0
8	15	47	6	454	46.0	-281557.0	-492.0	-196669.0
8	15	47	6	473	47.0	-288371.0	-437.0	-130216.0
8	15	47	6	474	48.0	-293043.0	-401.0	-3052.0
8	15	47	6	475	49.0	-297622.0	-383.0	107156.0
8	15	47	6	475	50.0	-302226.0	-357.0	159455.0
8	15	47	6	476	51.0	-306911.0	-343.0	169909.0
8	15	47	6	476	52.0	-310964.0	-337.0	133273.0
8	15	47	6	477	53.0	-312779.0	-318.0	52261.0
8	15	47	6	477	54.0	-311669.0	-282.0	-65649.0
8	15	47	6	478	55.0	-308000.0	-241.0	-170316.0
8	15	47	6	479	56.0	-302163.0	-206.0	-196554.0
8	15	47	6	479	57.0	-295839.0	-170.0	-125924.0
8	15	47	6	480	58.0	-290576.0	-152.0	-1195.0
8	15	47	6	480	59.0	-286512.0	-127.0	105009.0
8	15	47	6	481	72.0	-253647.0	-27.0	112677.0
8	15	47	6	481	73.0	-251696.0	-21.0	27251.0
8	15	47	6	482	74.0	-250819.0	-33.0	-93071.0
8	15	47	6	483	75.0	-251621.0	-23.0	-190196.0
8	15	47	6	483	76.0	-252667.0	19.0	-208371.0
8	15	47	6	484	77.0	-253101.0	66.0	-127109.0
8	15	47	6	485	78.0	-252450.0	42.0	1600.0
8	15	47	6	485	79.0	-251266.0	46.0	102879.0
8	15	47	6	486	80.0	-250091.0	43.0	148581.0
8	15	47	6	486	81.0	-247200.0	33.0	153081.0
8	15	47	6	487	82.0	-244914.0	31.0	109391.0
8	15	47	6	487	83.0	-244469.0	29.0	22133.0
8	15	47	6	488	84.0	-244684.0	39.0	-97117.0
8	15	47	6	489	85.0	-244913.0	69.0	-189987.0
8	15	47	6	489	86.0	-244866.0	93.0	-201912.0
8	15	47	6	490	87.0	-245344.0	118.0	-114474.0
8	15	47	6	491	88.0	-247116.0	118.0	13247.0
8	15	47	6	513	89.0	-249574.0	124.0	111381.0
8	15	47	6	514	90.0	-252235.0	128.0	154324.0
8	15	47	6	515	91.0	-253751.0	121.0	156973.0
8	15	47	6	515	92.0	-252754.0	108.0	109644.0
8	15	47	6	516	93.0	-249225.0	98.0	20116.0
8	15	47	6	517	94.0	-243449.0	119.0	-102656.0
8	15	47	6	517	95.0	-236487.0	141.0	-192315.0
8	15	47	6	518	96.0	-229560.0	161.0	-198776.0
8	15	47	6	519	97.0	-223419.0	198.0	-108146.0
8	15	47	6	520	98.0	-218834.0	214.0	19853.0
8	15	47	6	520	99.0	-216656.0	199.0	114696.0
8	15	47	6	521	100.0	-216871.0	182.0	154124.0
8	15	47	6	522	101.0	-218270.0	179.0	152411.0
8	15	47	6	522	102.0	-220436.0	176.0	101036.0
8	15	47	6	523	103.0	-222591.0	192.0	9592.0
8	15	47	6	523	104.0	-223292.0	198.0	-110787.0
8	15	47	6	524	105.0	-222154.0	215.0	-195786.0
8	15	47	6	525	106.0	-218998.0	236.0	-197022.0
8	15	47	6	533	107.0	-214186.0	264.0	-101497.0
8	15	47	6	534	108.0	-207970.0	264.0	25666.0
8	15	47	6	534	109.0	-200720.0	258.0	116511.0
8	15	47	6	556	110.0	-192512.0	248.0	154276.0
8	15	47	6	556	111.0	-183161.0	246.0	150720.0
8	15	47	6	557	112.0	-172772.0	261.0	95999.0
8	15	47	6	558	113.0	-161768.0	267.0	1552.0
8	15	47	6	558	114.0	-150732.0	259.0	-118586.0
8	15	47	6	559	115.0	-139214.0	266.0	-200378.0
8	15	47	6	560	116.0	-127308.0	304.0	-195488.0
8	15	47	6	560	117.0	-116171.0	328.0	-93822.0
8	15	47	6	561	118.0	-106816.0	325.0	33519.0
8	15	47	6	561	119.0	-99052.0	324.0	119907.0
8	15	47	6	562	120.0	-91026.0	334.0	154941.0
8	15	47	6	562	121.0	-79241.0	324.0	150643.0
8	15	47	6	563	122.0	-60202.0	300.0	95368.0
8	15	47	6	564	123.0	-32219.0	299.0	551.0
8	15	47	6	564	124.0	1891.0	324.0	-117957.0
8	15	47	6	565	125.0	40888.0	339.0	-194692.0
8	15	47	6	580	126.0	83694.0	381.0	-183047.0
8	15	47	6	602	127.0	126483.0	393.0	-79539.0
8	15	47	6	603	128.0	171132.0	392.0	46114.0
8	15	47	6	604	129.0	215678.0	389.0	129924.0
8	15	47	6	605	130.0	255941.0	371.0	163209.0
8	15	47	6	605	131.0	291754.0	371.0	154458.0
8	15	47	6	606	132.0	318473.0	365.0	96789.0
8	15	47	6	607	133.0	331651.0	366.0	1555.0
8	15	47	6	607	134.0	328816.0	389.0	-117553.0
8	15	47	6	608	135.0	312424.0	391.0	-190259.0
8	15	47	6	608	136.0	296691.0	416.0	-173551.0
8	15	47	6	609	137.0	280499.0	433.0	-65698.0
8	15	47	6	609	138.0	262867.0	416.0	58723.0
8	15	47	6	610	139.0	239922.0	414.0	138348.0
8	15	47	6	611	140.0	211501.0	394.0	168089.0
8	15	47	6	611	141.0	187924.0	379.0	155998.0
8	15	47	6	612	142.0	157556.0	370.0	94819.0
8	15	47	6	612	143.0	123189.0	358.0	-4928.0
8	15	47	6	613	144.0	83298.0	367.0	-123186.0
8	15	47	6	613	145.0	31592.0	378.0	-189828.0
8	15	47	6	614	146.0	-26087.0	401.0	-167651.0
8	15	47	6	626	147.0	-88304.0	411.0	-58246.0
8	15	47	6	626	148.0	-172590.0	381.0	62713.0
8	15	47	6	627	149.0	-274999.0	392.0	137637.0
8	15	47	6	628	150.0	-383128.0	403.0	165359.0
8	15	47	6	628	151.0	-513809.0	389.0	150902.0
8	15	47	6	629	152.0	-710316.0	396.0	86133.0
8	15	47	6	629	153.0	-1122750.0	423.0	-13981.0
8	15	47	6	630	154.0	-1403026.0	376.0	-128545.0
8	15	47	6	631	155.0	-1285191.0	379.0	-189457.0
8	15	47	6	631	156.0	-1137872.0	419.0	-159927.0
