9	18	6	43	289	199.0	-160668.0	-10251.0	43134.0
9	18	6	43	291	200.0	-160476.0	-10156.0	25819.0
9	18	6	43	293	201.0	-160399.0	-10072.0	51286.0
9	18	6	43	295	202.0	-160399.0	-10006.0	104901.0
9	18	6	43	297	203.0	-160482.0	-9988.0	151202.0
9	18	6	43	299	204.0	-160413.0	-9979.0	172835.0
9	18	6	43	302	205.0	-160351.0	-9956.0	176133.0
9	18	6	43	304	206.0	-160613.0	-9925.0	166135.0
9	18	6	43	305	207.0	-160746.0	-9899.0	141999.0
9	18	6	43	306	208.0	-160589.0	-9904.0	97678.0
9	18	6	43	307	209.0	-160532.0	-9847.0	46382.0
9	18	6	43	308	210.0	-160604.0	-9766.0	31993.0
9	18	6	43	309	211.0	-160548.0	-9683.0	60525.0
9	18	6	43	310	212.0	-160515.0	-9645.0	113220.0
9	18	6	43	311	213.0	-160361.0	-9619.0	156228.0
9	18	6	43	311	214.0	-160398.0	-9589.0	176151.0
9	18	6	43	321	215.0	-160457.0	-9576.0	177673.0
9	18	6	43	321	216.0	-160523.0	-9547.0	164510.0
9	18	6	43	322	217.0	-160757.0	-9503.0	137332.0
9	18	6	43	349	218.0	-160864.0	-9496.0	88578.0
9	18	6	43	349	219.0	-160729.0	-9438.0	37858.0
9	18	6	43	350	220.0	-160706.0	-9372.0	24005.0
9	18	6	43	351	221.0	-160734.0	-9287.0	52482.0
9	18	6	43	377	222.0	-160719.0	-9252.0	104633.0
9	18	6	43	422	223.0	-160753.0	-9216.0	146795.0
9	18	6	43	423	224.0	-160657.0	-9199.0	162620.0
9	18	6	43	434	225.0	-160590.0	-9177.0	162781.0
9	18	6	43	434	226.0	-160326.0	-9151.0	150641.0
9	18	6	43	435	227.0	-160415.0	-9109.0	125474.0
9	18	6	43	435	228.0	-160655.0	-9084.0	77432.0
9	18	6	43	436	229.0	-160701.0	-9016.0	29393.0
9	18	6	43	436	230.0	-160757.0	-8941.0	19207.0
9	18	6	43	437	231.0	-160782.0	-8879.0	53121.0
9	18	6	43	437	232.0	-160754.0	-8827.0	106888.0
9	18	6	43	438	233.0	-160681.0	-8800.0	148412.0
9	18	6	43	438	234.0	-160632.0	-8779.0	164223.0
9	18	6	43	439	235.0	-160756.0	-8759.0	164275.0
9	18	6	43	440	236.0	-160751.0	-8734.0	151516.0
9	18	6	43	440	248.0	-160447.0	-8276.0	69349.0
9	18	6	43	441	14.0	-160625.0	-7382.0	26203.0
9	18	6	43	441	15.0	-160397.0	-7287.0	66763.0
9	18	6	43	442	16.0	-160321.0	-7257.0	118355.0
9	18	6	43	442	17.0	-160534.0	-7245.0	154984.0
9	18	6	43	443	18.0	-160587.0	-7236.0	166564.0
9	18	6	43	443	19.0	-160564.0	-7203.0	164394.0
9	18	6	43	444	20.0	-160668.0	-7199.0	149031.0
9	18	6	43	467	21.0	-160679.0	-7182.0	120247.0
9	18	6	43	468	22.0	-160603.0	-7174.0	67731.0
9	18	6	43	469	23.0	-160528.0	-7113.0	32267.0
9	18	6	43	469	24.0	-160629.0	-7046.0	36436.0
9	18	6	43	470	25.0	-160538.0	-6988.0	79204.0
9	18	6	43	470	26.0	-160498.0	-6951.0	131395.0
9	18	6	43	471	27.0	-160604.0	-6946.0	166876.0
9	18	6	43	471	28.0	-160772.0	-6949.0	175541.0
9	18	6	43	472	29.0	-160593.0	-6940.0	171407.0
9	18	6	43	473	30.0	-160390.0	-6939.0	154271.0
9	18	6	43	473	31.0	-160545.0	-6943.0	122975.0
9	18	6	43	474	32.0	-160636.0	-6923.0	70386.0
9	18	6	43	474	33.0	-160703.0	-6861.0	33966.0
9	18	6	43	475	34.0	-160662.0	-6787.0	36706.0
9	18	6	43	476	35.0	-160792.0	-6753.0	78307.0
9	18	6	43	476	37.0	-160738.0	-6729.0	161938.0
9	18	6	43	477	38.0	-160729.0	-6731.0	170289.0
9	18	6	43	477	39.0	-160711.0	-6740.0	165711.0
9	18	6	43	485	40.0	-160714.0	-6722.0	147577.0
9	18	6	43	486	41.0	-160747.0	-6724.0	116376.0
9	18	6	43	486	42.0	-160775.0	-6705.0	63713.0
9	18	6	43	511	43.0	-160843.0	-6649.0	30769.0
9	18	6	43	512	44.0	-160812.0	-6611.0	37363.0
9	18	6	43	513	45.0	-160750.0	-6583.0	83588.0
9	18	6	43	513	46.0	-160676.0	-6566.0	134704.0
9	18	6	43	514	47.0	-160514.0	-6577.0	166269.0
9	18	6	43	514	48.0	-160531.0	-6587.0	172168.0
9	18	6	43	515	49.0	-160572.0	-6579.0	166181.0
9	18	6	43	516	50.0	-160647.0	-6567.0	146767.0
9	18	6	43	516	51.0	-160611.0	-6584.0	113428.0
9	18	6	43	517	52.0	-160617.0	-6594.0	61981.0
9	18	6	43	517	53.0	-160591.0	-6554.0	30544.0
9	18	6	43	518	54.0	-160604.0	-6491.0	39174.0
9	18	6	43	518	55.0	-160629.0	-6464.0	84477.0
9	18	6	43	519	56.0	-160446.0	-6478.0	133105.0
9	18	6	43	520	57.0	-160342.0	-6510.0	163621.0
9	18	6	43	520	59.0	-160491.0	-6529.0	167075.0
9	18	6	43	521	60.0	-160711.0	-6528.0	148296.0
9	18	6	43	521	61.0	-160633.0	-6534.0	115504.0
9	18	6	43	522	62.0	-160668.0	-6547.0	62824.0
9	18	6	43	522	63.0	-160752.0	-6506.0	33494.0
9	18	6	43	523	64.0	-160682.0	-6461.0	45564.0
9	18	6	43	524	65.0	-160673.0	-6447.0	92712.0
9	18	6	43	557	66.0	-160634.0	-6440.0	141456.0
9	18	6	43	558	67.0	-160617.0	-6464.0	169231.0
9	18	6	43	559	68.0	-160814.0	-6488.0	174896.0
9	18	6	43	560	69.0	-160869.0	-6474.0	169850.0
9	18	6	43	560	70.0	-160802.0	-6477.0	151633.0
9	18	6	43	561	71.0	-160737.0	-6501.0	118381.0
9	18	6	43	561	72.0	-160677.0	-6492.0	66858.0
9	18	6	43	562	73.0	-160562.0	-6439.0	41274.0
9	18	6	43	563	74.0	-160374.0	-6406.0	55810.0
9	18	6	43	563	75.0	-160321.0	-6368.0	105031.0
9	18	6	43	564	76.0	-160364.0	-6386.0	152498.0
9	18	6	43	564	77.0	-160401.0	-6395.0	178137.0
9	18	6	43	565	78.0	-160519.0	-6381.0	183428.0
9	18	6	43	565	79.0	-160604.0	-6376.0	177593.0
9	18	6	43	566	80.0	-160501.0	-6381.0	158437.0
9	18	6	43	567	82.0	-160377.0	-6377.0	68573.0
9	18	6	43	567	83.0	-160383.0	-6325.0	45063.0
9	18	6	43	568	84.0	-160489.0	-6275.0	60151.0
9	18	6	43	568	85.0	-160546.0	-6251.0	108231.0
9	18	6	43	569	86.0	-160564.0	-6233.0	154791.0
9	18	6	43	569	87.0	-160807.0	-6241.0	178284.0
9	18	6	43	601	88.0	-161016.0	-6241.0	180591.0
9	18	6	43	602	89.0	-161122.0	-6255.0	171529.0
9	18	6	43	603	90.0	-161056.0	-6244.0	149939.0
9	18	6	43	603	91.0	-160829.0	-6254.0	112030.0
9	18	6	43	604	92.0	-160866.0	-6235.0	60989.0
9	18	6	43	604	93.0	-160861.0	-6177.0	40049.0
9	18	6	43	605	94.0	-160844.0	-6140.0	60368.0
9	18	6	43	606	95.0	-160744.0	-6110.0	110658.0
9	18	6	43	606	96.0	-160561.0	-6104.0	155424.0
9	18	6	43	607	97.0	-160793.0	-6121.0	178794.0
9	18	6	43	607	98.0	-160787.0	-6122.0	181300.0
9	18	6	43	608	99.0	-160611.0	-6124.0	171255.0
9	18	6	43	609	100.0	-160517.0	-6138.0	149894.0
9	18	6	43	609	101.0	-160571.0	-6150.0	109952.0
9	18	6	43	610	102.0	-160691.0	-6114.0	56875.0
9	18	6	43	610	104.0	-160899.0	-6014.0	59037.0
9	18	6	43	611	105.0	-160643.0	-5994.0	109969.0
9	18	6	43	611	106.0	-160550.0	-6001.0	154122.0
9	18	6	43	612	107.0	-160510.0	-6014.0	174624.0
9	18	6	43	613	108.0	-160650.0	-6012.0	175301.0
9	18	6	43	648	109.0	-160644.0	-6019.0	165244.0
9	18	6	43	648	110.0	-160465.0	-6014.0	142936.0
9	18	6	43	649	111.0	-160575.0	-6049.0	101644.0
9	18	6	43	650	112.0	-160651.0	-6034.0	50878.0
9	18	6	43	650	113.0	-160649.0	-5987.0	34602.0
9	18	6	43	651	114.0	-160784.0	-5933.0	60008.0
9	18	6	43	651	115.0	-160839.0	-5906.0	110968.0
9	18	6	43	652	116.0	-160881.0	-5931.0	153661.0
9	18	6	43	691	117.0	-160722.0	-5950.0	172253.0
9	18	6	43	715	118.0	-160670.0	-5952.0	173227.0
9	18	6	43	716	119.0	-160734.0	-5973.0	162048.0
9	18	6	43	716	120.0	-160790.0	-5977.0	139293.0
9	18	6	43	717	121.0	-160791.0	-5979.0	96760.0
9	18	6	43	718	122.0	-160708.0	-5967.0	46879.0
9	18	6	43	718	123.0	-160672.0	-5913.0	30247.0
9	18	6	43	719	127.0	-160602.0	-5892.0	170603.0
9	18	6	43	719	128.0	-160544.0	-5900.0	171746.0
9	18	6	43	720	129.0	-160535.0	-5893.0	160423.0
9	18	6	43	720	130.0	-160671.0	-5913.0	136706.0
9	18	6	43	721	131.0	-160647.0	-5951.0	89547.0
9	18	6	43	721	132.0	-160569.0	-5932.0	39898.0
9	18	6	43	722	133.0	-160546.0	-5876.0	28112.0
9	18	6	43	722	134.0	-160614.0	-5841.0	57729.0
9	18	6	43	723	135.0	-160658.0	-5855.0	109747.0
9	18	6	43	723	149.0	-160589.0	-5917.0	163687.0
9	18	6	43	724	150.0	-160530.0	-5943.0	137779.0
9	18	6	43	725	151.0	-160270.0	-5979.0	90794.0
9	18	6	43	725	152.0	-160217.0	-5945.0	44428.0
9	18	6	43	726	153.0	-160507.0	-5901.0	33542.0
9	18	6	43	726	154.0	-160675.0	-5859.0	65296.0
9	18	6	43	727	155.0	-160654.0	-5868.0	117666.0
9	18	6	43	739	156.0	-160576.0	-5907.0	159314.0
9	18	6	43	739	157.0	-160665.0	-5931.0	175094.0
9	18	6	43	740	158.0	-160577.0	-5954.0	174795.0
9	18	6	43	740	159.0	-160605.0	-5972.0	161409.0
9	18	6	43	741	160.0	-160728.0	-5980.0	136504.0
9	18	6	43	742	161.0	-160639.0	-6000.0	88856.0
9	18	6	43	742	162.0	-160539.0	-5975.0	45971.0
9	18	6	43	743	163.0	-160551.0	-5930.0	40956.0
9	18	6	43	743	164.0	-160527.0	-5904.0	75540.0
9	18	6	43	744	165.0	-160459.0	-5908.0	126951.0
9	18	6	43	744	166.0	-160498.0	-5938.0	164153.0
9	18	6	43	745	167.0	-160559.0	-5963.0	176715.0
9	18	6	43	746	168.0	-160599.0	-5982.0	175594.0
9	18	6	43	782	169.0	-160732.0	-6018.0	160143.0
9	18	6	43	783	170.0	-160686.0	-6028.0	132976.0
9	18	6	43	784	171.0	-160686.0	-6042.0	84692.0
9	18	6	43	784	172.0	-160669.0	-6029.0	43035.0
9	18	6	43	785	173.0	-160662.0	-5991.0	39103.0
9	18	6	43	786	174.0	-160760.0	-5971.0	77255.0
9	18	6	43	786	175.0	-160808.0	-5976.0	128770.0
9	18	6	43	787	176.0	-160749.0	-6012.0	165482.0
9	18	6	43	787	177.0	-160532.0	-6028.0	178009.0
9	18	6	43	788	178.0	-160569.0	-6059.0	176806.0
9	18	6	43	788	179.0	-160590.0	-6082.0	162771.0
9	18	6	43	789	180.0	-160716.0	-6104.0	134269.0
9	18	6	43	790	181.0	-160706.0	-6133.0	80398.0
9	18	6	43	790	182.0	-160687.0	-6092.0	38604.0
9	18	6	43	791	183.0	-160897.0	-6059.0	36970.0
9	18	6	43	791	184.0	-160957.0	-6037.0	76422.0
9	18	6	43	792	194.0	-160674.0	-6124.0	74760.0
9	18	6	43	793	195.0	-160594.0	-6122.0	127451.0
9	18	6	43	793	196.0	-160542.0	-6158.0	162496.0
9	18	6	43	794	197.0	-160799.0	-6203.0	172235.0
9	18	6	43	794	198.0	-160961.0	-6223.0	169394.0
9	18	6	43	795	199.0	-160736.0	-6241.0	152952.0
9	18	6	43	796	200.0	-160577.0	-6259.0	121623.0
9	18	6	43	796	201.0	-160672.0	-6275.0	68496.0
9	18	6	43	827	202.0	-160616.0	-6239.0	32269.0
9	18	6	43	827	203.0	-160529.0	-6199.0	35943.0
9	18	6	43	828	204.0	-160539.0	-6187.0	81062.0
9	18	6	43	829	205.0	-160592.0	-6204.0	132170.0
9	18	6	43	830	206.0	-160501.0	-6214.0	165949.0
9	18	6	43	830	207.0	-160474.0	-6216.0	175141.0
9	18	6	43	831	208.0	-160502.0	-6237.0	171912.0
9	18	6	43	831	209.0	-160579.0	-6246.0	153782.0
9	18	6	43	832	210.0	-160549.0	-6272.0	120923.0
9	18	6	43	832	211.0	-160551.0	-6288.0	66163.0
9	18	6	43	872	212.0	-160544.0	-6242.0	33669.0
9	18	6	43	873	213.0	-160568.0	-6208.0	43874.0
9	18	6	43	873	214.0	-160592.0	-6174.0	92849.0
9	18	6	43	874	215.0	-160492.0	-6169.0	145213.0
9	18	6	43	875	216.0	-160482.0	-6190.0	176946.0
9	18	6	43	875	217.0	-160379.0	-6189.0	183219.0
9	18	6	43	876	218.0	-160519.0	-6187.0	176741.0
9	18	6	43	876	219.0	-160542.0	-6191.0	158040.0
9	18	6	43	877	220.0	-160547.0	-6222.0	121641.0
9	18	6	43	878	221.0	-160513.0	-6223.0	65206.0
9	18	6	43	878	222.0	-160574.0	-6167.0	34554.0
9	18	6	43	879	223.0	-160690.0	-6126.0	44681.0
9	18	6	43	879	224.0	-160826.0	-6091.0	91881.0
9	18	6	43	880	225.0	-160789.0	-6091.0	141657.0
9	18	6	43	881	226.0	-160707.0	-6111.0	171315.0
9	18	6	43	881	227.0	-160602.0	-6121.0	178424.0
9	18	6	43	882	239.0	-160697.0	-6031.0	148638.0
9	18	6	43	882	240.0	-160654.0	-6034.0	113399.0
9	18	6	43	883	241.0	-160609.0	-6017.0	59948.0
9	18	6	43	884	242.0	-160577.0	-5962.0	32200.0
9	18	6	43	884	243.0	-160468.0	-5919.0	46431.0
9	18	6	43	885	244.0	-160434.0	-5882.0	96292.0
9	18	6	43	886	245.0	-160586.0	-5889.0	145284.0
9	18	6	43	917	246.0	-160749.0	-5908.0	172650.0
9	18	6	43	918	247.0	-160646.0	-5931.0	176533.0
9	18	6	43	918	248.0	-160707.0	-5938.0	168894.0
9	18	6	43	919	249.0	-160558.0	-5929.0	147222.0
9	18	6	43	919	250.0	-160379.0	-5940.0	108694.0
9	18	6	43	920	251.0	-160484.0	-5928.0	56105.0
9	18	6	43	921	252.0	-160664.0	-5872.0	32594.0
9	18	6	43	961	253.0	-160605.0	-5834.0	50953.0
9	18	6	43	962	254.0	-160631.0	-5802.0	102691.0
9	18	6	43	963	255.0	-160701.0	-5807.0	150068.0
9	18	6	43	963	0.0	-160678.0	-5842.0	174802.0
9	18	6	43	964	1.0	-160682.0	-5837.0	178926.0
9	18	6	43	964	2.0	-160560.0	-5833.0	172221.0
9	18	6	43	965	3.0	-160533.0	-5847.0	150061.0
9	18	6	43	966	4.0	-160622.0	-5884.0	109039.0
9	18	6	43	967	5.0	-160626.0	-5866.0	55049.0
9	18	6	43	968	6.0	-160699.0	-5827.0	32818.0
9	18	6	43	969	7.0	-160667.0	-5769.0	53101.0
9	18	6	43	969	8.0	-160744.0	-5767.0	104426.0
9	18	6	43	970	9.0	-160738.0	-5767.0	151114.0
9	18	6	43	970	10.0	-160561.0	-5784.0	174701.0
9	18	6	43	971	11.0	-160521.0	-5804.0	177243.0
9	18	6	43	971	12.0	-160574.0	-5804.0	167760.0
9	18	6	43	972	28.0	-160652.0	-5601.0	119878.0
9	18	6	43	974	29.0	-160666.0	-5580.0	163600.0
9	18	6	43	974	30.0	-160592.0	-5594.0	183269.0
9	18	6	43	975	31.0	-160565.0	-5596.0	185588.0
9	18	6	43	975	32.0	-160542.0	-5602.0	175714.0
9	18	6	43	976	33.0	-160591.0	-5607.0	152535.0
9	18	6	44	7	34.0	-160639.0	-5604.0	109303.0
9	18	6	44	8	35.0	-160559.0	-5588.0	58672.0
9	18	6	44	8	36.0	-160487.0	-5526.0	43059.0
9	18	6	44	9	37.0	-160534.0	-5475.0	71348.0
9	18	6	44	10	38.0	-160551.0	-5454.0	124021.0
9	18	6	44	10	39.0	-160555.0	-5452.0	166767.0
9	18	6	44	11	40.0	-160680.0	-5449.0	186159.0
9	18	6	44	11	41.0	-160742.0	-5465.0	188908.0
9	18	6	44	12	42.0	-160638.0	-5470.0	178506.0
9	18	6	44	13	43.0	-160612.0	-5471.0	152972.0
9	18	6	44	13	44.0	-160620.0	-5482.0	105721.0
9	18	6	44	14	45.0	-160619.0	-5456.0	54438.0
9	18	6	44	14	46.0	-160505.0	-5404.0	40846.0
9	18	6	44	15	47.0	-160433.0	-5351.0	70376.0
9	18	6	44	15	48.0	-160448.0	-5332.0	123349.0
9	18	6	44	16	50.0	-160458.0	-5342.0	181518.0
9	18	6	44	17	51.0	-160527.0	-5338.0	180874.0
9	18	6	44	17	52.0	-160737.0	-5351.0	167597.0
9	18	6	44	18	53.0	-160752.0	-5354.0	141625.0
9	18	6	44	18	54.0	-160828.0	-5373.0	94349.0
9	18	6	44	19	55.0	-160926.0	-5338.0	47830.0
9	18	6	44	19	56.0	-160866.0	-5264.0	38961.0
9	18	6	44	52	57.0	-160719.0	-5215.0	69673.0
9	18	6	44	53	58.0	-160691.0	-5195.0	118995.0
9	18	6	44	54	59.0	-160740.0	-5212.0	158543.0
9	18	6	44	54	60.0	-160765.0	-5221.0	174433.0
9	18	6	44	55	61.0	-160802.0	-5229.0	174789.0
9	18	6	44	55	62.0	-160796.0	-5239.0	162584.0
9	18	6	44	56	63.0	-160633.0	-5244.0	136791.0
9	18	6	44	56	64.0	-160566.0	-5244.0	89281.0
9	18	6	44	57	65.0	-160703.0	-5206.0	42591.0
9	18	6	44	57	66.0	-160712.0	-5154.0	35393.0
9	18	6	44	58	67.0	-160703.0	-5094.0	71185.0
9	18	6	44	59	68.0	-160591.0	-5077.0	123155.0
9	18	6	44	59	69.0	-160637.0	-5079.0	162376.0
9	18	6	44	60	70.0	-160618.0	-5103.0	176519.0
9	18	6	44	60	71.0	-160680.0	-5098.0	175619.0
9	18	6	44	61	73.0	-160703.0	-5120.0	137838.0
9	18	6	44	61	74.0	-160773.0	-5135.0	87816.0
9	18	6	44	62	75.0	-160603.0	-5098.0	42979.0
9	18	6	44	63	76.0	-160477.0	-5059.0	36554.0
9	18	6	44	63	77.0	-160596.0	-5007.0	72681.0
9	18	6	44	64	78.0	-160584.0	-4972.0	125241.0
9	18	6	44	97	79.0	-160532.0	-5004.0	165281.0
9	18	6	44	97	80.0	-160461.0	-5019.0	178838.0
9	18	6	44	98	81.0	-160454.0	-5020.0	176945.0
9	18	6	44	98	82.0	-160517.0	-5010.0	161434.0
9	18	6	44	99	83.0	-160484.0	-5035.0	133481.0
9	18	6	44	100	84.0	-160502.0	-5067.0	84178.0
9	18	6	44	100	85.0	-160555.0	-5017.0	42068.0
9	18	6	44	101	86.0	-160364.0	-4987.0	39038.0
9	18	6	44	102	87.0	-160341.0	-4936.0	78498.0
9	18	6	44	102	88.0	-160587.0	-4917.0	131958.0
9	18	6	44	103	89.0	-160541.0	-4922.0	168754.0
9	18	6	44	103	90.0	-160506.0	-4949.0	179524.0
9	18	6	44	104	91.0	-160574.0	-4967.0	177005.0
9	18	6	44	104	92.0	-160648.0	-4967.0	162023.0
9	18	6	44	105	93.0	-160702.0	-4968.0	133204.0
9	18	6	44	105	95.0	-160498.0	-4946.0	40004.0
9	18	6	44	106	96.0	-160518.0	-4907.0	40282.0
9	18	6	44	107	97.0	-160642.0	-4857.0	80691.0
9	18	6	44	107	98.0	-160607.0	-4841.0	130196.0
9	18	6	44	116	99.0	-160551.0	-4860.0	163814.0
9	18	6	44	116	100.0	-160511.0	-4866.0	173493.0
9	18	6	44	117	101.0	-160571.0	-4885.0	169974.0
9	18	6	44	142	102.0	-160573.0	-4874.0	154318.0
9	18	6	44	143	103.0	-160522.0	-4887.0	125919.0
9	18	6	44	164	104.0	-160577.0	-4902.0	74016.0
9	18	6	44	165	105.0	-160590.0	-4856.0	36841.0
9	18	6	44	165	106.0	-160512.0	-4803.0	37891.0
9	18	6	44	166	107.0	-160426.0	-4751.0	78733.0
9	18	6	44	166	108.0	-160496.0	-4749.0	128049.0
9	18	6	44	167	109.0	-160739.0	-4769.0	161134.0
9	18	6	44	167	110.0	-160620.0	-4792.0	170346.0
9	18	6	44	168	111.0	-160722.0	-4788.0	167864.0
9	18	6	44	169	112.0	-160769.0	-4789.0	152080.0
9	18	6	44	169	113.0	-160783.0	-4801.0	122283.0
9	18	6	44	170	114.0	-160769.0	-4804.0	69383.0
9	18	6	44	170	115.0	-160676.0	-4762.0	34554.0
9	18	6	44	171	116.0	-160664.0	-4708.0	40638.0
9	18	6	44	171	118.0	-160802.0	-4674.0	135837.0
9	18	6	44	172	119.0	-160704.0	-4701.0	168681.0
9	18	6	44	172	120.0	-160753.0	-4697.0	174518.0
9	18	6	44	173	121.0	-160711.0	-4714.0	168359.0
9	18	6	44	173	122.0	-160722.0	-4737.0	150003.0
9	18	6	44	174	123.0	-160611.0	-4750.0	115886.0
9	18	6	44	187	124.0	-160652.0	-4756.0	61562.0
9	18	6	44	233	125.0	-160525.0	-4700.0	28743.0
9	18	6	44	234	126.0	-160655.0	-4669.0	36603.0
9	18	6	44	234	127.0	-160639.0	-4635.0	81562.0
9	18	6	44	235	128.0	-160609.0	-4631.0	131708.0
9	18	6	44	236	129.0	-160606.0	-4640.0	162518.0
9	18	6	44	236	130.0	-160726.0	-4655.0	168978.0
9	18	6	44	237	131.0	-160726.0	-4671.0	165006.0
9	18	6	44	277	132.0	-160782.0	-4667.0	148831.0
9	18	6	44	277	133.0	-160764.0	-4702.0	114185.0
9	18	6	44	278	134.0	-160731.0	-4702.0	59964.0
9	18	6	44	278	135.0	-160767.0	-4671.0	28763.0
9	18	6	44	279	136.0	-160649.0	-4620.0	38028.0
9	18	6	44	280	137.0	-160601.0	-4595.0	85134.0
9	18	6	44	280	138.0	-160434.0	-4611.0	135945.0
9	18	6	44	281	140.0	-160622.0	-4639.0	168239.0
9	18	6	44	281	163.0	-160515.0	-4756.0	95542.0
9	18	6	44	282	164.0	-160619.0	-4760.0	40398.0
9	18	6	44	294	165.0	-160544.0	-4742.0	15725.0
9	18	6	44	295	166.0	-160546.0	-4711.0	33556.0
9	18	6	44	295	167.0	-160534.0	-4694.0	84089.0
9	18	6	44	296	168.0	-160635.0	-4711.0	130841.0
9	18	6	44	297	169.0	-160633.0	-4750.0	154191.0
9	18	6	44	297	170.0	-160642.0	-4751.0	157748.0
9	18	6	44	298	185.0	-160695.0	-4805.0	9321.0
9	18	6	44	298	186.0	-160682.0	-4749.0	33326.0
9	18	6	44	299	187.0	-160779.0	-4744.0	85306.0
9	18	6	44	299	188.0	-160669.0	-4749.0	131559.0
9	18	6	44	300	189.0	-160554.0	-4784.0	154101.0
9	18	6	44	300	190.0	-160599.0	-4807.0	156572.0
9	18	6	44	301	191.0	-160840.0	-4821.0	146816.0
9	18	6	44	321	192.0	-160769.0	-4840.0	124914.0
9	18	6	44	322	193.0	-160706.0	-4878.0	84807.0
9	18	6	44	323	194.0	-160604.0	-4838.0	33292.0
9	18	6	44	323	195.0	-160412.0	-4801.0	14711.0
9	18	6	44	324	196.0	-160414.0	-4776.0	41734.0
9	18	6	44	325	197.0	-160328.0	-4744.0	96828.0
9	18	6	44	325	198.0	-160354.0	-4752.0	143234.0
9	18	6	44	326	199.0	-160443.0	-4781.0	163209.0
9	18	6	44	327	200.0	-160637.0	-4787.0	163972.0
9	18	6	44	327	201.0	-160710.0	-4810.0	152917.0
9	18	6	44	328	202.0	-160633.0	-4818.0	128393.0
9	18	6	44	329	203.0	-160704.0	-4842.0	84625.0
9	18	6	44	329	204.0	-160772.0	-4824.0	35481.0
9	18	6	44	330	205.0	-160617.0	-4794.0	21734.0
9	18	6	44	330	206.0	-160537.0	-4738.0	51010.0
9	18	6	44	331	207.0	-160586.0	-4725.0	105156.0
9	18	6	44	332	208.0	-160502.0	-4747.0	146669.0
9	18	6	44	332	209.0	-160472.0	-4782.0	163719.0
9	18	6	44	333	210.0	-160410.0	-4796.0	165523.0
9	18	6	44	333	211.0	-160528.0	-4795.0	153846.0
9	18	6	44	334	212.0	-160491.0	-4792.0	129166.0
9	18	6	44	335	213.0	-160479.0	-4834.0	82204.0
9	18	6	44	367	214.0	-160497.0	-4816.0	30444.0
9	18	6	44	367	215.0	-160465.0	-4769.0	16281.0
9	18	6	44	368	216.0	-160406.0	-4741.0	44030.0
9	18	6	44	369	217.0	-160276.0	-4741.0	96976.0
9	18	6	44	369	218.0	-160303.0	-4747.0	141409.0
9	18	6	44	370	219.0	-160291.0	-4769.0	159433.0
9	18	6	44	371	220.0	-160398.0	-4774.0	161343.0
9	18	6	44	371	221.0	-160452.0	-4789.0	151778.0
9	18	6	44	372	222.0	-160335.0	-4804.0	126386.0
9	18	6	44	373	223.0	-160159.0	-4842.0	76462.0
9	18	6	44	373	224.0	-160216.0	-4806.0	27481.0
9	18	6	44	374	225.0	-160394.0	-4755.0	16347.0
9	18	6	44	374	226.0	-160352.0	-4728.0	48046.0
9	18	6	44	375	227.0	-160374.0	-4717.0	101017.0
9	18	6	44	376	228.0	-160479.0	-4740.0	143621.0
9	18	6	44	376	230.0	-160442.0	-4754.0	158221.0
9	18	6	44	377	231.0	-160373.0	-4773.0	144502.0
9	18	6	44	377	232.0	-160483.0	-4777.0	117459.0
9	18	6	44	378	233.0	-160520.0	-4794.0	66523.0
9	18	6	44	379	234.0	-160517.0	-4752.0	19423.0
9	18	6	44	379	235.0	-160461.0	-4707.0	11989.0
9	18	6	44	412	236.0	-160617.0	-4661.0	47589.0
9	18	6	44	413	237.0	-160442.0	-4641.0	100677.0
9	18	6	44	413	238.0	-160361.0	-4657.0	140000.0
9	18	6	44	414	239.0	-160449.0	-4694.0	154463.0
9	18	6	44	415	240.0	-160486.0	-4704.0	152885.0
9	18	6	44	415	241.0	-160379.0	-4692.0	136712.0
9	18	6	44	416	242.0	-160262.0	-4695.0	107302.0
9	18	6	44	417	243.0	-160482.0	-4714.0	56808.0
9	18	6	44	417	244.0	-160417.0	-4669.0	14283.0
9	18	6	44	418	245.0	-160475.0	-4627.0	9783.0
9	18	6	44	418	246.0	-160496.0	-4586.0	48498.0
9	18	6	44	419	247.0	-160405.0	-4567.0	104079.0
9	18	6	44	420	248.0	-160437.0	-4573.0	143399.0
9	18	6	44	420	249.0	-160551.0	-4598.0	155172.0
9	18	6	44	421	250.0	-160595.0	-4602.0	153443.0
9	18	6	44	421	252.0	-160600.0	-4611.0	106830.0
9	18	6	44	422	253.0	-160602.0	-4602.0	54064.0
9	18	6	44	423	254.0	-160688.0	-4549.0	10491.0
9	18	6	44	423	255.0	-160799.0	-4513.0	8419.0
9	18	6	44	424	0.0	-160663.0	-4473.0	49274.0
9	18	6	44	424	1.0	-160759.0	-4476.0	103833.0
9	18	6	44	425	2.0	-160735.0	-4487.0	142207.0
9	18	6	44	456	3.0	-160619.0	-4508.0	155376.0
9	18	6	44	457	4.0	-160678.0	-4527.0	155144.0
9	18	6	44	458	5.0	-160738.0	-4526.0	138542.0
9	18	6	44	459	6.0	-160709.0	-4534.0	108563.0
9	18	6	44	459	7.0	-160723.0	-4548.0	55345.0
9	18	6	44	460	8.0	-160732.0	-4496.0	13918.0
9	18	6	44	460	9.0	-160759.0	-4432.0	13093.0
9	18	6	44	461	10.0	-160763.0	-4399.0	53532.0
9	18	6	44	462	11.0	-160653.0	-4382.0	106249.0
9	18	6	44	462	12.0	-160589.0	-4397.0	144023.0
9	18	6	44	463	13.0	-160703.0	-4421.0	154867.0
9	18	6	44	464	14.0	-160797.0	-4427.0	151510.0
9	18	6	44	464	15.0	-160662.0	-4441.0	134203.0
9	18	6	44	465	16.0	-160633.0	-4469.0	101956.0
9	18	6	44	465	17.0	-160731.0	-4462.0	47757.0
9	18	6	44	466	19.0	-160706.0	-4351.0	16349.0
9	18	6	44	467	20.0	-160559.0	-4314.0	60906.0
9	18	6	44	467	21.0	-160792.0	-4312.0	113919.0
9	18	6	44	468	22.0	-160846.0	-4334.0	149204.0
9	18	6	44	468	23.0	-160728.0	-4344.0	158454.0
9	18	6	44	469	24.0	-160817.0	-4352.0	155668.0
9	18	6	44	502	25.0	-160837.0	-4358.0	137584.0
9	18	6	44	526	26.0	-160897.0	-4374.0	105203.0
9	18	6	44	527	27.0	-160853.0	-4385.0	52491.0
9	18	6	44	527	28.0	-160743.0	-4324.0	17881.0
9	18	6	44	528	29.0	-160794.0	-4282.0	23506.0
9	18	6	44	529	30.0	-160805.0	-4214.0	67969.0
9	18	6	44	529	31.0	-160839.0	-4198.0	118644.0
9	18	6	44	530	32.0	-160904.0	-4222.0	151189.0
9	18	6	44	530	33.0	-160981.0	-4223.0	158734.0
9	18	6	44	531	34.0	-160934.0	-4216.0	154681.0
9	18	6	44	531	35.0	-160753.0	-4213.0	134858.0
9	18	6	44	532	36.0	-160764.0	-4220.0	98051.0
9	18	6	44	532	37.0	-160805.0	-4203.0	42043.0
9	18	6	44	533	38.0	-160879.0	-4154.0	9328.0
9	18	6	44	534	39.0	-160877.0	-4087.0	17624.0
9	18	6	44	534	41.0	-160790.0	-4020.0	114444.0
9	18	6	44	535	42.0	-160834.0	-4031.0	146194.0
9	18	6	44	535	43.0	-160846.0	-4020.0	154254.0
9	18	6	44	536	44.0	-160697.0	-4000.0	150081.0
9	18	6	44	536	45.0	-160684.0	-3980.0	131190.0
9	18	6	44	537	46.0	-160781.0	-3976.0	96025.0
9	18	6	44	537	47.0	-160514.0	-3959.0	41566.0
9	18	6	44	550	48.0	-160540.0	-3889.0	9371.0
9	18	6	44	551	49.0	-160699.0	-3826.0	19114.0
9	18	6	44	552	50.0	-160664.0	-3765.0	67279.0
9	18	6	44	553	51.0	-160689.0	-3733.0	116827.0
9	18	6	44	553	52.0	-160773.0	-3727.0	147406.0
9	18	6	44	554	53.0	-160834.0	-3724.0	153383.0
9	18	6	44	555	54.0	-160801.0	-3705.0	147599.0
9	18	6	44	555	55.0	-160676.0	-3675.0	129713.0
9	18	6	44	556	56.0	-160711.0	-3677.0	95582.0
9	18	6	44	557	57.0	-160616.0	-3638.0	42991.0
9	18	6	44	557	58.0	-160543.0	-3556.0	14066.0
9	18	6	44	558	59.0	-160437.0	-3484.0	27084.0
9	18	6	44	559	60.0	-160490.0	-3439.0	75313.0
9	18	6	44	559	61.0	-160635.0	-3402.0	125229.0
9	18	6	44	560	62.0	-160654.0	-3396.0	152958.0
9	18	6	44	560	64.0	-160582.0	-3331.0	153012.0
9	18	6	44	561	65.0	-160667.0	-3307.0	133984.0
9	18	6	44	562	66.0	-160621.0	-3300.0	94878.0
9	18	6	44	562	67.0	-160710.0	-3262.0	39432.0
9	18	6	44	563	68.0	-160704.0	-3193.0	14656.0
9	18	6	44	563	69.0	-160691.0	-3113.0	31321.0
9	18	6	44	593	70.0	-160654.0	-3062.0	81039.0
9	18	6	44	594	71.0	-160604.0	-3021.0	131098.0
9	18	6	44	594	72.0	-160616.0	-3022.0	157694.0
9	18	6	44	595	73.0	-160521.0	-3006.0	163389.0
9	18	6	44	596	74.0	-160584.0	-2994.0	158608.0
9	18	6	44	597	75.0	-160711.0	-2974.0	141374.0
9	18	6	44	597	76.0	-160586.0	-2973.0	100516.0
9	18	6	44	598	77.0	-160701.0	-2936.0	45306.0
9	18	6	44	599	78.0	-160961.0	-2847.0	23516.0
9	18	6	44	599	79.0	-160879.0	-2778.0	41827.0
9	18	6	44	600	80.0	-160881.0	-2729.0	91829.0
9	18	6	44	601	81.0	-160918.0	-2707.0	138355.0
9	18	6	44	601	82.0	-160895.0	-2712.0	161433.0
9	18	6	44	602	83.0	-160771.0	-2707.0	164296.0
9	18	6	44	602	84.0	-160690.0	-2684.0	157439.0
9	18	6	44	603	86.0	-160573.0	-2662.0	95086.0
9	18	6	44	604	87.0	-160544.0	-2615.0	42773.0
9	18	6	44	604	88.0	-160533.0	-2559.0	21976.0
9	18	6	44	605	89.0	-160536.0	-2506.0	42214.0
9	18	6	44	606	90.0	-160516.0	-2446.0	91845.0
9	18	6	44	606	91.0	-160365.0	-2428.0	137686.0
9	18	6	44	607	92.0	-160546.0	-2434.0	159941.0
9	18	6	44	637	93.0	-160561.0	-2431.0	163359.0
9	18	6	44	638	94.0	-160520.0	-2414.0	156771.0
9	18	6	44	638	95.0	-160593.0	-2414.0	136308.0
9	18	6	44	639	96.0	-160464.0	-2429.0	94627.0
9	18	6	44	640	97.0	-160474.0	-2367.0	41056.0
9	18	6	44	640	98.0	-160622.0	-2293.0	20889.0
9	18	6	44	641	99.0	-160651.0	-2221.0	44213.0
9	18	6	44	642	100.0	-160622.0	-2171.0	96184.0
9	18	6	44	642	101.0	-160475.0	-2150.0	141178.0
9	18	6	44	643	102.0	-160424.0	-2178.0	161524.0
9	18	6	44	644	103.0	-160594.0	-2159.0	163448.0
9	18	6	44	644	104.0	-160589.0	-2156.0	153279.0
9	18	6	44	645	105.0	-160432.0	-2147.0	131611.0
9	18	6	44	646	106.0	-160381.0	-2158.0	89624.0
9	18	6	44	646	107.0	-160426.0	-2106.0	39631.0
9	18	6	44	647	109.0	-160499.0	-1956.0	49958.0
9	18	6	44	647	110.0	-160539.0	-1934.0	101272.0
9	18	6	44	648	111.0	-160530.0	-1934.0	144619.0
9	18	6	44	649	112.0	-160583.0	-1927.0	162256.0
9	18	6	44	649	113.0	-160572.0	-1913.0	162169.0
9	18	6	44	650	114.0	-160543.0	-1914.0	151061.0
9	18	6	44	682	115.0	-160484.0	-1899.0	127778.0
9	18	6	44	683	116.0	-160544.0	-1914.0	83934.0
9	18	6	44	684	117.0	-160516.0	-1877.0	32701.0
9	18	6	44	684	118.0	-160605.0	-1806.0	17933.0
9	18	6	44	685	119.0	-160774.0	-1744.0	46644.0
9	18	6	44	686	120.0	-160790.0	-1702.0	100178.0
9	18	6	44	687	121.0	-160620.0	-1699.0	144356.0
9	18	6	44	687	122.0	-160633.0	-1714.0	163119.0
9	18	6	44	688	123.0	-160643.0	-1691.0	164868.0
9	18	6	44	727	124.0	-160516.0	-1676.0	154015.0
9	18	6	44	728	125.0	-160537.0	-1681.0	128919.0
9	18	6	44	729	126.0	-160561.0	-1702.0	81721.0
9	18	6	44	730	127.0	-160584.0	-1662.0	33021.0
9	18	6	44	730	128.0	-160627.0	-1582.0	21940.0
9	18	6	44	731	129.0	-160639.0	-1516.0	52913.0
9	18	6	44	732	131.0	-160489.0	-1506.0	150126.0
9	18	6	44	732	132.0	-160574.0	-1511.0	166651.0
9	18	6	44	733	133.0	-160676.0	-1511.0	166109.0
9	18	6	44	734	134.0	-160539.0	-1512.0	153354.0
9	18	6	44	734	135.0	-160463.0	-1502.0	128101.0
9	18	6	44	735	136.0	-160481.0	-1507.0	80545.0
9	18	6	44	736	137.0	-160657.0	-1465.0	35411.0
9	18	6	44	736	138.0	-160832.0	-1416.0	27014.0
9	18	6	44	737	139.0	-160809.0	-1373.0	58178.0
9	18	6	44	738	140.0	-160732.0	-1347.0	108361.0
9	18	6	44	739	154.0	-160706.0	-1306.0	160628.0
9	18	6	44	740	155.0	-160798.0	-1328.0	133794.0
9	18	6	44	740	156.0	-160795.0	-1356.0	83699.0
9	18	6	44	741	157.0	-160707.0	-1322.0	40530.0
9	18	6	44	742	158.0	-160708.0	-1279.0	35340.0
9	18	6	44	742	159.0	-160671.0	-1250.0	70954.0
9	18	6	44	773	160.0	-160441.0	-1239.0	121456.0
9	18	6	44	774	161.0	-160448.0	-1249.0	157573.0
9	18	6	44	775	162.0	-160616.0	-1294.0	169204.0
9	18	6	44	775	163.0	-160605.0	-1298.0	167491.0
9	18	6	44	776	164.0	-160697.0	-1331.0	150738.0
9	18	6	44	777	165.0	-160657.0	-1364.0	119697.0
9	18	6	44	777	166.0	-160521.0	-1372.0	67084.0
9	18	6	44	863	167.0	-160399.0	-1329.0	24174.0
9	18	6	44	864	168.0	-160451.0	-1294.0	18898.0
9	18	6	44	865	169.0	-160300.0	-1268.0	57288.0
9	18	6	44	865	170.0	-160291.0	-1276.0	109636.0
9	18	6	44	866	171.0	-160387.0	-1312.0	146035.0
9	18	6	44	867	172.0	-160389.0	-1346.0	157860.0
9	18	6	44	867	173.0	-160371.0	-1356.0	156285.0
9	18	6	44	868	174.0	-160393.0	-1378.0	141614.0
9	18	6	44	869	176.0	-160246.0	-1436.0	59905.0
9	18	6	44	869	177.0	-160256.0	-1416.0	20963.0
9	18	6	44	870	178.0	-160431.0	-1372.0	22453.0
9	18	6	44	871	179.0	-160535.0	-1372.0	63292.0
9	18	6	44	871	180.0	-160573.0	-1392.0	114527.0
9	18	6	44	872	181.0	-160736.0	-1425.0	151034.0
9	18	6	44	873	182.0	-160779.0	-1462.0	161379.0
9	18	6	44	873	183.0	-160704.0	-1491.0	158069.0
9	18	6	44	874	221.0	-160744.0	-2156.0	166469.0
9	18	6	44	874	222.0	-160744.0	-2196.0	172652.0
9	18	6	44	875	223.0	-160686.0	-2221.0	168723.0
9	18	6	44	876	224.0	-160720.0	-2269.0	150333.0
9	18	6	44	876	225.0	-160729.0	-2319.0	112463.0
9	18	6	44	877	226.0	-160494.0	-2338.0	55219.0
9	18	6	44	877	227.0	-160560.0	-2324.0	23299.0
9	18	6	44	908	228.0	-160672.0	-2296.0	35314.0
9	18	6	44	909	229.0	-160444.0	-2277.0	84543.0
9	18	6	44	910	230.0	-160324.0	-2323.0	134219.0
9	18	6	44	911	231.0	-160346.0	-2364.0	163839.0
9	18	6	44	912	232.0	-160532.0	-2398.0	169501.0
9	18	6	44	913	233.0	-160528.0	-2416.0	160705.0
9	18	6	44	913	234.0	-160559.0	-2436.0	136833.0
9	18	6	44	914	235.0	-160598.0	-2503.0	95806.0
9	18	6	44	915	236.0	-160602.0	-2532.0	38437.0
9	18	6	44	915	237.0	-160527.0	-2496.0	10724.0
9	18	6	44	916	238.0	-160454.0	-2438.0	27152.0
9	18	6	44	917	239.0	-160484.0	-2440.0	80144.0
9	18	6	44	917	240.0	-160591.0	-2459.0	134188.0
9	18	6	44	918	241.0	-160658.0	-2501.0	164123.0
9	18	6	44	919	242.0	-160538.0	-2542.0	168350.0
9	18	6	44	919	243.0	-160517.0	-2569.0	160550.0
9	18	6	44	920	244.0	-160561.0	-2582.0	138057.0
9	18	6	44	921	245.0	-160304.0	-2626.0	95979.0
9	18	6	44	921	246.0	-160269.0	-2631.0	38718.0
9	18	6	44	922	247.0	-160511.0	-2604.0	14170.0
9	18	6	44	923	248.0	-160524.0	-2569.0	34586.0
9	18	6	44	923	249.0	-160450.0	-2562.0	88203.0
9	18	6	44	998	250.0	-160542.0	-2585.0	138920.0
9	18	6	44	999	251.0	-160291.0	-2645.0	166393.0
9	18	6	45	0	252.0	-160352.0	-2675.0	171963.0
9	18	6	45	1	253.0	-160676.0	-2685.0	164153.0
9	18	6	45	2	254.0	-160499.0	-2710.0	141219.0
9	18	6	45	2	255.0	-160523.0	-2749.0	98096.0
9	18	6	45	3	0.0	-160754.0	-2729.0	41277.0
9	18	6	45	4	1.0	-160679.0	-2688.0	17977.0
9	18	6	45	4	2.0	-160570.0	-2649.0	41626.0
9	18	6	45	5	3.0	-160766.0	-2659.0	97292.0
9	18	6	45	6	4.0	-160729.0	-2672.0	145863.0
9	18	6	45	6	5.0	-160637.0	-2724.0	171025.0
9	18	6	45	7	6.0	-160726.0	-2752.0	175960.0
9	18	6	45	8	7.0	-160643.0	-2801.0	166929.0
9	18	6	45	8	8.0	-160680.0	-2813.0	143258.0
9	18	6	45	9	10.0	-160560.0	-2844.0	40233.0
9	18	6	45	10	33.0	-160858.0	-2894.0	118541.0
9	18	6	45	10	34.0	-160919.0	-2934.0	164364.0
9	18	6	45	11	35.0	-160918.0	-2989.0	183677.0
9	18	6	45	11	36.0	-160712.0	-3016.0	184542.0
9	18	6	45	12	37.0	-160626.0	-3036.0	170693.0
9	18	6	45	13	38.0	-160866.0	-3067.0	143375.0
9	18	6	45	43	39.0	-160745.0	-3104.0	93304.0
9	18	6	45	44	40.0	-160569.0	-3077.0	42748.0
9	18	6	45	45	41.0	-160654.0	-3042.0	29796.0
9	18	6	45	45	42.0	-160782.0	-3006.0	62617.0
9	18	6	45	46	43.0	-160626.0	-3000.0	117675.0
9	18	6	45	47	44.0	-160577.0	-3034.0	160344.0
9	18	6	45	47	45.0	-160721.0	-3065.0	176442.0
9	18	6	45	48	46.0	-160610.0	-3092.0	175821.0
9	18	6	45	49	47.0	-160554.0	-3102.0	160402.0
9	18	6	45	49	48.0	-160736.0	-3127.0	132783.0
9	18	6	45	50	49.0	-160581.0	-3157.0	80598.0
9	18	6	45	51	50.0	-160494.0	-3152.0	28978.0
9	18	6	45	51	51.0	-160624.0	-3117.0	18684.0
9	18	6	45	52	52.0	-160594.0	-3059.0	54993.0
9	18	6	45	53	53.0	-160474.0	-3059.0	112015.0
9	18	6	45	53	55.0	-160479.0	-3112.0	172534.0
9	18	6	45	54	56.0	-160294.0	-3142.0	170668.0
9	18	6	45	55	57.0	-160409.0	-3169.0	155208.0
9	18	6	45	55	58.0	-160547.0	-3202.0	126929.0
9	18	6	45	56	59.0	-160407.0	-3220.0	75425.0
9	18	6	45	56	60.0	-160350.0	-3193.0	28623.0
9	18	6	45	88	61.0	-160651.0	-3159.0	22158.0
9	18	6	45	89	62.0	-160474.0	-3116.0	59065.0
9	18	6	45	89	63.0	-160263.0	-3116.0	112839.0
9	18	6	45	90	64.0	-160501.0	-3153.0	153893.0
9	18	6	45	91	65.0	-160475.0	-3189.0	169303.0
9	18	6	45	91	66.0	-160405.0	-3209.0	169054.0
9	18	6	45	92	67.0	-160520.0	-3241.0	153209.0
9	18	6	45	93	68.0	-160299.0	-3273.0	123396.0
9	18	6	45	93	69.0	-160126.0	-3290.0	68043.0
9	18	6	45	131	70.0	-160286.0	-3256.0	22347.0
9	18	6	45	132	71.0	-160624.0	-3217.0	18374.0
9	18	6	45	133	72.0	-160716.0	-3189.0	59256.0
9	18	6	45	133	73.0	-160538.0	-3171.0	115474.0
9	18	6	45	134	74.0	-160820.0	-3198.0	155951.0
9	18	6	45	134	75.0	-160709.0	-3259.0	170338.0
9	18	6	45	135	77.0	-160754.0	-3284.0	154033.0
9	18	6	45	135	78.0	-160909.0	-3310.0	123215.0
9	18	6	45	136	79.0	-160807.0	-3343.0	67038.0
9	18	6	45	137	80.0	-160831.0	-3301.0	22835.0
9	18	6	45	137	81.0	-160904.0	-3238.0	19873.0
9	18	6	45	138	82.0	-160618.0	-3221.0	60992.0
9	18	6	45	139	83.0	-160751.0	-3243.0	116849.0
9	18	6	45	139	84.0	-160888.0	-3266.0	155991.0
9	18	6	45	140	85.0	-161027.0	-3302.0	167766.0
9	18	6	45	141	86.0	-161075.0	-3316.0	166080.0
9	18	6	45	142	100.0	-160647.0	-3434.0	31366.0
9	18	6	45	142	101.0	-160575.0	-3400.0	35346.0
9	18	6	45	143	102.0	-160576.0	-3367.0	80593.0
9	18	6	45	143	103.0	-160465.0	-3376.0	134639.0
9	18	6	45	144	104.0	-160374.0	-3429.0	171068.0
9	18	6	45	145	105.0	-160409.0	-3461.0	180177.0
9	18	6	45	145	106.0	-160386.0	-3485.0	175529.0
9	18	6	45	177	107.0	-160294.0	-3504.0	155614.0
9	18	6	45	177	108.0	-160384.0	-3522.0	121514.0
9	18	6	45	178	109.0	-160413.0	-3545.0	63726.0
9	18	6	45	178	110.0	-160312.0	-3524.0	25879.0
9	18	6	45	179	111.0	-160256.0	-3504.0	31247.0
9	18	6	45	179	112.0	-160419.0	-3479.0	79152.0
9	18	6	45	180	113.0	-160415.0	-3499.0	133484.0
9	18	6	45	181	114.0	-160226.0	-3558.0	168519.0
9	18	6	45	181	115.0	-160347.0	-3582.0	177624.0
9	18	6	45	182	116.0	-160400.0	-3625.0	171751.0
9	18	6	45	183	117.0	-160291.0	-3651.0	152552.0
9	18	6	45	183	118.0	-160374.0	-3684.0	117571.0
9	18	6	45	184	119.0	-160371.0	-3686.0	60746.0
9	18	6	45	185	120.0	-160439.0	-3685.0	27997.0
9	18	6	45	185	121.0	-160511.0	-3655.0	38397.0
9	18	6	45	186	122.0	-160414.0	-3643.0	88237.0
9	18	6	45	186	123.0	-160385.0	-3665.0	141408.0
9	18	6	45	187	124.0	-160224.0	-3700.0	173661.0
9	18	6	45	187	125.0	-160140.0	-3732.0	181968.0
9	18	6	45	188	126.0	-160317.0	-3768.0	177394.0
9	18	6	45	189	127.0	-160451.0	-3782.0	157139.0
9	18	6	45	189	128.0	-160416.0	-3810.0	119295.0
9	18	6	45	222	129.0	-160432.0	-3825.0	60963.0
9	18	6	45	222	130.0	-160491.0	-3800.0	29383.0
9	18	6	45	223	131.0	-160487.0	-3764.0	41680.0
9	18	6	45	223	132.0	-160408.0	-3762.0	92333.0
9	18	6	45	224	133.0	-160354.0	-3771.0	144026.0
9	18	6	45	225	134.0	-160484.0	-3814.0	174469.0
9	18	6	45	225	135.0	-160606.0	-3846.0	179933.0
9	18	6	45	226	136.0	-160751.0	-3857.0	172488.0
9	18	6	45	226	137.0	-160837.0	-3881.0	151473.0
9	18	6	45	227	138.0	-160781.0	-3912.0	112250.0
9	18	6	45	228	139.0	-160719.0	-3919.0	53899.0
9	18	6	45	228	140.0	-160731.0	-3881.0	25286.0
9	18	6	45	229	141.0	-160747.0	-3836.0	39970.0
9	18	6	45	230	142.0	-160636.0	-3804.0	92003.0
9	18	6	45	230	143.0	-160721.0	-3818.0	142229.0
9	18	6	45	231	145.0	-160719.0	-3875.0	176534.0
9	18	6	45	231	146.0	-160628.0	-3892.0	170905.0
9	18	6	45	232	147.0	-160627.0	-3911.0	149878.0
9	18	6	45	233	148.0	-160582.0	-3929.0	111026.0
9	18	6	45	233	149.0	-160358.0	-3926.0	55411.0
9	18	6	45	234	150.0	-160460.0	-3887.0	28229.0
9	18	6	45	267	151.0	-160654.0	-3853.0	43705.0
9	18	6	45	267	152.0	-160617.0	-3814.0	96170.0
9	18	6	45	268	153.0	-160651.0	-3830.0	146543.0
9	18	6	45	268	154.0	-160847.0	-3849.0	173446.0
9	18	6	45	269	155.0	-160853.0	-3866.0	179165.0
9	18	6	45	270	156.0	-160768.0	-3877.0	173121.0
9	18	6	45	270	157.0	-160781.0	-3888.0	153031.0
9	18	6	45	271	158.0	-160599.0	-3924.0	114183.0
9	18	6	45	271	159.0	-160567.0	-3922.0	59182.0
9	18	6	45	272	160.0	-160694.0	-3882.0	34741.0
9	18	6	45	272	161.0	-160759.0	-3829.0	54540.0
9	18	6	45	273	162.0	-160845.0	-3809.0	107943.0
9	18	6	45	274	163.0	-160848.0	-3801.0	156188.0
9	18	6	45	274	164.0	-160865.0	-3830.0	180632.0
9	18	6	45	275	165.0	-160834.0	-3846.0	183251.0
9	18	6	45	275	167.0	-160747.0	-3874.0	152280.0
9	18	6	45	276	168.0	-160753.0	-3899.0	111156.0
9	18	6	45	277	169.0	-160665.0	-3884.0	57821.0
9	18	6	45	277	170.0	-160597.0	-3849.0	38503.0
9	18	6	45	278	171.0	-160652.0	-3802.0	62178.0
9	18	6	45	278	172.0	-160644.0	-3775.0	115454.0
9	18	6	45	279	173.0	-160560.0	-3787.0	163736.0
9	18	6	45	312	174.0	-160576.0	-3820.0	187934.0
9	18	6	45	313	175.0	-160760.0	-3813.0	191591.0
9	18	6	45	314	176.0	-160692.0	-3846.0	184043.0
9	18	6	45	314	177.0	-160543.0	-3862.0	162295.0
9	18	6	45	315	178.0	-160469.0	-3901.0	118674.0
9	18	6	45	316	179.0	-160406.0	-3871.0	67365.0
9	18	6	45	316	180.0	-160356.0	-3834.0	49561.0
9	18	6	45	317	181.0	-160477.0	-3785.0	74354.0
9	18	6	45	317	182.0	-160569.0	-3782.0	126087.0
9	18	6	45	318	183.0	-160461.0	-3776.0	170218.0
9	18	6	45	319	184.0	-160601.0	-3819.0	191047.0
9	18	6	45	319	185.0	-160659.0	-3837.0	193693.0
9	18	6	45	320	186.0	-160579.0	-3827.0	182365.0
9	18	6	45	320	187.0	-160557.0	-3857.0	157272.0
9	18	6	45	321	188.0	-160401.0	-3886.0	113637.0
9	18	6	45	322	190.0	-160504.0	-3826.0	46175.0
9	18	6	45	323	191.0	-160659.0	-3765.0	72491.0
9	18	6	45	324	192.0	-160677.0	-3746.0	124611.0
9	18	6	45	325	193.0	-160662.0	-3764.0	170148.0
9	18	6	45	325	194.0	-160501.0	-3805.0	189783.0
9	18	6	45	326	195.0	-160539.0	-3832.0	189361.0
9	18	6	45	357	196.0	-160649.0	-3859.0	177581.0
9	18	6	45	359	197.0	-160500.0	-3864.0	154981.0
9	18	6	45	360	198.0	-160426.0	-3881.0	108972.0
9	18	6	45	360	199.0	-160519.0	-3859.0	60131.0
9	18	6	45	361	200.0	-160518.0	-3816.0	48054.0
9	18	6	45	362	201.0	-160577.0	-3759.0	76326.0
9	18	6	45	362	202.0	-160583.0	-3747.0	128666.0
9	18	6	45	363	203.0	-160629.0	-3769.0	172590.0
9	18	6	45	363	204.0	-160648.0	-3804.0	190343.0
9	18	6	45	364	205.0	-160526.0	-3819.0	191821.0
9	18	6	45	365	206.0	-160409.0	-3843.0	181320.0
9	18	6	45	365	207.0	-160321.0	-3887.0	156533.0
9	18	6	45	366	208.0	-160352.0	-3898.0	108773.0
9	18	6	45	367	209.0	-160494.0	-3857.0	59488.0
9	18	6	45	367	210.0	-160404.0	-3815.0	49436.0
9	18	6	45	368	212.0	-160410.0	-3770.0	136578.0
9	18	6	45	368	213.0	-160532.0	-3788.0	179309.0
9	18	6	45	369	214.0	-160496.0	-3826.0	194008.0
9	18	6	45	369	215.0	-160432.0	-3837.0	193982.0
9	18	6	45	370	216.0	-160401.0	-3877.0	181403.0
9	18	6	45	370	217.0	-160354.0	-3902.0	155013.0
9	18	6	45	371	218.0	-160290.0	-3930.0	105327.0
9	18	6	45	402	219.0	-160068.0	-3887.0	58101.0
9	18	6	45	403	220.0	-160165.0	-3845.0	49378.0
9	18	6	45	403	221.0	-160406.0	-3812.0	82734.0
9	18	6	45	404	222.0	-160401.0	-3789.0	134828.0
9	18	6	45	404	223.0	-160486.0	-3825.0	174966.0
9	18	6	45	405	224.0	-160254.0	-3861.0	188897.0
9	18	6	45	406	225.0	-160207.0	-3887.0	188756.0
9	18	6	45	406	226.0	-160450.0	-3892.0	175191.0
9	18	6	45	407	227.0	-160449.0	-3898.0	149189.0
9	18	6	45	407	228.0	-160474.0	-3922.0	98443.0
9	18	6	45	408	229.0	-160535.0	-3886.0	52940.0
9	18	6	45	409	230.0	-160522.0	-3840.0	46386.0
9	18	6	45	409	231.0	-160384.0	-3800.0	83857.0
9	18	6	45	410	232.0	-160210.0	-3806.0	138293.0
9	18	6	45	410	233.0	-160196.0	-3834.0	178594.0
9	18	6	45	411	235.0	-160506.0	-3873.0	189533.0
9	18	6	45	412	236.0	-160494.0	-3877.0	173650.0
9	18	6	45	413	237.0	-160532.0	-3912.0	143771.0
9	18	6	45	413	238.0	-160599.0	-3929.0	91676.0
9	18	6	45	414	239.0	-160621.0	-3882.0	49616.0
9	18	6	45	414	240.0	-160692.0	-3850.0	43610.0
9	18	6	45	447	241.0	-160521.0	-3812.0	79288.0
9	18	6	45	447	242.0	-160552.0	-3802.0	130978.0
9	18	6	45	448	243.0	-160607.0	-3814.0	169351.0
9	18	6	45	448	244.0	-160497.0	-3863.0	182001.0
9	18	6	45	449	245.0	-160567.0	-3874.0	180705.0
9	18	6	45	450	246.0	-160423.0	-3886.0	164943.0
9	18	6	45	450	247.0	-160362.0	-3909.0	134527.0
9	18	6	45	492	248.0	-160406.0	-3922.0	81532.0
9	18	6	45	493	249.0	-160462.0	-3884.0	41868.0
9	18	6	45	494	250.0	-160462.0	-3842.0	40243.0
9	18	6	45	494	251.0	-160409.0	-3804.0	78647.0
9	18	6	45	495	252.0	-160241.0	-3806.0	131156.0
9	18	6	45	496	253.0	-160280.0	-3827.0	167603.0
9	18	6	45	497	254.0	-160397.0	-3848.0	178490.0
9	18	6	45	497	255.0	-160419.0	-3869.0	174955.0
9	18	6	45	498	1.0	-160294.0	-3894.0	125833.0
9	18	6	45	498	2.0	-160234.0	-3899.0	70848.0
9	18	6	45	499	3.0	-160306.0	-3858.0	32019.0
9	18	6	45	500	4.0	-160453.0	-3810.0	31716.0
9	18	6	45	500	5.0	-160407.0	-3794.0	74429.0
9	18	6	45	501	6.0	-160401.0	-3807.0	127671.0
9	18	6	45	501	7.0	-160400.0	-3838.0	163879.0
9	18	6	45	502	8.0	-160366.0	-3874.0	175133.0
9	18	6	45	503	24.0	-160056.0	-3809.0	40542.0
9	18	6	45	503	25.0	-159809.0	-3777.0	85449.0
9	18	6	45	504	26.0	-159835.0	-3787.0	135842.0
9	18	6	45	504	27.0	-159912.0	-3817.0	168633.0
9	18	6	45	505	28.0	-159896.0	-3820.0	176286.0
9	18	6	45	506	29.0	-159995.0	-3831.0	170478.0
9	18	6	45	536	30.0	-160147.0	-3827.0	151221.0
9	18	6	45	583	31.0	-160192.0	-3864.0	116766.0
9	18	6	45	584	32.0	-160027.0	-3874.0	60624.0
9	18	6	45	585	33.0	-160032.0	-3821.0	27113.0
9	18	6	45	586	34.0	-160079.0	-3776.0	35173.0
9	18	6	45	586	35.0	-160097.0	-3736.0	82591.0
9	18	6	45	587	36.0	-160062.0	-3748.0	132516.0
9	18	6	45	588	37.0	-160103.0	-3773.0	161837.0
9	18	6	45	589	38.0	-160139.0	-3781.0	167810.0
9	18	6	45	590	39.0	-160021.0	-3777.0	162814.0
9	18	6	45	590	40.0	-159981.0	-3772.0	142104.0
9	18	6	45	591	41.0	-159962.0	-3786.0	104444.0
9	18	6	45	591	42.0	-159882.0	-3794.0	47759.0
9	18	6	45	592	43.0	-159837.0	-3746.0	18041.0
9	18	6	45	592	44.0	-159873.0	-3684.0	31034.0
9	18	6	45	593	46.0	-159905.0	-3647.0	133501.0
9	18	6	45	594	47.0	-159952.0	-3667.0	162233.0
9	18	6	45	594	69.0	-159979.0	-3396.0	154783.0
9	18	6	45	595	70.0	-159541.0	-3411.0	128530.0
9	18	6	45	596	71.0	-159381.0	-3426.0	83984.0
9	18	6	45	596	72.0	-159577.0	-3406.0	25941.0
9	18	6	45	597	73.0	-159631.0	-3371.0	2201.0
9	18	6	45	598	74.0	-159646.0	-3316.0	27479.0
9	18	6	45	628	75.0	-159866.0	-3305.0	88526.0
9	18	6	45	629	76.0	-159884.0	-3299.0	142849.0
9	18	6	45	629	77.0	-159977.0	-3311.0	168824.0
9	18	6	45	630	78.0	-160144.0	-3336.0	172145.0
9	18	6	45	631	79.0	-160230.0	-3337.0	160164.0
9	18	6	45	631	80.0	-160342.0	-3356.0	130858.0
9	18	6	45	632	81.0	-160492.0	-3374.0	78488.0
9	18	6	45	632	82.0	-160662.0	-3338.0	15903.0
9	18	6	45	633	83.0	-160945.0	-3296.0	-4684.0
9	18	6	45	634	84.0	-161069.0	-3263.0	27628.0
9	18	6	45	634	85.0	-160937.0	-3245.0	95560.0
9	18	6	45	635	86.0	-160897.0	-3245.0	154478.0
9	18	6	45	673	87.0	-160839.0	-3278.0	182631.0
9	18	6	45	673	88.0	-160732.0	-3291.0	184984.0
9	18	6	45	674	89.0	-160733.0	-3296.0	169603.0
9	18	6	45	674	91.0	-160966.0	-3326.0	79731.0
9	18	6	45	675	92.0	-160945.0	-3299.0	16701.0
9	18	6	45	676	93.0	-161001.0	-3234.0	-3255.0
9	18	6	45	676	94.0	-160959.0	-3165.0	33552.0
9	18	6	45	677	95.0	-160916.0	-3125.0	108652.0
9	18	6	45	677	96.0	-161038.0	-3121.0	170821.0
9	18	6	45	678	97.0	-161144.0	-3137.0	198490.0
9	18	6	45	679	98.0	-161143.0	-3131.0	199830.0
9	18	6	45	679	99.0	-161064.0	-3132.0	179931.0
9	18	6	45	680	100.0	-160995.0	-3132.0	139790.0
9	18	6	45	680	101.0	-160295.0	-3142.0	78157.0
9	18	6	45	681	102.0	-160326.0	-3089.0	14263.0
9	18	6	45	682	103.0	-161704.0	-3017.0	-862.0
9	18	6	45	682	114.0	-160982.0	-2438.0	46909.0
9	18	6	45	683	115.0	-161314.0	-2353.0	131221.0
9	18	6	45	684	116.0	-161550.0	-2287.0	196884.0
9	18	6	45	684	117.0	-162226.0	-2233.0	223409.0
9	18	6	45	685	118.0	-162622.0	-2159.0	222008.0
9	18	6	45	685	119.0	-162967.0	-2063.0	195224.0
9	18	6	45	717	120.0	-163188.0	-1952.0	144663.0
9	18	6	45	717	121.0	-163404.0	-1854.0	67496.0
9	18	6	45	718	122.0	-163194.0	-1694.0	-719.0
9	18	6	45	762	123.0	-163303.0	-1512.0	-9144.0
9	18	6	45	763	124.0	-163486.0	-1339.0	49372.0
9	18	6	45	763	125.0	-163481.0	-1171.0	137648.0
9	18	6	45	764	126.0	-163770.0	-1037.0	204065.0
9	18	6	45	765	127.0	-164127.0	-912.0	228836.0
9	18	6	45	765	128.0	-164322.0	-764.0	225816.0
9	18	6	45	766	129.0	-164192.0	-611.0	195517.0
9	18	6	45	767	130.0	-164003.0	-442.0	143456.0
9	18	6	45	767	131.0	-162991.0	-274.0	70641.0
9	18	6	45	768	132.0	-164233.0	-47.0	11616.0
9	18	6	45	768	133.0	-164162.0	194.0	10619.0
9	18	6	45	769	134.0	-163851.0	429.0	71571.0
9	18	6	45	770	136.0	-163017.0	806.0	220321.0
9	18	6	45	770	137.0	-162152.0	1014.0	243816.0
9	18	6	45	771	138.0	-161281.0	1234.0	242755.0
9	18	6	45	771	158.0	-159979.0	6412.0	204946.0
9	18	6	45	772	159.0	-160112.0	6644.0	169900.0
9	18	6	45	773	160.0	-160504.0	6932.0	121272.0
9	18	6	45	773	161.0	-161474.0	7234.0	63717.0
9	18	6	45	774	162.0	-161104.0	7567.0	25093.0
9	18	6	45	774	163.0	-161586.0	7906.0	23136.0
9	18	6	45	775	164.0	-162482.0	8241.0	61317.0
9	18	6	45	807	165.0	-163181.0	8563.0	109014.0
9	18	6	45	807	166.0	-163763.0	8856.0	138736.0
9	18	6	45	854	167.0	-164348.0	9188.0	144343.0
9	18	6	45	855	168.0	-164897.0	9518.0	132478.0
9	18	6	45	856	169.0	-165447.0	9828.0	100586.0
9	18	6	45	856	170.0	-165882.0	10180.0	59379.0
9	18	6	45	857	171.0	-165171.0	10534.0	10054.0
9	18	6	45	857	172.0	-164886.0	10948.0	-19951.0
9	18	6	45	859	173.0	-164828.0	11333.0	-16614.0
9	18	6	45	860	174.0	-164496.0	11679.0	17790.0
9	18	6	45	860	175.0	-164071.0	12080.0	58383.0
9	18	6	45	861	176.0	-163471.0	12426.0	83525.0
9	18	6	45	862	177.0	-162814.0	12755.0	86855.0
9	18	6	45	863	178.0	-162230.0	13113.0	76461.0
9	18	6	45	864	179.0	-161847.0	13483.0	50782.0
9	18	6	45	865	181.0	-161267.0	14295.0	-20751.0
9	18	6	45	865	182.0	-160824.0	14646.0	-42633.0
9	18	6	45	866	183.0	-160785.0	14806.0	-36820.0
9	18	6	45	866	204.0	-159596.0	21775.0	-3807.0
9	18	6	45	867	205.0	-159776.0	22059.0	21816.0
9	18	6	45	868	206.0	-159861.0	22296.0	36869.0
9	18	6	45	868	207.0	-159911.0	22471.0	41432.0
9	18	6	45	869	208.0	-160064.0	22804.0	37836.0
9	18	6	45	869	209.0	-160121.0	23014.0	23696.0
9	18	6	45	897	210.0	-160407.0	23180.0	5798.0
9	18	6	45	898	211.0	-160503.0	23397.0	-12330.0
9	18	6	45	899	212.0	-160422.0	23572.0	-19594.0
9	18	6	45	900	213.0	-160272.0	23824.0	-11336.0
9	18	6	45	900	214.0	-160060.0	24014.0	7031.0
9	18	6	45	901	215.0	-160053.0	24208.0	24616.0
9	18	6	45	902	216.0	-159994.0	24421.0	34874.0
9	18	6	45	903	217.0	-160047.0	24564.0	36008.0
9	18	6	45	903	218.0	-160117.0	24724.0	31626.0
9	18	6	45	904	219.0	-160225.0	24893.0	21040.0
9	18	6	45	904	220.0	-160335.0	25094.0	7189.0
9	18	6	45	905	221.0	-160583.0	25244.0	-6888.0
9	18	6	45	906	222.0	-160830.0	25419.0	-13282.0
9	18	6	45	906	223.0	-160904.0	25618.0	-8477.0
9	18	6	45	907	224.0	-160791.0	25713.0	7069.0
9	18	6	45	908	226.0	-160308.0	25958.0	31635.0
9	18	6	45	908	227.0	-160106.0	26149.0	32556.0
9	18	6	45	909	228.0	-159898.0	26341.0	29311.0
9	18	6	45	909	229.0	-159972.0	26393.0	20766.0
9	18	6	45	910	230.0	-160005.0	26478.0	9083.0
9	18	6	45	910	231.0	-160072.0	26643.0	-2829.0
9	18	6	45	942	232.0	-160174.0	26775.0	-7616.0
9	18	6	45	942	233.0	-160385.0	26829.0	-1566.0
9	18	6	45	943	234.0	-160637.0	26959.0	11816.0
9	18	6	45	944	235.0	-160767.0	27089.0	23684.0
9	18	6	45	944	236.0	-160846.0	27183.0	29860.0
9	18	6	45	945	237.0	-160671.0	27221.0	30648.0
9	18	6	45	946	238.0	-160650.0	27318.0	25431.0
9	18	6	45	946	239.0	-160574.0	27437.0	16698.0
9	18	6	45	947	240.0	-160300.0	27506.0	7524.0
9	18	6	45	947	241.0	-159862.0	27610.0	-1347.0
9	18	6	45	948	242.0	-158797.0	27706.0	-4058.0
9	18	6	45	949	243.0	-159364.0	27771.0	1842.0
9	18	6	45	949	244.0	-160334.0	27875.0	12976.0
9	18	6	45	950	245.0	-160877.0	27927.0	22176.0
9	18	6	45	950	246.0	-161083.0	28011.0	25403.0
9	18	6	45	951	248.0	-160511.0	28129.0	20259.0
9	18	6	45	952	249.0	-160255.0	28161.0	14693.0
9	18	6	45	952	250.0	-160417.0	28267.0	8628.0
9	18	6	45	953	251.0	-160843.0	28354.0	3396.0
9	18	6	45	954	252.0	-161042.0	28414.0	1388.0
9	18	6	45	954	253.0	-161308.0	28458.0	4134.0
9	18	6	45	955	254.0	-161517.0	28546.0	10055.0
9	18	6	45	988	255.0	-161616.0	28649.0	13949.0
9	18	6	45	988	0.0	-161708.0	28668.0	14019.0
9	18	6	45	989	1.0	-161847.0	28786.0	9708.0
9	18	6	45	990	2.0	-161925.0	28869.0	2232.0
9	18	6	45	991	3.0	-161889.0	28875.0	-8606.0
9	18	6	45	991	4.0	-161733.0	28947.0	-21729.0
9	18	6	45	992	5.0	-161474.0	29031.0	-38032.0
9	18	6	45	993	6.0	-161397.0	29074.0	-53869.0
9	18	6	45	993	7.0	-161117.0	29119.0	-71641.0
9	18	6	45	994	8.0	-161157.0	29205.0	-96509.0
9	18	6	45	995	9.0	-161471.0	29302.0	-133678.0
9	18	6	45	995	10.0	-161691.0	29399.0	-193308.0
9	18	6	45	996	11.0	-161306.0	29489.0	-280145.0
9	18	6	45	996	12.0	-161089.0	29528.0	-363337.0
9	18	6	45	997	13.0	-160394.0	29573.0	-383847.0
9	18	6	45	998	15.0	-154699.0	29686.0	-301886.0
9	18	6	45	998	16.0	-159429.0	29769.0	-263892.0
9	18	6	45	999	17.0	-161717.0	29837.0	-288253.0
9	18	6	45	999	18.0	-159146.0	29846.0	-327323.0
9	18	6	46	0	19.0	-156394.0	29931.0	-414587.0
9	18	6	46	1	20.0	-156497.0	30015.0	-511934.0
9	18	6	46	38	21.0	-157713.0	30015.0	-582336.0
9	18	6	46	39	22.0	-158727.0	30098.0	-631677.0
9	18	6	46	40	23.0	-159201.0	30178.0	-673874.0
9	18	6	46	40	24.0	-158912.0	30173.0	-701227.0
9	18	6	46	41	25.0	-158902.0	30234.0	-736924.0
9	18	6	46	42	26.0	-158527.0	30326.0	-779102.0
9	18	6	46	42	27.0	-158564.0	30384.0	-824304.0
9	18	6	46	77	28.0	-158380.0	30389.0	-873509.0
9	18	6	46	78	29.0	-158174.0	30380.0	-914697.0
9	18	6	46	78	30.0	-158301.0	30484.0	-953167.0
9	18	6	46	79	31.0	-158036.0	30517.0	-988856.0
9	18	6	46	80	32.0	-157712.0	30547.0	-1017537.0
9	18	6	46	81	33.0	-157249.0	30550.0	-1024487.0
9	18	6	46	81	34.0	-156289.0	30563.0	-999991.0
9	18	6	46	82	35.0	-156039.0	30613.0	-931891.0
9	18	6	46	83	37.0	-156799.0	30624.0	-643377.0
9	18	6	46	83	38.0	-157186.0	30661.0	-414444.0
9	18	6	46	84	39.0	-157292.0	30631.0	-103459.0
9	18	6	46	85	40.0	-157916.0	30695.0	252408.0
9	18	6	46	85	41.0	-158247.0	30684.0	638622.0
9	18	6	46	86	42.0	-158330.0	30625.0	1182098.0
9	18	6	46	86	43.0	-158546.0	30686.0	1723708.0
9	18	6	46	87	44.0	-158444.0	30722.0	2146513.0
9	18	6	46	88	60.0	-161634.0	30571.0	4968629.0
9	18	6	46	89	61.0	-161308.0	30510.0	4771129.0
9	18	6	46	89	62.0	-160901.0	30493.0	4567648.0
9	18	6	46	90	63.0	-161311.0	30505.0	4360789.0
9	18	6	46	91	64.0	-160852.0	30553.0	4158235.0
9	18	6	46	91	65.0	-160117.0	30470.0	3959371.0
9	18	6	46	122	66.0	-160859.0	30374.0	3766117.0
9	18	6	46	123	67.0	-161608.0	30389.0	3585595.0
9	18	6	46	124	68.0	-160899.0	30394.0	3416639.0
9	18	6	46	124	69.0	-160822.0	30379.0	3246288.0
9	18	6	46	125	70.0	-161343.0	30329.0	3070634.0
9	18	6	46	126	71.0	-161791.0	30284.0	2895908.0
9	18	6	46	126	72.0	-162111.0	30231.0	2726489.0
9	18	6	46	127	73.0	-162292.0	30188.0	2565990.0
9	18	6	46	128	74.0	-162416.0	30143.0	2412191.0
9	18	6	46	129	75.0	-164092.0	30094.0	2271049.0
9	18	6	46	129	76.0	-164428.0	30053.0	2140181.0
9	18	6	46	130	77.0	-164151.0	29999.0	2016468.0
9	18	6	46	130	78.0	-163862.0	29953.0	1900352.0
9	18	6	46	131	79.0	-163670.0	29890.0	1790013.0
9	18	6	46	132	80.0	-163527.0	29844.0	1686312.0
9	18	6	46	132	82.0	-162916.0	29711.0	1489093.0
9	18	6	46	133	83.0	-162853.0	29651.0	1397780.0
9	18	6	46	134	84.0	-162881.0	29611.0	1312306.0
9	18	6	46	134	85.0	-162531.0	29566.0	1232018.0
9	18	6	46	135	86.0	-162777.0	29463.0	1158624.0
9	18	6	46	135	87.0	-163969.0	29326.0	1091036.0
9	18	6	46	136	88.0	-163354.0	29219.0	1027844.0
9	18	6	46	167	89.0	-162871.0	29231.0	967298.0
9	18	6	46	168	90.0	-162640.0	29124.0	908796.0
9	18	6	46	168	91.0	-162406.0	28920.0	849916.0
9	18	6	46	169	92.0	-162404.0	28834.0	794302.0
9	18	6	46	170	93.0	-161827.0	28752.0	741833.0
9	18	6	46	170	94.0	-162061.0	28634.0	689918.0
9	18	6	46	171	95.0	-162099.0	28553.0	642878.0
9	18	6	46	172	96.0	-161971.0	28445.0	601621.0
9	18	6	46	172	97.0	-161767.0	28376.0	563769.0
9	18	6	46	173	98.0	-161646.0	28246.0	529333.0
9	18	6	46	173	99.0	-161512.0	28125.0	497956.0
9	18	6	46	174	100.0	-161267.0	27993.0	466784.0
9	18	6	46	212	101.0	-161025.0	27861.0	436746.0
9	18	6	46	213	102.0	-160972.0	27748.0	406892.0
9	18	6	46	213	103.0	-161012.0	27669.0	378792.0
9	18	6	46	214	104.0	-160623.0	27561.0	352004.0
9	18	6	46	215	105.0	-160586.0	27406.0	330149.0
9	18	6	46	215	106.0	-160464.0	27289.0	313244.0
9	18	6	46	216	107.0	-160502.0	27230.0	298903.0
9	18	6	46	216	108.0	-160538.0	27092.0	286411.0
9	18	6	46	217	109.0	-160737.0	26943.0	271854.0
9	18	6	46	258	110.0	-160737.0	26784.0	256244.0
9	18	6	46	259	111.0	-160819.0	26673.0	242191.0
9	18	6	46	260	112.0	-160807.0	26553.0	228621.0
9	18	6	46	260	113.0	-160819.0	26438.0	216178.0
9	18	6	46	261	114.0	-160729.0	26342.0	204386.0
9	18	6	46	262	115.0	-160798.0	26172.0	193923.0
9	18	6	46	262	116.0	-160828.0	25996.0	185062.0
9	18	6	46	263	127.0	-161934.0	24236.0	114304.0
9	18	6	46	263	128.0	-161527.0	24079.0	111500.0
9	18	6	46	264	129.0	-161606.0	23906.0	107683.0
9	18	6	46	265	130.0	-161439.0	23667.0	104452.0
9	18	6	46	265	131.0	-161103.0	23453.0	102633.0
9	18	6	46	266	132.0	-160947.0	23296.0	98977.0
9	18	6	46	267	133.0	-160819.0	23141.0	95771.0
9	18	6	46	267	134.0	-160756.0	22929.0	91955.0
9	18	6	46	268	149.0	-157732.0	19891.0	63743.0
9	18	6	46	268	150.0	-157664.0	19681.0	59554.0
9	18	6	46	269	151.0	-157465.0	19463.0	54388.0
9	18	6	46	270	152.0	-157512.0	19301.0	48808.0
9	18	6	46	270	153.0	-157607.0	19074.0	41691.0
9	18	6	46	271	154.0	-157426.0	18816.0	35867.0
9	18	6	46	271	155.0	-157594.0	18642.0	29959.0
9	18	6	46	302	156.0	-157622.0	18478.0	25103.0
9	18	6	46	312	157.0	-157867.0	18216.0	19973.0
9	18	6	46	313	158.0	-158139.0	18024.0	14126.0
9	18	6	46	314	159.0	-158416.0	17855.0	7147.0
9	18	6	46	314	160.0	-159286.0	17695.0	277.0
9	18	6	46	315	161.0	-159687.0	17526.0	-6489.0
9	18	6	46	316	162.0	-160222.0	17236.0	-14245.0
9	18	6	46	316	163.0	-162855.0	17062.0	-22537.0
9	18	6	46	317	164.0	-160396.0	16904.0	-29311.0
9	18	6	46	317	165.0	-159504.0	16741.0	-31289.0
9	18	6	46	318	166.0	-159611.0	16563.0	-33221.0
9	18	6	46	318	167.0	-159204.0	16435.0	-36552.0
9	18	6	46	319	168.0	-158959.0	16293.0	-39190.0
9	18	6	46	320	169.0	-159174.0	16056.0	-42492.0
9	18	6	46	320	170.0	-159303.0	15926.0	-46169.0
9	18	6	46	321	172.0	-159574.0	15583.0	-51076.0
9	18	6	46	321	173.0	-160199.0	15446.0	-54373.0
9	18	6	46	322	174.0	-160814.0	15336.0	-58746.0
9	18	6	46	323	175.0	-161152.0	15205.0	-62784.0
9	18	6	46	323	176.0	-161171.0	14960.0	-66645.0
9	18	6	46	324	177.0	-161279.0	14796.0	-69556.0
9	18	6	46	346	178.0	-161256.0	14726.0	-73621.0
9	18	6	46	361	179.0	-161167.0	14514.0	-77901.0
9	18	6	46	362	180.0	-161113.0	14386.0	-81990.0
9	18	6	46	362	181.0	-160904.0	14174.0	-84164.0
9	18	6	46	363	182.0	-160598.0	14007.0	-85787.0
9	18	6	46	363	183.0	-160602.0	13866.0	-89309.0
9	18	6	46	364	184.0	-160352.0	13725.0	-91969.0
9	18	6	46	365	185.0	-160316.0	13573.0	-92371.0
9	18	6	46	365	186.0	-160323.0	13367.0	-92272.0
9	18	6	46	366	187.0	-160012.0	13171.0	-93214.0
9	18	6	46	366	188.0	-159879.0	13061.0	-94745.0
9	18	6	46	367	189.0	-159924.0	12895.0	-97137.0
9	18	6	46	392	190.0	-159973.0	12691.0	-100032.0
9	18	6	46	393	191.0	-159856.0	12617.0	-101713.0
9	18	6	46	394	192.0	-159521.0	12471.0	-104964.0
9	18	6	46	395	194.0	-159502.0	12252.0	-111929.0
9	18	6	46	395	195.0	-159606.0	12039.0	-113796.0
9	18	6	46	396	196.0	-160038.0	11987.0	-114358.0
9	18	6	46	396	197.0	-160259.0	11882.0	-116894.0
9	18	6	46	397	198.0	-160647.0	11634.0	-120707.0
9	18	6	46	397	199.0	-161070.0	11507.0	-123547.0
9	18	6	46	398	200.0	-161185.0	11392.0	-124676.0
9	18	6	46	399	201.0	-161271.0	11303.0	-128176.0
9	18	6	46	399	202.0	-161764.0	11071.0	-131403.0
9	18	6	46	400	203.0	-162044.0	10921.0	-134599.0
9	18	6	46	400	204.0	-161927.0	10734.0	-138495.0
9	18	6	46	401	205.0	-161711.0	10661.0	-140856.0
9	18	6	46	401	206.0	-161811.0	10498.0	-140442.0
9	18	6	46	402	217.0	-161787.0	9073.0	-161242.0
9	18	6	46	403	218.0	-162054.0	8944.0	-161029.0
9	18	6	46	403	219.0	-162104.0	8794.0	-162244.0
9	18	6	46	404	220.0	-162137.0	8716.0	-163228.0
9	18	6	46	404	221.0	-162191.0	8690.0	-164397.0
9	18	6	46	405	222.0	-162128.0	8593.0	-166339.0
9	18	6	46	436	223.0	-162039.0	8378.0	-169086.0
9	18	6	46	437	224.0	-161976.0	8343.0	-172456.0
9	18	6	46	438	225.0	-162013.0	8261.0	-172385.0
9	18	6	46	438	226.0	-161845.0	8209.0	-169825.0
9	18	6	46	439	227.0	-162038.0	8126.0	-166352.0
9	18	6	46	439	228.0	-161787.0	8009.0	-163485.0
9	18	6	46	440	229.0	-161736.0	7936.0	-161878.0
9	18	6	46	441	230.0	-161798.0	7952.0	-162329.0
9	18	6	46	441	231.0	-161706.0	7834.0	-163496.0
9	18	6	46	442	232.0	-161539.0	7696.0	-164619.0
9	18	6	46	443	233.0	-161373.0	7656.0	-166259.0
9	18	6	46	443	234.0	-161289.0	7711.0	-167208.0
9	18	6	46	444	235.0	-161113.0	7613.0	-166954.0
9	18	6	46	444	236.0	-161076.0	7498.0	-162501.0
9	18	6	46	445	237.0	-161301.0	7351.0	-157453.0
9	18	6	46	445	239.0	-161182.0	7326.0	-151604.0
9	18	6	46	446	240.0	-160990.0	7269.0	-149252.0
9	18	6	46	446	241.0	-160689.0	7142.0	-148870.0
9	18	6	46	447	242.0	-160633.0	7081.0	-149382.0
9	18	6	46	448	243.0	-160386.0	7042.0	-150494.0
9	18	6	46	448	244.0	-160331.0	6873.0	-149893.0
9	18	6	46	449	245.0	-160033.0	6862.0	-145181.0
9	18	6	46	482	246.0	-159659.0	6854.0	-138536.0
9	18	6	46	483	247.0	-159550.0	6714.0	-131429.0
9	18	6	46	484	248.0	-159460.0	6596.0	-124137.0
9	18	6	46	484	249.0	-159401.0	6486.0	-120077.0
9	18	6	46	485	250.0	-159322.0	6421.0	-118177.0
9	18	6	46	485	251.0	-159124.0	6374.0	-117843.0
9	18	6	46	486	252.0	-158866.0	6301.0	-118319.0
9	18	6	46	487	253.0	-158667.0	6182.0	-119246.0
9	18	6	46	487	254.0	-158789.0	6079.0	-117874.0
9	18	6	46	488	255.0	-158804.0	6026.0	-113066.0
9	18	6	46	488	0.0	-159029.0	5923.0	-106619.0
9	18	6	46	489	1.0	-159341.0	5906.0	-98754.0
9	18	6	46	489	2.0	-159016.0	5804.0	-92610.0
9	18	6	46	490	3.0	-159012.0	5678.0	-90493.0
9	18	6	46	527	4.0	-158917.0	5601.0	-88676.0
9	18	6	46	528	6.0	-159011.0	5409.0	-85662.0
9	18	6	46	529	7.0	-159299.0	5418.0	-86391.0
9	18	6	46	529	8.0	-159652.0	5258.0	-84543.0
9	18	6	46	530	9.0	-160302.0	5129.0	-79876.0
9	18	6	46	530	10.0	-160679.0	4996.0	-72779.0
9	18	6	46	531	11.0	-160968.0	4884.0	-64323.0
9	18	6	46	532	12.0	-161400.0	4812.0	-55641.0
9	18	6	46	532	13.0	-162449.0	4631.0	-50514.0
9	18	6	46	533	14.0	-162145.0	4531.0	-48982.0
9	18	6	46	533	15.0	-161933.0	4405.0	-51674.0
9	18	6	46	534	16.0	-165142.0	4310.0	-56409.0
9	18	6	46	534	17.0	-163042.0	4207.0	-56305.0
9	18	6	46	535	18.0	-159956.0	4163.0	-51085.0
9	18	6	46	536	19.0	-159934.0	3998.0	-42509.0
9	18	6	46	536	20.0	-160185.0	3850.0	-28061.0
9	18	6	46	537	28.0	-161976.0	3051.0	6921.0
9	18	6	46	537	29.0	-161999.0	3026.0	11349.0
9	18	6	46	538	30.0	-161897.0	2960.0	22809.0
9	18	6	46	546	31.0	-161593.0	2744.0	32675.0
9	18	6	46	547	32.0	-161430.0	2546.0	38678.0
9	18	6	46	547	33.0	-161266.0	2562.0	42659.0
9	18	6	46	548	34.0	-160819.0	2430.0	42728.0
9	18	6	46	548	35.0	-160193.0	2291.0	38504.0
9	18	6	46	572	36.0	-159553.0	2184.0	34089.0
9	18	6	46	573	37.0	-159145.0	1979.0	29516.0
9	18	6	46	573	38.0	-159024.0	2007.0	31071.0
9	18	6	46	574	39.0	-159190.0	1894.0	41883.0
9	18	6	46	575	40.0	-159349.0	1723.0	59099.0
9	18	6	46	575	41.0	-159719.0	1743.0	76704.0
9	18	6	46	576	42.0	-160451.0	1584.0	91696.0
9	18	6	46	576	43.0	-160699.0	1429.0	105291.0
9	18	6	46	577	44.0	-160811.0	1336.0	119940.0
9	18	6	46	578	45.0	-161162.0	1217.0	136028.0
9	18	6	46	578	46.0	-160817.0	1113.0	151679.0
9	18	6	46	579	47.0	-161046.0	1089.0	167459.0
9	18	6	46	579	48.0	-161382.0	964.0	188036.0
9	18	6	46	580	49.0	-161427.0	805.0	212834.0
9	18	6	46	581	50.0	-162113.0	626.0	238963.0
9	18	6	46	581	51.0	-163601.0	508.0	255396.0
9	18	6	46	582	52.0	-161812.0	429.0	259599.0
9	18	6	46	582	53.0	-159798.0	330.0	255450.0
9	18	6	46	583	54.0	-159299.0	198.0	244552.0
9	18	6	46	583	55.0	-159427.0	75.0	225243.0
9	18	6	46	584	56.0	-159119.0	49.0	200538.0
9	18	6	46	616	57.0	-158475.0	-57.0	171755.0
9	18	6	46	617	58.0	-157988.0	-158.0	150291.0
9	18	6	46	618	59.0	-157413.0	-234.0	139916.0
9	18	6	46	618	60.0	-156879.0	-354.0	136652.0
9	18	6	46	619	61.0	-156538.0	-426.0	128219.0
9	18	6	46	619	62.0	-156546.0	-506.0	108249.0
9	18	6	46	620	63.0	-156979.0	-579.0	76421.0
9	18	6	46	621	64.0	-158330.0	-642.0	38715.0
9	18	6	46	621	65.0	-159772.0	-722.0	1343.0
9	18	6	46	622	66.0	-160852.0	-763.0	-37461.0
9	18	6	46	622	67.0	-161859.0	-794.0	-76529.0
9	18	6	46	623	68.0	-162689.0	-763.0	-102511.0
9	18	6	46	662	69.0	-163352.0	-711.0	-114484.0
9	18	6	46	663	70.0	-163810.0	-674.0	-118803.0
9	18	6	46	664	71.0	-163883.0	-657.0	-125717.0
9	18	6	46	664	73.0	-163224.0	-613.0	-156727.0
9	18	6	46	665	74.0	-164799.0	-586.0	-179069.0
9	18	6	46	665	75.0	-164838.0	-540.0	-204283.0
9	18	6	46	666	76.0	-164109.0	-444.0	-230614.0
9	18	6	46	667	77.0	-163383.0	-367.0	-253294.0
9	18	6	46	667	78.0	-162741.0	-320.0	-259853.0
9	18	6	46	668	79.0	-162479.0	-194.0	-246541.0
9	18	6	46	668	80.0	-162483.0	-71.0	-221347.0
9	18	6	46	669	81.0	-162386.0	26.0	-199261.0
9	18	6	46	669	82.0	-162358.0	129.0	-187383.0
9	18	6	46	670	83.0	-162173.0	264.0	-184736.0
9	18	6	46	671	84.0	-161791.0	387.0	-190327.0
9	18	6	46	679	85.0	-161318.0	515.0	-202564.0
9	18	6	46	680	96.0	-160834.0	2128.0	-173122.0
9	18	6	46	680	97.0	-161420.0	2297.0	-189880.0
9	18	6	46	681	98.0	-162131.0	2424.0	-190357.0
9	18	6	46	681	99.0	-162644.0	2563.0	-168238.0
9	18	6	46	682	100.0	-162919.0	2724.0	-131931.0
9	18	6	46	683	101.0	-162915.0	2859.0	-100320.0
9	18	6	46	708	102.0	-163129.0	2934.0	-82890.0
9	18	6	46	708	103.0	-163400.0	3053.0	-76326.0
9	18	6	46	709	104.0	-163406.0	3170.0	-81740.0
9	18	6	46	709	105.0	-163267.0	3289.0	-97827.0
9	18	6	46	710	106.0	-163232.0	3383.0	-122879.0
9	18	6	46	711	107.0	-163473.0	3503.0	-142816.0
9	18	6	46	711	108.0	-163367.0	3608.0	-141102.0
9	18	6	46	712	109.0	-163527.0	3722.0	-111466.0
9	18	6	46	713	110.0	-163563.0	3826.0	-66636.0
9	18	6	46	726	111.0	-163414.0	3894.0	-26569.0
9	18	6	46	727	112.0	-163224.0	3963.0	-5937.0
9	18	6	46	728	113.0	-163111.0	4025.0	1929.0
9	18	6	46	728	114.0	-163103.0	4078.0	-4305.0
9	18	6	46	729	115.0	-163094.0	4146.0	-22759.0
9	18	6	46	729	116.0	-162936.0	4173.0	-51394.0
9	18	6	46	730	118.0	-162807.0	4273.0	-69009.0
9	18	6	46	730	119.0	-162572.0	4324.0	-31230.0
9	18	6	46	731	120.0	-162281.0	4358.0	18966.0
9	18	6	46	731	121.0	-161925.0	4351.0	57451.0
9	18	6	46	732	122.0	-161550.0	4363.0	74778.0
9	18	6	46	733	123.0	-161389.0	4390.0	78729.0
9	18	6	46	751	124.0	-161141.0	4365.0	66818.0
9	18	6	46	752	125.0	-160923.0	4325.0	40732.0
9	18	6	46	752	126.0	-160531.0	4325.0	3141.0
9	18	6	46	753	127.0	-160106.0	4352.0	-25601.0
9	18	6	46	754	128.0	-160085.0	4355.0	-25222.0
9	18	6	46	754	129.0	-160077.0	4387.0	7909.0
9	18	6	46	755	130.0	-159987.0	4349.0	52933.0
9	18	6	46	755	131.0	-159767.0	4299.0	86395.0
9	18	6	46	756	132.0	-159703.0	4295.0	95071.0
9	18	6	46	756	133.0	-159644.0	4254.0	86311.0
9	18	6	46	757	134.0	-159594.0	4221.0	58780.0
9	18	6	46	758	135.0	-159641.0	4193.0	18638.0
9	18	6	46	758	136.0	-159519.0	4151.0	-33079.0
9	18	6	46	759	137.0	-159434.0	4116.0	-73074.0
9	18	6	46	759	138.0	-159357.0	4106.0	-81182.0
9	18	6	46	760	140.0	-159364.0	4032.0	-12827.0
9	18	6	46	761	141.0	-159349.0	3999.0	13079.0
9	18	6	46	761	142.0	-159307.0	3971.0	13901.0
9	18	6	46	762	143.0	-159584.0	3858.0	-348.0
9	18	6	46	780	144.0	-159729.0	3793.0	-33122.0
9	18	6	46	780	145.0	-159741.0	3793.0	-79774.0
9	18	6	46	781	146.0	-159752.0	3741.0	-137515.0
9	18	6	46	804	147.0	-159744.0	3664.0	-180581.0
9	18	6	46	805	148.0	-159587.0	3653.0	-189054.0
9	18	6	46	805	149.0	-159427.0	3631.0	-157611.0
9	18	6	46	806	150.0	-159332.0	3552.0	-115632.0
9	18	6	46	807	151.0	-159150.0	3498.0	-88235.0
9	18	6	46	807	152.0	-159134.0	3436.0	-85796.0
9	18	6	46	808	153.0	-159149.0	3359.0	-98039.0
9	18	6	46	808	154.0	-159242.0	3262.0	-129659.0
9	18	6	46	809	155.0	-159296.0	3186.0	-173836.0
9	18	6	46	809	156.0	-159286.0	3120.0	-231667.0
9	18	6	46	810	157.0	-159311.0	3079.0	-272746.0
9	18	6	46	810	158.0	-159420.0	3034.0	-272191.0
9	18	6	46	811	159.0	-159450.0	2994.0	-225266.0
9	18	6	46	812	160.0	-159500.0	2907.0	-168036.0
9	18	6	46	812	161.0	-159774.0	2823.0	-129772.0
9	18	6	46	813	163.0	-159907.0	2640.0	-126756.0
9	18	6	46	813	164.0	-159896.0	2576.0	-154691.0
9	18	6	46	814	165.0	-159924.0	2508.0	-197729.0
9	18	6	46	814	166.0	-159968.0	2347.0	-257026.0
9	18	6	46	815	167.0	-159891.0	2301.0	-292051.0
9	18	6	46	815	168.0	-159879.0	2276.0	-281210.0
9	18	6	46	842	169.0	-160267.0	2224.0	-222421.0
9	18	6	46	843	170.0	-160404.0	2109.0	-156079.0
9	18	6	46	843	171.0	-160369.0	1983.0	-112258.0
9	18	6	46	844	172.0	-160278.0	1888.0	-97962.0
9	18	6	46	845	173.0	-159934.0	1769.0	-102073.0
9	18	6	46	845	174.0	-159812.0	1686.0	-129951.0
9	18	6	46	846	175.0	-159892.0	1566.0	-174800.0
9	18	6	46	846	176.0	-159974.0	1466.0	-236316.0
9	18	6	46	847	177.0	-159946.0	1416.0	-269749.0
9	18	6	46	848	178.0	-159936.0	1366.0	-248407.0
9	18	6	46	849	179.0	-159786.0	1319.0	-176489.0
9	18	6	46	849	180.0	-159837.0	1211.0	-102806.0
9	18	6	46	850	181.0	-159968.0	1098.0	-56031.0
9	18	6	46	850	182.0	-159826.0	966.0	-41507.0
9	18	6	46	851	183.0	-159738.0	838.0	-48032.0
9	18	6	46	852	185.0	-159591.0	589.0	-124807.0
9	18	6	46	852	186.0	-159777.0	519.0	-192175.0
9	18	6	46	853	187.0	-159779.0	455.0	-225563.0
9	18	6	46	853	188.0	-159787.0	368.0	-200711.0
9	18	6	46	854	189.0	-159815.0	279.0	-124375.0
9	18	6	46	855	190.0	-159850.0	184.0	-50309.0
9	18	6	46	855	191.0	-159736.0	61.0	-5203.0
9	18	6	46	885	192.0	-159559.0	-111.0	8756.0
9	18	6	46	886	193.0	-159481.0	-248.0	206.0
9	18	6	46	887	194.0	-159629.0	-362.0	-32578.0
9	18	6	46	887	195.0	-159763.0	-501.0	-85032.0
9	18	6	46	930	196.0	-159891.0	-600.0	-155523.0
9	18	6	46	976	197.0	-159823.0	-678.0	-187449.0
9	18	6	46	977	198.0	-159466.0	-745.0	-159121.0
9	18	6	46	977	199.0	-159586.0	-859.0	-79126.0
9	18	6	46	978	200.0	-159866.0	-977.0	-4040.0
9	18	6	46	979	201.0	-159876.0	-1146.0	36937.0
9	18	6	46	979	202.0	-159931.0	-1271.0	44615.0
9	18	6	46	980	203.0	-159972.0	-1388.0	33074.0
9	18	6	46	981	204.0	-160158.0	-1519.0	-2581.0
9	18	6	46	982	205.0	-160255.0	-1692.0	-61438.0
9	18	6	46	982	206.0	-160265.0	-1821.0	-134647.0
9	18	6	46	986	208.0	-160176.0	-1979.0	-129105.0
9	18	6	46	987	209.0	-160195.0	-2064.0	-47336.0
9	18	6	46	988	210.0	-160071.0	-2172.0	25014.0
9	18	6	46	988	211.0	-160204.0	-2327.0	62244.0
9	18	6	46	989	212.0	-160315.0	-2484.0	67941.0
9	18	6	46	990	231.0	-160146.0	-4887.0	73624.0
9	18	6	46	990	253.0	-160866.0	-7504.0	47353.0
9	18	6	46	991	254.0	-160889.0	-7626.0	5766.0
9	18	6	46	992	255.0	-160964.0	-7735.0	-59703.0
9	18	6	46	992	0.0	-160983.0	-7803.0	-123904.0
9	18	6	47	22	1.0	-160861.0	-7870.0	-138096.0
9	18	6	47	24	2.0	-160689.0	-7929.0	-92368.0
9	18	6	47	27	3.0	-160750.0	-7994.0	-18264.0
9	18	6	47	29	4.0	-160282.0	-8127.0	39320.0
9	18	6	47	31	5.0	-160356.0	-8277.0	63432.0
9	18	6	47	33	6.0	-161267.0	-8404.0	63549.0
9	18	6	47	34	7.0	-161061.0	-8535.0	42303.0
9	18	6	47	35	8.0	-160882.0	-8655.0	628.0
9	18	6	47	35	9.0	-160658.0	-8789.0	-63409.0
9	18	6	47	36	10.0	-160582.0	-8877.0	-123514.0
9	18	6	47	36	11.0	-160611.0	-8953.0	-134356.0
9	18	6	47	37	12.0	-160676.0	-9024.0	-85928.0
9	18	6	47	38	13.0	-160599.0	-9117.0	-12906.0
9	18	6	47	38	14.0	-160699.0	-9254.0	39516.0
9	18	6	47	39	15.0	-160549.0	-9401.0	58618.0
9	18	6	47	40	16.0	-160525.0	-9517.0	56323.0
9	18	6	47	40	20.0	-160452.0	-9986.0	-123136.0
9	18	6	47	41	21.0	-160503.0	-10051.0	-130866.0
9	18	6	47	42	22.0	-160462.0	-10125.0	-83435.0
9	18	6	47	42	23.0	-160411.0	-10247.0	-13046.0
9	18	6	47	43	24.0	-160402.0	-10349.0	37861.0
9	18	6	47	43	25.0	-160470.0	-10472.0	56385.0
9	18	6	47	67	26.0	-160289.0	-10596.0	53860.0
9	18	6	47	69	27.0	-160472.0	-10720.0	30831.0
9	18	6	47	70	28.0	-159956.0	-10842.0	-7982.0
9	18	6	47	71	29.0	-160672.0	-10969.0	-69999.0
9	18	6	47	71	30.0	-160987.0	-11043.0	-122901.0
9	18	6	47	72	31.0	-160719.0	-11120.0	-126261.0
9	18	6	47	73	32.0	-160524.0	-11139.0	-77030.0
9	18	6	47	73	33.0	-160321.0	-11224.0	-9387.0
9	18	6	47	74	34.0	-160040.0	-11347.0	38873.0
9	18	6	47	75	35.0	-159805.0	-11472.0	56049.0
9	18	6	47	75	36.0	-159836.0	-11578.0	53756.0
9	18	6	47	76	37.0	-160142.0	-11671.0	30796.0
9	18	6	47	110	38.0	-160309.0	-11772.0	-9717.0
9	18	6	47	112	39.0	-160283.0	-11882.0	-72974.0
9	18	6	47	112	40.0	-160268.0	-11920.0	-124400.0
9	18	6	47	113	42.0	-160451.0	-12017.0	-73812.0
9	18	6	47	114	43.0	-160515.0	-12082.0	-8567.0
9	18	6	47	114	44.0	-160517.0	-12189.0	37649.0
9	18	6	47	115	45.0	-160531.0	-12285.0	52886.0
9	18	6	47	156	46.0	-160539.0	-12346.0	48838.0
9	18	6	47	157	47.0	-160571.0	-12458.0	25737.0
9	18	6	47	158	48.0	-160616.0	-12546.0	-12321.0
9	18	6	47	159	49.0	-160702.0	-12626.0	-74307.0
9	18	6	47	160	50.0	-160707.0	-12661.0	-120098.0
9	18	6	47	162	51.0	-160766.0	-12685.0	-119761.0
9	18	6	47	162	52.0	-160844.0	-12727.0	-68957.0
9	18	6	47	163	53.0	-160828.0	-12790.0	-5832.0
9	18	6	47	164	54.0	-160754.0	-12879.0	35477.0
9	18	6	47	164	64.0	-161416.0	-13441.0	37413.0
9	18	6	47	165	65.0	-161522.0	-13527.0	46654.0
9	18	6	47	166	66.0	-161042.0	-13563.0	41338.0
9	18	6	47	166	67.0	-160831.0	-13605.0	20323.0
9	18	6	47	167	68.0	-160829.0	-13717.0	-20266.0
9	18	6	47	168	69.0	-160607.0	-13782.0	-82906.0
9	18	6	47	168	70.0	-160305.0	-13787.0	-121188.0
9	18	6	47	169	87.0	-160752.0	-14393.0	1207.0
9	18	6	47	170	88.0	-160793.0	-14467.0	-39952.0
9	18	6	47	170	89.0	-160786.0	-14454.0	-100866.0
9	18	6	47	171	90.0	-160839.0	-14401.0	-135262.0
9	18	6	47	171	91.0	-160801.0	-14402.0	-121002.0
9	18	6	47	172	92.0	-160622.0	-14420.0	-64584.0
9	18	6	47	202	93.0	-160603.0	-14392.0	-5631.0
9	18	6	47	203	94.0	-160632.0	-14421.0	30204.0
9	18	6	47	205	95.0	-160613.0	-14482.0	36865.0
9	18	6	47	206	96.0	-160560.0	-14525.0	28939.0
9	18	6	47	207	97.0	-160578.0	-14538.0	5466.0
9	18	6	47	208	98.0	-160577.0	-14579.0	-35916.0
9	18	6	47	209	99.0	-160484.0	-14594.0	-94941.0
9	18	6	47	210	100.0	-160579.0	-14572.0	-124015.0
9	18	6	47	211	101.0	-160591.0	-14532.0	-107659.0
9	18	6	47	212	102.0	-160726.0	-14516.0	-53846.0
9	18	6	47	212	103.0	-160588.0	-14528.0	1421.0
9	18	6	47	213	104.0	-160594.0	-14576.0	34301.0
9	18	6	47	214	105.0	-160581.0	-14604.0	40800.0
9	18	6	47	215	106.0	-160591.0	-14619.0	32185.0
9	18	6	47	215	107.0	-160617.0	-14638.0	8011.0
9	18	6	47	216	109.0	-160661.0	-14694.0	-93861.0
9	18	6	47	217	110.0	-160706.0	-14684.0	-122998.0
9	18	6	47	217	111.0	-160808.0	-14609.0	-104825.0
9	18	6	47	218	112.0	-160719.0	-14606.0	-49772.0
9	18	6	47	219	113.0	-160709.0	-14664.0	3361.0
9	18	6	47	219	114.0	-160651.0	-14678.0	31719.0
9	18	6	47	247	115.0	-160861.0	-14671.0	36173.0
9	18	6	47	291	116.0	-160891.0	-14724.0	27049.0
9	18	6	47	293	117.0	-160820.0	-14759.0	2013.0
9	18	6	47	295	118.0	-160616.0	-14789.0	-42017.0
9	18	6	47	296	119.0	-160734.0	-14812.0	-102102.0
9	18	6	47	297	120.0	-160687.0	-14797.0	-128079.0
9	18	6	47	298	121.0	-160759.0	-14752.0	-107196.0
9	18	6	47	299	122.0	-160622.0	-14751.0	-51654.0
9	18	6	47	300	123.0	-160549.0	-14781.0	538.0
9	18	6	47	300	124.0	-160532.0	-14808.0	27382.0
9	18	6	47	301	125.0	-160640.0	-14840.0	29172.0
9	18	6	47	302	126.0	-160645.0	-14870.0	18271.0
9	18	6	47	302	127.0	-160637.0	-14899.0	-7581.0
9	18	6	47	303	128.0	-160694.0	-14939.0	-53515.0
9	18	6	47	304	129.0	-160664.0	-14949.0	-110549.0
9	18	6	47	305	132.0	-160636.0	-14890.0	-52957.0
9	18	6	47	306	133.0	-160500.0	-14955.0	-179.0
9	18	6	47	308	154.0	-160579.0	-15343.0	27739.0
9	18	6	47	309	155.0	-160020.0	-15374.0	28396.0
9	18	6	47	310	156.0	-161435.0	-15412.0	14926.0
9	18	6	47	311	157.0	-161495.0	-15432.0	-12684.0
9	18	6	47	311	158.0	-160981.0	-15456.0	-63497.0
9	18	6	47	312	159.0	-160654.0	-15472.0	-118286.0
9	18	6	47	313	160.0	-160644.0	-15477.0	-132274.0
9	18	6	47	337	161.0	-160483.0	-15425.0	-98784.0
9	18	6	47	338	162.0	-160377.0	-15406.0	-39206.0
9	18	6	47	338	163.0	-160638.0	-15464.0	8749.0
9	18	6	47	339	164.0	-160838.0	-15532.0	29446.0
9	18	6	47	340	165.0	-160842.0	-15561.0	31085.0
9	18	6	47	341	166.0	-160740.0	-15589.0	17654.0
9	18	6	47	341	167.0	-160763.0	-15602.0	-12261.0
9	18	6	47	342	168.0	-160810.0	-15637.0	-64384.0
9	18	6	47	343	169.0	-160650.0	-15632.0	-114508.0
9	18	6	47	343	170.0	-160704.0	-15591.0	-125313.0
9	18	6	47	344	171.0	-160847.0	-15559.0	-90934.0
9	18	6	47	345	172.0	-160772.0	-15549.0	-32468.0
9	18	6	47	345	173.0	-160850.0	-15587.0	14268.0
9	18	6	47	346	174.0	-160869.0	-15609.0	32294.0
9	18	6	47	347	175.0	-160871.0	-15611.0	31961.0
9	18	6	47	348	176.0	-160805.0	-15611.0	14943.0
9	18	6	47	349	177.0	-160642.0	-15638.0	-17742.0
9	18	6	47	349	178.0	-160564.0	-15665.0	-71032.0
9	18	6	47	350	179.0	-160534.0	-15607.0	-121113.0
9	18	6	47	351	180.0	-160657.0	-15597.0	-131600.0
9	18	6	47	351	181.0	-160804.0	-15571.0	-94595.0
9	18	6	47	382	182.0	-160709.0	-15526.0	-34061.0
9	18	6	47	384	183.0	-160761.0	-15526.0	13030.0
9	18	6	47	385	184.0	-160753.0	-15584.0	30579.0
9	18	6	47	386	185.0	-160672.0	-15572.0	30873.0
9	18	6	47	387	186.0	-160667.0	-15570.0	15951.0
9	18	6	47	387	187.0	-160802.0	-15568.0	-13477.0
9	18	6	47	388	188.0	-160828.0	-15557.0	-65490.0
9	18	6	47	389	189.0	-160736.0	-15551.0	-114159.0
9	18	6	47	390	190.0	-160669.0	-15490.0	-121824.0
9	18	6	47	390	191.0	-160566.0	-15438.0	-82559.0
9	18	6	47	391	192.0	-160556.0	-15402.0	-24609.0
9	18	6	47	392	193.0	-160527.0	-15404.0	19809.0
9	18	6	47	392	194.0	-160550.0	-15427.0	35141.0
9	18	6	47	393	195.0	-160616.0	-15415.0	34504.0
9	18	6	47	394	196.0	-160556.0	-15401.0	17383.0
9	18	6	47	395	197.0	-160421.0	-15394.0	-14205.0
9	18	6	47	395	199.0	-160616.0	-15352.0	-114307.0
9	18	6	47	396	200.0	-160631.0	-15281.0	-118174.0
9	18	6	47	397	201.0	-160564.0	-15254.0	-77581.0
9	18	6	47	397	202.0	-160658.0	-15231.0	-18578.0
9	18	6	47	398	203.0	-160672.0	-15191.0	23496.0
9	18	6	47	399	204.0	-160815.0	-15201.0	35648.0
9	18	6	47	399	205.0	-160792.0	-15231.0	33468.0
9	18	6	47	427	206.0	-160639.0	-15209.0	18141.0
9	18	6	47	430	207.0	-160843.0	-15186.0	-13682.0
9	18	6	47	432	208.0	-160744.0	-15216.0	-70402.0
9	18	6	47	433	209.0	-160619.0	-15169.0	-112911.0
9	18	6	47	434	210.0	-160634.0	-15086.0	-113789.0
9	18	6	47	434	211.0	-160630.0	-15026.0	-71468.0
9	18	6	47	435	212.0	-160588.0	-15004.0	-14428.0
9	18	6	47	435	213.0	-160581.0	-15001.0	27468.0
9	18	6	47	436	214.0	-160576.0	-15017.0	40616.0
9	18	6	47	437	215.0	-160427.0	-15032.0	36886.0
9	18	6	47	437	216.0	-160453.0	-15021.0	17373.0
9	18	6	47	438	217.0	-160563.0	-15034.0	-16481.0
9	18	6	47	438	218.0	-160529.0	-15040.0	-72691.0
9	18	6	47	439	219.0	-160537.0	-14993.0	-115013.0
9	18	6	47	439	220.0	-160408.0	-14933.0	-114001.0
9	18	6	47	440	221.0	-160441.0	-14888.0	-68919.0
9	18	6	47	441	222.0	-160451.0	-14892.0	-12186.0
9	18	6	47	441	223.0	-160449.0	-14912.0	27699.0
9	18	6	47	442	224.0	-160407.0	-14887.0	40613.0
9	18	6	47	442	225.0	-160412.0	-14892.0	38288.0
9	18	6	47	443	226.0	-160454.0	-14937.0	19146.0
9	18	6	47	443	227.0	-160431.0	-14941.0	-16066.0
9	18	6	47	471	228.0	-160471.0	-14911.0	-72511.0
9	18	6	47	516	229.0	-160472.0	-14885.0	-110470.0
9	18	6	47	517	230.0	-160558.0	-14834.0	-106931.0
9	18	6	47	517	231.0	-160493.0	-14795.0	-59447.0
9	18	6	47	518	232.0	-160444.0	-14802.0	-3369.0
9	18	6	47	518	233.0	-160434.0	-14841.0	33954.0
9	18	6	47	519	234.0	-160467.0	-14840.0	44693.0
9	18	6	47	520	235.0	-160430.0	-14864.0	41106.0
9	18	6	47	520	236.0	-160476.0	-14854.0	20574.0
9	18	6	47	521	237.0	-160414.0	-14881.0	-15806.0
9	18	6	47	521	238.0	-160324.0	-14894.0	-74677.0
9	18	6	47	522	239.0	-160232.0	-14851.0	-110883.0
9	18	6	47	522	240.0	-160362.0	-14798.0	-105436.0
9	18	6	47	523	241.0	-160361.0	-14771.0	-56755.0
9	18	6	47	524	242.0	-160404.0	-14768.0	-1429.0
9	18	6	47	524	244.0	-160327.0	-14839.0	42059.0
9	18	6	47	525	10.0	-160246.0	-14942.0	16484.0
9	18	6	47	526	11.0	-160396.0	-14981.0	-23316.0
9	18	6	47	527	12.0	-160334.0	-14992.0	-81867.0
9	18	6	47	528	13.0	-160377.0	-14942.0	-110566.0
9	18	6	47	529	14.0	-160457.0	-14902.0	-94307.0
9	18	6	47	529	15.0	-160369.0	-14912.0	-39704.0
9	18	6	47	530	16.0	-160161.0	-14940.0	13751.0
9	18	6	47	561	17.0	-160313.0	-14952.0	44444.0
9	18	6	47	562	18.0	-160506.0	-14976.0	50579.0
9	18	6	47	562	19.0	-160561.0	-15035.0	42490.0
9	18	6	47	563	20.0	-160525.0	-15071.0	18030.0
9	18	6	47	564	21.0	-160352.0	-15111.0	-25711.0
9	18	6	47	564	22.0	-160349.0	-15126.0	-84133.0
9	18	6	47	565	23.0	-160266.0	-15083.0	-111426.0
9	18	6	47	565	24.0	-160181.0	-15067.0	-94266.0
9	18	6	47	566	25.0	-160242.0	-15057.0	-40816.0
9	18	6	47	567	26.0	-160234.0	-15077.0	12143.0
9	18	6	47	567	27.0	-160313.0	-15127.0	41858.0
9	18	6	47	568	28.0	-160376.0	-15152.0	46585.0
9	18	6	47	568	29.0	-160219.0	-15161.0	37928.0
9	18	6	47	569	30.0	-160338.0	-15197.0	13656.0
9	18	6	47	570	31.0	-160304.0	-15246.0	-28889.0
9	18	6	47	586	33.0	-160368.0	-15232.0	-108891.0
9	18	6	47	587	34.0	-160418.0	-15181.0	-87571.0
9	18	6	47	587	35.0	-160296.0	-15157.0	-31040.0
9	18	6	47	588	36.0	-160321.0	-15215.0	20814.0
9	18	6	47	588	37.0	-160429.0	-15279.0	46843.0
9	18	6	47	589	38.0	-160391.0	-15281.0	49961.0
9	18	6	47	609	39.0	-160356.0	-15274.0	40354.0
9	18	6	47	609	40.0	-160414.0	-15316.0	15295.0
9	18	6	47	610	41.0	-160416.0	-15389.0	-28693.0
9	18	6	47	611	42.0	-160494.0	-15369.0	-84127.0
9	18	6	47	611	43.0	-160681.0	-15355.0	-104332.0
9	18	6	47	612	44.0	-160738.0	-15315.0	-80032.0
9	18	6	47	612	45.0	-160773.0	-15317.0	-23397.0
9	18	6	47	613	46.0	-160743.0	-15348.0	27761.0
9	18	6	47	613	47.0	-160590.0	-15387.0	52461.0
9	18	6	47	614	48.0	-160581.0	-15421.0	55466.0
9	18	6	47	615	49.0	-160627.0	-15459.0	45976.0
9	18	6	47	615	50.0	-160623.0	-15469.0	20063.0
9	18	6	47	616	51.0	-160566.0	-15512.0	-25430.0
9	18	6	47	616	52.0	-160474.0	-15504.0	-81129.0
9	18	6	47	617	53.0	-160503.0	-15492.0	-98569.0
9	18	6	47	617	55.0	-160422.0	-15474.0	-14058.0
9	18	6	47	618	56.0	-160401.0	-15504.0	35190.0
9	18	6	47	618	57.0	-160276.0	-15503.0	57844.0
9	18	6	47	619	58.0	-160288.0	-15549.0	61587.0
9	18	6	47	620	59.0	-160353.0	-15612.0	51176.0
9	18	6	47	620	60.0	-160139.0	-15627.0	24187.0
9	18	6	47	621	61.0	-160206.0	-15594.0	-25071.0
9	18	6	47	651	62.0	-160204.0	-15619.0	-80880.0
9	18	6	47	652	63.0	-160196.0	-15629.0	-96860.0
9	18	6	47	653	64.0	-160111.0	-15582.0	-68474.0
9	18	6	47	653	65.0	-160222.0	-15574.0	-13056.0
9	18	6	47	654	66.0	-160295.0	-15591.0	34513.0
9	18	6	47	655	67.0	-160322.0	-15642.0	53601.0
9	18	6	47	655	68.0	-160185.0	-15654.0	54006.0
9	18	6	47	656	69.0	-160147.0	-15656.0	41111.0
9	18	6	47	656	70.0	-160118.0	-15682.0	12441.0
9	18	6	47	657	71.0	-160322.0	-15711.0	-39671.0
9	18	6	47	658	72.0	-160379.0	-15689.0	-94132.0
9	18	6	47	658	73.0	-160351.0	-15664.0	-108984.0
9	18	6	47	659	74.0	-160360.0	-15631.0	-76816.0
9	18	6	47	659	75.0	-160414.0	-15635.0	-18921.0
9	18	6	47	660	76.0	-160639.0	-15664.0	27763.0
9	18	6	47	660	78.0	-160628.0	-15712.0	46760.0
9	18	6	47	661	79.0	-160659.0	-15747.0	33529.0
9	18	6	47	662	80.0	-160661.0	-15757.0	4769.0
9	18	6	47	662	81.0	-160727.0	-15761.0	-47507.0
9	18	6	47	663	82.0	-160659.0	-15749.0	-98562.0
9	18	6	47	663	83.0	-160634.0	-15729.0	-109886.0
9	18	6	47	697	84.0	-160660.0	-15694.0	-73212.0
9	18	6	47	698	85.0	-160781.0	-15675.0	-15982.0
9	18	6	47	698	86.0	-160787.0	-15726.0	29073.0
9	18	6	47	699	87.0	-160838.0	-15766.0	47648.0
9	18	6	47	699	88.0	-160895.0	-15795.0	47599.0
9	18	6	47	700	89.0	-160891.0	-15821.0	31663.0
9	18	6	47	701	90.0	-160913.0	-15861.0	1180.0
9	18	6	47	701	91.0	-160892.0	-15888.0	-52598.0
9	18	6	47	702	92.0	-160807.0	-15858.0	-101299.0
9	18	6	47	702	93.0	-160914.0	-15818.0	-108814.0
9	18	6	47	703	94.0	-160936.0	-15798.0	-69640.0
9	18	6	47	703	95.0	-160782.0	-15827.0	-10074.0
9	18	6	47	704	96.0	-160741.0	-15859.0	34637.0
9	18	6	47	705	97.0	-160736.0	-15890.0	51408.0
9	18	6	47	705	98.0	-160765.0	-15926.0	50368.0
9	18	6	47	706	100.0	-160774.0	-16011.0	2161.0
9	18	6	47	706	101.0	-160766.0	-16048.0	-53061.0
9	18	6	47	707	102.0	-160777.0	-16002.0	-101668.0
9	18	6	47	707	103.0	-160629.0	-15965.0	-107450.0
9	18	6	47	708	104.0	-160600.0	-15971.0	-65801.0
9	18	6	47	709	105.0	-160567.0	-15990.0	-7172.0
9	18	6	47	709	106.0	-160587.0	-16004.0	34337.0
9	18	6	47	742	107.0	-160681.0	-16049.0	47454.0
9	18	6	47	743	108.0	-160802.0	-16072.0	44745.0
9	18	6	47	743	109.0	-160867.0	-16099.0	27809.0
9	18	6	47	744	110.0	-160777.0	-16139.0	-3318.0
9	18	6	47	745	111.0	-160677.0	-16174.0	-58766.0
9	18	6	47	746	112.0	-160619.0	-16141.0	-102023.0
9	18	6	47	746	113.0	-160672.0	-16091.0	-103062.0
9	18	6	47	747	114.0	-160569.0	-16068.0	-58707.0
9	18	6	47	747	115.0	-160726.0	-16085.0	-21.0
9	18	6	47	748	116.0	-160731.0	-16111.0	41697.0
9	18	6	47	749	117.0	-160686.0	-16125.0	54217.0
9	18	6	47	749	118.0	-160729.0	-16144.0	52304.0
9	18	6	47	750	119.0	-160721.0	-16154.0	34877.0
9	18	6	47	750	120.0	-160687.0	-16176.0	3468.0
9	18	6	47	751	121.0	-160544.0	-16177.0	-53308.0
9	18	6	47	751	123.0	-160471.0	-16067.0	-95047.0
9	18	6	47	752	124.0	-160389.0	-16004.0	-51451.0
9	18	6	47	753	125.0	-160332.0	-16036.0	4814.0
9	18	6	47	753	126.0	-160301.0	-16043.0	44818.0
9	18	6	47	754	127.0	-160256.0	-16006.0	56921.0
9	18	6	47	754	128.0	-160376.0	-16001.0	53184.0
9	18	6	47	786	129.0	-160409.0	-16038.0	34028.0
9	18	6	47	787	130.0	-160226.0	-16023.0	-1797.0
9	18	6	47	787	131.0	-160361.0	-16019.0	-60604.0
9	18	6	47	788	132.0	-160419.0	-15965.0	-100449.0
9	18	6	47	789	133.0	-160487.0	-15889.0	-96724.0
9	18	6	47	789	134.0	-160632.0	-15815.0	-50029.0
9	18	6	47	790	135.0	-160687.0	-15774.0	8148.0
9	18	6	47	790	136.0	-160597.0	-15767.0	48964.0
9	18	6	47	791	137.0	-160687.0	-15774.0	60274.0
9	18	6	47	792	138.0	-160649.0	-15767.0	55969.0
9	18	6	47	792	139.0	-160603.0	-15727.0	36024.0
9	18	6	47	793	140.0	-160687.0	-15716.0	1340.0
9	18	6	47	793	141.0	-160686.0	-15711.0	-53488.0
9	18	6	47	794	142.0	-160642.0	-15637.0	-91766.0
9	18	6	47	794	143.0	-160585.0	-15541.0	-87201.0
9	18	6	47	795	145.0	-160371.0	-15411.0	21054.0
9	18	6	47	796	146.0	-160384.0	-15394.0	58280.0
9	18	6	47	797	147.0	-160437.0	-15373.0	67239.0
9	18	6	47	798	148.0	-160498.0	-15377.0	62272.0
9	18	6	47	798	149.0	-160587.0	-15327.0	40694.0
9	18	6	47	799	150.0	-160554.0	-15274.0	3191.0
9	18	6	47	848	151.0	-160576.0	-15261.0	-57380.0
9	18	6	47	868	152.0	-160586.0	-15174.0	-95124.0
9	18	6	47	869	153.0	-160548.0	-15075.0	-86092.0
9	18	6	47	870	154.0	-160574.0	-15028.0	-33624.0
9	18	6	47	870	155.0	-160644.0	-14993.0	23338.0
9	18	6	47	871	156.0	-160763.0	-14976.0	57850.0
9	18	6	47	871	157.0	-160784.0	-14938.0	65162.0
9	18	6	47	872	158.0	-160802.0	-14892.0	57896.0
9	18	6	47	873	159.0	-160836.0	-14876.0	34644.0
9	18	6	47	873	160.0	-160785.0	-14856.0	-5172.0
9	18	6	47	874	161.0	-160595.0	-14806.0	-65602.0
9	18	6	47	874	162.0	-160669.0	-14732.0	-99267.0
9	18	6	47	875	163.0	-160803.0	-14620.0	-87328.0
9	18	6	47	893	164.0	-160768.0	-14526.0	-33757.0
9	18	6	47	894	165.0	-160613.0	-14489.0	21884.0
9	18	6	47	894	175.0	-160530.0	-14067.0	20949.0
9	18	6	47	895	183.0	-160332.0	-13719.0	-84268.0
9	18	6	47	895	184.0	-160292.0	-13647.0	-27437.0
9	18	6	47	896	185.0	-160394.0	-13646.0	26747.0
9	18	6	47	896	186.0	-160432.0	-13646.0	55780.0
9	18	6	47	897	187.0	-160469.0	-13602.0	60651.0
9	18	6	47	898	188.0	-160462.0	-13581.0	52468.0
9	18	6	47	898	189.0	-160525.0	-13587.0	28473.0
9	18	6	47	899	190.0	-160552.0	-13584.0	-15194.0
9	18	6	47	899	191.0	-160470.0	-13530.0	-74660.0
9	18	6	47	900	192.0	-160425.0	-13430.0	-99599.0
9	18	6	47	900	193.0	-160502.0	-13324.0	-79785.0
9	18	6	47	901	194.0	-160561.0	-13289.0	-23980.0
9	18	6	47	901	195.0	-160465.0	-13284.0	28283.0
9	18	6	47	902	196.0	-160412.0	-13272.0	54719.0
9	18	6	47	903	197.0	-160455.0	-13264.0	59376.0
9	18	6	47	918	198.0	-160397.0	-13207.0	51681.0
9	18	6	47	918	199.0	-160389.0	-13208.0	24713.0
9	18	6	47	919	200.0	-160385.0	-13219.0	-23386.0
9	18	6	47	920	201.0	-160397.0	-13161.0	-82234.0
9	18	6	47	920	202.0	-160512.0	-13082.0	-104681.0
9	18	6	47	921	203.0	-160550.0	-13012.0	-80342.0
9	18	6	47	921	204.0	-160498.0	-12971.0	-21357.0
9	18	6	47	922	205.0	-160526.0	-12944.0	32407.0
9	18	6	47	923	206.0	-160648.0	-12955.0	58926.0
9	18	6	47	923	207.0	-160742.0	-12936.0	63934.0
9	18	6	47	924	208.0	-160669.0	-12886.0	54633.0
9	18	6	47	924	209.0	-160608.0	-12897.0	28589.0
9	18	6	47	925	210.0	-160504.0	-12905.0	-18396.0
9	18	6	47	926	211.0	-160534.0	-12856.0	-75254.0
9	18	6	47	926	212.0	-160579.0	-12794.0	-96135.0
9	18	6	47	927	213.0	-160607.0	-12737.0	-70279.0
9	18	6	47	940	214.0	-160631.0	-12670.0	-11396.0
9	18	6	47	941	215.0	-160573.0	-12631.0	40208.0
9	18	6	47	942	216.0	-160608.0	-12635.0	64633.0
9	18	6	47	942	217.0	-160631.0	-12663.0	66880.0
9	18	6	47	943	218.0	-160577.0	-12679.0	53787.0
9	18	6	47	943	219.0	-160651.0	-12657.0	26961.0
9	18	6	47	944	220.0	-160637.0	-12657.0	-22177.0
9	18	6	47	965	221.0	-160603.0	-12612.0	-79319.0
9	18	6	47	966	222.0	-160564.0	-12523.0	-97051.0
9	18	6	47	966	223.0	-160582.0	-12490.0	-66909.0
9	18	6	47	967	224.0	-160620.0	-12455.0	-9312.0
9	18	6	47	968	225.0	-160700.0	-12459.0	38949.0
9	18	6	47	968	226.0	-160619.0	-12467.0	61059.0
9	18	6	47	969	227.0	-160556.0	-12453.0	62383.0
9	18	6	47	970	228.0	-160445.0	-12429.0	47788.0
9	18	6	47	970	229.0	-160385.0	-12411.0	18167.0
9	18	6	47	971	230.0	-160420.0	-12466.0	-32248.0
9	18	6	47	971	231.0	-160454.0	-12416.0	-86926.0
9	18	6	47	972	232.0	-160494.0	-12346.0	-102494.0
9	18	6	47	972	233.0	-160559.0	-12282.0	-69841.0
9	18	6	47	973	234.0	-160629.0	-12278.0	-8809.0
9	18	6	47	974	235.0	-160624.0	-12257.0	41781.0
9	18	6	47	974	236.0	-160585.0	-12222.0	62509.0
9	18	6	47	988	237.0	-160536.0	-12236.0	63001.0
9	18	6	47	988	238.0	-160453.0	-12256.0	49011.0
9	18	6	47	989	239.0	-160446.0	-12241.0	18929.0
9	18	6	47	990	240.0	-160447.0	-12249.0	-33036.0
9	18	6	47	990	241.0	-160471.0	-12185.0	-87227.0
9	18	6	47	991	242.0	-160484.0	-12121.0	-101049.0
9	18	6	47	991	243.0	-160611.0	-12040.0	-66304.0
9	18	6	48	12	244.0	-160592.0	-11982.0	-5646.0
9	18	6	48	13	245.0	-160466.0	-12027.0	42920.0
9	18	6	48	14	246.0	-160555.0	-12044.0	62574.0
9	18	6	48	14	247.0	-160538.0	-12012.0	63609.0
9	18	6	48	15	248.0	-160412.0	-11996.0	49908.0
9	18	6	48	15	249.0	-160576.0	-11983.0	20659.0
9	18	6	48	16	250.0	-160622.0	-11991.0	-32254.0
9	18	6	48	17	251.0	-160577.0	-11949.0	-83267.0
9	18	6	48	17	252.0	-160576.0	-11879.0	-92824.0
9	18	6	48	18	253.0	-160564.0	-11781.0	-55820.0
9	18	6	48	18	254.0	-160459.0	-11734.0	4843.0
9	18	6	48	19	255.0	-160477.0	-11729.0	52061.0
9	18	6	48	19	0.0	-160467.0	-11754.0	68040.0
9	18	6	48	20	1.0	-160410.0	-11746.0	65844.0
9	18	6	48	20	2.0	-160307.0	-11742.0	48894.0
9	18	6	48	42	3.0	-160233.0	-11722.0	16873.0
9	18	6	48	43	4.0	-160260.0	-11652.0	-38854.0
9	18	6	48	43	5.0	-160491.0	-11630.0	-90058.0
9	18	6	48	44	6.0	-160541.0	-11560.0	-96632.0
9	18	6	48	45	7.0	-160439.0	-11491.0	-55349.0
9	18	6	48	45	8.0	-160374.0	-11467.0	5608.0
9	18	6	48	46	9.0	-160363.0	-11462.0	51729.0
9	18	6	48	46	10.0	-160344.0	-11468.0	68888.0
9	18	6	48	47	11.0	-160369.0	-11466.0	68192.0
9	18	6	48	47	12.0	-160437.0	-11417.0	50539.0
9	18	6	48	48	13.0	-160436.0	-11407.0	17120.0
9	18	6	48	49	14.0	-160267.0	-11391.0	-38975.0
9	18	6	48	49	15.0	-160205.0	-11321.0	-85559.0
9	18	6	48	50	16.0	-160268.0	-11243.0	-88835.0
9	18	6	48	50	17.0	-160525.0	-11179.0	-48099.0
9	18	6	48	66	18.0	-160538.0	-11152.0	10625.0
9	18	6	48	67	19.0	-160537.0	-11100.0	55008.0
9	18	6	48	67	20.0	-160579.0	-11104.0	71933.0
9	18	6	48	68	21.0	-160506.0	-11101.0	71090.0
9	18	6	48	68	22.0	-160421.0	-11099.0	52235.0
9	18	6	48	69	23.0	-160406.0	-11076.0	19261.0
9	18	6	48	69	24.0	-160356.0	-11060.0	-37266.0
9	18	6	48	70	25.0	-160225.0	-10973.0	-80933.0
9	18	6	48	88	26.0	-160229.0	-10908.0	-81100.0
9	18	6	48	89	27.0	-160377.0	-10858.0	-35906.0
9	18	6	48	90	28.0	-160372.0	-10817.0	22936.0
9	18	6	48	90	29.0	-160463.0	-10797.0	63534.0
9	18	6	48	91	30.0	-160491.0	-10810.0	74973.0
9	18	6	48	91	31.0	-160486.0	-10797.0	72028.0
9	18	6	48	92	32.0	-160474.0	-10773.0	53211.0
9	18	6	48	93	33.0	-160426.0	-10756.0	19404.0
9	18	6	48	93	34.0	-160502.0	-10737.0	-37667.0
9	18	6	48	94	35.0	-160589.0	-10699.0	-80086.0
9	18	6	48	94	36.0	-160684.0	-10631.0	-78011.0
9	18	6	48	95	37.0	-160653.0	-10574.0	-29026.0
9	18	6	48	95	38.0	-160604.0	-10529.0	30283.0
9	18	6	48	96	39.0	-160470.0	-10520.0	69758.0
9	18	6	48	96	40.0	-160356.0	-10496.0	80931.0
9	18	6	48	113	41.0	-160388.0	-10472.0	77444.0
9	18	6	48	114	42.0	-160416.0	-10462.0	57046.0
9	18	6	48	115	43.0	-160549.0	-10474.0	20082.0
9	18	6	48	115	44.0	-160694.0	-10467.0	-39855.0
9	18	6	48	116	45.0	-160749.0	-10419.0	-81179.0
9	18	6	48	116	46.0	-160644.0	-10351.0	-78555.0
9	18	6	48	117	47.0	-160470.0	-10312.0	-28241.0
9	18	6	48	140	48.0	-160532.0	-10293.0	30088.0
9	18	6	48	140	49.0	-160616.0	-10260.0	68220.0
9	18	6	48	141	50.0	-160456.0	-10247.0	77712.0
9	18	6	48	142	51.0	-160349.0	-10262.0	71349.0
9	18	6	48	142	52.0	-160419.0	-10293.0	48122.0
9	18	6	48	143	53.0	-160504.0	-10282.0	10572.0
9	18	6	48	143	54.0	-160566.0	-10252.0	-49521.0
9	18	6	48	144	55.0	-160701.0	-10192.0	-88271.0
9	18	6	48	145	56.0	-160655.0	-10124.0	-79909.0
9	18	6	48	145	57.0	-160599.0	-10077.0	-28854.0
9	18	6	48	146	58.0	-160539.0	-10079.0	27866.0
9	18	6	48	146	59.0	-160526.0	-10088.0	62748.0
9	18	6	48	147	60.0	-160619.0	-10086.0	69688.0
9	18	6	48	147	61.0	-160585.0	-10077.0	62711.0
9	18	6	48	148	62.0	-160568.0	-10065.0	40838.0
9	18	6	48	148	63.0	-160601.0	-10105.0	2114.0
9	18	6	48	149	64.0	-160598.0	-10084.0	-57979.0
9	18	6	48	150	65.0	-160581.0	-9996.0	-93821.0
9	18	6	48	150	66.0	-160690.0	-9956.0	-84886.0
9	18	6	48	163	67.0	-160777.0	-9939.0	-31043.0
9	18	6	48	163	68.0	-160760.0	-9941.0	26196.0
9	18	6	48	164	69.0	-160705.0	-9934.0	60136.0
9	18	6	48	165	70.0	-160660.0	-9935.0	69445.0
9	18	6	48	165	71.0	-160564.0	-9952.0	64998.0
9	18	6	48	166	72.0	-160472.0	-9953.0	42448.0
9	18	6	48	166	73.0	-160499.0	-9963.0	689.0
9	18	6	48	167	74.0	-160509.0	-9948.0	-61743.0
9	18	6	48	168	75.0	-160499.0	-9901.0	-94787.0
9	18	6	48	168	76.0	-160502.0	-9842.0	-81202.0
9	18	6	48	169	77.0	-160549.0	-9796.0	-25752.0
9	18	6	48	169	78.0	-160691.0	-9827.0	32406.0
9	18	6	48	170	79.0	-160589.0	-9858.0	65247.0
9	18	6	48	187	80.0	-160534.0	-9839.0	70159.0
9	18	6	48	188	81.0	-160629.0	-9824.0	61281.0
9	18	6	48	188	82.0	-160619.0	-9852.0	37443.0
9	18	6	48	189	83.0	-160566.0	-9888.0	-4946.0
9	18	6	48	189	84.0	-160557.0	-9879.0	-66459.0
9	18	6	48	210	85.0	-160466.0	-9847.0	-96126.0
9	18	6	48	211	86.0	-160449.0	-9786.0	-78936.0
9	18	6	48	211	87.0	-160537.0	-9745.0	-21992.0
9	18	6	48	212	88.0	-160506.0	-9750.0	35542.0
9	18	6	48	213	89.0	-160469.0	-9782.0	68380.0
9	18	6	48	213	90.0	-160502.0	-9789.0	74579.0
9	18	6	48	214	91.0	-160509.0	-9806.0	65202.0
9	18	6	48	214	92.0	-160488.0	-9807.0	40448.0
9	18	6	48	215	93.0	-160543.0	-9856.0	-2781.0
9	18	6	48	215	94.0	-160554.0	-9842.0	-62443.0
9	18	6	48	216	95.0	-160638.0	-9800.0	-90898.0
9	18	6	48	216	96.0	-160647.0	-9744.0	-72291.0
9	18	6	48	217	97.0	-160616.0	-9728.0	-14417.0
9	18	6	48	218	98.0	-160504.0	-9744.0	39718.0
9	18	6	48	218	99.0	-160448.0	-9771.0	66850.0
9	18	6	48	219	100.0	-160383.0	-9817.0	70375.0
9	18	6	48	237	101.0	-160484.0	-9809.0	61019.0
9	18	6	48	238	102.0	-160585.0	-9774.0	33856.0
9	18	6	48	239	103.0	-160550.0	-9831.0	-12008.0
9	18	6	48	239	104.0	-160477.0	-9836.0	-70619.0
9	18	6	48	240	105.0	-160407.0	-9799.0	-95359.0
9	18	6	48	240	106.0	-160494.0	-9766.0	-72914.0
9	18	6	48	241	107.0	-160591.0	-9731.0	-14340.0
9	18	6	48	242	108.0	-160526.0	-9755.0	40218.0
9	18	6	48	242	109.0	-160689.0	-9802.0	68079.0
9	18	6	48	243	110.0	-160781.0	-9811.0	71764.0
9	18	6	48	243	111.0	-160764.0	-9841.0	60572.0
9	18	6	48	244	112.0	-160788.0	-9848.0	33729.0
9	18	6	48	244	113.0	-160655.0	-9899.0	-12926.0
9	18	6	48	245	114.0	-160613.0	-9901.0	-73782.0
9	18	6	48	246	115.0	-160587.0	-9860.0	-97509.0
9	18	6	48	261	116.0	-160602.0	-9811.0	-73099.0
9	18	6	48	261	117.0	-160665.0	-9812.0	-13925.0
9	18	6	48	262	118.0	-160580.0	-9846.0	39454.0
9	18	6	48	263	119.0	-160528.0	-9899.0	65874.0
9	18	6	48	263	120.0	-160485.0	-9917.0	69393.0
9	18	6	48	264	121.0	-160252.0	-9939.0	58369.0
9	18	6	48	286	122.0	-160298.0	-9954.0	30371.0
9	18	6	48	287	123.0	-160331.0	-10008.0	-18804.0
9	18	6	48	294	124.0	-160394.0	-10002.0	-76284.0
9	18	6	48	297	125.0	-160389.0	-9961.0	-93610.0
9	18	6	48	297	126.0	-160442.0	-9932.0	-63773.0
9	18	6	48	298	127.0	-160504.0	-9929.0	-3332.0
9	18	6	48	298	128.0	-160413.0	-9964.0	48929.0
9	18	6	48	299	129.0	-160456.0	-10013.0	74196.0
9	18	6	48	299	130.0	-160524.0	-10026.0	76902.0
9	18	6	48	300	131.0	-160624.0	-10059.0	64463.0
9	18	6	48	301	132.0	-160531.0	-10097.0	35604.0
9	18	6	48	301	133.0	-160284.0	-10115.0	-14154.0
9	18	6	48	302	134.0	-160339.0	-10083.0	-68463.0
9	18	6	48	302	135.0	-160404.0	-10062.0	-83212.0
9	18	6	48	303	136.0	-160433.0	-10016.0	-51354.0
9	18	6	48	303	137.0	-160547.0	-9982.0	8967.0
9	18	6	48	304	138.0	-160586.0	-9994.0	58436.0
9	18	6	48	305	139.0	-160627.0	-10033.0	79179.0
9	18	6	48	305	140.0	-160527.0	-10078.0	80494.0
9	18	6	48	306	141.0	-160595.0	-10117.0	67124.0
9	18	6	48	306	142.0	-160533.0	-10134.0	39937.0
9	18	6	48	307	143.0	-160567.0	-10156.0	-10039.0
9	18	6	48	307	144.0	-160527.0	-10156.0	-64204.0
9	18	6	48	308	145.0	-160486.0	-10129.0	-77729.0
9	18	6	48	316	146.0	-160517.0	-10057.0	-43595.0
9	18	6	48	317	147.0	-160478.0	-10036.0	16287.0
9	18	6	48	317	148.0	-160602.0	-10081.0	63786.0
9	18	6	48	318	149.0	-160678.0	-10125.0	85010.0
9	18	6	48	319	150.0	-160665.0	-10136.0	85531.0
9	18	6	48	319	151.0	-160614.0	-10136.0	70446.0
9	18	6	48	320	152.0	-160469.0	-10147.0	40038.0
9	18	6	48	340	153.0	-160577.0	-10151.0	-13931.0
9	18	6	48	341	154.0	-160656.0	-10109.0	-66712.0
9	18	6	48	341	155.0	-160573.0	-10107.0	-78682.0
9	18	6	48	342	156.0	-160518.0	-10073.0	-44313.0
9	18	6	48	343	157.0	-160476.0	-10058.0	15079.0
9	18	6	48	343	158.0	-160402.0	-10067.0	62925.0
9	18	6	48	344	159.0	-160457.0	-10102.0	81866.0
9	18	6	48	344	160.0	-160470.0	-10080.0	82051.0
9	18	6	48	345	161.0	-160535.0	-10081.0	66186.0
9	18	6	48	345	162.0	-160537.0	-10125.0	33747.0
9	18	6	48	346	163.0	-160426.0	-10144.0	-21450.0
9	18	6	48	346	164.0	-160346.0	-10103.0	-73994.0
9	18	6	48	347	165.0	-160389.0	-10070.0	-83826.0
9	18	6	48	347	166.0	-160470.0	-10014.0	-44464.0
9	18	6	48	348	167.0	-160508.0	-10007.0	16473.0
9	18	6	48	363	168.0	-160378.0	-10002.0	61516.0
9	18	6	48	364	169.0	-160492.0	-10043.0	77707.0
9	18	6	48	364	170.0	-160561.0	-10072.0	78538.0
9	18	6	48	365	171.0	-160471.0	-10086.0	61624.0
9	18	6	48	365	172.0	-160502.0	-10095.0	28134.0
9	18	6	48	366	173.0	-160467.0	-10112.0	-27934.0
9	18	6	48	366	174.0	-160491.0	-10062.0	-78738.0
9	18	6	48	367	175.0	-160536.0	-10006.0	-87221.0
9	18	6	48	386	176.0	-160536.0	-9994.0	-46114.0
9	18	6	48	387	177.0	-160530.0	-9983.0	12939.0
9	18	6	48	387	178.0	-160426.0	-9985.0	57694.0
9	18	6	48	388	179.0	-160367.0	-10002.0	73281.0
9	18	6	48	388	180.0	-160355.0	-10044.0	70600.0
9	18	6	48	389	181.0	-160430.0	-10045.0	51239.0
9	18	6	48	390	182.0	-160475.0	-10037.0	17449.0
9	18	6	48	390	183.0	-160396.0	-10034.0	-41524.0
9	18	6	48	391	184.0	-160337.0	-10041.0	-89384.0
9	18	6	48	391	185.0	-160192.0	-10013.0	-92761.0
9	18	6	48	392	186.0	-160178.0	-9975.0	-47941.0
9	18	6	48	392	187.0	-160318.0	-9974.0	13944.0
9	18	6	48	393	188.0	-160413.0	-9999.0	57061.0
9	18	6	48	393	189.0	-160457.0	-10033.0	69103.0
9	18	6	48	409	190.0	-160484.0	-10021.0	64323.0
9	18	6	48	410	191.0	-160476.0	-10041.0	44660.0
9	18	6	48	410	192.0	-160407.0	-10087.0	9422.0
9	18	6	48	411	193.0	-160351.0	-10104.0	-50319.0
9	18	6	48	412	194.0	-160356.0	-10070.0	-93916.0
9	18	6	48	412	195.0	-160440.0	-10031.0	-90554.0
9	18	6	48	413	196.0	-160533.0	-9993.0	-43586.0
9	18	6	48	413	197.0	-160550.0	-9989.0	16269.0
9	18	6	48	435	198.0	-160572.0	-9976.0	57314.0
9	18	6	48	435	199.0	-160591.0	-10043.0	70409.0
9	18	6	48	436	200.0	-160592.0	-10058.0	68701.0
9	18	6	48	437	201.0	-160519.0	-10102.0	49138.0
9	18	6	48	437	202.0	-160474.0	-10126.0	12344.0
9	18	6	48	438	203.0	-160505.0	-10142.0	-46707.0
9	18	6	48	438	204.0	-160502.0	-10116.0	-88419.0
9	18	6	48	439	205.0	-160540.0	-10092.0	-84466.0
9	18	6	48	439	206.0	-160621.0	-10034.0	-34029.0
9	18	6	48	440	207.0	-160623.0	-10039.0	26066.0
9	18	6	48	440	208.0	-160668.0	-10101.0	66685.0
9	18	6	48	441	209.0	-160740.0	-10111.0	78001.0
9	18	6	48	442	210.0	-160701.0	-10147.0	74866.0
9	18	6	48	442	211.0	-160644.0	-10154.0	52596.0
9	18	6	48	443	212.0	-160514.0	-10192.0	13374.0
9	18	6	48	458	213.0	-160418.0	-10182.0	-45400.0
9	18	6	48	459	214.0	-160614.0	-10120.0	-83409.0
9	18	6	48	460	215.0	-160531.0	-10100.0	-76298.0
9	18	6	48	460	216.0	-160637.0	-10097.0	-25037.0
9	18	6	48	461	217.0	-160581.0	-10101.0	33724.0
9	18	6	48	461	218.0	-160497.0	-10110.0	71659.0
9	18	6	48	462	219.0	-160516.0	-10134.0	83376.0
9	18	6	48	463	220.0	-160633.0	-10122.0	78851.0
9	18	6	48	464	221.0	-160586.0	-10154.0	56444.0
9	18	6	48	464	222.0	-160471.0	-10213.0	18261.0
9	18	6	48	465	223.0	-160540.0	-10214.0	-41765.0
9	18	6	48	465	224.0	-160436.0	-10173.0	-76502.0
9	18	6	48	466	225.0	-160367.0	-10135.0	-66462.0
9	18	6	48	466	226.0	-160373.0	-10099.0	-12932.0
9	18	6	48	467	227.0	-160335.0	-10124.0	45910.0
9	18	6	48	485	228.0	-160163.0	-10138.0	81489.0
9	18	6	48	486	229.0	-160244.0	-10136.0	90054.0
9	18	6	48	486	230.0	-160435.0	-10167.0	83773.0
9	18	6	48	487	231.0	-160463.0	-10205.0	60559.0
9	18	6	48	487	232.0	-160410.0	-10224.0	21071.0
9	18	6	48	488	233.0	-160482.0	-10235.0	-39276.0
9	18	6	48	488	234.0	-160477.0	-10185.0	-73731.0
9	18	6	48	508	235.0	-160569.0	-10106.0	-62237.0
9	18	6	48	508	236.0	-160572.0	-10120.0	-7857.0
9	18	6	48	509	237.0	-160612.0	-10133.0	49227.0
9	18	6	48	510	238.0	-160561.0	-10166.0	82828.0
9	18	6	48	510	239.0	-160544.0	-10197.0	90491.0
9	18	6	48	511	240.0	-160499.0	-10215.0	81509.0
9	18	6	48	511	241.0	-160516.0	-10219.0	55855.0
9	18	6	48	512	242.0	-160562.0	-10213.0	13554.0
9	18	6	48	512	243.0	-160589.0	-10257.0	-48497.0
9	18	6	48	533	244.0	-160658.0	-10236.0	-79752.0
9	18	6	48	534	245.0	-160741.0	-10181.0	-64256.0
9	18	6	48	534	246.0	-160712.0	-10156.0	-9601.0
9	18	6	48	535	247.0	-160695.0	-10184.0	47533.0
9	18	6	48	535	248.0	-160684.0	-10228.0	81213.0
9	18	6	48	536	249.0	-160651.0	-10222.0	86069.0
9	18	6	48	537	250.0	-160732.0	-10229.0	77084.0
9	18	6	48	537	251.0	-160719.0	-10276.0	50759.0
9	18	6	48	538	252.0	-160669.0	-10294.0	6307.0
9	18	6	48	538	253.0	-160625.0	-10305.0	-53314.0
9	18	6	48	539	254.0	-160652.0	-10246.0	-81717.0
9	18	6	48	539	255.0	-160699.0	-10198.0	-63307.0
9	18	6	48	540	0.0	-160521.0	-10192.0	-5072.0
9	18	6	48	540	1.0	-160333.0	-10199.0	49666.0
9	18	6	48	541	2.0	-160265.0	-10220.0	78426.0
9	18	6	48	541	3.0	-160361.0	-10217.0	85078.0
9	18	6	48	542	4.0	-160431.0	-10260.0	77463.0
9	18	6	48	543	5.0	-160502.0	-10301.0	51943.0
9	18	6	48	543	6.0	-160479.0	-10307.0	6384.0
9	18	6	48	544	7.0	-160404.0	-10328.0	-53285.0
9	18	6	48	556	8.0	-160369.0	-10271.0	-78959.0
9	18	6	48	583	9.0	-160390.0	-10221.0	-57025.0
9	18	6	48	584	10.0	-160267.0	-10232.0	2501.0
9	18	6	48	584	11.0	-160248.0	-10240.0	55838.0
9	18	6	48	585	12.0	-160351.0	-10271.0	83161.0
9	18	6	48	585	13.0	-160230.0	-10297.0	88779.0
9	18	6	48	586	14.0	-160249.0	-10321.0	81127.0
9	18	6	48	587	15.0	-160409.0	-10333.0	55450.0
9	18	6	48	587	16.0	-160466.0	-10362.0	9349.0
9	18	6	48	588	17.0	-160420.0	-10336.0	-50261.0
9	18	6	48	588	18.0	-160449.0	-10307.0	-74257.0
9	18	6	48	589	19.0	-160517.0	-10278.0	-50106.0
9	18	6	48	589	20.0	-160569.0	-10262.0	9583.0
9	18	6	48	590	21.0	-160572.0	-10254.0	63098.0
9	18	6	48	590	22.0	-160634.0	-10284.0	90541.0
9	18	6	48	591	23.0	-160614.0	-10306.0	94452.0
9	18	6	48	591	24.0	-160522.0	-10309.0	82509.0
9	18	6	48	592	25.0	-160438.0	-10291.0	54234.0
9	18	6	48	593	26.0	-160379.0	-10324.0	5823.0
9	18	6	48	593	27.0	-160329.0	-10344.0	-53616.0
9	18	6	48	594	28.0	-160325.0	-10299.0	-75082.0
9	18	6	48	594	29.0	-160418.0	-10207.0	-47737.0
9	18	6	48	606	30.0	-160501.0	-10179.0	10959.0
9	18	6	48	607	31.0	-160452.0	-10202.0	62508.0
9	18	6	48	608	32.0	-160403.0	-10215.0	86991.0
9	18	6	48	608	33.0	-160371.0	-10230.0	89782.0
9	18	6	48	609	34.0	-160534.0	-10216.0	77273.0
9	18	6	48	609	35.0	-160562.0	-10211.0	47181.0
9	18	6	48	610	36.0	-160353.0	-10229.0	-3397.0
9	18	6	48	611	37.0	-160361.0	-10182.0	-61411.0
9	18	6	48	611	38.0	-160426.0	-10101.0	-79927.0
9	18	6	48	612	39.0	-160590.0	-10051.0	-49491.0
9	18	6	48	612	40.0	-160790.0	-10032.0	10229.0
9	18	6	48	613	41.0	-160964.0	-9993.0	61924.0
9	18	6	48	614	42.0	-160982.0	-9997.0	86332.0
9	18	6	48	614	43.0	-160879.0	-9986.0	88670.0
9	18	6	48	615	44.0	-160872.0	-9971.0	75422.0
9	18	6	48	615	45.0	-160766.0	-9951.0	47361.0
9	18	6	48	634	46.0	-160727.0	-9950.0	-2954.0
9	18	6	48	635	47.0	-160682.0	-9869.0	-58642.0
9	18	6	48	635	48.0	-160674.0	-9761.0	-73569.0
9	18	6	48	636	49.0	-160798.0	-9692.0	-40642.0
9	18	6	48	636	50.0	-160806.0	-9632.0	18869.0
9	18	6	48	637	51.0	-160677.0	-9606.0	68694.0
9	18	6	48	638	52.0	-160418.0	-9592.0	91575.0
9	18	6	48	638	53.0	-160274.0	-9539.0	93144.0
9	18	6	48	639	54.0	-160296.0	-9498.0	78624.0
9	18	6	48	657	55.0	-160325.0	-9448.0	48833.0
9	18	6	48	658	56.0	-160513.0	-9388.0	-2686.0
9	18	6	48	658	57.0	-160577.0	-9320.0	-54705.0
9	18	6	48	659	58.0	-160709.0	-9224.0	-68506.0
9	18	6	48	660	59.0	-160774.0	-9114.0	-34568.0
9	18	6	48	660	60.0	-160802.0	-9061.0	26447.0
9	18	6	48	661	61.0	-160773.0	-8986.0	73908.0
9	18	6	48	661	62.0	-160787.0	-8921.0	93216.0
9	18	6	48	662	63.0	-160780.0	-8901.0	92866.0
9	18	6	48	662	64.0	-160665.0	-8854.0	77051.0
9	18	6	48	663	65.0	-160619.0	-8796.0	46523.0
9	18	6	48	664	66.0	-160621.0	-8754.0	-7029.0
9	18	6	48	664	67.0	-160691.0	-8679.0	-59747.0
9	18	6	48	665	68.0	-160604.0	-8531.0	-68336.0
9	18	6	48	665	69.0	-160478.0	-8417.0	-30476.0
9	18	6	48	682	70.0	-160426.0	-8359.0	29620.0
9	18	6	48	682	71.0	-160554.0	-8282.0	75970.0
9	18	6	48	683	72.0	-160325.0	-8273.0	92458.0
9	18	6	48	683	73.0	-160585.0	-8226.0	91699.0
9	18	6	48	684	74.0	-160511.0	-8177.0	74856.0
9	18	6	48	685	75.0	-160359.0	-8129.0	41625.0
9	18	6	48	705	76.0	-160416.0	-8054.0	-12408.0
9	18	6	48	705	77.0	-160471.0	-7933.0	-63614.0
9	18	6	48	706	78.0	-160802.0	-7860.0	-71622.0
9	18	6	48	706	79.0	-160766.0	-7766.0	-30962.0
9	18	6	48	707	80.0	-160632.0	-7694.0	27924.0
9	18	6	48	708	81.0	-160787.0	-7652.0	71345.0
9	18	6	48	708	82.0	-160572.0	-7627.0	86536.0
9	18	6	48	709	83.0	-160590.0	-7601.0	85828.0
9	18	6	48	709	84.0	-160662.0	-7521.0	71803.0
9	18	6	48	710	85.0	-160443.0	-7472.0	42193.0
9	18	6	48	710	86.0	-160583.0	-7469.0	-12714.0
9	18	6	48	711	87.0	-160582.0	-7394.0	-62026.0
9	18	6	48	711	88.0	-160390.0	-7304.0	-68922.0
9	18	6	48	712	89.0	-160566.0	-7211.0	-25481.0
9	18	6	48	713	90.0	-160445.0	-7152.0	37984.0
9	18	6	48	731	91.0	-160409.0	-7137.0	82706.0
9	18	6	48	732	92.0	-160696.0	-7112.0	96496.0
9	18	6	48	732	93.0	-160591.0	-7056.0	93667.0
9	18	6	48	733	94.0	-160469.0	-7029.0	75856.0
9	18	6	48	733	95.0	-160692.0	-7016.0	40723.0
9	18	6	48	734	96.0	-160656.0	-6976.0	-18190.0
9	18	6	48	734	97.0	-160621.0	-6897.0	-65444.0
9	18	6	48	735	98.0	-160747.0	-6821.0	-67840.0
9	18	6	48	736	99.0	-160607.0	-6706.0	-23311.0
9	18	6	48	736	100.0	-160633.0	-6648.0	36875.0
9	18	6	48	737	101.0	-160711.0	-6664.0	79270.0
9	18	6	48	737	102.0	-160678.0	-6681.0	92137.0
9	18	6	48	738	103.0	-160659.0	-6658.0	88753.0
9	18	6	48	738	104.0	-160729.0	-6634.0	68196.0
9	18	6	48	739	105.0	-160572.0	-6624.0	31958.0
9	18	6	48	753	106.0	-160477.0	-6606.0	-27063.0
9	18	6	48	754	107.0	-160495.0	-6472.0	-70180.0
9	18	6	48	755	108.0	-160382.0	-6416.0	-68101.0
9	18	6	48	755	109.0	-160259.0	-6371.0	-18454.0
9	18	6	48	756	110.0	-160426.0	-6329.0	41916.0
9	18	6	48	756	111.0	-160452.0	-6326.0	82394.0
9	18	6	48	757	112.0	-160241.0	-6304.0	93188.0
9	18	6	48	757	113.0	-160398.0	-6292.0	89176.0
9	18	6	48	758	114.0	-160440.0	-6282.0	67480.0
9	18	6	48	782	115.0	-160250.0	-6251.0	29035.0
9	18	6	48	783	116.0	-160464.0	-6212.0	-30926.0
9	18	6	48	784	117.0	-160712.0	-6185.0	-71827.0
9	18	6	48	784	118.0	-160359.0	-6103.0	-66971.0
9	18	6	48	785	119.0	-160461.0	-6032.0	-16573.0
9	18	6	48	785	120.0	-160797.0	-5985.0	41686.0
9	18	6	48	786	121.0	-160509.0	-6009.0	79101.0
9	18	6	48	786	122.0	-160513.0	-5992.0	88736.0
9	18	6	48	787	123.0	-160692.0	-5965.0	83609.0
9	18	6	48	788	124.0	-160446.0	-5961.0	61444.0
9	18	6	48	788	125.0	-160267.0	-5934.0	21843.0
9	18	6	48	789	126.0	-160439.0	-5895.0	-38571.0
9	18	6	48	789	127.0	-160469.0	-5835.0	-76872.0
9	18	6	48	790	128.0	-160373.0	-5774.0	-70036.0
9	18	6	48	791	129.0	-160338.0	-5705.0	-18426.0
9	18	6	48	791	130.0	-160478.0	-5699.0	41080.0
9	18	6	48	792	131.0	-160555.0	-5718.0	79439.0
9	18	6	48	792	132.0	-160363.0	-5717.0	88494.0
9	18	6	48	793	133.0	-160201.0	-5699.0	82176.0
9	18	6	48	794	134.0	-160628.0	-5666.0	57398.0
9	18	6	48	794	135.0	-160312.0	-5668.0	18442.0
9	18	6	48	806	136.0	-160127.0	-5675.0	-41599.0
9	18	6	48	807	137.0	-160282.0	-5579.0	-77605.0
9	18	6	48	808	138.0	-160332.0	-5531.0	-64787.0
9	18	6	48	808	139.0	-160297.0	-5489.0	-8503.0
9	18	6	48	809	140.0	-160416.0	-5476.0	50533.0
9	18	6	48	810	141.0	-160560.0	-5484.0	85093.0
9	18	6	48	810	142.0	-160388.0	-5494.0	91551.0
9	18	6	48	811	143.0	-160373.0	-5514.0	82716.0
9	18	6	48	831	144.0	-160471.0	-5497.0	58629.0
9	18	6	48	832	145.0	-160594.0	-5454.0	17194.0
9	18	6	48	832	146.0	-160382.0	-5457.0	-47345.0
9	18	6	48	833	147.0	-160504.0	-5428.0	-80894.0
9	18	6	48	834	148.0	-160969.0	-5357.0	-66782.0
9	18	6	48	834	149.0	-160644.0	-5307.0	-10332.0
9	18	6	48	835	150.0	-160474.0	-5293.0	48634.0
9	18	6	48	835	151.0	-160593.0	-5324.0	82818.0
9	18	6	48	836	152.0	-160685.0	-5336.0	88804.0
9	18	6	48	837	153.0	-160483.0	-5314.0	81631.0
9	18	6	48	837	154.0	-160402.0	-5310.0	57153.0
9	18	6	48	838	155.0	-160585.0	-5325.0	13178.0
9	18	6	48	839	156.0	-160719.0	-5306.0	-49637.0
9	18	6	48	839	157.0	-160307.0	-5262.0	-80650.0
9	18	6	48	840	158.0	-160185.0	-5221.0	-64429.0
9	18	6	48	853	159.0	-160420.0	-5172.0	-8299.0
9	18	6	48	854	160.0	-160266.0	-5133.0	47164.0
9	18	6	48	854	161.0	-160032.0	-5162.0	78211.0
9	18	6	48	855	162.0	-160155.0	-5148.0	83878.0
9	18	6	48	856	163.0	-160352.0	-5151.0	74380.0
9	18	6	48	856	164.0	-160157.0	-5166.0	48046.0
9	18	6	48	857	165.0	-160256.0	-5182.0	5988.0
9	18	6	48	857	166.0	-160329.0	-5159.0	-51627.0
9	18	6	48	880	167.0	-160602.0	-5101.0	-76566.0
9	18	6	48	881	168.0	-160361.0	-5017.0	-58117.0
9	18	6	48	882	169.0	-160170.0	-4988.0	-4988.0
9	18	6	48	882	170.0	-160307.0	-4975.0	46400.0
9	18	6	48	883	171.0	-160736.0	-5002.0	73354.0
9	18	6	48	884	172.0	-160538.0	-5001.0	78807.0
9	18	6	48	884	173.0	-160638.0	-4971.0	71096.0
9	18	6	48	885	174.0	-160583.0	-4962.0	48108.0
9	18	6	48	885	175.0	-160629.0	-5016.0	8206.0
9	18	6	48	886	176.0	-160551.0	-4992.0	-47172.0
9	18	6	48	887	177.0	-160469.0	-4941.0	-72129.0
9	18	6	48	887	178.0	-160287.0	-4881.0	-52542.0
9	18	6	48	888	179.0	-160599.0	-4832.0	1463.0
9	18	6	48	888	180.0	-160562.0	-4842.0	51998.0
9	18	6	48	889	181.0	-160332.0	-4851.0	77436.0
9	18	6	48	903	182.0	-160537.0	-4799.0	82044.0
9	18	6	48	904	183.0	-160561.0	-4809.0	74211.0
9	18	6	48	904	184.0	-160487.0	-4841.0	50735.0
9	18	6	48	905	185.0	-160385.0	-4854.0	7702.0
9	18	6	48	905	186.0	-160513.0	-4799.0	-47599.0
9	18	6	48	906	187.0	-160484.0	-4758.0	-71034.0
9	18	6	48	907	188.0	-160524.0	-4701.0	-48558.0
9	18	6	48	931	189.0	-160361.0	-4631.0	4701.0
9	18	6	48	932	190.0	-160322.0	-4624.0	51629.0
9	18	6	48	933	191.0	-160391.0	-4684.0	74176.0
9	18	6	48	933	192.0	-160539.0	-4657.0	78232.0
9	18	6	48	934	193.0	-160431.0	-4674.0	68704.0
9	18	6	48	934	194.0	-160444.0	-4670.0	43287.0
9	18	6	48	935	195.0	-160217.0	-4676.0	-2108.0
9	18	6	48	935	196.0	-160426.0	-4661.0	-55115.0
9	18	6	48	936	197.0	-160538.0	-4593.0	-72076.0
9	18	6	48	937	198.0	-160256.0	-4519.0	-43967.0
9	18	6	48	937	199.0	-160226.0	-4502.0	11343.0
9	18	6	48	938	200.0	-160517.0	-4498.0	59026.0
9	18	6	48	938	201.0	-160712.0	-4496.0	81176.0
9	18	6	48	939	202.0	-160510.0	-4479.0	83415.0
9	18	6	48	939	203.0	-160440.0	-4466.0	70951.0
9	18	6	48	955	204.0	-160490.0	-4477.0	45031.0
9	18	6	48	955	205.0	-160525.0	-4509.0	-823.0
9	18	6	48	956	206.0	-160210.0	-4482.0	-54825.0
9	18	6	48	957	207.0	-160302.0	-4421.0	-73061.0
9	18	6	48	958	208.0	-160271.0	-4368.0	-46178.0
9	18	6	48	958	209.0	-160466.0	-4349.0	6893.0
9	18	6	48	959	210.0	-160461.0	-4335.0	53009.0
9	18	6	48	959	211.0	-160645.0	-4314.0	72846.0
9	18	6	48	960	212.0	-160391.0	-4321.0	74364.0
9	18	6	48	961	213.0	-160532.0	-4358.0	62279.0
9	18	6	48	961	214.0	-160831.0	-4354.0	36369.0
9	18	6	48	962	215.0	-160674.0	-4369.0	-10658.0
9	18	6	48	962	216.0	-160699.0	-4332.0	-63671.0
9	18	6	48	963	217.0	-160705.0	-4275.0	-80563.0
9	18	6	48	963	218.0	-160744.0	-4241.0	-49064.0
9	18	6	48	980	219.0	-160719.0	-4231.0	7307.0
9	18	6	48	981	220.0	-160769.0	-4217.0	52731.0
9	18	6	48	981	221.0	-160803.0	-4254.0	71962.0
9	18	6	48	982	222.0	-161016.0	-4256.0	74180.0
9	18	6	48	982	223.0	-160817.0	-4235.0	60453.0
9	18	6	48	983	224.0	-160922.0	-4261.0	30543.0
9	18	6	48	984	225.0	-160890.0	-4299.0	-20049.0
9	18	6	48	984	226.0	-160857.0	-4282.0	-70283.0
9	18	6	49	8	227.0	-160810.0	-4211.0	-81679.0
9	18	6	49	9	228.0	-160697.0	-4134.0	-47395.0
9	18	6	49	9	229.0	-160642.0	-4140.0	9373.0
9	18	6	49	10	230.0	-160605.0	-4165.0	54541.0
9	18	6	49	11	231.0	-160541.0	-4196.0	72790.0
9	18	6	49	11	232.0	-160431.0	-4186.0	73545.0
9	18	6	49	12	233.0	-160548.0	-4164.0	59350.0
9	18	6	49	12	234.0	-160487.0	-4206.0	30859.0
9	18	6	49	13	235.0	-160654.0	-4266.0	-19383.0
9	18	6	49	13	236.0	-160705.0	-4204.0	-67112.0
9	18	6	49	14	237.0	-160654.0	-4147.0	-76521.0
9	18	6	49	14	238.0	-160870.0	-4119.0	-40890.0
9	18	6	49	15	239.0	-160987.0	-4128.0	15479.0
9	18	6	49	15	240.0	-160716.0	-4141.0	57859.0
9	18	6	49	16	241.0	-160682.0	-4114.0	72785.0
9	18	6	49	17	242.0	-160675.0	-4122.0	73391.0
9	18	6	49	17	243.0	-160674.0	-4170.0	59278.0
9	18	6	49	18	244.0	-160645.0	-4215.0	30728.0
9	18	6	49	18	245.0	-160713.0	-4234.0	-18331.0
9	18	6	49	19	246.0	-160851.0	-4187.0	-63109.0
9	18	6	49	19	247.0	-160844.0	-4145.0	-70337.0
9	18	6	49	20	248.0	-160648.0	-4094.0	-31149.0
9	18	6	49	34	249.0	-160760.0	-4118.0	24242.0
9	18	6	49	34	250.0	-160761.0	-4166.0	64634.0
9	18	6	49	35	251.0	-160804.0	-4169.0	78345.0
9	18	6	49	36	252.0	-160710.0	-4165.0	77900.0
9	18	6	49	36	253.0	-160734.0	-4192.0	62193.0
9	18	6	49	37	254.0	-160587.0	-4229.0	32904.0
9	18	6	49	37	255.0	-160532.0	-4266.0	-18399.0
9	18	6	49	58	0.0	-160441.0	-4194.0	-61021.0
9	18	6	49	59	1.0	-160396.0	-4115.0	-62372.0
9	18	6	49	59	2.0	-160455.0	-4115.0	-21692.0
9	18	6	49	60	3.0	-160457.0	-4154.0	32965.0
9	18	6	49	61	4.0	-160463.0	-4179.0	72064.0
9	18	6	49	61	5.0	-160467.0	-4189.0	85254.0
9	18	6	49	62	6.0	-160581.0	-4179.0	83591.0
9	18	6	49	62	7.0	-160528.0	-4231.0	65919.0
9	18	6	49	63	8.0	-160354.0	-4261.0	34209.0
9	18	6	49	81	9.0	-160428.0	-4232.0	-20141.0
9	18	6	49	82	10.0	-160525.0	-4236.0	-63168.0
9	18	6	49	83	11.0	-160365.0	-4234.0	-63703.0
9	18	6	49	83	12.0	-160467.0	-4169.0	-20151.0
9	18	6	49	84	13.0	-160492.0	-4155.0	34463.0
9	18	6	49	84	14.0	-160583.0	-4176.0	71975.0
9	18	6	49	85	15.0	-160542.0	-4204.0	82166.0
9	18	6	49	86	16.0	-160596.0	-4261.0	78239.0
9	18	6	49	86	17.0	-160786.0	-4257.0	60857.0
9	18	6	49	87	18.0	-160596.0	-4277.0	27973.0
9	18	6	49	87	19.0	-160578.0	-4314.0	-28257.0
9	18	6	49	88	20.0	-160747.0	-4270.0	-68267.0
9	18	6	49	88	21.0	-160681.0	-4264.0	-65997.0
9	18	6	49	89	22.0	-160508.0	-4249.0	-20385.0
9	18	6	49	89	23.0	-160478.0	-4200.0	32858.0
9	18	6	49	90	24.0	-160675.0	-4217.0	67804.0
9	18	6	49	90	25.0	-160621.0	-4274.0	78289.0
9	18	6	49	105	26.0	-160314.0	-4316.0	74631.0
9	18	6	49	106	27.0	-160101.0	-4338.0	56009.0
9	18	6	49	128	28.0	-160527.0	-4357.0	23760.0
9	18	6	49	128	29.0	-160339.0	-4386.0	-30826.0
9	18	6	49	129	30.0	-160265.0	-4339.0	-69829.0
9	18	6	49	129	31.0	-160434.0	-4300.0	-64100.0
9	18	6	49	130	32.0	-160604.0	-4294.0	-15778.0
9	18	6	49	130	33.0	-160351.0	-4312.0	38713.0
9	18	6	49	131	34.0	-160372.0	-4326.0	73138.0
9	18	6	49	132	35.0	-160522.0	-4362.0	81323.0
9	18	6	49	132	36.0	-160565.0	-4414.0	75964.0
9	18	6	49	133	37.0	-160295.0	-4403.0	55433.0
9	18	6	49	133	38.0	-160188.0	-4407.0	20576.0
9	18	6	49	134	39.0	-160183.0	-4442.0	-34582.0
9	18	6	49	134	40.0	-160324.0	-4451.0	-70498.0
9	18	6	49	135	41.0	-160354.0	-4439.0	-63328.0
9	18	6	49	135	42.0	-160487.0	-4392.0	-14722.0
9	18	6	49	136	43.0	-160521.0	-4394.0	39093.0
9	18	6	49	137	44.0	-160605.0	-4410.0	71828.0
9	18	6	49	137	45.0	-160521.0	-4454.0	79291.0
9	18	6	49	138	46.0	-160484.0	-4502.0	74854.0
9	18	6	49	138	47.0	-160361.0	-4497.0	55279.0
9	18	6	49	139	48.0	-160552.0	-4545.0	20563.0
9	18	6	49	139	49.0	-160594.0	-4562.0	-34668.0
9	18	6	49	140	50.0	-160653.0	-4514.0	-66964.0
9	18	6	49	141	51.0	-160892.0	-4488.0	-55464.0
9	18	6	49	141	52.0	-161001.0	-4449.0	-3853.0
9	18	6	49	152	53.0	-160781.0	-4459.0	50071.0
9	18	6	49	153	54.0	-160745.0	-4525.0	81171.0
9	18	6	49	154	55.0	-160696.0	-4564.0	88018.0
9	18	6	49	154	56.0	-160662.0	-4579.0	83234.0
9	18	6	49	155	57.0	-160542.0	-4593.0	61782.0
9	18	6	49	155	58.0	-160502.0	-4622.0	23899.0
9	18	6	49	156	59.0	-160535.0	-4607.0	-33537.0
9	18	6	49	178	60.0	-160550.0	-4571.0	-63267.0
9	18	6	49	179	61.0	-160604.0	-4577.0	-49577.0
9	18	6	49	179	62.0	-160324.0	-4574.0	1569.0
9	18	6	49	180	63.0	-160619.0	-4569.0	54409.0
9	18	6	49	180	64.0	-160638.0	-4591.0	84418.0
9	18	6	49	181	65.0	-160742.0	-4610.0	90701.0
9	18	6	49	182	66.0	-160692.0	-4649.0	84438.0
9	18	6	49	182	67.0	-160372.0	-4690.0	63209.0
9	18	6	49	183	68.0	-160386.0	-4681.0	22982.0
9	18	6	49	183	69.0	-160550.0	-4680.0	-34634.0
9	18	6	49	184	70.0	-160697.0	-4690.0	-63732.0
9	18	6	49	185	71.0	-160477.0	-4661.0	-49151.0
9	18	6	49	185	72.0	-160362.0	-4670.0	3064.0
9	18	6	49	186	73.0	-160374.0	-4694.0	54685.0
9	18	6	49	186	74.0	-160423.0	-4695.0	82684.0
9	18	6	49	201	75.0	-160331.0	-4700.0	86444.0
9	18	6	49	202	76.0	-160221.0	-4757.0	78738.0
9	18	6	49	203	77.0	-160366.0	-4783.0	55276.0
9	18	6	49	203	78.0	-160493.0	-4815.0	13782.0
9	18	6	49	204	79.0	-160552.0	-4832.0	-42777.0
9	18	6	49	204	80.0	-160582.0	-4803.0	-68838.0
9	18	6	49	205	81.0	-160597.0	-4766.0	-51477.0
9	18	6	49	205	82.0	-160619.0	-4775.0	849.0
9	18	6	49	230	83.0	-160502.0	-4798.0	50426.0
9	18	6	49	230	84.0	-160438.0	-4822.0	77324.0
9	18	6	49	231	85.0	-160409.0	-4861.0	82459.0
9	18	6	49	232	86.0	-160598.0	-4881.0	73667.0
9	18	6	49	232	87.0	-160808.0	-4887.0	50461.0
9	18	6	49	233	88.0	-160774.0	-4928.0	11089.0
9	18	6	49	233	89.0	-160697.0	-4917.0	-45225.0
9	18	6	49	234	90.0	-160546.0	-4863.0	-70512.0
9	18	6	49	234	91.0	-160257.0	-4866.0	-48324.0
9	18	6	49	235	92.0	-160185.0	-4877.0	5429.0
9	18	6	49	235	93.0	-160457.0	-4895.0	54645.0
9	18	6	49	236	94.0	-160466.0	-4930.0	78918.0
9	18	6	49	237	95.0	-160506.0	-4971.0	82216.0
9	18	6	49	237	96.0	-160497.0	-5008.0	72498.0
9	18	6	49	238	97.0	-160481.0	-5022.0	48151.0
9	18	6	49	253	98.0	-160521.0	-5029.0	6287.0
9	18	6	49	254	99.0	-160520.0	-5060.0	-48108.0
9	18	6	49	254	100.0	-160425.0	-5060.0	-69428.0
9	18	6	49	255	101.0	-160352.0	-5045.0	-43312.0
9	18	6	49	256	102.0	-160361.0	-5036.0	12426.0
9	18	6	49	256	103.0	-160284.0	-5058.0	61025.0
9	18	6	49	257	104.0	-160271.0	-5102.0	84433.0
9	18	6	49	257	105.0	-160287.0	-5134.0	87588.0
9	18	6	49	258	106.0	-160312.0	-5171.0	77383.0
9	18	6	49	259	107.0	-160405.0	-5192.0	52266.0
9	18	6	49	259	108.0	-160387.0	-5234.0	7862.0
9	18	6	49	260	109.0	-160347.0	-5236.0	-44419.0
9	18	6	49	261	110.0	-160401.0	-5209.0	-62627.0
9	18	6	49	261	111.0	-160296.0	-5164.0	-36472.0
9	18	6	49	262	112.0	-160207.0	-5146.0	17350.0
9	18	6	49	279	113.0	-160231.0	-5220.0	61491.0
9	18	6	49	280	114.0	-160370.0	-5247.0	82694.0
9	18	6	49	280	115.0	-160446.0	-5264.0	85691.0
9	18	6	49	281	116.0	-160461.0	-5328.0	74057.0
9	18	6	49	282	117.0	-160458.0	-5371.0	47380.0
9	18	6	49	282	118.0	-160509.0	-5387.0	-358.0
9	18	6	49	283	119.0	-160551.0	-5372.0	-51089.0
9	18	6	49	303	120.0	-160518.0	-5302.0	-63787.0
9	18	6	49	303	121.0	-160488.0	-5302.0	-32943.0
9	18	6	49	304	122.0	-160524.0	-5312.0	20411.0
9	18	6	49	305	123.0	-160546.0	-5342.0	63918.0
9	18	6	49	305	124.0	-160514.0	-5401.0	82179.0
9	18	6	49	306	125.0	-160539.0	-5439.0	84270.0
9	18	6	49	306	126.0	-160483.0	-5439.0	71707.0
9	18	6	49	307	127.0	-160462.0	-5462.0	44808.0
9	18	6	49	307	128.0	-160577.0	-5541.0	-3750.0
9	18	6	49	308	129.0	-160556.0	-5517.0	-55097.0
9	18	6	49	308	130.0	-160426.0	-5486.0	-68773.0
9	18	6	49	309	131.0	-160654.0	-5459.0	-36714.0
9	18	6	49	310	132.0	-160883.0	-5471.0	19327.0
9	18	6	49	310	133.0	-160785.0	-5494.0	64185.0
9	18	6	49	311	134.0	-160672.0	-5537.0	82774.0
9	18	6	49	311	135.0	-160706.0	-5549.0	84171.0
9	18	6	49	327	136.0	-160817.0	-5547.0	70943.0
9	18	6	49	328	137.0	-160699.0	-5577.0	42685.0
9	18	6	49	328	138.0	-160598.0	-5641.0	-7637.0
9	18	6	49	329	139.0	-160626.0	-5648.0	-56642.0
9	18	6	49	329	140.0	-160664.0	-5622.0	-64896.0
9	18	6	49	330	141.0	-160539.0	-5625.0	-28689.0
9	18	6	49	350	142.0	-160546.0	-5627.0	26535.0
9	18	6	49	351	143.0	-160517.0	-5607.0	69021.0
9	18	6	49	351	144.0	-160459.0	-5662.0	85704.0
9	18	6	49	352	145.0	-160310.0	-5699.0	86369.0
9	18	6	49	352	146.0	-160341.0	-5704.0	71631.0
9	18	6	49	353	147.0	-160568.0	-5735.0	42941.0
9	18	6	49	354	148.0	-160501.0	-5785.0	-5554.0
9	18	6	49	354	149.0	-160423.0	-5764.0	-53047.0
9	18	6	49	355	150.0	-160389.0	-5709.0	-60847.0
9	18	6	49	355	151.0	-160474.0	-5701.0	-22544.0
9	18	6	49	356	152.0	-160538.0	-5746.0	33574.0
9	18	6	49	356	153.0	-160493.0	-5782.0	75576.0
9	18	6	49	357	154.0	-160662.0	-5823.0	91598.0
9	18	6	49	357	155.0	-160739.0	-5834.0	90925.0
9	18	6	49	358	156.0	-160686.0	-5836.0	74629.0
9	18	6	49	377	157.0	-160655.0	-5887.0	46123.0
9	18	6	49	378	158.0	-160746.0	-5929.0	-4679.0
9	18	6	49	378	159.0	-160520.0	-5899.0	-50642.0
9	18	6	49	379	160.0	-160377.0	-5867.0	-56599.0
9	18	6	49	379	161.0	-160553.0	-5858.0	-17107.0
9	18	6	49	380	162.0	-160802.0	-5867.0	36520.0
9	18	6	49	381	163.0	-160786.0	-5883.0	76096.0
9	18	6	49	381	164.0	-160672.0	-5913.0	89800.0
9	18	6	49	382	165.0	-160856.0	-5967.0	87357.0
9	18	6	49	382	166.0	-160949.0	-5974.0	69601.0
9	18	6	49	383	167.0	-160942.0	-5976.0	40943.0
9	18	6	49	383	168.0	-160910.0	-6018.0	-12192.0
9	18	6	49	384	169.0	-160937.0	-5997.0	-58274.0
9	18	6	49	385	170.0	-160917.0	-5976.0	-60962.0
9	18	6	49	385	171.0	-160668.0	-5974.0	-18738.0
9	18	6	49	399	172.0	-160589.0	-6017.0	37004.0
9	18	6	49	400	173.0	-160565.0	-6036.0	76551.0
9	18	6	49	400	174.0	-160582.0	-6052.0	88691.0
9	18	6	49	401	175.0	-160563.0	-6077.0	87740.0
9	18	6	49	402	176.0	-160446.0	-6118.0	71153.0
9	18	6	49	402	177.0	-160446.0	-6149.0	41941.0
9	18	6	49	403	178.0	-160381.0	-6172.0	-10371.0
9	18	6	49	403	179.0	-160275.0	-6161.0	-51684.0
9	18	6	49	427	180.0	-160298.0	-6069.0	-52032.0
9	18	6	49	428	181.0	-160239.0	-6012.0	-8757.0
9	18	6	49	429	182.0	-160389.0	-6088.0	46376.0
9	18	6	49	429	183.0	-160552.0	-6135.0	83426.0
9	18	6	49	430	184.0	-160600.0	-6177.0	94508.0
9	18	6	49	430	185.0	-160666.0	-6191.0	91781.0
9	18	6	49	431	186.0	-160661.0	-6206.0	73053.0
9	18	6	49	431	187.0	-160419.0	-6208.0	38978.0
9	18	6	49	432	188.0	-160323.0	-6217.0	-17176.0
9	18	6	49	450	189.0	-160219.0	-6242.0	-57476.0
9	18	6	49	451	190.0	-160376.0	-6221.0	-55796.0
9	18	6	49	452	191.0	-160474.0	-6153.0	-9711.0
9	18	6	49	452	192.0	-160481.0	-6178.0	46386.0
9	18	6	49	453	193.0	-160489.0	-6214.0	82293.0
9	18	6	49	454	194.0	-160526.0	-6242.0	90026.0
9	18	6	49	454	195.0	-160454.0	-6274.0	86744.0
9	18	6	49	455	196.0	-160479.0	-6282.0	67200.0
9	18	6	49	455	197.0	-160419.0	-6322.0	31631.0
9	18	6	49	456	198.0	-160297.0	-6327.0	-26092.0
9	18	6	49	456	199.0	-160280.0	-6302.0	-65357.0
9	18	6	49	457	200.0	-160281.0	-6289.0	-60323.0
9	18	6	49	457	201.0	-160409.0	-6252.0	-12549.0
9	18	6	49	458	202.0	-160491.0	-6281.0	42527.0
9	18	6	49	459	203.0	-160529.0	-6306.0	77338.0
9	18	6	49	459	204.0	-160472.0	-6301.0	86264.0
9	18	6	49	460	205.0	-160429.0	-6319.0	82004.0
9	18	6	49	460	206.0	-160487.0	-6384.0	61884.0
9	18	6	49	461	207.0	-160589.0	-6404.0	26954.0
9	18	6	49	476	208.0	-160595.0	-6428.0	-27891.0
9	18	6	49	477	209.0	-160540.0	-6406.0	-61656.0
9	18	6	49	478	210.0	-160461.0	-6351.0	-52104.0
9	18	6	49	478	211.0	-160509.0	-6300.0	-2862.0
9	18	6	49	479	212.0	-160474.0	-6324.0	51423.0
9	18	6	49	479	213.0	-160554.0	-6369.0	84981.0
9	18	6	49	480	214.0	-160502.0	-6396.0	94122.0
9	18	6	49	481	215.0	-160501.0	-6402.0	88478.0
9	18	6	49	481	216.0	-160532.0	-6399.0	66774.0
9	18	6	49	482	217.0	-160473.0	-6441.0	31248.0
9	18	6	49	483	218.0	-160552.0	-6472.0	-23137.0
9	18	6	49	483	219.0	-160587.0	-6427.0	-54334.0
9	18	6	49	484	220.0	-160531.0	-6372.0	-44019.0
9	18	6	49	484	221.0	-160562.0	-6365.0	6828.0
9	18	6	49	485	222.0	-160536.0	-6377.0	58825.0
9	18	6	49	485	223.0	-160344.0	-6377.0	90158.0
9	18	6	49	499	224.0	-160339.0	-6381.0	97960.0
9	18	6	49	500	225.0	-160308.0	-6406.0	90646.0
9	18	6	49	500	226.0	-160358.0	-6391.0	69503.0
9	18	6	49	501	227.0	-160466.0	-6399.0	34001.0
9	18	6	49	502	228.0	-160580.0	-6406.0	-21150.0
9	18	6	49	502	229.0	-160466.0	-6358.0	-52123.0
9	18	6	49	503	230.0	-160462.0	-6312.0	-39017.0
9	18	6	49	503	231.0	-160374.0	-6269.0	11359.0
9	18	6	49	504	232.0	-160326.0	-6229.0	62572.0
9	18	6	49	527	233.0	-160280.0	-6272.0	92358.0
9	18	6	49	528	234.0	-160218.0	-6251.0	98775.0
9	18	6	49	528	235.0	-160364.0	-6252.0	92929.0
9	18	6	49	529	236.0	-160429.0	-6261.0	71324.0
9	18	6	49	530	237.0	-160363.0	-6237.0	32106.0
9	18	6	49	530	238.0	-160414.0	-6201.0	-25102.0
9	18	6	49	531	239.0	-160407.0	-6136.0	-53782.0
9	18	6	49	531	240.0	-160439.0	-6020.0	-37241.0
9	18	6	49	532	241.0	-160398.0	-5939.0	14923.0
9	18	6	49	533	242.0	-160281.0	-5951.0	66061.0
9	18	6	49	533	243.0	-160238.0	-5957.0	93604.0
9	18	6	49	534	244.0	-160389.0	-5922.0	98898.0
9	18	6	49	534	245.0	-160488.0	-5892.0	90158.0
9	18	6	49	535	246.0	-160332.0	-5863.0	66748.0
9	18	6	49	535	247.0	-160266.0	-5807.0	26708.0
9	18	6	49	550	248.0	-160354.0	-5756.0	-27901.0
9	18	6	49	550	249.0	-160306.0	-5688.0	-51527.0
9	18	6	49	551	250.0	-160261.0	-5607.0	-32054.0
9	18	6	49	575	251.0	-160177.0	-5539.0	19926.0
9	18	6	49	575	252.0	-160186.0	-5502.0	67053.0
9	18	6	49	576	253.0	-160259.0	-5506.0	90784.0
9	18	6	49	577	254.0	-160376.0	-5456.0	94537.0
9	18	6	49	577	255.0	-160529.0	-5429.0	85618.0
9	18	6	49	578	0.0	-160553.0	-5386.0	62599.0
9	18	6	49	578	1.0	-160429.0	-5329.0	20736.0
9	18	6	49	579	2.0	-160367.0	-5261.0	-35441.0
9	18	6	49	579	3.0	-160342.0	-5174.0	-59047.0
9	18	6	49	580	4.0	-160342.0	-5080.0	-37612.0
9	18	6	49	581	5.0	-160433.0	-5024.0	15696.0
