9	17	53	39	532	200.0	-175693.0	-1087.0	1594.0
9	17	53	39	535	201.0	-171365.0	-1150.0	1427.0
9	17	53	39	537	202.0	-167572.0	-1193.0	1909.0
9	17	53	39	539	203.0	-164715.0	-1236.0	3483.0
9	17	53	39	542	204.0	-162075.0	-1287.0	4793.0
9	17	53	39	544	205.0	-159997.0	-1327.0	4386.0
9	17	53	39	546	206.0	-158878.0	-1369.0	3325.0
9	17	53	39	548	207.0	-157926.0	-1426.0	1722.0
9	17	53	39	550	208.0	-157749.0	-1476.0	-1336.0
9	17	53	39	551	209.0	-157906.0	-1531.0	-4946.0
9	17	53	39	552	210.0	-158364.0	-1573.0	-9866.0
9	17	53	39	553	211.0	-159320.0	-1625.0	-15717.0
9	17	53	39	554	212.0	-160353.0	-1681.0	-19992.0
9	17	53	39	555	213.0	-161274.0	-1717.0	-24386.0
9	17	53	39	556	214.0	-162189.0	-1767.0	-30727.0
9	17	53	39	556	215.0	-162532.0	-1812.0	-37028.0
9	17	53	39	565	216.0	-162300.0	-1846.0	-43512.0
9	17	53	39	566	217.0	-162214.0	-1890.0	-48727.0
9	17	53	39	567	218.0	-162098.0	-1932.0	-52771.0
9	17	53	39	567	219.0	-161959.0	-1989.0	-55221.0
9	17	53	39	568	220.0	-161304.0	-2034.0	-54644.0
9	17	53	39	568	221.0	-159641.0	-2086.0	-50361.0
9	17	53	39	569	222.0	-157809.0	-2139.0	-43249.0
9	17	53	39	594	223.0	-156060.0	-2172.0	-35733.0
9	17	53	39	627	224.0	-154060.0	-2208.0	-25066.0
9	17	53	39	628	225.0	-152182.0	-2256.0	-12283.0
9	17	53	39	629	226.0	-150343.0	-2316.0	-5395.0
9	17	53	39	629	227.0	-148671.0	-2351.0	-3214.0
9	17	53	39	630	228.0	-147495.0	-2397.0	-2693.0
9	17	53	39	630	229.0	-146686.0	-2444.0	-3325.0
9	17	53	39	631	230.0	-146227.0	-2502.0	-3424.0
9	17	53	39	632	231.0	-146372.0	-2529.0	-2952.0
9	17	53	39	632	232.0	-146998.0	-2550.0	-3109.0
9	17	53	39	633	233.0	-148356.0	-2594.0	-3527.0
9	17	53	39	633	234.0	-150880.0	-2642.0	-3301.0
9	17	53	39	634	235.0	-154191.0	-2697.0	-3847.0
9	17	53	39	635	236.0	-156719.0	-2719.0	-4206.0
9	17	53	39	635	237.0	-153718.0	-2781.0	-3645.0
9	17	53	39	636	238.0	-143643.0	-2826.0	-3573.0
9	17	53	39	637	253.0	-168667.0	-3436.0	-2516.0
9	17	53	39	637	254.0	-167722.0	-3482.0	-2969.0
9	17	53	39	638	255.0	-167949.0	-3529.0	-3014.0
9	17	53	39	673	0.0	-169634.0	-3586.0	-3157.0
9	17	53	39	673	1.0	-171716.0	-3631.0	-3307.0
9	17	53	39	674	2.0	-172665.0	-3647.0	-3119.0
9	17	53	39	674	3.0	-171792.0	-3699.0	-3022.0
9	17	53	39	675	4.0	-169496.0	-3751.0	-3056.0
9	17	53	39	676	5.0	-167898.0	-3803.0	-2481.0
9	17	53	39	676	6.0	-168134.0	-3822.0	-2312.0
9	17	53	39	677	7.0	-169512.0	-3861.0	-3141.0
9	17	53	39	677	8.0	-170421.0	-3902.0	-3733.0
9	17	53	39	678	9.0	-168748.0	-3937.0	-3623.0
9	17	53	39	679	10.0	-163952.0	-3988.0	-3876.0
9	17	53	39	679	11.0	-156958.0	-4018.0	-4021.0
9	17	53	39	680	12.0	-149705.0	-4079.0	-3966.0
9	17	53	39	680	13.0	-143979.0	-4127.0	-4083.0
9	17	53	39	681	14.0	-140524.0	-4166.0	-4145.0
9	17	53	39	681	15.0	-139194.0	-4197.0	-4032.0
9	17	53	39	682	20.0	-148649.0	-4388.0	-4840.0
9	17	53	39	683	21.0	-151737.0	-4437.0	-4810.0
9	17	53	39	683	22.0	-154669.0	-4479.0	-4547.0
9	17	53	39	684	23.0	-157731.0	-4501.0	-4866.0
9	17	53	39	684	24.0	-159969.0	-4553.0	-5167.0
9	17	53	39	685	25.0	-161744.0	-4609.0	-4644.0
9	17	53	39	717	26.0	-163392.0	-4651.0	-4577.0
9	17	53	39	718	27.0	-164302.0	-4700.0	-5041.0
9	17	53	39	719	28.0	-165095.0	-4734.0	-5267.0
9	17	53	39	719	29.0	-166148.0	-4775.0	-5139.0
9	17	53	39	720	30.0	-166349.0	-4812.0	-5686.0
9	17	53	39	720	31.0	-165977.0	-4866.0	-5975.0
9	17	53	39	721	32.0	-165018.0	-4902.0	-6139.0
9	17	53	39	721	33.0	-163446.0	-4951.0	-6160.0
9	17	53	39	722	34.0	-161819.0	-4996.0	-6027.0
9	17	53	39	723	35.0	-160242.0	-5035.0	-6296.0
9	17	53	39	723	36.0	-158247.0	-5083.0	-6176.0
9	17	53	39	724	37.0	-156052.0	-5126.0	-6101.0
9	17	53	39	724	38.0	-154004.0	-5172.0	-6907.0
9	17	53	39	725	39.0	-152146.0	-5202.0	-7473.0
9	17	53	39	725	40.0	-150458.0	-5259.0	-7126.0
9	17	53	39	726	42.0	-147569.0	-5347.0	-7516.0
9	17	53	39	727	43.0	-146451.0	-5401.0	-7598.0
9	17	53	39	727	44.0	-145283.0	-5469.0	-7338.0
9	17	53	39	728	45.0	-144519.0	-5509.0	-7714.0
9	17	53	39	728	46.0	-144140.0	-5534.0	-7831.0
9	17	53	39	737	47.0	-143706.0	-5571.0	-7759.0
9	17	53	39	762	48.0	-143336.0	-5622.0	-8301.0
9	17	53	39	763	49.0	-143562.0	-5673.0	-8334.0
9	17	53	39	764	50.0	-144343.0	-5703.0	-8594.0
9	17	53	39	764	51.0	-145276.0	-5767.0	-8996.0
9	17	53	39	765	52.0	-146241.0	-5831.0	-8918.0
9	17	53	39	765	53.0	-147311.0	-5849.0	-8957.0
9	17	53	39	766	54.0	-148592.0	-5897.0	-9444.0
9	17	53	39	766	55.0	-150014.0	-5936.0	-9651.0
9	17	53	39	767	56.0	-151337.0	-5959.0	-9807.0
9	17	53	39	768	57.0	-152968.0	-6006.0	-9776.0
9	17	53	39	768	58.0	-154762.0	-6061.0	-10114.0
9	17	53	39	769	59.0	-156854.0	-6098.0	-10212.0
9	17	53	39	769	60.0	-159306.0	-6126.0	-9849.0
9	17	53	39	770	61.0	-161722.0	-6161.0	-10234.0
9	17	53	39	770	62.0	-164924.0	-6192.0	-11407.0
9	17	53	39	771	64.0	-174149.0	-6255.0	-11558.0
9	17	53	39	772	65.0	-179630.0	-6294.0	-11655.0
9	17	53	39	772	66.0	-185402.0	-6297.0	-11750.0
9	17	53	39	773	67.0	-190711.0	-6294.0	-11694.0
9	17	53	39	773	68.0	-196541.0	-6319.0	-11667.0
9	17	53	39	774	69.0	-202040.0	-6319.0	-12003.0
9	17	53	39	774	70.0	-206529.0	-6326.0	-12165.0
9	17	53	39	807	71.0	-210001.0	-6311.0	-12434.0
9	17	53	39	808	72.0	-211876.0	-6328.0	-12721.0
9	17	53	39	809	73.0	-212532.0	-6328.0	-12755.0
9	17	53	39	809	74.0	-212139.0	-6304.0	-12389.0
9	17	53	39	810	75.0	-210725.0	-6279.0	-12259.0
9	17	53	39	810	76.0	-208571.0	-6254.0	-12457.0
9	17	53	39	811	77.0	-205611.0	-6206.0	-12096.0
9	17	53	39	812	78.0	-201452.0	-6164.0	-11885.0
9	17	53	39	812	79.0	-196462.0	-6121.0	-12334.0
9	17	53	39	813	80.0	-191049.0	-6072.0	-12787.0
9	17	53	39	813	81.0	-185117.0	-6019.0	-12042.0
9	17	53	39	814	82.0	-178464.0	-5953.0	-11502.0
9	17	53	39	814	83.0	-171952.0	-5900.0	-11122.0
9	17	53	39	815	84.0	-165666.0	-5851.0	-10254.0
9	17	53	39	816	85.0	-159037.0	-5759.0	-9994.0
9	17	53	39	816	87.0	-146202.0	-5583.0	-9196.0
9	17	53	39	817	88.0	-140831.0	-5498.0	-8692.0
9	17	53	39	817	89.0	-136131.0	-5403.0	-8471.0
9	17	53	39	818	90.0	-131837.0	-5306.0	-8139.0
9	17	53	39	819	91.0	-128239.0	-5206.0	-7531.0
9	17	53	39	819	92.0	-125166.0	-5121.0	-7042.0
9	17	53	39	853	93.0	-122773.0	-5004.0	-6492.0
9	17	53	39	854	94.0	-120973.0	-4902.0	-5895.0
9	17	53	39	855	95.0	-119749.0	-4801.0	-5244.0
9	17	53	39	855	96.0	-118819.0	-4662.0	-5076.0
9	17	53	39	856	97.0	-118119.0	-4554.0	-4969.0
9	17	53	39	856	98.0	-118139.0	-4431.0	-4942.0
9	17	53	39	857	99.0	-118320.0	-4295.0	-4821.0
9	17	53	39	858	100.0	-118301.0	-4181.0	-4732.0
9	17	53	39	858	101.0	-118282.0	-4044.0	-4467.0
9	17	53	39	859	102.0	-119142.0	-3916.0	-4228.0
9	17	53	39	859	103.0	-120877.0	-3794.0	-4156.0
9	17	53	39	860	104.0	-124040.0	-3663.0	-4221.0
9	17	53	39	860	105.0	-128153.0	-3537.0	-3849.0
9	17	53	39	861	106.0	-132632.0	-3395.0	-3522.0
9	17	53	39	862	107.0	-137309.0	-3282.0	-3769.0
9	17	53	39	862	109.0	-147067.0	-2990.0	-3009.0
9	17	53	39	863	110.0	-152155.0	-2851.0	-3436.0
9	17	53	39	864	111.0	-156591.0	-2724.0	-3422.0
9	17	53	39	864	112.0	-160702.0	-2607.0	-3446.0
9	17	53	39	865	113.0	-164767.0	-2473.0	-3364.0
9	17	53	39	865	114.0	-167932.0	-2346.0	-3360.0
9	17	53	39	897	115.0	-170370.0	-2219.0	-2592.0
9	17	53	39	898	116.0	-172968.0	-2089.0	-2429.0
9	17	53	39	943	117.0	-174890.0	-1958.0	-2829.0
9	17	53	39	944	118.0	-176404.0	-1842.0	-2589.0
9	17	53	39	944	119.0	-177394.0	-1732.0	-2811.0
9	17	53	39	989	120.0	-177111.0	-1612.0	-2912.0
9	17	53	39	989	121.0	-175726.0	-1470.0	-2917.0
9	17	53	39	990	122.0	-173339.0	-1356.0	-2832.0
9	17	53	39	990	123.0	-171042.0	-1259.0	-2537.0
9	17	53	39	991	124.0	-169044.0	-1160.0	-2899.0
9	17	53	39	992	125.0	-167209.0	-1038.0	-2771.0
9	17	53	39	992	126.0	-164825.0	-914.0	-2686.0
9	17	53	39	993	127.0	-161999.0	-797.0	-2762.0
9	17	53	39	994	128.0	-158476.0	-689.0	-3022.0
9	17	53	39	994	129.0	-153889.0	-597.0	-3217.0
9	17	53	39	995	131.0	-140440.0	-392.0	-2835.0
9	17	53	39	996	132.0	-132662.0	-314.0	-2878.0
9	17	53	39	996	154.0	-188455.0	1475.0	-3167.0
9	17	53	39	997	155.0	-188674.0	1561.0	-2811.0
9	17	53	39	997	156.0	-187737.0	1629.0	-2624.0
9	17	53	39	998	176.0	-126876.0	2714.0	-2620.0
9	17	53	39	999	177.0	-127162.0	2754.0	-2459.0
9	17	53	39	999	178.0	-128507.0	2794.0	-2692.0
9	17	53	40	0	179.0	-131164.0	2842.0	-3003.0
9	17	53	40	0	180.0	-134901.0	2875.0	-2852.0
9	17	53	40	1	181.0	-139252.0	2908.0	-2619.0
9	17	53	40	1	182.0	-143792.0	2951.0	-2854.0
9	17	53	40	33	183.0	-148731.0	2967.0	-2443.0
9	17	53	40	45	184.0	-153301.0	2999.0	-2210.0
9	17	53	40	46	185.0	-157045.0	3033.0	-2499.0
9	17	53	40	47	186.0	-160447.0	3064.0	-2492.0
9	17	53	40	47	187.0	-163349.0	3080.0	-2062.0
9	17	53	40	48	188.0	-165701.0	3117.0	-1638.0
9	17	53	40	48	189.0	-167902.0	3126.0	-1746.0
9	17	53	40	49	190.0	-170162.0	3144.0	-1670.0
9	17	53	40	49	191.0	-172191.0	3164.0	-1601.0
9	17	53	40	50	192.0	-173853.0	3188.0	-1623.0
9	17	53	40	51	193.0	-175983.0	3204.0	-1587.0
9	17	53	40	51	194.0	-178479.0	3228.0	-2045.0
9	17	53	40	52	195.0	-181165.0	3227.0	-2082.0
9	17	53	40	52	196.0	-183946.0	3246.0	-1214.0
9	17	53	40	53	197.0	-187172.0	3252.0	-1302.0
9	17	53	40	53	199.0	-195266.0	3284.0	-1915.0
9	17	53	40	54	200.0	-200049.0	3263.0	-1665.0
9	17	53	40	54	201.0	-204731.0	3267.0	-1671.0
9	17	53	40	55	202.0	-209360.0	3277.0	-1672.0
9	17	53	40	56	203.0	-213389.0	3278.0	-1843.0
9	17	53	40	56	204.0	-216575.0	3286.0	-1511.0
9	17	53	40	77	205.0	-218615.0	3287.0	-1258.0
9	17	53	40	78	206.0	-219994.0	3284.0	-1640.0
9	17	53	40	79	207.0	-220206.0	3299.0	-1540.0
9	17	53	40	80	208.0	-219086.0	3328.0	-1440.0
9	17	53	40	80	209.0	-217186.0	3326.0	-1674.0
9	17	53	40	81	210.0	-213966.0	3328.0	-1854.0
9	17	53	40	81	211.0	-209863.0	3334.0	-1733.0
9	17	53	40	82	212.0	-204897.0	3326.0	-1766.0
9	17	53	40	83	213.0	-199416.0	3343.0	-1846.0
9	17	53	40	83	214.0	-193670.0	3331.0	-1349.0
9	17	53	40	84	215.0	-186854.0	3351.0	-1091.0
9	17	53	40	85	216.0	-179681.0	3341.0	-1415.0
9	17	53	40	85	217.0	-172549.0	3346.0	-1189.0
9	17	53	40	86	218.0	-165026.0	3359.0	-862.0
9	17	53	40	87	219.0	-157549.0	3366.0	-1266.0
9	17	53	40	87	221.0	-144928.0	3347.0	-1464.0
9	17	53	40	88	222.0	-140190.0	3348.0	-1275.0
9	17	53	40	88	223.0	-136403.0	3354.0	-1019.0
9	17	53	40	89	224.0	-134486.0	3345.0	-786.0
9	17	53	40	90	225.0	-133384.0	3339.0	-906.0
9	17	53	40	90	226.0	-133036.0	3340.0	-611.0
9	17	53	40	91	227.0	-133176.0	3337.0	-234.0
9	17	53	40	122	228.0	-133415.0	3364.0	-437.0
9	17	53	40	123	229.0	-133820.0	3361.0	-694.0
9	17	53	40	124	230.0	-134057.0	3361.0	-724.0
9	17	53	40	124	231.0	-134732.0	3365.0	-898.0
9	17	53	40	125	232.0	-135292.0	3366.0	-736.0
9	17	53	40	126	233.0	-135750.0	3364.0	-375.0
9	17	53	40	126	234.0	-136534.0	3333.0	-454.0
9	17	53	40	127	235.0	-137114.0	3339.0	-519.0
9	17	53	40	127	236.0	-138021.0	3351.0	-159.0
9	17	53	40	128	237.0	-139591.0	3353.0	-134.0
9	17	53	40	129	238.0	-141580.0	3349.0	-219.0
9	17	53	40	129	239.0	-143707.0	3344.0	-346.0
9	17	53	40	130	240.0	-145617.0	3358.0	-372.0
9	17	53	40	130	241.0	-148144.0	3341.0	-587.0
9	17	53	40	131	242.0	-150221.0	3340.0	-845.0
9	17	53	40	132	244.0	-154010.0	3317.0	-291.0
9	17	53	40	132	245.0	-156424.0	3319.0	344.0
9	17	53	40	133	246.0	-158756.0	3310.0	286.0
9	17	53	40	133	247.0	-161025.0	3300.0	-111.0
9	17	53	40	134	248.0	-163387.0	3283.0	283.0
9	17	53	40	135	249.0	-165417.0	3256.0	402.0
9	17	53	40	167	250.0	-167016.0	3252.0	-101.0
9	17	53	40	168	251.0	-169413.0	3248.0	-208.0
9	17	53	40	169	252.0	-172062.0	3239.0	109.0
9	17	53	40	169	253.0	-174777.0	3233.0	403.0
9	17	53	40	170	254.0	-178322.0	3208.0	236.0
9	17	53	40	171	255.0	-182646.0	3173.0	261.0
9	17	53	40	171	0.0	-186812.0	3169.0	251.0
9	17	53	40	172	1.0	-190576.0	3159.0	142.0
9	17	53	40	173	2.0	-193832.0	3149.0	388.0
9	17	53	40	173	3.0	-195952.0	3116.0	385.0
9	17	53	40	174	4.0	-197426.0	3086.0	4.0
9	17	53	40	175	5.0	-199276.0	3071.0	-326.0
9	17	53	40	175	6.0	-201120.0	3060.0	-251.0
9	17	53	40	176	7.0	-202584.0	3034.0	-100.0
9	17	53	40	177	8.0	-203617.0	3006.0	146.0
9	17	53	40	177	10.0	-204132.0	2951.0	92.0
9	17	53	40	178	11.0	-202012.0	2918.0	311.0
9	17	53	40	178	12.0	-199710.0	2888.0	474.0
9	17	53	40	179	13.0	-196622.0	2861.0	320.0
9	17	53	40	180	14.0	-192935.0	2814.0	288.0
9	17	53	40	180	15.0	-188906.0	2795.0	86.0
9	17	53	40	181	16.0	-183937.0	2772.0	52.0
9	17	53	40	213	17.0	-177885.0	2730.0	-21.0
9	17	53	40	214	18.0	-170780.0	2688.0	358.0
9	17	53	40	215	19.0	-163032.0	2636.0	546.0
9	17	53	40	215	20.0	-154852.0	2594.0	585.0
9	17	53	40	216	21.0	-147450.0	2558.0	-196.0
9	17	53	40	217	22.0	-141510.0	2532.0	-893.0
9	17	53	40	217	23.0	-136190.0	2501.0	-372.0
9	17	53	40	218	24.0	-131171.0	2454.0	-171.0
9	17	53	40	218	25.0	-127029.0	2426.0	-456.0
9	17	53	40	219	26.0	-124104.0	2378.0	-748.0
9	17	53	40	220	27.0	-121819.0	2346.0	-335.0
9	17	53	40	220	28.0	-120716.0	2296.0	-327.0
9	17	53	40	221	29.0	-120909.0	2254.0	-271.0
9	17	53	40	222	30.0	-121989.0	2221.0	67.0
9	17	53	40	222	31.0	-124407.0	2193.0	-43.0
9	17	53	40	223	33.0	-133446.0	2111.0	-25.0
9	17	53	40	224	34.0	-139802.0	2058.0	-232.0
9	17	53	40	224	35.0	-146216.0	2019.0	-688.0
9	17	53	40	225	36.0	-152192.0	1975.0	-707.0
9	17	53	40	225	37.0	-157957.0	1925.0	-687.0
9	17	53	40	226	38.0	-163549.0	1876.0	-1244.0
9	17	53	40	304	39.0	-168631.0	1853.0	-701.0
9	17	53	40	305	40.0	-173334.0	1803.0	-134.0
9	17	53	40	305	41.0	-178436.0	1756.0	-76.0
9	17	53	40	306	42.0	-184036.0	1722.0	-168.0
9	17	53	40	306	43.0	-189658.0	1696.0	-731.0
9	17	53	40	307	44.0	-195364.0	1651.0	-1051.0
9	17	53	40	308	45.0	-201172.0	1611.0	-1061.0
9	17	53	40	308	46.0	-206355.0	1548.0	-1377.0
9	17	53	40	349	47.0	-210283.0	1494.0	-1341.0
9	17	53	40	350	48.0	-212897.0	1451.0	-1100.0
9	17	53	40	351	49.0	-214113.0	1413.0	-1228.0
9	17	53	40	351	50.0	-213875.0	1378.0	-1296.0
9	17	53	40	352	51.0	-212472.0	1316.0	-1269.0
9	17	53	40	353	52.0	-209852.0	1271.0	-1049.0
9	17	53	40	353	53.0	-205999.0	1233.0	-1036.0
9	17	53	40	354	55.0	-195081.0	1154.0	-817.0
9	17	53	40	354	78.0	-128416.0	50.0	-1127.0
9	17	53	40	355	79.0	-134914.0	9.0	-961.0
9	17	53	40	356	80.0	-141751.0	-46.0	-1089.0
9	17	53	40	356	81.0	-148617.0	-94.0	-1232.0
9	17	53	40	357	82.0	-155546.0	-132.0	-1068.0
9	17	53	40	357	83.0	-162332.0	-171.0	-886.0
9	17	53	40	358	84.0	-168699.0	-220.0	-1179.0
9	17	53	40	359	100.0	-172800.0	-972.0	-83.0
9	17	53	40	359	101.0	-167334.0	-991.0	-524.0
9	17	53	40	360	102.0	-162009.0	-1021.0	-149.0
9	17	53	40	360	103.0	-156360.0	-1066.0	748.0
9	17	53	40	361	104.0	-150756.0	-1119.0	1233.0
9	17	53	40	361	105.0	-144741.0	-1154.0	1881.0
9	17	53	40	393	106.0	-138517.0	-1220.0	2112.0
9	17	53	40	394	107.0	-132746.0	-1265.0	1823.0
9	17	53	40	394	108.0	-127371.0	-1291.0	856.0
9	17	53	40	395	109.0	-122562.0	-1339.0	-1386.0
9	17	53	40	396	110.0	-117936.0	-1369.0	-5064.0
9	17	53	40	396	111.0	-113452.0	-1424.0	-9797.0
9	17	53	40	397	112.0	-109446.0	-1467.0	-15529.0
9	17	53	40	397	113.0	-105874.0	-1492.0	-20534.0
9	17	53	40	398	114.0	-102851.0	-1544.0	-25196.0
9	17	53	40	399	115.0	-100192.0	-1604.0	-31688.0
9	17	53	40	399	116.0	-97822.0	-1634.0	-38353.0
9	17	53	40	400	117.0	-96200.0	-1682.0	-44759.0
9	17	53	40	401	118.0	-95229.0	-1727.0	-50519.0
9	17	53	40	401	119.0	-94996.0	-1766.0	-54750.0
9	17	53	40	402	120.0	-95532.0	-1792.0	-58294.0
9	17	53	40	402	122.0	-99069.0	-1874.0	-56382.0
9	17	53	40	403	123.0	-102347.0	-1919.0	-49497.0
9	17	53	40	404	124.0	-106907.0	-1957.0	-42715.0
9	17	53	40	404	125.0	-112582.0	-1991.0	-33000.0
9	17	53	40	405	126.0	-118849.0	-2043.0	-19341.0
9	17	53	40	405	127.0	-125653.0	-2084.0	-9876.0
9	17	53	40	406	128.0	-132825.0	-2115.0	-6842.0
9	17	53	40	437	129.0	-140212.0	-2160.0	-5313.0
9	17	53	40	438	130.0	-147254.0	-2211.0	-5343.0
9	17	53	40	438	131.0	-154317.0	-2249.0	-5644.0
9	17	53	40	439	132.0	-161497.0	-2289.0	-5486.0
9	17	53	40	440	133.0	-168536.0	-2306.0	-5026.0
9	17	53	40	440	134.0	-175639.0	-2342.0	-5388.0
9	17	53	40	441	135.0	-182782.0	-2407.0	-5679.0
9	17	53	40	442	136.0	-189709.0	-2446.0	-5824.0
9	17	53	40	442	137.0	-195497.0	-2475.0	-5734.0
9	17	53	40	443	138.0	-195922.0	-2539.0	-5665.0
9	17	53	40	444	139.0	-187467.0	-2581.0	-5411.0
9	17	53	40	444	140.0	-175104.0	-2603.0	-4896.0
9	17	53	40	445	141.0	-161532.0	-2651.0	-4497.0
9	17	53	40	445	142.0	-151269.0	-2686.0	-4277.0
9	17	53	40	446	143.0	-146477.0	-2739.0	-4344.0
9	17	53	40	447	145.0	-150803.0	-2802.0	-4442.0
9	17	53	40	447	146.0	-155817.0	-2856.0	-4444.0
9	17	53	40	448	147.0	-161239.0	-2897.0	-4272.0
9	17	53	40	449	148.0	-166734.0	-2966.0	-3913.0
9	17	53	40	449	149.0	-170531.0	-3007.0	-3810.0
9	17	53	40	450	150.0	-171336.0	-3045.0	-3890.0
9	17	53	40	482	151.0	-168389.0	-3096.0	-3518.0
9	17	53	40	483	152.0	-163661.0	-3141.0	-3795.0
9	17	53	40	483	153.0	-157958.0	-3188.0	-4009.0
9	17	53	40	484	154.0	-150435.0	-3234.0	-3257.0
9	17	53	40	485	155.0	-142327.0	-3268.0	-3216.0
9	17	53	40	485	156.0	-136187.0	-3324.0	-3912.0
9	17	53	40	486	157.0	-132829.0	-3374.0	-3820.0
9	17	53	40	487	158.0	-131332.0	-3416.0	-3603.0
9	17	53	40	488	159.0	-130201.0	-3447.0	-3755.0
9	17	53	40	488	160.0	-128706.0	-3486.0	-3886.0
9	17	53	40	489	161.0	-126204.0	-3534.0	-3648.0
9	17	53	40	490	162.0	-123317.0	-3592.0	-3404.0
9	17	53	40	490	163.0	-121849.0	-3622.0	-3535.0
9	17	53	40	491	164.0	-122739.0	-3655.0	-3445.0
9	17	53	40	492	165.0	-125313.0	-3724.0	-3993.0
9	17	53	40	492	167.0	-129623.0	-3811.0	-3794.0
9	17	53	40	493	168.0	-128460.0	-3865.0	-3805.0
9	17	53	40	493	169.0	-124902.0	-3904.0	-3800.0
9	17	53	40	494	170.0	-120271.0	-3957.0	-3842.0
9	17	53	40	495	171.0	-116524.0	-3983.0	-4051.0
9	17	53	40	495	172.0	-114817.0	-4019.0	-4278.0
9	17	53	40	496	173.0	-115174.0	-4073.0	-4084.0
9	17	53	40	527	174.0	-117659.0	-4119.0	-4404.0
9	17	53	40	528	175.0	-121691.0	-4152.0	-4809.0
9	17	53	40	529	176.0	-126327.0	-4224.0	-4761.0
9	17	53	40	529	177.0	-131026.0	-4287.0	-4552.0
9	17	53	40	530	178.0	-135771.0	-4316.0	-4556.0
9	17	53	40	531	179.0	-140689.0	-4351.0	-4522.0
9	17	53	40	532	180.0	-145676.0	-4400.0	-4428.0
9	17	53	40	532	181.0	-151130.0	-4441.0	-4642.0
9	17	53	40	533	182.0	-156697.0	-4490.0	-4552.0
9	17	53	40	534	183.0	-161545.0	-4527.0	-4876.0
9	17	53	40	534	184.0	-165441.0	-4566.0	-5182.0
9	17	53	40	535	185.0	-168955.0	-4619.0	-4947.0
9	17	53	40	536	186.0	-171876.0	-4677.0	-5162.0
9	17	53	40	537	187.0	-173779.0	-4704.0	-5429.0
9	17	53	40	538	188.0	-175134.0	-4762.0	-5071.0
9	17	53	40	538	190.0	-176093.0	-4862.0	-5206.0
9	17	53	40	539	191.0	-175613.0	-4894.0	-5490.0
9	17	53	40	540	192.0	-175331.0	-4934.0	-5514.0
9	17	53	40	541	193.0	-175300.0	-4981.0	-5291.0
9	17	53	40	541	194.0	-174619.0	-5023.0	-5467.0
9	17	53	40	542	195.0	-173454.0	-5091.0	-6339.0
9	17	53	40	573	196.0	-173303.0	-5147.0	-6721.0
9	17	53	40	574	197.0	-173782.0	-5192.0	-6584.0
9	17	53	40	575	198.0	-173538.0	-5244.0	-6289.0
9	17	53	40	576	199.0	-171911.0	-5291.0	-6062.0
9	17	53	40	576	200.0	-169094.0	-5322.0	-6422.0
9	17	53	40	577	201.0	-166416.0	-5368.0	-6516.0
9	17	53	40	578	202.0	-164386.0	-5406.0	-6649.0
9	17	53	40	578	203.0	-162601.0	-5466.0	-6930.0
9	17	53	40	579	204.0	-160967.0	-5531.0	-6914.0
9	17	53	40	580	205.0	-159204.0	-5581.0	-7263.0
9	17	53	40	580	206.0	-156809.0	-5631.0	-7522.0
9	17	53	40	581	207.0	-154867.0	-5693.0	-7776.0
9	17	53	40	582	208.0	-150799.0	-5739.0	-8192.0
9	17	53	40	583	209.0	-141867.0	-5785.0	-8251.0
9	17	53	40	584	210.0	-130748.0	-5819.0	-7967.0
9	17	53	40	585	212.0	-118731.0	-5927.0	-8249.0
9	17	53	40	586	213.0	-116804.0	-5963.0	-8592.0
9	17	53	40	592	214.0	-114152.0	-6003.0	-9239.0
9	17	53	40	593	215.0	-109194.0	-6039.0	-9467.0
9	17	53	40	593	216.0	-100437.0	-6086.0	-9431.0
9	17	53	40	594	217.0	-95002.0	-6128.0	-9473.0
9	17	53	40	595	218.0	-91390.0	-6163.0	-9880.0
9	17	53	40	617	219.0	-92375.0	-6200.0	-9618.0
9	17	53	40	618	220.0	-93900.0	-6221.0	-9402.0
9	17	53	40	619	221.0	-97083.0	-6229.0	-9896.0
9	17	53	40	619	222.0	-100386.0	-6261.0	-10160.0
9	17	53	40	620	223.0	-103453.0	-6303.0	-10457.0
9	17	53	40	621	224.0	-107404.0	-6312.0	-10818.0
9	17	53	40	621	225.0	-111402.0	-6312.0	-10923.0
9	17	53	40	622	226.0	-114932.0	-6329.0	-10857.0
9	17	53	40	622	227.0	-113834.0	-6341.0	-11254.0
9	17	53	40	623	228.0	-111544.0	-6334.0	-11612.0
9	17	53	40	623	229.0	-109186.0	-6332.0	-11061.0
9	17	53	40	624	230.0	-108554.0	-6326.0	-10817.0
9	17	53	40	625	231.0	-112384.0	-6310.0	-11019.0
9	17	53	40	625	232.0	-119326.0	-6289.0	-11128.0
9	17	53	40	626	233.0	-129271.0	-6248.0	-11163.0
9	17	53	40	627	235.0	-148998.0	-6209.0	-11452.0
9	17	53	40	627	236.0	-160034.0	-6172.0	-11206.0
9	17	53	40	628	237.0	-171360.0	-6119.0	-11112.0
9	17	53	40	628	238.0	-183088.0	-6078.0	-10666.0
9	17	53	40	629	239.0	-194714.0	-6014.0	-10299.0
9	17	53	40	629	240.0	-206207.0	-5954.0	-9956.0
9	17	53	40	663	241.0	-216172.0	-5887.0	-9747.0
9	17	53	40	663	242.0	-222015.0	-5831.0	-9505.0
9	17	53	40	664	243.0	-223124.0	-5749.0	-9097.0
9	17	53	40	665	244.0	-222952.0	-5686.0	-8595.0
9	17	53	40	665	245.0	-218821.0	-5603.0	-8359.0
9	17	53	40	666	246.0	-215152.0	-5528.0	-7871.0
9	17	53	40	666	247.0	-212292.0	-5441.0	-7477.0
9	17	53	40	667	248.0	-209944.0	-5357.0	-6842.0
9	17	53	40	667	249.0	-207371.0	-5250.0	-6246.0
9	17	53	40	668	250.0	-204893.0	-5136.0	-5597.0
9	17	53	40	669	251.0	-202662.0	-5036.0	-5071.0
9	17	53	40	669	252.0	-201107.0	-4918.0	-5036.0
9	17	53	40	670	253.0	-199461.0	-4812.0	-4853.0
9	17	53	40	670	254.0	-197734.0	-4686.0	-4093.0
9	17	53	40	671	255.0	-195556.0	-4578.0	-4016.0
9	17	53	40	672	1.0	-187609.0	-4358.0	-3317.0
9	17	53	40	672	2.0	-182422.0	-4241.0	-3304.0
9	17	53	40	673	3.0	-176676.0	-4104.0	-3258.0
9	17	53	40	673	4.0	-171172.0	-3956.0	-2494.0
9	17	53	40	674	5.0	-165887.0	-3836.0	-2112.0
9	17	53	40	674	6.0	-160882.0	-3701.0	-2503.0
9	17	53	40	675	7.0	-156683.0	-3578.0	-2914.0
9	17	53	40	707	8.0	-152812.0	-3442.0	-2345.0
9	17	53	40	708	9.0	-150062.0	-3322.0	-1841.0
9	17	53	40	708	10.0	-148706.0	-3198.0	-1492.0
9	17	53	40	709	11.0	-147610.0	-3067.0	-1099.0
9	17	53	40	709	12.0	-147244.0	-2937.0	-1073.0
9	17	53	40	710	13.0	-147220.0	-2791.0	-969.0
9	17	53	40	711	14.0	-147398.0	-2654.0	-789.0
9	17	53	40	711	15.0	-147794.0	-2530.0	-910.0
9	17	53	40	712	16.0	-148007.0	-2390.0	-1232.0
9	17	53	40	712	17.0	-149163.0	-2260.0	-1274.0
9	17	53	40	713	18.0	-150107.0	-2119.0	-1242.0
9	17	53	40	713	19.0	-150661.0	-1973.0	-1190.0
9	17	53	40	714	20.0	-152042.0	-1865.0	-1275.0
9	17	53	40	714	21.0	-153388.0	-1746.0	-1076.0
9	17	53	40	715	22.0	-155709.0	-1636.0	-901.0
9	17	53	40	716	24.0	-162751.0	-1367.0	-796.0
9	17	53	40	716	25.0	-167478.0	-1245.0	-1030.0
9	17	53	40	717	26.0	-172501.0	-1121.0	-1047.0
9	17	53	40	717	27.0	-178530.0	-994.0	-1005.0
9	17	53	40	718	28.0	-184458.0	-887.0	-1120.0
9	17	53	40	719	29.0	-190452.0	-777.0	-1197.0
9	17	53	40	752	30.0	-196817.0	-666.0	-1211.0
9	17	53	40	753	31.0	-202012.0	-554.0	-737.0
9	17	53	40	753	32.0	-205405.0	-439.0	-393.0
9	17	53	40	754	33.0	-207095.0	-339.0	-831.0
9	17	53	40	755	34.0	-207996.0	-226.0	-569.0
9	17	53	40	755	35.0	-210084.0	-108.0	-532.0
9	17	53	40	756	36.0	-213126.0	-16.0	-601.0
9	17	53	40	756	37.0	-218360.0	84.0	-866.0
9	17	53	40	757	38.0	-225527.0	179.0	-944.0
9	17	53	40	757	39.0	-228967.0	278.0	-884.0
9	17	53	40	758	40.0	-227971.0	364.0	-789.0
9	17	53	40	758	41.0	-225864.0	455.0	-541.0
9	17	53	40	759	42.0	-221297.0	539.0	22.0
9	17	53	40	760	43.0	-215260.0	629.0	28.0
9	17	53	40	760	44.0	-208263.0	730.0	-57.0
9	17	53	40	761	46.0	-194462.0	921.0	-801.0
9	17	53	40	773	47.0	-188395.0	1007.0	-1539.0
9	17	53	40	774	48.0	-183283.0	1091.0	-1374.0
9	17	53	40	774	49.0	-180097.0	1159.0	-1009.0
9	17	53	40	775	50.0	-179649.0	1221.0	-1368.0
9	17	53	40	776	51.0	-182094.0	1318.0	-1777.0
9	17	53	40	776	52.0	-185284.0	1377.0	-1257.0
9	17	53	40	799	53.0	-188372.0	1426.0	-1282.0
9	17	53	40	799	54.0	-189799.0	1516.0	-1277.0
9	17	53	40	800	55.0	-189679.0	1599.0	-1495.0
9	17	53	40	800	56.0	-188974.0	1655.0	-1754.0
9	17	53	40	801	57.0	-187485.0	1738.0	-1823.0
9	17	53	40	801	58.0	-185323.0	1812.0	-2071.0
9	17	53	40	802	59.0	-182564.0	1855.0	-2196.0
9	17	53	40	803	60.0	-179682.0	1924.0	-2301.0
9	17	53	40	803	61.0	-177162.0	1988.0	-2851.0
9	17	53	40	804	62.0	-174179.0	2058.0	-2105.0
9	17	53	40	804	63.0	-171337.0	2116.0	-1041.0
9	17	53	40	805	64.0	-169510.0	2171.0	-1041.0
9	17	53	40	806	65.0	-168110.0	2249.0	-1042.0
9	17	53	40	806	66.0	-168570.0	2309.0	-1070.0
9	17	53	40	807	67.0	-170572.0	2366.0	-1671.0
9	17	53	40	807	69.0	-177389.0	2484.0	-1572.0
9	17	53	40	808	70.0	-181614.0	2530.0	-1632.0
9	17	53	40	808	71.0	-185573.0	2581.0	-1720.0
9	17	53	40	809	72.0	-189186.0	2654.0	-1396.0
9	17	53	40	810	73.0	-192174.0	2712.0	-1195.0
9	17	53	40	810	74.0	-194776.0	2763.0	-1314.0
9	17	53	40	841	75.0	-196684.0	2806.0	-1382.0
9	17	53	40	842	76.0	-197486.0	2867.0	-1196.0
9	17	53	40	843	77.0	-197577.0	2908.0	-1414.0
9	17	53	40	843	78.0	-197053.0	2931.0	-1231.0
9	17	53	40	844	79.0	-196083.0	2961.0	-1307.0
9	17	53	40	844	80.0	-195207.0	3009.0	-1439.0
9	17	53	40	845	81.0	-194271.0	3058.0	-1304.0
9	17	53	40	846	82.0	-193109.0	3099.0	-1097.0
9	17	53	40	846	83.0	-191527.0	3136.0	-1046.0
9	17	53	40	855	84.0	-189241.0	3176.0	-1209.0
9	17	53	40	856	85.0	-186366.0	3205.0	-1084.0
9	17	53	40	857	86.0	-183111.0	3242.0	-1131.0
9	17	53	40	857	87.0	-180091.0	3271.0	-919.0
9	17	53	40	858	88.0	-176959.0	3304.0	-1121.0
9	17	53	40	858	89.0	-173815.0	3334.0	-1357.0
9	17	53	40	859	91.0	-169074.0	3358.0	-1210.0
9	17	53	40	860	92.0	-167657.0	3383.0	-1416.0
9	17	53	40	860	93.0	-166751.0	3413.0	-1097.0
9	17	53	40	861	94.0	-165849.0	3427.0	-727.0
9	17	53	40	861	95.0	-165341.0	3466.0	-1037.0
9	17	53	40	862	96.0	-164953.0	3490.0	-1077.0
9	17	53	40	888	97.0	-164899.0	3491.0	-695.0
9	17	53	40	888	98.0	-165167.0	3511.0	-926.0
9	17	53	40	889	99.0	-165682.0	3529.0	-1231.0
9	17	53	40	890	100.0	-166854.0	3531.0	-795.0
9	17	53	40	890	101.0	-168288.0	3545.0	-633.0
9	17	53	40	891	102.0	-169818.0	3553.0	-825.0
9	17	53	40	891	103.0	-171470.0	3566.0	-499.0
9	17	53	40	892	104.0	-172727.0	3577.0	-219.0
9	17	53	40	893	105.0	-173835.0	3600.0	-552.0
9	17	53	40	893	106.0	-175379.0	3601.0	-629.0
9	17	53	40	894	107.0	-176761.0	3598.0	-682.0
9	17	53	40	895	108.0	-177962.0	3626.0	-771.0
9	17	53	40	895	109.0	-178827.0	3629.0	-674.0
9	17	53	40	896	110.0	-179503.0	3623.0	-761.0
9	17	53	40	896	111.0	-180451.0	3621.0	-1334.0
9	17	53	40	897	113.0	-182235.0	3639.0	-191.0
9	17	53	40	898	114.0	-184058.0	3643.0	19.0
9	17	53	40	898	115.0	-186131.0	3648.0	-291.0
9	17	53	40	899	116.0	-188182.0	3653.0	-399.0
9	17	53	40	899	117.0	-189904.0	3644.0	-649.0
9	17	53	40	900	118.0	-190946.0	3656.0	-474.0
9	17	53	40	901	119.0	-191246.0	3654.0	-562.0
9	17	53	40	931	120.0	-191252.0	3669.0	-585.0
9	17	53	40	932	121.0	-190880.0	3684.0	-386.0
9	17	53	40	933	122.0	-190502.0	3684.0	-449.0
9	17	53	40	933	123.0	-190052.0	3679.0	-656.0
9	17	53	40	934	124.0	-189126.0	3704.0	-667.0
9	17	53	40	934	125.0	-187915.0	3711.0	-602.0
9	17	53	40	935	126.0	-186676.0	3700.0	-612.0
9	17	53	40	935	127.0	-185162.0	3726.0	-925.0
9	17	53	40	936	128.0	-182909.0	3751.0	-840.0
9	17	53	40	937	129.0	-180657.0	3736.0	-1086.0
9	17	53	40	937	130.0	-179089.0	3733.0	-1035.0
9	17	53	40	938	131.0	-177377.0	3753.0	-580.0
9	17	53	40	938	132.0	-175718.0	3741.0	-719.0
9	17	53	40	939	133.0	-173675.0	3754.0	-844.0
9	17	53	40	940	134.0	-171337.0	3763.0	-464.0
9	17	53	40	940	136.0	-167512.0	3790.0	-683.0
9	17	53	40	941	137.0	-165836.0	3780.0	-803.0
9	17	53	40	977	138.0	-164357.0	3791.0	-749.0
9	17	53	41	23	139.0	-162867.0	3787.0	-1314.0
9	17	53	41	24	140.0	-161505.0	3793.0	-1164.0
9	17	53	41	24	141.0	-160182.0	3795.0	-679.0
9	17	53	41	25	142.0	-159105.0	3783.0	-839.0
9	17	53	41	25	143.0	-158731.0	3778.0	-957.0
9	17	53	41	26	144.0	-158576.0	3793.0	-681.0
9	17	53	41	27	145.0	-158601.0	3797.0	-783.0
9	17	53	41	27	146.0	-158640.0	3803.0	-896.0
9	17	53	41	28	147.0	-158351.0	3804.0	-881.0
9	17	53	41	28	148.0	-158177.0	3804.0	-847.0
9	17	53	41	29	149.0	-158080.0	3799.0	-838.0
9	17	53	41	29	150.0	-158397.0	3786.0	-839.0
9	17	53	41	30	151.0	-159191.0	3781.0	-1044.0
9	17	53	41	31	152.0	-159747.0	3783.0	-959.0
9	17	53	41	31	158.0	-164192.0	3726.0	-1111.0
9	17	53	41	32	181.0	-179825.0	3267.0	-1255.0
9	17	53	41	32	182.0	-179882.0	3221.0	-1289.0
9	17	53	41	33	183.0	-179583.0	3196.0	-1227.0
9	17	53	41	34	184.0	-179271.0	3171.0	-1138.0
9	17	53	41	34	185.0	-178303.0	3145.0	-1287.0
9	17	53	41	35	186.0	-176822.0	3124.0	-1379.0
9	17	53	41	67	187.0	-175077.0	3078.0	-1471.0
9	17	53	41	67	188.0	-173022.0	3053.0	-1601.0
9	17	53	41	68	189.0	-171161.0	3014.0	-1587.0
9	17	53	41	68	190.0	-169973.0	2978.0	-1345.0
9	17	53	41	69	191.0	-169179.0	2924.0	-1566.0
9	17	53	41	70	192.0	-168324.0	2909.0	-1404.0
9	17	53	41	70	193.0	-167255.0	2881.0	-1222.0
9	17	53	41	71	194.0	-165542.0	2829.0	-1414.0
9	17	53	41	71	195.0	-163829.0	2794.0	-1390.0
9	17	53	41	72	196.0	-162126.0	2755.0	-1167.0
9	17	53	41	73	197.0	-160782.0	2730.0	-1219.0
9	17	53	41	73	198.0	-159997.0	2684.0	-1848.0
9	17	53	41	74	199.0	-159185.0	2635.0	-1756.0
9	17	53	41	75	200.0	-158481.0	2603.0	-1497.0
9	17	53	41	76	201.0	-158402.0	2558.0	-2014.0
9	17	53	41	77	203.0	-157893.0	2474.0	-1244.0
9	17	53	41	77	204.0	-158158.0	2433.0	-1680.0
9	17	53	41	78	205.0	-159289.0	2401.0	-1896.0
9	17	53	41	79	206.0	-160328.0	2370.0	-1591.0
9	17	53	41	80	207.0	-162011.0	2314.0	-1844.0
9	17	53	41	80	208.0	-164576.0	2273.0	-2483.0
9	17	53	41	81	209.0	-167597.0	2219.0	-2759.0
9	17	53	41	113	210.0	-170977.0	2168.0	-2279.0
9	17	53	41	113	211.0	-174524.0	2131.0	-1819.0
9	17	53	41	114	212.0	-177237.0	2094.0	-1564.0
9	17	53	41	115	213.0	-178825.0	2048.0	-1329.0
9	17	53	41	115	214.0	-180086.0	2028.0	-1216.0
9	17	53	41	116	215.0	-180436.0	1983.0	-1245.0
9	17	53	41	117	216.0	-179990.0	1941.0	-1542.0
9	17	53	41	117	217.0	-179441.0	1880.0	-1382.0
9	17	53	41	118	218.0	-178229.0	1842.0	-1236.0
9	17	53	41	118	219.0	-176257.0	1805.0	-1501.0
9	17	53	41	119	220.0	-175099.0	1759.0	-1856.0
9	17	53	41	120	221.0	-173949.0	1710.0	-1571.0
9	17	53	41	120	222.0	-172166.0	1652.0	-1884.0
9	17	53	41	121	223.0	-170902.0	1632.0	-2051.0
9	17	53	41	121	224.0	-169399.0	1583.0	-1421.0
9	17	53	41	122	226.0	-166261.0	1493.0	-2344.0
9	17	53	41	123	227.0	-164580.0	1447.0	-2271.0
9	17	53	41	123	228.0	-163031.0	1398.0	-1983.0
9	17	53	41	124	229.0	-161304.0	1346.0	-2109.0
9	17	53	41	124	230.0	-159003.0	1296.0	-2035.0
9	17	53	41	125	231.0	-157260.0	1258.0	-1851.0
9	17	53	41	158	232.0	-155498.0	1217.0	-1828.0
9	17	53	41	159	233.0	-153122.0	1173.0	-1315.0
9	17	53	41	160	234.0	-151332.0	1128.0	-1279.0
9	17	53	41	160	235.0	-149744.0	1084.0	-1564.0
9	17	53	41	161	236.0	-148447.0	1034.0	-1498.0
9	17	53	41	162	237.0	-147864.0	983.0	-1148.0
9	17	53	41	162	238.0	-147287.0	949.0	-1189.0
9	17	53	41	163	239.0	-146829.0	911.0	-1596.0
9	17	53	41	164	240.0	-146456.0	859.0	-1348.0
9	17	53	41	164	241.0	-145965.0	811.0	-1274.0
9	17	53	41	165	242.0	-145699.0	768.0	-1575.0
9	17	53	41	165	243.0	-145345.0	744.0	-1471.0
9	17	53	41	166	244.0	-145217.0	703.0	-1465.0
9	17	53	41	167	245.0	-145770.0	664.0	-1747.0
9	17	53	41	167	246.0	-146503.0	619.0	-1894.0
9	17	53	41	168	248.0	-148787.0	523.0	-1930.0
9	17	53	41	169	249.0	-150498.0	471.0	-1949.0
9	17	53	41	169	250.0	-153154.0	426.0	-2154.0
9	17	53	41	170	251.0	-156331.0	376.0	-1838.0
9	17	53	41	170	252.0	-159568.0	324.0	-1769.0
9	17	53	41	171	253.0	-163489.0	296.0	-1970.0
9	17	53	41	171	254.0	-167801.0	249.0	-1806.0
9	17	53	41	203	255.0	-172037.0	208.0	-1608.0
9	17	53	41	204	0.0	-176621.0	158.0	-1694.0
9	17	53	41	204	1.0	-180862.0	105.0	-1929.0
9	17	53	41	205	2.0	-184331.0	57.0	-2111.0
9	17	53	41	205	3.0	-187457.0	8.0	-2491.0
9	17	53	41	206	4.0	-189352.0	-51.0	-2191.0
9	17	53	41	207	5.0	-190191.0	-76.0	-1054.0
9	17	53	41	207	6.0	-190814.0	-108.0	-1257.0
9	17	53	41	208	7.0	-191269.0	-170.0	-1698.0
9	17	53	41	209	8.0	-190682.0	-219.0	-964.0
9	17	53	41	209	9.0	-189897.0	-261.0	-7.0
9	17	53	41	210	10.0	-188726.0	-294.0	159.0
9	17	53	41	210	11.0	-187044.0	-350.0	378.0
9	17	53	41	211	12.0	-184961.0	-401.0	1423.0
9	17	53	41	212	13.0	-182397.0	-447.0	2082.0
9	17	53	41	212	15.0	-177946.0	-531.0	2259.0
9	17	53	41	213	16.0	-174716.0	-570.0	302.0
9	17	53	41	213	17.0	-171526.0	-612.0	-2669.0
9	17	53	41	214	18.0	-168351.0	-672.0	-6436.0
9	17	53	41	215	19.0	-164692.0	-710.0	-11815.0
9	17	53	41	215	20.0	-161511.0	-746.0	-17402.0
9	17	53	41	248	21.0	-158831.0	-814.0	-21961.0
9	17	53	41	248	22.0	-156451.0	-847.0	-27484.0
9	17	53	41	249	23.0	-154555.0	-906.0	-34226.0
9	17	53	41	250	24.0	-152566.0	-964.0	-40361.0
9	17	53	41	250	25.0	-151007.0	-1019.0	-46864.0
9	17	53	41	251	26.0	-149309.0	-1047.0	-51902.0
9	17	53	41	251	27.0	-146978.0	-1098.0	-56113.0
9	17	53	41	252	28.0	-144196.0	-1132.0	-59457.0
9	17	53	41	253	29.0	-141414.0	-1166.0	-59020.0
9	17	53	41	253	30.0	-138869.0	-1202.0	-54099.0
9	17	53	41	254	31.0	-135961.0	-1251.0	-47712.0
9	17	53	41	255	32.0	-132450.0	-1309.0	-39836.0
9	17	53	41	255	33.0	-129416.0	-1346.0	-27199.0
9	17	53	41	256	34.0	-127210.0	-1409.0	-14022.0
9	17	53	41	256	35.0	-125436.0	-1452.0	-8173.0
9	17	53	41	257	37.0	-122726.0	-1524.0	-5094.0
9	17	53	41	257	38.0	-121978.0	-1568.0	-5668.0
9	17	53	41	258	39.0	-121717.0	-1629.0	-5556.0
9	17	53	41	259	40.0	-122319.0	-1670.0	-5297.0
9	17	53	41	259	41.0	-122967.0	-1711.0	-5569.0
9	17	53	41	260	42.0	-124177.0	-1762.0	-5802.0
9	17	53	41	260	43.0	-126448.0	-1807.0	-5617.0
9	17	53	41	293	44.0	-129951.0	-1852.0	-5743.0
9	17	53	41	293	45.0	-133642.0	-1911.0	-5631.0
9	17	53	41	294	46.0	-133474.0	-1938.0	-4954.0
9	17	53	41	295	47.0	-126281.0	-1972.0	-5244.0
9	17	53	41	295	48.0	-117216.0	-2018.0	-5295.0
9	17	53	41	296	49.0	-108877.0	-2074.0	-4594.0
9	17	53	41	297	50.0	-105269.0	-2116.0	-3962.0
9	17	53	41	297	51.0	-107778.0	-2163.0	-3902.0
9	17	53	41	298	52.0	-116173.0	-2194.0	-3735.0
9	17	53	41	298	53.0	-129219.0	-2249.0	-3671.0
9	17	53	41	299	54.0	-144078.0	-2296.0	-3631.0
9	17	53	41	300	55.0	-159372.0	-2345.0	-3330.0
9	17	53	41	300	56.0	-174835.0	-2385.0	-3537.0
9	17	53	41	301	57.0	-188844.0	-2419.0	-3731.0
9	17	53	41	301	58.0	-199397.0	-2455.0	-3655.0
9	17	53	41	302	60.0	-210969.0	-2545.0	-3462.0
9	17	53	41	303	61.0	-213691.0	-2588.0	-3301.0
9	17	53	41	303	62.0	-215383.0	-2622.0	-3367.0
9	17	53	41	304	63.0	-216858.0	-2681.0	-3449.0
9	17	53	41	304	64.0	-219656.0	-2731.0	-3261.0
9	17	53	41	305	65.0	-223552.0	-2769.0	-3451.0
9	17	53	41	337	66.0	-227755.0	-2809.0	-3390.0
9	17	53	41	338	67.0	-231286.0	-2861.0	-2904.0
9	17	53	41	338	68.0	-232846.0	-2907.0	-3177.0
9	17	53	41	339	69.0	-231305.0	-2953.0	-3567.0
9	17	53	41	340	70.0	-228156.0	-2974.0	-3141.0
9	17	53	41	340	71.0	-224801.0	-3016.0	-3084.0
9	17	53	41	341	72.0	-222026.0	-3073.0	-3484.0
9	17	53	41	342	73.0	-219627.0	-3139.0	-3450.0
9	17	53	41	342	74.0	-215394.0	-3174.0	-3027.0
9	17	53	41	343	75.0	-208204.0	-3208.0	-3202.0
9	17	53	41	343	76.0	-196924.0	-3247.0	-3041.0
9	17	53	41	344	77.0	-182517.0	-3289.0	-2406.0
9	17	53	41	345	78.0	-167465.0	-3336.0	-3341.0
9	17	53	41	345	79.0	-153566.0	-3366.0	-4212.0
9	17	53	41	346	80.0	-141119.0	-3420.0	-3768.0
9	17	53	41	346	82.0	-122841.0	-3507.0	-3941.0
9	17	53	41	347	83.0	-116412.0	-3562.0	-4184.0
9	17	53	41	348	84.0	-111253.0	-3610.0	-4150.0
9	17	53	41	348	85.0	-107777.0	-3653.0	-4081.0
9	17	53	41	349	86.0	-105556.0	-3696.0	-3696.0
9	17	53	41	350	87.0	-104867.0	-3752.0	-3941.0
9	17	53	41	383	88.0	-105304.0	-3802.0	-4269.0
9	17	53	41	384	89.0	-107014.0	-3841.0	-4683.0
9	17	53	41	385	90.0	-109537.0	-3881.0	-4779.0
9	17	53	41	385	91.0	-112307.0	-3918.0	-4994.0
9	17	53	41	386	92.0	-115632.0	-3961.0	-4910.0
9	17	53	41	387	93.0	-119376.0	-4022.0	-4949.0
9	17	53	41	387	94.0	-123511.0	-4069.0	-4854.0
9	17	53	41	388	95.0	-127967.0	-4114.0	-4541.0
9	17	53	41	388	96.0	-132484.0	-4157.0	-5189.0
9	17	53	41	389	97.0	-136647.0	-4177.0	-5586.0
9	17	53	41	390	98.0	-140240.0	-4224.0	-4969.0
9	17	53	41	390	99.0	-143062.0	-4286.0	-4542.0
9	17	53	41	391	100.0	-146109.0	-4345.0	-4984.0
9	17	53	41	392	101.0	-149361.0	-4391.0	-5351.0
9	17	53	41	392	102.0	-152919.0	-4432.0	-5672.0
9	17	53	41	393	104.0	-160577.0	-4527.0	-5442.0
9	17	53	41	393	105.0	-164206.0	-4574.0	-5641.0
9	17	53	41	394	106.0	-167306.0	-4616.0	-6155.0
9	17	53	41	395	107.0	-170152.0	-4659.0	-6030.0
9	17	53	41	395	108.0	-172707.0	-4716.0	-5954.0
9	17	53	41	396	109.0	-175114.0	-4764.0	-6209.0
9	17	53	41	396	110.0	-177114.0	-4825.0	-6446.0
9	17	53	41	428	111.0	-179102.0	-4880.0	-6390.0
9	17	53	41	429	112.0	-180966.0	-4921.0	-6756.0
9	17	53	41	429	113.0	-182782.0	-4945.0	-7104.0
9	17	53	41	430	114.0	-184467.0	-5005.0	-6984.0
9	17	53	41	431	115.0	-185761.0	-5054.0	-7159.0
9	17	53	41	431	116.0	-186753.0	-5093.0	-7214.0
9	17	53	41	432	117.0	-187129.0	-5134.0	-7151.0
9	17	53	41	433	118.0	-186806.0	-5186.0	-7314.0
9	17	53	41	433	119.0	-186010.0	-5234.0	-7690.0
9	17	53	41	434	120.0	-184623.0	-5289.0	-7866.0
9	17	53	41	434	121.0	-182639.0	-5336.0	-8330.0
9	17	53	41	435	122.0	-180386.0	-5367.0	-8444.0
9	17	53	41	436	123.0	-178076.0	-5404.0	-8564.0
9	17	53	41	436	124.0	-175909.0	-5441.0	-8919.0
9	17	53	41	437	125.0	-173893.0	-5467.0	-8929.0
9	17	53	41	437	127.0	-170887.0	-5540.0	-9204.0
9	17	53	41	438	128.0	-169969.0	-5567.0	-9413.0
9	17	53	41	439	129.0	-169101.0	-5587.0	-9117.0
9	17	53	41	439	130.0	-168598.0	-5607.0	-9264.0
9	17	53	41	440	131.0	-168431.0	-5627.0	-9675.0
9	17	53	41	441	132.0	-168888.0	-5661.0	-9644.0
9	17	53	41	473	133.0	-170281.0	-5681.0	-9960.0
9	17	53	41	474	134.0	-172033.0	-5687.0	-10566.0
9	17	53	41	474	135.0	-174187.0	-5682.0	-10079.0
9	17	53	41	475	136.0	-176215.0	-5679.0	-9878.0
9	17	53	41	476	137.0	-178130.0	-5670.0	-10527.0
9	17	53	41	476	138.0	-180005.0	-5657.0	-10538.0
9	17	53	41	477	139.0	-181546.0	-5638.0	-10349.0
9	17	53	41	478	140.0	-182842.0	-5615.0	-10523.0
9	17	53	41	478	141.0	-183884.0	-5604.0	-10522.0
9	17	53	41	479	142.0	-184646.0	-5592.0	-10323.0
9	17	53	41	480	143.0	-185206.0	-5561.0	-10436.0
9	17	53	41	480	144.0	-185874.0	-5536.0	-10071.0
9	17	53	41	481	145.0	-185859.0	-5490.0	-9656.0
9	17	53	41	482	146.0	-184816.0	-5431.0	-10274.0
9	17	53	41	483	147.0	-183019.0	-5388.0	-9987.0
9	17	53	41	484	149.0	-178655.0	-5254.0	-8114.0
9	17	53	41	484	150.0	-175966.0	-5194.0	-7993.0
9	17	53	41	485	151.0	-173048.0	-5147.0	-7976.0
9	17	53	41	485	152.0	-170109.0	-5069.0	-7254.0
9	17	53	41	486	153.0	-167761.0	-4997.0	-6767.0
9	17	53	41	518	154.0	-165685.0	-4927.0	-6383.0
9	17	53	41	519	155.0	-163696.0	-4842.0	-5913.0
9	17	53	41	519	156.0	-161634.0	-4724.0	-5215.0
9	17	53	41	520	157.0	-159597.0	-4628.0	-4943.0
9	17	53	41	521	158.0	-158131.0	-4536.0	-5248.0
9	17	53	41	521	159.0	-157087.0	-4446.0	-4766.0
9	17	53	41	522	160.0	-156067.0	-4334.0	-4192.0
9	17	53	41	523	161.0	-155014.0	-4241.0	-4057.0
9	17	53	41	523	162.0	-153699.0	-4125.0	-3803.0
9	17	53	41	524	163.0	-152208.0	-4016.0	-3214.0
9	17	53	41	525	164.0	-150455.0	-3894.0	-2766.0
9	17	53	41	525	165.0	-148996.0	-3769.0	-2447.0
9	17	53	41	526	166.0	-148339.0	-3637.0	-1902.0
9	17	53	41	526	167.0	-148393.0	-3514.0	-1730.0
9	17	53	41	527	168.0	-148905.0	-3387.0	-1988.0
9	17	53	41	528	169.0	-150004.0	-3274.0	-1661.0
9	17	53	41	528	172.0	-156353.0	-2884.0	-1324.0
9	17	53	41	529	173.0	-158828.0	-2724.0	-1209.0
9	17	53	41	529	174.0	-161485.0	-2597.0	-1382.0
9	17	53	41	530	175.0	-163769.0	-2481.0	-1102.0
9	17	53	41	531	176.0	-165371.0	-2336.0	-589.0
9	17	53	41	531	177.0	-166797.0	-2199.0	-292.0
9	17	53	41	532	178.0	-168157.0	-2091.0	-517.0
9	17	53	41	563	179.0	-169489.0	-1944.0	-482.0
9	17	53	41	564	180.0	-170826.0	-1812.0	-247.0
9	17	53	41	564	181.0	-172076.0	-1681.0	-519.0
9	17	53	41	565	182.0	-173445.0	-1560.0	-539.0
9	17	53	41	565	183.0	-174871.0	-1447.0	-471.0
9	17	53	41	608	184.0	-176194.0	-1311.0	-403.0
9	17	53	41	609	185.0	-177297.0	-1177.0	-76.0
9	17	53	41	609	186.0	-178126.0	-1055.0	96.0
9	17	53	41	610	187.0	-178277.0	-944.0	25.0
9	17	53	41	611	188.0	-177901.0	-811.0	-174.0
9	17	53	41	611	189.0	-177268.0	-685.0	-343.0
9	17	53	41	612	190.0	-176443.0	-578.0	-336.0
9	17	53	41	613	191.0	-175517.0	-456.0	-499.0
9	17	53	41	613	192.0	-174811.0	-337.0	-491.0
9	17	53	41	653	193.0	-174195.0	-239.0	-883.0
9	17	53	41	654	194.0	-173401.0	-130.0	-900.0
9	17	53	41	655	195.0	-171187.0	-34.0	-422.0
9	17	53	41	656	196.0	-167891.0	74.0	240.0
9	17	53	41	657	197.0	-165465.0	183.0	498.0
9	17	53	41	657	198.0	-165082.0	281.0	139.0
9	17	53	41	658	199.0	-166717.0	373.0	-123.0
9	17	53	41	659	217.0	-160061.0	1718.0	697.0
9	17	53	41	659	218.0	-163389.0	1764.0	433.0
9	17	53	41	660	219.0	-165800.0	1835.0	294.0
9	17	53	41	661	220.0	-167261.0	1884.0	233.0
9	17	53	41	661	221.0	-167444.0	1938.0	179.0
9	17	53	41	662	222.0	-166915.0	1996.0	177.0
9	17	53	41	663	223.0	-165280.0	2063.0	468.0
9	17	53	41	663	224.0	-162836.0	2108.0	705.0
9	17	53	41	664	225.0	-159132.0	2166.0	917.0
9	17	53	41	665	240.0	-146248.0	2870.0	1469.0
9	17	53	41	665	241.0	-147056.0	2915.0	757.0
9	17	53	41	666	242.0	-148537.0	2940.0	423.0
9	17	53	41	667	243.0	-150029.0	2981.0	1204.0
9	17	53	41	667	244.0	-151745.0	3006.0	1211.0
9	17	53	41	668	245.0	-152949.0	3041.0	839.0
9	17	53	41	698	246.0	-153631.0	3071.0	1661.0
9	17	53	41	699	247.0	-153632.0	3105.0	1969.0
9	17	53	41	700	248.0	-153290.0	3131.0	1793.0
9	17	53	41	700	249.0	-153096.0	3154.0	1743.0
9	17	53	41	701	250.0	-152686.0	3178.0	1786.0
9	17	53	41	702	251.0	-152052.0	3212.0	1693.0
9	17	53	41	703	252.0	-151313.0	3241.0	1624.0
9	17	53	41	703	253.0	-150882.0	3246.0	1669.0
9	17	53	41	704	254.0	-150686.0	3263.0	1623.0
9	17	53	41	704	255.0	-150702.0	3282.0	1838.0
9	17	53	41	705	0.0	-151539.0	3318.0	1919.0
9	17	53	41	706	1.0	-153081.0	3347.0	1876.0
9	17	53	41	706	2.0	-155165.0	3351.0	1837.0
9	17	53	41	707	3.0	-158162.0	3363.0	1779.0
9	17	53	41	708	4.0	-161641.0	3384.0	1407.0
9	17	53	41	708	6.0	-168593.0	3413.0	1729.0
9	17	53	41	709	7.0	-172076.0	3409.0	1473.0
9	17	53	41	709	8.0	-175087.0	3410.0	1819.0
9	17	53	41	710	9.0	-177664.0	3430.0	2158.0
9	17	53	41	711	10.0	-180554.0	3441.0	1942.0
9	17	53	41	711	11.0	-183719.0	3438.0	1937.0
9	17	53	41	743	12.0	-186453.0	3429.0	2006.0
9	17	53	41	743	13.0	-188656.0	3449.0	1883.0
9	17	53	41	744	14.0	-190566.0	3465.0	1620.0
9	17	53	41	745	15.0	-191806.0	3453.0	2138.0
9	17	53	41	746	16.0	-192341.0	3458.0	2370.0
9	17	53	41	746	17.0	-192021.0	3474.0	1776.0
9	17	53	41	747	18.0	-191620.0	3471.0	2171.0
9	17	53	41	747	19.0	-190357.0	3466.0	2613.0
9	17	53	41	748	20.0	-188466.0	3459.0	2389.0
9	17	53	41	749	21.0	-186348.0	3467.0	2567.0
9	17	53	41	749	22.0	-183422.0	3486.0	2553.0
9	17	53	41	750	23.0	-180214.0	3494.0	2224.0
9	17	53	41	751	24.0	-177787.0	3499.0	2179.0
9	17	53	41	751	25.0	-175358.0	3511.0	2637.0
9	17	53	41	752	26.0	-172182.0	3504.0	2648.0
9	17	53	41	753	28.0	-166834.0	3469.0	2843.0
9	17	53	41	753	29.0	-164389.0	3486.0	3037.0
9	17	53	41	754	30.0	-162068.0	3489.0	3143.0
9	17	53	41	754	31.0	-159538.0	3515.0	3243.0
9	17	53	41	755	32.0	-158027.0	3543.0	2798.0
9	17	53	41	756	33.0	-156156.0	3538.0	2922.0
9	17	53	41	756	34.0	-154099.0	3520.0	2965.0
9	17	53	41	787	35.0	-152152.0	3533.0	2753.0
9	17	53	41	788	36.0	-149816.0	3534.0	3073.0
9	17	53	41	788	37.0	-147902.0	3529.0	3258.0
9	17	53	41	789	38.0	-146944.0	3545.0	2931.0
9	17	53	41	789	39.0	-145984.0	3553.0	2583.0
9	17	53	41	790	40.0	-145217.0	3559.0	2999.0
9	17	53	41	791	41.0	-144502.0	3577.0	3052.0
9	17	53	41	791	42.0	-143363.0	3568.0	3121.0
9	17	53	41	833	43.0	-143187.0	3574.0	3232.0
9	17	53	41	834	44.0	-141835.0	3581.0	3039.0
9	17	53	41	835	45.0	-139077.0	3594.0	3048.0
9	17	53	41	836	46.0	-135608.0	3600.0	2988.0
9	17	53	41	836	47.0	-131283.0	3588.0	2903.0
9	17	53	41	837	48.0	-127146.0	3575.0	2980.0
9	17	53	41	838	49.0	-123143.0	3590.0	3120.0
9	17	53	41	838	51.0	-116141.0	3598.0	2991.0
9	17	53	41	839	52.0	-113351.0	3611.0	3161.0
9	17	53	41	840	53.0	-111332.0	3625.0	2735.0
9	17	53	41	840	54.0	-109953.0	3620.0	2434.0
9	17	53	41	841	55.0	-109756.0	3601.0	2833.0
9	17	53	41	842	56.0	-110022.0	3587.0	3146.0
9	17	53	41	842	57.0	-111199.0	3589.0	3104.0
9	17	53	41	843	58.0	-113761.0	3599.0	2998.0
9	17	53	41	844	59.0	-116302.0	3598.0	3515.0
9	17	53	41	844	73.0	-178507.0	3449.0	3568.0
9	17	53	41	845	74.0	-181555.0	3430.0	4018.0
9	17	53	41	845	75.0	-184382.0	3404.0	3353.0
9	17	53	41	846	76.0	-186687.0	3389.0	2902.0
9	17	53	41	847	77.0	-188697.0	3379.0	3508.0
9	17	53	41	847	78.0	-189652.0	3349.0	3611.0
9	17	53	41	848	79.0	-190352.0	3310.0	3624.0
9	17	53	41	878	80.0	-190334.0	3307.0	4028.0
9	17	53	41	879	81.0	-190224.0	3280.0	4055.0
9	17	53	41	879	82.0	-189962.0	3271.0	3984.0
9	17	53	41	880	83.0	-189286.0	3241.0	3916.0
9	17	53	41	881	84.0	-188322.0	3209.0	3594.0
9	17	53	41	881	85.0	-187576.0	3185.0	3615.0
9	17	53	41	882	86.0	-187177.0	3131.0	3605.0
9	17	53	41	883	87.0	-187659.0	3133.0	3144.0
9	17	53	41	883	88.0	-189598.0	3105.0	3629.0
9	17	53	41	884	89.0	-190995.0	3076.0	4415.0
9	17	53	41	885	90.0	-192287.0	3043.0	4463.0
9	17	53	41	885	91.0	-192984.0	2991.0	4263.0
9	17	53	41	886	92.0	-192829.0	2974.0	4230.0
9	17	53	41	887	93.0	-191577.0	2953.0	4309.0
9	17	53	41	887	94.0	-189592.0	2915.0	3896.0
9	17	53	41	888	96.0	-185382.0	2853.0	3849.0
9	17	53	41	889	97.0	-182782.0	2815.0	3884.0
9	17	53	41	889	98.0	-180357.0	2783.0	4217.0
9	17	53	41	890	99.0	-177449.0	2746.0	4341.0
9	17	53	41	890	100.0	-174479.0	2701.0	4129.0
9	17	53	41	891	101.0	-171899.0	2673.0	4188.0
9	17	53	41	923	102.0	-169308.0	2643.0	3890.0
9	17	53	41	924	103.0	-166686.0	2606.0	3755.0
9	17	53	41	924	104.0	-165236.0	2561.0	3985.0
9	17	53	41	925	105.0	-164313.0	2513.0	3954.0
9	17	53	41	926	106.0	-163945.0	2475.0	3787.0
9	17	53	41	926	107.0	-164013.0	2436.0	3987.0
9	17	53	41	927	108.0	-164469.0	2390.0	4221.0
9	17	53	41	928	109.0	-164961.0	2357.0	3845.0
9	17	53	41	928	110.0	-165122.0	2321.0	3899.0
9	17	53	41	929	111.0	-165473.0	2271.0	4313.0
9	17	53	41	929	112.0	-165909.0	2234.0	4173.0
9	17	53	41	930	113.0	-166692.0	2196.0	3776.0
9	17	53	41	931	114.0	-167091.0	2156.0	4019.0
9	17	53	41	931	115.0	-167631.0	2106.0	3816.0
9	17	53	41	932	116.0	-167932.0	2074.0	3558.0
9	17	53	41	933	118.0	-169260.0	1972.0	4047.0
9	17	53	41	933	119.0	-170525.0	1928.0	3916.0
9	17	53	41	934	120.0	-171347.0	1879.0	3938.0
9	17	53	41	935	121.0	-171831.0	1838.0	3951.0
9	17	53	41	935	122.0	-171962.0	1794.0	3636.0
9	17	53	41	936	123.0	-171661.0	1735.0	3891.0
9	17	53	41	936	124.0	-171372.0	1691.0	3716.0
9	17	53	41	968	125.0	-170652.0	1651.0	3859.0
9	17	53	41	969	126.0	-169681.0	1604.0	3854.0
9	17	53	41	970	127.0	-168636.0	1554.0	3955.0
9	17	53	41	971	128.0	-168165.0	1496.0	3876.0
9	17	53	41	971	129.0	-167867.0	1443.0	3704.0
9	17	53	41	972	130.0	-167627.0	1418.0	3269.0
9	17	53	41	972	131.0	-166843.0	1381.0	3301.0
9	17	53	41	973	132.0	-166024.0	1329.0	3370.0
9	17	53	41	974	133.0	-165111.0	1278.0	3091.0
9	17	53	41	974	134.0	-163525.0	1211.0	2931.0
9	17	53	41	975	135.0	-161884.0	1174.0	3335.0
9	17	53	41	976	136.0	-159898.0	1129.0	3119.0
9	17	53	41	976	137.0	-157986.0	1077.0	3089.0
9	17	53	41	977	138.0	-156353.0	1034.0	3788.0
9	17	53	41	978	139.0	-154805.0	1003.0	4385.0
9	17	53	41	978	140.0	-153744.0	956.0	4381.0
9	17	53	41	979	141.0	-152590.0	913.0	4547.0
9	17	53	41	980	142.0	-151812.0	867.0	4517.0
9	17	53	41	980	143.0	-151523.0	812.0	3804.0
9	17	53	41	981	144.0	-151367.0	774.0	3734.0
9	17	53	41	981	145.0	-151164.0	711.0	4222.0
9	17	53	41	982	146.0	-150865.0	679.0	4309.0
9	17	53	42	13	147.0	-150271.0	629.0	4055.0
9	17	53	42	31	148.0	-149983.0	580.0	4529.0
9	17	53	42	32	149.0	-150033.0	549.0	4697.0
9	17	53	42	32	150.0	-150334.0	484.0	4714.0
9	17	53	42	33	151.0	-150386.0	454.0	4864.0
9	17	53	42	33	152.0	-150849.0	421.0	4648.0
9	17	53	42	34	153.0	-151864.0	366.0	4311.0
9	17	53	42	35	154.0	-152860.0	335.0	4444.0
9	17	53	42	35	155.0	-154030.0	283.0	4731.0
9	17	53	42	36	156.0	-155212.0	231.0	4724.0
9	17	53	42	36	157.0	-156127.0	196.0	4484.0
9	17	53	42	37	158.0	-156923.0	132.0	4576.0
9	17	53	42	37	159.0	-158035.0	103.0	4599.0
9	17	53	42	38	160.0	-158882.0	48.0	4721.0
9	17	53	42	39	161.0	-159398.0	3.0	4723.0
9	17	53	42	39	163.0	-161343.0	-74.0	4596.0
9	17	53	42	40	164.0	-162289.0	-108.0	4454.0
9	17	53	42	40	165.0	-163103.0	-164.0	3923.0
9	17	53	42	41	166.0	-164642.0	-193.0	3924.0
9	17	53	42	41	167.0	-166622.0	-239.0	4381.0
9	17	53	42	42	168.0	-168267.0	-289.0	4211.0
9	17	53	42	58	169.0	-169697.0	-329.0	4544.0
9	17	53	42	59	170.0	-171342.0	-375.0	4541.0
9	17	53	42	59	171.0	-172733.0	-427.0	4588.0
9	17	53	42	60	172.0	-173126.0	-456.0	5198.0
9	17	53	42	61	173.0	-173321.0	-499.0	5636.0
9	17	53	42	61	174.0	-173497.0	-545.0	6256.0
9	17	53	42	62	175.0	-173204.0	-577.0	6874.0
9	17	53	42	63	176.0	-172289.0	-609.0	7955.0
9	17	53	42	63	177.0	-171379.0	-679.0	8814.0
9	17	53	42	64	178.0	-170099.0	-714.0	8956.0
9	17	53	42	103	179.0	-167774.0	-764.0	8479.0
9	17	53	42	104	180.0	-164738.0	-805.0	6308.0
9	17	53	42	105	181.0	-161122.0	-837.0	2906.0
9	17	53	42	105	182.0	-157471.0	-894.0	-1157.0
9	17	53	42	106	183.0	-153716.0	-932.0	-6971.0
9	17	53	42	107	185.0	-145721.0	-1013.0	-16992.0
9	17	53	42	107	186.0	-142276.0	-1072.0	-22071.0
9	17	53	42	108	187.0	-139013.0	-1107.0	-28760.0
9	17	53	42	109	188.0	-135607.0	-1156.0	-35580.0
9	17	53	42	109	189.0	-132544.0	-1192.0	-41844.0
9	17	53	42	110	190.0	-130320.0	-1219.0	-47189.0
9	17	53	42	111	191.0	-127872.0	-1266.0	-50984.0
9	17	53	42	111	192.0	-125563.0	-1322.0	-53693.0
9	17	53	42	112	193.0	-124246.0	-1368.0	-52991.0
9	17	53	42	112	194.0	-123241.0	-1405.0	-47719.0
9	17	53	42	113	195.0	-122147.0	-1437.0	-40988.0
9	17	53	42	114	208.0	-148634.0	-2042.0	-1373.0
9	17	53	42	114	209.0	-151969.0	-2087.0	-1424.0
9	17	53	42	115	210.0	-152342.0	-2144.0	-1138.0
9	17	53	42	116	211.0	-145857.0	-2185.0	-790.0
9	17	53	42	116	212.0	-135402.0	-2221.0	-702.0
9	17	53	42	117	213.0	-124393.0	-2271.0	-624.0
9	17	53	42	117	214.0	-115671.0	-2327.0	-169.0
9	17	53	42	148	215.0	-112152.0	-2364.0	-285.0
9	17	53	42	149	216.0	-115337.0	-2416.0	-267.0
9	17	53	42	150	217.0	-122297.0	-2446.0	479.0
9	17	53	42	151	218.0	-130987.0	-2510.0	676.0
9	17	53	42	151	219.0	-140279.0	-2554.0	481.0
9	17	53	42	152	220.0	-149367.0	-2577.0	742.0
9	17	53	42	152	221.0	-156387.0	-2624.0	491.0
9	17	53	42	153	222.0	-160262.0	-2671.0	-32.0
9	17	53	42	154	223.0	-160801.0	-2722.0	74.0
9	17	53	42	154	224.0	-158302.0	-2766.0	89.0
9	17	53	42	155	225.0	-154112.0	-2808.0	174.0
9	17	53	42	156	226.0	-150297.0	-2852.0	102.0
9	17	53	42	156	227.0	-147417.0	-2901.0	331.0
9	17	53	42	157	228.0	-146844.0	-2945.0	509.0
9	17	53	42	157	229.0	-149789.0	-2982.0	148.0
9	17	53	42	158	230.0	-154935.0	-3012.0	-16.0
9	17	53	42	159	231.0	-160516.0	-3059.0	229.0
9	17	53	42	159	232.0	-165159.0	-3111.0	21.0
9	17	53	42	160	233.0	-167389.0	-3151.0	-366.0
9	17	53	42	160	234.0	-168203.0	-3203.0	-482.0
9	17	53	42	161	235.0	-169322.0	-3256.0	-714.0
9	17	53	42	162	236.0	-171479.0	-3296.0	-862.0
9	17	53	42	193	237.0	-174343.0	-3329.0	-729.0
9	17	53	42	193	238.0	-176568.0	-3372.0	-531.0
9	17	53	42	194	239.0	-175944.0	-3412.0	-769.0
9	17	53	42	195	240.0	-171926.0	-3448.0	-1109.0
9	17	53	42	195	241.0	-165582.0	-3497.0	-1292.0
9	17	53	42	196	242.0	-158322.0	-3534.0	-984.0
9	17	53	42	197	243.0	-151736.0	-3586.0	-1076.0
9	17	53	42	197	244.0	-146616.0	-3629.0	-906.0
9	17	53	42	198	245.0	-143484.0	-3661.0	-942.0
9	17	53	42	199	246.0	-142192.0	-3717.0	-1036.0
9	17	53	42	200	247.0	-142462.0	-3747.0	-1020.0
9	17	53	42	200	248.0	-143391.0	-3813.0	-1279.0
9	17	53	42	201	249.0	-144459.0	-3856.0	-1153.0
9	17	53	42	201	250.0	-145206.0	-3895.0	-984.0
9	17	53	42	202	251.0	-146119.0	-3951.0	-1322.0
9	17	53	42	203	253.0	-149491.0	-4022.0	-1972.0
9	17	53	42	203	254.0	-150801.0	-4071.0	-1954.0
9	17	53	42	204	255.0	-152252.0	-4122.0	-1971.0
9	17	53	42	205	0.0	-154066.0	-4156.0	-2012.0
9	17	53	42	205	1.0	-155269.0	-4214.0	-1875.0
9	17	53	42	206	2.0	-156712.0	-4260.0	-1797.0
9	17	53	42	248	3.0	-157646.0	-4291.0	-1893.0
9	17	53	42	249	4.0	-158099.0	-4335.0	-2328.0
9	17	53	42	249	5.0	-157609.0	-4379.0	-2514.0
9	17	53	42	250	6.0	-157157.0	-4424.0	-2822.0
9	17	53	42	250	7.0	-157331.0	-4480.0	-3070.0
9	17	53	42	251	8.0	-157477.0	-4524.0	-3244.0
9	17	53	42	252	9.0	-157576.0	-4572.0	-3263.0
9	17	53	42	252	10.0	-157861.0	-4617.0	-3077.0
9	17	53	42	253	11.0	-158649.0	-4659.0	-3049.0
9	17	53	42	253	12.0	-158981.0	-4719.0	-2825.0
9	17	53	42	254	13.0	-158454.0	-4776.0	-2779.0
9	17	53	42	254	14.0	-157973.0	-4811.0	-3468.0
9	17	53	42	255	15.0	-157067.0	-4842.0	-3841.0
9	17	53	42	256	16.0	-155437.0	-4889.0	-3806.0
9	17	53	42	256	17.0	-153956.0	-4946.0	-4031.0
9	17	53	42	257	19.0	-152012.0	-5029.0	-4390.0
9	17	53	42	257	20.0	-151039.0	-5100.0	-4039.0
9	17	53	42	258	21.0	-150291.0	-5144.0	-4630.0
9	17	53	42	259	22.0	-149539.0	-5196.0	-4475.0
9	17	53	42	259	23.0	-148909.0	-5231.0	-4731.0
9	17	53	42	260	24.0	-148239.0	-5254.0	-5224.0
9	17	53	42	260	25.0	-147872.0	-5306.0	-5531.0
9	17	53	42	283	26.0	-147801.0	-5359.0	-5929.0
9	17	53	42	284	27.0	-147570.0	-5394.0	-6141.0
9	17	53	42	284	28.0	-147549.0	-5447.0	-6358.0
9	17	53	42	285	29.0	-147891.0	-5506.0	-6581.0
9	17	53	42	286	30.0	-148217.0	-5551.0	-6590.0
9	17	53	42	287	31.0	-148706.0	-5600.0	-6639.0
9	17	53	42	287	32.0	-149459.0	-5629.0	-6551.0
9	17	53	42	288	33.0	-150299.0	-5656.0	-6676.0
9	17	53	42	289	34.0	-150822.0	-5695.0	-7036.0
9	17	53	42	289	35.0	-151825.0	-5733.0	-7179.0
9	17	53	42	290	36.0	-153266.0	-5761.0	-7686.0
9	17	53	42	291	37.0	-154820.0	-5787.0	-7857.0
9	17	53	42	291	38.0	-156419.0	-5818.0	-8131.0
9	17	53	42	292	39.0	-158006.0	-5846.0	-8842.0
9	17	53	42	293	40.0	-159922.0	-5867.0	-8247.0
9	17	53	42	293	42.0	-164232.0	-5908.0	-7904.0
9	17	53	42	294	43.0	-166780.0	-5897.0	-7864.0
9	17	53	42	294	44.0	-169352.0	-5897.0	-8226.0
9	17	53	42	295	45.0	-171492.0	-5921.0	-8551.0
9	17	53	42	296	46.0	-173144.0	-5915.0	-8894.0
9	17	53	42	296	47.0	-174641.0	-5915.0	-8779.0
9	17	53	42	327	48.0	-175957.0	-5909.0	-8950.0
9	17	53	42	328	49.0	-176272.0	-5895.0	-9196.0
9	17	53	42	328	50.0	-175939.0	-5871.0	-8892.0
9	17	53	42	329	51.0	-175341.0	-5851.0	-8837.0
9	17	53	42	329	52.0	-174562.0	-5822.0	-8493.0
9	17	53	42	330	53.0	-173304.0	-5785.0	-8076.0
9	17	53	42	330	54.0	-172339.0	-5726.0	-8239.0
9	17	53	42	331	55.0	-171113.0	-5697.0	-8042.0
9	17	53	42	332	56.0	-169767.0	-5648.0	-7478.0
9	17	53	42	332	57.0	-168477.0	-5589.0	-7131.0
9	17	53	42	333	58.0	-167195.0	-5552.0	-7277.0
9	17	53	42	334	59.0	-165944.0	-5502.0	-6816.0
9	17	53	42	334	60.0	-165049.0	-5422.0	-5919.0
9	17	53	42	335	61.0	-164340.0	-5351.0	-5559.0
9	17	53	42	336	62.0	-163464.0	-5284.0	-5107.0
9	17	53	42	336	64.0	-162601.0	-5102.0	-4329.0
9	17	53	42	337	65.0	-161978.0	-5015.0	-4022.0
9	17	53	42	337	66.0	-161662.0	-4924.0	-3589.0
9	17	53	42	338	67.0	-161870.0	-4836.0	-3147.0
9	17	53	42	338	68.0	-161814.0	-4755.0	-3017.0
9	17	53	42	347	69.0	-161811.0	-4652.0	-2626.0
9	17	53	42	373	70.0	-161712.0	-4552.0	-2294.0
9	17	53	42	374	71.0	-161815.0	-4454.0	-1868.0
9	17	53	42	374	72.0	-161695.0	-4344.0	-1624.0
9	17	53	42	375	73.0	-161222.0	-4228.0	-1283.0
9	17	53	42	375	74.0	-160776.0	-4112.0	-1196.0
9	17	53	42	376	75.0	-159712.0	-3993.0	-963.0
9	17	53	42	377	76.0	-158022.0	-3881.0	-1184.0
9	17	53	42	377	77.0	-156273.0	-3747.0	-1167.0
9	17	53	42	378	78.0	-155218.0	-3617.0	-999.0
9	17	53	42	378	79.0	-154378.0	-3506.0	-844.0
9	17	53	42	379	80.0	-153984.0	-3367.0	-717.0
9	17	53	42	379	81.0	-154105.0	-3246.0	131.0
9	17	53	42	380	82.0	-153984.0	-3109.0	-81.0
9	17	53	42	380	83.0	-153366.0	-2981.0	64.0
9	17	53	42	381	84.0	-152594.0	-2852.0	225.0
9	17	53	42	382	87.0	-149648.0	-2480.0	-525.0
9	17	53	42	382	88.0	-148555.0	-2359.0	-274.0
9	17	53	42	383	89.0	-147626.0	-2221.0	-706.0
9	17	53	42	383	90.0	-146404.0	-2096.0	-388.0
9	17	53	42	384	91.0	-145438.0	-1975.0	348.0
9	17	53	42	384	92.0	-145087.0	-1844.0	580.0
9	17	53	42	417	93.0	-144912.0	-1716.0	666.0
9	17	53	42	418	94.0	-144889.0	-1593.0	679.0
9	17	53	42	419	95.0	-145169.0	-1479.0	361.0
9	17	53	42	420	96.0	-146140.0	-1374.0	301.0
9	17	53	42	420	97.0	-147073.0	-1253.0	424.0
9	17	53	42	421	98.0	-148154.0	-1119.0	174.0
9	17	53	42	421	99.0	-149940.0	-1014.0	290.0
9	17	53	42	422	100.0	-152228.0	-921.0	204.0
9	17	53	42	423	101.0	-154211.0	-818.0	256.0
9	17	53	42	423	102.0	-154504.0	-729.0	198.0
9	17	53	42	424	103.0	-153909.0	-609.0	552.0
9	17	53	42	424	104.0	-154197.0	-494.0	491.0
9	17	53	42	425	105.0	-157671.0	-393.0	228.0
9	17	53	42	425	106.0	-163697.0	-284.0	-21.0
9	17	53	42	426	107.0	-173947.0	-226.0	-79.0
9	17	53	42	426	109.0	-194643.0	-47.0	-273.0
9	17	53	42	427	110.0	-200048.0	44.0	-82.0
9	17	53	42	428	111.0	-203881.0	104.0	239.0
9	17	53	42	428	112.0	-205441.0	194.0	435.0
9	17	53	42	429	113.0	-206539.0	280.0	228.0
9	17	53	42	429	114.0	-206440.0	366.0	510.0
9	17	53	42	462	115.0	-205361.0	428.0	858.0
9	17	53	42	462	116.0	-203469.0	504.0	501.0
9	17	53	42	463	117.0	-200655.0	592.0	212.0
9	17	53	42	464	118.0	-196966.0	664.0	357.0
9	17	53	42	464	119.0	-193856.0	711.0	485.0
9	17	53	42	465	120.0	-192501.0	765.0	64.0
9	17	53	42	465	121.0	-193037.0	834.0	101.0
9	17	53	42	466	122.0	-193912.0	883.0	258.0
9	17	53	42	466	123.0	-194721.0	958.0	131.0
9	17	53	42	467	124.0	-195517.0	1024.0	212.0
9	17	53	42	468	125.0	-194942.0	1094.0	783.0
9	17	53	42	468	126.0	-193236.0	1161.0	492.0
9	17	53	42	469	127.0	-189291.0	1203.0	549.0
9	17	53	42	469	128.0	-183953.0	1241.0	1156.0
9	17	53	42	470	129.0	-177391.0	1294.0	1041.0
9	17	53	42	478	131.0	-160876.0	1384.0	1425.0
9	17	53	42	479	132.0	-152539.0	1448.0	1353.0
9	17	53	42	479	133.0	-145182.0	1504.0	1709.0
9	17	53	42	480	134.0	-139080.0	1548.0	1769.0
9	17	53	42	480	135.0	-134742.0	1595.0	1586.0
9	17	53	42	481	136.0	-132374.0	1643.0	1616.0
9	17	53	42	481	137.0	-131596.0	1706.0	1434.0
9	17	53	42	508	138.0	-131582.0	1748.0	763.0
9	17	53	42	509	139.0	-131804.0	1795.0	686.0
9	17	53	42	510	140.0	-132166.0	1828.0	791.0
9	17	53	42	510	141.0	-132186.0	1848.0	729.0
9	17	53	42	511	142.0	-131569.0	1896.0	910.0
9	17	53	42	511	143.0	-130857.0	1948.0	1580.0
9	17	53	42	512	144.0	-130757.0	1993.0	1669.0
9	17	53	42	512	145.0	-130996.0	2021.0	1554.0
9	17	53	42	513	146.0	-131704.0	2054.0	1463.0
9	17	53	42	514	147.0	-132771.0	2076.0	1572.0
9	17	53	42	514	148.0	-134341.0	2121.0	1716.0
9	17	53	42	515	149.0	-136200.0	2141.0	2443.0
9	17	53	42	515	150.0	-138682.0	2161.0	2319.0
9	17	53	42	516	151.0	-141677.0	2222.0	2507.0
9	17	53	42	517	152.0	-145216.0	2259.0	3021.0
9	17	53	42	517	154.0	-153140.0	2290.0	2815.0
9	17	53	42	518	155.0	-157849.0	2313.0	3658.0
9	17	53	42	518	156.0	-162454.0	2339.0	5627.0
9	17	53	42	519	157.0	-166402.0	2378.0	6455.0
9	17	53	42	520	158.0	-170182.0	2401.0	6753.0
9	17	53	42	520	159.0	-173745.0	2409.0	7948.0
9	17	53	42	552	160.0	-177122.0	2408.0	8256.0
9	17	53	42	553	161.0	-180192.0	2426.0	8635.0
9	17	53	42	554	162.0	-182749.0	2437.0	9034.0
9	17	53	42	577	163.0	-184979.0	2456.0	8824.0
9	17	53	42	577	164.0	-187100.0	2475.0	8196.0
9	17	53	42	578	165.0	-188754.0	2473.0	7802.0
9	17	53	42	578	166.0	-190194.0	2491.0	7678.0
9	17	53	42	579	167.0	-190895.0	2510.0	7368.0
9	17	53	42	579	168.0	-191089.0	2524.0	7003.0
9	17	53	42	580	169.0	-190634.0	2534.0	6842.0
9	17	53	42	581	170.0	-189982.0	2535.0	6835.0
9	17	53	42	581	171.0	-189229.0	2545.0	6748.0
9	17	53	42	582	172.0	-188011.0	2556.0	6704.0
9	17	53	42	582	173.0	-186214.0	2575.0	6468.0
9	17	53	42	583	174.0	-183858.0	2586.0	6214.0
9	17	53	42	583	176.0	-178887.0	2603.0	5943.0
9	17	53	42	584	177.0	-176151.0	2586.0	5610.0
9	17	53	42	584	178.0	-173024.0	2602.0	5483.0
9	17	53	42	585	179.0	-169727.0	2607.0	5101.0
9	17	53	42	586	180.0	-166337.0	2616.0	5451.0
9	17	53	42	586	181.0	-162921.0	2616.0	5817.0
9	17	53	42	587	182.0	-159270.0	2618.0	5808.0
9	17	53	42	599	183.0	-155135.0	2633.0	5584.0
9	17	53	42	642	184.0	-151006.0	2632.0	5759.0
9	17	53	42	643	185.0	-147321.0	2644.0	5662.0
9	17	53	42	643	186.0	-144121.0	2669.0	5935.0
9	17	53	42	644	187.0	-141836.0	2666.0	6186.0
9	17	53	42	644	188.0	-140569.0	2674.0	6034.0
9	17	53	42	645	189.0	-140249.0	2672.0	6379.0
9	17	53	42	646	190.0	-140346.0	2672.0	6445.0
9	17	53	42	646	191.0	-140628.0	2676.0	5963.0
9	17	53	42	647	192.0	-141079.0	2687.0	6355.0
9	17	53	42	647	193.0	-141548.0	2704.0	6668.0
9	17	53	42	648	194.0	-142426.0	2708.0	6149.0
9	17	53	42	648	195.0	-143858.0	2721.0	5688.0
9	17	53	42	649	196.0	-145964.0	2738.0	6143.0
9	17	53	42	650	197.0	-148417.0	2745.0	6304.0
9	17	53	42	650	199.0	-154386.0	2750.0	6354.0
9	17	53	42	651	200.0	-156956.0	2756.0	6418.0
9	17	53	42	651	222.0	-168226.0	2849.0	5824.0
9	17	53	42	652	223.0	-165962.0	2846.0	5961.0
9	17	53	42	653	224.0	-163688.0	2841.0	5889.0
9	17	53	42	653	225.0	-161322.0	2848.0	5496.0
9	17	53	42	654	226.0	-159065.0	2847.0	5026.0
9	17	53	42	654	227.0	-157094.0	2851.0	5415.0
9	17	53	42	687	228.0	-155341.0	2828.0	5428.0
9	17	53	42	687	229.0	-153716.0	2830.0	5239.0
9	17	53	42	688	230.0	-152486.0	2811.0	5529.0
9	17	53	42	689	231.0	-151368.0	2808.0	5815.0
9	17	53	42	689	232.0	-150377.0	2811.0	5849.0
9	17	53	42	690	233.0	-149389.0	2808.0	6299.0
9	17	53	42	690	234.0	-148792.0	2803.0	6342.0
9	17	53	42	691	235.0	-148662.0	2779.0	6188.0
9	17	53	42	691	236.0	-148827.0	2783.0	6193.0
9	17	53	42	692	237.0	-149307.0	2772.0	6136.0
9	17	53	42	693	238.0	-150006.0	2758.0	5811.0
9	17	53	42	693	239.0	-150759.0	2756.0	6102.0
9	17	53	42	694	240.0	-151682.0	2739.0	6085.0
9	17	53	42	695	241.0	-152974.0	2724.0	6027.0
9	17	53	42	695	242.0	-154136.0	2704.0	5785.0
9	17	53	42	696	244.0	-157482.0	2667.0	5511.0
9	17	53	42	697	245.0	-159282.0	2656.0	5593.0
9	17	53	42	698	246.0	-161290.0	2641.0	5181.0
9	17	53	42	699	247.0	-163351.0	2616.0	4792.0
9	17	53	42	700	248.0	-165323.0	2590.0	4720.0
9	17	53	42	700	249.0	-167480.0	2566.0	5158.0
9	17	53	42	732	250.0	-169707.0	2545.0	5481.0
9	17	53	42	741	251.0	-171737.0	2514.0	5880.0
9	17	53	42	742	252.0	-173586.0	2493.0	5645.0
9	17	53	42	743	253.0	-175187.0	2486.0	5523.0
9	17	53	42	743	254.0	-176322.0	2449.0	5443.0
9	17	53	42	744	255.0	-177365.0	2430.0	5467.0
9	17	53	42	744	0.0	-178751.0	2408.0	4865.0
9	17	53	42	745	1.0	-179581.0	2371.0	4614.0
9	17	53	42	746	2.0	-180085.0	2343.0	4364.0
9	17	53	42	746	3.0	-180523.0	2314.0	4339.0
9	17	53	42	747	4.0	-180620.0	2271.0	4479.0
9	17	53	42	747	5.0	-180379.0	2229.0	4679.0
9	17	53	42	748	6.0	-179661.0	2213.0	4621.0
9	17	53	42	748	7.0	-178712.0	2181.0	4508.0
9	17	53	42	749	8.0	-177512.0	2148.0	4459.0
9	17	53	42	749	10.0	-174605.0	2079.0	4080.0
9	17	53	42	750	11.0	-173231.0	2048.0	3937.0
9	17	53	42	751	12.0	-171432.0	1998.0	3899.0
9	17	53	42	751	13.0	-169492.0	1975.0	4186.0
9	17	53	42	752	14.0	-167351.0	1931.0	4281.0
9	17	53	42	752	15.0	-164817.0	1892.0	4092.0
9	17	53	42	753	16.0	-162076.0	1878.0	4096.0
9	17	53	42	777	17.0	-159519.0	1839.0	3878.0
9	17	53	42	778	18.0	-157260.0	1794.0	3778.0
9	17	53	42	779	19.0	-155284.0	1753.0	3525.0
9	17	53	42	780	20.0	-153726.0	1694.0	3359.0
9	17	53	42	780	21.0	-152029.0	1656.0	3074.0
9	17	53	42	781	22.0	-150050.0	1626.0	2725.0
9	17	53	42	782	23.0	-147875.0	1589.0	3309.0
9	17	53	42	782	24.0	-145780.0	1541.0	3508.0
9	17	53	42	783	25.0	-143915.0	1496.0	3738.0
9	17	53	42	784	26.0	-142084.0	1456.0	3916.0
9	17	53	42	784	27.0	-140537.0	1421.0	3700.0
9	17	53	42	785	28.0	-139226.0	1389.0	3569.0
9	17	53	42	785	29.0	-138132.0	1347.0	3658.0
9	17	53	42	786	30.0	-137297.0	1314.0	3945.0
9	17	53	42	787	31.0	-136526.0	1272.0	3806.0
9	17	53	42	787	33.0	-136576.0	1191.0	4128.0
9	17	53	42	788	34.0	-137592.0	1133.0	4007.0
9	17	53	42	788	35.0	-139090.0	1103.0	4238.0
9	17	53	42	789	36.0	-141551.0	1045.0	4526.0
9	17	53	42	789	37.0	-144557.0	998.0	3984.0
9	17	53	42	790	38.0	-147377.0	943.0	3926.0
9	17	53	42	822	39.0	-150116.0	906.0	3818.0
9	17	53	42	823	40.0	-152916.0	869.0	3703.0
9	17	53	42	824	41.0	-155539.0	836.0	3678.0
9	17	53	42	824	42.0	-157607.0	781.0	3734.0
9	17	53	42	825	43.0	-159699.0	739.0	3414.0
9	17	53	42	825	44.0	-162022.0	690.0	3259.0
9	17	53	42	826	45.0	-164445.0	656.0	4037.0
9	17	53	42	827	46.0	-166800.0	622.0	4429.0
9	17	53	42	827	47.0	-169193.0	561.0	4089.0
9	17	53	42	828	48.0	-172116.0	512.0	3806.0
9	17	53	42	828	49.0	-174911.0	481.0	3900.0
9	17	53	42	829	50.0	-177095.0	444.0	3663.0
9	17	53	42	841	51.0	-178632.0	406.0	3499.0
9	17	53	42	842	52.0	-179552.0	351.0	3458.0
9	17	53	42	842	53.0	-179391.0	291.0	3495.0
9	17	53	42	843	55.0	-177066.0	210.0	3371.0
9	17	53	42	843	56.0	-174948.0	162.0	3302.0
9	17	53	42	844	57.0	-172394.0	134.0	3457.0
9	17	53	42	844	58.0	-170012.0	81.0	3437.0
9	17	53	42	845	59.0	-167844.0	44.0	3341.0
9	17	53	42	846	60.0	-165673.0	-4.0	3417.0
9	17	53	42	866	61.0	-163087.0	-34.0	4153.0
9	17	53	42	891	62.0	-160047.0	-95.0	4312.0
9	17	53	42	892	63.0	-156877.0	-151.0	4811.0
9	17	53	42	892	64.0	-153261.0	-179.0	5816.0
9	17	53	42	893	65.0	-149429.0	-231.0	6165.0
9	17	53	42	894	66.0	-145672.0	-267.0	6072.0
9	17	53	42	894	67.0	-142134.0	-317.0	5211.0
9	17	53	42	895	68.0	-138825.0	-359.0	2046.0
9	17	53	42	895	69.0	-136047.0	-396.0	-2744.0
9	17	53	42	896	70.0	-133706.0	-437.0	-7449.0
9	17	53	42	896	71.0	-131567.0	-489.0	-13248.0
9	17	53	42	897	72.0	-129747.0	-525.0	-18489.0
9	17	53	42	898	73.0	-128413.0	-579.0	-23463.0
9	17	53	42	898	74.0	-127919.0	-631.0	-29064.0
9	17	53	42	899	75.0	-127746.0	-663.0	-35544.0
9	17	53	42	899	78.0	-128412.0	-779.0	-49534.0
9	17	53	42	900	79.0	-128904.0	-821.0	-51325.0
9	17	53	42	900	80.0	-129452.0	-846.0	-50872.0
9	17	53	42	901	81.0	-130320.0	-890.0	-45922.0
9	17	53	42	901	82.0	-131196.0	-948.0	-38963.0
9	17	53	42	902	83.0	-131779.0	-982.0	-31654.0
9	17	53	42	915	84.0	-132187.0	-1041.0	-20040.0
9	17	53	42	916	85.0	-132459.0	-1071.0	-7159.0
9	17	53	42	916	86.0	-133144.0	-1101.0	-2677.0
9	17	53	42	917	87.0	-134426.0	-1134.0	-1324.0
9	17	53	42	918	88.0	-136367.0	-1168.0	-654.0
9	17	53	42	918	89.0	-138997.0	-1229.0	-1119.0
9	17	53	42	919	90.0	-142344.0	-1274.0	-1724.0
9	17	53	42	956	91.0	-146162.0	-1314.0	-1857.0
9	17	53	42	958	92.0	-150400.0	-1335.0	-1892.0
9	17	53	42	958	93.0	-154919.0	-1381.0	-1779.0
9	17	53	42	959	94.0	-159709.0	-1435.0	-1631.0
9	17	53	42	960	95.0	-164472.0	-1471.0	-1219.0
9	17	53	42	960	96.0	-169284.0	-1517.0	-1736.0
9	17	53	42	961	97.0	-173876.0	-1546.0	-1942.0
9	17	53	42	962	98.0	-176495.0	-1575.0	-1084.0
9	17	53	42	962	100.0	-166323.0	-1642.0	-517.0
9	17	53	42	963	101.0	-156714.0	-1703.0	-102.0
9	17	53	42	964	102.0	-147165.0	-1744.0	-161.0
9	17	53	42	964	103.0	-140970.0	-1780.0	-245.0
9	17	53	42	965	104.0	-138800.0	-1822.0	428.0
9	17	53	42	965	105.0	-140157.0	-1862.0	577.0
9	17	53	42	966	106.0	-144134.0	-1896.0	105.0
9	17	53	42	967	107.0	-150237.0	-1946.0	-256.0
9	17	53	42	967	123.0	-204906.0	-2578.0	-454.0
9	17	53	42	968	124.0	-200007.0	-2634.0	-496.0
9	17	53	42	969	125.0	-192517.0	-2663.0	-357.0
9	17	53	42	969	126.0	-183430.0	-2684.0	-350.0
9	17	53	42	970	127.0	-174046.0	-2731.0	-544.0
9	17	53	42	971	128.0	-165046.0	-2787.0	-728.0
9	17	53	43	2	129.0	-156437.0	-2832.0	-680.0
9	17	53	43	3	130.0	-149251.0	-2864.0	-973.0
9	17	53	43	4	131.0	-143611.0	-2906.0	-1209.0
9	17	53	43	5	132.0	-139549.0	-2961.0	-1034.0
9	17	53	43	5	133.0	-136316.0	-3004.0	-850.0
9	17	53	43	6	134.0	-133896.0	-3049.0	-689.0
9	17	53	43	7	135.0	-132192.0	-3084.0	-432.0
9	17	53	43	7	136.0	-130559.0	-3111.0	-644.0
9	17	53	43	8	137.0	-129091.0	-3153.0	-772.0
9	17	53	43	8	138.0	-128639.0	-3196.0	-680.0
9	17	53	43	9	139.0	-129517.0	-3238.0	-861.0
9	17	53	43	10	140.0	-131464.0	-3266.0	-1357.0
9	17	53	43	10	141.0	-134096.0	-3317.0	-1271.0
9	17	53	43	11	142.0	-137037.0	-3354.0	-884.0
9	17	53	43	12	143.0	-140057.0	-3401.0	-537.0
9	17	53	43	12	145.0	-144448.0	-3502.0	-504.0
9	17	53	43	13	146.0	-145501.0	-3543.0	-631.0
9	17	53	43	14	147.0	-146193.0	-3571.0	-742.0
9	17	53	43	14	148.0	-146354.0	-3606.0	-1055.0
9	17	53	43	15	149.0	-146390.0	-3647.0	-1682.0
9	17	53	43	16	150.0	-146052.0	-3692.0	-1478.0
9	17	53	43	47	151.0	-144912.0	-3741.0	-865.0
9	17	53	43	48	152.0	-143479.0	-3793.0	-821.0
9	17	53	43	48	153.0	-141644.0	-3824.0	-814.0
9	17	53	43	49	154.0	-139274.0	-3877.0	-970.0
9	17	53	43	50	155.0	-136778.0	-3921.0	-791.0
9	17	53	43	50	156.0	-134786.0	-3939.0	-821.0
9	17	53	43	51	157.0	-133679.0	-3974.0	-892.0
9	17	53	43	52	158.0	-133396.0	-3996.0	-1698.0
9	17	53	43	52	159.0	-134021.0	-4039.0	-2319.0
9	17	53	43	53	160.0	-135221.0	-4099.0	-2299.0
9	17	53	43	54	161.0	-137066.0	-4134.0	-2676.0
9	17	53	43	54	162.0	-138991.0	-4189.0	-2627.0
9	17	53	43	55	163.0	-140764.0	-4241.0	-2716.0
9	17	53	43	56	164.0	-142582.0	-4300.0	-2989.0
9	17	53	43	56	165.0	-144150.0	-4346.0	-3142.0
9	17	53	43	57	167.0	-147124.0	-4434.0	-3368.0
9	17	53	43	57	168.0	-148301.0	-4472.0	-3684.0
9	17	53	43	58	169.0	-149282.0	-4499.0	-4080.0
9	17	53	43	59	170.0	-150388.0	-4561.0	-4392.0
9	17	53	43	59	171.0	-151192.0	-4617.0	-4581.0
9	17	53	43	60	172.0	-152533.0	-4643.0	-4841.0
9	17	53	43	60	173.0	-154199.0	-4701.0	-4572.0
9	17	53	43	92	174.0	-156637.0	-4759.0	-4886.0
9	17	53	43	93	175.0	-159149.0	-4786.0	-5117.0
9	17	53	43	94	176.0	-161894.0	-4829.0	-5325.0
9	17	53	43	95	177.0	-165131.0	-4857.0	-5765.0
9	17	53	43	95	178.0	-168388.0	-4896.0	-5629.0
9	17	53	43	96	179.0	-171787.0	-4947.0	-5587.0
9	17	53	43	97	180.0	-175009.0	-4986.0	-6077.0
9	17	53	43	97	181.0	-178146.0	-5016.0	-6436.0
9	17	53	43	98	182.0	-180702.0	-5064.0	-6735.0
9	17	53	43	98	183.0	-182374.0	-5102.0	-6729.0
9	17	53	43	99	184.0	-183513.0	-5136.0	-6572.0
9	17	53	43	100	185.0	-184540.0	-5152.0	-6922.0
9	17	53	43	100	186.0	-184530.0	-5176.0	-7013.0
9	17	53	43	101	187.0	-184297.0	-5181.0	-6792.0
9	17	53	43	102	188.0	-184086.0	-5197.0	-6986.0
9	17	53	43	102	190.0	-183368.0	-5223.0	-7570.0
9	17	53	43	103	191.0	-182418.0	-5230.0	-7332.0
9	17	53	43	103	192.0	-181245.0	-5257.0	-7717.0
9	17	53	43	104	193.0	-179756.0	-5254.0	-7257.0
9	17	53	43	105	194.0	-178442.0	-5257.0	-6647.0
9	17	53	43	105	195.0	-177287.0	-5246.0	-6425.0
9	17	53	43	137	196.0	-175915.0	-5244.0	-6271.0
9	17	53	43	138	197.0	-174342.0	-5232.0	-6071.0
9	17	53	43	139	198.0	-173002.0	-5193.0	-6218.0
9	17	53	43	140	199.0	-171660.0	-5169.0	-6334.0
9	17	53	43	141	200.0	-169599.0	-5159.0	-5419.0
9	17	53	43	141	201.0	-166782.0	-5128.0	-4568.0
9	17	53	43	142	202.0	-163836.0	-5094.0	-4593.0
9	17	53	43	143	203.0	-160510.0	-5067.0	-4614.0
9	17	53	43	144	204.0	-157039.0	-5023.0	-4109.0
9	17	53	43	144	205.0	-153323.0	-4978.0	-3061.0
9	17	53	43	145	206.0	-149650.0	-4919.0	-1917.0
9	17	53	43	145	207.0	-146017.0	-4866.0	-1451.0
9	17	53	43	146	208.0	-142960.0	-4792.0	-1567.0
9	17	53	43	147	209.0	-139906.0	-4723.0	-1507.0
9	17	53	43	147	210.0	-136671.0	-4664.0	-1348.0
9	17	53	43	148	212.0	-129619.0	-4532.0	-962.0
9	17	53	43	148	213.0	-125567.0	-4472.0	-605.0
9	17	53	43	149	214.0	-121476.0	-4391.0	93.0
9	17	53	43	150	215.0	-118087.0	-4292.0	442.0
9	17	53	43	150	216.0	-115374.0	-4214.0	350.0
9	17	53	43	151	217.0	-112783.0	-4117.0	422.0
9	17	53	43	151	218.0	-110712.0	-4027.0	516.0
9	17	53	43	183	219.0	-109352.0	-3941.0	571.0
9	17	53	43	183	220.0	-108220.0	-3833.0	233.0
9	17	53	43	184	221.0	-107731.0	-3741.0	610.0
9	17	53	43	185	222.0	-108002.0	-3631.0	1051.0
9	17	53	43	185	223.0	-109037.0	-3534.0	1292.0
9	17	53	43	186	224.0	-110391.0	-3424.0	1404.0
9	17	53	43	187	225.0	-112543.0	-3326.0	1643.0
9	17	53	43	187	226.0	-115225.0	-3236.0	1608.0
9	17	53	43	188	227.0	-118281.0	-3107.0	1819.0
9	17	53	43	189	228.0	-122734.0	-2987.0	2218.0
9	17	53	43	189	229.0	-128311.0	-2885.0	1550.0
9	17	53	43	190	230.0	-134051.0	-2792.0	1181.0
9	17	53	43	191	231.0	-140313.0	-2681.0	1740.0
9	17	53	43	191	232.0	-146859.0	-2579.0	1951.0
9	17	53	43	192	233.0	-154014.0	-2482.0	1738.0
9	17	53	43	192	235.0	-168960.0	-2261.0	2008.0
9	17	53	43	193	236.0	-176597.0	-2151.0	1739.0
9	17	53	43	194	237.0	-183665.0	-2031.0	2039.0
9	17	53	43	194	238.0	-190989.0	-1926.0	2349.0
9	17	53	43	195	239.0	-198227.0	-1821.0	1808.0
9	17	53	43	195	240.0	-204362.0	-1715.0	1920.0
9	17	53	43	228	241.0	-209543.0	-1616.0	1947.0
9	17	53	43	228	242.0	-213582.0	-1519.0	1923.0
9	17	53	43	229	243.0	-215816.0	-1429.0	1926.0
9	17	53	43	230	244.0	-214627.0	-1324.0	1769.0
9	17	53	43	230	245.0	-210614.0	-1226.0	1961.0
9	17	53	43	231	246.0	-207696.0	-1146.0	2338.0
9	17	53	43	232	247.0	-208447.0	-1051.0	2381.0
9	17	53	43	232	248.0	-211384.0	-973.0	2169.0
9	17	53	43	233	249.0	-216617.0	-879.0	2323.0
9	17	53	43	234	250.0	-221341.0	-788.0	2024.0
9	17	53	43	234	251.0	-220758.0	-691.0	1314.0
9	17	53	43	235	252.0	-217426.0	-612.0	1204.0
9	17	53	43	236	253.0	-213287.0	-536.0	2088.0
9	17	53	43	236	254.0	-207939.0	-482.0	2308.0
9	17	53	43	237	255.0	-202468.0	-401.0	2192.0
9	17	53	43	238	1.0	-189137.0	-244.0	2086.0
9	17	53	43	239	2.0	-180871.0	-154.0	2204.0
9	17	53	43	240	3.0	-172128.0	-86.0	2453.0
9	17	53	43	240	4.0	-164342.0	-36.0	1991.0
9	17	53	43	241	5.0	-157804.0	15.0	1255.0
9	17	53	43	241	6.0	-152801.0	76.0	1366.0
9	17	53	43	242	7.0	-149451.0	129.0	1348.0
9	17	53	43	272	8.0	-146234.0	178.0	1274.0
9	17	53	43	273	9.0	-142699.0	238.0	1488.0
9	17	53	43	274	10.0	-138130.0	289.0	1758.0
9	17	53	43	274	11.0	-132829.0	340.0	1283.0
9	17	53	43	275	12.0	-127549.0	389.0	1211.0
9	17	53	43	318	13.0	-122484.0	434.0	1409.0
9	17	53	43	319	14.0	-117386.0	470.0	754.0
9	17	53	43	319	15.0	-112285.0	514.0	679.0
9	17	53	43	320	16.0	-107971.0	556.0	1003.0
9	17	53	43	321	17.0	-105198.0	605.0	1251.0
9	17	53	43	322	18.0	-104343.0	639.0	1063.0
9	17	53	43	323	19.0	-105917.0	692.0	1283.0
9	17	53	43	324	20.0	-110217.0	733.0	1174.0
9	17	53	43	324	21.0	-117007.0	760.0	931.0
9	17	53	43	325	22.0	-124590.0	795.0	708.0
9	17	53	43	326	24.0	-139327.0	863.0	747.0
9	17	53	43	326	25.0	-146284.0	881.0	632.0
9	17	53	43	327	26.0	-152578.0	928.0	779.0
9	17	53	43	328	27.0	-158232.0	963.0	861.0
9	17	53	43	328	28.0	-163212.0	995.0	788.0
9	17	53	43	329	46.0	-183496.0	1339.0	-572.0
9	17	53	43	329	47.0	-179187.0	1351.0	478.0
9	17	53	43	330	48.0	-174583.0	1349.0	1182.0
9	17	53	43	331	49.0	-169906.0	1357.0	939.0
9	17	53	43	331	50.0	-165289.0	1358.0	1129.0
9	17	53	43	332	51.0	-161066.0	1370.0	1056.0
9	17	53	43	363	52.0	-157138.0	1373.0	823.0
9	17	53	43	364	53.0	-153874.0	1378.0	701.0
9	17	53	43	365	54.0	-151077.0	1379.0	733.0
9	17	53	43	365	55.0	-148292.0	1376.0	401.0
9	17	53	43	366	56.0	-146066.0	1361.0	401.0
9	17	53	43	367	57.0	-144604.0	1377.0	598.0
9	17	53	43	368	58.0	-143884.0	1366.0	686.0
9	17	53	43	368	59.0	-143634.0	1370.0	773.0
9	17	53	43	369	60.0	-144149.0	1380.0	812.0
9	17	53	43	370	61.0	-145305.0	1374.0	844.0
9	17	53	43	370	62.0	-146576.0	1370.0	668.0
9	17	53	43	371	63.0	-147579.0	1380.0	74.0
9	17	53	43	372	64.0	-148702.0	1393.0	-216.0
9	17	53	43	372	65.0	-149639.0	1388.0	-99.0
9	17	53	43	373	66.0	-151180.0	1371.0	-270.0
9	17	53	43	373	69.0	-158211.0	1381.0	624.0
9	17	53	43	374	70.0	-161200.0	1380.0	398.0
9	17	53	43	375	71.0	-164489.0	1383.0	492.0
9	17	53	43	375	72.0	-167659.0	1388.0	495.0
9	17	53	43	376	73.0	-170814.0	1391.0	73.0
9	17	53	43	376	74.0	-173434.0	1383.0	272.0
9	17	53	43	408	75.0	-175739.0	1398.0	440.0
9	17	53	43	409	76.0	-177701.0	1389.0	476.0
9	17	53	43	409	77.0	-179339.0	1367.0	397.0
9	17	53	43	410	78.0	-180764.0	1384.0	732.0
9	17	53	43	411	79.0	-182265.0	1381.0	1054.0
9	17	53	43	411	80.0	-183573.0	1389.0	931.0
9	17	53	43	412	81.0	-184536.0	1394.0	788.0
9	17	53	43	413	82.0	-185281.0	1407.0	660.0
9	17	53	43	413	83.0	-185526.0	1394.0	526.0
9	17	53	43	414	84.0	-185016.0	1383.0	826.0
9	17	53	43	415	85.0	-184181.0	1396.0	828.0
9	17	53	43	415	86.0	-183469.0	1388.0	651.0
9	17	53	43	416	87.0	-182591.0	1399.0	612.0
9	17	53	43	417	88.0	-181621.0	1409.0	831.0
9	17	53	43	417	89.0	-180236.0	1411.0	883.0
9	17	53	43	418	91.0	-177284.0	1407.0	1204.0
9	17	53	43	418	92.0	-175264.0	1394.0	708.0
9	17	53	43	419	93.0	-172906.0	1406.0	134.0
9	17	53	43	420	94.0	-170201.0	1420.0	-14.0
9	17	53	43	420	95.0	-167725.0	1415.0	598.0
9	17	53	43	421	96.0	-165301.0	1429.0	1042.0
9	17	53	43	452	97.0	-162550.0	1424.0	1355.0
9	17	53	43	453	98.0	-159722.0	1422.0	1359.0
9	17	53	43	454	99.0	-156864.0	1421.0	1638.0
9	17	53	43	455	100.0	-154032.0	1440.0	1308.0
9	17	53	43	455	101.0	-151535.0	1427.0	1200.0
9	17	53	43	456	102.0	-149155.0	1422.0	1387.0
9	17	53	43	457	103.0	-146871.0	1417.0	1278.0
9	17	53	43	457	104.0	-144516.0	1430.0	1098.0
9	17	53	43	458	105.0	-142639.0	1446.0	1224.0
9	17	53	43	459	106.0	-141068.0	1453.0	1822.0
9	17	53	43	459	107.0	-139661.0	1436.0	1789.0
9	17	53	43	460	108.0	-138627.0	1436.0	1798.0
9	17	53	43	460	109.0	-137811.0	1442.0	2311.0
9	17	53	43	461	110.0	-137412.0	1456.0	2278.0
9	17	53	43	462	111.0	-137729.0	1434.0	1817.0
9	17	53	43	462	113.0	-140001.0	1443.0	1656.0
9	17	53	43	463	114.0	-141942.0	1432.0	1351.0
9	17	53	43	464	115.0	-144566.0	1438.0	1425.0
9	17	53	43	464	116.0	-148134.0	1421.0	1971.0
9	17	53	43	465	117.0	-151950.0	1406.0	2249.0
9	17	53	43	465	118.0	-156345.0	1394.0	2593.0
9	17	53	43	466	119.0	-160944.0	1374.0	3093.0
9	17	53	43	498	120.0	-165256.0	1380.0	3048.0
9	17	53	43	499	121.0	-169494.0	1361.0	3018.0
9	17	53	43	499	122.0	-173526.0	1349.0	2704.0
9	17	53	43	500	123.0	-177769.0	1335.0	2692.0
9	17	53	43	501	124.0	-181899.0	1326.0	2619.0
9	17	53	43	501	125.0	-186071.0	1328.0	2323.0
9	17	53	43	502	126.0	-190254.0	1302.0	2120.0
9	17	53	43	503	127.0	-194402.0	1279.0	2319.0
9	17	53	43	503	128.0	-197764.0	1263.0	2126.0
9	17	53	43	504	129.0	-200256.0	1225.0	2323.0
9	17	53	43	505	130.0	-201784.0	1214.0	2506.0
9	17	53	43	506	131.0	-202454.0	1198.0	2210.0
9	17	53	43	507	132.0	-202119.0	1178.0	1969.0
9	17	53	43	507	133.0	-201042.0	1169.0	1858.0
9	17	53	43	508	134.0	-199244.0	1137.0	1940.0
9	17	53	43	509	136.0	-193687.0	1071.0	1724.0
9	17	53	43	509	137.0	-190341.0	1036.0	2106.0
9	17	53	43	510	138.0	-186651.0	1007.0	2106.0
9	17	53	43	511	139.0	-182899.0	1009.0	1571.0
9	17	53	43	511	140.0	-178806.0	986.0	1239.0
9	17	53	43	512	141.0	-174631.0	953.0	1569.0
9	17	53	43	543	142.0	-170364.0	923.0	2002.0
9	17	53	43	544	143.0	-166281.0	889.0	2378.0
9	17	53	43	544	144.0	-162295.0	839.0	1908.0
9	17	53	43	545	145.0	-158180.0	797.0	1864.0
9	17	53	43	545	146.0	-154364.0	764.0	2464.0
9	17	53	43	546	147.0	-150502.0	719.0	2934.0
9	17	53	43	546	148.0	-146607.0	684.0	2994.0
9	17	53	43	547	149.0	-142802.0	666.0	2841.0
9	17	53	43	547	150.0	-139259.0	637.0	2648.0
9	17	53	43	548	151.0	-136089.0	598.0	2286.0
9	17	53	43	549	152.0	-133171.0	572.0	2106.0
9	17	53	43	549	153.0	-131325.0	526.0	2064.0
9	17	53	43	550	154.0	-130549.0	485.0	1968.0
9	17	53	43	550	155.0	-130571.0	435.0	2054.0
9	17	53	43	551	156.0	-131031.0	392.0	2526.0
9	17	53	43	551	158.0	-135023.0	304.0	3136.0
9	17	53	43	552	159.0	-137836.0	273.0	3186.0
9	17	53	43	553	160.0	-140506.0	236.0	3198.0
9	17	53	43	553	161.0	-143101.0	196.0	3572.0
9	17	53	43	554	162.0	-145527.0	163.0	3819.0
9	17	53	43	554	163.0	-147877.0	111.0	3136.0
9	17	53	43	555	164.0	-150497.0	83.0	3490.0
9	17	53	43	586	165.0	-153062.0	37.0	3731.0
9	17	53	43	602	166.0	-155271.0	-15.0	3561.0
9	17	53	43	603	167.0	-157235.0	-61.0	3804.0
9	17	53	43	604	168.0	-159517.0	-104.0	3951.0
9	17	53	43	604	169.0	-161757.0	-134.0	4219.0
9	17	53	43	605	170.0	-163819.0	-171.0	4338.0
9	17	53	43	605	171.0	-165633.0	-216.0	4539.0
9	17	53	43	606	172.0	-167581.0	-249.0	4553.0
9	17	53	43	606	173.0	-170077.0	-282.0	4093.0
9	17	53	43	607	174.0	-172797.0	-331.0	4076.0
9	17	53	43	607	175.0	-175198.0	-375.0	3901.0
9	17	53	43	608	176.0	-177526.0	-423.0	3919.0
9	17	53	43	633	177.0	-179819.0	-460.0	4176.0
9	17	53	43	633	178.0	-181843.0	-497.0	4211.0
9	17	53	43	634	179.0	-183589.0	-543.0	3920.0
9	17	53	43	634	181.0	-185830.0	-624.0	3953.0
9	17	53	43	635	182.0	-186497.0	-672.0	3738.0
9	17	53	43	636	183.0	-186494.0	-706.0	3713.0
9	17	53	43	636	184.0	-186127.0	-746.0	3971.0
9	17	53	43	637	185.0	-185550.0	-789.0	3773.0
9	17	53	43	637	186.0	-184663.0	-839.0	3009.0
9	17	53	43	638	187.0	-183320.0	-902.0	3559.0
9	17	53	43	638	188.0	-181931.0	-946.0	4492.0
9	17	53	43	639	189.0	-180401.0	-980.0	4419.0
9	17	53	43	640	190.0	-178926.0	-1011.0	4344.0
9	17	53	43	640	191.0	-177522.0	-1052.0	4323.0
9	17	53	43	641	192.0	-175946.0	-1084.0	4003.0
9	17	53	43	641	203.0	-157296.0	-1562.0	60.0
9	17	53	43	642	204.0	-156233.0	-1592.0	-4836.0
9	17	53	43	643	205.0	-155279.0	-1624.0	-10531.0
9	17	53	43	643	206.0	-154425.0	-1697.0	-15309.0
9	17	53	43	644	207.0	-153760.0	-1740.0	-19721.0
9	17	53	43	644	208.0	-153387.0	-1786.0	-25063.0
9	17	53	43	645	209.0	-153269.0	-1822.0	-30989.0
9	17	53	43	677	210.0	-152781.0	-1859.0	-37291.0
9	17	53	43	678	211.0	-151773.0	-1888.0	-42644.0
9	17	53	43	679	212.0	-150416.0	-1914.0	-46459.0
9	17	53	43	679	213.0	-148659.0	-1968.0	-49408.0
9	17	53	43	680	214.0	-146704.0	-2024.0	-49229.0
9	17	53	43	680	215.0	-144469.0	-2074.0	-45168.0
9	17	53	43	681	216.0	-142169.0	-2110.0	-38401.0
9	17	53	43	681	217.0	-140243.0	-2164.0	-31564.0
9	17	53	43	682	218.0	-138533.0	-2217.0	-20852.0
9	17	53	43	724	219.0	-136840.0	-2262.0	-6780.0
9	17	53	43	767	220.0	-135352.0	-2288.0	874.0
9	17	53	43	768	221.0	-134288.0	-2321.0	3148.0
9	17	53	43	768	222.0	-134053.0	-2347.0	4619.0
9	17	53	43	769	223.0	-134496.0	-2374.0	4363.0
9	17	53	43	770	226.0	-139867.0	-2494.0	4150.0
9	17	53	43	770	227.0	-142616.0	-2548.0	4289.0
9	17	53	43	771	228.0	-145702.0	-2592.0	4705.0
9	17	53	43	771	229.0	-149183.0	-2634.0	4840.0
9	17	53	43	772	230.0	-153156.0	-2654.0	5166.0
9	17	53	43	772	231.0	-156777.0	-2688.0	5473.0
9	17	53	43	773	232.0	-157341.0	-2727.0	5833.0
9	17	53	43	773	233.0	-151419.0	-2761.0	6204.0
9	17	53	43	774	234.0	-141489.0	-2813.0	5843.0
9	17	53	43	775	235.0	-131078.0	-2851.0	5639.0
9	17	53	43	775	248.0	-185584.0	-3351.0	6292.0
9	17	53	43	776	15.0	-126110.0	-4198.0	5007.0
9	17	53	43	776	16.0	-126767.0	-4242.0	4651.0
9	17	53	43	777	17.0	-127749.0	-4277.0	4289.0
9	17	53	43	777	18.0	-129374.0	-4318.0	4253.0
9	17	53	43	778	19.0	-131514.0	-4361.0	4183.0
9	17	53	43	786	20.0	-134265.0	-4402.0	4579.0
9	17	53	43	812	21.0	-136946.0	-4451.0	5055.0
9	17	53	43	812	22.0	-139787.0	-4494.0	4958.0
9	17	53	43	813	23.0	-142429.0	-4515.0	4463.0
9	17	53	43	813	24.0	-144969.0	-4544.0	4416.0
9	17	53	43	814	25.0	-147746.0	-4592.0	4529.0
9	17	53	43	815	26.0	-150529.0	-4642.0	4043.0
9	17	53	43	815	27.0	-153554.0	-4672.0	3897.0
9	17	53	43	816	28.0	-156604.0	-4716.0	3390.0
9	17	53	43	816	29.0	-159091.0	-4749.0	2536.0
9	17	53	43	817	30.0	-160817.0	-4794.0	2979.0
9	17	53	43	818	31.0	-162089.0	-4842.0	4088.0
9	17	53	43	818	32.0	-162840.0	-4889.0	4238.0
9	17	53	43	819	33.0	-163227.0	-4930.0	3729.0
9	17	53	43	819	34.0	-163502.0	-4972.0	3794.0
9	17	53	43	820	35.0	-163845.0	-4999.0	3566.0
9	17	53	43	820	37.0	-164934.0	-5077.0	2338.0
9	17	53	43	821	38.0	-165253.0	-5131.0	2195.0
9	17	53	43	834	39.0	-165719.0	-5176.0	2245.0
9	17	53	43	835	40.0	-166672.0	-5228.0	2178.0
9	17	53	43	835	41.0	-167858.0	-5276.0	1821.0
9	17	53	43	836	42.0	-169488.0	-5316.0	1878.0
9	17	53	43	857	43.0	-171552.0	-5361.0	2017.0
9	17	53	43	858	44.0	-173374.0	-5401.0	1703.0
9	17	53	43	859	45.0	-174839.0	-5442.0	1320.0
9	17	53	43	860	46.0	-176289.0	-5487.0	778.0
9	17	53	43	860	47.0	-177567.0	-5533.0	424.0
9	17	53	43	861	48.0	-178569.0	-5566.0	299.0
9	17	53	43	862	49.0	-179616.0	-5615.0	660.0
9	17	53	43	862	50.0	-180609.0	-5649.0	354.0
9	17	53	43	863	51.0	-180890.0	-5697.0	-25.0
9	17	53	43	863	52.0	-180519.0	-5719.0	356.0
9	17	53	43	864	53.0	-179940.0	-5749.0	339.0
9	17	53	43	864	54.0	-179229.0	-5789.0	71.0
9	17	53	43	865	55.0	-178104.0	-5809.0	-91.0
9	17	53	43	866	56.0	-176732.0	-5842.0	-293.0
9	17	53	43	866	57.0	-175343.0	-5903.0	-857.0
9	17	53	43	867	60.0	-171073.0	-5989.0	-1566.0
9	17	53	43	867	61.0	-169711.0	-6008.0	-1465.0
9	17	53	43	868	62.0	-168164.0	-6051.0	-1221.0
9	17	53	43	868	63.0	-166702.0	-6065.0	-1622.0
9	17	53	43	869	64.0	-165344.0	-6084.0	-2091.0
9	17	53	43	870	65.0	-164372.0	-6096.0	-2193.0
9	17	53	43	902	66.0	-163741.0	-6088.0	-2341.0
9	17	53	43	903	67.0	-163662.0	-6088.0	-2364.0
9	17	53	43	904	68.0	-163518.0	-6101.0	-2282.0
9	17	53	43	904	69.0	-163044.0	-6097.0	-2199.0
9	17	53	43	905	70.0	-162359.0	-6097.0	-2124.0
9	17	53	43	906	71.0	-161557.0	-6097.0	-1859.0
9	17	53	43	906	72.0	-160568.0	-6072.0	-1682.0
9	17	53	43	907	73.0	-159567.0	-6046.0	-1777.0
9	17	53	43	907	74.0	-159016.0	-6041.0	-1614.0
9	17	53	43	908	75.0	-158712.0	-6018.0	-1376.0
9	17	53	43	909	76.0	-158561.0	-5974.0	-950.0
9	17	53	43	909	77.0	-158556.0	-5941.0	-807.0
9	17	53	43	910	78.0	-158782.0	-5899.0	-519.0
9	17	53	43	910	79.0	-158569.0	-5858.0	-319.0
9	17	53	43	911	80.0	-157715.0	-5820.0	79.0
9	17	53	43	911	82.0	-154906.0	-5706.0	676.0
9	17	53	43	912	83.0	-153225.0	-5644.0	2276.0
9	17	53	43	913	84.0	-152076.0	-5567.0	2310.0
9	17	53	43	913	85.0	-151288.0	-5516.0	2729.0
9	17	53	43	914	86.0	-150659.0	-5462.0	3564.0
9	17	53	43	914	87.0	-150566.0	-5404.0	3562.0
9	17	53	43	992	88.0	-151228.0	-5334.0	3840.0
9	17	53	44	16	89.0	-152799.0	-5263.0	4469.0
9	17	53	44	17	90.0	-155217.0	-5161.0	5108.0
9	17	53	44	17	91.0	-158552.0	-5084.0	5396.0
9	17	53	44	18	92.0	-162249.0	-5002.0	6061.0
9	17	53	44	18	93.0	-165509.0	-4919.0	6689.0
9	17	53	44	19	94.0	-168276.0	-4817.0	6783.0
9	17	53	44	20	95.0	-170361.0	-4712.0	6668.0
9	17	53	44	20	96.0	-171932.0	-4614.0	6821.0
9	17	53	44	21	97.0	-173437.0	-4526.0	6921.0
9	17	53	44	21	98.0	-174206.0	-4426.0	6878.0
9	17	53	44	22	99.0	-174606.0	-4354.0	7364.0
9	17	53	44	22	100.0	-174513.0	-4249.0	8306.0
9	17	53	44	23	101.0	-174041.0	-4138.0	8469.0
9	17	53	44	23	102.0	-173017.0	-4006.0	8069.0
9	17	53	44	24	127.0	-165596.0	-1530.0	7723.0
9	17	53	44	24	128.0	-167539.0	-1446.0	8363.0
9	17	53	44	25	129.0	-170742.0	-1377.0	8099.0
9	17	53	44	26	130.0	-177821.0	-1313.0	8282.0
9	17	53	44	26	131.0	-185611.0	-1230.0	8409.0
9	17	53	44	27	132.0	-190341.0	-1151.0	8387.0
9	17	53	44	40	133.0	-191493.0	-1075.0	8390.0
9	17	53	44	40	134.0	-191764.0	-977.0	8381.0
9	17	53	44	41	135.0	-190863.0	-889.0	7924.0
9	17	53	44	42	136.0	-190798.0	-829.0	8201.0
9	17	53	44	42	137.0	-190443.0	-751.0	8123.0
9	17	53	44	43	138.0	-189148.0	-694.0	8030.0
9	17	53	44	43	139.0	-186386.0	-616.0	8251.0
9	17	53	44	44	140.0	-182249.0	-557.0	7985.0
9	17	53	44	45	141.0	-177629.0	-492.0	8007.0
9	17	53	44	45	142.0	-173861.0	-417.0	8259.0
9	17	53	44	46	143.0	-171111.0	-344.0	8389.0
9	17	53	44	47	144.0	-168540.0	-286.0	8092.0
9	17	53	44	47	145.0	-166061.0	-232.0	8165.0
9	17	53	44	48	146.0	-163731.0	-152.0	7906.0
9	17	53	44	48	147.0	-161015.0	-97.0	7574.0
9	17	53	44	49	149.0	-154221.0	8.0	7691.0
9	17	53	44	50	150.0	-151152.0	53.0	7738.0
9	17	53	44	50	151.0	-147746.0	96.0	7786.0
9	17	53	44	51	152.0	-143501.0	151.0	7740.0
9	17	53	44	51	153.0	-138426.0	199.0	7648.0
9	17	53	44	52	154.0	-132331.0	267.0	7799.0
9	17	53	44	52	155.0	-125825.0	326.0	7993.0
9	17	53	44	97	156.0	-119771.0	368.0	7563.0
9	17	53	44	116	157.0	-114776.0	405.0	7418.0
9	17	53	44	117	158.0	-111490.0	443.0	7724.0
9	17	53	44	117	159.0	-109549.0	486.0	7697.0
9	17	53	44	118	160.0	-109155.0	519.0	7448.0
9	17	53	44	118	161.0	-109772.0	558.0	8015.0
9	17	53	44	119	162.0	-111012.0	629.0	8212.0
9	17	53	44	120	163.0	-112482.0	669.0	7753.0
9	17	53	44	120	164.0	-114128.0	716.0	7673.0
9	17	53	44	121	165.0	-115730.0	741.0	7961.0
9	17	53	44	121	166.0	-117526.0	776.0	7646.0
9	17	53	44	122	167.0	-119053.0	814.0	7477.0
9	17	53	44	123	168.0	-120571.0	853.0	7260.0
9	17	53	44	123	169.0	-122434.0	879.0	7483.0
9	17	53	44	124	170.0	-124203.0	904.0	7418.0
9	17	53	44	124	179.0	-160684.0	1171.0	7641.0
9	17	53	44	125	187.0	-199602.0	1288.0	7341.0
9	17	53	44	125	188.0	-203004.0	1293.0	7286.0
9	17	53	44	126	189.0	-206035.0	1310.0	7724.0
9	17	53	44	127	190.0	-208857.0	1318.0	7635.0
9	17	53	44	127	191.0	-210964.0	1314.0	7851.0
9	17	53	44	128	192.0	-212477.0	1338.0	8289.0
9	17	53	44	128	193.0	-213383.0	1341.0	8034.0
9	17	53	44	129	194.0	-213151.0	1365.0	7708.0
9	17	53	44	142	195.0	-211650.0	1374.0	7907.0
9	17	53	44	142	196.0	-209314.0	1388.0	8068.0
9	17	53	44	143	197.0	-206361.0	1404.0	7748.0
9	17	53	44	144	198.0	-202526.0	1416.0	7549.0
9	17	53	44	144	199.0	-198210.0	1421.0	7555.0
9	17	53	44	145	200.0	-193422.0	1419.0	7388.0
9	17	53	44	145	201.0	-188131.0	1425.0	7775.0
9	17	53	44	146	202.0	-182063.0	1439.0	7979.0
9	17	53	44	147	203.0	-175432.0	1441.0	7849.0
9	17	53	44	173	204.0	-168968.0	1446.0	7797.0
9	17	53	44	173	205.0	-162549.0	1451.0	7876.0
9	17	53	44	174	206.0	-156207.0	1453.0	7224.0
9	17	53	44	175	207.0	-149951.0	1465.0	7059.0
9	17	53	44	175	208.0	-144132.0	1458.0	7075.0
9	17	53	44	176	209.0	-138771.0	1470.0	7218.0
9	17	53	44	177	210.0	-134099.0	1475.0	7353.0
9	17	53	44	177	211.0	-129996.0	1491.0	7399.0
9	17	53	44	178	212.0	-126967.0	1512.0	7724.0
9	17	53	44	179	213.0	-124397.0	1516.0	8298.0
9	17	53	44	180	214.0	-122312.0	1529.0	8188.0
9	17	53	44	180	215.0	-120579.0	1527.0	7686.0
9	17	53	44	181	216.0	-119067.0	1541.0	7629.0
9	17	53	44	182	217.0	-118358.0	1545.0	7653.0
9	17	53	44	182	218.0	-117911.0	1546.0	7561.0
9	17	53	44	183	219.0	-118081.0	1544.0	7331.0
9	17	53	44	183	220.0	-119223.0	1554.0	7525.0
9	17	53	44	184	221.0	-120587.0	1551.0	7344.0
9	17	53	44	192	222.0	-123278.0	1567.0	7169.0
9	17	53	44	193	223.0	-126689.0	1584.0	7758.0
9	17	53	44	193	224.0	-130387.0	1583.0	7795.0
9	17	53	44	215	225.0	-135266.0	1590.0	7437.0
9	17	53	44	216	226.0	-140532.0	1598.0	6911.0
9	17	53	44	217	227.0	-146174.0	1603.0	6414.0
9	17	53	44	217	228.0	-152395.0	1614.0	6891.0
9	17	53	44	218	229.0	-158080.0	1608.0	7773.0
9	17	53	44	218	230.0	-164257.0	1623.0	8198.0
9	17	53	44	219	231.0	-170201.0	1608.0	8040.0
9	17	53	44	220	232.0	-175474.0	1624.0	7807.0
9	17	53	44	220	233.0	-180967.0	1631.0	7749.0
9	17	53	44	221	234.0	-185811.0	1641.0	7406.0
9	17	53	44	221	235.0	-190552.0	1628.0	7136.0
9	17	53	44	222	236.0	-194866.0	1626.0	6887.0
9	17	53	44	222	237.0	-197837.0	1628.0	6934.0
9	17	53	44	223	238.0	-200603.0	1636.0	7038.0
9	17	53	44	223	239.0	-202946.0	1640.0	7369.0
9	17	53	44	224	240.0	-204452.0	1638.0	7433.0
9	17	53	44	238	241.0	-205642.0	1644.0	7689.0
9	17	53	44	239	242.0	-205945.0	1655.0	7498.0
9	17	53	44	239	243.0	-205897.0	1676.0	7278.0
9	17	53	44	240	244.0	-204954.0	1670.0	7391.0
9	17	53	44	240	245.0	-202767.0	1656.0	7286.0
9	17	53	44	241	246.0	-200351.0	1675.0	6922.0
9	17	53	44	241	247.0	-196748.0	1666.0	7129.0
9	17	53	44	242	248.0	-192500.0	1666.0	7111.0
9	17	53	44	262	249.0	-188265.0	1661.0	7152.0
9	17	53	44	263	250.0	-183664.0	1647.0	7174.0
9	17	53	44	263	251.0	-179310.0	1634.0	7428.0
9	17	53	44	264	252.0	-174802.0	1619.0	7296.0
9	17	53	44	265	253.0	-169972.0	1631.0	7014.0
9	17	53	44	265	254.0	-165511.0	1637.0	7239.0
9	17	53	44	266	255.0	-160527.0	1644.0	7198.0
9	17	53	44	266	0.0	-156078.0	1624.0	6882.0
9	17	53	44	267	1.0	-151931.0	1607.0	7023.0
9	17	53	44	267	2.0	-147864.0	1598.0	7008.0
9	17	53	44	268	3.0	-144876.0	1578.0	7008.0
9	17	53	44	269	4.0	-142359.0	1564.0	7158.0
9	17	53	44	269	5.0	-140610.0	1550.0	7600.0
9	17	53	44	270	6.0	-139680.0	1538.0	7253.0
9	17	53	44	270	7.0	-139008.0	1531.0	7173.0
9	17	53	44	286	8.0	-138955.0	1518.0	7301.0
9	17	53	44	286	9.0	-139814.0	1493.0	7079.0
9	17	53	44	287	10.0	-140887.0	1488.0	6952.0
9	17	53	44	288	11.0	-142632.0	1473.0	6632.0
9	17	53	44	288	12.0	-144984.0	1459.0	6908.0
9	17	53	44	289	13.0	-147893.0	1444.0	6834.0
9	17	53	44	289	14.0	-151444.0	1438.0	6719.0
9	17	53	44	309	15.0	-155292.0	1418.0	6796.0
9	17	53	44	310	16.0	-159275.0	1390.0	7236.0
9	17	53	44	310	17.0	-163291.0	1361.0	7433.0
9	17	53	44	311	18.0	-166989.0	1341.0	7108.0
9	17	53	44	312	19.0	-170051.0	1324.0	6648.0
9	17	53	44	312	20.0	-172207.0	1296.0	6515.0
9	17	53	44	313	21.0	-173560.0	1269.0	5789.0
9	17	53	44	313	22.0	-174234.0	1243.0	5908.0
9	17	53	44	314	23.0	-175072.0	1220.0	6296.0
9	17	53	44	314	24.0	-176137.0	1196.0	6635.0
9	17	53	44	315	25.0	-176974.0	1168.0	6485.0
9	17	53	44	315	26.0	-177536.0	1148.0	6860.0
9	17	53	44	316	27.0	-177815.0	1128.0	6352.0
9	17	53	44	317	28.0	-178046.0	1093.0	6144.0
9	17	53	44	317	29.0	-178102.0	1054.0	6296.0
9	17	53	44	332	30.0	-178423.0	1026.0	6444.0
9	17	53	44	333	31.0	-178346.0	1004.0	6121.0
9	17	53	44	333	32.0	-177873.0	979.0	6295.0
9	17	53	44	334	33.0	-177405.0	944.0	6302.0
9	17	53	44	335	34.0	-176604.0	910.0	6263.0
9	17	53	44	335	35.0	-175522.0	881.0	6734.0
9	17	53	44	336	36.0	-174177.0	844.0	6731.0
9	17	53	44	356	37.0	-172894.0	814.0	6321.0
9	17	53	44	356	38.0	-171393.0	784.0	6030.0
9	17	53	44	357	39.0	-169761.0	773.0	5793.0
9	17	53	44	357	40.0	-167554.0	745.0	5552.0
9	17	53	44	358	41.0	-165197.0	694.0	5124.0
9	17	53	44	359	42.0	-162501.0	664.0	5305.0
9	17	53	44	359	43.0	-159912.0	614.0	5698.0
9	17	53	44	360	44.0	-157844.0	574.0	5871.0
9	17	53	44	360	45.0	-155781.0	538.0	6104.0
9	17	53	44	361	46.0	-153832.0	516.0	6323.0
9	17	53	44	361	47.0	-152161.0	502.0	6162.0
9	17	53	44	362	48.0	-150780.0	463.0	6174.0
9	17	53	44	363	49.0	-149689.0	421.0	5678.0
9	17	53	44	363	50.0	-149044.0	401.0	5886.0
9	17	53	44	364	51.0	-148274.0	355.0	5756.0
9	17	53	44	380	52.0	-147369.0	318.0	5621.0
9	17	53	44	381	53.0	-146713.0	290.0	5738.0
9	17	53	44	381	54.0	-146280.0	245.0	5984.0
9	17	53	44	382	55.0	-145655.0	230.0	5992.0
9	17	53	44	382	56.0	-145019.0	193.0	5770.0
9	17	53	44	383	57.0	-144338.0	144.0	5847.0
9	17	53	44	384	58.0	-144137.0	126.0	5668.0
9	17	53	44	384	59.0	-144544.0	90.0	5876.0
9	17	53	44	385	60.0	-145249.0	59.0	6065.0
9	17	53	44	385	61.0	-146340.0	23.0	5846.0
9	17	53	44	386	62.0	-147247.0	-23.0	5629.0
9	17	53	44	387	63.0	-148192.0	-59.0	6028.0
9	17	53	44	387	64.0	-149609.0	-103.0	6131.0
9	17	53	44	388	65.0	-150502.0	-144.0	5901.0
9	17	53	44	388	66.0	-151312.0	-175.0	5901.0
9	17	53	44	403	67.0	-151726.0	-212.0	5751.0
9	17	53	44	403	68.0	-151919.0	-222.0	5203.0
9	17	53	44	404	69.0	-152683.0	-243.0	5694.0
9	17	53	44	405	70.0	-153399.0	-286.0	5970.0
9	17	53	44	405	71.0	-154466.0	-329.0	5944.0
9	17	53	44	406	72.0	-155582.0	-355.0	6003.0
9	17	53	44	406	73.0	-157267.0	-407.0	6268.0
9	17	53	44	407	74.0	-158994.0	-459.0	6118.0
9	17	53	44	426	75.0	-160666.0	-475.0	6183.0
9	17	53	44	427	76.0	-162219.0	-504.0	6141.0
9	17	53	44	427	77.0	-163251.0	-553.0	5961.0
9	17	53	44	428	78.0	-163827.0	-589.0	6023.0
9	17	53	44	429	79.0	-163626.0	-597.0	6346.0
9	17	53	44	429	80.0	-163431.0	-627.0	6431.0
9	17	53	44	430	81.0	-163062.0	-687.0	6438.0
9	17	53	44	430	82.0	-162976.0	-719.0	6680.0
9	17	53	44	431	83.0	-163286.0	-752.0	7483.0
9	17	53	44	432	84.0	-163177.0	-786.0	8452.0
9	17	53	44	432	85.0	-163406.0	-833.0	9357.0
9	17	53	44	433	86.0	-163044.0	-866.0	9628.0
9	17	53	44	433	87.0	-162629.0	-891.0	9186.0
9	17	53	44	434	88.0	-161912.0	-936.0	7511.0
9	17	53	44	434	89.0	-161621.0	-967.0	4256.0
9	17	53	44	449	90.0	-161922.0	-1004.0	280.0
9	17	53	44	450	91.0	-161974.0	-1036.0	-4731.0
9	17	53	44	451	92.0	-161701.0	-1069.0	-10337.0
9	17	53	44	451	93.0	-161278.0	-1106.0	-15104.0
9	17	53	44	452	94.0	-160932.0	-1140.0	-19298.0
9	17	53	44	452	95.0	-160767.0	-1193.0	-25177.0
9	17	53	44	453	96.0	-160782.0	-1219.0	-31649.0
9	17	53	44	472	97.0	-160504.0	-1244.0	-37655.0
9	17	53	44	473	98.0	-159870.0	-1282.0	-42456.0
9	17	53	44	473	99.0	-158785.0	-1315.0	-46887.0
9	17	53	44	474	100.0	-157499.0	-1352.0	-50125.0
9	17	53	44	475	101.0	-155741.0	-1376.0	-49529.0
9	17	53	44	475	102.0	-153544.0	-1389.0	-45306.0
9	17	53	44	476	103.0	-150540.0	-1444.0	-39036.0
9	17	53	44	476	104.0	-147614.0	-1468.0	-31351.0
9	17	53	44	477	105.0	-144057.0	-1509.0	-19752.0
9	17	53	44	478	106.0	-141059.0	-1535.0	-6419.0
9	17	53	44	478	107.0	-138533.0	-1577.0	-357.0
9	17	53	44	479	108.0	-136025.0	-1607.0	1496.0
9	17	53	44	479	109.0	-134718.0	-1628.0	2021.0
9	17	53	44	480	110.0	-133856.0	-1661.0	1856.0
9	17	53	44	480	111.0	-133450.0	-1712.0	1708.0
9	17	53	44	495	112.0	-133802.0	-1740.0	1440.0
9	17	53	44	496	113.0	-134504.0	-1776.0	1471.0
9	17	53	44	496	114.0	-135204.0	-1824.0	1249.0
9	17	53	44	497	115.0	-137184.0	-1847.0	1065.0
9	17	53	44	497	116.0	-138873.0	-1889.0	1700.0
9	17	53	44	498	117.0	-140960.0	-1920.0	2467.0
9	17	53	44	499	118.0	-140752.0	-1946.0	2699.0
9	17	53	44	499	119.0	-132936.0	-1976.0	3031.0
9	17	53	44	518	120.0	-121190.0	-2011.0	3099.0
9	17	53	44	519	121.0	-107732.0	-2041.0	2838.0
9	17	53	44	520	122.0	-96252.0	-2061.0	3071.0
9	17	53	44	520	123.0	-91860.0	-2121.0	3553.0
9	17	53	44	521	124.0	-93311.0	-2160.0	3643.0
9	17	53	44	521	125.0	-99700.0	-2191.0	3764.0
9	17	53	44	522	126.0	-109691.0	-2218.0	4381.0
9	17	53	44	523	127.0	-120798.0	-2242.0	4621.0
9	17	53	44	523	128.0	-132681.0	-2279.0	4712.0
9	17	53	44	524	129.0	-143830.0	-2301.0	5239.0
9	17	53	44	524	130.0	-151643.0	-2347.0	4826.0
9	17	53	44	525	131.0	-156485.0	-2399.0	4969.0
9	17	53	44	525	132.0	-159213.0	-2430.0	5199.0
9	17	53	44	526	133.0	-161283.0	-2471.0	5452.0
9	17	53	44	527	134.0	-163724.0	-2505.0	5593.0
9	17	53	44	540	135.0	-168205.0	-2543.0	5774.0
9	17	53	44	541	136.0	-173987.0	-2586.0	5538.0
9	17	53	44	541	137.0	-181390.0	-2606.0	5153.0
9	17	53	44	542	138.0	-189812.0	-2649.0	5366.0
9	17	53	44	543	139.0	-197794.0	-2686.0	5275.0
9	17	53	44	543	140.0	-204295.0	-2722.0	4936.0
9	17	53	44	544	141.0	-208122.0	-2762.0	4976.0
9	17	53	44	566	142.0	-210900.0	-2792.0	4981.0
9	17	53	44	567	143.0	-213651.0	-2837.0	4994.0
9	17	53	44	568	144.0	-216195.0	-2882.0	5081.0
9	17	53	44	568	145.0	-217099.0	-2933.0	5320.0
9	17	53	44	569	146.0	-214329.0	-2960.0	5054.0
9	17	53	44	569	147.0	-206946.0	-2994.0	4841.0
9	17	53	44	570	148.0	-195886.0	-3032.0	4813.0
9	17	53	44	571	149.0	-182911.0	-3074.0	4906.0
9	17	53	44	571	150.0	-170756.0	-3105.0	4713.0
9	17	53	44	572	151.0	-161291.0	-3134.0	4678.0
9	17	53	44	572	152.0	-154372.0	-3167.0	4601.0
9	17	53	44	573	153.0	-149937.0	-3221.0	4809.0
9	17	53	44	573	154.0	-147235.0	-3267.0	4875.0
9	17	53	44	574	155.0	-145970.0	-3309.0	4522.0
9	17	53	44	575	156.0	-144912.0	-3344.0	4671.0
9	17	53	44	589	157.0	-144225.0	-3375.0	4594.0
9	17	53	44	590	158.0	-144321.0	-3413.0	3893.0
9	17	53	44	593	159.0	-143995.0	-3454.0	3708.0
9	17	53	44	603	160.0	-143737.0	-3482.0	3809.0
9	17	53	44	605	161.0	-143507.0	-3521.0	3296.0
9	17	53	44	606	162.0	-142996.0	-3567.0	2886.0
9	17	53	44	607	163.0	-141656.0	-3599.0	4031.0
9	17	53	44	608	164.0	-140304.0	-3662.0	4488.0
9	17	53	44	608	165.0	-138684.0	-3686.0	4273.0
9	17	53	44	609	166.0	-136841.0	-3722.0	3743.0
9	17	53	44	609	167.0	-135272.0	-3762.0	3488.0
9	17	53	44	610	168.0	-133329.0	-3799.0	3559.0
9	17	53	44	611	169.0	-131646.0	-3832.0	3851.0
9	17	53	44	611	170.0	-129888.0	-3874.0	3523.0
9	17	53	44	612	171.0	-128186.0	-3912.0	2866.0
9	17	53	44	612	172.0	-127184.0	-3949.0	2802.0
9	17	53	44	613	173.0	-126306.0	-4001.0	2741.0
9	17	53	44	613	174.0	-125848.0	-4036.0	2801.0
9	17	53	44	614	175.0	-126059.0	-4066.0	2666.0
9	17	53	44	614	176.0	-126722.0	-4120.0	2739.0
9	17	53	44	615	177.0	-127832.0	-4142.0	2979.0
9	17	53	44	616	178.0	-129487.0	-4171.0	2891.0
9	17	53	44	616	179.0	-131314.0	-4221.0	2730.0
9	17	53	44	617	180.0	-133842.0	-4269.0	2136.0
9	17	53	44	617	181.0	-137104.0	-4312.0	1976.0
9	17	53	44	625	182.0	-140620.0	-4349.0	1968.0
9	17	53	44	626	183.0	-144244.0	-4367.0	1607.0
9	17	53	44	626	184.0	-148007.0	-4414.0	1836.0
9	17	53	44	627	185.0	-151672.0	-4465.0	1979.0
9	17	53	44	650	186.0	-155716.0	-4509.0	1500.0
9	17	53	44	650	187.0	-160194.0	-4547.0	1437.0
9	17	53	44	651	188.0	-164711.0	-4576.0	878.0
9	17	53	44	651	189.0	-169213.0	-4619.0	389.0
9	17	53	44	652	190.0	-174026.0	-4650.0	192.0
9	17	53	44	652	191.0	-178047.0	-4707.0	41.0
9	17	53	44	653	192.0	-181449.0	-4766.0	-579.0
9	17	53	44	654	193.0	-184109.0	-4791.0	-639.0
9	17	53	44	654	194.0	-186038.0	-4817.0	-358.0
9	17	53	44	655	195.0	-187782.0	-4861.0	-490.0
9	17	53	44	655	196.0	-188956.0	-4898.0	-704.0
9	17	53	44	656	197.0	-189893.0	-4922.0	-761.0
9	17	53	44	656	198.0	-191088.0	-4946.0	-1089.0
9	17	53	44	657	199.0	-192568.0	-4982.0	-1442.0
9	17	53	44	657	200.0	-193789.0	-5015.0	-1382.0
9	17	53	44	658	201.0	-194557.0	-5030.0	-1652.0
9	17	53	44	681	202.0	-194910.0	-5052.0	-2307.0
9	17	53	44	682	203.0	-194851.0	-5088.0	-2579.0
9	17	53	44	683	204.0	-194558.0	-5102.0	-2050.0
9	17	53	44	683	205.0	-193693.0	-5107.0	-2147.0
9	17	53	44	684	206.0	-192436.0	-5112.0	-2076.0
9	17	53	44	684	207.0	-190414.0	-5116.0	-2299.0
9	17	53	44	685	208.0	-188235.0	-5116.0	-2573.0
9	17	53	44	686	209.0	-185817.0	-5111.0	-2898.0
9	17	53	44	686	210.0	-183084.0	-5119.0	-3344.0
9	17	53	44	687	211.0	-179907.0	-5118.0	-3260.0
9	17	53	44	687	212.0	-176283.0	-5114.0	-2831.0
9	17	53	44	688	213.0	-172935.0	-5094.0	-2846.0
9	17	53	44	698	214.0	-169172.0	-5077.0	-2896.0
9	17	53	44	699	215.0	-165364.0	-5047.0	-2579.0
9	17	53	44	700	216.0	-161597.0	-5011.0	-2702.0
9	17	53	44	700	217.0	-157722.0	-4981.0	-2756.0
9	17	53	44	701	218.0	-154288.0	-4952.0	-2765.0
9	17	53	44	701	219.0	-151319.0	-4904.0	-2286.0
9	17	53	44	702	220.0	-149212.0	-4852.0	-2208.0
9	17	53	44	702	221.0	-147644.0	-4811.0	-2017.0
9	17	53	44	703	222.0	-146567.0	-4771.0	-1426.0
9	17	53	44	728	223.0	-145866.0	-4719.0	-861.0
9	17	53	44	728	224.0	-145750.0	-4664.0	-649.0
9	17	53	44	729	225.0	-146154.0	-4602.0	-143.0
9	17	53	44	730	226.0	-147556.0	-4547.0	238.0
9	17	53	44	730	227.0	-149277.0	-4466.0	534.0
9	17	53	44	731	228.0	-151215.0	-4374.0	1166.0
9	17	53	44	731	229.0	-153838.0	-4292.0	1504.0
9	17	53	44	732	230.0	-156301.0	-4246.0	1611.0
9	17	53	44	732	231.0	-158349.0	-4165.0	2291.0
9	17	53	44	733	232.0	-160457.0	-4080.0	2883.0
9	17	53	44	734	233.0	-161954.0	-4003.0	2953.0
9	17	53	44	734	234.0	-163166.0	-3904.0	3493.0
9	17	53	44	735	235.0	-163962.0	-3818.0	4703.0
9	17	53	44	735	236.0	-164428.0	-3685.0	4744.0
9	17	53	44	736	237.0	-165146.0	-3584.0	4293.0
9	17	53	44	737	238.0	-165728.0	-3486.0	4671.0
9	17	53	44	737	239.0	-166047.0	-3387.0	4648.0
9	17	53	44	738	240.0	-166330.0	-3291.0	4771.0
9	17	53	44	739	241.0	-166314.0	-3191.0	5241.0
9	17	53	44	746	242.0	-166312.0	-3102.0	5481.0
9	17	53	44	747	243.0	-166499.0	-2998.0	5504.0
9	17	53	44	747	244.0	-166601.0	-2881.0	5355.0
9	17	53	44	748	245.0	-166886.0	-2766.0	5684.0
9	17	53	44	770	246.0	-167552.0	-2671.0	5938.0
9	17	53	44	771	247.0	-167972.0	-2584.0	6020.0
9	17	53	44	772	248.0	-168300.0	-2456.0	5551.0
9	17	53	44	772	249.0	-168505.0	-2349.0	5342.0
9	17	53	44	773	250.0	-168993.0	-2250.0	5454.0
9	17	53	44	773	251.0	-169430.0	-2144.0	5454.0
9	17	53	44	774	252.0	-169781.0	-2048.0	5521.0
9	17	53	44	775	253.0	-170568.0	-1957.0	5918.0
9	17	53	44	775	254.0	-170986.0	-1849.0	6031.0
9	17	53	44	776	255.0	-170827.0	-1744.0	5851.0
9	17	53	44	776	0.0	-170633.0	-1622.0	5948.0
9	17	53	44	777	1.0	-170462.0	-1497.0	5500.0
9	17	53	44	777	2.0	-170224.0	-1400.0	5213.0
9	17	53	44	778	3.0	-170464.0	-1277.0	5891.0
9	17	53	44	778	4.0	-171147.0	-1191.0	5791.0
9	17	53	44	779	5.0	-172489.0	-1115.0	5814.0
9	17	53	44	793	6.0	-174100.0	-1013.0	6193.0
9	17	53	44	794	7.0	-175046.0	-906.0	6088.0
9	17	53	44	794	8.0	-175629.0	-809.0	6027.0
9	17	53	44	795	9.0	-176061.0	-723.0	5979.0
9	17	53	44	796	10.0	-175559.0	-637.0	6129.0
9	17	53	44	796	11.0	-174559.0	-529.0	6058.0
9	17	53	44	797	12.0	-172558.0	-434.0	6197.0
9	17	53	44	797	13.0	-168268.0	-350.0	6172.0
9	17	53	44	816	14.0	-162741.0	-253.0	5850.0
9	17	53	44	817	15.0	-158311.0	-174.0	5713.0
9	17	53	44	817	16.0	-157208.0	-92.0	5859.0
9	17	53	44	818	17.0	-158725.0	-2.0	5896.0
9	17	53	44	819	18.0	-164759.0	69.0	5668.0
9	17	53	44	819	19.0	-171379.0	159.0	6216.0
9	17	53	44	820	20.0	-174033.0	257.0	6451.0
9	17	53	44	820	21.0	-173963.0	337.0	6336.0
9	17	53	44	821	22.0	-172284.0	411.0	6193.0
9	17	53	44	822	23.0	-169296.0	478.0	5810.0
9	17	53	44	822	24.0	-166400.0	543.0	5803.0
9	17	53	44	823	25.0	-163160.0	611.0	5794.0
9	17	53	44	823	26.0	-159628.0	681.0	5481.0
9	17	53	44	824	27.0	-155053.0	746.0	5496.0
9	17	53	44	839	28.0	-148992.0	816.0	5681.0
9	17	53	44	839	29.0	-143085.0	886.0	5969.0
9	17	53	44	840	30.0	-138897.0	947.0	5908.0
9	17	53	44	840	31.0	-137372.0	1021.0	5882.0
9	17	53	44	841	32.0	-138089.0	1104.0	5658.0
9	17	53	44	863	33.0	-140377.0	1172.0	5513.0
9	17	53	44	863	34.0	-143504.0	1223.0	5630.0
9	17	53	44	864	35.0	-146674.0	1287.0	5602.0
9	17	53	44	864	36.0	-149029.0	1344.0	5053.0
9	17	53	44	865	37.0	-150417.0	1380.0	5581.0
9	17	53	44	865	38.0	-151153.0	1441.0	6001.0
9	17	53	44	866	39.0	-151382.0	1508.0	5962.0
9	17	53	44	867	40.0	-150421.0	1579.0	5801.0
9	17	53	44	867	41.0	-148778.0	1624.0	5774.0
9	17	53	44	868	42.0	-146452.0	1669.0	5720.0
9	17	53	44	868	43.0	-143969.0	1729.0	5611.0
9	17	53	44	869	44.0	-142070.0	1774.0	5603.0
9	17	53	44	869	45.0	-141388.0	1836.0	5492.0
9	17	53	44	870	46.0	-142270.0	1891.0	5434.0
9	17	53	44	870	47.0	-144149.0	1930.0	5945.0
9	17	53	44	871	48.0	-146664.0	1969.0	6068.0
9	17	53	44	871	49.0	-149256.0	2011.0	5519.0
9	17	53	44	885	50.0	-151697.0	2086.0	5669.0
9	17	53	44	886	51.0	-153807.0	2149.0	6124.0
9	17	53	44	887	52.0	-155421.0	2203.0	5966.0
9	17	53	44	887	53.0	-156406.0	2250.0	5776.0
9	17	53	44	888	54.0	-157379.0	2311.0	5651.0
9	17	53	44	888	55.0	-158070.0	2326.0	5514.0
9	17	53	44	889	56.0	-158909.0	2351.0	5829.0
9	17	53	44	890	57.0	-160011.0	2424.0	6089.0
9	17	53	44	890	58.0	-161251.0	2468.0	5544.0
9	17	53	44	909	59.0	-162474.0	2506.0	5759.0
9	17	53	44	909	60.0	-163241.0	2548.0	5714.0
9	17	53	44	910	61.0	-163586.0	2579.0	5596.0
9	17	53	44	911	62.0	-163834.0	2616.0	5413.0
9	17	53	44	911	63.0	-164014.0	2655.0	5331.0
9	17	53	44	912	64.0	-163846.0	2702.0	5301.0
9	17	53	44	912	65.0	-163421.0	2734.0	5431.0
9	17	53	44	913	66.0	-163090.0	2748.0	5709.0
9	17	53	44	913	67.0	-162473.0	2766.0	5404.0
9	17	53	44	914	68.0	-161724.0	2814.0	5619.0
9	17	53	44	914	69.0	-161154.0	2853.0	5988.0
9	17	53	44	915	70.0	-160730.0	2888.0	6113.0
9	17	53	44	915	71.0	-160176.0	2896.0	5959.0
9	17	53	44	916	72.0	-159820.0	2911.0	5875.0
9	17	53	44	933	73.0	-159813.0	2943.0	5387.0
9	17	53	44	934	74.0	-160314.0	2972.0	5483.0
9	17	53	44	934	75.0	-161264.0	3000.0	5907.0
9	17	53	44	935	76.0	-162709.0	3009.0	5769.0
9	17	53	44	936	77.0	-164236.0	3034.0	5548.0
9	17	53	44	936	78.0	-165780.0	3050.0	6195.0
9	17	53	44	937	79.0	-167366.0	3051.0	6603.0
9	17	53	44	937	80.0	-168590.0	3076.0	6321.0
9	17	53	44	938	81.0	-169955.0	3096.0	6161.0
9	17	53	44	938	82.0	-171271.0	3116.0	6203.0
9	17	53	44	939	83.0	-171747.0	3129.0	5864.0
9	17	53	44	940	84.0	-171533.0	3140.0	5906.0
9	17	53	44	957	85.0	-170711.0	3137.0	5885.0
9	17	53	44	957	86.0	-169707.0	3151.0	5744.0
9	17	53	44	958	87.0	-168501.0	3153.0	5985.0
9	17	53	44	959	88.0	-167457.0	3161.0	6198.0
9	17	53	44	959	89.0	-166469.0	3170.0	6351.0
9	17	53	44	960	90.0	-165619.0	3192.0	6422.0
9	17	53	44	960	91.0	-164320.0	3225.0	6305.0
9	17	53	44	961	92.0	-162888.0	3234.0	6146.0
9	17	53	44	961	93.0	-161281.0	3220.0	6114.0
9	17	53	44	962	94.0	-159649.0	3248.0	5908.0
9	17	53	44	963	95.0	-157914.0	3254.0	5724.0
9	17	53	44	963	96.0	-155937.0	3255.0	5410.0
9	17	53	44	981	97.0	-154208.0	3263.0	5626.0
9	17	53	44	981	98.0	-153151.0	3272.0	5982.0
9	17	53	44	982	99.0	-152455.0	3279.0	6336.0
9	17	53	44	982	100.0	-151406.0	3299.0	6771.0
9	17	53	44	983	101.0	-150666.0	3318.0	6668.0
9	17	53	44	984	102.0	-150232.0	3328.0	6463.0
9	17	53	44	984	103.0	-150287.0	3353.0	6167.0
9	17	53	44	985	104.0	-150276.0	3354.0	6147.0
9	17	53	44	985	105.0	-149661.0	3357.0	5770.0
9	17	53	44	986	106.0	-148880.0	3368.0	6028.0
9	17	53	44	987	107.0	-148456.0	3384.0	6103.0
9	17	53	44	987	108.0	-148365.0	3405.0	6181.0
9	17	53	44	988	109.0	-148043.0	3405.0	6588.0
9	17	53	44	988	110.0	-148454.0	3418.0	6518.0
9	17	53	45	4	111.0	-149282.0	3413.0	6271.0
9	17	53	45	5	112.0	-150089.0	3431.0	6427.0
9	17	53	45	6	113.0	-151502.0	3452.0	6448.0
9	17	53	45	6	114.0	-153037.0	3468.0	6231.0
9	17	53	45	7	115.0	-154239.0	3466.0	6348.0
9	17	53	45	7	116.0	-155531.0	3481.0	6631.0
9	17	53	45	8	117.0	-156986.0	3488.0	6494.0
9	17	53	45	28	118.0	-158470.0	3494.0	6428.0
9	17	53	45	28	119.0	-159465.0	3504.0	6788.0
9	17	53	45	29	120.0	-160373.0	3521.0	6716.0
9	17	53	45	29	121.0	-161723.0	3516.0	6549.0
9	17	53	45	30	122.0	-162646.0	3536.0	6698.0
9	17	53	45	31	123.0	-163866.0	3551.0	6596.0
9	17	53	45	31	124.0	-165552.0	3566.0	6753.0
9	17	53	45	32	125.0	-167041.0	3557.0	6256.0
9	17	53	45	32	126.0	-168697.0	3549.0	6379.0
9	17	53	45	33	127.0	-169852.0	3569.0	6635.0
9	17	53	45	33	128.0	-170860.0	3577.0	6753.0
9	17	53	45	34	129.0	-171800.0	3583.0	6596.0
9	17	53	45	35	130.0	-172223.0	3596.0	6639.0
9	17	53	45	35	131.0	-172612.0	3606.0	6669.0
9	17	53	45	36	132.0	-173093.0	3592.0	6399.0
9	17	53	45	58	133.0	-174044.0	3606.0	6204.0
9	17	53	45	58	134.0	-175133.0	3613.0	6443.0
9	17	53	45	59	135.0	-175681.0	3609.0	6117.0
9	17	53	45	60	136.0	-176710.0	3601.0	6311.0
9	17	53	45	60	137.0	-177742.0	3593.0	6510.0
9	17	53	45	61	138.0	-178528.0	3590.0	6645.0
9	17	53	45	62	139.0	-179429.0	3577.0	6553.0
9	17	53	45	62	140.0	-180049.0	3569.0	6571.0
9	17	53	45	63	141.0	-180341.0	3594.0	6836.0
9	17	53	45	63	142.0	-180227.0	3589.0	6671.0
9	17	53	45	64	143.0	-179693.0	3581.0	6463.0
9	17	53	45	65	144.0	-178814.0	3559.0	6447.0
9	17	53	45	65	145.0	-177758.0	3554.0	5979.0
9	17	53	45	66	146.0	-176898.0	3542.0	5975.0
9	17	53	45	67	147.0	-176265.0	3535.0	6274.0
9	17	53	45	67	148.0	-175471.0	3519.0	6776.0
9	17	53	45	68	149.0	-174493.0	3528.0	7229.0
9	17	53	45	69	150.0	-173544.0	3519.0	7336.0
9	17	53	45	69	151.0	-172706.0	3516.0	7202.0
9	17	53	45	77	152.0	-171597.0	3504.0	7095.0
9	17	53	45	78	153.0	-170048.0	3482.0	6948.0
9	17	53	45	101	154.0	-168488.0	3471.0	6708.0
9	17	53	45	102	155.0	-166992.0	3446.0	6746.0
9	17	53	45	102	156.0	-165484.0	3403.0	6805.0
9	17	53	45	103	157.0	-164598.0	3380.0	6709.0
9	17	53	45	104	158.0	-163765.0	3367.0	6936.0
9	17	53	45	104	159.0	-162812.0	3363.0	7011.0
9	17	53	45	105	160.0	-161842.0	3346.0	6813.0
9	17	53	45	105	161.0	-160864.0	3333.0	6849.0
9	17	53	45	106	162.0	-159790.0	3323.0	6696.0
9	17	53	45	106	163.0	-158667.0	3291.0	6823.0
9	17	53	45	107	164.0	-157604.0	3271.0	6674.0
9	17	53	45	107	165.0	-156440.0	3259.0	6557.0
9	17	53	45	108	166.0	-155334.0	3217.0	6678.0
9	17	53	45	109	167.0	-154261.0	3179.0	6744.0
9	17	53	45	109	168.0	-153327.0	3155.0	7354.0
9	17	53	45	110	169.0	-151951.0	3136.0	7146.0
9	17	53	45	125	170.0	-150947.0	3115.0	7063.0
9	17	53	45	125	171.0	-150209.0	3105.0	7243.0
9	17	53	45	126	172.0	-149489.0	3079.0	7080.0
9	17	53	45	127	173.0	-148946.0	3051.0	6816.0
9	17	53	45	127	174.0	-148251.0	3019.0	6649.0
9	17	53	45	128	175.0	-147719.0	2989.0	6748.0
9	17	53	45	128	176.0	-147611.0	2963.0	6613.0
9	17	53	45	129	177.0	-147814.0	2923.0	6522.0
9	17	53	45	129	178.0	-148207.0	2911.0	7118.0
9	17	53	45	148	179.0	-148646.0	2873.0	7034.0
9	17	53	45	148	180.0	-148910.0	2853.0	6904.0
9	17	53	45	149	181.0	-149307.0	2823.0	6856.0
9	17	53	45	150	182.0	-149627.0	2795.0	6699.0
9	17	53	45	150	183.0	-149832.0	2770.0	6740.0
9	17	53	45	151	184.0	-150146.0	2713.0	6969.0
9	17	53	45	152	185.0	-150593.0	2679.0	6938.0
9	17	53	45	152	186.0	-151129.0	2650.0	7013.0
9	17	53	45	153	187.0	-151926.0	2639.0	7130.0
9	17	53	45	153	188.0	-152931.0	2601.0	7531.0
9	17	53	45	154	189.0	-153627.0	2571.0	7498.0
9	17	53	45	155	190.0	-154361.0	2531.0	7336.0
9	17	53	45	155	191.0	-155116.0	2515.0	6936.0
9	17	53	45	177	192.0	-155336.0	2466.0	6515.0
9	17	53	45	177	193.0	-155911.0	2427.0	6303.0
9	17	53	45	178	194.0	-156304.0	2423.0	6245.0
9	17	53	45	179	195.0	-156146.0	2388.0	5559.0
9	17	53	45	179	196.0	-155837.0	2333.0	5701.0
9	17	53	45	180	197.0	-155777.0	2307.0	6703.0
9	17	53	45	181	198.0	-155484.0	2268.0	7019.0
9	17	53	45	181	199.0	-155133.0	2237.0	7591.0
9	17	53	45	182	200.0	-154936.0	2206.0	7741.0
9	17	53	45	182	201.0	-154632.0	2184.0	7248.0
9	17	53	45	183	202.0	-154722.0	2160.0	7282.0
9	17	53	45	184	203.0	-155404.0	2128.0	7131.0
9	17	53	45	185	204.0	-156188.0	2079.0	7181.0
9	17	53	45	185	205.0	-156940.0	2034.0	7421.0
9	17	53	45	186	206.0	-157981.0	1998.0	7768.0
9	17	53	45	187	207.0	-158978.0	1954.0	7713.0
9	17	53	45	187	208.0	-160076.0	1928.0	7666.0
9	17	53	45	188	209.0	-161616.0	1895.0	8078.0
9	17	53	45	189	210.0	-163138.0	1872.0	7914.0
9	17	53	45	197	211.0	-164894.0	1846.0	7775.0
9	17	53	45	197	212.0	-166925.0	1798.0	7753.0
9	17	53	45	198	213.0	-168297.0	1780.0	7957.0
9	17	53	45	221	214.0	-169575.0	1727.0	7489.0
9	17	53	45	221	215.0	-170691.0	1661.0	7730.0
9	17	53	45	222	216.0	-171381.0	1629.0	8174.0
9	17	53	45	223	217.0	-171965.0	1601.0	8144.0
9	17	53	45	223	218.0	-172263.0	1561.0	8193.0
9	17	53	45	224	219.0	-171825.0	1533.0	8458.0
9	17	53	45	224	220.0	-171371.0	1487.0	8306.0
9	17	53	45	225	221.0	-170864.0	1466.0	8244.0
9	17	53	45	226	222.0	-169782.0	1433.0	8564.0
9	17	53	45	226	223.0	-168742.0	1404.0	8408.0
9	17	53	45	227	224.0	-167322.0	1357.0	8263.0
9	17	53	45	227	225.0	-165332.0	1309.0	8129.0
9	17	53	45	228	226.0	-163199.0	1266.0	7878.0
9	17	53	45	228	227.0	-160924.0	1221.0	8223.0
9	17	53	45	229	228.0	-158372.0	1193.0	8311.0
9	17	53	45	230	229.0	-155966.0	1158.0	8203.0
9	17	53	45	230	230.0	-153602.0	1112.0	8475.0
9	17	53	45	244	231.0	-151184.0	1071.0	8218.0
9	17	53	45	244	232.0	-149147.0	1044.0	7986.0
9	17	53	45	245	233.0	-147470.0	1008.0	8319.0
9	17	53	45	246	234.0	-145815.0	951.0	9121.0
9	17	53	45	246	235.0	-144334.0	915.0	9466.0
9	17	53	45	247	236.0	-143276.0	883.0	9839.0
9	17	53	45	247	237.0	-142514.0	839.0	10627.0
9	17	53	45	267	238.0	-142201.0	811.0	11159.0
9	17	53	45	268	239.0	-142391.0	775.0	12023.0
9	17	53	45	269	240.0	-143124.0	732.0	12701.0
9	17	53	45	269	241.0	-144356.0	698.0	11474.0
9	17	53	45	270	242.0	-145921.0	657.0	8961.0
9	17	53	45	270	243.0	-147958.0	638.0	5339.0
9	17	53	45	271	244.0	-150197.0	589.0	753.0
9	17	53	45	271	245.0	-152486.0	571.0	-4385.0
9	17	53	45	290	246.0	-154857.0	513.0	-8937.0
9	17	53	45	291	247.0	-157149.0	471.0	-12932.0
9	17	53	45	291	248.0	-159299.0	430.0	-18657.0
9	17	53	45	292	249.0	-161352.0	406.0	-24874.0
9	17	53	45	292	250.0	-162922.0	368.0	-31031.0
9	17	53	45	293	251.0	-163774.0	342.0	-37425.0
9	17	53	45	294	252.0	-164121.0	314.0	-42302.0
9	17	53	45	294	253.0	-164167.0	265.0	-45992.0
9	17	53	45	295	254.0	-163816.0	218.0	-48123.0
9	17	53	45	295	255.0	-162882.0	166.0	-46551.0
9	17	53	45	296	0.0	-161095.0	128.0	-40326.0
9	17	53	45	297	1.0	-159089.0	103.0	-33096.0
9	17	53	45	297	2.0	-156976.0	63.0	-24020.0
9	17	53	45	298	3.0	-155051.0	40.0	-10895.0
9	17	53	45	298	4.0	-153591.0	9.0	813.0
9	17	53	45	299	5.0	-152582.0	-19.0	4593.0
9	17	53	45	300	6.0	-151954.0	-58.0	5971.0
9	17	53	45	300	7.0	-151621.0	-126.0	5771.0
9	17	53	45	301	8.0	-151714.0	-172.0	5769.0
9	17	53	45	301	9.0	-152241.0	-198.0	5415.0
9	17	53	45	313	10.0	-152772.0	-251.0	5447.0
9	17	53	45	314	11.0	-153126.0	-291.0	5564.0
9	17	53	45	314	12.0	-153704.0	-307.0	5860.0
9	17	53	45	315	13.0	-154698.0	-343.0	5649.0
9	17	53	45	316	14.0	-155656.0	-380.0	5568.0
9	17	53	45	316	15.0	-155281.0	-410.0	6204.0
9	17	53	45	317	16.0	-149352.0	-458.0	6339.0
9	17	53	45	318	17.0	-136492.0	-499.0	6034.0
9	17	53	45	318	18.0	-121811.0	-526.0	6392.0
9	17	53	45	319	19.0	-107950.0	-574.0	6814.0
9	17	53	45	336	20.0	-100010.0	-619.0	6736.0
9	17	53	45	337	21.0	-98952.0	-665.0	6831.0
9	17	53	45	337	22.0	-103949.0	-701.0	7407.0
9	17	53	45	338	23.0	-112846.0	-739.0	7497.0
9	17	53	45	339	24.0	-124554.0	-762.0	7701.0
9	17	53	45	339	25.0	-137430.0	-797.0	7925.0
9	17	53	45	340	26.0	-150157.0	-841.0	7730.0
9	17	53	45	367	27.0	-160274.0	-883.0	7508.0
9	17	53	45	369	28.0	-166390.0	-929.0	7819.0
9	17	53	45	369	29.0	-169902.0	-977.0	7541.0
9	17	53	45	370	30.0	-172416.0	-1006.0	7774.0
9	17	53	45	371	31.0	-175343.0	-1064.0	8038.0
9	17	53	45	371	32.0	-178752.0	-1106.0	7784.0
9	17	53	45	372	33.0	-183437.0	-1130.0	7738.0
9	17	53	45	372	34.0	-189242.0	-1153.0	7153.0
9	17	53	45	373	35.0	-195745.0	-1189.0	6908.0
9	17	53	45	373	36.0	-201977.0	-1230.0	7323.0
9	17	53	45	374	37.0	-206704.0	-1279.0	7834.0
9	17	53	45	374	38.0	-209011.0	-1312.0	7840.0
9	17	53	45	375	39.0	-209122.0	-1355.0	7833.0
9	17	53	45	376	40.0	-208626.0	-1388.0	7748.0
9	17	53	45	376	41.0	-208972.0	-1431.0	7604.0
9	17	53	45	377	42.0	-209386.0	-1459.0	7431.0
9	17	53	45	377	43.0	-207371.0	-1502.0	7439.0
9	17	53	45	378	44.0	-201826.0	-1521.0	7357.0
9	17	53	45	378	45.0	-192306.0	-1559.0	7008.0
9	17	53	45	379	46.0	-180416.0	-1604.0	7432.0
9	17	53	45	379	47.0	-168371.0	-1640.0	7338.0
9	17	53	45	380	48.0	-157833.0	-1674.0	7006.0
9	17	53	45	388	49.0	-150085.0	-1736.0	6982.0
9	17	53	45	389	50.0	-144601.0	-1765.0	7092.0
9	17	53	45	389	51.0	-140914.0	-1812.0	7099.0
9	17	53	45	390	52.0	-138852.0	-1849.0	7310.0
9	17	53	45	390	53.0	-137844.0	-1886.0	7438.0
9	17	53	45	391	54.0	-137112.0	-1931.0	7019.0
9	17	53	45	392	55.0	-136894.0	-1962.0	7003.0
9	17	53	45	392	56.0	-136944.0	-1997.0	7319.0
9	17	53	45	413	57.0	-137365.0	-2028.0	6883.0
9	17	53	45	413	58.0	-137959.0	-2087.0	6525.0
9	17	53	45	414	59.0	-138331.0	-2127.0	6850.0
9	17	53	45	415	60.0	-138469.0	-2171.0	7042.0
9	17	53	45	415	61.0	-138514.0	-2221.0	7110.0
9	17	53	45	416	62.0	-138254.0	-2259.0	6848.0
9	17	53	45	416	63.0	-137237.0	-2282.0	7028.0
9	17	53	45	417	64.0	-136142.0	-2314.0	6877.0
9	17	53	45	417	65.0	-135386.0	-2362.0	6538.0
9	17	53	45	418	66.0	-134637.0	-2410.0	6251.0
9	17	53	45	418	67.0	-134206.0	-2465.0	6119.0
9	17	53	45	419	68.0	-134281.0	-2493.0	5907.0
9	17	53	45	420	69.0	-134866.0	-2544.0	5683.0
9	17	53	45	420	70.0	-136262.0	-2595.0	5956.0
9	17	53	45	421	71.0	-138123.0	-2632.0	6186.0
9	17	53	45	436	72.0	-140628.0	-2670.0	5989.0
9	17	53	45	436	73.0	-143715.0	-2714.0	5899.0
9	17	53	45	437	74.0	-146732.0	-2749.0	5784.0
9	17	53	45	437	75.0	-149474.0	-2791.0	5484.0
9	17	53	45	438	76.0	-152367.0	-2835.0	5278.0
9	17	53	45	438	77.0	-155374.0	-2881.0	5338.0
9	17	53	45	439	78.0	-157889.0	-2919.0	4998.0
9	17	53	45	459	79.0	-160378.0	-2976.0	4417.0
9	17	53	45	460	80.0	-163182.0	-3017.0	4280.0
9	17	53	45	460	81.0	-165846.0	-3062.0	4088.0
9	17	53	45	461	82.0	-168502.0	-3095.0	4491.0
9	17	53	45	462	83.0	-171645.0	-3131.0	5322.0
9	17	53	45	462	84.0	-174862.0	-3170.0	5305.0
9	17	53	45	463	85.0	-177927.0	-3214.0	4344.0
9	17	53	45	463	86.0	-181002.0	-3244.0	4274.0
9	17	53	45	464	87.0	-183314.0	-3288.0	4041.0
9	17	53	45	464	88.0	-185215.0	-3350.0	3422.0
9	17	53	45	465	89.0	-186936.0	-3396.0	3104.0
9	17	53	45	465	90.0	-187779.0	-3418.0	3286.0
9	17	53	45	466	91.0	-188083.0	-3457.0	3068.0
9	17	53	45	467	92.0	-187796.0	-3505.0	2826.0
9	17	53	45	467	93.0	-187407.0	-3547.0	3119.0
9	17	53	45	492	94.0	-187271.0	-3575.0	2554.0
9	17	53	45	493	95.0	-187268.0	-3579.0	2213.0
9	17	53	45	493	96.0	-187422.0	-3602.0	1948.0
9	17	53	45	494	97.0	-187680.0	-3643.0	1930.0
9	17	53	45	495	98.0	-187647.0	-3675.0	1864.0
9	17	53	45	495	99.0	-186806.0	-3697.0	1610.0
9	17	53	45	496	100.0	-185746.0	-3729.0	1656.0
9	17	53	45	496	101.0	-184735.0	-3735.0	1591.0
9	17	53	45	498	102.0	-183092.0	-3737.0	1303.0
9	17	53	45	499	103.0	-181077.0	-3738.0	1243.0
9	17	53	45	499	104.0	-179126.0	-3753.0	1204.0
9	17	53	45	500	105.0	-177220.0	-3763.0	983.0
9	17	53	45	500	106.0	-175196.0	-3774.0	491.0
9	17	53	45	501	107.0	-173342.0	-3777.0	409.0
9	17	53	45	502	108.0	-171307.0	-3763.0	388.0
9	17	53	45	502	109.0	-169088.0	-3761.0	146.0
9	17	53	45	503	110.0	-166784.0	-3732.0	55.0
9	17	53	45	503	111.0	-164485.0	-3710.0	481.0
9	17	53	45	504	112.0	-162602.0	-3691.0	996.0
9	17	53	45	512	113.0	-161236.0	-3676.0	572.0
9	17	53	45	512	114.0	-159584.0	-3640.0	953.0
9	17	53	45	535	115.0	-157584.0	-3609.0	1473.0
9	17	53	45	536	116.0	-155576.0	-3571.0	1254.0
9	17	53	45	536	117.0	-153286.0	-3527.0	1426.0
9	17	53	45	537	118.0	-151373.0	-3493.0	2099.0
9	17	53	45	537	119.0	-149767.0	-3456.0	2417.0
9	17	53	45	538	120.0	-148512.0	-3414.0	3028.0
9	17	53	45	538	121.0	-147741.0	-3349.0	3879.0
9	17	53	45	539	122.0	-147249.0	-3274.0	4419.0
9	17	53	45	540	123.0	-147337.0	-3229.0	4609.0
9	17	53	45	540	124.0	-147541.0	-3164.0	4889.0
9	17	53	45	541	125.0	-147796.0	-3101.0	5395.0
9	17	53	45	541	126.0	-148257.0	-3029.0	5729.0
9	17	53	45	542	127.0	-149224.0	-2956.0	5953.0
9	17	53	45	542	128.0	-150455.0	-2886.0	5844.0
9	17	53	45	543	129.0	-152097.0	-2811.0	6199.0
9	17	53	45	543	130.0	-154179.0	-2739.0	7307.0
9	17	53	45	558	131.0	-156335.0	-2647.0	8028.0
9	17	53	45	559	132.0	-158676.0	-2542.0	8179.0
9	17	53	45	559	133.0	-160856.0	-2483.0	8412.0
9	17	53	45	560	134.0	-162606.0	-2387.0	8414.0
9	17	53	45	560	135.0	-163623.0	-2275.0	8558.0
9	17	53	45	561	136.0	-164133.0	-2168.0	8453.0
9	17	53	45	561	137.0	-164070.0	-2075.0	8779.0
9	17	53	45	562	138.0	-163552.0	-1982.0	8878.0
9	17	53	45	562	139.0	-162884.0	-1887.0	9426.0
9	17	53	45	581	140.0	-161996.0	-1789.0	9582.0
9	17	53	45	582	141.0	-161191.0	-1689.0	9335.0
9	17	53	45	582	142.0	-160686.0	-1567.0	9324.0
9	17	53	45	583	143.0	-159846.0	-1458.0	9764.0
9	17	53	45	583	144.0	-159084.0	-1359.0	9753.0
9	17	53	45	584	145.0	-158745.0	-1258.0	9757.0
9	17	53	45	585	146.0	-158679.0	-1152.0	9559.0
9	17	53	45	585	147.0	-158937.0	-1047.0	9126.0
9	17	53	45	586	148.0	-159338.0	-942.0	9520.0
9	17	53	45	586	149.0	-160119.0	-837.0	9809.0
9	17	53	45	587	150.0	-160762.0	-741.0	9912.0
9	17	53	45	587	151.0	-161266.0	-629.0	9978.0
9	17	53	45	588	152.0	-162117.0	-524.0	10438.0
9	17	53	45	588	153.0	-162712.0	-419.0	10529.0
9	17	53	45	589	154.0	-163477.0	-312.0	10481.0
9	17	53	45	612	155.0	-164746.0	-222.0	10245.0
9	17	53	45	613	156.0	-166092.0	-136.0	10029.0
9	17	53	45	613	157.0	-167531.0	-15.0	9712.0
9	17	53	45	614	158.0	-168989.0	98.0	9733.0
9	17	53	45	614	159.0	-170469.0	166.0	9904.0
9	17	53	45	615	160.0	-171921.0	267.0	10134.0
9	17	53	45	628	161.0	-173040.0	379.0	10453.0
9	17	53	45	628	162.0	-174324.0	476.0	10781.0
9	17	53	45	629	163.0	-175315.0	551.0	10535.0
9	17	53	45	630	164.0	-175884.0	639.0	10194.0
9	17	53	45	630	165.0	-176001.0	728.0	10125.0
9	17	53	45	631	166.0	-175061.0	821.0	9971.0
9	17	53	45	631	167.0	-171915.0	905.0	9903.0
9	17	53	45	632	168.0	-168211.0	989.0	9697.0
9	17	53	45	633	169.0	-166414.0	1055.0	9857.0
9	17	53	45	633	170.0	-167616.0	1140.0	10098.0
9	17	53	45	634	171.0	-171803.0	1226.0	10047.0
9	17	53	45	634	172.0	-178583.0	1303.0	9710.0
9	17	53	45	635	173.0	-185215.0	1378.0	9209.0
9	17	53	45	635	174.0	-186986.0	1458.0	9451.0
9	17	53	45	636	175.0	-187035.0	1516.0	9767.0
9	17	53	45	637	176.0	-185101.0	1604.0	10100.0
9	17	53	45	637	177.0	-181787.0	1676.0	10019.0
9	17	53	45	638	178.0	-178661.0	1729.0	9553.0
9	17	53	45	638	179.0	-175216.0	1788.0	9309.0
9	17	53	45	652	180.0	-170484.0	1865.0	9839.0
9	17	53	45	652	181.0	-164106.0	1934.0	9904.0
9	17	53	45	653	182.0	-156870.0	1977.0	9725.0
