9	18	9	0	276	219.0	-95691.0	-3159.0	-41057.0
9	18	9	0	278	220.0	-96998.0	-3189.0	-52057.0
9	18	9	0	280	221.0	-98656.0	-3193.0	-62911.0
9	18	9	0	282	222.0	-100713.0	-3222.0	-70702.0
9	18	9	0	284	223.0	-102777.0	-3256.0	-72539.0
9	18	9	0	286	224.0	-105324.0	-3270.0	-72137.0
9	18	9	0	288	225.0	-108638.0	-3296.0	-73097.0
9	18	9	0	290	226.0	-113942.0	-3313.0	-72797.0
9	18	9	0	291	227.0	-120245.0	-3326.0	-70231.0
9	18	9	0	293	228.0	-127614.0	-3351.0	-66430.0
9	18	9	0	294	229.0	-134932.0	-3372.0	-63622.0
9	18	9	0	295	230.0	-141302.0	-3402.0	-62844.0
9	18	9	0	296	231.0	-147031.0	-3425.0	-62906.0
9	18	9	0	297	232.0	-150718.0	-3429.0	-65176.0
9	18	9	0	297	233.0	-152666.0	-3455.0	-65164.0
9	18	9	0	307	234.0	-152781.0	-3484.0	-61831.0
9	18	9	0	307	235.0	-151641.0	-3491.0	-57675.0
9	18	9	0	308	236.0	-149902.0	-3503.0	-54677.0
9	18	9	0	308	237.0	-146313.0	-3556.0	-53350.0
9	18	9	0	337	238.0	-142114.0	-3581.0	-52459.0
9	18	9	0	338	239.0	-138902.0	-3600.0	-51547.0
9	18	9	0	338	240.0	-136914.0	-3620.0	-49770.0
9	18	9	0	339	241.0	-135377.0	-3632.0	-47074.0
9	18	9	0	363	242.0	-136042.0	-3657.0	-45255.0
9	18	9	0	402	243.0	-138956.0	-3686.0	-43954.0
9	18	9	0	402	244.0	-143582.0	-3723.0	-43718.0
9	18	9	0	403	245.0	-150597.0	-3738.0	-44132.0
9	18	9	0	404	246.0	-159177.0	-3768.0	-43669.0
9	18	9	0	404	247.0	-166921.0	-3794.0	-42421.0
9	18	9	0	405	248.0	-174172.0	-3821.0	-42842.0
9	18	9	0	405	249.0	-179808.0	-3835.0	-42891.0
9	18	9	0	406	250.0	-181818.0	-3866.0	-42662.0
9	18	9	0	406	251.0	-178886.0	-3909.0	-43043.0
9	18	9	0	407	252.0	-172318.0	-3943.0	-42641.0
9	18	9	0	407	253.0	-164434.0	-3961.0	-42491.0
9	18	9	0	408	254.0	-158652.0	-3982.0	-42117.0
9	18	9	0	408	255.0	-153156.0	-4012.0	-42056.0
9	18	9	0	409	0.0	-145832.0	-4062.0	-42289.0
9	18	9	0	409	7.0	-118337.0	-4257.0	-42362.0
9	18	9	0	410	30.0	-43866.0	-5047.0	-37616.0
9	18	9	0	411	31.0	-42071.0	-5091.0	-37436.0
9	18	9	0	411	32.0	-41494.0	-5143.0	-37134.0
9	18	9	0	412	33.0	-41117.0	-5181.0	-36736.0
9	18	9	0	412	34.0	-41309.0	-5211.0	-36851.0
9	18	9	0	413	35.0	-42611.0	-5254.0	-36354.0
9	18	9	0	446	36.0	-44582.0	-5289.0	-36700.0
9	18	9	0	447	37.0	-47852.0	-5319.0	-37266.0
9	18	9	0	447	38.0	-51460.0	-5366.0	-37228.0
9	18	9	0	448	39.0	-55987.0	-5416.0	-36906.0
9	18	9	0	448	40.0	-60749.0	-5456.0	-36838.0
9	18	9	0	449	41.0	-65844.0	-5481.0	-37150.0
9	18	9	0	450	42.0	-71829.0	-5519.0	-37309.0
9	18	9	0	450	43.0	-77624.0	-5555.0	-36785.0
9	18	9	0	451	44.0	-83333.0	-5599.0	-36487.0
9	18	9	0	451	45.0	-89647.0	-5621.0	-36451.0
9	18	9	0	452	46.0	-95873.0	-5664.0	-36974.0
9	18	9	0	452	47.0	-101558.0	-5703.0	-36853.0
9	18	9	0	453	48.0	-107181.0	-5739.0	-36424.0
9	18	9	0	453	49.0	-112634.0	-5782.0	-36635.0
9	18	9	0	454	50.0	-117630.0	-5807.0	-37071.0
9	18	9	0	454	52.0	-125101.0	-5892.0	-36724.0
9	18	9	0	455	53.0	-128810.0	-5922.0	-37081.0
9	18	9	0	456	54.0	-131619.0	-5946.0	-37762.0
9	18	9	0	456	55.0	-133521.0	-5986.0	-38773.0
9	18	9	0	457	56.0	-134584.0	-6034.0	-38926.0
9	18	9	0	457	57.0	-134553.0	-6074.0	-38825.0
9	18	9	0	458	58.0	-135118.0	-6104.0	-39875.0
9	18	9	0	491	59.0	-136274.0	-6123.0	-40928.0
9	18	9	0	491	60.0	-137507.0	-6159.0	-41921.0
9	18	9	0	492	61.0	-139439.0	-6195.0	-43509.0
9	18	9	0	493	62.0	-142764.0	-6220.0	-44456.0
9	18	9	0	493	63.0	-145674.0	-6266.0	-44748.0
9	18	9	0	494	64.0	-148624.0	-6311.0	-45569.0
9	18	9	0	494	65.0	-153541.0	-6340.0	-46932.0
9	18	9	0	495	66.0	-159525.0	-6372.0	-48109.0
9	18	9	0	495	67.0	-171617.0	-6407.0	-48621.0
9	18	9	0	496	68.0	-195503.0	-6448.0	-49329.0
9	18	9	0	496	69.0	-242041.0	-6482.0	-50479.0
9	18	9	0	497	70.0	-307859.0	-6521.0	-51832.0
9	18	9	0	497	71.0	-379796.0	-6546.0	-53120.0
9	18	9	0	498	72.0	-455995.0	-6594.0	-54524.0
9	18	9	0	498	73.0	-520332.0	-6623.0	-55892.0
9	18	9	0	499	75.0	-625937.0	-6687.0	-58489.0
9	18	9	0	500	76.0	-660508.0	-6714.0	-59314.0
9	18	9	0	500	77.0	-686864.0	-6752.0	-60199.0
9	18	9	0	501	78.0	-709074.0	-6784.0	-61461.0
9	18	9	0	501	79.0	-721192.0	-6836.0	-62496.0
9	18	9	0	502	80.0	-720341.0	-6857.0	-63501.0
9	18	9	0	537	81.0	-715889.0	-6884.0	-65236.0
9	18	9	0	538	82.0	-704548.0	-6923.0	-66325.0
9	18	9	0	538	83.0	-683841.0	-6949.0	-67752.0
9	18	9	0	539	84.0	-662006.0	-6969.0	-69617.0
9	18	9	0	540	85.0	-637877.0	-6999.0	-70826.0
9	18	9	0	540	86.0	-608392.0	-7030.0	-71942.0
9	18	9	0	541	87.0	-581159.0	-7056.0	-73048.0
9	18	9	0	541	88.0	-558481.0	-7087.0	-74031.0
9	18	9	0	542	89.0	-534362.0	-7117.0	-75024.0
9	18	9	0	542	90.0	-509868.0	-7147.0	-76772.0
9	18	9	0	543	91.0	-484137.0	-7169.0	-78132.0
9	18	9	0	543	92.0	-461119.0	-7203.0	-79176.0
9	18	9	0	544	93.0	-441455.0	-7232.0	-80430.0
9	18	9	0	545	94.0	-423129.0	-7246.0	-82245.0
9	18	9	0	545	95.0	-405608.0	-7270.0	-84131.0
9	18	9	0	546	97.0	-367411.0	-7326.0	-86872.0
9	18	9	0	546	98.0	-350991.0	-7344.0	-88409.0
9	18	9	0	547	99.0	-336304.0	-7354.0	-89727.0
9	18	9	0	547	100.0	-324384.0	-7366.0	-92021.0
9	18	9	0	548	101.0	-313486.0	-7401.0	-94108.0
9	18	9	0	548	102.0	-302771.0	-7407.0	-95381.0
9	18	9	0	549	103.0	-291924.0	-7407.0	-96914.0
9	18	9	0	582	104.0	-281892.0	-7419.0	-99066.0
9	18	9	0	582	105.0	-272665.0	-7432.0	-100671.0
9	18	9	0	583	106.0	-264427.0	-7450.0	-101965.0
9	18	9	0	584	107.0	-257681.0	-7444.0	-104089.0
9	18	9	0	584	108.0	-251560.0	-7436.0	-106395.0
9	18	9	0	585	109.0	-244961.0	-7431.0	-108419.0
9	18	9	0	585	110.0	-238746.0	-7431.0	-110537.0
9	18	9	0	586	111.0	-233403.0	-7422.0	-112557.0
9	18	9	0	586	112.0	-228440.0	-7416.0	-114769.0
9	18	9	0	587	113.0	-224129.0	-7402.0	-117331.0
9	18	9	0	588	114.0	-220685.0	-7386.0	-119612.0
9	18	9	0	588	115.0	-218476.0	-7374.0	-121690.0
9	18	9	0	589	116.0	-217394.0	-7359.0	-123617.0
9	18	9	0	589	117.0	-217104.0	-7317.0	-125256.0
9	18	9	0	590	118.0	-217286.0	-7281.0	-127021.0
9	18	9	0	590	120.0	-219450.0	-7228.0	-130796.0
9	18	9	0	591	121.0	-220621.0	-7181.0	-132289.0
9	18	9	0	591	122.0	-222194.0	-7157.0	-133911.0
9	18	9	0	592	123.0	-224644.0	-7127.0	-135208.0
9	18	9	0	592	124.0	-227469.0	-7077.0	-136582.0
9	18	9	0	593	125.0	-230411.0	-7022.0	-138172.0
9	18	9	0	672	126.0	-233106.0	-6995.0	-140173.0
9	18	9	0	673	127.0	-235609.0	-6947.0	-141217.0
9	18	9	0	673	128.0	-238024.0	-6887.0	-142152.0
9	18	9	0	674	129.0	-240165.0	-6824.0	-144254.0
9	18	9	0	674	130.0	-240987.0	-6771.0	-145506.0
9	18	9	0	675	131.0	-238542.0	-6716.0	-146143.0
9	18	9	0	676	132.0	-228650.0	-6644.0	-146941.0
9	18	9	0	676	133.0	-215534.0	-6592.0	-147831.0
9	18	9	0	677	134.0	-204484.0	-6549.0	-148868.0
9	18	9	0	677	135.0	-203387.0	-6468.0	-150183.0
9	18	9	0	678	136.0	-209344.0	-6392.0	-150954.0
9	18	9	0	678	137.0	-222429.0	-6329.0	-151545.0
9	18	9	0	679	138.0	-239205.0	-6279.0	-152284.0
9	18	9	0	680	139.0	-250098.0	-6194.0	-153393.0
9	18	9	0	680	140.0	-257797.0	-6126.0	-153359.0
9	18	9	0	681	165.0	-139657.0	-3993.0	-125136.0
9	18	9	0	681	166.0	-147174.0	-3911.0	-126022.0
9	18	9	0	682	167.0	-147006.0	-3816.0	-127465.0
9	18	9	0	682	168.0	-149499.0	-3744.0	-128565.0
9	18	9	0	683	169.0	-164154.0	-3672.0	-129823.0
9	18	9	0	683	170.0	-167541.0	-3590.0	-131572.0
9	18	9	0	716	171.0	-151074.0	-3511.0	-132977.0
9	18	9	0	717	172.0	-167106.0	-3439.0	-133671.0
9	18	9	0	718	173.0	-203379.0	-3369.0	-134721.0
9	18	9	0	718	174.0	-205507.0	-3289.0	-136341.0
9	18	9	0	719	175.0	-191486.0	-3206.0	-137917.0
9	18	9	0	719	176.0	-220727.0	-3136.0	-139116.0
9	18	9	0	720	177.0	-273655.0	-3076.0	-140583.0
9	18	9	0	720	178.0	-281037.0	-3008.0	-142052.0
9	18	9	0	721	179.0	-268113.0	-2934.0	-143058.0
9	18	9	0	721	180.0	-284617.0	-2870.0	-144062.0
9	18	9	0	722	181.0	-336191.0	-2807.0	-145419.0
9	18	9	0	723	182.0	-343202.0	-2741.0	-146251.0
9	18	9	0	723	183.0	-321804.0	-2692.0	-146653.0
9	18	9	0	724	184.0	-313243.0	-2621.0	-146579.0
9	18	9	0	724	185.0	-352591.0	-2557.0	-146797.0
9	18	9	0	725	187.0	-315801.0	-2452.0	-147227.0
9	18	9	0	726	188.0	-278209.0	-2391.0	-148148.0
9	18	9	0	726	189.0	-302584.0	-2324.0	-150209.0
9	18	9	0	727	190.0	-317127.0	-2281.0	-151797.0
9	18	9	0	728	191.0	-289025.0	-2231.0	-152433.0
9	18	9	0	729	192.0	-248826.0	-2190.0	-153392.0
9	18	9	0	729	193.0	-260010.0	-2129.0	-153612.0
9	18	9	0	762	194.0	-296014.0	-2065.0	-153941.0
9	18	9	0	763	195.0	-286741.0	-2026.0	-154715.0
9	18	9	0	763	196.0	-244302.0	-1977.0	-155737.0
9	18	9	0	764	197.0	-223411.0	-1934.0	-155714.0
9	18	9	0	764	198.0	-252785.0	-1902.0	-156088.0
9	18	9	0	765	199.0	-262784.0	-1846.0	-157035.0
9	18	9	0	766	200.0	-221053.0	-1815.0	-157795.0
9	18	9	0	766	201.0	-172626.0	-1779.0	-158241.0
9	18	9	0	767	202.0	-171264.0	-1734.0	-158721.0
9	18	9	0	767	203.0	-200764.0	-1674.0	-158875.0
9	18	9	0	768	204.0	-198154.0	-1646.0	-159044.0
9	18	9	0	768	205.0	-152459.0	-1623.0	-159484.0
9	18	9	0	769	206.0	-122141.0	-1595.0	-159349.0
9	18	9	0	769	207.0	-139203.0	-1549.0	-158946.0
9	18	9	0	770	208.0	-174472.0	-1525.0	-159050.0
9	18	9	0	771	210.0	-132498.0	-1483.0	-159809.0
9	18	9	0	771	211.0	-118834.0	-1447.0	-159674.0
9	18	9	0	772	212.0	-141671.0	-1410.0	-159791.0
9	18	9	0	773	213.0	-175432.0	-1385.0	-159400.0
9	18	9	0	773	214.0	-174560.0	-1362.0	-159239.0
9	18	9	0	774	215.0	-142996.0	-1334.0	-158886.0
9	18	9	0	806	216.0	-131473.0	-1325.0	-158973.0
9	18	9	0	806	217.0	-151458.0	-1296.0	-158927.0
9	18	9	0	807	218.0	-181462.0	-1289.0	-159029.0
9	18	9	0	807	219.0	-189349.0	-1254.0	-159201.0
9	18	9	0	808	220.0	-165227.0	-1232.0	-159292.0
9	18	9	0	809	221.0	-149477.0	-1207.0	-159316.0
9	18	9	0	809	222.0	-157029.0	-1199.0	-159104.0
9	18	9	0	810	223.0	-176717.0	-1201.0	-159066.0
9	18	9	0	810	224.0	-189442.0	-1182.0	-159266.0
9	18	9	0	811	225.0	-180669.0	-1152.0	-158806.0
9	18	9	0	811	226.0	-161687.0	-1135.0	-158588.0
9	18	9	0	812	227.0	-156907.0	-1129.0	-158679.0
9	18	9	0	813	228.0	-167609.0	-1115.0	-158820.0
9	18	9	0	813	229.0	-179182.0	-1102.0	-158671.0
9	18	9	0	814	230.0	-185222.0	-1102.0	-158617.0
9	18	9	0	814	232.0	-168034.0	-1071.0	-158706.0
9	18	9	0	815	233.0	-165837.0	-1063.0	-158785.0
9	18	9	0	816	234.0	-172128.0	-1078.0	-158847.0
9	18	9	0	817	235.0	-179031.0	-1062.0	-159070.0
9	18	9	0	817	236.0	-183809.0	-1031.0	-158962.0
9	18	9	0	818	237.0	-181532.0	-1031.0	-158836.0
9	18	9	0	852	238.0	-175417.0	-1024.0	-158323.0
9	18	9	0	852	239.0	-171037.0	-1024.0	-158182.0
9	18	9	0	853	240.0	-174823.0	-999.0	-158829.0
9	18	9	0	853	241.0	-178528.0	-995.0	-158951.0
9	18	9	0	854	242.0	-181446.0	-997.0	-158642.0
9	18	9	0	855	243.0	-178616.0	-1002.0	-158582.0
9	18	9	0	855	244.0	-175629.0	-985.0	-159076.0
9	18	9	0	856	245.0	-173080.0	-979.0	-158529.0
9	18	9	0	856	246.0	-174787.0	-972.0	-158197.0
9	18	9	0	857	247.0	-176795.0	-963.0	-158496.0
9	18	9	0	858	248.0	-179784.0	-968.0	-158476.0
9	18	9	0	858	249.0	-179157.0	-941.0	-158407.0
9	18	9	0	859	250.0	-180176.0	-954.0	-158531.0
9	18	9	0	859	251.0	-182636.0	-955.0	-158689.0
9	18	9	0	860	252.0	-187025.0	-953.0	-158725.0
9	18	9	0	860	254.0	-194799.0	-924.0	-158968.0
9	18	9	0	861	255.0	-198296.0	-922.0	-158771.0
9	18	9	0	862	0.0	-202200.0	-912.0	-158616.0
9	18	9	0	862	1.0	-205480.0	-892.0	-158794.0
9	18	9	0	863	2.0	-209750.0	-907.0	-158840.0
9	18	9	0	863	3.0	-212994.0	-897.0	-158764.0
9	18	9	0	864	4.0	-215939.0	-895.0	-158787.0
9	18	9	0	896	5.0	-218062.0	-894.0	-158816.0
9	18	9	0	897	6.0	-219509.0	-877.0	-158807.0
9	18	9	0	898	7.0	-220734.0	-867.0	-158610.0
9	18	9	0	899	8.0	-222248.0	-860.0	-159032.0
9	18	9	0	906	9.0	-223446.0	-864.0	-159679.0
9	18	9	0	907	10.0	-223262.0	-857.0	-159575.0
9	18	9	0	908	11.0	-222142.0	-854.0	-159244.0
9	18	9	0	908	12.0	-221718.0	-838.0	-158797.0
9	18	9	0	909	13.0	-221690.0	-834.0	-159277.0
9	18	9	0	909	14.0	-222340.0	-822.0	-159279.0
9	18	9	0	910	15.0	-220969.0	-816.0	-158952.0
9	18	9	0	910	16.0	-219556.0	-815.0	-158629.0
9	18	9	0	911	17.0	-217938.0	-814.0	-158454.0
9	18	9	0	911	18.0	-215915.0	-797.0	-158481.0
9	18	9	0	912	19.0	-215012.0	-779.0	-158785.0
9	18	9	0	913	21.0	-217673.0	-776.0	-156618.0
9	18	9	0	913	22.0	-218783.0	-764.0	-156103.0
9	18	9	0	914	23.0	-219441.0	-774.0	-156024.0
9	18	9	0	914	24.0	-219881.0	-782.0	-155967.0
9	18	9	0	915	25.0	-222206.0	-769.0	-156201.0
9	18	9	0	915	26.0	-225336.0	-782.0	-156036.0
9	18	9	0	941	27.0	-227177.0	-784.0	-155655.0
9	18	9	0	942	28.0	-228168.0	-758.0	-155754.0
9	18	9	0	943	29.0	-228779.0	-756.0	-155788.0
9	18	9	0	943	30.0	-230971.0	-761.0	-156019.0
9	18	9	0	944	31.0	-234449.0	-781.0	-156236.0
9	18	9	0	945	32.0	-236112.0	-779.0	-156254.0
9	18	9	0	945	33.0	-235812.0	-764.0	-156577.0
9	18	9	0	946	34.0	-234344.0	-760.0	-156970.0
9	18	9	0	947	35.0	-233954.0	-787.0	-157449.0
9	18	9	0	947	36.0	-235149.0	-781.0	-157896.0
9	18	9	0	948	37.0	-235429.0	-776.0	-158307.0
9	18	9	0	948	38.0	-235480.0	-770.0	-158097.0
9	18	9	0	949	39.0	-238807.0	-782.0	-158361.0
9	18	9	0	950	40.0	-242727.0	-764.0	-158686.0
9	18	9	0	950	41.0	-243019.0	-764.0	-159052.0
9	18	9	0	951	43.0	-245444.0	-785.0	-158742.0
9	18	9	0	951	44.0	-247984.0	-793.0	-158897.0
9	18	9	0	952	45.0	-250222.0	-796.0	-159054.0
9	18	9	0	953	46.0	-251604.0	-784.0	-158889.0
9	18	9	0	953	47.0	-254331.0	-791.0	-159026.0
9	18	9	0	954	48.0	-257265.0	-793.0	-159303.0
9	18	9	0	954	49.0	-258915.0	-803.0	-159051.0
9	18	9	0	986	50.0	-259493.0	-799.0	-159000.0
9	18	9	0	987	51.0	-260950.0	-804.0	-159818.0
9	18	9	0	987	52.0	-262905.0	-806.0	-159595.0
9	18	9	0	988	53.0	-263841.0	-823.0	-159387.0
9	18	9	0	989	54.0	-264937.0	-823.0	-159330.0
9	18	9	0	989	55.0	-267012.0	-837.0	-159100.0
9	18	9	0	990	56.0	-268921.0	-822.0	-158643.0
9	18	9	0	990	57.0	-269800.0	-829.0	-158213.0
9	18	9	0	991	58.0	-269996.0	-859.0	-157504.0
9	18	9	0	992	59.0	-267729.0	-866.0	-157135.0
9	18	9	0	992	60.0	-264916.0	-862.0	-157019.0
9	18	9	0	993	61.0	-261592.0	-858.0	-157238.0
9	18	9	0	993	62.0	-258214.0	-869.0	-157559.0
9	18	9	0	994	63.0	-253017.0	-867.0	-157999.0
9	18	9	0	994	64.0	-247949.0	-879.0	-158636.0
9	18	9	0	995	66.0	-238289.0	-886.0	-158822.0
9	18	9	0	996	67.0	-232819.0	-894.0	-158857.0
9	18	9	0	996	68.0	-227453.0	-907.0	-159303.0
9	18	9	0	997	69.0	-222664.0	-932.0	-159406.0
9	18	9	0	997	70.0	-218109.0	-946.0	-159312.0
9	18	9	0	998	71.0	-214558.0	-940.0	-159479.0
9	18	9	1	31	72.0	-211064.0	-956.0	-159562.0
9	18	9	1	32	73.0	-207497.0	-974.0	-160004.0
9	18	9	1	33	74.0	-203280.0	-987.0	-160124.0
9	18	9	1	34	75.0	-199091.0	-1001.0	-160531.0
9	18	9	1	34	76.0	-195141.0	-1009.0	-160862.0
9	18	9	1	35	77.0	-191020.0	-1016.0	-160946.0
9	18	9	1	35	78.0	-186775.0	-1014.0	-161661.0
9	18	9	1	36	79.0	-182004.0	-1044.0	-162526.0
9	18	9	1	37	80.0	-177132.0	-1059.0	-163005.0
9	18	9	1	37	81.0	-171446.0	-1053.0	-162790.0
9	18	9	1	38	82.0	-166951.0	-1079.0	-162637.0
9	18	9	1	38	83.0	-162929.0	-1099.0	-162092.0
9	18	9	1	39	84.0	-159444.0	-1108.0	-161372.0
9	18	9	1	39	85.0	-156009.0	-1122.0	-160901.0
9	18	9	1	40	86.0	-151486.0	-1141.0	-160453.0
9	18	9	1	41	88.0	-143435.0	-1166.0	-156341.0
9	18	9	1	41	89.0	-139616.0	-1197.0	-153277.0
9	18	9	1	42	90.0	-136036.0	-1214.0	-150610.0
9	18	9	1	42	91.0	-133020.0	-1225.0	-146511.0
9	18	9	1	43	92.0	-131647.0	-1216.0	-141742.0
9	18	9	1	44	93.0	-129771.0	-1233.0	-141033.0
9	18	9	1	44	94.0	-128619.0	-1269.0	-144092.0
9	18	9	1	77	95.0	-127559.0	-1280.0	-148416.0
9	18	9	1	77	96.0	-126612.0	-1282.0	-154288.0
9	18	9	1	78	97.0	-126309.0	-1301.0	-165254.0
9	18	9	1	79	98.0	-126705.0	-1320.0	-177760.0
9	18	9	1	79	99.0	-126742.0	-1332.0	-188386.0
9	18	9	1	80	100.0	-128996.0	-1353.0	-195336.0
9	18	9	1	81	101.0	-130983.0	-1374.0	-198216.0
9	18	9	1	81	102.0	-133217.0	-1392.0	-197809.0
9	18	9	1	82	103.0	-135387.0	-1416.0	-196964.0
9	18	9	1	82	104.0	-138519.0	-1424.0	-193502.0
9	18	9	1	83	105.0	-139828.0	-1435.0	-189734.0
9	18	9	1	84	106.0	-141206.0	-1465.0	-186544.0
9	18	9	1	85	107.0	-142591.0	-1499.0	-184109.0
9	18	9	1	85	108.0	-145462.0	-1494.0	-183552.0
9	18	9	1	86	109.0	-146962.0	-1504.0	-185342.0
9	18	9	1	86	111.0	-147954.0	-1577.0	-182559.0
9	18	9	1	87	112.0	-147286.0	-1606.0	-178514.0
9	18	9	1	88	113.0	-146207.0	-1622.0	-175667.0
9	18	9	1	88	114.0	-145349.0	-1641.0	-174536.0
9	18	9	1	89	115.0	-143813.0	-1652.0	-173166.0
9	18	9	1	89	116.0	-142917.0	-1651.0	-171232.0
9	18	9	1	121	117.0	-143093.0	-1675.0	-168410.0
9	18	9	1	121	118.0	-144558.0	-1716.0	-165389.0
9	18	9	1	122	119.0	-147369.0	-1732.0	-163639.0
9	18	9	1	123	120.0	-151243.0	-1759.0	-162983.0
9	18	9	1	123	121.0	-153176.0	-1782.0	-162165.0
9	18	9	1	124	122.0	-149140.0	-1796.0	-160737.0
9	18	9	1	124	123.0	-141072.0	-1809.0	-159722.0
9	18	9	1	125	124.0	-133619.0	-1831.0	-159807.0
9	18	9	1	126	125.0	-126760.0	-1842.0	-159677.0
9	18	9	1	127	126.0	-121497.0	-1857.0	-159536.0
9	18	9	1	127	127.0	-117444.0	-1890.0	-159462.0
9	18	9	1	128	128.0	-113865.0	-1903.0	-159177.0
9	18	9	1	129	129.0	-111418.0	-1919.0	-158631.0
9	18	9	1	130	130.0	-108837.0	-1949.0	-158410.0
9	18	9	1	130	131.0	-108942.0	-1968.0	-158590.0
9	18	9	1	131	133.0	-115134.0	-2021.0	-158030.0
9	18	9	1	132	134.0	-117853.0	-2041.0	-158282.0
9	18	9	1	132	135.0	-116834.0	-2045.0	-157819.0
9	18	9	1	133	136.0	-114914.0	-2058.0	-157451.0
9	18	9	1	133	137.0	-111897.0	-2084.0	-157398.0
9	18	9	1	134	138.0	-108401.0	-2121.0	-157101.0
9	18	9	1	135	139.0	-105696.0	-2144.0	-156852.0
9	18	9	1	168	140.0	-100136.0	-2164.0	-156804.0
9	18	9	1	168	141.0	-91838.0	-2194.0	-156782.0
9	18	9	1	169	142.0	-80635.0	-2212.0	-156766.0
9	18	9	1	170	143.0	-70896.0	-2206.0	-156651.0
9	18	9	1	170	144.0	-65403.0	-2236.0	-156563.0
9	18	9	1	171	145.0	-61584.0	-2263.0	-156599.0
9	18	9	1	172	146.0	-59198.0	-2280.0	-156475.0
9	18	9	1	172	147.0	-57176.0	-2291.0	-156301.0
9	18	9	1	173	148.0	-56052.0	-2301.0	-155996.0
9	18	9	1	174	149.0	-57512.0	-2335.0	-155665.0
9	18	9	1	174	150.0	-59951.0	-2347.0	-155276.0
9	18	9	1	175	151.0	-63611.0	-2377.0	-155151.0
9	18	9	1	175	152.0	-73796.0	-2404.0	-155031.0
9	18	9	1	176	153.0	-80331.0	-2427.0	-154862.0
9	18	9	1	177	154.0	-73145.0	-2447.0	-154271.0
9	18	9	1	177	156.0	-60706.0	-2489.0	-154471.0
9	18	9	1	178	157.0	-51737.0	-2517.0	-153934.0
9	18	9	1	178	158.0	-46692.0	-2541.0	-153849.0
9	18	9	1	179	159.0	-46424.0	-2557.0	-154057.0
9	18	9	1	180	160.0	-48780.0	-2591.0	-153675.0
9	18	9	1	180	161.0	-51732.0	-2607.0	-153249.0
9	18	9	1	211	162.0	-53478.0	-2628.0	-153156.0
9	18	9	1	212	163.0	-53784.0	-2640.0	-153051.0
9	18	9	1	212	164.0	-52791.0	-2671.0	-152600.0
9	18	9	1	213	165.0	-52966.0	-2701.0	-152327.0
9	18	9	1	214	166.0	-53730.0	-2706.0	-151986.0
9	18	9	1	214	167.0	-54903.0	-2727.0	-151702.0
9	18	9	1	215	168.0	-56563.0	-2762.0	-151228.0
9	18	9	1	215	169.0	-58942.0	-2756.0	-151428.0
9	18	9	1	216	170.0	-61051.0	-2789.0	-150981.0
9	18	9	1	217	171.0	-64013.0	-2829.0	-150658.0
9	18	9	1	217	172.0	-68034.0	-2861.0	-150581.0
9	18	9	1	218	173.0	-72872.0	-2879.0	-150396.0
9	18	9	1	219	174.0	-77265.0	-2908.0	-150438.0
9	18	9	1	219	175.0	-82306.0	-2929.0	-150072.0
9	18	9	1	220	176.0	-86552.0	-2943.0	-149477.0
9	18	9	1	220	178.0	-93285.0	-2987.0	-149062.0
9	18	9	1	221	179.0	-97065.0	-3012.0	-148691.0
9	18	9	1	222	180.0	-99654.0	-3041.0	-147875.0
9	18	9	1	222	181.0	-102006.0	-3067.0	-147684.0
9	18	9	1	223	182.0	-103571.0	-3090.0	-147496.0
9	18	9	1	224	183.0	-105351.0	-3124.0	-146755.0
9	18	9	1	224	184.0	-106157.0	-3157.0	-146489.0
9	18	9	1	256	185.0	-106392.0	-3194.0	-146082.0
9	18	9	1	257	186.0	-105300.0	-3209.0	-145654.0
9	18	9	1	258	187.0	-103667.0	-3238.0	-145274.0
9	18	9	1	258	188.0	-101695.0	-3267.0	-144785.0
9	18	9	1	259	189.0	-100681.0	-3299.0	-144347.0
9	18	9	1	259	190.0	-99257.0	-3312.0	-144157.0
9	18	9	1	260	191.0	-98000.0	-3339.0	-143611.0
9	18	9	1	261	192.0	-97262.0	-3364.0	-142977.0
9	18	9	1	261	193.0	-97164.0	-3377.0	-142781.0
9	18	9	1	262	194.0	-97826.0	-3396.0	-142312.0
9	18	9	1	263	195.0	-98316.0	-3413.0	-141342.0
9	18	9	1	263	196.0	-99557.0	-3443.0	-140842.0
9	18	9	1	264	197.0	-101581.0	-3461.0	-140410.0
9	18	9	1	265	198.0	-104677.0	-3483.0	-139469.0
9	18	9	1	265	199.0	-107911.0	-3511.0	-138507.0
9	18	9	1	266	201.0	-114025.0	-3540.0	-137772.0
9	18	9	1	266	202.0	-117430.0	-3572.0	-137062.0
9	18	9	1	267	203.0	-120376.0	-3591.0	-136643.0
9	18	9	1	268	204.0	-122150.0	-3599.0	-135906.0
9	18	9	1	268	205.0	-123657.0	-3619.0	-135396.0
9	18	9	1	269	206.0	-124814.0	-3665.0	-134814.0
9	18	9	1	301	207.0	-126022.0	-3685.0	-133697.0
9	18	9	1	302	208.0	-126540.0	-3702.0	-132904.0
9	18	9	1	302	209.0	-126548.0	-3723.0	-132577.0
9	18	9	1	303	210.0	-125340.0	-3749.0	-132326.0
9	18	9	1	304	211.0	-123724.0	-3779.0	-131853.0
9	18	9	1	304	212.0	-121636.0	-3792.0	-131503.0
9	18	9	1	305	213.0	-119888.0	-3809.0	-131101.0
9	18	9	1	306	214.0	-117116.0	-3828.0	-130458.0
9	18	9	1	306	215.0	-115357.0	-3844.0	-129931.0
9	18	9	1	307	216.0	-112746.0	-3851.0	-129584.0
9	18	9	1	308	217.0	-110017.0	-3883.0	-129383.0
9	18	9	1	309	218.0	-107156.0	-3901.0	-128708.0
9	18	9	1	309	219.0	-104667.0	-3902.0	-128480.0
9	18	9	1	310	220.0	-102509.0	-3906.0	-128538.0
9	18	9	1	311	221.0	-99716.0	-3924.0	-128588.0
9	18	9	1	311	223.0	-94954.0	-3931.0	-128073.0
9	18	9	1	312	224.0	-92256.0	-3931.0	-128124.0
9	18	9	1	313	225.0	-89062.0	-3922.0	-128588.0
9	18	9	1	313	226.0	-86511.0	-3921.0	-128326.0
9	18	9	1	314	227.0	-84771.0	-3904.0	-128564.0
9	18	9	1	315	228.0	-83817.0	-3914.0	-128931.0
9	18	9	1	392	229.0	-81801.0	-3904.0	-129288.0
9	18	9	1	393	230.0	-80002.0	-3888.0	-129636.0
9	18	9	1	393	231.0	-79064.0	-3867.0	-130417.0
9	18	9	1	394	232.0	-78638.0	-3831.0	-131419.0
9	18	9	1	395	233.0	-77606.0	-3801.0	-132024.0
9	18	9	1	396	234.0	-77209.0	-3774.0	-132558.0
9	18	9	1	397	235.0	-77077.0	-3741.0	-133737.0
9	18	9	1	398	236.0	-76970.0	-3707.0	-134659.0
9	18	9	1	399	237.0	-76521.0	-3657.0	-134960.0
9	18	9	1	399	238.0	-77179.0	-3615.0	-135403.0
9	18	9	1	400	239.0	-78231.0	-3576.0	-136144.0
9	18	9	1	401	240.0	-79830.0	-3519.0	-136884.0
9	18	9	1	401	241.0	-80980.0	-3448.0	-137342.0
9	18	9	1	402	242.0	-89137.0	-3401.0	-137916.0
9	18	9	1	402	243.0	-103732.0	-3347.0	-138787.0
9	18	9	1	403	12.0	-166170.0	-1338.0	-142098.0
9	18	9	1	404	13.0	-164727.0	-1271.0	-141771.0
9	18	9	1	404	14.0	-159646.0	-1164.0	-142059.0
9	18	9	1	405	15.0	-146121.0	-1062.0	-142171.0
9	18	9	1	405	16.0	-130322.0	-973.0	-141839.0
9	18	9	1	406	17.0	-120329.0	-882.0	-141649.0
9	18	9	1	438	18.0	-128528.0	-780.0	-141646.0
9	18	9	1	439	19.0	-139712.0	-680.0	-141476.0
9	18	9	1	439	20.0	-152852.0	-594.0	-141179.0
9	18	9	1	440	21.0	-167566.0	-522.0	-141024.0
9	18	9	1	441	22.0	-172716.0	-441.0	-141144.0
9	18	9	1	441	23.0	-180297.0	-347.0	-141117.0
9	18	9	1	442	24.0	-185105.0	-258.0	-141107.0
9	18	9	1	443	25.0	-186187.0	-171.0	-140881.0
9	18	9	1	443	26.0	-187121.0	-95.0	-140672.0
9	18	9	1	444	27.0	-187297.0	-22.0	-140607.0
9	18	9	1	445	28.0	-183544.0	51.0	-140699.0
9	18	9	1	445	29.0	-179076.0	133.0	-140584.0
9	18	9	1	446	30.0	-174472.0	216.0	-140126.0
9	18	9	1	447	31.0	-171552.0	310.0	-140164.0
9	18	9	1	447	32.0	-168673.0	364.0	-140050.0
9	18	9	1	448	34.0	-161751.0	509.0	-139370.0
9	18	9	1	448	35.0	-160014.0	583.0	-139172.0
9	18	9	1	449	36.0	-159798.0	669.0	-139479.0
9	18	9	1	450	37.0	-161054.0	724.0	-139267.0
9	18	9	1	450	38.0	-164724.0	795.0	-138832.0
9	18	9	1	451	39.0	-168758.0	870.0	-139046.0
9	18	9	1	452	40.0	-174014.0	930.0	-138892.0
9	18	9	1	526	41.0	-176866.0	1002.0	-138762.0
9	18	9	1	527	42.0	-176949.0	1061.0	-138652.0
9	18	9	1	529	43.0	-176405.0	1137.0	-138421.0
9	18	9	1	529	44.0	-175178.0	1199.0	-138337.0
9	18	9	1	530	45.0	-174155.0	1269.0	-138423.0
9	18	9	1	531	46.0	-173956.0	1326.0	-138219.0
9	18	9	1	531	47.0	-173586.0	1391.0	-137732.0
9	18	9	1	532	48.0	-173941.0	1458.0	-137780.0
9	18	9	1	533	49.0	-175992.0	1515.0	-137831.0
9	18	9	1	533	50.0	-178216.0	1574.0	-137229.0
9	18	9	1	534	51.0	-180202.0	1636.0	-136855.0
9	18	9	1	535	52.0	-181436.0	1700.0	-137167.0
9	18	9	1	535	53.0	-183395.0	1738.0	-137140.0
9	18	9	1	536	54.0	-184098.0	1782.0	-136962.0
9	18	9	1	537	55.0	-183483.0	1831.0	-137153.0
9	18	9	1	537	79.0	-114861.0	2726.0	-133027.0
9	18	9	1	538	80.0	-120205.0	2753.0	-133172.0
9	18	9	1	539	81.0	-125372.0	2788.0	-132942.0
9	18	9	1	540	82.0	-130564.0	2785.0	-132679.0
9	18	9	1	571	83.0	-136707.0	2803.0	-132634.0
9	18	9	1	572	84.0	-142211.0	2831.0	-132885.0
9	18	9	1	573	85.0	-146644.0	2854.0	-132424.0
9	18	9	1	573	86.0	-150741.0	2866.0	-132311.0
9	18	9	1	574	87.0	-154041.0	2869.0	-132539.0
9	18	9	1	575	88.0	-157769.0	2879.0	-132172.0
9	18	9	1	575	89.0	-160880.0	2913.0	-131741.0
9	18	9	1	576	90.0	-163611.0	2916.0	-131742.0
9	18	9	1	577	91.0	-165718.0	2933.0	-131650.0
9	18	9	1	578	92.0	-167381.0	2943.0	-131195.0
9	18	9	1	578	93.0	-169321.0	2959.0	-131066.0
9	18	9	1	579	94.0	-170879.0	2981.0	-131156.0
9	18	9	1	580	95.0	-171587.0	2988.0	-131249.0
9	18	9	1	580	96.0	-171587.0	2994.0	-131144.0
9	18	9	1	581	97.0	-172657.0	3019.0	-130864.0
9	18	9	1	582	98.0	-172960.0	3021.0	-130906.0
9	18	9	1	582	102.0	-171864.0	3051.0	-130124.0
9	18	9	1	583	103.0	-171391.0	3063.0	-129727.0
9	18	9	1	583	104.0	-170482.0	3076.0	-129769.0
9	18	9	1	584	105.0	-168707.0	3073.0	-129811.0
9	18	9	1	585	106.0	-166767.0	3101.0	-129959.0
9	18	9	1	585	107.0	-163967.0	3102.0	-129410.0
9	18	9	1	586	108.0	-160891.0	3113.0	-129149.0
9	18	9	1	616	109.0	-158192.0	3128.0	-129371.0
9	18	9	1	617	110.0	-155959.0	3114.0	-128706.0
9	18	9	1	617	111.0	-153101.0	3129.0	-128459.0
9	18	9	1	618	112.0	-149210.0	3129.0	-128708.0
9	18	9	1	619	113.0	-145747.0	3125.0	-128125.0
9	18	9	1	619	114.0	-143406.0	3149.0	-128187.0
9	18	9	1	636	115.0	-141196.0	3159.0	-128459.0
9	18	9	1	661	116.0	-139158.0	3159.0	-128606.0
9	18	9	1	662	117.0	-137244.0	3166.0	-128221.0
9	18	9	1	663	118.0	-135491.0	3180.0	-128187.0
9	18	9	1	664	119.0	-133924.0	3203.0	-128202.0
9	18	9	1	664	120.0	-132187.0	3198.0	-128183.0
9	18	9	1	665	121.0	-130195.0	3227.0	-127992.0
9	18	9	1	666	122.0	-129247.0	3245.0	-127828.0
9	18	9	1	666	123.0	-129224.0	3246.0	-127609.0
9	18	9	1	667	124.0	-128437.0	3236.0	-127713.0
9	18	9	1	668	125.0	-127941.0	3251.0	-127883.0
9	18	9	1	669	126.0	-127351.0	3273.0	-127925.0
9	18	9	1	669	127.0	-126736.0	3283.0	-127566.0
9	18	9	1	670	128.0	-125814.0	3305.0	-127931.0
9	18	9	1	671	129.0	-125416.0	3289.0	-128338.0
9	18	9	1	671	130.0	-124645.0	3288.0	-128127.0
9	18	9	1	672	147.0	-126186.0	3484.0	-126244.0
9	18	9	1	672	148.0	-125865.0	3501.0	-125732.0
9	18	9	1	673	149.0	-124826.0	3509.0	-125553.0
9	18	9	1	674	150.0	-123541.0	3529.0	-125455.0
9	18	9	1	674	151.0	-122630.0	3536.0	-125852.0
9	18	9	1	675	152.0	-121724.0	3543.0	-125159.0
9	18	9	1	705	153.0	-120611.0	3555.0	-124744.0
9	18	9	1	706	154.0	-118593.0	3554.0	-124686.0
9	18	9	1	707	155.0	-116159.0	3559.0	-124449.0
9	18	9	1	707	156.0	-113429.0	3564.0	-124327.0
9	18	9	1	708	157.0	-110168.0	3573.0	-124416.0
9	18	9	1	709	158.0	-106562.0	3582.0	-124120.0
9	18	9	1	710	159.0	-103376.0	3608.0	-123902.0
9	18	9	1	711	160.0	-100311.0	3618.0	-124169.0
9	18	9	1	712	161.0	-96643.0	3630.0	-124176.0
9	18	9	1	712	162.0	-93150.0	3639.0	-123736.0
9	18	9	1	713	163.0	-90305.0	3649.0	-123536.0
9	18	9	1	714	164.0	-88113.0	3639.0	-123643.0
9	18	9	1	714	165.0	-86171.0	3669.0	-123466.0
9	18	9	1	715	166.0	-86374.0	3665.0	-123174.0
9	18	9	1	716	167.0	-89332.0	3681.0	-123037.0
9	18	9	1	716	169.0	-105385.0	3721.0	-122646.0
9	18	9	1	717	170.0	-97741.0	3728.0	-122489.0
9	18	9	1	717	171.0	-80806.0	3744.0	-122286.0
9	18	9	1	718	172.0	-82090.0	3766.0	-122164.0
9	18	9	1	719	173.0	-75425.0	3769.0	-121874.0
9	18	9	1	719	174.0	-75662.0	3778.0	-121789.0
9	18	9	1	720	175.0	-80001.0	3783.0	-121776.0
9	18	9	1	751	176.0	-83444.0	3789.0	-121504.0
9	18	9	1	752	177.0	-86594.0	3803.0	-121516.0
9	18	9	1	752	178.0	-88127.0	3814.0	-121244.0
9	18	9	1	753	179.0	-88516.0	3834.0	-121064.0
9	18	9	1	754	180.0	-90137.0	3834.0	-120917.0
9	18	9	1	754	181.0	-92009.0	3823.0	-120674.0
9	18	9	1	755	182.0	-94472.0	3844.0	-120664.0
9	18	9	1	755	183.0	-98038.0	3847.0	-120311.0
9	18	9	1	756	184.0	-102377.0	3839.0	-120069.0
9	18	9	1	756	185.0	-106387.0	3840.0	-120161.0
9	18	9	1	757	186.0	-109559.0	3856.0	-120184.0
9	18	9	1	757	187.0	-112604.0	3864.0	-119822.0
9	18	9	1	758	188.0	-115563.0	3869.0	-119336.0
9	18	9	1	758	189.0	-118942.0	3881.0	-119468.0
9	18	9	1	759	190.0	-122435.0	3873.0	-119167.0
9	18	9	1	760	192.0	-127311.0	3868.0	-118974.0
9	18	9	1	767	193.0	-129147.0	3851.0	-118714.0
9	18	9	1	768	194.0	-129964.0	3844.0	-118732.0
9	18	9	1	769	195.0	-130194.0	3853.0	-118719.0
9	18	9	1	796	196.0	-130205.0	3846.0	-118699.0
9	18	9	1	797	197.0	-129686.0	3838.0	-118137.0
9	18	9	1	887	198.0	-128611.0	3816.0	-118337.0
9	18	9	1	887	199.0	-127577.0	3806.0	-118569.0
9	18	9	1	888	200.0	-126348.0	3808.0	-118116.0
9	18	9	1	889	201.0	-125102.0	3784.0	-117761.0
9	18	9	1	889	202.0	-123492.0	3778.0	-118422.0
9	18	9	1	890	203.0	-122094.0	3773.0	-118048.0
9	18	9	1	890	204.0	-120349.0	3762.0	-117654.0
9	18	9	1	891	205.0	-118635.0	3752.0	-117837.0
9	18	9	1	891	206.0	-117315.0	3731.0	-117960.0
9	18	9	1	892	207.0	-116271.0	3717.0	-117884.0
9	18	9	1	893	208.0	-123819.0	3714.0	-117914.0
9	18	9	1	893	209.0	-172970.0	3697.0	-118054.0
9	18	9	1	894	210.0	-105563.0	3667.0	-118049.0
9	18	9	1	894	211.0	-88727.0	3646.0	-117887.0
9	18	9	1	895	214.0	-114125.0	3549.0	-117121.0
9	18	9	1	895	215.0	-110023.0	3522.0	-117031.0
9	18	9	1	896	3.0	-89669.0	2194.0	-103560.0
9	18	9	1	897	4.0	-102176.0	2171.0	-102093.0
9	18	9	1	897	5.0	-94084.0	2134.0	-100847.0
9	18	9	1	898	6.0	-74238.0	2093.0	-98200.0
9	18	9	1	898	7.0	-80327.0	2054.0	-94278.0
9	18	9	1	899	8.0	-84294.0	2024.0	-90405.0
9	18	9	1	899	9.0	-90000.0	1981.0	-86926.0
9	18	9	1	931	10.0	-95520.0	1950.0	-82213.0
9	18	9	1	949	11.0	-104681.0	1910.0	-80505.0
9	18	9	1	950	12.0	-110169.0	1879.0	-84094.0
9	18	9	1	951	13.0	-116137.0	1829.0	-89278.0
9	18	9	1	951	14.0	-121422.0	1805.0	-97544.0
9	18	9	1	952	15.0	-126790.0	1764.0	-111344.0
9	18	9	1	952	16.0	-132636.0	1731.0	-124932.0
9	18	9	1	953	17.0	-138236.0	1711.0	-136143.0
9	18	9	1	953	18.0	-143937.0	1664.0	-143721.0
9	18	9	1	954	19.0	-149547.0	1631.0	-148159.0
9	18	9	1	954	20.0	-155009.0	1588.0	-150177.0
9	18	9	1	955	21.0	-159772.0	1563.0	-147351.0
9	18	9	1	956	22.0	-163226.0	1518.0	-142939.0
9	18	9	1	956	23.0	-165290.0	1483.0	-138384.0
9	18	9	1	957	24.0	-166732.0	1464.0	-134906.0
9	18	9	1	957	25.0	-167592.0	1421.0	-131737.0
9	18	9	1	958	26.0	-167889.0	1378.0	-130275.0
9	18	9	1	958	27.0	-166789.0	1330.0	-129219.0
9	18	9	1	959	28.0	-164400.0	1301.0	-126166.0
9	18	9	1	959	29.0	-161452.0	1246.0	-122508.0
9	18	9	1	960	30.0	-157824.0	1219.0	-118644.0
9	18	9	1	960	31.0	-153984.0	1206.0	-116266.0
9	18	9	1	976	32.0	-150661.0	1177.0	-114172.0
9	18	9	1	977	33.0	-148553.0	1114.0	-111417.0
9	18	9	1	977	34.0	-148350.0	1080.0	-108879.0
9	18	9	1	978	35.0	-150948.0	1053.0	-106350.0
9	18	9	1	978	36.0	-156422.0	999.0	-104288.0
9	18	9	1	979	37.0	-163984.0	960.0	-102764.0
9	18	9	1	980	38.0	-168952.0	919.0	-101723.0
9	18	9	1	980	39.0	-166972.0	896.0	-100747.0
9	18	9	1	981	40.0	-163864.0	852.0	-100062.0
9	18	9	1	981	41.0	-163552.0	827.0	-99406.0
9	18	9	1	982	42.0	-165292.0	779.0	-98917.0
9	18	9	1	982	43.0	-169866.0	747.0	-98708.0
9	18	9	1	983	44.0	-176328.0	721.0	-98768.0
9	18	9	1	984	45.0	-182603.0	692.0	-98168.0
9	18	9	1	984	46.0	-187199.0	651.0	-97333.0
9	18	9	1	985	48.0	-197436.0	591.0	-97134.0
9	18	9	1	985	49.0	-206372.0	554.0	-96754.0
9	18	9	1	986	50.0	-215940.0	516.0	-96413.0
9	18	9	1	986	51.0	-224539.0	451.0	-96187.0
9	18	9	1	987	52.0	-231162.0	416.0	-95694.0
9	18	9	1	988	53.0	-235962.0	394.0	-95346.0
9	18	9	2	21	54.0	-239454.0	350.0	-95131.0
9	18	9	2	22	55.0	-241569.0	297.0	-95001.0
9	18	9	2	22	56.0	-241249.0	257.0	-94524.0
9	18	9	2	23	57.0	-238312.0	241.0	-94272.0
9	18	9	2	23	58.0	-235136.0	214.0	-94113.0
9	18	9	2	24	59.0	-233012.0	180.0	-93827.0
9	18	9	2	25	60.0	-230122.0	131.0	-93699.0
9	18	9	2	25	61.0	-226162.0	90.0	-93749.0
9	18	9	2	26	62.0	-225834.0	58.0	-93539.0
9	18	9	2	26	63.0	-227111.0	8.0	-92979.0
9	18	9	2	27	64.0	-226811.0	-29.0	-92713.0
9	18	9	2	27	65.0	-225007.0	-66.0	-92426.0
9	18	9	2	28	66.0	-221377.0	-95.0	-92080.0
9	18	9	2	29	67.0	-216560.0	-132.0	-91826.0
9	18	9	2	29	68.0	-210421.0	-176.0	-91470.0
9	18	9	2	30	70.0	-192799.0	-275.0	-91059.0
9	18	9	2	31	71.0	-182883.0	-310.0	-91224.0
9	18	9	2	31	72.0	-174457.0	-342.0	-90915.0
9	18	9	2	32	73.0	-167157.0	-395.0	-90526.0
9	18	9	2	32	74.0	-162147.0	-441.0	-90142.0
9	18	9	2	33	75.0	-159379.0	-477.0	-89806.0
9	18	9	2	34	76.0	-157551.0	-513.0	-89381.0
9	18	9	2	112	77.0	-156151.0	-564.0	-88825.0
9	18	9	2	112	78.0	-154229.0	-612.0	-88781.0
9	18	9	2	113	79.0	-150839.0	-646.0	-88567.0
9	18	9	2	114	80.0	-146531.0	-676.0	-88190.0
9	18	9	2	114	81.0	-142630.0	-728.0	-87854.0
9	18	9	2	115	82.0	-139809.0	-766.0	-87884.0
9	18	9	2	115	83.0	-138591.0	-808.0	-87600.0
9	18	9	2	156	84.0	-139931.0	-856.0	-87390.0
9	18	9	2	157	85.0	-144010.0	-907.0	-86929.0
9	18	9	2	157	86.0	-149977.0	-949.0	-86977.0
9	18	9	2	158	87.0	-157702.0	-996.0	-86444.0
9	18	9	2	159	88.0	-166006.0	-1043.0	-86266.0
9	18	9	2	159	89.0	-174712.0	-1094.0	-86090.0
9	18	9	2	160	90.0	-183483.0	-1119.0	-85499.0
9	18	9	2	160	91.0	-191467.0	-1166.0	-84877.0
9	18	9	2	161	93.0	-203785.0	-1241.0	-84316.0
9	18	9	2	161	116.0	-217449.0	-2214.0	-72259.0
9	18	9	2	162	117.0	-217267.0	-2230.0	-71974.0
9	18	9	2	163	118.0	-217382.0	-2289.0	-71554.0
9	18	9	2	163	119.0	-217331.0	-2327.0	-70647.0
9	18	9	2	164	120.0	-217091.0	-2359.0	-70103.0
9	18	9	2	164	121.0	-216998.0	-2393.0	-69178.0
9	18	9	2	165	122.0	-216785.0	-2427.0	-68519.0
9	18	9	2	165	138.0	-186241.0	-2892.0	-61570.0
9	18	9	2	166	139.0	-183186.0	-2897.0	-61504.0
9	18	9	2	167	140.0	-180519.0	-2906.0	-61584.0
9	18	9	2	167	141.0	-178109.0	-2929.0	-61337.0
9	18	9	2	168	142.0	-175514.0	-2955.0	-61013.0
9	18	9	2	168	143.0	-172611.0	-2934.0	-61360.0
9	18	9	2	201	144.0	-169542.0	-2934.0	-61590.0
9	18	9	2	202	145.0	-166416.0	-2927.0	-61786.0
9	18	9	2	203	146.0	-163303.0	-2939.0	-62080.0
9	18	9	2	203	147.0	-160043.0	-2927.0	-62359.0
9	18	9	2	204	148.0	-156487.0	-2913.0	-63259.0
9	18	9	2	204	149.0	-152251.0	-2901.0	-63904.0
9	18	9	2	205	150.0	-148245.0	-2893.0	-64531.0
9	18	9	2	206	151.0	-144617.0	-2867.0	-65314.0
9	18	9	2	206	152.0	-141247.0	-2828.0	-66039.0
9	18	9	2	246	153.0	-138139.0	-2812.0	-66627.0
9	18	9	2	247	154.0	-135527.0	-2798.0	-67268.0
9	18	9	2	248	155.0	-133433.0	-2764.0	-68184.0
9	18	9	2	248	156.0	-131552.0	-2704.0	-69347.0
9	18	9	2	249	157.0	-129930.0	-2672.0	-70190.0
9	18	9	2	250	158.0	-128560.0	-2625.0	-70943.0
9	18	9	2	250	160.0	-126174.0	-2529.0	-72427.0
9	18	9	2	251	161.0	-125714.0	-2479.0	-73115.0
9	18	9	2	251	162.0	-126577.0	-2403.0	-74049.0
9	18	9	2	252	163.0	-127582.0	-2349.0	-74839.0
9	18	9	2	252	164.0	-126196.0	-2304.0	-75632.0
9	18	9	2	253	165.0	-123957.0	-2242.0	-76222.0
9	18	9	2	254	166.0	-123676.0	-2167.0	-76943.0
9	18	9	2	254	167.0	-124381.0	-2107.0	-77339.0
9	18	9	2	255	168.0	-125119.0	-2023.0	-77944.0
9	18	9	2	255	183.0	-142068.0	-736.0	-80047.0
9	18	9	2	256	184.0	-141737.0	-637.0	-80212.0
9	18	9	2	257	185.0	-141166.0	-539.0	-80025.0
9	18	9	2	257	186.0	-140359.0	-437.0	-80021.0
9	18	9	2	258	187.0	-139153.0	-339.0	-79969.0
9	18	9	2	266	188.0	-137026.0	-249.0	-79698.0
9	18	9	2	291	189.0	-134093.0	-159.0	-79690.0
9	18	9	2	336	190.0	-129777.0	-47.0	-80060.0
9	18	9	2	337	191.0	-122235.0	28.0	-79866.0
9	18	9	2	338	192.0	-107548.0	111.0	-79694.0
9	18	9	2	338	193.0	-95928.0	221.0	-79711.0
9	18	9	2	339	194.0	-98240.0	313.0	-79762.0
9	18	9	2	340	195.0	-104592.0	419.0	-79359.0
9	18	9	2	340	196.0	-108989.0	530.0	-79134.0
9	18	9	2	341	197.0	-117808.0	623.0	-79431.0
9	18	9	2	342	198.0	-124689.0	709.0	-79266.0
9	18	9	2	342	199.0	-126023.0	784.0	-79064.0
9	18	9	2	343	200.0	-126382.0	883.0	-78896.0
9	18	9	2	344	201.0	-122480.0	999.0	-78808.0
9	18	9	2	345	202.0	-117376.0	1083.0	-78520.0
9	18	9	2	345	203.0	-116047.0	1167.0	-78464.0
9	18	9	2	346	205.0	-107148.0	1335.0	-78223.0
9	18	9	2	347	206.0	-99893.0	1417.0	-78177.0
9	18	9	2	347	228.0	-145730.0	3044.0	-75186.0
9	18	9	2	348	229.0	-147166.0	3104.0	-74977.0
9	18	9	2	349	230.0	-148504.0	3165.0	-74831.0
9	18	9	2	349	231.0	-149076.0	3210.0	-74526.0
9	18	9	2	350	232.0	-149375.0	3261.0	-74093.0
9	18	9	2	351	233.0	-149832.0	3319.0	-74212.0
9	18	9	2	381	234.0	-150549.0	3393.0	-74466.0
9	18	9	2	396	235.0	-151330.0	3459.0	-73901.0
9	18	9	2	397	236.0	-151586.0	3481.0	-73969.0
9	18	9	2	398	237.0	-151639.0	3527.0	-74017.0
9	18	9	2	398	238.0	-151517.0	3597.0	-73924.0
9	18	9	2	399	239.0	-151452.0	3649.0	-73497.0
9	18	9	2	399	240.0	-151213.0	3689.0	-73282.0
9	18	9	2	400	241.0	-151039.0	3739.0	-73121.0
9	18	9	2	400	242.0	-150973.0	3801.0	-73127.0
9	18	9	2	401	243.0	-150944.0	3841.0	-73093.0
9	18	9	2	401	244.0	-151051.0	3875.0	-72811.0
9	18	9	2	402	245.0	-151309.0	3929.0	-73029.0
9	18	9	2	403	246.0	-151572.0	3971.0	-72640.0
9	18	9	2	403	247.0	-151638.0	4009.0	-72518.0
9	18	9	2	404	248.0	-151709.0	4048.0	-72254.0
9	18	9	2	404	250.0	-152031.0	4114.0	-71857.0
9	18	9	2	405	251.0	-152840.0	4151.0	-71600.0
9	18	9	2	405	252.0	-154012.0	4181.0	-71248.0
9	18	9	2	406	253.0	-155425.0	4210.0	-71377.0
9	18	9	2	406	254.0	-157180.0	4238.0	-71549.0
9	18	9	2	407	255.0	-159329.0	4272.0	-71225.0
9	18	9	2	425	0.0	-161521.0	4308.0	-71689.0
9	18	9	2	426	1.0	-163221.0	4340.0	-71767.0
9	18	9	2	427	2.0	-164692.0	4371.0	-70866.0
9	18	9	2	427	3.0	-165877.0	4403.0	-70719.0
9	18	9	2	428	4.0	-166436.0	4426.0	-71030.0
9	18	9	2	428	5.0	-167078.0	4449.0	-70935.0
9	18	9	2	429	6.0	-167347.0	4494.0	-70026.0
9	18	9	2	430	7.0	-167286.0	4516.0	-69867.0
9	18	9	2	430	8.0	-167483.0	4558.0	-70087.0
9	18	9	2	431	9.0	-167956.0	4561.0	-69997.0
9	18	9	2	432	10.0	-168609.0	4574.0	-70068.0
9	18	9	2	432	11.0	-169519.0	4609.0	-69781.0
9	18	9	2	433	12.0	-170311.0	4637.0	-69692.0
9	18	9	2	433	13.0	-170916.0	4695.0	-69721.0
9	18	9	2	434	14.0	-171364.0	4700.0	-69704.0
9	18	9	2	435	16.0	-172652.0	4725.0	-69051.0
9	18	9	2	435	17.0	-173210.0	4724.0	-68931.0
9	18	9	2	436	18.0	-173549.0	4741.0	-68674.0
9	18	9	2	437	19.0	-173701.0	4764.0	-68461.0
9	18	9	2	437	20.0	-173419.0	4779.0	-68607.0
9	18	9	2	438	21.0	-172794.0	4792.0	-68655.0
9	18	9	2	439	22.0	-172018.0	4794.0	-68741.0
9	18	9	2	562	23.0	-171227.0	4808.0	-68649.0
9	18	9	2	563	24.0	-170526.0	4833.0	-68427.0
9	18	9	2	564	25.0	-169574.0	4849.0	-67939.0
9	18	9	2	607	26.0	-168357.0	4861.0	-67967.0
9	18	9	2	607	27.0	-167290.0	4873.0	-67817.0
9	18	9	2	608	28.0	-166162.0	4879.0	-67295.0
9	18	9	2	652	29.0	-164837.0	4898.0	-67534.0
9	18	9	2	653	30.0	-163677.0	4901.0	-67339.0
9	18	9	2	654	31.0	-162847.0	4911.0	-67392.0
9	18	9	2	654	32.0	-162182.0	4927.0	-67037.0
9	18	9	2	655	33.0	-161659.0	4926.0	-66568.0
9	18	9	2	655	34.0	-161426.0	4947.0	-66494.0
9	18	9	2	656	35.0	-161387.0	4954.0	-66819.0
9	18	9	2	657	36.0	-161916.0	4971.0	-66495.0
9	18	9	2	657	37.0	-162774.0	4981.0	-65759.0
9	18	9	2	658	84.0	-190101.0	5191.0	-61295.0
9	18	9	2	696	85.0	-189422.0	5188.0	-60657.0
9	18	9	2	697	86.0	-188721.0	5199.0	-60542.0
9	18	9	2	698	87.0	-188151.0	5177.0	-60682.0
9	18	9	2	698	107.0	-171212.0	5019.0	-58310.0
9	18	9	2	699	108.0	-172635.0	5008.0	-58141.0
9	18	9	2	700	109.0	-174172.0	4993.0	-58387.0
9	18	9	2	700	129.0	-189772.0	4651.0	-56621.0
9	18	9	2	701	130.0	-188586.0	4614.0	-56524.0
9	18	9	2	701	131.0	-187657.0	4590.0	-55907.0
9	18	9	2	702	132.0	-187133.0	4586.0	-55761.0
9	18	9	2	703	133.0	-186842.0	4571.0	-56034.0
9	18	9	2	703	134.0	-186443.0	4553.0	-55921.0
9	18	9	2	704	135.0	-186149.0	4524.0	-55676.0
9	18	9	2	704	136.0	-185741.0	4496.0	-55764.0
9	18	9	2	705	137.0	-185194.0	4460.0	-55822.0
9	18	9	2	706	151.0	-186957.0	4104.0	-54465.0
9	18	9	2	706	152.0	-188099.0	4079.0	-54287.0
9	18	9	2	707	153.0	-188901.0	4050.0	-54459.0
9	18	9	2	707	154.0	-189680.0	4039.0	-54495.0
9	18	9	2	708	155.0	-190227.0	4016.0	-54241.0
9	18	9	2	708	156.0	-190703.0	3993.0	-54155.0
9	18	9	2	741	157.0	-191441.0	3956.0	-53969.0
9	18	9	2	742	158.0	-191794.0	3921.0	-53664.0
9	18	9	2	742	159.0	-192303.0	3918.0	-54029.0
9	18	9	2	743	160.0	-192986.0	3878.0	-54306.0
9	18	9	2	743	161.0	-193808.0	3846.0	-54349.0
9	18	9	2	744	162.0	-194819.0	3826.0	-54151.0
9	18	9	2	745	163.0	-195664.0	3794.0	-54235.0
9	18	9	2	745	164.0	-196107.0	3771.0	-54430.0
9	18	9	2	785	165.0	-196302.0	3740.0	-54049.0
9	18	9	2	786	166.0	-196231.0	3693.0	-53537.0
9	18	9	2	787	167.0	-195844.0	3673.0	-53909.0
9	18	9	2	788	168.0	-194736.0	3662.0	-53729.0
9	18	9	2	788	169.0	-193077.0	3638.0	-53842.0
9	18	9	2	789	170.0	-191334.0	3608.0	-53564.0
9	18	9	2	789	171.0	-189696.0	3595.0	-53559.0
9	18	9	2	790	172.0	-188137.0	3552.0	-53559.0
9	18	9	2	791	174.0	-184783.0	3492.0	-52500.0
9	18	9	2	791	175.0	-183133.0	3466.0	-52435.0
9	18	9	2	792	176.0	-181519.0	3431.0	-52135.0
9	18	9	2	793	177.0	-180092.0	3399.0	-51969.0
9	18	9	2	793	178.0	-179021.0	3377.0	-51343.0
9	18	9	2	794	179.0	-178909.0	3344.0	-51412.0
9	18	9	2	795	180.0	-178984.0	3314.0	-51185.0
9	18	9	2	796	181.0	-179188.0	3304.0	-51318.0
9	18	9	2	797	196.0	-187046.0	2894.0	-50486.0
9	18	9	2	797	197.0	-185369.0	2869.0	-50063.0
9	18	9	2	798	198.0	-182994.0	2841.0	-49922.0
9	18	9	2	799	199.0	-180032.0	2820.0	-50154.0
9	18	9	2	799	200.0	-176699.0	2789.0	-50254.0
9	18	9	2	800	201.0	-173546.0	2761.0	-50126.0
9	18	9	2	800	202.0	-170483.0	2729.0	-50201.0
9	18	9	2	832	203.0	-167748.0	2696.0	-50101.0
9	18	9	2	833	204.0	-165483.0	2684.0	-49646.0
9	18	9	2	833	205.0	-163335.0	2662.0	-49536.0
9	18	9	2	834	206.0	-161512.0	2646.0	-49329.0
9	18	9	2	835	207.0	-160017.0	2601.0	-49312.0
9	18	9	2	836	208.0	-158745.0	2589.0	-48779.0
9	18	9	2	836	209.0	-157549.0	2563.0	-48209.0
9	18	9	2	837	210.0	-156635.0	2536.0	-47722.0
9	18	9	2	837	211.0	-156264.0	2515.0	-46499.0
9	18	9	2	838	212.0	-156039.0	2486.0	-45239.0
9	18	9	2	839	213.0	-156289.0	2459.0	-43797.0
9	18	9	2	839	214.0	-156864.0	2445.0	-41826.0
9	18	9	2	840	215.0	-157115.0	2411.0	-38309.0
9	18	9	2	841	216.0	-156949.0	2378.0	-34538.0
9	18	9	2	841	217.0	-156549.0	2360.0	-29972.0
9	18	9	2	842	219.0	-155154.0	2309.0	-22711.0
9	18	9	2	842	220.0	-154306.0	2266.0	-25904.0
9	18	9	2	843	221.0	-153279.0	2247.0	-31527.0
9	18	9	2	844	222.0	-152364.0	2228.0	-39079.0
9	18	9	2	844	223.0	-151094.0	2198.0	-51854.0
9	18	9	2	845	224.0	-149476.0	2162.0	-65404.0
9	18	9	2	876	225.0	-147547.0	2130.0	-77147.0
9	18	9	2	877	226.0	-145602.0	2088.0	-86089.0
9	18	9	2	878	227.0	-143860.0	2062.0	-90917.0
9	18	9	2	879	228.0	-142322.0	2046.0	-93669.0
9	18	9	2	879	229.0	-141021.0	2014.0	-93012.0
9	18	9	2	880	230.0	-140154.0	1986.0	-90116.0
9	18	9	2	880	231.0	-139739.0	1976.0	-85904.0
9	18	9	2	881	232.0	-140056.0	1941.0	-81966.0
9	18	9	2	882	233.0	-141511.0	1895.0	-78192.0
9	18	9	2	882	234.0	-143971.0	1873.0	-75724.0
9	18	9	2	922	235.0	-146969.0	1834.0	-74766.0
9	18	9	2	923	236.0	-149950.0	1805.0	-72414.0
9	18	9	2	924	237.0	-152997.0	1763.0	-68872.0
9	18	9	2	924	238.0	-155906.0	1752.0	-64251.0
9	18	9	2	925	239.0	-158736.0	1716.0	-60781.0
9	18	9	2	926	241.0	-164237.0	1644.0	-57374.0
9	18	9	2	927	242.0	-167490.0	1639.0	-55196.0
9	18	9	2	928	243.0	-171308.0	1604.0	-52113.0
9	18	9	2	929	244.0	-176124.0	1573.0	-49643.0
9	18	9	2	929	245.0	-182129.0	1543.0	-47957.0
9	18	9	2	930	246.0	-187751.0	1504.0	-46419.0
9	18	9	2	931	247.0	-187593.0	1458.0	-45241.0
9	18	9	2	931	248.0	-180611.0	1429.0	-43975.0
9	18	9	2	932	249.0	-174208.0	1418.0	-43082.0
9	18	9	3	11	250.0	-169951.0	1384.0	-42629.0
9	18	9	3	12	8.0	-149696.0	946.0	-39422.0
9	18	9	3	12	9.0	-147134.0	923.0	-39502.0
9	18	9	3	13	10.0	-144406.0	890.0	-38776.0
9	18	9	3	14	11.0	-139504.0	837.0	-38158.0
9	18	9	3	14	12.0	-133162.0	806.0	-38084.0
9	18	9	3	15	13.0	-129731.0	781.0	-38083.0
9	18	9	3	16	14.0	-128424.0	736.0	-37897.0
9	18	9	3	16	15.0	-126267.0	711.0	-37978.0
9	18	9	3	17	16.0	-123392.0	692.0	-37963.0
9	18	9	3	18	17.0	-120028.0	649.0	-37664.0
9	18	9	3	18	18.0	-115581.0	625.0	-37316.0
9	18	9	3	19	19.0	-109384.0	576.0	-37123.0
9	18	9	3	20	20.0	-101622.0	544.0	-37117.0
9	18	9	3	28	21.0	-92516.0	491.0	-36927.0
9	18	9	3	29	22.0	-83647.0	474.0	-36442.0
9	18	9	3	30	53.0	-141113.0	-612.0	-28296.0
9	18	9	3	30	54.0	-142502.0	-665.0	-27954.0
9	18	9	3	31	55.0	-144239.0	-702.0	-27669.0
9	18	9	3	31	56.0	-146211.0	-751.0	-27187.0
9	18	9	3	32	57.0	-148411.0	-802.0	-26774.0
9	18	9	3	33	58.0	-150791.0	-824.0	-26295.0
9	18	9	3	56	59.0	-153602.0	-869.0	-25606.0
9	18	9	3	57	60.0	-156194.0	-899.0	-24989.0
9	18	9	3	58	61.0	-158039.0	-935.0	-24167.0
9	18	9	3	58	62.0	-160287.0	-967.0	-24071.0
9	18	9	3	59	63.0	-162686.0	-1002.0	-23521.0
9	18	9	3	60	64.0	-164923.0	-1043.0	-23486.0
9	18	9	3	60	65.0	-167474.0	-1076.0	-23102.0
9	18	9	3	61	66.0	-170268.0	-1121.0	-22372.0
9	18	9	3	62	67.0	-173026.0	-1153.0	-21334.0
9	18	9	3	62	68.0	-175430.0	-1204.0	-20820.0
9	18	9	3	63	69.0	-178001.0	-1240.0	-20111.0
9	18	9	3	64	70.0	-180739.0	-1256.0	-19709.0
9	18	9	3	64	71.0	-183156.0	-1298.0	-18935.0
9	18	9	3	65	72.0	-185428.0	-1341.0	-18325.0
9	18	9	3	66	73.0	-187391.0	-1367.0	-17694.0
9	18	9	3	66	75.0	-189932.0	-1452.0	-17331.0
9	18	9	3	67	76.0	-190054.0	-1497.0	-16690.0
9	18	9	3	68	77.0	-189845.0	-1517.0	-15790.0
9	18	9	3	69	78.0	-188710.0	-1556.0	-15748.0
9	18	9	3	69	79.0	-186890.0	-1605.0	-15349.0
9	18	9	3	70	80.0	-184927.0	-1629.0	-14701.0
9	18	9	3	71	81.0	-182577.0	-1648.0	-14561.0
9	18	9	3	101	82.0	-179766.0	-1682.0	-14492.0
9	18	9	3	102	83.0	-176951.0	-1715.0	-14767.0
9	18	9	3	102	84.0	-174226.0	-1731.0	-14421.0
9	18	9	3	103	85.0	-171161.0	-1752.0	-14192.0
9	18	9	3	104	86.0	-168207.0	-1759.0	-13450.0
9	18	9	3	104	87.0	-165562.0	-1787.0	-12805.0
9	18	9	3	105	88.0	-162995.0	-1807.0	-12565.0
9	18	9	3	106	89.0	-160052.0	-1839.0	-12304.0
9	18	9	3	106	90.0	-156780.0	-1861.0	-12067.0
9	18	9	3	107	91.0	-153337.0	-1860.0	-11799.0
9	18	9	3	147	92.0	-149801.0	-1864.0	-11504.0
9	18	9	3	148	93.0	-146316.0	-1875.0	-11687.0
9	18	9	3	149	94.0	-142812.0	-1879.0	-11778.0
9	18	9	3	149	95.0	-139286.0	-1897.0	-11790.0
9	18	9	3	150	96.0	-135732.0	-1901.0	-11902.0
9	18	9	3	151	97.0	-132601.0	-1900.0	-12231.0
9	18	9	3	151	98.0	-129890.0	-1880.0	-12297.0
9	18	9	3	152	99.0	-127727.0	-1871.0	-12547.0
9	18	9	3	153	100.0	-126611.0	-1863.0	-13049.0
9	18	9	3	153	101.0	-126322.0	-1837.0	-13381.0
9	18	9	3	154	102.0	-127379.0	-1813.0	-13804.0
9	18	9	3	155	103.0	-129016.0	-1807.0	-14826.0
9	18	9	3	155	104.0	-130681.0	-1794.0	-16053.0
9	18	9	3	156	105.0	-132334.0	-1762.0	-16942.0
9	18	9	3	156	106.0	-134059.0	-1734.0	-17727.0
9	18	9	3	157	120.0	-152379.0	-1056.0	-29097.0
9	18	9	3	158	121.0	-154328.0	-991.0	-29694.0
9	18	9	3	158	122.0	-156425.0	-909.0	-30214.0
9	18	9	3	159	123.0	-158521.0	-829.0	-30899.0
9	18	9	3	159	124.0	-160587.0	-767.0	-31370.0
9	18	9	3	160	125.0	-162274.0	-694.0	-31690.0
9	18	9	3	238	126.0	-163632.0	-623.0	-32101.0
9	18	9	3	238	127.0	-164482.0	-529.0	-32331.0
9	18	9	3	239	128.0	-165160.0	-450.0	-32779.0
9	18	9	3	240	129.0	-165619.0	-376.0	-32881.0
9	18	9	3	240	130.0	-165733.0	-280.0	-32871.0
9	18	9	3	241	131.0	-165742.0	-204.0	-33167.0
9	18	9	3	242	132.0	-165181.0	-97.0	-33178.0
9	18	9	3	242	133.0	-164846.0	-23.0	-33027.0
9	18	9	3	243	134.0	-164687.0	60.0	-33429.0
9	18	9	3	243	135.0	-164503.0	159.0	-34937.0
9	18	9	3	244	136.0	-164307.0	246.0	-35996.0
9	18	9	3	245	137.0	-163736.0	329.0	-37296.0
9	18	9	3	245	138.0	-162343.0	423.0	-38284.0
9	18	9	3	281	139.0	-160722.0	508.0	-38978.0
9	18	9	3	282	140.0	-158315.0	590.0	-39738.0
9	18	9	3	282	165.0	-168451.0	2529.0	-36859.0
9	18	9	3	283	166.0	-168819.0	2599.0	-36715.0
9	18	9	3	284	167.0	-168752.0	2674.0	-36632.0
9	18	9	3	284	168.0	-168839.0	2729.0	-36106.0
9	18	9	3	285	169.0	-169033.0	2782.0	-36079.0
9	18	9	3	294	170.0	-168682.0	2834.0	-36297.0
9	18	9	3	294	171.0	-168091.0	2896.0	-36166.0
9	18	9	3	295	172.0	-167474.0	2971.0	-36316.0
9	18	9	3	295	173.0	-166888.0	3024.0	-35902.0
9	18	9	3	296	174.0	-166029.0	3075.0	-35874.0
9	18	9	3	297	175.0	-165363.0	3117.0	-35564.0
9	18	9	3	297	176.0	-164601.0	3160.0	-35612.0
9	18	9	3	298	177.0	-163686.0	3196.0	-35336.0
9	18	9	3	326	178.0	-162962.0	3256.0	-34601.0
9	18	9	3	327	187.0	-141410.0	3643.0	-34373.0
9	18	9	3	327	188.0	-138861.0	3686.0	-34287.0
9	18	9	3	328	189.0	-136426.0	3734.0	-34364.0
9	18	9	3	329	190.0	-134877.0	3760.0	-34528.0
9	18	9	3	330	191.0	-134298.0	3781.0	-34457.0
9	18	9	3	330	192.0	-134929.0	3815.0	-34416.0
9	18	9	3	331	193.0	-136100.0	3852.0	-34473.0
9	18	9	3	341	194.0	-137391.0	3893.0	-34519.0
9	18	9	3	342	195.0	-139459.0	3927.0	-34507.0
9	18	9	3	343	196.0	-142493.0	3957.0	-34221.0
9	18	9	3	343	197.0	-144706.0	3985.0	-34040.0
9	18	9	3	344	198.0	-147156.0	4019.0	-34052.0
9	18	9	3	345	199.0	-149729.0	4046.0	-34196.0
9	18	9	3	346	200.0	-152371.0	4063.0	-34292.0
9	18	9	3	347	201.0	-155034.0	4099.0	-34166.0
9	18	9	3	348	210.0	-167004.0	4267.0	-33027.0
9	18	9	3	348	211.0	-166634.0	4284.0	-33374.0
9	18	9	3	349	212.0	-165661.0	4288.0	-33380.0
9	18	9	3	356	213.0	-164932.0	4296.0	-33054.0
9	18	9	3	359	214.0	-164021.0	4311.0	-33642.0
9	18	9	3	361	215.0	-163379.0	4310.0	-33761.0
9	18	9	3	361	216.0	-162764.0	4321.0	-33187.0
9	18	9	3	370	217.0	-161831.0	4331.0	-33056.0
9	18	9	3	370	218.0	-160701.0	4343.0	-33042.0
9	18	9	3	371	219.0	-159777.0	4346.0	-33066.0
9	18	9	3	371	220.0	-158542.0	4357.0	-32809.0
9	18	9	3	372	221.0	-157502.0	4361.0	-32787.0
9	18	9	3	372	222.0	-156566.0	4383.0	-33121.0
9	18	9	3	373	223.0	-155702.0	4393.0	-32737.0
9	18	9	3	374	224.0	-155076.0	4392.0	-32604.0
9	18	9	3	374	225.0	-154187.0	4384.0	-32845.0
9	18	9	3	395	226.0	-153417.0	4394.0	-32594.0
9	18	9	3	396	227.0	-153142.0	4410.0	-32237.0
9	18	9	3	396	228.0	-152809.0	4406.0	-32299.0
9	18	9	3	397	229.0	-151698.0	4411.0	-32314.0
9	18	9	3	397	230.0	-150522.0	4405.0	-32201.0
9	18	9	3	398	231.0	-148892.0	4394.0	-32252.0
9	18	9	3	398	232.0	-147363.0	4414.0	-32252.0
9	18	9	3	399	233.0	-146142.0	4410.0	-32001.0
9	18	9	3	399	234.0	-144987.0	4418.0	-31864.0
9	18	9	3	400	235.0	-143601.0	4406.0	-31923.0
9	18	9	3	401	236.0	-142622.0	4395.0	-31896.0
9	18	9	3	401	237.0	-142077.0	4395.0	-31669.0
9	18	9	3	461	238.0	-142182.0	4397.0	-31525.0
9	18	9	3	463	239.0	-143115.0	4408.0	-31335.0
9	18	9	3	464	240.0	-144007.0	4416.0	-30942.0
9	18	9	3	465	241.0	-145186.0	4418.0	-30806.0
9	18	9	3	465	242.0	-146619.0	4398.0	-31054.0
9	18	9	3	466	243.0	-148106.0	4393.0	-31116.0
9	18	9	3	466	244.0	-149289.0	4390.0	-30771.0
9	18	9	3	467	245.0	-150792.0	4386.0	-30951.0
9	18	9	3	467	246.0	-152364.0	4376.0	-31134.0
9	18	9	3	468	247.0	-153845.0	4369.0	-30591.0
9	18	9	3	468	248.0	-155612.0	4374.0	-30296.0
9	18	9	3	469	249.0	-157316.0	4359.0	-30298.0
9	18	9	3	469	250.0	-159234.0	4356.0	-30518.0
9	18	9	3	470	251.0	-161539.0	4363.0	-30029.0
9	18	9	3	471	252.0	-163902.0	4363.0	-29426.0
9	18	9	3	471	255.0	-170998.0	4346.0	-29518.0
9	18	9	3	472	21.0	-176756.0	4196.0	-28087.0
9	18	9	3	472	22.0	-177289.0	4191.0	-27813.0
9	18	9	3	473	23.0	-178207.0	4191.0	-27952.0
9	18	9	3	473	24.0	-179147.0	4186.0	-27636.0
9	18	9	3	474	25.0	-180301.0	4176.0	-27419.0
9	18	9	3	474	26.0	-181784.0	4165.0	-27591.0
9	18	9	3	475	27.0	-183200.0	4155.0	-27214.0
9	18	9	3	506	28.0	-184186.0	4124.0	-27149.0
9	18	9	3	506	29.0	-185037.0	4110.0	-27211.0
9	18	9	3	507	30.0	-185369.0	4117.0	-27467.0
9	18	9	3	508	31.0	-185647.0	4093.0	-27326.0
9	18	9	3	508	32.0	-185742.0	4083.0	-27371.0
9	18	9	3	509	33.0	-185309.0	4071.0	-27096.0
9	18	9	3	509	34.0	-184506.0	4051.0	-27027.0
9	18	9	3	510	35.0	-182646.0	4033.0	-27141.0
9	18	9	3	510	36.0	-180566.0	4033.0	-27261.0
9	18	9	3	511	37.0	-177929.0	4015.0	-26734.0
9	18	9	3	520	38.0	-174786.0	4004.0	-26493.0
9	18	9	3	521	39.0	-170965.0	3991.0	-26788.0
9	18	9	3	521	40.0	-167263.0	3977.0	-26632.0
9	18	9	3	522	41.0	-163504.0	3953.0	-26339.0
9	18	9	3	597	42.0	-159882.0	3932.0	-26387.0
9	18	9	3	597	43.0	-156835.0	3918.0	-26421.0
9	18	9	3	598	44.0	-154296.0	3897.0	-26094.0
9	18	9	3	598	45.0	-152176.0	3895.0	-26060.0
9	18	9	3	599	46.0	-150593.0	3892.0	-26102.0
9	18	9	3	600	47.0	-149393.0	3869.0	-26074.0
9	18	9	3	600	48.0	-148283.0	3859.0	-26231.0
9	18	9	3	601	49.0	-147569.0	3853.0	-26171.0
9	18	9	3	601	50.0	-147261.0	3826.0	-25885.0
9	18	9	3	602	51.0	-147709.0	3793.0	-25621.0
9	18	9	3	602	52.0	-147974.0	3773.0	-25624.0
9	18	9	3	641	53.0	-147825.0	3753.0	-25784.0
9	18	9	3	642	54.0	-147576.0	3729.0	-25872.0
9	18	9	3	643	55.0	-147419.0	3711.0	-25925.0
9	18	9	3	643	56.0	-146954.0	3686.0	-25553.0
9	18	9	3	644	66.0	-148849.0	3458.0	-24919.0
9	18	9	3	644	89.0	-168631.0	2765.0	-22851.0
9	18	9	3	645	90.0	-170520.0	2731.0	-22598.0
9	18	9	3	645	91.0	-172229.0	2706.0	-22056.0
9	18	9	3	647	92.0	-173694.0	2658.0	-22291.0
9	18	9	3	647	93.0	-174877.0	2631.0	-21940.0
9	18	9	3	648	94.0	-175504.0	2609.0	-22064.0
9	18	9	3	649	95.0	-175705.0	2574.0	-22564.0
9	18	9	3	649	96.0	-176061.0	2542.0	-22329.0
9	18	9	3	650	97.0	-175988.0	2506.0	-21724.0
9	18	9	3	650	98.0	-175349.0	2474.0	-21725.0
9	18	9	3	651	99.0	-174364.0	2441.0	-21641.0
9	18	9	3	651	111.0	-161849.0	1991.0	-21337.0
9	18	9	3	652	112.0	-161780.0	1966.0	-21341.0
9	18	9	3	653	113.0	-161451.0	1920.0	-21487.0
9	18	9	3	653	114.0	-161299.0	1885.0	-21487.0
9	18	9	3	654	115.0	-161516.0	1852.0	-21691.0
9	18	9	3	654	116.0	-161454.0	1827.0	-21452.0
9	18	9	3	655	117.0	-161097.0	1781.0	-21436.0
9	18	9	3	686	118.0	-160350.0	1755.0	-21702.0
9	18	9	3	686	119.0	-159655.0	1717.0	-21362.0
9	18	9	3	687	120.0	-158544.0	1667.0	-21174.0
9	18	9	3	687	121.0	-157269.0	1633.0	-21272.0
9	18	9	3	688	122.0	-156141.0	1604.0	-21408.0
9	18	9	3	689	123.0	-155009.0	1573.0	-21030.0
9	18	9	3	689	124.0	-153482.0	1543.0	-20692.0
9	18	9	3	690	125.0	-152194.0	1503.0	-20694.0
9	18	9	3	690	126.0	-151543.0	1473.0	-20622.0
9	18	9	3	691	127.0	-151266.0	1434.0	-20587.0
9	18	9	3	691	128.0	-151286.0	1388.0	-20506.0
9	18	9	3	692	129.0	-152064.0	1349.0	-19941.0
9	18	9	3	693	130.0	-153194.0	1299.0	-19867.0
9	18	9	3	693	131.0	-154664.0	1280.0	-19693.0
9	18	9	3	694	132.0	-156989.0	1262.0	-19547.0
9	18	9	3	694	133.0	-159749.0	1236.0	-18910.0
9	18	9	3	695	134.0	-162386.0	1198.0	-18717.0
9	18	9	3	695	135.0	-165100.0	1138.0	-18680.0
9	18	9	3	696	136.0	-167502.0	1096.0	-18751.0
9	18	9	3	697	137.0	-169366.0	1052.0	-18757.0
9	18	9	3	697	138.0	-170756.0	1022.0	-18501.0
9	18	9	3	731	139.0	-171259.0	986.0	-18683.0
9	18	9	3	732	140.0	-172451.0	939.0	-19340.0
9	18	9	3	732	141.0	-173833.0	928.0	-19157.0
9	18	9	3	733	142.0	-174916.0	888.0	-18442.0
9	18	9	3	734	143.0	-175870.0	858.0	-18586.0
9	18	9	3	734	144.0	-177348.0	814.0	-18714.0
9	18	9	3	735	145.0	-179466.0	771.0	-18225.0
9	18	9	3	735	146.0	-179634.0	736.0	-18391.0
9	18	9	3	736	147.0	-180514.0	709.0	-18387.0
9	18	9	3	736	148.0	-181224.0	661.0	-18260.0
9	18	9	3	737	149.0	-181296.0	628.0	-18199.0
9	18	9	3	738	150.0	-180901.0	594.0	-18103.0
9	18	9	3	738	151.0	-179993.0	546.0	-18004.0
9	18	9	3	739	152.0	-178262.0	521.0	-18008.0
9	18	9	3	739	153.0	-176152.0	493.0	-18069.0
9	18	9	3	740	154.0	-174112.0	452.0	-17947.0
9	18	9	3	740	156.0	-169242.0	383.0	-17794.0
9	18	9	3	753	157.0	-167213.0	356.0	-17756.0
9	18	9	3	754	158.0	-165835.0	338.0	-17592.0
9	18	9	3	755	159.0	-164470.0	285.0	-17636.0
9	18	9	3	755	160.0	-163225.0	248.0	-17375.0
9	18	9	3	756	161.0	-162111.0	219.0	-16873.0
9	18	9	3	756	162.0	-161202.0	182.0	-16652.0
9	18	9	3	778	163.0	-160541.0	149.0	-15511.0
9	18	9	3	779	164.0	-159934.0	104.0	-14419.0
9	18	9	3	780	165.0	-159277.0	76.0	-13736.0
9	18	9	3	780	166.0	-158648.0	46.0	-12464.0
9	18	9	3	781	167.0	-157627.0	-12.0	-10170.0
9	18	9	3	781	168.0	-156223.0	-21.0	-7372.0
9	18	9	3	782	169.0	-155069.0	-59.0	-3877.0
9	18	9	3	783	170.0	-153636.0	-100.0	-4.0
9	18	9	3	783	171.0	-151845.0	-119.0	4776.0
9	18	9	3	784	172.0	-150217.0	-147.0	8363.0
9	18	9	3	784	173.0	-149218.0	-175.0	6596.0
9	18	9	3	785	174.0	-148472.0	-212.0	1941.0
9	18	9	3	785	175.0	-148395.0	-261.0	-4351.0
9	18	9	3	786	176.0	-148826.0	-300.0	-13106.0
9	18	9	3	787	177.0	-149388.0	-341.0	-26399.0
9	18	9	3	787	178.0	-150244.0	-367.0	-39575.0
9	18	9	3	821	179.0	-151610.0	-393.0	-49451.0
9	18	9	3	822	180.0	-153299.0	-430.0	-54838.0
9	18	9	3	823	181.0	-154619.0	-472.0	-57242.0
9	18	9	3	823	182.0	-155684.0	-504.0	-56982.0
9	18	9	3	824	183.0	-156785.0	-546.0	-55002.0
9	18	9	3	825	184.0	-157963.0	-577.0	-50834.0
9	18	9	3	826	185.0	-159015.0	-612.0	-47228.0
9	18	9	3	826	186.0	-160816.0	-629.0	-43408.0
9	18	9	3	827	187.0	-162644.0	-669.0	-40712.0
9	18	9	3	827	188.0	-164759.0	-696.0	-40143.0
9	18	9	3	828	189.0	-166475.0	-734.0	-40417.0
9	18	9	3	829	190.0	-167826.0	-751.0	-38794.0
9	18	9	3	829	191.0	-168904.0	-794.0	-35109.0
9	18	9	3	830	192.0	-170173.0	-840.0	-30309.0
9	18	9	3	830	193.0	-171734.0	-879.0	-27117.0
9	18	9	3	831	194.0	-173195.0	-907.0	-25687.0
9	18	9	3	832	201.0	-187986.0	-1129.0	-14542.0
9	18	9	3	832	202.0	-181219.0	-1159.0	-13195.0
9	18	9	3	833	203.0	-174239.0	-1201.0	-12189.0
9	18	9	3	833	204.0	-169276.0	-1233.0	-12117.0
9	18	9	3	834	205.0	-163022.0	-1272.0	-11769.0
9	18	9	3	835	206.0	-156778.0	-1301.0	-11374.0
9	18	9	3	865	207.0	-152203.0	-1350.0	-11173.0
9	18	9	3	866	208.0	-149009.0	-1363.0	-10877.0
9	18	9	3	867	209.0	-146388.0	-1391.0	-10629.0
9	18	9	3	867	210.0	-146421.0	-1412.0	-10452.0
9	18	9	3	868	211.0	-150664.0	-1447.0	-10229.0
9	18	9	3	868	212.0	-157661.0	-1491.0	-10119.0
9	18	9	3	869	213.0	-166161.0	-1529.0	-10031.0
9	18	9	3	869	214.0	-173825.0	-1550.0	-9776.0
9	18	9	3	870	215.0	-180532.0	-1589.0	-9517.0
9	18	9	3	871	216.0	-185539.0	-1639.0	-9697.0
9	18	9	3	871	217.0	-188258.0	-1665.0	-9472.0
9	18	9	3	872	218.0	-187531.0	-1690.0	-9030.0
9	18	9	3	872	219.0	-182924.0	-1731.0	-8655.0
9	18	9	3	873	220.0	-174552.0	-1765.0	-8564.0
9	18	9	3	874	221.0	-165040.0	-1789.0	-8107.0
9	18	9	3	874	223.0	-144863.0	-1873.0	-7652.0
9	18	9	3	875	224.0	-133488.0	-1907.0	-7645.0
9	18	9	3	875	225.0	-122559.0	-1946.0	-7685.0
9	18	9	3	876	226.0	-112554.0	-1976.0	-7505.0
9	18	9	3	876	227.0	-102577.0	-2002.0	-7343.0
9	18	9	3	877	228.0	-93924.0	-2046.0	-7244.0
9	18	9	3	878	229.0	-86888.0	-2090.0	-7176.0
9	18	9	3	911	230.0	-80331.0	-2111.0	-7289.0
9	18	9	3	912	231.0	-75367.0	-2156.0	-6864.0
9	18	9	3	912	232.0	-73197.0	-2203.0	-6687.0
9	18	9	3	913	233.0	-74799.0	-2231.0	-6688.0
9	18	9	3	914	234.0	-78556.0	-2269.0	-6522.0
9	18	9	3	914	235.0	-82879.0	-2301.0	-6517.0
9	18	9	3	957	236.0	-86957.0	-2330.0	-6534.0
9	18	9	3	957	237.0	-89924.0	-2384.0	-6459.0
9	18	9	3	958	238.0	-91626.0	-2417.0	-5992.0
9	18	9	3	959	239.0	-93173.0	-2438.0	-5879.0
9	18	9	3	959	240.0	-94667.0	-2474.0	-5526.0
9	18	9	3	960	241.0	-96666.0	-2524.0	-5101.0
9	18	9	3	960	242.0	-100049.0	-2562.0	-4865.0
9	18	9	3	961	243.0	-104621.0	-2590.0	-4487.0
9	18	9	3	961	244.0	-110072.0	-2620.0	-4197.0
9	18	9	3	962	246.0	-122327.0	-2692.0	-4760.0
9	18	9	4	2	247.0	-130117.0	-2716.0	-4252.0
9	18	9	4	2	248.0	-138132.0	-2732.0	-3657.0
9	18	9	4	3	249.0	-146303.0	-2777.0	-3450.0
9	18	9	4	4	250.0	-153921.0	-2819.0	-3356.0
9	18	9	4	5	251.0	-160731.0	-2862.0	-3369.0
9	18	9	4	6	252.0	-166209.0	-2889.0	-3076.0
9	18	9	4	7	12.0	-160439.0	-3419.0	2025.0
9	18	9	4	7	13.0	-159208.0	-3467.0	2308.0
9	18	9	4	8	14.0	-158964.0	-3492.0	2434.0
9	18	9	4	8	15.0	-159422.0	-3529.0	2928.0
9	18	9	4	9	16.0	-160762.0	-3565.0	3639.0
9	18	9	4	10	17.0	-162866.0	-3579.0	3728.0
9	18	9	4	10	18.0	-165120.0	-3617.0	3972.0
9	18	9	4	11	19.0	-167599.0	-3646.0	4473.0
9	18	9	4	11	20.0	-170375.0	-3676.0	4806.0
9	18	9	4	12	21.0	-173073.0	-3696.0	5496.0
9	18	9	4	13	35.0	-201932.0	-4104.0	12369.0
9	18	9	4	13	36.0	-200167.0	-4147.0	13026.0
9	18	9	4	14	37.0	-197649.0	-4160.0	12976.0
9	18	9	4	14	38.0	-194677.0	-4181.0	13422.0
9	18	9	4	15	39.0	-191137.0	-4204.0	13609.0
9	18	9	4	15	40.0	-187569.0	-4227.0	13607.0
9	18	9	4	47	41.0	-183839.0	-4240.0	13974.0
9	18	9	4	48	42.0	-180181.0	-4268.0	14446.0
9	18	9	4	49	43.0	-176642.0	-4294.0	14560.0
9	18	9	4	49	44.0	-173097.0	-4300.0	14629.0
9	18	9	4	50	45.0	-169955.0	-4316.0	14784.0
9	18	9	4	50	46.0	-166846.0	-4324.0	14893.0
9	18	9	4	51	47.0	-163329.0	-4326.0	14989.0
9	18	9	4	52	48.0	-159837.0	-4351.0	14801.0
9	18	9	4	52	49.0	-156434.0	-4354.0	14751.0
9	18	9	4	53	50.0	-153328.0	-4349.0	14656.0
9	18	9	4	53	51.0	-150589.0	-4343.0	14441.0
9	18	9	4	54	52.0	-148099.0	-4339.0	14079.0
9	18	9	4	55	53.0	-146022.0	-4340.0	13731.0
9	18	9	4	55	54.0	-144399.0	-4332.0	13591.0
9	18	9	4	56	55.0	-142952.0	-4319.0	12904.0
9	18	9	4	91	57.0	-141065.0	-4291.0	11368.0
9	18	9	4	91	58.0	-140338.0	-4286.0	10830.0
9	18	9	4	100	59.0	-139467.0	-4273.0	9554.0
9	18	9	4	101	60.0	-138667.0	-4240.0	8763.0
9	18	9	4	101	61.0	-138231.0	-4197.0	7614.0
9	18	9	4	102	62.0	-138033.0	-4187.0	6853.0
9	18	9	4	102	63.0	-138250.0	-4163.0	5981.0
9	18	9	4	103	64.0	-138852.0	-4104.0	5104.0
9	18	9	4	103	65.0	-140070.0	-4066.0	3811.0
9	18	9	4	104	66.0	-141525.0	-4026.0	2809.0
9	18	9	4	105	67.0	-143522.0	-3982.0	2381.0
9	18	9	4	105	68.0	-145847.0	-3917.0	1412.0
9	18	9	4	106	69.0	-148683.0	-3858.0	281.0
9	18	9	4	106	70.0	-151489.0	-3808.0	-1.0
9	18	9	4	107	71.0	-154532.0	-3771.0	-544.0
9	18	9	4	108	79.0	-187034.0	-3214.0	-5573.0
9	18	9	4	108	80.0	-191665.0	-3132.0	-5861.0
9	18	9	4	109	81.0	-195863.0	-3043.0	-6304.0
9	18	9	4	109	82.0	-199593.0	-2961.0	-6577.0
9	18	9	4	110	83.0	-202541.0	-2898.0	-6787.0
9	18	9	4	110	84.0	-204831.0	-2814.0	-7004.0
9	18	9	4	111	85.0	-206496.0	-2718.0	-6973.0
9	18	9	4	136	86.0	-207307.0	-2632.0	-7334.0
9	18	9	4	137	87.0	-207812.0	-2534.0	-7707.0
9	18	9	4	138	88.0	-207083.0	-2471.0	-7538.0
9	18	9	4	139	89.0	-205181.0	-2390.0	-7557.0
9	18	9	4	139	90.0	-201929.0	-2289.0	-7871.0
9	18	9	4	140	91.0	-196592.0	-2186.0	-7773.0
9	18	9	4	141	92.0	-187962.0	-2092.0	-7439.0
9	18	9	4	141	93.0	-172622.0	-2007.0	-7684.0
9	18	9	4	142	94.0	-151814.0	-1921.0	-8122.0
9	18	9	4	143	95.0	-134182.0	-1841.0	-7972.0
9	18	9	4	143	96.0	-128696.0	-1744.0	-7658.0
9	18	9	4	144	97.0	-131885.0	-1651.0	-8010.0
9	18	9	4	144	98.0	-137830.0	-1566.0	-7899.0
9	18	9	4	145	99.0	-152417.0	-1467.0	-7848.0
9	18	9	4	146	100.0	-157301.0	-1376.0	-8121.0
9	18	9	4	146	102.0	-162151.0	-1192.0	-7515.0
9	18	9	4	147	103.0	-158447.0	-1100.0	-7833.0
9	18	9	4	147	104.0	-153259.0	-1007.0	-8003.0
9	18	9	4	148	105.0	-150834.0	-943.0	-7652.0
9	18	9	4	149	106.0	-147286.0	-853.0	-7658.0
9	18	9	4	149	107.0	-142530.0	-759.0	-7910.0
9	18	9	4	150	108.0	-138294.0	-671.0	-7974.0
9	18	9	4	228	109.0	-135078.0	-595.0	-7972.0
9	18	9	4	229	110.0	-133649.0	-526.0	-8149.0
9	18	9	4	229	111.0	-132994.0	-442.0	-7863.0
9	18	9	4	230	112.0	-131760.0	-356.0	-7725.0
9	18	9	4	230	113.0	-130627.0	-279.0	-7768.0
9	18	9	4	231	114.0	-130427.0	-188.0	-7701.0
9	18	9	4	232	115.0	-131315.0	-112.0	-7523.0
9	18	9	4	232	116.0	-132753.0	-51.0	-7481.0
9	18	9	4	233	117.0	-134152.0	11.0	-7797.0
9	18	9	4	234	118.0	-136129.0	69.0	-7975.0
9	18	9	4	234	119.0	-138254.0	154.0	-7701.0
9	18	9	4	235	120.0	-139501.0	231.0	-7408.0
9	18	9	4	235	121.0	-139781.0	296.0	-7323.0
9	18	9	4	236	122.0	-138284.0	369.0	-7239.0
9	18	9	4	237	123.0	-134893.0	408.0	-7244.0
9	18	9	4	237	147.0	-121650.0	1492.0	-6270.0
9	18	9	4	238	148.0	-121897.0	1539.0	-6437.0
9	18	9	4	238	149.0	-122199.0	1564.0	-6521.0
9	18	9	4	239	150.0	-122565.0	1579.0	-6444.0
9	18	9	4	239	151.0	-123011.0	1612.0	-6229.0
9	18	9	4	240	152.0	-123451.0	1638.0	-6146.0
9	18	9	4	272	153.0	-123946.0	1648.0	-6176.0
9	18	9	4	272	154.0	-124581.0	1651.0	-5967.0
9	18	9	4	273	155.0	-125689.0	1675.0	-5889.0
9	18	9	4	274	156.0	-127411.0	1699.0	-6170.0
9	18	9	4	274	157.0	-129455.0	1701.0	-5973.0
9	18	9	4	275	158.0	-131774.0	1725.0	-5941.0
9	18	9	4	276	159.0	-134290.0	1738.0	-5990.0
9	18	9	4	276	160.0	-137077.0	1755.0	-6255.0
9	18	9	4	277	161.0	-139995.0	1779.0	-6222.0
9	18	9	4	278	162.0	-142925.0	1796.0	-5769.0
9	18	9	4	278	163.0	-145611.0	1804.0	-5670.0
9	18	9	4	279	164.0	-148168.0	1816.0	-5747.0
9	18	9	4	279	165.0	-150272.0	1802.0	-5572.0
9	18	9	4	280	166.0	-152172.0	1818.0	-5325.0
9	18	9	4	281	167.0	-154039.0	1835.0	-5506.0
9	18	9	4	282	169.0	-157619.0	1836.0	-5249.0
9	18	9	4	283	170.0	-158548.0	1841.0	-5457.0
9	18	9	4	284	171.0	-159334.0	1848.0	-5591.0
9	18	9	4	285	172.0	-159906.0	1845.0	-5208.0
9	18	9	4	285	173.0	-160093.0	1859.0	-5077.0
9	18	9	4	286	174.0	-159865.0	1873.0	-5255.0
9	18	9	4	287	175.0	-159194.0	1870.0	-5164.0
9	18	9	4	317	176.0	-158172.0	1854.0	-5473.0
9	18	9	4	318	177.0	-156900.0	1859.0	-5381.0
9	18	9	4	319	178.0	-155659.0	1860.0	-5071.0
9	18	9	4	319	179.0	-154377.0	1871.0	-4797.0
9	18	9	4	320	180.0	-152997.0	1866.0	-5047.0
9	18	9	4	320	181.0	-151869.0	1868.0	-5019.0
9	18	9	4	321	182.0	-150997.0	1857.0	-4805.0
9	18	9	4	322	183.0	-150509.0	1852.0	-4877.0
9	18	9	4	322	184.0	-150475.0	1845.0	-5114.0
9	18	9	4	323	185.0	-150601.0	1864.0	-4629.0
9	18	9	4	361	186.0	-150833.0	1869.0	-4408.0
9	18	9	4	362	187.0	-150896.0	1852.0	-4627.0
9	18	9	4	362	188.0	-151218.0	1854.0	-4855.0
9	18	9	4	405	189.0	-151972.0	1843.0	-4684.0
9	18	9	4	406	190.0	-152753.0	1843.0	-4716.0
9	18	9	4	452	192.0	-153732.0	1841.0	-4419.0
9	18	9	4	496	193.0	-153587.0	1829.0	-4431.0
9	18	9	4	496	194.0	-153187.0	1839.0	-4462.0
9	18	9	4	497	195.0	-152687.0	1849.0	-4429.0
9	18	9	4	498	196.0	-152153.0	1839.0	-4216.0
9	18	9	4	499	197.0	-151721.0	1834.0	-4384.0
9	18	9	4	500	198.0	-151912.0	1841.0	-4405.0
9	18	9	4	501	199.0	-152369.0	1828.0	-4330.0
9	18	9	4	502	200.0	-153127.0	1809.0	-4127.0
9	18	9	4	502	201.0	-154079.0	1813.0	-3936.0
9	18	9	4	503	214.0	-171349.0	1798.0	-2967.0
9	18	9	4	504	215.0	-173876.0	1786.0	-3621.0
9	18	9	4	504	216.0	-176454.0	1786.0	-3551.0
9	18	9	4	505	217.0	-178944.0	1780.0	-3055.0
9	18	9	4	506	237.0	-189082.0	1706.0	-2864.0
9	18	9	4	506	238.0	-188435.0	1691.0	-2628.0
9	18	9	4	507	3.0	-164241.0	1476.0	-1809.0
9	18	9	4	508	26.0	-195263.0	1043.0	-2697.0
9	18	9	4	508	27.0	-196237.0	1033.0	-1917.0
9	18	9	4	509	28.0	-197013.0	1002.0	-1382.0
9	18	9	4	541	29.0	-197575.0	968.0	-1812.0
9	18	9	4	587	30.0	-198202.0	946.0	-1656.0
9	18	9	4	588	31.0	-198756.0	921.0	-1650.0
9	18	9	4	596	32.0	-199023.0	912.0	-1991.0
9	18	9	4	597	33.0	-198961.0	899.0	-1945.0
9	18	9	4	598	34.0	-198701.0	880.0	-1520.0
9	18	9	4	598	35.0	-198432.0	844.0	-1732.0
9	18	9	4	599	36.0	-197982.0	824.0	-1823.0
9	18	9	4	600	37.0	-197349.0	809.0	-1712.0
9	18	9	4	600	38.0	-196500.0	785.0	-1506.0
9	18	9	4	601	39.0	-195692.0	754.0	-1606.0
9	18	9	4	601	40.0	-194985.0	738.0	-1209.0
9	18	9	4	602	41.0	-194065.0	701.0	-712.0
9	18	9	4	603	42.0	-192891.0	686.0	-1157.0
9	18	9	4	603	43.0	-191824.0	690.0	-1072.0
9	18	9	4	604	48.0	-188572.0	509.0	-97.0
9	18	9	4	604	70.0	-179838.0	-37.0	283.0
9	18	9	4	605	71.0	-180162.0	-69.0	344.0
9	18	9	4	605	72.0	-180568.0	-106.0	938.0
9	18	9	4	606	73.0	-180732.0	-131.0	1688.0
9	18	9	4	607	74.0	-180822.0	-153.0	2534.0
9	18	9	4	607	75.0	-180601.0	-171.0	3466.0
9	18	9	4	608	76.0	-180071.0	-199.0	5051.0
9	18	9	4	677	77.0	-179334.0	-220.0	6826.0
9	18	9	4	678	78.0	-178534.0	-256.0	9644.0
9	18	9	4	767	79.0	-177567.0	-289.0	12797.0
9	18	9	4	768	80.0	-176068.0	-316.0	15718.0
9	18	9	4	770	81.0	-174208.0	-342.0	20160.0
9	18	9	4	770	82.0	-172449.0	-389.0	24745.0
9	18	9	4	771	83.0	-170889.0	-420.0	24308.0
9	18	9	4	771	84.0	-169670.0	-438.0	19798.0
9	18	9	4	772	85.0	-168645.0	-469.0	14445.0
9	18	9	4	772	86.0	-168039.0	-493.0	6918.0
9	18	9	4	773	87.0	-167889.0	-511.0	-5592.0
9	18	9	4	773	88.0	-167903.0	-544.0	-18775.0
9	18	9	4	811	89.0	-168332.0	-581.0	-30389.0
9	18	9	4	812	90.0	-169176.0	-601.0	-37528.0
9	18	9	4	813	91.0	-170057.0	-626.0	-40472.0
9	18	9	4	813	93.0	-171834.0	-684.0	-38869.0
9	18	9	4	814	116.0	-174857.0	-1317.0	5062.0
9	18	9	4	814	117.0	-170404.0	-1337.0	5405.0
9	18	9	4	815	161.0	-162952.0	-2645.0	11210.0
9	18	9	4	815	162.0	-168539.0	-2681.0	11073.0
9	18	9	4	816	163.0	-173492.0	-2708.0	11888.0
9	18	9	4	817	164.0	-177594.0	-2752.0	12463.0
9	18	9	4	817	165.0	-180761.0	-2767.0	12143.0
9	18	9	4	818	166.0	-182927.0	-2801.0	12320.0
9	18	9	4	818	167.0	-183621.0	-2818.0	13160.0
9	18	9	4	819	168.0	-183327.0	-2844.0	13658.0
9	18	9	4	819	169.0	-182267.0	-2909.0	13555.0
9	18	9	4	820	183.0	-149760.0	-3317.0	18516.0
9	18	9	4	820	184.0	-149642.0	-3342.0	18947.0
9	18	9	4	821	185.0	-149813.0	-3354.0	19372.0
9	18	9	4	822	186.0	-150467.0	-3381.0	20104.0
9	18	9	4	822	187.0	-151896.0	-3416.0	20581.0
9	18	9	4	823	188.0	-153671.0	-3453.0	21044.0
9	18	9	4	917	189.0	-155607.0	-3484.0	21557.0
9	18	9	4	946	190.0	-157684.0	-3507.0	22001.0
9	18	9	4	947	191.0	-159930.0	-3530.0	22618.0
9	18	9	4	948	192.0	-162135.0	-3550.0	22921.0
9	18	9	4	948	193.0	-164027.0	-3582.0	23588.0
9	18	9	4	949	194.0	-165941.0	-3614.0	24398.0
9	18	9	4	961	195.0	-167637.0	-3639.0	24931.0
9	18	9	4	961	196.0	-168770.0	-3672.0	25009.0
9	18	9	4	962	197.0	-169507.0	-3708.0	25731.0
9	18	9	4	962	198.0	-169867.0	-3732.0	26322.0
9	18	9	4	963	199.0	-170328.0	-3758.0	26769.0
9	18	9	4	963	200.0	-170931.0	-3773.0	26943.0
9	18	9	4	964	201.0	-171657.0	-3791.0	27238.0
9	18	9	4	965	202.0	-172021.0	-3817.0	27777.0
9	18	9	4	965	203.0	-171966.0	-3842.0	28141.0
9	18	9	4	966	205.0	-169781.0	-3883.0	28453.0
9	18	9	4	966	243.0	-141477.0	-3209.0	9689.0
9	18	9	4	967	250.0	-162110.0	-2646.0	7138.0
9	18	9	4	967	251.0	-165447.0	-2565.0	6961.0
9	18	9	4	968	252.0	-168728.0	-2472.0	6626.0
9	18	9	4	968	253.0	-171816.0	-2379.0	6806.0
9	18	9	4	985	254.0	-174254.0	-2292.0	6879.0
9	18	9	4	986	255.0	-175956.0	-2199.0	6574.0
9	18	9	4	986	0.0	-176466.0	-2096.0	6460.0
9	18	9	5	8	1.0	-174988.0	-2014.0	6354.0
9	18	9	5	9	2.0	-170386.0	-1932.0	6126.0
9	18	9	5	9	3.0	-160866.0	-1823.0	6294.0
9	18	9	5	10	4.0	-145146.0	-1724.0	6228.0
9	18	9	5	10	5.0	-129451.0	-1639.0	5956.0
9	18	9	5	11	6.0	-123044.0	-1543.0	6026.0
9	18	9	5	11	7.0	-129995.0	-1446.0	6034.0
9	18	9	5	12	8.0	-136597.0	-1364.0	5957.0
9	18	9	5	13	9.0	-151103.0	-1267.0	6059.0
9	18	9	5	13	10.0	-160026.0	-1156.0	5860.0
9	18	9	5	14	11.0	-161774.0	-1057.0	5649.0
9	18	9	5	15	12.0	-164677.0	-966.0	5885.0
9	18	9	5	15	13.0	-163464.0	-897.0	5879.0
9	18	9	5	16	14.0	-159826.0	-783.0	5687.0
9	18	9	5	16	15.0	-157843.0	-702.0	5900.0
9	18	9	5	17	16.0	-155809.0	-616.0	6149.0
9	18	9	5	17	17.0	-151484.0	-512.0	6439.0
9	18	9	5	18	18.0	-146757.0	-430.0	6288.0
9	18	9	5	18	24.0	-127862.0	81.0	6006.0
9	18	9	5	19	25.0	-126289.0	159.0	5989.0
9	18	9	5	31	26.0	-125663.0	231.0	6241.0
9	18	9	5	54	27.0	-125639.0	314.0	6438.0
9	18	9	5	55	28.0	-126526.0	400.0	6699.0
9	18	9	5	56	29.0	-127934.0	474.0	6681.0
9	18	9	5	56	30.0	-128482.0	544.0	6594.0
9	18	9	5	57	31.0	-127752.0	623.0	6800.0
9	18	9	5	57	32.0	-126053.0	706.0	6703.0
9	18	9	5	58	33.0	-124355.0	772.0	6593.0
9	18	9	5	58	34.0	-123227.0	834.0	6544.0
9	18	9	5	59	35.0	-123381.0	888.0	6795.0
9	18	9	5	60	36.0	-123857.0	968.0	6779.0
9	18	9	5	60	37.0	-124224.0	1019.0	6698.0
9	18	9	5	61	38.0	-125184.0	1081.0	6817.0
9	18	9	5	61	39.0	-126184.0	1140.0	6709.0
9	18	9	5	62	40.0	-126206.0	1203.0	6536.0
9	18	9	5	62	41.0	-125697.0	1280.0	6784.0
9	18	9	5	63	42.0	-125082.0	1334.0	6819.0
9	18	9	5	63	47.0	-123432.0	1608.0	7316.0
9	18	9	5	64	48.0	-123249.0	1649.0	7403.0
9	18	9	5	65	49.0	-123146.0	1674.0	7238.0
9	18	9	5	66	50.0	-123216.0	1721.0	7691.0
9	18	9	5	66	51.0	-123405.0	1791.0	7666.0
9	18	9	5	67	52.0	-124059.0	1839.0	7394.0
9	18	9	5	67	53.0	-125021.0	1876.0	7259.0
9	18	9	5	68	54.0	-126174.0	1908.0	7761.0
9	18	9	5	68	55.0	-127678.0	1949.0	7023.0
9	18	9	5	111	56.0	-129376.0	1973.0	6612.0
9	18	9	5	111	57.0	-131203.0	2009.0	7203.0
9	18	9	5	112	58.0	-133008.0	2070.0	7394.0
9	18	9	5	113	59.0	-134929.0	2107.0	7368.0
9	18	9	5	113	60.0	-137055.0	2142.0	7433.0
9	18	9	5	114	61.0	-138839.0	2166.0	7940.0
9	18	9	5	114	62.0	-140587.0	2196.0	7776.0
9	18	9	5	115	63.0	-142599.0	2232.0	7737.0
9	18	9	5	115	64.0	-144657.0	2261.0	7741.0
9	18	9	5	116	65.0	-147010.0	2286.0	7613.0
9	18	9	5	117	66.0	-149135.0	2313.0	7690.0
9	18	9	5	117	67.0	-151063.0	2329.0	7831.0
9	18	9	5	118	68.0	-153134.0	2370.0	7499.0
9	18	9	5	118	69.0	-155519.0	2408.0	7368.0
9	18	9	5	119	70.0	-158130.0	2403.0	7446.0
9	18	9	5	119	76.0	-169013.0	2509.0	7719.0
9	18	9	5	120	77.0	-170371.0	2531.0	7746.0
9	18	9	5	121	78.0	-171454.0	2546.0	7751.0
9	18	9	5	121	79.0	-172567.0	2538.0	8129.0
9	18	9	5	129	80.0	-173918.0	2548.0	7766.0
9	18	9	5	130	81.0	-174864.0	2556.0	7668.0
9	18	9	5	131	82.0	-175324.0	2543.0	8034.0
9	18	9	5	131	83.0	-176084.0	2553.0	8119.0
9	18	9	5	132	84.0	-176746.0	2570.0	8096.0
9	18	9	5	154	85.0	-176899.0	2557.0	7906.0
9	18	9	5	155	86.0	-176729.0	2564.0	7709.0
9	18	9	5	155	87.0	-176304.0	2571.0	7612.0
9	18	9	5	156	88.0	-175528.0	2579.0	7845.0
9	18	9	5	156	89.0	-174257.0	2588.0	8169.0
9	18	9	5	157	90.0	-172921.0	2585.0	7667.0
9	18	9	5	157	91.0	-171382.0	2578.0	7922.0
9	18	9	5	158	92.0	-169583.0	2592.0	8509.0
9	18	9	5	159	93.0	-167526.0	2597.0	8287.0
9	18	9	5	159	94.0	-165486.0	2608.0	7916.0
9	18	9	5	160	95.0	-163772.0	2593.0	7783.0
9	18	9	5	160	96.0	-162144.0	2599.0	7969.0
9	18	9	5	161	97.0	-160816.0	2589.0	7965.0
9	18	9	5	161	98.0	-160070.0	2593.0	7596.0
9	18	9	5	162	99.0	-159815.0	2596.0	7761.0
9	18	9	5	178	100.0	-159841.0	2598.0	8293.0
9	18	9	5	178	101.0	-160390.0	2589.0	8159.0
9	18	9	5	179	102.0	-161410.0	2594.0	8272.0
9	18	9	5	179	103.0	-162366.0	2600.0	8066.0
9	18	9	5	180	104.0	-163596.0	2587.0	8081.0
9	18	9	5	180	105.0	-164985.0	2588.0	8283.0
9	18	9	5	181	106.0	-166241.0	2584.0	8090.0
9	18	9	5	181	107.0	-167477.0	2592.0	8172.0
9	18	9	5	182	108.0	-168852.0	2603.0	8183.0
9	18	9	5	201	109.0	-170228.0	2600.0	8178.0
9	18	9	5	202	110.0	-171658.0	2603.0	8379.0
9	18	9	5	202	111.0	-173182.0	2599.0	8777.0
9	18	9	5	203	112.0	-174607.0	2586.0	8391.0
9	18	9	5	203	113.0	-176105.0	2578.0	8248.0
9	18	9	5	204	114.0	-177477.0	2585.0	8389.0
9	18	9	5	204	115.0	-178967.0	2587.0	8295.0
9	18	9	5	205	116.0	-180314.0	2573.0	7974.0
9	18	9	5	206	117.0	-181356.0	2585.0	8475.0
9	18	9	5	206	118.0	-182030.0	2594.0	8335.0
9	18	9	5	207	119.0	-182273.0	2591.0	8402.0
9	18	9	5	207	120.0	-182212.0	2590.0	8503.0
9	18	9	5	208	121.0	-181999.0	2593.0	8084.0
9	18	9	5	208	122.0	-181442.0	2583.0	7986.0
9	18	9	5	209	123.0	-180376.0	2586.0	8413.0
9	18	9	5	227	124.0	-179211.0	2606.0	8558.0
9	18	9	5	228	125.0	-177812.0	2611.0	8082.0
9	18	9	5	229	126.0	-176357.0	2608.0	8071.0
9	18	9	5	229	127.0	-174802.0	2598.0	8515.0
9	18	9	5	230	128.0	-173510.0	2579.0	8371.0
9	18	9	5	230	129.0	-172291.0	2588.0	8055.0
9	18	9	5	250	130.0	-170991.0	2604.0	7966.0
9	18	9	5	251	131.0	-169873.0	2615.0	8413.0
9	18	9	5	251	132.0	-168686.0	2604.0	8223.0
9	18	9	5	252	133.0	-167603.0	2589.0	8285.0
9	18	9	5	253	134.0	-166678.0	2586.0	8178.0
9	18	9	5	253	135.0	-165937.0	2591.0	8304.0
9	18	9	5	254	136.0	-165436.0	2603.0	8299.0
9	18	9	5	254	137.0	-165299.0	2604.0	8541.0
9	18	9	5	255	138.0	-165361.0	2601.0	8584.0
9	18	9	5	255	139.0	-165259.0	2598.0	8459.0
9	18	9	5	256	140.0	-165296.0	2592.0	8638.0
9	18	9	5	257	141.0	-165396.0	2579.0	8614.0
9	18	9	5	257	142.0	-165472.0	2577.0	8603.0
9	18	9	5	258	143.0	-165633.0	2591.0	8639.0
9	18	9	5	258	144.0	-165464.0	2586.0	8473.0
9	18	9	5	259	145.0	-165487.0	2568.0	8478.0
9	18	9	5	259	146.0	-165695.0	2567.0	8742.0
9	18	9	5	260	147.0	-165966.0	2563.0	8648.0
9	18	9	5	261	148.0	-166446.0	2548.0	8289.0
9	18	9	5	261	149.0	-166829.0	2554.0	8765.0
9	18	9	5	262	150.0	-167033.0	2553.0	8453.0
9	18	9	5	262	151.0	-166892.0	2536.0	8107.0
9	18	9	5	275	152.0	-166493.0	2533.0	8543.0
9	18	9	5	276	153.0	-165926.0	2514.0	8848.0
9	18	9	5	276	154.0	-165586.0	2486.0	8674.0
9	18	9	5	277	155.0	-165220.0	2493.0	8969.0
9	18	9	5	278	156.0	-165024.0	2502.0	9083.0
9	18	9	5	278	157.0	-164969.0	2484.0	9154.0
9	18	9	5	279	158.0	-165136.0	2468.0	9295.0
9	18	9	5	279	159.0	-165519.0	2457.0	9387.0
9	18	9	5	280	160.0	-165789.0	2453.0	9256.0
9	18	9	5	297	161.0	-165882.0	2441.0	9212.0
9	18	9	5	298	162.0	-165934.0	2428.0	9602.0
9	18	9	5	298	163.0	-165761.0	2433.0	8973.0
9	18	9	5	299	164.0	-165249.0	2423.0	8726.0
9	18	9	5	299	165.0	-164709.0	2406.0	9057.0
9	18	9	5	300	166.0	-164154.0	2378.0	9058.0
9	18	9	5	301	167.0	-163479.0	2363.0	9206.0
9	18	9	5	320	168.0	-162885.0	2354.0	9409.0
9	18	9	5	320	169.0	-162412.0	2339.0	9416.0
9	18	9	5	321	170.0	-162162.0	2329.0	9477.0
9	18	9	5	322	171.0	-161764.0	2303.0	9475.0
9	18	9	5	322	172.0	-161525.0	2289.0	9359.0
9	18	9	5	323	173.0	-161713.0	2290.0	9445.0
9	18	9	5	323	174.0	-162215.0	2278.0	9389.0
9	18	9	5	324	175.0	-163187.0	2267.0	9137.0
9	18	9	5	324	176.0	-164326.0	2243.0	9055.0
9	18	9	5	325	177.0	-165376.0	2227.0	9116.0
9	18	9	5	342	178.0	-166570.0	2202.0	9374.0
9	18	9	5	343	179.0	-167577.0	2186.0	9567.0
9	18	9	5	344	180.0	-168186.0	2168.0	9225.0
9	18	9	5	344	181.0	-168457.0	2132.0	9183.0
9	18	9	5	345	182.0	-168350.0	2104.0	9194.0
9	18	9	5	345	183.0	-167966.0	2101.0	9094.0
9	18	9	5	346	184.0	-167127.0	2098.0	9313.0
9	18	9	5	347	185.0	-165911.0	2086.0	9058.0
9	18	9	5	347	186.0	-164353.0	2051.0	9256.0
9	18	9	5	348	187.0	-162655.0	2006.0	9636.0
9	18	9	5	348	188.0	-161217.0	1991.0	9720.0
9	18	9	5	349	189.0	-160204.0	1979.0	9703.0
9	18	9	5	349	190.0	-159590.0	1955.0	9811.0
9	18	9	5	350	191.0	-159410.0	1928.0	10054.0
9	18	9	5	351	192.0	-159114.0	1913.0	9434.0
9	18	9	5	365	193.0	-158951.0	1883.0	9068.0
9	18	9	5	366	194.0	-158951.0	1853.0	9326.0
9	18	9	5	367	195.0	-158976.0	1834.0	9286.0
9	18	9	5	367	196.0	-159151.0	1811.0	9311.0
9	18	9	5	368	197.0	-158889.0	1776.0	9584.0
9	18	9	5	368	198.0	-158314.0	1741.0	9317.0
9	18	9	5	369	199.0	-157565.0	1731.0	9320.0
9	18	9	5	370	200.0	-156714.0	1704.0	9849.0
9	18	9	5	370	201.0	-155477.0	1669.0	9821.0
9	18	9	5	371	202.0	-154090.0	1642.0	9553.0
9	18	9	5	371	203.0	-152499.0	1615.0	9682.0
9	18	9	5	372	204.0	-151260.0	1566.0	9614.0
9	18	9	5	372	205.0	-150026.0	1563.0	9386.0
9	18	9	5	388	206.0	-148857.0	1518.0	9414.0
9	18	9	5	389	207.0	-148116.0	1493.0	9694.0
9	18	9	5	390	208.0	-147765.0	1476.0	9718.0
9	18	9	5	390	209.0	-147347.0	1439.0	9627.0
9	18	9	5	412	210.0	-147039.0	1416.0	9378.0
9	18	9	5	413	211.0	-146989.0	1387.0	9304.0
9	18	9	5	413	212.0	-146786.0	1343.0	9094.0
9	18	9	5	414	213.0	-146834.0	1325.0	9154.0
9	18	9	5	414	214.0	-147019.0	1302.0	9066.0
9	18	9	5	415	215.0	-147337.0	1266.0	9014.0
9	18	9	5	416	216.0	-148027.0	1240.0	9107.0
9	18	9	5	416	217.0	-149412.0	1206.0	9197.0
9	18	9	5	417	218.0	-151197.0	1188.0	9074.0
9	18	9	5	417	219.0	-153116.0	1156.0	9214.0
9	18	9	5	418	220.0	-155022.0	1114.0	9167.0
9	18	9	5	418	221.0	-156819.0	1092.0	9430.0
9	18	9	5	419	222.0	-158717.0	1072.0	9525.0
9	18	9	5	419	223.0	-160619.0	1066.0	8938.0
9	18	9	5	420	224.0	-162274.0	1031.0	8898.0
9	18	9	5	421	225.0	-164216.0	996.0	9059.0
9	18	9	5	421	226.0	-166691.0	959.0	8943.0
9	18	9	5	435	227.0	-169185.0	928.0	8764.0
9	18	9	5	436	228.0	-171116.0	901.0	9034.0
9	18	9	5	436	229.0	-172633.0	869.0	9656.0
9	18	9	5	437	230.0	-173639.0	846.0	9276.0
9	18	9	5	437	231.0	-174271.0	808.0	8899.0
9	18	9	5	438	232.0	-174391.0	778.0	9041.0
9	18	9	5	438	233.0	-174217.0	756.0	8875.0
9	18	9	5	439	234.0	-173487.0	751.0	8518.0
9	18	9	5	440	235.0	-172581.0	703.0	8214.0
9	18	9	5	440	236.0	-171291.0	666.0	8056.0
9	18	9	5	441	237.0	-169716.0	638.0	8125.0
9	18	9	5	442	238.0	-167919.0	604.0	8346.0
9	18	9	5	442	239.0	-165878.0	569.0	8438.0
9	18	9	5	443	240.0	-164059.0	550.0	8147.0
9	18	9	5	443	241.0	-162717.0	524.0	8261.0
9	18	9	5	444	242.0	-161702.0	496.0	8846.0
9	18	9	5	457	243.0	-161284.0	473.0	8892.0
9	18	9	5	480	244.0	-161147.0	447.0	8949.0
9	18	9	5	481	245.0	-161434.0	404.0	9051.0
9	18	9	5	481	246.0	-162269.0	381.0	9308.0
9	18	9	5	482	247.0	-162996.0	358.0	9347.0
9	18	9	5	482	248.0	-163417.0	315.0	9460.0
9	18	9	5	483	249.0	-163591.0	279.0	9729.0
9	18	9	5	484	250.0	-163671.0	252.0	9894.0
9	18	9	5	484	251.0	-163547.0	218.0	10025.0
9	18	9	5	485	252.0	-163501.0	181.0	9783.0
9	18	9	5	486	253.0	-163395.0	138.0	9938.0
9	18	9	5	486	254.0	-163366.0	112.0	10028.0
9	18	9	5	487	255.0	-163518.0	82.0	10076.0
9	18	9	5	487	0.0	-163815.0	56.0	10003.0
9	18	9	5	488	1.0	-164316.0	24.0	10054.0
9	18	9	5	489	2.0	-165034.0	-7.0	9988.0
9	18	9	5	489	3.0	-165622.0	-34.0	10218.0
9	18	9	5	490	4.0	-166234.0	-62.0	10431.0
9	18	9	5	491	5.0	-167089.0	-106.0	10352.0
9	18	9	5	491	6.0	-168004.0	-143.0	9929.0
9	18	9	5	492	7.0	-168712.0	-161.0	10033.0
9	18	9	5	502	8.0	-169043.0	-202.0	10145.0
9	18	9	5	503	9.0	-168601.0	-226.0	9863.0
9	18	9	5	503	10.0	-167977.0	-257.0	9749.0
9	18	9	5	504	11.0	-167046.0	-302.0	10030.0
9	18	9	5	504	12.0	-165474.0	-322.0	10063.0
9	18	9	5	505	13.0	-163552.0	-352.0	9888.0
9	18	9	5	506	14.0	-161761.0	-376.0	10066.0
9	18	9	5	506	15.0	-160078.0	-397.0	10263.0
9	18	9	5	507	16.0	-158647.0	-439.0	10190.0
9	18	9	5	507	17.0	-157495.0	-473.0	10344.0
9	18	9	5	525	18.0	-156618.0	-510.0	10397.0
9	18	9	5	526	19.0	-157565.0	-524.0	10202.0
9	18	9	5	526	20.0	-159271.0	-564.0	10294.0
9	18	9	5	527	21.0	-161335.0	-594.0	10327.0
9	18	9	5	528	22.0	-162749.0	-626.0	10318.0
9	18	9	5	528	23.0	-162931.0	-658.0	10405.0
9	18	9	5	547	24.0	-162064.0	-684.0	10811.0
9	18	9	5	548	25.0	-160123.0	-725.0	11364.0
9	18	9	5	570	26.0	-157709.0	-759.0	12158.0
9	18	9	5	571	27.0	-154907.0	-793.0	13093.0
9	18	9	5	571	28.0	-152181.0	-824.0	14268.0
9	18	9	5	572	29.0	-149904.0	-863.0	15812.0
9	18	9	5	573	30.0	-147868.0	-881.0	18376.0
9	18	9	5	573	31.0	-145946.0	-907.0	21919.0
9	18	9	5	574	32.0	-144314.0	-924.0	25891.0
9	18	9	5	574	33.0	-142910.0	-958.0	30172.0
9	18	9	5	575	34.0	-142011.0	-980.0	34803.0
9	18	9	5	576	35.0	-141392.0	-997.0	35338.0
9	18	9	5	576	36.0	-141051.0	-1043.0	31034.0
9	18	9	5	577	37.0	-141291.0	-1097.0	25368.0
9	18	9	5	578	38.0	-142050.0	-1118.0	16631.0
9	18	9	5	578	39.0	-143285.0	-1162.0	3156.0
9	18	9	5	579	40.0	-145334.0	-1181.0	-10420.0
9	18	9	5	580	41.0	-147946.0	-1188.0	-21972.0
9	18	9	5	581	45.0	-158048.0	-1326.0	-33498.0
9	18	9	5	581	46.0	-160134.0	-1359.0	-29351.0
9	18	9	5	582	47.0	-162054.0	-1402.0	-25149.0
9	18	9	5	582	48.0	-164259.0	-1435.0	-21969.0
9	18	9	5	583	49.0	-167227.0	-1471.0	-18487.0
9	18	9	5	584	50.0	-171006.0	-1486.0	-16870.0
9	18	9	5	592	51.0	-174722.0	-1513.0	-16027.0
9	18	9	5	624	52.0	-178147.0	-1552.0	-13289.0
9	18	9	5	625	53.0	-180983.0	-1573.0	-9666.0
9	18	9	5	625	54.0	-183184.0	-1598.0	-5586.0
9	18	9	5	626	55.0	-184974.0	-1634.0	-2927.0
9	18	9	5	626	56.0	-185926.0	-1670.0	-1047.0
9	18	9	5	627	57.0	-186651.0	-1703.0	1188.0
9	18	9	5	627	58.0	-187401.0	-1729.0	3368.0
9	18	9	5	628	59.0	-188252.0	-1774.0	5941.0
9	18	9	5	628	60.0	-190689.0	-1816.0	8329.0
9	18	9	5	638	61.0	-194349.0	-1838.0	9799.0
9	18	9	5	639	62.0	-195226.0	-1864.0	11234.0
9	18	9	5	661	63.0	-188821.0	-1893.0	12011.0
9	18	9	5	662	64.0	-179796.0	-1932.0	13101.0
9	18	9	5	662	65.0	-173562.0	-1949.0	13873.0
9	18	9	5	663	66.0	-169068.0	-1983.0	14222.0
9	18	9	5	663	75.0	-164026.0	-2266.0	15909.0
9	18	9	5	664	76.0	-167686.0	-2287.0	15906.0
9	18	9	5	665	77.0	-169350.0	-2332.0	16193.0
9	18	9	5	665	78.0	-169776.0	-2368.0	16674.0
9	18	9	5	666	79.0	-169159.0	-2382.0	16517.0
9	18	9	5	666	80.0	-167395.0	-2424.0	16591.0
9	18	9	5	667	81.0	-164312.0	-2454.0	16966.0
9	18	9	5	667	82.0	-160021.0	-2491.0	16908.0
9	18	9	5	668	83.0	-155746.0	-2515.0	16883.0
9	18	9	5	669	84.0	-151731.0	-2547.0	17183.0
9	18	9	5	669	85.0	-150528.0	-2576.0	16791.0
9	18	9	5	670	86.0	-149337.0	-2610.0	16433.0
9	18	9	5	670	90.0	-138401.0	-2755.0	16953.0
9	18	9	5	671	91.0	-132677.0	-2771.0	17531.0
9	18	9	5	671	92.0	-125077.0	-2800.0	17721.0
9	18	9	5	672	93.0	-116601.0	-2839.0	17923.0
9	18	9	5	672	94.0	-108362.0	-2876.0	18052.0
9	18	9	5	673	95.0	-101703.0	-2910.0	17829.0
9	18	9	5	673	96.0	-98157.0	-2947.0	17938.0
9	18	9	5	674	97.0	-97987.0	-2967.0	18175.0
9	18	9	5	675	98.0	-99599.0	-3020.0	18032.0
9	18	9	5	683	99.0	-102053.0	-3034.0	17969.0
9	18	9	5	684	100.0	-104856.0	-3060.0	18247.0
9	18	9	5	684	101.0	-106786.0	-3098.0	18480.0
9	18	9	5	685	102.0	-107556.0	-3126.0	18882.0
9	18	9	5	685	103.0	-107344.0	-3151.0	19060.0
9	18	9	5	686	104.0	-106944.0	-3178.0	18916.0
9	18	9	5	686	105.0	-107356.0	-3232.0	18780.0
9	18	9	5	687	106.0	-108788.0	-3250.0	19344.0
9	18	9	5	706	107.0	-111843.0	-3277.0	19624.0
9	18	9	5	706	108.0	-116249.0	-3312.0	19525.0
9	18	9	5	707	109.0	-121277.0	-3337.0	19737.0
9	18	9	5	707	110.0	-126647.0	-3371.0	20089.0
9	18	9	5	729	111.0	-132211.0	-3415.0	20055.0
9	18	9	5	730	112.0	-137329.0	-3434.0	20226.0
9	18	9	5	730	113.0	-142079.0	-3472.0	20824.0
9	18	9	5	731	114.0	-146212.0	-3517.0	21128.0
9	18	9	5	731	115.0	-149504.0	-3532.0	21279.0
9	18	9	5	732	116.0	-152148.0	-3589.0	21408.0
9	18	9	5	752	117.0	-153698.0	-3627.0	21169.0
9	18	9	5	773	118.0	-154661.0	-3654.0	21226.0
9	18	9	5	774	119.0	-154945.0	-3679.0	21881.0
9	18	9	5	774	120.0	-154877.0	-3720.0	22166.0
9	18	9	5	775	121.0	-154736.0	-3759.0	22026.0
9	18	9	5	775	122.0	-154188.0	-3769.0	22602.0
9	18	9	5	776	123.0	-153801.0	-3784.0	23059.0
9	18	9	5	777	124.0	-153662.0	-3825.0	23019.0
9	18	9	5	777	125.0	-153923.0	-3855.0	23365.0
9	18	9	5	778	126.0	-154457.0	-3895.0	24093.0
9	18	9	5	778	127.0	-154940.0	-3916.0	24363.0
9	18	9	5	779	128.0	-155628.0	-3957.0	24311.0
9	18	9	5	779	129.0	-156654.0	-3993.0	24573.0
9	18	9	5	780	130.0	-157600.0	-4024.0	25224.0
9	18	9	5	781	131.0	-159062.0	-4054.0	25339.0
9	18	9	5	781	132.0	-161041.0	-4087.0	26066.0
9	18	9	5	782	135.0	-167597.0	-4177.0	27292.0
9	18	9	5	782	143.0	-191677.0	-4388.0	31721.0
9	18	9	5	783	144.0	-193415.0	-4422.0	31929.0
9	18	9	5	783	145.0	-194827.0	-4457.0	32799.0
9	18	9	5	784	146.0	-195921.0	-4493.0	32915.0
9	18	9	5	784	147.0	-196542.0	-4531.0	33431.0
9	18	9	5	785	148.0	-196312.0	-4554.0	34226.0
9	18	9	5	785	149.0	-195586.0	-4563.0	34426.0
9	18	9	5	786	150.0	-194341.0	-4594.0	34598.0
9	18	9	5	787	151.0	-192330.0	-4645.0	34959.0
9	18	9	5	800	152.0	-189662.0	-4668.0	35688.0
9	18	9	5	800	153.0	-186671.0	-4692.0	36563.0
9	18	9	5	801	154.0	-183346.0	-4697.0	36839.0
9	18	9	5	802	155.0	-179719.0	-4725.0	36789.0
9	18	9	5	803	156.0	-176103.0	-4760.0	36951.0
9	18	9	5	803	157.0	-172816.0	-4787.0	37401.0
9	18	9	5	820	158.0	-169744.0	-4819.0	37708.0
9	18	9	5	820	159.0	-166473.0	-4824.0	37466.0
9	18	9	5	821	160.0	-163181.0	-4838.0	37536.0
9	18	9	5	822	161.0	-159948.0	-4868.0	37961.0
9	18	9	5	822	162.0	-157011.0	-4871.0	38053.0
9	18	9	5	823	163.0	-154352.0	-4892.0	37988.0
9	18	9	5	823	164.0	-152167.0	-4891.0	38235.0
9	18	9	5	824	165.0	-150452.0	-4872.0	38429.0
9	18	9	5	824	166.0	-148812.0	-4886.0	38182.0
9	18	9	5	825	167.0	-147009.0	-4883.0	37761.0
9	18	9	5	826	168.0	-145563.0	-4889.0	37814.0
9	18	9	5	826	169.0	-144432.0	-4886.0	37410.0
9	18	9	5	827	170.0	-143386.0	-4876.0	37113.0
9	18	9	5	827	171.0	-142509.0	-4852.0	36428.0
9	18	9	5	828	172.0	-141471.0	-4834.0	36002.0
9	18	9	5	843	173.0	-140657.0	-4827.0	35141.0
9	18	9	5	844	174.0	-139825.0	-4797.0	34611.0
9	18	9	5	844	175.0	-138842.0	-4770.0	33762.0
9	18	9	5	845	176.0	-138066.0	-4742.0	32731.0
9	18	9	5	845	177.0	-137453.0	-4697.0	31375.0
9	18	9	5	846	178.0	-137097.0	-4664.0	30576.0
9	18	9	5	847	179.0	-137191.0	-4628.0	29963.0
9	18	9	5	847	180.0	-137632.0	-4571.0	28852.0
9	18	9	5	848	181.0	-138336.0	-4536.0	27411.0
9	18	9	5	848	182.0	-139449.0	-4483.0	26595.0
9	18	9	5	849	183.0	-141142.0	-4427.0	25941.0
9	18	9	5	849	184.0	-143361.0	-4377.0	24496.0
9	18	9	5	850	185.0	-145849.0	-4314.0	23523.0
9	18	9	5	851	186.0	-148157.0	-4247.0	22844.0
9	18	9	5	851	187.0	-150527.0	-4184.0	21613.0
9	18	9	5	852	188.0	-153013.0	-4116.0	21107.0
9	18	9	5	890	189.0	-155251.0	-4037.0	20589.0
9	18	9	5	891	190.0	-157279.0	-3966.0	19820.0
9	18	9	5	891	191.0	-159930.0	-3897.0	19081.0
9	18	9	5	892	192.0	-162934.0	-3802.0	18579.0
9	18	9	5	892	193.0	-165853.0	-3708.0	18017.0
9	18	9	5	893	194.0	-168623.0	-3627.0	17181.0
9	18	9	5	893	195.0	-170961.0	-3534.0	16558.0
9	18	9	5	894	196.0	-172884.0	-3441.0	16269.0
9	18	9	5	895	197.0	-174698.0	-3342.0	15842.0
9	18	9	5	895	198.0	-176146.0	-3257.0	15646.0
9	18	9	5	896	199.0	-177271.0	-3163.0	15547.0
9	18	9	5	896	200.0	-178120.0	-3045.0	15166.0
9	18	9	5	897	201.0	-178807.0	-2944.0	14636.0
9	18	9	5	898	202.0	-179889.0	-2848.0	14645.0
9	18	9	5	898	203.0	-180892.0	-2751.0	14556.0
9	18	9	5	899	204.0	-181366.0	-2625.0	13946.0
9	18	9	5	899	210.0	-170522.0	-1964.0	13223.0
9	18	9	5	900	211.0	-166069.0	-1855.0	13186.0
9	18	9	5	901	212.0	-159909.0	-1734.0	12775.0
9	18	9	5	909	213.0	-150134.0	-1630.0	12821.0
9	18	9	5	934	214.0	-135739.0	-1509.0	13013.0
9	18	9	5	935	215.0	-127716.0	-1407.0	12638.0
9	18	9	5	936	216.0	-130971.0	-1299.0	12439.0
9	18	9	5	936	217.0	-137851.0	-1166.0	12741.0
9	18	9	5	937	218.0	-145384.0	-1052.0	13085.0
9	18	9	5	937	219.0	-160774.0	-924.0	13091.0
9	18	9	5	938	220.0	-171451.0	-827.0	13199.0
9	18	9	5	938	221.0	-177037.0	-719.0	13043.0
9	18	9	5	939	222.0	-180881.0	-617.0	12782.0
9	18	9	5	939	223.0	-179259.0	-512.0	12851.0
9	18	9	5	940	224.0	-176325.0	-412.0	12893.0
9	18	9	5	940	225.0	-177059.0	-302.0	12684.0
9	18	9	5	941	226.0	-178025.0	-188.0	12574.0
9	18	9	5	942	227.0	-176180.0	-105.0	12612.0
9	18	9	5	942	228.0	-173232.0	-9.0	12761.0
9	18	9	5	967	229.0	-172813.0	91.0	12685.0
9	18	9	5	967	230.0	-174801.0	211.0	12955.0
9	18	9	5	968	231.0	-176811.0	295.0	13078.0
9	18	9	5	968	232.0	-177152.0	383.0	12936.0
9	18	9	5	969	233.0	-178426.0	486.0	13300.0
9	18	9	5	969	234.0	-177866.0	557.0	13626.0
9	18	9	5	987	235.0	-174267.0	642.0	13199.0
9	18	9	5	987	236.0	-169588.0	734.0	12990.0
9	18	9	5	988	237.0	-165329.0	826.0	13343.0
9	18	9	5	988	238.0	-161947.0	897.0	13147.0
9	18	9	5	989	239.0	-159041.0	975.0	13127.0
9	18	9	5	990	240.0	-156576.0	1049.0	13275.0
9	18	9	5	990	241.0	-154210.0	1125.0	13255.0
9	18	9	5	991	242.0	-151977.0	1203.0	13171.0
9	18	9	5	991	243.0	-149959.0	1274.0	13172.0
9	18	9	5	992	244.0	-147757.0	1344.0	13404.0
9	18	9	5	992	247.0	-142409.0	1544.0	12781.0
9	18	9	5	993	248.0	-141323.0	1598.0	12783.0
9	18	9	5	994	249.0	-141084.0	1676.0	13158.0
9	18	9	5	994	250.0	-141422.0	1746.0	13306.0
9	18	9	5	995	251.0	-141768.0	1812.0	13633.0
9	18	9	5	995	252.0	-142316.0	1868.0	13961.0
9	18	9	5	996	255.0	-145441.0	2038.0	13226.0
9	18	9	5	997	0.0	-146127.0	2094.0	13222.0
9	18	9	5	997	1.0	-146539.0	2138.0	13019.0
9	18	9	5	998	2.0	-146756.0	2193.0	13051.0
9	18	9	5	998	3.0	-146984.0	2243.0	13639.0
9	18	9	5	999	4.0	-147302.0	2289.0	13495.0
9	18	9	5	999	5.0	-147645.0	2332.0	13114.0
9	18	9	6	0	6.0	-148120.0	2371.0	13628.0
9	18	9	6	27	7.0	-148989.0	2424.0	13637.0
9	18	9	6	28	8.0	-150246.0	2469.0	13742.0
9	18	9	6	28	9.0	-152146.0	2514.0	13567.0
9	18	9	6	29	10.0	-154426.0	2539.0	13444.0
9	18	9	6	30	11.0	-156780.0	2585.0	13422.0
9	18	9	6	30	12.0	-158894.0	2624.0	13367.0
9	18	9	6	31	13.0	-160545.0	2652.0	13471.0
9	18	9	6	31	14.0	-161661.0	2696.0	13529.0
9	18	9	6	32	15.0	-162126.0	2733.0	13438.0
9	18	9	6	33	16.0	-161942.0	2750.0	13681.0
9	18	9	6	33	17.0	-161516.0	2770.0	13789.0
9	18	9	6	34	18.0	-160811.0	2807.0	13587.0
9	18	9	6	34	19.0	-159776.0	2838.0	13436.0
9	18	9	6	35	20.0	-158541.0	2867.0	13239.0
9	18	9	6	36	21.0	-157540.0	2904.0	13188.0
9	18	9	6	36	22.0	-156716.0	2941.0	13059.0
9	18	9	6	37	23.0	-156460.0	2966.0	13173.0
9	18	9	6	37	24.0	-156979.0	2981.0	13390.0
9	18	9	6	56	25.0	-157750.0	2985.0	13774.0
9	18	9	6	57	26.0	-158677.0	3004.0	13554.0
9	18	9	6	57	27.0	-159856.0	3025.0	13416.0
9	18	9	6	58	28.0	-161134.0	3059.0	13463.0
9	18	9	6	59	29.0	-162493.0	3072.0	13398.0
9	18	9	6	59	30.0	-164030.0	3084.0	13333.0
9	18	9	6	60	31.0	-165265.0	3093.0	13222.0
9	18	9	6	61	32.0	-166084.0	3121.0	13261.0
9	18	9	6	61	33.0	-167104.0	3143.0	13511.0
9	18	9	6	62	34.0	-167933.0	3150.0	13734.0
9	18	9	6	62	35.0	-168399.0	3168.0	13366.0
9	18	9	6	63	36.0	-168887.0	3160.0	12929.0
9	18	9	6	64	37.0	-169288.0	3179.0	13294.0
9	18	9	6	71	38.0	-169676.0	3200.0	13478.0
9	18	9	6	72	39.0	-170219.0	3195.0	13594.0
9	18	9	6	73	40.0	-170808.0	3203.0	13288.0
9	18	9	6	73	41.0	-171539.0	3215.0	13311.0
9	18	9	6	74	42.0	-172426.0	3215.0	13260.0
9	18	9	6	74	43.0	-173545.0	3225.0	12962.0
9	18	9	6	75	44.0	-174866.0	3232.0	12998.0
9	18	9	6	96	45.0	-176331.0	3235.0	12920.0
9	18	9	6	96	46.0	-178015.0	3255.0	12924.0
9	18	9	6	97	47.0	-179545.0	3261.0	13257.0
9	18	9	6	98	48.0	-180561.0	3254.0	13289.0
9	18	9	6	98	49.0	-181247.0	3262.0	13350.0
9	18	9	6	99	50.0	-181712.0	3262.0	13288.0
9	18	9	6	99	51.0	-181434.0	3288.0	12952.0
9	18	9	6	100	52.0	-180554.0	3275.0	13016.0
9	18	9	6	101	53.0	-179676.0	3279.0	13097.0
9	18	9	6	101	54.0	-178771.0	3284.0	13096.0
9	18	9	6	102	55.0	-177237.0	3283.0	13138.0
9	18	9	6	102	56.0	-175679.0	3276.0	13129.0
9	18	9	6	103	57.0	-174005.0	3288.0	13218.0
9	18	9	6	104	58.0	-172219.0	3309.0	13083.0
9	18	9	6	104	59.0	-170556.0	3299.0	13213.0
9	18	9	6	119	60.0	-168917.0	3312.0	13146.0
9	18	9	6	120	61.0	-167119.0	3316.0	13116.0
9	18	9	6	143	62.0	-165706.0	3313.0	12867.0
9	18	9	6	143	63.0	-164450.0	3308.0	12938.0
9	18	9	6	144	64.0	-162960.0	3301.0	13129.0
9	18	9	6	145	65.0	-161836.0	3315.0	12924.0
9	18	9	6	145	66.0	-160973.0	3309.0	13048.0
9	18	9	6	146	67.0	-160547.0	3321.0	13084.0
9	18	9	6	146	68.0	-160481.0	3329.0	13214.0
9	18	9	6	147	69.0	-161031.0	3329.0	13269.0
9	18	9	6	147	70.0	-161895.0	3344.0	13126.0
9	18	9	6	148	71.0	-162867.0	3347.0	12849.0
9	18	9	6	149	72.0	-164262.0	3342.0	13210.0
9	18	9	6	149	73.0	-165577.0	3337.0	13763.0
9	18	9	6	150	74.0	-166731.0	3327.0	13190.0
9	18	9	6	150	75.0	-167789.0	3329.0	13127.0
9	18	9	6	151	76.0	-169039.0	3343.0	13458.0
9	18	9	6	151	77.0	-170300.0	3333.0	12973.0
9	18	9	6	152	78.0	-171354.0	3346.0	12807.0
9	18	9	6	153	79.0	-172225.0	3344.0	13346.0
9	18	9	6	153	80.0	-172596.0	3340.0	13286.0
9	18	9	6	154	81.0	-172803.0	3344.0	13187.0
9	18	9	6	166	82.0	-172788.0	3332.0	13270.0
9	18	9	6	166	83.0	-172707.0	3331.0	13539.0
9	18	9	6	167	84.0	-172959.0	3340.0	13181.0
9	18	9	6	167	85.0	-173362.0	3341.0	13317.0
9	18	9	6	168	86.0	-173912.0	3344.0	13234.0
9	18	9	6	169	87.0	-174249.0	3353.0	13314.0
9	18	9	6	169	88.0	-174149.0	3353.0	13371.0
9	18	9	6	170	89.0	-173957.0	3324.0	13491.0
9	18	9	6	170	90.0	-173748.0	3330.0	13265.0
9	18	9	6	190	91.0	-173531.0	3339.0	13441.0
9	18	9	6	191	92.0	-173294.0	3347.0	13354.0
9	18	9	6	191	93.0	-173231.0	3336.0	13351.0
9	18	9	6	192	94.0	-173076.0	3339.0	13133.0
9	18	9	6	193	95.0	-172919.0	3334.0	13308.0
9	18	9	6	193	96.0	-173066.0	3309.0	13278.0
9	18	9	6	194	97.0	-173278.0	3319.0	13266.0
9	18	9	6	194	98.0	-173331.0	3332.0	13447.0
9	18	9	6	195	99.0	-173436.0	3305.0	13478.0
9	18	9	6	195	100.0	-173745.0	3302.0	13518.0
9	18	9	6	196	101.0	-174347.0	3308.0	13411.0
9	18	9	6	197	102.0	-175192.0	3284.0	13508.0
9	18	9	6	221	103.0	-176106.0	3265.0	13223.0
9	18	9	6	222	104.0	-176847.0	3261.0	13611.0
9	18	9	6	222	105.0	-177471.0	3261.0	13380.0
9	18	9	6	223	106.0	-178150.0	3256.0	13023.0
9	18	9	6	224	107.0	-178894.0	3248.0	13306.0
9	18	9	6	224	108.0	-179476.0	3248.0	13686.0
9	18	9	6	225	109.0	-179704.0	3241.0	13552.0
9	18	9	6	226	110.0	-179523.0	3228.0	13235.0
9	18	9	6	226	111.0	-178889.0	3204.0	13174.0
9	18	9	6	227	112.0	-177874.0	3212.0	13387.0
9	18	9	6	228	113.0	-176701.0	3185.0	13399.0
9	18	9	6	228	114.0	-175499.0	3170.0	13548.0
9	18	9	6	229	115.0	-174157.0	3155.0	13509.0
9	18	9	6	230	116.0	-172869.0	3138.0	13244.0
9	18	9	6	230	117.0	-172185.0	3114.0	13254.0
9	18	9	6	231	118.0	-171727.0	3097.0	13664.0
9	18	9	6	231	119.0	-171474.0	3087.0	13476.0
9	18	9	6	232	120.0	-171238.0	3073.0	13184.0
9	18	9	6	233	121.0	-171122.0	3060.0	13288.0
9	18	9	6	241	122.0	-171059.0	3048.0	13523.0
9	18	9	6	242	123.0	-171069.0	3028.0	13440.0
9	18	9	6	242	124.0	-170835.0	3008.0	13389.0
9	18	9	6	243	125.0	-170423.0	2991.0	13516.0
9	18	9	6	243	126.0	-169934.0	2971.0	13492.0
9	18	9	6	263	127.0	-169247.0	2936.0	13564.0
9	18	9	6	264	128.0	-168447.0	2926.0	13582.0
9	18	9	6	265	129.0	-167564.0	2910.0	13526.0
9	18	9	6	265	130.0	-167000.0	2888.0	13440.0
9	18	9	6	266	131.0	-167143.0	2855.0	13230.0
9	18	9	6	266	132.0	-167646.0	2838.0	13454.0
9	18	9	6	267	133.0	-168481.0	2821.0	13708.0
9	18	9	6	267	134.0	-169687.0	2789.0	13855.0
9	18	9	6	268	135.0	-170792.0	2764.0	13688.0
9	18	9	6	269	136.0	-171757.0	2756.0	13601.0
9	18	9	6	269	137.0	-172497.0	2735.0	13414.0
9	18	9	6	270	138.0	-173036.0	2689.0	13114.0
9	18	9	6	288	139.0	-173150.0	2662.0	13654.0
9	18	9	6	289	140.0	-173046.0	2657.0	14017.0
9	18	9	6	311	141.0	-173012.0	2620.0	13593.0
9	18	9	6	312	142.0	-173286.0	2586.0	13477.0
9	18	9	6	312	143.0	-173592.0	2568.0	13889.0
9	18	9	6	313	144.0	-173952.0	2549.0	13917.0
9	18	9	6	314	145.0	-174364.0	2521.0	13923.0
9	18	9	6	314	146.0	-174736.0	2484.0	14128.0
9	18	9	6	315	147.0	-175237.0	2452.0	13694.0
9	18	9	6	316	148.0	-175863.0	2437.0	13663.0
9	18	9	6	317	149.0	-176761.0	2410.0	13895.0
9	18	9	6	317	150.0	-177238.0	2379.0	13677.0
9	18	9	6	318	151.0	-178150.0	2349.0	13474.0
9	18	9	6	319	152.0	-179392.0	2323.0	13786.0
9	18	9	6	319	153.0	-180231.0	2289.0	14318.0
9	18	9	6	320	154.0	-181441.0	2251.0	13830.0
9	18	9	6	321	155.0	-182732.0	2211.0	13476.0
9	18	9	6	321	156.0	-183892.0	2183.0	13969.0
9	18	9	6	322	157.0	-185152.0	2161.0	13969.0
9	18	9	6	322	158.0	-186449.0	2138.0	13817.0
9	18	9	6	323	159.0	-187793.0	2095.0	13759.0
9	18	9	6	324	160.0	-189066.0	2054.0	13948.0
9	18	9	6	324	161.0	-190422.0	2024.0	13861.0
9	18	9	6	325	162.0	-192144.0	1985.0	13908.0
9	18	9	6	325	163.0	-194313.0	1951.0	14279.0
9	18	9	6	326	164.0	-196774.0	1924.0	14284.0
9	18	9	6	327	165.0	-199910.0	1901.0	14004.0
9	18	9	6	327	166.0	-204026.0	1865.0	14051.0
9	18	9	6	328	167.0	-209596.0	1821.0	14058.0
9	18	9	6	329	168.0	-216777.0	1786.0	14039.0
9	18	9	6	329	169.0	-224377.0	1746.0	13958.0
9	18	9	6	330	170.0	-230437.0	1713.0	13904.0
9	18	9	6	340	171.0	-234389.0	1661.0	13822.0
9	18	9	6	371	172.0	-236751.0	1634.0	13620.0
9	18	9	6	372	173.0	-238133.0	1595.0	13568.0
9	18	9	6	373	174.0	-237920.0	1566.0	14283.0
9	18	9	6	374	175.0	-237026.0	1536.0	14654.0
9	18	9	6	374	176.0	-235004.0	1499.0	14288.0
9	18	9	6	375	177.0	-232671.0	1448.0	14087.0
9	18	9	6	376	178.0	-230633.0	1409.0	14249.0
9	18	9	6	376	179.0	-230537.0	1366.0	14194.0
9	18	9	6	377	180.0	-233372.0	1342.0	13990.0
9	18	9	6	378	181.0	-234388.0	1310.0	14050.0
9	18	9	6	378	182.0	-229951.0	1264.0	13895.0
9	18	9	6	379	183.0	-227475.0	1219.0	14098.0
9	18	9	6	380	184.0	-226149.0	1173.0	14197.0
9	18	9	6	381	185.0	-223532.0	1151.0	13983.0
9	18	9	6	381	186.0	-218506.0	1107.0	13911.0
9	18	9	6	382	187.0	-211617.0	1070.0	14484.0
9	18	9	6	382	194.0	-156732.0	792.0	14054.0
9	18	9	6	383	195.0	-152147.0	757.0	14022.0
9	18	9	6	384	196.0	-147425.0	730.0	13992.0
9	18	9	6	385	197.0	-144527.0	682.0	14337.0
9	18	9	6	386	198.0	-144577.0	641.0	14250.0
9	18	9	6	386	199.0	-144882.0	616.0	13805.0
9	18	9	6	387	200.0	-144597.0	586.0	14104.0
9	18	9	6	395	201.0	-143884.0	540.0	14013.0
9	18	9	6	419	202.0	-143021.0	472.0	13756.0
9	18	9	6	420	203.0	-142757.0	433.0	13463.0
9	18	9	6	421	204.0	-143360.0	411.0	13394.0
9	18	9	6	421	205.0	-144310.0	374.0	13400.0
9	18	9	6	422	206.0	-145507.0	338.0	13688.0
9	18	9	6	422	207.0	-147313.0	306.0	13863.0
9	18	9	6	423	208.0	-148792.0	263.0	13758.0
9	18	9	6	424	209.0	-149524.0	225.0	13976.0
9	18	9	6	445	210.0	-149409.0	215.0	13982.0
9	18	9	6	445	211.0	-148939.0	179.0	13406.0
9	18	9	6	446	212.0	-148476.0	109.0	13566.0
9	18	9	6	446	213.0	-148150.0	66.0	14090.0
9	18	9	6	447	214.0	-148296.0	32.0	14261.0
9	18	9	6	448	215.0	-148950.0	-4.0	14341.0
9	18	9	6	448	216.0	-150136.0	-34.0	14421.0
9	18	9	6	449	217.0	-151824.0	-75.0	14279.0
9	18	9	6	449	218.0	-153996.0	-111.0	14651.0
9	18	9	6	450	219.0	-156246.0	-149.0	14976.0
9	18	9	6	450	220.0	-158519.0	-178.0	15009.0
9	18	9	6	451	221.0	-160603.0	-219.0	14424.0
9	18	9	6	451	222.0	-162349.0	-252.0	14749.0
9	18	9	6	452	223.0	-163742.0	-295.0	15071.0
9	18	9	6	452	224.0	-165029.0	-334.0	14889.0
9	18	9	6	453	225.0	-166320.0	-365.0	14876.0
9	18	9	6	454	226.0	-167417.0	-401.0	14848.0
9	18	9	6	454	227.0	-168534.0	-447.0	14759.0
9	18	9	6	455	228.0	-169669.0	-468.0	14750.0
9	18	9	6	455	229.0	-170575.0	-513.0	14747.0
9	18	9	6	456	230.0	-171450.0	-556.0	14649.0
9	18	9	6	456	231.0	-172171.0	-578.0	14424.0
9	18	9	6	457	232.0	-172688.0	-620.0	14335.0
9	18	9	6	467	233.0	-172745.0	-653.0	14372.0
9	18	9	6	468	234.0	-172191.0	-682.0	14312.0
9	18	9	6	469	235.0	-171267.0	-728.0	14217.0
9	18	9	6	469	236.0	-169504.0	-768.0	14405.0
9	18	9	6	470	237.0	-167161.0	-794.0	14274.0
9	18	9	6	470	238.0	-164687.0	-819.0	14349.0
9	18	9	6	471	239.0	-162110.0	-866.0	14632.0
9	18	9	6	491	240.0	-159526.0	-882.0	14771.0
9	18	9	6	491	241.0	-157133.0	-930.0	14608.0
9	18	9	6	492	242.0	-154683.0	-955.0	14373.0
9	18	9	6	492	243.0	-152617.0	-979.0	14003.0
9	18	9	6	493	244.0	-150539.0	-1012.0	14401.0
9	18	9	6	494	245.0	-148153.0	-1067.0	14509.0
9	18	9	6	494	246.0	-145600.0	-1094.0	14151.0
9	18	9	6	495	247.0	-143093.0	-1117.0	14244.0
9	18	9	6	495	248.0	-140484.0	-1142.0	14598.0
9	18	9	6	496	249.0	-137672.0	-1182.0	14751.0
9	18	9	6	496	250.0	-135246.0	-1214.0	15684.0
9	18	9	6	497	251.0	-133165.0	-1240.0	17147.0
9	18	9	6	497	252.0	-131454.0	-1237.0	17735.0
9	18	9	6	498	253.0	-129762.0	-1281.0	18381.0
9	18	9	6	498	254.0	-128479.0	-1325.0	20063.0
9	18	9	6	514	255.0	-127500.0	-1360.0	22684.0
9	18	9	6	514	0.0	-126676.0	-1379.0	25713.0
9	18	9	6	515	1.0	-126041.0	-1421.0	29447.0
9	18	9	6	515	2.0	-125586.0	-1457.0	33812.0
9	18	9	6	516	3.0	-125428.0	-1467.0	38071.0
9	18	9	6	517	4.0	-125648.0	-1508.0	38798.0
9	18	9	6	517	5.0	-126438.0	-1544.0	34754.0
9	18	9	6	536	6.0	-127827.0	-1564.0	28702.0
9	18	9	6	537	7.0	-129686.0	-1581.0	20257.0
9	18	9	6	537	8.0	-132450.0	-1619.0	6628.0
9	18	9	6	538	9.0	-136140.0	-1647.0	-7471.0
9	18	9	6	538	10.0	-140469.0	-1671.0	-19191.0
9	18	9	6	539	11.0	-145372.0	-1711.0	-27023.0
9	18	9	6	539	12.0	-150578.0	-1746.0	-31220.0
9	18	9	6	540	13.0	-155901.0	-1765.0	-33129.0
9	18	9	6	541	14.0	-161192.0	-1781.0	-31663.0
9	18	9	6	541	15.0	-165863.0	-1816.0	-28016.0
9	18	9	6	542	16.0	-169854.0	-1856.0	-23717.0
9	18	9	6	542	17.0	-173523.0	-1871.0	-20002.0
9	18	9	6	543	18.0	-177368.0	-1896.0	-16542.0
9	18	9	6	544	19.0	-181197.0	-1927.0	-14586.0
9	18	9	6	544	20.0	-184614.0	-1955.0	-13605.0
9	18	9	6	545	21.0	-187483.0	-1996.0	-11107.0
9	18	9	6	545	22.0	-189711.0	-2018.0	-7496.0
9	18	9	6	546	23.0	-191346.0	-2052.0	-2782.0
9	18	9	6	546	24.0	-192381.0	-2084.0	119.0
9	18	9	6	558	25.0	-192758.0	-2114.0	1851.0
9	18	9	6	559	26.0	-192899.0	-2149.0	3947.0
9	18	9	6	582	27.0	-193234.0	-2179.0	6589.0
9	18	9	6	582	28.0	-193920.0	-2211.0	9021.0
9	18	9	6	583	29.0	-195218.0	-2243.0	11474.0
9	18	9	6	583	30.0	-197238.0	-2272.0	13242.0
9	18	9	6	584	31.0	-198548.0	-2309.0	13945.0
9	18	9	6	584	32.0	-193917.0	-2342.0	14525.0
9	18	9	6	585	33.0	-182506.0	-2373.0	16016.0
9	18	9	6	610	34.0	-171222.0	-2396.0	17068.0
9	18	9	6	611	35.0	-162248.0	-2416.0	17381.0
9	18	9	6	611	36.0	-154265.0	-2444.0	17518.0
9	18	9	6	631	37.0	-147272.0	-2476.0	18083.0
9	18	9	6	631	38.0	-142302.0	-2519.0	18507.0
9	18	9	6	632	39.0	-138084.0	-2559.0	18765.0
9	18	9	6	633	40.0	-133694.0	-2564.0	18863.0
9	18	9	6	633	41.0	-130677.0	-2595.0	18821.0
9	18	9	6	634	42.0	-131091.0	-2632.0	18839.0
9	18	9	6	634	43.0	-134037.0	-2661.0	19366.0
9	18	9	6	635	44.0	-138601.0	-2671.0	19266.0
9	18	9	6	635	45.0	-142894.0	-2706.0	19477.0
9	18	9	6	636	46.0	-145640.0	-2739.0	19823.0
9	18	9	6	637	47.0	-147339.0	-2773.0	19812.0
9	18	9	6	637	48.0	-149052.0	-2805.0	20141.0
9	18	9	6	638	49.0	-149766.0	-2827.0	20359.0
9	18	9	6	638	57.0	-139719.0	-3080.0	21435.0
9	18	9	6	639	58.0	-138030.0	-3116.0	21962.0
9	18	9	6	639	59.0	-135419.0	-3130.0	21940.0
9	18	9	6	640	60.0	-130897.0	-3149.0	21939.0
9	18	9	6	640	61.0	-124262.0	-3192.0	22195.0
9	18	9	6	641	62.0	-116432.0	-3227.0	22361.0
9	18	9	6	641	63.0	-107762.0	-3248.0	22212.0
9	18	9	6	642	64.0	-98845.0	-3282.0	22438.0
9	18	9	6	643	65.0	-92432.0	-3313.0	22755.0
9	18	9	6	643	66.0	-90273.0	-3344.0	22444.0
9	18	9	6	644	67.0	-91464.0	-3362.0	22449.0
9	18	9	6	644	68.0	-94336.0	-3402.0	22698.0
9	18	9	6	645	69.0	-97596.0	-3427.0	22838.0
9	18	9	6	645	70.0	-100121.0	-3457.0	22813.0
9	18	9	6	646	71.0	-101309.0	-3502.0	23076.0
9	18	9	6	647	72.0	-101212.0	-3529.0	23549.0
9	18	9	6	655	73.0	-100515.0	-3549.0	23681.0
9	18	9	6	656	74.0	-100132.0	-3589.0	23514.0
9	18	9	6	657	75.0	-100759.0	-3622.0	23688.0
9	18	9	6	657	76.0	-102690.0	-3654.0	23990.0
9	18	9	6	658	77.0	-106070.0	-3672.0	23977.0
9	18	9	6	658	78.0	-110485.0	-3722.0	24276.0
9	18	9	6	659	79.0	-115127.0	-3734.0	24470.0
9	18	9	6	659	80.0	-119704.0	-3752.0	24664.0
9	18	9	6	660	81.0	-124198.0	-3799.0	24944.0
9	18	9	6	686	82.0	-128563.0	-3830.0	24989.0
9	18	9	6	687	83.0	-132196.0	-3859.0	25123.0
9	18	9	6	687	84.0	-135297.0	-3907.0	25160.0
9	18	9	6	688	85.0	-137439.0	-3946.0	25463.0
9	18	9	6	688	86.0	-138495.0	-3972.0	25471.0
9	18	9	6	689	87.0	-138586.0	-4001.0	25940.0
9	18	9	6	690	88.0	-138404.0	-4020.0	26028.0
9	18	9	6	690	89.0	-137888.0	-4067.0	26273.0
9	18	9	6	691	90.0	-136720.0	-4100.0	26461.0
9	18	9	6	691	91.0	-135293.0	-4113.0	26879.0
9	18	9	6	692	92.0	-133767.0	-4150.0	26989.0
9	18	9	6	693	93.0	-132172.0	-4180.0	27164.0
9	18	9	6	700	94.0	-131111.0	-4216.0	27695.0
9	18	9	6	701	95.0	-130764.0	-4237.0	28109.0
9	18	9	6	701	96.0	-131879.0	-4269.0	28198.0
9	18	9	6	702	97.0	-133471.0	-4317.0	28186.0
9	18	9	6	703	98.0	-135456.0	-4340.0	28698.0
9	18	9	6	703	99.0	-137362.0	-4370.0	29559.0
9	18	9	6	704	100.0	-139647.0	-4415.0	30077.0
9	18	9	6	704	101.0	-142315.0	-4441.0	29865.0
9	18	9	6	723	102.0	-145032.0	-4464.0	30458.0
9	18	9	6	724	103.0	-148242.0	-4483.0	31220.0
9	18	9	6	724	104.0	-151949.0	-4514.0	31411.0
9	18	9	6	725	105.0	-156149.0	-4530.0	31327.0
9	18	9	6	725	106.0	-160519.0	-4564.0	31891.0
9	18	9	6	726	107.0	-165020.0	-4603.0	32817.0
9	18	9	6	727	108.0	-169446.0	-4634.0	33356.0
9	18	9	6	727	109.0	-173719.0	-4661.0	33600.0
9	18	9	6	728	110.0	-177682.0	-4708.0	34001.0
9	18	9	6	728	111.0	-181162.0	-4721.0	34398.0
9	18	9	6	747	112.0	-184105.0	-4754.0	35005.0
9	18	9	6	748	113.0	-187063.0	-4777.0	35861.0
9	18	9	6	748	114.0	-189869.0	-4805.0	36289.0
9	18	9	6	749	115.0	-192007.0	-4842.0	36854.0
9	18	9	6	749	116.0	-193364.0	-4882.0	37273.0
9	18	9	6	750	117.0	-194171.0	-4910.0	38011.0
9	18	9	6	750	118.0	-194677.0	-4912.0	38203.0
9	18	9	6	770	119.0	-194643.0	-4951.0	38482.0
9	18	9	6	771	120.0	-194222.0	-4990.0	38401.0
9	18	9	6	772	121.0	-193306.0	-5007.0	38886.0
9	18	9	6	772	122.0	-191909.0	-5039.0	39468.0
9	18	9	6	773	123.0	-190102.0	-5072.0	39784.0
9	18	9	6	773	124.0	-188183.0	-5104.0	39824.0
9	18	9	6	774	125.0	-185804.0	-5127.0	40705.0
9	18	9	6	774	126.0	-182705.0	-5141.0	41106.0
9	18	9	6	775	127.0	-179457.0	-5162.0	40780.0
9	18	9	6	776	128.0	-176072.0	-5203.0	40892.0
9	18	9	6	776	129.0	-172152.0	-5223.0	41265.0
9	18	9	6	777	130.0	-167741.0	-5228.0	40938.0
9	18	9	6	777	131.0	-163393.0	-5241.0	41073.0
9	18	9	6	778	132.0	-159180.0	-5250.0	41248.0
9	18	9	6	778	133.0	-154672.0	-5267.0	41532.0
9	18	9	6	779	134.0	-150071.0	-5254.0	41825.0
9	18	9	6	779	135.0	-145934.0	-5254.0	41738.0
9	18	9	6	780	136.0	-142507.0	-5280.0	41330.0
9	18	9	6	781	137.0	-139159.0	-5284.0	41111.0
9	18	9	6	781	138.0	-135541.0	-5282.0	41124.0
9	18	9	6	782	139.0	-131904.0	-5272.0	40379.0
9	18	9	6	793	140.0	-128774.0	-5259.0	39408.0
9	18	9	6	794	141.0	-126025.0	-5249.0	38869.0
9	18	9	6	794	142.0	-123284.0	-5221.0	38290.0
9	18	9	6	795	143.0	-120813.0	-5204.0	37483.0
9	18	9	6	816	144.0	-118947.0	-5178.0	36921.0
9	18	9	6	817	145.0	-117552.0	-5150.0	36391.0
9	18	9	6	818	146.0	-116452.0	-5117.0	35111.0
9	18	9	6	818	147.0	-115524.0	-5087.0	34157.0
9	18	9	6	819	148.0	-114811.0	-5042.0	33293.0
9	18	9	6	819	149.0	-114401.0	-5001.0	32278.0
9	18	9	6	820	150.0	-114429.0	-4944.0	30880.0
9	18	9	6	820	151.0	-114844.0	-4917.0	29534.0
9	18	9	6	821	152.0	-115115.0	-4854.0	28896.0
9	18	9	6	822	153.0	-115658.0	-4789.0	27696.0
9	18	9	6	822	154.0	-116808.0	-4744.0	26865.0
9	18	9	6	823	155.0	-118196.0	-4693.0	25977.0
9	18	9	6	823	156.0	-120054.0	-4604.0	24797.0
9	18	9	6	824	157.0	-122499.0	-4542.0	24051.0
9	18	9	6	824	158.0	-124835.0	-4477.0	23218.0
9	18	9	6	825	159.0	-127300.0	-4404.0	22486.0
9	18	9	6	826	160.0	-129885.0	-4321.0	21866.0
9	18	9	6	839	161.0	-132297.0	-4254.0	20768.0
9	18	9	6	840	162.0	-135109.0	-4199.0	19951.0
9	18	9	6	865	163.0	-138233.0	-4107.0	19500.0
9	18	9	6	865	164.0	-141586.0	-4012.0	19291.0
9	18	9	6	866	165.0	-144763.0	-3925.0	18514.0
9	18	9	6	867	166.0	-147701.0	-3825.0	18545.0
9	18	9	6	867	167.0	-150636.0	-3742.0	18146.0
9	18	9	6	868	168.0	-153242.0	-3657.0	17445.0
9	18	9	6	868	169.0	-155620.0	-3556.0	17053.0
9	18	9	6	869	170.0	-157657.0	-3467.0	17157.0
9	18	9	6	870	171.0	-159444.0	-3354.0	16601.0
9	18	9	6	870	172.0	-161209.0	-3272.0	15874.0
9	18	9	6	871	173.0	-163001.0	-3176.0	16150.0
9	18	9	6	871	174.0	-164551.0	-3079.0	15879.0
9	18	9	6	872	175.0	-165709.0	-2998.0	15570.0
9	18	9	6	872	176.0	-166562.0	-2894.0	15841.0
9	18	9	6	873	177.0	-166814.0	-2798.0	15834.0
9	18	9	6	874	178.0	-166571.0	-2712.0	15269.0
9	18	9	6	875	179.0	-165268.0	-2591.0	15237.0
9	18	9	6	876	180.0	-161564.0	-2486.0	15301.0
9	18	9	6	876	184.0	-128984.0	-2094.0	14658.0
9	18	9	6	877	185.0	-134576.0	-1983.0	14567.0
9	18	9	6	877	186.0	-142310.0	-1882.0	14351.0
9	18	9	6	878	187.0	-157709.0	-1786.0	14478.0
9	18	9	6	887	188.0	-165644.0	-1699.0	14204.0
9	18	9	6	888	189.0	-168787.0	-1602.0	14343.0
9	18	9	6	888	190.0	-171936.0	-1497.0	14362.0
9	18	9	6	889	191.0	-169639.0	-1410.0	14166.0
9	18	9	6	889	192.0	-165713.0	-1317.0	13818.0
9	18	9	6	910	193.0	-165075.0	-1224.0	13856.0
9	18	9	6	911	194.0	-164249.0	-1126.0	14229.0
9	18	9	6	912	195.0	-161497.0	-1047.0	14239.0
9	18	9	6	912	196.0	-157994.0	-960.0	14291.0
9	18	9	6	913	197.0	-154341.0	-867.0	14482.0
9	18	9	6	913	198.0	-152655.0	-791.0	14493.0
9	18	9	6	914	199.0	-152778.0	-704.0	14430.0
9	18	9	6	915	200.0	-152819.0	-624.0	14263.0
9	18	9	6	916	201.0	-152097.0	-551.0	14270.0
9	18	9	6	916	202.0	-151841.0	-485.0	14206.0
9	18	9	6	917	203.0	-151658.0	-415.0	13540.0
9	18	9	6	918	204.0	-150218.0	-338.0	13528.0
9	18	9	6	918	205.0	-148580.0	-259.0	14301.0
9	18	9	6	919	206.0	-148165.0	-192.0	14303.0
9	18	9	6	920	207.0	-149209.0	-121.0	13899.0
9	18	9	6	920	208.0	-150422.0	-52.0	13986.0
9	18	9	6	921	209.0	-151226.0	19.0	14159.0
9	18	9	6	921	210.0	-151828.0	87.0	14006.0
9	18	9	6	922	211.0	-152327.0	135.0	14160.0
9	18	9	6	934	212.0	-152286.0	188.0	13911.0
9	18	9	6	935	213.0	-151885.0	249.0	13600.0
9	18	9	6	958	214.0	-151452.0	319.0	13984.0
9	18	9	6	958	215.0	-150779.0	358.0	13973.0
9	18	9	6	959	216.0	-149873.0	420.0	13549.0
9	18	9	6	960	217.0	-148967.0	478.0	13823.0
9	18	9	6	960	218.0	-148345.0	520.0	14267.0
9	18	9	6	961	219.0	-148101.0	555.0	14180.0
9	18	9	6	961	220.0	-147367.0	605.0	14039.0
9	18	9	6	962	221.0	-146071.0	664.0	14007.0
9	18	9	6	963	222.0	-144642.0	710.0	14144.0
9	18	9	6	963	223.0	-143201.0	745.0	13923.0
9	18	9	6	964	224.0	-141938.0	799.0	13925.0
9	18	9	6	964	225.0	-140827.0	839.0	14164.0
9	18	9	6	965	226.0	-139472.0	873.0	14229.0
9	18	9	6	966	227.0	-137855.0	915.0	14086.0
9	18	9	6	966	228.0	-136478.0	953.0	14161.0
9	18	9	6	967	229.0	-135597.0	983.0	14211.0
9	18	9	6	967	230.0	-135262.0	1037.0	13968.0
9	18	9	6	968	231.0	-135110.0	1063.0	14361.0
9	18	9	6	968	232.0	-135401.0	1082.0	14406.0
9	18	9	6	969	233.0	-136104.0	1118.0	14031.0
9	18	9	6	982	234.0	-137133.0	1147.0	14037.0
9	18	9	6	983	235.0	-138269.0	1169.0	13993.0
9	18	9	6	984	236.0	-139614.0	1186.0	14284.0
9	18	9	7	6	237.0	-141385.0	1218.0	14416.0
9	18	9	7	6	238.0	-143122.0	1243.0	14161.0
9	18	9	7	7	239.0	-145062.0	1279.0	14207.0
9	18	9	7	7	240.0	-147531.0	1299.0	14501.0
9	18	9	7	8	241.0	-150054.0	1323.0	14133.0
9	18	9	7	9	242.0	-152559.0	1353.0	13723.0
9	18	9	7	9	243.0	-155056.0	1363.0	13986.0
9	18	9	7	10	244.0	-157554.0	1398.0	14317.0
9	18	9	7	10	245.0	-159811.0	1414.0	14184.0
9	18	9	7	11	246.0	-161985.0	1421.0	14232.0
9	18	9	7	11	247.0	-164133.0	1445.0	14067.0
9	18	9	7	12	248.0	-166471.0	1452.0	13792.0
9	18	9	7	12	249.0	-169093.0	1466.0	14144.0
9	18	9	7	13	250.0	-171832.0	1472.0	13955.0
9	18	9	7	14	251.0	-174641.0	1493.0	13511.0
9	18	9	7	14	252.0	-177326.0	1494.0	13788.0
9	18	9	7	30	253.0	-179311.0	1491.0	14125.0
9	18	9	7	31	254.0	-180750.0	1499.0	14014.0
9	18	9	7	32	255.0	-181550.0	1514.0	13739.0
9	18	9	7	32	0.0	-181587.0	1518.0	13854.0
9	18	9	7	33	1.0	-181436.0	1529.0	13877.0
9	18	9	7	33	2.0	-181017.0	1516.0	13631.0
9	18	9	7	34	3.0	-179996.0	1513.0	13577.0
9	18	9	7	35	4.0	-178516.0	1513.0	13574.0
9	18	9	7	35	5.0	-176662.0	1511.0	13204.0
9	18	9	7	36	6.0	-174339.0	1514.0	13004.0
9	18	9	7	37	7.0	-172017.0	1514.0	13410.0
9	18	9	7	37	8.0	-169826.0	1523.0	13522.0
9	18	9	7	38	9.0	-167544.0	1513.0	13441.0
9	18	9	7	38	10.0	-165453.0	1502.0	13477.0
9	18	9	7	39	11.0	-164006.0	1508.0	13499.0
9	18	9	7	53	12.0	-162871.0	1498.0	13766.0
9	18	9	7	54	13.0	-162049.0	1494.0	13375.0
9	18	9	7	54	14.0	-161052.0	1499.0	13309.0
9	18	9	7	55	15.0	-160072.0	1489.0	13802.0
9	18	9	7	55	16.0	-159122.0	1466.0	13743.0
9	18	9	7	56	17.0	-158219.0	1494.0	13338.0
9	18	9	7	76	18.0	-157262.0	1489.0	13496.0
9	18	9	7	77	19.0	-156531.0	1467.0	13933.0
9	18	9	7	77	20.0	-156227.0	1453.0	13403.0
9	18	9	7	78	21.0	-156226.0	1454.0	13286.0
9	18	9	7	78	22.0	-156644.0	1451.0	13463.0
9	18	9	7	79	23.0	-157411.0	1439.0	13168.0
9	18	9	7	80	24.0	-158788.0	1443.0	13364.0
9	18	9	7	80	25.0	-160426.0	1438.0	13270.0
9	18	9	7	81	26.0	-162261.0	1429.0	13298.0
9	18	9	7	81	27.0	-163740.0	1411.0	13296.0
9	18	9	7	99	28.0	-165007.0	1421.0	13328.0
9	18	9	7	100	29.0	-165974.0	1416.0	13377.0
9	18	9	7	100	30.0	-167498.0	1399.0	13236.0
9	18	9	7	101	31.0	-169216.0	1388.0	13503.0
9	18	9	7	102	32.0	-170186.0	1373.0	13668.0
9	18	9	7	102	33.0	-170971.0	1363.0	13485.0
9	18	9	7	104	34.0	-171907.0	1351.0	13525.0
9	18	9	7	105	35.0	-172381.0	1351.0	13335.0
9	18	9	7	106	36.0	-172833.0	1362.0	13090.0
9	18	9	7	106	37.0	-173927.0	1348.0	13039.0
9	18	9	7	107	38.0	-174701.0	1332.0	13051.0
9	18	9	7	108	39.0	-175528.0	1329.0	13151.0
9	18	9	7	108	40.0	-176010.0	1328.0	13087.0
9	18	9	7	109	41.0	-176950.0	1325.0	13040.0
9	18	9	7	110	42.0	-177844.0	1308.0	12910.0
9	18	9	7	110	43.0	-178649.0	1306.0	13085.0
9	18	9	7	111	44.0	-179804.0	1319.0	13274.0
9	18	9	7	111	45.0	-180941.0	1304.0	13066.0
9	18	9	7	112	46.0	-182111.0	1284.0	12993.0
9	18	9	7	137	47.0	-183094.0	1283.0	12973.0
9	18	9	7	138	48.0	-183731.0	1293.0	13078.0
9	18	9	7	139	49.0	-183786.0	1289.0	13409.0
9	18	9	7	140	50.0	-183590.0	1290.0	13808.0
9	18	9	7	141	51.0	-182853.0	1292.0	13393.0
9	18	9	7	141	52.0	-181947.0	1281.0	13172.0
9	18	9	7	142	53.0	-180734.0	1265.0	13688.0
9	18	9	7	143	54.0	-179179.0	1241.0	13842.0
9	18	9	7	143	55.0	-177557.0	1248.0	13213.0
9	18	9	7	144	56.0	-176347.0	1244.0	13028.0
9	18	9	7	145	57.0	-175101.0	1239.0	13292.0
9	18	9	7	145	58.0	-173767.0	1234.0	13231.0
9	18	9	7	146	59.0	-172807.0	1242.0	13323.0
9	18	9	7	147	60.0	-172223.0	1225.0	13404.0
9	18	9	7	147	61.0	-171996.0	1224.0	13156.0
9	18	9	7	148	62.0	-171568.0	1192.0	13065.0
9	18	9	7	148	63.0	-171446.0	1190.0	13473.0
9	18	9	7	149	64.0	-171684.0	1184.0	13446.0
9	18	9	7	165	65.0	-171703.0	1190.0	12895.0
9	18	9	7	166	66.0	-171711.0	1178.0	13048.0
9	18	9	7	167	67.0	-171507.0	1177.0	13086.0
9	18	9	7	167	68.0	-171072.0	1169.0	13329.0
9	18	9	7	168	69.0	-170659.0	1167.0	13325.0
9	18	9	7	169	70.0	-170342.0	1145.0	13469.0
9	18	9	7	169	71.0	-169912.0	1151.0	13584.0
9	18	9	7	170	72.0	-169267.0	1146.0	13539.0
9	18	9	7	171	73.0	-168502.0	1133.0	13500.0
9	18	9	7	172	74.0	-167699.0	1113.0	13571.0
9	18	9	7	172	75.0	-166793.0	1096.0	13523.0
9	18	9	7	173	76.0	-165813.0	1096.0	13531.0
9	18	9	7	173	77.0	-164626.0	1089.0	13796.0
9	18	9	7	174	78.0	-163226.0	1081.0	13623.0
9	18	9	7	184	79.0	-161821.0	1062.0	13433.0
9	18	9	7	185	80.0	-160431.0	1048.0	13786.0
9	18	9	7	186	81.0	-159337.0	1033.0	13883.0
9	18	9	7	186	82.0	-158410.0	1044.0	13829.0
9	18	9	7	187	83.0	-157396.0	1026.0	14124.0
9	18	9	7	187	84.0	-156400.0	989.0	13997.0
9	18	9	7	188	85.0	-155434.0	978.0	13831.0
9	18	9	7	189	86.0	-154025.0	964.0	13538.0
9	18	9	7	189	87.0	-152594.0	951.0	13404.0
9	18	9	7	214	88.0	-151474.0	933.0	13525.0
9	18	9	7	217	89.0	-150381.0	917.0	13802.0
9	18	9	7	219	90.0	-149564.0	885.0	13608.0
9	18	9	7	220	91.0	-148882.0	871.0	13598.0
9	18	9	7	221	92.0	-148634.0	856.0	14053.0
9	18	9	7	222	93.0	-148964.0	844.0	13946.0
9	18	9	7	222	94.0	-149466.0	811.0	13953.0
9	18	9	7	223	95.0	-150269.0	803.0	14554.0
9	18	9	7	224	96.0	-151139.0	791.0	14163.0
9	18	9	7	224	97.0	-151924.0	757.0	13619.0
9	18	9	7	225	98.0	-152789.0	729.0	14134.0
9	18	9	7	225	99.0	-153642.0	732.0	14325.0
9	18	9	7	226	100.0	-154688.0	699.0	13562.0
9	18	9	7	226	101.0	-156022.0	676.0	13643.0
9	18	9	7	227	102.0	-157585.0	655.0	13663.0
9	18	9	7	227	103.0	-159062.0	646.0	13721.0
9	18	9	7	228	104.0	-160322.0	610.0	13833.0
9	18	9	7	229	105.0	-161383.0	592.0	13740.0
9	18	9	7	229	106.0	-162269.0	554.0	13997.0
9	18	9	7	230	107.0	-163145.0	545.0	13789.0
9	18	9	7	240	108.0	-164053.0	526.0	14002.0
9	18	9	7	241	109.0	-164535.0	493.0	13881.0
9	18	9	7	242	110.0	-164941.0	478.0	13620.0
9	18	9	7	242	111.0	-165116.0	451.0	14029.0
9	18	9	7	243	112.0	-164750.0	431.0	14277.0
9	18	9	7	243	113.0	-164379.0	404.0	14269.0
9	18	9	7	244	114.0	-163684.0	396.0	13934.0
9	18	9	7	244	115.0	-162978.0	356.0	13856.0
9	18	9	7	245	116.0	-162271.0	334.0	14172.0
9	18	9	7	246	117.0	-161317.0	311.0	13982.0
9	18	9	7	261	118.0	-160415.0	277.0	13908.0
9	18	9	7	261	119.0	-159575.0	234.0	13939.0
9	18	9	7	262	120.0	-158799.0	212.0	14143.0
9	18	9	7	263	121.0	-158595.0	185.0	14058.0
9	18	9	7	263	122.0	-158582.0	166.0	13798.0
9	18	9	7	264	123.0	-158786.0	134.0	13909.0
9	18	9	7	284	124.0	-159004.0	99.0	14368.0
9	18	9	7	285	125.0	-159259.0	81.0	14668.0
9	18	9	7	285	126.0	-159643.0	61.0	14418.0
9	18	9	7	286	127.0	-160109.0	26.0	14214.0
9	18	9	7	286	128.0	-160181.0	1.0	14199.0
9	18	9	7	287	129.0	-160130.0	-27.0	14263.0
9	18	9	7	287	130.0	-159946.0	-52.0	14585.0
9	18	9	7	288	131.0	-160141.0	-96.0	14522.0
9	18	9	7	289	132.0	-160702.0	-115.0	13971.0
9	18	9	7	307	133.0	-161542.0	-161.0	14187.0
9	18	9	7	307	134.0	-162168.0	-191.0	14291.0
9	18	9	7	308	135.0	-162699.0	-212.0	14034.0
9	18	9	7	309	136.0	-163616.0	-242.0	14258.0
9	18	9	7	309	137.0	-164677.0	-284.0	14644.0
9	18	9	7	310	138.0	-165654.0	-301.0	14635.0
9	18	9	7	310	139.0	-166157.0	-329.0	14607.0
9	18	9	7	311	140.0	-166359.0	-369.0	14543.0
9	18	9	7	311	141.0	-166534.0	-384.0	14431.0
9	18	9	7	312	142.0	-166656.0	-416.0	14173.0
9	18	9	7	313	143.0	-166576.0	-456.0	14206.0
9	18	9	7	313	144.0	-166197.0	-490.0	14144.0
9	18	9	7	314	145.0	-165821.0	-513.0	13758.0
9	18	9	7	314	146.0	-165304.0	-541.0	13879.0
9	18	9	7	315	147.0	-164257.0	-577.0	14095.0
9	18	9	7	315	148.0	-163149.0	-602.0	14244.0
9	18	9	7	316	149.0	-162243.0	-642.0	14078.0
9	18	9	7	316	150.0	-161109.0	-658.0	14241.0
9	18	9	7	317	151.0	-160477.0	-697.0	14328.0
9	18	9	7	318	152.0	-160144.0	-736.0	14217.0
9	18	9	7	330	153.0	-159889.0	-775.0	13983.0
9	18	9	7	330	154.0	-159594.0	-794.0	13946.0
9	18	9	7	353	155.0	-159767.0	-829.0	13834.0
9	18	9	7	353	156.0	-160331.0	-869.0	14081.0
9	18	9	7	354	157.0	-160878.0	-901.0	14270.0
9	18	9	7	355	158.0	-161359.0	-929.0	14469.0
9	18	9	7	355	159.0	-161692.0	-947.0	14499.0
9	18	9	7	356	160.0	-161602.0	-997.0	14564.0
9	18	9	7	356	161.0	-161132.0	-1026.0	14519.0
9	18	9	7	357	162.0	-160428.0	-1067.0	14239.0
9	18	9	7	357	163.0	-159302.0	-1109.0	14178.0
9	18	9	7	358	164.0	-158070.0	-1124.0	14023.0
9	18	9	7	358	165.0	-156597.0	-1159.0	13968.0
9	18	9	7	359	166.0	-154979.0	-1201.0	13673.0
9	18	9	7	360	167.0	-154004.0	-1239.0	13420.0
9	18	9	7	361	168.0	-154187.0	-1271.0	13951.0
9	18	9	7	361	169.0	-155347.0	-1296.0	14529.0
9	18	9	7	362	170.0	-157053.0	-1325.0	14081.0
9	18	9	7	363	171.0	-159294.0	-1361.0	13911.0
9	18	9	7	363	172.0	-161683.0	-1387.0	14101.0
9	18	9	7	364	173.0	-163640.0	-1435.0	14046.0
9	18	9	7	364	174.0	-165119.0	-1455.0	13904.0
9	18	9	7	365	175.0	-166476.0	-1487.0	13943.0
9	18	9	7	378	176.0	-167287.0	-1523.0	13548.0
9	18	9	7	402	177.0	-167684.0	-1556.0	13306.0
9	18	9	7	402	178.0	-168032.0	-1580.0	13383.0
9	18	9	7	426	179.0	-168081.0	-1616.0	13405.0
9	18	9	7	426	180.0	-167678.0	-1646.0	13361.0
9	18	9	7	427	181.0	-167026.0	-1669.0	13188.0
9	18	9	7	427	182.0	-166195.0	-1728.0	13106.0
9	18	9	7	428	183.0	-165296.0	-1769.0	13105.0
9	18	9	7	429	184.0	-164631.0	-1772.0	13259.0
9	18	9	7	429	185.0	-164219.0	-1797.0	13236.0
9	18	9	7	430	186.0	-164219.0	-1837.0	13177.0
9	18	9	7	430	187.0	-164775.0	-1857.0	13634.0
9	18	9	7	431	188.0	-165705.0	-1880.0	13913.0
9	18	9	7	431	189.0	-167385.0	-1919.0	13842.0
9	18	9	7	432	190.0	-169488.0	-1966.0	14263.0
9	18	9	7	433	191.0	-171697.0	-2007.0	14388.0
9	18	9	7	433	192.0	-173673.0	-2023.0	14078.0
9	18	9	7	434	193.0	-175181.0	-2045.0	14433.0
9	18	9	7	434	194.0	-176119.0	-2070.0	14244.0
9	18	9	7	435	206.0	-171191.0	-2451.0	14498.0
9	18	9	7	435	207.0	-171771.0	-2481.0	14535.0
9	18	9	7	436	208.0	-172460.0	-2514.0	14464.0
9	18	9	7	450	209.0	-173639.0	-2557.0	14512.0
9	18	9	7	451	210.0	-175162.0	-2573.0	14649.0
9	18	9	7	451	211.0	-177116.0	-2584.0	14584.0
9	18	9	7	452	212.0	-179191.0	-2611.0	14361.0
9	18	9	7	472	213.0	-181491.0	-2638.0	14672.0
9	18	9	7	472	214.0	-183584.0	-2703.0	14523.0
9	18	9	7	473	215.0	-185841.0	-2724.0	14443.0
9	18	9	7	474	216.0	-187671.0	-2754.0	14504.0
9	18	9	7	474	217.0	-188839.0	-2804.0	14543.0
9	18	9	7	475	218.0	-189580.0	-2822.0	14675.0
9	18	9	7	475	219.0	-189540.0	-2848.0	14743.0
9	18	9	7	476	220.0	-189124.0	-2895.0	14966.0
9	18	9	7	476	221.0	-188331.0	-2932.0	15046.0
9	18	9	7	495	222.0	-187351.0	-2938.0	15042.0
9	18	9	7	495	223.0	-186419.0	-2966.0	15007.0
9	18	9	7	496	224.0	-185192.0	-2990.0	15772.0
9	18	9	7	496	225.0	-183616.0	-3041.0	16806.0
9	18	9	7	497	226.0	-182269.0	-3068.0	17951.0
9	18	9	7	497	227.0	-180694.0	-3094.0	19002.0
9	18	9	7	498	228.0	-178904.0	-3124.0	20825.0
9	18	9	7	498	229.0	-177306.0	-3137.0	23732.0
9	18	9	7	499	230.0	-175954.0	-3156.0	26601.0
9	18	9	7	517	231.0	-174408.0	-3201.0	29409.0
9	18	9	7	518	232.0	-173078.0	-3221.0	33740.0
9	18	9	7	518	233.0	-171717.0	-3247.0	38257.0
9	18	9	7	519	234.0	-170424.0	-3291.0	37746.0
9	18	9	7	520	235.0	-169584.0	-3317.0	33984.0
9	18	9	7	520	236.0	-169761.0	-3345.0	28381.0
9	18	9	7	521	237.0	-170884.0	-3366.0	21263.0
9	18	9	7	521	238.0	-172549.0	-3388.0	9973.0
9	18	9	7	522	239.0	-174651.0	-3425.0	-2846.0
9	18	9	7	522	240.0	-177062.0	-3453.0	-14126.0
9	18	9	7	523	241.0	-179909.0	-3488.0	-21344.0
9	18	9	7	523	242.0	-182764.0	-3511.0	-24031.0
9	18	9	7	524	243.0	-185137.0	-3530.0	-23838.0
9	18	9	7	525	244.0	-187245.0	-3568.0	-23301.0
9	18	9	7	525	245.0	-189339.0	-3608.0	-20007.0
9	18	9	7	526	246.0	-191432.0	-3609.0	-15895.0
9	18	9	7	526	250.0	-201817.0	-3717.0	-8981.0
9	18	9	7	527	251.0	-203188.0	-3751.0	-8788.0
9	18	9	7	527	252.0	-204407.0	-3794.0	-6084.0
