9	17	54	13	537	17.0	-149624.0	-6971.0	4167.0
9	17	54	13	539	18.0	-137364.0	-7009.0	3794.0
9	17	54	13	541	19.0	-126524.0	-7038.0	4086.0
9	17	54	13	543	20.0	-118642.0	-7097.0	4310.0
9	17	54	13	545	21.0	-113861.0	-7151.0	4318.0
9	17	54	13	560	22.0	-111564.0	-7196.0	4064.0
9	17	54	13	561	23.0	-110712.0	-7233.0	4220.0
9	17	54	13	562	24.0	-111179.0	-7286.0	4146.0
9	17	54	13	562	25.0	-113046.0	-7322.0	4116.0
9	17	54	13	563	26.0	-116145.0	-7363.0	4257.0
9	17	54	13	564	27.0	-120152.0	-7403.0	3918.0
9	17	54	13	564	28.0	-125335.0	-7456.0	3545.0
9	17	54	13	565	29.0	-130776.0	-7496.0	3511.0
9	17	54	13	565	30.0	-135560.0	-7546.0	3479.0
9	17	54	13	566	31.0	-140153.0	-7592.0	3440.0
9	17	54	13	567	32.0	-144803.0	-7640.0	3654.0
9	17	54	13	567	33.0	-149361.0	-7674.0	3658.0
9	17	54	13	568	34.0	-153354.0	-7711.0	3067.0
9	17	54	13	568	35.0	-156262.0	-7763.0	2328.0
9	17	54	13	569	36.0	-158656.0	-7792.0	2422.0
9	17	54	13	591	37.0	-160749.0	-7840.0	2811.0
9	17	54	13	592	38.0	-163139.0	-7889.0	2766.0
9	17	54	13	592	39.0	-165266.0	-7911.0	2846.0
9	17	54	13	617	40.0	-166757.0	-7964.0	2550.0
9	17	54	13	647	41.0	-167864.0	-8037.0	2633.0
9	17	54	13	648	42.0	-168722.0	-8100.0	2438.0
9	17	54	13	649	43.0	-169213.0	-8122.0	2234.0
9	17	54	13	650	44.0	-168840.0	-8158.0	2198.0
9	17	54	13	650	45.0	-168399.0	-8197.0	1972.0
9	17	54	13	651	46.0	-167974.0	-8235.0	1717.0
9	17	54	13	652	47.0	-168199.0	-8281.0	1834.0
9	17	54	13	652	48.0	-168418.0	-8323.0	1851.0
9	17	54	13	653	49.0	-168537.0	-8362.0	1498.0
9	17	54	13	653	50.0	-168279.0	-8404.0	1369.0
9	17	54	13	654	51.0	-167941.0	-8451.0	1298.0
9	17	54	13	654	52.0	-167051.0	-8495.0	994.0
9	17	54	13	655	53.0	-165820.0	-8540.0	1154.0
9	17	54	13	656	54.0	-163841.0	-8592.0	1064.0
9	17	54	13	656	55.0	-161574.0	-8629.0	946.0
9	17	54	13	657	77.0	-176071.0	-9111.0	-4049.0
9	17	54	13	657	78.0	-178240.0	-9087.0	-4304.0
9	17	54	13	658	79.0	-180071.0	-9091.0	-4454.0
9	17	54	13	658	80.0	-181671.0	-9059.0	-5081.0
9	17	54	13	659	81.0	-182624.0	-9042.0	-4797.0
9	17	54	13	659	82.0	-183782.0	-9019.0	-4157.0
9	17	54	13	692	83.0	-184620.0	-8978.0	-4332.0
9	17	54	13	737	84.0	-185732.0	-8928.0	-4090.0
9	17	54	13	738	85.0	-186286.0	-8876.0	-3701.0
9	17	54	13	738	86.0	-186713.0	-8828.0	-4116.0
9	17	54	13	739	87.0	-186710.0	-8766.0	-4439.0
9	17	54	13	739	88.0	-185745.0	-8711.0	-4001.0
9	17	54	13	740	89.0	-184625.0	-8643.0	-3541.0
9	17	54	13	740	90.0	-183013.0	-8569.0	-3511.0
9	17	54	13	741	91.0	-181419.0	-8489.0	-3140.0
9	17	54	13	783	92.0	-179249.0	-8398.0	-2526.0
9	17	54	13	784	93.0	-177059.0	-8307.0	-2457.0
9	17	54	13	784	94.0	-174355.0	-8216.0	-1864.0
9	17	54	13	785	95.0	-171584.0	-8099.0	-1147.0
9	17	54	13	785	96.0	-168714.0	-7986.0	-969.0
9	17	54	13	786	97.0	-166424.0	-7869.0	-692.0
9	17	54	13	787	99.0	-162027.0	-7614.0	123.0
9	17	54	13	787	122.0	-162141.0	-3889.0	5570.0
9	17	54	13	788	123.0	-166178.0	-3728.0	5877.0
9	17	54	13	788	124.0	-169692.0	-3566.0	5553.0
9	17	54	13	789	125.0	-172962.0	-3411.0	5433.0
9	17	54	13	789	126.0	-176255.0	-3263.0	5339.0
9	17	54	13	790	127.0	-179780.0	-3126.0	5059.0
9	17	54	13	790	128.0	-183312.0	-2982.0	4731.0
9	17	54	13	791	129.0	-186380.0	-2839.0	5006.0
9	17	54	13	799	130.0	-189039.0	-2726.0	5385.0
9	17	54	13	800	144.0	-168848.0	-1149.0	5328.0
9	17	54	13	801	145.0	-169613.0	-1065.0	5166.0
9	17	54	13	801	146.0	-173934.0	-971.0	4693.0
9	17	54	13	802	147.0	-179401.0	-872.0	4776.0
9	17	54	13	802	148.0	-179884.0	-795.0	4805.0
9	17	54	13	803	149.0	-178147.0	-734.0	4699.0
9	17	54	13	803	150.0	-174986.0	-645.0	5003.0
9	17	54	13	827	151.0	-171642.0	-566.0	5115.0
9	17	54	13	828	152.0	-169755.0	-499.0	5364.0
9	17	54	13	828	153.0	-166884.0	-398.0	5613.0
9	17	54	13	829	154.0	-163491.0	-325.0	5318.0
9	17	54	13	829	155.0	-160290.0	-263.0	5051.0
9	17	54	13	830	156.0	-158255.0	-202.0	5249.0
9	17	54	13	830	157.0	-157342.0	-118.0	5365.0
9	17	54	13	831	158.0	-158776.0	-45.0	4956.0
9	17	54	13	832	159.0	-162704.0	26.0	4584.0
9	17	54	13	832	160.0	-168109.0	81.0	4776.0
9	17	54	13	833	161.0	-173434.0	150.0	4514.0
9	17	54	13	834	162.0	-176586.0	215.0	4738.0
9	17	54	13	834	163.0	-178193.0	293.0	5596.0
9	17	54	13	835	164.0	-177717.0	358.0	5719.0
9	17	54	13	835	165.0	-176807.0	434.0	5438.0
9	17	54	13	836	167.0	-173720.0	544.0	5464.0
9	17	54	13	836	168.0	-171522.0	608.0	5114.0
9	17	54	13	837	169.0	-168987.0	672.0	5011.0
9	17	54	13	838	170.0	-165876.0	734.0	4988.0
9	17	54	13	838	171.0	-162884.0	774.0	4805.0
9	17	54	13	839	172.0	-161640.0	837.0	4946.0
9	17	54	13	872	173.0	-161368.0	900.0	5279.0
9	17	54	13	873	174.0	-162616.0	968.0	5051.0
9	17	54	13	873	175.0	-164098.0	1001.0	5572.0
9	17	54	13	897	176.0	-166503.0	1052.0	5188.0
9	17	54	13	897	177.0	-169103.0	1140.0	4757.0
9	17	54	13	898	178.0	-171258.0	1183.0	5086.0
9	17	54	13	899	179.0	-172387.0	1219.0	4742.0
9	17	54	13	899	180.0	-172599.0	1253.0	4741.0
9	17	54	13	900	181.0	-172835.0	1306.0	5056.0
9	17	54	13	900	182.0	-172899.0	1366.0	5354.0
9	17	54	13	901	183.0	-173021.0	1403.0	5432.0
9	17	54	13	901	184.0	-172601.0	1444.0	5352.0
9	17	54	13	902	185.0	-172186.0	1485.0	5368.0
9	17	54	13	902	186.0	-171564.0	1531.0	5201.0
9	17	54	13	903	187.0	-170894.0	1565.0	5598.0
9	17	54	13	903	189.0	-169790.0	1639.0	5525.0
9	17	54	13	904	190.0	-169578.0	1667.0	5668.0
9	17	54	13	904	191.0	-168846.0	1695.0	6198.0
9	17	54	13	905	192.0	-168007.0	1738.0	6551.0
9	17	54	13	906	193.0	-166652.0	1756.0	6318.0
9	17	54	13	906	194.0	-164758.0	1776.0	6349.0
9	17	54	13	920	195.0	-162286.0	1792.0	6351.0
9	17	54	13	921	196.0	-160341.0	1821.0	5918.0
9	17	54	13	922	197.0	-158412.0	1843.0	6335.0
9	17	54	13	922	198.0	-156577.0	1848.0	6730.0
9	17	54	13	923	199.0	-154857.0	1868.0	6429.0
9	17	54	13	923	200.0	-153669.0	1891.0	6373.0
9	17	54	13	924	201.0	-152863.0	1900.0	6944.0
9	17	54	13	925	202.0	-151886.0	1910.0	6713.0
9	17	54	13	925	203.0	-151428.0	1917.0	6435.0
9	17	54	13	926	204.0	-151507.0	1926.0	7092.0
9	17	54	13	926	205.0	-152562.0	1935.0	7529.0
9	17	54	13	927	206.0	-153972.0	1951.0	7481.0
9	17	54	13	928	207.0	-155862.0	1958.0	7441.0
9	17	54	13	928	208.0	-158032.0	1963.0	7259.0
9	17	54	13	929	209.0	-160466.0	1944.0	7133.0
9	17	54	13	929	211.0	-165881.0	1943.0	7031.0
9	17	54	13	930	212.0	-168242.0	1947.0	7359.0
9	17	54	13	930	213.0	-170234.0	1944.0	7395.0
9	17	54	13	931	214.0	-171921.0	1937.0	7108.0
9	17	54	13	931	215.0	-173504.0	1932.0	7053.0
9	17	54	13	932	216.0	-175054.0	1932.0	7096.0
9	17	54	13	933	217.0	-176579.0	1945.0	6772.0
9	17	54	13	962	218.0	-177048.0	1950.0	6746.0
9	17	54	13	963	219.0	-176906.0	1938.0	6982.0
9	17	54	13	964	220.0	-175903.0	1924.0	7469.0
9	17	54	13	964	221.0	-174270.0	1938.0	7689.0
9	17	54	13	965	222.0	-172154.0	1921.0	7943.0
9	17	54	13	966	223.0	-169349.0	1904.0	8194.0
9	17	54	13	967	224.0	-166341.0	1910.0	7937.0
9	17	54	13	967	225.0	-162681.0	1922.0	8205.0
9	17	54	13	968	226.0	-158372.0	1893.0	8139.0
9	17	54	13	968	227.0	-153527.0	1901.0	7654.0
9	17	54	13	969	228.0	-148891.0	1893.0	7869.0
9	17	54	13	970	229.0	-144261.0	1893.0	8066.0
9	17	54	13	970	230.0	-139944.0	1879.0	8057.0
9	17	54	13	971	231.0	-136217.0	1881.0	8396.0
9	17	54	13	971	232.0	-133036.0	1864.0	8969.0
9	17	54	13	972	234.0	-127864.0	1845.0	8623.0
9	17	54	13	973	235.0	-126178.0	1834.0	8543.0
9	17	54	13	973	236.0	-125091.0	1836.0	8508.0
9	17	54	13	974	237.0	-124666.0	1843.0	8455.0
9	17	54	13	974	238.0	-124495.0	1849.0	8446.0
9	17	54	13	975	239.0	-124476.0	1836.0	8114.0
9	17	54	14	7	240.0	-124793.0	1829.0	8330.0
9	17	54	14	8	241.0	-124893.0	1828.0	8543.0
9	17	54	14	8	242.0	-124980.0	1809.0	8637.0
9	17	54	14	9	243.0	-124912.0	1811.0	8806.0
9	17	54	14	9	244.0	-124866.0	1814.0	8531.0
9	17	54	14	10	245.0	-124845.0	1815.0	8424.0
9	17	54	14	11	246.0	-125208.0	1814.0	8420.0
9	17	54	14	11	247.0	-125814.0	1806.0	8428.0
9	17	54	14	12	248.0	-126950.0	1787.0	8310.0
9	17	54	14	12	249.0	-128704.0	1788.0	8256.0
9	17	54	14	13	250.0	-130946.0	1776.0	8803.0
9	17	54	14	14	251.0	-134151.0	1767.0	8881.0
9	17	54	14	14	252.0	-137779.0	1764.0	8802.0
9	17	54	14	15	253.0	-141396.0	1747.0	9064.0
9	17	54	14	15	254.0	-144249.0	1728.0	8924.0
9	17	54	14	16	0.0	-151812.0	1719.0	8452.0
9	17	54	14	17	1.0	-155525.0	1683.0	9058.0
9	17	54	14	17	2.0	-158876.0	1668.0	8935.0
9	17	54	14	18	3.0	-161904.0	1653.0	8929.0
9	17	54	14	18	4.0	-165095.0	1617.0	9476.0
9	17	54	14	19	5.0	-167744.0	1613.0	9667.0
9	17	54	14	19	6.0	-170849.0	1602.0	9419.0
9	17	54	14	53	7.0	-174332.0	1573.0	9550.0
9	17	54	14	54	8.0	-178504.0	1545.0	9422.0
9	17	54	14	54	9.0	-183241.0	1531.0	9387.0
9	17	54	14	55	10.0	-188286.0	1523.0	9476.0
9	17	54	14	55	11.0	-193217.0	1499.0	9311.0
9	17	54	14	56	12.0	-198087.0	1459.0	9374.0
9	17	54	14	57	13.0	-203136.0	1443.0	9484.0
9	17	54	14	57	14.0	-208091.0	1428.0	9938.0
9	17	54	14	58	15.0	-213461.0	1390.0	10004.0
9	17	54	14	58	16.0	-219204.0	1372.0	10235.0
9	17	54	14	59	17.0	-225887.0	1342.0	10166.0
9	17	54	14	60	18.0	-233048.0	1309.0	10270.0
9	17	54	14	60	19.0	-240354.0	1279.0	10239.0
9	17	54	14	61	20.0	-247312.0	1250.0	9956.0
9	17	54	14	61	21.0	-253277.0	1241.0	10008.0
9	17	54	14	62	23.0	-261063.0	1178.0	9112.0
9	17	54	14	98	24.0	-262046.0	1141.0	9447.0
9	17	54	14	98	25.0	-260451.0	1084.0	9881.0
9	17	54	14	99	26.0	-257146.0	1060.0	9938.0
9	17	54	14	100	27.0	-252522.0	1024.0	9648.0
9	17	54	14	100	28.0	-246732.0	979.0	9694.0
9	17	54	14	101	29.0	-239972.0	942.0	9453.0
9	17	54	14	101	30.0	-232296.0	917.0	9404.0
9	17	54	14	102	31.0	-223626.0	884.0	9911.0
9	17	54	14	103	32.0	-214188.0	848.0	10033.0
9	17	54	14	103	33.0	-203943.0	814.0	9746.0
9	17	54	14	104	34.0	-193245.0	786.0	10254.0
9	17	54	14	104	35.0	-182284.0	731.0	10789.0
9	17	54	14	105	36.0	-171161.0	696.0	10609.0
9	17	54	14	106	37.0	-160663.0	659.0	10410.0
9	17	54	14	106	38.0	-150466.0	618.0	10374.0
9	17	54	14	107	45.0	-109592.0	301.0	10323.0
9	17	54	14	107	46.0	-107349.0	255.0	10517.0
9	17	54	14	108	47.0	-105996.0	221.0	11240.0
9	17	54	14	109	48.0	-105767.0	174.0	11130.0
9	17	54	14	109	49.0	-106277.0	135.0	11284.0
9	17	54	14	110	50.0	-108106.0	82.0	11332.0
9	17	54	14	110	51.0	-111584.0	33.0	11109.0
9	17	54	14	142	52.0	-116434.0	2.0	11096.0
9	17	54	14	143	53.0	-122244.0	-52.0	11243.0
9	17	54	14	143	54.0	-128574.0	-112.0	11218.0
9	17	54	14	144	55.0	-135414.0	-166.0	10982.0
9	17	54	14	144	56.0	-141982.0	-210.0	11222.0
9	17	54	14	145	57.0	-149001.0	-252.0	11478.0
9	17	54	14	146	58.0	-156677.0	-309.0	11436.0
9	17	54	14	146	59.0	-164917.0	-360.0	11328.0
9	17	54	14	147	60.0	-172906.0	-392.0	11391.0
9	17	54	14	147	61.0	-180106.0	-452.0	11454.0
9	17	54	14	148	62.0	-186739.0	-505.0	11949.0
9	17	54	14	149	63.0	-192679.0	-566.0	12296.0
9	17	54	14	149	64.0	-197994.0	-622.0	11929.0
9	17	54	14	150	65.0	-202249.0	-667.0	12031.0
9	17	54	14	151	66.0	-205494.0	-709.0	12753.0
9	17	54	14	151	68.0	-209673.0	-821.0	11870.0
9	17	54	14	152	69.0	-209484.0	-866.0	12220.0
9	17	54	14	152	70.0	-208156.0	-921.0	11940.0
9	17	54	14	153	71.0	-206104.0	-986.0	11827.0
9	17	54	14	154	72.0	-203745.0	-1033.0	12029.0
9	17	54	14	154	73.0	-200737.0	-1097.0	12145.0
9	17	54	14	187	74.0	-196739.0	-1155.0	12295.0
9	17	54	14	188	75.0	-192302.0	-1199.0	12428.0
9	17	54	14	188	76.0	-187087.0	-1269.0	12441.0
9	17	54	14	189	77.0	-181011.0	-1306.0	12468.0
9	17	54	14	190	78.0	-174196.0	-1355.0	12228.0
9	17	54	14	190	79.0	-166767.0	-1396.0	11536.0
9	17	54	14	191	80.0	-158804.0	-1455.0	11237.0
9	17	54	14	191	81.0	-151437.0	-1510.0	11134.0
9	17	54	14	192	82.0	-145046.0	-1561.0	11316.0
9	17	54	14	193	83.0	-140315.0	-1614.0	11685.0
9	17	54	14	193	84.0	-136597.0	-1671.0	11698.0
9	17	54	14	194	85.0	-133607.0	-1732.0	11636.0
9	17	54	14	194	86.0	-131524.0	-1781.0	11618.0
9	17	54	14	195	87.0	-130394.0	-1839.0	11361.0
9	17	54	14	196	88.0	-130151.0	-1892.0	11135.0
9	17	54	14	196	90.0	-132619.0	-1977.0	10943.0
9	17	54	14	197	91.0	-134689.0	-2030.0	11093.0
9	17	54	14	198	92.0	-137160.0	-2078.0	11034.0
9	17	54	14	199	93.0	-140086.0	-2139.0	10776.0
9	17	54	14	199	94.0	-143433.0	-2207.0	11241.0
9	17	54	14	200	95.0	-147758.0	-2243.0	11959.0
9	17	54	14	200	96.0	-152881.0	-2292.0	12113.0
9	17	54	14	232	97.0	-158684.0	-2356.0	12353.0
9	17	54	14	244	98.0	-164322.0	-2386.0	12619.0
9	17	54	14	245	99.0	-168971.0	-2429.0	11994.0
9	17	54	14	245	100.0	-172706.0	-2493.0	11766.0
9	17	54	14	246	101.0	-175677.0	-2551.0	11788.0
9	17	54	14	246	102.0	-178144.0	-2602.0	11709.0
9	17	54	14	247	103.0	-180261.0	-2647.0	12072.0
9	17	54	14	248	104.0	-181767.0	-2704.0	12504.0
9	17	54	14	248	105.0	-182632.0	-2741.0	12474.0
9	17	54	14	249	106.0	-182922.0	-2789.0	12646.0
9	17	54	14	249	107.0	-182226.0	-2827.0	12814.0
9	17	54	14	250	108.0	-180719.0	-2884.0	12578.0
9	17	54	14	251	109.0	-179021.0	-2931.0	12191.0
9	17	54	14	251	110.0	-177046.0	-2974.0	12083.0
9	17	54	14	252	111.0	-175223.0	-3037.0	12157.0
9	17	54	14	252	113.0	-171579.0	-3139.0	12704.0
9	17	54	14	253	114.0	-170076.0	-3182.0	12906.0
9	17	54	14	253	115.0	-168425.0	-3247.0	12823.0
9	17	54	14	254	116.0	-166416.0	-3294.0	13034.0
9	17	54	14	255	117.0	-163983.0	-3340.0	12949.0
9	17	54	14	255	118.0	-161893.0	-3375.0	12429.0
9	17	54	14	277	119.0	-159631.0	-3414.0	12186.0
9	17	54	14	278	120.0	-157521.0	-3469.0	12246.0
9	17	54	14	279	121.0	-155262.0	-3526.0	12373.0
9	17	54	14	279	122.0	-153269.0	-3597.0	12350.0
9	17	54	14	280	123.0	-152385.0	-3647.0	11914.0
9	17	54	14	281	124.0	-151561.0	-3691.0	12210.0
9	17	54	14	281	125.0	-150986.0	-3734.0	12621.0
9	17	54	14	282	126.0	-150596.0	-3765.0	12860.0
9	17	54	14	283	127.0	-150436.0	-3827.0	12796.0
9	17	54	14	283	128.0	-150642.0	-3890.0	12882.0
9	17	54	14	284	129.0	-150574.0	-3941.0	13338.0
9	17	54	14	285	130.0	-150272.0	-3972.0	13432.0
9	17	54	14	285	131.0	-149632.0	-4022.0	14172.0
9	17	54	14	286	132.0	-149146.0	-4079.0	14889.0
9	17	54	14	287	133.0	-149074.0	-4135.0	15470.0
9	17	54	14	287	135.0	-149632.0	-4225.0	16183.0
9	17	54	14	288	136.0	-150243.0	-4269.0	14789.0
9	17	54	14	289	137.0	-150991.0	-4321.0	12322.0
9	17	54	14	289	138.0	-151916.0	-4354.0	8820.0
9	17	54	14	290	139.0	-152847.0	-4403.0	3761.0
9	17	54	14	290	140.0	-153906.0	-4443.0	-2101.0
9	17	54	14	291	141.0	-154894.0	-4491.0	-6303.0
9	17	54	14	323	142.0	-155177.0	-4555.0	-10542.0
9	17	54	14	324	143.0	-155311.0	-4604.0	-16794.0
9	17	54	14	324	144.0	-154569.0	-4636.0	-23017.0
9	17	54	14	325	145.0	-153547.0	-4685.0	-28766.0
9	17	54	14	326	146.0	-152248.0	-4719.0	-33679.0
9	17	54	14	327	147.0	-150627.0	-4774.0	-37675.0
9	17	54	14	327	148.0	-148949.0	-4833.0	-41111.0
9	17	54	14	328	149.0	-147123.0	-4862.0	-42981.0
9	17	54	14	329	150.0	-145802.0	-4897.0	-40271.0
9	17	54	14	329	151.0	-144696.0	-4970.0	-33666.0
9	17	54	14	330	152.0	-143807.0	-5016.0	-26848.0
9	17	54	14	331	153.0	-143401.0	-5047.0	-17424.0
9	17	54	14	331	154.0	-143373.0	-5086.0	-5017.0
9	17	54	14	332	155.0	-143655.0	-5139.0	5273.0
9	17	54	14	332	156.0	-144412.0	-5184.0	8760.0
9	17	54	14	333	158.0	-148717.0	-5271.0	9506.0
9	17	54	14	334	159.0	-152116.0	-5316.0	9442.0
9	17	54	14	343	160.0	-156370.0	-5369.0	8979.0
9	17	54	14	344	161.0	-161318.0	-5420.0	8738.0
9	17	54	14	345	162.0	-166922.0	-5464.0	8618.0
9	17	54	14	345	163.0	-173324.0	-5505.0	8799.0
9	17	54	14	369	164.0	-179779.0	-5559.0	8758.0
9	17	54	14	369	165.0	-184457.0	-5588.0	9169.0
9	17	54	14	370	166.0	-181689.0	-5644.0	9294.0
9	17	54	14	371	167.0	-171856.0	-5687.0	9376.0
9	17	54	14	371	168.0	-160359.0	-5731.0	9276.0
9	17	54	14	372	169.0	-150038.0	-5777.0	9729.0
9	17	54	14	372	170.0	-145785.0	-5819.0	9951.0
9	17	54	14	373	171.0	-147620.0	-5867.0	10275.0
9	17	54	14	374	172.0	-154004.0	-5919.0	10565.0
9	17	54	14	374	173.0	-162585.0	-5965.0	10458.0
9	17	54	14	375	174.0	-172076.0	-6015.0	10405.0
9	17	54	14	376	175.0	-182190.0	-6069.0	10948.0
9	17	54	14	376	176.0	-191558.0	-6112.0	11165.0
9	17	54	14	377	177.0	-199023.0	-6147.0	10772.0
9	17	54	14	378	178.0	-202839.0	-6207.0	10840.0
9	17	54	14	378	180.0	-200542.0	-6297.0	10926.0
9	17	54	14	379	181.0	-195680.0	-6347.0	11204.0
9	17	54	14	379	182.0	-188779.0	-6414.0	11032.0
9	17	54	14	380	183.0	-181661.0	-6464.0	11358.0
9	17	54	14	381	184.0	-177534.0	-6510.0	11532.0
9	17	54	14	381	185.0	-176909.0	-6566.0	11507.0
9	17	54	14	412	186.0	-178371.0	-6604.0	11642.0
9	17	54	14	413	187.0	-179499.0	-6661.0	11288.0
9	17	54	14	426	188.0	-178543.0	-6701.0	10967.0
9	17	54	14	427	189.0	-174542.0	-6738.0	11039.0
9	17	54	14	428	190.0	-168394.0	-6776.0	10773.0
9	17	54	14	428	191.0	-162670.0	-6820.0	10765.0
9	17	54	14	429	192.0	-158686.0	-6860.0	10599.0
9	17	54	14	429	193.0	-156961.0	-6912.0	10757.0
9	17	54	14	430	194.0	-155924.0	-6964.0	10542.0
9	17	54	14	431	195.0	-153188.0	-7009.0	10069.0
9	17	54	14	431	196.0	-147658.0	-7077.0	10665.0
9	17	54	14	432	197.0	-139211.0	-7112.0	11678.0
9	17	54	14	432	198.0	-129919.0	-7139.0	11421.0
9	17	54	14	433	199.0	-121671.0	-7191.0	11028.0
9	17	54	14	433	200.0	-116374.0	-7244.0	11344.0
9	17	54	14	434	202.0	-116468.0	-7335.0	11058.0
9	17	54	14	435	203.0	-119541.0	-7373.0	11299.0
9	17	54	14	435	204.0	-123046.0	-7407.0	10921.0
9	17	54	14	436	205.0	-127023.0	-7472.0	10661.0
9	17	54	14	436	206.0	-130937.0	-7504.0	10704.0
9	17	54	14	437	207.0	-134501.0	-7554.0	10943.0
9	17	54	14	458	208.0	-138054.0	-7608.0	10701.0
9	17	54	14	459	209.0	-140882.0	-7641.0	10171.0
9	17	54	14	460	210.0	-143504.0	-7698.0	10310.0
9	17	54	14	460	211.0	-145208.0	-7740.0	10279.0
9	17	54	14	461	212.0	-146426.0	-7791.0	10422.0
9	17	54	14	462	213.0	-147566.0	-7831.0	10389.0
9	17	54	14	463	214.0	-148559.0	-7881.0	10511.0
9	17	54	14	463	215.0	-149644.0	-7921.0	10351.0
9	17	54	14	464	216.0	-150472.0	-7974.0	10161.0
9	17	54	14	465	217.0	-151207.0	-8025.0	10095.0
9	17	54	14	465	218.0	-152010.0	-8066.0	9853.0
9	17	54	14	466	219.0	-153494.0	-8124.0	9776.0
9	17	54	14	467	220.0	-155077.0	-8167.0	9421.0
9	17	54	14	467	221.0	-156401.0	-8180.0	9198.0
9	17	54	14	468	222.0	-157396.0	-8233.0	9072.0
9	17	54	14	469	225.0	-157118.0	-8379.0	9264.0
9	17	54	14	469	226.0	-155987.0	-8430.0	8707.0
9	17	54	14	470	227.0	-154375.0	-8476.0	8504.0
9	17	54	14	471	228.0	-152589.0	-8526.0	8898.0
9	17	54	14	471	229.0	-150749.0	-8561.0	8447.0
9	17	54	14	472	230.0	-148314.0	-8609.0	7939.0
9	17	54	14	502	231.0	-146521.0	-8659.0	8007.0
9	17	54	14	503	232.0	-144797.0	-8707.0	7964.0
9	17	54	14	503	233.0	-143611.0	-8749.0	7878.0
9	17	54	14	504	234.0	-143176.0	-8802.0	7811.0
9	17	54	14	505	235.0	-143294.0	-8854.0	7873.0
9	17	54	14	505	236.0	-144043.0	-8882.0	7377.0
9	17	54	14	506	237.0	-144933.0	-8911.0	7318.0
9	17	54	14	506	238.0	-146313.0	-8954.0	7173.0
9	17	54	14	507	239.0	-147259.0	-8992.0	6788.0
9	17	54	14	508	240.0	-148101.0	-9057.0	6337.0
9	17	54	14	508	241.0	-149172.0	-9104.0	6530.0
9	17	54	14	509	242.0	-150305.0	-9119.0	6552.0
9	17	54	14	510	243.0	-151950.0	-9164.0	6320.0
9	17	54	14	510	244.0	-153749.0	-9207.0	5997.0
9	17	54	14	511	245.0	-155995.0	-9234.0	6037.0
9	17	54	14	512	247.0	-159915.0	-9279.0	6506.0
9	17	54	14	512	248.0	-161597.0	-9309.0	6240.0
9	17	54	14	513	249.0	-162848.0	-9327.0	5801.0
9	17	54	14	513	250.0	-164078.0	-9344.0	5545.0
9	17	54	14	514	251.0	-164868.0	-9381.0	5418.0
9	17	54	14	515	252.0	-165832.0	-9408.0	5411.0
9	17	54	14	515	253.0	-166812.0	-9409.0	5515.0
9	17	54	14	547	254.0	-167510.0	-9411.0	5171.0
9	17	54	14	548	255.0	-168228.0	-9402.0	4499.0
9	17	54	14	549	0.0	-168802.0	-9403.0	4853.0
9	17	54	14	549	1.0	-169687.0	-9384.0	4440.0
9	17	54	14	550	2.0	-170509.0	-9347.0	4133.0
9	17	54	14	551	3.0	-171286.0	-9336.0	4241.0
9	17	54	14	551	4.0	-171230.0	-9316.0	3946.0
9	17	54	14	552	5.0	-170085.0	-9295.0	3716.0
9	17	54	14	552	6.0	-169250.0	-9254.0	3822.0
9	17	54	14	553	7.0	-168411.0	-9232.0	4004.0
9	17	54	14	554	8.0	-168381.0	-9189.0	4052.0
9	17	54	14	554	9.0	-167942.0	-9128.0	4432.0
9	17	54	14	555	10.0	-167309.0	-9070.0	4459.0
9	17	54	14	556	11.0	-167016.0	-8997.0	4316.0
9	17	54	14	556	12.0	-166427.0	-8916.0	4554.0
9	17	54	14	557	14.0	-163395.0	-8761.0	5186.0
9	17	54	14	557	15.0	-161581.0	-8656.0	5646.0
9	17	54	14	558	16.0	-159346.0	-8564.0	6156.0
9	17	54	14	559	17.0	-157082.0	-8477.0	6788.0
9	17	54	14	559	18.0	-155099.0	-8366.0	7189.0
9	17	54	14	560	19.0	-153412.0	-8242.0	7998.0
9	17	54	14	593	20.0	-151941.0	-8126.0	8231.0
9	17	54	14	593	21.0	-150276.0	-8001.0	8559.0
9	17	54	14	594	22.0	-149318.0	-7857.0	9211.0
9	17	54	14	595	23.0	-148340.0	-7707.0	9660.0
9	17	54	14	596	24.0	-147289.0	-7562.0	9838.0
9	17	54	14	596	25.0	-146627.0	-7403.0	10233.0
9	17	54	14	597	26.0	-145821.0	-7259.0	10723.0
9	17	54	14	597	27.0	-145305.0	-7114.0	11231.0
9	17	54	14	598	28.0	-145005.0	-6939.0	11864.0
9	17	54	14	599	29.0	-144801.0	-6777.0	12237.0
9	17	54	14	599	30.0	-144986.0	-6607.0	12411.0
9	17	54	14	600	31.0	-145111.0	-6431.0	12627.0
9	17	54	14	601	32.0	-145193.0	-6261.0	12532.0
9	17	54	14	601	33.0	-145143.0	-6096.0	12802.0
9	17	54	14	602	34.0	-144972.0	-5902.0	13263.0
9	17	54	14	603	36.0	-145241.0	-5569.0	13772.0
9	17	54	14	603	37.0	-145470.0	-5386.0	14267.0
9	17	54	14	604	38.0	-145968.0	-5223.0	14450.0
9	17	54	14	604	39.0	-146735.0	-5048.0	14388.0
9	17	54	14	605	40.0	-147348.0	-4865.0	14869.0
9	17	54	14	605	41.0	-147967.0	-4704.0	14801.0
9	17	54	14	606	42.0	-148542.0	-4553.0	14308.0
9	17	54	14	637	43.0	-149619.0	-4371.0	13884.0
9	17	54	14	638	44.0	-151158.0	-4209.0	14383.0
9	17	54	14	639	45.0	-152792.0	-4054.0	15182.0
9	17	54	14	639	46.0	-154419.0	-3907.0	15421.0
9	17	54	14	640	47.0	-155597.0	-3761.0	15853.0
9	17	54	14	641	48.0	-156814.0	-3629.0	16358.0
9	17	54	14	641	49.0	-157800.0	-3466.0	15948.0
9	17	54	14	642	50.0	-158591.0	-3305.0	16064.0
9	17	54	14	643	51.0	-159347.0	-3161.0	15936.0
9	17	54	14	643	52.0	-160167.0	-3031.0	15586.0
9	17	54	14	644	53.0	-160984.0	-2882.0	15532.0
9	17	54	14	645	54.0	-161942.0	-2755.0	15438.0
9	17	54	14	645	55.0	-162309.0	-2637.0	15349.0
9	17	54	14	646	56.0	-162631.0	-2521.0	15768.0
9	17	54	14	647	57.0	-163318.0	-2404.0	15837.0
9	17	54	14	647	59.0	-165410.0	-2152.0	16173.0
9	17	54	14	648	60.0	-166667.0	-2031.0	16170.0
9	17	54	14	649	61.0	-168490.0	-1936.0	16048.0
9	17	54	14	649	62.0	-170069.0	-1837.0	15871.0
9	17	54	14	650	63.0	-170836.0	-1739.0	15826.0
9	17	54	14	650	64.0	-169852.0	-1634.0	15596.0
9	17	54	14	684	65.0	-167934.0	-1539.0	15913.0
9	17	54	14	685	66.0	-167559.0	-1454.0	16232.0
9	17	54	14	686	67.0	-168089.0	-1356.0	16301.0
9	17	54	14	686	68.0	-171065.0	-1272.0	16569.0
9	17	54	14	687	69.0	-177131.0	-1194.0	16674.0
9	17	54	14	688	70.0	-182785.0	-1099.0	16538.0
9	17	54	14	689	71.0	-183271.0	-1022.0	16597.0
9	17	54	14	689	72.0	-181725.0	-939.0	16903.0
9	17	54	14	690	73.0	-179650.0	-857.0	16342.0
9	17	54	14	691	74.0	-176214.0	-780.0	16163.0
9	17	54	14	691	75.0	-173067.0	-691.0	16409.0
9	17	54	14	692	76.0	-170161.0	-637.0	16568.0
9	17	54	14	693	77.0	-167966.0	-551.0	16503.0
9	17	54	14	693	78.0	-167404.0	-477.0	16751.0
9	17	54	14	694	79.0	-166749.0	-414.0	17329.0
9	17	54	14	696	81.0	-171841.0	-282.0	17319.0
9	17	54	14	696	82.0	-176443.0	-206.0	17553.0
9	17	54	14	697	83.0	-181451.0	-128.0	17209.0
9	17	54	14	728	84.0	-184694.0	-46.0	17163.0
9	17	54	14	729	85.0	-186016.0	-8.0	17278.0
9	17	54	14	729	86.0	-185474.0	54.0	17446.0
9	17	54	14	730	87.0	-182935.0	110.0	17669.0
9	17	54	14	730	88.0	-179902.0	168.0	17836.0
9	17	54	14	731	89.0	-176369.0	235.0	18029.0
9	17	54	14	732	90.0	-172614.0	301.0	18416.0
9	17	54	14	732	91.0	-169107.0	373.0	18663.0
9	17	54	14	733	92.0	-164776.0	442.0	18270.0
9	17	54	14	733	93.0	-160330.0	501.0	18084.0
9	17	54	14	734	94.0	-156227.0	552.0	18118.0
9	17	54	14	734	95.0	-152371.0	623.0	18187.0
9	17	54	14	735	96.0	-150531.0	693.0	18405.0
9	17	54	14	735	97.0	-150704.0	753.0	18213.0
9	17	54	14	736	98.0	-151993.0	804.0	18218.0
9	17	54	14	772	104.0	-169761.0	1109.0	19817.0
9	17	54	14	772	105.0	-172458.0	1165.0	19983.0
9	17	54	14	773	106.0	-175011.0	1195.0	20399.0
9	17	54	14	773	107.0	-177506.0	1241.0	20325.0
9	17	54	14	774	108.0	-179642.0	1281.0	20624.0
9	17	54	14	775	109.0	-181412.0	1313.0	20788.0
9	17	54	14	775	110.0	-183039.0	1366.0	20419.0
9	17	54	14	776	111.0	-184227.0	1410.0	20033.0
9	17	54	14	776	112.0	-184986.0	1429.0	20584.0
9	17	54	14	777	113.0	-185648.0	1462.0	20661.0
9	17	54	14	777	114.0	-185731.0	1482.0	20408.0
9	17	54	14	778	115.0	-185392.0	1503.0	20348.0
9	17	54	14	778	116.0	-185092.0	1512.0	20814.0
9	17	54	14	779	117.0	-184335.0	1552.0	21299.0
9	17	54	14	780	118.0	-183010.0	1578.0	21734.0
9	17	54	14	780	119.0	-181911.0	1590.0	22013.0
9	17	54	14	781	126.0	-167479.0	1675.0	23079.0
9	17	54	14	781	127.0	-166137.0	1682.0	23186.0
9	17	54	14	782	128.0	-165425.0	1692.0	23160.0
9	17	54	14	782	129.0	-164744.0	1693.0	23271.0
9	17	54	14	783	130.0	-164194.0	1716.0	23073.0
9	17	54	14	783	131.0	-164101.0	1719.0	23248.0
9	17	54	14	791	132.0	-164402.0	1716.0	23162.0
9	17	54	14	816	133.0	-165002.0	1714.0	23298.0
9	17	54	14	817	134.0	-166484.0	1729.0	23540.0
9	17	54	14	817	135.0	-168527.0	1716.0	23529.0
9	17	54	14	818	136.0	-171179.0	1704.0	23680.0
9	17	54	14	819	137.0	-173657.0	1711.0	24537.0
9	17	54	14	819	138.0	-175831.0	1708.0	24830.0
9	17	54	14	820	139.0	-178024.0	1704.0	24509.0
9	17	54	14	820	140.0	-179601.0	1708.0	25018.0
9	17	54	14	821	141.0	-180745.0	1711.0	25036.0
9	17	54	14	839	142.0	-181411.0	1701.0	24777.0
9	17	54	14	840	143.0	-181721.0	1714.0	24683.0
9	17	54	14	841	144.0	-182055.0	1716.0	24768.0
9	17	54	14	841	145.0	-181765.0	1703.0	24448.0
9	17	54	14	842	146.0	-181550.0	1717.0	24171.0
9	17	54	14	842	147.0	-181404.0	1713.0	23991.0
9	17	54	14	843	149.0	-180083.0	1693.0	24614.0
9	17	54	14	843	150.0	-179117.0	1706.0	24454.0
9	17	54	14	844	151.0	-178298.0	1705.0	24303.0
9	17	54	14	844	152.0	-176780.0	1707.0	23906.0
9	17	54	14	845	153.0	-174774.0	1694.0	23829.0
9	17	54	14	845	154.0	-173094.0	1704.0	23683.0
9	17	54	14	863	155.0	-171095.0	1703.0	23521.0
9	17	54	14	863	156.0	-169517.0	1702.0	23664.0
9	17	54	14	864	157.0	-167882.0	1695.0	23371.0
9	17	54	14	865	158.0	-166913.0	1685.0	23193.0
9	17	54	14	865	159.0	-166872.0	1681.0	23014.0
9	17	54	14	866	160.0	-166667.0	1683.0	23088.0
9	17	54	14	866	161.0	-166070.0	1682.0	22804.0
9	17	54	14	867	162.0	-165479.0	1652.0	22585.0
9	17	54	14	867	163.0	-164651.0	1665.0	22397.0
9	17	54	14	868	164.0	-163671.0	1659.0	22289.0
9	17	54	14	869	165.0	-162613.0	1634.0	22604.0
9	17	54	14	869	166.0	-161543.0	1648.0	22196.0
9	17	54	14	870	167.0	-160564.0	1636.0	21698.0
9	17	54	14	870	168.0	-159366.0	1630.0	21774.0
9	17	54	14	871	169.0	-157704.0	1621.0	21585.0
9	17	54	14	871	171.0	-154305.0	1608.0	21471.0
9	17	54	14	872	172.0	-153084.0	1613.0	21326.0
9	17	54	14	873	173.0	-152082.0	1599.0	20774.0
9	17	54	14	873	174.0	-151369.0	1588.0	20715.0
9	17	54	14	874	175.0	-151156.0	1555.0	21193.0
9	17	54	14	874	176.0	-151846.0	1553.0	21162.0
9	17	54	14	907	177.0	-153439.0	1548.0	20826.0
9	17	54	14	908	178.0	-155354.0	1538.0	21339.0
9	17	54	14	909	179.0	-157439.0	1515.0	21224.0
9	17	54	14	909	180.0	-159308.0	1493.0	20676.0
9	17	54	14	910	181.0	-161105.0	1492.0	20468.0
9	17	54	14	910	182.0	-163114.0	1498.0	20251.0
9	17	54	14	911	183.0	-165245.0	1485.0	19907.0
9	17	54	14	912	184.0	-166788.0	1456.0	20172.0
9	17	54	14	912	185.0	-167702.0	1436.0	20271.0
9	17	54	14	913	186.0	-168452.0	1408.0	20389.0
9	17	54	14	913	187.0	-169455.0	1381.0	20379.0
9	17	54	14	914	188.0	-169915.0	1376.0	20532.0
9	17	54	14	914	189.0	-169990.0	1368.0	20386.0
9	17	54	14	915	190.0	-170009.0	1349.0	19944.0
9	17	54	14	916	191.0	-170007.0	1336.0	19621.0
9	17	54	14	953	193.0	-170040.0	1273.0	19090.0
9	17	54	14	954	194.0	-170290.0	1248.0	18976.0
9	17	54	14	954	195.0	-170864.0	1216.0	19085.0
9	17	54	14	955	196.0	-171642.0	1181.0	19153.0
9	17	54	14	956	197.0	-172607.0	1148.0	18840.0
9	17	54	14	957	198.0	-173314.0	1123.0	18527.0
9	17	54	14	958	199.0	-173542.0	1105.0	18706.0
9	17	54	14	959	200.0	-173557.0	1080.0	18904.0
9	17	54	14	960	201.0	-173750.0	1054.0	18431.0
9	17	54	14	960	202.0	-174033.0	991.0	18348.0
9	17	54	14	961	203.0	-174126.0	946.0	18625.0
9	17	54	14	961	204.0	-174246.0	920.0	18163.0
9	17	54	14	962	205.0	-174604.0	902.0	18164.0
9	17	54	14	963	206.0	-174744.0	867.0	18573.0
9	17	54	14	963	207.0	-175370.0	833.0	18462.0
9	17	54	14	964	208.0	-176110.0	788.0	18420.0
9	17	54	14	964	216.0	-190114.0	493.0	18279.0
9	17	54	14	965	217.0	-191101.0	445.0	18074.0
9	17	54	14	965	218.0	-191663.0	414.0	17623.0
9	17	54	14	966	219.0	-191627.0	379.0	17489.0
9	17	54	14	967	220.0	-191620.0	328.0	17274.0
9	17	54	14	967	221.0	-191139.0	291.0	16888.0
9	17	54	14	968	222.0	-190757.0	256.0	16879.0
9	17	54	14	998	223.0	-190179.0	203.0	16975.0
9	17	54	14	999	224.0	-188932.0	162.0	17008.0
9	17	54	15	0	225.0	-187257.0	121.0	16678.0
9	17	54	15	0	226.0	-184911.0	68.0	16826.0
9	17	54	15	1	227.0	-181938.0	33.0	16913.0
9	17	54	15	2	228.0	-179856.0	-16.0	16748.0
9	17	54	15	2	229.0	-177918.0	-84.0	16659.0
9	17	54	15	3	230.0	-176457.0	-114.0	16781.0
9	17	54	15	3	231.0	-175336.0	-147.0	16532.0
9	17	54	15	4	232.0	-174744.0	-204.0	16178.0
9	17	54	15	5	233.0	-174849.0	-246.0	16396.0
9	17	54	15	5	234.0	-175456.0	-294.0	16354.0
9	17	54	15	6	235.0	-176421.0	-354.0	16428.0
9	17	54	15	6	236.0	-177414.0	-406.0	16500.0
9	17	54	15	7	237.0	-177099.0	-470.0	16514.0
9	17	54	15	7	238.0	-176315.0	-501.0	16425.0
9	17	54	15	8	239.0	-174510.0	-533.0	16106.0
9	17	54	15	9	240.0	-172277.0	-595.0	15997.0
9	17	54	15	9	241.0	-169234.0	-644.0	15704.0
9	17	54	15	10	242.0	-166024.0	-694.0	15223.0
9	17	54	15	10	243.0	-163449.0	-738.0	15466.0
9	17	54	15	11	244.0	-161152.0	-779.0	15275.0
9	17	54	15	43	245.0	-159396.0	-824.0	15028.0
9	17	54	15	87	246.0	-158061.0	-876.0	15258.0
9	17	54	15	88	247.0	-157155.0	-941.0	15118.0
9	17	54	15	88	248.0	-156661.0	-987.0	15418.0
9	17	54	15	89	249.0	-156794.0	-1024.0	15575.0
9	17	54	15	90	250.0	-156732.0	-1071.0	15909.0
9	17	54	15	90	251.0	-156628.0	-1146.0	15568.0
9	17	54	15	91	252.0	-156401.0	-1178.0	15369.0
9	17	54	15	91	253.0	-155782.0	-1234.0	15503.0
9	17	54	15	92	254.0	-155149.0	-1276.0	15242.0
9	17	54	15	93	255.0	-154716.0	-1331.0	14936.0
9	17	54	15	93	0.0	-154708.0	-1388.0	14971.0
9	17	54	15	94	1.0	-154905.0	-1429.0	14843.0
9	17	54	15	94	2.0	-155376.0	-1483.0	14703.0
9	17	54	15	95	3.0	-156261.0	-1552.0	14318.0
9	17	54	15	95	5.0	-157578.0	-1629.0	14130.0
9	17	54	15	96	27.0	-184546.0	-2729.0	14250.0
9	17	54	15	97	28.0	-185796.0	-2770.0	14173.0
9	17	54	15	97	29.0	-186766.0	-2823.0	14031.0
9	17	54	15	98	30.0	-186971.0	-2873.0	13851.0
9	17	54	15	98	31.0	-186629.0	-2929.0	13897.0
9	17	54	15	99	32.0	-185559.0	-2991.0	14064.0
9	17	54	15	107	33.0	-184532.0	-3037.0	13528.0
9	17	54	15	132	34.0	-183255.0	-3077.0	13576.0
9	17	54	15	133	35.0	-181241.0	-3125.0	13543.0
9	17	54	15	133	36.0	-178692.0	-3170.0	13350.0
9	17	54	15	134	37.0	-175444.0	-3234.0	13368.0
9	17	54	15	134	38.0	-172216.0	-3279.0	13509.0
9	17	54	15	135	39.0	-169094.0	-3322.0	13726.0
9	17	54	15	136	40.0	-166017.0	-3375.0	14099.0
9	17	54	15	136	41.0	-163397.0	-3409.0	13831.0
9	17	54	15	137	42.0	-160324.0	-3439.0	13626.0
9	17	54	15	137	43.0	-157216.0	-3479.0	14321.0
9	17	54	15	138	44.0	-153640.0	-3537.0	15277.0
9	17	54	15	139	45.0	-149969.0	-3589.0	15583.0
9	17	54	15	139	46.0	-147231.0	-3639.0	16459.0
9	17	54	15	140	47.0	-144504.0	-3672.0	16986.0
9	17	54	15	140	48.0	-142072.0	-3715.0	16900.0
9	17	54	15	141	50.0	-140008.0	-3827.0	14529.0
9	17	54	15	142	51.0	-139517.0	-3871.0	10770.0
9	17	54	15	142	52.0	-138937.0	-3912.0	6088.0
9	17	54	15	143	53.0	-139038.0	-3946.0	747.0
9	17	54	15	143	54.0	-139074.0	-3978.0	-4542.0
9	17	54	15	144	55.0	-139923.0	-4051.0	-8931.0
9	17	54	15	177	56.0	-140934.0	-4077.0	-14280.0
9	17	54	15	178	57.0	-142139.0	-4132.0	-20326.0
9	17	54	15	179	58.0	-143609.0	-4192.0	-26610.0
9	17	54	15	179	59.0	-145464.0	-4251.0	-32244.0
9	17	54	15	180	60.0	-147084.0	-4286.0	-36446.0
9	17	54	15	180	61.0	-149162.0	-4319.0	-40441.0
9	17	54	15	181	62.0	-151397.0	-4362.0	-42616.0
9	17	54	15	182	63.0	-153422.0	-4414.0	-40756.0
9	17	54	15	182	64.0	-155949.0	-4455.0	-34488.0
9	17	54	15	191	65.0	-158055.0	-4487.0	-27918.0
9	17	54	15	191	66.0	-159894.0	-4541.0	-19412.0
9	17	54	15	192	67.0	-161264.0	-4587.0	-7028.0
9	17	54	15	192	68.0	-162697.0	-4632.0	4600.0
9	17	54	15	193	69.0	-164086.0	-4681.0	8704.0
9	17	54	15	193	70.0	-165179.0	-4730.0	10311.0
9	17	54	15	194	72.0	-167766.0	-4815.0	10271.0
9	17	54	15	195	73.0	-169519.0	-4846.0	9620.0
9	17	54	15	195	74.0	-171037.0	-4893.0	9321.0
9	17	54	15	196	75.0	-172561.0	-4933.0	9268.0
9	17	54	15	196	76.0	-173211.0	-4977.0	8976.0
9	17	54	15	197	77.0	-174135.0	-5029.0	9103.0
9	17	54	15	197	78.0	-174714.0	-5063.0	9065.0
9	17	54	15	223	79.0	-173584.0	-5119.0	8873.0
9	17	54	15	224	80.0	-166681.0	-5177.0	9354.0
9	17	54	15	225	81.0	-152549.0	-5225.0	10219.0
9	17	54	15	225	82.0	-136195.0	-5261.0	10459.0
9	17	54	15	226	83.0	-120696.0	-5304.0	10245.0
9	17	54	15	227	84.0	-110288.0	-5353.0	10413.0
9	17	54	15	227	85.0	-106772.0	-5396.0	10219.0
9	17	54	15	228	86.0	-109821.0	-5440.0	10337.0
9	17	54	15	228	87.0	-116896.0	-5493.0	10708.0
9	17	54	15	229	88.0	-126115.0	-5542.0	10905.0
9	17	54	15	230	89.0	-136291.0	-5593.0	10599.0
9	17	54	15	230	90.0	-146809.0	-5639.0	10837.0
9	17	54	15	231	91.0	-155892.0	-5676.0	11054.0
9	17	54	15	232	92.0	-161817.0	-5715.0	10424.0
9	17	54	15	232	93.0	-164835.0	-5757.0	10196.0
9	17	54	15	233	95.0	-164809.0	-5879.0	10994.0
9	17	54	15	234	96.0	-163246.0	-5920.0	10732.0
9	17	54	15	234	97.0	-162257.0	-5956.0	10678.0
9	17	54	15	235	98.0	-164036.0	-6001.0	10639.0
9	17	54	15	235	99.0	-169171.0	-6063.0	10701.0
9	17	54	15	236	100.0	-176670.0	-6114.0	10923.0
9	17	54	15	266	101.0	-183035.0	-6174.0	10926.0
9	17	54	15	267	102.0	-186388.0	-6219.0	10748.0
9	17	54	15	268	103.0	-187206.0	-6257.0	10586.0
9	17	54	15	268	104.0	-185984.0	-6292.0	10113.0
9	17	54	15	269	105.0	-185479.0	-6343.0	9872.0
9	17	54	15	269	106.0	-187128.0	-6392.0	10132.0
9	17	54	15	270	107.0	-190566.0	-6449.0	10116.0
9	17	54	15	271	108.0	-192997.0	-6512.0	9814.0
9	17	54	15	271	109.0	-191516.0	-6551.0	10278.0
9	17	54	15	272	110.0	-185905.0	-6609.0	10426.0
9	17	54	15	272	111.0	-177872.0	-6645.0	10119.0
9	17	54	15	273	112.0	-169383.0	-6678.0	10459.0
9	17	54	15	274	113.0	-162403.0	-6734.0	9881.0
9	17	54	15	274	114.0	-157905.0	-6794.0	9499.0
9	17	54	15	275	115.0	-155606.0	-6839.0	9629.0
9	17	54	15	276	117.0	-154433.0	-6924.0	9240.0
9	17	54	15	276	118.0	-153746.0	-6987.0	9608.0
9	17	54	15	277	119.0	-152484.0	-7031.0	9668.0
9	17	54	15	277	120.0	-150981.0	-7090.0	9499.0
9	17	54	15	278	121.0	-149410.0	-7136.0	9726.0
9	17	54	15	279	122.0	-147610.0	-7187.0	9723.0
9	17	54	15	279	123.0	-145925.0	-7231.0	9034.0
9	17	54	15	312	124.0	-143863.0	-7260.0	7813.0
9	17	54	15	313	125.0	-141836.0	-7292.0	7719.0
9	17	54	15	314	126.0	-139790.0	-7361.0	7708.0
9	17	54	15	314	127.0	-137544.0	-7400.0	7507.0
9	17	54	15	315	128.0	-135378.0	-7461.0	7667.0
9	17	54	15	315	129.0	-133750.0	-7498.0	7915.0
9	17	54	15	316	130.0	-132831.0	-7534.0	7824.0
9	17	54	15	317	131.0	-132386.0	-7594.0	7588.0
9	17	54	15	317	132.0	-132332.0	-7638.0	7229.0
9	17	54	15	318	133.0	-132564.0	-7681.0	6931.0
9	17	54	15	318	134.0	-132731.0	-7734.0	6623.0
9	17	54	15	319	135.0	-132684.0	-7766.0	6216.0
9	17	54	15	320	136.0	-132693.0	-7815.0	6236.0
9	17	54	15	320	137.0	-132719.0	-7868.0	6250.0
9	17	54	15	321	138.0	-133016.0	-7911.0	6078.0
9	17	54	15	321	140.0	-135086.0	-7996.0	6047.0
9	17	54	15	322	141.0	-136665.0	-8049.0	5877.0
9	17	54	15	323	142.0	-139029.0	-8077.0	5376.0
9	17	54	15	323	143.0	-142086.0	-8106.0	5325.0
9	17	54	15	324	144.0	-145252.0	-8156.0	5218.0
9	17	54	15	324	145.0	-148732.0	-8209.0	4562.0
9	17	54	15	358	146.0	-151979.0	-8244.0	3935.0
9	17	54	15	403	147.0	-155131.0	-8304.0	3858.0
9	17	54	15	404	148.0	-158006.0	-8338.0	4513.0
9	17	54	15	404	149.0	-161118.0	-8383.0	4538.0
9	17	54	15	405	150.0	-164261.0	-8444.0	4644.0
9	17	54	15	405	151.0	-167184.0	-8492.0	4246.0
9	17	54	15	406	152.0	-169542.0	-8526.0	3715.0
9	17	54	15	407	153.0	-171076.0	-8568.0	3743.0
9	17	54	15	407	154.0	-172537.0	-8607.0	3250.0
9	17	54	15	408	155.0	-174340.0	-8656.0	2637.0
9	17	54	15	409	156.0	-176155.0	-8692.0	2504.0
9	17	54	15	409	157.0	-177822.0	-8703.0	2356.0
9	17	54	15	410	158.0	-179497.0	-8732.0	1974.0
9	17	54	15	410	159.0	-180957.0	-8787.0	1841.0
9	17	54	15	411	160.0	-182499.0	-8844.0	1812.0
9	17	54	15	412	162.0	-183802.0	-8879.0	1211.0
9	17	54	15	412	184.0	-165994.0	-8582.0	520.0
9	17	54	15	413	185.0	-165094.0	-8526.0	817.0
9	17	54	15	413	186.0	-163688.0	-8474.0	953.0
9	17	54	15	414	187.0	-161736.0	-8380.0	1847.0
9	17	54	15	415	188.0	-159584.0	-8279.0	2439.0
9	17	54	15	415	189.0	-157249.0	-8184.0	2722.0
9	17	54	15	416	190.0	-154675.0	-8102.0	3386.0
9	17	54	15	448	191.0	-152111.0	-8001.0	3851.0
9	17	54	15	448	192.0	-149616.0	-7881.0	3996.0
9	17	54	15	449	193.0	-146674.0	-7745.0	4147.0
9	17	54	15	450	194.0	-144228.0	-7626.0	4576.0
9	17	54	15	450	195.0	-142094.0	-7491.0	4531.0
9	17	54	15	451	196.0	-139959.0	-7369.0	5085.0
9	17	54	15	451	197.0	-138188.0	-7228.0	5443.0
9	17	54	15	452	198.0	-136853.0	-7086.0	5523.0
9	17	54	15	453	199.0	-136074.0	-6935.0	5517.0
9	17	54	15	453	200.0	-135132.0	-6804.0	6214.0
9	17	54	15	454	201.0	-134114.0	-6647.0	6870.0
9	17	54	15	455	202.0	-133741.0	-6487.0	6924.0
9	17	54	15	455	203.0	-134224.0	-6329.0	7153.0
9	17	54	15	456	204.0	-135102.0	-6168.0	7074.0
9	17	54	15	457	205.0	-136482.0	-5987.0	6953.0
9	17	54	15	457	207.0	-140675.0	-5672.0	6858.0
9	17	54	15	458	208.0	-143657.0	-5507.0	7221.0
9	17	54	15	459	209.0	-147372.0	-5338.0	7554.0
9	17	54	15	459	210.0	-151589.0	-5186.0	7791.0
9	17	54	15	460	211.0	-156023.0	-5036.0	7943.0
9	17	54	15	460	212.0	-160401.0	-4871.0	7787.0
9	17	54	15	492	213.0	-164537.0	-4719.0	7668.0
9	17	54	15	492	214.0	-168038.0	-4586.0	7487.0
9	17	54	15	493	215.0	-170901.0	-4411.0	7627.0
9	17	54	15	494	216.0	-174009.0	-4258.0	7503.0
9	17	54	15	494	217.0	-177559.0	-4131.0	7139.0
9	17	54	15	495	218.0	-181162.0	-3977.0	7392.0
9	17	54	15	496	219.0	-184902.0	-3849.0	7588.0
9	17	54	15	496	220.0	-188192.0	-3721.0	7616.0
9	17	54	15	497	221.0	-191122.0	-3576.0	7571.0
9	17	54	15	497	222.0	-193601.0	-3424.0	7379.0
9	17	54	15	498	223.0	-196027.0	-3295.0	7421.0
9	17	54	15	499	224.0	-198343.0	-3159.0	7460.0
9	17	54	15	499	225.0	-200409.0	-3049.0	7348.0
9	17	54	15	500	226.0	-202167.0	-2941.0	7051.0
9	17	54	15	500	227.0	-203308.0	-2820.0	6887.0
9	17	54	15	501	229.0	-202957.0	-2588.0	7324.0
9	17	54	15	502	230.0	-201234.0	-2481.0	7158.0
9	17	54	15	502	231.0	-196904.0	-2394.0	7074.0
9	17	54	15	503	232.0	-189213.0	-2274.0	7028.0
9	17	54	15	504	233.0	-180188.0	-2185.0	6822.0
9	17	54	15	504	234.0	-173046.0	-2094.0	6643.0
9	17	54	15	505	235.0	-168985.0	-1997.0	6399.0
9	17	54	15	536	236.0	-168023.0	-1911.0	6548.0
9	17	54	15	537	237.0	-170729.0	-1844.0	6525.0
9	17	54	15	538	238.0	-172491.0	-1751.0	6434.0
9	17	54	15	538	239.0	-170491.0	-1676.0	6514.0
9	17	54	15	539	240.0	-166602.0	-1609.0	6976.0
9	17	54	15	540	241.0	-161179.0	-1527.0	6693.0
9	17	54	15	541	242.0	-155855.0	-1442.0	6568.0
9	17	54	15	541	243.0	-151181.0	-1371.0	6548.0
9	17	54	15	542	244.0	-146003.0	-1292.0	6148.0
9	17	54	15	542	245.0	-140237.0	-1233.0	5910.0
9	17	54	15	543	246.0	-134414.0	-1177.0	5966.0
9	17	54	15	544	247.0	-129117.0	-1102.0	5599.0
9	17	54	15	544	248.0	-124807.0	-1032.0	5361.0
9	17	54	15	545	249.0	-123193.0	-971.0	6263.0
9	17	54	15	546	250.0	-125584.0	-926.0	6583.0
9	17	54	15	546	252.0	-135996.0	-785.0	6386.0
9	17	54	15	547	253.0	-142762.0	-732.0	6170.0
9	17	54	15	547	254.0	-149792.0	-672.0	5750.0
9	17	54	15	582	255.0	-155838.0	-619.0	5423.0
9	17	54	15	582	0.0	-160173.0	-561.0	5814.0
9	17	54	15	583	1.0	-162687.0	-526.0	5949.0
9	17	54	15	584	2.0	-162984.0	-472.0	5634.0
9	17	54	15	584	3.0	-161082.0	-427.0	5814.0
9	17	54	15	627	4.0	-157799.0	-385.0	6059.0
9	17	54	15	628	5.0	-154182.0	-326.0	5857.0
9	17	54	15	629	6.0	-150773.0	-266.0	5901.0
9	17	54	15	630	7.0	-148294.0	-207.0	5630.0
9	17	54	15	630	8.0	-147124.0	-156.0	5261.0
9	17	54	15	631	9.0	-147336.0	-117.0	5143.0
9	17	54	15	632	10.0	-148581.0	-73.0	5251.0
9	17	54	15	632	11.0	-150381.0	-34.0	5209.0
9	17	54	15	633	12.0	-151839.0	15.0	5190.0
9	17	54	15	634	13.0	-152800.0	56.0	5298.0
9	17	54	15	634	14.0	-153298.0	102.0	5308.0
9	17	54	15	635	19.0	-154882.0	272.0	5049.0
9	17	54	15	635	20.0	-155400.0	304.0	4711.0
9	17	54	15	636	21.0	-155866.0	333.0	4714.0
9	17	54	15	637	22.0	-156077.0	368.0	4773.0
9	17	54	15	637	41.0	-166980.0	613.0	4656.0
9	17	54	15	638	42.0	-167369.0	602.0	4735.0
9	17	54	15	638	43.0	-167731.0	594.0	4768.0
9	17	54	15	639	44.0	-167794.0	614.0	4731.0
9	17	54	15	640	45.0	-167378.0	613.0	4371.0
9	17	54	15	640	46.0	-166874.0	619.0	4101.0
9	17	54	15	673	47.0	-166774.0	614.0	4654.0
9	17	54	15	674	48.0	-166912.0	616.0	4606.0
9	17	54	15	674	49.0	-167292.0	619.0	4608.0
9	17	54	15	675	50.0	-167594.0	603.0	4514.0
9	17	54	15	676	51.0	-168016.0	593.0	4393.0
9	17	54	15	677	52.0	-168153.0	591.0	4351.0
9	17	54	15	678	53.0	-168134.0	583.0	4522.0
9	17	54	15	678	54.0	-167765.0	573.0	4541.0
9	17	54	15	679	55.0	-166787.0	576.0	4438.0
9	17	54	15	680	56.0	-165182.0	583.0	4138.0
9	17	54	15	680	57.0	-163138.0	583.0	3945.0
9	17	54	15	681	58.0	-161088.0	571.0	3891.0
9	17	54	15	681	59.0	-158900.0	569.0	4020.0
9	17	54	15	682	60.0	-156866.0	561.0	3833.0
9	17	54	15	683	61.0	-155237.0	573.0	3736.0
9	17	54	15	684	63.0	-152019.0	580.0	4563.0
9	17	54	15	684	64.0	-150684.0	581.0	4314.0
9	17	54	15	685	65.0	-149131.0	586.0	3959.0
9	17	54	15	686	66.0	-147860.0	588.0	3856.0
9	17	54	15	687	67.0	-147021.0	592.0	3826.0
9	17	54	15	687	68.0	-146291.0	578.0	3691.0
9	17	54	15	688	69.0	-145799.0	574.0	3816.0
9	17	54	15	718	70.0	-145417.0	566.0	3799.0
9	17	54	15	719	71.0	-145123.0	575.0	3523.0
9	17	54	15	720	72.0	-144991.0	576.0	3697.0
9	17	54	15	720	73.0	-145138.0	563.0	3589.0
9	17	54	15	721	74.0	-145661.0	563.0	3906.0
9	17	54	15	721	75.0	-146516.0	574.0	4177.0
9	17	54	15	722	76.0	-147570.0	587.0	3877.0
9	17	54	15	723	77.0	-149351.0	576.0	3698.0
9	17	54	15	724	78.0	-151042.0	574.0	3491.0
9	17	54	15	725	79.0	-152169.0	586.0	3296.0
9	17	54	15	725	80.0	-152791.0	593.0	3403.0
9	17	54	15	726	81.0	-153407.0	588.0	3432.0
9	17	54	15	727	82.0	-153847.0	589.0	3426.0
9	17	54	15	727	83.0	-154213.0	599.0	3550.0
9	17	54	15	728	84.0	-154731.0	597.0	3611.0
9	17	54	15	728	86.0	-156542.0	596.0	2912.0
9	17	54	15	729	87.0	-157729.0	588.0	3209.0
9	17	54	15	730	88.0	-159023.0	591.0	2871.0
9	17	54	15	730	89.0	-160344.0	576.0	2609.0
9	17	54	15	731	90.0	-161612.0	577.0	2758.0
9	17	54	15	731	91.0	-162386.0	565.0	2941.0
9	17	54	15	762	92.0	-162909.0	571.0	2575.0
9	17	54	15	763	93.0	-163220.0	558.0	2924.0
9	17	54	15	764	94.0	-163576.0	561.0	3153.0
9	17	54	15	765	95.0	-163950.0	549.0	2835.0
9	17	54	15	765	96.0	-164499.0	545.0	2688.0
9	17	54	15	766	97.0	-165085.0	540.0	2333.0
9	17	54	15	767	98.0	-165581.0	537.0	1589.0
9	17	54	15	767	99.0	-165782.0	516.0	1963.0
9	17	54	15	768	100.0	-165845.0	486.0	2489.0
9	17	54	15	768	101.0	-166387.0	469.0	2419.0
9	17	54	15	769	102.0	-167062.0	456.0	2338.0
9	17	54	15	770	103.0	-167307.0	438.0	2730.0
9	17	54	15	770	104.0	-167648.0	440.0	2716.0
9	17	54	15	771	105.0	-167898.0	427.0	2199.0
9	17	54	15	772	106.0	-168166.0	401.0	2173.0
9	17	54	15	772	108.0	-168614.0	363.0	2038.0
9	17	54	15	773	109.0	-168578.0	370.0	1976.0
9	17	54	15	774	110.0	-168087.0	332.0	1806.0
9	17	54	15	774	111.0	-167516.0	301.0	2024.0
9	17	54	15	775	112.0	-166941.0	283.0	2036.0
9	17	54	15	775	113.0	-166145.0	283.0	2109.0
9	17	54	15	807	114.0	-165315.0	235.0	2102.0
9	17	54	15	808	115.0	-164851.0	208.0	1912.0
9	17	54	15	809	116.0	-164112.0	183.0	1727.0
9	17	54	15	810	117.0	-163285.0	157.0	1378.0
9	17	54	15	810	118.0	-162490.0	139.0	1466.0
9	17	54	15	811	119.0	-161611.0	129.0	1520.0
9	17	54	15	812	120.0	-160647.0	78.0	885.0
9	17	54	15	812	121.0	-159594.0	63.0	1102.0
9	17	54	15	813	122.0	-158519.0	21.0	1426.0
9	17	54	15	814	123.0	-157456.0	-14.0	1424.0
9	17	54	15	815	124.0	-156489.0	-42.0	1463.0
9	17	54	15	816	125.0	-155931.0	-75.0	1406.0
9	17	54	15	816	126.0	-155462.0	-104.0	763.0
9	17	54	15	817	127.0	-154852.0	-131.0	559.0
9	17	54	15	817	128.0	-154257.0	-163.0	646.0
9	17	54	15	818	131.0	-152586.0	-294.0	882.0
9	17	54	15	819	132.0	-152346.0	-330.0	1267.0
9	17	54	15	820	133.0	-152489.0	-367.0	1312.0
9	17	54	15	820	134.0	-152744.0	-426.0	1239.0
9	17	54	15	821	135.0	-153329.0	-463.0	1096.0
9	17	54	15	821	136.0	-153882.0	-482.0	546.0
9	17	54	15	852	137.0	-154478.0	-524.0	71.0
9	17	54	15	853	138.0	-154928.0	-579.0	-191.0
9	17	54	15	854	139.0	-155015.0	-621.0	-160.0
9	17	54	15	855	140.0	-155161.0	-659.0	-59.0
9	17	54	15	855	141.0	-155457.0	-708.0	389.0
9	17	54	15	856	142.0	-155949.0	-758.0	660.0
9	17	54	15	898	143.0	-156817.0	-800.0	830.0
9	17	54	15	898	144.0	-157791.0	-826.0	637.0
9	17	54	15	899	145.0	-158984.0	-863.0	534.0
9	17	54	15	900	146.0	-160482.0	-910.0	451.0
9	17	54	15	901	147.0	-161564.0	-969.0	496.0
9	17	54	15	901	148.0	-162385.0	-999.0	269.0
9	17	54	15	902	149.0	-162996.0	-1047.0	186.0
9	17	54	15	902	150.0	-163865.0	-1099.0	58.0
9	17	54	15	903	151.0	-165322.0	-1152.0	-49.0
9	17	54	15	904	153.0	-169372.0	-1237.0	1165.0
9	17	54	15	904	154.0	-170994.0	-1297.0	950.0
9	17	54	15	905	155.0	-172144.0	-1341.0	749.0
9	17	54	15	906	156.0	-172615.0	-1405.0	777.0
9	17	54	15	906	157.0	-172679.0	-1442.0	415.0
9	17	54	15	907	158.0	-171899.0	-1488.0	83.0
9	17	54	15	908	159.0	-170769.0	-1527.0	367.0
9	17	54	15	908	176.0	-150019.0	-2323.0	316.0
9	17	54	15	909	177.0	-150356.0	-2386.0	352.0
9	17	54	15	910	178.0	-150786.0	-2427.0	537.0
9	17	54	15	911	179.0	-151077.0	-2453.0	602.0
9	17	54	15	911	180.0	-151516.0	-2506.0	958.0
9	17	54	15	912	181.0	-152359.0	-2559.0	1849.0
9	17	54	15	942	182.0	-153284.0	-2619.0	2349.0
9	17	54	15	943	183.0	-153988.0	-2666.0	2849.0
9	17	54	15	944	184.0	-154674.0	-2689.0	3283.0
9	17	54	15	944	185.0	-155621.0	-2727.0	2949.0
9	17	54	15	945	186.0	-156923.0	-2786.0	2030.0
9	17	54	15	946	187.0	-158431.0	-2843.0	-161.0
9	17	54	15	946	188.0	-160272.0	-2881.0	-4257.0
9	17	54	15	947	189.0	-162277.0	-2912.0	-8537.0
9	17	54	15	948	190.0	-164426.0	-2989.0	-13964.0
9	17	54	15	948	191.0	-166442.0	-3025.0	-19239.0
9	17	54	15	949	192.0	-168181.0	-3058.0	-23597.0
9	17	54	15	950	193.0	-169349.0	-3101.0	-28391.0
9	17	54	15	950	194.0	-169480.0	-3129.0	-34518.0
9	17	54	15	951	195.0	-168721.0	-3192.0	-41067.0
9	17	54	15	952	196.0	-167393.0	-3245.0	-46332.0
9	17	54	15	952	198.0	-162723.0	-3334.0	-52233.0
9	17	54	15	953	199.0	-159778.0	-3396.0	-53305.0
9	17	54	15	953	200.0	-156220.0	-3444.0	-49926.0
9	17	54	15	954	201.0	-152467.0	-3493.0	-43350.0
9	17	54	15	955	202.0	-148402.0	-3514.0	-36560.0
9	17	54	15	955	203.0	-143979.0	-3599.0	-27254.0
9	17	54	15	988	204.0	-139422.0	-3641.0	-14122.0
9	17	54	15	989	205.0	-134963.0	-3676.0	-5651.0
9	17	54	15	990	206.0	-130792.0	-3725.0	-3272.0
9	17	54	15	990	207.0	-127134.0	-3773.0	-2321.0
9	17	54	15	991	208.0	-124159.0	-3788.0	-2692.0
9	17	54	15	992	209.0	-122031.0	-3842.0	-3169.0
9	17	54	15	992	210.0	-120641.0	-3916.0	-3686.0
9	17	54	15	993	211.0	-120050.0	-3948.0	-3745.0
9	17	54	15	994	212.0	-120366.0	-3998.0	-3553.0
9	17	54	15	994	213.0	-121795.0	-4034.0	-3391.0
9	17	54	15	995	214.0	-124186.0	-4089.0	-3337.0
9	17	54	15	996	215.0	-127530.0	-4143.0	-3716.0
9	17	54	15	996	216.0	-131413.0	-4169.0	-3835.0
9	17	54	15	997	217.0	-133990.0	-4229.0	-3573.0
9	17	54	15	997	218.0	-132512.0	-4282.0	-3227.0
9	17	54	15	998	220.0	-117647.0	-4366.0	-2732.0
9	17	54	15	999	221.0	-109989.0	-4441.0	-2739.0
9	17	54	15	999	222.0	-106508.0	-4475.0	-2489.0
9	17	54	16	0	223.0	-108503.0	-4517.0	-2372.0
9	17	54	16	0	224.0	-115296.0	-4562.0	-2175.0
9	17	54	16	1	225.0	-126049.0	-4605.0	-2024.0
9	17	54	16	2	226.0	-139612.0	-4656.0	-2548.0
9	17	54	16	31	227.0	-153884.0	-4698.0	-3009.0
9	17	54	16	32	228.0	-167117.0	-4733.0	-3041.0
9	17	54	16	33	229.0	-177225.0	-4772.0	-2957.0
9	17	54	16	33	230.0	-184027.0	-4817.0	-2865.0
9	17	54	16	34	231.0	-187607.0	-4882.0	-2558.0
9	17	54	16	34	232.0	-189481.0	-4937.0	-2389.0
9	17	54	16	35	233.0	-191956.0	-4972.0	-2259.0
9	17	54	16	35	234.0	-195504.0	-5011.0	-1961.0
9	17	54	16	36	235.0	-199801.0	-5052.0	-2209.0
9	17	54	16	37	236.0	-204926.0	-5095.0	-2656.0
9	17	54	16	37	237.0	-210984.0	-5148.0	-2545.0
9	17	54	16	38	238.0	-217308.0	-5196.0	-2385.0
9	17	54	16	47	239.0	-222923.0	-5238.0	-2572.0
9	17	54	16	48	240.0	-227202.0	-5277.0	-2488.0
9	17	54	16	49	241.0	-229196.0	-5317.0	-2169.0
9	17	54	16	49	243.0	-221514.0	-5414.0	-2394.0
9	17	54	16	50	244.0	-211659.0	-5481.0	-2670.0
9	17	54	16	50	245.0	-199012.0	-5508.0	-2732.0
9	17	54	16	51	246.0	-185512.0	-5536.0	-2916.0
9	17	54	16	51	247.0	-173006.0	-5575.0	-3230.0
9	17	54	16	52	248.0	-162211.0	-5594.0	-3481.0
9	17	54	16	52	249.0	-153331.0	-5666.0	-3926.0
9	17	54	16	76	250.0	-146285.0	-5707.0	-3863.0
9	17	54	16	77	251.0	-141056.0	-5780.0	-3261.0
9	17	54	16	78	252.0	-137451.0	-5816.0	-3011.0
9	17	54	16	78	253.0	-135694.0	-5846.0	-3001.0
9	17	54	16	79	254.0	-135099.0	-5875.0	-3165.0
9	17	54	16	79	255.0	-134926.0	-5901.0	-3233.0
9	17	54	16	80	0.0	-134982.0	-5947.0	-3819.0
9	17	54	16	81	1.0	-135532.0	-5982.0	-4443.0
9	17	54	16	81	2.0	-136567.0	-6016.0	-4367.0
9	17	54	16	82	3.0	-138222.0	-6069.0	-4273.0
9	17	54	16	82	4.0	-140874.0	-6104.0	-4242.0
9	17	54	16	83	5.0	-144186.0	-6150.0	-4425.0
9	17	54	16	83	6.0	-147384.0	-6188.0	-4066.0
9	17	54	16	84	7.0	-149811.0	-6231.0	-4277.0
9	17	54	16	96	8.0	-151437.0	-6277.0	-4809.0
9	17	54	16	97	9.0	-152206.0	-6295.0	-4882.0
9	17	54	16	97	10.0	-152177.0	-6358.0	-4774.0
9	17	54	16	98	11.0	-151289.0	-6379.0	-4882.0
9	17	54	16	99	12.0	-149546.0	-6433.0	-4830.0
9	17	54	16	99	13.0	-146794.0	-6462.0	-4858.0
9	17	54	16	100	14.0	-143838.0	-6494.0	-5130.0
9	17	54	16	100	15.0	-141181.0	-6542.0	-5069.0
9	17	54	16	122	16.0	-138843.0	-6614.0	-4761.0
9	17	54	16	123	17.0	-136488.0	-6647.0	-5037.0
9	17	54	16	123	18.0	-134477.0	-6689.0	-5247.0
9	17	54	16	124	19.0	-133135.0	-6718.0	-5610.0
9	17	54	16	124	20.0	-132723.0	-6771.0	-5674.0
9	17	54	16	125	21.0	-133679.0	-6784.0	-5976.0
9	17	54	16	125	22.0	-135639.0	-6813.0	-6168.0
9	17	54	16	126	23.0	-138559.0	-6877.0	-6226.0
9	17	54	16	127	24.0	-142193.0	-6942.0	-5970.0
9	17	54	16	127	25.0	-146518.0	-6974.0	-6196.0
9	17	54	16	128	26.0	-151140.0	-7006.0	-6433.0
9	17	54	16	128	27.0	-155403.0	-7066.0	-6497.0
9	17	54	16	129	28.0	-159777.0	-7085.0	-6759.0
9	17	54	16	129	29.0	-163824.0	-7131.0	-7172.0
9	17	54	16	130	30.0	-167521.0	-7158.0	-7456.0
9	17	54	16	131	32.0	-173821.0	-7306.0	-8086.0
9	17	54	16	131	33.0	-175753.0	-7341.0	-8426.0
9	17	54	16	132	34.0	-176592.0	-7351.0	-8272.0
9	17	54	16	132	35.0	-176186.0	-7407.0	-8674.0
9	17	54	16	133	36.0	-174912.0	-7467.0	-8522.0
9	17	54	16	133	37.0	-173144.0	-7494.0	-8373.0
9	17	54	16	167	38.0	-171287.0	-7564.0	-8969.0
9	17	54	16	168	39.0	-169335.0	-7564.0	-9604.0
9	17	54	16	169	40.0	-167671.0	-7619.0	-9781.0
9	17	54	16	169	41.0	-166381.0	-7678.0	-9786.0
9	17	54	16	170	42.0	-164971.0	-7721.0	-10477.0
9	17	54	16	170	43.0	-163512.0	-7745.0	-11276.0
9	17	54	16	171	44.0	-162094.0	-7795.0	-11144.0
9	17	54	16	171	45.0	-161031.0	-7845.0	-10621.0
9	17	54	16	172	46.0	-161056.0	-7859.0	-10268.0
9	17	54	16	173	47.0	-161583.0	-7886.0	-10427.0
9	17	54	16	173	48.0	-162198.0	-7914.0	-10811.0
9	17	54	16	174	49.0	-162926.0	-7947.0	-11184.0
9	17	54	16	174	50.0	-163649.0	-7977.0	-11240.0
9	17	54	16	175	51.0	-164435.0	-7981.0	-11161.0
9	17	54	16	175	52.0	-165309.0	-8001.0	-11331.0
9	17	54	16	176	54.0	-166456.0	-8047.0	-11439.0
9	17	54	16	176	55.0	-166457.0	-8051.0	-11353.0
9	17	54	16	177	56.0	-166057.0	-8036.0	-11187.0
9	17	54	16	185	57.0	-165502.0	-8037.0	-11187.0
9	17	54	16	186	58.0	-164691.0	-8021.0	-11213.0
9	17	54	16	187	59.0	-163780.0	-8013.0	-11070.0
9	17	54	16	187	60.0	-163164.0	-8015.0	-10946.0
9	17	54	16	213	61.0	-162563.0	-7991.0	-11262.0
9	17	54	16	213	62.0	-162594.0	-7947.0	-10802.0
9	17	54	16	214	63.0	-162819.0	-7924.0	-10608.0
9	17	54	16	215	64.0	-163233.0	-7909.0	-10385.0
9	17	54	16	215	65.0	-163809.0	-7851.0	-9784.0
9	17	54	16	216	66.0	-164381.0	-7797.0	-9175.0
9	17	54	16	216	67.0	-164961.0	-7768.0	-8787.0
9	17	54	16	217	68.0	-165949.0	-7687.0	-8126.0
9	17	54	16	217	69.0	-167160.0	-7638.0	-7568.0
9	17	54	16	218	70.0	-168251.0	-7583.0	-7411.0
9	17	54	16	219	71.0	-169007.0	-7515.0	-6979.0
9	17	54	16	219	72.0	-169678.0	-7420.0	-6612.0
9	17	54	16	220	73.0	-170088.0	-7346.0	-6366.0
9	17	54	16	220	74.0	-169833.0	-7267.0	-5783.0
9	17	54	16	221	75.0	-169154.0	-7181.0	-5272.0
9	17	54	16	222	77.0	-167311.0	-6966.0	-4445.0
9	17	54	16	222	78.0	-165789.0	-6855.0	-3999.0
9	17	54	16	223	79.0	-164161.0	-6747.0	-3993.0
9	17	54	16	223	80.0	-162192.0	-6637.0	-3549.0
9	17	54	16	224	81.0	-160011.0	-6507.0	-3408.0
9	17	54	16	225	82.0	-157538.0	-6383.0	-2893.0
9	17	54	16	265	83.0	-155193.0	-6248.0	-3106.0
9	17	54	16	266	84.0	-153008.0	-6149.0	-3064.0
9	17	54	16	266	85.0	-151002.0	-6006.0	-2269.0
9	17	54	16	267	86.0	-149549.0	-5844.0	-1599.0
9	17	54	16	267	87.0	-148302.0	-5723.0	-1492.0
9	17	54	16	268	88.0	-146934.0	-5562.0	-1637.0
9	17	54	16	268	89.0	-145391.0	-5416.0	-1967.0
9	17	54	16	269	90.0	-144249.0	-5284.0	-1812.0
9	17	54	16	270	91.0	-143095.0	-5134.0	-2060.0
9	17	54	16	270	92.0	-142176.0	-4972.0	-2256.0
9	17	54	16	271	93.0	-141122.0	-4821.0	-2250.0
9	17	54	16	271	94.0	-140481.0	-4707.0	-1651.0
9	17	54	16	272	95.0	-140020.0	-4582.0	-1118.0
9	17	54	16	272	96.0	-140084.0	-4431.0	-694.0
9	17	54	16	273	97.0	-140307.0	-4272.0	-916.0
9	17	54	16	273	99.0	-142327.0	-4002.0	-1313.0
9	17	54	16	274	100.0	-143610.0	-3859.0	-1389.0
9	17	54	16	275	101.0	-145263.0	-3761.0	-2086.0
9	17	54	16	275	102.0	-147669.0	-3622.0	-1911.0
9	17	54	16	276	103.0	-150566.0	-3491.0	-1415.0
9	17	54	16	276	104.0	-153466.0	-3352.0	-1337.0
9	17	54	16	303	105.0	-156621.0	-3242.0	-1166.0
9	17	54	16	303	106.0	-159999.0	-3106.0	-567.0
9	17	54	16	304	107.0	-163131.0	-2997.0	-881.0
9	17	54	16	305	108.0	-165169.0	-2868.0	-1057.0
9	17	54	16	305	109.0	-166051.0	-2767.0	-1263.0
9	17	54	16	306	110.0	-165097.0	-2666.0	-1444.0
9	17	54	16	307	111.0	-161597.0	-2572.0	-1655.0
9	17	54	16	307	112.0	-158423.0	-2457.0	-1474.0
9	17	54	16	308	113.0	-158793.0	-2372.0	-1155.0
9	17	54	16	308	114.0	-161988.0	-2259.0	-893.0
9	17	54	16	309	115.0	-167969.0	-2196.0	-936.0
9	17	54	16	310	116.0	-175137.0	-2094.0	-724.0
9	17	54	16	310	117.0	-179391.0	-1977.0	-879.0
9	17	54	16	311	118.0	-180758.0	-1912.0	-936.0
9	17	54	16	311	119.0	-181715.0	-1841.0	-1135.0
9	17	54	16	312	122.0	-181396.0	-1594.0	-1244.0
9	17	54	16	312	123.0	-179489.0	-1532.0	-1281.0
9	17	54	16	313	124.0	-176448.0	-1479.0	-1232.0
9	17	54	16	314	125.0	-172839.0	-1409.0	-1387.0
9	17	54	16	314	126.0	-169271.0	-1357.0	-1005.0
9	17	54	16	315	127.0	-166603.0	-1283.0	-933.0
9	17	54	16	346	128.0	-165719.0	-1246.0	-1362.0
9	17	54	16	346	129.0	-166144.0	-1161.0	-1312.0
9	17	54	16	347	130.0	-166463.0	-1106.0	-1339.0
9	17	54	16	348	131.0	-165644.0	-1072.0	-1519.0
9	17	54	16	348	132.0	-163012.0	-997.0	-1906.0
9	17	54	16	393	133.0	-158650.0	-947.0	-1838.0
9	17	54	16	393	134.0	-152772.0	-918.0	-1165.0
9	17	54	16	394	135.0	-145792.0	-875.0	-975.0
9	17	54	16	394	136.0	-137651.0	-815.0	-1156.0
9	17	54	16	395	137.0	-129184.0	-765.0	-994.0
9	17	54	16	396	138.0	-121157.0	-707.0	-1162.0
9	17	54	16	396	139.0	-114594.0	-671.0	-1555.0
9	17	54	16	397	140.0	-111166.0	-608.0	-1243.0
9	17	54	16	397	141.0	-110947.0	-578.0	-1431.0
9	17	54	16	398	142.0	-113612.0	-548.0	-2155.0
9	17	54	16	399	144.0	-125041.0	-435.0	-516.0
9	17	54	16	399	145.0	-130947.0	-394.0	-666.0
9	17	54	16	400	146.0	-135947.0	-365.0	-613.0
9	17	54	16	400	147.0	-140629.0	-321.0	-356.0
9	17	54	16	401	148.0	-144014.0	-269.0	-570.0
9	17	54	16	401	149.0	-146082.0	-268.0	-734.0
9	17	54	16	402	167.0	-162891.0	133.0	379.0
9	17	54	16	403	168.0	-165145.0	121.0	468.0
9	17	54	16	403	169.0	-166985.0	135.0	-159.0
9	17	54	16	404	170.0	-169064.0	141.0	-619.0
9	17	54	16	438	171.0	-171319.0	171.0	-438.0
9	17	54	16	439	172.0	-173849.0	151.0	14.0
9	17	54	16	461	173.0	-175994.0	117.0	-179.0
9	17	54	16	462	174.0	-177792.0	128.0	123.0
9	17	54	16	462	175.0	-179237.0	146.0	576.0
9	17	54	16	463	176.0	-180355.0	132.0	331.0
9	17	54	16	464	177.0	-181154.0	126.0	340.0
9	17	54	16	464	178.0	-181500.0	128.0	398.0
9	17	54	16	485	179.0	-181048.0	113.0	-130.0
9	17	54	16	486	180.0	-180368.0	109.0	-168.0
9	17	54	16	486	181.0	-179392.0	106.0	206.0
9	17	54	16	487	182.0	-178060.0	107.0	96.0
9	17	54	16	487	183.0	-176511.0	88.0	63.0
9	17	54	16	508	184.0	-174684.0	94.0	340.0
9	17	54	16	509	185.0	-172417.0	116.0	634.0
9	17	54	16	509	189.0	-160921.0	78.0	-533.0
9	17	54	16	510	190.0	-157671.0	88.0	-523.0
9	17	54	16	511	191.0	-155373.0	78.0	-121.0
9	17	54	16	511	192.0	-153537.0	57.0	113.0
9	17	54	16	512	193.0	-152445.0	64.0	653.0
9	17	54	16	512	194.0	-151476.0	64.0	528.0
9	17	54	16	513	195.0	-150562.0	53.0	424.0
9	17	54	16	513	196.0	-149822.0	21.0	589.0
9	17	54	16	514	197.0	-149417.0	26.0	313.0
9	17	54	16	514	212.0	-150661.0	13.0	-549.0
9	17	54	16	515	213.0	-150886.0	26.0	-252.0
9	17	54	16	516	214.0	-151194.0	33.0	-412.0
9	17	54	16	516	215.0	-151758.0	54.0	-212.0
9	17	54	16	517	216.0	-152801.0	43.0	-180.0
9	17	54	16	517	217.0	-153876.0	42.0	-547.0
9	17	54	16	533	218.0	-155500.0	29.0	-748.0
9	17	54	16	534	219.0	-156635.0	33.0	-647.0
9	17	54	16	535	220.0	-158395.0	28.0	-791.0
9	17	54	16	535	221.0	-159989.0	41.0	-784.0
9	17	54	16	536	222.0	-161910.0	53.0	-996.0
9	17	54	16	536	223.0	-163352.0	38.0	-891.0
9	17	54	16	537	224.0	-164558.0	29.0	-467.0
9	17	54	16	538	225.0	-165597.0	41.0	-452.0
9	17	54	16	538	226.0	-165774.0	31.0	-852.0
9	17	54	16	539	227.0	-165428.0	16.0	-782.0
9	17	54	16	539	228.0	-164571.0	19.0	-1029.0
9	17	54	16	540	229.0	-163811.0	49.0	-1149.0
9	17	54	16	540	230.0	-162947.0	21.0	-1097.0
9	17	54	16	541	231.0	-162288.0	15.0	-1210.0
9	17	54	16	542	232.0	-161518.0	-2.0	-1744.0
9	17	54	16	542	234.0	-160628.0	21.0	-1092.0
9	17	54	16	543	235.0	-159704.0	10.0	-869.0
9	17	54	16	543	236.0	-159264.0	-36.0	-541.0
9	17	54	16	544	237.0	-158840.0	-30.0	-813.0
9	17	54	16	545	238.0	-158730.0	-48.0	-1696.0
9	17	54	16	545	239.0	-158708.0	-39.0	-1832.0
9	17	54	16	572	240.0	-159349.0	-41.0	-896.0
9	17	54	16	573	241.0	-160066.0	-74.0	-1079.0
9	17	54	16	574	242.0	-160964.0	-87.0	-1342.0
9	17	54	16	575	243.0	-162393.0	-111.0	-1011.0
9	17	54	16	576	244.0	-163925.0	-156.0	-913.0
9	17	54	16	577	245.0	-165596.0	-157.0	-1071.0
9	17	54	16	577	246.0	-166619.0	-162.0	-848.0
9	17	54	16	578	247.0	-168013.0	-184.0	-664.0
9	17	54	16	579	248.0	-169307.0	-210.0	-559.0
9	17	54	16	579	249.0	-171062.0	-241.0	-623.0
9	17	54	16	580	250.0	-172771.0	-256.0	-800.0
9	17	54	16	581	251.0	-174366.0	-265.0	-891.0
9	17	54	16	581	252.0	-175736.0	-291.0	-739.0
9	17	54	16	582	253.0	-177022.0	-337.0	-62.0
9	17	54	16	582	254.0	-177890.0	-352.0	257.0
9	17	54	16	583	0.0	-178114.0	-407.0	281.0
9	17	54	16	584	1.0	-177217.0	-425.0	-272.0
9	17	54	16	584	2.0	-176197.0	-456.0	-572.0
9	17	54	16	585	3.0	-174617.0	-471.0	-772.0
9	17	54	16	585	4.0	-172995.0	-541.0	-1267.0
9	17	54	16	586	5.0	-171235.0	-557.0	-952.0
9	17	54	16	586	6.0	-169617.0	-611.0	-624.0
9	17	54	16	616	7.0	-168225.0	-667.0	-542.0
9	17	54	16	617	8.0	-166706.0	-680.0	-634.0
9	17	54	16	618	9.0	-165338.0	-714.0	117.0
9	17	54	16	619	10.0	-163635.0	-751.0	279.0
9	17	54	16	619	11.0	-162231.0	-781.0	245.0
9	17	54	16	620	12.0	-160127.0	-806.0	348.0
9	17	54	16	621	13.0	-157966.0	-846.0	357.0
9	17	54	16	621	14.0	-155723.0	-882.0	-73.0
9	17	54	16	622	15.0	-153939.0	-941.0	-4.0
9	17	54	16	622	16.0	-152217.0	-977.0	178.0
9	17	54	16	623	17.0	-150404.0	-998.0	132.0
9	17	54	16	624	18.0	-148886.0	-1041.0	539.0
9	17	54	16	624	19.0	-146833.0	-1090.0	743.0
9	17	54	16	625	20.0	-144786.0	-1151.0	566.0
9	17	54	16	625	21.0	-142426.0	-1167.0	306.0
9	17	54	16	626	23.0	-139087.0	-1234.0	236.0
9	17	54	16	627	24.0	-137952.0	-1283.0	-15.0
9	17	54	16	627	25.0	-137244.0	-1348.0	200.0
9	17	54	16	628	26.0	-136904.0	-1359.0	491.0
9	17	54	16	628	27.0	-136566.0	-1415.0	597.0
9	17	54	16	629	28.0	-136127.0	-1462.0	571.0
9	17	54	16	662	29.0	-136141.0	-1501.0	881.0
9	17	54	16	663	30.0	-136304.0	-1542.0	301.0
9	17	54	16	663	31.0	-136815.0	-1599.0	122.0
9	17	54	16	664	32.0	-137317.0	-1645.0	686.0
9	17	54	16	665	33.0	-138934.0	-1680.0	818.0
9	17	54	16	665	34.0	-140631.0	-1726.0	481.0
9	17	54	16	666	35.0	-142896.0	-1770.0	173.0
9	17	54	16	666	36.0	-145720.0	-1791.0	475.0
9	17	54	16	667	37.0	-149447.0	-1842.0	651.0
9	17	54	16	668	38.0	-153446.0	-1896.0	329.0
9	17	54	16	668	39.0	-157076.0	-1937.0	822.0
9	17	54	16	669	40.0	-160954.0	-1979.0	841.0
9	17	54	16	669	41.0	-164466.0	-2010.0	412.0
9	17	54	16	670	42.0	-168299.0	-2050.0	281.0
9	17	54	16	671	43.0	-171785.0	-2104.0	645.0
9	17	54	16	672	45.0	-178539.0	-2192.0	884.0
9	17	54	16	672	46.0	-181446.0	-2263.0	1770.0
9	17	54	16	673	47.0	-183887.0	-2299.0	2553.0
9	17	54	16	674	48.0	-185949.0	-2331.0	2671.0
9	17	54	16	674	49.0	-188094.0	-2349.0	3443.0
9	17	54	16	675	50.0	-189677.0	-2402.0	3683.0
9	17	54	16	675	51.0	-190762.0	-2426.0	3001.0
9	17	54	16	707	52.0	-190777.0	-2473.0	1449.0
9	17	54	16	708	53.0	-189992.0	-2524.0	-1307.0
9	17	54	16	708	54.0	-188504.0	-2573.0	-5318.0
9	17	54	16	751	55.0	-186340.0	-2618.0	-10327.0
9	17	54	16	752	56.0	-183759.0	-2669.0	-15818.0
9	17	54	16	753	57.0	-180602.0	-2714.0	-20047.0
9	17	54	16	753	58.0	-177110.0	-2765.0	-24691.0
9	17	54	16	754	59.0	-173296.0	-2793.0	-29836.0
9	17	54	16	755	60.0	-168557.0	-2829.0	-35767.0
9	17	54	16	755	61.0	-163349.0	-2889.0	-42162.0
9	17	54	16	756	62.0	-157409.0	-2926.0	-46890.0
9	17	54	16	757	63.0	-151456.0	-2955.0	-50007.0
9	17	54	16	757	64.0	-145501.0	-3017.0	-52657.0
9	17	54	16	758	65.0	-139077.0	-3081.0	-52221.0
9	17	54	16	758	66.0	-132602.0	-3111.0	-47819.0
9	17	54	16	759	68.0	-121032.0	-3210.0	-33806.0
9	17	54	16	760	69.0	-116132.0	-3253.0	-23711.0
9	17	54	16	760	70.0	-111747.0	-3275.0	-10824.0
9	17	54	16	761	90.0	-136769.0	-4094.0	-1849.0
9	17	54	16	761	91.0	-152604.0	-4128.0	-2011.0
9	17	54	16	762	92.0	-169564.0	-4179.0	-1932.0
9	17	54	16	763	93.0	-185181.0	-4196.0	-1811.0
9	17	54	16	763	94.0	-197741.0	-4245.0	-1926.0
9	17	54	16	764	95.0	-205531.0	-4298.0	-2094.0
9	17	54	16	797	96.0	-209578.0	-4341.0	-1851.0
9	17	54	16	798	97.0	-212606.0	-4364.0	-1653.0
9	17	54	16	798	98.0	-216379.0	-4409.0	-1379.0
9	17	54	16	799	99.0	-221116.0	-4437.0	-1271.0
9	17	54	16	800	100.0	-225592.0	-4471.0	-1247.0
9	17	54	16	800	101.0	-229870.0	-4506.0	-1838.0
9	17	54	16	801	102.0	-234047.0	-4555.0	-1926.0
9	17	54	16	801	103.0	-237769.0	-4614.0	-1735.0
9	17	54	16	802	104.0	-239643.0	-4639.0	-1974.0
9	17	54	16	803	105.0	-239272.0	-4655.0	-2027.0
9	17	54	16	803	106.0	-236799.0	-4699.0	-2025.0
9	17	54	16	804	107.0	-232247.0	-4738.0	-2042.0
9	17	54	16	805	108.0	-225152.0	-4783.0	-1777.0
9	17	54	16	805	109.0	-214619.0	-4819.0	-1859.0
9	17	54	16	806	110.0	-200077.0	-4878.0	-2344.0
9	17	54	16	806	113.0	-148880.0	-4965.0	-2716.0
9	17	54	16	807	114.0	-135494.0	-5019.0	-2912.0
9	17	54	16	808	115.0	-124929.0	-5043.0	-2733.0
9	17	54	16	808	116.0	-117396.0	-5096.0	-2489.0
9	17	54	16	809	117.0	-112017.0	-5119.0	-2673.0
9	17	54	16	809	118.0	-108321.0	-5183.0	-2329.0
9	17	54	16	843	119.0	-106362.0	-5224.0	-2248.0
9	17	54	16	843	120.0	-105755.0	-5271.0	-2962.0
9	17	54	16	844	121.0	-106464.0	-5288.0	-2775.0
9	17	54	16	845	122.0	-107779.0	-5337.0	-2791.0
9	17	54	16	845	123.0	-110007.0	-5364.0	-3390.0
9	17	54	16	846	124.0	-112833.0	-5399.0	-3577.0
9	17	54	16	847	125.0	-116721.0	-5434.0	-4103.0
9	17	54	16	847	126.0	-121655.0	-5473.0	-3778.0
9	17	54	16	848	127.0	-127573.0	-5514.0	-2965.0
9	17	54	16	849	128.0	-134020.0	-5565.0	-2448.0
9	17	54	16	849	129.0	-140241.0	-5586.0	-2972.0
9	17	54	16	850	130.0	-145736.0	-5604.0	-2996.0
9	17	54	16	851	131.0	-149837.0	-5656.0	-3183.0
9	17	54	16	851	132.0	-153376.0	-5714.0	-3664.0
9	17	54	16	852	133.0	-156146.0	-5756.0	-4092.0
9	17	54	16	852	135.0	-159462.0	-5851.0	-4283.0
9	17	54	16	853	136.0	-160080.0	-5894.0	-4438.0
9	17	54	16	854	137.0	-159954.0	-5952.0	-4244.0
9	17	54	16	854	138.0	-159648.0	-5980.0	-4564.0
9	17	54	16	855	139.0	-159439.0	-6016.0	-4553.0
9	17	54	16	855	140.0	-159279.0	-6057.0	-4309.0
9	17	54	16	887	141.0	-158964.0	-6114.0	-4804.0
9	17	54	16	888	142.0	-158901.0	-6145.0	-5072.0
9	17	54	16	888	143.0	-159600.0	-6207.0	-5327.0
9	17	54	16	889	144.0	-160979.0	-6234.0	-5326.0
9	17	54	16	890	145.0	-162407.0	-6281.0	-5489.0
9	17	54	16	890	146.0	-164042.0	-6324.0	-5441.0
9	17	54	16	891	147.0	-165868.0	-6369.0	-5712.0
9	17	54	16	892	148.0	-167725.0	-6419.0	-5947.0
9	17	54	16	892	149.0	-169653.0	-6477.0	-5744.0
9	17	54	16	893	150.0	-170930.0	-6520.0	-5897.0
9	17	54	16	893	151.0	-171473.0	-6551.0	-6566.0
9	17	54	16	894	152.0	-171186.0	-6584.0	-6893.0
9	17	54	16	895	153.0	-170184.0	-6617.0	-6687.0
9	17	54	16	895	154.0	-169184.0	-6671.0	-7476.0
9	17	54	16	896	155.0	-167585.0	-6719.0	-7839.0
9	17	54	16	896	157.0	-163661.0	-6804.0	-7510.0
9	17	54	16	897	158.0	-161247.0	-6861.0	-7632.0
9	17	54	16	898	159.0	-159052.0	-6877.0	-7744.0
9	17	54	16	898	160.0	-156627.0	-6927.0	-8132.0
9	17	54	16	899	161.0	-154845.0	-6951.0	-8479.0
9	17	54	16	899	162.0	-153624.0	-7017.0	-8991.0
9	17	54	16	900	163.0	-153123.0	-7014.0	-9282.0
9	17	54	16	932	164.0	-152796.0	-7062.0	-9441.0
9	17	54	16	933	165.0	-152668.0	-7090.0	-9560.0
9	17	54	16	933	166.0	-153140.0	-7139.0	-9553.0
9	17	54	16	934	167.0	-154158.0	-7180.0	-9614.0
9	17	54	16	935	168.0	-155767.0	-7203.0	-9675.0
9	17	54	16	935	169.0	-157379.0	-7195.0	-10044.0
9	17	54	16	936	170.0	-159519.0	-7203.0	-10370.0
9	17	54	16	937	171.0	-162140.0	-7221.0	-10818.0
9	17	54	16	937	172.0	-165225.0	-7234.0	-11164.0
9	17	54	16	938	173.0	-168573.0	-7246.0	-10808.0
9	17	54	16	939	174.0	-171844.0	-7263.0	-10337.0
9	17	54	16	939	175.0	-175136.0	-7274.0	-10317.0
9	17	54	16	940	176.0	-178179.0	-7248.0	-10706.0
9	17	54	16	941	177.0	-181052.0	-7249.0	-10523.0
9	17	54	16	941	178.0	-183469.0	-7233.0	-10551.0
9	17	54	16	942	180.0	-185854.0	-7187.0	-10362.0
9	17	54	16	943	181.0	-185981.0	-7176.0	-10311.0
9	17	54	16	943	182.0	-185561.0	-7119.0	-10363.0
9	17	54	16	944	183.0	-184747.0	-7089.0	-10682.0
9	17	54	16	944	184.0	-183385.0	-7024.0	-9956.0
9	17	54	16	945	185.0	-181398.0	-6989.0	-9642.0
9	17	54	16	976	186.0	-179071.0	-6953.0	-8980.0
9	17	54	16	977	187.0	-176534.0	-6912.0	-8184.0
9	17	54	16	994	188.0	-173346.0	-6831.0	-7585.0
9	17	54	16	995	189.0	-170109.0	-6766.0	-7289.0
9	17	54	16	996	190.0	-166694.0	-6702.0	-6688.0
9	17	54	16	996	191.0	-163336.0	-6622.0	-6323.0
9	17	54	16	997	192.0	-160231.0	-6532.0	-6424.0
9	17	54	16	998	193.0	-157313.0	-6467.0	-5994.0
9	17	54	16	998	194.0	-154352.0	-6371.0	-5591.0
9	17	54	16	999	195.0	-151136.0	-6288.0	-5206.0
9	17	54	17	7	196.0	-148213.0	-6186.0	-4613.0
9	17	54	17	7	197.0	-145212.0	-6076.0	-4134.0
9	17	54	17	8	198.0	-142216.0	-5949.0	-3473.0
9	17	54	17	8	199.0	-139677.0	-5829.0	-3184.0
9	17	54	17	9	200.0	-137383.0	-5711.0	-3261.0
9	17	54	17	10	202.0	-134491.0	-5451.0	-2898.0
9	17	54	17	10	203.0	-133757.0	-5303.0	-2707.0
9	17	54	17	11	204.0	-132904.0	-5182.0	-2409.0
9	17	54	17	11	205.0	-132160.0	-5016.0	-1979.0
9	17	54	17	12	206.0	-131668.0	-4887.0	-1853.0
9	17	54	17	12	207.0	-131181.0	-4753.0	-1821.0
9	17	54	17	13	208.0	-131368.0	-4629.0	-1256.0
9	17	54	17	22	209.0	-131954.0	-4414.0	-1084.0
9	17	54	17	22	210.0	-133026.0	-4267.0	-1510.0
9	17	54	17	23	211.0	-134255.0	-4138.0	-1502.0
9	17	54	17	23	212.0	-135583.0	-3986.0	-1019.0
9	17	54	17	24	213.0	-137089.0	-3832.0	-1085.0
9	17	54	17	67	214.0	-138565.0	-3665.0	-1285.0
9	17	54	17	68	215.0	-140558.0	-3521.0	-1107.0
9	17	54	17	90	216.0	-143036.0	-3386.0	-950.0
9	17	54	17	91	217.0	-145912.0	-3239.0	-721.0
9	17	54	17	92	218.0	-149069.0	-3095.0	-1248.0
9	17	54	17	92	219.0	-152192.0	-2939.0	-1167.0
9	17	54	17	93	220.0	-155537.0	-2801.0	-822.0
9	17	54	17	93	221.0	-159176.0	-2648.0	-266.0
9	17	54	17	94	222.0	-163218.0	-2512.0	-84.0
9	17	54	17	94	223.0	-167503.0	-2356.0	-381.0
9	17	54	17	95	225.0	-175247.0	-2121.0	-630.0
9	17	54	17	95	226.0	-179184.0	-1984.0	-583.0
9	17	54	17	96	227.0	-183133.0	-1871.0	-194.0
9	17	54	17	96	228.0	-187107.0	-1739.0	116.0
9	17	54	17	97	229.0	-190833.0	-1612.0	-236.0
9	17	54	17	97	230.0	-194326.0	-1505.0	-324.0
9	17	54	17	98	248.0	-182341.0	114.0	-52.0
9	17	54	17	99	249.0	-173466.0	161.0	-74.0
9	17	54	17	99	250.0	-164421.0	247.0	69.0
9	17	54	17	100	251.0	-156610.0	290.0	-299.0
9	17	54	17	100	252.0	-150707.0	379.0	-567.0
9	17	54	17	113	253.0	-145476.0	424.0	-224.0
9	17	54	17	114	254.0	-139784.0	499.0	-179.0
9	17	54	17	114	255.0	-134448.0	546.0	-290.0
9	17	54	17	115	0.0	-129132.0	613.0	-82.0
9	17	54	17	116	1.0	-123706.0	663.0	101.0
9	17	54	17	116	2.0	-119545.0	719.0	143.0
9	17	54	17	117	3.0	-116840.0	780.0	110.0
9	17	54	17	117	4.0	-114761.0	851.0	-182.0
9	17	54	17	118	5.0	-112747.0	890.0	-297.0
9	17	54	17	118	6.0	-110534.0	936.0	-187.0
9	17	54	17	119	7.0	-108465.0	1001.0	-161.0
9	17	54	17	120	8.0	-106758.0	1042.0	-550.0
9	17	54	17	120	9.0	-106393.0	1090.0	-271.0
9	17	54	17	121	10.0	-108062.0	1140.0	153.0
9	17	54	17	121	11.0	-111875.0	1206.0	314.0
9	17	54	17	122	12.0	-117007.0	1261.0	509.0
9	17	54	17	122	14.0	-129316.0	1348.0	-282.0
9	17	54	17	123	15.0	-135922.0	1368.0	-157.0
9	17	54	17	124	16.0	-142420.0	1414.0	-641.0
9	17	54	17	124	17.0	-148816.0	1452.0	-449.0
9	17	54	17	125	18.0	-154682.0	1521.0	169.0
9	17	54	17	125	19.0	-160204.0	1540.0	43.0
9	17	54	17	158	20.0	-165582.0	1587.0	51.0
9	17	54	17	158	21.0	-170205.0	1604.0	585.0
9	17	54	17	159	22.0	-173959.0	1652.0	768.0
9	17	54	17	159	23.0	-176742.0	1680.0	345.0
9	17	54	17	160	24.0	-178777.0	1708.0	414.0
9	17	54	17	161	25.0	-180288.0	1731.0	312.0
9	17	54	17	161	26.0	-181329.0	1748.0	-231.0
9	17	54	17	162	27.0	-181652.0	1766.0	-169.0
9	17	54	17	162	28.0	-182167.0	1800.0	187.0
9	17	54	17	163	29.0	-182082.0	1815.0	246.0
9	17	54	17	163	30.0	-181667.0	1822.0	193.0
9	17	54	17	164	31.0	-181161.0	1825.0	749.0
9	17	54	17	165	32.0	-180322.0	1869.0	1076.0
9	17	54	17	165	33.0	-179812.0	1877.0	677.0
9	17	54	17	166	34.0	-179424.0	1896.0	311.0
9	17	54	17	166	36.0	-177863.0	1886.0	358.0
9	17	54	17	167	37.0	-176402.0	1915.0	329.0
9	17	54	17	168	38.0	-174431.0	1914.0	592.0
9	17	54	17	168	39.0	-172805.0	1943.0	493.0
9	17	54	17	169	40.0	-171009.0	1928.0	548.0
9	17	54	17	169	41.0	-169116.0	1926.0	539.0
9	17	54	17	170	42.0	-167306.0	1926.0	574.0
9	17	54	17	202	43.0	-165417.0	1933.0	992.0
9	17	54	17	203	44.0	-163816.0	1940.0	483.0
9	17	54	17	203	45.0	-162196.0	1922.0	221.0
9	17	54	17	204	46.0	-161070.0	1913.0	503.0
9	17	54	17	205	47.0	-160634.0	1897.0	361.0
9	17	54	17	205	48.0	-160436.0	1896.0	272.0
9	17	54	17	206	49.0	-160660.0	1913.0	669.0
9	17	54	17	206	50.0	-161491.0	1892.0	1023.0
9	17	54	17	207	51.0	-162225.0	1890.0	901.0
9	17	54	17	207	52.0	-162437.0	1911.0	574.0
9	17	54	17	208	53.0	-163085.0	1923.0	224.0
9	17	54	17	209	54.0	-164086.0	1928.0	-471.0
9	17	54	17	209	55.0	-165346.0	1939.0	34.0
9	17	54	17	210	56.0	-166353.0	1926.0	899.0
9	17	54	17	210	57.0	-167314.0	1902.0	786.0
9	17	54	17	211	59.0	-168921.0	1880.0	1158.0
9	17	54	17	211	60.0	-168697.0	1894.0	1217.0
9	17	54	17	212	61.0	-168657.0	1866.0	974.0
9	17	54	17	213	62.0	-168723.0	1870.0	1289.0
9	17	54	17	213	63.0	-168438.0	1884.0	1199.0
9	17	54	17	214	64.0	-167691.0	1903.0	703.0
9	17	54	17	247	65.0	-166827.0	1890.0	734.0
9	17	54	17	248	66.0	-165883.0	1916.0	869.0
9	17	54	17	249	67.0	-164266.0	1889.0	558.0
9	17	54	17	249	68.0	-162658.0	1879.0	778.0
9	17	54	17	250	69.0	-161319.0	1867.0	933.0
9	17	54	17	250	70.0	-159512.0	1847.0	984.0
9	17	54	17	251	71.0	-157184.0	1880.0	1244.0
9	17	54	17	252	72.0	-154961.0	1888.0	1110.0
9	17	54	17	252	73.0	-153087.0	1869.0	702.0
9	17	54	17	253	74.0	-151297.0	1867.0	729.0
9	17	54	17	253	75.0	-149208.0	1868.0	634.0
9	17	54	17	254	76.0	-147607.0	1853.0	594.0
9	17	54	17	254	77.0	-146351.0	1869.0	841.0
9	17	54	17	255	78.0	-144418.0	1884.0	958.0
9	17	54	17	256	79.0	-142601.0	1889.0	970.0
9	17	54	17	256	81.0	-139761.0	1867.0	1236.0
9	17	54	17	257	82.0	-138511.0	1866.0	1046.0
9	17	54	17	257	83.0	-137472.0	1883.0	636.0
9	17	54	17	258	84.0	-137109.0	1877.0	711.0
9	17	54	17	258	85.0	-136921.0	1862.0	563.0
9	17	54	17	259	86.0	-136677.0	1856.0	283.0
9	17	54	17	292	87.0	-137119.0	1878.0	358.0
9	17	54	17	293	88.0	-138153.0	1847.0	546.0
9	17	54	17	294	89.0	-139601.0	1839.0	646.0
9	17	54	17	295	90.0	-141417.0	1835.0	1168.0
9	17	54	17	295	91.0	-143572.0	1821.0	1283.0
9	17	54	17	296	92.0	-146081.0	1818.0	1029.0
9	17	54	17	296	93.0	-148301.0	1835.0	1018.0
9	17	54	17	297	94.0	-150442.0	1830.0	932.0
9	17	54	17	297	95.0	-152769.0	1813.0	716.0
9	17	54	17	298	96.0	-155159.0	1833.0	946.0
9	17	54	17	299	97.0	-157273.0	1831.0	816.0
9	17	54	17	299	98.0	-159507.0	1823.0	799.0
9	17	54	17	300	99.0	-162136.0	1808.0	468.0
9	17	54	17	300	100.0	-164869.0	1796.0	696.0
9	17	54	17	301	101.0	-167181.0	1774.0	1390.0
9	17	54	17	301	104.0	-172765.0	1728.0	1332.0
9	17	54	17	302	105.0	-173993.0	1729.0	1242.0
9	17	54	17	303	106.0	-175315.0	1713.0	956.0
9	17	54	17	303	107.0	-176913.0	1694.0	781.0
9	17	54	17	304	108.0	-178407.0	1686.0	789.0
9	17	54	17	304	109.0	-179426.0	1669.0	826.0
9	17	54	17	337	110.0	-180254.0	1636.0	683.0
9	17	54	17	382	111.0	-180782.0	1613.0	1062.0
9	17	54	17	383	112.0	-180654.0	1591.0	1114.0
9	17	54	17	383	113.0	-179764.0	1564.0	1037.0
9	17	54	17	384	114.0	-178185.0	1571.0	961.0
9	17	54	17	385	115.0	-176734.0	1550.0	968.0
9	17	54	17	385	116.0	-175133.0	1508.0	646.0
9	17	54	17	386	117.0	-173119.0	1479.0	558.0
9	17	54	17	387	118.0	-171566.0	1461.0	932.0
9	17	54	17	387	119.0	-170075.0	1436.0	694.0
9	17	54	17	388	120.0	-168613.0	1405.0	421.0
9	17	54	17	388	121.0	-167232.0	1365.0	854.0
9	17	54	17	389	122.0	-166084.0	1336.0	1266.0
9	17	54	17	389	123.0	-164766.0	1309.0	880.0
9	17	54	17	390	124.0	-163092.0	1269.0	461.0
9	17	54	17	391	126.0	-160459.0	1193.0	481.0
9	17	54	17	391	127.0	-159732.0	1153.0	564.0
9	17	54	17	392	149.0	-152056.0	296.0	-682.0
9	17	54	17	392	150.0	-152204.0	261.0	-211.0
9	17	54	17	393	151.0	-152411.0	208.0	-477.0
9	17	54	17	393	152.0	-152522.0	176.0	-265.0
9	17	54	17	394	153.0	-152569.0	119.0	-91.0
9	17	54	17	395	154.0	-152698.0	75.0	-312.0
9	17	54	17	427	155.0	-152907.0	41.0	-832.0
9	17	54	17	427	156.0	-153339.0	13.0	-656.0
9	17	54	17	428	157.0	-153837.0	-46.0	-372.0
9	17	54	17	429	158.0	-154437.0	-94.0	-238.0
9	17	54	17	429	159.0	-155451.0	-154.0	-34.0
9	17	54	17	430	160.0	-156939.0	-210.0	30.0
9	17	54	17	431	161.0	-158397.0	-247.0	73.0
9	17	54	17	431	162.0	-160076.0	-262.0	337.0
9	17	54	17	432	163.0	-161701.0	-304.0	542.0
9	17	54	17	432	164.0	-163171.0	-365.0	-119.0
9	17	54	17	433	165.0	-165046.0	-421.0	-259.0
9	17	54	17	434	166.0	-167143.0	-479.0	-313.0
9	17	54	17	434	167.0	-169052.0	-516.0	-221.0
9	17	54	17	435	168.0	-170211.0	-558.0	-26.0
9	17	54	17	435	169.0	-170630.0	-617.0	193.0
9	17	54	17	436	171.0	-170117.0	-708.0	300.0
9	17	54	17	436	172.0	-169032.0	-748.0	336.0
9	17	54	17	437	173.0	-168514.0	-786.0	-12.0
9	17	54	17	438	174.0	-168312.0	-841.0	20.0
9	17	54	17	438	175.0	-168192.0	-886.0	-165.0
9	17	54	17	439	176.0	-168194.0	-944.0	-408.0
9	17	54	17	472	177.0	-168214.0	-983.0	-30.0
9	17	54	17	473	178.0	-167793.0	-1049.0	54.0
9	17	54	17	474	179.0	-166550.0	-1093.0	268.0
9	17	54	17	474	180.0	-165376.0	-1146.0	319.0
9	17	54	17	475	181.0	-164689.0	-1193.0	550.0
9	17	54	17	475	182.0	-163715.0	-1239.0	424.0
9	17	54	17	476	183.0	-162754.0	-1268.0	188.0
9	17	54	17	477	184.0	-161460.0	-1326.0	705.0
9	17	54	17	477	185.0	-160025.0	-1365.0	894.0
9	17	54	17	478	186.0	-158345.0	-1400.0	839.0
9	17	54	17	478	187.0	-156261.0	-1471.0	1663.0
9	17	54	17	479	188.0	-154036.0	-1501.0	2562.0
9	17	54	17	480	189.0	-151929.0	-1554.0	2849.0
9	17	54	17	480	190.0	-150058.0	-1606.0	3389.0
9	17	54	17	481	191.0	-148406.0	-1647.0	3516.0
9	17	54	17	481	193.0	-146234.0	-1733.0	612.0
9	17	54	17	482	194.0	-145901.0	-1786.0	-2554.0
9	17	54	17	482	195.0	-145635.0	-1851.0	-7156.0
9	17	54	17	483	196.0	-146018.0	-1904.0	-13119.0
9	17	54	17	484	197.0	-146868.0	-1929.0	-17774.0
9	17	54	17	484	198.0	-147432.0	-1983.0	-20629.0
9	17	54	17	485	199.0	-147934.0	-2027.0	-25503.0
9	17	54	17	517	200.0	-148656.0	-2089.0	-31598.0
9	17	54	17	518	201.0	-148848.0	-2114.0	-37762.0
9	17	54	17	519	202.0	-148702.0	-2162.0	-43771.0
9	17	54	17	519	203.0	-148356.0	-2217.0	-48159.0
9	17	54	17	520	204.0	-147442.0	-2252.0	-51506.0
9	17	54	17	520	205.0	-146292.0	-2285.0	-53480.0
9	17	54	17	521	206.0	-144621.0	-2307.0	-52190.0
9	17	54	17	522	207.0	-142721.0	-2369.0	-46392.0
9	17	54	17	522	208.0	-140784.0	-2426.0	-39358.0
9	17	54	17	523	209.0	-139114.0	-2480.0	-31413.0
9	17	54	17	523	210.0	-137537.0	-2529.0	-19814.0
9	17	54	17	524	211.0	-135941.0	-2576.0	-7621.0
9	17	54	17	524	212.0	-134465.0	-2606.0	-3206.0
9	17	54	17	525	213.0	-133812.0	-2648.0	-1539.0
9	17	54	17	526	214.0	-134309.0	-2678.0	-1627.0
9	17	54	17	526	216.0	-138937.0	-2795.0	-2109.0
9	17	54	17	527	217.0	-142307.0	-2820.0	-2511.0
9	17	54	17	528	218.0	-146071.0	-2882.0	-2437.0
9	17	54	17	528	219.0	-150153.0	-2933.0	-2247.0
9	17	54	17	529	220.0	-154806.0	-2999.0	-2532.0
9	17	54	17	529	221.0	-159387.0	-3014.0	-2317.0
9	17	54	17	562	222.0	-160284.0	-3062.0	-2171.0
9	17	54	17	563	223.0	-152586.0	-3092.0	-2393.0
9	17	54	17	564	224.0	-140003.0	-3144.0	-2028.0
9	17	54	17	564	225.0	-125811.0	-3186.0	-1612.0
9	17	54	17	565	226.0	-114598.0	-3241.0	-1613.0
9	17	54	17	566	227.0	-110637.0	-3286.0	-1807.0
9	17	54	17	566	228.0	-113349.0	-3331.0	-1256.0
9	17	54	17	567	229.0	-120920.0	-3389.0	-1083.0
9	17	54	17	567	230.0	-131451.0	-3439.0	-834.0
9	17	54	17	568	231.0	-143837.0	-3471.0	-477.0
9	17	54	17	569	232.0	-157286.0	-3509.0	-269.0
9	17	54	17	569	233.0	-170188.0	-3558.0	-296.0
9	17	54	17	570	234.0	-180199.0	-3599.0	-634.0
9	17	54	17	570	235.0	-186387.0	-3634.0	-643.0
9	17	54	17	571	236.0	-188881.0	-3684.0	-693.0
9	17	54	17	572	238.0	-186505.0	-3768.0	-923.0
9	17	54	17	572	239.0	-184546.0	-3810.0	-851.0
9	17	54	17	573	240.0	-184296.0	-3869.0	-883.0
9	17	54	17	573	241.0	-186335.0	-3910.0	-722.0
9	17	54	17	574	242.0	-190183.0	-3937.0	-196.0
9	17	54	17	574	243.0	-194331.0	-3987.0	-175.0
9	17	54	17	575	244.0	-196524.0	-4018.0	-514.0
9	17	54	17	607	245.0	-195563.0	-4048.0	-900.0
9	17	54	17	608	246.0	-192224.0	-4099.0	-802.0
9	17	54	17	609	247.0	-188452.0	-4161.0	-717.0
9	17	54	17	609	248.0	-185885.0	-4217.0	-932.0
9	17	54	17	610	249.0	-183953.0	-4254.0	-862.0
9	17	54	17	611	250.0	-180497.0	-4302.0	-414.0
9	17	54	17	611	251.0	-173882.0	-4344.0	-711.0
9	17	54	17	612	252.0	-163781.0	-4379.0	-786.0
9	17	54	17	613	253.0	-152031.0	-4411.0	-918.0
9	17	54	17	613	254.0	-140680.0	-4461.0	-1216.0
9	17	54	17	614	255.0	-132110.0	-4509.0	-1532.0
9	17	54	17	614	0.0	-126618.0	-4551.0	-1047.0
9	17	54	17	615	1.0	-123812.0	-4592.0	-1355.0
9	17	54	17	616	2.0	-123084.0	-4637.0	-1526.0
9	17	54	17	616	3.0	-123309.0	-4702.0	-1006.0
9	17	54	17	617	5.0	-123442.0	-4756.0	-1302.0
9	17	54	17	617	6.0	-123477.0	-4837.0	-1432.0
9	17	54	17	618	7.0	-123922.0	-4872.0	-1486.0
9	17	54	17	618	8.0	-124396.0	-4914.0	-1853.0
9	17	54	17	619	9.0	-124386.0	-4936.0	-2151.0
9	17	54	17	620	10.0	-124022.0	-4997.0	-1932.0
9	17	54	17	652	11.0	-123574.0	-5036.0	-1982.0
9	17	54	17	653	12.0	-123340.0	-5100.0	-1834.0
9	17	54	17	653	13.0	-123574.0	-5146.0	-1840.0
9	17	54	17	654	14.0	-123999.0	-5213.0	-1897.0
9	17	54	17	655	15.0	-124490.0	-5274.0	-2072.0
9	17	54	17	655	16.0	-125130.0	-5305.0	-2319.0
9	17	54	17	656	17.0	-126417.0	-5327.0	-2536.0
9	17	54	17	657	18.0	-128348.0	-5369.0	-2398.0
9	17	54	17	658	19.0	-130523.0	-5435.0	-2596.0
9	17	54	17	658	20.0	-133211.0	-5476.0	-2652.0
9	17	54	17	659	21.0	-136059.0	-5530.0	-2816.0
9	17	54	17	660	22.0	-139247.0	-5592.0	-2776.0
9	17	54	17	660	23.0	-142477.0	-5636.0	-2965.0
9	17	54	17	661	24.0	-145391.0	-5683.0	-2541.0
9	17	54	17	662	25.0	-148308.0	-5724.0	-2674.0
9	17	54	17	662	27.0	-154679.0	-5827.0	-3179.0
9	17	54	17	663	28.0	-158017.0	-5901.0	-3524.0
9	17	54	17	663	29.0	-161342.0	-5909.0	-3959.0
9	17	54	17	664	30.0	-164160.0	-5984.0	-4168.0
9	17	54	17	665	31.0	-166786.0	-6011.0	-3887.0
9	17	54	17	665	32.0	-169096.0	-6062.0	-4233.0
9	17	54	17	666	33.0	-170891.0	-6109.0	-4692.0
9	17	54	17	697	34.0	-172417.0	-6205.0	-4104.0
9	17	54	17	699	35.0	-173411.0	-6233.0	-3724.0
9	17	54	17	700	36.0	-173782.0	-6297.0	-4191.0
9	17	54	17	700	37.0	-173872.0	-6325.0	-4189.0
9	17	54	17	701	38.0	-173542.0	-6364.0	-4392.0
9	17	54	17	702	39.0	-172502.0	-6424.0	-5334.0
9	17	54	17	702	40.0	-170991.0	-6457.0	-5784.0
9	17	54	17	703	41.0	-169199.0	-6498.0	-5557.0
9	17	54	17	703	42.0	-166969.0	-6547.0	-5762.0
9	17	54	17	704	43.0	-165123.0	-6585.0	-6042.0
9	17	54	17	704	44.0	-163215.0	-6639.0	-5927.0
9	17	54	17	742	45.0	-161072.0	-6669.0	-6076.0
9	17	54	17	787	46.0	-158999.0	-6691.0	-6577.0
9	17	54	17	788	47.0	-157112.0	-6732.0	-7091.0
9	17	54	17	789	50.0	-151803.0	-6821.0	-8116.0
9	17	54	17	789	51.0	-149951.0	-6854.0	-8317.0
9	17	54	17	790	52.0	-148272.0	-6864.0	-8245.0
9	17	54	17	791	53.0	-146471.0	-6891.0	-8393.0
9	17	54	17	791	54.0	-145033.0	-6893.0	-8380.0
9	17	54	17	792	55.0	-144082.0	-6930.0	-8351.0
9	17	54	17	792	56.0	-143269.0	-6936.0	-8274.0
9	17	54	17	793	57.0	-142835.0	-6931.0	-8499.0
9	17	54	17	794	58.0	-142982.0	-6939.0	-8697.0
9	17	54	17	794	59.0	-143822.0	-6934.0	-8643.0
9	17	54	17	795	60.0	-144972.0	-6898.0	-8951.0
9	17	54	17	796	61.0	-146286.0	-6876.0	-9230.0
9	17	54	17	797	72.0	-172416.0	-6307.0	-6593.0
9	17	54	17	798	95.0	-159486.0	-3186.0	1049.0
9	17	54	17	798	96.0	-156205.0	-3005.0	1272.0
9	17	54	17	799	97.0	-153076.0	-2866.0	1225.0
9	17	54	17	799	98.0	-150770.0	-2695.0	888.0
9	17	54	17	800	99.0	-149003.0	-2557.0	1045.0
9	17	54	17	801	100.0	-147871.0	-2375.0	1578.0
9	17	54	17	831	101.0	-147006.0	-2237.0	1754.0
9	17	54	17	831	102.0	-146708.0	-2087.0	1707.0
9	17	54	17	832	103.0	-147022.0	-1962.0	2007.0
9	17	54	17	833	104.0	-148106.0	-1815.0	2304.0
9	17	54	17	833	105.0	-149336.0	-1677.0	2052.0
9	17	54	17	834	106.0	-150547.0	-1523.0	2091.0
9	17	54	17	835	107.0	-151939.0	-1366.0	2213.0
9	17	54	17	835	108.0	-153481.0	-1238.0	2141.0
9	17	54	17	836	109.0	-155159.0	-1131.0	2081.0
9	17	54	17	837	110.0	-156603.0	-1011.0	2203.0
9	17	54	17	838	111.0	-158216.0	-884.0	2110.0
9	17	54	17	838	112.0	-160095.0	-769.0	2343.0
9	17	54	17	839	113.0	-162148.0	-652.0	2479.0
9	17	54	17	840	114.0	-164158.0	-552.0	2514.0
9	17	54	17	840	115.0	-166197.0	-407.0	2540.0
9	17	54	17	841	117.0	-169737.0	-194.0	2424.0
9	17	54	17	842	118.0	-170750.0	-89.0	2654.0
9	17	54	17	842	119.0	-169937.0	14.0	2539.0
9	17	54	17	843	120.0	-166269.0	101.0	2216.0
9	17	54	17	844	121.0	-161504.0	211.0	2598.0
9	17	54	17	844	122.0	-159098.0	315.0	2808.0
9	17	54	17	875	123.0	-160079.0	395.0	2718.0
9	17	54	17	876	124.0	-163826.0	496.0	3054.0
9	17	54	17	877	125.0	-171145.0	598.0	2921.0
9	17	54	17	877	126.0	-177231.0	661.0	2614.0
9	17	54	17	878	127.0	-178798.0	756.0	2851.0
9	17	54	17	879	128.0	-179509.0	835.0	2559.0
9	17	54	17	879	129.0	-178496.0	919.0	1771.0
9	17	54	17	880	130.0	-177878.0	1004.0	2183.0
9	17	54	17	881	131.0	-178076.0	1071.0	3193.0
9	17	54	17	881	132.0	-176571.0	1139.0	3372.0
9	17	54	17	882	133.0	-173283.0	1219.0	3306.0
9	17	54	17	883	134.0	-169207.0	1284.0	3484.0
9	17	54	17	884	135.0	-164743.0	1363.0	3229.0
9	17	54	17	884	136.0	-161911.0	1429.0	3317.0
9	17	54	17	885	137.0	-161149.0	1482.0	3354.0
9	17	54	17	885	139.0	-167344.0	1634.0	2947.0
9	17	54	17	886	140.0	-170414.0	1683.0	3306.0
9	17	54	17	887	141.0	-171863.0	1747.0	3535.0
9	17	54	17	887	142.0	-171507.0	1824.0	3732.0
9	17	54	17	888	143.0	-168951.0	1876.0	3826.0
9	17	54	17	889	144.0	-164421.0	1919.0	3909.0
9	17	54	17	889	145.0	-158317.0	2012.0	3974.0
9	17	54	17	921	146.0	-151164.0	2062.0	4011.0
9	17	54	17	921	147.0	-143534.0	2149.0	3840.0
9	17	54	17	922	148.0	-136012.0	2186.0	3551.0
9	17	54	17	923	149.0	-128789.0	2241.0	3864.0
9	17	54	17	923	150.0	-122661.0	2323.0	3943.0
9	17	54	17	924	151.0	-118187.0	2364.0	4094.0
9	17	54	17	925	152.0	-115659.0	2400.0	4276.0
9	17	54	17	925	153.0	-114886.0	2472.0	4548.0
9	17	54	17	926	154.0	-115657.0	2544.0	4402.0
9	17	54	17	927	155.0	-117394.0	2613.0	4361.0
9	17	54	17	927	156.0	-119837.0	2668.0	4501.0
9	17	54	17	928	157.0	-122696.0	2724.0	4423.0
9	17	54	17	929	158.0	-125656.0	2758.0	4488.0
9	17	54	17	930	159.0	-128708.0	2807.0	4561.0
9	17	54	17	931	160.0	-131909.0	2853.0	4336.0
9	17	54	17	931	162.0	-138029.0	2959.0	4809.0
9	17	54	17	932	163.0	-141416.0	2973.0	4849.0
9	17	54	17	933	164.0	-144988.0	3029.0	4814.0
9	17	54	17	933	165.0	-148495.0	3077.0	4829.0
9	17	54	17	934	166.0	-152165.0	3131.0	4778.0
9	17	54	17	934	167.0	-155567.0	3178.0	4710.0
9	17	54	17	967	168.0	-158733.0	3216.0	4713.0
9	17	54	17	968	169.0	-161592.0	3214.0	4792.0
9	17	54	17	969	170.0	-164206.0	3244.0	4738.0
9	17	54	17	969	171.0	-166281.0	3269.0	5098.0
9	17	54	17	970	172.0	-167395.0	3287.0	5383.0
9	17	54	17	971	173.0	-168051.0	3312.0	5577.0
9	17	54	17	971	174.0	-168446.0	3351.0	5430.0
9	17	54	17	972	175.0	-168837.0	3373.0	5310.0
9	17	54	17	973	176.0	-169121.0	3393.0	5113.0
9	17	54	17	973	177.0	-169454.0	3414.0	4441.0
9	17	54	17	974	178.0	-169689.0	3438.0	4245.0
9	17	54	17	975	179.0	-170326.0	3449.0	4831.0
9	17	54	17	975	180.0	-171195.0	3461.0	5654.0
9	17	54	17	976	181.0	-172501.0	3471.0	5888.0
9	17	54	17	977	182.0	-174507.0	3499.0	5930.0
9	17	54	17	977	184.0	-179609.0	3496.0	5989.0
9	17	54	17	978	185.0	-181792.0	3510.0	5581.0
9	17	54	17	978	186.0	-183768.0	3491.0	5412.0
9	17	54	17	979	187.0	-185424.0	3504.0	5310.0
9	17	54	17	980	188.0	-186830.0	3504.0	5179.0
9	17	54	17	980	189.0	-187691.0	3513.0	5103.0
9	17	54	17	981	190.0	-187957.0	3495.0	5541.0
9	17	54	18	11	191.0	-187791.0	3526.0	6003.0
9	17	54	18	12	192.0	-187384.0	3508.0	5921.0
9	17	54	18	13	193.0	-186599.0	3493.0	6108.0
9	17	54	18	13	194.0	-185617.0	3470.0	6135.0
9	17	54	18	14	195.0	-184575.0	3498.0	5973.0
9	17	54	18	15	196.0	-183285.0	3516.0	6144.0
9	17	54	18	16	197.0	-181722.0	3513.0	6042.0
9	17	54	18	17	198.0	-180179.0	3508.0	5778.0
9	17	54	18	18	199.0	-178726.0	3511.0	5983.0
9	17	54	18	19	200.0	-177359.0	3496.0	6029.0
9	17	54	18	19	201.0	-176114.0	3484.0	5940.0
9	17	54	18	20	202.0	-174750.0	3483.0	6065.0
9	17	54	18	21	203.0	-173102.0	3474.0	6584.0
9	17	54	18	21	204.0	-171185.0	3484.0	6448.0
9	17	54	18	22	205.0	-169484.0	3488.0	6053.0
9	17	54	18	22	207.0	-165674.0	3479.0	6332.0
9	17	54	18	23	208.0	-163931.0	3508.0	6188.0
9	17	54	18	24	209.0	-162348.0	3509.0	6188.0
9	17	54	18	24	210.0	-160821.0	3468.0	6249.0
9	17	54	18	25	211.0	-159421.0	3490.0	6519.0
9	17	54	18	25	212.0	-157842.0	3489.0	6651.0
9	17	54	18	26	213.0	-156226.0	3501.0	6488.0
9	17	54	18	119	214.0	-154795.0	3480.0	6785.0
9	17	54	18	142	215.0	-153771.0	3499.0	6674.0
9	17	54	18	143	216.0	-153018.0	3494.0	6241.0
9	17	54	18	144	217.0	-152503.0	3501.0	6076.0
9	17	54	18	144	218.0	-152279.0	3514.0	6141.0
9	17	54	18	145	219.0	-152061.0	3506.0	6037.0
9	17	54	18	145	220.0	-151731.0	3502.0	5968.0
9	17	54	18	146	221.0	-151185.0	3498.0	6451.0
9	17	54	18	146	222.0	-150627.0	3495.0	6556.0
9	17	54	18	147	223.0	-150388.0	3497.0	6369.0
9	17	54	18	147	224.0	-150575.0	3501.0	6570.0
9	17	54	18	148	225.0	-151419.0	3490.0	6362.0
9	17	54	18	148	226.0	-152794.0	3508.0	5345.0
9	17	54	18	149	227.0	-154435.0	3498.0	5688.0
9	17	54	18	150	228.0	-155898.0	3490.0	6231.0
9	17	54	18	150	3.0	-175456.0	3027.0	6141.0
9	17	54	18	151	11.0	-155980.0	2789.0	6115.0
9	17	54	18	151	12.0	-154956.0	2765.0	5793.0
9	17	54	18	152	13.0	-154776.0	2723.0	5874.0
9	17	54	18	152	14.0	-155147.0	2678.0	5896.0
9	17	54	18	153	15.0	-155769.0	2677.0	5930.0
9	17	54	18	153	16.0	-156449.0	2624.0	6268.0
9	17	54	18	154	17.0	-157139.0	2599.0	6165.0
9	17	54	18	155	18.0	-158076.0	2554.0	5432.0
9	17	54	18	165	19.0	-159107.0	2530.0	5088.0
9	17	54	18	166	20.0	-160696.0	2481.0	5793.0
9	17	54	18	167	21.0	-162463.0	2428.0	6003.0
9	17	54	18	167	22.0	-164426.0	2398.0	5721.0
9	17	54	18	168	23.0	-166076.0	2369.0	5641.0
9	17	54	18	168	24.0	-167839.0	2320.0	5733.0
9	17	54	18	169	25.0	-169495.0	2265.0	5403.0
9	17	54	18	169	26.0	-170806.0	2213.0	5511.0
9	17	54	18	170	27.0	-171592.0	2184.0	5728.0
9	17	54	18	189	28.0	-171704.0	2143.0	5462.0
9	17	54	18	190	29.0	-172092.0	2099.0	5021.0
9	17	54	18	191	30.0	-172793.0	2061.0	4853.0
9	17	54	18	191	31.0	-173816.0	2024.0	5087.0
9	17	54	18	192	32.0	-174694.0	1983.0	5094.0
9	17	54	18	192	33.0	-175457.0	1943.0	4763.0
9	17	54	18	193	34.0	-176036.0	1886.0	4828.0
9	17	54	18	194	35.0	-175928.0	1840.0	4952.0
9	17	54	18	194	36.0	-175405.0	1791.0	4858.0
9	17	54	18	195	37.0	-174506.0	1717.0	5196.0
9	17	54	18	195	38.0	-173550.0	1684.0	5162.0
9	17	54	18	196	39.0	-172506.0	1646.0	5248.0
9	17	54	18	196	40.0	-171697.0	1593.0	5464.0
9	17	54	18	197	41.0	-170870.0	1558.0	5248.0
9	17	54	18	197	42.0	-170312.0	1517.0	4675.0
9	17	54	18	213	43.0	-170001.0	1483.0	4550.0
9	17	54	18	214	44.0	-169699.0	1415.0	4489.0
9	17	54	18	214	45.0	-169091.0	1354.0	4523.0
9	17	54	18	215	46.0	-168229.0	1309.0	4883.0
9	17	54	18	215	47.0	-167004.0	1267.0	4996.0
9	17	54	18	216	48.0	-165281.0	1246.0	4814.0
9	17	54	18	217	49.0	-163157.0	1183.0	4883.0
9	17	54	18	237	50.0	-160799.0	1132.0	4945.0
9	17	54	18	237	51.0	-158666.0	1070.0	4728.0
9	17	54	18	238	52.0	-156475.0	1037.0	4480.0
9	17	54	18	239	53.0	-154290.0	976.0	4791.0
9	17	54	18	239	54.0	-152182.0	933.0	5031.0
9	17	54	18	240	55.0	-150053.0	864.0	5368.0
9	17	54	18	240	56.0	-148009.0	814.0	5552.0
9	17	54	18	241	57.0	-146043.0	759.0	5281.0
9	17	54	18	241	58.0	-144207.0	739.0	5063.0
9	17	54	18	242	59.0	-142696.0	682.0	5091.0
9	17	54	18	242	60.0	-141791.0	611.0	5166.0
9	17	54	18	243	61.0	-141402.0	561.0	5073.0
9	17	54	18	244	62.0	-140821.0	510.0	4831.0
9	17	54	18	244	63.0	-140179.0	450.0	4625.0
9	17	54	18	245	64.0	-140099.0	395.0	4748.0
9	17	54	18	260	65.0	-140350.0	341.0	4896.0
9	17	54	18	260	66.0	-140871.0	306.0	4953.0
9	17	54	18	261	67.0	-141837.0	253.0	4501.0
9	17	54	18	261	68.0	-143347.0	194.0	4868.0
9	17	54	18	262	69.0	-145029.0	148.0	5669.0
9	17	54	18	263	70.0	-147141.0	119.0	5313.0
9	17	54	18	263	71.0	-149992.0	87.0	4997.0
9	17	54	18	285	72.0	-153077.0	51.0	5199.0
9	17	54	18	286	73.0	-155715.0	8.0	4896.0
9	17	54	18	286	74.0	-158209.0	-64.0	4816.0
9	17	54	18	287	75.0	-161011.0	-126.0	5152.0
9	17	54	18	287	76.0	-163715.0	-182.0	4942.0
9	17	54	18	288	77.0	-165888.0	-229.0	4931.0
9	17	54	18	288	78.0	-168175.0	-255.0	5331.0
9	17	54	18	289	79.0	-170829.0	-296.0	5247.0
9	17	54	18	290	80.0	-173974.0	-349.0	4951.0
9	17	54	18	290	81.0	-177307.0	-416.0	4881.0
9	17	54	18	291	82.0	-180615.0	-449.0	4856.0
9	17	54	18	291	83.0	-183572.0	-468.0	4598.0
9	17	54	18	292	84.0	-185883.0	-539.0	5054.0
9	17	54	18	292	85.0	-187551.0	-607.0	5266.0
9	17	54	18	293	86.0	-188763.0	-621.0	5686.0
9	17	54	18	308	87.0	-189027.0	-689.0	6453.0
9	17	54	18	309	88.0	-188165.0	-734.0	6499.0
9	17	54	18	310	89.0	-186721.0	-792.0	6934.0
9	17	54	18	310	90.0	-184946.0	-822.0	7691.0
9	17	54	18	311	91.0	-183115.0	-871.0	7959.0
9	17	54	18	311	92.0	-180962.0	-929.0	7616.0
9	17	54	18	312	93.0	-179257.0	-959.0	6834.0
9	17	54	18	313	94.0	-177524.0	-1004.0	5080.0
9	17	54	18	313	95.0	-175324.0	-1061.0	1985.0
9	17	54	18	314	96.0	-172469.0	-1112.0	-2008.0
9	17	54	18	314	97.0	-169291.0	-1157.0	-7506.0
9	17	54	18	315	98.0	-165961.0	-1200.0	-12984.0
9	17	54	18	315	99.0	-161932.0	-1254.0	-17009.0
9	17	54	18	316	100.0	-157411.0	-1304.0	-22114.0
9	17	54	18	316	101.0	-152482.0	-1340.0	-28765.0
9	17	54	18	331	102.0	-147137.0	-1402.0	-34972.0
9	17	54	18	332	103.0	-141231.0	-1449.0	-40482.0
9	17	54	18	332	104.0	-135065.0	-1494.0	-44790.0
9	17	54	18	354	105.0	-128982.0	-1544.0	-48601.0
9	17	54	18	355	106.0	-123506.0	-1606.0	-50436.0
9	17	54	18	355	107.0	-118704.0	-1649.0	-48496.0
9	17	54	18	356	108.0	-114587.0	-1684.0	-42515.0
9	17	54	18	356	109.0	-111186.0	-1747.0	-35506.0
9	17	54	18	357	110.0	-108572.0	-1778.0	-27367.0
9	17	54	18	357	111.0	-106742.0	-1839.0	-15837.0
9	17	54	18	358	112.0	-105663.0	-1885.0	-4054.0
9	17	54	18	359	113.0	-105340.0	-1919.0	199.0
9	17	54	18	359	114.0	-106042.0	-1964.0	1817.0
9	17	54	18	360	115.0	-107869.0	-2007.0	1549.0
9	17	54	18	360	116.0	-110174.0	-2035.0	1441.0
9	17	54	18	361	117.0	-113303.0	-2087.0	1526.0
9	17	54	18	361	118.0	-117534.0	-2147.0	1793.0
9	17	54	18	362	119.0	-122598.0	-2210.0	1725.0
9	17	54	18	362	120.0	-128306.0	-2252.0	1144.0
9	17	54	18	363	121.0	-134939.0	-2316.0	703.0
9	17	54	18	364	122.0	-141452.0	-2359.0	476.0
9	17	54	18	364	123.0	-143998.0	-2393.0	856.0
9	17	54	18	377	124.0	-138132.0	-2453.0	977.0
9	17	54	18	378	125.0	-127812.0	-2493.0	1264.0
9	17	54	18	378	126.0	-116688.0	-2529.0	1658.0
9	17	54	18	379	127.0	-109697.0	-2571.0	2081.0
9	17	54	18	379	128.0	-109959.0	-2615.0	2137.0
9	17	54	18	380	129.0	-117042.0	-2649.0	1877.0
9	17	54	18	380	130.0	-128827.0	-2702.0	2006.0
9	17	54	18	381	131.0	-142750.0	-2751.0	2269.0
9	17	54	18	381	132.0	-157709.0	-2771.0	2168.0
9	17	54	18	402	133.0	-173218.0	-2817.0	2093.0
9	17	54	18	403	134.0	-187373.0	-2871.0	2678.0
9	17	54	18	404	135.0	-198916.0	-2932.0	2788.0
9	17	54	18	404	136.0	-206392.0	-2951.0	2655.0
9	17	54	18	405	137.0	-210527.0	-2997.0	2779.0
9	17	54	18	406	138.0	-212044.0	-3035.0	2539.0
9	17	54	18	406	139.0	-210669.0	-3111.0	2425.0
9	17	54	18	407	140.0	-207286.0	-3132.0	2415.0
9	17	54	18	407	141.0	-204849.0	-3163.0	2519.0
9	17	54	18	408	142.0	-205087.0	-3213.0	2249.0
9	17	54	18	408	143.0	-206919.0	-3232.0	2176.0
9	17	54	18	409	144.0	-208214.0	-3296.0	2231.0
9	17	54	18	409	145.0	-207561.0	-3351.0	2199.0
9	17	54	18	410	146.0	-204110.0	-3386.0	2504.0
9	17	54	18	410	147.0	-197830.0	-3445.0	2723.0
9	17	54	18	426	148.0	-191113.0	-3496.0	2497.0
9	17	54	18	426	149.0	-185892.0	-3554.0	2457.0
9	17	54	18	427	150.0	-182761.0	-3596.0	2096.0
9	17	54	18	428	151.0	-180323.0	-3622.0	2061.0
9	17	54	18	428	152.0	-176059.0	-3650.0	2083.0
9	17	54	18	429	153.0	-168781.0	-3684.0	1994.0
9	17	54	18	450	154.0	-158839.0	-3756.0	1860.0
9	17	54	18	450	155.0	-147855.0	-3812.0	1941.0
9	17	54	18	451	156.0	-138042.0	-3844.0	2071.0
9	17	54	18	452	157.0	-130695.0	-3872.0	1706.0
9	17	54	18	452	158.0	-126245.0	-3923.0	1520.0
9	17	54	18	453	159.0	-124457.0	-3963.0	1413.0
9	17	54	18	453	160.0	-124548.0	-4002.0	1352.0
9	17	54	18	454	161.0	-125785.0	-4032.0	882.0
9	17	54	18	454	162.0	-127191.0	-4086.0	683.0
9	17	54	18	455	163.0	-128639.0	-4106.0	664.0
9	17	54	18	455	164.0	-129926.0	-4185.0	8.0
9	17	54	18	456	165.0	-131231.0	-4232.0	41.0
9	17	54	18	457	166.0	-132727.0	-4272.0	897.0
9	17	54	18	457	167.0	-133976.0	-4331.0	823.0
9	17	54	18	458	168.0	-134954.0	-4369.0	865.0
9	17	54	18	473	169.0	-135651.0	-4417.0	914.0
9	17	54	18	474	170.0	-136261.0	-4464.0	424.0
9	17	54	18	475	171.0	-137302.0	-4507.0	348.0
9	17	54	18	475	172.0	-138574.0	-4556.0	556.0
9	17	54	18	476	173.0	-139955.0	-4579.0	21.0
9	17	54	18	477	174.0	-141783.0	-4634.0	-14.0
9	17	54	18	477	175.0	-144114.0	-4687.0	468.0
9	17	54	18	478	176.0	-146519.0	-4731.0	281.0
9	17	54	18	478	177.0	-148770.0	-4761.0	12.0
9	17	54	18	479	178.0	-151312.0	-4814.0	-121.0
9	17	54	18	480	179.0	-154340.0	-4869.0	-500.0
9	17	54	18	480	180.0	-158004.0	-4922.0	-777.0
9	17	54	18	481	181.0	-162052.0	-4974.0	-1006.0
9	17	54	18	481	182.0	-165601.0	-5049.0	-1071.0
9	17	54	18	482	183.0	-168159.0	-5103.0	-957.0
9	17	54	18	500	184.0	-170056.0	-5128.0	-776.0
9	17	54	18	501	185.0	-171679.0	-5179.0	-852.0
9	17	54	18	501	186.0	-173067.0	-5224.0	-1206.0
9	17	54	18	502	187.0	-174301.0	-5276.0	-1281.0
9	17	54	18	502	188.0	-175419.0	-5329.0	-1354.0
9	17	54	18	503	189.0	-176384.0	-5382.0	-1784.0
9	17	54	18	503	190.0	-177174.0	-5399.0	-2032.0
9	17	54	18	504	191.0	-177671.0	-5463.0	-2431.0
9	17	54	18	504	192.0	-177828.0	-5504.0	-2491.0
9	17	54	18	523	193.0	-177834.0	-5558.0	-2312.0
9	17	54	18	524	194.0	-177652.0	-5602.0	-2516.0
9	17	54	18	524	195.0	-177459.0	-5665.0	-2692.0
9	17	54	18	525	196.0	-177481.0	-5717.0	-2774.0
9	17	54	18	525	197.0	-177771.0	-5751.0	-2945.0
9	17	54	18	526	198.0	-178152.0	-5781.0	-3347.0
9	17	54	18	526	199.0	-178431.0	-5827.0	-3590.0
9	17	54	18	527	200.0	-178258.0	-5887.0	-3564.0
9	17	54	18	528	201.0	-177956.0	-5921.0	-4049.0
9	17	54	18	528	202.0	-177534.0	-5947.0	-4163.0
9	17	54	18	529	203.0	-177192.0	-5991.0	-4145.0
9	17	54	18	529	204.0	-176788.0	-5997.0	-4407.0
9	17	54	18	530	205.0	-176454.0	-6044.0	-4675.0
9	17	54	18	530	206.0	-175755.0	-6093.0	-4561.0
9	17	54	18	551	207.0	-175027.0	-6125.0	-4692.0
9	17	54	18	552	208.0	-174461.0	-6149.0	-4888.0
9	17	54	18	553	209.0	-174187.0	-6159.0	-5018.0
9	17	54	18	553	210.0	-173814.0	-6159.0	-5300.0
9	17	54	18	554	211.0	-173479.0	-6164.0	-5889.0
9	17	54	18	555	212.0	-173552.0	-6174.0	-5628.0
9	17	54	18	555	213.0	-173454.0	-6176.0	-5145.0
9	17	54	18	556	214.0	-172856.0	-6160.0	-5167.0
9	17	54	18	574	215.0	-172002.0	-6163.0	-5266.0
9	17	54	18	575	216.0	-171279.0	-6145.0	-5168.0
9	17	54	18	575	217.0	-170786.0	-6129.0	-5289.0
9	17	54	18	576	218.0	-170173.0	-6091.0	-5636.0
9	17	54	18	577	219.0	-169017.0	-6071.0	-5774.0
9	17	54	18	577	220.0	-167687.0	-6045.0	-6087.0
9	17	54	18	578	221.0	-166311.0	-5993.0	-5897.0
9	17	54	18	578	222.0	-164584.0	-5958.0	-5858.0
9	17	54	18	579	223.0	-162559.0	-5906.0	-5804.0
9	17	54	18	579	224.0	-160479.0	-5858.0	-5516.0
9	17	54	18	580	225.0	-158472.0	-5799.0	-5172.0
9	17	54	18	580	226.0	-156097.0	-5751.0	-4896.0
9	17	54	18	581	227.0	-153812.0	-5647.0	-4397.0
9	17	54	18	582	228.0	-151765.0	-5549.0	-4027.0
9	17	54	18	582	229.0	-149997.0	-5471.0	-3942.0
9	17	54	18	583	230.0	-148707.0	-5391.0	-3658.0
9	17	54	18	584	231.0	-147735.0	-5289.0	-3127.0
9	17	54	18	584	232.0	-147146.0	-5168.0	-2754.0
9	17	54	18	585	233.0	-147231.0	-5062.0	-2136.0
9	17	54	18	585	234.0	-148088.0	-4948.0	-1070.0
9	17	54	18	586	235.0	-149513.0	-4831.0	-697.0
9	17	54	18	586	236.0	-151259.0	-4710.0	-574.0
9	17	54	18	587	237.0	-153180.0	-4607.0	326.0
9	17	54	18	597	238.0	-155456.0	-4451.0	598.0
9	17	54	18	598	239.0	-157764.0	-4295.0	484.0
9	17	54	18	599	240.0	-160332.0	-4166.0	823.0
9	17	54	18	599	241.0	-162812.0	-4012.0	1481.0
9	17	54	18	600	242.0	-164851.0	-3876.0	1626.0
9	17	54	18	600	243.0	-166800.0	-3717.0	2091.0
9	17	54	18	621	244.0	-168576.0	-3567.0	2806.0
9	17	54	18	622	245.0	-170031.0	-3425.0	3114.0
9	17	54	18	622	246.0	-170976.0	-3274.0	2929.0
9	17	54	18	623	247.0	-171362.0	-3105.0	3054.0
9	17	54	18	624	248.0	-171374.0	-2964.0	3339.0
9	17	54	18	624	249.0	-171651.0	-2813.0	3393.0
9	17	54	18	625	250.0	-172071.0	-2661.0	3353.0
9	17	54	18	625	251.0	-172559.0	-2513.0	3540.0
9	17	54	18	626	252.0	-172815.0	-2367.0	3669.0
9	17	54	18	627	253.0	-172827.0	-2190.0	4024.0
9	17	54	18	628	254.0	-172854.0	-2051.0	4071.0
9	17	54	18	628	255.0	-172684.0	-1916.0	4159.0
9	17	54	18	629	0.0	-171810.0	-1781.0	4335.0
9	17	54	18	629	1.0	-170482.0	-1634.0	4318.0
9	17	54	18	630	2.0	-169229.0	-1492.0	4141.0
9	17	54	18	631	3.0	-167965.0	-1355.0	3841.0
9	17	54	18	645	4.0	-166776.0	-1229.0	3485.0
9	17	54	18	645	5.0	-165339.0	-1070.0	3458.0
9	17	54	18	646	6.0	-163319.0	-946.0	4221.0
9	17	54	18	646	7.0	-161776.0	-825.0	4334.0
9	17	54	18	647	8.0	-160707.0	-703.0	4361.0
9	17	54	18	648	9.0	-159949.0	-591.0	5004.0
9	17	54	18	648	10.0	-159249.0	-451.0	4914.0
9	17	54	18	672	11.0	-158826.0	-314.0	4529.0
9	17	54	18	672	12.0	-158654.0	-232.0	4419.0
9	17	54	18	673	13.0	-158732.0	-112.0	4098.0
9	17	54	18	674	14.0	-159068.0	18.0	3730.0
9	17	54	18	674	15.0	-159861.0	119.0	3679.0
9	17	54	18	675	16.0	-160814.0	238.0	4021.0
9	17	54	18	676	17.0	-162075.0	324.0	3888.0
9	17	54	18	677	18.0	-163726.0	423.0	3804.0
9	17	54	18	677	19.0	-165102.0	528.0	4473.0
9	17	54	18	678	20.0	-165103.0	634.0	4375.0
9	17	54	18	678	21.0	-162754.0	728.0	3951.0
9	17	54	18	679	22.0	-159176.0	830.0	3854.0
9	17	54	18	680	23.0	-157552.0	934.0	3773.0
9	17	54	18	680	24.0	-159387.0	1014.0	3734.0
9	17	54	18	681	25.0	-163212.0	1088.0	3780.0
9	17	54	18	681	26.0	-170376.0	1182.0	3619.0
9	17	54	18	682	27.0	-176560.0	1274.0	3726.0
9	17	54	18	683	28.0	-177892.0	1351.0	3680.0
9	17	54	18	683	29.0	-178617.0	1424.0	3979.0
9	17	54	18	694	30.0	-178097.0	1507.0	4006.0
9	17	54	18	695	31.0	-176341.0	1583.0	3811.0
9	17	54	18	720	32.0	-173672.0	1648.0	3760.0
9	17	54	18	720	33.0	-171327.0	1729.0	3442.0
9	17	54	18	721	34.0	-169519.0	1783.0	3368.0
9	17	54	18	721	35.0	-167919.0	1861.0	3457.0
9	17	54	18	722	36.0	-166595.0	1934.0	3371.0
9	17	54	18	722	37.0	-166991.0	1998.0	3617.0
9	17	54	18	723	38.0	-168644.0	2081.0	3574.0
9	17	54	18	724	39.0	-171166.0	2136.0	3329.0
9	17	54	18	724	40.0	-173846.0	2171.0	3798.0
9	17	54	18	725	41.0	-175461.0	2271.0	3687.0
9	17	54	18	725	42.0	-175266.0	2328.0	3434.0
9	17	54	18	726	43.0	-173629.0	2413.0	3698.0
9	17	54	18	726	44.0	-170811.0	2466.0	3794.0
9	17	54	18	727	45.0	-166996.0	2514.0	3751.0
9	17	54	18	727	46.0	-162412.0	2593.0	4001.0
9	17	54	18	728	47.0	-157143.0	2650.0	4291.0
9	17	54	18	744	48.0	-151828.0	2709.0	3905.0
9	17	54	18	745	49.0	-146804.0	2758.0	3957.0
9	17	54	18	746	50.0	-142173.0	2833.0	4163.0
9	17	54	18	746	51.0	-138149.0	2884.0	3666.0
9	17	54	18	747	52.0	-135377.0	2938.0	3471.0
9	17	54	18	748	53.0	-134072.0	3010.0	4225.0
9	17	54	18	748	54.0	-134321.0	3082.0	4187.0
9	17	54	18	749	55.0	-135576.0	3133.0	4112.0
9	17	54	18	749	56.0	-137296.0	3156.0	4063.0
9	17	54	18	750	57.0	-139329.0	3229.0	4388.0
9	17	54	18	751	58.0	-141254.0	3291.0	4021.0
9	17	54	18	751	59.0	-142592.0	3328.0	4316.0
9	17	54	18	752	60.0	-143848.0	3379.0	4239.0
9	17	54	18	752	61.0	-144985.0	3432.0	4329.0
9	17	54	18	753	62.0	-146084.0	3473.0	4091.0
9	17	54	18	778	63.0	-147119.0	3531.0	4018.0
9	17	54	18	779	64.0	-147939.0	3561.0	4016.0
9	17	54	18	780	65.0	-148292.0	3578.0	3916.0
9	17	54	18	780	66.0	-148642.0	3614.0	3635.0
9	17	54	18	781	67.0	-149266.0	3662.0	3773.0
9	17	54	18	782	68.0	-150022.0	3694.0	4275.0
9	17	54	18	782	69.0	-150966.0	3738.0	4488.0
9	17	54	18	783	70.0	-151966.0	3779.0	4079.0
9	17	54	18	784	71.0	-153133.0	3816.0	3745.0
9	17	54	18	784	72.0	-154220.0	3838.0	3988.0
9	17	54	18	785	73.0	-154765.0	3875.0	3781.0
9	17	54	18	786	74.0	-154857.0	3900.0	3817.0
9	17	54	18	787	75.0	-155152.0	3920.0	4314.0
9	17	54	18	787	76.0	-155543.0	3931.0	4251.0
9	17	54	18	788	77.0	-156303.0	3938.0	4306.0
9	17	54	18	788	78.0	-157794.0	3974.0	4777.0
9	17	54	18	789	79.0	-159685.0	3969.0	4727.0
9	17	54	18	790	80.0	-161863.0	4009.0	4474.0
9	17	54	18	791	81.0	-163771.0	4026.0	4577.0
9	17	54	18	791	82.0	-165602.0	4033.0	4347.0
9	17	54	18	792	83.0	-167886.0	4020.0	3901.0
9	17	54	18	793	84.0	-170544.0	4038.0	3932.0
9	17	54	18	807	85.0	-173036.0	4063.0	3859.0
9	17	54	18	808	86.0	-175781.0	4087.0	3913.0
9	17	54	18	808	87.0	-178649.0	4068.0	4463.0
9	17	54	18	809	88.0	-181491.0	4063.0	4530.0
9	17	54	18	810	89.0	-184097.0	4060.0	4773.0
9	17	54	18	810	90.0	-186674.0	4053.0	4764.0
9	17	54	18	811	91.0	-189002.0	4071.0	4539.0
9	17	54	18	812	92.0	-191426.0	4059.0	4726.0
9	17	54	18	812	93.0	-193680.0	4075.0	4554.0
9	17	54	18	827	94.0	-195279.0	4081.0	3981.0
9	17	54	18	827	95.0	-195897.0	4079.0	4064.0
9	17	54	18	828	96.0	-195802.0	4099.0	4267.0
9	17	54	18	829	97.0	-194978.0	4078.0	3999.0
9	17	54	18	829	98.0	-193390.0	4055.0	4354.0
9	17	54	18	830	99.0	-191414.0	4073.0	4957.0
9	17	54	18	830	100.0	-189299.0	4070.0	5289.0
9	17	54	18	850	101.0	-187054.0	4048.0	4789.0
9	17	54	18	851	102.0	-184229.0	4051.0	4782.0
9	17	54	18	852	103.0	-180976.0	4053.0	4546.0
9	17	54	18	852	104.0	-177036.0	4067.0	3986.0
9	17	54	18	853	105.0	-172532.0	4066.0	3936.0
9	17	54	18	854	106.0	-168101.0	4054.0	4660.0
9	17	54	18	854	107.0	-163902.0	4038.0	4404.0
9	17	54	18	855	108.0	-159649.0	4048.0	4295.0
9	17	54	18	855	109.0	-155414.0	4049.0	4828.0
9	17	54	18	856	110.0	-151328.0	4049.0	4618.0
9	17	54	18	857	111.0	-147581.0	4046.0	4336.0
9	17	54	18	857	112.0	-144340.0	4054.0	4528.0
9	17	54	18	858	113.0	-141742.0	4042.0	4371.0
9	17	54	18	858	114.0	-139850.0	4032.0	4203.0
9	17	54	18	859	115.0	-138460.0	4026.0	4247.0
9	17	54	18	872	116.0	-137426.0	4016.0	4583.0
9	17	54	18	873	117.0	-136731.0	4018.0	4691.0
9	17	54	18	873	118.0	-136559.0	4023.0	4796.0
9	17	54	18	874	119.0	-136662.0	4012.0	5262.0
9	17	54	18	875	120.0	-136910.0	4021.0	4775.0
9	17	54	18	875	121.0	-136976.0	4031.0	4438.0
9	17	54	18	876	122.0	-136904.0	4007.0	4445.0
9	17	54	18	897	123.0	-136996.0	4023.0	4379.0
9	17	54	18	897	124.0	-137094.0	4022.0	4229.0
9	17	54	18	898	125.0	-137105.0	4027.0	4269.0
9	17	54	18	899	126.0	-137437.0	4004.0	4328.0
9	17	54	18	899	127.0	-138411.0	3999.0	4165.0
9	17	54	18	900	128.0	-139959.0	4004.0	4499.0
9	17	54	18	901	129.0	-142052.0	3981.0	4158.0
9	17	54	18	901	130.0	-144469.0	3961.0	4121.0
9	17	54	18	902	131.0	-147406.0	3956.0	4161.0
9	17	54	18	902	132.0	-150788.0	3948.0	3760.0
9	17	54	18	903	133.0	-154199.0	3926.0	3837.0
9	17	54	18	903	134.0	-157511.0	3918.0	3803.0
9	17	54	18	904	135.0	-160771.0	3893.0	3659.0
9	17	54	18	905	136.0	-163679.0	3896.0	3751.0
9	17	54	18	905	137.0	-166001.0	3903.0	4084.0
9	17	54	18	924	138.0	-168214.0	3858.0	4098.0
9	17	54	18	925	139.0	-169843.0	3843.0	4068.0
9	17	54	18	925	140.0	-171092.0	3858.0	4508.0
9	17	54	18	926	141.0	-172019.0	3828.0	4168.0
9	17	54	18	926	142.0	-172766.0	3809.0	3435.0
9	17	54	18	927	143.0	-173872.0	3809.0	3068.0
9	17	54	18	928	144.0	-174746.0	3785.0	3598.0
9	17	54	18	928	145.0	-175313.0	3756.0	3867.0
9	17	54	18	929	146.0	-176070.0	3743.0	4196.0
9	17	54	18	929	147.0	-176886.0	3702.0	4636.0
9	17	54	18	943	148.0	-177316.0	3681.0	4490.0
9	17	54	18	943	149.0	-177157.0	3684.0	3883.0
9	17	54	18	944	150.0	-176360.0	3678.0	3766.0
9	17	54	18	944	151.0	-175104.0	3654.0	3602.0
9	17	54	18	945	152.0	-173646.0	3619.0	3247.0
9	17	54	18	945	153.0	-172132.0	3595.0	3109.0
9	17	54	18	946	154.0	-170617.0	3564.0	3138.0
9	17	54	18	947	155.0	-169187.0	3529.0	3298.0
9	17	54	18	947	156.0	-168069.0	3498.0	3100.0
9	17	54	18	948	157.0	-167239.0	3483.0	3121.0
9	17	54	18	948	158.0	-166757.0	3476.0	3259.0
9	17	54	18	949	159.0	-166507.0	3451.0	3427.0
9	17	54	18	949	160.0	-166152.0	3418.0	3236.0
9	17	54	18	950	161.0	-165815.0	3388.0	3119.0
9	17	54	18	951	162.0	-165614.0	3367.0	3058.0
9	17	54	18	966	163.0	-165333.0	3322.0	2814.0
9	17	54	18	967	164.0	-164780.0	3313.0	2923.0
9	17	54	18	967	165.0	-164367.0	3289.0	2961.0
9	17	54	18	968	166.0	-164534.0	3248.0	3022.0
9	17	54	18	989	167.0	-164843.0	3207.0	3021.0
9	17	54	18	990	168.0	-164524.0	3155.0	3141.0
9	17	54	18	990	169.0	-163684.0	3118.0	3153.0
9	17	54	18	991	170.0	-162816.0	3094.0	2758.0
9	17	54	18	991	171.0	-161959.0	3048.0	3241.0
9	17	54	18	992	172.0	-161272.0	3048.0	3321.0
9	17	54	18	992	173.0	-161036.0	3022.0	2669.0
9	17	54	18	993	174.0	-161162.0	2961.0	2469.0
9	17	54	18	993	175.0	-161452.0	2924.0	2435.0
9	17	54	18	994	176.0	-161839.0	2884.0	2353.0
9	17	54	18	995	177.0	-162157.0	2851.0	2489.0
9	17	54	18	995	178.0	-162171.0	2822.0	3066.0
9	17	54	18	996	179.0	-161876.0	2759.0	3300.0
9	17	54	18	996	180.0	-161509.0	2706.0	3174.0
9	17	54	18	997	181.0	-161178.0	2686.0	3618.0
9	17	54	18	997	182.0	-160880.0	2659.0	3198.0
9	17	54	19	12	183.0	-160662.0	2607.0	2640.0
9	17	54	19	13	184.0	-160586.0	2573.0	2878.0
9	17	54	19	13	185.0	-160610.0	2536.0	2894.0
9	17	54	19	14	186.0	-160774.0	2486.0	2981.0
9	17	54	19	14	187.0	-161261.0	2437.0	2993.0
9	17	54	19	15	188.0	-161816.0	2369.0	2938.0
9	17	54	19	15	189.0	-162177.0	2325.0	2657.0
9	17	54	19	16	190.0	-162301.0	2314.0	2007.0
9	17	54	19	16	191.0	-162064.0	2276.0	2170.0
9	17	54	19	17	192.0	-161964.0	2208.0	2728.0
9	17	54	19	17	193.0	-162155.0	2148.0	2696.0
9	17	54	19	18	194.0	-162317.0	2090.0	2508.0
9	17	54	19	19	195.0	-162519.0	2043.0	2428.0
9	17	54	19	19	196.0	-162443.0	1999.0	2475.0
9	17	54	19	35	197.0	-161961.0	1964.0	2314.0
9	17	54	19	35	198.0	-161089.0	1911.0	2238.0
9	17	54	19	36	199.0	-160297.0	1878.0	2362.0
9	17	54	19	36	200.0	-159319.0	1834.0	2123.0
9	17	54	19	37	201.0	-158288.0	1753.0	1619.0
9	17	54	19	37	202.0	-157282.0	1698.0	1576.0
9	17	54	19	38	203.0	-156332.0	1665.0	1901.0
9	17	54	19	39	204.0	-155329.0	1606.0	1766.0
9	17	54	19	39	205.0	-153945.0	1566.0	1685.0
9	17	54	19	58	206.0	-153037.0	1508.0	2030.0
9	17	54	19	59	207.0	-152609.0	1481.0	2108.0
9	17	54	19	59	208.0	-152090.0	1424.0	1863.0
9	17	54	19	60	209.0	-151481.0	1366.0	2075.0
9	17	54	19	60	210.0	-151019.0	1311.0	1908.0
9	17	54	19	61	211.0	-150787.0	1274.0	1449.0
9	17	54	19	62	212.0	-150682.0	1230.0	1401.0
9	17	54	19	62	213.0	-150964.0	1186.0	1129.0
9	17	54	19	63	214.0	-151293.0	1143.0	949.0
9	17	54	19	63	215.0	-151664.0	1071.0	1381.0
9	17	54	19	64	216.0	-151949.0	1031.0	1760.0
9	17	54	19	65	217.0	-152790.0	963.0	1861.0
9	17	54	19	65	218.0	-153972.0	904.0	2093.0
9	17	54	19	66	219.0	-155446.0	851.0	2066.0
9	17	54	19	66	220.0	-156871.0	834.0	1911.0
9	17	54	19	81	221.0	-158323.0	786.0	2014.0
9	17	54	19	82	222.0	-160151.0	734.0	2197.0
9	17	54	19	82	223.0	-161756.0	687.0	1967.0
9	17	54	19	83	224.0	-162965.0	625.0	1825.0
9	17	54	19	83	225.0	-163916.0	588.0	2194.0
9	17	54	19	84	226.0	-165021.0	554.0	2341.0
9	17	54	19	84	227.0	-166071.0	501.0	2531.0
9	17	54	19	105	228.0	-166971.0	409.0	2436.0
9	17	54	19	106	229.0	-167914.0	383.0	2234.0
9	17	54	19	107	230.0	-168752.0	321.0	2081.0
9	17	54	19	107	231.0	-169404.0	283.0	2279.0
9	17	54	19	108	232.0	-169842.0	247.0	2369.0
9	17	54	19	108	233.0	-170477.0	208.0	2006.0
9	17	54	19	109	234.0	-170965.0	131.0	1730.0
9	17	54	19	109	235.0	-171189.0	96.0	1476.0
9	17	54	19	110	236.0	-171620.0	52.0	1608.0
9	17	54	19	110	237.0	-172473.0	-14.0	2011.0
9	17	54	19	111	238.0	-173207.0	-62.0	2392.0
9	17	54	19	112	239.0	-173727.0	-95.0	2042.0
9	17	54	19	112	240.0	-174239.0	-155.0	1771.0
9	17	54	19	113	241.0	-174396.0	-211.0	1627.0
9	17	54	19	113	242.0	-174035.0	-261.0	1948.0
9	17	54	19	129	243.0	-173364.0	-285.0	2087.0
9	17	54	19	129	244.0	-172631.0	-349.0	2063.0
9	17	54	19	130	245.0	-171590.0	-402.0	1511.0
9	17	54	19	131	246.0	-169875.0	-453.0	1778.0
9	17	54	19	131	247.0	-167882.0	-499.0	1971.0
9	17	54	19	132	248.0	-165997.0	-552.0	2144.0
9	17	54	19	132	249.0	-163872.0	-609.0	1959.0
9	17	54	19	133	250.0	-161254.0	-647.0	1879.0
9	17	54	19	152	251.0	-158804.0	-707.0	2023.0
9	17	54	19	153	252.0	-156291.0	-742.0	2134.0
9	17	54	19	154	253.0	-153368.0	-792.0	2481.0
9	17	54	19	154	254.0	-150146.0	-844.0	2659.0
9	17	54	19	155	255.0	-147052.0	-901.0	2970.0
9	17	54	19	155	0.0	-144407.0	-952.0	3890.0
9	17	54	19	156	1.0	-141769.0	-999.0	4696.0
9	17	54	19	157	2.0	-139909.0	-1052.0	5339.0
9	17	54	19	157	3.0	-138666.0	-1096.0	5273.0
9	17	54	19	158	4.0	-137957.0	-1154.0	4592.0
9	17	54	19	158	5.0	-137542.0	-1169.0	2707.0
9	17	54	19	159	6.0	-137660.0	-1206.0	-357.0
9	17	54	19	159	7.0	-138610.0	-1276.0	-4731.0
9	17	54	19	160	8.0	-140195.0	-1324.0	-10290.0
9	17	54	19	160	9.0	-142236.0	-1359.0	-15399.0
9	17	54	19	176	10.0	-144504.0	-1414.0	-19358.0
9	17	54	19	177	11.0	-146749.0	-1484.0	-24869.0
9	17	54	19	177	12.0	-148956.0	-1532.0	-31028.0
9	17	54	19	178	13.0	-150932.0	-1566.0	-37112.0
9	17	54	19	199	14.0	-152546.0	-1600.0	-43258.0
9	17	54	19	200	15.0	-154076.0	-1636.0	-47374.0
9	17	54	19	201	16.0	-155079.0	-1687.0	-51321.0
9	17	54	19	201	17.0	-155604.0	-1734.0	-54406.0
9	17	54	19	202	18.0	-155684.0	-1772.0	-53107.0
9	17	54	19	202	19.0	-155398.0	-1829.0	-47609.0
9	17	54	19	203	20.0	-154968.0	-1892.0	-41317.0
9	17	54	19	203	21.0	-154723.0	-1932.0	-33314.0
9	17	54	19	204	22.0	-154866.0	-1982.0	-21443.0
9	17	54	19	204	23.0	-155773.0	-2022.0	-8664.0
9	17	54	19	205	24.0	-157085.0	-2058.0	-3831.0
9	17	54	19	206	25.0	-158524.0	-2116.0	-1896.0
9	17	54	19	224	26.0	-160274.0	-2191.0	-1590.0
9	17	54	19	247	27.0	-162398.0	-2230.0	-2101.0
9	17	54	19	247	28.0	-164936.0	-2248.0	-2031.0
9	17	54	19	248	29.0	-167559.0	-2303.0	-1936.0
9	17	54	19	248	30.0	-170239.0	-2334.0	-2251.0
9	17	54	19	249	31.0	-172847.0	-2410.0	-2194.0
9	17	54	19	250	32.0	-175436.0	-2449.0	-2369.0
9	17	54	19	250	33.0	-177999.0	-2481.0	-2933.0
9	17	54	19	251	34.0	-177887.0	-2541.0	-2482.0
9	17	54	19	251	35.0	-170079.0	-2567.0	-2069.0
9	17	54	19	252	36.0	-156402.0	-2602.0	-1901.0
9	17	54	19	252	37.0	-141228.0	-2665.0	-1581.0
9	17	54	19	253	38.0	-127834.0	-2686.0	-1815.0
9	17	54	19	254	39.0	-120407.0	-2736.0	-1694.0
9	17	54	19	254	40.0	-119758.0	-2794.0	-1150.0
9	17	54	19	255	41.0	-124287.0	-2833.0	-901.0
9	17	54	19	255	45.0	-156808.0	-2996.0	-951.0
9	17	54	19	256	46.0	-163054.0	-3066.0	-1176.0
9	17	54	19	256	47.0	-166832.0	-3129.0	-1006.0
9	17	54	19	257	48.0	-168357.0	-3167.0	-1071.0
9	17	54	19	258	49.0	-168574.0	-3189.0	-1131.0
9	17	54	19	258	50.0	-167357.0	-3244.0	-720.0
9	17	54	19	259	51.0	-164091.0	-3284.0	-750.0
9	17	54	19	259	52.0	-160046.0	-3329.0	-812.0
9	17	54	19	260	53.0	-157706.0	-3382.0	-604.0
9	17	54	19	260	54.0	-159069.0	-3421.0	-589.0
9	17	54	19	261	55.0	-162809.0	-3452.0	-837.0
9	17	54	19	262	56.0	-166884.0	-3525.0	-1099.0
9	17	54	19	262	57.0	-169606.0	-3559.0	-1048.0
9	17	54	19	263	58.0	-169861.0	-3597.0	-1278.0
9	17	54	19	263	59.0	-168085.0	-3645.0	-1209.0
9	17	54	19	264	60.0	-166238.0	-3688.0	-919.0
9	17	54	19	265	61.0	-166123.0	-3722.0	-1071.0
9	17	54	19	265	62.0	-168065.0	-3768.0	-1359.0
9	17	54	19	288	63.0	-170496.0	-3839.0	-882.0
9	17	54	19	288	64.0	-171789.0	-3852.0	-954.0
9	17	54	19	289	65.0	-170652.0	-3883.0	-1555.0
9	17	54	19	290	66.0	-166604.0	-3941.0	-1837.0
9	17	54	19	290	67.0	-160747.0	-3996.0	-1713.0
9	17	54	19	291	68.0	-155058.0	-4036.0	-1552.0
9	17	54	19	292	69.0	-150474.0	-4069.0	-1459.0
9	17	54	19	292	70.0	-147790.0	-4146.0	-1540.0
9	17	54	19	293	71.0	-147222.0	-4181.0	-1858.0
9	17	54	19	293	72.0	-148190.0	-4217.0	-1798.0
9	17	54	19	294	73.0	-150113.0	-4276.0	-1759.0
9	17	54	19	295	74.0	-152409.0	-4343.0	-1692.0
9	17	54	19	295	75.0	-154836.0	-4387.0	-1801.0
9	17	54	19	296	76.0	-157114.0	-4407.0	-2125.0
9	17	54	19	296	77.0	-159226.0	-4470.0	-2155.0
9	17	54	19	297	78.0	-161049.0	-4522.0	-1956.0
9	17	54	19	298	79.0	-162379.0	-4581.0	-2408.0
9	17	54	19	307	80.0	-162816.0	-4628.0	-2560.0
9	17	54	19	307	81.0	-162349.0	-4678.0	-2502.0
9	17	54	19	308	82.0	-161374.0	-4716.0	-3142.0
9	17	54	19	331	83.0	-160079.0	-4756.0	-3432.0
9	17	54	19	332	84.0	-158667.0	-4820.0	-2912.0
9	17	54	19	332	85.0	-157270.0	-4866.0	-2540.0
9	17	54	19	333	86.0	-156160.0	-4919.0	-2736.0
9	17	54	19	334	87.0	-155084.0	-4961.0	-2472.0
9	17	54	19	334	88.0	-154056.0	-5025.0	-2343.0
9	17	54	19	335	89.0	-153431.0	-5058.0	-2789.0
9	17	54	19	335	90.0	-152954.0	-5119.0	-3112.0
9	17	54	19	336	91.0	-152419.0	-5156.0	-2733.0
9	17	54	19	336	92.0	-152699.0	-5201.0	-2990.0
9	17	54	19	337	93.0	-153175.0	-5254.0	-3030.0
9	17	54	19	338	94.0	-153141.0	-5306.0	-2911.0
9	17	54	19	338	95.0	-152864.0	-5341.0	-3081.0
9	17	54	19	339	96.0	-152322.0	-5389.0	-3845.0
9	17	54	19	339	97.0	-151439.0	-5446.0	-4046.0
9	17	54	19	340	98.0	-150642.0	-5496.0	-4097.0
9	17	54	19	340	99.0	-150223.0	-5544.0	-4271.0
9	17	54	19	354	100.0	-149719.0	-5589.0	-4369.0
9	17	54	19	355	101.0	-149351.0	-5654.0	-4453.0
9	17	54	19	356	102.0	-149020.0	-5697.0	-4652.0
9	17	54	19	356	103.0	-148847.0	-5728.0	-4951.0
9	17	54	19	357	104.0	-149116.0	-5771.0	-5246.0
9	17	54	19	357	105.0	-149935.0	-5825.0	-5540.0
9	17	54	19	358	106.0	-150984.0	-5867.0	-5501.0
9	17	54	19	378	107.0	-151999.0	-5913.0	-5676.0
9	17	54	19	378	108.0	-152838.0	-5931.0	-6140.0
9	17	54	19	379	109.0	-153777.0	-5989.0	-6099.0
9	17	54	19	380	110.0	-155084.0	-6035.0	-5848.0
9	17	54	19	380	111.0	-156834.0	-6056.0	-6452.0
9	17	54	19	381	112.0	-159316.0	-6113.0	-6423.0
9	17	54	19	381	113.0	-162637.0	-6151.0	-6692.0
9	17	54	19	382	114.0	-166711.0	-6193.0	-7236.0
9	17	54	19	382	115.0	-170956.0	-6209.0	-7477.0
9	17	54	19	383	116.0	-175186.0	-6244.0	-7297.0
9	17	54	19	384	117.0	-179202.0	-6273.0	-7701.0
9	17	54	19	384	118.0	-183262.0	-6299.0	-7920.0
9	17	54	19	385	119.0	-187331.0	-6320.0	-7730.0
9	17	54	19	385	120.0	-191676.0	-6367.0	-8071.0
9	17	54	19	386	121.0	-195966.0	-6356.0	-8239.0
9	17	54	19	401	122.0	-200180.0	-6377.0	-8163.0
9	17	54	19	401	123.0	-204504.0	-6392.0	-8231.0
9	17	54	19	402	124.0	-207405.0	-6387.0	-8743.0
9	17	54	19	403	125.0	-209172.0	-6374.0	-8944.0
9	17	54	19	404	126.0	-210321.0	-6362.0	-8907.0
9	17	54	19	404	127.0	-210566.0	-6362.0	-9064.0
9	17	54	19	405	128.0	-210191.0	-6373.0	-9466.0
9	17	54	19	429	129.0	-209094.0	-6396.0	-9668.0
9	17	54	19	430	130.0	-207353.0	-6367.0	-10014.0
9	17	54	19	430	131.0	-204451.0	-6332.0	-9197.0
9	17	54	19	431	132.0	-200746.0	-6289.0	-8484.0
9	17	54	19	431	133.0	-196789.0	-6274.0	-8452.0
9	17	54	19	432	134.0	-192911.0	-6236.0	-8497.0
9	17	54	19	433	135.0	-188561.0	-6192.0	-8647.0
9	17	54	19	433	136.0	-184175.0	-6134.0	-8837.0
9	17	54	19	434	137.0	-179863.0	-6068.0	-8778.0
9	17	54	19	434	138.0	-175139.0	-6017.0	-8523.0
9	17	54	19	435	139.0	-170374.0	-5951.0	-8426.0
9	17	54	19	435	140.0	-166290.0	-5888.0	-7786.0
9	17	54	19	436	141.0	-162245.0	-5812.0	-7202.0
9	17	54	19	437	142.0	-158148.0	-5710.0	-6979.0
9	17	54	19	437	143.0	-154714.0	-5606.0	-6266.0
9	17	54	19	438	144.0	-151836.0	-5532.0	-5594.0
9	17	54	19	438	145.0	-149176.0	-5391.0	-5652.0
9	17	54	19	439	146.0	-146228.0	-5269.0	-5541.0
9	17	54	19	439	147.0	-143789.0	-5168.0	-4669.0
9	17	54	19	452	148.0	-142039.0	-5050.0	-4544.0
9	17	54	19	453	149.0	-141037.0	-4917.0	-4361.0
9	17	54	19	453	150.0	-141027.0	-4811.0	-3679.0
9	17	54	19	454	151.0	-141369.0	-4682.0	-3121.0
9	17	54	19	455	152.0	-141022.0	-4521.0	-3009.0
9	17	54	19	455	153.0	-140776.0	-4364.0	-2512.0
9	17	54	19	456	154.0	-141170.0	-4232.0	-2037.0
9	17	54	19	457	155.0	-141997.0	-4072.0	-2102.0
9	17	54	19	457	156.0	-142976.0	-3932.0	-1842.0
9	17	54	19	458	157.0	-144332.0	-3801.0	-1466.0
9	17	54	19	458	158.0	-145879.0	-3665.0	-1562.0
9	17	54	19	459	159.0	-147859.0	-3500.0	-1284.0
9	17	54	19	459	160.0	-149900.0	-3373.0	-917.0
9	17	54	19	476	161.0	-152015.0	-3224.0	-651.0
9	17	54	19	477	162.0	-154229.0	-3074.0	-831.0
9	17	54	19	477	163.0	-157106.0	-2884.0	-691.0
9	17	54	19	478	164.0	-160401.0	-2762.0	-882.0
9	17	54	19	478	165.0	-164232.0	-2626.0	-1161.0
9	17	54	19	499	166.0	-167857.0	-2484.0	-740.0
9	17	54	19	500	167.0	-171346.0	-2332.0	-431.0
9	17	54	19	501	168.0	-174716.0	-2204.0	-912.0
9	17	54	19	501	169.0	-177568.0	-2070.0	-792.0
9	17	54	19	502	170.0	-180187.0	-1959.0	-538.0
9	17	54	19	502	171.0	-182643.0	-1821.0	-321.0
9	17	54	19	503	172.0	-184759.0	-1671.0	-117.0
9	17	54	19	503	173.0	-186084.0	-1537.0	-224.0
9	17	54	19	504	174.0	-187239.0	-1448.0	-183.0
9	17	54	19	505	175.0	-188264.0	-1296.0	-183.0
9	17	54	19	505	176.0	-188586.0	-1200.0	-494.0
9	17	54	19	506	177.0	-188469.0	-1076.0	-614.0
9	17	54	19	506	178.0	-188237.0	-956.0	-704.0
9	17	54	19	507	179.0	-187445.0	-852.0	-616.0
9	17	54	19	507	180.0	-185938.0	-744.0	-815.0
9	17	54	19	522	181.0	-184349.0	-625.0	-1081.0
9	17	54	19	523	182.0	-182653.0	-536.0	-861.0
9	17	54	19	523	183.0	-180691.0	-421.0	-512.0
9	17	54	19	524	184.0	-178994.0	-329.0	-232.0
9	17	54	19	524	185.0	-177089.0	-240.0	-238.0
9	17	54	19	525	186.0	-174061.0	-166.0	-859.0
9	17	54	19	526	187.0	-169071.0	-58.0	-961.0
9	17	54	19	526	188.0	-163540.0	39.0	-648.0
9	17	54	19	527	189.0	-159440.0	103.0	-261.0
9	17	54	19	527	190.0	-158625.0	171.0	-732.0
9	17	54	19	528	191.0	-160027.0	236.0	-419.0
9	17	54	19	529	192.0	-165732.0	347.0	-242.0
9	17	54	19	529	193.0	-172645.0	429.0	-265.0
9	17	54	19	530	194.0	-174674.0	509.0	-554.0
9	17	54	19	530	195.0	-174387.0	599.0	-768.0
9	17	54	19	531	196.0	-173599.0	638.0	-938.0
9	17	54	19	544	197.0	-172061.0	728.0	-975.0
9	17	54	19	545	198.0	-171278.0	779.0	-589.0
9	17	54	19	546	199.0	-170436.0	871.0	-477.0
9	17	54	19	546	200.0	-169466.0	934.0	-418.0
9	17	54	19	547	201.0	-168133.0	999.0	-536.0
9	17	54	19	548	202.0	-166466.0	1068.0	-557.0
9	17	54	19	548	203.0	-165623.0	1117.0	-542.0
9	17	54	19	568	204.0	-166701.0	1189.0	-810.0
9	17	54	19	568	205.0	-169069.0	1250.0	-616.0
9	17	54	19	569	206.0	-172434.0	1321.0	-872.0
9	17	54	19	570	207.0	-175379.0	1391.0	-1101.0
9	17	54	19	570	208.0	-177440.0	1425.0	-831.0
9	17	54	19	571	209.0	-178161.0	1503.0	-871.0
9	17	54	19	572	210.0	-177061.0	1582.0	-907.0
9	17	54	19	572	211.0	-174822.0	1636.0	-979.0
9	17	54	19	573	212.0	-171674.0	1697.0	-717.0
9	17	54	19	573	213.0	-167810.0	1740.0	-707.0
9	17	54	19	574	214.0	-163712.0	1829.0	-976.0
9	17	54	19	575	215.0	-159782.0	1889.0	-1232.0
9	17	54	19	575	216.0	-155739.0	1944.0	-865.0
9	17	54	19	576	217.0	-151871.0	1995.0	-1035.0
9	17	54	19	576	218.0	-149034.0	2038.0	-1052.0
9	17	54	19	592	219.0	-147425.0	2119.0	-677.0
9	17	54	19	593	220.0	-146874.0	2138.0	-716.0
9	17	54	19	593	221.0	-147106.0	2213.0	-764.0
9	17	54	19	594	222.0	-148372.0	2262.0	-474.0
9	17	54	19	594	223.0	-150369.0	2323.0	-511.0
9	17	54	19	595	224.0	-151985.0	2383.0	-829.0
9	17	54	19	596	225.0	-153805.0	2428.0	-656.0
9	17	54	19	596	226.0	-155893.0	2467.0	-594.0
9	17	54	19	616	227.0	-158219.0	2529.0	-1041.0
9	17	54	19	616	228.0	-160271.0	2554.0	-1199.0
9	17	54	19	617	229.0	-162384.0	2596.0	-759.0
9	17	54	19	618	230.0	-164607.0	2630.0	-553.0
9	17	54	19	618	231.0	-166604.0	2676.0	-751.0
9	17	54	19	619	232.0	-167956.0	2717.0	-861.0
9	17	54	19	619	233.0	-168587.0	2770.0	-1164.0
9	17	54	19	620	234.0	-169544.0	2805.0	-1250.0
9	17	54	19	621	235.0	-170461.0	2847.0	-831.0
9	17	54	19	621	236.0	-170744.0	2878.0	-792.0
9	17	54	19	622	237.0	-170465.0	2908.0	-752.0
9	17	54	19	622	238.0	-169637.0	2929.0	-420.0
9	17	54	19	623	239.0	-168616.0	2957.0	-427.0
9	17	54	19	623	240.0	-167657.0	2989.0	-651.0
9	17	54	19	624	241.0	-166913.0	2989.0	-802.0
9	17	54	19	639	242.0	-166517.0	3034.0	-646.0
9	17	54	19	640	243.0	-166411.0	3042.0	-834.0
9	17	54	19	640	244.0	-166441.0	3034.0	-553.0
9	17	54	19	641	245.0	-166246.0	3053.0	-847.0
9	17	54	19	641	246.0	-165902.0	3074.0	-1117.0
9	17	54	19	642	247.0	-165459.0	3105.0	-821.0
9	17	54	19	643	248.0	-165227.0	3109.0	-760.0
9	17	54	19	662	249.0	-164850.0	3093.0	-874.0
9	17	54	19	663	250.0	-164436.0	3116.0	-740.0
9	17	54	19	664	251.0	-164406.0	3099.0	-419.0
9	17	54	19	664	252.0	-164362.0	3120.0	-659.0
9	17	54	19	665	253.0	-164770.0	3143.0	-784.0
9	17	54	19	665	254.0	-165669.0	3143.0	-726.0
9	17	54	19	666	255.0	-166861.0	3133.0	-964.0
9	17	54	19	667	0.0	-168056.0	3131.0	-961.0
9	17	54	19	667	1.0	-169647.0	3135.0	-873.0
