11	18	30	39	837	171.0	-203192.0	-1654.0	64914.0
11	18	30	39	853	172.0	-202352.0	-1647.0	54388.0
11	18	30	39	853	173.0	-201402.0	-1637.0	31441.0
11	18	30	39	854	174.0	-200121.0	-1644.0	6501.0
11	18	30	39	855	175.0	-198447.0	-1639.0	353.0
11	18	30	39	856	176.0	-196521.0	-1631.0	11439.0
11	18	30	39	856	177.0	-194490.0	-1634.0	21843.0
11	18	30	39	857	178.0	-192494.0	-1636.0	30249.0
11	18	30	39	858	179.0	-190607.0	-1661.0	37639.0
11	18	30	39	858	180.0	-188811.0	-1647.0	49102.0
11	18	30	39	859	181.0	-187387.0	-1645.0	64095.0
11	18	30	39	859	182.0	-186205.0	-1654.0	54257.0
11	18	30	39	860	183.0	-185211.0	-1671.0	30167.0
11	18	30	39	860	184.0	-184202.0	-1659.0	3432.0
11	18	30	39	861	185.0	-183308.0	-1664.0	-3779.0
11	18	30	39	877	186.0	-183051.0	-1661.0	4294.0
11	18	30	39	878	187.0	-183322.0	-1667.0	11888.0
11	18	30	39	879	188.0	-183913.0	-1659.0	16091.0
11	18	30	39	879	189.0	-184897.0	-1650.0	20454.0
11	18	30	39	880	190.0	-186411.0	-1646.0	29666.0
11	18	30	39	880	191.0	-187855.0	-1641.0	42539.0
11	18	30	39	881	192.0	-189198.0	-1652.0	33853.0
11	18	30	39	882	193.0	-190375.0	-1657.0	15506.0
11	18	30	39	917	194.0	-191044.0	-1642.0	-4863.0
11	18	30	39	963	195.0	-191103.0	-1622.0	-5189.0
11	18	30	39	963	196.0	-190745.0	-1631.0	9641.0
11	18	30	39	964	197.0	-190954.0	-1637.0	24116.0
11	18	30	39	965	198.0	-191912.0	-1632.0	34156.0
11	18	30	39	965	199.0	-193414.0	-1630.0	41493.0
11	18	30	39	966	200.0	-195853.0	-1624.0	54927.0
11	18	30	39	966	201.0	-198881.0	-1647.0	66578.0
11	18	30	39	967	202.0	-202708.0	-1666.0	54931.0
11	18	30	39	968	203.0	-206146.0	-1671.0	33413.0
11	18	30	39	968	204.0	-209267.0	-1657.0	10923.0
11	18	30	39	969	205.0	-211825.0	-1654.0	10470.0
11	18	30	39	969	206.0	-213867.0	-1666.0	22734.0
11	18	30	39	970	207.0	-215697.0	-1674.0	35214.0
11	18	30	39	971	208.0	-217361.0	-1651.0	44997.0
11	18	30	39	971	209.0	-218577.0	-1652.0	52685.0
11	18	30	39	972	238.0	-191827.0	-1788.0	16555.0
11	18	30	39	972	239.0	-190624.0	-1797.0	24169.0
11	18	30	39	973	240.0	-189228.0	-1787.0	37948.0
11	18	30	39	973	241.0	-187723.0	-1791.0	45128.0
11	18	30	39	974	242.0	-186568.0	-1782.0	28504.0
11	18	30	39	975	243.0	-187049.0	-1777.0	4082.0
11	18	30	39	975	244.0	-190911.0	-1774.0	-18284.0
11	18	30	40	8	245.0	-197554.0	-1777.0	-18212.0
11	18	30	40	9	246.0	-205159.0	-1771.0	-7842.0
11	18	30	40	10	247.0	-211603.0	-1770.0	3246.0
11	18	30	40	10	248.0	-213957.0	-1774.0	12079.0
11	18	30	40	11	249.0	-211804.0	-1773.0	20792.0
11	18	30	40	12	250.0	-205794.0	-1767.0	38571.0
11	18	30	40	12	251.0	-198321.0	-1772.0	46603.0
11	18	30	40	13	252.0	-191914.0	-1793.0	30162.0
11	18	30	40	53	253.0	-187599.0	-1777.0	7275.0
11	18	30	40	53	254.0	-185696.0	-1776.0	-11542.0
11	18	30	40	54	255.0	-185774.0	-1764.0	-8034.0
11	18	30	40	55	0.0	-187426.0	-1757.0	2341.0
11	18	30	40	56	1.0	-189911.0	-1780.0	11694.0
11	18	30	40	57	2.0	-191909.0	-1784.0	19244.0
11	18	30	40	58	3.0	-193232.0	-1784.0	27060.0
11	18	30	40	58	5.0	-193584.0	-1790.0	50223.0
11	18	30	40	59	6.0	-193179.0	-1814.0	32262.0
11	18	30	40	60	7.0	-192902.0	-1802.0	5695.0
11	18	30	40	60	8.0	-194311.0	-1796.0	-16614.0
11	18	30	40	61	9.0	-195639.0	-1782.0	-13428.0
11	18	30	40	61	10.0	-195386.0	-1797.0	-984.0
11	18	30	40	62	11.0	-194598.0	-1821.0	10466.0
11	18	30	40	63	12.0	-194323.0	-1816.0	20205.0
11	18	30	40	63	13.0	-194629.0	-1807.0	29104.0
11	18	30	40	64	28.0	-196277.0	-1932.0	-19031.0
11	18	30	40	64	29.0	-197639.0	-1929.0	-16678.0
11	18	30	40	65	30.0	-199118.0	-1927.0	-6576.0
11	18	30	40	65	31.0	-200104.0	-1945.0	1265.0
11	18	30	40	66	32.0	-201141.0	-1954.0	8232.0
11	18	30	40	67	33.0	-202256.0	-1945.0	16753.0
11	18	30	40	98	34.0	-202761.0	-1931.0	33188.0
11	18	30	40	99	35.0	-203596.0	-1956.0	33257.0
11	18	30	40	108	36.0	-203972.0	-1970.0	14463.0
11	18	30	40	109	37.0	-203709.0	-1971.0	-9751.0
11	18	30	40	110	38.0	-203168.0	-1964.0	-27733.0
11	18	30	40	110	39.0	-202306.0	-1966.0	-23207.0
11	18	30	40	111	40.0	-201525.0	-1977.0	-11058.0
11	18	30	40	111	41.0	-201176.0	-1984.0	-1072.0
11	18	30	40	112	42.0	-200900.0	-2002.0	7794.0
11	18	30	40	112	43.0	-200836.0	-2003.0	17957.0
11	18	30	40	113	44.0	-200677.0	-1998.0	35052.0
11	18	30	40	142	45.0	-200391.0	-2009.0	34026.0
11	18	30	40	143	46.0	-200087.0	-2010.0	14748.0
11	18	30	40	144	47.0	-199692.0	-2012.0	-10682.0
11	18	30	40	144	48.0	-199529.0	-2031.0	-25686.0
11	18	30	40	145	49.0	-199011.0	-2036.0	-17652.0
11	18	30	40	145	50.0	-197975.0	-2024.0	-5731.0
11	18	30	40	146	51.0	-196774.0	-2016.0	4099.0
11	18	30	40	147	52.0	-195740.0	-2017.0	13984.0
11	18	30	40	147	53.0	-195146.0	-2014.0	24968.0
11	18	30	40	148	54.0	-194920.0	-2027.0	42237.0
11	18	30	40	148	55.0	-194484.0	-2024.0	42034.0
11	18	30	40	149	56.0	-193813.0	-2036.0	24531.0
11	18	30	40	150	57.0	-192946.0	-2051.0	-1007.0
11	18	30	40	150	58.0	-192022.0	-2051.0	-17931.0
11	18	30	40	151	59.0	-191417.0	-2041.0	-11524.0
11	18	30	40	152	72.0	-200496.0	-2034.0	21846.0
11	18	30	40	152	73.0	-202273.0	-2032.0	32648.0
11	18	30	40	153	74.0	-203747.0	-2035.0	49549.0
11	18	30	40	153	75.0	-205098.0	-2033.0	43894.0
11	18	30	40	154	76.0	-206959.0	-2021.0	23906.0
11	18	30	40	155	77.0	-208483.0	-2002.0	-1551.0
11	18	30	40	188	78.0	-209591.0	-1986.0	-13457.0
11	18	30	40	188	79.0	-210012.0	-1979.0	-4629.0
11	18	30	40	189	80.0	-209891.0	-1971.0	7060.0
11	18	30	40	190	81.0	-209643.0	-1948.0	16362.0
11	18	30	40	190	82.0	-209034.0	-1938.0	25060.0
11	18	30	40	191	83.0	-208625.0	-1919.0	36104.0
11	18	30	40	191	84.0	-208662.0	-1906.0	51908.0
11	18	30	40	192	85.0	-209246.0	-1926.0	44855.0
11	18	30	40	193	86.0	-210207.0	-1926.0	22739.0
11	18	30	40	193	87.0	-210867.0	-1914.0	-2699.0
11	18	30	40	194	88.0	-211516.0	-1902.0	-11941.0
11	18	30	40	194	89.0	-211525.0	-1889.0	-3121.0
11	18	30	40	195	90.0	-211134.0	-1871.0	8816.0
11	18	30	40	195	91.0	-210432.0	-1852.0	19437.0
11	18	30	40	196	92.0	-208915.0	-1840.0	27942.0
11	18	30	40	197	94.0	-204023.0	-1811.0	56225.0
11	18	30	40	197	95.0	-200137.0	-1818.0	49161.0
11	18	30	40	198	96.0	-193693.0	-1812.0	29387.0
11	18	30	40	198	97.0	-183027.0	-1797.0	5251.0
11	18	30	40	199	98.0	-171854.0	-1772.0	-3227.0
11	18	30	40	199	99.0	-165308.0	-1762.0	5933.0
11	18	30	40	208	100.0	-169195.0	-1749.0	16647.0
11	18	30	40	234	101.0	-180961.0	-1729.0	23741.0
11	18	30	40	235	102.0	-193619.0	-1709.0	30863.0
11	18	30	40	235	103.0	-205549.0	-1684.0	42396.0
11	18	30	40	236	104.0	-211972.0	-1689.0	56578.0
11	18	30	40	237	105.0	-212312.0	-1683.0	47728.0
11	18	30	40	237	106.0	-212071.0	-1685.0	27118.0
11	18	30	40	238	107.0	-213632.0	-1646.0	2878.0
11	18	30	40	239	108.0	-214111.0	-1625.0	-3994.0
11	18	30	40	240	109.0	-210829.0	-1621.0	5652.0
11	18	30	40	240	110.0	-204589.0	-1596.0	17509.0
11	18	30	40	253	111.0	-197264.0	-1580.0	26917.0
11	18	30	40	254	112.0	-190145.0	-1579.0	34979.0
11	18	30	40	254	113.0	-184024.0	-1554.0	48357.0
11	18	30	40	255	114.0	-179079.0	-1546.0	64848.0
11	18	30	40	256	115.0	-175839.0	-1539.0	57496.0
11	18	30	40	256	117.0	-173025.0	-1505.0	12076.0
11	18	30	40	257	118.0	-172923.0	-1495.0	4017.0
11	18	30	40	257	119.0	-175284.0	-1477.0	11754.0
11	18	30	40	258	120.0	-178686.0	-1477.0	21607.0
11	18	30	40	258	121.0	-182330.0	-1471.0	29839.0
11	18	30	40	259	122.0	-186133.0	-1455.0	38428.0
11	18	30	40	277	123.0	-190934.0	-1444.0	51468.0
11	18	30	40	278	124.0	-195994.0	-1426.0	63873.0
11	18	30	40	279	125.0	-201263.0	-1429.0	50678.0
11	18	30	40	279	126.0	-206640.0	-1432.0	26825.0
11	18	30	40	280	127.0	-210944.0	-1407.0	683.0
11	18	30	40	281	128.0	-214051.0	-1397.0	-4986.0
11	18	30	40	281	129.0	-215330.0	-1389.0	6172.0
11	18	30	40	282	130.0	-213919.0	-1379.0	18004.0
11	18	30	40	282	131.0	-210177.0	-1374.0	27089.0
11	18	30	40	283	132.0	-205051.0	-1362.0	35856.0
11	18	30	40	284	133.0	-199805.0	-1360.0	48086.0
11	18	30	40	284	134.0	-195333.0	-1354.0	59808.0
11	18	30	40	285	135.0	-191937.0	-1336.0	47168.0
11	18	30	40	285	136.0	-190102.0	-1351.0	24191.0
11	18	30	40	286	137.0	-189598.0	-1346.0	-78.0
11	18	30	40	287	139.0	-190510.0	-1342.0	5388.0
11	18	30	40	287	140.0	-191422.0	-1330.0	14948.0
11	18	30	40	288	141.0	-192555.0	-1333.0	23723.0
11	18	30	40	288	142.0	-194224.0	-1319.0	32818.0
11	18	30	40	289	143.0	-196281.0	-1323.0	48016.0
11	18	30	40	289	144.0	-198481.0	-1336.0	60503.0
11	18	30	40	290	145.0	-200875.0	-1315.0	46827.0
11	18	30	40	323	146.0	-203344.0	-1301.0	25404.0
11	18	30	40	323	147.0	-205486.0	-1301.0	3569.0
11	18	30	40	324	148.0	-206825.0	-1291.0	2595.0
11	18	30	40	325	149.0	-207702.0	-1279.0	13474.0
11	18	30	40	325	150.0	-208194.0	-1303.0	23262.0
11	18	30	40	326	151.0	-208476.0	-1296.0	32171.0
11	18	30	40	327	152.0	-208551.0	-1282.0	41716.0
11	18	30	40	327	153.0	-208177.0	-1271.0	56427.0
11	18	30	40	328	154.0	-207772.0	-1283.0	66284.0
11	18	30	40	328	155.0	-207746.0	-1283.0	51403.0
11	18	30	40	329	156.0	-207812.0	-1289.0	26063.0
11	18	30	40	330	157.0	-207549.0	-1284.0	2017.0
11	18	30	40	330	158.0	-206657.0	-1256.0	1904.0
11	18	30	40	331	159.0	-205337.0	-1266.0	14553.0
11	18	30	40	331	160.0	-203560.0	-1277.0	27733.0
11	18	30	40	332	162.0	-199033.0	-1239.0	45055.0
11	18	30	40	333	163.0	-197073.0	-1236.0	58834.0
11	18	30	40	333	164.0	-195874.0	-1238.0	67339.0
11	18	30	40	334	165.0	-195567.0	-1243.0	50379.0
11	18	30	40	334	166.0	-195817.0	-1233.0	26307.0
11	18	30	40	335	167.0	-196292.0	-1233.0	4227.0
11	18	30	40	368	168.0	-196673.0	-1214.0	4213.0
11	18	30	40	368	169.0	-197029.0	-1216.0	14994.0
11	18	30	40	369	170.0	-197250.0	-1214.0	26001.0
11	18	30	40	370	171.0	-197147.0	-1195.0	34350.0
11	18	30	40	370	172.0	-196750.0	-1199.0	42275.0
11	18	30	40	371	173.0	-196699.0	-1183.0	57426.0
11	18	30	40	372	174.0	-197287.0	-1191.0	65436.0
11	18	30	40	372	175.0	-197337.0	-1189.0	50031.0
11	18	30	40	373	176.0	-197305.0	-1174.0	28094.0
11	18	30	40	373	177.0	-197415.0	-1184.0	6394.0
11	18	30	40	374	178.0	-197537.0	-1188.0	7243.0
11	18	30	40	375	179.0	-197688.0	-1180.0	18326.0
11	18	30	40	375	180.0	-197922.0	-1179.0	27841.0
11	18	30	40	376	181.0	-197907.0	-1193.0	35394.0
11	18	30	40	376	182.0	-197414.0	-1169.0	43538.0
11	18	30	40	377	184.0	-195521.0	-1171.0	66383.0
11	18	30	40	378	185.0	-194344.0	-1179.0	49236.0
11	18	30	40	378	186.0	-192881.0	-1171.0	25934.0
11	18	30	40	379	187.0	-191337.0	-1146.0	6259.0
11	18	30	40	380	188.0	-190429.0	-1154.0	6428.0
11	18	30	40	380	189.0	-190277.0	-1144.0	17476.0
11	18	30	40	381	190.0	-190540.0	-1139.0	30296.0
11	18	30	40	458	191.0	-191161.0	-1145.0	40499.0
11	18	30	40	458	192.0	-191808.0	-1140.0	48519.0
11	18	30	40	459	193.0	-192556.0	-1131.0	63839.0
11	18	30	40	459	194.0	-193611.0	-1146.0	68829.0
11	18	30	40	460	195.0	-195049.0	-1139.0	51831.0
11	18	30	40	460	196.0	-196197.0	-1140.0	28464.0
11	18	30	40	461	197.0	-197201.0	-1146.0	9936.0
11	18	30	40	462	198.0	-198057.0	-1139.0	14483.0
11	18	30	40	462	199.0	-198356.0	-1120.0	24553.0
11	18	30	40	463	200.0	-198562.0	-1113.0	34347.0
11	18	30	40	463	201.0	-198697.0	-1134.0	43481.0
11	18	30	40	464	202.0	-198921.0	-1128.0	52318.0
11	18	30	40	464	203.0	-199240.0	-1116.0	68171.0
11	18	30	40	465	204.0	-199933.0	-1139.0	72183.0
11	18	30	40	466	205.0	-201014.0	-1124.0	54883.0
11	18	30	40	466	207.0	-202775.0	-1126.0	12979.0
11	18	30	40	467	230.0	-195806.0	-1087.0	32315.0
11	18	30	40	468	231.0	-196698.0	-1085.0	40683.0
11	18	30	40	469	232.0	-197761.0	-1094.0	48554.0
11	18	30	40	470	233.0	-198905.0	-1065.0	63711.0
11	18	30	40	470	234.0	-199497.0	-1080.0	61883.0
11	18	30	40	501	235.0	-199640.0	-1074.0	41761.0
11	18	30	40	502	236.0	-199581.0	-1067.0	16762.0
11	18	30	40	503	237.0	-199460.0	-1052.0	1620.0
11	18	30	40	503	238.0	-198974.0	-1046.0	9776.0
11	18	30	40	504	239.0	-198546.0	-1042.0	20866.0
11	18	30	40	504	240.0	-198307.0	-1051.0	29883.0
11	18	30	40	505	241.0	-197746.0	-1047.0	38216.0
11	18	30	40	505	242.0	-196946.0	-1029.0	48266.0
11	18	30	40	506	243.0	-196339.0	-1037.0	63089.0
11	18	30	40	523	244.0	-196414.0	-1042.0	59115.0
11	18	30	40	523	245.0	-197281.0	-1042.0	38532.0
11	18	30	40	524	246.0	-197776.0	-1043.0	13451.0
11	18	30	40	524	247.0	-197992.0	-1043.0	-735.0
11	18	30	40	525	248.0	-198011.0	-1049.0	7376.0
11	18	30	40	525	249.0	-197642.0	-1045.0	19198.0
11	18	30	40	526	250.0	-196919.0	-1051.0	28718.0
11	18	30	40	527	252.0	-195465.0	-1047.0	48341.0
11	18	30	40	527	253.0	-195067.0	-1044.0	63894.0
11	18	30	40	528	254.0	-194883.0	-1029.0	59956.0
11	18	30	40	528	255.0	-194749.0	-1057.0	39809.0
11	18	30	40	529	0.0	-194571.0	-1051.0	13160.0
11	18	30	40	529	1.0	-194198.0	-1034.0	272.0
11	18	30	40	530	2.0	-193669.0	-1051.0	10941.0
11	18	30	40	530	3.0	-193581.0	-1053.0	22826.0
11	18	30	40	547	4.0	-193809.0	-1047.0	31913.0
11	18	30	40	566	5.0	-194293.0	-1048.0	39818.0
11	18	30	40	567	6.0	-194784.0	-1054.0	49079.0
11	18	30	40	568	7.0	-195136.0	-1053.0	63799.0
11	18	30	40	568	8.0	-195190.0	-1055.0	58149.0
11	18	30	40	569	9.0	-195045.0	-1063.0	37536.0
11	18	30	40	569	10.0	-194786.0	-1091.0	12011.0
11	18	30	40	570	11.0	-194371.0	-1073.0	1393.0
11	18	30	40	570	12.0	-194105.0	-1079.0	11834.0
11	18	30	40	571	13.0	-194040.0	-1077.0	23243.0
11	18	30	40	571	14.0	-194086.0	-1084.0	32539.0
11	18	30	40	572	15.0	-193757.0	-1091.0	42084.0
11	18	30	40	572	16.0	-193393.0	-1094.0	53675.0
11	18	30	40	573	17.0	-193055.0	-1093.0	68629.0
11	18	30	40	574	18.0	-192616.0	-1102.0	60197.0
11	18	30	40	574	19.0	-192860.0	-1119.0	37865.0
11	18	30	40	575	20.0	-193285.0	-1113.0	12158.0
11	18	30	40	575	21.0	-193877.0	-1098.0	1710.0
11	18	30	40	576	22.0	-194706.0	-1099.0	11721.0
11	18	30	40	576	23.0	-195330.0	-1102.0	23239.0
11	18	30	40	592	24.0	-195787.0	-1099.0	30586.0
11	18	30	40	593	25.0	-196169.0	-1096.0	36032.0
11	18	30	40	593	26.0	-196416.0	-1102.0	45293.0
11	18	30	40	594	27.0	-196207.0	-1129.0	57958.0
11	18	30	40	594	28.0	-196178.0	-1138.0	45755.0
11	18	30	40	595	29.0	-196422.0	-1167.0	20276.0
11	18	30	40	596	30.0	-196596.0	-1148.0	-6306.0
11	18	30	40	596	31.0	-196703.0	-1154.0	-12464.0
11	18	30	40	597	32.0	-196766.0	-1158.0	1558.0
11	18	30	40	597	33.0	-196751.0	-1139.0	17369.0
11	18	30	40	598	34.0	-196781.0	-1151.0	31663.0
11	18	30	40	598	35.0	-196735.0	-1161.0	44116.0
11	18	30	40	599	36.0	-196744.0	-1152.0	60659.0
11	18	30	40	600	37.0	-196722.0	-1147.0	78678.0
11	18	30	40	600	38.0	-197121.0	-1154.0	69619.0
11	18	30	40	601	41.0	-199857.0	-1169.0	12329.0
11	18	30	40	601	42.0	-201486.0	-1176.0	22678.0
11	18	30	40	602	43.0	-203228.0	-1192.0	35206.0
11	18	30	40	602	44.0	-204800.0	-1178.0	45075.0
11	18	30	40	603	45.0	-206425.0	-1174.0	53919.0
11	18	30	40	612	46.0	-208239.0	-1184.0	65629.0
11	18	30	40	637	47.0	-209768.0	-1184.0	79404.0
11	18	30	40	637	48.0	-210855.0	-1184.0	69714.0
11	18	30	40	638	49.0	-211514.0	-1187.0	48282.0
11	18	30	40	639	50.0	-211618.0	-1192.0	22849.0
11	18	30	40	639	51.0	-211067.0	-1202.0	16623.0
11	18	30	40	640	52.0	-209737.0	-1197.0	26496.0
11	18	30	40	640	53.0	-208381.0	-1216.0	36739.0
11	18	30	40	641	54.0	-207389.0	-1227.0	43718.0
11	18	30	40	641	55.0	-206974.0	-1237.0	49836.0
11	18	30	40	642	56.0	-207307.0	-1248.0	60518.0
11	18	30	40	643	57.0	-208687.0	-1265.0	70094.0
11	18	30	40	643	58.0	-209302.0	-1279.0	55890.0
11	18	30	40	644	59.0	-204651.0	-1282.0	33311.0
11	18	30	40	644	60.0	-193023.0	-1281.0	7282.0
11	18	30	40	645	61.0	-180386.0	-1263.0	734.0
11	18	30	40	646	63.0	-170500.0	-1302.0	23306.0
11	18	30	40	646	64.0	-171510.0	-1317.0	32416.0
11	18	30	40	647	65.0	-172936.0	-1316.0	40843.0
11	18	30	40	656	66.0	-175247.0	-1309.0	53011.0
11	18	30	40	657	67.0	-180102.0	-1314.0	64383.0
11	18	30	40	657	68.0	-188467.0	-1334.0	51068.0
11	18	30	40	682	69.0	-198792.0	-1342.0	28079.0
11	18	30	40	683	70.0	-206950.0	-1356.0	4218.0
11	18	30	40	683	71.0	-209657.0	-1353.0	-171.0
11	18	30	40	684	72.0	-208054.0	-1371.0	10888.0
11	18	30	40	684	73.0	-204596.0	-1366.0	22402.0
11	18	30	40	685	74.0	-201378.0	-1380.0	31800.0
11	18	30	40	686	75.0	-198674.0	-1411.0	39534.0
11	18	30	40	686	76.0	-195827.0	-1401.0	51873.0
11	18	30	40	687	77.0	-192407.0	-1391.0	61569.0
11	18	30	40	687	78.0	-188849.0	-1414.0	47583.0
11	18	30	40	688	79.0	-186466.0	-1416.0	25366.0
11	18	30	40	688	80.0	-185295.0	-1416.0	1370.0
11	18	30	40	689	81.0	-185171.0	-1392.0	723.0
11	18	30	40	690	82.0	-186800.0	-1407.0	12776.0
11	18	30	40	690	83.0	-190431.0	-1424.0	24341.0
11	18	30	40	691	86.0	-205444.0	-1447.0	52983.0
11	18	30	40	691	87.0	-208102.0	-1429.0	64003.0
11	18	30	40	692	88.0	-208427.0	-1439.0	49739.0
11	18	30	40	693	89.0	-206216.0	-1444.0	27336.0
11	18	30	40	693	90.0	-202382.0	-1423.0	2999.0
11	18	30	40	694	91.0	-198631.0	-1407.0	1478.0
11	18	30	40	727	92.0	-195547.0	-1411.0	12831.0
11	18	30	40	727	93.0	-193111.0	-1420.0	22123.0
11	18	30	40	728	94.0	-191091.0	-1420.0	29936.0
11	18	30	40	729	95.0	-189529.0	-1421.0	36871.0
11	18	30	40	729	96.0	-188692.0	-1426.0	49078.0
11	18	30	40	730	97.0	-188225.0	-1430.0	56665.0
11	18	30	40	731	98.0	-187691.0	-1434.0	42734.0
11	18	30	40	731	99.0	-187532.0	-1437.0	21857.0
11	18	30	40	732	100.0	-187990.0	-1452.0	-286.0
11	18	30	40	732	101.0	-188949.0	-1434.0	-1103.0
11	18	30	40	733	102.0	-190605.0	-1440.0	9561.0
11	18	30	40	734	103.0	-192576.0	-1431.0	20470.0
11	18	30	40	734	104.0	-194711.0	-1447.0	27787.0
11	18	30	40	735	105.0	-196743.0	-1462.0	34693.0
11	18	30	40	735	106.0	-197792.0	-1458.0	50181.0
11	18	30	40	736	108.0	-199152.0	-1488.0	41283.0
11	18	30	40	736	109.0	-199666.0	-1486.0	17678.0
11	18	30	40	737	110.0	-199829.0	-1486.0	-5035.0
11	18	30	40	738	111.0	-199841.0	-1479.0	-3054.0
11	18	30	40	738	112.0	-199253.0	-1479.0	8079.0
11	18	30	40	746	113.0	-197992.0	-1495.0	17238.0
11	18	30	40	773	114.0	-196264.0	-1499.0	24718.0
11	18	30	40	773	115.0	-194025.0	-1501.0	32064.0
11	18	30	40	774	116.0	-191811.0	-1516.0	46293.0
11	18	30	40	774	117.0	-190172.0	-1520.0	51517.0
11	18	30	40	775	118.0	-188857.0	-1529.0	33056.0
11	18	30	40	776	119.0	-187980.0	-1547.0	8641.0
11	18	30	40	776	120.0	-187911.0	-1554.0	-13591.0
11	18	30	40	817	121.0	-188169.0	-1554.0	-12614.0
11	18	30	40	818	122.0	-188478.0	-1568.0	-412.0
11	18	30	40	819	123.0	-189232.0	-1583.0	8883.0
11	18	30	40	819	124.0	-190622.0	-1599.0	15951.0
11	18	30	40	820	125.0	-191961.0	-1594.0	23763.0
11	18	30	40	821	126.0	-193078.0	-1606.0	38668.0
11	18	30	40	821	127.0	-194254.0	-1620.0	42663.0
11	18	30	40	822	128.0	-195313.0	-1631.0	24259.0
11	18	30	40	822	130.0	-196643.0	-1646.0	-19807.0
11	18	30	40	823	131.0	-197386.0	-1651.0	-16516.0
11	18	30	40	824	132.0	-198387.0	-1649.0	-4748.0
11	18	30	40	824	133.0	-199769.0	-1652.0	4821.0
11	18	30	40	825	134.0	-201203.0	-1659.0	12443.0
11	18	30	40	825	135.0	-202456.0	-1669.0	21829.0
11	18	30	40	826	136.0	-203599.0	-1682.0	37266.0
11	18	30	40	827	137.0	-204434.0	-1691.0	38984.0
11	18	30	40	827	153.0	-190067.0	-1767.0	9893.0
11	18	30	40	828	154.0	-188919.0	-1784.0	18813.0
11	18	30	40	829	155.0	-187828.0	-1784.0	28126.0
11	18	30	40	829	156.0	-187177.0	-1769.0	44303.0
11	18	30	40	830	157.0	-186861.0	-1784.0	46045.0
11	18	30	40	830	158.0	-186635.0	-1792.0	27114.0
11	18	30	40	831	159.0	-186856.0	-1782.0	1896.0
11	18	30	40	863	160.0	-187133.0	-1773.0	-15839.0
11	18	30	40	864	161.0	-187554.0	-1772.0	-9036.0
11	18	30	40	864	162.0	-187972.0	-1772.0	3294.0
11	18	30	40	908	163.0	-188372.0	-1776.0	14099.0
11	18	30	40	909	164.0	-188795.0	-1779.0	22685.0
11	18	30	40	909	165.0	-189136.0	-1774.0	31207.0
11	18	30	40	910	166.0	-189457.0	-1782.0	47953.0
11	18	30	40	911	167.0	-189932.0	-1793.0	48125.0
11	18	30	40	911	168.0	-190872.0	-1787.0	29624.0
11	18	30	40	912	169.0	-192219.0	-1792.0	5331.0
11	18	30	40	912	170.0	-193767.0	-1777.0	-10423.0
11	18	30	40	913	171.0	-195628.0	-1777.0	-5483.0
11	18	30	40	914	172.0	-197499.0	-1753.0	5078.0
11	18	30	40	914	173.0	-199026.0	-1753.0	14667.0
11	18	30	40	915	174.0	-200684.0	-1754.0	23659.0
11	18	30	40	915	175.0	-202676.0	-1754.0	33643.0
11	18	30	40	916	176.0	-204605.0	-1744.0	49950.0
11	18	30	40	917	177.0	-206139.0	-1742.0	47691.0
11	18	30	40	917	178.0	-207418.0	-1737.0	26435.0
11	18	30	40	918	198.0	-195121.0	-1537.0	32264.0
11	18	30	40	919	199.0	-203770.0	-1554.0	7146.0
11	18	30	40	919	200.0	-208419.0	-1526.0	-3894.0
11	18	30	40	920	201.0	-207133.0	-1502.0	6818.0
11	18	30	40	920	202.0	-204016.0	-1487.0	20177.0
11	18	30	40	921	203.0	-203989.0	-1496.0	30778.0
11	18	30	40	952	204.0	-205952.0	-1465.0	40626.0
11	18	30	40	953	205.0	-206593.0	-1448.0	50773.0
11	18	30	40	953	206.0	-204717.0	-1440.0	66621.0
11	18	30	40	954	207.0	-200289.0	-1451.0	56017.0
11	18	30	40	955	208.0	-194002.0	-1451.0	31724.0
11	18	30	40	955	209.0	-187085.0	-1444.0	5586.0
11	18	30	40	956	210.0	-180429.0	-1416.0	-4845.0
11	18	30	40	956	211.0	-174466.0	-1406.0	3697.0
11	18	30	40	957	212.0	-170027.0	-1400.0	15643.0
11	18	30	40	958	213.0	-169659.0	-1389.0	24801.0
11	18	30	40	958	214.0	-173469.0	-1390.0	31308.0
11	18	30	40	959	215.0	-179299.0	-1391.0	41293.0
11	18	30	40	959	216.0	-185510.0	-1389.0	56383.0
11	18	30	40	960	217.0	-191382.0	-1402.0	49743.0
11	18	30	40	961	218.0	-195814.0	-1397.0	28149.0
11	18	30	40	961	219.0	-197853.0	-1384.0	1294.0
11	18	30	40	962	221.0	-199463.0	-1369.0	2683.0
11	18	30	40	962	222.0	-200814.0	-1364.0	14952.0
11	18	30	40	963	223.0	-203167.0	-1369.0	24074.0
11	18	30	40	964	224.0	-204997.0	-1359.0	30274.0
11	18	30	40	964	225.0	-205581.0	-1336.0	40161.0
11	18	30	40	965	226.0	-205157.0	-1344.0	54058.0
11	18	30	40	997	227.0	-203461.0	-1354.0	43659.0
11	18	30	40	998	228.0	-200609.0	-1362.0	22875.0
11	18	30	40	999	229.0	-197331.0	-1354.0	-2162.0
11	18	30	40	999	230.0	-194697.0	-1354.0	-10632.0
11	18	30	41	0	231.0	-192946.0	-1353.0	1306.0
11	18	30	41	0	232.0	-191914.0	-1354.0	14120.0
11	18	30	41	1	233.0	-191800.0	-1364.0	22683.0
11	18	30	41	2	234.0	-191968.0	-1382.0	28991.0
11	18	30	41	2	235.0	-192794.0	-1374.0	39329.0
11	18	30	41	3	236.0	-194571.0	-1380.0	52641.0
11	18	30	41	4	237.0	-196425.0	-1389.0	41136.0
11	18	30	41	4	238.0	-198043.0	-1396.0	18508.0
11	18	30	41	5	239.0	-199131.0	-1392.0	-7902.0
11	18	30	41	5	240.0	-200338.0	-1394.0	-14614.0
11	18	30	41	6	241.0	-201732.0	-1388.0	-3514.0
11	18	30	41	7	243.0	-204118.0	-1397.0	17701.0
11	18	30	41	8	244.0	-205251.0	-1412.0	25914.0
11	18	30	41	9	245.0	-206195.0	-1410.0	38594.0
11	18	30	41	9	246.0	-206897.0	-1430.0	51749.0
11	18	30	41	10	247.0	-207601.0	-1437.0	38728.0
11	18	30	41	11	248.0	-208291.0	-1447.0	15363.0
11	18	30	41	41	249.0	-208707.0	-1434.0	-8371.0
11	18	30	41	42	250.0	-208803.0	-1452.0	-12352.0
11	18	30	41	43	251.0	-208707.0	-1467.0	-796.0
11	18	30	41	44	252.0	-208586.0	-1476.0	11593.0
11	18	30	41	44	253.0	-208421.0	-1469.0	21401.0
11	18	30	41	45	254.0	-208439.0	-1470.0	28716.0
11	18	30	41	45	255.0	-207969.0	-1476.0	40826.0
11	18	30	41	46	0.0	-207091.0	-1509.0	52829.0
11	18	30	41	47	1.0	-206896.0	-1518.0	40388.0
11	18	30	41	47	2.0	-206972.0	-1494.0	18044.0
11	18	30	41	48	3.0	-206472.0	-1509.0	-6209.0
11	18	30	41	49	4.0	-205446.0	-1519.0	-8722.0
11	18	30	41	49	5.0	-203317.0	-1534.0	3039.0
11	18	30	41	50	6.0	-200219.0	-1537.0	16723.0
11	18	30	41	51	7.0	-196742.0	-1550.0	27853.0
11	18	30	41	51	9.0	-191257.0	-1551.0	49491.0
11	18	30	41	52	10.0	-190119.0	-1557.0	60688.0
11	18	30	41	52	11.0	-190108.0	-1554.0	46672.0
11	18	30	41	53	12.0	-190924.0	-1557.0	22813.0
11	18	30	41	54	13.0	-191929.0	-1559.0	-2739.0
11	18	30	41	54	14.0	-192922.0	-1568.0	-5799.0
11	18	30	41	55	15.0	-194126.0	-1559.0	4594.0
11	18	30	41	88	16.0	-195556.0	-1557.0	15607.0
11	18	30	41	89	17.0	-196843.0	-1571.0	24128.0
11	18	30	41	89	18.0	-198077.0	-1573.0	32293.0
11	18	30	41	90	19.0	-199136.0	-1564.0	45321.0
11	18	30	41	91	20.0	-199947.0	-1573.0	54930.0
11	18	30	41	91	21.0	-200538.0	-1576.0	39777.0
11	18	30	41	92	22.0	-200531.0	-1597.0	16473.0
11	18	30	41	92	23.0	-200209.0	-1593.0	-7499.0
11	18	30	41	93	24.0	-199669.0	-1590.0	-10896.0
11	18	30	41	94	25.0	-198997.0	-1595.0	-967.0
11	18	30	41	94	26.0	-198310.0	-1601.0	10120.0
11	18	30	41	95	27.0	-197909.0	-1594.0	19010.0
11	18	30	41	96	28.0	-197921.0	-1593.0	29090.0
11	18	30	41	96	29.0	-198146.0	-1590.0	44723.0
11	18	30	41	97	30.0	-198019.0	-1622.0	56038.0
11	18	30	41	97	32.0	-197299.0	-1618.0	17828.0
11	18	30	41	98	33.0	-196823.0	-1619.0	-6330.0
11	18	30	41	99	34.0	-196422.0	-1621.0	-6491.0
11	18	30	41	99	35.0	-195732.0	-1619.0	3955.0
11	18	30	41	100	36.0	-195027.0	-1622.0	14225.0
11	18	30	41	100	37.0	-194297.0	-1631.0	23613.0
11	18	30	41	133	38.0	-193819.0	-1632.0	31984.0
11	18	30	41	134	39.0	-194155.0	-1614.0	46979.0
11	18	30	41	135	40.0	-195263.0	-1629.0	54693.0
11	18	30	41	135	41.0	-196741.0	-1647.0	38783.0
11	18	30	41	136	42.0	-198099.0	-1655.0	14723.0
11	18	30	41	137	43.0	-199253.0	-1662.0	-8080.0
11	18	30	41	137	44.0	-200302.0	-1667.0	-6667.0
11	18	30	41	138	45.0	-201493.0	-1661.0	5258.0
11	18	30	41	138	46.0	-202622.0	-1661.0	16216.0
11	18	30	41	139	47.0	-203364.0	-1668.0	23885.0
11	18	30	41	140	48.0	-203824.0	-1656.0	32003.0
11	18	30	41	140	49.0	-203912.0	-1664.0	46661.0
11	18	30	41	141	50.0	-203469.0	-1681.0	52728.0
11	18	30	41	141	51.0	-202536.0	-1692.0	34693.0
11	18	30	41	142	52.0	-201376.0	-1686.0	10519.0
11	18	30	41	143	54.0	-199538.0	-1689.0	-7814.0
11	18	30	41	143	55.0	-198667.0	-1702.0	6659.0
11	18	30	41	144	56.0	-197479.0	-1704.0	16758.0
11	18	30	41	145	57.0	-195971.0	-1692.0	23813.0
11	18	30	41	145	58.0	-194582.0	-1695.0	32173.0
11	18	30	41	146	59.0	-193584.0	-1681.0	47239.0
11	18	30	41	146	60.0	-193530.0	-1699.0	52124.0
11	18	30	41	178	61.0	-194175.0	-1697.0	34836.0
11	18	30	41	179	62.0	-195097.0	-1711.0	11163.0
11	18	30	41	180	63.0	-196147.0	-1710.0	-8562.0
11	18	30	41	180	64.0	-196937.0	-1689.0	-3858.0
11	18	30	41	181	65.0	-197134.0	-1706.0	8596.0
11	18	30	41	181	66.0	-197126.0	-1686.0	19282.0
11	18	30	41	182	67.0	-196731.0	-1679.0	28296.0
11	18	30	41	183	68.0	-196452.0	-1669.0	35958.0
11	18	30	41	183	69.0	-196540.0	-1670.0	49632.0
11	18	30	41	184	70.0	-196157.0	-1692.0	53259.0
11	18	30	41	185	71.0	-195786.0	-1681.0	35009.0
11	18	30	41	185	72.0	-195627.0	-1682.0	11243.0
11	18	30	41	186	73.0	-195242.0	-1675.0	-8717.0
11	18	30	41	187	74.0	-194805.0	-1669.0	-5610.0
11	18	30	41	187	75.0	-194836.0	-1677.0	4261.0
11	18	30	41	188	77.0	-195873.0	-1664.0	24595.0
11	18	30	41	188	78.0	-196839.0	-1664.0	32159.0
11	18	30	41	189	79.0	-197906.0	-1662.0	46544.0
11	18	30	41	190	80.0	-198490.0	-1658.0	47966.0
11	18	30	41	190	81.0	-198695.0	-1663.0	28140.0
11	18	30	41	191	82.0	-198276.0	-1640.0	3931.0
11	18	30	41	223	83.0	-197584.0	-1651.0	-12821.0
11	18	30	41	224	84.0	-197261.0	-1655.0	-6329.0
11	18	30	41	225	85.0	-197054.0	-1647.0	6874.0
11	18	30	41	225	86.0	-196787.0	-1638.0	18690.0
11	18	30	41	226	87.0	-196530.0	-1650.0	28044.0
11	18	30	41	227	88.0	-196552.0	-1653.0	37751.0
11	18	30	41	227	89.0	-196821.0	-1643.0	54318.0
11	18	30	41	228	90.0	-197166.0	-1641.0	55578.0
11	18	30	41	229	91.0	-197864.0	-1642.0	38112.0
11	18	30	41	229	92.0	-198460.0	-1667.0	14499.0
11	18	30	41	230	93.0	-199071.0	-1670.0	-2217.0
11	18	30	41	231	94.0	-199740.0	-1654.0	2749.0
11	18	30	41	231	95.0	-200429.0	-1665.0	14509.0
11	18	30	41	232	96.0	-201234.0	-1664.0	23380.0
11	18	30	41	233	97.0	-201935.0	-1672.0	30666.0
11	18	30	41	233	99.0	-203105.0	-1658.0	56268.0
11	18	30	41	234	100.0	-203460.0	-1687.0	56260.0
11	18	30	41	234	101.0	-203618.0	-1678.0	36371.0
11	18	30	41	235	102.0	-203543.0	-1674.0	10965.0
11	18	30	41	236	103.0	-203064.0	-1682.0	-4095.0
11	18	30	41	236	104.0	-202735.0	-1669.0	2764.0
11	18	30	41	268	105.0	-202701.0	-1689.0	15288.0
11	18	30	41	268	106.0	-202821.0	-1686.0	25318.0
11	18	30	41	269	107.0	-202958.0	-1677.0	34006.0
11	18	30	41	270	108.0	-202511.0	-1667.0	43218.0
11	18	30	41	270	109.0	-201686.0	-1687.0	59228.0
11	18	30	41	271	110.0	-200696.0	-1700.0	56410.0
11	18	30	41	272	111.0	-199224.0	-1723.0	35764.0
11	18	30	41	272	112.0	-197652.0	-1709.0	9736.0
11	18	30	41	273	113.0	-196992.0	-1707.0	-4596.0
11	18	30	41	274	114.0	-196756.0	-1709.0	4273.0
11	18	30	41	274	115.0	-196657.0	-1712.0	16917.0
11	18	30	41	275	116.0	-196776.0	-1710.0	25741.0
11	18	30	41	275	117.0	-197371.0	-1724.0	34686.0
11	18	30	41	276	118.0	-197986.0	-1724.0	43894.0
11	18	30	41	277	119.0	-198271.0	-1725.0	58776.0
11	18	30	41	277	122.0	-197572.0	-1757.0	8541.0
11	18	30	41	278	123.0	-197036.0	-1751.0	-4073.0
11	18	30	41	279	124.0	-196510.0	-1735.0	4796.0
11	18	30	41	279	125.0	-195902.0	-1741.0	16089.0
11	18	30	41	280	126.0	-195346.0	-1741.0	25133.0
11	18	30	41	281	127.0	-194584.0	-1752.0	33666.0
11	18	30	41	313	128.0	-193687.0	-1739.0	43031.0
11	18	30	41	314	129.0	-192899.0	-1732.0	58274.0
11	18	30	41	315	130.0	-192751.0	-1746.0	53428.0
11	18	30	41	316	131.0	-192906.0	-1758.0	33684.0
11	18	30	41	316	132.0	-193127.0	-1777.0	7506.0
11	18	30	41	317	133.0	-193589.0	-1756.0	-5357.0
11	18	30	41	318	134.0	-193863.0	-1768.0	683.0
11	18	30	41	319	135.0	-194034.0	-1764.0	8998.0
11	18	30	41	319	136.0	-194196.0	-1779.0	15899.0
11	18	30	41	320	137.0	-194782.0	-1778.0	21172.0
11	18	30	41	321	138.0	-195078.0	-1781.0	28792.0
11	18	30	41	321	139.0	-195601.0	-1790.0	44480.0
11	18	30	41	322	140.0	-196186.0	-1794.0	40667.0
11	18	30	41	323	141.0	-196242.0	-1799.0	23953.0
11	18	30	41	323	142.0	-195782.0	-1799.0	3710.0
11	18	30	41	324	144.0	-194172.0	-1791.0	11745.0
11	18	30	41	324	145.0	-193771.0	-1781.0	28833.0
11	18	30	41	325	146.0	-193759.0	-1798.0	41946.0
11	18	30	41	325	147.0	-194527.0	-1796.0	51709.0
11	18	30	41	326	148.0	-196108.0	-1795.0	63651.0
11	18	30	41	327	149.0	-198205.0	-1819.0	78093.0
11	18	30	41	358	150.0	-200751.0	-1817.0	70332.0
11	18	30	41	359	151.0	-203311.0	-1792.0	50434.0
11	18	30	41	359	152.0	-205642.0	-1807.0	25809.0
11	18	30	41	360	153.0	-207757.0	-1811.0	17296.0
11	18	30	41	361	154.0	-209855.0	-1806.0	26298.0
11	18	30	41	361	155.0	-211409.0	-1811.0	37728.0
11	18	30	41	362	156.0	-212067.0	-1796.0	45942.0
11	18	30	41	362	157.0	-212078.0	-1807.0	53499.0
11	18	30	41	363	158.0	-211864.0	-1814.0	62362.0
11	18	30	41	364	159.0	-211280.0	-1815.0	75353.0
11	18	30	41	365	160.0	-210347.0	-1815.0	63981.0
11	18	30	41	366	161.0	-209450.0	-1802.0	37964.0
11	18	30	41	367	162.0	-208174.0	-1801.0	8582.0
11	18	30	41	367	163.0	-207023.0	-1799.0	-3629.0
11	18	30	41	368	164.0	-206636.0	-1808.0	2873.0
11	18	30	41	369	166.0	-206459.0	-1811.0	17011.0
11	18	30	41	369	167.0	-199447.0	-1821.0	23984.0
11	18	30	41	370	168.0	-183479.0	-1829.0	35904.0
11	18	30	41	370	169.0	-166819.0	-1822.0	50639.0
11	18	30	41	371	170.0	-157382.0	-1821.0	41438.0
11	18	30	41	372	171.0	-156242.0	-1824.0	21130.0
11	18	30	41	372	172.0	-159722.0	-1827.0	-3562.0
11	18	30	41	403	173.0	-163881.0	-1817.0	-10589.0
11	18	30	41	404	174.0	-170602.0	-1803.0	-828.0
11	18	30	41	405	175.0	-182602.0	-1813.0	9735.0
11	18	30	41	406	176.0	-198892.0	-1813.0	17441.0
11	18	30	41	407	177.0	-214530.0	-1847.0	25486.0
11	18	30	41	407	178.0	-225023.0	-1840.0	37152.0
11	18	30	41	408	179.0	-230221.0	-1834.0	51314.0
11	18	30	41	409	180.0	-231832.0	-1840.0	40446.0
11	18	30	41	409	181.0	-229919.0	-1859.0	17850.0
11	18	30	41	410	182.0	-224412.0	-1856.0	-7214.0
11	18	30	41	411	183.0	-215827.0	-1849.0	-13081.0
11	18	30	41	411	184.0	-205363.0	-1842.0	-4019.0
11	18	30	41	412	185.0	-195204.0	-1859.0	5648.0
11	18	30	41	412	186.0	-188700.0	-1860.0	13163.0
11	18	30	41	413	187.0	-187247.0	-1862.0	19384.0
11	18	30	41	414	189.0	-187002.0	-1878.0	42371.0
11	18	30	41	414	190.0	-185432.0	-1880.0	30994.0
11	18	30	41	415	191.0	-183914.0	-1872.0	9658.0
11	18	30	41	415	192.0	-183079.0	-1880.0	-13882.0
11	18	30	41	416	193.0	-184061.0	-1871.0	-19076.0
11	18	30	41	417	194.0	-188147.0	-1858.0	-10651.0
11	18	30	41	495	195.0	-195007.0	-1867.0	96.0
11	18	30	41	495	196.0	-202015.0	-1875.0	9633.0
11	18	30	41	496	197.0	-206459.0	-1863.0	17538.0
11	18	30	41	497	198.0	-207644.0	-1866.0	31221.0
11	18	30	41	497	199.0	-206177.0	-1855.0	44314.0
11	18	30	41	498	200.0	-202844.0	-1876.0	31824.0
11	18	30	41	499	201.0	-199227.0	-1876.0	10349.0
11	18	30	41	499	202.0	-196247.0	-1866.0	-12377.0
11	18	30	41	500	203.0	-193169.0	-1865.0	-16011.0
11	18	30	41	501	204.0	-190521.0	-1865.0	-5732.0
11	18	30	41	501	205.0	-188723.0	-1872.0	3994.0
11	18	30	41	502	206.0	-188256.0	-1876.0	11778.0
11	18	30	41	503	207.0	-189162.0	-1854.0	20254.0
11	18	30	41	503	208.0	-190712.0	-1863.0	34464.0
11	18	30	41	504	209.0	-192219.0	-1877.0	45323.0
11	18	30	41	504	234.0	-194461.0	-1992.0	-14319.0
11	18	30	41	505	235.0	-196104.0	-2006.0	-6171.0
11	18	30	41	506	236.0	-197421.0	-1999.0	1281.0
11	18	30	41	506	237.0	-198430.0	-1992.0	8118.0
11	18	30	41	507	238.0	-199034.0	-1993.0	23146.0
11	18	30	41	507	239.0	-199227.0	-1989.0	29946.0
11	18	30	41	508	240.0	-199480.0	-2012.0	12577.0
11	18	30	41	539	241.0	-199762.0	-2018.0	-11477.0
11	18	30	41	540	242.0	-199734.0	-2003.0	-33406.0
11	18	30	41	541	243.0	-199077.0	-1999.0	-31906.0
11	18	30	41	541	244.0	-198274.0	-2007.0	-20749.0
11	18	30	41	542	245.0	-197393.0	-2014.0	-11256.0
11	18	30	41	543	246.0	-196601.0	-2032.0	-3319.0
11	18	30	41	543	247.0	-195716.0	-2011.0	6195.0
11	18	30	41	544	248.0	-194532.0	-2004.0	23319.0
11	18	30	41	545	249.0	-192998.0	-2017.0	30351.0
11	18	30	41	545	250.0	-191336.0	-2036.0	15227.0
11	18	30	41	546	251.0	-189892.0	-2039.0	-8524.0
11	18	30	41	547	252.0	-188927.0	-2041.0	-30909.0
11	18	30	41	547	253.0	-188291.0	-2047.0	-29022.0
11	18	30	41	548	254.0	-188184.0	-2039.0	-17538.0
11	18	30	41	548	255.0	-188284.0	-2043.0	-6569.0
11	18	30	41	549	0.0	-188440.0	-2040.0	2496.0
11	18	30	41	550	1.0	-188582.0	-2039.0	12108.0
11	18	30	41	550	2.0	-188541.0	-2032.0	27478.0
11	18	30	41	551	3.0	-188479.0	-2036.0	31769.0
11	18	30	41	551	4.0	-188574.0	-2041.0	14809.0
11	18	30	41	552	5.0	-188472.0	-2044.0	-10222.0
11	18	30	41	553	6.0	-188252.0	-2049.0	-31241.0
11	18	30	41	584	7.0	-187891.0	-2062.0	-27546.0
11	18	30	41	585	8.0	-187741.0	-2039.0	-14306.0
11	18	30	41	585	9.0	-187512.0	-2034.0	-2992.0
11	18	30	41	586	10.0	-187271.0	-2036.0	5273.0
11	18	30	41	587	11.0	-187079.0	-2026.0	14114.0
11	18	30	41	587	12.0	-186372.0	-2017.0	30301.0
11	18	30	41	588	13.0	-185712.0	-2039.0	35251.0
11	18	30	41	589	14.0	-185574.0	-2038.0	18448.0
11	18	30	41	589	15.0	-185489.0	-2033.0	-4906.0
11	18	30	41	590	16.0	-185463.0	-2022.0	-23099.0
11	18	30	41	591	17.0	-185746.0	-2037.0	-18174.0
11	18	30	41	591	18.0	-186810.0	-2020.0	-5976.0
11	18	30	41	592	19.0	-188126.0	-2001.0	5513.0
11	18	30	41	593	20.0	-189641.0	-1987.0	14530.0
11	18	30	41	593	21.0	-191449.0	-1986.0	23392.0
11	18	30	41	594	23.0	-194557.0	-1994.0	43810.0
11	18	30	41	595	24.0	-196306.0	-1971.0	26105.0
11	18	30	41	595	25.0	-198969.0	-1972.0	698.0
11	18	30	41	596	26.0	-202208.0	-1967.0	-18005.0
11	18	30	41	596	27.0	-204991.0	-1945.0	-13815.0
11	18	30	41	597	28.0	-207692.0	-1939.0	-2909.0
11	18	30	41	628	29.0	-210702.0	-1941.0	5481.0
11	18	30	41	629	30.0	-212889.0	-1926.0	12369.0
11	18	30	41	629	31.0	-214938.0	-1893.0	21031.0
11	18	30	41	630	32.0	-216734.0	-1878.0	36123.0
11	18	30	41	631	33.0	-217941.0	-1893.0	37368.0
11	18	30	41	631	34.0	-219339.0	-1866.0	20538.0
11	18	30	41	632	35.0	-220201.0	-1854.0	-4626.0
11	18	30	41	633	36.0	-220689.0	-1839.0	-22062.0
11	18	30	41	673	37.0	-220831.0	-1816.0	-17625.0
11	18	30	41	674	38.0	-219946.0	-1798.0	-5685.0
11	18	30	41	675	39.0	-218831.0	-1810.0	4055.0
11	18	30	41	676	40.0	-217423.0	-1804.0	11994.0
11	18	30	41	676	41.0	-215671.0	-1779.0	21151.0
11	18	30	41	677	42.0	-214234.0	-1773.0	37956.0
11	18	30	41	678	43.0	-212213.0	-1767.0	38428.0
11	18	30	41	678	45.0	-202617.0	-1752.0	-4482.0
11	18	30	41	679	46.0	-190727.0	-1720.0	-19223.0
11	18	30	41	679	47.0	-179128.0	-1685.0	-12291.0
11	18	30	41	680	48.0	-173946.0	-1674.0	-966.0
11	18	30	41	681	49.0	-178781.0	-1674.0	7995.0
11	18	30	41	719	50.0	-190995.0	-1667.0	15145.0
11	18	30	41	720	51.0	-202481.0	-1667.0	24401.0
11	18	30	41	720	52.0	-209794.0	-1631.0	40777.0
11	18	30	41	721	68.0	-197606.0	-1435.0	2393.0
11	18	30	41	721	69.0	-201557.0	-1425.0	11764.0
11	18	30	41	722	70.0	-203453.0	-1417.0	22171.0
11	18	30	41	723	71.0	-202941.0	-1382.0	34284.0
11	18	30	41	723	72.0	-200842.0	-1382.0	49888.0
11	18	30	41	764	73.0	-197669.0	-1387.0	45618.0
11	18	30	41	809	74.0	-194660.0	-1386.0	26082.0
11	18	30	41	810	75.0	-193042.0	-1367.0	-276.0
11	18	30	41	811	76.0	-191871.0	-1362.0	-12713.0
11	18	30	41	811	77.0	-191253.0	-1368.0	-5160.0
11	18	30	41	812	78.0	-190652.0	-1364.0	4880.0
11	18	30	41	812	79.0	-189405.0	-1358.0	13990.0
11	18	30	41	813	90.0	-196652.0	-1341.0	22953.0
11	18	30	41	814	91.0	-199834.0	-1344.0	34163.0
11	18	30	41	815	92.0	-202549.0	-1326.0	49443.0
11	18	30	41	815	93.0	-204896.0	-1329.0	41524.0
11	18	30	41	816	94.0	-206956.0	-1347.0	18568.0
11	18	30	41	816	95.0	-208405.0	-1341.0	-8762.0
11	18	30	41	817	96.0	-209695.0	-1332.0	-18825.0
11	18	30	41	818	97.0	-210521.0	-1342.0	-10839.0
11	18	30	41	819	98.0	-210667.0	-1322.0	-400.0
11	18	30	41	820	135.0	-190676.0	-1345.0	-9193.0
11	18	30	41	820	136.0	-190502.0	-1339.0	-13506.0
11	18	30	41	821	137.0	-191022.0	-1326.0	-3199.0
11	18	30	41	821	138.0	-191050.0	-1323.0	7201.0
11	18	30	41	822	139.0	-190610.0	-1326.0	16301.0
11	18	30	41	822	140.0	-191888.0	-1321.0	24024.0
11	18	30	41	900	141.0	-194001.0	-1334.0	37538.0
11	18	30	41	900	142.0	-195284.0	-1326.0	48378.0
11	18	30	41	901	143.0	-195647.0	-1322.0	34744.0
11	18	30	41	901	144.0	-196379.0	-1336.0	11654.0
11	18	30	41	902	145.0	-197547.0	-1333.0	-14254.0
11	18	30	41	902	146.0	-197932.0	-1319.0	-16984.0
11	18	30	41	903	147.0	-197919.0	-1321.0	-8146.0
11	18	30	41	904	148.0	-198026.0	-1328.0	501.0
11	18	30	41	904	149.0	-198730.0	-1304.0	7641.0
11	18	30	41	905	150.0	-200354.0	-1331.0	15230.0
11	18	30	41	905	151.0	-201251.0	-1331.0	29720.0
11	18	30	41	906	152.0	-201569.0	-1322.0	39978.0
11	18	30	41	906	153.0	-201736.0	-1316.0	26456.0
11	18	30	41	907	154.0	-202378.0	-1338.0	4731.0
11	18	30	41	908	155.0	-203044.0	-1325.0	-17921.0
11	18	30	41	908	158.0	-202714.0	-1315.0	3169.0
11	18	30	41	909	180.0	-191917.0	-1260.0	24270.0
11	18	30	41	909	181.0	-192639.0	-1245.0	38582.0
11	18	30	41	910	182.0	-192995.0	-1251.0	44284.0
11	18	30	41	910	183.0	-192932.0	-1255.0	27974.0
11	18	30	41	911	184.0	-193364.0	-1258.0	4436.0
11	18	30	41	911	185.0	-193577.0	-1247.0	-16377.0
11	18	30	41	912	186.0	-193752.0	-1248.0	-14952.0
11	18	30	41	944	187.0	-193862.0	-1242.0	-3952.0
11	18	30	41	944	188.0	-194029.0	-1251.0	5884.0
11	18	30	41	945	189.0	-194523.0	-1252.0	15391.0
11	18	30	41	946	190.0	-195571.0	-1251.0	24236.0
11	18	30	41	946	191.0	-196209.0	-1225.0	39782.0
11	18	30	41	947	192.0	-196615.0	-1242.0	44941.0
11	18	30	41	947	193.0	-196938.0	-1251.0	29053.0
11	18	30	41	988	194.0	-196996.0	-1250.0	6371.0
11	18	30	41	989	195.0	-197006.0	-1243.0	-12378.0
11	18	30	41	989	196.0	-197486.0	-1237.0	-7936.0
11	18	30	41	990	197.0	-197959.0	-1262.0	4096.0
11	18	30	41	990	198.0	-198279.0	-1271.0	13318.0
11	18	30	41	991	199.0	-198712.0	-1263.0	21633.0
11	18	30	41	991	200.0	-199247.0	-1256.0	31919.0
11	18	30	41	992	201.0	-200240.0	-1249.0	48499.0
11	18	30	41	992	202.0	-201826.0	-1269.0	51730.0
11	18	30	41	993	203.0	-203585.0	-1271.0	35165.0
11	18	30	41	994	204.0	-204820.0	-1252.0	12458.0
11	18	30	41	994	205.0	-205271.0	-1257.0	-5562.0
11	18	30	41	995	206.0	-205271.0	-1259.0	-1543.0
11	18	30	41	995	207.0	-205319.0	-1256.0	9831.0
11	18	30	41	996	208.0	-205249.0	-1269.0	20529.0
11	18	30	41	996	209.0	-205277.0	-1252.0	30487.0
11	18	30	41	997	225.0	-195469.0	-1271.0	-19013.0
11	18	30	41	997	226.0	-194707.0	-1250.0	-14039.0
11	18	30	41	998	227.0	-194515.0	-1257.0	-2236.0
11	18	30	41	999	228.0	-194322.0	-1260.0	7622.0
11	18	30	41	999	229.0	-193917.0	-1256.0	15864.0
11	18	30	42	0	230.0	-193781.0	-1256.0	25078.0
11	18	30	42	0	231.0	-193951.0	-1250.0	40866.0
11	18	30	42	32	232.0	-194621.0	-1257.0	37738.0
11	18	30	42	78	233.0	-195168.0	-1276.0	16453.0
11	18	30	42	95	234.0	-195374.0	-1267.0	-10001.0
11	18	30	42	96	235.0	-195372.0	-1258.0	-27220.0
11	18	30	42	96	236.0	-195268.0	-1252.0	-21793.0
11	18	30	42	97	237.0	-194994.0	-1266.0	-13641.0
11	18	30	42	98	238.0	-194930.0	-1267.0	-7391.0
11	18	30	42	98	239.0	-194951.0	-1266.0	1245.0
11	18	30	42	99	240.0	-195152.0	-1261.0	13611.0
11	18	30	42	99	241.0	-195805.0	-1269.0	35691.0
11	18	30	42	100	242.0	-196646.0	-1255.0	40981.0
11	18	30	42	100	243.0	-197242.0	-1263.0	27469.0
11	18	30	42	101	244.0	-197887.0	-1249.0	8269.0
11	18	30	42	101	245.0	-198492.0	-1252.0	1171.0
11	18	30	42	102	246.0	-198415.0	-1242.0	10593.0
11	18	30	42	103	247.0	-198449.0	-1252.0	23359.0
11	18	30	42	103	14.0	-161672.0	-1274.0	34673.0
11	18	30	42	104	15.0	-156301.0	-1292.0	50181.0
11	18	30	42	104	16.0	-157788.0	-1281.0	42959.0
11	18	30	42	105	17.0	-161421.0	-1282.0	20773.0
11	18	30	42	105	18.0	-165402.0	-1281.0	-6563.0
11	18	30	42	106	19.0	-172444.0	-1282.0	-17879.0
11	18	30	42	123	20.0	-184610.0	-1282.0	-9945.0
11	18	30	42	124	21.0	-198732.0	-1289.0	1139.0
11	18	30	42	124	22.0	-210138.0	-1302.0	9814.0
11	18	30	42	125	23.0	-217160.0	-1309.0	16603.0
11	18	30	42	126	24.0	-220600.0	-1301.0	26151.0
11	18	30	42	126	25.0	-221502.0	-1316.0	39440.0
11	18	30	42	127	26.0	-219602.0	-1324.0	30252.0
11	18	30	42	127	27.0	-214184.0	-1323.0	7619.0
11	18	30	42	128	28.0	-205884.0	-1334.0	-18744.0
11	18	30	42	128	29.0	-196283.0	-1333.0	-27731.0
11	18	30	42	129	30.0	-188485.0	-1317.0	-17332.0
11	18	30	42	130	31.0	-185301.0	-1319.0	-6683.0
11	18	30	42	130	32.0	-185924.0	-1328.0	1399.0
11	18	30	42	131	33.0	-187281.0	-1342.0	8746.0
11	18	30	42	131	34.0	-187329.0	-1334.0	19478.0
11	18	30	42	132	36.0	-186284.0	-1332.0	24179.0
11	18	30	42	132	37.0	-186669.0	-1339.0	2600.0
11	18	30	42	133	38.0	-189084.0	-1334.0	-22464.0
11	18	30	42	134	39.0	-194652.0	-1326.0	-28761.0
11	18	30	42	134	40.0	-201501.0	-1325.0	-19195.0
11	18	30	42	135	41.0	-207801.0	-1317.0	-7867.0
11	18	30	42	135	42.0	-212389.0	-1324.0	2442.0
11	18	30	42	168	43.0	-213278.0	-1336.0	12434.0
11	18	30	42	169	44.0	-211877.0	-1321.0	25803.0
11	18	30	42	169	45.0	-208684.0	-1322.0	40180.0
11	18	30	42	170	46.0	-204278.0	-1329.0	31071.0
11	18	30	42	171	47.0	-199772.0	-1347.0	10989.0
11	18	30	42	171	48.0	-195106.0	-1349.0	-13059.0
11	18	30	42	179	49.0	-190821.0	-1340.0	-18105.0
11	18	30	42	180	50.0	-186427.0	-1332.0	-7870.0
11	18	30	42	181	51.0	-183577.0	-1334.0	2667.0
11	18	30	42	181	52.0	-181899.0	-1342.0	11681.0
11	18	30	42	213	53.0	-181387.0	-1359.0	20443.0
11	18	30	42	214	54.0	-182465.0	-1360.0	32222.0
11	18	30	42	214	55.0	-183992.0	-1357.0	44060.0
11	18	30	42	215	56.0	-185584.0	-1356.0	31190.0
11	18	30	42	216	57.0	-187848.0	-1366.0	7855.0
11	18	30	42	216	59.0	-191523.0	-1376.0	-20386.0
11	18	30	42	217	60.0	-193215.0	-1378.0	-7934.0
11	18	30	42	218	61.0	-194604.0	-1377.0	3117.0
11	18	30	42	218	62.0	-196402.0	-1382.0	12992.0
11	18	30	42	220	63.0	-197429.0	-1391.0	22572.0
11	18	30	42	221	64.0	-198104.0	-1395.0	35173.0
11	18	30	42	221	65.0	-197937.0	-1401.0	46622.0
11	18	30	42	222	66.0	-197028.0	-1412.0	34000.0
11	18	30	42	223	67.0	-195873.0	-1419.0	12730.0
11	18	30	42	223	68.0	-193915.0	-1427.0	-11802.0
11	18	30	42	224	81.0	-198361.0	-1524.0	-8778.0
11	18	30	42	224	82.0	-199892.0	-1521.0	35.0
11	18	30	42	225	83.0	-200699.0	-1523.0	8140.0
11	18	30	42	257	84.0	-201747.0	-1526.0	20832.0
11	18	30	42	258	85.0	-203097.0	-1524.0	28810.0
11	18	30	42	259	86.0	-204088.0	-1527.0	12520.0
11	18	30	42	259	87.0	-204722.0	-1546.0	-12685.0
11	18	30	42	260	88.0	-204809.0	-1542.0	-36193.0
11	18	30	42	260	89.0	-204142.0	-1534.0	-37726.0
11	18	30	42	261	90.0	-203189.0	-1533.0	-27774.0
11	18	30	42	262	91.0	-202199.0	-1553.0	-16212.0
11	18	30	42	263	92.0	-201034.0	-1561.0	-7039.0
11	18	30	42	263	93.0	-199727.0	-1571.0	1114.0
11	18	30	42	264	94.0	-198802.0	-1565.0	15746.0
11	18	30	42	264	95.0	-197785.0	-1572.0	24673.0
11	18	30	42	265	96.0	-196671.0	-1564.0	8276.0
11	18	30	42	265	97.0	-195713.0	-1568.0	-15886.0
11	18	30	42	266	98.0	-194436.0	-1567.0	-39060.0
11	18	30	42	267	104.0	-191932.0	-1586.0	16738.0
11	18	30	42	267	105.0	-191319.0	-1601.0	25688.0
11	18	30	42	268	106.0	-190946.0	-1603.0	11040.0
11	18	30	42	268	107.0	-190802.0	-1594.0	-11377.0
11	18	30	42	269	108.0	-191104.0	-1589.0	-31800.0
11	18	30	42	270	109.0	-191224.0	-1566.0	-29044.0
11	18	30	42	303	110.0	-190968.0	-1567.0	-16104.0
11	18	30	42	304	111.0	-190451.0	-1572.0	-3641.0
11	18	30	42	349	112.0	-189648.0	-1564.0	7454.0
11	18	30	42	349	113.0	-188749.0	-1576.0	17804.0
11	18	30	42	359	114.0	-187907.0	-1579.0	32769.0
11	18	30	42	359	115.0	-187043.0	-1570.0	39584.0
11	18	30	42	360	116.0	-186636.0	-1570.0	23711.0
11	18	30	42	361	117.0	-186299.0	-1563.0	-56.0
11	18	30	42	361	118.0	-186547.0	-1564.0	-20666.0
11	18	30	42	362	119.0	-187502.0	-1559.0	-18901.0
11	18	30	42	362	120.0	-188858.0	-1538.0	-9069.0
11	18	30	42	363	121.0	-190669.0	-1531.0	1411.0
11	18	30	42	363	122.0	-192912.0	-1533.0	11528.0
11	18	30	42	364	123.0	-195409.0	-1528.0	19428.0
11	18	30	42	364	124.0	-198198.0	-1514.0	35466.0
11	18	30	42	365	126.0	-204083.0	-1513.0	27229.0
11	18	30	42	366	127.0	-206391.0	-1504.0	4768.0
11	18	30	42	366	149.0	-183777.0	-1265.0	-14942.0
11	18	30	42	367	150.0	-196874.0	-1240.0	-3502.0
11	18	30	42	367	151.0	-207086.0	-1232.0	6966.0
11	18	30	42	368	152.0	-211970.0	-1217.0	16862.0
11	18	30	42	368	153.0	-209686.0	-1203.0	25733.0
11	18	30	42	369	154.0	-205827.0	-1180.0	42382.0
11	18	30	42	393	155.0	-204294.0	-1174.0	43668.0
11	18	30	42	393	156.0	-203044.0	-1166.0	24454.0
11	18	30	42	394	157.0	-199513.0	-1145.0	-1011.0
11	18	30	42	395	158.0	-193519.0	-1139.0	-18862.0
11	18	30	42	395	159.0	-185739.0	-1127.0	-14915.0
11	18	30	42	396	160.0	-177789.0	-1126.0	-3521.0
11	18	30	42	397	161.0	-172505.0	-1110.0	5371.0
11	18	30	42	397	162.0	-170727.0	-1087.0	13764.0
11	18	30	42	398	163.0	-172121.0	-1083.0	24034.0
11	18	30	42	399	164.0	-175744.0	-1077.0	40103.0
11	18	30	42	399	165.0	-180438.0	-1071.0	38449.0
11	18	30	42	400	166.0	-185888.0	-1072.0	17641.0
11	18	30	42	400	167.0	-191328.0	-1069.0	-8709.0
11	18	30	42	401	168.0	-196027.0	-1052.0	-24712.0
11	18	30	42	409	169.0	-199436.0	-1046.0	-17217.0
11	18	30	42	410	171.0	-201171.0	-1028.0	5879.0
11	18	30	42	410	172.0	-200332.0	-1038.0	15894.0
11	18	30	42	411	173.0	-199243.0	-1014.0	26834.0
11	18	30	42	411	174.0	-198350.0	-1002.0	43684.0
11	18	30	42	412	175.0	-197662.0	-1003.0	40538.0
11	18	30	42	413	176.0	-197269.0	-1012.0	20303.0
11	18	30	42	438	177.0	-196498.0	-1016.0	-5697.0
11	18	30	42	439	178.0	-195417.0	-1009.0	-21262.0
11	18	30	42	439	179.0	-194609.0	-1012.0	-15192.0
11	18	30	42	440	180.0	-193991.0	-1000.0	-4956.0
11	18	30	42	441	181.0	-193309.0	-1002.0	3616.0
11	18	30	42	441	182.0	-192690.0	-1001.0	9919.0
11	18	30	42	442	183.0	-192774.0	-987.0	18441.0
11	18	30	42	443	184.0	-193549.0	-990.0	34013.0
11	18	30	42	443	185.0	-194976.0	-996.0	28628.0
11	18	30	42	444	186.0	-196543.0	-1001.0	8461.0
11	18	30	42	444	187.0	-198095.0	-1004.0	-16437.0
11	18	30	42	445	188.0	-199686.0	-991.0	-30021.0
11	18	30	42	445	189.0	-201094.0	-989.0	-22386.0
11	18	30	42	446	190.0	-202646.0	-999.0	-9351.0
11	18	30	42	447	191.0	-204226.0	-1004.0	434.0
11	18	30	42	447	194.0	-207747.0	-1007.0	36425.0
11	18	30	42	448	195.0	-208620.0	-1002.0	29847.0
11	18	30	42	483	196.0	-209641.0	-1006.0	7920.0
11	18	30	42	484	197.0	-210696.0	-1007.0	-18179.0
11	18	30	42	484	198.0	-211449.0	-1009.0	-28299.0
11	18	30	42	485	199.0	-212026.0	-1016.0	-19238.0
11	18	30	42	486	200.0	-212399.0	-1031.0	-7118.0
11	18	30	42	486	201.0	-212288.0	-1033.0	4200.0
11	18	30	42	487	202.0	-211609.0	-1014.0	13849.0
11	18	30	42	488	203.0	-210335.0	-1021.0	25373.0
11	18	30	42	488	204.0	-208948.0	-1026.0	40641.0
11	18	30	42	489	205.0	-207347.0	-1051.0	32060.0
11	18	30	42	489	206.0	-205956.0	-1064.0	10908.0
11	18	30	42	490	207.0	-204792.0	-1061.0	-13889.0
11	18	30	42	491	208.0	-203651.0	-1052.0	-23249.0
11	18	30	42	491	209.0	-202672.0	-1057.0	-12477.0
11	18	30	42	492	210.0	-201943.0	-1057.0	367.0
11	18	30	42	492	211.0	-201094.0	-1045.0	10129.0
11	18	30	42	493	216.0	-197450.0	-1070.0	16183.0
11	18	30	42	501	217.0	-197087.0	-1077.0	-10488.0
11	18	30	42	502	218.0	-197245.0	-1079.0	-19359.0
11	18	30	42	503	219.0	-197289.0	-1092.0	-9116.0
11	18	30	42	503	220.0	-197307.0	-1081.0	3184.0
11	18	30	42	504	221.0	-197127.0	-1067.0	12551.0
11	18	30	42	505	222.0	-197012.0	-1066.0	21643.0
11	18	30	42	505	223.0	-197072.0	-1078.0	33125.0
11	18	30	42	528	224.0	-197194.0	-1092.0	45375.0
11	18	30	42	528	225.0	-197502.0	-1104.0	32854.0
11	18	30	42	529	226.0	-197853.0	-1101.0	10454.0
11	18	30	42	530	227.0	-198280.0	-1086.0	-13856.0
11	18	30	42	579	228.0	-198750.0	-1096.0	-20445.0
11	18	30	42	579	229.0	-198918.0	-1105.0	-11260.0
11	18	30	42	580	230.0	-198749.0	-1096.0	-33.0
11	18	30	42	580	231.0	-198397.0	-1120.0	9216.0
11	18	30	42	581	232.0	-198187.0	-1127.0	16699.0
11	18	30	42	582	233.0	-198062.0	-1126.0	29404.0
11	18	30	42	582	234.0	-197909.0	-1157.0	43912.0
11	18	30	42	583	235.0	-197667.0	-1154.0	32308.0
11	18	30	42	584	236.0	-197456.0	-1164.0	9916.0
11	18	30	42	585	237.0	-197397.0	-1171.0	-15081.0
11	18	30	42	585	238.0	-197549.0	-1166.0	-19956.0
11	18	30	42	586	239.0	-197951.0	-1152.0	-8082.0
11	18	30	42	587	240.0	-198821.0	-1158.0	2621.0
11	18	30	42	587	241.0	-199734.0	-1164.0	12478.0
11	18	30	42	588	242.0	-200691.0	-1171.0	22627.0
11	18	30	42	589	5.0	-193309.0	-1194.0	9012.0
11	18	30	42	589	6.0	-192205.0	-1203.0	16799.0
11	18	30	42	590	7.0	-191442.0	-1199.0	27959.0
11	18	30	42	590	8.0	-190848.0	-1206.0	36977.0
11	18	30	42	591	9.0	-190082.0	-1231.0	22595.0
11	18	30	42	591	10.0	-189201.0	-1221.0	1117.0
11	18	30	42	620	11.0	-188404.0	-1221.0	-22009.0
11	18	30	42	621	12.0	-187769.0	-1191.0	-23225.0
11	18	30	42	621	13.0	-187233.0	-1196.0	-11302.0
11	18	30	42	622	14.0	-186937.0	-1187.0	1018.0
11	18	30	42	623	15.0	-186982.0	-1199.0	10757.0
11	18	30	42	623	16.0	-187176.0	-1194.0	19899.0
11	18	30	42	624	17.0	-187392.0	-1186.0	33673.0
11	18	30	42	624	18.0	-187936.0	-1183.0	41078.0
11	18	30	42	625	19.0	-188768.0	-1192.0	24691.0
11	18	30	42	626	20.0	-189536.0	-1193.0	839.0
11	18	30	42	626	21.0	-190703.0	-1199.0	-23739.0
11	18	30	42	627	22.0	-192180.0	-1198.0	-24867.0
11	18	30	42	627	23.0	-193585.0	-1197.0	-15131.0
11	18	30	42	628	24.0	-195312.0	-1205.0	-4099.0
11	18	30	42	629	25.0	-197081.0	-1191.0	6481.0
11	18	30	42	629	27.0	-200403.0	-1204.0	31205.0
11	18	30	42	630	28.0	-201906.0	-1197.0	39244.0
11	18	30	42	630	29.0	-203124.0	-1203.0	22012.0
11	18	30	42	631	30.0	-203987.0	-1194.0	-1701.0
11	18	30	42	632	31.0	-204569.0	-1189.0	-23713.0
11	18	30	42	632	32.0	-204849.0	-1188.0	-21983.0
11	18	30	42	633	33.0	-204765.0	-1186.0	-9731.0
11	18	30	42	663	34.0	-204151.0	-1172.0	3505.0
11	18	30	42	664	35.0	-203361.0	-1168.0	12982.0
11	18	30	42	664	36.0	-202675.0	-1177.0	21259.0
11	18	30	42	665	37.0	-201951.0	-1171.0	36473.0
11	18	30	42	666	38.0	-201284.0	-1184.0	42959.0
11	18	30	42	666	39.0	-200778.0	-1206.0	26809.0
11	18	30	42	667	40.0	-200209.0	-1214.0	4358.0
11	18	30	42	668	41.0	-199807.0	-1212.0	-17184.0
11	18	30	42	668	42.0	-199566.0	-1200.0	-14729.0
11	18	30	42	669	43.0	-199557.0	-1212.0	-3971.0
11	18	30	42	670	44.0	-199777.0	-1214.0	6174.0
11	18	30	42	670	45.0	-200069.0	-1211.0	15231.0
11	18	30	42	671	46.0	-200364.0	-1211.0	23099.0
11	18	30	42	672	47.0	-200507.0	-1211.0	37756.0
11	18	30	42	672	48.0	-200641.0	-1222.0	42197.0
11	18	30	42	673	50.0	-200479.0	-1249.0	-402.0
11	18	30	42	673	51.0	-199866.0	-1226.0	-19830.0
11	18	30	42	674	52.0	-199097.0	-1210.0	-17001.0
11	18	30	42	674	53.0	-198313.0	-1226.0	-5492.0
11	18	30	42	708	54.0	-197656.0	-1227.0	5344.0
11	18	30	42	709	55.0	-197371.0	-1225.0	14684.0
11	18	30	42	709	56.0	-197233.0	-1215.0	24536.0
11	18	30	42	710	57.0	-197024.0	-1212.0	41275.0
11	18	30	42	711	58.0	-196509.0	-1224.0	45686.0
11	18	30	42	711	59.0	-195772.0	-1245.0	27534.0
11	18	30	42	712	60.0	-194991.0	-1244.0	3697.0
11	18	30	42	713	61.0	-194395.0	-1248.0	-13806.0
11	18	30	42	713	62.0	-193854.0	-1237.0	-8762.0
11	18	30	42	714	63.0	-193354.0	-1243.0	3574.0
11	18	30	42	715	64.0	-192752.0	-1246.0	14753.0
11	18	30	42	715	65.0	-192366.0	-1257.0	23604.0
11	18	30	42	716	66.0	-192088.0	-1248.0	29901.0
11	18	30	42	716	67.0	-191729.0	-1238.0	44222.0
11	18	30	42	717	68.0	-191496.0	-1259.0	47431.0
11	18	30	42	718	69.0	-191492.0	-1281.0	29738.0
11	18	30	42	719	73.0	-193494.0	-1280.0	-3827.0
11	18	30	42	719	74.0	-193659.0	-1282.0	1978.0
11	18	30	42	720	75.0	-193734.0	-1289.0	8909.0
11	18	30	42	720	76.0	-193699.0	-1272.0	18419.0
11	18	30	42	721	77.0	-194043.0	-1267.0	36288.0
11	18	30	42	722	78.0	-195069.0	-1279.0	42981.0
11	18	30	42	752	79.0	-195871.0	-1289.0	31189.0
11	18	30	42	753	80.0	-196064.0	-1287.0	11583.0
11	18	30	42	754	81.0	-195916.0	-1281.0	168.0
11	18	30	42	754	82.0	-195747.0	-1276.0	10082.0
11	18	30	42	755	83.0	-195792.0	-1288.0	20926.0
11	18	30	42	756	84.0	-196466.0	-1299.0	30375.0
11	18	30	42	756	85.0	-197274.0	-1317.0	39510.0
11	18	30	42	757	86.0	-198231.0	-1312.0	46076.0
11	18	30	42	758	87.0	-199544.0	-1331.0	61247.0
11	18	30	42	758	88.0	-201237.0	-1335.0	62192.0
11	18	30	42	759	89.0	-203323.0	-1342.0	45728.0
11	18	30	42	760	90.0	-205797.0	-1362.0	22069.0
11	18	30	42	760	91.0	-208487.0	-1369.0	6183.0
11	18	30	42	761	92.0	-210979.0	-1356.0	14654.0
11	18	30	42	761	93.0	-212832.0	-1362.0	28748.0
11	18	30	42	762	95.0	-214406.0	-1401.0	43527.0
11	18	30	42	763	96.0	-214269.0	-1405.0	50048.0
11	18	30	42	763	97.0	-213648.0	-1399.0	61520.0
11	18	30	42	764	98.0	-212704.0	-1390.0	55638.0
11	18	30	42	764	99.0	-212354.0	-1407.0	33712.0
11	18	30	42	765	100.0	-212531.0	-1421.0	7229.0
11	18	30	42	773	101.0	-212950.0	-1416.0	-8516.0
11	18	30	42	798	102.0	-213978.0	-1433.0	-2229.0
11	18	30	42	822	103.0	-215272.0	-1445.0	8226.0
11	18	30	42	823	104.0	-212876.0	-1440.0	15546.0
11	18	30	42	824	105.0	-203054.0	-1461.0	22191.0
11	18	30	42	824	106.0	-188825.0	-1477.0	30379.0
11	18	30	42	825	107.0	-176842.0	-1494.0	45484.0
11	18	30	42	825	108.0	-170801.0	-1499.0	41946.0
11	18	30	42	826	109.0	-169668.0	-1498.0	22460.0
11	18	30	42	827	110.0	-169127.0	-1509.0	-1756.0
11	18	30	42	827	111.0	-168398.0	-1520.0	-15619.0
11	18	30	42	828	112.0	-170320.0	-1513.0	-7740.0
11	18	30	42	828	113.0	-176972.0	-1522.0	1591.0
11	18	30	42	829	114.0	-186938.0	-1523.0	9466.0
11	18	30	42	829	115.0	-197241.0	-1542.0	16648.0
11	18	30	42	830	116.0	-205227.0	-1552.0	25159.0
11	18	30	42	831	117.0	-210827.0	-1560.0	39373.0
11	18	30	42	831	118.0	-213739.0	-1584.0	34014.0
11	18	30	42	832	119.0	-213059.0	-1574.0	14488.0
11	18	30	42	832	120.0	-207751.0	-1578.0	-9929.0
11	18	30	42	833	121.0	-199346.0	-1587.0	-22284.0
11	18	30	42	833	122.0	-190110.0	-1594.0	-14914.0
11	18	30	42	834	123.0	-183547.0	-1589.0	-5585.0
11	18	30	42	845	124.0	-181424.0	-1580.0	-377.0
11	18	30	42	845	125.0	-181821.0	-1597.0	5093.0
11	18	30	42	846	126.0	-182304.0	-1611.0	15068.0
11	18	30	42	847	127.0	-182038.0	-1617.0	30633.0
11	18	30	42	847	128.0	-181649.0	-1618.0	23586.0
11	18	30	42	848	129.0	-182184.0	-1634.0	3994.0
11	18	30	42	849	130.0	-184221.0	-1639.0	-21048.0
11	18	30	42	849	131.0	-189199.0	-1640.0	-31086.0
11	18	30	42	888	132.0	-197684.0	-1642.0	-20892.0
11	18	30	42	889	133.0	-207244.0	-1655.0	-8517.0
11	18	30	42	890	134.0	-213946.0	-1663.0	4006.0
11	18	30	42	891	135.0	-216738.0	-1651.0	13452.0
11	18	30	42	891	136.0	-215642.0	-1649.0	25365.0
11	18	30	42	892	137.0	-211619.0	-1656.0	41518.0
11	18	30	42	893	138.0	-206735.0	-1664.0	34934.0
11	18	30	42	893	140.0	-197706.0	-1679.0	-9722.0
11	18	30	42	895	141.0	-194442.0	-1696.0	-19672.0
11	18	30	42	896	142.0	-191911.0	-1694.0	-11187.0
11	18	30	42	897	143.0	-190059.0	-1682.0	351.0
11	18	30	42	897	144.0	-188748.0	-1701.0	9531.0
11	18	30	42	898	145.0	-187503.0	-1702.0	17170.0
11	18	30	42	899	146.0	-186364.0	-1720.0	28880.0
11	18	30	42	899	147.0	-185749.0	-1725.0	43952.0
11	18	30	42	900	148.0	-185046.0	-1742.0	33734.0
11	18	30	42	901	162.0	-192726.0	-1859.0	-13947.0
11	18	30	42	901	163.0	-192549.0	-1879.0	-3867.0
11	18	30	42	902	164.0	-192893.0	-1872.0	3162.0
11	18	30	42	902	165.0	-193356.0	-1876.0	10148.0
11	18	30	42	903	166.0	-193859.0	-1893.0	22279.0
11	18	30	42	903	167.0	-194629.0	-1906.0	35198.0
11	18	30	42	904	168.0	-195341.0	-1911.0	22812.0
11	18	30	42	933	169.0	-196317.0	-1917.0	228.0
11	18	30	42	934	170.0	-197903.0	-1924.0	-25709.0
11	18	30	42	935	171.0	-199571.0	-1935.0	-31649.0
11	18	30	42	936	172.0	-201488.0	-1931.0	-21836.0
11	18	30	42	936	173.0	-204062.0	-1944.0	-11531.0
11	18	30	42	937	174.0	-206521.0	-1928.0	-4247.0
11	18	30	42	938	175.0	-208347.0	-1927.0	2783.0
11	18	30	42	938	176.0	-209283.0	-1937.0	14148.0
11	18	30	42	939	177.0	-209302.0	-1979.0	26930.0
11	18	30	42	940	178.0	-208745.0	-1969.0	15765.0
11	18	30	42	940	179.0	-207617.0	-1991.0	-6303.0
11	18	30	42	941	180.0	-206154.0	-1979.0	-30949.0
11	18	30	42	942	181.0	-204487.0	-1974.0	-36186.0
11	18	30	42	942	182.0	-202533.0	-1981.0	-27476.0
11	18	30	42	943	183.0	-200556.0	-1989.0	-18342.0
11	18	30	42	943	185.0	-198048.0	-2009.0	-1395.0
11	18	30	42	944	186.0	-197238.0	-1996.0	13958.0
11	18	30	42	945	187.0	-196923.0	-2014.0	26991.0
11	18	30	42	945	188.0	-197067.0	-2019.0	15137.0
11	18	30	42	946	189.0	-197131.0	-2032.0	-5919.0
11	18	30	42	946	190.0	-197171.0	-2042.0	-29437.0
11	18	30	42	978	191.0	-197587.0	-2044.0	-32659.0
11	18	30	42	979	192.0	-198438.0	-2033.0	-23120.0
11	18	30	42	980	193.0	-199321.0	-2044.0	-14216.0
11	18	30	42	981	194.0	-199736.0	-2051.0	-6442.0
11	18	30	42	981	195.0	-199816.0	-2050.0	2788.0
11	18	30	42	982	196.0	-199290.0	-2035.0	18648.0
11	18	30	42	983	197.0	-198151.0	-2062.0	30841.0
11	18	30	42	983	198.0	-196354.0	-2058.0	17613.0
11	18	30	42	984	199.0	-194556.0	-2051.0	-4576.0
11	18	30	42	984	200.0	-192995.0	-2069.0	-27393.0
11	18	30	43	24	201.0	-191657.0	-2065.0	-28202.0
11	18	30	43	25	202.0	-190547.0	-2064.0	-15744.0
11	18	30	43	26	203.0	-189541.0	-2069.0	-4561.0
11	18	30	43	27	204.0	-188763.0	-2066.0	3899.0
11	18	30	43	28	205.0	-188078.0	-2075.0	10888.0
11	18	30	43	29	207.0	-187566.0	-2061.0	33324.0
11	18	30	43	30	208.0	-187846.0	-2042.0	18249.0
11	18	30	43	31	209.0	-188942.0	-2048.0	-2741.0
11	18	30	43	31	210.0	-190517.0	-2046.0	-24597.0
11	18	30	43	32	211.0	-192331.0	-2040.0	-23662.0
11	18	30	43	33	212.0	-194531.0	-2047.0	-10904.0
11	18	30	43	33	213.0	-196903.0	-2044.0	752.0
11	18	30	43	34	214.0	-199188.0	-2043.0	10088.0
11	18	30	43	35	215.0	-200931.0	-2034.0	19446.0
11	18	30	43	36	216.0	-202411.0	-2031.0	35148.0
11	18	30	43	37	230.0	-204114.0	-1893.0	-17257.0
11	18	30	43	38	231.0	-204760.0	-1865.0	-17834.0
11	18	30	43	39	232.0	-204777.0	-1839.0	-7689.0
11	18	30	43	39	233.0	-204479.0	-1812.0	2612.0
11	18	30	43	40	234.0	-203559.0	-1807.0	11504.0
11	18	30	43	40	235.0	-201567.0	-1793.0	19681.0
11	18	30	43	69	236.0	-196645.0	-1779.0	34521.0
11	18	30	43	70	237.0	-186277.0	-1761.0	38536.0
11	18	30	43	71	238.0	-173902.0	-1764.0	19648.0
11	18	30	43	71	239.0	-167226.0	-1736.0	-4612.0
11	18	30	43	72	240.0	-171474.0	-1719.0	-24962.0
11	18	30	43	73	241.0	-183114.0	-1712.0	-23599.0
11	18	30	43	73	242.0	-195647.0	-1691.0	-14503.0
11	18	30	43	74	243.0	-207536.0	-1674.0	-5021.0
11	18	30	43	75	244.0	-214439.0	-1667.0	3745.0
11	18	30	43	75	245.0	-214962.0	-1666.0	14275.0
11	18	30	43	76	246.0	-214979.0	-1640.0	31060.0
11	18	30	43	76	247.0	-217537.0	-1620.0	34508.0
11	18	30	43	77	248.0	-219667.0	-1609.0	17516.0
11	18	30	43	78	249.0	-218314.0	-1598.0	-5350.0
11	18	30	43	78	250.0	-213707.0	-1578.0	-24210.0
11	18	30	43	79	252.0	-199442.0	-1532.0	-11038.0
11	18	30	43	80	253.0	-191025.0	-1523.0	-1615.0
11	18	30	43	80	254.0	-183209.0	-1507.0	6414.0
11	18	30	43	81	255.0	-176051.0	-1489.0	14844.0
11	18	30	43	81	0.0	-171054.0	-1474.0	28979.0
11	18	30	43	82	1.0	-171277.0	-1465.0	32033.0
11	18	30	43	114	2.0	-175969.0	-1456.0	15544.0
11	18	30	43	115	3.0	-181650.0	-1444.0	-8864.0
11	18	30	43	116	4.0	-187016.0	-1431.0	-26690.0
11	18	30	43	116	5.0	-191740.0	-1414.0	-22642.0
11	18	30	43	117	6.0	-194500.0	-1406.0	-12117.0
11	18	30	43	117	7.0	-195766.0	-1406.0	-2359.0
11	18	30	43	118	8.0	-197102.0	-1398.0	6313.0
11	18	30	43	119	9.0	-198903.0	-1384.0	16097.0
11	18	30	43	119	10.0	-201082.0	-1372.0	33063.0
11	18	30	43	159	11.0	-203642.0	-1366.0	35711.0
11	18	30	43	159	12.0	-205471.0	-1359.0	18518.0
11	18	30	43	160	13.0	-205050.0	-1353.0	-4492.0
11	18	30	43	161	14.0	-203006.0	-1346.0	-21814.0
11	18	30	43	162	15.0	-199462.0	-1333.0	-16004.0
11	18	30	43	162	16.0	-195112.0	-1331.0	-3737.0
11	18	30	43	163	18.0	-187467.0	-1310.0	11815.0
11	18	30	43	164	19.0	-185676.0	-1316.0	21086.0
11	18	30	43	164	20.0	-185174.0	-1300.0	36477.0
11	18	30	43	204	21.0	-185899.0	-1308.0	36566.0
11	18	30	43	205	22.0	-187634.0	-1285.0	18269.0
11	18	30	43	205	23.0	-189876.0	-1282.0	-7966.0
11	18	30	43	206	24.0	-192660.0	-1304.0	-25670.0
11	18	30	43	207	25.0	-196262.0	-1286.0	-19264.0
11	18	30	43	208	26.0	-200372.0	-1266.0	-8839.0
11	18	30	43	208	27.0	-204904.0	-1269.0	-3067.0
11	18	30	43	209	41.0	-205123.0	-1249.0	32897.0
11	18	30	43	210	42.0	-201110.0	-1254.0	13704.0
11	18	30	43	211	43.0	-198118.0	-1244.0	-12657.0
11	18	30	43	212	44.0	-195751.0	-1234.0	-26707.0
11	18	30	43	212	45.0	-194027.0	-1211.0	-18908.0
11	18	30	43	213	46.0	-192244.0	-1226.0	-8378.0
11	18	30	43	214	47.0	-190385.0	-1238.0	1550.0
11	18	30	43	214	48.0	-188784.0	-1226.0	11409.0
11	18	30	43	215	49.0	-187576.0	-1208.0	22719.0
11	18	30	43	216	64.0	-193457.0	-1184.0	-20751.0
11	18	30	43	216	65.0	-193007.0	-1181.0	-11035.0
11	18	30	43	217	66.0	-192356.0	-1176.0	-78.0
11	18	30	43	217	67.0	-191884.0	-1166.0	6981.0
11	18	30	43	218	68.0	-191752.0	-1167.0	14725.0
11	18	30	43	218	69.0	-191541.0	-1139.0	25802.0
11	18	30	43	250	70.0	-190951.0	-1141.0	40930.0
11	18	30	43	251	71.0	-191116.0	-1152.0	34228.0
11	18	30	43	251	72.0	-191973.0	-1155.0	15096.0
11	18	30	43	252	73.0	-193431.0	-1153.0	-9959.0
11	18	30	43	252	74.0	-194897.0	-1139.0	-20740.0
11	18	30	43	253	75.0	-196075.0	-1134.0	-13351.0
11	18	30	43	253	76.0	-197173.0	-1137.0	-3533.0
11	18	30	43	254	77.0	-198226.0	-1145.0	4026.0
11	18	30	43	254	78.0	-199327.0	-1142.0	11203.0
11	18	30	43	255	79.0	-200307.0	-1114.0	21812.0
11	18	30	43	256	80.0	-200955.0	-1104.0	37186.0
11	18	30	43	256	81.0	-201055.0	-1123.0	30315.0
11	18	30	43	257	82.0	-200949.0	-1112.0	11001.0
11	18	30	43	257	83.0	-200697.0	-1121.0	-15844.0
11	18	30	43	258	84.0	-199947.0	-1100.0	-26440.0
11	18	30	43	258	86.0	-197536.0	-1081.0	-7148.0
11	18	30	43	259	87.0	-196187.0	-1082.0	1559.0
11	18	30	43	260	88.0	-195030.0	-1081.0	10275.0
11	18	30	43	260	89.0	-194316.0	-1069.0	22130.0
11	18	30	43	261	90.0	-194076.0	-1054.0	35521.0
11	18	30	43	261	91.0	-194136.0	-1059.0	26143.0
11	18	30	43	339	92.0	-194562.0	-1051.0	7098.0
11	18	30	43	340	93.0	-195170.0	-1031.0	-17741.0
11	18	30	43	340	94.0	-195851.0	-1039.0	-25064.0
11	18	30	43	341	95.0	-196368.0	-1034.0	-15977.0
11	18	30	43	341	96.0	-197084.0	-1017.0	-5909.0
11	18	30	43	342	97.0	-198045.0	-1007.0	2629.0
11	18	30	43	343	98.0	-199022.0	-1001.0	11024.0
11	18	30	43	343	99.0	-200006.0	-1024.0	24183.0
11	18	30	43	344	100.0	-200905.0	-1011.0	38234.0
11	18	30	43	344	101.0	-201152.0	-1015.0	27374.0
11	18	30	43	384	102.0	-200981.0	-1024.0	4146.0
11	18	30	43	385	103.0	-200576.0	-999.0	-22354.0
11	18	30	43	385	104.0	-200195.0	-970.0	-28661.0
11	18	30	43	386	105.0	-199187.0	-976.0	-17563.0
11	18	30	43	428	106.0	-197800.0	-977.0	-6121.0
11	18	30	43	428	108.0	-193674.0	-961.0	10573.0
11	18	30	43	429	131.0	-201379.0	-756.0	29394.0
11	18	30	43	430	132.0	-203588.0	-749.0	7473.0
11	18	30	43	430	133.0	-205305.0	-747.0	-18576.0
11	18	30	43	474	134.0	-206650.0	-727.0	-21388.0
11	18	30	43	474	135.0	-207571.0	-687.0	-9957.0
11	18	30	43	484	136.0	-208102.0	-677.0	109.0
11	18	30	43	485	137.0	-208280.0	-687.0	8283.0
11	18	30	43	486	138.0	-208106.0	-681.0	16308.0
11	18	30	43	486	139.0	-207739.0	-670.0	30859.0
11	18	30	43	487	153.0	-152615.0	-487.0	-11495.0
11	18	30	43	488	154.0	-155145.0	-486.0	-13561.0
11	18	30	43	488	155.0	-160381.0	-466.0	-5809.0
11	18	30	43	518	156.0	-167065.0	-430.0	-77.0
11	18	30	43	519	157.0	-173561.0	-421.0	4696.0
11	18	30	43	520	176.0	-110132.0	-60.0	32384.0
11	18	30	43	520	177.0	-107186.0	-42.0	39494.0
11	18	30	43	521	178.0	-105559.0	-16.0	47414.0
11	18	30	43	521	179.0	-104893.0	13.0	62452.0
11	18	30	43	522	180.0	-105734.0	38.0	66203.0
11	18	30	43	564	198.0	-234147.0	624.0	300486.0
11	18	30	43	564	199.0	-262365.0	662.0	401436.0
11	18	30	43	565	200.0	-282979.0	698.0	497396.0
11	18	30	43	565	201.0	-295074.0	723.0	588175.0
11	18	30	43	566	202.0	-299744.0	759.0	682343.0
11	18	30	43	567	203.0	-300366.0	796.0	799201.0
11	18	30	43	567	204.0	-298981.0	833.0	942200.0
11	18	30	43	568	205.0	-295787.0	879.0	1084012.0
11	18	30	43	569	206.0	-290941.0	908.0	1218574.0
11	18	30	43	570	221.0	-189802.0	1422.0	2176436.0
11	18	30	43	571	222.0	-180974.0	1448.0	2183501.0
11	18	30	43	571	223.0	-179245.0	1476.0	2194946.0
11	18	30	43	572	224.0	-185273.0	1505.0	2213802.0
11	18	30	43	573	225.0	-197455.0	1537.0	2231619.0
11	18	30	43	573	226.0	-212307.0	1567.0	2246751.0
11	18	30	43	574	243.0	-220954.0	1889.0	2393102.0
11	18	30	43	575	244.0	-231152.0	1913.0	2405538.0
11	18	30	43	575	245.0	-237898.0	1932.0	2418034.0
11	18	30	43	609	246.0	-255739.0	1939.0	2428042.0
11	18	30	43	609	247.0	-254860.0	1956.0	2435878.0
11	18	30	43	610	248.0	-252579.0	1989.0	2444366.0
11	18	30	43	611	249.0	-273087.0	1999.0	2452521.0
11	18	30	43	611	250.0	-274987.0	1988.0	2454205.0
11	18	30	43	612	251.0	-272573.0	2009.0	2458508.0
11	18	30	43	612	252.0	-294604.0	2040.0	2462606.0
11	18	30	43	613	253.0	-296341.0	2054.0	2467503.0
11	18	30	43	613	254.0	-284727.0	2074.0	2478214.0
11	18	30	43	654	255.0	-275971.0	2070.0	2488358.0
11	18	30	43	655	0.0	-274802.0	2069.0	2496289.0
11	18	30	43	655	1.0	-249372.0	2096.0	2503064.0
11	18	30	43	656	2.0	-232181.0	2129.0	2511148.0
11	18	30	43	657	3.0	-244656.0	2130.0	2517443.0
11	18	30	43	657	4.0	-240794.0	2145.0	2516358.0
11	18	30	43	658	10.0	-176754.0	2217.0	2549403.0
11	18	30	43	658	11.0	-174456.0	2219.0	2554325.0
11	18	30	43	659	12.0	-158911.0	2259.0	2560378.0
11	18	30	43	659	13.0	-149323.0	2275.0	2569042.0
11	18	30	43	660	14.0	-145774.0	2288.0	2573264.0
11	18	30	43	661	15.0	-156249.0	2286.0	2574183.0
11	18	30	43	661	16.0	-150855.0	2299.0	2574506.0
11	18	30	43	662	17.0	-157006.0	2331.0	2580083.0
11	18	30	43	663	18.0	-158291.0	2353.0	2589525.0
11	18	30	43	663	19.0	-167742.0	2363.0	2599144.0
11	18	30	43	664	32.0	-192808.0	2525.0	2663519.0
11	18	30	43	665	33.0	-190024.0	2539.0	2665038.0
11	18	30	43	665	34.0	-194229.0	2534.0	2661988.0
11	18	30	43	666	35.0	-195873.0	2525.0	2660394.0
11	18	30	43	666	36.0	-209779.0	2540.0	2658649.0
11	18	30	43	667	37.0	-214563.0	2579.0	2658455.0
11	18	30	43	668	38.0	-227394.0	2608.0	2661538.0
11	18	30	43	699	39.0	-236513.0	2617.0	2664496.0
11	18	30	43	700	40.0	-241176.0	2641.0	2666846.0
11	18	30	43	700	41.0	-249362.0	2639.0	2668292.0
11	18	30	43	701	42.0	-251113.0	2667.0	2669235.0
11	18	30	43	701	43.0	-243600.0	2677.0	2671501.0
11	18	30	43	702	44.0	-239799.0	2675.0	2669909.0
11	18	30	43	702	45.0	-240006.0	2689.0	2665993.0
11	18	30	43	703	46.0	-228309.0	2709.0	2660326.0
11	18	30	43	704	47.0	-222197.0	2733.0	2658089.0
11	18	30	43	704	48.0	-206037.0	2751.0	2660922.0
11	18	30	43	705	49.0	-181801.0	2776.0	2663996.0
11	18	30	43	705	50.0	-151671.0	2814.0	2664462.0
11	18	30	43	706	51.0	-120335.0	2836.0	2663385.0
11	18	30	43	706	52.0	-94372.0	2869.0	2663286.0
11	18	30	43	745	53.0	-83244.0	2876.0	2664529.0
11	18	30	43	745	54.0	-87475.0	2886.0	2659912.0
11	18	30	43	746	55.0	-91894.0	2906.0	2653826.0
11	18	30	43	747	56.0	-99036.0	2935.0	2647062.0
11	18	30	43	747	57.0	-116379.0	2979.0	2642606.0
11	18	30	43	748	58.0	-122626.0	3009.0	2640063.0
11	18	30	43	748	59.0	-128271.0	3041.0	2638344.0
11	18	30	43	749	60.0	-128428.0	3078.0	2637043.0
11	18	30	43	749	61.0	-107439.0	3114.0	2636769.0
11	18	30	43	750	62.0	-72810.0	3161.0	2636166.0
11	18	30	43	751	63.0	-25517.0	3176.0	2637683.0
11	18	30	43	751	64.0	27214.0	3196.0	2635658.0
11	18	30	43	752	65.0	73148.0	3225.0	2631076.0
11	18	30	43	752	66.0	94336.0	3259.0	2624344.0
11	18	30	43	753	67.0	98650.0	3319.0	2621083.0
11	18	30	43	753	77.0	-271592.0	3704.0	2600693.0
11	18	30	43	754	78.0	-306391.0	3752.0	2601219.0
11	18	30	43	755	79.0	-343811.0	3797.0	2601424.0
11	18	30	43	755	80.0	-374254.0	3821.0	2600897.0
11	18	30	43	756	81.0	-403470.0	3872.0	2601099.0
11	18	30	43	756	82.0	-418216.0	3933.0	2601963.0
11	18	30	43	835	83.0	-430921.0	3922.0	2606223.0
11	18	30	43	835	84.0	-429569.0	3919.0	2605501.0
11	18	30	43	836	85.0	-419096.0	3918.0	2603141.0
11	18	30	43	837	86.0	-404473.0	3946.0	2597891.0
11	18	30	43	837	87.0	-390356.0	4008.0	2593771.0
11	18	30	43	838	88.0	-360911.0	4054.0	2593368.0
11	18	30	43	838	89.0	-341339.0	4063.0	2594133.0
11	18	30	43	839	90.0	-324116.0	4092.0	2594286.0
11	18	30	43	925	91.0	-309913.0	4118.0	2593973.0
11	18	30	43	926	92.0	-305494.0	4166.0	2593054.0
11	18	30	43	926	93.0	-298881.0	4170.0	2595537.0
11	18	30	43	927	94.0	-291187.0	4145.0	2595293.0
11	18	30	43	928	95.0	-285539.0	4145.0	2592466.0
11	18	30	43	928	96.0	-286342.0	4178.0	2586134.0
11	18	30	43	929	97.0	-279238.0	4218.0	2580164.0
11	18	30	43	929	122.0	-220241.0	4762.0	2512016.0
11	18	30	43	930	123.0	-233549.0	4761.0	2512783.0
11	18	30	43	930	124.0	-240994.0	4758.0	2511903.0
11	18	30	43	931	125.0	-249197.0	4764.0	2507982.0
11	18	30	43	932	126.0	-256772.0	4808.0	2501277.0
11	18	30	43	932	127.0	-275555.0	4854.0	2495494.0
11	18	30	43	933	128.0	-282128.0	4874.0	2492544.0
11	18	30	43	933	129.0	-291743.0	4898.0	2490679.0
11	18	30	43	934	130.0	-291978.0	4926.0	2488169.0
11	18	30	43	934	167.0	-268047.0	5602.0	2373214.0
11	18	30	43	935	168.0	-267864.0	5621.0	2370463.0
11	18	30	43	970	169.0	-263104.0	5630.0	2368405.0
11	18	30	43	970	170.0	-261352.0	5642.0	2366431.0
11	18	30	43	971	171.0	-260279.0	5673.0	2363143.0
11	18	30	43	972	172.0	-248088.0	5693.0	2361226.0
11	18	30	44	14	173.0	-235839.0	5686.0	2363398.0
11	18	30	44	15	174.0	-223622.0	5669.0	2362240.0
11	18	30	44	15	175.0	-220396.0	5654.0	2359191.0
11	18	30	44	16	176.0	-204542.0	5701.0	2352426.0
11	18	30	44	17	177.0	-191949.0	5744.0	2347466.0
11	18	30	44	17	178.0	-179924.0	5768.0	2344445.0
11	18	30	44	18	179.0	-179532.0	5771.0	2341519.0
11	18	30	44	19	180.0	-169267.0	5794.0	2339064.0
11	18	30	44	19	181.0	-163087.0	5817.0	2335751.0
11	18	30	44	20	182.0	-156492.0	5810.0	2333581.0
11	18	30	44	20	183.0	-162752.0	5785.0	2335190.0
11	18	30	44	21	184.0	-162690.0	5787.0	2333615.0
11	18	30	44	58	190.0	-163397.0	5879.0	2313016.0
11	18	30	44	59	191.0	-169241.0	5906.0	2309294.0
11	18	30	44	60	192.0	-173172.0	5918.0	2306601.0
11	18	30	44	60	212.0	-210367.0	6043.0	2248157.0
11	18	30	44	61	213.0	-200825.0	6018.0	2249493.0
11	18	30	44	61	214.0	-194839.0	6028.0	2249339.0
11	18	30	44	148	215.0	-201364.0	6021.0	2247075.0
11	18	30	44	149	216.0	-199475.0	6048.0	2239846.0
11	18	30	44	194	217.0	-191455.0	6068.0	2235863.0
11	18	30	44	237	218.0	-189703.0	6058.0	2233191.0
11	18	30	44	238	219.0	-202227.0	6073.0	2230728.0
11	18	30	44	239	220.0	-202947.0	6059.0	2228116.0
11	18	30	44	240	221.0	-199912.0	6080.0	2224931.0
11	18	30	44	240	222.0	-202995.0	6076.0	2224654.0
11	18	30	44	241	234.0	-188539.0	6002.0	2200798.0
11	18	30	44	241	235.0	-185449.0	6013.0	2197546.0
11	18	30	44	242	236.0	-172500.0	6058.0	2190885.0
11	18	30	44	243	237.0	-164742.0	6088.0	2186436.0
11	18	30	44	243	238.0	-170902.0	6076.0	2183656.0
11	18	30	44	244	239.0	-167356.0	6074.0	2180546.0
11	18	30	44	244	240.0	-159701.0	6073.0	2177920.0
11	18	30	44	245	241.0	-159862.0	6096.0	2173541.0
11	18	30	44	246	23.0	-240106.0	5871.0	2103974.0
11	18	30	44	246	46.0	-255504.0	5653.0	2001842.0
11	18	30	44	247	68.0	-203751.0	5342.0	1943806.0
11	18	30	44	247	69.0	-210773.0	5333.0	1938378.0
11	18	30	44	248	70.0	-211287.0	5339.0	1931707.0
11	18	30	44	248	71.0	-209887.0	5342.0	1927922.0
11	18	30	44	249	72.0	-207771.0	5337.0	1925154.0
11	18	30	44	250	73.0	-205551.0	5331.0	1921957.0
11	18	30	44	281	74.0	-202310.0	5309.0	1918755.0
11	18	30	44	282	75.0	-195676.0	5317.0	1915470.0
11	18	30	44	283	76.0	-191977.0	5283.0	1916988.0
11	18	30	44	283	77.0	-190248.0	5241.0	1916851.0
11	18	30	44	284	78.0	-189679.0	5199.0	1915915.0
11	18	30	44	284	79.0	-190354.0	5197.0	1910075.0
11	18	30	44	285	80.0	-193363.0	5201.0	1903449.0
11	18	30	44	286	81.0	-197673.0	5194.0	1899570.0
11	18	30	44	286	82.0	-202268.0	5186.0	1896427.0
11	18	30	44	287	83.0	-207118.0	5180.0	1893597.0
11	18	30	44	287	84.0	-212723.0	5158.0	1890462.0
11	18	30	44	288	85.0	-219346.0	5144.0	1887319.0
11	18	30	44	289	86.0	-224949.0	5088.0	1889026.0
11	18	30	44	290	87.0	-228107.0	5064.0	1888254.0
11	18	30	44	290	88.0	-230024.0	5025.0	1887313.0
11	18	30	44	291	90.0	-228971.0	5024.0	1874171.0
11	18	30	44	291	91.0	-224525.0	4997.0	1870392.0
11	18	30	44	292	92.0	-218126.0	4985.0	1867305.0
11	18	30	44	293	93.0	-210069.0	4972.0	1864188.0
11	18	30	44	327	94.0	-200313.0	4964.0	1860503.0
11	18	30	44	328	95.0	-189729.0	4954.0	1857134.0
11	18	30	44	328	96.0	-179411.0	4878.0	1857850.0
11	18	30	44	329	97.0	-170867.0	4853.0	1857839.0
11	18	30	44	330	98.0	-164622.0	4830.0	1856973.0
11	18	30	44	330	99.0	-159399.0	4826.0	1850079.0
11	18	30	44	331	100.0	-155907.0	4814.0	1842808.0
11	18	30	44	332	101.0	-154346.0	4808.0	1838919.0
11	18	30	44	332	102.0	-154986.0	4790.0	1835759.0
11	18	30	44	333	103.0	-157411.0	4779.0	1832348.0
11	18	30	44	333	104.0	-160947.0	4760.0	1828216.0
11	18	30	44	334	105.0	-165129.0	4734.0	1825434.0
11	18	30	44	335	106.0	-169676.0	4664.0	1826884.0
11	18	30	44	335	107.0	-174069.0	4637.0	1826159.0
11	18	30	44	336	108.0	-178257.0	4604.0	1824457.0
11	18	30	44	336	113.0	-186272.0	4544.0	1802191.0
11	18	30	44	337	114.0	-188051.0	4544.0	1798298.0
11	18	30	44	337	115.0	-189986.0	4519.0	1795718.0
11	18	30	44	338	116.0	-191587.0	4463.0	1797968.0
11	18	30	44	346	117.0	-192100.0	4436.0	1797986.0
11	18	30	44	347	118.0	-192404.0	4404.0	1796186.0
11	18	30	44	348	119.0	-192361.0	4410.0	1789263.0
11	18	30	44	372	120.0	-191819.0	4404.0	1783179.0
11	18	30	44	373	121.0	-190970.0	4397.0	1780990.0
11	18	30	44	374	122.0	-189767.0	4373.0	1778694.0
11	18	30	44	374	123.0	-188419.0	4356.0	1776201.0
11	18	30	44	375	124.0	-187281.0	4348.0	1772811.0
11	18	30	44	376	125.0	-185981.0	4314.0	1771379.0
11	18	30	44	376	126.0	-184796.0	4258.0	1774759.0
11	18	30	44	377	127.0	-183655.0	4227.0	1774366.0
11	18	30	44	377	128.0	-182551.0	4195.0	1773434.0
11	18	30	44	378	129.0	-181298.0	4203.0	1767950.0
11	18	30	44	379	130.0	-180696.0	4207.0	1763306.0
11	18	30	44	379	131.0	-181603.0	4181.0	1761088.0
11	18	30	44	380	132.0	-183810.0	4174.0	1759446.0
11	18	30	44	380	133.0	-186480.0	4151.0	1757936.0
11	18	30	44	381	134.0	-188853.0	4154.0	1754933.0
11	18	30	44	382	135.0	-190991.0	4149.0	1754147.0
11	18	30	44	382	136.0	-193224.0	4086.0	1757194.0
11	18	30	44	383	137.0	-195994.0	4044.0	1758071.0
11	18	30	44	384	138.0	-199173.0	4028.0	1756631.0
11	18	30	44	384	139.0	-202084.0	4036.0	1750764.0
11	18	30	44	385	140.0	-204557.0	4048.0	1746777.0
11	18	30	44	386	141.0	-207376.0	4034.0	1744876.0
11	18	30	44	417	142.0	-210885.0	4018.0	1743152.0
11	18	30	44	418	143.0	-214192.0	4011.0	1741218.0
11	18	30	44	419	144.0	-216646.0	3987.0	1738612.0
11	18	30	44	419	145.0	-217576.0	3961.0	1738486.0
11	18	30	44	420	146.0	-215731.0	3933.0	1741602.0
11	18	30	44	462	147.0	-211444.0	3905.0	1740709.0
11	18	30	44	463	148.0	-205617.0	3871.0	1739432.0
11	18	30	44	464	149.0	-199644.0	3881.0	1733330.0
11	18	30	44	464	150.0	-194821.0	3881.0	1728684.0
11	18	30	44	465	151.0	-192660.0	3869.0	1726581.0
11	18	30	44	466	152.0	-192882.0	3858.0	1724941.0
11	18	30	44	466	153.0	-194397.0	3843.0	1722724.0
11	18	30	44	467	154.0	-195652.0	3836.0	1719375.0
11	18	30	44	468	155.0	-196066.0	3824.0	1718683.0
11	18	30	44	468	156.0	-195834.0	3771.0	1720316.0
11	18	30	44	469	158.0	-196393.0	3723.0	1718158.0
11	18	30	44	470	159.0	-197729.0	3743.0	1710960.0
11	18	30	44	470	160.0	-199080.0	3745.0	1705772.0
11	18	30	44	471	161.0	-200466.0	3741.0	1702867.0
11	18	30	44	471	162.0	-201926.0	3719.0	1701018.0
11	18	30	44	472	180.0	-246899.0	3464.0	1655291.0
11	18	30	44	473	181.0	-245107.0	3470.0	1652677.0
11	18	30	44	473	182.0	-241659.0	3457.0	1650725.0
11	18	30	44	474	183.0	-238332.0	3426.0	1648568.0
11	18	30	44	475	184.0	-235372.0	3425.0	1644032.0
11	18	30	44	475	185.0	-232499.0	3407.0	1644164.0
11	18	30	44	476	186.0	-230626.0	3376.0	1646313.0
11	18	30	44	507	187.0	-229943.0	3349.0	1645990.0
11	18	30	44	508	188.0	-230261.0	3344.0	1642171.0
11	18	30	44	509	189.0	-230711.0	3350.0	1635215.0
11	18	30	44	509	190.0	-230312.0	3338.0	1631223.0
11	18	30	44	510	191.0	-228374.0	3339.0	1628792.0
11	18	30	44	511	192.0	-225087.0	3329.0	1626309.0
11	18	30	44	512	193.0	-220806.0	3316.0	1623658.0
11	18	30	44	512	194.0	-215465.0	3291.0	1620016.0
11	18	30	44	569	195.0	-209995.0	3262.0	1620614.0
11	18	30	44	593	196.0	-205222.0	3224.0	1621628.0
11	18	30	44	594	197.0	-201854.0	3181.0	1621125.0
11	18	30	44	594	198.0	-200234.0	3175.0	1617833.0
11	18	30	44	595	199.0	-199951.0	3189.0	1610726.0
11	18	30	44	595	200.0	-199918.0	3178.0	1606967.0
11	18	30	44	596	201.0	-199357.0	3153.0	1604976.0
11	18	30	44	596	203.0	-194887.0	3138.0	1600559.0
11	18	30	44	597	204.0	-191092.0	3141.0	1596088.0
11	18	30	44	598	205.0	-187086.0	3100.0	1596568.0
11	18	30	44	598	206.0	-183569.0	3053.0	1598347.0
11	18	30	44	599	207.0	-180524.0	3009.0	1597764.0
11	18	30	44	599	208.0	-177852.0	2993.0	1593787.0
11	18	30	44	600	209.0	-175103.0	3021.0	1587507.0
11	18	30	44	600	210.0	-172248.0	3027.0	1583860.0
11	18	30	44	601	233.0	-184292.0	2626.0	1527549.0
11	18	30	44	602	240.0	-222145.0	2511.0	1510446.0
11	18	30	44	602	241.0	-223331.0	2496.0	1507945.0
11	18	30	44	617	242.0	-222636.0	2490.0	1505922.0
11	18	30	44	617	243.0	-220758.0	2484.0	1503093.0
11	18	30	44	618	244.0	-218825.0	2491.0	1499132.0
11	18	30	44	619	245.0	-217389.0	2448.0	1501228.0
11	18	30	44	619	246.0	-216448.0	2403.0	1501492.0
11	18	30	44	620	247.0	-215976.0	2364.0	1501125.0
11	18	30	44	621	248.0	-215516.0	2353.0	1496761.0
11	18	30	44	621	249.0	-214382.0	2365.0	1490501.0
11	18	30	44	622	250.0	-212538.0	2371.0	1487303.0
11	18	30	44	623	251.0	-210159.0	2366.0	1485034.0
11	18	30	44	623	252.0	-207917.0	2361.0	1482973.0
11	18	30	44	624	253.0	-206189.0	2335.0	1479911.0
11	18	30	44	624	254.0	-204526.0	2311.0	1476106.0
11	18	30	44	625	255.0	-203356.0	2271.0	1478186.0
11	18	30	44	625	0.0	-203351.0	2232.0	1478796.0
11	18	30	44	626	1.0	-204435.0	2206.0	1478122.0
11	18	30	44	627	2.0	-206181.0	2223.0	1473326.0
11	18	30	44	627	3.0	-208246.0	2236.0	1467578.0
11	18	30	44	628	4.0	-209672.0	2229.0	1463828.0
11	18	30	44	628	5.0	-209997.0	2219.0	1461636.0
11	18	30	44	629	6.0	-209581.0	2208.0	1459249.0
11	18	30	44	643	7.0	-209199.0	2197.0	1456658.0
11	18	30	44	643	8.0	-211041.0	2186.0	1453361.0
11	18	30	44	644	9.0	-216357.0	2128.0	1455609.0
11	18	30	44	645	10.0	-224891.0	2085.0	1455927.0
11	18	30	44	663	11.0	-234223.0	2061.0	1455753.0
11	18	30	44	664	12.0	-241099.0	2078.0	1450411.0
11	18	30	44	664	13.0	-243783.0	2092.0	1445162.0
11	18	30	44	665	14.0	-242161.0	2069.0	1442384.0
11	18	30	44	665	15.0	-236672.0	2056.0	1440449.0
11	18	30	44	666	16.0	-228164.0	2054.0	1438370.0
11	18	30	44	667	17.0	-217287.0	2041.0	1434739.0
11	18	30	44	667	18.0	-205046.0	2029.0	1431682.0
11	18	30	44	668	19.0	-192412.0	1983.0	1433809.0
11	18	30	44	668	20.0	-179885.0	1941.0	1434525.0
11	18	30	44	669	21.0	-168684.0	1913.0	1433809.0
11	18	30	44	669	22.0	-159430.0	1927.0	1427883.0
11	18	30	44	670	23.0	-151997.0	1939.0	1422574.0
11	18	30	44	671	24.0	-146501.0	1939.0	1419976.0
11	18	30	44	671	25.0	-143161.0	1913.0	1417484.0
11	18	30	44	687	26.0	-141591.0	1893.0	1415109.0
11	18	30	44	687	27.0	-141800.0	1903.0	1411799.0
11	18	30	44	688	28.0	-143868.0	1896.0	1409283.0
11	18	30	44	689	29.0	-147095.0	1850.0	1411736.0
11	18	30	44	689	30.0	-151014.0	1818.0	1411986.0
11	18	30	44	690	31.0	-155532.0	1801.0	1411280.0
11	18	30	44	691	32.0	-160021.0	1801.0	1405458.0
11	18	30	44	691	33.0	-164708.0	1798.0	1399874.0
11	18	30	44	692	34.0	-169517.0	1791.0	1396774.0
11	18	30	44	693	35.0	-174004.0	1800.0	1394712.0
11	18	30	44	693	36.0	-177876.0	1787.0	1392678.0
11	18	30	44	694	37.0	-181152.0	1763.0	1389202.0
11	18	30	44	695	38.0	-183908.0	1763.0	1387272.0
11	18	30	44	695	39.0	-186499.0	1733.0	1389245.0
11	18	30	44	696	40.0	-189362.0	1686.0	1389813.0
11	18	30	44	719	41.0	-192065.0	1656.0	1388066.0
11	18	30	44	719	42.0	-194172.0	1672.0	1382498.0
11	18	30	44	720	43.0	-195931.0	1682.0	1378308.0
11	18	30	44	721	44.0	-197684.0	1689.0	1375198.0
11	18	30	44	721	45.0	-199360.0	1676.0	1372809.0
11	18	30	44	722	46.0	-200581.0	1668.0	1370431.0
11	18	30	44	723	47.0	-201005.0	1644.0	1366727.0
11	18	30	44	723	48.0	-200839.0	1633.0	1363940.0
11	18	30	44	742	49.0	-200129.0	1578.0	1366551.0
11	18	30	44	743	50.0	-198713.0	1564.0	1366526.0
11	18	30	44	744	51.0	-196705.0	1545.0	1365324.0
11	18	30	44	744	52.0	-194016.0	1549.0	1358981.0
11	18	30	44	745	53.0	-191611.0	1564.0	1354200.0
11	18	30	44	745	54.0	-189955.0	1571.0	1350868.0
11	18	30	44	746	55.0	-188753.0	1554.0	1348234.0
11	18	30	44	766	56.0	-188217.0	1554.0	1345906.0
11	18	30	44	766	57.0	-188746.0	1562.0	1342549.0
11	18	30	44	767	58.0	-189865.0	1546.0	1340879.0
11	18	30	44	768	59.0	-191111.0	1503.0	1343176.0
11	18	30	44	768	60.0	-192533.0	1448.0	1343251.0
11	18	30	44	769	61.0	-194504.0	1426.0	1341309.0
11	18	30	44	770	62.0	-197351.0	1449.0	1335372.0
11	18	30	44	770	63.0	-200959.0	1471.0	1330847.0
11	18	30	44	771	64.0	-204564.0	1471.0	1327655.0
11	18	30	44	772	65.0	-207787.0	1440.0	1325018.0
11	18	30	44	772	66.0	-210386.0	1436.0	1323290.0
11	18	30	44	773	67.0	-212154.0	1443.0	1320009.0
11	18	30	44	773	68.0	-212464.0	1406.0	1318534.0
11	18	30	44	774	69.0	-211009.0	1373.0	1321488.0
11	18	30	44	775	70.0	-208310.0	1364.0	1321781.0
11	18	30	44	775	71.0	-205505.0	1341.0	1320736.0
11	18	30	44	776	74.0	-198663.0	1354.0	1308639.0
11	18	30	44	777	75.0	-196361.0	1329.0	1306286.0
11	18	30	44	777	76.0	-193980.0	1325.0	1303763.0
11	18	30	44	778	77.0	-191879.0	1334.0	1300440.0
11	18	30	44	779	78.0	-190670.0	1319.0	1299866.0
11	18	30	44	779	79.0	-190145.0	1284.0	1302415.0
11	18	30	44	780	80.0	-189947.0	1262.0	1302453.0
11	18	30	44	781	81.0	-190307.0	1240.0	1300920.0
11	18	30	44	781	82.0	-191156.0	1262.0	1294923.0
11	18	30	44	792	83.0	-192561.0	1275.0	1291006.0
11	18	30	44	793	84.0	-194578.0	1255.0	1288573.0
11	18	30	44	793	85.0	-196590.0	1248.0	1285859.0
11	18	30	44	794	86.0	-198305.0	1251.0	1283622.0
11	18	30	44	795	87.0	-200278.0	1254.0	1280699.0
11	18	30	44	795	88.0	-202762.0	1220.0	1280240.0
11	18	30	44	796	89.0	-205280.0	1178.0	1282597.0
11	18	30	44	797	90.0	-207657.0	1155.0	1282764.0
11	18	30	44	822	91.0	-209887.0	1141.0	1281646.0
11	18	30	44	823	92.0	-211523.0	1167.0	1274908.0
11	18	30	44	824	93.0	-211951.0	1171.0	1270722.0
11	18	30	44	825	94.0	-210953.0	1159.0	1267788.0
11	18	30	44	825	95.0	-208473.0	1144.0	1265390.0
11	18	30	44	826	96.0	-204534.0	1138.0	1263115.0
11	18	30	44	841	97.0	-199261.0	1126.0	1259689.0
11	18	30	44	842	98.0	-193641.0	1113.0	1260207.0
11	18	30	44	842	99.0	-188252.0	1078.0	1261854.0
11	18	30	44	843	100.0	-183459.0	1054.0	1262189.0
11	18	30	44	844	101.0	-179541.0	1049.0	1260102.0
11	18	30	44	844	102.0	-176370.0	1058.0	1253546.0
11	18	30	44	845	103.0	-173467.0	1061.0	1249895.0
11	18	30	44	846	104.0	-171154.0	1051.0	1247596.0
11	18	30	44	846	105.0	-170141.0	1044.0	1244904.0
11	18	30	44	847	106.0	-169725.0	1045.0	1242064.0
11	18	30	44	847	107.0	-169481.0	1052.0	1237299.0
11	18	30	44	868	108.0	-170079.0	1016.0	1236541.0
11	18	30	44	869	109.0	-171641.0	977.0	1237322.0
11	18	30	44	870	110.0	-174026.0	967.0	1235855.0
11	18	30	44	871	111.0	-177349.0	950.0	1231963.0
11	18	30	44	871	112.0	-181239.0	955.0	1222288.0
11	18	30	44	872	113.0	-185062.0	954.0	1215244.0
11	18	30	44	873	114.0	-188699.0	948.0	1212091.0
11	18	30	44	873	115.0	-191877.0	951.0	1210831.0
11	18	30	44	874	116.0	-194744.0	941.0	1210885.0
11	18	30	44	875	117.0	-197052.0	938.0	1212420.0
11	18	30	44	875	118.0	-198754.0	886.0	1217461.0
11	18	30	44	876	119.0	-200453.0	864.0	1222837.0
11	18	30	44	877	120.0	-202271.0	843.0	1228093.0
11	18	30	44	878	121.0	-204402.0	843.0	1228969.0
11	18	30	44	878	122.0	-207112.0	843.0	1227601.0
11	18	30	44	879	123.0	-211054.0	832.0	1230145.0
11	18	30	44	880	127.0	-232303.0	836.0	1232561.0
11	18	30	44	897	128.0	-236734.0	785.0	1236101.0
11	18	30	44	898	129.0	-239962.0	739.0	1239093.0
11	18	30	44	899	130.0	-242351.0	728.0	1237901.0
11	18	30	44	899	131.0	-243569.0	725.0	1233528.0
11	18	30	44	920	132.0	-243526.0	734.0	1226848.0
11	18	30	44	921	133.0	-242122.0	738.0	1222571.0
11	18	30	44	921	134.0	-240059.0	729.0	1219338.0
11	18	30	44	922	135.0	-237342.0	718.0	1214894.0
11	18	30	44	923	136.0	-234537.0	726.0	1209359.0
11	18	30	44	923	137.0	-231096.0	722.0	1202083.0
11	18	30	44	924	138.0	-226799.0	684.0	1198744.0
11	18	30	44	924	139.0	-221606.0	645.0	1195861.0
11	18	30	44	925	140.0	-215969.0	630.0	1192218.0
11	18	30	44	925	141.0	-211188.0	622.0	1184572.0
11	18	30	44	926	142.0	-207227.0	644.0	1175628.0
11	18	30	44	926	143.0	-198600.0	640.0	1169941.0
11	18	30	44	927	144.0	-181486.0	621.0	1165766.0
11	18	30	44	927	145.0	-161411.0	618.0	1162379.0
11	18	30	44	928	146.0	-146774.0	615.0	1159989.0
11	18	30	44	929	149.0	-150263.0	542.0	1159491.0
11	18	30	44	929	150.0	-158663.0	517.0	1159078.0
11	18	30	44	930	151.0	-172428.0	509.0	1155029.0
11	18	30	44	930	152.0	-191242.0	541.0	1148762.0
11	18	30	44	931	153.0	-211849.0	556.0	1145625.0
11	18	30	44	931	154.0	-229026.0	538.0	1143526.0
11	18	30	44	943	155.0	-238334.0	503.0	1141007.0
11	18	30	44	944	156.0	-239962.0	506.0	1138165.0
11	18	30	44	945	157.0	-234207.0	502.0	1135093.0
11	18	30	44	945	158.0	-221147.0	473.0	1136646.0
11	18	30	44	946	159.0	-202187.0	463.0	1137066.0
11	18	30	44	947	160.0	-180086.0	452.0	1136184.0
11	18	30	44	947	161.0	-159149.0	446.0	1131666.0
11	18	30	44	948	162.0	-145096.0	452.0	1126044.0
11	18	30	44	948	163.0	-139682.0	453.0	1123231.0
11	18	30	44	949	164.0	-139752.0	452.0	1121081.0
11	18	30	44	949	165.0	-141001.0	459.0	1118958.0
11	18	30	44	950	166.0	-142869.0	453.0	1116409.0
11	18	30	44	966	167.0	-145984.0	440.0	1113563.0
11	18	30	44	967	168.0	-150012.0	406.0	1115026.0
11	18	30	44	967	169.0	-155951.0	373.0	1114712.0
11	18	30	44	968	170.0	-166163.0	362.0	1114180.0
11	18	30	44	968	171.0	-181056.0	383.0	1110644.0
11	18	30	44	969	172.0	-197440.0	386.0	1104771.0
11	18	30	44	989	173.0	-211844.0	391.0	1101688.0
11	18	30	44	990	174.0	-221949.0	391.0	1099886.0
11	18	30	44	991	175.0	-226840.0	396.0	1097908.0
11	18	30	44	991	176.0	-226951.0	386.0	1095534.0
11	18	30	44	992	177.0	-223756.0	369.0	1092688.0
11	18	30	44	992	178.0	-218844.0	341.0	1094716.0
11	18	30	44	993	179.0	-213764.0	306.0	1094476.0
11	18	30	44	993	180.0	-209277.0	283.0	1094441.0
11	18	30	44	994	181.0	-205326.0	301.0	1089680.0
11	18	30	44	994	182.0	-202127.0	316.0	1084290.0
11	18	30	44	995	183.0	-200259.0	314.0	1081414.0
11	18	30	44	995	184.0	-200268.0	296.0	1079589.0
11	18	30	45	18	185.0	-201686.0	299.0	1077113.0
11	18	30	45	19	186.0	-203615.0	282.0	1073957.0
11	18	30	45	19	187.0	-205861.0	284.0	1071356.0
11	18	30	45	20	188.0	-208244.0	257.0	1073594.0
11	18	30	45	20	189.0	-210251.0	229.0	1073623.0
11	18	30	45	21	190.0	-211382.0	187.0	1072911.0
11	18	30	45	21	191.0	-211806.0	191.0	1068064.0
11	18	30	45	22	192.0	-211696.0	223.0	1062571.0
11	18	30	45	23	193.0	-210882.0	206.0	1060029.0
11	18	30	45	23	194.0	-209552.0	184.0	1058186.0
11	18	30	45	24	195.0	-207913.0	186.0	1056148.0
11	18	30	45	24	196.0	-206159.0	181.0	1053078.0
11	18	30	45	39	197.0	-204126.0	180.0	1050154.0
11	18	30	45	40	198.0	-201017.0	141.0	1051683.0
11	18	30	45	40	199.0	-196937.0	104.0	1051851.0
11	18	30	45	41	200.0	-192433.0	71.0	1051108.0
11	18	30	45	41	202.0	-183818.0	115.0	1039206.0
11	18	30	45	42	203.0	-180099.0	92.0	1037100.0
11	18	30	45	42	204.0	-177071.0	74.0	1035299.0
11	18	30	45	43	205.0	-174559.0	57.0	1032319.0
11	18	30	45	44	206.0	-172516.0	69.0	1029178.0
11	18	30	45	44	207.0	-171586.0	41.0	1026886.0
11	18	30	45	45	208.0	-171424.0	8.0	1028594.0
11	18	30	45	45	209.0	-171242.0	-12.0	1028229.0
11	18	30	45	62	210.0	-171111.0	-49.0	1027121.0
11	18	30	45	63	211.0	-171848.0	-34.0	1021858.0
11	18	30	45	64	212.0	-173469.0	-42.0	1016575.0
11	18	30	45	64	213.0	-175660.0	-61.0	1013285.0
11	18	30	45	65	214.0	-178221.0	-79.0	1011134.0
11	18	30	45	66	215.0	-181534.0	-66.0	1008885.0
11	18	30	45	66	216.0	-185982.0	-72.0	1005361.0
11	18	30	45	67	217.0	-191669.0	-92.0	1003096.0
11	18	30	45	67	218.0	-198611.0	-119.0	1005150.0
11	18	30	45	68	219.0	-206232.0	-152.0	1004993.0
11	18	30	45	69	220.0	-213267.0	-153.0	1003962.0
11	18	30	45	69	221.0	-219414.0	-136.0	998384.0
11	18	30	45	70	222.0	-224469.0	-151.0	994309.0
11	18	30	45	70	223.0	-228816.0	-160.0	992589.0
11	18	30	45	71	224.0	-231834.0	-171.0	990594.0
11	18	30	45	72	225.0	-233833.0	-186.0	988384.0
11	18	30	45	72	226.0	-234096.0	-181.0	985927.0
11	18	30	45	73	227.0	-232146.0	-185.0	984461.0
11	18	30	45	73	228.0	-229288.0	-217.0	987390.0
11	18	30	45	93	229.0	-226777.0	-244.0	987514.0
11	18	30	45	94	230.0	-224293.0	-254.0	986796.0
11	18	30	45	94	231.0	-221836.0	-246.0	982180.0
11	18	30	45	95	232.0	-219244.0	-232.0	978508.0
11	18	30	45	96	233.0	-216082.0	-240.0	976982.0
11	18	30	45	96	234.0	-212234.0	-248.0	976006.0
11	18	30	45	97	235.0	-208226.0	-262.0	974704.0
11	18	30	45	98	236.0	-203911.0	-237.0	972786.0
11	18	30	45	98	237.0	-198949.0	-255.0	972284.0
11	18	30	45	99	238.0	-193817.0	-293.0	975953.0
11	18	30	45	99	239.0	-188985.0	-312.0	977030.0
11	18	30	45	100	240.0	-184502.0	-336.0	976883.0
11	18	30	45	100	241.0	-180736.0	-320.0	972359.0
11	18	30	45	101	242.0	-177674.0	-273.0	969549.0
11	18	30	45	110	243.0	-175906.0	-279.0	968632.0
11	18	30	45	111	244.0	-175618.0	-301.0	967811.0
11	18	30	45	111	245.0	-176105.0	-289.0	966873.0
11	18	30	45	112	246.0	-177021.0	-282.0	965028.0
11	18	30	45	112	247.0	-178267.0	-295.0	964895.0
11	18	30	45	154	248.0	-179464.0	-312.0	968561.0
11	18	30	45	154	249.0	-180449.0	-347.0	969295.0
11	18	30	45	155	250.0	-181044.0	-355.0	968849.0
11	18	30	45	156	251.0	-181188.0	-333.0	964482.0
11	18	30	45	156	252.0	-180524.0	-314.0	961909.0
11	18	30	45	157	253.0	-179311.0	-313.0	960855.0
11	18	30	45	157	254.0	-177799.0	-326.0	959939.0
11	18	30	45	158	255.0	-176563.0	-324.0	958838.0
11	18	30	45	158	0.0	-175712.0	-321.0	956439.0
11	18	30	45	159	1.0	-175414.0	-352.0	956172.0
11	18	30	45	160	2.0	-175756.0	-375.0	958478.0
11	18	30	45	160	3.0	-176962.0	-374.0	958901.0
11	18	30	45	161	4.0	-178567.0	-387.0	958679.0
11	18	30	45	161	5.0	-180658.0	-369.0	952808.0
11	18	30	45	162	6.0	-182854.0	-343.0	949549.0
11	18	30	45	162	13.0	-200481.0	-415.0	944901.0
11	18	30	45	163	14.0	-202853.0	-424.0	943482.0
11	18	30	45	164	15.0	-205009.0	-386.0	937849.0
11	18	30	45	172	16.0	-206491.0	-359.0	934684.0
11	18	30	45	172	17.0	-206337.0	-372.0	932578.0
11	18	30	45	173	18.0	-203808.0	-374.0	930753.0
11	18	30	45	173	19.0	-197033.0	-347.0	929216.0
11	18	30	45	174	20.0	-184115.0	-335.0	925510.0
11	18	30	45	196	21.0	-172760.0	-372.0	926075.0
11	18	30	45	197	22.0	-171200.0	-387.0	928002.0
11	18	30	45	197	23.0	-181952.0	-398.0	929215.0
11	18	30	45	198	24.0	-200093.0	-406.0	928065.0
11	18	30	45	198	25.0	-218281.0	-371.0	921463.0
11	18	30	45	199	26.0	-231466.0	-366.0	917889.0
11	18	30	45	199	27.0	-235433.0	-365.0	916553.0
11	18	30	45	200	28.0	-233825.0	-356.0	915026.0
11	18	30	45	200	29.0	-232274.0	-342.0	912817.0
11	18	30	45	201	30.0	-231092.0	-337.0	909470.0
11	18	30	45	202	31.0	-227570.0	-339.0	910347.0
11	18	30	45	218	32.0	-220407.0	-381.0	912856.0
11	18	30	45	219	33.0	-210044.0	-396.0	912920.0
11	18	30	45	220	34.0	-197989.0	-402.0	910714.0
11	18	30	45	220	35.0	-185707.0	-367.0	905366.0
11	18	30	45	221	36.0	-176103.0	-354.0	901701.0
11	18	30	45	221	37.0	-171639.0	-359.0	899761.0
11	18	30	45	222	38.0	-173044.0	-361.0	897735.0
11	18	30	45	222	39.0	-179386.0	-366.0	895657.0
11	18	30	45	223	40.0	-188905.0	-349.0	892206.0
11	18	30	45	223	41.0	-200066.0	-377.0	893129.0
11	18	30	45	224	42.0	-210277.0	-391.0	895693.0
11	18	30	45	225	43.0	-216908.0	-434.0	896418.0
11	18	30	45	225	44.0	-218483.0	-446.0	894006.0
11	18	30	45	226	45.0	-215066.0	-401.0	888384.0
11	18	30	45	227	46.0	-208408.0	-398.0	885396.0
11	18	30	45	227	47.0	-200729.0	-410.0	884114.0
11	18	30	45	228	48.0	-194991.0	-400.0	882039.0
11	18	30	45	228	49.0	-192681.0	-376.0	879942.0
11	18	30	45	229	50.0	-193185.0	-375.0	876826.0
11	18	30	45	243	51.0	-195404.0	-402.0	878091.0
11	18	30	45	243	52.0	-198112.0	-429.0	880855.0
11	18	30	45	244	53.0	-200501.0	-452.0	880686.0
11	18	30	45	244	54.0	-201795.0	-449.0	878376.0
11	18	30	45	245	55.0	-201426.0	-438.0	873384.0
11	18	30	45	246	56.0	-199674.0	-430.0	870778.0
11	18	30	45	246	57.0	-196487.0	-414.0	868696.0
11	18	30	45	247	58.0	-192399.0	-430.0	866739.0
11	18	30	45	247	59.0	-188111.0	-441.0	864761.0
11	18	30	45	264	60.0	-184127.0	-431.0	861846.0
11	18	30	45	265	61.0	-181437.0	-457.0	863416.0
11	18	30	45	265	62.0	-180573.0	-474.0	864980.0
11	18	30	45	266	63.0	-181091.0	-499.0	865503.0
11	18	30	45	267	64.0	-181843.0	-501.0	862621.0
11	18	30	45	267	65.0	-182976.0	-486.0	856954.0
11	18	30	45	268	66.0	-184526.0	-486.0	853847.0
11	18	30	45	288	67.0	-186272.0	-487.0	852086.0
11	18	30	45	288	68.0	-187921.0	-474.0	850027.0
11	18	30	45	289	69.0	-189681.0	-482.0	848170.0
11	18	30	45	290	70.0	-191392.0	-482.0	845516.0
11	18	30	45	290	71.0	-193144.0	-509.0	847335.0
11	18	30	45	291	72.0	-194929.0	-538.0	849303.0
11	18	30	45	291	73.0	-197278.0	-563.0	849361.0
11	18	30	45	319	74.0	-199791.0	-556.0	846523.0
11	18	30	45	319	75.0	-202019.0	-550.0	840826.0
11	18	30	45	320	76.0	-203921.0	-551.0	837899.0
11	18	30	45	321	77.0	-205724.0	-547.0	835846.0
11	18	30	45	322	78.0	-207217.0	-524.0	833606.0
11	18	30	45	322	79.0	-208019.0	-527.0	831666.0
11	18	30	45	323	80.0	-208062.0	-547.0	829002.0
11	18	30	45	324	81.0	-207509.0	-566.0	831408.0
11	18	30	45	324	82.0	-206535.0	-580.0	832625.0
11	18	30	45	325	83.0	-205841.0	-609.0	832959.0
11	18	30	45	325	84.0	-205851.0	-606.0	830101.0
11	18	30	45	326	85.0	-205951.0	-581.0	824365.0
11	18	30	45	327	86.0	-206052.0	-599.0	821760.0
11	18	30	45	327	87.0	-206565.0	-604.0	820104.0
11	18	30	45	328	88.0	-207517.0	-588.0	818146.0
11	18	30	45	329	89.0	-208973.0	-574.0	815798.0
11	18	30	45	329	95.0	-220764.0	-666.0	808659.0
11	18	30	45	330	96.0	-220429.0	-669.0	806149.0
11	18	30	45	330	97.0	-220004.0	-672.0	803916.0
11	18	30	45	339	98.0	-219537.0	-673.0	802486.0
11	18	30	45	339	99.0	-218607.0	-670.0	800756.0
11	18	30	45	340	100.0	-217149.0	-667.0	798008.0
11	18	30	45	340	101.0	-215159.0	-708.0	801149.0
11	18	30	45	341	102.0	-212800.0	-726.0	802172.0
11	18	30	45	341	103.0	-209636.0	-737.0	803204.0
11	18	30	45	362	104.0	-206042.0	-731.0	799179.0
11	18	30	45	362	105.0	-202186.0	-721.0	793676.0
11	18	30	45	363	106.0	-198225.0	-701.0	791240.0
11	18	30	45	364	107.0	-194423.0	-707.0	789908.0
11	18	30	45	364	108.0	-191449.0	-719.0	788169.0
11	18	30	45	365	109.0	-189242.0	-714.0	785970.0
11	18	30	45	365	110.0	-187480.0	-707.0	783933.0
11	18	30	45	366	111.0	-185530.0	-736.0	786871.0
11	18	30	45	366	112.0	-183640.0	-765.0	788139.0
11	18	30	45	367	113.0	-182270.0	-772.0	788388.0
11	18	30	45	368	114.0	-181274.0	-771.0	784248.0
11	18	30	45	368	115.0	-180059.0	-763.0	779140.0
11	18	30	45	369	116.0	-178524.0	-754.0	776721.0
11	18	30	45	369	117.0	-176884.0	-763.0	774958.0
11	18	30	45	370	118.0	-174894.0	-767.0	773655.0
11	18	30	45	385	119.0	-172659.0	-768.0	771876.0
11	18	30	45	385	120.0	-170556.0	-754.0	770154.0
11	18	30	45	386	121.0	-169387.0	-786.0	772687.0
11	18	30	45	386	122.0	-169795.0	-806.0	773703.0
11	18	30	45	387	123.0	-171775.0	-829.0	774694.0
11	18	30	45	387	124.0	-175401.0	-820.0	769658.0
11	18	30	45	388	125.0	-180488.0	-809.0	764371.0
11	18	30	45	389	126.0	-185824.0	-804.0	762147.0
11	18	30	45	408	127.0	-190682.0	-811.0	761075.0
11	18	30	45	409	128.0	-195089.0	-796.0	759271.0
11	18	30	45	409	129.0	-199197.0	-792.0	756771.0
11	18	30	45	410	130.0	-202985.0	-792.0	755089.0
11	18	30	45	410	131.0	-206055.0	-839.0	758596.0
11	18	30	45	411	132.0	-207989.0	-857.0	759499.0
11	18	30	45	411	133.0	-208810.0	-850.0	759304.0
11	18	30	45	431	134.0	-208845.0	-847.0	754325.0
11	18	30	45	432	135.0	-208251.0	-849.0	749736.0
11	18	30	45	432	136.0	-206778.0	-842.0	747652.0
11	18	30	45	433	137.0	-204545.0	-846.0	746244.0
11	18	30	45	434	138.0	-201606.0	-848.0	744273.0
11	18	30	45	434	139.0	-198246.0	-841.0	742018.0
11	18	30	45	435	140.0	-195083.0	-834.0	740624.0
11	18	30	45	435	141.0	-192562.0	-857.0	743304.0
11	18	30	45	436	142.0	-190967.0	-891.0	744328.0
11	18	30	45	436	143.0	-190451.0	-899.0	744723.0
11	18	30	45	437	144.0	-190779.0	-873.0	738749.0
11	18	30	45	438	145.0	-191222.0	-864.0	734244.0
11	18	30	45	438	146.0	-191470.0	-861.0	732481.0
11	18	30	45	439	147.0	-192083.0	-867.0	731686.0
11	18	30	45	439	148.0	-193232.0	-879.0	730449.0
11	18	30	45	440	149.0	-194523.0	-881.0	728132.0
11	18	30	45	440	150.0	-196205.0	-884.0	727146.0
11	18	30	45	441	151.0	-198302.0	-898.0	730265.0
11	18	30	45	442	152.0	-200900.0	-918.0	730970.0
11	18	30	45	442	153.0	-203261.0	-942.0	730034.0
11	18	30	45	443	154.0	-204950.0	-917.0	725418.0
11	18	30	45	453	155.0	-206014.0	-902.0	721008.0
11	18	30	45	454	156.0	-206240.0	-900.0	718871.0
11	18	30	45	455	157.0	-205519.0	-894.0	717265.0
11	18	30	45	455	158.0	-204742.0	-897.0	716143.0
11	18	30	45	456	159.0	-204394.0	-891.0	713669.0
11	18	30	45	456	160.0	-204246.0	-892.0	712786.0
11	18	30	45	457	161.0	-204317.0	-914.0	715829.0
11	18	30	45	458	162.0	-204636.0	-934.0	716427.0
11	18	30	45	476	163.0	-205025.0	-956.0	715975.0
11	18	30	45	477	164.0	-204796.0	-939.0	710371.0
11	18	30	45	478	165.0	-204160.0	-914.0	706171.0
11	18	30	45	478	166.0	-203665.0	-899.0	704708.0
11	18	30	45	479	167.0	-203738.0	-916.0	703120.0
11	18	30	45	479	168.0	-204479.0	-916.0	701343.0
11	18	30	45	480	169.0	-205306.0	-894.0	698781.0
11	18	30	45	481	170.0	-205386.0	-918.0	698098.0
11	18	30	45	481	171.0	-204587.0	-960.0	701442.0
11	18	30	45	482	172.0	-202884.0	-968.0	701377.0
11	18	30	45	482	173.0	-200290.0	-979.0	699517.0
11	18	30	45	499	174.0	-196947.0	-964.0	694305.0
11	18	30	45	500	175.0	-193142.0	-946.0	690785.0
11	18	30	45	501	176.0	-189528.0	-950.0	689095.0
11	18	30	45	501	177.0	-186429.0	-953.0	687336.0
11	18	30	45	502	178.0	-184358.0	-946.0	685658.0
11	18	30	45	503	179.0	-183284.0	-941.0	683661.0
11	18	30	45	503	180.0	-183139.0	-971.0	683518.0
11	18	30	45	504	181.0	-184116.0	-1000.0	686669.0
11	18	30	45	505	182.0	-185782.0	-1029.0	686996.0
11	18	30	45	505	183.0	-187487.0	-1037.0	686417.0
11	18	30	45	506	184.0	-188686.0	-1012.0	680636.0
11	18	30	45	506	185.0	-188874.0	-1003.0	676783.0
11	18	30	45	507	186.0	-188751.0	-992.0	674671.0
11	18	30	45	507	187.0	-188866.0	-992.0	672986.0
11	18	30	45	508	188.0	-189181.0	-1000.0	671345.0
11	18	30	45	509	189.0	-189953.0	-993.0	668624.0
11	18	30	45	523	190.0	-191877.0	-1031.0	668844.0
11	18	30	45	524	191.0	-194861.0	-1051.0	672163.0
11	18	30	45	525	192.0	-198684.0	-1064.0	673054.0
11	18	30	45	546	193.0	-202964.0	-1074.0	671776.0
11	18	30	45	547	194.0	-207034.0	-1056.0	666407.0
11	18	30	45	547	195.0	-210454.0	-1049.0	663464.0
11	18	30	45	548	196.0	-212842.0	-1046.0	662426.0
11	18	30	45	548	197.0	-214390.0	-1047.0	661174.0
11	18	30	45	549	198.0	-215073.0	-1054.0	660367.0
11	18	30	45	550	199.0	-214665.0	-1058.0	657937.0
11	18	30	45	550	200.0	-213771.0	-1077.0	658035.0
11	18	30	45	551	201.0	-212801.0	-1106.0	660166.0
11	18	30	45	551	202.0	-211314.0	-1127.0	660970.0
11	18	30	45	552	203.0	-209176.0	-1130.0	660595.0
11	18	30	45	553	204.0	-206766.0	-1104.0	654914.0
11	18	30	45	553	205.0	-204121.0	-1094.0	652044.0
11	18	30	45	554	206.0	-201186.0	-1100.0	650478.0
11	18	30	45	554	207.0	-198386.0	-1107.0	649898.0
11	18	30	45	555	208.0	-195837.0	-1126.0	648511.0
11	18	30	45	568	209.0	-193652.0	-1121.0	645459.0
11	18	30	45	569	210.0	-192029.0	-1111.0	646321.0
11	18	30	45	570	211.0	-191860.0	-1150.0	649006.0
11	18	30	45	570	212.0	-192589.0	-1164.0	649688.0
11	18	30	45	571	213.0	-193144.0	-1194.0	648209.0
11	18	30	45	572	214.0	-193465.0	-1182.0	642389.0
11	18	30	45	572	215.0	-193597.0	-1164.0	639009.0
11	18	30	45	573	216.0	-193719.0	-1162.0	637453.0
11	18	30	45	573	217.0	-194054.0	-1156.0	636016.0
11	18	30	45	574	218.0	-194664.0	-1166.0	635024.0
11	18	30	45	575	219.0	-195052.0	-1171.0	632306.0
11	18	30	45	575	220.0	-194866.0	-1193.0	633128.0
11	18	30	45	576	221.0	-194521.0	-1223.0	634780.0
11	18	30	45	576	222.0	-193818.0	-1235.0	635789.0
11	18	30	45	577	223.0	-192945.0	-1231.0	634942.0
11	18	30	45	591	224.0	-192436.0	-1204.0	628571.0
11	18	30	45	591	225.0	-192141.0	-1189.0	625788.0
11	18	30	45	592	226.0	-192693.0	-1197.0	624739.0
11	18	30	45	593	227.0	-193646.0	-1222.0	623621.0
11	18	30	45	593	228.0	-194270.0	-1219.0	622258.0
11	18	30	45	594	229.0	-194794.0	-1206.0	618794.0
11	18	30	45	594	230.0	-195358.0	-1232.0	620028.0
11	18	30	45	614	231.0	-196108.0	-1272.0	622188.0
11	18	30	45	615	232.0	-197193.0	-1280.0	622149.0
11	18	30	45	615	233.0	-198016.0	-1274.0	618004.0
11	18	30	45	616	234.0	-198346.0	-1265.0	611368.0
11	18	30	45	617	235.0	-197600.0	-1254.0	607049.0
11	18	30	45	617	236.0	-196090.0	-1265.0	603759.0
11	18	30	45	618	237.0	-194199.0	-1257.0	598847.0
11	18	30	45	619	238.0	-192053.0	-1268.0	594559.0
11	18	30	45	619	239.0	-189887.0	-1264.0	591446.0
11	18	30	45	620	240.0	-187891.0	-1285.0	594550.0
11	18	30	45	620	241.0	-186409.0	-1296.0	600198.0
11	18	30	45	621	242.0	-185552.0	-1324.0	606411.0
11	18	30	45	621	243.0	-184719.0	-1331.0	607448.0
11	18	30	45	622	244.0	-184499.0	-1313.0	605857.0
11	18	30	45	623	245.0	-185407.0	-1306.0	607843.0
11	18	30	45	638	246.0	-186972.0	-1306.0	610975.0
11	18	30	45	639	247.0	-189297.0	-1297.0	615224.0
11	18	30	45	640	248.0	-192328.0	-1295.0	617309.0
11	18	30	45	640	249.0	-195762.0	-1301.0	616066.0
11	18	30	45	641	250.0	-199670.0	-1340.0	620664.0
11	18	30	45	641	251.0	-204129.0	-1374.0	628468.0
11	18	30	45	642	252.0	-208731.0	-1384.0	632453.0
11	18	30	45	643	253.0	-213222.0	-1386.0	630769.0
11	18	30	45	643	254.0	-217304.0	-1359.0	626056.0
11	18	30	45	661	255.0	-220594.0	-1332.0	623139.0
11	18	30	45	662	0.0	-222574.0	-1347.0	621153.0
11	18	30	45	663	1.0	-223678.0	-1367.0	618842.0
11	18	30	45	663	2.0	-223641.0	-1360.0	616383.0
11	18	30	45	664	3.0	-222614.0	-1355.0	613116.0
11	18	30	45	664	4.0	-220449.0	-1389.0	613176.0
11	18	30	45	665	5.0	-217809.0	-1424.0	611649.0
11	18	30	45	666	6.0	-215452.0	-1448.0	608038.0
11	18	30	45	666	7.0	-213767.0	-1446.0	600616.0
11	18	30	45	667	8.0	-212636.0	-1412.0	591908.0
11	18	30	45	685	9.0	-212676.0	-1401.0	586373.0
11	18	30	45	685	10.0	-214573.0	-1417.0	581953.0
11	18	30	45	686	11.0	-216442.0	-1436.0	577723.0
11	18	30	45	687	12.0	-212647.0	-1429.0	573633.0
11	18	30	45	687	13.0	-201066.0	-1404.0	569250.0
11	18	30	45	688	14.0	-188031.0	-1435.0	571292.0
11	18	30	45	688	15.0	-179547.0	-1470.0	573834.0
11	18	30	45	689	16.0	-177045.0	-1493.0	574684.0
11	18	30	45	690	17.0	-178062.0	-1492.0	571255.0
11	18	30	45	690	18.0	-179688.0	-1494.0	566180.0
11	18	30	45	708	19.0	-183646.0	-1481.0	563769.0
11	18	30	45	708	20.0	-193211.0	-1476.0	562116.0
11	18	30	45	709	21.0	-207606.0	-1480.0	560248.0
11	18	30	45	709	22.0	-223552.0	-1484.0	558290.0
11	18	30	45	710	23.0	-236033.0	-1472.0	556071.0
11	18	30	45	711	24.0	-243525.0	-1502.0	559057.0
11	18	30	45	711	25.0	-243775.0	-1537.0	560056.0
11	18	30	45	712	26.0	-235619.0	-1564.0	560290.0
11	18	30	45	712	27.0	-220555.0	-1554.0	557073.0
11	18	30	45	713	28.0	-201071.0	-1530.0	552155.0
11	18	30	45	714	29.0	-181238.0	-1524.0	549660.0
11	18	30	45	714	30.0	-165357.0	-1532.0	547735.0
11	18	30	45	715	31.0	-155977.0	-1523.0	546196.0
11	18	30	45	715	32.0	-152566.0	-1526.0	543754.0
11	18	30	45	716	33.0	-151881.0	-1527.0	540858.0
11	18	30	45	730	34.0	-151762.0	-1551.0	543727.0
11	18	30	45	731	35.0	-152506.0	-1571.0	544968.0
11	18	30	45	732	36.0	-154942.0	-1599.0	544311.0
11	18	30	45	732	37.0	-160669.0	-1576.0	540493.0
11	18	30	45	733	38.0	-170740.0	-1562.0	536002.0
11	18	30	45	733	39.0	-184424.0	-1552.0	533922.0
11	18	30	45	734	40.0	-199566.0	-1574.0	531893.0
11	18	30	45	734	41.0	-212817.0	-1556.0	529891.0
11	18	30	45	735	42.0	-221863.0	-1544.0	527980.0
11	18	30	45	754	43.0	-225236.0	-1533.0	526561.0
11	18	30	45	755	44.0	-222909.0	-1565.0	529448.0
11	18	30	45	755	45.0	-216736.0	-1596.0	529949.0
11	18	30	45	756	46.0	-208621.0	-1607.0	531087.0
11	18	30	45	756	47.0	-200348.0	-1587.0	526511.0
11	18	30	45	757	48.0	-192557.0	-1584.0	522114.0
11	18	30	45	757	49.0	-186952.0	-1586.0	519566.0
11	18	30	45	758	50.0	-183389.0	-1591.0	518052.0
11	18	30	45	759	51.0	-181253.0	-1594.0	516486.0
11	18	30	45	759	52.0	-181599.0	-1576.0	514226.0
11	18	30	45	760	53.0	-183927.0	-1592.0	512258.0
11	18	30	45	760	54.0	-187616.0	-1624.0	514976.0
11	18	30	45	798	55.0	-193280.0	-1645.0	515729.0
11	18	30	45	799	56.0	-200646.0	-1661.0	515164.0
11	18	30	45	800	57.0	-207551.0	-1661.0	510144.0
11	18	30	45	801	58.0	-213052.0	-1646.0	506002.0
11	18	30	45	801	59.0	-217446.0	-1645.0	503843.0
11	18	30	45	802	60.0	-220716.0	-1654.0	502019.0
11	18	30	45	803	61.0	-222993.0	-1671.0	500650.0
11	18	30	45	804	62.0	-224762.0	-1676.0	498608.0
11	18	30	45	804	63.0	-226697.0	-1666.0	496893.0
11	18	30	45	805	64.0	-229659.0	-1695.0	499514.0
11	18	30	45	806	65.0	-232342.0	-1723.0	499986.0
11	18	30	45	806	66.0	-232540.0	-1756.0	500029.0
11	18	30	45	807	67.0	-228284.0	-1741.0	494736.0
11	18	30	45	808	68.0	-220443.0	-1739.0	490404.0
11	18	30	45	808	69.0	-209907.0	-1736.0	488164.0
11	18	30	45	809	70.0	-198886.0	-1747.0	486560.0
11	18	30	45	809	79.0	-164587.0	-1847.0	469473.0
11	18	30	45	810	80.0	-168736.0	-1856.0	467843.0
11	18	30	45	811	81.0	-173248.0	-1853.0	466048.0
11	18	30	45	812	82.0	-177560.0	-1846.0	463557.0
11	18	30	45	812	83.0	-180980.0	-1843.0	462316.0
11	18	30	45	813	84.0	-182781.0	-1887.0	464147.0
11	18	30	45	814	85.0	-184276.0	-1917.0	464051.0
11	18	30	45	815	86.0	-185935.0	-1932.0	462854.0
11	18	30	45	843	87.0	-187061.0	-1917.0	457349.0
11	18	30	45	844	88.0	-186816.0	-1919.0	453968.0
11	18	30	45	867	89.0	-186331.0	-1927.0	452441.0
11	18	30	45	867	90.0	-185921.0	-1938.0	451742.0
11	18	30	45	868	91.0	-185134.0	-1954.0	450170.0
11	18	30	45	868	92.0	-184188.0	-1946.0	447770.0
11	18	30	45	869	93.0	-183587.0	-1974.0	447624.0
11	18	30	45	870	94.0	-183302.0	-1992.0	450327.0
11	18	30	45	870	95.0	-183332.0	-2012.0	450794.0
11	18	30	45	871	96.0	-184112.0	-2046.0	449089.0
11	18	30	45	871	97.0	-185329.0	-2031.0	444944.0
11	18	30	45	872	98.0	-187274.0	-2016.0	442593.0
11	18	30	45	872	99.0	-190491.0	-2029.0	441466.0
11	18	30	45	873	100.0	-193555.0	-2040.0	440461.0
11	18	30	45	873	101.0	-196072.0	-2033.0	439457.0
11	18	30	45	874	102.0	-197964.0	-2032.0	437704.0
11	18	30	45	875	103.0	-198802.0	-2051.0	437994.0
11	18	30	45	875	104.0	-198613.0	-2100.0	441195.0
11	18	30	45	876	109.0	-195304.0	-2127.0	435349.0
11	18	30	45	876	110.0	-196251.0	-2106.0	435571.0
11	18	30	45	877	111.0	-197567.0	-2105.0	435251.0
11	18	30	45	877	112.0	-198159.0	-2108.0	433948.0
11	18	30	45	878	113.0	-198542.0	-2122.0	434834.0
11	18	30	45	878	114.0	-197996.0	-2141.0	438542.0
11	18	30	45	879	115.0	-196493.0	-2162.0	439520.0
11	18	30	45	879	116.0	-194487.0	-2162.0	437753.0
11	18	30	45	890	117.0	-191969.0	-2148.0	433793.0
11	18	30	45	891	118.0	-189652.0	-2119.0	432682.0
11	18	30	45	891	119.0	-188054.0	-2150.0	432168.0
11	18	30	45	892	120.0	-187457.0	-2144.0	431726.0
11	18	30	45	892	121.0	-187807.0	-2144.0	431453.0
11	18	30	45	893	122.0	-188539.0	-2154.0	430647.0
11	18	30	45	893	123.0	-190405.0	-2154.0	431828.0
11	18	30	45	894	124.0	-192496.0	-2185.0	434726.0
11	18	30	45	895	125.0	-194499.0	-2211.0	434738.0
11	18	30	45	913	126.0	-196414.0	-2203.0	433650.0
11	18	30	45	914	127.0	-197713.0	-2171.0	429704.0
11	18	30	45	914	128.0	-198653.0	-2169.0	427954.0
11	18	30	45	915	129.0	-199493.0	-2173.0	427183.0
11	18	30	45	915	130.0	-199978.0	-2164.0	426697.0
11	18	30	45	916	131.0	-199795.0	-2153.0	425416.0
11	18	30	45	917	132.0	-199610.0	-2138.0	423339.0
11	18	30	45	917	133.0	-200556.0	-2159.0	424217.0
11	18	30	45	918	134.0	-202196.0	-2184.0	426808.0
11	18	30	45	918	135.0	-204314.0	-2171.0	426462.0
11	18	30	45	919	136.0	-207266.0	-2177.0	424469.0
11	18	30	45	920	137.0	-209964.0	-2152.0	420413.0
11	18	30	45	920	138.0	-211441.0	-2136.0	418713.0
11	18	30	45	921	139.0	-211664.0	-2132.0	418298.0
11	18	30	45	921	140.0	-210617.0	-2129.0	416946.0
11	18	30	45	937	141.0	-208534.0	-2136.0	416354.0
11	18	30	45	938	142.0	-205366.0	-2116.0	414612.0
11	18	30	45	938	143.0	-200142.0	-2137.0	415666.0
11	18	30	45	939	144.0	-189557.0	-2163.0	416566.0
11	18	30	45	939	145.0	-177193.0	-2173.0	416933.0
11	18	30	45	940	146.0	-171818.0	-2156.0	414980.0
11	18	30	45	940	147.0	-177781.0	-2137.0	410564.0
11	18	30	45	963	148.0	-192969.0	-2109.0	408510.0
11	18	30	45	963	149.0	-209826.0	-2097.0	407655.0
11	18	30	45	964	150.0	-224611.0	-2101.0	406367.0
11	18	30	45	964	151.0	-233186.0	-2102.0	405335.0
11	18	30	45	965	152.0	-233995.0	-2093.0	403136.0
11	18	30	45	966	153.0	-231729.0	-2118.0	404507.0
11	18	30	45	966	154.0	-230331.0	-2126.0	406563.0
11	18	30	45	967	155.0	-228040.0	-2123.0	406618.0
11	18	30	45	967	156.0	-222945.0	-2111.0	403857.0
11	18	30	45	968	157.0	-216085.0	-2094.0	399836.0
11	18	30	45	969	158.0	-207385.0	-2090.0	398379.0
11	18	30	45	969	159.0	-197663.0	-2081.0	397189.0
11	18	30	45	970	160.0	-188047.0	-2067.0	395828.0
11	18	30	45	970	161.0	-178599.0	-2070.0	394775.0
11	18	30	45	971	162.0	-171345.0	-2059.0	392468.0
11	18	30	45	972	163.0	-169581.0	-2070.0	393474.0
11	18	30	45	972	164.0	-172839.0	-2069.0	394721.0
11	18	30	45	973	165.0	-178841.0	-2079.0	394927.0
11	18	30	45	973	166.0	-185189.0	-2072.0	392078.0
11	18	30	45	992	167.0	-190248.0	-2064.0	388181.0
11	18	30	45	993	168.0	-193639.0	-2066.0	386684.0
11	18	30	45	994	169.0	-195099.0	-2052.0	385805.0
11	18	30	45	994	170.0	-195237.0	-2046.0	384945.0
11	18	30	45	995	171.0	-195445.0	-2027.0	384117.0
11	18	30	46	15	172.0	-197196.0	-2016.0	382077.0
11	18	30	46	16	173.0	-200680.0	-2048.0	383438.0
11	18	30	46	16	174.0	-204976.0	-2065.0	384638.0
11	18	30	46	17	175.0	-208729.0	-2069.0	384622.0
11	18	30	46	18	176.0	-210751.0	-2081.0	381648.0
11	18	30	46	18	177.0	-210460.0	-2050.0	377913.0
11	18	30	46	19	178.0	-208346.0	-2039.0	376453.0
11	18	30	46	19	179.0	-205241.0	-2036.0	375635.0
11	18	30	46	20	180.0	-202204.0	-2039.0	374373.0
11	18	30	46	20	181.0	-199904.0	-2036.0	373274.0
11	18	30	46	21	182.0	-198168.0	-2022.0	371044.0
11	18	30	46	21	183.0	-197234.0	-2033.0	372819.0
11	18	30	46	22	184.0	-197131.0	-2064.0	373962.0
11	18	30	46	23	185.0	-197721.0	-2080.0	373953.0
11	18	30	46	23	186.0	-198515.0	-2067.0	370046.0
11	18	30	46	24	187.0	-200211.0	-2049.0	366754.0
11	18	30	46	24	188.0	-202310.0	-2043.0	365872.0
11	18	30	46	25	189.0	-204228.0	-2054.0	365499.0
11	18	30	46	25	190.0	-205941.0	-2047.0	364485.0
11	18	30	46	26	191.0	-207202.0	-2036.0	363265.0
11	18	30	46	39	192.0	-207728.0	-2044.0	361326.0
11	18	30	46	40	193.0	-207229.0	-2065.0	363303.0
11	18	30	46	40	194.0	-205902.0	-2092.0	364140.0
11	18	30	46	41	195.0	-203941.0	-2096.0	363186.0
11	18	30	46	41	196.0	-201966.0	-2077.0	359519.0
11	18	30	46	42	197.0	-200047.0	-2060.0	356374.0
11	18	30	46	43	198.0	-198684.0	-2059.0	355719.0
11	18	30	46	43	199.0	-198298.0	-2067.0	355345.0
11	18	30	46	44	200.0	-198477.0	-2051.0	354139.0
11	18	30	46	61	201.0	-198734.0	-2041.0	352721.0
11	18	30	46	62	202.0	-199102.0	-2036.0	351356.0
11	18	30	46	63	203.0	-199412.0	-2075.0	353042.0
11	18	30	46	85	204.0	-199370.0	-2098.0	353072.0
11	18	30	46	85	205.0	-199410.0	-2117.0	351850.0
11	18	30	46	86	206.0	-200073.0	-2103.0	348464.0
11	18	30	46	86	207.0	-201589.0	-2096.0	346217.0
11	18	30	46	87	208.0	-203760.0	-2075.0	345625.0
11	18	30	46	87	209.0	-205764.0	-2074.0	344728.0
11	18	30	46	88	210.0	-207371.0	-2079.0	343747.0
11	18	30	46	89	211.0	-208756.0	-2074.0	342886.0
11	18	30	46	89	212.0	-210264.0	-2057.0	341503.0
11	18	30	46	90	213.0	-211612.0	-2084.0	342882.0
11	18	30	46	90	214.0	-212979.0	-2096.0	342457.0
11	18	30	46	91	215.0	-214514.0	-2111.0	340718.0
11	18	30	46	91	216.0	-215580.0	-2080.0	337895.0
11	18	30	46	92	217.0	-216119.0	-2062.0	335681.0
11	18	30	46	92	218.0	-216416.0	-2057.0	335345.0
11	18	30	46	93	219.0	-216864.0	-2067.0	334911.0
11	18	30	46	93	220.0	-217492.0	-2087.0	334516.0
11	18	30	46	94	221.0	-217865.0	-2063.0	333493.0
11	18	30	46	108	222.0	-218131.0	-2060.0	332259.0
11	18	30	46	108	223.0	-217937.0	-2092.0	332118.0
11	18	30	46	109	224.0	-217132.0	-2094.0	331544.0
11	18	30	46	109	225.0	-215744.0	-2097.0	329751.0
11	18	30	46	110	226.0	-213928.0	-2084.0	326801.0
11	18	30	46	111	227.0	-211851.0	-2087.0	325898.0
11	18	30	46	111	228.0	-209292.0	-2077.0	325694.0
11	18	30	46	112	229.0	-206211.0	-2071.0	325148.0
11	18	30	46	112	230.0	-202231.0	-2043.0	324417.0
11	18	30	46	131	231.0	-197748.0	-2050.0	323140.0
11	18	30	46	132	232.0	-195527.0	-2044.0	323079.0
11	18	30	46	133	233.0	-195607.0	-2059.0	322996.0
11	18	30	46	133	234.0	-196811.0	-2052.0	321155.0
11	18	30	46	134	235.0	-197761.0	-2086.0	318818.0
11	18	30	46	134	236.0	-197737.0	-2054.0	316953.0
11	18	30	46	135	237.0	-196445.0	-2036.0	316358.0
11	18	30	46	135	238.0	-194181.0	-2038.0	315703.0
11	18	30	46	136	239.0	-191239.0	-2021.0	315413.0
11	18	30	46	136	240.0	-187852.0	-2022.0	314800.0
11	18	30	46	137	241.0	-184247.0	-2009.0	313827.0
11	18	30	46	138	242.0	-180654.0	-2015.0	312852.0
11	18	30	46	138	243.0	-178084.0	-2029.0	311981.0
11	18	30	46	139	244.0	-177106.0	-2052.0	310798.0
11	18	30	46	203	245.0	-178024.0	-2057.0	308114.0
11	18	30	46	204	246.0	-181253.0	-2044.0	306419.0
11	18	30	46	204	247.0	-186530.0	-2009.0	306508.0
11	18	30	46	205	248.0	-192779.0	-2005.0	306553.0
11	18	30	46	206	249.0	-198611.0	-2002.0	306123.0
11	18	30	46	206	250.0	-202636.0	-2015.0	305044.0
11	18	30	46	207	251.0	-204638.0	-2013.0	304143.0
11	18	30	46	207	252.0	-204986.0	-2008.0	303768.0
11	18	30	46	208	253.0	-204041.0	-2031.0	303388.0
11	18	30	46	209	254.0	-202117.0	-2039.0	301314.0
11	18	30	46	209	255.0	-199431.0	-2027.0	299200.0
11	18	30	46	210	0.0	-195929.0	-1994.0	297596.0
11	18	30	46	210	1.0	-192094.0	-1996.0	297489.0
11	18	30	46	211	2.0	-188069.0	-1997.0	296908.0
11	18	30	46	212	3.0	-184671.0	-2002.0	295833.0
11	18	30	46	212	25.0	-216243.0	-1924.0	274009.0
11	18	30	46	213	26.0	-218049.0	-1943.0	273654.0
11	18	30	46	213	27.0	-219675.0	-1951.0	271718.0
11	18	30	46	214	28.0	-221998.0	-1956.0	270620.0
11	18	30	46	222	29.0	-226127.0	-1961.0	269171.0
11	18	30	46	223	30.0	-230994.0	-1932.0	267471.0
11	18	30	46	223	31.0	-236374.0	-1929.0	266334.0
11	18	30	46	224	32.0	-240296.0	-1916.0	265234.0
11	18	30	46	224	33.0	-241456.0	-1912.0	264141.0
11	18	30	46	248	34.0	-238138.0	-1916.0	263776.0
11	18	30	46	248	35.0	-232022.0	-1910.0	263360.0
11	18	30	46	249	36.0	-223466.0	-1924.0	263284.0
11	18	30	46	250	37.0	-212047.0	-1951.0	262223.0
11	18	30	46	250	38.0	-200659.0	-1943.0	261031.0
11	18	30	46	251	39.0	-192356.0	-1951.0	259614.0
11	18	30	46	252	40.0	-186014.0	-1936.0	258699.0
11	18	30	46	252	41.0	-183676.0	-1941.0	258328.0
11	18	30	46	253	42.0	-185942.0	-1926.0	258583.0
11	18	30	46	253	43.0	-189354.0	-1915.0	258159.0
11	18	30	46	254	44.0	-191248.0	-1927.0	257129.0
11	18	30	46	254	45.0	-191079.0	-1926.0	256688.0
11	18	30	46	255	46.0	-189209.0	-1941.0	256098.0
11	18	30	46	255	47.0	-185901.0	-1969.0	254557.0
11	18	30	46	256	48.0	-181377.0	-1974.0	253527.0
11	18	30	46	257	49.0	-176926.0	-1972.0	252548.0
11	18	30	46	271	50.0	-173745.0	-1931.0	252121.0
11	18	30	46	272	51.0	-171741.0	-1921.0	251547.0
11	18	30	46	272	52.0	-171118.0	-1933.0	250842.0
11	18	30	46	273	53.0	-170970.0	-1936.0	249834.0
11	18	30	46	273	54.0	-170209.0	-1929.0	249040.0
11	18	30	46	274	55.0	-169290.0	-1918.0	248608.0
11	18	30	46	303	56.0	-168627.0	-1929.0	248099.0
11	18	30	46	303	57.0	-168379.0	-1935.0	246868.0
11	18	30	46	304	58.0	-167987.0	-1924.0	245969.0
11	18	30	46	304	59.0	-168582.0	-1917.0	244898.0
11	18	30	46	305	60.0	-171049.0	-1907.0	244296.0
11	18	30	46	306	61.0	-174926.0	-1889.0	243260.0
11	18	30	46	307	62.0	-179077.0	-1884.0	242270.0
11	18	30	46	307	63.0	-184128.0	-1894.0	241462.0
11	18	30	46	308	64.0	-189351.0	-1882.0	241039.0
11	18	30	46	309	65.0	-193197.0	-1849.0	239899.0
11	18	30	46	309	66.0	-195709.0	-1851.0	238961.0
11	18	30	46	310	67.0	-196868.0	-1862.0	237543.0
11	18	30	46	310	68.0	-197212.0	-1859.0	237290.0
11	18	30	46	311	69.0	-197112.0	-1851.0	236562.0
11	18	30	46	311	70.0	-196836.0	-1838.0	235658.0
11	18	30	46	312	71.0	-196583.0	-1836.0	234632.0
11	18	30	46	312	72.0	-196049.0	-1821.0	234403.0
11	18	30	46	313	73.0	-195207.0	-1818.0	233551.0
11	18	30	46	314	74.0	-194562.0	-1807.0	232657.0
11	18	30	46	314	75.0	-194383.0	-1796.0	231426.0
11	18	30	46	325	76.0	-194011.0	-1792.0	229885.0
11	18	30	46	326	77.0	-193372.0	-1794.0	227640.0
11	18	30	46	327	78.0	-193749.0	-1791.0	225246.0
11	18	30	46	327	79.0	-196196.0	-1777.0	222453.0
11	18	30	46	328	80.0	-199547.0	-1739.0	220335.0
11	18	30	46	329	81.0	-201781.0	-1717.0	218473.0
11	18	30	46	329	82.0	-202495.0	-1729.0	215267.0
11	18	30	46	330	83.0	-202090.0	-1726.0	210615.0
11	18	30	46	330	84.0	-201056.0	-1717.0	207148.0
11	18	30	46	331	85.0	-199887.0	-1698.0	205164.0
11	18	30	46	331	86.0	-198703.0	-1721.0	205527.0
11	18	30	46	332	87.0	-197653.0	-1714.0	209156.0
11	18	30	46	350	88.0	-196176.0	-1695.0	213582.0
11	18	30	46	350	89.0	-194865.0	-1684.0	216763.0
11	18	30	46	351	90.0	-193846.0	-1649.0	220290.0
11	18	30	46	352	91.0	-193434.0	-1634.0	224202.0
11	18	30	46	352	92.0	-193761.0	-1637.0	228506.0
11	18	30	46	353	93.0	-194479.0	-1640.0	232480.0
11	18	30	46	353	94.0	-195611.0	-1631.0	233871.0
11	18	30	46	354	95.0	-196964.0	-1616.0	234373.0
11	18	30	46	355	96.0	-198421.0	-1604.0	236717.0
11	18	30	46	355	97.0	-200046.0	-1597.0	239759.0
11	18	30	46	356	98.0	-201286.0	-1590.0	239589.0
11	18	30	46	356	99.0	-202001.0	-1583.0	239663.0
11	18	30	46	357	100.0	-202651.0	-1576.0	239167.0
11	18	30	46	357	101.0	-203551.0	-1576.0	238984.0
11	18	30	46	372	102.0	-204372.0	-1553.0	238121.0
11	18	30	46	372	103.0	-204816.0	-1539.0	236663.0
11	18	30	46	373	104.0	-204570.0	-1549.0	236037.0
11	18	30	46	374	105.0	-203965.0	-1534.0	234518.0
11	18	30	46	374	106.0	-203182.0	-1531.0	231847.0
11	18	30	46	375	107.0	-202737.0	-1534.0	227866.0
11	18	30	46	375	108.0	-202947.0	-1537.0	223264.0
11	18	30	46	396	109.0	-203832.0	-1506.0	218771.0
11	18	30	46	397	110.0	-205240.0	-1486.0	215291.0
11	18	30	46	397	111.0	-206372.0	-1480.0	211913.0
11	18	30	46	398	112.0	-206759.0	-1474.0	208584.0
11	18	30	46	399	113.0	-206222.0	-1450.0	204826.0
11	18	30	46	399	114.0	-202636.0	-1449.0	201699.0
11	18	30	46	400	115.0	-194541.0	-1446.0	199538.0
11	18	30	46	400	116.0	-184889.0	-1466.0	197051.0
11	18	30	46	401	117.0	-177636.0	-1461.0	194964.0
11	18	30	46	402	118.0	-174429.0	-1447.0	193705.0
11	18	30	46	402	119.0	-174811.0	-1432.0	192561.0
11	18	30	46	403	120.0	-175855.0	-1414.0	191736.0
11	18	30	46	403	121.0	-176498.0	-1411.0	191000.0
11	18	30	46	419	122.0	-178148.0	-1409.0	190297.0
11	18	30	46	419	123.0	-181279.0	-1427.0	189566.0
11	18	30	46	420	124.0	-185972.0	-1413.0	187876.0
11	18	30	46	420	125.0	-190312.0	-1399.0	186746.0
11	18	30	46	421	126.0	-192376.0	-1417.0	185833.0
11	18	30	46	421	127.0	-193204.0	-1425.0	184948.0
11	18	30	46	422	128.0	-193561.0	-1414.0	183278.0
11	18	30	46	423	129.0	-194127.0	-1405.0	181894.0
11	18	30	46	423	130.0	-194771.0	-1390.0	181453.0
11	18	30	46	424	131.0	-194024.0	-1386.0	180923.0
11	18	30	46	424	132.0	-190610.0	-1388.0	179995.0
11	18	30	46	441	133.0	-184996.0	-1385.0	179045.0
11	18	30	46	442	134.0	-179710.0	-1380.0	177999.0
11	18	30	46	443	135.0	-177253.0	-1364.0	177265.0
11	18	30	46	443	136.0	-177586.0	-1389.0	176933.0
11	18	30	46	444	137.0	-180327.0	-1400.0	175390.0
11	18	30	46	445	138.0	-185272.0	-1409.0	173809.0
11	18	30	46	445	139.0	-192094.0	-1366.0	173286.0
11	18	30	46	446	140.0	-198542.0	-1364.0	172753.0
11	18	30	46	446	141.0	-202047.0	-1384.0	171628.0
11	18	30	46	447	142.0	-202387.0	-1377.0	169716.0
11	18	30	46	448	143.0	-200084.0	-1361.0	168887.0
11	18	30	46	448	144.0	-196572.0	-1361.0	168701.0
11	18	30	46	449	145.0	-193950.0	-1383.0	168071.0
11	18	30	46	449	146.0	-193137.0	-1397.0	166702.0
11	18	30	46	466	147.0	-193929.0	-1400.0	165538.0
11	18	30	46	467	148.0	-195538.0	-1389.0	164488.0
11	18	30	46	468	149.0	-197955.0	-1370.0	163574.0
11	18	30	46	468	150.0	-200452.0	-1364.0	163196.0
11	18	30	46	469	151.0	-202457.0	-1373.0	162739.0
11	18	30	46	469	152.0	-203666.0	-1379.0	161671.0
11	18	30	46	470	153.0	-203864.0	-1380.0	160446.0
11	18	30	46	489	154.0	-203034.0	-1379.0	159299.0
11	18	30	46	490	155.0	-201712.0	-1376.0	158764.0
11	18	30	46	490	156.0	-199894.0	-1386.0	157420.0
11	18	30	46	491	157.0	-197689.0	-1389.0	155942.0
11	18	30	46	492	158.0	-195637.0	-1390.0	154968.0
11	18	30	46	492	159.0	-193937.0	-1385.0	154182.0
11	18	30	46	493	160.0	-192854.0	-1387.0	153393.0
11	18	30	46	493	161.0	-191732.0	-1392.0	152055.0
11	18	30	46	494	162.0	-190670.0	-1389.0	150893.0
11	18	30	46	494	163.0	-190106.0	-1394.0	150229.0
11	18	30	46	495	164.0	-189722.0	-1406.0	148702.0
11	18	30	46	496	165.0	-189486.0	-1421.0	147619.0
11	18	30	46	496	166.0	-189751.0	-1446.0	146809.0
11	18	30	46	497	167.0	-190407.0	-1445.0	145472.0
11	18	30	46	497	168.0	-190849.0	-1450.0	143781.0
11	18	30	46	512	169.0	-190611.0	-1447.0	143129.0
11	18	30	46	512	170.0	-189831.0	-1440.0	142904.0
11	18	30	46	513	171.0	-188531.0	-1443.0	141819.0
11	18	30	46	513	172.0	-186912.0	-1451.0	140004.0
11	18	30	46	514	173.0	-185607.0	-1464.0	138771.0
11	18	30	46	514	174.0	-184602.0	-1489.0	137855.0
11	18	30	46	515	175.0	-184142.0	-1484.0	136680.0
11	18	30	46	516	176.0	-184573.0	-1500.0	134964.0
