11	18	29	10	784	1.0	-201618.0	-3559.0	-4510.0
11	18	29	10	786	2.0	-203657.0	-3577.0	-5501.0
11	18	29	10	788	3.0	-205722.0	-3567.0	-5949.0
11	18	29	10	791	4.0	-208336.0	-3538.0	-5701.0
11	18	29	10	793	5.0	-210957.0	-3495.0	-5497.0
11	18	29	10	796	6.0	-213780.0	-3497.0	-5341.0
11	18	29	10	798	7.0	-215396.0	-3486.0	-5172.0
11	18	29	10	800	8.0	-215564.0	-3491.0	-4506.0
11	18	29	10	801	9.0	-213836.0	-3496.0	-3720.0
11	18	29	10	803	10.0	-211107.0	-3528.0	-4316.0
11	18	29	10	804	11.0	-207419.0	-3540.0	-4992.0
11	18	29	10	805	12.0	-203756.0	-3537.0	-5738.0
11	18	29	10	806	13.0	-201119.0	-3518.0	-6081.0
11	18	29	10	807	14.0	-198929.0	-3491.0	-5851.0
11	18	29	10	807	15.0	-197975.0	-3482.0	-5403.0
11	18	29	10	817	16.0	-197631.0	-3477.0	-5085.0
11	18	29	10	817	17.0	-196907.0	-3477.0	-4686.0
11	18	29	10	818	18.0	-196726.0	-3485.0	-4432.0
11	18	29	10	819	19.0	-197239.0	-3467.0	-3796.0
11	18	29	10	819	20.0	-197529.0	-3500.0	-4589.0
11	18	29	10	820	21.0	-198002.0	-3526.0	-5519.0
11	18	29	10	820	22.0	-199185.0	-3531.0	-5489.0
11	18	29	10	821	23.0	-200455.0	-3501.0	-6529.0
11	18	29	10	844	24.0	-201334.0	-3471.0	-6340.0
11	18	29	10	845	25.0	-202168.0	-3467.0	-5829.0
11	18	29	10	845	26.0	-203216.0	-3476.0	-5097.0
11	18	29	10	846	27.0	-203687.0	-3475.0	-4658.0
11	18	29	10	847	28.0	-204022.0	-3459.0	-4570.0
11	18	29	10	868	29.0	-204971.0	-3444.0	-3961.0
11	18	29	10	909	30.0	-206381.0	-3456.0	-4239.0
11	18	29	10	911	31.0	-207625.0	-3471.0	-5213.0
11	18	29	10	911	32.0	-208597.0	-3500.0	-5739.0
11	18	29	10	912	33.0	-209236.0	-3477.0	-6161.0
11	18	29	10	912	34.0	-208860.0	-3464.0	-6236.0
11	18	29	10	913	35.0	-208468.0	-3427.0	-6000.0
11	18	29	10	914	36.0	-208242.0	-3421.0	-5616.0
11	18	29	10	914	37.0	-206793.0	-3427.0	-5292.0
11	18	29	10	915	38.0	-204757.0	-3411.0	-4530.0
11	18	29	10	916	39.0	-203214.0	-3398.0	-4374.0
11	18	29	10	916	40.0	-201987.0	-3407.0	-4936.0
11	18	29	10	917	41.0	-200826.0	-3403.0	-5161.0
11	18	29	10	917	42.0	-199852.0	-3421.0	-5701.0
11	18	29	10	918	43.0	-199129.0	-3416.0	-6206.0
11	18	29	10	919	46.0	-196667.0	-3357.0	-5285.0
11	18	29	10	919	69.0	-190714.0	-3231.0	-3826.0
11	18	29	10	920	70.0	-190641.0	-3241.0	-3534.0
11	18	29	10	920	71.0	-191355.0	-3262.0	-4336.0
11	18	29	10	921	72.0	-191459.0	-3252.0	-5127.0
11	18	29	10	921	73.0	-191745.0	-3224.0	-5042.0
11	18	29	10	922	74.0	-192759.0	-3213.0	-4452.0
11	18	29	10	923	75.0	-193305.0	-3173.0	-4329.0
11	18	29	10	953	76.0	-193137.0	-3164.0	-3875.0
11	18	29	10	954	77.0	-193303.0	-3161.0	-3691.0
11	18	29	10	955	78.0	-193202.0	-3127.0	-4073.0
11	18	29	10	955	79.0	-193052.0	-3137.0	-3491.0
11	18	29	10	956	80.0	-192937.0	-3164.0	-3341.0
11	18	29	10	957	81.0	-193212.0	-3171.0	-3806.0
11	18	29	10	957	82.0	-193345.0	-3179.0	-5348.0
11	18	29	10	958	83.0	-193406.0	-3141.0	-5382.0
11	18	29	10	958	84.0	-193439.0	-3115.0	-4539.0
11	18	29	10	959	85.0	-193309.0	-3114.0	-3977.0
11	18	29	10	960	86.0	-193884.0	-3096.0	-3539.0
11	18	29	10	960	87.0	-195104.0	-3087.0	-3399.0
11	18	29	10	961	88.0	-195858.0	-3063.0	-2735.0
11	18	29	10	961	89.0	-196420.0	-3077.0	-2371.0
11	18	29	10	962	90.0	-196822.0	-3103.0	-2934.0
11	18	29	10	962	91.0	-197572.0	-3100.0	-3924.0
11	18	29	10	963	92.0	-198506.0	-3113.0	-4466.0
11	18	29	10	964	93.0	-199171.0	-3103.0	-4403.0
11	18	29	10	964	94.0	-200886.0	-3067.0	-4351.0
11	18	29	10	965	95.0	-202217.0	-3046.0	-3931.0
11	18	29	10	965	96.0	-202945.0	-3033.0	-3617.0
11	18	29	10	966	97.0	-203485.0	-3034.0	-3360.0
11	18	29	10	998	98.0	-203663.0	-3010.0	-3206.0
11	18	29	10	999	99.0	-203387.0	-3015.0	-2720.0
11	18	29	10	999	100.0	-202321.0	-3035.0	-3318.0
11	18	29	11	0	101.0	-200993.0	-3045.0	-4148.0
11	18	29	11	1	102.0	-200232.0	-3045.0	-4405.0
11	18	29	11	1	103.0	-198756.0	-3021.0	-4561.0
11	18	29	11	2	104.0	-197343.0	-3016.0	-4359.0
11	18	29	11	2	105.0	-196869.0	-2993.0	-3965.0
11	18	29	11	3	106.0	-196392.0	-2992.0	-3614.0
11	18	29	11	4	107.0	-196244.0	-2991.0	-3236.0
11	18	29	11	4	108.0	-196304.0	-2979.0	-2722.0
11	18	29	11	5	109.0	-196379.0	-2991.0	-2172.0
11	18	29	11	6	110.0	-197164.0	-3015.0	-2999.0
11	18	29	11	14	111.0	-197901.0	-3031.0	-3664.0
11	18	29	11	15	112.0	-198362.0	-3028.0	-4284.0
11	18	29	11	15	114.0	-198974.0	-2989.0	-3826.0
11	18	29	11	16	115.0	-198907.0	-2966.0	-3639.0
11	18	29	11	17	116.0	-198391.0	-2949.0	-3288.0
11	18	29	11	17	117.0	-198007.0	-2944.0	-3250.0
11	18	29	11	18	118.0	-198206.0	-2931.0	-2386.0
11	18	29	11	18	119.0	-198081.0	-2934.0	-1674.0
11	18	29	11	90	120.0	-196511.0	-2947.0	-2631.0
11	18	29	11	90	121.0	-194669.0	-2964.0	-3674.0
11	18	29	11	91	122.0	-192442.0	-2942.0	-3682.0
11	18	29	11	92	123.0	-191141.0	-2916.0	-3518.0
11	18	29	11	92	124.0	-190451.0	-2907.0	-3477.0
11	18	29	11	93	125.0	-190161.0	-2884.0	-3957.0
11	18	29	11	93	126.0	-190086.0	-2865.0	-3544.0
11	18	29	11	94	127.0	-189671.0	-2851.0	-3101.0
11	18	29	11	95	128.0	-190011.0	-2849.0	-2398.0
11	18	29	11	95	129.0	-190777.0	-2849.0	-2581.0
11	18	29	11	96	130.0	-191228.0	-2866.0	-3127.0
11	18	29	11	96	131.0	-191881.0	-2892.0	-3601.0
11	18	29	11	97	132.0	-192991.0	-2902.0	-4024.0
11	18	29	11	97	133.0	-193519.0	-2874.0	-3874.0
11	18	29	11	98	134.0	-193509.0	-2858.0	-4233.0
11	18	29	11	99	136.0	-194421.0	-2834.0	-4434.0
11	18	29	11	99	159.0	-201428.0	-2741.0	-3329.0
11	18	29	11	100	160.0	-200573.0	-2762.0	-4312.0
11	18	29	11	100	161.0	-199029.0	-2764.0	-3769.0
11	18	29	11	101	162.0	-197148.0	-2735.0	-4096.0
11	18	29	11	101	163.0	-196024.0	-2716.0	-3688.0
11	18	29	11	102	164.0	-195157.0	-2701.0	-2935.0
11	18	29	11	180	165.0	-194539.0	-2687.0	-2544.0
11	18	29	11	180	166.0	-194882.0	-2663.0	-2174.0
11	18	29	11	181	167.0	-195864.0	-2656.0	-1990.0
11	18	29	11	182	168.0	-196835.0	-2659.0	-1676.0
11	18	29	11	182	169.0	-198250.0	-2659.0	-1894.0
11	18	29	11	183	170.0	-199426.0	-2687.0	-2119.0
11	18	29	11	183	171.0	-200584.0	-2709.0	-2666.0
11	18	29	11	185	172.0	-201594.0	-2691.0	-2902.0
11	18	29	11	186	173.0	-201685.0	-2684.0	-2438.0
11	18	29	11	187	174.0	-201698.0	-2664.0	-1919.0
11	18	29	11	187	175.0	-201699.0	-2648.0	-1621.0
11	18	29	11	188	176.0	-201681.0	-2629.0	-1599.0
11	18	29	11	189	177.0	-201964.0	-2616.0	-1070.0
11	18	29	11	189	178.0	-202098.0	-2629.0	-381.0
11	18	29	11	190	179.0	-201385.0	-2643.0	-654.0
11	18	29	11	190	181.0	-199316.0	-2689.0	-1927.0
11	18	29	11	191	204.0	-194347.0	-2584.0	-10112.0
11	18	29	11	191	205.0	-195227.0	-2582.0	-6169.0
11	18	29	11	192	206.0	-195565.0	-2545.0	-2010.0
11	18	29	11	193	207.0	-195420.0	-2544.0	1964.0
11	18	29	11	193	208.0	-195902.0	-2544.0	6576.0
11	18	29	11	194	209.0	-196916.0	-2564.0	11185.0
11	18	29	11	225	210.0	-198190.0	-2567.0	14494.0
11	18	29	11	225	211.0	-199756.0	-2559.0	15321.0
11	18	29	11	226	212.0	-201391.0	-2547.0	18494.0
11	18	29	11	226	213.0	-202959.0	-2530.0	24397.0
11	18	29	11	227	214.0	-204314.0	-2508.0	27673.0
11	18	29	11	228	215.0	-205552.0	-2516.0	29954.0
11	18	29	11	228	216.0	-206937.0	-2530.0	30661.0
11	18	29	11	229	217.0	-208459.0	-2519.0	29661.0
11	18	29	11	230	218.0	-209128.0	-2519.0	29728.0
11	18	29	11	230	219.0	-209882.0	-2542.0	29276.0
11	18	29	11	231	220.0	-210686.0	-2542.0	28878.0
11	18	29	11	232	221.0	-210327.0	-2574.0	27498.0
11	18	29	11	232	222.0	-210270.0	-2558.0	26166.0
11	18	29	11	233	223.0	-210672.0	-2536.0	23915.0
11	18	29	11	233	224.0	-211042.0	-2527.0	20760.0
11	18	29	11	234	226.0	-212416.0	-2526.0	14512.0
11	18	29	11	234	227.0	-212329.0	-2514.0	11556.0
11	18	29	11	235	228.0	-212623.0	-2501.0	9266.0
11	18	29	11	236	229.0	-212383.0	-2513.0	6254.0
11	18	29	11	236	230.0	-208686.0	-2544.0	3169.0
11	18	29	11	237	231.0	-199134.0	-2568.0	354.0
11	18	29	11	269	232.0	-187066.0	-2544.0	-1684.0
11	18	29	11	270	233.0	-177496.0	-2522.0	-2810.0
11	18	29	11	270	234.0	-172669.0	-2511.0	-3200.0
11	18	29	11	271	235.0	-172216.0	-2523.0	-3003.0
11	18	29	11	272	236.0	-173607.0	-2511.0	-3232.0
11	18	29	11	272	237.0	-176217.0	-2496.0	-3081.0
11	18	29	11	273	238.0	-179841.0	-2495.0	-2967.0
11	18	29	11	274	239.0	-184514.0	-2526.0	-4032.0
11	18	29	11	274	240.0	-192407.0	-2567.0	-4969.0
11	18	29	11	275	241.0	-202084.0	-2563.0	-5126.0
11	18	29	11	276	242.0	-209537.0	-2549.0	-6006.0
11	18	29	11	276	243.0	-213188.0	-2541.0	-6504.0
11	18	29	11	277	244.0	-213444.0	-2518.0	-6081.0
11	18	29	11	277	245.0	-211932.0	-2518.0	-6011.0
11	18	29	11	278	246.0	-209931.0	-2514.0	-5803.0
11	18	29	11	279	249.0	-200769.0	-2551.0	-7168.0
11	18	29	11	279	250.0	-196774.0	-2561.0	-7302.0
11	18	29	11	280	251.0	-193455.0	-2574.0	-8149.0
11	18	29	11	280	252.0	-192299.0	-2541.0	-8636.0
11	18	29	11	281	253.0	-192518.0	-2513.0	-8192.0
11	18	29	11	281	254.0	-192607.0	-2509.0	-7422.0
11	18	29	11	313	255.0	-193158.0	-2500.0	-7774.0
11	18	29	11	313	0.0	-194318.0	-2486.0	-7994.0
11	18	29	11	314	1.0	-194985.0	-2469.0	-7757.0
11	18	29	11	315	2.0	-194425.0	-2479.0	-7237.0
11	18	29	11	315	3.0	-192424.0	-2493.0	-8114.0
11	18	29	11	316	4.0	-189168.0	-2506.0	-9266.0
11	18	29	11	317	5.0	-185287.0	-2509.0	-10089.0
11	18	29	11	317	6.0	-181994.0	-2491.0	-10180.0
11	18	29	11	318	7.0	-179810.0	-2487.0	-10254.0
11	18	29	11	318	8.0	-178930.0	-2488.0	-9955.0
11	18	29	11	319	9.0	-179324.0	-2483.0	-9904.0
11	18	29	11	320	10.0	-180564.0	-2459.0	-9914.0
11	18	29	11	320	11.0	-181972.0	-2446.0	-9522.0
11	18	29	11	321	12.0	-183943.0	-2476.0	-9278.0
11	18	29	11	322	13.0	-186667.0	-2506.0	-10374.0
11	18	29	11	322	15.0	-192872.0	-2526.0	-12176.0
11	18	29	11	339	16.0	-196414.0	-2490.0	-12130.0
11	18	29	11	340	17.0	-199988.0	-2462.0	-12447.0
11	18	29	11	341	18.0	-202880.0	-2446.0	-12377.0
11	18	29	11	342	19.0	-204546.0	-2436.0	-12015.0
11	18	29	11	342	20.0	-205671.0	-2419.0	-11829.0
11	18	29	11	407	21.0	-206132.0	-2414.0	-11826.0
11	18	29	11	408	22.0	-206274.0	-2434.0	-11946.0
11	18	29	11	409	23.0	-205539.0	-2455.0	-12873.0
11	18	29	11	409	24.0	-205326.0	-2471.0	-13489.0
11	18	29	11	410	25.0	-205029.0	-2483.0	-15356.0
11	18	29	11	410	26.0	-203916.0	-2462.0	-15728.0
11	18	29	11	411	27.0	-202794.0	-2441.0	-15747.0
11	18	29	11	411	28.0	-202261.0	-2439.0	-15506.0
11	18	29	11	412	29.0	-200789.0	-2439.0	-15846.0
11	18	29	11	412	30.0	-200383.0	-2419.0	-16221.0
11	18	29	11	413	31.0	-198977.0	-2410.0	-16031.0
11	18	29	11	414	32.0	-198271.0	-2434.0	-15928.0
11	18	29	11	414	33.0	-197552.0	-2438.0	-17077.0
11	18	29	11	415	34.0	-196619.0	-2476.0	-18371.0
11	18	29	11	415	35.0	-196344.0	-2469.0	-19605.0
11	18	29	11	416	37.0	-194431.0	-2437.0	-19985.0
11	18	29	11	416	60.0	-195376.0	-2467.0	-25885.0
11	18	29	11	417	61.0	-196751.0	-2456.0	-25116.0
11	18	29	11	417	62.0	-197631.0	-2468.0	-24001.0
11	18	29	11	418	63.0	-199207.0	-2492.0	-24191.0
11	18	29	11	418	64.0	-200977.0	-2512.0	-24841.0
11	18	29	11	419	65.0	-202306.0	-2503.0	-24250.0
11	18	29	11	420	66.0	-203134.0	-2481.0	-22960.0
11	18	29	11	450	67.0	-203282.0	-2468.0	-22112.0
11	18	29	11	451	68.0	-202673.0	-2468.0	-20902.0
11	18	29	11	451	69.0	-201906.0	-2459.0	-19966.0
11	18	29	11	452	70.0	-201332.0	-2464.0	-19043.0
11	18	29	11	452	71.0	-200474.0	-2454.0	-17277.0
11	18	29	11	453	72.0	-199416.0	-2481.0	-15743.0
11	18	29	11	453	73.0	-197951.0	-2502.0	-15580.0
11	18	29	11	454	74.0	-196882.0	-2507.0	-15683.0
11	18	29	11	455	75.0	-195590.0	-2504.0	-14898.0
11	18	29	11	455	76.0	-193213.0	-2492.0	-13197.0
11	18	29	11	456	77.0	-191151.0	-2479.0	-12073.0
11	18	29	11	457	78.0	-189639.0	-2474.0	-10619.0
11	18	29	11	457	79.0	-187932.0	-2458.0	-9587.0
11	18	29	11	458	80.0	-187045.0	-2467.0	-8844.0
11	18	29	11	459	81.0	-186720.0	-2462.0	-7347.0
11	18	29	11	459	82.0	-186761.0	-2492.0	-6324.0
11	18	29	11	460	83.0	-187456.0	-2531.0	-6464.0
11	18	29	11	460	84.0	-188284.0	-2551.0	-7162.0
11	18	29	11	461	85.0	-188780.0	-2506.0	-6400.0
11	18	29	11	461	86.0	-189267.0	-2509.0	-5185.0
11	18	29	11	462	87.0	-190150.0	-2490.0	-4814.0
11	18	29	11	462	88.0	-191061.0	-2485.0	-4304.0
11	18	29	11	493	89.0	-192649.0	-2458.0	-3197.0
11	18	29	11	510	90.0	-194281.0	-2469.0	-2109.0
11	18	29	11	511	91.0	-195485.0	-2438.0	-1333.0
11	18	29	11	511	92.0	-196993.0	-2487.0	-1361.0
11	18	29	11	512	93.0	-198467.0	-2519.0	-1649.0
11	18	29	11	512	94.0	-200126.0	-2529.0	-1737.0
11	18	29	11	513	95.0	-201715.0	-2518.0	-1772.0
11	18	29	11	513	96.0	-202786.0	-2501.0	-1409.0
11	18	29	11	514	97.0	-203826.0	-2480.0	-1094.0
11	18	29	11	514	98.0	-204079.0	-2481.0	-781.0
11	18	29	11	515	99.0	-204171.0	-2473.0	-56.0
11	18	29	11	515	100.0	-204299.0	-2465.0	389.0
11	18	29	11	516	101.0	-204917.0	-2472.0	1029.0
11	18	29	11	517	102.0	-205940.0	-2487.0	843.0
11	18	29	11	517	103.0	-205693.0	-2499.0	381.0
11	18	29	11	518	105.0	-205839.0	-2499.0	-147.0
11	18	29	11	518	106.0	-205586.0	-2495.0	428.0
11	18	29	11	519	107.0	-206099.0	-2468.0	733.0
11	18	29	11	519	108.0	-206382.0	-2471.0	1158.0
11	18	29	11	520	109.0	-206081.0	-2468.0	1209.0
11	18	29	11	520	110.0	-205918.0	-2446.0	1486.0
11	18	29	11	539	111.0	-205123.0	-2428.0	2623.0
11	18	29	11	540	112.0	-203484.0	-2449.0	2429.0
11	18	29	11	540	113.0	-201370.0	-2452.0	2196.0
11	18	29	11	541	114.0	-198221.0	-2456.0	1010.0
11	18	29	11	541	115.0	-191187.0	-2442.0	853.0
11	18	29	11	542	116.0	-179230.0	-2440.0	1536.0
11	18	29	11	542	117.0	-171413.0	-2419.0	1917.0
11	18	29	11	543	118.0	-173449.0	-2399.0	2041.0
11	18	29	11	544	119.0	-184499.0	-2382.0	2621.0
11	18	29	11	544	120.0	-198264.0	-2361.0	3466.0
11	18	29	11	545	121.0	-207853.0	-2377.0	3897.0
11	18	29	11	545	122.0	-211989.0	-2416.0	3249.0
11	18	29	11	546	123.0	-211070.0	-2422.0	2714.0
11	18	29	11	547	124.0	-207963.0	-2432.0	2422.0
11	18	29	11	547	125.0	-207421.0	-2407.0	1744.0
11	18	29	11	548	127.0	-209442.0	-2369.0	2070.0
11	18	29	11	548	128.0	-206973.0	-2344.0	2281.0
11	18	29	11	549	129.0	-202276.0	-2346.0	2657.0
11	18	29	11	550	130.0	-196501.0	-2327.0	2671.0
11	18	29	11	550	131.0	-190977.0	-2318.0	3750.0
11	18	29	11	551	132.0	-185541.0	-2356.0	3313.0
11	18	29	11	551	133.0	-181192.0	-2364.0	2521.0
11	18	29	11	584	134.0	-178289.0	-2347.0	2102.0
11	18	29	11	584	135.0	-176258.0	-2330.0	1850.0
11	18	29	11	585	136.0	-174937.0	-2306.0	1974.0
11	18	29	11	585	137.0	-173634.0	-2301.0	1901.0
11	18	29	11	586	138.0	-174051.0	-2290.0	2019.0
11	18	29	11	587	139.0	-176289.0	-2278.0	2323.0
11	18	29	11	587	140.0	-178584.0	-2273.0	2688.0
11	18	29	11	588	141.0	-181310.0	-2261.0	3313.0
11	18	29	11	588	142.0	-184473.0	-2294.0	2818.0
11	18	29	11	589	143.0	-187708.0	-2301.0	2150.0
11	18	29	11	589	144.0	-191552.0	-2302.0	1361.0
11	18	29	11	590	145.0	-195490.0	-2282.0	1261.0
11	18	29	11	591	146.0	-199744.0	-2275.0	1549.0
11	18	29	11	591	147.0	-203409.0	-2274.0	1785.0
11	18	29	11	592	148.0	-205497.0	-2257.0	2085.0
11	18	29	11	592	150.0	-205146.0	-2227.0	2604.0
11	18	29	11	593	151.0	-203442.0	-2253.0	3209.0
11	18	29	11	628	152.0	-200751.0	-2279.0	2683.0
11	18	29	11	629	153.0	-197819.0	-2293.0	1823.0
11	18	29	11	629	154.0	-196631.0	-2305.0	1619.0
11	18	29	11	630	155.0	-195964.0	-2271.0	1876.0
11	18	29	11	630	156.0	-195975.0	-2253.0	1691.0
11	18	29	11	631	157.0	-196654.0	-2237.0	1903.0
11	18	29	11	631	158.0	-198076.0	-2232.0	2128.0
11	18	29	11	632	159.0	-199838.0	-2228.0	2704.0
11	18	29	11	633	160.0	-201555.0	-2222.0	2850.0
11	18	29	11	633	161.0	-203636.0	-2247.0	2784.0
11	18	29	11	634	162.0	-205582.0	-2287.0	2871.0
11	18	29	11	634	163.0	-207255.0	-2295.0	2699.0
11	18	29	11	635	164.0	-208746.0	-2289.0	1865.0
11	18	29	11	635	165.0	-210522.0	-2262.0	2479.0
11	18	29	11	636	166.0	-212230.0	-2264.0	2592.0
11	18	29	11	637	167.0	-213170.0	-2261.0	2467.0
11	18	29	11	645	173.0	-211586.0	-2299.0	2779.0
11	18	29	11	645	174.0	-210074.0	-2315.0	2129.0
11	18	29	11	646	175.0	-208338.0	-2264.0	2112.0
11	18	29	11	647	176.0	-206057.0	-2240.0	2459.0
11	18	29	11	647	177.0	-203956.0	-2241.0	2939.0
11	18	29	11	648	178.0	-201444.0	-2240.0	3216.0
11	18	29	11	674	179.0	-199551.0	-2217.0	3256.0
11	18	29	11	675	180.0	-197942.0	-2211.0	3631.0
11	18	29	11	676	181.0	-196454.0	-2219.0	3881.0
11	18	29	11	676	182.0	-195575.0	-2247.0	3528.0
11	18	29	11	677	183.0	-195349.0	-2272.0	2634.0
11	18	29	11	678	184.0	-195229.0	-2287.0	1805.0
11	18	29	11	678	185.0	-195086.0	-2261.0	2391.0
11	18	29	11	679	186.0	-195021.0	-2266.0	2941.0
11	18	29	11	679	187.0	-194967.0	-2258.0	3214.0
11	18	29	11	680	188.0	-195052.0	-2250.0	3164.0
11	18	29	11	681	189.0	-194781.0	-2239.0	3494.0
11	18	29	11	681	190.0	-194337.0	-2227.0	4093.0
11	18	29	11	682	191.0	-194752.0	-2236.0	3953.0
11	18	29	11	682	192.0	-195349.0	-2281.0	3908.0
11	18	29	11	683	193.0	-196024.0	-2312.0	3204.0
11	18	29	11	684	195.0	-197918.0	-2264.0	2748.0
11	18	29	11	684	196.0	-199154.0	-2263.0	3130.0
11	18	29	11	685	197.0	-200454.0	-2257.0	3548.0
11	18	29	11	685	198.0	-201351.0	-2248.0	3740.0
11	18	29	11	686	199.0	-202009.0	-2229.0	4423.0
11	18	29	11	687	200.0	-202039.0	-2209.0	5449.0
11	18	29	11	719	201.0	-201364.0	-2248.0	5809.0
11	18	29	11	719	202.0	-200279.0	-2279.0	4572.0
11	18	29	11	720	203.0	-198626.0	-2284.0	4021.0
11	18	29	11	720	204.0	-197024.0	-2297.0	3793.0
11	18	29	11	721	205.0	-195771.0	-2277.0	3539.0
11	18	29	11	722	206.0	-194913.0	-2251.0	3814.0
11	18	29	11	722	207.0	-194843.0	-2231.0	4217.0
11	18	29	11	723	208.0	-194718.0	-2241.0	4794.0
11	18	29	11	723	209.0	-194627.0	-2242.0	4522.0
11	18	29	11	724	210.0	-194651.0	-2233.0	5139.0
11	18	29	11	725	211.0	-194631.0	-2247.0	5678.0
11	18	29	11	725	212.0	-194660.0	-2264.0	5429.0
11	18	29	11	726	213.0	-194439.0	-2307.0	4924.0
11	18	29	11	726	214.0	-194127.0	-2279.0	4156.0
11	18	29	11	727	215.0	-194276.0	-2246.0	4264.0
11	18	29	11	728	217.0	-195128.0	-2242.0	4813.0
11	18	29	11	728	218.0	-195911.0	-2232.0	4638.0
11	18	29	11	729	219.0	-197011.0	-2214.0	4903.0
11	18	29	11	729	220.0	-198321.0	-2197.0	5923.0
11	18	29	11	730	221.0	-199100.0	-2219.0	6098.0
11	18	29	11	730	222.0	-199635.0	-2240.0	5059.0
11	18	29	11	731	223.0	-199998.0	-2254.0	4643.0
11	18	29	11	765	224.0	-199632.0	-2257.0	4418.0
11	18	29	11	765	225.0	-199154.0	-2226.0	4411.0
11	18	29	11	766	226.0	-198652.0	-2211.0	4689.0
11	18	29	11	767	227.0	-198170.0	-2221.0	5153.0
11	18	29	11	767	228.0	-197672.0	-2189.0	4844.0
11	18	29	11	768	229.0	-196870.0	-2186.0	5013.0
11	18	29	11	769	230.0	-196747.0	-2164.0	5781.0
11	18	29	11	769	231.0	-196494.0	-2207.0	6131.0
11	18	29	11	770	232.0	-196724.0	-2232.0	5678.0
11	18	29	11	770	233.0	-197519.0	-2243.0	4869.0
11	18	29	11	771	234.0	-198127.0	-2230.0	4282.0
11	18	29	11	772	235.0	-199001.0	-2221.0	4384.0
11	18	29	11	772	236.0	-199239.0	-2209.0	4714.0
11	18	29	11	773	237.0	-199509.0	-2202.0	4853.0
11	18	29	11	773	238.0	-200103.0	-2187.0	5214.0
11	18	29	11	774	240.0	-201208.0	-2173.0	6323.0
11	18	29	11	774	241.0	-200816.0	-2194.0	6143.0
11	18	29	11	775	242.0	-200585.0	-2204.0	6140.0
11	18	29	11	776	243.0	-200224.0	-2241.0	5608.0
11	18	29	11	776	244.0	-199287.0	-2222.0	4401.0
11	18	29	11	777	245.0	-198784.0	-2197.0	4989.0
11	18	29	11	809	246.0	-198376.0	-2181.0	5606.0
11	18	29	11	854	247.0	-198109.0	-2169.0	5679.0
11	18	29	11	855	248.0	-197914.0	-2160.0	5607.0
11	18	29	11	855	249.0	-197635.0	-2167.0	6109.0
11	18	29	11	856	250.0	-197475.0	-2146.0	6448.0
11	18	29	11	857	251.0	-196884.0	-2178.0	6289.0
11	18	29	11	858	252.0	-196209.0	-2202.0	5497.0
11	18	29	11	859	253.0	-195867.0	-2190.0	4958.0
11	18	29	11	859	254.0	-195121.0	-2186.0	5138.0
11	18	29	11	860	255.0	-194489.0	-2176.0	5596.0
11	18	29	11	860	0.0	-194130.0	-2161.0	5271.0
11	18	29	11	861	1.0	-194099.0	-2151.0	5043.0
11	18	29	11	862	2.0	-194211.0	-2151.0	5779.0
11	18	29	11	862	3.0	-194476.0	-2148.0	6422.0
11	18	29	11	863	4.0	-195029.0	-2129.0	6728.0
11	18	29	11	863	6.0	-195175.0	-2172.0	6023.0
11	18	29	11	864	7.0	-195317.0	-2191.0	5198.0
11	18	29	11	865	29.0	-199697.0	-2157.0	3166.0
11	18	29	11	865	30.0	-200209.0	-2144.0	3294.0
11	18	29	11	866	31.0	-200247.0	-2129.0	3759.0
11	18	29	11	866	32.0	-199596.0	-2127.0	3748.0
11	18	29	11	867	33.0	-198546.0	-2125.0	4066.0
11	18	29	11	867	34.0	-197702.0	-2114.0	4186.0
11	18	29	11	900	35.0	-197130.0	-2146.0	3646.0
11	18	29	11	900	36.0	-196724.0	-2161.0	3021.0
11	18	29	11	901	37.0	-196348.0	-2171.0	2018.0
11	18	29	11	902	38.0	-196057.0	-2144.0	2574.0
11	18	29	11	902	39.0	-196077.0	-2134.0	3038.0
11	18	29	11	903	40.0	-196311.0	-2126.0	2965.0
11	18	29	11	904	41.0	-197205.0	-2135.0	3396.0
11	18	29	11	904	42.0	-197858.0	-2136.0	3848.0
11	18	29	11	905	43.0	-198729.0	-2126.0	4639.0
11	18	29	11	905	44.0	-199351.0	-2104.0	5499.0
11	18	29	11	906	45.0	-199647.0	-2134.0	5131.0
11	18	29	11	907	46.0	-199911.0	-2178.0	4865.0
11	18	29	11	907	47.0	-200020.0	-2188.0	4271.0
11	18	29	11	908	48.0	-200256.0	-2162.0	5194.0
11	18	29	11	908	49.0	-201048.0	-2142.0	4943.0
11	18	29	11	909	51.0	-202998.0	-2107.0	4696.0
11	18	29	11	910	52.0	-203692.0	-2113.0	5404.0
11	18	29	11	910	53.0	-203839.0	-2094.0	5954.0
11	18	29	11	911	54.0	-203649.0	-2102.0	6699.0
11	18	29	11	911	55.0	-203467.0	-2143.0	6369.0
11	18	29	11	912	56.0	-203341.0	-2160.0	6088.0
11	18	29	11	944	57.0	-202853.0	-2171.0	5766.0
11	18	29	11	945	58.0	-201712.0	-2146.0	5904.0
11	18	29	11	945	59.0	-200570.0	-2126.0	6186.0
11	18	29	11	946	60.0	-199807.0	-2126.0	6357.0
11	18	29	11	946	61.0	-199051.0	-2109.0	6843.0
11	18	29	11	947	62.0	-198636.0	-2101.0	7051.0
11	18	29	11	948	63.0	-198237.0	-2097.0	7520.0
11	18	29	11	948	64.0	-197934.0	-2104.0	7790.0
11	18	29	11	990	65.0	-198473.0	-2122.0	7457.0
11	18	29	11	990	66.0	-199043.0	-2160.0	6838.0
11	18	29	11	991	67.0	-199772.0	-2167.0	6524.0
11	18	29	11	992	68.0	-200612.0	-2148.0	5817.0
11	18	29	11	992	69.0	-200785.0	-2136.0	6019.0
11	18	29	11	993	70.0	-200407.0	-2127.0	6257.0
11	18	29	11	993	71.0	-199644.0	-2127.0	6284.0
11	18	29	11	994	74.0	-196156.0	-2144.0	7288.0
11	18	29	11	995	75.0	-194298.0	-2157.0	6798.0
11	18	29	11	995	76.0	-192769.0	-2187.0	6472.0
11	18	29	11	996	77.0	-191666.0	-2207.0	5981.0
11	18	29	11	997	78.0	-190481.0	-2198.0	6106.0
11	18	29	11	997	79.0	-189610.0	-2167.0	5434.0
11	18	29	11	998	80.0	-188876.0	-2152.0	5047.0
11	18	29	11	999	81.0	-188407.0	-2151.0	4213.0
11	18	29	11	999	96.0	-197782.0	-2237.0	24303.0
11	18	29	12	0	97.0	-199629.0	-2232.0	25319.0
11	18	29	12	0	98.0	-202022.0	-2204.0	28165.0
11	18	29	12	1	99.0	-204372.0	-2201.0	34045.0
11	18	29	12	1	100.0	-206536.0	-2204.0	39290.0
11	18	29	12	2	101.0	-208516.0	-2209.0	41800.0
11	18	29	12	79	102.0	-209840.0	-2211.0	42733.0
11	18	29	12	80	103.0	-210866.0	-2184.0	41569.0
11	18	29	12	81	104.0	-211272.0	-2200.0	40306.0
11	18	29	12	81	105.0	-211101.0	-2228.0	39497.0
11	18	29	12	82	106.0	-210273.0	-2252.0	38429.0
11	18	29	12	82	107.0	-209116.0	-2237.0	36554.0
11	18	29	12	83	108.0	-207812.0	-2216.0	34419.0
11	18	29	12	84	109.0	-206624.0	-2213.0	31278.0
11	18	29	12	84	110.0	-205432.0	-2217.0	27004.0
11	18	29	12	85	111.0	-204061.0	-2204.0	23518.0
11	18	29	12	86	112.0	-203304.0	-2197.0	19946.0
11	18	29	12	86	113.0	-203457.0	-2202.0	17146.0
11	18	29	12	87	114.0	-204146.0	-2226.0	14308.0
11	18	29	12	88	115.0	-200354.0	-2261.0	11093.0
11	18	29	12	89	116.0	-188211.0	-2289.0	7794.0
11	18	29	12	90	118.0	-162441.0	-2250.0	3984.0
11	18	29	12	91	141.0	-180153.0	-2310.0	-1556.0
11	18	29	12	91	142.0	-182937.0	-2306.0	-1474.0
11	18	29	12	92	143.0	-188465.0	-2287.0	-1123.0
11	18	29	12	92	144.0	-196086.0	-2302.0	-1221.0
11	18	29	12	93	145.0	-203737.0	-2337.0	-1927.0
11	18	29	12	94	146.0	-208651.0	-2352.0	-2448.0
11	18	29	12	94	147.0	-209896.0	-2332.0	-3322.0
11	18	29	12	123	148.0	-209159.0	-2317.0	-3454.0
11	18	29	12	123	149.0	-207784.0	-2293.0	-3452.0
11	18	29	12	124	150.0	-206283.0	-2291.0	-3481.0
11	18	29	12	124	151.0	-204746.0	-2299.0	-3580.0
11	18	29	12	125	152.0	-203327.0	-2289.0	-3672.0
11	18	29	12	126	153.0	-202094.0	-2274.0	-2918.0
11	18	29	12	127	154.0	-200692.0	-2314.0	-2825.0
11	18	29	12	128	155.0	-199211.0	-2327.0	-4081.0
11	18	29	12	128	156.0	-198075.0	-2342.0	-4726.0
11	18	29	12	129	157.0	-197229.0	-2356.0	-5304.0
11	18	29	12	130	158.0	-196375.0	-2341.0	-5844.0
11	18	29	12	131	159.0	-195137.0	-2331.0	-6025.0
11	18	29	12	132	160.0	-193805.0	-2333.0	-5934.0
11	18	29	12	133	161.0	-192376.0	-2348.0	-5922.0
11	18	29	12	134	162.0	-190977.0	-2344.0	-6256.0
11	18	29	12	135	163.0	-189787.0	-2328.0	-6061.0
11	18	29	12	135	164.0	-188946.0	-2354.0	-6461.0
11	18	29	12	136	165.0	-188590.0	-2378.0	-7342.0
11	18	29	12	136	166.0	-188725.0	-2416.0	-8894.0
11	18	29	12	137	167.0	-189009.0	-2409.0	-9116.0
11	18	29	12	138	168.0	-189031.0	-2381.0	-9131.0
11	18	29	12	138	169.0	-189560.0	-2382.0	-9310.0
11	18	29	12	167	170.0	-190490.0	-2372.0	-9639.0
11	18	29	12	168	171.0	-191136.0	-2372.0	-9852.0
11	18	29	12	169	172.0	-190931.0	-2391.0	-10244.0
11	18	29	12	169	173.0	-190142.0	-2383.0	-10272.0
11	18	29	12	170	174.0	-189402.0	-2432.0	-10686.0
11	18	29	12	171	175.0	-189242.0	-2462.0	-12074.0
11	18	29	12	171	176.0	-189632.0	-2486.0	-12981.0
11	18	29	12	172	177.0	-190684.0	-2486.0	-13644.0
11	18	29	12	173	178.0	-192662.0	-2467.0	-13794.0
11	18	29	12	173	179.0	-195012.0	-2451.0	-14322.0
11	18	29	12	174	180.0	-197447.0	-2454.0	-14702.0
11	18	29	12	175	181.0	-199844.0	-2446.0	-14884.0
11	18	29	12	176	182.0	-201766.0	-2447.0	-15462.0
11	18	29	12	176	183.0	-203244.0	-2455.0	-15844.0
11	18	29	12	177	184.0	-204615.0	-2477.0	-16571.0
11	18	29	12	178	186.0	-205526.0	-2547.0	-19159.0
11	18	29	12	179	187.0	-205633.0	-2527.0	-19275.0
11	18	29	12	179	188.0	-205307.0	-2509.0	-19749.0
11	18	29	12	180	189.0	-204541.0	-2507.0	-20074.0
11	18	29	12	181	190.0	-203791.0	-2496.0	-20229.0
11	18	29	12	181	191.0	-202677.0	-2484.0	-20129.0
11	18	29	12	214	192.0	-201796.0	-2482.0	-20175.0
11	18	29	12	214	193.0	-201517.0	-2477.0	-20128.0
11	18	29	12	215	194.0	-201651.0	-2521.0	-20714.0
11	18	29	12	216	195.0	-201466.0	-2544.0	-21527.0
11	18	29	12	217	196.0	-201325.0	-2561.0	-22433.0
11	18	29	12	217	197.0	-200414.0	-2545.0	-22756.0
11	18	29	12	218	198.0	-199299.0	-2532.0	-22216.0
11	18	29	12	219	199.0	-198652.0	-2531.0	-21708.0
11	18	29	12	220	200.0	-197501.0	-2525.0	-21552.0
11	18	29	12	220	201.0	-195986.0	-2508.0	-21140.0
11	18	29	12	221	202.0	-194899.0	-2509.0	-20409.0
11	18	29	12	221	203.0	-193557.0	-2517.0	-19324.0
11	18	29	12	222	204.0	-191899.0	-2551.0	-19394.0
11	18	29	12	223	205.0	-191028.0	-2566.0	-19667.0
11	18	29	12	223	206.0	-191260.0	-2581.0	-19930.0
11	18	29	12	224	208.0	-191022.0	-2568.0	-18512.0
11	18	29	12	225	209.0	-190400.0	-2562.0	-17172.0
11	18	29	12	225	210.0	-189888.0	-2557.0	-16390.0
11	18	29	12	226	211.0	-189271.0	-2543.0	-15267.0
11	18	29	12	226	212.0	-188479.0	-2539.0	-13618.0
11	18	29	12	227	213.0	-188465.0	-2539.0	-11790.0
11	18	29	12	228	214.0	-188932.0	-2581.0	-11207.0
11	18	29	12	304	215.0	-188928.0	-2608.0	-10617.0
11	18	29	12	305	216.0	-188650.0	-2628.0	-10654.0
11	18	29	12	306	217.0	-188224.0	-2616.0	-9363.0
11	18	29	12	306	218.0	-187865.0	-2589.0	-7909.0
11	18	29	12	307	219.0	-187344.0	-2586.0	-6822.0
11	18	29	12	308	220.0	-186856.0	-2595.0	-6302.0
11	18	29	12	308	221.0	-186643.0	-2593.0	-4965.0
11	18	29	12	309	222.0	-187063.0	-2605.0	-3002.0
11	18	29	12	310	223.0	-188789.0	-2621.0	-1521.0
11	18	29	12	310	224.0	-190337.0	-2644.0	-1702.0
11	18	29	12	311	225.0	-191814.0	-2657.0	-1291.0
11	18	29	12	311	226.0	-193537.0	-2671.0	-964.0
11	18	29	12	312	227.0	-194806.0	-2637.0	-746.0
11	18	29	12	313	228.0	-195887.0	-2627.0	231.0
11	18	29	12	313	229.0	-197339.0	-2626.0	1118.0
11	18	29	12	314	231.0	-201364.0	-2619.0	2981.0
11	18	29	12	315	254.0	-202816.0	-2656.0	7189.0
11	18	29	12	316	255.0	-200228.0	-2651.0	6454.0
11	18	29	12	316	0.0	-196499.0	-2644.0	6010.0
11	18	29	12	317	1.0	-190742.0	-2611.0	6858.0
11	18	29	12	317	2.0	-179843.0	-2604.0	6879.0
11	18	29	12	318	3.0	-167848.0	-2586.0	6966.0
11	18	29	12	349	4.0	-162159.0	-2564.0	7569.0
11	18	29	12	350	5.0	-166100.0	-2561.0	7994.0
11	18	29	12	350	6.0	-178441.0	-2553.0	8291.0
11	18	29	12	351	7.0	-191902.0	-2546.0	8360.0
11	18	29	12	352	8.0	-201418.0	-2571.0	7523.0
11	18	29	12	352	9.0	-204409.0	-2594.0	7237.0
11	18	29	12	353	10.0	-201576.0	-2592.0	6697.0
11	18	29	12	353	11.0	-198350.0	-2572.0	6509.0
11	18	29	12	354	12.0	-198043.0	-2546.0	6855.0
11	18	29	12	354	13.0	-198503.0	-2531.0	7107.0
11	18	29	12	355	14.0	-197216.0	-2512.0	7667.0
11	18	29	12	356	15.0	-194181.0	-2528.0	8031.0
11	18	29	12	356	16.0	-188457.0	-2520.0	8069.0
11	18	29	12	357	17.0	-181977.0	-2487.0	8161.0
11	18	29	12	358	18.0	-177606.0	-2513.0	7875.0
11	18	29	12	358	20.0	-177644.0	-2538.0	6025.0
11	18	29	12	359	21.0	-182160.0	-2509.0	6050.0
11	18	29	12	360	22.0	-189410.0	-2480.0	6398.0
11	18	29	12	360	23.0	-196709.0	-2454.0	6357.0
11	18	29	12	361	24.0	-202980.0	-2449.0	6511.0
11	18	29	12	361	25.0	-207436.0	-2447.0	6917.0
11	18	29	12	394	26.0	-210551.0	-2417.0	7448.0
11	18	29	12	395	27.0	-211392.0	-2417.0	7886.0
11	18	29	12	395	28.0	-210952.0	-2431.0	7219.0
11	18	29	12	396	29.0	-209989.0	-2444.0	6560.0
11	18	29	12	396	30.0	-209270.0	-2430.0	5687.0
11	18	29	12	397	31.0	-209560.0	-2399.0	5998.0
11	18	29	12	397	32.0	-210489.0	-2384.0	5967.0
11	18	29	12	398	33.0	-211106.0	-2359.0	6088.0
11	18	29	12	399	34.0	-211227.0	-2351.0	6158.0
11	18	29	12	399	35.0	-209840.0	-2344.0	6892.0
11	18	29	12	400	36.0	-207216.0	-2321.0	7513.0
11	18	29	12	401	37.0	-204416.0	-2322.0	7736.0
11	18	29	12	402	38.0	-202121.0	-2351.0	6724.0
11	18	29	12	403	39.0	-199656.0	-2371.0	6446.0
11	18	29	12	403	40.0	-197177.0	-2360.0	6286.0
11	18	29	12	404	42.0	-192856.0	-2316.0	6134.0
11	18	29	12	404	43.0	-191702.0	-2331.0	6843.0
11	18	29	12	405	44.0	-191186.0	-2301.0	6876.0
11	18	29	12	405	45.0	-191111.0	-2275.0	6788.0
11	18	29	12	406	46.0	-191100.0	-2254.0	7309.0
11	18	29	12	407	47.0	-191663.0	-2286.0	7818.0
11	18	29	12	407	48.0	-192652.0	-2306.0	7603.0
11	18	29	12	438	49.0	-193998.0	-2321.0	6725.0
11	18	29	12	439	50.0	-195371.0	-2307.0	6846.0
11	18	29	12	440	51.0	-196787.0	-2276.0	6636.0
11	18	29	12	440	52.0	-198062.0	-2269.0	6855.0
11	18	29	12	441	53.0	-199137.0	-2284.0	7018.0
11	18	29	12	441	54.0	-200295.0	-2268.0	6932.0
11	18	29	12	442	55.0	-201398.0	-2255.0	7150.0
11	18	29	12	443	56.0	-202497.0	-2238.0	7604.0
11	18	29	12	443	57.0	-203348.0	-2263.0	7882.0
11	18	29	12	444	58.0	-204187.0	-2301.0	7395.0
11	18	29	12	444	59.0	-204592.0	-2307.0	7395.0
11	18	29	12	445	60.0	-204909.0	-2288.0	6725.0
11	18	29	12	445	61.0	-204674.0	-2279.0	6556.0
11	18	29	12	447	62.0	-204457.0	-2259.0	7056.0
11	18	29	12	447	63.0	-204340.0	-2247.0	7288.0
11	18	29	12	448	65.0	-203156.0	-2224.0	7538.0
11	18	29	12	449	66.0	-202072.0	-2215.0	8063.0
11	18	29	12	449	67.0	-200932.0	-2241.0	8011.0
11	18	29	12	450	68.0	-200077.0	-2253.0	7593.0
11	18	29	12	451	69.0	-199294.0	-2271.0	6881.0
11	18	29	12	451	70.0	-198609.0	-2257.0	6301.0
11	18	29	12	529	71.0	-198371.0	-2227.0	6613.0
11	18	29	12	530	72.0	-197877.0	-2202.0	6623.0
11	18	29	12	531	73.0	-197244.0	-2194.0	6519.0
11	18	29	12	531	74.0	-196774.0	-2176.0	7284.0
11	18	29	12	532	75.0	-196677.0	-2174.0	7981.0
11	18	29	12	532	76.0	-196629.0	-2162.0	8317.0
11	18	29	12	533	77.0	-196622.0	-2198.0	8190.0
11	18	29	12	533	78.0	-196575.0	-2220.0	7845.0
11	18	29	12	534	79.0	-196529.0	-2238.0	7350.0
11	18	29	12	535	80.0	-196976.0	-2221.0	6966.0
11	18	29	12	535	81.0	-197609.0	-2193.0	7290.0
11	18	29	12	536	82.0	-198177.0	-2172.0	7598.0
11	18	29	12	536	83.0	-199207.0	-2173.0	7656.0
11	18	29	12	537	84.0	-200755.0	-2167.0	8165.0
11	18	29	12	553	85.0	-201469.0	-2164.0	8594.0
11	18	29	12	553	87.0	-203407.0	-2157.0	8904.0
11	18	29	12	554	110.0	-198953.0	-2095.0	8104.0
11	18	29	12	554	111.0	-198687.0	-2067.0	8288.0
11	18	29	12	555	112.0	-198344.0	-2045.0	8314.0
11	18	29	12	555	113.0	-197599.0	-2049.0	8734.0
11	18	29	12	556	114.0	-197011.0	-2039.0	8861.0
11	18	29	12	556	115.0	-196382.0	-2033.0	9144.0
11	18	29	12	576	116.0	-195612.0	-2021.0	9412.0
11	18	29	12	577	117.0	-195259.0	-2032.0	9078.0
11	18	29	12	578	118.0	-195086.0	-2049.0	8472.0
11	18	29	12	579	119.0	-194355.0	-2051.0	8217.0
11	18	29	12	579	120.0	-193509.0	-2015.0	8143.0
11	18	29	12	580	121.0	-192872.0	-2006.0	7788.0
11	18	29	12	581	122.0	-192739.0	-2009.0	8053.0
11	18	29	12	581	123.0	-192671.0	-1999.0	8642.0
11	18	29	12	582	124.0	-192948.0	-1988.0	9481.0
11	18	29	12	582	125.0	-193562.0	-1968.0	9471.0
11	18	29	12	583	126.0	-193396.0	-1965.0	9993.0
11	18	29	12	584	127.0	-193009.0	-1997.0	9936.0
11	18	29	12	584	128.0	-193069.0	-2009.0	9256.0
11	18	29	12	585	129.0	-193363.0	-2016.0	8075.0
11	18	29	12	585	130.0	-193852.0	-2005.0	8167.0
11	18	29	12	586	132.0	-195174.0	-1972.0	8353.0
11	18	29	12	586	133.0	-196281.0	-1957.0	8614.0
11	18	29	12	587	134.0	-197279.0	-1951.0	8845.0
11	18	29	12	587	135.0	-198188.0	-1940.0	9294.0
11	18	29	12	588	136.0	-198816.0	-1938.0	10123.0
11	18	29	12	589	137.0	-199129.0	-1960.0	10165.0
11	18	29	12	619	138.0	-199095.0	-1972.0	9033.0
11	18	29	12	620	139.0	-198437.0	-1969.0	8590.0
11	18	29	12	620	140.0	-197261.0	-1946.0	8920.0
11	18	29	12	621	141.0	-196476.0	-1929.0	9250.0
11	18	29	12	621	142.0	-195709.0	-1916.0	9066.0
11	18	29	12	622	143.0	-195096.0	-1909.0	8968.0
11	18	29	12	623	144.0	-194891.0	-1906.0	9374.0
11	18	29	12	623	145.0	-194529.0	-1896.0	9896.0
11	18	29	12	624	146.0	-194491.0	-1899.0	10426.0
11	18	29	12	624	147.0	-194465.0	-1929.0	9860.0
11	18	29	12	625	148.0	-194308.0	-1940.0	9123.0
11	18	29	12	625	149.0	-194802.0	-1947.0	8563.0
11	18	29	12	626	150.0	-195279.0	-1930.0	8829.0
11	18	29	12	627	151.0	-195487.0	-1914.0	9131.0
11	18	29	12	627	152.0	-196181.0	-1902.0	9344.0
11	18	29	12	628	155.0	-196452.0	-1900.0	9968.0
11	18	29	12	628	156.0	-195882.0	-1891.0	10613.0
11	18	29	12	629	157.0	-194977.0	-1900.0	10113.0
11	18	29	12	630	158.0	-193735.0	-1915.0	9769.0
11	18	29	12	630	159.0	-192678.0	-1926.0	8729.0
11	18	29	12	631	160.0	-192200.0	-1901.0	8505.0
11	18	29	12	664	161.0	-191781.0	-1889.0	8740.0
11	18	29	12	664	162.0	-191481.0	-1866.0	9114.0
11	18	29	12	665	163.0	-191841.0	-1854.0	9033.0
11	18	29	12	666	164.0	-192293.0	-1879.0	9241.0
11	18	29	12	666	165.0	-192762.0	-1856.0	9776.0
11	18	29	12	667	166.0	-193391.0	-1860.0	9954.0
11	18	29	12	667	167.0	-193842.0	-1886.0	8844.0
11	18	29	12	668	168.0	-194349.0	-1919.0	7808.0
11	18	29	12	669	169.0	-194786.0	-1927.0	7256.0
11	18	29	12	669	170.0	-195306.0	-1922.0	6881.0
11	18	29	12	670	171.0	-196104.0	-1910.0	7021.0
11	18	29	12	670	172.0	-196785.0	-1889.0	7214.0
11	18	29	12	671	173.0	-197375.0	-1871.0	7091.0
11	18	29	12	672	174.0	-197873.0	-1872.0	7686.0
11	18	29	12	672	175.0	-198396.0	-1862.0	8239.0
11	18	29	12	673	177.0	-199859.0	-1913.0	7420.0
11	18	29	12	674	178.0	-200664.0	-1931.0	6721.0
11	18	29	12	675	179.0	-200868.0	-1935.0	6108.0
11	18	29	12	675	180.0	-200417.0	-1896.0	5963.0
11	18	29	12	676	181.0	-200502.0	-1886.0	6196.0
11	18	29	12	676	182.0	-200227.0	-1890.0	6384.0
11	18	29	12	709	183.0	-200044.0	-1877.0	6600.0
11	18	29	12	709	184.0	-199834.0	-1893.0	7135.0
11	18	29	12	710	185.0	-199414.0	-1870.0	8121.0
11	18	29	12	711	186.0	-199419.0	-1870.0	8416.0
11	18	29	12	712	187.0	-199772.0	-1909.0	7773.0
11	18	29	12	712	188.0	-200250.0	-1928.0	6566.0
11	18	29	12	713	189.0	-200386.0	-1943.0	6571.0
11	18	29	12	714	190.0	-201022.0	-1921.0	6642.0
11	18	29	12	714	191.0	-201484.0	-1919.0	7151.0
11	18	29	12	715	192.0	-201896.0	-1902.0	7916.0
11	18	29	12	716	193.0	-202224.0	-1904.0	8463.0
11	18	29	12	716	194.0	-202184.0	-1894.0	8754.0
11	18	29	12	717	195.0	-202072.0	-1894.0	9503.0
11	18	29	12	717	196.0	-202071.0	-1919.0	10129.0
11	18	29	12	718	197.0	-202570.0	-1945.0	9343.0
11	18	29	12	718	199.0	-203517.0	-1972.0	8718.0
11	18	29	12	719	200.0	-203579.0	-1951.0	8714.0
11	18	29	12	720	201.0	-202525.0	-1934.0	9142.0
11	18	29	12	720	202.0	-201312.0	-1929.0	9264.0
11	18	29	12	721	203.0	-200117.0	-1934.0	9527.0
11	18	29	12	721	204.0	-199197.0	-1912.0	9831.0
11	18	29	12	722	205.0	-197992.0	-1906.0	10258.0
11	18	29	12	754	206.0	-196502.0	-1927.0	10636.0
11	18	29	12	755	207.0	-195886.0	-1950.0	10078.0
11	18	29	12	755	208.0	-195950.0	-1974.0	9734.0
11	18	29	12	756	209.0	-195632.0	-1974.0	9073.0
11	18	29	12	756	210.0	-195296.0	-1937.0	9653.0
11	18	29	12	757	211.0	-195225.0	-1931.0	9852.0
11	18	29	12	758	212.0	-194351.0	-1924.0	9349.0
11	18	29	12	758	213.0	-193437.0	-1936.0	9596.0
11	18	29	12	759	214.0	-192907.0	-1928.0	10251.0
11	18	29	12	760	215.0	-192865.0	-1911.0	10873.0
11	18	29	12	760	216.0	-192529.0	-1926.0	10907.0
11	18	29	12	761	217.0	-192606.0	-1964.0	10916.0
11	18	29	12	761	218.0	-192864.0	-1994.0	9779.0
11	18	29	12	762	219.0	-193402.0	-1988.0	9300.0
11	18	29	12	763	220.0	-194424.0	-1963.0	9200.0
11	18	29	12	763	222.0	-196308.0	-1938.0	9408.0
11	18	29	12	764	223.0	-196284.0	-1927.0	9735.0
11	18	29	12	764	224.0	-195972.0	-1932.0	10329.0
11	18	29	12	765	225.0	-195974.0	-1933.0	9665.0
11	18	29	12	765	226.0	-196319.0	-1961.0	9191.0
11	18	29	12	766	227.0	-196878.0	-1974.0	7867.0
11	18	29	12	799	228.0	-196862.0	-2003.0	6711.0
11	18	29	12	800	229.0	-196571.0	-1982.0	4236.0
11	18	29	12	801	230.0	-196376.0	-1949.0	1303.0
11	18	29	12	801	231.0	-195976.0	-1962.0	-1649.0
11	18	29	12	802	232.0	-195436.0	-1959.0	-2806.0
11	18	29	12	803	233.0	-194859.0	-1951.0	-2421.0
11	18	29	12	803	234.0	-194173.0	-1946.0	-1215.0
11	18	29	12	804	235.0	-193682.0	-1939.0	2920.0
11	18	29	12	805	236.0	-193508.0	-1959.0	6241.0
11	18	29	12	805	237.0	-193489.0	-1989.0	8401.0
11	18	29	12	806	238.0	-193418.0	-2016.0	11084.0
11	18	29	12	806	239.0	-193509.0	-2000.0	14061.0
11	18	29	12	807	240.0	-194531.0	-1982.0	17576.0
11	18	29	12	807	241.0	-196091.0	-1975.0	23041.0
11	18	29	12	808	242.0	-197655.0	-1980.0	26924.0
11	18	29	12	809	244.0	-201684.0	-1961.0	34956.0
11	18	29	12	810	245.0	-203464.0	-1959.0	41502.0
11	18	29	12	810	246.0	-205477.0	-1984.0	45581.0
11	18	29	12	811	247.0	-207445.0	-2010.0	47237.0
11	18	29	12	811	248.0	-209027.0	-2022.0	46044.0
11	18	29	12	812	249.0	-209609.0	-2012.0	43698.0
11	18	29	12	813	250.0	-209779.0	-2007.0	42810.0
11	18	29	12	844	251.0	-209450.0	-1986.0	42175.0
11	18	29	12	845	252.0	-208247.0	-1954.0	41669.0
11	18	29	12	846	253.0	-206789.0	-1958.0	40463.0
11	18	29	12	847	254.0	-205591.0	-1961.0	37505.0
11	18	29	12	847	255.0	-204653.0	-1951.0	33911.0
11	18	29	12	848	0.0	-204036.0	-1996.0	29587.0
11	18	29	12	848	1.0	-204232.0	-2034.0	24886.0
11	18	29	12	849	2.0	-205300.0	-2043.0	21187.0
11	18	29	12	850	3.0	-206801.0	-2034.0	17610.0
11	18	29	12	850	4.0	-207871.0	-2009.0	14425.0
11	18	29	12	851	5.0	-203362.0	-2002.0	11979.0
11	18	29	12	852	6.0	-189732.0	-1983.0	10669.0
11	18	29	12	852	7.0	-173034.0	-1984.0	9519.0
11	18	29	12	853	8.0	-161662.0	-1985.0	8378.0
11	18	29	12	853	9.0	-159219.0	-1982.0	8581.0
11	18	29	12	854	11.0	-167332.0	-2031.0	7041.0
11	18	29	12	867	12.0	-173246.0	-2049.0	5332.0
11	18	29	12	868	13.0	-181945.0	-2028.0	5161.0
11	18	29	12	868	14.0	-193431.0	-2011.0	4925.0
11	18	29	12	869	15.0	-207280.0	-1988.0	5104.0
11	18	29	12	869	16.0	-218959.0	-1981.0	4975.0
11	18	29	12	891	17.0	-225343.0	-1984.0	4884.0
11	18	29	12	891	18.0	-227165.0	-1986.0	4769.0
11	18	29	12	892	19.0	-227056.0	-1981.0	5418.0
11	18	29	12	893	20.0	-224237.0	-2022.0	4836.0
11	18	29	12	893	21.0	-217544.0	-2028.0	3814.0
11	18	29	12	894	22.0	-208871.0	-2046.0	2918.0
11	18	29	12	895	23.0	-198867.0	-2046.0	2418.0
11	18	29	12	895	24.0	-190438.0	-2039.0	2383.0
11	18	29	12	896	25.0	-186674.0	-2016.0	2386.0
11	18	29	12	896	26.0	-187057.0	-2024.0	2674.0
11	18	29	12	897	27.0	-188032.0	-2014.0	2895.0
11	18	29	12	898	28.0	-187032.0	-2022.0	2935.0
11	18	29	12	898	29.0	-183686.0	-2024.0	3369.0
11	18	29	12	899	30.0	-180633.0	-2051.0	2694.0
11	18	29	12	900	31.0	-179687.0	-2061.0	1572.0
11	18	29	12	900	33.0	-184344.0	-2066.0	345.0
11	18	29	12	901	34.0	-190848.0	-2056.0	238.0
11	18	29	12	901	35.0	-198319.0	-2048.0	429.0
11	18	29	12	902	36.0	-203537.0	-2042.0	822.0
11	18	29	12	902	37.0	-205646.0	-2034.0	991.0
11	18	29	12	903	38.0	-205261.0	-2022.0	941.0
11	18	29	12	904	39.0	-203892.0	-2025.0	1011.0
11	18	29	12	934	40.0	-202299.0	-2062.0	219.0
11	18	29	12	935	41.0	-200647.0	-2092.0	-129.0
11	18	29	12	936	42.0	-199205.0	-2111.0	-1386.0
11	18	29	12	936	43.0	-198142.0	-2081.0	-2027.0
11	18	29	12	937	44.0	-197037.0	-2073.0	-1654.0
11	18	29	12	937	45.0	-196159.0	-2066.0	-1422.0
11	18	29	12	938	46.0	-195166.0	-2049.0	-1881.0
11	18	29	12	939	47.0	-193871.0	-2049.0	-1792.0
11	18	29	12	939	48.0	-192956.0	-2056.0	-1190.0
11	18	29	12	940	49.0	-192417.0	-2054.0	-783.0
11	18	29	12	940	50.0	-191614.0	-2089.0	-1614.0
11	18	29	12	941	51.0	-191700.0	-2107.0	-2704.0
11	18	29	12	942	52.0	-192242.0	-2131.0	-3666.0
11	18	29	12	942	53.0	-192557.0	-2099.0	-4474.0
11	18	29	12	943	54.0	-192625.0	-2084.0	-4336.0
11	18	29	12	943	56.0	-193282.0	-2085.0	-4896.0
11	18	29	12	944	57.0	-193749.0	-2067.0	-4885.0
11	18	29	12	945	58.0	-194862.0	-2072.0	-4367.0
11	18	29	12	945	59.0	-196289.0	-2074.0	-4189.0
11	18	29	12	946	60.0	-197669.0	-2105.0	-5481.0
11	18	29	12	946	61.0	-198781.0	-2127.0	-6547.0
11	18	29	12	979	62.0	-199270.0	-2129.0	-7667.0
11	18	29	12	980	63.0	-199017.0	-2114.0	-8338.0
11	18	29	12	980	64.0	-197237.0	-2079.0	-8594.0
11	18	29	12	981	65.0	-195041.0	-2079.0	-8874.0
11	18	29	12	982	66.0	-193144.0	-2094.0	-9532.0
11	18	29	12	982	67.0	-191484.0	-2121.0	-9555.0
11	18	29	12	983	68.0	-190847.0	-2100.0	-9655.0
11	18	29	12	984	69.0	-191037.0	-2100.0	-9974.0
11	18	29	12	985	70.0	-191401.0	-2143.0	-11262.0
11	18	29	12	986	71.0	-192111.0	-2154.0	-12305.0
11	18	29	12	987	72.0	-192984.0	-2171.0	-13699.0
11	18	29	12	987	73.0	-194144.0	-2159.0	-14195.0
11	18	29	12	988	74.0	-195582.0	-2134.0	-14571.0
11	18	29	12	989	75.0	-197660.0	-2117.0	-15217.0
11	18	29	12	989	76.0	-199656.0	-2132.0	-15427.0
11	18	29	12	990	78.0	-202784.0	-2135.0	-15414.0
11	18	29	12	990	79.0	-203277.0	-2134.0	-15603.0
11	18	29	12	991	80.0	-203702.0	-2162.0	-16342.0
11	18	29	12	992	81.0	-203887.0	-2192.0	-17333.0
11	18	29	12	992	82.0	-203654.0	-2208.0	-18107.0
11	18	29	12	993	83.0	-202752.0	-2189.0	-17934.0
11	18	29	12	993	84.0	-201959.0	-2176.0	-18016.0
11	18	29	13	23	85.0	-200971.0	-2164.0	-18051.0
11	18	29	13	24	86.0	-199295.0	-2158.0	-17722.0
11	18	29	13	25	87.0	-198382.0	-2154.0	-17594.0
11	18	29	13	25	88.0	-197529.0	-2144.0	-17716.0
11	18	29	13	26	89.0	-196961.0	-2164.0	-17095.0
11	18	29	13	27	90.0	-196551.0	-2210.0	-16819.0
11	18	29	13	27	91.0	-195942.0	-2222.0	-17608.0
11	18	29	13	28	92.0	-194714.0	-2232.0	-18769.0
11	18	29	13	29	93.0	-193025.0	-2213.0	-17672.0
11	18	29	13	29	94.0	-191266.0	-2202.0	-16323.0
11	18	29	13	30	95.0	-189771.0	-2196.0	-16140.0
11	18	29	13	31	96.0	-188404.0	-2203.0	-15691.0
11	18	29	13	31	97.0	-187421.0	-2193.0	-14466.0
11	18	29	13	32	98.0	-187262.0	-2165.0	-13450.0
11	18	29	13	32	99.0	-187609.0	-2194.0	-12439.0
11	18	29	13	33	101.0	-189125.0	-2248.0	-12003.0
11	18	29	13	34	102.0	-189986.0	-2244.0	-11297.0
11	18	29	13	34	103.0	-190609.0	-2216.0	-9738.0
11	18	29	13	35	104.0	-190751.0	-2197.0	-8659.0
11	18	29	13	36	105.0	-190890.0	-2189.0	-7583.0
11	18	29	13	36	106.0	-191351.0	-2174.0	-5566.0
11	18	29	13	69	107.0	-191952.0	-2172.0	-4082.0
11	18	29	13	70	108.0	-192357.0	-2153.0	-2834.0
11	18	29	13	70	109.0	-193035.0	-2178.0	-1820.0
11	18	29	13	71	110.0	-193926.0	-2221.0	-1156.0
11	18	29	13	72	111.0	-193886.0	-2228.0	-850.0
11	18	29	13	72	112.0	-193331.0	-2224.0	-845.0
11	18	29	13	73	113.0	-192823.0	-2214.0	-16.0
11	18	29	13	73	114.0	-192546.0	-2195.0	1159.0
11	18	29	13	74	115.0	-192322.0	-2174.0	2046.0
11	18	29	13	75	116.0	-192289.0	-2194.0	2832.0
11	18	29	13	114	117.0	-192366.0	-2181.0	3703.0
11	18	29	13	115	118.0	-192485.0	-2177.0	4596.0
11	18	29	13	116	119.0	-192552.0	-2187.0	5334.0
11	18	29	13	116	120.0	-192891.0	-2213.0	5484.0
11	18	29	13	117	121.0	-193507.0	-2241.0	5533.0
11	18	29	13	118	123.0	-195075.0	-2217.0	5544.0
11	18	29	13	118	124.0	-196867.0	-2195.0	6501.0
11	18	29	13	119	125.0	-198519.0	-2204.0	7114.0
11	18	29	13	120	126.0	-200007.0	-2199.0	7514.0
11	18	29	13	120	127.0	-201487.0	-2170.0	7964.0
11	18	29	13	121	128.0	-202171.0	-2164.0	9061.0
11	18	29	13	121	129.0	-202687.0	-2191.0	9407.0
11	18	29	13	122	130.0	-203423.0	-2216.0	8266.0
11	18	29	13	123	131.0	-204129.0	-2242.0	7713.0
11	18	29	13	123	132.0	-205152.0	-2214.0	8294.0
11	18	29	13	124	133.0	-206314.0	-2208.0	8148.0
11	18	29	13	125	146.0	-193276.0	-2127.0	9307.0
11	18	29	13	125	147.0	-183701.0	-2126.0	9516.0
11	18	29	13	126	148.0	-173890.0	-2121.0	9614.0
11	18	29	13	126	149.0	-169912.0	-2134.0	9850.0
11	18	29	13	127	150.0	-175632.0	-2141.0	9326.0
11	18	29	13	128	151.0	-188157.0	-2157.0	9008.0
11	18	29	13	160	152.0	-201132.0	-2132.0	8644.0
11	18	29	13	161	153.0	-210456.0	-2125.0	8678.0
11	18	29	13	161	154.0	-213107.0	-2106.0	8698.0
11	18	29	13	162	155.0	-209151.0	-2083.0	9012.0
11	18	29	13	163	156.0	-205169.0	-2072.0	9434.0
11	18	29	13	163	157.0	-203606.0	-2066.0	9449.0
11	18	29	13	164	158.0	-201126.0	-2052.0	10083.0
11	18	29	13	165	159.0	-196518.0	-2079.0	10113.0
11	18	29	13	165	160.0	-190532.0	-2097.0	9690.0
11	18	29	13	166	161.0	-183241.0	-2116.0	8629.0
11	18	29	13	167	162.0	-176625.0	-2107.0	8300.0
11	18	29	13	167	163.0	-173192.0	-2087.0	8515.0
11	18	29	13	168	164.0	-172528.0	-2067.0	8578.0
11	18	29	13	169	165.0	-173993.0	-2078.0	8451.0
11	18	29	13	169	166.0	-178742.0	-2053.0	8454.0
11	18	29	13	170	168.0	-193256.0	-2059.0	9641.0
11	18	29	13	170	169.0	-199607.0	-2096.0	9164.0
11	18	29	13	171	170.0	-204344.0	-2117.0	8683.0
11	18	29	13	172	171.0	-206818.0	-2135.0	8355.0
11	18	29	13	172	172.0	-206912.0	-2124.0	7682.0
11	18	29	13	173	173.0	-206027.0	-2086.0	8258.0
11	18	29	13	173	174.0	-205221.0	-2069.0	8826.0
11	18	29	13	203	175.0	-204661.0	-2079.0	8785.0
11	18	29	13	204	176.0	-205528.0	-2077.0	8841.0
11	18	29	13	204	177.0	-206738.0	-2079.0	9139.0
11	18	29	13	205	178.0	-207006.0	-2077.0	9298.0
11	18	29	13	206	179.0	-206068.0	-2112.0	9211.0
11	18	29	13	206	180.0	-204769.0	-2135.0	8794.0
11	18	29	13	207	181.0	-202985.0	-2177.0	8004.0
11	18	29	13	208	182.0	-201030.0	-2142.0	7463.0
11	18	29	13	208	183.0	-199420.0	-2127.0	7953.0
11	18	29	13	209	184.0	-198222.0	-2137.0	8377.0
11	18	29	13	210	185.0	-197559.0	-2132.0	8358.0
11	18	29	13	210	186.0	-197436.0	-2149.0	8661.0
11	18	29	13	211	187.0	-197406.0	-2145.0	8869.0
11	18	29	13	212	188.0	-197607.0	-2122.0	8986.0
11	18	29	13	212	189.0	-198302.0	-2159.0	8834.0
11	18	29	13	213	191.0	-199480.0	-2199.0	7598.0
11	18	29	13	214	192.0	-200796.0	-2204.0	7026.0
11	18	29	13	214	193.0	-201802.0	-2198.0	7513.0
11	18	29	13	215	194.0	-202936.0	-2175.0	7706.0
11	18	29	13	215	195.0	-204102.0	-2164.0	7371.0
11	18	29	13	216	196.0	-205050.0	-2144.0	7578.0
11	18	29	13	249	197.0	-206064.0	-2129.0	7820.0
11	18	29	13	250	198.0	-206733.0	-2149.0	8356.0
11	18	29	13	250	199.0	-207034.0	-2192.0	8233.0
11	18	29	13	251	200.0	-206384.0	-2217.0	7489.0
11	18	29	13	252	201.0	-205449.0	-2238.0	6948.0
11	18	29	13	252	202.0	-204571.0	-2211.0	6376.0
11	18	29	13	253	203.0	-203232.0	-2185.0	6680.0
11	18	29	13	293	204.0	-201961.0	-2168.0	6896.0
11	18	29	13	294	205.0	-200841.0	-2157.0	7281.0
11	18	29	13	294	206.0	-200216.0	-2182.0	7701.0
11	18	29	13	295	207.0	-200491.0	-2184.0	8023.0
11	18	29	13	296	208.0	-201222.0	-2187.0	8333.0
11	18	29	13	296	209.0	-201646.0	-2221.0	8137.0
11	18	29	13	297	210.0	-201992.0	-2227.0	7062.0
11	18	29	13	297	211.0	-202447.0	-2262.0	6054.0
11	18	29	13	298	213.0	-202967.0	-2226.0	6184.0
11	18	29	13	298	214.0	-202422.0	-2219.0	6346.0
11	18	29	13	299	215.0	-202262.0	-2231.0	6994.0
11	18	29	13	300	216.0	-201958.0	-2230.0	7573.0
11	18	29	13	300	217.0	-201435.0	-2224.0	7593.0
11	18	29	13	301	218.0	-201339.0	-2237.0	8290.0
11	18	29	13	301	219.0	-201679.0	-2272.0	8370.0
11	18	29	13	302	235.0	-196380.0	-2361.0	7464.0
11	18	29	13	302	236.0	-195425.0	-2353.0	7637.0
11	18	29	13	303	237.0	-194477.0	-2334.0	7881.0
11	18	29	13	304	238.0	-193864.0	-2364.0	8456.0
11	18	29	13	305	239.0	-194133.0	-2393.0	8083.0
11	18	29	13	305	240.0	-194302.0	-2410.0	7485.0
11	18	29	13	306	241.0	-194316.0	-2422.0	6929.0
11	18	29	13	338	242.0	-194650.0	-2416.0	6864.0
11	18	29	13	339	243.0	-195096.0	-2387.0	7439.0
11	18	29	13	339	244.0	-195059.0	-2367.0	7809.0
11	18	29	13	340	245.0	-194264.0	-2390.0	7456.0
11	18	29	13	340	246.0	-193551.0	-2392.0	7789.0
11	18	29	13	341	247.0	-193604.0	-2401.0	8248.0
11	18	29	13	342	248.0	-193859.0	-2412.0	8974.0
11	18	29	13	342	249.0	-195010.0	-2462.0	7936.0
11	18	29	13	343	250.0	-196520.0	-2482.0	7738.0
11	18	29	13	344	251.0	-197754.0	-2493.0	7495.0
11	18	29	13	344	252.0	-198941.0	-2478.0	7133.0
11	18	29	13	345	253.0	-199595.0	-2476.0	7786.0
11	18	29	13	345	254.0	-199460.0	-2456.0	8028.0
11	18	29	13	346	255.0	-198958.0	-2457.0	7660.0
11	18	29	13	346	0.0	-198303.0	-2479.0	7717.0
11	18	29	13	347	2.0	-196919.0	-2481.0	8867.0
11	18	29	13	348	3.0	-196652.0	-2498.0	8626.0
11	18	29	13	348	4.0	-196717.0	-2517.0	8089.0
11	18	29	13	349	5.0	-196777.0	-2513.0	7253.0
11	18	29	13	349	6.0	-197402.0	-2502.0	7577.0
11	18	29	13	350	7.0	-198104.0	-2479.0	7916.0
11	18	29	13	430	8.0	-198382.0	-2486.0	8228.0
11	18	29	13	431	9.0	-199156.0	-2489.0	7661.0
11	18	29	13	431	10.0	-200664.0	-2471.0	8107.0
11	18	29	13	432	11.0	-202385.0	-2476.0	8552.0
11	18	29	13	432	12.0	-204196.0	-2495.0	8687.0
11	18	29	13	433	13.0	-205828.0	-2522.0	7800.0
11	18	29	13	434	14.0	-206385.0	-2546.0	7458.0
11	18	29	13	434	15.0	-206234.0	-2554.0	7106.0
11	18	29	13	435	16.0	-206102.0	-2527.0	6914.0
11	18	29	13	435	17.0	-205009.0	-2522.0	7301.0
11	18	29	13	436	18.0	-203096.0	-2508.0	7516.0
11	18	29	13	437	19.0	-201567.0	-2502.0	7695.0
11	18	29	13	437	20.0	-200654.0	-2505.0	8484.0
11	18	29	13	438	21.0	-200079.0	-2501.0	8598.0
11	18	29	13	438	22.0	-199974.0	-2536.0	8791.0
11	18	29	13	439	47.0	-194151.0	-2714.0	6850.0
11	18	29	13	439	48.0	-195511.0	-2717.0	6391.0
11	18	29	13	440	49.0	-196607.0	-2716.0	6828.0
11	18	29	13	441	50.0	-197387.0	-2717.0	7615.0
11	18	29	13	441	51.0	-198016.0	-2719.0	7948.0
11	18	29	13	442	52.0	-198946.0	-2757.0	7758.0
11	18	29	13	442	53.0	-200039.0	-2794.0	7524.0
11	18	29	13	473	54.0	-201395.0	-2795.0	6804.0
11	18	29	13	474	55.0	-202927.0	-2807.0	5417.0
11	18	29	13	475	56.0	-204662.0	-2789.0	5596.0
11	18	29	13	475	57.0	-206396.0	-2786.0	5538.0
11	18	29	13	476	58.0	-207263.0	-2803.0	5328.0
11	18	29	13	476	59.0	-206662.0	-2800.0	5548.0
11	18	29	13	477	60.0	-204904.0	-2834.0	5640.0
11	18	29	13	478	61.0	-202797.0	-2847.0	6128.0
11	18	29	13	478	62.0	-200836.0	-2872.0	6143.0
11	18	29	13	479	63.0	-199209.0	-2914.0	5620.0
11	18	29	13	480	64.0	-197724.0	-2948.0	4946.0
11	18	29	13	480	65.0	-196719.0	-2925.0	4376.0
11	18	29	13	481	66.0	-196146.0	-2927.0	4336.0
11	18	29	13	481	67.0	-196017.0	-2946.0	4413.0
11	18	29	13	482	68.0	-196329.0	-2953.0	4283.0
11	18	29	13	482	69.0	-196779.0	-2973.0	4294.0
11	18	29	13	483	70.0	-197121.0	-2977.0	4306.0
11	18	29	13	484	71.0	-197602.0	-2986.0	5037.0
11	18	29	13	484	72.0	-197949.0	-3016.0	5377.0
11	18	29	13	485	73.0	-198105.0	-3051.0	5157.0
11	18	29	13	485	74.0	-198297.0	-3111.0	4617.0
11	18	29	13	486	75.0	-198586.0	-3115.0	4319.0
11	18	29	13	527	76.0	-198526.0	-3109.0	4544.0
11	18	29	13	527	77.0	-198784.0	-3106.0	4634.0
11	18	29	13	528	78.0	-199082.0	-3109.0	4876.0
11	18	29	13	529	79.0	-199041.0	-3136.0	5902.0
11	18	29	13	529	80.0	-198736.0	-3162.0	6505.0
11	18	29	13	530	81.0	-198217.0	-3166.0	6852.0
11	18	29	13	530	82.0	-197286.0	-3191.0	6715.0
11	18	29	13	531	83.0	-196816.0	-3241.0	5991.0
11	18	29	13	531	84.0	-196961.0	-3269.0	5971.0
11	18	29	13	532	85.0	-197784.0	-3288.0	5905.0
11	18	29	13	533	86.0	-199034.0	-3308.0	6287.0
11	18	29	13	533	87.0	-199949.0	-3324.0	6510.0
11	18	29	13	534	88.0	-201117.0	-3314.0	6735.0
11	18	29	13	534	89.0	-201529.0	-3329.0	7036.0
11	18	29	13	535	90.0	-201067.0	-3346.0	7288.0
11	18	29	13	535	92.0	-199159.0	-3412.0	8049.0
11	18	29	13	536	93.0	-197774.0	-3457.0	7011.0
11	18	29	13	536	94.0	-196596.0	-3494.0	6494.0
11	18	29	13	537	95.0	-196361.0	-3494.0	6808.0
11	18	29	13	538	96.0	-197309.0	-3485.0	7174.0
11	18	29	13	538	97.0	-198696.0	-3500.0	7550.0
11	18	29	13	564	98.0	-199594.0	-3519.0	7739.0
11	18	29	13	565	99.0	-200941.0	-3544.0	8001.0
11	18	29	13	565	100.0	-202303.0	-3557.0	7952.0
11	18	29	13	566	101.0	-203236.0	-3555.0	8176.0
11	18	29	13	566	102.0	-204192.0	-3611.0	8246.0
11	18	29	13	567	103.0	-205078.0	-3664.0	7954.0
11	18	29	13	568	104.0	-204846.0	-3699.0	7466.0
11	18	29	13	568	105.0	-204052.0	-3708.0	7084.0
11	18	29	13	569	106.0	-202595.0	-3724.0	6872.0
11	18	29	13	569	107.0	-200827.0	-3747.0	7226.0
11	18	29	13	570	108.0	-199095.0	-3754.0	7480.0
11	18	29	13	571	109.0	-197110.0	-3752.0	7629.0
11	18	29	13	571	110.0	-195441.0	-3780.0	7795.0
11	18	29	13	572	111.0	-194334.0	-3809.0	8127.0
11	18	29	13	572	112.0	-193500.0	-3864.0	7686.0
11	18	29	13	573	114.0	-190868.0	-3948.0	4245.0
11	18	29	13	573	115.0	-189663.0	-3956.0	2465.0
11	18	29	13	574	116.0	-189007.0	-3947.0	1049.0
11	18	29	13	575	117.0	-188196.0	-3972.0	-809.0
11	18	29	13	575	118.0	-187889.0	-3988.0	-3986.0
11	18	29	13	576	119.0	-187749.0	-4001.0	-7031.0
11	18	29	13	576	120.0	-187859.0	-4027.0	-8196.0
11	18	29	13	607	121.0	-188144.0	-4037.0	-6994.0
11	18	29	13	608	122.0	-188383.0	-4102.0	-4684.0
11	18	29	13	609	123.0	-187946.0	-4135.0	-542.0
11	18	29	13	609	124.0	-187052.0	-4167.0	1944.0
11	18	29	13	610	125.0	-189757.0	-4158.0	5078.0
11	18	29	13	611	126.0	-196104.0	-4154.0	9426.0
11	18	29	13	611	127.0	-200394.0	-4174.0	13694.0
11	18	29	13	612	128.0	-201026.0	-4201.0	18528.0
11	18	29	13	612	129.0	-197992.0	-4217.0	23079.0
11	18	29	13	613	130.0	-194972.0	-4227.0	25378.0
11	18	29	13	614	131.0	-194517.0	-4234.0	28568.0
11	18	29	13	614	132.0	-196468.0	-4295.0	34082.0
11	18	29	13	615	133.0	-198681.0	-4348.0	37409.0
11	18	29	13	615	134.0	-201017.0	-4392.0	38549.0
11	18	29	13	616	135.0	-204445.0	-4379.0	37543.0
11	18	29	13	617	137.0	-209291.0	-4387.0	36351.0
11	18	29	13	617	138.0	-210253.0	-4411.0	36208.0
11	18	29	13	618	139.0	-210827.0	-4453.0	36304.0
11	18	29	13	619	140.0	-211289.0	-4470.0	35911.0
11	18	29	13	619	141.0	-211839.0	-4489.0	35361.0
11	18	29	13	620	142.0	-212986.0	-4541.0	32651.0
11	18	29	13	653	143.0	-213792.0	-4592.0	28678.0
11	18	29	13	654	144.0	-214212.0	-4621.0	24044.0
11	18	29	13	655	145.0	-214285.0	-4620.0	20406.0
11	18	29	13	655	146.0	-214014.0	-4631.0	17933.0
11	18	29	13	656	147.0	-213466.0	-4652.0	15285.0
11	18	29	13	678	148.0	-212526.0	-4667.0	12198.0
11	18	29	13	678	149.0	-207762.0	-4686.0	9915.0
11	18	29	13	679	150.0	-196714.0	-4707.0	8191.0
11	18	29	13	680	151.0	-182984.0	-4755.0	7228.0
11	18	29	13	680	152.0	-171935.0	-4807.0	5311.0
11	18	29	13	681	153.0	-164664.0	-4851.0	4319.0
11	18	29	13	681	154.0	-163377.0	-4885.0	3529.0
11	18	29	13	682	155.0	-167589.0	-4894.0	3096.0
11	18	29	13	682	156.0	-173247.0	-4908.0	3094.0
11	18	29	13	683	157.0	-179702.0	-4925.0	2976.0
11	18	29	13	683	159.0	-195528.0	-4963.0	2474.0
11	18	29	13	684	160.0	-204054.0	-4983.0	2559.0
11	18	29	13	685	161.0	-211229.0	-5019.0	2860.0
11	18	29	13	685	162.0	-213782.0	-5066.0	2238.0
11	18	29	13	686	163.0	-210169.0	-5106.0	1103.0
11	18	29	13	686	164.0	-202951.0	-5140.0	1.0
11	18	29	13	687	165.0	-195770.0	-5137.0	-494.0
11	18	29	13	702	166.0	-190525.0	-5141.0	-531.0
11	18	29	13	703	167.0	-187772.0	-5161.0	-252.0
11	18	29	13	704	168.0	-186353.0	-5177.0	-298.0
11	18	29	13	704	169.0	-185904.0	-5201.0	-269.0
11	18	29	13	705	170.0	-185781.0	-5205.0	-525.0
11	18	29	13	705	171.0	-186129.0	-5239.0	-409.0
11	18	29	13	706	172.0	-186778.0	-5301.0	-854.0
11	18	29	13	707	173.0	-187171.0	-5341.0	-1800.0
11	18	29	13	707	174.0	-188369.0	-5367.0	-2441.0
11	18	29	13	708	175.0	-192004.0	-5356.0	-2199.0
11	18	29	13	708	176.0	-197136.0	-5369.0	-2616.0
11	18	29	13	709	177.0	-201591.0	-5402.0	-2753.0
11	18	29	13	709	178.0	-204274.0	-5436.0	-2829.0
11	18	29	13	710	179.0	-205252.0	-5471.0	-2879.0
11	18	29	13	711	180.0	-202919.0	-5493.0	-2830.0
11	18	29	13	711	182.0	-194660.0	-5609.0	-3241.0
11	18	29	13	712	183.0	-192687.0	-5652.0	-4034.0
11	18	29	13	712	184.0	-192129.0	-5690.0	-5311.0
11	18	29	13	713	185.0	-192728.0	-5694.0	-5424.0
11	18	29	13	713	186.0	-194522.0	-5715.0	-5696.0
11	18	29	13	714	187.0	-196572.0	-5718.0	-5717.0
11	18	29	13	743	188.0	-199043.0	-5761.0	-5367.0
11	18	29	13	744	189.0	-201940.0	-5811.0	-4780.0
11	18	29	13	745	190.0	-204327.0	-5828.0	-5076.0
11	18	29	13	745	191.0	-205638.0	-5854.0	-4855.0
11	18	29	13	746	192.0	-205525.0	-5904.0	-5456.0
11	18	29	13	747	193.0	-204254.0	-5962.0	-6574.0
11	18	29	13	747	194.0	-201979.0	-5989.0	-7841.0
11	18	29	13	748	195.0	-198379.0	-5999.0	-7608.0
11	18	29	13	749	196.0	-193752.0	-5999.0	-8155.0
11	18	29	13	749	197.0	-190171.0	-6025.0	-8461.0
11	18	29	13	750	198.0	-188052.0	-6049.0	-8528.0
11	18	29	13	750	199.0	-186645.0	-6069.0	-8363.0
11	18	29	13	751	200.0	-185797.0	-6085.0	-8358.0
11	18	29	13	752	201.0	-185914.0	-6114.0	-8843.0
11	18	29	13	752	202.0	-187197.0	-6175.0	-9754.0
11	18	29	13	753	204.0	-189683.0	-6212.0	-12076.0
11	18	29	13	754	205.0	-190497.0	-6214.0	-11963.0
11	18	29	13	755	206.0	-191342.0	-6224.0	-12399.0
11	18	29	13	755	207.0	-191509.0	-6231.0	-12787.0
11	18	29	13	756	208.0	-191083.0	-6233.0	-13042.0
11	18	29	13	756	209.0	-190406.0	-6257.0	-13178.0
11	18	29	13	757	210.0	-189832.0	-6266.0	-12888.0
11	18	29	13	789	211.0	-189696.0	-6294.0	-13334.0
11	18	29	13	790	212.0	-190040.0	-6341.0	-15039.0
11	18	29	13	790	213.0	-190637.0	-6389.0	-16098.0
11	18	29	13	791	214.0	-191425.0	-6389.0	-17267.0
11	18	29	13	792	215.0	-192285.0	-6383.0	-17604.0
11	18	29	13	792	216.0	-192791.0	-6390.0	-17829.0
11	18	29	13	793	217.0	-193129.0	-6391.0	-17690.0
11	18	29	13	793	218.0	-194023.0	-6398.0	-18213.0
11	18	29	13	794	219.0	-195395.0	-6415.0	-18503.0
11	18	29	13	795	220.0	-197102.0	-6413.0	-18176.0
11	18	29	13	795	221.0	-199016.0	-6462.0	-18370.0
11	18	29	13	796	222.0	-200854.0	-6494.0	-19612.0
11	18	29	13	796	223.0	-202026.0	-6522.0	-20972.0
11	18	29	13	797	224.0	-202941.0	-6530.0	-21432.0
11	18	29	13	797	225.0	-203819.0	-6507.0	-21724.0
11	18	29	13	798	227.0	-204882.0	-6511.0	-21959.0
11	18	29	13	799	228.0	-204537.0	-6530.0	-22097.0
11	18	29	13	799	229.0	-203451.0	-6532.0	-21387.0
11	18	29	13	800	230.0	-202108.0	-6519.0	-20593.0
11	18	29	13	800	231.0	-200903.0	-6536.0	-20609.0
11	18	29	13	801	232.0	-199672.0	-6561.0	-21548.0
11	18	29	13	833	233.0	-198942.0	-6572.0	-21420.0
11	18	29	13	834	234.0	-198949.0	-6578.0	-21766.0
11	18	29	13	835	235.0	-198700.0	-6546.0	-21930.0
11	18	29	13	835	236.0	-197652.0	-6532.0	-21232.0
11	18	29	13	836	237.0	-196597.0	-6538.0	-20489.0
11	18	29	13	836	238.0	-195551.0	-6549.0	-19815.0
11	18	29	13	837	239.0	-194674.0	-6547.0	-18883.0
11	18	29	13	838	240.0	-194165.0	-6529.0	-17987.0
11	18	29	13	838	241.0	-193706.0	-6551.0	-17027.0
11	18	29	13	839	242.0	-193723.0	-6573.0	-17096.0
11	18	29	13	840	243.0	-194252.0	-6594.0	-17251.0
11	18	29	13	840	244.0	-194552.0	-6582.0	-16322.0
11	18	29	13	841	245.0	-194742.0	-6572.0	-15221.0
11	18	29	13	841	246.0	-195161.0	-6553.0	-14242.0
11	18	29	13	842	247.0	-195508.0	-6547.0	-12987.0
11	18	29	13	843	249.0	-194491.0	-6537.0	-10673.0
11	18	29	13	843	250.0	-194227.0	-6528.0	-9019.0
11	18	29	13	844	251.0	-194182.0	-6549.0	-8158.0
11	18	29	13	844	252.0	-193846.0	-6545.0	-7271.0
11	18	29	13	845	253.0	-194122.0	-6579.0	-7226.0
11	18	29	13	846	254.0	-194797.0	-6547.0	-7179.0
11	18	29	13	878	255.0	-195239.0	-6545.0	-5785.0
11	18	29	13	878	0.0	-195697.0	-6529.0	-4771.0
11	18	29	13	879	1.0	-196172.0	-6517.0	-3890.0
11	18	29	13	880	2.0	-196761.0	-6501.0	-2837.0
11	18	29	13	880	3.0	-196795.0	-6480.0	-2083.0
11	18	29	13	881	4.0	-196487.0	-6467.0	-1211.0
11	18	29	13	882	5.0	-197215.0	-6504.0	-971.0
11	18	29	13	882	6.0	-197744.0	-6516.0	-885.0
11	18	29	13	883	7.0	-198421.0	-6527.0	-586.0
11	18	29	13	884	8.0	-199275.0	-6505.0	-458.0
11	18	29	13	884	9.0	-199775.0	-6491.0	476.0
11	18	29	13	885	10.0	-200242.0	-6471.0	1176.0
11	18	29	13	886	11.0	-200354.0	-6442.0	1714.0
11	18	29	13	886	12.0	-200593.0	-6420.0	2275.0
11	18	29	13	887	13.0	-201224.0	-6411.0	2996.0
11	18	29	13	888	16.0	-200597.0	-6422.0	3488.0
11	18	29	13	889	17.0	-200111.0	-6431.0	2786.0
11	18	29	13	890	18.0	-199262.0	-6394.0	2702.0
11	18	29	13	891	19.0	-198422.0	-6357.0	3011.0
11	18	29	13	891	20.0	-198985.0	-6314.0	3198.0
11	18	29	13	892	21.0	-199884.0	-6286.0	3662.0
11	18	29	13	923	22.0	-200355.0	-6255.0	4360.0
11	18	29	13	924	23.0	-200834.0	-6215.0	4801.0
11	18	29	13	925	24.0	-201471.0	-6199.0	5328.0
11	18	29	13	925	25.0	-202295.0	-6204.0	5434.0
11	18	29	13	926	26.0	-203031.0	-6199.0	5445.0
11	18	29	13	927	27.0	-203642.0	-6183.0	4878.0
11	18	29	13	927	28.0	-203856.0	-6139.0	3815.0
11	18	29	13	928	29.0	-203299.0	-6084.0	4053.0
11	18	29	13	929	30.0	-202167.0	-6034.0	4467.0
11	18	29	13	929	31.0	-200276.0	-5990.0	4669.0
11	18	29	13	930	32.0	-197090.0	-5944.0	4978.0
11	18	29	13	930	33.0	-189073.0	-5912.0	5079.0
11	18	29	13	931	34.0	-178842.0	-5871.0	6000.0
11	18	29	13	932	35.0	-173904.0	-5879.0	5716.0
11	18	29	13	932	36.0	-177479.0	-5857.0	4849.0
11	18	29	13	933	38.0	-200721.0	-5759.0	3919.0
11	18	29	13	934	39.0	-210569.0	-5719.0	4323.0
11	18	29	13	934	40.0	-215167.0	-5652.0	4446.0
11	18	29	13	935	41.0	-212894.0	-5599.0	4869.0
11	18	29	13	935	42.0	-208987.0	-5559.0	5686.0
11	18	29	13	936	43.0	-208212.0	-5486.0	5583.0
11	18	29	13	969	44.0	-209121.0	-5449.0	5997.0
11	18	29	13	970	45.0	-207350.0	-5441.0	6182.0
11	18	29	13	971	46.0	-203077.0	-5401.0	5367.0
11	18	29	13	971	47.0	-197856.0	-5365.0	4421.0
11	18	29	13	972	48.0	-192357.0	-5314.0	4501.0
11	18	29	13	973	49.0	-187686.0	-5242.0	4181.0
11	18	29	13	973	50.0	-182997.0	-5177.0	4220.0
11	18	29	13	974	51.0	-179443.0	-5127.0	4686.0
11	18	29	13	975	52.0	-177152.0	-5076.0	4963.0
11	18	29	13	975	53.0	-176489.0	-5027.0	5192.0
11	18	29	13	976	54.0	-176705.0	-4977.0	5696.0
11	18	29	13	977	55.0	-177407.0	-4954.0	5826.0
11	18	29	13	977	56.0	-179404.0	-4940.0	5109.0
11	18	29	13	978	57.0	-181526.0	-4895.0	4977.0
11	18	29	13	979	58.0	-184105.0	-4832.0	4601.0
11	18	29	13	979	60.0	-190734.0	-4712.0	4569.0
11	18	29	13	980	61.0	-194463.0	-4667.0	5163.0
11	18	29	13	980	62.0	-198334.0	-4623.0	5286.0
11	18	29	13	981	63.0	-202388.0	-4586.0	5392.0
11	18	29	13	982	64.0	-205467.0	-4541.0	6069.0
11	18	29	13	982	65.0	-207771.0	-4531.0	6148.0
11	18	29	13	983	66.0	-208949.0	-4506.0	5445.0
11	18	29	14	14	67.0	-208502.0	-4470.0	4294.0
11	18	29	14	15	68.0	-206737.0	-4416.0	4779.0
11	18	29	14	15	69.0	-204157.0	-4355.0	4768.0
11	18	29	14	16	70.0	-201536.0	-4301.0	4744.0
11	18	29	14	17	71.0	-199595.0	-4252.0	4938.0
11	18	29	14	17	72.0	-198018.0	-4234.0	5165.0
11	18	29	14	18	73.0	-197509.0	-4190.0	5593.0
11	18	29	14	19	74.0	-197731.0	-4157.0	5832.0
11	18	29	14	19	75.0	-198836.0	-4135.0	5359.0
11	18	29	14	20	76.0	-200409.0	-4132.0	4944.0
11	18	29	14	21	77.0	-201970.0	-4096.0	4242.0
11	18	29	14	21	78.0	-203759.0	-4026.0	4249.0
11	18	29	14	22	79.0	-205457.0	-4001.0	4414.0
11	18	29	14	23	80.0	-206527.0	-3939.0	4759.0
11	18	29	14	23	81.0	-207949.0	-3886.0	5027.0
11	18	29	14	24	83.0	-210394.0	-3807.0	5173.0
11	18	29	14	24	84.0	-210529.0	-3780.0	5878.0
11	18	29	14	25	85.0	-210851.0	-3787.0	5093.0
11	18	29	14	26	86.0	-210703.0	-3756.0	4919.0
11	18	29	14	26	87.0	-210014.0	-3722.0	4526.0
11	18	29	14	27	88.0	-209304.0	-3681.0	4072.0
11	18	29	14	58	89.0	-208712.0	-3632.0	4333.0
11	18	29	14	59	90.0	-207734.0	-3569.0	5221.0
11	18	29	14	60	91.0	-205584.0	-3535.0	5155.0
11	18	29	14	61	92.0	-203545.0	-3491.0	5359.0
11	18	29	14	61	93.0	-202024.0	-3446.0	5955.0
11	18	29	14	62	94.0	-200277.0	-3416.0	6199.0
11	18	29	14	63	95.0	-198804.0	-3407.0	5851.0
11	18	29	14	63	96.0	-197239.0	-3398.0	5346.0
11	18	29	14	64	97.0	-195486.0	-3369.0	4203.0
11	18	29	14	65	98.0	-193732.0	-3330.0	4463.0
11	18	29	14	65	99.0	-192523.0	-3267.0	5286.0
11	18	29	14	66	100.0	-192201.0	-3253.0	5766.0
11	18	29	14	66	101.0	-192099.0	-3208.0	5785.0
11	18	29	14	67	102.0	-192229.0	-3188.0	5944.0
11	18	29	14	68	103.0	-192715.0	-3138.0	6458.0
11	18	29	14	68	105.0	-193076.0	-3116.0	6547.0
11	18	29	14	69	106.0	-193551.0	-3099.0	5857.0
11	18	29	14	71	107.0	-194570.0	-3063.0	5523.0
11	18	29	14	71	108.0	-195604.0	-3004.0	5558.0
11	18	29	14	72	109.0	-196447.0	-2967.0	5614.0
11	18	29	14	73	110.0	-197089.0	-2937.0	5802.0
11	18	29	14	73	111.0	-197239.0	-2906.0	6041.0
11	18	29	14	106	112.0	-197373.0	-2848.0	6509.0
11	18	29	14	107	113.0	-197261.0	-2811.0	7113.0
11	18	29	14	108	114.0	-197354.0	-2787.0	7291.0
11	18	29	14	109	115.0	-198186.0	-2797.0	6967.0
11	18	29	14	109	116.0	-198866.0	-2797.0	6908.0
11	18	29	14	110	117.0	-199226.0	-2761.0	6210.0
11	18	29	14	111	118.0	-199457.0	-2710.0	6206.0
11	18	29	14	111	119.0	-199739.0	-2674.0	6632.0
11	18	29	14	112	120.0	-199960.0	-2636.0	6536.0
11	18	29	14	113	121.0	-200156.0	-2610.0	6607.0
11	18	29	14	113	122.0	-200470.0	-2581.0	7083.0
11	18	29	14	114	123.0	-200510.0	-2542.0	7586.0
11	18	29	14	115	124.0	-200627.0	-2530.0	7740.0
11	18	29	14	115	125.0	-200436.0	-2521.0	7287.0
11	18	29	14	116	126.0	-199191.0	-2524.0	7287.0
11	18	29	14	117	128.0	-195494.0	-2444.0	6417.0
11	18	29	14	117	129.0	-193517.0	-2404.0	6859.0
11	18	29	14	118	130.0	-191701.0	-2354.0	6994.0
11	18	29	14	118	131.0	-190509.0	-2332.0	7106.0
11	18	29	14	119	132.0	-190996.0	-2291.0	7571.0
11	18	29	14	120	133.0	-190325.0	-2257.0	8313.0
11	18	29	14	149	134.0	-187437.0	-2245.0	8593.0
11	18	29	14	150	135.0	-185677.0	-2249.0	8069.0
11	18	29	14	150	136.0	-185644.0	-2249.0	7609.0
11	18	29	14	151	137.0	-186262.0	-2231.0	6641.0
11	18	29	14	152	138.0	-186724.0	-2184.0	6816.0
11	18	29	14	152	139.0	-187148.0	-2151.0	7059.0
11	18	29	14	153	140.0	-188025.0	-2119.0	7230.0
11	18	29	14	154	141.0	-189372.0	-2106.0	7208.0
11	18	29	14	154	142.0	-190254.0	-2075.0	7934.0
11	18	29	14	155	143.0	-191307.0	-2034.0	8449.0
11	18	29	14	156	144.0	-193074.0	-2036.0	8477.0
11	18	29	14	156	145.0	-195577.0	-2036.0	8694.0
11	18	29	14	157	146.0	-197828.0	-2039.0	8126.0
11	18	29	14	158	147.0	-199966.0	-2012.0	7424.0
11	18	29	14	158	148.0	-202112.0	-1972.0	8103.0
11	18	29	14	159	150.0	-204344.0	-1902.0	8143.0
11	18	29	14	160	151.0	-205042.0	-1868.0	8087.0
11	18	29	14	161	152.0	-204999.0	-1859.0	8570.0
11	18	29	14	161	153.0	-204451.0	-1824.0	8707.0
11	18	29	14	162	154.0	-203887.0	-1828.0	8701.0
11	18	29	14	163	155.0	-203230.0	-1834.0	8346.0
11	18	29	14	163	156.0	-202360.0	-1841.0	8035.0
11	18	29	14	193	157.0	-201428.0	-1789.0	7608.0
11	18	29	14	194	158.0	-200611.0	-1748.0	8014.0
11	18	29	14	195	159.0	-200239.0	-1705.0	8126.0
11	18	29	14	196	160.0	-200168.0	-1690.0	8343.0
11	18	29	14	197	161.0	-199717.0	-1656.0	8588.0
11	18	29	14	197	162.0	-198605.0	-1617.0	8674.0
11	18	29	14	198	163.0	-197872.0	-1590.0	9121.0
11	18	29	14	199	164.0	-197362.0	-1599.0	9024.0
11	18	29	14	200	165.0	-196884.0	-1589.0	8766.0
11	18	29	14	201	166.0	-196774.0	-1571.0	8277.0
11	18	29	14	202	167.0	-196991.0	-1521.0	7857.0
11	18	29	14	207	168.0	-197091.0	-1474.0	7995.0
11	18	29	14	209	169.0	-197393.0	-1443.0	8004.0
11	18	29	14	209	170.0	-198132.0	-1421.0	8206.0
11	18	29	14	210	171.0	-198653.0	-1396.0	8293.0
11	18	29	14	211	173.0	-198174.0	-1333.0	9109.0
11	18	29	14	211	174.0	-197661.0	-1337.0	8944.0
11	18	29	14	212	175.0	-197157.0	-1341.0	8415.0
11	18	29	14	212	176.0	-196487.0	-1325.0	7721.0
11	18	29	14	213	177.0	-195652.0	-1272.0	7421.0
11	18	29	14	213	178.0	-195089.0	-1213.0	8089.0
11	18	29	14	240	179.0	-194889.0	-1162.0	8085.0
11	18	29	14	240	180.0	-195301.0	-1132.0	8396.0
11	18	29	14	241	181.0	-196204.0	-1099.0	8981.0
11	18	29	14	242	182.0	-196936.0	-1074.0	9281.0
11	18	29	14	243	183.0	-197515.0	-1022.0	9696.0
11	18	29	14	243	184.0	-197354.0	-1041.0	9524.0
11	18	29	14	244	185.0	-197722.0	-1037.0	8436.0
11	18	29	14	244	186.0	-197918.0	-1019.0	7993.0
11	18	29	14	245	187.0	-197596.0	-982.0	8381.0
11	18	29	14	245	188.0	-197007.0	-928.0	8196.0
11	18	29	14	246	189.0	-196225.0	-904.0	7974.0
11	18	29	14	247	190.0	-195662.0	-869.0	8643.0
11	18	29	14	247	191.0	-194830.0	-841.0	8969.0
11	18	29	14	248	192.0	-194213.0	-802.0	8871.0
11	18	29	14	248	193.0	-194126.0	-755.0	8923.0
11	18	29	14	249	195.0	-194931.0	-752.0	7874.0
11	18	29	14	249	196.0	-195751.0	-748.0	7269.0
11	18	29	14	250	197.0	-196636.0	-714.0	6734.0
11	18	29	14	251	198.0	-197589.0	-663.0	6653.0
11	18	29	14	251	199.0	-198106.0	-613.0	6743.0
11	18	29	14	252	200.0	-198494.0	-581.0	6841.0
11	18	29	14	252	201.0	-198658.0	-543.0	6967.0
11	18	29	14	284	202.0	-198521.0	-505.0	6910.0
11	18	29	14	284	203.0	-198509.0	-464.0	7404.0
11	18	29	14	285	204.0	-198314.0	-470.0	7471.0
11	18	29	14	285	205.0	-197946.0	-466.0	6376.0
11	18	29	14	286	206.0	-197363.0	-457.0	5921.0
11	18	29	14	287	207.0	-196139.0	-410.0	5796.0
11	18	29	14	287	208.0	-195130.0	-361.0	5373.0
11	18	29	14	288	209.0	-195019.0	-319.0	5428.0
11	18	29	14	289	210.0	-195957.0	-291.0	5781.0
11	18	29	14	290	211.0	-197273.0	-242.0	6534.0
11	18	29	14	290	212.0	-199099.0	-214.0	7181.0
11	18	29	14	291	213.0	-201491.0	-177.0	7824.0
11	18	29	14	292	214.0	-203051.0	-174.0	7871.0
11	18	29	14	292	215.0	-203605.0	-162.0	7184.0
11	18	29	14	293	216.0	-203117.0	-131.0	6642.0
11	18	29	14	293	218.0	-201981.0	-32.0	7432.0
11	18	29	14	294	219.0	-201405.0	19.0	7923.0
11	18	29	14	295	220.0	-201139.0	61.0	7756.0
11	18	29	14	295	221.0	-201022.0	92.0	8322.0
11	18	29	14	296	222.0	-200555.0	130.0	8664.0
11	18	29	14	296	223.0	-199784.0	166.0	9326.0
11	18	29	14	329	224.0	-199668.0	170.0	8930.0
11	18	29	14	330	225.0	-199956.0	173.0	9349.0
11	18	29	14	330	226.0	-199793.0	213.0	9018.0
11	18	29	14	331	227.0	-199564.0	256.0	8658.0
11	18	29	14	331	228.0	-199090.0	301.0	9000.0
11	18	29	14	332	229.0	-198349.0	348.0	9204.0
11	18	29	14	333	230.0	-198216.0	388.0	9586.0
11	18	29	14	333	231.0	-198362.0	424.0	9876.0
11	18	29	14	334	232.0	-198291.0	468.0	10069.0
11	18	29	14	334	233.0	-198551.0	502.0	10480.0
11	18	29	14	335	234.0	-199131.0	499.0	10943.0
11	18	29	14	335	235.0	-199376.0	506.0	10776.0
11	18	29	14	336	236.0	-199704.0	541.0	10238.0
11	18	29	14	337	237.0	-200198.0	596.0	9942.0
11	18	29	14	337	238.0	-200010.0	641.0	10431.0
11	18	29	14	338	240.0	-199056.0	737.0	10544.0
11	18	29	14	338	241.0	-198215.0	759.0	10717.0
11	18	29	14	339	242.0	-197187.0	804.0	11006.0
11	18	29	14	340	243.0	-196633.0	859.0	11852.0
11	18	29	14	340	244.0	-196591.0	871.0	11459.0
11	18	29	14	341	245.0	-196472.0	882.0	11234.0
11	18	29	14	341	246.0	-195806.0	909.0	10058.0
11	18	29	14	374	247.0	-194669.0	993.0	9811.0
11	18	29	14	389	248.0	-193349.0	1039.0	10463.0
11	18	29	14	390	249.0	-192215.0	1078.0	10606.0
11	18	29	14	390	250.0	-190564.0	1118.0	10481.0
11	18	29	14	391	251.0	-188938.0	1179.0	9936.0
11	18	29	14	391	252.0	-187982.0	1232.0	9517.0
11	18	29	14	392	253.0	-188017.0	1270.0	8976.0
11	18	29	14	392	254.0	-188562.0	1291.0	7103.0
11	18	29	14	393	255.0	-189402.0	1321.0	5188.0
11	18	29	14	393	0.0	-190810.0	1350.0	2198.0
11	18	29	14	394	1.0	-192154.0	1414.0	-1232.0
11	18	29	14	395	2.0	-192958.0	1474.0	-3299.0
11	18	29	14	395	3.0	-193757.0	1494.0	-3215.0
11	18	29	14	396	4.0	-194657.0	1571.0	-1778.0
11	18	29	14	396	5.0	-195210.0	1623.0	2217.0
11	18	29	14	397	7.0	-194537.0	1679.0	9068.0
11	18	29	14	397	8.0	-194187.0	1701.0	12806.0
11	18	29	14	398	9.0	-193952.0	1730.0	15975.0
11	18	29	14	398	10.0	-194052.0	1768.0	19622.0
11	18	29	14	399	11.0	-194973.0	1833.0	24989.0
11	18	29	14	400	12.0	-196739.0	1873.0	28551.0
11	18	29	14	419	13.0	-199374.0	1937.0	30135.0
11	18	29	14	420	14.0	-202141.0	1979.0	35011.0
11	18	29	14	420	15.0	-204654.0	2010.0	40938.0
11	18	29	14	421	16.0	-206966.0	2067.0	43751.0
11	18	29	14	422	17.0	-209102.0	2111.0	45863.0
11	18	29	14	422	18.0	-210595.0	2119.0	45693.0
11	18	29	14	423	19.0	-211687.0	2142.0	44163.0
11	18	29	14	423	20.0	-212415.0	2164.0	42096.0
11	18	29	14	424	21.0	-212585.0	2211.0	42166.0
11	18	29	14	425	22.0	-212229.0	2268.0	42099.0
11	18	29	14	425	23.0	-211318.0	2308.0	40876.0
11	18	29	14	426	24.0	-209974.0	2351.0	38731.0
11	18	29	14	426	25.0	-208351.0	2389.0	35661.0
11	18	29	14	427	26.0	-206174.0	2423.0	32230.0
11	18	29	14	428	27.0	-204721.0	2448.0	28865.0
11	18	29	14	428	29.0	-202969.0	2483.0	21348.0
11	18	29	14	429	30.0	-202479.0	2497.0	17776.0
11	18	29	14	429	31.0	-200301.0	2564.0	15209.0
11	18	29	14	430	32.0	-192242.0	2593.0	12864.0
11	18	29	14	431	33.0	-179046.0	2640.0	10932.0
11	18	29	14	431	34.0	-168590.0	2678.0	9913.0
11	18	29	14	432	35.0	-164849.0	2713.0	9464.0
11	18	29	14	463	36.0	-166033.0	2756.0	9509.0
11	18	29	14	464	37.0	-168817.0	2781.0	9581.0
11	18	29	14	465	38.0	-172781.0	2787.0	8771.0
11	18	29	14	465	39.0	-179644.0	2802.0	7984.0
11	18	29	14	466	40.0	-189721.0	2840.0	6734.0
11	18	29	14	467	41.0	-201320.0	2883.0	6464.0
11	18	29	14	468	42.0	-212137.0	2923.0	6466.0
11	18	29	14	469	43.0	-220384.0	2964.0	6548.0
11	18	29	14	469	44.0	-224024.0	2996.0	6443.0
11	18	29	14	470	45.0	-222472.0	3025.0	6323.0
11	18	29	14	471	46.0	-216519.0	3061.0	6363.0
11	18	29	14	472	47.0	-208165.0	3055.0	6147.0
11	18	29	14	472	48.0	-200600.0	3068.0	5168.0
11	18	29	14	473	49.0	-195536.0	3082.0	4568.0
11	18	29	14	473	50.0	-192433.0	3098.0	3829.0
11	18	29	14	474	52.0	-189604.0	3197.0	3846.0
11	18	29	14	475	53.0	-188561.0	3228.0	3899.0
11	18	29	14	475	54.0	-187271.0	3256.0	3691.0
11	18	29	14	476	55.0	-185597.0	3271.0	3374.0
11	18	29	14	476	56.0	-184575.0	3305.0	4015.0
11	18	29	14	477	57.0	-185951.0	3316.0	4242.0
11	18	29	14	554	58.0	-189822.0	3302.0	3467.0
11	18	29	14	555	59.0	-194769.0	3306.0	2701.0
11	18	29	14	555	60.0	-199566.0	3355.0	2776.0
11	18	29	14	556	61.0	-203046.0	3401.0	2346.0
11	18	29	14	557	62.0	-203856.0	3438.0	2104.0
11	18	29	14	557	63.0	-202595.0	3445.0	2152.0
11	18	29	14	558	64.0	-199916.0	3463.0	1994.0
11	18	29	14	558	65.0	-196382.0	3499.0	2304.0
11	18	29	14	559	66.0	-193497.0	3554.0	2774.0
11	18	29	14	560	67.0	-192060.0	3549.0	2762.0
11	18	29	14	560	68.0	-191194.0	3536.0	1283.0
11	18	29	14	561	69.0	-191488.0	3529.0	749.0
11	18	29	14	561	70.0	-192832.0	3554.0	515.0
11	18	29	14	562	71.0	-194152.0	3584.0	178.0
11	18	29	14	563	72.0	-195429.0	3624.0	-300.0
11	18	29	14	563	74.0	-196784.0	3681.0	-271.0
11	18	29	14	564	97.0	-197861.0	3979.0	-9643.0
11	18	29	14	564	98.0	-198075.0	3966.0	-11141.0
11	18	29	14	565	99.0	-197749.0	3946.0	-12057.0
11	18	29	14	565	100.0	-197404.0	3953.0	-13062.0
11	18	29	14	566	101.0	-196522.0	4004.0	-13142.0
11	18	29	14	567	102.0	-195447.0	4029.0	-13583.0
11	18	29	14	599	103.0	-194876.0	4043.0	-13754.0
11	18	29	14	600	104.0	-194735.0	4051.0	-14046.0
11	18	29	14	601	105.0	-194970.0	4077.0	-14071.0
11	18	29	14	601	106.0	-195341.0	4080.0	-13930.0
11	18	29	14	602	107.0	-195985.0	4060.0	-14554.0
11	18	29	14	603	108.0	-196260.0	4046.0	-15128.0
11	18	29	14	603	109.0	-196398.0	4034.0	-16344.0
11	18	29	14	604	110.0	-196881.0	4045.0	-16829.0
11	18	29	14	604	111.0	-197724.0	4067.0	-16872.0
11	18	29	14	605	112.0	-198370.0	4096.0	-16611.0
11	18	29	14	606	113.0	-199241.0	4106.0	-16254.0
11	18	29	14	606	114.0	-200204.0	4118.0	-16154.0
11	18	29	14	607	115.0	-200536.0	4127.0	-15768.0
11	18	29	14	607	116.0	-200395.0	4138.0	-15223.0
11	18	29	14	608	117.0	-200427.0	4107.0	-14944.0
11	18	29	14	608	119.0	-199334.0	4069.0	-15237.0
11	18	29	14	609	120.0	-197639.0	4084.0	-15553.0
11	18	29	14	610	121.0	-195672.0	4133.0	-14755.0
11	18	29	14	610	122.0	-194215.0	4149.0	-14072.0
11	18	29	14	611	123.0	-192991.0	4157.0	-13169.0
11	18	29	14	611	124.0	-191674.0	4160.0	-11967.0
11	18	29	14	643	125.0	-190576.0	4174.0	-10816.0
11	18	29	14	644	126.0	-189590.0	4186.0	-9630.0
11	18	29	14	645	127.0	-188901.0	4158.0	-8741.0
11	18	29	14	645	128.0	-188727.0	4134.0	-8337.0
11	18	29	14	646	129.0	-188523.0	4129.0	-8302.0
11	18	29	14	647	130.0	-188585.0	4147.0	-7412.0
11	18	29	14	647	131.0	-188615.0	4170.0	-6166.0
11	18	29	14	648	132.0	-188768.0	4184.0	-5121.0
11	18	29	14	648	133.0	-189139.0	4178.0	-3623.0
11	18	29	14	649	134.0	-189363.0	4183.0	-2112.0
11	18	29	14	650	135.0	-189161.0	4184.0	-1027.0
11	18	29	14	650	136.0	-188889.0	4198.0	235.0
11	18	29	14	651	137.0	-189277.0	4179.0	1026.0
11	18	29	14	651	138.0	-189648.0	4156.0	1306.0
11	18	29	14	652	139.0	-189803.0	4137.0	1459.0
11	18	29	14	653	141.0	-190851.0	4168.0	3282.0
11	18	29	14	653	142.0	-191412.0	4180.0	3823.0
11	18	29	14	654	143.0	-192885.0	4191.0	4879.0
11	18	29	14	655	144.0	-195266.0	4206.0	5528.0
11	18	29	14	655	145.0	-197598.0	4211.0	6199.0
11	18	29	14	656	146.0	-199436.0	4218.0	7104.0
11	18	29	14	656	147.0	-200951.0	4196.0	7731.0
11	18	29	14	689	148.0	-202192.0	4164.0	7766.0
11	18	29	14	690	149.0	-203588.0	4154.0	8126.0
11	18	29	14	691	150.0	-204911.0	4174.0	8452.0
11	18	29	14	691	151.0	-205962.0	4217.0	8418.0
11	18	29	14	692	152.0	-207404.0	4239.0	8396.0
11	18	29	14	693	153.0	-208769.0	4239.0	9136.0
11	18	29	14	693	154.0	-209866.0	4223.0	9696.0
11	18	29	14	694	155.0	-210210.0	4230.0	9570.0
11	18	29	14	694	156.0	-210433.0	4253.0	10503.0
11	18	29	14	695	157.0	-210538.0	4219.0	10653.0
11	18	29	14	696	158.0	-210206.0	4203.0	10211.0
11	18	29	14	696	159.0	-209611.0	4212.0	9472.0
11	18	29	14	697	160.0	-209145.0	4229.0	9619.0
11	18	29	14	697	161.0	-208424.0	4248.0	10134.0
11	18	29	14	698	162.0	-207721.0	4267.0	10450.0
11	18	29	14	699	164.0	-207274.0	4311.0	11064.0
11	18	29	14	699	165.0	-206742.0	4323.0	11382.0
11	18	29	14	700	166.0	-206349.0	4315.0	11859.0
11	18	29	14	734	167.0	-206027.0	4313.0	11744.0
11	18	29	14	734	168.0	-205287.0	4303.0	11119.0
11	18	29	14	735	169.0	-204008.0	4308.0	10599.0
11	18	29	14	736	170.0	-202489.0	4355.0	10548.0
11	18	29	14	736	171.0	-199953.0	4371.0	10444.0
11	18	29	14	737	172.0	-194240.0	4391.0	10705.0
11	18	29	14	737	173.0	-182584.0	4418.0	10929.0
11	18	29	14	738	174.0	-170361.0	4428.0	11422.0
11	18	29	14	739	175.0	-165459.0	4469.0	11748.0
11	18	29	14	739	176.0	-170257.0	4474.0	11753.0
11	18	29	14	740	177.0	-182431.0	4452.0	10946.0
11	18	29	14	741	178.0	-195161.0	4452.0	10574.0
11	18	29	14	741	179.0	-204143.0	4455.0	10656.0
11	18	29	14	742	180.0	-207441.0	4489.0	10227.0
11	18	29	14	743	181.0	-205878.0	4521.0	10952.0
11	18	29	14	743	182.0	-203901.0	4525.0	11617.0
11	18	29	14	744	187.0	-194638.0	4592.0	11750.0
11	18	29	14	745	188.0	-188639.0	4573.0	11550.0
11	18	29	14	745	189.0	-182846.0	4596.0	10446.0
11	18	29	14	746	190.0	-177087.0	4635.0	9989.0
11	18	29	14	746	191.0	-172774.0	4676.0	10969.0
11	18	29	14	747	192.0	-172442.0	4713.0	11631.0
11	18	29	14	779	193.0	-175579.0	4719.0	11260.0
11	18	29	14	780	194.0	-180813.0	4729.0	10906.0
11	18	29	14	781	195.0	-187269.0	4756.0	11725.0
11	18	29	14	781	196.0	-193206.0	4763.0	12006.0
11	18	29	14	782	197.0	-197978.0	4750.0	11385.0
11	18	29	14	783	198.0	-200895.0	4718.0	10866.0
11	18	29	14	783	199.0	-201937.0	4735.0	10429.0
11	18	29	14	784	200.0	-202946.0	4790.0	10216.0
11	18	29	14	784	201.0	-205059.0	4809.0	10226.0
11	18	29	14	785	202.0	-207719.0	4825.0	10481.0
11	18	29	14	786	203.0	-209868.0	4857.0	10649.0
11	18	29	14	786	204.0	-211106.0	4873.0	10866.0
11	18	29	14	787	205.0	-210951.0	4893.0	11312.0
11	18	29	14	787	206.0	-209535.0	4869.0	11608.0
11	18	29	14	788	207.0	-207165.0	4852.0	10770.0
11	18	29	14	789	209.0	-201109.0	4861.0	10258.0
11	18	29	14	789	210.0	-198707.0	4887.0	10634.0
11	18	29	14	790	211.0	-196497.0	4926.0	10552.0
11	18	29	14	790	212.0	-194692.0	4933.0	10260.0
11	18	29	14	791	213.0	-193086.0	4950.0	10212.0
11	18	29	14	792	214.0	-192449.0	4983.0	10696.0
11	18	29	14	824	215.0	-192739.0	4988.0	10898.0
11	18	29	14	825	216.0	-193661.0	4978.0	11215.0
11	18	29	14	825	217.0	-194664.0	4971.0	10784.0
11	18	29	14	826	218.0	-195799.0	4965.0	10463.0
11	18	29	14	826	219.0	-197057.0	4955.0	9776.0
11	18	29	14	827	220.0	-199124.0	4990.0	9601.0
11	18	29	14	828	221.0	-201584.0	5019.0	9973.0
11	18	29	14	829	222.0	-203374.0	5010.0	10291.0
11	18	29	14	829	223.0	-204131.0	5026.0	10705.0
11	18	29	14	830	224.0	-204624.0	5047.0	10885.0
11	18	29	14	831	225.0	-204954.0	5043.0	11490.0
11	18	29	14	831	226.0	-204605.0	5035.0	11756.0
11	18	29	14	832	227.0	-204233.0	5017.0	11608.0
11	18	29	14	833	228.0	-204237.0	4991.0	10680.0
11	18	29	14	833	229.0	-204456.0	4986.0	10271.0
11	18	29	14	834	231.0	-204700.0	5038.0	10849.0
11	18	29	14	835	232.0	-204681.0	5041.0	10236.0
11	18	29	14	835	233.0	-204899.0	5044.0	10704.0
11	18	29	14	836	234.0	-205213.0	5036.0	11137.0
11	18	29	14	836	235.0	-204972.0	5056.0	11360.0
11	18	29	14	837	236.0	-204282.0	5026.0	11829.0
11	18	29	14	838	237.0	-203044.0	5012.0	11524.0
11	18	29	14	868	238.0	-201736.0	5004.0	10724.0
11	18	29	14	869	239.0	-200521.0	5006.0	9893.0
11	18	29	14	870	240.0	-199337.0	5011.0	10724.0
11	18	29	14	871	241.0	-198186.0	5026.0	10684.0
11	18	29	14	871	242.0	-197199.0	5040.0	10505.0
11	18	29	14	872	243.0	-196369.0	5044.0	10930.0
11	18	29	14	873	244.0	-195697.0	5021.0	11390.0
11	18	29	14	873	245.0	-195299.0	5054.0	11906.0
11	18	29	14	874	246.0	-195271.0	5040.0	11924.0
11	18	29	14	874	247.0	-195529.0	5003.0	11117.0
11	18	29	14	875	248.0	-195867.0	4968.0	11116.0
11	18	29	14	876	249.0	-196133.0	4979.0	11181.0
11	18	29	14	876	250.0	-196551.0	4994.0	11490.0
11	18	29	14	877	251.0	-197110.0	4994.0	11191.0
11	18	29	14	878	252.0	-198042.0	5015.0	11286.0
11	18	29	14	878	254.0	-200422.0	5013.0	11713.0
11	18	29	14	879	255.0	-201274.0	5018.0	12069.0
11	18	29	14	880	0.0	-200828.0	4995.0	12164.0
11	18	29	14	880	1.0	-200771.0	4968.0	11586.0
11	18	29	14	881	2.0	-200517.0	4945.0	11049.0
11	18	29	14	881	3.0	-200089.0	4959.0	10743.0
11	18	29	14	914	4.0	-199477.0	4969.0	11009.0
11	18	29	14	915	5.0	-199854.0	4983.0	11242.0
11	18	29	14	915	6.0	-200330.0	4994.0	11750.0
11	18	29	14	916	7.0	-199089.0	4995.0	11843.0
11	18	29	14	917	8.0	-197887.0	4986.0	12103.0
11	18	29	14	917	9.0	-197370.0	4971.0	12851.0
11	18	29	14	918	10.0	-196807.0	4938.0	12398.0
11	18	29	14	919	11.0	-196369.0	4914.0	11874.0
11	18	29	14	919	12.0	-196156.0	4895.0	11275.0
11	18	29	14	920	13.0	-196614.0	4920.0	10793.0
11	18	29	14	920	14.0	-196988.0	4928.0	11031.0
11	18	29	14	921	15.0	-197632.0	4939.0	11129.0
11	18	29	14	922	16.0	-198691.0	4926.0	11528.0
11	18	29	14	922	17.0	-199199.0	4919.0	12176.0
11	18	29	14	923	18.0	-199834.0	4921.0	12323.0
11	18	29	14	923	20.0	-201206.0	4893.0	12909.0
11	18	29	14	924	21.0	-201994.0	4857.0	12135.0
11	18	29	14	925	22.0	-201926.0	4845.0	11259.0
11	18	29	14	926	23.0	-202266.0	4856.0	11686.0
11	18	29	14	927	24.0	-202019.0	4871.0	11421.0
11	18	29	14	927	25.0	-202019.0	4882.0	11156.0
11	18	29	14	928	26.0	-201986.0	4879.0	11639.0
11	18	29	14	958	27.0	-201354.0	4888.0	12228.0
11	18	29	15	4	28.0	-202025.0	4891.0	12513.0
11	18	29	15	50	29.0	-202168.0	4896.0	12901.0
11	18	29	15	51	30.0	-202341.0	4863.0	13025.0
11	18	29	15	51	31.0	-202414.0	4836.0	12629.0
11	18	29	15	52	32.0	-201824.0	4826.0	12160.0
11	18	29	15	53	33.0	-200494.0	4829.0	11709.0
11	18	29	15	53	34.0	-197875.0	4839.0	11521.0
11	18	29	15	54	35.0	-195826.0	4851.0	11409.0
11	18	29	15	55	36.0	-194106.0	4847.0	11768.0
11	18	29	15	56	37.0	-192096.0	4848.0	11862.0
11	18	29	15	56	38.0	-190570.0	4863.0	12126.0
11	18	29	15	57	39.0	-189153.0	4863.0	12516.0
11	18	29	15	58	40.0	-188527.0	4839.0	12854.0
11	18	29	15	58	41.0	-187692.0	4816.0	11991.0
11	18	29	15	59	43.0	-188096.0	4796.0	11317.0
11	18	29	15	60	65.0	-197300.0	4729.0	12383.0
11	18	29	15	60	88.0	-199655.0	4513.0	10641.0
11	18	29	15	61	89.0	-199670.0	4488.0	10823.0
11	18	29	15	61	90.0	-200067.0	4467.0	10082.0
11	18	29	15	62	91.0	-199872.0	4441.0	9473.0
11	18	29	15	62	92.0	-199594.0	4419.0	9448.0
11	18	29	15	63	93.0	-199399.0	4412.0	9484.0
11	18	29	15	94	94.0	-198891.0	4419.0	9454.0
11	18	29	15	95	95.0	-198901.0	4420.0	9415.0
11	18	29	15	96	96.0	-198557.0	4405.0	9821.0
11	18	29	15	96	97.0	-198442.0	4398.0	9608.0
11	18	29	15	97	98.0	-198556.0	4406.0	9373.0
11	18	29	15	98	99.0	-198164.0	4373.0	9468.0
11	18	29	15	98	100.0	-198077.0	4317.0	9358.0
11	18	29	15	99	101.0	-197706.0	4289.0	9078.0
11	18	29	15	100	102.0	-197912.0	4261.0	8207.0
11	18	29	15	100	103.0	-198122.0	4259.0	9297.0
11	18	29	15	101	104.0	-197957.0	4277.0	9767.0
11	18	29	15	102	105.0	-198539.0	4259.0	9893.0
11	18	29	15	102	106.0	-198582.0	4249.0	9863.0
11	18	29	15	103	107.0	-198701.0	4237.0	10403.0
11	18	29	15	103	108.0	-198599.0	4239.0	10616.0
11	18	29	15	104	110.0	-198207.0	4146.0	11534.0
11	18	29	15	105	111.0	-197872.0	4118.0	11085.0
11	18	29	15	105	112.0	-197664.0	4118.0	10306.0
11	18	29	15	106	113.0	-197316.0	4131.0	10076.0
11	18	29	15	106	114.0	-197534.0	4108.0	10350.0
11	18	29	15	107	115.0	-198714.0	4104.0	10686.0
11	18	29	15	108	116.0	-199560.0	4096.0	11460.0
11	18	29	15	138	117.0	-200792.0	4091.0	11987.0
11	18	29	15	139	118.0	-201983.0	4096.0	12520.0
11	18	29	15	140	119.0	-202203.0	4055.0	12638.0
11	18	29	15	140	120.0	-202723.0	4021.0	12638.0
11	18	29	15	141	121.0	-202021.0	3991.0	12320.0
11	18	29	15	141	122.0	-201124.0	3970.0	11558.0
11	18	29	15	142	123.0	-200507.0	3982.0	12048.0
11	18	29	15	143	124.0	-200065.0	3981.0	12223.0
11	18	29	15	143	125.0	-199771.0	3963.0	12422.0
11	18	29	15	184	126.0	-198647.0	3962.0	12641.0
11	18	29	15	185	127.0	-197847.0	3943.0	12606.0
11	18	29	15	185	128.0	-197446.0	3948.0	13125.0
11	18	29	15	186	129.0	-197336.0	3913.0	13435.0
11	18	29	15	187	130.0	-197559.0	3873.0	13185.0
11	18	29	15	188	131.0	-196573.0	3858.0	12397.0
11	18	29	15	188	133.0	-194974.0	3851.0	11401.0
11	18	29	15	189	134.0	-194270.0	3849.0	11493.0
11	18	29	15	189	135.0	-193989.0	3836.0	12298.0
11	18	29	15	190	136.0	-193962.0	3824.0	12229.0
11	18	29	15	191	137.0	-193924.0	3816.0	12263.0
11	18	29	15	191	138.0	-194348.0	3803.0	12910.0
11	18	29	15	192	139.0	-194783.0	3771.0	13239.0
11	18	29	15	192	140.0	-194931.0	3731.0	12415.0
11	18	29	15	193	141.0	-195095.0	3721.0	11783.0
11	18	29	15	193	142.0	-194332.0	3714.0	11332.0
11	18	29	15	194	155.0	-194262.0	3554.0	10393.0
11	18	29	15	194	156.0	-193331.0	3551.0	13746.0
11	18	29	15	195	157.0	-192810.0	3540.0	17622.0
11	18	29	15	195	158.0	-192754.0	3541.0	22349.0
11	18	29	15	196	159.0	-193954.0	3505.0	28132.0
11	18	29	15	197	160.0	-194722.0	3464.0	30675.0
11	18	29	15	197	161.0	-196544.0	3424.0	31319.0
11	18	29	15	230	162.0	-199032.0	3421.0	37059.0
11	18	29	15	230	163.0	-201751.0	3438.0	42869.0
11	18	29	15	231	164.0	-204411.0	3446.0	46108.0
11	18	29	15	231	165.0	-206726.0	3423.0	47844.0
11	18	29	15	232	166.0	-208673.0	3413.0	47109.0
11	18	29	15	232	167.0	-209744.0	3414.0	45585.0
11	18	29	15	233	168.0	-210549.0	3414.0	45403.0
11	18	29	15	234	169.0	-210950.0	3371.0	45065.0
11	18	29	15	234	170.0	-210573.0	3328.0	43538.0
11	18	29	15	235	171.0	-210349.0	3306.0	41248.0
11	18	29	15	236	172.0	-209157.0	3298.0	37685.0
11	18	29	15	236	173.0	-207735.0	3294.0	34162.0
11	18	29	15	237	174.0	-206897.0	3301.0	29848.0
11	18	29	15	237	175.0	-205924.0	3301.0	25918.0
11	18	29	15	238	176.0	-205459.0	3294.0	22749.0
11	18	29	15	239	178.0	-206707.0	3291.0	16769.0
11	18	29	15	239	179.0	-201984.0	3258.0	13951.0
11	18	29	15	240	180.0	-188254.0	3221.0	11698.0
11	18	29	15	240	181.0	-172856.0	3191.0	9894.0
11	18	29	15	241	182.0	-163346.0	3194.0	8363.0
11	18	29	15	241	183.0	-161043.0	3203.0	8843.0
11	18	29	15	274	184.0	-164703.0	3201.0	9038.0
11	18	29	15	274	185.0	-169621.0	3201.0	8548.0
11	18	29	15	275	186.0	-174875.0	3208.0	7956.0
11	18	29	15	276	187.0	-183622.0	3189.0	8085.0
11	18	29	15	276	188.0	-195624.0	3191.0	8340.0
11	18	29	15	277	189.0	-209653.0	3172.0	7846.0
11	18	29	15	277	190.0	-221503.0	3129.0	6764.0
11	18	29	15	278	191.0	-227222.0	3099.0	5643.0
11	18	29	15	279	192.0	-228222.0	3083.0	5218.0
11	18	29	15	279	193.0	-226054.0	3088.0	5283.0
11	18	29	15	280	194.0	-219374.0	3107.0	5198.0
11	18	29	15	281	195.0	-210015.0	3099.0	4953.0
11	18	29	15	282	196.0	-199471.0	3087.0	5086.0
11	18	29	15	283	197.0	-189927.0	3071.0	5667.0
11	18	29	15	283	198.0	-184277.0	3066.0	5859.0
11	18	29	15	284	200.0	-185405.0	2993.0	4205.0
11	18	29	15	284	201.0	-186402.0	2975.0	3914.0
11	18	29	15	285	202.0	-185193.0	2976.0	2965.0
11	18	29	15	285	203.0	-183092.0	3001.0	2688.0
11	18	29	15	286	204.0	-182502.0	2989.0	2956.0
11	18	29	15	287	205.0	-183781.0	2972.0	3013.0
11	18	29	15	318	206.0	-186489.0	2973.0	3064.0
11	18	29	15	319	207.0	-191733.0	2989.0	3526.0
11	18	29	15	320	208.0	-198995.0	2980.0	3844.0
11	18	29	15	320	209.0	-204775.0	2932.0	3315.0
11	18	29	15	321	210.0	-207747.0	2898.0	2516.0
11	18	29	15	322	211.0	-207341.0	2865.0	1954.0
11	18	29	15	322	212.0	-204521.0	2888.0	1438.0
11	18	29	15	323	213.0	-200425.0	2887.0	1284.0
11	18	29	15	323	214.0	-196585.0	2884.0	1502.0
11	18	29	15	324	215.0	-193820.0	2893.0	963.0
11	18	29	15	325	216.0	-192558.0	2884.0	850.0
11	18	29	15	325	217.0	-191586.0	2869.0	958.0
11	18	29	15	326	218.0	-190273.0	2866.0	1516.0
11	18	29	15	326	219.0	-189501.0	2813.0	1124.0
11	18	29	15	327	220.0	-189174.0	2798.0	276.0
11	18	29	15	328	222.0	-189210.0	2791.0	-1367.0
11	18	29	15	328	223.0	-189413.0	2791.0	-1362.0
11	18	29	15	329	224.0	-188882.0	2782.0	-2280.0
11	18	29	15	329	225.0	-188646.0	2792.0	-2521.0
11	18	29	15	330	226.0	-189501.0	2788.0	-2066.0
11	18	29	15	331	227.0	-191001.0	2798.0	-1797.0
11	18	29	15	331	228.0	-191851.0	2770.0	-1567.0
11	18	29	15	379	229.0	-192751.0	2722.0	-2085.0
11	18	29	15	398	230.0	-193908.0	2704.0	-3120.0
11	18	29	15	399	231.0	-194686.0	2686.0	-3889.0
11	18	29	15	400	232.0	-195689.0	2679.0	-4380.0
11	18	29	15	400	233.0	-197181.0	2679.0	-4931.0
11	18	29	15	401	234.0	-198507.0	2694.0	-5976.0
11	18	29	15	402	235.0	-199509.0	2688.0	-6212.0
11	18	29	15	402	236.0	-200293.0	2656.0	-5940.0
11	18	29	15	403	237.0	-200964.0	2651.0	-6434.0
11	18	29	15	403	238.0	-201124.0	2632.0	-6371.0
11	18	29	15	404	239.0	-201577.0	2588.0	-7107.0
11	18	29	15	405	240.0	-201856.0	2542.0	-7656.0
11	18	29	15	405	241.0	-201667.0	2521.0	-8929.0
11	18	29	15	406	242.0	-201147.0	2535.0	-9319.0
11	18	29	15	406	243.0	-201075.0	2551.0	-10157.0
11	18	29	15	407	252.0	-200793.0	2378.0	-15276.0
11	18	29	15	407	4.0	-197050.0	2255.0	-17297.0
11	18	29	15	408	5.0	-197712.0	2244.0	-17177.0
11	18	29	15	409	6.0	-197531.0	2254.0	-17461.0
11	18	29	15	409	7.0	-197101.0	2250.0	-17570.0
11	18	29	15	410	8.0	-196564.0	2242.0	-17431.0
11	18	29	15	410	9.0	-196291.0	2248.0	-16767.0
11	18	29	15	411	10.0	-195904.0	2242.0	-16314.0
11	18	29	15	412	11.0	-195835.0	2226.0	-15654.0
11	18	29	15	412	12.0	-195580.0	2195.0	-14749.0
11	18	29	15	424	13.0	-195160.0	2168.0	-14808.0
11	18	29	15	425	14.0	-194842.0	2164.0	-14641.0
11	18	29	15	425	15.0	-194756.0	2137.0	-14331.0
11	18	29	15	426	16.0	-194406.0	2141.0	-13317.0
11	18	29	15	427	17.0	-193824.0	2136.0	-12178.0
11	18	29	15	427	18.0	-192757.0	2133.0	-10874.0
11	18	29	15	428	19.0	-191431.0	2139.0	-9503.0
11	18	29	15	428	20.0	-190117.0	2141.0	-8058.0
11	18	29	15	447	21.0	-188974.0	2135.0	-6451.0
11	18	29	15	448	22.0	-187773.0	2116.0	-5246.0
11	18	29	15	448	23.0	-187223.0	2076.0	-5095.0
11	18	29	15	449	24.0	-187606.0	2052.0	-4929.0
11	18	29	15	450	25.0	-188229.0	2026.0	-3950.0
11	18	29	15	450	26.0	-188516.0	2046.0	-3512.0
11	18	29	15	470	27.0	-189166.0	2037.0	-2386.0
11	18	29	15	470	28.0	-190370.0	2035.0	-847.0
11	18	29	15	471	29.0	-191464.0	2023.0	483.0
11	18	29	15	471	30.0	-191849.0	2011.0	1338.0
11	18	29	15	472	31.0	-192254.0	2029.0	2593.0
11	18	29	15	472	32.0	-192931.0	1998.0	3907.0
11	18	29	15	473	33.0	-193179.0	1963.0	4376.0
11	18	29	15	474	34.0	-192927.0	1943.0	4434.0
11	18	29	15	474	35.0	-193288.0	1913.0	4368.0
11	18	29	15	475	36.0	-193733.0	1916.0	5196.0
11	18	29	15	475	37.0	-193607.0	1924.0	5787.0
11	18	29	15	476	38.0	-194134.0	1932.0	6496.0
11	18	29	15	476	39.0	-195384.0	1919.0	6801.0
11	18	29	15	477	40.0	-196338.0	1906.0	7319.0
11	18	29	15	477	41.0	-197461.0	1914.0	8033.0
11	18	29	15	478	42.0	-199851.0	1886.0	8730.0
11	18	29	15	491	43.0	-202104.0	1862.0	8905.0
11	18	29	15	492	44.0	-203621.0	1840.0	8721.0
11	18	29	15	492	45.0	-205034.0	1828.0	8386.0
11	18	29	15	493	46.0	-206414.0	1844.0	8483.0
11	18	29	15	494	47.0	-207389.0	1840.0	9052.0
11	18	29	15	494	48.0	-207796.0	1846.0	9309.0
11	18	29	15	495	49.0	-207793.0	1833.0	9988.0
11	18	29	15	495	50.0	-207461.0	1839.0	10636.0
11	18	29	15	515	51.0	-207168.0	1844.0	10801.0
11	18	29	15	516	52.0	-206684.0	1822.0	10711.0
11	18	29	15	517	53.0	-206412.0	1788.0	10447.0
11	18	29	15	517	54.0	-206261.0	1773.0	10269.0
11	18	29	15	518	55.0	-205932.0	1788.0	9766.0
11	18	29	15	518	56.0	-205842.0	1796.0	9557.0
11	18	29	15	519	57.0	-206663.0	1804.0	9824.0
11	18	29	15	519	58.0	-207514.0	1813.0	10151.0
11	18	29	15	520	59.0	-207754.0	1838.0	10495.0
11	18	29	15	520	60.0	-207604.0	1840.0	10962.0
11	18	29	15	521	61.0	-206352.0	1839.0	11550.0
11	18	29	15	522	62.0	-204118.0	1811.0	11623.0
11	18	29	15	522	63.0	-201185.0	1784.0	11696.0
11	18	29	15	523	64.0	-195834.0	1763.0	10963.0
11	18	29	15	523	65.0	-185632.0	1774.0	9829.0
11	18	29	15	537	66.0	-173977.0	1814.0	10877.0
11	18	29	15	537	67.0	-168998.0	1814.0	11266.0
11	18	29	15	538	68.0	-173652.0	1811.0	11033.0
11	18	29	15	539	69.0	-185126.0	1816.0	10753.0
11	18	29	15	539	70.0	-196877.0	1822.0	11089.0
11	18	29	15	540	71.0	-204654.0	1837.0	11852.0
11	18	29	15	540	72.0	-206354.0	1817.0	12031.0
11	18	29	15	560	73.0	-202418.0	1786.0	10843.0
11	18	29	15	561	74.0	-198414.0	1761.0	11196.0
11	18	29	15	561	75.0	-197689.0	1770.0	10709.0
11	18	29	15	562	76.0	-197826.0	1791.0	11096.0
11	18	29	15	563	77.0	-196091.0	1806.0	11089.0
11	18	29	15	563	78.0	-191878.0	1811.0	11014.0
11	18	29	15	564	79.0	-185379.0	1811.0	11066.0
11	18	29	15	564	80.0	-178814.0	1811.0	11416.0
11	18	29	15	565	81.0	-174729.0	1825.0	11820.0
11	18	29	15	565	82.0	-173001.0	1799.0	11831.0
11	18	29	15	566	83.0	-174619.0	1785.0	11226.0
11	18	29	15	566	84.0	-179618.0	1771.0	10503.0
11	18	29	15	567	85.0	-186612.0	1754.0	9586.0
11	18	29	15	568	86.0	-193724.0	1769.0	10059.0
11	18	29	15	568	87.0	-199300.0	1771.0	9974.0
11	18	29	15	583	88.0	-202618.0	1779.0	10313.0
11	18	29	15	584	89.0	-204384.0	1800.0	10469.0
11	18	29	15	584	90.0	-205086.0	1797.0	10329.0
11	18	29	15	585	91.0	-204468.0	1800.0	10679.0
11	18	29	15	585	92.0	-203345.0	1777.0	10699.0
11	18	29	15	586	93.0	-202460.0	1731.0	10436.0
11	18	29	15	587	94.0	-201856.0	1705.0	10337.0
11	18	29	15	587	95.0	-201556.0	1709.0	9731.0
11	18	29	15	588	96.0	-200989.0	1719.0	10030.0
11	18	29	15	589	97.0	-200005.0	1732.0	10134.0
11	18	29	15	589	98.0	-198902.0	1739.0	10291.0
11	18	29	15	590	99.0	-198171.0	1734.0	10119.0
11	18	29	15	590	100.0	-197683.0	1736.0	10338.0
11	18	29	15	591	101.0	-197464.0	1759.0	10744.0
11	18	29	15	591	102.0	-197997.0	1721.0	10856.0
11	18	29	15	606	103.0	-199131.0	1689.0	9604.0
11	18	29	15	606	104.0	-200451.0	1647.0	9053.0
11	18	29	15	607	105.0	-201889.0	1669.0	8936.0
11	18	29	15	607	106.0	-202646.0	1673.0	9566.0
11	18	29	15	608	107.0	-202689.0	1661.0	9510.0
11	18	29	15	609	108.0	-202233.0	1671.0	9862.0
11	18	29	15	609	109.0	-201464.0	1674.0	10185.0
11	18	29	15	610	110.0	-200632.0	1668.0	10224.0
11	18	29	15	630	111.0	-199304.0	1668.0	10841.0
11	18	29	15	630	112.0	-198380.0	1624.0	10504.0
11	18	29	15	631	113.0	-197842.0	1596.0	10054.0
11	18	29	15	632	114.0	-197117.0	1566.0	8964.0
11	18	29	15	632	115.0	-197082.0	1559.0	8963.0
11	18	29	15	633	116.0	-197527.0	1571.0	9221.0
11	18	29	15	633	117.0	-197931.0	1588.0	9325.0
11	18	29	15	634	118.0	-198536.0	1581.0	9288.0
11	18	29	15	635	119.0	-200072.0	1585.0	9553.0
11	18	29	15	635	120.0	-201521.0	1581.0	10239.0
11	18	29	15	636	121.0	-202179.0	1573.0	10325.0
11	18	29	15	636	122.0	-202796.0	1533.0	10546.0
11	18	29	15	637	123.0	-203041.0	1501.0	9661.0
11	18	29	15	653	124.0	-202666.0	1460.0	9034.0
11	18	29	15	653	125.0	-202067.0	1456.0	9042.0
11	18	29	15	654	126.0	-202566.0	1458.0	8799.0
11	18	29	15	654	127.0	-202991.0	1473.0	8684.0
11	18	29	15	655	128.0	-203075.0	1474.0	9173.0
11	18	29	15	656	129.0	-203154.0	1464.0	9511.0
11	18	29	15	656	130.0	-203265.0	1444.0	9916.0
11	18	29	15	657	131.0	-202777.0	1442.0	10343.0
11	18	29	15	657	132.0	-201727.0	1396.0	9929.0
11	18	29	15	658	133.0	-201015.0	1358.0	9057.0
11	18	29	15	676	134.0	-200159.0	1338.0	8594.0
11	18	29	15	677	135.0	-198829.0	1358.0	8304.0
11	18	29	15	677	136.0	-198098.0	1371.0	8468.0
11	18	29	15	678	137.0	-198396.0	1353.0	8596.0
11	18	29	15	679	138.0	-199022.0	1334.0	9055.0
11	18	29	15	679	139.0	-199722.0	1324.0	9256.0
11	18	29	15	680	140.0	-200687.0	1336.0	9663.0
11	18	29	15	680	141.0	-201641.0	1321.0	10106.0
11	18	29	15	681	142.0	-202631.0	1273.0	9752.0
11	18	29	15	682	143.0	-203812.0	1252.0	9160.0
11	18	29	15	682	144.0	-204589.0	1219.0	8612.0
11	18	29	15	683	145.0	-204723.0	1208.0	8729.0
11	18	29	15	683	146.0	-204354.0	1204.0	8799.0
11	18	29	15	684	147.0	-203344.0	1221.0	8794.0
11	18	29	15	700	148.0	-201997.0	1224.0	8986.0
11	18	29	15	701	149.0	-200251.0	1216.0	9238.0
11	18	29	15	701	150.0	-198293.0	1221.0	9566.0
11	18	29	15	702	151.0	-196504.0	1210.0	10237.0
11	18	29	15	702	152.0	-194640.0	1163.0	9983.0
11	18	29	15	703	153.0	-192925.0	1118.0	9143.0
11	18	29	15	703	154.0	-191399.0	1078.0	9478.0
11	18	29	15	704	155.0	-190332.0	1107.0	9325.0
11	18	29	15	724	156.0	-189567.0	1118.0	9145.0
11	18	29	15	724	157.0	-189244.0	1096.0	9294.0
11	18	29	15	725	158.0	-189121.0	1096.0	9320.0
11	18	29	15	725	159.0	-189277.0	1095.0	9584.0
11	18	29	15	726	160.0	-189699.0	1089.0	10044.0
11	18	29	15	727	161.0	-191467.0	1066.0	10725.0
11	18	29	15	727	162.0	-193492.0	1030.0	10679.0
11	18	29	15	728	163.0	-195324.0	999.0	10218.0
11	18	29	15	728	164.0	-196861.0	995.0	9559.0
11	18	29	15	729	165.0	-198519.0	1002.0	9293.0
11	18	29	15	729	166.0	-199784.0	1013.0	9376.0
11	18	29	15	730	167.0	-200749.0	1014.0	9662.0
11	18	29	15	731	168.0	-201356.0	1004.0	9891.0
11	18	29	15	731	169.0	-202034.0	998.0	10101.0
11	18	29	15	732	170.0	-202802.0	984.0	10259.0
11	18	29	15	746	171.0	-203230.0	990.0	10715.0
11	18	29	15	747	172.0	-203084.0	954.0	10139.0
11	18	29	15	748	173.0	-203207.0	908.0	9704.0
11	18	29	15	748	174.0	-203597.0	888.0	8603.0
11	18	29	15	749	175.0	-204096.0	915.0	8747.0
11	18	29	15	749	176.0	-204096.0	903.0	8929.0
11	18	29	15	750	177.0	-203370.0	917.0	9051.0
11	18	29	15	769	178.0	-202134.0	909.0	9076.0
11	18	29	15	770	179.0	-201241.0	903.0	9287.0
11	18	29	15	770	180.0	-201144.0	906.0	9768.0
11	18	29	15	771	181.0	-201341.0	892.0	9484.0
11	18	29	15	771	182.0	-201559.0	849.0	8819.0
11	18	29	15	772	183.0	-201753.0	814.0	8744.0
11	18	29	15	773	184.0	-201629.0	804.0	8802.0
11	18	29	15	773	185.0	-201648.0	821.0	8307.0
11	18	29	15	774	186.0	-201594.0	831.0	8259.0
11	18	29	15	774	187.0	-201341.0	825.0	8623.0
11	18	29	15	775	188.0	-200506.0	840.0	8993.0
11	18	29	15	776	189.0	-199414.0	838.0	9535.0
11	18	29	15	776	190.0	-197858.0	838.0	9348.0
11	18	29	15	777	191.0	-195735.0	814.0	9244.0
11	18	29	15	777	192.0	-193591.0	761.0	9090.0
11	18	29	15	792	193.0	-191961.0	752.0	9270.0
11	18	29	15	792	194.0	-190937.0	757.0	8111.0
11	18	29	15	793	195.0	-189933.0	766.0	8181.0
11	18	29	15	794	196.0	-188811.0	782.0	8482.0
11	18	29	15	794	197.0	-188096.0	785.0	8631.0
11	18	29	15	795	198.0	-187829.0	771.0	8723.0
11	18	29	15	795	199.0	-187819.0	768.0	9269.0
11	18	29	15	796	200.0	-188302.0	783.0	10121.0
11	18	29	15	816	201.0	-189091.0	766.0	10196.0
11	18	29	15	817	202.0	-190115.0	730.0	9558.0
11	18	29	15	817	203.0	-191149.0	712.0	9434.0
11	18	29	15	818	204.0	-192424.0	714.0	8580.0
11	18	29	15	818	205.0	-193687.0	719.0	8089.0
11	18	29	15	819	206.0	-195191.0	722.0	8300.0
11	18	29	15	820	207.0	-196000.0	730.0	8781.0
11	18	29	15	820	208.0	-196269.0	724.0	8915.0
11	18	29	15	821	209.0	-196625.0	731.0	8944.0
11	18	29	15	821	210.0	-196474.0	735.0	9469.0
11	18	29	15	822	211.0	-196072.0	720.0	9378.0
11	18	29	15	822	212.0	-196130.0	684.0	9201.0
11	18	29	15	823	213.0	-196630.0	649.0	8677.0
11	18	29	15	824	214.0	-197056.0	641.0	7822.0
11	18	29	15	839	215.0	-197107.0	643.0	8068.0
11	18	29	15	840	216.0	-197347.0	662.0	7929.0
11	18	29	15	840	217.0	-197927.0	671.0	7890.0
11	18	29	15	841	218.0	-198278.0	668.0	8244.0
11	18	29	15	842	219.0	-198151.0	648.0	8468.0
11	18	29	15	843	220.0	-198624.0	651.0	8759.0
11	18	29	15	843	221.0	-199652.0	619.0	8807.0
11	18	29	15	844	222.0	-200505.0	566.0	8726.0
11	18	29	15	844	223.0	-201417.0	553.0	8202.0
11	18	29	15	845	224.0	-201969.0	563.0	7606.0
11	18	29	15	846	225.0	-202456.0	571.0	7671.0
11	18	29	15	846	226.0	-202901.0	581.0	7648.0
11	18	29	15	847	227.0	-203330.0	579.0	7878.0
11	18	29	15	847	228.0	-203649.0	568.0	8101.0
11	18	29	15	848	229.0	-203465.0	580.0	7946.0
11	18	29	15	868	230.0	-202839.0	565.0	8623.0
11	18	29	15	870	231.0	-202220.0	543.0	9318.0
11	18	29	15	871	232.0	-201784.0	523.0	8175.0
11	18	29	15	871	233.0	-201525.0	494.0	7554.0
11	18	29	15	872	234.0	-200884.0	468.0	7319.0
11	18	29	15	872	235.0	-200219.0	497.0	6898.0
11	18	29	15	873	236.0	-199654.0	507.0	6531.0
11	18	29	15	874	237.0	-198896.0	515.0	6628.0
11	18	29	15	874	238.0	-197387.0	528.0	6440.0
11	18	29	15	875	239.0	-196125.0	505.0	6088.0
11	18	29	15	875	240.0	-195851.0	514.0	6453.0
11	18	29	15	876	241.0	-195896.0	473.0	6835.0
11	18	29	15	876	242.0	-195956.0	431.0	6706.0
11	18	29	15	877	243.0	-196016.0	404.0	5589.0
11	18	29	15	878	244.0	-196206.0	406.0	4858.0
11	18	29	15	889	245.0	-196093.0	432.0	5184.0
11	18	29	15	889	246.0	-195672.0	434.0	5165.0
11	18	29	15	890	247.0	-195631.0	424.0	5373.0
11	18	29	15	890	248.0	-196301.0	417.0	5455.0
11	18	29	15	891	249.0	-196560.0	408.0	5176.0
11	18	29	15	891	250.0	-196515.0	407.0	5240.0
11	18	29	15	892	251.0	-197052.0	365.0	5593.0
11	18	29	15	893	252.0	-198328.0	335.0	4642.0
11	18	29	15	911	253.0	-199292.0	315.0	4059.0
11	18	29	15	912	254.0	-199516.0	296.0	4072.0
11	18	29	15	912	255.0	-200265.0	334.0	4528.0
11	18	29	15	913	0.0	-200761.0	336.0	4649.0
11	18	29	15	913	1.0	-200495.0	316.0	4823.0
11	18	29	15	914	2.0	-200343.0	313.0	4996.0
11	18	29	15	915	3.0	-200753.0	321.0	5364.0
11	18	29	15	935	4.0	-201084.0	323.0	6409.0
11	18	29	15	936	5.0	-200967.0	291.0	7119.0
11	18	29	15	936	6.0	-200797.0	239.0	6736.0
11	18	29	15	937	7.0	-200516.0	231.0	6271.0
11	18	29	15	937	8.0	-200454.0	239.0	5777.0
11	18	29	15	938	9.0	-200595.0	226.0	5761.0
11	18	29	15	938	10.0	-201141.0	223.0	6339.0
11	18	29	15	939	11.0	-201869.0	222.0	6841.0
11	18	29	15	939	12.0	-202516.0	228.0	7159.0
11	18	29	15	940	13.0	-203364.0	224.0	7136.0
11	18	29	15	940	14.0	-203661.0	215.0	7538.0
11	18	29	15	941	15.0	-203742.0	184.0	7696.0
11	18	29	15	942	16.0	-203927.0	147.0	7393.0
11	18	29	15	942	17.0	-204109.0	125.0	6619.0
11	18	29	15	943	18.0	-204601.0	121.0	6323.0
11	18	29	15	958	19.0	-205504.0	126.0	7104.0
11	18	29	15	959	20.0	-206234.0	138.0	7870.0
11	18	29	15	959	21.0	-205948.0	146.0	7750.0
11	18	29	15	960	22.0	-205306.0	146.0	7384.0
11	18	29	15	961	23.0	-204319.0	149.0	7483.0
11	18	29	15	961	24.0	-202742.0	145.0	8166.0
11	18	29	15	962	25.0	-200654.0	97.0	7944.0
11	18	29	15	962	26.0	-198181.0	48.0	7314.0
11	18	29	15	963	27.0	-196148.0	49.0	7378.0
11	18	29	15	964	28.0	-194099.0	63.0	6882.0
11	18	29	15	964	29.0	-192216.0	76.0	6973.0
11	18	29	15	965	30.0	-190848.0	65.0	7288.0
11	18	29	15	965	31.0	-189492.0	48.0	7628.0
11	18	29	15	966	32.0	-188108.0	63.0	7934.0
11	18	29	15	966	33.0	-187298.0	51.0	8094.0
11	18	29	15	982	34.0	-186694.0	41.0	8451.0
11	18	29	15	983	35.0	-186415.0	17.0	8216.0
11	18	29	15	983	36.0	-186517.0	-4.0	7839.0
11	18	29	15	984	37.0	-186776.0	-39.0	6969.0
11	18	29	15	984	38.0	-187496.0	-37.0	6383.0
11	18	29	15	985	39.0	-188321.0	-33.0	5184.0
11	18	29	15	985	40.0	-189419.0	-47.0	4367.0
11	18	29	15	986	41.0	-190045.0	-37.0	3281.0
11	18	29	16	5	42.0	-190431.0	-39.0	2309.0
11	18	29	16	6	43.0	-190947.0	-24.0	738.0
11	18	29	16	6	44.0	-191662.0	-32.0	-2185.0
11	18	29	16	7	45.0	-192139.0	-87.0	-5636.0
11	18	29	16	7	46.0	-192997.0	-116.0	-7982.0
11	18	29	16	8	47.0	-193956.0	-130.0	-8663.0
11	18	29	16	9	48.0	-194532.0	-116.0	-7186.0
11	18	29	16	31	49.0	-194303.0	-103.0	-2248.0
11	18	29	16	31	50.0	-193923.0	-102.0	1775.0
11	18	29	16	32	51.0	-194088.0	-94.0	5026.0
11	18	29	16	32	52.0	-194346.0	-106.0	8726.0
11	18	29	16	33	53.0	-194819.0	-111.0	13092.0
11	18	29	16	34	54.0	-195437.0	-123.0	18343.0
11	18	29	16	34	55.0	-196621.0	-164.0	22511.0
11	18	29	16	35	56.0	-198872.0	-178.0	23772.0
11	18	29	16	35	57.0	-201643.0	-184.0	25396.0
11	18	29	16	36	58.0	-204599.0	-183.0	30896.0
11	18	29	16	36	59.0	-207353.0	-168.0	35763.0
11	18	29	16	37	60.0	-209476.0	-170.0	37609.0
11	18	29	16	38	61.0	-210889.0	-170.0	38449.0
11	18	29	16	38	62.0	-211932.0	-175.0	37589.0
11	18	29	16	39	63.0	-212405.0	-202.0	37278.0
11	18	29	16	39	64.0	-212164.0	-196.0	37077.0
11	18	29	16	40	65.0	-211279.0	-236.0	36815.0
11	18	29	16	40	66.0	-210187.0	-268.0	36047.0
11	18	29	16	41	67.0	-208905.0	-278.0	34194.0
11	18	29	16	41	68.0	-207555.0	-252.0	31958.0
11	18	29	16	42	69.0	-206421.0	-246.0	28901.0
11	18	29	16	53	70.0	-206148.0	-228.0	24921.0
11	18	29	16	54	71.0	-206279.0	-234.0	20799.0
11	18	29	16	55	72.0	-206541.0	-234.0	18029.0
11	18	29	16	55	73.0	-207056.0	-240.0	15953.0
11	18	29	16	56	74.0	-207293.0	-267.0	13486.0
11	18	29	16	57	75.0	-203565.0	-281.0	10451.0
11	18	29	16	57	76.0	-193036.0	-314.0	7851.0
11	18	29	16	58	77.0	-179194.0	-337.0	5741.0
11	18	29	16	58	78.0	-167896.0	-324.0	4396.0
11	18	29	16	59	79.0	-161860.0	-322.0	3793.0
11	18	29	16	77	80.0	-160472.0	-311.0	3671.0
11	18	29	16	77	81.0	-161097.0	-306.0	3279.0
11	18	29	16	78	82.0	-164317.0	-312.0	2721.0
11	18	29	16	78	83.0	-171204.0	-325.0	2593.0
11	18	29	16	79	84.0	-181310.0	-360.0	3013.0
11	18	29	16	79	85.0	-193545.0	-403.0	2433.0
11	18	29	16	100	86.0	-204974.0	-433.0	1370.0
11	18	29	16	100	87.0	-213071.0	-456.0	337.0
11	18	29	16	101	88.0	-217612.0	-434.0	88.0
11	18	29	16	101	89.0	-217587.0	-433.0	64.0
11	18	29	16	102	90.0	-212651.0	-438.0	-254.0
11	18	29	16	103	91.0	-205621.0	-429.0	-307.0
11	18	29	16	103	92.0	-199354.0	-441.0	-565.0
11	18	29	16	104	93.0	-195987.0	-448.0	-472.0
11	18	29	16	104	94.0	-195498.0	-457.0	-87.0
11	18	29	16	105	95.0	-196012.0	-514.0	-410.0
11	18	29	16	105	96.0	-195786.0	-546.0	-1404.0
11	18	29	16	106	97.0	-194562.0	-535.0	-2304.0
11	18	29	16	106	98.0	-192560.0	-542.0	-2195.0
11	18	29	16	107	99.0	-189988.0	-528.0	-2308.0
11	18	29	16	107	100.0	-188412.0	-507.0	-2683.0
11	18	29	16	123	101.0	-189521.0	-527.0	-2851.0
11	18	29	16	123	102.0	-193344.0	-526.0	-2913.0
11	18	29	16	124	103.0	-198270.0	-532.0	-2750.0
11	18	29	16	124	104.0	-202041.0	-567.0	-2731.0
11	18	29	16	125	105.0	-203421.0	-625.0	-3891.0
11	18	29	16	125	106.0	-202414.0	-646.0	-4912.0
11	18	29	16	126	107.0	-198966.0	-659.0	-4919.0
11	18	29	16	127	108.0	-194239.0	-636.0	-5100.0
11	18	29	16	127	109.0	-189968.0	-642.0	-5719.0
11	18	29	16	128	110.0	-187131.0	-640.0	-5689.0
11	18	29	16	128	111.0	-185882.0	-651.0	-5059.0
11	18	29	16	129	112.0	-186779.0	-649.0	-5160.0
11	18	29	16	130	113.0	-189244.0	-654.0	-5541.0
11	18	29	16	130	114.0	-191933.0	-679.0	-5571.0
11	18	29	16	131	115.0	-194521.0	-711.0	-5865.0
11	18	29	16	147	116.0	-196406.0	-727.0	-6532.0
11	18	29	16	147	117.0	-197136.0	-766.0	-8077.0
11	18	29	16	148	118.0	-197186.0	-760.0	-8204.0
11	18	29	16	148	119.0	-196932.0	-756.0	-8327.0
11	18	29	16	149	120.0	-195897.0	-740.0	-8552.0
11	18	29	16	149	121.0	-194221.0	-749.0	-8544.0
11	18	29	16	150	122.0	-192506.0	-758.0	-8714.0
11	18	29	16	150	123.0	-191406.0	-761.0	-8569.0
11	18	29	16	151	124.0	-191025.0	-780.0	-8658.0
11	18	29	16	169	125.0	-191349.0	-811.0	-9912.0
11	18	29	16	170	126.0	-192456.0	-856.0	-10779.0
11	18	29	16	170	127.0	-193829.0	-887.0	-11829.0
11	18	29	16	171	128.0	-194954.0	-865.0	-12379.0
11	18	29	16	171	129.0	-195723.0	-858.0	-12628.0
11	18	29	16	172	130.0	-196636.0	-851.0	-12951.0
11	18	29	16	173	131.0	-197437.0	-850.0	-12959.0
11	18	29	16	173	132.0	-197354.0	-869.0	-13246.0
11	18	29	16	174	133.0	-196596.0	-879.0	-13130.0
11	18	29	16	174	134.0	-195936.0	-914.0	-13377.0
11	18	29	16	175	135.0	-195792.0	-946.0	-14754.0
11	18	29	16	176	136.0	-195718.0	-960.0	-16083.0
11	18	29	16	176	137.0	-195529.0	-981.0	-17057.0
11	18	29	16	177	138.0	-195616.0	-980.0	-17424.0
11	18	29	16	177	139.0	-195952.0	-976.0	-17810.0
11	18	29	16	192	140.0	-196861.0	-968.0	-18269.0
11	18	29	16	193	141.0	-198046.0	-967.0	-18391.0
11	18	29	16	194	142.0	-198938.0	-988.0	-18369.0
11	18	29	16	194	143.0	-199304.0	-991.0	-18721.0
11	18	29	16	195	144.0	-199557.0	-1014.0	-19401.0
11	18	29	16	195	145.0	-199755.0	-1043.0	-20028.0
11	18	29	16	215	146.0	-199667.0	-1080.0	-20689.0
11	18	29	16	216	147.0	-199411.0	-1075.0	-22477.0
11	18	29	16	217	148.0	-199327.0	-1062.0	-23216.0
11	18	29	16	217	149.0	-199176.0	-1056.0	-22914.0
11	18	29	16	218	150.0	-199066.0	-1061.0	-22782.0
11	18	29	16	219	151.0	-199001.0	-1064.0	-23172.0
11	18	29	16	219	152.0	-198558.0	-1060.0	-23131.0
11	18	29	16	220	153.0	-198139.0	-1057.0	-22800.0
11	18	29	16	220	154.0	-197978.0	-1096.0	-22676.0
11	18	29	16	221	155.0	-197516.0	-1123.0	-23660.0
11	18	29	16	221	156.0	-197504.0	-1137.0	-24062.0
11	18	29	16	222	157.0	-197869.0	-1137.0	-24721.0
11	18	29	16	223	158.0	-198111.0	-1124.0	-24751.0
11	18	29	16	223	159.0	-198417.0	-1139.0	-24552.0
11	18	29	16	224	160.0	-198454.0	-1134.0	-24244.0
11	18	29	16	238	161.0	-198822.0	-1135.0	-23720.0
11	18	29	16	239	162.0	-199011.0	-1132.0	-23240.0
11	18	29	16	239	163.0	-198117.0	-1118.0	-22317.0
11	18	29	16	240	164.0	-196776.0	-1164.0	-21640.0
11	18	29	16	240	165.0	-195306.0	-1212.0	-21961.0
11	18	29	16	241	166.0	-193537.0	-1235.0	-22481.0
11	18	29	16	242	167.0	-191941.0	-1247.0	-22342.0
11	18	29	16	242	168.0	-190256.0	-1237.0	-21639.0
11	18	29	16	261	169.0	-188705.0	-1232.0	-20667.0
11	18	29	16	262	170.0	-187181.0	-1238.0	-19446.0
11	18	29	16	263	171.0	-186498.0	-1234.0	-18429.0
11	18	29	16	263	172.0	-186714.0	-1238.0	-17036.0
11	18	29	16	264	173.0	-187211.0	-1238.0	-15484.0
11	18	29	16	264	174.0	-187600.0	-1285.0	-14637.0
11	18	29	16	265	175.0	-187757.0	-1324.0	-14416.0
11	18	29	16	266	176.0	-188387.0	-1342.0	-13945.0
11	18	29	16	266	177.0	-189547.0	-1352.0	-13694.0
11	18	29	16	267	178.0	-190833.0	-1343.0	-12807.0
11	18	29	16	267	179.0	-192398.0	-1339.0	-11833.0
11	18	29	16	268	180.0	-194306.0	-1350.0	-10462.0
11	18	29	16	268	181.0	-196171.0	-1327.0	-9229.0
11	18	29	16	269	182.0	-197651.0	-1342.0	-8451.0
11	18	29	16	270	183.0	-198953.0	-1348.0	-7041.0
11	18	29	16	283	184.0	-200462.0	-1382.0	-6313.0
11	18	29	16	284	185.0	-201844.0	-1404.0	-6374.0
11	18	29	16	285	186.0	-202919.0	-1448.0	-6226.0
11	18	29	16	285	187.0	-203921.0	-1445.0	-5956.0
11	18	29	16	286	188.0	-204931.0	-1443.0	-5126.0
11	18	29	16	286	189.0	-206132.0	-1430.0	-4179.0
11	18	29	16	287	190.0	-207784.0	-1439.0	-3429.0
11	18	29	16	287	191.0	-209425.0	-1451.0	-2747.0
11	18	29	16	307	192.0	-210131.0	-1447.0	-2377.0
11	18	29	16	307	193.0	-210131.0	-1424.0	-1734.0
11	18	29	16	308	194.0	-209412.0	-1468.0	-1711.0
11	18	29	16	308	195.0	-208639.0	-1495.0	-1309.0
11	18	29	16	309	196.0	-207781.0	-1529.0	-2151.0
11	18	29	16	310	197.0	-207075.0	-1514.0	-2449.0
11	18	29	16	310	198.0	-206314.0	-1503.0	-1947.0
11	18	29	16	311	199.0	-205381.0	-1496.0	-1248.0
11	18	29	16	312	200.0	-204814.0	-1485.0	-859.0
11	18	29	16	312	201.0	-204847.0	-1474.0	-558.0
11	18	29	16	313	202.0	-204944.0	-1476.0	171.0
11	18	29	16	313	203.0	-204811.0	-1476.0	641.0
11	18	29	16	314	204.0	-204836.0	-1496.0	664.0
11	18	29	16	315	205.0	-204624.0	-1531.0	-66.0
11	18	29	16	315	206.0	-204262.0	-1562.0	-541.0
11	18	29	16	328	207.0	-203832.0	-1554.0	-377.0
11	18	29	16	329	208.0	-203102.0	-1517.0	-309.0
11	18	29	16	330	209.0	-202215.0	-1503.0	-249.0
11	18	29	16	330	210.0	-201072.0	-1499.0	32.0
11	18	29	16	331	211.0	-199542.0	-1504.0	563.0
11	18	29	16	331	212.0	-198149.0	-1493.0	1083.0
11	18	29	16	332	213.0	-196506.0	-1499.0	1728.0
11	18	29	16	351	214.0	-193999.0	-1515.0	1470.0
11	18	29	16	352	215.0	-190166.0	-1531.0	883.0
11	18	29	16	352	216.0	-182636.0	-1563.0	325.0
11	18	29	16	353	217.0	-171417.0	-1557.0	299.0
11	18	29	16	354	218.0	-163302.0	-1526.0	144.0
11	18	29	16	354	219.0	-164046.0	-1524.0	589.0
11	18	29	16	355	220.0	-174239.0	-1506.0	1098.0
11	18	29	16	356	221.0	-187426.0	-1494.0	1594.0
11	18	29	16	356	222.0	-198847.0	-1499.0	1668.0
11	18	29	16	357	223.0	-206189.0	-1513.0	2026.0
11	18	29	16	357	224.0	-207391.0	-1531.0	1614.0
11	18	29	16	358	225.0	-206264.0	-1548.0	1209.0
11	18	29	16	358	226.0	-206879.0	-1559.0	751.0
11	18	29	16	359	227.0	-208309.0	-1534.0	-88.0
11	18	29	16	360	228.0	-206670.0	-1519.0	191.0
11	18	29	16	374	229.0	-202018.0	-1499.0	881.0
11	18	29	16	374	230.0	-197054.0	-1501.0	1036.0
11	18	29	16	375	231.0	-192096.0	-1506.0	781.0
11	18	29	16	376	232.0	-187154.0	-1487.0	1608.0
11	18	29	16	376	233.0	-182556.0	-1485.0	2288.0
11	18	29	16	377	234.0	-179492.0	-1512.0	2272.0
11	18	29	16	377	235.0	-178236.0	-1528.0	1134.0
11	18	29	16	378	236.0	-178351.0	-1553.0	532.0
11	18	29	16	396	237.0	-179823.0	-1536.0	486.0
11	18	29	16	397	238.0	-182693.0	-1526.0	683.0
11	18	29	16	398	239.0	-185779.0	-1499.0	701.0
11	18	29	16	398	240.0	-188949.0	-1484.0	806.0
11	18	29	16	400	241.0	-192468.0	-1479.0	1047.0
11	18	29	16	401	242.0	-196377.0	-1462.0	1259.0
11	18	29	16	401	243.0	-199986.0	-1473.0	1631.0
11	18	29	16	402	244.0	-203931.0	-1495.0	1496.0
11	18	29	16	402	245.0	-208796.0	-1506.0	1295.0
11	18	29	16	403	246.0	-213170.0	-1511.0	308.0
11	18	29	16	404	247.0	-215934.0	-1489.0	740.0
11	18	29	16	404	248.0	-216814.0	-1485.0	1024.0
11	18	29	16	405	249.0	-215166.0	-1471.0	946.0
11	18	29	16	405	250.0	-211620.0	-1469.0	821.0
11	18	29	16	406	251.0	-207426.0	-1461.0	1096.0
11	18	29	16	425	252.0	-203326.0	-1449.0	1182.0
11	18	29	16	428	253.0	-199322.0	-1456.0	1620.0
11	18	29	16	428	254.0	-195915.0	-1471.0	1224.0
11	18	29	16	429	255.0	-193710.0	-1504.0	693.0
11	18	29	16	430	0.0	-192498.0	-1524.0	-80.0
11	18	29	16	430	1.0	-191949.0	-1506.0	-220.0
11	18	29	16	431	2.0	-192764.0	-1493.0	281.0
11	18	29	16	431	3.0	-193961.0	-1486.0	731.0
11	18	29	16	432	4.0	-195324.0	-1476.0	588.0
11	18	29	16	432	5.0	-196561.0	-1478.0	788.0
11	18	29	16	433	6.0	-198236.0	-1472.0	851.0
11	18	29	16	433	7.0	-200344.0	-1490.0	1673.0
11	18	29	16	434	8.0	-202561.0	-1531.0	1479.0
11	18	29	16	435	9.0	-204919.0	-1546.0	781.0
11	18	29	16	435	10.0	-207494.0	-1559.0	229.0
11	18	29	16	443	11.0	-209445.0	-1537.0	-166.0
11	18	29	16	443	12.0	-210736.0	-1506.0	-129.0
11	18	29	16	444	13.0	-211404.0	-1501.0	-13.0
11	18	29	16	444	14.0	-211911.0	-1509.0	413.0
11	18	29	16	445	15.0	-212631.0	-1499.0	700.0
11	18	29	16	445	16.0	-213096.0	-1504.0	1114.0
11	18	29	16	446	17.0	-212688.0	-1525.0	1380.0
11	18	29	16	466	18.0	-211792.0	-1546.0	821.0
11	18	29	16	466	19.0	-210516.0	-1561.0	838.0
11	18	29	16	467	20.0	-209023.0	-1592.0	166.0
11	18	29	16	467	21.0	-206917.0	-1572.0	458.0
11	18	29	16	468	22.0	-204741.0	-1568.0	1067.0
11	18	29	16	469	23.0	-202829.0	-1547.0	1009.0
11	18	29	16	469	24.0	-201371.0	-1552.0	608.0
11	18	29	16	490	25.0	-200196.0	-1554.0	983.0
11	18	29	16	491	26.0	-199335.0	-1536.0	2072.0
11	18	29	16	491	27.0	-198973.0	-1549.0	1991.0
11	18	29	16	492	28.0	-198436.0	-1582.0	1571.0
11	18	29	16	492	29.0	-197655.0	-1606.0	1182.0
11	18	29	16	493	30.0	-197535.0	-1617.0	769.0
11	18	29	16	494	31.0	-197756.0	-1592.0	831.0
11	18	29	16	494	32.0	-197751.0	-1574.0	1083.0
11	18	29	16	495	33.0	-197992.0	-1556.0	1273.0
11	18	29	16	495	34.0	-198401.0	-1560.0	1606.0
11	18	29	16	496	35.0	-198463.0	-1551.0	2274.0
11	18	29	16	496	36.0	-198072.0	-1548.0	2516.0
11	18	29	16	497	37.0	-197488.0	-1566.0	2509.0
11	18	29	16	497	38.0	-197379.0	-1594.0	2201.0
11	18	29	16	498	39.0	-197327.0	-1607.0	1959.0
11	18	29	16	514	40.0	-197216.0	-1604.0	951.0
11	18	29	16	514	41.0	-196915.0	-1583.0	839.0
11	18	29	16	515	42.0	-197019.0	-1564.0	1372.0
11	18	29	16	515	43.0	-197143.0	-1572.0	1885.0
11	18	29	16	516	44.0	-196974.0	-1551.0	2133.0
11	18	29	16	516	45.0	-196848.0	-1542.0	2345.0
11	18	29	16	517	46.0	-196869.0	-1543.0	2644.0
11	18	29	16	517	47.0	-196851.0	-1574.0	2998.0
11	18	29	16	536	48.0	-196443.0	-1572.0	2331.0
11	18	29	16	537	49.0	-196322.0	-1602.0	1608.0
11	18	29	16	538	50.0	-196217.0	-1599.0	1058.0
11	18	29	16	538	51.0	-195832.0	-1586.0	1460.0
11	18	29	16	539	52.0	-194661.0	-1577.0	1851.0
11	18	29	16	539	53.0	-193612.0	-1549.0	2124.0
11	18	29	16	540	54.0	-192906.0	-1542.0	2332.0
11	18	29	16	540	55.0	-191894.0	-1558.0	2766.0
11	18	29	16	541	56.0	-191205.0	-1542.0	3732.0
11	18	29	16	541	57.0	-190762.0	-1559.0	3999.0
11	18	29	16	542	58.0	-190814.0	-1591.0	3204.0
11	18	29	16	543	59.0	-190769.0	-1599.0	2239.0
11	18	29	16	543	60.0	-191203.0	-1602.0	2238.0
11	18	29	16	544	61.0	-191916.0	-1582.0	2626.0
11	18	29	16	544	62.0	-192508.0	-1564.0	2075.0
11	18	29	16	559	63.0	-192842.0	-1581.0	2242.0
11	18	29	16	560	64.0	-193223.0	-1557.0	2943.0
11	18	29	16	560	65.0	-194010.0	-1540.0	3471.0
11	18	29	16	561	66.0	-194537.0	-1543.0	3563.0
11	18	29	16	562	67.0	-195106.0	-1563.0	3959.0
11	18	29	16	562	68.0	-195887.0	-1576.0	4008.0
11	18	29	16	563	69.0	-196554.0	-1596.0	3526.0
11	18	29	16	563	70.0	-196859.0	-1580.0	2729.0
11	18	29	16	564	71.0	-197239.0	-1556.0	3022.0
11	18	29	16	564	72.0	-197878.0	-1549.0	2928.0
11	18	29	16	565	73.0	-198114.0	-1541.0	2981.0
11	18	29	16	565	74.0	-198106.0	-1524.0	3410.0
11	18	29	16	566	75.0	-198092.0	-1532.0	3645.0
11	18	29	16	567	76.0	-198280.0	-1505.0	3575.0
11	18	29	16	567	77.0	-198415.0	-1515.0	4199.0
11	18	29	16	581	78.0	-198592.0	-1550.0	3718.0
11	18	29	16	582	79.0	-198708.0	-1572.0	2949.0
11	18	29	16	582	80.0	-198628.0	-1549.0	2869.0
11	18	29	16	583	81.0	-198776.0	-1525.0	2979.0
11	18	29	16	583	82.0	-198862.0	-1509.0	3398.0
11	18	29	16	584	83.0	-198899.0	-1496.0	3395.0
11	18	29	16	584	84.0	-198934.0	-1484.0	3751.0
11	18	29	16	603	85.0	-198876.0	-1481.0	3880.0
11	18	29	16	604	86.0	-198942.0	-1472.0	4593.0
11	18	29	16	605	87.0	-198766.0	-1484.0	4576.0
11	18	29	16	605	88.0	-198550.0	-1507.0	4131.0
11	18	29	16	606	89.0	-198619.0	-1524.0	3521.0
11	18	29	16	606	90.0	-198464.0	-1519.0	3251.0
11	18	29	16	607	91.0	-198026.0	-1493.0	3426.0
11	18	29	16	607	92.0	-197573.0	-1474.0	3646.0
11	18	29	16	608	93.0	-196580.0	-1448.0	3733.0
11	18	29	16	608	94.0	-195712.0	-1450.0	3941.0
11	18	29	16	609	95.0	-194415.0	-1446.0	4325.0
11	18	29	16	610	96.0	-193590.0	-1421.0	4883.0
11	18	29	16	610	97.0	-192929.0	-1431.0	4843.0
11	18	29	16	611	98.0	-192561.0	-1458.0	4194.0
11	18	29	16	611	99.0	-192939.0	-1485.0	3911.0
11	18	29	16	627	100.0	-193917.0	-1479.0	3398.0
11	18	29	16	628	101.0	-194704.0	-1440.0	3566.0
11	18	29	16	630	102.0	-194871.0	-1434.0	4008.0
11	18	29	16	632	103.0	-195164.0	-1417.0	4646.0
11	18	29	16	633	104.0	-195583.0	-1404.0	4489.0
11	18	29	16	635	105.0	-195394.0	-1404.0	4396.0
11	18	29	16	637	106.0	-195182.0	-1396.0	4481.0
11	18	29	16	639	107.0	-195416.0	-1420.0	4634.0
11	18	29	16	641	108.0	-195862.0	-1448.0	3434.0
11	18	29	16	643	109.0	-195952.0	-1467.0	3135.0
11	18	29	16	645	110.0	-195933.0	-1436.0	2941.0
11	18	29	16	646	111.0	-196216.0	-1416.0	2326.0
11	18	29	16	647	112.0	-195865.0	-1391.0	2307.0
11	18	29	16	648	113.0	-195012.0	-1397.0	3237.0
11	18	29	16	648	114.0	-194454.0	-1388.0	3415.0
11	18	29	16	658	115.0	-194427.0	-1366.0	3276.0
11	18	29	16	660	116.0	-194676.0	-1353.0	3886.0
11	18	29	16	661	117.0	-195121.0	-1389.0	3886.0
11	18	29	16	663	118.0	-195666.0	-1407.0	2723.0
11	18	29	16	665	119.0	-196039.0	-1427.0	1732.0
11	18	29	16	666	120.0	-196364.0	-1412.0	929.0
11	18	29	16	667	121.0	-197051.0	-1388.0	1287.0
11	18	29	16	668	122.0	-197791.0	-1382.0	1587.0
11	18	29	16	668	123.0	-198778.0	-1355.0	2268.0
11	18	29	16	669	124.0	-199585.0	-1356.0	2821.0
11	18	29	16	670	125.0	-200456.0	-1352.0	3223.0
11	18	29	16	670	126.0	-201167.0	-1336.0	4019.0
11	18	29	16	671	127.0	-201523.0	-1364.0	3970.0
11	18	29	16	671	128.0	-201582.0	-1374.0	3414.0
11	18	29	16	672	129.0	-201395.0	-1408.0	2763.0
11	18	29	16	683	130.0	-201435.0	-1377.0	2493.0
11	18	29	16	683	131.0	-201639.0	-1336.0	3233.0
11	18	29	16	684	132.0	-202149.0	-1341.0	3626.0
11	18	29	16	685	133.0	-202669.0	-1338.0	3928.0
11	18	29	16	685	134.0	-203076.0	-1342.0	4181.0
11	18	29	16	686	135.0	-202756.0	-1330.0	4273.0
11	18	29	16	686	136.0	-202425.0	-1316.0	5069.0
11	18	29	16	687	137.0	-202317.0	-1331.0	5352.0
11	18	29	16	705	138.0	-202140.0	-1361.0	4999.0
11	18	29	16	706	139.0	-201355.0	-1381.0	4654.0
11	18	29	16	706	140.0	-200354.0	-1363.0	4248.0
11	18	29	16	707	141.0	-199005.0	-1361.0	4308.0
11	18	29	16	707	142.0	-197665.0	-1346.0	4575.0
11	18	29	16	708	143.0	-196557.0	-1346.0	4933.0
11	18	29	16	709	144.0	-196393.0	-1329.0	5408.0
11	18	29	16	728	145.0	-196874.0	-1327.0	5939.0
11	18	29	16	729	146.0	-197307.0	-1316.0	6927.0
11	18	29	16	730	147.0	-197703.0	-1354.0	6790.0
11	18	29	16	730	148.0	-197900.0	-1377.0	6465.0
11	18	29	16	731	149.0	-198132.0	-1387.0	5851.0
11	18	29	16	732	150.0	-198327.0	-1367.0	5038.0
11	18	29	16	732	151.0	-197871.0	-1339.0	5588.0
11	18	29	16	733	152.0	-196764.0	-1326.0	6199.0
11	18	29	16	733	153.0	-195894.0	-1322.0	5940.0
11	18	29	16	734	154.0	-195096.0	-1332.0	5911.0
11	18	29	16	734	155.0	-194460.0	-1331.0	6464.0
11	18	29	16	735	156.0	-193729.0	-1332.0	6850.0
11	18	29	16	735	157.0	-192945.0	-1376.0	6811.0
11	18	29	16	736	158.0	-192333.0	-1376.0	6253.0
11	18	29	16	736	159.0	-191575.0	-1387.0	5806.0
11	18	29	16	751	160.0	-191021.0	-1366.0	5984.0
11	18	29	16	752	161.0	-190822.0	-1352.0	6280.0
11	18	29	16	753	162.0	-191021.0	-1336.0	6204.0
11	18	29	16	753	163.0	-190967.0	-1325.0	5808.0
11	18	29	16	754	164.0	-190965.0	-1338.0	5688.0
11	18	29	16	754	165.0	-191135.0	-1332.0	5163.0
11	18	29	16	755	166.0	-191398.0	-1335.0	4668.0
11	18	29	16	755	167.0	-191321.0	-1346.0	2926.0
11	18	29	16	775	168.0	-191573.0	-1367.0	924.0
11	18	29	16	776	169.0	-192306.0	-1392.0	-1549.0
11	18	29	16	776	170.0	-193157.0	-1371.0	-4386.0
11	18	29	16	777	171.0	-193904.0	-1349.0	-7665.0
11	18	29	16	777	172.0	-194542.0	-1342.0	-10043.0
11	18	29	16	778	173.0	-194945.0	-1335.0	-10104.0
11	18	29	16	778	174.0	-194764.0	-1326.0	-8556.0
11	18	29	16	779	175.0	-194104.0	-1320.0	-3729.0
11	18	29	16	780	176.0	-193716.0	-1342.0	1248.0
11	18	29	16	780	177.0	-193615.0	-1368.0	3899.0
11	18	29	16	781	178.0	-193733.0	-1374.0	6943.0
11	18	29	16	781	179.0	-193965.0	-1391.0	10925.0
11	18	29	16	782	180.0	-194712.0	-1376.0	15510.0
11	18	29	16	782	181.0	-196241.0	-1345.0	20074.0
11	18	29	16	783	182.0	-197761.0	-1361.0	22484.0
11	18	29	16	784	183.0	-199437.0	-1364.0	24034.0
