11	18	47	25	544	98.0	-169274.0	328.0	-49973.0
11	18	47	25	546	99.0	-169237.0	333.0	-50537.0
11	18	47	25	548	100.0	-169717.0	343.0	-51044.0
11	18	47	25	550	101.0	-171982.0	329.0	-51824.0
11	18	47	25	552	102.0	-176003.0	321.0	-52902.0
11	18	47	25	553	103.0	-179558.0	322.0	-54082.0
11	18	47	25	555	104.0	-184134.0	341.0	-55236.0
11	18	47	25	556	105.0	-188327.0	299.0	-56312.0
11	18	47	25	558	106.0	-191692.0	285.0	-57581.0
11	18	47	25	560	107.0	-195126.0	296.0	-58544.0
11	18	47	25	561	108.0	-197102.0	284.0	-59422.0
11	18	47	25	563	109.0	-198797.0	278.0	-60407.0
11	18	47	25	565	110.0	-199559.0	279.0	-61381.0
11	18	47	25	566	111.0	-199260.0	264.0	-62356.0
11	18	47	25	567	112.0	-199787.0	257.0	-62570.0
11	18	47	25	568	113.0	-199231.0	241.0	-62720.0
11	18	47	25	576	114.0	-199194.0	257.0	-62947.0
11	18	47	25	577	115.0	-200061.0	254.0	-63069.0
11	18	47	25	578	116.0	-200726.0	223.0	-63303.0
11	18	47	25	579	117.0	-202405.0	179.0	-63242.0
11	18	47	25	580	118.0	-203601.0	186.0	-62731.0
11	18	47	25	581	119.0	-204992.0	206.0	-62592.0
11	18	47	25	582	120.0	-206408.0	206.0	-62930.0
11	18	47	25	583	121.0	-206110.0	201.0	-63522.0
11	18	47	25	616	122.0	-205796.0	172.0	-63593.0
11	18	47	25	661	123.0	-205317.0	160.0	-63159.0
11	18	47	25	662	124.0	-203722.0	164.0	-63784.0
11	18	47	25	664	125.0	-202729.0	159.0	-64407.0
11	18	47	25	665	126.0	-202551.0	144.0	-64662.0
11	18	47	25	666	127.0	-203149.0	118.0	-64851.0
11	18	47	25	667	128.0	-203890.0	109.0	-64945.0
11	18	47	25	668	129.0	-204907.0	121.0	-64635.0
11	18	47	25	669	130.0	-206543.0	122.0	-64961.0
11	18	47	25	670	131.0	-208385.0	93.0	-65519.0
11	18	47	25	671	132.0	-210329.0	82.0	-65516.0
11	18	47	25	673	133.0	-211484.0	94.0	-64779.0
11	18	47	25	674	134.0	-211573.0	89.0	-64456.0
11	18	47	25	675	135.0	-211467.0	71.0	-64346.0
11	18	47	25	676	136.0	-211063.0	51.0	-64567.0
11	18	47	25	678	139.0	-211879.0	23.0	-63314.0
11	18	47	25	679	162.0	-204871.0	-93.0	-62625.0
11	18	47	25	680	163.0	-206021.0	-90.0	-62873.0
11	18	47	25	681	164.0	-207640.0	-92.0	-63581.0
11	18	47	25	683	165.0	-208867.0	-109.0	-64996.0
11	18	47	25	684	166.0	-209646.0	-134.0	-66779.0
11	18	47	25	685	167.0	-209835.0	-110.0	-68360.0
11	18	47	25	707	168.0	-209369.0	-123.0	-68916.0
11	18	47	25	709	169.0	-208604.0	-105.0	-69330.0
11	18	47	25	711	170.0	-207768.0	-122.0	-70144.0
11	18	47	25	712	171.0	-207147.0	-123.0	-71167.0
11	18	47	25	714	172.0	-207085.0	-143.0	-71731.0
11	18	47	25	716	173.0	-206751.0	-136.0	-72671.0
11	18	47	25	718	174.0	-206633.0	-143.0	-73331.0
11	18	47	25	719	175.0	-206368.0	-156.0	-73641.0
11	18	47	25	721	176.0	-205296.0	-165.0	-73773.0
11	18	47	25	723	177.0	-204249.0	-192.0	-74303.0
11	18	47	25	724	178.0	-202847.0	-183.0	-74601.0
11	18	47	25	726	179.0	-200873.0	-190.0	-74532.0
11	18	47	25	727	180.0	-198354.0	-182.0	-74676.0
11	18	47	25	729	181.0	-196175.0	-186.0	-74311.0
11	18	47	25	731	182.0	-194464.0	-187.0	-74257.0
11	18	47	25	732	184.0	-190934.0	-197.0	-74166.0
11	18	47	25	734	185.0	-189607.0	-209.0	-74623.0
11	18	47	25	735	186.0	-188815.0	-209.0	-74976.0
11	18	47	25	737	187.0	-188880.0	-222.0	-74927.0
11	18	47	25	739	188.0	-190012.0	-199.0	-74335.0
11	18	47	25	740	189.0	-191903.0	-201.0	-74276.0
11	18	47	25	742	190.0	-193617.0	-221.0	-74351.0
11	18	47	25	751	191.0	-194364.0	-219.0	-74549.0
11	18	47	25	753	192.0	-195120.0	-212.0	-74861.0
11	18	47	25	755	193.0	-195528.0	-217.0	-75766.0
11	18	47	25	757	194.0	-194884.0	-211.0	-75909.0
11	18	47	25	759	195.0	-194199.0	-229.0	-75938.0
11	18	47	25	761	196.0	-193316.0	-260.0	-76629.0
11	18	47	25	763	197.0	-192746.0	-268.0	-76722.0
11	18	47	25	764	198.0	-192856.0	-262.0	-76313.0
11	18	47	25	766	199.0	-193341.0	-261.0	-75699.0
11	18	47	25	767	200.0	-194404.0	-272.0	-75360.0
11	18	47	25	768	201.0	-195542.0	-265.0	-74842.0
11	18	47	25	769	202.0	-196580.0	-266.0	-74873.0
11	18	47	25	771	203.0	-198013.0	-282.0	-75098.0
11	18	47	25	772	204.0	-200016.0	-287.0	-74660.0
11	18	47	25	773	205.0	-201794.0	-312.0	-74286.0
11	18	47	25	774	207.0	-205546.0	-333.0	-74616.0
11	18	47	25	774	208.0	-207339.0	-349.0	-74361.0
11	18	47	25	775	209.0	-208856.0	-331.0	-74159.0
11	18	47	25	775	210.0	-210201.0	-341.0	-74464.0
11	18	47	25	776	211.0	-211436.0	-344.0	-75380.0
11	18	47	25	776	212.0	-211969.0	-357.0	-76642.0
11	18	47	25	796	213.0	-211406.0	-367.0	-77568.0
11	18	47	25	797	214.0	-209773.0	-381.0	-77712.0
11	18	47	25	798	215.0	-207797.0	-386.0	-78226.0
11	18	47	25	798	216.0	-205336.0	-408.0	-78492.0
11	18	47	25	799	217.0	-202399.0	-419.0	-79055.0
11	18	47	25	799	218.0	-199503.0	-439.0	-79253.0
11	18	47	25	799	219.0	-196804.0	-429.0	-79239.0
11	18	47	25	800	220.0	-194982.0	-424.0	-78972.0
11	18	47	25	800	221.0	-194659.0	-440.0	-79331.0
11	18	47	25	801	222.0	-195678.0	-450.0	-79938.0
11	18	47	25	801	223.0	-197479.0	-459.0	-80204.0
11	18	47	25	801	224.0	-199381.0	-459.0	-80398.0
11	18	47	25	802	225.0	-201686.0	-494.0	-80930.0
11	18	47	25	802	226.0	-204121.0	-507.0	-81133.0
11	18	47	25	802	227.0	-205669.0	-502.0	-80906.0
11	18	47	25	803	229.0	-206681.0	-521.0	-80904.0
11	18	47	25	803	230.0	-206234.0	-524.0	-80566.0
11	18	47	25	804	231.0	-205087.0	-516.0	-80346.0
11	18	47	25	804	232.0	-203806.0	-524.0	-80278.0
11	18	47	25	812	233.0	-202609.0	-544.0	-80127.0
11	18	47	25	812	234.0	-201093.0	-558.0	-79482.0
11	18	47	25	840	235.0	-199593.0	-561.0	-79481.0
11	18	47	25	840	236.0	-198525.0	-561.0	-79231.0
11	18	47	25	861	237.0	-198058.0	-589.0	-78867.0
11	18	47	25	862	238.0	-198409.0	-611.0	-78336.0
11	18	47	25	862	239.0	-199424.0	-592.0	-78572.0
11	18	47	25	862	240.0	-200995.0	-585.0	-78326.0
11	18	47	25	863	241.0	-202765.0	-589.0	-77863.0
11	18	47	25	863	242.0	-204022.0	-597.0	-77725.0
11	18	47	25	863	243.0	-204881.0	-626.0	-78006.0
11	18	47	25	864	244.0	-205119.0	-636.0	-77681.0
11	18	47	25	864	245.0	-204494.0	-645.0	-77294.0
11	18	47	25	864	246.0	-203124.0	-659.0	-77294.0
11	18	47	25	865	247.0	-200821.0	-661.0	-77191.0
11	18	47	25	865	248.0	-198173.0	-691.0	-76717.0
11	18	47	25	866	249.0	-194962.0	-674.0	-77115.0
11	18	47	25	866	252.0	-186102.0	-704.0	-78094.0
11	18	47	25	866	253.0	-184572.0	-699.0	-78134.0
11	18	47	25	867	254.0	-184527.0	-708.0	-78231.0
11	18	47	25	867	255.0	-184931.0	-727.0	-78762.0
11	18	47	25	867	0.0	-185964.0	-739.0	-79186.0
11	18	47	25	868	1.0	-187281.0	-752.0	-79810.0
11	18	47	25	885	2.0	-188331.0	-742.0	-80255.0
11	18	47	25	886	3.0	-189541.0	-721.0	-80601.0
11	18	47	25	886	4.0	-190908.0	-738.0	-80770.0
11	18	47	25	887	5.0	-192164.0	-735.0	-81378.0
11	18	47	25	887	6.0	-193324.0	-748.0	-82057.0
11	18	47	25	887	7.0	-194526.0	-768.0	-82690.0
11	18	47	25	888	8.0	-196736.0	-768.0	-83136.0
11	18	47	25	889	9.0	-199937.0	-784.0	-84268.0
11	18	47	25	889	10.0	-203617.0	-805.0	-84246.0
11	18	47	25	890	11.0	-207842.0	-816.0	-84160.0
11	18	47	25	890	12.0	-212215.0	-817.0	-83317.0
11	18	47	25	891	13.0	-216497.0	-819.0	-82257.0
11	18	47	25	891	14.0	-220594.0	-815.0	-81319.0
11	18	47	25	891	15.0	-224190.0	-834.0	-81223.0
11	18	47	25	892	16.0	-227093.0	-843.0	-81199.0
11	18	47	25	893	18.0	-230006.0	-852.0	-80020.0
11	18	47	25	893	19.0	-230098.0	-867.0	-79849.0
11	18	47	25	903	20.0	-228669.0	-897.0	-79562.0
11	18	47	25	903	21.0	-226330.0	-918.0	-79164.0
11	18	47	25	904	22.0	-223049.0	-905.0	-78270.0
11	18	47	25	904	23.0	-218609.0	-891.0	-77869.0
11	18	47	25	930	24.0	-213825.0	-914.0	-76806.0
11	18	47	25	931	25.0	-208687.0	-942.0	-76387.0
11	18	47	25	932	26.0	-203146.0	-944.0	-76454.0
11	18	47	25	933	27.0	-197738.0	-943.0	-76631.0
11	18	47	25	933	28.0	-192439.0	-946.0	-76506.0
11	18	47	25	934	29.0	-187803.0	-956.0	-76671.0
11	18	47	25	934	30.0	-184301.0	-981.0	-76301.0
11	18	47	25	934	31.0	-181611.0	-989.0	-76359.0
11	18	47	25	935	32.0	-179926.0	-979.0	-76756.0
11	18	47	25	935	33.0	-179217.0	-979.0	-77069.0
11	18	47	25	936	34.0	-178757.0	-984.0	-77303.0
11	18	47	25	936	35.0	-178289.0	-1010.0	-77327.0
11	18	47	25	936	36.0	-178074.0	-1012.0	-77366.0
11	18	47	25	937	37.0	-178242.0	-1022.0	-77479.0
11	18	47	25	937	38.0	-178184.0	-1028.0	-77793.0
11	18	47	25	947	40.0	-178987.0	-1066.0	-77504.0
11	18	47	25	947	41.0	-180194.0	-1073.0	-77483.0
11	18	47	25	948	42.0	-181437.0	-1067.0	-77377.0
11	18	47	25	948	43.0	-182899.0	-1086.0	-77156.0
11	18	47	25	948	44.0	-184804.0	-1094.0	-77271.0
11	18	47	25	949	45.0	-187912.0	-1092.0	-76911.0
11	18	47	25	949	46.0	-192065.0	-1092.0	-76426.0
11	18	47	25	975	47.0	-196310.0	-1102.0	-76214.0
11	18	47	25	976	48.0	-200121.0	-1110.0	-76481.0
11	18	47	25	976	49.0	-203302.0	-1152.0	-76999.0
11	18	47	25	996	50.0	-205838.0	-1160.0	-77002.0
11	18	47	25	997	51.0	-208593.0	-1185.0	-77515.0
11	18	47	25	997	52.0	-211458.0	-1180.0	-77410.0
11	18	47	25	998	53.0	-214790.0	-1162.0	-77251.0
11	18	47	25	998	54.0	-219061.0	-1178.0	-77296.0
11	18	47	25	998	55.0	-223509.0	-1196.0	-77100.0
11	18	47	25	999	56.0	-227546.0	-1227.0	-76856.0
11	18	47	25	999	57.0	-231059.0	-1233.0	-76526.0
11	18	47	26	0	58.0	-233830.0	-1260.0	-76414.0
11	18	47	26	0	59.0	-235404.0	-1277.0	-75839.0
11	18	47	26	1	60.0	-236082.0	-1278.0	-74667.0
11	18	47	26	1	61.0	-235600.0	-1286.0	-73941.0
11	18	47	26	1	63.0	-231697.0	-1304.0	-73644.0
11	18	47	26	2	64.0	-228735.0	-1308.0	-74787.0
11	18	47	26	2	65.0	-226297.0	-1307.0	-76174.0
11	18	47	26	3	66.0	-224714.0	-1310.0	-77233.0
11	18	47	26	3	67.0	-223357.0	-1336.0	-76277.0
11	18	47	26	3	68.0	-222479.0	-1358.0	-75084.0
11	18	47	26	4	69.0	-222094.0	-1357.0	-75409.0
11	18	47	26	21	70.0	-221474.0	-1372.0	-76421.0
11	18	47	26	21	71.0	-220555.0	-1409.0	-79031.0
11	18	47	26	22	72.0	-219333.0	-1403.0	-81952.0
11	18	47	26	22	73.0	-217506.0	-1398.0	-84228.0
11	18	47	26	23	74.0	-215367.0	-1397.0	-84055.0
11	18	47	26	24	75.0	-213114.0	-1418.0	-80179.0
11	18	47	26	47	76.0	-210992.0	-1441.0	-71913.0
11	18	47	26	48	77.0	-209448.0	-1440.0	-63450.0
11	18	47	26	48	78.0	-208136.0	-1449.0	-56202.0
11	18	47	26	49	79.0	-206242.0	-1471.0	-50130.0
11	18	47	26	49	80.0	-203854.0	-1489.0	-45972.0
11	18	47	26	49	81.0	-201812.0	-1496.0	-42116.0
11	18	47	26	50	82.0	-200161.0	-1504.0	-38356.0
11	18	47	26	50	83.0	-198617.0	-1497.0	-37051.0
11	18	47	26	51	84.0	-197643.0	-1524.0	-39233.0
11	18	47	26	51	85.0	-196499.0	-1532.0	-42561.0
11	18	47	26	51	86.0	-195537.0	-1546.0	-45590.0
11	18	47	26	52	87.0	-194528.0	-1542.0	-49526.0
11	18	47	26	52	88.0	-193259.0	-1551.0	-54041.0
11	18	47	26	53	89.0	-192441.0	-1580.0	-58125.0
11	18	47	26	53	90.0	-192374.0	-1596.0	-62855.0
11	18	47	26	54	91.0	-192302.0	-1599.0	-67039.0
11	18	47	26	66	92.0	-192021.0	-1613.0	-69962.0
11	18	47	26	67	93.0	-192389.0	-1622.0	-71849.0
11	18	47	26	67	94.0	-192572.0	-1627.0	-73647.0
11	18	47	26	68	95.0	-192448.0	-1636.0	-74882.0
11	18	47	26	69	96.0	-194004.0	-1652.0	-75730.0
11	18	47	26	70	97.0	-197485.0	-1664.0	-76521.0
11	18	47	26	71	98.0	-199714.0	-1663.0	-77101.0
11	18	47	26	71	99.0	-199229.0	-1706.0	-77121.0
11	18	47	26	72	100.0	-196050.0	-1718.0	-76522.0
11	18	47	26	72	101.0	-191489.0	-1731.0	-76339.0
11	18	47	26	73	102.0	-187396.0	-1737.0	-75869.0
11	18	47	26	73	103.0	-184647.0	-1732.0	-75525.0
11	18	47	26	74	104.0	-184588.0	-1769.0	-75204.0
11	18	47	26	74	105.0	-187375.0	-1774.0	-74954.0
11	18	47	26	75	106.0	-192146.0	-1784.0	-74322.0
11	18	47	26	75	108.0	-202712.0	-1804.0	-74135.0
11	18	47	26	76	109.0	-203766.0	-1837.0	-73944.0
11	18	47	26	76	110.0	-202519.0	-1847.0	-73859.0
11	18	47	26	77	111.0	-199802.0	-1861.0	-73511.0
11	18	47	26	77	112.0	-197069.0	-1853.0	-73493.0
11	18	47	26	78	113.0	-193879.0	-1867.0	-73433.0
11	18	47	26	111	114.0	-189806.0	-1868.0	-73275.0
11	18	47	26	112	115.0	-184378.0	-1886.0	-73228.0
11	18	47	26	113	116.0	-176961.0	-1904.0	-73335.0
11	18	47	26	113	117.0	-167201.0	-1919.0	-73721.0
11	18	47	26	115	118.0	-156131.0	-1942.0	-74086.0
11	18	47	26	116	119.0	-144749.0	-1959.0	-74680.0
11	18	47	26	117	120.0	-134531.0	-1983.0	-75552.0
11	18	47	26	117	121.0	-127118.0	-1993.0	-75855.0
11	18	47	26	118	122.0	-123515.0	-1977.0	-76227.0
11	18	47	26	118	123.0	-125077.0	-1984.0	-76593.0
11	18	47	26	119	124.0	-130881.0	-2012.0	-76872.0
11	18	47	26	119	125.0	-138654.0	-2019.0	-76061.0
11	18	47	26	120	126.0	-147238.0	-2046.0	-75423.0
11	18	47	26	121	127.0	-156147.0	-2064.0	-75225.0
11	18	47	26	121	128.0	-164902.0	-2082.0	-75332.0
11	18	47	26	122	130.0	-181111.0	-2104.0	-75377.0
11	18	47	26	122	131.0	-187881.0	-2117.0	-75193.0
11	18	47	26	123	132.0	-193189.0	-2104.0	-74250.0
11	18	47	26	123	133.0	-197383.0	-2099.0	-73963.0
11	18	47	26	124	134.0	-200438.0	-2106.0	-74149.0
11	18	47	26	124	135.0	-201749.0	-2132.0	-73882.0
11	18	47	26	125	136.0	-202147.0	-2132.0	-74047.0
11	18	47	26	156	137.0	-202316.0	-2147.0	-74589.0
11	18	47	26	157	138.0	-202693.0	-2151.0	-74874.0
11	18	47	26	159	139.0	-203677.0	-2172.0	-74912.0
11	18	47	26	160	140.0	-205192.0	-2179.0	-75063.0
11	18	47	26	161	141.0	-207150.0	-2185.0	-74505.0
11	18	47	26	161	142.0	-209536.0	-2205.0	-73856.0
11	18	47	26	162	143.0	-212292.0	-2214.0	-74026.0
11	18	47	26	163	144.0	-215516.0	-2219.0	-74516.0
11	18	47	26	163	145.0	-219012.0	-2220.0	-74320.0
11	18	47	26	164	146.0	-222574.0	-2221.0	-74532.0
11	18	47	26	164	147.0	-226409.0	-2237.0	-74337.0
11	18	47	26	165	148.0	-230749.0	-2269.0	-74814.0
11	18	47	26	165	149.0	-235339.0	-2277.0	-75494.0
11	18	47	26	166	150.0	-239039.0	-2289.0	-75599.0
11	18	47	26	166	151.0	-241806.0	-2301.0	-75448.0
11	18	47	26	167	153.0	-241592.0	-2309.0	-75087.0
11	18	47	26	167	154.0	-238806.0	-2324.0	-74284.0
11	18	47	26	168	155.0	-234531.0	-2337.0	-73282.0
11	18	47	26	168	156.0	-229131.0	-2361.0	-72435.0
11	18	47	26	169	157.0	-223322.0	-2364.0	-71566.0
11	18	47	26	170	158.0	-217709.0	-2352.0	-70607.0
11	18	47	26	201	159.0	-212404.0	-2361.0	-69917.0
11	18	47	26	202	160.0	-207739.0	-2393.0	-67717.0
11	18	47	26	204	161.0	-204062.0	-2398.0	-64497.0
11	18	47	26	205	162.0	-201415.0	-2404.0	-61889.0
11	18	47	26	206	163.0	-199537.0	-2417.0	-60564.0
11	18	47	26	206	164.0	-199085.0	-2439.0	-59761.0
11	18	47	26	207	165.0	-200039.0	-2442.0	-58947.0
11	18	47	26	207	166.0	-201642.0	-2461.0	-58642.0
11	18	47	26	208	167.0	-203344.0	-2468.0	-58517.0
11	18	47	26	209	168.0	-205448.0	-2489.0	-58166.0
11	18	47	26	209	169.0	-207294.0	-2523.0	-57852.0
11	18	47	26	210	170.0	-208419.0	-2549.0	-57782.0
11	18	47	26	211	171.0	-208858.0	-2550.0	-56792.0
11	18	47	26	211	172.0	-208714.0	-2561.0	-55441.0
11	18	47	26	212	173.0	-208050.0	-2570.0	-55432.0
11	18	47	26	212	175.0	-206032.0	-2579.0	-56481.0
11	18	47	26	213	176.0	-206141.0	-2621.0	-56749.0
11	18	47	26	213	177.0	-207486.0	-2620.0	-57499.0
11	18	47	26	214	178.0	-209743.0	-2627.0	-58482.0
11	18	47	26	214	179.0	-212550.0	-2652.0	-59276.0
11	18	47	26	215	180.0	-215987.0	-2675.0	-59582.0
11	18	47	26	246	181.0	-218761.0	-2674.0	-59569.0
11	18	47	26	248	182.0	-221300.0	-2684.0	-59853.0
11	18	47	26	249	183.0	-223194.0	-2678.0	-60552.0
11	18	47	26	250	184.0	-225231.0	-2688.0	-61168.0
11	18	47	26	250	185.0	-227483.0	-2714.0	-62226.0
11	18	47	26	251	186.0	-229484.0	-2739.0	-63784.0
11	18	47	26	252	187.0	-231130.0	-2756.0	-64402.0
11	18	47	26	252	188.0	-231461.0	-2782.0	-65223.0
11	18	47	26	253	189.0	-231145.0	-2798.0	-65927.0
11	18	47	26	254	190.0	-230615.0	-2816.0	-66434.0
11	18	47	26	255	191.0	-229792.0	-2825.0	-66754.0
11	18	47	26	256	192.0	-228853.0	-2825.0	-67042.0
11	18	47	26	257	193.0	-227545.0	-2834.0	-67309.0
11	18	47	26	258	194.0	-226412.0	-2830.0	-68004.0
11	18	47	26	258	195.0	-224857.0	-2851.0	-68649.0
11	18	47	26	259	197.0	-222931.0	-2856.0	-68838.0
11	18	47	26	259	198.0	-221926.0	-2872.0	-70066.0
11	18	47	26	260	199.0	-221088.0	-2879.0	-70973.0
11	18	47	26	261	200.0	-219991.0	-2887.0	-71267.0
11	18	47	26	261	201.0	-218874.0	-2899.0	-70962.0
11	18	47	26	262	202.0	-217631.0	-2882.0	-70854.0
11	18	47	26	262	203.0	-215852.0	-2870.0	-70999.0
11	18	47	26	290	204.0	-213297.0	-2860.0	-71121.0
11	18	47	26	291	205.0	-209876.0	-2859.0	-71324.0
11	18	47	26	292	206.0	-205698.0	-2835.0	-71954.0
11	18	47	26	293	207.0	-200963.0	-2816.0	-71906.0
11	18	47	26	294	208.0	-195982.0	-2820.0	-71718.0
11	18	47	26	294	209.0	-191240.0	-2787.0	-71534.0
11	18	47	26	295	210.0	-186891.0	-2789.0	-71258.0
11	18	47	26	296	211.0	-183276.0	-2770.0	-71265.0
11	18	47	26	296	212.0	-180382.0	-2742.0	-72119.0
11	18	47	26	297	213.0	-177823.0	-2704.0	-73043.0
11	18	47	26	298	214.0	-175253.0	-2679.0	-74172.0
11	18	47	26	298	215.0	-172991.0	-2633.0	-75459.0
11	18	47	26	299	216.0	-171432.0	-2609.0	-76517.0
11	18	47	26	299	217.0	-170861.0	-2567.0	-77237.0
11	18	47	26	300	218.0	-171124.0	-2532.0	-78344.0
11	18	47	26	301	220.0	-174526.0	-2446.0	-79896.0
11	18	47	26	301	221.0	-176427.0	-2392.0	-80255.0
11	18	47	26	302	222.0	-178279.0	-2327.0	-80196.0
11	18	47	26	302	223.0	-180482.0	-2275.0	-80609.0
11	18	47	26	303	224.0	-182831.0	-2198.0	-81384.0
11	18	47	26	304	225.0	-184974.0	-2138.0	-82152.0
11	18	47	26	336	226.0	-187129.0	-2072.0	-82267.0
11	18	47	26	338	227.0	-189593.0	-2006.0	-81945.0
11	18	47	26	339	228.0	-191609.0	-1952.0	-82317.0
11	18	47	26	340	229.0	-193132.0	-1886.0	-82096.0
11	18	47	26	341	230.0	-193858.0	-1832.0	-82123.0
11	18	47	26	341	231.0	-193950.0	-1767.0	-82056.0
11	18	47	26	342	232.0	-193599.0	-1701.0	-82167.0
11	18	47	26	343	233.0	-193187.0	-1637.0	-81854.0
11	18	47	26	343	234.0	-192752.0	-1563.0	-81242.0
11	18	47	26	344	235.0	-192352.0	-1493.0	-81314.0
11	18	47	26	345	236.0	-191889.0	-1424.0	-81044.0
11	18	47	26	345	237.0	-191610.0	-1372.0	-80952.0
11	18	47	26	346	238.0	-191254.0	-1303.0	-81167.0
11	18	47	26	347	239.0	-191289.0	-1231.0	-80557.0
11	18	47	26	347	240.0	-191728.0	-1191.0	-79647.0
11	18	47	26	348	242.0	-192484.0	-1081.0	-78450.0
11	18	47	26	349	243.0	-194346.0	-995.0	-77831.0
11	18	47	26	349	244.0	-197206.0	-926.0	-77518.0
11	18	47	26	350	245.0	-200255.0	-867.0	-78151.0
11	18	47	26	350	246.0	-202758.0	-796.0	-77919.0
11	18	47	26	351	247.0	-204742.0	-733.0	-77441.0
11	18	47	26	352	248.0	-205984.0	-693.0	-77838.0
11	18	47	26	381	249.0	-206557.0	-644.0	-77946.0
11	18	47	26	382	250.0	-206498.0	-602.0	-77926.0
11	18	47	26	382	251.0	-206036.0	-556.0	-77635.0
11	18	47	26	383	252.0	-205454.0	-492.0	-77994.0
11	18	47	26	384	253.0	-204475.0	-417.0	-77777.0
11	18	47	26	385	254.0	-202655.0	-381.0	-77229.0
11	18	47	26	385	255.0	-200272.0	-334.0	-76979.0
11	18	47	26	386	0.0	-196939.0	-298.0	-76640.0
11	18	47	26	387	1.0	-193091.0	-246.0	-76610.0
11	18	47	26	388	2.0	-189695.0	-210.0	-76879.0
11	18	47	26	389	3.0	-186005.0	-170.0	-76664.0
11	18	47	26	390	4.0	-183327.0	-149.0	-76489.0
11	18	47	26	390	5.0	-183252.0	-112.0	-76452.0
11	18	47	26	391	6.0	-181826.0	-55.0	-76275.0
11	18	47	26	392	7.0	-178756.0	-12.0	-76260.0
11	18	47	26	392	9.0	-178088.0	71.0	-76101.0
11	18	47	26	393	10.0	-175107.0	94.0	-76060.0
11	18	47	26	394	11.0	-177362.0	140.0	-76369.0
11	18	47	26	394	12.0	-178273.0	161.0	-77214.0
11	18	47	26	395	13.0	-176776.0	197.0	-77247.0
11	18	47	26	395	14.0	-174154.0	234.0	-77609.0
11	18	47	26	425	15.0	-169419.0	251.0	-77959.0
11	18	47	26	426	16.0	-164435.0	296.0	-77722.0
11	18	47	26	427	17.0	-160234.0	329.0	-77716.0
11	18	47	26	428	18.0	-158991.0	349.0	-78171.0
11	18	47	26	429	19.0	-158867.0	372.0	-77789.0
11	18	47	26	429	20.0	-159272.0	383.0	-77713.0
11	18	47	26	430	21.0	-161282.0	403.0	-77708.0
11	18	47	26	431	22.0	-163866.0	413.0	-77934.0
11	18	47	26	431	23.0	-167556.0	428.0	-77714.0
11	18	47	26	432	24.0	-173255.0	441.0	-77535.0
11	18	47	26	433	25.0	-180465.0	465.0	-77046.0
11	18	47	26	434	26.0	-189412.0	494.0	-76876.0
11	18	47	26	435	27.0	-199493.0	521.0	-76663.0
11	18	47	26	436	28.0	-210059.0	538.0	-76937.0
11	18	47	26	437	29.0	-220139.0	534.0	-77109.0
11	18	47	26	438	31.0	-235494.0	568.0	-76859.0
11	18	47	26	439	32.0	-239192.0	565.0	-77176.0
11	18	47	26	439	33.0	-240585.0	556.0	-76622.0
11	18	47	26	440	34.0	-239301.0	601.0	-75917.0
11	18	47	26	440	35.0	-235949.0	619.0	-75032.0
11	18	47	26	441	36.0	-230144.0	654.0	-74681.0
11	18	47	26	442	37.0	-222179.0	666.0	-74565.0
11	18	47	26	470	38.0	-212766.0	658.0	-74652.0
11	18	47	26	471	39.0	-202762.0	663.0	-75043.0
11	18	47	26	472	40.0	-192985.0	679.0	-75288.0
11	18	47	26	473	41.0	-184322.0	689.0	-75154.0
11	18	47	26	473	42.0	-177538.0	684.0	-75079.0
11	18	47	26	474	43.0	-172509.0	683.0	-74601.0
11	18	47	26	475	44.0	-169067.0	686.0	-74416.0
11	18	47	26	476	45.0	-167695.0	705.0	-74054.0
11	18	47	26	477	46.0	-167712.0	723.0	-73502.0
11	18	47	26	477	47.0	-168807.0	725.0	-73554.0
11	18	47	26	478	48.0	-171194.0	724.0	-73516.0
11	18	47	26	479	49.0	-173988.0	732.0	-72977.0
11	18	47	26	479	50.0	-176929.0	743.0	-73200.0
11	18	47	26	480	51.0	-179224.0	751.0	-73273.0
11	18	47	26	481	52.0	-180951.0	748.0	-73436.0
11	18	47	26	482	54.0	-183209.0	738.0	-74308.0
11	18	47	26	483	55.0	-185279.0	764.0	-73697.0
11	18	47	26	484	56.0	-188062.0	769.0	-73086.0
11	18	47	26	485	57.0	-191226.0	760.0	-73397.0
11	18	47	26	486	58.0	-193789.0	744.0	-73719.0
11	18	47	26	486	59.0	-195408.0	758.0	-73467.0
11	18	47	26	517	60.0	-195983.0	744.0	-73361.0
11	18	47	26	518	61.0	-196384.0	747.0	-73671.0
11	18	47	26	519	62.0	-196721.0	741.0	-73919.0
11	18	47	26	520	63.0	-196929.0	721.0	-74017.0
11	18	47	26	521	64.0	-196997.0	691.0	-74246.0
11	18	47	26	521	65.0	-196320.0	681.0	-73777.0
11	18	47	26	522	66.0	-195267.0	689.0	-74039.0
11	18	47	26	523	67.0	-195141.0	664.0	-75157.0
11	18	47	26	524	68.0	-195209.0	653.0	-75727.0
11	18	47	26	525	69.0	-195547.0	656.0	-76144.0
11	18	47	26	526	70.0	-196849.0	651.0	-76235.0
11	18	47	26	526	71.0	-197552.0	619.0	-77070.0
11	18	47	26	527	72.0	-197714.0	599.0	-78425.0
11	18	47	26	528	73.0	-198328.0	567.0	-79122.0
11	18	47	26	529	74.0	-199087.0	559.0	-80007.0
11	18	47	26	529	76.0	-201695.0	553.0	-81226.0
11	18	47	26	530	77.0	-204208.0	529.0	-82911.0
11	18	47	26	530	78.0	-206121.0	505.0	-84413.0
11	18	47	26	531	79.0	-206921.0	507.0	-85620.0
11	18	47	26	532	80.0	-207547.0	498.0	-86985.0
11	18	47	26	532	81.0	-207675.0	481.0	-88499.0
11	18	47	26	533	82.0	-207057.0	466.0	-89504.0
11	18	47	26	562	83.0	-206250.0	442.0	-90212.0
11	18	47	26	563	84.0	-204932.0	431.0	-91186.0
11	18	47	26	564	85.0	-202954.0	428.0	-91971.0
11	18	47	26	565	86.0	-200029.0	408.0	-93374.0
11	18	47	26	565	87.0	-196639.0	415.0	-94712.0
11	18	47	26	566	88.0	-194108.0	399.0	-95597.0
11	18	47	26	567	89.0	-192484.0	358.0	-95886.0
11	18	47	26	568	90.0	-191770.0	342.0	-96479.0
11	18	47	26	569	91.0	-192299.0	341.0	-97294.0
11	18	47	26	570	92.0	-192982.0	299.0	-97936.0
11	18	47	26	570	93.0	-194413.0	278.0	-98107.0
11	18	47	26	571	94.0	-196134.0	259.0	-98443.0
11	18	47	26	572	95.0	-198004.0	239.0	-98359.0
11	18	47	26	573	96.0	-198704.0	242.0	-98864.0
11	18	47	26	573	97.0	-198674.0	240.0	-99733.0
11	18	47	26	574	99.0	-195662.0	209.0	-101248.0
11	18	47	26	575	100.0	-192639.0	197.0	-102423.0
11	18	47	26	576	101.0	-189992.0	163.0	-102967.0
11	18	47	26	576	102.0	-187217.0	141.0	-103270.0
11	18	47	26	577	103.0	-185077.0	129.0	-103177.0
11	18	47	26	577	104.0	-184569.0	137.0	-103073.0
11	18	47	26	607	105.0	-184981.0	132.0	-102568.0
11	18	47	26	608	106.0	-185525.0	118.0	-102606.0
11	18	47	26	609	107.0	-186044.0	91.0	-102736.0
11	18	47	26	610	108.0	-187383.0	81.0	-102913.0
11	18	47	26	611	109.0	-188959.0	56.0	-103237.0
11	18	47	26	612	110.0	-190003.0	63.0	-103269.0
11	18	47	26	613	111.0	-191735.0	38.0	-103453.0
11	18	47	26	613	112.0	-193455.0	-2.0	-103619.0
11	18	47	26	614	113.0	-193841.0	-19.0	-103759.0
11	18	47	26	615	114.0	-193516.0	-37.0	-103413.0
11	18	47	26	616	115.0	-193482.0	-42.0	-103188.0
11	18	47	26	617	116.0	-193878.0	-50.0	-103762.0
11	18	47	26	618	117.0	-194864.0	-60.0	-104097.0
11	18	47	26	618	118.0	-196011.0	-80.0	-103701.0
11	18	47	26	619	119.0	-197779.0	-89.0	-103588.0
11	18	47	26	620	121.0	-202086.0	-133.0	-103730.0
11	18	47	26	620	122.0	-203808.0	-161.0	-104592.0
11	18	47	26	621	123.0	-205466.0	-174.0	-104869.0
11	18	47	26	622	124.0	-206398.0	-176.0	-104488.0
11	18	47	26	622	125.0	-206689.0	-192.0	-104072.0
11	18	47	26	623	126.0	-206877.0	-188.0	-103744.0
11	18	47	26	651	127.0	-206206.0	-206.0	-103482.0
11	18	47	26	652	128.0	-204251.0	-233.0	-102871.0
11	18	47	26	653	129.0	-201888.0	-229.0	-103104.0
11	18	47	26	655	130.0	-199117.0	-246.0	-103630.0
11	18	47	26	656	131.0	-197302.0	-270.0	-104282.0
11	18	47	26	656	132.0	-196313.0	-289.0	-105172.0
11	18	47	26	657	133.0	-195328.0	-306.0	-105382.0
11	18	47	26	658	134.0	-195322.0	-321.0	-105351.0
11	18	47	26	659	135.0	-196393.0	-347.0	-105389.0
11	18	47	26	660	136.0	-196736.0	-356.0	-106126.0
11	18	47	26	661	137.0	-197071.0	-366.0	-106463.0
11	18	47	26	661	138.0	-197609.0	-381.0	-106627.0
11	18	47	26	662	139.0	-197633.0	-399.0	-106594.0
11	18	47	26	663	140.0	-197746.0	-424.0	-107281.0
11	18	47	26	663	141.0	-198710.0	-441.0	-107902.0
11	18	47	26	664	143.0	-200024.0	-485.0	-108084.0
11	18	47	26	665	144.0	-200314.0	-504.0	-107840.0
11	18	47	26	665	145.0	-200258.0	-503.0	-107772.0
11	18	47	26	666	146.0	-200344.0	-511.0	-107610.0
11	18	47	26	667	147.0	-199648.0	-533.0	-107187.0
11	18	47	26	667	148.0	-198017.0	-554.0	-107234.0
11	18	47	26	668	149.0	-197124.0	-576.0	-107776.0
11	18	47	26	696	150.0	-197522.0	-581.0	-107965.0
11	18	47	26	697	151.0	-198856.0	-589.0	-108399.0
11	18	47	26	698	152.0	-199653.0	-618.0	-108548.0
11	18	47	26	699	153.0	-201286.0	-647.0	-108068.0
11	18	47	26	700	154.0	-203164.0	-667.0	-107691.0
11	18	47	26	701	155.0	-204944.0	-691.0	-107367.0
11	18	47	26	702	156.0	-206809.0	-704.0	-107331.0
11	18	47	26	702	157.0	-209279.0	-716.0	-107141.0
11	18	47	26	703	158.0	-211601.0	-726.0	-107242.0
11	18	47	26	704	159.0	-213626.0	-748.0	-107133.0
11	18	47	26	705	160.0	-214801.0	-771.0	-107139.0
11	18	47	26	706	161.0	-215148.0	-816.0	-108116.0
11	18	47	26	706	162.0	-214811.0	-836.0	-109244.0
11	18	47	26	707	163.0	-214542.0	-845.0	-109642.0
11	18	47	26	708	164.0	-213867.0	-861.0	-109181.0
11	18	47	26	708	166.0	-207732.0	-906.0	-109201.0
11	18	47	26	709	167.0	-204476.0	-907.0	-109109.0
11	18	47	26	710	168.0	-200767.0	-939.0	-108661.0
11	18	47	26	710	169.0	-196209.0	-949.0	-108485.0
11	18	47	26	711	170.0	-192320.0	-967.0	-108052.0
11	18	47	26	712	171.0	-189446.0	-1009.0	-108192.0
11	18	47	26	741	172.0	-187059.0	-1052.0	-108680.0
11	18	47	26	742	173.0	-186212.0	-1054.0	-108688.0
11	18	47	26	743	174.0	-187244.0	-1056.0	-108089.0
11	18	47	26	744	175.0	-188604.0	-1093.0	-107603.0
11	18	47	26	745	176.0	-189702.0	-1114.0	-107602.0
11	18	47	26	745	177.0	-191354.0	-1106.0	-107329.0
11	18	47	26	746	178.0	-192423.0	-1128.0	-106887.0
11	18	47	26	747	179.0	-192873.0	-1169.0	-106451.0
11	18	47	26	748	180.0	-194144.0	-1199.0	-106094.0
11	18	47	26	749	181.0	-195229.0	-1231.0	-105846.0
11	18	47	26	750	182.0	-197036.0	-1266.0	-105558.0
11	18	47	26	750	183.0	-200108.0	-1284.0	-105237.0
11	18	47	26	751	184.0	-203328.0	-1306.0	-104293.0
11	18	47	26	752	185.0	-206509.0	-1334.0	-103877.0
11	18	47	26	753	186.0	-209794.0	-1352.0	-103621.0
11	18	47	26	753	188.0	-214378.0	-1398.0	-103658.0
11	18	47	26	754	189.0	-215094.0	-1427.0	-104286.0
11	18	47	26	755	190.0	-215772.0	-1466.0	-104841.0
11	18	47	26	755	191.0	-216845.0	-1481.0	-105696.0
11	18	47	26	756	192.0	-217788.0	-1515.0	-106241.0
11	18	47	26	757	193.0	-218651.0	-1547.0	-105964.0
11	18	47	26	757	194.0	-219254.0	-1574.0	-105999.0
11	18	47	26	786	195.0	-219214.0	-1592.0	-106022.0
11	18	47	26	787	196.0	-218496.0	-1614.0	-105849.0
11	18	47	26	788	197.0	-218079.0	-1654.0	-106034.0
11	18	47	26	789	198.0	-216369.0	-1686.0	-106262.0
11	18	47	26	790	199.0	-213689.0	-1706.0	-106498.0
11	18	47	26	790	200.0	-211680.0	-1732.0	-106684.0
11	18	47	26	791	201.0	-209934.0	-1771.0	-107579.0
11	18	47	26	792	202.0	-207980.0	-1812.0	-107824.0
11	18	47	26	793	203.0	-206699.0	-1857.0	-107289.0
11	18	47	26	794	204.0	-206411.0	-1875.0	-106644.0
11	18	47	26	795	205.0	-205756.0	-1894.0	-106161.0
11	18	47	26	796	206.0	-204188.0	-1918.0	-106340.0
11	18	47	26	797	207.0	-203116.0	-1941.0	-106860.0
11	18	47	26	797	208.0	-203025.0	-1961.0	-107949.0
11	18	47	26	798	209.0	-202937.0	-1991.0	-108199.0
11	18	47	26	799	211.0	-200452.0	-2032.0	-107750.0
11	18	47	26	799	212.0	-199396.0	-2080.0	-107591.0
11	18	47	26	800	213.0	-197062.0	-2121.0	-107308.0
11	18	47	26	801	214.0	-194432.0	-2144.0	-106791.0
11	18	47	26	801	215.0	-192892.0	-2147.0	-106632.0
11	18	47	26	802	216.0	-190637.0	-2174.0	-106754.0
11	18	47	26	831	217.0	-189600.0	-2209.0	-107284.0
11	18	47	26	832	218.0	-190930.0	-2232.0	-108437.0
11	18	47	26	833	219.0	-193454.0	-2255.0	-109910.0
11	18	47	26	833	220.0	-196146.0	-2278.0	-110721.0
11	18	47	26	834	221.0	-199516.0	-2292.0	-111905.0
11	18	47	26	835	222.0	-204352.0	-2332.0	-112382.0
11	18	47	26	836	223.0	-208175.0	-2366.0	-112453.0
11	18	47	26	837	224.0	-211662.0	-2398.0	-112304.0
11	18	47	26	838	225.0	-215495.0	-2410.0	-111737.0
11	18	47	26	838	226.0	-218083.0	-2424.0	-111254.0
11	18	47	26	839	227.0	-219446.0	-2459.0	-110950.0
11	18	47	26	840	228.0	-220259.0	-2482.0	-110539.0
11	18	47	26	841	229.0	-220461.0	-2500.0	-110232.0
11	18	47	26	842	230.0	-220550.0	-2529.0	-110368.0
11	18	47	26	842	231.0	-220866.0	-2554.0	-110831.0
11	18	47	26	843	233.0	-220557.0	-2629.0	-110318.0
11	18	47	26	844	234.0	-219040.0	-2649.0	-109618.0
11	18	47	26	844	235.0	-217092.0	-2651.0	-108658.0
11	18	47	26	845	236.0	-214303.0	-2687.0	-108184.0
11	18	47	26	846	237.0	-211313.0	-2707.0	-108182.0
11	18	47	26	846	238.0	-208832.0	-2731.0	-108169.0
11	18	47	26	847	239.0	-206470.0	-2765.0	-107672.0
11	18	47	26	876	240.0	-203970.0	-2780.0	-107842.0
11	18	47	26	877	241.0	-202657.0	-2823.0	-108621.0
11	18	47	26	878	242.0	-203174.0	-2856.0	-108347.0
11	18	47	26	879	243.0	-205030.0	-2879.0	-107640.0
11	18	47	26	880	244.0	-206313.0	-2901.0	-107264.0
11	18	47	26	880	245.0	-207363.0	-2913.0	-107305.0
11	18	47	26	881	246.0	-209069.0	-2947.0	-107136.0
11	18	47	26	882	247.0	-209407.0	-2960.0	-107344.0
11	18	47	26	883	248.0	-209372.0	-2979.0	-107467.0
11	18	47	26	884	249.0	-210152.0	-3014.0	-107267.0
11	18	47	26	885	250.0	-211132.0	-3044.0	-107200.0
11	18	47	26	885	251.0	-211699.0	-3077.0	-107404.0
11	18	47	26	886	252.0	-212806.0	-3103.0	-106755.0
11	18	47	26	887	253.0	-214795.0	-3134.0	-106624.0
11	18	47	26	888	254.0	-217354.0	-3129.0	-106163.0
11	18	47	26	888	0.0	-221072.0	-3172.0	-104962.0
11	18	47	26	889	1.0	-221491.0	-3189.0	-105105.0
11	18	47	26	890	2.0	-220666.0	-3202.0	-105727.0
11	18	47	26	890	3.0	-218840.0	-3216.0	-106504.0
11	18	47	26	891	4.0	-216843.0	-3249.0	-106848.0
11	18	47	26	892	5.0	-214740.0	-3289.0	-107599.0
11	18	47	26	921	6.0	-212043.0	-3326.0	-108290.0
11	18	47	26	922	7.0	-208687.0	-3356.0	-109196.0
11	18	47	26	923	8.0	-205086.0	-3352.0	-109474.0
11	18	47	26	923	9.0	-200354.0	-3364.0	-109232.0
11	18	47	26	924	10.0	-195257.0	-3381.0	-109657.0
11	18	47	26	925	11.0	-190748.0	-3396.0	-109884.0
11	18	47	26	926	12.0	-185219.0	-3422.0	-109557.0
11	18	47	26	927	13.0	-180764.0	-3442.0	-108944.0
11	18	47	26	928	14.0	-177791.0	-3456.0	-108244.0
11	18	47	26	928	15.0	-175944.0	-3493.0	-107624.0
11	18	47	26	929	16.0	-174254.0	-3525.0	-106466.0
11	18	47	26	930	17.0	-173749.0	-3551.0	-105678.0
11	18	47	26	930	18.0	-175317.0	-3557.0	-105700.0
11	18	47	26	931	19.0	-177850.0	-3568.0	-105891.0
11	18	47	26	932	20.0	-180888.0	-3592.0	-106931.0
11	18	47	26	933	22.0	-190526.0	-3626.0	-108754.0
11	18	47	26	934	23.0	-195308.0	-3643.0	-107844.0
11	18	47	26	934	24.0	-200053.0	-3669.0	-106791.0
11	18	47	26	966	25.0	-205256.0	-3696.0	-107231.0
11	18	47	26	966	26.0	-210657.0	-3716.0	-107724.0
11	18	47	26	967	27.0	-215429.0	-3741.0	-109077.0
11	18	47	26	968	28.0	-218787.0	-3747.0	-110901.0
11	18	47	26	969	29.0	-220387.0	-3764.0	-111778.0
11	18	47	26	970	30.0	-220944.0	-3788.0	-111014.0
11	18	47	26	971	31.0	-220552.0	-3814.0	-107532.0
11	18	47	26	971	32.0	-218336.0	-3844.0	-98927.0
11	18	47	26	972	33.0	-215846.0	-3852.0	-90077.0
11	18	47	26	973	34.0	-213314.0	-3851.0	-82926.0
11	18	47	26	974	35.0	-210864.0	-3874.0	-77481.0
11	18	47	26	975	36.0	-208336.0	-3908.0	-73199.0
11	18	47	26	975	37.0	-205342.0	-3922.0	-70116.0
11	18	47	26	976	38.0	-201835.0	-3932.0	-67017.0
11	18	47	26	977	39.0	-198239.0	-3951.0	-65727.0
11	18	47	26	978	45.0	-189981.0	-4071.0	-85014.0
11	18	47	26	978	46.0	-190179.0	-4107.0	-89903.0
11	18	47	26	979	47.0	-190241.0	-4127.0	-93704.0
11	18	47	26	980	48.0	-190400.0	-4126.0	-96174.0
11	18	47	26	980	49.0	-191327.0	-4129.0	-98439.0
11	18	47	26	981	50.0	-193039.0	-4136.0	-100602.0
11	18	47	27	11	51.0	-193948.0	-4158.0	-101845.0
11	18	47	27	12	52.0	-196452.0	-4158.0	-102867.0
11	18	47	27	13	53.0	-200234.0	-4176.0	-103955.0
11	18	47	27	14	54.0	-201927.0	-4212.0	-104810.0
11	18	47	27	15	55.0	-200563.0	-4216.0	-105785.0
11	18	47	27	16	56.0	-196962.0	-4229.0	-106731.0
11	18	47	27	17	57.0	-192600.0	-4249.0	-107989.0
11	18	47	27	17	58.0	-189409.0	-4257.0	-108244.0
11	18	47	27	18	59.0	-187123.0	-4264.0	-108584.0
11	18	47	27	19	60.0	-186347.0	-4264.0	-109437.0
11	18	47	27	20	61.0	-187249.0	-4271.0	-110469.0
11	18	47	27	20	62.0	-189842.0	-4282.0	-110771.0
11	18	47	27	21	63.0	-191799.0	-4291.0	-110667.0
11	18	47	27	22	64.0	-191867.0	-4302.0	-110506.0
11	18	47	27	23	65.0	-190963.0	-4325.0	-110174.0
11	18	47	27	23	67.0	-187557.0	-4356.0	-110074.0
11	18	47	27	24	68.0	-184427.0	-4357.0	-109556.0
11	18	47	27	25	69.0	-180691.0	-4372.0	-109087.0
11	18	47	27	25	70.0	-177026.0	-4388.0	-109427.0
11	18	47	27	26	71.0	-172474.0	-4394.0	-109451.0
11	18	47	27	27	72.0	-166264.0	-4393.0	-109704.0
11	18	47	27	56	73.0	-158759.0	-4390.0	-109916.0
11	18	47	27	57	74.0	-151702.0	-4412.0	-110252.0
11	18	47	27	58	75.0	-145203.0	-4423.0	-110910.0
11	18	47	27	59	76.0	-140846.0	-4434.0	-111315.0
11	18	47	27	60	77.0	-139157.0	-4456.0	-111387.0
11	18	47	27	61	78.0	-140282.0	-4458.0	-110888.0
11	18	47	27	62	79.0	-143882.0	-4461.0	-110671.0
11	18	47	27	62	80.0	-148644.0	-4461.0	-110826.0
11	18	47	27	63	81.0	-155043.0	-4479.0	-111191.0
11	18	47	27	64	82.0	-162907.0	-4489.0	-111550.0
11	18	47	27	65	83.0	-170623.0	-4502.0	-111869.0
11	18	47	27	66	84.0	-178216.0	-4521.0	-112321.0
11	18	47	27	66	85.0	-184896.0	-4529.0	-113211.0
11	18	47	27	67	86.0	-190952.0	-4538.0	-113517.0
11	18	47	27	68	87.0	-197299.0	-4555.0	-113635.0
11	18	47	27	69	89.0	-206172.0	-4571.0	-113009.0
11	18	47	27	69	90.0	-209512.0	-4577.0	-113161.0
11	18	47	27	70	91.0	-212416.0	-4579.0	-113347.0
11	18	47	27	71	92.0	-215019.0	-4572.0	-113429.0
11	18	47	27	71	93.0	-217087.0	-4587.0	-113382.0
11	18	47	27	72	94.0	-218467.0	-4608.0	-112858.0
11	18	47	27	73	95.0	-220690.0	-4627.0	-113052.0
11	18	47	27	101	96.0	-222134.0	-4629.0	-114238.0
11	18	47	27	102	97.0	-223369.0	-4641.0	-114654.0
11	18	47	27	103	98.0	-225617.0	-4631.0	-114179.0
11	18	47	27	104	99.0	-227471.0	-4641.0	-114411.0
11	18	47	27	105	100.0	-229203.0	-4654.0	-114473.0
11	18	47	27	105	101.0	-231564.0	-4689.0	-114334.0
11	18	47	27	106	102.0	-234508.0	-4697.0	-114253.0
11	18	47	27	107	103.0	-237866.0	-4702.0	-113998.0
11	18	47	27	108	104.0	-240081.0	-4711.0	-113213.0
11	18	47	27	109	105.0	-241016.0	-4737.0	-112360.0
11	18	47	27	109	106.0	-241132.0	-4746.0	-111494.0
11	18	47	27	110	107.0	-240990.0	-4752.0	-110491.0
11	18	47	27	111	108.0	-239298.0	-4755.0	-107208.0
11	18	47	27	111	109.0	-235659.0	-4774.0	-100981.0
11	18	47	27	112	110.0	-231000.0	-4798.0	-96019.0
11	18	47	27	113	112.0	-219821.0	-4819.0	-90871.0
11	18	47	27	114	113.0	-213193.0	-4829.0	-88649.0
11	18	47	27	114	114.0	-205572.0	-4845.0	-87506.0
11	18	47	27	115	115.0	-198213.0	-4866.0	-86419.0
11	18	47	27	116	116.0	-190907.0	-4891.0	-85567.0
11	18	47	27	116	117.0	-184769.0	-4902.0	-84299.0
11	18	47	27	146	118.0	-179497.0	-4901.0	-82849.0
11	18	47	27	147	119.0	-175441.0	-4899.0	-81972.0
11	18	47	27	147	120.0	-173824.0	-4904.0	-81176.0
11	18	47	27	148	121.0	-172031.0	-4921.0	-80651.0
11	18	47	27	149	122.0	-170368.0	-4949.0	-80034.0
11	18	47	27	150	123.0	-169778.0	-4975.0	-79515.0
11	18	47	27	150	124.0	-168169.0	-4972.0	-78809.0
11	18	47	27	151	125.0	-167197.0	-5003.0	-78791.0
11	18	47	27	152	126.0	-167184.0	-5036.0	-77985.0
11	18	47	27	153	127.0	-167844.0	-5062.0	-76902.0
11	18	47	27	154	128.0	-169266.0	-5059.0	-75952.0
11	18	47	27	154	129.0	-170579.0	-5061.0	-75309.0
11	18	47	27	155	130.0	-172268.0	-5069.0	-74097.0
11	18	47	27	156	131.0	-174570.0	-5085.0	-72427.0
11	18	47	27	157	132.0	-177042.0	-5117.0	-70774.0
11	18	47	27	157	134.0	-181913.0	-5132.0	-64976.0
11	18	47	27	158	135.0	-185315.0	-5175.0	-61937.0
11	18	47	27	159	136.0	-190298.0	-5182.0	-59566.0
11	18	47	27	159	137.0	-196177.0	-5206.0	-56996.0
11	18	47	27	160	138.0	-203066.0	-5211.0	-54734.0
11	18	47	27	161	139.0	-209933.0	-5226.0	-53431.0
11	18	47	27	161	140.0	-215917.0	-5228.0	-51981.0
11	18	47	27	191	141.0	-221401.0	-5221.0	-50632.0
11	18	47	27	192	142.0	-225953.0	-5246.0	-50076.0
11	18	47	27	193	143.0	-230240.0	-5262.0	-49431.0
11	18	47	27	194	144.0	-234183.0	-5281.0	-48597.0
11	18	47	27	195	145.0	-237039.0	-5324.0	-47792.0
11	18	47	27	195	146.0	-238910.0	-5353.0	-46959.0
11	18	47	27	196	147.0	-238459.0	-5365.0	-45767.0
11	18	47	27	197	148.0	-236116.0	-5382.0	-44817.0
11	18	47	27	198	149.0	-233427.0	-5373.0	-44102.0
11	18	47	27	199	150.0	-229746.0	-5394.0	-43384.0
11	18	47	27	200	151.0	-225643.0	-5414.0	-42428.0
11	18	47	27	201	152.0	-220262.0	-5417.0	-41297.0
11	18	47	27	202	153.0	-214762.0	-5448.0	-39940.0
11	18	47	27	203	154.0	-209153.0	-5442.0	-38620.0
11	18	47	27	203	155.0	-203705.0	-5474.0	-37691.0
11	18	47	27	204	157.0	-193203.0	-5497.0	-35436.0
11	18	47	27	205	158.0	-188864.0	-5493.0	-35055.0
11	18	47	27	206	159.0	-184579.0	-5486.0	-35147.0
11	18	47	27	206	160.0	-180766.0	-5487.0	-34789.0
11	18	47	27	207	161.0	-176557.0	-5481.0	-34309.0
11	18	47	27	208	162.0	-171733.0	-5480.0	-34162.0
11	18	47	27	236	163.0	-167173.0	-5482.0	-33899.0
11	18	47	27	237	164.0	-163266.0	-5487.0	-33431.0
11	18	47	27	238	165.0	-160472.0	-5482.0	-32824.0
11	18	47	27	239	166.0	-159388.0	-5483.0	-32175.0
11	18	47	27	240	167.0	-160039.0	-5477.0	-31775.0
11	18	47	27	240	168.0	-162801.0	-5456.0	-31704.0
11	18	47	27	241	169.0	-166781.0	-5451.0	-31602.0
11	18	47	27	242	170.0	-171284.0	-5445.0	-30992.0
11	18	47	27	243	171.0	-176916.0	-5425.0	-30724.0
11	18	47	27	244	172.0	-181401.0	-5397.0	-30156.0
11	18	47	27	244	173.0	-184382.0	-5398.0	-28857.0
11	18	47	27	245	174.0	-186972.0	-5394.0	-28511.0
11	18	47	27	246	175.0	-188609.0	-5371.0	-29114.0
11	18	47	27	247	176.0	-188979.0	-5354.0	-28832.0
11	18	47	27	247	177.0	-188741.0	-5339.0	-28412.0
11	18	47	27	248	179.0	-189006.0	-5265.0	-28293.0
11	18	47	27	249	180.0	-189302.0	-5247.0	-28009.0
11	18	47	27	249	181.0	-188932.0	-5214.0	-28198.0
11	18	47	27	250	182.0	-189063.0	-5189.0	-28096.0
11	18	47	27	251	183.0	-188724.0	-5147.0	-27617.0
11	18	47	27	251	184.0	-188696.0	-5111.0	-27388.0
11	18	47	27	252	185.0	-189564.0	-5067.0	-27507.0
11	18	47	27	283	186.0	-189964.0	-5036.0	-26953.0
11	18	47	27	284	187.0	-191435.0	-4991.0	-26373.0
11	18	47	27	285	188.0	-192797.0	-4929.0	-25231.0
11	18	47	27	286	189.0	-193794.0	-4879.0	-24551.0
11	18	47	27	287	190.0	-194194.0	-4836.0	-24491.0
11	18	47	27	287	191.0	-193911.0	-4787.0	-24754.0
11	18	47	27	288	192.0	-193359.0	-4756.0	-25006.0
11	18	47	27	289	193.0	-193541.0	-4721.0	-24512.0
11	18	47	27	290	194.0	-193979.0	-4666.0	-24549.0
11	18	47	27	291	195.0	-194546.0	-4615.0	-24458.0
11	18	47	27	291	196.0	-195686.0	-4602.0	-24907.0
11	18	47	27	292	197.0	-196499.0	-4544.0	-24236.0
11	18	47	27	293	198.0	-196751.0	-4487.0	-23552.0
11	18	47	27	293	199.0	-196601.0	-4450.0	-22888.0
11	18	47	27	294	200.0	-195431.0	-4398.0	-22465.0
11	18	47	27	295	202.0	-192796.0	-4307.0	-21103.0
11	18	47	27	295	203.0	-191532.0	-4237.0	-20567.0
11	18	47	27	296	204.0	-191187.0	-4211.0	-20686.0
11	18	47	27	297	205.0	-190954.0	-4171.0	-19951.0
11	18	47	27	297	206.0	-190408.0	-4107.0	-19068.0
11	18	47	27	298	207.0	-189476.0	-4070.0	-19129.0
11	18	47	27	326	208.0	-188277.0	-4024.0	-18831.0
11	18	47	27	327	209.0	-186721.0	-3971.0	-18804.0
11	18	47	27	328	210.0	-184317.0	-3926.0	-18651.0
11	18	47	27	329	211.0	-182279.0	-3880.0	-18677.0
11	18	47	27	330	212.0	-180905.0	-3853.0	-18147.0
11	18	47	27	331	213.0	-180074.0	-3821.0	-16824.0
11	18	47	27	331	214.0	-181402.0	-3793.0	-16579.0
11	18	47	27	332	215.0	-184082.0	-3780.0	-16669.0
11	18	47	27	333	216.0	-185249.0	-3749.0	-16694.0
11	18	47	27	334	217.0	-186969.0	-3714.0	-16436.0
11	18	47	27	335	218.0	-192066.0	-3662.0	-16649.0
11	18	47	27	335	219.0	-195598.0	-3634.0	-16616.0
11	18	47	27	336	220.0	-199152.0	-3598.0	-16539.0
11	18	47	27	337	221.0	-204327.0	-3563.0	-16685.0
11	18	47	27	337	222.0	-207040.0	-3544.0	-17060.0
11	18	47	27	338	224.0	-206464.0	-3507.0	-17076.0
11	18	47	27	339	225.0	-203488.0	-3500.0	-16672.0
11	18	47	27	339	226.0	-199408.0	-3470.0	-16221.0
11	18	47	27	340	227.0	-196386.0	-3435.0	-15720.0
11	18	47	27	341	228.0	-194457.0	-3418.0	-15351.0
11	18	47	27	341	229.0	-191915.0	-3402.0	-15379.0
11	18	47	27	416	230.0	-189557.0	-3369.0	-15142.0
11	18	47	27	417	231.0	-186774.0	-3340.0	-14861.0
11	18	47	27	418	232.0	-182268.0	-3328.0	-14985.0
11	18	47	27	419	233.0	-178022.0	-3313.0	-15102.0
11	18	47	27	419	234.0	-175062.0	-3331.0	-14990.0
11	18	47	27	420	235.0	-173210.0	-3317.0	-14654.0
11	18	47	27	421	236.0	-172355.0	-3302.0	-14684.0
11	18	47	27	422	237.0	-173601.0	-3280.0	-14914.0
11	18	47	27	423	238.0	-176722.0	-3265.0	-15004.0
11	18	47	27	423	239.0	-181471.0	-3236.0	-15305.0
11	18	47	27	424	240.0	-186818.0	-3235.0	-15252.0
11	18	47	27	425	241.0	-192523.0	-3231.0	-15245.0
11	18	47	27	426	242.0	-197321.0	-3228.0	-15134.0
11	18	47	27	426	243.0	-201337.0	-3226.0	-15594.0
11	18	47	27	427	244.0	-204627.0	-3226.0	-15867.0
11	18	47	27	428	13.0	-179652.0	-3244.0	-14182.0
11	18	47	27	428	14.0	-180374.0	-3271.0	-14309.0
11	18	47	27	429	15.0	-181557.0	-3255.0	-13412.0
11	18	47	27	430	16.0	-182917.0	-3251.0	-12273.0
11	18	47	27	430	17.0	-184829.0	-3265.0	-11426.0
11	18	47	27	431	18.0	-186926.0	-3275.0	-10556.0
11	18	47	27	462	19.0	-188762.0	-3284.0	-10077.0
11	18	47	27	463	20.0	-190815.0	-3299.0	-9821.0
11	18	47	27	463	21.0	-192622.0	-3288.0	-8852.0
11	18	47	27	464	22.0	-194126.0	-3304.0	-7941.0
11	18	47	27	465	23.0	-195185.0	-3312.0	-6857.0
11	18	47	27	466	24.0	-196197.0	-3299.0	-3727.0
11	18	47	27	467	25.0	-197324.0	-3326.0	-134.0
11	18	47	27	467	26.0	-198194.0	-3335.0	2349.0
11	18	47	27	468	27.0	-198591.0	-3360.0	4346.0
11	18	47	27	469	28.0	-199130.0	-3389.0	5664.0
11	18	47	27	470	29.0	-199880.0	-3384.0	7016.0
11	18	47	27	470	30.0	-199886.0	-3391.0	7893.0
11	18	47	27	471	31.0	-199730.0	-3383.0	8490.0
11	18	47	27	472	32.0	-199566.0	-3392.0	9302.0
11	18	47	27	473	33.0	-199002.0	-3401.0	9638.0
11	18	47	27	473	35.0	-198392.0	-3425.0	9747.0
11	18	47	27	474	36.0	-197782.0	-3434.0	10060.0
11	18	47	27	475	37.0	-197076.0	-3439.0	10026.0
11	18	47	27	475	38.0	-196841.0	-3456.0	9655.0
11	18	47	27	476	39.0	-196721.0	-3471.0	9654.0
11	18	47	27	477	40.0	-196349.0	-3479.0	9601.0
11	18	47	27	477	41.0	-196549.0	-3484.0	9596.0
11	18	47	27	508	42.0	-196581.0	-3470.0	9169.0
11	18	47	27	508	43.0	-196515.0	-3488.0	8433.0
11	18	47	27	509	44.0	-195707.0	-3521.0	8088.0
11	18	47	27	510	45.0	-195092.0	-3534.0	8185.0
11	18	47	27	511	46.0	-194834.0	-3511.0	9110.0
11	18	47	27	512	47.0	-195510.0	-3520.0	10744.0
11	18	47	27	512	48.0	-197262.0	-3553.0	11045.0
11	18	47	27	513	49.0	-199512.0	-3554.0	11021.0
11	18	47	27	514	50.0	-201622.0	-3571.0	11289.0
11	18	47	27	515	51.0	-204101.0	-3570.0	11498.0
11	18	47	27	515	52.0	-206323.0	-3552.0	10871.0
11	18	47	27	516	53.0	-207557.0	-3581.0	10318.0
11	18	47	27	517	54.0	-207581.0	-3611.0	10200.0
11	18	47	27	518	55.0	-206696.0	-3619.0	9939.0
11	18	47	27	518	56.0	-204776.0	-3624.0	9482.0
11	18	47	27	519	58.0	-199533.0	-3652.0	8458.0
11	18	47	27	520	59.0	-196744.0	-3672.0	7708.0
11	18	47	27	520	60.0	-194274.0	-3658.0	7346.0
11	18	47	27	521	61.0	-192318.0	-3663.0	7914.0
11	18	47	27	522	62.0	-190641.0	-3689.0	8252.0
11	18	47	27	522	63.0	-189058.0	-3686.0	8508.0
11	18	47	27	553	64.0	-187707.0	-3683.0	8986.0
11	18	47	27	554	65.0	-187115.0	-3683.0	9640.0
11	18	47	27	555	66.0	-187060.0	-3687.0	9334.0
11	18	47	27	556	67.0	-187191.0	-3704.0	9191.0
11	18	47	27	557	68.0	-187647.0	-3730.0	9493.0
11	18	47	27	557	69.0	-187644.0	-3741.0	9863.0
11	18	47	27	558	70.0	-187533.0	-3750.0	10051.0
11	18	47	27	559	71.0	-186596.0	-3742.0	10937.0
11	18	47	27	560	72.0	-185542.0	-3751.0	11029.0
11	18	47	27	560	73.0	-184370.0	-3751.0	10620.0
11	18	47	27	561	74.0	-182980.0	-3740.0	10786.0
11	18	47	27	562	75.0	-181704.0	-3758.0	11034.0
11	18	47	27	563	76.0	-180695.0	-3750.0	11012.0
11	18	47	27	563	77.0	-179604.0	-3760.0	10867.0
11	18	47	27	564	78.0	-178362.0	-3772.0	10853.0
11	18	47	27	565	80.0	-177167.0	-3789.0	11500.0
11	18	47	27	565	81.0	-177502.0	-3796.0	11836.0
11	18	47	27	566	82.0	-177668.0	-3788.0	12118.0
11	18	47	27	567	83.0	-178701.0	-3791.0	11818.0
11	18	47	27	568	84.0	-179844.0	-3799.0	11437.0
11	18	47	27	568	85.0	-181878.0	-3784.0	10803.0
11	18	47	27	569	86.0	-184249.0	-3780.0	10418.0
11	18	47	27	597	87.0	-185579.0	-3789.0	10361.0
11	18	47	27	598	88.0	-186180.0	-3801.0	9766.0
11	18	47	27	599	89.0	-185744.0	-3799.0	9130.0
11	18	47	27	600	90.0	-185039.0	-3809.0	9153.0
11	18	47	27	600	91.0	-184564.0	-3807.0	9089.0
11	18	47	27	601	92.0	-184356.0	-3792.0	8703.0
11	18	47	27	602	93.0	-183461.0	-3811.0	8287.0
11	18	47	27	603	94.0	-181226.0	-3814.0	8040.0
11	18	47	27	604	95.0	-178981.0	-3804.0	7238.0
11	18	47	27	604	96.0	-177021.0	-3815.0	6749.0
11	18	47	27	605	97.0	-174756.0	-3819.0	6342.0
11	18	47	27	606	98.0	-172168.0	-3817.0	5489.0
11	18	47	27	606	99.0	-170969.0	-3837.0	5318.0
11	18	47	27	607	100.0	-170854.0	-3836.0	5796.0
11	18	47	27	608	101.0	-171399.0	-3819.0	5826.0
11	18	47	27	608	103.0	-173512.0	-3812.0	6087.0
11	18	47	27	609	104.0	-173704.0	-3827.0	6279.0
11	18	47	27	610	105.0	-173919.0	-3826.0	6285.0
11	18	47	27	610	106.0	-174749.0	-3852.0	5833.0
11	18	47	27	611	107.0	-175524.0	-3852.0	5069.0
11	18	47	27	612	108.0	-175998.0	-3877.0	4371.0
11	18	47	27	642	109.0	-176342.0	-3886.0	3579.0
11	18	47	27	642	110.0	-178207.0	-3882.0	3518.0
11	18	47	27	643	111.0	-179486.0	-3866.0	3232.0
11	18	47	27	644	112.0	-181759.0	-3867.0	3306.0
11	18	47	27	645	113.0	-184429.0	-3896.0	3163.0
11	18	47	27	646	114.0	-186372.0	-3906.0	3460.0
11	18	47	27	646	115.0	-188549.0	-3917.0	3489.0
11	18	47	27	647	116.0	-190360.0	-3925.0	3642.0
11	18	47	27	648	117.0	-190955.0	-3943.0	3926.0
11	18	47	27	649	118.0	-190001.0	-3966.0	4072.0
11	18	47	27	649	119.0	-188832.0	-3971.0	4421.0
11	18	47	27	650	120.0	-187917.0	-3991.0	4633.0
11	18	47	27	651	121.0	-188077.0	-4016.0	4939.0
11	18	47	27	652	122.0	-187275.0	-4016.0	4961.0
11	18	47	27	652	123.0	-186541.0	-4032.0	4571.0
11	18	47	27	653	125.0	-189609.0	-4066.0	3418.0
11	18	47	27	654	126.0	-192006.0	-4099.0	2608.0
11	18	47	27	654	127.0	-193621.0	-4124.0	1736.0
11	18	47	27	655	128.0	-194966.0	-4172.0	846.0
11	18	47	27	656	129.0	-196188.0	-4197.0	194.0
11	18	47	27	656	130.0	-197384.0	-4210.0	-420.0
11	18	47	27	657	131.0	-198197.0	-4221.0	-851.0
11	18	47	27	686	132.0	-199089.0	-4221.0	-996.0
11	18	47	27	687	133.0	-200316.0	-4241.0	-1138.0
11	18	47	27	688	134.0	-201753.0	-4271.0	-1285.0
11	18	47	27	689	135.0	-203301.0	-4297.0	-2060.0
11	18	47	27	690	136.0	-205182.0	-4317.0	-2729.0
11	18	47	27	690	137.0	-207467.0	-4365.0	-3034.0
11	18	47	27	691	138.0	-210907.0	-4387.0	-3279.0
11	18	47	27	692	139.0	-214151.0	-4400.0	-3611.0
11	18	47	27	693	140.0	-217822.0	-4442.0	-4816.0
11	18	47	27	693	141.0	-221389.0	-4469.0	-6677.0
11	18	47	27	694	142.0	-224534.0	-4479.0	-7801.0
11	18	47	27	695	143.0	-227328.0	-4503.0	-8234.0
11	18	47	27	696	144.0	-229647.0	-4537.0	-8388.0
11	18	47	27	696	145.0	-231921.0	-4554.0	-8206.0
11	18	47	27	697	146.0	-234650.0	-4562.0	-8046.0
11	18	47	27	698	148.0	-240268.0	-4619.0	-7357.0
11	18	47	27	698	149.0	-241461.0	-4652.0	-7782.0
11	18	47	27	699	150.0	-242164.0	-4689.0	-7391.0
11	18	47	27	700	151.0	-241720.0	-4690.0	-7304.0
11	18	47	27	700	152.0	-239484.0	-4704.0	-7582.0
11	18	47	27	701	153.0	-237377.0	-4712.0	-7898.0
11	18	47	27	731	154.0	-235817.0	-4729.0	-7726.0
11	18	47	27	732	155.0	-234375.0	-4761.0	-8033.0
11	18	47	27	732	156.0	-233187.0	-4756.0	-8427.0
11	18	47	27	733	157.0	-233253.0	-4769.0	-8417.0
11	18	47	27	734	158.0	-233953.0	-4801.0	-8475.0
11	18	47	27	735	159.0	-234305.0	-4844.0	-7874.0
11	18	47	27	736	160.0	-234669.0	-4872.0	-7462.0
11	18	47	27	737	161.0	-234721.0	-4858.0	-7450.0
11	18	47	27	737	162.0	-233447.0	-4868.0	-7781.0
11	18	47	27	738	163.0	-231953.0	-4877.0	-8193.0
11	18	47	27	739	164.0	-230067.0	-4893.0	-8802.0
11	18	47	27	740	165.0	-227997.0	-4912.0	-9267.0
11	18	47	27	741	166.0	-226159.0	-4923.0	-10061.0
11	18	47	27	741	167.0	-224087.0	-4945.0	-11207.0
11	18	47	27	742	168.0	-221205.0	-4977.0	-11567.0
11	18	47	27	743	170.0	-212837.0	-5001.0	-12434.0
11	18	47	27	744	171.0	-206856.0	-5014.0	-13286.0
11	18	47	27	744	172.0	-200086.0	-5012.0	-13595.0
11	18	47	27	745	173.0	-192596.0	-5006.0	-13634.0
11	18	47	27	746	174.0	-184529.0	-5026.0	-13904.0
11	18	47	27	746	175.0	-177211.0	-5018.0	-13926.0
11	18	47	27	776	176.0	-171631.0	-5048.0	-13680.0
11	18	47	27	777	177.0	-167876.0	-5074.0	-14219.0
11	18	47	27	778	178.0	-165441.0	-5067.0	-14289.0
11	18	47	27	779	179.0	-163491.0	-5086.0	-14414.0
11	18	47	27	780	180.0	-162431.0	-5102.0	-15044.0
11	18	47	27	780	181.0	-162275.0	-5094.0	-15529.0
11	18	47	27	781	182.0	-162987.0	-5096.0	-15896.0
11	18	47	27	782	183.0	-165021.0	-5112.0	-15885.0
11	18	47	27	783	184.0	-167916.0	-5136.0	-16076.0
11	18	47	27	784	185.0	-171412.0	-5157.0	-16232.0
11	18	47	27	785	186.0	-175102.0	-5164.0	-15990.0
11	18	47	27	786	187.0	-179404.0	-5152.0	-15979.0
11	18	47	27	786	188.0	-184715.0	-5166.0	-16328.0
11	18	47	27	787	189.0	-190599.0	-5194.0	-16780.0
11	18	47	27	788	190.0	-197734.0	-5204.0	-17546.0
11	18	47	27	789	192.0	-210304.0	-5201.0	-18609.0
11	18	47	27	790	193.0	-215862.0	-5212.0	-18542.0
11	18	47	27	790	194.0	-219704.0	-5206.0	-18369.0
11	18	47	27	791	195.0	-222779.0	-5220.0	-18172.0
11	18	47	27	792	196.0	-224354.0	-5213.0	-18163.0
11	18	47	27	793	197.0	-224216.0	-5226.0	-18726.0
11	18	47	27	793	198.0	-224500.0	-5246.0	-20077.0
11	18	47	27	822	199.0	-222431.0	-5254.0	-22037.0
11	18	47	27	823	200.0	-220818.0	-5245.0	-23612.0
11	18	47	27	824	201.0	-219069.0	-5241.0	-23080.0
11	18	47	27	825	202.0	-216602.0	-5262.0	-21287.0
11	18	47	27	826	203.0	-215065.0	-5267.0	-21704.0
11	18	47	27	827	204.0	-212109.0	-5272.0	-22522.0
11	18	47	27	828	205.0	-209055.0	-5266.0	-24244.0
11	18	47	27	829	206.0	-206867.0	-5270.0	-26870.0
11	18	47	27	829	207.0	-204215.0	-5282.0	-29328.0
11	18	47	27	830	208.0	-202992.0	-5287.0	-29502.0
11	18	47	27	831	209.0	-201392.0	-5299.0	-27634.0
11	18	47	27	832	210.0	-200281.0	-5296.0	-19662.0
11	18	47	27	832	211.0	-200674.0	-5288.0	-9648.0
11	18	47	27	833	212.0	-200835.0	-5277.0	-2262.0
11	18	47	27	834	213.0	-201626.0	-5281.0	3741.0
11	18	47	27	835	215.0	-203200.0	-5269.0	13909.0
11	18	47	27	835	216.0	-205016.0	-5286.0	17579.0
11	18	47	27	836	217.0	-205698.0	-5293.0	19786.0
11	18	47	27	837	218.0	-206460.0	-5293.0	19781.0
11	18	47	27	837	219.0	-207615.0	-5309.0	18556.0
11	18	47	27	838	220.0	-208326.0	-5272.0	15356.0
11	18	47	27	866	221.0	-209851.0	-5262.0	12269.0
11	18	47	27	867	222.0	-211046.0	-5269.0	8651.0
11	18	47	27	868	223.0	-211995.0	-5254.0	4504.0
11	18	47	27	869	224.0	-213009.0	-5266.0	-236.0
11	18	47	27	870	225.0	-213729.0	-5261.0	-4361.0
11	18	47	27	870	226.0	-215629.0	-5256.0	-7283.0
11	18	47	27	871	227.0	-218285.0	-5282.0	-10403.0
11	18	47	27	872	228.0	-220704.0	-5277.0	-13178.0
11	18	47	27	873	229.0	-222729.0	-5265.0	-15001.0
11	18	47	27	874	230.0	-225297.0	-5271.0	-15603.0
11	18	47	27	875	231.0	-229351.0	-5269.0	-16214.0
11	18	47	27	876	232.0	-233885.0	-5283.0	-16587.0
11	18	47	27	876	233.0	-236781.0	-5274.0	-17188.0
11	18	47	27	877	234.0	-237387.0	-5272.0	-17236.0
11	18	47	27	878	235.0	-236359.0	-5267.0	-17396.0
11	18	47	27	879	237.0	-235054.0	-5296.0	-18371.0
11	18	47	27	879	238.0	-236739.0	-5291.0	-18976.0
11	18	47	27	880	239.0	-239466.0	-5278.0	-19514.0
11	18	47	27	881	240.0	-243292.0	-5281.0	-19588.0
11	18	47	27	881	241.0	-247523.0	-5268.0	-19466.0
11	18	47	27	882	242.0	-251075.0	-5279.0	-19772.0
11	18	47	27	883	243.0	-253252.0	-5273.0	-20297.0
11	18	47	27	911	244.0	-254322.0	-5265.0	-20056.0
11	18	47	27	912	245.0	-253557.0	-5274.0	-19852.0
11	18	47	27	913	246.0	-250671.0	-5272.0	-20107.0
11	18	47	27	914	247.0	-245768.0	-5280.0	-20172.0
11	18	47	27	915	248.0	-238352.0	-5294.0	-20005.0
11	18	47	27	916	249.0	-227717.0	-5309.0	-20537.0
11	18	47	27	917	250.0	-213332.0	-5308.0	-20587.0
11	18	47	27	917	251.0	-196849.0	-5304.0	-19780.0
11	18	47	27	918	252.0	-178688.0	-5308.0	-20106.0
11	18	47	27	919	253.0	-160794.0	-5297.0	-20319.0
11	18	47	27	920	254.0	-144726.0	-5309.0	-20641.0
11	18	47	27	921	255.0	-131771.0	-5305.0	-21249.0
11	18	47	27	922	0.0	-122832.0	-5302.0	-21439.0
11	18	47	27	922	1.0	-119292.0	-5301.0	-21531.0
11	18	47	27	923	2.0	-119937.0	-5301.0	-21314.0
11	18	47	27	924	4.0	-131849.0	-5321.0	-22139.0
11	18	47	27	925	5.0	-141216.0	-5315.0	-21962.0
11	18	47	27	925	6.0	-152057.0	-5291.0	-21739.0
11	18	47	27	926	7.0	-162705.0	-5282.0	-21592.0
11	18	47	27	927	8.0	-173150.0	-5296.0	-20980.0
11	18	47	27	927	9.0	-182599.0	-5287.0	-20055.0
11	18	47	27	956	10.0	-191624.0	-5282.0	-20262.0
11	18	47	27	957	11.0	-198772.0	-5287.0	-20571.0
11	18	47	27	958	12.0	-205093.0	-5281.0	-20760.0
11	18	47	27	959	13.0	-209829.0	-5280.0	-21201.0
11	18	47	27	960	14.0	-213826.0	-5279.0	-21449.0
11	18	47	27	961	15.0	-218341.0	-5269.0	-21354.0
11	18	47	27	962	16.0	-222011.0	-5272.0	-21504.0
11	18	47	27	963	17.0	-225999.0	-5269.0	-21949.0
11	18	47	27	964	18.0	-229498.0	-5256.0	-22404.0
11	18	47	27	964	19.0	-234316.0	-5264.0	-23237.0
11	18	47	27	965	20.0	-238991.0	-5276.0	-23654.0
11	18	47	27	966	21.0	-243152.0	-5282.0	-23917.0
11	18	47	27	967	22.0	-246972.0	-5267.0	-24210.0
11	18	47	27	968	23.0	-251455.0	-5274.0	-24421.0
11	18	47	27	968	24.0	-255887.0	-5281.0	-24220.0
11	18	47	27	969	26.0	-265365.0	-5276.0	-24197.0
11	18	47	27	970	27.0	-270327.0	-5272.0	-23787.0
11	18	47	27	970	28.0	-273611.0	-5281.0	-23804.0
11	18	47	27	971	29.0	-275289.0	-5279.0	-24016.0
11	18	47	27	972	30.0	-275120.0	-5270.0	-23790.0
11	18	47	27	972	31.0	-272208.0	-5277.0	-23122.0
11	18	47	27	973	32.0	-267341.0	-5300.0	-23048.0
11	18	47	28	2	33.0	-260853.0	-5289.0	-22706.0
11	18	47	28	3	34.0	-252947.0	-5292.0	-22072.0
11	18	47	28	4	35.0	-243591.0	-5271.0	-22072.0
11	18	47	28	5	36.0	-233932.0	-5277.0	-22542.0
11	18	47	28	6	37.0	-224586.0	-5281.0	-22693.0
11	18	47	28	7	38.0	-215096.0	-5287.0	-22365.0
11	18	47	28	7	39.0	-206174.0	-5279.0	-22351.0
11	18	47	28	8	40.0	-198536.0	-5298.0	-22439.0
11	18	47	28	9	41.0	-192086.0	-5298.0	-21934.0
11	18	47	28	10	42.0	-186799.0	-5297.0	-21666.0
11	18	47	28	11	43.0	-183227.0	-5293.0	-21756.0
11	18	47	28	12	44.0	-182364.0	-5291.0	-21442.0
11	18	47	28	12	45.0	-183522.0	-5306.0	-21567.0
11	18	47	28	13	46.0	-185637.0	-5303.0	-22312.0
11	18	47	28	14	47.0	-188977.0	-5289.0	-22821.0
11	18	47	28	14	49.0	-196514.0	-5320.0	-22877.0
11	18	47	28	15	50.0	-200079.0	-5316.0	-22621.0
11	18	47	28	16	51.0	-203082.0	-5297.0	-22516.0
11	18	47	28	16	52.0	-206192.0	-5297.0	-22199.0
11	18	47	28	17	53.0	-207526.0	-5326.0	-21971.0
11	18	47	28	18	54.0	-208411.0	-5331.0	-21630.0
11	18	47	28	46	55.0	-208252.0	-5341.0	-21767.0
11	18	47	28	47	56.0	-207556.0	-5325.0	-21749.0
11	18	47	28	48	57.0	-206645.0	-5316.0	-21372.0
11	18	47	28	49	58.0	-206969.0	-5337.0	-21106.0
11	18	47	28	50	59.0	-207683.0	-5356.0	-21056.0
11	18	47	28	51	60.0	-209378.0	-5339.0	-20160.0
11	18	47	28	52	61.0	-211641.0	-5364.0	-20043.0
11	18	47	28	53	62.0	-214033.0	-5383.0	-19617.0
11	18	47	28	53	63.0	-215501.0	-5387.0	-18502.0
11	18	47	28	55	64.0	-216404.0	-5376.0	-18474.0
11	18	47	28	56	65.0	-217516.0	-5381.0	-19142.0
11	18	47	28	57	66.0	-217784.0	-5387.0	-18881.0
11	18	47	28	58	67.0	-217581.0	-5388.0	-18406.0
11	18	47	28	59	68.0	-216642.0	-5387.0	-18382.0
11	18	47	28	59	69.0	-215207.0	-5401.0	-18801.0
11	18	47	28	60	71.0	-211369.0	-5403.0	-18882.0
11	18	47	28	61	72.0	-208908.0	-5410.0	-19012.0
11	18	47	28	61	73.0	-204867.0	-5422.0	-18801.0
11	18	47	28	62	74.0	-200491.0	-5407.0	-18937.0
11	18	47	28	63	75.0	-196288.0	-5382.0	-19521.0
11	18	47	28	63	76.0	-191426.0	-5385.0	-20131.0
11	18	47	28	64	77.0	-187491.0	-5372.0	-20407.0
11	18	47	28	91	78.0	-182404.0	-5363.0	-20433.0
11	18	47	28	92	79.0	-177794.0	-5346.0	-20765.0
11	18	47	28	93	80.0	-174157.0	-5339.0	-21401.0
11	18	47	28	94	81.0	-170194.0	-5319.0	-21830.0
11	18	47	28	95	82.0	-167415.0	-5314.0	-21916.0
11	18	47	28	96	83.0	-164914.0	-5304.0	-21766.0
11	18	47	28	97	84.0	-162661.0	-5275.0	-21408.0
11	18	47	28	97	85.0	-161769.0	-5239.0	-21517.0
11	18	47	28	98	86.0	-160206.0	-5212.0	-21861.0
11	18	47	28	99	87.0	-160014.0	-5197.0	-21922.0
11	18	47	28	100	88.0	-159574.0	-5169.0	-21917.0
11	18	47	28	101	89.0	-158474.0	-5146.0	-21579.0
11	18	47	28	102	90.0	-158539.0	-5126.0	-21575.0
11	18	47	28	102	91.0	-157857.0	-5086.0	-21387.0
11	18	47	28	103	92.0	-158079.0	-5043.0	-21017.0
11	18	47	28	104	94.0	-158534.0	-4952.0	-19740.0
11	18	47	28	105	95.0	-160029.0	-4880.0	-19156.0
11	18	47	28	105	96.0	-161042.0	-4819.0	-18640.0
11	18	47	28	106	97.0	-162500.0	-4761.0	-18670.0
11	18	47	28	107	98.0	-164884.0	-4692.0	-18768.0
11	18	47	28	107	99.0	-166219.0	-4639.0	-18586.0
11	18	47	28	137	100.0	-167679.0	-4574.0	-18710.0
11	18	47	28	138	101.0	-168502.0	-4508.0	-19177.0
11	18	47	28	139	102.0	-169644.0	-4447.0	-18784.0
11	18	47	28	139	103.0	-172266.0	-4381.0	-18176.0
11	18	47	28	140	104.0	-174364.0	-4287.0	-17544.0
11	18	47	28	141	105.0	-177269.0	-4204.0	-17166.0
11	18	47	28	142	106.0	-179744.0	-4139.0	-16177.0
11	18	47	28	143	107.0	-181377.0	-4058.0	-15874.0
11	18	47	28	144	108.0	-184537.0	-3982.0	-16659.0
11	18	47	28	145	109.0	-186851.0	-3878.0	-16801.0
11	18	47	28	146	110.0	-189578.0	-3811.0	-16569.0
11	18	47	28	146	111.0	-192742.0	-3724.0	-17086.0
11	18	47	28	147	112.0	-195354.0	-3671.0	-16999.0
11	18	47	28	148	113.0	-199087.0	-3579.0	-16383.0
11	18	47	28	149	114.0	-201441.0	-3480.0	-15715.0
11	18	47	28	149	116.0	-201967.0	-3328.0	-14641.0
11	18	47	28	150	117.0	-200615.0	-3239.0	-13626.0
11	18	47	28	151	118.0	-199367.0	-3147.0	-12728.0
11	18	47	28	151	119.0	-197059.0	-3059.0	-12379.0
11	18	47	28	152	120.0	-194725.0	-2976.0	-12452.0
11	18	47	28	153	121.0	-191346.0	-2902.0	-13024.0
11	18	47	28	181	122.0	-188111.0	-2845.0	-13464.0
11	18	47	28	182	123.0	-185307.0	-2754.0	-13554.0
11	18	47	28	183	124.0	-182724.0	-2669.0	-13132.0
11	18	47	28	184	125.0	-181292.0	-2607.0	-13216.0
11	18	47	28	185	126.0	-180026.0	-2521.0	-13443.0
11	18	47	28	186	127.0	-179148.0	-2439.0	-13818.0
11	18	47	28	187	128.0	-178689.0	-2369.0	-14086.0
11	18	47	28	188	129.0	-177697.0	-2311.0	-13579.0
11	18	47	28	189	130.0	-177603.0	-2239.0	-13977.0
11	18	47	28	190	131.0	-177244.0	-2164.0	-14402.0
11	18	47	28	190	132.0	-176689.0	-2102.0	-14502.0
11	18	47	28	191	133.0	-177768.0	-2041.0	-14701.0
11	18	47	28	192	134.0	-178497.0	-1961.0	-15046.0
11	18	47	28	193	135.0	-179672.0	-1893.0	-15387.0
11	18	47	28	193	136.0	-182494.0	-1833.0	-15389.0
11	18	47	28	194	138.0	-186992.0	-1713.0	-15192.0
11	18	47	28	195	139.0	-188917.0	-1652.0	-14599.0
11	18	47	28	196	140.0	-194228.0	-1591.0	-14855.0
11	18	47	28	196	141.0	-197031.0	-1533.0	-15039.0
11	18	47	28	197	142.0	-200149.0	-1470.0	-14631.0
11	18	47	28	198	143.0	-205654.0	-1410.0	-14632.0
11	18	47	28	198	144.0	-206567.0	-1356.0	-14556.0
11	18	47	28	226	145.0	-204575.0	-1306.0	-14087.0
11	18	47	28	228	146.0	-200447.0	-1252.0	-13114.0
11	18	47	28	228	147.0	-194002.0	-1200.0	-12793.0
11	18	47	28	229	148.0	-187291.0	-1145.0	-12932.0
11	18	47	28	230	149.0	-181051.0	-1091.0	-12659.0
11	18	47	28	231	150.0	-175809.0	-1050.0	-12426.0
11	18	47	28	232	151.0	-170492.0	-1030.0	-12723.0
11	18	47	28	233	152.0	-164891.0	-1000.0	-12296.0
11	18	47	28	234	153.0	-160821.0	-949.0	-12296.0
11	18	47	28	235	154.0	-158897.0	-887.0	-12514.0
11	18	47	28	236	155.0	-158784.0	-839.0	-12487.0
11	18	47	28	237	156.0	-159144.0	-816.0	-11198.0
11	18	47	28	237	157.0	-159872.0	-767.0	-10355.0
11	18	47	28	238	158.0	-161817.0	-751.0	-9981.0
11	18	47	28	239	159.0	-162840.0	-714.0	-9327.0
11	18	47	28	240	161.0	-168970.0	-665.0	-10186.0
11	18	47	28	240	162.0	-174359.0	-643.0	-10327.0
11	18	47	28	241	163.0	-181139.0	-599.0	-10659.0
11	18	47	28	242	164.0	-187877.0	-569.0	-10079.0
11	18	47	28	242	165.0	-194254.0	-554.0	-10225.0
11	18	47	28	243	166.0	-198061.0	-507.0	-10556.0
11	18	47	28	280	167.0	-200742.0	-472.0	-10530.0
11	18	47	28	281	168.0	-202137.0	-447.0	-10606.0
11	18	47	28	282	169.0	-200771.0	-433.0	-10775.0
11	18	47	28	282	170.0	-197686.0	-407.0	-11176.0
11	18	47	28	283	171.0	-193416.0	-394.0	-12436.0
11	18	47	28	284	172.0	-187759.0	-391.0	-13356.0
11	18	47	28	285	173.0	-181672.0	-359.0	-13525.0
11	18	47	28	285	174.0	-175137.0	-332.0	-13751.0
11	18	47	28	286	175.0	-168799.0	-309.0	-13979.0
11	18	47	28	287	176.0	-163283.0	-314.0	-14433.0
11	18	47	28	287	177.0	-158357.0	-292.0	-14547.0
11	18	47	28	288	178.0	-155043.0	-257.0	-14336.0
11	18	47	28	289	179.0	-152076.0	-234.0	-14382.0
11	18	47	28	290	180.0	-150142.0	-242.0	-14920.0
11	18	47	28	290	181.0	-148985.0	-242.0	-15174.0
11	18	47	28	291	183.0	-148214.0	-202.0	-14626.0
11	18	47	28	292	184.0	-149314.0	-161.0	-14133.0
11	18	47	28	293	185.0	-151999.0	-161.0	-13654.0
11	18	47	28	293	186.0	-154825.0	-184.0	-13551.0
11	18	47	28	294	187.0	-158079.0	-164.0	-13798.0
11	18	47	28	295	188.0	-161332.0	-157.0	-14035.0
11	18	47	28	295	189.0	-164371.0	-147.0	-14355.0
11	18	47	28	316	190.0	-167567.0	-138.0	-15357.0
11	18	47	28	317	191.0	-170074.0	-132.0	-15293.0
11	18	47	28	318	192.0	-172117.0	-152.0	-14371.0
11	18	47	28	319	193.0	-174530.0	-133.0	-13828.0
11	18	47	28	320	194.0	-176971.0	-101.0	-13691.0
11	18	47	28	321	195.0	-179451.0	-106.0	-13965.0
11	18	47	28	322	196.0	-182001.0	-119.0	-14389.0
11	18	47	28	323	197.0	-184709.0	-118.0	-14944.0
11	18	47	28	324	198.0	-187873.0	-124.0	-15042.0
11	18	47	28	325	199.0	-190787.0	-131.0	-14687.0
11	18	47	28	326	200.0	-193902.0	-121.0	-14793.0
11	18	47	28	327	201.0	-196716.0	-131.0	-14422.0
11	18	47	28	327	202.0	-198994.0	-166.0	-14497.0
11	18	47	28	328	203.0	-201712.0	-159.0	-13657.0
11	18	47	28	329	204.0	-202609.0	-138.0	-12861.0
11	18	47	28	330	206.0	-205299.0	-146.0	-12481.0
11	18	47	28	331	207.0	-207185.0	-146.0	-11672.0
11	18	47	28	331	208.0	-210048.0	-157.0	-10953.0
11	18	47	28	332	209.0	-212719.0	-162.0	-10828.0
11	18	47	28	333	210.0	-215548.0	-167.0	-11032.0
11	18	47	28	334	211.0	-218029.0	-161.0	-10717.0
11	18	47	28	361	212.0	-219834.0	-175.0	-10938.0
11	18	47	28	362	213.0	-221671.0	-192.0	-10837.0
11	18	47	28	363	214.0	-222371.0	-206.0	-10085.0
11	18	47	28	364	215.0	-223409.0	-205.0	-10127.0
11	18	47	28	365	216.0	-224663.0	-199.0	-10254.0
11	18	47	28	366	217.0	-225601.0	-211.0	-9956.0
11	18	47	28	367	218.0	-226599.0	-229.0	-9827.0
11	18	47	28	367	219.0	-226077.0	-243.0	-10267.0
11	18	47	28	368	220.0	-224873.0	-264.0	-10747.0
11	18	47	28	369	221.0	-223208.0	-254.0	-10081.0
11	18	47	28	370	222.0	-221139.0	-266.0	-9542.0
11	18	47	28	371	223.0	-218725.0	-277.0	-9642.0
11	18	47	28	372	224.0	-215604.0	-254.0	-9602.0
11	18	47	28	373	225.0	-213392.0	-253.0	-9952.0
11	18	47	28	374	226.0	-211076.0	-261.0	-10376.0
11	18	47	28	374	228.0	-206386.0	-297.0	-11199.0
11	18	47	28	375	229.0	-204493.0	-291.0	-11662.0
11	18	47	28	376	230.0	-203081.0	-309.0	-12189.0
11	18	47	28	377	231.0	-202456.0	-313.0	-12061.0
11	18	47	28	377	232.0	-201612.0	-312.0	-12032.0
11	18	47	28	378	233.0	-201552.0	-320.0	-12246.0
11	18	47	28	379	234.0	-200713.0	-301.0	-12431.0
11	18	47	28	407	235.0	-200999.0	-296.0	-12724.0
11	18	47	28	409	236.0	-200971.0	-299.0	-13281.0
11	18	47	28	410	237.0	-200740.0	-302.0	-13371.0
11	18	47	28	411	238.0	-200875.0	-327.0	-13027.0
11	18	47	28	412	239.0	-201259.0	-329.0	-12878.0
11	18	47	28	412	240.0	-201869.0	-329.0	-13318.0
11	18	47	28	413	241.0	-202434.0	-344.0	-13331.0
11	18	47	28	414	242.0	-202142.0	-354.0	-13431.0
11	18	47	28	415	243.0	-203172.0	-339.0	-13146.0
11	18	47	28	416	244.0	-203610.0	-324.0	-13091.0
11	18	47	28	417	245.0	-204868.0	-336.0	-13256.0
11	18	47	28	417	246.0	-205942.0	-339.0	-13536.0
11	18	47	28	418	247.0	-206109.0	-326.0	-13775.0
11	18	47	28	419	248.0	-205900.0	-336.0	-14054.0
11	18	47	28	420	249.0	-204847.0	-337.0	-14145.0
11	18	47	28	421	251.0	-202757.0	-342.0	-13436.0
11	18	47	28	422	252.0	-201457.0	-349.0	-12612.0
11	18	47	28	422	253.0	-200734.0	-322.0	-11943.0
11	18	47	28	423	254.0	-200194.0	-337.0	-12007.0
11	18	47	28	424	255.0	-199434.0	-330.0	-12187.0
11	18	47	28	425	0.0	-200087.0	-319.0	-11712.0
11	18	47	28	451	1.0	-200857.0	-317.0	-10510.0
11	18	47	28	452	2.0	-200947.0	-322.0	-9457.0
11	18	47	28	453	3.0	-200869.0	-312.0	-9048.0
11	18	47	28	454	4.0	-200426.0	-318.0	-9649.0
11	18	47	28	455	5.0	-199293.0	-314.0	-9609.0
11	18	47	28	456	6.0	-197530.0	-310.0	-10149.0
11	18	47	28	457	7.0	-195165.0	-297.0	-10068.0
11	18	47	28	458	8.0	-192782.0	-288.0	-9724.0
11	18	47	28	459	9.0	-190719.0	-277.0	-9761.0
11	18	47	28	460	10.0	-189052.0	-286.0	-9364.0
11	18	47	28	461	11.0	-187574.0	-276.0	-8919.0
11	18	47	28	461	12.0	-186516.0	-274.0	-9444.0
11	18	47	28	462	13.0	-185620.0	-261.0	-10450.0
11	18	47	28	463	14.0	-185402.0	-257.0	-10836.0
11	18	47	28	463	15.0	-185914.0	-268.0	-10604.0
11	18	47	28	464	17.0	-186989.0	-264.0	-10731.0
11	18	47	28	465	18.0	-188312.0	-244.0	-10262.0
11	18	47	28	466	19.0	-189167.0	-246.0	-10447.0
11	18	47	28	466	20.0	-191371.0	-231.0	-11006.0
11	18	47	28	467	21.0	-192944.0	-216.0	-11169.0
11	18	47	28	467	22.0	-194040.0	-221.0	-11912.0
11	18	47	28	496	23.0	-194964.0	-219.0	-12186.0
11	18	47	28	497	24.0	-194582.0	-215.0	-12256.0
11	18	47	28	498	25.0	-194154.0	-241.0	-12249.0
11	18	47	28	499	26.0	-194026.0	-235.0	-11634.0
11	18	47	28	500	27.0	-193614.0	-221.0	-10792.0
11	18	47	28	500	28.0	-194209.0	-224.0	-9862.0
11	18	47	28	501	29.0	-195194.0	-222.0	-9767.0
11	18	47	28	502	30.0	-195505.0	-185.0	-9775.0
11	18	47	28	503	31.0	-195130.0	-199.0	-10007.0
11	18	47	28	504	32.0	-194989.0	-207.0	-10054.0
11	18	47	28	504	33.0	-194834.0	-207.0	-10187.0
11	18	47	28	505	34.0	-195163.0	-221.0	-10584.0
11	18	47	28	506	35.0	-195816.0	-218.0	-10582.0
11	18	47	28	507	36.0	-196419.0	-211.0	-10762.0
11	18	47	28	508	37.0	-196822.0	-204.0	-10652.0
11	18	47	28	508	40.0	-196386.0	-226.0	-10270.0
11	18	47	28	509	41.0	-195637.0	-241.0	-9894.0
11	18	47	28	510	42.0	-193744.0	-236.0	-10497.0
11	18	47	28	510	43.0	-191571.0	-236.0	-10906.0
11	18	47	28	511	44.0	-190222.0	-238.0	-11149.0
11	18	47	28	512	45.0	-190569.0	-245.0	-11851.0
11	18	47	28	541	46.0	-190961.0	-226.0	-11872.0
11	18	47	28	542	47.0	-189722.0	-219.0	-11964.0
11	18	47	28	543	48.0	-188329.0	-251.0	-12269.0
11	18	47	28	544	49.0	-188831.0	-258.0	-13017.0
11	18	47	28	545	50.0	-190235.0	-258.0	-13302.0
11	18	47	28	545	51.0	-192176.0	-253.0	-13386.0
11	18	47	28	546	52.0	-195527.0	-262.0	-14022.0
11	18	47	28	547	53.0	-199597.0	-262.0	-15083.0
11	18	47	28	548	54.0	-203917.0	-268.0	-15864.0
11	18	47	28	549	55.0	-208727.0	-287.0	-16411.0
11	18	47	28	550	56.0	-213195.0	-292.0	-16681.0
11	18	47	28	550	57.0	-217911.0	-296.0	-16391.0
11	18	47	28	551	58.0	-222186.0	-297.0	-16449.0
11	18	47	28	552	59.0	-226292.0	-302.0	-16649.0
11	18	47	28	553	60.0	-230119.0	-317.0	-16426.0
11	18	47	28	554	62.0	-237314.0	-339.0	-16856.0
11	18	47	28	554	63.0	-241713.0	-364.0	-17206.0
11	18	47	28	555	64.0	-246087.0	-377.0	-17702.0
11	18	47	28	556	65.0	-250564.0	-396.0	-17854.0
11	18	47	28	556	66.0	-255254.0	-390.0	-17637.0
11	18	47	28	557	67.0	-260197.0	-391.0	-17540.0
11	18	47	28	585	68.0	-265251.0	-415.0	-18105.0
11	18	47	28	611	69.0	-269396.0	-399.0	-18507.0
11	18	47	28	612	70.0	-272192.0	-398.0	-18739.0
11	18	47	28	613	71.0	-273803.0	-449.0	-18741.0
11	18	47	28	614	72.0	-274330.0	-461.0	-18929.0
11	18	47	28	614	73.0	-273763.0	-458.0	-18919.0
11	18	47	28	615	74.0	-272208.0	-483.0	-19487.0
11	18	47	28	616	75.0	-269953.0	-481.0	-19724.0
11	18	47	28	616	76.0	-266764.0	-500.0	-19478.0
11	18	47	28	617	77.0	-262351.0	-487.0	-19282.0
11	18	47	28	618	78.0	-256906.0	-497.0	-19590.0
11	18	47	28	619	79.0	-250006.0	-507.0	-19963.0
11	18	47	28	619	80.0	-241686.0	-508.0	-20315.0
11	18	47	28	634	81.0	-232001.0	-499.0	-21204.0
11	18	47	28	635	82.0	-221066.0	-493.0	-22306.0
11	18	47	28	636	84.0	-197074.0	-536.0	-24381.0
11	18	47	28	637	85.0	-185386.0	-559.0	-25190.0
11	18	47	28	638	86.0	-174029.0	-555.0	-25782.0
11	18	47	28	639	87.0	-163474.0	-551.0	-26077.0
11	18	47	28	640	88.0	-154858.0	-563.0	-25876.0
11	18	47	28	641	89.0	-147165.0	-559.0	-25255.0
11	18	47	28	642	90.0	-140337.0	-576.0	-24426.0
11	18	47	28	643	91.0	-135028.0	-580.0	-23734.0
11	18	47	28	643	92.0	-130676.0	-589.0	-23781.0
11	18	47	28	644	93.0	-127172.0	-599.0	-23293.0
11	18	47	28	645	94.0	-125521.0	-602.0	-22474.0
11	18	47	28	646	95.0	-125395.0	-617.0	-22000.0
11	18	47	28	646	96.0	-126775.0	-629.0	-21341.0
11	18	47	28	647	107.0	-209254.0	-696.0	-19712.0
11	18	47	28	648	108.0	-216404.0	-709.0	-19927.0
11	18	47	28	648	109.0	-221607.0	-736.0	-20044.0
11	18	47	28	649	110.0	-225653.0	-724.0	-20553.0
11	18	47	28	650	111.0	-227349.0	-732.0	-20868.0
11	18	47	28	651	112.0	-226116.0	-742.0	-20571.0
11	18	47	28	676	113.0	-222476.0	-745.0	-20636.0
11	18	47	28	677	114.0	-217410.0	-767.0	-21004.0
11	18	47	28	678	115.0	-210314.0	-790.0	-20831.0
11	18	47	28	679	116.0	-203145.0	-789.0	-20375.0
11	18	47	28	680	117.0	-196599.0	-786.0	-20344.0
11	18	47	28	681	118.0	-189829.0	-785.0	-20648.0
11	18	47	28	682	119.0	-183664.0	-791.0	-21089.0
11	18	47	28	682	120.0	-178520.0	-802.0	-21518.0
11	18	47	28	683	121.0	-173152.0	-794.0	-21661.0
11	18	47	28	684	122.0	-167577.0	-813.0	-21806.0
11	18	47	28	685	123.0	-162822.0	-827.0	-22641.0
11	18	47	28	686	124.0	-158506.0	-839.0	-23506.0
11	18	47	28	687	125.0	-153917.0	-861.0	-23750.0
11	18	47	28	687	126.0	-150672.0	-870.0	-24445.0
11	18	47	28	688	127.0	-149344.0	-851.0	-25903.0
11	18	47	28	689	129.0	-150298.0	-868.0	-28749.0
11	18	47	28	690	130.0	-152448.0	-861.0	-29357.0
11	18	47	28	690	131.0	-155351.0	-869.0	-29715.0
11	18	47	28	691	132.0	-158864.0	-864.0	-30229.0
11	18	47	28	692	133.0	-162742.0	-876.0	-31359.0
11	18	47	28	692	134.0	-166699.0	-890.0	-32447.0
11	18	47	28	693	135.0	-170074.0	-915.0	-33085.0
11	18	47	28	721	136.0	-173187.0	-901.0	-33404.0
11	18	47	28	722	137.0	-175636.0	-886.0	-33608.0
11	18	47	28	723	138.0	-176754.0	-897.0	-33733.0
11	18	47	28	724	139.0	-177211.0	-914.0	-34622.0
11	18	47	28	725	140.0	-177709.0	-906.0	-36256.0
11	18	47	28	726	141.0	-177544.0	-921.0	-38481.0
11	18	47	28	727	142.0	-177037.0	-931.0	-40275.0
11	18	47	28	728	143.0	-176704.0	-929.0	-41342.0
11	18	47	28	729	144.0	-176587.0	-944.0	-39838.0
11	18	47	28	729	145.0	-178009.0	-960.0	-39224.0
11	18	47	28	730	146.0	-181164.0	-977.0	-39647.0
11	18	47	28	731	147.0	-185461.0	-982.0	-41834.0
11	18	47	28	732	148.0	-190346.0	-973.0	-44516.0
11	18	47	28	733	149.0	-195448.0	-960.0	-46136.0
11	18	47	28	733	150.0	-200501.0	-968.0	-46192.0
11	18	47	28	734	152.0	-209269.0	-996.0	-35980.0
11	18	47	28	735	153.0	-213131.0	-1004.0	-27247.0
11	18	47	28	735	154.0	-216523.0	-1010.0	-19673.0
11	18	47	28	736	155.0	-219377.0	-1021.0	-12984.0
11	18	47	28	737	156.0	-221572.0	-1036.0	-8284.0
11	18	47	28	737	157.0	-223322.0	-1029.0	-5016.0
11	18	47	28	767	158.0	-224232.0	-1014.0	-1607.0
11	18	47	28	768	159.0	-224541.0	-1019.0	-219.0
11	18	47	28	769	160.0	-224009.0	-1045.0	-2191.0
11	18	47	28	770	161.0	-222546.0	-1062.0	-5944.0
11	18	47	28	771	162.0	-220354.0	-1067.0	-8967.0
11	18	47	28	772	163.0	-217191.0	-1080.0	-12659.0
11	18	47	28	773	164.0	-213797.0	-1099.0	-16987.0
11	18	47	28	774	165.0	-209987.0	-1114.0	-21894.0
11	18	47	28	775	166.0	-205250.0	-1123.0	-27826.0
11	18	47	28	776	167.0	-200074.0	-1127.0	-32435.0
11	18	47	28	777	168.0	-195168.0	-1125.0	-35943.0
11	18	47	28	777	169.0	-190924.0	-1141.0	-38702.0
11	18	47	28	778	170.0	-187186.0	-1140.0	-41608.0
11	18	47	28	779	171.0	-183856.0	-1140.0	-44002.0
11	18	47	28	779	172.0	-182512.0	-1150.0	-44786.0
11	18	47	28	780	174.0	-182918.0	-1167.0	-45121.0
11	18	47	28	781	175.0	-180369.0	-1191.0	-44721.0
11	18	47	28	781	176.0	-176393.0	-1216.0	-44757.0
11	18	47	28	782	177.0	-171347.0	-1217.0	-44880.0
11	18	47	28	783	178.0	-166316.0	-1215.0	-45387.0
11	18	47	28	783	179.0	-162861.0	-1226.0	-46482.0
11	18	47	28	784	180.0	-162525.0	-1222.0	-47262.0
11	18	47	28	812	181.0	-165307.0	-1210.0	-48147.0
11	18	47	28	813	182.0	-170800.0	-1216.0	-49168.0
11	18	47	28	814	183.0	-178895.0	-1253.0	-49762.0
11	18	47	28	814	184.0	-190253.0	-1267.0	-49494.0
11	18	47	28	815	185.0	-202251.0	-1270.0	-49359.0
11	18	47	28	816	186.0	-212113.0	-1293.0	-49801.0
11	18	47	28	817	187.0	-220023.0	-1294.0	-49334.0
11	18	47	28	818	188.0	-225529.0	-1277.0	-49458.0
11	18	47	28	819	189.0	-228257.0	-1302.0	-50253.0
11	18	47	28	820	190.0	-228366.0	-1311.0	-50579.0
11	18	47	28	820	191.0	-227302.0	-1321.0	-50535.0
11	18	47	28	821	192.0	-223646.0	-1328.0	-50437.0
11	18	47	28	822	193.0	-215991.0	-1354.0	-50996.0
11	18	47	28	823	194.0	-205319.0	-1362.0	-50989.0
11	18	47	28	823	195.0	-192672.0	-1371.0	-50906.0
11	18	47	28	824	197.0	-165536.0	-1379.0	-50753.0
11	18	47	28	825	198.0	-155080.0	-1387.0	-50618.0
11	18	47	28	825	199.0	-148459.0	-1391.0	-50772.0
11	18	47	28	826	200.0	-145218.0	-1388.0	-50849.0
11	18	47	28	827	201.0	-144464.0	-1391.0	-50513.0
11	18	47	28	827	202.0	-146408.0	-1387.0	-50093.0
11	18	47	28	856	203.0	-150001.0	-1398.0	-50547.0
11	18	47	28	857	204.0	-154302.0	-1418.0	-50779.0
11	18	47	28	858	205.0	-158950.0	-1419.0	-51313.0
11	18	47	28	858	206.0	-164798.0	-1426.0	-51373.0
11	18	47	28	859	207.0	-172120.0	-1441.0	-51401.0
11	18	47	28	860	208.0	-179416.0	-1466.0	-50937.0
11	18	47	28	861	209.0	-186142.0	-1476.0	-50732.0
11	18	47	28	862	210.0	-192697.0	-1461.0	-51096.0
11	18	47	28	863	211.0	-198341.0	-1466.0	-51311.0
11	18	47	28	864	212.0	-202582.0	-1477.0	-51834.0
11	18	47	28	864	213.0	-205881.0	-1481.0	-52504.0
11	18	47	28	865	214.0	-208990.0	-1503.0	-52640.0
11	18	47	28	866	215.0	-211637.0	-1516.0	-52940.0
11	18	47	28	867	216.0	-214847.0	-1514.0	-52821.0
11	18	47	28	868	217.0	-218584.0	-1496.0	-52236.0
11	18	47	28	869	219.0	-230014.0	-1505.0	-53399.0
11	18	47	28	869	220.0	-237033.0	-1522.0	-53277.0
11	18	47	28	870	221.0	-243992.0	-1514.0	-53197.0
11	18	47	28	871	222.0	-251317.0	-1514.0	-53582.0
11	18	47	28	871	223.0	-258593.0	-1529.0	-54085.0
11	18	47	28	872	224.0	-265406.0	-1541.0	-54024.0
11	18	47	28	904	225.0	-271018.0	-1550.0	-53921.0
11	18	47	28	905	226.0	-275396.0	-1533.0	-53536.0
11	18	47	28	906	227.0	-277886.0	-1539.0	-53091.0
11	18	47	28	906	228.0	-278195.0	-1547.0	-53261.0
11	18	47	28	907	229.0	-276515.0	-1544.0	-53568.0
11	18	47	28	908	230.0	-273259.0	-1537.0	-53456.0
11	18	47	28	909	231.0	-269366.0	-1546.0	-52969.0
11	18	47	28	910	232.0	-264883.0	-1557.0	-53149.0
11	18	47	28	911	233.0	-260296.0	-1559.0	-52731.0
11	18	47	28	911	234.0	-256099.0	-1566.0	-52082.0
11	18	47	28	912	235.0	-252395.0	-1581.0	-51847.0
11	18	47	28	913	236.0	-248889.0	-1571.0	-51252.0
11	18	47	28	914	237.0	-245384.0	-1561.0	-50657.0
11	18	47	28	914	238.0	-242640.0	-1576.0	-50665.0
11	18	47	28	915	239.0	-241155.0	-1575.0	-50748.0
11	18	47	28	915	242.0	-239046.0	-1587.0	-50769.0
11	18	47	28	916	243.0	-237681.0	-1595.0	-50921.0
11	18	47	28	917	244.0	-234912.0	-1611.0	-50585.0
11	18	47	28	917	245.0	-231538.0	-1609.0	-50252.0
11	18	47	28	918	246.0	-227916.0	-1601.0	-49439.0
11	18	47	28	919	247.0	-223403.0	-1580.0	-48546.0
11	18	47	28	948	248.0	-218217.0	-1574.0	-48292.0
11	18	47	28	949	249.0	-213426.0	-1596.0	-48014.0
11	18	47	28	950	250.0	-208484.0	-1596.0	-48189.0
11	18	47	28	951	251.0	-203566.0	-1579.0	-48539.0
11	18	47	28	952	252.0	-199289.0	-1584.0	-48602.0
11	18	47	28	953	253.0	-196322.0	-1609.0	-49326.0
11	18	47	28	954	254.0	-194735.0	-1618.0	-49648.0
11	18	47	28	954	255.0	-193910.0	-1624.0	-49922.0
11	18	47	28	955	0.0	-193296.0	-1612.0	-49751.0
11	18	47	28	956	1.0	-193617.0	-1605.0	-49671.0
11	18	47	28	957	2.0	-194253.0	-1610.0	-50037.0
11	18	47	28	957	3.0	-194602.0	-1599.0	-49939.0
11	18	47	28	958	4.0	-195181.0	-1601.0	-50125.0
11	18	47	28	959	5.0	-195595.0	-1598.0	-50512.0
11	18	47	28	959	6.0	-195673.0	-1614.0	-51215.0
11	18	47	28	960	8.0	-195380.0	-1605.0	-52478.0
11	18	47	28	961	9.0	-195697.0	-1621.0	-53473.0
11	18	47	28	961	10.0	-196224.0	-1606.0	-53601.0
11	18	47	28	962	11.0	-197074.0	-1575.0	-53931.0
11	18	47	28	963	12.0	-198467.0	-1582.0	-54202.0
11	18	47	28	963	13.0	-199937.0	-1593.0	-53836.0
11	18	47	28	991	14.0	-201480.0	-1583.0	-53126.0
11	18	47	28	992	15.0	-203183.0	-1576.0	-53591.0
11	18	47	28	993	16.0	-204757.0	-1577.0	-54137.0
11	18	47	28	994	17.0	-205970.0	-1584.0	-54324.0
11	18	47	28	995	18.0	-206538.0	-1585.0	-53916.0
11	18	47	28	996	19.0	-206751.0	-1586.0	-54075.0
11	18	47	28	996	20.0	-206981.0	-1572.0	-53349.0
11	18	47	28	997	21.0	-207529.0	-1575.0	-52577.0
11	18	47	28	998	22.0	-207427.0	-1565.0	-52502.0
11	18	47	28	999	23.0	-207187.0	-1533.0	-52319.0
11	18	47	29	0	24.0	-207646.0	-1506.0	-52039.0
11	18	47	29	1	25.0	-208232.0	-1496.0	-51837.0
11	18	47	29	1	26.0	-207999.0	-1475.0	-51798.0
11	18	47	29	2	27.0	-206687.0	-1449.0	-52380.0
11	18	47	29	3	28.0	-204452.0	-1446.0	-52809.0
11	18	47	29	3	30.0	-195968.0	-1382.0	-52293.0
11	18	47	29	4	31.0	-190367.0	-1336.0	-51920.0
11	18	47	29	5	32.0	-184519.0	-1286.0	-51856.0
11	18	47	29	5	33.0	-178727.0	-1245.0	-52230.0
11	18	47	29	6	34.0	-172912.0	-1201.0	-52008.0
11	18	47	29	7	35.0	-166885.0	-1154.0	-52291.0
11	18	47	29	7	36.0	-161108.0	-1105.0	-52524.0
11	18	47	29	37	37.0	-155999.0	-1062.0	-52922.0
11	18	47	29	38	38.0	-151208.0	-1005.0	-53151.0
11	18	47	29	39	39.0	-146698.0	-941.0	-52896.0
11	18	47	29	40	40.0	-142686.0	-867.0	-52423.0
11	18	47	29	41	41.0	-138132.0	-805.0	-52474.0
11	18	47	29	42	42.0	-133142.0	-710.0	-52463.0
11	18	47	29	42	43.0	-128441.0	-658.0	-52083.0
11	18	47	29	43	44.0	-124939.0	-597.0	-52527.0
11	18	47	29	44	45.0	-122218.0	-513.0	-53011.0
11	18	47	29	45	46.0	-120194.0	-441.0	-53205.0
11	18	47	29	45	47.0	-118744.0	-391.0	-53121.0
11	18	47	29	46	48.0	-118452.0	-307.0	-53434.0
11	18	47	29	47	49.0	-119793.0	-212.0	-53561.0
11	18	47	29	48	50.0	-122884.0	-153.0	-52879.0
11	18	47	29	48	51.0	-127588.0	-72.0	-52263.0
11	18	47	29	49	53.0	-139899.0	86.0	-52243.0
11	18	47	29	50	54.0	-147112.0	173.0	-52223.0
11	18	47	29	50	55.0	-155591.0	259.0	-52619.0
11	18	47	29	51	56.0	-164601.0	327.0	-52306.0
11	18	47	29	52	57.0	-174933.0	400.0	-52437.0
11	18	47	29	52	58.0	-186119.0	476.0	-52366.0
11	18	47	29	82	59.0	-196895.0	549.0	-51722.0
11	18	47	29	83	60.0	-205995.0	650.0	-51392.0
11	18	47	29	84	61.0	-213065.0	743.0	-51219.0
11	18	47	29	85	62.0	-218595.0	794.0	-51236.0
11	18	47	29	86	63.0	-222977.0	864.0	-51202.0
11	18	47	29	86	64.0	-226464.0	943.0	-50819.0
11	18	47	29	87	65.0	-228199.0	1021.0	-50714.0
11	18	47	29	88	66.0	-227609.0	1096.0	-50466.0
11	18	47	29	89	67.0	-225467.0	1145.0	-50624.0
11	18	47	29	90	68.0	-223104.0	1208.0	-50878.0
11	18	47	29	90	69.0	-220684.0	1279.0	-50698.0
11	18	47	29	91	70.0	-218131.0	1336.0	-49889.0
11	18	47	29	92	71.0	-214862.0	1419.0	-49747.0
11	18	47	29	93	72.0	-211552.0	1492.0	-49278.0
11	18	47	29	93	73.0	-208073.0	1549.0	-49271.0
11	18	47	29	94	75.0	-199330.0	1663.0	-48897.0
11	18	47	29	95	76.0	-193697.0	1706.0	-48656.0
11	18	47	29	95	77.0	-187731.0	1743.0	-48886.0
11	18	47	29	96	78.0	-182219.0	1799.0	-48936.0
11	18	47	29	97	79.0	-178690.0	1877.0	-48372.0
11	18	47	29	97	80.0	-176054.0	1939.0	-47955.0
11	18	47	29	98	81.0	-170537.0	1997.0	-48280.0
11	18	47	29	126	82.0	-167542.0	2038.0	-48391.0
11	18	47	29	127	83.0	-165715.0	2088.0	-48425.0
11	18	47	29	128	84.0	-162361.0	2116.0	-49032.0
11	18	47	29	129	85.0	-165103.0	2162.0	-49142.0
11	18	47	29	130	86.0	-168296.0	2214.0	-49084.0
11	18	47	29	131	87.0	-169459.0	2239.0	-49441.0
11	18	47	29	131	88.0	-172001.0	2268.0	-49142.0
11	18	47	29	132	89.0	-173161.0	2304.0	-48394.0
11	18	47	29	133	90.0	-173082.0	2373.0	-48021.0
11	18	47	29	134	91.0	-173319.0	2415.0	-48426.0
11	18	47	29	135	92.0	-175681.0	2453.0	-48481.0
11	18	47	29	135	93.0	-179688.0	2491.0	-48782.0
11	18	47	29	136	94.0	-183139.0	2523.0	-49103.0
11	18	47	29	137	95.0	-186729.0	2554.0	-49166.0
11	18	47	29	138	96.0	-191166.0	2563.0	-49431.0
11	18	47	29	138	98.0	-199384.0	2621.0	-50563.0
11	18	47	29	139	99.0	-204200.0	2656.0	-50358.0
11	18	47	29	140	100.0	-210236.0	2696.0	-50314.0
11	18	47	29	140	101.0	-217733.0	2718.0	-50441.0
11	18	47	29	141	102.0	-226530.0	2754.0	-50767.0
11	18	47	29	142	103.0	-236397.0	2785.0	-50931.0
11	18	47	29	171	104.0	-247043.0	2821.0	-51204.0
11	18	47	29	172	105.0	-257988.0	2825.0	-51179.0
11	18	47	29	174	106.0	-267314.0	2840.0	-51177.0
11	18	47	29	175	107.0	-274574.0	2854.0	-51773.0
11	18	47	29	175	108.0	-281362.0	2876.0	-51974.0
11	18	47	29	176	109.0	-285309.0	2908.0	-51820.0
11	18	47	29	177	110.0	-286522.0	2926.0	-51535.0
11	18	47	29	178	111.0	-285274.0	2930.0	-51749.0
11	18	47	29	179	112.0	-281876.0	2963.0	-51713.0
11	18	47	29	180	113.0	-277014.0	2980.0	-52094.0
11	18	47	29	180	114.0	-270276.0	3000.0	-52500.0
11	18	47	29	181	115.0	-262569.0	3024.0	-52959.0
11	18	47	29	182	116.0	-254751.0	3043.0	-53488.0
11	18	47	29	183	117.0	-246776.0	3040.0	-54136.0
11	18	47	29	184	118.0	-238836.0	3049.0	-54176.0
11	18	47	29	184	120.0	-226115.0	3079.0	-53941.0
11	18	47	29	185	121.0	-221539.0	3083.0	-53989.0
11	18	47	29	186	122.0	-218236.0	3094.0	-53647.0
11	18	47	29	186	123.0	-215503.0	3108.0	-53968.0
11	18	47	29	187	124.0	-213221.0	3121.0	-54339.0
11	18	47	29	187	125.0	-211431.0	3126.0	-54501.0
11	18	47	29	188	126.0	-209421.0	3133.0	-55158.0
11	18	47	29	216	127.0	-206365.0	3132.0	-55943.0
11	18	47	29	217	128.0	-203875.0	3141.0	-56078.0
11	18	47	29	218	129.0	-202576.0	3153.0	-55354.0
11	18	47	29	219	130.0	-202273.0	3153.0	-54630.0
11	18	47	29	220	131.0	-202895.0	3160.0	-54495.0
11	18	47	29	221	132.0	-204616.0	3153.0	-54527.0
11	18	47	29	221	133.0	-207266.0	3146.0	-54427.0
11	18	47	29	222	134.0	-210260.0	3148.0	-54524.0
11	18	47	29	223	135.0	-213516.0	3163.0	-54515.0
11	18	47	29	224	136.0	-216544.0	3161.0	-54904.0
11	18	47	29	225	137.0	-219384.0	3136.0	-55251.0
11	18	47	29	225	138.0	-222027.0	3134.0	-55381.0
11	18	47	29	226	139.0	-224220.0	3145.0	-54691.0
11	18	47	29	227	140.0	-225382.0	3151.0	-54145.0
11	18	47	29	227	141.0	-225152.0	3147.0	-54206.0
11	18	47	29	228	143.0	-223461.0	3138.0	-53924.0
11	18	47	29	229	144.0	-223522.0	3127.0	-53910.0
11	18	47	29	229	145.0	-222994.0	3128.0	-53809.0
11	18	47	29	230	146.0	-219646.0	3121.0	-53903.0
11	18	47	29	231	147.0	-216074.0	3111.0	-54132.0
11	18	47	29	231	148.0	-210192.0	3080.0	-53903.0
11	18	47	29	261	149.0	-204155.0	3078.0	-53396.0
11	18	47	29	262	150.0	-198086.0	3091.0	-52912.0
11	18	47	29	262	151.0	-192617.0	3077.0	-52267.0
11	18	47	29	263	152.0	-187814.0	3057.0	-52017.0
11	18	47	29	264	153.0	-184234.0	3052.0	-51904.0
11	18	47	29	265	154.0	-181837.0	3036.0	-51779.0
11	18	47	29	266	155.0	-180734.0	3016.0	-51535.0
11	18	47	29	267	156.0	-180525.0	2998.0	-51692.0
11	18	47	29	267	157.0	-181421.0	2984.0	-51562.0
11	18	47	29	269	158.0	-183179.0	2975.0	-50962.0
11	18	47	29	270	159.0	-185180.0	2962.0	-50434.0
11	18	47	29	271	160.0	-187802.0	2958.0	-49542.0
11	18	47	29	272	161.0	-189912.0	2953.0	-49085.0
11	18	47	29	273	162.0	-192414.0	2942.0	-49109.0
11	18	47	29	273	163.0	-194892.0	2930.0	-48737.0
11	18	47	29	274	165.0	-197693.0	2900.0	-47484.0
11	18	47	29	275	166.0	-199002.0	2885.0	-48449.0
11	18	47	29	275	167.0	-199876.0	2874.0	-49221.0
11	18	47	29	276	168.0	-200242.0	2854.0	-49161.0
11	18	47	29	277	169.0	-200042.0	2850.0	-48924.0
11	18	47	29	277	170.0	-199905.0	2855.0	-48676.0
11	18	47	29	306	171.0	-199651.0	2844.0	-48656.0
11	18	47	29	307	172.0	-198693.0	2834.0	-49085.0
11	18	47	29	308	173.0	-197182.0	2829.0	-49161.0
11	18	47	29	309	174.0	-195167.0	2829.0	-49530.0
11	18	47	29	310	175.0	-192686.0	2819.0	-50147.0
11	18	47	29	310	176.0	-190452.0	2801.0	-51115.0
11	18	47	29	311	177.0	-188729.0	2773.0	-51158.0
11	18	47	29	312	178.0	-187056.0	2750.0	-51182.0
11	18	47	29	313	179.0	-185793.0	2743.0	-51655.0
11	18	47	29	314	180.0	-184435.0	2738.0	-51710.0
11	18	47	29	315	181.0	-183851.0	2734.0	-52166.0
11	18	47	29	315	182.0	-183612.0	2727.0	-52783.0
11	18	47	29	316	183.0	-182684.0	2739.0	-53196.0
11	18	47	29	317	184.0	-181476.0	2724.0	-52701.0
11	18	47	29	318	185.0	-180161.0	2708.0	-52554.0
11	18	47	29	319	187.0	-179443.0	2681.0	-53125.0
11	18	47	29	319	188.0	-179772.0	2681.0	-53372.0
11	18	47	29	320	189.0	-179564.0	2673.0	-53612.0
11	18	47	29	321	190.0	-178688.0	2683.0	-53242.0
11	18	47	29	321	191.0	-177401.0	2680.0	-53010.0
11	18	47	29	322	192.0	-174961.0	2664.0	-53164.0
11	18	47	29	323	193.0	-172286.0	2645.0	-52832.0
11	18	47	29	351	194.0	-169650.0	2655.0	-52537.0
11	18	47	29	352	195.0	-168284.0	2666.0	-52649.0
11	18	47	29	396	196.0	-167632.0	2648.0	-53006.0
11	18	47	29	397	197.0	-167297.0	2624.0	-52974.0
11	18	47	29	398	198.0	-167978.0	2614.0	-53146.0
11	18	47	29	399	199.0	-169489.0	2616.0	-53144.0
11	18	47	29	400	200.0	-171819.0	2618.0	-52924.0
11	18	47	29	401	201.0	-174704.0	2616.0	-52550.0
11	18	47	29	402	202.0	-177947.0	2621.0	-52477.0
11	18	47	29	403	203.0	-180535.0	2604.0	-52376.0
11	18	47	29	403	204.0	-182314.0	2589.0	-52152.0
11	18	47	29	404	205.0	-183094.0	2576.0	-51898.0
11	18	47	29	405	206.0	-182770.0	2567.0	-52320.0
11	18	47	29	406	207.0	-181722.0	2578.0	-52281.0
11	18	47	29	407	208.0	-179676.0	2564.0	-52431.0
11	18	47	29	408	210.0	-176770.0	2561.0	-51982.0
11	18	47	29	409	211.0	-176514.0	2552.0	-51642.0
11	18	47	29	410	232.0	-221024.0	2348.0	-53957.0
11	18	47	29	411	233.0	-217838.0	2344.0	-54785.0
11	18	47	29	411	234.0	-214574.0	2334.0	-56027.0
11	18	47	29	412	235.0	-209928.0	2326.0	-57774.0
11	18	47	29	413	236.0	-203525.0	2309.0	-59042.0
11	18	47	29	413	237.0	-196141.0	2284.0	-59570.0
11	18	47	29	414	238.0	-188722.0	2269.0	-60478.0
11	18	47	29	441	239.0	-181949.0	2279.0	-60519.0
11	18	47	29	442	240.0	-175937.0	2281.0	-60277.0
11	18	47	29	443	241.0	-170711.0	2253.0	-60421.0
11	18	47	29	444	242.0	-166517.0	2248.0	-60479.0
11	18	47	29	445	243.0	-163447.0	2256.0	-60317.0
11	18	47	29	446	244.0	-161966.0	2236.0	-59463.0
11	18	47	29	447	245.0	-162123.0	2221.0	-58364.0
11	18	47	29	448	246.0	-163351.0	2211.0	-56877.0
11	18	47	29	448	247.0	-165831.0	2203.0	-55647.0
11	18	47	29	449	248.0	-169339.0	2179.0	-54415.0
11	18	47	29	450	249.0	-172517.0	2169.0	-53126.0
11	18	47	29	451	250.0	-175267.0	2176.0	-52171.0
11	18	47	29	451	251.0	-177556.0	2176.0	-51871.0
11	18	47	29	452	252.0	-179838.0	2152.0	-51693.0
11	18	47	29	453	253.0	-182646.0	2117.0	-51584.0
11	18	47	29	454	255.0	-188352.0	2118.0	-51157.0
11	18	47	29	454	0.0	-189571.0	2096.0	-50683.0
11	18	47	29	455	1.0	-191252.0	2096.0	-50493.0
11	18	47	29	455	2.0	-192956.0	2084.0	-50594.0
11	18	47	29	456	3.0	-194973.0	2072.0	-49909.0
11	18	47	29	457	4.0	-197445.0	2039.0	-48854.0
11	18	47	29	486	5.0	-199727.0	2051.0	-47621.0
11	18	47	29	487	6.0	-201916.0	2038.0	-45647.0
11	18	47	29	488	7.0	-203564.0	2020.0	-43128.0
11	18	47	29	489	8.0	-203797.0	2021.0	-41106.0
11	18	47	29	490	9.0	-202796.0	2023.0	-39463.0
11	18	47	29	491	10.0	-201690.0	2013.0	-38271.0
11	18	47	29	491	11.0	-200733.0	1983.0	-37335.0
11	18	47	29	492	12.0	-199866.0	1953.0	-36577.0
11	18	47	29	493	13.0	-199606.0	1971.0	-34485.0
11	18	47	29	494	14.0	-200675.0	1969.0	-33231.0
11	18	47	29	495	15.0	-203339.0	1939.0	-33206.0
11	18	47	29	495	16.0	-207174.0	1921.0	-32416.0
11	18	47	29	496	17.0	-212891.0	1908.0	-31112.0
11	18	47	29	497	18.0	-218311.0	1914.0	-30238.0
11	18	47	29	498	19.0	-223377.0	1896.0	-29695.0
11	18	47	29	499	21.0	-231247.0	1848.0	-27742.0
11	18	47	29	499	22.0	-234613.0	1835.0	-26837.0
11	18	47	29	500	23.0	-237995.0	1826.0	-26245.0
11	18	47	29	501	24.0	-241196.0	1830.0	-25723.0
11	18	47	29	502	25.0	-243586.0	1811.0	-25497.0
11	18	47	29	502	26.0	-245482.0	1791.0	-24869.0
11	18	47	29	503	27.0	-245956.0	1790.0	-24082.0
11	18	47	29	531	28.0	-245624.0	1781.0	-23220.0
11	18	47	29	532	29.0	-245096.0	1765.0	-23192.0
11	18	47	29	533	30.0	-244086.0	1733.0	-23296.0
11	18	47	29	534	31.0	-243479.0	1726.0	-22519.0
11	18	47	29	535	32.0	-244001.0	1698.0	-22492.0
11	18	47	29	536	33.0	-245393.0	1689.0	-23892.0
11	18	47	29	537	34.0	-247091.0	1688.0	-24039.0
11	18	47	29	538	35.0	-248857.0	1686.0	-23515.0
11	18	47	29	538	36.0	-249481.0	1681.0	-22837.0
11	18	47	29	539	37.0	-248783.0	1654.0	-22199.0
11	18	47	29	540	38.0	-247141.0	1626.0	-22071.0
11	18	47	29	541	39.0	-243705.0	1608.0	-22288.0
11	18	47	29	542	40.0	-239147.0	1593.0	-22512.0
11	18	47	29	543	41.0	-234284.0	1558.0	-22507.0
11	18	47	29	544	42.0	-228676.0	1555.0	-22141.0
11	18	47	29	545	44.0	-218396.0	1538.0	-21469.0
11	18	47	29	546	45.0	-214417.0	1529.0	-21030.0
11	18	47	29	548	46.0	-211103.0	1503.0	-20850.0
11	18	47	29	549	47.0	-209176.0	1498.0	-20484.0
11	18	47	29	550	48.0	-208542.0	1496.0	-19866.0
11	18	47	29	551	49.0	-209848.0	1474.0	-20051.0
11	18	47	29	580	50.0	-212449.0	1444.0	-20036.0
11	18	47	29	584	51.0	-215199.0	1433.0	-19928.0
11	18	47	29	585	52.0	-218206.0	1406.0	-19393.0
11	18	47	29	586	53.0	-221440.0	1406.0	-18752.0
11	18	47	29	587	54.0	-224787.0	1398.0	-18630.0
11	18	47	29	588	55.0	-226944.0	1383.0	-18546.0
11	18	47	29	588	56.0	-228186.0	1375.0	-18186.0
11	18	47	29	589	57.0	-228002.0	1341.0	-18557.0
11	18	47	29	590	58.0	-226844.0	1324.0	-18246.0
11	18	47	29	591	59.0	-224230.0	1304.0	-17867.0
11	18	47	29	592	60.0	-220402.0	1289.0	-17558.0
11	18	47	29	592	61.0	-216470.0	1268.0	-17089.0
11	18	47	29	593	62.0	-211671.0	1248.0	-16294.0
11	18	47	29	594	63.0	-206466.0	1241.0	-15643.0
11	18	47	29	594	64.0	-201241.0	1239.0	-15393.0
11	18	47	29	595	66.0	-193936.0	1194.0	-14911.0
11	18	47	29	596	67.0	-192727.0	1180.0	-14405.0
11	18	47	29	597	68.0	-193251.0	1184.0	-14628.0
11	18	47	29	597	69.0	-194536.0	1178.0	-15695.0
11	18	47	29	598	70.0	-195722.0	1141.0	-16906.0
11	18	47	29	599	71.0	-195814.0	1122.0	-17165.0
11	18	47	29	599	72.0	-195063.0	1102.0	-15264.0
11	18	47	29	623	73.0	-194474.0	1089.0	-13772.0
11	18	47	29	625	74.0	-193527.0	1101.0	-13474.0
11	18	47	29	628	75.0	-192109.0	1084.0	-14509.0
11	18	47	29	630	76.0	-191804.0	1071.0	-16494.0
11	18	47	29	631	77.0	-193383.0	1056.0	-18734.0
11	18	47	29	632	78.0	-196622.0	1051.0	-19040.0
11	18	47	29	633	79.0	-200997.0	1014.0	-16596.0
11	18	47	29	634	80.0	-205855.0	981.0	-9970.0
11	18	47	29	635	81.0	-211479.0	964.0	733.0
11	18	47	29	636	82.0	-218221.0	944.0	10761.0
11	18	47	29	637	83.0	-225525.0	940.0	19058.0
11	18	47	29	637	84.0	-233240.0	925.0	25186.0
11	18	47	29	638	85.0	-240730.0	913.0	31154.0
11	18	47	29	639	86.0	-246621.0	889.0	36725.0
11	18	47	29	639	87.0	-251279.0	878.0	40598.0
11	18	47	29	640	89.0	-255409.0	817.0	41430.0
11	18	47	29	641	90.0	-254378.0	799.0	39217.0
11	18	47	29	641	91.0	-251704.0	796.0	36488.0
11	18	47	29	642	92.0	-249168.0	771.0	34333.0
11	18	47	29	643	93.0	-247077.0	770.0	34311.0
11	18	47	29	643	94.0	-244060.0	746.0	34979.0
11	18	47	29	666	95.0	-240747.0	727.0	34568.0
11	18	47	29	668	96.0	-236336.0	722.0	33355.0
11	18	47	29	671	97.0	-232029.0	703.0	31738.0
11	18	47	29	673	98.0	-229524.0	676.0	29684.0
11	18	47	29	674	99.0	-227186.0	658.0	28798.0
11	18	47	29	675	100.0	-225536.0	636.0	28498.0
11	18	47	29	676	101.0	-225427.0	606.0	28043.0
11	18	47	29	677	102.0	-224488.0	602.0	28491.0
11	18	47	29	678	103.0	-220833.0	592.0	28477.0
11	18	47	29	679	104.0	-213322.0	581.0	27809.0
11	18	47	29	679	105.0	-204069.0	561.0	27124.0
11	18	47	29	680	106.0	-196549.0	539.0	25888.0
11	18	47	29	681	107.0	-189209.0	516.0	25251.0
11	18	47	29	682	108.0	-182547.0	501.0	25094.0
11	18	47	29	682	109.0	-179146.0	489.0	25526.0
11	18	47	29	683	111.0	-181407.0	438.0	26234.0
11	18	47	29	684	112.0	-184447.0	420.0	26630.0
11	18	47	29	684	113.0	-187916.0	418.0	27400.0
11	18	47	29	685	114.0	-191276.0	386.0	27774.0
11	18	47	29	686	115.0	-193282.0	378.0	27458.0
11	18	47	29	686	116.0	-192957.0	377.0	26874.0
11	18	47	29	710	117.0	-189053.0	365.0	26429.0
11	18	47	29	711	118.0	-182905.0	349.0	25990.0
11	18	47	29	712	119.0	-175061.0	324.0	24881.0
11	18	47	29	712	120.0	-164942.0	293.0	23501.0
11	18	47	29	713	121.0	-155659.0	268.0	22091.0
11	18	47	29	714	122.0	-147651.0	248.0	19922.0
11	18	47	29	714	123.0	-137819.0	239.0	16911.0
11	18	47	29	715	124.0	-129808.0	226.0	13371.0
11	18	47	29	716	125.0	-123184.0	211.0	10906.0
11	18	47	29	716	126.0	-119166.0	208.0	8331.0
11	18	47	29	717	127.0	-117569.0	185.0	6001.0
11	18	47	29	718	128.0	-118802.0	154.0	4614.0
11	18	47	29	718	129.0	-121762.0	128.0	3584.0
11	18	47	29	719	130.0	-126472.0	104.0	2518.0
11	18	47	29	720	131.0	-131376.0	86.0	1967.0
11	18	47	29	720	133.0	-144297.0	53.0	125.0
11	18	47	29	721	134.0	-152337.0	49.0	-872.0
11	18	47	29	722	135.0	-161766.0	35.0	-1274.0
11	18	47	29	722	136.0	-171519.0	24.0	-1651.0
11	18	47	29	723	137.0	-179832.0	-1.0	-1844.0
11	18	47	29	724	138.0	-187306.0	-22.0	-2041.0
11	18	47	29	756	139.0	-193754.0	-40.0	-1982.0
11	18	47	29	801	140.0	-200462.0	-60.0	-2214.0
11	18	47	29	801	141.0	-206167.0	-72.0	-2359.0
11	18	47	29	802	142.0	-209226.0	-90.0	-2564.0
11	18	47	29	803	143.0	-211388.0	-128.0	-2486.0
11	18	47	29	803	144.0	-212181.0	-151.0	-2686.0
11	18	47	29	804	145.0	-211429.0	-156.0	-3119.0
11	18	47	29	805	146.0	-210091.0	-173.0	-3419.0
11	18	47	29	805	147.0	-209064.0	-189.0	-3507.0
11	18	47	29	806	148.0	-209147.0	-207.0	-3459.0
11	18	47	29	807	149.0	-210137.0	-242.0	-3445.0
11	18	47	29	807	150.0	-211547.0	-284.0	-3382.0
11	18	47	29	808	151.0	-213526.0	-290.0	-2976.0
11	18	47	29	809	152.0	-216112.0	-322.0	-2677.0
11	18	47	29	809	153.0	-216852.0	-346.0	-2119.0
11	18	47	29	810	156.0	-217623.0	-403.0	-49.0
11	18	47	29	810	178.0	-217711.0	-950.0	3739.0
11	18	47	29	811	179.0	-219845.0	-984.0	4478.0
11	18	47	29	812	180.0	-220893.0	-1019.0	4969.0
11	18	47	29	812	181.0	-221681.0	-1051.0	6028.0
11	18	47	29	813	182.0	-222494.0	-1071.0	7174.0
11	18	47	29	814	183.0	-222854.0	-1077.0	8031.0
11	18	47	29	814	184.0	-224396.0	-1108.0	9151.0
11	18	47	29	845	185.0	-226832.0	-1114.0	10500.0
11	18	47	29	846	186.0	-231996.0	-1116.0	11249.0
11	18	47	29	846	187.0	-237142.0	-1157.0	11949.0
11	18	47	29	847	188.0	-242736.0	-1189.0	13119.0
11	18	47	29	848	189.0	-248531.0	-1227.0	14599.0
11	18	47	29	848	190.0	-253914.0	-1249.0	16335.0
11	18	47	29	849	191.0	-257043.0	-1284.0	18152.0
11	18	47	29	850	192.0	-256173.0	-1276.0	19533.0
11	18	47	29	850	193.0	-253547.0	-1285.0	20893.0
11	18	47	29	851	194.0	-252426.0	-1296.0	22188.0
11	18	47	29	852	195.0	-249932.0	-1331.0	23599.0
11	18	47	29	852	196.0	-247672.0	-1360.0	24659.0
11	18	47	29	853	197.0	-245347.0	-1370.0	25544.0
11	18	47	29	853	198.0	-242082.0	-1390.0	26704.0
11	18	47	29	854	199.0	-237727.0	-1425.0	26875.0
11	18	47	29	855	201.0	-228737.0	-1437.0	28586.0
11	18	47	29	855	202.0	-224862.0	-1456.0	29390.0
11	18	47	29	856	203.0	-221309.0	-1474.0	30441.0
11	18	47	29	857	204.0	-218783.0	-1485.0	32012.0
11	18	47	29	857	205.0	-217396.0	-1482.0	32774.0
11	18	47	29	858	206.0	-214909.0	-1482.0	33908.0
11	18	47	29	891	207.0	-212861.0	-1511.0	35023.0
11	18	47	29	892	208.0	-210641.0	-1517.0	35933.0
11	18	47	29	893	209.0	-207681.0	-1512.0	36316.0
11	18	47	29	893	210.0	-205274.0	-1519.0	37848.0
11	18	47	29	894	211.0	-202162.0	-1539.0	40233.0
11	18	47	29	895	212.0	-200500.0	-1537.0	43694.0
11	18	47	29	895	213.0	-199263.0	-1533.0	48238.0
11	18	47	29	896	214.0	-199491.0	-1531.0	52329.0
11	18	47	29	897	215.0	-201317.0	-1533.0	55106.0
11	18	47	29	898	216.0	-201669.0	-1533.0	57580.0
11	18	47	29	898	217.0	-200622.0	-1512.0	58880.0
11	18	47	29	899	218.0	-199716.0	-1502.0	59716.0
11	18	47	29	899	219.0	-199740.0	-1501.0	60503.0
11	18	47	29	900	220.0	-199102.0	-1502.0	61317.0
11	18	47	29	901	221.0	-197599.0	-1484.0	62745.0
11	18	47	29	901	223.0	-190056.0	-1454.0	65006.0
11	18	47	29	902	224.0	-184689.0	-1426.0	66003.0
11	18	47	29	903	225.0	-178942.0	-1405.0	66886.0
11	18	47	29	903	226.0	-175268.0	-1375.0	67199.0
11	18	47	29	904	227.0	-172421.0	-1339.0	67508.0
11	18	47	29	905	228.0	-170220.0	-1307.0	67485.0
11	18	47	29	905	229.0	-167432.0	-1299.0	67029.0
11	18	47	29	937	230.0	-165702.0	-1262.0	67140.0
11	18	47	29	937	231.0	-166099.0	-1227.0	67392.0
11	18	47	29	938	232.0	-166431.0	-1172.0	67530.0
11	18	47	29	939	233.0	-168136.0	-1105.0	67598.0
11	18	47	29	939	234.0	-170277.0	-1063.0	67939.0
11	18	47	29	940	235.0	-172684.0	-1031.0	68185.0
11	18	47	29	941	236.0	-176442.0	-982.0	68527.0
11	18	47	29	942	237.0	-180127.0	-949.0	68693.0
11	18	47	29	942	238.0	-184617.0	-901.0	69146.0
11	18	47	29	943	239.0	-187576.0	-856.0	69718.0
11	18	47	29	944	240.0	-190179.0	-814.0	70379.0
11	18	47	29	945	241.0	-192494.0	-766.0	70625.0
11	18	47	29	945	242.0	-194113.0	-718.0	71588.0
11	18	47	29	946	243.0	-195130.0	-661.0	72153.0
11	18	47	29	946	244.0	-195957.0	-602.0	72873.0
11	18	47	29	947	246.0	-199483.0	-517.0	73021.0
11	18	47	29	948	247.0	-201795.0	-466.0	73681.0
11	18	47	29	948	248.0	-203517.0	-415.0	74086.0
11	18	47	29	949	249.0	-205635.0	-372.0	74290.0
11	18	47	29	949	250.0	-208431.0	-341.0	74947.0
11	18	47	29	950	251.0	-209674.0	-296.0	75489.0
11	18	47	29	981	252.0	-208335.0	-246.0	75118.0
11	18	47	29	982	253.0	-204891.0	-168.0	75301.0
11	18	47	29	983	254.0	-199706.0	-144.0	75857.0
11	18	47	29	983	255.0	-193611.0	-122.0	75693.0
11	18	47	29	984	0.0	-188145.0	-66.0	75628.0
11	18	47	29	985	1.0	-182869.0	-23.0	75087.0
11	18	47	29	986	2.0	-178787.0	16.0	74671.0
11	18	47	29	986	3.0	-175626.0	51.0	74548.0
11	18	47	29	987	4.0	-174208.0	70.0	74531.0
11	18	47	29	988	5.0	-175356.0	103.0	74423.0
11	18	47	29	989	6.0	-177561.0	148.0	74481.0
11	18	47	29	989	7.0	-177336.0	193.0	75002.0
11	18	47	29	990	8.0	-179212.0	225.0	75681.0
11	18	47	29	991	9.0	-184018.0	263.0	75654.0
11	18	47	29	991	10.0	-184467.0	288.0	75358.0
11	18	47	29	992	12.0	-188674.0	348.0	75517.0
11	18	47	29	992	13.0	-187672.0	357.0	75768.0
11	18	47	29	993	14.0	-185757.0	376.0	75679.0
11	18	47	29	994	15.0	-182989.0	396.0	75488.0
11	18	47	29	994	16.0	-180799.0	421.0	75219.0
11	18	47	29	995	17.0	-178183.0	459.0	75156.0
11	18	47	30	26	18.0	-176411.0	474.0	75193.0
11	18	47	30	26	19.0	-175869.0	489.0	75228.0
11	18	47	30	27	20.0	-173389.0	510.0	75888.0
11	18	47	30	28	21.0	-171675.0	539.0	76010.0
11	18	47	30	29	22.0	-171998.0	555.0	75474.0
11	18	47	30	29	23.0	-173062.0	553.0	75052.0
11	18	47	30	30	24.0	-173887.0	561.0	75323.0
11	18	47	30	31	25.0	-175224.0	589.0	74979.0
11	18	47	30	31	26.0	-177076.0	606.0	74793.0
11	18	47	30	32	27.0	-180543.0	613.0	74927.0
11	18	47	30	33	28.0	-183539.0	638.0	74453.0
11	18	47	30	34	29.0	-187107.0	642.0	73956.0
11	18	47	30	34	30.0	-191776.0	646.0	73671.0
11	18	47	30	35	31.0	-197252.0	641.0	73438.0
11	18	47	30	35	32.0	-204595.0	651.0	73108.0
11	18	47	30	36	35.0	-224468.0	652.0	73416.0
11	18	47	30	37	36.0	-227785.0	652.0	73207.0
11	18	47	30	37	37.0	-228389.0	669.0	73129.0
11	18	47	30	38	38.0	-227766.0	676.0	73374.0
11	18	47	30	39	39.0	-225799.0	688.0	73463.0
11	18	47	30	39	40.0	-222200.0	683.0	73829.0
11	18	47	30	70	41.0	-219662.0	685.0	73866.0
11	18	47	30	71	42.0	-216571.0	701.0	73418.0
11	18	47	30	72	43.0	-213469.0	689.0	73629.0
11	18	47	30	73	44.0	-211430.0	656.0	73743.0
11	18	47	30	74	45.0	-208961.0	635.0	73457.0
11	18	47	30	75	46.0	-206261.0	641.0	73616.0
11	18	47	30	76	47.0	-203157.0	663.0	73501.0
11	18	47	30	77	48.0	-200831.0	650.0	73106.0
11	18	47	30	77	49.0	-199961.0	654.0	72839.0
11	18	47	30	78	50.0	-198654.0	639.0	73068.0
11	18	47	30	79	51.0	-197264.0	634.0	72919.0
11	18	47	30	80	52.0	-195629.0	618.0	73382.0
11	18	47	30	80	53.0	-192872.0	591.0	73798.0
11	18	47	30	81	54.0	-189574.0	576.0	73568.0
11	18	47	30	82	55.0	-185552.0	564.0	74061.0
11	18	47	30	82	57.0	-177016.0	570.0	75364.0
11	18	47	30	83	58.0	-172159.0	549.0	75319.0
11	18	47	30	83	59.0	-167891.0	549.0	75573.0
11	18	47	30	84	60.0	-163389.0	535.0	75642.0
11	18	47	30	85	61.0	-159127.0	519.0	76029.0
11	18	47	30	85	62.0	-155744.0	518.0	76808.0
11	18	47	30	132	63.0	-153630.0	483.0	77305.0
11	18	47	30	148	64.0	-152412.0	459.0	77400.0
11	18	47	30	149	65.0	-151472.0	473.0	77573.0
11	18	47	30	150	66.0	-150375.0	466.0	77611.0
11	18	47	30	151	67.0	-150402.0	441.0	77328.0
11	18	47	30	151	68.0	-151097.0	435.0	77107.0
11	18	47	30	152	69.0	-152827.0	422.0	77030.0
11	18	47	30	153	70.0	-155566.0	408.0	77056.0
11	18	47	30	153	71.0	-159687.0	381.0	76899.0
11	18	47	30	154	72.0	-163954.0	364.0	76111.0
11	18	47	30	155	73.0	-170278.0	338.0	76018.0
11	18	47	30	155	74.0	-177205.0	303.0	76181.0
11	18	47	30	156	75.0	-183612.0	304.0	75679.0
11	18	47	30	157	76.0	-189093.0	291.0	75548.0
11	18	47	30	157	77.0	-195604.0	278.0	75228.0
11	18	47	30	158	87.0	-203903.0	109.0	73074.0
11	18	47	30	159	94.0	-183793.0	-53.0	76248.0
11	18	47	30	159	95.0	-182449.0	-52.0	76920.0
11	18	47	30	160	96.0	-181189.0	-57.0	77567.0
11	18	47	30	161	97.0	-180888.0	-69.0	77583.0
11	18	47	30	161	98.0	-181913.0	-90.0	77629.0
11	18	47	30	162	99.0	-182278.0	-101.0	77895.0
11	18	47	30	162	100.0	-182662.0	-110.0	78142.0
11	18	47	30	163	101.0	-184089.0	-136.0	77772.0
11	18	47	30	164	102.0	-186402.0	-150.0	77679.0
11	18	47	30	175	103.0	-188902.0	-155.0	77808.0
11	18	47	30	176	104.0	-190106.0	-185.0	78146.0
11	18	47	30	177	105.0	-190226.0	-185.0	78506.0
11	18	47	30	178	106.0	-189226.0	-190.0	79347.0
11	18	47	30	178	107.0	-187310.0	-192.0	79544.0
11	18	47	30	179	108.0	-184572.0	-224.0	79137.0
11	18	47	30	180	109.0	-181983.0	-242.0	79197.0
11	18	47	30	180	110.0	-180281.0	-272.0	78657.0
11	18	47	30	181	111.0	-180052.0	-281.0	78788.0
11	18	47	30	198	112.0	-181575.0	-279.0	79495.0
11	18	47	30	199	113.0	-184476.0	-286.0	80708.0
11	18	47	30	199	114.0	-188087.0	-319.0	81948.0
11	18	47	30	200	115.0	-192551.0	-324.0	83573.0
11	18	47	30	201	116.0	-197356.0	-312.0	85126.0
11	18	47	30	201	117.0	-202142.0	-337.0	86020.0
11	18	47	30	220	118.0	-205597.0	-344.0	86386.0
11	18	47	30	221	119.0	-208335.0	-357.0	86738.0
11	18	47	30	221	120.0	-210119.0	-374.0	87511.0
11	18	47	30	222	121.0	-211498.0	-394.0	88773.0
11	18	47	30	223	122.0	-212915.0	-412.0	89684.0
11	18	47	30	224	123.0	-213440.0	-416.0	90328.0
11	18	47	30	224	124.0	-213284.0	-427.0	91158.0
11	18	47	30	225	125.0	-211857.0	-463.0	92017.0
11	18	47	30	225	126.0	-209215.0	-471.0	93426.0
11	18	47	30	226	127.0	-205880.0	-482.0	95045.0
11	18	47	30	227	128.0	-202406.0	-478.0	97690.0
11	18	47	30	227	129.0	-197663.0	-483.0	101453.0
11	18	47	30	228	130.0	-192329.0	-489.0	105822.0
11	18	47	30	229	131.0	-187934.0	-515.0	109226.0
11	18	47	30	229	132.0	-183239.0	-530.0	111312.0
11	18	47	30	242	133.0	-179086.0	-541.0	112584.0
11	18	47	30	243	134.0	-176582.0	-543.0	113721.0
11	18	47	30	243	135.0	-174905.0	-554.0	114613.0
11	18	47	30	244	136.0	-173201.0	-559.0	115011.0
11	18	47	30	245	137.0	-172500.0	-569.0	115141.0
11	18	47	30	246	138.0	-173117.0	-581.0	115359.0
11	18	47	30	246	139.0	-174007.0	-597.0	115727.0
11	18	47	30	247	140.0	-174782.0	-600.0	115658.0
11	18	47	30	266	141.0	-175741.0	-596.0	116246.0
11	18	47	30	266	142.0	-176797.0	-603.0	117117.0
11	18	47	30	267	143.0	-178624.0	-644.0	117993.0
11	18	47	30	268	144.0	-180244.0	-656.0	118933.0
11	18	47	30	268	145.0	-182424.0	-666.0	120134.0
11	18	47	30	269	146.0	-185129.0	-657.0	120790.0
11	18	47	30	270	147.0	-188006.0	-671.0	121129.0
11	18	47	30	270	148.0	-191242.0	-680.0	122015.0
11	18	47	30	271	149.0	-194753.0	-703.0	122103.0
11	18	47	30	272	150.0	-197641.0	-720.0	121601.0
11	18	47	30	272	151.0	-200237.0	-728.0	121383.0
11	18	47	30	273	152.0	-201799.0	-732.0	121738.0
11	18	47	30	273	153.0	-202434.0	-766.0	121875.0
11	18	47	30	274	154.0	-201827.0	-791.0	121493.0
11	18	47	30	275	155.0	-200362.0	-804.0	121478.0
11	18	47	30	288	156.0	-198654.0	-813.0	122209.0
11	18	47	30	288	157.0	-196172.0	-817.0	123070.0
11	18	47	30	289	158.0	-192754.0	-821.0	123652.0
11	18	47	30	290	159.0	-189696.0	-832.0	124224.0
11	18	47	30	290	160.0	-186414.0	-844.0	124081.0
11	18	47	30	291	161.0	-182899.0	-884.0	123849.0
11	18	47	30	291	162.0	-179731.0	-908.0	123283.0
11	18	47	30	292	163.0	-177637.0	-924.0	122216.0
11	18	47	30	310	164.0	-175652.0	-931.0	121115.0
11	18	47	30	311	165.0	-175056.0	-933.0	120320.0
11	18	47	30	312	166.0	-176251.0	-967.0	119416.0
11	18	47	30	312	167.0	-178497.0	-982.0	118810.0
11	18	47	30	313	168.0	-182847.0	-990.0	118525.0
11	18	47	30	314	169.0	-188073.0	-1004.0	117808.0
11	18	47	30	314	170.0	-194194.0	-1027.0	117611.0
11	18	47	30	315	171.0	-200329.0	-1032.0	117611.0
11	18	47	30	315	172.0	-205425.0	-1063.0	117297.0
11	18	47	30	316	173.0	-209546.0	-1093.0	117166.0
11	18	47	30	317	174.0	-212872.0	-1113.0	117378.0
11	18	47	30	317	175.0	-216149.0	-1131.0	117929.0
11	18	47	30	318	176.0	-218371.0	-1137.0	117978.0
11	18	47	30	318	177.0	-219187.0	-1161.0	118161.0
11	18	47	30	319	178.0	-218872.0	-1169.0	118400.0
11	18	47	30	333	179.0	-217678.0	-1180.0	117983.0
11	18	47	30	333	180.0	-216236.0	-1186.0	118195.0
11	18	47	30	334	181.0	-214001.0	-1219.0	119008.0
11	18	47	30	335	182.0	-211179.0	-1258.0	119310.0
11	18	47	30	335	183.0	-208124.0	-1271.0	119470.0
11	18	47	30	336	184.0	-204184.0	-1285.0	119981.0
11	18	47	30	336	185.0	-199644.0	-1297.0	120021.0
11	18	47	30	355	186.0	-195172.0	-1291.0	119529.0
11	18	47	30	356	187.0	-191261.0	-1304.0	118586.0
11	18	47	30	357	188.0	-187751.0	-1319.0	118223.0
11	18	47	30	357	189.0	-185049.0	-1348.0	117606.0
11	18	47	30	358	190.0	-182581.0	-1356.0	116044.0
11	18	47	30	359	191.0	-181204.0	-1376.0	115116.0
11	18	47	30	359	192.0	-180648.0	-1405.0	114251.0
11	18	47	30	360	193.0	-180197.0	-1426.0	112848.0
11	18	47	30	360	194.0	-179799.0	-1461.0	111368.0
11	18	47	30	361	195.0	-179251.0	-1452.0	110292.0
11	18	47	30	362	196.0	-179317.0	-1449.0	108637.0
11	18	47	30	362	197.0	-180088.0	-1469.0	106801.0
11	18	47	30	363	198.0	-181087.0	-1477.0	105162.0
11	18	47	30	363	199.0	-182849.0	-1501.0	103403.0
11	18	47	30	364	200.0	-185084.0	-1526.0	101280.0
11	18	47	30	380	201.0	-187725.0	-1545.0	98964.0
11	18	47	30	380	202.0	-190688.0	-1559.0	97149.0
11	18	47	30	381	203.0	-192841.0	-1574.0	95501.0
11	18	47	30	382	204.0	-195061.0	-1602.0	93909.0
11	18	47	30	382	205.0	-197421.0	-1605.0	93239.0
11	18	47	30	383	206.0	-199346.0	-1612.0	92614.0
11	18	47	30	384	207.0	-200646.0	-1651.0	92301.0
11	18	47	30	384	208.0	-200737.0	-1664.0	91704.0
11	18	47	30	385	209.0	-199249.0	-1672.0	90499.0
11	18	47	30	386	210.0	-196539.0	-1689.0	89911.0
11	18	47	30	386	211.0	-193214.0	-1702.0	89833.0
11	18	47	30	387	212.0	-190142.0	-1730.0	89103.0
11	18	47	30	388	213.0	-187331.0	-1747.0	88167.0
11	18	47	30	388	214.0	-184412.0	-1786.0	87804.0
11	18	47	30	389	215.0	-182366.0	-1801.0	87474.0
11	18	47	30	403	216.0	-181049.0	-1808.0	87335.0
11	18	47	30	403	217.0	-180315.0	-1814.0	87412.0
11	18	47	30	404	218.0	-179961.0	-1817.0	87133.0
11	18	47	30	405	219.0	-179394.0	-1842.0	86180.0
11	18	47	30	405	220.0	-179112.0	-1860.0	84458.0
11	18	47	30	406	221.0	-179049.0	-1879.0	82712.0
11	18	47	30	407	222.0	-180248.0	-1904.0	81379.0
11	18	47	30	425	223.0	-182277.0	-1931.0	81061.0
11	18	47	30	426	224.0	-184752.0	-1953.0	81428.0
11	18	47	30	426	225.0	-187541.0	-1943.0	80039.0
11	18	47	30	427	226.0	-191037.0	-1963.0	77560.0
11	18	47	30	428	227.0	-195627.0	-1975.0	75733.0
11	18	47	30	428	228.0	-200914.0	-1969.0	73083.0
11	18	47	30	429	229.0	-207554.0	-1982.0	70706.0
11	18	47	30	430	230.0	-215163.0	-2007.0	69669.0
11	18	47	30	430	231.0	-222591.0	-2028.0	71572.0
11	18	47	30	431	232.0	-229372.0	-2052.0	79487.0
11	18	47	30	432	233.0	-234747.0	-2069.0	88121.0
11	18	47	30	432	234.0	-239010.0	-2083.0	94313.0
11	18	47	30	433	235.0	-241591.0	-2094.0	99208.0
11	18	47	30	434	236.0	-242972.0	-2104.0	103581.0
11	18	47	30	434	237.0	-243174.0	-2117.0	107081.0
11	18	47	30	449	238.0	-241376.0	-2141.0	109091.0
11	18	47	30	449	239.0	-237931.0	-2156.0	111412.0
11	18	47	30	450	240.0	-233217.0	-2175.0	112099.0
11	18	47	30	451	241.0	-227617.0	-2204.0	110648.0
11	18	47	30	451	242.0	-221314.0	-2217.0	108000.0
11	18	47	30	452	243.0	-214357.0	-2238.0	105050.0
11	18	47	30	453	244.0	-206896.0	-2262.0	101536.0
11	18	47	30	453	245.0	-200035.0	-2270.0	97324.0
11	18	47	30	471	246.0	-192931.0	-2272.0	93091.0
11	18	47	30	472	247.0	-185869.0	-2292.0	88769.0
11	18	47	30	473	248.0	-179442.0	-2325.0	85623.0
11	18	47	30	473	249.0	-173747.0	-2336.0	82444.0
11	18	47	30	474	250.0	-169664.0	-2354.0	79460.0
11	18	47	30	475	251.0	-166747.0	-2377.0	76854.0
11	18	47	30	476	252.0	-165014.0	-2394.0	75018.0
11	18	47	30	476	253.0	-165021.0	-2405.0	74570.0
11	18	47	30	477	254.0	-165490.0	-2436.0	74096.0
11	18	47	30	478	255.0	-165167.0	-2444.0	73804.0
11	18	47	30	478	0.0	-163943.0	-2451.0	73841.0
11	18	47	30	495	1.0	-161964.0	-2459.0	73825.0
11	18	47	30	496	2.0	-159746.0	-2476.0	73481.0
11	18	47	30	497	3.0	-157380.0	-2479.0	73389.0
11	18	47	30	497	4.0	-155429.0	-2499.0	73413.0
11	18	47	30	498	5.0	-154574.0	-2507.0	73190.0
11	18	47	30	499	6.0	-154439.0	-2521.0	73008.0
11	18	47	30	499	7.0	-154404.0	-2537.0	72950.0
11	18	47	30	500	8.0	-153339.0	-2562.0	72968.0
11	18	47	30	500	9.0	-150188.0	-2574.0	72516.0
11	18	47	30	501	10.0	-145395.0	-2584.0	72103.0
11	18	47	30	502	11.0	-140389.0	-2571.0	71429.0
11	18	47	30	502	12.0	-136194.0	-2565.0	71382.0
11	18	47	30	518	13.0	-133274.0	-2590.0	71756.0
11	18	47	30	519	14.0	-131711.0	-2594.0	72356.0
11	18	47	30	520	15.0	-131096.0	-2609.0	73032.0
11	18	47	30	521	16.0	-130611.0	-2641.0	73139.0
11	18	47	30	521	17.0	-130066.0	-2651.0	72746.0
11	18	47	30	522	18.0	-130564.0	-2651.0	72766.0
11	18	47	30	523	19.0	-133480.0	-2659.0	72785.0
11	18	47	30	523	20.0	-139532.0	-2661.0	72738.0
11	18	47	30	524	21.0	-148735.0	-2650.0	72709.0
11	18	47	30	525	22.0	-160422.0	-2679.0	72670.0
11	18	47	30	525	23.0	-173165.0	-2677.0	72463.0
11	18	47	30	526	24.0	-185776.0	-2682.0	72271.0
11	18	47	30	527	25.0	-198819.0	-2688.0	72015.0
11	18	47	30	527	26.0	-211193.0	-2722.0	72159.0
11	18	47	30	528	27.0	-222544.0	-2738.0	72726.0
11	18	47	30	541	28.0	-232567.0	-2734.0	73383.0
11	18	47	30	541	29.0	-240376.0	-2737.0	74063.0
11	18	47	30	542	30.0	-245423.0	-2745.0	75339.0
11	18	47	30	543	31.0	-248106.0	-2760.0	75930.0
11	18	47	30	543	32.0	-248540.0	-2779.0	76433.0
11	18	47	30	544	33.0	-247252.0	-2787.0	76474.0
11	18	47	30	564	34.0	-245178.0	-2799.0	76194.0
11	18	47	30	565	35.0	-242532.0	-2792.0	75351.0
11	18	47	30	565	36.0	-239195.0	-2797.0	74524.0
11	18	47	30	566	37.0	-235463.0	-2822.0	74628.0
11	18	47	30	567	38.0	-231125.0	-2850.0	74586.0
11	18	47	30	567	39.0	-226067.0	-2860.0	74319.0
11	18	47	30	568	40.0	-221126.0	-2852.0	74543.0
11	18	47	30	569	41.0	-216596.0	-2854.0	74863.0
11	18	47	30	569	42.0	-212546.0	-2861.0	74736.0
11	18	47	30	570	43.0	-209380.0	-2870.0	74296.0
11	18	47	30	570	44.0	-206968.0	-2868.0	74173.0
11	18	47	30	571	45.0	-205429.0	-2887.0	74123.0
11	18	47	30	572	46.0	-204303.0	-2911.0	74631.0
11	18	47	30	572	47.0	-203406.0	-2931.0	75160.0
11	18	47	30	573	48.0	-202629.0	-2945.0	75220.0
11	18	47	30	586	49.0	-202099.0	-2952.0	75261.0
11	18	47	30	587	50.0	-201882.0	-2936.0	75477.0
11	18	47	30	588	51.0	-201706.0	-2946.0	75547.0
11	18	47	30	588	52.0	-201944.0	-2956.0	75617.0
11	18	47	30	589	53.0	-202776.0	-2953.0	75828.0
11	18	47	30	590	54.0	-203737.0	-2981.0	76172.0
11	18	47	30	591	55.0	-204307.0	-3009.0	76434.0
11	18	47	30	591	56.0	-205073.0	-3021.0	77046.0
11	18	47	30	600	57.0	-205742.0	-3032.0	76973.0
11	18	47	30	602	58.0	-205237.0	-3027.0	76509.0
11	18	47	30	604	59.0	-204391.0	-3024.0	76618.0
11	18	47	30	605	60.0	-203969.0	-3033.0	76819.0
11	18	47	30	605	61.0	-202996.0	-3043.0	76804.0
11	18	47	30	606	62.0	-201227.0	-3049.0	77674.0
11	18	47	30	607	63.0	-199412.0	-3046.0	78798.0
11	18	47	30	615	64.0	-197806.0	-3079.0	79645.0
11	18	47	30	616	65.0	-196512.0	-3104.0	80345.0
11	18	47	30	616	66.0	-195690.0	-3117.0	81336.0
11	18	47	30	617	67.0	-194987.0	-3136.0	81339.0
11	18	47	30	617	68.0	-195163.0	-3140.0	80738.0
11	18	47	30	618	69.0	-196428.0	-3148.0	80684.0
11	18	47	30	618	70.0	-198842.0	-3145.0	80547.0
11	18	47	30	619	71.0	-202049.0	-3152.0	80568.0
11	18	47	30	639	72.0	-205806.0	-3160.0	80431.0
11	18	47	30	639	73.0	-209514.0	-3171.0	80684.0
11	18	47	30	640	74.0	-212714.0	-3194.0	80988.0
11	18	47	30	641	75.0	-215926.0	-3226.0	81326.0
11	18	47	30	641	76.0	-218679.0	-3232.0	82278.0
11	18	47	30	642	77.0	-220326.0	-3239.0	83131.0
11	18	47	30	642	78.0	-221354.0	-3267.0	83888.0
11	18	47	30	643	79.0	-222264.0	-3275.0	84764.0
11	18	47	30	644	80.0	-222484.0	-3277.0	85466.0
11	18	47	30	644	81.0	-222178.0	-3272.0	86085.0
11	18	47	30	645	82.0	-222096.0	-3281.0	86775.0
11	18	47	30	645	83.0	-221107.0	-3292.0	87964.0
11	18	47	30	646	84.0	-218826.0	-3312.0	88729.0
11	18	47	30	646	85.0	-216019.0	-3347.0	89626.0
11	18	47	30	647	86.0	-212508.0	-3371.0	90837.0
11	18	47	30	662	87.0	-208627.0	-3387.0	92185.0
11	18	47	30	662	88.0	-205123.0	-3386.0	92603.0
11	18	47	30	663	89.0	-201676.0	-3362.0	92274.0
11	18	47	30	663	90.0	-198123.0	-3371.0	91731.0
11	18	47	30	664	91.0	-195448.0	-3386.0	91923.0
11	18	47	30	664	92.0	-193154.0	-3409.0	91978.0
11	18	47	30	665	93.0	-190333.0	-3409.0	91634.0
11	18	47	30	666	94.0	-187881.0	-3434.0	90784.0
11	18	47	30	685	95.0	-186690.0	-3431.0	90443.0
11	18	47	30	686	96.0	-185834.0	-3424.0	90639.0
11	18	47	30	686	97.0	-185516.0	-3459.0	90283.0
11	18	47	30	687	98.0	-186180.0	-3466.0	89635.0
11	18	47	30	687	99.0	-187606.0	-3453.0	88737.0
11	18	47	30	688	100.0	-189581.0	-3468.0	88190.0
11	18	47	30	689	101.0	-192047.0	-3480.0	87609.0
11	18	47	30	689	102.0	-194624.0	-3466.0	87044.0
11	18	47	30	690	103.0	-197104.0	-3459.0	86121.0
11	18	47	30	690	104.0	-199521.0	-3443.0	85923.0
11	18	47	30	691	105.0	-202212.0	-3431.0	86051.0
11	18	47	30	692	106.0	-204491.0	-3465.0	86334.0
11	18	47	30	692	107.0	-206526.0	-3471.0	85786.0
11	18	47	30	693	108.0	-208725.0	-3455.0	85080.0
11	18	47	30	693	109.0	-210485.0	-3441.0	84748.0
11	18	47	30	707	110.0	-211131.0	-3399.0	84653.0
11	18	47	30	708	111.0	-210873.0	-3382.0	84471.0
11	18	47	30	709	112.0	-209761.0	-3386.0	84159.0
11	18	47	30	709	113.0	-207957.0	-3379.0	83579.0
11	18	47	30	710	114.0	-205609.0	-3359.0	82841.0
11	18	47	30	710	115.0	-202339.0	-3367.0	82781.0
11	18	47	30	711	116.0	-198626.0	-3375.0	82922.0
11	18	47	30	730	117.0	-194882.0	-3351.0	82621.0
11	18	47	30	730	118.0	-190673.0	-3317.0	82921.0
11	18	47	30	731	119.0	-186855.0	-3302.0	82793.0
11	18	47	30	732	120.0	-183226.0	-3274.0	82314.0
11	18	47	30	732	121.0	-180510.0	-3236.0	81838.0
11	18	47	30	733	122.0	-178230.0	-3227.0	81522.0
11	18	47	30	733	123.0	-176255.0	-3198.0	81406.0
11	18	47	30	734	124.0	-174582.0	-3168.0	81384.0
11	18	47	30	735	125.0	-173519.0	-3134.0	81599.0
11	18	47	30	735	126.0	-173091.0	-3117.0	81916.0
11	18	47	30	736	127.0	-173044.0	-3106.0	81421.0
11	18	47	30	736	128.0	-172826.0	-3044.0	80684.0
11	18	47	30	737	129.0	-173167.0	-3011.0	80196.0
11	18	47	30	737	130.0	-174458.0	-3000.0	79365.0
11	18	47	30	738	131.0	-176190.0	-2974.0	78536.0
11	18	47	30	752	132.0	-178572.0	-2914.0	77831.0
11	18	47	30	753	133.0	-180765.0	-2886.0	76733.0
11	18	47	30	754	134.0	-182564.0	-2854.0	75743.0
11	18	47	30	754	135.0	-184069.0	-2829.0	75414.0
11	18	47	30	755	136.0	-185687.0	-2821.0	75275.0
11	18	47	30	755	137.0	-187434.0	-2779.0	75737.0
11	18	47	30	756	138.0	-189457.0	-2744.0	75233.0
11	18	47	30	776	139.0	-191747.0	-2696.0	74917.0
11	18	47	30	777	140.0	-194584.0	-2647.0	74907.0
11	18	47	30	777	141.0	-197614.0	-2612.0	75028.0
11	18	47	30	778	142.0	-200766.0	-2579.0	74704.0
11	18	47	30	778	143.0	-204009.0	-2539.0	74224.0
11	18	47	30	779	144.0	-206451.0	-2489.0	74364.0
11	18	47	30	779	145.0	-208232.0	-2451.0	74626.0
11	18	47	30	780	146.0	-209987.0	-2427.0	74370.0
11	18	47	30	781	147.0	-210307.0	-2399.0	74467.0
11	18	47	30	781	148.0	-208543.0	-2352.0	74729.0
11	18	47	30	782	149.0	-204812.0	-2319.0	74706.0
11	18	47	30	782	150.0	-200557.0	-2282.0	74483.0
11	18	47	30	783	151.0	-196661.0	-2241.0	74414.0
11	18	47	30	784	152.0	-190497.0	-2195.0	74564.0
11	18	47	30	784	153.0	-185234.0	-2167.0	74123.0
11	18	47	30	799	154.0	-185040.0	-2149.0	74215.0
11	18	47	30	799	155.0	-185223.0	-2127.0	74441.0
11	18	47	30	800	156.0	-187837.0	-2094.0	74084.0
11	18	47	30	800	157.0	-194732.0	-2072.0	73967.0
11	18	47	30	801	158.0	-201457.0	-2037.0	74106.0
11	18	47	30	802	159.0	-207128.0	-1991.0	74187.0
11	18	47	30	802	160.0	-211736.0	-1961.0	74457.0
11	18	47	30	803	161.0	-213867.0	-1939.0	74438.0
11	18	47	30	822	162.0	-214755.0	-1905.0	74689.0
11	18	47	30	823	163.0	-215127.0	-1860.0	74885.0
11	18	47	30	823	164.0	-216351.0	-1844.0	74748.0
11	18	47	30	824	165.0	-216861.0	-1826.0	74716.0
11	18	47	30	825	166.0	-216079.0	-1812.0	74803.0
11	18	47	30	825	167.0	-214817.0	-1802.0	74965.0
11	18	47	30	826	168.0	-213519.0	-1776.0	75162.0
11	18	47	30	826	169.0	-211566.0	-1734.0	75640.0
11	18	47	30	827	170.0	-209422.0	-1714.0	76634.0
11	18	47	30	828	171.0	-207944.0	-1683.0	76976.0
11	18	47	30	828	172.0	-207420.0	-1655.0	76509.0
11	18	47	30	829	173.0	-207596.0	-1635.0	76684.0
11	18	47	30	829	174.0	-207442.0	-1622.0	76876.0
11	18	47	30	830	175.0	-207552.0	-1616.0	77208.0
11	18	47	30	830	176.0	-207477.0	-1616.0	77389.0
11	18	47	30	846	177.0	-208216.0	-1589.0	77929.0
11	18	47	30	846	178.0	-209454.0	-1541.0	77887.0
11	18	47	30	847	179.0	-209033.0	-1511.0	77501.0
11	18	47	30	847	180.0	-206303.0	-1522.0	77129.0
11	18	47	30	848	181.0	-203058.0	-1520.0	76844.0
11	18	47	30	849	182.0	-199484.0	-1497.0	76598.0
11	18	47	30	849	183.0	-196136.0	-1489.0	76969.0
11	18	47	30	850	184.0	-193595.0	-1481.0	77626.0
11	18	47	30	851	185.0	-192227.0	-1468.0	77988.0
11	18	47	30	851	186.0	-191606.0	-1448.0	77919.0
11	18	47	30	852	187.0	-191287.0	-1437.0	77904.0
11	18	47	30	852	188.0	-191528.0	-1429.0	77620.0
11	18	47	30	853	189.0	-191868.0	-1412.0	77345.0
11	18	47	30	854	190.0	-191373.0	-1399.0	77286.0
11	18	47	30	854	191.0	-191091.0	-1404.0	76983.0
11	18	47	30	868	192.0	-191596.0	-1383.0	76384.0
11	18	47	30	869	193.0	-192314.0	-1368.0	75973.0
11	18	47	30	869	194.0	-193394.0	-1365.0	75931.0
11	18	47	30	870	195.0	-194365.0	-1384.0	75413.0
11	18	47	30	871	196.0	-194964.0	-1376.0	74471.0
11	18	47	30	871	197.0	-195189.0	-1378.0	74356.0
11	18	47	30	872	198.0	-194304.0	-1377.0	73929.0
11	18	47	30	896	199.0	-192328.0	-1360.0	73717.0
11	18	47	30	897	200.0	-189371.0	-1340.0	73831.0
11	18	47	30	897	201.0	-185654.0	-1343.0	73461.0
11	18	47	30	898	202.0	-181847.0	-1342.0	73013.0
11	18	47	30	899	203.0	-177842.0	-1334.0	72790.0
11	18	47	30	899	204.0	-173369.0	-1314.0	72330.0
11	18	47	30	900	205.0	-169032.0	-1327.0	72087.0
11	18	47	30	901	206.0	-165302.0	-1326.0	72189.0
11	18	47	30	901	207.0	-162446.0	-1336.0	71810.0
11	18	47	30	902	208.0	-161064.0	-1335.0	71526.0
11	18	47	30	902	209.0	-161749.0	-1320.0	71038.0
11	18	47	30	903	210.0	-163746.0	-1299.0	70503.0
11	18	47	30	904	211.0	-166798.0	-1320.0	70066.0
11	18	47	30	904	212.0	-170302.0	-1326.0	69870.0
11	18	47	30	905	213.0	-173577.0	-1309.0	69994.0
11	18	47	30	905	214.0	-175572.0	-1314.0	69894.0
11	18	47	30	906	215.0	-177136.0	-1331.0	69664.0
11	18	47	30	907	216.0	-178996.0	-1337.0	69606.0
11	18	47	30	907	217.0	-181295.0	-1343.0	70145.0
11	18	47	30	916	218.0	-183604.0	-1323.0	70383.0
11	18	47	30	916	219.0	-186337.0	-1307.0	70822.0
11	18	47	30	939	220.0	-189576.0	-1302.0	71275.0
11	18	47	30	939	221.0	-192880.0	-1299.0	71395.0
11	18	47	30	940	222.0	-195726.0	-1302.0	71614.0
11	18	47	30	941	223.0	-198168.0	-1317.0	72328.0
11	18	47	30	941	224.0	-200634.0	-1304.0	72975.0
11	18	47	30	942	225.0	-202176.0	-1320.0	73368.0
11	18	47	30	942	226.0	-203285.0	-1337.0	74367.0
11	18	47	30	943	227.0	-203639.0	-1345.0	75444.0
11	18	47	30	944	228.0	-203712.0	-1344.0	75219.0
11	18	47	30	944	229.0	-203877.0	-1339.0	75066.0
11	18	47	30	945	230.0	-204274.0	-1345.0	75924.0
11	18	47	30	945	231.0	-204851.0	-1337.0	76666.0
11	18	47	30	946	232.0	-205618.0	-1323.0	77499.0
11	18	47	30	947	233.0	-206623.0	-1328.0	78543.0
11	18	47	30	947	234.0	-208148.0	-1346.0	78775.0
11	18	47	30	948	235.0	-209925.0	-1361.0	78978.0
11	18	47	30	962	236.0	-211929.0	-1369.0	79010.0
11	18	47	30	962	237.0	-214638.0	-1372.0	78902.0
11	18	47	30	963	238.0	-217817.0	-1363.0	77618.0
11	18	47	30	963	239.0	-221347.0	-1377.0	76115.0
11	18	47	30	964	240.0	-225122.0	-1376.0	75861.0
11	18	47	30	965	241.0	-228782.0	-1381.0	75784.0
11	18	47	30	965	242.0	-231844.0	-1380.0	75788.0
11	18	47	30	966	243.0	-234066.0	-1399.0	75868.0
11	18	47	30	966	244.0	-235442.0	-1389.0	75778.0
11	18	47	30	985	245.0	-236096.0	-1408.0	75345.0
11	18	47	30	985	246.0	-235391.0	-1413.0	75335.0
11	18	47	30	986	247.0	-234064.0	-1431.0	74771.0
11	18	47	30	986	248.0	-231719.0	-1422.0	73991.0
11	18	47	30	987	249.0	-228074.0	-1423.0	73576.0
11	18	47	30	988	250.0	-223991.0	-1443.0	72503.0
11	18	47	30	988	251.0	-219156.0	-1446.0	72406.0
11	18	47	30	989	252.0	-214321.0	-1441.0	72061.0
11	18	47	30	989	253.0	-210037.0	-1466.0	71588.0
11	18	47	30	990	254.0	-205624.0	-1470.0	70982.0
11	18	47	30	991	255.0	-201837.0	-1479.0	71086.0
11	18	47	30	991	0.0	-199405.0	-1486.0	71153.0
11	18	47	31	7	1.0	-197615.0	-1503.0	70351.0
11	18	47	31	8	2.0	-196622.0	-1481.0	69544.0
11	18	47	31	9	3.0	-195820.0	-1484.0	68894.0
11	18	47	31	9	4.0	-194588.0	-1487.0	67979.0
11	18	47	31	10	5.0	-192964.0	-1483.0	67681.0
11	18	47	31	10	6.0	-190634.0	-1484.0	67805.0
11	18	47	31	11	7.0	-188317.0	-1504.0	67739.0
11	18	47	31	11	8.0	-185961.0	-1499.0	66950.0
11	18	47	31	12	9.0	-184339.0	-1514.0	65910.0
11	18	47	31	13	10.0	-184217.0	-1529.0	65141.0
11	18	47	31	13	11.0	-186061.0	-1506.0	64115.0
11	18	47	31	30	12.0	-188539.0	-1499.0	63019.0
11	18	47	31	31	13.0	-191159.0	-1484.0	61969.0
