13	17	22	56	837	145.0	-222437.0	-3680.0	5228.0
13	17	22	56	839	146.0	-222892.0	-3710.0	5006.0
13	17	22	56	842	147.0	-223222.0	-3731.0	4534.0
13	17	22	56	844	148.0	-223935.0	-3768.0	4424.0
13	17	22	56	847	149.0	-224246.0	-3797.0	4513.0
13	17	22	56	849	150.0	-224834.0	-3837.0	4198.0
13	17	22	56	851	151.0	-224742.0	-3854.0	4533.0
13	17	22	56	852	152.0	-224664.0	-3886.0	4295.0
13	17	22	56	854	153.0	-224755.0	-3923.0	4151.0
13	17	22	56	856	154.0	-224661.0	-3949.0	3854.0
13	17	22	56	857	155.0	-224317.0	-3991.0	3925.0
13	17	22	56	858	156.0	-224488.0	-4026.0	4106.0
13	17	22	56	859	157.0	-225297.0	-4047.0	4091.0
13	17	22	56	860	158.0	-226354.0	-4069.0	3966.0
13	17	22	56	861	159.0	-227336.0	-4106.0	3660.0
13	17	22	56	861	160.0	-228250.0	-4139.0	3469.0
13	17	22	56	870	161.0	-229093.0	-4169.0	3559.0
13	17	22	56	871	162.0	-229624.0	-4211.0	3233.0
13	17	22	56	871	163.0	-229976.0	-4235.0	3581.0
13	17	22	56	872	164.0	-229865.0	-4267.0	3723.0
13	17	22	56	873	165.0	-229845.0	-4305.0	3288.0
13	17	22	56	873	166.0	-229550.0	-4322.0	3334.0
13	17	22	56	874	167.0	-229912.0	-4355.0	3500.0
13	17	22	56	918	168.0	-230104.0	-4379.0	3594.0
13	17	22	56	962	169.0	-230155.0	-4400.0	3285.0
13	17	22	56	963	170.0	-229961.0	-4436.0	3328.0
13	17	22	56	963	171.0	-229617.0	-4466.0	3506.0
13	17	22	56	973	172.0	-228918.0	-4495.0	3330.0
13	17	22	56	973	173.0	-227567.0	-4505.0	2958.0
13	17	22	56	974	174.0	-226259.0	-4529.0	2630.0
13	17	22	56	975	175.0	-224922.0	-4557.0	2828.0
13	17	22	56	975	176.0	-223571.0	-4579.0	2855.0
13	17	22	56	976	177.0	-222514.0	-4591.0	3198.0
13	17	22	56	976	178.0	-221609.0	-4597.0	3288.0
13	17	22	56	977	179.0	-219880.0	-4617.0	3161.0
13	17	22	56	978	180.0	-218239.0	-4619.0	3334.0
13	17	22	56	978	181.0	-216682.0	-4617.0	3486.0
13	17	22	56	979	182.0	-215191.0	-4617.0	3090.0
13	17	22	56	979	190.0	-208782.0	-4467.0	2864.0
13	17	22	56	980	212.0	-226722.0	-2791.0	654.0
13	17	22	56	981	213.0	-227273.0	-2680.0	831.0
13	17	22	56	981	214.0	-227650.0	-2573.0	535.0
13	17	22	56	982	215.0	-228147.0	-2451.0	-80.0
13	17	22	56	982	216.0	-228925.0	-2371.0	-93.0
13	17	22	56	983	217.0	-229624.0	-2282.0	-269.0
13	17	22	56	983	218.0	-229810.0	-2182.0	-506.0
13	17	22	57	6	219.0	-229646.0	-2061.0	-354.0
13	17	22	57	7	220.0	-229282.0	-1963.0	-449.0
13	17	22	57	7	221.0	-228021.0	-1884.0	-747.0
13	17	22	57	8	222.0	-226176.0	-1784.0	-1156.0
13	17	22	57	9	223.0	-223897.0	-1671.0	-946.0
13	17	22	57	9	224.0	-220815.0	-1566.0	-979.0
13	17	22	57	10	225.0	-217601.0	-1485.0	-809.0
13	17	22	57	10	226.0	-214669.0	-1407.0	-581.0
13	17	22	57	11	227.0	-212022.0	-1319.0	-809.0
13	17	22	57	11	228.0	-209536.0	-1207.0	-952.0
13	17	22	57	12	229.0	-207381.0	-1117.0	-1000.0
13	17	22	57	13	230.0	-204956.0	-1033.0	-1109.0
13	17	22	57	13	231.0	-203222.0	-943.0	-1171.0
13	17	22	57	14	232.0	-202439.0	-867.0	-1193.0
13	17	22	57	15	233.0	-201717.0	-786.0	-1239.0
13	17	22	57	16	235.0	-201989.0	-626.0	-1047.0
13	17	22	57	17	236.0	-203070.0	-569.0	-1027.0
13	17	22	57	17	237.0	-203889.0	-490.0	-1109.0
13	17	22	57	18	238.0	-205582.0	-432.0	-1119.0
13	17	22	57	18	239.0	-207276.0	-357.0	-1052.0
13	17	22	57	19	240.0	-208697.0	-276.0	-1014.0
13	17	22	57	51	241.0	-210674.0	-214.0	-902.0
13	17	22	57	52	242.0	-212696.0	-153.0	-687.0
13	17	22	57	52	243.0	-215459.0	-94.0	-559.0
13	17	22	57	53	244.0	-217703.0	-51.0	-442.0
13	17	22	57	53	245.0	-219950.0	8.0	85.0
13	17	22	57	54	246.0	-222380.0	68.0	479.0
13	17	22	57	54	247.0	-224456.0	123.0	264.0
13	17	22	57	55	248.0	-225857.0	179.0	624.0
13	17	22	57	56	249.0	-227151.0	239.0	1071.0
13	17	22	57	56	250.0	-228411.0	288.0	1387.0
13	17	22	57	57	251.0	-228923.0	329.0	1633.0
13	17	22	57	57	252.0	-229172.0	385.0	2338.0
13	17	22	57	58	253.0	-229464.0	438.0	2624.0
13	17	22	57	58	254.0	-229025.0	474.0	2973.0
13	17	22	57	59	255.0	-229096.0	528.0	2986.0
13	17	22	57	60	1.0	-230326.0	626.0	3519.0
13	17	22	57	60	2.0	-230678.0	660.0	4063.0
13	17	22	57	61	3.0	-230693.0	693.0	4514.0
13	17	22	57	61	4.0	-230809.0	741.0	4409.0
13	17	22	57	62	5.0	-230507.0	771.0	4866.0
13	17	22	57	62	6.0	-230320.0	803.0	5003.0
13	17	22	57	63	7.0	-229667.0	844.0	5151.0
13	17	22	57	96	8.0	-224481.0	884.0	5588.0
13	17	22	57	96	9.0	-219330.0	920.0	5691.0
13	17	22	57	97	10.0	-228136.0	943.0	5479.0
13	17	22	57	97	11.0	-220421.0	973.0	5883.0
13	17	22	57	98	12.0	-218034.0	1002.0	6416.0
13	17	22	57	99	13.0	-219172.0	1046.0	6606.0
13	17	22	57	99	14.0	-218006.0	1083.0	6871.0
13	17	22	57	100	15.0	-213874.0	1099.0	6799.0
13	17	22	57	100	16.0	-211246.0	1151.0	7099.0
13	17	22	57	101	17.0	-210781.0	1174.0	7573.0
13	17	22	57	101	18.0	-210456.0	1202.0	7817.0
13	17	22	57	102	19.0	-209611.0	1243.0	7458.0
13	17	22	57	103	20.0	-208570.0	1281.0	7581.0
13	17	22	57	103	21.0	-206616.0	1330.0	8115.0
13	17	22	57	104	22.0	-203337.0	1340.0	8047.0
13	17	22	57	104	24.0	-193525.0	1406.0	8180.0
13	17	22	57	105	25.0	-187371.0	1437.0	8319.0
13	17	22	57	105	26.0	-179347.0	1459.0	7991.0
13	17	22	57	106	27.0	-171863.0	1480.0	8007.0
13	17	22	57	107	28.0	-162741.0	1511.0	8633.0
13	17	22	57	107	29.0	-156825.0	1524.0	8359.0
13	17	22	57	141	30.0	-158542.0	1554.0	8551.0
13	17	22	57	142	31.0	-161419.0	1580.0	8403.0
13	17	22	57	143	32.0	-165959.0	1603.0	8297.0
13	17	22	57	143	33.0	-171984.0	1632.0	8090.0
13	17	22	57	144	34.0	-175499.0	1661.0	8313.0
13	17	22	57	187	35.0	-180195.0	1691.0	8523.0
13	17	22	57	187	36.0	-184284.0	1704.0	8270.0
13	17	22	57	188	37.0	-184827.0	1743.0	8424.0
13	17	22	57	189	38.0	-183919.0	1776.0	8552.0
13	17	22	57	189	39.0	-183671.0	1792.0	8716.0
13	17	22	57	190	40.0	-185852.0	1794.0	8694.0
13	17	22	57	191	41.0	-190386.0	1835.0	8763.0
13	17	22	57	191	42.0	-197091.0	1871.0	8751.0
13	17	22	57	192	43.0	-206239.0	1886.0	8754.0
13	17	22	57	192	44.0	-214838.0	1912.0	8789.0
13	17	22	57	193	46.0	-227575.0	1950.0	8352.0
13	17	22	57	193	47.0	-230021.0	1975.0	8211.0
13	17	22	57	194	48.0	-227402.0	1982.0	7479.0
13	17	22	57	195	49.0	-222619.0	2006.0	7395.0
13	17	22	57	196	50.0	-218143.0	2018.0	7761.0
13	17	22	57	196	51.0	-214498.0	2021.0	7722.0
13	17	22	57	197	69.0	-233267.0	2027.0	8024.0
13	17	22	57	198	70.0	-229306.0	2018.0	8071.0
13	17	22	57	198	71.0	-226517.0	2003.0	8081.0
13	17	22	57	199	72.0	-223660.0	1984.0	8224.0
13	17	22	57	199	73.0	-221377.0	1958.0	8088.0
13	17	22	57	200	74.0	-218839.0	1923.0	8147.0
13	17	22	57	232	75.0	-216774.0	1912.0	8073.0
13	17	22	57	233	76.0	-214612.0	1881.0	7811.0
13	17	22	57	233	77.0	-211294.0	1853.0	7835.0
13	17	22	57	234	78.0	-208041.0	1826.0	8109.0
13	17	22	57	234	79.0	-205254.0	1805.0	8114.0
13	17	22	57	235	80.0	-202587.0	1789.0	7919.0
13	17	22	57	236	81.0	-200369.0	1758.0	8101.0
13	17	22	57	236	82.0	-198342.0	1729.0	8181.0
13	17	22	57	237	83.0	-196444.0	1716.0	7856.0
13	17	22	57	237	84.0	-194729.0	1677.0	7996.0
13	17	22	57	238	85.0	-193049.0	1648.0	8103.0
13	17	22	57	238	86.0	-191669.0	1632.0	8051.0
13	17	22	57	239	87.0	-189742.0	1591.0	7857.0
13	17	22	57	240	88.0	-187705.0	1561.0	8484.0
13	17	22	57	240	89.0	-185554.0	1534.0	8291.0
13	17	22	57	241	91.0	-182108.0	1469.0	8478.0
13	17	22	57	241	92.0	-180247.0	1444.0	8893.0
13	17	22	57	242	93.0	-179153.0	1416.0	8418.0
13	17	22	57	242	94.0	-177740.0	1393.0	8303.0
13	17	22	57	243	95.0	-177049.0	1349.0	8656.0
13	17	22	57	244	96.0	-176071.0	1319.0	8503.0
13	17	22	57	277	97.0	-175959.0	1299.0	8241.0
13	17	22	57	278	98.0	-176002.0	1292.0	8608.0
13	17	22	57	278	99.0	-176214.0	1268.0	8786.0
13	17	22	57	279	100.0	-176910.0	1242.0	8883.0
13	17	22	57	280	101.0	-177355.0	1217.0	9153.0
13	17	22	57	280	102.0	-177452.0	1190.0	8939.0
13	17	22	57	281	103.0	-176684.0	1163.0	8839.0
13	17	22	57	281	104.0	-176465.0	1130.0	8774.0
13	17	22	57	282	105.0	-175957.0	1114.0	8837.0
13	17	22	57	283	106.0	-175517.0	1091.0	8528.0
13	17	22	57	283	107.0	-175359.0	1066.0	8515.0
13	17	22	57	284	108.0	-175286.0	1053.0	8792.0
13	17	22	57	284	109.0	-175349.0	1023.0	8422.0
13	17	22	57	285	110.0	-175549.0	1004.0	8721.0
13	17	22	57	286	111.0	-176468.0	988.0	9404.0
13	17	22	57	286	113.0	-176469.0	960.0	9331.0
13	17	22	57	287	114.0	-176872.0	954.0	9527.0
13	17	22	57	287	115.0	-177457.0	918.0	9766.0
13	17	22	57	288	116.0	-178627.0	901.0	9501.0
13	17	22	57	288	117.0	-179579.0	886.0	9943.0
13	17	22	57	289	118.0	-180430.0	853.0	9696.0
13	17	22	57	289	119.0	-181902.0	832.0	9676.0
13	17	22	57	321	120.0	-183777.0	817.0	9961.0
13	17	22	57	322	121.0	-185337.0	806.0	9934.0
13	17	22	57	323	122.0	-186169.0	774.0	9773.0
13	17	22	57	323	123.0	-187301.0	757.0	9641.0
13	17	22	57	324	124.0	-188177.0	762.0	10081.0
13	17	22	57	325	125.0	-189028.0	737.0	9668.0
13	17	22	57	325	126.0	-190426.0	719.0	9554.0
13	17	22	57	326	127.0	-191470.0	708.0	9970.0
13	17	22	57	326	128.0	-193086.0	683.0	9826.0
13	17	22	57	327	129.0	-194334.0	679.0	9594.0
13	17	22	57	327	130.0	-196161.0	651.0	9813.0
13	17	22	57	328	131.0	-197389.0	640.0	9949.0
13	17	22	57	329	132.0	-197157.0	621.0	9510.0
13	17	22	57	330	133.0	-196799.0	622.0	9818.0
13	17	22	57	330	134.0	-196002.0	619.0	10014.0
13	17	22	57	331	136.0	-193532.0	583.0	9556.0
13	17	22	57	332	137.0	-191510.0	569.0	9683.0
13	17	22	57	333	138.0	-189321.0	547.0	9713.0
13	17	22	57	333	139.0	-187349.0	537.0	9311.0
13	17	22	57	334	140.0	-185267.0	533.0	9336.0
13	17	22	57	334	141.0	-183219.0	518.0	9562.0
13	17	22	57	366	142.0	-181446.0	505.0	9840.0
13	17	22	57	367	143.0	-179450.0	485.0	9672.0
13	17	22	57	367	144.0	-177552.0	474.0	9551.0
13	17	22	57	368	145.0	-176659.0	464.0	9429.0
13	17	22	57	368	146.0	-175728.0	429.0	9456.0
13	17	22	57	369	147.0	-174503.0	409.0	9214.0
13	17	22	57	370	148.0	-173190.0	412.0	9338.0
13	17	22	57	370	149.0	-172164.0	396.0	9959.0
13	17	22	57	371	150.0	-170403.0	378.0	10184.0
13	17	22	57	371	151.0	-168705.0	368.0	10055.0
13	17	22	57	372	152.0	-167528.0	337.0	10126.0
13	17	22	57	372	153.0	-165444.0	329.0	9882.0
13	17	22	57	373	154.0	-163613.0	316.0	9813.0
13	17	22	57	374	155.0	-162952.0	287.0	9569.0
13	17	22	57	386	156.0	-161902.0	261.0	9880.0
13	17	22	57	387	158.0	-160456.0	238.0	10515.0
13	17	22	57	387	159.0	-160697.0	228.0	10996.0
13	17	22	57	388	160.0	-161076.0	184.0	11020.0
13	17	22	57	389	161.0	-161602.0	184.0	10842.0
13	17	22	57	389	162.0	-162423.0	149.0	11178.0
13	17	22	57	390	163.0	-163698.0	119.0	11184.0
13	17	22	57	390	164.0	-165208.0	102.0	11133.0
13	17	22	57	411	165.0	-166757.0	79.0	11309.0
13	17	22	57	412	166.0	-168154.0	50.0	11653.0
13	17	22	57	413	167.0	-168854.0	30.0	11365.0
13	17	22	57	413	168.0	-169416.0	16.0	11006.0
13	17	22	57	414	169.0	-170362.0	-1.0	11334.0
13	17	22	57	415	170.0	-170996.0	-30.0	11304.0
13	17	22	57	415	171.0	-171310.0	-50.0	11122.0
13	17	22	57	416	172.0	-170730.0	-65.0	11389.0
13	17	22	57	416	173.0	-170242.0	-101.0	11576.0
13	17	22	57	417	174.0	-170682.0	-108.0	11603.0
13	17	22	57	418	175.0	-170651.0	-146.0	11468.0
13	17	22	57	418	176.0	-170451.0	-162.0	11546.0
13	17	22	57	419	177.0	-170556.0	-174.0	11625.0
13	17	22	57	420	178.0	-170307.0	-202.0	11495.0
13	17	22	57	420	179.0	-170892.0	-229.0	11245.0
13	17	22	57	421	181.0	-170846.0	-291.0	11057.0
13	17	22	57	422	182.0	-170749.0	-309.0	11579.0
13	17	22	57	422	183.0	-170509.0	-321.0	11816.0
13	17	22	57	423	184.0	-170963.0	-341.0	11766.0
13	17	22	57	423	185.0	-171942.0	-369.0	11731.0
13	17	22	57	424	186.0	-173146.0	-396.0	11585.0
13	17	22	57	457	187.0	-174012.0	-427.0	11459.0
13	17	22	57	458	188.0	-174624.0	-454.0	11783.0
13	17	22	57	459	189.0	-174974.0	-480.0	11902.0
13	17	22	57	459	190.0	-175772.0	-526.0	11738.0
13	17	22	57	460	191.0	-176284.0	-561.0	11906.0
13	17	22	57	461	192.0	-177146.0	-574.0	11878.0
13	17	22	57	462	193.0	-178364.0	-601.0	11649.0
13	17	22	57	462	194.0	-179586.0	-622.0	11629.0
13	17	22	57	463	195.0	-180759.0	-659.0	11731.0
13	17	22	57	464	196.0	-181479.0	-697.0	11688.0
13	17	22	57	464	197.0	-181756.0	-716.0	11152.0
13	17	22	57	465	198.0	-181686.0	-741.0	11326.0
13	17	22	57	466	199.0	-181906.0	-764.0	11289.0
13	17	22	57	466	200.0	-182801.0	-787.0	11391.0
13	17	22	57	467	201.0	-183406.0	-817.0	11752.0
13	17	22	57	467	203.0	-184972.0	-888.0	11289.0
13	17	22	57	468	204.0	-185847.0	-902.0	11396.0
13	17	22	57	468	205.0	-187013.0	-925.0	11650.0
13	17	22	57	469	206.0	-187799.0	-966.0	11378.0
13	17	22	57	470	207.0	-187814.0	-984.0	11683.0
13	17	22	57	470	208.0	-187563.0	-1030.0	11745.0
13	17	22	57	471	209.0	-187791.0	-1077.0	11550.0
13	17	22	57	502	210.0	-188487.0	-1105.0	11221.0
13	17	22	57	503	211.0	-188651.0	-1117.0	10917.0
13	17	22	57	503	212.0	-188837.0	-1139.0	11257.0
13	17	22	57	504	213.0	-188987.0	-1181.0	10924.0
13	17	22	57	505	214.0	-189152.0	-1196.0	10972.0
13	17	22	57	505	215.0	-189453.0	-1227.0	10749.0
13	17	22	57	506	216.0	-189231.0	-1247.0	11057.0
13	17	22	57	507	217.0	-188984.0	-1272.0	11199.0
13	17	22	57	507	218.0	-189214.0	-1311.0	10884.0
13	17	22	57	508	219.0	-188472.0	-1358.0	10868.0
13	17	22	57	509	220.0	-188216.0	-1357.0	11220.0
13	17	22	57	509	221.0	-187826.0	-1394.0	11628.0
13	17	22	57	510	222.0	-186877.0	-1422.0	11286.0
13	17	22	57	510	223.0	-185779.0	-1443.0	11506.0
13	17	22	57	511	224.0	-184795.0	-1474.0	11289.0
13	17	22	57	512	226.0	-183886.0	-1532.0	11021.0
13	17	22	57	512	227.0	-183468.0	-1579.0	11126.0
13	17	22	57	513	228.0	-183457.0	-1604.0	11393.0
13	17	22	57	513	229.0	-183497.0	-1612.0	11375.0
13	17	22	57	514	230.0	-184113.0	-1655.0	11151.0
13	17	22	57	514	231.0	-184953.0	-1704.0	10680.0
13	17	22	57	546	232.0	-185560.0	-1709.0	10770.0
13	17	22	57	547	233.0	-185620.0	-1734.0	10928.0
13	17	22	57	547	234.0	-186354.0	-1781.0	10737.0
13	17	22	57	548	235.0	-186836.0	-1810.0	10607.0
13	17	22	57	549	236.0	-186686.0	-1840.0	10624.0
13	17	22	57	550	237.0	-186130.0	-1857.0	10764.0
13	17	22	57	550	238.0	-186046.0	-1884.0	10354.0
13	17	22	57	551	239.0	-185548.0	-1907.0	10281.0
13	17	22	57	551	240.0	-185421.0	-1943.0	10102.0
13	17	22	57	552	241.0	-185601.0	-1974.0	10371.0
13	17	22	57	553	242.0	-185772.0	-1994.0	10143.0
13	17	22	57	553	243.0	-185897.0	-2026.0	9831.0
13	17	22	57	554	244.0	-186357.0	-2067.0	9504.0
13	17	22	57	555	245.0	-186572.0	-2095.0	9311.0
13	17	22	57	555	246.0	-187874.0	-2117.0	9083.0
13	17	22	57	556	248.0	-189988.0	-2179.0	8853.0
13	17	22	57	557	249.0	-191272.0	-2207.0	8908.0
13	17	22	57	557	250.0	-192892.0	-2236.0	8825.0
13	17	22	57	558	251.0	-194499.0	-2268.0	8833.0
13	17	22	57	558	252.0	-195662.0	-2306.0	8765.0
13	17	22	57	559	253.0	-196595.0	-2322.0	9135.0
13	17	22	57	559	254.0	-197572.0	-2344.0	9159.0
13	17	22	57	592	255.0	-198306.0	-2394.0	9121.0
13	17	22	57	592	0.0	-198574.0	-2421.0	8867.0
13	17	22	57	593	1.0	-198734.0	-2441.0	8582.0
13	17	22	57	594	2.0	-199033.0	-2469.0	8746.0
13	17	22	57	594	3.0	-199208.0	-2492.0	9059.0
13	17	22	57	595	4.0	-199080.0	-2508.0	9000.0
13	17	22	57	596	5.0	-198731.0	-2543.0	8868.0
13	17	22	57	596	6.0	-198097.0	-2564.0	9314.0
13	17	22	57	597	7.0	-197548.0	-2601.0	9170.0
13	17	22	57	598	8.0	-196737.0	-2629.0	8759.0
13	17	22	57	598	9.0	-196239.0	-2648.0	9166.0
13	17	22	57	599	10.0	-195673.0	-2675.0	9531.0
13	17	22	57	599	11.0	-194946.0	-2706.0	9304.0
13	17	22	57	600	12.0	-194236.0	-2722.0	9429.0
13	17	22	57	601	13.0	-194261.0	-2757.0	9701.0
13	17	22	57	601	15.0	-194902.0	-2801.0	9476.0
13	17	22	57	602	16.0	-194970.0	-2824.0	9934.0
13	17	22	57	602	17.0	-194951.0	-2838.0	9995.0
13	17	22	57	603	18.0	-195323.0	-2888.0	9964.0
13	17	22	57	604	19.0	-195956.0	-2904.0	10061.0
13	17	22	57	604	20.0	-196546.0	-2926.0	10017.0
13	17	22	57	637	21.0	-197238.0	-2970.0	10189.0
13	17	22	57	638	22.0	-198400.0	-3005.0	9970.0
13	17	22	57	639	23.0	-199171.0	-3036.0	9765.0
13	17	22	57	639	24.0	-199744.0	-3057.0	10059.0
13	17	22	57	640	25.0	-199664.0	-3077.0	9788.0
13	17	22	57	641	26.0	-198997.0	-3096.0	9556.0
13	17	22	57	641	27.0	-198074.0	-3136.0	9519.0
13	17	22	57	642	28.0	-197171.0	-3153.0	9865.0
13	17	22	57	642	29.0	-196346.0	-3189.0	9644.0
13	17	22	57	643	30.0	-195339.0	-3229.0	9664.0
13	17	22	57	644	31.0	-194217.0	-3248.0	10008.0
13	17	22	57	644	32.0	-193225.0	-3276.0	10212.0
13	17	22	57	645	33.0	-192458.0	-3296.0	9835.0
13	17	22	57	646	34.0	-191408.0	-3331.0	9589.0
13	17	22	57	646	35.0	-190064.0	-3352.0	9613.0
13	17	22	57	647	37.0	-187657.0	-3384.0	9144.0
13	17	22	57	647	38.0	-186444.0	-3417.0	9391.0
13	17	22	57	648	39.0	-185673.0	-3446.0	9361.0
13	17	22	57	649	40.0	-184831.0	-3485.0	8909.0
13	17	22	57	649	41.0	-183859.0	-3509.0	8981.0
13	17	22	57	650	42.0	-183177.0	-3527.0	8753.0
13	17	22	57	680	43.0	-182742.0	-3557.0	8610.0
13	17	22	57	681	44.0	-182742.0	-3584.0	8790.0
13	17	22	57	682	45.0	-183227.0	-3622.0	9167.0
13	17	22	57	682	46.0	-183630.0	-3643.0	8825.0
13	17	22	57	683	47.0	-184306.0	-3653.0	8788.0
13	17	22	57	684	48.0	-185379.0	-3679.0	8821.0
13	17	22	57	684	49.0	-186415.0	-3689.0	9047.0
13	17	22	57	685	50.0	-187398.0	-3699.0	8855.0
13	17	22	57	686	51.0	-188652.0	-3747.0	8936.0
13	17	22	57	686	52.0	-189958.0	-3776.0	8978.0
13	17	22	57	687	53.0	-191110.0	-3800.0	9056.0
13	17	22	57	687	54.0	-193146.0	-3839.0	9231.0
13	17	22	57	688	55.0	-194764.0	-3852.0	8909.0
13	17	22	57	689	56.0	-195354.0	-3856.0	8746.0
13	17	22	57	689	57.0	-195764.0	-3880.0	8959.0
13	17	22	57	690	59.0	-197359.0	-3947.0	8576.0
13	17	22	57	691	60.0	-197360.0	-3979.0	8734.0
13	17	22	57	691	61.0	-197069.0	-3993.0	8833.0
13	17	22	57	692	62.0	-196516.0	-4014.0	9009.0
13	17	22	57	692	63.0	-196129.0	-4036.0	9054.0
13	17	22	57	693	64.0	-195171.0	-4063.0	9028.0
13	17	22	57	694	65.0	-193916.0	-4094.0	8827.0
13	17	22	57	726	66.0	-192716.0	-4106.0	9052.0
13	17	22	57	727	67.0	-191761.0	-4122.0	8936.0
13	17	22	57	727	68.0	-190901.0	-4142.0	8846.0
13	17	22	57	728	69.0	-190871.0	-4180.0	8513.0
13	17	22	57	729	70.0	-190532.0	-4206.0	8842.0
13	17	22	57	729	71.0	-189397.0	-4223.0	9027.0
13	17	22	57	730	72.0	-188967.0	-4261.0	8772.0
13	17	22	57	730	73.0	-188703.0	-4282.0	9119.0
13	17	22	57	731	74.0	-188654.0	-4288.0	9160.0
13	17	22	57	732	75.0	-188951.0	-4326.0	8699.0
13	17	22	57	732	76.0	-189174.0	-4365.0	8546.0
13	17	22	57	733	77.0	-189443.0	-4397.0	9068.0
13	17	22	57	734	78.0	-189417.0	-4415.0	8765.0
13	17	22	57	734	79.0	-189572.0	-4431.0	8609.0
13	17	22	57	735	80.0	-190794.0	-4457.0	8991.0
13	17	22	57	735	82.0	-192332.0	-4470.0	8461.0
13	17	22	57	736	83.0	-193187.0	-4524.0	8800.0
13	17	22	57	737	84.0	-193561.0	-4543.0	8800.0
13	17	22	57	737	85.0	-193266.0	-4545.0	8760.0
13	17	22	57	738	86.0	-192391.0	-4579.0	8745.0
13	17	22	57	738	87.0	-191986.0	-4612.0	8686.0
13	17	22	57	772	88.0	-192087.0	-4631.0	8274.0
13	17	22	57	773	89.0	-191934.0	-4652.0	8334.0
13	17	22	57	774	90.0	-192226.0	-4678.0	8279.0
13	17	22	57	774	91.0	-192592.0	-4697.0	8015.0
13	17	22	57	775	92.0	-192764.0	-4719.0	7781.0
13	17	22	57	776	93.0	-193342.0	-4737.0	7700.0
13	17	22	57	777	94.0	-194168.0	-4742.0	7538.0
13	17	22	57	777	95.0	-194680.0	-4776.0	7541.0
13	17	22	57	778	96.0	-194569.0	-4824.0	7432.0
13	17	22	57	778	97.0	-194487.0	-4844.0	7211.0
13	17	22	57	779	98.0	-194787.0	-4847.0	7078.0
13	17	22	57	780	99.0	-194839.0	-4865.0	7048.0
13	17	22	57	780	100.0	-194471.0	-4901.0	6864.0
13	17	22	57	781	101.0	-194150.0	-4926.0	6928.0
13	17	22	57	782	102.0	-194270.0	-4925.0	7084.0
13	17	22	57	782	104.0	-194084.0	-4947.0	6603.0
13	17	22	57	783	105.0	-194161.0	-4966.0	6873.0
13	17	22	57	783	106.0	-194441.0	-5012.0	6676.0
13	17	22	57	784	107.0	-194224.0	-5042.0	6078.0
13	17	22	57	785	108.0	-194286.0	-5059.0	6700.0
13	17	22	57	785	109.0	-194989.0	-5082.0	7134.0
13	17	22	57	786	110.0	-195129.0	-5100.0	6678.0
13	17	22	57	817	111.0	-195338.0	-5111.0	6021.0
13	17	22	57	818	112.0	-195781.0	-5144.0	6222.0
13	17	22	57	818	113.0	-195933.0	-5169.0	6414.0
13	17	22	57	819	114.0	-196060.0	-5200.0	6378.0
13	17	22	57	820	115.0	-196526.0	-5241.0	6737.0
13	17	22	57	821	116.0	-196956.0	-5244.0	6735.0
13	17	22	57	821	117.0	-197501.0	-5262.0	6313.0
13	17	22	57	822	118.0	-198241.0	-5294.0	6339.0
13	17	22	57	822	119.0	-199202.0	-5325.0	6513.0
13	17	22	57	823	120.0	-200341.0	-5336.0	6606.0
13	17	22	57	824	121.0	-200989.0	-5362.0	6639.0
13	17	22	57	825	122.0	-201488.0	-5389.0	6787.0
13	17	22	57	825	123.0	-202344.0	-5424.0	6791.0
13	17	22	57	826	124.0	-203281.0	-5452.0	6535.0
13	17	22	57	827	125.0	-204253.0	-5457.0	6409.0
13	17	22	57	827	127.0	-207084.0	-5497.0	6797.0
13	17	22	57	828	128.0	-208579.0	-5529.0	6671.0
13	17	22	57	828	129.0	-210151.0	-5539.0	6551.0
13	17	22	57	829	130.0	-211577.0	-5552.0	6264.0
13	17	22	57	830	131.0	-212934.0	-5577.0	6019.0
13	17	22	57	830	132.0	-213684.0	-5617.0	6426.0
13	17	22	57	861	133.0	-214105.0	-5646.0	6384.0
13	17	22	57	862	134.0	-214387.0	-5656.0	6366.0
13	17	22	57	863	135.0	-214222.0	-5678.0	6337.0
13	17	22	57	863	136.0	-213163.0	-5722.0	6255.0
13	17	22	57	864	137.0	-211580.0	-5733.0	6561.0
13	17	22	57	864	138.0	-209714.0	-5767.0	6749.0
13	17	22	57	865	139.0	-207439.0	-5783.0	6953.0
13	17	22	57	865	140.0	-204915.0	-5791.0	6951.0
13	17	22	57	866	141.0	-202734.0	-5829.0	7187.0
13	17	22	57	867	142.0	-200462.0	-5830.0	6736.0
13	17	22	57	867	143.0	-198086.0	-5849.0	6950.0
13	17	22	57	868	144.0	-196391.0	-5871.0	7452.0
13	17	22	57	868	145.0	-194624.0	-5881.0	7134.0
13	17	22	57	869	146.0	-192580.0	-5892.0	6785.0
13	17	22	57	869	147.0	-190848.0	-5928.0	7094.0
13	17	22	57	882	149.0	-189100.0	-5968.0	7131.0
13	17	22	57	883	150.0	-187954.0	-6005.0	6853.0
13	17	22	57	883	151.0	-186906.0	-6012.0	6938.0
13	17	22	57	884	152.0	-186070.0	-6038.0	6862.0
13	17	22	57	884	153.0	-185651.0	-6058.0	6914.0
13	17	22	57	885	154.0	-185536.0	-6080.0	7101.0
13	17	22	57	885	155.0	-186233.0	-6096.0	6969.0
13	17	22	57	907	156.0	-187132.0	-6125.0	6718.0
13	17	22	57	907	157.0	-188456.0	-6158.0	6204.0
13	17	22	57	908	158.0	-190814.0	-6179.0	5354.0
13	17	22	57	909	159.0	-193547.0	-6190.0	3960.0
13	17	22	57	909	160.0	-196062.0	-6209.0	3239.0
13	17	22	57	910	161.0	-198254.0	-6216.0	3479.0
13	17	22	57	910	162.0	-200672.0	-6242.0	4858.0
13	17	22	57	911	163.0	-203001.0	-6264.0	7892.0
13	17	22	57	912	164.0	-204446.0	-6296.0	12923.0
13	17	22	57	912	165.0	-204992.0	-6306.0	18711.0
13	17	22	57	913	166.0	-204750.0	-6321.0	23799.0
13	17	22	57	913	167.0	-204264.0	-6341.0	29111.0
13	17	22	57	914	168.0	-203034.0	-6356.0	33044.0
13	17	22	57	914	169.0	-201411.0	-6381.0	34320.0
13	17	22	57	915	170.0	-199551.0	-6391.0	33910.0
13	17	22	57	915	172.0	-195244.0	-6446.0	31209.0
13	17	22	57	916	173.0	-193546.0	-6477.0	30969.0
13	17	22	57	917	174.0	-192194.0	-6515.0	30839.0
13	17	22	57	917	175.0	-191174.0	-6531.0	29269.0
13	17	22	57	918	176.0	-191005.0	-6535.0	27965.0
13	17	22	57	918	177.0	-191253.0	-6555.0	26026.0
13	17	22	57	951	178.0	-191775.0	-6574.0	22583.0
13	17	22	57	952	179.0	-192566.0	-6589.0	20344.0
13	17	22	57	953	180.0	-193714.0	-6617.0	18776.0
13	17	22	57	953	181.0	-194964.0	-6649.0	16430.0
13	17	22	57	954	182.0	-196419.0	-6677.0	13845.0
13	17	22	57	954	183.0	-199298.0	-6698.0	11669.0
13	17	22	57	955	184.0	-203387.0	-6716.0	9729.0
13	17	22	57	955	185.0	-207212.0	-6739.0	8396.0
13	17	22	57	956	186.0	-207628.0	-6757.0	7741.0
13	17	22	57	956	187.0	-202987.0	-6775.0	7174.0
13	17	22	57	957	188.0	-192631.0	-6784.0	6445.0
13	17	22	57	958	189.0	-175363.0	-6806.0	5698.0
13	17	22	57	958	190.0	-155848.0	-6831.0	5544.0
13	17	22	57	959	191.0	-137268.0	-6859.0	5331.0
13	17	22	57	960	192.0	-122571.0	-6866.0	5313.0
13	17	22	57	960	194.0	-118203.0	-6882.0	5430.0
13	17	22	57	961	195.0	-130099.0	-6908.0	5018.0
13	17	22	57	961	196.0	-147654.0	-6933.0	4883.0
13	17	22	57	962	197.0	-165720.0	-6954.0	4699.0
13	17	22	57	970	198.0	-182037.0	-6979.0	4672.0
13	17	22	57	971	199.0	-195652.0	-6984.0	4624.0
13	17	22	57	971	200.0	-204949.0	-7001.0	4593.0
13	17	22	57	996	201.0	-206339.0	-7037.0	4502.0
13	17	22	57	997	202.0	-199497.0	-7057.0	4674.0
13	17	22	57	997	203.0	-186111.0	-7071.0	4429.0
13	17	22	57	998	204.0	-171567.0	-7082.0	4251.0
13	17	22	57	998	205.0	-159186.0	-7101.0	4346.0
13	17	22	57	999	206.0	-148469.0	-7134.0	3936.0
13	17	22	58	0	207.0	-140019.0	-7141.0	4138.0
13	17	22	58	0	208.0	-135729.0	-7147.0	4188.0
13	17	22	58	1	209.0	-137472.0	-7161.0	3837.0
13	17	22	58	1	210.0	-144614.0	-7179.0	3754.0
13	17	22	58	2	211.0	-156253.0	-7207.0	3849.0
13	17	22	58	3	212.0	-170519.0	-7233.0	3568.0
13	17	22	58	3	213.0	-184317.0	-7240.0	3066.0
13	17	22	58	4	214.0	-196597.0	-7257.0	2950.0
13	17	22	58	4	215.0	-207071.0	-7277.0	3503.0
13	17	22	58	5	217.0	-223086.0	-7354.0	3496.0
13	17	22	58	5	218.0	-227905.0	-7387.0	3922.0
13	17	22	58	6	219.0	-230037.0	-7382.0	3967.0
13	17	22	58	6	220.0	-229251.0	-7412.0	3479.0
13	17	22	58	7	221.0	-226379.0	-7447.0	3593.0
13	17	22	58	18	222.0	-222563.0	-7471.0	3792.0
13	17	22	58	42	223.0	-217725.0	-7501.0	3243.0
13	17	22	58	43	224.0	-212337.0	-7522.0	3339.0
13	17	22	58	43	225.0	-206876.0	-7540.0	3405.0
13	17	22	58	44	226.0	-201645.0	-7574.0	3143.0
13	17	22	58	44	227.0	-197961.0	-7601.0	2820.0
13	17	22	58	45	228.0	-196665.0	-7646.0	3100.0
13	17	22	58	46	229.0	-197074.0	-7670.0	2914.0
13	17	22	58	46	230.0	-198626.0	-7676.0	2559.0
13	17	22	58	47	231.0	-200844.0	-7701.0	2929.0
13	17	22	58	47	232.0	-203856.0	-7739.0	2629.0
13	17	22	58	48	233.0	-207282.0	-7756.0	2383.0
13	17	22	58	48	234.0	-210171.0	-7775.0	2784.0
13	17	22	58	49	235.0	-212412.0	-7822.0	2801.0
13	17	22	58	50	236.0	-214301.0	-7842.0	2523.0
13	17	22	58	50	237.0	-215866.0	-7879.0	2607.0
13	17	22	58	51	239.0	-218201.0	-7922.0	2286.0
13	17	22	58	51	240.0	-218114.0	-7953.0	2188.0
13	17	22	58	52	241.0	-217334.0	-7960.0	2178.0
13	17	22	58	53	242.0	-216316.0	-8006.0	2296.0
13	17	22	58	53	243.0	-215259.0	-8054.0	2356.0
13	17	22	58	54	244.0	-214564.0	-8064.0	2623.0
13	17	22	58	87	245.0	-213330.0	-8111.0	2388.0
13	17	22	58	88	246.0	-211666.0	-8126.0	2257.0
13	17	22	58	88	247.0	-210464.0	-8163.0	2565.0
13	17	22	58	89	248.0	-209794.0	-8193.0	2206.0
13	17	22	58	90	249.0	-209178.0	-8186.0	2136.0
13	17	22	58	91	250.0	-207931.0	-8217.0	2363.0
13	17	22	58	91	251.0	-205652.0	-8247.0	2482.0
13	17	22	58	92	252.0	-203249.0	-8263.0	2193.0
13	17	22	58	92	253.0	-201547.0	-8291.0	2533.0
13	17	22	58	93	254.0	-200504.0	-8317.0	3085.0
13	17	22	58	93	255.0	-199543.0	-8336.0	3004.0
13	17	22	58	94	0.0	-198464.0	-8348.0	2934.0
13	17	22	58	95	1.0	-197576.0	-8379.0	3388.0
13	17	22	58	95	2.0	-197066.0	-8394.0	3226.0
13	17	22	58	96	3.0	-196269.0	-8406.0	3061.0
13	17	22	58	97	5.0	-195716.0	-8436.0	3259.0
13	17	22	58	97	6.0	-195468.0	-8442.0	2919.0
13	17	22	58	98	7.0	-194993.0	-8433.0	2843.0
13	17	22	58	98	8.0	-194059.0	-8422.0	3029.0
13	17	22	58	99	9.0	-193321.0	-8414.0	2669.0
13	17	22	58	100	10.0	-192172.0	-8404.0	3015.0
13	17	22	58	100	11.0	-191119.0	-8382.0	3026.0
13	17	22	58	101	12.0	-190825.0	-8362.0	2668.0
13	17	22	58	132	13.0	-190485.0	-8346.0	2514.0
13	17	22	58	133	14.0	-190397.0	-8294.0	2254.0
13	17	22	58	133	15.0	-190702.0	-8226.0	1762.0
13	17	22	58	134	16.0	-191309.0	-8184.0	1576.0
13	17	22	58	134	17.0	-192606.0	-8124.0	1517.0
13	17	22	58	135	18.0	-194413.0	-8038.0	1333.0
13	17	22	58	136	19.0	-196562.0	-7971.0	1752.0
13	17	22	58	136	20.0	-198587.0	-7913.0	1948.0
13	17	22	58	137	21.0	-200167.0	-7822.0	1364.0
13	17	22	58	137	22.0	-201716.0	-7711.0	853.0
13	17	22	58	138	23.0	-202908.0	-7630.0	1104.0
13	17	22	58	138	24.0	-203172.0	-7528.0	865.0
13	17	22	58	139	25.0	-202916.0	-7409.0	253.0
13	17	22	58	139	26.0	-202072.0	-7307.0	448.0
13	17	22	58	140	27.0	-201537.0	-7193.0	444.0
13	17	22	58	141	28.0	-201099.0	-7087.0	4.0
13	17	22	58	141	29.0	-200127.0	-6959.0	-281.0
13	17	22	58	142	30.0	-199995.0	-6828.0	-285.0
13	17	22	58	142	31.0	-200203.0	-6701.0	-306.0
13	17	22	58	143	32.0	-200120.0	-6571.0	-751.0
13	17	22	58	144	33.0	-200205.0	-6439.0	-655.0
13	17	22	58	176	34.0	-200381.0	-6294.0	-505.0
13	17	22	58	177	35.0	-200945.0	-6128.0	-844.0
13	17	22	58	177	36.0	-202044.0	-5980.0	-917.0
13	17	22	58	178	37.0	-203596.0	-5852.0	-883.0
13	17	22	58	179	38.0	-205397.0	-5727.0	-1362.0
13	17	22	58	179	39.0	-206809.0	-5579.0	-1827.0
13	17	22	58	180	40.0	-207963.0	-5414.0	-1857.0
13	17	22	58	180	41.0	-209404.0	-5249.0	-2026.0
13	17	22	58	181	42.0	-210369.0	-5098.0	-2265.0
13	17	22	58	182	43.0	-210819.0	-4958.0	-2314.0
13	17	22	58	182	44.0	-210874.0	-4806.0	-2164.0
13	17	22	58	183	45.0	-210328.0	-4651.0	-2257.0
13	17	22	58	183	46.0	-209354.0	-4503.0	-2422.0
13	17	22	58	184	47.0	-207652.0	-4360.0	-2821.0
13	17	22	58	184	48.0	-205202.0	-4212.0	-2999.0
13	17	22	58	185	50.0	-200598.0	-3942.0	-3317.0
13	17	22	58	186	51.0	-198594.0	-3811.0	-3102.0
13	17	22	58	186	52.0	-196694.0	-3659.0	-2700.0
13	17	22	58	187	53.0	-194737.0	-3529.0	-3011.0
13	17	22	58	187	54.0	-193028.0	-3408.0	-3362.0
13	17	22	58	188	55.0	-191842.0	-3271.0	-3274.0
13	17	22	58	188	56.0	-191222.0	-3146.0	-3736.0
13	17	22	58	221	57.0	-191166.0	-3027.0	-4139.0
13	17	22	58	222	58.0	-191514.0	-2902.0	-3691.0
13	17	22	58	223	59.0	-192198.0	-2787.0	-3776.0
13	17	22	58	223	60.0	-193376.0	-2660.0	-3566.0
13	17	22	58	224	61.0	-194774.0	-2556.0	-3937.0
13	17	22	58	225	62.0	-196281.0	-2441.0	-3521.0
13	17	22	58	225	63.0	-197586.0	-2315.0	-3612.0
13	17	22	58	226	64.0	-198332.0	-2219.0	-4088.0
13	17	22	58	226	65.0	-198312.0	-2126.0	-4341.0
13	17	22	58	227	66.0	-198015.0	-2025.0	-4459.0
13	17	22	58	228	67.0	-197624.0	-1916.0	-4389.0
13	17	22	58	228	68.0	-197559.0	-1841.0	-4409.0
13	17	22	58	229	69.0	-197622.0	-1737.0	-4067.0
13	17	22	58	229	70.0	-198084.0	-1649.0	-4371.0
13	17	22	58	230	71.0	-199282.0	-1541.0	-4577.0
13	17	22	58	230	73.0	-201406.0	-1378.0	-4512.0
13	17	22	58	231	74.0	-201721.0	-1292.0	-4316.0
13	17	22	58	232	75.0	-201575.0	-1204.0	-4211.0
13	17	22	58	232	76.0	-201516.0	-1130.0	-4173.0
13	17	22	58	233	77.0	-201149.0	-1049.0	-3933.0
13	17	22	58	233	78.0	-200113.0	-969.0	-3524.0
13	17	22	58	267	79.0	-198784.0	-892.0	-3372.0
13	17	22	58	267	80.0	-197055.0	-840.0	-2872.0
13	17	22	58	268	81.0	-195438.0	-774.0	-2487.0
13	17	22	58	269	82.0	-194129.0	-699.0	-2558.0
13	17	22	58	269	83.0	-192819.0	-639.0	-2229.0
13	17	22	58	270	84.0	-191659.0	-566.0	-1947.0
13	17	22	58	270	85.0	-190744.0	-482.0	-1504.0
13	17	22	58	271	86.0	-190174.0	-400.0	-1216.0
13	17	22	58	272	87.0	-190008.0	-336.0	-522.0
13	17	22	58	272	88.0	-189287.0	-276.0	-131.0
13	17	22	58	273	89.0	-188426.0	-217.0	105.0
13	17	22	58	273	90.0	-187310.0	-159.0	816.0
13	17	22	58	274	91.0	-186014.0	-85.0	1546.0
13	17	22	58	282	92.0	-185360.0	-14.0	1768.0
13	17	22	58	283	93.0	-184754.0	51.0	1822.0
13	17	22	58	283	95.0	-183356.0	181.0	3121.0
13	17	22	58	284	96.0	-181930.0	234.0	3284.0
13	17	22	58	285	97.0	-180644.0	297.0	3719.0
13	17	22	58	285	98.0	-179354.0	367.0	3988.0
13	17	22	58	286	99.0	-177202.0	419.0	3707.0
13	17	22	58	286	100.0	-175298.0	463.0	4341.0
13	17	22	58	287	101.0	-173880.0	529.0	4693.0
13	17	22	58	311	102.0	-172805.0	596.0	4743.0
13	17	22	58	312	103.0	-172024.0	635.0	4994.0
13	17	22	58	313	104.0	-171110.0	684.0	5228.0
13	17	22	58	313	105.0	-170089.0	763.0	5296.0
13	17	22	58	314	106.0	-169185.0	801.0	5664.0
13	17	22	58	315	107.0	-168616.0	861.0	5763.0
13	17	22	58	315	108.0	-168183.0	936.0	5933.0
13	17	22	58	316	109.0	-167823.0	978.0	6121.0
13	17	22	58	317	110.0	-167453.0	1027.0	6090.0
13	17	22	58	317	111.0	-166863.0	1087.0	6451.0
13	17	22	58	318	112.0	-165681.0	1138.0	6344.0
13	17	22	58	318	113.0	-161928.0	1202.0	6218.0
13	17	22	58	319	114.0	-156935.0	1259.0	6422.0
13	17	22	58	319	115.0	-154263.0	1307.0	6270.0
13	17	22	58	320	116.0	-152412.0	1368.0	6324.0
13	17	22	58	321	118.0	-165109.0	1471.0	6131.0
13	17	22	58	321	119.0	-174319.0	1531.0	6373.0
13	17	22	58	322	120.0	-184017.0	1575.0	6319.0
13	17	22	58	322	121.0	-194146.0	1619.0	6696.0
13	17	22	58	323	122.0	-201551.0	1676.0	6743.0
13	17	22	58	324	123.0	-209506.0	1711.0	6676.0
13	17	22	58	359	124.0	-216986.0	1750.0	6579.0
13	17	22	58	360	125.0	-220591.0	1789.0	6570.0
13	17	22	58	361	126.0	-221582.0	1849.0	6621.0
13	17	22	58	361	127.0	-220677.0	1896.0	6693.0
13	17	22	58	362	128.0	-219922.0	1940.0	6219.0
13	17	22	58	363	129.0	-218746.0	1975.0	6065.0
13	17	22	58	364	130.0	-218394.0	2007.0	6264.0
13	17	22	58	364	131.0	-219822.0	2059.0	5805.0
13	17	22	58	365	132.0	-222944.0	2084.0	5923.0
13	17	22	58	365	133.0	-226228.0	2109.0	6281.0
13	17	22	58	366	134.0	-228292.0	2173.0	6147.0
13	17	22	58	367	135.0	-228681.0	2226.0	5658.0
13	17	22	58	367	136.0	-227829.0	2263.0	5968.0
13	17	22	58	368	137.0	-226246.0	2278.0	5862.0
13	17	22	58	368	138.0	-223987.0	2322.0	5706.0
13	17	22	58	369	140.0	-220114.0	2368.0	6006.0
13	17	22	58	370	141.0	-219108.0	2391.0	5920.0
13	17	22	58	370	142.0	-218504.0	2429.0	5778.0
13	17	22	58	371	143.0	-218257.0	2464.0	5818.0
13	17	22	58	371	144.0	-217812.0	2483.0	6003.0
13	17	22	58	372	145.0	-217191.0	2471.0	6320.0
13	17	22	58	372	146.0	-216792.0	2491.0	6165.0
13	17	22	58	403	147.0	-215922.0	2529.0	5609.0
13	17	22	58	403	148.0	-214682.0	2556.0	5536.0
13	17	22	58	404	149.0	-213636.0	2551.0	5558.0
13	17	22	58	405	150.0	-212612.0	2559.0	5452.0
13	17	22	58	405	151.0	-211841.0	2584.0	5544.0
13	17	22	58	406	152.0	-211307.0	2608.0	5462.0
13	17	22	58	407	153.0	-210789.0	2607.0	5579.0
13	17	22	58	407	154.0	-210315.0	2607.0	5566.0
13	17	22	58	408	155.0	-209741.0	2606.0	5580.0
13	17	22	58	408	156.0	-209262.0	2601.0	5201.0
13	17	22	58	409	157.0	-209091.0	2613.0	5232.0
13	17	22	58	410	158.0	-209119.0	2611.0	5874.0
13	17	22	58	410	159.0	-209084.0	2604.0	5786.0
13	17	22	58	411	160.0	-208953.0	2614.0	5954.0
13	17	22	58	411	161.0	-208616.0	2626.0	6050.0
13	17	22	58	412	163.0	-207189.0	2597.0	5949.0
13	17	22	58	413	164.0	-206129.0	2589.0	6021.0
13	17	22	58	413	165.0	-204917.0	2570.0	6113.0
13	17	22	58	414	166.0	-203640.0	2573.0	6279.0
13	17	22	58	414	167.0	-202837.0	2554.0	5949.0
13	17	22	58	415	168.0	-201754.0	2548.0	5760.0
13	17	22	58	446	169.0	-200128.0	2536.0	6251.0
13	17	22	58	447	170.0	-198715.0	2513.0	5979.0
13	17	22	58	448	171.0	-197909.0	2488.0	6232.0
13	17	22	58	448	172.0	-197562.0	2484.0	6537.0
13	17	22	58	449	173.0	-197499.0	2471.0	6301.0
13	17	22	58	450	174.0	-197960.0	2451.0	6302.0
13	17	22	58	450	175.0	-198665.0	2438.0	6037.0
13	17	22	58	451	176.0	-199640.0	2401.0	5916.0
13	17	22	58	451	177.0	-200447.0	2383.0	6194.0
13	17	22	58	452	178.0	-201059.0	2393.0	6386.0
13	17	22	58	453	179.0	-201502.0	2371.0	6139.0
13	17	22	58	453	180.0	-202044.0	2339.0	6149.0
13	17	22	58	454	181.0	-202937.0	2327.0	6079.0
13	17	22	58	455	182.0	-203354.0	2312.0	5894.0
13	17	22	58	455	183.0	-203170.0	2275.0	6226.0
13	17	22	58	456	185.0	-201792.0	2242.0	6274.0
13	17	22	58	456	186.0	-201094.0	2217.0	6373.0
13	17	22	58	457	187.0	-200364.0	2213.0	6773.0
13	17	22	58	457	188.0	-199496.0	2184.0	6689.0
13	17	22	58	458	189.0	-197904.0	2164.0	6428.0
13	17	22	58	459	190.0	-195773.0	2158.0	6839.0
13	17	22	58	491	191.0	-193595.0	2145.0	6776.0
13	17	22	58	492	192.0	-191458.0	2112.0	6596.0
13	17	22	58	493	193.0	-189290.0	2089.0	6633.0
13	17	22	58	493	194.0	-186496.0	2064.0	7196.0
13	17	22	58	494	195.0	-183616.0	2058.0	7261.0
13	17	22	58	495	196.0	-181348.0	2042.0	7040.0
13	17	22	58	495	197.0	-179436.0	2024.0	7230.0
13	17	22	58	496	198.0	-177306.0	1998.0	7030.0
13	17	22	58	497	199.0	-174821.0	1994.0	6841.0
13	17	22	58	497	200.0	-172699.0	1984.0	7274.0
13	17	22	58	498	201.0	-171392.0	1979.0	7684.0
13	17	22	58	499	202.0	-170725.0	1957.0	7458.0
13	17	22	58	499	203.0	-170328.0	1944.0	7672.0
13	17	22	58	500	204.0	-169730.0	1931.0	8024.0
13	17	22	58	501	205.0	-169514.0	1914.0	7468.0
13	17	22	58	501	208.0	-169134.0	1851.0	7944.0
13	17	22	58	502	209.0	-169440.0	1843.0	8159.0
13	17	22	58	502	210.0	-170207.0	1837.0	8224.0
13	17	22	58	503	211.0	-171318.0	1830.0	8067.0
13	17	22	58	504	212.0	-172768.0	1810.0	8050.0
13	17	22	58	504	213.0	-174461.0	1789.0	8182.0
13	17	22	58	536	214.0	-176204.0	1780.0	8015.0
13	17	22	58	536	215.0	-177911.0	1763.0	8016.0
13	17	22	58	537	216.0	-179933.0	1758.0	7869.0
13	17	22	58	538	217.0	-182766.0	1740.0	8078.0
13	17	22	58	538	218.0	-186064.0	1733.0	8491.0
13	17	22	58	539	219.0	-189736.0	1732.0	8469.0
13	17	22	58	540	220.0	-193996.0	1711.0	8279.0
13	17	22	58	540	221.0	-198763.0	1704.0	7984.0
13	17	22	58	541	222.0	-203874.0	1683.0	7978.0
13	17	22	58	542	223.0	-209431.0	1685.0	7946.0
13	17	22	58	542	224.0	-214799.0	1668.0	7355.0
13	17	22	58	543	225.0	-219787.0	1658.0	7399.0
13	17	22	58	543	226.0	-224882.0	1638.0	7392.0
13	17	22	58	544	227.0	-229824.0	1610.0	7188.0
13	17	22	58	545	228.0	-233360.0	1597.0	7644.0
13	17	22	58	545	230.0	-236626.0	1584.0	7600.0
13	17	22	58	546	231.0	-236755.0	1556.0	7476.0
13	17	22	58	547	232.0	-236162.0	1553.0	7600.0
13	17	22	58	547	233.0	-234636.0	1539.0	7591.0
13	17	22	58	548	234.0	-232731.0	1531.0	7115.0
13	17	22	58	549	235.0	-230691.0	1520.0	7213.0
13	17	22	58	583	236.0	-228671.0	1503.0	7389.0
13	17	22	58	584	237.0	-226817.0	1492.0	7121.0
13	17	22	58	584	238.0	-224936.0	1466.0	6662.0
13	17	22	58	585	239.0	-223327.0	1451.0	7096.0
13	17	22	58	586	240.0	-221972.0	1461.0	7111.0
13	17	22	58	587	241.0	-220961.0	1438.0	6804.0
13	17	22	58	588	242.0	-219929.0	1417.0	6378.0
13	17	22	58	588	243.0	-218871.0	1374.0	6419.0
13	17	22	58	589	244.0	-217506.0	1360.0	6523.0
13	17	22	58	590	245.0	-215441.0	1346.0	6292.0
13	17	22	58	590	246.0	-213200.0	1347.0	6411.0
13	17	22	58	591	247.0	-210756.0	1309.0	6588.0
13	17	22	58	592	248.0	-208138.0	1281.0	6753.0
13	17	22	58	592	249.0	-205434.0	1269.0	6599.0
13	17	22	58	593	250.0	-202965.0	1243.0	6480.0
13	17	22	58	594	252.0	-199021.0	1219.0	6078.0
13	17	22	58	594	253.0	-197349.0	1178.0	6089.0
13	17	22	58	595	254.0	-195707.0	1159.0	6508.0
13	17	22	58	596	255.0	-194524.0	1136.0	6651.0
13	17	22	58	596	0.0	-194247.0	1105.0	6313.0
13	17	22	58	597	1.0	-194462.0	1097.0	6072.0
13	17	22	58	597	2.0	-194709.0	1061.0	5993.0
13	17	22	58	628	3.0	-194534.0	1030.0	5748.0
13	17	22	58	628	4.0	-194206.0	993.0	5854.0
13	17	22	58	629	5.0	-194247.0	970.0	5869.0
13	17	22	58	630	6.0	-194780.0	952.0	5989.0
13	17	22	58	630	7.0	-195661.0	932.0	5934.0
13	17	22	58	631	8.0	-196401.0	913.0	6048.0
13	17	22	58	632	9.0	-197012.0	888.0	5918.0
13	17	22	58	633	10.0	-197536.0	858.0	5946.0
13	17	22	58	633	11.0	-197984.0	843.0	6072.0
13	17	22	58	634	12.0	-198164.0	823.0	6154.0
13	17	22	58	634	13.0	-198034.0	802.0	5634.0
13	17	22	58	635	14.0	-197702.0	767.0	5429.0
13	17	22	58	636	15.0	-197274.0	743.0	5672.0
13	17	22	58	636	16.0	-196709.0	719.0	5853.0
13	17	22	58	637	17.0	-195675.0	689.0	6066.0
13	17	22	58	638	19.0	-193623.0	657.0	6049.0
13	17	22	58	638	20.0	-193072.0	616.0	5535.0
13	17	22	58	639	21.0	-192929.0	603.0	5518.0
13	17	22	58	640	22.0	-193017.0	604.0	5706.0
13	17	22	58	640	23.0	-192999.0	546.0	5679.0
13	17	22	58	641	24.0	-192794.0	507.0	5354.0
13	17	22	58	671	25.0	-192735.0	502.0	5331.0
13	17	22	58	672	26.0	-192678.0	470.0	5671.0
13	17	22	58	673	27.0	-192064.0	435.0	5187.0
13	17	22	58	674	28.0	-190844.0	413.0	5241.0
13	17	22	58	674	29.0	-189710.0	378.0	4906.0
13	17	22	58	675	30.0	-188672.0	354.0	5121.0
13	17	22	58	675	31.0	-187968.0	343.0	5231.0
13	17	22	58	676	32.0	-187712.0	336.0	4834.0
13	17	22	58	677	33.0	-187159.0	304.0	4661.0
13	17	22	58	678	34.0	-186919.0	275.0	4799.0
13	17	22	58	679	35.0	-187273.0	221.0	4653.0
13	17	22	58	679	36.0	-187741.0	206.0	4337.0
13	17	22	58	680	37.0	-187949.0	189.0	4754.0
13	17	22	58	681	38.0	-188214.0	179.0	4462.0
13	17	22	58	681	39.0	-188799.0	148.0	4279.0
13	17	22	58	682	41.0	-191146.0	109.0	4996.0
13	17	22	58	683	42.0	-192261.0	89.0	4353.0
13	17	22	58	683	43.0	-193538.0	70.0	4681.0
13	17	22	58	684	44.0	-194635.0	55.0	4903.0
13	17	22	58	684	45.0	-195767.0	30.0	4651.0
13	17	22	58	685	46.0	-197161.0	-1.0	4256.0
13	17	22	58	686	47.0	-198256.0	-32.0	4736.0
13	17	22	58	716	48.0	-198899.0	-51.0	4873.0
13	17	22	58	717	49.0	-199059.0	-69.0	4532.0
13	17	22	58	718	50.0	-199306.0	-100.0	4878.0
13	17	22	58	718	51.0	-199584.0	-137.0	4812.0
13	17	22	58	719	52.0	-199268.0	-156.0	4832.0
13	17	22	58	720	53.0	-198574.0	-161.0	5056.0
13	17	22	58	720	54.0	-197917.0	-198.0	5401.0
13	17	22	58	721	55.0	-197229.0	-216.0	5011.0
13	17	22	58	721	56.0	-196894.0	-227.0	4874.0
13	17	22	58	722	57.0	-196887.0	-259.0	5109.0
13	17	22	58	723	58.0	-197318.0	-289.0	5137.0
13	17	22	58	723	59.0	-197984.0	-316.0	5046.0
13	17	22	58	724	60.0	-198542.0	-334.0	5093.0
13	17	22	58	724	61.0	-199001.0	-355.0	5224.0
13	17	22	58	725	62.0	-199309.0	-373.0	5278.0
13	17	22	58	734	64.0	-200340.0	-434.0	5326.0
13	17	22	58	734	65.0	-201771.0	-442.0	5291.0
13	17	22	58	735	66.0	-203400.0	-472.0	5472.0
13	17	22	58	736	67.0	-204495.0	-496.0	5423.0
13	17	22	58	736	68.0	-204913.0	-525.0	5481.0
13	17	22	58	737	69.0	-205039.0	-543.0	5465.0
13	17	22	58	737	70.0	-204880.0	-561.0	5499.0
13	17	22	58	761	71.0	-204827.0	-601.0	5203.0
13	17	22	58	762	72.0	-204353.0	-636.0	5344.0
13	17	22	58	762	73.0	-203716.0	-647.0	5708.0
13	17	22	58	763	74.0	-203482.0	-667.0	5581.0
13	17	22	58	764	75.0	-204661.0	-700.0	5709.0
13	17	22	58	764	76.0	-206764.0	-704.0	5955.0
13	17	22	58	765	77.0	-208122.0	-730.0	6123.0
13	17	22	58	766	78.0	-208543.0	-761.0	5650.0
13	17	22	58	766	79.0	-208637.0	-786.0	5825.0
13	17	22	58	767	80.0	-208482.0	-801.0	5796.0
13	17	22	58	768	81.0	-207943.0	-827.0	5587.0
13	17	22	58	768	82.0	-207171.0	-849.0	6090.0
13	17	22	58	769	83.0	-206549.0	-879.0	6429.0
13	17	22	58	770	84.0	-206348.0	-891.0	5893.0
13	17	22	58	770	85.0	-206677.0	-924.0	5878.0
13	17	22	58	771	86.0	-207782.0	-952.0	6415.0
13	17	22	58	772	87.0	-209287.0	-975.0	6119.0
13	17	22	58	773	88.0	-210871.0	-1013.0	5783.0
13	17	22	58	774	89.0	-212092.0	-1034.0	6245.0
13	17	22	58	774	90.0	-213355.0	-1057.0	6458.0
13	17	22	58	775	91.0	-214539.0	-1079.0	5806.0
13	17	22	58	776	92.0	-215123.0	-1108.0	6050.0
13	17	22	58	806	93.0	-215077.0	-1136.0	6493.0
13	17	22	58	807	94.0	-214807.0	-1140.0	6471.0
13	17	22	58	808	95.0	-214336.0	-1162.0	6458.0
13	17	22	58	809	96.0	-213514.0	-1206.0	6424.0
13	17	22	58	810	97.0	-212271.0	-1211.0	6173.0
13	17	22	58	810	98.0	-210391.0	-1239.0	5943.0
13	17	22	58	811	99.0	-208059.0	-1291.0	5852.0
13	17	22	58	811	100.0	-205974.0	-1294.0	5604.0
13	17	22	58	812	101.0	-204175.0	-1307.0	5546.0
13	17	22	58	813	102.0	-202716.0	-1344.0	5848.0
13	17	22	58	814	103.0	-201600.0	-1359.0	5499.0
13	17	22	58	814	104.0	-201097.0	-1362.0	5431.0
13	17	22	58	815	105.0	-201161.0	-1388.0	5614.0
13	17	22	58	815	106.0	-201432.0	-1422.0	5766.0
13	17	22	58	816	107.0	-201712.0	-1430.0	5869.0
13	17	22	58	817	109.0	-202616.0	-1471.0	5391.0
13	17	22	58	817	110.0	-203273.0	-1506.0	5206.0
13	17	22	58	818	111.0	-203692.0	-1524.0	5308.0
13	17	22	58	819	112.0	-204039.0	-1531.0	5653.0
13	17	22	58	819	113.0	-204517.0	-1561.0	5289.0
13	17	22	58	820	114.0	-205134.0	-1586.0	5467.0
13	17	22	58	851	115.0	-205744.0	-1616.0	5343.0
13	17	22	58	851	116.0	-206317.0	-1660.0	5291.0
13	17	22	58	852	117.0	-206540.0	-1672.0	5031.0
13	17	22	58	853	118.0	-206172.0	-1684.0	5099.0
13	17	22	58	854	119.0	-205559.0	-1710.0	5203.0
13	17	22	58	854	120.0	-205251.0	-1747.0	4967.0
13	17	22	58	855	121.0	-205172.0	-1766.0	5153.0
13	17	22	58	856	122.0	-204811.0	-1791.0	5201.0
13	17	22	58	856	123.0	-204153.0	-1816.0	5123.0
13	17	22	58	857	124.0	-203537.0	-1836.0	5514.0
13	17	22	58	858	125.0	-203734.0	-1849.0	5637.0
13	17	22	58	858	126.0	-204371.0	-1868.0	5578.0
13	17	22	58	859	127.0	-205918.0	-1901.0	5468.0
13	17	22	58	859	128.0	-207923.0	-1915.0	5534.0
13	17	22	58	860	129.0	-209947.0	-1931.0	5612.0
13	17	22	58	861	131.0	-213217.0	-1999.0	5584.0
13	17	22	58	861	132.0	-214087.0	-2012.0	5609.0
13	17	22	58	862	133.0	-214673.0	-2048.0	5576.0
13	17	22	58	863	134.0	-215256.0	-2061.0	5431.0
13	17	22	58	863	135.0	-216112.0	-2084.0	5364.0
13	17	22	58	864	136.0	-216522.0	-2109.0	5154.0
13	17	22	58	898	137.0	-216057.0	-2124.0	4979.0
13	17	22	58	898	138.0	-214943.0	-2147.0	4983.0
13	17	22	58	899	139.0	-214071.0	-2174.0	5214.0
13	17	22	58	900	140.0	-213560.0	-2201.0	5428.0
13	17	22	58	901	141.0	-212768.0	-2229.0	5190.0
13	17	22	58	901	142.0	-211570.0	-2256.0	4997.0
13	17	22	58	902	143.0	-210334.0	-2269.0	5503.0
13	17	22	58	902	144.0	-209663.0	-2318.0	5984.0
13	17	22	58	903	145.0	-209362.0	-2332.0	5808.0
13	17	22	58	904	146.0	-208544.0	-2319.0	5718.0
13	17	22	58	904	147.0	-206996.0	-2346.0	6024.0
13	17	22	58	905	148.0	-204762.0	-2391.0	5559.0
13	17	22	58	906	149.0	-202589.0	-2417.0	5563.0
13	17	22	58	906	150.0	-200906.0	-2441.0	5742.0
13	17	22	58	907	151.0	-198991.0	-2446.0	5735.0
13	17	22	58	908	154.0	-193564.0	-2531.0	6147.0
13	17	22	58	908	155.0	-192167.0	-2566.0	5719.0
13	17	22	58	909	156.0	-191384.0	-2586.0	5609.0
13	17	22	58	909	157.0	-191040.0	-2605.0	5704.0
13	17	22	58	910	158.0	-191009.0	-2617.0	5922.0
13	17	22	58	910	159.0	-191406.0	-2651.0	5787.0
13	17	22	58	941	160.0	-192612.0	-2680.0	6026.0
13	17	22	58	942	161.0	-194222.0	-2696.0	5896.0
13	17	22	58	943	162.0	-195599.0	-2710.0	6088.0
13	17	22	58	944	163.0	-197034.0	-2747.0	6472.0
13	17	22	58	944	164.0	-199027.0	-2767.0	6676.0
13	17	22	58	945	165.0	-201102.0	-2770.0	6378.0
13	17	22	58	946	166.0	-202736.0	-2792.0	6289.0
13	17	22	58	946	167.0	-203759.0	-2804.0	6319.0
13	17	22	58	947	168.0	-204583.0	-2822.0	6021.0
13	17	22	58	947	169.0	-205577.0	-2849.0	6266.0
13	17	22	58	948	170.0	-206587.0	-2865.0	6298.0
13	17	22	58	949	171.0	-207042.0	-2889.0	6263.0
13	17	22	58	949	172.0	-206682.0	-2918.0	6471.0
13	17	22	58	950	173.0	-205639.0	-2939.0	6653.0
13	17	22	58	951	174.0	-204214.0	-2939.0	6603.0
13	17	22	58	951	176.0	-201448.0	-2963.0	6950.0
13	17	22	58	952	177.0	-200114.0	-2985.0	6672.0
13	17	22	58	953	178.0	-198614.0	-2994.0	6838.0
13	17	22	58	953	179.0	-197401.0	-3017.0	7000.0
13	17	22	58	954	180.0	-196722.0	-3049.0	6984.0
13	17	22	58	954	181.0	-195781.0	-3064.0	6564.0
13	17	22	58	986	182.0	-194503.0	-3081.0	7112.0
13	17	22	58	987	183.0	-193358.0	-3107.0	7257.0
13	17	22	58	988	184.0	-192431.0	-3112.0	6608.0
13	17	22	58	988	185.0	-192100.0	-3151.0	6723.0
13	17	22	58	989	186.0	-191686.0	-3173.0	7135.0
13	17	22	58	990	187.0	-190911.0	-3199.0	6767.0
13	17	22	58	990	188.0	-190162.0	-3221.0	7070.0
13	17	22	58	991	189.0	-189526.0	-3240.0	7449.0
13	17	22	58	991	190.0	-188790.0	-3254.0	7285.0
13	17	22	58	992	191.0	-187869.0	-3269.0	7333.0
13	17	22	58	993	192.0	-186757.0	-3299.0	7145.0
13	17	22	58	993	193.0	-185436.0	-3322.0	7126.0
13	17	22	58	994	194.0	-183884.0	-3347.0	6960.0
13	17	22	58	995	195.0	-182199.0	-3367.0	6744.0
13	17	22	58	995	196.0	-180772.0	-3389.0	6762.0
13	17	22	58	996	198.0	-178250.0	-3411.0	6492.0
13	17	22	58	997	199.0	-177438.0	-3432.0	6248.0
13	17	22	58	997	200.0	-176644.0	-3441.0	5973.0
13	17	22	58	998	201.0	-175804.0	-3458.0	6002.0
13	17	22	58	998	202.0	-175405.0	-3500.0	5959.0
13	17	22	58	999	203.0	-175413.0	-3535.0	5890.0
13	17	22	59	0	204.0	-175917.0	-3549.0	5722.0
13	17	22	59	32	205.0	-176809.0	-3536.0	5545.0
13	17	22	59	32	206.0	-177715.0	-3567.0	5244.0
13	17	22	59	33	207.0	-178904.0	-3616.0	5173.0
13	17	22	59	33	208.0	-179986.0	-3654.0	5452.0
13	17	22	59	34	209.0	-181157.0	-3667.0	5443.0
13	17	22	59	34	210.0	-182403.0	-3694.0	5902.0
13	17	22	59	35	211.0	-183349.0	-3727.0	6287.0
13	17	22	59	36	212.0	-184487.0	-3741.0	6201.0
13	17	22	59	36	213.0	-185262.0	-3747.0	6256.0
13	17	22	59	37	214.0	-185807.0	-3778.0	6643.0
13	17	22	59	37	215.0	-187040.0	-3805.0	6871.0
13	17	22	59	38	216.0	-188507.0	-3822.0	6896.0
13	17	22	59	38	217.0	-189604.0	-3819.0	7107.0
13	17	22	59	39	218.0	-190444.0	-3842.0	7223.0
13	17	22	59	40	219.0	-191474.0	-3865.0	7043.0
13	17	22	59	40	221.0	-192171.0	-3897.0	7401.0
13	17	22	59	41	222.0	-191462.0	-3917.0	7153.0
13	17	22	59	41	223.0	-190564.0	-3931.0	7282.0
13	17	22	59	42	224.0	-190005.0	-3962.0	7536.0
13	17	22	59	42	225.0	-189578.0	-3982.0	7717.0
13	17	22	59	43	226.0	-189268.0	-4004.0	7674.0
13	17	22	59	76	227.0	-189219.0	-4026.0	7914.0
13	17	22	59	77	228.0	-189779.0	-4060.0	7784.0
13	17	22	59	78	229.0	-191714.0	-4071.0	7689.0
13	17	22	59	78	230.0	-193492.0	-4090.0	7972.0
13	17	22	59	79	231.0	-194592.0	-4125.0	8552.0
13	17	22	59	90	232.0	-195170.0	-4156.0	8609.0
13	17	22	59	91	233.0	-195237.0	-4163.0	8284.0
13	17	22	59	92	234.0	-195174.0	-4189.0	8238.0
13	17	22	59	92	235.0	-195042.0	-4217.0	8191.0
13	17	22	59	93	236.0	-194374.0	-4232.0	8309.0
13	17	22	59	93	237.0	-193194.0	-4239.0	8185.0
13	17	22	59	94	238.0	-192004.0	-4268.0	8316.0
13	17	22	59	94	239.0	-190796.0	-4296.0	8558.0
13	17	22	59	95	240.0	-189504.0	-4314.0	8381.0
13	17	22	59	95	241.0	-188874.0	-4346.0	8535.0
13	17	22	59	96	243.0	-187832.0	-4382.0	8544.0
13	17	22	59	97	244.0	-188011.0	-4419.0	8539.0
13	17	22	59	97	245.0	-188699.0	-4438.0	8414.0
13	17	22	59	98	246.0	-189444.0	-4477.0	8467.0
13	17	22	59	98	247.0	-189977.0	-4484.0	8662.0
13	17	22	59	99	248.0	-190299.0	-4494.0	8706.0
13	17	22	59	99	249.0	-191191.0	-4529.0	9063.0
13	17	22	59	122	250.0	-192359.0	-4555.0	9105.0
13	17	22	59	123	251.0	-193324.0	-4580.0	8836.0
13	17	22	59	124	252.0	-194360.0	-4604.0	8094.0
13	17	22	59	124	253.0	-195732.0	-4617.0	7148.0
13	17	22	59	125	254.0	-197692.0	-4641.0	6139.0
13	17	22	59	125	255.0	-199857.0	-4659.0	5449.0
13	17	22	59	126	0.0	-201612.0	-4687.0	5133.0
13	17	22	59	126	1.0	-202972.0	-4699.0	5691.0
13	17	22	59	127	2.0	-203733.0	-4723.0	7829.0
13	17	22	59	128	3.0	-204351.0	-4760.0	12521.0
13	17	22	59	128	4.0	-204716.0	-4794.0	19052.0
13	17	22	59	129	5.0	-204126.0	-4795.0	23791.0
13	17	22	59	129	6.0	-202311.0	-4816.0	28863.0
13	17	22	59	130	7.0	-200092.0	-4836.0	34178.0
13	17	22	59	131	8.0	-197886.0	-4841.0	35599.0
13	17	22	59	132	10.0	-193988.0	-4893.0	33996.0
13	17	22	59	133	11.0	-191833.0	-4910.0	32502.0
13	17	22	59	133	12.0	-189775.0	-4939.0	31878.0
13	17	22	59	134	13.0	-187619.0	-4967.0	31663.0
13	17	22	59	134	14.0	-185394.0	-4990.0	30312.0
13	17	22	59	135	15.0	-183321.0	-5003.0	28527.0
13	17	22	59	166	16.0	-181499.0	-5029.0	26923.0
13	17	22	59	167	17.0	-180139.0	-5049.0	24234.0
13	17	22	59	168	18.0	-179611.0	-5065.0	21954.0
13	17	22	59	168	19.0	-179934.0	-5084.0	20372.0
13	17	22	59	169	20.0	-180894.0	-5104.0	18381.0
13	17	22	59	169	21.0	-182452.0	-5132.0	15810.0
13	17	22	59	170	22.0	-184621.0	-5149.0	13291.0
13	17	22	59	170	23.0	-187496.0	-5151.0	11395.0
13	17	22	59	171	24.0	-190745.0	-5168.0	9910.0
13	17	22	59	189	25.0	-192632.0	-5177.0	9084.0
13	17	22	59	190	26.0	-189874.0	-5203.0	8370.0
13	17	22	59	191	27.0	-181505.0	-5242.0	7668.0
13	17	22	59	191	28.0	-166831.0	-5262.0	7379.0
13	17	22	59	192	29.0	-148527.0	-5264.0	7740.0
13	17	22	59	192	30.0	-131107.0	-5284.0	7613.0
13	17	22	59	193	32.0	-110587.0	-5310.0	7442.0
13	17	22	59	193	33.0	-113414.0	-5342.0	7316.0
13	17	22	59	194	34.0	-127080.0	-5357.0	7153.0
13	17	22	59	194	35.0	-149645.0	-5386.0	7175.0
13	17	22	59	195	36.0	-176292.0	-5409.0	7770.0
13	17	22	59	196	37.0	-200947.0	-5411.0	7471.0
13	17	22	59	196	38.0	-220135.0	-5442.0	7257.0
13	17	22	59	214	39.0	-232210.0	-5483.0	7561.0
13	17	22	59	214	40.0	-235709.0	-5500.0	7573.0
13	17	22	59	215	41.0	-230503.0	-5526.0	8009.0
13	17	22	59	216	42.0	-216908.0	-5549.0	8188.0
13	17	22	59	216	43.0	-201049.0	-5561.0	8249.0
13	17	22	59	217	44.0	-186219.0	-5564.0	7591.0
13	17	22	59	217	45.0	-171861.0	-5586.0	7683.0
13	17	22	59	218	46.0	-159212.0	-5634.0	8166.0
13	17	22	59	218	47.0	-151234.0	-5656.0	7873.0
13	17	22	59	219	48.0	-149531.0	-5653.0	8103.0
13	17	22	59	220	49.0	-155604.0	-5682.0	7888.0
13	17	22	59	220	50.0	-169342.0	-5705.0	7889.0
13	17	22	59	221	51.0	-187061.0	-5734.0	8102.0
13	17	22	59	221	52.0	-203937.0	-5749.0	7961.0
13	17	22	59	222	53.0	-217584.0	-5769.0	7964.0
13	17	22	59	223	55.0	-234718.0	-5808.0	7808.0
13	17	22	59	223	56.0	-239179.0	-5857.0	7606.0
13	17	22	59	224	57.0	-241334.0	-5878.0	7419.0
13	17	22	59	224	58.0	-240904.0	-5891.0	7688.0
13	17	22	59	225	59.0	-238274.0	-5914.0	7471.0
13	17	22	59	225	60.0	-234327.0	-5934.0	7504.0
13	17	22	59	257	61.0	-229712.0	-5963.0	7706.0
13	17	22	59	257	62.0	-225330.0	-5999.0	7776.0
13	17	22	59	258	63.0	-221623.0	-6023.0	7443.0
13	17	22	59	258	64.0	-218619.0	-6060.0	7336.0
13	17	22	59	259	65.0	-216282.0	-6079.0	7394.0
13	17	22	59	260	66.0	-214694.0	-6082.0	7534.0
13	17	22	59	260	67.0	-214231.0	-6114.0	7538.0
13	17	22	59	261	68.0	-215138.0	-6135.0	7537.0
13	17	22	59	261	69.0	-217039.0	-6163.0	7393.0
13	17	22	59	262	70.0	-218658.0	-6203.0	7136.0
13	17	22	59	262	71.0	-219709.0	-6228.0	7209.0
13	17	22	59	263	72.0	-220724.0	-6255.0	7232.0
13	17	22	59	264	73.0	-221851.0	-6285.0	7138.0
13	17	22	59	264	74.0	-222901.0	-6302.0	7197.0
13	17	22	59	265	75.0	-223551.0	-6324.0	7112.0
13	17	22	59	266	77.0	-223570.0	-6399.0	6826.0
13	17	22	59	266	78.0	-223538.0	-6417.0	6744.0
13	17	22	59	267	79.0	-223201.0	-6467.0	6614.0
13	17	22	59	268	80.0	-222616.0	-6518.0	6548.0
13	17	22	59	268	81.0	-222087.0	-6550.0	6523.0
13	17	22	59	269	82.0	-221322.0	-6599.0	6306.0
13	17	22	59	269	83.0	-220548.0	-6626.0	6096.0
13	17	22	59	301	84.0	-219466.0	-6654.0	6101.0
13	17	22	59	301	85.0	-217754.0	-6679.0	5911.0
13	17	22	59	302	86.0	-215763.0	-6717.0	5837.0
13	17	22	59	303	87.0	-213473.0	-6774.0	5695.0
13	17	22	59	303	88.0	-210893.0	-6801.0	5502.0
13	17	22	59	304	89.0	-208634.0	-6825.0	5700.0
13	17	22	59	304	90.0	-206459.0	-6864.0	5568.0
13	17	22	59	305	91.0	-204342.0	-6896.0	5446.0
13	17	22	59	306	92.0	-202134.0	-6925.0	5244.0
13	17	22	59	306	93.0	-200201.0	-6954.0	5174.0
13	17	22	59	307	94.0	-198507.0	-6978.0	4962.0
13	17	22	59	307	95.0	-196524.0	-7015.0	4858.0
13	17	22	59	308	96.0	-194831.0	-7041.0	4965.0
13	17	22	59	308	97.0	-193760.0	-7068.0	5210.0
13	17	22	59	309	98.0	-193436.0	-7079.0	4976.0
13	17	22	59	310	100.0	-192423.0	-7121.0	4761.0
13	17	22	59	310	101.0	-191795.0	-7143.0	4428.0
13	17	22	59	311	102.0	-191497.0	-7161.0	4396.0
13	17	22	59	311	103.0	-191539.0	-7166.0	4219.0
13	17	22	59	312	104.0	-191924.0	-7164.0	4076.0
13	17	22	59	312	105.0	-192591.0	-7174.0	3701.0
13	17	22	59	347	106.0	-193194.0	-7191.0	3698.0
13	17	22	59	348	107.0	-193752.0	-7184.0	4069.0
13	17	22	59	348	108.0	-194146.0	-7173.0	4278.0
13	17	22	59	349	109.0	-194650.0	-7132.0	3542.0
13	17	22	59	350	110.0	-195746.0	-7101.0	3523.0
13	17	22	59	350	111.0	-197444.0	-7064.0	3336.0
13	17	22	59	351	112.0	-199633.0	-7026.0	3300.0
13	17	22	59	351	113.0	-202144.0	-6987.0	3287.0
13	17	22	59	352	114.0	-204526.0	-6907.0	3338.0
13	17	22	59	353	115.0	-206297.0	-6841.0	2826.0
13	17	22	59	353	116.0	-207491.0	-6796.0	2538.0
13	17	22	59	354	117.0	-208375.0	-6725.0	2546.0
13	17	22	59	354	118.0	-209186.0	-6641.0	2740.0
13	17	22	59	355	119.0	-210123.0	-6555.0	2469.0
13	17	22	59	355	120.0	-210261.0	-6463.0	2374.0
13	17	22	59	356	122.0	-208696.0	-6264.0	2427.0
13	17	22	59	357	123.0	-207732.0	-6163.0	2271.0
13	17	22	59	357	124.0	-206892.0	-6034.0	1936.0
13	17	22	59	358	125.0	-206265.0	-5930.0	2131.0
13	17	22	59	358	126.0	-205366.0	-5809.0	1979.0
13	17	22	59	359	127.0	-204324.0	-5680.0	1613.0
13	17	22	59	392	128.0	-203570.0	-5553.0	1608.0
13	17	22	59	392	129.0	-203229.0	-5417.0	1604.0
13	17	22	59	393	130.0	-203016.0	-5276.0	1188.0
13	17	22	59	394	131.0	-202624.0	-5149.0	643.0
13	17	22	59	394	132.0	-202267.0	-5009.0	834.0
13	17	22	59	395	133.0	-201821.0	-4859.0	739.0
13	17	22	59	395	134.0	-201691.0	-4697.0	314.0
13	17	22	59	396	135.0	-201812.0	-4542.0	411.0
13	17	22	59	397	136.0	-202000.0	-4413.0	416.0
13	17	22	59	397	137.0	-202472.0	-4274.0	446.0
13	17	22	59	398	138.0	-203179.0	-4111.0	464.0
13	17	22	59	398	139.0	-204440.0	-3974.0	585.0
13	17	22	59	399	140.0	-206137.0	-3820.0	430.0
13	17	22	59	400	141.0	-207746.0	-3665.0	291.0
13	17	22	59	400	142.0	-209258.0	-3531.0	263.0
13	17	22	59	401	144.0	-212046.0	-3231.0	408.0
13	17	22	59	402	145.0	-213332.0	-3075.0	-183.0
13	17	22	59	402	146.0	-214299.0	-2929.0	-92.0
13	17	22	59	403	147.0	-215117.0	-2801.0	-388.0
13	17	22	59	403	148.0	-215689.0	-2650.0	-531.0
13	17	22	59	404	149.0	-215895.0	-2490.0	-734.0
13	17	22	59	404	150.0	-215429.0	-2361.0	-907.0
13	17	22	59	436	151.0	-214424.0	-2251.0	-1063.0
13	17	22	59	436	152.0	-213220.0	-2124.0	-1482.0
13	17	22	59	437	153.0	-212166.0	-1994.0	-1363.0
13	17	22	59	438	154.0	-211595.0	-1873.0	-860.0
13	17	22	59	438	155.0	-210964.0	-1741.0	-1208.0
13	17	22	59	439	156.0	-210147.0	-1617.0	-1151.0
13	17	22	59	439	157.0	-209072.0	-1509.0	-1217.0
13	17	22	59	440	158.0	-208501.0	-1381.0	-1342.0
13	17	22	59	441	159.0	-208496.0	-1282.0	-1239.0
13	17	22	59	441	160.0	-208431.0	-1182.0	-857.0
13	17	22	59	442	161.0	-208352.0	-1077.0	-695.0
13	17	22	59	442	162.0	-208407.0	-977.0	-586.0
13	17	22	59	443	163.0	-208572.0	-869.0	-521.0
13	17	22	59	444	164.0	-208646.0	-762.0	-332.0
13	17	22	59	444	165.0	-208551.0	-676.0	-301.0
13	17	22	59	445	167.0	-207419.0	-501.0	-82.0
13	17	22	59	445	168.0	-206968.0	-409.0	-22.0
13	17	22	59	446	169.0	-206574.0	-321.0	-234.0
13	17	22	59	447	170.0	-205689.0	-249.0	166.0
13	17	22	59	455	171.0	-204576.0	-189.0	681.0
13	17	22	59	455	172.0	-203154.0	-104.0	709.0
13	17	22	59	481	173.0	-201664.0	-14.0	1057.0
13	17	22	59	482	174.0	-200036.0	41.0	1260.0
13	17	22	59	483	175.0	-198268.0	89.0	1440.0
13	17	22	59	483	176.0	-196292.0	176.0	1363.0
13	17	22	59	484	177.0	-194767.0	239.0	1754.0
13	17	22	59	485	178.0	-193884.0	298.0	1841.0
13	17	22	59	485	179.0	-193601.0	371.0	2014.0
13	17	22	59	486	180.0	-193333.0	441.0	2456.0
13	17	22	59	486	181.0	-193390.0	511.0	2895.0
13	17	22	59	487	182.0	-193534.0	590.0	2847.0
13	17	22	59	488	183.0	-193872.0	644.0	3116.0
13	17	22	59	488	184.0	-194229.0	696.0	3103.0
13	17	22	59	489	185.0	-194233.0	758.0	3463.0
13	17	22	59	489	186.0	-193944.0	799.0	3904.0
13	17	22	59	490	187.0	-193724.0	851.0	4081.0
13	17	22	59	491	189.0	-194366.0	996.0	4386.0
13	17	22	59	491	190.0	-194867.0	1039.0	4887.0
13	17	22	59	492	191.0	-195317.0	1086.0	4839.0
13	17	22	59	492	192.0	-195785.0	1139.0	5233.0
13	17	22	59	493	193.0	-196324.0	1198.0	5921.0
13	17	22	59	494	194.0	-196687.0	1273.0	6036.0
13	17	22	59	494	195.0	-196648.0	1335.0	6076.0
13	17	22	59	526	196.0	-196547.0	1386.0	6229.0
13	17	22	59	527	197.0	-196639.0	1433.0	6928.0
13	17	22	59	528	198.0	-196838.0	1479.0	6808.0
13	17	22	59	528	199.0	-197068.0	1531.0	7444.0
13	17	22	59	529	200.0	-197190.0	1590.0	7664.0
13	17	22	59	530	201.0	-196779.0	1639.0	7536.0
13	17	22	59	530	202.0	-195792.0	1698.0	7866.0
13	17	22	59	531	203.0	-194281.0	1752.0	8181.0
13	17	22	59	531	204.0	-191792.0	1803.0	8071.0
13	17	22	59	532	205.0	-187914.0	1855.0	7843.0
13	17	22	59	533	206.0	-182099.0	1909.0	8364.0
13	17	22	59	533	207.0	-173939.0	1952.0	8562.0
13	17	22	59	534	208.0	-167850.0	1999.0	8180.0
13	17	22	59	535	209.0	-163143.0	2066.0	8333.0
13	17	22	59	535	210.0	-164022.0	2113.0	8738.0
13	17	22	59	536	212.0	-177463.0	2209.0	8473.0
13	17	22	59	536	213.0	-181899.0	2253.0	8545.0
13	17	22	59	537	214.0	-185120.0	2291.0	8983.0
13	17	22	59	538	215.0	-184217.0	2326.0	8783.0
13	17	22	59	538	216.0	-183307.0	2379.0	8662.0
13	17	22	59	539	217.0	-182066.0	2424.0	8560.0
13	17	22	59	540	218.0	-177155.0	2470.0	8293.0
13	17	22	59	580	219.0	-171656.0	2516.0	7917.0
13	17	22	59	581	220.0	-166565.0	2556.0	7729.0
13	17	22	59	582	221.0	-163681.0	2575.0	7286.0
13	17	22	59	582	222.0	-163186.0	2631.0	7112.0
13	17	22	59	583	223.0	-165764.0	2676.0	6699.0
13	17	22	59	583	224.0	-170087.0	2721.0	6789.0
13	17	22	59	584	225.0	-175262.0	2761.0	6989.0
13	17	22	59	585	226.0	-180934.0	2805.0	6836.0
13	17	22	59	585	227.0	-185537.0	2819.0	6942.0
13	17	22	59	586	228.0	-187396.0	2851.0	7147.0
13	17	22	59	586	229.0	-186836.0	2898.0	6975.0
13	17	22	59	587	230.0	-185012.0	2941.0	6318.0
13	17	22	59	587	231.0	-183115.0	2966.0	6526.0
13	17	22	59	588	232.0	-182266.0	2988.0	6498.0
13	17	22	59	589	233.0	-182669.0	3009.0	6804.0
13	17	22	59	589	234.0	-184306.0	3038.0	6766.0
13	17	22	59	590	235.0	-186649.0	3068.0	7089.0
13	17	22	59	591	236.0	-189022.0	3093.0	6704.0
13	17	22	59	592	237.0	-190955.0	3109.0	6227.0
13	17	22	59	592	238.0	-192697.0	3134.0	6505.0
13	17	22	59	593	239.0	-194461.0	3147.0	6359.0
13	17	22	59	594	240.0	-195979.0	3153.0	6346.0
13	17	22	59	616	241.0	-197347.0	3179.0	6749.0
13	17	22	59	617	242.0	-198446.0	3195.0	6882.0
13	17	22	59	618	243.0	-199518.0	3202.0	6515.0
13	17	22	59	619	244.0	-200661.0	3222.0	6659.0
13	17	22	59	619	245.0	-201327.0	3244.0	6528.0
13	17	22	59	620	246.0	-201721.0	3231.0	6711.0
13	17	22	59	621	247.0	-202080.0	3238.0	6608.0
13	17	22	59	621	248.0	-202757.0	3250.0	6568.0
13	17	22	59	622	249.0	-203711.0	3253.0	6570.0
13	17	22	59	623	250.0	-204550.0	3259.0	6455.0
13	17	22	59	623	251.0	-205514.0	3256.0	6785.0
13	17	22	59	624	252.0	-206594.0	3254.0	7098.0
13	17	22	59	624	253.0	-207624.0	3233.0	6884.0
13	17	22	59	625	254.0	-208299.0	3240.0	6598.0
13	17	22	59	626	255.0	-208092.0	3208.0	6479.0
13	17	22	59	626	1.0	-204932.0	3200.0	7077.0
13	17	22	59	627	2.0	-202991.0	3194.0	6868.0
13	17	22	59	627	3.0	-200736.0	3179.0	6792.0
13	17	22	59	636	4.0	-198451.0	3168.0	6850.0
13	17	22	59	637	5.0	-196483.0	3144.0	6866.0
13	17	22	59	637	6.0	-194953.0	3139.0	6859.0
13	17	22	59	662	7.0	-194054.0	3133.0	6988.0
13	17	22	59	663	8.0	-193730.0	3104.0	7168.0
13	17	22	59	663	9.0	-193667.0	3093.0	6964.0
13	17	22	59	664	10.0	-193625.0	3068.0	6531.0
13	17	22	59	665	11.0	-193635.0	3053.0	6743.0
13	17	22	59	666	12.0	-193873.0	3041.0	6920.0
13	17	22	59	666	13.0	-194555.0	3007.0	6888.0
13	17	22	59	667	14.0	-195267.0	2994.0	7236.0
13	17	22	59	668	15.0	-196158.0	2969.0	7437.0
13	17	22	59	668	16.0	-197342.0	2958.0	7143.0
13	17	22	59	669	17.0	-198647.0	2937.0	6884.0
13	17	22	59	669	18.0	-199829.0	2904.0	6913.0
13	17	22	59	670	19.0	-200611.0	2873.0	6879.0
13	17	22	59	671	20.0	-201124.0	2854.0	6734.0
13	17	22	59	671	21.0	-201899.0	2829.0	6928.0
13	17	22	59	672	23.0	-202751.0	2790.0	7311.0
13	17	22	59	673	24.0	-202349.0	2779.0	7677.0
13	17	22	59	673	25.0	-202067.0	2751.0	7804.0
13	17	22	59	674	26.0	-201641.0	2710.0	7716.0
13	17	22	59	675	27.0	-200847.0	2709.0	7621.0
13	17	22	59	675	28.0	-199942.0	2673.0	7686.0
13	17	22	59	676	29.0	-199226.0	2654.0	7126.0
13	17	22	59	706	30.0	-198584.0	2626.0	6961.0
13	17	22	59	707	31.0	-198187.0	2598.0	7335.0
13	17	22	59	707	32.0	-197980.0	2589.0	7228.0
13	17	22	59	708	33.0	-198112.0	2549.0	7104.0
13	17	22	59	709	34.0	-198495.0	2545.0	7168.0
13	17	22	59	709	35.0	-198968.0	2520.0	7055.0
13	17	22	59	710	36.0	-199410.0	2506.0	7292.0
13	17	22	59	710	37.0	-200114.0	2482.0	7269.0
13	17	22	59	711	38.0	-201308.0	2466.0	7264.0
13	17	22	59	712	39.0	-202499.0	2460.0	7259.0
13	17	22	59	712	40.0	-203805.0	2439.0	7535.0
13	17	22	59	713	41.0	-205271.0	2429.0	8071.0
13	17	22	59	713	42.0	-207542.0	2404.0	7868.0
13	17	22	59	714	43.0	-210599.0	2398.0	7514.0
13	17	22	59	715	44.0	-213831.0	2378.0	7238.0
13	17	22	59	716	46.0	-219481.0	2353.0	7519.0
13	17	22	59	717	47.0	-222202.0	2354.0	7589.0
13	17	22	59	717	48.0	-224634.0	2318.0	7554.0
13	17	22	59	718	49.0	-226452.0	2297.0	7629.0
13	17	22	59	718	50.0	-227692.0	2278.0	7601.0
13	17	22	59	719	51.0	-228559.0	2279.0	7423.0
13	17	22	59	751	52.0	-229248.0	2273.0	7288.0
13	17	22	59	752	53.0	-229455.0	2248.0	7337.0
13	17	22	59	752	54.0	-229114.0	2227.0	7512.0
13	17	22	59	753	55.0	-228246.0	2219.0	7407.0
13	17	22	59	754	56.0	-227131.0	2216.0	7462.0
13	17	22	59	755	57.0	-226499.0	2208.0	7594.0
13	17	22	59	755	58.0	-225717.0	2189.0	7084.0
13	17	22	59	756	59.0	-224867.0	2173.0	7153.0
13	17	22	59	757	60.0	-224165.0	2150.0	7283.0
13	17	22	59	757	61.0	-223407.0	2163.0	7003.0
13	17	22	59	758	62.0	-223001.0	2142.0	7042.0
13	17	22	59	758	63.0	-222670.0	2114.0	7402.0
13	17	22	59	759	64.0	-221503.0	2084.0	7390.0
13	17	22	59	760	65.0	-219949.0	2087.0	7445.0
13	17	22	59	760	66.0	-218354.0	2074.0	7419.0
13	17	22	59	761	68.0	-213452.0	2068.0	7602.0
13	17	22	59	762	69.0	-210191.0	2044.0	7486.0
13	17	22	59	762	70.0	-206544.0	2031.0	7359.0
13	17	22	59	763	71.0	-202246.0	1989.0	7479.0
13	17	22	59	763	72.0	-197895.0	1992.0	7439.0
13	17	22	59	764	73.0	-193621.0	1981.0	7420.0
13	17	22	59	798	74.0	-189403.0	1963.0	7474.0
13	17	22	59	799	75.0	-185084.0	1934.0	7913.0
13	17	22	59	800	76.0	-181137.0	1916.0	7972.0
13	17	22	59	801	77.0	-178187.0	1912.0	7926.0
13	17	22	59	801	78.0	-175825.0	1908.0	7963.0
13	17	22	59	802	79.0	-173484.0	1899.0	8152.0
13	17	22	59	802	80.0	-171166.0	1871.0	8130.0
13	17	22	59	803	81.0	-169154.0	1854.0	8398.0
13	17	22	59	804	82.0	-167311.0	1837.0	8530.0
13	17	22	59	804	83.0	-165327.0	1822.0	8274.0
13	17	22	59	805	84.0	-163117.0	1801.0	8111.0
13	17	22	59	806	85.0	-160898.0	1794.0	8502.0
13	17	22	59	807	86.0	-158881.0	1758.0	8624.0
13	17	22	59	807	87.0	-156646.0	1749.0	8648.0
13	17	22	59	808	88.0	-154018.0	1737.0	9034.0
13	17	22	59	809	90.0	-147211.0	1701.0	9087.0
13	17	22	59	809	91.0	-143487.0	1681.0	9076.0
13	17	22	59	810	92.0	-139812.0	1663.0	9398.0
13	17	22	59	811	93.0	-136195.0	1624.0	9417.0
13	17	22	59	811	94.0	-132746.0	1611.0	9243.0
13	17	22	59	812	95.0	-129494.0	1614.0	9173.0
13	17	22	59	812	96.0	-126758.0	1584.0	9361.0
13	17	22	59	842	97.0	-124262.0	1546.0	9162.0
13	17	22	59	845	98.0	-122049.0	1529.0	8666.0
13	17	22	59	846	99.0	-120141.0	1498.0	8726.0
13	17	22	59	846	100.0	-117926.0	1474.0	8844.0
13	17	22	59	847	101.0	-115774.0	1460.0	8677.0
13	17	22	59	848	102.0	-114282.0	1423.0	8476.0
13	17	22	59	848	103.0	-113324.0	1386.0	8643.0
13	17	22	59	849	104.0	-112934.0	1370.0	8451.0
13	17	22	59	850	105.0	-112591.0	1352.0	8158.0
13	17	22	59	850	106.0	-112727.0	1341.0	8168.0
13	17	22	59	851	107.0	-114407.0	1326.0	8249.0
13	17	22	59	851	108.0	-117591.0	1294.0	8382.0
13	17	22	59	852	109.0	-122034.0	1274.0	8664.0
13	17	22	59	853	110.0	-128169.0	1266.0	8470.0
13	17	22	59	853	111.0	-135649.0	1220.0	8634.0
13	17	22	59	854	113.0	-154907.0	1168.0	8371.0
13	17	22	59	854	114.0	-164059.0	1134.0	8688.0
13	17	22	59	855	115.0	-174522.0	1125.0	8737.0
13	17	22	59	856	116.0	-185437.0	1088.0	8369.0
13	17	22	59	856	117.0	-196089.0	1054.0	8359.0
13	17	22	59	857	118.0	-206667.0	1047.0	8563.0
13	17	22	59	886	119.0	-216297.0	1001.0	8658.0
13	17	22	59	887	120.0	-224017.0	961.0	8549.0
13	17	22	59	888	121.0	-230569.0	941.0	8919.0
13	17	22	59	889	122.0	-235556.0	906.0	8660.0
13	17	22	59	889	123.0	-238970.0	879.0	8670.0
13	17	22	59	890	124.0	-241753.0	856.0	9191.0
13	17	22	59	890	125.0	-243662.0	842.0	9058.0
13	17	22	59	891	126.0	-245278.0	807.0	8974.0
13	17	22	59	892	127.0	-246972.0	781.0	9240.0
13	17	22	59	893	128.0	-248094.0	770.0	9268.0
13	17	22	59	893	129.0	-248974.0	743.0	8989.0
13	17	22	59	894	130.0	-249477.0	728.0	8913.0
13	17	22	59	894	131.0	-249295.0	696.0	8839.0
13	17	22	59	895	132.0	-249602.0	658.0	8731.0
13	17	22	59	896	133.0	-249488.0	626.0	8571.0
13	17	22	59	897	135.0	-247629.0	581.0	8577.0
13	17	22	59	897	136.0	-246830.0	556.0	8743.0
13	17	22	59	898	137.0	-245530.0	516.0	9032.0
13	17	22	59	899	138.0	-244298.0	501.0	8686.0
13	17	22	59	899	139.0	-242654.0	480.0	8398.0
13	17	22	59	900	140.0	-240904.0	461.0	8303.0
13	17	22	59	900	141.0	-239382.0	431.0	8363.0
13	17	22	59	931	142.0	-237838.0	412.0	8331.0
13	17	22	59	932	143.0	-236518.0	385.0	8280.0
13	17	22	59	933	144.0	-236292.0	358.0	8449.0
13	17	22	59	934	145.0	-236729.0	328.0	8297.0
13	17	22	59	934	146.0	-237712.0	298.0	8469.0
13	17	22	59	935	147.0	-239403.0	273.0	8366.0
13	17	22	59	936	148.0	-241121.0	239.0	7816.0
13	17	22	59	936	149.0	-242485.0	196.0	8068.0
13	17	22	59	937	150.0	-243976.0	175.0	8558.0
13	17	22	59	938	151.0	-245317.0	149.0	8415.0
13	17	22	59	938	152.0	-246752.0	113.0	8679.0
13	17	22	59	939	153.0	-248089.0	91.0	9014.0
13	17	22	59	940	154.0	-248688.0	63.0	8809.0
13	17	22	59	940	155.0	-249014.0	53.0	8358.0
13	17	22	59	941	156.0	-249101.0	13.0	8438.0
13	17	22	59	942	158.0	-247068.0	-34.0	8329.0
13	17	22	59	942	159.0	-245582.0	-72.0	8227.0
13	17	22	59	943	160.0	-243167.0	-117.0	8536.0
13	17	22	59	944	161.0	-240695.0	-139.0	8288.0
13	17	22	59	944	162.0	-238320.0	-152.0	8624.0
13	17	22	59	945	163.0	-235630.0	-190.0	8939.0
13	17	22	59	977	164.0	-232961.0	-213.0	8989.0
13	17	22	59	978	165.0	-230171.0	-245.0	8742.0
13	17	22	59	979	166.0	-227523.0	-271.0	8436.0
13	17	22	59	979	167.0	-225739.0	-302.0	8623.0
13	17	22	59	980	168.0	-223821.0	-326.0	8469.0
13	17	22	59	981	169.0	-221399.0	-368.0	8807.0
13	17	22	59	982	170.0	-219289.0	-379.0	8843.0
13	17	22	59	982	171.0	-217010.0	-404.0	8868.0
13	17	22	59	983	172.0	-214820.0	-420.0	8384.0
13	17	22	59	984	173.0	-213064.0	-467.0	8524.0
13	17	22	59	985	174.0	-210784.0	-496.0	8524.0
13	17	22	59	985	175.0	-208073.0	-507.0	8526.0
13	17	22	59	986	176.0	-205856.0	-521.0	8898.0
13	17	22	59	987	177.0	-203467.0	-545.0	8570.0
13	17	22	59	987	178.0	-201028.0	-579.0	8852.0
13	17	22	59	988	180.0	-197792.0	-607.0	8790.0
13	17	22	59	989	181.0	-196929.0	-643.0	8854.0
13	17	22	59	989	182.0	-196936.0	-666.0	9076.0
13	17	22	59	990	183.0	-196846.0	-682.0	8804.0
13	17	22	59	990	184.0	-196922.0	-707.0	8761.0
13	17	22	59	991	185.0	-197700.0	-744.0	9103.0
13	17	22	59	992	186.0	-198824.0	-748.0	8776.0
13	17	23	0	21	187.0	-200188.0	-779.0	8484.0
13	17	23	0	22	188.0	-201697.0	-806.0	8828.0
13	17	23	0	23	189.0	-202656.0	-835.0	8883.0
13	17	23	0	24	190.0	-203801.0	-860.0	8531.0
13	17	23	0	24	191.0	-204974.0	-883.0	8851.0
13	17	23	0	25	192.0	-205806.0	-889.0	9086.0
13	17	23	0	26	193.0	-206492.0	-920.0	8851.0
13	17	23	0	27	194.0	-207017.0	-957.0	8680.0
13	17	23	0	27	195.0	-207709.0	-973.0	9054.0
13	17	23	0	28	196.0	-208818.0	-1016.0	8643.0
13	17	23	0	29	197.0	-209926.0	-1033.0	8445.0
13	17	23	0	29	198.0	-210580.0	-1049.0	8849.0
13	17	23	0	30	199.0	-210696.0	-1063.0	8953.0
13	17	23	0	31	200.0	-210294.0	-1094.0	8737.0
13	17	23	0	31	201.0	-209856.0	-1122.0	8376.0
13	17	23	0	32	203.0	-208903.0	-1192.0	8464.0
13	17	23	0	33	204.0	-208132.0	-1209.0	8339.0
13	17	23	0	33	205.0	-206935.0	-1241.0	7998.0
13	17	23	0	34	206.0	-205837.0	-1286.0	8264.0
13	17	23	0	35	207.0	-205075.0	-1286.0	8280.0
13	17	23	0	35	208.0	-204018.0	-1314.0	8355.0
13	17	23	0	65	209.0	-202683.0	-1367.0	8285.0
13	17	23	0	83	210.0	-201632.0	-1397.0	8253.0
13	17	23	0	84	211.0	-200622.0	-1415.0	8177.0
13	17	23	0	85	212.0	-199539.0	-1450.0	8113.0
13	17	23	0	85	213.0	-198602.0	-1472.0	8360.0
13	17	23	0	86	214.0	-197551.0	-1499.0	8465.0
13	17	23	0	87	215.0	-196649.0	-1549.0	8494.0
13	17	23	0	87	216.0	-195961.0	-1576.0	8331.0
13	17	23	0	88	217.0	-194886.0	-1588.0	8402.0
13	17	23	0	89	218.0	-194103.0	-1636.0	8398.0
13	17	23	0	89	219.0	-193842.0	-1666.0	8625.0
13	17	23	0	90	220.0	-193081.0	-1696.0	8909.0
13	17	23	0	91	221.0	-192849.0	-1732.0	9163.0
13	17	23	0	91	222.0	-194908.0	-1759.0	9218.0
13	17	23	0	92	223.0	-197782.0	-1774.0	9018.0
13	17	23	0	92	225.0	-202548.0	-1846.0	9699.0
13	17	23	0	93	226.0	-204160.0	-1877.0	9689.0
13	17	23	0	94	227.0	-205843.0	-1912.0	9705.0
13	17	23	0	94	228.0	-208111.0	-1936.0	9735.0
13	17	23	0	95	229.0	-209961.0	-1966.0	9780.0
13	17	23	0	95	230.0	-211663.0	-2016.0	9699.0
13	17	23	0	96	231.0	-213940.0	-2049.0	9721.0
13	17	23	0	111	232.0	-216147.0	-2069.0	9421.0
13	17	23	0	112	233.0	-218093.0	-2100.0	9365.0
13	17	23	0	113	234.0	-219464.0	-2138.0	9621.0
13	17	23	0	113	235.0	-219929.0	-2167.0	9491.0
13	17	23	0	114	236.0	-220586.0	-2202.0	9117.0
13	17	23	0	115	237.0	-221362.0	-2232.0	9256.0
13	17	23	0	133	238.0	-221118.0	-2246.0	9129.0
13	17	23	0	133	239.0	-220124.0	-2296.0	8948.0
13	17	23	0	134	240.0	-219071.0	-2314.0	9196.0
13	17	23	0	135	241.0	-217564.0	-2333.0	9119.0
13	17	23	0	135	242.0	-215972.0	-2367.0	8642.0
13	17	23	0	136	243.0	-214212.0	-2414.0	8578.0
13	17	23	0	136	244.0	-212029.0	-2437.0	8742.0
13	17	23	0	137	245.0	-209810.0	-2447.0	8912.0
13	17	23	0	137	246.0	-207996.0	-2486.0	9088.0
13	17	23	0	138	248.0	-204562.0	-2530.0	8840.0
13	17	23	0	138	249.0	-203327.0	-2571.0	9389.0
13	17	23	0	139	250.0	-202162.0	-2593.0	9223.0
13	17	23	0	140	251.0	-201060.0	-2637.0	9359.0
13	17	23	0	140	252.0	-200016.0	-2655.0	9786.0
13	17	23	0	141	253.0	-198696.0	-2697.0	9988.0
13	17	23	0	159	254.0	-197016.0	-2725.0	9569.0
13	17	23	0	165	255.0	-196724.0	-2766.0	9428.0
13	17	23	0	168	0.0	-198118.0	-2803.0	9489.0
13	17	23	0	170	1.0	-198965.0	-2826.0	9643.0
13	17	23	0	171	2.0	-199103.0	-2847.0	9644.0
13	17	23	0	171	3.0	-198945.0	-2879.0	9502.0
13	17	23	0	172	4.0	-198351.0	-2901.0	9460.0
13	17	23	0	173	5.0	-197918.0	-2928.0	9378.0
13	17	23	0	173	6.0	-198139.0	-2966.0	9849.0
13	17	23	0	202	7.0	-198966.0	-2977.0	9803.0
13	17	23	0	203	8.0	-199889.0	-3006.0	9197.0
13	17	23	0	203	9.0	-200595.0	-3029.0	9511.0
13	17	23	0	204	10.0	-201192.0	-3066.0	9776.0
13	17	23	0	204	11.0	-202512.0	-3076.0	9755.0
13	17	23	0	205	12.0	-202903.0	-3106.0	9561.0
13	17	23	0	206	14.0	-201764.0	-3164.0	10293.0
13	17	23	0	206	15.0	-202846.0	-3200.0	10144.0
13	17	23	0	207	16.0	-205016.0	-3243.0	9989.0
13	17	23	0	207	17.0	-207481.0	-3266.0	9814.0
13	17	23	0	208	18.0	-211634.0	-3277.0	9631.0
13	17	23	0	208	19.0	-216575.0	-3312.0	9829.0
13	17	23	0	209	20.0	-221695.0	-3331.0	10005.0
13	17	23	0	209	21.0	-227682.0	-3357.0	9895.0
13	17	23	0	217	22.0	-234401.0	-3391.0	10066.0
13	17	23	0	218	23.0	-240387.0	-3427.0	10156.0
13	17	23	0	219	37.0	-281487.0	-3858.0	6726.0
13	17	23	0	219	38.0	-280642.0	-3880.0	7868.0
13	17	23	0	220	39.0	-278808.0	-3910.0	10987.0
13	17	23	0	220	40.0	-276372.0	-3934.0	15259.0
13	17	23	0	221	41.0	-273990.0	-3945.0	21163.0
13	17	23	0	221	42.0	-271366.0	-3984.0	26259.0
13	17	23	0	246	43.0	-268818.0	-4026.0	31354.0
13	17	23	0	247	44.0	-266607.0	-4047.0	35100.0
13	17	23	0	248	45.0	-264422.0	-4076.0	36103.0
13	17	23	0	248	46.0	-261651.0	-4097.0	35230.0
13	17	23	0	249	47.0	-258452.0	-4136.0	33448.0
13	17	23	0	249	48.0	-255339.0	-4152.0	32781.0
13	17	23	0	250	49.0	-252270.0	-4191.0	32403.0
13	17	23	0	250	50.0	-248701.0	-4216.0	32316.0
13	17	23	0	251	51.0	-244244.0	-4239.0	31257.0
13	17	23	0	252	52.0	-239241.0	-4251.0	29551.0
13	17	23	0	252	53.0	-234242.0	-4281.0	27534.0
13	17	23	0	253	54.0	-229443.0	-4304.0	25096.0
13	17	23	0	253	55.0	-226106.0	-4329.0	23307.0
13	17	23	0	254	56.0	-225111.0	-4357.0	21436.0
13	17	23	0	254	57.0	-225297.0	-4384.0	19459.0
13	17	23	0	255	59.0	-227555.0	-4455.0	14042.0
13	17	23	0	256	60.0	-231514.0	-4466.0	12385.0
13	17	23	0	256	61.0	-236794.0	-4492.0	11032.0
13	17	23	0	257	62.0	-240285.0	-4528.0	10114.0
13	17	23	0	257	63.0	-237813.0	-4558.0	9516.0
13	17	23	0	265	64.0	-229033.0	-4562.0	9176.0
13	17	23	0	292	65.0	-212932.0	-4586.0	8941.0
13	17	23	0	293	66.0	-193972.0	-4637.0	8511.0
13	17	23	0	294	67.0	-175853.0	-4666.0	8758.0
13	17	23	0	294	68.0	-161191.0	-4694.0	8816.0
13	17	23	0	295	69.0	-153546.0	-4706.0	8361.0
13	17	23	0	295	70.0	-154923.0	-4735.0	8349.0
13	17	23	0	296	71.0	-166399.0	-4754.0	8518.0
13	17	23	0	297	72.0	-187044.0	-4775.0	8077.0
13	17	23	0	297	73.0	-212792.0	-4812.0	8135.0
13	17	23	0	298	74.0	-237829.0	-4846.0	8219.0
13	17	23	0	298	75.0	-256509.0	-4861.0	8033.0
13	17	23	0	299	76.0	-267540.0	-4891.0	7361.0
13	17	23	0	299	77.0	-268263.0	-4960.0	7764.0
13	17	23	0	300	78.0	-259787.0	-4992.0	8065.0
13	17	23	0	301	79.0	-244060.0	-4995.0	7900.0
13	17	23	0	301	81.0	-211471.0	-5057.0	7906.0
13	17	23	0	302	82.0	-199157.0	-5101.0	7697.0
13	17	23	0	302	83.0	-186611.0	-5107.0	7369.0
13	17	23	0	303	84.0	-176421.0	-5148.0	7559.0
13	17	23	0	303	85.0	-170874.0	-5174.0	7360.0
13	17	23	0	304	86.0	-172372.0	-5194.0	7129.0
13	17	23	0	305	87.0	-182039.0	-5222.0	7156.0
13	17	23	0	336	88.0	-198148.0	-5257.0	7455.0
13	17	23	0	337	89.0	-217016.0	-5290.0	7264.0
13	17	23	0	337	90.0	-236200.0	-5317.0	7401.0
13	17	23	0	338	91.0	-252655.0	-5337.0	7386.0
13	17	23	0	339	92.0	-264626.0	-5374.0	7466.0
13	17	23	0	339	93.0	-272799.0	-5415.0	7286.0
13	17	23	0	340	94.0	-277792.0	-5444.0	7008.0
13	17	23	0	341	95.0	-279357.0	-5473.0	7140.0
13	17	23	0	341	96.0	-277688.0	-5476.0	7238.0
13	17	23	0	342	97.0	-272962.0	-5502.0	7031.0
13	17	23	0	342	98.0	-266521.0	-5540.0	6998.0
13	17	23	0	343	99.0	-260014.0	-5559.0	7234.0
13	17	23	0	343	100.0	-254281.0	-5593.0	7502.0
13	17	23	0	344	101.0	-249435.0	-5619.0	7041.0
13	17	23	0	344	102.0	-244979.0	-5646.0	6761.0
13	17	23	0	345	104.0	-238981.0	-5687.0	6723.0
13	17	23	0	346	105.0	-238795.0	-5714.0	6721.0
13	17	23	0	346	106.0	-240445.0	-5752.0	6499.0
13	17	23	0	347	107.0	-241645.0	-5782.0	6585.0
13	17	23	0	347	108.0	-241213.0	-5826.0	6634.0
13	17	23	0	348	109.0	-239468.0	-5846.0	6829.0
13	17	23	0	381	110.0	-236877.0	-5877.0	6564.0
13	17	23	0	381	111.0	-233194.0	-5925.0	5976.0
13	17	23	0	382	112.0	-228515.0	-5959.0	6117.0
13	17	23	0	382	113.0	-223804.0	-5992.0	6114.0
13	17	23	0	383	114.0	-218901.0	-6021.0	6043.0
13	17	23	0	384	115.0	-214152.0	-6051.0	5772.0
13	17	23	0	384	116.0	-210489.0	-6103.0	5796.0
13	17	23	0	385	117.0	-208119.0	-6134.0	6092.0
13	17	23	0	385	118.0	-206761.0	-6182.0	5539.0
13	17	23	0	386	119.0	-206198.0	-6217.0	5296.0
13	17	23	0	386	120.0	-205107.0	-6254.0	5433.0
13	17	23	0	387	121.0	-204146.0	-6291.0	5462.0
13	17	23	0	388	122.0	-203039.0	-6325.0	5600.0
13	17	23	0	388	123.0	-200978.0	-6352.0	5276.0
13	17	23	0	389	124.0	-198026.0	-6408.0	4789.0
13	17	23	0	389	126.0	-191481.0	-6475.0	4667.0
13	17	23	0	390	127.0	-188844.0	-6526.0	4178.0
13	17	23	0	391	128.0	-185966.0	-6574.0	4040.0
13	17	23	0	392	129.0	-182799.0	-6587.0	4014.0
13	17	23	0	392	130.0	-179282.0	-6624.0	3909.0
13	17	23	0	393	131.0	-175280.0	-6683.0	3843.0
13	17	23	0	394	132.0	-171364.0	-6719.0	3766.0
13	17	23	0	426	133.0	-168034.0	-6744.0	3718.0
13	17	23	0	426	134.0	-167095.0	-6779.0	3414.0
13	17	23	0	427	135.0	-166364.0	-6828.0	3736.0
13	17	23	0	427	136.0	-165206.0	-6855.0	3573.0
13	17	23	0	428	137.0	-163289.0	-6892.0	3297.0
13	17	23	0	429	138.0	-161381.0	-6917.0	3603.0
13	17	23	0	429	139.0	-159279.0	-6936.0	3506.0
13	17	23	0	430	140.0	-159522.0	-6946.0	3269.0
13	17	23	0	431	141.0	-160814.0	-6972.0	3254.0
13	17	23	0	431	142.0	-161424.0	-6986.0	3439.0
13	17	23	0	432	143.0	-162154.0	-6997.0	3169.0
13	17	23	0	433	144.0	-162974.0	-6987.0	3186.0
13	17	23	0	434	145.0	-162777.0	-6992.0	3502.0
13	17	23	0	435	146.0	-161659.0	-6985.0	3612.0
13	17	23	0	435	147.0	-160489.0	-6974.0	3299.0
13	17	23	0	436	149.0	-157015.0	-6917.0	3336.0
13	17	23	0	437	150.0	-155559.0	-6890.0	3274.0
13	17	23	0	437	151.0	-155189.0	-6849.0	2958.0
13	17	23	0	438	152.0	-153654.0	-6812.0	2996.0
13	17	23	0	438	153.0	-151545.0	-6772.0	2933.0
13	17	23	0	439	154.0	-150427.0	-6708.0	2754.0
13	17	23	0	472	155.0	-149296.0	-6642.0	2902.0
13	17	23	0	472	156.0	-148648.0	-6598.0	3073.0
13	17	23	0	473	157.0	-147639.0	-6546.0	2481.0
13	17	23	0	474	158.0	-146570.0	-6451.0	2418.0
13	17	23	0	474	159.0	-144727.0	-6367.0	2198.0
13	17	23	0	475	160.0	-142372.0	-6265.0	2108.0
13	17	23	0	475	161.0	-140657.0	-6191.0	2077.0
13	17	23	0	476	162.0	-138676.0	-6099.0	1872.0
13	17	23	0	476	163.0	-136817.0	-6012.0	1844.0
13	17	23	0	477	164.0	-135919.0	-5892.0	1961.0
13	17	23	0	478	165.0	-135320.0	-5797.0	1786.0
13	17	23	0	478	166.0	-135485.0	-5690.0	1560.0
13	17	23	0	479	167.0	-136532.0	-5562.0	1615.0
13	17	23	0	479	168.0	-138532.0	-5456.0	1429.0
13	17	23	0	480	169.0	-143501.0	-5336.0	1536.0
13	17	23	0	481	171.0	-157202.0	-5097.0	1581.0
13	17	23	0	481	172.0	-162218.0	-4966.0	1093.0
13	17	23	0	482	173.0	-166967.0	-4858.0	923.0
13	17	23	0	482	174.0	-170764.0	-4724.0	832.0
13	17	23	0	483	175.0	-172791.0	-4602.0	358.0
13	17	23	0	483	176.0	-172624.0	-4484.0	216.0
13	17	23	0	484	177.0	-174666.0	-4372.0	276.0
13	17	23	0	517	178.0	-179234.0	-4254.0	-11.0
13	17	23	0	518	179.0	-179556.0	-4117.0	-79.0
13	17	23	0	519	180.0	-180514.0	-3991.0	-15.0
13	17	23	0	519	181.0	-181516.0	-3867.0	153.0
13	17	23	0	520	182.0	-182328.0	-3766.0	-63.0
13	17	23	0	521	183.0	-183019.0	-3642.0	-297.0
13	17	23	0	521	184.0	-185434.0	-3519.0	-17.0
13	17	23	0	522	185.0	-189361.0	-3402.0	-351.0
13	17	23	0	522	186.0	-192609.0	-3301.0	-484.0
13	17	23	0	523	187.0	-194268.0	-3194.0	-864.0
13	17	23	0	524	188.0	-195980.0	-3068.0	-791.0
13	17	23	0	524	189.0	-196840.0	-2941.0	-1086.0
13	17	23	0	525	190.0	-196121.0	-2849.0	-999.0
13	17	23	0	526	191.0	-194429.0	-2749.0	-1104.0
13	17	23	0	526	192.0	-191629.0	-2647.0	-962.0
13	17	23	0	527	194.0	-188161.0	-2448.0	-1231.0
13	17	23	0	527	195.0	-185751.0	-2365.0	-1261.0
13	17	23	0	528	196.0	-182855.0	-2274.0	-1186.0
13	17	23	0	528	197.0	-180167.0	-2173.0	-1293.0
13	17	23	0	529	198.0	-175792.0	-2076.0	-1609.0
13	17	23	0	530	199.0	-172803.0	-1997.0	-1459.0
13	17	23	0	561	200.0	-172196.0	-1922.0	-1141.0
13	17	23	0	562	201.0	-172132.0	-1837.0	-1247.0
13	17	23	0	563	202.0	-170936.0	-1745.0	-1172.0
13	17	23	0	563	203.0	-170116.0	-1683.0	-704.0
13	17	23	0	564	204.0	-170441.0	-1606.0	-836.0
13	17	23	0	565	205.0	-170549.0	-1527.0	-446.0
13	17	23	0	565	206.0	-170173.0	-1454.0	217.0
13	17	23	0	566	207.0	-170079.0	-1395.0	118.0
13	17	23	0	566	208.0	-170151.0	-1335.0	373.0
13	17	23	0	567	209.0	-170618.0	-1281.0	1029.0
13	17	23	0	568	210.0	-170676.0	-1204.0	1402.0
13	17	23	0	568	211.0	-171058.0	-1138.0	1765.0
13	17	23	0	569	212.0	-170761.0	-1091.0	2242.0
13	17	23	0	569	213.0	-169952.0	-1034.0	2495.0
13	17	23	0	570	214.0	-168852.0	-959.0	2716.0
13	17	23	0	570	216.0	-166276.0	-854.0	3560.0
13	17	23	0	571	217.0	-165272.0	-807.0	4045.0
13	17	23	0	572	218.0	-163767.0	-759.0	4439.0
13	17	23	0	572	219.0	-162574.0	-730.0	4826.0
13	17	23	0	573	220.0	-162222.0	-676.0	5026.0
13	17	23	0	573	221.0	-161509.0	-629.0	5205.0
13	17	23	0	582	222.0	-160937.0	-576.0	5589.0
13	17	23	0	607	223.0	-161011.0	-531.0	6014.0
13	17	23	0	607	224.0	-160691.0	-482.0	6656.0
13	17	23	0	608	225.0	-161145.0	-437.0	6633.0
13	17	23	0	609	226.0	-161804.0	-389.0	7148.0
13	17	23	0	609	227.0	-161741.0	-349.0	7029.0
13	17	23	0	610	228.0	-161607.0	-318.0	7434.0
13	17	23	0	610	229.0	-161404.0	-265.0	7432.0
13	17	23	0	611	230.0	-160136.0	-231.0	7466.0
13	17	23	0	612	231.0	-158164.0	-182.0	8181.0
13	17	23	0	612	232.0	-156786.0	-131.0	8607.0
13	17	23	0	613	233.0	-156690.0	-102.0	8521.0
13	17	23	0	613	234.0	-156316.0	-66.0	8673.0
13	17	23	0	614	235.0	-157049.0	-19.0	9614.0
13	17	23	0	615	236.0	-158636.0	8.0	9742.0
13	17	23	0	615	237.0	-159836.0	53.0	9561.0
13	17	23	0	616	239.0	-160032.0	136.0	9701.0
13	17	23	0	617	240.0	-160562.0	149.0	9788.0
13	17	23	0	617	241.0	-159021.0	186.0	9891.0
13	17	23	0	618	242.0	-155306.0	240.0	9965.0
13	17	23	0	618	243.0	-147312.0	286.0	9856.0
13	17	23	0	619	244.0	-139869.0	315.0	10428.0
13	17	23	0	652	245.0	-132416.0	354.0	10529.0
13	17	23	0	653	246.0	-127486.0	405.0	10450.0
13	17	23	0	654	247.0	-129125.0	431.0	10305.0
13	17	23	0	654	248.0	-135498.0	475.0	10405.0
13	17	23	0	655	249.0	-143254.0	511.0	10478.0
13	17	23	0	656	250.0	-153237.0	543.0	10198.0
13	17	23	0	656	251.0	-160794.0	601.0	10524.0
13	17	23	0	657	252.0	-168211.0	636.0	10882.0
13	17	23	0	658	253.0	-177507.0	669.0	10818.0
13	17	23	0	658	254.0	-184119.0	713.0	11103.0
13	17	23	0	659	255.0	-187726.0	737.0	11507.0
13	17	23	0	659	0.0	-187620.0	778.0	11277.0
13	17	23	0	660	1.0	-185694.0	816.0	11125.0
13	17	23	0	661	2.0	-185043.0	848.0	11084.0
13	17	23	0	661	3.0	-185377.0	864.0	10893.0
13	17	23	0	662	5.0	-194627.0	920.0	10921.0
13	17	23	0	662	6.0	-203201.0	966.0	10879.0
13	17	23	0	663	7.0	-209951.0	1000.0	10599.0
13	17	23	0	663	8.0	-211557.0	1018.0	10526.0
13	17	23	0	664	9.0	-210541.0	1036.0	10376.0
13	17	23	0	665	10.0	-206266.0	1053.0	10336.0
13	17	23	0	696	11.0	-201287.0	1069.0	10761.0
13	17	23	0	697	12.0	-196482.0	1096.0	10864.0
13	17	23	0	698	13.0	-193756.0	1125.0	10441.0
13	17	23	0	698	14.0	-194389.0	1149.0	10300.0
13	17	23	0	699	15.0	-195914.0	1171.0	10241.0
13	17	23	0	700	16.0	-198387.0	1196.0	9918.0
13	17	23	0	700	17.0	-200771.0	1208.0	10141.0
13	17	23	0	701	18.0	-202937.0	1210.0	10099.0
13	17	23	0	702	19.0	-206373.0	1219.0	10307.0
13	17	23	0	702	20.0	-209474.0	1237.0	10709.0
13	17	23	0	703	21.0	-211512.0	1260.0	10591.0
13	17	23	0	703	22.0	-214250.0	1271.0	10191.0
13	17	23	0	704	23.0	-215999.0	1261.0	9986.0
13	17	23	0	705	24.0	-216503.0	1266.0	10218.0
13	17	23	0	705	25.0	-216278.0	1285.0	10316.0
13	17	23	0	706	27.0	-214411.0	1279.0	10609.0
13	17	23	0	707	28.0	-213200.0	1283.0	10411.0
13	17	23	0	707	29.0	-210777.0	1281.0	9984.0
13	17	23	0	708	30.0	-208638.0	1274.0	10033.0
13	17	23	0	708	31.0	-207475.0	1250.0	10312.0
13	17	23	0	709	32.0	-205871.0	1261.0	10336.0
13	17	23	0	709	33.0	-202659.0	1250.0	10123.0
13	17	23	0	741	34.0	-201356.0	1238.0	10319.0
13	17	23	0	742	35.0	-200514.0	1232.0	10223.0
13	17	23	0	742	36.0	-199129.0	1223.0	10104.0
13	17	23	0	743	37.0	-198455.0	1192.0	10079.0
13	17	23	0	744	38.0	-197710.0	1159.0	10526.0
13	17	23	0	745	39.0	-196412.0	1143.0	10474.0
13	17	23	0	745	40.0	-196176.0	1137.0	10633.0
13	17	23	0	746	41.0	-194443.0	1102.0	10505.0
13	17	23	0	746	42.0	-192875.0	1097.0	10397.0
13	17	23	0	747	43.0	-191628.0	1074.0	10596.0
13	17	23	0	748	44.0	-189006.0	1053.0	10385.0
13	17	23	0	749	45.0	-187397.0	1035.0	10340.0
13	17	23	0	749	46.0	-186157.0	1020.0	10843.0
13	17	23	0	750	47.0	-184707.0	991.0	11310.0
13	17	23	0	751	48.0	-184479.0	958.0	10805.0
13	17	23	0	751	50.0	-185968.0	922.0	11856.0
13	17	23	0	752	51.0	-186137.0	894.0	11433.0
13	17	23	0	752	52.0	-186496.0	873.0	11344.0
13	17	23	0	753	53.0	-186368.0	843.0	11772.0
13	17	23	0	753	54.0	-186372.0	813.0	11732.0
13	17	23	0	754	55.0	-186228.0	773.0	11659.0
13	17	23	0	787	56.0	-185342.0	734.0	11826.0
13	17	23	0	787	57.0	-184716.0	702.0	11953.0
13	17	23	0	788	58.0	-184716.0	688.0	11438.0
13	17	23	0	789	59.0	-183596.0	642.0	10930.0
13	17	23	0	789	60.0	-182826.0	606.0	11309.0
13	17	23	0	790	61.0	-183351.0	582.0	10869.0
13	17	23	0	791	62.0	-184666.0	577.0	10644.0
13	17	23	0	791	63.0	-186452.0	556.0	11137.0
13	17	23	0	792	64.0	-189030.0	518.0	10704.0
13	17	23	0	793	65.0	-193511.0	494.0	10711.0
13	17	23	0	793	66.0	-198901.0	486.0	10797.0
13	17	23	0	794	67.0	-203958.0	464.0	11059.0
13	17	23	0	794	68.0	-208556.0	423.0	10796.0
13	17	23	0	795	69.0	-211581.0	388.0	10654.0
13	17	23	0	796	70.0	-213660.0	373.0	10890.0
13	17	23	0	796	72.0	-213310.0	341.0	10833.0
13	17	23	0	797	73.0	-213207.0	319.0	10509.0
13	17	23	0	797	74.0	-212727.0	286.0	10847.0
13	17	23	0	798	75.0	-212279.0	268.0	10572.0
13	17	23	0	799	76.0	-213326.0	234.0	10425.0
13	17	23	0	799	77.0	-213765.0	209.0	10166.0
13	17	23	0	800	78.0	-213429.0	176.0	10147.0
13	17	23	0	833	79.0	-214010.0	194.0	10263.0
13	17	23	0	834	80.0	-215384.0	170.0	9948.0
13	17	23	0	835	81.0	-216041.0	145.0	9694.0
13	17	23	0	835	82.0	-216477.0	137.0	10019.0
13	17	23	0	836	83.0	-215478.0	131.0	9952.0
13	17	23	0	836	84.0	-213966.0	103.0	9709.0
13	17	23	0	837	85.0	-212755.0	88.0	9928.0
13	17	23	0	838	86.0	-212009.0	73.0	10124.0
13	17	23	0	838	87.0	-211556.0	54.0	9749.0
13	17	23	0	839	88.0	-210834.0	29.0	9880.0
13	17	23	0	840	89.0	-209783.0	23.0	10124.0
13	17	23	0	840	90.0	-207849.0	23.0	9388.0
13	17	23	0	841	91.0	-206031.0	-9.0	8952.0
13	17	23	0	841	92.0	-204534.0	-25.0	9096.0
13	17	23	0	842	93.0	-204537.0	-35.0	8858.0
13	17	23	0	843	95.0	-205608.0	-49.0	8750.0
13	17	23	0	843	96.0	-205581.0	-61.0	8745.0
13	17	23	0	844	97.0	-206326.0	-96.0	8643.0
13	17	23	0	844	98.0	-207231.0	-105.0	8453.0
13	17	23	0	845	99.0	-207222.0	-108.0	8577.0
13	17	23	0	846	100.0	-206865.0	-136.0	8346.0
13	17	23	0	876	101.0	-205504.0	-147.0	8150.0
13	17	23	0	877	102.0	-203487.0	-165.0	8023.0
13	17	23	0	878	103.0	-202078.0	-173.0	7926.0
13	17	23	0	879	104.0	-202331.0	-180.0	7969.0
13	17	23	0	879	105.0	-201661.0	-209.0	8321.0
13	17	23	0	880	106.0	-201059.0	-219.0	8501.0
13	17	23	0	881	107.0	-200247.0	-215.0	7804.0
13	17	23	0	881	108.0	-198561.0	-244.0	7780.0
13	17	23	0	882	109.0	-195626.0	-254.0	8187.0
13	17	23	0	883	110.0	-193902.0	-268.0	8073.0
13	17	23	0	883	111.0	-191733.0	-279.0	8037.0
13	17	23	0	884	112.0	-189105.0	-282.0	7851.0
13	17	23	0	885	113.0	-187903.0	-302.0	7737.0
13	17	23	0	885	114.0	-186377.0	-312.0	7669.0
13	17	23	0	886	115.0	-184929.0	-326.0	7681.0
13	17	23	0	886	117.0	-181710.0	-362.0	7822.0
13	17	23	0	887	118.0	-180869.0	-378.0	7902.0
13	17	23	0	888	119.0	-180227.0	-395.0	7765.0
13	17	23	0	888	120.0	-178982.0	-404.0	7892.0
13	17	23	0	889	121.0	-176903.0	-421.0	7957.0
13	17	23	0	890	122.0	-174730.0	-441.0	7956.0
13	17	23	0	890	123.0	-174107.0	-451.0	8269.0
13	17	23	0	921	124.0	-174527.0	-473.0	8271.0
13	17	23	0	922	125.0	-176005.0	-482.0	8249.0
13	17	23	0	923	126.0	-177347.0	-526.0	8200.0
13	17	23	0	924	127.0	-177888.0	-541.0	8564.0
13	17	23	0	925	128.0	-179200.0	-542.0	8728.0
13	17	23	0	925	129.0	-179961.0	-559.0	8369.0
13	17	23	0	926	130.0	-179602.0	-585.0	8416.0
13	17	23	0	927	131.0	-179281.0	-587.0	8473.0
13	17	23	0	927	132.0	-178419.0	-607.0	7983.0
13	17	23	0	928	133.0	-177609.0	-634.0	8126.0
13	17	23	0	929	134.0	-177309.0	-660.0	8166.0
13	17	23	0	929	135.0	-176366.0	-679.0	8365.0
13	17	23	0	930	136.0	-175476.0	-688.0	7964.0
13	17	23	0	931	137.0	-176416.0	-702.0	8010.0
13	17	23	0	931	138.0	-177275.0	-731.0	7825.0
13	17	23	0	932	140.0	-177162.0	-785.0	8025.0
13	17	23	0	933	141.0	-177416.0	-809.0	7942.0
13	17	23	0	934	142.0	-177726.0	-840.0	7767.0
13	17	23	0	934	143.0	-177831.0	-856.0	7961.0
13	17	23	0	935	144.0	-176862.0	-878.0	8031.0
13	17	23	0	935	145.0	-174839.0	-899.0	7923.0
13	17	23	0	967	146.0	-173328.0	-913.0	7983.0
13	17	23	0	968	147.0	-173699.0	-942.0	8126.0
13	17	23	0	969	148.0	-174736.0	-954.0	7957.0
13	17	23	0	970	149.0	-176032.0	-966.0	7908.0
13	17	23	0	970	150.0	-176022.0	-1001.0	7735.0
13	17	23	0	971	151.0	-177906.0	-1029.0	7834.0
13	17	23	0	972	152.0	-179810.0	-1047.0	7866.0
13	17	23	0	972	153.0	-180234.0	-1078.0	8182.0
13	17	23	0	973	154.0	-181649.0	-1097.0	7973.0
13	17	23	0	974	155.0	-182358.0	-1127.0	7859.0
13	17	23	0	974	156.0	-182218.0	-1139.0	8205.0
13	17	23	0	975	157.0	-182419.0	-1163.0	7714.0
13	17	23	0	975	158.0	-181761.0	-1200.0	7636.0
13	17	23	0	976	159.0	-181679.0	-1207.0	8078.0
13	17	23	0	977	160.0	-182037.0	-1232.0	8232.0
13	17	23	0	977	162.0	-181944.0	-1282.0	7894.0
13	17	23	0	978	163.0	-184261.0	-1302.0	7852.0
13	17	23	0	978	164.0	-188447.0	-1326.0	7669.0
13	17	23	0	979	165.0	-191708.0	-1359.0	7991.0
13	17	23	0	980	166.0	-193691.0	-1392.0	8239.0
13	17	23	0	980	167.0	-195446.0	-1407.0	8173.0
13	17	23	0	981	168.0	-196522.0	-1431.0	8439.0
13	17	23	1	12	169.0	-196898.0	-1444.0	8859.0
13	17	23	1	12	170.0	-196611.0	-1496.0	9001.0
13	17	23	1	13	171.0	-195598.0	-1513.0	8905.0
13	17	23	1	14	172.0	-194502.0	-1535.0	8723.0
13	17	23	1	14	173.0	-192486.0	-1548.0	8993.0
13	17	23	1	26	174.0	-191844.0	-1585.0	9088.0
13	17	23	1	26	175.0	-190489.0	-1601.0	8864.0
13	17	23	1	27	176.0	-189493.0	-1638.0	9216.0
13	17	23	1	28	177.0	-188709.0	-1689.0	9409.0
13	17	23	1	28	178.0	-188639.0	-1677.0	9272.0
13	17	23	1	29	179.0	-189372.0	-1697.0	9384.0
13	17	23	1	57	180.0	-190389.0	-1718.0	9258.0
13	17	23	1	102	181.0	-190721.0	-1760.0	9090.0
13	17	23	1	103	182.0	-191287.0	-1765.0	9212.0
13	17	23	1	104	185.0	-194051.0	-1837.0	9386.0
13	17	23	1	105	186.0	-193661.0	-1865.0	9089.0
13	17	23	1	105	187.0	-193116.0	-1884.0	8972.0
13	17	23	1	106	188.0	-192356.0	-1912.0	9297.0
13	17	23	1	107	189.0	-192039.0	-1950.0	9024.0
13	17	23	1	107	190.0	-191434.0	-1981.0	8988.0
13	17	23	1	108	191.0	-190801.0	-2011.0	8988.0
13	17	23	1	109	192.0	-191504.0	-2037.0	9367.0
13	17	23	1	109	193.0	-193703.0	-2051.0	9165.0
13	17	23	1	110	194.0	-195671.0	-2069.0	9184.0
13	17	23	1	111	195.0	-197079.0	-2106.0	9364.0
13	17	23	1	111	196.0	-197871.0	-2141.0	9594.0
13	17	23	1	112	207.0	-196484.0	-2432.0	10758.0
13	17	23	1	112	230.0	-205927.0	-2993.0	9874.0
13	17	23	1	113	231.0	-206351.0	-3027.0	9652.0
13	17	23	1	114	232.0	-206661.0	-3062.0	9554.0
13	17	23	1	114	233.0	-206518.0	-3075.0	9733.0
13	17	23	1	115	234.0	-206589.0	-3080.0	10065.0
13	17	23	1	115	235.0	-205992.0	-3108.0	9847.0
13	17	23	1	147	236.0	-205178.0	-3130.0	9873.0
13	17	23	1	148	237.0	-204321.0	-3154.0	10605.0
13	17	23	1	149	238.0	-202757.0	-3187.0	10472.0
13	17	23	1	150	239.0	-201938.0	-3212.0	10459.0
13	17	23	1	150	240.0	-201204.0	-3240.0	10341.0
13	17	23	1	151	241.0	-200307.0	-3267.0	10631.0
13	17	23	1	151	242.0	-199861.0	-3291.0	10826.0
13	17	23	1	152	243.0	-198962.0	-3296.0	10273.0
13	17	23	1	153	244.0	-199067.0	-3309.0	9820.0
13	17	23	1	153	245.0	-199229.0	-3349.0	9716.0
13	17	23	1	154	246.0	-199772.0	-3385.0	9970.0
13	17	23	1	155	247.0	-199330.0	-3414.0	9936.0
13	17	23	1	155	248.0	-198456.0	-3439.0	9424.0
13	17	23	1	156	249.0	-198166.0	-3467.0	9509.0
13	17	23	1	157	250.0	-196953.0	-3471.0	9684.0
13	17	23	1	157	252.0	-194258.0	-3527.0	10350.0
13	17	23	1	158	253.0	-193458.0	-3540.0	10342.0
13	17	23	1	159	254.0	-192100.0	-3566.0	10166.0
13	17	23	1	159	255.0	-191194.0	-3597.0	10056.0
13	17	23	1	160	0.0	-190355.0	-3623.0	10293.0
13	17	23	1	160	1.0	-190293.0	-3661.0	10184.0
13	17	23	1	192	2.0	-191533.0	-3654.0	9953.0
13	17	23	1	192	3.0	-193136.0	-3689.0	10526.0
13	17	23	1	194	4.0	-193936.0	-3733.0	10779.0
13	17	23	1	195	5.0	-195291.0	-3759.0	10265.0
13	17	23	1	195	6.0	-196124.0	-3763.0	10409.0
13	17	23	1	196	7.0	-197070.0	-3784.0	10625.0
13	17	23	1	197	8.0	-197589.0	-3817.0	10593.0
13	17	23	1	197	9.0	-196699.0	-3834.0	10411.0
13	17	23	1	198	10.0	-195504.0	-3862.0	10864.0
13	17	23	1	199	11.0	-194424.0	-3892.0	10766.0
13	17	23	1	199	12.0	-193329.0	-3921.0	10811.0
13	17	23	1	200	13.0	-192588.0	-3930.0	10971.0
13	17	23	1	201	14.0	-191312.0	-3942.0	11013.0
13	17	23	1	201	15.0	-189501.0	-3956.0	10876.0
13	17	23	1	202	16.0	-188439.0	-3979.0	11236.0
13	17	23	1	202	18.0	-185882.0	-4051.0	10866.0
13	17	23	1	203	19.0	-185548.0	-4075.0	10143.0
13	17	23	1	204	20.0	-185610.0	-4100.0	9473.0
13	17	23	1	204	21.0	-185229.0	-4127.0	7668.0
13	17	23	1	205	22.0	-184987.0	-4157.0	5866.0
13	17	23	1	205	23.0	-184919.0	-4182.0	5298.0
13	17	23	1	206	24.0	-185710.0	-4198.0	5462.0
13	17	23	1	237	25.0	-186575.0	-4217.0	6996.0
13	17	23	1	238	26.0	-186802.0	-4236.0	9883.0
13	17	23	1	239	27.0	-186912.0	-4277.0	14046.0
13	17	23	1	239	28.0	-186943.0	-4297.0	18637.0
13	17	23	1	240	29.0	-185791.0	-4320.0	22955.0
13	17	23	1	241	30.0	-185725.0	-4350.0	26071.0
13	17	23	1	242	31.0	-188217.0	-4362.0	27830.0
13	17	23	1	242	32.0	-191947.0	-4378.0	26986.0
13	17	23	1	243	33.0	-195796.0	-4401.0	25451.0
13	17	23	1	244	34.0	-200062.0	-4430.0	25873.0
13	17	23	1	244	35.0	-203256.0	-4454.0	26949.0
13	17	23	1	245	36.0	-206548.0	-4474.0	27268.0
13	17	23	1	246	37.0	-209667.0	-4502.0	27016.0
13	17	23	1	246	38.0	-212301.0	-4514.0	25689.0
13	17	23	1	247	39.0	-214096.0	-4522.0	23424.0
13	17	23	1	248	41.0	-217110.0	-4578.0	21079.0
13	17	23	1	248	42.0	-219372.0	-4614.0	20116.0
13	17	23	1	249	43.0	-222644.0	-4636.0	18723.0
13	17	23	1	250	44.0	-226158.0	-4646.0	16925.0
13	17	23	1	250	45.0	-229749.0	-4678.0	15433.0
13	17	23	1	252	46.0	-233441.0	-4681.0	14123.0
13	17	23	1	282	47.0	-236014.0	-4704.0	12940.0
13	17	23	1	283	48.0	-237079.0	-4712.0	12034.0
13	17	23	1	283	49.0	-236383.0	-4722.0	11194.0
13	17	23	1	284	50.0	-232897.0	-4743.0	10536.0
13	17	23	1	285	51.0	-225537.0	-4770.0	10465.0
13	17	23	1	285	52.0	-212819.0	-4791.0	10615.0
13	17	23	1	286	53.0	-197875.0	-4796.0	10179.0
13	17	23	1	286	54.0	-182477.0	-4811.0	9920.0
13	17	23	1	287	55.0	-167654.0	-4847.0	10073.0
13	17	23	1	287	56.0	-155940.0	-4841.0	10093.0
13	17	23	1	288	57.0	-151326.0	-4850.0	9936.0
13	17	23	1	289	58.0	-153246.0	-4878.0	9855.0
13	17	23	1	289	59.0	-160714.0	-4904.0	10126.0
13	17	23	1	290	60.0	-171192.0	-4908.0	9913.0
13	17	23	1	290	61.0	-182316.0	-4920.0	9234.0
13	17	23	1	291	63.0	-198905.0	-4946.0	9427.0
13	17	23	1	291	64.0	-203339.0	-4970.0	9791.0
13	17	23	1	292	65.0	-204774.0	-4995.0	9864.0
13	17	23	1	292	66.0	-202487.0	-4992.0	9963.0
13	17	23	1	293	67.0	-196070.0	-5004.0	10151.0
13	17	23	1	294	68.0	-186215.0	-5035.0	9933.0
13	17	23	1	294	69.0	-175974.0	-5062.0	9986.0
13	17	23	1	327	70.0	-166626.0	-5068.0	10069.0
13	17	23	1	328	71.0	-158459.0	-5092.0	10146.0
13	17	23	1	329	72.0	-152529.0	-5100.0	9787.0
13	17	23	1	329	73.0	-149501.0	-5122.0	9721.0
13	17	23	1	330	74.0	-149607.0	-5156.0	10218.0
13	17	23	1	331	75.0	-153667.0	-5172.0	10239.0
13	17	23	1	331	76.0	-161452.0	-5180.0	9994.0
13	17	23	1	332	77.0	-171175.0	-5191.0	9886.0
13	17	23	1	332	78.0	-180567.0	-5212.0	9971.0
13	17	23	1	333	79.0	-188329.0	-5234.0	9748.0
13	17	23	1	334	80.0	-192934.0	-5251.0	9774.0
13	17	23	1	334	81.0	-194003.0	-5259.0	10085.0
13	17	23	1	335	82.0	-192192.0	-5282.0	9638.0
13	17	23	1	335	83.0	-188382.0	-5304.0	9793.0
13	17	23	1	336	84.0	-183661.0	-5311.0	10086.0
13	17	23	1	336	86.0	-176242.0	-5347.0	9527.0
13	17	23	1	337	87.0	-175384.0	-5364.0	9584.0
13	17	23	1	338	88.0	-176557.0	-5387.0	9816.0
13	17	23	1	338	89.0	-178317.0	-5399.0	9479.0
13	17	23	1	339	90.0	-180137.0	-5416.0	9285.0
13	17	23	1	339	91.0	-181542.0	-5444.0	9169.0
13	17	23	1	371	92.0	-181949.0	-5464.0	9085.0
13	17	23	1	372	93.0	-181082.0	-5494.0	9042.0
13	17	23	1	373	94.0	-179485.0	-5514.0	9079.0
13	17	23	1	373	95.0	-177664.0	-5534.0	8951.0
13	17	23	1	374	96.0	-176131.0	-5545.0	8492.0
13	17	23	1	374	97.0	-174667.0	-5572.0	8206.0
13	17	23	1	375	98.0	-172874.0	-5594.0	8039.0
13	17	23	1	375	99.0	-171161.0	-5616.0	8226.0
13	17	23	1	376	100.0	-169730.0	-5642.0	7898.0
13	17	23	1	377	101.0	-168439.0	-5671.0	8082.0
13	17	23	1	377	102.0	-167364.0	-5692.0	8391.0
13	17	23	1	378	103.0	-166299.0	-5707.0	8509.0
13	17	23	1	378	104.0	-164916.0	-5716.0	8546.0
13	17	23	1	379	105.0	-163588.0	-5731.0	8168.0
13	17	23	1	379	106.0	-162842.0	-5756.0	8279.0
13	17	23	1	380	108.0	-162310.0	-5804.0	8163.0
13	17	23	1	381	109.0	-162797.0	-5818.0	8375.0
13	17	23	1	381	110.0	-164324.0	-5846.0	8283.0
13	17	23	1	382	111.0	-167157.0	-5870.0	8074.0
13	17	23	1	383	112.0	-170886.0	-5919.0	8320.0
13	17	23	1	391	113.0	-174726.0	-5921.0	8376.0
13	17	23	1	392	114.0	-178395.0	-5929.0	8148.0
13	17	23	1	433	115.0	-181569.0	-5962.0	7931.0
13	17	23	1	458	116.0	-184232.0	-5977.0	8353.0
13	17	23	1	458	117.0	-186481.0	-5988.0	8342.0
13	17	23	1	459	118.0	-187891.0	-6020.0	7915.0
13	17	23	1	459	119.0	-187867.0	-6038.0	7989.0
13	17	23	1	460	120.0	-186902.0	-6069.0	8137.0
13	17	23	1	461	121.0	-185729.0	-6089.0	7852.0
13	17	23	1	461	122.0	-184638.0	-6101.0	7896.0
13	17	23	1	462	123.0	-183285.0	-6107.0	7809.0
13	17	23	1	462	124.0	-181608.0	-6130.0	7305.0
13	17	23	1	463	125.0	-179948.0	-6161.0	7471.0
13	17	23	1	463	126.0	-178599.0	-6174.0	7654.0
13	17	23	1	464	127.0	-177804.0	-6157.0	7919.0
13	17	23	1	464	128.0	-176992.0	-6179.0	7813.0
13	17	23	1	465	129.0	-176192.0	-6197.0	7749.0
13	17	23	1	465	138.0	-178031.0	-6072.0	7211.0
13	17	23	1	466	146.0	-167648.0	-5664.0	6740.0
13	17	23	1	466	147.0	-166361.0	-5594.0	6243.0
13	17	23	1	467	148.0	-165182.0	-5518.0	6089.0
13	17	23	1	467	149.0	-164064.0	-5430.0	6225.0
13	17	23	1	468	150.0	-162900.0	-5339.0	6261.0
13	17	23	1	469	151.0	-162011.0	-5249.0	6086.0
13	17	23	1	469	152.0	-161938.0	-5141.0	6270.0
13	17	23	1	470	153.0	-162016.0	-5049.0	5971.0
13	17	23	1	482	154.0	-162156.0	-4939.0	5760.0
13	17	23	1	482	155.0	-162741.0	-4834.0	6003.0
13	17	23	1	483	156.0	-163738.0	-4736.0	6012.0
13	17	23	1	483	157.0	-164838.0	-4604.0	5302.0
13	17	23	1	484	158.0	-165833.0	-4509.0	5656.0
13	17	23	1	485	159.0	-166215.0	-4416.0	5313.0
13	17	23	1	485	160.0	-166073.0	-4302.0	5223.0
13	17	23	1	486	161.0	-165878.0	-4162.0	5316.0
13	17	23	1	486	162.0	-165254.0	-4041.0	5413.0
13	17	23	1	505	163.0	-164379.0	-3929.0	5452.0
13	17	23	1	506	164.0	-163148.0	-3814.0	5509.0
13	17	23	1	507	165.0	-162071.0	-3692.0	5489.0
13	17	23	1	507	166.0	-161378.0	-3581.0	5504.0
13	17	23	1	508	167.0	-160255.0	-3442.0	5723.0
13	17	23	1	508	168.0	-159034.0	-3324.0	5974.0
13	17	23	1	509	169.0	-158029.0	-3210.0	5848.0
13	17	23	1	509	170.0	-157270.0	-3110.0	5636.0
13	17	23	1	510	171.0	-157132.0	-2981.0	5922.0
13	17	23	1	510	172.0	-157641.0	-2865.0	5750.0
13	17	23	1	511	173.0	-157812.0	-2755.0	5674.0
13	17	23	1	511	174.0	-157556.0	-2659.0	6102.0
13	17	23	1	512	175.0	-157111.0	-2536.0	5923.0
13	17	23	1	513	176.0	-156397.0	-2414.0	5844.0
13	17	23	1	528	177.0	-156066.0	-2297.0	6195.0
13	17	23	1	529	178.0	-156536.0	-2186.0	5888.0
13	17	23	1	529	179.0	-157165.0	-2102.0	5460.0
13	17	23	1	530	180.0	-157650.0	-2021.0	5756.0
13	17	23	1	531	181.0	-158130.0	-1912.0	5707.0
13	17	23	1	531	182.0	-158386.0	-1804.0	5647.0
13	17	23	1	532	183.0	-158293.0	-1699.0	5718.0
13	17	23	1	532	184.0	-157754.0	-1603.0	5918.0
13	17	23	1	551	185.0	-156735.0	-1502.0	5649.0
13	17	23	1	551	186.0	-155844.0	-1409.0	5673.0
13	17	23	1	552	187.0	-155583.0	-1316.0	6004.0
13	17	23	1	553	188.0	-155484.0	-1242.0	6088.0
13	17	23	1	553	189.0	-155311.0	-1177.0	5878.0
13	17	23	1	554	190.0	-155479.0	-1087.0	6449.0
13	17	23	1	554	191.0	-156056.0	-1014.0	6444.0
13	17	23	1	555	192.0	-156966.0	-932.0	6403.0
13	17	23	1	555	193.0	-157985.0	-861.0	6682.0
13	17	23	1	556	194.0	-158822.0	-784.0	6984.0
13	17	23	1	557	195.0	-159751.0	-712.0	6934.0
13	17	23	1	557	196.0	-160669.0	-669.0	7087.0
13	17	23	1	558	197.0	-161572.0	-601.0	7608.0
13	17	23	1	558	198.0	-162558.0	-527.0	7879.0
13	17	23	1	559	199.0	-163394.0	-497.0	8236.0
13	17	23	1	575	200.0	-163997.0	-435.0	8758.0
13	17	23	1	576	201.0	-164506.0	-368.0	9363.0
13	17	23	1	576	202.0	-164991.0	-317.0	9521.0
13	17	23	1	577	203.0	-165083.0	-263.0	9609.0
13	17	23	1	577	204.0	-164564.0	-217.0	10027.0
13	17	23	1	578	205.0	-164312.0	-159.0	10331.0
13	17	23	1	578	206.0	-163661.0	-104.0	10152.0
13	17	23	1	598	207.0	-162767.0	-59.0	10378.0
13	17	23	1	598	208.0	-162287.0	-26.0	10940.0
13	17	23	1	599	209.0	-162216.0	23.0	11764.0
13	17	23	1	599	210.0	-162169.0	73.0	11797.0
13	17	23	1	600	211.0	-162210.0	103.0	11730.0
13	17	23	1	600	212.0	-162517.0	154.0	12153.0
13	17	23	1	601	213.0	-162330.0	197.0	11946.0
13	17	23	1	601	214.0	-161596.0	218.0	11961.0
13	17	23	1	602	215.0	-160594.0	261.0	12373.0
13	17	23	1	603	216.0	-158221.0	313.0	12518.0
13	17	23	1	603	217.0	-154316.0	354.0	12350.0
13	17	23	1	604	218.0	-150056.0	391.0	12623.0
13	17	23	1	604	219.0	-144749.0	436.0	13103.0
13	17	23	1	605	220.0	-140359.0	486.0	13278.0
13	17	23	1	605	221.0	-138767.0	525.0	13020.0
13	17	23	1	621	222.0	-139078.0	553.0	13154.0
13	17	23	1	621	223.0	-139816.0	586.0	13344.0
13	17	23	1	622	224.0	-140746.0	634.0	13282.0
13	17	23	1	622	225.0	-141648.0	674.0	13741.0
13	17	23	1	623	226.0	-144141.0	722.0	13915.0
13	17	23	1	623	227.0	-147540.0	754.0	13623.0
13	17	23	1	624	228.0	-147741.0	793.0	13704.0
13	17	23	1	625	229.0	-145389.0	836.0	13923.0
13	17	23	1	644	230.0	-141304.0	862.0	14306.0
13	17	23	1	644	231.0	-136114.0	921.0	13828.0
13	17	23	1	645	232.0	-132096.0	957.0	13724.0
13	17	23	1	645	233.0	-129641.0	975.0	14195.0
13	17	23	1	646	234.0	-128976.0	1026.0	13920.0
13	17	23	1	646	235.0	-130111.0	1049.0	13946.0
13	17	23	1	647	236.0	-131807.0	1086.0	14054.0
13	17	23	1	648	237.0	-132399.0	1124.0	13770.0
13	17	23	1	648	238.0	-131199.0	1148.0	13529.0
13	17	23	1	649	239.0	-128150.0	1185.0	13419.0
13	17	23	1	649	240.0	-123722.0	1243.0	13205.0
13	17	23	1	650	241.0	-119476.0	1273.0	13339.0
13	17	23	1	650	242.0	-117377.0	1306.0	13214.0
13	17	23	1	651	243.0	-117367.0	1354.0	13000.0
13	17	23	1	651	244.0	-118797.0	1373.0	13099.0
13	17	23	1	667	245.0	-121982.0	1399.0	13300.0
13	17	23	1	668	246.0	-125951.0	1427.0	13073.0
13	17	23	1	669	247.0	-129900.0	1447.0	12902.0
13	17	23	1	669	248.0	-134256.0	1481.0	12906.0
13	17	23	1	670	249.0	-138789.0	1505.0	12703.0
13	17	23	1	670	250.0	-143936.0	1529.0	12573.0
13	17	23	1	671	251.0	-152691.0	1558.0	13313.0
13	17	23	1	671	252.0	-165406.0	1583.0	13178.0
13	17	23	1	672	253.0	-178777.0	1574.0	12937.0
13	17	23	1	673	254.0	-191794.0	1604.0	12685.0
13	17	23	1	673	255.0	-203404.0	1631.0	12771.0
13	17	23	1	674	0.0	-213110.0	1628.0	12565.0
13	17	23	1	674	1.0	-220648.0	1644.0	12385.0
13	17	23	1	675	2.0	-225077.0	1671.0	12479.0
13	17	23	1	676	3.0	-227699.0	1671.0	12669.0
13	17	23	1	692	4.0	-229608.0	1696.0	12435.0
13	17	23	1	692	5.0	-231515.0	1696.0	12518.0
13	17	23	1	693	6.0	-233451.0	1687.0	12848.0
13	17	23	1	693	7.0	-235498.0	1698.0	12458.0
13	17	23	1	694	8.0	-237697.0	1704.0	12578.0
13	17	23	1	695	9.0	-239991.0	1716.0	12551.0
13	17	23	1	695	10.0	-241648.0	1701.0	12278.0
13	17	23	1	714	11.0	-243175.0	1696.0	11656.0
13	17	23	1	715	12.0	-244768.0	1709.0	11659.0
13	17	23	1	716	13.0	-246012.0	1702.0	12131.0
13	17	23	1	716	14.0	-246712.0	1690.0	11940.0
13	17	23	1	717	15.0	-247325.0	1668.0	11465.0
13	17	23	1	717	16.0	-248143.0	1668.0	11119.0
13	17	23	1	718	17.0	-249066.0	1658.0	10503.0
13	17	23	1	718	18.0	-249482.0	1639.0	10647.0
13	17	23	1	719	19.0	-249477.0	1626.0	10576.0
13	17	23	1	720	20.0	-249633.0	1608.0	10533.0
13	17	23	1	720	21.0	-250210.0	1586.0	10343.0
13	17	23	1	721	22.0	-250594.0	1566.0	10442.0
13	17	23	1	721	23.0	-250816.0	1560.0	10342.0
13	17	23	1	722	24.0	-250834.0	1535.0	10028.0
13	17	23	1	722	25.0	-250607.0	1526.0	9776.0
13	17	23	1	737	26.0	-249676.0	1509.0	9752.0
13	17	23	1	738	27.0	-248007.0	1492.0	9728.0
13	17	23	1	738	28.0	-245829.0	1476.0	9653.0
13	17	23	1	739	29.0	-243356.0	1454.0	9311.0
13	17	23	1	740	30.0	-240947.0	1424.0	9607.0
13	17	23	1	740	31.0	-238602.0	1418.0	9791.0
13	17	23	1	741	32.0	-236187.0	1408.0	9737.0
13	17	23	1	741	33.0	-233807.0	1406.0	9541.0
13	17	23	1	760	34.0	-231909.0	1371.0	9719.0
13	17	23	1	761	35.0	-230309.0	1341.0	9788.0
13	17	23	1	761	36.0	-228966.0	1305.0	9424.0
13	17	23	1	762	37.0	-227386.0	1285.0	9829.0
13	17	23	1	763	38.0	-225964.0	1276.0	9986.0
13	17	23	1	763	39.0	-225091.0	1268.0	10044.0
13	17	23	1	764	40.0	-224676.0	1254.0	10190.0
13	17	23	1	764	41.0	-224386.0	1223.0	9946.0
13	17	23	1	765	42.0	-224044.0	1213.0	9762.0
13	17	23	1	765	43.0	-223561.0	1189.0	9821.0
13	17	23	1	766	44.0	-223011.0	1164.0	10096.0
13	17	23	1	767	45.0	-223026.0	1136.0	10096.0
13	17	23	1	767	46.0	-223466.0	1134.0	10218.0
13	17	23	1	768	47.0	-224065.0	1139.0	10469.0
13	17	23	1	768	48.0	-224876.0	1114.0	10552.0
13	17	23	1	783	49.0	-225991.0	1088.0	10295.0
13	17	23	1	784	50.0	-227576.0	1078.0	10483.0
13	17	23	1	785	51.0	-229429.0	1070.0	10595.0
13	17	23	1	785	52.0	-231001.0	1057.0	10118.0
13	17	23	1	786	53.0	-231941.0	1031.0	10036.0
13	17	23	1	786	54.0	-232296.0	1042.0	9708.0
13	17	23	1	787	55.0	-233174.0	1037.0	9886.0
13	17	23	1	808	56.0	-233876.0	1023.0	10098.0
13	17	23	1	809	57.0	-233921.0	998.0	9943.0
13	17	23	1	809	58.0	-233642.0	999.0	9639.0
13	17	23	1	810	59.0	-234143.0	982.0	9743.0
13	17	23	1	811	60.0	-235721.0	961.0	10306.0
13	17	23	1	811	61.0	-237295.0	954.0	10256.0
13	17	23	1	812	62.0	-238841.0	944.0	9981.0
13	17	23	1	812	63.0	-239677.0	943.0	10204.0
13	17	23	1	832	64.0	-240396.0	943.0	10079.0
13	17	23	1	832	65.0	-241551.0	923.0	10483.0
13	17	23	1	833	66.0	-242552.0	919.0	10591.0
13	17	23	1	834	67.0	-243212.0	921.0	10528.0
13	17	23	1	834	68.0	-243291.0	915.0	10313.0
13	17	23	1	835	69.0	-242966.0	907.0	10090.0
13	17	23	1	835	70.0	-242341.0	899.0	10199.0
13	17	23	1	836	71.0	-241673.0	874.0	10048.0
13	17	23	1	837	72.0	-240328.0	861.0	10110.0
13	17	23	1	837	73.0	-238736.0	868.0	10284.0
13	17	23	1	838	74.0	-237870.0	850.0	9868.0
13	17	23	1	838	75.0	-237140.0	829.0	9823.0
13	17	23	1	839	76.0	-236308.0	844.0	10204.0
13	17	23	1	839	77.0	-235986.0	835.0	10388.0
13	17	23	1	840	78.0	-236020.0	823.0	9813.0
13	17	23	1	841	79.0	-235804.0	802.0	9878.0
13	17	23	1	841	80.0	-235399.0	815.0	9976.0
13	17	23	1	842	81.0	-234796.0	805.0	10024.0
13	17	23	1	842	82.0	-235162.0	783.0	10243.0
13	17	23	1	843	83.0	-235854.0	781.0	10186.0
13	17	23	1	854	84.0	-235917.0	767.0	10183.0
13	17	23	1	855	85.0	-236039.0	752.0	10356.0
13	17	23	1	855	86.0	-236470.0	737.0	9944.0
13	17	23	1	856	87.0	-236591.0	711.0	9908.0
13	17	23	1	857	88.0	-236403.0	719.0	10049.0
13	17	23	1	857	89.0	-236604.0	729.0	10254.0
13	17	23	1	858	90.0	-237131.0	723.0	10486.0
13	17	23	1	858	91.0	-237565.0	709.0	10249.0
13	17	23	1	859	92.0	-237751.0	702.0	10399.0
13	17	23	1	859	93.0	-237863.0	690.0	10247.0
13	17	23	1	877	94.0	-238104.0	680.0	10314.0
13	17	23	1	878	95.0	-238539.0	681.0	10414.0
13	17	23	1	879	96.0	-238759.0	678.0	10707.0
13	17	23	1	879	97.0	-238606.0	651.0	10623.0
13	17	23	1	880	98.0	-238092.0	659.0	10860.0
13	17	23	1	881	99.0	-237619.0	649.0	11168.0
13	17	23	1	881	100.0	-237000.0	629.0	10818.0
13	17	23	1	882	101.0	-236238.0	611.0	10950.0
13	17	23	1	882	102.0	-235880.0	594.0	10986.0
13	17	23	1	883	103.0	-235694.0	570.0	11357.0
13	17	23	1	884	104.0	-235760.0	560.0	11322.0
13	17	23	1	884	105.0	-235751.0	564.0	11450.0
13	17	23	1	885	106.0	-235657.0	543.0	11118.0
13	17	23	1	885	107.0	-235109.0	521.0	10790.0
13	17	23	1	900	108.0	-234212.0	512.0	10922.0
13	17	23	1	901	109.0	-233323.0	507.0	11124.0
13	17	23	1	901	110.0	-232389.0	488.0	10561.0
13	17	23	1	902	111.0	-231663.0	463.0	10363.0
13	17	23	1	902	112.0	-230842.0	437.0	10130.0
13	17	23	1	903	113.0	-230213.0	445.0	9736.0
13	17	23	1	904	114.0	-229542.0	452.0	9717.0
13	17	23	1	904	115.0	-229279.0	422.0	9784.0
13	17	23	1	924	116.0	-229301.0	399.0	9642.0
13	17	23	1	925	117.0	-228706.0	396.0	9238.0
13	17	23	1	926	118.0	-227484.0	366.0	9294.0
13	17	23	1	926	119.0	-227144.0	342.0	9131.0
13	17	23	1	927	120.0	-227286.0	319.0	8855.0
13	17	23	1	927	121.0	-227675.0	301.0	8707.0
13	17	23	1	928	122.0	-229692.0	271.0	8287.0
13	17	23	1	930	123.0	-232236.0	254.0	8274.0
13	17	23	1	930	124.0	-234307.0	253.0	8378.0
13	17	23	1	931	125.0	-236113.0	230.0	7912.0
13	17	23	1	931	126.0	-236972.0	214.0	7569.0
13	17	23	1	932	127.0	-236841.0	190.0	7320.0
13	17	23	1	933	128.0	-236331.0	169.0	7171.0
13	17	23	1	933	129.0	-235506.0	162.0	6869.0
13	17	23	1	934	130.0	-234104.0	153.0	6971.0
13	17	23	1	946	131.0	-231996.0	128.0	7054.0
13	17	23	1	947	132.0	-230062.0	93.0	7201.0
13	17	23	1	948	133.0	-228116.0	89.0	7621.0
13	17	23	1	948	134.0	-226282.0	80.0	7462.0
13	17	23	1	949	135.0	-225212.0	34.0	7168.0
13	17	23	1	949	136.0	-224749.0	14.0	7025.0
13	17	23	1	950	137.0	-224107.0	4.0	7388.0
13	17	23	1	968	138.0	-223388.0	-21.0	7445.0
13	17	23	1	969	139.0	-222801.0	-37.0	7679.0
13	17	23	1	970	140.0	-222599.0	-71.0	8008.0
13	17	23	1	970	141.0	-222425.0	-77.0	8213.0
13	17	23	1	971	142.0	-222186.0	-94.0	7900.0
13	17	23	1	972	143.0	-222124.0	-124.0	7776.0
13	17	23	1	972	144.0	-221891.0	-137.0	8109.0
13	17	23	1	973	145.0	-222339.0	-157.0	8038.0
13	17	23	1	974	146.0	-223517.0	-175.0	7846.0
13	17	23	1	974	147.0	-224477.0	-231.0	7728.0
13	17	23	1	975	148.0	-224844.0	-247.0	7814.0
13	17	23	1	975	149.0	-225236.0	-259.0	7799.0
13	17	23	1	976	150.0	-225998.0	-280.0	8131.0
13	17	23	1	976	151.0	-226679.0	-307.0	8239.0
13	17	23	1	977	152.0	-226796.0	-320.0	8100.0
13	17	23	1	991	153.0	-226677.0	-361.0	8181.0
13	17	23	1	992	154.0	-226632.0	-377.0	8405.0
13	17	23	1	993	155.0	-226549.0	-389.0	8515.0
13	17	23	1	993	156.0	-226459.0	-423.0	8688.0
13	17	23	1	994	157.0	-225631.0	-458.0	8937.0
13	17	23	1	994	158.0	-224469.0	-478.0	9551.0
13	17	23	1	995	159.0	-224041.0	-485.0	9627.0
13	17	23	1	996	160.0	-223877.0	-509.0	9423.0
13	17	23	2	16	161.0	-223033.0	-543.0	9489.0
13	17	23	2	16	162.0	-222084.0	-569.0	9492.0
13	17	23	2	17	163.0	-222184.0	-577.0	9291.0
13	17	23	2	18	164.0	-222513.0	-613.0	9152.0
13	17	23	2	18	165.0	-222780.0	-644.0	8961.0
13	17	23	2	19	166.0	-222886.0	-657.0	9331.0
13	17	23	2	20	167.0	-222891.0	-674.0	8843.0
13	17	23	2	20	168.0	-222837.0	-705.0	8739.0
13	17	23	2	21	169.0	-222809.0	-723.0	9469.0
13	17	23	2	21	170.0	-223136.0	-739.0	9248.0
13	17	23	2	22	171.0	-223347.0	-771.0	8854.0
13	17	23	2	22	172.0	-223344.0	-782.0	8958.0
13	17	23	2	23	173.0	-223559.0	-784.0	9140.0
13	17	23	2	24	174.0	-223827.0	-800.0	8926.0
13	17	23	2	24	175.0	-223838.0	-807.0	9039.0
13	17	23	2	39	176.0	-223689.0	-826.0	9566.0
13	17	23	2	40	177.0	-223204.0	-860.0	9196.0
13	17	23	2	40	178.0	-222276.0	-900.0	8556.0
13	17	23	2	41	179.0	-221409.0	-912.0	7773.0
13	17	23	2	42	180.0	-221222.0	-921.0	7021.0
13	17	23	2	42	181.0	-221193.0	-942.0	6139.0
13	17	23	2	43	182.0	-220806.0	-955.0	6000.0
13	17	23	2	62	183.0	-220211.0	-971.0	6696.0
13	17	23	2	63	184.0	-219631.0	-1015.0	8768.0
13	17	23	2	63	185.0	-219007.0	-1024.0	12455.0
13	17	23	2	64	186.0	-217976.0	-1041.0	17483.0
13	17	23	2	65	187.0	-216479.0	-1054.0	21844.0
13	17	23	2	65	188.0	-215078.0	-1061.0	26497.0
13	17	23	2	66	189.0	-214020.0	-1073.0	30362.0
13	17	23	2	66	190.0	-213638.0	-1113.0	32034.0
13	17	23	2	67	191.0	-214222.0	-1142.0	31568.0
13	17	23	2	68	192.0	-215026.0	-1147.0	30566.0
13	17	23	2	68	193.0	-216243.0	-1164.0	30891.0
13	17	23	2	69	194.0	-217362.0	-1193.0	31328.0
13	17	23	2	70	195.0	-218293.0	-1207.0	31268.0
13	17	23	2	70	196.0	-219039.0	-1239.0	30339.0
13	17	23	2	71	197.0	-218939.0	-1235.0	28682.0
13	17	23	2	95	198.0	-217866.0	-1259.0	27022.0
13	17	23	2	97	199.0	-216537.0	-1276.0	24813.0
13	17	23	2	97	200.0	-215636.0	-1272.0	23068.0
13	17	23	2	98	201.0	-216222.0	-1307.0	21421.0
13	17	23	2	98	202.0	-217231.0	-1333.0	20014.0
13	17	23	2	99	203.0	-218283.0	-1352.0	17347.0
13	17	23	2	100	204.0	-219896.0	-1359.0	15487.0
13	17	23	2	100	205.0	-222685.0	-1384.0	14391.0
13	17	23	2	101	206.0	-226205.0	-1398.0	13138.0
13	17	23	2	101	207.0	-230141.0	-1393.0	11983.0
13	17	23	2	102	208.0	-233478.0	-1412.0	11569.0
13	17	23	2	102	209.0	-232651.0	-1451.0	10833.0
13	17	23	2	103	210.0	-227057.0	-1471.0	10220.0
13	17	23	2	103	211.0	-215625.0	-1476.0	10649.0
13	17	23	2	104	212.0	-200953.0	-1504.0	10451.0
13	17	23	2	117	213.0	-186968.0	-1526.0	10204.0
13	17	23	2	117	214.0	-176453.0	-1539.0	10224.0
13	17	23	2	118	215.0	-171142.0	-1544.0	10252.0
13	17	23	2	118	216.0	-172521.0	-1570.0	10181.0
13	17	23	2	119	217.0	-182378.0	-1592.0	9951.0
13	17	23	2	119	218.0	-198979.0	-1611.0	9831.0
13	17	23	2	120	219.0	-217999.0	-1624.0	9616.0
13	17	23	2	121	220.0	-234827.0	-1639.0	9526.0
13	17	23	2	121	221.0	-246131.0	-1661.0	9654.0
13	17	23	2	122	222.0	-251127.0	-1691.0	9333.0
13	17	23	2	122	223.0	-248297.0	-1715.0	8956.0
13	17	23	2	123	224.0	-239536.0	-1747.0	8670.0
13	17	23	2	123	225.0	-226172.0	-1760.0	8666.0
13	17	23	2	124	226.0	-208831.0	-1779.0	8576.0
13	17	23	2	124	227.0	-189218.0	-1799.0	8370.0
13	17	23	2	140	228.0	-170502.0	-1835.0	8161.0
13	17	23	2	141	229.0	-156243.0	-1837.0	8366.0
13	17	23	2	141	230.0	-148264.0	-1857.0	8393.0
13	17	23	2	142	231.0	-147574.0	-1879.0	8125.0
13	17	23	2	142	232.0	-154202.0	-1899.0	8071.0
13	17	23	2	143	233.0	-166157.0	-1926.0	8201.0
13	17	23	2	143	234.0	-181164.0	-1956.0	8425.0
13	17	23	2	144	235.0	-197969.0	-1970.0	8654.0
13	17	23	2	163	236.0	-214723.0	-1980.0	8407.0
13	17	23	2	164	237.0	-229191.0	-1999.0	8395.0
13	17	23	2	164	238.0	-240716.0	-2031.0	8076.0
13	17	23	2	165	239.0	-248931.0	-2046.0	8222.0
13	17	23	2	165	240.0	-253428.0	-2062.0	8272.0
13	17	23	2	166	241.0	-254298.0	-2079.0	8123.0
13	17	23	2	166	242.0	-252588.0	-2112.0	8303.0
13	17	23	2	167	243.0	-249216.0	-2139.0	8406.0
13	17	23	2	168	244.0	-245101.0	-2158.0	8406.0
13	17	23	2	168	245.0	-241309.0	-2179.0	7878.0
13	17	23	2	169	246.0	-238035.0	-2199.0	7818.0
13	17	23	2	169	247.0	-235069.0	-2227.0	7853.0
13	17	23	2	170	248.0	-233212.0	-2246.0	7653.0
13	17	23	2	170	249.0	-232441.0	-2262.0	7948.0
13	17	23	2	171	250.0	-232264.0	-2301.0	8288.0
13	17	23	2	188	251.0	-231959.0	-2329.0	8559.0
13	17	23	2	189	252.0	-231739.0	-2337.0	8359.0
13	17	23	2	189	253.0	-231486.0	-2362.0	8373.0
13	17	23	2	190	254.0	-230837.0	-2401.0	8595.0
13	17	23	2	190	255.0	-229894.0	-2414.0	8557.0
13	17	23	2	191	0.0	-228842.0	-2427.0	8127.0
13	17	23	2	191	1.0	-227597.0	-2456.0	8113.0
13	17	23	2	211	2.0	-226473.0	-2480.0	8019.0
13	17	23	2	212	3.0	-225447.0	-2517.0	8095.0
13	17	23	2	213	4.0	-224246.0	-2546.0	7979.0
13	17	23	2	213	5.0	-222369.0	-2569.0	7868.0
13	17	23	2	214	6.0	-220448.0	-2588.0	7984.0
13	17	23	2	214	7.0	-219076.0	-2609.0	7908.0
13	17	23	2	215	8.0	-218656.0	-2629.0	7550.0
13	17	23	2	215	9.0	-218503.0	-2659.0	7570.0
13	17	23	2	216	10.0	-218101.0	-2685.0	7649.0
13	17	23	2	216	11.0	-216947.0	-2717.0	7464.0
13	17	23	2	217	12.0	-215117.0	-2741.0	7205.0
13	17	23	2	218	13.0	-213204.0	-2766.0	7463.0
13	17	23	2	218	14.0	-211697.0	-2806.0	7684.0
13	17	23	2	219	15.0	-209972.0	-2839.0	7521.0
13	17	23	2	219	16.0	-207999.0	-2863.0	7783.0
13	17	23	2	235	17.0	-206307.0	-2891.0	7386.0
13	17	23	2	235	18.0	-204331.0	-2906.0	6689.0
13	17	23	2	236	19.0	-202369.0	-2919.0	7294.0
13	17	23	2	237	20.0	-200391.0	-2941.0	7249.0
13	17	23	2	237	21.0	-198164.0	-2980.0	6918.0
13	17	23	2	238	22.0	-195519.0	-3011.0	6854.0
13	17	23	2	238	23.0	-192837.0	-3016.0	7024.0
13	17	23	2	239	24.0	-190412.0	-3028.0	6758.0
13	17	23	2	258	25.0	-188010.0	-3057.0	6606.0
13	17	23	2	258	26.0	-185912.0	-3054.0	6482.0
13	17	23	2	259	27.0	-184201.0	-3088.0	6271.0
13	17	23	2	259	28.0	-182546.0	-3094.0	5557.0
13	17	23	2	260	29.0	-181189.0	-3090.0	5515.0
13	17	23	2	260	30.0	-180226.0	-3091.0	5566.0
13	17	23	2	261	31.0	-179467.0	-3080.0	5326.0
13	17	23	2	262	32.0	-178401.0	-3077.0	5346.0
13	17	23	2	262	33.0	-178025.0	-3066.0	5221.0
13	17	23	2	263	34.0	-178351.0	-3060.0	5304.0
13	17	23	2	263	35.0	-178797.0	-3044.0	5244.0
13	17	23	2	264	36.0	-179532.0	-3015.0	4997.0
13	17	23	2	264	37.0	-181292.0	-2987.0	4437.0
13	17	23	2	265	38.0	-185218.0	-2936.0	4305.0
13	17	23	2	265	39.0	-189206.0	-2904.0	4292.0
13	17	23	2	281	40.0	-192481.0	-2852.0	3758.0
13	17	23	2	281	41.0	-195102.0	-2824.0	3661.0
13	17	23	2	282	42.0	-197355.0	-2776.0	3673.0
13	17	23	2	282	43.0	-198924.0	-2708.0	3392.0
13	17	23	2	283	44.0	-200452.0	-2642.0	2731.0
13	17	23	2	283	45.0	-201487.0	-2586.0	3041.0
13	17	23	2	284	46.0	-201798.0	-2491.0	3288.0
13	17	23	2	303	47.0	-201696.0	-2414.0	2743.0
13	17	23	2	304	48.0	-201101.0	-2326.0	2441.0
13	17	23	2	305	49.0	-200782.0	-2244.0	2133.0
13	17	23	2	305	50.0	-200209.0	-2178.0	1499.0
13	17	23	2	306	51.0	-198784.0	-2068.0	1383.0
13	17	23	2	306	52.0	-197467.0	-1983.0	1472.0
13	17	23	2	307	53.0	-196882.0	-1907.0	1059.0
13	17	23	2	307	54.0	-196898.0	-1796.0	836.0
13	17	23	2	308	55.0	-197801.0	-1691.0	1260.0
13	17	23	2	308	56.0	-198664.0	-1589.0	712.0
13	17	23	2	309	57.0	-200006.0	-1476.0	594.0
13	17	23	2	309	58.0	-201375.0	-1369.0	1139.0
13	17	23	2	310	59.0	-202939.0	-1268.0	824.0
13	17	23	2	311	60.0	-204342.0	-1142.0	-200.0
13	17	23	2	311	61.0	-205236.0	-1029.0	-138.0
13	17	23	2	327	62.0	-206217.0	-922.0	-5.0
13	17	23	2	328	63.0	-207261.0	-812.0	-474.0
13	17	23	2	328	64.0	-208523.0	-696.0	-602.0
13	17	23	2	329	65.0	-209604.0	-586.0	-678.0
13	17	23	2	329	66.0	-210344.0	-474.0	-860.0
13	17	23	2	330	67.0	-210959.0	-360.0	-1131.0
13	17	23	2	330	68.0	-211306.0	-239.0	-1079.0
13	17	23	2	331	69.0	-211112.0	-129.0	-1181.0
13	17	23	2	332	70.0	-210317.0	-18.0	-1463.0
13	17	23	2	333	71.0	-209296.0	78.0	-1712.0
13	17	23	2	333	72.0	-208300.0	184.0	-1841.0
13	17	23	2	334	73.0	-206983.0	308.0	-2082.0
13	17	23	2	334	74.0	-204724.0	413.0	-2458.0
13	17	23	2	335	75.0	-202040.0	520.0	-2691.0
13	17	23	2	335	76.0	-200131.0	607.0	-2811.0
13	17	23	2	350	77.0	-198295.0	694.0	-2705.0
13	17	23	2	350	78.0	-196239.0	798.0	-2618.0
13	17	23	2	351	79.0	-194200.0	883.0	-2619.0
13	17	23	2	351	80.0	-191916.0	988.0	-2370.0
13	17	23	2	352	81.0	-189137.0	1083.0	-2514.0
13	17	23	2	353	82.0	-186129.0	1164.0	-2887.0
13	17	23	2	353	83.0	-183663.0	1238.0	-2651.0
13	17	23	2	373	84.0	-181533.0	1331.0	-2366.0
13	17	23	2	374	85.0	-179407.0	1401.0	-2975.0
13	17	23	2	375	86.0	-177094.0	1484.0	-2876.0
13	17	23	2	376	87.0	-175564.0	1569.0	-2482.0
13	17	23	2	376	88.0	-174659.0	1663.0	-2730.0
13	17	23	2	377	89.0	-173891.0	1728.0	-2584.0
13	17	23	2	377	90.0	-172832.0	1794.0	-2229.0
13	17	23	2	378	91.0	-171778.0	1867.0	-2122.0
13	17	23	2	379	92.0	-170897.0	1938.0	-2652.0
13	17	23	2	379	93.0	-170217.0	2003.0	-1971.0
13	17	23	2	380	94.0	-169967.0	2058.0	-1723.0
13	17	23	2	380	95.0	-169911.0	2123.0	-1921.0
13	17	23	2	381	96.0	-169457.0	2198.0	-1929.0
13	17	23	2	381	97.0	-169355.0	2249.0	-1371.0
13	17	23	2	382	98.0	-170136.0	2312.0	-1089.0
13	17	23	2	396	99.0	-171094.0	2374.0	-1039.0
13	17	23	2	397	100.0	-171392.0	2421.0	-690.0
13	17	23	2	397	101.0	-171912.0	2470.0	-107.0
13	17	23	2	398	102.0	-172711.0	2538.0	70.0
13	17	23	2	398	103.0	-173908.0	2590.0	210.0
13	17	23	2	399	104.0	-175241.0	2644.0	323.0
13	17	23	2	399	105.0	-176221.0	2696.0	746.0
13	17	23	2	400	106.0	-176914.0	2742.0	884.0
13	17	23	2	419	107.0	-177216.0	2798.0	986.0
13	17	23	2	420	108.0	-178227.0	2873.0	1379.0
13	17	23	2	421	109.0	-179796.0	2916.0	1742.0
13	17	23	2	421	110.0	-181007.0	2955.0	1827.0
13	17	23	2	422	111.0	-182208.0	3027.0	1739.0
13	17	23	2	423	112.0	-182939.0	3083.0	2380.0
13	17	23	2	423	113.0	-183886.0	3119.0	2900.0
13	17	23	2	424	114.0	-184962.0	3164.0	3331.0
13	17	23	2	424	115.0	-185325.0	3218.0	3388.0
13	17	23	2	425	116.0	-185391.0	3260.0	3460.0
13	17	23	2	425	117.0	-185668.0	3303.0	3479.0
13	17	23	2	426	118.0	-185790.0	3374.0	4031.0
13	17	23	2	426	119.0	-185987.0	3417.0	4399.0
13	17	23	2	427	120.0	-185874.0	3455.0	4592.0
13	17	23	2	428	121.0	-185644.0	3502.0	4337.0
13	17	23	2	442	122.0	-185518.0	3546.0	4819.0
13	17	23	2	442	123.0	-185727.0	3584.0	5030.0
13	17	23	2	443	124.0	-185646.0	3628.0	4787.0
13	17	23	2	443	125.0	-185131.0	3674.0	5018.0
13	17	23	2	444	126.0	-183987.0	3736.0	5709.0
13	17	23	2	445	127.0	-182407.0	3796.0	5666.0
13	17	23	2	445	128.0	-180401.0	3854.0	5481.0
13	17	23	2	465	129.0	-178042.0	3898.0	5574.0
13	17	23	2	466	130.0	-175209.0	3936.0	5871.0
13	17	23	2	466	131.0	-172172.0	3984.0	5417.0
13	17	23	2	467	132.0	-167931.0	4042.0	5517.0
13	17	23	2	467	133.0	-161898.0	4091.0	5853.0
13	17	23	2	468	134.0	-157288.0	4127.0	5373.0
13	17	23	2	469	135.0	-150601.0	4165.0	5718.0
13	17	23	2	469	136.0	-147383.0	4216.0	5863.0
13	17	23	2	470	137.0	-150632.0	4264.0	5779.0
13	17	23	2	470	138.0	-154544.0	4299.0	5695.0
13	17	23	2	471	139.0	-159651.0	4353.0	5577.0
13	17	23	2	471	140.0	-165299.0	4400.0	5264.0
13	17	23	2	472	141.0	-168861.0	4434.0	5143.0
13	17	23	2	473	142.0	-173816.0	4487.0	5078.0
13	17	23	2	473	143.0	-176917.0	4515.0	5173.0
13	17	23	2	487	144.0	-176791.0	4552.0	5589.0
13	17	23	2	488	145.0	-176612.0	4591.0	5288.0
13	17	23	2	489	146.0	-176595.0	4628.0	5101.0
13	17	23	2	489	147.0	-177288.0	4656.0	5506.0
13	17	23	2	490	148.0	-179984.0	4696.0	5656.0
13	17	23	2	490	149.0	-185076.0	4738.0	5422.0
13	17	23	2	491	150.0	-191046.0	4766.0	5180.0
13	17	23	2	491	151.0	-195668.0	4793.0	4801.0
13	17	23	2	511	152.0	-200087.0	4825.0	5011.0
13	17	23	2	511	153.0	-203069.0	4864.0	4721.0
13	17	23	2	512	154.0	-202278.0	4889.0	5263.0
13	17	23	2	512	155.0	-197371.0	4921.0	5506.0
13	17	23	2	513	156.0	-190672.0	4956.0	5168.0
13	17	23	2	514	157.0	-185054.0	4990.0	5163.0
13	17	23	2	514	158.0	-181071.0	5008.0	5428.0
13	17	23	2	515	159.0	-179037.0	5023.0	5404.0
13	17	23	2	515	160.0	-178901.0	5054.0	5409.0
