13	17	31	1	88	66.0	-158071.0	4293.0	3504.0
13	17	31	1	90	67.0	-157300.0	4280.0	38178.0
13	17	31	1	93	68.0	-156676.0	4248.0	17262.0
13	17	31	1	95	69.0	-156161.0	4246.0	-16889.0
13	17	31	1	97	70.0	-155659.0	4242.0	-22637.0
13	17	31	1	99	71.0	-155461.0	4244.0	-23652.0
13	17	31	1	102	72.0	-155243.0	4241.0	-23729.0
13	17	31	1	104	73.0	-155016.0	4234.0	-23306.0
13	17	31	1	105	74.0	-154735.0	4311.0	-21179.0
13	17	31	1	106	75.0	-154202.0	4269.0	-15897.0
13	17	31	1	107	76.0	-153836.0	4308.0	5494.0
13	17	31	1	108	77.0	-154101.0	4296.0	41070.0
13	17	31	1	109	78.0	-154932.0	4255.0	17156.0
13	17	31	1	110	79.0	-155888.0	4282.0	-17345.0
13	17	31	1	110	80.0	-156852.0	4283.0	-22531.0
13	17	31	1	119	81.0	-157644.0	4307.0	-23372.0
13	17	31	1	120	82.0	-158342.0	4302.0	-23841.0
13	17	31	1	121	83.0	-158975.0	4285.0	-23124.0
13	17	31	1	121	84.0	-159482.0	4250.0	-20874.0
13	17	31	1	122	85.0	-159687.0	4255.0	-15941.0
13	17	31	1	123	86.0	-159871.0	4341.0	5213.0
13	17	31	1	123	87.0	-160073.0	4342.0	39149.0
13	17	31	1	124	88.0	-160499.0	4329.0	15543.0
13	17	31	1	161	89.0	-161476.0	4324.0	-17487.0
13	17	31	1	205	90.0	-162909.0	4291.0	-22493.0
13	17	31	1	215	91.0	-164524.0	4280.0	-23636.0
13	17	31	1	215	92.0	-166142.0	4268.0	-23898.0
13	17	31	1	216	93.0	-167586.0	4265.0	-23277.0
13	17	31	1	216	94.0	-168613.0	4351.0	-21421.0
13	17	31	1	217	95.0	-169227.0	4381.0	-17067.0
13	17	31	1	218	96.0	-169476.0	4342.0	-1236.0
13	17	31	1	218	97.0	-169706.0	4393.0	29565.0
13	17	31	1	219	98.0	-169919.0	4373.0	15264.0
13	17	31	1	219	99.0	-170129.0	4400.0	-16664.0
13	17	31	1	220	100.0	-170184.0	4379.0	-22439.0
13	17	31	1	220	101.0	-170056.0	4354.0	-23554.0
13	17	31	1	221	102.0	-169634.0	4370.0	-23957.0
13	17	31	1	221	103.0	-169143.0	4371.0	-23236.0
13	17	31	1	222	107.0	-165576.0	4368.0	28836.0
13	17	31	1	223	129.0	-158074.0	4416.0	-17354.0
13	17	31	1	223	130.0	-159038.0	4445.0	-22360.0
13	17	31	1	224	131.0	-160898.0	4457.0	-23356.0
13	17	31	1	224	132.0	-163239.0	4430.0	-23743.0
13	17	31	1	225	133.0	-165475.0	4412.0	-23029.0
13	17	31	1	225	134.0	-169379.0	4431.0	-20933.0
13	17	31	1	226	135.0	-174170.0	4431.0	-16106.0
13	17	31	1	251	136.0	-177069.0	4476.0	3046.0
13	17	31	1	252	137.0	-177971.0	4455.0	34267.0
13	17	31	1	252	138.0	-177377.0	4426.0	13376.0
13	17	31	1	253	139.0	-174856.0	4410.0	-17558.0
13	17	31	1	254	140.0	-171116.0	4411.0	-22466.0
13	17	31	1	254	141.0	-167507.0	4471.0	-23435.0
13	17	31	1	255	142.0	-164481.0	4459.0	-23661.0
13	17	31	1	255	143.0	-162322.0	4383.0	-23034.0
13	17	31	1	256	144.0	-161576.0	4387.0	-20761.0
13	17	31	1	257	145.0	-162306.0	4465.0	-15419.0
13	17	31	1	257	146.0	-163972.0	4461.0	6482.0
13	17	31	1	258	147.0	-166186.0	4435.0	39229.0
13	17	31	1	259	148.0	-168237.0	4410.0	13478.0
13	17	31	1	259	149.0	-169621.0	4456.0	-18098.0
13	17	31	1	260	150.0	-170475.0	4458.0	-22410.0
13	17	31	1	260	152.0	-169097.0	4416.0	-23814.0
13	17	31	1	261	153.0	-167032.0	4458.0	-22812.0
13	17	31	1	262	154.0	-164027.0	4454.0	-20586.0
13	17	31	1	262	155.0	-160562.0	4392.0	-15160.0
13	17	31	1	263	156.0	-156981.0	4411.0	8732.0
13	17	31	1	263	157.0	-153976.0	4433.0	40584.0
13	17	31	1	295	158.0	-151652.0	4420.0	11879.0
13	17	31	1	295	159.0	-150247.0	4419.0	-18323.0
13	17	31	1	296	160.0	-149251.0	4416.0	-22391.0
13	17	31	1	297	161.0	-148692.0	4401.0	-23579.0
13	17	31	1	297	162.0	-148441.0	4379.0	-23557.0
13	17	31	1	298	163.0	-148212.0	4393.0	-22678.0
13	17	31	1	299	164.0	-148491.0	4414.0	-20638.0
13	17	31	1	299	165.0	-149092.0	4424.0	-14501.0
13	17	31	1	300	166.0	-149700.0	4414.0	10573.0
13	17	31	1	300	167.0	-150226.0	4388.0	41699.0
13	17	31	1	301	168.0	-150932.0	4405.0	11324.0
13	17	31	1	302	169.0	-151244.0	4388.0	-18462.0
13	17	31	1	302	170.0	-151079.0	4410.0	-22547.0
13	17	31	1	303	171.0	-150546.0	4435.0	-23405.0
13	17	31	1	303	172.0	-149942.0	4446.0	-23516.0
13	17	31	1	304	174.0	-149367.0	4447.0	-20434.0
13	17	31	1	305	175.0	-148966.0	4462.0	-14037.0
13	17	31	1	305	176.0	-148291.0	4438.0	13083.0
13	17	31	1	306	177.0	-148397.0	4398.0	44393.0
13	17	31	1	306	178.0	-148974.0	4414.0	11030.0
13	17	31	1	307	179.0	-150326.0	4437.0	-18717.0
13	17	31	1	308	180.0	-151871.0	4438.0	-22476.0
13	17	31	1	340	181.0	-153307.0	4431.0	-23425.0
13	17	31	1	340	182.0	-154941.0	4397.0	-23479.0
13	17	31	1	341	183.0	-156262.0	4403.0	-22626.0
13	17	31	1	342	184.0	-157422.0	4412.0	-20189.0
13	17	31	1	342	185.0	-158267.0	4368.0	-12402.0
13	17	31	1	343	186.0	-159317.0	4443.0	20158.0
13	17	31	1	343	187.0	-160494.0	4387.0	48549.0
13	17	31	1	344	188.0	-161919.0	4383.0	8420.0
13	17	31	1	345	189.0	-163170.0	4387.0	-19417.0
13	17	31	1	345	190.0	-163976.0	4395.0	-22686.0
13	17	31	1	346	191.0	-164952.0	4379.0	-23320.0
13	17	31	1	346	192.0	-165799.0	4416.0	-23505.0
13	17	31	1	347	193.0	-166771.0	4439.0	-22718.0
13	17	31	1	348	194.0	-167631.0	4408.0	-19899.0
13	17	31	1	348	195.0	-168139.0	4388.0	-11629.0
13	17	31	1	349	197.0	-168585.0	4401.0	50331.0
13	17	31	1	363	198.0	-168950.0	4421.0	7636.0
13	17	31	1	364	199.0	-168940.0	4403.0	-19689.0
13	17	31	1	365	200.0	-168828.0	4404.0	-22452.0
13	17	31	1	365	201.0	-169011.0	4423.0	-23304.0
13	17	31	1	366	202.0	-169171.0	4406.0	-23547.0
13	17	31	1	430	203.0	-169846.0	4381.0	-22307.0
13	17	31	1	431	204.0	-170998.0	4408.0	-19579.0
13	17	31	1	432	205.0	-172218.0	4428.0	-10364.0
13	17	31	1	433	206.0	-173137.0	4383.0	28523.0
13	17	31	1	433	207.0	-173799.0	4374.0	51889.0
13	17	31	1	434	208.0	-174233.0	4436.0	5525.0
13	17	31	1	434	209.0	-174269.0	4375.0	-19751.0
13	17	31	1	435	210.0	-173922.0	4318.0	-22461.0
13	17	31	1	436	211.0	-173494.0	4375.0	-23446.0
13	17	31	1	436	212.0	-172547.0	4402.0	-23292.0
13	17	31	1	437	213.0	-171497.0	4423.0	-22212.0
13	17	31	1	437	214.0	-170179.0	4404.0	-19496.0
13	17	31	1	438	215.0	-168558.0	4392.0	-9019.0
13	17	31	1	439	216.0	-166707.0	4399.0	32640.0
13	17	31	1	440	217.0	-165224.0	4357.0	52599.0
13	17	31	1	441	219.0	-161568.0	4409.0	-20044.0
13	17	31	1	442	242.0	-159370.0	4448.0	-23107.0
13	17	31	1	442	243.0	-161886.0	4501.0	-22012.0
13	17	31	1	443	244.0	-164858.0	4451.0	-18261.0
13	17	31	1	443	245.0	-167467.0	4467.0	-1442.0
13	17	31	1	444	246.0	-170109.0	4470.0	52706.0
13	17	31	1	445	247.0	-172299.0	4387.0	52933.0
13	17	31	1	476	248.0	-174524.0	4378.0	-2287.0
13	17	31	1	476	249.0	-176434.0	4412.0	-20761.0
13	17	31	1	477	250.0	-177811.0	4409.0	-22474.0
13	17	31	1	478	251.0	-179111.0	4438.0	-23202.0
13	17	31	1	478	252.0	-179941.0	4451.0	-23186.0
13	17	31	1	479	253.0	-180738.0	4411.0	-21687.0
13	17	31	1	480	254.0	-181352.0	4414.0	-18114.0
13	17	31	1	480	255.0	-181770.0	4462.0	-569.0
13	17	31	1	481	0.0	-181701.0	4475.0	53903.0
13	17	31	1	481	1.0	-181523.0	4411.0	51346.0
13	17	31	1	482	2.0	-181366.0	4426.0	-3411.0
13	17	31	1	483	3.0	-181282.0	4371.0	-20721.0
13	17	31	1	483	4.0	-180756.0	4391.0	-22554.0
13	17	31	1	484	5.0	-179451.0	4406.0	-23280.0
13	17	31	1	484	6.0	-178177.0	4361.0	-23121.0
13	17	31	1	485	8.0	-175347.0	4418.0	-17974.0
13	17	31	1	485	9.0	-173267.0	4404.0	1593.0
13	17	31	1	486	10.0	-171298.0	4426.0	58016.0
13	17	31	1	520	11.0	-169372.0	4385.0	50413.0
13	17	31	1	521	12.0	-167829.0	4359.0	-4644.0
13	17	31	1	521	13.0	-166361.0	4347.0	-20952.0
13	17	31	1	522	14.0	-164976.0	4344.0	-22511.0
13	17	31	1	522	15.0	-163534.0	4337.0	-23311.0
13	17	31	1	523	16.0	-162244.0	4338.0	-23239.0
13	17	31	1	523	17.0	-161184.0	4349.0	-21604.0
13	17	31	1	524	18.0	-159924.0	4359.0	-17733.0
13	17	31	1	524	19.0	-158401.0	4416.0	3054.0
13	17	31	1	525	20.0	-156890.0	4334.0	60349.0
13	17	31	1	526	21.0	-155590.0	4333.0	49123.0
13	17	31	1	526	22.0	-154216.0	4327.0	-5880.0
13	17	31	1	527	23.0	-152721.0	4339.0	-20951.0
13	17	31	1	527	24.0	-151430.0	4330.0	-22689.0
13	17	31	1	528	25.0	-150316.0	4290.0	-23496.0
13	17	31	1	528	26.0	-149271.0	4303.0	-23065.0
13	17	31	1	529	31.0	-146764.0	4223.0	47765.0
13	17	31	1	529	32.0	-147000.0	4277.0	-6096.0
13	17	31	1	530	33.0	-147467.0	4333.0	-20962.0
13	17	31	1	530	34.0	-148207.0	4304.0	-22752.0
13	17	31	1	531	35.0	-149146.0	4276.0	-23182.0
13	17	31	1	531	36.0	-149649.0	4300.0	-22989.0
13	17	31	1	565	37.0	-150286.0	4251.0	-21588.0
13	17	31	1	566	38.0	-150989.0	4270.0	-16954.0
13	17	31	1	566	39.0	-151698.0	4260.0	9187.0
13	17	31	1	567	40.0	-151917.0	4282.0	68710.0
13	17	31	1	567	41.0	-152406.0	4223.0	45975.0
13	17	31	1	568	42.0	-153057.0	4249.0	-7839.0
13	17	31	1	568	43.0	-154300.0	4258.0	-21097.0
13	17	31	1	569	44.0	-155741.0	4223.0	-22539.0
13	17	31	1	569	45.0	-157176.0	4234.0	-23127.0
13	17	31	1	570	46.0	-158707.0	4203.0	-22889.0
13	17	31	1	570	47.0	-160217.0	4184.0	-21169.0
13	17	31	1	571	48.0	-161169.0	4219.0	-16058.0
13	17	31	1	572	49.0	-161827.0	4197.0	15034.0
13	17	31	1	572	50.0	-162221.0	4227.0	73846.0
13	17	31	1	573	51.0	-163052.0	4223.0	41669.0
13	17	31	1	573	53.0	-165290.0	4163.0	-21141.0
13	17	31	1	574	54.0	-166169.0	4179.0	-22667.0
13	17	31	1	574	55.0	-167111.0	4183.0	-23126.0
13	17	31	1	575	56.0	-167507.0	4243.0	-22824.0
13	17	31	1	575	57.0	-167882.0	4241.0	-21054.0
13	17	31	1	576	58.0	-168248.0	4230.0	-15111.0
13	17	31	1	609	59.0	-169082.0	4184.0	20590.0
13	17	31	1	610	60.0	-169697.0	4176.0	77746.0
13	17	31	1	610	61.0	-170550.0	4157.0	38169.0
13	17	31	1	611	62.0	-171221.0	4191.0	-11002.0
13	17	31	1	655	63.0	-171784.0	4161.0	-21314.0
13	17	31	1	655	64.0	-171617.0	4188.0	-22477.0
13	17	31	1	678	65.0	-171001.0	4190.0	-23074.0
13	17	31	1	679	66.0	-169823.0	4153.0	-22840.0
13	17	31	1	679	67.0	-168619.0	4109.0	-20684.0
13	17	31	1	680	68.0	-167132.0	4109.0	-14360.0
13	17	31	1	680	69.0	-165526.0	4118.0	25474.0
13	17	31	1	681	70.0	-164022.0	4086.0	80145.0
13	17	31	1	681	71.0	-162439.0	4084.0	34846.0
13	17	31	1	682	72.0	-160508.0	4136.0	-12146.0
13	17	31	1	682	73.0	-158486.0	4147.0	-21012.0
13	17	31	1	683	75.0	-155035.0	4093.0	-23174.0
13	17	31	1	683	76.0	-153640.0	4133.0	-22541.0
13	17	31	1	684	77.0	-152935.0	4149.0	-20555.0
13	17	31	1	684	78.0	-152770.0	4110.0	-13754.0
13	17	31	1	685	79.0	-153037.0	4116.0	28935.0
13	17	31	1	685	98.0	-161376.0	4060.0	-11592.0
13	17	31	1	686	99.0	-161677.0	3998.0	39754.0
13	17	31	1	686	100.0	-162277.0	4049.0	84006.0
13	17	31	1	687	101.0	-162984.0	4075.0	27500.0
13	17	31	1	687	102.0	-163589.0	4004.0	-13690.0
13	17	31	1	688	103.0	-164521.0	4009.0	-21168.0
13	17	31	1	702	104.0	-165144.0	4013.0	-22594.0
13	17	31	1	702	105.0	-165643.0	3969.0	-22802.0
13	17	31	1	703	106.0	-166320.0	3987.0	-22334.0
13	17	31	1	703	107.0	-166808.0	4010.0	-20069.0
13	17	31	1	704	108.0	-167113.0	3996.0	-9137.0
13	17	31	1	705	109.0	-167147.0	4020.0	47901.0
13	17	31	1	705	110.0	-166795.0	3984.0	82775.0
13	17	31	1	706	111.0	-166382.0	3987.0	23056.0
13	17	31	1	706	112.0	-165978.0	4018.0	-14696.0
13	17	31	1	707	113.0	-165747.0	4059.0	-21324.0
13	17	31	1	707	114.0	-165714.0	3986.0	-22343.0
13	17	31	1	708	115.0	-165333.0	3960.0	-22841.0
13	17	31	1	709	116.0	-164798.0	4000.0	-22444.0
13	17	31	1	709	117.0	-164292.0	3996.0	-19716.0
13	17	31	1	710	118.0	-163559.0	3959.0	-7949.0
13	17	31	1	710	120.0	-161814.0	3975.0	83447.0
13	17	31	1	711	121.0	-160860.0	3989.0	21575.0
13	17	31	1	711	122.0	-159969.0	3999.0	-15261.0
13	17	31	1	712	123.0	-159051.0	3979.0	-21201.0
13	17	31	1	712	124.0	-158629.0	3981.0	-22372.0
13	17	31	1	713	125.0	-158286.0	3917.0	-22981.0
13	17	31	1	713	126.0	-157705.0	3958.0	-22225.0
13	17	31	1	746	127.0	-156654.0	3928.0	-19629.0
13	17	31	1	746	128.0	-155337.0	3919.0	-6912.0
13	17	31	1	747	129.0	-154341.0	3933.0	55784.0
13	17	31	1	747	130.0	-153757.0	3881.0	82298.0
13	17	31	1	748	131.0	-153643.0	3863.0	19318.0
13	17	31	1	749	132.0	-153989.0	3871.0	-15427.0
13	17	31	1	749	133.0	-155001.0	3880.0	-21191.0
13	17	31	1	750	134.0	-156283.0	3921.0	-22481.0
13	17	31	1	750	135.0	-157404.0	3953.0	-22848.0
13	17	31	1	751	136.0	-158671.0	3919.0	-22181.0
13	17	31	1	751	137.0	-159792.0	3884.0	-19422.0
13	17	31	1	752	138.0	-161187.0	3876.0	-4924.0
13	17	31	1	753	139.0	-162501.0	3889.0	61574.0
13	17	31	1	753	140.0	-163349.0	3894.0	81501.0
13	17	31	1	754	141.0	-164018.0	3865.0	17103.0
13	17	31	1	755	143.0	-165586.0	3949.0	-21244.0
13	17	31	1	755	144.0	-166481.0	3901.0	-22523.0
13	17	31	1	756	145.0	-167149.0	3854.0	-23044.0
13	17	31	1	757	146.0	-167637.0	3898.0	-22131.0
13	17	31	1	757	147.0	-168121.0	3908.0	-19277.0
13	17	31	1	758	148.0	-168299.0	3859.0	-3632.0
13	17	31	1	836	149.0	-167810.0	3871.0	63921.0
13	17	31	1	837	150.0	-166749.0	3826.0	79163.0
13	17	31	1	837	151.0	-165689.0	3825.0	15270.0
13	17	31	1	838	152.0	-164677.0	3829.0	-16154.0
13	17	31	1	838	153.0	-163770.0	3846.0	-21235.0
13	17	31	1	839	154.0	-162892.0	3847.0	-22702.0
13	17	31	1	839	155.0	-161909.0	3906.0	-22792.0
13	17	31	1	840	156.0	-161049.0	3901.0	-21996.0
13	17	31	1	841	157.0	-160441.0	3858.0	-19229.0
13	17	31	1	841	158.0	-160027.0	3859.0	-1418.0
13	17	31	1	842	159.0	-159743.0	3841.0	68864.0
13	17	31	1	842	160.0	-159579.0	3844.0	77996.0
13	17	31	1	843	161.0	-159150.0	3841.0	13944.0
13	17	31	1	881	162.0	-158457.0	3848.0	-16322.0
13	17	31	1	881	163.0	-157802.0	3862.0	-21428.0
13	17	31	1	882	165.0	-156273.0	3808.0	-22702.0
13	17	31	1	893	188.0	-159383.0	3794.0	29604.0
13	17	31	1	893	189.0	-162191.0	3772.0	104558.0
13	17	31	1	894	190.0	-164574.0	3775.0	61681.0
13	17	31	1	894	191.0	-166612.0	3760.0	9424.0
13	17	31	1	895	192.0	-168032.0	3777.0	-13738.0
13	17	31	1	895	193.0	-169303.0	3777.0	-19841.0
13	17	31	1	896	194.0	-170456.0	3808.0	-20833.0
13	17	31	1	897	195.0	-171724.0	3776.0	-20828.0
13	17	31	1	897	196.0	-173411.0	3768.0	-18495.0
13	17	31	1	898	197.0	-175502.0	3735.0	-4199.0
13	17	31	1	898	198.0	-177226.0	3789.0	58463.0
13	17	31	1	899	199.0	-178642.0	3756.0	91731.0
13	17	31	1	899	200.0	-179105.0	3773.0	40660.0
13	17	31	1	900	210.0	-155400.0	3714.0	53116.0
13	17	31	1	900	211.0	-156611.0	3699.0	4067.0
13	17	31	1	901	212.0	-158485.0	3715.0	-16563.0
13	17	31	1	901	213.0	-160787.0	3782.0	-21201.0
13	17	31	1	902	214.0	-162536.0	3755.0	-22357.0
13	17	31	1	902	215.0	-162627.0	3753.0	-22527.0
13	17	31	1	903	216.0	-161300.0	3741.0	-21494.0
13	17	31	1	926	217.0	-159644.0	3741.0	-16476.0
13	17	31	1	926	218.0	-158482.0	3751.0	19049.0
13	17	31	1	927	219.0	-158176.0	3704.0	92753.0
13	17	31	1	928	220.0	-159085.0	3726.0	61194.0
13	17	31	1	928	221.0	-160632.0	3702.0	4723.0
13	17	31	1	929	222.0	-162382.0	3679.0	-17557.0
13	17	31	1	929	223.0	-164263.0	3707.0	-21466.0
13	17	31	1	930	224.0	-165589.0	3706.0	-22698.0
13	17	31	1	930	225.0	-166399.0	3713.0	-22820.0
13	17	31	1	931	226.0	-166872.0	3744.0	-21571.0
13	17	31	1	932	227.0	-166589.0	3752.0	-16272.0
13	17	31	1	932	228.0	-165350.0	3731.0	21875.0
13	17	31	1	933	229.0	-162557.0	3709.0	94919.0
13	17	31	1	933	230.0	-158243.0	3675.0	59128.0
13	17	31	1	934	231.0	-153261.0	3688.0	4387.0
13	17	31	1	935	232.0	-148258.0	3707.0	-17388.0
13	17	31	1	935	233.0	-144019.0	3693.0	-21686.0
13	17	31	1	936	234.0	-140889.0	3702.0	-22686.0
13	17	31	1	936	235.0	-138749.0	3694.0	-22739.0
13	17	31	1	937	236.0	-136970.0	3687.0	-21706.0
13	17	31	1	937	237.0	-135284.0	3706.0	-15874.0
13	17	31	1	938	238.0	-134122.0	3682.0	24337.0
13	17	31	1	971	239.0	-133496.0	3665.0	96737.0
13	17	31	1	972	240.0	-133289.0	3675.0	58356.0
13	17	31	1	972	241.0	-133219.0	3689.0	4092.0
13	17	31	1	973	242.0	-133536.0	3657.0	-17734.0
13	17	31	1	974	243.0	-134305.0	3656.0	-21649.0
13	17	31	1	974	244.0	-135447.0	3607.0	-22579.0
13	17	31	1	975	245.0	-137009.0	3607.0	-22921.0
13	17	31	1	975	246.0	-139074.0	3678.0	-21543.0
13	17	31	1	976	247.0	-141629.0	3681.0	-15107.0
13	17	31	1	976	248.0	-144363.0	3656.0	28183.0
13	17	31	1	977	249.0	-146783.0	3639.0	97930.0
13	17	31	1	978	250.0	-148868.0	3656.0	55768.0
13	17	31	1	978	251.0	-150848.0	3651.0	3435.0
13	17	31	1	979	252.0	-152880.0	3628.0	-17522.0
13	17	31	1	979	253.0	-155077.0	3611.0	-21388.0
13	17	31	1	980	255.0	-159473.0	3627.0	-22741.0
13	17	31	1	980	0.0	-161476.0	3669.0	-21156.0
13	17	31	1	981	1.0	-163307.0	3684.0	-13910.0
13	17	31	1	982	2.0	-164906.0	3675.0	34942.0
13	17	31	1	982	3.0	-166210.0	3613.0	99799.0
13	17	31	1	983	4.0	-167402.0	3631.0	51641.0
13	17	31	2	16	5.0	-168465.0	3661.0	2969.0
13	17	31	2	16	6.0	-169276.0	3664.0	-17132.0
13	17	31	2	17	7.0	-169731.0	3599.0	-21543.0
13	17	31	2	18	8.0	-169658.0	3585.0	-22607.0
13	17	31	2	18	9.0	-169142.0	3606.0	-22589.0
13	17	31	2	19	10.0	-168173.0	3611.0	-21031.0
13	17	31	2	20	11.0	-167126.0	3566.0	-12392.0
13	17	31	2	20	12.0	-166249.0	3541.0	41854.0
13	17	31	2	21	13.0	-165464.0	3577.0	101048.0
13	17	31	2	21	14.0	-164493.0	3573.0	48619.0
13	17	31	2	22	15.0	-163550.0	3568.0	2659.0
13	17	31	2	23	16.0	-162654.0	3615.0	-16969.0
13	17	31	2	23	17.0	-161770.0	3606.0	-21382.0
13	17	31	2	24	18.0	-160478.0	3591.0	-22601.0
13	17	31	2	24	19.0	-159111.0	3609.0	-22452.0
13	17	31	2	25	21.0	-157481.0	3560.0	-9709.0
13	17	31	2	26	22.0	-157425.0	3674.0	51956.0
13	17	31	2	26	23.0	-157339.0	3671.0	100206.0
13	17	31	2	27	24.0	-157279.0	3607.0	44067.0
13	17	31	2	27	25.0	-157419.0	3578.0	2638.0
13	17	31	2	28	26.0	-157731.0	3576.0	-16304.0
13	17	31	2	28	27.0	-157913.0	3594.0	-21452.0
13	17	31	2	106	28.0	-157802.0	3597.0	-22447.0
13	17	31	2	107	29.0	-157683.0	3561.0	-22057.0
13	17	31	2	108	30.0	-157722.0	3554.0	-20250.0
13	17	31	2	109	31.0	-157800.0	3584.0	-5652.0
13	17	31	2	110	32.0	-158060.0	3588.0	64819.0
13	17	31	2	112	33.0	-158041.0	3543.0	98933.0
13	17	31	2	112	34.0	-157892.0	3561.0	40488.0
13	17	31	2	113	35.0	-157999.0	3555.0	4651.0
13	17	31	2	114	36.0	-158243.0	3545.0	-15022.0
13	17	31	2	125	37.0	-158659.0	3551.0	-21265.0
13	17	31	2	126	38.0	-159741.0	3558.0	-21960.0
13	17	31	2	126	39.0	-161414.0	3561.0	-21741.0
13	17	31	2	127	40.0	-163424.0	3576.0	-19035.0
13	17	31	2	127	41.0	-165428.0	3598.0	2849.0
13	17	31	2	128	42.0	-166777.0	3605.0	80328.0
13	17	31	2	128	44.0	-167961.0	3534.0	37464.0
13	17	31	2	129	66.0	-163929.0	3514.0	-10889.0
13	17	31	2	129	67.0	-163816.0	3604.0	-20994.0
13	17	31	2	130	68.0	-163876.0	3597.0	-22202.0
13	17	31	2	130	69.0	-164015.0	3582.0	-21554.0
13	17	31	2	131	70.0	-163881.0	3612.0	-16732.0
13	17	31	2	132	71.0	-163625.0	3578.0	19108.0
13	17	31	2	132	72.0	-163438.0	3571.0	96092.0
13	17	31	2	150	73.0	-163072.0	3563.0	81133.0
13	17	31	2	151	74.0	-162330.0	3580.0	35223.0
13	17	31	2	151	75.0	-161732.0	3563.0	11600.0
13	17	31	2	152	76.0	-161509.0	3556.0	-10726.0
13	17	31	2	153	77.0	-161316.0	3553.0	-21372.0
13	17	31	2	153	78.0	-161152.0	3598.0	-22574.0
13	17	31	2	154	79.0	-161067.0	3584.0	-21698.0
13	17	31	2	154	80.0	-161356.0	3583.0	-17741.0
13	17	31	2	155	81.0	-161124.0	3567.0	14516.0
13	17	31	2	156	82.0	-161147.0	3527.0	93404.0
13	17	31	2	156	83.0	-161312.0	3506.0	83391.0
13	17	31	2	157	84.0	-161215.0	3547.0	34593.0
13	17	31	2	158	85.0	-161420.0	3509.0	9151.0
13	17	31	2	158	86.0	-161894.0	3512.0	-12687.0
13	17	31	2	159	87.0	-162365.0	3489.0	-21873.0
13	17	31	2	159	89.0	-163473.0	3540.0	-22087.0
13	17	31	2	160	90.0	-163911.0	3576.0	-18355.0
13	17	31	2	161	91.0	-164259.0	3598.0	12247.0
13	17	31	2	161	92.0	-164467.0	3603.0	91211.0
13	17	31	2	162	93.0	-164380.0	3576.0	84124.0
13	17	31	2	162	94.0	-164151.0	3558.0	33356.0
13	17	31	2	196	95.0	-163881.0	3501.0	7468.0
13	17	31	2	196	96.0	-163636.0	3554.0	-13317.0
13	17	31	2	197	97.0	-163373.0	3586.0	-21826.0
13	17	31	2	197	98.0	-162861.0	3572.0	-22753.0
13	17	31	2	198	99.0	-162440.0	3549.0	-22171.0
13	17	31	2	199	100.0	-162129.0	3573.0	-18147.0
13	17	31	2	199	101.0	-161686.0	3683.0	14157.0
13	17	31	2	200	102.0	-161182.0	3689.0	93111.0
13	17	31	2	200	103.0	-160647.0	3563.0	83139.0
13	17	31	2	201	104.0	-160081.0	3502.0	33065.0
13	17	31	2	202	105.0	-159959.0	3518.0	7324.0
13	17	31	2	202	106.0	-159982.0	3482.0	-13871.0
13	17	31	2	203	107.0	-160463.0	3542.0	-22216.0
13	17	31	2	203	108.0	-161035.0	3624.0	-22917.0
13	17	31	2	204	109.0	-161652.0	3601.0	-22308.0
13	17	31	2	205	111.0	-162036.0	3563.0	15759.0
13	17	31	2	205	112.0	-161641.0	3581.0	93591.0
13	17	31	2	206	113.0	-161484.0	3526.0	80960.0
13	17	31	2	206	114.0	-161400.0	3532.0	32748.0
13	17	31	2	207	115.0	-161085.0	3526.0	7629.0
13	17	31	2	207	116.0	-161140.0	3532.0	-13829.0
13	17	31	2	240	117.0	-161641.0	3531.0	-22137.0
13	17	31	2	241	118.0	-162084.0	3559.0	-23020.0
13	17	31	2	242	119.0	-162662.0	3566.0	-22583.0
13	17	31	2	242	120.0	-163402.0	3571.0	-17765.0
13	17	31	2	243	121.0	-164014.0	3534.0	18044.0
13	17	31	2	285	122.0	-164811.0	3561.0	95441.0
13	17	31	2	285	123.0	-163902.0	3594.0	79992.0
13	17	31	2	286	124.0	-161924.0	3516.0	32916.0
13	17	31	2	287	125.0	-160923.0	3460.0	7771.0
13	17	31	2	287	126.0	-160760.0	3504.0	-13539.0
13	17	31	2	288	127.0	-162704.0	3566.0	-22239.0
13	17	31	2	289	128.0	-165760.0	3540.0	-23259.0
13	17	31	2	289	129.0	-168899.0	3583.0	-22305.0
13	17	31	2	290	130.0	-172164.0	3579.0	-17109.0
13	17	31	2	290	131.0	-176449.0	3564.0	21711.0
13	17	31	2	291	133.0	-176599.0	3580.0	77495.0
13	17	31	2	292	134.0	-173824.0	3575.0	31283.0
13	17	31	2	292	135.0	-170456.0	3563.0	7774.0
13	17	31	2	307	136.0	-166451.0	3548.0	-13674.0
13	17	31	2	308	137.0	-162257.0	3558.0	-22482.0
13	17	31	2	308	138.0	-158569.0	3523.0	-23201.0
13	17	31	2	309	156.0	-155336.0	3526.0	-12740.0
13	17	31	2	310	157.0	-156092.0	3531.0	-22773.0
13	17	31	2	310	158.0	-156903.0	3544.0	-23384.0
13	17	31	2	311	159.0	-157987.0	3512.0	-22281.0
13	17	31	2	311	160.0	-159106.0	3523.0	-15467.0
13	17	31	2	312	161.0	-160133.0	3556.0	33234.0
13	17	31	2	312	162.0	-161016.0	3539.0	102662.0
13	17	31	2	331	163.0	-161454.0	3526.0	71790.0
13	17	31	2	332	164.0	-161846.0	3481.0	33038.0
13	17	31	2	333	165.0	-162166.0	3551.0	11026.0
13	17	31	2	334	166.0	-162918.0	3558.0	-12924.0
13	17	31	2	334	167.0	-164120.0	3515.0	-22762.0
13	17	31	2	335	168.0	-165639.0	3529.0	-23239.0
13	17	31	2	336	169.0	-167220.0	3523.0	-22285.0
13	17	31	2	336	170.0	-168866.0	3466.0	-13662.0
13	17	31	2	337	171.0	-170447.0	3519.0	40294.0
13	17	31	2	338	172.0	-171622.0	3512.0	102462.0
13	17	31	2	338	173.0	-172319.0	3496.0	68118.0
13	17	31	2	339	174.0	-172882.0	3456.0	33648.0
13	17	31	2	339	175.0	-173495.0	3476.0	12049.0
13	17	31	2	340	176.0	-174187.0	3489.0	-12516.0
13	17	31	2	341	177.0	-175116.0	3468.0	-22837.0
13	17	31	2	341	178.0	-175566.0	3514.0	-23699.0
13	17	31	2	342	179.0	-175423.0	3533.0	-22496.0
13	17	31	2	343	180.0	-174901.0	3501.0	-13940.0
13	17	31	2	343	181.0	-173747.0	3476.0	39819.0
13	17	31	2	344	182.0	-172629.0	3464.0	102782.0
13	17	31	2	344	183.0	-171647.0	3498.0	68113.0
13	17	31	2	345	184.0	-170756.0	3491.0	32532.0
13	17	31	2	375	185.0	-170553.0	3493.0	11163.0
13	17	31	2	376	186.0	-170514.0	3462.0	-12932.0
13	17	31	2	376	187.0	-170249.0	3434.0	-23102.0
13	17	31	2	377	188.0	-169761.0	3478.0	-23679.0
13	17	31	2	378	189.0	-169099.0	3470.0	-22344.0
13	17	31	2	378	190.0	-168383.0	3490.0	-12675.0
13	17	31	2	379	191.0	-167479.0	3474.0	44691.0
13	17	31	2	380	192.0	-166134.0	3467.0	102380.0
13	17	31	2	380	193.0	-164653.0	3414.0	66018.0
13	17	31	2	381	194.0	-163177.0	3461.0	33341.0
13	17	31	2	381	195.0	-161949.0	3484.0	12037.0
13	17	31	2	382	196.0	-161031.0	3464.0	-12971.0
13	17	31	2	383	197.0	-160097.0	3443.0	-23203.0
13	17	31	2	383	198.0	-158985.0	3420.0	-23951.0
13	17	31	2	384	199.0	-157642.0	3406.0	-22534.0
13	17	31	2	385	201.0	-155585.0	3426.0	47624.0
13	17	31	2	385	202.0	-155177.0	3401.0	103556.0
13	17	31	2	386	203.0	-154972.0	3416.0	65690.0
13	17	31	2	387	204.0	-154906.0	3432.0	33581.0
13	17	31	2	387	205.0	-155064.0	3427.0	11726.0
13	17	31	2	388	206.0	-155741.0	3432.0	-13096.0
13	17	31	2	421	207.0	-156860.0	3409.0	-23466.0
13	17	31	2	421	208.0	-157679.0	3409.0	-23889.0
13	17	31	2	422	209.0	-158282.0	3415.0	-21924.0
13	17	31	2	423	210.0	-158858.0	3430.0	-8865.0
13	17	31	2	423	211.0	-159364.0	3391.0	56786.0
13	17	31	2	424	212.0	-160279.0	3341.0	101811.0
13	17	31	2	425	213.0	-161497.0	3302.0	62703.0
13	17	31	2	425	214.0	-163035.0	3299.0	35435.0
13	17	31	2	426	215.0	-165073.0	3333.0	13848.0
13	17	31	2	427	216.0	-167427.0	3376.0	-13138.0
13	17	31	2	427	217.0	-169636.0	3353.0	-23707.0
13	17	31	2	428	218.0	-171495.0	3353.0	-23876.0
13	17	31	2	429	219.0	-172887.0	3349.0	-22177.0
13	17	31	2	429	220.0	-173819.0	3342.0	-8377.0
13	17	31	2	430	221.0	-174154.0	3346.0	58736.0
13	17	31	2	431	223.0	-174026.0	3385.0	62578.0
13	17	31	2	431	224.0	-174008.0	3337.0	35428.0
13	17	31	2	432	225.0	-173899.0	3340.0	13236.0
13	17	31	2	432	226.0	-173604.0	3316.0	-13402.0
13	17	31	2	433	227.0	-173190.0	3321.0	-23717.0
13	17	31	2	434	228.0	-172554.0	3342.0	-24160.0
13	17	31	2	434	229.0	-171924.0	3356.0	-22461.0
13	17	31	2	465	230.0	-171116.0	3322.0	-8512.0
13	17	31	2	466	231.0	-170227.0	3322.0	59153.0
13	17	31	2	466	232.0	-169019.0	3308.0	101931.0
13	17	31	2	467	233.0	-167488.0	3320.0	61863.0
13	17	31	2	468	234.0	-165856.0	3294.0	34866.0
13	17	31	2	468	235.0	-164482.0	3288.0	12657.0
13	17	31	2	511	236.0	-163356.0	3281.0	-14053.0
13	17	31	2	511	237.0	-162195.0	3304.0	-24151.0
13	17	31	2	556	238.0	-161229.0	3264.0	-24372.0
13	17	31	2	557	239.0	-160069.0	3273.0	-22543.0
13	17	31	2	557	240.0	-158835.0	3260.0	-7433.0
13	17	31	2	558	241.0	-157854.0	3259.0	62253.0
13	17	31	2	558	242.0	-156657.0	3224.0	100994.0
13	17	31	2	559	243.0	-155281.0	3258.0	59758.0
13	17	31	2	560	244.0	-154139.0	3294.0	34643.0
13	17	31	2	561	246.0	-152129.0	3300.0	-14046.0
13	17	31	2	561	247.0	-151315.0	3299.0	-24170.0
13	17	31	2	562	248.0	-150665.0	3329.0	-24528.0
13	17	31	2	563	249.0	-150299.0	3292.0	-22727.0
13	17	31	2	563	250.0	-150141.0	3196.0	-6677.0
13	17	31	2	564	251.0	-149986.0	3230.0	63718.0
13	17	31	2	565	252.0	-149529.0	3258.0	100321.0
13	17	31	2	565	12.0	-160852.0	3236.0	-24713.0
13	17	31	2	566	13.0	-162171.0	3193.0	-22328.0
13	17	31	2	567	35.0	-159154.0	3113.0	74703.0
13	17	31	2	567	36.0	-158232.0	3106.0	96269.0
13	17	31	2	568	37.0	-157329.0	3143.0	57866.0
13	17	31	2	569	38.0	-156609.0	3168.0	37232.0
13	17	31	2	569	39.0	-155946.0	3189.0	13029.0
13	17	31	2	570	40.0	-155930.0	3141.0	-15677.0
13	17	31	2	601	41.0	-155685.0	3128.0	-25163.0
13	17	31	2	602	42.0	-155386.0	3129.0	-25021.0
13	17	31	2	603	43.0	-155302.0	3118.0	-22493.0
13	17	31	2	603	44.0	-155171.0	3093.0	831.0
13	17	31	2	604	45.0	-155156.0	3114.0	78048.0
13	17	31	2	605	46.0	-155232.0	3049.0	95114.0
13	17	31	2	605	47.0	-154664.0	3088.0	57173.0
13	17	31	2	606	48.0	-153916.0	3142.0	37321.0
13	17	31	2	607	49.0	-153219.0	3099.0	12147.0
13	17	31	2	607	50.0	-153047.0	3082.0	-16453.0
13	17	31	2	608	51.0	-153304.0	3097.0	-25412.0
13	17	31	2	609	52.0	-154182.0	3076.0	-25526.0
13	17	31	2	609	53.0	-155116.0	3079.0	-22694.0
13	17	31	2	610	54.0	-155590.0	3076.0	801.0
13	17	31	2	610	55.0	-155914.0	3058.0	78490.0
13	17	31	2	611	57.0	-156644.0	3061.0	56878.0
13	17	31	2	612	58.0	-156987.0	3136.0	37044.0
13	17	31	2	612	59.0	-157593.0	3044.0	12572.0
13	17	31	2	613	60.0	-158691.0	3062.0	-16019.0
13	17	31	2	613	61.0	-159449.0	3075.0	-25637.0
13	17	31	2	614	62.0	-160257.0	3018.0	-25530.0
13	17	31	2	644	63.0	-161026.0	3024.0	-22334.0
13	17	31	2	645	64.0	-161361.0	3061.0	2896.0
13	17	31	2	646	65.0	-161837.0	3033.0	81011.0
13	17	31	2	646	66.0	-162647.0	3023.0	94091.0
13	17	31	2	647	67.0	-163444.0	2960.0	56768.0
13	17	31	2	648	68.0	-163972.0	2963.0	36756.0
13	17	31	2	648	69.0	-164296.0	3019.0	12201.0
13	17	31	2	649	70.0	-164714.0	2991.0	-16098.0
13	17	31	2	650	71.0	-164544.0	3006.0	-25691.0
13	17	31	2	650	72.0	-164350.0	3029.0	-25576.0
13	17	31	2	651	73.0	-164466.0	3008.0	-22267.0
13	17	31	2	652	74.0	-164194.0	3003.0	4835.0
13	17	31	2	652	75.0	-164317.0	2996.0	82883.0
13	17	31	2	653	76.0	-164537.0	3037.0	91884.0
13	17	31	2	654	77.0	-164850.0	3003.0	56365.0
13	17	31	2	654	80.0	-165547.0	2985.0	-17061.0
13	17	31	2	655	81.0	-165272.0	2982.0	-26072.0
13	17	31	2	656	82.0	-164888.0	2978.0	-25883.0
13	17	31	2	656	83.0	-164334.0	2983.0	-22326.0
13	17	31	2	657	84.0	-163613.0	2969.0	5114.0
13	17	31	2	657	85.0	-162742.0	2977.0	83439.0
13	17	31	2	691	86.0	-161548.0	2911.0	91219.0
13	17	31	2	692	87.0	-160406.0	2869.0	55488.0
13	17	31	2	692	88.0	-158992.0	2866.0	37168.0
13	17	31	2	693	89.0	-157732.0	2901.0	11816.0
13	17	31	2	693	90.0	-156664.0	2906.0	-17151.0
13	17	31	2	694	91.0	-155342.0	2881.0	-26316.0
13	17	31	2	735	92.0	-153801.0	2900.0	-25800.0
13	17	31	2	737	93.0	-152646.0	2868.0	-22152.0
13	17	31	2	737	94.0	-152026.0	2881.0	7726.0
13	17	31	2	738	95.0	-151787.0	2909.0	86009.0
13	17	31	2	738	96.0	-151614.0	2899.0	88993.0
13	17	31	2	739	97.0	-151334.0	2921.0	55018.0
13	17	31	2	740	98.0	-151009.0	2889.0	37468.0
13	17	31	2	740	99.0	-150825.0	2863.0	10887.0
13	17	31	2	741	100.0	-151156.0	2861.0	-17789.0
13	17	31	2	741	102.0	-151641.0	2845.0	-25917.0
13	17	31	2	742	103.0	-151637.0	2856.0	-22065.0
13	17	31	2	742	104.0	-151754.0	2848.0	9879.0
13	17	31	2	743	105.0	-152338.0	2822.0	87817.0
13	17	31	2	743	106.0	-152967.0	2768.0	88151.0
13	17	31	2	744	107.0	-153490.0	2799.0	55087.0
13	17	31	2	745	108.0	-153892.0	2822.0	36938.0
13	17	31	2	745	125.0	-170957.0	2681.0	90771.0
13	17	31	2	746	126.0	-171806.0	2683.0	85329.0
13	17	31	2	746	127.0	-172347.0	2701.0	53366.0
13	17	31	2	747	128.0	-172717.0	2685.0	36565.0
13	17	31	2	747	129.0	-172939.0	2676.0	8955.0
13	17	31	2	748	130.0	-172715.0	2700.0	-19062.0
13	17	31	2	780	131.0	-172079.0	2701.0	-26831.0
13	17	31	2	781	132.0	-171043.0	2707.0	-26495.0
13	17	31	2	782	133.0	-169782.0	2714.0	-21505.0
13	17	31	2	782	134.0	-168707.0	2676.0	15467.0
13	17	31	2	783	135.0	-167433.0	2669.0	91894.0
13	17	31	2	783	136.0	-165928.0	2647.0	84239.0
13	17	31	2	784	137.0	-164501.0	2653.0	54330.0
13	17	31	2	785	138.0	-162923.0	2673.0	36984.0
13	17	31	2	785	139.0	-161676.0	2686.0	8579.0
13	17	31	2	786	140.0	-160689.0	2629.0	-19511.0
13	17	31	2	786	141.0	-159927.0	2609.0	-27278.0
13	17	31	2	787	142.0	-158980.0	2633.0	-26533.0
13	17	31	2	787	143.0	-158184.0	2634.0	-21073.0
13	17	31	2	788	144.0	-157397.0	2626.0	17291.0
13	17	31	2	789	145.0	-157188.0	2605.0	92700.0
13	17	31	2	789	147.0	-156922.0	2621.0	54119.0
13	17	31	2	790	148.0	-156696.0	2643.0	36296.0
13	17	31	2	790	149.0	-156126.0	2634.0	7740.0
13	17	31	2	791	150.0	-155545.0	2579.0	-20077.0
13	17	31	2	791	151.0	-154881.0	2559.0	-27227.0
13	17	31	2	792	152.0	-154348.0	2556.0	-26372.0
13	17	31	2	871	153.0	-153931.0	2567.0	-20709.0
13	17	31	2	872	154.0	-153496.0	2601.0	20778.0
13	17	31	2	873	155.0	-153267.0	2555.0	94533.0
13	17	31	2	873	156.0	-153504.0	2548.0	81161.0
13	17	31	2	874	157.0	-154064.0	2561.0	54063.0
13	17	31	2	874	158.0	-154851.0	2519.0	37317.0
13	17	31	2	875	159.0	-155662.0	2506.0	7766.0
13	17	31	2	876	160.0	-156699.0	2487.0	-20170.0
13	17	31	2	876	161.0	-157875.0	2508.0	-27421.0
13	17	31	2	877	162.0	-159196.0	2572.0	-26759.0
13	17	31	2	877	163.0	-160222.0	2552.0	-20772.0
13	17	31	2	878	164.0	-161107.0	2524.0	21788.0
13	17	31	2	879	165.0	-161717.0	2528.0	95191.0
13	17	31	2	880	166.0	-162301.0	2453.0	81359.0
13	17	31	2	881	167.0	-162292.0	2436.0	53934.0
13	17	31	2	881	169.0	-161728.0	2473.0	6918.0
13	17	31	2	882	192.0	-172417.0	2438.0	-24879.0
13	17	31	2	882	193.0	-173859.0	2417.0	-6529.0
13	17	31	2	883	194.0	-174336.0	2436.0	59798.0
13	17	31	2	883	195.0	-174374.0	2426.0	96473.0
13	17	31	2	884	196.0	-173912.0	2333.0	76750.0
13	17	31	2	885	197.0	-173157.0	2347.0	69728.0
13	17	31	2	916	198.0	-172520.0	2363.0	44223.0
13	17	31	2	916	199.0	-171921.0	2299.0	5625.0
13	17	31	2	917	200.0	-172034.0	2338.0	-22396.0
13	17	31	2	917	201.0	-171495.0	2312.0	-28573.0
13	17	31	2	918	202.0	-169980.0	2341.0	-27432.0
13	17	31	2	919	203.0	-167190.0	2323.0	-19588.0
13	17	31	2	919	204.0	-163851.0	2344.0	31824.0
13	17	31	2	920	205.0	-160189.0	2276.0	101319.0
13	17	31	2	920	206.0	-157466.0	2286.0	78878.0
13	17	31	2	921	207.0	-155241.0	2289.0	56844.0
13	17	31	2	922	208.0	-154584.0	2294.0	38574.0
13	17	31	2	922	209.0	-154639.0	2247.0	6048.0
13	17	31	2	923	210.0	-155811.0	2273.0	-21784.0
13	17	31	2	923	211.0	-157164.0	2271.0	-28452.0
13	17	31	2	924	212.0	-158563.0	2287.0	-27439.0
13	17	31	2	924	214.0	-158761.0	2269.0	31534.0
13	17	31	2	935	215.0	-157542.0	2256.0	97661.0
13	17	31	2	935	216.0	-155097.0	2231.0	76806.0
13	17	31	2	936	217.0	-152662.0	2256.0	54415.0
13	17	31	2	936	218.0	-149701.0	2243.0	35873.0
13	17	31	2	937	219.0	-147549.0	2235.0	4080.0
13	17	31	2	938	220.0	-146448.0	2266.0	-22771.0
13	17	31	2	938	221.0	-146761.0	2274.0	-28968.0
13	17	31	2	960	222.0	-148492.0	2267.0	-27682.0
13	17	31	2	961	223.0	-151229.0	2273.0	-19333.0
13	17	31	2	961	224.0	-154344.0	2313.0	32554.0
13	17	31	2	962	225.0	-157546.0	2259.0	98753.0
13	17	31	2	962	226.0	-160361.0	2230.0	75882.0
13	17	31	2	963	227.0	-162666.0	2220.0	53636.0
13	17	31	2	964	228.0	-164366.0	2193.0	36362.0
13	17	31	2	964	229.0	-164934.0	2181.0	4514.0
13	17	31	2	965	230.0	-164338.0	2219.0	-23026.0
13	17	31	2	965	231.0	-162989.0	2222.0	-28975.0
13	17	31	2	966	232.0	-161235.0	2203.0	-27762.0
13	17	31	2	967	233.0	-158781.0	2243.0	-19441.0
13	17	31	2	967	234.0	-156032.0	2219.0	33613.0
13	17	31	2	968	235.0	-153411.0	2197.0	99560.0
13	17	31	2	968	236.0	-150831.0	2209.0	76085.0
13	17	31	2	969	237.0	-148567.0	2228.0	54193.0
13	17	31	2	969	238.0	-147052.0	2254.0	36168.0
13	17	31	2	970	239.0	-146134.0	2275.0	3643.0
13	17	31	2	971	240.0	-145471.0	2257.0	-23083.0
13	17	31	2	971	241.0	-144819.0	2222.0	-28996.0
13	17	31	2	972	242.0	-143761.0	2209.0	-28002.0
13	17	31	3	5	243.0	-142697.0	2207.0	-18879.0
13	17	31	3	5	244.0	-141776.0	2185.0	35771.0
13	17	31	3	6	245.0	-140854.0	2186.0	99188.0
13	17	31	3	6	246.0	-140032.0	2158.0	75479.0
13	17	31	3	7	247.0	-139759.0	2180.0	54702.0
13	17	31	3	8	248.0	-139429.0	2181.0	35424.0
13	17	31	3	8	249.0	-139661.0	2158.0	3076.0
13	17	31	3	9	250.0	-140216.0	2162.0	-23361.0
13	17	31	3	9	251.0	-140690.0	2199.0	-29316.0
13	17	31	3	10	252.0	-141432.0	2170.0	-28064.0
13	17	31	3	11	253.0	-142842.0	2169.0	-18452.0
13	17	31	3	11	254.0	-144781.0	2236.0	38018.0
13	17	31	3	12	255.0	-146809.0	2168.0	100065.0
13	17	31	3	12	0.0	-149068.0	2134.0	74771.0
13	17	31	3	13	1.0	-151176.0	2170.0	54471.0
13	17	31	3	14	3.0	-155676.0	2143.0	2688.0
13	17	31	3	14	4.0	-157578.0	2122.0	-23767.0
13	17	31	3	15	5.0	-159457.0	2126.0	-29467.0
13	17	31	3	15	6.0	-160972.0	2140.0	-28275.0
13	17	31	3	16	7.0	-162331.0	2169.0	-18123.0
13	17	31	3	16	8.0	-163431.0	2179.0	40034.0
13	17	31	3	50	9.0	-163907.0	2212.0	100637.0
13	17	31	3	51	10.0	-163813.0	2208.0	74661.0
13	17	31	3	52	11.0	-163603.0	2181.0	54815.0
13	17	31	3	52	12.0	-163231.0	2131.0	34909.0
13	17	31	3	53	13.0	-163006.0	2131.0	2305.0
13	17	31	3	54	14.0	-163477.0	2199.0	-23711.0
13	17	31	3	54	15.0	-164087.0	2175.0	-29681.0
13	17	31	3	55	16.0	-164389.0	2183.0	-28182.0
13	17	31	3	55	17.0	-164397.0	2193.0	-15785.0
13	17	31	3	56	18.0	-164329.0	2159.0	46164.0
13	17	31	3	57	19.0	-164015.0	2143.0	99384.0
13	17	31	3	57	20.0	-163289.0	2154.0	73138.0
13	17	31	3	58	21.0	-162891.0	2183.0	56351.0
13	17	31	3	58	22.0	-162899.0	2166.0	35921.0
13	17	31	3	59	23.0	-163421.0	2122.0	2779.0
13	17	31	3	60	26.0	-162321.0	2130.0	-27882.0
13	17	31	3	60	27.0	-161882.0	2153.0	-15346.0
13	17	31	3	61	28.0	-161927.0	2153.0	47508.0
13	17	31	3	61	29.0	-161709.0	2129.0	99711.0
13	17	31	3	62	30.0	-161487.0	2139.0	74521.0
13	17	31	3	62	31.0	-161624.0	2115.0	58535.0
13	17	31	3	95	32.0	-161692.0	2119.0	37445.0
13	17	31	3	96	33.0	-162172.0	2094.0	3119.0
13	17	31	3	97	34.0	-162977.0	2122.0	-23703.0
13	17	31	3	97	35.0	-163854.0	2101.0	-29570.0
13	17	31	3	98	36.0	-164395.0	2134.0	-27407.0
13	17	31	3	99	37.0	-165366.0	2131.0	-10705.0
13	17	31	3	99	38.0	-166866.0	2132.0	58806.0
13	17	31	3	100	39.0	-167872.0	2136.0	99013.0
13	17	31	3	100	40.0	-168516.0	2148.0	73849.0
13	17	31	3	101	41.0	-169165.0	2146.0	62546.0
13	17	31	3	101	42.0	-169441.0	2089.0	37946.0
13	17	31	3	102	43.0	-169664.0	2062.0	2161.0
13	17	31	3	103	44.0	-170132.0	2121.0	-23756.0
13	17	31	3	103	45.0	-170643.0	2096.0	-29637.0
13	17	31	3	104	46.0	-170497.0	2144.0	-26905.0
13	17	31	3	104	48.0	-170127.0	2105.0	65043.0
13	17	31	3	105	49.0	-169956.0	2096.0	95695.0
13	17	31	3	106	50.0	-169684.0	2143.0	73246.0
13	17	31	3	106	51.0	-169401.0	2108.0	63428.0
13	17	31	3	107	52.0	-169331.0	2123.0	38086.0
13	17	31	3	107	53.0	-169339.0	2119.0	2682.0
13	17	31	3	140	54.0	-169549.0	2053.0	-23389.0
13	17	31	3	141	55.0	-169591.0	2084.0	-29511.0
13	17	31	3	141	56.0	-169407.0	2085.0	-26312.0
13	17	31	3	142	57.0	-169189.0	2080.0	-2625.0
13	17	31	3	142	58.0	-169017.0	2109.0	69273.0
13	17	31	3	151	59.0	-168682.0	2139.0	93114.0
13	17	31	3	151	60.0	-167826.0	2122.0	72835.0
13	17	31	3	152	61.0	-166797.0	2101.0	64391.0
13	17	31	3	152	62.0	-165701.0	2129.0	37923.0
13	17	31	3	153	63.0	-164320.0	2086.0	1682.0
13	17	31	3	153	64.0	-163127.0	2078.0	-23649.0
13	17	31	3	154	65.0	-161731.0	2101.0	-29664.0
13	17	31	3	155	66.0	-160254.0	2119.0	-26364.0
13	17	31	3	155	67.0	-159033.0	2193.0	-678.0
13	17	31	3	156	68.0	-157989.0	2214.0	71474.0
13	17	31	3	156	70.0	-156642.0	2077.0	72358.0
13	17	31	3	157	71.0	-156106.0	2091.0	64434.0
13	17	31	3	157	72.0	-155498.0	2078.0	37063.0
13	17	31	3	158	73.0	-155022.0	2057.0	1363.0
13	17	31	3	158	74.0	-154632.0	2088.0	-23903.0
13	17	31	3	159	75.0	-154347.0	2104.0	-30178.0
13	17	31	3	160	76.0	-153997.0	2056.0	-26754.0
13	17	31	3	185	77.0	-153681.0	2083.0	-2511.0
13	17	31	3	186	78.0	-153377.0	2154.0	68370.0
13	17	31	3	186	79.0	-153304.0	2128.0	91561.0
13	17	31	3	187	80.0	-152881.0	2068.0	70998.0
13	17	31	3	188	81.0	-152582.0	2056.0	61163.0
13	17	31	3	188	82.0	-152858.0	2036.0	34509.0
13	17	31	3	189	83.0	-152831.0	2048.0	-405.0
13	17	31	3	190	84.0	-152851.0	2086.0	-25151.0
13	17	31	3	190	85.0	-153258.0	2074.0	-30585.0
13	17	31	3	191	86.0	-153898.0	2069.0	-27479.0
13	17	31	3	192	87.0	-154832.0	2133.0	-5826.0
13	17	31	3	192	88.0	-156144.0	2121.0	64789.0
13	17	31	3	193	89.0	-157514.0	2092.0	91654.0
13	17	31	3	194	90.0	-159213.0	2091.0	68344.0
13	17	31	3	194	91.0	-160892.0	2071.0	57756.0
13	17	31	3	195	93.0	-164663.0	2103.0	-1676.0
13	17	31	3	196	94.0	-166422.0	2121.0	-25810.0
13	17	31	3	196	95.0	-167851.0	2141.0	-30939.0
13	17	31	3	204	96.0	-169267.0	2087.0	-28207.0
13	17	31	3	205	97.0	-170509.0	2097.0	-8284.0
13	17	31	3	205	98.0	-171490.0	2141.0	61793.0
13	17	31	3	231	99.0	-172214.0	2096.0	93222.0
13	17	31	3	232	100.0	-172747.0	2109.0	67300.0
13	17	31	3	233	101.0	-173272.0	2094.0	54428.0
13	17	31	3	233	102.0	-173794.0	2094.0	30974.0
13	17	31	3	234	103.0	-174359.0	2051.0	-2260.0
13	17	31	3	234	104.0	-175124.0	2063.0	-26252.0
13	17	31	3	235	105.0	-176004.0	2099.0	-31225.0
13	17	31	3	236	106.0	-176663.0	2123.0	-27831.0
13	17	31	3	236	107.0	-177216.0	2085.0	-5727.0
13	17	31	3	237	108.0	-177801.0	2112.0	65076.0
13	17	31	3	237	109.0	-178352.0	2142.0	89929.0
13	17	31	3	238	110.0	-178833.0	2108.0	65689.0
13	17	31	3	239	111.0	-178966.0	2116.0	54109.0
13	17	31	3	239	112.0	-178746.0	2112.0	28131.0
13	17	31	3	240	113.0	-178384.0	2108.0	-2667.0
13	17	31	3	240	115.0	-177151.0	2116.0	-31225.0
13	17	31	3	241	116.0	-176869.0	2118.0	-28335.0
13	17	31	3	242	117.0	-176114.0	2133.0	-6565.0
13	17	31	3	242	118.0	-175049.0	2119.0	65802.0
13	17	31	3	243	119.0	-173266.0	2131.0	91121.0
13	17	31	3	243	120.0	-171292.0	2143.0	65633.0
13	17	31	3	244	121.0	-169072.0	2132.0	53270.0
13	17	31	3	321	122.0	-165903.0	2137.0	24012.0
13	17	31	3	321	123.0	-161509.0	2113.0	-2826.0
13	17	31	3	322	124.0	-158127.0	2069.0	-23266.0
13	17	31	3	324	125.0	-155721.0	2101.0	-31096.0
13	17	31	3	325	126.0	-155012.0	2068.0	-27847.0
13	17	31	3	325	127.0	-156935.0	2058.0	-2959.0
13	17	31	3	326	128.0	-159601.0	2099.0	67997.0
13	17	31	3	326	129.0	-161752.0	2041.0	87446.0
13	17	31	3	327	130.0	-164249.0	2043.0	65064.0
13	17	31	3	328	131.0	-166097.0	2040.0	52126.0
13	17	31	3	328	132.0	-165699.0	2111.0	19939.0
13	17	31	3	329	133.0	-164348.0	2109.0	-26.0
13	17	31	3	330	134.0	-162536.0	2134.0	-19421.0
13	17	31	3	330	135.0	-159721.0	2121.0	-31157.0
13	17	31	3	331	136.0	-156438.0	2097.0	-28500.0
13	17	31	3	331	138.0	-150527.0	2129.0	68003.0
13	17	31	3	332	161.0	-158378.0	2089.0	37725.0
13	17	31	3	332	162.0	-158924.0	2115.0	8194.0
13	17	31	3	333	163.0	-159760.0	2133.0	15744.0
13	17	31	3	334	164.0	-160371.0	2043.0	-9216.0
13	17	31	3	334	165.0	-161121.0	2081.0	-31210.0
13	17	31	3	335	166.0	-161669.0	2066.0	-29655.0
13	17	31	3	366	167.0	-162408.0	2123.0	-6396.0
13	17	31	3	367	168.0	-162904.0	2088.0	68616.0
13	17	31	3	367	169.0	-163359.0	2053.0	89898.0
13	17	31	3	368	170.0	-163819.0	2079.0	60499.0
13	17	31	3	369	171.0	-164273.0	2094.0	28973.0
13	17	31	3	369	172.0	-164793.0	2087.0	11281.0
13	17	31	3	370	173.0	-165078.0	2086.0	17268.0
13	17	31	3	370	174.0	-165326.0	2061.0	-7923.0
13	17	31	3	371	175.0	-165461.0	2094.0	-30119.0
13	17	31	3	372	176.0	-165637.0	2096.0	-29955.0
13	17	31	3	372	177.0	-165653.0	2047.0	-5951.0
13	17	31	3	373	178.0	-165786.0	2006.0	70323.0
13	17	31	3	373	179.0	-166223.0	2079.0	89753.0
13	17	31	3	374	180.0	-166431.0	2135.0	58843.0
13	17	31	3	375	181.0	-166449.0	2103.0	21924.0
13	17	31	3	375	183.0	-166064.0	2105.0	15414.0
13	17	31	3	376	184.0	-165474.0	2114.0	-4167.0
13	17	31	3	376	185.0	-164900.0	2138.0	-27731.0
13	17	31	3	377	186.0	-164469.0	2140.0	-29617.0
13	17	31	3	378	187.0	-164351.0	2155.0	-3852.0
13	17	31	3	378	188.0	-164612.0	2123.0	71367.0
13	17	31	3	410	189.0	-164884.0	2068.0	87077.0
13	17	31	3	411	190.0	-165369.0	2094.0	54007.0
13	17	31	3	411	191.0	-165731.0	2058.0	14053.0
13	17	31	3	412	192.0	-165960.0	2043.0	18589.0
13	17	31	3	413	193.0	-165905.0	2031.0	12943.0
13	17	31	3	413	194.0	-165902.0	2048.0	859.0
13	17	31	3	414	195.0	-166007.0	2034.0	-25403.0
13	17	31	3	414	196.0	-166411.0	2034.0	-29922.0
13	17	31	3	415	197.0	-166924.0	2087.0	-4148.0
13	17	31	3	416	198.0	-167439.0	2070.0	72211.0
13	17	31	3	416	199.0	-167679.0	2069.0	85954.0
13	17	31	3	417	200.0	-167624.0	2112.0	48584.0
13	17	31	3	417	201.0	-167629.0	2059.0	11467.0
13	17	31	3	418	202.0	-167261.0	2052.0	19249.0
13	17	31	3	419	203.0	-166820.0	2076.0	13401.0
13	17	31	3	419	205.0	-165441.0	2068.0	-24291.0
13	17	31	3	420	206.0	-164721.0	2068.0	-30296.0
13	17	31	3	420	207.0	-163890.0	2123.0	-3762.0
13	17	31	3	421	208.0	-163467.0	2076.0	72929.0
13	17	31	3	421	209.0	-163081.0	2048.0	85173.0
13	17	31	3	422	210.0	-162292.0	2116.0	42845.0
13	17	31	3	501	211.0	-161517.0	2133.0	10238.0
13	17	31	3	502	212.0	-161123.0	2058.0	18876.0
13	17	31	3	502	213.0	-160930.0	2031.0	14838.0
13	17	31	3	503	214.0	-160743.0	2041.0	4246.0
13	17	31	3	504	215.0	-160843.0	2071.0	-22719.0
13	17	31	3	504	216.0	-160759.0	2058.0	-29819.0
13	17	31	3	505	217.0	-160554.0	2042.0	-1330.0
13	17	31	3	505	218.0	-159841.0	2057.0	75004.0
13	17	31	3	506	219.0	-159201.0	2064.0	82596.0
13	17	31	3	507	220.0	-158124.0	2076.0	32932.0
13	17	31	3	507	221.0	-156501.0	2077.0	11243.0
13	17	31	3	508	222.0	-155495.0	2086.0	18223.0
13	17	31	3	509	223.0	-154794.0	2036.0	15766.0
13	17	31	3	509	224.0	-153707.0	1976.0	5702.0
13	17	31	3	510	225.0	-153029.0	2028.0	-18756.0
13	17	31	3	510	228.0	-153079.0	2085.0	74260.0
13	17	31	3	511	250.0	-159246.0	2121.0	17104.0
13	17	31	3	512	251.0	-158297.0	2121.0	14538.0
13	17	31	3	512	252.0	-156929.0	2014.0	16798.0
13	17	31	3	513	253.0	-155242.0	1971.0	15644.0
13	17	31	3	514	254.0	-153411.0	2043.0	8095.0
13	17	31	3	515	255.0	-151666.0	2078.0	-13724.0
13	17	31	3	515	0.0	-150391.0	2120.0	-28158.0
13	17	31	3	546	1.0	-149683.0	2129.0	-2058.0
13	17	31	3	547	2.0	-149557.0	2116.0	74431.0
13	17	31	3	548	3.0	-149756.0	2097.0	74576.0
13	17	31	3	548	4.0	-150340.0	2179.0	12398.0
13	17	31	3	549	5.0	-151523.0	2081.0	15661.0
13	17	31	3	550	6.0	-152815.0	2024.0	16539.0
13	17	31	3	550	7.0	-154272.0	2017.0	15049.0
13	17	31	3	551	8.0	-155509.0	2043.0	8551.0
13	17	31	3	551	9.0	-156354.0	2026.0	-10879.0
13	17	31	3	552	10.0	-157177.0	2050.0	-26519.0
13	17	31	3	553	11.0	-158237.0	2069.0	-766.0
13	17	31	3	553	12.0	-158820.0	2080.0	74800.0
13	17	31	3	554	13.0	-159658.0	2053.0	67199.0
13	17	31	3	555	14.0	-160899.0	2106.0	6901.0
13	17	31	3	555	15.0	-162474.0	2044.0	16945.0
13	17	31	3	556	16.0	-164363.0	2054.0	16412.0
13	17	31	3	556	17.0	-166072.0	2034.0	15214.0
13	17	31	3	557	18.0	-167372.0	2054.0	9839.0
13	17	31	3	558	19.0	-168246.0	2075.0	-7087.0
13	17	31	3	558	20.0	-168731.0	2077.0	-23395.0
13	17	31	3	559	21.0	-168988.0	2078.0	-65.0
13	17	31	3	559	22.0	-168856.0	2126.0	72254.0
13	17	31	3	590	23.0	-168602.0	2075.0	61821.0
13	17	31	3	591	24.0	-167446.0	2069.0	5208.0
13	17	31	3	592	25.0	-166232.0	2051.0	17418.0
13	17	31	3	593	26.0	-165667.0	2045.0	16335.0
13	17	31	3	593	27.0	-164972.0	2018.0	14814.0
13	17	31	3	594	28.0	-164545.0	2001.0	10218.0
13	17	31	3	594	29.0	-163720.0	2024.0	-3691.0
13	17	31	3	595	30.0	-163331.0	2059.0	-20462.0
13	17	31	3	596	31.0	-163152.0	2061.0	0.0
13	17	31	3	596	32.0	-163263.0	2054.0	70313.0
13	17	31	3	597	33.0	-162900.0	2092.0	54221.0
13	17	31	3	598	34.0	-162286.0	2074.0	5118.0
13	17	31	3	598	35.0	-161037.0	2094.0	17386.0
13	17	31	3	599	36.0	-159944.0	2027.0	16268.0
13	17	31	3	599	37.0	-159256.0	1940.0	15090.0
13	17	31	3	600	39.0	-157224.0	2033.0	-22.0
13	17	31	3	601	40.0	-156158.0	2068.0	-17210.0
13	17	31	3	601	41.0	-155304.0	2065.0	670.0
13	17	31	3	602	42.0	-153929.0	2069.0	68191.0
13	17	31	3	602	43.0	-152724.0	2125.0	46621.0
13	17	31	3	603	44.0	-151269.0	2110.0	5212.0
13	17	31	3	636	45.0	-150490.0	2048.0	16856.0
13	17	31	3	636	46.0	-149837.0	2001.0	16024.0
13	17	31	3	637	47.0	-149565.0	2006.0	14624.0
13	17	31	3	638	48.0	-149666.0	1976.0	11636.0
13	17	31	3	638	49.0	-150216.0	2036.0	2956.0
13	17	31	3	639	50.0	-151139.0	2030.0	-12559.0
13	17	31	3	640	51.0	-151929.0	1987.0	3001.0
13	17	31	3	641	52.0	-152737.0	1990.0	64838.0
13	17	31	3	641	53.0	-153605.0	2086.0	34555.0
13	17	31	3	642	54.0	-154003.0	2054.0	7768.0
13	17	31	3	642	55.0	-154374.0	1994.0	16161.0
13	17	31	3	643	56.0	-155137.0	1999.0	15679.0
13	17	31	3	644	57.0	-155896.0	1907.0	14692.0
13	17	31	3	645	58.0	-156932.0	1954.0	12433.0
13	17	31	3	645	59.0	-157979.0	1999.0	6871.0
13	17	31	3	646	61.0	-160009.0	1991.0	3911.0
13	17	31	3	646	62.0	-161194.0	2022.0	58824.0
13	17	31	3	647	63.0	-162171.0	2084.0	25569.0
13	17	31	3	648	64.0	-162711.0	2063.0	9455.0
13	17	31	3	648	65.0	-163109.0	2006.0	15629.0
13	17	31	3	649	66.0	-163519.0	1981.0	15336.0
13	17	31	3	649	67.0	-164212.0	1933.0	14534.0
13	17	31	3	681	68.0	-164830.0	1931.0	12293.0
13	17	31	3	724	69.0	-165304.0	1875.0	8858.0
13	17	31	3	725	70.0	-165444.0	1855.0	-957.0
13	17	31	3	726	71.0	-165521.0	1953.0	6624.0
13	17	31	3	727	72.0	-165530.0	1996.0	54046.0
13	17	31	3	727	73.0	-165605.0	2043.0	16428.0
13	17	31	3	728	74.0	-165415.0	2052.0	11478.0
13	17	31	3	729	75.0	-165394.0	1991.0	14865.0
13	17	31	3	729	76.0	-165207.0	1921.0	15156.0
13	17	31	3	730	77.0	-164904.0	1881.0	14289.0
13	17	31	3	730	78.0	-164575.0	1851.0	12495.0
13	17	31	3	731	79.0	-164461.0	1922.0	10465.0
13	17	31	3	732	80.0	-164422.0	1896.0	4992.0
13	17	31	3	733	81.0	-164498.0	1950.0	10333.0
13	17	31	3	734	82.0	-164079.0	2004.0	46254.0
13	17	31	3	734	84.0	-163876.0	1969.0	13076.0
13	17	31	3	735	85.0	-163730.0	2001.0	14395.0
13	17	31	3	735	107.0	-158110.0	1990.0	13706.0
13	17	31	3	736	108.0	-157844.0	1922.0	12721.0
13	17	31	3	770	109.0	-157708.0	1969.0	12292.0
13	17	31	3	771	110.0	-157474.0	2026.0	13743.0
13	17	31	3	772	111.0	-156885.0	2071.0	21793.0
13	17	31	3	773	112.0	-156883.0	2025.0	19886.0
13	17	31	3	774	113.0	-156803.0	2043.0	7304.0
13	17	31	3	774	114.0	-156659.0	1986.0	13604.0
13	17	31	3	775	115.0	-156234.0	1985.0	13796.0
13	17	31	3	776	116.0	-156235.0	1957.0	13603.0
13	17	31	3	777	117.0	-156571.0	1948.0	13345.0
13	17	31	3	777	118.0	-156973.0	1946.0	12323.0
13	17	31	3	778	119.0	-157420.0	1936.0	12148.0
13	17	31	3	779	120.0	-157521.0	2023.0	13817.0
13	17	31	3	779	121.0	-157951.0	1998.0	20277.0
13	17	31	3	780	122.0	-158634.0	2001.0	15209.0
13	17	31	3	781	123.0	-159464.0	2037.0	9823.0
13	17	31	3	781	124.0	-159936.0	1967.0	13130.0
13	17	31	3	782	129.0	-160252.0	2039.0	11886.0
13	17	31	3	782	130.0	-160153.0	1993.0	13664.0
13	17	31	3	783	131.0	-160615.0	2035.0	19228.0
13	17	31	3	784	132.0	-160766.0	2015.0	13146.0
13	17	31	3	784	133.0	-160582.0	1978.0	10649.0
13	17	31	3	785	134.0	-159999.0	2064.0	12769.0
13	17	31	3	822	135.0	-159564.0	2019.0	12990.0
13	17	31	3	823	136.0	-159147.0	2032.0	12453.0
13	17	31	3	823	137.0	-159131.0	2032.0	12503.0
13	17	31	3	824	138.0	-158905.0	2006.0	11894.0
13	17	31	3	825	139.0	-158995.0	2039.0	12198.0
13	17	31	3	825	140.0	-159369.0	2052.0	13749.0
13	17	31	3	826	141.0	-159444.0	2085.0	17117.0
13	17	31	3	827	142.0	-159846.0	2071.0	12354.0
13	17	31	3	827	143.0	-160435.0	2057.0	11323.0
13	17	31	3	828	144.0	-161289.0	2077.0	12497.0
13	17	31	3	829	145.0	-162057.0	2035.0	12526.0
13	17	31	3	829	146.0	-162994.0	2019.0	12398.0
13	17	31	3	830	147.0	-163691.0	2045.0	12514.0
13	17	31	3	830	148.0	-164321.0	2024.0	11617.0
13	17	31	3	831	149.0	-164447.0	2008.0	12246.0
13	17	31	3	831	151.0	-164339.0	2034.0	15978.0
13	17	31	3	832	152.0	-164139.0	2074.0	11638.0
13	17	31	3	833	153.0	-163591.0	2069.0	11263.0
13	17	31	3	833	154.0	-162988.0	1990.0	12118.0
13	17	31	3	834	155.0	-162167.0	2011.0	12316.0
13	17	31	3	834	156.0	-161314.0	2020.0	12230.0
13	17	31	3	835	157.0	-160309.0	2001.0	12353.0
13	17	31	3	860	158.0	-159419.0	2016.0	12606.0
13	17	31	3	861	159.0	-158457.0	1985.0	13071.0
13	17	31	3	862	160.0	-157502.0	2021.0	14741.0
13	17	31	3	863	161.0	-157137.0	2001.0	17237.0
13	17	31	3	864	162.0	-157109.0	2048.0	12788.0
13	17	31	3	864	163.0	-157159.0	2044.0	12011.0
13	17	31	3	865	164.0	-156757.0	2012.0	11486.0
13	17	31	3	866	165.0	-156571.0	1996.0	11334.0
13	17	31	3	866	166.0	-156327.0	1941.0	11487.0
13	17	31	3	867	167.0	-156586.0	2003.0	11721.0
13	17	31	3	868	168.0	-157027.0	1963.0	12918.0
13	17	31	3	868	169.0	-157954.0	1909.0	14078.0
13	17	31	3	869	170.0	-159290.0	1996.0	17324.0
13	17	31	3	870	171.0	-161241.0	1979.0	19068.0
13	17	31	3	871	172.0	-163321.0	1966.0	17028.0
13	17	31	3	871	174.0	-166777.0	1964.0	18610.0
13	17	31	3	872	175.0	-167725.0	2029.0	19808.0
13	17	31	3	873	176.0	-168279.0	1989.0	19676.0
13	17	31	3	873	177.0	-168424.0	1903.0	20327.0
13	17	31	3	874	178.0	-168361.0	1973.0	20220.0
13	17	31	3	874	179.0	-168367.0	1975.0	18453.0
13	17	31	3	907	180.0	-168967.0	1969.0	15497.0
13	17	31	3	908	181.0	-169687.0	2042.0	13772.0
13	17	31	3	908	182.0	-170373.0	1995.0	11098.0
13	17	31	3	909	183.0	-171087.0	2013.0	12124.0
13	17	31	3	910	184.0	-171432.0	2013.0	13596.0
13	17	31	3	910	185.0	-171256.0	1980.0	14291.0
13	17	31	3	911	186.0	-170884.0	1959.0	14811.0
13	17	31	3	912	187.0	-168344.0	1953.0	14199.0
13	17	31	3	912	188.0	-163611.0	1974.0	14531.0
13	17	31	3	913	189.0	-157913.0	1979.0	14209.0
13	17	31	3	914	190.0	-152361.0	1965.0	14757.0
13	17	31	3	914	191.0	-148702.0	1966.0	14903.0
13	17	31	3	915	192.0	-146826.0	1990.0	12078.0
13	17	31	3	916	193.0	-146254.0	2064.0	11851.0
13	17	31	3	916	194.0	-146707.0	2073.0	11811.0
13	17	31	3	917	196.0	-150502.0	1904.0	10979.0
13	17	31	3	917	197.0	-153587.0	1918.0	10974.0
13	17	31	3	918	198.0	-157436.0	1916.0	10461.0
13	17	31	3	919	199.0	-160809.0	1983.0	10994.0
13	17	31	3	919	200.0	-163489.0	1978.0	11909.0
13	17	31	3	950	201.0	-164986.0	2020.0	12183.0
13	17	31	3	951	202.0	-166016.0	2070.0	10851.0
13	17	31	3	952	203.0	-167107.0	2051.0	10556.0
13	17	31	3	952	204.0	-169017.0	2068.0	10263.0
13	17	31	3	953	205.0	-171872.0	2031.0	10035.0
13	17	31	3	954	206.0	-175344.0	1948.0	9802.0
13	17	31	3	954	207.0	-178131.0	1933.0	10143.0
13	17	31	3	955	208.0	-179644.0	1919.0	10023.0
13	17	31	3	956	209.0	-179069.0	1923.0	10359.0
13	17	31	3	957	210.0	-176527.0	1953.0	11081.0
13	17	31	3	958	211.0	-172105.0	2002.0	11024.0
13	17	31	3	959	212.0	-166708.0	1990.0	9404.0
13	17	31	3	959	213.0	-160389.0	1976.0	9438.0
13	17	31	3	961	214.0	-154086.0	1962.0	9866.0
13	17	31	3	962	215.0	-147816.0	1956.0	9533.0
13	17	31	3	962	216.0	-142457.0	1897.0	9664.0
13	17	31	3	963	219.0	-136595.0	1871.0	9245.0
13	17	31	3	968	220.0	-136743.0	1959.0	9838.0
13	17	31	3	969	221.0	-137169.0	1999.0	9951.0
13	17	31	3	970	222.0	-137358.0	2020.0	9458.0
13	17	31	3	971	223.0	-137284.0	1996.0	9545.0
13	17	31	3	971	224.0	-136822.0	2020.0	9459.0
13	17	31	3	996	225.0	-136502.0	2026.0	9462.0
13	17	31	3	996	226.0	-136029.0	1915.0	9123.0
13	17	31	3	997	227.0	-135832.0	1889.0	9243.0
13	17	31	3	998	228.0	-135520.0	1921.0	9253.0
13	17	31	3	998	229.0	-135466.0	1963.0	9690.0
13	17	31	3	999	230.0	-135886.0	1956.0	10150.0
13	17	31	3	999	231.0	-137172.0	1931.0	10060.0
13	17	31	4	0	232.0	-139381.0	1982.0	9147.0
13	17	31	4	0	233.0	-142293.0	2011.0	9249.0
13	17	31	4	1	234.0	-145407.0	1981.0	9410.0
13	17	31	4	1	235.0	-148834.0	1982.0	9284.0
13	17	31	4	2	236.0	-152210.0	1929.0	9336.0
13	17	31	4	3	237.0	-155472.0	1916.0	9264.0
13	17	31	4	3	238.0	-158006.0	1925.0	9161.0
13	17	31	4	4	239.0	-160175.0	1958.0	9743.0
13	17	31	4	4	241.0	-162824.0	1966.0	9773.0
13	17	31	4	5	242.0	-163608.0	2036.0	9034.0
13	17	31	4	5	243.0	-164065.0	2026.0	9104.0
13	17	31	4	6	244.0	-165096.0	2028.0	9150.0
13	17	31	4	6	245.0	-165986.0	2017.0	9023.0
13	17	31	4	7	246.0	-166965.0	1929.0	9454.0
13	17	31	4	39	247.0	-167427.0	1854.0	9264.0
13	17	31	4	60	248.0	-167961.0	1944.0	9128.0
13	17	31	4	61	249.0	-168271.0	1943.0	9207.0
13	17	31	4	61	250.0	-168358.0	1894.0	9620.0
13	17	31	4	62	251.0	-168354.0	1930.0	9461.0
13	17	31	4	62	252.0	-168132.0	1969.0	9208.0
13	17	31	4	63	253.0	-167630.0	1958.0	9176.0
13	17	31	4	63	254.0	-166536.0	1991.0	9329.0
13	17	31	4	64	255.0	-165493.0	1931.0	9416.0
13	17	31	4	64	0.0	-164422.0	1814.0	9138.0
13	17	31	4	65	1.0	-163863.0	1866.0	8818.0
13	17	31	4	65	2.0	-163221.0	1868.0	9185.0
13	17	31	4	66	3.0	-162807.0	1927.0	9634.0
13	17	31	4	67	4.0	-162366.0	1944.0	9972.0
13	17	31	4	67	5.0	-162007.0	1956.0	9645.0
13	17	31	4	68	7.0	-162454.0	1943.0	9263.0
13	17	31	4	68	8.0	-163096.0	1957.0	9365.0
13	17	31	4	69	9.0	-163232.0	1929.0	9635.0
13	17	31	4	69	10.0	-163082.0	1908.0	8996.0
13	17	31	4	70	11.0	-162926.0	1872.0	9253.0
13	17	31	4	70	12.0	-162834.0	1920.0	9477.0
13	17	31	4	71	13.0	-162904.0	1910.0	9873.0
13	17	31	4	85	14.0	-163134.0	1908.0	10329.0
13	17	31	4	86	15.0	-163257.0	2003.0	10414.0
13	17	31	4	86	16.0	-163460.0	1966.0	10099.0
13	17	31	4	87	17.0	-163493.0	2010.0	10282.0
13	17	31	4	87	18.0	-163589.0	1866.0	10343.0
13	17	31	4	88	19.0	-163445.0	1858.0	10464.0
13	17	31	4	89	20.0	-163414.0	1878.0	10633.0
13	17	31	4	89	21.0	-163215.0	1848.0	10461.0
13	17	31	4	90	22.0	-163144.0	1889.0	10612.0
13	17	31	4	90	23.0	-162762.0	1951.0	11010.0
13	17	31	4	91	24.0	-162565.0	1933.0	11198.0
13	17	31	4	91	25.0	-162329.0	1949.0	11127.0
13	17	31	4	92	26.0	-162319.0	2004.0	10874.0
13	17	31	4	93	27.0	-162184.0	2036.0	11120.0
13	17	31	4	93	28.0	-162013.0	1924.0	11188.0
13	17	31	4	94	30.0	-161498.0	1954.0	11388.0
13	17	31	4	94	31.0	-161494.0	1958.0	10802.0
13	17	31	4	95	32.0	-161979.0	1911.0	11902.0
13	17	31	4	95	33.0	-162606.0	1868.0	12184.0
13	17	31	4	96	34.0	-162749.0	1926.0	12509.0
13	17	31	4	96	35.0	-162859.0	1914.0	12071.0
13	17	31	4	130	36.0	-162766.0	1916.0	11678.0
13	17	31	4	131	37.0	-162906.0	1947.0	11809.0
13	17	31	4	131	38.0	-162756.0	1953.0	11995.0
13	17	31	4	132	39.0	-162746.0	1950.0	12081.0
13	17	31	4	132	40.0	-163056.0	1873.0	11783.0
13	17	31	4	133	41.0	-163624.0	1894.0	12082.0
13	17	31	4	134	42.0	-164139.0	1823.0	12076.0
13	17	31	4	134	43.0	-164392.0	1820.0	12094.0
13	17	31	4	135	44.0	-164687.0	1891.0	12207.0
13	17	31	4	135	45.0	-165140.0	1963.0	12176.0
13	17	31	4	136	46.0	-165329.0	1946.0	11814.0
13	17	31	4	136	47.0	-165366.0	1929.0	11803.0
13	17	31	4	137	48.0	-165465.0	1867.0	11561.0
13	17	31	4	145	49.0	-165610.0	1911.0	11573.0
13	17	31	4	145	50.0	-165427.0	1899.0	11391.0
13	17	31	4	146	52.0	-165577.0	1887.0	10888.0
13	17	31	4	146	53.0	-165854.0	1825.0	10751.0
13	17	31	4	147	54.0	-166114.0	1886.0	10759.0
13	17	31	4	148	55.0	-166486.0	1907.0	10523.0
13	17	31	4	148	56.0	-166644.0	1933.0	9531.0
13	17	31	4	149	57.0	-166189.0	1924.0	9345.0
13	17	31	4	149	58.0	-165522.0	1944.0	9455.0
13	17	31	4	175	59.0	-165008.0	1975.0	8853.0
13	17	31	4	175	60.0	-164781.0	1886.0	8499.0
13	17	31	4	176	61.0	-164336.0	1858.0	8634.0
13	17	31	4	177	62.0	-163881.0	1803.0	8237.0
13	17	31	4	177	63.0	-163304.0	1867.0	8651.0
13	17	31	4	178	64.0	-162895.0	1954.0	9414.0
13	17	31	4	178	65.0	-162388.0	1976.0	8531.0
13	17	31	4	179	66.0	-162208.0	1956.0	7694.0
13	17	31	4	179	67.0	-161738.0	1944.0	7508.0
13	17	31	4	180	68.0	-161191.0	1936.0	6977.0
13	17	31	4	181	69.0	-160753.0	1890.0	6463.0
13	17	31	4	181	70.0	-160671.0	1896.0	6630.0
13	17	31	4	182	71.0	-160867.0	1888.0	6359.0
13	17	31	4	182	72.0	-161274.0	1904.0	6471.0
13	17	31	4	183	73.0	-161434.0	1881.0	6487.0
13	17	31	4	183	75.0	-161599.0	1984.0	6578.0
13	17	31	4	184	76.0	-161890.0	2002.0	5923.0
13	17	31	4	185	77.0	-161730.0	1998.0	5879.0
13	17	31	4	185	78.0	-161557.0	1901.0	5681.0
13	17	31	4	193	79.0	-161391.0	1864.0	5723.0
13	17	31	4	194	80.0	-161422.0	1866.0	5005.0
13	17	31	4	220	81.0	-161514.0	1848.0	5521.0
13	17	31	4	221	82.0	-161562.0	1847.0	5253.0
13	17	31	4	222	83.0	-161631.0	1819.0	5097.0
13	17	31	4	222	84.0	-161688.0	1897.0	5309.0
13	17	31	4	223	85.0	-161627.0	1965.0	5188.0
13	17	31	4	223	86.0	-161156.0	1966.0	5061.0
13	17	31	4	224	87.0	-160782.0	1988.0	4956.0
13	17	31	4	225	88.0	-159963.0	1970.0	4976.0
13	17	31	4	225	89.0	-159380.0	1893.0	4944.0
13	17	31	4	226	90.0	-158925.0	1824.0	4735.0
13	17	31	4	226	91.0	-158997.0	1841.0	4440.0
13	17	31	4	227	92.0	-158792.0	1899.0	4314.0
13	17	31	4	227	93.0	-158738.0	1905.0	4334.0
13	17	31	4	228	94.0	-158919.0	1909.0	4311.0
13	17	31	4	229	95.0	-159464.0	1927.0	4133.0
13	17	31	4	229	97.0	-160708.0	1942.0	4088.0
13	17	31	4	230	98.0	-161153.0	1981.0	4032.0
13	17	31	4	265	99.0	-161445.0	1846.0	3986.0
13	17	31	4	266	100.0	-162215.0	1795.0	3644.0
13	17	31	4	267	101.0	-162107.0	1863.0	3799.0
13	17	31	4	267	102.0	-162244.0	1891.0	3479.0
13	17	31	4	268	103.0	-163587.0	1945.0	4147.0
13	17	31	4	269	104.0	-165200.0	1961.0	3835.0
13	17	31	4	269	105.0	-167288.0	1920.0	3376.0
13	17	31	4	270	106.0	-170083.0	1884.0	3360.0
13	17	31	4	270	107.0	-172878.0	1897.0	3420.0
13	17	31	4	271	108.0	-175325.0	1903.0	3574.0
13	17	31	4	271	109.0	-179382.0	1910.0	3264.0
13	17	31	4	272	110.0	-182045.0	1869.0	3771.0
13	17	31	4	272	111.0	-182192.0	1829.0	3485.0
13	17	31	4	273	112.0	-180654.0	1878.0	3129.0
13	17	31	4	274	113.0	-177647.0	1814.0	3693.0
13	17	31	4	274	114.0	-172912.0	1871.0	3803.0
13	17	31	4	275	120.0	-153032.0	1860.0	4016.0
13	17	31	4	275	121.0	-154376.0	1869.0	3700.0
13	17	31	4	276	122.0	-156523.0	1844.0	3766.0
13	17	31	4	277	123.0	-159052.0	1848.0	3766.0
13	17	31	4	277	124.0	-160940.0	1886.0	3933.0
13	17	31	4	278	125.0	-162149.0	1925.0	3823.0
13	17	31	4	310	126.0	-162771.0	1921.0	3600.0
13	17	31	4	311	127.0	-162400.0	1934.0	3355.0
13	17	31	4	311	128.0	-160794.0	1901.0	3244.0
13	17	31	4	312	129.0	-158056.0	1898.0	3375.0
13	17	31	4	313	130.0	-155031.0	1837.0	3296.0
13	17	31	4	313	131.0	-152592.0	1819.0	3074.0
13	17	31	4	314	132.0	-151057.0	1837.0	3062.0
13	17	31	4	314	133.0	-150211.0	1875.0	3009.0
13	17	31	4	315	134.0	-150137.0	1796.0	2961.0
13	17	31	4	316	135.0	-150901.0	1855.0	2949.0
13	17	31	4	316	136.0	-152323.0	1891.0	2914.0
13	17	31	4	317	137.0	-154202.0	1896.0	2862.0
13	17	31	4	317	138.0	-155947.0	1854.0	3104.0
13	17	31	4	318	139.0	-157125.0	1853.0	2902.0
13	17	31	4	319	140.0	-158346.0	1817.0	2738.0
13	17	31	4	319	142.0	-159717.0	1831.0	2461.0
13	17	31	4	320	143.0	-159771.0	1836.0	2889.0
13	17	31	4	320	144.0	-159526.0	1885.0	2485.0
13	17	31	4	321	145.0	-159227.0	1946.0	2534.0
13	17	31	4	329	146.0	-158894.0	1903.0	2309.0
13	17	31	4	330	147.0	-158672.0	1882.0	1886.0
13	17	31	4	354	148.0	-158437.0	1865.0	1938.0
13	17	31	4	355	149.0	-158195.0	1836.0	2026.0
13	17	31	4	356	150.0	-158192.0	1778.0	2196.0
13	17	31	4	356	151.0	-158167.0	1763.0	2621.0
13	17	31	4	400	152.0	-158114.0	1848.0	2130.0
13	17	31	4	425	153.0	-158056.0	1881.0	2561.0
13	17	31	4	426	154.0	-158549.0	1882.0	2496.0
13	17	31	4	426	155.0	-159351.0	1877.0	2450.0
13	17	31	4	427	156.0	-160102.0	1923.0	2648.0
13	17	31	4	427	157.0	-160759.0	1919.0	2464.0
13	17	31	4	428	158.0	-161414.0	1864.0	2400.0
13	17	31	4	429	159.0	-162007.0	1842.0	1884.0
13	17	31	4	429	160.0	-162703.0	1778.0	2389.0
13	17	31	4	430	161.0	-163327.0	1772.0	2380.0
13	17	31	4	430	162.0	-163574.0	1765.0	2225.0
13	17	31	4	431	164.0	-163832.0	1787.0	2238.0
13	17	31	4	431	165.0	-164034.0	1831.0	1820.0
13	17	31	4	432	166.0	-163952.0	1864.0	1763.0
13	17	31	4	432	167.0	-163705.0	1858.0	1692.0
13	17	31	4	433	168.0	-163459.0	1847.0	1988.0
13	17	31	4	434	187.0	-171258.0	1828.0	1334.0
13	17	31	4	434	188.0	-170454.0	1798.0	1054.0
13	17	31	4	435	189.0	-169254.0	1786.0	683.0
13	17	31	4	435	190.0	-167903.0	1712.0	1073.0
13	17	31	4	436	191.0	-166707.0	1691.0	507.0
13	17	31	4	436	192.0	-165547.0	1680.0	991.0
13	17	31	4	437	193.0	-164371.0	1723.0	1252.0
13	17	31	4	449	194.0	-162982.0	1752.0	1059.0
13	17	31	4	449	195.0	-161209.0	1774.0	1031.0
13	17	31	4	450	196.0	-159175.0	1804.0	1031.0
13	17	31	4	451	197.0	-157175.0	1724.0	1006.0
13	17	31	4	451	198.0	-155162.0	1696.0	643.0
13	17	31	4	452	199.0	-153157.0	1704.0	777.0
13	17	31	4	452	200.0	-151294.0	1726.0	336.0
13	17	31	4	453	201.0	-149557.0	1671.0	843.0
13	17	31	4	454	202.0	-148019.0	1607.0	741.0
13	17	31	4	455	203.0	-146646.0	1668.0	606.0
13	17	31	4	455	204.0	-145279.0	1726.0	744.0
13	17	31	4	456	205.0	-144049.0	1751.0	404.0
13	17	31	4	456	206.0	-143263.0	1708.0	194.0
13	17	31	4	457	207.0	-143021.0	1733.0	276.0
13	17	31	4	457	208.0	-143547.0	1730.0	-107.0
13	17	31	4	458	209.0	-144449.0	1681.0	-118.0
13	17	31	4	459	210.0	-145631.0	1639.0	114.0
13	17	31	4	459	211.0	-146727.0	1638.0	-336.0
13	17	31	4	460	212.0	-148222.0	1615.0	-186.0
13	17	31	4	460	213.0	-149847.0	1658.0	-87.0
13	17	31	4	461	214.0	-151711.0	1734.0	-392.0
13	17	31	4	461	215.0	-153659.0	1738.0	-251.0
13	17	31	4	491	216.0	-155650.0	1715.0	-249.0
13	17	31	4	492	217.0	-157575.0	1715.0	-332.0
13	17	31	4	493	218.0	-159287.0	1686.0	-379.0
13	17	31	4	493	219.0	-160785.0	1654.0	-344.0
13	17	31	4	494	220.0	-162317.0	1558.0	-1098.0
13	17	31	4	494	221.0	-163996.0	1538.0	-998.0
13	17	31	4	495	222.0	-165658.0	1543.0	-1324.0
13	17	31	4	496	223.0	-167314.0	1618.0	-775.0
13	17	31	4	496	224.0	-168719.0	1656.0	-936.0
13	17	31	4	497	225.0	-170107.0	1689.0	-890.0
13	17	31	4	497	226.0	-171463.0	1688.0	-645.0
13	17	31	4	498	227.0	-172744.0	1656.0	-564.0
13	17	31	4	498	228.0	-173549.0	1643.0	-614.0
13	17	31	4	499	229.0	-174131.0	1593.0	-1105.0
13	17	31	4	500	230.0	-174702.0	1549.0	-858.0
13	17	31	4	500	232.0	-174765.0	1581.0	-925.0
13	17	31	4	501	233.0	-173757.0	1585.0	-969.0
13	17	31	4	535	234.0	-172386.0	1639.0	-1074.0
13	17	31	4	536	235.0	-171067.0	1604.0	-956.0
13	17	31	4	537	236.0	-169582.0	1569.0	-947.0
13	17	31	4	537	237.0	-168039.0	1588.0	-961.0
13	17	31	4	538	238.0	-166287.0	1583.0	-907.0
13	17	31	4	538	239.0	-164373.0	1567.0	-1711.0
13	17	31	4	539	240.0	-162562.0	1543.0	-1228.0
13	17	31	4	539	241.0	-160567.0	1526.0	-1254.0
13	17	31	4	540	242.0	-158710.0	1550.0	-1175.0
13	17	31	4	541	243.0	-157047.0	1558.0	-979.0
13	17	31	4	541	244.0	-155709.0	1523.0	-1039.0
13	17	31	4	542	245.0	-154544.0	1587.0	-1058.0
13	17	31	4	542	246.0	-153665.0	1603.0	-1202.0
13	17	31	4	543	247.0	-152949.0	1616.0	-1152.0
13	17	31	4	544	248.0	-152524.0	1568.0	-976.0
13	17	31	4	544	249.0	-152452.0	1620.0	-1041.0
13	17	31	4	545	255.0	-152054.0	1592.0	-1542.0
13	17	31	4	545	0.0	-152561.0	1623.0	-1508.0
13	17	31	4	546	1.0	-153045.0	1602.0	-1336.0
13	17	31	4	547	2.0	-153301.0	1563.0	-1571.0
13	17	31	4	547	3.0	-153446.0	1523.0	-1951.0
13	17	31	4	548	4.0	-153733.0	1489.0	-1335.0
13	17	31	4	580	5.0	-154162.0	1438.0	-2206.0
13	17	31	4	581	6.0	-155022.0	1444.0	-2207.0
13	17	31	4	582	7.0	-155800.0	1498.0	-1975.0
13	17	31	4	582	8.0	-156382.0	1528.0	-1776.0
13	17	31	4	583	9.0	-157130.0	1570.0	-1766.0
13	17	31	4	583	10.0	-157911.0	1554.0	-1827.0
13	17	31	4	584	11.0	-158627.0	1546.0	-1977.0
13	17	31	4	585	12.0	-159417.0	1508.0	-1612.0
13	17	31	4	585	13.0	-160263.0	1440.0	-1809.0
13	17	31	4	586	14.0	-161356.0	1394.0	-1887.0
13	17	31	4	586	15.0	-162622.0	1397.0	-2035.0
13	17	31	4	587	16.0	-163693.0	1411.0	-2268.0
13	17	31	4	588	17.0	-164634.0	1456.0	-1901.0
13	17	31	4	589	18.0	-165476.0	1498.0	-1753.0
13	17	31	4	590	19.0	-166237.0	1464.0	-1697.0
13	17	31	4	591	21.0	-167619.0	1496.0	-1615.0
13	17	31	4	591	22.0	-168231.0	1458.0	-1672.0
13	17	31	4	592	23.0	-168596.0	1404.0	-1590.0
13	17	31	4	593	24.0	-168872.0	1346.0	-2261.0
13	17	31	4	593	25.0	-168719.0	1366.0	-1687.0
13	17	31	4	594	26.0	-168510.0	1369.0	-1477.0
13	17	31	4	625	27.0	-168364.0	1387.0	-1726.0
13	17	31	4	626	28.0	-168153.0	1419.0	-2014.0
13	17	31	4	627	29.0	-167705.0	1491.0	-2321.0
13	17	31	4	627	30.0	-167286.0	1491.0	-2397.0
13	17	31	4	628	31.0	-167026.0	1502.0	-2424.0
13	17	31	4	629	32.0	-166899.0	1504.0	-2507.0
13	17	31	4	629	33.0	-166734.0	1459.0	-2100.0
13	17	31	4	630	34.0	-166490.0	1346.0	-2232.0
13	17	31	4	630	35.0	-166215.0	1317.0	-2304.0
13	17	31	4	631	36.0	-165564.0	1391.0	-2467.0
13	17	31	4	632	37.0	-164545.0	1410.0	-2526.0
13	17	31	4	632	38.0	-163564.0	1411.0	-2642.0
13	17	31	4	633	39.0	-162546.0	1426.0	-2802.0
13	17	31	4	634	40.0	-161692.0	1447.0	-3134.0
13	17	31	4	634	41.0	-160597.0	1420.0	-2904.0
13	17	31	4	635	43.0	-158397.0	1359.0	-3152.0
13	17	31	4	635	44.0	-157154.0	1332.0	-3356.0
13	17	31	4	636	45.0	-155507.0	1316.0	-3306.0
13	17	31	4	637	46.0	-153762.0	1340.0	-3451.0
13	17	31	4	637	47.0	-152107.0	1349.0	-3454.0
13	17	31	4	638	48.0	-150936.0	1342.0	-2178.0
13	17	31	4	638	49.0	-150514.0	1388.0	-2544.0
13	17	31	4	670	50.0	-150277.0	1425.0	-2624.0
13	17	31	4	670	51.0	-149766.0	1438.0	-2427.0
13	17	31	4	671	52.0	-148686.0	1398.0	-2656.0
13	17	31	4	672	53.0	-147664.0	1302.0	-2544.0
13	17	31	4	672	54.0	-146786.0	1281.0	-3183.0
13	17	31	4	673	55.0	-146492.0	1283.0	-2593.0
13	17	31	4	673	56.0	-146330.0	1339.0	-3004.0
13	17	31	4	674	57.0	-146709.0	1360.0	-3312.0
13	17	31	4	675	58.0	-147499.0	1316.0	-2931.0
13	17	31	4	675	59.0	-148533.0	1391.0	-2556.0
13	17	31	4	676	60.0	-149546.0	1374.0	-2608.0
13	17	31	4	677	61.0	-150592.0	1361.0	-2737.0
13	17	31	4	677	62.0	-151894.0	1318.0	-2983.0
13	17	31	4	678	63.0	-153212.0	1296.0	-2779.0
13	17	31	4	678	64.0	-154465.0	1237.0	-2722.0
13	17	31	4	679	66.0	-157305.0	1271.0	-2356.0
13	17	31	4	680	67.0	-158597.0	1302.0	-2614.0
13	17	31	4	680	68.0	-160219.0	1340.0	-2821.0
13	17	31	4	681	69.0	-162071.0	1388.0	-2589.0
13	17	31	4	682	70.0	-164151.0	1348.0	-2635.0
13	17	31	4	682	71.0	-165959.0	1275.0	-2503.0
13	17	31	4	762	72.0	-167493.0	1324.0	-2901.0
13	17	31	4	763	73.0	-169051.0	1276.0	-3208.0
13	17	31	4	764	74.0	-170179.0	1256.0	-3267.0
13	17	31	4	764	75.0	-171179.0	1203.0	-3339.0
13	17	31	4	765	76.0	-171846.0	1215.0	-3333.0
13	17	31	4	766	77.0	-172242.0	1243.0	-3693.0
13	17	31	4	766	78.0	-172007.0	1219.0	-3801.0
13	17	31	4	767	79.0	-171692.0	1274.0	-3730.0
13	17	31	4	768	80.0	-170968.0	1280.0	-3709.0
13	17	31	4	768	81.0	-170411.0	1248.0	-3671.0
13	17	31	4	769	82.0	-169857.0	1266.0	-3344.0
13	17	31	4	769	83.0	-169508.0	1180.0	-3252.0
13	17	31	4	770	84.0	-169160.0	1193.0	-3466.0
13	17	31	4	771	85.0	-168212.0	1248.0	-3496.0
13	17	31	4	771	86.0	-167102.0	1238.0	-3846.0
13	17	31	4	772	88.0	-165396.0	1273.0	-3772.0
13	17	31	4	772	111.0	-154988.0	1193.0	-3859.0
13	17	31	4	773	112.0	-155800.0	1196.0	-3961.0
13	17	31	4	774	113.0	-156948.0	1181.0	-3521.0
13	17	31	4	774	114.0	-158459.0	1092.0	-3775.0
13	17	31	4	775	115.0	-159875.0	1081.0	-4071.0
13	17	31	4	775	116.0	-160905.0	1153.0	-4171.0
13	17	31	4	851	117.0	-161872.0	1114.0	-4513.0
13	17	31	4	852	118.0	-162933.0	1170.0	-4561.0
13	17	31	4	853	119.0	-163774.0	1174.0	-4439.0
13	17	31	4	854	120.0	-164454.0	1165.0	-4522.0
13	17	31	4	854	121.0	-165165.0	1163.0	-4933.0
13	17	31	4	855	122.0	-166016.0	1152.0	-5080.0
13	17	31	4	856	123.0	-166945.0	1107.0	-5354.0
13	17	31	4	856	124.0	-168607.0	1117.0	-4821.0
13	17	31	4	857	125.0	-170192.0	1143.0	-5341.0
13	17	31	4	858	126.0	-171030.0	1129.0	-5423.0
13	17	31	4	858	127.0	-171206.0	1074.0	-5693.0
13	17	31	4	859	128.0	-171271.0	1109.0	-5605.0
13	17	31	4	860	129.0	-171479.0	1203.0	-4993.0
13	17	31	4	861	130.0	-171441.0	1219.0	-4908.0
13	17	31	4	862	131.0	-171347.0	1209.0	-4802.0
13	17	31	4	863	133.0	-171845.0	1099.0	-4977.0
13	17	31	4	863	156.0	-154839.0	996.0	-332.0
13	17	31	4	864	157.0	-156694.0	1055.0	692.0
13	17	31	4	865	158.0	-158597.0	1106.0	1066.0
13	17	31	4	865	159.0	-160624.0	1137.0	1148.0
13	17	31	4	866	160.0	-161954.0	1138.0	2054.0
13	17	31	4	866	161.0	-162864.0	1104.0	2505.0
13	17	31	4	897	162.0	-163354.0	1130.0	2837.0
13	17	31	4	898	163.0	-163563.0	1048.0	3559.0
13	17	31	4	898	164.0	-163555.0	992.0	3766.0
13	17	31	4	899	165.0	-164045.0	911.0	2478.0
13	17	31	4	900	166.0	-165048.0	941.0	-1431.0
13	17	31	4	900	167.0	-166442.0	998.0	-4166.0
13	17	31	4	901	168.0	-167901.0	1034.0	-5202.0
13	17	31	4	902	169.0	-168912.0	1041.0	-4700.0
13	17	31	4	902	170.0	-169036.0	1026.0	-3424.0
13	17	31	4	903	171.0	-167293.0	1006.0	-2507.0
13	17	31	4	903	172.0	-164033.0	963.0	-2475.0
13	17	31	4	904	173.0	-159772.0	925.0	-2700.0
13	17	31	4	905	174.0	-156006.0	871.0	-3991.0
13	17	31	4	905	175.0	-153085.0	941.0	-3864.0
13	17	31	4	906	176.0	-151037.0	881.0	-4114.0
13	17	31	4	907	178.0	-149682.0	1026.0	-4651.0
13	17	31	4	907	179.0	-150626.0	1000.0	-4686.0
13	17	31	4	908	180.0	-152527.0	978.0	-5371.0
13	17	31	4	908	181.0	-155601.0	974.0	-5825.0
13	17	31	4	909	182.0	-159681.0	909.0	-5644.0
13	17	31	4	909	183.0	-163580.0	870.0	-5629.0
13	17	31	4	940	184.0	-166726.0	870.0	-6249.0
13	17	31	4	941	185.0	-168395.0	875.0	-5696.0
13	17	31	4	942	186.0	-168851.0	904.0	-5858.0
13	17	31	4	943	187.0	-168767.0	899.0	-5679.0
13	17	31	4	986	188.0	-169362.0	913.0	-5747.0
13	17	31	4	986	189.0	-170864.0	1033.0	-6177.0
13	17	31	4	987	190.0	-173131.0	1061.0	-6106.0
13	17	31	4	988	191.0	-175681.0	949.0	-6103.0
13	17	31	4	988	192.0	-178289.0	916.0	-6095.0
13	17	31	4	989	193.0	-180567.0	888.0	-6446.0
13	17	31	4	990	194.0	-182265.0	853.0	-5966.0
13	17	31	4	990	195.0	-182708.0	813.0	-5897.0
13	17	31	4	991	196.0	-181836.0	816.0	-5975.0
13	17	31	4	992	197.0	-179396.0	872.0	-6099.0
13	17	31	4	992	198.0	-175359.0	884.0	-6177.0
13	17	31	4	993	200.0	-163867.0	858.0	-6183.0
13	17	31	4	994	201.0	-157355.0	898.0	-6373.0
13	17	31	4	994	202.0	-151621.0	927.0	-6459.0
13	17	31	4	995	203.0	-146852.0	871.0	-6662.0
13	17	31	4	995	204.0	-143182.0	824.0	-7177.0
13	17	31	4	996	223.0	-145257.0	778.0	-6689.0
13	17	31	4	997	224.0	-148649.0	758.0	-6581.0
13	17	31	4	997	225.0	-152201.0	695.0	-6239.0
13	17	31	4	998	226.0	-155545.0	739.0	-6366.0
13	17	31	4	998	227.0	-158388.0	766.0	-6367.0
13	17	31	4	999	228.0	-160609.0	798.0	-6278.0
13	17	31	5	31	229.0	-162459.0	805.0	-6551.0
13	17	31	5	31	230.0	-164475.0	883.0	-6626.0
13	17	31	5	32	231.0	-166331.0	800.0	-6871.0
13	17	31	5	33	232.0	-168063.0	754.0	-6855.0
13	17	31	5	33	233.0	-169999.0	726.0	-6657.0
13	17	31	5	34	234.0	-171847.0	741.0	-6427.0
13	17	31	5	35	235.0	-173246.0	742.0	-6840.0
13	17	31	5	35	236.0	-174050.0	771.0	-7039.0
13	17	31	5	36	237.0	-174558.0	804.0	-7016.0
13	17	31	5	37	238.0	-174926.0	810.0	-7409.0
13	17	31	5	37	239.0	-174901.0	789.0	-7259.0
13	17	31	5	38	240.0	-174314.0	905.0	-7028.0
13	17	31	5	39	241.0	-173776.0	869.0	-6632.0
13	17	31	5	39	242.0	-172980.0	786.0	-6402.0
13	17	31	5	40	243.0	-172186.0	703.0	-6114.0
13	17	31	5	41	245.0	-170391.0	743.0	-6584.0
13	17	31	5	41	246.0	-169196.0	767.0	-6624.0
13	17	31	5	42	247.0	-168102.0	802.0	-6534.0
13	17	31	5	42	248.0	-167172.0	828.0	-6577.0
13	17	31	5	43	249.0	-166536.0	826.0	-6489.0
13	17	31	5	43	250.0	-165927.0	830.0	-6169.0
13	17	31	5	44	251.0	-164868.0	803.0	-5782.0
13	17	31	5	76	252.0	-163756.0	806.0	-5356.0
13	17	31	5	77	253.0	-162690.0	774.0	-5834.0
13	17	31	5	78	254.0	-162024.0	743.0	-5759.0
13	17	31	5	78	255.0	-161332.0	680.0	-4722.0
13	17	31	5	79	0.0	-160724.0	639.0	-4730.0
13	17	31	5	80	1.0	-160123.0	646.0	-4909.0
13	17	31	5	81	2.0	-159183.0	703.0	-4871.0
13	17	31	5	81	3.0	-157883.0	781.0	-4638.0
13	17	31	5	82	4.0	-156922.0	766.0	-4801.0
13	17	31	5	82	5.0	-156292.0	780.0	-4997.0
13	17	31	5	83	6.0	-155964.0	723.0	-4926.0
13	17	31	5	84	7.0	-155553.0	641.0	-4766.0
13	17	31	5	85	8.0	-155272.0	610.0	-4541.0
13	17	31	5	85	9.0	-155279.0	683.0	-4361.0
13	17	31	5	86	10.0	-155536.0	659.0	-4446.0
13	17	31	5	86	12.0	-156142.0	685.0	-4674.0
13	17	31	5	87	13.0	-156612.0	727.0	-4688.0
13	17	31	5	88	14.0	-157051.0	768.0	-4641.0
13	17	31	5	88	15.0	-157740.0	719.0	-4228.0
13	17	31	5	121	16.0	-158352.0	684.0	-4132.0
13	17	31	5	122	17.0	-158946.0	649.0	-4024.0
13	17	31	5	122	18.0	-159516.0	599.0	-4620.0
13	17	31	5	123	19.0	-160118.0	581.0	-4014.0
13	17	31	5	123	20.0	-160956.0	583.0	-4296.0
13	17	31	5	124	21.0	-161843.0	641.0	-4044.0
13	17	31	5	124	22.0	-162134.0	666.0	-3897.0
13	17	31	5	135	23.0	-162288.0	663.0	-3564.0
13	17	31	5	136	24.0	-162502.0	612.0	-3371.0
13	17	31	5	137	25.0	-162874.0	628.0	-3537.0
13	17	31	5	137	26.0	-163131.0	618.0	-3409.0
13	17	31	5	138	27.0	-163566.0	611.0	-2854.0
13	17	31	5	138	28.0	-164000.0	504.0	-3532.0
13	17	31	5	139	29.0	-164521.0	577.0	-3176.0
13	17	31	5	139	30.0	-164872.0	618.0	-3356.0
13	17	31	5	140	34.0	-166423.0	684.0	-3212.0
13	17	31	5	140	35.0	-167199.0	657.0	-2991.0
13	17	31	5	141	36.0	-168308.0	604.0	-3391.0
13	17	31	5	141	37.0	-169494.0	613.0	-4164.0
13	17	31	5	142	38.0	-170521.0	567.0	-4012.0
13	17	31	5	142	39.0	-170987.0	604.0	-4051.0
13	17	31	5	143	40.0	-171240.0	646.0	-4070.0
13	17	31	5	165	41.0	-171338.0	659.0	-4106.0
13	17	31	5	166	42.0	-170996.0	667.0	-4640.0
13	17	31	5	166	43.0	-170462.0	686.0	-4932.0
13	17	31	5	167	44.0	-169607.0	683.0	-5242.0
13	17	31	5	167	45.0	-168601.0	668.0	-5397.0
13	17	31	5	168	46.0	-167684.0	659.0	-5449.0
13	17	31	5	169	47.0	-167173.0	621.0	-5802.0
13	17	31	5	169	48.0	-166896.0	595.0	-5647.0
13	17	31	5	170	49.0	-166912.0	576.0	-6161.0
13	17	31	5	170	50.0	-166726.0	599.0	-6688.0
13	17	31	5	186	51.0	-166769.0	614.0	-7044.0
13	17	31	5	186	52.0	-166874.0	618.0	-7275.0
13	17	31	5	187	53.0	-167231.0	619.0	-7653.0
13	17	31	5	187	54.0	-167616.0	638.0	-8196.0
13	17	31	5	188	55.0	-168172.0	671.0	-8094.0
13	17	31	5	188	56.0	-168549.0	673.0	-8252.0
13	17	31	5	209	57.0	-168692.0	616.0	-8285.0
13	17	31	5	210	58.0	-168194.0	584.0	-9074.0
13	17	31	5	211	59.0	-167307.0	578.0	-8894.0
13	17	31	5	211	60.0	-166323.0	567.0	-8896.0
13	17	31	5	212	61.0	-165468.0	609.0	-8989.0
13	17	31	5	212	62.0	-164724.0	674.0	-9093.0
13	17	31	5	213	63.0	-164336.0	658.0	-9170.0
13	17	31	5	214	64.0	-164031.0	598.0	-9354.0
13	17	31	5	214	65.0	-162959.0	605.0	-9336.0
13	17	31	5	215	66.0	-161706.0	619.0	-9517.0
13	17	31	5	215	67.0	-160794.0	538.0	-10047.0
13	17	31	5	216	68.0	-160516.0	555.0	-9412.0
13	17	31	5	216	69.0	-160257.0	629.0	-9566.0
13	17	31	5	217	70.0	-159719.0	654.0	-9773.0
13	17	31	5	218	71.0	-159227.0	611.0	-9566.0
13	17	31	5	218	72.0	-158655.0	574.0	-9385.0
13	17	31	5	219	79.0	-158241.0	522.0	-9954.0
13	17	31	5	219	80.0	-158948.0	548.0	-9622.0
13	17	31	5	220	81.0	-159476.0	554.0	-9651.0
13	17	31	5	220	82.0	-160020.0	567.0	-9951.0
13	17	31	5	221	83.0	-160661.0	554.0	-10161.0
13	17	31	5	222	84.0	-161199.0	562.0	-10114.0
13	17	31	5	222	85.0	-161638.0	578.0	-10051.0
13	17	31	5	255	86.0	-162299.0	544.0	-10554.0
13	17	31	5	255	87.0	-163300.0	518.0	-10181.0
13	17	31	5	256	88.0	-164171.0	446.0	-10112.0
13	17	31	5	257	89.0	-164713.0	452.0	-10127.0
13	17	31	5	257	90.0	-164209.0	495.0	-10142.0
13	17	31	5	258	91.0	-162611.0	502.0	-10161.0
13	17	31	5	258	92.0	-162276.0	514.0	-10505.0
13	17	31	5	259	93.0	-163123.0	538.0	-10824.0
13	17	31	5	259	94.0	-165178.0	514.0	-10633.0
13	17	31	5	268	95.0	-169396.0	471.0	-10533.0
13	17	31	5	269	96.0	-174420.0	501.0	-10391.0
13	17	31	5	270	97.0	-178890.0	481.0	-10363.0
13	17	31	5	270	98.0	-183654.0	450.0	-10941.0
13	17	31	5	271	99.0	-187142.0	452.0	-10314.0
13	17	31	5	301	101.0	-185637.0	513.0	-10577.0
13	17	31	5	345	102.0	-182792.0	478.0	-10704.0
13	17	31	5	346	103.0	-178012.0	474.0	-10482.0
13	17	31	5	347	104.0	-172312.0	454.0	-10814.0
13	17	31	5	348	105.0	-166777.0	456.0	-10719.0
13	17	31	5	348	106.0	-162220.0	412.0	-10467.0
13	17	31	5	349	107.0	-158488.0	368.0	-10793.0
13	17	31	5	349	108.0	-155892.0	316.0	-10214.0
13	17	31	5	350	109.0	-154489.0	328.0	-10159.0
13	17	31	5	351	110.0	-153801.0	333.0	-10214.0
13	17	31	5	436	111.0	-153730.0	334.0	-10199.0
13	17	31	5	437	112.0	-154112.0	337.0	-10404.0
13	17	31	5	437	113.0	-155067.0	376.0	-10649.0
13	17	31	5	438	114.0	-155564.0	386.0	-10385.0
13	17	31	5	438	115.0	-155561.0	380.0	-10286.0
13	17	31	5	439	124.0	-149894.0	406.0	-11095.0
13	17	31	5	439	146.0	-164262.0	262.0	-11023.0
13	17	31	5	440	147.0	-165226.0	174.0	-10886.0
13	17	31	5	441	148.0	-165786.0	183.0	-11292.0
13	17	31	5	441	149.0	-166112.0	149.0	-10987.0
13	17	31	5	442	150.0	-165986.0	148.0	-11414.0
13	17	31	5	442	151.0	-165919.0	219.0	-11382.0
13	17	31	5	443	152.0	-165950.0	249.0	-10906.0
13	17	31	5	443	153.0	-166056.0	197.0	-10753.0
13	17	31	5	444	154.0	-165837.0	206.0	-11151.0
13	17	31	5	445	155.0	-165647.0	193.0	-11094.0
13	17	31	5	445	191.0	-153292.0	34.0	-11062.0
13	17	31	5	446	192.0	-151843.0	4.0	-11227.0
13	17	31	5	446	193.0	-150664.0	23.0	-11331.0
13	17	31	5	447	194.0	-149816.0	43.0	-11602.0
13	17	31	5	447	195.0	-148875.0	31.0	-11879.0
13	17	31	5	448	196.0	-148162.0	-3.0	-11411.0
13	17	31	5	449	197.0	-147424.0	-12.0	-10856.0
13	17	31	5	481	198.0	-146719.0	-16.0	-10040.0
13	17	31	5	482	199.0	-146004.0	-32.0	-10085.0
13	17	31	5	483	200.0	-145534.0	-29.0	-10183.0
13	17	31	5	483	201.0	-145596.0	-83.0	-11619.0
13	17	31	5	484	202.0	-145867.0	-49.0	-12733.0
13	17	31	5	484	203.0	-146547.0	-38.0	-12617.0
13	17	31	5	485	204.0	-147656.0	-31.0	-12492.0
13	17	31	5	486	205.0	-148989.0	-91.0	-12374.0
13	17	31	5	486	206.0	-150531.0	-128.0	-12337.0
13	17	31	5	487	207.0	-152226.0	-137.0	-12204.0
13	17	31	5	487	208.0	-153901.0	-119.0	-12257.0
13	17	31	5	488	209.0	-155210.0	-124.0	-12307.0
13	17	31	5	488	210.0	-156624.0	-131.0	-12265.0
13	17	31	5	489	211.0	-157943.0	-125.0	-12354.0
13	17	31	5	490	212.0	-159515.0	-77.0	-12367.0
13	17	31	5	490	214.0	-162966.0	-107.0	-12008.0
13	17	31	5	491	215.0	-164562.0	-156.0	-12007.0
13	17	31	5	491	216.0	-166066.0	-135.0	-12016.0
13	17	31	5	492	217.0	-167489.0	-141.0	-11791.0
13	17	31	5	492	218.0	-168812.0	-120.0	-12017.0
13	17	31	5	493	219.0	-169934.0	-155.0	-11357.0
13	17	31	5	526	220.0	-170449.0	-177.0	-11230.0
13	17	31	5	526	221.0	-170746.0	-124.0	-11557.0
13	17	31	5	551	222.0	-170361.0	-120.0	-12004.0
13	17	31	5	551	223.0	-170267.0	-155.0	-11985.0
13	17	31	5	552	224.0	-170152.0	-130.0	-11804.0
13	17	31	5	552	225.0	-170313.0	-135.0	-11856.0
13	17	31	5	553	226.0	-170136.0	-139.0	-12143.0
13	17	31	5	553	227.0	-170274.0	-179.0	-12036.0
13	17	31	5	554	228.0	-170016.0	-232.0	-12044.0
13	17	31	5	555	229.0	-169722.0	-259.0	-11417.0
13	17	31	5	555	230.0	-168858.0	-263.0	-12075.0
13	17	31	5	556	231.0	-168016.0	-171.0	-12172.0
13	17	31	5	556	232.0	-166758.0	-194.0	-11994.0
13	17	31	5	557	233.0	-165987.0	-220.0	-11883.0
13	17	31	5	557	234.0	-165052.0	-197.0	-12176.0
13	17	31	5	558	236.0	-163096.0	-202.0	-12557.0
13	17	31	5	558	237.0	-162556.0	-226.0	-12442.0
13	17	31	5	559	238.0	-162040.0	-244.0	-12819.0
13	17	31	5	559	239.0	-161207.0	-262.0	-13533.0
13	17	31	5	560	240.0	-160162.0	-232.0	-13182.0
13	17	31	5	560	241.0	-158596.0	-260.0	-12869.0
13	17	31	5	616	242.0	-157034.0	-209.0	-12678.0
13	17	31	5	616	243.0	-155823.0	-189.0	-12382.0
13	17	31	5	617	244.0	-154715.0	-212.0	-11990.0
13	17	31	5	678	245.0	-153825.0	-225.0	-12538.0
13	17	31	5	698	246.0	-153440.0	-271.0	-12722.0
13	17	31	5	699	247.0	-153012.0	-319.0	-12134.0
13	17	31	5	700	248.0	-152649.0	-341.0	-12708.0
13	17	31	5	700	249.0	-152364.0	-321.0	-12408.0
13	17	31	5	701	250.0	-152040.0	-311.0	-12378.0
13	17	31	5	701	251.0	-151598.0	-340.0	-12433.0
13	17	31	5	702	252.0	-151204.0	-302.0	-12276.0
13	17	31	5	702	253.0	-150860.0	-271.0	-12249.0
13	17	31	5	703	254.0	-150553.0	-262.0	-12152.0
13	17	31	5	704	255.0	-150542.0	-271.0	-12532.0
13	17	31	5	704	0.0	-150176.0	-310.0	-12670.0
13	17	31	5	705	2.0	-150167.0	-386.0	-13267.0
13	17	31	5	705	25.0	-167586.0	-386.0	-12979.0
13	17	31	5	706	26.0	-168160.0	-354.0	-13021.0
13	17	31	5	706	27.0	-168524.0	-372.0	-13374.0
13	17	31	5	707	62.0	-156275.0	-534.0	-13559.0
13	17	31	5	708	63.0	-157184.0	-486.0	-13706.0
13	17	31	5	708	64.0	-158144.0	-480.0	-14002.0
13	17	31	5	709	65.0	-159170.0	-469.0	-14254.0
13	17	31	5	709	66.0	-160037.0	-406.0	-14211.0
13	17	31	5	710	67.0	-160793.0	-412.0	-13772.0
13	17	31	5	710	68.0	-161501.0	-435.0	-13537.0
13	17	31	5	711	69.0	-162066.0	-439.0	-13584.0
13	17	31	5	711	70.0	-162772.0	-481.0	-13494.0
13	17	31	5	735	71.0	-163749.0	-507.0	-13403.0
13	17	31	5	736	72.0	-164860.0	-539.0	-13247.0
13	17	31	5	736	73.0	-166022.0	-530.0	-13409.0
13	17	31	5	737	74.0	-167026.0	-527.0	-13163.0
13	17	31	5	738	75.0	-167884.0	-506.0	-13266.0
13	17	31	5	738	76.0	-168766.0	-463.0	-13692.0
13	17	31	5	739	77.0	-169454.0	-423.0	-13732.0
13	17	31	5	740	78.0	-170241.0	-414.0	-13441.0
13	17	31	5	741	79.0	-171023.0	-467.0	-13442.0
13	17	31	5	742	80.0	-171842.0	-502.0	-13903.0
13	17	31	5	742	81.0	-172499.0	-523.0	-13581.0
13	17	31	5	743	82.0	-173392.0	-525.0	-13454.0
13	17	31	5	744	83.0	-174280.0	-539.0	-13892.0
13	17	31	5	744	84.0	-174601.0	-491.0	-14062.0
13	17	31	5	745	85.0	-174356.0	-463.0	-14037.0
13	17	31	5	745	86.0	-173951.0	-436.0	-13971.0
13	17	31	5	746	87.0	-173289.0	-443.0	-14057.0
13	17	31	5	746	88.0	-172294.0	-412.0	-14292.0
13	17	31	5	747	89.0	-171156.0	-455.0	-14442.0
13	17	31	5	755	90.0	-170201.0	-502.0	-14284.0
13	17	31	5	756	91.0	-169587.0	-533.0	-14984.0
13	17	31	5	756	92.0	-168692.0	-524.0	-14902.0
13	17	31	5	779	93.0	-167476.0	-484.0	-14829.0
13	17	31	5	779	94.0	-166143.0	-457.0	-14777.0
13	17	31	5	780	95.0	-164820.0	-473.0	-14508.0
13	17	31	5	781	96.0	-163337.0	-412.0	-14117.0
13	17	31	5	781	97.0	-161762.0	-411.0	-13758.0
13	17	31	5	782	98.0	-160172.0	-412.0	-13853.0
13	17	31	5	782	99.0	-158424.0	-464.0	-13909.0
13	17	31	5	783	100.0	-156571.0	-502.0	-14273.0
13	17	31	5	784	101.0	-154939.0	-527.0	-14692.0
13	17	31	5	784	102.0	-153506.0	-542.0	-14184.0
13	17	31	5	785	103.0	-151999.0	-573.0	-14364.0
13	17	31	5	785	104.0	-150571.0	-519.0	-13885.0
13	17	31	5	786	105.0	-149439.0	-489.0	-13675.0
13	17	31	5	786	106.0	-148608.0	-486.0	-13849.0
13	17	31	5	787	107.0	-148124.0	-451.0	-13851.0
13	17	31	5	787	108.0	-147972.0	-470.0	-13810.0
13	17	31	5	811	109.0	-148100.0	-499.0	-13986.0
13	17	31	5	812	110.0	-148347.0	-545.0	-14158.0
13	17	31	5	812	111.0	-148813.0	-594.0	-13907.0
13	17	31	5	813	112.0	-149177.0	-601.0	-13767.0
13	17	31	5	814	113.0	-149567.0	-582.0	-14017.0
13	17	31	5	814	114.0	-150206.0	-546.0	-13990.0
13	17	31	5	815	115.0	-150997.0	-543.0	-14105.0
13	17	31	5	815	116.0	-151759.0	-495.0	-13833.0
13	17	31	5	816	117.0	-152638.0	-454.0	-13930.0
13	17	31	5	817	118.0	-153681.0	-471.0	-14134.0
13	17	31	5	817	119.0	-154995.0	-481.0	-14366.0
13	17	31	5	818	120.0	-156412.0	-539.0	-14562.0
13	17	31	5	819	121.0	-157834.0	-587.0	-14146.0
13	17	31	5	819	122.0	-159054.0	-617.0	-14365.0
13	17	31	5	820	123.0	-160006.0	-585.0	-13982.0
13	17	31	5	821	124.0	-160888.0	-559.0	-14134.0
13	17	31	5	821	125.0	-161787.0	-540.0	-14397.0
13	17	31	5	822	126.0	-162680.0	-516.0	-14529.0
13	17	31	5	822	127.0	-163534.0	-510.0	-14436.0
13	17	31	5	830	128.0	-164174.0	-513.0	-14094.0
13	17	31	5	831	129.0	-164365.0	-519.0	-14023.0
13	17	31	5	855	130.0	-164399.0	-553.0	-13871.0
13	17	31	5	855	131.0	-164203.0	-597.0	-14321.0
13	17	31	5	856	132.0	-163817.0	-636.0	-13992.0
13	17	31	5	857	133.0	-163002.0	-588.0	-13901.0
13	17	31	5	857	134.0	-162261.0	-561.0	-14092.0
13	17	31	5	858	135.0	-161467.0	-561.0	-14004.0
13	17	31	5	858	136.0	-160839.0	-522.0	-13963.0
13	17	31	5	859	137.0	-160047.0	-510.0	-13992.0
13	17	31	5	859	138.0	-159503.0	-501.0	-14176.0
13	17	31	5	860	139.0	-159064.0	-516.0	-14163.0
13	17	31	5	861	140.0	-159047.0	-544.0	-14096.0
13	17	31	5	861	141.0	-159474.0	-560.0	-13615.0
13	17	31	5	862	142.0	-160024.0	-586.0	-13413.0
13	17	31	5	862	143.0	-160505.0	-571.0	-13622.0
13	17	31	5	863	144.0	-160454.0	-517.0	-13720.0
13	17	31	5	864	145.0	-160178.0	-508.0	-13979.0
13	17	31	5	864	146.0	-159524.0	-469.0	-14019.0
13	17	31	5	865	147.0	-158899.0	-423.0	-13999.0
13	17	31	5	866	148.0	-157785.0	-492.0	-14133.0
13	17	31	5	877	149.0	-156750.0	-501.0	-13946.0
13	17	31	5	877	150.0	-155817.0	-469.0	-14524.0
13	17	31	5	878	151.0	-155327.0	-568.0	-14286.0
13	17	31	5	879	152.0	-154555.0	-530.0	-14016.0
13	17	31	5	902	153.0	-153821.0	-475.0	-14119.0
13	17	31	5	903	154.0	-153084.0	-485.0	-14234.0
13	17	31	5	904	155.0	-152541.0	-476.0	-14759.0
13	17	31	5	904	156.0	-152112.0	-486.0	-14929.0
13	17	31	5	905	157.0	-151966.0	-462.0	-14694.0
13	17	31	5	905	158.0	-152047.0	-449.0	-14636.0
13	17	31	5	906	159.0	-152179.0	-472.0	-14676.0
13	17	31	5	907	160.0	-152584.0	-508.0	-14906.0
13	17	31	5	907	161.0	-153037.0	-518.0	-15157.0
13	17	31	5	908	162.0	-153734.0	-524.0	-15164.0
13	17	31	5	908	163.0	-154345.0	-524.0	-15065.0
13	17	31	5	909	164.0	-155079.0	-544.0	-15323.0
13	17	31	5	909	165.0	-155704.0	-456.0	-15652.0
13	17	31	5	910	166.0	-156737.0	-437.0	-15214.0
13	17	31	5	910	167.0	-157985.0	-449.0	-14959.0
13	17	31	5	911	168.0	-159738.0	-456.0	-14782.0
13	17	31	5	926	169.0	-161525.0	-461.0	-14866.0
13	17	31	5	926	170.0	-163254.0	-520.0	-15498.0
13	17	31	5	927	171.0	-164825.0	-556.0	-15158.0
13	17	31	5	952	172.0	-166194.0	-529.0	-15000.0
13	17	31	5	953	173.0	-167544.0	-509.0	-15661.0
13	17	31	5	953	174.0	-168922.0	-499.0	-15566.0
13	17	31	5	954	175.0	-170246.0	-487.0	-15053.0
13	17	31	5	954	176.0	-171554.0	-461.0	-14802.0
13	17	31	5	955	177.0	-172972.0	-432.0	-14786.0
13	17	31	5	955	178.0	-174257.0	-443.0	-14674.0
13	17	31	5	956	179.0	-175233.0	-468.0	-14529.0
13	17	31	5	957	180.0	-176144.0	-554.0	-14863.0
13	17	31	5	957	181.0	-176695.0	-573.0	-15024.0
13	17	31	5	958	182.0	-176860.0	-597.0	-14984.0
13	17	31	5	958	183.0	-176706.0	-563.0	-14977.0
13	17	31	5	959	184.0	-176386.0	-507.0	-14626.0
13	17	31	5	960	185.0	-175136.0	-501.0	-13942.0
13	17	31	5	960	186.0	-173756.0	-474.0	-13942.0
13	17	31	5	961	187.0	-171883.0	-471.0	-13978.0
13	17	31	5	962	188.0	-169962.0	-447.0	-13969.0
13	17	31	5	962	189.0	-168139.0	-490.0	-14163.0
13	17	31	5	963	190.0	-166391.0	-527.0	-13769.0
13	17	31	5	963	191.0	-164961.0	-575.0	-12969.0
13	17	31	5	964	192.0	-163617.0	-572.0	-13042.0
13	17	31	5	965	193.0	-162155.0	-523.0	-12647.0
13	17	31	5	965	194.0	-160646.0	-481.0	-13427.0
13	17	31	5	966	195.0	-158923.0	-502.0	-14579.0
13	17	31	5	966	196.0	-157369.0	-486.0	-14969.0
13	17	31	5	967	197.0	-155858.0	-441.0	-14978.0
13	17	31	5	967	198.0	-154326.0	-467.0	-14152.0
13	17	31	5	968	199.0	-153363.0	-501.0	-13119.0
13	17	31	5	976	200.0	-152901.0	-509.0	-12301.0
13	17	31	5	976	201.0	-153053.0	-581.0	-11740.0
13	17	31	5	977	202.0	-153489.0	-587.0	-10401.0
13	17	31	5	978	203.0	-154202.0	-557.0	-9236.0
13	17	31	5	978	204.0	-154822.0	-542.0	-9311.0
13	17	31	5	979	205.0	-155498.0	-518.0	-9090.0
13	17	31	5	999	206.0	-155986.0	-490.0	-7738.0
13	17	31	5	999	207.0	-156409.0	-449.0	-6899.0
13	17	31	6	0	208.0	-156097.0	-452.0	-6417.0
13	17	31	6	1	209.0	-155869.0	-499.0	-6007.0
13	17	31	6	1	210.0	-155964.0	-549.0	-5884.0
13	17	31	6	2	211.0	-156774.0	-569.0	-7212.0
13	17	31	6	2	212.0	-158221.0	-589.0	-11516.0
13	17	31	6	3	213.0	-159921.0	-567.0	-13980.0
13	17	31	6	22	214.0	-161581.0	-536.0	-14477.0
13	17	31	6	22	215.0	-162591.0	-503.0	-13846.0
13	17	31	6	23	216.0	-162788.0	-472.0	-12612.0
13	17	31	6	24	217.0	-162052.0	-494.0	-12327.0
13	17	31	6	24	218.0	-160828.0	-507.0	-12342.0
13	17	31	6	25	219.0	-159967.0	-529.0	-12696.0
13	17	31	6	25	220.0	-159990.0	-584.0	-12981.0
13	17	31	6	26	221.0	-161112.0	-563.0	-12614.0
13	17	31	6	26	222.0	-163044.0	-587.0	-12896.0
13	17	31	6	27	223.0	-164989.0	-545.0	-13399.0
13	17	31	6	28	224.0	-166900.0	-544.0	-13917.0
13	17	31	6	28	225.0	-168330.0	-534.0	-14409.0
13	17	31	6	29	226.0	-169677.0	-510.0	-14879.0
13	17	31	6	29	227.0	-170544.0	-485.0	-15236.0
13	17	31	6	30	228.0	-170836.0	-497.0	-15300.0
13	17	31	6	46	229.0	-170323.0	-519.0	-15471.0
13	17	31	6	46	230.0	-168658.0	-562.0	-15459.0
13	17	31	6	47	231.0	-166823.0	-589.0	-15594.0
13	17	31	6	48	232.0	-165731.0	-582.0	-15607.0
13	17	31	6	48	233.0	-166030.0	-580.0	-15935.0
13	17	31	6	49	234.0	-166845.0	-582.0	-15661.0
13	17	31	6	50	235.0	-168729.0	-556.0	-15776.0
13	17	31	6	50	236.0	-171626.0	-506.0	-15557.0
13	17	31	6	51	237.0	-175037.0	-519.0	-15475.0
13	17	31	6	51	238.0	-178106.0	-514.0	-15374.0
13	17	31	6	52	239.0	-180314.0	-559.0	-15036.0
13	17	31	6	53	240.0	-181117.0	-579.0	-15776.0
13	17	31	6	53	241.0	-181150.0	-634.0	-15836.0
13	17	31	6	54	242.0	-179871.0	-629.0	-14974.0
13	17	31	6	54	243.0	-177491.0	-616.0	-15601.0
13	17	31	6	69	244.0	-173608.0	-575.0	-15538.0
13	17	31	6	69	245.0	-168167.0	-531.0	-15365.0
13	17	31	6	91	246.0	-162180.0	-522.0	-15736.0
13	17	31	6	92	247.0	-155808.0	-515.0	-15510.0
13	17	31	6	93	248.0	-150016.0	-519.0	-15435.0
13	17	31	6	93	249.0	-145156.0	-552.0	-15462.0
13	17	31	6	94	250.0	-141031.0	-584.0	-15569.0
13	17	31	6	94	251.0	-137578.0	-564.0	-15316.0
13	17	31	6	95	252.0	-134680.0	-590.0	-15366.0
13	17	31	6	96	253.0	-132305.0	-614.0	-15466.0
13	17	31	6	96	254.0	-129784.0	-584.0	-15789.0
13	17	31	6	97	255.0	-128015.0	-562.0	-15726.0
13	17	31	6	97	0.0	-126603.0	-527.0	-15327.0
13	17	31	6	98	1.0	-125529.0	-534.0	-15501.0
13	17	31	6	99	2.0	-124847.0	-542.0	-15446.0
13	17	31	6	99	3.0	-124825.0	-547.0	-15463.0
13	17	31	6	100	4.0	-125229.0	-586.0	-15573.0
13	17	31	6	100	5.0	-126410.0	-608.0	-15391.0
13	17	31	6	101	6.0	-128301.0	-619.0	-15579.0
13	17	31	6	101	7.0	-131002.0	-617.0	-15512.0
13	17	31	6	102	8.0	-134281.0	-597.0	-15456.0
13	17	31	6	119	9.0	-137575.0	-542.0	-15479.0
13	17	31	6	121	10.0	-140857.0	-525.0	-15656.0
13	17	31	6	129	11.0	-144321.0	-519.0	-15548.0
13	17	31	6	132	12.0	-148106.0	-526.0	-15801.0
13	17	31	6	132	13.0	-151754.0	-542.0	-15704.0
13	17	31	6	133	14.0	-153235.0	-588.0	-15781.0
13	17	31	6	134	15.0	-155740.0	-594.0	-16087.0
13	17	31	6	134	16.0	-158831.0	-600.0	-16031.0
13	17	31	6	135	17.0	-162497.0	-611.0	-15764.0
13	17	31	6	135	18.0	-165649.0	-591.0	-15434.0
13	17	31	6	136	19.0	-167204.0	-551.0	-15141.0
13	17	31	6	136	20.0	-168327.0	-534.0	-14990.0
13	17	31	6	137	21.0	-169869.0	-540.0	-15042.0
13	17	31	6	137	22.0	-171553.0	-547.0	-15317.0
13	17	31	6	138	23.0	-173158.0	-562.0	-15449.0
13	17	31	6	138	24.0	-173800.0	-592.0	-15684.0
13	17	31	6	156	25.0	-173524.0	-630.0	-15134.0
13	17	31	6	157	26.0	-173671.0	-641.0	-15287.0
13	17	31	6	158	27.0	-173834.0	-617.0	-15081.0
13	17	31	6	158	28.0	-173807.0	-630.0	-14944.0
13	17	31	6	159	29.0	-173664.0	-607.0	-15191.0
13	17	31	6	159	30.0	-173787.0	-585.0	-15257.0
13	17	31	6	160	31.0	-173472.0	-584.0	-15012.0
13	17	31	6	161	32.0	-173171.0	-601.0	-14912.0
13	17	31	6	161	33.0	-172372.0	-638.0	-14885.0
13	17	31	6	162	34.0	-171356.0	-676.0	-14790.0
13	17	31	6	162	35.0	-170707.0	-697.0	-14202.0
13	17	31	6	163	36.0	-169899.0	-672.0	-14336.0
13	17	31	6	164	37.0	-168735.0	-664.0	-14400.0
13	17	31	6	164	38.0	-167698.0	-668.0	-14149.0
13	17	31	6	165	39.0	-166862.0	-662.0	-14032.0
13	17	31	6	166	40.0	-165949.0	-640.0	-14330.0
13	17	31	6	166	41.0	-164719.0	-622.0	-14327.0
13	17	31	6	167	42.0	-163188.0	-636.0	-14227.0
13	17	31	6	167	43.0	-161719.0	-652.0	-14562.0
13	17	31	6	179	44.0	-160706.0	-655.0	-14062.0
13	17	31	6	179	45.0	-160029.0	-698.0	-13756.0
13	17	31	6	202	46.0	-159422.0	-734.0	-13699.0
13	17	31	6	203	47.0	-158922.0	-701.0	-13589.0
13	17	31	6	203	48.0	-158636.0	-656.0	-13196.0
13	17	31	6	204	49.0	-158161.0	-631.0	-13269.0
13	17	31	6	204	50.0	-157536.0	-604.0	-13461.0
13	17	31	6	205	51.0	-156817.0	-624.0	-13273.0
13	17	31	6	205	52.0	-156156.0	-635.0	-13097.0
13	17	31	6	206	53.0	-155781.0	-643.0	-12709.0
13	17	31	6	206	54.0	-155745.0	-678.0	-13047.0
13	17	31	6	207	55.0	-155961.0	-709.0	-12647.0
13	17	31	6	207	56.0	-156513.0	-745.0	-12259.0
13	17	31	6	208	57.0	-156832.0	-744.0	-12464.0
13	17	31	6	209	58.0	-156860.0	-713.0	-12182.0
13	17	31	6	209	59.0	-156976.0	-686.0	-12113.0
13	17	31	6	230	60.0	-157339.0	-646.0	-12332.0
13	17	31	6	231	61.0	-157911.0	-637.0	-12554.0
13	17	31	6	231	62.0	-158387.0	-697.0	-12080.0
13	17	31	6	232	63.0	-158976.0	-716.0	-11952.0
13	17	31	6	233	64.0	-159961.0	-721.0	-11912.0
13	17	31	6	233	65.0	-161218.0	-745.0	-11374.0
13	17	31	6	234	66.0	-162019.0	-740.0	-10904.0
13	17	31	6	235	67.0	-162351.0	-749.0	-10588.0
13	17	31	6	235	68.0	-162716.0	-719.0	-10839.0
13	17	31	6	236	69.0	-163133.0	-687.0	-11144.0
13	17	31	6	236	70.0	-163556.0	-664.0	-11109.0
13	17	31	6	237	71.0	-163726.0	-647.0	-11313.0
13	17	31	6	237	72.0	-163938.0	-670.0	-11377.0
13	17	31	6	238	73.0	-164215.0	-688.0	-11679.0
13	17	31	6	239	74.0	-164888.0	-746.0	-11329.0
13	17	31	6	239	75.0	-165398.0	-791.0	-10782.0
13	17	31	6	240	76.0	-165947.0	-768.0	-10902.0
13	17	31	6	240	77.0	-166164.0	-751.0	-11131.0
13	17	31	6	241	78.0	-166017.0	-744.0	-11554.0
13	17	31	6	248	79.0	-165696.0	-684.0	-11569.0
13	17	31	6	249	80.0	-165681.0	-655.0	-11459.0
13	17	31	6	250	81.0	-165930.0	-649.0	-11337.0
13	17	31	6	250	82.0	-166016.0	-685.0	-11673.0
13	17	31	6	251	83.0	-165732.0	-719.0	-11798.0
13	17	31	6	271	84.0	-165266.0	-778.0	-12020.0
13	17	31	6	272	85.0	-164843.0	-787.0	-12342.0
13	17	31	6	272	86.0	-164314.0	-754.0	-12455.0
13	17	31	6	273	87.0	-163798.0	-734.0	-12787.0
13	17	31	6	274	88.0	-163024.0	-739.0	-13279.0
13	17	31	6	274	89.0	-162687.0	-732.0	-13119.0
13	17	31	6	275	90.0	-162484.0	-675.0	-12762.0
13	17	31	6	275	91.0	-162265.0	-681.0	-12830.0
13	17	31	6	276	92.0	-162123.0	-677.0	-12994.0
13	17	31	6	294	93.0	-161822.0	-726.0	-13568.0
13	17	31	6	294	94.0	-161533.0	-737.0	-14200.0
13	17	31	6	295	95.0	-161392.0	-732.0	-13899.0
13	17	31	6	295	96.0	-161156.0	-762.0	-14621.0
13	17	31	6	296	97.0	-161036.0	-731.0	-14754.0
13	17	31	6	297	98.0	-160873.0	-708.0	-14431.0
13	17	31	6	316	99.0	-160722.0	-709.0	-14522.0
13	17	31	6	317	100.0	-160752.0	-693.0	-14815.0
13	17	31	6	317	101.0	-160851.0	-664.0	-15076.0
13	17	31	6	318	102.0	-160607.0	-634.0	-15108.0
13	17	31	6	318	103.0	-160313.0	-689.0	-15381.0
13	17	31	6	319	104.0	-161007.0	-736.0	-15956.0
13	17	31	6	319	105.0	-161827.0	-761.0	-15424.0
13	17	31	6	320	106.0	-162359.0	-786.0	-15582.0
13	17	31	6	321	107.0	-162281.0	-766.0	-15999.0
13	17	31	6	321	108.0	-161947.0	-736.0	-16240.0
13	17	31	6	322	109.0	-161719.0	-705.0	-15981.0
13	17	31	6	322	110.0	-161776.0	-641.0	-16056.0
13	17	31	6	323	111.0	-162004.0	-654.0	-16387.0
13	17	31	6	323	112.0	-162314.0	-661.0	-16692.0
13	17	31	6	324	113.0	-162942.0	-697.0	-16823.0
13	17	31	6	324	114.0	-163823.0	-729.0	-16980.0
13	17	31	6	325	115.0	-164445.0	-731.0	-16634.0
13	17	31	6	326	116.0	-165053.0	-726.0	-16712.0
13	17	31	6	326	117.0	-165431.0	-696.0	-16453.0
13	17	31	6	327	118.0	-165544.0	-709.0	-16934.0
13	17	31	6	327	119.0	-165409.0	-664.0	-17081.0
13	17	31	6	328	120.0	-165122.0	-612.0	-17147.0
13	17	31	6	339	121.0	-165097.0	-650.0	-17031.0
13	17	31	6	340	122.0	-165169.0	-667.0	-17144.0
13	17	31	6	340	123.0	-165309.0	-694.0	-17174.0
13	17	31	6	341	124.0	-165804.0	-719.0	-17269.0
13	17	31	6	342	125.0	-166409.0	-726.0	-16933.0
13	17	31	6	342	126.0	-166953.0	-714.0	-16901.0
13	17	31	6	343	127.0	-167031.0	-689.0	-17645.0
13	17	31	6	343	128.0	-166916.0	-665.0	-17421.0
13	17	31	6	344	129.0	-167256.0	-663.0	-16964.0
13	17	31	6	344	130.0	-167752.0	-618.0	-17060.0
13	17	31	6	363	131.0	-168264.0	-594.0	-17804.0
13	17	31	6	364	132.0	-168529.0	-617.0	-17759.0
13	17	31	6	365	133.0	-168807.0	-661.0	-17481.0
13	17	31	6	365	134.0	-168431.0	-697.0	-17740.0
13	17	31	6	366	135.0	-166329.0	-703.0	-17707.0
13	17	31	6	366	136.0	-163139.0	-677.0	-17246.0
13	17	31	6	367	137.0	-161443.0	-693.0	-16886.0
13	17	31	6	368	138.0	-160304.0	-656.0	-16651.0
13	17	31	6	368	139.0	-161329.0	-594.0	-16797.0
13	17	31	6	369	140.0	-163726.0	-576.0	-17528.0
13	17	31	6	369	141.0	-166441.0	-586.0	-17522.0
13	17	31	6	370	142.0	-168670.0	-592.0	-17466.0
13	17	31	6	370	143.0	-171851.0	-601.0	-17627.0
13	17	31	6	371	144.0	-173720.0	-671.0	-17145.0
13	17	31	6	371	145.0	-173004.0	-682.0	-17007.0
13	17	31	6	386	146.0	-171074.0	-651.0	-16936.0
13	17	31	6	387	147.0	-167703.0	-641.0	-16413.0
13	17	31	6	387	148.0	-162881.0	-629.0	-16961.0
13	17	31	6	388	149.0	-158107.0	-592.0	-17476.0
13	17	31	6	389	150.0	-153714.0	-576.0	-17281.0
13	17	31	6	389	151.0	-149808.0	-576.0	-17506.0
13	17	31	6	411	152.0	-146267.0	-597.0	-17489.0
13	17	31	6	411	153.0	-143901.0	-608.0	-17440.0
13	17	31	6	412	154.0	-143069.0	-620.0	-17189.0
13	17	31	6	413	155.0	-143836.0	-637.0	-17145.0
13	17	31	6	413	156.0	-145544.0	-623.0	-17458.0
13	17	31	6	414	157.0	-147179.0	-624.0	-17544.0
13	17	31	6	414	158.0	-148346.0	-610.0	-17477.0
13	17	31	6	415	159.0	-149096.0	-592.0	-17796.0
13	17	31	6	416	160.0	-149481.0	-542.0	-17581.0
13	17	31	6	416	161.0	-148989.0	-542.0	-17029.0
13	17	31	6	417	162.0	-147804.0	-562.0	-17059.0
13	17	31	6	417	163.0	-146699.0	-579.0	-17502.0
13	17	31	6	418	164.0	-146374.0	-616.0	-17652.0
13	17	31	6	419	165.0	-146686.0	-628.0	-16739.0
13	17	31	6	419	166.0	-147251.0	-650.0	-17119.0
13	17	31	6	420	167.0	-148109.0	-586.0	-17464.0
13	17	31	6	420	168.0	-149240.0	-559.0	-17732.0
13	17	31	6	421	169.0	-150856.0	-528.0	-17565.0
13	17	31	6	421	170.0	-152512.0	-472.0	-17216.0
13	17	31	6	434	171.0	-154206.0	-492.0	-17419.0
13	17	31	6	457	172.0	-155832.0	-517.0	-17310.0
13	17	31	6	458	173.0	-157016.0	-530.0	-17157.0
13	17	31	6	459	174.0	-158433.0	-556.0	-17259.0
13	17	31	6	459	175.0	-160034.0	-584.0	-17231.0
13	17	31	6	460	176.0	-161352.0	-596.0	-17036.0
13	17	31	6	460	177.0	-161949.0	-547.0	-17304.0
13	17	31	6	461	178.0	-161926.0	-524.0	-17247.0
13	17	31	6	461	179.0	-161985.0	-481.0	-17240.0
13	17	31	6	462	180.0	-162231.0	-465.0	-17388.0
13	17	31	6	462	181.0	-162859.0	-461.0	-17610.0
13	17	31	6	463	182.0	-163542.0	-467.0	-17338.0
13	17	31	6	463	183.0	-164289.0	-501.0	-17722.0
13	17	31	6	464	184.0	-165220.0	-539.0	-17493.0
13	17	31	6	465	185.0	-166184.0	-560.0	-17429.0
13	17	31	6	465	186.0	-166851.0	-568.0	-17262.0
13	17	31	6	466	187.0	-167346.0	-546.0	-17304.0
13	17	31	6	466	188.0	-168124.0	-504.0	-17452.0
13	17	31	6	486	189.0	-169214.0	-472.0	-17241.0
13	17	31	6	486	190.0	-169714.0	-457.0	-17419.0
13	17	31	6	487	191.0	-170070.0	-456.0	-17975.0
13	17	31	6	488	192.0	-170092.0	-481.0	-17648.0
13	17	31	6	488	193.0	-169954.0	-493.0	-17636.0
13	17	31	6	489	194.0	-169505.0	-549.0	-17822.0
13	17	31	6	489	195.0	-168981.0	-559.0	-17807.0
13	17	31	6	490	196.0	-168797.0	-540.0	-18116.0
13	17	31	6	491	197.0	-168574.0	-530.0	-18097.0
13	17	31	6	491	198.0	-167938.0	-492.0	-17495.0
13	17	31	6	492	199.0	-167349.0	-464.0	-17554.0
13	17	31	6	493	200.0	-166976.0	-442.0	-17569.0
13	17	31	6	493	201.0	-166389.0	-442.0	-17289.0
13	17	31	6	494	202.0	-166040.0	-456.0	-17412.0
13	17	31	6	494	203.0	-166027.0	-482.0	-17686.0
13	17	31	6	495	204.0	-165754.0	-503.0	-17701.0
13	17	31	6	495	205.0	-165547.0	-537.0	-17697.0
13	17	31	6	496	206.0	-165239.0	-515.0	-17754.0
13	17	31	6	497	207.0	-165137.0	-506.0	-17182.0
13	17	31	6	509	208.0	-164804.0	-470.0	-17319.0
13	17	31	6	510	209.0	-164239.0	-448.0	-17140.0
13	17	31	6	510	210.0	-163710.0	-446.0	-17144.0
13	17	31	6	532	211.0	-163181.0	-452.0	-17503.0
13	17	31	6	533	212.0	-162736.0	-436.0	-17572.0
13	17	31	6	533	213.0	-162417.0	-466.0	-17581.0
13	17	31	6	534	214.0	-162084.0	-497.0	-17564.0
13	17	31	6	534	215.0	-162075.0	-507.0	-17808.0
13	17	31	6	535	216.0	-162004.0	-526.0	-17726.0
13	17	31	6	536	217.0	-161607.0	-520.0	-17082.0
13	17	31	6	536	218.0	-161027.0	-513.0	-17408.0
13	17	31	6	537	219.0	-160697.0	-452.0	-17800.0
13	17	31	6	537	220.0	-160502.0	-419.0	-17784.0
13	17	31	6	538	221.0	-159967.0	-414.0	-17956.0
13	17	31	6	538	222.0	-159334.0	-418.0	-18020.0
13	17	31	6	539	223.0	-159042.0	-442.0	-18084.0
13	17	31	6	539	224.0	-158599.0	-517.0	-17970.0
13	17	31	6	540	225.0	-158388.0	-532.0	-18025.0
13	17	31	6	541	226.0	-158636.0	-510.0	-18150.0
13	17	31	6	555	227.0	-158777.0	-503.0	-18226.0
13	17	31	6	556	228.0	-158971.0	-473.0	-18351.0
13	17	31	6	556	229.0	-159092.0	-457.0	-18465.0
13	17	31	6	557	230.0	-159546.0	-451.0	-18432.0
13	17	31	6	557	231.0	-160015.0	-428.0	-18236.0
13	17	31	6	558	232.0	-160674.0	-448.0	-17736.0
13	17	31	6	558	233.0	-160937.0	-491.0	-17599.0
13	17	31	6	559	234.0	-161354.0	-534.0	-17912.0
13	17	31	6	560	235.0	-161679.0	-506.0	-17377.0
13	17	31	6	560	236.0	-161467.0	-498.0	-18051.0
13	17	31	6	561	237.0	-160677.0	-511.0	-17836.0
13	17	31	6	561	238.0	-159851.0	-501.0	-17869.0
13	17	31	6	562	239.0	-158824.0	-475.0	-18109.0
13	17	31	6	563	240.0	-158296.0	-460.0	-18409.0
13	17	31	6	563	241.0	-157752.0	-469.0	-18138.0
13	17	31	6	579	242.0	-157116.0	-476.0	-18282.0
13	17	31	6	579	243.0	-157000.0	-499.0	-18337.0
13	17	31	6	580	244.0	-156927.0	-516.0	-17869.0
13	17	31	6	581	245.0	-157131.0	-513.0	-17735.0
13	17	31	6	581	246.0	-157895.0	-511.0	-17576.0
13	17	31	6	582	247.0	-158956.0	-521.0	-17612.0
13	17	31	6	582	248.0	-159726.0	-499.0	-17630.0
13	17	31	6	583	249.0	-159962.0	-482.0	-17896.0
13	17	31	6	602	250.0	-160592.0	-452.0	-18261.0
13	17	31	6	602	251.0	-160998.0	-442.0	-18139.0
13	17	31	6	603	252.0	-161467.0	-456.0	-17862.0
13	17	31	6	603	253.0	-162376.0	-451.0	-17777.0
13	17	31	6	604	254.0	-163326.0	-525.0	-17374.0
13	17	31	6	605	255.0	-164459.0	-548.0	-17638.0
13	17	31	6	605	0.0	-165669.0	-540.0	-17826.0
13	17	31	6	635	1.0	-166394.0	-489.0	-18197.0
13	17	31	6	636	2.0	-166679.0	-472.0	-18188.0
13	17	31	6	637	3.0	-167134.0	-446.0	-18331.0
13	17	31	6	637	4.0	-167276.0	-461.0	-17901.0
13	17	31	6	638	5.0	-167049.0	-472.0	-17644.0
13	17	31	6	639	6.0	-166892.0	-459.0	-18007.0
13	17	31	6	640	7.0	-166260.0	-481.0	-18127.0
13	17	31	6	640	8.0	-165482.0	-534.0	-18307.0
13	17	31	6	641	9.0	-165223.0	-539.0	-18141.0
13	17	31	6	642	10.0	-164848.0	-523.0	-18547.0
13	17	31	6	642	11.0	-164511.0	-526.0	-18866.0
13	17	31	6	643	12.0	-164416.0	-485.0	-18172.0
13	17	31	6	644	13.0	-163909.0	-477.0	-17572.0
13	17	31	6	644	14.0	-163073.0	-473.0	-17673.0
13	17	31	6	645	15.0	-162746.0	-456.0	-17699.0
13	17	31	6	645	16.0	-161852.0	-471.0	-17777.0
13	17	31	6	646	22.0	-157337.0	-489.0	-17979.0
13	17	31	6	647	23.0	-156772.0	-454.0	-17886.0
13	17	31	6	647	24.0	-157036.0	-434.0	-17799.0
13	17	31	6	658	25.0	-156655.0	-439.0	-17901.0
13	17	31	6	659	26.0	-156943.0	-468.0	-18137.0
13	17	31	6	659	27.0	-157575.0	-489.0	-18234.0
13	17	31	6	660	28.0	-157516.0	-522.0	-17599.0
13	17	31	6	660	29.0	-157565.0	-534.0	-17959.0
13	17	31	6	681	30.0	-158277.0	-541.0	-18248.0
13	17	31	6	682	31.0	-158397.0	-506.0	-17699.0
13	17	31	6	682	32.0	-158160.0	-475.0	-17512.0
13	17	31	6	683	33.0	-158212.0	-445.0	-17551.0
13	17	31	6	684	34.0	-157712.0	-432.0	-17878.0
13	17	31	6	684	35.0	-157340.0	-451.0	-18121.0
13	17	31	6	685	36.0	-157134.0	-461.0	-17823.0
13	17	31	6	685	37.0	-156865.0	-461.0	-18077.0
13	17	31	6	686	38.0	-156706.0	-516.0	-18149.0
13	17	31	6	686	39.0	-157004.0	-537.0	-18110.0
13	17	31	6	687	40.0	-157099.0	-546.0	-17786.0
13	17	31	6	688	41.0	-157407.0	-531.0	-17764.0
13	17	31	6	688	42.0	-158214.0	-489.0	-17954.0
13	17	31	6	689	43.0	-158591.0	-486.0	-18185.0
13	17	31	6	689	44.0	-158754.0	-460.0	-17962.0
13	17	31	6	690	45.0	-158832.0	-452.0	-17952.0
13	17	31	6	704	46.0	-158690.0	-463.0	-17864.0
13	17	31	6	705	47.0	-158294.0	-486.0	-17758.0
13	17	31	6	706	48.0	-158128.0	-534.0	-17786.0
13	17	31	6	706	49.0	-158252.0	-532.0	-17580.0
13	17	31	6	707	50.0	-158631.0	-534.0	-18059.0
13	17	31	6	707	51.0	-158966.0	-522.0	-17537.0
13	17	31	6	708	52.0	-159092.0	-486.0	-16948.0
13	17	31	6	709	53.0	-159056.0	-492.0	-17408.0
13	17	31	6	709	54.0	-159054.0	-457.0	-18497.0
13	17	31	6	710	55.0	-158597.0	-464.0	-18307.0
13	17	31	6	710	56.0	-158919.0	-501.0	-17955.0
13	17	31	6	711	57.0	-160059.0	-512.0	-17873.0
13	17	31	6	712	58.0	-160496.0	-536.0	-17504.0
13	17	31	6	712	59.0	-160588.0	-556.0	-17468.0
13	17	31	6	713	60.0	-160288.0	-544.0	-16902.0
13	17	31	6	729	61.0	-159726.0	-554.0	-17024.0
13	17	31	6	729	62.0	-159061.0	-513.0	-17324.0
13	17	31	6	730	63.0	-159259.0	-492.0	-17562.0
13	17	31	6	730	64.0	-159474.0	-479.0	-17829.0
13	17	31	6	731	65.0	-159459.0	-494.0	-18019.0
13	17	31	6	731	66.0	-159296.0	-492.0	-18036.0
13	17	31	6	732	67.0	-158822.0	-527.0	-17709.0
13	17	31	6	752	68.0	-158242.0	-537.0	-17602.0
13	17	31	6	753	69.0	-157736.0	-552.0	-17733.0
13	17	31	6	754	70.0	-157294.0	-565.0	-17864.0
13	17	31	6	754	71.0	-156830.0	-514.0	-17959.0
13	17	31	6	755	72.0	-156725.0	-514.0	-18287.0
13	17	31	6	756	73.0	-156761.0	-483.0	-18456.0
13	17	31	6	756	74.0	-156919.0	-436.0	-18212.0
13	17	31	6	757	75.0	-156842.0	-425.0	-18189.0
13	17	31	6	757	76.0	-156804.0	-474.0	-18005.0
13	17	31	6	758	77.0	-156819.0	-504.0	-18251.0
13	17	31	6	758	78.0	-156972.0	-536.0	-18182.0
13	17	31	6	759	79.0	-157077.0	-515.0	-18133.0
13	17	31	6	778	80.0	-157131.0	-517.0	-18532.0
13	17	31	6	779	81.0	-157531.0	-530.0	-18751.0
13	17	31	6	780	82.0	-157832.0	-514.0	-18802.0
13	17	31	6	780	83.0	-158324.0	-455.0	-18192.0
13	17	31	6	781	84.0	-159043.0	-432.0	-17819.0
13	17	31	6	781	85.0	-159474.0	-454.0	-18207.0
13	17	31	6	782	86.0	-159899.0	-427.0	-18212.0
13	17	31	6	783	87.0	-160531.0	-446.0	-17969.0
13	17	31	6	783	88.0	-160857.0	-484.0	-17525.0
13	17	31	6	784	89.0	-161581.0	-505.0	-17927.0
13	17	31	6	784	90.0	-162505.0	-513.0	-18661.0
13	17	31	6	785	91.0	-163420.0	-474.0	-18149.0
13	17	31	6	785	92.0	-163959.0	-448.0	-18072.0
13	17	31	6	786	93.0	-164158.0	-438.0	-17746.0
13	17	31	6	787	94.0	-164159.0	-427.0	-17531.0
13	17	31	6	787	95.0	-164185.0	-419.0	-17426.0
13	17	31	6	788	96.0	-163891.0	-452.0	-17668.0
13	17	31	6	801	97.0	-163719.0	-479.0	-18349.0
13	17	31	6	802	98.0	-163704.0	-510.0	-17919.0
13	17	31	6	803	99.0	-163594.0	-526.0	-18193.0
13	17	31	6	803	100.0	-163862.0	-514.0	-18127.0
13	17	31	6	804	101.0	-163577.0	-517.0	-17755.0
13	17	31	6	805	102.0	-163601.0	-496.0	-17836.0
13	17	31	6	805	103.0	-163342.0	-453.0	-17964.0
13	17	31	6	806	104.0	-162664.0	-438.0	-17888.0
13	17	31	6	806	105.0	-162077.0	-431.0	-17938.0
13	17	31	6	807	106.0	-161412.0	-457.0	-17997.0
13	17	31	6	827	107.0	-160681.0	-466.0	-17921.0
13	17	31	6	827	108.0	-160194.0	-509.0	-18255.0
13	17	31	6	828	109.0	-159522.0	-535.0	-18057.0
13	17	31	6	829	110.0	-158914.0	-527.0	-17965.0
13	17	31	6	829	111.0	-158109.0	-495.0	-17839.0
13	17	31	6	830	112.0	-157456.0	-461.0	-18065.0
13	17	31	6	849	113.0	-157128.0	-449.0	-18011.0
13	17	31	6	849	114.0	-156214.0	-439.0	-17933.0
13	17	31	6	850	115.0	-155369.0	-424.0	-18228.0
13	17	31	6	851	116.0	-154642.0	-454.0	-18364.0
13	17	31	6	851	117.0	-154089.0	-473.0	-18694.0
13	17	31	6	852	118.0	-153569.0	-518.0	-18401.0
13	17	31	6	853	119.0	-153013.0	-541.0	-17836.0
13	17	31	6	853	120.0	-152743.0	-504.0	-18451.0
13	17	31	6	854	121.0	-152437.0	-473.0	-18122.0
13	17	31	6	854	122.0	-152256.0	-466.0	-17604.0
13	17	31	6	855	123.0	-152393.0	-449.0	-17681.0
13	17	31	6	855	124.0	-152334.0	-444.0	-17982.0
13	17	31	6	856	125.0	-152306.0	-438.0	-18288.0
13	17	31	6	857	126.0	-152367.0	-432.0	-18122.0
13	17	31	6	857	127.0	-152509.0	-485.0	-17853.0
13	17	31	6	858	128.0	-152771.0	-525.0	-17755.0
13	17	31	6	858	129.0	-153478.0	-515.0	-18017.0
13	17	31	6	859	130.0	-153824.0	-502.0	-17633.0
13	17	31	6	860	131.0	-154471.0	-492.0	-17593.0
13	17	31	6	860	132.0	-155339.0	-500.0	-17487.0
13	17	31	6	861	133.0	-156225.0	-444.0	-17466.0
13	17	31	6	877	134.0	-156996.0	-427.0	-17781.0
13	17	31	6	877	135.0	-157603.0	-423.0	-17964.0
13	17	31	6	878	136.0	-157669.0	-470.0	-18209.0
13	17	31	6	879	137.0	-157766.0	-489.0	-18112.0
13	17	31	6	879	138.0	-157607.0	-514.0	-18005.0
13	17	31	6	880	139.0	-157456.0	-529.0	-18269.0
13	17	31	6	880	140.0	-157537.0	-517.0	-18151.0
13	17	31	6	881	141.0	-156978.0	-489.0	-17935.0
13	17	31	6	882	142.0	-156866.0	-475.0	-18131.0
13	17	31	6	882	143.0	-157056.0	-471.0	-18362.0
13	17	31	6	904	144.0	-157531.0	-431.0	-18502.0
13	17	31	6	904	145.0	-158221.0	-441.0	-18287.0
13	17	31	6	905	146.0	-158927.0	-446.0	-17887.0
13	17	31	6	906	147.0	-159808.0	-468.0	-18116.0
13	17	31	6	906	148.0	-160682.0	-494.0	-18286.0
13	17	31	6	907	149.0	-161361.0	-510.0	-18437.0
13	17	31	6	907	150.0	-161956.0	-496.0	-18316.0
13	17	31	6	908	151.0	-162461.0	-489.0	-18637.0
13	17	31	6	908	152.0	-162959.0	-475.0	-18626.0
13	17	31	6	909	153.0	-163487.0	-440.0	-18530.0
13	17	31	6	909	154.0	-163962.0	-425.0	-18219.0
13	17	31	6	910	155.0	-163841.0	-442.0	-18010.0
13	17	31	6	911	156.0	-163989.0	-457.0	-18309.0
13	17	31	6	911	157.0	-164084.0	-496.0	-18694.0
13	17	31	6	912	158.0	-164047.0	-520.0	-18032.0
13	17	31	6	928	159.0	-164235.0	-549.0	-18612.0
13	17	31	6	928	160.0	-164635.0	-546.0	-19091.0
13	17	31	6	929	161.0	-165061.0	-505.0	-18721.0
13	17	31	6	929	162.0	-165431.0	-482.0	-18606.0
13	17	31	6	930	163.0	-166025.0	-447.0	-18667.0
13	17	31	6	930	164.0	-166651.0	-438.0	-18635.0
13	17	31	6	951	165.0	-166960.0	-415.0	-18531.0
13	17	31	6	952	166.0	-167174.0	-449.0	-18492.0
13	17	31	6	953	167.0	-167201.0	-508.0	-18703.0
13	17	31	6	953	168.0	-166561.0	-517.0	-18591.0
13	17	31	6	954	169.0	-166134.0	-563.0	-18732.0
13	17	31	6	954	170.0	-165660.0	-569.0	-18516.0
13	17	31	6	955	171.0	-164945.0	-544.0	-18222.0
13	17	31	6	955	172.0	-164902.0	-506.0	-17971.0
13	17	31	6	956	173.0	-165034.0	-457.0	-18729.0
13	17	31	6	956	174.0	-165139.0	-479.0	-18863.0
13	17	31	6	977	175.0	-164994.0	-494.0	-18741.0
13	17	31	6	978	176.0	-164726.0	-506.0	-18836.0
13	17	31	6	978	177.0	-164662.0	-521.0	-18666.0
13	17	31	6	979	178.0	-164171.0	-556.0	-18632.0
13	17	31	6	980	179.0	-163527.0	-586.0	-18639.0
13	17	31	6	980	180.0	-163195.0	-571.0	-18479.0
13	17	31	6	981	181.0	-163036.0	-554.0	-18884.0
13	17	31	6	981	182.0	-162553.0	-562.0	-18754.0
13	17	31	6	982	183.0	-162079.0	-503.0	-18560.0
13	17	31	6	982	184.0	-161351.0	-476.0	-18622.0
13	17	31	6	983	185.0	-160664.0	-492.0	-18554.0
13	17	31	6	983	186.0	-159644.0	-509.0	-18392.0
13	17	31	6	984	187.0	-158501.0	-542.0	-18868.0
13	17	31	6	984	188.0	-157271.0	-580.0	-18594.0
13	17	31	6	985	189.0	-156763.0	-617.0	-17937.0
13	17	31	6	986	190.0	-156167.0	-579.0	-17831.0
13	17	31	6	986	191.0	-155650.0	-546.0	-17215.0
13	17	31	6	987	192.0	-155010.0	-527.0	-16263.0
13	17	31	6	987	193.0	-154397.0	-506.0	-16687.0
13	17	31	6	999	194.0	-153547.0	-492.0	-17799.0
13	17	31	7	0	195.0	-153096.0	-486.0	-18653.0
13	17	31	7	1	196.0	-152871.0	-505.0	-19476.0
13	17	31	7	1	197.0	-153248.0	-534.0	-18682.0
13	17	31	7	2	198.0	-154973.0	-571.0	-17326.0
13	17	31	7	2	199.0	-157186.0	-572.0	-16598.0
13	17	31	7	26	200.0	-159451.0	-597.0	-14726.0
13	17	31	7	26	201.0	-161699.0	-576.0	-13173.0
13	17	31	7	27	202.0	-163921.0	-556.0	-12333.0
13	17	31	7	27	203.0	-165397.0	-541.0	-11836.0
13	17	31	7	28	204.0	-166968.0	-528.0	-12332.0
13	17	31	7	29	205.0	-167973.0	-546.0	-11205.0
13	17	31	7	29	206.0	-168471.0	-589.0	-10371.0
13	17	31	7	30	207.0	-168783.0	-608.0	-10041.0
13	17	31	7	30	208.0	-168881.0	-612.0	-9174.0
13	17	31	7	31	209.0	-169107.0	-625.0	-9617.0
13	17	31	7	31	210.0	-169390.0	-619.0	-11880.0
13	17	31	7	32	211.0	-170100.0	-571.0	-15674.0
13	17	31	7	48	212.0	-171087.0	-557.0	-17873.0
13	17	31	7	49	213.0	-172147.0	-532.0	-18334.0
13	17	31	7	49	214.0	-172894.0	-524.0	-17457.0
13	17	31	7	50	215.0	-173362.0	-514.0	-16328.0
13	17	31	7	50	216.0	-172928.0	-541.0	-15632.0
13	17	31	7	51	217.0	-170776.0	-600.0	-15329.0
13	17	31	7	52	218.0	-166691.0	-630.0	-15549.0
13	17	31	7	52	219.0	-161289.0	-632.0	-16382.0
13	17	31	7	53	220.0	-155552.0	-626.0	-16737.0
13	17	31	7	53	221.0	-150787.0	-607.0	-17160.0
13	17	31	7	54	222.0	-147313.0	-586.0	-17678.0
13	17	31	7	54	223.0	-145371.0	-560.0	-18012.0
13	17	31	7	55	224.0	-144718.0	-524.0	-18212.0
13	17	31	7	56	225.0	-145379.0	-542.0	-18268.0
13	17	31	7	56	226.0	-147282.0	-582.0	-18349.0
13	17	31	7	57	227.0	-150249.0	-606.0	-19054.0
13	17	31	7	57	228.0	-154517.0	-622.0	-18747.0
13	17	31	7	58	229.0	-159142.0	-636.0	-19043.0
13	17	31	7	58	230.0	-162644.0	-616.0	-19017.0
13	17	31	7	59	231.0	-164534.0	-627.0	-18571.0
13	17	31	7	76	232.0	-165407.0	-603.0	-18921.0
13	17	31	7	77	233.0	-165831.0	-571.0	-19024.0
13	17	31	7	77	234.0	-166776.0	-580.0	-18734.0
13	17	31	7	78	235.0	-168708.0	-591.0	-18544.0
13	17	31	7	78	236.0	-171401.0	-595.0	-18813.0
13	17	31	7	79	237.0	-173837.0	-634.0	-18949.0
13	17	31	7	79	238.0	-175433.0	-662.0	-18596.0
13	17	31	7	80	239.0	-175700.0	-697.0	-18678.0
13	17	31	7	80	240.0	-173882.0	-674.0	-18663.0
13	17	31	7	101	241.0	-170204.0	-627.0	-19023.0
13	17	31	7	101	242.0	-164934.0	-610.0	-19029.0
13	17	31	7	102	243.0	-158962.0	-588.0	-19317.0
13	17	31	7	102	244.0	-152624.0	-547.0	-19374.0
13	17	31	7	103	245.0	-146393.0	-537.0	-19199.0
13	17	31	7	104	246.0	-140898.0	-584.0	-18997.0
13	17	31	7	104	247.0	-137074.0	-634.0	-19033.0
13	17	31	7	125	248.0	-134780.0	-629.0	-19234.0
13	17	31	7	126	249.0	-133920.0	-641.0	-19121.0
13	17	31	7	127	250.0	-133726.0	-637.0	-19304.0
13	17	31	7	127	251.0	-134524.0	-642.0	-19251.0
13	17	31	7	128	252.0	-135621.0	-582.0	-19229.0
13	17	31	7	128	253.0	-137131.0	-571.0	-19251.0
13	17	31	7	129	254.0	-138194.0	-568.0	-19281.0
13	17	31	7	129	255.0	-139309.0	-559.0	-19336.0
13	17	31	7	130	0.0	-140399.0	-576.0	-19258.0
13	17	31	7	130	1.0	-141795.0	-609.0	-19596.0
13	17	31	7	131	2.0	-143241.0	-642.0	-19461.0
13	17	31	7	131	3.0	-144577.0	-646.0	-18997.0
13	17	31	7	132	4.0	-145949.0	-612.0	-19168.0
13	17	31	7	133	5.0	-147486.0	-587.0	-18917.0
13	17	31	7	133	6.0	-149814.0	-568.0	-18399.0
13	17	31	7	134	7.0	-152097.0	-494.0	-18337.0
13	17	31	7	134	8.0	-154474.0	-529.0	-18792.0
13	17	31	7	135	9.0	-156696.0	-562.0	-18829.0
13	17	31	7	135	10.0	-159237.0	-601.0	-19102.0
13	17	31	7	136	11.0	-161626.0	-618.0	-19389.0
13	17	31	7	136	12.0	-164022.0	-637.0	-19482.0
13	17	31	7	148	13.0	-166028.0	-607.0	-19519.0
13	17	31	7	149	14.0	-168225.0	-577.0	-18917.0
13	17	31	7	149	15.0	-170177.0	-563.0	-18817.0
13	17	31	7	150	16.0	-171279.0	-518.0	-18821.0
13	17	31	7	151	17.0	-171836.0	-500.0	-18752.0
13	17	31	7	151	18.0	-171927.0	-529.0	-18772.0
13	17	31	7	152	19.0	-171453.0	-520.0	-18771.0
13	17	31	7	152	20.0	-170729.0	-532.0	-19087.0
13	17	31	7	153	21.0	-169841.0	-562.0	-19046.0
13	17	31	7	153	22.0	-168832.0	-612.0	-18474.0
13	17	31	7	175	23.0	-167747.0	-603.0	-18791.0
13	17	31	7	176	24.0	-166534.0	-582.0	-18360.0
13	17	31	7	177	25.0	-164882.0	-587.0	-18036.0
13	17	31	7	177	26.0	-163113.0	-553.0	-18462.0
13	17	31	7	178	27.0	-161091.0	-522.0	-18550.0
13	17	31	7	178	28.0	-158907.0	-496.0	-18743.0
13	17	31	7	179	29.0	-156236.0	-499.0	-18604.0
13	17	31	7	180	30.0	-153487.0	-524.0	-18393.0
13	17	31	7	181	31.0	-151037.0	-546.0	-18014.0
13	17	31	7	181	32.0	-148641.0	-564.0	-18280.0
13	17	31	7	182	33.0	-147042.0	-554.0	-18233.0
13	17	31	7	182	34.0	-146064.0	-554.0	-18372.0
13	17	31	7	183	35.0	-145697.0	-547.0	-18305.0
13	17	31	7	183	36.0	-145816.0	-553.0	-18366.0
13	17	31	7	184	37.0	-146357.0	-525.0	-18402.0
13	17	31	7	184	38.0	-147305.0	-490.0	-18176.0
13	17	31	7	185	39.0	-148282.0	-456.0	-18012.0
13	17	31	7	198	40.0	-149281.0	-473.0	-17829.0
13	17	31	7	199	41.0	-150444.0	-522.0	-18028.0
13	17	31	7	199	42.0	-151761.0	-586.0	-17319.0
13	17	31	7	226	43.0	-153438.0	-615.0	-17374.0
13	17	31	7	226	44.0	-155127.0	-590.0	-17567.0
13	17	31	7	227	45.0	-156939.0	-560.0	-16852.0
13	17	31	7	227	46.0	-158817.0	-521.0	-16752.0
13	17	31	7	228	47.0	-161162.0	-493.0	-17357.0
13	17	31	7	229	48.0	-163822.0	-497.0	-17106.0
13	17	31	7	229	49.0	-166448.0	-466.0	-17086.0
13	17	31	7	230	50.0	-169063.0	-475.0	-16993.0
13	17	31	7	230	51.0	-171229.0	-522.0	-16606.0
13	17	31	7	231	52.0	-173016.0	-563.0	-16147.0
13	17	31	7	231	53.0	-174482.0	-552.0	-16182.0
13	17	31	7	232	54.0	-175740.0	-524.0	-16054.0
13	17	31	7	232	55.0	-177119.0	-534.0	-16275.0
13	17	31	7	233	56.0	-178451.0	-521.0	-15824.0
13	17	31	7	233	57.0	-179321.0	-476.0	-15631.0
13	17	31	7	234	58.0	-180157.0	-491.0	-15769.0
13	17	31	7	235	59.0	-180321.0	-474.0	-15796.0
13	17	31	7	235	60.0	-180179.0	-488.0	-15866.0
13	17	31	7	236	61.0	-179544.0	-551.0	-15766.0
13	17	31	7	236	62.0	-179019.0	-589.0	-15638.0
13	17	31	7	237	63.0	-178418.0	-579.0	-15552.0
13	17	31	7	238	64.0	-177633.0	-576.0	-15641.0
13	17	31	7	238	65.0	-176422.0	-563.0	-15434.0
13	17	31	7	239	66.0	-174907.0	-512.0	-15722.0
13	17	31	7	251	67.0	-173147.0	-469.0	-15514.0
13	17	31	7	251	68.0	-171139.0	-447.0	-15143.0
13	17	31	7	252	69.0	-168788.0	-481.0	-14907.0
13	17	31	7	252	70.0	-166406.0	-527.0	-14427.0
13	17	31	7	253	71.0	-164404.0	-527.0	-14248.0
13	17	31	7	254	72.0	-162724.0	-547.0	-13924.0
13	17	31	7	254	73.0	-161002.0	-549.0	-13583.0
13	17	31	7	255	74.0	-159112.0	-567.0	-13947.0
13	17	31	7	276	75.0	-157212.0	-537.0	-14201.0
13	17	31	7	276	76.0	-155442.0	-492.0	-13719.0
13	17	31	7	277	77.0	-153930.0	-449.0	-13235.0
13	17	31	7	277	78.0	-152631.0	-418.0	-13759.0
13	17	31	7	278	79.0	-151444.0	-446.0	-14255.0
13	17	31	7	278	80.0	-150251.0	-474.0	-14651.0
13	17	31	7	279	81.0	-149783.0	-493.0	-14546.0
13	17	31	7	280	82.0	-149649.0	-536.0	-14609.0
13	17	31	7	280	83.0	-149457.0	-508.0	-15412.0
13	17	31	7	281	84.0	-149162.0	-523.0	-14807.0
13	17	31	7	281	85.0	-148814.0	-499.0	-14312.0
13	17	31	7	282	86.0	-148657.0	-459.0	-14833.0
13	17	31	7	283	87.0	-148584.0	-432.0	-15217.0
13	17	31	7	283	88.0	-148828.0	-407.0	-15457.0
13	17	31	7	298	89.0	-149107.0	-411.0	-15825.0
13	17	31	7	299	90.0	-149743.0	-464.0	-16655.0
13	17	31	7	299	91.0	-150567.0	-510.0	-16906.0
13	17	31	7	300	92.0	-151696.0	-512.0	-16693.0
13	17	31	7	300	93.0	-153059.0	-499.0	-16933.0
13	17	31	7	301	94.0	-154634.0	-482.0	-17259.0
13	17	31	7	302	95.0	-156682.0	-454.0	-16989.0
13	17	31	7	302	96.0	-158984.0	-433.0	-17297.0
13	17	31	7	325	97.0	-161314.0	-404.0	-17594.0
13	17	31	7	325	98.0	-163438.0	-384.0	-18233.0
13	17	31	7	348	99.0	-165381.0	-412.0	-18257.0
13	17	31	7	349	100.0	-167218.0	-396.0	-18108.0
13	17	31	7	350	101.0	-168889.0	-429.0	-18311.0
13	17	31	7	350	102.0	-170744.0	-463.0	-18734.0
13	17	31	7	351	103.0	-172324.0	-423.0	-18942.0
13	17	31	7	351	104.0	-173957.0	-430.0	-19167.0
13	17	31	7	352	105.0	-175384.0	-420.0	-19582.0
13	17	31	7	352	106.0	-176822.0	-381.0	-20199.0
13	17	31	7	353	107.0	-178068.0	-377.0	-20434.0
13	17	31	7	354	108.0	-179024.0	-338.0	-20283.0
13	17	31	7	354	109.0	-179230.0	-334.0	-20076.0
13	17	31	7	355	110.0	-179178.0	-366.0	-20026.0
13	17	31	7	355	111.0	-178819.0	-415.0	-20647.0
13	17	31	7	356	112.0	-178665.0	-438.0	-20161.0
13	17	31	7	357	113.0	-178404.0	-426.0	-20038.0
13	17	31	7	357	114.0	-178030.0	-406.0	-20541.0
13	17	31	7	358	118.0	-175012.0	-313.0	-20036.0
13	17	31	7	358	119.0	-173595.0	-291.0	-19565.0
13	17	31	7	359	120.0	-172011.0	-326.0	-19888.0
13	17	31	7	359	121.0	-170419.0	-362.0	-19606.0
13	17	31	7	360	122.0	-168731.0	-416.0	-19236.0
13	17	31	7	360	123.0	-167346.0	-415.0	-19554.0
13	17	31	7	361	124.0	-166187.0	-386.0	-18922.0
13	17	31	7	362	125.0	-164742.0	-358.0	-18931.0
13	17	31	7	372	126.0	-163378.0	-339.0	-19751.0
13	17	31	7	373	127.0	-162001.0	-344.0	-19952.0
13	17	31	7	373	128.0	-161044.0	-321.0	-19691.0
13	17	31	7	374	129.0	-160150.0	-316.0	-19874.0
13	17	31	7	375	130.0	-159665.0	-324.0	-20198.0
13	17	31	7	375	131.0	-158870.0	-366.0	-19826.0
13	17	31	7	376	132.0	-157739.0	-382.0	-19876.0
13	17	31	7	376	133.0	-155318.0	-383.0	-19911.0
13	17	31	7	377	134.0	-152762.0	-346.0	-19954.0
13	17	31	7	395	135.0	-151999.0	-324.0	-19786.0
13	17	31	7	396	136.0	-151914.0	-304.0	-19786.0
13	17	31	7	396	137.0	-153106.0	-304.0	-20125.0
13	17	31	7	397	138.0	-155683.0	-284.0	-20184.0
13	17	31	7	398	139.0	-157966.0	-268.0	-20177.0
13	17	31	7	398	140.0	-160409.0	-307.0	-20574.0
13	17	31	7	419	141.0	-163993.0	-324.0	-20940.0
13	17	31	7	420	142.0	-167062.0	-372.0	-20422.0
13	17	31	7	421	143.0	-167471.0	-376.0	-20364.0
13	17	31	7	421	144.0	-166697.0	-356.0	-19947.0
13	17	31	7	422	145.0	-164426.0	-319.0	-20279.0
13	17	31	7	422	146.0	-160473.0	-319.0	-20234.0
13	17	31	7	423	147.0	-155847.0	-293.0	-19923.0
13	17	31	7	423	148.0	-151747.0	-273.0	-20044.0
13	17	31	7	424	149.0	-148562.0	-278.0	-20002.0
13	17	31	7	425	150.0	-146669.0	-298.0	-20199.0
13	17	31	7	425	151.0	-146313.0	-321.0	-20473.0
13	17	31	7	426	152.0	-147594.0	-344.0	-19946.0
13	17	31	7	426	153.0	-150186.0	-359.0	-20465.0
13	17	31	7	427	154.0	-153787.0	-372.0	-20667.0
13	17	31	7	427	155.0	-157444.0	-357.0	-19939.0
13	17	31	7	428	156.0	-160338.0	-309.0	-19262.0
13	17	31	7	429	157.0	-162407.0	-311.0	-19614.0
13	17	31	7	429	158.0	-163145.0	-256.0	-19907.0
13	17	31	7	430	159.0	-162587.0	-256.0	-19773.0
13	17	31	7	430	160.0	-160959.0	-317.0	-19962.0
13	17	31	7	431	161.0	-159286.0	-344.0	-20333.0
13	17	31	7	432	162.0	-157987.0	-351.0	-20069.0
13	17	31	7	444	163.0	-157186.0	-366.0	-19819.0
13	17	31	7	445	164.0	-156751.0	-356.0	-19364.0
13	17	31	7	446	165.0	-156793.0	-320.0	-19515.0
13	17	31	7	446	166.0	-157430.0	-306.0	-19552.0
13	17	31	7	447	167.0	-158412.0	-296.0	-19829.0
13	17	31	7	448	168.0	-159664.0	-267.0	-19856.0
13	17	31	7	448	169.0	-160822.0	-271.0	-19948.0
13	17	31	7	449	170.0	-161647.0	-281.0	-19982.0
13	17	31	7	450	171.0	-162596.0	-331.0	-19812.0
13	17	31	7	475	172.0	-163309.0	-349.0	-19889.0
13	17	31	7	475	173.0	-163946.0	-346.0	-19737.0
13	17	31	7	476	174.0	-164226.0	-352.0	-19556.0
13	17	31	7	477	175.0	-164406.0	-339.0	-19868.0
13	17	31	7	478	176.0	-164297.0	-331.0	-20252.0
13	17	31	7	479	177.0	-164187.0	-298.0	-20156.0
13	17	31	7	480	178.0	-163556.0	-284.0	-20152.0
13	17	31	7	481	179.0	-162604.0	-260.0	-20303.0
13	17	31	7	482	180.0	-161791.0	-315.0	-20232.0
13	17	31	7	482	181.0	-160806.0	-341.0	-20261.0
13	17	31	7	483	182.0	-160424.0	-351.0	-20130.0
13	17	31	7	483	183.0	-160351.0	-349.0	-19867.0
13	17	31	7	484	184.0	-160536.0	-341.0	-20097.0
13	17	31	7	485	185.0	-160727.0	-314.0	-20477.0
13	17	31	7	485	186.0	-161041.0	-292.0	-20177.0
13	17	31	7	486	187.0	-160989.0	-271.0	-20053.0
