13	17	15	13	788	253.0	-204626.0	-5026.0	140185.0
13	17	15	13	791	254.0	-203993.0	-5029.0	143588.0
13	17	15	13	793	255.0	-203567.0	-5042.0	139970.0
13	17	15	13	796	0.0	-203310.0	-5065.0	131016.0
13	17	15	13	798	1.0	-202802.0	-5074.0	124740.0
13	17	15	13	799	2.0	-202499.0	-5080.0	122968.0
13	17	15	13	801	3.0	-202267.0	-5093.0	122144.0
13	17	15	13	803	4.0	-201702.0	-5101.0	122864.0
13	17	15	13	805	5.0	-201151.0	-5137.0	126233.0
13	17	15	13	806	6.0	-200563.0	-5151.0	130943.0
13	17	15	13	807	7.0	-199964.0	-5157.0	137933.0
13	17	15	13	808	8.0	-199111.0	-5197.0	138783.0
13	17	15	13	809	9.0	-198266.0	-5204.0	132832.0
13	17	15	13	810	10.0	-197315.0	-5209.0	123194.0
13	17	15	13	810	11.0	-196279.0	-5201.0	119835.0
13	17	15	13	868	12.0	-195561.0	-5216.0	122504.0
13	17	15	13	914	13.0	-194736.0	-5218.0	124823.0
13	17	15	13	915	14.0	-194032.0	-5219.0	125808.0
13	17	15	13	915	15.0	-193436.0	-5226.0	128083.0
13	17	15	13	916	16.0	-192863.0	-5229.0	129599.0
13	17	15	13	917	17.0	-192359.0	-5242.0	132658.0
13	17	15	13	917	18.0	-192028.0	-5230.0	134647.0
13	17	15	13	918	19.0	-191680.0	-5230.0	131558.0
13	17	15	13	918	20.0	-191392.0	-5234.0	123720.0
13	17	15	13	919	21.0	-191386.0	-5238.0	119178.0
13	17	15	13	919	22.0	-191407.0	-5232.0	118463.0
13	17	15	13	920	23.0	-191281.0	-5226.0	119393.0
13	17	15	13	921	24.0	-191577.0	-5229.0	120676.0
13	17	15	13	921	25.0	-192132.0	-5217.0	127151.0
13	17	15	13	922	26.0	-192772.0	-5192.0	133289.0
13	17	15	13	922	46.0	-200796.0	-4839.0	103394.0
13	17	15	13	923	68.0	-189104.0	-4339.0	59499.0
13	17	15	13	923	69.0	-187931.0	-4326.0	53843.0
13	17	15	13	924	70.0	-186109.0	-4309.0	46667.0
13	17	15	13	925	71.0	-182625.0	-4279.0	43369.0
13	17	15	13	925	72.0	-180082.0	-4269.0	42790.0
13	17	15	13	926	73.0	-181799.0	-4252.0	41981.0
13	17	15	13	926	74.0	-185517.0	-4231.0	37981.0
13	17	15	13	957	75.0	-191192.0	-4221.0	31621.0
13	17	15	13	958	76.0	-198523.0	-4194.0	30165.0
13	17	15	13	959	77.0	-201667.0	-4170.0	30840.0
13	17	15	13	959	78.0	-201591.0	-4151.0	26261.0
13	17	15	13	960	79.0	-200862.0	-4114.0	17820.0
13	17	15	13	960	80.0	-200026.0	-4101.0	10949.0
13	17	15	13	961	81.0	-199847.0	-4082.0	9018.0
13	17	15	13	961	82.0	-200587.0	-4056.0	8694.0
13	17	15	13	962	83.0	-201817.0	-4042.0	11549.0
13	17	15	13	962	84.0	-202534.0	-4019.0	14623.0
13	17	15	13	963	85.0	-202574.0	-3988.0	13600.0
13	17	15	13	964	86.0	-202391.0	-3971.0	16894.0
13	17	15	13	964	87.0	-202031.0	-3959.0	22198.0
13	17	15	13	965	88.0	-201627.0	-3929.0	19548.0
13	17	15	13	965	89.0	-201163.0	-3912.0	11652.0
13	17	15	13	966	91.0	-200533.0	-3889.0	1208.0
13	17	15	13	966	92.0	-200928.0	-3866.0	3790.0
13	17	15	13	967	93.0	-202245.0	-3833.0	5548.0
13	17	15	13	968	94.0	-203735.0	-3823.0	8313.0
13	17	15	13	968	95.0	-204936.0	-3802.0	10293.0
13	17	15	13	969	96.0	-205719.0	-3786.0	12817.0
13	17	15	14	49	97.0	-206088.0	-3786.0	18876.0
13	17	15	14	49	98.0	-205973.0	-3763.0	20288.0
13	17	15	14	50	99.0	-205377.0	-3739.0	15151.0
13	17	15	14	50	100.0	-204433.0	-3713.0	5141.0
13	17	15	14	92	101.0	-203629.0	-3712.0	877.0
13	17	15	14	106	102.0	-202902.0	-3696.0	2864.0
13	17	15	14	106	103.0	-202001.0	-3675.0	6409.0
13	17	15	14	107	104.0	-200977.0	-3644.0	10986.0
13	17	15	14	107	105.0	-199781.0	-3641.0	13502.0
13	17	15	14	108	106.0	-198600.0	-3626.0	17626.0
13	17	15	14	109	107.0	-197529.0	-3629.0	23063.0
13	17	15	14	109	108.0	-196269.0	-3599.0	21664.0
13	17	15	14	110	109.0	-195166.0	-3589.0	14860.0
13	17	15	14	110	110.0	-194189.0	-3577.0	6925.0
13	17	15	14	111	111.0	-193382.0	-3560.0	6711.0
13	17	15	14	111	136.0	-202896.0	-3391.0	46243.0
13	17	15	14	112	137.0	-203956.0	-3376.0	49807.0
13	17	15	14	112	138.0	-205033.0	-3369.0	45971.0
13	17	15	14	113	139.0	-205974.0	-3368.0	38809.0
13	17	15	14	113	158.0	-195459.0	-3333.0	42235.0
13	17	15	14	114	159.0	-194763.0	-3344.0	33611.0
13	17	15	14	114	160.0	-193836.0	-3346.0	26838.0
13	17	15	14	115	161.0	-193094.0	-3342.0	24725.0
13	17	15	14	115	162.0	-192670.0	-3355.0	27033.0
13	17	15	14	116	163.0	-192189.0	-3342.0	28865.0
13	17	15	14	139	164.0	-191899.0	-3342.0	31304.0
13	17	15	14	140	165.0	-191797.0	-3361.0	35914.0
13	17	15	14	140	166.0	-191723.0	-3360.0	41456.0
13	17	15	14	141	167.0	-191789.0	-3362.0	42960.0
13	17	15	14	142	168.0	-191970.0	-3369.0	37781.0
13	17	15	14	142	169.0	-192296.0	-3366.0	29124.0
13	17	15	14	143	170.0	-192659.0	-3364.0	23788.0
13	17	15	14	143	171.0	-193041.0	-3359.0	23734.0
13	17	15	14	144	172.0	-193362.0	-3362.0	24804.0
13	17	15	14	145	173.0	-193747.0	-3369.0	27424.0
13	17	15	14	145	174.0	-194131.0	-3365.0	29218.0
13	17	15	14	146	175.0	-194638.0	-3347.0	32568.0
13	17	15	14	146	176.0	-195103.0	-3367.0	38965.0
13	17	15	14	147	177.0	-195382.0	-3373.0	41631.0
13	17	15	14	148	178.0	-195677.0	-3359.0	37708.0
13	17	15	14	148	180.0	-196283.0	-3352.0	18915.0
13	17	15	14	149	181.0	-196612.0	-3365.0	17825.0
13	17	15	14	149	182.0	-197023.0	-3354.0	22716.0
13	17	15	14	150	183.0	-197482.0	-3351.0	26979.0
13	17	15	14	150	184.0	-198017.0	-3354.0	25369.0
13	17	15	14	151	185.0	-198684.0	-3352.0	26156.0
13	17	15	14	151	186.0	-199432.0	-3364.0	33968.0
13	17	15	14	182	187.0	-200189.0	-3352.0	36839.0
13	17	15	14	183	188.0	-200606.0	-3351.0	35331.0
13	17	15	14	184	189.0	-201012.0	-3353.0	29186.0
13	17	15	14	185	190.0	-201496.0	-3362.0	21097.0
13	17	15	14	185	191.0	-201886.0	-3360.0	17019.0
13	17	15	14	186	192.0	-202200.0	-3344.0	19601.0
13	17	15	14	186	193.0	-202474.0	-3349.0	22954.0
13	17	15	14	187	194.0	-202452.0	-3345.0	25175.0
13	17	15	14	187	195.0	-202419.0	-3354.0	27512.0
13	17	15	14	188	196.0	-202326.0	-3351.0	32305.0
13	17	15	14	189	197.0	-202117.0	-3342.0	34619.0
13	17	15	14	189	198.0	-201752.0	-3364.0	32330.0
13	17	15	14	190	199.0	-201269.0	-3383.0	26887.0
13	17	15	14	190	200.0	-200600.0	-3361.0	19359.0
13	17	15	14	191	201.0	-200086.0	-3352.0	19684.0
13	17	15	14	191	203.0	-199087.0	-3371.0	22001.0
13	17	15	14	192	204.0	-198650.0	-3373.0	26268.0
13	17	15	14	193	205.0	-198439.0	-3372.0	30111.0
13	17	15	14	193	206.0	-198320.0	-3387.0	35808.0
13	17	15	14	194	207.0	-198144.0	-3402.0	37583.0
13	17	15	14	195	208.0	-197890.0	-3408.0	33859.0
13	17	15	14	274	209.0	-197457.0	-3432.0	26730.0
13	17	15	14	318	210.0	-197090.0	-3417.0	19574.0
13	17	15	14	319	211.0	-197161.0	-3422.0	20221.0
13	17	15	14	320	212.0	-197288.0	-3443.0	26597.0
13	17	15	14	320	213.0	-197257.0	-3460.0	30868.0
13	17	15	14	321	214.0	-197272.0	-3466.0	32048.0
13	17	15	14	321	215.0	-197495.0	-3474.0	34788.0
13	17	15	14	322	216.0	-197455.0	-3476.0	40182.0
13	17	15	14	323	217.0	-197476.0	-3484.0	42403.0
13	17	15	14	323	218.0	-197534.0	-3502.0	36884.0
13	17	15	14	324	219.0	-197408.0	-3514.0	24039.0
13	17	15	14	324	220.0	-197310.0	-3521.0	14463.0
13	17	15	14	325	221.0	-196992.0	-3523.0	12279.0
13	17	15	14	325	222.0	-196682.0	-3539.0	16017.0
13	17	15	14	326	223.0	-196523.0	-3552.0	19256.0
13	17	15	14	327	248.0	-193974.0	-3808.0	12374.0
13	17	15	14	327	14.0	-194687.0	-4115.0	24807.0
13	17	15	14	328	15.0	-194224.0	-4129.0	31024.0
13	17	15	14	328	16.0	-194119.0	-4136.0	36692.0
13	17	15	14	329	17.0	-193915.0	-4169.0	42371.0
13	17	15	14	329	18.0	-194052.0	-4181.0	50271.0
13	17	15	14	330	19.0	-193996.0	-4193.0	57861.0
13	17	15	14	331	20.0	-193852.0	-4213.0	66058.0
13	17	15	14	363	21.0	-193980.0	-4234.0	66388.0
13	17	15	14	364	22.0	-194011.0	-4255.0	54323.0
13	17	15	14	365	23.0	-194019.0	-4256.0	32867.0
13	17	15	14	366	24.0	-194457.0	-4271.0	13196.0
13	17	15	14	366	25.0	-194877.0	-4281.0	-1906.0
13	17	15	14	367	26.0	-195448.0	-4306.0	-15363.0
13	17	15	14	367	27.0	-196210.0	-4321.0	-25559.0
13	17	15	14	368	28.0	-197151.0	-4329.0	-30082.0
13	17	15	14	368	29.0	-198097.0	-4328.0	-32356.0
13	17	15	14	369	30.0	-199233.0	-4360.0	-27597.0
13	17	15	14	370	31.0	-200818.0	-4388.0	-24869.0
13	17	15	14	370	32.0	-201972.0	-4388.0	-25937.0
13	17	15	14	371	33.0	-203111.0	-4401.0	-29274.0
13	17	15	14	371	34.0	-203857.0	-4409.0	-31537.0
13	17	15	14	372	35.0	-204461.0	-4416.0	-29004.0
13	17	15	14	372	37.0	-202824.0	-4453.0	-13769.0
13	17	15	14	373	38.0	-200949.0	-4474.0	-6701.0
13	17	15	14	374	39.0	-198769.0	-4486.0	-870.0
13	17	15	14	374	40.0	-196851.0	-4496.0	4864.0
13	17	15	14	375	41.0	-196181.0	-4531.0	5562.0
13	17	15	14	375	42.0	-196398.0	-4552.0	274.0
13	17	15	14	408	43.0	-197707.0	-4557.0	-6950.0
13	17	15	14	408	44.0	-200091.0	-4561.0	-3434.0
13	17	15	14	409	45.0	-203314.0	-4574.0	2433.0
13	17	15	14	410	46.0	-206332.0	-4594.0	7539.0
13	17	15	14	410	47.0	-208546.0	-4614.0	12876.0
13	17	15	14	411	48.0	-209536.0	-4627.0	18318.0
13	17	15	14	411	49.0	-209578.0	-4643.0	24441.0
13	17	15	14	412	50.0	-209404.0	-4670.0	29497.0
13	17	15	14	413	51.0	-209248.0	-4675.0	28380.0
13	17	15	14	413	52.0	-208916.0	-4705.0	19948.0
13	17	15	14	414	53.0	-207884.0	-4712.0	9808.0
13	17	15	14	414	54.0	-206136.0	-4719.0	6767.0
13	17	15	14	415	55.0	-204086.0	-4746.0	11068.0
13	17	15	14	415	56.0	-201611.0	-4764.0	13513.0
13	17	15	14	416	57.0	-198564.0	-4769.0	18071.0
13	17	15	14	417	59.0	-193958.0	-4794.0	30059.0
13	17	15	14	417	60.0	-191595.0	-4811.0	34836.0
13	17	15	14	418	61.0	-189342.0	-4824.0	34355.0
13	17	15	14	419	62.0	-187816.0	-4850.0	29620.0
13	17	15	14	420	63.0	-186756.0	-4850.0	23077.0
13	17	15	14	420	64.0	-185899.0	-4870.0	18194.0
13	17	15	14	421	65.0	-185396.0	-4891.0	18242.0
13	17	15	14	453	66.0	-185148.0	-4892.0	22001.0
13	17	15	14	454	67.0	-184852.0	-4923.0	23771.0
13	17	15	14	455	68.0	-184797.0	-4954.0	27040.0
13	17	15	14	497	69.0	-185223.0	-4972.0	31069.0
13	17	15	14	498	70.0	-186267.0	-4995.0	34483.0
13	17	15	14	499	71.0	-187474.0	-5004.0	32248.0
13	17	15	14	499	72.0	-188741.0	-5020.0	26483.0
13	17	15	14	500	73.0	-189709.0	-5032.0	20116.0
13	17	15	14	501	74.0	-190312.0	-5050.0	18963.0
13	17	15	14	501	75.0	-190539.0	-5071.0	18764.0
13	17	15	14	502	76.0	-190659.0	-5087.0	23936.0
13	17	15	14	502	77.0	-191068.0	-5102.0	29242.0
13	17	15	14	503	78.0	-191723.0	-5115.0	30328.0
13	17	15	14	504	79.0	-192422.0	-5143.0	33503.0
13	17	15	14	504	80.0	-193439.0	-5165.0	41198.0
13	17	15	14	505	82.0	-194770.0	-5192.0	34254.0
13	17	15	14	505	83.0	-195285.0	-5207.0	27809.0
13	17	15	14	506	84.0	-195536.0	-5225.0	23716.0
13	17	15	14	507	85.0	-195579.0	-5245.0	23638.0
13	17	15	14	507	104.0	-194152.0	-5629.0	28507.0
13	17	15	14	508	105.0	-194188.0	-5631.0	31537.0
13	17	15	14	508	106.0	-194534.0	-5657.0	35450.0
13	17	15	14	509	107.0	-195036.0	-5662.0	38195.0
13	17	15	14	510	108.0	-195566.0	-5697.0	44673.0
13	17	15	14	510	109.0	-196144.0	-5722.0	54086.0
13	17	15	14	511	110.0	-196748.0	-5744.0	58265.0
13	17	15	14	543	111.0	-197356.0	-5756.0	54730.0
13	17	15	14	544	112.0	-197693.0	-5779.0	45906.0
13	17	15	14	544	113.0	-198252.0	-5790.0	37441.0
13	17	15	14	545	114.0	-198844.0	-5809.0	34834.0
13	17	15	14	546	115.0	-199332.0	-5829.0	36883.0
13	17	15	14	546	116.0	-199780.0	-5851.0	40246.0
13	17	15	14	547	117.0	-200166.0	-5851.0	45378.0
13	17	15	14	547	118.0	-200460.0	-5852.0	51196.0
13	17	15	14	548	119.0	-200623.0	-5879.0	57723.0
13	17	15	14	549	120.0	-200956.0	-5904.0	59502.0
13	17	15	14	549	121.0	-201232.0	-5943.0	55449.0
13	17	15	14	550	122.0	-201272.0	-5951.0	47835.0
13	17	15	14	551	123.0	-201341.0	-5947.0	41168.0
13	17	15	14	551	124.0	-201346.0	-5953.0	40704.0
13	17	15	14	552	125.0	-201264.0	-5962.0	43966.0
13	17	15	14	552	127.0	-200579.0	-6004.0	46461.0
13	17	15	14	553	128.0	-200302.0	-6014.0	49801.0
13	17	15	14	554	129.0	-199849.0	-6026.0	54171.0
13	17	15	14	554	130.0	-199289.0	-6024.0	57514.0
13	17	15	14	555	131.0	-198734.0	-6044.0	57126.0
13	17	15	14	555	132.0	-198166.0	-6060.0	52314.0
13	17	15	14	588	133.0	-197639.0	-6060.0	44458.0
13	17	15	14	588	134.0	-197016.0	-6068.0	39552.0
13	17	15	14	589	135.0	-196182.0	-6094.0	39740.0
13	17	15	14	590	136.0	-195303.0	-6094.0	38433.0
13	17	15	14	590	137.0	-194387.0	-6101.0	38912.0
13	17	15	14	591	138.0	-193760.0	-6082.0	42448.0
13	17	15	14	591	139.0	-193238.0	-6077.0	47828.0
13	17	15	14	592	140.0	-192826.0	-6082.0	53168.0
13	17	15	14	593	141.0	-192451.0	-6092.0	54358.0
13	17	15	14	593	142.0	-192287.0	-6096.0	48153.0
13	17	15	14	594	143.0	-192572.0	-6079.0	38284.0
13	17	15	14	595	144.0	-192824.0	-6076.0	36131.0
13	17	15	14	595	145.0	-192981.0	-6087.0	39762.0
13	17	15	14	596	146.0	-193424.0	-6065.0	42366.0
13	17	15	14	596	147.0	-193751.0	-6066.0	44086.0
13	17	15	14	597	149.0	-194832.0	-6048.0	52157.0
13	17	15	14	598	150.0	-195523.0	-6044.0	52994.0
13	17	15	14	598	151.0	-196267.0	-6027.0	46954.0
13	17	15	14	599	152.0	-196744.0	-6033.0	36198.0
13	17	15	14	599	153.0	-197358.0	-6022.0	27021.0
13	17	15	14	600	154.0	-198007.0	-6012.0	24168.0
13	17	15	14	633	155.0	-198404.0	-6006.0	25639.0
13	17	15	14	633	156.0	-198766.0	-5996.0	29307.0
13	17	15	14	634	157.0	-199287.0	-5974.0	31384.0
13	17	15	14	635	158.0	-199949.0	-5948.0	33853.0
13	17	15	14	635	159.0	-200806.0	-5939.0	39436.0
13	17	15	14	636	160.0	-201758.0	-5926.0	41129.0
13	17	15	14	636	161.0	-202642.0	-5913.0	37273.0
13	17	15	14	637	162.0	-203762.0	-5894.0	29814.0
13	17	15	14	638	163.0	-204754.0	-5871.0	21779.0
13	17	15	14	638	164.0	-205741.0	-5866.0	17113.0
13	17	15	14	639	165.0	-206501.0	-5841.0	17881.0
13	17	15	14	640	166.0	-206911.0	-5811.0	20328.0
13	17	15	14	640	167.0	-207116.0	-5800.0	24444.0
13	17	15	14	641	168.0	-207460.0	-5793.0	27570.0
13	17	15	14	642	169.0	-207891.0	-5773.0	35084.0
13	17	15	14	643	171.0	-208050.0	-5728.0	33766.0
13	17	15	14	643	172.0	-208032.0	-5707.0	21263.0
13	17	15	14	644	173.0	-207674.0	-5694.0	17700.0
13	17	15	14	645	174.0	-207319.0	-5675.0	18145.0
13	17	15	14	646	175.0	-206741.0	-5632.0	17161.0
13	17	15	14	646	176.0	-205887.0	-5620.0	16974.0
13	17	15	14	647	177.0	-205129.0	-5601.0	19469.0
13	17	15	14	725	178.0	-204258.0	-5596.0	22976.0
13	17	15	14	725	179.0	-203232.0	-5586.0	29506.0
13	17	15	14	726	180.0	-201947.0	-5570.0	33871.0
13	17	15	14	727	181.0	-200806.0	-5548.0	30788.0
13	17	15	14	727	182.0	-199816.0	-5537.0	20883.0
13	17	15	14	728	183.0	-198632.0	-5516.0	15123.0
13	17	15	14	729	184.0	-197469.0	-5506.0	14289.0
13	17	15	14	729	185.0	-196204.0	-5497.0	16834.0
13	17	15	14	730	186.0	-194853.0	-5485.0	18417.0
13	17	15	14	730	187.0	-193793.0	-5470.0	20416.0
13	17	15	14	731	188.0	-192574.0	-5442.0	26864.0
13	17	15	14	732	189.0	-190759.0	-5414.0	34219.0
13	17	15	14	732	190.0	-187854.0	-5398.0	37201.0
13	17	15	14	733	191.0	-183827.0	-5393.0	32974.0
13	17	15	14	734	192.0	-181117.0	-5387.0	24085.0
13	17	15	14	734	216.0	-200786.0	-5080.0	17189.0
13	17	15	14	735	217.0	-201899.0	-5067.0	18948.0
13	17	15	14	736	218.0	-201984.0	-5062.0	18773.0
13	17	15	14	737	219.0	-201353.0	-5054.0	23599.0
13	17	15	14	737	220.0	-200491.0	-5039.0	28489.0
13	17	15	14	738	221.0	-199599.0	-5042.0	26313.0
13	17	15	14	738	222.0	-198921.0	-5046.0	20618.0
13	17	15	14	769	223.0	-198654.0	-5024.0	16015.0
13	17	15	14	769	224.0	-198768.0	-5020.0	15774.0
13	17	15	14	770	225.0	-198927.0	-5006.0	17445.0
13	17	15	14	771	226.0	-199101.0	-5001.0	18796.0
13	17	15	14	772	227.0	-199269.0	-5001.0	20111.0
13	17	15	14	773	228.0	-199381.0	-4987.0	23373.0
13	17	15	14	774	229.0	-199429.0	-4977.0	29408.0
13	17	15	14	774	230.0	-199344.0	-4951.0	29325.0
13	17	15	14	775	231.0	-199461.0	-4969.0	27515.0
13	17	15	14	776	232.0	-199380.0	-4958.0	20785.0
13	17	15	14	776	233.0	-199271.0	-4953.0	11574.0
13	17	15	14	777	234.0	-199819.0	-4942.0	8664.0
13	17	15	14	778	235.0	-200276.0	-4947.0	8714.0
13	17	15	14	778	236.0	-200409.0	-4949.0	13225.0
13	17	15	14	779	237.0	-200656.0	-4929.0	20716.0
13	17	15	14	779	239.0	-201247.0	-4926.0	30245.0
13	17	15	14	780	240.0	-201324.0	-4949.0	29754.0
13	17	15	14	781	241.0	-201301.0	-4948.0	24046.0
13	17	15	14	781	242.0	-201277.0	-4936.0	15592.0
13	17	15	14	782	243.0	-201102.0	-4911.0	12139.0
13	17	15	14	782	244.0	-200827.0	-4910.0	13428.0
13	17	15	14	859	245.0	-200369.0	-4919.0	16994.0
13	17	15	14	860	246.0	-199936.0	-4927.0	17972.0
13	17	15	14	860	247.0	-199853.0	-4931.0	18743.0
13	17	15	14	861	248.0	-199929.0	-4912.0	23933.0
13	17	15	14	862	249.0	-200131.0	-4923.0	29751.0
13	17	15	14	863	250.0	-200321.0	-4917.0	33271.0
13	17	15	14	864	251.0	-200332.0	-4907.0	30362.0
13	17	15	14	865	252.0	-200299.0	-4918.0	21426.0
13	17	15	14	866	253.0	-200207.0	-4927.0	18692.0
13	17	15	14	866	254.0	-200311.0	-4916.0	18581.0
13	17	15	14	867	255.0	-200572.0	-4941.0	21049.0
13	17	15	14	868	0.0	-200946.0	-4939.0	24981.0
13	17	15	14	868	1.0	-201319.0	-4941.0	29448.0
13	17	15	14	869	2.0	-201889.0	-4927.0	32090.0
13	17	15	14	869	3.0	-202137.0	-4930.0	33427.0
13	17	15	14	870	28.0	-191737.0	-5060.0	18731.0
13	17	15	14	871	29.0	-191682.0	-5062.0	21904.0
13	17	15	14	871	30.0	-191945.0	-5062.0	23608.0
13	17	15	14	872	31.0	-192122.0	-5064.0	25364.0
13	17	15	14	872	32.0	-192312.0	-5075.0	29723.0
13	17	15	14	873	33.0	-192566.0	-5072.0	35464.0
13	17	15	14	949	34.0	-192848.0	-5091.0	36008.0
13	17	15	14	950	35.0	-193069.0	-5097.0	26879.0
13	17	15	14	950	36.0	-193372.0	-5094.0	18211.0
13	17	15	14	951	37.0	-193673.0	-5080.0	15356.0
13	17	15	14	952	38.0	-193997.0	-5076.0	17092.0
13	17	15	14	953	39.0	-194276.0	-5089.0	22029.0
13	17	15	14	953	40.0	-194560.0	-5086.0	24648.0
13	17	15	14	954	41.0	-194982.0	-5086.0	26378.0
13	17	15	14	954	42.0	-195493.0	-5092.0	30059.0
13	17	15	14	955	43.0	-196041.0	-5105.0	33579.0
13	17	15	14	956	44.0	-196433.0	-5114.0	29991.0
13	17	15	14	956	45.0	-196814.0	-5103.0	24224.0
13	17	15	14	957	46.0	-196930.0	-5108.0	19465.0
13	17	15	14	958	47.0	-196864.0	-5105.0	15929.0
13	17	15	14	958	48.0	-196944.0	-5110.0	15588.0
13	17	15	14	959	73.0	-199723.0	-5164.0	38054.0
13	17	15	14	959	74.0	-200504.0	-5177.0	35874.0
13	17	15	14	960	75.0	-201127.0	-5184.0	29068.0
13	17	15	14	961	76.0	-201513.0	-5194.0	20746.0
13	17	15	14	961	77.0	-201322.0	-5191.0	20121.0
13	17	15	14	962	78.0	-200624.0	-5186.0	21083.0
13	17	15	14	993	79.0	-200261.0	-5182.0	22051.0
13	17	15	14	994	80.0	-199892.0	-5196.0	24834.0
13	17	15	14	995	81.0	-199300.0	-5231.0	29295.0
13	17	15	14	996	82.0	-198704.0	-5229.0	35371.0
13	17	15	14	997	83.0	-198221.0	-5229.0	38039.0
13	17	15	14	997	84.0	-197632.0	-5243.0	34935.0
13	17	15	14	998	85.0	-196979.0	-5237.0	28842.0
13	17	15	14	999	86.0	-196056.0	-5228.0	22234.0
13	17	15	14	999	87.0	-195126.0	-5237.0	19509.0
13	17	15	15	0	88.0	-194341.0	-5253.0	19449.0
13	17	15	15	1	89.0	-193820.0	-5262.0	20723.0
13	17	15	15	1	90.0	-193304.0	-5269.0	25304.0
13	17	15	15	2	91.0	-192776.0	-5269.0	29651.0
13	17	15	15	3	92.0	-192358.0	-5281.0	32768.0
13	17	15	15	3	93.0	-191959.0	-5305.0	35236.0
13	17	15	15	4	95.0	-190682.0	-5301.0	24367.0
13	17	15	15	5	96.0	-190747.0	-5321.0	16260.0
13	17	15	15	5	97.0	-190504.0	-5319.0	17106.0
13	17	15	15	6	98.0	-190212.0	-5312.0	21889.0
13	17	15	15	6	99.0	-189997.0	-5341.0	22180.0
13	17	15	15	7	100.0	-189899.0	-5351.0	22801.0
13	17	15	15	83	101.0	-189850.0	-5356.0	26166.0
13	17	15	15	84	102.0	-189977.0	-5354.0	32324.0
13	17	15	15	85	103.0	-190214.0	-5355.0	37148.0
13	17	15	15	86	104.0	-190412.0	-5352.0	33779.0
13	17	15	15	88	105.0	-190863.0	-5388.0	26425.0
13	17	15	15	89	106.0	-191452.0	-5390.0	18350.0
13	17	15	15	90	107.0	-191919.0	-5394.0	16074.0
13	17	15	15	91	108.0	-192266.0	-5401.0	16688.0
13	17	15	15	92	109.0	-192886.0	-5395.0	18626.0
13	17	15	15	93	110.0	-193681.0	-5414.0	23584.0
13	17	15	15	94	111.0	-194381.0	-5428.0	27704.0
13	17	15	15	94	112.0	-195204.0	-5434.0	32582.0
13	17	15	15	95	113.0	-196152.0	-5434.0	37036.0
13	17	15	15	95	114.0	-196946.0	-5441.0	35279.0
13	17	15	15	96	115.0	-197592.0	-5450.0	27765.0
13	17	15	15	97	140.0	-204495.0	-5670.0	-17551.0
13	17	15	15	97	141.0	-204572.0	-5697.0	-10026.0
13	17	15	15	98	142.0	-204871.0	-5697.0	2140.0
13	17	15	15	98	143.0	-205202.0	-5722.0	9381.0
13	17	15	15	99	144.0	-205533.0	-5731.0	11893.0
13	17	15	15	100	145.0	-205308.0	-5728.0	10194.0
13	17	15	15	129	146.0	-203639.0	-5751.0	2193.0
13	17	15	15	130	147.0	-200414.0	-5787.0	-419.0
13	17	15	15	130	148.0	-196464.0	-5777.0	3463.0
13	17	15	15	131	149.0	-191666.0	-5770.0	7672.0
13	17	15	15	132	150.0	-187293.0	-5805.0	13218.0
13	17	15	15	132	151.0	-184182.0	-5797.0	21276.0
13	17	15	15	133	152.0	-182544.0	-5811.0	32915.0
13	17	15	15	134	153.0	-182614.0	-5834.0	37225.0
13	17	15	15	134	154.0	-184176.0	-5838.0	31779.0
13	17	15	15	135	155.0	-186473.0	-5841.0	27200.0
13	17	15	15	136	156.0	-188821.0	-5850.0	22012.0
13	17	15	15	136	157.0	-190563.0	-5863.0	18300.0
13	17	15	15	137	158.0	-192305.0	-5874.0	24265.0
13	17	15	15	138	159.0	-195592.0	-5874.0	27680.0
13	17	15	15	138	160.0	-199797.0	-5885.0	28804.0
13	17	15	15	139	162.0	-205594.0	-5914.0	36726.0
13	17	15	15	139	163.0	-205578.0	-5916.0	40264.0
13	17	15	15	140	164.0	-204601.0	-5931.0	38188.0
13	17	15	15	141	165.0	-203315.0	-5957.0	29888.0
13	17	15	15	141	166.0	-201641.0	-5982.0	22884.0
13	17	15	15	142	167.0	-199292.0	-5982.0	19743.0
13	17	15	15	173	168.0	-196299.0	-5989.0	20443.0
13	17	15	15	174	169.0	-193254.0	-6000.0	21934.0
13	17	15	15	174	170.0	-190597.0	-6016.0	25054.0
13	17	15	15	175	171.0	-188692.0	-6025.0	27971.0
13	17	15	15	176	172.0	-188258.0	-6046.0	36461.0
13	17	15	15	177	173.0	-189031.0	-6047.0	41443.0
13	17	15	15	177	174.0	-190221.0	-6056.0	38291.0
13	17	15	15	178	175.0	-191311.0	-6059.0	30110.0
13	17	15	15	178	176.0	-192169.0	-6081.0	23521.0
13	17	15	15	179	177.0	-192741.0	-6086.0	24420.0
13	17	15	15	180	178.0	-193081.0	-6077.0	28212.0
13	17	15	15	180	179.0	-193370.0	-6089.0	30209.0
13	17	15	15	181	180.0	-193957.0	-6104.0	31091.0
13	17	15	15	182	181.0	-194674.0	-6124.0	34781.0
13	17	15	15	182	182.0	-195417.0	-6135.0	41719.0
13	17	15	15	183	183.0	-196098.0	-6142.0	43258.0
13	17	15	15	184	185.0	-196709.0	-6186.0	29574.0
13	17	15	15	184	186.0	-196568.0	-6186.0	26059.0
13	17	15	15	185	187.0	-196457.0	-6203.0	27694.0
13	17	15	15	185	188.0	-196248.0	-6221.0	28574.0
13	17	15	15	186	189.0	-196051.0	-6233.0	31299.0
13	17	15	15	187	190.0	-195737.0	-6263.0	35706.0
13	17	15	15	187	191.0	-195104.0	-6267.0	39229.0
13	17	15	15	217	192.0	-194500.0	-6273.0	44767.0
13	17	15	15	218	193.0	-194073.0	-6295.0	49161.0
13	17	15	15	219	194.0	-193813.0	-6295.0	45574.0
13	17	15	15	219	195.0	-193780.0	-6315.0	37009.0
13	17	15	15	220	196.0	-193795.0	-6334.0	31959.0
13	17	15	15	221	197.0	-193859.0	-6331.0	31714.0
13	17	15	15	221	198.0	-193881.0	-6356.0	34022.0
13	17	15	15	222	199.0	-193726.0	-6381.0	37667.0
13	17	15	15	223	200.0	-193662.0	-6376.0	40201.0
13	17	15	15	223	201.0	-193513.0	-6381.0	43044.0
13	17	15	15	224	202.0	-193217.0	-6396.0	47925.0
13	17	15	15	225	203.0	-192957.0	-6433.0	47928.0
13	17	15	15	225	204.0	-192806.0	-6444.0	49993.0
13	17	15	15	226	205.0	-192922.0	-6447.0	44658.0
13	17	15	15	227	206.0	-193156.0	-6474.0	37501.0
13	17	15	15	228	207.0	-193651.0	-6481.0	36379.0
13	17	15	15	228	208.0	-193941.0	-6486.0	37209.0
13	17	15	15	229	209.0	-194286.0	-6510.0	38114.0
13	17	15	15	230	210.0	-194782.0	-6523.0	42333.0
13	17	15	15	230	211.0	-195372.0	-6528.0	45371.0
13	17	15	15	231	212.0	-196112.0	-6542.0	52868.0
13	17	15	15	231	213.0	-197010.0	-6546.0	58744.0
13	17	15	15	263	214.0	-197899.0	-6549.0	55711.0
13	17	15	15	308	215.0	-198729.0	-6562.0	45828.0
13	17	15	15	309	216.0	-199585.0	-6576.0	37525.0
13	17	15	15	310	217.0	-200266.0	-6586.0	35942.0
13	17	15	15	311	218.0	-200837.0	-6616.0	36838.0
13	17	15	15	311	219.0	-201216.0	-6629.0	39639.0
13	17	15	15	312	220.0	-201637.0	-6636.0	43499.0
13	17	15	15	313	221.0	-201965.0	-6637.0	48993.0
13	17	15	15	313	222.0	-202084.0	-6629.0	53937.0
13	17	15	15	314	223.0	-201874.0	-6652.0	52738.0
13	17	15	15	315	224.0	-201421.0	-6649.0	50318.0
13	17	15	15	315	225.0	-200792.0	-6656.0	46461.0
13	17	15	15	316	226.0	-200134.0	-6676.0	41327.0
13	17	15	15	317	227.0	-199421.0	-6670.0	39549.0
13	17	15	15	317	228.0	-198606.0	-6701.0	41663.0
13	17	15	15	318	230.0	-196872.0	-6698.0	51370.0
13	17	15	15	319	231.0	-196532.0	-6714.0	53055.0
13	17	15	15	319	253.0	-193763.0	-6690.0	56703.0
13	17	15	15	320	254.0	-194001.0	-6670.0	47895.0
13	17	15	15	320	255.0	-194389.0	-6642.0	38038.0
13	17	15	15	321	0.0	-194856.0	-6633.0	30961.0
13	17	15	15	322	1.0	-195348.0	-6612.0	29616.0
13	17	15	15	322	2.0	-195724.0	-6611.0	30553.0
13	17	15	15	353	3.0	-196108.0	-6612.0	36368.0
13	17	15	15	354	4.0	-196652.0	-6592.0	41556.0
13	17	15	15	355	5.0	-197381.0	-6575.0	46144.0
13	17	15	15	356	6.0	-198154.0	-6562.0	50033.0
13	17	15	15	356	7.0	-198874.0	-6548.0	50363.0
13	17	15	15	357	8.0	-199489.0	-6537.0	41619.0
13	17	15	15	358	9.0	-199936.0	-6510.0	32137.0
13	17	15	15	359	10.0	-200436.0	-6484.0	25441.0
13	17	15	15	359	11.0	-200996.0	-6465.0	22167.0
13	17	15	15	360	12.0	-201527.0	-6437.0	24403.0
13	17	15	15	361	13.0	-201733.0	-6406.0	26889.0
13	17	15	15	361	14.0	-201856.0	-6385.0	29687.0
13	17	15	15	362	15.0	-201836.0	-6362.0	33454.0
13	17	15	15	363	16.0	-201851.0	-6339.0	38999.0
13	17	15	15	363	17.0	-201836.0	-6316.0	38741.0
13	17	15	15	364	19.0	-201583.0	-6237.0	24149.0
13	17	15	15	365	20.0	-201532.0	-6216.0	17476.0
13	17	15	15	365	21.0	-201587.0	-6193.0	16996.0
13	17	15	15	366	22.0	-201526.0	-6164.0	16947.0
13	17	15	15	367	23.0	-201390.0	-6138.0	19764.0
13	17	15	15	367	24.0	-201294.0	-6122.0	23248.0
13	17	15	15	398	25.0	-201440.0	-6109.0	27063.0
13	17	15	15	399	26.0	-201525.0	-6077.0	30903.0
13	17	15	15	400	27.0	-201497.0	-6064.0	28072.0
13	17	15	15	400	28.0	-201267.0	-6034.0	21991.0
13	17	15	15	401	29.0	-200881.0	-6017.0	14038.0
13	17	15	15	402	30.0	-200483.0	-6006.0	9467.0
13	17	15	15	403	31.0	-200016.0	-5966.0	8212.0
13	17	15	15	404	32.0	-199469.0	-5938.0	9651.0
13	17	15	15	404	33.0	-198974.0	-5909.0	11185.0
13	17	15	15	405	34.0	-198437.0	-5877.0	14479.0
13	17	15	15	406	35.0	-197706.0	-5867.0	19491.0
13	17	15	15	407	36.0	-196942.0	-5840.0	26045.0
13	17	15	15	408	37.0	-195602.0	-5827.0	24245.0
13	17	15	15	409	38.0	-193326.0	-5800.0	16416.0
13	17	15	15	409	39.0	-189582.0	-5782.0	6943.0
13	17	15	15	410	41.0	-183901.0	-5742.0	7159.0
13	17	15	15	411	42.0	-186648.0	-5724.0	10367.0
13	17	15	15	411	43.0	-191524.0	-5702.0	15082.0
13	17	15	15	412	44.0	-199725.0	-5687.0	17662.0
13	17	15	15	412	45.0	-206064.0	-5669.0	21348.0
13	17	15	15	413	46.0	-205709.0	-5654.0	24913.0
13	17	15	15	414	47.0	-203730.0	-5622.0	23354.0
13	17	15	15	625	48.0	-202487.0	-5627.0	17136.0
13	17	15	15	626	49.0	-200826.0	-5610.0	9259.0
13	17	15	15	626	50.0	-199706.0	-5598.0	5176.0
13	17	15	15	627	51.0	-199755.0	-5573.0	3630.0
13	17	15	15	628	52.0	-200076.0	-5550.0	4487.0
13	17	15	15	629	53.0	-199879.0	-5537.0	9297.0
13	17	15	15	629	54.0	-199369.0	-5516.0	12629.0
13	17	15	15	630	55.0	-198696.0	-5501.0	19837.0
13	17	15	15	632	56.0	-197785.0	-5482.0	25092.0
13	17	15	15	633	57.0	-196862.0	-5461.0	22909.0
13	17	15	15	633	58.0	-196156.0	-5435.0	16339.0
13	17	15	15	634	59.0	-195633.0	-5427.0	8909.0
13	17	15	15	635	60.0	-195144.0	-5399.0	4594.0
13	17	15	15	635	61.0	-194661.0	-5377.0	3991.0
13	17	15	15	636	62.0	-194187.0	-5363.0	4539.0
13	17	15	15	637	153.0	-201196.0	-4696.0	-6846.0
13	17	15	15	637	154.0	-201121.0	-4683.0	-1041.0
13	17	15	15	638	155.0	-200874.0	-4690.0	3436.0
13	17	15	15	638	156.0	-200551.0	-4693.0	3453.0
13	17	15	15	639	157.0	-200253.0	-4681.0	1726.0
13	17	15	15	639	158.0	-199807.0	-4689.0	-2857.0
13	17	15	15	640	159.0	-199461.0	-4676.0	-9462.0
13	17	15	15	760	160.0	-199089.0	-4692.0	-12571.0
13	17	15	15	760	161.0	-198615.0	-4679.0	-10066.0
13	17	15	15	762	162.0	-198074.0	-4672.0	-7721.0
13	17	15	15	763	163.0	-197831.0	-4679.0	-7579.0
13	17	15	15	764	164.0	-197694.0	-4661.0	-2.0
13	17	15	15	765	165.0	-197452.0	-4674.0	9458.0
13	17	15	15	765	166.0	-197301.0	-4682.0	11754.0
13	17	15	15	766	167.0	-197176.0	-4686.0	7099.0
13	17	15	15	767	168.0	-197110.0	-4679.0	-534.0
13	17	15	15	767	169.0	-197070.0	-4692.0	-10119.0
13	17	15	15	768	170.0	-197046.0	-4691.0	-14782.0
13	17	15	15	769	171.0	-197032.0	-4681.0	-13239.0
13	17	15	15	769	172.0	-197078.0	-4696.0	-10976.0
13	17	15	15	770	173.0	-197047.0	-4695.0	-9144.0
13	17	15	15	770	174.0	-196816.0	-4704.0	-4006.0
13	17	15	15	771	176.0	-196416.0	-4704.0	4798.0
13	17	15	15	771	221.0	-195431.0	-4839.0	-9452.0
13	17	15	15	772	222.0	-195475.0	-4842.0	-6118.0
13	17	15	15	773	223.0	-195739.0	-4847.0	-4751.0
13	17	15	15	773	224.0	-195992.0	-4846.0	-4576.0
13	17	15	15	774	225.0	-196231.0	-4855.0	-169.0
13	17	15	15	774	226.0	-196191.0	-4872.0	2494.0
13	17	15	15	775	227.0	-196172.0	-4882.0	1134.0
13	17	15	15	804	228.0	-196201.0	-4891.0	-5884.0
13	17	15	15	804	229.0	-196179.0	-4904.0	-12737.0
13	17	15	15	805	230.0	-195987.0	-4919.0	-10390.0
13	17	15	15	806	231.0	-195576.0	-4934.0	-8357.0
13	17	15	15	807	232.0	-195100.0	-4941.0	-4467.0
13	17	15	15	807	233.0	-194998.0	-4931.0	3864.0
13	17	15	15	808	234.0	-194958.0	-4943.0	15421.0
13	17	15	15	809	235.0	-194946.0	-4944.0	22716.0
13	17	15	15	809	236.0	-194842.0	-4961.0	25954.0
13	17	15	15	810	237.0	-194843.0	-4961.0	27618.0
13	17	15	15	811	238.0	-194877.0	-4952.0	23600.0
13	17	15	15	811	239.0	-194991.0	-4962.0	17011.0
13	17	15	15	812	240.0	-195180.0	-4984.0	19238.0
13	17	15	15	813	241.0	-195488.0	-4998.0	26448.0
13	17	15	15	813	242.0	-195869.0	-5002.0	27461.0
13	17	15	15	814	243.0	-196310.0	-5009.0	22249.0
13	17	15	15	814	244.0	-196897.0	-5029.0	14026.0
13	17	15	15	815	245.0	-197628.0	-5026.0	4435.0
13	17	15	15	816	246.0	-198595.0	-5037.0	-11680.0
13	17	15	15	816	247.0	-199769.0	-5026.0	-33811.0
13	17	15	15	817	248.0	-200943.0	-5039.0	-55629.0
13	17	15	15	817	249.0	-201902.0	-5052.0	-66549.0
13	17	15	15	847	250.0	-202855.0	-5072.0	-67681.0
13	17	15	15	848	251.0	-203912.0	-5080.0	-63057.0
13	17	15	15	849	252.0	-204912.0	-5085.0	-56308.0
13	17	15	15	850	253.0	-205755.0	-5089.0	-50509.0
13	17	15	15	850	254.0	-206499.0	-5102.0	-40947.0
13	17	15	15	851	255.0	-206737.0	-5089.0	-30851.0
13	17	15	15	852	0.0	-206749.0	-5109.0	-27402.0
13	17	15	15	852	1.0	-206141.0	-5132.0	-26280.0
13	17	15	15	853	2.0	-204413.0	-5145.0	-27324.0
13	17	15	15	854	3.0	-201522.0	-5145.0	-29591.0
13	17	15	15	854	4.0	-198280.0	-5146.0	-30739.0
13	17	15	15	855	5.0	-195289.0	-5152.0	-32427.0
13	17	15	15	855	6.0	-193284.0	-5167.0	-30311.0
13	17	15	15	856	7.0	-192586.0	-5171.0	-20714.0
13	17	15	15	857	8.0	-193532.0	-5194.0	-8861.0
13	17	15	15	857	10.0	-198528.0	-5195.0	-1596.0
13	17	15	15	858	11.0	-200901.0	-5203.0	-2890.0
13	17	15	15	859	12.0	-202081.0	-5219.0	-6144.0
13	17	15	15	859	13.0	-202180.0	-5220.0	-10544.0
13	17	15	15	860	14.0	-202316.0	-5233.0	-10981.0
13	17	15	15	860	15.0	-203725.0	-5252.0	-4976.0
13	17	15	15	984	16.0	-206137.0	-5256.0	1607.0
13	17	15	15	986	17.0	-208265.0	-5256.0	4513.0
13	17	15	15	987	18.0	-209010.0	-5271.0	8717.0
13	17	15	15	988	19.0	-208444.0	-5315.0	13401.0
13	17	15	15	989	20.0	-207054.0	-5309.0	13434.0
13	17	15	15	989	21.0	-205130.0	-5320.0	5647.0
13	17	15	15	990	22.0	-202451.0	-5315.0	-1974.0
13	17	15	15	991	23.0	-198987.0	-5325.0	-3742.0
13	17	15	15	991	24.0	-194861.0	-5337.0	-4417.0
13	17	15	15	992	25.0	-190675.0	-5349.0	-4848.0
13	17	15	15	993	26.0	-187399.0	-5357.0	-810.0
13	17	15	15	993	27.0	-185467.0	-5365.0	4354.0
13	17	15	15	994	28.0	-184550.0	-5369.0	9035.0
13	17	15	15	995	29.0	-184407.0	-5365.0	12052.0
13	17	15	15	995	30.0	-184604.0	-5387.0	9556.0
13	17	15	15	996	55.0	-196177.0	-5605.0	3279.0
13	17	15	15	996	77.0	-198976.0	-5838.0	5532.0
13	17	15	15	997	78.0	-199016.0	-5817.0	11779.0
13	17	15	15	997	79.0	-199076.0	-5834.0	19913.0
13	17	15	15	998	80.0	-199142.0	-5842.0	18911.0
13	17	15	15	999	81.0	-199137.0	-5872.0	10961.0
13	17	15	15	999	82.0	-199034.0	-5877.0	1354.0
13	17	15	16	0	83.0	-198972.0	-5886.0	-3592.0
13	17	15	16	28	84.0	-198804.0	-5906.0	1016.0
13	17	15	16	29	85.0	-198625.0	-5910.0	4199.0
13	17	15	16	30	86.0	-198456.0	-5902.0	4975.0
13	17	15	16	30	87.0	-198354.0	-5914.0	8289.0
13	17	15	16	31	88.0	-198162.0	-5912.0	15023.0
13	17	15	16	32	89.0	-197900.0	-5914.0	20259.0
13	17	15	16	32	90.0	-197611.0	-5935.0	16272.0
13	17	15	16	33	91.0	-197402.0	-5946.0	7595.0
13	17	15	16	34	92.0	-197199.0	-5939.0	-137.0
13	17	15	16	34	93.0	-197036.0	-5942.0	-1080.0
13	17	15	16	35	94.0	-196827.0	-5939.0	1006.0
13	17	15	16	36	95.0	-196441.0	-5932.0	4884.0
13	17	15	16	36	96.0	-196152.0	-5929.0	10903.0
13	17	15	16	37	97.0	-196166.0	-5931.0	17639.0
13	17	15	16	38	98.0	-196204.0	-5926.0	20011.0
13	17	15	16	38	100.0	-196044.0	-5943.0	21205.0
13	17	15	16	39	101.0	-196168.0	-5927.0	10436.0
13	17	15	16	39	102.0	-196272.0	-5924.0	2292.0
13	17	15	16	40	103.0	-196056.0	-5921.0	3059.0
13	17	15	16	40	104.0	-195904.0	-5911.0	7612.0
13	17	15	16	41	105.0	-195976.0	-5909.0	10197.0
13	17	15	16	72	106.0	-196224.0	-5913.0	11454.0
13	17	15	16	73	107.0	-196251.0	-5899.0	12768.0
13	17	15	16	74	108.0	-196229.0	-5870.0	17368.0
13	17	15	16	75	109.0	-196186.0	-5880.0	20709.0
13	17	15	16	75	110.0	-196004.0	-5857.0	16597.0
13	17	15	16	76	111.0	-195750.0	-5839.0	8364.0
13	17	15	16	77	112.0	-195453.0	-5822.0	1978.0
13	17	15	16	77	113.0	-195362.0	-5796.0	-1187.0
13	17	15	16	78	114.0	-195366.0	-5764.0	-139.0
13	17	15	16	79	115.0	-195322.0	-5744.0	-342.0
13	17	15	16	79	116.0	-195197.0	-5746.0	-1172.0
13	17	15	16	80	117.0	-195167.0	-5725.0	2058.0
13	17	15	16	81	118.0	-195324.0	-5716.0	8098.0
13	17	15	16	81	119.0	-195716.0	-5704.0	11333.0
13	17	15	16	82	120.0	-196121.0	-5658.0	9029.0
13	17	15	16	82	122.0	-197011.0	-5627.0	-6664.0
13	17	15	16	83	123.0	-197609.0	-5596.0	-12364.0
13	17	15	16	84	124.0	-198209.0	-5578.0	-12261.0
13	17	15	16	84	125.0	-198849.0	-5554.0	-8712.0
13	17	15	16	85	126.0	-199424.0	-5533.0	-7032.0
13	17	15	16	85	127.0	-199926.0	-5512.0	-5255.0
13	17	15	16	164	128.0	-200452.0	-5475.0	-1211.0
13	17	15	16	208	129.0	-200746.0	-5449.0	1950.0
13	17	15	16	209	130.0	-201036.0	-5419.0	-692.0
13	17	15	16	209	131.0	-201406.0	-5414.0	-8611.0
13	17	15	16	210	132.0	-201725.0	-5391.0	-17028.0
13	17	15	16	210	133.0	-202144.0	-5370.0	-19936.0
13	17	15	16	211	134.0	-202453.0	-5352.0	-18386.0
13	17	15	16	212	135.0	-202552.0	-5301.0	-15954.0
13	17	15	16	212	136.0	-202529.0	-5265.0	-14903.0
13	17	15	16	213	137.0	-202402.0	-5247.0	-11941.0
13	17	15	16	213	138.0	-202311.0	-5220.0	-5839.0
13	17	15	16	214	139.0	-202039.0	-5187.0	-4562.0
13	17	15	16	214	140.0	-201852.0	-5159.0	-7153.0
13	17	15	16	215	141.0	-201784.0	-5140.0	-14474.0
13	17	15	16	215	142.0	-201464.0	-5117.0	-20499.0
13	17	15	16	216	167.0	-199489.0	-4532.0	-14573.0
13	17	15	16	217	168.0	-200334.0	-4516.0	-9429.0
13	17	15	16	217	190.0	-195327.0	-4092.0	-3437.0
13	17	15	16	218	191.0	-195242.0	-4071.0	-10625.0
13	17	15	16	218	192.0	-195164.0	-4058.0	-16396.0
13	17	15	16	219	193.0	-195015.0	-4066.0	-18464.0
13	17	15	16	219	194.0	-194873.0	-4034.0	-15814.0
13	17	15	16	220	195.0	-194722.0	-4011.0	-15136.0
13	17	15	16	252	196.0	-194739.0	-4011.0	-13257.0
13	17	15	16	253	197.0	-195004.0	-3987.0	-10371.0
13	17	15	16	254	198.0	-195461.0	-3987.0	-3861.0
13	17	15	16	254	199.0	-195985.0	-3977.0	-3979.0
13	17	15	16	255	200.0	-196312.0	-3974.0	-8001.0
13	17	15	16	255	201.0	-196765.0	-3949.0	-14897.0
13	17	15	16	256	202.0	-197273.0	-3926.0	-23864.0
13	17	15	16	256	203.0	-197829.0	-3905.0	-24224.0
13	17	15	16	257	204.0	-198451.0	-3874.0	-20935.0
13	17	15	16	258	205.0	-199176.0	-3858.0	-17007.0
13	17	15	16	258	206.0	-199796.0	-3853.0	-10279.0
13	17	15	16	259	207.0	-200039.0	-3851.0	-7111.0
13	17	15	16	259	208.0	-200051.0	-3835.0	-2356.0
13	17	15	16	260	209.0	-199823.0	-3822.0	-2656.0
13	17	15	16	260	210.0	-199544.0	-3792.0	-8616.0
13	17	15	16	261	212.0	-199954.0	-3789.0	-22484.0
13	17	15	16	262	213.0	-200264.0	-3786.0	-22216.0
13	17	15	16	262	214.0	-200541.0	-3764.0	-19619.0
13	17	15	16	263	215.0	-200790.0	-3752.0	-18804.0
13	17	15	16	264	216.0	-200982.0	-3760.0	-15049.0
13	17	15	16	265	217.0	-201279.0	-3740.0	-13611.0
13	17	15	16	298	218.0	-201783.0	-3736.0	-11367.0
13	17	15	16	299	219.0	-202167.0	-3736.0	-12389.0
13	17	15	16	299	220.0	-202334.0	-3731.0	-18234.0
13	17	15	16	300	221.0	-202542.0	-3711.0	-27076.0
13	17	15	16	300	222.0	-202784.0	-3702.0	-31414.0
13	17	15	16	301	223.0	-202863.0	-3690.0	-28869.0
13	17	15	16	302	224.0	-202786.0	-3672.0	-24444.0
13	17	15	16	302	225.0	-202892.0	-3674.0	-22162.0
13	17	15	16	303	226.0	-203177.0	-3672.0	-21137.0
13	17	15	16	303	227.0	-203230.0	-3667.0	-19639.0
13	17	15	16	304	228.0	-203472.0	-3656.0	-14602.0
13	17	15	16	304	229.0	-203433.0	-3652.0	-13662.0
13	17	15	16	305	230.0	-203252.0	-3645.0	-18600.0
13	17	15	16	305	231.0	-203075.0	-3624.0	-26978.0
13	17	15	16	306	232.0	-202801.0	-3609.0	-30689.0
13	17	15	16	307	234.0	-202682.0	-3608.0	-30276.0
13	17	15	16	307	235.0	-202530.0	-3592.0	-28322.0
13	17	15	16	308	236.0	-202506.0	-3578.0	-24794.0
13	17	15	16	308	237.0	-202244.0	-3571.0	-20735.0
13	17	15	16	309	238.0	-201734.0	-3566.0	-13002.0
13	17	15	16	309	239.0	-201150.0	-3553.0	-12725.0
13	17	15	16	310	240.0	-200560.0	-3552.0	-16992.0
13	17	15	16	389	241.0	-200015.0	-3548.0	-22665.0
13	17	15	16	389	242.0	-199428.0	-3539.0	-30097.0
13	17	15	16	390	243.0	-198842.0	-3544.0	-31406.0
13	17	15	16	391	244.0	-198376.0	-3544.0	-29381.0
13	17	15	16	391	245.0	-197832.0	-3525.0	-21976.0
13	17	15	16	392	246.0	-197117.0	-3514.0	-16136.0
13	17	15	16	392	247.0	-196705.0	-3507.0	-12912.0
13	17	15	16	393	248.0	-196415.0	-3501.0	-10149.0
13	17	15	16	393	249.0	-196170.0	-3494.0	-11739.0
13	17	15	16	394	250.0	-195828.0	-3501.0	-18903.0
13	17	15	16	394	251.0	-195501.0	-3486.0	-28752.0
13	17	15	16	395	252.0	-195414.0	-3472.0	-32202.0
13	17	15	16	396	253.0	-195411.0	-3464.0	-29871.0
13	17	15	16	397	254.0	-195359.0	-3446.0	-24124.0
13	17	15	16	397	255.0	-195092.0	-3442.0	-23449.0
13	17	15	16	398	1.0	-194882.0	-3439.0	-16649.0
13	17	15	16	398	24.0	-201834.0	-3271.0	-21542.0
13	17	15	16	399	25.0	-201932.0	-3274.0	-29939.0
13	17	15	16	399	26.0	-202243.0	-3266.0	-34039.0
13	17	15	16	400	27.0	-202694.0	-3279.0	-30749.0
13	17	15	16	400	28.0	-202859.0	-3274.0	-29101.0
13	17	15	16	401	29.0	-202636.0	-3253.0	-28800.0
13	17	15	16	440	30.0	-202414.0	-3254.0	-24216.0
13	17	15	16	441	31.0	-202194.0	-3247.0	-18147.0
13	17	15	16	441	32.0	-202125.0	-3246.0	-13423.0
13	17	15	16	442	33.0	-201879.0	-3237.0	-16101.0
13	17	15	16	443	34.0	-201387.0	-3257.0	-22858.0
13	17	15	16	443	35.0	-200915.0	-3252.0	-31463.0
13	17	15	16	444	36.0	-200441.0	-3249.0	-35113.0
13	17	15	16	444	37.0	-200157.0	-3234.0	-32031.0
13	17	15	16	445	38.0	-199679.0	-3245.0	-27246.0
13	17	15	16	446	39.0	-199134.0	-3239.0	-24876.0
13	17	15	16	447	40.0	-198476.0	-3239.0	-22562.0
13	17	15	16	447	41.0	-197963.0	-3238.0	-15663.0
13	17	15	16	448	42.0	-197561.0	-3243.0	-11831.0
13	17	15	16	449	43.0	-196904.0	-3248.0	-16076.0
13	17	15	16	449	44.0	-196180.0	-3241.0	-18859.0
13	17	15	16	450	46.0	-194964.0	-3249.0	-29881.0
13	17	15	16	450	47.0	-194531.0	-3251.0	-30698.0
13	17	15	16	451	48.0	-193921.0	-3258.0	-27442.0
13	17	15	16	452	49.0	-193368.0	-3261.0	-22664.0
13	17	15	16	452	50.0	-192966.0	-3252.0	-21108.0
13	17	15	16	453	51.0	-192591.0	-3244.0	-17402.0
13	17	15	16	523	52.0	-192244.0	-3261.0	-10051.0
13	17	15	16	523	53.0	-191787.0	-3275.0	-9167.0
13	17	15	16	524	54.0	-191451.0	-3292.0	-12137.0
13	17	15	16	525	55.0	-191275.0	-3282.0	-25327.0
13	17	15	16	526	56.0	-191185.0	-3268.0	-32698.0
13	17	15	16	527	57.0	-191476.0	-3268.0	-29554.0
13	17	15	16	528	58.0	-191812.0	-3279.0	-25832.0
13	17	15	16	529	59.0	-192121.0	-3283.0	-22054.0
13	17	15	16	529	60.0	-192402.0	-3295.0	-19116.0
13	17	15	16	530	61.0	-192838.0	-3296.0	-15367.0
13	17	15	16	531	62.0	-193179.0	-3303.0	-12685.0
13	17	15	16	531	63.0	-193414.0	-3309.0	-14791.0
13	17	15	16	532	64.0	-193441.0	-3299.0	-18396.0
13	17	15	16	532	65.0	-193405.0	-3311.0	-27598.0
13	17	15	16	533	66.0	-193636.0	-3303.0	-32210.0
13	17	15	16	533	91.0	-199506.0	-3428.0	-11436.0
13	17	15	16	534	92.0	-199256.0	-3432.0	-11414.0
13	17	15	16	535	93.0	-198928.0	-3451.0	-11325.0
13	17	15	16	535	94.0	-198701.0	-3471.0	-16754.0
13	17	15	16	536	95.0	-198172.0	-3457.0	-23271.0
13	17	15	16	536	96.0	-197600.0	-3479.0	-25537.0
13	17	15	16	613	97.0	-197166.0	-3500.0	-25193.0
13	17	15	16	614	98.0	-197037.0	-3494.0	-24820.0
13	17	15	16	614	99.0	-197002.0	-3503.0	-22609.0
13	17	15	16	616	100.0	-196644.0	-3519.0	-18225.0
13	17	15	16	616	101.0	-196361.0	-3527.0	-11411.0
13	17	15	16	617	102.0	-195992.0	-3536.0	-9451.0
13	17	15	16	618	103.0	-195426.0	-3536.0	-15181.0
13	17	15	16	618	104.0	-194954.0	-3559.0	-23532.0
13	17	15	16	619	105.0	-194606.0	-3564.0	-31588.0
13	17	15	16	619	106.0	-194364.0	-3581.0	-32823.0
13	17	15	16	620	107.0	-194037.0	-3585.0	-28390.0
13	17	15	16	621	108.0	-193829.0	-3598.0	-25451.0
13	17	15	16	621	109.0	-193757.0	-3587.0	-23004.0
13	17	15	16	622	110.0	-193556.0	-3621.0	-17762.0
13	17	15	16	622	111.0	-193381.0	-3632.0	-12029.0
13	17	15	16	623	136.0	-198013.0	-3831.0	-18703.0
13	17	15	16	623	137.0	-197924.0	-3851.0	-13037.0
13	17	15	16	624	138.0	-197949.0	-3872.0	-4151.0
13	17	15	16	624	139.0	-197798.0	-3874.0	5877.0
13	17	15	16	625	140.0	-197855.0	-3879.0	14980.0
13	17	15	16	626	141.0	-197966.0	-3886.0	22224.0
13	17	15	16	658	142.0	-198129.0	-3902.0	26023.0
13	17	15	16	659	143.0	-198304.0	-3921.0	26066.0
13	17	15	16	660	144.0	-198569.0	-3936.0	22000.0
13	17	15	16	660	145.0	-198926.0	-3936.0	18182.0
13	17	15	16	661	146.0	-199114.0	-3947.0	15150.0
13	17	15	16	661	147.0	-199263.0	-3949.0	10498.0
13	17	15	16	662	148.0	-199362.0	-3969.0	-2721.0
13	17	15	16	663	149.0	-199761.0	-3976.0	-16394.0
13	17	15	16	663	150.0	-200326.0	-3984.0	-29755.0
13	17	15	16	664	151.0	-200882.0	-3990.0	-39296.0
13	17	15	16	664	152.0	-201457.0	-4014.0	-52242.0
13	17	15	16	665	153.0	-201903.0	-4016.0	-65907.0
13	17	15	16	666	154.0	-202309.0	-4021.0	-73964.0
13	17	15	16	666	155.0	-202646.0	-4039.0	-79642.0
13	17	15	16	667	156.0	-202973.0	-4057.0	-78482.0
13	17	15	16	667	158.0	-202617.0	-4074.0	-65170.0
13	17	15	16	668	159.0	-202239.0	-4086.0	-59262.0
13	17	15	16	669	160.0	-201360.0	-4102.0	-50696.0
13	17	15	16	669	161.0	-199327.0	-4117.0	-39503.0
13	17	15	16	670	162.0	-196346.0	-4120.0	-32752.0
13	17	15	16	670	163.0	-192890.0	-4125.0	-33636.0
13	17	15	16	702	164.0	-190261.0	-4150.0	-38870.0
13	17	15	16	748	165.0	-189097.0	-4159.0	-45347.0
13	17	15	16	748	166.0	-188899.0	-4184.0	-46734.0
13	17	15	16	749	167.0	-189890.0	-4189.0	-42276.0
13	17	15	16	750	168.0	-192426.0	-4179.0	-34438.0
13	17	15	16	750	169.0	-196094.0	-4185.0	-27036.0
13	17	15	16	751	170.0	-199823.0	-4211.0	-18936.0
13	17	15	16	751	171.0	-202486.0	-4230.0	-8642.0
13	17	15	16	752	172.0	-203443.0	-4239.0	-2448.0
13	17	15	16	753	173.0	-203500.0	-4256.0	-3102.0
13	17	15	16	753	174.0	-203760.0	-4268.0	-11964.0
13	17	15	16	754	175.0	-203924.0	-4272.0	-19027.0
13	17	15	16	754	176.0	-203784.0	-4282.0	-17099.0
13	17	15	16	755	177.0	-203130.0	-4282.0	-16239.0
13	17	15	16	755	178.0	-202176.0	-4282.0	-14506.0
13	17	15	16	756	180.0	-201737.0	-4320.0	-5341.0
13	17	15	16	757	181.0	-202119.0	-4326.0	-107.0
13	17	15	16	757	203.0	-189674.0	-4544.0	-4318.0
13	17	15	16	758	204.0	-190181.0	-4576.0	-12142.0
13	17	15	16	758	205.0	-190789.0	-4574.0	-18759.0
13	17	15	16	759	206.0	-191188.0	-4577.0	-19499.0
13	17	15	16	759	207.0	-191559.0	-4601.0	-15896.0
13	17	15	16	760	208.0	-191980.0	-4609.0	-13317.0
13	17	15	16	761	209.0	-192301.0	-4632.0	-11199.0
13	17	15	16	838	210.0	-192591.0	-4655.0	-8437.0
13	17	15	16	839	211.0	-192829.0	-4644.0	-2604.0
13	17	15	16	840	212.0	-192998.0	-4661.0	-2437.0
13	17	15	16	840	213.0	-193094.0	-4682.0	-8921.0
13	17	15	16	841	214.0	-193259.0	-4711.0	-19202.0
13	17	15	16	853	215.0	-193612.0	-4718.0	-26063.0
13	17	15	16	853	216.0	-194003.0	-4731.0	-23126.0
13	17	15	16	854	217.0	-194521.0	-4736.0	-18482.0
13	17	15	16	855	218.0	-195006.0	-4749.0	-15342.0
13	17	15	16	855	219.0	-195617.0	-4762.0	-12489.0
13	17	15	16	856	220.0	-196354.0	-4772.0	-8822.0
13	17	15	16	856	221.0	-197048.0	-4777.0	-5667.0
13	17	15	16	857	222.0	-197572.0	-4786.0	-6621.0
13	17	15	16	857	223.0	-198142.0	-4791.0	-10194.0
13	17	15	16	858	224.0	-198702.0	-4813.0	-15865.0
13	17	15	16	859	248.0	-195037.0	-5017.0	-6073.0
13	17	15	16	859	249.0	-194494.0	-5013.0	-2499.0
13	17	15	16	860	250.0	-193997.0	-5020.0	2253.0
13	17	15	16	860	251.0	-193551.0	-5027.0	5779.0
13	17	15	16	861	252.0	-192931.0	-5037.0	3089.0
13	17	15	16	861	253.0	-192280.0	-5033.0	-982.0
13	17	15	16	882	254.0	-191682.0	-5049.0	-5819.0
13	17	15	16	883	255.0	-191062.0	-5059.0	-7552.0
13	17	15	16	884	0.0	-190572.0	-5051.0	-6443.0
13	17	15	16	884	1.0	-190230.0	-5046.0	-4751.0
13	17	15	16	885	2.0	-189987.0	-5035.0	-1677.0
13	17	15	16	886	3.0	-190074.0	-5015.0	739.0
13	17	15	16	886	4.0	-190365.0	-5023.0	4158.0
13	17	15	16	887	5.0	-190388.0	-5013.0	9909.0
13	17	15	16	887	6.0	-190398.0	-5007.0	10788.0
13	17	15	16	888	7.0	-190518.0	-5007.0	4958.0
13	17	15	16	889	8.0	-191048.0	-4987.0	-2582.0
13	17	15	16	889	9.0	-191502.0	-4982.0	-6257.0
13	17	15	16	890	10.0	-192022.0	-4956.0	-4563.0
13	17	15	16	891	11.0	-192519.0	-4926.0	-2275.0
13	17	15	16	892	12.0	-193000.0	-4906.0	849.0
13	17	15	16	892	14.0	-194734.0	-4877.0	4832.0
13	17	15	16	893	15.0	-195714.0	-4848.0	7968.0
13	17	15	16	894	16.0	-196561.0	-4839.0	6690.0
13	17	15	16	894	17.0	-197325.0	-4821.0	1570.0
13	17	15	16	895	18.0	-198352.0	-4788.0	-6757.0
13	17	15	16	895	19.0	-199022.0	-4769.0	-11895.0
13	17	15	16	896	20.0	-199390.0	-4734.0	-13376.0
13	17	15	16	974	21.0	-199771.0	-4716.0	-12684.0
13	17	15	16	975	22.0	-200094.0	-4689.0	-10088.0
13	17	15	16	975	23.0	-200386.0	-4641.0	-8462.0
13	17	15	16	976	24.0	-200454.0	-4612.0	-4982.0
13	17	15	16	977	25.0	-200636.0	-4580.0	191.0
13	17	15	16	977	26.0	-200858.0	-4562.0	-2237.0
13	17	15	16	978	27.0	-201076.0	-4534.0	-11676.0
13	17	15	16	978	28.0	-201359.0	-4501.0	-20674.0
13	17	15	16	979	29.0	-201675.0	-4446.0	-26566.0
13	17	15	16	979	30.0	-201859.0	-4423.0	-26713.0
13	17	15	16	980	31.0	-202050.0	-4375.0	-24227.0
13	17	15	16	981	32.0	-202271.0	-4339.0	-23559.0
13	17	15	16	981	33.0	-202661.0	-4312.0	-22279.0
13	17	15	16	982	34.0	-202697.0	-4277.0	-16136.0
13	17	15	16	982	35.0	-202517.0	-4233.0	-11951.0
13	17	15	16	983	59.0	-192206.0	-3399.0	-38509.0
13	17	15	16	984	60.0	-190127.0	-3381.0	-37827.0
13	17	15	16	984	61.0	-186826.0	-3356.0	-37589.0
13	17	15	16	985	62.0	-185202.0	-3319.0	-36007.0
13	17	15	16	985	63.0	-187753.0	-3287.0	-32224.0
13	17	15	16	986	64.0	-192403.0	-3256.0	-25501.0
13	17	15	16	986	65.0	-198449.0	-3224.0	-22592.0
13	17	15	17	18	66.0	-205236.0	-3191.0	-24826.0
13	17	15	17	19	67.0	-207129.0	-3169.0	-32385.0
13	17	15	17	20	68.0	-205949.0	-3126.0	-41878.0
13	17	15	17	20	69.0	-204774.0	-3090.0	-44264.0
13	17	15	17	21	70.0	-203529.0	-3065.0	-39934.0
13	17	15	17	22	71.0	-202993.0	-3048.0	-37433.0
13	17	15	17	23	72.0	-203171.0	-3024.0	-34833.0
13	17	15	17	23	73.0	-203348.0	-3001.0	-34016.0
13	17	15	17	24	74.0	-202981.0	-2955.0	-29826.0
13	17	15	17	24	75.0	-201817.0	-2934.0	-23281.0
13	17	15	17	25	76.0	-200194.0	-2908.0	-24109.0
13	17	15	17	26	77.0	-198392.0	-2877.0	-28557.0
13	17	15	17	26	78.0	-196880.0	-2846.0	-32148.0
13	17	15	17	27	79.0	-195617.0	-2815.0	-35244.0
13	17	15	17	27	80.0	-194534.0	-2777.0	-35849.0
13	17	15	17	28	82.0	-192899.0	-2729.0	-33773.0
13	17	15	17	29	83.0	-193174.0	-2718.0	-31794.0
13	17	15	17	29	84.0	-194342.0	-2693.0	-26667.0
13	17	15	17	30	85.0	-195556.0	-2682.0	-22586.0
13	17	15	17	31	86.0	-196327.0	-2643.0	-25572.0
13	17	15	17	31	87.0	-196577.0	-2602.0	-32086.0
13	17	15	17	63	88.0	-196548.0	-2585.0	-39371.0
13	17	15	17	63	89.0	-196199.0	-2581.0	-42772.0
13	17	15	17	64	90.0	-195671.0	-2538.0	-40677.0
13	17	15	17	65	91.0	-195139.0	-2514.0	-37856.0
13	17	15	17	65	92.0	-194522.0	-2484.0	-34729.0
13	17	15	17	66	93.0	-194224.0	-2461.0	-33531.0
13	17	15	17	66	94.0	-194248.0	-2437.0	-29537.0
13	17	15	17	67	95.0	-194033.0	-2412.0	-26651.0
13	17	15	17	68	96.0	-193704.0	-2391.0	-26800.0
13	17	15	17	69	97.0	-193627.0	-2381.0	-30527.0
13	17	15	17	69	98.0	-193629.0	-2334.0	-37569.0
13	17	15	17	70	99.0	-193871.0	-2320.0	-39916.0
13	17	15	17	70	100.0	-194260.0	-2289.0	-39213.0
13	17	15	17	71	101.0	-194812.0	-2261.0	-36497.0
13	17	15	17	71	102.0	-195596.0	-2237.0	-34258.0
13	17	15	17	72	104.0	-197281.0	-2196.0	-23405.0
13	17	15	17	73	105.0	-198172.0	-2182.0	-22381.0
13	17	15	17	73	106.0	-198963.0	-2150.0	-26934.0
13	17	15	17	74	107.0	-199627.0	-2127.0	-32820.0
13	17	15	17	74	108.0	-200259.0	-2103.0	-38526.0
13	17	15	17	75	109.0	-200876.0	-2087.0	-42387.0
13	17	15	17	289	110.0	-201524.0	-2071.0	-38588.0
13	17	15	17	289	111.0	-202154.0	-2051.0	-35047.0
13	17	15	17	290	112.0	-202790.0	-2041.0	-33793.0
13	17	15	17	291	113.0	-203244.0	-2026.0	-31115.0
13	17	15	17	291	114.0	-203622.0	-2016.0	-23624.0
13	17	15	17	292	115.0	-203757.0	-1996.0	-22143.0
13	17	15	17	293	116.0	-203758.0	-1972.0	-27642.0
13	17	15	17	293	117.0	-203773.0	-1951.0	-34478.0
13	17	15	17	294	118.0	-203737.0	-1939.0	-41251.0
13	17	15	17	294	119.0	-203422.0	-1923.0	-41071.0
13	17	15	17	295	120.0	-203137.0	-1898.0	-38017.0
13	17	15	17	296	121.0	-202743.0	-1887.0	-37119.0
13	17	15	17	296	122.0	-202257.0	-1869.0	-33593.0
13	17	15	17	297	123.0	-201607.0	-1846.0	-30374.0
13	17	15	17	298	124.0	-201043.0	-1836.0	-25947.0
13	17	15	17	298	216.0	-195092.0	-1104.0	-21270.0
13	17	15	17	299	217.0	-194379.0	-1107.0	-26088.0
13	17	15	17	299	218.0	-193694.0	-1102.0	-31199.0
13	17	15	17	300	219.0	-192996.0	-1092.0	-32668.0
13	17	15	17	300	220.0	-192589.0	-1090.0	-29466.0
13	17	15	17	301	221.0	-192219.0	-1100.0	-27441.0
13	17	15	17	302	222.0	-191932.0	-1128.0	-24751.0
13	17	15	17	379	223.0	-191747.0	-1132.0	-20388.0
13	17	15	17	423	224.0	-191636.0	-1131.0	-14862.0
13	17	15	17	424	225.0	-191578.0	-1144.0	-14291.0
13	17	15	17	425	226.0	-191751.0	-1159.0	-17818.0
13	17	15	17	426	227.0	-192164.0	-1144.0	-28134.0
13	17	15	17	426	228.0	-192579.0	-1139.0	-35466.0
13	17	15	17	427	229.0	-193045.0	-1152.0	-35052.0
13	17	15	17	427	230.0	-193461.0	-1157.0	-33253.0
13	17	15	17	428	231.0	-193811.0	-1149.0	-29741.0
13	17	15	17	429	232.0	-194111.0	-1174.0	-22292.0
13	17	15	17	429	233.0	-194448.0	-1193.0	-18272.0
13	17	15	17	430	234.0	-195000.0	-1192.0	-14593.0
13	17	15	17	431	235.0	-195742.0	-1187.0	-16042.0
13	17	15	17	449	236.0	-196628.0	-1195.0	-21671.0
13	17	15	17	449	237.0	-197554.0	-1199.0	-28450.0
13	17	15	17	450	239.0	-198910.0	-1205.0	-34629.0
13	17	15	17	450	6.0	-197841.0	-1341.0	-27286.0
13	17	15	17	451	28.0	-196879.0	-1571.0	-10559.0
13	17	15	17	452	29.0	-197576.0	-1582.0	-12032.0
13	17	15	17	452	30.0	-198325.0	-1591.0	-19268.0
13	17	15	17	453	31.0	-199089.0	-1609.0	-26117.0
13	17	15	17	453	32.0	-199947.0	-1623.0	-28875.0
13	17	15	17	454	33.0	-200495.0	-1646.0	-28512.0
13	17	15	17	473	34.0	-200784.0	-1656.0	-24562.0
13	17	15	17	474	35.0	-201071.0	-1657.0	-21811.0
13	17	15	17	474	36.0	-201244.0	-1672.0	-18037.0
13	17	15	17	475	37.0	-201324.0	-1682.0	-13100.0
13	17	15	17	476	38.0	-201172.0	-1721.0	-10090.0
13	17	15	17	476	39.0	-201144.0	-1733.0	-13710.0
13	17	15	17	477	40.0	-200934.0	-1725.0	-19690.0
13	17	15	17	478	41.0	-200507.0	-1732.0	-26426.0
13	17	15	17	478	42.0	-200062.0	-1741.0	-28579.0
13	17	15	17	479	43.0	-199907.0	-1758.0	-25067.0
13	17	15	17	479	44.0	-199666.0	-1770.0	-21711.0
13	17	15	17	480	45.0	-199234.0	-1789.0	-17606.0
13	17	15	17	481	46.0	-198987.0	-1811.0	-10070.0
13	17	15	17	481	47.0	-199094.0	-1828.0	794.0
13	17	15	17	482	48.0	-199043.0	-1821.0	9230.0
13	17	15	17	482	50.0	-198528.0	-1857.0	14043.0
13	17	15	17	483	51.0	-198419.0	-1850.0	9151.0
13	17	15	17	483	52.0	-197998.0	-1876.0	10047.0
13	17	15	17	484	53.0	-197668.0	-1900.0	12618.0
13	17	15	17	485	54.0	-197178.0	-1918.0	15588.0
13	17	15	17	485	55.0	-196829.0	-1918.0	20734.0
13	17	15	17	486	56.0	-196640.0	-1943.0	19049.0
13	17	15	17	513	57.0	-196319.0	-1964.0	13920.0
13	17	15	17	513	58.0	-196199.0	-1972.0	3104.0
13	17	15	17	514	59.0	-196119.0	-1991.0	-13909.0
13	17	15	17	604	60.0	-196278.0	-2023.0	-38632.0
13	17	15	17	649	61.0	-196723.0	-2027.0	-59364.0
13	17	15	17	650	62.0	-197191.0	-2037.0	-68119.0
13	17	15	17	650	63.0	-197917.0	-2041.0	-71690.0
13	17	15	17	651	64.0	-198971.0	-2058.0	-71236.0
13	17	15	17	652	65.0	-200172.0	-2076.0	-65742.0
13	17	15	17	652	66.0	-201358.0	-2078.0	-58914.0
13	17	15	17	653	67.0	-202313.0	-2104.0	-49491.0
13	17	15	17	654	68.0	-202962.0	-2117.0	-44417.0
13	17	15	17	654	69.0	-202851.0	-2125.0	-44141.0
13	17	15	17	655	70.0	-201809.0	-2144.0	-44804.0
13	17	15	17	656	71.0	-200000.0	-2164.0	-46347.0
13	17	15	17	656	73.0	-195304.0	-2202.0	-38493.0
13	17	15	17	657	74.0	-193715.0	-2210.0	-34513.0
13	17	15	17	657	75.0	-192854.0	-2209.0	-31193.0
13	17	15	17	658	118.0	-194512.0	-2839.0	2926.0
13	17	15	17	659	119.0	-195029.0	-2862.0	-61.0
13	17	15	17	659	140.0	-202372.0	-3277.0	6553.0
13	17	15	17	660	141.0	-203104.0	-3299.0	-1102.0
13	17	15	17	660	142.0	-203682.0	-3319.0	-4221.0
13	17	15	17	661	143.0	-203927.0	-3332.0	-2054.0
13	17	15	17	662	144.0	-203864.0	-3346.0	91.0
13	17	15	17	662	145.0	-203711.0	-3379.0	3638.0
13	17	15	17	663	146.0	-203346.0	-3394.0	9729.0
13	17	15	17	693	147.0	-202761.0	-3426.0	14786.0
13	17	15	17	694	148.0	-202157.0	-3436.0	12344.0
13	17	15	17	695	149.0	-201513.0	-3446.0	8523.0
13	17	15	17	695	150.0	-200694.0	-3472.0	3256.0
13	17	15	17	696	151.0	-200042.0	-3489.0	-651.0
13	17	15	17	697	152.0	-199516.0	-3484.0	296.0
13	17	15	17	697	153.0	-198886.0	-3510.0	2314.0
13	17	15	17	698	154.0	-198452.0	-3532.0	6264.0
13	17	15	17	699	155.0	-198294.0	-3545.0	9994.0
13	17	15	17	699	156.0	-198041.0	-3566.0	12724.0
13	17	15	17	700	157.0	-197561.0	-3582.0	17011.0
13	17	15	17	700	158.0	-197231.0	-3584.0	18308.0
13	17	15	17	701	159.0	-196848.0	-3604.0	18508.0
13	17	15	17	702	160.0	-196447.0	-3587.0	11108.0
13	17	15	17	702	161.0	-196146.0	-3615.0	6176.0
13	17	15	17	703	162.0	-195990.0	-3623.0	3702.0
13	17	15	17	704	163.0	-195854.0	-3634.0	4801.0
13	17	15	17	704	164.0	-195782.0	-3641.0	7211.0
13	17	15	17	705	165.0	-195634.0	-3666.0	12479.0
13	17	15	17	705	166.0	-195496.0	-3678.0	18831.0
13	17	15	17	706	167.0	-195486.0	-3694.0	24109.0
13	17	15	17	707	168.0	-195550.0	-3684.0	23536.0
13	17	15	17	738	169.0	-195494.0	-3691.0	18453.0
13	17	15	17	738	170.0	-195214.0	-3696.0	8597.0
13	17	15	17	739	171.0	-195210.0	-3694.0	3683.0
13	17	15	17	740	172.0	-195407.0	-3687.0	4173.0
13	17	15	17	740	173.0	-195372.0	-3691.0	5973.0
13	17	15	17	741	174.0	-195314.0	-3691.0	8208.0
13	17	15	17	742	175.0	-195080.0	-3698.0	9908.0
13	17	15	17	742	176.0	-194836.0	-3696.0	13875.0
13	17	15	17	743	177.0	-194757.0	-3676.0	21473.0
13	17	15	17	744	178.0	-194566.0	-3676.0	23607.0
13	17	15	17	744	179.0	-194135.0	-3652.0	19570.0
13	17	15	17	745	180.0	-194016.0	-3632.0	11072.0
13	17	15	17	746	181.0	-194015.0	-3627.0	3834.0
13	17	15	17	746	182.0	-193999.0	-3619.0	1776.0
13	17	15	17	747	183.0	-193865.0	-3614.0	1962.0
13	17	15	17	747	185.0	-193308.0	-3572.0	4321.0
13	17	15	17	748	186.0	-193226.0	-3557.0	9035.0
13	17	15	17	749	187.0	-193124.0	-3523.0	11709.0
13	17	15	17	749	188.0	-193062.0	-3498.0	11398.0
13	17	15	17	750	189.0	-193148.0	-3482.0	9072.0
13	17	15	17	750	190.0	-193182.0	-3444.0	796.0
13	17	15	17	783	191.0	-193297.0	-3413.0	-7357.0
13	17	15	17	828	192.0	-193658.0	-3392.0	-8365.0
13	17	15	17	873	193.0	-194202.0	-3384.0	-6611.0
13	17	15	17	873	194.0	-194921.0	-3349.0	-4721.0
13	17	15	17	874	195.0	-195612.0	-3312.0	-37.0
13	17	15	17	875	196.0	-196329.0	-3298.0	3713.0
13	17	15	17	876	197.0	-197240.0	-3258.0	7394.0
13	17	15	17	876	198.0	-198209.0	-3217.0	6954.0
13	17	15	17	877	199.0	-199018.0	-3176.0	834.0
13	17	15	17	878	200.0	-199617.0	-3147.0	-9020.0
13	17	15	17	878	201.0	-200199.0	-3105.0	-13574.0
13	17	15	17	879	202.0	-200752.0	-3089.0	-13701.0
13	17	15	17	880	203.0	-201411.0	-3049.0	-10382.0
13	17	15	17	880	204.0	-201856.0	-2999.0	-11169.0
13	17	15	17	881	205.0	-202214.0	-2950.0	-10484.0
13	17	15	17	882	207.0	-202920.0	-2897.0	2214.0
13	17	15	17	882	230.0	-194346.0	-2116.0	-13637.0
13	17	15	17	883	253.0	-201026.0	-1507.0	-14740.0
13	17	15	17	883	254.0	-202134.0	-1480.0	-10946.0
13	17	15	17	884	255.0	-202622.0	-1452.0	-8391.0
13	17	15	17	918	0.0	-202672.0	-1449.0	-1995.0
13	17	15	17	963	1.0	-202546.0	-1440.0	3796.0
13	17	15	17	964	2.0	-202237.0	-1419.0	1977.0
13	17	15	17	964	3.0	-201694.0	-1402.0	-5039.0
13	17	15	17	965	4.0	-201541.0	-1379.0	-13425.0
13	17	15	17	966	5.0	-201546.0	-1368.0	-18332.0
13	17	15	17	966	6.0	-201461.0	-1343.0	-18060.0
13	17	15	17	967	7.0	-201291.0	-1317.0	-13643.0
13	17	15	17	968	8.0	-201029.0	-1301.0	-9172.0
13	17	15	17	969	9.0	-200624.0	-1266.0	-4972.0
13	17	15	17	969	10.0	-200027.0	-1256.0	-939.0
13	17	15	17	970	11.0	-199104.0	-1236.0	2133.0
13	17	15	17	970	12.0	-198251.0	-1221.0	484.0
13	17	15	17	971	13.0	-197545.0	-1204.0	-7282.0
13	17	15	17	972	14.0	-196961.0	-1186.0	-16034.0
13	17	15	17	973	19.0	-196071.0	-1126.0	-12289.0
13	17	15	17	973	41.0	-201177.0	-861.0	-4112.0
13	17	15	17	974	42.0	-201452.0	-837.0	-4612.0
13	17	15	17	975	43.0	-201640.0	-842.0	-10883.0
13	17	15	17	975	44.0	-201631.0	-836.0	-21392.0
13	17	15	17	976	45.0	-201616.0	-827.0	-27200.0
13	17	15	17	977	46.0	-201553.0	-850.0	-26646.0
13	17	15	17	977	47.0	-201504.0	-819.0	-21759.0
13	17	15	18	54	48.0	-201359.0	-811.0	-18902.0
13	17	15	18	55	49.0	-201016.0	-804.0	-15147.0
13	17	15	18	56	50.0	-200640.0	-806.0	-7431.0
13	17	15	18	57	51.0	-200457.0	-808.0	-4864.0
13	17	15	18	57	52.0	-200115.0	-812.0	-8719.0
13	17	15	18	58	53.0	-199636.0	-782.0	-15079.0
13	17	15	18	59	54.0	-199182.0	-789.0	-23511.0
13	17	15	18	59	55.0	-198744.0	-784.0	-31816.0
13	17	15	18	60	56.0	-198066.0	-771.0	-29767.0
13	17	15	18	61	57.0	-197629.0	-775.0	-22610.0
13	17	15	18	61	58.0	-197440.0	-776.0	-16302.0
13	17	15	18	62	59.0	-197279.0	-767.0	-13767.0
13	17	15	18	63	60.0	-197090.0	-766.0	-10391.0
13	17	15	18	63	61.0	-197010.0	-746.0	-6275.0
13	17	15	18	64	62.0	-196842.0	-737.0	-8089.0
13	17	15	18	64	86.0	-192662.0	-639.0	-13907.0
13	17	15	18	65	87.0	-192711.0	-606.0	-10661.0
13	17	15	18	66	88.0	-192996.0	-616.0	-9549.0
13	17	15	18	66	89.0	-193311.0	-617.0	-5387.0
13	17	15	18	67	90.0	-193753.0	-616.0	3273.0
13	17	15	18	67	91.0	-194309.0	-601.0	5373.0
13	17	15	18	68	92.0	-194958.0	-597.0	-693.0
13	17	15	18	98	93.0	-195646.0	-602.0	-9038.0
13	17	15	18	99	94.0	-196239.0	-590.0	-16069.0
13	17	15	18	100	95.0	-196694.0	-601.0	-15992.0
13	17	15	18	100	96.0	-197180.0	-604.0	-13442.0
13	17	15	18	101	97.0	-197584.0	-579.0	-14152.0
13	17	15	18	102	98.0	-197914.0	-581.0	-12733.0
13	17	15	18	102	99.0	-198265.0	-575.0	-6803.0
13	17	15	18	103	100.0	-198609.0	-579.0	113.0
13	17	15	18	104	101.0	-198778.0	-569.0	1680.0
13	17	15	18	104	102.0	-198805.0	-558.0	-2571.0
13	17	15	18	105	103.0	-198846.0	-551.0	-6908.0
13	17	15	18	106	104.0	-198724.0	-548.0	-13543.0
13	17	15	18	106	105.0	-198367.0	-539.0	-15651.0
13	17	15	18	107	106.0	-198094.0	-525.0	-11021.0
13	17	15	18	108	107.0	-197839.0	-519.0	-7590.0
13	17	15	18	108	109.0	-197251.0	-524.0	-5672.0
13	17	15	18	109	110.0	-196909.0	-529.0	997.0
13	17	15	18	109	111.0	-196706.0	-524.0	1646.0
13	17	15	18	110	112.0	-196497.0	-521.0	-1434.0
13	17	15	18	111	113.0	-196141.0	-530.0	-5049.0
13	17	15	18	111	114.0	-195779.0	-519.0	-11046.0
13	17	15	18	143	115.0	-195399.0	-515.0	-14252.0
13	17	15	18	143	116.0	-194899.0	-528.0	-13901.0
13	17	15	18	144	117.0	-194390.0	-535.0	-10766.0
13	17	15	18	188	118.0	-193940.0	-527.0	-8271.0
13	17	15	18	189	119.0	-193474.0	-511.0	-6999.0
13	17	15	18	189	120.0	-193171.0	-526.0	-1471.0
13	17	15	18	190	121.0	-192893.0	-536.0	4273.0
13	17	15	18	191	122.0	-192552.0	-526.0	1043.0
13	17	15	18	191	123.0	-192430.0	-532.0	-6645.0
13	17	15	18	192	124.0	-192609.0	-536.0	-12099.0
13	17	15	18	193	125.0	-192801.0	-539.0	-12636.0
13	17	15	18	193	126.0	-192929.0	-544.0	-12333.0
13	17	15	18	194	127.0	-193214.0	-542.0	-7536.0
13	17	15	18	194	128.0	-193536.0	-530.0	-3262.0
13	17	15	18	195	129.0	-193931.0	-520.0	2526.0
13	17	15	18	196	131.0	-195074.0	-559.0	9869.0
13	17	15	18	196	132.0	-195634.0	-558.0	5541.0
13	17	15	18	197	133.0	-196218.0	-582.0	-2891.0
13	17	15	18	198	134.0	-196843.0	-574.0	-8645.0
13	17	15	18	198	154.0	-201314.0	-712.0	-2582.0
13	17	15	18	199	155.0	-200583.0	-731.0	-348.0
13	17	15	18	199	156.0	-199872.0	-717.0	3896.0
13	17	15	18	200	157.0	-199317.0	-744.0	6731.0
13	17	15	18	201	158.0	-198976.0	-774.0	12100.0
13	17	15	18	201	159.0	-198693.0	-777.0	15623.0
13	17	15	18	232	160.0	-198560.0	-784.0	21938.0
13	17	15	18	294	161.0	-198384.0	-796.0	23895.0
13	17	15	18	309	162.0	-198182.0	-811.0	21864.0
13	17	15	18	310	163.0	-198239.0	-838.0	14269.0
13	17	15	18	310	164.0	-198461.0	-850.0	6821.0
13	17	15	18	311	165.0	-198570.0	-852.0	6399.0
13	17	15	18	312	166.0	-198476.0	-856.0	7622.0
13	17	15	18	312	167.0	-198578.0	-867.0	12336.0
13	17	15	18	338	168.0	-198654.0	-886.0	18329.0
13	17	15	18	339	169.0	-198483.0	-902.0	23288.0
13	17	15	18	340	170.0	-198302.0	-902.0	29847.0
13	17	15	18	341	171.0	-198071.0	-927.0	31451.0
13	17	15	18	341	172.0	-197810.0	-937.0	25874.0
13	17	15	18	342	173.0	-197565.0	-951.0	15921.0
13	17	15	18	342	174.0	-197364.0	-962.0	9438.0
13	17	15	18	343	176.0	-196832.0	-987.0	12466.0
13	17	15	18	344	177.0	-196584.0	-1010.0	13507.0
13	17	15	18	345	213.0	-205183.0	-1539.0	82.0
13	17	15	18	345	214.0	-205666.0	-1544.0	-1544.0
13	17	15	18	346	215.0	-205962.0	-1558.0	2208.0
13	17	15	18	346	216.0	-205935.0	-1581.0	9174.0
13	17	15	18	347	217.0	-204295.0	-1603.0	13005.0
13	17	15	18	348	218.0	-201249.0	-1612.0	18362.0
13	17	15	18	349	219.0	-197706.0	-1643.0	23268.0
13	17	15	18	349	229.0	-193294.0	-1794.0	39882.0
13	17	15	18	350	230.0	-194699.0	-1810.0	45581.0
13	17	15	18	351	231.0	-196782.0	-1819.0	42793.0
13	17	15	18	352	232.0	-198899.0	-1841.0	36191.0
13	17	15	18	360	233.0	-199999.0	-1854.0	30778.0
13	17	15	18	383	234.0	-199102.0	-1866.0	29536.0
13	17	15	18	384	235.0	-196833.0	-1886.0	29245.0
13	17	15	18	385	236.0	-194546.0	-1910.0	28493.0
13	17	15	18	386	237.0	-192376.0	-1912.0	28897.0
13	17	15	18	386	238.0	-190325.0	-1921.0	32294.0
13	17	15	18	387	239.0	-188592.0	-1926.0	38950.0
13	17	15	18	387	240.0	-187107.0	-1949.0	42726.0
13	17	15	18	388	241.0	-185829.0	-1954.0	35494.0
13	17	15	18	388	242.0	-185026.0	-1975.0	25867.0
13	17	15	18	389	243.0	-184795.0	-1993.0	16082.0
13	17	15	18	390	244.0	-185319.0	-2020.0	11674.0
13	17	15	18	390	245.0	-186145.0	-2039.0	14050.0
13	17	15	18	391	246.0	-187323.0	-2023.0	16101.0
13	17	15	18	391	247.0	-188642.0	-2040.0	18173.0
13	17	15	18	392	248.0	-190005.0	-2072.0	23055.0
13	17	15	18	393	249.0	-191492.0	-2069.0	29419.0
13	17	15	18	393	250.0	-192996.0	-2090.0	35418.0
13	17	15	18	394	251.0	-194472.0	-2107.0	35383.0
13	17	15	18	412	252.0	-195987.0	-2122.0	26773.0
13	17	15	18	414	253.0	-197361.0	-2142.0	18237.0
13	17	15	18	414	254.0	-198394.0	-2147.0	14922.0
13	17	15	18	415	255.0	-199095.0	-2169.0	16164.0
13	17	15	18	416	0.0	-199474.0	-2181.0	19881.0
13	17	15	18	416	1.0	-199651.0	-2182.0	23051.0
13	17	15	18	417	2.0	-199532.0	-2196.0	25738.0
13	17	15	18	418	3.0	-199307.0	-2196.0	27896.0
13	17	15	18	418	4.0	-199081.0	-2229.0	29830.0
13	17	15	18	419	5.0	-198682.0	-2256.0	26323.0
13	17	15	18	420	6.0	-197921.0	-2253.0	19664.0
13	17	15	18	420	7.0	-197139.0	-2265.0	13646.0
13	17	15	18	421	8.0	-196701.0	-2261.0	10493.0
13	17	15	18	422	9.0	-196462.0	-2269.0	6932.0
13	17	15	18	422	10.0	-196348.0	-2298.0	6965.0
13	17	15	18	423	11.0	-196302.0	-2331.0	12258.0
13	17	15	18	423	12.0	-196179.0	-2355.0	15221.0
13	17	15	18	424	13.0	-195805.0	-2362.0	20193.0
13	17	15	18	425	14.0	-195358.0	-2387.0	22626.0
13	17	15	18	435	15.0	-195047.0	-2404.0	21543.0
13	17	15	18	436	16.0	-194814.0	-2417.0	16721.0
13	17	15	18	437	17.0	-194409.0	-2434.0	8681.0
13	17	15	18	457	18.0	-194048.0	-2461.0	5389.0
13	17	15	18	458	19.0	-193694.0	-2462.0	6271.0
13	17	15	18	459	20.0	-193419.0	-2462.0	4864.0
13	17	15	18	459	21.0	-193168.0	-2488.0	7974.0
13	17	15	18	460	22.0	-192964.0	-2494.0	12102.0
13	17	15	18	460	23.0	-192921.0	-2512.0	16298.0
13	17	15	18	461	24.0	-193059.0	-2542.0	20655.0
13	17	15	18	462	25.0	-193412.0	-2547.0	19840.0
13	17	15	18	462	26.0	-193906.0	-2563.0	13903.0
13	17	15	18	518	27.0	-194360.0	-2581.0	5250.0
13	17	15	18	519	28.0	-194597.0	-2594.0	3937.0
13	17	15	18	520	29.0	-194822.0	-2622.0	7616.0
13	17	15	18	521	30.0	-195183.0	-2628.0	12695.0
13	17	15	18	521	31.0	-195562.0	-2648.0	15610.0
13	17	15	18	522	32.0	-195967.0	-2674.0	18768.0
13	17	15	18	523	33.0	-196256.0	-2692.0	23902.0
13	17	15	18	523	34.0	-196617.0	-2702.0	28824.0
13	17	15	18	524	35.0	-196975.0	-2706.0	27928.0
13	17	15	18	525	36.0	-197312.0	-2726.0	22913.0
13	17	15	18	525	37.0	-197552.0	-2747.0	15646.0
13	17	15	18	526	38.0	-197691.0	-2759.0	12024.0
13	17	15	18	527	39.0	-197895.0	-2772.0	11869.0
13	17	15	18	527	40.0	-197892.0	-2791.0	14976.0
13	17	15	18	528	41.0	-197722.0	-2815.0	20769.0
13	17	15	18	528	62.0	-195527.0	-2934.0	29944.0
13	17	15	18	529	63.0	-195456.0	-2929.0	33453.0
13	17	15	18	529	64.0	-195372.0	-2932.0	36697.0
13	17	15	18	530	65.0	-195359.0	-2927.0	37409.0
13	17	15	18	593	66.0	-195376.0	-2928.0	32136.0
13	17	15	18	593	67.0	-195428.0	-2911.0	24790.0
13	17	15	18	594	68.0	-195557.0	-2888.0	21139.0
13	17	15	18	595	69.0	-195719.0	-2884.0	21763.0
13	17	15	18	595	70.0	-196146.0	-2879.0	23029.0
13	17	15	18	596	71.0	-196703.0	-2857.0	25009.0
13	17	15	18	597	72.0	-197019.0	-2822.0	27746.0
13	17	15	18	597	73.0	-197172.0	-2802.0	32629.0
13	17	15	18	598	74.0	-197489.0	-2781.0	35781.0
13	17	15	18	599	75.0	-197922.0	-2763.0	29816.0
13	17	15	18	599	76.0	-198492.0	-2758.0	20646.0
13	17	15	18	600	77.0	-199002.0	-2722.0	11501.0
13	17	15	18	601	78.0	-199539.0	-2684.0	8559.0
13	17	15	18	601	79.0	-200177.0	-2651.0	7012.0
13	17	15	18	602	80.0	-200527.0	-2600.0	7055.0
13	17	15	18	602	100.0	-200669.0	-1775.0	3621.0
13	17	15	18	603	101.0	-200044.0	-1726.0	5044.0
13	17	15	18	604	102.0	-199124.0	-1669.0	7270.0
13	17	15	18	604	103.0	-198052.0	-1624.0	12793.0
13	17	15	18	669	104.0	-196913.0	-1591.0	15489.0
13	17	15	18	670	105.0	-195722.0	-1565.0	11274.0
13	17	15	18	670	106.0	-194191.0	-1518.0	4205.0
13	17	15	18	671	107.0	-192519.0	-1473.0	-3587.0
13	17	15	18	672	108.0	-190235.0	-1422.0	-4868.0
13	17	15	18	673	109.0	-187121.0	-1376.0	-3530.0
13	17	15	18	673	110.0	-182958.0	-1329.0	-364.0
13	17	15	18	674	111.0	-179640.0	-1299.0	1901.0
13	17	15	18	674	112.0	-181116.0	-1263.0	5989.0
13	17	15	18	675	113.0	-185539.0	-1209.0	13286.0
13	17	15	18	676	114.0	-191252.0	-1155.0	12678.0
13	17	15	18	676	115.0	-198592.0	-1120.0	8098.0
13	17	15	18	677	116.0	-201437.0	-1104.0	1617.0
13	17	15	18	678	117.0	-199796.0	-1048.0	-6706.0
13	17	15	18	678	118.0	-198262.0	-999.0	-6076.0
13	17	15	18	679	137.0	-196559.0	-344.0	-5591.0
13	17	15	18	679	138.0	-195856.0	-316.0	-8166.0
13	17	15	18	680	139.0	-195356.0	-277.0	-6296.0
13	17	15	18	680	140.0	-194987.0	-248.0	-3382.0
13	17	15	18	714	141.0	-194563.0	-222.0	383.0
13	17	15	18	715	142.0	-194029.0	-196.0	4404.0
13	17	15	18	716	143.0	-194455.0	-178.0	10131.0
13	17	15	18	717	144.0	-195841.0	-155.0	12383.0
13	17	15	18	717	145.0	-197252.0	-118.0	10048.0
13	17	15	18	718	146.0	-198045.0	-101.0	1339.0
13	17	15	18	719	147.0	-198118.0	-61.0	-3889.0
13	17	15	18	720	148.0	-197829.0	-37.0	-3982.0
13	17	15	18	721	149.0	-197362.0	-6.0	-3314.0
13	17	15	18	721	150.0	-196635.0	25.0	-837.0
13	17	15	18	722	151.0	-196055.0	51.0	-611.0
13	17	15	18	723	152.0	-195742.0	88.0	3968.0
13	17	15	18	723	153.0	-195828.0	113.0	11706.0
13	17	15	18	724	154.0	-196227.0	128.0	15658.0
13	17	15	18	724	155.0	-196521.0	147.0	14055.0
13	17	15	18	725	156.0	-196590.0	163.0	5063.0
13	17	15	18	725	160.0	-197356.0	266.0	-2403.0
13	17	15	18	726	161.0	-197562.0	276.0	661.0
13	17	15	18	727	162.0	-197491.0	304.0	5213.0
13	17	15	18	728	163.0	-197630.0	304.0	11487.0
13	17	15	18	729	164.0	-197819.0	327.0	12618.0
13	17	15	18	729	165.0	-197928.0	360.0	7741.0
13	17	15	18	730	166.0	-198057.0	372.0	-217.0
13	17	15	18	731	167.0	-198146.0	386.0	-7280.0
13	17	15	18	750	168.0	-198402.0	397.0	-7870.0
13	17	15	18	752	169.0	-198821.0	423.0	-2597.0
13	17	15	18	754	170.0	-199153.0	449.0	3839.0
13	17	15	18	755	171.0	-199461.0	469.0	4593.0
13	17	15	18	756	172.0	-199742.0	490.0	7029.0
13	17	15	18	757	173.0	-199882.0	503.0	13093.0
13	17	15	18	757	174.0	-200064.0	524.0	11983.0
13	17	15	18	758	175.0	-200202.0	539.0	7221.0
13	17	15	18	758	176.0	-200571.0	553.0	-1402.0
13	17	15	18	772	177.0	-201126.0	552.0	-4787.0
13	17	15	18	773	178.0	-201716.0	574.0	-4242.0
13	17	15	18	773	179.0	-202032.0	583.0	-1795.0
13	17	15	18	774	180.0	-202107.0	586.0	709.0
13	17	15	18	774	181.0	-201927.0	603.0	2835.0
13	17	15	18	775	182.0	-201623.0	611.0	6199.0
13	17	15	18	775	183.0	-201372.0	620.0	13214.0
13	17	15	18	776	184.0	-201052.0	628.0	14779.0
13	17	15	18	777	185.0	-200575.0	641.0	9006.0
13	17	15	18	777	186.0	-200272.0	644.0	313.0
13	17	15	18	778	187.0	-199896.0	672.0	-6753.0
13	17	15	18	778	188.0	-199449.0	673.0	-7012.0
13	17	15	18	779	189.0	-198900.0	692.0	-2386.0
13	17	15	18	779	190.0	-198258.0	689.0	1898.0
13	17	15	18	780	191.0	-197695.0	698.0	4661.0
13	17	15	18	781	192.0	-197322.0	714.0	9458.0
13	17	15	18	781	193.0	-197229.0	703.0	14138.0
13	17	15	18	790	194.0	-197301.0	715.0	11878.0
13	17	15	18	790	195.0	-197059.0	737.0	6826.0
13	17	15	18	791	196.0	-196691.0	744.0	213.0
13	17	15	18	818	197.0	-196422.0	736.0	-3421.0
13	17	15	18	819	198.0	-195901.0	758.0	-763.0
13	17	15	18	819	199.0	-195359.0	761.0	-33.0
13	17	15	18	820	200.0	-194937.0	771.0	381.0
13	17	15	18	820	201.0	-194744.0	777.0	4043.0
13	17	15	18	821	202.0	-194772.0	787.0	5730.0
13	17	15	18	821	203.0	-194849.0	807.0	9731.0
13	17	15	18	822	204.0	-194902.0	816.0	12815.0
13	17	15	18	823	205.0	-194957.0	826.0	9488.0
13	17	15	18	823	206.0	-194909.0	832.0	2034.0
13	17	15	18	824	207.0	-194932.0	845.0	-5210.0
13	17	15	18	825	208.0	-195090.0	859.0	-6719.0
13	17	15	18	825	209.0	-195296.0	863.0	-3307.0
13	17	15	18	826	210.0	-195776.0	883.0	863.0
13	17	15	18	826	211.0	-196284.0	909.0	2616.0
13	17	15	18	827	212.0	-196854.0	911.0	7588.0
13	17	15	18	827	213.0	-197398.0	907.0	14609.0
13	17	15	18	828	214.0	-197902.0	919.0	11191.0
13	17	15	18	828	215.0	-198510.0	934.0	5811.0
13	17	15	18	848	216.0	-199030.0	936.0	-1448.0
13	17	15	18	849	217.0	-199437.0	952.0	-6031.0
13	17	15	18	849	218.0	-199738.0	953.0	-6063.0
13	17	15	18	850	219.0	-200042.0	955.0	-1335.0
13	17	15	18	851	220.0	-200072.0	959.0	1894.0
13	17	15	18	851	221.0	-199941.0	975.0	4366.0
13	17	15	18	852	222.0	-199863.0	998.0	10982.0
13	17	15	18	852	223.0	-199776.0	999.0	13395.0
13	17	15	18	853	224.0	-199812.0	1007.0	11988.0
13	17	15	18	854	225.0	-199829.0	1029.0	8676.0
13	17	15	18	854	226.0	-199777.0	1039.0	833.0
13	17	15	18	855	227.0	-199666.0	1043.0	-1437.0
13	17	15	18	855	228.0	-199534.0	1058.0	-82.0
13	17	15	18	856	229.0	-199235.0	1068.0	1063.0
13	17	15	18	856	230.0	-198831.0	1074.0	2185.0
13	17	15	18	870	231.0	-198406.0	1081.0	5413.0
13	17	15	18	871	232.0	-197942.0	1086.0	11933.0
13	17	15	18	871	233.0	-197509.0	1093.0	16188.0
13	17	15	18	872	234.0	-197109.0	1112.0	14731.0
13	17	15	18	894	235.0	-196614.0	1127.0	9548.0
13	17	15	18	895	236.0	-196057.0	1129.0	142.0
13	17	15	18	895	237.0	-195544.0	1133.0	-4267.0
13	17	15	18	896	238.0	-195131.0	1134.0	-2351.0
13	17	15	18	897	239.0	-194921.0	1149.0	-2504.0
13	17	15	18	897	240.0	-194797.0	1161.0	4006.0
13	17	15	18	898	241.0	-194609.0	1179.0	10489.0
13	17	15	18	899	242.0	-194326.0	1193.0	17781.0
13	17	15	18	899	243.0	-194187.0	1189.0	23709.0
13	17	15	18	900	244.0	-194061.0	1189.0	23440.0
13	17	15	18	900	245.0	-193957.0	1196.0	16733.0
13	17	15	18	901	246.0	-194032.0	1228.0	8320.0
13	17	15	18	901	247.0	-193916.0	1248.0	4321.0
13	17	15	18	902	248.0	-193736.0	1241.0	5587.0
13	17	15	18	902	249.0	-193505.0	1249.0	6805.0
13	17	15	18	903	250.0	-193372.0	1250.0	6494.0
13	17	15	18	904	251.0	-193464.0	1252.0	10179.0
13	17	15	18	904	252.0	-193602.0	1256.0	15873.0
13	17	15	18	905	253.0	-193684.0	1251.0	21317.0
13	17	15	18	922	254.0	-193964.0	1256.0	23150.0
13	17	15	18	923	255.0	-194272.0	1252.0	16883.0
13	17	15	18	923	0.0	-194697.0	1258.0	6510.0
13	17	15	18	924	1.0	-195071.0	1273.0	3111.0
13	17	15	18	925	2.0	-195163.0	1288.0	5956.0
13	17	15	18	925	3.0	-195344.0	1284.0	8665.0
13	17	15	18	926	4.0	-195709.0	1274.0	9673.0
13	17	15	18	926	5.0	-196002.0	1284.0	10923.0
13	17	15	18	927	6.0	-196271.0	1289.0	13944.0
13	17	15	18	927	7.0	-196556.0	1299.0	13705.0
13	17	15	18	928	8.0	-196893.0	1304.0	13577.0
13	17	15	18	929	9.0	-197305.0	1298.0	11087.0
13	17	15	18	929	10.0	-197737.0	1294.0	5411.0
13	17	15	18	930	11.0	-198109.0	1291.0	1528.0
13	17	15	18	940	12.0	-198466.0	1286.0	1672.0
13	17	15	18	941	13.0	-198764.0	1288.0	4024.0
13	17	15	18	941	14.0	-198903.0	1301.0	5314.0
13	17	15	18	942	15.0	-198936.0	1312.0	8509.0
13	17	15	18	942	16.0	-198993.0	1301.0	14402.0
13	17	15	18	968	17.0	-198952.0	1304.0	17027.0
13	17	15	18	968	18.0	-199031.0	1294.0	16485.0
13	17	15	18	969	19.0	-199200.0	1285.0	11587.0
13	17	15	18	970	20.0	-199468.0	1279.0	3244.0
13	17	15	18	970	21.0	-199779.0	1286.0	-384.0
13	17	15	18	971	22.0	-199991.0	1285.0	-1979.0
13	17	15	18	971	23.0	-200146.0	1286.0	262.0
13	17	15	18	972	24.0	-200182.0	1284.0	4598.0
13	17	15	18	973	25.0	-200152.0	1271.0	8839.0
13	17	15	18	973	26.0	-200005.0	1271.0	12746.0
13	17	15	18	974	27.0	-199752.0	1264.0	15761.0
13	17	15	18	975	28.0	-199386.0	1254.0	15556.0
13	17	15	18	975	29.0	-198922.0	1247.0	11364.0
13	17	15	18	976	30.0	-198441.0	1234.0	4118.0
13	17	15	18	976	31.0	-198034.0	1227.0	-336.0
13	17	15	18	977	32.0	-197427.0	1221.0	-1187.0
13	17	15	18	978	33.0	-196622.0	1208.0	2122.0
13	17	15	18	978	34.0	-195832.0	1213.0	6185.0
13	17	15	18	979	35.0	-195214.0	1209.0	7879.0
13	17	15	18	998	36.0	-194739.0	1201.0	13743.0
13	17	15	18	999	37.0	-194207.0	1191.0	16344.0
13	17	15	18	999	38.0	-193663.0	1191.0	15722.0
13	17	15	19	0	39.0	-193234.0	1174.0	12059.0
13	17	15	19	1	40.0	-192987.0	1176.0	6097.0
13	17	15	19	1	41.0	-192836.0	1162.0	3828.0
13	17	15	19	2	42.0	-192797.0	1146.0	6093.0
13	17	15	19	2	43.0	-192942.0	1153.0	7186.0
13	17	15	19	3	44.0	-193227.0	1164.0	9183.0
13	17	15	19	4	45.0	-193456.0	1158.0	13086.0
13	17	15	19	4	46.0	-193760.0	1141.0	19569.0
13	17	15	19	5	47.0	-194252.0	1138.0	20816.0
13	17	15	19	5	48.0	-194821.0	1132.0	18233.0
13	17	15	19	20	49.0	-195516.0	1117.0	15295.0
13	17	15	19	74	50.0	-196360.0	1118.0	9464.0
13	17	15	19	75	51.0	-197191.0	1127.0	6721.0
13	17	15	19	76	52.0	-197814.0	1106.0	7899.0
13	17	15	19	76	53.0	-198471.0	1121.0	9376.0
13	17	15	19	77	54.0	-199062.0	1102.0	12309.0
13	17	15	19	78	55.0	-199609.0	1075.0	15334.0
13	17	15	19	78	56.0	-199962.0	1071.0	20248.0
13	17	15	19	79	57.0	-200238.0	1074.0	24159.0
13	17	15	19	80	58.0	-200467.0	1068.0	23219.0
13	17	15	19	81	59.0	-200549.0	1057.0	17378.0
13	17	15	19	81	60.0	-200827.0	1049.0	11091.0
13	17	15	19	82	61.0	-201148.0	1051.0	9402.0
13	17	15	19	82	62.0	-201360.0	1058.0	11017.0
13	17	15	19	83	63.0	-201461.0	1046.0	15004.0
13	17	15	19	84	64.0	-201479.0	1021.0	16786.0
13	17	15	19	84	83.0	-193337.0	850.0	52883.0
13	17	15	19	85	84.0	-193458.0	848.0	56131.0
13	17	15	19	85	85.0	-193636.0	819.0	52698.0
13	17	15	19	86	86.0	-194188.0	803.0	45213.0
13	17	15	19	117	87.0	-195204.0	789.0	34848.0
13	17	15	19	118	88.0	-196392.0	768.0	17006.0
13	17	15	19	118	89.0	-197735.0	756.0	-9308.0
13	17	15	19	119	90.0	-199302.0	748.0	-27887.0
13	17	15	19	120	91.0	-200969.0	745.0	-32419.0
13	17	15	19	120	92.0	-202752.0	723.0	-35996.0
13	17	15	19	121	93.0	-204448.0	709.0	-38522.0
13	17	15	19	121	94.0	-206073.0	711.0	-32244.0
13	17	15	19	122	95.0	-207574.0	703.0	-24294.0
13	17	15	19	123	96.0	-209062.0	688.0	-13816.0
13	17	15	19	124	97.0	-210194.0	669.0	-7439.0
13	17	15	19	125	98.0	-210659.0	669.0	-10337.0
13	17	15	19	125	99.0	-210484.0	649.0	-14725.0
13	17	15	19	126	100.0	-209321.0	653.0	-16927.0
13	17	15	19	126	101.0	-206824.0	644.0	-13381.0
13	17	15	19	127	102.0	-203595.0	619.0	-8351.0
13	17	15	19	127	106.0	-194299.0	568.0	9126.0
13	17	15	19	128	107.0	-194377.0	568.0	12180.0
13	17	15	19	129	108.0	-195488.0	542.0	11081.0
13	17	15	19	136	109.0	-197537.0	546.0	11161.0
13	17	15	19	137	110.0	-199521.0	542.0	9800.0
13	17	15	19	138	111.0	-200280.0	509.0	9236.0
13	17	15	19	138	112.0	-199622.0	509.0	15288.0
13	17	15	19	139	113.0	-198717.0	490.0	24771.0
13	17	15	19	160	114.0	-198122.0	471.0	34802.0
13	17	15	19	161	115.0	-198327.0	461.0	51068.0
13	17	15	19	161	116.0	-199727.0	441.0	69024.0
13	17	15	19	162	117.0	-201218.0	428.0	64941.0
13	17	15	19	162	118.0	-201536.0	411.0	52633.0
13	17	15	19	163	119.0	-200333.0	414.0	42034.0
13	17	15	19	164	120.0	-198062.0	398.0	34201.0
13	17	15	19	164	121.0	-195547.0	380.0	32690.0
13	17	15	19	165	122.0	-193361.0	364.0	35930.0
13	17	15	19	165	123.0	-191270.0	352.0	38089.0
13	17	15	19	192	124.0	-189076.0	358.0	38964.0
13	17	15	19	193	125.0	-187215.0	354.0	40296.0
13	17	15	19	194	126.0	-186120.0	329.0	45668.0
13	17	15	19	194	127.0	-185759.0	318.0	46386.0
13	17	15	19	195	128.0	-185708.0	312.0	43952.0
13	17	15	19	195	129.0	-185997.0	293.0	36807.0
13	17	15	19	196	130.0	-186521.0	283.0	30594.0
13	17	15	19	197	131.0	-187269.0	268.0	28511.0
13	17	15	19	197	132.0	-188393.0	266.0	29446.0
13	17	15	19	198	133.0	-189813.0	242.0	31672.0
13	17	15	19	199	134.0	-191252.0	231.0	35556.0
13	17	15	19	199	135.0	-192591.0	220.0	38851.0
13	17	15	19	200	136.0	-193767.0	221.0	42959.0
13	17	15	19	201	137.0	-194570.0	218.0	42445.0
13	17	15	19	201	138.0	-195091.0	197.0	40013.0
13	17	15	19	202	143.0	-196432.0	132.0	35004.0
13	17	15	19	203	144.0	-196787.0	121.0	37901.0
13	17	15	19	203	145.0	-196957.0	109.0	41738.0
13	17	15	19	212	146.0	-196920.0	113.0	46834.0
13	17	15	19	213	147.0	-196803.0	81.0	46757.0
13	17	15	19	214	148.0	-196629.0	45.0	41985.0
13	17	15	19	214	149.0	-196574.0	48.0	35548.0
13	17	15	19	215	150.0	-196719.0	58.0	30779.0
13	17	15	19	215	151.0	-196737.0	33.0	30637.0
13	17	15	19	236	152.0	-196609.0	-2.0	32833.0
13	17	15	19	237	153.0	-196317.0	-10.0	34869.0
13	17	15	19	238	154.0	-195916.0	-23.0	40179.0
13	17	15	19	238	155.0	-195500.0	-34.0	45466.0
13	17	15	19	239	156.0	-195151.0	-60.0	50425.0
13	17	15	19	239	157.0	-194669.0	-81.0	53573.0
13	17	15	19	240	158.0	-194435.0	-91.0	49471.0
13	17	15	19	241	159.0	-194576.0	-119.0	39987.0
13	17	15	19	241	160.0	-194852.0	-124.0	32752.0
13	17	15	19	242	161.0	-195077.0	-149.0	32721.0
13	17	15	19	242	162.0	-195400.0	-158.0	35999.0
13	17	15	19	243	163.0	-195910.0	-171.0	40595.0
13	17	15	19	244	164.0	-196301.0	-191.0	44076.0
13	17	15	19	244	165.0	-196754.0	-200.0	47421.0
13	17	15	19	259	166.0	-197284.0	-213.0	54509.0
13	17	15	19	259	167.0	-197909.0	-237.0	56021.0
13	17	15	19	260	168.0	-198713.0	-269.0	50949.0
13	17	15	19	281	169.0	-199665.0	-281.0	45390.0
13	17	15	19	282	170.0	-200666.0	-296.0	41229.0
13	17	15	19	283	171.0	-201521.0	-301.0	40404.0
13	17	15	19	283	172.0	-202302.0	-312.0	42916.0
13	17	15	19	284	173.0	-202667.0	-348.0	45329.0
13	17	15	19	285	174.0	-202869.0	-362.0	45640.0
13	17	15	19	285	175.0	-202988.0	-366.0	49199.0
13	17	15	19	286	176.0	-203078.0	-389.0	57104.0
13	17	15	19	286	177.0	-202809.0	-415.0	60164.0
13	17	15	19	287	178.0	-202401.0	-426.0	53268.0
13	17	15	19	287	179.0	-202037.0	-444.0	44847.0
13	17	15	19	288	180.0	-201522.0	-451.0	40683.0
13	17	15	19	289	181.0	-200853.0	-471.0	40974.0
13	17	15	19	289	182.0	-200070.0	-474.0	43744.0
13	17	15	19	290	183.0	-199233.0	-494.0	46250.0
13	17	15	19	290	184.0	-198499.0	-505.0	49117.0
13	17	15	19	291	185.0	-197974.0	-519.0	56659.0
13	17	15	19	291	186.0	-197496.0	-542.0	63306.0
13	17	15	19	292	187.0	-197024.0	-546.0	62541.0
13	17	15	19	293	188.0	-196493.0	-538.0	57446.0
13	17	15	19	303	189.0	-196012.0	-565.0	50484.0
13	17	15	19	304	190.0	-195637.0	-574.0	47401.0
13	17	15	19	304	191.0	-195071.0	-564.0	47190.0
13	17	15	19	305	192.0	-194221.0	-581.0	48144.0
13	17	15	19	306	193.0	-193432.0	-586.0	49458.0
13	17	15	19	306	194.0	-192907.0	-591.0	51902.0
13	17	15	19	307	195.0	-192524.0	-591.0	58697.0
13	17	15	19	307	196.0	-192149.0	-577.0	67065.0
13	17	15	19	308	197.0	-191974.0	-597.0	68102.0
13	17	15	19	326	198.0	-191901.0	-597.0	63914.0
13	17	15	19	327	199.0	-191927.0	-586.0	55096.0
13	17	15	19	328	200.0	-192174.0	-585.0	49525.0
13	17	15	19	328	201.0	-192546.0	-580.0	49166.0
13	17	15	19	329	202.0	-192922.0	-567.0	53193.0
13	17	15	19	330	203.0	-193311.0	-559.0	57996.0
13	17	15	19	330	204.0	-193789.0	-539.0	61259.0
13	17	15	19	331	205.0	-194223.0	-516.0	63074.0
13	17	15	19	331	206.0	-194789.0	-506.0	66243.0
13	17	15	19	332	207.0	-195273.0	-472.0	64378.0
13	17	15	19	333	208.0	-195778.0	-454.0	59555.0
13	17	15	19	333	209.0	-196302.0	-433.0	48446.0
13	17	15	19	334	210.0	-196512.0	-433.0	43583.0
13	17	15	19	335	211.0	-196636.0	-408.0	43147.0
13	17	15	19	335	212.0	-196756.0	-373.0	46003.0
13	17	15	19	336	213.0	-196765.0	-339.0	49418.0
13	17	15	19	337	214.0	-197021.0	-292.0	51013.0
13	17	15	19	350	215.0	-197316.0	-270.0	51082.0
13	17	15	19	350	216.0	-197519.0	-253.0	54146.0
13	17	15	19	351	217.0	-197705.0	-198.0	54330.0
13	17	15	19	372	218.0	-197851.0	-176.0	47707.0
13	17	15	19	373	219.0	-197923.0	-127.0	38860.0
13	17	15	19	373	220.0	-197922.0	-94.0	33631.0
13	17	15	19	374	221.0	-197992.0	-59.0	32315.0
13	17	15	19	375	222.0	-197982.0	-31.0	33089.0
13	17	15	19	375	223.0	-198163.0	19.0	35744.0
13	17	15	19	376	224.0	-198402.0	73.0	35999.0
13	17	15	19	376	225.0	-198714.0	129.0	37070.0
13	17	15	19	377	226.0	-199027.0	178.0	41454.0
13	17	15	19	378	227.0	-199346.0	231.0	39701.0
13	17	15	19	378	228.0	-199732.0	289.0	34504.0
13	17	15	19	379	229.0	-200037.0	340.0	27135.0
13	17	15	19	380	230.0	-200172.0	394.0	23128.0
13	17	15	19	380	231.0	-200484.0	448.0	22058.0
13	17	15	19	381	232.0	-200761.0	493.0	20740.0
13	17	15	19	382	233.0	-200863.0	545.0	21683.0
13	17	15	19	382	234.0	-200993.0	591.0	24164.0
13	17	15	19	383	235.0	-200980.0	650.0	27942.0
13	17	15	19	383	236.0	-200996.0	704.0	34183.0
13	17	15	19	394	237.0	-201102.0	762.0	32447.0
13	17	15	19	418	238.0	-201144.0	819.0	26431.0
13	17	15	19	418	239.0	-201109.0	868.0	18730.0
13	17	15	19	419	240.0	-201084.0	928.0	16570.0
13	17	15	19	420	241.0	-200969.0	979.0	17685.0
13	17	15	19	420	242.0	-200581.0	1034.0	19513.0
13	17	15	19	421	243.0	-200123.0	1113.0	22956.0
13	17	15	19	422	244.0	-199616.0	1155.0	24511.0
13	17	15	19	422	245.0	-199121.0	1215.0	30164.0
13	17	15	19	423	246.0	-198597.0	1261.0	35474.0
13	17	15	19	423	247.0	-198052.0	1300.0	34220.0
13	17	15	19	424	248.0	-197601.0	1346.0	28895.0
13	17	15	19	424	249.0	-197092.0	1404.0	22123.0
13	17	15	19	425	250.0	-196102.0	1449.0	16365.0
13	17	15	19	426	251.0	-194857.0	1509.0	16584.0
13	17	15	19	426	252.0	-193249.0	1556.0	19566.0
13	17	15	19	427	253.0	-191044.0	1612.0	22104.0
13	17	15	19	427	254.0	-187397.0	1660.0	27629.0
13	17	15	19	428	255.0	-183267.0	1714.0	32684.0
13	17	15	19	428	0.0	-183339.0	1761.0	36273.0
13	17	15	19	429	1.0	-186919.0	1812.0	36506.0
13	17	15	19	442	2.0	-191690.0	1851.0	32709.0
13	17	15	19	466	3.0	-198130.0	1894.0	24484.0
13	17	15	19	467	4.0	-203435.0	1943.0	20716.0
13	17	15	19	468	5.0	-203234.0	2004.0	20275.0
13	17	15	19	468	6.0	-201337.0	2050.0	24046.0
13	17	15	19	469	7.0	-200509.0	2112.0	26824.0
13	17	15	19	469	8.0	-199825.0	2148.0	29728.0
13	17	15	19	470	9.0	-199522.0	2193.0	37125.0
13	17	15	19	470	10.0	-200137.0	2220.0	40457.0
13	17	15	19	471	11.0	-200836.0	2270.0	39226.0
13	17	15	19	472	12.0	-200926.0	2330.0	33119.0
13	17	15	19	472	13.0	-200522.0	2372.0	23776.0
13	17	15	19	473	14.0	-200082.0	2433.0	21374.0
13	17	15	19	473	15.0	-198987.0	2474.0	22929.0
13	17	15	19	474	16.0	-197596.0	2504.0	24886.0
13	17	15	19	474	17.0	-196576.0	2555.0	27996.0
13	17	15	19	475	18.0	-195684.0	2594.0	28609.0
13	17	15	19	475	19.0	-194460.0	2623.0	33377.0
13	17	15	19	492	20.0	-193414.0	2658.0	40998.0
13	17	15	19	493	21.0	-192996.0	2691.0	38958.0
13	17	15	19	494	22.0	-192930.0	2733.0	28987.0
13	17	15	19	495	23.0	-193254.0	2758.0	21274.0
13	17	15	19	495	24.0	-193514.0	2810.0	20020.0
13	17	15	19	496	25.0	-193594.0	2844.0	20498.0
13	17	15	19	497	26.0	-194101.0	2868.0	23805.0
13	17	15	19	497	27.0	-195481.0	2902.0	26061.0
13	17	15	19	498	28.0	-197266.0	2947.0	29099.0
13	17	15	19	498	29.0	-198927.0	2978.0	33352.0
13	17	15	19	499	30.0	-200191.0	3004.0	35806.0
13	17	15	19	500	31.0	-201122.0	3038.0	33525.0
13	17	15	19	500	32.0	-201344.0	3083.0	25525.0
13	17	15	19	501	33.0	-201055.0	3117.0	18843.0
13	17	15	19	502	34.0	-200606.0	3146.0	15356.0
13	17	15	19	502	37.0	-199521.0	3247.0	21128.0
13	17	15	19	503	38.0	-199378.0	3276.0	25718.0
13	17	15	19	503	39.0	-199142.0	3313.0	30817.0
13	17	15	19	504	40.0	-198904.0	3319.0	34464.0
13	17	15	19	522	41.0	-198474.0	3353.0	31313.0
13	17	15	19	523	42.0	-198189.0	3370.0	23333.0
13	17	15	19	524	43.0	-198029.0	3398.0	14267.0
13	17	15	19	525	44.0	-197662.0	3428.0	11639.0
13	17	15	19	525	45.0	-197374.0	3449.0	13945.0
13	17	15	19	526	46.0	-197292.0	3471.0	14174.0
13	17	15	19	527	47.0	-197356.0	3505.0	15668.0
13	17	15	19	528	48.0	-197709.0	3530.0	20698.0
13	17	15	19	529	49.0	-198308.0	3549.0	30096.0
13	17	15	19	529	50.0	-198836.0	3576.0	34363.0
13	17	15	19	530	51.0	-199144.0	3608.0	29506.0
13	17	15	19	531	52.0	-199361.0	3621.0	20175.0
13	17	15	19	531	53.0	-199497.0	3638.0	10824.0
13	17	15	19	532	54.0	-199307.0	3655.0	10644.0
13	17	15	19	533	55.0	-199181.0	3674.0	14567.0
13	17	15	19	540	56.0	-199085.0	3694.0	17724.0
13	17	15	19	541	57.0	-199384.0	3701.0	21030.0
13	17	15	19	541	58.0	-199674.0	3724.0	24909.0
13	17	15	19	542	59.0	-199801.0	3743.0	28165.0
13	17	15	19	563	60.0	-200221.0	3766.0	30181.0
13	17	15	19	564	61.0	-200908.0	3776.0	25929.0
13	17	15	19	564	62.0	-201499.0	3797.0	18888.0
13	17	15	19	565	63.0	-201889.0	3815.0	12039.0
13	17	15	19	566	64.0	-202309.0	3838.0	9384.0
13	17	15	19	566	65.0	-202594.0	3849.0	9265.0
13	17	15	19	567	66.0	-202565.0	3867.0	8456.0
13	17	15	19	567	67.0	-202292.0	3878.0	11521.0
13	17	15	19	568	68.0	-202252.0	3892.0	18358.0
13	17	15	19	597	69.0	-202502.0	3893.0	23793.0
13	17	15	19	598	70.0	-202585.0	3908.0	25388.0
13	17	15	19	598	71.0	-202332.0	3918.0	22681.0
13	17	15	19	599	72.0	-202020.0	3936.0	13091.0
13	17	15	19	600	73.0	-201571.0	3943.0	3759.0
13	17	15	19	601	74.0	-201026.0	3950.0	1399.0
13	17	15	19	601	75.0	-200617.0	3955.0	4049.0
13	17	15	19	602	76.0	-200342.0	3974.0	8081.0
13	17	15	19	602	77.0	-200182.0	3977.0	12047.0
13	17	15	19	603	78.0	-200072.0	4011.0	15831.0
13	17	15	19	604	79.0	-199941.0	3999.0	20633.0
13	17	15	19	605	80.0	-199470.0	4008.0	19503.0
13	17	15	19	605	81.0	-199043.0	4030.0	13701.0
13	17	15	19	606	82.0	-198676.0	4051.0	5903.0
13	17	15	19	607	83.0	-198085.0	4041.0	-994.0
13	17	15	19	607	84.0	-197591.0	4051.0	-3304.0
13	17	15	19	608	89.0	-194869.0	4116.0	17759.0
13	17	15	19	609	90.0	-194548.0	4121.0	21184.0
13	17	15	19	610	91.0	-194351.0	4139.0	16041.0
13	17	15	19	618	92.0	-194262.0	4164.0	6923.0
13	17	15	19	618	93.0	-194486.0	4148.0	1242.0
13	17	15	19	619	94.0	-194704.0	4148.0	498.0
13	17	15	19	620	95.0	-194839.0	4176.0	5641.0
13	17	15	19	620	96.0	-194986.0	4173.0	8455.0
13	17	15	19	621	97.0	-195145.0	4191.0	9962.0
13	17	15	19	641	98.0	-195349.0	4201.0	13653.0
13	17	15	19	642	99.0	-195547.0	4219.0	20768.0
13	17	15	19	643	100.0	-195833.0	4243.0	22828.0
13	17	15	19	643	101.0	-196133.0	4239.0	18744.0
13	17	15	19	644	102.0	-196539.0	4250.0	11348.0
13	17	15	19	645	103.0	-197184.0	4280.0	4778.0
13	17	15	19	645	104.0	-197921.0	4285.0	1734.0
13	17	15	19	646	105.0	-198583.0	4293.0	2391.0
13	17	15	19	673	106.0	-199418.0	4328.0	2211.0
13	17	15	19	674	107.0	-200111.0	4328.0	5264.0
13	17	15	19	675	108.0	-200509.0	4339.0	11767.0
13	17	15	19	676	109.0	-200915.0	4343.0	17247.0
13	17	15	19	677	110.0	-201344.0	4349.0	18558.0
13	17	15	19	677	111.0	-201826.0	4363.0	13498.0
13	17	15	19	678	112.0	-202114.0	4387.0	5212.0
13	17	15	19	679	113.0	-202292.0	4396.0	-2606.0
13	17	15	19	679	114.0	-202237.0	4413.0	-5866.0
13	17	15	19	680	115.0	-201949.0	4438.0	-2947.0
13	17	15	19	681	116.0	-201630.0	4439.0	2289.0
13	17	15	19	682	117.0	-201079.0	4448.0	6164.0
13	17	15	19	683	118.0	-200298.0	4451.0	9748.0
13	17	15	19	683	119.0	-199676.0	4476.0	13931.0
13	17	15	19	684	120.0	-199093.0	4493.0	13903.0
13	17	15	19	685	126.0	-196172.0	4510.0	7404.0
13	17	15	19	686	127.0	-195869.0	4539.0	8811.0
13	17	15	19	686	128.0	-195704.0	4546.0	11532.0
13	17	15	19	687	129.0	-195501.0	4554.0	16527.0
13	17	15	19	689	130.0	-195212.0	4558.0	15972.0
13	17	15	19	689	131.0	-194626.0	4554.0	10677.0
13	17	15	19	690	132.0	-193981.0	4555.0	4754.0
13	17	15	19	696	133.0	-193438.0	4558.0	-1320.0
13	17	15	19	697	134.0	-192912.0	4553.0	-2714.0
13	17	15	19	705	135.0	-192552.0	4567.0	-2613.0
13	17	15	19	706	136.0	-192164.0	4573.0	1098.0
13	17	15	19	706	137.0	-191721.0	4580.0	3390.0
13	17	15	19	707	138.0	-191276.0	4585.0	4735.0
13	17	15	19	707	139.0	-191122.0	4591.0	13007.0
13	17	15	19	708	140.0	-191065.0	4566.0	17913.0
13	17	15	19	709	141.0	-191156.0	4579.0	12567.0
13	17	15	19	709	142.0	-191509.0	4581.0	3694.0
13	17	15	19	710	143.0	-192000.0	4584.0	-1540.0
13	17	15	19	778	144.0	-192676.0	4582.0	-3140.0
13	17	15	19	797	145.0	-193247.0	4588.0	-932.0
13	17	15	19	798	146.0	-193809.0	4591.0	835.0
13	17	15	19	799	147.0	-194478.0	4603.0	3589.0
13	17	15	19	799	148.0	-195075.0	4608.0	8281.0
13	17	15	19	800	149.0	-195679.0	4611.0	14186.0
13	17	15	19	800	150.0	-196305.0	4591.0	12827.0
13	17	15	19	801	151.0	-196729.0	4581.0	9929.0
13	17	15	19	801	152.0	-197074.0	4584.0	4529.0
13	17	15	19	802	153.0	-197582.0	4595.0	-2171.0
13	17	15	19	802	154.0	-198023.0	4588.0	-3408.0
13	17	15	19	803	155.0	-198347.0	4591.0	1034.0
13	17	15	19	803	156.0	-198535.0	4576.0	3105.0
13	17	15	19	804	157.0	-198596.0	4591.0	1588.0
13	17	15	19	804	158.0	-198714.0	4604.0	8806.0
13	17	15	19	805	159.0	-198706.0	4595.0	15811.0
13	17	15	19	805	179.0	-192954.0	4544.0	19519.0
13	17	15	19	806	180.0	-193312.0	4543.0	19182.0
13	17	15	19	807	181.0	-193731.0	4531.0	14526.0
13	17	15	19	822	182.0	-194124.0	4524.0	7845.0
13	17	15	19	823	183.0	-194690.0	4523.0	466.0
13	17	15	19	824	184.0	-195281.0	4502.0	-1482.0
13	17	15	19	824	185.0	-195698.0	4487.0	1554.0
13	17	15	19	825	186.0	-196139.0	4476.0	2211.0
13	17	15	19	825	187.0	-196687.0	4486.0	6176.0
13	17	15	19	826	188.0	-197383.0	4484.0	9674.0
13	17	15	19	826	189.0	-197941.0	4487.0	13416.0
13	17	15	19	827	190.0	-198216.0	4469.0	15063.0
13	17	15	19	827	191.0	-198357.0	4448.0	11200.0
13	17	15	19	828	192.0	-198440.0	4437.0	976.0
13	17	15	19	828	193.0	-198331.0	4419.0	-3239.0
13	17	15	19	829	194.0	-198370.0	4425.0	-697.0
13	17	15	19	829	195.0	-198409.0	4421.0	-2808.0
13	17	15	19	830	196.0	-198362.0	4403.0	-1384.0
13	17	15	19	830	197.0	-198496.0	4388.0	3913.0
13	17	15	19	831	198.0	-198467.0	4385.0	8653.0
13	17	15	19	832	199.0	-198358.0	4367.0	13094.0
13	17	15	19	832	200.0	-198231.0	4345.0	12802.0
13	17	15	19	833	201.0	-198041.0	4322.0	8248.0
13	17	15	19	845	202.0	-198008.0	4326.0	1763.0
13	17	15	19	846	203.0	-197861.0	4316.0	-2545.0
13	17	15	19	846	204.0	-197656.0	4313.0	-1434.0
13	17	15	19	847	205.0	-197454.0	4279.0	1288.0
13	17	15	19	847	206.0	-197302.0	4264.0	1689.0
13	17	15	19	848	207.0	-197042.0	4257.0	3362.0
13	17	15	19	849	208.0	-196797.0	4236.0	7996.0
13	17	15	19	849	209.0	-196584.0	4230.0	13718.0
13	17	15	19	850	210.0	-196341.0	4208.0	11261.0
13	17	15	19	869	211.0	-196242.0	4202.0	4219.0
13	17	15	19	869	212.0	-196391.0	4189.0	-1724.0
13	17	15	19	870	213.0	-196792.0	4185.0	-2800.0
13	17	15	19	871	214.0	-196898.0	4152.0	904.0
13	17	15	19	871	215.0	-196824.0	4129.0	2195.0
13	17	15	19	872	216.0	-196670.0	4115.0	6126.0
13	17	15	19	872	217.0	-196372.0	4109.0	9246.0
13	17	15	19	873	218.0	-196023.0	4091.0	13655.0
13	17	15	19	873	219.0	-195692.0	4076.0	16939.0
13	17	15	19	874	220.0	-195487.0	4076.0	14956.0
13	17	15	19	874	221.0	-195417.0	4051.0	9085.0
13	17	15	19	875	222.0	-195281.0	4041.0	1394.0
13	17	15	19	876	223.0	-195216.0	4014.0	-3576.0
13	17	15	19	876	224.0	-195333.0	4019.0	-2166.0
13	17	15	19	877	225.0	-195467.0	3999.0	4802.0
13	17	15	19	897	226.0	-195757.0	3978.0	11304.0
13	17	15	19	898	227.0	-195929.0	3962.0	13736.0
13	17	15	19	899	228.0	-195994.0	3936.0	17735.0
13	17	15	19	899	229.0	-196038.0	3917.0	22324.0
13	17	15	19	900	230.0	-196229.0	3904.0	22696.0
13	17	15	19	900	231.0	-196526.0	3881.0	17114.0
13	17	15	19	901	232.0	-196724.0	3865.0	7935.0
13	17	15	19	901	233.0	-196797.0	3870.0	3516.0
13	17	15	19	902	234.0	-196865.0	3848.0	10409.0
13	17	15	19	903	235.0	-197049.0	3826.0	18945.0
13	17	15	19	903	236.0	-197376.0	3804.0	25617.0
13	17	15	19	904	237.0	-197580.0	3801.0	31050.0
13	17	15	19	904	238.0	-197653.0	3790.0	42468.0
13	17	15	19	905	239.0	-197580.0	3771.0	52505.0
13	17	15	19	906	240.0	-197501.0	3746.0	55448.0
13	17	15	19	906	241.0	-197332.0	3730.0	54935.0
13	17	15	19	907	242.0	-197227.0	3706.0	49460.0
13	17	15	19	917	243.0	-197253.0	3697.0	45084.0
13	17	15	19	940	244.0	-197339.0	3679.0	45115.0
13	17	15	19	940	245.0	-197367.0	3659.0	41629.0
13	17	15	19	941	246.0	-197491.0	3624.0	31751.0
13	17	15	19	942	247.0	-197704.0	3626.0	19973.0
13	17	15	19	942	248.0	-198219.0	3614.0	12945.0
13	17	15	19	943	249.0	-199011.0	3594.0	2147.0
13	17	15	19	943	250.0	-199872.0	3574.0	-16666.0
13	17	15	19	944	251.0	-200681.0	3578.0	-32707.0
13	17	15	19	944	252.0	-201447.0	3569.0	-46647.0
13	17	15	19	945	253.0	-202365.0	3548.0	-51579.0
13	17	15	19	945	254.0	-203513.0	3531.0	-47710.0
13	17	15	19	946	255.0	-204432.0	3523.0	-43112.0
13	17	15	19	946	0.0	-205022.0	3504.0	-37004.0
13	17	15	19	947	1.0	-205286.0	3480.0	-32061.0
13	17	15	19	963	2.0	-205123.0	3459.0	-25257.0
13	17	15	19	963	3.0	-204454.0	3443.0	-14477.0
13	17	15	19	964	4.0	-202716.0	3423.0	-7839.0
13	17	15	19	965	5.0	-199919.0	3411.0	-9922.0
13	17	15	19	965	6.0	-196621.0	3389.0	-14297.0
13	17	15	19	966	7.0	-193531.0	3383.0	-16957.0
13	17	15	19	966	8.0	-191527.0	3374.0	-16325.0
13	17	15	19	967	9.0	-191076.0	3353.0	-11500.0
13	17	15	19	967	10.0	-192022.0	3328.0	-5935.0
13	17	15	19	968	11.0	-194662.0	3305.0	-2530.0
13	17	15	19	968	12.0	-198459.0	3283.0	3678.0
13	17	15	19	969	13.0	-202227.0	3274.0	8126.0
13	17	15	19	969	14.0	-204707.0	3248.0	7953.0
13	17	15	19	970	15.0	-205607.0	3233.0	4814.0
13	17	15	19	971	16.0	-205482.0	3234.0	229.0
13	17	15	19	971	17.0	-205249.0	3213.0	-2087.0
13	17	15	19	972	18.0	-205043.0	3181.0	521.0
13	17	15	19	973	19.0	-204821.0	3154.0	3235.0
13	17	15	19	974	20.0	-204001.0	3161.0	5054.0
13	17	15	20	3	21.0	-202229.0	3126.0	9085.0
13	17	15	20	4	22.0	-200024.0	3113.0	14095.0
13	17	15	20	4	23.0	-198871.0	3098.0	16842.0
13	17	15	20	5	24.0	-198901.0	3089.0	16979.0
13	17	15	20	5	25.0	-198755.0	3058.0	13916.0
13	17	15	20	6	26.0	-197716.0	3044.0	7525.0
13	17	15	20	6	27.0	-195808.0	3027.0	5099.0
13	17	15	20	7	28.0	-193783.0	3010.0	7159.0
13	17	15	20	8	29.0	-192599.0	2991.0	8892.0
13	17	15	20	8	30.0	-192194.0	2976.0	10245.0
13	17	15	20	9	31.0	-191984.0	2967.0	13226.0
13	17	15	20	9	32.0	-191864.0	2964.0	19753.0
13	17	15	20	10	33.0	-191522.0	2938.0	23719.0
13	17	15	20	11	34.0	-191186.0	2932.0	19414.0
13	17	15	20	11	35.0	-191189.0	2905.0	13249.0
13	17	15	20	12	36.0	-191429.0	2881.0	8418.0
13	17	15	20	12	37.0	-192123.0	2861.0	5878.0
13	17	15	20	13	38.0	-193080.0	2849.0	6060.0
13	17	15	20	13	39.0	-194076.0	2841.0	8464.0
13	17	15	20	22	40.0	-194866.0	2831.0	11248.0
13	17	15	20	22	41.0	-195343.0	2826.0	14280.0
13	17	15	20	23	42.0	-195451.0	2814.0	18821.0
13	17	15	20	23	43.0	-195346.0	2773.0	19345.0
13	17	15	20	45	44.0	-195183.0	2758.0	19143.0
13	17	15	20	46	45.0	-195203.0	2753.0	15106.0
13	17	15	20	46	46.0	-195547.0	2732.0	7450.0
13	17	15	20	47	47.0	-196270.0	2708.0	4743.0
13	17	15	20	47	48.0	-196928.0	2709.0	6146.0
13	17	15	20	48	49.0	-197537.0	2677.0	7214.0
13	17	15	20	49	50.0	-197894.0	2666.0	9563.0
13	17	15	20	49	51.0	-197969.0	2649.0	12849.0
13	17	15	20	50	52.0	-198012.0	2624.0	16564.0
13	17	15	20	50	53.0	-198072.0	2602.0	18653.0
13	17	15	20	51	54.0	-197937.0	2581.0	17224.0
13	17	15	20	51	55.0	-197606.0	2571.0	11728.0
13	17	15	20	52	56.0	-197101.0	2567.0	4219.0
13	17	15	20	52	57.0	-196331.0	2554.0	2003.0
13	17	15	20	53	58.0	-195403.0	2524.0	4106.0
13	17	15	20	54	59.0	-194554.0	2488.0	7508.0
13	17	15	20	77	60.0	-193879.0	2475.0	8886.0
13	17	15	20	78	61.0	-193022.0	2460.0	13051.0
13	17	15	20	79	62.0	-192331.0	2435.0	19915.0
13	17	15	20	79	63.0	-191870.0	2402.0	23114.0
13	17	15	20	80	64.0	-191494.0	2383.0	22639.0
13	17	15	20	81	65.0	-191145.0	2383.0	17754.0
13	17	15	20	81	66.0	-191099.0	2364.0	9886.0
13	17	15	20	82	67.0	-191626.0	2331.0	6850.0
13	17	15	20	82	68.0	-191969.0	2321.0	7728.0
13	17	15	20	83	69.0	-192184.0	2294.0	10132.0
13	17	15	20	83	70.0	-192676.0	2273.0	12984.0
13	17	15	20	84	71.0	-193421.0	2261.0	17537.0
13	17	15	20	85	72.0	-194043.0	2243.0	23732.0
13	17	15	20	85	73.0	-194635.0	2218.0	25838.0
13	17	15	20	86	74.0	-195214.0	2192.0	23078.0
13	17	15	20	86	75.0	-195857.0	2169.0	15069.0
13	17	15	20	87	76.0	-196580.0	2136.0	8368.0
13	17	15	20	88	77.0	-197333.0	2131.0	8332.0
13	17	15	20	96	78.0	-198010.0	2114.0	12804.0
13	17	15	20	96	79.0	-198639.0	2084.0	16743.0
13	17	15	20	119	80.0	-199249.0	2077.0	20399.0
13	17	15	20	120	81.0	-199690.0	2051.0	23386.0
13	17	15	20	121	82.0	-200171.0	2036.0	28033.0
13	17	15	20	121	83.0	-200629.0	2019.0	31458.0
13	17	15	20	122	84.0	-200982.0	2008.0	27538.0
13	17	15	20	122	85.0	-201122.0	1977.0	19128.0
13	17	15	20	123	86.0	-201051.0	1968.0	12602.0
13	17	15	20	123	87.0	-201023.0	1929.0	11955.0
13	17	15	20	124	88.0	-201012.0	1919.0	15387.0
13	17	15	20	124	89.0	-200704.0	1910.0	18555.0
13	17	15	20	167	90.0	-200354.0	1888.0	22319.0
13	17	15	20	168	91.0	-200024.0	1866.0	28116.0
13	17	15	20	169	92.0	-199672.0	1856.0	32419.0
13	17	15	20	169	93.0	-199427.0	1857.0	32378.0
13	17	15	20	170	94.0	-199450.0	1834.0	30225.0
13	17	15	20	171	95.0	-199564.0	1798.0	23629.0
13	17	15	20	171	96.0	-199452.0	1820.0	17094.0
13	17	15	20	172	97.0	-199179.0	1806.0	14727.0
13	17	15	20	172	98.0	-198665.0	1811.0	16621.0
13	17	15	20	173	99.0	-198194.0	1811.0	19114.0
13	17	15	20	173	100.0	-197704.0	1811.0	23031.0
13	17	15	20	174	101.0	-197236.0	1811.0	29003.0
13	17	15	20	175	102.0	-196829.0	1808.0	35428.0
13	17	15	20	175	103.0	-196324.0	1818.0	36284.0
13	17	15	20	176	104.0	-195811.0	1836.0	31229.0
13	17	15	20	177	118.0	-192355.0	2131.0	20363.0
13	17	15	20	178	119.0	-193009.0	2172.0	23208.0
13	17	15	20	186	120.0	-193662.0	2204.0	23601.0
13	17	15	20	187	121.0	-194318.0	2257.0	23154.0
13	17	15	20	187	122.0	-194898.0	2292.0	27727.0
13	17	15	20	188	123.0	-195340.0	2317.0	28446.0
13	17	15	20	189	124.0	-195841.0	2356.0	21985.0
13	17	15	20	189	125.0	-196401.0	2414.0	12433.0
13	17	15	20	190	126.0	-197178.0	2471.0	6675.0
13	17	15	20	259	127.0	-198089.0	2516.0	4387.0
13	17	15	20	260	128.0	-198857.0	2566.0	2977.0
13	17	15	20	261	129.0	-199457.0	2621.0	3509.0
13	17	15	20	261	130.0	-199965.0	2680.0	10025.0
13	17	15	20	262	131.0	-200469.0	2724.0	16884.0
13	17	15	20	263	132.0	-200846.0	2783.0	21653.0
13	17	15	20	263	133.0	-201183.0	2834.0	20982.0
13	17	15	20	264	134.0	-201468.0	2883.0	16908.0
13	17	15	20	265	135.0	-201733.0	2931.0	7994.0
13	17	15	20	265	136.0	-201889.0	2998.0	1743.0
13	17	15	20	266	137.0	-201931.0	3052.0	-200.0
13	17	15	20	266	138.0	-201890.0	3113.0	-1181.0
13	17	15	20	267	139.0	-201897.0	3171.0	-589.0
13	17	15	20	267	140.0	-201800.0	3232.0	1188.0
13	17	15	20	268	141.0	-201619.0	3283.0	3580.0
13	17	15	20	269	162.0	-188516.0	4386.0	13038.0
13	17	15	20	269	163.0	-193182.0	4441.0	13434.0
13	17	15	20	270	164.0	-199194.0	4479.0	8192.0
13	17	15	20	270	165.0	-203411.0	4508.0	-2366.0
13	17	15	20	334	166.0	-202841.0	4547.0	-9271.0
13	17	15	20	334	167.0	-201252.0	4586.0	-8184.0
13	17	15	20	335	168.0	-199861.0	4633.0	-5886.0
13	17	15	20	336	169.0	-198486.0	4666.0	-2863.0
13	17	15	20	336	170.0	-198319.0	4720.0	-1966.0
13	17	15	20	337	171.0	-199077.0	4751.0	416.0
13	17	15	20	338	172.0	-200057.0	4785.0	6836.0
13	17	15	20	338	173.0	-200382.0	4806.0	6915.0
13	17	15	20	339	174.0	-200102.0	4868.0	1084.0
13	17	15	20	339	175.0	-199754.0	4918.0	-7410.0
13	17	15	20	340	176.0	-198958.0	4948.0	-12061.0
13	17	15	20	341	177.0	-197797.0	4970.0	-12174.0
13	17	15	20	341	178.0	-196718.0	5021.0	-9002.0
13	17	15	20	342	179.0	-195762.0	5048.0	-7037.0
13	17	15	20	342	180.0	-195134.0	5086.0	-4581.0
13	17	15	20	343	181.0	-194662.0	5114.0	3779.0
13	17	15	20	343	200.0	-197412.0	5666.0	-6394.0
13	17	15	20	344	201.0	-196969.0	5687.0	509.0
13	17	15	20	345	202.0	-196644.0	5710.0	8871.0
13	17	15	20	364	203.0	-196327.0	5748.0	7337.0
13	17	15	20	364	204.0	-196285.0	5765.0	328.0
13	17	15	20	365	205.0	-196587.0	5774.0	-6680.0
13	17	15	20	366	206.0	-197236.0	5802.0	-10872.0
13	17	15	20	366	207.0	-197839.0	5838.0	-11151.0
13	17	15	20	378	208.0	-198327.0	5833.0	-9018.0
13	17	15	20	379	209.0	-198810.0	5856.0	-6811.0
13	17	15	20	380	210.0	-199097.0	5873.0	-3587.0
13	17	15	20	381	211.0	-199297.0	5896.0	1998.0
13	17	15	20	381	212.0	-199211.0	5952.0	7031.0
13	17	15	20	382	213.0	-199041.0	5978.0	5281.0
13	17	15	20	383	214.0	-198941.0	5976.0	2398.0
13	17	15	20	383	215.0	-198494.0	5985.0	-3898.0
13	17	15	20	384	216.0	-197821.0	6014.0	-7936.0
13	17	15	20	385	217.0	-197401.0	6032.0	-10067.0
13	17	15	20	385	218.0	-196864.0	6038.0	-6965.0
13	17	15	20	386	219.0	-196193.0	6046.0	-2882.0
13	17	15	20	386	220.0	-195749.0	6073.0	-941.0
13	17	15	20	387	221.0	-195467.0	6078.0	1334.0
13	17	15	20	388	222.0	-195167.0	6111.0	6135.0
13	17	15	20	388	223.0	-194721.0	6129.0	4616.0
13	17	15	20	389	224.0	-194532.0	6135.0	-29.0
13	17	15	20	389	225.0	-194503.0	6143.0	-6468.0
13	17	15	20	390	226.0	-194637.0	6156.0	-10709.0
13	17	15	20	401	227.0	-194987.0	6177.0	-10640.0
13	17	15	20	402	228.0	-195377.0	6170.0	-8249.0
13	17	15	20	402	229.0	-195712.0	6180.0	-6344.0
13	17	15	20	431	230.0	-196004.0	6190.0	-4699.0
13	17	15	20	432	231.0	-196321.0	6192.0	-1581.0
13	17	15	20	433	232.0	-196651.0	6209.0	1646.0
13	17	15	20	433	233.0	-196918.0	6194.0	1283.0
13	17	15	20	434	234.0	-197354.0	6201.0	-3403.0
13	17	15	20	434	235.0	-197846.0	6217.0	-10206.0
13	17	15	20	435	236.0	-198432.0	6255.0	-11879.0
13	17	15	20	436	237.0	-198974.0	6252.0	-11691.0
13	17	15	20	436	238.0	-199448.0	6246.0	-9357.0
13	17	15	20	437	239.0	-199907.0	6265.0	-5939.0
13	17	15	20	437	240.0	-200224.0	6259.0	-5169.0
13	17	15	20	438	241.0	-200470.0	6259.0	1767.0
13	17	15	20	438	242.0	-200907.0	6253.0	5070.0
13	17	15	20	455	243.0	-200906.0	6268.0	715.0
13	17	15	20	456	244.0	-200792.0	6273.0	-3196.0
13	17	15	20	457	245.0	-200880.0	6269.0	-8876.0
13	17	15	20	457	246.0	-201094.0	6286.0	-11408.0
13	17	15	20	458	247.0	-201244.0	6301.0	-10303.0
13	17	15	20	459	248.0	-201131.0	6299.0	-7939.0
13	17	15	20	459	249.0	-200962.0	6307.0	-3946.0
13	17	15	20	460	250.0	-201166.0	6307.0	-924.0
13	17	15	20	461	251.0	-201327.0	6309.0	4069.0
13	17	15	20	461	252.0	-201342.0	6314.0	10396.0
13	17	15	20	462	253.0	-201455.0	6303.0	8889.0
13	17	15	20	463	254.0	-201487.0	6300.0	2933.0
13	17	15	20	463	255.0	-201217.0	6304.0	-6986.0
13	17	15	20	464	0.0	-200859.0	6309.0	-11015.0
13	17	15	20	464	1.0	-200489.0	6330.0	-6902.0
13	17	15	20	465	2.0	-199849.0	6324.0	-4735.0
13	17	15	20	466	4.0	-199307.0	6339.0	-630.0
13	17	15	20	466	5.0	-199160.0	6348.0	3272.0
13	17	15	20	467	6.0	-199201.0	6348.0	5509.0
13	17	15	20	467	7.0	-199240.0	6348.0	3914.0
13	17	15	20	482	8.0	-199129.0	6344.0	-1471.0
13	17	15	20	483	9.0	-199082.0	6363.0	-8042.0
13	17	15	20	483	10.0	-199116.0	6357.0	-12094.0
13	17	15	20	484	11.0	-199135.0	6371.0	-9609.0
13	17	15	20	485	12.0	-199216.0	6366.0	-5592.0
13	17	15	20	485	13.0	-199264.0	6369.0	-1867.0
13	17	15	20	486	14.0	-199396.0	6397.0	2562.0
13	17	15	20	487	15.0	-199562.0	6400.0	6718.0
13	17	15	20	487	16.0	-199741.0	6392.0	7631.0
13	17	15	20	488	17.0	-199869.0	6390.0	4609.0
13	17	15	20	489	18.0	-199966.0	6384.0	-1904.0
13	17	15	20	489	19.0	-199825.0	6380.0	-8482.0
13	17	15	20	490	20.0	-199522.0	6391.0	-12672.0
13	17	15	20	490	21.0	-199455.0	6394.0	-10691.0
13	17	15	20	491	22.0	-199566.0	6389.0	-5096.0
13	17	15	20	513	23.0	-199782.0	6395.0	-3229.0
13	17	15	20	513	24.0	-199935.0	6409.0	1394.0
13	17	15	20	514	25.0	-200232.0	6413.0	7805.0
13	17	15	20	515	26.0	-200519.0	6414.0	13634.0
13	17	15	20	515	27.0	-200646.0	6419.0	10364.0
13	17	15	20	516	28.0	-200615.0	6400.0	2268.0
13	17	15	20	516	29.0	-200528.0	6409.0	-5817.0
13	17	15	20	527	30.0	-200476.0	6405.0	-9870.0
13	17	15	20	528	31.0	-200345.0	6416.0	-11804.0
13	17	15	20	529	32.0	-200287.0	6403.0	-8442.0
13	17	15	20	529	33.0	-200122.0	6414.0	-4253.0
13	17	15	20	530	34.0	-199894.0	6415.0	1773.0
13	17	15	20	530	35.0	-199651.0	6415.0	7490.0
13	17	15	20	531	36.0	-199270.0	6405.0	12074.0
13	17	15	20	532	37.0	-198836.0	6402.0	8218.0
13	17	15	20	532	38.0	-198361.0	6392.0	1914.0
13	17	15	20	533	39.0	-197794.0	6406.0	-4781.0
13	17	15	20	534	40.0	-197274.0	6416.0	-9946.0
13	17	15	20	534	41.0	-196775.0	6401.0	-5936.0
13	17	15	20	535	42.0	-196452.0	6366.0	-4036.0
13	17	15	20	535	43.0	-196237.0	6370.0	-4784.0
13	17	15	20	536	44.0	-195944.0	6372.0	-898.0
13	17	15	20	537	45.0	-195879.0	6364.0	4061.0
13	17	15	20	550	46.0	-195877.0	6356.0	6497.0
13	17	15	20	572	47.0	-195863.0	6336.0	4647.0
13	17	15	20	573	48.0	-196096.0	6343.0	-2477.0
13	17	15	20	573	49.0	-196289.0	6331.0	-8527.0
13	17	15	20	574	50.0	-196287.0	6338.0	-10664.0
13	17	15	20	575	51.0	-196494.0	6332.0	-11500.0
13	17	15	20	575	52.0	-196652.0	6304.0	-9921.0
13	17	15	20	576	53.0	-196565.0	6295.0	-6679.0
13	17	15	20	576	54.0	-196330.0	6298.0	-2384.0
13	17	15	20	577	55.0	-196356.0	6283.0	4838.0
13	17	15	20	577	56.0	-196318.0	6269.0	8483.0
13	17	15	20	578	57.0	-195878.0	6268.0	3556.0
13	17	15	20	579	58.0	-195601.0	6251.0	-3814.0
13	17	15	20	579	59.0	-195647.0	6218.0	-12367.0
13	17	15	20	594	60.0	-195517.0	6217.0	-14354.0
13	17	15	20	595	61.0	-195381.0	6187.0	-8807.0
13	17	15	20	596	62.0	-195616.0	6194.0	-3987.0
13	17	15	20	596	63.0	-195562.0	6183.0	-1088.0
13	17	15	20	597	64.0	-195319.0	6167.0	873.0
13	17	15	20	597	65.0	-195316.0	6149.0	7491.0
13	17	15	20	598	66.0	-195381.0	6140.0	11786.0
13	17	15	20	599	67.0	-195277.0	6137.0	9771.0
13	17	15	20	599	68.0	-195096.0	6126.0	1499.0
13	17	15	20	600	69.0	-195260.0	6079.0	-5991.0
13	17	15	20	600	70.0	-195769.0	6076.0	-4334.0
13	17	15	20	601	71.0	-196124.0	6081.0	1896.0
13	17	15	20	602	72.0	-196508.0	6083.0	2450.0
13	17	15	20	602	73.0	-196757.0	6041.0	3516.0
13	17	15	20	603	74.0	-196863.0	6028.0	6919.0
13	17	15	20	603	75.0	-197225.0	6024.0	11504.0
13	17	15	20	604	76.0	-197866.0	6015.0	13463.0
13	17	15	20	605	77.0	-198356.0	5978.0	10470.0
13	17	15	20	605	78.0	-198506.0	5978.0	4175.0
13	17	15	20	633	79.0	-198483.0	5949.0	639.0
13	17	15	20	634	80.0	-198423.0	5923.0	3428.0
13	17	15	20	635	81.0	-198551.0	5913.0	6516.0
13	17	15	20	636	82.0	-198643.0	5900.0	4823.0
13	17	15	20	636	83.0	-198805.0	5886.0	6753.0
13	17	15	20	637	84.0	-198830.0	5879.0	12343.0
13	17	15	20	638	85.0	-198466.0	5851.0	17394.0
13	17	15	20	639	86.0	-198241.0	5842.0	18991.0
13	17	15	20	640	87.0	-198067.0	5805.0	16101.0
13	17	15	20	640	88.0	-197782.0	5783.0	7206.0
13	17	15	20	641	89.0	-197576.0	5769.0	1157.0
13	17	15	20	642	90.0	-197720.0	5766.0	1164.0
13	17	15	20	642	91.0	-197698.0	5739.0	5993.0
13	17	15	20	643	92.0	-197915.0	5733.0	6204.0
13	17	15	20	643	93.0	-198007.0	5704.0	6540.0
13	17	15	20	644	94.0	-197874.0	5675.0	12109.0
13	17	15	20	644	95.0	-197836.0	5649.0	18878.0
13	17	15	20	645	96.0	-197710.0	5628.0	19121.0
13	17	15	20	646	97.0	-197544.0	5611.0	12495.0
13	17	15	20	646	98.0	-197407.0	5599.0	4743.0
13	17	15	20	647	99.0	-197097.0	5581.0	-2551.0
13	17	15	20	648	100.0	-196867.0	5552.0	-2951.0
13	17	15	20	648	101.0	-196693.0	5536.0	968.0
13	17	15	20	662	102.0	-196486.0	5526.0	3035.0
13	17	15	20	663	103.0	-196186.0	5503.0	6653.0
13	17	15	20	664	104.0	-196085.0	5459.0	13711.0
13	17	15	20	665	105.0	-196259.0	5441.0	18818.0
13	17	15	20	665	106.0	-196386.0	5437.0	16741.0
13	17	15	20	666	107.0	-196552.0	5411.0	9399.0
13	17	15	20	666	108.0	-196841.0	5395.0	4428.0
13	17	15	20	667	109.0	-196886.0	5370.0	896.0
13	17	15	20	668	110.0	-196852.0	5346.0	856.0
13	17	15	20	708	111.0	-197011.0	5322.0	5241.0
13	17	15	20	709	112.0	-197119.0	5301.0	9099.0
13	17	15	20	709	113.0	-197282.0	5264.0	12891.0
13	17	15	20	710	114.0	-197661.0	5269.0	15377.0
13	17	15	20	711	115.0	-197955.0	5276.0	20363.0
13	17	15	20	711	116.0	-198173.0	5233.0	22898.0
13	17	15	20	712	117.0	-198044.0	5204.0	17285.0
13	17	15	20	712	118.0	-197891.0	5188.0	10189.0
13	17	15	20	713	119.0	-198200.0	5158.0	4366.0
13	17	15	20	714	120.0	-198224.0	5144.0	3738.0
13	17	15	20	714	121.0	-198065.0	5132.0	6842.0
13	17	15	20	715	122.0	-198011.0	5099.0	8514.0
13	17	15	20	716	123.0	-197981.0	5093.0	7126.0
13	17	15	20	716	124.0	-197904.0	5076.0	8823.0
13	17	15	20	717	125.0	-198026.0	5043.0	18111.0
13	17	15	20	717	131.0	-196539.0	4922.0	8717.0
13	17	15	20	718	132.0	-196012.0	4900.0	11276.0
13	17	15	20	719	133.0	-195650.0	4857.0	15434.0
13	17	15	20	719	134.0	-195459.0	4834.0	20143.0
13	17	15	20	728	135.0	-195216.0	4828.0	23699.0
13	17	15	20	730	136.0	-195036.0	4812.0	23629.0
13	17	15	20	730	137.0	-195283.0	4782.0	19418.0
13	17	15	20	731	138.0	-195558.0	4740.0	11453.0
13	17	15	20	758	139.0	-195780.0	4715.0	5378.0
13	17	15	20	759	140.0	-195987.0	4705.0	3288.0
13	17	15	20	759	141.0	-196008.0	4679.0	5786.0
13	17	15	20	760	142.0	-196159.0	4649.0	10296.0
13	17	15	20	760	143.0	-196449.0	4641.0	12817.0
13	17	15	20	761	144.0	-196834.0	4633.0	14198.0
13	17	15	20	762	145.0	-196977.0	4604.0	20993.0
13	17	15	20	762	146.0	-196964.0	4578.0	22103.0
13	17	15	20	763	147.0	-196951.0	4554.0	18538.0
13	17	15	20	763	148.0	-196924.0	4514.0	9716.0
13	17	15	20	782	149.0	-196706.0	4496.0	6413.0
13	17	15	20	783	150.0	-196396.0	4481.0	14529.0
13	17	15	20	784	151.0	-196043.0	4449.0	21392.0
13	17	15	20	784	152.0	-195535.0	4429.0	26937.0
13	17	15	20	785	153.0	-195212.0	4416.0	35401.0
13	17	15	20	785	154.0	-194809.0	4385.0	46168.0
13	17	15	20	786	155.0	-194234.0	4363.0	55548.0
13	17	15	20	786	156.0	-193869.0	4333.0	57501.0
13	17	15	20	787	157.0	-193557.0	4297.0	52868.0
13	17	15	20	788	158.0	-193334.0	4279.0	45287.0
13	17	15	20	788	159.0	-193442.0	4263.0	38353.0
13	17	15	20	789	160.0	-193680.0	4243.0	31844.0
13	17	15	20	789	161.0	-194031.0	4213.0	23832.0
13	17	15	20	790	162.0	-194716.0	4200.0	15467.0
13	17	15	20	790	163.0	-195495.0	4165.0	9726.0
13	17	15	20	791	164.0	-196227.0	4133.0	-2124.0
13	17	15	20	792	169.0	-201034.0	4036.0	-40524.0
13	17	15	20	792	170.0	-201970.0	4013.0	-39210.0
13	17	15	20	793	171.0	-202912.0	3979.0	-34228.0
13	17	15	20	806	172.0	-203657.0	3960.0	-28207.0
13	17	15	20	807	173.0	-204239.0	3934.0	-22302.0
13	17	15	20	807	174.0	-204714.0	3909.0	-13394.0
13	17	15	20	808	175.0	-204916.0	3866.0	471.0
13	17	15	20	808	176.0	-204337.0	3855.0	4667.0
13	17	15	20	830	177.0	-202479.0	3818.0	1071.0
13	17	15	20	830	178.0	-199824.0	3812.0	-6059.0
13	17	15	20	831	179.0	-196548.0	3784.0	-10811.0
13	17	15	20	832	180.0	-193255.0	3772.0	-10464.0
13	17	15	20	853	181.0	-190599.0	3735.0	-6909.0
13	17	15	20	878	182.0	-188739.0	3705.0	161.0
13	17	15	20	878	183.0	-188098.0	3698.0	7074.0
13	17	15	20	879	184.0	-189384.0	3681.0	13797.0
13	17	15	20	879	185.0	-191786.0	3651.0	22173.0
13	17	15	20	880	186.0	-194123.0	3633.0	24874.0
13	17	15	20	881	187.0	-196271.0	3605.0	21722.0
13	17	15	20	881	188.0	-198604.0	3584.0	16246.0
13	17	15	20	882	189.0	-200695.0	3591.0	12522.0
13	17	15	20	882	190.0	-202179.0	3563.0	12925.0
13	17	15	20	883	191.0	-202602.0	3548.0	14435.0
13	17	15	20	883	192.0	-201860.0	3514.0	16893.0
13	17	15	20	884	193.0	-200539.0	3480.0	21128.0
13	17	15	20	884	194.0	-199319.0	3466.0	28278.0
13	17	15	20	885	195.0	-198304.0	3451.0	32583.0
13	17	15	20	885	198.0	-193304.0	3391.0	18226.0
13	17	15	20	886	206.0	-190196.0	3221.0	29117.0
13	17	15	20	886	207.0	-190825.0	3203.0	25907.0
13	17	15	20	887	208.0	-192044.0	3197.0	17764.0
13	17	15	20	888	209.0	-193737.0	3171.0	13387.0
13	17	15	20	888	210.0	-195329.0	3138.0	13501.0
13	17	15	20	889	211.0	-196567.0	3113.0	16468.0
13	17	15	20	889	212.0	-197526.0	3074.0	18894.0
13	17	15	20	890	213.0	-198065.0	3058.0	20726.0
13	17	15	20	891	214.0	-198220.0	3051.0	26936.0
13	17	15	20	891	215.0	-198204.0	3016.0	33694.0
13	17	15	20	892	216.0	-198165.0	2986.0	31873.0
13	17	15	20	892	217.0	-198321.0	2959.0	25881.0
13	17	15	20	893	218.0	-198408.0	2924.0	17975.0
13	17	15	20	893	219.0	-198213.0	2915.0	13838.0
13	17	15	20	894	220.0	-197922.0	2909.0	14701.0
13	17	15	20	894	221.0	-197646.0	2877.0	16853.0
13	17	15	20	895	222.0	-197566.0	2861.0	18968.0
13	17	15	20	932	223.0	-197363.0	2826.0	22609.0
13	17	15	20	933	224.0	-196774.0	2825.0	25726.0
13	17	15	20	934	225.0	-196423.0	2781.0	29622.0
13	17	15	20	955	226.0	-196398.0	2731.0	28209.0
13	17	15	20	956	227.0	-196379.0	2706.0	22193.0
13	17	15	20	956	228.0	-196491.0	2705.0	18192.0
13	17	15	20	957	229.0	-196679.0	2688.0	18348.0
13	17	15	20	957	230.0	-197003.0	2667.0	20292.0
13	17	15	20	958	231.0	-197422.0	2633.0	24528.0
13	17	15	20	959	232.0	-197503.0	2606.0	26786.0
13	17	15	20	959	233.0	-197544.0	2593.0	28073.0
13	17	15	20	960	234.0	-197587.0	2581.0	33206.0
13	17	15	20	960	235.0	-197613.0	2533.0	39938.0
13	17	15	20	961	236.0	-197526.0	2514.0	38159.0
13	17	15	20	961	237.0	-197441.0	2493.0	31756.0
13	17	15	20	962	243.0	-198346.0	2369.0	24029.0
13	17	15	20	962	244.0	-198892.0	2358.0	32594.0
13	17	15	20	963	245.0	-199375.0	2331.0	38343.0
13	17	15	20	963	246.0	-199794.0	2304.0	37823.0
13	17	15	20	964	247.0	-200207.0	2287.0	32143.0
13	17	15	20	965	248.0	-200497.0	2263.0	25151.0
13	17	15	20	965	249.0	-200609.0	2238.0	22373.0
13	17	15	20	966	250.0	-200527.0	2226.0	23332.0
13	17	15	20	966	251.0	-200549.0	2188.0	25989.0
13	17	15	20	967	252.0	-200498.0	2167.0	30452.0
13	17	15	20	967	253.0	-200337.0	2152.0	33573.0
13	17	15	20	968	254.0	-200176.0	2141.0	40561.0
13	17	15	20	968	255.0	-199852.0	2114.0	46011.0
13	17	15	20	969	0.0	-199347.0	2097.0	42926.0
13	17	15	20	970	1.0	-198659.0	2062.0	36144.0
13	17	15	20	970	2.0	-197761.0	2049.0	32228.0
13	17	15	20	971	3.0	-196962.0	2030.0	32298.0
13	17	15	20	993	4.0	-196358.0	2008.0	33795.0
13	17	15	20	993	5.0	-195719.0	1994.0	35875.0
13	17	15	20	994	6.0	-195009.0	1973.0	37293.0
13	17	15	20	995	7.0	-194531.0	1957.0	38501.0
13	17	15	20	995	8.0	-194170.0	1943.0	45973.0
13	17	15	20	996	9.0	-193825.0	1927.0	51473.0
13	17	15	20	997	10.0	-193386.0	1927.0	49638.0
13	17	15	20	997	11.0	-193170.0	1920.0	43492.0
13	17	15	20	998	12.0	-192946.0	1904.0	36378.0
13	17	15	20	998	13.0	-192993.0	1891.0	35881.0
13	17	15	20	999	14.0	-193122.0	1893.0	37564.0
13	17	15	20	999	15.0	-193064.0	1877.0	37749.0
13	17	15	21	0	16.0	-192891.0	1876.0	38593.0
13	17	15	21	1	17.0	-192569.0	1883.0	45841.0
13	17	15	21	1	18.0	-192386.0	1889.0	51150.0
13	17	15	21	2	19.0	-192264.0	1879.0	51501.0
13	17	15	21	2	20.0	-192192.0	1883.0	49677.0
13	17	15	21	3	21.0	-192162.0	1896.0	45513.0
13	17	15	21	4	22.0	-192213.0	1913.0	39162.0
13	17	15	21	11	23.0	-192402.0	1916.0	35781.0
13	17	15	21	12	24.0	-192566.0	1919.0	33606.0
13	17	15	21	37	25.0	-192899.0	1937.0	33063.0
13	17	15	21	38	26.0	-193269.0	1950.0	35806.0
13	17	15	21	39	27.0	-193802.0	1987.0	43286.0
13	17	15	21	39	28.0	-194601.0	2011.0	48065.0
13	17	15	21	40	29.0	-195287.0	2031.0	50779.0
13	17	15	21	40	30.0	-196063.0	2064.0	51030.0
13	17	15	21	41	31.0	-196946.0	2073.0	43849.0
13	17	15	21	42	32.0	-197873.0	2108.0	34643.0
13	17	15	21	42	33.0	-198527.0	2152.0	35923.0
13	17	15	21	43	34.0	-198967.0	2184.0	40240.0
13	17	15	21	43	35.0	-199382.0	2217.0	42811.0
13	17	15	21	44	36.0	-199833.0	2262.0	42276.0
13	17	15	21	45	37.0	-200286.0	2295.0	43019.0
13	17	15	21	45	38.0	-200801.0	2326.0	47066.0
13	17	15	21	46	39.0	-201503.0	2374.0	50921.0
13	17	15	21	46	40.0	-201802.0	2421.0	46656.0
13	17	15	21	47	41.0	-201927.0	2459.0	38153.0
13	17	15	21	47	42.0	-202073.0	2504.0	30509.0
13	17	15	21	48	43.0	-202106.0	2550.0	28026.0
13	17	15	21	68	44.0	-202203.0	2594.0	31641.0
13	17	15	21	68	45.0	-202139.0	2643.0	34187.0
13	17	15	21	69	46.0	-201904.0	2682.0	33977.0
13	17	15	21	88	47.0	-201773.0	2729.0	36771.0
13	17	15	21	88	48.0	-201426.0	2773.0	42506.0
13	17	15	21	89	49.0	-200955.0	2839.0	42553.0
13	17	15	21	90	50.0	-200607.0	2906.0	38253.0
13	17	15	21	90	51.0	-200132.0	2961.0	32521.0
13	17	15	21	91	52.0	-200003.0	2994.0	25456.0
13	17	15	21	91	53.0	-199589.0	3053.0	22183.0
13	17	15	21	92	54.0	-199051.0	3101.0	25310.0
13	17	15	21	93	55.0	-198697.0	3149.0	30314.0
13	17	15	21	93	56.0	-198459.0	3201.0	31127.0
13	17	15	21	94	57.0	-198255.0	3266.0	28946.0
13	17	15	21	94	58.0	-198052.0	3318.0	34969.0
13	17	15	21	95	59.0	-197769.0	3365.0	40664.0
13	17	15	21	95	60.0	-197459.0	3401.0	36663.0
13	17	15	21	96	61.0	-197086.0	3471.0	27564.0
13	17	15	21	96	62.0	-196600.0	3536.0	20456.0
13	17	15	21	97	63.0	-196227.0	3581.0	17344.0
13	17	15	21	97	64.0	-195725.0	3636.0	19277.0
13	17	15	21	98	65.0	-195053.0	3682.0	22760.0
13	17	15	21	112	66.0	-194298.0	3721.0	24368.0
13	17	15	21	113	67.0	-193647.0	3768.0	26474.0
13	17	15	21	113	68.0	-192761.0	3821.0	31082.0
13	17	15	21	114	69.0	-191712.0	3865.0	34001.0
13	17	15	21	115	70.0	-190085.0	3909.0	31373.0
13	17	15	21	115	71.0	-187581.0	3963.0	24748.0
13	17	15	21	116	72.0	-184459.0	4019.0	18521.0
13	17	15	21	116	73.0	-183556.0	4058.0	17046.0
13	17	15	21	117	74.0	-186597.0	4105.0	18457.0
13	17	15	21	118	75.0	-191584.0	4157.0	20163.0
13	17	15	21	118	76.0	-198452.0	4201.0	22944.0
13	17	15	21	119	77.0	-205154.0	4237.0	27166.0
13	17	15	21	119	78.0	-206654.0	4283.0	32953.0
13	17	15	21	120	79.0	-205651.0	4306.0	34301.0
13	17	15	21	121	80.0	-205094.0	4359.0	31636.0
13	17	15	21	121	81.0	-204336.0	4404.0	24644.0
13	17	15	21	143	82.0	-203327.0	4434.0	18811.0
13	17	15	21	144	83.0	-203384.0	4476.0	17165.0
13	17	15	21	144	84.0	-203938.0	4511.0	18999.0
13	17	15	21	145	85.0	-203876.0	4562.0	21798.0
13	17	15	21	146	86.0	-203304.0	4607.0	22271.0
13	17	15	21	146	87.0	-202692.0	4644.0	24101.0
13	17	15	21	147	88.0	-201827.0	4673.0	31183.0
13	17	15	21	147	89.0	-200687.0	4716.0	35174.0
13	17	15	21	148	90.0	-199962.0	4748.0	30663.0
13	17	15	21	149	91.0	-199600.0	4770.0	21508.0
13	17	15	21	149	92.0	-199066.0	4792.0	16702.0
13	17	15	21	150	93.0	-198568.0	4828.0	16400.0
13	17	15	21	150	94.0	-198032.0	4861.0	17073.0
13	17	15	21	151	95.0	-197541.0	4908.0	18336.0
13	17	15	21	159	96.0	-196957.0	4918.0	20250.0
13	17	15	21	159	97.0	-195914.0	4943.0	24588.0
13	17	15	21	160	98.0	-194725.0	4974.0	31331.0
13	17	15	21	160	99.0	-193437.0	5004.0	32555.0
13	17	15	21	187	100.0	-192341.0	5037.0	29564.0
13	17	15	21	188	101.0	-191650.0	5070.0	22081.0
13	17	15	21	189	102.0	-191197.0	5083.0	15988.0
13	17	15	21	190	103.0	-190784.0	5096.0	15719.0
13	17	15	21	190	104.0	-190732.0	5134.0	16636.0
13	17	15	21	191	105.0	-191780.0	5160.0	16559.0
13	17	15	21	191	106.0	-193458.0	5174.0	17071.0
13	17	15	21	192	107.0	-195047.0	5177.0	20779.0
13	17	15	21	206	108.0	-195609.0	5201.0	28009.0
13	17	15	21	207	109.0	-195216.0	5226.0	29518.0
13	17	15	21	207	110.0	-194667.0	5238.0	25696.0
13	17	15	21	208	111.0	-194153.0	5264.0	18614.0
13	17	15	21	208	112.0	-193909.0	5283.0	12948.0
13	17	15	21	209	113.0	-194139.0	5297.0	11548.0
13	17	15	21	210	114.0	-194906.0	5314.0	14195.0
13	17	15	21	210	115.0	-195728.0	5336.0	18002.0
13	17	15	21	211	116.0	-196518.0	5348.0	21518.0
13	17	15	21	212	117.0	-197106.0	5351.0	26813.0
13	17	15	21	212	118.0	-197507.0	5359.0	31462.0
13	17	15	21	213	119.0	-197747.0	5379.0	30990.0
13	17	15	21	213	120.0	-197997.0	5401.0	24979.0
13	17	15	21	214	121.0	-198629.0	5420.0	17776.0
13	17	15	21	214	122.0	-199305.0	5444.0	16077.0
13	17	15	21	215	123.0	-199956.0	5450.0	15668.0
13	17	15	21	215	124.0	-200566.0	5454.0	16656.0
13	17	15	21	216	125.0	-201217.0	5459.0	18676.0
13	17	15	21	217	126.0	-201826.0	5473.0	20809.0
13	17	15	21	217	127.0	-202351.0	5488.0	23188.0
13	17	15	21	218	128.0	-202801.0	5485.0	27513.0
13	17	15	21	218	129.0	-203313.0	5488.0	32311.0
13	17	15	21	294	130.0	-203721.0	5508.0	30338.0
13	17	15	21	295	131.0	-203989.0	5528.0	20149.0
13	17	15	21	296	132.0	-204339.0	5535.0	13526.0
13	17	15	21	296	133.0	-204516.0	5528.0	9513.0
13	17	15	21	298	134.0	-204342.0	5529.0	13659.0
13	17	15	21	299	135.0	-204104.0	5538.0	19408.0
13	17	15	21	300	136.0	-203854.0	5545.0	24116.0
13	17	15	21	301	137.0	-203610.0	5556.0	29740.0
13	17	15	21	301	138.0	-203230.0	5549.0	34664.0
13	17	15	21	302	139.0	-202663.0	5556.0	36450.0
13	17	15	21	302	140.0	-202159.0	5564.0	30561.0
13	17	15	21	303	141.0	-201974.0	5583.0	21793.0
13	17	15	21	304	142.0	-201825.0	5583.0	16516.0
13	17	15	21	304	143.0	-201649.0	5584.0	16475.0
13	17	15	21	305	144.0	-201425.0	5577.0	21938.0
13	17	15	21	305	167.0	-194137.0	5578.0	40658.0
13	17	15	21	306	168.0	-194341.0	5581.0	46116.0
13	17	15	21	307	169.0	-194490.0	5568.0	44885.0
13	17	15	21	308	170.0	-194511.0	5577.0	38204.0
13	17	15	21	368	171.0	-194541.0	5586.0	29756.0
13	17	15	21	369	172.0	-194626.0	5590.0	25296.0
13	17	15	21	369	173.0	-194729.0	5592.0	26496.0
13	17	15	21	370	174.0	-194727.0	5581.0	30808.0
13	17	15	21	371	175.0	-194819.0	5588.0	33338.0
13	17	15	21	371	176.0	-194772.0	5592.0	35336.0
13	17	15	21	372	177.0	-194560.0	5589.0	38719.0
13	17	15	21	372	178.0	-194452.0	5601.0	42857.0
13	17	15	21	374	179.0	-194311.0	5608.0	42794.0
13	17	15	21	375	180.0	-194094.0	5615.0	36729.0
13	17	15	21	376	181.0	-194289.0	5613.0	27011.0
13	17	15	21	377	182.0	-194383.0	5616.0	19998.0
13	17	15	21	377	183.0	-194407.0	5629.0	20556.0
13	17	15	21	378	184.0	-194574.0	5643.0	23889.0
13	17	15	21	378	185.0	-194874.0	5646.0	30779.0
13	17	15	21	379	204.0	-197179.0	5709.0	30465.0
13	17	15	21	379	205.0	-196889.0	5722.0	35079.0
13	17	15	21	380	206.0	-196906.0	5716.0	36563.0
13	17	15	21	381	207.0	-196976.0	5704.0	41528.0
13	17	15	21	444	208.0	-197113.0	5703.0	47181.0
13	17	15	21	445	209.0	-197221.0	5694.0	48203.0
13	17	15	21	445	210.0	-197323.0	5678.0	44824.0
13	17	15	21	446	211.0	-197435.0	5681.0	36944.0
13	17	15	21	446	212.0	-197667.0	5679.0	31145.0
13	17	15	21	447	213.0	-197554.0	5669.0	31017.0
13	17	15	21	448	214.0	-197496.0	5691.0	34486.0
