13	16	49	29	950	125.0	-201537.0	-1176.0	-113198.0
13	16	49	29	953	126.0	-203321.0	-1176.0	-113460.0
13	16	49	29	955	127.0	-203877.0	-1162.0	-113284.0
13	16	49	29	958	128.0	-202983.0	-1146.0	-113010.0
13	16	49	29	960	129.0	-201691.0	-1144.0	-112856.0
13	16	49	29	962	130.0	-199664.0	-1129.0	-112399.0
13	16	49	29	964	131.0	-196944.0	-1116.0	-112169.0
13	16	49	29	965	132.0	-194941.0	-1117.0	-112254.0
13	16	49	29	967	133.0	-193160.0	-1116.0	-112036.0
13	16	49	29	968	134.0	-191179.0	-1107.0	-111449.0
13	16	49	29	968	135.0	-188841.0	-1082.0	-111167.0
13	16	49	29	969	136.0	-186135.0	-1068.0	-111109.0
13	16	49	29	970	137.0	-182123.0	-1063.0	-110474.0
13	16	49	29	980	138.0	-177018.0	-1081.0	-110361.0
13	16	49	29	980	139.0	-170986.0	-1066.0	-110286.0
13	16	49	29	981	140.0	-164297.0	-1061.0	-110147.0
13	16	49	29	981	141.0	-157366.0	-1039.0	-109590.0
13	16	49	29	982	142.0	-151531.0	-1037.0	-108887.0
13	16	49	29	982	143.0	-146481.0	-1032.0	-108818.0
13	16	49	29	983	144.0	-142179.0	-1027.0	-108561.0
13	16	49	29	984	145.0	-138882.0	-1034.0	-108089.0
13	16	49	29	984	146.0	-135876.0	-1016.0	-107877.0
13	16	49	30	9	147.0	-133734.0	-1025.0	-107499.0
13	16	49	30	53	148.0	-133485.0	-1022.0	-107435.0
13	16	49	30	54	149.0	-134543.0	-1018.0	-106928.0
13	16	49	30	54	150.0	-136596.0	-1013.0	-106811.0
13	16	49	30	55	151.0	-139549.0	-997.0	-107197.0
13	16	49	30	56	152.0	-143813.0	-998.0	-106614.0
13	16	49	30	56	153.0	-149471.0	-982.0	-106099.0
13	16	49	30	57	154.0	-156309.0	-981.0	-106202.0
13	16	49	30	57	155.0	-163157.0	-982.0	-105572.0
13	16	49	30	58	156.0	-169445.0	-979.0	-105354.0
13	16	49	30	58	157.0	-175807.0	-981.0	-105070.0
13	16	49	30	59	158.0	-181687.0	-978.0	-104769.0
13	16	49	30	59	159.0	-187097.0	-965.0	-104379.0
13	16	49	30	60	160.0	-191636.0	-943.0	-104047.0
13	16	49	30	61	161.0	-195416.0	-937.0	-103812.0
13	16	49	30	61	162.0	-198431.0	-954.0	-103503.0
13	16	49	30	62	182.0	-253601.0	-884.0	-96064.0
13	16	49	30	62	183.0	-253700.0	-884.0	-95434.0
13	16	49	30	63	184.0	-253104.0	-877.0	-94799.0
13	16	49	30	63	185.0	-252186.0	-857.0	-93914.0
13	16	49	30	64	186.0	-250683.0	-873.0	-93113.0
13	16	49	30	64	187.0	-247610.0	-882.0	-92040.0
13	16	49	30	98	188.0	-243626.0	-877.0	-91519.0
13	16	49	30	99	189.0	-238607.0	-857.0	-90955.0
13	16	49	30	142	190.0	-233049.0	-847.0	-90082.0
13	16	49	30	143	191.0	-227147.0	-842.0	-89570.0
13	16	49	30	144	192.0	-220497.0	-851.0	-89322.0
13	16	49	30	144	193.0	-213310.0	-863.0	-88824.0
13	16	49	30	145	194.0	-205688.0	-852.0	-87890.0
13	16	49	30	145	195.0	-197354.0	-854.0	-87722.0
13	16	49	30	146	196.0	-188980.0	-861.0	-86926.0
13	16	49	30	146	197.0	-181196.0	-854.0	-85953.0
13	16	49	30	147	198.0	-174036.0	-870.0	-85483.0
13	16	49	30	147	199.0	-167851.0	-860.0	-85199.0
13	16	49	30	148	200.0	-162710.0	-839.0	-84227.0
13	16	49	30	188	201.0	-158906.0	-844.0	-83701.0
13	16	49	30	189	202.0	-156657.0	-847.0	-83532.0
13	16	49	30	189	204.0	-155762.0	-820.0	-81896.0
13	16	49	30	190	205.0	-156121.0	-828.0	-81699.0
13	16	49	30	191	206.0	-156944.0	-854.0	-81164.0
13	16	49	30	191	227.0	-221160.0	-819.0	-75309.0
13	16	49	30	192	228.0	-218996.0	-824.0	-75230.0
13	16	49	30	192	229.0	-215906.0	-832.0	-75252.0
13	16	49	30	193	230.0	-211510.0	-829.0	-75186.0
13	16	49	30	194	231.0	-207335.0	-824.0	-74933.0
13	16	49	30	194	232.0	-203822.0	-816.0	-74289.0
13	16	49	30	195	233.0	-200914.0	-827.0	-74267.0
13	16	49	30	195	234.0	-198348.0	-854.0	-74008.0
13	16	49	30	196	235.0	-195652.0	-836.0	-73568.0
13	16	49	30	197	236.0	-193203.0	-821.0	-73251.0
13	16	49	30	197	237.0	-191214.0	-822.0	-73002.0
13	16	49	30	198	249.0	-208332.0	-823.0	-73217.0
13	16	49	30	198	250.0	-209999.0	-827.0	-74026.0
13	16	49	30	199	251.0	-211459.0	-824.0	-74621.0
13	16	49	30	199	252.0	-212761.0	-814.0	-75999.0
13	16	49	30	200	253.0	-213654.0	-834.0	-76869.0
13	16	49	30	201	254.0	-214139.0	-849.0	-77737.0
13	16	49	30	201	255.0	-213842.0	-827.0	-78615.0
13	16	49	30	232	0.0	-212655.0	-839.0	-78875.0
13	16	49	30	233	1.0	-210546.0	-841.0	-78319.0
13	16	49	30	233	2.0	-207691.0	-874.0	-78123.0
13	16	49	30	234	3.0	-204937.0	-866.0	-76688.0
13	16	49	30	235	4.0	-203009.0	-843.0	-74681.0
13	16	49	30	235	5.0	-201698.0	-836.0	-72402.0
13	16	49	30	236	6.0	-200904.0	-832.0	-69295.0
13	16	49	30	236	7.0	-200826.0	-854.0	-66249.0
13	16	49	30	237	8.0	-200950.0	-845.0	-63616.0
13	16	49	30	238	9.0	-200899.0	-824.0	-61817.0
13	16	49	30	238	10.0	-200901.0	-849.0	-59944.0
13	16	49	30	239	11.0	-200607.0	-861.0	-56879.0
13	16	49	30	240	12.0	-200443.0	-872.0	-53706.0
13	16	49	30	240	13.0	-200769.0	-869.0	-47702.0
13	16	49	30	241	14.0	-201680.0	-848.0	-36935.0
13	16	49	30	241	15.0	-204091.0	-847.0	-29066.0
13	16	49	30	242	16.0	-207977.0	-852.0	-23002.0
13	16	49	30	242	17.0	-212507.0	-847.0	-18031.0
13	16	49	30	243	18.0	-217333.0	-856.0	-14627.0
13	16	49	30	243	19.0	-221176.0	-836.0	-11936.0
13	16	49	30	244	20.0	-223269.0	-857.0	-9779.0
13	16	49	30	245	21.0	-223647.0	-866.0	-8174.0
13	16	49	30	278	22.0	-222336.0	-852.0	-7174.0
13	16	49	30	279	23.0	-219587.0	-845.0	-5755.0
13	16	49	30	279	24.0	-215741.0	-868.0	-4862.0
13	16	49	30	280	25.0	-212209.0	-865.0	-4733.0
13	16	49	30	280	26.0	-209804.0	-863.0	-3941.0
13	16	49	30	281	27.0	-208439.0	-874.0	-2315.0
13	16	49	30	281	28.0	-208486.0	-866.0	-839.0
13	16	49	30	282	29.0	-210359.0	-869.0	958.0
13	16	49	30	283	30.0	-213444.0	-879.0	2854.0
13	16	49	30	283	31.0	-216119.0	-864.0	5307.0
13	16	49	30	322	32.0	-216739.0	-857.0	7506.0
13	16	49	30	323	33.0	-214761.0	-874.0	10124.0
13	16	49	30	323	34.0	-210240.0	-880.0	12453.0
13	16	49	30	324	35.0	-205129.0	-885.0	15264.0
13	16	49	30	324	36.0	-200288.0	-880.0	17508.0
13	16	49	30	325	38.0	-191066.0	-887.0	21711.0
13	16	49	30	326	39.0	-185971.0	-881.0	23669.0
13	16	49	30	326	40.0	-180749.0	-884.0	25867.0
13	16	49	30	327	41.0	-175316.0	-869.0	28056.0
13	16	49	30	328	42.0	-170367.0	-849.0	29947.0
13	16	49	30	329	43.0	-167159.0	-871.0	32011.0
13	16	49	30	329	44.0	-166874.0	-891.0	34457.0
13	16	49	30	330	45.0	-169624.0	-867.0	36476.0
13	16	49	30	331	46.0	-175073.0	-873.0	37996.0
13	16	49	30	331	47.0	-182872.0	-869.0	39551.0
13	16	49	30	332	60.0	-220814.0	-920.0	59941.0
13	16	49	30	332	61.0	-221282.0	-910.0	61361.0
13	16	49	30	333	62.0	-221507.0	-926.0	62904.0
13	16	49	30	333	63.0	-221365.0	-932.0	64125.0
13	16	49	30	334	64.0	-220761.0	-936.0	65707.0
13	16	49	30	335	65.0	-219919.0	-947.0	67438.0
13	16	49	30	335	66.0	-218490.0	-954.0	68706.0
13	16	49	30	413	67.0	-216604.0	-960.0	69506.0
13	16	49	30	414	68.0	-214903.0	-965.0	70862.0
13	16	49	30	414	69.0	-213589.0	-967.0	72129.0
13	16	49	30	415	70.0	-212719.0	-984.0	73366.0
13	16	49	30	416	71.0	-212318.0	-987.0	74714.0
13	16	49	30	416	72.0	-212294.0	-989.0	75707.0
13	16	49	30	417	73.0	-212486.0	-987.0	76809.0
13	16	49	30	417	74.0	-212256.0	-1002.0	78044.0
13	16	49	30	418	75.0	-211144.0	-1000.0	78925.0
13	16	49	30	419	76.0	-209452.0	-1004.0	80103.0
13	16	49	30	419	77.0	-206933.0	-1004.0	81028.0
13	16	49	30	420	78.0	-204385.0	-1007.0	81471.0
13	16	49	30	420	79.0	-201671.0	-1000.0	82414.0
13	16	49	30	421	80.0	-198539.0	-1011.0	83276.0
13	16	49	30	421	81.0	-195459.0	-1021.0	84089.0
13	16	49	30	422	83.0	-190722.0	-1017.0	85576.0
13	16	49	30	423	106.0	-173714.0	-1109.0	93206.0
13	16	49	30	423	107.0	-167945.0	-1107.0	92933.0
13	16	49	30	424	108.0	-162841.0	-1106.0	92914.0
13	16	49	30	424	109.0	-158804.0	-1101.0	93269.0
13	16	49	30	425	110.0	-156718.0	-1107.0	93438.0
13	16	49	30	425	111.0	-156889.0	-1109.0	93211.0
13	16	49	30	458	112.0	-158891.0	-1116.0	93121.0
13	16	49	30	459	113.0	-163252.0	-1107.0	93052.0
13	16	49	30	459	114.0	-170033.0	-1102.0	93304.0
13	16	49	30	460	115.0	-178011.0	-1125.0	93603.0
13	16	49	30	461	116.0	-186396.0	-1116.0	93312.0
13	16	49	30	461	117.0	-193946.0	-1134.0	93068.0
13	16	49	30	462	118.0	-199761.0	-1115.0	93158.0
13	16	49	30	462	119.0	-204779.0	-1101.0	93556.0
13	16	49	30	463	120.0	-209195.0	-1106.0	93563.0
13	16	49	30	463	121.0	-212383.0	-1117.0	93754.0
13	16	49	30	464	122.0	-214383.0	-1104.0	93659.0
13	16	49	30	465	123.0	-215089.0	-1106.0	93778.0
13	16	49	30	465	124.0	-214881.0	-1107.0	94183.0
13	16	49	30	466	125.0	-214084.0	-1101.0	94104.0
13	16	49	30	467	126.0	-212175.0	-1095.0	94439.0
13	16	49	30	467	128.0	-205126.0	-1087.0	94368.0
13	16	49	30	468	129.0	-201109.0	-1082.0	94455.0
13	16	49	30	468	130.0	-196867.0	-1079.0	94579.0
13	16	49	30	469	131.0	-192587.0	-1104.0	94858.0
13	16	49	30	469	132.0	-188623.0	-1097.0	94823.0
13	16	49	30	470	133.0	-185586.0	-1069.0	94571.0
13	16	49	30	502	134.0	-183599.0	-1047.0	95038.0
13	16	49	30	503	135.0	-182681.0	-1069.0	95870.0
13	16	49	30	504	136.0	-182356.0	-1057.0	95851.0
13	16	49	30	504	137.0	-182231.0	-1053.0	96580.0
13	16	49	30	505	138.0	-181885.0	-1052.0	97259.0
13	16	49	30	505	139.0	-181687.0	-1042.0	97585.0
13	16	49	30	506	140.0	-181338.0	-1020.0	97860.0
13	16	49	30	507	141.0	-180369.0	-1025.0	98379.0
13	16	49	30	507	142.0	-178093.0	-1014.0	98753.0
13	16	49	30	508	143.0	-174679.0	-997.0	99017.0
13	16	49	30	508	144.0	-170736.0	-977.0	99464.0
13	16	49	30	509	145.0	-166642.0	-969.0	99465.0
13	16	49	30	509	146.0	-162376.0	-994.0	99607.0
13	16	49	30	510	147.0	-157484.0	-971.0	100043.0
13	16	49	30	511	148.0	-152934.0	-961.0	100009.0
13	16	49	30	511	150.0	-144766.0	-953.0	101294.0
13	16	49	30	512	151.0	-140936.0	-932.0	101176.0
13	16	49	30	512	152.0	-136726.0	-917.0	101161.0
13	16	49	30	513	153.0	-132634.0	-892.0	101336.0
13	16	49	30	514	154.0	-128966.0	-899.0	101556.0
13	16	49	30	514	155.0	-126730.0	-890.0	101979.0
13	16	49	30	515	156.0	-126686.0	-890.0	102443.0
13	16	49	30	547	157.0	-128775.0	-899.0	102558.0
13	16	49	30	548	158.0	-132023.0	-867.0	102636.0
13	16	49	30	549	159.0	-137067.0	-837.0	102949.0
13	16	49	30	549	160.0	-142007.0	-842.0	103796.0
13	16	49	30	550	161.0	-147874.0	-827.0	104492.0
13	16	49	30	551	162.0	-157642.0	-823.0	104986.0
13	16	49	30	551	163.0	-168962.0	-821.0	105286.0
13	16	49	30	552	164.0	-179741.0	-798.0	105577.0
13	16	49	30	552	165.0	-188166.0	-798.0	106178.0
13	16	49	30	553	166.0	-196046.0	-791.0	106608.0
13	16	49	30	554	167.0	-204225.0	-796.0	106817.0
13	16	49	30	554	168.0	-212042.0	-771.0	106956.0
13	16	49	30	555	169.0	-218557.0	-754.0	107461.0
13	16	49	30	555	170.0	-223215.0	-758.0	107100.0
13	16	49	30	638	171.0	-226356.0	-751.0	107364.0
13	16	49	30	639	173.0	-228806.0	-732.0	107989.0
13	16	49	30	639	174.0	-229076.0	-731.0	107659.0
13	16	49	30	640	175.0	-228887.0	-724.0	107738.0
13	16	49	30	640	176.0	-227418.0	-712.0	107929.0
13	16	49	30	641	177.0	-225320.0	-707.0	107833.0
13	16	49	30	642	178.0	-223289.0	-689.0	107879.0
13	16	49	30	642	179.0	-221119.0	-700.0	107860.0
13	16	49	30	643	180.0	-219319.0	-716.0	107730.0
13	16	49	30	643	181.0	-217661.0	-703.0	107399.0
13	16	49	30	644	182.0	-216216.0	-697.0	107372.0
13	16	49	30	645	183.0	-214683.0	-699.0	107381.0
13	16	49	30	645	184.0	-213416.0	-679.0	107320.0
13	16	49	30	646	185.0	-213036.0	-677.0	106931.0
13	16	49	30	646	186.0	-214264.0	-684.0	106858.0
13	16	49	30	647	195.0	-235047.0	-642.0	105312.0
13	16	49	30	648	218.0	-236983.0	-622.0	103826.0
13	16	49	30	648	219.0	-236987.0	-621.0	104015.0
13	16	49	30	649	220.0	-237346.0	-617.0	104511.0
13	16	49	30	659	221.0	-238622.0	-632.0	104311.0
13	16	49	30	659	222.0	-239962.0	-649.0	104251.0
13	16	49	30	661	223.0	-240659.0	-662.0	104085.0
13	16	49	30	685	224.0	-240849.0	-657.0	103741.0
13	16	49	30	685	225.0	-241693.0	-665.0	103917.0
13	16	49	30	686	226.0	-242678.0	-671.0	104275.0
13	16	49	30	687	227.0	-243740.0	-672.0	104626.0
13	16	49	30	687	228.0	-244809.0	-674.0	105034.0
13	16	49	30	688	229.0	-245331.0	-682.0	105194.0
13	16	49	30	688	230.0	-245886.0	-677.0	105186.0
13	16	49	30	689	231.0	-245680.0	-682.0	105066.0
13	16	49	30	689	232.0	-244272.0	-702.0	105782.0
13	16	49	30	690	233.0	-241897.0	-700.0	105709.0
13	16	49	30	690	234.0	-238321.0	-695.0	105695.0
13	16	49	30	691	235.0	-233829.0	-701.0	106019.0
13	16	49	30	691	236.0	-229509.0	-696.0	105676.0
13	16	49	30	692	237.0	-225320.0	-729.0	105631.0
13	16	49	30	693	238.0	-221599.0	-708.0	106033.0
13	16	49	30	693	240.0	-214886.0	-702.0	105948.0
13	16	49	30	694	241.0	-212114.0	-716.0	106185.0
13	16	49	30	694	242.0	-209725.0	-729.0	106149.0
13	16	49	30	695	243.0	-206967.0	-726.0	106045.0
13	16	49	30	695	244.0	-203907.0	-730.0	106031.0
13	16	49	30	696	245.0	-201073.0	-724.0	105876.0
13	16	49	30	727	246.0	-198174.0	-730.0	105870.0
13	16	49	30	728	247.0	-195532.0	-752.0	105743.0
13	16	49	30	729	248.0	-194079.0	-754.0	105703.0
13	16	49	30	729	249.0	-193438.0	-758.0	105883.0
13	16	49	30	730	250.0	-193355.0	-767.0	105623.0
13	16	49	30	730	251.0	-193886.0	-786.0	105420.0
13	16	49	30	731	252.0	-194684.0	-776.0	105776.0
13	16	49	30	731	253.0	-195706.0	-785.0	105462.0
13	16	49	30	732	254.0	-196099.0	-779.0	105324.0
13	16	49	30	733	255.0	-195976.0	-782.0	105588.0
13	16	49	30	733	0.0	-195215.0	-780.0	105423.0
13	16	49	30	734	1.0	-194756.0	-792.0	105404.0
13	16	49	30	734	2.0	-194867.0	-779.0	105303.0
13	16	49	30	735	3.0	-195866.0	-791.0	105282.0
13	16	49	30	735	4.0	-197207.0	-809.0	105506.0
13	16	49	30	736	6.0	-201752.0	-831.0	105044.0
13	16	49	30	737	7.0	-204626.0	-841.0	105023.0
13	16	49	30	737	8.0	-207402.0	-857.0	104941.0
13	16	49	30	738	9.0	-209550.0	-861.0	104697.0
13	16	49	30	738	10.0	-211324.0	-879.0	104674.0
13	16	49	30	739	11.0	-213621.0	-863.0	104685.0
13	16	49	30	739	12.0	-216379.0	-849.0	104898.0
13	16	49	30	772	13.0	-218616.0	-881.0	104723.0
13	16	49	30	773	14.0	-220357.0	-893.0	104434.0
13	16	49	30	773	15.0	-220962.0	-908.0	104445.0
13	16	49	30	774	16.0	-220777.0	-883.0	104552.0
13	16	49	30	774	17.0	-219736.0	-888.0	104480.0
13	16	49	30	775	18.0	-217451.0	-905.0	104276.0
13	16	49	30	775	19.0	-214546.0	-929.0	104133.0
13	16	49	30	776	20.0	-211309.0	-917.0	104752.0
13	16	49	30	777	21.0	-206855.0	-930.0	104402.0
13	16	49	30	777	22.0	-201702.0	-921.0	104073.0
13	16	49	30	778	23.0	-196359.0	-920.0	103533.0
13	16	49	30	778	24.0	-191259.0	-916.0	103498.0
13	16	49	30	779	25.0	-187144.0	-928.0	103281.0
13	16	49	30	780	26.0	-184324.0	-936.0	103073.0
13	16	49	30	780	27.0	-183272.0	-949.0	103039.0
13	16	49	30	781	29.0	-186193.0	-945.0	102645.0
13	16	49	30	789	30.0	-189267.0	-941.0	102753.0
13	16	49	30	789	31.0	-193605.0	-925.0	102425.0
13	16	49	30	790	32.0	-198838.0	-940.0	102143.0
13	16	49	30	791	33.0	-204481.0	-950.0	102176.0
13	16	49	30	791	34.0	-210296.0	-975.0	101911.0
13	16	49	30	863	35.0	-215566.0	-969.0	102097.0
13	16	49	30	864	36.0	-220358.0	-991.0	102210.0
13	16	49	30	865	37.0	-225016.0	-1002.0	102444.0
13	16	49	30	865	38.0	-229381.0	-992.0	102914.0
13	16	49	30	866	39.0	-233923.0	-990.0	102984.0
13	16	49	30	866	40.0	-238779.0	-981.0	103355.0
13	16	49	30	867	41.0	-243464.0	-999.0	103288.0
13	16	49	30	868	42.0	-247708.0	-1020.0	103409.0
13	16	49	30	868	43.0	-251267.0	-1032.0	103578.0
13	16	49	30	869	44.0	-253949.0	-1045.0	103235.0
13	16	49	30	869	45.0	-255292.0	-1025.0	103392.0
13	16	49	30	870	46.0	-255379.0	-1022.0	103474.0
13	16	49	30	870	47.0	-254114.0	-1033.0	102792.0
13	16	49	30	871	48.0	-251460.0	-1027.0	102606.0
13	16	49	30	872	49.0	-247953.0	-1037.0	102964.0
13	16	49	30	872	51.0	-238418.0	-1044.0	103188.0
13	16	49	30	873	74.0	-169091.0	-1151.0	104216.0
13	16	49	30	873	75.0	-175066.0	-1189.0	104018.0
13	16	49	30	874	76.0	-180636.0	-1176.0	104162.0
13	16	49	30	874	77.0	-185511.0	-1191.0	104467.0
13	16	49	30	875	78.0	-190161.0	-1200.0	104377.0
13	16	49	30	876	79.0	-194724.0	-1225.0	104083.0
13	16	49	30	876	80.0	-199222.0	-1209.0	103835.0
13	16	49	30	908	81.0	-204046.0	-1209.0	104124.0
13	16	49	30	909	82.0	-208585.0	-1190.0	103973.0
13	16	49	30	910	83.0	-213033.0	-1217.0	103754.0
13	16	49	30	910	84.0	-216976.0	-1234.0	104136.0
13	16	49	30	911	85.0	-220457.0	-1242.0	104346.0
13	16	49	30	912	86.0	-223627.0	-1252.0	104483.0
13	16	49	30	912	87.0	-226209.0	-1244.0	104787.0
13	16	49	30	913	88.0	-227690.0	-1256.0	104185.0
13	16	49	30	913	89.0	-228210.0	-1249.0	103648.0
13	16	49	30	914	90.0	-228350.0	-1255.0	103889.0
13	16	49	30	915	91.0	-228032.0	-1264.0	104076.0
13	16	49	30	915	92.0	-227481.0	-1259.0	103718.0
13	16	49	30	916	93.0	-226456.0	-1282.0	103773.0
13	16	49	30	916	94.0	-224829.0	-1296.0	103581.0
13	16	49	30	917	95.0	-223129.0	-1297.0	103589.0
13	16	49	30	918	96.0	-221016.0	-1302.0	103515.0
13	16	49	30	918	97.0	-218684.0	-1307.0	103281.0
13	16	49	30	919	98.0	-216874.0	-1316.0	102908.0
13	16	49	30	919	99.0	-216063.0	-1307.0	102500.0
13	16	49	30	920	100.0	-215101.0	-1309.0	101862.0
13	16	49	30	920	101.0	-213952.0	-1337.0	101329.0
13	16	49	30	921	102.0	-212996.0	-1346.0	100462.0
13	16	49	30	953	103.0	-212015.0	-1345.0	99025.0
13	16	49	30	953	104.0	-210566.0	-1350.0	97701.0
13	16	49	30	954	105.0	-207731.0	-1349.0	96621.0
13	16	49	30	955	106.0	-204232.0	-1336.0	95187.0
13	16	49	30	955	107.0	-200401.0	-1358.0	93853.0
13	16	49	30	956	108.0	-196339.0	-1379.0	92732.0
13	16	49	30	956	109.0	-192595.0	-1391.0	91776.0
13	16	49	30	957	110.0	-189374.0	-1392.0	91334.0
13	16	49	30	958	111.0	-186667.0	-1386.0	91924.0
13	16	49	30	958	112.0	-184264.0	-1400.0	92712.0
13	16	49	30	959	113.0	-182169.0	-1406.0	94268.0
13	16	49	30	960	114.0	-180185.0	-1402.0	95114.0
13	16	49	30	961	115.0	-177906.0	-1410.0	97121.0
13	16	49	30	961	116.0	-175397.0	-1418.0	98270.0
13	16	49	30	962	117.0	-173073.0	-1429.0	99474.0
13	16	49	30	963	119.0	-170299.0	-1450.0	102865.0
13	16	49	30	963	120.0	-169849.0	-1443.0	105485.0
13	16	49	30	964	121.0	-169745.0	-1461.0	108549.0
13	16	49	30	965	122.0	-169794.0	-1469.0	111967.0
13	16	49	30	965	123.0	-170015.0	-1457.0	115002.0
13	16	49	30	966	124.0	-170033.0	-1447.0	116689.0
13	16	49	30	998	125.0	-170209.0	-1479.0	117951.0
13	16	49	30	999	126.0	-170433.0	-1501.0	118626.0
13	16	49	31	42	127.0	-170302.0	-1508.0	118388.0
13	16	49	31	43	128.0	-169874.0	-1500.0	117815.0
13	16	49	31	44	129.0	-168292.0	-1497.0	115878.0
13	16	49	31	45	130.0	-163749.0	-1511.0	113973.0
13	16	49	31	45	131.0	-156957.0	-1526.0	112335.0
13	16	49	31	46	132.0	-149336.0	-1536.0	110484.0
13	16	49	31	47	133.0	-141966.0	-1531.0	108393.0
13	16	49	31	47	134.0	-135812.0	-1547.0	106694.0
13	16	49	31	48	135.0	-130812.0	-1541.0	105089.0
13	16	49	31	48	136.0	-127622.0	-1563.0	103870.0
13	16	49	31	49	137.0	-126304.0	-1552.0	102896.0
13	16	49	31	50	138.0	-127057.0	-1568.0	101864.0
13	16	49	31	50	139.0	-129542.0	-1568.0	101223.0
13	16	49	31	51	141.0	-137474.0	-1571.0	100719.0
13	16	49	31	51	142.0	-143097.0	-1556.0	100142.0
13	16	49	31	52	143.0	-148296.0	-1576.0	99696.0
13	16	49	31	53	164.0	-135613.0	-1674.0	99617.0
13	16	49	31	53	165.0	-135261.0	-1694.0	99062.0
13	16	49	31	54	166.0	-136048.0	-1698.0	98925.0
13	16	49	31	55	167.0	-138347.0	-1697.0	98661.0
13	16	49	31	55	168.0	-142515.0	-1701.0	98624.0
13	16	49	31	56	169.0	-147532.0	-1694.0	98546.0
13	16	49	31	87	170.0	-152790.0	-1699.0	98459.0
13	16	49	31	133	171.0	-158254.0	-1704.0	98023.0
13	16	49	31	134	172.0	-162854.0	-1733.0	98028.0
13	16	49	31	134	173.0	-166085.0	-1732.0	98051.0
13	16	49	31	135	174.0	-168029.0	-1739.0	97778.0
13	16	49	31	136	175.0	-168852.0	-1740.0	97935.0
13	16	49	31	136	176.0	-168762.0	-1747.0	97470.0
13	16	49	31	137	177.0	-168289.0	-1745.0	96956.0
13	16	49	31	138	178.0	-167239.0	-1756.0	97016.0
13	16	49	31	138	179.0	-165915.0	-1761.0	97065.0
13	16	49	31	139	180.0	-164933.0	-1769.0	97315.0
13	16	49	31	139	181.0	-165025.0	-1781.0	97171.0
13	16	49	31	140	182.0	-166662.0	-1770.0	96851.0
13	16	49	31	141	183.0	-170761.0	-1762.0	96586.0
13	16	49	31	141	184.0	-176699.0	-1771.0	96693.0
13	16	49	31	142	186.0	-192916.0	-1772.0	96045.0
13	16	49	31	142	187.0	-202263.0	-1787.0	96169.0
13	16	49	31	143	209.0	-297207.0	-1906.0	91279.0
13	16	49	31	144	210.0	-291334.0	-1915.0	91141.0
13	16	49	31	144	211.0	-284972.0	-1894.0	90594.0
13	16	49	31	145	212.0	-278889.0	-1897.0	90139.0
13	16	49	31	145	213.0	-273267.0	-1919.0	89896.0
13	16	49	31	146	214.0	-266766.0	-1934.0	89598.0
13	16	49	31	178	215.0	-260087.0	-1933.0	89234.0
13	16	49	31	179	216.0	-253406.0	-1929.0	89096.0
13	16	49	31	180	217.0	-246470.0	-1929.0	88527.0
13	16	49	31	180	218.0	-239264.0	-1946.0	88126.0
13	16	49	31	181	219.0	-231474.0	-1957.0	88089.0
13	16	49	31	181	220.0	-223934.0	-1958.0	87678.0
13	16	49	31	182	221.0	-216249.0	-1957.0	87232.0
13	16	49	31	183	222.0	-208700.0	-1957.0	86843.0
13	16	49	31	183	223.0	-201960.0	-1949.0	86640.0
13	16	49	31	184	224.0	-196286.0	-1962.0	86031.0
13	16	49	31	185	225.0	-192160.0	-1969.0	85913.0
13	16	49	31	186	226.0	-190261.0	-1984.0	86172.0
13	16	49	31	187	227.0	-189606.0	-1979.0	85860.0
13	16	49	31	187	228.0	-189381.0	-1962.0	85073.0
13	16	49	31	188	229.0	-190734.0	-1982.0	85019.0
13	16	49	31	188	231.0	-197331.0	-1987.0	84578.0
13	16	49	31	189	232.0	-201123.0	-1968.0	84403.0
13	16	49	31	190	233.0	-205397.0	-1971.0	84762.0
13	16	49	31	190	234.0	-209999.0	-1959.0	84561.0
13	16	49	31	191	235.0	-214963.0	-1986.0	84761.0
13	16	49	31	191	236.0	-220117.0	-1990.0	84996.0
13	16	49	31	222	237.0	-224774.0	-1979.0	84710.0
13	16	49	31	223	238.0	-228940.0	-1979.0	84572.0
13	16	49	31	224	239.0	-232660.0	-1972.0	84843.0
13	16	49	31	224	240.0	-235443.0	-1963.0	85083.0
13	16	49	31	225	241.0	-237280.0	-1962.0	85281.0
13	16	49	31	226	242.0	-238891.0	-1956.0	85208.0
13	16	49	31	226	243.0	-239569.0	-1964.0	85042.0
13	16	49	31	227	244.0	-239407.0	-1960.0	84883.0
13	16	49	31	227	245.0	-238372.0	-1951.0	85392.0
13	16	49	31	228	246.0	-236642.0	-1954.0	86026.0
13	16	49	31	229	247.0	-234534.0	-1949.0	86354.0
13	16	49	31	229	248.0	-232323.0	-1924.0	86719.0
13	16	49	31	230	249.0	-230756.0	-1921.0	87149.0
13	16	49	31	230	250.0	-229634.0	-1927.0	87322.0
13	16	49	31	231	251.0	-228283.0	-1927.0	87254.0
13	16	49	31	232	254.0	-225985.0	-1894.0	87215.0
13	16	49	31	232	255.0	-225244.0	-1905.0	87689.0
13	16	49	31	233	0.0	-224036.0	-1896.0	88658.0
13	16	49	31	233	1.0	-222255.0	-1884.0	90265.0
13	16	49	31	234	2.0	-220062.0	-1868.0	92057.0
13	16	49	31	235	3.0	-217546.0	-1870.0	91968.0
13	16	49	31	266	4.0	-214619.0	-1854.0	92071.0
13	16	49	31	267	5.0	-210771.0	-1847.0	92239.0
13	16	49	31	268	6.0	-206583.0	-1842.0	91791.0
13	16	49	31	268	7.0	-202302.0	-1824.0	92005.0
13	16	49	31	269	8.0	-198374.0	-1824.0	92152.0
13	16	49	31	270	9.0	-195915.0	-1822.0	92779.0
13	16	49	31	270	10.0	-194066.0	-1828.0	93118.0
13	16	49	31	271	11.0	-192522.0	-1805.0	93884.0
13	16	49	31	272	12.0	-190999.0	-1797.0	94447.0
13	16	49	31	272	13.0	-189529.0	-1787.0	94371.0
13	16	49	31	273	14.0	-187609.0	-1772.0	94066.0
13	16	49	31	274	15.0	-183072.0	-1776.0	94190.0
13	16	49	31	274	16.0	-178529.0	-1751.0	94038.0
13	16	49	31	275	17.0	-175654.0	-1754.0	94201.0
13	16	49	31	275	18.0	-173901.0	-1742.0	94796.0
13	16	49	31	276	20.0	-168887.0	-1727.0	95293.0
13	16	49	31	284	21.0	-165556.0	-1725.0	95418.0
13	16	49	31	285	22.0	-162318.0	-1712.0	95667.0
13	16	49	31	286	23.0	-157670.0	-1717.0	95828.0
13	16	49	31	287	24.0	-153716.0	-1732.0	96241.0
13	16	49	31	287	25.0	-150183.0	-1730.0	96579.0
13	16	49	31	359	26.0	-147121.0	-1721.0	96426.0
13	16	49	31	359	27.0	-143387.0	-1705.0	96499.0
13	16	49	31	360	28.0	-139422.0	-1696.0	96578.0
13	16	49	31	361	29.0	-135857.0	-1679.0	96683.0
13	16	49	31	362	30.0	-132864.0	-1669.0	96759.0
13	16	49	31	362	31.0	-130581.0	-1675.0	96336.0
13	16	49	31	363	32.0	-128613.0	-1679.0	96268.0
13	16	49	31	363	33.0	-127415.0	-1659.0	97171.0
13	16	49	31	364	34.0	-126119.0	-1655.0	97091.0
13	16	49	31	365	35.0	-125451.0	-1665.0	96918.0
13	16	49	31	365	36.0	-124402.0	-1657.0	97203.0
13	16	49	31	366	37.0	-123999.0	-1633.0	97223.0
13	16	49	31	367	38.0	-123897.0	-1649.0	96642.0
13	16	49	31	367	39.0	-123829.0	-1633.0	97156.0
13	16	49	31	368	40.0	-123964.0	-1643.0	96993.0
13	16	49	31	368	42.0	-124879.0	-1621.0	96568.0
13	16	49	31	369	65.0	-195910.0	-1534.0	98029.0
13	16	49	31	370	66.0	-199039.0	-1536.0	98298.0
13	16	49	31	370	67.0	-201884.0	-1538.0	98347.0
13	16	49	31	371	68.0	-204337.0	-1551.0	98347.0
13	16	49	31	371	69.0	-206743.0	-1545.0	98445.0
13	16	49	31	372	70.0	-210073.0	-1540.0	98427.0
13	16	49	31	373	71.0	-214340.0	-1556.0	98489.0
13	16	49	31	403	72.0	-218822.0	-1554.0	98388.0
13	16	49	31	404	73.0	-223759.0	-1549.0	98380.0
13	16	49	31	406	74.0	-229607.0	-1540.0	98476.0
13	16	49	31	407	75.0	-235547.0	-1545.0	98590.0
13	16	49	31	407	76.0	-241864.0	-1527.0	98431.0
13	16	49	31	408	77.0	-248101.0	-1534.0	98804.0
13	16	49	31	409	78.0	-253317.0	-1539.0	99013.0
13	16	49	31	409	79.0	-258276.0	-1529.0	98568.0
13	16	49	31	410	80.0	-263074.0	-1502.0	98706.0
13	16	49	31	411	81.0	-267538.0	-1512.0	98936.0
13	16	49	31	411	82.0	-271623.0	-1499.0	98778.0
13	16	49	31	412	83.0	-275760.0	-1508.0	98763.0
13	16	49	31	412	84.0	-279274.0	-1521.0	98816.0
13	16	49	31	413	85.0	-280599.0	-1529.0	98763.0
13	16	49	31	414	86.0	-280471.0	-1517.0	99023.0
13	16	49	31	414	87.0	-278817.0	-1517.0	98908.0
13	16	49	31	415	88.0	-275219.0	-1501.0	98930.0
13	16	49	31	416	89.0	-271117.0	-1501.0	98875.0
13	16	49	31	416	90.0	-266001.0	-1522.0	99075.0
13	16	49	31	417	91.0	-259877.0	-1512.0	99273.0
13	16	49	31	417	92.0	-253472.0	-1509.0	99237.0
13	16	49	31	418	93.0	-247223.0	-1502.0	99059.0
13	16	49	31	448	94.0	-242154.0	-1519.0	99118.0
13	16	49	31	449	95.0	-238474.0	-1497.0	99029.0
13	16	49	31	450	96.0	-235621.0	-1494.0	99100.0
13	16	49	31	450	97.0	-234379.0	-1531.0	99559.0
13	16	49	31	451	98.0	-233511.0	-1522.0	99594.0
13	16	49	31	452	99.0	-233301.0	-1526.0	99842.0
13	16	49	31	452	100.0	-233137.0	-1519.0	99668.0
13	16	49	31	453	101.0	-232365.0	-1514.0	99369.0
13	16	49	31	454	102.0	-231516.0	-1517.0	99625.0
13	16	49	31	455	103.0	-229703.0	-1506.0	99563.0
13	16	49	31	455	104.0	-227025.0	-1507.0	99796.0
13	16	49	31	456	105.0	-224659.0	-1509.0	100206.0
13	16	49	31	457	106.0	-221631.0	-1497.0	100084.0
13	16	49	31	457	107.0	-219090.0	-1491.0	99784.0
13	16	49	31	458	108.0	-217574.0	-1505.0	99817.0
13	16	49	31	459	110.0	-213271.0	-1517.0	100094.0
13	16	49	31	459	111.0	-210953.0	-1504.0	99794.0
13	16	49	31	460	112.0	-208863.0	-1483.0	99943.0
13	16	49	31	460	113.0	-207299.0	-1501.0	99919.0
13	16	49	31	461	114.0	-205905.0	-1487.0	99720.0
13	16	49	31	462	115.0	-205037.0	-1490.0	100097.0
13	16	49	31	492	116.0	-204687.0	-1487.0	99958.0
13	16	49	31	493	117.0	-204411.0	-1497.0	99740.0
13	16	49	31	493	118.0	-204618.0	-1493.0	99994.0
13	16	49	31	494	119.0	-205212.0	-1512.0	99760.0
13	16	49	31	495	120.0	-206344.0	-1516.0	99653.0
13	16	49	31	495	121.0	-207899.0	-1499.0	99389.0
13	16	49	31	496	122.0	-209141.0	-1505.0	99338.0
13	16	49	31	497	123.0	-210481.0	-1516.0	99122.0
13	16	49	31	498	124.0	-212249.0	-1509.0	99388.0
13	16	49	31	499	125.0	-213252.0	-1500.0	99288.0
13	16	49	31	499	126.0	-214656.0	-1497.0	99074.0
13	16	49	31	500	127.0	-216222.0	-1506.0	99134.0
13	16	49	31	501	128.0	-217641.0	-1511.0	99090.0
13	16	49	31	501	129.0	-219766.0	-1490.0	98851.0
13	16	49	31	502	130.0	-222820.0	-1476.0	98918.0
13	16	49	31	502	132.0	-229548.0	-1486.0	98463.0
13	16	49	31	503	133.0	-232807.0	-1487.0	98592.0
13	16	49	31	504	134.0	-235609.0	-1486.0	98793.0
13	16	49	31	504	135.0	-237579.0	-1489.0	98323.0
13	16	49	31	505	136.0	-238730.0	-1496.0	97727.0
13	16	49	31	506	137.0	-238972.0	-1496.0	98245.0
13	16	49	31	506	138.0	-238697.0	-1499.0	97944.0
13	16	49	31	537	139.0	-238291.0	-1491.0	97452.0
13	16	49	31	584	140.0	-237651.0	-1507.0	97460.0
13	16	49	31	585	141.0	-236943.0	-1508.0	97410.0
13	16	49	31	586	142.0	-236001.0	-1495.0	97109.0
13	16	49	31	587	143.0	-235321.0	-1497.0	96919.0
13	16	49	31	588	144.0	-235116.0	-1513.0	97189.0
13	16	49	31	588	145.0	-235622.0	-1498.0	97252.0
13	16	49	31	589	146.0	-236586.0	-1487.0	97010.0
13	16	49	31	590	147.0	-237781.0	-1499.0	97118.0
13	16	49	31	590	148.0	-237476.0	-1496.0	96981.0
13	16	49	31	591	149.0	-235824.0	-1498.0	96814.0
13	16	49	31	592	150.0	-232492.0	-1499.0	97293.0
13	16	49	31	592	151.0	-227545.0	-1537.0	97599.0
13	16	49	31	593	152.0	-221241.0	-1544.0	97869.0
13	16	49	31	593	153.0	-214374.0	-1509.0	98396.0
13	16	49	31	594	155.0	-201775.0	-1499.0	98371.0
13	16	49	31	595	156.0	-196572.0	-1510.0	98025.0
13	16	49	31	595	178.0	-172014.0	-1546.0	99356.0
13	16	49	31	596	179.0	-174972.0	-1550.0	99401.0
13	16	49	31	596	180.0	-177724.0	-1539.0	99208.0
13	16	49	31	597	181.0	-180204.0	-1541.0	99580.0
13	16	49	31	597	182.0	-182512.0	-1557.0	99809.0
13	16	49	31	598	183.0	-184936.0	-1573.0	99720.0
13	16	49	31	628	184.0	-186481.0	-1577.0	99355.0
13	16	49	31	629	185.0	-188389.0	-1561.0	99374.0
13	16	49	31	630	186.0	-190842.0	-1547.0	99407.0
13	16	49	31	630	187.0	-193846.0	-1564.0	99425.0
13	16	49	31	631	188.0	-197018.0	-1574.0	99543.0
13	16	49	31	632	189.0	-200274.0	-1571.0	99501.0
13	16	49	31	632	190.0	-203546.0	-1582.0	99351.0
13	16	49	31	633	191.0	-206570.0	-1583.0	99395.0
13	16	49	31	633	192.0	-210183.0	-1579.0	99565.0
13	16	49	31	634	193.0	-214822.0	-1566.0	99555.0
13	16	49	31	635	194.0	-220087.0	-1565.0	99144.0
13	16	49	31	635	195.0	-224823.0	-1562.0	99321.0
13	16	49	31	636	196.0	-228098.0	-1569.0	99274.0
13	16	49	31	637	197.0	-230279.0	-1589.0	99089.0
13	16	49	31	637	198.0	-231961.0	-1600.0	98910.0
13	16	49	31	638	200.0	-233142.0	-1605.0	98953.0
13	16	49	31	639	201.0	-233302.0	-1587.0	99027.0
13	16	49	31	639	202.0	-233822.0	-1604.0	99178.0
13	16	49	31	640	203.0	-234384.0	-1601.0	99311.0
13	16	49	31	640	204.0	-235362.0	-1602.0	99091.0
13	16	49	31	641	205.0	-236612.0	-1604.0	99340.0
13	16	49	31	672	206.0	-237238.0	-1622.0	99424.0
13	16	49	31	672	207.0	-236739.0	-1622.0	99284.0
13	16	49	31	673	208.0	-235307.0	-1632.0	98622.0
13	16	49	31	674	209.0	-232961.0	-1637.0	98701.0
13	16	49	31	674	210.0	-230314.0	-1638.0	98580.0
13	16	49	31	675	211.0	-228219.0	-1654.0	98506.0
13	16	49	31	676	212.0	-227039.0	-1641.0	97903.0
13	16	49	31	676	213.0	-225986.0	-1643.0	97636.0
13	16	49	31	677	214.0	-225354.0	-1648.0	96935.0
13	16	49	31	677	215.0	-224867.0	-1644.0	95568.0
13	16	49	31	678	216.0	-224392.0	-1643.0	94932.0
13	16	49	31	679	217.0	-224155.0	-1636.0	93536.0
13	16	49	31	679	218.0	-223762.0	-1659.0	91819.0
13	16	49	31	680	219.0	-223075.0	-1675.0	90357.0
13	16	49	31	681	220.0	-222302.0	-1662.0	89443.0
13	16	49	31	681	222.0	-219295.0	-1664.0	87438.0
13	16	49	31	682	223.0	-217692.0	-1678.0	87964.0
13	16	49	31	683	224.0	-215446.0	-1695.0	88413.0
13	16	49	31	683	225.0	-212487.0	-1698.0	89448.0
13	16	49	31	684	226.0	-209329.0	-1714.0	90817.0
13	16	49	31	684	227.0	-205961.0	-1712.0	91931.0
13	16	49	31	685	228.0	-202487.0	-1713.0	93582.0
13	16	49	31	718	229.0	-199013.0	-1732.0	95330.0
13	16	49	31	719	230.0	-195386.0	-1742.0	96618.0
13	16	49	31	720	231.0	-191361.0	-1746.0	98108.0
13	16	49	31	721	232.0	-186766.0	-1738.0	99866.0
13	16	49	31	721	233.0	-182289.0	-1754.0	102885.0
13	16	49	31	722	234.0	-178076.0	-1766.0	106334.0
13	16	49	31	723	235.0	-174200.0	-1747.0	109603.0
13	16	49	31	723	236.0	-171175.0	-1751.0	112400.0
13	16	49	31	724	237.0	-170091.0	-1742.0	114240.0
13	16	49	31	725	238.0	-170600.0	-1757.0	115791.0
13	16	49	31	725	239.0	-172022.0	-1767.0	115979.0
13	16	49	31	726	240.0	-174397.0	-1760.0	115356.0
13	16	49	31	727	241.0	-177296.0	-1771.0	114409.0
13	16	49	31	727	242.0	-179349.0	-1792.0	112607.0
13	16	49	31	728	243.0	-180317.0	-1772.0	110488.0
13	16	49	31	728	245.0	-178451.0	-1768.0	107447.0
13	16	49	31	729	246.0	-177496.0	-1771.0	105506.0
13	16	49	31	730	247.0	-177309.0	-1772.0	103865.0
13	16	49	31	730	248.0	-177987.0	-1792.0	102844.0
13	16	49	31	731	249.0	-179949.0	-1799.0	101331.0
13	16	49	31	731	250.0	-182737.0	-1811.0	100004.0
13	16	49	31	762	251.0	-186298.0	-1808.0	99699.0
13	16	49	31	763	252.0	-190433.0	-1817.0	98837.0
13	16	49	31	764	253.0	-195123.0	-1809.0	98150.0
13	16	49	31	764	254.0	-200014.0	-1809.0	98187.0
13	16	49	31	765	255.0	-205112.0	-1807.0	97798.0
13	16	49	31	766	0.0	-208560.0	-1814.0	97566.0
13	16	49	31	766	1.0	-208409.0	-1828.0	97871.0
13	16	49	31	767	2.0	-204129.0	-1828.0	97647.0
13	16	49	31	768	3.0	-196021.0	-1836.0	97634.0
13	16	49	31	768	4.0	-187261.0	-1842.0	97359.0
13	16	49	31	769	5.0	-178451.0	-1834.0	97481.0
13	16	49	31	770	6.0	-169942.0	-1836.0	97567.0
13	16	49	31	770	7.0	-162934.0	-1849.0	97138.0
13	16	49	31	771	8.0	-157071.0	-1849.0	97321.0
13	16	49	31	772	9.0	-152349.0	-1839.0	97448.0
13	16	49	31	772	11.0	-148037.0	-1846.0	96931.0
13	16	49	31	773	12.0	-148253.0	-1841.0	96644.0
13	16	49	31	774	13.0	-149903.0	-1842.0	96596.0
13	16	49	31	774	14.0	-152724.0	-1861.0	96992.0
13	16	49	31	775	15.0	-155894.0	-1861.0	96741.0
13	16	49	31	776	16.0	-159490.0	-1870.0	96679.0
13	16	49	31	776	17.0	-163407.0	-1863.0	96818.0
13	16	49	31	807	18.0	-166722.0	-1884.0	96983.0
13	16	49	31	808	19.0	-169192.0	-1884.0	96493.0
13	16	49	31	809	20.0	-171128.0	-1884.0	96927.0
13	16	49	31	809	21.0	-173429.0	-1897.0	96943.0
13	16	49	31	899	22.0	-176532.0	-1898.0	96841.0
13	16	49	31	899	23.0	-180190.0	-1897.0	97296.0
13	16	49	31	901	24.0	-183969.0	-1896.0	97378.0
13	16	49	31	902	25.0	-187802.0	-1900.0	97043.0
13	16	49	31	903	26.0	-191674.0	-1901.0	97139.0
13	16	49	31	903	27.0	-195202.0	-1890.0	97036.0
13	16	49	31	904	28.0	-198009.0	-1894.0	96971.0
13	16	49	31	905	29.0	-200022.0	-1889.0	97085.0
13	16	49	31	906	30.0	-201830.0	-1914.0	97018.0
13	16	49	31	907	31.0	-203601.0	-1924.0	96881.0
13	16	49	31	908	32.0	-205098.0	-1926.0	96943.0
13	16	49	31	908	34.0	-206241.0	-1919.0	97013.0
13	16	49	31	909	35.0	-206374.0	-1919.0	96790.0
13	16	49	31	910	36.0	-206326.0	-1924.0	96716.0
13	16	49	31	910	37.0	-205851.0	-1917.0	96848.0
13	16	49	31	911	38.0	-204761.0	-1907.0	97029.0
13	16	49	31	911	79.0	-176689.0	-2040.0	89379.0
13	16	49	31	912	80.0	-174039.0	-2044.0	89444.0
13	16	49	31	913	81.0	-170974.0	-2036.0	89084.0
13	16	49	31	913	82.0	-167771.0	-2029.0	88875.0
13	16	49	31	914	83.0	-164284.0	-2031.0	88527.0
13	16	49	31	914	84.0	-160896.0	-2042.0	88536.0
13	16	49	31	943	85.0	-158682.0	-2036.0	88430.0
13	16	49	31	944	86.0	-157168.0	-2039.0	88494.0
13	16	49	31	945	87.0	-155944.0	-2041.0	88578.0
13	16	49	31	946	88.0	-156269.0	-2041.0	88158.0
13	16	49	31	946	89.0	-159031.0	-2035.0	88053.0
13	16	49	31	947	90.0	-164385.0	-2025.0	88214.0
13	16	49	31	948	91.0	-172106.0	-2012.0	87856.0
13	16	49	31	948	92.0	-182756.0	-2009.0	87712.0
13	16	49	31	949	93.0	-194533.0	-2002.0	88238.0
13	16	49	31	950	94.0	-206262.0	-1995.0	88241.0
13	16	49	31	950	95.0	-218031.0	-1976.0	88239.0
13	16	49	31	951	96.0	-228372.0	-1988.0	88353.0
13	16	49	31	952	97.0	-237600.0	-2003.0	88341.0
13	16	49	31	952	98.0	-244881.0	-1995.0	88336.0
13	16	49	31	953	99.0	-249949.0	-1974.0	88780.0
13	16	49	31	953	101.0	-253227.0	-1938.0	89089.0
13	16	49	31	954	102.0	-251779.0	-1947.0	89288.0
13	16	49	31	955	103.0	-248233.0	-1942.0	89327.0
13	16	49	31	955	104.0	-243419.0	-1921.0	89360.0
13	16	49	31	956	105.0	-237530.0	-1942.0	89744.0
13	16	49	31	956	106.0	-230764.0	-1926.0	89861.0
13	16	49	31	987	107.0	-223937.0	-1906.0	90026.0
13	16	49	31	988	108.0	-216857.0	-1905.0	90254.0
13	16	49	31	989	109.0	-209959.0	-1889.0	90713.0
13	16	49	31	989	110.0	-204086.0	-1872.0	91128.0
13	16	49	31	990	111.0	-199758.0	-1859.0	91705.0
13	16	49	31	991	112.0	-196206.0	-1869.0	92146.0
13	16	49	31	991	113.0	-193134.0	-1864.0	92239.0
13	16	49	31	992	114.0	-190036.0	-1837.0	92773.0
13	16	49	31	993	115.0	-186731.0	-1841.0	93176.0
13	16	49	31	993	116.0	-183324.0	-1837.0	93527.0
13	16	49	31	994	117.0	-179969.0	-1796.0	94162.0
13	16	49	31	995	118.0	-176991.0	-1789.0	94375.0
13	16	49	31	995	119.0	-175547.0	-1799.0	94438.0
13	16	49	31	996	120.0	-175474.0	-1792.0	94616.0
13	16	49	31	997	121.0	-176749.0	-1792.0	94969.0
13	16	49	31	997	123.0	-181482.0	-1748.0	95714.0
13	16	49	31	998	124.0	-183302.0	-1741.0	96078.0
13	16	49	31	999	125.0	-185508.0	-1731.0	96635.0
13	16	49	31	999	126.0	-186854.0	-1726.0	96791.0
13	16	49	32	0	127.0	-184512.0	-1740.0	97010.0
13	16	49	32	0	128.0	-183581.0	-1727.0	97235.0
13	16	49	32	1	129.0	-183482.0	-1702.0	97269.0
13	16	49	32	33	130.0	-183402.0	-1682.0	97606.0
13	16	49	32	34	131.0	-182356.0	-1675.0	97773.0
13	16	49	32	78	132.0	-180776.0	-1685.0	97689.0
13	16	49	32	79	133.0	-179582.0	-1681.0	97527.0
13	16	49	32	79	134.0	-177818.0	-1661.0	97732.0
13	16	49	32	80	135.0	-175289.0	-1665.0	97909.0
13	16	49	32	80	136.0	-172882.0	-1662.0	97614.0
13	16	49	32	81	137.0	-170394.0	-1656.0	98045.0
13	16	49	32	81	138.0	-167980.0	-1649.0	98178.0
13	16	49	32	82	139.0	-167056.0	-1624.0	97931.0
13	16	49	32	83	140.0	-167246.0	-1628.0	98036.0
13	16	49	32	83	141.0	-168792.0	-1607.0	98247.0
13	16	49	32	84	142.0	-170947.0	-1611.0	98404.0
13	16	49	32	84	143.0	-172712.0	-1619.0	98136.0
13	16	49	32	85	144.0	-174696.0	-1626.0	97947.0
13	16	49	32	85	146.0	-178122.0	-1586.0	98018.0
13	16	49	32	86	147.0	-179697.0	-1609.0	97937.0
13	16	49	32	86	148.0	-181670.0	-1588.0	97950.0
13	16	49	32	87	169.0	-225166.0	-1484.0	97775.0
13	16	49	32	88	170.0	-223346.0	-1469.0	97610.0
13	16	49	32	88	171.0	-222488.0	-1471.0	97136.0
13	16	49	32	89	172.0	-221758.0	-1490.0	97276.0
13	16	49	32	89	173.0	-220929.0	-1481.0	97610.0
13	16	49	32	90	174.0	-219808.0	-1476.0	97214.0
13	16	49	32	122	175.0	-218426.0	-1488.0	97239.0
13	16	49	32	123	176.0	-216893.0	-1480.0	97403.0
13	16	49	32	123	177.0	-214788.0	-1487.0	97435.0
13	16	49	32	124	178.0	-212563.0	-1487.0	97507.0
13	16	49	32	125	179.0	-209861.0	-1485.0	97633.0
13	16	49	32	125	180.0	-207264.0	-1498.0	97580.0
13	16	49	32	126	181.0	-205150.0	-1487.0	97651.0
13	16	49	32	127	182.0	-203744.0	-1492.0	97343.0
13	16	49	32	127	183.0	-201873.0	-1494.0	97206.0
13	16	49	32	128	184.0	-199639.0	-1495.0	97507.0
13	16	49	32	128	185.0	-197671.0	-1483.0	97499.0
13	16	49	32	129	186.0	-195639.0	-1471.0	97346.0
13	16	49	32	130	187.0	-193608.0	-1491.0	97825.0
13	16	49	32	130	188.0	-192251.0	-1487.0	97938.0
13	16	49	32	131	189.0	-191081.0	-1476.0	97648.0
13	16	49	32	131	191.0	-189708.0	-1463.0	97724.0
13	16	49	32	132	192.0	-189166.0	-1468.0	97401.0
13	16	49	32	132	193.0	-188271.0	-1470.0	97445.0
13	16	49	32	133	194.0	-187087.0	-1463.0	98049.0
13	16	49	32	134	195.0	-186077.0	-1466.0	97572.0
13	16	49	32	134	196.0	-185962.0	-1477.0	97768.0
13	16	49	32	166	197.0	-185582.0	-1480.0	97986.0
13	16	49	32	167	198.0	-184157.0	-1481.0	98151.0
13	16	49	32	167	199.0	-183126.0	-1469.0	98107.0
13	16	49	32	168	200.0	-182300.0	-1459.0	98064.0
13	16	49	32	169	201.0	-182293.0	-1462.0	98228.0
13	16	49	32	169	202.0	-183196.0	-1464.0	97830.0
13	16	49	32	170	203.0	-184211.0	-1459.0	97878.0
13	16	49	32	170	204.0	-186030.0	-1479.0	97867.0
13	16	49	32	171	205.0	-189170.0	-1482.0	97948.0
13	16	49	32	172	206.0	-192554.0	-1476.0	98463.0
13	16	49	32	172	207.0	-195756.0	-1492.0	98176.0
13	16	49	32	173	208.0	-198916.0	-1482.0	98329.0
13	16	49	32	174	209.0	-201731.0	-1472.0	98156.0
13	16	49	32	174	210.0	-203332.0	-1462.0	98055.0
13	16	49	32	175	211.0	-204648.0	-1471.0	98106.0
13	16	49	32	176	213.0	-204909.0	-1469.0	98066.0
13	16	49	32	176	214.0	-204193.0	-1492.0	97945.0
13	16	49	32	177	215.0	-202861.0	-1480.0	98068.0
13	16	49	32	178	216.0	-201172.0	-1476.0	98092.0
13	16	49	32	178	217.0	-199481.0	-1495.0	97890.0
13	16	49	32	179	218.0	-197640.0	-1507.0	97901.0
13	16	49	32	180	219.0	-195993.0	-1502.0	98128.0
13	16	49	32	212	220.0	-194452.0	-1494.0	98140.0
13	16	49	32	213	221.0	-193123.0	-1490.0	98554.0
13	16	49	32	214	222.0	-191866.0	-1479.0	98691.0
13	16	49	32	214	223.0	-190372.0	-1484.0	98658.0
13	16	49	32	215	224.0	-188261.0	-1501.0	98373.0
13	16	49	32	216	225.0	-185719.0	-1501.0	98521.0
13	16	49	32	216	226.0	-183537.0	-1499.0	98876.0
13	16	49	32	217	227.0	-181930.0	-1481.0	98620.0
13	16	49	32	217	228.0	-180676.0	-1481.0	98573.0
13	16	49	32	218	229.0	-179630.0	-1500.0	98506.0
13	16	49	32	219	230.0	-178444.0	-1509.0	98494.0
13	16	49	32	219	231.0	-176761.0	-1503.0	98227.0
13	16	49	32	220	232.0	-174989.0	-1496.0	98351.0
13	16	49	32	220	233.0	-173165.0	-1496.0	98425.0
13	16	49	32	221	234.0	-172113.0	-1480.0	98109.0
13	16	49	32	222	236.0	-172207.0	-1485.0	98220.0
13	16	49	32	223	237.0	-172460.0	-1507.0	98088.0
13	16	49	32	223	238.0	-172571.0	-1497.0	98419.0
13	16	49	32	224	239.0	-172875.0	-1499.0	98500.0
13	16	49	32	225	240.0	-173601.0	-1489.0	98295.0
13	16	49	32	225	241.0	-174641.0	-1492.0	97854.0
13	16	49	32	257	242.0	-175548.0	-1499.0	97993.0
13	16	49	32	257	243.0	-176571.0	-1484.0	97909.0
13	16	49	32	302	244.0	-177341.0	-1499.0	98210.0
13	16	49	32	303	245.0	-177839.0	-1482.0	98261.0
13	16	49	32	304	246.0	-178224.0	-1484.0	98058.0
13	16	49	32	304	247.0	-178731.0	-1478.0	97638.0
13	16	49	32	305	248.0	-179464.0	-1486.0	97596.0
13	16	49	32	306	249.0	-180333.0	-1467.0	97364.0
13	16	49	32	306	250.0	-181576.0	-1483.0	97232.0
13	16	49	32	307	251.0	-182973.0	-1490.0	96841.0
13	16	49	32	308	252.0	-184532.0	-1487.0	96556.0
13	16	49	32	309	253.0	-185454.0	-1471.0	96919.0
13	16	49	32	310	254.0	-185058.0	-1480.0	97043.0
13	16	49	32	311	255.0	-183651.0	-1476.0	96557.0
13	16	49	32	311	0.0	-182075.0	-1462.0	96344.0
13	16	49	32	312	2.0	-178574.0	-1474.0	96484.0
13	16	49	32	313	3.0	-176797.0	-1474.0	96181.0
13	16	49	32	314	4.0	-175406.0	-1466.0	96610.0
13	16	49	32	315	25.0	-251338.0	-1455.0	97703.0
13	16	49	32	315	26.0	-251491.0	-1467.0	98091.0
13	16	49	32	316	27.0	-251952.0	-1466.0	97948.0
13	16	49	32	316	28.0	-252793.0	-1451.0	98107.0
13	16	49	32	317	29.0	-252974.0	-1452.0	98533.0
13	16	49	32	317	30.0	-253217.0	-1471.0	98673.0
13	16	49	32	348	31.0	-253199.0	-1476.0	98508.0
13	16	49	32	348	32.0	-252581.0	-1471.0	98784.0
13	16	49	32	393	33.0	-251246.0	-1461.0	98863.0
13	16	49	32	393	34.0	-249642.0	-1477.0	98775.0
13	16	49	32	394	35.0	-247930.0	-1480.0	98690.0
13	16	49	32	395	36.0	-245827.0	-1485.0	99148.0
13	16	49	32	395	37.0	-243548.0	-1487.0	98939.0
13	16	49	32	396	38.0	-241943.0	-1486.0	99136.0
13	16	49	32	396	39.0	-241242.0	-1482.0	99438.0
13	16	49	32	397	40.0	-240286.0	-1481.0	99168.0
13	16	49	32	398	41.0	-239189.0	-1489.0	99359.0
13	16	49	32	398	42.0	-237426.0	-1494.0	99608.0
13	16	49	32	399	43.0	-235306.0	-1504.0	99688.0
13	16	49	32	399	44.0	-233053.0	-1508.0	99318.0
13	16	49	32	400	45.0	-230434.0	-1497.0	99332.0
13	16	49	32	401	47.0	-225448.0	-1495.0	99814.0
13	16	49	32	401	48.0	-223591.0	-1501.0	99459.0
13	16	49	32	402	49.0	-222334.0	-1504.0	99671.0
13	16	49	32	402	70.0	-262393.0	-1561.0	99834.0
13	16	49	32	403	71.0	-261223.0	-1566.0	99800.0
13	16	49	32	403	72.0	-258716.0	-1578.0	99274.0
13	16	49	32	404	73.0	-255479.0	-1559.0	98806.0
13	16	49	32	405	74.0	-251229.0	-1566.0	98699.0
13	16	49	32	405	75.0	-246044.0	-1580.0	98059.0
13	16	49	32	438	76.0	-240014.0	-1588.0	97211.0
13	16	49	32	439	77.0	-233719.0	-1586.0	96266.0
13	16	49	32	439	78.0	-227542.0	-1576.0	95208.0
13	16	49	32	440	79.0	-222119.0	-1584.0	93608.0
13	16	49	32	440	80.0	-217908.0	-1612.0	92301.0
13	16	49	32	441	81.0	-213880.0	-1606.0	91190.0
13	16	49	32	442	82.0	-210477.0	-1607.0	89684.0
13	16	49	32	443	83.0	-206560.0	-1609.0	88340.0
13	16	49	32	443	84.0	-201974.0	-1620.0	88349.0
13	16	49	32	444	85.0	-197643.0	-1627.0	88453.0
13	16	49	32	444	86.0	-192794.0	-1614.0	88808.0
13	16	49	32	445	87.0	-186813.0	-1616.0	90022.0
13	16	49	32	445	88.0	-179670.0	-1625.0	91268.0
13	16	49	32	446	89.0	-171266.0	-1627.0	92956.0
13	16	49	32	483	90.0	-162848.0	-1627.0	95015.0
13	16	49	32	484	92.0	-145142.0	-1646.0	97071.0
13	16	49	32	485	93.0	-137046.0	-1649.0	98639.0
13	16	49	32	485	94.0	-129301.0	-1631.0	100801.0
13	16	49	32	486	95.0	-122291.0	-1638.0	104276.0
13	16	49	32	487	96.0	-116331.0	-1674.0	107201.0
13	16	49	32	487	97.0	-111469.0	-1669.0	109963.0
13	16	49	32	488	98.0	-107761.0	-1643.0	112506.0
13	16	49	32	488	99.0	-105914.0	-1638.0	113876.0
13	16	49	32	489	100.0	-105832.0	-1662.0	114084.0
13	16	49	32	490	101.0	-108040.0	-1662.0	114478.0
13	16	49	32	490	102.0	-111375.0	-1648.0	114141.0
13	16	49	32	491	103.0	-115196.0	-1670.0	112145.0
13	16	49	32	491	104.0	-118344.0	-1677.0	110418.0
13	16	49	32	492	105.0	-121062.0	-1641.0	109314.0
13	16	49	32	528	114.0	-136241.0	-1659.0	98093.0
13	16	49	32	529	115.0	-142922.0	-1664.0	98196.0
13	16	49	32	530	116.0	-150067.0	-1669.0	98040.0
13	16	49	32	531	117.0	-156561.0	-1667.0	97978.0
13	16	49	32	531	118.0	-160476.0	-1680.0	97836.0
13	16	49	32	532	119.0	-160512.0	-1683.0	98198.0
13	16	49	32	533	120.0	-157604.0	-1682.0	97865.0
13	16	49	32	533	121.0	-153170.0	-1682.0	97621.0
13	16	49	32	534	122.0	-148466.0	-1667.0	97541.0
13	16	49	32	535	123.0	-144156.0	-1682.0	97326.0
13	16	49	32	535	124.0	-139538.0	-1684.0	97161.0
13	16	49	32	536	125.0	-135172.0	-1679.0	96887.0
13	16	49	32	537	126.0	-132439.0	-1677.0	96828.0
13	16	49	32	537	127.0	-130856.0	-1695.0	96805.0
13	16	49	32	538	128.0	-130342.0	-1709.0	96811.0
13	16	49	32	539	129.0	-131235.0	-1711.0	96592.0
13	16	49	32	539	137.0	-163246.0	-1724.0	96441.0
13	16	49	32	540	138.0	-169521.0	-1726.0	96189.0
13	16	49	32	540	139.0	-176522.0	-1733.0	95855.0
13	16	49	32	541	140.0	-184188.0	-1717.0	96093.0
13	16	49	32	541	141.0	-192183.0	-1746.0	96039.0
13	16	49	32	542	142.0	-200752.0	-1760.0	95983.0
13	16	49	32	543	143.0	-209973.0	-1753.0	95767.0
13	16	49	32	573	144.0	-218681.0	-1768.0	95326.0
13	16	49	32	574	145.0	-226860.0	-1758.0	94916.0
13	16	49	32	575	146.0	-234411.0	-1771.0	95110.0
13	16	49	32	575	147.0	-240803.0	-1774.0	95774.0
13	16	49	32	576	148.0	-246139.0	-1756.0	95476.0
13	16	49	32	577	149.0	-250551.0	-1756.0	95564.0
13	16	49	32	577	150.0	-253845.0	-1761.0	95041.0
13	16	49	32	578	151.0	-256166.0	-1776.0	95406.0
13	16	49	32	579	152.0	-257808.0	-1767.0	95401.0
13	16	49	32	579	153.0	-258882.0	-1769.0	95279.0
13	16	49	32	580	154.0	-259024.0	-1777.0	94698.0
13	16	49	32	580	155.0	-258130.0	-1804.0	94453.0
13	16	49	32	581	156.0	-257096.0	-1802.0	94782.0
13	16	49	32	582	157.0	-255876.0	-1807.0	94603.0
13	16	49	32	617	158.0	-254013.0	-1803.0	94781.0
13	16	49	32	618	159.0	-252200.0	-1796.0	95309.0
13	16	49	32	619	160.0	-250374.0	-1807.0	95420.0
13	16	49	32	619	161.0	-248504.0	-1796.0	95824.0
13	16	49	32	620	162.0	-247375.0	-1796.0	96053.0
13	16	49	32	620	163.0	-246647.0	-1813.0	96144.0
13	16	49	32	621	164.0	-246960.0	-1806.0	96146.0
13	16	49	32	622	165.0	-248541.0	-1810.0	96489.0
13	16	49	32	622	166.0	-250727.0	-1811.0	96438.0
13	16	49	32	623	167.0	-253149.0	-1806.0	96136.0
13	16	49	32	624	168.0	-256216.0	-1808.0	96393.0
13	16	49	32	624	169.0	-259551.0	-1824.0	96681.0
13	16	49	32	625	170.0	-263193.0	-1843.0	96513.0
13	16	49	32	625	171.0	-266038.0	-1854.0	96518.0
13	16	49	32	626	172.0	-266725.0	-1844.0	96572.0
13	16	49	32	627	182.0	-231889.0	-1872.0	95076.0
13	16	49	32	627	183.0	-225529.0	-1876.0	94601.0
13	16	49	32	628	184.0	-219653.0	-1877.0	94401.0
13	16	49	32	628	185.0	-214604.0	-1875.0	94197.0
13	16	49	32	629	186.0	-210292.0	-1876.0	94258.0
13	16	49	32	630	187.0	-206837.0	-1874.0	93621.0
13	16	49	32	663	188.0	-205084.0	-1902.0	93543.0
13	16	49	32	664	189.0	-204355.0	-1918.0	93353.0
13	16	49	32	665	190.0	-204108.0	-1918.0	93161.0
13	16	49	32	666	191.0	-204244.0	-1913.0	92849.0
13	16	49	32	666	192.0	-204682.0	-1904.0	92891.0
13	16	49	32	667	193.0	-205499.0	-1886.0	92298.0
13	16	49	32	668	194.0	-206061.0	-1887.0	92186.0
13	16	49	32	668	195.0	-206394.0	-1904.0	91686.0
13	16	49	32	669	196.0	-207214.0	-1906.0	91834.0
13	16	49	32	669	197.0	-208399.0	-1923.0	91539.0
13	16	49	32	670	198.0	-210604.0	-1915.0	91083.0
13	16	49	32	671	199.0	-214739.0	-1924.0	90964.0
13	16	49	32	671	200.0	-220331.0	-1910.0	90674.0
13	16	49	32	672	201.0	-226535.0	-1904.0	90872.0
13	16	49	32	673	202.0	-231893.0	-1901.0	90669.0
13	16	49	32	673	204.0	-240982.0	-1908.0	90614.0
13	16	49	32	674	205.0	-245592.0	-1895.0	90232.0
13	16	49	32	674	206.0	-249747.0	-1892.0	91016.0
13	16	49	32	675	207.0	-253140.0	-1913.0	91132.0
13	16	49	32	676	208.0	-255236.0	-1907.0	90629.0
13	16	49	32	676	209.0	-255624.0	-1878.0	90228.0
13	16	49	32	677	210.0	-254323.0	-1874.0	90457.0
13	16	49	32	707	211.0	-251327.0	-1876.0	90188.0
13	16	49	32	708	212.0	-247150.0	-1871.0	90276.0
13	16	49	32	709	213.0	-242304.0	-1864.0	90809.0
13	16	49	32	710	214.0	-237326.0	-1862.0	90946.0
13	16	49	32	711	215.0	-232132.0	-1851.0	91199.0
13	16	49	32	711	216.0	-226133.0	-1859.0	91409.0
13	16	49	32	712	217.0	-219647.0	-1860.0	91461.0
13	16	49	32	713	218.0	-213118.0	-1859.0	91721.0
13	16	49	32	713	219.0	-206816.0	-1841.0	92190.0
13	16	49	32	714	220.0	-200615.0	-1831.0	92334.0
13	16	49	32	714	221.0	-194793.0	-1823.0	92511.0
13	16	49	32	715	222.0	-189217.0	-1804.0	92768.0
13	16	49	32	715	223.0	-184264.0	-1783.0	92878.0
13	16	49	32	716	224.0	-180171.0	-1769.0	93056.0
13	16	49	32	717	225.0	-176698.0	-1767.0	93353.0
13	16	49	32	717	227.0	-172727.0	-1742.0	94149.0
13	16	49	32	718	228.0	-172381.0	-1736.0	94628.0
13	16	49	32	719	229.0	-173192.0	-1731.0	94916.0
13	16	49	32	720	230.0	-174515.0	-1707.0	95069.0
13	16	49	32	720	231.0	-176111.0	-1717.0	95388.0
13	16	49	32	721	232.0	-178289.0	-1699.0	95651.0
13	16	49	32	760	233.0	-180326.0	-1694.0	95910.0
13	16	49	32	761	234.0	-182206.0	-1685.0	96322.0
13	16	49	32	797	235.0	-183424.0	-1694.0	96473.0
13	16	49	32	798	236.0	-183393.0	-1679.0	96928.0
13	16	49	32	822	237.0	-181886.0	-1682.0	98139.0
13	16	49	32	823	238.0	-179316.0	-1667.0	98741.0
13	16	49	32	823	239.0	-176863.0	-1659.0	98752.0
13	16	49	32	824	240.0	-174612.0	-1639.0	99401.0
13	16	49	32	824	241.0	-172251.0	-1626.0	99428.0
13	16	49	32	825	242.0	-170774.0	-1612.0	99517.0
13	16	49	32	826	243.0	-168049.0	-1613.0	99760.0
13	16	49	32	826	244.0	-163361.0	-1607.0	100261.0
13	16	49	32	827	245.0	-162791.0	-1603.0	100424.0
13	16	49	32	827	246.0	-164967.0	-1585.0	100244.0
13	16	49	32	828	247.0	-168898.0	-1565.0	100295.0
13	16	49	32	828	249.0	-176269.0	-1564.0	100791.0
13	16	49	32	829	250.0	-181082.0	-1534.0	101089.0
13	16	49	32	830	251.0	-185608.0	-1507.0	101126.0
13	16	49	32	830	16.0	-168632.0	-1387.0	102170.0
13	16	49	32	831	17.0	-166616.0	-1383.0	102414.0
13	16	49	32	831	18.0	-165216.0	-1392.0	102013.0
13	16	49	32	832	19.0	-164339.0	-1388.0	102349.0
13	16	49	32	832	20.0	-163425.0	-1373.0	102478.0
13	16	49	32	833	21.0	-162219.0	-1379.0	102217.0
13	16	49	32	847	22.0	-160749.0	-1377.0	101886.0
13	16	49	32	847	23.0	-158951.0	-1378.0	102044.0
13	16	49	32	848	24.0	-157013.0	-1357.0	102517.0
13	16	49	32	849	25.0	-154534.0	-1361.0	102061.0
13	16	49	32	849	26.0	-151457.0	-1369.0	102528.0
13	16	49	32	850	27.0	-148012.0	-1355.0	102939.0
13	16	49	32	851	28.0	-144410.0	-1358.0	102983.0
13	16	49	32	851	29.0	-140881.0	-1361.0	102798.0
13	16	49	32	852	30.0	-137589.0	-1349.0	102864.0
13	16	49	32	852	31.0	-134844.0	-1353.0	102767.0
13	16	49	32	853	32.0	-133114.0	-1359.0	103189.0
13	16	49	32	854	33.0	-132676.0	-1359.0	103398.0
13	16	49	32	854	34.0	-133186.0	-1340.0	102938.0
13	16	49	32	855	35.0	-134361.0	-1338.0	102178.0
13	16	49	32	855	36.0	-136695.0	-1340.0	101941.0
13	16	49	32	856	38.0	-145392.0	-1331.0	102103.0
13	16	49	32	857	39.0	-151172.0	-1337.0	101923.0
13	16	49	32	857	40.0	-157135.0	-1343.0	101664.0
13	16	49	32	858	41.0	-162506.0	-1324.0	101648.0
13	16	49	32	858	42.0	-167188.0	-1326.0	101701.0
13	16	49	32	859	43.0	-171861.0	-1326.0	102030.0
13	16	49	32	859	44.0	-175989.0	-1310.0	102472.0
13	16	49	32	887	45.0	-179677.0	-1309.0	102905.0
13	16	49	32	888	46.0	-183562.0	-1308.0	102883.0
13	16	49	32	889	47.0	-186697.0	-1308.0	103391.0
13	16	49	32	889	48.0	-189046.0	-1312.0	103503.0
13	16	49	32	890	49.0	-190944.0	-1322.0	102854.0
13	16	49	32	891	50.0	-192287.0	-1312.0	102697.0
13	16	49	32	891	51.0	-192671.0	-1329.0	103242.0
13	16	49	32	893	52.0	-192442.0	-1317.0	103288.0
13	16	49	32	894	53.0	-192299.0	-1301.0	102797.0
13	16	49	32	894	54.0	-191720.0	-1306.0	102727.0
13	16	49	32	895	55.0	-190972.0	-1296.0	102757.0
13	16	49	32	896	56.0	-190389.0	-1303.0	102271.0
13	16	49	32	896	57.0	-188953.0	-1308.0	102439.0
13	16	49	32	897	58.0	-186531.0	-1299.0	102887.0
13	16	49	32	897	59.0	-184181.0	-1291.0	102681.0
13	16	49	32	898	61.0	-179612.0	-1268.0	102952.0
13	16	49	32	899	62.0	-177407.0	-1262.0	103208.0
13	16	49	32	899	63.0	-175137.0	-1274.0	103206.0
13	16	49	32	900	64.0	-172892.0	-1303.0	103384.0
13	16	49	32	900	65.0	-170576.0	-1313.0	103259.0
13	16	49	32	901	66.0	-169352.0	-1283.0	103120.0
13	16	49	32	932	67.0	-168225.0	-1286.0	102728.0
13	16	49	32	933	68.0	-167086.0	-1305.0	102778.0
13	16	49	32	934	69.0	-166771.0	-1286.0	102968.0
13	16	49	32	935	70.0	-167088.0	-1272.0	103594.0
13	16	49	32	935	71.0	-167027.0	-1274.0	104139.0
13	16	49	32	936	72.0	-167431.0	-1286.0	103732.0
13	16	49	32	936	73.0	-167800.0	-1287.0	103153.0
13	16	49	32	937	74.0	-167067.0	-1277.0	103091.0
13	16	49	32	938	75.0	-165149.0	-1287.0	103046.0
13	16	49	32	938	76.0	-162807.0	-1294.0	102717.0
13	16	49	32	939	77.0	-159741.0	-1269.0	102456.0
13	16	49	32	940	78.0	-156432.0	-1284.0	102363.0
13	16	49	32	940	79.0	-153143.0	-1272.0	102957.0
13	16	49	32	941	80.0	-151421.0	-1270.0	102773.0
13	16	49	32	941	81.0	-150372.0	-1286.0	102685.0
13	16	49	32	942	83.0	-153199.0	-1274.0	103531.0
13	16	49	32	943	84.0	-156517.0	-1281.0	103187.0
13	16	49	32	943	85.0	-160818.0	-1286.0	102701.0
13	16	49	32	944	86.0	-165442.0	-1279.0	102098.0
13	16	49	32	944	87.0	-169979.0	-1292.0	102174.0
13	16	49	32	945	88.0	-174902.0	-1277.0	102371.0
13	16	49	32	977	89.0	-179745.0	-1275.0	102694.0
13	16	49	32	978	90.0	-184046.0	-1279.0	102656.0
13	16	49	33	23	91.0	-187043.0	-1276.0	102659.0
13	16	49	33	24	92.0	-189630.0	-1286.0	102745.0
13	16	49	33	38	93.0	-192247.0	-1286.0	102937.0
13	16	49	33	38	94.0	-194357.0	-1280.0	103090.0
13	16	49	33	39	95.0	-195831.0	-1273.0	103394.0
13	16	49	33	40	96.0	-197763.0	-1278.0	103701.0
13	16	49	33	67	97.0	-200081.0	-1284.0	103556.0
13	16	49	33	67	98.0	-202803.0	-1286.0	103423.0
13	16	49	33	68	99.0	-206184.0	-1281.0	103444.0
13	16	49	33	69	100.0	-209346.0	-1270.0	103256.0
13	16	49	33	69	101.0	-213211.0	-1252.0	102862.0
13	16	49	33	70	102.0	-215798.0	-1254.0	102622.0
13	16	49	33	71	103.0	-217712.0	-1272.0	101950.0
13	16	49	33	72	105.0	-219859.0	-1252.0	101643.0
13	16	49	33	72	106.0	-221514.0	-1248.0	101531.0
13	16	49	33	73	107.0	-224001.0	-1246.0	101460.0
13	16	49	33	74	128.0	-224407.0	-1181.0	100157.0
13	16	49	33	75	129.0	-222422.0	-1187.0	100179.0
13	16	49	33	75	130.0	-220626.0	-1202.0	100312.0
13	16	49	33	76	131.0	-218854.0	-1212.0	99811.0
13	16	49	33	77	132.0	-216692.0	-1211.0	99603.0
13	16	49	33	78	133.0	-213209.0	-1202.0	100231.0
13	16	49	33	79	151.0	-256546.0	-1189.0	99644.0
13	16	49	33	79	152.0	-261451.0	-1197.0	99929.0
13	16	49	33	80	153.0	-265322.0	-1185.0	99976.0
13	16	49	33	81	154.0	-267328.0	-1189.0	99289.0
13	16	49	33	81	155.0	-268882.0	-1192.0	99510.0
13	16	49	33	89	156.0	-269784.0	-1186.0	99277.0
13	16	49	33	114	157.0	-269903.0	-1174.0	99073.0
13	16	49	33	115	158.0	-269479.0	-1175.0	99214.0
13	16	49	33	116	159.0	-268517.0	-1177.0	99325.0
13	16	49	33	116	160.0	-266431.0	-1181.0	99149.0
13	16	49	33	117	161.0	-263930.0	-1192.0	99144.0
13	16	49	33	118	162.0	-261548.0	-1192.0	99101.0
13	16	49	33	119	163.0	-259074.0	-1193.0	99254.0
13	16	49	33	119	164.0	-256474.0	-1187.0	98768.0
13	16	49	33	120	165.0	-254323.0	-1198.0	98899.0
13	16	49	33	121	166.0	-251754.0	-1195.0	98795.0
13	16	49	33	121	167.0	-249041.0	-1184.0	98544.0
13	16	49	33	122	168.0	-246142.0	-1167.0	98473.0
13	16	49	33	123	169.0	-242860.0	-1184.0	98305.0
13	16	49	33	123	170.0	-239126.0	-1191.0	98310.0
13	16	49	33	124	171.0	-234754.0	-1199.0	98525.0
13	16	49	33	125	173.0	-225621.0	-1216.0	98404.0
13	16	49	33	126	174.0	-220674.0	-1209.0	98623.0
13	16	49	33	126	175.0	-215049.0	-1202.0	98318.0
13	16	49	33	127	176.0	-209904.0	-1221.0	97991.0
13	16	49	33	128	177.0	-205407.0	-1223.0	97987.0
13	16	49	33	128	178.0	-201537.0	-1219.0	98086.0
13	16	49	33	158	179.0	-199182.0	-1191.0	97631.0
13	16	49	33	159	180.0	-198424.0	-1192.0	97727.0
13	16	49	33	159	181.0	-198544.0	-1216.0	98036.0
13	16	49	33	160	182.0	-198986.0	-1238.0	97456.0
13	16	49	33	161	183.0	-199403.0	-1228.0	97421.0
13	16	49	33	161	184.0	-200223.0	-1224.0	97282.0
13	16	49	33	162	185.0	-201252.0	-1232.0	96321.0
13	16	49	33	163	186.0	-202290.0	-1231.0	95612.0
13	16	49	33	163	187.0	-203932.0	-1217.0	95463.0
13	16	49	33	164	188.0	-206135.0	-1220.0	94887.0
13	16	49	33	202	189.0	-208604.0	-1226.0	94017.0
13	16	49	33	203	190.0	-211188.0	-1238.0	93429.0
13	16	49	33	204	191.0	-213757.0	-1226.0	91820.0
13	16	49	33	205	192.0	-215421.0	-1239.0	89797.0
13	16	49	33	205	193.0	-216194.0	-1239.0	88719.0
13	16	49	33	206	195.0	-215836.0	-1224.0	85695.0
13	16	49	33	207	196.0	-216232.0	-1242.0	85054.0
13	16	49	33	208	197.0	-217561.0	-1247.0	85253.0
13	16	49	33	208	198.0	-219189.0	-1265.0	85409.0
13	16	49	33	209	199.0	-220829.0	-1248.0	86293.0
13	16	49	33	210	200.0	-221585.0	-1262.0	87887.0
13	16	49	33	210	201.0	-222105.0	-1282.0	89204.0
13	16	49	33	211	202.0	-223153.0	-1284.0	90918.0
13	16	49	33	212	203.0	-223758.0	-1266.0	92454.0
13	16	49	33	212	204.0	-223585.0	-1287.0	93908.0
13	16	49	33	213	218.0	-189699.0	-1326.0	104854.0
13	16	49	33	214	219.0	-183506.0	-1334.0	103133.0
13	16	49	33	215	220.0	-176924.0	-1324.0	101123.0
13	16	49	33	215	221.0	-171469.0	-1344.0	99734.0
13	16	49	33	216	222.0	-168007.0	-1347.0	98523.0
13	16	49	33	216	223.0	-166732.0	-1327.0	97403.0
13	16	49	33	247	224.0	-168147.0	-1327.0	96183.0
13	16	49	33	248	225.0	-172721.0	-1357.0	95668.0
13	16	49	33	292	226.0	-179344.0	-1351.0	94683.0
13	16	49	33	293	227.0	-187857.0	-1342.0	94069.0
13	16	49	33	294	228.0	-197336.0	-1344.0	94083.0
13	16	49	33	295	229.0	-206539.0	-1347.0	93676.0
13	16	49	33	295	230.0	-212633.0	-1349.0	93484.0
13	16	49	33	296	231.0	-215046.0	-1366.0	93539.0
13	16	49	33	296	232.0	-214374.0	-1366.0	93718.0
13	16	49	33	297	233.0	-211830.0	-1367.0	93653.0
13	16	49	33	298	234.0	-209056.0	-1369.0	93373.0
13	16	49	33	298	235.0	-206874.0	-1382.0	93281.0
13	16	49	33	299	236.0	-205324.0	-1376.0	93003.0
13	16	49	33	300	237.0	-204756.0	-1379.0	92828.0
13	16	49	33	300	238.0	-205206.0	-1376.0	92807.0
13	16	49	33	301	240.0	-208624.0	-1376.0	92955.0
13	16	49	33	302	241.0	-211400.0	-1387.0	92882.0
13	16	49	33	303	242.0	-214153.0	-1397.0	92545.0
13	16	49	33	304	7.0	-259868.0	-1441.0	92146.0
13	16	49	33	305	8.0	-260062.0	-1458.0	92255.0
13	16	49	33	306	9.0	-258704.0	-1467.0	91915.0
13	16	49	33	307	10.0	-256529.0	-1473.0	92134.0
13	16	49	33	307	11.0	-253407.0	-1477.0	92067.0
13	16	49	33	308	12.0	-248814.0	-1479.0	91981.0
13	16	49	33	337	13.0	-243072.0	-1487.0	92281.0
13	16	49	33	337	14.0	-236171.0	-1493.0	91984.0
13	16	49	33	338	15.0	-228544.0	-1501.0	92230.0
13	16	49	33	339	16.0	-221355.0	-1502.0	92091.0
13	16	49	33	340	17.0	-214924.0	-1516.0	92096.0
13	16	49	33	340	18.0	-208772.0	-1517.0	92128.0
13	16	49	33	341	19.0	-202435.0	-1529.0	92204.0
13	16	49	33	341	20.0	-195518.0	-1536.0	91772.0
13	16	49	33	342	21.0	-188768.0	-1521.0	91564.0
13	16	49	33	343	22.0	-182158.0	-1531.0	91998.0
13	16	49	33	343	23.0	-176071.0	-1532.0	91738.0
13	16	49	33	344	24.0	-171754.0	-1524.0	91384.0
13	16	49	33	345	25.0	-168472.0	-1534.0	91746.0
13	16	49	33	345	26.0	-166132.0	-1550.0	91486.0
13	16	49	33	346	27.0	-165440.0	-1565.0	90988.0
13	16	49	33	347	29.0	-167041.0	-1564.0	91096.0
13	16	49	33	347	30.0	-169052.0	-1574.0	90961.0
13	16	49	33	348	31.0	-171407.0	-1589.0	90683.0
13	16	49	33	348	32.0	-174095.0	-1583.0	90964.0
13	16	49	33	349	33.0	-176671.0	-1573.0	90510.0
13	16	49	33	350	34.0	-179029.0	-1588.0	90194.0
13	16	49	33	350	35.0	-181264.0	-1595.0	90063.0
13	16	49	33	382	36.0	-183764.0	-1593.0	90147.0
13	16	49	33	384	37.0	-186126.0	-1612.0	89751.0
13	16	49	33	385	38.0	-188467.0	-1614.0	89416.0
13	16	49	33	385	39.0	-191018.0	-1599.0	89182.0
13	16	49	33	386	40.0	-193228.0	-1611.0	88910.0
13	16	49	33	387	41.0	-194386.0	-1606.0	88904.0
13	16	49	33	387	42.0	-194979.0	-1620.0	88617.0
13	16	49	33	388	43.0	-195069.0	-1633.0	88221.0
13	16	49	33	389	44.0	-194977.0	-1644.0	87951.0
13	16	49	33	389	45.0	-194444.0	-1633.0	87564.0
13	16	49	33	390	46.0	-193572.0	-1634.0	86979.0
13	16	49	33	391	47.0	-192423.0	-1637.0	86956.0
13	16	49	33	391	48.0	-190995.0	-1647.0	86888.0
13	16	49	33	392	49.0	-189129.0	-1642.0	86552.0
13	16	49	33	392	50.0	-187283.0	-1634.0	86602.0
13	16	49	33	393	52.0	-182165.0	-1648.0	85803.0
13	16	49	33	394	53.0	-178591.0	-1641.0	85791.0
13	16	49	33	394	54.0	-174601.0	-1644.0	85896.0
13	16	49	33	395	55.0	-170129.0	-1659.0	85321.0
13	16	49	33	395	56.0	-165053.0	-1669.0	85008.0
13	16	49	33	396	57.0	-159298.0	-1647.0	85161.0
13	16	49	33	428	58.0	-153716.0	-1667.0	85129.0
13	16	49	33	428	59.0	-148036.0	-1671.0	84507.0
13	16	49	33	429	60.0	-143178.0	-1673.0	84893.0
13	16	49	33	429	61.0	-138971.0	-1664.0	85154.0
13	16	49	33	430	62.0	-135143.0	-1657.0	84704.0
13	16	49	33	430	63.0	-131746.0	-1669.0	84772.0
13	16	49	33	431	64.0	-128502.0	-1664.0	84946.0
13	16	49	33	432	65.0	-125932.0	-1669.0	84665.0
13	16	49	33	432	66.0	-124345.0	-1654.0	84796.0
13	16	49	33	433	67.0	-123696.0	-1631.0	84881.0
13	16	49	33	433	68.0	-123769.0	-1628.0	84793.0
13	16	49	33	434	69.0	-125017.0	-1639.0	84628.0
13	16	49	33	434	70.0	-127217.0	-1630.0	84969.0
13	16	49	33	435	71.0	-130012.0	-1622.0	85286.0
13	16	49	33	436	72.0	-133261.0	-1619.0	85276.0
13	16	49	33	436	74.0	-142731.0	-1605.0	85896.0
13	16	49	33	437	75.0	-148329.0	-1611.0	85329.0
13	16	49	33	437	76.0	-153729.0	-1617.0	85551.0
13	16	49	33	438	77.0	-159727.0	-1600.0	86083.0
13	16	49	33	438	78.0	-165694.0	-1597.0	86326.0
13	16	49	33	439	79.0	-171556.0	-1587.0	86601.0
13	16	49	33	518	80.0	-177014.0	-1582.0	86709.0
13	16	49	33	519	81.0	-180858.0	-1587.0	86847.0
13	16	49	33	519	82.0	-183931.0	-1584.0	87150.0
13	16	49	33	520	83.0	-185802.0	-1571.0	87618.0
13	16	49	33	520	84.0	-186647.0	-1572.0	87894.0
13	16	49	33	521	85.0	-186794.0	-1567.0	88603.0
13	16	49	33	522	86.0	-185565.0	-1560.0	89133.0
13	16	49	33	522	87.0	-183989.0	-1561.0	89177.0
13	16	49	33	523	88.0	-183174.0	-1550.0	89314.0
13	16	49	33	523	89.0	-182525.0	-1543.0	89685.0
13	16	49	33	524	90.0	-182160.0	-1541.0	90159.0
13	16	49	33	524	91.0	-181699.0	-1554.0	90581.0
13	16	49	33	525	92.0	-180562.0	-1522.0	91070.0
13	16	49	33	526	93.0	-179314.0	-1517.0	91067.0
13	16	49	33	526	94.0	-178891.0	-1499.0	91520.0
13	16	49	33	527	97.0	-179437.0	-1477.0	92186.0
13	16	49	33	527	119.0	-195696.0	-1341.0	94965.0
13	16	49	33	528	120.0	-198299.0	-1341.0	94749.0
13	16	49	33	528	121.0	-201201.0	-1346.0	94728.0
13	16	49	33	529	122.0	-203709.0	-1339.0	94774.0
13	16	49	33	530	123.0	-206819.0	-1337.0	94746.0
13	16	49	33	530	124.0	-210784.0	-1332.0	94921.0
13	16	49	33	531	125.0	-214196.0	-1338.0	94823.0
13	16	49	33	563	126.0	-216331.0	-1325.0	94766.0
13	16	49	33	583	127.0	-218275.0	-1323.0	95118.0
13	16	49	33	584	128.0	-219835.0	-1329.0	94873.0
13	16	49	33	585	129.0	-220644.0	-1338.0	94803.0
13	16	49	33	585	130.0	-221159.0	-1325.0	94885.0
13	16	49	33	586	131.0	-222137.0	-1331.0	94818.0
13	16	49	33	587	132.0	-223464.0	-1333.0	94597.0
13	16	49	33	587	133.0	-225151.0	-1308.0	94812.0
13	16	49	33	588	134.0	-226731.0	-1294.0	95350.0
13	16	49	33	588	135.0	-227931.0	-1292.0	94913.0
13	16	49	33	589	136.0	-229712.0	-1317.0	95047.0
13	16	49	33	589	137.0	-231614.0	-1315.0	95403.0
13	16	49	33	590	138.0	-233709.0	-1311.0	95059.0
13	16	49	33	590	139.0	-235124.0	-1312.0	95253.0
13	16	49	33	591	140.0	-236639.0	-1318.0	95496.0
13	16	49	33	591	141.0	-237412.0	-1314.0	95214.0
13	16	49	33	592	142.0	-236854.0	-1314.0	94923.0
13	16	49	33	592	143.0	-236686.0	-1307.0	95059.0
13	16	49	33	593	144.0	-236840.0	-1324.0	95169.0
13	16	49	33	593	145.0	-237017.0	-1338.0	95226.0
13	16	49	33	594	146.0	-236654.0	-1338.0	95108.0
13	16	49	33	595	147.0	-236787.0	-1314.0	95153.0
13	16	49	33	608	148.0	-237224.0	-1321.0	95146.0
13	16	49	33	608	149.0	-237169.0	-1341.0	95307.0
13	16	49	33	609	150.0	-236587.0	-1334.0	94972.0
13	16	49	33	610	151.0	-235510.0	-1328.0	95155.0
13	16	49	33	611	152.0	-234012.0	-1297.0	95099.0
13	16	49	33	611	153.0	-231924.0	-1310.0	95006.0
13	16	49	33	612	154.0	-230839.0	-1332.0	95464.0
13	16	49	33	612	155.0	-229717.0	-1331.0	95990.0
13	16	49	33	613	156.0	-228392.0	-1332.0	96072.0
13	16	49	33	614	157.0	-226973.0	-1328.0	95614.0
13	16	49	33	614	158.0	-225214.0	-1323.0	95949.0
13	16	49	33	615	159.0	-222783.0	-1339.0	95851.0
13	16	49	33	616	160.0	-220228.0	-1330.0	95873.0
13	16	49	33	616	161.0	-217202.0	-1317.0	96166.0
13	16	49	33	617	162.0	-213475.0	-1329.0	96402.0
13	16	49	33	617	164.0	-205493.0	-1318.0	96223.0
13	16	49	33	618	165.0	-202186.0	-1339.0	96969.0
13	16	49	33	618	166.0	-198833.0	-1336.0	96767.0
13	16	49	33	619	167.0	-195389.0	-1332.0	96523.0
13	16	49	33	620	168.0	-192495.0	-1341.0	97088.0
13	16	49	33	620	169.0	-189625.0	-1341.0	97154.0
13	16	49	33	651	170.0	-186744.0	-1337.0	96824.0
13	16	49	33	665	171.0	-184157.0	-1342.0	96569.0
13	16	49	33	666	172.0	-183674.0	-1347.0	96941.0
13	16	49	33	667	173.0	-184531.0	-1342.0	96861.0
13	16	49	33	667	174.0	-185691.0	-1347.0	96858.0
13	16	49	33	668	175.0	-186137.0	-1357.0	97078.0
13	16	49	33	668	176.0	-185244.0	-1349.0	96933.0
13	16	49	33	669	177.0	-183004.0	-1353.0	96983.0
13	16	49	33	669	178.0	-180610.0	-1345.0	96837.0
13	16	49	33	670	179.0	-176956.0	-1345.0	96668.0
13	16	49	33	670	180.0	-171694.0	-1355.0	96464.0
13	16	49	33	671	181.0	-165995.0	-1356.0	96523.0
13	16	49	33	671	182.0	-160103.0	-1352.0	97038.0
13	16	49	33	672	183.0	-156145.0	-1341.0	97141.0
13	16	49	33	672	184.0	-153279.0	-1341.0	96778.0
13	16	49	33	673	186.0	-153236.0	-1351.0	97268.0
13	16	49	33	674	187.0	-155745.0	-1363.0	97157.0
13	16	49	33	674	188.0	-159502.0	-1355.0	97048.0
13	16	49	33	675	189.0	-164216.0	-1340.0	97139.0
13	16	49	33	675	190.0	-168881.0	-1333.0	96919.0
13	16	49	33	676	191.0	-172927.0	-1343.0	97051.0
13	16	49	33	676	192.0	-176042.0	-1339.0	97159.0
13	16	49	33	743	193.0	-179091.0	-1321.0	97028.0
13	16	49	33	744	194.0	-181349.0	-1348.0	96976.0
13	16	49	33	744	195.0	-183922.0	-1350.0	96947.0
13	16	49	33	745	196.0	-187131.0	-1350.0	97270.0
13	16	49	33	746	197.0	-190015.0	-1334.0	97101.0
13	16	49	33	746	198.0	-192357.0	-1331.0	97178.0
13	16	49	33	747	199.0	-195112.0	-1346.0	97309.0
13	16	49	33	748	200.0	-197922.0	-1347.0	97208.0
13	16	49	33	748	201.0	-200094.0	-1336.0	96892.0
13	16	49	33	749	202.0	-201217.0	-1341.0	97186.0
13	16	49	33	749	203.0	-201262.0	-1350.0	97036.0
13	16	49	33	750	204.0	-200330.0	-1351.0	96937.0
13	16	49	33	750	205.0	-197689.0	-1342.0	97119.0
13	16	49	33	751	206.0	-193784.0	-1349.0	96837.0
13	16	49	33	751	207.0	-189330.0	-1355.0	96716.0
13	16	49	33	752	231.0	-197462.0	-1289.0	93776.0
13	16	49	33	753	232.0	-198668.0	-1284.0	93460.0
13	16	49	33	753	233.0	-199641.0	-1269.0	93327.0
13	16	49	33	754	234.0	-201022.0	-1281.0	93710.0
13	16	49	33	754	235.0	-203624.0	-1313.0	93921.0
13	16	49	33	755	236.0	-207752.0	-1312.0	93554.0
13	16	49	33	756	237.0	-213109.0	-1274.0	93692.0
13	16	49	33	788	238.0	-218526.0	-1272.0	93811.0
13	16	49	33	789	239.0	-222376.0	-1297.0	93544.0
13	16	49	33	790	240.0	-224261.0	-1309.0	93473.0
13	16	49	33	791	241.0	-224166.0	-1303.0	93373.0
13	16	49	33	791	242.0	-222641.0	-1297.0	93525.0
13	16	49	33	792	243.0	-220647.0	-1288.0	93556.0
13	16	49	33	792	244.0	-218579.0	-1279.0	93321.0
13	16	49	33	793	245.0	-216388.0	-1274.0	93225.0
13	16	49	33	794	246.0	-214718.0	-1287.0	93207.0
13	16	49	33	794	247.0	-212698.0	-1269.0	93270.0
13	16	49	33	795	248.0	-210117.0	-1269.0	93032.0
13	16	49	33	795	249.0	-207426.0	-1264.0	92966.0
13	16	49	33	796	250.0	-205517.0	-1261.0	93104.0
13	16	49	33	797	251.0	-204199.0	-1257.0	93121.0
13	16	49	33	797	252.0	-203693.0	-1274.0	93376.0
13	16	49	33	798	254.0	-202739.0	-1276.0	94085.0
13	16	49	33	798	255.0	-202015.0	-1272.0	93929.0
13	16	49	33	799	0.0	-201472.0	-1289.0	93872.0
13	16	49	33	800	1.0	-201991.0	-1278.0	93744.0
13	16	49	33	800	2.0	-203714.0	-1264.0	93675.0
13	16	49	33	801	3.0	-206436.0	-1256.0	93824.0
13	16	49	33	833	4.0	-209679.0	-1246.0	93856.0
13	16	49	33	833	5.0	-213707.0	-1249.0	93644.0
13	16	49	33	834	6.0	-218040.0	-1245.0	93528.0
13	16	49	33	835	7.0	-222418.0	-1249.0	93755.0
13	16	49	33	835	8.0	-225785.0	-1261.0	93283.0
13	16	49	33	836	9.0	-227822.0	-1261.0	93605.0
13	16	49	33	837	10.0	-228643.0	-1266.0	93655.0
13	16	49	33	837	11.0	-227649.0	-1266.0	92664.0
13	16	49	33	838	12.0	-225564.0	-1240.0	92356.0
13	16	49	33	838	13.0	-222882.0	-1220.0	93101.0
13	16	49	33	839	14.0	-219813.0	-1228.0	93298.0
13	16	49	33	840	15.0	-216906.0	-1239.0	93116.0
13	16	49	33	840	16.0	-214439.0	-1234.0	92959.0
13	16	49	33	841	17.0	-211956.0	-1224.0	92803.0
13	16	49	33	841	18.0	-209752.0	-1222.0	92762.0
13	16	49	33	842	20.0	-207735.0	-1222.0	92564.0
13	16	49	33	843	21.0	-207204.0	-1220.0	92113.0
13	16	49	33	843	22.0	-206466.0	-1227.0	92124.0
13	16	49	33	844	23.0	-205550.0	-1231.0	92327.0
13	16	49	33	844	24.0	-204393.0	-1241.0	92336.0
13	16	49	33	845	25.0	-202254.0	-1231.0	92294.0
13	16	49	33	845	26.0	-198857.0	-1241.0	91914.0
13	16	49	33	877	27.0	-194244.0	-1245.0	92281.0
13	16	49	33	878	28.0	-188532.0	-1227.0	92457.0
13	16	49	33	879	29.0	-182284.0	-1235.0	92004.0
13	16	49	33	880	30.0	-175687.0	-1241.0	91671.0
13	16	49	33	880	31.0	-169260.0	-1229.0	91746.0
13	16	49	33	881	32.0	-163122.0	-1236.0	92069.0
13	16	49	33	881	33.0	-157264.0	-1229.0	91878.0
13	16	49	33	882	34.0	-152178.0	-1219.0	92029.0
13	16	49	33	883	35.0	-147889.0	-1236.0	91832.0
13	16	49	33	883	36.0	-144740.0	-1242.0	91404.0
13	16	49	33	884	37.0	-142209.0	-1237.0	91573.0
13	16	49	33	884	38.0	-140412.0	-1243.0	91824.0
13	16	49	33	885	39.0	-139287.0	-1246.0	91741.0
13	16	49	33	886	40.0	-139337.0	-1240.0	91458.0
13	16	49	33	886	41.0	-139772.0	-1235.0	91576.0
13	16	49	33	887	43.0	-141364.0	-1232.0	90742.0
13	16	49	33	888	44.0	-143347.0	-1224.0	90049.0
13	16	49	33	888	45.0	-146060.0	-1226.0	89886.0
13	16	49	33	889	46.0	-149627.0	-1246.0	88863.0
13	16	49	33	889	47.0	-154012.0	-1246.0	87680.0
13	16	49	33	890	48.0	-158632.0	-1257.0	86975.0
13	16	49	33	922	49.0	-162314.0	-1252.0	85856.0
13	16	49	33	922	50.0	-165406.0	-1239.0	84191.0
13	16	49	33	923	51.0	-167921.0	-1237.0	82631.0
13	16	49	33	924	52.0	-169656.0	-1242.0	81590.0
13	16	49	33	924	53.0	-171016.0	-1226.0	80215.0
13	16	49	33	925	54.0	-172028.0	-1240.0	78779.0
13	16	49	33	926	55.0	-172452.0	-1251.0	78371.0
13	16	49	33	926	56.0	-172673.0	-1249.0	78820.0
13	16	49	33	927	57.0	-173314.0	-1252.0	78443.0
13	16	49	33	928	58.0	-174238.0	-1250.0	79577.0
13	16	49	33	928	59.0	-175263.0	-1249.0	80672.0
13	16	49	33	929	60.0	-176606.0	-1255.0	82752.0
13	16	49	33	929	61.0	-179247.0	-1265.0	84144.0
13	16	49	33	930	62.0	-182447.0	-1241.0	84931.0
13	16	49	33	931	63.0	-186272.0	-1243.0	86687.0
13	16	49	33	931	65.0	-197022.0	-1240.0	89532.0
13	16	49	33	932	66.0	-203072.0	-1259.0	92544.0
13	16	49	33	933	67.0	-208282.0	-1263.0	95449.0
13	16	49	33	933	68.0	-212975.0	-1281.0	98303.0
13	16	49	33	934	69.0	-217567.0	-1272.0	100423.0
13	16	49	33	935	70.0	-222702.0	-1259.0	101663.0
13	16	49	33	935	71.0	-228399.0	-1248.0	101779.0
13	16	49	33	967	72.0	-233902.0	-1253.0	101606.0
13	16	49	33	968	73.0	-238652.0	-1245.0	101233.0
13	16	49	34	13	74.0	-242481.0	-1283.0	100168.0
13	16	49	34	14	75.0	-244957.0	-1277.0	98749.0
13	16	49	34	15	76.0	-245186.0	-1263.0	97290.0
13	16	49	34	15	77.0	-243077.0	-1276.0	96452.0
13	16	49	34	16	78.0	-238914.0	-1261.0	95142.0
13	16	49	34	17	79.0	-233424.0	-1261.0	93682.0
13	16	49	34	17	80.0	-227125.0	-1259.0	92008.0
13	16	49	34	18	81.0	-221551.0	-1234.0	90723.0
13	16	49	34	19	82.0	-217514.0	-1251.0	89384.0
13	16	49	34	19	83.0	-215639.0	-1234.0	88532.0
13	16	49	34	20	84.0	-216226.0	-1240.0	88142.0
13	16	49	34	20	85.0	-219758.0	-1223.0	87889.0
13	16	49	34	21	86.0	-225413.0	-1220.0	87318.0
13	16	49	34	22	88.0	-232195.0	-1227.0	87181.0
13	16	49	34	22	89.0	-230525.0	-1226.0	86435.0
13	16	49	34	23	90.0	-226523.0	-1239.0	86109.0
13	16	49	34	23	110.0	-191696.0	-1247.0	84954.0
13	16	49	34	24	111.0	-194246.0	-1241.0	84860.0
13	16	49	34	25	112.0	-197984.0	-1232.0	84426.0
13	16	49	34	25	113.0	-202382.0	-1214.0	84042.0
13	16	49	34	26	114.0	-206769.0	-1222.0	84312.0
13	16	49	34	26	115.0	-210232.0	-1218.0	84579.0
13	16	49	34	27	116.0	-212547.0	-1241.0	84586.0
13	16	49	34	58	117.0	-214117.0	-1224.0	84232.0
13	16	49	34	58	118.0	-215291.0	-1231.0	84158.0
13	16	49	34	59	119.0	-216135.0	-1230.0	83906.0
13	16	49	34	60	120.0	-216840.0	-1225.0	83435.0
13	16	49	34	60	121.0	-217351.0	-1231.0	82950.0
13	16	49	34	61	122.0	-217379.0	-1237.0	82914.0
13	16	49	34	61	123.0	-216889.0	-1237.0	83204.0
13	16	49	34	62	124.0	-216347.0	-1224.0	83736.0
13	16	49	34	63	125.0	-216539.0	-1217.0	83848.0
13	16	49	34	63	126.0	-217658.0	-1217.0	83658.0
13	16	49	34	64	127.0	-219681.0	-1215.0	83320.0
13	16	49	34	65	128.0	-222018.0	-1222.0	83026.0
13	16	49	34	65	129.0	-224186.0	-1234.0	83118.0
13	16	49	34	66	130.0	-226424.0	-1227.0	83008.0
13	16	49	34	66	131.0	-228711.0	-1218.0	82728.0
13	16	49	34	67	132.0	-230667.0	-1218.0	82678.0
13	16	49	34	68	133.0	-232925.0	-1215.0	82733.0
13	16	49	34	68	134.0	-235277.0	-1230.0	82638.0
13	16	49	34	69	135.0	-237137.0	-1221.0	82574.0
13	16	49	34	69	136.0	-238090.0	-1229.0	82214.0
13	16	49	34	70	137.0	-238720.0	-1244.0	82269.0
13	16	49	34	70	138.0	-238974.0	-1234.0	82096.0
13	16	49	34	102	139.0	-238014.0	-1234.0	82243.0
13	16	49	34	103	140.0	-236936.0	-1228.0	82129.0
13	16	49	34	103	141.0	-236449.0	-1238.0	81783.0
13	16	49	34	104	142.0	-236419.0	-1235.0	81494.0
13	16	49	34	105	143.0	-237001.0	-1238.0	81341.0
13	16	49	34	106	144.0	-238026.0	-1239.0	81278.0
13	16	49	34	106	145.0	-239010.0	-1243.0	80755.0
13	16	49	34	107	146.0	-239532.0	-1237.0	80638.0
13	16	49	34	108	147.0	-239339.0	-1247.0	80449.0
13	16	49	34	109	148.0	-238175.0	-1246.0	80141.0
13	16	49	34	110	149.0	-235602.0	-1248.0	79451.0
13	16	49	34	110	150.0	-231919.0	-1245.0	79769.0
13	16	49	34	111	151.0	-228043.0	-1223.0	79831.0
13	16	49	34	112	152.0	-223787.0	-1219.0	79496.0
13	16	49	34	112	153.0	-218471.0	-1241.0	78795.0
13	16	49	34	113	155.0	-207595.0	-1235.0	78664.0
13	16	49	34	113	156.0	-202625.0	-1232.0	78810.0
13	16	49	34	114	157.0	-198616.0	-1236.0	78748.0
13	16	49	34	115	158.0	-195983.0	-1232.0	78439.0
13	16	49	34	115	159.0	-193866.0	-1230.0	77819.0
13	16	49	34	148	160.0	-191638.0	-1239.0	77724.0
13	16	49	34	239	161.0	-189446.0	-1249.0	77513.0
13	16	49	34	240	162.0	-187872.0	-1247.0	76971.0
13	16	49	34	241	163.0	-186601.0	-1225.0	76328.0
13	16	49	34	242	164.0	-185466.0	-1242.0	76748.0
13	16	49	34	243	165.0	-185142.0	-1226.0	76284.0
13	16	49	34	244	166.0	-185647.0	-1215.0	76106.0
13	16	49	34	244	167.0	-185966.0	-1239.0	76446.0
13	16	49	34	245	168.0	-186581.0	-1236.0	76283.0
13	16	49	34	246	169.0	-187184.0	-1206.0	75651.0
13	16	49	34	246	170.0	-187281.0	-1227.0	75353.0
13	16	49	34	247	171.0	-187060.0	-1254.0	75413.0
13	16	49	34	248	172.0	-186835.0	-1229.0	75036.0
13	16	49	34	248	173.0	-186658.0	-1215.0	74839.0
13	16	49	34	249	174.0	-186297.0	-1202.0	74490.0
13	16	49	34	250	177.0	-186247.0	-1208.0	74503.0
13	16	49	34	250	200.0	-176316.0	-1019.0	77574.0
13	16	49	34	251	223.0	-262195.0	-852.0	80515.0
13	16	49	34	251	224.0	-259453.0	-847.0	80758.0
13	16	49	34	252	225.0	-254527.0	-827.0	80670.0
13	16	49	34	253	226.0	-248041.0	-814.0	80818.0
13	16	49	34	253	227.0	-240711.0	-821.0	81015.0
13	16	49	34	254	228.0	-233570.0	-805.0	80769.0
13	16	49	34	284	229.0	-227067.0	-816.0	80574.0
13	16	49	34	284	230.0	-221124.0	-814.0	80819.0
13	16	49	34	285	231.0	-215521.0	-801.0	80706.0
13	16	49	34	286	232.0	-210518.0	-792.0	80426.0
13	16	49	34	287	233.0	-206611.0	-792.0	80506.0
13	16	49	34	287	234.0	-203407.0	-797.0	80752.0
13	16	49	34	288	235.0	-200041.0	-804.0	80854.0
13	16	49	34	289	236.0	-196047.0	-799.0	80493.0
13	16	49	34	289	237.0	-191088.0	-797.0	80643.0
13	16	49	34	290	238.0	-186295.0	-795.0	80805.0
13	16	49	34	291	239.0	-182322.0	-782.0	80474.0
13	16	49	34	292	240.0	-178988.0	-779.0	80503.0
13	16	49	34	293	241.0	-176169.0	-777.0	80432.0
13	16	49	34	293	242.0	-173707.0	-779.0	80288.0
13	16	49	34	294	243.0	-171463.0	-775.0	80310.0
13	16	49	34	295	245.0	-167268.0	-769.0	80917.0
13	16	49	34	296	246.0	-165144.0	-764.0	80445.0
13	16	49	34	296	247.0	-163359.0	-753.0	80461.0
13	16	49	34	297	248.0	-162627.0	-760.0	80266.0
13	16	49	34	297	249.0	-163257.0	-760.0	79984.0
13	16	49	34	298	250.0	-164667.0	-756.0	80111.0
13	16	49	34	327	251.0	-166949.0	-757.0	79871.0
13	16	49	34	372	252.0	-171027.0	-747.0	80021.0
13	16	49	34	373	253.0	-175922.0	-749.0	80238.0
13	16	49	34	374	254.0	-181172.0	-756.0	79822.0
13	16	49	34	375	255.0	-186822.0	-744.0	79506.0
13	16	49	34	375	0.0	-192872.0	-748.0	80144.0
13	16	49	34	376	1.0	-199307.0	-736.0	80169.0
13	16	49	34	377	2.0	-204838.0	-742.0	80146.0
13	16	49	34	377	3.0	-209481.0	-764.0	80417.0
13	16	49	34	378	4.0	-213148.0	-764.0	80399.0
13	16	49	34	379	5.0	-215184.0	-766.0	80149.0
13	16	49	34	380	6.0	-215957.0	-761.0	80369.0
13	16	49	34	380	7.0	-215824.0	-771.0	80101.0
13	16	49	34	381	8.0	-214710.0	-748.0	80051.0
13	16	49	34	381	9.0	-212791.0	-722.0	80207.0
13	16	49	34	382	11.0	-206753.0	-754.0	79956.0
13	16	49	34	383	12.0	-204016.0	-746.0	79981.0
13	16	49	34	383	34.0	-225442.0	-777.0	79516.0
13	16	49	34	384	35.0	-222779.0	-771.0	79518.0
13	16	49	34	385	36.0	-219040.0	-770.0	79346.0
13	16	49	34	385	37.0	-214944.0	-774.0	79664.0
13	16	49	34	386	38.0	-210276.0	-774.0	79958.0
13	16	49	34	387	39.0	-205000.0	-792.0	79388.0
13	16	49	34	464	40.0	-200095.0	-798.0	79499.0
13	16	49	34	465	41.0	-195717.0	-812.0	79683.0
13	16	49	34	465	42.0	-191962.0	-803.0	79316.0
13	16	49	34	466	43.0	-188946.0	-814.0	79207.0
13	16	49	34	467	44.0	-187081.0	-802.0	79554.0
13	16	49	34	468	45.0	-186557.0	-812.0	79440.0
13	16	49	34	468	46.0	-187514.0	-819.0	79011.0
13	16	49	34	469	47.0	-189329.0	-819.0	79071.0
13	16	49	34	470	48.0	-191500.0	-838.0	79196.0
13	16	49	34	470	49.0	-193811.0	-822.0	79393.0
13	16	49	34	471	50.0	-195967.0	-808.0	79460.0
13	16	49	34	472	51.0	-198202.0	-812.0	79291.0
13	16	49	34	472	52.0	-200605.0	-818.0	79312.0
13	16	49	34	473	53.0	-202883.0	-815.0	79211.0
13	16	49	34	474	54.0	-204706.0	-819.0	79028.0
13	16	49	34	474	56.0	-204676.0	-840.0	78374.0
13	16	49	34	475	79.0	-175028.0	-884.0	76244.0
13	16	49	34	476	80.0	-176621.0	-903.0	75663.0
13	16	49	34	476	81.0	-178729.0	-901.0	75501.0
13	16	49	34	477	82.0	-180770.0	-898.0	75411.0
13	16	49	34	477	83.0	-182657.0	-911.0	75172.0
13	16	49	34	478	84.0	-184732.0	-914.0	75066.0
13	16	49	34	524	85.0	-187224.0	-913.0	74897.0
13	16	49	34	543	86.0	-189434.0	-916.0	74636.0
13	16	49	34	544	87.0	-191269.0	-912.0	74410.0
13	16	49	34	545	88.0	-192841.0	-927.0	74491.0
13	16	49	34	546	89.0	-194071.0	-936.0	74541.0
13	16	49	34	546	90.0	-195007.0	-939.0	74400.0
13	16	49	34	547	91.0	-196226.0	-930.0	74371.0
13	16	49	34	548	92.0	-198136.0	-916.0	74381.0
13	16	49	34	548	93.0	-200534.0	-927.0	73981.0
13	16	49	34	549	94.0	-203267.0	-927.0	74364.0
13	16	49	34	550	95.0	-206418.0	-939.0	74693.0
13	16	49	34	550	96.0	-209647.0	-955.0	74839.0
13	16	49	34	551	97.0	-212594.0	-950.0	74841.0
13	16	49	34	552	98.0	-214996.0	-949.0	74549.0
13	16	49	34	552	99.0	-216322.0	-940.0	74671.0
13	16	49	34	553	109.0	-234404.0	-939.0	75724.0
13	16	49	34	554	116.0	-217287.0	-964.0	77135.0
13	16	49	34	554	117.0	-211747.0	-968.0	77523.0
13	16	49	34	555	118.0	-206261.0	-975.0	77511.0
13	16	49	34	555	119.0	-201362.0	-975.0	77421.0
13	16	49	34	556	120.0	-197133.0	-977.0	77567.0
13	16	49	34	557	121.0	-193641.0	-977.0	77463.0
13	16	49	34	557	122.0	-190594.0	-969.0	77843.0
13	16	49	34	558	123.0	-187778.0	-964.0	77622.0
13	16	49	34	566	124.0	-185074.0	-973.0	77224.0
13	16	49	34	567	125.0	-182853.0	-994.0	77518.0
13	16	49	34	568	126.0	-181302.0	-1008.0	77609.0
13	16	49	34	569	127.0	-179877.0	-1007.0	77484.0
13	16	49	34	569	128.0	-178965.0	-1011.0	77301.0
13	16	49	34	570	129.0	-177876.0	-1000.0	77644.0
13	16	49	34	571	130.0	-176176.0	-1007.0	77561.0
13	16	49	34	571	131.0	-174545.0	-1003.0	77328.0
13	16	49	34	572	132.0	-173011.0	-1004.0	77665.0
13	16	49	34	572	133.0	-170598.0	-1012.0	77404.0
13	16	49	34	590	134.0	-167731.0	-1021.0	77374.0
13	16	49	34	591	135.0	-164897.0	-1027.0	77956.0
13	16	49	34	591	136.0	-162991.0	-1023.0	77674.0
13	16	49	34	592	137.0	-162047.0	-1022.0	77413.0
13	16	49	34	592	138.0	-162630.0	-1016.0	77437.0
13	16	49	34	593	139.0	-164696.0	-1030.0	77485.0
13	16	49	34	613	140.0	-167480.0	-1038.0	77305.0
13	16	49	34	614	141.0	-170825.0	-1046.0	77490.0
13	16	49	34	614	142.0	-175601.0	-1046.0	77480.0
13	16	49	34	615	143.0	-181233.0	-1049.0	77356.0
13	16	49	34	616	144.0	-187157.0	-1046.0	77014.0
13	16	49	34	616	145.0	-193341.0	-1052.0	77261.0
13	16	49	34	617	146.0	-200324.0	-1042.0	77224.0
13	16	49	34	617	147.0	-207620.0	-1064.0	76837.0
13	16	49	34	618	148.0	-215076.0	-1049.0	76754.0
13	16	49	34	618	149.0	-222036.0	-1043.0	76979.0
13	16	49	34	619	150.0	-227984.0	-1056.0	77042.0
13	16	49	34	620	151.0	-232778.0	-1068.0	76979.0
13	16	49	34	620	152.0	-236241.0	-1078.0	76807.0
13	16	49	34	621	153.0	-238191.0	-1067.0	76644.0
13	16	49	34	621	154.0	-238647.0	-1080.0	76687.0
13	16	49	34	636	155.0	-237701.0	-1076.0	76373.0
13	16	49	34	637	156.0	-236597.0	-1056.0	75800.0
13	16	49	34	637	157.0	-234969.0	-1078.0	75363.0
13	16	49	34	644	158.0	-232609.0	-1093.0	74872.0
13	16	49	34	646	159.0	-229691.0	-1081.0	74296.0
13	16	49	34	647	160.0	-225435.0	-1088.0	73511.0
13	16	49	34	647	161.0	-220416.0	-1094.0	72768.0
13	16	49	34	648	162.0	-214782.0	-1090.0	71721.0
13	16	49	34	649	163.0	-208803.0	-1104.0	70348.0
13	16	49	34	649	164.0	-202774.0	-1104.0	69148.0
13	16	49	34	662	165.0	-197006.0	-1102.0	67656.0
13	16	49	34	662	166.0	-191287.0	-1115.0	65899.0
13	16	49	34	663	167.0	-185512.0	-1105.0	65053.0
13	16	49	34	663	168.0	-179952.0	-1104.0	64641.0
13	16	49	34	664	169.0	-175008.0	-1103.0	64688.0
13	16	49	34	664	170.0	-170884.0	-1124.0	64746.0
13	16	49	34	685	171.0	-167491.0	-1103.0	66528.0
13	16	49	34	686	172.0	-164465.0	-1111.0	67766.0
13	16	49	34	687	173.0	-161943.0	-1125.0	69103.0
13	16	49	34	687	174.0	-160389.0	-1126.0	70629.0
13	16	49	34	688	175.0	-159292.0	-1127.0	71906.0
13	16	49	34	688	176.0	-158892.0	-1131.0	73299.0
13	16	49	34	689	177.0	-158656.0	-1129.0	74827.0
13	16	49	34	689	178.0	-158662.0	-1127.0	76562.0
13	16	49	34	690	179.0	-158964.0	-1142.0	79220.0
13	16	49	34	690	180.0	-159345.0	-1139.0	82224.0
13	16	49	34	691	181.0	-159951.0	-1154.0	85233.0
13	16	49	34	691	182.0	-161394.0	-1153.0	87381.0
13	16	49	34	692	183.0	-163541.0	-1145.0	88334.0
13	16	49	34	693	184.0	-166469.0	-1152.0	88884.0
13	16	49	34	693	185.0	-170152.0	-1153.0	89230.0
13	16	49	34	694	186.0	-174807.0	-1144.0	88846.0
13	16	49	34	694	187.0	-180243.0	-1154.0	87409.0
13	16	49	34	695	188.0	-185963.0	-1154.0	85748.0
13	16	49	34	695	189.0	-191051.0	-1154.0	84504.0
13	16	49	34	696	190.0	-195834.0	-1167.0	82890.0
13	16	49	34	709	191.0	-200665.0	-1187.0	81002.0
13	16	49	34	709	192.0	-205923.0	-1167.0	79774.0
13	16	49	34	710	193.0	-210908.0	-1162.0	77923.0
13	16	49	34	710	194.0	-215525.0	-1162.0	76128.0
13	16	49	34	711	195.0	-219847.0	-1175.0	75676.0
13	16	49	34	712	196.0	-224586.0	-1164.0	74827.0
13	16	49	34	712	197.0	-230281.0	-1156.0	73963.0
13	16	49	34	713	198.0	-237051.0	-1172.0	73664.0
13	16	49	34	713	199.0	-244219.0	-1192.0	73414.0
13	16	49	34	714	200.0	-251413.0	-1196.0	73004.0
13	16	49	34	747	201.0	-256244.0	-1196.0	73200.0
13	16	49	34	747	202.0	-256579.0	-1186.0	72813.0
13	16	49	34	757	203.0	-252652.0	-1186.0	72554.0
13	16	49	34	757	204.0	-246306.0	-1208.0	72516.0
13	16	49	34	758	205.0	-239884.0	-1204.0	72654.0
13	16	49	34	759	206.0	-233732.0	-1188.0	72134.0
13	16	49	34	759	207.0	-227262.0	-1183.0	71683.0
13	16	49	34	760	208.0	-221035.0	-1184.0	71869.0
13	16	49	34	760	209.0	-215414.0	-1183.0	71992.0
13	16	49	34	761	210.0	-211241.0	-1176.0	71803.0
13	16	49	34	761	211.0	-209303.0	-1184.0	71656.0
13	16	49	34	762	212.0	-209325.0	-1187.0	71321.0
13	16	49	34	763	213.0	-211115.0	-1191.0	70891.0
13	16	49	34	763	214.0	-214319.0	-1212.0	71144.0
13	16	49	34	764	215.0	-217802.0	-1191.0	71429.0
13	16	49	34	764	216.0	-221106.0	-1205.0	70903.0
13	16	49	34	765	221.0	-218580.0	-1207.0	70347.0
13	16	49	34	765	222.0	-213862.0	-1181.0	70036.0
13	16	49	34	766	223.0	-209408.0	-1181.0	70146.0
13	16	49	34	766	224.0	-206004.0	-1201.0	70279.0
13	16	49	34	767	225.0	-203717.0	-1225.0	70019.0
13	16	49	34	768	226.0	-202612.0	-1204.0	69943.0
13	16	49	34	768	227.0	-202341.0	-1199.0	70193.0
13	16	49	34	769	228.0	-203148.0	-1220.0	69828.0
13	16	49	34	769	229.0	-204073.0	-1216.0	69758.0
13	16	49	34	780	230.0	-204793.0	-1225.0	70329.0
13	16	49	34	780	231.0	-205659.0	-1222.0	69967.0
13	16	49	34	781	232.0	-206994.0	-1214.0	69788.0
13	16	49	34	781	233.0	-208381.0	-1232.0	69975.0
13	16	49	34	782	234.0	-209325.0	-1249.0	69649.0
13	16	49	34	782	235.0	-209055.0	-1254.0	69189.0
13	16	49	34	783	236.0	-208123.0	-1249.0	69207.0
13	16	49	34	783	237.0	-207627.0	-1228.0	69649.0
13	16	49	34	803	238.0	-207114.0	-1232.0	69238.0
13	16	49	34	803	239.0	-205969.0	-1252.0	69259.0
13	16	49	34	804	240.0	-204064.0	-1249.0	69398.0
13	16	49	34	805	241.0	-201782.0	-1247.0	69131.0
13	16	49	34	805	242.0	-200519.0	-1240.0	68972.0
13	16	49	34	806	243.0	-200171.0	-1250.0	68843.0
13	16	49	34	806	244.0	-200553.0	-1256.0	68916.0
13	16	49	34	830	245.0	-201682.0	-1236.0	68744.0
13	16	49	34	830	246.0	-203057.0	-1241.0	68554.0
13	16	49	34	831	247.0	-204079.0	-1263.0	68143.0
13	16	49	34	832	248.0	-205314.0	-1273.0	67808.0
13	16	49	34	832	249.0	-207046.0	-1270.0	67699.0
13	16	49	34	833	250.0	-209498.0	-1262.0	67649.0
13	16	49	34	833	251.0	-212264.0	-1262.0	67738.0
13	16	49	34	834	252.0	-215325.0	-1272.0	67613.0
13	16	49	34	834	253.0	-218416.0	-1264.0	67356.0
13	16	49	34	835	254.0	-221577.0	-1281.0	67519.0
13	16	49	34	836	255.0	-224823.0	-1272.0	67338.0
13	16	49	34	836	0.0	-228074.0	-1279.0	66842.0
13	16	49	34	837	1.0	-231726.0	-1288.0	66455.0
13	16	49	34	837	2.0	-235078.0	-1296.0	66691.0
13	16	49	34	838	3.0	-237646.0	-1291.0	66714.0
13	16	49	34	838	4.0	-239530.0	-1299.0	66114.0
13	16	49	34	839	5.0	-241680.0	-1306.0	65764.0
13	16	49	34	840	6.0	-243652.0	-1320.0	65436.0
13	16	49	34	840	7.0	-244735.0	-1322.0	64576.0
13	16	49	34	841	8.0	-244527.0	-1321.0	64686.0
13	16	49	34	841	9.0	-243397.0	-1327.0	65006.0
13	16	49	34	853	10.0	-241381.0	-1336.0	64314.0
13	16	49	34	853	11.0	-238267.0	-1337.0	64097.0
13	16	49	34	854	12.0	-234996.0	-1342.0	64601.0
13	16	49	34	854	13.0	-231924.0	-1367.0	64582.0
13	16	49	34	855	14.0	-229242.0	-1377.0	63940.0
13	16	49	34	856	15.0	-227162.0	-1370.0	63616.0
13	16	49	34	856	16.0	-226439.0	-1361.0	63275.0
13	16	49	34	857	17.0	-226380.0	-1384.0	62934.0
13	16	49	34	857	18.0	-227202.0	-1386.0	62874.0
13	16	49	34	858	19.0	-229021.0	-1380.0	62971.0
13	16	49	34	875	20.0	-231479.0	-1386.0	62933.0
13	16	49	34	876	21.0	-233486.0	-1391.0	63044.0
13	16	49	34	877	22.0	-235216.0	-1392.0	63091.0
13	16	49	34	877	23.0	-237660.0	-1418.0	62897.0
13	16	49	34	878	24.0	-239472.0	-1426.0	62686.0
13	16	49	34	878	25.0	-240611.0	-1437.0	62749.0
13	16	49	34	879	26.0	-240709.0	-1432.0	62345.0
13	16	49	34	899	27.0	-239527.0	-1421.0	62372.0
13	16	49	34	900	28.0	-237520.0	-1414.0	62071.0
13	16	49	34	900	29.0	-235125.0	-1426.0	61768.0
13	16	49	34	901	30.0	-232520.0	-1439.0	61714.0
13	16	49	34	901	31.0	-229387.0	-1449.0	61991.0
13	16	49	34	902	32.0	-225684.0	-1463.0	61688.0
13	16	49	34	903	33.0	-221637.0	-1464.0	61498.0
13	16	49	34	903	34.0	-217959.0	-1445.0	61799.0
13	16	49	34	904	35.0	-214589.0	-1446.0	61923.0
13	16	49	34	904	36.0	-211679.0	-1444.0	61851.0
13	16	49	34	905	37.0	-209687.0	-1451.0	62089.0
13	16	49	34	905	38.0	-208579.0	-1455.0	62126.0
13	16	49	34	906	39.0	-208196.0	-1462.0	62089.0
13	16	49	34	906	40.0	-207949.0	-1465.0	62484.0
13	16	49	34	907	41.0	-207298.0	-1460.0	62749.0
13	16	49	34	923	42.0	-206254.0	-1452.0	62606.0
13	16	49	34	923	43.0	-205296.0	-1454.0	62918.0
13	16	49	34	924	44.0	-205159.0	-1462.0	63249.0
13	16	49	34	924	45.0	-205582.0	-1462.0	63118.0
13	16	49	34	925	46.0	-206297.0	-1481.0	63199.0
13	16	49	34	926	47.0	-207419.0	-1474.0	63796.0
13	16	49	34	926	48.0	-209562.0	-1471.0	64213.0
13	16	49	34	927	49.0	-213407.0	-1472.0	64280.0
13	16	49	34	927	50.0	-218661.0	-1478.0	64749.0
13	16	49	34	928	51.0	-223786.0	-1488.0	64851.0
13	16	49	34	929	52.0	-227927.0	-1481.0	65159.0
13	16	49	34	929	53.0	-230846.0	-1484.0	66120.0
13	16	49	34	930	54.0	-232502.0	-1475.0	66677.0
13	16	49	34	930	55.0	-232990.0	-1481.0	66707.0
13	16	49	34	931	56.0	-233236.0	-1474.0	67087.0
13	16	49	34	945	57.0	-233464.0	-1469.0	67609.0
13	16	49	34	946	58.0	-234231.0	-1476.0	67773.0
13	16	49	34	947	59.0	-234643.0	-1489.0	68126.0
13	16	49	34	947	60.0	-233785.0	-1489.0	68907.0
13	16	49	34	948	61.0	-232402.0	-1481.0	68932.0
13	16	49	34	948	62.0	-230468.0	-1464.0	69240.0
13	16	49	34	949	63.0	-228246.0	-1462.0	69493.0
13	16	49	34	969	64.0	-225482.0	-1462.0	69652.0
13	16	49	34	994	65.0	-222557.0	-1477.0	69948.0
13	16	49	34	995	66.0	-219570.0	-1478.0	70738.0
13	16	49	34	996	67.0	-216781.0	-1472.0	70937.0
13	16	49	34	996	68.0	-214419.0	-1467.0	70773.0
13	16	49	34	997	69.0	-212506.0	-1471.0	70761.0
13	16	49	34	997	70.0	-211996.0	-1457.0	71079.0
13	16	49	34	998	71.0	-212328.0	-1460.0	71108.0
13	16	49	34	998	72.0	-212766.0	-1465.0	71757.0
13	16	49	34	999	73.0	-213741.0	-1467.0	71928.0
13	16	49	34	999	74.0	-214392.0	-1461.0	71876.0
13	16	49	35	0	75.0	-210537.0	-1464.0	71744.0
13	16	49	35	1	76.0	-206808.0	-1471.0	71979.0
13	16	49	35	1	77.0	-206284.0	-1459.0	72060.0
13	16	49	35	2	78.0	-206739.0	-1469.0	72217.0
13	16	49	35	2	79.0	-206522.0	-1471.0	72559.0
13	16	49	35	3	80.0	-205133.0	-1459.0	72156.0
13	16	49	35	3	81.0	-204267.0	-1439.0	72316.0
13	16	49	35	4	82.0	-202703.0	-1448.0	72703.0
13	16	49	35	5	83.0	-200512.0	-1447.0	72218.0
13	16	49	35	5	84.0	-197912.0	-1443.0	72259.0
13	16	49	35	6	85.0	-194560.0	-1442.0	72336.0
13	16	49	35	6	86.0	-190398.0	-1461.0	72473.0
13	16	49	35	18	87.0	-185944.0	-1444.0	72504.0
13	16	49	35	18	88.0	-181820.0	-1448.0	72411.0
13	16	49	35	19	89.0	-178708.0	-1454.0	72488.0
13	16	49	35	20	90.0	-176664.0	-1452.0	72414.0
13	16	49	35	20	91.0	-175414.0	-1452.0	72602.0
13	16	49	35	21	92.0	-173927.0	-1452.0	72261.0
13	16	49	35	21	93.0	-172384.0	-1456.0	72194.0
13	16	49	35	22	94.0	-171180.0	-1455.0	72284.0
13	16	49	35	23	95.0	-170837.0	-1452.0	72403.0
13	16	49	35	23	96.0	-171465.0	-1449.0	72436.0
13	16	49	35	24	97.0	-172721.0	-1447.0	72449.0
13	16	49	35	24	98.0	-173666.0	-1447.0	72380.0
13	16	49	35	25	99.0	-175306.0	-1440.0	72158.0
13	16	49	35	26	100.0	-178567.0	-1441.0	72458.0
13	16	49	35	26	101.0	-182862.0	-1454.0	72178.0
13	16	49	35	27	102.0	-187479.0	-1454.0	71682.0
13	16	49	35	27	103.0	-192142.0	-1454.0	72181.0
13	16	49	35	28	104.0	-196177.0	-1447.0	72443.0
13	16	49	35	41	105.0	-199902.0	-1442.0	71953.0
13	16	49	35	41	106.0	-203492.0	-1454.0	71860.0
13	16	49	35	64	107.0	-206694.0	-1452.0	71939.0
13	16	49	35	65	108.0	-209172.0	-1471.0	71981.0
13	16	49	35	65	109.0	-210865.0	-1464.0	71859.0
13	16	49	35	66	110.0	-212287.0	-1459.0	72249.0
13	16	49	35	66	111.0	-213775.0	-1470.0	72012.0
13	16	49	35	67	112.0	-214668.0	-1485.0	71616.0
13	16	49	35	68	113.0	-215501.0	-1467.0	71905.0
13	16	49	35	68	114.0	-217012.0	-1461.0	72043.0
13	16	49	35	69	115.0	-218658.0	-1454.0	71639.0
13	16	49	35	69	116.0	-219951.0	-1470.0	71789.0
13	16	49	35	70	117.0	-220292.0	-1481.0	71888.0
13	16	49	35	71	118.0	-219056.0	-1489.0	71773.0
13	16	49	35	71	119.0	-216450.0	-1487.0	71339.0
13	16	49	35	72	120.0	-212274.0	-1499.0	71568.0
13	16	49	35	72	121.0	-207117.0	-1488.0	71453.0
13	16	49	35	73	122.0	-200684.0	-1491.0	71739.0
13	16	49	35	73	123.0	-193486.0	-1501.0	71583.0
13	16	49	35	74	124.0	-186307.0	-1499.0	71649.0
13	16	49	35	75	125.0	-179027.0	-1511.0	71462.0
13	16	49	35	88	126.0	-172542.0	-1519.0	71583.0
13	16	49	35	89	127.0	-167081.0	-1524.0	71753.0
13	16	49	35	89	128.0	-162617.0	-1525.0	71636.0
13	16	49	35	90	129.0	-159592.0	-1517.0	71608.0
13	16	49	35	90	130.0	-157937.0	-1542.0	70953.0
13	16	49	35	91	131.0	-158029.0	-1543.0	71136.0
13	16	49	35	92	132.0	-158870.0	-1563.0	71447.0
13	16	49	35	92	133.0	-160193.0	-1582.0	71057.0
13	16	49	35	93	134.0	-161474.0	-1576.0	71030.0
13	16	49	35	93	135.0	-162404.0	-1577.0	71209.0
13	16	49	35	94	136.0	-162674.0	-1579.0	71058.0
13	16	49	35	95	137.0	-162626.0	-1578.0	71138.0
13	16	49	35	110	138.0	-162869.0	-1594.0	71546.0
13	16	49	35	111	139.0	-163363.0	-1592.0	71564.0
13	16	49	35	111	140.0	-163719.0	-1617.0	71512.0
13	16	49	35	112	141.0	-163892.0	-1613.0	71464.0
13	16	49	35	112	142.0	-164429.0	-1610.0	71534.0
13	16	49	35	113	143.0	-165825.0	-1624.0	71195.0
13	16	49	35	114	144.0	-167590.0	-1606.0	71088.0
13	16	49	35	114	145.0	-168903.0	-1627.0	71229.0
13	16	49	35	133	146.0	-170369.0	-1620.0	71258.0
13	16	49	35	134	147.0	-172193.0	-1636.0	70753.0
13	16	49	35	134	148.0	-173928.0	-1651.0	70921.0
13	16	49	35	135	149.0	-175787.0	-1669.0	70934.0
13	16	49	35	135	150.0	-178209.0	-1661.0	70521.0
13	16	49	35	136	151.0	-181453.0	-1664.0	70709.0
13	16	49	35	137	152.0	-185592.0	-1660.0	70610.0
13	16	49	35	137	153.0	-189541.0	-1663.0	70336.0
13	16	49	35	138	154.0	-192744.0	-1690.0	70364.0
13	16	49	35	138	155.0	-194959.0	-1712.0	70281.0
13	16	49	35	139	156.0	-196204.0	-1676.0	70181.0
13	16	49	35	140	157.0	-196747.0	-1680.0	69746.0
13	16	49	35	140	158.0	-196956.0	-1701.0	69846.0
13	16	49	35	141	159.0	-197179.0	-1700.0	69951.0
13	16	49	35	141	160.0	-197853.0	-1710.0	69691.0
13	16	49	35	156	161.0	-199171.0	-1721.0	69520.0
13	16	49	35	157	162.0	-200066.0	-1721.0	69278.0
13	16	49	35	158	163.0	-200071.0	-1716.0	69466.0
13	16	49	35	158	164.0	-199128.0	-1742.0	69582.0
13	16	49	35	159	165.0	-197689.0	-1745.0	69238.0
13	16	49	35	159	166.0	-195571.0	-1762.0	69429.0
13	16	49	35	160	167.0	-192681.0	-1774.0	69438.0
13	16	49	35	160	168.0	-188767.0	-1751.0	69166.0
13	16	49	35	180	169.0	-184698.0	-1750.0	69007.0
13	16	49	35	181	170.0	-180628.0	-1757.0	69373.0
13	16	49	35	182	171.0	-177321.0	-1784.0	68853.0
13	16	49	35	182	172.0	-175019.0	-1775.0	68782.0
13	16	49	35	183	173.0	-173086.0	-1777.0	69271.0
13	16	49	35	184	174.0	-171501.0	-1792.0	69068.0
13	16	49	35	184	175.0	-170060.0	-1796.0	68441.0
13	16	49	35	185	176.0	-169001.0	-1802.0	68844.0
13	16	49	35	185	177.0	-168052.0	-1818.0	68674.0
13	16	49	35	186	178.0	-167492.0	-1824.0	68253.0
13	16	49	35	187	179.0	-167654.0	-1813.0	68479.0
13	16	49	35	187	180.0	-168137.0	-1844.0	68453.0
13	16	49	35	188	181.0	-167834.0	-1826.0	68202.0
13	16	49	35	188	182.0	-166838.0	-1831.0	67975.0
13	16	49	35	189	183.0	-165521.0	-1832.0	67942.0
13	16	49	35	212	184.0	-164367.0	-1842.0	67881.0
13	16	49	35	213	185.0	-164477.0	-1846.0	67861.0
13	16	49	35	213	186.0	-166191.0	-1857.0	67563.0
13	16	49	35	214	187.0	-169287.0	-1847.0	67389.0
13	16	49	35	215	188.0	-173461.0	-1851.0	67351.0
13	16	49	35	215	189.0	-178461.0	-1876.0	67449.0
13	16	49	35	216	190.0	-183213.0	-1881.0	67119.0
13	16	49	35	216	191.0	-186533.0	-1878.0	67218.0
13	16	49	35	217	192.0	-188921.0	-1879.0	66974.0
13	16	49	35	218	193.0	-190307.0	-1898.0	66714.0
13	16	49	35	219	194.0	-190490.0	-1906.0	66550.0
13	16	49	35	219	195.0	-189936.0	-1892.0	66424.0
13	16	49	35	220	196.0	-188829.0	-1878.0	66395.0
13	16	49	35	220	197.0	-187392.0	-1893.0	66158.0
13	16	49	35	221	198.0	-185471.0	-1902.0	66306.0
13	16	49	35	222	199.0	-182991.0	-1924.0	65969.0
13	16	49	35	222	200.0	-180136.0	-1934.0	65586.0
13	16	49	35	223	201.0	-177531.0	-1932.0	65268.0
13	16	49	35	231	202.0	-175079.0	-1944.0	65458.0
13	16	49	35	232	203.0	-172491.0	-1931.0	65025.0
13	16	49	35	232	204.0	-169790.0	-1927.0	64931.0
13	16	49	35	254	205.0	-167208.0	-1947.0	65219.0
13	16	49	35	255	206.0	-164421.0	-1943.0	64924.0
13	16	49	35	255	207.0	-161873.0	-1952.0	64526.0
13	16	49	35	256	208.0	-159285.0	-1960.0	64553.0
13	16	49	35	257	209.0	-156482.0	-1948.0	64328.0
13	16	49	35	257	210.0	-153949.0	-1963.0	64330.0
13	16	49	35	258	211.0	-151509.0	-1962.0	63923.0
13	16	49	35	259	212.0	-149807.0	-1957.0	63971.0
13	16	49	35	259	213.0	-149708.0	-1982.0	64000.0
13	16	49	35	260	214.0	-151224.0	-1973.0	63907.0
13	16	49	35	260	215.0	-153301.0	-1962.0	63971.0
13	16	49	35	261	216.0	-155302.0	-1991.0	63735.0
13	16	49	35	261	217.0	-156989.0	-2016.0	63323.0
13	16	49	35	262	218.0	-158396.0	-2017.0	63464.0
13	16	49	35	263	219.0	-159882.0	-2012.0	63794.0
13	16	49	35	263	220.0	-160944.0	-2019.0	63970.0
13	16	49	35	277	221.0	-161165.0	-2019.0	63887.0
13	16	49	35	278	222.0	-161830.0	-2026.0	64106.0
13	16	49	35	278	223.0	-162898.0	-2036.0	63852.0
13	16	49	35	279	224.0	-164282.0	-2029.0	63913.0
13	16	49	35	279	225.0	-165694.0	-2024.0	63489.0
13	16	49	35	280	226.0	-167164.0	-2035.0	63468.0
13	16	49	35	280	227.0	-169300.0	-2045.0	63284.0
13	16	49	35	281	228.0	-171756.0	-2052.0	63207.0
13	16	49	35	300	229.0	-174176.0	-2027.0	63384.0
13	16	49	35	301	230.0	-176811.0	-2047.0	63242.0
13	16	49	35	302	231.0	-179764.0	-2067.0	63209.0
13	16	49	35	303	232.0	-182534.0	-2069.0	63548.0
13	16	49	35	303	233.0	-184960.0	-2070.0	64035.0
13	16	49	35	304	234.0	-187098.0	-2079.0	63677.0
13	16	49	35	304	235.0	-188244.0	-2082.0	63413.0
13	16	49	35	305	236.0	-188289.0	-2086.0	63762.0
13	16	49	35	306	237.0	-187522.0	-2102.0	63986.0
13	16	49	35	306	238.0	-186241.0	-2087.0	63884.0
13	16	49	35	307	239.0	-185005.0	-2086.0	63883.0
13	16	49	35	307	240.0	-183498.0	-2089.0	64231.0
13	16	49	35	308	241.0	-181829.0	-2082.0	63656.0
13	16	49	35	308	242.0	-180853.0	-2091.0	63791.0
13	16	49	35	309	243.0	-180528.0	-2107.0	63904.0
13	16	49	35	325	244.0	-180701.0	-2117.0	63843.0
13	16	49	35	325	245.0	-180863.0	-2111.0	63809.0
13	16	49	35	326	246.0	-181074.0	-2125.0	63684.0
13	16	49	35	327	247.0	-181728.0	-2127.0	63921.0
13	16	49	35	327	248.0	-182242.0	-2129.0	63802.0
13	16	49	35	328	249.0	-182896.0	-2154.0	63631.0
13	16	49	35	348	250.0	-184288.0	-2159.0	63589.0
13	16	49	35	349	251.0	-185554.0	-2163.0	63057.0
13	16	49	35	349	252.0	-185457.0	-2167.0	63128.0
13	16	49	35	350	253.0	-185325.0	-2170.0	63229.0
13	16	49	35	350	254.0	-185096.0	-2179.0	63268.0
13	16	49	35	351	255.0	-184904.0	-2195.0	63413.0
13	16	49	35	352	0.0	-184333.0	-2185.0	63081.0
13	16	49	35	352	1.0	-183178.0	-2190.0	63206.0
13	16	49	35	353	2.0	-181563.0	-2211.0	63409.0
13	16	49	35	353	3.0	-179619.0	-2202.0	63221.0
13	16	49	35	354	4.0	-177507.0	-2198.0	63261.0
13	16	49	35	354	5.0	-175232.0	-2189.0	63334.0
13	16	49	35	355	6.0	-173369.0	-2197.0	63542.0
13	16	49	35	356	7.0	-171978.0	-2223.0	63356.0
13	16	49	35	356	8.0	-171273.0	-2241.0	63561.0
13	16	49	35	357	9.0	-171996.0	-2227.0	63523.0
13	16	49	35	373	10.0	-173669.0	-2234.0	63147.0
13	16	49	35	374	11.0	-175544.0	-2246.0	62881.0
13	16	49	35	375	12.0	-177663.0	-2249.0	63116.0
13	16	49	35	376	13.0	-179726.0	-2230.0	62836.0
13	16	49	35	376	14.0	-181642.0	-2239.0	62561.0
13	16	49	35	380	15.0	-184217.0	-2244.0	63001.0
13	16	49	35	390	16.0	-186974.0	-2261.0	62905.0
13	16	49	35	393	17.0	-190076.0	-2256.0	62591.0
13	16	49	35	394	18.0	-193417.0	-2249.0	62635.0
13	16	49	35	395	19.0	-196994.0	-2270.0	62751.0
13	16	49	35	395	20.0	-200112.0	-2261.0	62506.0
13	16	49	35	396	21.0	-202552.0	-2279.0	62350.0
13	16	49	35	396	22.0	-203807.0	-2271.0	62529.0
13	16	49	35	397	23.0	-203811.0	-2266.0	61928.0
13	16	49	35	397	24.0	-202931.0	-2267.0	61906.0
13	16	49	35	398	25.0	-201943.0	-2296.0	61533.0
13	16	49	35	398	26.0	-201427.0	-2296.0	61033.0
13	16	49	35	399	27.0	-201893.0	-2285.0	60491.0
13	16	49	35	400	28.0	-203366.0	-2279.0	59557.0
13	16	49	35	400	29.0	-205311.0	-2294.0	58540.0
13	16	49	35	401	30.0	-207328.0	-2297.0	57313.0
13	16	49	35	401	31.0	-209572.0	-2274.0	55966.0
13	16	49	35	409	32.0	-211899.0	-2284.0	54422.0
13	16	49	35	410	33.0	-213956.0	-2281.0	52886.0
13	16	49	35	410	34.0	-216154.0	-2287.0	51396.0
13	16	49	35	411	35.0	-218677.0	-2291.0	49958.0
13	16	49	35	411	36.0	-221972.0	-2307.0	49661.0
13	16	49	35	412	37.0	-225430.0	-2312.0	50236.0
13	16	49	35	412	38.0	-228299.0	-2311.0	50381.0
13	16	49	35	413	39.0	-230768.0	-2300.0	51806.0
13	16	49	35	433	40.0	-233239.0	-2316.0	53316.0
13	16	49	35	433	41.0	-235017.0	-2312.0	54471.0
13	16	49	35	434	42.0	-236318.0	-2314.0	55790.0
13	16	49	35	434	43.0	-236423.0	-2300.0	57583.0
13	16	49	35	435	44.0	-235231.0	-2307.0	59130.0
13	16	49	35	435	45.0	-233337.0	-2316.0	60574.0
13	16	49	35	436	46.0	-230929.0	-2322.0	62244.0
13	16	49	35	436	47.0	-227729.0	-2314.0	65683.0
13	16	49	35	456	48.0	-223780.0	-2325.0	68308.0
13	16	49	35	456	49.0	-219060.0	-2327.0	71338.0
13	16	49	35	457	50.0	-214151.0	-2318.0	73906.0
13	16	49	35	458	51.0	-209230.0	-2319.0	75176.0
13	16	49	35	458	52.0	-204170.0	-2324.0	75602.0
13	16	49	35	459	53.0	-199084.0	-2332.0	75914.0
13	16	49	35	459	54.0	-193614.0	-2344.0	75522.0
13	16	49	35	460	55.0	-187858.0	-2337.0	73967.0
13	16	49	35	460	56.0	-181985.0	-2329.0	72194.0
13	16	49	35	461	57.0	-176464.0	-2326.0	70439.0
13	16	49	35	462	58.0	-171062.0	-2343.0	68326.0
13	16	49	35	462	59.0	-166376.0	-2345.0	66681.0
13	16	49	35	463	60.0	-162849.0	-2331.0	64797.0
13	16	49	35	463	61.0	-160682.0	-2324.0	63404.0
13	16	49	35	464	62.0	-160901.0	-2338.0	62216.0
13	16	49	35	464	63.0	-162982.0	-2348.0	60736.0
13	16	49	35	465	64.0	-166389.0	-2359.0	59766.0
13	16	49	35	465	65.0	-170341.0	-2360.0	59123.0
13	16	49	35	466	66.0	-174726.0	-2366.0	58455.0
13	16	49	35	467	67.0	-179308.0	-2352.0	58056.0
13	16	49	35	482	68.0	-183481.0	-2354.0	58172.0
13	16	49	35	483	69.0	-186619.0	-2361.0	58124.0
13	16	49	35	483	70.0	-186421.0	-2362.0	57617.0
13	16	49	35	484	71.0	-183147.0	-2366.0	57566.0
13	16	49	35	484	72.0	-177581.0	-2359.0	57638.0
13	16	49	35	485	73.0	-171012.0	-2372.0	57327.0
13	16	49	35	486	74.0	-165041.0	-2374.0	57384.0
13	16	49	35	486	75.0	-161174.0	-2371.0	57544.0
13	16	49	35	487	76.0	-159972.0	-2379.0	57319.0
13	16	49	35	487	77.0	-161801.0	-2401.0	57011.0
13	16	49	35	488	78.0	-166560.0	-2391.0	56951.0
13	16	49	35	502	79.0	-174566.0	-2360.0	56707.0
13	16	49	35	503	80.0	-185320.0	-2375.0	56450.0
13	16	49	35	503	81.0	-198824.0	-2383.0	56179.0
13	16	49	35	504	82.0	-213418.0	-2374.0	56334.0
13	16	49	35	504	83.0	-226394.0	-2371.0	56169.0
13	16	49	35	526	84.0	-237056.0	-2369.0	55986.0
13	16	49	35	527	85.0	-244994.0	-2357.0	56129.0
13	16	49	35	527	86.0	-250105.0	-2379.0	55969.0
13	16	49	35	528	87.0	-251686.0	-2368.0	55659.0
13	16	49	35	528	88.0	-250236.0	-2357.0	55871.0
13	16	49	35	529	89.0	-246989.0	-2359.0	55663.0
13	16	49	35	529	90.0	-242857.0	-2347.0	55368.0
13	16	49	35	530	91.0	-239599.0	-2358.0	55439.0
13	16	49	35	530	92.0	-237884.0	-2354.0	55093.0
13	16	49	35	531	93.0	-237252.0	-2351.0	55079.0
13	16	49	35	532	94.0	-237521.0	-2334.0	54812.0
13	16	49	35	532	95.0	-238391.0	-2331.0	55018.0
13	16	49	35	533	96.0	-239646.0	-2344.0	55046.0
13	16	49	35	533	97.0	-241172.0	-2358.0	54996.0
13	16	49	35	534	98.0	-243317.0	-2337.0	54469.0
13	16	49	35	548	99.0	-245529.0	-2354.0	54220.0
13	16	49	35	549	100.0	-247487.0	-2341.0	54684.0
13	16	49	35	549	101.0	-249399.0	-2354.0	54414.0
13	16	49	35	550	102.0	-250856.0	-2360.0	54340.0
13	16	49	35	550	103.0	-251707.0	-2346.0	54256.0
13	16	49	35	551	104.0	-251932.0	-2339.0	54274.0
13	16	49	35	552	105.0	-251070.0	-2327.0	54320.0
13	16	49	35	552	106.0	-248993.0	-2336.0	54399.0
13	16	49	35	553	107.0	-245891.0	-2338.0	54146.0
13	16	49	35	572	108.0	-241949.0	-2341.0	53930.0
13	16	49	35	572	109.0	-238025.0	-2326.0	53979.0
13	16	49	35	573	110.0	-234241.0	-2334.0	54108.0
13	16	49	35	574	111.0	-230728.0	-2339.0	53723.0
13	16	49	35	574	112.0	-227651.0	-2326.0	53382.0
13	16	49	35	575	113.0	-224897.0	-2309.0	53567.0
13	16	49	35	575	114.0	-222626.0	-2307.0	52974.0
13	16	49	35	576	115.0	-220817.0	-2326.0	52962.0
13	16	49	35	576	116.0	-219094.0	-2321.0	53007.0
13	16	49	35	577	117.0	-218289.0	-2299.0	52823.0
13	16	49	35	577	118.0	-218124.0	-2302.0	52625.0
13	16	49	35	578	119.0	-218973.0	-2291.0	52677.0
13	16	49	35	579	120.0	-220895.0	-2280.0	52652.0
13	16	49	35	579	121.0	-223431.0	-2297.0	52539.0
13	16	49	35	580	122.0	-225927.0	-2309.0	51703.0
13	16	49	35	595	123.0	-227634.0	-2319.0	51458.0
13	16	49	35	596	124.0	-228357.0	-2305.0	51561.0
13	16	49	35	619	125.0	-227873.0	-2301.0	51340.0
13	16	49	35	620	126.0	-226487.0	-2299.0	50916.0
13	16	49	35	621	127.0	-224471.0	-2334.0	50669.0
13	16	49	35	621	128.0	-221568.0	-2314.0	50641.0
13	16	49	35	622	129.0	-218222.0	-2294.0	50623.0
13	16	49	35	622	130.0	-213640.0	-2293.0	50174.0
13	16	49	35	623	131.0	-207654.0	-2287.0	49776.0
13	16	49	35	624	132.0	-201604.0	-2299.0	49653.0
13	16	49	35	624	133.0	-195086.0	-2304.0	49245.0
13	16	49	35	625	134.0	-188410.0	-2317.0	48985.0
13	16	49	35	625	135.0	-182357.0	-2332.0	49154.0
13	16	49	35	626	136.0	-176872.0	-2315.0	48604.0
13	16	49	35	626	137.0	-172457.0	-2297.0	48244.0
13	16	49	35	627	138.0	-169090.0	-2310.0	48338.0
13	16	49	35	628	139.0	-166689.0	-2321.0	47645.0
13	16	49	35	628	140.0	-164885.0	-2339.0	47140.0
13	16	49	35	629	143.0	-163821.0	-2318.0	46557.0
13	16	49	35	629	144.0	-166771.0	-2319.0	46229.0
13	16	49	35	642	145.0	-170644.0	-2296.0	46394.0
13	16	49	35	643	146.0	-174135.0	-2306.0	46163.0
13	16	49	35	664	147.0	-177351.0	-2294.0	45847.0
13	16	49	35	665	148.0	-180201.0	-2314.0	45723.0
13	16	49	35	665	149.0	-182604.0	-2312.0	45378.0
13	16	49	35	666	150.0	-184772.0	-2302.0	44558.0
13	16	49	35	667	151.0	-187041.0	-2292.0	44474.0
13	16	49	35	667	152.0	-189557.0	-2296.0	44155.0
13	16	49	35	668	153.0	-191886.0	-2278.0	43900.0
13	16	49	35	668	154.0	-193970.0	-2292.0	43878.0
13	16	49	35	669	155.0	-195739.0	-2300.0	43992.0
13	16	49	35	669	156.0	-196992.0	-2290.0	43700.0
13	16	49	35	670	157.0	-197749.0	-2277.0	43376.0
13	16	49	35	670	158.0	-197794.0	-2301.0	43363.0
13	16	49	35	671	159.0	-197169.0	-2275.0	43551.0
13	16	49	35	671	160.0	-196302.0	-2265.0	43626.0
13	16	49	35	672	161.0	-195227.0	-2276.0	43692.0
13	16	49	35	673	162.0	-194636.0	-2271.0	43426.0
13	16	49	35	673	163.0	-194287.0	-2259.0	43330.0
13	16	49	35	674	164.0	-194005.0	-2244.0	43553.0
13	16	49	35	674	165.0	-193118.0	-2253.0	43460.0
13	16	49	35	693	166.0	-191321.0	-2236.0	43728.0
13	16	49	35	693	167.0	-188842.0	-2229.0	43691.0
13	16	49	35	694	168.0	-185099.0	-2214.0	43712.0
13	16	49	35	695	169.0	-181016.0	-2201.0	44193.0
13	16	49	35	695	170.0	-176607.0	-2197.0	44436.0
13	16	49	35	696	171.0	-171714.0	-2186.0	44396.0
13	16	49	35	696	172.0	-167304.0	-2163.0	44454.0
13	16	49	35	697	173.0	-163057.0	-2148.0	44900.0
13	16	49	35	697	174.0	-159056.0	-2142.0	44963.0
13	16	49	35	698	175.0	-156056.0	-2134.0	44892.0
13	16	49	35	699	176.0	-154339.0	-2109.0	45276.0
13	16	49	35	699	177.0	-154070.0	-2106.0	45416.0
13	16	49	35	700	178.0	-154997.0	-2116.0	45614.0
13	16	49	35	700	179.0	-157352.0	-2096.0	46109.0
13	16	49	35	701	180.0	-161116.0	-2090.0	46527.0
13	16	49	35	702	181.0	-165651.0	-2057.0	46559.0
13	16	49	35	702	182.0	-170841.0	-2052.0	46861.0
13	16	49	35	703	183.0	-175807.0	-2072.0	47328.0
13	16	49	35	703	184.0	-180214.0	-2059.0	47786.0
13	16	49	35	717	185.0	-184624.0	-2035.0	47886.0
13	16	49	35	718	186.0	-188977.0	-2027.0	48019.0
13	16	49	35	719	187.0	-193776.0	-2036.0	48361.0
13	16	49	35	719	188.0	-197904.0	-2011.0	48764.0
13	16	49	35	740	189.0	-200294.0	-2007.0	48963.0
13	16	49	35	741	190.0	-201856.0	-1967.0	49114.0
13	16	49	35	741	191.0	-202657.0	-1959.0	49302.0
13	16	49	35	742	192.0	-202939.0	-1939.0	49716.0
13	16	49	35	742	193.0	-202808.0	-1932.0	49669.0
13	16	49	35	743	194.0	-202022.0	-1952.0	49977.0
13	16	49	35	743	195.0	-200373.0	-1931.0	50289.0
13	16	49	35	744	196.0	-198138.0	-1910.0	50313.0
13	16	49	35	745	197.0	-195445.0	-1905.0	50716.0
13	16	49	35	745	198.0	-192347.0	-1900.0	51237.0
13	16	49	35	746	199.0	-189007.0	-1885.0	51196.0
13	16	49	35	746	200.0	-183629.0	-1878.0	51025.0
13	16	49	35	747	201.0	-178063.0	-1859.0	51569.0
13	16	49	35	747	202.0	-177098.0	-1842.0	51398.0
13	16	49	35	748	203.0	-178406.0	-1834.0	51353.0
13	16	49	35	749	204.0	-180986.0	-1836.0	51776.0
13	16	49	35	763	205.0	-184261.0	-1822.0	51796.0
13	16	49	35	786	206.0	-187767.0	-1804.0	51803.0
13	16	49	35	787	207.0	-190201.0	-1797.0	52125.0
13	16	49	35	788	208.0	-191581.0	-1785.0	52012.0
13	16	49	35	788	209.0	-192170.0	-1772.0	51726.0
13	16	49	35	789	210.0	-191523.0	-1756.0	51497.0
13	16	49	35	789	211.0	-189738.0	-1736.0	51821.0
13	16	49	35	790	212.0	-187462.0	-1729.0	52039.0
13	16	49	35	791	213.0	-185871.0	-1716.0	51826.0
13	16	49	35	791	214.0	-185519.0	-1729.0	51855.0
13	16	49	35	792	215.0	-186057.0	-1709.0	51776.0
13	16	49	35	792	216.0	-187014.0	-1684.0	51429.0
13	16	49	35	793	217.0	-188644.0	-1662.0	51391.0
13	16	49	35	793	218.0	-190689.0	-1662.0	51269.0
13	16	49	35	794	219.0	-192841.0	-1652.0	51485.0
13	16	49	35	794	220.0	-195397.0	-1643.0	51529.0
13	16	49	35	795	221.0	-198642.0	-1641.0	51629.0
13	16	49	35	796	222.0	-201549.0	-1628.0	51169.0
13	16	49	35	796	223.0	-204063.0	-1637.0	50994.0
13	16	49	35	797	224.0	-206362.0	-1630.0	51103.0
13	16	49	35	798	225.0	-208394.0	-1624.0	51250.0
13	16	49	35	798	226.0	-210408.0	-1617.0	51189.0
13	16	49	35	799	227.0	-212329.0	-1589.0	51163.0
13	16	49	35	800	228.0	-213930.0	-1588.0	51087.0
13	16	49	35	800	229.0	-214899.0	-1603.0	50849.0
13	16	49	35	801	230.0	-215424.0	-1609.0	50776.0
13	16	49	35	802	231.0	-215791.0	-1592.0	50573.0
13	16	49	35	802	232.0	-216767.0	-1584.0	50718.0
13	16	49	35	803	233.0	-218358.0	-1568.0	50794.0
13	16	49	35	803	234.0	-220452.0	-1577.0	50660.0
13	16	49	35	811	235.0	-222969.0	-1549.0	50681.0
13	16	49	35	812	236.0	-225732.0	-1551.0	50854.0
13	16	49	35	812	237.0	-228439.0	-1557.0	50693.0
13	16	49	35	813	238.0	-230924.0	-1557.0	50731.0
13	16	49	35	814	239.0	-232815.0	-1546.0	50463.0
13	16	49	35	814	240.0	-234294.0	-1542.0	50980.0
13	16	49	35	815	241.0	-235431.0	-1544.0	50499.0
13	16	49	35	834	242.0	-235618.0	-1537.0	50243.0
13	16	49	35	835	243.0	-234823.0	-1533.0	50446.0
13	16	49	35	836	244.0	-234129.0	-1495.0	50563.0
13	16	49	35	836	245.0	-233536.0	-1502.0	50197.0
13	16	49	35	837	246.0	-232879.0	-1516.0	50749.0
13	16	49	35	837	247.0	-232246.0	-1521.0	50451.0
13	16	49	35	838	248.0	-231352.0	-1509.0	50132.0
13	16	49	35	838	249.0	-230538.0	-1499.0	50029.0
13	16	49	35	857	250.0	-229264.0	-1496.0	49845.0
13	16	49	35	857	251.0	-227537.0	-1485.0	49756.0
13	16	49	35	858	252.0	-225474.0	-1484.0	49766.0
13	16	49	35	859	253.0	-222909.0	-1482.0	49800.0
13	16	49	35	859	254.0	-219894.0	-1478.0	49873.0
13	16	49	35	860	255.0	-216872.0	-1472.0	49689.0
13	16	49	35	860	0.0	-213866.0	-1467.0	50008.0
13	16	49	35	861	1.0	-210729.0	-1482.0	49904.0
13	16	49	35	862	2.0	-207427.0	-1490.0	49789.0
13	16	49	35	862	3.0	-203881.0	-1460.0	49653.0
13	16	49	35	863	4.0	-200279.0	-1460.0	49491.0
13	16	49	35	864	5.0	-196501.0	-1464.0	49626.0
13	16	49	35	864	6.0	-193251.0	-1471.0	49679.0
13	16	49	35	865	7.0	-190406.0	-1460.0	49531.0
13	16	49	35	865	8.0	-188127.0	-1464.0	49748.0
13	16	49	35	866	9.0	-186463.0	-1465.0	49966.0
13	16	49	35	866	10.0	-185481.0	-1449.0	49821.0
13	16	49	35	880	11.0	-184818.0	-1452.0	50121.0
13	16	49	35	881	12.0	-184651.0	-1454.0	50435.0
13	16	49	35	881	13.0	-185112.0	-1442.0	49928.0
13	16	49	35	882	14.0	-186465.0	-1445.0	49843.0
13	16	49	35	902	15.0	-188519.0	-1442.0	50050.0
13	16	49	35	903	16.0	-191430.0	-1440.0	49736.0
13	16	49	35	904	17.0	-195400.0	-1452.0	49429.0
13	16	49	35	904	18.0	-200047.0	-1449.0	49223.0
13	16	49	35	905	19.0	-205565.0	-1424.0	49464.0
13	16	49	35	905	20.0	-211922.0	-1424.0	49109.0
13	16	49	35	906	21.0	-218724.0	-1437.0	49177.0
13	16	49	35	907	22.0	-225264.0	-1436.0	49422.0
13	16	49	35	907	23.0	-231197.0	-1442.0	48953.0
13	16	49	35	908	24.0	-236338.0	-1436.0	49254.0
13	16	49	35	908	25.0	-240381.0	-1444.0	49299.0
13	16	49	35	909	26.0	-243140.0	-1439.0	48904.0
13	16	49	35	909	27.0	-244448.0	-1452.0	48878.0
13	16	49	35	910	28.0	-244319.0	-1451.0	49098.0
13	16	49	35	911	29.0	-242940.0	-1436.0	49072.0
13	16	49	35	911	30.0	-240335.0	-1447.0	49173.0
13	16	49	35	926	31.0	-236267.0	-1440.0	48729.0
13	16	49	35	926	32.0	-231414.0	-1438.0	48851.0
13	16	49	35	927	33.0	-225896.0	-1439.0	48648.0
13	16	49	35	927	34.0	-219833.0	-1436.0	48807.0
13	16	49	35	928	35.0	-213679.0	-1441.0	48604.0
13	16	49	35	929	36.0	-207983.0	-1443.0	48652.0
13	16	49	35	929	37.0	-203243.0	-1451.0	48856.0
13	16	49	35	930	38.0	-200144.0	-1445.0	48481.0
13	16	49	35	949	39.0	-198855.0	-1425.0	48649.0
13	16	49	35	950	40.0	-198514.0	-1429.0	49188.0
13	16	49	35	950	41.0	-199296.0	-1426.0	49066.0
13	16	49	35	951	42.0	-200462.0	-1439.0	48681.0
13	16	49	35	951	43.0	-201512.0	-1429.0	48849.0
13	16	49	35	952	44.0	-202487.0	-1436.0	48894.0
13	16	49	35	952	45.0	-202379.0	-1460.0	48544.0
13	16	49	35	953	46.0	-201096.0	-1453.0	48856.0
13	16	49	35	954	47.0	-198536.0	-1451.0	49015.0
13	16	49	35	954	48.0	-194931.0	-1451.0	49069.0
13	16	49	35	955	49.0	-190644.0	-1463.0	49029.0
13	16	49	35	955	50.0	-185251.0	-1463.0	49336.0
13	16	49	35	956	51.0	-179369.0	-1461.0	49241.0
13	16	49	35	956	52.0	-173531.0	-1444.0	48951.0
13	16	49	35	957	53.0	-167793.0	-1437.0	49234.0
13	16	49	35	972	54.0	-162996.0	-1445.0	49270.0
13	16	49	35	972	55.0	-159436.0	-1456.0	49114.0
13	16	49	35	973	56.0	-157306.0	-1436.0	48973.0
13	16	49	35	973	57.0	-156378.0	-1411.0	49204.0
13	16	49	35	974	58.0	-156677.0	-1427.0	49100.0
13	16	49	35	975	59.0	-158099.0	-1429.0	49056.0
13	16	49	35	975	60.0	-160460.0	-1437.0	48986.0
13	16	49	35	995	61.0	-164181.0	-1430.0	48856.0
13	16	49	35	996	62.0	-168869.0	-1448.0	48854.0
13	16	49	35	996	63.0	-173647.0	-1444.0	48685.0
13	16	49	35	997	64.0	-178377.0	-1447.0	48694.0
13	16	49	35	997	65.0	-183486.0	-1446.0	49074.0
13	16	49	35	998	66.0	-189507.0	-1429.0	48560.0
13	16	49	35	998	67.0	-197036.0	-1442.0	48477.0
13	16	49	35	999	68.0	-205182.0	-1449.0	48798.0
13	16	49	36	0	69.0	-213061.0	-1446.0	48908.0
13	16	49	36	0	70.0	-220242.0	-1429.0	48798.0
13	16	49	36	1	71.0	-226809.0	-1432.0	48705.0
13	16	49	36	1	72.0	-232104.0	-1446.0	48740.0
13	16	49	36	18	73.0	-235654.0	-1421.0	48652.0
13	16	49	36	19	74.0	-237355.0	-1451.0	48748.0
13	16	49	36	20	75.0	-237381.0	-1447.0	48991.0
13	16	49	36	20	76.0	-236191.0	-1426.0	48970.0
13	16	49	36	21	77.0	-233885.0	-1451.0	48486.0
13	16	49	36	21	78.0	-230322.0	-1461.0	48594.0
13	16	49	36	22	79.0	-225437.0	-1451.0	48513.0
13	16	49	36	23	80.0	-219577.0	-1450.0	48240.0
13	16	49	36	23	81.0	-212901.0	-1447.0	48140.0
13	16	49	36	24	82.0	-206194.0	-1433.0	48259.0
13	16	49	36	24	83.0	-199798.0	-1433.0	47779.0
13	16	49	36	25	84.0	-194295.0	-1420.0	47721.0
13	16	49	36	26	85.0	-189296.0	-1433.0	47352.0
13	16	49	36	26	86.0	-184620.0	-1436.0	46726.0
13	16	49	36	27	87.0	-181012.0	-1431.0	46463.0
13	16	49	36	27	88.0	-178587.0	-1439.0	46623.0
13	16	49	36	28	89.0	-177791.0	-1437.0	46684.0
13	16	49	36	41	90.0	-178584.0	-1441.0	46403.0
13	16	49	36	41	91.0	-179965.0	-1443.0	45955.0
13	16	49	36	42	92.0	-182029.0	-1431.0	45813.0
13	16	49	36	42	93.0	-184828.0	-1436.0	45884.0
13	16	49	36	43	94.0	-187885.0	-1430.0	45749.0
13	16	49	36	44	95.0	-191639.0	-1434.0	45219.0
13	16	49	36	44	96.0	-196469.0	-1441.0	45278.0
13	16	49	36	45	97.0	-202218.0	-1430.0	45531.0
13	16	49	36	45	98.0	-207989.0	-1427.0	45141.0
13	16	49	36	64	99.0	-213444.0	-1432.0	44854.0
13	16	49	36	65	100.0	-218270.0	-1432.0	44982.0
13	16	49	36	66	101.0	-222167.0	-1435.0	45391.0
13	16	49	36	66	102.0	-224597.0	-1444.0	45881.0
13	16	49	36	67	103.0	-226174.0	-1429.0	46299.0
13	16	49	36	68	104.0	-226895.0	-1426.0	45974.0
13	16	49	36	68	105.0	-226257.0	-1445.0	45602.0
13	16	49	36	69	106.0	-224363.0	-1435.0	45711.0
13	16	49	36	69	107.0	-221547.0	-1437.0	45617.0
13	16	49	36	70	108.0	-218352.0	-1434.0	45369.0
13	16	49	36	71	109.0	-215394.0	-1439.0	45391.0
13	16	49	36	71	110.0	-212927.0	-1442.0	45411.0
13	16	49	36	72	111.0	-210659.0	-1432.0	45359.0
13	16	49	36	72	112.0	-208647.0	-1442.0	45236.0
13	16	49	36	73	113.0	-207032.0	-1442.0	45497.0
13	16	49	36	87	114.0	-206206.0	-1448.0	45156.0
13	16	49	36	87	115.0	-206219.0	-1442.0	45084.0
13	16	49	36	88	116.0	-206589.0	-1456.0	45657.0
13	16	49	36	89	117.0	-206727.0	-1466.0	45961.0
13	16	49	36	89	118.0	-206322.0	-1455.0	45979.0
13	16	49	36	90	119.0	-205999.0	-1444.0	46126.0
13	16	49	36	90	120.0	-206012.0	-1449.0	46738.0
13	16	49	36	111	121.0	-206129.0	-1457.0	46668.0
13	16	49	36	111	122.0	-206151.0	-1437.0	46338.0
13	16	49	36	112	123.0	-206069.0	-1447.0	46356.0
13	16	49	36	113	124.0	-206064.0	-1462.0	46629.0
13	16	49	36	113	125.0	-205497.0	-1437.0	46745.0
13	16	49	36	114	126.0	-204132.0	-1440.0	46738.0
13	16	49	36	115	127.0	-202254.0	-1447.0	46295.0
13	16	49	36	115	128.0	-199961.0	-1427.0	46548.0
13	16	49	36	116	129.0	-197751.0	-1439.0	46466.0
13	16	49	36	117	130.0	-196176.0	-1447.0	46081.0
13	16	49	36	117	131.0	-195119.0	-1437.0	46311.0
13	16	49	36	118	132.0	-194770.0	-1454.0	46585.0
13	16	49	36	119	133.0	-195022.0	-1449.0	46432.0
13	16	49	36	119	134.0	-195277.0	-1451.0	46605.0
13	16	49	36	120	135.0	-195782.0	-1452.0	46446.0
13	16	49	36	133	136.0	-196299.0	-1474.0	46606.0
13	16	49	36	134	137.0	-196211.0	-1476.0	46691.0
13	16	49	36	135	138.0	-195499.0	-1471.0	46793.0
13	16	49	36	135	139.0	-193902.0	-1451.0	46686.0
13	16	49	36	136	140.0	-191579.0	-1449.0	46388.0
13	16	49	36	136	141.0	-188791.0	-1446.0	46654.0
13	16	49	36	137	142.0	-185331.0	-1457.0	47015.0
13	16	49	36	137	143.0	-182214.0	-1455.0	46769.0
13	16	49	36	172	144.0	-179939.0	-1447.0	46818.0
13	16	49	36	174	145.0	-178614.0	-1440.0	46804.0
13	16	49	36	175	146.0	-179010.0	-1451.0	46638.0
13	16	49	36	176	147.0	-180697.0	-1451.0	46544.0
13	16	49	36	176	148.0	-183094.0	-1433.0	46833.0
13	16	49	36	177	149.0	-185836.0	-1445.0	46546.0
13	16	49	36	177	150.0	-188610.0	-1446.0	46054.0
13	16	49	36	178	151.0	-191385.0	-1428.0	46012.0
13	16	49	36	179	152.0	-194124.0	-1420.0	46279.0
13	16	49	36	179	153.0	-196557.0	-1423.0	45838.0
13	16	49	36	180	154.0	-197978.0	-1453.0	46131.0
13	16	49	36	180	155.0	-198682.0	-1474.0	46040.0
13	16	49	36	181	156.0	-198587.0	-1457.0	45829.0
13	16	49	36	181	157.0	-197576.0	-1452.0	45887.0
13	16	49	36	182	158.0	-195947.0	-1445.0	45740.0
13	16	49	36	183	159.0	-193542.0	-1433.0	45499.0
13	16	49	36	183	164.0	-177772.0	-1452.0	44561.0
13	16	49	36	184	165.0	-175186.0	-1468.0	43923.0
13	16	49	36	184	166.0	-173290.0	-1474.0	43712.0
13	16	49	36	197	167.0	-172404.0	-1460.0	43406.0
13	16	49	36	197	168.0	-172381.0	-1447.0	42738.0
13	16	49	36	198	169.0	-173261.0	-1450.0	41530.0
13	16	49	36	198	170.0	-175315.0	-1441.0	40876.0
13	16	49	36	199	171.0	-178435.0	-1452.0	39068.0
13	16	49	36	199	172.0	-182505.0	-1456.0	37148.0
13	16	49	36	220	173.0	-187198.0	-1462.0	36278.0
13	16	49	36	220	174.0	-192754.0	-1454.0	35120.0
13	16	49	36	221	175.0	-198427.0	-1451.0	33397.0
13	16	49	36	221	176.0	-203469.0	-1457.0	32909.0
13	16	49	36	222	177.0	-208357.0	-1441.0	33665.0
13	16	49	36	223	178.0	-213950.0	-1426.0	33703.0
13	16	49	36	223	179.0	-220166.0	-1437.0	34948.0
13	16	49	36	224	180.0	-226308.0	-1447.0	36548.0
13	16	49	36	224	181.0	-231616.0	-1451.0	37433.0
13	16	49	36	225	182.0	-235556.0	-1453.0	38858.0
13	16	49	36	225	183.0	-238601.0	-1449.0	40633.0
13	16	49	36	226	184.0	-241055.0	-1450.0	41709.0
13	16	49	36	226	185.0	-242171.0	-1441.0	43189.0
13	16	49	36	227	186.0	-242173.0	-1448.0	44930.0
13	16	49	36	228	187.0	-241765.0	-1470.0	48088.0
13	16	49	36	244	188.0	-241651.0	-1466.0	51206.0
13	16	49	36	245	189.0	-241942.0	-1459.0	54053.0
13	16	49	36	267	190.0	-242133.0	-1466.0	56126.0
13	16	49	36	268	191.0	-241897.0	-1452.0	57394.0
13	16	49	36	268	192.0	-241438.0	-1459.0	58248.0
13	16	49	36	269	193.0	-241591.0	-1450.0	58601.0
13	16	49	36	269	194.0	-242049.0	-1446.0	58569.0
13	16	49	36	270	195.0	-241777.0	-1441.0	57341.0
13	16	49	36	271	196.0	-240531.0	-1448.0	55682.0
13	16	49	36	271	197.0	-238675.0	-1440.0	53801.0
13	16	49	36	272	198.0	-235866.0	-1447.0	52669.0
13	16	49	36	272	199.0	-231937.0	-1477.0	50848.0
13	16	49	36	273	200.0	-227383.0	-1481.0	48965.0
13	16	49	36	273	201.0	-222708.0	-1459.0	47432.0
13	16	49	36	274	202.0	-218732.0	-1473.0	45681.0
13	16	49	36	274	203.0	-216382.0	-1460.0	44389.0
13	16	49	36	275	204.0	-215919.0	-1452.0	43678.0
13	16	49	36	276	205.0	-216939.0	-1455.0	42863.0
13	16	49	36	276	206.0	-219577.0	-1472.0	42370.0
13	16	49	36	277	207.0	-223894.0	-1475.0	41674.0
13	16	49	36	277	208.0	-228428.0	-1484.0	41654.0
13	16	49	36	278	209.0	-230219.0	-1500.0	41557.0
13	16	49	36	278	210.0	-228644.0	-1507.0	41084.0
13	16	49	36	279	211.0	-224042.0	-1494.0	40998.0
13	16	49	36	280	212.0	-217412.0	-1499.0	40938.0
13	16	49	36	280	213.0	-209968.0	-1509.0	40753.0
13	16	49	36	281	214.0	-201959.0	-1511.0	40824.0
13	16	49	36	281	215.0	-194317.0	-1520.0	40646.0
13	16	49	36	282	216.0	-187114.0	-1517.0	40701.0
13	16	49	36	283	217.0	-181039.0	-1530.0	40655.0
13	16	49	36	283	218.0	-176770.0	-1541.0	40380.0
13	16	49	36	307	219.0	-174672.0	-1544.0	40256.0
13	16	49	36	308	220.0	-175329.0	-1547.0	40168.0
13	16	49	36	329	221.0	-177484.0	-1534.0	40177.0
13	16	49	36	330	222.0	-180259.0	-1521.0	39814.0
13	16	49	36	331	223.0	-183759.0	-1529.0	39823.0
13	16	49	36	331	224.0	-187754.0	-1529.0	39977.0
13	16	49	36	332	225.0	-191849.0	-1554.0	39741.0
13	16	49	36	332	226.0	-195747.0	-1556.0	39491.0
13	16	49	36	333	227.0	-199738.0	-1579.0	39675.0
13	16	49	36	333	228.0	-203339.0	-1584.0	39555.0
13	16	49	36	334	229.0	-206577.0	-1587.0	39584.0
13	16	49	36	334	230.0	-209667.0	-1574.0	39701.0
13	16	49	36	335	231.0	-212328.0	-1580.0	39220.0
13	16	49	36	336	232.0	-214942.0	-1604.0	39045.0
13	16	49	36	336	233.0	-217712.0	-1607.0	39166.0
13	16	49	36	337	234.0	-220574.0	-1595.0	38923.0
13	16	49	36	337	235.0	-223456.0	-1599.0	38641.0
13	16	49	36	338	236.0	-225834.0	-1603.0	38869.0
13	16	49	36	338	239.0	-227565.0	-1627.0	39002.0
13	16	49	36	339	240.0	-226759.0	-1639.0	38924.0
13	16	49	36	340	241.0	-225518.0	-1650.0	38582.0
13	16	49	36	340	242.0	-224047.0	-1635.0	38161.0
13	16	49	36	341	243.0	-221818.0	-1631.0	38358.0
13	16	49	36	341	244.0	-219377.0	-1634.0	38344.0
13	16	49	36	342	245.0	-216431.0	-1667.0	38034.0
13	16	49	36	342	246.0	-212911.0	-1651.0	37843.0
13	16	49	36	343	247.0	-209020.0	-1649.0	37758.0
13	16	49	36	353	248.0	-204304.0	-1667.0	37543.0
13	16	49	36	354	249.0	-199124.0	-1674.0	37698.0
13	16	49	36	354	250.0	-194276.0	-1669.0	37605.0
13	16	49	36	355	251.0	-190024.0	-1679.0	37483.0
