13	16	35	0	198	31.0	-193770.0	-2152.0	192669.0
13	16	35	0	200	32.0	-194404.0	-2175.0	192494.0
13	16	35	0	202	33.0	-194809.0	-2187.0	192346.0
13	16	35	0	204	34.0	-195054.0	-2199.0	191841.0
13	16	35	0	206	35.0	-195408.0	-2210.0	190486.0
13	16	35	0	208	36.0	-195788.0	-2210.0	190206.0
13	16	35	0	210	37.0	-196138.0	-2231.0	190123.0
13	16	35	0	212	38.0	-196244.0	-2249.0	189513.0
13	16	35	0	213	39.0	-196132.0	-2273.0	189090.0
13	16	35	0	215	40.0	-196002.0	-2281.0	189219.0
13	16	35	0	216	41.0	-195609.0	-2287.0	189458.0
13	16	35	0	217	42.0	-195208.0	-2325.0	188974.0
13	16	35	0	218	43.0	-194519.0	-2331.0	188299.0
13	16	35	0	219	44.0	-193927.0	-2340.0	187773.0
13	16	35	0	220	45.0	-193309.0	-2354.0	187144.0
13	16	35	0	221	46.0	-192966.0	-2376.0	186508.0
13	16	35	0	230	47.0	-193072.0	-2403.0	185563.0
13	16	35	0	230	48.0	-193444.0	-2421.0	185131.0
13	16	35	0	231	49.0	-193729.0	-2428.0	184630.0
13	16	35	0	231	50.0	-194332.0	-2442.0	184143.0
13	16	35	0	261	51.0	-195291.0	-2462.0	183640.0
13	16	35	0	305	52.0	-196516.0	-2471.0	183039.0
13	16	35	0	331	53.0	-197894.0	-2485.0	182777.0
13	16	35	0	331	54.0	-198993.0	-2504.0	182786.0
13	16	35	0	332	55.0	-200029.0	-2534.0	182370.0
13	16	35	0	332	56.0	-201149.0	-2558.0	181796.0
13	16	35	0	333	57.0	-202466.0	-2571.0	181886.0
13	16	35	0	334	58.0	-203561.0	-2606.0	182394.0
13	16	35	0	334	59.0	-204711.0	-2609.0	181881.0
13	16	35	0	335	60.0	-205817.0	-2632.0	181999.0
13	16	35	0	335	61.0	-206536.0	-2640.0	181671.0
13	16	35	0	355	62.0	-206899.0	-2662.0	181167.0
13	16	35	0	356	63.0	-206634.0	-2690.0	180889.0
13	16	35	0	356	64.0	-205700.0	-2704.0	180714.0
13	16	35	0	357	65.0	-204529.0	-2706.0	180237.0
13	16	35	0	357	66.0	-203335.0	-2719.0	179914.0
13	16	35	0	358	90.0	-265584.0	-3089.0	164046.0
13	16	35	0	359	91.0	-277342.0	-3094.0	162600.0
13	16	35	0	359	92.0	-287097.0	-3122.0	162166.0
13	16	35	0	360	93.0	-293374.0	-3139.0	161250.0
13	16	35	0	360	94.0	-294126.0	-3149.0	159589.0
13	16	35	0	361	95.0	-289036.0	-3147.0	160263.0
13	16	35	0	361	96.0	-278334.0	-3173.0	165054.0
13	16	35	0	362	97.0	-262921.0	-3196.0	171357.0
13	16	35	0	362	98.0	-244557.0	-3204.0	175161.0
13	16	35	0	363	99.0	-225531.0	-3201.0	176426.0
13	16	35	0	363	112.0	-186859.0	-3386.0	170852.0
13	16	35	0	364	113.0	-205802.0	-3414.0	169691.0
13	16	35	0	364	114.0	-226205.0	-3419.0	169029.0
13	16	35	0	365	115.0	-241018.0	-3400.0	168268.0
13	16	35	0	366	116.0	-247856.0	-3429.0	167698.0
13	16	35	0	366	117.0	-249297.0	-3457.0	167571.0
13	16	35	0	367	118.0	-249712.0	-3478.0	167494.0
13	16	35	0	395	119.0	-252356.0	-3492.0	166890.0
13	16	35	0	395	120.0	-258446.0	-3495.0	166289.0
13	16	35	0	396	121.0	-267585.0	-3516.0	166058.0
13	16	35	0	397	122.0	-275571.0	-3534.0	165538.0
13	16	35	0	397	123.0	-281387.0	-3557.0	164895.0
13	16	35	0	398	124.0	-279290.0	-3554.0	164617.0
13	16	35	0	398	125.0	-270293.0	-3586.0	163837.0
13	16	35	0	399	126.0	-255614.0	-3594.0	163609.0
13	16	35	0	400	127.0	-241914.0	-3594.0	163776.0
13	16	35	0	400	128.0	-232646.0	-3639.0	163753.0
13	16	35	0	401	129.0	-227334.0	-3661.0	163449.0
13	16	35	0	401	130.0	-227822.0	-3671.0	163728.0
13	16	35	0	402	131.0	-234908.0	-3684.0	163190.0
13	16	35	0	402	132.0	-244849.0	-3694.0	162657.0
13	16	35	0	403	133.0	-254402.0	-3711.0	162425.0
13	16	35	0	404	135.0	-264796.0	-3734.0	161441.0
13	16	35	0	404	136.0	-263087.0	-3741.0	161075.0
13	16	35	0	405	137.0	-255150.0	-3761.0	160745.0
13	16	35	0	405	138.0	-244501.0	-3779.0	160848.0
13	16	35	0	406	139.0	-232831.0	-3782.0	160536.0
13	16	35	0	406	140.0	-219278.0	-3799.0	160301.0
13	16	35	0	440	141.0	-201992.0	-3834.0	159935.0
13	16	35	0	441	142.0	-181476.0	-3850.0	159718.0
13	16	35	0	441	143.0	-159257.0	-3850.0	159273.0
13	16	35	0	442	144.0	-135484.0	-3877.0	158837.0
13	16	35	0	443	145.0	-113856.0	-3905.0	158647.0
13	16	35	0	443	146.0	-97361.0	-3901.0	158059.0
13	16	35	0	444	147.0	-83757.0	-3911.0	157886.0
13	16	35	0	444	148.0	-71412.0	-3917.0	158229.0
13	16	35	0	445	149.0	-62718.0	-3931.0	158183.0
13	16	35	0	445	150.0	-59493.0	-3952.0	157668.0
13	16	35	0	446	151.0	-60349.0	-3982.0	157481.0
13	16	35	0	446	152.0	-63379.0	-3974.0	157016.0
13	16	35	0	485	153.0	-68303.0	-3974.0	156233.0
13	16	35	0	485	154.0	-75199.0	-3992.0	155899.0
13	16	35	0	486	155.0	-83739.0	-4026.0	155478.0
13	16	35	0	487	157.0	-101773.0	-4079.0	155426.0
13	16	35	0	487	158.0	-110310.0	-4078.0	155484.0
13	16	35	0	488	159.0	-118472.0	-4112.0	155362.0
13	16	35	0	489	160.0	-125568.0	-4121.0	155515.0
13	16	35	0	489	161.0	-131787.0	-4127.0	154551.0
13	16	35	0	490	162.0	-136933.0	-4124.0	153324.0
13	16	35	0	490	163.0	-141530.0	-4131.0	152219.0
13	16	35	0	491	164.0	-145499.0	-4164.0	150759.0
13	16	35	0	491	165.0	-149251.0	-4172.0	149963.0
13	16	35	0	492	166.0	-152965.0	-4204.0	149882.0
13	16	35	0	492	167.0	-156431.0	-4215.0	149884.0
13	16	35	0	493	168.0	-159487.0	-4233.0	149656.0
13	16	35	0	494	169.0	-162462.0	-4251.0	149771.0
13	16	35	0	494	180.0	-173314.0	-4441.0	148158.0
13	16	35	0	495	181.0	-174257.0	-4466.0	148471.0
13	16	35	0	495	182.0	-175506.0	-4467.0	148484.0
13	16	35	0	496	183.0	-177105.0	-4476.0	147796.0
13	16	35	0	496	184.0	-178941.0	-4479.0	147700.0
13	16	35	0	497	185.0	-180746.0	-4489.0	147629.0
13	16	35	0	505	186.0	-182510.0	-4498.0	147696.0
13	16	35	0	529	187.0	-184212.0	-4519.0	147989.0
13	16	35	0	530	188.0	-185524.0	-4529.0	147818.0
13	16	35	0	574	189.0	-186336.0	-4529.0	147439.0
13	16	35	0	575	190.0	-186971.0	-4558.0	147573.0
13	16	35	0	576	191.0	-187536.0	-4561.0	147884.0
13	16	35	0	576	192.0	-187306.0	-4569.0	147318.0
13	16	35	0	577	193.0	-186759.0	-4582.0	146613.0
13	16	35	0	578	194.0	-186177.0	-4609.0	146021.0
13	16	35	0	578	195.0	-185283.0	-4608.0	146334.0
13	16	35	0	579	196.0	-183935.0	-4614.0	146256.0
13	16	35	0	580	197.0	-183096.0	-4628.0	146494.0
13	16	35	0	580	198.0	-182236.0	-4632.0	146663.0
13	16	35	0	581	199.0	-181389.0	-4637.0	147068.0
13	16	35	0	594	200.0	-180466.0	-4635.0	146924.0
13	16	35	0	595	201.0	-179811.0	-4643.0	146788.0
13	16	35	0	595	202.0	-179409.0	-4635.0	146711.0
13	16	35	0	596	203.0	-178922.0	-4622.0	146642.0
13	16	35	0	597	225.0	-217007.0	-4099.0	143753.0
13	16	35	0	597	226.0	-217370.0	-4054.0	143699.0
13	16	35	0	598	227.0	-217645.0	-4024.0	143405.0
13	16	35	0	598	228.0	-218085.0	-3987.0	143156.0
13	16	35	0	599	229.0	-218317.0	-3920.0	143279.0
13	16	35	0	599	230.0	-218401.0	-3886.0	143019.0
13	16	35	0	620	231.0	-217925.0	-3861.0	142338.0
13	16	35	0	621	232.0	-217337.0	-3805.0	142029.0
13	16	35	0	621	233.0	-216349.0	-3751.0	141246.0
13	16	35	0	622	234.0	-214844.0	-3712.0	140671.0
13	16	35	0	622	235.0	-213310.0	-3649.0	140856.0
13	16	35	0	623	236.0	-211663.0	-3611.0	140108.0
13	16	35	0	624	237.0	-209832.0	-3584.0	139481.0
13	16	35	0	625	238.0	-208048.0	-3536.0	139689.0
13	16	35	0	625	239.0	-206314.0	-3482.0	139708.0
13	16	35	0	626	240.0	-204967.0	-3449.0	138779.0
13	16	35	0	627	241.0	-203837.0	-3413.0	138348.0
13	16	35	0	627	242.0	-202613.0	-3384.0	138000.0
13	16	35	0	628	243.0	-200931.0	-3338.0	137134.0
13	16	35	0	628	244.0	-199509.0	-3296.0	136356.0
13	16	35	0	629	245.0	-198150.0	-3260.0	136266.0
13	16	35	0	629	247.0	-194317.0	-3163.0	135542.0
13	16	35	0	666	248.0	-191714.0	-3136.0	135549.0
13	16	35	0	666	249.0	-189189.0	-3099.0	135176.0
13	16	35	0	667	250.0	-186965.0	-3054.0	134879.0
13	16	35	0	668	251.0	-185261.0	-3023.0	134404.0
13	16	35	0	710	252.0	-183878.0	-2996.0	134413.0
13	16	35	0	711	253.0	-182629.0	-2946.0	133951.0
13	16	35	0	711	254.0	-181719.0	-2916.0	133136.0
13	16	35	0	712	255.0	-181596.0	-2891.0	133039.0
13	16	35	0	713	0.0	-182024.0	-2869.0	133280.0
13	16	35	0	713	1.0	-182907.0	-2849.0	132987.0
13	16	35	0	714	2.0	-184392.0	-2822.0	132799.0
13	16	35	0	715	3.0	-186562.0	-2787.0	132766.0
13	16	35	0	715	4.0	-189781.0	-2766.0	132899.0
13	16	35	0	716	5.0	-193917.0	-2740.0	132567.0
13	16	35	0	716	6.0	-198571.0	-2697.0	132460.0
13	16	35	0	717	7.0	-203711.0	-2656.0	132174.0
13	16	35	0	718	14.0	-226197.0	-2524.0	130494.0
13	16	35	0	718	15.0	-227719.0	-2507.0	130404.0
13	16	35	0	802	16.0	-229406.0	-2484.0	130366.0
13	16	35	0	803	36.0	-193147.0	-2245.0	126725.0
13	16	35	0	803	37.0	-193678.0	-2254.0	126571.0
13	16	35	0	804	38.0	-194241.0	-2230.0	125864.0
13	16	35	0	805	39.0	-194251.0	-2227.0	125889.0
13	16	35	0	805	40.0	-193320.0	-2208.0	125948.0
13	16	35	0	806	41.0	-192746.0	-2197.0	125919.0
13	16	35	0	808	42.0	-192203.0	-2175.0	126233.0
13	16	35	0	808	43.0	-191924.0	-2185.0	126691.0
13	16	35	0	809	44.0	-191942.0	-2182.0	126322.0
13	16	35	0	810	45.0	-192487.0	-2177.0	126089.0
13	16	35	0	810	46.0	-193577.0	-2164.0	125949.0
13	16	35	0	812	47.0	-194682.0	-2141.0	125176.0
13	16	35	0	813	48.0	-196449.0	-2150.0	124609.0
13	16	35	0	813	49.0	-198652.0	-2148.0	124236.0
13	16	35	0	814	50.0	-201113.0	-2139.0	123881.0
13	16	35	0	815	82.0	-245919.0	-2074.0	124187.0
13	16	35	0	815	83.0	-243815.0	-2076.0	124424.0
13	16	35	0	816	84.0	-241499.0	-2074.0	124291.0
13	16	35	0	817	85.0	-238932.0	-2077.0	124088.0
13	16	35	0	817	86.0	-235837.0	-2063.0	123988.0
13	16	35	0	818	87.0	-232594.0	-2054.0	123653.0
13	16	35	0	818	88.0	-229540.0	-2059.0	123199.0
13	16	35	0	890	89.0	-226454.0	-2052.0	122982.0
13	16	35	0	891	90.0	-223449.0	-2060.0	123033.0
13	16	35	0	892	91.0	-220416.0	-2061.0	123291.0
13	16	35	0	892	92.0	-217414.0	-2072.0	123403.0
13	16	35	0	893	93.0	-214902.0	-2047.0	123849.0
13	16	35	0	894	94.0	-212842.0	-2061.0	124120.0
13	16	35	0	895	95.0	-211092.0	-2062.0	123935.0
13	16	35	0	895	96.0	-209527.0	-2067.0	123773.0
13	16	35	0	896	97.0	-208232.0	-2076.0	123303.0
13	16	35	0	897	98.0	-207706.0	-2059.0	122349.0
13	16	35	0	898	99.0	-207644.0	-2056.0	122299.0
13	16	35	0	898	100.0	-208022.0	-2051.0	122207.0
13	16	35	0	899	101.0	-208559.0	-2062.0	122088.0
13	16	35	0	900	102.0	-209551.0	-2076.0	121886.0
13	16	35	0	900	103.0	-210516.0	-2074.0	122235.0
13	16	35	0	901	104.0	-211620.0	-2069.0	122353.0
13	16	35	0	902	105.0	-212617.0	-2067.0	122337.0
13	16	35	0	902	106.0	-213880.0	-2062.0	122258.0
13	16	35	0	903	107.0	-214922.0	-2041.0	121674.0
13	16	35	0	904	108.0	-215568.0	-2049.0	120919.0
13	16	35	0	905	109.0	-215573.0	-2036.0	120668.0
13	16	35	0	905	110.0	-215251.0	-2043.0	120607.0
13	16	35	0	906	111.0	-214162.0	-2049.0	120384.0
13	16	35	0	907	112.0	-212187.0	-2042.0	120646.0
13	16	35	0	907	113.0	-209958.0	-2051.0	120757.0
13	16	35	0	908	114.0	-207137.0	-2039.0	120693.0
13	16	35	0	908	115.0	-203540.0	-2026.0	120821.0
13	16	35	0	909	116.0	-199751.0	-2037.0	120576.0
13	16	35	0	909	117.0	-195446.0	-2031.0	119863.0
13	16	35	0	910	118.0	-191308.0	-2028.0	119181.0
13	16	35	0	910	119.0	-187689.0	-2032.0	118761.0
13	16	35	0	911	120.0	-184145.0	-2029.0	118739.0
13	16	35	0	912	121.0	-181396.0	-2026.0	119040.0
13	16	35	0	912	122.0	-179784.0	-2024.0	119092.0
13	16	35	0	913	123.0	-179722.0	-2036.0	119451.0
13	16	35	0	913	124.0	-180171.0	-2035.0	119449.0
13	16	35	0	914	126.0	-182857.0	-2026.0	119087.0
13	16	35	0	914	127.0	-184684.0	-2009.0	118434.0
13	16	35	0	915	128.0	-186501.0	-2016.0	117723.0
13	16	35	0	915	129.0	-189125.0	-2025.0	117816.0
13	16	35	0	916	130.0	-191713.0	-2026.0	117796.0
13	16	35	0	916	131.0	-194046.0	-1999.0	117632.0
13	16	35	0	917	132.0	-195849.0	-2019.0	117581.0
13	16	35	0	937	133.0	-196816.0	-2026.0	118201.0
13	16	35	0	938	134.0	-197224.0	-1998.0	117915.0
13	16	35	0	939	135.0	-197087.0	-1997.0	117728.0
13	16	35	0	940	136.0	-197083.0	-2012.0	117547.0
13	16	35	0	940	137.0	-196857.0	-1992.0	116905.0
13	16	35	0	941	138.0	-196477.0	-1983.0	116269.0
13	16	35	0	942	139.0	-196891.0	-2004.0	116148.0
13	16	35	0	942	140.0	-197166.0	-2011.0	116197.0
13	16	35	0	943	141.0	-197363.0	-1997.0	116131.0
13	16	35	0	944	142.0	-195016.0	-2014.0	116188.0
13	16	35	0	944	143.0	-190334.0	-2021.0	116495.0
13	16	35	0	945	144.0	-185355.0	-2016.0	116523.0
13	16	35	0	946	145.0	-179882.0	-2009.0	116541.0
13	16	35	0	946	146.0	-180948.0	-1993.0	116276.0
13	16	35	0	947	147.0	-182780.0	-2010.0	115788.0
13	16	35	0	947	149.0	-191800.0	-2021.0	114566.0
13	16	35	0	948	150.0	-196927.0	-2003.0	114579.0
13	16	35	0	949	151.0	-200771.0	-2000.0	114965.0
13	16	35	0	949	152.0	-203734.0	-2026.0	115096.0
13	16	35	0	950	153.0	-205528.0	-2035.0	115773.0
13	16	35	0	950	154.0	-206394.0	-2030.0	116017.0
13	16	35	1	26	155.0	-206689.0	-2031.0	115908.0
13	16	35	1	27	156.0	-206224.0	-2018.0	115466.0
13	16	35	1	28	157.0	-204306.0	-2017.0	115254.0
13	16	35	1	28	158.0	-202941.0	-2035.0	114488.0
13	16	35	1	29	159.0	-202791.0	-2027.0	114366.0
13	16	35	1	30	160.0	-202853.0	-2012.0	115027.0
13	16	35	1	30	161.0	-202981.0	-2014.0	115703.0
13	16	35	1	31	162.0	-203541.0	-2029.0	115833.0
13	16	35	1	31	163.0	-204426.0	-2041.0	116488.0
13	16	35	1	32	164.0	-205420.0	-2037.0	116709.0
13	16	35	1	33	165.0	-206464.0	-2041.0	116937.0
13	16	35	1	33	166.0	-207055.0	-2052.0	117091.0
13	16	35	1	34	167.0	-206777.0	-2066.0	116717.0
13	16	35	1	34	168.0	-206090.0	-2054.0	116238.0
13	16	35	1	35	169.0	-204867.0	-2051.0	116572.0
13	16	35	1	36	194.0	-170960.0	-2274.0	82936.0
13	16	35	1	36	195.0	-171238.0	-2286.0	82688.0
13	16	35	1	37	196.0	-171576.0	-2298.0	82322.0
13	16	35	1	38	197.0	-171729.0	-2316.0	81884.0
13	16	35	1	38	198.0	-172337.0	-2332.0	80793.0
13	16	35	1	39	199.0	-173042.0	-2331.0	80176.0
13	16	35	1	70	200.0	-173471.0	-2337.0	80255.0
13	16	35	1	71	201.0	-174867.0	-2357.0	80185.0
13	16	35	1	72	202.0	-177234.0	-2396.0	79718.0
13	16	35	1	73	203.0	-179329.0	-2415.0	79479.0
13	16	35	1	73	204.0	-182132.0	-2404.0	79128.0
13	16	35	1	74	205.0	-185061.0	-2406.0	78722.0
13	16	35	1	75	206.0	-187189.0	-2411.0	77454.0
13	16	35	1	75	207.0	-189672.0	-2429.0	76295.0
13	16	35	1	76	208.0	-192767.0	-2436.0	75530.0
13	16	35	1	76	209.0	-195910.0	-2450.0	74910.0
13	16	35	1	77	210.0	-198780.0	-2451.0	74608.0
13	16	35	1	78	211.0	-201352.0	-2466.0	74538.0
13	16	35	1	78	212.0	-203727.0	-2485.0	74101.0
13	16	35	1	79	213.0	-205734.0	-2511.0	73440.0
13	16	35	1	80	214.0	-207303.0	-2538.0	73582.0
13	16	35	1	80	216.0	-209046.0	-2540.0	72766.0
13	16	35	1	81	217.0	-209632.0	-2557.0	72225.0
13	16	35	1	81	218.0	-210012.0	-2551.0	72243.0
13	16	35	1	82	219.0	-209962.0	-2586.0	72363.0
13	16	35	1	83	220.0	-209171.0	-2610.0	73167.0
13	16	35	1	83	221.0	-208110.0	-2609.0	74306.0
13	16	35	1	114	222.0	-206824.0	-2630.0	75083.0
13	16	35	1	115	223.0	-205287.0	-2636.0	76491.0
13	16	35	1	116	224.0	-203505.0	-2663.0	77310.0
13	16	35	1	117	225.0	-201807.0	-2664.0	77178.0
13	16	35	1	117	226.0	-200071.0	-2672.0	76864.0
13	16	35	1	118	227.0	-198564.0	-2687.0	76564.0
13	16	35	1	119	228.0	-197378.0	-2720.0	76179.0
13	16	35	1	119	229.0	-196872.0	-2722.0	76071.0
13	16	35	1	120	230.0	-196735.0	-2743.0	76251.0
13	16	35	1	121	231.0	-196515.0	-2757.0	76019.0
13	16	35	1	122	232.0	-196826.0	-2773.0	76020.0
13	16	35	1	122	233.0	-197424.0	-2782.0	76031.0
13	16	35	1	123	234.0	-197951.0	-2811.0	75978.0
13	16	35	1	124	235.0	-197787.0	-2824.0	75991.0
13	16	35	1	124	236.0	-198015.0	-2820.0	75883.0
13	16	35	1	125	238.0	-198939.0	-2841.0	74716.0
13	16	35	1	126	239.0	-199327.0	-2872.0	74568.0
13	16	35	1	126	240.0	-199502.0	-2876.0	74587.0
13	16	35	1	127	241.0	-199088.0	-2891.0	75119.0
13	16	35	1	127	242.0	-198769.0	-2914.0	75404.0
13	16	35	1	160	243.0	-198667.0	-2927.0	75446.0
13	16	35	1	161	244.0	-198426.0	-2949.0	76258.0
13	16	35	1	162	245.0	-198407.0	-2953.0	76563.0
13	16	35	1	162	246.0	-198700.0	-2949.0	76131.0
13	16	35	1	163	247.0	-198999.0	-2957.0	76103.0
13	16	35	1	164	248.0	-199602.0	-2976.0	75508.0
13	16	35	1	164	249.0	-200977.0	-3007.0	74845.0
13	16	35	1	165	250.0	-202401.0	-3021.0	75976.0
13	16	35	1	166	251.0	-203804.0	-3039.0	76533.0
13	16	35	1	166	252.0	-205174.0	-3035.0	76114.0
13	16	35	1	167	253.0	-206264.0	-3044.0	76338.0
13	16	35	1	168	254.0	-207064.0	-3071.0	76734.0
13	16	35	1	168	255.0	-207687.0	-3087.0	76982.0
13	16	35	1	169	0.0	-207806.0	-3080.0	76663.0
13	16	35	1	169	1.0	-206911.0	-3087.0	76808.0
13	16	35	1	170	2.0	-205601.0	-3118.0	77071.0
13	16	35	1	171	5.0	-200564.0	-3179.0	77875.0
13	16	35	1	171	6.0	-198251.0	-3155.0	78100.0
13	16	35	1	172	7.0	-196219.0	-3194.0	78282.0
13	16	35	1	173	8.0	-194042.0	-3221.0	78584.0
13	16	35	1	173	9.0	-191654.0	-3213.0	78656.0
13	16	35	1	174	10.0	-189261.0	-3224.0	78383.0
13	16	35	1	175	11.0	-188114.0	-3242.0	78233.0
13	16	35	1	251	12.0	-186701.0	-3249.0	78694.0
13	16	35	1	252	13.0	-185547.0	-3252.0	78847.0
13	16	35	1	253	14.0	-184407.0	-3262.0	79363.0
13	16	35	1	253	15.0	-183917.0	-3276.0	80085.0
13	16	35	1	254	16.0	-184047.0	-3287.0	80839.0
13	16	35	1	255	17.0	-184450.0	-3321.0	80864.0
13	16	35	1	256	18.0	-185352.0	-3334.0	80997.0
13	16	35	1	256	19.0	-186519.0	-3339.0	80809.0
13	16	35	1	258	20.0	-187997.0	-3349.0	80183.0
13	16	35	1	259	21.0	-189242.0	-3361.0	80192.0
13	16	35	1	260	22.0	-189974.0	-3396.0	80008.0
13	16	35	1	261	23.0	-191232.0	-3416.0	79509.0
13	16	35	1	261	24.0	-193441.0	-3414.0	78533.0
13	16	35	1	262	25.0	-196221.0	-3434.0	77539.0
13	16	35	1	263	26.0	-200177.0	-3457.0	76309.0
13	16	35	1	263	27.0	-205487.0	-3447.0	75709.0
13	16	35	1	264	50.0	-193279.0	-3803.0	81794.0
13	16	35	1	265	51.0	-196509.0	-3834.0	80476.0
13	16	35	1	265	52.0	-195967.0	-3832.0	80141.0
13	16	35	1	266	53.0	-197776.0	-3859.0	79422.0
13	16	35	1	266	54.0	-208279.0	-3863.0	79201.0
13	16	35	1	267	55.0	-224949.0	-3869.0	79210.0
13	16	35	1	268	56.0	-242905.0	-3884.0	79271.0
13	16	35	1	297	57.0	-257509.0	-3922.0	78753.0
13	16	35	1	298	58.0	-265757.0	-3936.0	78551.0
13	16	35	1	299	59.0	-268978.0	-3942.0	77611.0
13	16	35	1	299	60.0	-271614.0	-3949.0	76389.0
13	16	35	1	300	61.0	-276242.0	-3949.0	75711.0
13	16	35	1	301	62.0	-282633.0	-3951.0	74811.0
13	16	35	1	301	63.0	-288876.0	-3976.0	74218.0
13	16	35	1	302	64.0	-293032.0	-4002.0	74246.0
13	16	35	1	303	65.0	-293203.0	-4025.0	74130.0
13	16	35	1	304	66.0	-287311.0	-4038.0	73825.0
13	16	35	1	304	67.0	-274575.0	-4051.0	73809.0
13	16	35	1	305	68.0	-258446.0	-4067.0	73740.0
13	16	35	1	306	69.0	-243481.0	-4064.0	73423.0
13	16	35	1	306	70.0	-231516.0	-4084.0	72730.0
13	16	35	1	307	71.0	-223672.0	-4092.0	71736.0
13	16	35	1	307	72.0	-221007.0	-4114.0	71125.0
13	16	35	1	308	73.0	-224994.0	-4136.0	71025.0
13	16	35	1	309	74.0	-233457.0	-4142.0	70966.0
13	16	35	1	309	75.0	-242293.0	-4166.0	70949.0
13	16	35	1	310	76.0	-247393.0	-4180.0	70999.0
13	16	35	1	310	77.0	-249303.0	-4194.0	70479.0
13	16	35	1	311	78.0	-247884.0	-4225.0	70442.0
13	16	35	1	341	79.0	-241259.0	-4222.0	70249.0
13	16	35	1	342	80.0	-230401.0	-4230.0	69415.0
13	16	35	1	343	81.0	-217910.0	-4254.0	68516.0
13	16	35	1	344	82.0	-202738.0	-4276.0	67887.0
13	16	35	1	344	83.0	-185625.0	-4287.0	67176.0
13	16	35	1	345	84.0	-166817.0	-4316.0	67064.0
13	16	35	1	346	85.0	-146409.0	-4329.0	67493.0
13	16	35	1	346	86.0	-123472.0	-4337.0	67518.0
13	16	35	1	347	87.0	-101741.0	-4366.0	67196.0
13	16	35	1	348	88.0	-84320.0	-4401.0	67506.0
13	16	35	1	349	89.0	-70707.0	-4411.0	67156.0
13	16	35	1	349	90.0	-59814.0	-4414.0	66380.0
13	16	35	1	350	91.0	-52457.0	-4422.0	65641.0
13	16	35	1	350	92.0	-49305.0	-4434.0	65291.0
13	16	35	1	351	93.0	-49661.0	-4456.0	65048.0
13	16	35	1	352	95.0	-56342.0	-4492.0	64824.0
13	16	35	1	352	96.0	-63007.0	-4527.0	64596.0
13	16	35	1	353	97.0	-72191.0	-4545.0	64506.0
13	16	35	1	354	98.0	-82334.0	-4528.0	64493.0
13	16	35	1	354	99.0	-92872.0	-4555.0	64403.0
13	16	35	1	355	100.0	-103289.0	-4566.0	63663.0
13	16	35	1	385	101.0	-112995.0	-4566.0	62838.0
13	16	35	1	386	102.0	-121942.0	-4583.0	62451.0
13	16	35	1	387	103.0	-129927.0	-4606.0	62158.0
13	16	35	1	387	104.0	-136617.0	-4615.0	61904.0
13	16	35	1	388	105.0	-142184.0	-4623.0	62159.0
13	16	35	1	389	106.0	-147112.0	-4639.0	62479.0
13	16	35	1	390	107.0	-151434.0	-4663.0	61998.0
13	16	35	1	390	108.0	-154997.0	-4672.0	62119.0
13	16	35	1	430	109.0	-157954.0	-4677.0	62114.0
13	16	35	1	431	110.0	-160384.0	-4694.0	61152.0
13	16	35	1	432	111.0	-162244.0	-4694.0	60510.0
13	16	35	1	433	112.0	-163661.0	-4707.0	60723.0
13	16	35	1	476	113.0	-164439.0	-4737.0	60345.0
13	16	35	1	477	114.0	-164899.0	-4768.0	59951.0
13	16	35	1	478	115.0	-165497.0	-4772.0	60140.0
13	16	35	1	479	117.0	-166949.0	-4807.0	59909.0
13	16	35	1	479	118.0	-167761.0	-4830.0	60229.0
13	16	35	1	480	119.0	-168464.0	-4858.0	59801.0
13	16	35	1	481	120.0	-169410.0	-4851.0	58913.0
13	16	35	1	482	121.0	-169647.0	-4854.0	58724.0
13	16	35	1	482	122.0	-168745.0	-4863.0	58470.0
13	16	35	1	483	123.0	-168422.0	-4877.0	58171.0
13	16	35	1	484	124.0	-168484.0	-4928.0	58484.0
13	16	35	1	484	125.0	-168533.0	-4942.0	58546.0
13	16	35	1	485	140.0	-174156.0	-5137.0	56079.0
13	16	35	1	486	141.0	-174219.0	-5121.0	55554.0
13	16	35	1	486	142.0	-174550.0	-5126.0	55564.0
13	16	35	1	487	162.0	-211636.0	-4853.0	59099.0
13	16	35	1	488	163.0	-214088.0	-4820.0	59644.0
13	16	35	1	488	164.0	-215127.0	-4801.0	59969.0
13	16	35	1	489	165.0	-215454.0	-4765.0	60468.0
13	16	35	1	490	166.0	-216866.0	-4715.0	60849.0
13	16	35	1	490	167.0	-218179.0	-4670.0	60938.0
13	16	35	1	491	168.0	-218608.0	-4635.0	61539.0
13	16	35	1	522	169.0	-218875.0	-4603.0	61362.0
13	16	35	1	524	170.0	-218522.0	-4542.0	60969.0
13	16	35	1	525	171.0	-217435.0	-4500.0	60506.0
13	16	35	1	525	172.0	-216913.0	-4457.0	60326.0
13	16	35	1	526	173.0	-217242.0	-4430.0	60024.0
13	16	35	1	527	174.0	-217501.0	-4384.0	59786.0
13	16	35	1	527	175.0	-217655.0	-4354.0	60154.0
13	16	35	1	528	176.0	-218759.0	-4316.0	60327.0
13	16	35	1	529	177.0	-219017.0	-4270.0	59754.0
13	16	35	1	529	178.0	-219111.0	-4206.0	59501.0
13	16	35	1	530	179.0	-219331.0	-4169.0	59684.0
13	16	35	1	530	180.0	-219976.0	-4139.0	59277.0
13	16	35	1	531	181.0	-220603.0	-4114.0	58823.0
13	16	35	1	531	182.0	-220672.0	-4080.0	59001.0
13	16	35	1	532	183.0	-220158.0	-4054.0	58999.0
13	16	35	1	533	185.0	-219280.0	-3950.0	59328.0
13	16	35	1	533	186.0	-219069.0	-3931.0	59427.0
13	16	35	1	534	187.0	-218794.0	-3881.0	59794.0
13	16	35	1	534	188.0	-218366.0	-3832.0	59887.0
13	16	35	1	535	189.0	-217339.0	-3796.0	59478.0
13	16	35	1	535	190.0	-215674.0	-3757.0	58924.0
13	16	35	1	566	191.0	-213581.0	-3712.0	58311.0
13	16	35	1	566	192.0	-211069.0	-3684.0	58141.0
13	16	35	1	567	193.0	-208982.0	-3639.0	58587.0
13	16	35	1	568	194.0	-206402.0	-3621.0	58556.0
13	16	35	1	568	195.0	-203925.0	-3595.0	58633.0
13	16	35	1	569	196.0	-200808.0	-3544.0	58904.0
13	16	35	1	569	197.0	-198351.0	-3518.0	58646.0
13	16	35	1	570	198.0	-196388.0	-3505.0	58673.0
13	16	35	1	571	199.0	-194512.0	-3472.0	58811.0
13	16	35	1	571	200.0	-192327.0	-3427.0	58404.0
13	16	35	1	572	201.0	-191061.0	-3396.0	57779.0
13	16	35	1	572	202.0	-190639.0	-3377.0	57781.0
13	16	35	1	573	203.0	-190926.0	-3353.0	57916.0
13	16	35	1	574	204.0	-192015.0	-3329.0	57683.0
13	16	35	1	574	205.0	-192277.0	-3322.0	57928.0
13	16	35	1	575	207.0	-195119.0	-3263.0	58654.0
13	16	35	1	575	208.0	-193935.0	-3257.0	58812.0
13	16	35	1	576	209.0	-193536.0	-3251.0	58513.0
13	16	35	1	576	210.0	-198712.0	-3211.0	58016.0
13	16	35	1	577	211.0	-208026.0	-3194.0	57995.0
13	16	35	1	578	212.0	-214497.0	-3190.0	57923.0
13	16	35	1	578	213.0	-213884.0	-3172.0	57734.0
13	16	35	1	610	214.0	-212019.0	-3144.0	57848.0
13	16	35	1	611	215.0	-209985.0	-3116.0	58009.0
13	16	35	1	612	216.0	-206249.0	-3107.0	58053.0
13	16	35	1	612	217.0	-199589.0	-3097.0	58107.0
13	16	35	1	613	218.0	-192218.0	-3079.0	58498.0
13	16	35	1	614	219.0	-184147.0	-3054.0	57842.0
13	16	35	1	614	220.0	-175367.0	-3034.0	57911.0
13	16	35	1	615	221.0	-168866.0	-3015.0	57665.0
13	16	35	1	615	222.0	-165806.0	-3009.0	57227.0
13	16	35	1	616	223.0	-164655.0	-3012.0	57745.0
13	16	35	1	617	224.0	-165011.0	-2992.0	58352.0
13	16	35	1	617	225.0	-166697.0	-2971.0	58644.0
13	16	35	1	618	226.0	-169807.0	-2972.0	59231.0
13	16	35	1	618	227.0	-173952.0	-2977.0	59788.0
13	16	35	1	619	228.0	-178103.0	-2966.0	60357.0
13	16	35	1	620	230.0	-184072.0	-2971.0	61052.0
13	16	35	1	620	231.0	-185494.0	-2954.0	61075.0
13	16	35	1	621	232.0	-186645.0	-2959.0	61785.0
13	16	35	1	621	233.0	-187267.0	-2940.0	62659.0
13	16	35	1	622	234.0	-187886.0	-2924.0	63261.0
13	16	35	1	622	235.0	-188469.0	-2930.0	63889.0
13	16	35	1	655	236.0	-188490.0	-2922.0	64816.0
13	16	35	1	656	237.0	-187399.0	-2907.0	64796.0
13	16	35	1	656	238.0	-186225.0	-2917.0	65075.0
13	16	35	1	657	239.0	-184889.0	-2909.0	65368.0
13	16	35	1	657	240.0	-184002.0	-2893.0	65282.0
13	16	35	1	658	241.0	-183198.0	-2897.0	65186.0
13	16	35	1	659	242.0	-182702.0	-2902.0	65194.0
13	16	35	1	659	243.0	-183532.0	-2900.0	65459.0
13	16	35	1	660	244.0	-184575.0	-2909.0	65801.0
13	16	35	1	660	245.0	-186116.0	-2924.0	65851.0
13	16	35	1	661	246.0	-188488.0	-2929.0	66234.0
13	16	35	1	662	247.0	-191567.0	-2916.0	66504.0
13	16	35	1	662	248.0	-194456.0	-2915.0	66502.0
13	16	35	1	663	249.0	-197279.0	-2904.0	65794.0
13	16	35	1	671	250.0	-200882.0	-2908.0	65714.0
13	16	35	1	672	252.0	-208401.0	-2913.0	65721.0
13	16	35	1	673	253.0	-212502.0	-2921.0	65901.0
13	16	35	1	673	254.0	-216586.0	-2912.0	65830.0
13	16	35	1	674	255.0	-221179.0	-2927.0	65620.0
13	16	35	1	674	0.0	-225293.0	-2924.0	66178.0
13	16	35	1	675	1.0	-228687.0	-2914.0	66344.0
13	16	35	1	675	2.0	-231677.0	-2917.0	65944.0
13	16	35	1	701	3.0	-234506.0	-2925.0	66042.0
13	16	35	1	701	4.0	-236431.0	-2916.0	66334.0
13	16	35	1	702	5.0	-238249.0	-2916.0	66298.0
13	16	35	1	702	6.0	-240078.0	-2943.0	66596.0
13	16	35	1	703	7.0	-241536.0	-2959.0	66569.0
13	16	35	1	704	8.0	-242791.0	-2959.0	66385.0
13	16	35	1	704	9.0	-243817.0	-2983.0	66769.0
13	16	35	1	705	10.0	-244894.0	-3008.0	66795.0
13	16	35	1	706	11.0	-245738.0	-2997.0	66800.0
13	16	35	1	706	12.0	-246262.0	-2991.0	66824.0
13	16	35	1	707	13.0	-246432.0	-2989.0	66623.0
13	16	35	1	707	14.0	-245859.0	-3017.0	66293.0
13	16	35	1	708	15.0	-245129.0	-3025.0	66322.0
13	16	35	1	709	16.0	-244474.0	-3040.0	66523.0
13	16	35	1	709	17.0	-243794.0	-3051.0	65954.0
13	16	35	1	710	19.0	-241646.0	-3052.0	66096.0
13	16	35	1	711	20.0	-240512.0	-3081.0	66093.0
13	16	35	1	711	21.0	-239606.0	-3077.0	66028.0
13	16	35	1	712	22.0	-238793.0	-3087.0	65991.0
13	16	35	1	712	23.0	-238558.0	-3105.0	65672.0
13	16	35	1	713	24.0	-238181.0	-3086.0	65300.0
13	16	35	1	745	25.0	-237803.0	-3105.0	64877.0
13	16	35	1	746	26.0	-237034.0	-3118.0	64381.0
13	16	35	1	747	27.0	-236602.0	-3122.0	64585.0
13	16	35	1	748	28.0	-236242.0	-3141.0	64561.0
13	16	35	1	748	29.0	-235382.0	-3146.0	64340.0
13	16	35	1	749	30.0	-233791.0	-3136.0	64423.0
13	16	35	1	749	31.0	-232062.0	-3136.0	64520.0
13	16	35	1	750	32.0	-230461.0	-3130.0	64371.0
13	16	35	1	751	33.0	-229047.0	-3161.0	64552.0
13	16	35	1	751	34.0	-227536.0	-3171.0	64371.0
13	16	35	1	752	35.0	-226116.0	-3166.0	63629.0
13	16	35	1	753	36.0	-224653.0	-3179.0	63333.0
13	16	35	1	753	37.0	-223078.0	-3195.0	63508.0
13	16	35	1	754	38.0	-221671.0	-3199.0	63278.0
13	16	35	1	754	39.0	-220339.0	-3200.0	62863.0
13	16	35	1	755	41.0	-218184.0	-3199.0	63039.0
13	16	35	1	755	42.0	-217950.0	-3224.0	62974.0
13	16	35	1	756	43.0	-217422.0	-3219.0	63100.0
13	16	35	1	757	44.0	-216801.0	-3208.0	62393.0
13	16	35	1	757	45.0	-216947.0	-3205.0	61803.0
13	16	35	1	758	46.0	-217612.0	-3214.0	61384.0
13	16	35	1	791	47.0	-218291.0	-3224.0	61110.0
13	16	35	1	792	48.0	-219350.0	-3226.0	61238.0
13	16	35	1	792	49.0	-220069.0	-3214.0	61239.0
13	16	35	1	793	50.0	-220547.0	-3216.0	61006.0
13	16	35	1	794	51.0	-221049.0	-3216.0	60710.0
13	16	35	1	794	52.0	-221174.0	-3216.0	60483.0
13	16	35	1	795	53.0	-221097.0	-3216.0	59904.0
13	16	35	1	796	54.0	-220545.0	-3216.0	59323.0
13	16	35	1	796	55.0	-220172.0	-3226.0	58910.0
13	16	35	1	797	56.0	-219488.0	-3234.0	58258.0
13	16	35	1	797	57.0	-218278.0	-3228.0	57999.0
13	16	35	1	798	58.0	-216602.0	-3232.0	58103.0
13	16	35	1	799	59.0	-215036.0	-3241.0	57846.0
13	16	35	1	799	60.0	-213480.0	-3252.0	57763.0
13	16	35	1	800	61.0	-211591.0	-3252.0	57886.0
13	16	35	1	800	64.0	-207438.0	-3246.0	56530.0
13	16	35	1	803	65.0	-207033.0	-3261.0	55933.0
13	16	35	1	804	66.0	-206348.0	-3242.0	55671.0
13	16	35	1	804	67.0	-205704.0	-3255.0	55637.0
13	16	35	1	805	68.0	-205291.0	-3254.0	55597.0
13	16	35	1	806	69.0	-204697.0	-3242.0	55574.0
13	16	35	1	836	70.0	-203835.0	-3239.0	55271.0
13	16	35	1	837	71.0	-203256.0	-3257.0	54366.0
13	16	35	1	837	72.0	-202856.0	-3247.0	54087.0
13	16	35	1	838	73.0	-201892.0	-3248.0	53780.0
13	16	35	1	839	74.0	-200767.0	-3257.0	53251.0
13	16	35	1	839	75.0	-200252.0	-3262.0	52491.0
13	16	35	1	840	76.0	-199447.0	-3264.0	52264.0
13	16	35	1	840	77.0	-198806.0	-3274.0	51844.0
13	16	35	1	841	78.0	-198159.0	-3259.0	51608.0
13	16	35	1	842	79.0	-197790.0	-3276.0	51696.0
13	16	35	1	842	80.0	-197554.0	-3275.0	51505.0
13	16	35	1	843	81.0	-197003.0	-3284.0	51053.0
13	16	35	1	844	82.0	-196245.0	-3293.0	50954.0
13	16	35	1	844	83.0	-195373.0	-3301.0	50823.0
13	16	35	1	845	84.0	-194621.0	-3302.0	50058.0
13	16	35	1	845	86.0	-194931.0	-3296.0	48589.0
13	16	35	1	846	87.0	-195356.0	-3306.0	48580.0
13	16	35	1	846	88.0	-196002.0	-3310.0	48034.0
13	16	35	1	847	89.0	-196736.0	-3317.0	47444.0
13	16	35	1	848	90.0	-197570.0	-3324.0	47490.0
13	16	35	1	848	91.0	-197857.0	-3316.0	47239.0
13	16	35	1	880	92.0	-197887.0	-3315.0	46700.0
13	16	35	1	880	93.0	-197588.0	-3312.0	46289.0
13	16	35	1	881	94.0	-197261.0	-3308.0	45893.0
13	16	35	1	882	95.0	-196761.0	-3327.0	45094.0
13	16	35	1	882	96.0	-196328.0	-3308.0	44873.0
13	16	35	1	883	97.0	-195628.0	-3312.0	45029.0
13	16	35	1	883	98.0	-194929.0	-3332.0	44662.0
13	16	35	1	884	99.0	-194710.0	-3332.0	44223.0
13	16	35	1	885	100.0	-195151.0	-3331.0	44460.0
13	16	35	1	885	101.0	-195541.0	-3340.0	44199.0
13	16	35	1	886	102.0	-195786.0	-3367.0	43728.0
13	16	35	1	887	103.0	-196091.0	-3368.0	43301.0
13	16	35	1	887	104.0	-196466.0	-3352.0	42691.0
13	16	35	1	888	105.0	-196880.0	-3377.0	42156.0
13	16	35	1	888	106.0	-197135.0	-3374.0	42118.0
13	16	35	1	889	108.0	-198146.0	-3406.0	41875.0
13	16	35	1	890	109.0	-198903.0	-3411.0	41570.0
13	16	35	1	890	110.0	-199685.0	-3411.0	41388.0
13	16	35	1	891	111.0	-200411.0	-3399.0	41065.0
13	16	35	1	892	112.0	-200904.0	-3416.0	40654.0
13	16	35	1	892	113.0	-201088.0	-3426.0	40276.0
13	16	35	1	893	114.0	-201426.0	-3436.0	40074.0
13	16	35	1	926	115.0	-202070.0	-3433.0	39422.0
13	16	35	1	927	116.0	-202470.0	-3443.0	38461.0
13	16	35	1	927	117.0	-202138.0	-3462.0	38447.0
13	16	35	1	928	118.0	-201474.0	-3485.0	38542.0
13	16	35	1	929	119.0	-200638.0	-3475.0	37753.0
13	16	35	1	929	120.0	-199922.0	-3484.0	37186.0
13	16	35	1	930	121.0	-199150.0	-3503.0	37243.0
13	16	35	1	931	122.0	-198411.0	-3504.0	36711.0
13	16	35	1	931	123.0	-197541.0	-3509.0	36483.0
13	16	35	1	932	124.0	-197232.0	-3514.0	36229.0
13	16	35	1	933	125.0	-197733.0	-3541.0	35729.0
13	16	35	1	933	126.0	-197924.0	-3559.0	35408.0
13	16	35	1	934	127.0	-197879.0	-3555.0	35496.0
13	16	35	1	934	128.0	-197386.0	-3557.0	35164.0
13	16	35	1	935	129.0	-196627.0	-3576.0	35077.0
13	16	35	1	936	131.0	-195451.0	-3590.0	34950.0
13	16	35	1	936	132.0	-194627.0	-3607.0	34651.0
13	16	35	1	937	133.0	-193638.0	-3608.0	34576.0
13	16	35	1	938	134.0	-193256.0	-3606.0	34044.0
13	16	35	1	938	135.0	-192852.0	-3602.0	33612.0
13	16	35	1	939	136.0	-192942.0	-3621.0	33111.0
13	16	35	1	971	137.0	-193385.0	-3616.0	32679.0
13	16	35	1	971	138.0	-194286.0	-3638.0	32540.0
13	16	35	1	972	139.0	-195161.0	-3644.0	32656.0
13	16	35	1	973	140.0	-196365.0	-3666.0	32518.0
13	16	35	1	973	141.0	-197526.0	-3674.0	32441.0
13	16	35	1	974	142.0	-198127.0	-3678.0	32250.0
13	16	35	1	975	143.0	-198576.0	-3687.0	31586.0
13	16	35	1	975	144.0	-198482.0	-3703.0	31501.0
13	16	35	1	976	145.0	-198520.0	-3717.0	31544.0
13	16	35	1	977	146.0	-198067.0	-3720.0	31288.0
13	16	35	1	977	147.0	-197246.0	-3746.0	30981.0
13	16	35	1	978	148.0	-196299.0	-3767.0	31148.0
13	16	35	1	979	149.0	-195460.0	-3764.0	31022.0
13	16	35	1	980	150.0	-194647.0	-3764.0	31277.0
13	16	35	1	981	151.0	-193603.0	-3792.0	31464.0
13	16	35	1	981	153.0	-191159.0	-3802.0	30296.0
13	16	35	1	982	154.0	-190033.0	-3821.0	30239.0
13	16	35	1	983	155.0	-188744.0	-3821.0	29539.0
13	16	35	1	983	156.0	-187393.0	-3831.0	29170.0
13	16	35	1	984	157.0	-186086.0	-3844.0	29642.0
13	16	35	1	984	158.0	-184447.0	-3849.0	29884.0
13	16	35	1	985	159.0	-183687.0	-3872.0	29226.0
13	16	35	2	15	160.0	-183006.0	-3854.0	29287.0
13	16	35	2	16	161.0	-182104.0	-3861.0	29289.0
13	16	35	2	34	162.0	-181189.0	-3867.0	28453.0
13	16	35	2	35	163.0	-180492.0	-3882.0	27985.0
13	16	35	2	35	164.0	-179818.0	-3898.0	27587.0
13	16	35	2	36	165.0	-179652.0	-3912.0	27098.0
13	16	35	2	37	166.0	-180102.0	-3932.0	26674.0
13	16	35	2	37	167.0	-180214.0	-3935.0	26505.0
13	16	35	2	38	168.0	-180517.0	-3949.0	26701.0
13	16	35	2	38	169.0	-180856.0	-3972.0	26462.0
13	16	35	2	39	170.0	-181496.0	-3982.0	26188.0
13	16	35	2	40	171.0	-182492.0	-3982.0	26429.0
13	16	35	2	40	172.0	-183046.0	-3995.0	25987.0
13	16	35	2	41	173.0	-183428.0	-4005.0	25501.0
13	16	35	2	41	174.0	-183812.0	-4022.0	24816.0
13	16	35	2	42	176.0	-185201.0	-4044.0	24154.0
13	16	35	2	42	177.0	-185714.0	-4067.0	24534.0
13	16	35	2	43	178.0	-186292.0	-4067.0	24621.0
13	16	35	2	43	179.0	-187090.0	-4072.0	24156.0
13	16	35	2	44	180.0	-188152.0	-4087.0	24041.0
13	16	35	2	45	181.0	-189042.0	-4081.0	24577.0
13	16	35	2	61	182.0	-190025.0	-4077.0	24366.0
13	16	35	2	61	183.0	-191334.0	-4082.0	23786.0
13	16	35	2	62	184.0	-192555.0	-4090.0	23476.0
13	16	35	2	63	185.0	-193756.0	-4086.0	23149.0
13	16	35	2	64	186.0	-194824.0	-4102.0	22944.0
13	16	35	2	64	187.0	-195689.0	-4109.0	23493.0
13	16	35	2	65	188.0	-196524.0	-4129.0	23261.0
13	16	35	2	65	189.0	-197319.0	-4112.0	23293.0
13	16	35	2	66	190.0	-197799.0	-4133.0	24181.0
13	16	35	2	67	191.0	-197902.0	-4150.0	25307.0
13	16	35	2	67	192.0	-198069.0	-4151.0	25383.0
13	16	35	2	68	193.0	-198266.0	-4166.0	24813.0
13	16	35	2	69	194.0	-198784.0	-4160.0	23954.0
13	16	35	2	69	195.0	-199346.0	-4180.0	23139.0
13	16	35	2	70	196.0	-199802.0	-4204.0	22973.0
13	16	35	2	71	198.0	-200851.0	-4214.0	22480.0
13	16	35	2	71	199.0	-201464.0	-4236.0	22056.0
13	16	35	2	72	200.0	-202337.0	-4234.0	20571.0
13	16	35	2	73	201.0	-203809.0	-4214.0	17541.0
13	16	35	2	73	202.0	-206511.0	-4231.0	14986.0
13	16	35	2	74	203.0	-210425.0	-4241.0	12996.0
13	16	35	2	75	204.0	-215962.0	-4234.0	11871.0
13	16	35	2	104	205.0	-223553.0	-4224.0	11811.0
13	16	35	2	106	206.0	-232792.0	-4236.0	11144.0
13	16	35	2	106	207.0	-243536.0	-4247.0	8909.0
13	16	35	2	107	208.0	-254819.0	-4259.0	4898.0
13	16	35	2	108	209.0	-266104.0	-4269.0	-107.0
13	16	35	2	109	210.0	-276726.0	-4269.0	-4527.0
13	16	35	2	109	211.0	-284649.0	-4275.0	-5141.0
13	16	35	2	110	212.0	-288187.0	-4290.0	-5259.0
13	16	35	2	110	213.0	-286438.0	-4290.0	-3183.0
13	16	35	2	111	214.0	-278562.0	-4295.0	1829.0
13	16	35	2	112	215.0	-265354.0	-4295.0	9020.0
13	16	35	2	114	216.0	-247792.0	-4306.0	15970.0
13	16	35	2	115	217.0	-228051.0	-4331.0	20593.0
13	16	35	2	115	218.0	-207817.0	-4339.0	22674.0
13	16	35	2	116	219.0	-189732.0	-4332.0	23462.0
13	16	35	2	117	221.0	-167230.0	-4352.0	24036.0
13	16	35	2	117	222.0	-162666.0	-4351.0	23041.0
13	16	35	2	118	223.0	-161084.0	-4360.0	22643.0
13	16	35	2	119	224.0	-160972.0	-4352.0	22216.0
13	16	35	2	119	225.0	-158099.0	-4364.0	21476.0
13	16	35	2	120	226.0	-150745.0	-4369.0	21041.0
13	16	35	2	150	227.0	-147042.0	-4374.0	20833.0
13	16	35	2	151	228.0	-150350.0	-4390.0	20231.0
13	16	35	2	152	229.0	-156334.0	-4401.0	19797.0
13	16	35	2	153	230.0	-165999.0	-4394.0	19433.0
13	16	35	2	153	231.0	-178019.0	-4401.0	19098.0
13	16	35	2	154	232.0	-197014.0	-4404.0	18687.0
13	16	35	2	155	233.0	-220384.0	-4406.0	17854.0
13	16	35	2	156	234.0	-245040.0	-4412.0	17543.0
13	16	35	2	156	235.0	-266982.0	-4434.0	17166.0
13	16	35	2	157	236.0	-287642.0	-4446.0	16360.0
13	16	35	2	158	237.0	-304834.0	-4458.0	15719.0
13	16	35	2	158	238.0	-316883.0	-4467.0	15534.0
13	16	35	2	159	239.0	-324127.0	-4481.0	15161.0
13	16	35	2	160	240.0	-331074.0	-4481.0	14321.0
13	16	35	2	160	241.0	-337434.0	-4478.0	14226.0
13	16	35	2	161	243.0	-333414.0	-4492.0	12669.0
13	16	35	2	162	244.0	-326399.0	-4510.0	12651.0
13	16	35	2	162	245.0	-315814.0	-4519.0	12327.0
13	16	35	2	163	246.0	-301626.0	-4515.0	11892.0
13	16	35	2	163	247.0	-286302.0	-4525.0	11459.0
13	16	35	2	164	248.0	-271392.0	-4536.0	10971.0
13	16	35	2	165	249.0	-258439.0	-4533.0	10309.0
13	16	35	2	196	250.0	-248968.0	-4534.0	9851.0
13	16	35	2	196	251.0	-243474.0	-4547.0	9809.0
13	16	35	2	197	252.0	-238970.0	-4554.0	9371.0
13	16	35	2	198	253.0	-233135.0	-4549.0	8578.0
13	16	35	2	198	254.0	-224284.0	-4560.0	8023.0
13	16	35	2	199	255.0	-212015.0	-4556.0	7485.0
13	16	35	2	200	0.0	-197386.0	-4541.0	7100.0
13	16	35	2	200	1.0	-180881.0	-4557.0	6948.0
13	16	35	2	201	2.0	-162111.0	-4573.0	6437.0
13	16	35	2	201	3.0	-143064.0	-4583.0	6421.0
13	16	35	2	202	4.0	-125216.0	-4584.0	6270.0
13	16	35	2	203	5.0	-106252.0	-4589.0	5856.0
13	16	35	2	203	6.0	-87157.0	-4594.0	5560.0
13	16	35	2	204	7.0	-69711.0	-4583.0	5069.0
13	16	35	2	205	8.0	-55334.0	-4586.0	4448.0
13	16	35	2	205	10.0	-38145.0	-4604.0	3748.0
13	16	35	2	206	11.0	-37592.0	-4626.0	3888.0
13	16	35	2	206	12.0	-41192.0	-4619.0	4012.0
13	16	35	2	207	13.0	-46401.0	-4615.0	3351.0
13	16	35	2	208	14.0	-53191.0	-4626.0	2855.0
13	16	35	2	208	15.0	-62484.0	-4646.0	3199.0
13	16	35	2	240	16.0	-74058.0	-4642.0	2946.0
13	16	35	2	241	17.0	-87114.0	-4640.0	2244.0
13	16	35	2	241	18.0	-100467.0	-4647.0	2229.0
13	16	35	2	242	19.0	-113485.0	-4644.0	2275.0
13	16	35	2	243	20.0	-125678.0	-4646.0	1391.0
13	16	35	2	244	21.0	-136687.0	-4653.0	1607.0
13	16	35	2	244	22.0	-146524.0	-4667.0	2166.0
13	16	35	2	245	23.0	-154846.0	-4667.0	1944.0
13	16	35	2	245	24.0	-161865.0	-4674.0	1770.0
13	16	35	2	246	25.0	-167045.0	-4673.0	2073.0
13	16	35	2	247	26.0	-170671.0	-4701.0	1679.0
13	16	35	2	247	27.0	-173041.0	-4721.0	557.0
13	16	35	2	248	28.0	-174702.0	-4727.0	-2211.0
13	16	35	2	249	29.0	-175652.0	-4732.0	-4294.0
13	16	35	2	249	30.0	-176359.0	-4750.0	-5013.0
13	16	35	2	250	32.0	-177215.0	-4753.0	-5459.0
13	16	35	2	250	33.0	-177245.0	-4750.0	-5182.0
13	16	35	2	251	34.0	-177172.0	-4744.0	-4914.0
13	16	35	2	252	35.0	-177258.0	-4747.0	-4615.0
13	16	35	2	252	36.0	-177277.0	-4757.0	-4374.0
13	16	35	2	253	37.0	-177313.0	-4767.0	-4734.0
13	16	35	2	253	38.0	-177133.0	-4786.0	-4941.0
13	16	35	2	285	39.0	-176893.0	-4803.0	-4797.0
13	16	35	2	299	40.0	-176265.0	-4805.0	-4733.0
13	16	35	2	299	41.0	-175366.0	-4803.0	-4962.0
13	16	35	2	300	42.0	-174224.0	-4808.0	-4620.0
13	16	35	2	301	43.0	-172953.0	-4821.0	-4006.0
13	16	35	2	301	44.0	-171584.0	-4842.0	-3968.0
13	16	35	2	302	45.0	-169826.0	-4853.0	-3779.0
13	16	35	2	302	46.0	-168196.0	-4872.0	-3509.0
13	16	35	2	303	47.0	-166779.0	-4874.0	-3671.0
13	16	35	2	304	48.0	-165530.0	-4876.0	-3413.0
13	16	35	2	304	49.0	-164031.0	-4888.0	-3102.0
13	16	35	2	305	50.0	-162582.0	-4884.0	-3078.0
13	16	35	2	305	51.0	-161608.0	-4895.0	-2770.0
13	16	35	2	306	52.0	-161342.0	-4909.0	-2295.0
13	16	35	2	306	53.0	-161513.0	-4930.0	-2180.0
13	16	35	2	307	55.0	-163069.0	-4929.0	-1929.0
13	16	35	2	308	56.0	-164432.0	-4932.0	-2196.0
13	16	35	2	308	57.0	-166463.0	-4944.0	-2088.0
13	16	35	2	309	58.0	-168854.0	-4964.0	-1696.0
13	16	35	2	309	59.0	-171424.0	-4975.0	-1696.0
13	16	35	2	310	60.0	-174099.0	-4968.0	-1599.0
13	16	35	2	331	61.0	-176611.0	-4975.0	-1316.0
13	16	35	2	332	62.0	-179254.0	-4989.0	-971.0
13	16	35	2	333	63.0	-181846.0	-4978.0	-1047.0
13	16	35	2	334	64.0	-184089.0	-4987.0	-1021.0
13	16	35	2	334	65.0	-186155.0	-4984.0	-707.0
13	16	35	2	335	66.0	-187816.0	-4982.0	-522.0
13	16	35	2	336	67.0	-189502.0	-4996.0	-787.0
13	16	35	2	337	68.0	-191442.0	-4959.0	-894.0
13	16	35	2	337	69.0	-193443.0	-4957.0	-386.0
13	16	35	2	338	70.0	-194909.0	-4969.0	183.0
13	16	35	2	339	71.0	-196176.0	-4952.0	118.0
13	16	35	2	340	72.0	-197820.0	-4952.0	418.0
13	16	35	2	340	73.0	-199812.0	-4913.0	689.0
13	16	35	2	341	74.0	-202173.0	-4904.0	163.0
13	16	35	2	342	75.0	-204592.0	-4915.0	253.0
13	16	35	2	342	77.0	-209388.0	-4885.0	-217.0
13	16	35	2	343	78.0	-211932.0	-4870.0	-69.0
13	16	35	2	344	79.0	-213692.0	-4853.0	570.0
13	16	35	2	344	80.0	-215682.0	-4812.0	598.0
13	16	35	2	345	81.0	-217110.0	-4767.0	441.0
13	16	35	2	346	82.0	-218704.0	-4727.0	866.0
13	16	35	2	346	83.0	-219922.0	-4722.0	1183.0
13	16	35	2	376	84.0	-220764.0	-4705.0	1104.0
13	16	35	2	377	85.0	-221459.0	-4674.0	1234.0
13	16	35	2	378	86.0	-221739.0	-4618.0	959.0
13	16	35	2	378	87.0	-222302.0	-4582.0	649.0
13	16	35	2	379	88.0	-223150.0	-4562.0	501.0
13	16	35	2	380	89.0	-223721.0	-4512.0	255.0
13	16	35	2	380	90.0	-224016.0	-4487.0	412.0
13	16	35	2	381	91.0	-224358.0	-4455.0	216.0
13	16	35	2	382	92.0	-224711.0	-4422.0	127.0
13	16	35	2	382	93.0	-224788.0	-4384.0	330.0
13	16	35	2	383	94.0	-224681.0	-4322.0	22.0
13	16	35	2	384	95.0	-224143.0	-4297.0	-684.0
13	16	35	2	384	96.0	-223432.0	-4252.0	-1046.0
13	16	35	2	385	97.0	-222826.0	-4194.0	-1264.0
13	16	35	2	386	98.0	-222194.0	-4132.0	-1665.0
13	16	35	2	386	100.0	-220495.0	-4082.0	-2114.0
13	16	35	2	387	101.0	-219472.0	-4029.0	-2559.0
13	16	35	2	387	102.0	-218362.0	-3984.0	-2550.0
13	16	35	2	388	103.0	-216970.0	-3953.0	-2535.0
13	16	35	2	388	104.0	-215140.0	-3901.0	-2899.0
13	16	35	2	389	105.0	-212973.0	-3860.0	-3026.0
13	16	35	2	421	106.0	-210349.0	-3804.0	-3272.0
13	16	35	2	422	107.0	-207314.0	-3749.0	-3598.0
13	16	35	2	422	108.0	-204006.0	-3719.0	-3490.0
13	16	35	2	423	109.0	-200142.0	-3693.0	-3435.0
13	16	35	2	424	110.0	-195711.0	-3632.0	-3532.0
13	16	35	2	424	111.0	-191361.0	-3598.0	-3576.0
13	16	35	2	425	112.0	-186924.0	-3546.0	-3602.0
13	16	35	2	426	113.0	-182814.0	-3528.0	-3705.0
13	16	35	2	466	114.0	-179083.0	-3490.0	-3592.0
13	16	35	2	467	115.0	-175849.0	-3454.0	-3609.0
13	16	35	2	468	116.0	-173161.0	-3417.0	-3789.0
13	16	35	2	468	117.0	-171513.0	-3379.0	-4102.0
13	16	35	2	469	118.0	-170834.0	-3347.0	-4590.0
13	16	35	2	470	119.0	-170834.0	-3311.0	-4785.0
13	16	35	2	470	120.0	-171337.0	-3272.0	-4553.0
13	16	35	2	471	122.0	-177621.0	-3215.0	-4236.0
13	16	35	2	472	123.0	-184266.0	-3199.0	-4117.0
13	16	35	2	472	124.0	-196189.0	-3166.0	-4073.0
13	16	35	2	473	125.0	-202022.0	-3127.0	-4011.0
13	16	35	2	474	126.0	-197439.0	-3101.0	-4094.0
13	16	35	2	474	127.0	-195819.0	-3095.0	-4011.0
13	16	35	2	475	128.0	-202437.0	-3078.0	-4074.0
13	16	35	2	476	129.0	-210933.0	-3035.0	-4017.0
13	16	35	2	476	145.0	-174245.0	-2778.0	-3017.0
13	16	35	2	477	146.0	-178964.0	-2762.0	-2971.0
13	16	35	2	478	147.0	-183770.0	-2765.0	-3126.0
13	16	35	2	478	148.0	-188667.0	-2754.0	-3255.0
13	16	35	2	479	149.0	-193532.0	-2749.0	-3350.0
13	16	35	2	479	150.0	-198008.0	-2739.0	-3214.0
13	16	35	2	511	151.0	-201881.0	-2726.0	-3197.0
13	16	35	2	512	152.0	-204951.0	-2716.0	-3135.0
13	16	35	2	512	153.0	-207997.0	-2713.0	-3083.0
13	16	35	2	513	154.0	-210881.0	-2692.0	-2741.0
13	16	35	2	514	155.0	-213186.0	-2674.0	-2741.0
13	16	35	2	514	156.0	-215252.0	-2667.0	-2615.0
13	16	35	2	515	157.0	-217620.0	-2674.0	-2564.0
13	16	35	2	516	158.0	-221196.0	-2684.0	-2612.0
13	16	35	2	517	159.0	-225042.0	-2682.0	-2117.0
13	16	35	2	517	160.0	-228577.0	-2667.0	-1646.0
13	16	35	2	518	161.0	-231993.0	-2659.0	-1579.0
13	16	35	2	518	162.0	-235704.0	-2677.0	-1174.0
13	16	35	2	519	163.0	-238951.0	-2671.0	-1032.0
13	16	35	2	520	164.0	-242108.0	-2672.0	-1272.0
13	16	35	2	520	165.0	-244700.0	-2661.0	-1179.0
13	16	35	2	521	167.0	-249195.0	-2649.0	-675.0
13	16	35	2	522	168.0	-250532.0	-2639.0	-572.0
13	16	35	2	522	169.0	-251593.0	-2656.0	-394.0
13	16	35	2	523	170.0	-252539.0	-2641.0	8.0
13	16	35	2	523	171.0	-253146.0	-2638.0	74.0
13	16	35	2	524	172.0	-253469.0	-2646.0	200.0
13	16	35	2	556	173.0	-253670.0	-2641.0	102.0
13	16	35	2	557	174.0	-253699.0	-2659.0	319.0
13	16	35	2	558	175.0	-253520.0	-2654.0	505.0
13	16	35	2	558	176.0	-252901.0	-2637.0	379.0
13	16	35	2	560	177.0	-252377.0	-2643.0	62.0
13	16	35	2	560	178.0	-251842.0	-2629.0	-4.0
13	16	35	2	561	179.0	-250855.0	-2637.0	135.0
13	16	35	2	562	180.0	-249730.0	-2634.0	272.0
13	16	35	2	562	181.0	-248829.0	-2649.0	114.0
13	16	35	2	563	182.0	-247877.0	-2669.0	421.0
13	16	35	2	564	183.0	-246727.0	-2651.0	673.0
13	16	35	2	565	184.0	-245559.0	-2652.0	513.0
13	16	35	2	565	185.0	-244286.0	-2661.0	456.0
13	16	35	2	566	186.0	-242967.0	-2658.0	316.0
13	16	35	2	566	187.0	-241576.0	-2639.0	150.0
13	16	35	2	567	189.0	-239341.0	-2661.0	-151.0
13	16	35	2	568	190.0	-237966.0	-2644.0	82.0
13	16	35	2	568	191.0	-236622.0	-2649.0	-402.0
13	16	35	2	569	192.0	-235454.0	-2656.0	-422.0
13	16	35	2	569	193.0	-234171.0	-2658.0	5.0
13	16	35	2	570	194.0	-232779.0	-2672.0	-88.0
13	16	35	2	571	195.0	-231058.0	-2664.0	-428.0
13	16	35	2	601	196.0	-229479.0	-2674.0	-231.0
13	16	35	2	601	197.0	-228463.0	-2672.0	-320.0
13	16	35	2	602	198.0	-227693.0	-2667.0	-671.0
13	16	35	2	603	199.0	-227177.0	-2694.0	-596.0
13	16	35	2	603	200.0	-226603.0	-2709.0	-626.0
13	16	35	2	604	201.0	-226036.0	-2704.0	-354.0
13	16	35	2	605	202.0	-225566.0	-2701.0	-408.0
13	16	35	2	605	203.0	-225087.0	-2704.0	-601.0
13	16	35	2	606	204.0	-224408.0	-2722.0	-787.0
13	16	35	2	607	205.0	-223382.0	-2722.0	-656.0
13	16	35	2	607	206.0	-222067.0	-2719.0	-796.0
13	16	35	2	608	207.0	-220610.0	-2716.0	-886.0
13	16	35	2	609	208.0	-219074.0	-2716.0	-798.0
13	16	35	2	609	209.0	-217321.0	-2729.0	-837.0
13	16	35	2	610	210.0	-215162.0	-2726.0	-871.0
13	16	35	2	610	212.0	-209756.0	-2721.0	-865.0
13	16	35	2	611	213.0	-206609.0	-2734.0	-835.0
13	16	35	2	612	214.0	-203096.0	-2728.0	-947.0
13	16	35	2	612	215.0	-199477.0	-2716.0	-1322.0
13	16	35	2	613	216.0	-195672.0	-2733.0	-1609.0
13	16	35	2	614	217.0	-191891.0	-2747.0	-1329.0
13	16	35	2	691	218.0	-187982.0	-2701.0	-1475.0
13	16	35	2	691	219.0	-184207.0	-2705.0	-1645.0
13	16	35	2	692	220.0	-180791.0	-2720.0	-1706.0
13	16	35	2	693	221.0	-177702.0	-2711.0	-1862.0
13	16	35	2	694	222.0	-175524.0	-2716.0	-1829.0
13	16	35	2	695	223.0	-174135.0	-2715.0	-1285.0
13	16	35	2	695	224.0	-173197.0	-2726.0	-1287.0
13	16	35	2	696	225.0	-173242.0	-2722.0	-1622.0
13	16	35	2	697	226.0	-173963.0	-2724.0	-1617.0
13	16	35	2	698	227.0	-175317.0	-2724.0	-1691.0
13	16	35	2	698	228.0	-177007.0	-2730.0	-1976.0
13	16	35	2	699	229.0	-178890.0	-2741.0	-1880.0
13	16	35	2	701	230.0	-180757.0	-2725.0	-2146.0
13	16	35	2	701	231.0	-182672.0	-2719.0	-2309.0
13	16	35	2	702	232.0	-183791.0	-2716.0	-2241.0
13	16	35	2	703	234.0	-186963.0	-2737.0	-2334.0
13	16	35	2	709	1.0	-184482.0	-2684.0	-4682.0
13	16	35	2	709	2.0	-184237.0	-2687.0	-4806.0
13	16	35	2	710	3.0	-183999.0	-2686.0	-5041.0
13	16	35	2	711	4.0	-184161.0	-2677.0	-5120.0
13	16	35	2	711	5.0	-184433.0	-2672.0	-4944.0
13	16	35	2	712	6.0	-184995.0	-2674.0	-4996.0
13	16	35	2	712	7.0	-185608.0	-2692.0	-5207.0
13	16	35	2	736	8.0	-186524.0	-2700.0	-5418.0
13	16	35	2	736	9.0	-187517.0	-2691.0	-5279.0
13	16	35	2	737	10.0	-188527.0	-2687.0	-5701.0
13	16	35	2	738	11.0	-189644.0	-2671.0	-5987.0
13	16	35	2	738	12.0	-191129.0	-2679.0	-6157.0
13	16	35	2	746	13.0	-192715.0	-2682.0	-6513.0
13	16	35	2	746	14.0	-194167.0	-2677.0	-6422.0
13	16	35	2	747	15.0	-195370.0	-2696.0	-6443.0
13	16	35	2	748	16.0	-196593.0	-2674.0	-6618.0
13	16	35	2	748	17.0	-197832.0	-2697.0	-6747.0
13	16	35	2	749	18.0	-198948.0	-2695.0	-6366.0
13	16	35	2	749	19.0	-200126.0	-2700.0	-6732.0
13	16	35	2	750	20.0	-201350.0	-2702.0	-6754.0
13	16	35	2	750	21.0	-202652.0	-2699.0	-6669.0
13	16	35	2	751	22.0	-203779.0	-2696.0	-6936.0
13	16	35	2	751	23.0	-205152.0	-2704.0	-6937.0
13	16	35	2	752	24.0	-206303.0	-2718.0	-6931.0
13	16	35	2	752	25.0	-207062.0	-2728.0	-7067.0
13	16	35	2	753	26.0	-207592.0	-2707.0	-7267.0
13	16	35	2	754	27.0	-207934.0	-2736.0	-7002.0
13	16	35	2	754	28.0	-207913.0	-2750.0	-6947.0
13	16	35	2	755	29.0	-207555.0	-2741.0	-7211.0
13	16	35	2	780	30.0	-206967.0	-2722.0	-7111.0
13	16	35	2	781	31.0	-206381.0	-2724.0	-6938.0
13	16	35	2	781	32.0	-205499.0	-2737.0	-7211.0
13	16	35	2	782	33.0	-204269.0	-2756.0	-7152.0
13	16	35	2	782	34.0	-202749.0	-2759.0	-6787.0
13	16	35	2	783	35.0	-201328.0	-2773.0	-7147.0
13	16	35	2	784	36.0	-199843.0	-2771.0	-7222.0
13	16	35	2	784	37.0	-197956.0	-2779.0	-7321.0
13	16	35	2	785	38.0	-195832.0	-2790.0	-7253.0
13	16	35	2	786	39.0	-193781.0	-2805.0	-7257.0
13	16	35	2	786	40.0	-191557.0	-2819.0	-7422.0
13	16	35	2	787	41.0	-189361.0	-2819.0	-7655.0
13	16	35	2	788	42.0	-187259.0	-2819.0	-7904.0
13	16	35	2	788	43.0	-185114.0	-2841.0	-7853.0
13	16	35	2	789	44.0	-183358.0	-2861.0	-7654.0
13	16	35	2	789	46.0	-181046.0	-2870.0	-7814.0
13	16	35	2	790	47.0	-180426.0	-2886.0	-7639.0
13	16	35	2	791	48.0	-180096.0	-2898.0	-7452.0
13	16	35	2	791	49.0	-179832.0	-2915.0	-7764.0
13	16	35	2	792	50.0	-179954.0	-2912.0	-8081.0
13	16	35	2	792	51.0	-180135.0	-2919.0	-7643.0
13	16	35	2	830	52.0	-180297.0	-2936.0	-7864.0
13	16	35	2	831	53.0	-180506.0	-2963.0	-8274.0
13	16	35	2	831	54.0	-180886.0	-2962.0	-7898.0
13	16	35	2	832	55.0	-181587.0	-2969.0	-8010.0
13	16	35	2	833	56.0	-182612.0	-2972.0	-8271.0
13	16	35	2	833	57.0	-183605.0	-3004.0	-8465.0
13	16	35	2	834	58.0	-184486.0	-3031.0	-8269.0
13	16	35	2	834	59.0	-185344.0	-3024.0	-8295.0
13	16	35	2	835	60.0	-186409.0	-3032.0	-8308.0
13	16	35	2	835	61.0	-187627.0	-3061.0	-8645.0
13	16	35	2	836	62.0	-188916.0	-3081.0	-9049.0
13	16	35	2	837	63.0	-190441.0	-3095.0	-9030.0
13	16	35	2	837	64.0	-192122.0	-3108.0	-9456.0
13	16	35	2	838	65.0	-193754.0	-3129.0	-9733.0
13	16	35	2	838	66.0	-195416.0	-3127.0	-9952.0
13	16	35	2	839	68.0	-198056.0	-3161.0	-9704.0
13	16	35	2	840	69.0	-199120.0	-3170.0	-9619.0
13	16	35	2	840	70.0	-200079.0	-3204.0	-10149.0
13	16	35	2	841	71.0	-200907.0	-3203.0	-10043.0
13	16	35	2	841	72.0	-201563.0	-3203.0	-9736.0
13	16	35	2	842	73.0	-201812.0	-3232.0	-9931.0
13	16	35	2	842	74.0	-201999.0	-3244.0	-9992.0
13	16	35	2	893	75.0	-202093.0	-3242.0	-9705.0
13	16	35	2	915	76.0	-202011.0	-3280.0	-9761.0
13	16	35	2	916	77.0	-201607.0	-3289.0	-9836.0
13	16	35	2	916	78.0	-201186.0	-3297.0	-9669.0
13	16	35	2	917	79.0	-200922.0	-3302.0	-10241.0
13	16	35	2	917	80.0	-200622.0	-3322.0	-10488.0
13	16	35	2	918	81.0	-200291.0	-3354.0	-10147.0
13	16	35	2	919	82.0	-200040.0	-3352.0	-10606.0
13	16	35	2	919	83.0	-199529.0	-3363.0	-10976.0
13	16	35	2	920	84.0	-198984.0	-3394.0	-10927.0
13	16	35	2	921	85.0	-198532.0	-3406.0	-10922.0
13	16	35	2	921	86.0	-198157.0	-3418.0	-11050.0
13	16	35	2	922	87.0	-198031.0	-3432.0	-10682.0
13	16	35	2	922	88.0	-198011.0	-3479.0	-10532.0
13	16	35	2	923	89.0	-198022.0	-3477.0	-10904.0
13	16	35	2	924	91.0	-198226.0	-3502.0	-10304.0
13	16	35	2	925	92.0	-198361.0	-3505.0	-10256.0
13	16	35	2	925	114.0	-198246.0	-3789.0	-11054.0
13	16	35	2	926	115.0	-198091.0	-3787.0	-10920.0
13	16	35	2	926	116.0	-198030.0	-3782.0	-11063.0
13	16	35	2	927	117.0	-198326.0	-3782.0	-10641.0
13	16	35	2	928	118.0	-198757.0	-3796.0	-10561.0
13	16	35	2	928	119.0	-199232.0	-3807.0	-10751.0
13	16	35	2	960	120.0	-199979.0	-3813.0	-10945.0
13	16	35	2	961	121.0	-201016.0	-3840.0	-11224.0
13	16	35	2	962	122.0	-202467.0	-3844.0	-11017.0
13	16	35	2	962	123.0	-203974.0	-3854.0	-11129.0
13	16	35	2	963	124.0	-205514.0	-3864.0	-11547.0
13	16	35	2	964	125.0	-206958.0	-3873.0	-11529.0
13	16	35	2	965	126.0	-207680.0	-3875.0	-11541.0
13	16	35	2	965	127.0	-208104.0	-3882.0	-11949.0
13	16	35	2	966	128.0	-207996.0	-3884.0	-11847.0
13	16	35	2	966	129.0	-207582.0	-3902.0	-11507.0
13	16	35	2	967	130.0	-206623.0	-3916.0	-11743.0
13	16	35	2	968	131.0	-205499.0	-3917.0	-11975.0
13	16	35	2	968	132.0	-204185.0	-3935.0	-11984.0
13	16	35	2	969	133.0	-202658.0	-3957.0	-11804.0
13	16	35	2	969	134.0	-201091.0	-3972.0	-11919.0
13	16	35	2	970	136.0	-198034.0	-3991.0	-11535.0
13	16	35	2	971	137.0	-196989.0	-4007.0	-11312.0
13	16	35	2	971	138.0	-196195.0	-4017.0	-10063.0
13	16	35	2	972	139.0	-195816.0	-4024.0	-9324.0
13	16	35	2	972	140.0	-195382.0	-4018.0	-9331.0
13	16	35	2	973	141.0	-195275.0	-4037.0	-9426.0
13	16	35	3	5	142.0	-195066.0	-4039.0	-10309.0
13	16	35	3	6	143.0	-194934.0	-4059.0	-11124.0
13	16	35	3	7	144.0	-194684.0	-4065.0	-11454.0
13	16	35	3	7	145.0	-194404.0	-4081.0	-11932.0
13	16	35	3	8	146.0	-194716.0	-4090.0	-12473.0
13	16	35	3	9	147.0	-195544.0	-4097.0	-12820.0
13	16	35	3	9	148.0	-197014.0	-4116.0	-14084.0
13	16	35	3	10	149.0	-199630.0	-4116.0	-15874.0
13	16	35	3	10	150.0	-203916.0	-4112.0	-17892.0
13	16	35	3	11	151.0	-209875.0	-4129.0	-18904.0
13	16	35	3	12	152.0	-217576.0	-4143.0	-18995.0
13	16	35	3	12	153.0	-226847.0	-4149.0	-18450.0
13	16	35	3	13	154.0	-236502.0	-4168.0	-18830.0
13	16	35	3	13	155.0	-248517.0	-4176.0	-21530.0
13	16	35	3	14	156.0	-259821.0	-4186.0	-25463.0
13	16	35	3	15	158.0	-281470.0	-4194.0	-34009.0
13	16	35	3	15	159.0	-287082.0	-4212.0	-33971.0
13	16	35	3	16	160.0	-287788.0	-4231.0	-33474.0
13	16	35	3	16	161.0	-283959.0	-4233.0	-32532.0
13	16	35	3	17	162.0	-274577.0	-4222.0	-27688.0
13	16	35	3	17	163.0	-260373.0	-4227.0	-20247.0
13	16	35	3	18	164.0	-243722.0	-4239.0	-13259.0
13	16	35	3	50	165.0	-226516.0	-4237.0	-8939.0
13	16	35	3	51	166.0	-210792.0	-4241.0	-7984.0
13	16	35	3	52	167.0	-197667.0	-4256.0	-7987.0
13	16	35	3	53	168.0	-188310.0	-4280.0	-8109.0
13	16	35	3	53	169.0	-182795.0	-4287.0	-8552.0
13	16	35	3	54	170.0	-179597.0	-4292.0	-9148.0
13	16	35	3	54	171.0	-175852.0	-4294.0	-9447.0
13	16	35	3	55	172.0	-174044.0	-4307.0	-9816.0
13	16	35	3	56	173.0	-178043.0	-4320.0	-10694.0
13	16	35	3	56	174.0	-180947.0	-4336.0	-11372.0
13	16	35	3	57	175.0	-180640.0	-4361.0	-11501.0
13	16	35	3	57	176.0	-175492.0	-4369.0	-12379.0
13	16	35	3	58	177.0	-173419.0	-4367.0	-12636.0
13	16	35	3	59	178.0	-179619.0	-4374.0	-12730.0
13	16	35	3	59	179.0	-193821.0	-4380.0	-13102.0
13	16	35	3	60	181.0	-229821.0	-4400.0	-13607.0
13	16	35	3	61	182.0	-241857.0	-4426.0	-13883.0
13	16	35	3	61	183.0	-248834.0	-4439.0	-14376.0
13	16	35	3	62	184.0	-253639.0	-4441.0	-14953.0
13	16	35	3	62	185.0	-258487.0	-4448.0	-15484.0
13	16	35	3	63	186.0	-265854.0	-4447.0	-15907.0
13	16	35	3	95	187.0	-272274.0	-4473.0	-16089.0
13	16	35	3	96	188.0	-276101.0	-4466.0	-16399.0
13	16	35	3	140	189.0	-278256.0	-4479.0	-16182.0
13	16	35	3	141	190.0	-277716.0	-4499.0	-15989.0
13	16	35	3	142	191.0	-273472.0	-4509.0	-16652.0
13	16	35	3	143	192.0	-265628.0	-4518.0	-16962.0
13	16	35	3	143	193.0	-257364.0	-4534.0	-16864.0
13	16	35	3	144	194.0	-253388.0	-4541.0	-17059.0
13	16	35	3	144	195.0	-255132.0	-4556.0	-17347.0
13	16	35	3	145	196.0	-260089.0	-4569.0	-17674.0
13	16	35	3	146	197.0	-265031.0	-4574.0	-17979.0
13	16	35	3	146	198.0	-267486.0	-4578.0	-17806.0
13	16	35	3	147	199.0	-267827.0	-4594.0	-17805.0
13	16	35	3	148	200.0	-267166.0	-4611.0	-18194.0
13	16	35	3	149	201.0	-264409.0	-4606.0	-18281.0
13	16	35	3	149	203.0	-251472.0	-4626.0	-18930.0
13	16	35	3	150	204.0	-241869.0	-4631.0	-19085.0
13	16	35	3	151	205.0	-229702.0	-4649.0	-18896.0
13	16	35	3	151	226.0	-111669.0	-4824.0	-23334.0
13	16	35	3	152	227.0	-116666.0	-4834.0	-23504.0
13	16	35	3	152	228.0	-121637.0	-4807.0	-23700.0
13	16	35	3	153	229.0	-127670.0	-4837.0	-23551.0
13	16	35	3	153	230.0	-132955.0	-4842.0	-23584.0
13	16	35	3	154	231.0	-136929.0	-4857.0	-23856.0
13	16	35	3	185	232.0	-138709.0	-4870.0	-23940.0
13	16	35	3	186	233.0	-139309.0	-4873.0	-24177.0
13	16	35	3	187	234.0	-144676.0	-4875.0	-24276.0
13	16	35	3	187	235.0	-148296.0	-4882.0	-24194.0
13	16	35	3	188	236.0	-151007.0	-4902.0	-24421.0
13	16	35	3	188	237.0	-152264.0	-4911.0	-24261.0
13	16	35	3	189	238.0	-155750.0	-4922.0	-24305.0
13	16	35	3	190	239.0	-160739.0	-4915.0	-24702.0
13	16	35	3	190	240.0	-162298.0	-4920.0	-24546.0
13	16	35	3	191	241.0	-165586.0	-4947.0	-24502.0
13	16	35	3	192	242.0	-168875.0	-4958.0	-25227.0
13	16	35	3	192	243.0	-172246.0	-4961.0	-25437.0
13	16	35	3	193	244.0	-175601.0	-4976.0	-25246.0
13	16	35	3	193	245.0	-179267.0	-4986.0	-25412.0
13	16	35	3	194	246.0	-182022.0	-4998.0	-25112.0
13	16	35	3	195	248.0	-184987.0	-5019.0	-24721.0
13	16	35	3	195	249.0	-186275.0	-5019.0	-25017.0
13	16	35	3	196	250.0	-186883.0	-5039.0	-25510.0
13	16	35	3	196	251.0	-186581.0	-5054.0	-25596.0
13	16	35	3	197	252.0	-186250.0	-5065.0	-25475.0
13	16	35	3	198	253.0	-186379.0	-5071.0	-25601.0
13	16	35	3	230	254.0	-186546.0	-5071.0	-25434.0
13	16	35	3	231	255.0	-185905.0	-5075.0	-25321.0
13	16	35	3	232	0.0	-185165.0	-5089.0	-24996.0
13	16	35	3	232	1.0	-184273.0	-5096.0	-25064.0
13	16	35	3	233	2.0	-183186.0	-5098.0	-25210.0
13	16	35	3	234	3.0	-181606.0	-5099.0	-25369.0
13	16	35	3	234	4.0	-180788.0	-5117.0	-25558.0
13	16	35	3	235	5.0	-180171.0	-5130.0	-25609.0
13	16	35	3	236	6.0	-179357.0	-5123.0	-24883.0
13	16	35	3	236	7.0	-178554.0	-5137.0	-24621.0
13	16	35	3	237	8.0	-178307.0	-5139.0	-24627.0
13	16	35	3	237	9.0	-178744.0	-5156.0	-24296.0
13	16	35	3	238	10.0	-179455.0	-5162.0	-24237.0
13	16	35	3	239	11.0	-180014.0	-5161.0	-23935.0
13	16	35	3	239	12.0	-180861.0	-5143.0	-23769.0
13	16	35	3	240	15.0	-184111.0	-5114.0	-23866.0
13	16	35	3	240	16.0	-185587.0	-5108.0	-23927.0
13	16	35	3	241	17.0	-187054.0	-5094.0	-23696.0
13	16	35	3	242	18.0	-189054.0	-5097.0	-23452.0
13	16	35	3	242	19.0	-191048.0	-5070.0	-23415.0
13	16	35	3	243	20.0	-193264.0	-5035.0	-22882.0
13	16	35	3	275	21.0	-195324.0	-5036.0	-22882.0
13	16	35	3	276	22.0	-197249.0	-5022.0	-23192.0
13	16	35	3	276	23.0	-198971.0	-4976.0	-22990.0
13	16	35	3	277	24.0	-200863.0	-4955.0	-22821.0
13	16	35	3	278	25.0	-203284.0	-4928.0	-23461.0
13	16	35	3	278	26.0	-205987.0	-4894.0	-23487.0
13	16	35	3	279	27.0	-208189.0	-4853.0	-23114.0
13	16	35	3	280	28.0	-210186.0	-4819.0	-23071.0
13	16	35	3	280	29.0	-212164.0	-4807.0	-22888.0
13	16	35	3	281	30.0	-215358.0	-4762.0	-22268.0
13	16	35	3	282	31.0	-217366.0	-4730.0	-22386.0
13	16	35	3	282	32.0	-219314.0	-4705.0	-22763.0
13	16	35	3	283	33.0	-220749.0	-4665.0	-22309.0
13	16	35	3	284	34.0	-222536.0	-4611.0	-22259.0
13	16	35	3	285	35.0	-223601.0	-4561.0	-22817.0
13	16	35	3	285	37.0	-224784.0	-4466.0	-22374.0
13	16	35	3	286	38.0	-225226.0	-4443.0	-22607.0
13	16	35	3	287	39.0	-225152.0	-4390.0	-22313.0
13	16	35	3	288	40.0	-225207.0	-4317.0	-22302.0
13	16	35	3	288	41.0	-225459.0	-4280.0	-22609.0
13	16	35	3	289	42.0	-225255.0	-4215.0	-22774.0
13	16	35	3	321	43.0	-224787.0	-4159.0	-23196.0
13	16	35	3	322	44.0	-224417.0	-4092.0	-23432.0
13	16	35	3	322	45.0	-223866.0	-4039.0	-23696.0
13	16	35	3	323	46.0	-222947.0	-4007.0	-24119.0
13	16	35	3	324	47.0	-222021.0	-3967.0	-24348.0
13	16	35	3	324	48.0	-220966.0	-3912.0	-24266.0
13	16	35	3	325	49.0	-219838.0	-3872.0	-24712.0
13	16	35	3	326	50.0	-218641.0	-3807.0	-24900.0
13	16	35	3	326	51.0	-217108.0	-3759.0	-24796.0
13	16	35	3	366	52.0	-215156.0	-3715.0	-25337.0
13	16	35	3	366	53.0	-212646.0	-3656.0	-25484.0
13	16	35	3	367	54.0	-209900.0	-3603.0	-25504.0
13	16	35	3	368	55.0	-206841.0	-3560.0	-25884.0
13	16	35	3	369	56.0	-203332.0	-3514.0	-26127.0
13	16	35	3	369	57.0	-199542.0	-3474.0	-25814.0
13	16	35	3	370	59.0	-191100.0	-3398.0	-25978.0
13	16	35	3	370	60.0	-186884.0	-3357.0	-25624.0
13	16	35	3	371	61.0	-182206.0	-3311.0	-25826.0
13	16	35	3	372	62.0	-177560.0	-3262.0	-26318.0
13	16	35	3	372	63.0	-173224.0	-3205.0	-26446.0
13	16	35	3	373	64.0	-169151.0	-3172.0	-26519.0
13	16	35	3	374	65.0	-165793.0	-3131.0	-26741.0
13	16	35	3	374	66.0	-163377.0	-3097.0	-26579.0
13	16	35	3	375	67.0	-161679.0	-3057.0	-26516.0
13	16	35	3	376	68.0	-161006.0	-3027.0	-26586.0
13	16	35	3	376	82.0	-212885.0	-2652.0	-25521.0
13	16	35	3	377	83.0	-215017.0	-2629.0	-25949.0
13	16	35	3	377	84.0	-215979.0	-2617.0	-26361.0
13	16	35	3	378	85.0	-215084.0	-2601.0	-26620.0
13	16	35	3	379	86.0	-210974.0	-2559.0	-26447.0
13	16	35	3	379	87.0	-205617.0	-2532.0	-26196.0
13	16	35	3	380	88.0	-199674.0	-2534.0	-25889.0
13	16	35	3	411	89.0	-192988.0	-2536.0	-26043.0
13	16	35	3	411	90.0	-187246.0	-2519.0	-25797.0
13	16	35	3	412	91.0	-184119.0	-2499.0	-25582.0
13	16	35	3	413	92.0	-182373.0	-2486.0	-25657.0
13	16	35	3	413	93.0	-181449.0	-2462.0	-25684.0
13	16	35	3	414	94.0	-181520.0	-2444.0	-26055.0
13	16	35	3	415	95.0	-182310.0	-2437.0	-26406.0
13	16	35	3	415	96.0	-183616.0	-2409.0	-26167.0
13	16	35	3	416	97.0	-185501.0	-2421.0	-25959.0
13	16	35	3	417	98.0	-188082.0	-2412.0	-26021.0
13	16	35	3	417	99.0	-191050.0	-2406.0	-26111.0
13	16	35	3	418	100.0	-194447.0	-2389.0	-26015.0
13	16	35	3	419	101.0	-198092.0	-2389.0	-25786.0
13	16	35	3	419	102.0	-201447.0	-2384.0	-25486.0
13	16	35	3	420	103.0	-204106.0	-2386.0	-25708.0
13	16	35	3	421	104.0	-206417.0	-2362.0	-25879.0
13	16	35	3	421	105.0	-208075.0	-2349.0	-25601.0
13	16	35	3	422	106.0	-208978.0	-2353.0	-25671.0
13	16	35	3	422	107.0	-208976.0	-2336.0	-25734.0
13	16	35	3	423	108.0	-208579.0	-2334.0	-25701.0
13	16	35	3	424	109.0	-207957.0	-2317.0	-25937.0
13	16	35	3	424	110.0	-207264.0	-2316.0	-25722.0
13	16	35	3	455	111.0	-206331.0	-2309.0	-25324.0
13	16	35	3	456	112.0	-205699.0	-2303.0	-25252.0
13	16	35	3	457	113.0	-205648.0	-2283.0	-25171.0
13	16	35	3	457	114.0	-205836.0	-2295.0	-24909.0
13	16	35	3	458	115.0	-206997.0	-2300.0	-25155.0
13	16	35	3	459	116.0	-208210.0	-2297.0	-25381.0
13	16	35	3	459	117.0	-209806.0	-2285.0	-25336.0
13	16	35	3	460	118.0	-211652.0	-2283.0	-25115.0
13	16	35	3	461	119.0	-216652.0	-2281.0	-25334.0
13	16	35	3	462	120.0	-220646.0	-2270.0	-24891.0
13	16	35	3	463	121.0	-223336.0	-2269.0	-24505.0
13	16	35	3	464	122.0	-226137.0	-2272.0	-24953.0
13	16	35	3	465	123.0	-229094.0	-2256.0	-24629.0
13	16	35	3	465	124.0	-232270.0	-2263.0	-24019.0
13	16	35	3	466	125.0	-233681.0	-2267.0	-24664.0
13	16	35	3	467	127.0	-238920.0	-2259.0	-24851.0
13	16	35	3	476	128.0	-240062.0	-2254.0	-24721.0
13	16	35	3	477	129.0	-241916.0	-2254.0	-24604.0
13	16	35	3	478	130.0	-242628.0	-2258.0	-24383.0
13	16	35	3	478	131.0	-243673.0	-2266.0	-24192.0
13	16	35	3	479	132.0	-244404.0	-2258.0	-24062.0
13	16	35	3	501	133.0	-243744.0	-2262.0	-24127.0
13	16	35	3	502	134.0	-243718.0	-2267.0	-24409.0
13	16	35	3	503	135.0	-242754.0	-2259.0	-24167.0
13	16	35	3	504	136.0	-241696.0	-2257.0	-24204.0
13	16	35	3	504	137.0	-239928.0	-2240.0	-24114.0
13	16	35	3	505	138.0	-237022.0	-2252.0	-24043.0
13	16	35	3	506	139.0	-236564.0	-2269.0	-24243.0
13	16	35	3	506	140.0	-234527.0	-2253.0	-24129.0
13	16	35	3	507	141.0	-233229.0	-2259.0	-23452.0
13	16	35	3	508	142.0	-230844.0	-2283.0	-23399.0
13	16	35	3	508	143.0	-228212.0	-2284.0	-23801.0
13	16	35	3	509	144.0	-228161.0	-2271.0	-23432.0
13	16	35	3	510	145.0	-226541.0	-2277.0	-23702.0
13	16	35	3	510	146.0	-225427.0	-2303.0	-24264.0
13	16	35	3	511	147.0	-223899.0	-2308.0	-24106.0
13	16	35	3	512	149.0	-221558.0	-2307.0	-24940.0
13	16	35	3	512	150.0	-220386.0	-2322.0	-24714.0
13	16	35	3	513	151.0	-219253.0	-2334.0	-24501.0
13	16	35	3	514	152.0	-218087.0	-2338.0	-24602.0
13	16	35	3	514	153.0	-216867.0	-2307.0	-24947.0
13	16	35	3	515	154.0	-215908.0	-2297.0	-25270.0
13	16	35	3	515	155.0	-215084.0	-2300.0	-25805.0
13	16	35	3	591	156.0	-213964.0	-2305.0	-26116.0
13	16	35	3	592	157.0	-212857.0	-2318.0	-26305.0
13	16	35	3	593	158.0	-212281.0	-2336.0	-26469.0
13	16	35	3	594	159.0	-212482.0	-2341.0	-26336.0
13	16	35	3	595	160.0	-212362.0	-2332.0	-26456.0
13	16	35	3	595	161.0	-212424.0	-2326.0	-27120.0
13	16	35	3	596	162.0	-212124.0	-2338.0	-27172.0
13	16	35	3	598	163.0	-212389.0	-2347.0	-26996.0
13	16	35	3	599	164.0	-212194.0	-2342.0	-27690.0
13	16	35	3	599	165.0	-211789.0	-2330.0	-28206.0
13	16	35	3	600	166.0	-211589.0	-2337.0	-28464.0
13	16	35	3	601	167.0	-211282.0	-2361.0	-28967.0
13	16	35	3	602	168.0	-210727.0	-2346.0	-28914.0
13	16	35	3	602	169.0	-209811.0	-2352.0	-29118.0
13	16	35	3	603	170.0	-208876.0	-2361.0	-29467.0
13	16	35	3	604	172.0	-206117.0	-2376.0	-29358.0
13	16	35	3	604	195.0	-188049.0	-2372.0	-31642.0
13	16	35	3	605	196.0	-188992.0	-2370.0	-32019.0
13	16	35	3	605	197.0	-189862.0	-2361.0	-32512.0
13	16	35	3	606	198.0	-190790.0	-2345.0	-32442.0
13	16	35	3	607	199.0	-191846.0	-2344.0	-32039.0
13	16	35	3	607	200.0	-192834.0	-2346.0	-32445.0
13	16	35	3	636	201.0	-193337.0	-2353.0	-32149.0
13	16	35	3	637	202.0	-193644.0	-2346.0	-31634.0
13	16	35	3	638	203.0	-193830.0	-2330.0	-32042.0
13	16	35	3	638	204.0	-193957.0	-2322.0	-32551.0
13	16	35	3	639	205.0	-193712.0	-2314.0	-32451.0
13	16	35	3	640	206.0	-193818.0	-2316.0	-32882.0
13	16	35	3	641	207.0	-192966.0	-2303.0	-33614.0
13	16	35	3	641	208.0	-195219.0	-2319.0	-33521.0
13	16	35	3	642	209.0	-194678.0	-2320.0	-33591.0
13	16	35	3	643	210.0	-196156.0	-2321.0	-33521.0
13	16	35	3	643	211.0	-196906.0	-2311.0	-33157.0
13	16	35	3	644	212.0	-198194.0	-2305.0	-33322.0
13	16	35	3	645	213.0	-198740.0	-2321.0	-33731.0
13	16	35	3	645	214.0	-200697.0	-2323.0	-33659.0
13	16	35	3	646	215.0	-202341.0	-2326.0	-33749.0
13	16	35	3	647	217.0	-204641.0	-2321.0	-34355.0
13	16	35	3	647	218.0	-205384.0	-2330.0	-34274.0
13	16	35	3	648	219.0	-206387.0	-2322.0	-34519.0
13	16	35	3	649	220.0	-207049.0	-2314.0	-34714.0
13	16	35	3	649	221.0	-207122.0	-2324.0	-34780.0
13	16	35	3	650	222.0	-206966.0	-2331.0	-34729.0
13	16	35	3	681	223.0	-206339.0	-2326.0	-34900.0
13	16	35	3	681	224.0	-205637.0	-2334.0	-35741.0
13	16	35	3	682	225.0	-206079.0	-2323.0	-35911.0
13	16	35	3	683	226.0	-206191.0	-2331.0	-35899.0
13	16	35	3	684	227.0	-205720.0	-2335.0	-35936.0
13	16	35	3	684	228.0	-205512.0	-2356.0	-36024.0
13	16	35	3	685	229.0	-205284.0	-2366.0	-35911.0
13	16	35	3	686	230.0	-205482.0	-2372.0	-36134.0
13	16	35	3	687	231.0	-205232.0	-2374.0	-35921.0
13	16	35	3	688	232.0	-205064.0	-2375.0	-35716.0
13	16	35	3	688	233.0	-204712.0	-2379.0	-36015.0
13	16	35	3	689	234.0	-204060.0	-2379.0	-36505.0
13	16	35	3	690	235.0	-203297.0	-2379.0	-36606.0
13	16	35	3	690	236.0	-202156.0	-2387.0	-36818.0
13	16	35	3	691	237.0	-201129.0	-2390.0	-37029.0
13	16	35	3	692	239.0	-199641.0	-2409.0	-36919.0
13	16	35	3	692	240.0	-198721.0	-2422.0	-37129.0
13	16	35	3	693	241.0	-197784.0	-2427.0	-37291.0
13	16	35	3	693	242.0	-196988.0	-2432.0	-36803.0
13	16	35	3	694	243.0	-195691.0	-2436.0	-36877.0
13	16	35	3	695	244.0	-194142.0	-2449.0	-37497.0
13	16	35	3	695	245.0	-192387.0	-2465.0	-37887.0
13	16	35	3	727	246.0	-190471.0	-2482.0	-38370.0
13	16	35	3	727	247.0	-188529.0	-2481.0	-38576.0
13	16	35	3	729	248.0	-186979.0	-2484.0	-38748.0
13	16	35	3	730	249.0	-185323.0	-2494.0	-39004.0
13	16	35	3	731	250.0	-183814.0	-2492.0	-38943.0
13	16	35	3	731	251.0	-182180.0	-2525.0	-39026.0
13	16	35	3	732	252.0	-181209.0	-2539.0	-39116.0
13	16	35	3	733	253.0	-180570.0	-2534.0	-39268.0
13	16	35	3	734	254.0	-180344.0	-2552.0	-39346.0
13	16	35	3	734	255.0	-180516.0	-2591.0	-39819.0
13	16	35	3	735	0.0	-181091.0	-2576.0	-40101.0
13	16	35	3	736	1.0	-182236.0	-2574.0	-40011.0
13	16	35	3	736	2.0	-183646.0	-2606.0	-40293.0
13	16	35	3	737	3.0	-185059.0	-2621.0	-40281.0
13	16	35	3	737	4.0	-186567.0	-2636.0	-40262.0
13	16	35	3	738	6.0	-189404.0	-2662.0	-40080.0
13	16	35	3	739	7.0	-190648.0	-2667.0	-40077.0
13	16	35	3	739	8.0	-192420.0	-2668.0	-40509.0
13	16	35	3	740	9.0	-193731.0	-2680.0	-40679.0
13	16	35	3	740	10.0	-194968.0	-2704.0	-40812.0
13	16	35	3	741	11.0	-196862.0	-2691.0	-41114.0
13	16	35	3	770	12.0	-198371.0	-2715.0	-41088.0
13	16	35	3	772	13.0	-200015.0	-2747.0	-40862.0
13	16	35	3	772	14.0	-201224.0	-2752.0	-41056.0
13	16	35	3	773	15.0	-202771.0	-2756.0	-41255.0
13	16	35	3	774	16.0	-204078.0	-2777.0	-41167.0
13	16	35	3	775	17.0	-205374.0	-2781.0	-41097.0
13	16	35	3	775	18.0	-206699.0	-2798.0	-40926.0
13	16	35	3	776	19.0	-208127.0	-2813.0	-41339.0
13	16	35	3	777	20.0	-209117.0	-2811.0	-41491.0
13	16	35	3	778	21.0	-209782.0	-2821.0	-42146.0
13	16	35	3	778	22.0	-210407.0	-2847.0	-42241.0
13	16	35	3	779	23.0	-211044.0	-2869.0	-42214.0
13	16	35	3	779	24.0	-211334.0	-2879.0	-42433.0
13	16	35	3	780	25.0	-211318.0	-2888.0	-42211.0
13	16	35	3	781	26.0	-211244.0	-2903.0	-42157.0
13	16	35	3	781	28.0	-210338.0	-2924.0	-42751.0
13	16	35	3	782	29.0	-209887.0	-2934.0	-42851.0
13	16	35	3	782	30.0	-209477.0	-2949.0	-43262.0
13	16	35	3	815	31.0	-208585.0	-2941.0	-44046.0
13	16	35	3	816	32.0	-207641.0	-2957.0	-43932.0
13	16	35	3	817	33.0	-206839.0	-2959.0	-43790.0
13	16	35	3	818	34.0	-205892.0	-2986.0	-43970.0
13	16	35	3	818	35.0	-204419.0	-2995.0	-44118.0
13	16	35	3	819	36.0	-203088.0	-3023.0	-43899.0
13	16	35	3	820	37.0	-201477.0	-3022.0	-44279.0
13	16	35	3	821	38.0	-199984.0	-3019.0	-44894.0
13	16	35	3	821	39.0	-198606.0	-3033.0	-44749.0
13	16	35	3	822	40.0	-197552.0	-3074.0	-44904.0
13	16	35	3	823	41.0	-196635.0	-3092.0	-45537.0
13	16	35	3	823	42.0	-195872.0	-3099.0	-45749.0
13	16	35	3	824	43.0	-195254.0	-3118.0	-45332.0
13	16	35	3	825	44.0	-195085.0	-3142.0	-45395.0
13	16	35	3	825	45.0	-195084.0	-3142.0	-45218.0
13	16	35	3	826	51.0	-198177.0	-3229.0	-46422.0
13	16	35	3	827	52.0	-199906.0	-3255.0	-46711.0
13	16	35	3	827	53.0	-201597.0	-3266.0	-46809.0
13	16	35	3	828	54.0	-202361.0	-3260.0	-46790.0
13	16	35	3	828	55.0	-203181.0	-3268.0	-46870.0
13	16	35	3	829	56.0	-203684.0	-3291.0	-47096.0
13	16	35	3	860	57.0	-204217.0	-3307.0	-46804.0
13	16	35	3	861	58.0	-204777.0	-3289.0	-46969.0
13	16	35	3	862	59.0	-204776.0	-3330.0	-47286.0
13	16	35	3	862	60.0	-204707.0	-3329.0	-47051.0
13	16	35	3	863	61.0	-204762.0	-3338.0	-47097.0
13	16	35	3	864	62.0	-204964.0	-3374.0	-47454.0
13	16	35	3	865	63.0	-205537.0	-3383.0	-47391.0
13	16	35	3	865	64.0	-205493.0	-3370.0	-47668.0
13	16	35	3	866	65.0	-205570.0	-3386.0	-47787.0
13	16	35	3	867	66.0	-205617.0	-3415.0	-46925.0
13	16	35	3	868	67.0	-205392.0	-3419.0	-46718.0
13	16	35	3	868	68.0	-204847.0	-3433.0	-47361.0
13	16	35	3	869	69.0	-204127.0	-3438.0	-47459.0
13	16	35	3	870	70.0	-203384.0	-3444.0	-47061.0
13	16	35	3	870	71.0	-203202.0	-3474.0	-47560.0
13	16	35	3	871	73.0	-202557.0	-3490.0	-47621.0
13	16	35	3	872	74.0	-202709.0	-3512.0	-47765.0
13	16	35	3	872	75.0	-202714.0	-3534.0	-47669.0
13	16	35	3	873	76.0	-203134.0	-3529.0	-47203.0
13	16	35	3	873	77.0	-203196.0	-3532.0	-47629.0
13	16	35	3	904	78.0	-203035.0	-3551.0	-48157.0
13	16	35	3	905	79.0	-202893.0	-3562.0	-48301.0
13	16	35	3	906	80.0	-202591.0	-3567.0	-48683.0
13	16	35	3	907	81.0	-202337.0	-3577.0	-48720.0
13	16	35	3	907	82.0	-201901.0	-3595.0	-48985.0
13	16	35	3	908	83.0	-201727.0	-3614.0	-49070.0
13	16	35	3	909	84.0	-201085.0	-3628.0	-49091.0
13	16	35	3	910	85.0	-200796.0	-3640.0	-49149.0
13	16	35	3	910	86.0	-200609.0	-3646.0	-49219.0
13	16	35	3	911	87.0	-200822.0	-3651.0	-49176.0
13	16	35	3	912	88.0	-201305.0	-3657.0	-49543.0
13	16	35	3	912	89.0	-202266.0	-3677.0	-49989.0
13	16	35	3	913	90.0	-203256.0	-3704.0	-50242.0
13	16	35	3	914	91.0	-204241.0	-3723.0	-50472.0
13	16	35	3	914	92.0	-205634.0	-3716.0	-50805.0
13	16	35	3	915	96.0	-209562.0	-3758.0	-50700.0
13	16	35	3	916	97.0	-210395.0	-3762.0	-50598.0
13	16	35	3	916	98.0	-211577.0	-3791.0	-50925.0
13	16	35	3	917	99.0	-211984.0	-3798.0	-51157.0
13	16	35	3	917	100.0	-212069.0	-3803.0	-51172.0
13	16	35	3	918	101.0	-211558.0	-3801.0	-51676.0
13	16	35	3	951	102.0	-210756.0	-3829.0	-51927.0
13	16	35	3	970	103.0	-209701.0	-3841.0	-51689.0
13	16	35	3	970	104.0	-207972.0	-3831.0	-51518.0
13	16	35	3	971	105.0	-206297.0	-3846.0	-51667.0
13	16	35	3	972	106.0	-204773.0	-3869.0	-51549.0
13	16	35	3	972	107.0	-203456.0	-3880.0	-51525.0
13	16	35	3	973	108.0	-202274.0	-3893.0	-51658.0
13	16	35	3	973	109.0	-200966.0	-3890.0	-51254.0
13	16	35	3	974	110.0	-200154.0	-3908.0	-50631.0
13	16	35	3	974	111.0	-199871.0	-3921.0	-50335.0
13	16	35	3	975	112.0	-199582.0	-3912.0	-50808.0
13	16	35	3	975	113.0	-199507.0	-3943.0	-51832.0
13	16	35	3	976	114.0	-199581.0	-3950.0	-51997.0
13	16	35	3	976	115.0	-199648.0	-3965.0	-51993.0
13	16	35	3	977	116.0	-199084.0	-3974.0	-52414.0
13	16	35	3	978	118.0	-198719.0	-3984.0	-52985.0
13	16	35	3	978	119.0	-199211.0	-3989.0	-54466.0
13	16	35	3	979	120.0	-200628.0	-4005.0	-55962.0
13	16	35	3	979	121.0	-203165.0	-4008.0	-57306.0
13	16	35	3	980	122.0	-207249.0	-4018.0	-58066.0
13	16	35	3	980	123.0	-213276.0	-4017.0	-57348.0
13	16	35	3	996	124.0	-220727.0	-4042.0	-55286.0
13	16	35	3	996	125.0	-229684.0	-4040.0	-54706.0
13	16	35	3	997	126.0	-239735.0	-4054.0	-56449.0
13	16	35	3	997	127.0	-250364.0	-4051.0	-59307.0
13	16	35	3	998	128.0	-260784.0	-4066.0	-64214.0
13	16	35	3	999	129.0	-269984.0	-4107.0	-65279.0
13	16	35	3	999	130.0	-276537.0	-4115.0	-64772.0
13	16	35	4	0	131.0	-279819.0	-4122.0	-65565.0
13	16	35	4	0	132.0	-278413.0	-4133.0	-67726.0
13	16	35	4	1	133.0	-271637.0	-4132.0	-66311.0
13	16	35	4	2	134.0	-260283.0	-4144.0	-60887.0
13	16	35	4	2	135.0	-246024.0	-4158.0	-55039.0
13	16	35	4	3	136.0	-229857.0	-4156.0	-51409.0
13	16	35	4	3	137.0	-213696.0	-4167.0	-50393.0
13	16	35	4	4	138.0	-198961.0	-4184.0	-50091.0
13	16	35	4	5	141.0	-169517.0	-4191.0	-52133.0
13	16	35	4	5	142.0	-161527.0	-4209.0	-52956.0
13	16	35	4	6	143.0	-160546.0	-4217.0	-53979.0
13	16	35	4	6	144.0	-166056.0	-4225.0	-54266.0
13	16	35	4	7	145.0	-171460.0	-4239.0	-54747.0
13	16	35	4	7	146.0	-172701.0	-4246.0	-55426.0
13	16	35	4	40	147.0	-167752.0	-4250.0	-55860.0
13	16	35	4	41	148.0	-167323.0	-4254.0	-56788.0
13	16	35	4	41	149.0	-176071.0	-4277.0	-57748.0
13	16	35	4	42	150.0	-193306.0	-4271.0	-57979.0
13	16	35	4	42	151.0	-213448.0	-4274.0	-58536.0
13	16	35	4	43	152.0	-229685.0	-4281.0	-59344.0
13	16	35	4	44	153.0	-239064.0	-4302.0	-59745.0
13	16	35	4	44	154.0	-243696.0	-4323.0	-59798.0
13	16	35	4	45	155.0	-247591.0	-4331.0	-60494.0
13	16	35	4	45	156.0	-252624.0	-4341.0	-61025.0
13	16	35	4	46	157.0	-259444.0	-4342.0	-61188.0
13	16	35	4	47	158.0	-266584.0	-4364.0	-61923.0
13	16	35	4	47	159.0	-275306.0	-4369.0	-62772.0
13	16	35	4	48	160.0	-283857.0	-4387.0	-62742.0
13	16	35	4	48	161.0	-288147.0	-4391.0	-63246.0
13	16	35	4	49	163.0	-275646.0	-4421.0	-64360.0
13	16	35	4	50	164.0	-266097.0	-4437.0	-64714.0
13	16	35	4	50	165.0	-259543.0	-4457.0	-65266.0
13	16	35	4	51	166.0	-256167.0	-4464.0	-65480.0
13	16	35	4	51	167.0	-254371.0	-4453.0	-66029.0
13	16	35	4	52	168.0	-253182.0	-4466.0	-66518.0
13	16	35	4	85	169.0	-255102.0	-4483.0	-67184.0
13	16	35	4	86	170.0	-259475.0	-4478.0	-68127.0
13	16	35	4	87	171.0	-262583.0	-4497.0	-68675.0
13	16	35	4	87	172.0	-261675.0	-4526.0	-69163.0
13	16	35	4	88	173.0	-258699.0	-4551.0	-69694.0
13	16	35	4	89	174.0	-253837.0	-4551.0	-69924.0
13	16	35	4	89	175.0	-244336.0	-4553.0	-69961.0
13	16	35	4	90	176.0	-229564.0	-4577.0	-70634.0
13	16	35	4	90	177.0	-213924.0	-4589.0	-71122.0
13	16	35	4	91	178.0	-198442.0	-4598.0	-71344.0
13	16	35	4	92	179.0	-181321.0	-4612.0	-71907.0
13	16	35	4	92	180.0	-163482.0	-4606.0	-72319.0
13	16	35	4	93	181.0	-145991.0	-4626.0	-72570.0
13	16	35	4	93	182.0	-128819.0	-4637.0	-73017.0
13	16	35	4	94	183.0	-113060.0	-4630.0	-73144.0
13	16	35	4	94	185.0	-89509.0	-4668.0	-73739.0
13	16	35	4	95	186.0	-81387.0	-4699.0	-74120.0
13	16	35	4	96	187.0	-74207.0	-4689.0	-74289.0
13	16	35	4	96	188.0	-70436.0	-4729.0	-74867.0
13	16	35	4	97	189.0	-69125.0	-4711.0	-75862.0
13	16	35	4	98	190.0	-70502.0	-4702.0	-76011.0
13	16	35	4	98	191.0	-73107.0	-4716.0	-76286.0
13	16	35	4	130	192.0	-75877.0	-4718.0	-76924.0
13	16	35	4	131	193.0	-79209.0	-4734.0	-76770.0
13	16	35	4	131	194.0	-83605.0	-4743.0	-76534.0
13	16	35	4	132	195.0	-88806.0	-4759.0	-76796.0
13	16	35	4	133	196.0	-94034.0	-4747.0	-76489.0
13	16	35	4	133	197.0	-100852.0	-4762.0	-76645.0
13	16	35	4	134	198.0	-107451.0	-4780.0	-77011.0
13	16	35	4	134	199.0	-113102.0	-4800.0	-76991.0
13	16	35	4	135	200.0	-118699.0	-4801.0	-77349.0
13	16	35	4	136	201.0	-123811.0	-4811.0	-77295.0
13	16	35	4	136	202.0	-130409.0	-4823.0	-77014.0
13	16	35	4	137	203.0	-136418.0	-4841.0	-76905.0
13	16	35	4	137	204.0	-141512.0	-4846.0	-76837.0
13	16	35	4	138	205.0	-146329.0	-4857.0	-76446.0
13	16	35	4	138	206.0	-151921.0	-4882.0	-76351.0
13	16	35	4	139	208.0	-163121.0	-4897.0	-76427.0
13	16	35	4	140	209.0	-168677.0	-4899.0	-76758.0
13	16	35	4	140	210.0	-171231.0	-4879.0	-76701.0
13	16	35	4	141	211.0	-174024.0	-4904.0	-76292.0
13	16	35	4	141	212.0	-175957.0	-4919.0	-76678.0
13	16	35	4	176	213.0	-177527.0	-4939.0	-76904.0
13	16	35	4	177	214.0	-178542.0	-4951.0	-76296.0
13	16	35	4	177	215.0	-179056.0	-4952.0	-75797.0
13	16	35	4	178	216.0	-179601.0	-4965.0	-75959.0
13	16	35	4	179	217.0	-180419.0	-4976.0	-76016.0
13	16	35	4	179	218.0	-181589.0	-4990.0	-76122.0
13	16	35	4	180	219.0	-182525.0	-4978.0	-76410.0
13	16	35	4	181	220.0	-183737.0	-4979.0	-76382.0
13	16	35	4	181	221.0	-185114.0	-4990.0	-76353.0
13	16	35	4	182	222.0	-186382.0	-5002.0	-76671.0
13	16	35	4	182	223.0	-186885.0	-5021.0	-76351.0
13	16	35	4	183	224.0	-187021.0	-5039.0	-76305.0
13	16	35	4	183	225.0	-187531.0	-5051.0	-76020.0
13	16	35	4	184	226.0	-188271.0	-5059.0	-75324.0
13	16	35	4	185	227.0	-188915.0	-5063.0	-75320.0
13	16	35	4	185	230.0	-190686.0	-5086.0	-75894.0
13	16	35	4	186	231.0	-190602.0	-5109.0	-75992.0
13	16	35	4	186	232.0	-190600.0	-5110.0	-75673.0
13	16	35	4	187	233.0	-190761.0	-5125.0	-75543.0
13	16	35	4	188	234.0	-191143.0	-5134.0	-75246.0
13	16	35	4	188	235.0	-191450.0	-5129.0	-74721.0
13	16	35	4	189	236.0	-191566.0	-5120.0	-74397.0
13	16	35	4	221	237.0	-191490.0	-5116.0	-74677.0
13	16	35	4	221	238.0	-191204.0	-5110.0	-74972.0
13	16	35	4	222	239.0	-190247.0	-5109.0	-74897.0
13	16	35	4	223	240.0	-189163.0	-5083.0	-74958.0
13	16	35	4	223	241.0	-188365.0	-5085.0	-74846.0
13	16	35	4	224	242.0	-187512.0	-5092.0	-74820.0
13	16	35	4	225	243.0	-186073.0	-5081.0	-74506.0
13	16	35	4	225	244.0	-184758.0	-5098.0	-74242.0
13	16	35	4	226	245.0	-183787.0	-5084.0	-74279.0
13	16	35	4	226	246.0	-183470.0	-5044.0	-73946.0
13	16	35	4	227	247.0	-183386.0	-5033.0	-73921.0
13	16	35	4	228	248.0	-183769.0	-5041.0	-73664.0
13	16	35	4	228	249.0	-184618.0	-5008.0	-74209.0
13	16	35	4	229	250.0	-185980.0	-4991.0	-74161.0
13	16	35	4	230	251.0	-187462.0	-4962.0	-73787.0
13	16	35	4	230	253.0	-191895.0	-4891.0	-73870.0
13	16	35	4	231	254.0	-194499.0	-4865.0	-73106.0
13	16	35	4	231	255.0	-196779.0	-4839.0	-73396.0
13	16	35	4	232	0.0	-199522.0	-4798.0	-73440.0
13	16	35	4	232	1.0	-202339.0	-4747.0	-73287.0
13	16	35	4	233	2.0	-205598.0	-4699.0	-73157.0
13	16	35	4	265	3.0	-208545.0	-4662.0	-73310.0
13	16	35	4	266	4.0	-211234.0	-4611.0	-73756.0
13	16	35	4	267	5.0	-213746.0	-4563.0	-73651.0
13	16	35	4	267	6.0	-216576.0	-4537.0	-73616.0
13	16	35	4	268	7.0	-219309.0	-4487.0	-73659.0
13	16	35	4	269	8.0	-221166.0	-4444.0	-73704.0
13	16	35	4	269	9.0	-223424.0	-4376.0	-73408.0
13	16	35	4	270	10.0	-225942.0	-4326.0	-73357.0
13	16	35	4	270	11.0	-227408.0	-4271.0	-73818.0
13	16	35	4	271	12.0	-228869.0	-4216.0	-74004.0
13	16	35	4	272	13.0	-230117.0	-4149.0	-74428.0
13	16	35	4	272	14.0	-231320.0	-4112.0	-74896.0
13	16	35	4	273	15.0	-232150.0	-4079.0	-74756.0
13	16	35	4	273	16.0	-232428.0	-4015.0	-74899.0
13	16	35	4	274	17.0	-232565.0	-3965.0	-75354.0
13	16	35	4	275	19.0	-231682.0	-3867.0	-75176.0
13	16	35	4	275	20.0	-230811.0	-3806.0	-75566.0
13	16	35	4	276	21.0	-229312.0	-3763.0	-76377.0
13	16	35	4	277	22.0	-227317.0	-3697.0	-76552.0
13	16	35	4	277	23.0	-224316.0	-3650.0	-76648.0
13	16	35	4	278	24.0	-221244.0	-3579.0	-76902.0
13	16	35	4	279	25.0	-217656.0	-3523.0	-77451.0
13	16	35	4	310	26.0	-213390.0	-3488.0	-77934.0
13	16	35	4	310	27.0	-208819.0	-3431.0	-77608.0
13	16	35	4	311	28.0	-203709.0	-3391.0	-77587.0
13	16	35	4	312	29.0	-198424.0	-3341.0	-77687.0
13	16	35	4	312	30.0	-193241.0	-3309.0	-77982.0
13	16	35	4	313	31.0	-188091.0	-3261.0	-78017.0
13	16	35	4	314	32.0	-183223.0	-3220.0	-78394.0
13	16	35	4	314	33.0	-179126.0	-3184.0	-78742.0
13	16	35	4	315	34.0	-175730.0	-3135.0	-78963.0
13	16	35	4	316	35.0	-172945.0	-3085.0	-79203.0
13	16	35	4	316	36.0	-170987.0	-3062.0	-79454.0
13	16	35	4	317	37.0	-169849.0	-3028.0	-79510.0
13	16	35	4	318	38.0	-169179.0	-2989.0	-79469.0
13	16	35	4	318	39.0	-169226.0	-2964.0	-79236.0
13	16	35	4	319	40.0	-169751.0	-2930.0	-79214.0
13	16	35	4	319	42.0	-174383.0	-2873.0	-79566.0
13	16	35	4	320	43.0	-179211.0	-2834.0	-80051.0
13	16	35	4	321	44.0	-186417.0	-2805.0	-80491.0
13	16	35	4	321	45.0	-196840.0	-2784.0	-80524.0
13	16	35	4	322	46.0	-199405.0	-2760.0	-80387.0
13	16	35	4	322	47.0	-192798.0	-2729.0	-80827.0
13	16	35	4	356	48.0	-189886.0	-2702.0	-80482.0
13	16	35	4	357	49.0	-194100.0	-2676.0	-80118.0
13	16	35	4	357	50.0	-202010.0	-2654.0	-80394.0
13	16	35	4	358	51.0	-209144.0	-2625.0	-80637.0
13	16	35	4	359	52.0	-212430.0	-2606.0	-80532.0
13	16	35	4	359	53.0	-215129.0	-2572.0	-81038.0
13	16	35	4	360	54.0	-217806.0	-2559.0	-81291.0
13	16	35	4	361	55.0	-218566.0	-2547.0	-81102.0
13	16	35	4	361	56.0	-216459.0	-2524.0	-80960.0
13	16	35	4	362	57.0	-212520.0	-2514.0	-81157.0
13	16	35	4	362	58.0	-207879.0	-2496.0	-81104.0
13	16	35	4	363	59.0	-202497.0	-2471.0	-80687.0
13	16	35	4	364	60.0	-198042.0	-2448.0	-80569.0
13	16	35	4	364	61.0	-195386.0	-2461.0	-80661.0
13	16	35	4	365	62.0	-194294.0	-2457.0	-81044.0
13	16	35	4	366	64.0	-192225.0	-2427.0	-81394.0
13	16	35	4	366	65.0	-192591.0	-2422.0	-81581.0
13	16	35	4	367	66.0	-193550.0	-2422.0	-81583.0
13	16	35	4	367	67.0	-194751.0	-2421.0	-81204.0
13	16	35	4	368	68.0	-196132.0	-2399.0	-81261.0
13	16	35	4	369	69.0	-197839.0	-2402.0	-80805.0
13	16	35	4	401	70.0	-200388.0	-2390.0	-80925.0
13	16	35	4	445	71.0	-203053.0	-2372.0	-81463.0
13	16	35	4	446	72.0	-205586.0	-2371.0	-81168.0
13	16	35	4	447	73.0	-207295.0	-2375.0	-81164.0
13	16	35	4	448	74.0	-209028.0	-2386.0	-81919.0
13	16	35	4	448	75.0	-210171.0	-2374.0	-82004.0
13	16	35	4	449	76.0	-210829.0	-2358.0	-81897.0
13	16	35	4	450	77.0	-210750.0	-2377.0	-82116.0
13	16	35	4	450	78.0	-209606.0	-2387.0	-82087.0
13	16	35	4	451	79.0	-207729.0	-2385.0	-81979.0
13	16	35	4	451	80.0	-205603.0	-2396.0	-81787.0
13	16	35	4	452	81.0	-203254.0	-2397.0	-82051.0
13	16	35	4	453	82.0	-201208.0	-2394.0	-81986.0
13	16	35	4	454	83.0	-199721.0	-2391.0	-82467.0
13	16	35	4	455	84.0	-198904.0	-2412.0	-82591.0
13	16	35	4	456	87.0	-199029.0	-2407.0	-82160.0
13	16	35	4	457	109.0	-228257.0	-2554.0	-81915.0
13	16	35	4	457	110.0	-227157.0	-2559.0	-81737.0
13	16	35	4	458	111.0	-226115.0	-2551.0	-82519.0
13	16	35	4	458	112.0	-225099.0	-2559.0	-82653.0
13	16	35	4	459	113.0	-224362.0	-2559.0	-82542.0
13	16	35	4	460	114.0	-224077.0	-2571.0	-82654.0
13	16	35	4	460	115.0	-224286.0	-2581.0	-82871.0
13	16	35	4	491	116.0	-224584.0	-2582.0	-82746.0
13	16	35	4	491	117.0	-224729.0	-2611.0	-82725.0
13	16	35	4	492	118.0	-224841.0	-2612.0	-82817.0
13	16	35	4	493	119.0	-224989.0	-2619.0	-82576.0
13	16	35	4	493	120.0	-225132.0	-2619.0	-82572.0
13	16	35	4	494	121.0	-225010.0	-2622.0	-82711.0
13	16	35	4	495	122.0	-224504.0	-2637.0	-82966.0
13	16	35	4	495	123.0	-224253.0	-2651.0	-83374.0
13	16	35	4	496	124.0	-223510.0	-2657.0	-83888.0
13	16	35	4	497	125.0	-222458.0	-2649.0	-84352.0
13	16	35	4	497	126.0	-221171.0	-2646.0	-83893.0
13	16	35	4	498	127.0	-220254.0	-2660.0	-83492.0
13	16	35	4	499	128.0	-219184.0	-2671.0	-83461.0
13	16	35	4	499	129.0	-218312.0	-2661.0	-83194.0
13	16	35	4	500	130.0	-217402.0	-2669.0	-83461.0
13	16	35	4	500	132.0	-216652.0	-2679.0	-84026.0
13	16	35	4	501	133.0	-216060.0	-2676.0	-84047.0
13	16	35	4	502	134.0	-215417.0	-2680.0	-84319.0
13	16	35	4	502	135.0	-214698.0	-2701.0	-84419.0
13	16	35	4	503	136.0	-214030.0	-2704.0	-84377.0
13	16	35	4	503	137.0	-213317.0	-2691.0	-84345.0
13	16	35	4	535	138.0	-212656.0	-2699.0	-84427.0
13	16	35	4	536	139.0	-211970.0	-2699.0	-84000.0
13	16	35	4	537	140.0	-211407.0	-2698.0	-83912.0
13	16	35	4	538	141.0	-210808.0	-2684.0	-84456.0
13	16	35	4	538	142.0	-210323.0	-2687.0	-84762.0
13	16	35	4	539	143.0	-209504.0	-2696.0	-84995.0
13	16	35	4	540	144.0	-208940.0	-2698.0	-85424.0
13	16	35	4	540	145.0	-208077.0	-2721.0	-85387.0
13	16	35	4	541	146.0	-207018.0	-2718.0	-85344.0
13	16	35	4	542	147.0	-205365.0	-2711.0	-85790.0
13	16	35	4	542	148.0	-203089.0	-2707.0	-85657.0
13	16	35	4	543	149.0	-200526.0	-2734.0	-85532.0
13	16	35	4	544	150.0	-197835.0	-2743.0	-85826.0
13	16	35	4	544	151.0	-194807.0	-2735.0	-86128.0
13	16	35	4	545	152.0	-191477.0	-2724.0	-86426.0
13	16	35	4	546	154.0	-184792.0	-2718.0	-86158.0
13	16	35	4	546	155.0	-182113.0	-2723.0	-86509.0
13	16	35	4	547	156.0	-180272.0	-2727.0	-86638.0
13	16	35	4	547	157.0	-179052.0	-2716.0	-86101.0
13	16	35	4	548	158.0	-178754.0	-2711.0	-85725.0
13	16	35	4	549	159.0	-179187.0	-2709.0	-85791.0
13	16	35	4	549	160.0	-179823.0	-2694.0	-86010.0
13	16	35	4	580	161.0	-180961.0	-2711.0	-86421.0
13	16	35	4	581	162.0	-182408.0	-2701.0	-86544.0
13	16	35	4	581	163.0	-183660.0	-2692.0	-86503.0
13	16	35	4	582	164.0	-184938.0	-2694.0	-86890.0
13	16	35	4	583	165.0	-186325.0	-2716.0	-87171.0
13	16	35	4	584	166.0	-187222.0	-2734.0	-86656.0
13	16	35	4	584	167.0	-188091.0	-2727.0	-85860.0
13	16	35	4	585	168.0	-188849.0	-2708.0	-86199.0
13	16	35	4	586	169.0	-189768.0	-2704.0	-85703.0
13	16	35	4	586	170.0	-190924.0	-2699.0	-85497.0
13	16	35	4	587	171.0	-191838.0	-2689.0	-86106.0
13	16	35	4	588	172.0	-192243.0	-2717.0	-86244.0
13	16	35	4	588	173.0	-192434.0	-2697.0	-86029.0
13	16	35	4	589	174.0	-192765.0	-2687.0	-86065.0
13	16	35	4	589	175.0	-193194.0	-2697.0	-86187.0
13	16	35	4	590	177.0	-193723.0	-2690.0	-85990.0
13	16	35	4	591	178.0	-194321.0	-2691.0	-86064.0
13	16	35	4	591	179.0	-195041.0	-2697.0	-85984.0
13	16	35	4	592	180.0	-195677.0	-2687.0	-86156.0
13	16	35	4	593	181.0	-196678.0	-2682.0	-86217.0
13	16	35	4	593	182.0	-197771.0	-2683.0	-86159.0
13	16	35	4	625	183.0	-198586.0	-2669.0	-86368.0
13	16	35	4	626	184.0	-199169.0	-2658.0	-86501.0
13	16	35	4	627	185.0	-199867.0	-2691.0	-86656.0
13	16	35	4	628	186.0	-201029.0	-2673.0	-86454.0
13	16	35	4	628	187.0	-201477.0	-2686.0	-85981.0
13	16	35	4	629	188.0	-201851.0	-2696.0	-86105.0
13	16	35	4	630	189.0	-202067.0	-2675.0	-86273.0
13	16	35	4	630	190.0	-202116.0	-2666.0	-86028.0
13	16	35	4	631	191.0	-201786.0	-2697.0	-85942.0
13	16	35	4	632	192.0	-201104.0	-2697.0	-86050.0
13	16	35	4	632	193.0	-200580.0	-2679.0	-86217.0
13	16	35	4	633	194.0	-200324.0	-2696.0	-86306.0
13	16	35	4	634	195.0	-200235.0	-2722.0	-86373.0
13	16	35	4	634	196.0	-200407.0	-2721.0	-85992.0
13	16	35	4	635	197.0	-200542.0	-2726.0	-85605.0
13	16	35	4	636	199.0	-201560.0	-2709.0	-85189.0
13	16	35	4	637	200.0	-202654.0	-2726.0	-85197.0
13	16	35	4	637	201.0	-204099.0	-2721.0	-85683.0
13	16	35	4	638	202.0	-205294.0	-2725.0	-85842.0
13	16	35	4	639	203.0	-206330.0	-2731.0	-85399.0
13	16	35	4	639	204.0	-206698.0	-2748.0	-85249.0
13	16	35	4	670	205.0	-206911.0	-2751.0	-85412.0
13	16	35	4	671	206.0	-206691.0	-2768.0	-85366.0
13	16	35	4	672	207.0	-206274.0	-2761.0	-85232.0
13	16	35	4	673	208.0	-205377.0	-2789.0	-84807.0
13	16	35	4	673	209.0	-204309.0	-2799.0	-84446.0
13	16	35	4	674	210.0	-203059.0	-2806.0	-84433.0
13	16	35	4	674	211.0	-201799.0	-2801.0	-84364.0
13	16	35	4	675	212.0	-200367.0	-2813.0	-84447.0
13	16	35	4	676	213.0	-198752.0	-2824.0	-84592.0
13	16	35	4	677	214.0	-197680.0	-2837.0	-84416.0
13	16	35	4	677	215.0	-196769.0	-2854.0	-84855.0
13	16	35	4	678	216.0	-195484.0	-2854.0	-84709.0
13	16	35	4	678	217.0	-193866.0	-2883.0	-84224.0
13	16	35	4	679	218.0	-192431.0	-2906.0	-84089.0
13	16	35	4	680	219.0	-191570.0	-2913.0	-83700.0
13	16	35	4	680	222.0	-188502.0	-2942.0	-84130.0
13	16	35	4	681	223.0	-187658.0	-2950.0	-83889.0
13	16	35	4	682	224.0	-187216.0	-2962.0	-83871.0
13	16	35	4	682	225.0	-187267.0	-2988.0	-84494.0
13	16	35	4	683	226.0	-187246.0	-2998.0	-84034.0
13	16	35	4	684	227.0	-187429.0	-3002.0	-83260.0
13	16	35	4	716	228.0	-188031.0	-3020.0	-83270.0
13	16	35	4	717	229.0	-189267.0	-3028.0	-83211.0
13	16	35	4	718	230.0	-190629.0	-3053.0	-82777.0
13	16	35	4	719	231.0	-191369.0	-3050.0	-82764.0
13	16	35	4	719	232.0	-192153.0	-3084.0	-83012.0
13	16	35	4	720	233.0	-193006.0	-3101.0	-83163.0
13	16	35	4	721	234.0	-193879.0	-3106.0	-83111.0
13	16	35	4	721	235.0	-194162.0	-3139.0	-82815.0
13	16	35	4	722	236.0	-194247.0	-3157.0	-82539.0
13	16	35	4	723	237.0	-194166.0	-3171.0	-82270.0
13	16	35	4	723	238.0	-194112.0	-3200.0	-82336.0
13	16	35	4	724	239.0	-193782.0	-3215.0	-81692.0
13	16	35	4	725	240.0	-193482.0	-3221.0	-81617.0
13	16	35	4	725	241.0	-193038.0	-3239.0	-81614.0
13	16	35	4	726	242.0	-192594.0	-3259.0	-81707.0
13	16	35	4	727	244.0	-191957.0	-3299.0	-81586.0
13	16	35	4	728	245.0	-192028.0	-3314.0	-81420.0
13	16	35	4	728	246.0	-191948.0	-3329.0	-81402.0
13	16	35	4	729	247.0	-191686.0	-3339.0	-81357.0
13	16	35	4	730	248.0	-191313.0	-3351.0	-80792.0
13	16	35	4	730	249.0	-190745.0	-3370.0	-80605.0
13	16	35	4	776	250.0	-190484.0	-3391.0	-80816.0
13	16	35	4	797	251.0	-190327.0	-3391.0	-80786.0
13	16	35	4	798	252.0	-190047.0	-3410.0	-81137.0
13	16	35	4	799	253.0	-190137.0	-3434.0	-81213.0
13	16	35	4	800	254.0	-190361.0	-3456.0	-80872.0
13	16	35	4	800	255.0	-190717.0	-3487.0	-80499.0
13	16	35	4	801	0.0	-190725.0	-3487.0	-80440.0
13	16	35	4	802	1.0	-190549.0	-3510.0	-79507.0
13	16	35	4	802	2.0	-190769.0	-3522.0	-79409.0
13	16	35	4	803	3.0	-191111.0	-3548.0	-79459.0
13	16	35	4	803	4.0	-191384.0	-3541.0	-79384.0
13	16	35	4	804	5.0	-191694.0	-3549.0	-79557.0
13	16	35	4	805	6.0	-192396.0	-3574.0	-79571.0
13	16	35	4	805	7.0	-192957.0	-3592.0	-79245.0
13	16	35	4	806	8.0	-193529.0	-3626.0	-79131.0
13	16	35	4	807	18.0	-198421.0	-3775.0	-77074.0
13	16	35	4	807	25.0	-197349.0	-3911.0	-73788.0
13	16	35	4	808	26.0	-197344.0	-3912.0	-73756.0
13	16	35	4	809	27.0	-197077.0	-3949.0	-73830.0
13	16	35	4	809	28.0	-197046.0	-3979.0	-73383.0
13	16	35	4	810	29.0	-196976.0	-3975.0	-73791.0
13	16	35	4	810	30.0	-196662.0	-3991.0	-74458.0
13	16	35	4	811	31.0	-196588.0	-4019.0	-74297.0
13	16	35	4	811	32.0	-196707.0	-4026.0	-73792.0
13	16	35	4	812	33.0	-197344.0	-4024.0	-73432.0
13	16	35	4	821	34.0	-198243.0	-4029.0	-73151.0
13	16	35	4	822	35.0	-199447.0	-4054.0	-73013.0
13	16	35	4	823	36.0	-200445.0	-4056.0	-73255.0
13	16	35	4	823	37.0	-201276.0	-4073.0	-72822.0
13	16	35	4	824	38.0	-202409.0	-4077.0	-71841.0
13	16	35	4	825	39.0	-203346.0	-4091.0	-71617.0
13	16	35	4	825	40.0	-204217.0	-4107.0	-71035.0
13	16	35	4	826	41.0	-204912.0	-4124.0	-70214.0
13	16	35	4	827	42.0	-205367.0	-4141.0	-70120.0
13	16	35	4	845	43.0	-205665.0	-4149.0	-69769.0
13	16	35	4	846	44.0	-206021.0	-4152.0	-70096.0
13	16	35	4	846	45.0	-205831.0	-4170.0	-70483.0
13	16	35	4	847	46.0	-205364.0	-4201.0	-70320.0
13	16	35	4	848	47.0	-204781.0	-4207.0	-70206.0
13	16	35	4	849	48.0	-204065.0	-4214.0	-70065.0
13	16	35	4	849	49.0	-203280.0	-4223.0	-69687.0
13	16	35	4	850	50.0	-202491.0	-4241.0	-69374.0
13	16	35	4	851	51.0	-201627.0	-4243.0	-68967.0
13	16	35	4	852	52.0	-200547.0	-4250.0	-68653.0
13	16	35	4	852	53.0	-199515.0	-4266.0	-68471.0
13	16	35	4	853	54.0	-198511.0	-4282.0	-68712.0
13	16	35	4	853	55.0	-197276.0	-4285.0	-68419.0
13	16	35	4	854	56.0	-196717.0	-4293.0	-68433.0
13	16	35	4	867	57.0	-196132.0	-4292.0	-68549.0
13	16	35	4	868	58.0	-195790.0	-4297.0	-68217.0
13	16	35	4	869	59.0	-195776.0	-4320.0	-68297.0
13	16	35	4	870	60.0	-195972.0	-4325.0	-68232.0
13	16	35	4	870	61.0	-196059.0	-4337.0	-67547.0
13	16	35	4	871	62.0	-196287.0	-4364.0	-67316.0
13	16	35	4	872	63.0	-196541.0	-4367.0	-67476.0
13	16	35	4	872	64.0	-196281.0	-4379.0	-67617.0
13	16	35	4	890	65.0	-196057.0	-4382.0	-67161.0
13	16	35	4	891	66.0	-195555.0	-4389.0	-67426.0
13	16	35	4	892	67.0	-194729.0	-4410.0	-67611.0
13	16	35	4	893	68.0	-194197.0	-4429.0	-67405.0
13	16	35	4	894	69.0	-193869.0	-4438.0	-66932.0
13	16	35	4	894	70.0	-193062.0	-4459.0	-66997.0
13	16	35	4	895	71.0	-192410.0	-4481.0	-66742.0
13	16	35	4	896	72.0	-192121.0	-4485.0	-66582.0
13	16	35	4	896	73.0	-191725.0	-4475.0	-66387.0
13	16	35	4	897	74.0	-191411.0	-4478.0	-66678.0
13	16	35	4	898	75.0	-191354.0	-4476.0	-66468.0
13	16	35	4	898	76.0	-190941.0	-4506.0	-65954.0
13	16	35	4	899	77.0	-190772.0	-4522.0	-65156.0
13	16	35	4	900	78.0	-191607.0	-4526.0	-64361.0
13	16	35	4	900	79.0	-191909.0	-4544.0	-64364.0
13	16	35	4	917	80.0	-192621.0	-4561.0	-64712.0
13	16	35	4	917	81.0	-193066.0	-4572.0	-65289.0
13	16	35	4	918	82.0	-194139.0	-4587.0	-64947.0
13	16	35	4	919	83.0	-194953.0	-4577.0	-65190.0
13	16	35	4	920	84.0	-195521.0	-4589.0	-65867.0
13	16	35	4	920	85.0	-196306.0	-4588.0	-65922.0
13	16	35	4	921	86.0	-197752.0	-4601.0	-66464.0
13	16	35	4	940	87.0	-199587.0	-4623.0	-67991.0
13	16	35	4	941	88.0	-202616.0	-4642.0	-69197.0
13	16	35	4	942	89.0	-206860.0	-4643.0	-70195.0
13	16	35	4	942	90.0	-212164.0	-4652.0	-70903.0
13	16	35	4	943	91.0	-218812.0	-4662.0	-69074.0
13	16	35	4	944	92.0	-227529.0	-4683.0	-66861.0
13	16	35	4	944	93.0	-237636.0	-4701.0	-66628.0
13	16	35	4	945	94.0	-249057.0	-4701.0	-68286.0
13	16	35	4	946	95.0	-261729.0	-4701.0	-70455.0
13	16	35	4	946	96.0	-275018.0	-4716.0	-73456.0
13	16	35	4	947	97.0	-287635.0	-4724.0	-73093.0
13	16	35	4	947	98.0	-298252.0	-4727.0	-72941.0
13	16	35	4	948	99.0	-305333.0	-4752.0	-74680.0
13	16	35	4	949	100.0	-306852.0	-4762.0	-76655.0
13	16	35	4	949	101.0	-302557.0	-4776.0	-74788.0
13	16	35	4	977	102.0	-293486.0	-4782.0	-69255.0
13	16	35	4	980	103.0	-278777.0	-4793.0	-64167.0
13	16	35	4	980	104.0	-260314.0	-4783.0	-61336.0
13	16	35	4	981	105.0	-240405.0	-4792.0	-59831.0
13	16	35	4	982	106.0	-221101.0	-4797.0	-58777.0
13	16	35	4	982	107.0	-204406.0	-4812.0	-58620.0
13	16	35	4	983	108.0	-191338.0	-4821.0	-59216.0
13	16	35	4	983	109.0	-181128.0	-4832.0	-59286.0
13	16	35	4	984	110.0	-171446.0	-4844.0	-59255.0
13	16	35	4	985	111.0	-167411.0	-4866.0	-59444.0
13	16	35	4	985	112.0	-172926.0	-4876.0	-59779.0
13	16	35	4	986	113.0	-177287.0	-4912.0	-59887.0
13	16	35	4	986	114.0	-181049.0	-4918.0	-60562.0
13	16	35	4	987	115.0	-181963.0	-4914.0	-60697.0
13	16	35	4	987	116.0	-185925.0	-4916.0	-61209.0
13	16	35	4	988	117.0	-197482.0	-4928.0	-61757.0
13	16	35	4	988	118.0	-214682.0	-4936.0	-61805.0
13	16	35	4	989	119.0	-233861.0	-4929.0	-61566.0
13	16	35	4	990	120.0	-248806.0	-4948.0	-61574.0
13	16	35	4	990	121.0	-256567.0	-4972.0	-61832.0
13	16	35	4	991	122.0	-258757.0	-4965.0	-61618.0
13	16	35	5	0	123.0	-259692.0	-4988.0	-61832.0
13	16	35	5	1	124.0	-261844.0	-5000.0	-62431.0
13	16	35	5	1	125.0	-267307.0	-5008.0	-62406.0
13	16	35	5	2	126.0	-273354.0	-5019.0	-62898.0
13	16	35	5	3	127.0	-278238.0	-5036.0	-63201.0
13	16	35	5	3	128.0	-279404.0	-5049.0	-63019.0
13	16	35	5	4	129.0	-277238.0	-5071.0	-63237.0
13	16	35	5	4	130.0	-268616.0	-5082.0	-63097.0
13	16	35	5	5	131.0	-258795.0	-5105.0	-63035.0
13	16	35	5	5	132.0	-251541.0	-5120.0	-62813.0
13	16	35	5	23	133.0	-247962.0	-5116.0	-62778.0
13	16	35	5	24	134.0	-244938.0	-5128.0	-63058.0
13	16	35	5	24	135.0	-242409.0	-5138.0	-62976.0
13	16	35	5	25	136.0	-241646.0	-5127.0	-63070.0
13	16	35	5	25	137.0	-243865.0	-5145.0	-63225.0
13	16	35	5	26	138.0	-247953.0	-5168.0	-63496.0
13	16	35	5	46	139.0	-250026.0	-5187.0	-63281.0
13	16	35	5	47	140.0	-248366.0	-5176.0	-62986.0
13	16	35	5	48	141.0	-244444.0	-5192.0	-62877.0
13	16	35	5	48	142.0	-237999.0	-5212.0	-62712.0
13	16	35	5	49	143.0	-227151.0	-5228.0	-62777.0
13	16	35	5	49	144.0	-211425.0	-5244.0	-63267.0
13	16	35	5	50	145.0	-194436.0	-5257.0	-63371.0
13	16	35	5	51	146.0	-178551.0	-5261.0	-63099.0
13	16	35	5	51	147.0	-160331.0	-5275.0	-63431.0
13	16	35	5	52	148.0	-140515.0	-5276.0	-63668.0
13	16	35	5	52	149.0	-120759.0	-5296.0	-63553.0
13	16	35	5	53	150.0	-102890.0	-5301.0	-63387.0
13	16	35	5	54	151.0	-85816.0	-5316.0	-63110.0
13	16	35	5	54	152.0	-71419.0	-5330.0	-62702.0
13	16	35	5	55	153.0	-62202.0	-5327.0	-63017.0
13	16	35	5	55	154.0	-57150.0	-5331.0	-63298.0
13	16	35	5	56	155.0	-54206.0	-5345.0	-63389.0
13	16	35	5	56	156.0	-53104.0	-5354.0	-63557.0
13	16	35	5	57	157.0	-55099.0	-5350.0	-63661.0
13	16	35	5	69	158.0	-59888.0	-5369.0	-63536.0
13	16	35	5	70	159.0	-66464.0	-5392.0	-63307.0
13	16	35	5	71	160.0	-73907.0	-5401.0	-63227.0
13	16	35	5	93	161.0	-81861.0	-5436.0	-62732.0
13	16	35	5	93	162.0	-90581.0	-5429.0	-62393.0
13	16	35	5	94	163.0	-99794.0	-5419.0	-62571.0
13	16	35	5	94	164.0	-108960.0	-5429.0	-62916.0
13	16	35	5	95	165.0	-117154.0	-5443.0	-62899.0
13	16	35	5	96	166.0	-124725.0	-5453.0	-62956.0
13	16	35	5	96	167.0	-131614.0	-5457.0	-62836.0
13	16	35	5	97	168.0	-137489.0	-5461.0	-63127.0
13	16	35	5	97	169.0	-142586.0	-5496.0	-63209.0
13	16	35	5	98	170.0	-146752.0	-5507.0	-62852.0
13	16	35	5	98	171.0	-150762.0	-5488.0	-62716.0
13	16	35	5	99	172.0	-153919.0	-5501.0	-62587.0
13	16	35	5	100	173.0	-157497.0	-5516.0	-62371.0
13	16	35	5	100	174.0	-160757.0	-5506.0	-62400.0
13	16	35	5	101	175.0	-163229.0	-5534.0	-62531.0
13	16	35	5	101	176.0	-165606.0	-5552.0	-62387.0
13	16	35	5	116	177.0	-167881.0	-5573.0	-62454.0
13	16	35	5	117	178.0	-169766.0	-5577.0	-62004.0
13	16	35	5	117	179.0	-171341.0	-5585.0	-61766.0
13	16	35	5	118	180.0	-172494.0	-5606.0	-61633.0
13	16	35	5	119	181.0	-173516.0	-5614.0	-61706.0
13	16	35	5	119	182.0	-174086.0	-5636.0	-61217.0
13	16	35	5	120	183.0	-174857.0	-5641.0	-60969.0
13	16	35	5	120	184.0	-176409.0	-5654.0	-61174.0
13	16	35	5	121	185.0	-177089.0	-5658.0	-61236.0
13	16	35	5	122	186.0	-176108.0	-5652.0	-61092.0
13	16	35	5	122	187.0	-175182.0	-5669.0	-60957.0
13	16	35	5	123	188.0	-173909.0	-5689.0	-60751.0
13	16	35	5	123	189.0	-172757.0	-5701.0	-60433.0
13	16	35	5	124	190.0	-171762.0	-5709.0	-60094.0
13	16	35	5	124	191.0	-170847.0	-5735.0	-59920.0
13	16	35	5	139	192.0	-169548.0	-5732.0	-59344.0
13	16	35	5	139	193.0	-168306.0	-5742.0	-59446.0
13	16	35	5	140	194.0	-168108.0	-5755.0	-59659.0
13	16	35	5	140	195.0	-168499.0	-5770.0	-59440.0
13	16	35	5	141	196.0	-168945.0	-5783.0	-59371.0
13	16	35	5	142	197.0	-170249.0	-5780.0	-59066.0
13	16	35	5	142	198.0	-171396.0	-5806.0	-58982.0
13	16	35	5	143	199.0	-172759.0	-5836.0	-59012.0
13	16	35	5	165	200.0	-174806.0	-5831.0	-58524.0
13	16	35	5	165	201.0	-177020.0	-5843.0	-58281.0
13	16	35	5	166	202.0	-179563.0	-5856.0	-57842.0
13	16	35	5	166	203.0	-182398.0	-5843.0	-57583.0
13	16	35	5	167	204.0	-185672.0	-5848.0	-57879.0
13	16	35	5	168	205.0	-188609.0	-5848.0	-58192.0
13	16	35	5	168	206.0	-191042.0	-5858.0	-57771.0
13	16	35	5	169	207.0	-193151.0	-5854.0	-57718.0
13	16	35	5	170	208.0	-194944.0	-5864.0	-57730.0
13	16	35	5	170	209.0	-196574.0	-5871.0	-56834.0
13	16	35	5	171	210.0	-197864.0	-5879.0	-56288.0
13	16	35	5	171	211.0	-198981.0	-5869.0	-56070.0
13	16	35	5	172	212.0	-199464.0	-5858.0	-55874.0
13	16	35	5	172	213.0	-199704.0	-5831.0	-55590.0
13	16	35	5	173	214.0	-199915.0	-5839.0	-55599.0
13	16	35	5	188	215.0	-200384.0	-5826.0	-55501.0
13	16	35	5	189	216.0	-201162.0	-5824.0	-55225.0
13	16	35	5	210	217.0	-202205.0	-5823.0	-55214.0
13	16	35	5	211	218.0	-203965.0	-5809.0	-55144.0
13	16	35	5	212	219.0	-205544.0	-5804.0	-54676.0
13	16	35	5	212	220.0	-206654.0	-5784.0	-54224.0
13	16	35	5	213	221.0	-207951.0	-5756.0	-53899.0
13	16	35	5	214	222.0	-209423.0	-5715.0	-53220.0
13	16	35	5	214	223.0	-209816.0	-5712.0	-52784.0
13	16	35	5	215	224.0	-210777.0	-5671.0	-52603.0
13	16	35	5	215	225.0	-211532.0	-5636.0	-52368.0
13	16	35	5	216	226.0	-211749.0	-5610.0	-52404.0
13	16	35	5	216	227.0	-212269.0	-5575.0	-52338.0
13	16	35	5	217	228.0	-212451.0	-5552.0	-52054.0
13	16	35	5	218	229.0	-212402.0	-5515.0	-51712.0
13	16	35	5	218	230.0	-212294.0	-5454.0	-51259.0
13	16	35	5	219	231.0	-211885.0	-5402.0	-50806.0
13	16	35	5	219	232.0	-212376.0	-5366.0	-50142.0
13	16	35	5	220	233.0	-213046.0	-5322.0	-50042.0
13	16	35	5	220	234.0	-214497.0	-5268.0	-49669.0
13	16	35	5	221	235.0	-215827.0	-5222.0	-49696.0
13	16	35	5	234	236.0	-217636.0	-5181.0	-49181.0
13	16	35	5	234	237.0	-219352.0	-5138.0	-48609.0
13	16	35	5	235	238.0	-220899.0	-5069.0	-48812.0
13	16	35	5	236	239.0	-222211.0	-5033.0	-48794.0
13	16	35	5	236	240.0	-223484.0	-4999.0	-48430.0
13	16	35	5	237	241.0	-224266.0	-4944.0	-48594.0
13	16	35	5	237	242.0	-224564.0	-4884.0	-48453.0
13	16	35	5	238	243.0	-224806.0	-4841.0	-48522.0
13	16	35	5	239	244.0	-225013.0	-4796.0	-48979.0
13	16	35	5	239	245.0	-224807.0	-4729.0	-49587.0
13	16	35	5	240	246.0	-223706.0	-4677.0	-49417.0
13	16	35	5	240	247.0	-221799.0	-4637.0	-49578.0
13	16	35	5	241	248.0	-219824.0	-4602.0	-49821.0
13	16	35	5	242	249.0	-217130.0	-4537.0	-49594.0
13	16	35	5	242	250.0	-213683.0	-4495.0	-49252.0
13	16	35	5	243	251.0	-209459.0	-4461.0	-49029.0
13	16	35	5	257	252.0	-205534.0	-4385.0	-49137.0
13	16	35	5	281	253.0	-201777.0	-4331.0	-49142.0
13	16	35	5	282	254.0	-198423.0	-4283.0	-49478.0
13	16	35	5	282	255.0	-195369.0	-4259.0	-49674.0
13	16	35	5	283	0.0	-191549.0	-4221.0	-50000.0
13	16	35	5	284	1.0	-189609.0	-4188.0	-50142.0
13	16	35	5	284	2.0	-187669.0	-4130.0	-50317.0
13	16	35	5	285	3.0	-186697.0	-4093.0	-50229.0
13	16	35	5	285	4.0	-186289.0	-4051.0	-49815.0
13	16	35	5	286	5.0	-186094.0	-4013.0	-49724.0
13	16	35	5	286	6.0	-187020.0	-4006.0	-49857.0
13	16	35	5	287	7.0	-188831.0	-3966.0	-49886.0
13	16	35	5	288	8.0	-191617.0	-3907.0	-49842.0
13	16	35	5	288	9.0	-196137.0	-3866.0	-49758.0
13	16	35	5	289	10.0	-203527.0	-3847.0	-49572.0
13	16	35	5	289	11.0	-211534.0	-3826.0	-49599.0
13	16	35	5	290	12.0	-210396.0	-3797.0	-49500.0
13	16	35	5	290	13.0	-206704.0	-3771.0	-49454.0
13	16	35	5	291	14.0	-205545.0	-3741.0	-49084.0
13	16	35	5	292	15.0	-209317.0	-3718.0	-48997.0
13	16	35	5	292	16.0	-215305.0	-3680.0	-48639.0
13	16	35	5	304	17.0	-218469.0	-3678.0	-48267.0
13	16	35	5	305	18.0	-217598.0	-3657.0	-48320.0
13	16	35	5	305	19.0	-215912.0	-3634.0	-48538.0
13	16	35	5	306	20.0	-213507.0	-3624.0	-48493.0
13	16	35	5	306	21.0	-209154.0	-3601.0	-48326.0
13	16	35	5	307	22.0	-202760.0	-3584.0	-48281.0
13	16	35	5	308	23.0	-195206.0	-3584.0	-48231.0
13	16	35	5	308	24.0	-186886.0	-3571.0	-47995.0
13	16	35	5	309	25.0	-178897.0	-3551.0	-48067.0
13	16	35	5	309	26.0	-172991.0	-3536.0	-47871.0
13	16	35	5	327	27.0	-169973.0	-3513.0	-47549.0
13	16	35	5	328	28.0	-169617.0	-3492.0	-48026.0
13	16	35	5	328	29.0	-171281.0	-3489.0	-48218.0
13	16	35	5	329	30.0	-173732.0	-3487.0	-48374.0
13	16	35	5	330	31.0	-177207.0	-3495.0	-47960.0
13	16	35	5	330	32.0	-181666.0	-3479.0	-47609.0
13	16	35	5	331	33.0	-186537.0	-3467.0	-47585.0
13	16	35	5	331	34.0	-191597.0	-3480.0	-47201.0
13	16	35	5	332	35.0	-195761.0	-3462.0	-46664.0
13	16	35	5	332	36.0	-198649.0	-3465.0	-46372.0
13	16	35	5	350	37.0	-200295.0	-3460.0	-46673.0
13	16	35	5	351	38.0	-201184.0	-3447.0	-46792.0
13	16	35	5	351	39.0	-201462.0	-3457.0	-47056.0
13	16	35	5	352	40.0	-201738.0	-3456.0	-47006.0
13	16	35	5	352	41.0	-201436.0	-3443.0	-46698.0
13	16	35	5	353	42.0	-201116.0	-3433.0	-47069.0
13	16	35	5	354	43.0	-201048.0	-3450.0	-47125.0
13	16	35	5	354	44.0	-200528.0	-3457.0	-45991.0
13	16	35	5	355	45.0	-199534.0	-3442.0	-45583.0
13	16	35	5	355	46.0	-198514.0	-3449.0	-45872.0
13	16	35	5	356	47.0	-197574.0	-3459.0	-45757.0
13	16	35	5	356	48.0	-196671.0	-3452.0	-45913.0
13	16	35	5	357	49.0	-196191.0	-3438.0	-46221.0
13	16	35	5	374	50.0	-196124.0	-3445.0	-46597.0
13	16	35	5	374	51.0	-196949.0	-3444.0	-46991.0
13	16	35	5	375	52.0	-197713.0	-3443.0	-47589.0
13	16	35	5	376	53.0	-199386.0	-3469.0	-48114.0
13	16	35	5	376	54.0	-201440.0	-3489.0	-47929.0
13	16	35	5	377	55.0	-203616.0	-3501.0	-47976.0
13	16	35	5	377	56.0	-207015.0	-3499.0	-48097.0
13	16	35	5	378	57.0	-209372.0	-3486.0	-48043.0
13	16	35	5	379	58.0	-212792.0	-3496.0	-47763.0
13	16	35	5	379	59.0	-215790.0	-3512.0	-47459.0
13	16	35	5	380	60.0	-218359.0	-3506.0	-47497.0
13	16	35	5	380	61.0	-221567.0	-3510.0	-47131.0
13	16	35	5	381	62.0	-224407.0	-3524.0	-46557.0
13	16	35	5	381	63.0	-227269.0	-3537.0	-46239.0
13	16	35	5	398	64.0	-229657.0	-3560.0	-45994.0
13	16	35	5	398	65.0	-231846.0	-3568.0	-45566.0
13	16	35	5	399	66.0	-233996.0	-3586.0	-45511.0
13	16	35	5	400	67.0	-235522.0	-3597.0	-45495.0
13	16	35	5	400	68.0	-236746.0	-3594.0	-45470.0
13	16	35	5	401	69.0	-237734.0	-3606.0	-45539.0
13	16	35	5	401	70.0	-238536.0	-3615.0	-45796.0
13	16	35	5	421	71.0	-238737.0	-3627.0	-45288.0
13	16	35	5	422	72.0	-238997.0	-3641.0	-44923.0
13	16	35	5	423	73.0	-239300.0	-3646.0	-45107.0
13	16	35	5	423	74.0	-239184.0	-3660.0	-44759.0
13	16	35	5	424	75.0	-238873.0	-3677.0	-44287.0
13	16	35	5	424	76.0	-238253.0	-3679.0	-44588.0
13	16	35	5	425	77.0	-237580.0	-3708.0	-44505.0
13	16	35	5	426	78.0	-236457.0	-3737.0	-44526.0
13	16	35	5	426	79.0	-235440.0	-3712.0	-44711.0
13	16	35	5	427	80.0	-234476.0	-3729.0	-44554.0
13	16	35	5	427	81.0	-233362.0	-3747.0	-44292.0
13	16	35	5	428	82.0	-232137.0	-3762.0	-44663.0
13	16	35	5	428	83.0	-230780.0	-3776.0	-44412.0
13	16	35	5	429	84.0	-229615.0	-3798.0	-44196.0
13	16	35	5	429	85.0	-228068.0	-3811.0	-44006.0
13	16	35	5	445	86.0	-225155.0	-3810.0	-43816.0
13	16	35	5	446	87.0	-221917.0	-3840.0	-43852.0
13	16	35	5	446	88.0	-219030.0	-3844.0	-44208.0
13	16	35	5	447	89.0	-215713.0	-3856.0	-44407.0
13	16	35	5	448	90.0	-212639.0	-3870.0	-44227.0
13	16	35	5	448	91.0	-210012.0	-3904.0	-44029.0
13	16	35	5	449	92.0	-207893.0	-3907.0	-43942.0
13	16	35	5	449	93.0	-205641.0	-3917.0	-43807.0
13	16	35	5	450	94.0	-203913.0	-3930.0	-43767.0
13	16	35	5	451	95.0	-202629.0	-3954.0	-43576.0
13	16	35	5	451	96.0	-202304.0	-3957.0	-43427.0
13	16	35	5	452	97.0	-202132.0	-3967.0	-43537.0
13	16	35	5	452	98.0	-201830.0	-3958.0	-43481.0
13	16	35	5	453	99.0	-202312.0	-3981.0	-43814.0
13	16	35	5	468	100.0	-202564.0	-3992.0	-43871.0
13	16	35	5	468	101.0	-203666.0	-3993.0	-43736.0
13	16	35	5	469	102.0	-204966.0	-4004.0	-43616.0
13	16	35	5	469	103.0	-206352.0	-4033.0	-43536.0
13	16	35	5	470	104.0	-207411.0	-4049.0	-43044.0
13	16	35	5	470	105.0	-208468.0	-4057.0	-42851.0
13	16	35	5	471	106.0	-209734.0	-4064.0	-43433.0
13	16	35	5	472	107.0	-210795.0	-4067.0	-43441.0
13	16	35	5	496	108.0	-211704.0	-4067.0	-42822.0
13	16	35	5	496	109.0	-212389.0	-4067.0	-43550.0
13	16	35	5	497	110.0	-212677.0	-4069.0	-43951.0
13	16	35	5	498	111.0	-212601.0	-4087.0	-43516.0
13	16	35	5	498	112.0	-212761.0	-4101.0	-43361.0
13	16	35	5	499	113.0	-212336.0	-4127.0	-43205.0
13	16	35	5	500	114.0	-211415.0	-4132.0	-42931.0
13	16	35	5	500	115.0	-210351.0	-4112.0	-43068.0
13	16	35	5	501	116.0	-209771.0	-4134.0	-43259.0
13	16	35	5	502	117.0	-209997.0	-4162.0	-43198.0
13	16	35	5	502	118.0	-209067.0	-4170.0	-43261.0
13	16	35	5	503	119.0	-209684.0	-4156.0	-43594.0
13	16	35	5	503	120.0	-209654.0	-4157.0	-43804.0
13	16	35	5	504	121.0	-209821.0	-4181.0	-43939.0
13	16	35	5	505	122.0	-210369.0	-4172.0	-43765.0
13	16	35	5	506	123.0	-210248.0	-4174.0	-43606.0
13	16	35	5	506	124.0	-209922.0	-4174.0	-43570.0
13	16	35	5	507	125.0	-209631.0	-4189.0	-43087.0
13	16	35	5	507	126.0	-209258.0	-4175.0	-43134.0
13	16	35	5	515	127.0	-208398.0	-4165.0	-43682.0
13	16	35	5	516	128.0	-207459.0	-4151.0	-43442.0
13	16	35	5	538	129.0	-206693.0	-4154.0	-43554.0
13	16	35	5	539	130.0	-205941.0	-4157.0	-43939.0
13	16	35	5	540	131.0	-205158.0	-4148.0	-43951.0
13	16	35	5	540	132.0	-204147.0	-4152.0	-43546.0
13	16	35	5	541	133.0	-203082.0	-4153.0	-43568.0
13	16	35	5	541	134.0	-202213.0	-4156.0	-43517.0
13	16	35	5	542	135.0	-201577.0	-4173.0	-43256.0
13	16	35	5	543	136.0	-200771.0	-4148.0	-43342.0
13	16	35	5	543	137.0	-199816.0	-4141.0	-43602.0
13	16	35	5	544	138.0	-198761.0	-4154.0	-43529.0
13	16	35	5	544	139.0	-197728.0	-4134.0	-43519.0
13	16	35	5	545	140.0	-196592.0	-4126.0	-43537.0
13	16	35	5	546	141.0	-195276.0	-4112.0	-43469.0
13	16	35	5	546	142.0	-194047.0	-4122.0	-43729.0
13	16	35	5	547	143.0	-193079.0	-4122.0	-43687.0
13	16	35	5	547	144.0	-192063.0	-4103.0	-43101.0
13	16	35	5	548	145.0	-191341.0	-4105.0	-43224.0
13	16	35	5	563	146.0	-191046.0	-4106.0	-43484.0
13	16	35	5	564	147.0	-191239.0	-4107.0	-43562.0
13	16	35	5	564	148.0	-191342.0	-4107.0	-43822.0
13	16	35	5	565	149.0	-191424.0	-4116.0	-43894.0
13	16	35	5	565	150.0	-191967.0	-4115.0	-43887.0
13	16	35	5	566	151.0	-192123.0	-4119.0	-43862.0
13	16	35	5	566	152.0	-191885.0	-4112.0	-43914.0
13	16	35	5	586	153.0	-191261.0	-4104.0	-43682.0
13	16	35	5	587	154.0	-191092.0	-4116.0	-43700.0
13	16	35	5	587	155.0	-190839.0	-4114.0	-43364.0
13	16	35	5	588	156.0	-190726.0	-4119.0	-43577.0
13	16	35	5	589	157.0	-190562.0	-4121.0	-43922.0
13	16	35	5	589	158.0	-190447.0	-4119.0	-43761.0
13	16	35	5	590	159.0	-190270.0	-4131.0	-43331.0
13	16	35	5	590	160.0	-190109.0	-4133.0	-43743.0
13	16	35	5	591	161.0	-190106.0	-4121.0	-43678.0
13	16	35	5	592	162.0	-190675.0	-4126.0	-43511.0
13	16	35	5	592	163.0	-191030.0	-4135.0	-43440.0
13	16	35	5	593	164.0	-191444.0	-4147.0	-43533.0
13	16	35	5	593	165.0	-193194.0	-4137.0	-43357.0
13	16	35	5	594	166.0	-194139.0	-4148.0	-43569.0
13	16	35	5	594	167.0	-195462.0	-4135.0	-43990.0
13	16	35	5	612	168.0	-197147.0	-4127.0	-43771.0
13	16	35	5	613	169.0	-197804.0	-4132.0	-44132.0
13	16	35	5	614	170.0	-199379.0	-4148.0	-44271.0
13	16	35	5	614	171.0	-200640.0	-4154.0	-43951.0
13	16	35	5	615	172.0	-201390.0	-4156.0	-43855.0
13	16	35	5	616	173.0	-202294.0	-4151.0	-43718.0
13	16	35	5	616	174.0	-202889.0	-4163.0	-43632.0
13	16	35	5	617	175.0	-203365.0	-4169.0	-43839.0
13	16	35	5	617	176.0	-203451.0	-4165.0	-43830.0
13	16	35	5	618	177.0	-203403.0	-4165.0	-43765.0
13	16	35	5	619	178.0	-203084.0	-4182.0	-43961.0
13	16	35	5	619	179.0	-202304.0	-4169.0	-44195.0
13	16	35	5	620	180.0	-201387.0	-4186.0	-44244.0
13	16	35	5	620	181.0	-200616.0	-4211.0	-44291.0
13	16	35	5	621	182.0	-200114.0	-4226.0	-44191.0
13	16	35	5	635	183.0	-199577.0	-4219.0	-43969.0
13	16	35	5	636	184.0	-198861.0	-4214.0	-44068.0
13	16	35	5	636	185.0	-198344.0	-4234.0	-44165.0
13	16	35	5	637	186.0	-197734.0	-4244.0	-44237.0
13	16	35	5	637	187.0	-197011.0	-4244.0	-44962.0
13	16	35	5	638	188.0	-196100.0	-4253.0	-45192.0
13	16	35	5	639	189.0	-194911.0	-4279.0	-45121.0
13	16	35	5	639	190.0	-193893.0	-4293.0	-45454.0
13	16	35	5	662	191.0	-193127.0	-4300.0	-45994.0
13	16	35	5	662	192.0	-192439.0	-4312.0	-45657.0
13	16	35	5	663	193.0	-191586.0	-4315.0	-45899.0
13	16	35	5	664	194.0	-191034.0	-4329.0	-46260.0
13	16	35	5	664	195.0	-190731.0	-4351.0	-46259.0
13	16	35	5	665	196.0	-190497.0	-4352.0	-46332.0
13	16	35	5	665	197.0	-190434.0	-4362.0	-46687.0
13	16	35	5	666	198.0	-190494.0	-4364.0	-46812.0
13	16	35	5	666	199.0	-190526.0	-4386.0	-47041.0
13	16	35	5	667	200.0	-190719.0	-4387.0	-47502.0
13	16	35	5	668	201.0	-191089.0	-4409.0	-47704.0
13	16	35	5	668	202.0	-191166.0	-4441.0	-47441.0
13	16	35	5	669	203.0	-191284.0	-4432.0	-47544.0
13	16	35	5	669	204.0	-191018.0	-4434.0	-47685.0
13	16	35	5	670	205.0	-190846.0	-4437.0	-47299.0
13	16	35	5	685	206.0	-190859.0	-4453.0	-47546.0
13	16	35	5	686	207.0	-190578.0	-4462.0	-47714.0
13	16	35	5	687	208.0	-190197.0	-4474.0	-47855.0
13	16	35	5	687	209.0	-190716.0	-4501.0	-47849.0
13	16	35	5	688	210.0	-191352.0	-4527.0	-47887.0
13	16	35	5	689	211.0	-191635.0	-4530.0	-47832.0
13	16	35	5	689	212.0	-192273.0	-4547.0	-47616.0
13	16	35	5	690	213.0	-193171.0	-4554.0	-47514.0
13	16	35	5	691	214.0	-194172.0	-4565.0	-47813.0
13	16	35	5	691	215.0	-195108.0	-4573.0	-48198.0
13	16	35	5	692	216.0	-196167.0	-4609.0	-47920.0
13	16	35	5	693	217.0	-197057.0	-4617.0	-48007.0
13	16	35	5	693	218.0	-197802.0	-4651.0	-48206.0
13	16	35	5	694	219.0	-198552.0	-4664.0	-48227.0
13	16	35	5	694	220.0	-199217.0	-4681.0	-48486.0
13	16	35	5	708	221.0	-199857.0	-4679.0	-48180.0
13	16	35	5	708	222.0	-200112.0	-4677.0	-47881.0
13	16	35	5	709	223.0	-200823.0	-4702.0	-47766.0
13	16	35	5	710	224.0	-201197.0	-4717.0	-47797.0
13	16	35	5	710	225.0	-201563.0	-4732.0	-47706.0
13	16	35	5	711	226.0	-201719.0	-4738.0	-47691.0
13	16	35	5	712	227.0	-201880.0	-4757.0	-48450.0
13	16	35	5	735	228.0	-202112.0	-4770.0	-48245.0
13	16	35	5	735	229.0	-201935.0	-4779.0	-47704.0
13	16	35	5	736	230.0	-201971.0	-4779.0	-47647.0
13	16	35	5	737	231.0	-201839.0	-4816.0	-47487.0
13	16	35	5	737	232.0	-201603.0	-4842.0	-47001.0
13	16	35	5	738	233.0	-201157.0	-4853.0	-47452.0
13	16	35	5	738	234.0	-200531.0	-4871.0	-47799.0
13	16	35	5	739	235.0	-199904.0	-4878.0	-47437.0
13	16	35	5	739	236.0	-199154.0	-4881.0	-47555.0
13	16	35	5	740	237.0	-198349.0	-4895.0	-47554.0
13	16	35	5	740	238.0	-197996.0	-4928.0	-47700.0
13	16	35	5	741	239.0	-196955.0	-4951.0	-48449.0
13	16	35	5	742	240.0	-195956.0	-4972.0	-48531.0
13	16	35	5	742	241.0	-194939.0	-4978.0	-48773.0
13	16	35	5	743	242.0	-194024.0	-4991.0	-48603.0
13	16	35	5	762	243.0	-192952.0	-5002.0	-48422.0
13	16	35	5	763	244.0	-191977.0	-5011.0	-48767.0
13	16	35	5	763	245.0	-191447.0	-5018.0	-48740.0
13	16	35	5	764	246.0	-191046.0	-5032.0	-48388.0
13	16	35	5	764	247.0	-190769.0	-5074.0	-48479.0
13	16	35	5	765	248.0	-190297.0	-5086.0	-48561.0
13	16	35	5	765	249.0	-189859.0	-5089.0	-48499.0
13	16	35	5	766	250.0	-189752.0	-5094.0	-48409.0
13	16	35	5	766	251.0	-189363.0	-5114.0	-48629.0
13	16	35	5	767	252.0	-189507.0	-5121.0	-48003.0
13	16	35	5	768	253.0	-189747.0	-5148.0	-47769.0
13	16	35	5	768	254.0	-190401.0	-5159.0	-48742.0
13	16	35	5	769	255.0	-191331.0	-5167.0	-48750.0
13	16	35	5	769	0.0	-192477.0	-5162.0	-48606.0
13	16	35	5	770	1.0	-193606.0	-5181.0	-48707.0
13	16	35	5	785	2.0	-194802.0	-5187.0	-48670.0
13	16	35	5	786	3.0	-196363.0	-5197.0	-48611.0
13	16	35	5	786	4.0	-198142.0	-5227.0	-48321.0
13	16	35	5	787	5.0	-199632.0	-5236.0	-48295.0
13	16	35	5	788	6.0	-201744.0	-5241.0	-47994.0
13	16	35	5	788	7.0	-203549.0	-5267.0	-48176.0
13	16	35	5	789	8.0	-204564.0	-5294.0	-48480.0
13	16	35	5	789	9.0	-205989.0	-5311.0	-48386.0
13	16	35	5	808	10.0	-206698.0	-5317.0	-48769.0
13	16	35	5	809	11.0	-208764.0	-5327.0	-48985.0
13	16	35	5	809	12.0	-209728.0	-5314.0	-48650.0
13	16	35	5	810	13.0	-210525.0	-5307.0	-48579.0
13	16	35	5	811	14.0	-211390.0	-5336.0	-48297.0
13	16	35	5	811	15.0	-212020.0	-5367.0	-48300.0
13	16	35	5	812	16.0	-212177.0	-5369.0	-48352.0
13	16	35	5	812	17.0	-212290.0	-5369.0	-47761.0
13	16	35	5	813	18.0	-213099.0	-5382.0	-47098.0
13	16	35	5	814	19.0	-213836.0	-5377.0	-46561.0
13	16	35	5	814	20.0	-214152.0	-5391.0	-46392.0
13	16	35	5	815	21.0	-214496.0	-5397.0	-46182.0
13	16	35	5	815	22.0	-214541.0	-5407.0	-46415.0
13	16	35	5	816	23.0	-214720.0	-5418.0	-47017.0
13	16	35	5	816	24.0	-214618.0	-5411.0	-47023.0
13	16	35	5	831	25.0	-214296.0	-5430.0	-47453.0
13	16	35	5	832	26.0	-214176.0	-5454.0	-47876.0
13	16	35	5	832	27.0	-213819.0	-5463.0	-48134.0
13	16	35	5	833	28.0	-213786.0	-5461.0	-49179.0
13	16	35	5	833	29.0	-214294.0	-5471.0	-51707.0
13	16	35	5	834	30.0	-215510.0	-5470.0	-53971.0
13	16	35	5	834	31.0	-217599.0	-5490.0	-56191.0
13	16	35	5	854	32.0	-221097.0	-5500.0	-57706.0
13	16	35	5	855	33.0	-226543.0	-5497.0	-56805.0
13	16	35	5	856	34.0	-233874.0	-5507.0	-56515.0
13	16	35	5	856	35.0	-242927.0	-5514.0	-57842.0
13	16	35	5	857	36.0	-253455.0	-5522.0	-60611.0
13	16	35	5	857	37.0	-264716.0	-5523.0	-64191.0
13	16	35	5	858	38.0	-275451.0	-5536.0	-68730.0
13	16	35	5	858	39.0	-284144.0	-5547.0	-70553.0
13	16	35	5	859	40.0	-290254.0	-5550.0	-71097.0
13	16	35	5	860	41.0	-290697.0	-5556.0	-70743.0
13	16	35	5	860	42.0	-285358.0	-5579.0	-67149.0
13	16	35	5	861	43.0	-274290.0	-5587.0	-61156.0
13	16	35	5	861	44.0	-258307.0	-5590.0	-53671.0
13	16	35	5	862	45.0	-239406.0	-5590.0	-48932.0
13	16	35	5	862	46.0	-219553.0	-5592.0	-46509.0
13	16	35	5	877	47.0	-201131.0	-5587.0	-45001.0
13	16	35	5	878	48.0	-185499.0	-5591.0	-44153.0
13	16	35	5	879	49.0	-174124.0	-5606.0	-44146.0
13	16	35	5	879	50.0	-167029.0	-5613.0	-44481.0
13	16	35	5	880	51.0	-163364.0	-5638.0	-44579.0
13	16	35	5	880	52.0	-161497.0	-5639.0	-45093.0
13	16	35	5	881	53.0	-157786.0	-5637.0	-45082.0
13	16	35	5	881	54.0	-150781.0	-5650.0	-44771.0
13	16	35	5	901	55.0	-149412.0	-5650.0	-45237.0
13	16	35	5	901	56.0	-154062.0	-5658.0	-45893.0
13	16	35	5	902	57.0	-161204.0	-5648.0	-46163.0
13	16	35	5	903	58.0	-171952.0	-5661.0	-46468.0
13	16	35	5	903	59.0	-185831.0	-5656.0	-46946.0
13	16	35	5	904	60.0	-206386.0	-5667.0	-47112.0
13	16	35	5	904	61.0	-230871.0	-5653.0	-47156.0
13	16	35	5	905	62.0	-256437.0	-5649.0	-47536.0
13	16	35	5	905	63.0	-277687.0	-5661.0	-47653.0
13	16	35	5	906	64.0	-292482.0	-5671.0	-47797.0
13	16	35	5	907	65.0	-303607.0	-5676.0	-48372.0
13	16	35	5	907	66.0	-310709.0	-5681.0	-48608.0
13	16	35	5	908	67.0	-315423.0	-5674.0	-49011.0
13	16	35	5	908	68.0	-322094.0	-5677.0	-49751.0
13	16	35	5	909	69.0	-329687.0	-5702.0	-49916.0
13	16	35	5	925	70.0	-333082.0	-5707.0	-49928.0
13	16	35	5	926	71.0	-330248.0	-5705.0	-50443.0
13	16	35	5	926	72.0	-322325.0	-5717.0	-50264.0
13	16	35	5	927	73.0	-311313.0	-5714.0	-50438.0
13	16	35	5	928	74.0	-298727.0	-5733.0	-50657.0
13	16	35	5	928	75.0	-287119.0	-5747.0	-50671.0
13	16	35	5	929	76.0	-276082.0	-5735.0	-50676.0
13	16	35	5	948	77.0	-263886.0	-5739.0	-50982.0
13	16	35	5	949	78.0	-250818.0	-5731.0	-51280.0
13	16	35	5	949	79.0	-238164.0	-5724.0	-51898.0
13	16	35	5	950	80.0	-227408.0	-5755.0	-52521.0
13	16	35	5	950	81.0	-216759.0	-5759.0	-52520.0
13	16	35	5	951	82.0	-204714.0	-5764.0	-52687.0
13	16	35	5	952	83.0	-190981.0	-5747.0	-53028.0
13	16	35	5	952	84.0	-175053.0	-5743.0	-53102.0
13	16	35	5	953	85.0	-158819.0	-5766.0	-53462.0
13	16	35	5	953	86.0	-143285.0	-5784.0	-53492.0
13	16	35	5	954	87.0	-127136.0	-5780.0	-53404.0
13	16	35	5	955	88.0	-111265.0	-5805.0	-53888.0
13	16	35	5	955	89.0	-95891.0	-5810.0	-54829.0
13	16	35	5	956	90.0	-81446.0	-5804.0	-54972.0
13	16	35	5	956	91.0	-68233.0	-5815.0	-55356.0
13	16	35	5	957	92.0	-56100.0	-5827.0	-56271.0
13	16	35	5	957	93.0	-47626.0	-5822.0	-56426.0
13	16	35	5	958	94.0	-44022.0	-5821.0	-56737.0
13	16	35	5	959	95.0	-43186.0	-5813.0	-57305.0
13	16	35	5	959	96.0	-44802.0	-5821.0	-57291.0
13	16	35	5	960	97.0	-49731.0	-5816.0	-57411.0
13	16	35	5	975	98.0	-58112.0	-5814.0	-58062.0
13	16	35	5	975	99.0	-67956.0	-5840.0	-58455.0
13	16	35	5	976	100.0	-78881.0	-5835.0	-59154.0
13	16	35	5	977	101.0	-90806.0	-5829.0	-59044.0
13	16	35	5	977	102.0	-103657.0	-5834.0	-58849.0
13	16	35	5	978	103.0	-116952.0	-5857.0	-58821.0
13	16	35	5	979	104.0	-129816.0	-5842.0	-58790.0
13	16	35	5	979	105.0	-141469.0	-5856.0	-59053.0
13	16	35	5	980	106.0	-151501.0	-5871.0	-59047.0
13	16	35	5	980	107.0	-159601.0	-5863.0	-59414.0
13	16	35	6	5	108.0	-165969.0	-5863.0	-59436.0
13	16	35	6	5	109.0	-170495.0	-5861.0	-59396.0
13	16	35	6	6	110.0	-173676.0	-5872.0	-59718.0
13	16	35	6	7	111.0	-175154.0	-5879.0	-59434.0
13	16	35	6	7	112.0	-174947.0	-5879.0	-59294.0
13	16	35	6	21	113.0	-173784.0	-5906.0	-59492.0
13	16	35	6	22	114.0	-171714.0	-5916.0	-58866.0
13	16	35	6	23	115.0	-169572.0	-5904.0	-58692.0
13	16	35	6	23	116.0	-167676.0	-5914.0	-58927.0
13	16	35	6	24	117.0	-166333.0	-5924.0	-58854.0
13	16	35	6	25	118.0	-165645.0	-5925.0	-58566.0
13	16	35	6	25	119.0	-165443.0	-5924.0	-58784.0
13	16	35	6	26	120.0	-165787.0	-5948.0	-58827.0
13	16	35	6	26	121.0	-166659.0	-5958.0	-58896.0
13	16	35	6	27	122.0	-167821.0	-5956.0	-59064.0
13	16	35	6	28	123.0	-169071.0	-5953.0	-58774.0
13	16	35	6	28	124.0	-169830.0	-5973.0	-58321.0
13	16	35	6	29	125.0	-170365.0	-5999.0	-58357.0
13	16	35	6	30	126.0	-170734.0	-5995.0	-58124.0
13	16	35	6	30	127.0	-170771.0	-5997.0	-58016.0
13	16	35	6	31	128.0	-170948.0	-5987.0	-58439.0
13	16	35	6	31	129.0	-171106.0	-5978.0	-58319.0
13	16	35	6	32	130.0	-170964.0	-5990.0	-58427.0
13	16	35	6	33	131.0	-170886.0	-5996.0	-58696.0
13	16	35	6	44	132.0	-171163.0	-5994.0	-58191.0
13	16	35	6	44	133.0	-172221.0	-5989.0	-57784.0
13	16	35	6	45	134.0	-173706.0	-6003.0	-57855.0
13	16	35	6	46	135.0	-174834.0	-6009.0	-57562.0
13	16	35	6	67	136.0	-175321.0	-6022.0	-57006.0
13	16	35	6	67	137.0	-175701.0	-6031.0	-56981.0
13	16	35	6	68	138.0	-176207.0	-6039.0	-57006.0
13	16	35	6	69	139.0	-176821.0	-6047.0	-56587.0
13	16	35	6	69	140.0	-177457.0	-6051.0	-56891.0
13	16	35	6	70	141.0	-178301.0	-6052.0	-56574.0
13	16	35	6	70	142.0	-179153.0	-6049.0	-56398.0
13	16	35	6	71	143.0	-180244.0	-6067.0	-56186.0
13	16	35	6	72	144.0	-181548.0	-6072.0	-55325.0
13	16	35	6	72	145.0	-183028.0	-6056.0	-54804.0
13	16	35	6	73	146.0	-184459.0	-6046.0	-54579.0
13	16	35	6	73	147.0	-185711.0	-6044.0	-54432.0
13	16	35	6	74	148.0	-186979.0	-6060.0	-54152.0
13	16	35	6	74	149.0	-188485.0	-6069.0	-54237.0
13	16	35	6	75	150.0	-190357.0	-6071.0	-54008.0
13	16	35	6	75	151.0	-192053.0	-6064.0	-53277.0
13	16	35	6	90	152.0	-193571.0	-6061.0	-53469.0
13	16	35	6	90	153.0	-195222.0	-6047.0	-53179.0
13	16	35	6	91	154.0	-196246.0	-6041.0	-52442.0
13	16	35	6	92	155.0	-197084.0	-6022.0	-52281.0
13	16	35	6	92	156.0	-198106.0	-6015.0	-52094.0
13	16	35	6	93	157.0	-199067.0	-6001.0	-51861.0
13	16	35	6	94	158.0	-199763.0	-6011.0	-51559.0
13	16	35	6	94	159.0	-200523.0	-5990.0	-51398.0
13	16	35	6	95	160.0	-201266.0	-5961.0	-51327.0
13	16	35	6	95	161.0	-201536.0	-5947.0	-50681.0
13	16	35	6	96	162.0	-201579.0	-5931.0	-50603.0
13	16	35	6	97	163.0	-202472.0	-5914.0	-50525.0
13	16	35	6	97	164.0	-203379.0	-5894.0	-50031.0
13	16	35	6	113	165.0	-204494.0	-5876.0	-49521.0
13	16	35	6	114	166.0	-206001.0	-5849.0	-49231.0
13	16	35	6	114	167.0	-207287.0	-5806.0	-49266.0
13	16	35	6	115	168.0	-208305.0	-5775.0	-49062.0
13	16	35	6	115	169.0	-210070.0	-5747.0	-48964.0
13	16	35	6	116	170.0	-211749.0	-5716.0	-49372.0
13	16	35	6	117	171.0	-213618.0	-5673.0	-48927.0
13	16	35	6	118	172.0	-216014.0	-5642.0	-48282.0
13	16	35	6	120	173.0	-217967.0	-5596.0	-48281.0
13	16	35	6	136	174.0	-219751.0	-5526.0	-48165.0
13	16	35	6	137	175.0	-221657.0	-5494.0	-47602.0
13	16	35	6	138	176.0	-222984.0	-5454.0	-47871.0
13	16	35	6	138	177.0	-223807.0	-5394.0	-48222.0
13	16	35	6	139	178.0	-224592.0	-5346.0	-47891.0
13	16	35	6	140	179.0	-225006.0	-5297.0	-47902.0
13	16	35	6	140	180.0	-224987.0	-5248.0	-48387.0
13	16	35	6	141	181.0	-224632.0	-5191.0	-48352.0
13	16	35	6	142	182.0	-223249.0	-5150.0	-48198.0
13	16	35	6	142	183.0	-221417.0	-5082.0	-48220.0
13	16	35	6	143	184.0	-220086.0	-5034.0	-48446.0
13	16	35	6	143	185.0	-218539.0	-4967.0	-48506.0
13	16	35	6	144	186.0	-216687.0	-4923.0	-48576.0
13	16	35	6	145	187.0	-214396.0	-4883.0	-48498.0
13	16	35	6	145	188.0	-211441.0	-4832.0	-48872.0
13	16	35	6	159	189.0	-208322.0	-4772.0	-49079.0
13	16	35	6	160	190.0	-204926.0	-4722.0	-49142.0
13	16	35	6	161	191.0	-200962.0	-4656.0	-49004.0
13	16	35	6	161	192.0	-196822.0	-4619.0	-49225.0
13	16	35	6	162	193.0	-193405.0	-4584.0	-49087.0
13	16	35	6	163	194.0	-190718.0	-4525.0	-49390.0
13	16	35	6	163	195.0	-188852.0	-4462.0	-49219.0
13	16	35	6	164	196.0	-187582.0	-4412.0	-49243.0
13	16	35	6	183	197.0	-186469.0	-4377.0	-49547.0
13	16	35	6	184	198.0	-186063.0	-4339.0	-49879.0
13	16	35	6	185	199.0	-186337.0	-4279.0	-49737.0
13	16	35	6	185	200.0	-187109.0	-4247.0	-50089.0
