14	18	10	51	57	73.0	-177548.0	-22736.0	340169.0
14	18	10	51	60	74.0	-184687.0	-22707.0	341273.0
14	18	10	51	63	75.0	-192647.0	-22692.0	342428.0
14	18	10	51	65	76.0	-201209.0	-22672.0	345031.0
14	18	10	51	68	77.0	-210059.0	-22664.0	346551.0
14	18	10	51	70	78.0	-219299.0	-22650.0	348253.0
14	18	10	51	72	79.0	-228002.0	-22618.0	349966.0
14	18	10	51	74	80.0	-236078.0	-22606.0	350870.0
14	18	10	51	75	81.0	-243310.0	-22611.0	351433.0
14	18	10	51	76	82.0	-249750.0	-22596.0	351751.0
14	18	10	51	77	83.0	-255253.0	-22589.0	351829.0
14	18	10	51	78	84.0	-259754.0	-22574.0	352421.0
14	18	10	51	79	85.0	-262509.0	-22542.0	352801.0
14	18	10	51	80	86.0	-263621.0	-22512.0	352717.0
14	18	10	51	81	87.0	-262506.0	-22487.0	352804.0
14	18	10	51	81	88.0	-259208.0	-22504.0	353478.0
14	18	10	51	91	89.0	-255269.0	-22484.0	353934.0
14	18	10	51	92	90.0	-250540.0	-22462.0	353934.0
14	18	10	51	92	91.0	-244127.0	-22452.0	354239.0
14	18	10	51	93	92.0	-237074.0	-22432.0	355268.0
14	18	10	51	94	93.0	-230224.0	-22409.0	357230.0
14	18	10	51	94	94.0	-224245.0	-22412.0	362706.0
14	18	10	51	95	95.0	-218996.0	-22406.0	370628.0
14	18	10	51	144	96.0	-213609.0	-22418.0	372394.0
14	18	10	51	190	97.0	-208069.0	-22404.0	373694.0
14	18	10	51	190	98.0	-203202.0	-22374.0	374711.0
14	18	10	51	191	99.0	-198776.0	-22356.0	376686.0
14	18	10	51	191	100.0	-194650.0	-22346.0	379251.0
14	18	10	51	192	101.0	-191079.0	-22343.0	379698.0
14	18	10	51	192	102.0	-187892.0	-22331.0	378954.0
14	18	10	51	193	103.0	-184946.0	-22335.0	377714.0
14	18	10	51	235	104.0	-182134.0	-22333.0	378824.0
14	18	10	51	235	105.0	-179171.0	-22313.0	379728.0
14	18	10	51	236	106.0	-176181.0	-22301.0	379971.0
14	18	10	51	237	107.0	-173299.0	-22287.0	381198.0
14	18	10	51	238	108.0	-170931.0	-22264.0	383334.0
14	18	10	51	239	109.0	-169413.0	-22256.0	384690.0
14	18	10	51	239	110.0	-168934.0	-22247.0	384871.0
14	18	10	51	240	122.0	-332394.0	-22085.0	376364.0
14	18	10	51	240	144.0	-86974.0	-21712.0	389547.0
14	18	10	51	241	145.0	-89744.0	-21706.0	390262.0
14	18	10	51	242	146.0	-97224.0	-21700.0	391485.0
14	18	10	51	242	147.0	-110881.0	-21681.0	391624.0
14	18	10	51	243	148.0	-132902.0	-21680.0	392361.0
14	18	10	51	243	149.0	-160160.0	-21665.0	392834.0
14	18	10	51	244	150.0	-188432.0	-21639.0	392416.0
14	18	10	51	244	151.0	-214589.0	-21623.0	392119.0
14	18	10	51	245	167.0	-301952.0	-21412.0	382239.0
14	18	10	51	245	168.0	-280002.0	-21391.0	384999.0
14	18	10	51	246	169.0	-256207.0	-21371.0	387742.0
14	18	10	51	246	170.0	-232147.0	-21346.0	388817.0
14	18	10	51	247	171.0	-208547.0	-21331.0	392924.0
14	18	10	51	247	172.0	-185607.0	-21326.0	396947.0
14	18	10	51	280	173.0	-163570.0	-21304.0	398415.0
14	18	10	51	280	174.0	-142087.0	-21285.0	399748.0
14	18	10	51	281	175.0	-121690.0	-21282.0	401203.0
14	18	10	51	281	176.0	-104057.0	-21274.0	402739.0
14	18	10	51	282	177.0	-89472.0	-21262.0	405578.0
14	18	10	51	283	178.0	-77895.0	-21255.0	408574.0
14	18	10	51	283	179.0	-69440.0	-21215.0	411038.0
14	18	10	51	324	180.0	-64335.0	-21202.0	413524.0
14	18	10	51	325	181.0	-62064.0	-21189.0	414802.0
14	18	10	51	325	182.0	-62272.0	-21169.0	414911.0
14	18	10	51	326	183.0	-64094.0	-21154.0	415833.0
14	18	10	51	327	184.0	-67474.0	-21136.0	416484.0
14	18	10	51	327	185.0	-72621.0	-21097.0	415673.0
14	18	10	51	328	186.0	-78289.0	-21092.0	415209.0
14	18	10	51	328	187.0	-83554.0	-21090.0	415283.0
14	18	10	51	329	189.0	-93581.0	-21057.0	413751.0
14	18	10	51	329	190.0	-98156.0	-21046.0	414340.0
14	18	10	51	330	191.0	-102834.0	-21025.0	414293.0
14	18	10	51	330	192.0	-106942.0	-21005.0	412812.0
14	18	10	51	331	193.0	-111099.0	-20991.0	411986.0
14	18	10	51	332	194.0	-115521.0	-20975.0	412152.0
14	18	10	51	332	195.0	-120197.0	-20948.0	412170.0
14	18	10	51	333	196.0	-125315.0	-20931.0	412449.0
14	18	10	51	333	212.0	-218027.0	-20636.0	414755.0
14	18	10	51	334	213.0	-213413.0	-20616.0	415026.0
14	18	10	51	334	214.0	-207402.0	-20595.0	415878.0
14	18	10	51	335	215.0	-200452.0	-20577.0	417074.0
14	18	10	51	335	216.0	-192912.0	-20557.0	417739.0
14	18	10	51	336	217.0	-184894.0	-20526.0	417859.0
14	18	10	51	369	218.0	-176972.0	-20499.0	417288.0
14	18	10	51	369	219.0	-169793.0	-20493.0	415973.0
14	18	10	51	370	220.0	-164072.0	-20485.0	414301.0
14	18	10	51	370	221.0	-160525.0	-20449.0	412925.0
14	18	10	51	371	222.0	-158968.0	-20419.0	412508.0
14	18	10	51	372	223.0	-158780.0	-20414.0	412403.0
14	18	10	51	372	224.0	-159411.0	-20386.0	412459.0
14	18	10	51	373	225.0	-161330.0	-20366.0	412520.0
14	18	10	51	373	226.0	-164189.0	-20337.0	413048.0
14	18	10	51	385	227.0	-167153.0	-20326.0	414655.0
14	18	10	51	414	228.0	-170296.0	-20320.0	415889.0
14	18	10	51	415	229.0	-174097.0	-20306.0	415864.0
14	18	10	51	415	230.0	-178359.0	-20292.0	414499.0
14	18	10	51	416	231.0	-183034.0	-20268.0	412046.0
14	18	10	51	416	232.0	-187719.0	-20240.0	410939.0
14	18	10	51	417	234.0	-197481.0	-20221.0	409262.0
14	18	10	51	418	235.0	-201901.0	-20220.0	408569.0
14	18	10	51	418	236.0	-206274.0	-20186.0	408374.0
14	18	10	51	419	237.0	-210163.0	-20169.0	408928.0
14	18	10	51	419	238.0	-213171.0	-20152.0	410043.0
14	18	10	51	420	239.0	-215454.0	-20131.0	410011.0
14	18	10	51	420	240.0	-217084.0	-20122.0	409468.0
14	18	10	51	421	241.0	-218057.0	-20111.0	409096.0
14	18	10	51	422	242.0	-218715.0	-20092.0	409002.0
14	18	10	51	422	243.0	-218744.0	-20089.0	409067.0
14	18	10	51	423	0.0	-194286.0	-19889.0	402435.0
14	18	10	51	423	1.0	-189383.0	-19877.0	402637.0
14	18	10	51	424	2.0	-183874.0	-19856.0	402410.0
14	18	10	51	425	3.0	-177732.0	-19832.0	401831.0
14	18	10	51	425	4.0	-170937.0	-19806.0	401802.0
14	18	10	51	426	5.0	-163659.0	-19803.0	401953.0
14	18	10	51	426	6.0	-156049.0	-19776.0	401677.0
14	18	10	51	459	7.0	-148632.0	-19768.0	401260.0
14	18	10	51	459	8.0	-141124.0	-19752.0	401234.0
14	18	10	51	460	9.0	-133329.0	-19739.0	400799.0
14	18	10	51	460	10.0	-125041.0	-19727.0	400364.0
14	18	10	51	461	11.0	-116460.0	-19706.0	400265.0
14	18	10	51	461	12.0	-108406.0	-19698.0	401019.0
14	18	10	51	462	13.0	-101201.0	-19684.0	401793.0
14	18	10	51	463	14.0	-96422.0	-19654.0	403108.0
14	18	10	51	463	15.0	-94731.0	-19637.0	405156.0
14	18	10	51	464	16.0	-96483.0	-19634.0	405344.0
14	18	10	51	464	17.0	-102071.0	-19619.0	401125.0
14	18	10	51	465	18.0	-111811.0	-19619.0	393666.0
14	18	10	51	465	19.0	-127159.0	-19596.0	383584.0
14	18	10	51	466	20.0	-148329.0	-19569.0	378789.0
14	18	10	51	466	21.0	-173121.0	-19544.0	378143.0
14	18	10	51	467	23.0	-216013.0	-19511.0	376108.0
14	18	10	51	467	24.0	-220024.0	-19483.0	375273.0
14	18	10	51	468	25.0	-220523.0	-19473.0	375145.0
14	18	10	51	469	26.0	-224887.0	-19460.0	374334.0
14	18	10	51	469	27.0	-235516.0	-19446.0	374211.0
14	18	10	51	470	28.0	-247426.0	-19421.0	374104.0
14	18	10	51	504	29.0	-255159.0	-19418.0	373638.0
14	18	10	51	504	30.0	-255304.0	-19401.0	373569.0
14	18	10	51	505	31.0	-248877.0	-19386.0	374025.0
14	18	10	51	505	32.0	-244617.0	-19377.0	374051.0
14	18	10	51	506	33.0	-241115.0	-19369.0	374414.0
14	18	10	51	507	34.0	-236661.0	-19364.0	374616.0
14	18	10	51	507	35.0	-229466.0	-19337.0	374889.0
14	18	10	51	508	36.0	-218689.0	-19316.0	374501.0
14	18	10	51	508	37.0	-208067.0	-19294.0	374323.0
14	18	10	51	509	38.0	-200162.0	-19272.0	374641.0
14	18	10	51	509	39.0	-195206.0	-19269.0	375126.0
14	18	10	51	510	40.0	-192521.0	-19259.0	374653.0
14	18	10	51	511	41.0	-191691.0	-19241.0	373528.0
14	18	10	51	512	42.0	-192377.0	-19233.0	373071.0
14	18	10	51	512	43.0	-193861.0	-19206.0	372958.0
14	18	10	51	513	45.0	-197576.0	-19179.0	373302.0
14	18	10	51	513	46.0	-198150.0	-19151.0	374159.0
14	18	10	51	514	47.0	-197761.0	-19117.0	374151.0
14	18	10	51	514	48.0	-196137.0	-19098.0	374483.0
14	18	10	51	515	49.0	-193888.0	-19104.0	375208.0
14	18	10	51	516	50.0	-191367.0	-19094.0	375340.0
14	18	10	51	549	51.0	-188270.0	-19066.0	378454.0
14	18	10	51	550	52.0	-185428.0	-19049.0	383979.0
14	18	10	51	551	53.0	-183102.0	-19026.0	385926.0
14	18	10	51	551	54.0	-181101.0	-19010.0	385483.0
14	18	10	51	552	55.0	-179019.0	-18992.0	385558.0
14	18	10	51	552	56.0	-176547.0	-18981.0	386570.0
14	18	10	51	553	57.0	-173456.0	-18971.0	385901.0
14	18	10	51	554	58.0	-170554.0	-18959.0	384130.0
14	18	10	51	554	59.0	-168161.0	-18945.0	383320.0
14	18	10	51	555	60.0	-166091.0	-18933.0	380874.0
14	18	10	51	555	61.0	-165164.0	-18911.0	379265.0
14	18	10	51	556	62.0	-166199.0	-18871.0	381299.0
14	18	10	51	556	63.0	-169421.0	-18841.0	382638.0
14	18	10	51	557	64.0	-174278.0	-18834.0	382804.0
14	18	10	51	558	65.0	-180529.0	-18794.0	382729.0
14	18	10	51	558	67.0	-193902.0	-18780.0	378451.0
14	18	10	51	559	68.0	-199991.0	-18754.0	377883.0
14	18	10	51	559	69.0	-205945.0	-18741.0	379445.0
14	18	10	51	560	70.0	-211731.0	-18722.0	380906.0
14	18	10	51	595	71.0	-216924.0	-18687.0	381388.0
14	18	10	51	595	72.0	-221744.0	-18669.0	381078.0
14	18	10	51	596	73.0	-226305.0	-18660.0	380215.0
14	18	10	51	597	74.0	-230706.0	-18617.0	379887.0
14	18	10	51	597	75.0	-235358.0	-18601.0	381811.0
14	18	10	51	598	76.0	-240584.0	-18599.0	382339.0
14	18	10	51	599	77.0	-246490.0	-18579.0	381946.0
14	18	10	51	599	78.0	-252942.0	-18564.0	382139.0
14	18	10	51	600	79.0	-259656.0	-18547.0	382125.0
14	18	10	51	600	80.0	-266142.0	-18541.0	381566.0
14	18	10	51	601	81.0	-271657.0	-18512.0	381726.0
14	18	10	51	601	82.0	-275944.0	-18478.0	381946.0
14	18	10	51	602	83.0	-279649.0	-18464.0	381508.0
14	18	10	51	603	84.0	-282538.0	-18461.0	381316.0
14	18	10	51	603	85.0	-284119.0	-18444.0	381379.0
14	18	10	51	604	86.0	-284305.0	-18417.0	381261.0
14	18	10	51	604	90.0	-276549.0	-18369.0	383184.0
14	18	10	51	605	91.0	-274282.0	-18356.0	383388.0
14	18	10	51	605	92.0	-271391.0	-18322.0	383241.0
14	18	10	51	606	93.0	-267736.0	-18302.0	383088.0
14	18	10	51	607	94.0	-262987.0	-18277.0	382044.0
14	18	10	51	607	95.0	-257056.0	-18266.0	381271.0
14	18	10	51	608	96.0	-249867.0	-18257.0	381544.0
14	18	10	51	639	97.0	-241331.0	-18224.0	382115.0
14	18	10	51	640	98.0	-232313.0	-18194.0	381745.0
14	18	10	51	641	99.0	-223940.0	-18194.0	381583.0
14	18	10	51	641	100.0	-216337.0	-18185.0	380867.0
14	18	10	51	642	101.0	-208989.0	-18157.0	380838.0
14	18	10	51	642	102.0	-202367.0	-18135.0	381128.0
14	18	10	51	643	103.0	-196142.0	-18107.0	381089.0
14	18	10	51	643	104.0	-190269.0	-18105.0	380541.0
14	18	10	51	644	105.0	-185189.0	-18087.0	380374.0
14	18	10	51	644	106.0	-180905.0	-18069.0	380653.0
14	18	10	51	645	107.0	-177656.0	-18046.0	380219.0
14	18	10	51	646	108.0	-175434.0	-18007.0	379508.0
14	18	10	51	646	109.0	-174017.0	-17997.0	378918.0
14	18	10	51	647	110.0	-173266.0	-17977.0	377428.0
14	18	10	51	648	111.0	-172967.0	-17946.0	376433.0
14	18	10	51	649	112.0	-173607.0	-17928.0	376646.0
14	18	10	51	649	113.0	-175507.0	-17916.0	376504.0
14	18	10	51	650	114.0	-178591.0	-17895.0	376995.0
14	18	10	51	651	115.0	-182988.0	-17880.0	376663.0
14	18	10	51	652	116.0	-188991.0	-17867.0	375739.0
14	18	10	51	652	117.0	-196016.0	-17852.0	374753.0
14	18	10	51	653	118.0	-202919.0	-17831.0	374586.0
14	18	10	51	683	119.0	-209967.0	-17821.0	374532.0
14	18	10	51	700	120.0	-217284.0	-17802.0	374436.0
14	18	10	51	700	121.0	-224492.0	-17781.0	374274.0
14	18	10	51	701	122.0	-231072.0	-17768.0	374443.0
14	18	10	51	701	123.0	-237238.0	-17754.0	374710.0
14	18	10	51	702	124.0	-243635.0	-17748.0	374725.0
14	18	10	51	703	125.0	-249847.0	-17730.0	374405.0
14	18	10	51	729	126.0	-256419.0	-17705.0	374718.0
14	18	10	51	730	127.0	-263096.0	-17667.0	375029.0
14	18	10	51	731	128.0	-268973.0	-17682.0	375181.0
14	18	10	51	731	129.0	-274408.0	-17669.0	374937.0
14	18	10	51	732	130.0	-279607.0	-17651.0	374546.0
14	18	10	51	733	131.0	-283794.0	-17647.0	374306.0
14	18	10	51	733	132.0	-286312.0	-17625.0	374388.0
14	18	10	51	734	133.0	-286801.0	-17619.0	374316.0
14	18	10	51	734	135.0	-285047.0	-17580.0	373689.0
14	18	10	51	735	136.0	-283062.0	-17562.0	373729.0
14	18	10	51	774	137.0	-280637.0	-17542.0	373523.0
14	18	10	51	775	138.0	-277969.0	-17531.0	373821.0
14	18	10	51	775	139.0	-275351.0	-17533.0	373748.0
14	18	10	51	776	140.0	-272992.0	-17516.0	373181.0
14	18	10	51	776	141.0	-270246.0	-17511.0	372793.0
14	18	10	51	777	142.0	-267169.0	-17509.0	372049.0
14	18	10	51	778	158.0	-204350.0	-17337.0	366224.0
14	18	10	51	778	159.0	-202466.0	-17339.0	363993.0
14	18	10	51	779	160.0	-200765.0	-17330.0	362964.0
14	18	10	51	780	161.0	-199268.0	-17334.0	362502.0
14	18	10	51	781	162.0	-198126.0	-17317.0	362391.0
14	18	10	51	782	163.0	-197529.0	-17307.0	361849.0
14	18	10	51	783	164.0	-197490.0	-17319.0	362104.0
14	18	10	51	783	165.0	-198111.0	-17318.0	362187.0
14	18	10	51	784	166.0	-199342.0	-17325.0	361753.0
14	18	10	51	784	167.0	-200342.0	-17321.0	361843.0
14	18	10	51	785	180.0	-208880.0	-17304.0	360603.0
14	18	10	51	819	181.0	-206116.0	-17318.0	361337.0
14	18	10	51	819	182.0	-203206.0	-17311.0	361453.0
14	18	10	51	820	183.0	-201094.0	-17320.0	362036.0
14	18	10	51	821	184.0	-199923.0	-17326.0	360921.0
14	18	10	51	821	185.0	-199131.0	-17325.0	359245.0
14	18	10	51	822	186.0	-198142.0	-17326.0	359396.0
14	18	10	51	822	187.0	-196518.0	-17309.0	359333.0
14	18	10	51	823	188.0	-193751.0	-17306.0	359869.0
14	18	10	51	824	189.0	-190348.0	-17324.0	361280.0
14	18	10	51	824	190.0	-186742.0	-17312.0	362699.0
14	18	10	51	825	191.0	-182919.0	-17317.0	362364.0
14	18	10	51	826	192.0	-179371.0	-17307.0	360925.0
14	18	10	51	826	193.0	-176809.0	-17301.0	358436.0
14	18	10	51	827	194.0	-175449.0	-17310.0	356979.0
14	18	10	51	827	195.0	-176174.0	-17320.0	357751.0
14	18	10	51	828	196.0	-179447.0	-17322.0	358184.0
14	18	10	51	829	202.0	-251854.0	-17329.0	353213.0
14	18	10	51	829	203.0	-271405.0	-17318.0	346952.0
14	18	10	51	830	204.0	-288542.0	-17323.0	345537.0
14	18	10	51	830	205.0	-297769.0	-17325.0	348394.0
14	18	10	51	831	206.0	-296261.0	-17314.0	348944.0
14	18	10	51	832	207.0	-284832.0	-17315.0	348914.0
14	18	10	51	832	208.0	-267042.0	-17299.0	349381.0
14	18	10	51	864	209.0	-246621.0	-17300.0	348998.0
14	18	10	51	865	210.0	-225636.0	-17313.0	348958.0
14	18	10	51	866	211.0	-205076.0	-17321.0	348804.0
14	18	10	51	866	212.0	-188045.0	-17319.0	348711.0
14	18	10	51	867	213.0	-175706.0	-17322.0	348891.0
14	18	10	51	867	214.0	-165251.0	-17311.0	348484.0
14	18	10	51	868	215.0	-154284.0	-17313.0	348431.0
14	18	10	51	869	216.0	-146934.0	-17315.0	348456.0
14	18	10	51	869	217.0	-145926.0	-17312.0	349018.0
14	18	10	51	870	218.0	-149547.0	-17314.0	349331.0
14	18	10	51	870	219.0	-154445.0	-17319.0	349199.0
14	18	10	51	871	220.0	-157735.0	-17315.0	349013.0
14	18	10	51	871	221.0	-158272.0	-17316.0	348775.0
14	18	10	51	872	222.0	-155163.0	-17304.0	348766.0
14	18	10	51	873	223.0	-148351.0	-17307.0	347898.0
14	18	10	51	874	224.0	-139575.0	-17298.0	346336.0
14	18	10	51	875	225.0	-131375.0	-17293.0	344683.0
14	18	10	51	876	226.0	-125845.0	-17281.0	344192.0
14	18	10	51	876	227.0	-125434.0	-17282.0	343662.0
14	18	10	51	877	228.0	-126532.0	-17284.0	343376.0
14	18	10	51	877	229.0	-129156.0	-17276.0	343444.0
14	18	10	51	878	230.0	-136307.0	-17287.0	343646.0
14	18	10	51	878	231.0	-148344.0	-17274.0	343624.0
14	18	10	51	909	232.0	-161813.0	-17262.0	343663.0
14	18	10	51	910	233.0	-174277.0	-17271.0	344138.0
14	18	10	51	910	234.0	-183786.0	-17262.0	343698.0
14	18	10	51	911	235.0	-189816.0	-17252.0	342407.0
14	18	10	51	912	236.0	-193854.0	-17253.0	341643.0
14	18	10	51	912	237.0	-197337.0	-17241.0	342287.0
14	18	10	51	913	238.0	-201129.0	-17212.0	343152.0
14	18	10	51	955	239.0	-207324.0	-17226.0	343449.0
14	18	10	51	955	240.0	-215676.0	-17240.0	341130.0
14	18	10	51	956	241.0	-223761.0	-17232.0	337581.0
14	18	10	51	957	242.0	-231240.0	-17226.0	334691.0
14	18	10	51	957	243.0	-238192.0	-17225.0	332730.0
14	18	10	51	958	244.0	-244325.0	-17211.0	335985.0
14	18	10	51	958	245.0	-250134.0	-17219.0	341138.0
14	18	10	51	960	246.0	-255926.0	-17212.0	357700.0
14	18	10	51	961	247.0	-258886.0	-17196.0	364635.0
14	18	10	51	961	248.0	-257107.0	-17194.0	362178.0
14	18	10	51	962	249.0	-249977.0	-17191.0	360751.0
14	18	10	51	962	250.0	-238471.0	-17184.0	360463.0
14	18	10	51	963	251.0	-223371.0	-17166.0	359093.0
14	18	10	51	964	252.0	-206666.0	-17147.0	358765.0
14	18	10	51	964	253.0	-189682.0	-17147.0	360569.0
14	18	10	51	965	254.0	-173047.0	-17136.0	359923.0
14	18	10	51	965	14.0	-100527.0	-17008.0	363885.0
14	18	10	51	966	15.0	-104238.0	-16997.0	363515.0
14	18	10	51	966	16.0	-107744.0	-17012.0	362943.0
14	18	10	51	967	17.0	-111280.0	-17016.0	362714.0
14	18	10	51	968	18.0	-114876.0	-16986.0	362302.0
14	18	10	51	968	19.0	-118334.0	-16979.0	361579.0
14	18	10	52	0	20.0	-121691.0	-16977.0	360870.0
14	18	10	52	0	21.0	-125487.0	-16964.0	360139.0
14	18	10	52	1	22.0	-129757.0	-16972.0	359597.0
14	18	10	52	2	23.0	-135306.0	-16951.0	359340.0
14	18	10	52	2	24.0	-142142.0	-16945.0	358915.0
14	18	10	52	3	25.0	-149569.0	-16964.0	358723.0
14	18	10	52	3	26.0	-157264.0	-16939.0	358099.0
14	18	10	52	44	27.0	-165392.0	-16914.0	351283.0
14	18	10	52	45	28.0	-173184.0	-16911.0	343770.0
14	18	10	52	45	29.0	-180582.0	-16907.0	339109.0
14	18	10	52	46	30.0	-187357.0	-16900.0	335996.0
14	18	10	52	47	31.0	-193344.0	-16882.0	335233.0
14	18	10	52	47	32.0	-198337.0	-16895.0	341264.0
14	18	10	52	48	33.0	-202481.0	-16885.0	347616.0
14	18	10	52	48	34.0	-205395.0	-16859.0	349688.0
14	18	10	52	89	36.0	-207851.0	-16845.0	350663.0
14	18	10	52	91	37.0	-207166.0	-16828.0	350298.0
14	18	10	52	91	38.0	-205564.0	-16815.0	351196.0
14	18	10	52	92	39.0	-203659.0	-16796.0	351160.0
14	18	10	52	93	40.0	-201909.0	-16784.0	351506.0
14	18	10	52	93	41.0	-200553.0	-16794.0	352048.0
14	18	10	52	94	42.0	-199565.0	-16794.0	352337.0
14	18	10	52	94	43.0	-198975.0	-16783.0	352156.0
14	18	10	52	135	59.0	-191756.0	-16664.0	357923.0
14	18	10	52	136	60.0	-193322.0	-16644.0	358281.0
14	18	10	52	136	61.0	-195709.0	-16639.0	358008.0
14	18	10	52	137	62.0	-198132.0	-16645.0	357691.0
14	18	10	52	137	63.0	-200659.0	-16644.0	357400.0
14	18	10	52	138	64.0	-203652.0	-16614.0	357056.0
14	18	10	52	139	65.0	-206726.0	-16609.0	356686.0
14	18	10	52	140	81.0	-224554.0	-16489.0	353848.0
14	18	10	52	140	82.0	-227987.0	-16486.0	355480.0
14	18	10	52	141	83.0	-230041.0	-16465.0	355864.0
14	18	10	52	141	84.0	-229882.0	-16457.0	356125.0
14	18	10	52	142	85.0	-228306.0	-16457.0	356213.0
14	18	10	52	143	86.0	-225360.0	-16444.0	356910.0
14	18	10	52	143	87.0	-220786.0	-16424.0	357618.0
14	18	10	52	144	88.0	-215787.0	-16410.0	359427.0
14	18	10	52	145	103.0	-243021.0	-16245.0	366471.0
14	18	10	52	145	104.0	-254212.0	-16237.0	366598.0
14	18	10	52	146	105.0	-249740.0	-16226.0	368029.0
14	18	10	52	146	106.0	-242302.0	-16229.0	369357.0
14	18	10	52	147	107.0	-238716.0	-16214.0	369518.0
14	18	10	52	148	108.0	-238848.0	-16184.0	369141.0
14	18	10	52	179	109.0	-238330.0	-16157.0	368018.0
14	18	10	52	179	110.0	-233044.0	-16156.0	367027.0
14	18	10	52	180	111.0	-223444.0	-16166.0	367213.0
14	18	10	52	181	112.0	-211191.0	-16151.0	367658.0
14	18	10	52	182	113.0	-196317.0	-16131.0	367671.0
14	18	10	52	182	114.0	-180544.0	-16134.0	365664.0
14	18	10	52	183	115.0	-163882.0	-16121.0	359544.0
14	18	10	52	183	116.0	-146282.0	-16101.0	354987.0
14	18	10	52	184	117.0	-129838.0	-16083.0	353306.0
14	18	10	52	185	118.0	-116556.0	-16084.0	350552.0
14	18	10	52	185	119.0	-107212.0	-16051.0	347714.0
14	18	10	52	186	120.0	-103178.0	-16061.0	346819.0
14	18	10	52	186	121.0	-103301.0	-16036.0	346219.0
14	18	10	52	187	122.0	-106405.0	-16022.0	346789.0
14	18	10	52	188	123.0	-111647.0	-16008.0	347244.0
14	18	10	52	188	126.0	-137881.0	-15991.0	346885.0
14	18	10	52	189	127.0	-149520.0	-15998.0	347407.0
14	18	10	52	189	128.0	-160903.0	-15984.0	347720.0
14	18	10	52	190	129.0	-171714.0	-15965.0	347685.0
14	18	10	52	191	130.0	-181218.0	-15960.0	348476.0
14	18	10	52	191	131.0	-189070.0	-15960.0	348539.0
14	18	10	52	224	132.0	-195517.0	-15952.0	348319.0
14	18	10	52	225	133.0	-201042.0	-15933.0	348479.0
14	18	10	52	226	134.0	-205261.0	-15934.0	348690.0
14	18	10	52	227	135.0	-208711.0	-15942.0	348534.0
14	18	10	52	228	136.0	-212057.0	-15920.0	349013.0
14	18	10	52	228	137.0	-214969.0	-15919.0	349065.0
14	18	10	52	229	138.0	-217366.0	-15925.0	347071.0
14	18	10	52	230	139.0	-219741.0	-15935.0	345159.0
14	18	10	52	230	140.0	-221000.0	-15924.0	344524.0
14	18	10	52	231	141.0	-221156.0	-15920.0	344521.0
14	18	10	52	232	142.0	-220979.0	-15907.0	344906.0
14	18	10	52	232	143.0	-220692.0	-15916.0	345054.0
14	18	10	52	233	144.0	-220744.0	-15896.0	344834.0
14	18	10	52	233	145.0	-221732.0	-15890.0	345151.0
14	18	10	52	234	146.0	-223556.0	-15869.0	345186.0
14	18	10	52	235	148.0	-227777.0	-15869.0	345221.0
14	18	10	52	235	149.0	-229799.0	-15880.0	345818.0
14	18	10	52	236	150.0	-230312.0	-15887.0	346861.0
14	18	10	52	236	151.0	-229853.0	-15870.0	348219.0
14	18	10	52	237	152.0	-229201.0	-15863.0	349056.0
14	18	10	52	238	153.0	-227926.0	-15864.0	349688.0
14	18	10	52	268	154.0	-226626.0	-15852.0	350381.0
14	18	10	52	269	155.0	-225287.0	-15844.0	350985.0
14	18	10	52	270	156.0	-223956.0	-15831.0	351433.0
14	18	10	52	270	157.0	-222964.0	-15825.0	351838.0
14	18	10	52	271	158.0	-222391.0	-15827.0	352180.0
14	18	10	52	272	159.0	-222364.0	-15801.0	355723.0
14	18	10	52	272	160.0	-222629.0	-15796.0	358946.0
14	18	10	52	273	161.0	-223224.0	-15801.0	359611.0
14	18	10	52	274	162.0	-223992.0	-15807.0	360693.0
14	18	10	52	274	163.0	-225323.0	-15804.0	362356.0
14	18	10	52	275	164.0	-227018.0	-15787.0	364029.0
14	18	10	52	275	165.0	-227975.0	-15772.0	364351.0
14	18	10	52	276	166.0	-228618.0	-15765.0	365188.0
14	18	10	52	314	167.0	-229540.0	-15763.0	366651.0
14	18	10	52	315	168.0	-230227.0	-15764.0	367841.0
14	18	10	52	316	170.0	-231569.0	-15759.0	371906.0
14	18	10	52	316	171.0	-232141.0	-15757.0	372908.0
14	18	10	52	317	172.0	-233587.0	-15748.0	373756.0
14	18	10	52	318	173.0	-235646.0	-15749.0	374393.0
14	18	10	52	318	174.0	-236932.0	-15724.0	377878.0
14	18	10	52	319	175.0	-237609.0	-15724.0	380736.0
14	18	10	52	320	176.0	-237686.0	-15727.0	382719.0
14	18	10	52	320	177.0	-237261.0	-15744.0	384193.0
14	18	10	52	321	178.0	-237156.0	-15740.0	387820.0
14	18	10	52	322	179.0	-237242.0	-15716.0	391123.0
14	18	10	52	322	180.0	-236409.0	-15709.0	392619.0
14	18	10	52	323	181.0	-235310.0	-15714.0	394097.0
14	18	10	52	324	182.0	-234239.0	-15687.0	395017.0
14	18	10	52	324	183.0	-232739.0	-15682.0	396006.0
14	18	10	52	325	193.0	-225081.0	-15646.0	401089.0
14	18	10	52	326	194.0	-222392.0	-15652.0	402103.0
14	18	10	52	326	195.0	-218949.0	-15637.0	402745.0
14	18	10	52	327	196.0	-215316.0	-15632.0	403125.0
14	18	10	52	327	197.0	-212347.0	-15652.0	403282.0
14	18	10	52	328	198.0	-209912.0	-15636.0	403278.0
14	18	10	52	328	199.0	-208152.0	-15631.0	403241.0
14	18	10	52	359	200.0	-207330.0	-15631.0	403093.0
14	18	10	52	360	201.0	-206265.0	-15619.0	401611.0
14	18	10	52	361	202.0	-204673.0	-15627.0	394923.0
14	18	10	52	362	203.0	-203370.0	-15621.0	383559.0
14	18	10	52	362	204.0	-202367.0	-15611.0	373567.0
14	18	10	52	363	205.0	-201019.0	-15611.0	365033.0
14	18	10	52	363	206.0	-199484.0	-15618.0	360245.0
14	18	10	52	364	207.0	-197378.0	-15598.0	357598.0
14	18	10	52	405	208.0	-194716.0	-15608.0	355804.0
14	18	10	52	405	209.0	-191421.0	-15621.0	354298.0
14	18	10	52	406	210.0	-187514.0	-15608.0	352967.0
14	18	10	52	407	211.0	-183552.0	-15607.0	352521.0
14	18	10	52	407	212.0	-179722.0	-15616.0	351916.0
14	18	10	52	408	213.0	-176417.0	-15609.0	352209.0
14	18	10	52	408	214.0	-174294.0	-15592.0	352699.0
14	18	10	52	450	215.0	-173522.0	-15590.0	357214.0
14	18	10	52	451	216.0	-171954.0	-15579.0	375240.0
14	18	10	52	452	217.0	-171346.0	-15578.0	383056.0
14	18	10	52	452	218.0	-172047.0	-15579.0	385726.0
14	18	10	52	453	219.0	-173092.0	-15573.0	387848.0
14	18	10	52	453	220.0	-177762.0	-15567.0	389203.0
14	18	10	52	454	221.0	-184780.0	-15569.0	389970.0
14	18	10	52	454	222.0	-192182.0	-15563.0	390606.0
14	18	10	52	455	238.0	-229644.0	-15486.0	392523.0
14	18	10	52	455	239.0	-231484.0	-15477.0	392359.0
14	18	10	52	456	240.0	-232907.0	-15471.0	392889.0
14	18	10	52	457	241.0	-233229.0	-15476.0	392983.0
14	18	10	52	457	242.0	-232257.0	-15471.0	393048.0
14	18	10	52	458	243.0	-230847.0	-15454.0	392858.0
14	18	10	52	458	244.0	-229271.0	-15452.0	391982.0
14	18	10	52	459	245.0	-227224.0	-15441.0	388945.0
14	18	10	52	459	4.0	-181202.0	-15379.0	383582.0
14	18	10	52	460	5.0	-179612.0	-15376.0	384475.0
14	18	10	52	461	6.0	-178303.0	-15378.0	384593.0
14	18	10	52	462	7.0	-177225.0	-15381.0	385155.0
14	18	10	52	463	8.0	-175679.0	-15367.0	385153.0
14	18	10	52	463	9.0	-173548.0	-15376.0	383225.0
14	18	10	52	464	10.0	-171132.0	-15382.0	380961.0
14	18	10	52	494	11.0	-168117.0	-15386.0	379664.0
14	18	10	52	495	12.0	-165072.0	-15386.0	379118.0
14	18	10	52	495	13.0	-162627.0	-15370.0	379599.0
14	18	10	52	496	14.0	-160664.0	-15357.0	380278.0
14	18	10	52	496	15.0	-159098.0	-15359.0	380696.0
14	18	10	52	497	16.0	-158066.0	-15348.0	376860.0
14	18	10	52	497	17.0	-158221.0	-15342.0	370094.0
14	18	10	52	498	18.0	-159332.0	-15363.0	372371.0
14	18	10	52	499	19.0	-161431.0	-15354.0	373388.0
14	18	10	52	499	20.0	-165564.0	-15351.0	373845.0
14	18	10	52	539	21.0	-172741.0	-15354.0	373256.0
14	18	10	52	539	22.0	-183297.0	-15351.0	368804.0
14	18	10	52	540	23.0	-197168.0	-15357.0	362076.0
14	18	10	52	541	24.0	-214962.0	-15374.0	360259.0
14	18	10	52	541	25.0	-235939.0	-15369.0	363317.0
14	18	10	52	542	27.0	-281156.0	-15347.0	370449.0
14	18	10	52	542	28.0	-304979.0	-15339.0	364667.0
14	18	10	52	543	29.0	-326084.0	-15326.0	363421.0
14	18	10	52	543	30.0	-337876.0	-15324.0	366672.0
14	18	10	52	544	31.0	-337928.0	-15319.0	368540.0
14	18	10	52	544	32.0	-327754.0	-15302.0	368894.0
14	18	10	52	545	33.0	-310065.0	-15304.0	369175.0
14	18	10	52	546	34.0	-287722.0	-15314.0	368969.0
14	18	10	52	546	35.0	-262886.0	-15299.0	369712.0
14	18	10	52	547	36.0	-237393.0	-15301.0	369867.0
14	18	10	52	547	37.0	-212591.0	-15286.0	368634.0
14	18	10	52	548	49.0	-130402.0	-15196.0	367296.0
14	18	10	52	548	50.0	-123606.0	-15174.0	365923.0
14	18	10	52	549	51.0	-110157.0	-15156.0	365283.0
14	18	10	52	549	52.0	-98709.0	-15144.0	364363.0
14	18	10	52	550	53.0	-98213.0	-15144.0	363608.0
14	18	10	52	551	54.0	-107707.0	-15126.0	363098.0
14	18	10	52	551	55.0	-121777.0	-15120.0	362888.0
14	18	10	52	583	56.0	-136289.0	-15129.0	361852.0
14	18	10	52	584	57.0	-149288.0	-15104.0	361049.0
14	18	10	52	585	58.0	-158324.0	-15094.0	360732.0
14	18	10	52	586	59.0	-163533.0	-15086.0	359980.0
14	18	10	52	586	60.0	-167507.0	-15062.0	359359.0
14	18	10	52	587	61.0	-172069.0	-15054.0	359893.0
14	18	10	52	588	62.0	-177188.0	-15053.0	359866.0
14	18	10	52	588	63.0	-181903.0	-15039.0	359446.0
14	18	10	52	628	64.0	-186201.0	-15024.0	359142.0
14	18	10	52	629	65.0	-190705.0	-15016.0	359009.0
14	18	10	52	630	66.0	-195394.0	-14994.0	359636.0
14	18	10	52	630	67.0	-200219.0	-14981.0	359563.0
14	18	10	52	631	68.0	-205252.0	-14989.0	358551.0
14	18	10	52	631	69.0	-210361.0	-14971.0	357193.0
14	18	10	52	632	70.0	-215167.0	-14959.0	356672.0
14	18	10	52	633	71.0	-218591.0	-14966.0	356656.0
14	18	10	52	633	72.0	-219379.0	-14970.0	355529.0
14	18	10	52	634	73.0	-216108.0	-14959.0	354509.0
14	18	10	52	634	74.0	-209460.0	-14935.0	355673.0
14	18	10	52	635	75.0	-201733.0	-14934.0	365749.0
14	18	10	52	635	76.0	-194226.0	-14936.0	370268.0
14	18	10	52	644	77.0	-187269.0	-14932.0	370644.0
14	18	10	52	644	78.0	-181037.0	-14921.0	371118.0
14	18	10	52	645	94.0	-160229.0	-14742.0	369130.0
14	18	10	52	645	95.0	-155958.0	-14736.0	368983.0
14	18	10	52	646	96.0	-150881.0	-14726.0	369019.0
14	18	10	52	646	97.0	-145092.0	-14724.0	368553.0
14	18	10	52	647	98.0	-139502.0	-14709.0	368398.0
14	18	10	52	647	99.0	-134039.0	-14676.0	367713.0
14	18	10	52	674	100.0	-128757.0	-14656.0	366913.0
14	18	10	52	675	101.0	-124443.0	-14660.0	366281.0
14	18	10	52	676	102.0	-121563.0	-14639.0	365572.0
14	18	10	52	676	103.0	-119481.0	-14637.0	365018.0
14	18	10	52	677	104.0	-118007.0	-14642.0	364248.0
14	18	10	52	677	105.0	-117987.0	-14625.0	363470.0
14	18	10	52	678	106.0	-119252.0	-14609.0	362443.0
14	18	10	52	679	107.0	-121255.0	-14597.0	362239.0
14	18	10	52	679	108.0	-123847.0	-14569.0	361983.0
14	18	10	52	680	109.0	-127221.0	-14562.0	361388.0
14	18	10	52	680	110.0	-131108.0	-14549.0	360941.0
14	18	10	52	681	111.0	-135461.0	-14544.0	360374.0
14	18	10	52	682	112.0	-139949.0	-14526.0	359699.0
14	18	10	52	682	113.0	-144381.0	-14531.0	359295.0
14	18	10	52	683	114.0	-148548.0	-14509.0	359618.0
14	18	10	52	683	116.0	-156950.0	-14490.0	357434.0
14	18	10	52	684	117.0	-161936.0	-14482.0	356343.0
14	18	10	52	684	118.0	-167291.0	-14477.0	355858.0
14	18	10	52	685	119.0	-173002.0	-14466.0	355517.0
14	18	10	52	686	120.0	-179425.0	-14458.0	354913.0
14	18	10	52	686	121.0	-186725.0	-14446.0	354198.0
14	18	10	52	694	122.0	-193593.0	-14446.0	353812.0
14	18	10	52	719	123.0	-199834.0	-14423.0	353758.0
14	18	10	52	720	124.0	-205246.0	-14417.0	353512.0
14	18	10	52	720	125.0	-209847.0	-14414.0	353230.0
14	18	10	52	721	126.0	-213883.0	-14397.0	352574.0
14	18	10	52	721	127.0	-218042.0	-14381.0	352133.0
14	18	10	52	722	128.0	-222249.0	-14375.0	351769.0
14	18	10	52	723	129.0	-226432.0	-14366.0	351315.0
14	18	10	52	723	130.0	-229724.0	-14357.0	350966.0
14	18	10	52	764	131.0	-231626.0	-14362.0	350913.0
14	18	10	52	764	132.0	-232685.0	-14324.0	350407.0
14	18	10	52	765	133.0	-232824.0	-14322.0	349141.0
14	18	10	52	766	134.0	-232334.0	-14322.0	348274.0
14	18	10	52	766	135.0	-231138.0	-14321.0	347497.0
14	18	10	52	767	136.0	-229234.0	-14291.0	347081.0
14	18	10	52	768	137.0	-226737.0	-14266.0	346723.0
14	18	10	52	769	139.0	-221832.0	-14252.0	345843.0
14	18	10	52	769	140.0	-219175.0	-14255.0	345409.0
14	18	10	52	770	141.0	-216460.0	-14236.0	344534.0
14	18	10	52	771	142.0	-213987.0	-14213.0	343276.0
14	18	10	52	771	143.0	-211376.0	-14199.0	342650.0
14	18	10	52	772	144.0	-208676.0	-14201.0	342593.0
14	18	10	52	773	145.0	-206539.0	-14193.0	341604.0
14	18	10	52	773	146.0	-204976.0	-14192.0	340554.0
14	18	10	52	774	161.0	-232122.0	-14052.0	311622.0
14	18	10	52	774	162.0	-231494.0	-14046.0	311036.0
14	18	10	52	775	163.0	-229519.0	-14028.0	310368.0
14	18	10	52	775	164.0	-227494.0	-14025.0	309885.0
14	18	10	52	776	165.0	-226047.0	-14025.0	309037.0
14	18	10	52	777	166.0	-225849.0	-14036.0	307878.0
14	18	10	52	777	167.0	-227253.0	-14019.0	306871.0
14	18	10	52	808	168.0	-228686.0	-14008.0	305973.0
14	18	10	52	809	169.0	-229028.0	-14001.0	305429.0
14	18	10	52	809	170.0	-227952.0	-14008.0	305338.0
14	18	10	52	810	171.0	-224962.0	-14024.0	305262.0
14	18	10	52	811	172.0	-220324.0	-14012.0	304763.0
14	18	10	52	811	173.0	-214995.0	-13999.0	303533.0
14	18	10	52	812	174.0	-209327.0	-13996.0	302889.0
14	18	10	52	854	175.0	-203901.0	-13981.0	302609.0
14	18	10	52	855	176.0	-199552.0	-13963.0	301529.0
14	18	10	52	855	177.0	-197249.0	-13972.0	301441.0
14	18	10	52	856	178.0	-196846.0	-13974.0	301543.0
14	18	10	52	857	179.0	-199407.0	-13971.0	300808.0
14	18	10	52	857	180.0	-205674.0	-13951.0	300279.0
14	18	10	52	858	181.0	-216264.0	-13956.0	299714.0
14	18	10	52	858	182.0	-233147.0	-13941.0	299186.0
14	18	10	52	859	184.0	-278792.0	-13920.0	298119.0
14	18	10	52	860	185.0	-291937.0	-13931.0	296978.0
14	18	10	52	860	186.0	-286376.0	-13927.0	295996.0
14	18	10	52	861	187.0	-275212.0	-13919.0	295916.0
14	18	10	52	861	188.0	-268104.0	-13917.0	295527.0
14	18	10	52	862	189.0	-265711.0	-13911.0	294578.0
14	18	10	52	863	190.0	-263530.0	-13912.0	293724.0
14	18	10	52	863	191.0	-257274.0	-13894.0	292969.0
14	18	10	52	864	206.0	-173397.0	-13835.0	285752.0
14	18	10	52	864	207.0	-184008.0	-13829.0	285433.0
14	18	10	52	865	208.0	-193162.0	-13829.0	285346.0
14	18	10	52	865	209.0	-200889.0	-13833.0	284694.0
14	18	10	52	866	210.0	-207442.0	-13816.0	284311.0
14	18	10	52	867	211.0	-212825.0	-13812.0	283856.0
14	18	10	52	875	212.0	-217537.0	-13799.0	283601.0
14	18	10	52	899	213.0	-222619.0	-13791.0	283070.0
14	18	10	52	900	214.0	-227647.0	-13807.0	282584.0
14	18	10	52	900	215.0	-231594.0	-13819.0	281930.0
14	18	10	52	901	216.0	-234495.0	-13802.0	281540.0
14	18	10	52	901	217.0	-236112.0	-13791.0	281796.0
14	18	10	52	902	218.0	-236232.0	-13802.0	281732.0
14	18	10	52	903	219.0	-234806.0	-13812.0	281113.0
14	18	10	52	903	220.0	-231416.0	-13797.0	280592.0
14	18	10	52	904	221.0	-226354.0	-13779.0	280185.0
14	18	10	52	904	222.0	-220566.0	-13789.0	279570.0
14	18	10	52	905	223.0	-213786.0	-13796.0	278791.0
14	18	10	52	906	224.0	-206627.0	-13804.0	278549.0
14	18	10	52	906	225.0	-199660.0	-13802.0	278139.0
14	18	10	52	907	226.0	-193093.0	-13787.0	277370.0
14	18	10	52	908	227.0	-186700.0	-13772.0	276789.0
14	18	10	52	908	228.0	-180559.0	-13780.0	276586.0
14	18	10	52	909	229.0	-175514.0	-13784.0	275509.0
14	18	10	52	909	230.0	-171914.0	-13784.0	274553.0
14	18	10	52	910	231.0	-169582.0	-13762.0	274869.0
14	18	10	52	910	232.0	-168614.0	-13763.0	274721.0
14	18	10	52	911	233.0	-169579.0	-13757.0	274236.0
14	18	10	52	912	234.0	-171977.0	-13759.0	273811.0
14	18	10	52	944	235.0	-175682.0	-13763.0	272962.0
14	18	10	52	944	236.0	-180419.0	-13757.0	272321.0
14	18	10	52	945	237.0	-186689.0	-13759.0	271409.0
14	18	10	52	946	238.0	-194359.0	-13747.0	270508.0
14	18	10	52	946	239.0	-204077.0	-13744.0	270393.0
14	18	10	52	947	240.0	-215031.0	-13744.0	269734.0
14	18	10	52	947	241.0	-226925.0	-13743.0	269489.0
14	18	10	52	948	242.0	-238536.0	-13724.0	269164.0
14	18	10	52	949	243.0	-249166.0	-13710.0	268720.0
14	18	10	52	949	244.0	-258716.0	-13722.0	267685.0
14	18	10	52	950	245.0	-267382.0	-13734.0	266374.0
14	18	10	52	950	246.0	-275111.0	-13717.0	264989.0
14	18	10	52	951	247.0	-281415.0	-13706.0	264363.0
14	18	10	52	952	248.0	-286533.0	-13694.0	263933.0
14	18	10	52	952	249.0	-290633.0	-13698.0	263357.0
14	18	10	52	953	251.0	-294497.0	-13707.0	262139.0
14	18	10	52	953	252.0	-293884.0	-13717.0	262421.0
14	18	10	52	954	253.0	-290951.0	-13689.0	262844.0
14	18	10	52	955	254.0	-286200.0	-13687.0	262606.0
14	18	10	52	955	255.0	-279928.0	-13682.0	261189.0
14	18	10	52	956	0.0	-272445.0	-13672.0	260028.0
14	18	10	52	988	1.0	-264136.0	-13680.0	259421.0
14	18	10	52	989	2.0	-255275.0	-13670.0	258600.0
14	18	10	52	990	3.0	-247384.0	-13676.0	257823.0
14	18	10	52	990	4.0	-240631.0	-13677.0	257039.0
14	18	10	52	991	5.0	-234626.0	-13667.0	254930.0
14	18	10	52	991	6.0	-228761.0	-13663.0	253194.0
14	18	10	52	992	7.0	-223013.0	-13662.0	252569.0
14	18	10	52	993	8.0	-217942.0	-13657.0	252164.0
14	18	10	52	994	9.0	-213807.0	-13647.0	251351.0
14	18	10	52	994	10.0	-210329.0	-13654.0	250443.0
14	18	10	52	995	11.0	-207869.0	-13652.0	250468.0
14	18	10	52	996	12.0	-206089.0	-13659.0	250474.0
14	18	10	52	996	13.0	-204532.0	-13661.0	250368.0
14	18	10	52	997	14.0	-203542.0	-13658.0	250458.0
14	18	10	52	998	15.0	-203268.0	-13652.0	250313.0
14	18	10	52	998	17.0	-202582.0	-13643.0	250366.0
14	18	10	52	999	18.0	-201841.0	-13651.0	250303.0
14	18	10	52	999	19.0	-201203.0	-13656.0	249841.0
14	18	10	53	0	20.0	-199384.0	-13665.0	250339.0
14	18	10	53	1	21.0	-198662.0	-13641.0	250595.0
14	18	10	53	1	22.0	-199079.0	-13638.0	250641.0
14	18	10	53	2	23.0	-198076.0	-13651.0	250145.0
14	18	10	53	33	24.0	-197119.0	-13634.0	249913.0
14	18	10	53	34	25.0	-196646.0	-13626.0	250003.0
14	18	10	53	35	26.0	-196703.0	-13629.0	249958.0
14	18	10	53	35	27.0	-195369.0	-13622.0	249934.0
14	18	10	53	36	28.0	-192366.0	-13640.0	250111.0
14	18	10	53	37	29.0	-187971.0	-13636.0	249121.0
14	18	10	53	37	30.0	-181856.0	-13632.0	247628.0
14	18	10	53	38	31.0	-174441.0	-13632.0	246362.0
14	18	10	53	38	32.0	-166437.0	-13622.0	245326.0
14	18	10	53	39	33.0	-158211.0	-13640.0	245181.0
14	18	10	53	40	34.0	-150566.0	-13624.0	245275.0
14	18	10	53	41	35.0	-144934.0	-13616.0	246200.0
14	18	10	53	41	36.0	-141371.0	-13629.0	246659.0
14	18	10	53	42	37.0	-140151.0	-13637.0	246986.0
14	18	10	53	42	38.0	-141686.0	-13631.0	247185.0
14	18	10	53	43	40.0	-151268.0	-13621.0	241149.0
14	18	10	53	44	41.0	-157617.0	-13608.0	239569.0
14	18	10	53	44	42.0	-164560.0	-13599.0	238353.0
14	18	10	53	45	43.0	-171346.0	-13593.0	245722.0
14	18	10	53	45	44.0	-177572.0	-13594.0	250597.0
14	18	10	53	46	45.0	-183411.0	-13599.0	250650.0
14	18	10	53	79	46.0	-188801.0	-13598.0	250456.0
14	18	10	53	79	47.0	-193507.0	-13599.0	249871.0
14	18	10	53	80	48.0	-197439.0	-13599.0	249446.0
14	18	10	53	81	49.0	-200158.0	-13600.0	249149.0
14	18	10	53	81	50.0	-202123.0	-13608.0	248617.0
14	18	10	53	82	51.0	-203276.0	-13606.0	247799.0
14	18	10	53	82	52.0	-203682.0	-13599.0	247821.0
14	18	10	53	83	53.0	-203761.0	-13580.0	247736.0
14	18	10	53	84	54.0	-203043.0	-13582.0	247241.0
14	18	10	53	92	55.0	-201626.0	-13600.0	246989.0
14	18	10	53	124	56.0	-199736.0	-13582.0	246569.0
14	18	10	53	125	57.0	-196932.0	-13589.0	246611.0
14	18	10	53	126	58.0	-194131.0	-13572.0	246719.0
14	18	10	53	126	59.0	-191331.0	-13559.0	246491.0
14	18	10	53	127	60.0	-188229.0	-13555.0	246582.0
14	18	10	53	128	62.0	-182367.0	-13557.0	246443.0
14	18	10	53	128	63.0	-180266.0	-13543.0	245880.0
14	18	10	53	129	64.0	-178686.0	-13528.0	245950.0
14	18	10	53	129	65.0	-177186.0	-13514.0	246019.0
14	18	10	53	130	66.0	-175686.0	-13517.0	245528.0
14	18	10	53	131	67.0	-174137.0	-13535.0	249542.0
14	18	10	53	132	68.0	-172584.0	-13532.0	257078.0
14	18	10	53	132	69.0	-171222.0	-13522.0	258612.0
14	18	10	53	133	70.0	-170404.0	-13521.0	258582.0
14	18	10	53	133	71.0	-169717.0	-13501.0	258511.0
14	18	10	53	134	85.0	-173078.0	-13420.0	258309.0
14	18	10	53	135	86.0	-177867.0	-13407.0	257639.0
14	18	10	53	135	87.0	-183297.0	-13414.0	257014.0
14	18	10	53	136	88.0	-188745.0	-13413.0	256872.0
14	18	10	53	137	89.0	-193398.0	-13398.0	258064.0
14	18	10	53	137	90.0	-197020.0	-13392.0	258381.0
14	18	10	53	168	91.0	-199371.0	-13382.0	258239.0
14	18	10	53	169	92.0	-200876.0	-13375.0	259058.0
14	18	10	53	170	93.0	-202045.0	-13372.0	259834.0
14	18	10	53	170	94.0	-202867.0	-13361.0	261029.0
14	18	10	53	171	95.0	-203420.0	-13352.0	261281.0
14	18	10	53	172	96.0	-203407.0	-13353.0	260562.0
14	18	10	53	172	97.0	-202291.0	-13339.0	259439.0
14	18	10	53	173	98.0	-199627.0	-13335.0	259210.0
14	18	10	53	174	99.0	-195599.0	-13326.0	258706.0
14	18	10	53	174	100.0	-190237.0	-13314.0	258450.0
14	18	10	53	175	101.0	-183854.0	-13324.0	259162.0
14	18	10	53	175	102.0	-176915.0	-13313.0	260730.0
14	18	10	53	176	103.0	-170291.0	-13305.0	261601.0
14	18	10	53	177	104.0	-164616.0	-13302.0	261186.0
14	18	10	53	177	105.0	-160329.0	-13284.0	259233.0
14	18	10	53	178	107.0	-155623.0	-13267.0	256521.0
14	18	10	53	179	108.0	-156236.0	-13271.0	257077.0
14	18	10	53	180	109.0	-158901.0	-13265.0	254661.0
14	18	10	53	180	110.0	-163842.0	-13250.0	246799.0
14	18	10	53	181	111.0	-171357.0	-13244.0	241030.0
14	18	10	53	181	112.0	-181710.0	-13234.0	242426.0
14	18	10	53	214	113.0	-194776.0	-13221.0	247650.0
14	18	10	53	214	114.0	-210061.0	-13222.0	251949.0
14	18	10	53	215	115.0	-227598.0	-13227.0	249195.0
14	18	10	53	216	116.0	-245582.0	-13216.0	244693.0
14	18	10	53	216	117.0	-258962.0	-13184.0	245770.0
14	18	10	53	217	118.0	-264004.0	-13186.0	247917.0
14	18	10	53	217	119.0	-260279.0	-13193.0	249182.0
14	18	10	53	218	120.0	-250687.0	-13179.0	249531.0
14	18	10	53	260	121.0	-238950.0	-13180.0	249399.0
14	18	10	53	260	122.0	-226617.0	-13171.0	248631.0
14	18	10	53	261	123.0	-213047.0	-13162.0	248061.0
14	18	10	53	262	124.0	-199986.0	-13141.0	247364.0
14	18	10	53	262	125.0	-189664.0	-13135.0	247130.0
14	18	10	53	263	126.0	-184051.0	-13120.0	246679.0
14	18	10	53	263	127.0	-179536.0	-13094.0	242868.0
14	18	10	53	264	129.0	-172234.0	-13093.0	236123.0
14	18	10	53	265	130.0	-174262.0	-13082.0	234978.0
14	18	10	53	265	131.0	-177249.0	-13079.0	234323.0
14	18	10	53	266	132.0	-181166.0	-13062.0	233811.0
14	18	10	53	267	133.0	-187406.0	-13057.0	233049.0
14	18	10	53	267	134.0	-190313.0	-13066.0	233001.0
14	18	10	53	268	135.0	-195371.0	-13056.0	232189.0
14	18	10	53	268	136.0	-205063.0	-13050.0	231212.0
14	18	10	53	269	152.0	-221120.0	-12892.0	237853.0
14	18	10	53	270	153.0	-215855.0	-12895.0	238443.0
14	18	10	53	270	154.0	-209796.0	-12904.0	238614.0
14	18	10	53	271	155.0	-204634.0	-12899.0	238829.0
14	18	10	53	271	156.0	-201824.0	-12891.0	238293.0
14	18	10	53	272	157.0	-201986.0	-12877.0	236888.0
14	18	10	53	303	158.0	-204325.0	-12886.0	237322.0
14	18	10	53	304	159.0	-206874.0	-12876.0	237328.0
14	18	10	53	304	160.0	-206812.0	-12874.0	236563.0
14	18	10	53	305	161.0	-202804.0	-12866.0	235986.0
14	18	10	53	306	162.0	-195804.0	-12841.0	235557.0
14	18	10	53	306	163.0	-187889.0	-12850.0	235043.0
14	18	10	53	307	164.0	-180479.0	-12857.0	235834.0
14	18	10	53	308	165.0	-173665.0	-12845.0	236444.0
14	18	10	53	308	166.0	-167244.0	-12841.0	235229.0
14	18	10	53	309	167.0	-160711.0	-12851.0	234764.0
14	18	10	53	309	168.0	-153606.0	-12843.0	234013.0
14	18	10	53	310	169.0	-146832.0	-12830.0	231936.0
14	18	10	53	311	170.0	-141832.0	-12821.0	230490.0
14	18	10	53	311	171.0	-138677.0	-12824.0	230317.0
14	18	10	53	312	172.0	-137536.0	-12812.0	229865.0
14	18	10	53	313	174.0	-141773.0	-12804.0	229184.0
14	18	10	53	313	175.0	-145917.0	-12802.0	229094.0
14	18	10	53	314	176.0	-150406.0	-12774.0	228698.0
14	18	10	53	315	177.0	-154194.0	-12781.0	228481.0
14	18	10	53	315	178.0	-156598.0	-12779.0	228170.0
14	18	10	53	316	179.0	-157356.0	-12769.0	227601.0
14	18	10	53	316	180.0	-156612.0	-12769.0	227181.0
14	18	10	53	349	181.0	-154697.0	-12774.0	226678.0
14	18	10	53	350	182.0	-152246.0	-12765.0	226396.0
14	18	10	53	350	183.0	-148674.0	-12770.0	226434.0
14	18	10	53	351	184.0	-144224.0	-12761.0	226714.0
14	18	10	53	352	185.0	-139462.0	-12755.0	227029.0
14	18	10	53	353	186.0	-134884.0	-12760.0	227546.0
14	18	10	53	353	187.0	-130445.0	-12761.0	227715.0
14	18	10	53	354	188.0	-126117.0	-12752.0	228050.0
14	18	10	53	354	189.0	-123801.0	-12772.0	228014.0
14	18	10	53	355	190.0	-122374.0	-12753.0	227653.0
14	18	10	53	356	191.0	-122407.0	-12727.0	228319.0
14	18	10	53	357	192.0	-124150.0	-12729.0	228891.0
14	18	10	53	357	193.0	-127228.0	-12732.0	228956.0
14	18	10	53	358	194.0	-131438.0	-12722.0	229054.0
14	18	10	53	359	195.0	-136995.0	-12724.0	228576.0
14	18	10	53	359	197.0	-152802.0	-12731.0	228244.0
14	18	10	53	360	198.0	-163384.0	-12714.0	228311.0
14	18	10	53	360	199.0	-175384.0	-12701.0	227831.0
14	18	10	53	361	200.0	-188078.0	-12719.0	227311.0
14	18	10	53	362	201.0	-200443.0	-12704.0	227026.0
14	18	10	53	362	202.0	-211737.0	-12706.0	226449.0
14	18	10	53	394	203.0	-221949.0	-12702.0	225968.0
14	18	10	53	395	204.0	-231037.0	-12688.0	226639.0
14	18	10	53	396	205.0	-238870.0	-12687.0	227756.0
14	18	10	53	397	206.0	-245382.0	-12677.0	227764.0
14	18	10	53	397	207.0	-250491.0	-12672.0	227642.0
14	18	10	53	398	208.0	-253829.0	-12669.0	227733.0
14	18	10	53	399	209.0	-254989.0	-12670.0	227449.0
14	18	10	53	399	210.0	-254665.0	-12668.0	227297.0
14	18	10	53	400	211.0	-253206.0	-12662.0	226719.0
14	18	10	53	401	212.0	-249894.0	-12666.0	226114.0
14	18	10	53	401	213.0	-244799.0	-12663.0	225604.0
14	18	10	53	402	214.0	-238917.0	-12667.0	224668.0
14	18	10	53	403	215.0	-233082.0	-12649.0	223598.0
14	18	10	53	403	216.0	-226197.0	-12637.0	222346.0
14	18	10	53	404	217.0	-218473.0	-12632.0	221592.0
14	18	10	53	404	219.0	-203746.0	-12636.0	220890.0
14	18	10	53	405	220.0	-197207.0	-12644.0	220124.0
14	18	10	53	406	221.0	-191349.0	-12637.0	219484.0
14	18	10	53	406	222.0	-186272.0	-12627.0	219179.0
14	18	10	53	407	223.0	-182325.0	-12637.0	218961.0
14	18	10	53	408	224.0	-179884.0	-12627.0	218322.0
14	18	10	53	409	225.0	-178542.0	-12646.0	217125.0
14	18	10	53	440	226.0	-177869.0	-12656.0	217421.0
14	18	10	53	441	227.0	-177259.0	-12641.0	217523.0
14	18	10	53	441	228.0	-176947.0	-12634.0	217591.0
14	18	10	53	442	229.0	-176900.0	-12630.0	218354.0
14	18	10	53	442	230.0	-177029.0	-12627.0	220136.0
14	18	10	53	443	231.0	-176769.0	-12634.0	219604.0
14	18	10	53	443	232.0	-176509.0	-12636.0	218979.0
14	18	10	53	484	233.0	-176930.0	-12631.0	218377.0
14	18	10	53	485	234.0	-177932.0	-12633.0	217469.0
14	18	10	53	486	235.0	-179199.0	-12635.0	217073.0
14	18	10	53	486	236.0	-180816.0	-12630.0	216403.0
14	18	10	53	487	237.0	-182813.0	-12645.0	216171.0
14	18	10	53	488	238.0	-185520.0	-12652.0	215615.0
14	18	10	53	488	239.0	-188304.0	-12656.0	214201.0
14	18	10	53	489	240.0	-190990.0	-12639.0	213180.0
14	18	10	53	490	242.0	-195660.0	-12616.0	212051.0
14	18	10	53	490	243.0	-197735.0	-12617.0	211479.0
14	18	10	53	529	244.0	-199469.0	-12607.0	210896.0
14	18	10	53	530	245.0	-200642.0	-12611.0	210402.0
14	18	10	53	531	246.0	-201223.0	-12614.0	209604.0
14	18	10	53	532	247.0	-201445.0	-12615.0	207783.0
14	18	10	53	532	248.0	-201205.0	-12616.0	206689.0
14	18	10	53	533	249.0	-199578.0	-12626.0	207108.0
14	18	10	53	534	8.0	-160736.0	-12504.0	201166.0
14	18	10	53	534	9.0	-162169.0	-12506.0	201300.0
14	18	10	53	535	10.0	-165721.0	-12513.0	200998.0
14	18	10	53	536	11.0	-172135.0	-12492.0	201049.0
14	18	10	53	536	12.0	-181654.0	-12482.0	201853.0
14	18	10	53	537	13.0	-195024.0	-12478.0	202306.0
14	18	10	53	538	14.0	-212822.0	-12471.0	202433.0
14	18	10	53	538	15.0	-234255.0	-12467.0	202714.0
14	18	10	53	539	16.0	-259109.0	-12459.0	202955.0
14	18	10	53	540	17.0	-281701.0	-12444.0	203157.0
14	18	10	53	540	31.0	-208061.0	-12338.0	198327.0
14	18	10	53	541	32.0	-198183.0	-12340.0	197762.0
14	18	10	53	541	33.0	-192554.0	-12326.0	197566.0
14	18	10	53	542	34.0	-191149.0	-12316.0	197158.0
14	18	10	53	542	35.0	-192116.0	-12321.0	196473.0
14	18	10	53	544	36.0	-194315.0	-12310.0	195953.0
14	18	10	53	574	37.0	-198090.0	-12293.0	195333.0
14	18	10	53	575	38.0	-203098.0	-12280.0	195069.0
14	18	10	53	575	39.0	-208260.0	-12278.0	195184.0
14	18	10	53	576	40.0	-213855.0	-12273.0	194244.0
14	18	10	53	577	41.0	-220957.0	-12282.0	193740.0
14	18	10	53	577	42.0	-231444.0	-12259.0	193373.0
14	18	10	53	578	43.0	-237921.0	-12241.0	193174.0
14	18	10	53	578	44.0	-243622.0	-12226.0	193663.0
14	18	10	53	579	45.0	-247002.0	-12233.0	194996.0
14	18	10	53	579	46.0	-249739.0	-12226.0	195124.0
14	18	10	53	580	47.0	-251890.0	-12206.0	194731.0
14	18	10	53	580	48.0	-252868.0	-12197.0	194670.0
14	18	10	53	581	49.0	-252100.0	-12205.0	194439.0
14	18	10	53	582	50.0	-248979.0	-12195.0	193544.0
14	18	10	53	582	51.0	-243382.0	-12202.0	193192.0
14	18	10	53	583	53.0	-228380.0	-12178.0	193075.0
14	18	10	53	583	54.0	-221432.0	-12177.0	192735.0
14	18	10	53	584	55.0	-215164.0	-12161.0	192192.0
14	18	10	53	584	56.0	-209905.0	-12173.0	191887.0
14	18	10	53	585	57.0	-206174.0	-12164.0	191408.0
14	18	10	53	585	58.0	-203876.0	-12161.0	189149.0
14	18	10	53	619	59.0	-202864.0	-12181.0	187366.0
14	18	10	53	619	60.0	-202307.0	-12170.0	186481.0
14	18	10	53	620	61.0	-202579.0	-12159.0	185700.0
14	18	10	53	620	62.0	-203299.0	-12167.0	185143.0
14	18	10	53	621	63.0	-204298.0	-12161.0	184789.0
14	18	10	53	621	64.0	-205223.0	-12156.0	184086.0
14	18	10	53	622	65.0	-205883.0	-12152.0	183610.0
14	18	10	53	623	66.0	-206986.0	-12140.0	183488.0
14	18	10	53	623	67.0	-208819.0	-12127.0	183438.0
14	18	10	53	624	68.0	-210931.0	-12139.0	183654.0
14	18	10	53	624	69.0	-213017.0	-12121.0	183923.0
14	18	10	53	625	70.0	-214571.0	-12102.0	178592.0
14	18	10	53	625	71.0	-215622.0	-12113.0	169161.0
14	18	10	53	626	72.0	-216135.0	-12110.0	172194.0
14	18	10	53	626	73.0	-215967.0	-12105.0	172472.0
14	18	10	53	627	75.0	-213127.0	-12096.0	173318.0
14	18	10	53	628	76.0	-210588.0	-12090.0	171676.0
14	18	10	53	628	77.0	-207132.0	-12076.0	168048.0
14	18	10	53	629	78.0	-203096.0	-12064.0	167403.0
14	18	10	53	629	79.0	-198961.0	-12076.0	166763.0
14	18	10	53	665	80.0	-195082.0	-12064.0	166126.0
14	18	10	53	665	81.0	-191691.0	-12067.0	165691.0
14	18	10	53	666	82.0	-188663.0	-12079.0	165213.0
14	18	10	53	666	83.0	-186041.0	-12062.0	164913.0
14	18	10	53	667	84.0	-183789.0	-12083.0	164673.0
14	18	10	53	668	85.0	-182257.0	-12076.0	165028.0
14	18	10	53	668	86.0	-181851.0	-12081.0	163249.0
14	18	10	53	669	87.0	-182261.0	-12082.0	162258.0
14	18	10	53	669	88.0	-183997.0	-12082.0	162839.0
14	18	10	53	670	89.0	-187269.0	-12082.0	163144.0
14	18	10	53	670	90.0	-191936.0	-12064.0	162790.0
14	18	10	53	671	91.0	-197257.0	-12069.0	161074.0
14	18	10	53	672	92.0	-203520.0	-12063.0	160379.0
14	18	10	53	672	93.0	-210042.0	-12059.0	160358.0
14	18	10	53	673	94.0	-215968.0	-12056.0	160307.0
14	18	10	53	673	95.0	-221372.0	-12049.0	159934.0
14	18	10	53	674	98.0	-240447.0	-12069.0	158756.0
14	18	10	53	674	99.0	-247072.0	-12050.0	159225.0
14	18	10	53	675	100.0	-252681.0	-12046.0	159885.0
14	18	10	53	676	101.0	-257251.0	-12037.0	157956.0
14	18	10	53	676	102.0	-260983.0	-12055.0	156949.0
14	18	10	53	677	103.0	-263882.0	-12062.0	153223.0
14	18	10	53	708	104.0	-265976.0	-12034.0	147205.0
14	18	10	53	709	105.0	-267425.0	-12029.0	145811.0
14	18	10	53	710	106.0	-268814.0	-12022.0	144476.0
14	18	10	53	710	107.0	-269488.0	-12031.0	143501.0
14	18	10	53	711	108.0	-268761.0	-12017.0	142850.0
14	18	10	53	711	109.0	-266739.0	-12014.0	142406.0
14	18	10	53	712	110.0	-263656.0	-12017.0	141159.0
14	18	10	53	712	111.0	-259206.0	-12017.0	139969.0
14	18	10	53	713	112.0	-253734.0	-12012.0	139795.0
14	18	10	53	714	113.0	-247778.0	-12002.0	139661.0
14	18	10	53	714	114.0	-241040.0	-12002.0	140065.0
14	18	10	53	715	115.0	-233012.0	-12016.0	141093.0
14	18	10	53	715	116.0	-223845.0	-12001.0	140410.0
14	18	10	53	716	117.0	-213784.0	-12007.0	139143.0
14	18	10	53	716	118.0	-202951.0	-12017.0	138999.0
14	18	10	53	717	120.0	-180441.0	-12004.0	138541.0
14	18	10	53	718	121.0	-169487.0	-12006.0	138664.0
14	18	10	53	718	122.0	-159089.0	-12001.0	139199.0
14	18	10	53	719	123.0	-149511.0	-11996.0	139172.0
14	18	10	53	719	124.0	-140779.0	-11977.0	138687.0
14	18	10	53	720	125.0	-133351.0	-11975.0	138194.0
14	18	10	53	720	126.0	-127665.0	-11976.0	137875.0
14	18	10	53	754	127.0	-123379.0	-11987.0	137996.0
14	18	10	53	755	128.0	-120520.0	-11981.0	138626.0
14	18	10	53	755	129.0	-119238.0	-11969.0	139014.0
14	18	10	53	756	130.0	-119903.0	-11977.0	139099.0
14	18	10	53	756	131.0	-122544.0	-11960.0	138977.0
14	18	10	53	757	132.0	-126827.0	-11959.0	139464.0
14	18	10	53	757	133.0	-132338.0	-11964.0	139551.0
14	18	10	53	758	134.0	-138536.0	-11967.0	138899.0
14	18	10	53	759	135.0	-145260.0	-11948.0	138570.0
14	18	10	53	759	136.0	-152323.0	-11946.0	138881.0
14	18	10	53	760	137.0	-159237.0	-11961.0	138246.0
14	18	10	53	760	138.0	-165391.0	-11961.0	137583.0
14	18	10	53	761	139.0	-170764.0	-11963.0	137158.0
14	18	10	53	761	140.0	-176162.0	-11947.0	136432.0
14	18	10	53	762	141.0	-181564.0	-11926.0	136061.0
14	18	10	53	763	143.0	-192297.0	-11935.0	136261.0
14	18	10	53	763	144.0	-197154.0	-11937.0	135923.0
14	18	10	53	764	145.0	-200641.0	-11927.0	135598.0
14	18	10	53	765	146.0	-202516.0	-11921.0	135188.0
14	18	10	53	765	147.0	-203787.0	-11922.0	135063.0
14	18	10	53	766	148.0	-204371.0	-11907.0	134859.0
14	18	10	53	803	149.0	-203957.0	-11901.0	134133.0
14	18	10	53	804	150.0	-202517.0	-11887.0	133056.0
14	18	10	53	804	151.0	-200212.0	-11888.0	132621.0
14	18	10	53	805	152.0	-196869.0	-11900.0	132357.0
14	18	10	53	806	153.0	-192313.0	-11896.0	131926.0
14	18	10	53	806	154.0	-186504.0	-11875.0	131743.0
14	18	10	53	807	155.0	-180197.0	-11880.0	131446.0
14	18	10	53	807	156.0	-173226.0	-11882.0	131543.0
14	18	10	53	808	157.0	-165949.0	-11892.0	133022.0
14	18	10	53	808	158.0	-158775.0	-11882.0	135195.0
14	18	10	53	809	159.0	-151174.0	-11874.0	136244.0
14	18	10	53	810	160.0	-142716.0	-11872.0	136561.0
14	18	10	53	810	161.0	-134690.0	-11879.0	137599.0
14	18	10	53	811	162.0	-127037.0	-11864.0	137834.0
14	18	10	53	811	163.0	-119051.0	-11864.0	137851.0
14	18	10	53	812	165.0	-104937.0	-11876.0	139415.0
14	18	10	53	812	166.0	-99397.0	-11879.0	140432.0
14	18	10	53	813	167.0	-95791.0	-11857.0	141618.0
14	18	10	53	813	168.0	-95019.0	-11857.0	142623.0
14	18	10	53	814	169.0	-96295.0	-11867.0	143936.0
14	18	10	53	815	170.0	-96152.0	-11841.0	144166.0
14	18	10	53	845	171.0	-99397.0	-11860.0	144241.0
14	18	10	53	846	172.0	-104047.0	-11886.0	145523.0
14	18	10	53	846	173.0	-110529.0	-11889.0	146378.0
14	18	10	53	847	174.0	-114862.0	-11889.0	145954.0
14	18	10	53	848	175.0	-119366.0	-11902.0	145337.0
14	18	10	53	848	176.0	-124529.0	-11903.0	145328.0
14	18	10	53	849	177.0	-131684.0	-11920.0	144965.0
14	18	10	53	889	178.0	-139391.0	-11919.0	144996.0
14	18	10	53	890	179.0	-146529.0	-11933.0	145073.0
14	18	10	53	890	180.0	-152895.0	-11931.0	144803.0
14	18	10	53	891	181.0	-158837.0	-11957.0	144957.0
14	18	10	53	892	182.0	-164164.0	-11972.0	145204.0
14	18	10	53	892	183.0	-167918.0	-11976.0	145959.0
14	18	10	53	893	184.0	-172143.0	-11986.0	146038.0
14	18	10	53	893	185.0	-178064.0	-11991.0	146704.0
14	18	10	53	894	188.0	-201489.0	-12027.0	146833.0
14	18	10	53	894	189.0	-208669.0	-12047.0	145549.0
14	18	10	53	902	190.0	-220582.0	-12075.0	145138.0
14	18	10	53	903	191.0	-227814.0	-12082.0	145478.0
14	18	10	53	903	192.0	-232014.0	-12093.0	146181.0
14	18	10	53	904	193.0	-234047.0	-12096.0	147263.0
14	18	10	53	904	194.0	-235657.0	-12103.0	149313.0
14	18	10	53	905	195.0	-236864.0	-12126.0	150832.0
14	18	10	53	906	210.0	-321982.0	-12426.0	143006.0
14	18	10	53	906	211.0	-308868.0	-12457.0	143971.0
14	18	10	53	907	212.0	-288927.0	-12474.0	144038.0
14	18	10	53	907	213.0	-266412.0	-12470.0	144048.0
14	18	10	53	908	214.0	-242824.0	-12502.0	143013.0
14	18	10	53	908	215.0	-220944.0	-12546.0	141849.0
14	18	10	53	909	216.0	-202467.0	-12577.0	141922.0
14	18	10	53	935	217.0	-188320.0	-12607.0	142323.0
14	18	10	53	935	218.0	-177829.0	-12611.0	141845.0
14	18	10	53	936	219.0	-168821.0	-12644.0	142126.0
14	18	10	53	937	220.0	-163816.0	-12671.0	142097.0
14	18	10	53	937	221.0	-166092.0	-12701.0	141853.0
14	18	10	53	938	222.0	-174582.0	-12712.0	141664.0
14	18	10	53	938	223.0	-184841.0	-12747.0	141403.0
14	18	10	53	939	224.0	-194389.0	-12771.0	141392.0
14	18	10	53	940	225.0	-202264.0	-12784.0	141419.0
14	18	10	53	940	226.0	-205920.0	-12824.0	141435.0
14	18	10	53	941	227.0	-203736.0	-12859.0	141174.0
14	18	10	53	941	228.0	-199701.0	-12872.0	140656.0
14	18	10	53	942	229.0	-199186.0	-12891.0	140008.0
14	18	10	53	943	230.0	-200181.0	-12934.0	139628.0
14	18	10	53	943	231.0	-203342.0	-12952.0	139469.0
14	18	10	53	944	232.0	-207062.0	-12969.0	139746.0
14	18	10	53	945	233.0	-212911.0	-12997.0	139438.0
14	18	10	53	946	234.0	-222814.0	-13015.0	138948.0
14	18	10	53	946	235.0	-235104.0	-13027.0	139139.0
14	18	10	53	947	236.0	-247977.0	-13049.0	138787.0
14	18	10	53	948	237.0	-259379.0	-13087.0	137911.0
14	18	10	53	948	238.0	-267737.0	-13121.0	136727.0
14	18	10	53	978	239.0	-272612.0	-13149.0	132070.0
14	18	10	53	979	240.0	-275662.0	-13173.0	127761.0
14	18	10	53	980	241.0	-278136.0	-13197.0	126734.0
14	18	10	53	981	242.0	-279062.0	-13229.0	126066.0
14	18	10	53	981	243.0	-279673.0	-13250.0	124746.0
14	18	10	53	982	244.0	-281576.0	-13271.0	123957.0
14	18	10	53	982	245.0	-282166.0	-13287.0	123650.0
14	18	10	53	983	246.0	-279879.0	-13314.0	123282.0
14	18	10	53	984	247.0	-276790.0	-13336.0	124148.0
14	18	10	53	984	248.0	-275924.0	-13374.0	122146.0
14	18	10	53	985	249.0	-278047.0	-13397.0	120629.0
14	18	10	53	985	250.0	-279752.0	-13410.0	119242.0
14	18	10	54	24	251.0	-277943.0	-13428.0	115879.0
14	18	10	54	24	252.0	-270476.0	-13455.0	113325.0
14	18	10	54	25	253.0	-257365.0	-13474.0	108781.0
14	18	10	54	26	255.0	-220082.0	-13503.0	109091.0
14	18	10	54	49	0.0	-199786.0	-13526.0	108504.0
14	18	10	54	49	1.0	-180827.0	-13552.0	108279.0
14	18	10	54	50	2.0	-162114.0	-13571.0	111728.0
14	18	10	54	51	3.0	-143172.0	-13587.0	113988.0
14	18	10	54	51	4.0	-124695.0	-13607.0	113911.0
14	18	10	54	52	5.0	-107791.0	-13641.0	113208.0
14	18	10	54	52	6.0	-93086.0	-13644.0	112052.0
14	18	10	54	53	7.0	-81323.0	-13666.0	112259.0
14	18	10	54	54	8.0	-72391.0	-13688.0	118190.0
14	18	10	54	54	9.0	-67266.0	-13696.0	122829.0
14	18	10	54	55	10.0	-66228.0	-13717.0	123809.0
14	18	10	54	55	11.0	-68136.0	-13744.0	123704.0
14	18	10	54	56	22.0	-114884.0	-13889.0	122126.0
14	18	10	54	56	23.0	-115862.0	-13898.0	121981.0
14	18	10	54	57	24.0	-117572.0	-13931.0	120043.0
14	18	10	54	73	25.0	-119448.0	-13935.0	118425.0
14	18	10	54	74	26.0	-121474.0	-13947.0	117830.0
14	18	10	54	75	27.0	-124616.0	-13967.0	117013.0
14	18	10	54	76	28.0	-128812.0	-13964.0	116222.0
14	18	10	54	76	29.0	-132777.0	-13979.0	114991.0
14	18	10	54	77	30.0	-136797.0	-14016.0	114803.0
14	18	10	54	78	31.0	-141086.0	-14006.0	114725.0
14	18	10	54	78	32.0	-145094.0	-14014.0	114543.0
14	18	10	54	79	33.0	-148440.0	-14029.0	113943.0
14	18	10	54	80	34.0	-150951.0	-14032.0	113786.0
14	18	10	54	80	35.0	-152692.0	-14041.0	113439.0
14	18	10	54	81	36.0	-154703.0	-14049.0	112628.0
14	18	10	54	81	37.0	-157740.0	-14054.0	111479.0
14	18	10	54	82	38.0	-162336.0	-14054.0	110891.0
14	18	10	54	83	39.0	-168267.0	-14071.0	110417.0
14	18	10	54	83	40.0	-174584.0	-14076.0	109967.0
14	18	10	54	84	44.0	-194922.0	-14085.0	115178.0
14	18	10	54	85	45.0	-198402.0	-14102.0	116453.0
14	18	10	54	85	46.0	-202104.0	-14113.0	117011.0
14	18	10	54	86	47.0	-205899.0	-14139.0	117112.0
14	18	10	54	87	48.0	-208671.0	-14147.0	117268.0
14	18	10	54	87	49.0	-210537.0	-14162.0	117388.0
14	18	10	54	115	50.0	-211626.0	-14142.0	117859.0
14	18	10	54	116	51.0	-211873.0	-14152.0	118473.0
14	18	10	54	116	52.0	-210994.0	-14156.0	119104.0
14	18	10	54	117	53.0	-209044.0	-14166.0	119209.0
14	18	10	54	118	54.0	-206355.0	-14174.0	118189.0
14	18	10	54	119	55.0	-203417.0	-14175.0	117615.0
14	18	10	54	119	56.0	-200052.0	-14192.0	118409.0
14	18	10	54	120	57.0	-196107.0	-14207.0	118346.0
14	18	10	54	121	58.0	-191876.0	-14206.0	118434.0
14	18	10	54	121	59.0	-188049.0	-14199.0	118345.0
14	18	10	54	122	60.0	-184598.0	-14210.0	117503.0
14	18	10	54	123	61.0	-181564.0	-14217.0	117893.0
14	18	10	54	123	62.0	-179133.0	-14214.0	119339.0
14	18	10	54	124	63.0	-177438.0	-14219.0	118219.0
14	18	10	54	125	64.0	-176789.0	-14207.0	115968.0
14	18	10	54	125	66.0	-178227.0	-14217.0	114278.0
14	18	10	54	126	67.0	-179769.0	-14227.0	114499.0
14	18	10	54	126	68.0	-181903.0	-14246.0	115945.0
14	18	10	54	127	69.0	-183979.0	-14248.0	116696.0
14	18	10	54	128	70.0	-186064.0	-14241.0	116347.0
14	18	10	54	128	71.0	-188361.0	-14248.0	116567.0
14	18	10	54	158	72.0	-190945.0	-14232.0	116755.0
14	18	10	54	159	73.0	-193560.0	-14239.0	117696.0
14	18	10	54	160	74.0	-195927.0	-14252.0	117555.0
14	18	10	54	160	75.0	-197932.0	-14254.0	116917.0
14	18	10	54	161	76.0	-199834.0	-14251.0	116321.0
14	18	10	54	162	77.0	-201408.0	-14246.0	115516.0
14	18	10	54	162	78.0	-202256.0	-14239.0	115532.0
14	18	10	54	205	79.0	-202747.0	-14254.0	115456.0
14	18	10	54	205	80.0	-203324.0	-14241.0	114776.0
14	18	10	54	207	81.0	-204006.0	-14229.0	114252.0
14	18	10	54	208	82.0	-204721.0	-14219.0	114011.0
14	18	10	54	208	83.0	-205945.0	-14209.0	113009.0
14	18	10	54	209	84.0	-207321.0	-14198.0	112186.0
14	18	10	54	210	85.0	-207996.0	-14208.0	111616.0
14	18	10	54	210	86.0	-207792.0	-14213.0	110978.0
14	18	10	54	211	89.0	-202411.0	-14197.0	109992.0
14	18	10	54	212	90.0	-199832.0	-14185.0	110034.0
14	18	10	54	213	91.0	-196671.0	-14177.0	109483.0
14	18	10	54	214	92.0	-192654.0	-14175.0	109262.0
14	18	10	54	215	93.0	-187818.0	-14171.0	109629.0
14	18	10	54	216	94.0	-182843.0	-14151.0	109716.0
14	18	10	54	216	95.0	-177515.0	-14140.0	109905.0
14	18	10	54	217	96.0	-171859.0	-14150.0	110213.0
14	18	10	54	217	111.0	-245004.0	-13964.0	95379.0
14	18	10	54	218	112.0	-240829.0	-13944.0	95357.0
14	18	10	54	219	113.0	-238736.0	-13921.0	94662.0
14	18	10	54	219	114.0	-242670.0	-13900.0	94419.0
14	18	10	54	220	115.0	-249451.0	-13887.0	93996.0
14	18	10	54	220	116.0	-254889.0	-13865.0	93492.0
14	18	10	54	221	117.0	-257148.0	-13861.0	93283.0
14	18	10	54	249	118.0	-255221.0	-13855.0	93072.0
14	18	10	54	250	119.0	-249687.0	-13833.0	93255.0
14	18	10	54	251	120.0	-241788.0	-13821.0	92916.0
14	18	10	54	252	121.0	-230566.0	-13807.0	92373.0
14	18	10	54	252	122.0	-217646.0	-13787.0	91904.0
14	18	10	54	253	123.0	-204141.0	-13791.0	91667.0
14	18	10	54	254	124.0	-192079.0	-13774.0	91966.0
14	18	10	54	254	125.0	-182539.0	-13744.0	96613.0
14	18	10	54	255	126.0	-175848.0	-13738.0	98956.0
14	18	10	54	256	127.0	-172406.0	-13720.0	100281.0
14	18	10	54	256	128.0	-170884.0	-13700.0	101311.0
14	18	10	54	257	129.0	-170874.0	-13684.0	102236.0
14	18	10	54	257	130.0	-172598.0	-13662.0	101864.0
14	18	10	54	258	131.0	-176204.0	-13637.0	100453.0
14	18	10	54	259	132.0	-181082.0	-13617.0	100391.0
14	18	10	54	259	133.0	-185988.0	-13616.0	100611.0
14	18	10	54	260	134.0	-190703.0	-13612.0	100685.0
14	18	10	54	261	135.0	-195229.0	-13610.0	100679.0
14	18	10	54	261	136.0	-199174.0	-13587.0	99551.0
14	18	10	54	262	137.0	-201354.0	-13569.0	97071.0
14	18	10	54	262	138.0	-203170.0	-13546.0	92857.0
14	18	10	54	263	139.0	-204762.0	-13544.0	90661.0
14	18	10	54	294	140.0	-205665.0	-13529.0	88957.0
14	18	10	54	295	141.0	-206564.0	-13511.0	88398.0
14	18	10	54	296	142.0	-206927.0	-13500.0	88247.0
14	18	10	54	296	143.0	-206476.0	-13487.0	87801.0
14	18	10	54	297	144.0	-205642.0	-13467.0	87424.0
14	18	10	54	298	145.0	-204042.0	-13445.0	87219.0
14	18	10	54	299	146.0	-202058.0	-13457.0	86883.0
14	18	10	54	299	147.0	-199389.0	-13441.0	85914.0
14	18	10	54	300	148.0	-196577.0	-13416.0	85692.0
14	18	10	54	301	149.0	-194400.0	-13413.0	85206.0
14	18	10	54	301	150.0	-193407.0	-13392.0	84861.0
14	18	10	54	302	151.0	-193146.0	-13390.0	84707.0
14	18	10	54	303	152.0	-193568.0	-13385.0	84015.0
14	18	10	54	303	153.0	-194732.0	-13379.0	82308.0
14	18	10	54	304	154.0	-196537.0	-13360.0	81276.0
14	18	10	54	305	156.0	-202411.0	-13333.0	78845.0
14	18	10	54	305	157.0	-206017.0	-13326.0	75284.0
14	18	10	54	306	158.0	-209693.0	-13308.0	68963.0
14	18	10	54	306	159.0	-213609.0	-13286.0	67033.0
14	18	10	54	307	160.0	-218197.0	-13282.0	65607.0
14	18	10	54	308	161.0	-223665.0	-13289.0	64313.0
14	18	10	54	339	162.0	-229754.0	-13267.0	63711.0
14	18	10	54	340	163.0	-236531.0	-13244.0	62925.0
14	18	10	54	341	164.0	-243642.0	-13232.0	61919.0
14	18	10	54	342	165.0	-250241.0	-13217.0	61348.0
14	18	10	54	342	166.0	-256579.0	-13217.0	60702.0
14	18	10	54	343	167.0	-262641.0	-13214.0	59809.0
14	18	10	54	344	168.0	-268041.0	-13202.0	59796.0
14	18	10	54	344	169.0	-272287.0	-13186.0	59259.0
14	18	10	54	385	170.0	-275204.0	-13198.0	58683.0
14	18	10	54	386	171.0	-277306.0	-13190.0	58508.0
14	18	10	54	386	172.0	-278789.0	-13192.0	58159.0
14	18	10	54	387	173.0	-279408.0	-13176.0	57286.0
14	18	10	54	388	174.0	-279054.0	-13164.0	56837.0
14	18	10	54	389	175.0	-277879.0	-13134.0	57202.0
14	18	10	54	389	176.0	-275296.0	-13119.0	56447.0
14	18	10	54	390	178.0	-269012.0	-13109.0	55821.0
14	18	10	54	391	179.0	-266066.0	-13099.0	55472.0
14	18	10	54	392	180.0	-262513.0	-13082.0	54676.0
14	18	10	54	392	181.0	-258499.0	-13052.0	54559.0
14	18	10	54	393	182.0	-254691.0	-13058.0	54586.0
14	18	10	54	393	183.0	-251672.0	-13055.0	54361.0
14	18	10	54	394	184.0	-248794.0	-13034.0	54450.0
14	18	10	54	395	185.0	-245924.0	-13016.0	54810.0
14	18	10	54	395	186.0	-242896.0	-13006.0	54316.0
14	18	10	54	396	201.0	-210767.0	-12842.0	64835.0
14	18	10	54	397	202.0	-212236.0	-12836.0	65831.0
14	18	10	54	397	203.0	-214019.0	-12829.0	66412.0
14	18	10	54	398	204.0	-216457.0	-12804.0	66603.0
14	18	10	54	398	205.0	-218738.0	-12794.0	66408.0
14	18	10	54	399	206.0	-220322.0	-12787.0	66642.0
14	18	10	54	429	207.0	-221261.0	-12774.0	66911.0
14	18	10	54	430	208.0	-222187.0	-12753.0	67342.0
14	18	10	54	431	209.0	-224002.0	-12748.0	67681.0
14	18	10	54	432	210.0	-226041.0	-12742.0	67363.0
14	18	10	54	432	211.0	-228080.0	-12720.0	66727.0
14	18	10	54	433	212.0	-229811.0	-12719.0	66796.0
14	18	10	54	434	213.0	-231246.0	-12712.0	67617.0
14	18	10	54	434	214.0	-232331.0	-12696.0	69267.0
14	18	10	54	435	215.0	-233192.0	-12671.0	69996.0
14	18	10	54	436	216.0	-233734.0	-12655.0	70630.0
14	18	10	54	437	217.0	-233659.0	-12651.0	77712.0
14	18	10	54	437	218.0	-232547.0	-12654.0	82206.0
14	18	10	54	438	219.0	-230274.0	-12646.0	83039.0
14	18	10	54	439	220.0	-227322.0	-12623.0	83228.0
14	18	10	54	439	221.0	-224044.0	-12608.0	83560.0
14	18	10	54	440	223.0	-216618.0	-12605.0	83808.0
14	18	10	54	441	224.0	-212159.0	-12579.0	82576.0
14	18	10	54	441	225.0	-207271.0	-12566.0	82921.0
14	18	10	54	442	226.0	-202589.0	-12549.0	82644.0
14	18	10	54	442	227.0	-198377.0	-12531.0	82929.0
14	18	10	54	443	228.0	-194937.0	-12536.0	83431.0
14	18	10	54	444	229.0	-192099.0	-12534.0	83191.0
14	18	10	54	474	230.0	-189289.0	-12511.0	83060.0
14	18	10	54	475	231.0	-186339.0	-12497.0	82909.0
14	18	10	54	476	232.0	-183515.0	-12497.0	83319.0
14	18	10	54	476	233.0	-180006.0	-12491.0	83103.0
14	18	10	54	477	234.0	-175452.0	-12467.0	82846.0
14	18	10	54	478	235.0	-170863.0	-12474.0	82215.0
14	18	10	54	478	236.0	-166238.0	-12460.0	82061.0
14	18	10	54	479	237.0	-161484.0	-12441.0	81167.0
14	18	10	54	480	238.0	-157203.0	-12429.0	80639.0
14	18	10	54	481	239.0	-153474.0	-12446.0	79990.0
14	18	10	54	481	240.0	-150791.0	-12441.0	79538.0
14	18	10	54	482	241.0	-149209.0	-12414.0	79149.0
14	18	10	54	483	242.0	-148790.0	-12407.0	79308.0
14	18	10	54	484	243.0	-149611.0	-12403.0	79219.0
14	18	10	54	484	244.0	-151118.0	-12414.0	78975.0
14	18	10	54	485	246.0	-157633.0	-12391.0	79477.0
14	18	10	54	486	247.0	-161558.0	-12397.0	79666.0
14	18	10	54	487	248.0	-165456.0	-12375.0	79734.0
14	18	10	54	487	249.0	-169689.0	-12379.0	79630.0
14	18	10	54	488	250.0	-174774.0	-12361.0	79318.0
14	18	10	54	489	251.0	-180394.0	-12368.0	79370.0
14	18	10	54	519	252.0	-186635.0	-12372.0	79018.0
14	18	10	54	520	253.0	-193537.0	-12361.0	78397.0
14	18	10	54	521	254.0	-200674.0	-12358.0	78383.0
14	18	10	54	521	255.0	-208008.0	-12349.0	78790.0
14	18	10	54	522	0.0	-215399.0	-12356.0	78636.0
14	18	10	54	523	1.0	-222335.0	-12355.0	78618.0
14	18	10	54	524	2.0	-227867.0	-12342.0	79265.0
14	18	10	54	524	3.0	-232248.0	-12359.0	80508.0
14	18	10	54	525	4.0	-236047.0	-12364.0	80404.0
14	18	10	54	526	5.0	-239209.0	-12362.0	80289.0
14	18	10	54	526	6.0	-242054.0	-12351.0	80237.0
14	18	10	54	527	7.0	-244345.0	-12354.0	80291.0
14	18	10	54	528	8.0	-246192.0	-12345.0	80490.0
14	18	10	54	529	9.0	-247779.0	-12331.0	80811.0
14	18	10	54	529	10.0	-248762.0	-12342.0	80753.0
14	18	10	54	530	12.0	-248706.0	-12341.0	81447.0
14	18	10	54	531	13.0	-247558.0	-12341.0	81687.0
14	18	10	54	531	14.0	-245192.0	-12362.0	81803.0
14	18	10	54	532	15.0	-241436.0	-12362.0	82096.0
14	18	10	54	533	16.0	-236442.0	-12347.0	81794.0
14	18	10	54	533	17.0	-230322.0	-12345.0	82000.0
14	18	10	54	564	18.0	-223082.0	-12338.0	82503.0
14	18	10	54	565	19.0	-214975.0	-12337.0	82779.0
14	18	10	54	566	20.0	-206866.0	-12356.0	83013.0
14	18	10	54	567	21.0	-198668.0	-12352.0	82762.0
14	18	10	54	567	22.0	-190541.0	-12357.0	82636.0
14	18	10	54	568	23.0	-182378.0	-12368.0	82086.0
14	18	10	54	569	24.0	-174134.0	-12368.0	82259.0
14	18	10	54	609	25.0	-166203.0	-12361.0	83216.0
14	18	10	54	610	26.0	-158335.0	-12376.0	83995.0
14	18	10	54	610	27.0	-151031.0	-12381.0	84728.0
14	18	10	54	611	28.0	-144535.0	-12377.0	85184.0
14	18	10	54	612	29.0	-139020.0	-12365.0	83951.0
14	18	10	54	613	30.0	-134017.0	-12380.0	81309.0
14	18	10	54	613	31.0	-129381.0	-12382.0	80258.0
14	18	10	54	614	32.0	-125196.0	-12371.0	80278.0
14	18	10	54	615	34.0	-117930.0	-12386.0	80216.0
14	18	10	54	615	35.0	-115147.0	-12377.0	81954.0
14	18	10	54	616	36.0	-113649.0	-12367.0	83320.0
14	18	10	54	617	37.0	-113314.0	-12359.0	83234.0
14	18	10	54	617	38.0	-114601.0	-12359.0	81890.0
14	18	10	54	618	39.0	-118260.0	-12372.0	79434.0
14	18	10	54	619	40.0	-124763.0	-12370.0	78159.0
14	18	10	54	619	41.0	-134551.0	-12352.0	79463.0
14	18	10	54	620	57.0	-241088.0	-12293.0	72996.0
14	18	10	54	621	58.0	-222169.0	-12304.0	72579.0
14	18	10	54	621	59.0	-204336.0	-12311.0	72036.0
14	18	10	54	622	60.0	-185359.0	-12286.0	71801.0
14	18	10	54	623	61.0	-168066.0	-12284.0	72603.0
14	18	10	54	623	62.0	-158551.0	-12281.0	73861.0
14	18	10	54	624	63.0	-156389.0	-12260.0	73783.0
14	18	10	54	654	64.0	-158477.0	-12238.0	73624.0
14	18	10	54	655	65.0	-159834.0	-12212.0	74009.0
14	18	10	54	655	66.0	-158460.0	-12224.0	73731.0
14	18	10	54	656	67.0	-154877.0	-12220.0	73320.0
14	18	10	54	656	68.0	-149190.0	-12229.0	73654.0
14	18	10	54	657	69.0	-140932.0	-12215.0	74009.0
14	18	10	54	658	70.0	-130935.0	-12187.0	74014.0
14	18	10	54	658	71.0	-124132.0	-12184.0	74271.0
14	18	10	54	659	72.0	-127575.0	-12175.0	74578.0
14	18	10	54	659	73.0	-132183.0	-12162.0	74154.0
14	18	10	54	660	74.0	-135660.0	-12151.0	74258.0
14	18	10	54	660	75.0	-140646.0	-12135.0	74054.0
14	18	10	54	661	76.0	-152347.0	-12137.0	73869.0
14	18	10	54	662	77.0	-168321.0	-12121.0	73947.0
14	18	10	54	662	78.0	-183650.0	-12109.0	73848.0
14	18	10	54	663	79.0	-195722.0	-12099.0	73761.0
14	18	10	54	663	80.0	-204958.0	-12106.0	73847.0
14	18	10	54	664	81.0	-213083.0	-12071.0	73996.0
14	18	10	54	664	82.0	-221691.0	-12045.0	74165.0
14	18	10	54	665	83.0	-231259.0	-12066.0	74268.0
14	18	10	54	665	84.0	-241857.0	-12074.0	75736.0
14	18	10	54	666	85.0	-253634.0	-12053.0	76324.0
14	18	10	54	699	86.0	-265820.0	-12026.0	71950.0
14	18	10	54	700	87.0	-275280.0	-12002.0	64046.0
14	18	10	54	700	88.0	-280733.0	-12008.0	55305.0
14	18	10	54	701	89.0	-283582.0	-11992.0	53879.0
14	18	10	54	701	90.0	-285357.0	-11991.0	61215.0
14	18	10	54	702	91.0	-287787.0	-11982.0	75475.0
14	18	10	54	702	92.0	-290085.0	-11972.0	76061.0
14	18	10	54	703	93.0	-289397.0	-11983.0	74160.0
14	18	10	54	704	94.0	-282688.0	-11957.0	73944.0
14	18	10	54	704	95.0	-269112.0	-11938.0	73942.0
14	18	10	54	705	96.0	-251104.0	-11922.0	75351.0
14	18	10	54	705	97.0	-232042.0	-11917.0	76818.0
14	18	10	54	706	98.0	-213779.0	-11897.0	76811.0
14	18	10	54	706	99.0	-196746.0	-11893.0	76222.0
14	18	10	54	707	100.0	-179806.0	-11858.0	75954.0
14	18	10	54	707	102.0	-145361.0	-11834.0	77921.0
14	18	10	54	708	103.0	-128720.0	-11826.0	76824.0
14	18	10	54	709	104.0	-113862.0	-11819.0	75509.0
14	18	10	54	709	105.0	-100901.0	-11821.0	74663.0
14	18	10	54	710	106.0	-89601.0	-11812.0	74176.0
14	18	10	54	710	107.0	-80304.0	-11795.0	73764.0
14	18	10	54	744	108.0	-72958.0	-11781.0	72833.0
14	18	10	54	745	109.0	-67072.0	-11779.0	72623.0
14	18	10	54	745	110.0	-62639.0	-11763.0	72093.0
14	18	10	54	746	111.0	-59191.0	-11762.0	71388.0
14	18	10	54	746	112.0	-55332.0	-11752.0	71563.0
14	18	10	54	747	113.0	-51233.0	-11739.0	71223.0
14	18	10	54	748	114.0	-47990.0	-11749.0	70418.0
14	18	10	54	748	115.0	-45001.0	-11744.0	70539.0
14	18	10	54	749	116.0	-42434.0	-11724.0	70826.0
14	18	10	54	750	117.0	-41514.0	-11709.0	71278.0
14	18	10	54	751	118.0	-43807.0	-11698.0	72015.0
14	18	10	54	751	119.0	-50066.0	-11684.0	72693.0
14	18	10	54	752	120.0	-60027.0	-11672.0	73560.0
14	18	10	54	752	121.0	-73281.0	-11661.0	74760.0
14	18	10	54	753	122.0	-89134.0	-11652.0	76432.0
14	18	10	54	753	124.0	-123268.0	-11641.0	81566.0
14	18	10	54	789	125.0	-140377.0	-11628.0	81434.0
14	18	10	54	790	126.0	-157314.0	-11638.0	81543.0
14	18	10	54	790	127.0	-173604.0	-11611.0	81794.0
14	18	10	54	791	128.0	-189189.0	-11596.0	82094.0
14	18	10	54	791	129.0	-203950.0	-11594.0	81894.0
14	18	10	54	792	130.0	-217477.0	-11571.0	81827.0
14	18	10	54	793	131.0	-229159.0	-11571.0	81877.0
14	18	10	54	793	132.0	-238723.0	-11557.0	81870.0
14	18	10	54	794	133.0	-245876.0	-11544.0	81605.0
14	18	10	54	794	134.0	-250685.0	-11544.0	81777.0
14	18	10	54	795	135.0	-253540.0	-11527.0	81443.0
14	18	10	54	795	136.0	-254563.0	-11517.0	81472.0
14	18	10	54	796	137.0	-253616.0	-11517.0	81680.0
14	18	10	54	797	138.0	-250948.0	-11502.0	81653.0
14	18	10	54	797	139.0	-246492.0	-11504.0	81129.0
14	18	10	54	798	147.0	-184622.0	-11442.0	79844.0
14	18	10	54	798	148.0	-175657.0	-11422.0	79928.0
14	18	10	54	799	149.0	-166894.0	-11409.0	80307.0
14	18	10	54	799	150.0	-158476.0	-11392.0	79637.0
14	18	10	54	800	151.0	-150676.0	-11395.0	79209.0
14	18	10	54	800	152.0	-143661.0	-11411.0	79110.0
14	18	10	54	834	153.0	-137791.0	-11406.0	78292.0
14	18	10	54	835	154.0	-133136.0	-11396.0	77561.0
14	18	10	54	836	155.0	-129473.0	-11385.0	76601.0
14	18	10	54	836	156.0	-127447.0	-11378.0	76284.0
14	18	10	54	837	157.0	-126401.0	-11350.0	76553.0
14	18	10	54	837	158.0	-127023.0	-11355.0	76484.0
14	18	10	54	838	159.0	-130052.0	-11359.0	76360.0
14	18	10	54	838	160.0	-135048.0	-11357.0	77501.0
14	18	10	54	839	161.0	-141619.0	-11352.0	79044.0
14	18	10	54	840	162.0	-149519.0	-11326.0	79585.0
14	18	10	54	840	163.0	-157764.0	-11334.0	79486.0
14	18	10	54	841	164.0	-166590.0	-11345.0	74201.0
14	18	10	54	841	165.0	-175134.0	-11326.0	66513.0
14	18	10	54	842	166.0	-182647.0	-11314.0	63279.0
14	18	10	54	842	167.0	-189357.0	-11294.0	61616.0
14	18	10	54	843	169.0	-200225.0	-11307.0	59812.0
14	18	10	54	843	170.0	-204746.0	-11299.0	59889.0
14	18	10	54	844	171.0	-209142.0	-11287.0	59761.0
14	18	10	54	845	172.0	-213166.0	-11278.0	60511.0
14	18	10	54	845	173.0	-216289.0	-11280.0	58633.0
14	18	10	54	846	174.0	-218815.0	-11274.0	55102.0
14	18	10	54	878	175.0	-220771.0	-11276.0	52963.0
14	18	10	54	879	176.0	-222831.0	-11253.0	51629.0
14	18	10	54	880	177.0	-225381.0	-11253.0	50800.0
14	18	10	54	880	178.0	-228066.0	-11261.0	50689.0
14	18	10	54	881	179.0	-231026.0	-11257.0	50201.0
14	18	10	54	881	180.0	-233436.0	-11250.0	49386.0
14	18	10	54	882	181.0	-235096.0	-11249.0	48807.0
14	18	10	54	883	182.0	-235932.0	-11247.0	48596.0
14	18	10	54	883	183.0	-235918.0	-11229.0	48173.0
14	18	10	54	884	184.0	-235352.0	-11220.0	47726.0
14	18	10	54	884	185.0	-233957.0	-11211.0	46861.0
14	18	10	54	885	186.0	-231719.0	-11225.0	46548.0
14	18	10	54	885	187.0	-228307.0	-11233.0	46006.0
14	18	10	54	893	188.0	-223956.0	-11234.0	45636.0
14	18	10	54	894	189.0	-218292.0	-11213.0	45029.0
14	18	10	54	924	191.0	-202877.0	-11210.0	44765.0
14	18	10	54	925	192.0	-193782.0	-11215.0	44237.0
14	18	10	54	925	193.0	-183963.0	-11211.0	43819.0
14	18	10	54	926	194.0	-174012.0	-11190.0	43839.0
14	18	10	54	926	195.0	-164361.0	-11184.0	43975.0
14	18	10	54	927	196.0	-155356.0	-11195.0	44249.0
14	18	10	54	927	197.0	-147612.0	-11201.0	44811.0
14	18	10	54	928	198.0	-142256.0	-11184.0	44603.0
14	18	10	54	929	199.0	-139659.0	-11174.0	44488.0
14	18	10	54	929	200.0	-140172.0	-11160.0	45054.0
14	18	10	54	930	201.0	-144099.0	-11153.0	46424.0
14	18	10	54	930	202.0	-151359.0	-11159.0	47928.0
14	18	10	54	931	203.0	-161392.0	-11166.0	48654.0
14	18	10	54	932	204.0	-174682.0	-11151.0	47511.0
14	18	10	54	932	205.0	-191611.0	-11139.0	45768.0
14	18	10	54	933	214.0	-265539.0	-11102.0	48824.0
14	18	10	54	933	215.0	-260793.0	-11137.0	49116.0
14	18	10	54	934	216.0	-253144.0	-11137.0	49156.0
14	18	10	54	935	217.0	-242591.0	-11109.0	48854.0
14	18	10	54	935	218.0	-229432.0	-11121.0	47653.0
14	18	10	54	936	219.0	-212986.0	-11126.0	45575.0
14	18	10	54	969	220.0	-194479.0	-11109.0	42493.0
14	18	10	54	970	221.0	-175682.0	-11097.0	39781.0
14	18	10	54	970	222.0	-159517.0	-11111.0	37495.0
14	18	10	54	971	223.0	-147599.0	-11121.0	34989.0
14	18	10	54	971	224.0	-140586.0	-11107.0	33498.0
14	18	10	54	972	225.0	-137398.0	-11112.0	32595.0
14	18	10	54	972	226.0	-136459.0	-11105.0	32020.0
14	18	10	55	15	227.0	-137227.0	-11116.0	31399.0
14	18	10	55	16	228.0	-139537.0	-11114.0	31688.0
14	18	10	55	16	229.0	-142604.0	-11104.0	31588.0
14	18	10	55	17	230.0	-146354.0	-11092.0	31035.0
14	18	10	55	17	231.0	-150600.0	-11087.0	30789.0
14	18	10	55	18	232.0	-155437.0	-11095.0	30226.0
14	18	10	55	19	233.0	-161060.0	-11093.0	30300.0
14	18	10	55	19	234.0	-167449.0	-11094.0	30435.0
14	18	10	55	20	236.0	-183124.0	-11097.0	29916.0
14	18	10	55	20	237.0	-191924.0	-11094.0	29918.0
14	18	10	55	21	238.0	-200847.0	-11073.0	30121.0
14	18	10	55	21	239.0	-208890.0	-11067.0	29832.0
14	18	10	55	22	240.0	-216099.0	-11068.0	29955.0
14	18	10	55	23	241.0	-222355.0	-11073.0	30184.0
14	18	10	55	23	242.0	-228161.0	-11069.0	30256.0
14	18	10	55	24	243.0	-233137.0	-11088.0	30356.0
14	18	10	55	24	3.0	-233575.0	-11026.0	27863.0
14	18	10	55	25	4.0	-229574.0	-11037.0	27678.0
14	18	10	55	25	5.0	-225077.0	-11041.0	27761.0
14	18	10	55	26	6.0	-220578.0	-11042.0	27849.0
14	18	10	55	27	7.0	-216302.0	-11031.0	27749.0
14	18	10	55	27	8.0	-212295.0	-11046.0	28157.0
14	18	10	55	59	9.0	-208896.0	-11044.0	28095.0
14	18	10	55	59	10.0	-205547.0	-11044.0	27654.0
14	18	10	55	60	11.0	-201923.0	-11036.0	27949.0
14	18	10	55	61	12.0	-198179.0	-11045.0	29535.0
14	18	10	55	61	13.0	-194656.0	-11032.0	29882.0
14	18	10	55	62	14.0	-191349.0	-11031.0	30184.0
14	18	10	55	62	15.0	-188131.0	-11025.0	30309.0
14	18	10	55	63	16.0	-185546.0	-11018.0	29915.0
14	18	10	55	104	17.0	-183988.0	-11042.0	30113.0
14	18	10	55	104	18.0	-182964.0	-11042.0	30793.0
14	18	10	55	125	19.0	-183404.0	-11034.0	30738.0
14	18	10	55	126	20.0	-185906.0	-11045.0	30298.0
14	18	10	55	126	21.0	-190825.0	-11035.0	30352.0
14	18	10	55	127	22.0	-197221.0	-11019.0	30568.0
14	18	10	55	128	23.0	-204386.0	-11006.0	30336.0
14	18	10	55	128	25.0	-218221.0	-11006.0	30666.0
14	18	10	55	129	26.0	-224959.0	-11022.0	30909.0
14	18	10	55	129	27.0	-231119.0	-11008.0	30369.0
14	18	10	55	130	28.0	-236343.0	-10995.0	30714.0
14	18	10	55	130	29.0	-240904.0	-11011.0	31314.0
14	18	10	55	131	30.0	-245111.0	-11019.0	31492.0
14	18	10	55	131	31.0	-249320.0	-11010.0	31236.0
14	18	10	55	132	32.0	-253546.0	-11026.0	31069.0
14	18	10	55	132	48.0	-241869.0	-11019.0	29148.0
14	18	10	55	133	49.0	-236143.0	-11024.0	29224.0
14	18	10	55	133	50.0	-229898.0	-11027.0	29328.0
14	18	10	55	134	51.0	-222991.0	-11026.0	29565.0
14	18	10	55	135	52.0	-215768.0	-11006.0	29471.0
14	18	10	55	135	53.0	-208466.0	-11006.0	29314.0
14	18	10	55	149	54.0	-200896.0	-11022.0	30844.0
14	18	10	55	150	55.0	-193432.0	-11004.0	32434.0
14	18	10	55	150	56.0	-186358.0	-10993.0	32644.0
14	18	10	55	151	57.0	-179389.0	-11002.0	32828.0
14	18	10	55	152	58.0	-172436.0	-11009.0	33647.0
14	18	10	55	152	59.0	-165460.0	-11014.0	33719.0
14	18	10	55	153	60.0	-159057.0	-11014.0	33407.0
14	18	10	55	153	61.0	-153946.0	-11004.0	32815.0
14	18	10	55	154	62.0	-149734.0	-11003.0	32861.0
14	18	10	55	155	63.0	-146286.0	-10999.0	32723.0
14	18	10	55	155	64.0	-144165.0	-10988.0	32548.0
14	18	10	55	156	65.0	-143486.0	-10969.0	32751.0
14	18	10	55	156	66.0	-143895.0	-10981.0	33123.0
14	18	10	55	157	67.0	-145406.0	-10976.0	33143.0
14	18	10	55	158	68.0	-148192.0	-10979.0	32749.0
14	18	10	55	158	70.0	-155318.0	-10986.0	32359.0
14	18	10	55	159	71.0	-160029.0	-10992.0	32354.0
14	18	10	55	159	72.0	-165657.0	-10980.0	32631.0
14	18	10	55	160	73.0	-171968.0	-10964.0	33298.0
14	18	10	55	161	74.0	-178769.0	-10964.0	33457.0
14	18	10	55	161	75.0	-185943.0	-10974.0	32912.0
14	18	10	55	194	76.0	-193436.0	-10970.0	32993.0
14	18	10	55	195	77.0	-200654.0	-10961.0	32951.0
14	18	10	55	195	78.0	-207627.0	-10959.0	32737.0
14	18	10	55	196	79.0	-214561.0	-10970.0	32558.0
14	18	10	55	196	80.0	-220926.0	-10967.0	32921.0
14	18	10	55	197	81.0	-226607.0	-10971.0	32869.0
14	18	10	55	198	82.0	-231787.0	-10976.0	32575.0
14	18	10	55	198	83.0	-236179.0	-10969.0	32307.0
14	18	10	55	199	84.0	-240302.0	-10982.0	32323.0
14	18	10	55	200	85.0	-244179.0	-10971.0	31904.0
14	18	10	55	200	86.0	-247882.0	-10951.0	31502.0
14	18	10	55	201	87.0	-251284.0	-10958.0	31152.0
14	18	10	55	201	88.0	-253634.0	-10952.0	31217.0
14	18	10	55	202	89.0	-254759.0	-10964.0	30698.0
14	18	10	55	202	90.0	-254400.0	-10978.0	30438.0
14	18	10	55	203	92.0	-250704.0	-10970.0	30399.0
14	18	10	55	204	93.0	-247297.0	-10954.0	29711.0
14	18	10	55	205	94.0	-243245.0	-10942.0	29367.0
14	18	10	55	206	95.0	-239205.0	-10933.0	29205.0
14	18	10	55	207	96.0	-234852.0	-10940.0	28752.0
14	18	10	55	207	97.0	-230629.0	-10925.0	28088.0
14	18	10	55	208	98.0	-226585.0	-10924.0	27157.0
14	18	10	55	239	99.0	-222351.0	-10932.0	26924.0
14	18	10	55	239	100.0	-218103.0	-10929.0	26921.0
14	18	10	55	240	101.0	-213788.0	-10921.0	27209.0
14	18	10	55	241	102.0	-209802.0	-10920.0	27001.0
14	18	10	55	241	103.0	-205399.0	-10927.0	26568.0
14	18	10	55	242	104.0	-200627.0	-10917.0	26546.0
14	18	10	55	242	105.0	-195631.0	-10896.0	26794.0
14	18	10	55	243	106.0	-190921.0	-10901.0	26504.0
14	18	10	55	284	107.0	-186467.0	-10898.0	25966.0
14	18	10	55	285	108.0	-182265.0	-10906.0	25555.0
14	18	10	55	286	109.0	-178489.0	-10901.0	25533.0
14	18	10	55	286	110.0	-175264.0	-10902.0	25114.0
14	18	10	55	287	111.0	-172059.0	-10905.0	25100.0
14	18	10	55	287	112.0	-169011.0	-10902.0	25029.0
14	18	10	55	288	113.0	-166484.0	-10892.0	24784.0
14	18	10	55	289	115.0	-163352.0	-10876.0	25544.0
14	18	10	55	289	116.0	-162581.0	-10869.0	26111.0
14	18	10	55	290	117.0	-162133.0	-10874.0	27125.0
14	18	10	55	290	118.0	-162209.0	-10896.0	27874.0
14	18	10	55	291	119.0	-162639.0	-10878.0	28388.0
14	18	10	55	330	120.0	-162874.0	-10878.0	28460.0
14	18	10	55	375	121.0	-163328.0	-10889.0	27621.0
14	18	10	55	375	137.0	-278734.0	-10895.0	13649.0
14	18	10	55	376	138.0	-296284.0	-10892.0	19848.0
14	18	10	55	377	139.0	-313125.0	-10871.0	20386.0
14	18	10	55	377	140.0	-329201.0	-10878.0	15428.0
14	18	10	55	378	141.0	-340657.0	-10883.0	15644.0
14	18	10	55	378	142.0	-343064.0	-10878.0	19323.0
14	18	10	55	420	143.0	-335570.0	-10879.0	21227.0
14	18	10	55	421	144.0	-319124.0	-10877.0	22454.0
14	18	10	55	421	145.0	-296625.0	-10886.0	22983.0
14	18	10	55	422	146.0	-270949.0	-10892.0	23129.0
14	18	10	55	422	147.0	-245459.0	-10897.0	22954.0
14	18	10	55	423	148.0	-221491.0	-10879.0	22610.0
14	18	10	55	424	149.0	-199123.0	-10879.0	21975.0
14	18	10	55	424	160.0	-135437.0	-10860.0	21098.0
14	18	10	55	425	182.0	-229994.0	-10812.0	48613.0
14	18	10	55	425	183.0	-227242.0	-10812.0	48277.0
14	18	10	55	426	184.0	-222477.0	-10796.0	46974.0
14	18	10	55	427	185.0	-214719.0	-10801.0	45401.0
14	18	10	55	427	186.0	-203668.0	-10787.0	42008.0
14	18	10	55	428	187.0	-189820.0	-10802.0	38979.0
14	18	10	55	428	188.0	-174781.0	-10787.0	39014.0
14	18	10	55	429	189.0	-160455.0	-10784.0	39773.0
14	18	10	55	430	205.0	-152439.0	-10786.0	46043.0
14	18	10	55	430	206.0	-161182.0	-10799.0	45775.0
14	18	10	55	431	207.0	-169085.0	-10797.0	45928.0
14	18	10	55	431	208.0	-176306.0	-10795.0	46286.0
14	18	10	55	432	209.0	-182722.0	-10806.0	46193.0
14	18	10	55	432	210.0	-187886.0	-10818.0	45976.0
14	18	10	55	464	211.0	-191936.0	-10817.0	46171.0
14	18	10	55	465	212.0	-195107.0	-10813.0	46741.0
14	18	10	55	465	213.0	-197008.0	-10817.0	46735.0
14	18	10	55	466	214.0	-197748.0	-10829.0	46869.0
14	18	10	55	466	215.0	-197794.0	-10824.0	46858.0
14	18	10	55	467	216.0	-197170.0	-10811.0	46926.0
14	18	10	55	468	217.0	-196197.0	-10816.0	47333.0
14	18	10	55	468	218.0	-195729.0	-10827.0	47318.0
14	18	10	55	469	219.0	-195426.0	-10836.0	47163.0
14	18	10	55	469	220.0	-194484.0	-10837.0	47180.0
14	18	10	55	470	221.0	-193081.0	-10856.0	47003.0
14	18	10	55	510	222.0	-191254.0	-10854.0	47229.0
14	18	10	55	511	223.0	-188474.0	-10845.0	47857.0
14	18	10	55	512	224.0	-184848.0	-10827.0	49192.0
14	18	10	55	512	225.0	-180658.0	-10849.0	49801.0
14	18	10	55	513	227.0	-171880.0	-10844.0	50608.0
14	18	10	55	513	228.0	-166782.0	-10863.0	50520.0
14	18	10	55	514	229.0	-161529.0	-10862.0	50437.0
14	18	10	55	515	230.0	-155987.0	-10843.0	50557.0
14	18	10	55	515	231.0	-150384.0	-10846.0	50475.0
14	18	10	55	516	232.0	-145214.0	-10842.0	49375.0
14	18	10	55	516	233.0	-140972.0	-10855.0	48745.0
14	18	10	55	517	234.0	-137740.0	-10857.0	48392.0
14	18	10	55	518	235.0	-135464.0	-10850.0	48169.0
14	18	10	55	518	236.0	-133636.0	-10857.0	47849.0
14	18	10	55	519	237.0	-132172.0	-10869.0	47916.0
14	18	10	55	520	249.0	-183528.0	-10886.0	46108.0
14	18	10	55	520	250.0	-191652.0	-10894.0	45618.0
14	18	10	55	521	251.0	-199237.0	-10891.0	45102.0
14	18	10	55	521	252.0	-206043.0	-10896.0	44991.0
14	18	10	55	522	253.0	-212226.0	-10890.0	44786.0
14	18	10	55	522	254.0	-218497.0	-10875.0	44469.0
14	18	10	55	523	255.0	-225397.0	-10882.0	43455.0
14	18	10	55	554	0.0	-232599.0	-10891.0	43083.0
14	18	10	55	555	1.0	-239601.0	-10897.0	42885.0
14	18	10	55	556	2.0	-245279.0	-10906.0	41816.0
14	18	10	55	556	3.0	-249695.0	-10931.0	41529.0
14	18	10	55	557	4.0	-253368.0	-10941.0	41348.0
14	18	10	55	558	5.0	-256050.0	-10937.0	40583.0
14	18	10	55	558	6.0	-257896.0	-10955.0	39659.0
14	18	10	55	559	7.0	-258672.0	-10956.0	39044.0
14	18	10	55	599	8.0	-258562.0	-10948.0	38241.0
14	18	10	55	600	9.0	-257746.0	-10952.0	37556.0
14	18	10	55	600	10.0	-256554.0	-10955.0	37389.0
14	18	10	55	601	11.0	-254692.0	-10961.0	36964.0
14	18	10	55	602	12.0	-252326.0	-10959.0	36031.0
14	18	10	55	602	13.0	-249196.0	-10951.0	35399.0
14	18	10	55	603	14.0	-245294.0	-10947.0	35133.0
14	18	10	55	604	16.0	-235227.0	-10964.0	34153.0
14	18	10	55	605	17.0	-229044.0	-10966.0	34310.0
14	18	10	55	606	18.0	-221972.0	-10965.0	34184.0
14	18	10	55	607	19.0	-214424.0	-10941.0	33653.0
14	18	10	55	607	20.0	-207088.0	-10950.0	33195.0
14	18	10	55	608	21.0	-199777.0	-10957.0	32711.0
14	18	10	55	609	22.0	-192222.0	-10970.0	32015.0
14	18	10	55	610	23.0	-183900.0	-10957.0	31358.0
14	18	10	55	611	38.0	-138521.0	-10946.0	18252.0
14	18	10	55	612	39.0	-157330.0	-10932.0	15304.0
14	18	10	55	612	40.0	-179244.0	-10914.0	13737.0
14	18	10	55	613	41.0	-204301.0	-10932.0	9558.0
14	18	10	55	613	42.0	-231825.0	-10938.0	6786.0
14	18	10	55	614	43.0	-260783.0	-10924.0	5453.0
14	18	10	55	614	44.0	-283009.0	-10929.0	4363.0
14	18	10	55	644	45.0	-285607.0	-10915.0	3100.0
14	18	10	55	645	46.0	-281942.0	-10910.0	2634.0
14	18	10	55	646	47.0	-282574.0	-10903.0	2376.0
14	18	10	55	646	48.0	-288062.0	-10900.0	2304.0
14	18	10	55	647	49.0	-291389.0	-10902.0	1649.0
14	18	10	55	648	50.0	-289233.0	-10882.0	1235.0
14	18	10	55	648	51.0	-281211.0	-10877.0	1222.0
14	18	10	55	649	52.0	-269706.0	-10887.0	637.0
14	18	10	55	649	53.0	-256074.0	-10875.0	353.0
14	18	10	55	650	54.0	-240580.0	-10886.0	-64.0
14	18	10	55	651	55.0	-222353.0	-10879.0	-226.0
14	18	10	55	651	56.0	-202868.0	-10854.0	-242.0
14	18	10	55	652	57.0	-184442.0	-10852.0	-316.0
14	18	10	55	652	58.0	-169331.0	-10864.0	-993.0
14	18	10	55	653	59.0	-159102.0	-10861.0	-1651.0
14	18	10	55	654	61.0	-150248.0	-10854.0	-3026.0
14	18	10	55	655	62.0	-148902.0	-10852.0	-3666.0
14	18	10	55	655	63.0	-148648.0	-10848.0	-4051.0
14	18	10	55	656	64.0	-148804.0	-10842.0	-4665.0
14	18	10	55	657	65.0	-149301.0	-10844.0	-5055.0
14	18	10	55	657	66.0	-149874.0	-10846.0	-4717.0
14	18	10	55	705	67.0	-150556.0	-10846.0	-5063.0
14	18	10	55	720	68.0	-151501.0	-10831.0	-5702.0
14	18	10	55	721	69.0	-152861.0	-10820.0	-5882.0
14	18	10	55	722	70.0	-154631.0	-10842.0	-5499.0
14	18	10	55	722	71.0	-156713.0	-10834.0	-5564.0
14	18	10	55	723	72.0	-159590.0	-10833.0	-5964.0
14	18	10	55	724	73.0	-163631.0	-10830.0	-6086.0
14	18	10	55	724	74.0	-168041.0	-10821.0	-6246.0
14	18	10	55	725	75.0	-173064.0	-10812.0	-6585.0
14	18	10	55	725	76.0	-178616.0	-10816.0	-7017.0
14	18	10	55	726	77.0	-183907.0	-10803.0	-6937.0
14	18	10	55	726	78.0	-188632.0	-10804.0	-7583.0
14	18	10	55	727	79.0	-192786.0	-10792.0	-7312.0
14	18	10	55	728	80.0	-196209.0	-10782.0	-6781.0
14	18	10	55	744	81.0	-198827.0	-10781.0	-7038.0
14	18	10	55	745	91.0	-223635.0	-10719.0	-8552.0
14	18	10	55	746	98.0	-229143.0	-10689.0	-9319.0
14	18	10	55	746	99.0	-228849.0	-10690.0	-9239.0
14	18	10	55	747	100.0	-228117.0	-10681.0	-9503.0
14	18	10	55	748	101.0	-226797.0	-10688.0	-9661.0
14	18	10	55	748	102.0	-225236.0	-10697.0	-9886.0
14	18	10	55	749	103.0	-223424.0	-10689.0	-9791.0
14	18	10	55	749	104.0	-221211.0	-10662.0	-9916.0
14	18	10	55	750	105.0	-219697.0	-10663.0	-9761.0
14	18	10	55	751	106.0	-218169.0	-10667.0	-9414.0
14	18	10	55	751	107.0	-216577.0	-10680.0	-9871.0
14	18	10	55	752	108.0	-215237.0	-10674.0	-10198.0
14	18	10	55	753	109.0	-214191.0	-10648.0	-10439.0
14	18	10	55	753	110.0	-213792.0	-10657.0	-9908.0
14	18	10	55	754	111.0	-213779.0	-10651.0	-10211.0
14	18	10	55	755	112.0	-214553.0	-10669.0	-10229.0
14	18	10	55	755	113.0	-216581.0	-10662.0	-9854.0
14	18	10	55	756	114.0	-219491.0	-10649.0	-9951.0
14	18	10	55	757	115.0	-222909.0	-10644.0	-10312.0
14	18	10	55	757	116.0	-226102.0	-10639.0	-10206.0
14	18	10	55	767	117.0	-229021.0	-10631.0	-10118.0
14	18	10	55	768	118.0	-231798.0	-10630.0	-10657.0
14	18	10	55	768	119.0	-234284.0	-10627.0	-10987.0
14	18	10	55	769	120.0	-236522.0	-10621.0	-10407.0
14	18	10	55	770	121.0	-238554.0	-10608.0	-10600.0
14	18	10	55	790	122.0	-240891.0	-10609.0	-10734.0
14	18	10	55	791	123.0	-243484.0	-10613.0	-11266.0
14	18	10	55	791	124.0	-245949.0	-10600.0	-11141.0
14	18	10	55	792	125.0	-248674.0	-10588.0	-11723.0
14	18	10	55	792	126.0	-251326.0	-10584.0	-11889.0
14	18	10	55	793	127.0	-253995.0	-10591.0	-11632.0
14	18	10	55	794	128.0	-257158.0	-10589.0	-11323.0
14	18	10	55	794	129.0	-259889.0	-10597.0	-11141.0
14	18	10	55	795	130.0	-262214.0	-10588.0	-11226.0
14	18	10	55	796	131.0	-263406.0	-10590.0	-11531.0
14	18	10	55	796	132.0	-263302.0	-10562.0	-11829.0
14	18	10	55	797	133.0	-262308.0	-10552.0	-12144.0
14	18	10	55	797	134.0	-260785.0	-10564.0	-12668.0
14	18	10	55	798	135.0	-258451.0	-10564.0	-12781.0
14	18	10	55	799	136.0	-255172.0	-10553.0	-13097.0
14	18	10	55	817	137.0	-251679.0	-10567.0	-13094.0
14	18	10	55	818	138.0	-247693.0	-10557.0	-13306.0
14	18	10	55	819	139.0	-242971.0	-10544.0	-13446.0
14	18	10	55	819	140.0	-237592.0	-10533.0	-13215.0
14	18	10	55	820	141.0	-231926.0	-10541.0	-13669.0
14	18	10	55	821	142.0	-226615.0	-10526.0	-13521.0
14	18	10	55	821	143.0	-221812.0	-10530.0	-13378.0
14	18	10	55	822	144.0	-217522.0	-10537.0	-13702.0
14	18	10	55	838	145.0	-213764.0	-10529.0	-13976.0
14	18	10	55	838	146.0	-210496.0	-10506.0	-13859.0
14	18	10	55	839	147.0	-207897.0	-10491.0	-13705.0
14	18	10	55	839	148.0	-206451.0	-10513.0	-13706.0
14	18	10	55	840	149.0	-205957.0	-10507.0	-13779.0
14	18	10	55	840	150.0	-206264.0	-10486.0	-14265.0
14	18	10	55	841	151.0	-207217.0	-10488.0	-14314.0
14	18	10	55	842	152.0	-208459.0	-10474.0	-14541.0
14	18	10	55	842	153.0	-209852.0	-10469.0	-14825.0
14	18	10	55	843	154.0	-211365.0	-10475.0	-14958.0
14	18	10	55	843	155.0	-213300.0	-10463.0	-15304.0
14	18	10	55	844	156.0	-215297.0	-10467.0	-15162.0
14	18	10	55	844	157.0	-217858.0	-10463.0	-15134.0
14	18	10	55	845	158.0	-220461.0	-10452.0	-15152.0
14	18	10	55	861	159.0	-223523.0	-10446.0	-15526.0
14	18	10	55	861	160.0	-226966.0	-10435.0	-15549.0
14	18	10	55	862	161.0	-230634.0	-10453.0	-15776.0
14	18	10	55	862	162.0	-234973.0	-10431.0	-15911.0
14	18	10	55	863	163.0	-239667.0	-10438.0	-16124.0
14	18	10	55	863	164.0	-244307.0	-10436.0	-16306.0
14	18	10	55	864	165.0	-248109.0	-10435.0	-16416.0
14	18	10	55	864	166.0	-250998.0	-10452.0	-16361.0
14	18	10	55	865	167.0	-253599.0	-10444.0	-16539.0
14	18	10	55	885	168.0	-255665.0	-10417.0	-16409.0
14	18	10	55	885	169.0	-256206.0	-10408.0	-16664.0
14	18	10	55	886	170.0	-255466.0	-10408.0	-16882.0
14	18	10	55	886	171.0	-253427.0	-10414.0	-17134.0
14	18	10	55	887	172.0	-250348.0	-10415.0	-16868.0
14	18	10	55	887	173.0	-246359.0	-10412.0	-16911.0
14	18	10	55	888	174.0	-241483.0	-10410.0	-17429.0
14	18	10	55	889	175.0	-235544.0	-10407.0	-17526.0
14	18	10	55	889	176.0	-228109.0	-10406.0	-17798.0
14	18	10	55	890	177.0	-219484.0	-10412.0	-18174.0
14	18	10	55	890	178.0	-210059.0	-10409.0	-18171.0
14	18	10	55	891	179.0	-200399.0	-10408.0	-17905.0
14	18	10	55	891	180.0	-190747.0	-10421.0	-17839.0
14	18	10	55	892	181.0	-180936.0	-10440.0	-17751.0
14	18	10	55	908	182.0	-171596.0	-10431.0	-17730.0
14	18	10	55	909	183.0	-162833.0	-10415.0	-17616.0
14	18	10	55	909	184.0	-154532.0	-10404.0	-17909.0
14	18	10	55	910	185.0	-147246.0	-10412.0	-18971.0
14	18	10	55	910	186.0	-141297.0	-10432.0	-20280.0
14	18	10	55	911	187.0	-137024.0	-10429.0	-20674.0
14	18	10	55	912	188.0	-134098.0	-10425.0	-21072.0
14	18	10	55	932	189.0	-132102.0	-10447.0	-21188.0
14	18	10	55	932	190.0	-131176.0	-10439.0	-20883.0
14	18	10	55	933	191.0	-130673.0	-10437.0	-21157.0
14	18	10	55	933	192.0	-130474.0	-10429.0	-21152.0
14	18	10	55	934	193.0	-131233.0	-10419.0	-20951.0
14	18	10	55	934	194.0	-132828.0	-10427.0	-21197.0
14	18	10	55	935	195.0	-135269.0	-10426.0	-21790.0
14	18	10	55	935	196.0	-138342.0	-10449.0	-21575.0
14	18	10	55	936	197.0	-142039.0	-10461.0	-21654.0
14	18	10	55	936	198.0	-146289.0	-10458.0	-21881.0
14	18	10	55	937	199.0	-151018.0	-10445.0	-21871.0
14	18	10	55	938	200.0	-156422.0	-10448.0	-22101.0
14	18	10	55	938	201.0	-162010.0	-10448.0	-22244.0
14	18	10	55	939	202.0	-167507.0	-10446.0	-21905.0
14	18	10	55	939	203.0	-172736.0	-10466.0	-21868.0
14	18	10	55	955	204.0	-178231.0	-10481.0	-22281.0
14	18	10	55	956	205.0	-183909.0	-10481.0	-22502.0
14	18	10	55	956	206.0	-189096.0	-10487.0	-22417.0
14	18	10	55	957	207.0	-194013.0	-10481.0	-22342.0
14	18	10	55	958	208.0	-198882.0	-10492.0	-22288.0
14	18	10	55	958	209.0	-203181.0	-10487.0	-22036.0
14	18	10	55	959	210.0	-206931.0	-10492.0	-22112.0
14	18	10	55	959	211.0	-209851.0	-10500.0	-22367.0
14	18	10	55	960	212.0	-212080.0	-10497.0	-22442.0
14	18	10	55	960	213.0	-213237.0	-10502.0	-22451.0
14	18	10	55	961	214.0	-213562.0	-10526.0	-22629.0
14	18	10	55	962	215.0	-213646.0	-10534.0	-22640.0
14	18	10	55	962	216.0	-213443.0	-10545.0	-22188.0
14	18	10	55	963	217.0	-212987.0	-10537.0	-21548.0
14	18	10	55	978	218.0	-212309.0	-10551.0	-21126.0
14	18	10	55	979	219.0	-211437.0	-10537.0	-19747.0
14	18	10	55	979	220.0	-210215.0	-10539.0	-18374.0
14	18	10	55	980	221.0	-208764.0	-10556.0	-18282.0
14	18	10	55	980	222.0	-207189.0	-10553.0	-19162.0
14	18	10	55	981	223.0	-205281.0	-10572.0	-20131.0
14	18	10	55	981	224.0	-203031.0	-10550.0	-20664.0
14	18	10	55	982	225.0	-200202.0	-10561.0	-20705.0
14	18	10	55	982	226.0	-196666.0	-10573.0	-20205.0
14	18	10	55	983	227.0	-192752.0	-10570.0	-19115.0
14	18	10	56	1	228.0	-188384.0	-10575.0	-17275.0
14	18	10	56	2	229.0	-183807.0	-10569.0	-15048.0
14	18	10	56	2	230.0	-179926.0	-10576.0	-14783.0
14	18	10	56	3	231.0	-177016.0	-10597.0	-16516.0
14	18	10	56	3	232.0	-175536.0	-10593.0	-18221.0
14	18	10	56	4	233.0	-175504.0	-10591.0	-17694.0
14	18	10	56	5	234.0	-177422.0	-10598.0	-16594.0
14	18	10	56	5	235.0	-181422.0	-10599.0	-17674.0
14	18	10	56	6	236.0	-187433.0	-10605.0	-24665.0
14	18	10	56	6	237.0	-195419.0	-10598.0	-32919.0
14	18	10	56	7	238.0	-205455.0	-10602.0	-35457.0
14	18	10	56	7	239.0	-217120.0	-10624.0	-31710.0
14	18	10	56	8	240.0	-229656.0	-10609.0	-22678.0
14	18	10	56	23	241.0	-242519.0	-10629.0	-20523.0
14	18	10	56	24	242.0	-255503.0	-10629.0	-24208.0
14	18	10	56	24	243.0	-266212.0	-10634.0	-23132.0
14	18	10	56	25	244.0	-270242.0	-10637.0	-20051.0
14	18	10	56	25	245.0	-265959.0	-10637.0	-17964.0
14	18	10	56	26	246.0	-254834.0	-10633.0	-17012.0
14	18	10	56	27	247.0	-238403.0	-10641.0	-16949.0
14	18	10	56	47	248.0	-218945.0	-10646.0	-16809.0
14	18	10	56	47	249.0	-200537.0	-10652.0	-16366.0
14	18	10	56	48	250.0	-187089.0	-10634.0	-16266.0
14	18	10	56	48	251.0	-179416.0	-10631.0	-16064.0
14	18	10	56	49	252.0	-175096.0	-10641.0	-15557.0
14	18	10	56	50	253.0	-170442.0	-10643.0	-15281.0
14	18	10	56	50	254.0	-168434.0	-10647.0	-15365.0
14	18	10	56	51	255.0	-172171.0	-10667.0	-15048.0
14	18	10	56	51	0.0	-180854.0	-10675.0	-15047.0
14	18	10	56	52	1.0	-191429.0	-10657.0	-15147.0
14	18	10	56	52	2.0	-200289.0	-10654.0	-15301.0
14	18	10	56	53	3.0	-205661.0	-10645.0	-15255.0
14	18	10	56	53	4.0	-206229.0	-10645.0	-15544.0
14	18	10	56	54	5.0	-201314.0	-10651.0	-15904.0
14	18	10	56	55	6.0	-192891.0	-10676.0	-16171.0
14	18	10	56	55	7.0	-184472.0	-10686.0	-15912.0
14	18	10	56	56	8.0	-180828.0	-10687.0	-16301.0
14	18	10	56	69	9.0	-178874.0	-10682.0	-13669.0
14	18	10	56	70	10.0	-178410.0	-10688.0	-4793.0
14	18	10	56	70	11.0	-179613.0	-10706.0	-1486.0
14	18	10	56	71	12.0	-186010.0	-10698.0	-569.0
14	18	10	56	71	13.0	-196987.0	-10696.0	-296.0
14	18	10	56	72	14.0	-208931.0	-10699.0	-1063.0
14	18	10	56	73	15.0	-219012.0	-10706.0	-1768.0
14	18	10	56	93	16.0	-226120.0	-10715.0	743.0
14	18	10	56	93	17.0	-230920.0	-10717.0	2804.0
14	18	10	56	94	18.0	-233834.0	-10702.0	3000.0
14	18	10	56	94	19.0	-235092.0	-10712.0	3396.0
14	18	10	56	95	20.0	-234976.0	-10709.0	2542.0
14	18	10	56	96	21.0	-235331.0	-10737.0	803.0
14	18	10	56	96	22.0	-236506.0	-10769.0	-5956.0
14	18	10	56	97	23.0	-235907.0	-10767.0	-4802.0
14	18	10	56	97	24.0	-231071.0	-10760.0	-5228.0
14	18	10	56	98	25.0	-223316.0	-10766.0	-6286.0
14	18	10	56	98	26.0	-215748.0	-10776.0	-7336.0
14	18	10	56	99	27.0	-210644.0	-10794.0	-8329.0
14	18	10	56	99	28.0	-206742.0	-10799.0	-8792.0
14	18	10	56	100	29.0	-202207.0	-10816.0	-8936.0
14	18	10	56	101	30.0	-194325.0	-10822.0	-8587.0
14	18	10	56	116	31.0	-181865.0	-10822.0	-8635.0
14	18	10	56	116	32.0	-165445.0	-10811.0	-8790.0
14	18	10	56	117	33.0	-147112.0	-10821.0	-8036.0
14	18	10	56	117	34.0	-131172.0	-10832.0	-8029.0
14	18	10	56	118	35.0	-118078.0	-10856.0	-7966.0
14	18	10	56	119	36.0	-108092.0	-10854.0	-7847.0
14	18	10	56	119	37.0	-97047.0	-10856.0	-7521.0
14	18	10	56	139	38.0	-85062.0	-10874.0	-7999.0
14	18	10	56	139	39.0	-77843.0	-10880.0	-7876.0
14	18	10	56	140	40.0	-74497.0	-10885.0	-4696.0
14	18	10	56	140	41.0	-75314.0	-10907.0	-2375.0
14	18	10	56	141	42.0	-78859.0	-10906.0	-2216.0
14	18	10	56	141	43.0	-84850.0	-10907.0	-2568.0
14	18	10	56	142	44.0	-92761.0	-10912.0	-2831.0
14	18	10	56	143	45.0	-102376.0	-10924.0	-2581.0
14	18	10	56	143	46.0	-112938.0	-10933.0	-2675.0
14	18	10	56	144	47.0	-123816.0	-10947.0	-2551.0
14	18	10	56	144	48.0	-134380.0	-10964.0	-2149.0
14	18	10	56	145	49.0	-143703.0	-10963.0	-2076.0
14	18	10	56	145	50.0	-150951.0	-10979.0	-2222.0
14	18	10	56	146	51.0	-155657.0	-10999.0	-2408.0
14	18	10	56	146	52.0	-158244.0	-11012.0	-2536.0
14	18	10	56	162	53.0	-158971.0	-11009.0	-2648.0
14	18	10	56	162	54.0	-157974.0	-11014.0	-2891.0
14	18	10	56	163	55.0	-155871.0	-11007.0	-3167.0
14	18	10	56	163	56.0	-153862.0	-11020.0	-3101.0
14	18	10	56	164	57.0	-151934.0	-11033.0	-3509.0
14	18	10	56	165	58.0	-150002.0	-11055.0	-4258.0
14	18	10	56	165	59.0	-148149.0	-11057.0	-4316.0
14	18	10	56	188	60.0	-146039.0	-11066.0	-4351.0
14	18	10	56	189	61.0	-144279.0	-11061.0	-4401.0
14	18	10	56	189	62.0	-143144.0	-11056.0	-4021.0
14	18	10	56	190	63.0	-142857.0	-11077.0	-3852.0
14	18	10	56	190	64.0	-143092.0	-11082.0	-3714.0
14	18	10	56	191	65.0	-144075.0	-11098.0	-3727.0
14	18	10	56	192	66.0	-145833.0	-11107.0	-3439.0
14	18	10	56	192	67.0	-147969.0	-11095.0	-3395.0
14	18	10	56	193	68.0	-150596.0	-11112.0	-3691.0
14	18	10	56	193	69.0	-153478.0	-11118.0	-3514.0
14	18	10	56	194	70.0	-156508.0	-11114.0	-3254.0
14	18	10	56	194	71.0	-159764.0	-11124.0	-3481.0
14	18	10	56	195	72.0	-163726.0	-11134.0	-3096.0
14	18	10	56	195	73.0	-168061.0	-11147.0	-2977.0
14	18	10	56	196	74.0	-171757.0	-11167.0	-2684.0
14	18	10	56	197	75.0	-175709.0	-11148.0	-3078.0
14	18	10	56	197	76.0	-180051.0	-11152.0	-3796.0
14	18	10	56	198	77.0	-184992.0	-11160.0	-3671.0
14	18	10	56	198	78.0	-190505.0	-11163.0	-3234.0
14	18	10	56	199	79.0	-196449.0	-11166.0	-2630.0
14	18	10	56	200	80.0	-202123.0	-11179.0	-2201.0
14	18	10	56	200	81.0	-207298.0	-11176.0	-1940.0
14	18	10	56	201	82.0	-212286.0	-11177.0	-1492.0
14	18	10	56	214	83.0	-217168.0	-11195.0	-1756.0
14	18	10	56	215	84.0	-221436.0	-11191.0	-1499.0
14	18	10	56	215	85.0	-225188.0	-11196.0	-1446.0
14	18	10	56	216	86.0	-228560.0	-11193.0	-1586.0
14	18	10	56	217	87.0	-231066.0	-11202.0	-1589.0
14	18	10	56	217	88.0	-232257.0	-11221.0	-1717.0
14	18	10	56	218	89.0	-232765.0	-11228.0	-1427.0
14	18	10	56	218	90.0	-232326.0	-11246.0	-1669.0
14	18	10	56	237	91.0	-231047.0	-11249.0	-1431.0
14	18	10	56	238	92.0	-228466.0	-11252.0	-1950.0
14	18	10	56	238	93.0	-225133.0	-11246.0	-2477.0
14	18	10	56	239	94.0	-221477.0	-11257.0	-2476.0
14	18	10	56	239	95.0	-217930.0	-11254.0	-1939.0
14	18	10	56	240	96.0	-214664.0	-11251.0	-2361.0
14	18	10	56	240	97.0	-211680.0	-11259.0	-2744.0
14	18	10	56	260	98.0	-209281.0	-11272.0	-2731.0
14	18	10	56	260	99.0	-207088.0	-11261.0	-2846.0
14	18	10	56	261	100.0	-204985.0	-11274.0	-2955.0
14	18	10	56	261	101.0	-202445.0	-11292.0	-2737.0
14	18	10	56	262	102.0	-199411.0	-11290.0	-2461.0
14	18	10	56	263	103.0	-196356.0	-11286.0	-2869.0
14	18	10	56	263	104.0	-193103.0	-11303.0	-2974.0
14	18	10	56	264	105.0	-189476.0	-11322.0	-3245.0
14	18	10	56	264	106.0	-185412.0	-11343.0	-3523.0
14	18	10	56	265	107.0	-181141.0	-11342.0	-2253.0
14	18	10	56	286	108.0	-177172.0	-11337.0	-1619.0
14	18	10	56	287	109.0	-173269.0	-11336.0	-1184.0
14	18	10	56	288	110.0	-169570.0	-11344.0	-1434.0
14	18	10	56	288	111.0	-166150.0	-11344.0	-2211.0
14	18	10	56	289	112.0	-163203.0	-11334.0	-2614.0
14	18	10	56	289	113.0	-161244.0	-11346.0	-3305.0
14	18	10	56	290	114.0	-160115.0	-11364.0	-3471.0
14	18	10	56	290	115.0	-159703.0	-11342.0	-3685.0
14	18	10	56	291	116.0	-160277.0	-11361.0	-4433.0
14	18	10	56	291	117.0	-161073.0	-11342.0	-4932.0
14	18	10	56	292	118.0	-162367.0	-11332.0	-5098.0
14	18	10	56	293	119.0	-164261.0	-11352.0	-5336.0
14	18	10	56	293	120.0	-166126.0	-11354.0	-5771.0
14	18	10	56	294	121.0	-167946.0	-11364.0	-6222.0
14	18	10	56	294	122.0	-169333.0	-11364.0	-6167.0
14	18	10	56	295	123.0	-170271.0	-11351.0	-6322.0
14	18	10	56	295	124.0	-171285.0	-11355.0	-6581.0
14	18	10	56	296	125.0	-172632.0	-11362.0	-5470.0
14	18	10	56	296	126.0	-174389.0	-11368.0	-4943.0
14	18	10	56	310	127.0	-176273.0	-11372.0	-5113.0
14	18	10	56	310	128.0	-177659.0	-11361.0	-5650.0
14	18	10	56	311	129.0	-178382.0	-11351.0	-5135.0
14	18	10	56	312	130.0	-177936.0	-11365.0	-5011.0
14	18	10	56	312	131.0	-176297.0	-11369.0	-4804.0
14	18	10	56	313	132.0	-173677.0	-11362.0	-5098.0
14	18	10	56	313	133.0	-170344.0	-11367.0	-5670.0
14	18	10	56	332	134.0	-166564.0	-11354.0	-6077.0
14	18	10	56	333	135.0	-162655.0	-11357.0	-10647.0
14	18	10	56	333	136.0	-159439.0	-11354.0	-13914.0
14	18	10	56	334	137.0	-157386.0	-11339.0	-13894.0
14	18	10	56	334	138.0	-156989.0	-11342.0	-11735.0
14	18	10	56	335	139.0	-158277.0	-11342.0	-12121.0
14	18	10	56	336	140.0	-162315.0	-11349.0	-12419.0
14	18	10	56	336	141.0	-170104.0	-11361.0	-12599.0
14	18	10	56	337	142.0	-181352.0	-11357.0	-12926.0
14	18	10	56	338	143.0	-196132.0	-11352.0	-13614.0
14	18	10	56	338	144.0	-214539.0	-11347.0	-14571.0
14	18	10	56	339	145.0	-236705.0	-11361.0	-18291.0
14	18	10	56	339	146.0	-252704.0	-11364.0	-23792.0
14	18	10	56	340	147.0	-255036.0	-11345.0	-26005.0
14	18	10	56	340	148.0	-253052.0	-11338.0	-27294.0
14	18	10	56	341	149.0	-254655.0	-11339.0	-28096.0
14	18	10	56	342	150.0	-262216.0	-11331.0	-28582.0
14	18	10	56	342	151.0	-270321.0	-11324.0	-28992.0
14	18	10	56	355	152.0	-274145.0	-11322.0	-29004.0
14	18	10	56	355	153.0	-272350.0	-11319.0	-29659.0
14	18	10	56	356	154.0	-266510.0	-11333.0	-29807.0
14	18	10	56	356	155.0	-258318.0	-11326.0	-29806.0
14	18	10	56	357	156.0	-248432.0	-11303.0	-30297.0
14	18	10	56	378	157.0	-235892.0	-11325.0	-30525.0
14	18	10	56	378	158.0	-220926.0	-11323.0	-29890.0
14	18	10	56	379	159.0	-205046.0	-11306.0	-29836.0
14	18	10	56	380	160.0	-190292.0	-11316.0	-30041.0
14	18	10	56	380	161.0	-178629.0	-11304.0	-29902.0
14	18	10	56	381	162.0	-170856.0	-11294.0	-29646.0
14	18	10	56	381	163.0	-166307.0	-11296.0	-29937.0
14	18	10	56	382	164.0	-163428.0	-11297.0	-28181.0
14	18	10	56	383	165.0	-161647.0	-11297.0	-24045.0
14	18	10	56	383	166.0	-161071.0	-11274.0	-22789.0
14	18	10	56	384	167.0	-161984.0	-11274.0	-21866.0
14	18	10	56	384	168.0	-163749.0	-11274.0	-20946.0
14	18	10	56	385	169.0	-165734.0	-11271.0	-20946.0
14	18	10	56	385	170.0	-167667.0	-11270.0	-20832.0
14	18	10	56	386	171.0	-169527.0	-11272.0	-20756.0
14	18	10	56	387	172.0	-171017.0	-11277.0	-20769.0
14	18	10	56	387	173.0	-171846.0	-11265.0	-20652.0
14	18	10	56	402	174.0	-172112.0	-11251.0	-20630.0
14	18	10	56	403	175.0	-172176.0	-11254.0	-20229.0
14	18	10	56	403	176.0	-172322.0	-11253.0	-20252.0
14	18	10	56	404	177.0	-172202.0	-11262.0	-21807.0
14	18	10	56	404	178.0	-171921.0	-11261.0	-25476.0
14	18	10	56	405	179.0	-171702.0	-11258.0	-28064.0
14	18	10	56	425	180.0	-171177.0	-11244.0	-29146.0
14	18	10	56	426	181.0	-171300.0	-11232.0	-30126.0
14	18	10	56	426	182.0	-171892.0	-11211.0	-30494.0
14	18	10	56	427	183.0	-173247.0	-11221.0	-30615.0
14	18	10	56	427	184.0	-176959.0	-11211.0	-30709.0
14	18	10	56	428	185.0	-183627.0	-11232.0	-31117.0
14	18	10	56	428	186.0	-192152.0	-11208.0	-30977.0
14	18	10	56	429	187.0	-201451.0	-11190.0	-30748.0
14	18	10	56	430	188.0	-211034.0	-11176.0	-30079.0
14	18	10	56	430	189.0	-220159.0	-11174.0	-30389.0
14	18	10	56	431	190.0	-229179.0	-11171.0	-30952.0
14	18	10	56	431	191.0	-237954.0	-11149.0	-30822.0
14	18	10	56	432	192.0	-246657.0	-11136.0	-30542.0
14	18	10	56	432	193.0	-255121.0	-11155.0	-30764.0
14	18	10	56	448	194.0	-262698.0	-11141.0	-30132.0
14	18	10	56	449	195.0	-269039.0	-11142.0	-29699.0
14	18	10	56	450	196.0	-274169.0	-11147.0	-30139.0
14	18	10	56	450	197.0	-277847.0	-11141.0	-30213.0
14	18	10	56	451	198.0	-279732.0	-11135.0	-29761.0
14	18	10	56	451	199.0	-280589.0	-11107.0	-29847.0
14	18	10	56	452	200.0	-280627.0	-11114.0	-30355.0
14	18	10	56	453	201.0	-280014.0	-11114.0	-30456.0
14	18	10	56	453	202.0	-278112.0	-11104.0	-30731.0
14	18	10	56	454	203.0	-274955.0	-11102.0	-31231.0
14	18	10	56	454	204.0	-270225.0	-11082.0	-31251.0
14	18	10	56	455	205.0	-264203.0	-11071.0	-31101.0
14	18	10	56	456	206.0	-256884.0	-11072.0	-31574.0
14	18	10	56	456	207.0	-248484.0	-11090.0	-31754.0
14	18	10	56	457	208.0	-239722.0	-11082.0	-31947.0
14	18	10	56	457	209.0	-230286.0	-11069.0	-31764.0
14	18	10	56	472	210.0	-220579.0	-11066.0	-31756.0
14	18	10	56	472	211.0	-211141.0	-11050.0	-31882.0
14	18	10	56	473	212.0	-201626.0	-11057.0	-32094.0
14	18	10	56	473	213.0	-193039.0	-11037.0	-32337.0
14	18	10	56	474	214.0	-185887.0	-11036.0	-32656.0
14	18	10	56	475	215.0	-179984.0	-11039.0	-32599.0
14	18	10	56	475	216.0	-174679.0	-11036.0	-32532.0
14	18	10	56	495	217.0	-170357.0	-11029.0	-32502.0
14	18	10	56	496	218.0	-166734.0	-11028.0	-32714.0
14	18	10	56	496	219.0	-163519.0	-11011.0	-32553.0
14	18	10	56	497	220.0	-160849.0	-10991.0	-32016.0
14	18	10	56	497	221.0	-158839.0	-11001.0	-32002.0
14	18	10	56	498	222.0	-157419.0	-10997.0	-32317.0
14	18	10	56	499	223.0	-156721.0	-10998.0	-32735.0
14	18	10	56	499	224.0	-156620.0	-11020.0	-32423.0
14	18	10	56	500	225.0	-157755.0	-11027.0	-32213.0
14	18	10	56	500	226.0	-160012.0	-10994.0	-31726.0
14	18	10	56	501	227.0	-163307.0	-10998.0	-31724.0
14	18	10	56	502	228.0	-167749.0	-10997.0	-31975.0
14	18	10	56	502	229.0	-173647.0	-10991.0	-32425.0
14	18	10	56	503	230.0	-180943.0	-10991.0	-32932.0
14	18	10	56	503	231.0	-189937.0	-10979.0	-32662.0
14	18	10	56	504	232.0	-200129.0	-11000.0	-33806.0
14	18	10	56	519	233.0	-211528.0	-10969.0	-34162.0
14	18	10	56	519	234.0	-224117.0	-10968.0	-33961.0
14	18	10	56	520	235.0	-237152.0	-10961.0	-34224.0
14	18	10	56	521	236.0	-250088.0	-10959.0	-34489.0
14	18	10	56	521	237.0	-262893.0	-10962.0	-34517.0
14	18	10	56	522	238.0	-274989.0	-10970.0	-34523.0
14	18	10	56	522	239.0	-286008.0	-10968.0	-34681.0
14	18	10	56	542	240.0	-295739.0	-10957.0	-34509.0
14	18	10	56	543	241.0	-303722.0	-10957.0	-34164.0
14	18	10	56	544	242.0	-309307.0	-10947.0	-34961.0
14	18	10	56	544	243.0	-312661.0	-10944.0	-34976.0
14	18	10	56	545	244.0	-314373.0	-10944.0	-34976.0
14	18	10	56	545	245.0	-314089.0	-10937.0	-35112.0
14	18	10	56	546	246.0	-311871.0	-10940.0	-36146.0
14	18	10	56	547	247.0	-307949.0	-10951.0	-36488.0
14	18	10	56	547	248.0	-302104.0	-10931.0	-36397.0
14	18	10	56	548	249.0	-294527.0	-10928.0	-36704.0
14	18	10	56	548	250.0	-285362.0	-10948.0	-36754.0
14	18	10	56	549	251.0	-274787.0	-10922.0	-37037.0
14	18	10	56	550	252.0	-263138.0	-10904.0	-37834.0
14	18	10	56	550	253.0	-250982.0	-10924.0	-38641.0
14	18	10	56	551	254.0	-238439.0	-10918.0	-38497.0
14	18	10	56	551	255.0	-225711.0	-10917.0	-38642.0
14	18	10	56	568	0.0	-213234.0	-10926.0	-38766.0
14	18	10	56	571	1.0	-201001.0	-10897.0	-38707.0
14	18	10	56	572	2.0	-189419.0	-10889.0	-38934.0
14	18	10	56	572	3.0	-178766.0	-10895.0	-39001.0
14	18	10	56	573	4.0	-168807.0	-10887.0	-38921.0
14	18	10	56	574	5.0	-159732.0	-10888.0	-38794.0
14	18	10	56	574	6.0	-152121.0	-10889.0	-38729.0
14	18	10	56	575	7.0	-145900.0	-10873.0	-38813.0
14	18	10	56	576	8.0	-141061.0	-10871.0	-38856.0
14	18	10	56	576	9.0	-138101.0	-10881.0	-38728.0
14	18	10	56	577	10.0	-136525.0	-10878.0	-38071.0
14	18	10	56	577	11.0	-136344.0	-10882.0	-37784.0
14	18	10	56	586	12.0	-137650.0	-10874.0	-37446.0
14	18	10	56	594	13.0	-140206.0	-10880.0	-37534.0
14	18	10	56	595	14.0	-143860.0	-10886.0	-37507.0
14	18	10	56	595	15.0	-147637.0	-10872.0	-37112.0
14	18	10	56	596	16.0	-151283.0	-10857.0	-37092.0
14	18	10	56	596	17.0	-155106.0	-10868.0	-37442.0
14	18	10	56	597	18.0	-159236.0	-10867.0	-37693.0
14	18	10	56	597	19.0	-163217.0	-10875.0	-37469.0
14	18	10	56	598	20.0	-166530.0	-10864.0	-37521.0
14	18	10	56	598	21.0	-169267.0	-10852.0	-37452.0
14	18	10	56	618	22.0	-172199.0	-10859.0	-37097.0
14	18	10	56	619	23.0	-175888.0	-10862.0	-37152.0
14	18	10	56	620	24.0	-180874.0	-10858.0	-36839.0
14	18	10	56	620	25.0	-187259.0	-10854.0	-36456.0
14	18	10	56	621	26.0	-194717.0	-10861.0	-36870.0
14	18	10	56	621	27.0	-202103.0	-10864.0	-36987.0
14	18	10	56	622	28.0	-208762.0	-10853.0	-36877.0
14	18	10	56	622	29.0	-214592.0	-10859.0	-37461.0
14	18	10	56	623	30.0	-219659.0	-10851.0	-37857.0
14	18	10	56	623	31.0	-223787.0	-10857.0	-37837.0
14	18	10	56	624	32.0	-227351.0	-10846.0	-37995.0
14	18	10	56	624	33.0	-230151.0	-10835.0	-38459.0
14	18	10	56	625	34.0	-231929.0	-10847.0	-38389.0
14	18	10	56	626	35.0	-232704.0	-10836.0	-38562.0
14	18	10	56	642	36.0	-232389.0	-10839.0	-38952.0
14	18	10	56	643	37.0	-230654.0	-10846.0	-38961.0
14	18	10	56	643	38.0	-227292.0	-10826.0	-38990.0
14	18	10	56	644	39.0	-222998.0	-10844.0	-38664.0
14	18	10	56	645	40.0	-217953.0	-10846.0	-38572.0
14	18	10	56	645	41.0	-212342.0	-10848.0	-38693.0
14	18	10	56	646	42.0	-206669.0	-10841.0	-39139.0
14	18	10	56	646	43.0	-201336.0	-10837.0	-40357.0
14	18	10	56	647	44.0	-196046.0	-10826.0	-40786.0
14	18	10	56	666	45.0	-190564.0	-10827.0	-41431.0
14	18	10	56	666	46.0	-185542.0	-10829.0	-42031.0
14	18	10	56	667	47.0	-181085.0	-10806.0	-42241.0
14	18	10	56	667	48.0	-176826.0	-10800.0	-41972.0
14	18	10	56	668	49.0	-172635.0	-10807.0	-42311.0
14	18	10	56	669	50.0	-168531.0	-10812.0	-42827.0
14	18	10	56	669	51.0	-164845.0	-10806.0	-42546.0
14	18	10	56	670	52.0	-161812.0	-10819.0	-42406.0
14	18	10	56	670	53.0	-159198.0	-10796.0	-42871.0
14	18	10	56	671	54.0	-157374.0	-10782.0	-42606.0
14	18	10	56	671	55.0	-156249.0	-10787.0	-42121.0
14	18	10	56	672	56.0	-155540.0	-10786.0	-42172.0
14	18	10	56	672	57.0	-155561.0	-10784.0	-41598.0
14	18	10	56	673	58.0	-155959.0	-10786.0	-41367.0
14	18	10	56	689	59.0	-156819.0	-10775.0	-40996.0
14	18	10	56	690	60.0	-158378.0	-10774.0	-41274.0
14	18	10	56	690	61.0	-160584.0	-10773.0	-41399.0
14	18	10	56	691	62.0	-163284.0	-10781.0	-41144.0
14	18	10	56	691	63.0	-166552.0	-10767.0	-41101.0
14	18	10	56	692	64.0	-170308.0	-10762.0	-41439.0
14	18	10	56	692	65.0	-175143.0	-10754.0	-41392.0
14	18	10	56	693	66.0	-180831.0	-10758.0	-40856.0
14	18	10	56	693	67.0	-186579.0	-10747.0	-39854.0
14	18	10	56	694	68.0	-192494.0	-10744.0	-38481.0
14	18	10	56	695	69.0	-198331.0	-10761.0	-37769.0
14	18	10	56	695	70.0	-203509.0	-10769.0	-37366.0
14	18	10	56	696	71.0	-208596.0	-10750.0	-37212.0
14	18	10	56	696	72.0	-213261.0	-10752.0	-38562.0
14	18	10	56	697	73.0	-217784.0	-10732.0	-39128.0
14	18	10	56	712	74.0	-222058.0	-10726.0	-38994.0
14	18	10	56	713	75.0	-225604.0	-10742.0	-38501.0
14	18	10	56	713	76.0	-228154.0	-10740.0	-37602.0
14	18	10	56	714	77.0	-229389.0	-10721.0	-36153.0
14	18	10	56	714	78.0	-229621.0	-10723.0	-33914.0
14	18	10	56	715	79.0	-229776.0	-10721.0	-33173.0
14	18	10	56	715	80.0	-229538.0	-10720.0	-33765.0
14	18	10	56	736	81.0	-229669.0	-10699.0	-35027.0
14	18	10	56	737	82.0	-230747.0	-10688.0	-34981.0
14	18	10	56	738	83.0	-233002.0	-10706.0	-33372.0
14	18	10	56	739	84.0	-236967.0	-10717.0	-32896.0
14	18	10	56	739	85.0	-242491.0	-10709.0	-38030.0
14	18	10	56	740	86.0	-249690.0	-10702.0	-46893.0
14	18	10	56	740	87.0	-258583.0	-10702.0	-50681.0
14	18	10	56	741	88.0	-269084.0	-10717.0	-48308.0
14	18	10	56	741	89.0	-280253.0	-10715.0	-42029.0
14	18	10	56	742	90.0	-291287.0	-10713.0	-40494.0
14	18	10	56	742	91.0	-302267.0	-10707.0	-45762.0
14	18	10	56	743	92.0	-311096.0	-10691.0	-47401.0
14	18	10	56	744	93.0	-313117.0	-10679.0	-44604.0
14	18	10	56	744	94.0	-306230.0	-10692.0	-42591.0
14	18	10	56	745	95.0	-291332.0	-10676.0	-41857.0
14	18	10	56	745	96.0	-270917.0	-10661.0	-41389.0
14	18	10	56	759	97.0	-247594.0	-10663.0	-40811.0
14	18	10	56	760	98.0	-224296.0	-10647.0	-40169.0
14	18	10	56	760	99.0	-203697.0	-10649.0	-40127.0
14	18	10	56	761	100.0	-187214.0	-10637.0	-40196.0
14	18	10	56	761	101.0	-176159.0	-10627.0	-39447.0
14	18	10	56	762	102.0	-165562.0	-10636.0	-38937.0
14	18	10	56	762	103.0	-154773.0	-10644.0	-38797.0
14	18	10	56	782	104.0	-149269.0	-10627.0	-38837.0
14	18	10	56	782	105.0	-150796.0	-10606.0	-39257.0
14	18	10	56	783	106.0	-156781.0	-10596.0	-38745.0
14	18	10	56	784	107.0	-163259.0	-10593.0	-38770.0
14	18	10	56	784	108.0	-167770.0	-10594.0	-38723.0
14	18	10	56	785	109.0	-170461.0	-10583.0	-38689.0
14	18	10	56	785	110.0	-171936.0	-10569.0	-39041.0
14	18	10	56	786	111.0	-169281.0	-10581.0	-39106.0
14	18	10	56	787	112.0	-161835.0	-10566.0	-39548.0
14	18	10	56	787	113.0	-153329.0	-10581.0	-39553.0
14	18	10	56	788	114.0	-153151.0	-10576.0	-38742.0
14	18	10	56	788	115.0	-163176.0	-10556.0	-35458.0
14	18	10	56	789	116.0	-177061.0	-10569.0	-32554.0
14	18	10	56	789	117.0	-189367.0	-10559.0	-37156.0
14	18	10	56	790	118.0	-202332.0	-10559.0	-38570.0
14	18	10	56	805	119.0	-218917.0	-10546.0	-39116.0
14	18	10	56	805	120.0	-235782.0	-10531.0	-39568.0
14	18	10	56	806	121.0	-250218.0	-10532.0	-39124.0
14	18	10	56	807	122.0	-262091.0	-10539.0	-38634.0
14	18	10	56	807	123.0	-270878.0	-10516.0	-37569.0
14	18	10	56	808	124.0	-276443.0	-10517.0	-27430.0
14	18	10	56	808	125.0	-280062.0	-10523.0	-19428.0
14	18	10	56	827	126.0	-283153.0	-10525.0	-27272.0
14	18	10	56	828	127.0	-286629.0	-10526.0	-30137.0
14	18	10	56	829	128.0	-289686.0	-10521.0	-21153.0
14	18	10	56	829	129.0	-290229.0	-10527.0	-11861.0
14	18	10	56	830	130.0	-286479.0	-10528.0	-10858.0
14	18	10	56	830	131.0	-280086.0	-10526.0	-11629.0
14	18	10	56	831	132.0	-273934.0	-10521.0	-13066.0
14	18	10	56	831	133.0	-268605.0	-10506.0	-17929.0
14	18	10	56	832	134.0	-263541.0	-10485.0	-22634.0
14	18	10	56	833	135.0	-256989.0	-10502.0	-21796.0
14	18	10	56	833	136.0	-246839.0	-10504.0	-20971.0
14	18	10	56	834	137.0	-232617.0	-10495.0	-20451.0
14	18	10	56	834	138.0	-214954.0	-10506.0	-19545.0
14	18	10	56	835	139.0	-194891.0	-10510.0	-17997.0
14	18	10	56	835	140.0	-173571.0	-10509.0	-15109.0
14	18	10	56	852	141.0	-152207.0	-10487.0	-15086.0
14	18	10	56	852	142.0	-131607.0	-10483.0	-15657.0
14	18	10	56	853	143.0	-111685.0	-10488.0	-15330.0
14	18	10	56	853	144.0	-93020.0	-10492.0	-15546.0
14	18	10	56	854	145.0	-76689.0	-10507.0	-15364.0
14	18	10	56	855	146.0	-64241.0	-10496.0	-14634.0
14	18	10	56	855	147.0	-55237.0	-10477.0	-14400.0
14	18	10	56	856	148.0	-49060.0	-10497.0	-14421.0
14	18	10	56	876	149.0	-46302.0	-10507.0	-14710.0
14	18	10	56	876	150.0	-46887.0	-10489.0	-14262.0
14	18	10	56	877	151.0	-49776.0	-10475.0	-13750.0
14	18	10	56	877	152.0	-53633.0	-10487.0	-13770.0
14	18	10	56	878	153.0	-58299.0	-10484.0	-13717.0
14	18	10	56	879	154.0	-63658.0	-10488.0	-13879.0
14	18	10	56	879	155.0	-69647.0	-10497.0	-14144.0
14	18	10	56	880	156.0	-75616.0	-10476.0	-14012.0
14	18	10	56	880	157.0	-80542.0	-10481.0	-13481.0
14	18	10	56	881	158.0	-84655.0	-10466.0	-13328.0
14	18	10	56	881	159.0	-88238.0	-10470.0	-13016.0
14	18	10	56	882	160.0	-91514.0	-10471.0	-12831.0
14	18	10	56	882	161.0	-95346.0	-10494.0	-12706.0
14	18	10	56	883	162.0	-98877.0	-10483.0	-12732.0
14	18	10	56	884	163.0	-102667.0	-10482.0	-12850.0
14	18	10	56	899	164.0	-107222.0	-10469.0	-12886.0
14	18	10	56	900	165.0	-111696.0	-10464.0	-12546.0
14	18	10	56	901	166.0	-116998.0	-10458.0	-12427.0
14	18	10	56	901	167.0	-122755.0	-10484.0	-12246.0
14	18	10	56	902	168.0	-128601.0	-10489.0	-12537.0
14	18	10	56	902	169.0	-135413.0	-10492.0	-12805.0
14	18	10	56	903	170.0	-142291.0	-10493.0	-12510.0
14	18	10	56	904	171.0	-149139.0	-10502.0	-12287.0
14	18	10	56	904	172.0	-155567.0	-10496.0	-12199.0
14	18	10	56	905	173.0	-160457.0	-10509.0	-11511.0
14	18	10	56	905	174.0	-164598.0	-10507.0	-11507.0
14	18	10	56	906	175.0	-167807.0	-10504.0	-11591.0
14	18	10	56	906	176.0	-169617.0	-10501.0	-11117.0
14	18	10	56	907	177.0	-171591.0	-10501.0	-10535.0
14	18	10	56	908	178.0	-172951.0	-10516.0	-9821.0
14	18	10	56	922	179.0	-173474.0	-10522.0	-9639.0
14	18	10	56	923	180.0	-174307.0	-10503.0	-9173.0
14	18	10	56	923	181.0	-174837.0	-10525.0	-8801.0
14	18	10	56	924	182.0	-176026.0	-10536.0	-8351.0
14	18	10	56	925	183.0	-178803.0	-10532.0	-8100.0
14	18	10	56	925	184.0	-182550.0	-10526.0	-8153.0
14	18	10	56	926	185.0	-188041.0	-10521.0	-8901.0
14	18	10	56	945	186.0	-193812.0	-10511.0	-7469.0
14	18	10	56	946	187.0	-199391.0	-10518.0	-6864.0
14	18	10	56	946	188.0	-206038.0	-10518.0	-6699.0
14	18	10	56	947	189.0	-212385.0	-10527.0	-6927.0
14	18	10	56	948	190.0	-218377.0	-10517.0	-6341.0
14	18	10	56	948	191.0	-224720.0	-10517.0	-5289.0
14	18	10	56	949	192.0	-230041.0	-10525.0	-4917.0
14	18	10	56	949	193.0	-234576.0	-10525.0	-4474.0
14	18	10	56	950	194.0	-237211.0	-10517.0	-3807.0
14	18	10	56	951	195.0	-236971.0	-10503.0	-3538.0
14	18	10	56	951	196.0	-235955.0	-10509.0	-3372.0
14	18	10	56	952	197.0	-233447.0	-10525.0	-2726.0
14	18	10	56	952	198.0	-229355.0	-10514.0	-2506.0
14	18	10	56	953	199.0	-224487.0	-10506.0	-2586.0
14	18	10	56	953	200.0	-218216.0	-10501.0	-2372.0
14	18	10	56	968	201.0	-212364.0	-10501.0	-1957.0
14	18	10	56	969	202.0	-206793.0	-10507.0	-1089.0
14	18	10	56	969	203.0	-200492.0	-10506.0	-1045.0
14	18	10	56	970	204.0	-195599.0	-10504.0	-422.0
14	18	10	56	970	205.0	-190224.0	-10499.0	-316.0
14	18	10	56	971	206.0	-185079.0	-10513.0	-42.0
14	18	10	56	971	207.0	-180663.0	-10515.0	16.0
14	18	10	56	972	208.0	-175933.0	-10519.0	118.0
14	18	10	56	991	209.0	-172921.0	-10504.0	-69.0
14	18	10	56	992	210.0	-170148.0	-10502.0	-887.0
14	18	10	56	992	211.0	-167874.0	-10500.0	-1167.0
14	18	10	56	993	212.0	-166817.0	-10492.0	-993.0
14	18	10	56	993	213.0	-164618.0	-10486.0	-1254.0
14	18	10	56	994	214.0	-163604.0	-10506.0	-1722.0
14	18	10	56	995	215.0	-162947.0	-10481.0	-1621.0
14	18	10	56	995	216.0	-162132.0	-10479.0	-389.0
14	18	10	56	996	217.0	-162466.0	-10491.0	701.0
14	18	10	56	996	218.0	-162093.0	-10489.0	373.0
14	18	10	56	997	219.0	-162289.0	-10485.0	26.0
14	18	10	56	997	220.0	-162091.0	-10491.0	-1398.0
14	18	10	56	998	221.0	-161286.0	-10496.0	-8289.0
14	18	10	56	999	222.0	-161872.0	-10486.0	-13306.0
14	18	10	56	999	223.0	-162577.0	-10470.0	-14912.0
14	18	10	57	16	224.0	-163979.0	-10473.0	-16212.0
14	18	10	57	16	225.0	-166101.0	-10469.0	-17116.0
14	18	10	57	17	226.0	-168254.0	-10469.0	-17013.0
14	18	10	57	17	227.0	-171631.0	-10464.0	-17256.0
14	18	10	57	18	228.0	-174529.0	-10451.0	-18175.0
14	18	10	57	18	229.0	-178031.0	-10459.0	-18419.0
14	18	10	57	19	230.0	-183048.0	-10462.0	-18654.0
14	18	10	57	39	231.0	-189144.0	-10451.0	-18857.0
14	18	10	57	39	232.0	-195871.0	-10449.0	-19091.0
14	18	10	57	40	233.0	-202220.0	-10441.0	-19037.0
14	18	10	57	41	234.0	-208006.0	-10438.0	-19003.0
14	18	10	57	41	235.0	-213010.0	-10425.0	-19629.0
14	18	10	57	42	236.0	-216487.0	-10425.0	-20999.0
14	18	10	57	42	237.0	-218046.0	-10424.0	-22086.0
14	18	10	57	43	238.0	-217951.0	-10421.0	-22501.0
14	18	10	57	43	239.0	-216644.0	-10414.0	-23890.0
14	18	10	57	44	240.0	-215147.0	-10396.0	-25306.0
14	18	10	57	45	241.0	-214028.0	-10387.0	-26975.0
14	18	10	57	45	242.0	-212658.0	-10406.0	-26364.0
14	18	10	57	46	243.0	-212044.0	-10420.0	-26454.0
14	18	10	57	46	244.0	-212631.0	-10409.0	-26252.0
14	18	10	57	47	245.0	-213937.0	-10403.0	-24836.0
14	18	10	57	64	246.0	-217201.0	-10387.0	-24816.0
14	18	10	57	65	247.0	-222808.0	-10361.0	-24898.0
14	18	10	57	65	248.0	-231605.0	-10374.0	-25320.0
14	18	10	57	66	249.0	-244494.0	-10369.0	-26532.0
14	18	10	57	66	250.0	-259487.0	-10370.0	-27292.0
14	18	10	57	67	251.0	-272602.0	-10369.0	-27478.0
14	18	10	57	68	252.0	-268091.0	-10358.0	-27390.0
14	18	10	57	68	253.0	-256470.0	-10354.0	-27047.0
14	18	10	57	69	254.0	-250749.0	-10357.0	-27436.0
14	18	10	57	70	255.0	-252374.0	-10349.0	-28181.0
14	18	10	57	70	0.0	-254599.0	-10336.0	-28691.0
14	18	10	57	71	1.0	-252169.0	-10343.0	-29961.0
14	18	10	57	71	2.0	-244210.0	-10336.0	-31762.0
14	18	10	57	72	3.0	-233955.0	-10332.0	-34027.0
14	18	10	57	72	4.0	-220987.0	-10357.0	-36642.0
14	18	10	57	86	5.0	-206110.0	-10337.0	-38712.0
14	18	10	57	87	6.0	-190065.0	-10327.0	-40253.0
14	18	10	57	88	7.0	-172144.0	-10333.0	-40825.0
14	18	10	57	89	8.0	-154771.0	-10318.0	-37104.0
14	18	10	57	89	9.0	-139746.0	-10315.0	-35226.0
14	18	10	57	90	10.0	-127881.0	-10310.0	-34840.0
14	18	10	57	90	11.0	-121617.0	-10314.0	-34723.0
14	18	10	57	109	12.0	-119979.0	-10310.0	-35273.0
14	18	10	57	110	13.0	-121395.0	-10296.0	-35354.0
14	18	10	57	110	14.0	-124450.0	-10278.0	-37012.0
14	18	10	57	111	15.0	-128931.0	-10276.0	-39951.0
14	18	10	57	112	16.0	-134450.0	-10292.0	-41130.0
14	18	10	57	112	17.0	-140389.0	-10291.0	-42059.0
14	18	10	57	113	18.0	-147137.0	-10287.0	-43066.0
14	18	10	57	113	19.0	-154050.0	-10282.0	-43306.0
14	18	10	57	114	20.0	-160402.0	-10256.0	-43561.0
14	18	10	57	115	21.0	-166282.0	-10250.0	-44408.0
14	18	10	57	115	22.0	-171934.0	-10259.0	-44659.0
14	18	10	57	116	23.0	-177307.0	-10238.0	-44677.0
14	18	10	57	117	24.0	-182709.0	-10231.0	-45472.0
14	18	10	57	117	25.0	-188496.0	-10239.0	-46877.0
14	18	10	57	118	26.0	-194443.0	-10227.0	-47401.0
14	18	10	57	132	27.0	-200471.0	-10198.0	-47999.0
14	18	10	57	132	28.0	-205445.0	-10196.0	-48645.0
14	18	10	57	133	29.0	-209315.0	-10209.0	-49029.0
14	18	10	57	134	30.0	-212528.0	-10202.0	-49337.0
