14	17	55	6	189	145.0	-219154.0	-16930.0	-3646.0
14	17	55	6	192	146.0	-219232.0	-16736.0	-4039.0
14	17	55	6	194	147.0	-219554.0	-16517.0	-4861.0
14	17	55	6	197	148.0	-220033.0	-16344.0	-4359.0
14	17	55	6	198	149.0	-220834.0	-16142.0	-4566.0
14	17	55	6	201	150.0	-222661.0	-15978.0	-4246.0
14	17	55	6	203	151.0	-224662.0	-15777.0	-4024.0
14	17	55	6	204	152.0	-225876.0	-15606.0	-3576.0
14	17	55	6	206	153.0	-226535.0	-15427.0	-4422.0
14	17	55	6	208	154.0	-226569.0	-15228.0	-4112.0
14	17	55	6	210	155.0	-225123.0	-15024.0	-3956.0
14	17	55	6	211	156.0	-222029.0	-14786.0	-3808.0
14	17	55	6	212	157.0	-217817.0	-14595.0	-4098.0
14	17	55	6	213	158.0	-212819.0	-14376.0	-3834.0
14	17	55	6	214	159.0	-206405.0	-14159.0	-3439.0
14	17	55	6	215	160.0	-197317.0	-14007.0	-3251.0
14	17	55	6	216	161.0	-185810.0	-13832.0	-3548.0
14	17	55	6	216	162.0	-174731.0	-13641.0	-3906.0
14	17	55	6	217	163.0	-167755.0	-13484.0	-3606.0
14	17	55	6	218	164.0	-170017.0	-13312.0	-2818.0
14	17	55	6	226	165.0	-174591.0	-13132.0	-2926.0
14	17	55	6	227	166.0	-180498.0	-12942.0	-2886.0
14	17	55	6	228	167.0	-185856.0	-12786.0	-2652.0
14	17	55	6	253	168.0	-188646.0	-12584.0	-2296.0
14	17	55	6	291	169.0	-189112.0	-12429.0	-2701.0
14	17	55	6	292	170.0	-189365.0	-12295.0	-3050.0
14	17	55	6	293	171.0	-190252.0	-12091.0	-3111.0
14	17	55	6	293	172.0	-190199.0	-11974.0	-2845.0
14	17	55	6	294	173.0	-188202.0	-11868.0	-2746.0
14	17	55	6	294	174.0	-186527.0	-11672.0	-2562.0
14	17	55	6	295	175.0	-185856.0	-11538.0	-2616.0
14	17	55	6	295	176.0	-185533.0	-11397.0	-2692.0
14	17	55	6	336	177.0	-185049.0	-11240.0	-2787.0
14	17	55	6	336	178.0	-184802.0	-11129.0	-2182.0
14	17	55	6	337	179.0	-184549.0	-10997.0	-2440.0
14	17	55	6	338	180.0	-184196.0	-10844.0	-2499.0
14	17	55	6	338	181.0	-184339.0	-10708.0	-2278.0
14	17	55	6	339	182.0	-185286.0	-10586.0	-2739.0
14	17	55	6	339	183.0	-186705.0	-10501.0	-2481.0
14	17	55	6	340	201.0	-196713.0	-8847.0	-2029.0
14	17	55	6	340	202.0	-197501.0	-8734.0	-1369.0
14	17	55	6	341	203.0	-198243.0	-8641.0	-1508.0
14	17	55	6	342	204.0	-199379.0	-8592.0	-1754.0
14	17	55	6	342	205.0	-200901.0	-8499.0	-1476.0
14	17	55	6	343	206.0	-202535.0	-8496.0	-892.0
14	17	55	6	343	207.0	-203037.0	-8452.0	-1024.0
14	17	55	6	344	208.0	-203383.0	-8312.0	-1173.0
14	17	55	6	345	224.0	-211916.0	-7880.0	-1337.0
14	17	55	6	345	225.0	-214160.0	-7897.0	-1160.0
14	17	55	6	357	226.0	-216607.0	-7897.0	-797.0
14	17	55	6	358	227.0	-219089.0	-7853.0	-962.0
14	17	55	6	358	228.0	-221286.0	-7873.0	-378.0
14	17	55	6	359	229.0	-223326.0	-7816.0	-538.0
14	17	55	6	381	230.0	-224997.0	-7831.0	-582.0
14	17	55	6	382	231.0	-225799.0	-7804.0	-609.0
14	17	55	6	382	232.0	-225889.0	-7861.0	-374.0
14	17	55	6	383	233.0	-223916.0	-7867.0	97.0
14	17	55	6	383	234.0	-221071.0	-7851.0	385.0
14	17	55	6	384	235.0	-218432.0	-7812.0	247.0
14	17	55	6	385	236.0	-215947.0	-7806.0	128.0
14	17	55	6	385	237.0	-213462.0	-7819.0	542.0
14	17	55	6	386	238.0	-210873.0	-7851.0	736.0
14	17	55	6	386	239.0	-208639.0	-7887.0	324.0
14	17	55	6	387	240.0	-206690.0	-7881.0	354.0
14	17	55	6	387	241.0	-204247.0	-7897.0	762.0
14	17	55	6	388	242.0	-202251.0	-7890.0	178.0
14	17	55	6	389	243.0	-200423.0	-7916.0	260.0
14	17	55	6	389	244.0	-199062.0	-7911.0	734.0
14	17	55	6	390	246.0	-197916.0	-7948.0	371.0
14	17	55	6	390	247.0	-197707.0	-7952.0	213.0
14	17	55	6	391	248.0	-197231.0	-7941.0	1303.0
14	17	55	6	392	249.0	-196547.0	-7964.0	928.0
14	17	55	6	392	250.0	-196501.0	-7994.0	949.0
14	17	55	6	393	251.0	-196593.0	-8009.0	1439.0
14	17	55	6	393	252.0	-195462.0	-8029.0	1402.0
14	17	55	6	426	253.0	-189251.0	-8011.0	871.0
14	17	55	6	427	254.0	-197417.0	-8012.0	1141.0
14	17	55	6	427	255.0	-200387.0	-8077.0	1266.0
14	17	55	6	428	0.0	-200847.0	-8071.0	1030.0
14	17	55	6	429	1.0	-203506.0	-8143.0	1542.0
14	17	55	6	429	2.0	-204005.0	-8172.0	714.0
14	17	55	6	430	3.0	-206679.0	-8185.0	1160.0
14	17	55	6	470	4.0	-208033.0	-8179.0	1423.0
14	17	55	6	471	5.0	-210572.0	-8176.0	1172.0
14	17	55	6	472	6.0	-213323.0	-8224.0	1035.0
14	17	55	6	473	7.0	-216235.0	-8267.0	1180.0
14	17	55	6	474	8.0	-218717.0	-8315.0	1595.0
14	17	55	6	475	9.0	-221378.0	-8336.0	830.0
14	17	55	6	475	10.0	-222887.0	-8311.0	980.0
14	17	55	6	476	11.0	-224236.0	-8333.0	1106.0
14	17	55	6	476	13.0	-224819.0	-8437.0	959.0
14	17	55	6	477	14.0	-223342.0	-8421.0	831.0
14	17	55	6	477	15.0	-221028.0	-8452.0	783.0
14	17	55	6	478	16.0	-217877.0	-8497.0	430.0
14	17	55	6	479	17.0	-214059.0	-8567.0	901.0
14	17	55	6	479	18.0	-209794.0	-8541.0	1048.0
14	17	55	6	480	19.0	-205123.0	-8562.0	746.0
14	17	55	6	480	20.0	-200707.0	-8564.0	599.0
14	17	55	6	481	35.0	-148653.0	-8877.0	924.0
14	17	55	6	481	36.0	-152484.0	-8954.0	539.0
14	17	55	6	482	37.0	-157909.0	-8978.0	184.0
14	17	55	6	483	38.0	-163636.0	-8962.0	757.0
14	17	55	6	483	39.0	-169188.0	-8979.0	225.0
14	17	55	6	484	40.0	-174532.0	-9014.0	963.0
14	17	55	6	484	41.0	-178601.0	-9034.0	-204.0
14	17	55	6	516	42.0	-181662.0	-9099.0	-94.0
14	17	55	6	516	43.0	-184401.0	-9156.0	-54.0
14	17	55	6	517	44.0	-186966.0	-9112.0	47.0
14	17	55	6	518	45.0	-188954.0	-9057.0	69.0
14	17	55	6	518	46.0	-190530.0	-9131.0	215.0
14	17	55	6	519	47.0	-191214.0	-9124.0	-53.0
14	17	55	6	519	48.0	-190788.0	-9106.0	-332.0
14	17	55	6	520	49.0	-189654.0	-9181.0	-40.0
14	17	55	6	520	50.0	-187836.0	-9253.0	-825.0
14	17	55	6	539	51.0	-185307.0	-9246.0	-259.0
14	17	55	6	540	52.0	-182509.0	-9230.0	-869.0
14	17	55	6	540	53.0	-179541.0	-9248.0	-1582.0
14	17	55	6	563	54.0	-176051.0	-9286.0	-1803.0
14	17	55	6	563	55.0	-172244.0	-9305.0	-1571.0
14	17	55	6	564	56.0	-169217.0	-9329.0	-1499.0
14	17	55	6	565	58.0	-164086.0	-9386.0	-1149.0
14	17	55	6	565	59.0	-162003.0	-9376.0	-1136.0
14	17	55	6	566	60.0	-158849.0	-9406.0	-599.0
14	17	55	6	566	61.0	-157167.0	-9414.0	-1523.0
14	17	55	6	567	62.0	-155901.0	-9401.0	-2270.0
14	17	55	6	567	63.0	-155629.0	-9428.0	-1156.0
14	17	55	6	568	64.0	-156007.0	-9466.0	-2259.0
14	17	55	6	569	65.0	-157390.0	-9430.0	-1798.0
14	17	55	6	569	66.0	-159615.0	-9479.0	-1321.0
14	17	55	6	570	67.0	-161487.0	-9509.0	-1185.0
14	17	55	6	570	68.0	-163859.0	-9577.0	-1130.0
14	17	55	6	571	69.0	-166371.0	-9562.0	-1099.0
14	17	55	6	571	70.0	-169109.0	-9567.0	-1124.0
14	17	55	6	572	80.0	-174232.0	-9756.0	84.0
14	17	55	6	573	81.0	-172347.0	-9804.0	-535.0
14	17	55	6	573	82.0	-169992.0	-9853.0	-204.0
14	17	55	6	574	83.0	-167688.0	-9845.0	-312.0
14	17	55	6	574	84.0	-165480.0	-9852.0	-468.0
14	17	55	6	575	85.0	-163116.0	-9896.0	-961.0
14	17	55	6	575	86.0	-160326.0	-9906.0	-392.0
14	17	55	6	606	87.0	-158227.0	-9909.0	-297.0
14	17	55	6	606	88.0	-156681.0	-9967.0	-266.0
14	17	55	6	607	89.0	-154780.0	-10037.0	-125.0
14	17	55	6	608	90.0	-152969.0	-10027.0	-279.0
14	17	55	6	609	91.0	-151772.0	-10032.0	232.0
14	17	55	6	609	92.0	-150817.0	-10089.0	-129.0
14	17	55	6	610	93.0	-150452.0	-10149.0	-27.0
14	17	55	6	652	94.0	-150218.0	-10161.0	224.0
14	17	55	6	652	95.0	-150484.0	-10176.0	49.0
14	17	55	6	653	96.0	-151394.0	-10182.0	93.0
14	17	55	6	653	97.0	-152884.0	-10251.0	655.0
14	17	55	6	654	98.0	-154384.0	-10254.0	524.0
14	17	55	6	655	99.0	-156589.0	-10299.0	-445.0
14	17	55	6	655	100.0	-159211.0	-10327.0	-89.0
14	17	55	6	656	101.0	-162589.0	-10354.0	694.0
14	17	55	6	656	102.0	-166041.0	-10393.0	535.0
14	17	55	6	657	103.0	-169752.0	-10392.0	-152.0
14	17	55	6	657	104.0	-173676.0	-10417.0	408.0
14	17	55	6	658	105.0	-177996.0	-10466.0	635.0
14	17	55	6	659	106.0	-182434.0	-10469.0	160.0
14	17	55	6	659	107.0	-186634.0	-10482.0	883.0
14	17	55	6	660	108.0	-190650.0	-10562.0	1090.0
14	17	55	6	660	109.0	-194336.0	-10657.0	1238.0
14	17	55	6	661	125.0	-200517.0	-11238.0	-5347.0
14	17	55	6	661	126.0	-197766.0	-11257.0	-5698.0
14	17	55	6	662	127.0	-194922.0	-11309.0	-5157.0
14	17	55	6	662	128.0	-192011.0	-11323.0	-3596.0
14	17	55	6	663	129.0	-189478.0	-11336.0	-764.0
14	17	55	6	664	130.0	-187764.0	-11402.0	1908.0
14	17	55	6	664	131.0	-187172.0	-11472.0	1837.0
14	17	55	6	696	132.0	-187719.0	-11494.0	2297.0
14	17	55	6	697	133.0	-188662.0	-11534.0	3421.0
14	17	55	6	698	134.0	-190125.0	-11591.0	4601.0
14	17	55	6	698	135.0	-192243.0	-11620.0	5753.0
14	17	55	6	699	136.0	-194408.0	-11627.0	8527.0
14	17	55	6	699	137.0	-196679.0	-11658.0	10818.0
14	17	55	6	700	138.0	-198902.0	-11749.0	12971.0
14	17	55	6	701	139.0	-201375.0	-11757.0	14224.0
14	17	55	6	701	140.0	-203763.0	-11801.0	14866.0
14	17	55	6	702	141.0	-205128.0	-11866.0	14668.0
14	17	55	6	702	142.0	-205278.0	-11926.0	13978.0
14	17	55	6	703	143.0	-204255.0	-11946.0	13891.0
14	17	55	6	704	144.0	-201160.0	-11964.0	12793.0
14	17	55	6	705	145.0	-195059.0	-12059.0	11460.0
14	17	55	6	706	146.0	-183430.0	-12111.0	9444.0
14	17	55	6	707	147.0	-166913.0	-12142.0	7721.0
14	17	55	6	707	148.0	-157486.0	-12140.0	6673.0
14	17	55	6	708	149.0	-153558.0	-12155.0	5611.0
14	17	55	6	708	150.0	-147690.0	-12243.0	5381.0
14	17	55	6	709	151.0	-148847.0	-12304.0	3911.0
14	17	55	6	709	152.0	-152644.0	-12317.0	4230.0
14	17	55	6	710	153.0	-162241.0	-12351.0	3686.0
14	17	55	6	741	154.0	-175411.0	-12406.0	3380.0
14	17	55	6	742	155.0	-191559.0	-12412.0	3108.0
14	17	55	6	742	156.0	-207456.0	-12462.0	2930.0
14	17	55	6	743	157.0	-220919.0	-12517.0	3303.0
14	17	55	6	743	158.0	-229952.0	-12549.0	3258.0
14	17	55	6	744	159.0	-233121.0	-12594.0	3502.0
14	17	55	6	744	160.0	-229976.0	-12647.0	3361.0
14	17	55	6	786	161.0	-223932.0	-12661.0	2998.0
14	17	55	6	831	162.0	-220251.0	-12729.0	2771.0
14	17	55	6	831	163.0	-218761.0	-12771.0	2200.0
14	17	55	6	832	164.0	-217591.0	-12821.0	2491.0
14	17	55	6	833	165.0	-217774.0	-12837.0	2528.0
14	17	55	6	833	166.0	-216821.0	-12843.0	2566.0
14	17	55	6	834	167.0	-212523.0	-12875.0	2698.0
14	17	55	6	834	168.0	-207886.0	-12972.0	2523.0
14	17	55	6	835	170.0	-206378.0	-13041.0	2688.0
14	17	55	6	922	171.0	-208988.0	-13079.0	2891.0
14	17	55	6	923	172.0	-212844.0	-13142.0	2487.0
14	17	55	6	924	173.0	-215645.0	-13180.0	2345.0
14	17	55	6	924	174.0	-217062.0	-13191.0	2312.0
14	17	55	6	925	175.0	-217565.0	-13237.0	2578.0
14	17	55	6	925	176.0	-217286.0	-13291.0	2158.0
14	17	55	6	926	177.0	-215381.0	-13349.0	2239.0
14	17	55	6	927	193.0	-170385.0	-13951.0	1270.0
14	17	55	6	927	215.0	-228351.0	-14943.0	2284.0
14	17	55	6	928	216.0	-224809.0	-14965.0	2569.0
14	17	55	6	928	217.0	-221176.0	-14979.0	2285.0
14	17	55	6	929	218.0	-217553.0	-15035.0	2227.0
14	17	55	6	929	219.0	-214026.0	-15066.0	1946.0
14	17	55	6	930	220.0	-210890.0	-15091.0	2012.0
14	17	55	6	931	221.0	-208498.0	-15133.0	2231.0
14	17	55	6	931	237.0	-195254.0	-15756.0	3078.0
14	17	55	6	932	4.0	-190176.0	-15531.0	5604.0
14	17	55	6	932	5.0	-187651.0	-15416.0	5669.0
14	17	55	6	967	6.0	-185534.0	-15357.0	6156.0
14	17	55	6	967	7.0	-183401.0	-15246.0	6185.0
14	17	55	6	968	8.0	-182003.0	-15121.0	5324.0
14	17	55	6	968	9.0	-181133.0	-14987.0	6018.0
14	17	55	6	969	10.0	-180566.0	-14879.0	5992.0
14	17	55	6	970	11.0	-180397.0	-14766.0	5780.0
14	17	55	6	970	12.0	-180574.0	-14614.0	5761.0
14	17	55	6	971	13.0	-181262.0	-14503.0	5484.0
14	17	55	6	971	14.0	-182491.0	-14375.0	5900.0
14	17	55	6	972	15.0	-184109.0	-14185.0	6293.0
14	17	55	7	12	16.0	-185874.0	-14044.0	6093.0
14	17	55	7	12	17.0	-188427.0	-13846.0	5885.0
14	17	55	7	13	18.0	-191704.0	-13739.0	6429.0
14	17	55	7	14	19.0	-195662.0	-13595.0	5210.0
14	17	55	7	14	20.0	-199522.0	-13444.0	5245.0
14	17	55	7	15	26.0	-227807.0	-12417.0	6203.0
14	17	55	7	16	27.0	-229797.0	-12244.0	6225.0
14	17	55	7	16	28.0	-230241.0	-12077.0	6577.0
14	17	55	7	17	29.0	-229670.0	-11941.0	6791.0
14	17	55	7	18	30.0	-227708.0	-11761.0	6067.0
14	17	55	7	19	31.0	-222082.0	-11572.0	6743.0
14	17	55	7	19	32.0	-212834.0	-11449.0	6574.0
14	17	55	7	20	33.0	-202552.0	-11286.0	5876.0
14	17	55	7	21	34.0	-193098.0	-11084.0	6436.0
14	17	55	7	21	35.0	-192097.0	-10959.0	6858.0
14	17	55	7	22	36.0	-194285.0	-10753.0	7076.0
14	17	55	7	23	49.0	-169397.0	-8961.0	6506.0
14	17	55	7	23	50.0	-170355.0	-8822.0	6343.0
14	17	55	7	24	51.0	-170981.0	-8698.0	6665.0
14	17	55	7	24	52.0	-173029.0	-8600.0	7211.0
14	17	55	7	25	53.0	-176473.0	-8478.0	7373.0
14	17	55	7	26	54.0	-180274.0	-8386.0	7350.0
14	17	55	7	57	55.0	-183974.0	-8279.0	7056.0
14	17	55	7	58	56.0	-187709.0	-8179.0	7105.0
14	17	55	7	59	57.0	-192418.0	-8092.0	7546.0
14	17	55	7	59	58.0	-197053.0	-8012.0	6885.0
14	17	55	7	60	59.0	-200409.0	-7872.0	7078.0
14	17	55	7	61	60.0	-203404.0	-7781.0	7242.0
14	17	55	7	61	61.0	-205752.0	-7727.0	6956.0
14	17	55	7	102	62.0	-207761.0	-7647.0	7468.0
14	17	55	7	146	63.0	-209370.0	-7514.0	7531.0
14	17	55	7	147	64.0	-210293.0	-7452.0	7634.0
14	17	55	7	148	65.0	-211336.0	-7361.0	7424.0
14	17	55	7	149	66.0	-211733.0	-7300.0	7724.0
14	17	55	7	149	67.0	-211764.0	-7278.0	7567.0
14	17	55	7	150	68.0	-211316.0	-7182.0	7238.0
14	17	55	7	151	69.0	-210841.0	-7123.0	7783.0
14	17	55	7	152	71.0	-209542.0	-7006.0	7563.0
14	17	55	7	152	72.0	-208649.0	-6937.0	7375.0
14	17	55	7	153	73.0	-207841.0	-6845.0	7238.0
14	17	55	7	154	74.0	-207211.0	-6791.0	7164.0
14	17	55	7	154	75.0	-206988.0	-6754.0	6979.0
14	17	55	7	155	76.0	-206344.0	-6662.0	7294.0
14	17	55	7	156	77.0	-205469.0	-6674.0	7571.0
14	17	55	7	157	78.0	-204307.0	-6596.0	7686.0
14	17	55	7	157	94.0	-196521.0	-6155.0	8204.0
14	17	55	7	158	116.0	-192498.0	-6159.0	9338.0
14	17	55	7	159	117.0	-189792.0	-6109.0	8635.0
14	17	55	7	159	118.0	-187079.0	-6146.0	8661.0
14	17	55	7	160	119.0	-184329.0	-6147.0	8690.0
14	17	55	7	160	120.0	-181342.0	-6153.0	8941.0
14	17	55	7	161	121.0	-178277.0	-6153.0	8935.0
14	17	55	7	192	122.0	-175771.0	-6195.0	8841.0
14	17	55	7	193	123.0	-173696.0	-6189.0	9251.0
14	17	55	7	193	124.0	-172161.0	-6168.0	9108.0
14	17	55	7	194	125.0	-171242.0	-6216.0	8608.0
14	17	55	7	195	126.0	-170414.0	-6234.0	9083.0
14	17	55	7	195	127.0	-169881.0	-6254.0	9138.0
14	17	55	7	196	128.0	-170041.0	-6224.0	9208.0
14	17	55	7	196	129.0	-170538.0	-6248.0	8657.0
14	17	55	7	197	130.0	-171889.0	-6282.0	8743.0
14	17	55	7	198	131.0	-173114.0	-6304.0	9219.0
14	17	55	7	198	132.0	-174083.0	-6349.0	9317.0
14	17	55	7	199	133.0	-175736.0	-6364.0	9657.0
14	17	55	7	200	134.0	-178147.0	-6398.0	9810.0
14	17	55	7	200	135.0	-180959.0	-6426.0	9109.0
14	17	55	7	201	136.0	-184183.0	-6432.0	8924.0
14	17	55	7	201	138.0	-190812.0	-6460.0	9713.0
14	17	55	7	202	139.0	-193998.0	-6460.0	9771.0
14	17	55	7	203	140.0	-197123.0	-6517.0	9402.0
14	17	55	7	203	141.0	-200626.0	-6546.0	9642.0
14	17	55	7	204	142.0	-203140.0	-6535.0	9951.0
14	17	55	7	204	143.0	-205060.0	-6539.0	9591.0
14	17	55	7	205	144.0	-206571.0	-6567.0	10135.0
14	17	55	7	237	145.0	-207475.0	-6596.0	9831.0
14	17	55	7	237	146.0	-207807.0	-6580.0	9698.0
14	17	55	7	238	147.0	-207492.0	-6620.0	9552.0
14	17	55	7	239	148.0	-206633.0	-6649.0	9614.0
14	17	55	7	239	149.0	-205962.0	-6626.0	9676.0
14	17	55	7	240	150.0	-204448.0	-6637.0	9872.0
14	17	55	7	241	151.0	-202744.0	-6667.0	9918.0
14	17	55	7	241	152.0	-201171.0	-6721.0	9595.0
14	17	55	7	281	153.0	-199101.0	-6730.0	10350.0
14	17	55	7	282	154.0	-196774.0	-6681.0	10213.0
14	17	55	7	283	155.0	-194176.0	-6722.0	9853.0
14	17	55	7	283	156.0	-192389.0	-6761.0	9779.0
14	17	55	7	284	157.0	-191343.0	-6763.0	10030.0
14	17	55	7	285	158.0	-190436.0	-6821.0	10227.0
14	17	55	7	285	159.0	-189498.0	-6837.0	10415.0
14	17	55	7	286	161.0	-186472.0	-6765.0	10198.0
14	17	55	7	287	162.0	-184754.0	-6811.0	9428.0
14	17	55	7	287	163.0	-183139.0	-6822.0	9934.0
14	17	55	7	288	164.0	-181649.0	-6844.0	10638.0
14	17	55	7	288	165.0	-180592.0	-6871.0	9927.0
14	17	55	7	289	166.0	-180191.0	-6887.0	10230.0
14	17	55	7	290	167.0	-179974.0	-6956.0	10238.0
14	17	55	7	290	168.0	-179536.0	-6963.0	10204.0
14	17	55	7	291	183.0	-208809.0	-7117.0	10530.0
14	17	55	7	292	184.0	-209736.0	-7142.0	10825.0
14	17	55	7	293	185.0	-210667.0	-7146.0	10303.0
14	17	55	7	293	186.0	-211384.0	-7142.0	9864.0
14	17	55	7	294	187.0	-211492.0	-7191.0	10123.0
14	17	55	7	295	188.0	-212031.0	-7172.0	9978.0
14	17	55	7	327	189.0	-212759.0	-7183.0	10101.0
14	17	55	7	327	190.0	-213173.0	-7198.0	10397.0
14	17	55	7	328	191.0	-212921.0	-7224.0	9778.0
14	17	55	7	329	192.0	-212614.0	-7239.0	10010.0
14	17	55	7	329	193.0	-212186.0	-7242.0	10579.0
14	17	55	7	330	194.0	-211333.0	-7274.0	10494.0
14	17	55	7	331	195.0	-210232.0	-7324.0	11314.0
14	17	55	7	331	196.0	-209189.0	-7326.0	11220.0
14	17	55	7	332	197.0	-208316.0	-7320.0	11056.0
14	17	55	7	333	198.0	-207093.0	-7327.0	11513.0
14	17	55	7	333	199.0	-206191.0	-7357.0	11503.0
14	17	55	7	334	200.0	-205917.0	-7353.0	11918.0
14	17	55	7	334	201.0	-205686.0	-7392.0	11470.0
14	17	55	7	335	202.0	-205273.0	-7369.0	11249.0
14	17	55	7	336	203.0	-204656.0	-7402.0	11526.0
14	17	55	7	336	205.0	-203532.0	-7450.0	11896.0
14	17	55	7	337	206.0	-203006.0	-7430.0	12119.0
14	17	55	7	337	207.0	-201905.0	-7441.0	11593.0
14	17	55	7	338	208.0	-200383.0	-7417.0	12033.0
14	17	55	7	339	209.0	-199509.0	-7449.0	11408.0
14	17	55	7	339	210.0	-199037.0	-7471.0	12119.0
14	17	55	7	340	211.0	-199126.0	-7488.0	12288.0
14	17	55	7	371	212.0	-199310.0	-7534.0	11378.0
14	17	55	7	372	213.0	-199279.0	-7540.0	11542.0
14	17	55	7	372	214.0	-199113.0	-7582.0	11880.0
14	17	55	7	373	215.0	-199366.0	-7591.0	11057.0
14	17	55	7	374	216.0	-199014.0	-7590.0	11314.0
14	17	55	7	374	217.0	-197812.0	-7629.0	11901.0
14	17	55	7	375	218.0	-197477.0	-7669.0	11764.0
14	17	55	7	376	219.0	-197215.0	-7681.0	11739.0
14	17	55	7	376	220.0	-196917.0	-7685.0	12281.0
14	17	55	7	377	221.0	-196978.0	-7715.0	11919.0
14	17	55	7	378	222.0	-197742.0	-7724.0	12478.0
14	17	55	7	378	223.0	-198251.0	-7786.0	11966.0
14	17	55	7	379	224.0	-198293.0	-7809.0	12172.0
14	17	55	7	380	225.0	-198817.0	-7806.0	12404.0
14	17	55	7	380	226.0	-199254.0	-7807.0	11626.0
14	17	55	7	381	228.0	-199136.0	-7883.0	12027.0
14	17	55	7	382	229.0	-199369.0	-7906.0	12116.0
14	17	55	7	382	230.0	-199287.0	-7989.0	11840.0
14	17	55	7	383	231.0	-199129.0	-8011.0	12192.0
14	17	55	7	383	232.0	-199237.0	-7976.0	13058.0
14	17	55	7	384	233.0	-200146.0	-8019.0	12226.0
14	17	55	7	416	234.0	-200895.0	-8051.0	12096.0
14	17	55	7	417	235.0	-201039.0	-8111.0	12859.0
14	17	55	7	418	236.0	-200991.0	-8134.0	12619.0
14	17	55	7	418	237.0	-201168.0	-8199.0	12173.0
14	17	55	7	419	238.0	-200072.0	-8179.0	12797.0
14	17	55	7	420	239.0	-196286.0	-8161.0	12653.0
14	17	55	7	420	240.0	-209031.0	-8231.0	12489.0
14	17	55	7	421	241.0	-206194.0	-8225.0	12693.0
14	17	55	7	422	242.0	-209319.0	-8282.0	13021.0
14	17	55	7	422	243.0	-208014.0	-8292.0	12837.0
14	17	55	7	423	244.0	-207879.0	-8324.0	12560.0
14	17	55	7	424	245.0	-207380.0	-8350.0	13681.0
14	17	55	7	424	246.0	-206842.0	-8409.0	13441.0
14	17	55	7	425	247.0	-206259.0	-8387.0	13471.0
14	17	55	7	425	248.0	-204843.0	-8421.0	13738.0
14	17	55	7	426	250.0	-200918.0	-8564.0	13791.0
14	17	55	7	427	251.0	-199095.0	-8607.0	13749.0
14	17	55	7	427	252.0	-196227.0	-8577.0	14104.0
14	17	55	7	428	253.0	-193224.0	-8643.0	12915.0
14	17	55	7	429	254.0	-189942.0	-8663.0	10971.0
14	17	55	7	429	255.0	-186224.0	-8678.0	9604.0
14	17	55	7	430	0.0	-183200.0	-8761.0	7299.0
14	17	55	7	462	1.0	-180647.0	-8765.0	5442.0
14	17	55	7	463	2.0	-178952.0	-8776.0	3499.0
14	17	55	7	464	3.0	-178007.0	-8815.0	4283.0
14	17	55	7	464	4.0	-177089.0	-8784.0	5313.0
14	17	55	7	465	5.0	-176127.0	-8863.0	6915.0
14	17	55	7	466	6.0	-175901.0	-8956.0	8753.0
14	17	55	7	466	7.0	-177216.0	-8934.0	9739.0
14	17	55	7	506	8.0	-179564.0	-8986.0	11533.0
14	17	55	7	507	9.0	-182264.0	-8988.0	13256.0
14	17	55	7	508	10.0	-185231.0	-9035.0	14381.0
14	17	55	7	509	11.0	-188876.0	-9101.0	15280.0
14	17	55	7	509	12.0	-192200.0	-9109.0	16644.0
14	17	55	7	510	13.0	-195235.0	-9148.0	18673.0
14	17	55	7	511	14.0	-198616.0	-9206.0	21188.0
14	17	55	7	511	15.0	-201992.0	-9241.0	22732.0
14	17	55	7	512	17.0	-206644.0	-9280.0	24044.0
14	17	55	7	513	18.0	-208579.0	-9346.0	24411.0
14	17	55	7	513	19.0	-209527.0	-9349.0	23688.0
14	17	55	7	514	20.0	-210201.0	-9362.0	23764.0
14	17	55	7	515	21.0	-209830.0	-9420.0	22478.0
14	17	55	7	515	22.0	-206646.0	-9469.0	21356.0
14	17	55	7	516	23.0	-199958.0	-9528.0	19985.0
14	17	55	7	517	24.0	-190151.0	-9606.0	18956.0
14	17	55	7	517	40.0	-197234.0	-10133.0	13156.0
14	17	55	7	518	41.0	-201217.0	-10247.0	13175.0
14	17	55	7	519	42.0	-202516.0	-10289.0	13349.0
14	17	55	7	520	43.0	-201844.0	-10287.0	12863.0
14	17	55	7	520	44.0	-200337.0	-10329.0	12854.0
14	17	55	7	521	45.0	-201169.0	-10367.0	13195.0
14	17	55	7	551	46.0	-205622.0	-10442.0	13548.0
14	17	55	7	552	47.0	-213977.0	-10476.0	13538.0
14	17	55	7	552	48.0	-222982.0	-10491.0	13204.0
14	17	55	7	553	49.0	-229817.0	-10531.0	13212.0
14	17	55	7	554	50.0	-232302.0	-10561.0	13538.0
14	17	55	7	554	51.0	-231557.0	-10600.0	13389.0
14	17	55	7	555	52.0	-229209.0	-10657.0	13451.0
14	17	55	7	596	53.0	-224778.0	-10711.0	14027.0
14	17	55	7	597	54.0	-219367.0	-10722.0	13453.0
14	17	55	7	598	55.0	-214037.0	-10762.0	13863.0
14	17	55	7	598	56.0	-208374.0	-10830.0	13959.0
14	17	55	7	599	57.0	-203686.0	-10894.0	13388.0
14	17	55	7	600	58.0	-199867.0	-10919.0	13011.0
14	17	55	7	600	59.0	-196616.0	-10927.0	13201.0
14	17	55	7	601	60.0	-192986.0	-10981.0	12973.0
14	17	55	7	601	62.0	-188063.0	-11074.0	12888.0
14	17	55	7	602	63.0	-187014.0	-11132.0	13135.0
14	17	55	7	603	64.0	-185617.0	-11179.0	12556.0
14	17	55	7	603	65.0	-184159.0	-11199.0	12974.0
14	17	55	7	604	66.0	-183542.0	-11217.0	12571.0
14	17	55	7	604	67.0	-182806.0	-11259.0	12688.0
14	17	55	7	605	68.0	-182152.0	-11312.0	12762.0
14	17	55	7	606	69.0	-181788.0	-11406.0	12538.0
14	17	55	7	606	84.0	-209555.0	-11962.0	12688.0
14	17	55	7	607	85.0	-210304.0	-12045.0	12706.0
14	17	55	7	608	86.0	-210492.0	-12068.0	12671.0
14	17	55	7	609	87.0	-209426.0	-12089.0	12873.0
14	17	55	7	610	88.0	-208092.0	-12125.0	12234.0
14	17	55	7	611	89.0	-206034.0	-12202.0	12138.0
14	17	55	7	611	90.0	-203537.0	-12246.0	12238.0
14	17	55	7	643	91.0	-200537.0	-12273.0	12354.0
14	17	55	7	643	92.0	-197502.0	-12286.0	12403.0
14	17	55	7	644	93.0	-194833.0	-12352.0	12247.0
14	17	55	7	645	94.0	-191664.0	-12378.0	12090.0
14	17	55	7	646	95.0	-188469.0	-12421.0	12202.0
14	17	55	7	646	96.0	-185227.0	-12435.0	12159.0
14	17	55	7	647	97.0	-181929.0	-12471.0	11324.0
14	17	55	7	648	98.0	-178989.0	-12492.0	11138.0
14	17	55	7	648	99.0	-176704.0	-12527.0	11418.0
14	17	55	7	649	100.0	-174858.0	-12588.0	11449.0
14	17	55	7	649	101.0	-173576.0	-12609.0	11629.0
14	17	55	7	650	102.0	-173607.0	-12679.0	11426.0
14	17	55	7	651	103.0	-173911.0	-12720.0	11538.0
14	17	55	7	651	104.0	-174479.0	-12772.0	12676.0
14	17	55	7	652	105.0	-175821.0	-12764.0	12279.0
14	17	55	7	687	107.0	-178687.0	-12862.0	12401.0
14	17	55	7	688	108.0	-180288.0	-12871.0	11900.0
14	17	55	7	689	109.0	-182036.0	-12934.0	12199.0
14	17	55	7	690	110.0	-184186.0	-12968.0	12368.0
14	17	55	7	690	111.0	-186001.0	-12996.0	12065.0
14	17	55	7	691	112.0	-188132.0	-13034.0	12356.0
14	17	55	7	692	113.0	-191053.0	-13062.0	12395.0
14	17	55	7	692	114.0	-193660.0	-13111.0	12589.0
14	17	55	7	693	115.0	-196147.0	-13086.0	12744.0
14	17	55	7	694	116.0	-198461.0	-13125.0	12974.0
14	17	55	7	695	117.0	-200446.0	-13153.0	12910.0
14	17	55	7	695	118.0	-201919.0	-13172.0	12596.0
14	17	55	7	696	119.0	-203717.0	-13171.0	13337.0
14	17	55	7	698	120.0	-205792.0	-13212.0	12802.0
14	17	55	7	698	121.0	-206493.0	-13209.0	13216.0
14	17	55	7	699	122.0	-206911.0	-13221.0	12883.0
14	17	55	7	700	129.0	-219118.0	-13244.0	13604.0
14	17	55	7	700	130.0	-219254.0	-13232.0	13668.0
14	17	55	7	701	131.0	-218961.0	-13225.0	13788.0
14	17	55	7	701	132.0	-218383.0	-13206.0	14579.0
14	17	55	7	702	133.0	-217554.0	-13181.0	14596.0
14	17	55	7	703	134.0	-216343.0	-13120.0	14326.0
14	17	55	7	703	135.0	-214269.0	-13071.0	14643.0
14	17	55	7	731	136.0	-211599.0	-13004.0	14963.0
14	17	55	7	732	137.0	-208656.0	-12908.0	14339.0
14	17	55	7	733	138.0	-205168.0	-12842.0	14469.0
14	17	55	7	734	139.0	-201702.0	-12799.0	14591.0
14	17	55	7	734	140.0	-198575.0	-12704.0	14415.0
14	17	55	7	735	141.0	-195556.0	-12583.0	14628.0
14	17	55	7	736	142.0	-192896.0	-12509.0	14818.0
14	17	55	7	822	143.0	-190829.0	-12397.0	14485.0
14	17	55	7	823	144.0	-189283.0	-12278.0	14407.0
14	17	55	7	824	145.0	-188007.0	-12164.0	14193.0
14	17	55	7	825	146.0	-187078.0	-12004.0	13866.0
14	17	55	7	827	147.0	-186444.0	-11916.0	14056.0
14	17	55	7	828	148.0	-186325.0	-11770.0	14075.0
14	17	55	7	828	149.0	-186957.0	-11631.0	13384.0
14	17	55	7	829	150.0	-187780.0	-11502.0	13243.0
14	17	55	7	830	151.0	-188852.0	-11397.0	13550.0
14	17	55	7	830	152.0	-189909.0	-11231.0	13833.0
14	17	55	7	831	153.0	-190962.0	-11047.0	13684.0
14	17	55	7	832	154.0	-192207.0	-10907.0	13493.0
14	17	55	7	832	155.0	-193465.0	-10736.0	13686.0
14	17	55	7	833	156.0	-194432.0	-10644.0	13448.0
14	17	55	7	834	157.0	-194882.0	-10492.0	13436.0
14	17	55	7	834	158.0	-194331.0	-10316.0	13678.0
14	17	55	7	835	197.0	-199274.0	-6211.0	13746.0
14	17	55	7	836	198.0	-197754.0	-6117.0	13730.0
14	17	55	7	836	199.0	-196045.0	-6076.0	13768.0
14	17	55	7	837	200.0	-194512.0	-6016.0	13279.0
14	17	55	7	837	201.0	-193281.0	-5972.0	13778.0
14	17	55	7	838	202.0	-192311.0	-5932.0	14014.0
14	17	55	7	867	203.0	-191357.0	-5878.0	14239.0
14	17	55	7	868	204.0	-190194.0	-5806.0	14421.0
14	17	55	7	869	205.0	-188904.0	-5757.0	14193.0
14	17	55	7	870	206.0	-188152.0	-5727.0	14411.0
14	17	55	7	870	207.0	-187845.0	-5686.0	14622.0
14	17	55	7	871	208.0	-187340.0	-5656.0	14324.0
14	17	55	7	872	209.0	-187223.0	-5648.0	14521.0
14	17	55	7	911	210.0	-187688.0	-5563.0	14581.0
14	17	55	7	912	211.0	-188334.0	-5522.0	14161.0
14	17	55	7	913	212.0	-189025.0	-5560.0	13932.0
14	17	55	7	914	213.0	-189837.0	-5526.0	14253.0
14	17	55	7	914	214.0	-190856.0	-5484.0	14660.0
14	17	55	7	915	215.0	-192068.0	-5506.0	14686.0
14	17	55	7	916	216.0	-193536.0	-5446.0	14712.0
14	17	55	7	957	217.0	-195025.0	-5386.0	14180.0
14	17	55	7	958	219.0	-197594.0	-5347.0	14552.0
14	17	55	7	959	220.0	-198574.0	-5327.0	14609.0
14	17	55	7	960	221.0	-199552.0	-5264.0	14719.0
14	17	55	7	961	222.0	-200950.0	-5286.0	14767.0
14	17	55	7	961	223.0	-202304.0	-5281.0	14739.0
14	17	55	7	962	224.0	-203476.0	-5266.0	15299.0
14	17	55	7	963	225.0	-204566.0	-5269.0	15318.0
14	17	55	7	963	226.0	-205613.0	-5247.0	15249.0
14	17	55	7	964	241.0	-208333.0	-5278.0	15948.0
14	17	55	7	965	242.0	-206989.0	-5253.0	15798.0
14	17	55	7	966	243.0	-205357.0	-5278.0	16116.0
14	17	55	7	966	244.0	-203817.0	-5287.0	16042.0
14	17	55	7	967	245.0	-202216.0	-5304.0	16201.0
14	17	55	7	968	246.0	-200493.0	-5322.0	16329.0
14	17	55	7	968	247.0	-198862.0	-5319.0	15583.0
14	17	55	7	969	8.0	-183600.0	-5566.0	14948.0
14	17	55	7	969	9.0	-183517.0	-5522.0	14836.0
14	17	55	7	970	10.0	-183310.0	-5530.0	14693.0
14	17	55	7	971	11.0	-182921.0	-5572.0	15004.0
14	17	55	7	971	12.0	-182418.0	-5619.0	15161.0
14	17	55	7	972	13.0	-181867.0	-5653.0	14853.0
14	17	55	8	1	14.0	-181694.0	-5660.0	14969.0
14	17	55	8	2	15.0	-181272.0	-5677.0	14696.0
14	17	55	8	3	16.0	-180796.0	-5701.0	14789.0
14	17	55	8	4	17.0	-180481.0	-5691.0	15394.0
14	17	55	8	5	18.0	-180586.0	-5692.0	15111.0
14	17	55	8	6	19.0	-181252.0	-5778.0	14446.0
14	17	55	8	6	20.0	-182228.0	-5832.0	14964.0
14	17	55	8	7	21.0	-183875.0	-5857.0	15309.0
14	17	55	8	8	22.0	-185815.0	-5822.0	15038.0
14	17	55	8	9	23.0	-188376.0	-5801.0	14589.0
14	17	55	8	9	24.0	-191492.0	-5796.0	14657.0
14	17	55	8	10	25.0	-194502.0	-5836.0	14857.0
14	17	55	8	11	26.0	-197362.0	-5907.0	14327.0
14	17	55	8	11	27.0	-200371.0	-5889.0	14619.0
14	17	55	8	12	28.0	-203881.0	-5888.0	15236.0
14	17	55	8	13	30.0	-208109.0	-5906.0	14401.0
14	17	55	8	13	31.0	-209145.0	-5940.0	14337.0
14	17	55	8	14	32.0	-209190.0	-5943.0	14992.0
14	17	55	8	15	33.0	-208874.0	-5922.0	14295.0
14	17	55	8	15	34.0	-208554.0	-5954.0	14704.0
14	17	55	8	16	35.0	-207694.0	-5957.0	13988.0
14	17	55	8	47	36.0	-206687.0	-5998.0	14736.0
14	17	55	8	48	37.0	-205388.0	-6011.0	14569.0
14	17	55	8	49	38.0	-203662.0	-6056.0	14319.0
14	17	55	8	50	39.0	-201866.0	-6042.0	14619.0
14	17	55	8	51	40.0	-199846.0	-6096.0	14231.0
14	17	55	8	51	41.0	-197776.0	-6055.0	13508.0
14	17	55	8	52	42.0	-195694.0	-6049.0	13881.0
14	17	55	8	53	43.0	-193545.0	-6041.0	14565.0
14	17	55	8	53	44.0	-191966.0	-6049.0	13815.0
14	17	55	8	54	45.0	-191041.0	-6026.0	13637.0
14	17	55	8	55	46.0	-190634.0	-6062.0	14120.0
14	17	55	8	56	47.0	-190588.0	-6155.0	13681.0
14	17	55	8	56	48.0	-190675.0	-6165.0	13635.0
14	17	55	8	57	49.0	-191432.0	-6206.0	13772.0
14	17	55	8	57	50.0	-192325.0	-6189.0	14131.0
14	17	55	8	58	52.0	-193811.0	-6212.0	14104.0
14	17	55	8	59	53.0	-194311.0	-6169.0	14364.0
14	17	55	8	59	54.0	-195174.0	-6174.0	13849.0
14	17	55	8	60	55.0	-196166.0	-6184.0	13825.0
14	17	55	8	91	56.0	-197376.0	-6197.0	15294.0
14	17	55	8	92	57.0	-198779.0	-6184.0	14744.0
14	17	55	8	93	58.0	-200063.0	-6208.0	14101.0
14	17	55	8	94	59.0	-201805.0	-6232.0	14694.0
14	17	55	8	94	60.0	-203664.0	-6277.0	14246.0
14	17	55	8	95	61.0	-204661.0	-6249.0	14251.0
14	17	55	8	96	62.0	-205373.0	-6264.0	14983.0
14	17	55	8	97	63.0	-205873.0	-6266.0	14545.0
14	17	55	8	97	64.0	-206031.0	-6318.0	14526.0
14	17	55	8	98	65.0	-206005.0	-6376.0	14540.0
14	17	55	8	99	66.0	-205918.0	-6288.0	15077.0
14	17	55	8	99	67.0	-205842.0	-6283.0	15176.0
14	17	55	8	100	68.0	-205604.0	-6314.0	14731.0
14	17	55	8	101	69.0	-205272.0	-6337.0	14551.0
14	17	55	8	101	70.0	-204968.0	-6341.0	14427.0
14	17	55	8	102	71.0	-204271.0	-6374.0	15013.0
14	17	55	8	103	75.0	-200640.0	-6432.0	15202.0
14	17	55	8	103	76.0	-199152.0	-6474.0	14841.0
14	17	55	8	104	77.0	-197396.0	-6484.0	14958.0
14	17	55	8	105	78.0	-195389.0	-6505.0	14731.0
14	17	55	8	105	79.0	-193575.0	-6499.0	15069.0
14	17	55	8	106	80.0	-192151.0	-6576.0	15147.0
14	17	55	8	106	81.0	-191504.0	-6539.0	14998.0
14	17	55	8	136	82.0	-191346.0	-6541.0	14658.0
14	17	55	8	137	83.0	-191581.0	-6579.0	14204.0
14	17	55	8	138	84.0	-192374.0	-6627.0	14571.0
14	17	55	8	162	85.0	-192909.0	-6649.0	14909.0
14	17	55	8	162	86.0	-192999.0	-6652.0	15360.0
14	17	55	8	163	87.0	-192966.0	-6628.0	14618.0
14	17	55	8	163	88.0	-192755.0	-6645.0	15029.0
14	17	55	8	164	89.0	-192621.0	-6642.0	15490.0
14	17	55	8	164	90.0	-192429.0	-6634.0	15048.0
14	17	55	8	165	91.0	-192427.0	-6636.0	14379.0
14	17	55	8	165	92.0	-192306.0	-6701.0	15150.0
14	17	55	8	166	93.0	-192299.0	-6767.0	14785.0
14	17	55	8	166	94.0	-192900.0	-6765.0	14738.0
14	17	55	8	167	95.0	-193706.0	-6789.0	14455.0
14	17	55	8	168	96.0	-194597.0	-6822.0	13748.0
14	17	55	8	168	97.0	-195803.0	-6834.0	14176.0
14	17	55	8	169	98.0	-196866.0	-6870.0	14654.0
14	17	55	8	169	99.0	-197694.0	-6856.0	14218.0
14	17	55	8	170	100.0	-198696.0	-6884.0	14004.0
14	17	55	8	170	101.0	-199589.0	-6887.0	13783.0
14	17	55	8	171	102.0	-200029.0	-6934.0	14001.0
14	17	55	8	171	103.0	-200303.0	-6964.0	14471.0
14	17	55	8	185	104.0	-201187.0	-7014.0	15443.0
14	17	55	8	186	105.0	-202251.0	-7022.0	15301.0
14	17	55	8	186	106.0	-203053.0	-7040.0	15068.0
14	17	55	8	187	107.0	-204065.0	-7087.0	15305.0
14	17	55	8	188	108.0	-204806.0	-7140.0	14936.0
14	17	55	8	188	109.0	-205044.0	-7142.0	14249.0
14	17	55	8	189	110.0	-205289.0	-7159.0	13246.0
14	17	55	8	226	111.0	-204857.0	-7191.0	12039.0
14	17	55	8	227	112.0	-203934.0	-7232.0	9424.0
14	17	55	8	227	113.0	-202505.0	-7242.0	7129.0
14	17	55	8	228	114.0	-200721.0	-7272.0	4803.0
14	17	55	8	229	115.0	-199101.0	-7344.0	3758.0
14	17	55	8	229	116.0	-197516.0	-7317.0	5041.0
14	17	55	8	230	117.0	-195867.0	-7306.0	7299.0
14	17	55	8	230	118.0	-194549.0	-7329.0	9389.0
14	17	55	8	231	120.0	-193796.0	-7418.0	11737.0
14	17	55	8	231	121.0	-194262.0	-7464.0	12676.0
14	17	55	8	232	122.0	-194763.0	-7452.0	14041.0
14	17	55	8	233	123.0	-195533.0	-7474.0	15558.0
14	17	55	8	233	124.0	-196626.0	-7506.0	16224.0
14	17	55	8	234	125.0	-198051.0	-7618.0	17649.0
14	17	55	8	234	126.0	-199644.0	-7711.0	19924.0
14	17	55	8	235	127.0	-201346.0	-7751.0	22025.0
14	17	55	8	235	143.0	-152694.0	-8274.0	13089.0
14	17	55	8	236	144.0	-161643.0	-8302.0	13291.0
14	17	55	8	244	145.0	-173359.0	-8316.0	12982.0
14	17	55	8	245	146.0	-185547.0	-8374.0	12497.0
14	17	55	8	245	147.0	-196710.0	-8384.0	12640.0
14	17	55	8	246	148.0	-206287.0	-8392.0	12496.0
14	17	55	8	271	149.0	-212599.0	-8409.0	12458.0
14	17	55	8	271	150.0	-215526.0	-8448.0	12013.0
14	17	55	8	272	151.0	-215684.0	-8497.0	12248.0
14	17	55	8	273	152.0	-214141.0	-8606.0	11158.0
14	17	55	8	273	153.0	-211104.0	-8606.0	11108.0
14	17	55	8	274	154.0	-207562.0	-8596.0	11051.0
14	17	55	8	274	155.0	-204468.0	-8621.0	11517.0
14	17	55	8	275	156.0	-202739.0	-8702.0	11565.0
14	17	55	8	275	157.0	-202703.0	-8736.0	11424.0
14	17	55	8	276	158.0	-204056.0	-8754.0	11550.0
14	17	55	8	277	159.0	-207705.0	-8841.0	11831.0
14	17	55	8	277	160.0	-212596.0	-8890.0	11176.0
14	17	55	8	278	161.0	-216894.0	-8926.0	11662.0
14	17	55	8	278	162.0	-218998.0	-8947.0	12271.0
14	17	55	8	279	163.0	-217301.0	-8962.0	11551.0
14	17	55	8	279	165.0	-206807.0	-9026.0	11708.0
14	17	55	8	280	166.0	-200570.0	-9114.0	11361.0
14	17	55	8	281	167.0	-194627.0	-9117.0	11315.0
14	17	55	8	281	168.0	-189144.0	-9184.0	11138.0
14	17	55	8	282	169.0	-184058.0	-9199.0	10809.0
14	17	55	8	282	170.0	-179736.0	-9212.0	10951.0
14	17	55	8	316	171.0	-176565.0	-9249.0	10831.0
14	17	55	8	317	172.0	-174334.0	-9281.0	11131.0
14	17	55	8	318	173.0	-172588.0	-9344.0	10897.0
14	17	55	8	318	174.0	-170483.0	-9369.0	11193.0
14	17	55	8	319	175.0	-167993.0	-9406.0	11418.0
14	17	55	8	319	176.0	-165537.0	-9460.0	11080.0
14	17	55	8	320	177.0	-163132.0	-9504.0	11021.0
14	17	55	8	320	178.0	-160464.0	-9553.0	11255.0
14	17	55	8	321	179.0	-158281.0	-9608.0	11144.0
14	17	55	8	322	180.0	-157007.0	-9641.0	11014.0
14	17	55	8	322	181.0	-156444.0	-9624.0	10854.0
14	17	55	8	323	182.0	-156607.0	-9627.0	11133.0
14	17	55	8	323	183.0	-157777.0	-9675.0	11376.0
14	17	55	8	324	184.0	-160016.0	-9731.0	10626.0
14	17	55	8	324	185.0	-162867.0	-9762.0	10855.0
14	17	55	8	325	187.0	-168825.0	-9842.0	10646.0
14	17	55	8	333	188.0	-172077.0	-9909.0	10616.0
14	17	55	8	334	189.0	-175437.0	-9931.0	10455.0
14	17	55	8	334	190.0	-179020.0	-9934.0	10754.0
14	17	55	8	335	191.0	-182931.0	-9981.0	10481.0
14	17	55	8	335	192.0	-186816.0	-10037.0	10149.0
14	17	55	8	336	193.0	-191077.0	-10060.0	10376.0
14	17	55	8	362	194.0	-195467.0	-10092.0	10119.0
14	17	55	8	363	195.0	-199273.0	-10133.0	10066.0
14	17	55	8	364	196.0	-202501.0	-10154.0	10642.0
14	17	55	8	364	197.0	-204979.0	-10146.0	10527.0
14	17	55	8	365	198.0	-207112.0	-10260.0	9720.0
14	17	55	8	365	199.0	-208762.0	-10305.0	9783.0
14	17	55	8	366	200.0	-209781.0	-10274.0	9754.0
14	17	55	8	367	201.0	-210172.0	-10338.0	10136.0
14	17	55	8	367	202.0	-210208.0	-10342.0	10028.0
14	17	55	8	406	203.0	-210135.0	-10334.0	9513.0
14	17	55	8	407	204.0	-209935.0	-10394.0	10238.0
14	17	55	8	407	205.0	-209522.0	-10456.0	10155.0
14	17	55	8	408	206.0	-208720.0	-10477.0	9619.0
14	17	55	8	409	207.0	-207499.0	-10587.0	10160.0
14	17	55	8	409	208.0	-206187.0	-10598.0	10127.0
14	17	55	8	410	210.0	-202809.0	-10600.0	9996.0
14	17	55	8	411	211.0	-199262.0	-10686.0	9693.0
14	17	55	8	411	212.0	-195203.0	-10668.0	10304.0
14	17	55	8	412	213.0	-204407.0	-10691.0	10211.0
14	17	55	8	413	214.0	-200659.0	-10721.0	10296.0
14	17	55	8	413	215.0	-200369.0	-10781.0	10712.0
14	17	55	8	414	216.0	-197531.0	-10792.0	10037.0
14	17	55	8	415	217.0	-196066.0	-10856.0	11088.0
14	17	55	8	415	218.0	-195203.0	-10877.0	10380.0
14	17	55	8	416	219.0	-194495.0	-10893.0	9806.0
14	17	55	8	417	232.0	-196965.0	-11191.0	10834.0
14	17	55	8	418	233.0	-197578.0	-11139.0	11511.0
14	17	55	8	419	234.0	-198056.0	-11171.0	11170.0
14	17	55	8	420	235.0	-198430.0	-11172.0	11346.0
14	17	55	8	420	236.0	-198827.0	-11157.0	11859.0
14	17	55	8	421	237.0	-199017.0	-11186.0	11861.0
14	17	55	8	421	238.0	-199073.0	-11151.0	11929.0
14	17	55	8	451	239.0	-199389.0	-11169.0	12159.0
14	17	55	8	452	240.0	-199822.0	-11181.0	11718.0
14	17	55	8	452	241.0	-200071.0	-11143.0	11887.0
14	17	55	8	453	242.0	-199848.0	-11165.0	12730.0
14	17	55	8	454	243.0	-199321.0	-11141.0	13272.0
14	17	55	8	454	244.0	-198317.0	-11100.0	13259.0
14	17	55	8	455	245.0	-197118.0	-11056.0	12892.0
14	17	55	8	455	246.0	-196119.0	-11027.0	13191.0
14	17	55	8	456	247.0	-195344.0	-10962.0	13503.0
14	17	55	8	457	248.0	-194654.0	-10841.0	13533.0
14	17	55	8	457	249.0	-194076.0	-10782.0	13440.0
14	17	55	8	458	250.0	-193701.0	-10700.0	12469.0
14	17	55	8	496	251.0	-193196.0	-10602.0	13056.0
14	17	55	8	497	252.0	-192649.0	-10477.0	13588.0
14	17	55	8	498	253.0	-192025.0	-10367.0	13176.0
14	17	55	8	498	254.0	-191200.0	-10268.0	13601.0
14	17	55	8	499	255.0	-190359.0	-10177.0	13519.0
14	17	55	8	500	0.0	-190166.0	-10017.0	14021.0
14	17	55	8	500	1.0	-190358.0	-9928.0	14132.0
14	17	55	8	501	2.0	-191033.0	-9809.0	14087.0
14	17	55	8	501	3.0	-191874.0	-9586.0	13976.0
14	17	55	8	502	4.0	-192868.0	-9467.0	13935.0
14	17	55	8	503	5.0	-193701.0	-9354.0	13453.0
14	17	55	8	504	6.0	-194722.0	-9164.0	13961.0
14	17	55	8	504	7.0	-196071.0	-8961.0	14504.0
14	17	55	8	505	8.0	-197861.0	-8801.0	14281.0
14	17	55	8	506	9.0	-199984.0	-8661.0	14674.0
14	17	55	8	506	10.0	-202266.0	-8533.0	14765.0
14	17	55	8	507	21.0	-207724.0	-6604.0	14641.0
14	17	55	8	508	22.0	-200167.0	-6414.0	14140.0
14	17	55	8	508	23.0	-191956.0	-6295.0	14399.0
14	17	55	8	509	24.0	-188497.0	-6089.0	14428.0
14	17	55	8	509	25.0	-188756.0	-5916.0	13923.0
14	17	55	8	510	26.0	-191237.0	-5814.0	14042.0
14	17	55	8	510	27.0	-197357.0	-5627.0	14115.0
14	17	55	8	540	28.0	-202275.0	-5445.0	14197.0
14	17	55	8	541	29.0	-203835.0	-5350.0	14045.0
14	17	55	8	542	30.0	-205139.0	-5201.0	13684.0
14	17	55	8	542	31.0	-205250.0	-4999.0	13960.0
14	17	55	8	543	32.0	-204115.0	-4867.0	14203.0
14	17	55	8	544	33.0	-201447.0	-4795.0	13541.0
14	17	55	8	544	34.0	-197676.0	-4693.0	14046.0
14	17	55	8	545	35.0	-194310.0	-4512.0	13373.0
14	17	55	8	545	36.0	-190951.0	-4317.0	13413.0
14	17	55	8	546	37.0	-186371.0	-4202.0	13872.0
14	17	55	8	546	38.0	-182091.0	-4049.0	14421.0
14	17	55	8	547	39.0	-177914.0	-3953.0	13913.0
14	17	55	8	548	40.0	-173194.0	-3857.0	13317.0
14	17	55	8	548	41.0	-169540.0	-3767.0	13821.0
14	17	55	8	549	42.0	-167966.0	-3642.0	13603.0
14	17	55	8	549	43.0	-168451.0	-3549.0	13420.0
14	17	55	8	550	44.0	-170936.0	-3436.0	13540.0
14	17	55	8	550	45.0	-174636.0	-3302.0	13478.0
14	17	55	8	586	46.0	-179171.0	-3241.0	14141.0
14	17	55	8	587	47.0	-184007.0	-3123.0	13756.0
14	17	55	8	588	48.0	-189294.0	-3049.0	13848.0
14	17	55	8	588	49.0	-194694.0	-2896.0	14197.0
14	17	55	8	589	50.0	-199462.0	-2816.0	14259.0
14	17	55	8	590	51.0	-203119.0	-2764.0	14290.0
14	17	55	8	590	52.0	-205675.0	-2677.0	13998.0
14	17	55	8	591	53.0	-207115.0	-2582.0	14137.0
14	17	55	8	592	54.0	-208242.0	-2533.0	14413.0
14	17	55	8	592	55.0	-208950.0	-2470.0	14064.0
14	17	55	8	593	56.0	-209642.0	-2426.0	14063.0
14	17	55	8	593	57.0	-210185.0	-2336.0	13904.0
14	17	55	8	594	58.0	-210146.0	-2299.0	13876.0
14	17	55	8	595	59.0	-209632.0	-2259.0	14310.0
14	17	55	8	595	60.0	-209241.0	-2182.0	14736.0
14	17	55	8	596	66.0	-202447.0	-1825.0	14398.0
14	17	55	8	596	67.0	-202631.0	-1792.0	14569.0
14	17	55	8	597	68.0	-202967.0	-1759.0	14157.0
14	17	55	8	597	69.0	-203511.0	-1711.0	14686.0
14	17	55	8	598	70.0	-203973.0	-1657.0	15023.0
14	17	55	8	599	71.0	-204276.0	-1594.0	14838.0
14	17	55	8	631	72.0	-204015.0	-1568.0	14576.0
14	17	55	8	632	73.0	-203047.0	-1537.0	15091.0
14	17	55	8	632	74.0	-201634.0	-1427.0	15254.0
14	17	55	8	633	75.0	-200691.0	-1461.0	14775.0
14	17	55	8	634	76.0	-199719.0	-1426.0	14681.0
14	17	55	8	634	77.0	-198687.0	-1393.0	15016.0
14	17	55	8	635	78.0	-197856.0	-1361.0	15173.0
14	17	55	8	677	79.0	-197029.0	-1366.0	15262.0
14	17	55	8	677	80.0	-196046.0	-1360.0	15473.0
14	17	55	8	678	81.0	-195159.0	-1342.0	14873.0
14	17	55	8	678	82.0	-194332.0	-1361.0	14876.0
14	17	55	8	679	83.0	-193052.0	-1336.0	15384.0
14	17	55	8	680	84.0	-192101.0	-1384.0	14976.0
14	17	55	8	680	85.0	-191642.0	-1374.0	14698.0
14	17	55	8	722	86.0	-191866.0	-1349.0	15454.0
14	17	55	8	722	88.0	-192212.0	-1369.0	15241.0
14	17	55	8	723	89.0	-192297.0	-1311.0	15431.0
14	17	55	8	724	90.0	-192767.0	-1270.0	15381.0
14	17	55	8	724	91.0	-193804.0	-1301.0	15784.0
14	17	55	8	725	92.0	-194667.0	-1269.0	15458.0
14	17	55	8	725	93.0	-195241.0	-1286.0	14823.0
14	17	55	8	726	94.0	-195742.0	-1301.0	15262.0
14	17	55	8	727	95.0	-196221.0	-1282.0	15261.0
14	17	55	8	727	111.0	-189546.0	-1489.0	15774.0
14	17	55	8	728	112.0	-188977.0	-1500.0	15924.0
14	17	55	8	728	113.0	-188253.0	-1561.0	15991.0
14	17	55	8	729	114.0	-187602.0	-1501.0	16448.0
14	17	55	8	730	115.0	-187009.0	-1552.0	16298.0
14	17	55	8	730	116.0	-186552.0	-1627.0	16386.0
14	17	55	8	731	117.0	-186360.0	-1622.0	16368.0
14	17	55	8	731	133.0	-176189.0	-1924.0	15824.0
14	17	55	8	732	134.0	-176471.0	-2032.0	16264.0
14	17	55	8	732	135.0	-177444.0	-2106.0	15799.0
14	17	55	8	733	136.0	-178802.0	-2129.0	16210.0
14	17	55	8	734	137.0	-180370.0	-2120.0	16166.0
14	17	55	8	734	138.0	-181873.0	-2109.0	16458.0
14	17	55	8	735	139.0	-183419.0	-2167.0	16794.0
14	17	55	8	767	140.0	-185409.0	-2219.0	16399.0
14	17	55	8	767	141.0	-187221.0	-2166.0	16551.0
14	17	55	8	768	142.0	-188987.0	-2219.0	16606.0
14	17	55	8	769	143.0	-190946.0	-2255.0	15943.0
14	17	55	8	769	144.0	-193347.0	-2312.0	16524.0
14	17	55	8	770	145.0	-195865.0	-2277.0	16913.0
14	17	55	8	813	146.0	-198430.0	-2302.0	16728.0
14	17	55	8	813	147.0	-201037.0	-2377.0	16701.0
14	17	55	8	814	148.0	-203568.0	-2414.0	16602.0
14	17	55	8	815	149.0	-205787.0	-2431.0	16548.0
14	17	55	8	815	150.0	-207715.0	-2437.0	16208.0
14	17	55	8	816	151.0	-209309.0	-2454.0	16394.0
14	17	55	8	817	152.0	-210517.0	-2466.0	16272.0
14	17	55	8	817	153.0	-211770.0	-2427.0	16393.0
14	17	55	8	818	154.0	-212784.0	-2391.0	16792.0
14	17	55	8	818	156.0	-213994.0	-2543.0	16034.0
14	17	55	8	819	157.0	-214284.0	-2551.0	16287.0
14	17	55	8	820	158.0	-214797.0	-2570.0	16680.0
14	17	55	8	820	159.0	-215089.0	-2597.0	16589.0
14	17	55	8	821	160.0	-214986.0	-2617.0	16832.0
14	17	55	8	821	161.0	-214633.0	-2609.0	17314.0
14	17	55	8	822	162.0	-214058.0	-2684.0	16869.0
14	17	55	8	823	178.0	-185396.0	-2956.0	16067.0
14	17	55	8	823	179.0	-183261.0	-2985.0	16329.0
14	17	55	8	824	180.0	-181459.0	-3002.0	16096.0
14	17	55	8	824	181.0	-179896.0	-2994.0	15508.0
14	17	55	8	825	182.0	-178672.0	-3004.0	15659.0
14	17	55	8	825	183.0	-177813.0	-3022.0	15848.0
14	17	55	8	826	184.0	-177338.0	-3108.0	15458.0
14	17	55	8	902	185.0	-177610.0	-3106.0	15852.0
14	17	55	8	902	186.0	-178291.0	-3087.0	15994.0
14	17	55	8	903	187.0	-179479.0	-3103.0	16156.0
14	17	55	8	904	188.0	-180964.0	-3159.0	16285.0
14	17	55	8	904	189.0	-182472.0	-3132.0	16283.0
14	17	55	8	905	190.0	-184049.0	-3149.0	16531.0
14	17	55	8	906	191.0	-185848.0	-3182.0	16303.0
14	17	55	8	906	192.0	-188346.0	-3204.0	16310.0
14	17	55	8	907	193.0	-191030.0	-3202.0	16284.0
14	17	55	8	907	194.0	-194208.0	-3287.0	16091.0
14	17	55	8	908	195.0	-197615.0	-3315.0	16078.0
14	17	55	8	909	196.0	-200776.0	-3329.0	17206.0
14	17	55	8	909	197.0	-203572.0	-3367.0	16682.0
14	17	55	8	910	198.0	-205799.0	-3421.0	16724.0
14	17	55	8	910	199.0	-207764.0	-3417.0	16668.0
14	17	55	8	911	200.0	-209735.0	-3429.0	16881.0
14	17	55	8	912	223.0	-189552.0	-4151.0	17278.0
14	17	55	8	912	224.0	-188871.0	-4134.0	17313.0
14	17	55	8	913	225.0	-188489.0	-4134.0	18096.0
14	17	55	8	913	226.0	-188385.0	-4176.0	17126.0
14	17	55	8	914	227.0	-188073.0	-4203.0	18201.0
14	17	55	8	915	228.0	-187704.0	-4312.0	18551.0
14	17	55	8	915	229.0	-187216.0	-4272.0	17942.0
14	17	55	8	956	230.0	-186551.0	-4319.0	17136.0
14	17	55	8	956	231.0	-185915.0	-4381.0	17529.0
14	17	55	8	957	232.0	-185343.0	-4394.0	17980.0
14	17	55	8	958	233.0	-184997.0	-4459.0	17769.0
14	17	55	8	958	234.0	-184742.0	-4502.0	18296.0
14	17	55	8	959	235.0	-184743.0	-4566.0	18404.0
14	17	55	8	959	236.0	-185228.0	-4584.0	18501.0
14	17	55	8	960	237.0	-186069.0	-4618.0	18718.0
14	17	55	8	960	238.0	-187312.0	-4626.0	18922.0
14	17	55	8	961	239.0	-188814.0	-4664.0	19238.0
14	17	55	8	962	240.0	-190404.0	-4697.0	18134.0
14	17	55	8	962	241.0	-192246.0	-4735.0	17888.0
14	17	55	8	963	242.0	-194335.0	-4805.0	17344.0
14	17	55	8	963	243.0	-196347.0	-4822.0	15049.0
14	17	55	8	964	244.0	-198287.0	-4854.0	13576.0
14	17	55	8	964	245.0	-199757.0	-4876.0	12005.0
14	17	55	8	965	246.0	-201787.0	-4917.0	10799.0
14	17	55	8	965	247.0	-203946.0	-5017.0	10196.0
14	17	55	8	966	248.0	-205671.0	-5020.0	10872.0
14	17	55	8	967	249.0	-207597.0	-5048.0	14146.0
14	17	55	8	967	250.0	-209479.0	-5082.0	16416.0
14	17	55	8	968	251.0	-211712.0	-5082.0	18451.0
14	17	55	8	991	252.0	-214371.0	-5154.0	18258.0
14	17	55	8	992	253.0	-217385.0	-5197.0	18861.0
14	17	55	8	993	254.0	-220160.0	-5191.0	19918.0
14	17	55	8	994	255.0	-222675.0	-5262.0	20249.0
14	17	55	8	994	0.0	-224995.0	-5303.0	22386.0
14	17	55	8	995	1.0	-225919.0	-5323.0	24186.0
14	17	55	8	995	2.0	-229066.0	-5414.0	25707.0
14	17	55	9	36	3.0	-231505.0	-5487.0	29046.0
14	17	55	9	36	4.0	-231914.0	-5484.0	29369.0
14	17	55	9	37	5.0	-231603.0	-5520.0	28773.0
14	17	55	9	38	6.0	-229797.0	-5546.0	29529.0
14	17	55	9	38	7.0	-226456.0	-5618.0	29523.0
14	17	55	9	39	8.0	-220982.0	-5676.0	27753.0
14	17	55	9	40	9.0	-212379.0	-5729.0	26635.0
14	17	55	9	40	10.0	-198520.0	-5802.0	25696.0
14	17	55	9	41	12.0	-162420.0	-5931.0	22463.0
14	17	55	9	42	13.0	-149161.0	-5924.0	20700.0
14	17	55	9	42	14.0	-141081.0	-5967.0	19568.0
14	17	55	9	43	15.0	-138278.0	-6034.0	19084.0
14	17	55	9	43	16.0	-139866.0	-6054.0	18334.0
14	17	55	9	44	17.0	-145607.0	-6085.0	17816.0
14	17	55	9	45	18.0	-154671.0	-6111.0	17423.0
14	17	55	9	45	19.0	-166497.0	-6189.0	18267.0
14	17	55	9	46	34.0	-194089.0	-6974.0	16584.0
14	17	55	9	47	35.0	-198717.0	-6980.0	16364.0
14	17	55	9	47	36.0	-204767.0	-6989.0	16681.0
14	17	55	9	48	37.0	-210591.0	-7007.0	16453.0
14	17	55	9	48	38.0	-214722.0	-7066.0	16581.0
14	17	55	9	49	39.0	-217588.0	-7089.0	16311.0
14	17	55	9	57	40.0	-219607.0	-7145.0	16056.0
14	17	55	9	83	41.0	-219970.0	-7198.0	16137.0
14	17	55	9	83	42.0	-217951.0	-7246.0	16318.0
14	17	55	9	84	43.0	-213512.0	-7246.0	16118.0
14	17	55	9	85	44.0	-207950.0	-7275.0	16054.0
14	17	55	9	85	45.0	-202158.0	-7339.0	16386.0
14	17	55	9	86	46.0	-197330.0	-7407.0	15994.0
14	17	55	9	86	47.0	-193252.0	-7421.0	15619.0
14	17	55	9	87	48.0	-189939.0	-7442.0	15709.0
14	17	55	9	126	49.0	-187153.0	-7572.0	16541.0
14	17	55	9	127	50.0	-184652.0	-7560.0	15751.0
14	17	55	9	128	51.0	-182429.0	-7628.0	15995.0
14	17	55	9	129	52.0	-180584.0	-7713.0	15820.0
14	17	55	9	129	53.0	-178392.0	-7729.0	15604.0
14	17	55	9	130	54.0	-175459.0	-7738.0	15324.0
14	17	55	9	130	55.0	-172232.0	-7821.0	15557.0
14	17	55	9	131	57.0	-166102.0	-7889.0	15554.0
14	17	55	9	132	58.0	-164341.0	-7879.0	15525.0
14	17	55	9	132	59.0	-163481.0	-7939.0	15495.0
14	17	55	9	141	60.0	-163515.0	-7984.0	15651.0
14	17	55	9	141	61.0	-164781.0	-8014.0	15440.0
14	17	55	9	142	62.0	-167044.0	-8103.0	15245.0
14	17	55	9	142	63.0	-169792.0	-8163.0	15040.0
14	17	55	9	143	64.0	-173134.0	-8161.0	14889.0
14	17	55	9	144	79.0	-206446.0	-8735.0	13803.0
14	17	55	9	144	80.0	-218186.0	-8851.0	13588.0
14	17	55	9	145	81.0	-210650.0	-8901.0	14246.0
14	17	55	9	145	82.0	-211176.0	-8901.0	13365.0
14	17	55	9	146	83.0	-206238.0	-8917.0	13441.0
14	17	55	9	146	84.0	-204191.0	-8974.0	13908.0
14	17	55	9	171	85.0	-200809.0	-9004.0	13041.0
14	17	55	9	172	86.0	-198622.0	-9017.0	12984.0
14	17	55	9	173	87.0	-196918.0	-9061.0	12636.0
14	17	55	9	173	88.0	-195291.0	-9085.0	13081.0
14	17	55	9	174	89.0	-193601.0	-9137.0	13381.0
14	17	55	9	175	90.0	-192487.0	-9166.0	13729.0
14	17	55	9	175	91.0	-191614.0	-9177.0	13302.0
14	17	55	9	176	92.0	-191024.0	-9238.0	13166.0
14	17	55	9	176	93.0	-190465.0	-9278.0	13081.0
14	17	55	9	177	94.0	-190202.0	-9277.0	12923.0
14	17	55	9	178	95.0	-190119.0	-9341.0	13076.0
14	17	55	9	178	96.0	-190636.0	-9361.0	13043.0
14	17	55	9	179	97.0	-191542.0	-9426.0	13049.0
14	17	55	9	180	98.0	-192759.0	-9448.0	13054.0
14	17	55	9	181	99.0	-194086.0	-9481.0	12461.0
14	17	55	9	181	101.0	-195753.0	-9521.0	12700.0
14	17	55	9	182	102.0	-197044.0	-9532.0	12838.0
14	17	55	9	183	103.0	-198807.0	-9517.0	13111.0
14	17	55	9	184	104.0	-200287.0	-9526.0	12508.0
14	17	55	9	184	105.0	-201261.0	-9556.0	12912.0
14	17	55	9	185	106.0	-201934.0	-9569.0	12673.0
14	17	55	9	185	107.0	-202359.0	-9597.0	12649.0
14	17	55	9	216	108.0	-202596.0	-9631.0	12526.0
14	17	55	9	262	109.0	-202314.0	-9611.0	12931.0
14	17	55	9	263	110.0	-202051.0	-9605.0	12909.0
14	17	55	9	263	111.0	-201437.0	-9572.0	12908.0
14	17	55	9	264	112.0	-200681.0	-9612.0	13209.0
14	17	55	9	264	113.0	-199875.0	-9650.0	12977.0
14	17	55	9	265	114.0	-199297.0	-9663.0	12803.0
14	17	55	9	265	115.0	-198657.0	-9646.0	12799.0
14	17	55	9	266	116.0	-198191.0	-9627.0	12861.0
14	17	55	9	267	117.0	-197486.0	-9553.0	13136.0
14	17	55	9	267	118.0	-196808.0	-9541.0	13006.0
14	17	55	9	268	119.0	-196335.0	-9607.0	13481.0
14	17	55	9	268	120.0	-195844.0	-9519.0	13867.0
14	17	55	9	269	121.0	-195151.0	-9487.0	13757.0
14	17	55	9	306	122.0	-194369.0	-9431.0	13708.0
14	17	55	9	306	124.0	-193566.0	-9310.0	13474.0
14	17	55	9	307	125.0	-193165.0	-9258.0	13673.0
14	17	55	9	307	147.0	-216356.0	-6347.0	15997.0
14	17	55	9	308	148.0	-217012.0	-6203.0	15168.0
14	17	55	9	309	149.0	-217586.0	-6006.0	15308.0
14	17	55	9	310	150.0	-217647.0	-5843.0	15506.0
14	17	55	9	310	151.0	-217071.0	-5702.0	15742.0
14	17	55	9	311	152.0	-215541.0	-5597.0	15358.0
14	17	55	9	311	153.0	-213334.0	-5439.0	15165.0
14	17	55	9	312	154.0	-209851.0	-5281.0	15751.0
14	17	55	9	312	155.0	-203187.0	-5149.0	16125.0
14	17	55	9	313	156.0	-193379.0	-4994.0	15738.0
14	17	55	9	314	157.0	-182697.0	-4882.0	15322.0
14	17	55	9	314	158.0	-173245.0	-4751.0	15641.0
14	17	55	9	315	159.0	-170059.0	-4657.0	16055.0
14	17	55	9	315	169.0	-165300.0	-3488.0	16342.0
14	17	55	9	316	170.0	-165378.0	-3394.0	16297.0
14	17	55	9	316	171.0	-167354.0	-3313.0	16767.0
14	17	55	9	317	172.0	-169919.0	-3199.0	16317.0
14	17	55	9	317	173.0	-172453.0	-3079.0	16579.0
14	17	55	9	318	174.0	-174899.0	-2957.0	16405.0
14	17	55	9	319	175.0	-177391.0	-2882.0	16247.0
14	17	55	9	351	176.0	-179791.0	-2799.0	16106.0
14	17	55	9	352	177.0	-182047.0	-2759.0	16021.0
14	17	55	9	352	178.0	-184211.0	-2688.0	16417.0
14	17	55	9	353	179.0	-186544.0	-2560.0	16588.0
14	17	55	9	354	180.0	-188890.0	-2521.0	16708.0
14	17	55	9	354	181.0	-191462.0	-2474.0	16658.0
14	17	55	9	355	182.0	-193894.0	-2397.0	16598.0
14	17	55	9	355	183.0	-196086.0	-2305.0	16199.0
14	17	55	9	356	184.0	-198068.0	-2231.0	16890.0
14	17	55	9	356	185.0	-200307.0	-2201.0	16224.0
14	17	55	9	357	186.0	-202596.0	-2148.0	16706.0
14	17	55	9	358	187.0	-204938.0	-2085.0	16650.0
14	17	55	9	358	188.0	-207364.0	-2042.0	16078.0
14	17	55	9	359	189.0	-210175.0	-1976.0	16243.0
14	17	55	9	359	190.0	-213034.0	-1906.0	16638.0
14	17	55	9	360	191.0	-215832.0	-1795.0	16491.0
14	17	55	9	360	192.0	-218406.0	-1730.0	16343.0
14	17	55	9	361	193.0	-220584.0	-1716.0	16587.0
14	17	55	9	369	194.0	-222258.0	-1679.0	16623.0
14	17	55	9	370	195.0	-223472.0	-1672.0	16721.0
14	17	55	9	370	196.0	-224347.0	-1591.0	16993.0
14	17	55	9	371	197.0	-224649.0	-1533.0	16578.0
14	17	55	9	395	198.0	-224223.0	-1532.0	16858.0
14	17	55	9	396	199.0	-223697.0	-1488.0	17104.0
14	17	55	9	396	200.0	-222997.0	-1444.0	17561.0
14	17	55	9	397	201.0	-221594.0	-1441.0	17378.0
14	17	55	9	397	202.0	-219369.0	-1422.0	16983.0
14	17	55	9	398	203.0	-216683.0	-1347.0	16571.0
14	17	55	9	399	204.0	-213757.0	-1340.0	16789.0
14	17	55	9	441	205.0	-210071.0	-1289.0	17261.0
14	17	55	9	442	206.0	-206186.0	-1277.0	16731.0
14	17	55	9	442	207.0	-202296.0	-1270.0	16750.0
14	17	55	9	443	208.0	-198572.0	-1237.0	16642.0
14	17	55	9	443	209.0	-194932.0	-1247.0	16763.0
14	17	55	9	486	210.0	-192016.0	-1211.0	16771.0
14	17	55	9	487	211.0	-189464.0	-1218.0	16654.0
14	17	55	9	501	212.0	-187272.0	-1187.0	16678.0
14	17	55	9	501	214.0	-183832.0	-1166.0	16410.0
14	17	55	9	502	215.0	-182493.0	-1165.0	16603.0
14	17	55	9	503	216.0	-181811.0	-1083.0	16061.0
14	17	55	9	503	217.0	-181352.0	-1119.0	15769.0
14	17	55	9	504	218.0	-181288.0	-1089.0	16491.0
14	17	55	9	504	219.0	-181546.0	-1065.0	16586.0
14	17	55	9	505	220.0	-182563.0	-1114.0	16865.0
14	17	55	9	532	221.0	-184521.0	-1095.0	16579.0
14	17	55	9	532	236.0	-201137.0	-1123.0	16747.0
14	17	55	9	533	237.0	-201184.0	-1186.0	15896.0
14	17	55	9	533	238.0	-200562.0	-1186.0	16109.0
14	17	55	9	534	239.0	-199724.0	-1205.0	16791.0
14	17	55	9	535	240.0	-198664.0	-1251.0	16464.0
14	17	55	9	535	3.0	-194102.0	-1613.0	17037.0
14	17	55	9	536	4.0	-194607.0	-1628.0	16915.0
14	17	55	9	536	5.0	-195288.0	-1611.0	17109.0
14	17	55	9	537	6.0	-195767.0	-1664.0	16708.0
14	17	55	9	537	7.0	-195951.0	-1750.0	17029.0
14	17	55	9	538	8.0	-195725.0	-1776.0	16508.0
14	17	55	9	539	9.0	-195569.0	-1779.0	16484.0
14	17	55	9	539	10.0	-195756.0	-1814.0	16114.0
14	17	55	9	540	11.0	-195990.0	-1852.0	15913.0
14	17	55	9	541	12.0	-196103.0	-1842.0	16096.0
14	17	55	9	541	25.0	-186761.0	-2106.0	16686.0
14	17	55	9	542	26.0	-185419.0	-2123.0	16161.0
14	17	55	9	542	27.0	-184210.0	-2144.0	16764.0
14	17	55	9	543	28.0	-182811.0	-2126.0	16565.0
14	17	55	9	544	29.0	-181644.0	-2187.0	16503.0
14	17	55	9	544	30.0	-180854.0	-2244.0	16726.0
14	17	55	9	545	31.0	-180447.0	-2255.0	16624.0
14	17	55	9	576	32.0	-180640.0	-2251.0	16729.0
14	17	55	9	600	33.0	-181037.0	-2234.0	16672.0
14	17	55	9	601	34.0	-182049.0	-2334.0	16691.0
14	17	55	9	602	35.0	-183744.0	-2379.0	16649.0
14	17	55	9	602	36.0	-185854.0	-2374.0	16108.0
14	17	55	9	603	37.0	-188506.0	-2357.0	16403.0
14	17	55	9	603	38.0	-191277.0	-2369.0	16298.0
14	17	55	9	624	39.0	-193927.0	-2376.0	16393.0
14	17	55	9	625	40.0	-196249.0	-2419.0	16344.0
14	17	55	9	626	41.0	-198147.0	-2414.0	16274.0
14	17	55	9	626	42.0	-200081.0	-2464.0	15954.0
14	17	55	9	627	43.0	-201744.0	-2522.0	16332.0
14	17	55	9	627	44.0	-203315.0	-2562.0	16661.0
14	17	55	9	628	45.0	-204414.0	-2495.0	16481.0
14	17	55	9	628	46.0	-205286.0	-2562.0	16178.0
14	17	55	9	629	47.0	-205719.0	-2590.0	16466.0
14	17	55	9	629	48.0	-205968.0	-2578.0	15773.0
14	17	55	9	630	49.0	-206331.0	-2602.0	16409.0
14	17	55	9	667	50.0	-206958.0	-2643.0	16264.0
14	17	55	9	668	51.0	-207044.0	-2662.0	16440.0
14	17	55	9	668	52.0	-206715.0	-2683.0	16394.0
14	17	55	9	669	53.0	-206448.0	-2734.0	16434.0
14	17	55	9	669	54.0	-206257.0	-2761.0	16142.0
14	17	55	9	670	70.0	-185416.0	-3203.0	16099.0
14	17	55	9	671	71.0	-185447.0	-3227.0	15348.0
14	17	55	9	671	72.0	-185580.0	-3256.0	15592.0
14	17	55	9	672	73.0	-185982.0	-3278.0	15853.0
14	17	55	9	672	74.0	-186467.0	-3337.0	15812.0
14	17	55	9	673	75.0	-187146.0	-3349.0	15954.0
14	17	55	9	673	76.0	-187705.0	-3447.0	15881.0
14	17	55	9	674	77.0	-187987.0	-3446.0	15742.0
14	17	55	9	675	78.0	-188626.0	-3424.0	16079.0
14	17	55	9	675	79.0	-189445.0	-3396.0	16852.0
14	17	55	9	676	92.0	-200562.0	-3930.0	17096.0
14	17	55	9	676	93.0	-202624.0	-3986.0	16606.0
14	17	55	9	677	94.0	-204723.0	-4000.0	16896.0
14	17	55	9	677	95.0	-206104.0	-4077.0	17234.0
14	17	55	9	678	96.0	-207049.0	-4131.0	16446.0
14	17	55	9	679	97.0	-207787.0	-4167.0	16280.0
14	17	55	9	679	98.0	-208512.0	-4132.0	16583.0
14	17	55	9	711	99.0	-208717.0	-4179.0	16454.0
14	17	55	9	711	100.0	-208647.0	-4241.0	16769.0
14	17	55	9	712	101.0	-208656.0	-4274.0	16379.0
14	17	55	9	713	102.0	-208876.0	-4340.0	16837.0
14	17	55	9	713	103.0	-209076.0	-4349.0	16538.0
14	17	55	9	714	104.0	-209457.0	-4392.0	16594.0
14	17	55	9	714	105.0	-210189.0	-4448.0	16881.0
14	17	55	9	756	106.0	-210540.0	-4475.0	17142.0
14	17	55	9	757	107.0	-210451.0	-4496.0	16824.0
14	17	55	9	758	108.0	-209657.0	-4596.0	16669.0
14	17	55	9	758	109.0	-208540.0	-4624.0	16848.0
14	17	55	9	759	110.0	-207112.0	-4639.0	16831.0
14	17	55	9	759	111.0	-205409.0	-4644.0	16744.0
14	17	55	9	760	112.0	-203471.0	-4709.0	16524.0
14	17	55	9	761	113.0	-201186.0	-4737.0	16509.0
14	17	55	9	761	115.0	-197037.0	-4861.0	16454.0
14	17	55	9	762	116.0	-194952.0	-4876.0	16301.0
14	17	55	9	762	117.0	-192891.0	-4929.0	16011.0
14	17	55	9	763	118.0	-191319.0	-5001.0	16477.0
14	17	55	9	763	119.0	-189904.0	-4991.0	16711.0
14	17	55	9	764	120.0	-188495.0	-5031.0	16049.0
14	17	55	9	765	121.0	-187107.0	-5053.0	15842.0
14	17	55	9	765	122.0	-186241.0	-5106.0	16397.0
14	17	55	9	766	138.0	-196636.0	-5767.0	8981.0
14	17	55	9	766	139.0	-196488.0	-5848.0	10348.0
14	17	55	9	767	140.0	-196639.0	-5886.0	12665.0
14	17	55	9	767	141.0	-197087.0	-5872.0	14842.0
14	17	55	9	768	142.0	-197932.0	-5928.0	15780.0
14	17	55	9	801	143.0	-199166.0	-5947.0	16359.0
14	17	55	9	801	144.0	-200439.0	-5972.0	16780.0
14	17	55	9	802	145.0	-202102.0	-6002.0	17802.0
14	17	55	9	803	146.0	-204002.0	-6057.0	19196.0
14	17	55	9	803	147.0	-206400.0	-6086.0	21187.0
14	17	55	9	804	148.0	-208851.0	-6130.0	23277.0
14	17	55	9	805	149.0	-210954.0	-6204.0	25724.0
14	17	55	9	805	150.0	-213024.0	-6254.0	27065.0
14	17	55	9	806	151.0	-215130.0	-6261.0	27677.0
14	17	55	9	806	152.0	-216555.0	-6300.0	27597.0
14	17	55	9	807	153.0	-216484.0	-6368.0	26973.0
14	17	55	9	808	154.0	-215307.0	-6396.0	27024.0
14	17	55	9	808	155.0	-212547.0	-6497.0	25651.0
14	17	55	9	809	156.0	-207377.0	-6516.0	24103.0
14	17	55	9	809	157.0	-198454.0	-6553.0	22488.0
14	17	55	9	810	158.0	-184221.0	-6559.0	20886.0
14	17	55	9	810	160.0	-157666.0	-6652.0	18089.0
14	17	55	9	811	161.0	-151043.0	-6703.0	16871.0
14	17	55	9	812	162.0	-150371.0	-6707.0	17081.0
14	17	55	9	812	163.0	-154887.0	-6734.0	16098.0
14	17	55	9	813	164.0	-163869.0	-6815.0	15416.0
14	17	55	9	813	165.0	-176525.0	-6824.0	15408.0
14	17	55	9	846	166.0	-191947.0	-6847.0	15614.0
14	17	55	9	847	167.0	-207617.0	-6918.0	14786.0
14	17	55	9	847	168.0	-221059.0	-6922.0	14899.0
14	17	55	9	848	169.0	-230557.0	-6978.0	15054.0
14	17	55	9	848	170.0	-234629.0	-6979.0	14982.0
14	17	55	9	849	171.0	-231686.0	-7002.0	14934.0
14	17	55	9	849	172.0	-224247.0	-7077.0	15186.0
14	17	55	9	892	173.0	-217586.0	-7087.0	14514.0
14	17	55	9	893	174.0	-213937.0	-7120.0	14811.0
14	17	55	9	893	175.0	-211471.0	-7191.0	14763.0
14	17	55	9	894	176.0	-209478.0	-7280.0	14437.0
14	17	55	9	894	177.0	-206410.0	-7311.0	14468.0
14	17	55	9	895	178.0	-201025.0	-7320.0	14189.0
14	17	55	9	896	179.0	-194919.0	-7337.0	13973.0
14	17	55	9	896	180.0	-190636.0	-7361.0	14689.0
14	17	55	9	897	182.0	-191119.0	-7401.0	14872.0
14	17	55	9	897	183.0	-193741.0	-7384.0	14333.0
14	17	55	9	898	184.0	-196229.0	-7459.0	14031.0
14	17	55	9	899	185.0	-197995.0	-7516.0	14383.0
14	17	55	9	899	186.0	-199732.0	-7541.0	14486.0
14	17	55	9	900	187.0	-200966.0	-7582.0	14043.0
14	17	55	9	900	188.0	-200996.0	-7627.0	13847.0
14	17	55	9	901	189.0	-199184.0	-7677.0	13864.0
14	17	55	9	937	205.0	-186222.0	-8252.0	13476.0
14	17	55	9	938	206.0	-185487.0	-8257.0	13142.0
14	17	55	9	938	207.0	-185511.0	-8257.0	13352.0
14	17	55	9	939	208.0	-185851.0	-8337.0	13468.0
14	17	55	9	939	209.0	-186446.0	-8430.0	13112.0
14	17	55	9	940	210.0	-187207.0	-8383.0	13485.0
14	17	55	9	941	211.0	-188062.0	-8412.0	13557.0
14	17	55	9	941	212.0	-189055.0	-8451.0	13721.0
14	17	55	9	942	213.0	-189934.0	-8464.0	14001.0
14	17	55	9	943	214.0	-191086.0	-8536.0	14326.0
14	17	55	9	943	215.0	-192524.0	-8576.0	13933.0
14	17	55	9	944	216.0	-194301.0	-8581.0	14264.0
14	17	55	9	944	217.0	-195672.0	-8554.0	14778.0
14	17	55	9	945	218.0	-196660.0	-8624.0	13788.0
14	17	55	9	945	219.0	-197611.0	-8685.0	13579.0
14	17	55	9	946	227.0	-203613.0	-8946.0	12486.0
14	17	55	9	947	228.0	-202522.0	-8919.0	12923.0
14	17	55	9	947	229.0	-201118.0	-8979.0	13119.0
14	17	55	9	948	230.0	-199473.0	-9006.0	12878.0
14	17	55	9	948	231.0	-197692.0	-9039.0	12621.0
14	17	55	9	949	232.0	-195648.0	-9046.0	12849.0
14	17	55	9	980	233.0	-193445.0	-9080.0	13297.0
14	17	55	9	981	234.0	-191322.0	-9083.0	12872.0
14	17	55	9	982	235.0	-189285.0	-9081.0	12808.0
14	17	55	9	982	236.0	-187275.0	-9109.0	12876.0
14	17	55	9	983	237.0	-185334.0	-9187.0	12646.0
14	17	55	9	984	238.0	-183482.0	-9223.0	12409.0
14	17	55	9	984	239.0	-181764.0	-9256.0	12856.0
14	17	55	9	985	240.0	-180711.0	-9231.0	13072.0
14	17	55	9	985	241.0	-180132.0	-9244.0	12781.0
14	17	55	9	986	242.0	-180046.0	-9303.0	12496.0
14	17	55	9	987	243.0	-180114.0	-9327.0	12845.0
14	17	55	9	988	244.0	-180061.0	-9346.0	12773.0
14	17	55	9	988	245.0	-180118.0	-9346.0	12736.0
14	17	55	9	989	246.0	-180094.0	-9392.0	12940.0
14	17	55	9	989	247.0	-180114.0	-9409.0	12687.0
14	17	55	9	990	249.0	-180432.0	-9400.0	12623.0
14	17	55	9	991	250.0	-180723.0	-9394.0	12633.0
14	17	55	9	992	251.0	-181002.0	-9441.0	13216.0
14	17	55	9	993	252.0	-181436.0	-9487.0	13509.0
14	17	55	9	993	253.0	-182069.0	-9474.0	13171.0
14	17	55	9	994	254.0	-182862.0	-9499.0	12986.0
14	17	55	9	995	255.0	-183856.0	-9524.0	13111.0
14	17	55	10	26	0.0	-184990.0	-9477.0	13519.0
14	17	55	10	26	1.0	-186131.0	-9460.0	13388.0
14	17	55	10	27	2.0	-187247.0	-9474.0	13354.0
14	17	55	10	28	3.0	-188188.0	-9497.0	13504.0
14	17	55	10	28	4.0	-189214.0	-9446.0	13998.0
14	17	55	10	29	5.0	-190557.0	-9422.0	14349.0
14	17	55	10	30	6.0	-192220.0	-9438.0	14343.0
14	17	55	10	30	7.0	-193999.0	-9406.0	14613.0
14	17	55	10	31	8.0	-195743.0	-9382.0	14062.0
14	17	55	10	32	9.0	-197116.0	-9351.0	14107.0
14	17	55	10	32	10.0	-198109.0	-9267.0	14454.0
14	17	55	10	33	11.0	-198992.0	-9253.0	14220.0
14	17	55	10	33	12.0	-199847.0	-9227.0	13972.0
14	17	55	10	34	13.0	-200559.0	-9141.0	13856.0
14	17	55	10	34	14.0	-201388.0	-9071.0	14088.0
14	17	55	10	35	16.0	-202496.0	-8962.0	14183.0
14	17	55	10	36	17.0	-203024.0	-8847.0	14515.0
14	17	55	10	36	18.0	-203429.0	-8742.0	13797.0
14	17	55	10	37	19.0	-203900.0	-8622.0	14128.0
14	17	55	10	37	20.0	-204276.0	-8536.0	13421.0
14	17	55	10	38	21.0	-204801.0	-8411.0	14151.0
14	17	55	10	71	22.0	-205769.0	-8246.0	14173.0
14	17	55	10	72	23.0	-206394.0	-8096.0	14103.0
14	17	55	10	72	24.0	-206394.0	-7944.0	13944.0
14	17	55	10	73	25.0	-205849.0	-7794.0	14754.0
14	17	55	10	74	26.0	-205151.0	-7711.0	14197.0
14	17	55	10	74	27.0	-204082.0	-7524.0	13807.0
14	17	55	10	75	28.0	-202790.0	-7391.0	14275.0
14	17	55	10	75	29.0	-201364.0	-7211.0	13996.0
14	17	55	10	76	30.0	-199821.0	-7092.0	13778.0
14	17	55	10	77	31.0	-198484.0	-6872.0	14020.0
14	17	55	10	77	32.0	-197666.0	-6676.0	14109.0
14	17	55	10	78	33.0	-197171.0	-6571.0	13623.0
14	17	55	10	79	34.0	-196914.0	-6434.0	13837.0
14	17	55	10	79	35.0	-197002.0	-6251.0	14727.0
14	17	55	10	80	36.0	-197413.0	-6099.0	14109.0
14	17	55	10	81	38.0	-198967.0	-5786.0	14250.0
14	17	55	10	82	39.0	-199623.0	-5651.0	14779.0
14	17	55	10	82	40.0	-200275.0	-5457.0	14754.0
14	17	55	10	83	41.0	-201207.0	-5286.0	14272.0
14	17	55	10	84	42.0	-201958.0	-5113.0	14564.0
14	17	55	10	84	43.0	-202231.0	-4889.0	14399.0
14	17	55	10	85	44.0	-201784.0	-4777.0	14521.0
14	17	55	10	115	45.0	-198335.0	-4681.0	14966.0
14	17	55	10	116	46.0	-190712.0	-4484.0	14974.0
14	17	55	10	117	47.0	-183022.0	-4354.0	14788.0
14	17	55	10	117	48.0	-177726.0	-4204.0	14776.0
14	17	55	10	118	49.0	-179828.0	-4130.0	14965.0
14	17	55	10	118	50.0	-185844.0	-3925.0	14316.0
14	17	55	10	162	51.0	-194231.0	-3758.0	14883.0
14	17	55	10	163	52.0	-202596.0	-3630.0	14651.0
14	17	55	10	164	53.0	-207240.0	-3511.0	14411.0
14	17	55	10	165	54.0	-209000.0	-3372.0	14389.0
14	17	55	10	165	55.0	-209359.0	-3276.0	14398.0
14	17	55	10	166	56.0	-210000.0	-3144.0	14699.0
14	17	55	10	166	57.0	-210396.0	-2996.0	14792.0
14	17	55	10	168	58.0	-208724.0	-2869.0	14606.0
14	17	55	10	168	59.0	-205672.0	-2787.0	14138.0
14	17	55	10	170	61.0	-203377.0	-2569.0	14412.0
14	17	55	10	171	62.0	-202871.0	-2422.0	14262.0
14	17	55	10	172	63.0	-202301.0	-2337.0	14767.0
14	17	55	10	172	64.0	-201684.0	-2251.0	14673.0
14	17	55	10	173	65.0	-201265.0	-2152.0	14518.0
14	17	55	10	174	66.0	-201392.0	-2064.0	14689.0
14	17	55	10	174	67.0	-201994.0	-1972.0	14503.0
14	17	55	10	175	83.0	-199649.0	-855.0	14171.0
14	17	55	10	175	84.0	-199676.0	-836.0	14518.0
14	17	55	10	176	85.0	-199795.0	-801.0	13513.0
14	17	55	10	177	86.0	-199822.0	-716.0	13966.0
14	17	55	10	177	87.0	-200146.0	-663.0	14364.0
14	17	55	10	178	88.0	-200483.0	-589.0	13930.0
14	17	55	10	178	89.0	-201045.0	-576.0	13598.0
14	17	55	10	207	90.0	-202135.0	-562.0	14157.0
14	17	55	10	208	91.0	-203956.0	-513.0	13778.0
14	17	55	10	209	92.0	-205644.0	-474.0	13889.0
14	17	55	10	209	93.0	-207206.0	-399.0	13742.0
14	17	55	10	210	94.0	-208811.0	-392.0	13959.0
14	17	55	10	211	95.0	-209817.0	-367.0	14240.0
14	17	55	10	211	96.0	-209933.0	-381.0	14002.0
14	17	55	10	212	97.0	-209771.0	-358.0	13890.0
14	17	55	10	213	98.0	-209409.0	-319.0	14107.0
14	17	55	10	213	99.0	-208636.0	-278.0	13664.0
14	17	55	10	214	100.0	-207924.0	-238.0	13413.0
14	17	55	10	215	101.0	-207367.0	-219.0	14248.0
14	17	55	10	215	102.0	-206944.0	-217.0	14261.0
14	17	55	10	216	103.0	-206586.0	-218.0	14354.0
14	17	55	10	216	104.0	-205979.0	-212.0	14423.0
14	17	55	10	217	106.0	-203791.0	-146.0	14274.0
14	17	55	10	218	107.0	-202302.0	-127.0	14039.0
14	17	55	10	218	108.0	-200574.0	-64.0	14254.0
14	17	55	10	219	109.0	-198614.0	-54.0	13924.0
14	17	55	10	219	110.0	-196281.0	-84.0	14203.0
14	17	55	10	220	111.0	-193975.0	-81.0	13581.0
14	17	55	10	252	112.0	-191614.0	-57.0	15004.0
14	17	55	10	253	113.0	-189230.0	-90.0	14668.0
14	17	55	10	254	114.0	-186644.0	-85.0	14606.0
14	17	55	10	254	115.0	-184081.0	-90.0	15143.0
14	17	55	10	255	116.0	-181709.0	-76.0	15065.0
14	17	55	10	256	117.0	-179955.0	-60.0	14113.0
14	17	55	10	256	118.0	-178319.0	-46.0	14302.0
14	17	55	10	257	119.0	-177138.0	-73.0	14382.0
14	17	55	10	258	120.0	-176268.0	-58.0	13908.0
14	17	55	10	258	121.0	-175886.0	-39.0	14582.0
14	17	55	10	259	122.0	-176021.0	-139.0	14501.0
14	17	55	10	260	123.0	-176412.0	-139.0	14304.0
14	17	55	10	261	124.0	-176596.0	-134.0	14108.0
14	17	55	10	261	125.0	-177065.0	-136.0	14472.0
14	17	55	10	262	126.0	-177839.0	-202.0	14166.0
14	17	55	10	263	128.0	-179114.0	-190.0	14236.0
14	17	55	10	263	129.0	-179738.0	-179.0	14333.0
14	17	55	10	264	130.0	-180759.0	-180.0	14056.0
14	17	55	10	265	131.0	-181901.0	-194.0	14676.0
14	17	55	10	265	132.0	-183357.0	-229.0	14341.0
14	17	55	10	266	133.0	-184611.0	-243.0	14266.0
14	17	55	10	296	134.0	-185894.0	-289.0	13771.0
14	17	55	10	297	135.0	-186947.0	-309.0	14194.0
14	17	55	10	298	136.0	-187629.0	-293.0	14071.0
14	17	55	10	298	137.0	-187509.0	-286.0	14022.0
14	17	55	10	299	138.0	-185964.0	-336.0	14341.0
14	17	55	10	300	139.0	-183707.0	-354.0	14591.0
14	17	55	10	300	140.0	-180609.0	-337.0	14388.0
14	17	55	10	301	141.0	-178031.0	-380.0	14488.0
14	17	55	10	301	142.0	-175845.0	-421.0	14761.0
14	17	55	10	302	143.0	-174812.0	-449.0	14483.0
14	17	55	10	303	144.0	-174172.0	-439.0	14704.0
14	17	55	10	303	145.0	-174060.0	-474.0	15136.0
14	17	55	10	304	146.0	-174517.0	-511.0	15014.0
14	17	55	10	305	147.0	-175741.0	-542.0	14921.0
14	17	55	10	305	148.0	-177527.0	-524.0	14843.0
14	17	55	10	306	150.0	-182417.0	-582.0	14081.0
14	17	55	10	306	151.0	-184606.0	-626.0	14351.0
14	17	55	10	307	152.0	-186837.0	-624.0	13972.0
14	17	55	10	308	153.0	-189046.0	-654.0	14326.0
14	17	55	10	308	154.0	-190956.0	-672.0	15158.0
14	17	55	10	309	155.0	-192664.0	-712.0	15530.0
14	17	55	10	309	156.0	-194426.0	-751.0	15130.0
14	17	55	10	341	157.0	-196279.0	-761.0	14924.0
14	17	55	10	342	158.0	-198320.0	-778.0	14708.0
14	17	55	10	343	159.0	-199639.0	-801.0	14758.0
14	17	55	10	343	160.0	-200688.0	-794.0	14451.0
14	17	55	10	344	161.0	-201094.0	-791.0	14457.0
14	17	55	10	345	162.0	-201330.0	-831.0	14839.0
14	17	55	10	345	163.0	-201136.0	-867.0	15029.0
14	17	55	10	346	164.0	-200782.0	-873.0	14780.0
14	17	55	10	347	165.0	-200444.0	-898.0	15256.0
14	17	55	10	347	166.0	-199958.0	-995.0	14959.0
14	17	55	10	348	167.0	-199902.0	-1039.0	14419.0
14	17	55	10	388	168.0	-199820.0	-1019.0	14736.0
14	17	55	10	432	169.0	-199601.0	-1026.0	14403.0
14	17	55	10	433	170.0	-199080.0	-1012.0	14871.0
14	17	55	10	433	173.0	-199326.0	-1071.0	15146.0
14	17	55	10	434	174.0	-199047.0	-1106.0	15314.0
14	17	55	10	435	175.0	-198750.0	-1140.0	15739.0
14	17	55	10	435	176.0	-198929.0	-1163.0	15574.0
14	17	55	10	436	177.0	-199101.0	-1177.0	15344.0
14	17	55	10	475	178.0	-199153.0	-1224.0	15089.0
14	17	55	10	476	179.0	-199032.0	-1216.0	15635.0
14	17	55	10	477	180.0	-199063.0	-1231.0	15204.0
14	17	55	10	477	181.0	-199127.0	-1230.0	14924.0
14	17	55	10	478	182.0	-199158.0	-1264.0	15416.0
14	17	55	10	479	183.0	-199568.0	-1299.0	15503.0
14	17	55	10	479	184.0	-199489.0	-1333.0	15223.0
14	17	55	10	480	195.0	-202745.0	-1579.0	15915.0
14	17	55	10	481	218.0	-197230.0	-2047.0	14516.0
14	17	55	10	481	219.0	-198470.0	-2067.0	13936.0
14	17	55	10	482	220.0	-199781.0	-2100.0	14028.0
14	17	55	10	482	221.0	-200929.0	-2114.0	14896.0
14	17	55	10	483	222.0	-201562.0	-2144.0	14156.0
14	17	55	10	483	223.0	-202236.0	-2205.0	13271.0
14	17	55	10	484	224.0	-203963.0	-2251.0	14336.0
14	17	55	10	484	225.0	-206149.0	-2251.0	14469.0
14	17	55	10	485	241.0	-197387.0	-2684.0	14569.0
14	17	55	10	485	242.0	-194412.0	-2740.0	14263.0
14	17	55	10	486	243.0	-191312.0	-2774.0	14453.0
14	17	55	10	487	244.0	-188412.0	-2812.0	14441.0
14	17	55	10	487	245.0	-185267.0	-2812.0	14153.0
14	17	55	10	495	246.0	-182154.0	-2863.0	14750.0
14	17	55	10	521	247.0	-179758.0	-2907.0	14324.0
14	17	55	10	522	248.0	-177713.0	-2959.0	13981.0
14	17	55	10	522	249.0	-176059.0	-2981.0	14185.0
14	17	55	10	523	250.0	-175454.0	-3024.0	14246.0
14	17	55	10	523	251.0	-174917.0	-3057.0	14619.0
14	17	55	10	524	252.0	-175212.0	-3071.0	14443.0
14	17	55	10	525	253.0	-176464.0	-3104.0	14509.0
14	17	55	10	566	254.0	-177687.0	-3137.0	14255.0
14	17	55	10	567	255.0	-179027.0	-3186.0	14693.0
14	17	55	10	567	0.0	-180886.0	-3183.0	15076.0
14	17	55	10	568	1.0	-182096.0	-3216.0	14268.0
14	17	55	10	568	2.0	-183309.0	-3274.0	14399.0
14	17	55	10	569	3.0	-185199.0	-3316.0	14372.0
14	17	55	10	570	4.0	-187439.0	-3362.0	14734.0
14	17	55	10	570	5.0	-189783.0	-3404.0	14164.0
14	17	55	10	571	7.0	-195189.0	-3486.0	14389.0
14	17	55	10	571	8.0	-198074.0	-3504.0	14494.0
14	17	55	10	572	9.0	-200429.0	-3591.0	14458.0
14	17	55	10	572	10.0	-202966.0	-3633.0	14991.0
14	17	55	10	573	11.0	-205648.0	-3671.0	14749.0
14	17	55	10	573	12.0	-207946.0	-3701.0	14139.0
14	17	55	10	574	13.0	-209975.0	-3725.0	14321.0
14	17	55	10	575	14.0	-211164.0	-3782.0	14908.0
14	17	55	10	575	29.0	-193237.0	-4427.0	12874.0
14	17	55	10	576	30.0	-184552.0	-4464.0	10656.0
14	17	55	10	576	31.0	-180513.0	-4500.0	9199.0
14	17	55	10	577	32.0	-194077.0	-4574.0	6870.0
14	17	55	10	577	33.0	-182459.0	-4590.0	5984.0
14	17	55	10	611	34.0	-184345.0	-4582.0	6172.0
14	17	55	10	612	35.0	-179276.0	-4676.0	7443.0
14	17	55	10	612	36.0	-180753.0	-4729.0	9986.0
14	17	55	10	613	37.0	-181254.0	-4745.0	11721.0
14	17	55	10	614	38.0	-183447.0	-4834.0	12769.0
14	17	55	10	615	39.0	-186588.0	-4832.0	14260.0
14	17	55	10	615	40.0	-190259.0	-4846.0	15591.0
14	17	55	10	616	41.0	-193606.0	-4922.0	16229.0
14	17	55	10	617	42.0	-196711.0	-4993.0	17461.0
14	17	55	10	617	43.0	-199717.0	-5025.0	18751.0
14	17	55	10	618	44.0	-202938.0	-5059.0	20604.0
14	17	55	10	618	45.0	-206387.0	-5137.0	23557.0
14	17	55	10	656	46.0	-209599.0	-5161.0	24556.0
14	17	55	10	657	47.0	-212603.0	-5201.0	25018.0
14	17	55	10	657	48.0	-215383.0	-5222.0	25410.0
14	17	55	10	658	49.0	-216644.0	-5285.0	25411.0
14	17	55	10	659	52.0	-209216.0	-5368.0	23032.0
14	17	55	10	660	53.0	-200563.0	-5391.0	21463.0
14	17	55	10	660	54.0	-186991.0	-5439.0	19704.0
14	17	55	10	661	55.0	-173117.0	-5489.0	18499.0
14	17	55	10	661	56.0	-161742.0	-5497.0	17248.0
14	17	55	10	662	57.0	-153471.0	-5571.0	16468.0
14	17	55	10	662	58.0	-148612.0	-5610.0	15858.0
14	17	55	10	663	59.0	-147126.0	-5619.0	15138.0
14	17	55	10	664	60.0	-149650.0	-5686.0	14756.0
14	17	55	10	664	61.0	-156880.0	-5734.0	14389.0
14	17	55	10	665	62.0	-167887.0	-5791.0	14299.0
14	17	55	10	665	63.0	-179836.0	-5831.0	13991.0
14	17	55	10	666	74.0	-200908.0	-6229.0	13449.0
14	17	55	10	666	75.0	-196572.0	-6277.0	12842.0
14	17	55	10	667	76.0	-195164.0	-6289.0	12484.0
14	17	55	10	668	77.0	-199089.0	-6345.0	13555.0
14	17	55	10	668	78.0	-205840.0	-6390.0	13168.0
14	17	55	10	669	79.0	-212944.0	-6436.0	12416.0
14	17	55	10	669	80.0	-218910.0	-6473.0	13046.0
14	17	55	10	702	81.0	-223655.0	-6524.0	12992.0
14	17	55	10	703	82.0	-225781.0	-6526.0	12506.0
14	17	55	10	703	83.0	-225342.0	-6569.0	12493.0
14	17	55	10	704	84.0	-222628.0	-6624.0	12822.0
14	17	55	10	705	85.0	-217967.0	-6644.0	12359.0
14	17	55	10	705	86.0	-212411.0	-6676.0	12503.0
14	17	55	10	706	87.0	-206242.0	-6700.0	12762.0
14	17	55	10	706	88.0	-200067.0	-6716.0	13076.0
14	17	55	10	707	89.0	-194089.0	-6776.0	12546.0
14	17	55	10	707	90.0	-188560.0	-6807.0	12193.0
14	17	55	10	762	91.0	-183902.0	-6846.0	12006.0
14	17	55	10	776	92.0	-179197.0	-6884.0	12651.0
14	17	55	10	777	93.0	-175018.0	-6911.0	12496.0
14	17	55	10	778	94.0	-171627.0	-6926.0	11937.0
14	17	55	10	778	95.0	-167591.0	-6951.0	11771.0
14	17	55	10	779	96.0	-163429.0	-7022.0	12164.0
14	17	55	10	780	97.0	-160030.0	-7054.0	12428.0
14	17	55	10	780	98.0	-157061.0	-7079.0	12449.0
14	17	55	10	781	99.0	-155099.0	-7099.0	12358.0
14	17	55	10	781	100.0	-154612.0	-7114.0	12294.0
14	17	55	10	798	101.0	-155146.0	-7189.0	11876.0
14	17	55	10	799	102.0	-156812.0	-7239.0	11693.0
14	17	55	10	800	103.0	-159999.0	-7248.0	11784.0
14	17	55	10	800	104.0	-163660.0	-7231.0	11729.0
14	17	55	10	801	105.0	-167859.0	-7264.0	11787.0
14	17	55	10	801	106.0	-172590.0	-7292.0	11666.0
14	17	55	10	802	134.0	-185422.0	-8175.0	12103.0
14	17	55	10	802	135.0	-181503.0	-8209.0	11614.0
14	17	55	10	803	136.0	-178515.0	-8242.0	11657.0
14	17	55	10	803	137.0	-175636.0	-8244.0	11606.0
14	17	55	10	804	138.0	-172556.0	-8253.0	12138.0
14	17	55	10	804	139.0	-169707.0	-8293.0	11340.0
14	17	55	10	805	140.0	-167665.0	-8346.0	12063.0
14	17	55	10	806	141.0	-165516.0	-8371.0	12156.0
14	17	55	10	806	142.0	-163479.0	-8338.0	11536.0
14	17	55	10	807	143.0	-162152.0	-8402.0	11592.0
14	17	55	10	807	144.0	-162508.0	-8438.0	11651.0
14	17	55	10	808	145.0	-163810.0	-8479.0	11356.0
14	17	55	10	821	146.0	-166141.0	-8447.0	11397.0
14	17	55	10	822	147.0	-169591.0	-8458.0	11898.0
14	17	55	10	823	148.0	-172993.0	-8493.0	11757.0
14	17	55	10	823	149.0	-176446.0	-8486.0	11536.0
14	17	55	10	824	150.0	-180798.0	-8477.0	12051.0
14	17	55	10	824	151.0	-185118.0	-8499.0	12037.0
14	17	55	10	825	152.0	-189181.0	-8506.0	12169.0
14	17	55	10	825	153.0	-193268.0	-8516.0	11556.0
14	17	55	10	851	154.0	-197019.0	-8532.0	12019.0
14	17	55	10	852	155.0	-200167.0	-8506.0	12174.0
14	17	55	10	853	156.0	-203200.0	-8506.0	12036.0
14	17	55	10	853	157.0	-205679.0	-8516.0	12913.0
14	17	55	10	854	158.0	-207719.0	-8475.0	13113.0
14	17	55	10	855	159.0	-209282.0	-8451.0	12579.0
14	17	55	10	855	160.0	-210814.0	-8440.0	13034.0
14	17	55	10	856	161.0	-211892.0	-8424.0	12283.0
14	17	55	10	856	162.0	-213371.0	-8419.0	12179.0
14	17	55	10	857	163.0	-215146.0	-8398.0	12645.0
14	17	55	10	858	164.0	-215899.0	-8364.0	12453.0
14	17	55	10	858	165.0	-215921.0	-8344.0	12763.0
14	17	55	10	859	166.0	-216334.0	-8302.0	12750.0
14	17	55	10	859	167.0	-215946.0	-8224.0	12653.0
14	17	55	10	860	168.0	-214992.0	-8164.0	12858.0
14	17	55	10	861	171.0	-209599.0	-7913.0	12070.0
14	17	55	10	861	172.0	-207434.0	-7841.0	12458.0
14	17	55	10	862	173.0	-205191.0	-7711.0	12559.0
14	17	55	10	862	174.0	-203107.0	-7603.0	12453.0
14	17	55	10	873	175.0	-201331.0	-7513.0	12194.0
14	17	55	10	874	176.0	-199158.0	-7414.0	12309.0
14	17	55	10	874	177.0	-196678.0	-7266.0	12164.0
14	17	55	10	875	178.0	-194197.0	-7131.0	11906.0
14	17	55	10	876	179.0	-192503.0	-6991.0	12633.0
14	17	55	10	896	180.0	-190759.0	-6836.0	12282.0
14	17	55	10	897	181.0	-190156.0	-6704.0	12151.0
14	17	55	10	898	182.0	-190017.0	-6589.0	12138.0
14	17	55	10	898	183.0	-189962.0	-6413.0	12096.0
14	17	55	10	899	184.0	-190495.0	-6321.0	11826.0
14	17	55	10	899	185.0	-192201.0	-6122.0	12217.0
14	17	55	10	900	186.0	-193897.0	-6006.0	12724.0
14	17	55	10	900	187.0	-195401.0	-5877.0	12635.0
14	17	55	10	901	188.0	-197254.0	-5701.0	12484.0
14	17	55	10	918	189.0	-198859.0	-5572.0	12859.0
14	17	55	10	919	190.0	-200242.0	-5376.0	12854.0
14	17	55	10	920	191.0	-200743.0	-5250.0	12368.0
14	17	55	10	920	192.0	-200647.0	-5132.0	12629.0
14	17	55	10	921	193.0	-200194.0	-4996.0	12000.0
14	17	55	10	921	194.0	-195751.0	-4824.0	12003.0
14	17	55	10	922	195.0	-186808.0	-4644.0	12718.0
14	17	55	10	923	196.0	-178831.0	-4497.0	13144.0
14	17	55	10	923	197.0	-173696.0	-4418.0	12501.0
14	17	55	10	924	198.0	-175053.0	-4286.0	12456.0
14	17	55	10	924	199.0	-179880.0	-4165.0	12796.0
14	17	55	10	925	200.0	-187984.0	-4029.0	12979.0
14	17	55	10	925	201.0	-196576.0	-3859.0	12558.0
14	17	55	10	926	202.0	-201426.0	-3770.0	13233.0
14	17	55	10	926	203.0	-203228.0	-3644.0	12533.0
14	17	55	10	927	204.0	-203194.0	-3527.0	12290.0
14	17	55	10	928	205.0	-203654.0	-3413.0	12936.0
14	17	55	10	928	206.0	-204654.0	-3247.0	12720.0
14	17	55	10	929	207.0	-203444.0	-3172.0	13243.0
14	17	55	10	929	208.0	-200835.0	-3081.0	13301.0
14	17	55	10	943	209.0	-198321.0	-2964.0	12587.0
14	17	55	10	944	210.0	-195346.0	-2866.0	13122.0
14	17	55	10	944	211.0	-191626.0	-2749.0	12970.0
14	17	55	10	945	212.0	-188052.0	-2622.0	12368.0
14	17	55	10	945	213.0	-184377.0	-2524.0	12659.0
14	17	55	10	946	214.0	-180650.0	-2450.0	12968.0
14	17	55	10	946	215.0	-177349.0	-2372.0	13257.0
14	17	55	10	947	216.0	-176462.0	-2278.0	12833.0
14	17	55	10	948	217.0	-178157.0	-2216.0	13661.0
14	17	55	10	948	218.0	-181729.0	-2156.0	13347.0
14	17	55	10	967	219.0	-187417.0	-2072.0	12369.0
14	17	55	10	968	220.0	-193897.0	-1947.0	13464.0
14	17	55	10	968	221.0	-200166.0	-1856.0	13393.0
14	17	55	10	969	222.0	-206903.0	-1796.0	13431.0
14	17	55	10	969	223.0	-213837.0	-1775.0	13182.0
14	17	55	10	970	224.0	-219390.0	-1714.0	13423.0
14	17	55	10	971	225.0	-224042.0	-1651.0	13236.0
14	17	55	10	971	226.0	-227936.0	-1566.0	13015.0
14	17	55	10	972	227.0	-230594.0	-1494.0	13039.0
14	17	55	10	972	228.0	-231835.0	-1429.0	13749.0
14	17	55	10	973	229.0	-232017.0	-1381.0	13733.0
14	17	55	10	973	230.0	-231117.0	-1335.0	12914.0
14	17	55	10	974	231.0	-229939.0	-1256.0	13190.0
14	17	55	10	975	232.0	-228135.0	-1212.0	13229.0
14	17	55	10	992	233.0	-225636.0	-1139.0	12921.0
14	17	55	10	992	234.0	-222519.0	-1097.0	13104.0
14	17	55	10	993	235.0	-219002.0	-1064.0	13074.0
14	17	55	10	993	236.0	-215526.0	-1061.0	12633.0
14	17	55	10	994	237.0	-211673.0	-1018.0	13234.0
14	17	55	10	994	238.0	-208086.0	-944.0	14029.0
14	17	55	10	995	239.0	-204897.0	-916.0	13129.0
14	17	55	11	15	240.0	-201789.0	-856.0	12576.0
14	17	55	11	16	241.0	-198996.0	-838.0	13649.0
14	17	55	11	16	242.0	-196196.0	-801.0	13564.0
14	17	55	11	17	243.0	-192888.0	-736.0	13099.0
14	17	55	11	18	244.0	-189446.0	-727.0	13620.0
14	17	55	11	18	245.0	-186246.0	-684.0	13489.0
14	17	55	11	19	246.0	-183633.0	-668.0	12969.0
14	17	55	11	20	247.0	-181627.0	-632.0	13653.0
14	17	55	11	20	248.0	-179921.0	-659.0	13824.0
14	17	55	11	21	249.0	-178689.0	-616.0	13563.0
14	17	55	11	22	250.0	-177485.0	-615.0	13616.0
14	17	55	11	22	251.0	-176406.0	-575.0	13591.0
14	17	55	11	23	252.0	-176188.0	-521.0	13146.0
14	17	55	11	23	253.0	-176286.0	-522.0	13303.0
14	17	55	11	24	254.0	-176324.0	-532.0	13620.0
14	17	55	11	37	255.0	-177191.0	-516.0	13374.0
14	17	55	11	38	0.0	-178914.0	-454.0	13179.0
14	17	55	11	38	1.0	-181428.0	-462.0	13097.0
14	17	55	11	39	2.0	-183271.0	-479.0	13605.0
14	17	55	11	39	3.0	-184787.0	-507.0	13929.0
14	17	55	11	40	4.0	-186764.0	-501.0	13867.0
14	17	55	11	41	5.0	-188535.0	-487.0	13270.0
14	17	55	11	41	6.0	-190146.0	-484.0	14068.0
14	17	55	11	60	7.0	-191961.0	-446.0	13745.0
14	17	55	11	61	8.0	-194274.0	-436.0	13229.0
14	17	55	11	61	9.0	-196864.0	-445.0	14172.0
14	17	55	11	62	10.0	-199439.0	-468.0	13586.0
14	17	55	11	62	11.0	-202106.0	-463.0	13620.0
14	17	55	11	63	12.0	-204943.0	-491.0	13733.0
14	17	55	11	64	13.0	-207629.0	-474.0	14349.0
14	17	55	11	65	14.0	-209757.0	-464.0	13580.0
14	17	55	11	65	15.0	-210826.0	-481.0	13137.0
14	17	55	11	66	16.0	-211111.0	-477.0	13634.0
14	17	55	11	66	17.0	-210597.0	-506.0	13325.0
14	17	55	11	67	18.0	-209697.0	-506.0	13199.0
14	17	55	11	67	19.0	-208126.0	-502.0	13033.0
14	17	55	11	68	20.0	-205891.0	-502.0	13782.0
14	17	55	11	69	21.0	-203748.0	-536.0	14490.0
14	17	55	11	83	22.0	-201863.0	-551.0	14008.0
14	17	55	11	83	23.0	-200007.0	-582.0	13633.0
14	17	55	11	84	24.0	-197674.0	-592.0	13474.0
14	17	55	11	84	25.0	-195418.0	-576.0	13402.0
14	17	55	11	85	26.0	-193474.0	-607.0	14253.0
14	17	55	11	86	27.0	-191461.0	-627.0	14044.0
14	17	55	11	86	28.0	-189802.0	-639.0	13913.0
14	17	55	11	106	29.0	-188176.0	-640.0	13514.0
14	17	55	11	106	30.0	-187029.0	-673.0	13616.0
14	17	55	11	107	31.0	-186325.0	-712.0	13656.0
14	17	55	11	107	32.0	-185574.0	-707.0	14076.0
14	17	55	11	108	33.0	-185518.0	-732.0	13479.0
14	17	55	11	108	34.0	-185911.0	-721.0	13965.0
14	17	55	11	109	35.0	-186136.0	-744.0	13269.0
14	17	55	11	110	36.0	-186607.0	-802.0	12991.0
14	17	55	11	110	37.0	-187393.0	-793.0	13907.0
14	17	55	11	128	38.0	-187815.0	-767.0	13719.0
14	17	55	11	129	39.0	-188469.0	-784.0	13241.0
14	17	55	11	130	40.0	-189344.0	-807.0	13361.0
14	17	55	11	130	41.0	-189922.0	-827.0	13872.0
14	17	55	11	131	42.0	-190679.0	-836.0	14190.0
14	17	55	11	132	43.0	-191382.0	-878.0	13477.0
14	17	55	11	132	44.0	-191581.0	-906.0	13296.0
14	17	55	11	133	45.0	-191571.0	-964.0	13430.0
14	17	55	11	133	46.0	-191369.0	-946.0	13593.0
14	17	55	11	134	47.0	-190900.0	-976.0	13586.0
14	17	55	11	135	48.0	-190339.0	-975.0	13371.0
14	17	55	11	135	49.0	-189491.0	-1014.0	13814.0
14	17	55	11	136	50.0	-188411.0	-1048.0	13508.0
14	17	55	11	136	51.0	-186854.0	-1059.0	13726.0
14	17	55	11	137	52.0	-185671.0	-1073.0	13633.0
14	17	55	11	137	53.0	-184769.0	-1081.0	13509.0
14	17	55	11	138	54.0	-184029.0	-1105.0	13796.0
14	17	55	11	139	55.0	-183407.0	-1134.0	13393.0
14	17	55	11	139	56.0	-183132.0	-1128.0	13373.0
14	17	55	11	151	57.0	-182906.0	-1154.0	12675.0
14	17	55	11	152	58.0	-182732.0	-1139.0	13312.0
14	17	55	11	152	59.0	-182332.0	-1145.0	13454.0
14	17	55	11	153	60.0	-181999.0	-1172.0	13466.0
14	17	55	11	154	61.0	-181836.0	-1223.0	13652.0
14	17	55	11	154	62.0	-181557.0	-1165.0	13954.0
14	17	55	11	155	63.0	-181919.0	-1214.0	14032.0
14	17	55	11	176	64.0	-182829.0	-1292.0	13428.0
14	17	55	11	176	65.0	-184266.0	-1292.0	13773.0
14	17	55	11	177	66.0	-186048.0	-1292.0	13751.0
14	17	55	11	177	67.0	-187726.0	-1285.0	13108.0
14	17	55	11	178	68.0	-189374.0	-1319.0	13529.0
14	17	55	11	179	69.0	-190919.0	-1408.0	13382.0
14	17	55	11	180	70.0	-192121.0	-1400.0	13702.0
14	17	55	11	181	71.0	-192965.0	-1412.0	12927.0
14	17	55	11	181	72.0	-193740.0	-1471.0	12876.0
14	17	55	11	182	73.0	-194811.0	-1449.0	12668.0
14	17	55	11	182	74.0	-195696.0	-1422.0	12885.0
14	17	55	11	183	75.0	-196476.0	-1415.0	13303.0
14	17	55	11	184	76.0	-197619.0	-1456.0	12951.0
14	17	55	11	198	77.0	-198785.0	-1471.0	13285.0
14	17	55	11	199	78.0	-199569.0	-1482.0	13214.0
14	17	55	11	200	79.0	-199841.0	-1529.0	13044.0
14	17	55	11	200	80.0	-199613.0	-1555.0	12929.0
14	17	55	11	201	81.0	-199013.0	-1551.0	12974.0
14	17	55	11	201	82.0	-198124.0	-1576.0	12733.0
14	17	55	11	202	83.0	-197238.0	-1610.0	12821.0
14	17	55	11	202	84.0	-196544.0	-1599.0	12680.0
14	17	55	11	203	85.0	-196151.0	-1603.0	13129.0
14	17	55	11	203	86.0	-195890.0	-1642.0	12663.0
14	17	55	11	204	87.0	-195903.0	-1658.0	12823.0
14	17	55	11	205	88.0	-196135.0	-1702.0	12772.0
14	17	55	11	221	89.0	-196357.0	-1732.0	12193.0
14	17	55	11	222	90.0	-197166.0	-1734.0	12610.0
14	17	55	11	223	91.0	-198441.0	-1772.0	12972.0
14	17	55	11	223	92.0	-199789.0	-1762.0	12539.0
14	17	55	11	224	93.0	-200941.0	-1715.0	12649.0
14	17	55	11	224	94.0	-201954.0	-1750.0	12883.0
14	17	55	11	225	95.0	-202731.0	-1801.0	13104.0
14	17	55	11	226	96.0	-203365.0	-1812.0	12804.0
14	17	55	11	226	97.0	-203456.0	-1828.0	12966.0
14	17	55	11	227	98.0	-203231.0	-1877.0	13570.0
14	17	55	11	227	99.0	-202887.0	-1911.0	13533.0
14	17	55	11	228	100.0	-202554.0	-1921.0	13982.0
14	17	55	11	229	101.0	-202734.0	-1913.0	13743.0
14	17	55	11	229	102.0	-203000.0	-1913.0	13861.0
14	17	55	11	230	103.0	-203114.0	-1957.0	13713.0
14	17	55	11	244	104.0	-203109.0	-1977.0	13358.0
14	17	55	11	244	105.0	-203099.0	-1979.0	13790.0
14	17	55	11	245	106.0	-203673.0	-2030.0	13936.0
14	17	55	11	245	107.0	-204769.0	-2046.0	13682.0
14	17	55	11	246	108.0	-205689.0	-2072.0	13533.0
14	17	55	11	247	109.0	-205912.0	-2096.0	13280.0
14	17	55	11	247	110.0	-205697.0	-2131.0	13482.0
14	17	55	11	267	111.0	-205332.0	-2128.0	13502.0
14	17	55	11	268	112.0	-204579.0	-2165.0	13193.0
14	17	55	11	269	113.0	-203286.0	-2198.0	13083.0
14	17	55	11	269	114.0	-201478.0	-2246.0	13191.0
14	17	55	11	270	115.0	-199249.0	-2269.0	12966.0
14	17	55	11	271	116.0	-196789.0	-2336.0	13345.0
14	17	55	11	271	117.0	-194324.0	-2344.0	12989.0
14	17	55	11	272	118.0	-191881.0	-2356.0	13268.0
14	17	55	11	273	119.0	-189556.0	-2361.0	13908.0
14	17	55	11	273	120.0	-187420.0	-2394.0	13340.0
14	17	55	11	274	121.0	-185406.0	-2431.0	12805.0
14	17	55	11	274	122.0	-183633.0	-2452.0	12975.0
14	17	55	11	275	123.0	-182387.0	-2488.0	13078.0
14	17	55	11	276	124.0	-181446.0	-2524.0	12560.0
14	17	55	11	276	125.0	-180880.0	-2566.0	13374.0
14	17	55	11	292	126.0	-180676.0	-2592.0	13240.0
14	17	55	11	292	127.0	-180464.0	-2614.0	13132.0
14	17	55	11	293	128.0	-180287.0	-2641.0	12537.0
14	17	55	11	294	129.0	-180255.0	-2689.0	13175.0
14	17	55	11	294	130.0	-180274.0	-2775.0	13577.0
14	17	55	11	295	131.0	-180606.0	-2757.0	13530.0
14	17	55	11	295	132.0	-181406.0	-2772.0	13189.0
14	17	55	11	296	133.0	-182011.0	-2827.0	12942.0
14	17	55	11	310	134.0	-183021.0	-2889.0	12928.0
14	17	55	11	311	135.0	-184397.0	-2885.0	12951.0
14	17	55	11	311	136.0	-186188.0	-2939.0	13219.0
14	17	55	11	312	137.0	-188267.0	-2936.0	13316.0
14	17	55	11	312	138.0	-190627.0	-2977.0	12821.0
14	17	55	11	313	139.0	-193182.0	-3031.0	12848.0
14	17	55	11	313	140.0	-195593.0	-3078.0	13462.0
14	17	55	11	314	141.0	-198090.0	-3069.0	13551.0
14	17	55	11	333	142.0	-200674.0	-3090.0	12838.0
14	17	55	11	333	143.0	-203061.0	-3136.0	12479.0
14	17	55	11	334	144.0	-205079.0	-3197.0	12407.0
14	17	55	11	334	145.0	-207210.0	-3226.0	12664.0
14	17	55	11	335	146.0	-209302.0	-3292.0	12783.0
14	17	55	11	336	147.0	-210918.0	-3340.0	13213.0
14	17	55	11	336	148.0	-211842.0	-3347.0	13751.0
14	17	55	11	337	149.0	-212281.0	-3382.0	13653.0
14	17	55	11	337	150.0	-212017.0	-3396.0	13263.0
14	17	55	11	338	151.0	-211418.0	-3437.0	12838.0
14	17	55	11	338	152.0	-210397.0	-3521.0	12468.0
14	17	55	11	339	153.0	-208724.0	-3554.0	12146.0
14	17	55	11	340	154.0	-206452.0	-3591.0	10801.0
14	17	55	11	406	155.0	-203564.0	-3592.0	9604.0
14	17	55	11	407	156.0	-200357.0	-3624.0	7514.0
14	17	55	11	408	157.0	-196973.0	-3663.0	5094.0
14	17	55	11	408	158.0	-193564.0	-3669.0	3244.0
14	17	55	11	409	159.0	-190340.0	-3732.0	2710.0
14	17	55	11	409	160.0	-187566.0	-3781.0	3486.0
14	17	55	11	410	161.0	-185620.0	-3860.0	5944.0
14	17	55	11	411	162.0	-184687.0	-3860.0	7620.0
14	17	55	11	412	163.0	-184701.0	-3895.0	8434.0
14	17	55	11	413	164.0	-185834.0	-3981.0	10343.0
14	17	55	11	414	165.0	-188006.0	-4032.0	11959.0
14	17	55	11	415	166.0	-190284.0	-4047.0	13164.0
14	17	55	11	416	167.0	-192476.0	-4075.0	13969.0
14	17	55	11	416	168.0	-194857.0	-4142.0	15328.0
14	17	55	11	417	169.0	-197780.0	-4173.0	16551.0
14	17	55	11	417	170.0	-201002.0	-4222.0	18720.0
14	17	55	11	418	192.0	-182490.0	-5051.0	10664.0
14	17	55	11	418	193.0	-191992.0	-5095.0	11389.0
14	17	55	11	419	194.0	-198743.0	-5129.0	11094.0
14	17	55	11	436	195.0	-202651.0	-5166.0	11146.0
14	17	55	11	452	196.0	-204429.0	-5223.0	11219.0
14	17	55	11	453	197.0	-204853.0	-5262.0	11039.0
14	17	55	11	454	198.0	-204062.0	-5274.0	11004.0
14	17	55	11	454	199.0	-203182.0	-5283.0	11492.0
14	17	55	11	455	200.0	-203554.0	-5319.0	11190.0
14	17	55	11	455	201.0	-205804.0	-5352.0	10941.0
14	17	55	11	456	202.0	-210356.0	-5388.0	10248.0
14	17	55	11	476	203.0	-216566.0	-5461.0	10373.0
14	17	55	11	476	204.0	-222296.0	-5499.0	10208.0
14	17	55	11	477	205.0	-225824.0	-5514.0	9808.0
14	17	55	11	477	206.0	-225974.0	-5514.0	10134.0
14	17	55	11	478	207.0	-222981.0	-5552.0	10280.0
14	17	55	11	478	208.0	-217445.0	-5634.0	10021.0
14	17	55	11	479	209.0	-210701.0	-5653.0	9958.0
14	17	55	11	480	210.0	-203392.0	-5656.0	9971.0
14	17	55	11	480	211.0	-195968.0	-5667.0	9769.0
14	17	55	11	481	215.0	-174682.0	-5881.0	10190.0
14	17	55	11	481	216.0	-171642.0	-5872.0	9986.0
14	17	55	11	482	217.0	-168822.0	-5928.0	9654.0
14	17	55	11	482	218.0	-165819.0	-5982.0	9699.0
14	17	55	11	483	219.0	-162845.0	-6011.0	9839.0
14	17	55	11	484	220.0	-160236.0	-6015.0	9516.0
14	17	55	11	484	221.0	-158891.0	-6061.0	9668.0
14	17	55	11	485	222.0	-158256.0	-6064.0	9884.0
14	17	55	11	485	223.0	-158443.0	-6092.0	9503.0
14	17	55	11	486	224.0	-159025.0	-6155.0	8886.0
14	17	55	11	486	225.0	-159877.0	-6196.0	9471.0
14	17	55	11	487	226.0	-160988.0	-6226.0	9349.0
14	17	55	11	487	227.0	-162854.0	-6225.0	9616.0
14	17	55	11	488	228.0	-164914.0	-6253.0	9834.0
14	17	55	11	489	229.0	-167446.0	-6289.0	9855.0
14	17	55	11	489	230.0	-170728.0	-6329.0	9723.0
14	17	55	11	498	231.0	-174269.0	-6364.0	9513.0
14	17	55	11	499	232.0	-177943.0	-6401.0	9534.0
14	17	55	11	500	233.0	-182059.0	-6470.0	8889.0
14	17	55	11	500	234.0	-186742.0	-6480.0	9493.0
14	17	55	11	501	235.0	-191702.0	-6507.0	9677.0
14	17	55	11	501	236.0	-196604.0	-6519.0	9676.0
14	17	55	11	502	237.0	-201537.0	-6528.0	9604.0
14	17	55	11	503	238.0	-206211.0	-6559.0	9484.0
14	17	55	11	522	239.0	-210174.0	-6621.0	9451.0
14	17	55	11	522	240.0	-213546.0	-6652.0	9532.0
14	17	55	11	523	241.0	-216184.0	-6710.0	9618.0
14	17	55	11	524	242.0	-218147.0	-6721.0	9348.0
14	17	55	11	524	243.0	-219881.0	-6727.0	9201.0
14	17	55	11	525	244.0	-221132.0	-6800.0	9199.0
14	17	55	11	525	245.0	-221814.0	-6829.0	10041.0
14	17	55	11	526	246.0	-222234.0	-6865.0	9889.0
14	17	55	11	527	247.0	-222982.0	-6881.0	9397.0
14	17	55	11	527	248.0	-222981.0	-6929.0	9007.0
14	17	55	11	528	249.0	-222674.0	-6954.0	9912.0
14	17	55	11	528	250.0	-222004.0	-6989.0	9156.0
14	17	55	11	529	251.0	-221191.0	-7029.0	9228.0
14	17	55	11	529	252.0	-220141.0	-7029.0	8928.0
14	17	55	11	530	253.0	-218822.0	-7059.0	8713.0
14	17	55	11	544	254.0	-217756.0	-7061.0	8893.0
14	17	55	11	545	255.0	-216280.0	-7152.0	8563.0
14	17	55	11	545	0.0	-214852.0	-7215.0	8430.0
14	17	55	11	546	1.0	-213456.0	-7222.0	9276.0
14	17	55	11	546	2.0	-211911.0	-7269.0	9439.0
14	17	55	11	547	3.0	-209972.0	-7314.0	9306.0
14	17	55	11	548	4.0	-207574.0	-7338.0	8829.0
14	17	55	11	567	5.0	-204971.0	-7342.0	9126.0
14	17	55	11	568	6.0	-202242.0	-7323.0	8407.0
14	17	55	11	568	7.0	-198929.0	-7378.0	8603.0
14	17	55	11	569	8.0	-195599.0	-7412.0	8474.0
14	17	55	11	570	9.0	-192304.0	-7408.0	8394.0
14	17	55	11	570	10.0	-188637.0	-7447.0	8656.0
14	17	55	11	571	11.0	-185693.0	-7476.0	8686.0
14	17	55	11	571	12.0	-183518.0	-7532.0	8618.0
14	17	55	11	572	13.0	-181907.0	-7507.0	8893.0
14	17	55	11	573	14.0	-180962.0	-7518.0	8734.0
14	17	55	11	573	15.0	-181118.0	-7565.0	8227.0
14	17	55	11	574	16.0	-181842.0	-7581.0	8890.0
14	17	55	11	574	17.0	-183227.0	-7612.0	8883.0
14	17	55	11	575	18.0	-185149.0	-7626.0	8948.0
14	17	55	11	575	19.0	-186742.0	-7618.0	8724.0
14	17	55	11	600	20.0	-188392.0	-7609.0	9421.0
14	17	55	11	601	21.0	-190030.0	-7639.0	9922.0
14	17	55	11	602	22.0	-192068.0	-7635.0	9909.0
14	17	55	11	603	23.0	-194672.0	-7611.0	10073.0
14	17	55	11	603	24.0	-197169.0	-7627.0	10038.0
14	17	55	11	604	25.0	-198631.0	-7636.0	9269.0
14	17	55	11	604	26.0	-199579.0	-7648.0	9404.0
14	17	55	11	605	27.0	-200454.0	-7661.0	9688.0
14	17	55	11	606	28.0	-201072.0	-7667.0	10084.0
14	17	55	11	606	29.0	-201097.0	-7676.0	9893.0
14	17	55	11	607	30.0	-200760.0	-7653.0	9970.0
14	17	55	11	608	31.0	-200429.0	-7603.0	9668.0
14	17	55	11	608	32.0	-200424.0	-7572.0	10612.0
14	17	55	11	609	33.0	-200768.0	-7604.0	10645.0
14	17	55	11	610	34.0	-201147.0	-7567.0	10446.0
14	17	55	11	610	35.0	-201853.0	-7510.0	10748.0
14	17	55	11	611	36.0	-202369.0	-7462.0	10274.0
14	17	55	11	611	37.0	-202886.0	-7436.0	10463.0
14	17	55	11	620	38.0	-203556.0	-7386.0	10618.0
14	17	55	11	620	39.0	-203869.0	-7266.0	9937.0
14	17	55	11	621	40.0	-203937.0	-7227.0	10663.0
14	17	55	11	644	41.0	-203912.0	-7204.0	10259.0
14	17	55	11	644	42.0	-203624.0	-7126.0	9832.0
14	17	55	11	645	43.0	-203402.0	-7006.0	10663.0
14	17	55	11	645	44.0	-203314.0	-6939.0	10921.0
14	17	55	11	646	45.0	-203344.0	-6809.0	10467.0
14	17	55	11	647	46.0	-203231.0	-6708.0	10106.0
14	17	55	11	647	47.0	-202916.0	-6602.0	9906.0
14	17	55	11	648	48.0	-202556.0	-6500.0	10026.0
14	17	55	11	648	49.0	-202041.0	-6368.0	9979.0
14	17	55	11	649	50.0	-201847.0	-6253.0	10079.0
14	17	55	11	649	51.0	-202354.0	-6147.0	9927.0
14	17	55	11	650	52.0	-202854.0	-6012.0	10476.0
14	17	55	11	651	53.0	-203512.0	-5891.0	10195.0
14	17	55	11	651	54.0	-204527.0	-5732.0	9923.0
14	17	55	11	652	55.0	-205749.0	-5620.0	10621.0
14	17	55	11	652	56.0	-206866.0	-5485.0	11353.0
14	17	55	11	668	57.0	-207932.0	-5349.0	10396.0
14	17	55	11	668	58.0	-208715.0	-5208.0	10291.0
14	17	55	11	690	59.0	-208801.0	-5095.0	10416.0
14	17	55	11	691	60.0	-208382.0	-4975.0	10417.0
14	17	55	11	691	61.0	-207824.0	-4827.0	10068.0
14	17	55	11	692	62.0	-205271.0	-4671.0	10276.0
14	17	55	11	692	63.0	-199081.0	-4529.0	10888.0
14	17	55	11	693	64.0	-190934.0	-4364.0	11026.0
14	17	55	11	693	65.0	-182131.0	-4236.0	9883.0
14	17	55	11	694	66.0	-172864.0	-4127.0	10551.0
14	17	55	11	695	67.0	-169101.0	-3996.0	10471.0
14	17	55	11	695	68.0	-169476.0	-3874.0	10224.0
14	17	55	11	696	69.0	-172552.0	-3757.0	11044.0
14	17	55	11	696	70.0	-180748.0	-3608.0	11036.0
14	17	55	11	697	71.0	-187130.0	-3505.0	10621.0
14	17	55	11	697	72.0	-190837.0	-3395.0	11076.0
14	17	55	11	698	73.0	-194271.0	-3281.0	10233.0
14	17	55	11	698	74.0	-196430.0	-3191.0	10352.0
14	17	55	11	699	75.0	-197408.0	-3067.0	10475.0
14	17	55	11	699	76.0	-196773.0	-2932.0	10378.0
14	17	55	11	700	77.0	-194741.0	-2821.0	10464.0
14	17	55	11	712	78.0	-192576.0	-2739.0	10120.0
14	17	55	11	713	79.0	-191006.0	-2640.0	10422.0
14	17	55	11	714	80.0	-189295.0	-2531.0	10309.0
14	17	55	11	714	81.0	-187214.0	-2451.0	10429.0
14	17	55	11	715	82.0	-184395.0	-2367.0	10413.0
14	17	55	11	715	83.0	-181899.0	-2321.0	10476.0
14	17	55	11	716	84.0	-180387.0	-2177.0	10465.0
14	17	55	11	716	85.0	-179564.0	-2097.0	9756.0
14	17	55	11	717	86.0	-180416.0	-2024.0	9683.0
14	17	55	11	718	87.0	-181592.0	-1942.0	10023.0
14	17	55	11	737	88.0	-182281.0	-1869.0	10492.0
14	17	55	11	738	89.0	-183891.0	-1779.0	9985.0
14	17	55	11	738	90.0	-186036.0	-1729.0	10127.0
14	17	55	11	739	91.0	-189139.0	-1689.0	10174.0
14	17	55	11	739	92.0	-193481.0	-1582.0	10432.0
14	17	55	11	740	93.0	-197997.0	-1513.0	10344.0
14	17	55	11	741	94.0	-202382.0	-1451.0	10199.0
14	17	55	11	741	95.0	-206215.0	-1375.0	10099.0
14	17	55	11	742	96.0	-209176.0	-1272.0	9705.0
14	17	55	11	742	97.0	-211132.0	-1201.0	9352.0
14	17	55	11	743	98.0	-211753.0	-1188.0	9861.0
14	17	55	11	743	99.0	-211315.0	-1127.0	9888.0
14	17	55	11	744	100.0	-209736.0	-1078.0	9724.0
14	17	55	11	745	101.0	-206989.0	-1067.0	9902.0
14	17	55	11	760	102.0	-203750.0	-973.0	10665.0
14	17	55	11	761	103.0	-200643.0	-929.0	10196.0
14	17	55	11	761	104.0	-197669.0	-896.0	10574.0
14	17	55	11	762	105.0	-194924.0	-841.0	10473.0
14	17	55	11	763	106.0	-193010.0	-804.0	10151.0
14	17	55	11	763	107.0	-191802.0	-831.0	10160.0
14	17	55	11	764	108.0	-190830.0	-727.0	10992.0
14	17	55	11	764	109.0	-190364.0	-674.0	9871.0
14	17	55	11	765	110.0	-190198.0	-664.0	10005.0
14	17	55	11	784	111.0	-190659.0	-656.0	10715.0
14	17	55	11	784	112.0	-191456.0	-639.0	10437.0
14	17	55	11	785	113.0	-192454.0	-640.0	10242.0
14	17	55	11	786	114.0	-193516.0	-594.0	10739.0
14	17	55	11	786	115.0	-194506.0	-527.0	10191.0
14	17	55	11	787	116.0	-195791.0	-527.0	9841.0
14	17	55	11	788	117.0	-197003.0	-532.0	10062.0
14	17	55	11	788	118.0	-198156.0	-479.0	9994.0
14	17	55	11	789	119.0	-199430.0	-493.0	9727.0
14	17	55	11	789	120.0	-200856.0	-485.0	10212.0
14	17	55	11	790	121.0	-202112.0	-444.0	9589.0
14	17	55	11	791	122.0	-202589.0	-451.0	10043.0
14	17	55	11	791	123.0	-202811.0	-471.0	9659.0
14	17	55	11	792	124.0	-202922.0	-419.0	9448.0
14	17	55	11	792	125.0	-203107.0	-413.0	10100.0
14	17	55	11	793	126.0	-203251.0	-403.0	9546.0
14	17	55	11	793	127.0	-203822.0	-396.0	9604.0
14	17	55	11	808	128.0	-204193.0	-401.0	9594.0
14	17	55	11	809	129.0	-204881.0	-386.0	9457.0
14	17	55	11	810	130.0	-205852.0	-412.0	9701.0
14	17	55	11	810	131.0	-206732.0	-394.0	9596.0
14	17	55	11	811	132.0	-207241.0	-372.0	9304.0
14	17	55	11	812	133.0	-207254.0	-382.0	9375.0
14	17	55	11	812	134.0	-206647.0	-390.0	9172.0
14	17	55	11	813	135.0	-205817.0	-413.0	9127.0
14	17	55	11	814	136.0	-204832.0	-382.0	9494.0
14	17	55	11	814	137.0	-203581.0	-394.0	9625.0
14	17	55	11	815	138.0	-202374.0	-394.0	9119.0
14	17	55	11	815	139.0	-201232.0	-387.0	8929.0
14	17	55	11	830	140.0	-199890.0	-386.0	9239.0
14	17	55	11	830	141.0	-197741.0	-414.0	9647.0
14	17	55	11	831	142.0	-195675.0	-430.0	9952.0
14	17	55	11	832	143.0	-194067.0	-438.0	9683.0
14	17	55	11	832	144.0	-192772.0	-452.0	9145.0
14	17	55	11	833	145.0	-191181.0	-492.0	9956.0
14	17	55	11	833	146.0	-189585.0	-492.0	10003.0
14	17	55	11	853	147.0	-188269.0	-496.0	9532.0
14	17	55	11	854	148.0	-187272.0	-507.0	9418.0
14	17	55	11	855	149.0	-186414.0	-501.0	9691.0
14	17	55	11	855	150.0	-186027.0	-511.0	9804.0
14	17	55	11	856	151.0	-185955.0	-505.0	9414.0
14	17	55	11	857	152.0	-186554.0	-540.0	10176.0
14	17	55	11	857	153.0	-187689.0	-622.0	9474.0
14	17	55	11	858	154.0	-189147.0	-665.0	9052.0
14	17	55	11	858	155.0	-191026.0	-677.0	9273.0
14	17	55	11	859	156.0	-192623.0	-646.0	9162.0
14	17	55	11	859	157.0	-193972.0	-676.0	9769.0
14	17	55	11	860	158.0	-195477.0	-674.0	9018.0
14	17	55	11	860	159.0	-196736.0	-687.0	9524.0
14	17	55	11	861	160.0	-197711.0	-723.0	9309.0
14	17	55	11	862	161.0	-198651.0	-733.0	9763.0
14	17	55	11	876	162.0	-199449.0	-713.0	9927.0
14	17	55	11	877	163.0	-200002.0	-753.0	9621.0
14	17	55	11	877	164.0	-200639.0	-801.0	9334.0
14	17	55	11	878	165.0	-201385.0	-842.0	9119.0
14	17	55	11	878	166.0	-201974.0	-836.0	9145.0
14	17	55	11	879	167.0	-202220.0	-838.0	9456.0
14	17	55	11	879	168.0	-202381.0	-873.0	9047.0
14	17	55	11	880	169.0	-202362.0	-890.0	9424.0
14	17	55	11	899	170.0	-201984.0	-889.0	9404.0
14	17	55	11	900	171.0	-201406.0	-932.0	9891.0
14	17	55	11	901	172.0	-200649.0	-951.0	10009.0
14	17	55	11	901	173.0	-199636.0	-954.0	9458.0
14	17	55	11	902	174.0	-198254.0	-1004.0	9965.0
14	17	55	11	903	175.0	-197062.0	-1011.0	10731.0
14	17	55	11	903	176.0	-195797.0	-1027.0	9969.0
14	17	55	11	904	177.0	-194225.0	-1030.0	10009.0
14	17	55	11	904	178.0	-192618.0	-1070.0	10064.0
14	17	55	11	905	179.0	-191266.0	-1126.0	10389.0
14	17	55	11	905	180.0	-189864.0	-1105.0	9708.0
14	17	55	11	906	181.0	-188499.0	-1101.0	10369.0
14	17	55	11	907	182.0	-187109.0	-1156.0	9962.0
14	17	55	11	907	183.0	-185781.0	-1161.0	10173.0
14	17	55	11	908	184.0	-184660.0	-1184.0	10394.0
14	17	55	11	931	185.0	-184051.0	-1172.0	10363.0
14	17	55	11	932	186.0	-183572.0	-1223.0	10013.0
14	17	55	11	932	187.0	-183276.0	-1259.0	10077.0
14	17	55	11	933	188.0	-183079.0	-1277.0	9453.0
14	17	55	11	934	189.0	-183396.0	-1280.0	10651.0
14	17	55	11	934	190.0	-184096.0	-1306.0	10529.0
14	17	55	11	935	191.0	-184640.0	-1322.0	9633.0
14	17	55	11	949	192.0	-185417.0	-1337.0	10496.0
14	17	55	11	950	193.0	-186486.0	-1328.0	10471.0
14	17	55	11	951	194.0	-187770.0	-1356.0	10034.0
14	17	55	11	951	195.0	-189389.0	-1381.0	9948.0
14	17	55	11	952	196.0	-191224.0	-1439.0	10367.0
14	17	55	11	953	197.0	-192612.0	-1401.0	10284.0
14	17	55	11	953	198.0	-193494.0	-1431.0	10364.0
14	17	55	11	954	199.0	-193976.0	-1498.0	10353.0
14	17	55	11	954	200.0	-194792.0	-1485.0	10826.0
14	17	55	11	955	201.0	-196149.0	-1504.0	10647.0
14	17	55	11	956	202.0	-197612.0	-1548.0	10298.0
14	17	55	11	956	203.0	-198886.0	-1593.0	10040.0
14	17	55	11	957	204.0	-200068.0	-1602.0	10016.0
14	17	55	11	957	205.0	-201350.0	-1620.0	10186.0
14	17	55	11	958	206.0	-202271.0	-1627.0	10361.0
14	17	55	11	959	207.0	-203171.0	-1601.0	10083.0
14	17	55	11	959	208.0	-204283.0	-1666.0	9763.0
14	17	55	11	960	209.0	-205547.0	-1679.0	10279.0
14	17	55	11	960	210.0	-207071.0	-1693.0	10813.0
14	17	55	11	961	211.0	-208201.0	-1752.0	10175.0
14	17	55	11	961	212.0	-208789.0	-1747.0	10209.0
14	17	55	11	976	213.0	-209167.0	-1776.0	10319.0
14	17	55	11	977	214.0	-209203.0	-1813.0	10314.0
14	17	55	11	978	215.0	-208941.0	-1772.0	10263.0
14	17	55	11	979	216.0	-208491.0	-1811.0	9969.0
14	17	55	11	979	217.0	-208079.0	-1867.0	10308.0
14	17	55	11	980	218.0	-207057.0	-1919.0	9430.0
14	17	55	11	980	219.0	-205899.0	-1944.0	9960.0
14	17	55	11	981	220.0	-204585.0	-1941.0	10197.0
14	17	55	11	981	221.0	-203287.0	-1995.0	10315.0
14	17	55	11	999	222.0	-201992.0	-2024.0	10204.0
14	17	55	11	999	223.0	-200813.0	-2036.0	10481.0
14	17	55	12	0	224.0	-199747.0	-2079.0	10081.0
14	17	55	12	1	225.0	-198752.0	-2124.0	10217.0
14	17	55	12	1	226.0	-198089.0	-2149.0	10053.0
14	17	55	12	2	227.0	-197737.0	-2135.0	9675.0
14	17	55	12	2	228.0	-196986.0	-2178.0	10006.0
14	17	55	12	21	229.0	-195594.0	-2222.0	10401.0
14	17	55	12	21	230.0	-193940.0	-2273.0	9697.0
14	17	55	12	22	231.0	-192653.0	-2271.0	9990.0
14	17	55	12	23	232.0	-191394.0	-2299.0	9986.0
14	17	55	12	23	233.0	-189924.0	-2341.0	9751.0
14	17	55	12	24	234.0	-188371.0	-2392.0	9257.0
14	17	55	12	25	235.0	-186594.0	-2437.0	9126.0
14	17	55	12	25	236.0	-185153.0	-2441.0	10165.0
14	17	55	12	26	237.0	-183905.0	-2496.0	10284.0
14	17	55	12	26	238.0	-183139.0	-2503.0	10732.0
14	17	55	12	27	239.0	-183017.0	-2519.0	10920.0
14	17	55	12	27	240.0	-183051.0	-2601.0	10408.0
14	17	55	12	28	241.0	-183022.0	-2652.0	10351.0
14	17	55	12	29	242.0	-183691.0	-2674.0	11142.0
14	17	55	12	29	243.0	-184519.0	-2684.0	11319.0
14	17	55	12	30	244.0	-185311.0	-2716.0	11531.0
14	17	55	12	43	245.0	-186417.0	-2766.0	11363.0
14	17	55	12	44	246.0	-187756.0	-2817.0	11386.0
14	17	55	12	44	247.0	-189339.0	-2827.0	11454.0
14	17	55	12	45	248.0	-190659.0	-2866.0	11600.0
14	17	55	12	46	249.0	-191964.0	-2944.0	11301.0
14	17	55	12	46	250.0	-193133.0	-2978.0	11184.0
14	17	55	12	47	251.0	-194226.0	-2973.0	11561.0
14	17	55	12	65	252.0	-195898.0	-3032.0	11836.0
14	17	55	12	66	253.0	-197782.0	-3030.0	11006.0
14	17	55	12	67	254.0	-199567.0	-3072.0	10954.0
14	17	55	12	67	255.0	-201157.0	-3136.0	11898.0
14	17	55	12	68	0.0	-202872.0	-3193.0	11608.0
14	17	55	12	69	1.0	-204581.0	-3252.0	11231.0
14	17	55	12	69	2.0	-205778.0	-3274.0	10932.0
14	17	55	12	70	3.0	-206603.0	-3296.0	11291.0
14	17	55	12	70	4.0	-207235.0	-3367.0	10946.0
14	17	55	12	71	5.0	-207414.0	-3404.0	11367.0
14	17	55	12	72	6.0	-207150.0	-3424.0	11302.0
14	17	55	12	72	7.0	-207014.0	-3439.0	11061.0
14	17	55	12	73	8.0	-207257.0	-3471.0	11008.0
14	17	55	12	73	9.0	-207091.0	-3493.0	10989.0
14	17	55	12	74	10.0	-206677.0	-3562.0	11146.0
14	17	55	12	96	11.0	-206156.0	-3594.0	11022.0
14	17	55	12	99	12.0	-205281.0	-3631.0	10918.0
14	17	55	12	99	13.0	-203870.0	-3651.0	11108.0
14	17	55	12	100	14.0	-202576.0	-3710.0	11243.0
14	17	55	12	100	15.0	-200932.0	-3732.0	10901.0
14	17	55	12	101	16.0	-198936.0	-3741.0	10904.0
14	17	55	12	101	17.0	-196626.0	-3798.0	10553.0
14	17	55	12	102	18.0	-194284.0	-3849.0	10709.0
14	17	55	12	103	19.0	-191746.0	-3884.0	10650.0
14	17	55	12	103	20.0	-189408.0	-3933.0	10872.0
14	17	55	12	104	21.0	-187692.0	-3989.0	10358.0
14	17	55	12	104	22.0	-186264.0	-4011.0	10711.0
14	17	55	12	105	23.0	-184747.0	-4031.0	10527.0
14	17	55	12	105	24.0	-183304.0	-4069.0	10740.0
14	17	55	12	106	25.0	-182126.0	-4106.0	10721.0
14	17	55	12	114	26.0	-181424.0	-4157.0	10859.0
14	17	55	12	114	27.0	-181255.0	-4197.0	10343.0
14	17	55	12	115	28.0	-181741.0	-4230.0	11032.0
14	17	55	12	116	29.0	-182979.0	-4256.0	11571.0
14	17	55	12	116	30.0	-184726.0	-4282.0	11804.0
14	17	55	12	117	31.0	-187168.0	-4339.0	11971.0
14	17	55	12	117	32.0	-190061.0	-4356.0	11811.0
14	17	55	12	137	33.0	-192984.0	-4421.0	10538.0
14	17	55	12	138	34.0	-195792.0	-4471.0	10763.0
14	17	55	12	138	35.0	-198242.0	-4510.0	10531.0
14	17	55	12	139	36.0	-200108.0	-4544.0	8244.0
14	17	55	12	140	37.0	-201176.0	-4576.0	6458.0
14	17	55	12	140	38.0	-201568.0	-4568.0	4563.0
14	17	55	12	141	39.0	-201323.0	-4612.0	2886.0
14	17	55	12	141	40.0	-200810.0	-4637.0	3189.0
14	17	55	12	142	41.0	-200630.0	-4684.0	3808.0
14	17	55	12	143	42.0	-200652.0	-4743.0	5751.0
14	17	55	12	143	43.0	-200779.0	-4796.0	9215.0
14	17	55	12	144	44.0	-200933.0	-4831.0	11469.0
14	17	55	12	144	45.0	-201787.0	-4852.0	11848.0
14	17	55	12	145	46.0	-203316.0	-4927.0	12896.0
14	17	55	12	145	47.0	-205539.0	-4939.0	12913.0
14	17	55	12	160	48.0	-207950.0	-4976.0	13618.0
14	17	55	12	160	49.0	-210114.0	-5022.0	14477.0
14	17	55	12	161	50.0	-212177.0	-5021.0	17199.0
14	17	55	12	161	51.0	-214072.0	-5064.0	19008.0
14	17	55	12	162	52.0	-215954.0	-5102.0	21171.0
14	17	55	12	163	53.0	-217621.0	-5173.0	21951.0
14	17	55	12	163	54.0	-218610.0	-5166.0	22413.0
14	17	55	12	164	55.0	-218821.0	-5201.0	22491.0
14	17	55	12	184	56.0	-218036.0	-5221.0	22594.0
14	17	55	12	184	57.0	-215436.0	-5298.0	21831.0
14	17	55	12	185	58.0	-209363.0	-5314.0	20058.0
14	17	55	12	186	59.0	-196801.0	-5330.0	18676.0
14	17	55	12	187	60.0	-179575.0	-5344.0	16734.0
14	17	55	12	187	61.0	-163936.0	-5407.0	14179.0
14	17	55	12	188	62.0	-152574.0	-5429.0	13664.0
14	17	55	12	188	63.0	-146057.0	-5479.0	12801.0
14	17	55	12	189	64.0	-144064.0	-5539.0	11564.0
14	17	55	12	190	65.0	-146093.0	-5552.0	11056.0
14	17	55	12	190	66.0	-152564.0	-5616.0	11056.0
14	17	55	12	191	67.0	-162854.0	-5683.0	9907.0
14	17	55	12	191	68.0	-175024.0	-5700.0	9846.0
14	17	55	12	192	69.0	-187878.0	-5731.0	10101.0
14	17	55	12	192	70.0	-200841.0	-5711.0	9402.0
14	17	55	12	207	71.0	-212421.0	-5769.0	9671.0
14	17	55	12	208	72.0	-220234.0	-5780.0	9770.0
14	17	55	12	208	73.0	-222837.0	-5844.0	10400.0
14	17	55	12	209	74.0	-222697.0	-5879.0	9604.0
14	17	55	12	210	75.0	-221411.0	-5918.0	9120.0
14	17	55	12	210	76.0	-218990.0	-5954.0	9578.0
14	17	55	12	211	77.0	-217137.0	-5986.0	8713.0
14	17	55	12	230	78.0	-215332.0	-6016.0	9291.0
14	17	55	12	231	79.0	-210849.0	-6053.0	9449.0
14	17	55	12	231	80.0	-204264.0	-6071.0	8901.0
14	17	55	12	232	81.0	-196596.0	-6083.0	8858.0
14	17	55	12	232	82.0	-189580.0	-6097.0	9593.0
14	17	55	12	233	83.0	-186677.0	-6157.0	9849.0
14	17	55	12	234	84.0	-188364.0	-6177.0	9451.0
14	17	55	12	234	85.0	-192255.0	-6246.0	8941.0
14	17	55	12	235	86.0	-195586.0	-6302.0	8990.0
14	17	55	12	235	87.0	-197457.0	-6307.0	8618.0
14	17	55	12	236	88.0	-198067.0	-6336.0	8438.0
14	17	55	12	237	89.0	-197821.0	-6324.0	8655.0
14	17	55	12	237	90.0	-196602.0	-6343.0	8643.0
14	17	55	12	238	91.0	-194086.0	-6417.0	8016.0
14	17	55	12	238	92.0	-190359.0	-6461.0	8214.0
14	17	55	12	262	93.0	-186087.0	-6456.0	8533.0
14	17	55	12	262	94.0	-181961.0	-6469.0	9201.0
14	17	55	12	263	95.0	-178596.0	-6484.0	8556.0
14	17	55	12	263	96.0	-176181.0	-6541.0	8646.0
14	17	55	12	264	97.0	-175086.0	-6593.0	8488.0
14	17	55	12	264	98.0	-175072.0	-6597.0	8047.0
14	17	55	12	265	99.0	-175891.0	-6653.0	7922.0
14	17	55	12	281	100.0	-176478.0	-6682.0	8421.0
14	17	55	12	281	101.0	-176642.0	-6747.0	8273.0
14	17	55	12	282	102.0	-176596.0	-6762.0	8210.0
14	17	55	12	282	103.0	-176522.0	-6790.0	8509.0
14	17	55	12	283	104.0	-175762.0	-6816.0	8221.0
14	17	55	12	284	105.0	-174966.0	-6828.0	8077.0
14	17	55	12	284	106.0	-174376.0	-6862.0	7871.0
14	17	55	12	304	107.0	-174210.0	-6934.0	8506.0
14	17	55	12	305	108.0	-174499.0	-6953.0	8583.0
14	17	55	12	305	109.0	-175765.0	-6951.0	8009.0
14	17	55	12	306	110.0	-177951.0	-6991.0	8038.0
14	17	55	12	306	111.0	-180507.0	-7042.0	8395.0
14	17	55	12	307	112.0	-183474.0	-7062.0	8390.0
14	17	55	12	307	113.0	-186686.0	-7084.0	8057.0
14	17	55	12	308	114.0	-190409.0	-7112.0	8284.0
14	17	55	12	308	115.0	-194121.0	-7142.0	8981.0
14	17	55	12	309	116.0	-197344.0	-7161.0	8231.0
14	17	55	12	310	117.0	-199960.0	-7177.0	7434.0
14	17	55	12	310	118.0	-202099.0	-7238.0	7953.0
14	17	55	12	311	119.0	-203975.0	-7267.0	8021.0
14	17	55	12	311	120.0	-205835.0	-7259.0	7432.0
14	17	55	12	312	121.0	-207207.0	-7281.0	7518.0
14	17	55	12	312	122.0	-207907.0	-7316.0	7673.0
14	17	55	12	313	123.0	-208562.0	-7343.0	7606.0
14	17	55	12	313	124.0	-209557.0	-7406.0	7399.0
14	17	55	12	314	125.0	-210613.0	-7418.0	7735.0
14	17	55	12	314	126.0	-210839.0	-7431.0	7938.0
14	17	55	12	315	127.0	-210538.0	-7456.0	8027.0
14	17	55	12	316	128.0	-209714.0	-7494.0	7688.0
14	17	55	12	327	129.0	-208805.0	-7532.0	7043.0
14	17	55	12	328	130.0	-207677.0	-7552.0	7116.0
14	17	55	12	328	131.0	-206199.0	-7572.0	7064.0
14	17	55	12	329	132.0	-204346.0	-7639.0	7016.0
14	17	55	12	329	133.0	-202481.0	-7687.0	7266.0
14	17	55	12	330	134.0	-200724.0	-7707.0	6931.0
14	17	55	12	330	135.0	-199619.0	-7704.0	6741.0
14	17	55	12	331	136.0	-199212.0	-7706.0	7078.0
14	17	55	12	350	137.0	-198878.0	-7761.0	6763.0
14	17	55	12	351	138.0	-198437.0	-7749.0	6637.0
14	17	55	12	351	139.0	-198018.0	-7757.0	7078.0
14	17	55	12	352	140.0	-197712.0	-7780.0	6853.0
14	17	55	12	353	141.0	-197337.0	-7794.0	7338.0
14	17	55	12	353	142.0	-196706.0	-7836.0	6921.0
14	17	55	12	354	143.0	-196027.0	-7887.0	6833.0
14	17	55	12	354	144.0	-195924.0	-7908.0	6775.0
14	17	55	12	355	145.0	-196317.0	-7914.0	6614.0
14	17	55	12	355	146.0	-196839.0	-7927.0	7528.0
14	17	55	12	356	147.0	-197291.0	-7922.0	6998.0
14	17	55	12	357	148.0	-198307.0	-7935.0	6020.0
14	17	55	12	357	149.0	-199374.0	-7970.0	7226.0
14	17	55	12	358	150.0	-200529.0	-7991.0	7229.0
14	17	55	12	358	151.0	-201552.0	-7990.0	7125.0
14	17	55	12	359	152.0	-202592.0	-8049.0	7126.0
14	17	55	12	359	153.0	-203449.0	-8060.0	7630.0
14	17	55	12	372	154.0	-204094.0	-8037.0	7190.0
14	17	55	12	373	155.0	-204422.0	-8054.0	7580.0
14	17	55	12	373	156.0	-204824.0	-8055.0	7546.0
14	17	55	12	374	157.0	-205497.0	-8039.0	7393.0
14	17	55	12	374	158.0	-205854.0	-8054.0	7305.0
14	17	55	12	375	159.0	-206341.0	-8032.0	7717.0
14	17	55	12	396	160.0	-206542.0	-8059.0	7996.0
14	17	55	12	396	161.0	-206817.0	-8030.0	7271.0
14	17	55	12	397	162.0	-206481.0	-8053.0	7902.0
14	17	55	12	398	163.0	-205515.0	-8066.0	8434.0
14	17	55	12	398	164.0	-203778.0	-8025.0	7974.0
14	17	55	12	399	165.0	-202196.0	-7977.0	7736.0
14	17	55	12	399	166.0	-200590.0	-7962.0	8308.0
14	17	55	12	400	167.0	-198638.0	-7941.0	8273.0
14	17	55	12	400	168.0	-196884.0	-7907.0	8566.0
14	17	55	12	401	169.0	-195431.0	-7865.0	8739.0
14	17	55	12	402	170.0	-194147.0	-7812.0	8908.0
14	17	55	12	402	171.0	-192834.0	-7711.0	9006.0
14	17	55	12	403	172.0	-191852.0	-7661.0	8597.0
14	17	55	12	403	173.0	-190917.0	-7604.0	8502.0
14	17	55	12	404	174.0	-189924.0	-7502.0	8944.0
14	17	55	12	404	175.0	-188861.0	-7429.0	9125.0
14	17	55	12	420	176.0	-188119.0	-7314.0	8270.0
14	17	55	12	420	177.0	-187757.0	-7220.0	7999.0
14	17	55	12	421	178.0	-187866.0	-7102.0	8780.0
14	17	55	12	421	179.0	-188391.0	-6964.0	8515.0
14	17	55	12	422	180.0	-188981.0	-6831.0	8029.0
14	17	55	12	422	181.0	-189995.0	-6672.0	8739.0
14	17	55	12	423	182.0	-191494.0	-6497.0	8651.0
14	17	55	12	443	183.0	-192617.0	-6388.0	8556.0
14	17	55	12	443	184.0	-193573.0	-6232.0	8621.0
14	17	55	12	444	185.0	-195196.0	-6074.0	9437.0
14	17	55	12	444	186.0	-197168.0	-5940.0	8919.0
14	17	55	12	445	187.0	-199284.0	-5749.0	8704.0
14	17	55	12	446	188.0	-201569.0	-5575.0	8643.0
14	17	55	12	446	189.0	-204072.0	-5382.0	8969.0
14	17	55	12	447	190.0	-206666.0	-5223.0	9154.0
14	17	55	12	447	191.0	-209257.0	-5069.0	9018.0
14	17	55	12	448	192.0	-211878.0	-4880.0	9311.0
14	17	55	12	448	193.0	-214314.0	-4706.0	9667.0
14	17	55	12	449	194.0	-216547.0	-4533.0	10259.0
14	17	55	12	449	195.0	-218069.0	-4340.0	9953.0
14	17	55	12	450	196.0	-218731.0	-4150.0	9375.0
14	17	55	12	451	197.0	-218627.0	-4014.0	9736.0
14	17	55	12	466	198.0	-218424.0	-3838.0	9786.0
14	17	55	12	466	199.0	-218223.0	-3680.0	9533.0
14	17	55	12	467	200.0	-218013.0	-3511.0	9434.0
14	17	55	12	467	201.0	-217606.0	-3327.0	9682.0
14	17	55	12	468	202.0	-216344.0	-3136.0	10291.0
14	17	55	12	469	203.0	-214255.0	-3015.0	9833.0
14	17	55	12	469	204.0	-210473.0	-2836.0	9363.0
14	17	55	12	488	205.0	-205477.0	-2683.0	10007.0
14	17	55	12	489	206.0	-199414.0	-2537.0	9853.0
14	17	55	12	489	207.0	-190655.0	-2345.0	9428.0
14	17	55	12	490	208.0	-178022.0	-2177.0	9723.0
14	17	55	12	491	209.0	-165506.0	-2044.0	10368.0
14	17	55	12	491	210.0	-156367.0	-1925.0	9931.0
14	17	55	12	492	211.0	-155723.0	-1767.0	9690.0
14	17	55	12	492	212.0	-158892.0	-1652.0	10095.0
14	17	55	12	493	213.0	-164815.0	-1546.0	9492.0
14	17	55	12	494	214.0	-170484.0	-1386.0	9454.0
14	17	55	12	494	215.0	-174067.0	-1224.0	9362.0
14	17	55	12	495	216.0	-174862.0	-1107.0	9439.0
14	17	55	12	495	217.0	-174999.0	-1025.0	9511.0
14	17	55	12	496	218.0	-175936.0	-862.0	9601.0
14	17	55	12	496	219.0	-176379.0	-712.0	9434.0
14	17	55	12	497	220.0	-176400.0	-629.0	9679.0
14	17	55	12	511	221.0	-177660.0	-501.0	9216.0
14	17	55	12	512	222.0	-180267.0	-424.0	8573.0
14	17	55	12	512	223.0	-183262.0	-332.0	9366.0
14	17	55	12	513	224.0	-186199.0	-239.0	9529.0
14	17	55	12	514	225.0	-189026.0	-133.0	9141.0
14	17	55	12	514	226.0	-190917.0	-37.0	9176.0
14	17	55	12	515	227.0	-192073.0	83.0	9206.0
14	17	55	12	515	228.0	-193269.0	171.0	9226.0
14	17	55	12	516	229.0	-194949.0	270.0	8972.0
14	17	55	12	517	230.0	-196407.0	346.0	8984.0
14	17	55	12	517	231.0	-197841.0	377.0	9008.0
14	17	55	12	518	232.0	-198875.0	494.0	8958.0
14	17	55	12	518	233.0	-199519.0	571.0	9185.0
14	17	55	12	519	234.0	-200309.0	639.0	9295.0
14	17	55	12	533	235.0	-201109.0	733.0	9447.0
14	17	55	12	534	236.0	-202081.0	804.0	9463.0
14	17	55	12	534	237.0	-203152.0	851.0	9349.0
14	17	55	12	535	238.0	-204322.0	914.0	9045.0
14	17	55	12	535	239.0	-205362.0	996.0	9188.0
14	17	55	12	536	240.0	-206761.0	1064.0	8979.0
14	17	55	12	537	241.0	-208153.0	1103.0	9349.0
14	17	55	12	537	242.0	-209312.0	1156.0	9207.0
14	17	55	12	561	243.0	-210392.0	1216.0	9906.0
14	17	55	12	562	244.0	-211331.0	1324.0	9320.0
14	17	55	12	562	245.0	-212043.0	1356.0	9521.0
14	17	55	12	563	246.0	-212922.0	1381.0	9606.0
14	17	55	12	563	247.0	-213802.0	1444.0	8887.0
14	17	55	12	564	248.0	-214594.0	1489.0	8939.0
14	17	55	12	565	249.0	-215542.0	1491.0	9578.0
14	17	55	12	565	250.0	-216151.0	1546.0	8908.0
14	17	55	12	582	251.0	-216310.0	1635.0	8609.0
14	17	55	12	583	252.0	-216464.0	1688.0	9392.0
14	17	55	12	584	253.0	-216253.0	1713.0	9657.0
14	17	55	12	584	254.0	-215500.0	1710.0	9185.0
14	17	55	12	585	255.0	-214509.0	1778.0	9051.0
14	17	55	12	585	0.0	-213249.0	1777.0	9009.0
14	17	55	12	586	1.0	-211707.0	1789.0	8936.0
14	17	55	12	606	2.0	-209968.0	1853.0	8987.0
14	17	55	12	606	3.0	-208146.0	1908.0	9422.0
14	17	55	12	607	4.0	-206125.0	1934.0	8858.0
14	17	55	12	608	5.0	-204310.0	1962.0	9450.0
14	17	55	12	608	6.0	-202567.0	1964.0	9673.0
14	17	55	12	609	7.0	-200620.0	1962.0	9313.0
14	17	55	12	609	8.0	-198772.0	1994.0	9178.0
14	17	55	12	610	9.0	-197176.0	2018.0	9751.0
14	17	55	12	610	10.0	-195031.0	2025.0	9423.0
14	17	55	12	611	11.0	-192665.0	2076.0	9485.0
14	17	55	12	612	12.0	-190675.0	2090.0	9669.0
14	17	55	12	612	13.0	-188763.0	2102.0	9649.0
14	17	55	12	613	14.0	-186826.0	2122.0	9153.0
14	17	55	12	613	15.0	-184831.0	2126.0	9380.0
14	17	55	12	614	16.0	-183309.0	2104.0	9606.0
14	17	55	12	614	17.0	-182137.0	2162.0	9680.0
14	17	55	12	615	18.0	-181135.0	2168.0	9262.0
14	17	55	12	615	19.0	-180045.0	2130.0	9254.0
14	17	55	12	616	20.0	-179632.0	2148.0	9924.0
14	17	55	12	617	21.0	-179694.0	2144.0	9988.0
14	17	55	12	617	22.0	-179946.0	2177.0	9546.0
14	17	55	12	628	23.0	-180533.0	2183.0	9895.0
14	17	55	12	629	24.0	-181896.0	2180.0	9579.0
14	17	55	12	629	25.0	-183449.0	2169.0	9188.0
14	17	55	12	630	26.0	-185062.0	2151.0	9497.0
14	17	55	12	631	27.0	-186603.0	2153.0	9631.0
14	17	55	12	631	28.0	-187669.0	2146.0	9615.0
14	17	55	12	632	29.0	-188967.0	2196.0	9761.0
14	17	55	12	633	30.0	-190391.0	2169.0	9490.0
14	17	55	12	633	31.0	-191758.0	2156.0	9418.0
14	17	55	12	651	32.0	-192804.0	2139.0	8917.0
14	17	55	12	652	33.0	-193819.0	2108.0	9263.0
14	17	55	12	653	34.0	-194931.0	2098.0	9726.0
14	17	55	12	653	35.0	-195909.0	2090.0	9290.0
14	17	55	12	654	36.0	-196728.0	2099.0	9289.0
14	17	55	12	654	37.0	-197296.0	2113.0	9725.0
14	17	55	12	655	38.0	-197749.0	2115.0	9554.0
14	17	55	12	656	39.0	-198143.0	2104.0	9260.0
14	17	55	12	656	40.0	-198566.0	2069.0	9121.0
14	17	55	12	657	41.0	-199181.0	2098.0	9546.0
14	17	55	12	657	42.0	-199597.0	2041.0	9059.0
14	17	55	12	658	43.0	-199884.0	1997.0	8900.0
14	17	55	12	658	44.0	-199843.0	2003.0	8966.0
14	17	55	12	659	45.0	-199989.0	1971.0	9708.0
14	17	55	12	660	46.0	-200026.0	1957.0	8741.0
14	17	55	12	673	47.0	-199291.0	1910.0	9261.0
14	17	55	12	674	48.0	-198598.0	1908.0	9883.0
14	17	55	12	675	49.0	-198226.0	1871.0	9536.0
14	17	55	12	675	50.0	-197848.0	1863.0	9736.0
14	17	55	12	676	51.0	-197698.0	1851.0	9414.0
14	17	55	12	677	52.0	-197821.0	1793.0	9600.0
14	17	55	12	677	53.0	-198292.0	1747.0	9460.0
14	17	55	12	699	54.0	-199070.0	1697.0	9513.0
14	17	55	12	699	55.0	-200179.0	1769.0	9468.0
14	17	55	12	700	56.0	-201289.0	1793.0	9506.0
14	17	55	12	701	57.0	-201974.0	1772.0	10086.0
14	17	55	12	701	58.0	-202342.0	1735.0	9941.0
14	17	55	12	702	59.0	-202593.0	1740.0	9566.0
14	17	55	12	703	60.0	-202274.0	1689.0	9505.0
14	17	55	12	703	61.0	-201892.0	1640.0	9542.0
14	17	55	12	704	62.0	-201507.0	1681.0	9508.0
14	17	55	12	704	63.0	-201054.0	1669.0	9104.0
14	17	55	12	722	64.0	-200467.0	1679.0	9277.0
14	17	55	12	723	65.0	-200097.0	1624.0	9595.0
14	17	55	12	723	66.0	-199773.0	1629.0	9463.0
14	17	55	12	724	67.0	-199053.0	1609.0	9478.0
14	17	55	12	725	68.0	-198473.0	1546.0	9326.0
14	17	55	12	725	69.0	-197588.0	1519.0	9436.0
14	17	55	12	726	70.0	-196301.0	1511.0	9702.0
14	17	55	12	727	71.0	-194968.0	1501.0	9636.0
14	17	55	12	727	72.0	-193721.0	1473.0	9218.0
14	17	55	12	728	73.0	-192327.0	1466.0	9423.0
14	17	55	12	728	74.0	-190625.0	1464.0	9124.0
14	17	55	12	729	75.0	-189144.0	1426.0	8636.0
14	17	55	12	730	76.0	-188096.0	1374.0	9061.0
14	17	55	12	730	77.0	-186701.0	1394.0	9538.0
14	17	55	12	731	78.0	-185580.0	1335.0	8946.0
14	17	55	12	731	79.0	-184689.0	1354.0	8789.0
14	17	55	12	732	80.0	-183818.0	1349.0	9250.0
14	17	55	12	733	81.0	-183487.0	1269.0	8690.0
14	17	55	12	733	82.0	-183792.0	1284.0	8940.0
14	17	55	12	744	83.0	-184588.0	1328.0	8647.0
14	17	55	12	745	84.0	-185374.0	1310.0	8549.0
14	17	55	12	745	85.0	-186348.0	1309.0	9027.0
14	17	55	12	746	86.0	-187349.0	1206.0	8774.0
14	17	55	12	747	87.0	-188453.0	1154.0	8461.0
14	17	55	12	747	88.0	-189814.0	1118.0	8466.0
14	17	55	12	748	89.0	-191164.0	1067.0	8290.0
14	17	55	12	749	90.0	-192520.0	1067.0	8911.0
14	17	55	12	749	91.0	-194019.0	1108.0	8107.0
14	17	55	12	768	92.0	-196016.0	1091.0	8808.0
14	17	55	12	769	93.0	-197904.0	1094.0	9082.0
14	17	55	12	770	94.0	-199462.0	1098.0	8338.0
14	17	55	12	770	95.0	-200846.0	974.0	8571.0
14	17	55	12	771	96.0	-202293.0	981.0	9418.0
14	17	55	12	772	97.0	-203760.0	943.0	8554.0
14	17	55	12	772	98.0	-204670.0	954.0	8321.0
14	17	55	12	773	99.0	-205561.0	981.0	9459.0
14	17	55	12	773	100.0	-206067.0	989.0	8991.0
14	17	55	12	790	101.0	-206251.0	971.0	8776.0
14	17	55	12	791	102.0	-206242.0	889.0	8089.0
14	17	55	12	792	103.0	-206357.0	853.0	8133.0
14	17	55	12	793	104.0	-206253.0	864.0	8208.0
14	17	55	12	793	105.0	-205422.0	811.0	7651.0
14	17	55	12	794	106.0	-204169.0	834.0	7636.0
14	17	55	12	813	107.0	-202679.0	822.0	8259.0
14	17	55	12	814	108.0	-201011.0	753.0	8228.0
14	17	55	12	815	109.0	-199264.0	701.0	7381.0
14	17	55	12	815	110.0	-197401.0	665.0	7197.0
14	17	55	12	816	111.0	-195692.0	654.0	7401.0
14	17	55	12	817	112.0	-194627.0	582.0	7144.0
14	17	55	12	817	113.0	-194029.0	555.0	6566.0
14	17	55	12	818	114.0	-193589.0	564.0	7778.0
14	17	55	12	819	115.0	-193159.0	581.0	7204.0
14	17	55	12	819	116.0	-193161.0	527.0	7760.0
14	17	55	12	820	117.0	-193649.0	498.0	8047.0
14	17	55	12	820	118.0	-194412.0	498.0	8138.0
14	17	55	12	821	119.0	-194925.0	458.0	8453.0
14	17	55	12	822	120.0	-195188.0	428.0	8049.0
14	17	55	12	822	121.0	-195047.0	400.0	8571.0
14	17	55	12	823	122.0	-195205.0	379.0	8329.0
14	17	55	12	823	123.0	-195313.0	389.0	8662.0
14	17	55	12	824	124.0	-195189.0	343.0	8070.0
14	17	55	12	825	125.0	-195379.0	271.0	8463.0
14	17	55	12	825	126.0	-195299.0	252.0	8252.0
14	17	55	12	836	127.0	-194896.0	283.0	8064.0
14	17	55	12	837	128.0	-194374.0	199.0	8239.0
14	17	55	12	837	129.0	-193886.0	133.0	8259.0
14	17	55	12	838	130.0	-193480.0	146.0	7799.0
14	17	55	12	839	131.0	-193108.0	139.0	8548.0
14	17	55	12	839	132.0	-192689.0	104.0	8546.0
14	17	55	12	840	133.0	-192452.0	41.0	8162.0
14	17	55	12	840	134.0	-192550.0	9.0	8453.0
14	17	55	12	841	135.0	-192989.0	-8.0	8428.0
14	17	55	12	842	136.0	-193596.0	-32.0	8594.0
14	17	55	12	860	137.0	-193889.0	-42.0	8371.0
14	17	55	12	860	138.0	-193917.0	-119.0	7838.0
14	17	55	12	861	139.0	-193136.0	-195.0	8021.0
14	17	55	12	862	140.0	-191762.0	-244.0	8001.0
14	17	55	12	863	141.0	-190244.0	-225.0	7764.0
14	17	55	12	864	142.0	-188958.0	-269.0	7711.0
14	17	55	12	864	143.0	-187785.0	-279.0	7464.0
14	17	55	12	865	144.0	-186742.0	-306.0	7987.0
14	17	55	12	865	145.0	-185485.0	-382.0	7420.0
14	17	55	12	866	146.0	-184002.0	-460.0	7683.0
14	17	55	12	867	147.0	-182503.0	-530.0	8236.0
14	17	55	12	867	148.0	-181694.0	-532.0	7704.0
14	17	55	12	868	149.0	-181099.0	-584.0	7376.0
14	17	55	12	869	150.0	-180466.0	-640.0	7759.0
14	17	55	12	884	151.0	-180143.0	-667.0	6813.0
14	17	55	12	885	152.0	-180296.0	-661.0	7408.0
14	17	55	12	885	153.0	-180483.0	-786.0	8110.0
14	17	55	12	886	154.0	-180779.0	-841.0	7601.0
14	17	55	12	887	155.0	-181513.0	-872.0	7720.0
14	17	55	12	887	156.0	-182618.0	-876.0	7608.0
14	17	55	12	888	157.0	-183943.0	-934.0	7488.0
14	17	55	12	908	158.0	-185773.0	-974.0	7286.0
14	17	55	12	909	159.0	-187897.0	-1030.0	6734.0
14	17	55	12	909	160.0	-190101.0	-1087.0	7681.0
14	17	55	12	910	161.0	-192546.0	-1134.0	7526.0
14	17	55	12	910	162.0	-195309.0	-1146.0	7231.0
14	17	55	12	911	163.0	-198120.0	-1207.0	7941.0
14	17	55	12	911	164.0	-200644.0	-1245.0	7765.0
14	17	55	12	912	165.0	-202942.0	-1261.0	7563.0
14	17	55	12	912	166.0	-205079.0	-1352.0	7976.0
