14	17	38	5	259	200.0	-200556.0	-5862.0	-13397.0
14	17	38	5	261	201.0	-199788.0	-5881.0	-12712.0
14	17	38	5	263	202.0	-199124.0	-5906.0	-11845.0
14	17	38	5	265	203.0	-198513.0	-5939.0	-11270.0
14	17	38	5	267	204.0	-197583.0	-5954.0	-10829.0
14	17	38	5	269	205.0	-196211.0	-5962.0	-9741.0
14	17	38	5	282	206.0	-194854.0	-5959.0	-9124.0
14	17	38	5	283	207.0	-193884.0	-5971.0	-8837.0
14	17	38	5	284	208.0	-192967.0	-5993.0	-7102.0
14	17	38	5	284	209.0	-191689.0	-5977.0	-3994.0
14	17	38	5	285	210.0	-190529.0	-5984.0	2357.0
14	17	38	5	285	211.0	-189697.0	-5989.0	5453.0
14	17	38	5	286	212.0	-189389.0	-5983.0	5328.0
14	17	38	5	286	213.0	-189068.0	-5972.0	5163.0
14	17	38	5	287	214.0	-188807.0	-5949.0	4649.0
14	17	38	5	288	215.0	-188338.0	-5936.0	4637.0
14	17	38	5	288	216.0	-187641.0	-5899.0	4243.0
14	17	38	5	289	217.0	-186679.0	-5885.0	3046.0
14	17	38	5	289	218.0	-186008.0	-5839.0	2194.0
14	17	38	5	309	219.0	-185844.0	-5796.0	1802.0
14	17	38	5	310	220.0	-185809.0	-5756.0	2119.0
14	17	38	5	311	221.0	-185469.0	-5694.0	1135.0
14	17	38	5	311	222.0	-184983.0	-5644.0	644.0
14	17	38	5	340	223.0	-184783.0	-5582.0	1332.0
14	17	38	5	385	224.0	-184879.0	-5491.0	1303.0
14	17	38	5	385	225.0	-185241.0	-5427.0	1151.0
14	17	38	5	386	226.0	-185904.0	-5367.0	609.0
14	17	38	5	386	227.0	-186374.0	-5294.0	536.0
14	17	38	5	387	228.0	-186919.0	-5199.0	103.0
14	17	38	5	387	229.0	-188144.0	-5105.0	46.0
14	17	38	5	388	230.0	-189636.0	-5021.0	54.0
14	17	38	5	430	231.0	-190272.0	-4914.0	342.0
14	17	38	5	430	232.0	-190525.0	-4809.0	67.0
14	17	38	5	431	233.0	-191204.0	-4717.0	-61.0
14	17	38	5	433	234.0	-191459.0	-4618.0	-457.0
14	17	38	5	433	235.0	-191470.0	-4511.0	-127.0
14	17	38	5	434	236.0	-191462.0	-4394.0	110.0
14	17	38	5	434	237.0	-191030.0	-4284.0	61.0
14	17	38	5	435	245.0	-189764.0	-3359.0	2164.0
14	17	38	5	436	11.0	-205676.0	-1130.0	1638.0
14	17	38	5	436	12.0	-206006.0	-1044.0	2058.0
14	17	38	5	475	13.0	-204929.0	-979.0	1732.0
14	17	38	5	475	14.0	-202292.0	-916.0	2436.0
14	17	38	5	476	15.0	-198446.0	-851.0	2254.0
14	17	38	5	476	16.0	-194535.0	-787.0	2017.0
14	17	38	5	477	17.0	-191210.0	-718.0	2576.0
14	17	38	5	478	18.0	-189157.0	-669.0	2428.0
14	17	38	5	478	34.0	-197321.0	-136.0	3363.0
14	17	38	5	479	35.0	-197437.0	-131.0	2867.0
14	17	38	5	480	36.0	-196884.0	-95.0	3200.0
14	17	38	5	480	37.0	-195382.0	-88.0	3423.0
14	17	38	5	481	38.0	-193201.0	-88.0	3708.0
14	17	38	5	481	39.0	-190998.0	-78.0	2836.0
14	17	38	5	482	40.0	-189517.0	-67.0	3186.0
14	17	38	5	483	41.0	-188812.0	-58.0	4723.0
14	17	38	5	483	42.0	-187870.0	-67.0	6281.0
14	17	38	5	484	56.0	-185704.0	-190.0	5896.0
14	17	38	5	485	57.0	-186487.0	-187.0	6551.0
14	17	38	5	485	58.0	-187201.0	-219.0	6729.0
14	17	38	5	486	59.0	-187986.0	-240.0	5888.0
14	17	38	5	486	60.0	-189104.0	-254.0	5694.0
14	17	38	5	487	61.0	-190623.0	-296.0	5715.0
14	17	38	5	519	62.0	-192190.0	-333.0	6039.0
14	17	38	5	520	63.0	-194065.0	-362.0	6096.0
14	17	38	5	521	64.0	-196004.0	-369.0	5521.0
14	17	38	5	521	65.0	-197732.0	-397.0	5686.0
14	17	38	5	522	66.0	-199391.0	-435.0	5899.0
14	17	38	5	523	67.0	-201170.0	-471.0	6305.0
14	17	38	5	523	68.0	-202506.0	-507.0	6325.0
14	17	38	5	524	69.0	-203241.0	-547.0	6162.0
14	17	38	5	524	70.0	-203521.0	-576.0	5823.0
14	17	38	5	525	71.0	-203221.0	-603.0	5957.0
14	17	38	5	526	72.0	-202678.0	-644.0	6164.0
14	17	38	5	526	73.0	-202230.0	-691.0	6318.0
14	17	38	5	527	74.0	-201699.0	-735.0	5578.0
14	17	38	5	527	75.0	-200655.0	-763.0	5371.0
14	17	38	5	528	76.0	-199570.0	-807.0	6713.0
14	17	38	5	529	78.0	-198095.0	-879.0	6008.0
14	17	38	5	530	79.0	-197657.0	-906.0	6369.0
14	17	38	5	531	80.0	-197393.0	-944.0	5858.0
14	17	38	5	531	81.0	-197067.0	-964.0	4906.0
14	17	38	5	532	82.0	-196782.0	-1005.0	5977.0
14	17	38	5	537	83.0	-196417.0	-1048.0	6274.0
14	17	38	5	538	84.0	-195850.0	-1086.0	6051.0
14	17	38	5	565	85.0	-195131.0	-1117.0	5863.0
14	17	38	5	566	86.0	-194952.0	-1157.0	5428.0
14	17	38	5	589	87.0	-194903.0	-1205.0	4668.0
14	17	38	5	589	88.0	-194647.0	-1252.0	4291.0
14	17	38	5	590	89.0	-194409.0	-1282.0	4343.0
14	17	38	5	590	90.0	-193954.0	-1319.0	4369.0
14	17	38	5	591	91.0	-193212.0	-1359.0	4045.0
14	17	38	5	591	92.0	-192131.0	-1377.0	3534.0
14	17	38	5	592	93.0	-191151.0	-1415.0	3563.0
14	17	38	5	593	94.0	-190119.0	-1442.0	3626.0
14	17	38	5	593	95.0	-189266.0	-1463.0	3368.0
14	17	38	5	594	96.0	-188992.0	-1496.0	3049.0
14	17	38	5	594	97.0	-188839.0	-1536.0	2858.0
14	17	38	5	595	98.0	-188973.0	-1550.0	3576.0
14	17	38	5	595	99.0	-189480.0	-1569.0	3764.0
14	17	38	5	596	101.0	-191059.0	-1622.0	3911.0
14	17	38	5	596	102.0	-192364.0	-1639.0	4424.0
14	17	38	5	597	103.0	-193706.0	-1656.0	7066.0
14	17	38	5	597	104.0	-194904.0	-1679.0	11058.0
14	17	38	5	598	105.0	-195941.0	-1704.0	11612.0
14	17	38	5	598	106.0	-196676.0	-1734.0	11049.0
14	17	38	5	612	107.0	-197176.0	-1736.0	9996.0
14	17	38	5	612	108.0	-197861.0	-1741.0	8039.0
14	17	38	5	613	109.0	-198480.0	-1760.0	6341.0
14	17	38	5	613	110.0	-198482.0	-1766.0	5334.0
14	17	38	5	614	111.0	-197986.0	-1779.0	5861.0
14	17	38	5	615	112.0	-197440.0	-1794.0	7077.0
14	17	38	5	615	113.0	-196871.0	-1796.0	7328.0
14	17	38	5	655	114.0	-195938.0	-1802.0	5943.0
14	17	38	5	656	115.0	-194867.0	-1821.0	4532.0
14	17	38	5	657	116.0	-194044.0	-1817.0	4366.0
14	17	38	5	657	117.0	-192924.0	-1834.0	3778.0
14	17	38	5	658	118.0	-192219.0	-1847.0	3509.0
14	17	38	5	658	119.0	-192252.0	-1854.0	3246.0
14	17	38	5	659	120.0	-192357.0	-1849.0	3205.0
14	17	38	5	660	121.0	-192524.0	-1856.0	2687.0
14	17	38	5	660	123.0	-193358.0	-1849.0	2777.0
14	17	38	5	661	124.0	-193479.0	-1862.0	3840.0
14	17	38	5	661	125.0	-193616.0	-1869.0	3989.0
14	17	38	5	662	126.0	-193597.0	-1881.0	3499.0
14	17	38	5	662	127.0	-193236.0	-1869.0	3768.0
14	17	38	5	663	128.0	-192691.0	-1876.0	3934.0
14	17	38	5	664	129.0	-191719.0	-1872.0	3740.0
14	17	38	5	664	130.0	-190651.0	-1881.0	3859.0
14	17	38	5	665	146.0	-192722.0	-1996.0	4627.0
14	17	38	5	665	147.0	-192026.0	-2017.0	4823.0
14	17	38	5	666	148.0	-191084.0	-2027.0	4925.0
14	17	38	5	666	149.0	-190206.0	-2050.0	4741.0
14	17	38	5	667	150.0	-189554.0	-2077.0	4576.0
14	17	38	5	667	151.0	-188944.0	-2086.0	4589.0
14	17	38	5	700	152.0	-188522.0	-2087.0	5387.0
14	17	38	5	701	153.0	-188768.0	-2112.0	5323.0
14	17	38	5	702	154.0	-189084.0	-2130.0	4953.0
14	17	38	5	702	155.0	-188992.0	-2154.0	4399.0
14	17	38	5	703	156.0	-189043.0	-2180.0	4841.0
14	17	38	5	703	157.0	-189449.0	-2186.0	5212.0
14	17	38	5	745	158.0	-190075.0	-2213.0	5119.0
14	17	38	5	746	159.0	-190980.0	-2239.0	5247.0
14	17	38	5	746	160.0	-191953.0	-2261.0	6023.0
14	17	38	5	747	161.0	-193274.0	-2283.0	4921.0
14	17	38	5	747	162.0	-194789.0	-2304.0	2916.0
14	17	38	5	748	163.0	-195801.0	-2317.0	1614.0
14	17	38	5	749	164.0	-196214.0	-2345.0	-1281.0
14	17	38	5	749	165.0	-196632.0	-2369.0	-5033.0
14	17	38	5	750	166.0	-197178.0	-2392.0	-6682.0
14	17	38	5	750	168.0	-197517.0	-2454.0	-8403.0
14	17	38	5	751	169.0	-197399.0	-2491.0	-7932.0
14	17	38	5	752	170.0	-197507.0	-2521.0	-8137.0
14	17	38	5	752	171.0	-197979.0	-2524.0	-10454.0
14	17	38	5	753	172.0	-198359.0	-2544.0	-10567.0
14	17	38	5	753	173.0	-198781.0	-2591.0	-9146.0
14	17	38	5	754	174.0	-199320.0	-2628.0	-6066.0
14	17	38	5	754	191.0	-184770.0	-3174.0	6598.0
14	17	38	5	755	192.0	-185290.0	-3207.0	7816.0
14	17	38	5	756	193.0	-185495.0	-3233.0	8191.0
14	17	38	5	756	194.0	-184508.0	-3259.0	8251.0
14	17	38	5	757	195.0	-182899.0	-3290.0	8625.0
14	17	38	5	757	196.0	-182985.0	-3314.0	8949.0
14	17	38	5	789	197.0	-184529.0	-3377.0	8385.0
14	17	38	5	790	198.0	-186231.0	-3406.0	7288.0
14	17	38	5	790	199.0	-185868.0	-3441.0	6446.0
14	17	38	5	791	200.0	-181904.0	-3479.0	6041.0
14	17	38	5	792	201.0	-174655.0	-3521.0	8272.0
14	17	38	5	792	202.0	-165361.0	-3545.0	9056.0
14	17	38	5	793	203.0	-155899.0	-3583.0	7726.0
14	17	38	5	793	204.0	-148226.0	-3622.0	5768.0
14	17	38	5	805	205.0	-143442.0	-3656.0	5202.0
14	17	38	5	834	206.0	-141742.0	-3699.0	4703.0
14	17	38	5	834	207.0	-143645.0	-3726.0	4345.0
14	17	38	5	835	208.0	-148994.0	-3755.0	4503.0
14	17	38	5	836	209.0	-156771.0	-3795.0	4371.0
14	17	38	5	836	210.0	-165771.0	-3822.0	3592.0
14	17	38	5	837	211.0	-175139.0	-3871.0	2903.0
14	17	38	5	837	213.0	-191381.0	-3944.0	3058.0
14	17	38	5	838	214.0	-196652.0	-3986.0	3717.0
14	17	38	5	839	215.0	-200212.0	-4024.0	3520.0
14	17	38	5	839	216.0	-202296.0	-4039.0	3240.0
14	17	38	5	880	217.0	-203439.0	-4072.0	2708.0
14	17	38	5	880	218.0	-204037.0	-4119.0	2748.0
14	17	38	5	881	219.0	-203714.0	-4168.0	3026.0
14	17	38	5	881	220.0	-203548.0	-4196.0	2688.0
14	17	38	5	882	221.0	-203614.0	-4230.0	2238.0
14	17	38	5	883	222.0	-203423.0	-4274.0	2126.0
14	17	38	5	883	236.0	-192769.0	-4762.0	1537.0
14	17	38	5	884	237.0	-191495.0	-4814.0	1501.0
14	17	38	5	884	238.0	-190252.0	-4850.0	1781.0
14	17	38	5	885	239.0	-188991.0	-4877.0	1304.0
14	17	38	5	886	240.0	-187864.0	-4902.0	1047.0
14	17	38	5	886	241.0	-186899.0	-4946.0	768.0
14	17	38	5	887	242.0	-186124.0	-4976.0	830.0
14	17	38	5	887	243.0	-185884.0	-5018.0	1253.0
14	17	38	5	888	244.0	-186317.0	-5036.0	3329.0
14	17	38	5	889	2.0	-210392.0	-5510.0	1543.0
14	17	38	5	889	3.0	-211124.0	-5551.0	828.0
14	17	38	5	890	4.0	-211596.0	-5574.0	779.0
14	17	38	5	890	5.0	-211490.0	-5602.0	883.0
14	17	38	5	891	6.0	-211163.0	-5649.0	747.0
14	17	38	5	891	7.0	-210584.0	-5677.0	711.0
14	17	38	5	929	8.0	-209507.0	-5692.0	891.0
14	17	38	5	929	9.0	-208152.0	-5737.0	1251.0
14	17	38	5	930	10.0	-206714.0	-5767.0	1051.0
14	17	38	5	931	11.0	-204726.0	-5777.0	1530.0
14	17	38	5	931	12.0	-202562.0	-5798.0	1218.0
14	17	38	5	932	13.0	-200214.0	-5827.0	1540.0
14	17	38	5	932	14.0	-197516.0	-5856.0	1086.0
14	17	38	5	933	15.0	-194793.0	-5891.0	859.0
14	17	38	5	933	16.0	-192751.0	-5911.0	1008.0
14	17	38	5	934	17.0	-191104.0	-5921.0	1351.0
14	17	38	5	968	18.0	-189308.0	-5937.0	1168.0
14	17	38	5	969	19.0	-187316.0	-5930.0	842.0
14	17	38	5	969	20.0	-185107.0	-5915.0	808.0
14	17	38	5	970	21.0	-183257.0	-5912.0	1091.0
14	17	38	5	971	22.0	-182080.0	-5924.0	695.0
14	17	38	5	971	24.0	-179356.0	-5903.0	718.0
14	17	38	5	972	25.0	-177762.0	-5907.0	1081.0
14	17	38	5	973	26.0	-176746.0	-5900.0	1004.0
14	17	38	5	973	27.0	-175454.0	-5848.0	926.0
14	17	38	5	974	28.0	-174277.0	-5816.0	1131.0
14	17	38	5	974	29.0	-173604.0	-5784.0	938.0
14	17	38	5	975	30.0	-173192.0	-5741.0	774.0
14	17	38	5	976	31.0	-173239.0	-5692.0	934.0
14	17	38	5	976	32.0	-173654.0	-5646.0	495.0
14	17	38	5	977	33.0	-174402.0	-5604.0	384.0
14	17	38	5	977	34.0	-175722.0	-5556.0	-232.0
14	17	38	5	986	47.0	-205936.0	-4447.0	170.0
14	17	38	5	987	48.0	-206779.0	-4338.0	334.0
14	17	38	5	987	49.0	-207499.0	-4237.0	-5.0
14	17	38	5	988	50.0	-208763.0	-4124.0	124.0
14	17	38	5	989	51.0	-210052.0	-4026.0	-262.0
14	17	38	5	989	52.0	-210742.0	-3911.0	157.0
14	17	38	6	106	53.0	-210886.0	-3799.0	298.0
14	17	38	6	106	54.0	-210535.0	-3709.0	-359.0
14	17	38	6	107	55.0	-209628.0	-3609.0	805.0
14	17	38	6	108	56.0	-208067.0	-3488.0	4631.0
14	17	38	6	108	57.0	-206201.0	-3393.0	5753.0
14	17	38	6	109	58.0	-204172.0	-3285.0	3286.0
14	17	38	6	109	59.0	-201872.0	-3184.0	1620.0
14	17	38	6	150	60.0	-199604.0	-3083.0	1605.0
14	17	38	6	151	61.0	-197436.0	-2982.0	1083.0
14	17	38	6	151	62.0	-194732.0	-2868.0	859.0
14	17	38	6	152	63.0	-191766.0	-2766.0	1025.0
14	17	38	6	152	64.0	-187865.0	-2678.0	86.0
14	17	38	6	153	65.0	-183093.0	-2574.0	-1156.0
14	17	38	6	154	66.0	-178446.0	-2476.0	-671.0
14	17	38	6	154	67.0	-176799.0	-2389.0	-186.0
14	17	38	6	155	69.0	-183163.0	-2191.0	212.0
14	17	38	6	155	114.0	-195047.0	-782.0	-2466.0
14	17	38	6	195	115.0	-194441.0	-806.0	-1542.0
14	17	38	6	196	116.0	-193148.0	-821.0	-2049.0
14	17	38	6	196	117.0	-191694.0	-836.0	-2181.0
14	17	38	6	197	118.0	-190199.0	-857.0	-2107.0
14	17	38	6	198	119.0	-188602.0	-874.0	-2118.0
14	17	38	6	198	120.0	-186903.0	-888.0	-2468.0
14	17	38	6	199	137.0	-192458.0	-1497.0	-3775.0
14	17	38	6	199	138.0	-192890.0	-1529.0	-3607.0
14	17	38	6	200	139.0	-193092.0	-1576.0	-3641.0
14	17	38	6	201	140.0	-193582.0	-1627.0	-3441.0
14	17	38	6	201	141.0	-194151.0	-1664.0	-2908.0
14	17	38	6	202	142.0	-194984.0	-1710.0	-3146.0
14	17	38	6	202	143.0	-195926.0	-1761.0	-3456.0
14	17	38	6	203	144.0	-196721.0	-1797.0	-3284.0
14	17	38	6	204	145.0	-197529.0	-1837.0	-3340.0
14	17	38	6	204	146.0	-198035.0	-1901.0	-3717.0
14	17	38	6	205	159.0	-196137.0	-2374.0	-4455.0
14	17	38	6	206	160.0	-196955.0	-2412.0	-4346.0
14	17	38	6	206	161.0	-197752.0	-2444.0	-4539.0
14	17	38	6	207	162.0	-198359.0	-2467.0	-4641.0
14	17	38	6	207	163.0	-198235.0	-2496.0	-4909.0
14	17	38	6	208	164.0	-197854.0	-2527.0	-6134.0
14	17	38	6	208	165.0	-197570.0	-2549.0	-6352.0
14	17	38	6	240	166.0	-197383.0	-2568.0	-6303.0
14	17	38	6	240	167.0	-197133.0	-2590.0	-5624.0
14	17	38	6	241	168.0	-196939.0	-2605.0	-5829.0
14	17	38	6	242	169.0	-196602.0	-2626.0	-6271.0
14	17	38	6	251	170.0	-196613.0	-2647.0	-5428.0
14	17	38	6	252	171.0	-196606.0	-2666.0	-5655.0
14	17	38	6	253	172.0	-196797.0	-2693.0	-5551.0
14	17	38	6	253	173.0	-197194.0	-2706.0	-5362.0
14	17	38	6	254	174.0	-197521.0	-2722.0	-4932.0
14	17	38	6	255	175.0	-198035.0	-2718.0	-4727.0
14	17	38	6	255	176.0	-198511.0	-2739.0	-4930.0
14	17	38	6	256	177.0	-198496.0	-2757.0	-5290.0
14	17	38	6	256	178.0	-198482.0	-2761.0	-5000.0
14	17	38	6	257	179.0	-198663.0	-2773.0	-4537.0
14	17	38	6	258	180.0	-198731.0	-2781.0	-3716.0
14	17	38	6	258	181.0	-198658.0	-2797.0	-3579.0
14	17	38	6	259	182.0	-198871.0	-2811.0	-3036.0
14	17	38	6	259	183.0	-199127.0	-2811.0	-2869.0
14	17	38	6	260	184.0	-199471.0	-2807.0	-3326.0
14	17	38	6	261	185.0	-199737.0	-2826.0	-3074.0
14	17	38	6	261	186.0	-199874.0	-2822.0	-2669.0
14	17	38	6	262	187.0	-199717.0	-2814.0	-3342.0
14	17	38	6	285	188.0	-199620.0	-2837.0	-3526.0
14	17	38	6	286	189.0	-199601.0	-2839.0	-3507.0
14	17	38	6	287	190.0	-199127.0	-2851.0	-2472.0
14	17	38	6	287	191.0	-198257.0	-2856.0	979.0
14	17	38	6	288	192.0	-196927.0	-2857.0	1093.0
14	17	38	6	289	193.0	-195849.0	-2874.0	-481.0
14	17	38	6	289	194.0	-194933.0	-2881.0	-1564.0
14	17	38	6	290	195.0	-194308.0	-2882.0	-1907.0
14	17	38	6	291	196.0	-193767.0	-2884.0	-2412.0
14	17	38	6	291	197.0	-193085.0	-2893.0	-2648.0
14	17	38	6	292	198.0	-192188.0	-2894.0	-2600.0
14	17	38	6	293	199.0	-191624.0	-2877.0	-3052.0
14	17	38	6	293	200.0	-191533.0	-2884.0	-3198.0
14	17	38	6	294	201.0	-191260.0	-2900.0	-3079.0
14	17	38	6	295	202.0	-190656.0	-2909.0	-2989.0
14	17	38	6	295	204.0	-189758.0	-2935.0	-3302.0
14	17	38	6	296	205.0	-189149.0	-2954.0	-3589.0
14	17	38	6	296	206.0	-188800.0	-2977.0	-3941.0
14	17	38	6	297	207.0	-188279.0	-2957.0	-3899.0
14	17	38	6	298	208.0	-187137.0	-2964.0	-3762.0
14	17	38	6	298	209.0	-186391.0	-3003.0	-4660.0
14	17	38	6	330	210.0	-185945.0	-3001.0	-4293.0
14	17	38	6	330	211.0	-186002.0	-3015.0	-3742.0
14	17	38	6	331	212.0	-186281.0	-3049.0	-3907.0
14	17	38	6	332	213.0	-186792.0	-3059.0	-4229.0
14	17	38	6	333	214.0	-187407.0	-3062.0	-4169.0
14	17	38	6	333	215.0	-188046.0	-3079.0	-4597.0
14	17	38	6	334	216.0	-188757.0	-3096.0	-5092.0
14	17	38	6	335	217.0	-189407.0	-3118.0	-5947.0
14	17	38	6	335	218.0	-189722.0	-3143.0	-5847.0
14	17	38	6	336	219.0	-190126.0	-3167.0	-5621.0
14	17	38	6	337	220.0	-190261.0	-3168.0	-5251.0
14	17	38	6	337	221.0	-189897.0	-3175.0	-4877.0
14	17	38	6	338	222.0	-189576.0	-3207.0	-4959.0
14	17	38	6	338	223.0	-189292.0	-3244.0	-4746.0
14	17	38	6	339	224.0	-189104.0	-3264.0	-5351.0
14	17	38	6	340	226.0	-188799.0	-3318.0	-4514.0
14	17	38	6	340	227.0	-188270.0	-3344.0	-3725.0
14	17	38	6	341	228.0	-188134.0	-3369.0	-3209.0
14	17	38	6	342	229.0	-188568.0	-3391.0	-2732.0
14	17	38	6	342	230.0	-188837.0	-3424.0	-2830.0
14	17	38	6	343	231.0	-189086.0	-3453.0	-2835.0
14	17	38	6	343	232.0	-190076.0	-3476.0	-3756.0
14	17	38	6	374	233.0	-190728.0	-3498.0	-5754.0
14	17	38	6	375	234.0	-190850.0	-3530.0	-9619.0
14	17	38	6	376	235.0	-191433.0	-3550.0	-12479.0
14	17	38	6	376	236.0	-192275.0	-3583.0	-13902.0
14	17	38	6	377	237.0	-192984.0	-3604.0	-14049.0
14	17	38	6	378	238.0	-193384.0	-3627.0	-15020.0
14	17	38	6	378	239.0	-193950.0	-3662.0	-16172.0
14	17	38	6	379	240.0	-194534.0	-3701.0	-17984.0
14	17	38	6	380	241.0	-195075.0	-3719.0	-19179.0
14	17	38	6	380	242.0	-195890.0	-3753.0	-19227.0
14	17	38	6	381	243.0	-196615.0	-3792.0	-17842.0
14	17	38	6	381	244.0	-197222.0	-3825.0	-14432.0
14	17	38	6	382	245.0	-197928.0	-3840.0	-11358.0
14	17	38	6	383	246.0	-198907.0	-3861.0	-7744.0
14	17	38	6	383	247.0	-199829.0	-3894.0	-5562.0
14	17	38	6	384	249.0	-202004.0	-3971.0	-3717.0
14	17	38	6	385	250.0	-202680.0	-3997.0	-3830.0
14	17	38	6	385	251.0	-203426.0	-4036.0	-1675.0
14	17	38	6	386	252.0	-204641.0	-4068.0	1671.0
14	17	38	6	386	253.0	-205308.0	-4102.0	3253.0
14	17	38	6	387	254.0	-204862.0	-4144.0	2887.0
14	17	38	6	419	255.0	-204450.0	-4174.0	1215.0
14	17	38	6	433	0.0	-204920.0	-4195.0	332.0
14	17	38	6	434	1.0	-204140.0	-4224.0	2294.0
14	17	38	6	435	2.0	-201946.0	-4256.0	6108.0
14	17	38	6	435	3.0	-199584.0	-4298.0	6773.0
14	17	38	6	436	4.0	-197964.0	-4336.0	3512.0
14	17	38	6	437	5.0	-197404.0	-4375.0	2323.0
14	17	38	6	465	6.0	-197062.0	-4402.0	2488.0
14	17	38	6	466	7.0	-196204.0	-4464.0	2579.0
14	17	38	6	467	8.0	-194211.0	-4501.0	1880.0
14	17	38	6	468	9.0	-192417.0	-4528.0	958.0
14	17	38	6	468	10.0	-192506.0	-4547.0	698.0
14	17	38	6	469	11.0	-194235.0	-4591.0	-323.0
14	17	38	6	470	12.0	-194974.0	-4626.0	-1845.0
14	17	38	6	470	13.0	-193191.0	-4645.0	-2341.0
14	17	38	6	471	15.0	-179891.0	-4734.0	-4007.0
14	17	38	6	471	16.0	-170081.0	-4769.0	-4724.0
14	17	38	6	472	17.0	-161119.0	-4796.0	-4924.0
14	17	38	6	473	18.0	-154548.0	-4839.0	-4713.0
14	17	38	6	473	19.0	-150669.0	-4867.0	-4857.0
14	17	38	6	474	20.0	-149844.0	-4907.0	-5218.0
14	17	38	6	475	21.0	-151936.0	-4948.0	-5551.0
14	17	38	6	476	22.0	-156118.0	-4972.0	-6139.0
14	17	38	6	476	38.0	-203526.0	-5556.0	-7222.0
14	17	38	6	477	39.0	-205196.0	-5569.0	-7958.0
14	17	38	6	478	40.0	-207151.0	-5591.0	-7954.0
14	17	38	6	478	41.0	-209001.0	-5645.0	-7588.0
14	17	38	6	479	42.0	-210391.0	-5674.0	-7820.0
14	17	38	6	479	43.0	-211574.0	-5710.0	-7749.0
14	17	38	6	510	44.0	-212656.0	-5756.0	-7364.0
14	17	38	6	511	45.0	-213166.0	-5781.0	-7498.0
14	17	38	6	511	46.0	-212915.0	-5811.0	-7832.0
14	17	38	6	512	47.0	-211705.0	-5832.0	-8052.0
14	17	38	6	513	48.0	-209968.0	-5876.0	-7924.0
14	17	38	6	513	49.0	-208089.0	-5922.0	-7966.0
14	17	38	6	514	50.0	-205991.0	-5956.0	-8072.0
14	17	38	6	514	51.0	-203209.0	-5978.0	-8089.0
14	17	38	6	555	52.0	-199788.0	-6012.0	-8750.0
14	17	38	6	556	53.0	-196257.0	-6059.0	-9209.0
14	17	38	6	557	54.0	-192640.0	-6091.0	-9556.0
14	17	38	6	557	55.0	-189255.0	-6131.0	-9467.0
14	17	38	6	558	56.0	-186351.0	-6150.0	-9177.0
14	17	38	6	558	57.0	-183760.0	-6186.0	-8962.0
14	17	38	6	559	58.0	-181826.0	-6229.0	-9521.0
14	17	38	6	559	60.0	-179942.0	-6277.0	-10144.0
14	17	38	6	560	61.0	-179878.0	-6307.0	-9414.0
14	17	38	6	561	62.0	-180479.0	-6351.0	-9387.0
14	17	38	6	561	63.0	-180930.0	-6387.0	-9829.0
14	17	38	6	562	64.0	-181459.0	-6402.0	-9374.0
14	17	38	6	562	65.0	-182886.0	-6437.0	-6147.0
14	17	38	6	563	66.0	-184841.0	-6470.0	-2689.0
14	17	38	6	564	67.0	-187060.0	-6517.0	-3952.0
14	17	38	6	564	82.0	-208067.0	-6949.0	-9070.0
14	17	38	6	565	83.0	-208049.0	-6967.0	-9692.0
14	17	38	6	565	84.0	-207849.0	-6986.0	-10172.0
14	17	38	6	566	85.0	-207677.0	-7020.0	-9816.0
14	17	38	6	566	86.0	-207216.0	-7021.0	-9473.0
14	17	38	6	567	87.0	-205877.0	-7022.0	-9676.0
14	17	38	6	567	88.0	-204448.0	-7037.0	-9872.0
14	17	38	6	600	89.0	-202819.0	-7032.0	-9381.0
14	17	38	6	601	90.0	-201184.0	-7044.0	-9327.0
14	17	38	6	601	91.0	-199502.0	-7029.0	-9987.0
14	17	38	6	602	92.0	-197556.0	-7015.0	-9159.0
14	17	38	6	603	93.0	-195477.0	-6993.0	-9197.0
14	17	38	6	603	94.0	-193787.0	-6964.0	-10255.0
14	17	38	6	604	95.0	-192111.0	-6932.0	-9817.0
14	17	38	6	604	96.0	-190201.0	-6914.0	-9094.0
14	17	38	6	605	97.0	-188354.0	-6877.0	-8977.0
14	17	38	6	606	98.0	-186588.0	-6826.0	-9102.0
14	17	38	6	606	99.0	-184492.0	-6771.0	-8947.0
14	17	38	6	607	100.0	-182661.0	-6727.0	-9395.0
14	17	38	6	607	101.0	-181172.0	-6664.0	-9549.0
14	17	38	6	608	102.0	-180062.0	-6604.0	-9604.0
14	17	38	6	608	103.0	-179294.0	-6543.0	-9549.0
14	17	38	6	609	105.0	-178038.0	-6389.0	-6686.0
14	17	38	6	610	106.0	-177544.0	-6294.0	-5750.0
14	17	38	6	610	107.0	-177549.0	-6199.0	-6349.0
14	17	38	6	611	108.0	-177212.0	-6132.0	-7466.0
14	17	38	6	612	109.0	-177213.0	-6024.0	-8334.0
14	17	38	6	612	110.0	-177959.0	-5933.0	-9224.0
14	17	38	6	645	111.0	-178710.0	-5843.0	-10022.0
14	17	38	6	645	112.0	-179284.0	-5729.0	-10366.0
14	17	38	6	646	113.0	-180304.0	-5622.0	-10804.0
14	17	38	6	647	114.0	-181201.0	-5516.0	-10134.0
14	17	38	6	647	115.0	-181935.0	-5396.0	-10346.0
14	17	38	6	648	116.0	-182693.0	-5283.0	-10194.0
14	17	38	6	648	117.0	-183489.0	-5186.0	-10528.0
14	17	38	6	649	118.0	-184746.0	-5062.0	-10296.0
14	17	38	6	649	119.0	-186481.0	-4936.0	-10922.0
14	17	38	6	650	120.0	-188332.0	-4811.0	-11258.0
14	17	38	6	651	121.0	-190197.0	-4703.0	-11224.0
14	17	38	6	651	122.0	-191773.0	-4577.0	-11375.0
14	17	38	6	652	123.0	-193232.0	-4459.0	-10972.0
14	17	38	6	652	124.0	-194509.0	-4345.0	-10473.0
14	17	38	6	653	125.0	-195904.0	-4237.0	-10379.0
14	17	38	6	653	127.0	-198271.0	-3968.0	-10127.0
14	17	38	6	654	128.0	-199097.0	-3859.0	-9379.0
14	17	38	6	655	129.0	-199678.0	-3760.0	-8776.0
14	17	38	6	655	130.0	-199710.0	-3641.0	-9015.0
14	17	38	6	656	131.0	-199502.0	-3521.0	-8909.0
14	17	38	6	656	132.0	-199076.0	-3409.0	-9061.0
14	17	38	6	657	133.0	-198324.0	-3302.0	-9322.0
14	17	38	6	691	134.0	-197349.0	-3182.0	-6424.0
14	17	38	6	691	135.0	-195736.0	-3074.0	-1878.0
14	17	38	6	692	136.0	-193052.0	-2989.0	-2352.0
14	17	38	6	692	137.0	-189659.0	-2915.0	-5508.0
14	17	38	6	715	138.0	-187483.0	-2802.0	-7173.0
14	17	38	6	715	139.0	-188012.0	-2704.0	-7594.0
14	17	38	6	716	140.0	-189974.0	-2617.0	-8209.0
14	17	38	6	717	141.0	-195466.0	-2525.0	-8129.0
14	17	38	6	717	142.0	-200879.0	-2430.0	-8164.0
14	17	38	6	718	143.0	-204747.0	-2341.0	-8063.0
14	17	38	6	718	144.0	-206969.0	-2254.0	-7995.0
14	17	38	6	719	145.0	-206464.0	-2179.0	-7451.0
14	17	38	6	719	146.0	-204889.0	-2116.0	-7172.0
14	17	38	6	720	147.0	-202740.0	-2045.0	-7679.0
14	17	38	6	720	148.0	-199592.0	-1974.0	-7730.0
14	17	38	6	721	150.0	-191897.0	-1856.0	-7702.0
14	17	38	6	721	151.0	-188517.0	-1792.0	-7320.0
14	17	38	6	722	152.0	-185759.0	-1732.0	-7505.0
14	17	38	6	723	153.0	-183139.0	-1673.0	-7362.0
14	17	38	6	723	154.0	-181139.0	-1614.0	-7111.0
14	17	38	6	724	155.0	-180025.0	-1572.0	-7020.0
14	17	38	6	741	156.0	-179054.0	-1527.0	-6868.0
14	17	38	6	741	157.0	-178399.0	-1499.0	-6350.0
14	17	38	6	742	158.0	-178461.0	-1461.0	-5964.0
14	17	38	6	743	159.0	-178896.0	-1410.0	-6864.0
14	17	38	6	743	160.0	-179825.0	-1389.0	-6851.0
14	17	38	6	744	161.0	-181572.0	-1364.0	-6984.0
14	17	38	6	744	162.0	-183648.0	-1322.0	-7146.0
14	17	38	6	745	163.0	-185955.0	-1295.0	-7099.0
14	17	38	6	745	164.0	-188621.0	-1286.0	-6413.0
14	17	38	6	746	165.0	-190997.0	-1244.0	-6451.0
14	17	38	6	747	166.0	-192971.0	-1227.0	-6066.0
14	17	38	6	747	167.0	-194518.0	-1206.0	-6279.0
14	17	38	6	748	168.0	-195672.0	-1191.0	-6495.0
14	17	38	6	748	169.0	-196004.0	-1157.0	-5837.0
14	17	38	6	749	170.0	-196222.0	-1139.0	-5951.0
14	17	38	6	749	172.0	-196536.0	-1141.0	-5314.0
14	17	38	6	750	173.0	-196701.0	-1119.0	-4717.0
14	17	38	6	750	174.0	-196526.0	-1126.0	-5029.0
14	17	38	6	751	175.0	-195534.0	-1139.0	-5196.0
14	17	38	6	752	176.0	-194147.0	-1127.0	-4568.0
14	17	38	6	752	177.0	-193039.0	-1139.0	-4594.0
14	17	38	6	780	178.0	-192466.0	-1146.0	-4576.0
14	17	38	6	781	179.0	-192535.0	-1127.0	-4728.0
14	17	38	6	782	180.0	-193291.0	-1133.0	-4795.0
14	17	38	6	782	181.0	-194074.0	-1144.0	-4821.0
14	17	38	6	783	182.0	-194579.0	-1152.0	-5289.0
14	17	38	6	783	183.0	-195034.0	-1169.0	-5082.0
14	17	38	6	784	184.0	-195500.0	-1181.0	-5349.0
14	17	38	6	785	185.0	-195752.0	-1201.0	-5464.0
14	17	38	6	785	186.0	-195956.0	-1201.0	-5661.0
14	17	38	6	786	187.0	-196117.0	-1216.0	-6082.0
14	17	38	6	786	188.0	-196097.0	-1240.0	-5604.0
14	17	38	6	787	189.0	-195856.0	-1258.0	-5023.0
14	17	38	6	788	190.0	-195352.0	-1278.0	-5232.0
14	17	38	6	788	191.0	-194946.0	-1298.0	-5097.0
14	17	38	6	789	192.0	-194187.0	-1331.0	-5323.0
14	17	38	6	789	194.0	-192132.0	-1385.0	-5456.0
14	17	38	6	790	195.0	-191752.0	-1421.0	-5386.0
14	17	38	6	791	196.0	-191376.0	-1460.0	-4821.0
14	17	38	6	791	197.0	-191256.0	-1476.0	-5206.0
14	17	38	6	792	198.0	-191419.0	-1501.0	-6102.0
14	17	38	6	793	199.0	-191317.0	-1544.0	-6039.0
14	17	38	6	793	200.0	-191206.0	-1584.0	-5841.0
14	17	38	6	825	201.0	-191549.0	-1596.0	-5411.0
14	17	38	6	825	202.0	-192316.0	-1641.0	-5447.0
14	17	38	6	826	203.0	-192950.0	-1674.0	-5721.0
14	17	38	6	826	204.0	-193658.0	-1717.0	-5877.0
14	17	38	6	827	205.0	-194382.0	-1754.0	-5381.0
14	17	38	6	828	206.0	-194942.0	-1792.0	-5281.0
14	17	38	6	828	207.0	-195432.0	-1832.0	-5523.0
14	17	38	6	870	208.0	-196074.0	-1881.0	-5138.0
14	17	38	6	871	209.0	-196887.0	-1925.0	-5037.0
14	17	38	6	879	210.0	-197634.0	-1960.0	-4202.0
14	17	38	6	880	211.0	-198066.0	-2006.0	-2986.0
14	17	38	6	880	212.0	-198339.0	-2044.0	-2087.0
14	17	38	6	881	213.0	-198892.0	-2086.0	-1773.0
14	17	38	6	882	214.0	-199772.0	-2107.0	-1366.0
14	17	38	6	882	215.0	-200056.0	-2154.0	-746.0
14	17	38	6	883	217.0	-199512.0	-2257.0	-1650.0
14	17	38	6	883	218.0	-199580.0	-2298.0	-1287.0
14	17	38	6	884	219.0	-199214.0	-2324.0	-919.0
14	17	38	6	884	220.0	-198464.0	-2349.0	-145.0
14	17	38	6	885	221.0	-198004.0	-2386.0	-43.0
14	17	38	6	886	222.0	-197731.0	-2435.0	-125.0
14	17	38	6	886	223.0	-197236.0	-2476.0	-103.0
14	17	38	6	887	224.0	-196366.0	-2512.0	-451.0
14	17	38	6	887	240.0	-186383.0	-2961.0	2144.0
14	17	38	6	888	241.0	-186655.0	-2979.0	2027.0
14	17	38	6	888	242.0	-186795.0	-2983.0	2058.0
14	17	38	6	889	243.0	-187147.0	-3008.0	2473.0
14	17	38	6	889	244.0	-187735.0	-3034.0	2721.0
14	17	38	6	890	245.0	-188576.0	-3039.0	3090.0
14	17	38	6	915	246.0	-189704.0	-3042.0	3268.0
14	17	38	6	916	247.0	-191201.0	-3058.0	2944.0
14	17	38	6	916	248.0	-192769.0	-3084.0	2776.0
14	17	38	6	917	249.0	-194536.0	-3092.0	1204.0
14	17	38	6	918	250.0	-196609.0	-3082.0	-106.0
14	17	38	6	918	251.0	-198052.0	-3084.0	-1385.0
14	17	38	6	919	252.0	-199149.0	-3118.0	-2697.0
14	17	38	6	920	253.0	-200156.0	-3139.0	-2351.0
14	17	38	6	920	254.0	-200754.0	-3131.0	-974.0
14	17	38	6	921	255.0	-201054.0	-3146.0	-1162.0
14	17	38	6	922	0.0	-201079.0	-3152.0	-1816.0
14	17	38	6	923	1.0	-200909.0	-3160.0	-1939.0
14	17	38	6	924	2.0	-200431.0	-3174.0	-2072.0
14	17	38	6	925	3.0	-199977.0	-3166.0	-3033.0
14	17	38	6	926	4.0	-199751.0	-3170.0	-2466.0
14	17	38	6	926	6.0	-199016.0	-3194.0	-2664.0
14	17	38	6	927	7.0	-198804.0	-3192.0	-3417.0
14	17	38	6	928	8.0	-198234.0	-3196.0	-3577.0
14	17	38	6	928	9.0	-197829.0	-3192.0	-4023.0
14	17	38	6	929	10.0	-197710.0	-3191.0	-3246.0
14	17	38	6	929	11.0	-197734.0	-3215.0	-3494.0
14	17	38	6	959	12.0	-197819.0	-3224.0	-4606.0
14	17	38	6	960	13.0	-197964.0	-3223.0	-4887.0
14	17	38	6	961	14.0	-197766.0	-3250.0	-3615.0
14	17	38	6	962	15.0	-197226.0	-3251.0	-3119.0
14	17	38	6	962	16.0	-197075.0	-3284.0	-3566.0
14	17	38	6	963	17.0	-197064.0	-3283.0	-4284.0
14	17	38	6	964	18.0	-196636.0	-3280.0	-5728.0
14	17	38	6	964	19.0	-195852.0	-3296.0	-7101.0
14	17	38	6	965	20.0	-194847.0	-3309.0	-6326.0
14	17	38	6	965	21.0	-193414.0	-3314.0	-3997.0
14	17	38	6	966	22.0	-191989.0	-3331.0	-3729.0
14	17	38	6	967	23.0	-190392.0	-3344.0	-4322.0
14	17	38	6	967	24.0	-188387.0	-3364.0	-5019.0
14	17	38	6	968	25.0	-186321.0	-3376.0	-6194.0
14	17	38	6	969	26.0	-184569.0	-3389.0	-6648.0
14	17	38	6	969	28.0	-182191.0	-3402.0	-8804.0
14	17	38	6	970	29.0	-182096.0	-3411.0	4859.0
14	17	38	6	970	30.0	-181544.0	-3431.0	42013.0
14	17	38	7	5	31.0	-180841.0	-3468.0	59452.0
14	17	38	7	5	32.0	-180866.0	-3494.0	60928.0
14	17	38	7	6	33.0	-181206.0	-3516.0	32368.0
14	17	38	7	7	34.0	-181794.0	-3513.0	6342.0
14	17	38	7	7	35.0	-182535.0	-3536.0	-2405.0
14	17	38	7	8	36.0	-183092.0	-3568.0	-5785.0
14	17	38	7	8	37.0	-183664.0	-3579.0	-7522.0
14	17	38	7	9	38.0	-184423.0	-3602.0	-8555.0
14	17	38	7	10	39.0	-185224.0	-3623.0	-8226.0
14	17	38	7	10	40.0	-186126.0	-3650.0	-8362.0
14	17	38	7	11	41.0	-187217.0	-3681.0	-9361.0
14	17	38	7	12	42.0	-188437.0	-3707.0	-9651.0
14	17	38	7	12	43.0	-189687.0	-3710.0	-9506.0
14	17	38	7	13	44.0	-190308.0	-3723.0	-9808.0
14	17	38	7	14	45.0	-190563.0	-3746.0	-9989.0
14	17	38	7	14	46.0	-190757.0	-3781.0	-10015.0
14	17	38	7	15	51.0	-191569.0	-3921.0	-17341.0
14	17	38	7	16	52.0	-192131.0	-3952.0	-19583.0
14	17	38	7	16	53.0	-192511.0	-3961.0	-20266.0
14	17	38	7	17	54.0	-193105.0	-3996.0	-21432.0
14	17	38	7	17	55.0	-194044.0	-4022.0	-24991.0
14	17	38	7	18	56.0	-195174.0	-4029.0	-28160.0
14	17	38	7	50	57.0	-196750.0	-4060.0	-27469.0
14	17	38	7	51	58.0	-198402.0	-4100.0	-24568.0
14	17	38	7	51	59.0	-199587.0	-4152.0	-22736.0
14	17	38	7	52	60.0	-200476.0	-4174.0	-21754.0
14	17	38	7	53	61.0	-201447.0	-4205.0	-18669.0
14	17	38	7	53	62.0	-202270.0	-4234.0	-15152.0
14	17	38	7	54	63.0	-202872.0	-4269.0	-12633.0
14	17	38	7	55	64.0	-203606.0	-4308.0	-12549.0
14	17	38	7	55	65.0	-204109.0	-4336.0	-11618.0
14	17	38	7	56	66.0	-204059.0	-4361.0	-11079.0
14	17	38	7	57	67.0	-203801.0	-4393.0	-8259.0
14	17	38	7	57	68.0	-203701.0	-4424.0	-7137.0
14	17	38	7	58	69.0	-202961.0	-4479.0	-7446.0
14	17	38	7	59	70.0	-201503.0	-4505.0	-8374.0
14	17	38	7	60	71.0	-200721.0	-4538.0	-8829.0
14	17	38	7	60	73.0	-199737.0	-4611.0	-9650.0
14	17	38	7	61	74.0	-198389.0	-4647.0	-9740.0
14	17	38	7	62	75.0	-196367.0	-4677.0	-10694.0
14	17	38	7	62	76.0	-194206.0	-4701.0	-10276.0
14	17	38	7	63	77.0	-193121.0	-4727.0	-9372.0
14	17	38	7	64	78.0	-193359.0	-4752.0	-8259.0
14	17	38	7	95	79.0	-194104.0	-4804.0	-7465.0
14	17	38	7	112	80.0	-194803.0	-4856.0	-7624.0
14	17	38	7	113	81.0	-195891.0	-4887.0	-8740.0
14	17	38	7	113	82.0	-197444.0	-4930.0	-9199.0
14	17	38	7	114	83.0	-197994.0	-4944.0	-10562.0
14	17	38	7	115	84.0	-196257.0	-4988.0	-12126.0
14	17	38	7	115	85.0	-192646.0	-5016.0	-12562.0
14	17	38	7	116	86.0	-188123.0	-5066.0	-13525.0
14	17	38	7	116	87.0	-183119.0	-5097.0	-14227.0
14	17	38	7	117	88.0	-178143.0	-5120.0	-14103.0
14	17	38	7	117	89.0	-173670.0	-5151.0	-13734.0
14	17	38	7	118	90.0	-169502.0	-5197.0	-14753.0
14	17	38	7	119	91.0	-166259.0	-5223.0	-15550.0
14	17	38	7	119	92.0	-164037.0	-5258.0	-15357.0
14	17	38	7	120	93.0	-162877.0	-5294.0	-14701.0
14	17	38	7	120	96.0	-166995.0	-5412.0	-15374.0
14	17	38	7	121	97.0	-171131.0	-5447.0	-15589.0
14	17	38	7	121	98.0	-175682.0	-5465.0	-16108.0
14	17	38	7	122	99.0	-179258.0	-5507.0	-15970.0
14	17	38	7	123	100.0	-181062.0	-5542.0	-14699.0
14	17	38	7	123	101.0	-181409.0	-5584.0	-14816.0
14	17	38	7	139	102.0	-181432.0	-5604.0	-15627.0
14	17	38	7	140	103.0	-181357.0	-5649.0	-15660.0
14	17	38	7	141	104.0	-181322.0	-5685.0	-15570.0
14	17	38	7	141	105.0	-182069.0	-5712.0	-15391.0
14	17	38	7	142	106.0	-183359.0	-5757.0	-16434.0
14	17	38	7	142	107.0	-185407.0	-5796.0	-16659.0
14	17	38	7	143	108.0	-187760.0	-5824.0	-16806.0
14	17	38	7	184	109.0	-190179.0	-5861.0	-17277.0
14	17	38	7	185	110.0	-192390.0	-5894.0	-17685.0
14	17	38	7	186	111.0	-194710.0	-5898.0	-17981.0
14	17	38	7	186	112.0	-197262.0	-5919.0	-17991.0
14	17	38	7	187	113.0	-199904.0	-5969.0	-18389.0
14	17	38	7	188	114.0	-202696.0	-6009.0	-18164.0
14	17	38	7	188	115.0	-205491.0	-6040.0	-17713.0
14	17	38	7	189	116.0	-208328.0	-6060.0	-18077.0
14	17	38	7	190	118.0	-213121.0	-6138.0	-17904.0
14	17	38	7	190	119.0	-214176.0	-6174.0	-17824.0
14	17	38	7	191	120.0	-214221.0	-6217.0	-18046.0
14	17	38	7	191	121.0	-213474.0	-6259.0	-17692.0
14	17	38	7	192	122.0	-211701.0	-6275.0	-18007.0
14	17	38	7	193	123.0	-209232.0	-6307.0	-18651.0
14	17	38	7	193	124.0	-206404.0	-6348.0	-18959.0
14	17	38	7	194	125.0	-203419.0	-6386.0	-18377.0
14	17	38	7	195	141.0	-194260.0	-6917.0	-19118.0
14	17	38	7	195	142.0	-194152.0	-6928.0	-19082.0
14	17	38	7	196	143.0	-194149.0	-6972.0	-19929.0
14	17	38	7	196	144.0	-194041.0	-7002.0	-19902.0
14	17	38	7	197	145.0	-194058.0	-7031.0	-19922.0
14	17	38	7	198	146.0	-194315.0	-7046.0	-20001.0
14	17	38	7	229	147.0	-194282.0	-7081.0	-19356.0
14	17	38	7	230	148.0	-194520.0	-7106.0	-19513.0
14	17	38	7	231	149.0	-195121.0	-7145.0	-20262.0
14	17	38	7	231	150.0	-195749.0	-7176.0	-20056.0
14	17	38	7	232	151.0	-196188.0	-7207.0	-18690.0
14	17	38	7	232	152.0	-196427.0	-7206.0	-18841.0
14	17	38	7	233	153.0	-197003.0	-7221.0	-19785.0
14	17	38	7	275	154.0	-197694.0	-7250.0	-20059.0
14	17	38	7	276	155.0	-197761.0	-7267.0	-19867.0
14	17	38	7	276	156.0	-197744.0	-7291.0	-19939.0
14	17	38	7	277	157.0	-197203.0	-7306.0	-20114.0
14	17	38	7	278	158.0	-196201.0	-7301.0	-19922.0
14	17	38	7	278	159.0	-195091.0	-7301.0	-19188.0
14	17	38	7	280	160.0	-193907.0	-7307.0	-19805.0
14	17	38	7	281	161.0	-192478.0	-7297.0	-20387.0
14	17	38	7	282	163.0	-189527.0	-7262.0	-20305.0
14	17	38	7	283	164.0	-187887.0	-7254.0	-20052.0
14	17	38	7	283	165.0	-186392.0	-7221.0	-19426.0
14	17	38	7	284	166.0	-185271.0	-7198.0	-19790.0
14	17	38	7	285	167.0	-184273.0	-7173.0	-20691.0
14	17	38	7	285	168.0	-183623.0	-7143.0	-20607.0
14	17	38	7	286	169.0	-183259.0	-7091.0	-20017.0
14	17	38	7	287	170.0	-183101.0	-7033.0	-19666.0
14	17	38	7	287	186.0	-197292.0	-5634.0	-21687.0
14	17	38	7	288	187.0	-197889.0	-5524.0	-21799.0
14	17	38	7	288	188.0	-198108.0	-5401.0	-21657.0
14	17	38	7	289	189.0	-198506.0	-5267.0	-21644.0
14	17	38	7	289	190.0	-199441.0	-5150.0	-21712.0
14	17	38	7	290	191.0	-199836.0	-5036.0	-21816.0
14	17	38	7	320	192.0	-199879.0	-4921.0	-21865.0
14	17	38	7	321	193.0	-199822.0	-4791.0	-22477.0
14	17	38	7	322	194.0	-199433.0	-4674.0	-22451.0
14	17	38	7	323	195.0	-199336.0	-4554.0	-22928.0
14	17	38	7	324	196.0	-199286.0	-4429.0	-22426.0
14	17	38	7	324	197.0	-198906.0	-4309.0	-22976.0
14	17	38	7	325	198.0	-198242.0	-4179.0	-22810.0
14	17	38	7	326	199.0	-197382.0	-4062.0	-19941.0
14	17	38	7	327	200.0	-196684.0	-3946.0	-17681.0
14	17	38	7	327	201.0	-195962.0	-3818.0	-19800.0
14	17	38	7	328	202.0	-195011.0	-3705.0	-20816.0
14	17	38	7	329	203.0	-194097.0	-3619.0	-22520.0
14	17	38	7	330	204.0	-192910.0	-3482.0	-23236.0
14	17	38	7	331	205.0	-191773.0	-3376.0	-22959.0
14	17	38	7	332	206.0	-190801.0	-3265.0	-22677.0
14	17	38	7	332	208.0	-187439.0	-3038.0	-23348.0
14	17	38	7	333	209.0	-184751.0	-2941.0	-23129.0
14	17	38	7	334	210.0	-182174.0	-2821.0	-23425.0
14	17	38	7	334	211.0	-179767.0	-2752.0	-23485.0
14	17	38	7	335	212.0	-179539.0	-2651.0	-22553.0
14	17	38	7	336	213.0	-180794.0	-2557.0	-22711.0
14	17	38	7	364	214.0	-185569.0	-2474.0	-23059.0
14	17	38	7	365	215.0	-191489.0	-2374.0	-22962.0
14	17	38	7	366	216.0	-194809.0	-2289.0	-23176.0
14	17	38	7	367	217.0	-196814.0	-2222.0	-23265.0
14	17	38	7	368	218.0	-196587.0	-2141.0	-23762.0
14	17	38	7	368	219.0	-194729.0	-2050.0	-24439.0
14	17	38	7	369	220.0	-191981.0	-1968.0	-23959.0
14	17	38	7	370	221.0	-188190.0	-1908.0	-23927.0
14	17	38	7	371	222.0	-184691.0	-1832.0	-24153.0
14	17	38	7	371	223.0	-182236.0	-1755.0	-24485.0
14	17	38	7	372	224.0	-180436.0	-1701.0	-24372.0
14	17	38	7	373	225.0	-179225.0	-1631.0	-23474.0
14	17	38	7	374	226.0	-178477.0	-1573.0	-23222.0
14	17	38	7	374	227.0	-178369.0	-1526.0	-22706.0
14	17	38	7	375	228.0	-178669.0	-1472.0	-22394.0
14	17	38	7	376	230.0	-180645.0	-1385.0	-22893.0
14	17	38	7	376	231.0	-183092.0	-1337.0	-22674.0
14	17	38	7	377	232.0	-185541.0	-1291.0	-23336.0
14	17	38	7	378	233.0	-188647.0	-1252.0	-23409.0
14	17	38	7	378	234.0	-191840.0	-1206.0	-22857.0
14	17	38	7	379	235.0	-194658.0	-1174.0	-22876.0
14	17	38	7	379	236.0	-197234.0	-1149.0	-23244.0
14	17	38	7	410	237.0	-199768.0	-1121.0	-23826.0
14	17	38	7	411	238.0	-201780.0	-1084.0	-23274.0
14	17	38	7	411	239.0	-203617.0	-1066.0	-22904.0
14	17	38	7	454	240.0	-205340.0	-1042.0	-23144.0
14	17	38	7	455	241.0	-206459.0	-1011.0	-22736.0
14	17	38	7	498	242.0	-206401.0	-985.0	-22219.0
14	17	38	7	499	243.0	-205359.0	-961.0	-22112.0
14	17	38	7	500	244.0	-203926.0	-965.0	-22103.0
14	17	38	7	500	245.0	-202588.0	-941.0	-21791.0
14	17	38	7	501	246.0	-201470.0	-931.0	-21381.0
14	17	38	7	502	247.0	-200597.0	-906.0	-22141.0
14	17	38	7	503	248.0	-199332.0	-908.0	-21357.0
14	17	38	7	503	249.0	-198107.0	-912.0	-20475.0
14	17	38	7	504	250.0	-197483.0	-896.0	-20416.0
14	17	38	7	505	251.0	-197445.0	-877.0	-20340.0
14	17	38	7	505	253.0	-196826.0	-898.0	-20622.0
14	17	38	7	506	254.0	-196309.0	-886.0	-21377.0
14	17	38	7	507	255.0	-195411.0	-882.0	-20909.0
14	17	38	7	507	19.0	-184827.0	-1261.0	-20291.0
14	17	38	7	508	20.0	-185666.0	-1291.0	-20198.0
14	17	38	7	509	41.0	-200297.0	-2029.0	-24152.0
14	17	38	7	509	42.0	-200325.0	-2066.0	-24833.0
14	17	38	7	510	43.0	-200452.0	-2074.0	-24298.0
14	17	38	7	511	44.0	-200610.0	-2118.0	-23801.0
14	17	38	7	511	45.0	-200885.0	-2149.0	-24485.0
14	17	38	7	512	46.0	-200972.0	-2170.0	-24717.0
14	17	38	7	513	47.0	-200998.0	-2203.0	-24606.0
14	17	38	7	543	48.0	-200856.0	-2243.0	-25143.0
14	17	38	7	544	49.0	-200883.0	-2251.0	-25006.0
14	17	38	7	545	50.0	-201033.0	-2259.0	-25178.0
14	17	38	7	546	51.0	-200870.0	-2289.0	-25561.0
14	17	38	7	546	52.0	-200121.0	-2296.0	-26578.0
14	17	38	7	547	53.0	-198932.0	-2319.0	-26556.0
14	17	38	7	547	54.0	-197313.0	-2348.0	-26285.0
14	17	38	7	590	55.0	-195598.0	-2368.0	-26150.0
14	17	38	7	591	56.0	-194139.0	-2379.0	-24104.0
14	17	38	7	592	57.0	-192656.0	-2391.0	-22112.0
14	17	38	7	636	58.0	-190959.0	-2413.0	-22789.0
14	17	38	7	637	59.0	-189441.0	-2434.0	-23530.0
14	17	38	7	638	60.0	-188147.0	-2456.0	-23397.0
14	17	38	7	638	61.0	-187491.0	-2462.0	-23965.0
14	17	38	7	639	62.0	-187283.0	-2477.0	-24097.0
14	17	38	7	640	64.0	-186183.0	-2511.0	-23696.0
14	17	38	7	641	65.0	-186029.0	-2504.0	-23378.0
14	17	38	7	641	66.0	-186097.0	-2527.0	-23290.0
14	17	38	7	642	67.0	-186149.0	-2541.0	-23371.0
14	17	38	7	643	68.0	-186482.0	-2548.0	-23409.0
14	17	38	7	643	69.0	-186857.0	-2544.0	-23497.0
14	17	38	7	644	70.0	-186942.0	-2569.0	-22981.0
14	17	38	7	645	71.0	-187536.0	-2580.0	-23872.0
14	17	38	7	645	87.0	-195079.0	-2677.0	-22593.0
14	17	38	7	646	88.0	-196304.0	-2693.0	-22880.0
14	17	38	7	647	89.0	-198046.0	-2687.0	-22297.0
14	17	38	7	647	109.0	-203004.0	-2990.0	-21272.0
14	17	38	7	648	110.0	-203250.0	-2999.0	-21266.0
14	17	38	7	649	111.0	-203085.0	-3021.0	-20804.0
14	17	38	7	649	112.0	-202185.0	-3032.0	-21900.0
14	17	38	7	650	113.0	-200823.0	-3057.0	-22002.0
14	17	38	7	651	114.0	-199014.0	-3074.0	-21494.0
14	17	38	7	680	115.0	-197456.0	-3106.0	-20725.0
14	17	38	7	681	116.0	-196488.0	-3137.0	-19729.0
14	17	38	7	681	117.0	-195442.0	-3156.0	-19164.0
14	17	38	7	682	118.0	-194437.0	-3185.0	-20219.0
14	17	38	7	683	119.0	-193992.0	-3197.0	-21447.0
14	17	38	7	683	120.0	-193585.0	-3231.0	-23059.0
14	17	38	7	684	121.0	-193277.0	-3252.0	-25142.0
14	17	38	7	684	122.0	-192657.0	-3299.0	-27470.0
14	17	38	7	685	123.0	-191884.0	-3322.0	-28929.0
14	17	38	7	686	124.0	-191385.0	-3357.0	-27389.0
14	17	38	7	686	125.0	-191171.0	-3385.0	-26407.0
14	17	38	7	687	126.0	-191419.0	-3389.0	-29524.0
14	17	38	7	725	127.0	-191459.0	-3426.0	-33577.0
14	17	38	7	726	128.0	-191340.0	-3461.0	-37713.0
14	17	38	7	726	129.0	-191851.0	-3502.0	-38898.0
14	17	38	7	727	131.0	-191196.0	-3566.0	-31821.0
14	17	38	7	727	132.0	-191439.0	-3597.0	-27182.0
14	17	38	7	728	133.0	-192117.0	-3619.0	-24072.0
14	17	38	7	770	134.0	-193057.0	-3663.0	-22676.0
14	17	38	7	770	135.0	-193295.0	-3697.0	-21526.0
14	17	38	7	771	136.0	-193896.0	-3724.0	-21406.0
14	17	38	7	771	137.0	-194425.0	-3766.0	-19805.0
14	17	38	7	772	138.0	-195222.0	-3801.0	-17062.0
14	17	38	7	773	139.0	-195889.0	-3827.0	-15742.0
14	17	38	7	774	140.0	-196034.0	-3864.0	-15156.0
14	17	38	7	775	141.0	-195265.0	-3910.0	-15442.0
14	17	38	7	775	142.0	-195756.0	-3949.0	-16814.0
14	17	38	7	776	143.0	-196659.0	-3976.0	-17148.0
14	17	38	7	776	154.0	-205268.0	-4386.0	-20172.0
14	17	38	7	777	155.0	-205350.0	-4424.0	-20562.0
14	17	38	7	778	156.0	-203654.0	-4442.0	-20579.0
14	17	38	7	778	157.0	-200040.0	-4495.0	-21167.0
14	17	38	7	779	158.0	-195167.0	-4542.0	-21299.0
14	17	38	7	779	159.0	-189676.0	-4574.0	-21504.0
14	17	38	7	780	176.0	-179676.0	-5192.0	-23762.0
14	17	38	7	780	177.0	-181729.0	-5222.0	-23876.0
14	17	38	7	781	178.0	-183771.0	-5240.0	-24536.0
14	17	38	7	782	179.0	-186340.0	-5282.0	-24812.0
14	17	38	7	782	180.0	-188916.0	-5314.0	-24178.0
14	17	38	7	783	181.0	-191136.0	-5354.0	-24032.0
14	17	38	7	783	182.0	-192831.0	-5397.0	-24805.0
14	17	38	7	815	183.0	-194389.0	-5422.0	-24588.0
14	17	38	7	816	184.0	-196084.0	-5448.0	-24788.0
14	17	38	7	817	185.0	-197937.0	-5484.0	-25127.0
14	17	38	7	840	186.0	-200481.0	-5526.0	-25174.0
14	17	38	7	840	187.0	-202614.0	-5566.0	-25525.0
14	17	38	7	841	188.0	-204227.0	-5599.0	-25119.0
14	17	38	7	841	189.0	-205147.0	-5627.0	-25149.0
14	17	38	7	842	190.0	-205509.0	-5668.0	-24863.0
14	17	38	7	842	191.0	-206183.0	-5697.0	-25589.0
14	17	38	7	843	192.0	-206171.0	-5745.0	-25391.0
14	17	38	7	844	193.0	-205249.0	-5774.0	-25861.0
14	17	38	7	844	194.0	-203614.0	-5804.0	-26387.0
14	17	38	7	845	195.0	-202054.0	-5847.0	-25892.0
14	17	38	7	845	196.0	-200754.0	-5874.0	-25814.0
14	17	38	7	846	197.0	-199097.0	-5907.0	-25810.0
14	17	38	7	846	198.0	-197913.0	-5944.0	-26294.0
14	17	38	7	847	199.0	-197007.0	-5972.0	-26593.0
14	17	38	7	847	200.0	-195939.0	-6001.0	-26497.0
14	17	38	7	848	201.0	-195422.0	-6044.0	-26331.0
14	17	38	7	848	202.0	-194890.0	-6076.0	-26171.0
14	17	38	7	849	203.0	-194731.0	-6118.0	-25934.0
14	17	38	7	849	204.0	-194977.0	-6157.0	-26091.0
14	17	38	7	864	205.0	-195617.0	-6191.0	-25875.0
14	17	38	7	864	206.0	-196362.0	-6219.0	-26147.0
14	17	38	7	865	207.0	-197381.0	-6255.0	-26753.0
14	17	38	7	865	208.0	-198005.0	-6300.0	-27254.0
14	17	38	7	866	209.0	-198681.0	-6327.0	-27204.0
14	17	38	7	905	210.0	-199102.0	-6351.0	-26112.0
14	17	38	7	906	211.0	-199162.0	-6386.0	-26782.0
14	17	38	7	906	212.0	-199729.0	-6425.0	-27364.0
14	17	38	7	907	213.0	-200193.0	-6474.0	-26232.0
14	17	38	7	908	214.0	-200611.0	-6491.0	-25770.0
14	17	38	7	908	215.0	-200876.0	-6516.0	-23267.0
14	17	38	7	909	216.0	-200744.0	-6551.0	-19746.0
14	17	38	7	909	217.0	-200650.0	-6582.0	-19119.0
14	17	38	7	910	218.0	-200370.0	-6613.0	-20834.0
14	17	38	7	911	219.0	-200212.0	-6642.0	-23766.0
14	17	38	7	911	221.0	-198604.0	-6703.0	-26192.0
14	17	38	7	912	222.0	-197517.0	-6722.0	-26216.0
14	17	38	7	912	223.0	-197176.0	-6749.0	-26901.0
14	17	38	7	913	224.0	-196828.0	-6769.0	-27316.0
14	17	38	7	913	225.0	-195506.0	-6801.0	-27212.0
14	17	38	7	914	243.0	-183398.0	-6561.0	-26689.0
14	17	38	7	915	244.0	-183243.0	-6496.0	-26709.0
14	17	38	7	915	245.0	-183739.0	-6430.0	-26228.0
14	17	38	7	916	246.0	-184638.0	-6356.0	-26966.0
14	17	38	7	916	247.0	-184970.0	-6269.0	-26812.0
14	17	38	7	917	248.0	-185491.0	-6206.0	-25967.0
14	17	38	7	917	249.0	-186317.0	-6141.0	-25981.0
14	17	38	7	949	250.0	-187384.0	-6040.0	-26134.0
14	17	38	7	950	251.0	-188449.0	-5946.0	-25964.0
14	17	38	7	950	252.0	-189699.0	-5848.0	-25589.0
14	17	38	7	951	253.0	-191027.0	-5758.0	-25737.0
14	17	38	7	951	254.0	-192342.0	-5682.0	-25533.0
14	17	38	7	952	255.0	-193675.0	-5565.0	-25363.0
14	17	38	7	952	0.0	-194436.0	-5450.0	-25846.0
14	17	38	8	5	1.0	-194706.0	-5347.0	-25812.0
14	17	38	8	6	2.0	-194600.0	-5237.0	-25959.0
14	17	38	8	7	3.0	-193919.0	-5126.0	-25846.0
14	17	38	8	7	4.0	-193270.0	-5007.0	-26046.0
14	17	38	8	8	5.0	-193051.0	-4909.0	-26082.0
14	17	38	8	8	6.0	-192921.0	-4780.0	-26272.0
14	17	38	8	9	7.0	-192712.0	-4666.0	-24680.0
14	17	38	8	9	8.0	-192424.0	-4552.0	-25034.0
14	17	38	8	10	10.0	-191463.0	-4298.0	-26440.0
14	17	38	8	10	11.0	-190956.0	-4178.0	-25417.0
14	17	38	8	11	12.0	-190516.0	-4062.0	-25482.0
14	17	38	8	12	13.0	-189826.0	-3957.0	-25773.0
14	17	38	8	12	14.0	-189432.0	-3835.0	-25319.0
14	17	38	8	13	15.0	-189594.0	-3732.0	-24327.0
14	17	38	8	13	16.0	-189483.0	-3609.0	-24974.0
14	17	38	8	14	17.0	-190005.0	-3492.0	-24977.0
14	17	38	8	14	33.0	-205585.0	-1957.0	-23260.0
14	17	38	8	15	34.0	-202494.0	-1878.0	-22582.0
14	17	38	8	15	35.0	-198125.0	-1797.0	-22644.0
14	17	38	8	16	36.0	-193624.0	-1733.0	-23004.0
14	17	38	8	17	37.0	-189606.0	-1668.0	-22783.0
14	17	38	8	17	38.0	-186049.0	-1606.0	-22914.0
14	17	38	8	40	39.0	-183528.0	-1556.0	-22463.0
14	17	38	8	40	40.0	-182133.0	-1489.0	-21932.0
14	17	38	8	41	41.0	-181217.0	-1422.0	-22061.0
14	17	38	8	42	42.0	-180142.0	-1372.0	-21917.0
14	17	38	8	42	43.0	-179286.0	-1329.0	-21375.0
14	17	38	8	43	44.0	-179028.0	-1287.0	-21058.0
14	17	38	8	44	45.0	-179436.0	-1257.0	-21232.0
14	17	38	8	44	46.0	-181129.0	-1197.0	-21459.0
14	17	38	8	85	47.0	-183192.0	-1167.0	-20763.0
14	17	38	8	85	48.0	-185524.0	-1138.0	-20790.0
14	17	38	8	86	49.0	-187832.0	-1095.0	-21097.0
14	17	38	8	86	50.0	-190121.0	-1062.0	-20456.0
14	17	38	8	87	51.0	-192439.0	-1037.0	-20332.0
14	17	38	8	88	52.0	-194802.0	-989.0	-21118.0
14	17	38	8	89	53.0	-197336.0	-966.0	-20935.0
14	17	38	8	90	55.0	-199759.0	-931.0	-19807.0
14	17	38	8	91	56.0	-199411.0	-918.0	-19831.0
14	17	38	8	91	57.0	-198212.0	-886.0	-20199.0
14	17	38	8	92	58.0	-195854.0	-874.0	-20086.0
14	17	38	8	92	59.0	-192940.0	-869.0	-19916.0
14	17	38	8	93	60.0	-190569.0	-855.0	-19626.0
14	17	38	8	94	61.0	-188934.0	-845.0	-20097.0
14	17	38	8	94	62.0	-188196.0	-842.0	-20924.0
14	17	38	8	95	63.0	-188262.0	-849.0	-21669.0
14	17	38	8	95	77.0	-192631.0	-939.0	-21419.0
14	17	38	8	96	78.0	-192469.0	-952.0	-21906.0
14	17	38	8	97	79.0	-192864.0	-974.0	-22285.0
14	17	38	8	97	80.0	-193091.0	-993.0	-21641.0
14	17	38	8	98	81.0	-193374.0	-1013.0	-22027.0
14	17	38	8	98	82.0	-193642.0	-1036.0	-21810.0
14	17	38	8	106	83.0	-193475.0	-1066.0	-21734.0
14	17	38	8	131	84.0	-192989.0	-1105.0	-21674.0
14	17	38	8	132	85.0	-192879.0	-1126.0	-21490.0
14	17	38	8	133	86.0	-192999.0	-1146.0	-21227.0
14	17	38	8	133	87.0	-192762.0	-1174.0	-21179.0
14	17	38	8	134	88.0	-192464.0	-1200.0	-21719.0
14	17	38	8	134	89.0	-192301.0	-1229.0	-21692.0
14	17	38	8	135	90.0	-192297.0	-1267.0	-21461.0
14	17	38	8	136	91.0	-192356.0	-1302.0	-20607.0
14	17	38	8	136	92.0	-192194.0	-1332.0	-20030.0
14	17	38	8	137	93.0	-192526.0	-1379.0	-20341.0
14	17	38	8	137	94.0	-192741.0	-1419.0	-20786.0
14	17	38	8	138	95.0	-192418.0	-1450.0	-20792.0
14	17	38	8	139	96.0	-192371.0	-1479.0	-20941.0
14	17	38	8	139	97.0	-192767.0	-1517.0	-21202.0
14	17	38	8	140	98.0	-193274.0	-1536.0	-21063.0
14	17	38	8	140	100.0	-193277.0	-1650.0	-21442.0
14	17	38	8	141	101.0	-193688.0	-1671.0	-20997.0
14	17	38	8	142	102.0	-194329.0	-1681.0	-20729.0
14	17	38	8	142	103.0	-194694.0	-1727.0	-21219.0
14	17	38	8	143	104.0	-195066.0	-1759.0	-21196.0
14	17	38	8	143	105.0	-195319.0	-1806.0	-20871.0
14	17	38	8	175	106.0	-195402.0	-1854.0	-20862.0
14	17	38	8	176	107.0	-195727.0	-1874.0	-20624.0
14	17	38	8	176	108.0	-196336.0	-1917.0	-20831.0
14	17	38	8	177	109.0	-196765.0	-1952.0	-21223.0
14	17	38	8	177	110.0	-197111.0	-1976.0	-21357.0
14	17	38	8	178	111.0	-197437.0	-2001.0	-21323.0
14	17	38	8	179	112.0	-197290.0	-2027.0	-21687.0
14	17	38	8	179	113.0	-196839.0	-2065.0	-22159.0
14	17	38	8	180	114.0	-196186.0	-2102.0	-22108.0
14	17	38	8	180	115.0	-195606.0	-2130.0	-21366.0
14	17	38	8	181	116.0	-194554.0	-2176.0	-20332.0
14	17	38	8	182	117.0	-193397.0	-2199.0	-20930.0
14	17	38	8	182	118.0	-192534.0	-2215.0	-20481.0
14	17	38	8	183	119.0	-192189.0	-2247.0	-19921.0
14	17	38	8	184	120.0	-191762.0	-2261.0	-19756.0
14	17	38	8	184	122.0	-191056.0	-2307.0	-19201.0
14	17	38	8	185	123.0	-191162.0	-2322.0	-19367.0
14	17	38	8	185	124.0	-191115.0	-2324.0	-19281.0
14	17	38	8	186	125.0	-190871.0	-2342.0	-18937.0
14	17	38	8	187	126.0	-190746.0	-2379.0	-18385.0
14	17	38	8	187	127.0	-190707.0	-2392.0	-18179.0
14	17	38	8	219	128.0	-190799.0	-2387.0	-18499.0
14	17	38	8	220	129.0	-190876.0	-2396.0	-18686.0
14	17	38	8	221	130.0	-190674.0	-2420.0	-19116.0
14	17	38	8	221	131.0	-190480.0	-2420.0	-18661.0
14	17	38	8	222	132.0	-190209.0	-2435.0	-18794.0
14	17	38	8	223	133.0	-189904.0	-2446.0	-19239.0
14	17	38	8	223	134.0	-189844.0	-2457.0	-19211.0
14	17	38	8	224	135.0	-190473.0	-2466.0	-19700.0
14	17	38	8	224	136.0	-191672.0	-2466.0	-20133.0
14	17	38	8	225	137.0	-192711.0	-2469.0	-20287.0
14	17	38	8	226	138.0	-194046.0	-2484.0	-20856.0
14	17	38	8	226	139.0	-195432.0	-2490.0	-21794.0
14	17	38	8	227	140.0	-196714.0	-2496.0	-22011.0
14	17	38	8	227	141.0	-197777.0	-2485.0	-21907.0
14	17	38	8	228	142.0	-198748.0	-2491.0	-22010.0
14	17	38	8	229	144.0	-200442.0	-2510.0	-22523.0
14	17	38	8	229	145.0	-200748.0	-2535.0	-22679.0
14	17	38	8	230	146.0	-200635.0	-2517.0	-22213.0
14	17	38	8	230	147.0	-200231.0	-2517.0	-21526.0
14	17	38	8	231	148.0	-199582.0	-2526.0	-21707.0
14	17	38	8	232	149.0	-198400.0	-2515.0	-22276.0
14	17	38	8	232	150.0	-197061.0	-2526.0	-21474.0
14	17	38	8	266	151.0	-196336.0	-2525.0	-21142.0
14	17	38	8	266	152.0	-195414.0	-2530.0	-21901.0
14	17	38	8	267	153.0	-194134.0	-2527.0	-21568.0
14	17	38	8	267	154.0	-193230.0	-2537.0	-21614.0
14	17	38	8	268	155.0	-192635.0	-2533.0	-21635.0
14	17	38	8	269	156.0	-192172.0	-2527.0	-21613.0
14	17	38	8	269	157.0	-191836.0	-2533.0	-21490.0
14	17	38	8	310	158.0	-191513.0	-2544.0	-21460.0
14	17	38	8	311	159.0	-191309.0	-2568.0	-21509.0
14	17	38	8	312	160.0	-191485.0	-2564.0	-21029.0
14	17	38	8	312	161.0	-192122.0	-2569.0	-21057.0
14	17	38	8	313	162.0	-192601.0	-2569.0	-20989.0
14	17	38	8	314	163.0	-192894.0	-2578.0	-20607.0
14	17	38	8	315	164.0	-193363.0	-2582.0	-20406.0
14	17	38	8	315	165.0	-193502.0	-2592.0	-19085.0
14	17	38	8	316	167.0	-192780.0	-2626.0	-18726.0
14	17	38	8	316	168.0	-192688.0	-2642.0	-19042.0
14	17	38	8	317	169.0	-192523.0	-2646.0	-17231.0
14	17	38	8	318	170.0	-191802.0	-2641.0	-14937.0
14	17	38	8	318	171.0	-190859.0	-2644.0	-13660.0
14	17	38	8	319	172.0	-189832.0	-2662.0	-13296.0
14	17	38	8	320	173.0	-188954.0	-2673.0	-14131.0
14	17	38	8	320	174.0	-188192.0	-2699.0	-15372.0
14	17	38	8	321	190.0	-201208.0	-3010.0	-26766.0
14	17	38	8	321	191.0	-202606.0	-3017.0	-24446.0
14	17	38	8	322	192.0	-204045.0	-3041.0	-21794.0
14	17	38	8	322	193.0	-205404.0	-3094.0	-17734.0
14	17	38	8	323	194.0	-206620.0	-3110.0	-14952.0
14	17	38	8	324	195.0	-207772.0	-3144.0	-14186.0
14	17	38	8	353	196.0	-209062.0	-3172.0	-12582.0
14	17	38	8	354	197.0	-210396.0	-3196.0	-11404.0
14	17	38	8	355	198.0	-211472.0	-3234.0	-9919.0
14	17	38	8	355	199.0	-212394.0	-3261.0	-6654.0
14	17	38	8	356	200.0	-211926.0	-3279.0	-3952.0
14	17	38	8	357	201.0	-210196.0	-3296.0	-3554.0
14	17	38	8	357	202.0	-208137.0	-3344.0	-3619.0
14	17	38	8	358	203.0	-205694.0	-3374.0	-4772.0
14	17	38	8	359	204.0	-201647.0	-3413.0	-5860.0
14	17	38	8	359	205.0	-196675.0	-3418.0	-6274.0
14	17	38	8	360	206.0	-192121.0	-3465.0	-7062.0
14	17	38	8	360	207.0	-189309.0	-3505.0	-8016.0
14	17	38	8	361	208.0	-188059.0	-3542.0	-8019.0
14	17	38	8	362	209.0	-187093.0	-3572.0	-7326.0
14	17	38	8	362	210.0	-185702.0	-3586.0	-6812.0
14	17	38	8	363	212.0	-184065.0	-3637.0	-6545.0
14	17	38	8	364	213.0	-183424.0	-3669.0	-6702.0
14	17	38	8	364	214.0	-181996.0	-3712.0	-7101.0
14	17	38	8	365	215.0	-181512.0	-3742.0	-7120.0
14	17	38	8	365	216.0	-180833.0	-3757.0	-8763.0
14	17	38	8	366	217.0	-177445.0	-3812.0	-10360.0
14	17	38	8	399	218.0	-170678.0	-3831.0	-10557.0
14	17	38	8	400	219.0	-161460.0	-3850.0	-10620.0
14	17	38	8	401	220.0	-151131.0	-3897.0	-10856.0
14	17	38	8	401	221.0	-142315.0	-3935.0	-11085.0
14	17	38	8	402	222.0	-136702.0	-3967.0	-11456.0
14	17	38	8	403	223.0	-135064.0	-3987.0	-11699.0
14	17	38	8	403	224.0	-136980.0	-4036.0	-12206.0
14	17	38	8	404	225.0	-141762.0	-4062.0	-12012.0
14	17	38	8	405	226.0	-149368.0	-4101.0	-12705.0
14	17	38	8	405	227.0	-159012.0	-4135.0	-13499.0
14	17	38	8	406	228.0	-168881.0	-4177.0	-13842.0
14	17	38	8	406	229.0	-177911.0	-4199.0	-13465.0
14	17	38	8	407	230.0	-185300.0	-4235.0	-13294.0
14	17	38	8	408	231.0	-190766.0	-4282.0	-12376.0
14	17	38	8	408	232.0	-194638.0	-4307.0	-13420.0
14	17	38	8	409	234.0	-199423.0	-4382.0	-14059.0
14	17	38	8	410	235.0	-201183.0	-4431.0	-13191.0
14	17	38	8	410	236.0	-202761.0	-4449.0	-13895.0
14	17	38	8	411	237.0	-204317.0	-4469.0	-14583.0
14	17	38	8	411	238.0	-206147.0	-4513.0	-14455.0
14	17	38	8	412	239.0	-208028.0	-4554.0	-15094.0
14	17	38	8	412	240.0	-209094.0	-4587.0	-15510.0
14	17	38	8	444	241.0	-209736.0	-4621.0	-14659.0
14	17	38	8	445	242.0	-210409.0	-4645.0	-14757.0
14	17	38	8	446	243.0	-211036.0	-4685.0	-15209.0
14	17	38	8	447	244.0	-211074.0	-4730.0	-15283.0
14	17	38	8	447	245.0	-211097.0	-4754.0	-15545.0
14	17	38	8	448	246.0	-211187.0	-4781.0	-14941.0
14	17	38	8	449	247.0	-210994.0	-4821.0	-14815.0
14	17	38	8	449	248.0	-210548.0	-4860.0	-15473.0
14	17	38	8	450	249.0	-210178.0	-4902.0	-16095.0
14	17	38	8	450	250.0	-209955.0	-4945.0	-16566.0
14	17	38	8	451	251.0	-209384.0	-4967.0	-15889.0
14	17	38	8	452	252.0	-207689.0	-4994.0	-15364.0
14	17	38	8	452	253.0	-205256.0	-5027.0	-15352.0
14	17	38	8	453	254.0	-202603.0	-5066.0	-15152.0
14	17	38	8	453	255.0	-199978.0	-5087.0	-15047.0
14	17	38	8	490	1.0	-194835.0	-5164.0	-14874.0
14	17	38	8	491	2.0	-192754.0	-5188.0	-15071.0
14	17	38	8	492	3.0	-190556.0	-5226.0	-15124.0
14	17	38	8	492	4.0	-188421.0	-5261.0	-14991.0
14	17	38	8	493	5.0	-186644.0	-5292.0	-13187.0
14	17	38	8	494	6.0	-185528.0	-5318.0	-10670.0
14	17	38	8	494	7.0	-184934.0	-5356.0	-10217.0
14	17	38	8	495	8.0	-184716.0	-5405.0	-10982.0
14	17	38	8	496	9.0	-185382.0	-5454.0	-12604.0
14	17	38	8	496	10.0	-186241.0	-5482.0	-13614.0
14	17	38	8	497	11.0	-187311.0	-5527.0	-14392.0
14	17	38	8	498	12.0	-188359.0	-5554.0	-14270.0
14	17	38	8	498	13.0	-188812.0	-5586.0	-13694.0
14	17	38	8	499	14.0	-189448.0	-5601.0	-14322.0
14	17	38	8	499	15.0	-190273.0	-5641.0	-14612.0
14	17	38	8	500	16.0	-191464.0	-5679.0	-14812.0
14	17	38	8	501	23.0	-203255.0	-5902.0	-14771.0
14	17	38	8	501	24.0	-203128.0	-5947.0	-14936.0
14	17	38	8	502	25.0	-202244.0	-5972.0	-14192.0
14	17	38	8	502	26.0	-200853.0	-6004.0	-14361.0
14	17	38	8	503	27.0	-199081.0	-6032.0	-13977.0
14	17	38	8	504	28.0	-197079.0	-6058.0	-12998.0
14	17	38	8	504	29.0	-194859.0	-6104.0	-12212.0
14	17	38	8	535	30.0	-193018.0	-6136.0	-10781.0
14	17	38	8	536	31.0	-191576.0	-6153.0	-9776.0
14	17	38	8	536	32.0	-190500.0	-6174.0	-9206.0
14	17	38	8	537	33.0	-189334.0	-6200.0	-7711.0
14	17	38	8	538	34.0	-187900.0	-6217.0	-7602.0
14	17	38	8	538	35.0	-186454.0	-6234.0	-8599.0
14	17	38	8	539	36.0	-185408.0	-6255.0	-11106.0
14	17	38	8	540	37.0	-184780.0	-6257.0	-12517.0
14	17	38	8	540	38.0	-184113.0	-6248.0	-12787.0
14	17	38	8	541	39.0	-183874.0	-6260.0	-13652.0
14	17	38	8	542	40.0	-183774.0	-6273.0	-13746.0
14	17	38	8	542	41.0	-183280.0	-6265.0	-14664.0
14	17	38	8	543	42.0	-182809.0	-6238.0	-14890.0
14	17	38	8	544	43.0	-182922.0	-6224.0	-15047.0
14	17	38	8	544	44.0	-183484.0	-6209.0	-15213.0
14	17	38	8	545	45.0	-184132.0	-6177.0	-15710.0
14	17	38	8	545	46.0	-184837.0	-6152.0	-16417.0
14	17	38	8	546	47.0	-185843.0	-6120.0	-16562.0
14	17	38	8	547	48.0	-186989.0	-6071.0	-15655.0
14	17	38	8	547	49.0	-188144.0	-6025.0	-15454.0
14	17	38	8	548	50.0	-188909.0	-5986.0	-15408.0
14	17	38	8	548	51.0	-188843.0	-5936.0	-15251.0
14	17	38	8	580	52.0	-188904.0	-5885.0	-15217.0
14	17	38	8	581	53.0	-189606.0	-5826.0	-14225.0
14	17	38	8	582	54.0	-190048.0	-5751.0	-13769.0
14	17	38	8	583	55.0	-189644.0	-5674.0	-13383.0
14	17	38	8	584	56.0	-189358.0	-5598.0	-14326.0
14	17	38	8	584	57.0	-189326.0	-5507.0	-14359.0
14	17	38	8	585	58.0	-189167.0	-5431.0	-13843.0
14	17	38	8	586	59.0	-188726.0	-5337.0	-13413.0
14	17	38	8	586	60.0	-188658.0	-5255.0	-13230.0
14	17	38	8	587	61.0	-188940.0	-5184.0	-12117.0
14	17	38	8	588	62.0	-189428.0	-5086.0	-10724.0
14	17	38	8	588	63.0	-189919.0	-4980.0	-9632.0
14	17	38	8	589	64.0	-190622.0	-4874.0	-8721.0
14	17	38	8	589	65.0	-191976.0	-4776.0	-7317.0
14	17	38	8	590	66.0	-193238.0	-4687.0	-7162.0
14	17	38	8	591	68.0	-196061.0	-4462.0	-6470.0
14	17	38	8	591	69.0	-197040.0	-4351.0	-5387.0
14	17	38	8	592	70.0	-198022.0	-4236.0	-4647.0
14	17	38	8	592	71.0	-198952.0	-4136.0	-4384.0
14	17	38	8	593	72.0	-199342.0	-4037.0	-4285.0
14	17	38	8	594	73.0	-198952.0	-3914.0	-4068.0
14	17	38	8	625	74.0	-198579.0	-3811.0	-3421.0
14	17	38	8	626	75.0	-198003.0	-3702.0	-3101.0
14	17	38	8	626	76.0	-197683.0	-3583.0	-2656.0
14	17	38	8	627	77.0	-196982.0	-3486.0	-2765.0
14	17	38	8	628	78.0	-195534.0	-3386.0	-2921.0
14	17	38	8	628	79.0	-193443.0	-3274.0	-2332.0
14	17	38	8	629	80.0	-190100.0	-3177.0	-2488.0
14	17	38	8	630	81.0	-185616.0	-3075.0	-2727.0
14	17	38	8	630	82.0	-180791.0	-2978.0	-2538.0
14	17	38	8	631	83.0	-179028.0	-2881.0	-2561.0
14	17	38	8	632	84.0	-179734.0	-2780.0	-2396.0
14	17	38	8	632	85.0	-186096.0	-2681.0	-2011.0
14	17	38	8	633	86.0	-193446.0	-2589.0	-1540.0
14	17	38	8	633	87.0	-198746.0	-2510.0	-1403.0
14	17	38	8	634	88.0	-201596.0	-2419.0	-1258.0
14	17	38	8	635	90.0	-197853.0	-2264.0	-1788.0
14	17	38	8	635	91.0	-194164.0	-2176.0	-1866.0
14	17	38	8	636	92.0	-190801.0	-2092.0	-1879.0
14	17	38	8	637	93.0	-188076.0	-2012.0	-1592.0
14	17	38	8	637	94.0	-186936.0	-1935.0	-2278.0
14	17	38	8	638	95.0	-186316.0	-1857.0	-3151.0
14	17	38	8	638	96.0	-185561.0	-1794.0	-3722.0
14	17	38	8	671	97.0	-185129.0	-1719.0	-3886.0
14	17	38	8	671	98.0	-185220.0	-1660.0	-3874.0
14	17	38	8	672	99.0	-185368.0	-1611.0	-3736.0
14	17	38	8	673	100.0	-184979.0	-1563.0	-4337.0
14	17	38	8	673	101.0	-184930.0	-1499.0	-5539.0
14	17	38	8	674	102.0	-185386.0	-1437.0	-5451.0
14	17	38	8	674	103.0	-186825.0	-1394.0	-5649.0
14	17	38	8	714	104.0	-189011.0	-1351.0	-6389.0
14	17	38	8	715	105.0	-191711.0	-1318.0	-6897.0
14	17	38	8	716	106.0	-194414.0	-1272.0	-6832.0
14	17	38	8	717	107.0	-196219.0	-1224.0	-7712.0
14	17	38	8	717	108.0	-197628.0	-1184.0	-7643.0
14	17	38	8	718	109.0	-198482.0	-1153.0	-7204.0
14	17	38	8	718	110.0	-198832.0	-1108.0	-7020.0
14	17	38	8	720	111.0	-197901.0	-1095.0	-7445.0
14	17	38	8	721	113.0	-194485.0	-1050.0	-7792.0
14	17	38	8	723	114.0	-192357.0	-1037.0	-8325.0
14	17	38	8	723	115.0	-189311.0	-1004.0	-7539.0
14	17	38	8	724	116.0	-186748.0	-967.0	-5849.0
14	17	38	8	725	117.0	-185472.0	-969.0	-3502.0
14	17	38	8	725	118.0	-184895.0	-951.0	-3981.0
14	17	38	8	726	119.0	-185551.0	-934.0	-5871.0
14	17	38	8	727	120.0	-186822.0	-917.0	-7631.0
14	17	38	8	727	135.0	-199079.0	-992.0	-6115.0
14	17	38	8	728	136.0	-198483.0	-1026.0	-6397.0
14	17	38	8	729	137.0	-197221.0	-1048.0	-7379.0
14	17	38	8	729	138.0	-195853.0	-1069.0	-7968.0
14	17	38	8	730	139.0	-194813.0	-1091.0	-8432.0
14	17	38	8	730	140.0	-193987.0	-1122.0	-9116.0
14	17	38	8	731	141.0	-193296.0	-1144.0	-9367.0
14	17	38	8	761	142.0	-192076.0	-1164.0	-9725.0
14	17	38	8	762	143.0	-190504.0	-1199.0	-9586.0
14	17	38	8	763	144.0	-189052.0	-1221.0	-9585.0
14	17	38	8	763	145.0	-188671.0	-1262.0	-9560.0
14	17	38	8	764	146.0	-188309.0	-1271.0	-9957.0
14	17	38	8	765	147.0	-187594.0	-1299.0	-9630.0
14	17	38	8	765	148.0	-187030.0	-1347.0	-9341.0
14	17	38	8	766	149.0	-186953.0	-1372.0	-8892.0
14	17	38	8	766	150.0	-187106.0	-1406.0	-8874.0
14	17	38	8	767	151.0	-187469.0	-1449.0	-8988.0
14	17	38	8	806	152.0	-187691.0	-1481.0	-9376.0
14	17	38	8	807	153.0	-187720.0	-1504.0	-8849.0
14	17	38	8	807	154.0	-187842.0	-1549.0	-8529.0
14	17	38	8	808	155.0	-187974.0	-1588.0	-8751.0
14	17	38	8	808	156.0	-188147.0	-1609.0	-9194.0
14	17	38	8	809	158.0	-188518.0	-1701.0	-9787.0
14	17	38	8	810	159.0	-188578.0	-1728.0	-9536.0
14	17	38	8	810	160.0	-188629.0	-1766.0	-9291.0
14	17	38	8	811	161.0	-188811.0	-1817.0	-9579.0
14	17	38	8	811	162.0	-189339.0	-1858.0	-9500.0
14	17	38	8	812	163.0	-190213.0	-1896.0	-8011.0
14	17	38	8	812	164.0	-191315.0	-1939.0	-7404.0
14	17	38	8	813	165.0	-192710.0	-1983.0	-8249.0
14	17	38	8	813	166.0	-193551.0	-2004.0	-8305.0
14	17	38	8	814	167.0	-194517.0	-2037.0	-8122.0
14	17	38	8	815	168.0	-195864.0	-2076.0	-7913.0
14	17	38	8	815	180.0	-199571.0	-2456.0	-12756.0
14	17	38	8	816	181.0	-199054.0	-2480.0	-11355.0
14	17	38	8	816	182.0	-198229.0	-2511.0	-9367.0
14	17	38	8	817	183.0	-198132.0	-2540.0	-9224.0
14	17	38	8	817	184.0	-198221.0	-2534.0	-9106.0
14	17	38	8	818	185.0	-198364.0	-2563.0	-9470.0
14	17	38	8	819	186.0	-198536.0	-2601.0	-10104.0
14	17	38	8	851	187.0	-198988.0	-2601.0	-9104.0
14	17	38	8	851	188.0	-199079.0	-2624.0	-8259.0
14	17	38	8	852	189.0	-198709.0	-2642.0	-7495.0
14	17	38	8	852	190.0	-197579.0	-2646.0	-7888.0
14	17	38	8	853	191.0	-196371.0	-2662.0	-8879.0
14	17	38	8	853	192.0	-194796.0	-2671.0	-8811.0
14	17	38	8	854	193.0	-193468.0	-2695.0	-8299.0
14	17	38	8	855	194.0	-191957.0	-2699.0	-8422.0
14	17	38	8	855	195.0	-190226.0	-2696.0	-8292.0
14	17	38	8	856	196.0	-188797.0	-2711.0	-8255.0
14	17	38	8	856	197.0	-187869.0	-2730.0	-8242.0
14	17	38	8	857	198.0	-187120.0	-2716.0	-8692.0
14	17	38	8	857	199.0	-186719.0	-2733.0	-8851.0
14	17	38	8	858	200.0	-186430.0	-2740.0	-8048.0
14	17	38	8	859	201.0	-186562.0	-2736.0	-8294.0
14	17	38	8	859	202.0	-186992.0	-2751.0	-8547.0
14	17	38	8	860	203.0	-187667.0	-2769.0	-8577.0
14	17	38	8	860	204.0	-188376.0	-2786.0	-8168.0
14	17	38	8	861	205.0	-189117.0	-2791.0	-7591.0
14	17	38	8	861	206.0	-189435.0	-2780.0	-7367.0
14	17	38	8	862	207.0	-189941.0	-2770.0	-7511.0
14	17	38	8	863	208.0	-190799.0	-2790.0	-7766.0
14	17	38	8	894	209.0	-191560.0	-2794.0	-7324.0
14	17	38	8	895	210.0	-191592.0	-2789.0	-5561.0
14	17	38	8	896	211.0	-191752.0	-2792.0	-3686.0
14	17	38	8	896	212.0	-191856.0	-2802.0	-2186.0
14	17	38	8	897	213.0	-191797.0	-2799.0	-1127.0
14	17	38	8	897	214.0	-191322.0	-2792.0	-2097.0
14	17	38	8	898	215.0	-190839.0	-2810.0	-4529.0
14	17	38	8	899	216.0	-190879.0	-2811.0	-6399.0
14	17	38	8	899	217.0	-191176.0	-2819.0	-7021.0
14	17	38	8	900	218.0	-191154.0	-2821.0	-7214.0
14	17	38	8	900	219.0	-190839.0	-2822.0	-7512.0
14	17	38	8	901	220.0	-189916.0	-2849.0	-7477.0
14	17	38	8	901	221.0	-189544.0	-2862.0	-8187.0
14	17	38	8	902	222.0	-189771.0	-2880.0	-8334.0
14	17	38	8	903	223.0	-190124.0	-2859.0	-9011.0
14	17	38	8	903	225.0	-190674.0	-2871.0	-8287.0
14	17	38	8	904	226.0	-191497.0	-2894.0	-8961.0
14	17	38	8	905	227.0	-192381.0	-2910.0	-8898.0
14	17	38	8	905	228.0	-192660.0	-2896.0	-7710.0
14	17	38	8	906	229.0	-192489.0	-2904.0	-5769.0
14	17	38	8	906	230.0	-192612.0	-2931.0	-4669.0
14	17	38	8	939	231.0	-192990.0	-2957.0	-4161.0
14	17	38	8	940	232.0	-193259.0	-2962.0	-4482.0
14	17	38	8	940	233.0	-193283.0	-2956.0	-4560.0
14	17	38	8	941	234.0	-193399.0	-2973.0	-4911.0
14	17	38	8	941	235.0	-193684.0	-2990.0	-4082.0
14	17	38	8	942	236.0	-193712.0	-3017.0	-4124.0
14	17	38	8	943	237.0	-193399.0	-3019.0	-4350.0
14	17	38	8	943	238.0	-193174.0	-3025.0	-4217.0
14	17	38	8	944	239.0	-193545.0	-3056.0	-3799.0
14	17	38	8	944	240.0	-194227.0	-3085.0	-4864.0
14	17	38	8	945	241.0	-194943.0	-3116.0	-7633.0
14	17	38	8	945	242.0	-195437.0	-3140.0	-10537.0
14	17	38	8	946	243.0	-195820.0	-3158.0	-13354.0
14	17	38	8	947	244.0	-196096.0	-3186.0	-15661.0
14	17	38	8	947	245.0	-195959.0	-3201.0	-16204.0
14	17	38	8	948	247.0	-195509.0	-3232.0	-17943.0
14	17	38	8	949	248.0	-195869.0	-3257.0	-19132.0
14	17	38	8	950	249.0	-195914.0	-3267.0	-19540.0
14	17	38	8	951	250.0	-195941.0	-3290.0	-19608.0
14	17	38	8	951	251.0	-196585.0	-3340.0	-18886.0
14	17	38	8	952	252.0	-197858.0	-3364.0	-15932.0
14	17	38	8	952	253.0	-199749.0	-3391.0	-12574.0
14	17	38	8	985	254.0	-201717.0	-3409.0	-8807.0
14	17	38	8	986	255.0	-202811.0	-3437.0	-6360.0
14	17	38	8	986	0.0	-203786.0	-3484.0	-6104.0
14	17	38	8	987	1.0	-204559.0	-3501.0	-5799.0
14	17	38	8	987	2.0	-204915.0	-3518.0	-4926.0
14	17	38	8	988	3.0	-205055.0	-3558.0	-2812.0
14	17	38	8	989	4.0	-205351.0	-3596.0	1050.0
14	17	38	9	30	5.0	-205262.0	-3613.0	2999.0
14	17	38	9	30	6.0	-204437.0	-3633.0	3212.0
14	17	38	9	74	7.0	-203467.0	-3686.0	2674.0
14	17	38	9	75	8.0	-202897.0	-3718.0	1761.0
14	17	38	9	76	9.0	-200671.0	-3732.0	1355.0
14	17	38	9	76	10.0	-197129.0	-3762.0	187.0
14	17	38	9	77	11.0	-193531.0	-3808.0	-251.0
14	17	38	9	77	12.0	-191672.0	-3851.0	22.0
14	17	38	9	78	14.0	-190711.0	-3899.0	2119.0
14	17	38	9	121	15.0	-189394.0	-3931.0	2123.0
14	17	38	9	121	16.0	-188049.0	-3956.0	2081.0
14	17	38	9	122	17.0	-188656.0	-3973.0	2521.0
14	17	38	9	122	18.0	-191506.0	-4008.0	2930.0
14	17	38	9	123	19.0	-194814.0	-4049.0	2373.0
14	17	38	9	124	20.0	-196419.0	-4092.0	1012.0
14	17	38	9	165	21.0	-194470.0	-4119.0	640.0
14	17	38	9	166	37.0	-189869.0	-4656.0	-4724.0
14	17	38	9	166	59.0	-199621.0	-5421.0	-1785.0
14	17	38	9	167	60.0	-196911.0	-5469.0	-3774.0
14	17	38	9	180	61.0	-194648.0	-5505.0	-4631.0
14	17	38	9	181	62.0	-192506.0	-5521.0	-5483.0
14	17	38	9	182	63.0	-190686.0	-5571.0	-5526.0
14	17	38	9	183	64.0	-189018.0	-5612.0	-5518.0
14	17	38	9	183	65.0	-187904.0	-5638.0	-5797.0
14	17	38	9	184	66.0	-187366.0	-5686.0	-6502.0
14	17	38	9	184	81.0	-201250.0	-6196.0	-4520.0
14	17	38	9	185	82.0	-201601.0	-6214.0	-4800.0
14	17	38	9	185	83.0	-201920.0	-6264.0	-4566.0
14	17	38	9	186	84.0	-202332.0	-6302.0	-4912.0
14	17	38	9	186	85.0	-202404.0	-6324.0	-5646.0
14	17	38	9	187	104.0	-188139.0	-6493.0	-7061.0
14	17	38	9	188	105.0	-186722.0	-6464.0	-6962.0
14	17	38	9	188	106.0	-185229.0	-6437.0	-5897.0
14	17	38	9	189	107.0	-184337.0	-6409.0	-5502.0
14	17	38	9	189	108.0	-183543.0	-6373.0	-5878.0
14	17	38	9	190	109.0	-182929.0	-6334.0	-5763.0
14	17	38	9	209	110.0	-182659.0	-6274.0	-5913.0
14	17	38	9	209	111.0	-182623.0	-6200.0	-6562.0
14	17	38	9	210	112.0	-182648.0	-6151.0	-6889.0
14	17	38	9	211	113.0	-182851.0	-6084.0	-6721.0
14	17	38	9	211	114.0	-183624.0	-6006.0	-6706.0
14	17	38	9	212	115.0	-184826.0	-5936.0	-6652.0
14	17	38	9	212	116.0	-186108.0	-5858.0	-6567.0
14	17	38	9	213	117.0	-188098.0	-5762.0	-6771.0
14	17	38	9	214	118.0	-190346.0	-5681.0	-7026.0
14	17	38	9	214	119.0	-192501.0	-5585.0	-7387.0
14	17	38	9	215	120.0	-194518.0	-5499.0	-7865.0
14	17	38	9	216	121.0	-196282.0	-5394.0	-8333.0
14	17	38	9	216	122.0	-197456.0	-5279.0	-8519.0
14	17	38	9	217	123.0	-198260.0	-5186.0	-8056.0
14	17	38	9	217	124.0	-198702.0	-5091.0	-7724.0
14	17	38	9	218	126.0	-198711.0	-4867.0	-8097.0
14	17	38	9	218	127.0	-198586.0	-4754.0	-7958.0
14	17	38	9	219	128.0	-198614.0	-4646.0	-7537.0
14	17	38	9	220	129.0	-198570.0	-4535.0	-7999.0
14	17	38	9	220	130.0	-198334.0	-4414.0	-7451.0
14	17	38	9	229	131.0	-198045.0	-4301.0	-7029.0
14	17	38	9	255	132.0	-197335.0	-4188.0	-7695.0
14	17	38	9	255	133.0	-196576.0	-4087.0	-7597.0
14	17	38	9	256	134.0	-195869.0	-3971.0	-7369.0
14	17	38	9	257	135.0	-194796.0	-3861.0	-7499.0
14	17	38	9	257	136.0	-193694.0	-3751.0	-8093.0
14	17	38	9	258	137.0	-192988.0	-3643.0	-8951.0
14	17	38	9	259	138.0	-192186.0	-3534.0	-9278.0
14	17	38	9	259	139.0	-191217.0	-3414.0	-9791.0
14	17	38	9	260	140.0	-189802.0	-3307.0	-9741.0
14	17	38	9	260	141.0	-187487.0	-3203.0	-9019.0
14	17	38	9	261	142.0	-184317.0	-3091.0	-9051.0
14	17	38	9	262	143.0	-180680.0	-2998.0	-9552.0
14	17	38	9	262	144.0	-176728.0	-2895.0	-9731.0
14	17	38	9	263	145.0	-176021.0	-2799.0	-10134.0
14	17	38	9	263	146.0	-177988.0	-2701.0	-10576.0
14	17	38	9	264	148.0	-190921.0	-2516.0	-11611.0
14	17	38	9	265	149.0	-196996.0	-2427.0	-11166.0
14	17	38	9	265	150.0	-200821.0	-2329.0	-11182.0
14	17	38	9	266	151.0	-201603.0	-2252.0	-10990.0
14	17	38	9	266	152.0	-200923.0	-2161.0	-11131.0
14	17	38	9	267	153.0	-199322.0	-2079.0	-11639.0
14	17	38	9	268	154.0	-195529.0	-2017.0	-11799.0
14	17	38	9	300	155.0	-191096.0	-1948.0	-12520.0
14	17	38	9	301	156.0	-187741.0	-1873.0	-12346.0
14	17	38	9	301	157.0	-184841.0	-1808.0	-12073.0
14	17	38	9	302	158.0	-182079.0	-1736.0	-12531.0
14	17	38	9	303	159.0	-179644.0	-1687.0	-12679.0
14	17	38	9	303	160.0	-178150.0	-1616.0	-12751.0
14	17	38	9	304	161.0	-177672.0	-1562.0	-12767.0
14	17	38	9	305	162.0	-177393.0	-1513.0	-13453.0
14	17	38	9	305	163.0	-177805.0	-1472.0	-13443.0
14	17	38	9	306	164.0	-179493.0	-1407.0	-13040.0
14	17	38	9	306	165.0	-182061.0	-1360.0	-13489.0
14	17	38	9	307	166.0	-184679.0	-1321.0	-13257.0
14	17	38	9	308	167.0	-187666.0	-1264.0	-12711.0
14	17	38	9	308	168.0	-190926.0	-1226.0	-12284.0
14	17	38	9	309	169.0	-194241.0	-1208.0	-13139.0
14	17	38	9	309	171.0	-200277.0	-1124.0	-11542.0
14	17	38	9	310	172.0	-202108.0	-1106.0	-11611.0
14	17	38	9	311	173.0	-203279.0	-1071.0	-11279.0
14	17	38	9	311	174.0	-204647.0	-1057.0	-10407.0
14	17	38	9	312	175.0	-204791.0	-1025.0	-9582.0
14	17	38	9	312	176.0	-203226.0	-986.0	-9630.0
14	17	38	9	344	177.0	-201187.0	-970.0	-10087.0
14	17	38	9	345	178.0	-199330.0	-960.0	-10271.0
14	17	38	9	346	179.0	-197730.0	-948.0	-10404.0
14	17	38	9	346	180.0	-196879.0	-934.0	-10914.0
14	17	38	9	347	181.0	-196511.0	-926.0	-11338.0
14	17	38	9	347	182.0	-195801.0	-915.0	-11699.0
14	17	38	9	348	183.0	-194621.0	-901.0	-11596.0
14	17	38	9	349	184.0	-193906.0	-900.0	-11630.0
14	17	38	9	349	185.0	-193807.0	-900.0	-11570.0
14	17	38	9	350	186.0	-193768.0	-877.0	-11942.0
14	17	38	9	350	187.0	-194370.0	-889.0	-12317.0
14	17	38	9	351	188.0	-195189.0	-886.0	-11991.0
14	17	38	9	352	189.0	-195929.0	-881.0	-11861.0
14	17	38	9	352	190.0	-196907.0	-894.0	-12602.0
14	17	38	9	353	191.0	-197744.0	-907.0	-12341.0
14	17	38	9	354	193.0	-198468.0	-922.0	-12120.0
14	17	38	9	354	194.0	-197982.0	-935.0	-11792.0
14	17	38	9	355	195.0	-197086.0	-944.0	-11457.0
14	17	38	9	355	196.0	-196241.0	-957.0	-11038.0
14	17	38	9	356	197.0	-195536.0	-964.0	-11444.0
14	17	38	9	357	198.0	-194735.0	-979.0	-11453.0
14	17	38	9	357	199.0	-194293.0	-1002.0	-11362.0
14	17	38	9	389	200.0	-193912.0	-1031.0	-11211.0
14	17	38	9	390	201.0	-193058.0	-1046.0	-9162.0
14	17	38	9	390	202.0	-192567.0	-1056.0	-8925.0
14	17	38	9	391	203.0	-192589.0	-1102.0	-9995.0
14	17	38	9	392	204.0	-191986.0	-1116.0	-11109.0
14	17	38	9	392	205.0	-191319.0	-1139.0	-11635.0
14	17	38	9	393	206.0	-190861.0	-1164.0	-12442.0
14	17	38	9	412	207.0	-190912.0	-1198.0	-12063.0
14	17	38	9	435	208.0	-191143.0	-1246.0	-11646.0
14	17	38	9	436	209.0	-191799.0	-1262.0	-11188.0
14	17	38	9	437	210.0	-192591.0	-1304.0	-11243.0
14	17	38	9	437	211.0	-193271.0	-1358.0	-10268.0
14	17	38	9	438	212.0	-193922.0	-1384.0	-8970.0
14	17	38	9	438	213.0	-194725.0	-1417.0	-9160.0
14	17	38	9	439	214.0	-195539.0	-1453.0	-10443.0
14	17	38	9	440	216.0	-197029.0	-1512.0	-11324.0
14	17	38	9	479	217.0	-197303.0	-1561.0	-11901.0
14	17	38	9	525	218.0	-197440.0	-1598.0	-11589.0
14	17	38	9	526	219.0	-197512.0	-1604.0	-11693.0
14	17	38	9	526	220.0	-197462.0	-1646.0	-12487.0
14	17	38	9	528	221.0	-197521.0	-1693.0	-12572.0
14	17	38	9	528	222.0	-197633.0	-1739.0	-12050.0
14	17	38	9	529	223.0	-197155.0	-1779.0	-12719.0
14	17	38	9	530	238.0	-186131.0	-2261.0	-13816.0
14	17	38	9	531	239.0	-185316.0	-2277.0	-13798.0
14	17	38	9	532	240.0	-185167.0	-2312.0	-14129.0
14	17	38	9	532	241.0	-185193.0	-2341.0	-13413.0
14	17	38	9	533	242.0	-185347.0	-2362.0	-12680.0
14	17	38	9	570	243.0	-185284.0	-2382.0	-13617.0
14	17	38	9	615	244.0	-185159.0	-2414.0	-15055.0
14	17	38	9	616	245.0	-185631.0	-2446.0	-14949.0
14	17	38	9	617	5.0	-205239.0	-2660.0	-13401.0
14	17	38	9	617	27.0	-183922.0	-2782.0	-11022.0
14	17	38	9	618	28.0	-183802.0	-2806.0	-11072.0
14	17	38	9	618	29.0	-183214.0	-2822.0	-10416.0
14	17	38	9	619	30.0	-183324.0	-2826.0	-8438.0
14	17	38	9	620	31.0	-184139.0	-2836.0	-7747.0
14	17	38	9	621	32.0	-184751.0	-2844.0	-7112.0
14	17	38	9	621	33.0	-184816.0	-2865.0	-7011.0
14	17	38	9	622	34.0	-185328.0	-2864.0	-7868.0
14	17	38	9	623	35.0	-186176.0	-2872.0	-8579.0
14	17	38	9	623	36.0	-187193.0	-2897.0	-9529.0
14	17	38	9	624	37.0	-188525.0	-2916.0	-10758.0
14	17	38	9	625	49.0	-196339.0	-3154.0	-11357.0
14	17	38	9	625	72.0	-190430.0	-3774.0	-17301.0
14	17	38	9	626	73.0	-191295.0	-3811.0	-13414.0
14	17	38	9	626	74.0	-192560.0	-3838.0	-9373.0
14	17	38	9	627	75.0	-193869.0	-3864.0	-7421.0
14	17	38	9	628	76.0	-195021.0	-3896.0	-7494.0
14	17	38	9	628	77.0	-195861.0	-3941.0	-6191.0
14	17	38	9	660	78.0	-196882.0	-3972.0	-6297.0
14	17	38	9	660	79.0	-198031.0	-3989.0	-4996.0
14	17	38	9	661	80.0	-198567.0	-4026.0	-1893.0
14	17	38	9	662	81.0	-198348.0	-4060.0	-807.0
14	17	38	9	663	82.0	-197125.0	-4090.0	-152.0
14	17	38	9	663	83.0	-196227.0	-4136.0	-1037.0
14	17	38	9	664	84.0	-195465.0	-4156.0	-2319.0
14	17	38	9	665	85.0	-193309.0	-4187.0	-3016.0
14	17	38	9	665	86.0	-190491.0	-4212.0	-3629.0
14	17	38	9	666	87.0	-187857.0	-4238.0	-3992.0
14	17	38	9	667	88.0	-185993.0	-4291.0	-4436.0
14	17	38	9	667	89.0	-185343.0	-4341.0	-3420.0
14	17	38	9	668	90.0	-185407.0	-4362.0	-2761.0
14	17	38	9	669	91.0	-185891.0	-4393.0	-2629.0
14	17	38	9	669	92.0	-186400.0	-4417.0	-2456.0
14	17	38	9	670	94.0	-190376.0	-4479.0	-4487.0
14	17	38	9	671	95.0	-192164.0	-4524.0	-5997.0
14	17	38	9	671	96.0	-191599.0	-4574.0	-7618.0
14	17	38	9	672	97.0	-187729.0	-4599.0	-8522.0
14	17	38	9	672	98.0	-182097.0	-4640.0	-9406.0
14	17	38	9	673	99.0	-175776.0	-4671.0	-10126.0
14	17	38	9	673	100.0	-169498.0	-4711.0	-11361.0
14	17	38	9	705	101.0	-163994.0	-4737.0	-11353.0
14	17	38	9	706	102.0	-159331.0	-4776.0	-11064.0
14	17	38	9	706	103.0	-155550.0	-4814.0	-11461.0
14	17	38	9	707	104.0	-153719.0	-4860.0	-11560.0
14	17	38	9	708	105.0	-153965.0	-4884.0	-11429.0
14	17	38	9	708	106.0	-156142.0	-4919.0	-11531.0
14	17	38	9	709	107.0	-160337.0	-4957.0	-11327.0
14	17	38	9	750	108.0	-165865.0	-4971.0	-11984.0
14	17	38	9	750	109.0	-171574.0	-5004.0	-12322.0
14	17	38	9	751	110.0	-176344.0	-5041.0	-11140.0
14	17	38	9	752	111.0	-180479.0	-5094.0	-10652.0
14	17	38	9	753	112.0	-184094.0	-5139.0	-11518.0
14	17	38	9	753	113.0	-186973.0	-5164.0	-11311.0
14	17	38	9	754	114.0	-189647.0	-5186.0	-11546.0
14	17	38	9	755	115.0	-192292.0	-5231.0	-11810.0
14	17	38	9	755	117.0	-197589.0	-5315.0	-12147.0
14	17	38	9	756	118.0	-200278.0	-5347.0	-12416.0
14	17	38	9	756	119.0	-202881.0	-5369.0	-12599.0
14	17	38	9	757	120.0	-205521.0	-5401.0	-11639.0
14	17	38	9	758	121.0	-207797.0	-5431.0	-11217.0
14	17	38	9	758	122.0	-209972.0	-5472.0	-11478.0
14	17	38	9	759	123.0	-212101.0	-5507.0	-11998.0
14	17	38	9	760	124.0	-214195.0	-5544.0	-12075.0
14	17	38	9	760	139.0	-188751.0	-6042.0	-13505.0
14	17	38	9	761	140.0	-187757.0	-6076.0	-13949.0
14	17	38	9	762	141.0	-186908.0	-6124.0	-14081.0
14	17	38	9	762	142.0	-186334.0	-6156.0	-13800.0
14	17	38	9	763	143.0	-186128.0	-6169.0	-14049.0
14	17	38	9	763	144.0	-185722.0	-6194.0	-13327.0
14	17	38	9	764	145.0	-185291.0	-6234.0	-12769.0
14	17	38	9	795	146.0	-185065.0	-6272.0	-12782.0
14	17	38	9	796	147.0	-185132.0	-6307.0	-12343.0
14	17	38	9	797	148.0	-185319.0	-6332.0	-12126.0
14	17	38	9	797	149.0	-185342.0	-6364.0	-11903.0
14	17	38	9	798	150.0	-185662.0	-6379.0	-11951.0
14	17	38	9	799	151.0	-186674.0	-6413.0	-12011.0
14	17	38	9	799	152.0	-188413.0	-6449.0	-12541.0
14	17	38	9	800	153.0	-190432.0	-6487.0	-13019.0
14	17	38	9	801	154.0	-192651.0	-6514.0	-12804.0
14	17	38	9	801	155.0	-194721.0	-6545.0	-12721.0
14	17	38	9	802	156.0	-196529.0	-6546.0	-12782.0
14	17	38	9	803	157.0	-198337.0	-6584.0	-13067.0
14	17	38	9	803	158.0	-200401.0	-6624.0	-11902.0
14	17	38	9	804	159.0	-202164.0	-6657.0	-11419.0
14	17	38	9	804	160.0	-203249.0	-6689.0	-11650.0
14	17	38	9	805	162.0	-204576.0	-6721.0	-8807.0
14	17	38	9	806	163.0	-204803.0	-6747.0	-6898.0
14	17	38	9	806	164.0	-205054.0	-6771.0	-5924.0
14	17	38	9	807	165.0	-205137.0	-6780.0	-6334.0
14	17	38	9	807	166.0	-204632.0	-6826.0	-8603.0
14	17	38	9	808	167.0	-203780.0	-6839.0	-10659.0
14	17	38	9	840	168.0	-203212.0	-6852.0	-11812.0
14	17	38	9	841	169.0	-202591.0	-6854.0	-12027.0
14	17	38	9	841	170.0	-200824.0	-6857.0	-12024.0
14	17	38	9	842	171.0	-198695.0	-6859.0	-11637.0
14	17	38	9	843	172.0	-196615.0	-6863.0	-11970.0
14	17	38	9	844	173.0	-194406.0	-6857.0	-11994.0
14	17	38	9	844	174.0	-192559.0	-6842.0	-11556.0
14	17	38	9	845	175.0	-190440.0	-6848.0	-11779.0
14	17	38	9	845	176.0	-188291.0	-6828.0	-11834.0
14	17	38	9	846	177.0	-185953.0	-6814.0	-11527.0
14	17	38	9	847	178.0	-183641.0	-6774.0	-12056.0
14	17	38	9	847	179.0	-181790.0	-6737.0	-11947.0
14	17	38	9	848	180.0	-180005.0	-6699.0	-11579.0
14	17	38	9	849	181.0	-178454.0	-6643.0	-11692.0
14	17	38	9	849	182.0	-177372.0	-6586.0	-11437.0
14	17	38	9	850	184.0	-176457.0	-6474.0	-11567.0
14	17	38	9	851	185.0	-176213.0	-6414.0	-12090.0
14	17	38	9	851	186.0	-176078.0	-6352.0	-13065.0
14	17	38	9	852	187.0	-176065.0	-6300.0	-12723.0
14	17	38	9	852	188.0	-175773.0	-6204.0	-12564.0
14	17	38	9	853	189.0	-175774.0	-6118.0	-12714.0
14	17	38	9	885	190.0	-176265.0	-6029.0	-12451.0
14	17	38	9	886	191.0	-177106.0	-5935.0	-12229.0
14	17	38	9	887	192.0	-178051.0	-5841.0	-12134.0
14	17	38	9	888	193.0	-179346.0	-5738.0	-12176.0
14	17	38	9	888	194.0	-180867.0	-5641.0	-12566.0
14	17	38	9	889	195.0	-182509.0	-5552.0	-13211.0
14	17	38	9	889	196.0	-184555.0	-5446.0	-13005.0
14	17	38	9	890	197.0	-186216.0	-5331.0	-11917.0
14	17	38	9	946	198.0	-187707.0	-5210.0	-12313.0
14	17	38	9	960	199.0	-189209.0	-5116.0	-12637.0
14	17	38	9	960	200.0	-191021.0	-4997.0	-12842.0
14	17	38	9	961	201.0	-192711.0	-4865.0	-12960.0
14	17	38	9	962	202.0	-194441.0	-4752.0	-12583.0
14	17	38	9	962	203.0	-196599.0	-4615.0	-12502.0
14	17	38	9	963	204.0	-198927.0	-4494.0	-12512.0
14	17	38	9	964	206.0	-203108.0	-4255.0	-12415.0
14	17	38	9	964	207.0	-204897.0	-4125.0	-12672.0
14	17	38	9	982	208.0	-206417.0	-4001.0	-12826.0
14	17	38	9	983	209.0	-207784.0	-3871.0	-12681.0
14	17	38	9	983	210.0	-208847.0	-3756.0	-13334.0
14	17	38	9	984	211.0	-208987.0	-3651.0	-13646.0
14	17	38	9	984	212.0	-208122.0	-3516.0	-13102.0
14	17	38	9	985	213.0	-207539.0	-3387.0	-12768.0
14	17	38	9	986	236.0	-175909.0	-1321.0	-16579.0
14	17	38	9	986	244.0	-177952.0	-885.0	-17690.0
14	17	38	9	987	245.0	-181957.0	-866.0	-17051.0
14	17	38	9	987	246.0	-186186.0	-824.0	-16423.0
14	17	38	9	988	247.0	-190178.0	-791.0	-17127.0
14	17	38	9	988	248.0	-193594.0	-739.0	-17078.0
14	17	38	9	989	249.0	-196919.0	-709.0	-17209.0
14	17	38	9	990	250.0	-199638.0	-705.0	-16784.0
14	17	38	9	990	251.0	-201284.0	-679.0	-16939.0
14	17	38	9	991	252.0	-202129.0	-650.0	-17269.0
14	17	38	9	991	253.0	-202438.0	-636.0	-16934.0
14	17	38	9	992	254.0	-202459.0	-606.0	-16226.0
14	17	38	9	992	255.0	-202289.0	-589.0	-16885.0
14	17	38	9	993	0.0	-201369.0	-567.0	-17807.0
14	17	38	9	993	1.0	-199861.0	-557.0	-17859.0
14	17	38	9	994	2.0	-197844.0	-561.0	-18159.0
14	17	38	10	5	3.0	-195895.0	-554.0	-18302.0
14	17	38	10	28	4.0	-194466.0	-544.0	-17006.0
14	17	38	10	29	5.0	-193958.0	-524.0	-16728.0
14	17	38	10	29	6.0	-194074.0	-532.0	-16869.0
14	17	38	10	30	7.0	-194792.0	-527.0	-16207.0
14	17	38	10	31	8.0	-195756.0	-518.0	-15758.0
14	17	38	10	31	9.0	-196574.0	-526.0	-15476.0
14	17	38	10	32	10.0	-197107.0	-538.0	-15918.0
14	17	38	10	32	11.0	-197341.0	-540.0	-16237.0
14	17	38	10	33	12.0	-197652.0	-537.0	-15957.0
14	17	38	10	33	13.0	-197432.0	-546.0	-15969.0
14	17	38	10	52	14.0	-197028.0	-564.0	-15092.0
14	17	38	10	52	15.0	-196550.0	-570.0	-15518.0
14	17	38	10	53	16.0	-196505.0	-563.0	-15733.0
14	17	38	10	53	17.0	-196451.0	-587.0	-15979.0
14	17	38	10	74	18.0	-196242.0	-612.0	-15587.0
14	17	38	10	75	19.0	-196129.0	-642.0	-15386.0
14	17	38	10	75	20.0	-195443.0	-650.0	-16041.0
14	17	38	10	76	21.0	-194834.0	-660.0	-16641.0
14	17	38	10	76	22.0	-194452.0	-655.0	-16362.0
14	17	38	10	77	23.0	-194002.0	-688.0	-16554.0
14	17	38	10	77	24.0	-193332.0	-743.0	-16737.0
14	17	38	10	78	25.0	-192509.0	-767.0	-16332.0
14	17	38	10	79	26.0	-191684.0	-777.0	-15853.0
14	17	38	10	79	27.0	-190800.0	-801.0	-16496.0
14	17	38	10	80	28.0	-190324.0	-824.0	-17266.0
14	17	38	10	80	29.0	-190194.0	-876.0	-18177.0
14	17	38	10	81	30.0	-190047.0	-887.0	-19099.0
14	17	38	10	81	31.0	-189831.0	-925.0	-18963.0
14	17	38	10	82	32.0	-189922.0	-952.0	-18988.0
14	17	38	10	82	33.0	-190207.0	-995.0	-18487.0
14	17	38	10	83	41.0	-190047.0	-1269.0	-17040.0
14	17	38	10	83	42.0	-190481.0	-1302.0	-17358.0
14	17	38	10	84	43.0	-191031.0	-1319.0	-17566.0
14	17	38	10	85	44.0	-191617.0	-1345.0	-17781.0
14	17	38	10	85	45.0	-192478.0	-1392.0	-17068.0
14	17	38	10	86	46.0	-193352.0	-1423.0	-16846.0
14	17	38	10	86	47.0	-194286.0	-1467.0	-18115.0
14	17	38	10	87	48.0	-195276.0	-1509.0	-17449.0
14	17	38	10	97	49.0	-195985.0	-1535.0	-17621.0
14	17	38	10	97	50.0	-196462.0	-1547.0	-17376.0
14	17	38	10	98	51.0	-197008.0	-1599.0	-16622.0
14	17	38	10	99	52.0	-197464.0	-1624.0	-16901.0
14	17	38	10	99	53.0	-198015.0	-1636.0	-17646.0
14	17	38	10	100	54.0	-198173.0	-1679.0	-17542.0
14	17	38	10	100	55.0	-197831.0	-1716.0	-17149.0
14	17	38	10	101	56.0	-197524.0	-1743.0	-17702.0
14	17	38	10	120	57.0	-196796.0	-1777.0	-18301.0
14	17	38	10	120	58.0	-196131.0	-1787.0	-17404.0
14	17	38	10	121	59.0	-195567.0	-1809.0	-17261.0
14	17	38	10	121	60.0	-195171.0	-1846.0	-17630.0
14	17	38	10	122	61.0	-194762.0	-1877.0	-18166.0
14	17	38	10	123	62.0	-194306.0	-1888.0	-18321.0
14	17	38	10	123	63.0	-193956.0	-1889.0	-18826.0
14	17	38	10	124	64.0	-193871.0	-1908.0	-18667.0
14	17	38	10	125	65.0	-193542.0	-1955.0	-18576.0
14	17	38	10	125	66.0	-193251.0	-1977.0	-18463.0
14	17	38	10	126	67.0	-193389.0	-1992.0	-18117.0
14	17	38	10	126	68.0	-193683.0	-2011.0	-17963.0
14	17	38	10	127	69.0	-193664.0	-2029.0	-18197.0
14	17	38	10	128	70.0	-193721.0	-2051.0	-18758.0
14	17	38	10	128	71.0	-193966.0	-2064.0	-19258.0
14	17	38	10	142	72.0	-193996.0	-2085.0	-19808.0
14	17	38	10	143	73.0	-193671.0	-2087.0	-20140.0
14	17	38	10	144	74.0	-193481.0	-2089.0	-20478.0
14	17	38	10	144	75.0	-194138.0	-2112.0	-20584.0
14	17	38	10	145	76.0	-195294.0	-2124.0	-20796.0
14	17	38	10	145	77.0	-196146.0	-2117.0	-20489.0
14	17	38	10	146	78.0	-196562.0	-2130.0	-20239.0
14	17	38	10	165	79.0	-197037.0	-2150.0	-20335.0
14	17	38	10	166	80.0	-197377.0	-2141.0	-20426.0
14	17	38	10	166	81.0	-197533.0	-2146.0	-20021.0
14	17	38	10	167	82.0	-197711.0	-2174.0	-20104.0
14	17	38	10	167	83.0	-197358.0	-2182.0	-19636.0
14	17	38	10	168	84.0	-196796.0	-2201.0	-18994.0
14	17	38	10	168	85.0	-196813.0	-2202.0	-18638.0
14	17	38	10	169	86.0	-196589.0	-2202.0	-18513.0
14	17	38	10	170	87.0	-195992.0	-2204.0	-18630.0
14	17	38	10	170	88.0	-195683.0	-2199.0	-18875.0
14	17	38	10	171	89.0	-195329.0	-2224.0	-19003.0
14	17	38	10	171	90.0	-194926.0	-2246.0	-18428.0
14	17	38	10	172	91.0	-194598.0	-2243.0	-18234.0
14	17	38	10	172	92.0	-194404.0	-2232.0	-18064.0
14	17	38	10	173	93.0	-193819.0	-2231.0	-17156.0
14	17	38	10	174	94.0	-193407.0	-2243.0	-17936.0
14	17	38	10	189	95.0	-193285.0	-2262.0	-18525.0
14	17	38	10	189	96.0	-193344.0	-2262.0	-18669.0
14	17	38	10	190	97.0	-193123.0	-2270.0	-18904.0
14	17	38	10	190	98.0	-192982.0	-2268.0	-18378.0
14	17	38	10	191	99.0	-193105.0	-2286.0	-18669.0
14	17	38	10	192	100.0	-193286.0	-2303.0	-18322.0
14	17	38	10	192	101.0	-193465.0	-2277.0	-18320.0
14	17	38	10	212	102.0	-193691.0	-2293.0	-18643.0
14	17	38	10	213	103.0	-193908.0	-2312.0	-17679.0
14	17	38	10	213	104.0	-194220.0	-2322.0	-17229.0
14	17	38	10	214	105.0	-194366.0	-2328.0	-17256.0
14	17	38	10	215	106.0	-194530.0	-2347.0	-17166.0
14	17	38	10	215	107.0	-194929.0	-2347.0	-17171.0
14	17	38	10	216	108.0	-195288.0	-2349.0	-17229.0
14	17	38	10	216	109.0	-194936.0	-2372.0	-16648.0
14	17	38	10	217	110.0	-193991.0	-2380.0	-16373.0
14	17	38	10	217	111.0	-192826.0	-2387.0	-17714.0
14	17	38	10	218	112.0	-191972.0	-2404.0	-18349.0
14	17	38	10	218	113.0	-191451.0	-2409.0	-17691.0
14	17	38	10	219	114.0	-190996.0	-2442.0	-17537.0
14	17	38	10	220	115.0	-190461.0	-2453.0	-17449.0
14	17	38	10	235	116.0	-189998.0	-2461.0	-16776.0
14	17	38	10	236	117.0	-189616.0	-2479.0	-17152.0
14	17	38	10	236	118.0	-189212.0	-2506.0	-17332.0
14	17	38	10	237	119.0	-189302.0	-2513.0	-17601.0
14	17	38	10	237	120.0	-189673.0	-2536.0	-17535.0
14	17	38	10	238	121.0	-189782.0	-2551.0	-16974.0
14	17	38	10	238	122.0	-189586.0	-2562.0	-17043.0
14	17	38	10	239	123.0	-189434.0	-2596.0	-17344.0
14	17	38	10	239	124.0	-189298.0	-2613.0	-16361.0
14	17	38	10	257	125.0	-188887.0	-2635.0	-16312.0
14	17	38	10	258	126.0	-188660.0	-2658.0	-16606.0
14	17	38	10	258	127.0	-188596.0	-2689.0	-16976.0
14	17	38	10	259	128.0	-188488.0	-2714.0	-18066.0
14	17	38	10	260	129.0	-188124.0	-2734.0	-18184.0
14	17	38	10	260	130.0	-187567.0	-2757.0	-18082.0
14	17	38	10	261	131.0	-187078.0	-2779.0	-17579.0
14	17	38	10	261	132.0	-186709.0	-2794.0	-17636.0
14	17	38	10	262	133.0	-186116.0	-2853.0	-17236.0
14	17	38	10	263	134.0	-185398.0	-2869.0	-17392.0
14	17	38	10	263	135.0	-185049.0	-2892.0	-17501.0
14	17	38	10	264	136.0	-184906.0	-2903.0	-17198.0
14	17	38	10	264	137.0	-185261.0	-2946.0	-16524.0
14	17	38	10	265	138.0	-185903.0	-2984.0	-15804.0
14	17	38	10	280	139.0	-186474.0	-3001.0	-14073.0
14	17	38	10	281	140.0	-186715.0	-3031.0	-13332.0
14	17	38	10	304	141.0	-187156.0	-3047.0	-14309.0
14	17	38	10	305	142.0	-187945.0	-3076.0	-15277.0
14	17	38	10	305	143.0	-189156.0	-3116.0	-17446.0
14	17	38	10	306	144.0	-190844.0	-3137.0	-21334.0
14	17	38	10	307	145.0	-192410.0	-3183.0	-24557.0
14	17	38	10	307	146.0	-194170.0	-3204.0	-26941.0
14	17	38	10	308	147.0	-196012.0	-3246.0	-29022.0
14	17	38	10	308	148.0	-197735.0	-3261.0	-29966.0
14	17	38	10	309	149.0	-199107.0	-3282.0	-32645.0
14	17	38	10	309	150.0	-199780.0	-3307.0	-34869.0
14	17	38	10	310	151.0	-200354.0	-3351.0	-36009.0
14	17	38	10	311	152.0	-201089.0	-3398.0	-35419.0
14	17	38	10	311	153.0	-202022.0	-3430.0	-31624.0
14	17	38	10	312	154.0	-202946.0	-3468.0	-27669.0
14	17	38	10	327	155.0	-204377.0	-3483.0	-23402.0
14	17	38	10	328	156.0	-205874.0	-3503.0	-19791.0
14	17	38	10	328	157.0	-206880.0	-3545.0	-18121.0
14	17	38	10	329	158.0	-207521.0	-3569.0	-17113.0
14	17	38	10	329	159.0	-207960.0	-3616.0	-16721.0
14	17	38	10	330	160.0	-207736.0	-3657.0	-15569.0
14	17	38	10	331	161.0	-207157.0	-3702.0	-12808.0
14	17	38	10	351	162.0	-206197.0	-3723.0	-11570.0
14	17	38	10	352	163.0	-204276.0	-3764.0	-11053.0
14	17	38	10	352	164.0	-202119.0	-3788.0	-11289.0
14	17	38	10	353	165.0	-201414.0	-3816.0	-12414.0
14	17	38	10	353	166.0	-200882.0	-3846.0	-13062.0
14	17	38	10	354	167.0	-199343.0	-3875.0	-13473.0
14	17	38	10	354	168.0	-197236.0	-3912.0	-13488.0
14	17	38	10	355	169.0	-194961.0	-3941.0	-13182.0
14	17	38	10	356	170.0	-192988.0	-3984.0	-11942.0
14	17	38	10	356	171.0	-192010.0	-4019.0	-10657.0
14	17	38	10	357	172.0	-191981.0	-4051.0	-10062.0
14	17	38	10	357	173.0	-191949.0	-4099.0	-9614.0
14	17	38	10	358	174.0	-192191.0	-4118.0	-8509.0
14	17	38	10	358	175.0	-193157.0	-4151.0	-9571.0
14	17	38	10	359	176.0	-194052.0	-4184.0	-12573.0
14	17	38	10	359	177.0	-192939.0	-4233.0	-16014.0
14	17	38	10	360	178.0	-189071.0	-4251.0	-16979.0
14	17	38	10	361	179.0	-183320.0	-4294.0	-18054.0
14	17	38	10	361	180.0	-176337.0	-4328.0	-18716.0
14	17	38	10	362	181.0	-169099.0	-4368.0	-18637.0
14	17	38	10	362	182.0	-163839.0	-4399.0	-20056.0
14	17	38	10	374	183.0	-159473.0	-4452.0	-20374.0
14	17	38	10	375	184.0	-155787.0	-4479.0	-19929.0
14	17	38	10	375	185.0	-153259.0	-4506.0	-19892.0
14	17	38	10	376	186.0	-151789.0	-4542.0	-20489.0
14	17	38	10	376	187.0	-152390.0	-4559.0	-20538.0
14	17	38	10	377	188.0	-154954.0	-4592.0	-20434.0
14	17	38	10	378	189.0	-158566.0	-4645.0	-21187.0
14	17	38	10	397	190.0	-163186.0	-4668.0	-21562.0
14	17	38	10	398	191.0	-168196.0	-4696.0	-21965.0
14	17	38	10	398	192.0	-173366.0	-4725.0	-21874.0
14	17	38	10	399	193.0	-177996.0	-4762.0	-21900.0
14	17	38	10	400	194.0	-181664.0	-4808.0	-21663.0
14	17	38	10	400	195.0	-184357.0	-4831.0	-21772.0
14	17	38	10	401	196.0	-186438.0	-4856.0	-22208.0
14	17	38	10	401	197.0	-188972.0	-4891.0	-22695.0
14	17	38	10	402	198.0	-191311.0	-4926.0	-22474.0
14	17	38	10	402	199.0	-193386.0	-4955.0	-22978.0
14	17	38	10	403	200.0	-195422.0	-4985.0	-23149.0
14	17	38	10	404	201.0	-197801.0	-4994.0	-22699.0
14	17	38	10	404	202.0	-200091.0	-5062.0	-23441.0
14	17	38	10	405	203.0	-202069.0	-5093.0	-23628.0
14	17	38	10	405	204.0	-203886.0	-5104.0	-23437.0
14	17	38	10	406	205.0	-205646.0	-5145.0	-23304.0
14	17	38	10	406	206.0	-207470.0	-5191.0	-23978.0
14	17	38	10	407	207.0	-209245.0	-5217.0	-23357.0
14	17	38	10	421	208.0	-210880.0	-5247.0	-22223.0
14	17	38	10	421	209.0	-212470.0	-5257.0	-21412.0
14	17	38	10	422	210.0	-213848.0	-5301.0	-21982.0
14	17	38	10	423	211.0	-214719.0	-5344.0	-22522.0
14	17	38	10	423	212.0	-215381.0	-5369.0	-23807.0
14	17	38	10	424	213.0	-215545.0	-5388.0	-24086.0
14	17	38	10	424	214.0	-215259.0	-5421.0	-23844.0
14	17	38	10	425	215.0	-214034.0	-5434.0	-23299.0
14	17	38	10	426	216.0	-211702.0	-5463.0	-23509.0
14	17	38	10	426	217.0	-208601.0	-5497.0	-24309.0
14	17	38	10	427	218.0	-204871.0	-5530.0	-24421.0
14	17	38	10	427	219.0	-201545.0	-5573.0	-24236.0
14	17	38	10	443	220.0	-198598.0	-5597.0	-24485.0
14	17	38	10	444	221.0	-195865.0	-5624.0	-23766.0
14	17	38	10	445	222.0	-193877.0	-5651.0	-23571.0
14	17	38	10	445	223.0	-192510.0	-5679.0	-24199.0
14	17	38	10	446	224.0	-191149.0	-5726.0	-24566.0
14	17	38	10	446	225.0	-189816.0	-5741.0	-23534.0
14	17	38	10	447	226.0	-189070.0	-5760.0	-23922.0
14	17	38	10	447	227.0	-188431.0	-5801.0	-24247.0
14	17	38	10	448	228.0	-188114.0	-5844.0	-23819.0
14	17	38	10	449	229.0	-188113.0	-5876.0	-23884.0
14	17	38	10	467	230.0	-188546.0	-5899.0	-23811.0
14	17	38	10	468	231.0	-189124.0	-5925.0	-24113.0
14	17	38	10	468	232.0	-189936.0	-5971.0	-24299.0
14	17	38	10	469	233.0	-191054.0	-6001.0	-23849.0
14	17	38	10	470	234.0	-192116.0	-6024.0	-24163.0
14	17	38	10	470	235.0	-193184.0	-6060.0	-24154.0
14	17	38	10	471	236.0	-193635.0	-6073.0	-23860.0
14	17	38	10	471	237.0	-194049.0	-6094.0	-24073.0
14	17	38	10	472	238.0	-195078.0	-6142.0	-23688.0
14	17	38	10	473	239.0	-196101.0	-6177.0	-22740.0
14	17	38	10	473	240.0	-196884.0	-6186.0	-22899.0
14	17	38	10	474	241.0	-197749.0	-6204.0	-22809.0
14	17	38	10	474	242.0	-198823.0	-6246.0	-23025.0
14	17	38	10	490	243.0	-199714.0	-6279.0	-22882.0
14	17	38	10	491	244.0	-200480.0	-6290.0	-23311.0
14	17	38	10	492	245.0	-200981.0	-6315.0	-23661.0
14	17	38	10	492	246.0	-201066.0	-6319.0	-22867.0
14	17	38	10	493	247.0	-200913.0	-6332.0	-22671.0
14	17	38	10	514	248.0	-200614.0	-6344.0	-22686.0
14	17	38	10	514	249.0	-199759.0	-6355.0	-22582.0
14	17	38	10	515	250.0	-198422.0	-6376.0	-22434.0
14	17	38	10	516	251.0	-197051.0	-6397.0	-22287.0
14	17	38	10	516	252.0	-195466.0	-6394.0	-22213.0
14	17	38	10	517	253.0	-193789.0	-6375.0	-21884.0
14	17	38	10	517	254.0	-192089.0	-6383.0	-21861.0
14	17	38	10	518	255.0	-190442.0	-6368.0	-21910.0
14	17	38	10	519	0.0	-189093.0	-6361.0	-21632.0
14	17	38	10	519	1.0	-187816.0	-6356.0	-21172.0
14	17	38	10	520	2.0	-186527.0	-6314.0	-20421.0
14	17	38	10	520	3.0	-185037.0	-6304.0	-18927.0
14	17	38	10	521	4.0	-183689.0	-6257.0	-19532.0
14	17	38	10	521	5.0	-182472.0	-6210.0	-19953.0
14	17	38	10	522	6.0	-181003.0	-6172.0	-20227.0
14	17	38	10	523	7.0	-179508.0	-6133.0	-20504.0
14	17	38	10	523	8.0	-178012.0	-6073.0	-21682.0
14	17	38	10	524	9.0	-176876.0	-6030.0	-21952.0
14	17	38	10	537	10.0	-176597.0	-5979.0	-22142.0
14	17	38	10	538	11.0	-176851.0	-5903.0	-22629.0
14	17	38	10	538	12.0	-176875.0	-5829.0	-22310.0
14	17	38	10	539	13.0	-176915.0	-5768.0	-21844.0
14	17	38	10	539	14.0	-177156.0	-5689.0	-21263.0
14	17	38	10	540	15.0	-177751.0	-5598.0	-21609.0
14	17	38	10	540	16.0	-179109.0	-5496.0	-22515.0
14	17	38	10	560	17.0	-180925.0	-5418.0	-22934.0
14	17	38	10	561	18.0	-182830.0	-5315.0	-22382.0
14	17	38	10	561	19.0	-184936.0	-5200.0	-22234.0
14	17	38	10	562	20.0	-187327.0	-5101.0	-22694.0
14	17	38	10	563	21.0	-189793.0	-4999.0	-23168.0
14	17	38	10	563	22.0	-192539.0	-4872.0	-23055.0
14	17	38	10	564	23.0	-195505.0	-4758.0	-22677.0
14	17	38	10	564	24.0	-197893.0	-4667.0	-23046.0
14	17	38	10	565	25.0	-199744.0	-4545.0	-22748.0
14	17	38	10	584	26.0	-201711.0	-4412.0	-22903.0
14	17	38	10	585	27.0	-203502.0	-4280.0	-23706.0
14	17	38	10	585	28.0	-204879.0	-4166.0	-23306.0
14	17	38	10	586	29.0	-205556.0	-4047.0	-23107.0
14	17	38	10	607	30.0	-205816.0	-3918.0	-23996.0
14	17	38	10	607	31.0	-205974.0	-3802.0	-24539.0
14	17	38	10	608	32.0	-206320.0	-3671.0	-24556.0
14	17	38	10	608	33.0	-206602.0	-3544.0	-24754.0
14	17	38	10	609	34.0	-206137.0	-3413.0	-24780.0
14	17	38	10	610	35.0	-205271.0	-3284.0	-24073.0
14	17	38	10	610	36.0	-204621.0	-3169.0	-23540.0
14	17	38	10	611	37.0	-204093.0	-3037.0	-23855.0
14	17	38	10	611	38.0	-203451.0	-2909.0	-23418.0
14	17	38	10	612	39.0	-202866.0	-2783.0	-23367.0
14	17	38	10	612	40.0	-202137.0	-2677.0	-23623.0
14	17	38	10	613	41.0	-201585.0	-2551.0	-23502.0
14	17	38	10	614	42.0	-200751.0	-2415.0	-23324.0
14	17	38	10	614	43.0	-199344.0	-2308.0	-23296.0
14	17	38	10	615	44.0	-197302.0	-2205.0	-23484.0
14	17	38	10	615	45.0	-194955.0	-2089.0	-22973.0
14	17	38	10	616	46.0	-192653.0	-1994.0	-22963.0
14	17	38	10	616	47.0	-190174.0	-1897.0	-23501.0
14	17	38	10	617	48.0	-186621.0	-1784.0	-23277.0
14	17	38	10	618	49.0	-181112.0	-1692.0	-22981.0
14	17	38	10	618	50.0	-177579.0	-1579.0	-23422.0
14	17	38	10	619	51.0	-176679.0	-1479.0	-22786.0
14	17	38	10	620	52.0	-178464.0	-1389.0	-21522.0
14	17	38	10	621	53.0	-183082.0	-1279.0	-19916.0
14	17	38	10	621	54.0	-185576.0	-1201.0	-19064.0
14	17	38	10	622	55.0	-187393.0	-1126.0	-18794.0
14	17	38	10	622	56.0	-187974.0	-1037.0	-18677.0
14	17	38	10	623	57.0	-186606.0	-955.0	-18886.0
14	17	38	10	624	58.0	-184524.0	-879.0	-18585.0
14	17	38	10	624	59.0	-181091.0	-810.0	-17891.0
14	17	38	10	625	60.0	-177269.0	-738.0	-18698.0
14	17	38	10	626	61.0	-174742.0	-680.0	-18905.0
14	17	38	10	635	62.0	-173527.0	-619.0	-19157.0
14	17	38	10	635	63.0	-173203.0	-537.0	-18976.0
14	17	38	10	636	64.0	-173585.0	-467.0	-18699.0
14	17	38	10	637	65.0	-174170.0	-426.0	-18941.0
14	17	38	10	637	66.0	-175281.0	-380.0	-19086.0
14	17	38	10	638	67.0	-176997.0	-324.0	-19121.0
14	17	38	10	639	68.0	-179880.0	-272.0	-19809.0
14	17	38	10	656	69.0	-183243.0	-235.0	-19499.0
14	17	38	10	657	70.0	-187039.0	-186.0	-19469.0
14	17	38	10	658	71.0	-191022.0	-149.0	-19082.0
14	17	38	10	658	72.0	-194917.0	-123.0	-19687.0
14	17	38	10	659	73.0	-198657.0	-77.0	-20201.0
14	17	38	10	659	74.0	-201937.0	-31.0	-20382.0
14	17	38	10	660	75.0	-204899.0	-17.0	-20499.0
14	17	38	10	661	76.0	-207806.0	8.0	-20375.0
14	17	38	10	661	77.0	-210764.0	46.0	-19839.0
14	17	38	10	686	78.0	-213021.0	79.0	-20037.0
14	17	38	10	687	79.0	-213619.0	99.0	-20072.0
14	17	38	10	687	80.0	-213311.0	113.0	-20053.0
14	17	38	10	688	81.0	-212454.0	113.0	-20314.0
14	17	38	10	689	82.0	-210641.0	123.0	-20546.0
14	17	38	10	689	83.0	-208605.0	150.0	-19787.0
14	17	38	10	690	84.0	-206777.0	173.0	-20004.0
14	17	38	10	690	85.0	-205099.0	191.0	-20607.0
14	17	38	10	691	86.0	-203763.0	211.0	-20902.0
14	17	38	10	691	87.0	-202720.0	200.0	-20559.0
14	17	38	10	703	88.0	-201874.0	203.0	-20135.0
14	17	38	10	703	89.0	-200530.0	212.0	-20619.0
14	17	38	10	704	90.0	-199249.0	210.0	-21158.0
14	17	38	10	704	91.0	-198516.0	202.0	-21434.0
14	17	38	10	705	92.0	-197839.0	188.0	-21784.0
14	17	38	10	706	93.0	-196926.0	201.0	-22404.0
14	17	38	10	706	94.0	-195572.0	195.0	-22828.0
14	17	38	10	707	95.0	-194272.0	183.0	-23731.0
14	17	38	10	707	96.0	-193133.0	185.0	-24400.0
14	17	38	10	708	97.0	-192013.0	192.0	-24707.0
14	17	38	10	708	98.0	-190649.0	175.0	-24876.0
14	17	38	10	709	99.0	-189106.0	169.0	-25491.0
14	17	38	10	709	100.0	-187885.0	163.0	-26326.0
14	17	38	10	710	101.0	-186796.0	143.0	-26223.0
14	17	38	10	711	102.0	-185339.0	119.0	-26102.0
14	17	38	10	711	103.0	-183668.0	100.0	-26132.0
14	17	38	10	712	104.0	-182026.0	83.0	-25771.0
14	17	38	10	712	105.0	-180942.0	74.0	-26104.0
14	17	38	10	725	106.0	-180496.0	42.0	-25776.0
14	17	38	10	726	107.0	-180273.0	31.0	-25582.0
14	17	38	10	726	108.0	-180008.0	17.0	-26179.0
14	17	38	10	727	109.0	-179571.0	-21.0	-26164.0
14	17	38	10	728	110.0	-179529.0	-46.0	-25911.0
14	17	38	10	728	111.0	-179458.0	-66.0	-26589.0
14	17	38	10	729	112.0	-179562.0	-88.0	-27166.0
14	17	38	10	750	113.0	-180440.0	-107.0	-26911.0
14	17	38	10	751	114.0	-181766.0	-152.0	-26538.0
14	17	38	10	751	115.0	-183367.0	-189.0	-27134.0
14	17	38	10	752	116.0	-185302.0	-225.0	-26781.0
14	17	38	10	752	117.0	-187084.0	-239.0	-26659.0
14	17	38	10	753	118.0	-188712.0	-280.0	-26334.0
14	17	38	10	754	119.0	-190301.0	-309.0	-25976.0
14	17	38	10	772	120.0	-191480.0	-327.0	-26192.0
14	17	38	10	773	121.0	-192418.0	-362.0	-26054.0
14	17	38	10	773	122.0	-193454.0	-399.0	-25919.0
14	17	38	10	774	123.0	-194227.0	-417.0	-25356.0
14	17	38	10	775	124.0	-194656.0	-448.0	-25601.0
14	17	38	10	775	125.0	-195332.0	-477.0	-26333.0
14	17	38	10	776	126.0	-195755.0	-518.0	-25811.0
14	17	38	10	776	127.0	-196113.0	-547.0	-24742.0
14	17	38	10	777	128.0	-196969.0	-574.0	-24252.0
14	17	38	10	777	129.0	-198312.0	-601.0	-25042.0
14	17	38	10	778	130.0	-199592.0	-612.0	-25326.0
14	17	38	10	779	131.0	-200742.0	-654.0	-25186.0
14	17	38	10	779	132.0	-201723.0	-691.0	-25154.0
14	17	38	10	780	133.0	-202397.0	-720.0	-25014.0
14	17	38	10	780	134.0	-202934.0	-743.0	-25164.0
14	17	38	10	781	135.0	-203344.0	-789.0	-25756.0
14	17	38	10	782	136.0	-203144.0	-824.0	-25692.0
14	17	38	10	796	137.0	-202374.0	-841.0	-25851.0
14	17	38	10	796	138.0	-201771.0	-849.0	-25680.0
14	17	38	10	797	139.0	-201484.0	-889.0	-25037.0
14	17	38	10	797	140.0	-201372.0	-909.0	-25612.0
14	17	38	10	798	141.0	-200897.0	-929.0	-25890.0
14	17	38	10	799	142.0	-199551.0	-953.0	-26339.0
14	17	38	10	799	143.0	-198409.0	-976.0	-26530.0
14	17	38	10	800	144.0	-198024.0	-987.0	-26343.0
14	17	38	10	800	145.0	-197741.0	-998.0	-25630.0
14	17	38	10	801	146.0	-197259.0	-1020.0	-25396.0
14	17	38	10	801	147.0	-197227.0	-1044.0	-26760.0
14	17	38	10	802	148.0	-197538.0	-1059.0	-26570.0
14	17	38	10	803	149.0	-198284.0	-1069.0	-26526.0
14	17	38	10	803	150.0	-199143.0	-1101.0	-26285.0
14	17	38	10	804	151.0	-199616.0	-1114.0	-26327.0
14	17	38	10	804	152.0	-199195.0	-1127.0	-26718.0
14	17	38	10	820	153.0	-197871.0	-1129.0	-27862.0
14	17	38	10	821	154.0	-196401.0	-1154.0	-28726.0
14	17	38	10	822	155.0	-195282.0	-1158.0	-28494.0
14	17	38	10	822	156.0	-194356.0	-1152.0	-28321.0
14	17	38	10	823	157.0	-193466.0	-1166.0	-28876.0
14	17	38	10	823	158.0	-192462.0	-1194.0	-29642.0
14	17	38	10	824	159.0	-191514.0	-1201.0	-29693.0
14	17	38	10	844	160.0	-190427.0	-1196.0	-30199.0
14	17	38	10	845	161.0	-189692.0	-1189.0	-29228.0
14	17	38	10	845	162.0	-189449.0	-1201.0	-28094.0
14	17	38	10	846	163.0	-189152.0	-1198.0	-27724.0
14	17	38	10	847	164.0	-188409.0	-1205.0	-26829.0
14	17	38	10	847	165.0	-187589.0	-1207.0	-25559.0
14	17	38	10	848	166.0	-187174.0	-1214.0	-25320.0
14	17	38	10	848	167.0	-187354.0	-1227.0	-24811.0
14	17	38	10	849	168.0	-187549.0	-1217.0	-24752.0
14	17	38	10	850	169.0	-186862.0	-1219.0	-25670.0
14	17	38	10	850	170.0	-185794.0	-1229.0	-26442.0
14	17	38	10	851	171.0	-185184.0	-1235.0	-27117.0
14	17	38	10	851	172.0	-184939.0	-1246.0	-26827.0
14	17	38	10	852	173.0	-185023.0	-1263.0	-26133.0
14	17	38	10	852	174.0	-185172.0	-1272.0	-25726.0
14	17	38	10	853	175.0	-185566.0	-1261.0	-25388.0
14	17	38	10	853	176.0	-186536.0	-1267.0	-25469.0
14	17	38	10	867	177.0	-187342.0	-1269.0	-25122.0
14	17	38	10	889	178.0	-188114.0	-1258.0	-25146.0
14	17	38	10	890	179.0	-188816.0	-1261.0	-25669.0
14	17	38	10	891	180.0	-189577.0	-1277.0	-24518.0
14	17	38	10	891	181.0	-190661.0	-1293.0	-22652.0
14	17	38	10	892	182.0	-191717.0	-1291.0	-22422.0
14	17	38	10	892	183.0	-192948.0	-1273.0	-23418.0
14	17	38	10	893	184.0	-194366.0	-1297.0	-23759.0
14	17	38	10	893	185.0	-195702.0	-1316.0	-24594.0
14	17	38	10	894	186.0	-196810.0	-1307.0	-24872.0
14	17	38	10	895	187.0	-197566.0	-1328.0	-25251.0
14	17	38	10	895	188.0	-198265.0	-1340.0	-25253.0
14	17	38	10	896	189.0	-198870.0	-1341.0	-25314.0
14	17	38	10	896	190.0	-199352.0	-1347.0	-24925.0
14	17	38	10	897	191.0	-200439.0	-1346.0	-24222.0
14	17	38	10	911	192.0	-201266.0	-1359.0	-24101.0
14	17	38	10	912	193.0	-200995.0	-1359.0	-24277.0
14	17	38	10	913	194.0	-200384.0	-1381.0	-24378.0
14	17	38	10	913	195.0	-199507.0	-1392.0	-24491.0
14	17	38	10	914	196.0	-198565.0	-1407.0	-24684.0
14	17	38	10	914	197.0	-197646.0	-1434.0	-22371.0
14	17	38	10	915	198.0	-196940.0	-1446.0	-21334.0
14	17	38	10	916	199.0	-196171.0	-1459.0	-20919.0
14	17	38	10	916	200.0	-194946.0	-1506.0	-20264.0
14	17	38	10	917	201.0	-193749.0	-1517.0	-20270.0
14	17	38	10	917	202.0	-192669.0	-1536.0	-20382.0
14	17	38	10	918	203.0	-191677.0	-1542.0	-20880.0
14	17	38	10	919	204.0	-190807.0	-1549.0	-21821.0
14	17	38	10	919	205.0	-189705.0	-1577.0	-22007.0
14	17	38	10	920	206.0	-188772.0	-1597.0	-22776.0
14	17	38	10	920	207.0	-188300.0	-1618.0	-23703.0
14	17	38	10	921	208.0	-188122.0	-1647.0	-24467.0
14	17	38	10	921	209.0	-187756.0	-1671.0	-24290.0
14	17	38	10	922	210.0	-187430.0	-1701.0	-23067.0
14	17	38	10	937	211.0	-186813.0	-1707.0	-22471.0
14	17	38	10	938	212.0	-185738.0	-1740.0	-23082.0
14	17	38	10	939	213.0	-184905.0	-1754.0	-22952.0
14	17	38	10	939	214.0	-184506.0	-1774.0	-23142.0
14	17	38	10	940	215.0	-184065.0	-1784.0	-23729.0
14	17	38	10	940	216.0	-183679.0	-1824.0	-23836.0
14	17	38	10	941	217.0	-183529.0	-1863.0	-22904.0
14	17	38	10	959	218.0	-183664.0	-1886.0	-21857.0
14	17	38	10	960	219.0	-183857.0	-1908.0	-21118.0
14	17	38	10	961	220.0	-184030.0	-1921.0	-21146.0
14	17	38	10	961	221.0	-184633.0	-1951.0	-21337.0
14	17	38	10	962	222.0	-185531.0	-1994.0	-21052.0
14	17	38	10	962	223.0	-185965.0	-2023.0	-23475.0
14	17	38	10	963	224.0	-186215.0	-2049.0	-26591.0
14	17	38	10	964	225.0	-186789.0	-2070.0	-28950.0
14	17	38	10	964	226.0	-187309.0	-2113.0	-30391.0
14	17	38	10	965	227.0	-188198.0	-2143.0	-31449.0
14	17	38	10	965	228.0	-189036.0	-2153.0	-34476.0
14	17	38	10	966	229.0	-190067.0	-2183.0	-38137.0
14	17	38	10	967	230.0	-191504.0	-2229.0	-40752.0
14	17	38	10	967	231.0	-192804.0	-2261.0	-41701.0
14	17	38	10	968	232.0	-194205.0	-2288.0	-39742.0
14	17	38	10	968	233.0	-195976.0	-2321.0	-35559.0
14	17	38	10	983	234.0	-198226.0	-2378.0	-31544.0
14	17	38	10	984	235.0	-200659.0	-2398.0	-26991.0
14	17	38	10	984	236.0	-203040.0	-2417.0	-22509.0
14	17	38	10	985	237.0	-204885.0	-2459.0	-19826.0
14	17	38	10	985	238.0	-206559.0	-2489.0	-19121.0
14	17	38	10	986	239.0	-208091.0	-2522.0	-18694.0
14	17	38	10	986	240.0	-208802.0	-2546.0	-17645.0
14	17	38	11	7	241.0	-208924.0	-2573.0	-17257.0
14	17	38	11	7	242.0	-208646.0	-2618.0	-16623.0
14	17	38	11	8	243.0	-207831.0	-2646.0	-16364.0
14	17	38	11	9	244.0	-207406.0	-2676.0	-17649.0
14	17	38	11	9	245.0	-207979.0	-2708.0	-18511.0
14	17	38	11	10	246.0	-207329.0	-2747.0	-18114.0
14	17	38	11	11	247.0	-205075.0	-2796.0	-17961.0
14	17	38	11	11	248.0	-202069.0	-2816.0	-18347.0
14	17	38	11	12	249.0	-198966.0	-2844.0	-18540.0
14	17	38	11	12	250.0	-196221.0	-2891.0	-17886.0
14	17	38	11	13	251.0	-194976.0	-2937.0	-17492.0
14	17	38	11	13	252.0	-194215.0	-2959.0	-17357.0
14	17	38	11	14	253.0	-193577.0	-2987.0	-16474.0
14	17	38	11	15	254.0	-193939.0	-3027.0	-16692.0
14	17	38	11	15	255.0	-195252.0	-3051.0	-18184.0
14	17	38	11	16	0.0	-196632.0	-3101.0	-19255.0
14	17	38	11	31	1.0	-197016.0	-3132.0	-19989.0
14	17	38	11	32	2.0	-196129.0	-3153.0	-20692.0
14	17	38	11	32	3.0	-192901.0	-3182.0	-21996.0
14	17	38	11	33	4.0	-187416.0	-3226.0	-22747.0
14	17	38	11	33	5.0	-180781.0	-3251.0	-22467.0
14	17	38	11	34	6.0	-175112.0	-3301.0	-22758.0
14	17	38	11	35	7.0	-171016.0	-3334.0	-23441.0
14	17	38	11	54	8.0	-169227.0	-3354.0	-24110.0
14	17	38	11	55	9.0	-168991.0	-3392.0	-23639.0
14	17	38	11	55	10.0	-168529.0	-3424.0	-20947.0
14	17	38	11	56	11.0	-167917.0	-3462.0	-18107.0
14	17	38	11	56	12.0	-168124.0	-3485.0	-17626.0
14	17	38	11	57	13.0	-169044.0	-3516.0	-18422.0
14	17	38	11	57	14.0	-170671.0	-3561.0	-19429.0
14	17	38	11	77	15.0	-173309.0	-3597.0	-19679.0
14	17	38	11	78	16.0	-175819.0	-3634.0	-20166.0
14	17	38	11	79	17.0	-177647.0	-3691.0	-21286.0
14	17	38	11	79	18.0	-178313.0	-3701.0	-21948.0
14	17	38	11	80	19.0	-178446.0	-3730.0	-23219.0
14	17	38	11	80	20.0	-178929.0	-3764.0	-23467.0
14	17	38	11	81	21.0	-179575.0	-3790.0	-23869.0
14	17	38	11	82	22.0	-180471.0	-3814.0	-24792.0
14	17	38	11	99	23.0	-180906.0	-3850.0	-24982.0
14	17	38	11	100	24.0	-181471.0	-3890.0	-24859.0
14	17	38	11	101	25.0	-182859.0	-3920.0	-25048.0
14	17	38	11	101	26.0	-184562.0	-3966.0	-25026.0
14	17	38	11	102	27.0	-186009.0	-3986.0	-25801.0
14	17	38	11	103	28.0	-187701.0	-4009.0	-25918.0
14	17	38	11	103	29.0	-189496.0	-4049.0	-25999.0
14	17	38	11	104	30.0	-191742.0	-4088.0	-26529.0
14	17	38	11	104	31.0	-194255.0	-4101.0	-27543.0
14	17	38	11	105	32.0	-196771.0	-4132.0	-27457.0
14	17	38	11	106	33.0	-199040.0	-4157.0	-26456.0
14	17	38	11	106	34.0	-200782.0	-4206.0	-26361.0
14	17	38	11	107	35.0	-202321.0	-4234.0	-26822.0
14	17	38	11	107	36.0	-203349.0	-4267.0	-27202.0
14	17	38	11	108	37.0	-203752.0	-4308.0	-26698.0
14	17	38	11	109	38.0	-203552.0	-4334.0	-26642.0
14	17	38	11	109	39.0	-202936.0	-4363.0	-26892.0
14	17	38	11	110	40.0	-201882.0	-4396.0	-26822.0
14	17	38	11	122	41.0	-200486.0	-4422.0	-26166.0
14	17	38	11	122	42.0	-198661.0	-4475.0	-24677.0
14	17	38	11	123	43.0	-197047.0	-4506.0	-24919.0
14	17	38	11	124	44.0	-195395.0	-4532.0	-26477.0
14	17	38	11	124	45.0	-193646.0	-4558.0	-28074.0
14	17	38	11	125	46.0	-192556.0	-4575.0	-28454.0
14	17	38	11	125	47.0	-192530.0	-4621.0	-28083.0
14	17	38	11	126	48.0	-192895.0	-4648.0	-27977.0
14	17	38	11	127	49.0	-193710.0	-4664.0	-28162.0
14	17	38	11	127	50.0	-194649.0	-4704.0	-27953.0
14	17	38	11	147	51.0	-195362.0	-4734.0	-27732.0
14	17	38	11	148	52.0	-196062.0	-4762.0	-27536.0
14	17	38	11	148	53.0	-197164.0	-4801.0	-28227.0
14	17	38	11	149	54.0	-197827.0	-4832.0	-28296.0
14	17	38	11	149	55.0	-198011.0	-4860.0	-27952.0
14	17	38	11	150	56.0	-198728.0	-4887.0	-27898.0
14	17	38	11	171	57.0	-199351.0	-4931.0	-28214.0
14	17	38	11	171	58.0	-199719.0	-4964.0	-28542.0
14	17	38	11	172	59.0	-199766.0	-4987.0	-28438.0
14	17	38	11	173	60.0	-200423.0	-5025.0	-28322.0
14	17	38	11	173	61.0	-201156.0	-5051.0	-27467.0
14	17	38	11	174	62.0	-201711.0	-5067.0	-27441.0
14	17	38	11	174	63.0	-202673.0	-5098.0	-27626.0
14	17	38	11	193	64.0	-203646.0	-5126.0	-27684.0
14	17	38	11	194	65.0	-204559.0	-5157.0	-27329.0
14	17	38	11	195	66.0	-205507.0	-5176.0	-27397.0
14	17	38	11	195	67.0	-206023.0	-5214.0	-27041.0
14	17	38	11	196	68.0	-206281.0	-5214.0	-27430.0
14	17	38	11	196	69.0	-207006.0	-5229.0	-27700.0
14	17	38	11	197	70.0	-207882.0	-5256.0	-27360.0
14	17	38	11	215	71.0	-207886.0	-5267.0	-27209.0
14	17	38	11	216	72.0	-207246.0	-5301.0	-27256.0
14	17	38	11	217	75.0	-203631.0	-5309.0	-26887.0
14	17	38	11	217	76.0	-202174.0	-5321.0	-27384.0
14	17	38	11	218	77.0	-200552.0	-5312.0	-26796.0
14	17	38	11	219	78.0	-198452.0	-5292.0	-26364.0
14	17	38	11	219	79.0	-196586.0	-5290.0	-26468.0
14	17	38	11	220	82.0	-189522.0	-5228.0	-25892.0
14	17	38	11	221	83.0	-187540.0	-5192.0	-26046.0
14	17	38	11	221	89.0	-177412.0	-4952.0	-24704.0
14	17	38	11	222	90.0	-175869.0	-4900.0	-25169.0
14	17	38	11	222	91.0	-174513.0	-4839.0	-25969.0
14	17	38	11	223	92.0	-174017.0	-4762.0	-27637.0
14	17	38	11	223	93.0	-173582.0	-4676.0	-27717.0
14	17	38	11	224	94.0	-173549.0	-4612.0	-26911.0
14	17	38	11	225	95.0	-174411.0	-4532.0	-26886.0
14	17	38	11	225	97.0	-175320.0	-4373.0	-27040.0
14	17	38	11	226	98.0	-176388.0	-4264.0	-27297.0
14	17	38	11	226	99.0	-178054.0	-4159.0	-28097.0
14	17	38	11	227	100.0	-180326.0	-4065.0	-27861.0
14	17	38	11	227	101.0	-182570.0	-3944.0	-27736.0
14	17	38	11	228	102.0	-184702.0	-3840.0	-26657.0
14	17	38	11	229	103.0	-186593.0	-3732.0	-26497.0
14	17	38	11	229	104.0	-188533.0	-3616.0	-27207.0
14	17	38	11	230	105.0	-190871.0	-3518.0	-27232.0
14	17	38	11	238	106.0	-192992.0	-3403.0	-27397.0
14	17	38	11	239	107.0	-194672.0	-3279.0	-27078.0
14	17	38	11	239	108.0	-196745.0	-3159.0	-26439.0
14	17	38	11	240	109.0	-198862.0	-3054.0	-25370.0
14	17	38	11	240	110.0	-200588.0	-2927.0	-24826.0
14	17	38	11	241	111.0	-202501.0	-2804.0	-25074.0
14	17	38	11	241	112.0	-204094.0	-2687.0	-24954.0
14	17	38	11	261	113.0	-205076.0	-2570.0	-24443.0
14	17	38	11	262	114.0	-205701.0	-2437.0	-23821.0
14	17	38	11	262	115.0	-206480.0	-2311.0	-21864.0
14	17	38	11	263	116.0	-207110.0	-2208.0	-21353.0
14	17	38	11	264	117.0	-207289.0	-2094.0	-21460.0
14	17	38	11	264	118.0	-207154.0	-1984.0	-21952.0
14	17	38	11	265	119.0	-206496.0	-1863.0	-22957.0
14	17	38	11	266	120.0	-205574.0	-1744.0	-23636.0
14	17	38	11	266	121.0	-204780.0	-1632.0	-24166.0
14	17	38	11	267	122.0	-203692.0	-1517.0	-24941.0
14	17	38	11	268	123.0	-202332.0	-1391.0	-25187.0
14	17	38	11	268	124.0	-200989.0	-1284.0	-25467.0
14	17	38	11	269	125.0	-198797.0	-1194.0	-26004.0
14	17	38	11	269	126.0	-195794.0	-1087.0	-26041.0
14	17	38	11	270	127.0	-192799.0	-993.0	-25696.0
14	17	38	11	271	128.0	-189380.0	-897.0	-25602.0
14	17	38	11	284	129.0	-185422.0	-800.0	-25352.0
14	17	38	11	285	130.0	-184299.0	-701.0	-24913.0
14	17	38	11	286	131.0	-184895.0	-609.0	-24356.0
14	17	38	11	286	132.0	-189815.0	-519.0	-24571.0
14	17	38	11	287	133.0	-195684.0	-432.0	-25737.0
14	17	38	11	288	134.0	-199189.0	-354.0	-26162.0
14	17	38	11	288	135.0	-201827.0	-279.0	-26392.0
14	17	38	11	309	136.0	-202331.0	-220.0	-26785.0
14	17	38	11	310	137.0	-200657.0	-132.0	-26644.0
14	17	38	11	311	138.0	-197622.0	-69.0	-26701.0
14	17	38	11	311	139.0	-193627.0	3.0	-26520.0
14	17	38	11	312	140.0	-189879.0	86.0	-26580.0
14	17	38	11	312	141.0	-186482.0	148.0	-26068.0
14	17	38	11	313	142.0	-183741.0	203.0	-26079.0
14	17	38	11	314	143.0	-181823.0	259.0	-26616.0
14	17	38	11	314	144.0	-181027.0	325.0	-26262.0
14	17	38	11	315	145.0	-180350.0	383.0	-25269.0
14	17	38	11	315	146.0	-180174.0	417.0	-24801.0
14	17	38	11	316	147.0	-180349.0	476.0	-25289.0
14	17	38	11	317	148.0	-180699.0	523.0	-25720.0
14	17	38	11	317	149.0	-181806.0	569.0	-25791.0
14	17	38	11	318	150.0	-183436.0	593.0	-25564.0
14	17	38	11	332	151.0	-184897.0	648.0	-26090.0
14	17	38	11	333	152.0	-186438.0	689.0	-25779.0
14	17	38	11	333	153.0	-188687.0	726.0	-25237.0
14	17	38	11	334	154.0	-190901.0	757.0	-25381.0
14	17	38	11	334	155.0	-193286.0	763.0	-24895.0
14	17	38	11	335	156.0	-195410.0	807.0	-24906.0
14	17	38	11	335	157.0	-197208.0	831.0	-25175.0
14	17	38	11	354	158.0	-198358.0	853.0	-24956.0
14	17	38	11	356	159.0	-198683.0	865.0	-23723.0
14	17	38	11	356	160.0	-198132.0	884.0	-23334.0
14	17	38	11	357	161.0	-196254.0	889.0	-23745.0
14	17	38	11	357	162.0	-193886.0	914.0	-24471.0
14	17	38	11	358	163.0	-191741.0	925.0	-25269.0
14	17	38	11	359	164.0	-190068.0	911.0	-25784.0
14	17	38	11	359	165.0	-189330.0	936.0	-25686.0
14	17	38	11	360	166.0	-189281.0	964.0	-26145.0
14	17	38	11	361	167.0	-189554.0	971.0	-26649.0
14	17	38	11	361	168.0	-190742.0	963.0	-27012.0
14	17	38	11	362	169.0	-192263.0	973.0	-26409.0
14	17	38	11	362	170.0	-193366.0	973.0	-25930.0
14	17	38	11	363	171.0	-194444.0	960.0	-26612.0
14	17	38	11	363	172.0	-195291.0	958.0	-26395.0
14	17	38	11	364	173.0	-195944.0	956.0	-26092.0
14	17	38	11	400	174.0	-196407.0	929.0	-26106.0
14	17	38	11	400	175.0	-196785.0	938.0	-26419.0
14	17	38	11	401	176.0	-197339.0	929.0	-26093.0
14	17	38	11	402	177.0	-197646.0	888.0	-25858.0
14	17	38	11	403	178.0	-197765.0	892.0	-25560.0
14	17	38	11	403	179.0	-197974.0	883.0	-25447.0
14	17	38	11	404	180.0	-197804.0	866.0	-25504.0
14	17	38	11	405	181.0	-197508.0	860.0	-25928.0
14	17	38	11	405	182.0	-197467.0	841.0	-26080.0
14	17	38	11	406	183.0	-197701.0	811.0	-25626.0
14	17	38	11	407	184.0	-197773.0	788.0	-25780.0
14	17	38	11	408	185.0	-197642.0	759.0	-25611.0
14	17	38	11	408	186.0	-197631.0	737.0	-25719.0
14	17	38	11	409	187.0	-197691.0	714.0	-26239.0
14	17	38	11	410	188.0	-197293.0	708.0	-26531.0
14	17	38	11	410	194.0	-196517.0	502.0	-25207.0
14	17	38	11	411	195.0	-196212.0	476.0	-25881.0
14	17	38	11	411	196.0	-195614.0	440.0	-26286.0
14	17	38	11	412	197.0	-194645.0	392.0	-25367.0
14	17	38	11	422	198.0	-193481.0	365.0	-25291.0
14	17	38	11	423	199.0	-192195.0	333.0	-25265.0
14	17	38	11	424	200.0	-191083.0	288.0	-24786.0
14	17	38	11	424	201.0	-190082.0	251.0	-25016.0
14	17	38	11	446	202.0	-188479.0	209.0	-25207.0
14	17	38	11	447	203.0	-186526.0	184.0	-25252.0
14	17	38	11	447	204.0	-184665.0	144.0	-25645.0
14	17	38	11	448	205.0	-182951.0	113.0	-25762.0
14	17	38	11	448	206.0	-181592.0	61.0	-25493.0
14	17	38	11	449	207.0	-180639.0	34.0	-25824.0
14	17	38	11	450	208.0	-179786.0	-1.0	-26220.0
14	17	38	11	450	209.0	-179419.0	-33.0	-25883.0
14	17	38	11	451	210.0	-179207.0	-57.0	-25611.0
14	17	38	11	451	211.0	-179381.0	-92.0	-26628.0
14	17	38	11	452	212.0	-180181.0	-137.0	-26786.0
14	17	38	11	452	213.0	-180706.0	-143.0	-27408.0
14	17	38	11	453	214.0	-181803.0	-179.0	-26812.0
14	17	38	11	453	215.0	-183168.0	-224.0	-26764.0
14	17	38	11	454	216.0	-184476.0	-248.0	-26528.0
14	17	38	11	468	217.0	-185961.0	-269.0	-26235.0
14	17	38	11	469	218.0	-187139.0	-295.0	-26239.0
14	17	38	11	469	219.0	-187902.0	-334.0	-25533.0
14	17	38	11	470	220.0	-188549.0	-356.0	-24249.0
14	17	38	11	471	221.0	-189209.0	-381.0	-23983.0
14	17	38	11	471	222.0	-189834.0	-414.0	-25410.0
14	17	38	11	472	223.0	-190527.0	-445.0	-26172.0
14	17	38	11	472	224.0	-191137.0	-464.0	-26870.0
14	17	38	11	473	225.0	-191748.0	-478.0	-27502.0
14	17	38	11	492	226.0	-192500.0	-496.0	-27915.0
14	17	38	11	492	227.0	-193189.0	-506.0	-27017.0
14	17	38	11	493	228.0	-193475.0	-520.0	-26164.0
14	17	38	11	493	229.0	-193486.0	-544.0	-26436.0
14	17	38	11	494	230.0	-193953.0	-572.0	-26663.0
14	17	38	11	495	231.0	-194974.0	-589.0	-27411.0
14	17	38	11	495	232.0	-196002.0	-616.0	-27558.0
14	17	38	11	496	233.0	-197207.0	-634.0	-27377.0
14	17	38	11	496	234.0	-198681.0	-649.0	-27740.0
14	17	38	11	497	235.0	-200052.0	-670.0	-28734.0
14	17	38	11	497	236.0	-201065.0	-670.0	-28932.0
14	17	38	11	498	237.0	-201409.0	-674.0	-29059.0
14	17	38	11	498	238.0	-201613.0	-704.0	-29122.0
14	17	38	11	499	239.0	-202143.0	-740.0	-28739.0
14	17	38	11	500	240.0	-202313.0	-761.0	-28296.0
14	17	38	11	514	241.0	-202112.0	-751.0	-28401.0
14	17	38	11	515	242.0	-202216.0	-751.0	-27814.0
14	17	38	11	516	243.0	-202477.0	-760.0	-27351.0
14	17	38	11	516	244.0	-202443.0	-778.0	-27403.0
14	17	38	11	517	245.0	-202271.0	-786.0	-26849.0
14	17	38	11	517	246.0	-201478.0	-786.0	-25644.0
14	17	38	11	518	247.0	-200679.0	-819.0	-25117.0
14	17	38	11	519	248.0	-199762.0	-802.0	-25617.0
14	17	38	11	519	249.0	-199062.0	-817.0	-26031.0
14	17	38	11	520	250.0	-198610.0	-824.0	-24747.0
14	17	38	11	520	251.0	-198052.0	-821.0	-23494.0
14	17	38	11	521	252.0	-197478.0	-832.0	-22227.0
14	17	38	11	521	253.0	-196931.0	-869.0	-22120.0
14	17	38	11	522	254.0	-196380.0	-879.0	-22739.0
14	17	38	11	536	255.0	-195598.0	-876.0	-23544.0
14	17	38	11	537	0.0	-194726.0	-882.0	-23747.0
14	17	38	11	538	1.0	-193686.0	-895.0	-23352.0
14	17	38	11	538	2.0	-192441.0	-919.0	-23963.0
14	17	38	11	539	3.0	-191263.0	-922.0	-24302.0
14	17	38	11	539	4.0	-190514.0	-904.0	-24582.0
14	17	38	11	540	5.0	-189649.0	-921.0	-24851.0
14	17	38	11	560	6.0	-188507.0	-944.0	-24088.0
14	17	38	11	560	7.0	-187751.0	-952.0	-24146.0
14	17	38	11	561	8.0	-187149.0	-947.0	-25017.0
14	17	38	11	561	9.0	-186091.0	-966.0	-23695.0
14	17	38	11	562	10.0	-185057.0	-967.0	-23639.0
14	17	38	11	563	11.0	-184321.0	-994.0	-24318.0
14	17	38	11	563	12.0	-183790.0	-1010.0	-24571.0
14	17	38	11	564	13.0	-183642.0	-1020.0	-24115.0
14	17	38	11	564	14.0	-183949.0	-1040.0	-23851.0
14	17	38	11	565	15.0	-184556.0	-1049.0	-23301.0
14	17	38	11	565	16.0	-185274.0	-1060.0	-23567.0
14	17	38	11	566	17.0	-186005.0	-1078.0	-23911.0
14	17	38	11	567	18.0	-186961.0	-1091.0	-23864.0
14	17	38	11	567	19.0	-187835.0	-1103.0	-23586.0
14	17	38	11	568	20.0	-188556.0	-1119.0	-23333.0
14	17	38	11	568	21.0	-188919.0	-1141.0	-23199.0
14	17	38	11	583	22.0	-188912.0	-1161.0	-23270.0
14	17	38	11	583	23.0	-189032.0	-1170.0	-22919.0
14	17	38	11	584	24.0	-189168.0	-1184.0	-22556.0
14	17	38	11	584	25.0	-189637.0	-1225.0	-22851.0
14	17	38	11	585	26.0	-190175.0	-1254.0	-22937.0
14	17	38	11	585	27.0	-190794.0	-1272.0	-22852.0
14	17	38	11	586	28.0	-191289.0	-1291.0	-22632.0
14	17	38	11	606	29.0	-191717.0	-1312.0	-21982.0
14	17	38	11	607	30.0	-192502.0	-1311.0	-21243.0
14	17	38	11	607	31.0	-193141.0	-1347.0	-20471.0
14	17	38	11	608	32.0	-193252.0	-1385.0	-20085.0
14	17	38	11	609	33.0	-193204.0	-1409.0	-20273.0
14	17	38	11	609	34.0	-193578.0	-1419.0	-20419.0
14	17	38	11	610	35.0	-194048.0	-1444.0	-20302.0
14	17	38	11	610	36.0	-194296.0	-1487.0	-20559.0
14	17	38	11	611	37.0	-194221.0	-1513.0	-20667.0
14	17	38	11	611	38.0	-193974.0	-1549.0	-20901.0
14	17	38	11	612	39.0	-194071.0	-1591.0	-21936.0
14	17	38	11	613	40.0	-194215.0	-1616.0	-22140.0
14	17	38	11	613	41.0	-194239.0	-1634.0	-22221.0
14	17	38	11	614	42.0	-194741.0	-1685.0	-21390.0
14	17	38	11	614	43.0	-195258.0	-1708.0	-20941.0
14	17	38	11	629	44.0	-195351.0	-1746.0	-20232.0
14	17	38	11	630	45.0	-195668.0	-1762.0	-20322.0
14	17	38	11	630	46.0	-195964.0	-1792.0	-20312.0
14	17	38	11	631	47.0	-195634.0	-1832.0	-21814.0
14	17	38	11	631	48.0	-195478.0	-1844.0	-24111.0
14	17	38	11	632	49.0	-195067.0	-1869.0	-26547.0
14	17	38	11	632	50.0	-194594.0	-1897.0	-29055.0
14	17	38	11	633	51.0	-194921.0	-1950.0	-30893.0
14	17	38	11	653	52.0	-195458.0	-1989.0	-32614.0
14	17	38	11	654	53.0	-195837.0	-1999.0	-35672.0
14	17	38	11	655	54.0	-196189.0	-2032.0	-38650.0
14	17	38	11	655	55.0	-196791.0	-2080.0	-40037.0
14	17	38	11	656	56.0	-197582.0	-2102.0	-40679.0
14	17	38	11	656	57.0	-198507.0	-2124.0	-38307.0
14	17	38	11	657	58.0	-199161.0	-2179.0	-34530.0
14	17	38	11	657	59.0	-199676.0	-2232.0	-29053.0
14	17	38	11	658	60.0	-200204.0	-2259.0	-24367.0
14	17	38	11	659	61.0	-201019.0	-2292.0	-21376.0
14	17	38	11	659	62.0	-202042.0	-2337.0	-20086.0
14	17	38	11	660	63.0	-202856.0	-2368.0	-20172.0
14	17	38	11	660	64.0	-203208.0	-2385.0	-19421.0
14	17	38	11	661	65.0	-203212.0	-2437.0	-17399.0
14	17	38	11	661	66.0	-202655.0	-2476.0	-14989.0
14	17	38	11	677	67.0	-201916.0	-2504.0	-14914.0
14	17	38	11	678	68.0	-200679.0	-2542.0	-14815.0
14	17	38	11	678	69.0	-199237.0	-2584.0	-15555.0
14	17	38	11	679	70.0	-198344.0	-2628.0	-16387.0
14	17	38	11	700	71.0	-196419.0	-2668.0	-16222.0
14	17	38	11	701	72.0	-193382.0	-2701.0	-16684.0
14	17	38	11	702	73.0	-190306.0	-2746.0	-17646.0
14	17	38	11	702	74.0	-188254.0	-2792.0	-17702.0
14	17	38	11	703	75.0	-187662.0	-2804.0	-15971.0
14	17	38	11	724	76.0	-188372.0	-2854.0	-14599.0
14	17	38	11	725	77.0	-189953.0	-2889.0	-14396.0
14	17	38	11	725	78.0	-191872.0	-2919.0	-14429.0
14	17	38	11	726	79.0	-193799.0	-2968.0	-15610.0
14	17	38	11	727	80.0	-196435.0	-3004.0	-15878.0
14	17	38	11	728	81.0	-199714.0	-3029.0	-16976.0
14	17	38	11	729	82.0	-201497.0	-3069.0	-17840.0
14	17	38	11	729	83.0	-201342.0	-3111.0	-18341.0
14	17	38	11	730	84.0	-199745.0	-3152.0	-18500.0
14	17	38	11	730	85.0	-195860.0	-3202.0	-19309.0
14	17	38	11	731	86.0	-189410.0	-3259.0	-19610.0
14	17	38	11	732	87.0	-182903.0	-3298.0	-20154.0
14	17	38	11	732	88.0	-178544.0	-3323.0	-20103.0
14	17	38	11	733	89.0	-176767.0	-3368.0	-20584.0
14	17	38	11	733	90.0	-176138.0	-3396.0	-20593.0
14	17	38	11	734	91.0	-175352.0	-3436.0	-20619.0
14	17	38	11	734	95.0	-172782.0	-3593.0	-20475.0
14	17	38	11	735	96.0	-174468.0	-3645.0	-21516.0
14	17	38	11	735	97.0	-176776.0	-3681.0	-21511.0
14	17	38	11	736	98.0	-179338.0	-3719.0	-21521.0
14	17	38	11	737	99.0	-181094.0	-3771.0	-22094.0
14	17	38	11	737	100.0	-182551.0	-3807.0	-21783.0
14	17	38	11	738	101.0	-183546.0	-3846.0	-21587.0
14	17	38	11	738	102.0	-184152.0	-3896.0	-22354.0
14	17	38	11	739	103.0	-184584.0	-3942.0	-22706.0
14	17	38	11	747	104.0	-185031.0	-3973.0	-22330.0
14	17	38	11	748	105.0	-186055.0	-4006.0	-21480.0
14	17	38	11	749	106.0	-187667.0	-4056.0	-20835.0
14	17	38	11	749	107.0	-189663.0	-4087.0	-21475.0
14	17	38	11	750	108.0	-191319.0	-4129.0	-21820.0
14	17	38	11	750	109.0	-193244.0	-4172.0	-21285.0
14	17	38	11	751	110.0	-195637.0	-4202.0	-21821.0
14	17	38	11	751	111.0	-198327.0	-4252.0	-22200.0
14	17	38	11	771	112.0	-201287.0	-4287.0	-22956.0
14	17	38	11	771	113.0	-203914.0	-4314.0	-23037.0
14	17	38	11	772	114.0	-206612.0	-4357.0	-22821.0
14	17	38	11	772	115.0	-207996.0	-4394.0	-23192.0
14	17	38	11	773	116.0	-208805.0	-4431.0	-22932.0
14	17	38	11	774	117.0	-209892.0	-4462.0	-22626.0
14	17	38	11	774	118.0	-210459.0	-4516.0	-21883.0
14	17	38	11	775	119.0	-210112.0	-4560.0	-20636.0
14	17	38	11	775	120.0	-208937.0	-4591.0	-20101.0
14	17	38	11	776	121.0	-207602.0	-4617.0	-19223.0
14	17	38	11	777	122.0	-206004.0	-4659.0	-19871.0
14	17	38	11	777	123.0	-203974.0	-4691.0	-21344.0
14	17	38	11	778	124.0	-201898.0	-4729.0	-22622.0
14	17	38	11	778	125.0	-199190.0	-4755.0	-23647.0
14	17	38	11	779	126.0	-197168.0	-4789.0	-23662.0
14	17	38	11	793	127.0	-196109.0	-4834.0	-23752.0
14	17	38	11	794	128.0	-195158.0	-4870.0	-23708.0
14	17	38	11	795	129.0	-194465.0	-4917.0	-23267.0
14	17	38	11	795	130.0	-194647.0	-4974.0	-23235.0
14	17	38	11	796	131.0	-194786.0	-4986.0	-23109.0
14	17	38	11	796	132.0	-194432.0	-5032.0	-23574.0
14	17	38	11	817	133.0	-194747.0	-5060.0	-23521.0
14	17	38	11	818	134.0	-195987.0	-5091.0	-22812.0
14	17	38	11	819	135.0	-196544.0	-5131.0	-22448.0
14	17	38	11	819	136.0	-196931.0	-5175.0	-23439.0
14	17	38	11	820	137.0	-198163.0	-5200.0	-23568.0
14	17	38	11	821	138.0	-199204.0	-5237.0	-23036.0
14	17	38	11	821	139.0	-199186.0	-5282.0	-23326.0
14	17	38	11	822	140.0	-198916.0	-5319.0	-23402.0
14	17	38	11	822	141.0	-198347.0	-5346.0	-23686.0
14	17	38	11	823	142.0	-197510.0	-5383.0	-23659.0
14	17	38	11	823	143.0	-196343.0	-5411.0	-23149.0
14	17	38	11	824	144.0	-195251.0	-5450.0	-22731.0
14	17	38	11	825	145.0	-194116.0	-5476.0	-22692.0
14	17	38	11	825	146.0	-192559.0	-5514.0	-22780.0
14	17	38	11	826	147.0	-191496.0	-5561.0	-22253.0
14	17	38	11	826	148.0	-191156.0	-5586.0	-22715.0
14	17	38	11	842	149.0	-191327.0	-5596.0	-21739.0
14	17	38	11	843	150.0	-191494.0	-5642.0	-20759.0
14	17	38	11	843	151.0	-191981.0	-5676.0	-21822.0
14	17	38	11	844	152.0	-192402.0	-5693.0	-21457.0
14	17	38	11	845	153.0	-192975.0	-5729.0	-21172.0
14	17	38	11	867	154.0	-193922.0	-5749.0	-21456.0
