14	17	56	21	519	77.0	-254738.0	3096.0	49190.0
14	17	56	21	521	78.0	-253569.0	3204.0	48474.0
14	17	56	21	523	79.0	-251766.0	3356.0	49007.0
14	17	56	21	525	80.0	-250102.0	3434.0	48939.0
14	17	56	21	527	81.0	-249038.0	3513.0	48827.0
14	17	56	21	529	82.0	-249106.0	3629.0	48884.0
14	17	56	21	531	83.0	-247920.0	3712.0	49252.0
14	17	56	21	532	84.0	-246650.0	3815.0	49206.0
14	17	56	21	534	85.0	-246424.0	3906.0	49042.0
14	17	56	21	535	86.0	-247169.0	3995.0	49009.0
14	17	56	21	536	87.0	-248742.0	4091.0	49301.0
14	17	56	21	537	88.0	-248828.0	4121.0	49373.0
14	17	56	21	538	89.0	-248382.0	4146.0	49576.0
14	17	56	21	539	90.0	-248238.0	4233.0	49503.0
14	17	56	21	540	91.0	-248411.0	4325.0	49417.0
14	17	56	21	540	92.0	-248751.0	4404.0	48926.0
14	17	56	21	553	93.0	-248373.0	4426.0	48716.0
14	17	56	21	553	94.0	-248441.0	4451.0	48924.0
14	17	56	21	554	95.0	-248936.0	4474.0	48969.0
14	17	56	21	555	96.0	-249564.0	4509.0	48525.0
14	17	56	21	555	97.0	-250771.0	4597.0	49114.0
14	17	56	21	556	98.0	-251876.0	4649.0	48913.0
14	17	56	21	556	99.0	-252852.0	4645.0	49040.0
14	17	56	21	557	100.0	-253746.0	4688.0	49051.0
14	17	56	21	577	101.0	-254164.0	4696.0	49498.0
14	17	56	21	620	102.0	-254704.0	4743.0	49324.0
14	17	56	21	621	103.0	-254496.0	4748.0	50019.0
14	17	56	21	622	104.0	-253641.0	4728.0	50208.0
14	17	56	21	622	105.0	-252292.0	4765.0	49684.0
14	17	56	21	623	106.0	-250927.0	4779.0	49326.0
14	17	56	21	623	107.0	-249276.0	4756.0	49971.0
14	17	56	21	624	108.0	-247644.0	4749.0	49310.0
14	17	56	21	625	109.0	-246422.0	4748.0	49680.0
14	17	56	21	625	110.0	-245978.0	4783.0	49253.0
14	17	56	21	626	111.0	-245737.0	4763.0	49336.0
14	17	56	21	626	112.0	-244679.0	4741.0	49674.0
14	17	56	21	627	113.0	-243260.0	4703.0	49670.0
14	17	56	21	627	114.0	-241661.0	4683.0	49350.0
14	17	56	21	628	115.0	-239963.0	4683.0	50200.0
14	17	56	21	628	116.0	-238043.0	4655.0	49414.0
14	17	56	21	629	133.0	-193177.0	3975.0	49788.0
14	17	56	21	629	134.0	-190623.0	3930.0	50213.0
14	17	56	21	630	135.0	-188610.0	3853.0	50439.0
14	17	56	21	631	136.0	-186822.0	3772.0	49404.0
14	17	56	21	631	137.0	-184602.0	3727.0	49151.0
14	17	56	21	632	138.0	-182101.0	3691.0	49643.0
14	17	56	21	666	139.0	-179807.0	3638.0	49682.0
14	17	56	21	667	140.0	-178679.0	3583.0	50007.0
14	17	56	21	667	141.0	-178574.0	3546.0	49145.0
14	17	56	21	668	142.0	-177901.0	3494.0	48569.0
14	17	56	21	668	143.0	-176701.0	3428.0	49119.0
14	17	56	21	669	144.0	-176337.0	3370.0	49813.0
14	17	56	21	669	145.0	-176454.0	3316.0	49373.0
14	17	56	21	670	146.0	-177262.0	3259.0	49418.0
14	17	56	21	671	147.0	-178349.0	3202.0	48881.0
14	17	56	21	671	148.0	-180040.0	3120.0	48997.0
14	17	56	21	672	149.0	-182096.0	3063.0	48919.0
14	17	56	21	672	150.0	-184282.0	2997.0	48718.0
14	17	56	21	710	151.0	-186981.0	2939.0	48788.0
14	17	56	21	711	152.0	-189487.0	2891.0	48334.0
14	17	56	21	711	153.0	-190893.0	2856.0	48017.0
14	17	56	21	712	154.0	-191246.0	2804.0	47725.0
14	17	56	21	713	156.0	-192529.0	2654.0	48594.0
14	17	56	21	720	157.0	-193569.0	2628.0	48419.0
14	17	56	21	721	158.0	-194462.0	2593.0	48431.0
14	17	56	21	722	159.0	-194861.0	2521.0	47555.0
14	17	56	21	722	160.0	-195011.0	2464.0	47514.0
14	17	56	21	723	161.0	-194671.0	2398.0	48306.0
14	17	56	21	724	162.0	-193739.0	2355.0	48053.0
14	17	56	21	724	163.0	-192854.0	2326.0	47969.0
14	17	56	21	725	164.0	-191734.0	2247.0	47873.0
14	17	56	21	725	165.0	-189753.0	2207.0	47639.0
14	17	56	21	726	166.0	-187026.0	2162.0	47619.0
14	17	56	21	726	167.0	-184569.0	2099.0	47791.0
14	17	56	21	727	179.0	-161476.0	1613.0	46731.0
14	17	56	21	727	180.0	-161136.0	1557.0	46989.0
14	17	56	21	728	181.0	-161252.0	1534.0	47719.0
14	17	56	21	728	182.0	-161677.0	1499.0	47916.0
14	17	56	21	729	183.0	-162962.0	1453.0	48203.0
14	17	56	21	729	184.0	-164634.0	1438.0	47619.0
14	17	56	21	730	185.0	-166245.0	1392.0	47521.0
14	17	56	21	802	186.0	-167731.0	1370.0	48346.0
14	17	56	21	802	187.0	-169170.0	1359.0	48398.0
14	17	56	21	803	188.0	-170951.0	1301.0	48389.0
14	17	56	21	803	189.0	-173486.0	1273.0	48604.0
14	17	56	21	804	190.0	-176947.0	1244.0	48141.0
14	17	56	21	805	191.0	-180484.0	1195.0	47947.0
14	17	56	21	805	192.0	-183790.0	1163.0	48290.0
14	17	56	21	936	193.0	-186957.0	1121.0	49099.0
14	17	56	21	938	194.0	-189550.0	1084.0	48746.0
14	17	56	21	939	195.0	-191489.0	1061.0	49041.0
14	17	56	21	940	196.0	-191822.0	1014.0	48898.0
14	17	56	21	940	197.0	-190909.0	1017.0	48942.0
14	17	56	21	941	198.0	-188681.0	988.0	49008.0
14	17	56	21	941	199.0	-186199.0	968.0	48908.0
14	17	56	21	942	200.0	-183229.0	902.0	49051.0
14	17	56	21	981	201.0	-180266.0	866.0	49019.0
14	17	56	21	981	223.0	-152129.0	81.0	46724.0
14	17	56	21	982	224.0	-155561.0	28.0	47006.0
14	17	56	21	983	225.0	-157790.0	-28.0	46708.0
14	17	56	21	983	226.0	-160761.0	-59.0	46551.0
14	17	56	21	984	227.0	-164072.0	-84.0	47359.0
14	17	56	21	984	228.0	-167509.0	-127.0	47527.0
14	17	56	21	985	229.0	-169983.0	-134.0	46912.0
14	17	56	21	986	35.0	-237040.0	-3586.0	42535.0
14	17	56	21	986	36.0	-234869.0	-3604.0	42443.0
14	17	56	21	987	37.0	-232845.0	-3652.0	42286.0
14	17	56	21	987	38.0	-228795.0	-3729.0	42262.0
14	17	56	21	988	39.0	-224401.0	-3794.0	42829.0
14	17	56	21	988	40.0	-220196.0	-3835.0	42693.0
14	17	56	21	989	41.0	-215869.0	-3896.0	42843.0
14	17	56	21	990	42.0	-210956.0	-3972.0	42674.0
14	17	56	21	990	57.0	-193922.0	-4866.0	41431.0
14	17	56	21	991	58.0	-198174.0	-4939.0	41155.0
14	17	56	21	991	59.0	-203654.0	-5024.0	41142.0
14	17	56	22	72	60.0	-209513.0	-5085.0	41404.0
14	17	56	22	72	61.0	-214806.0	-5125.0	41168.0
14	17	56	22	73	62.0	-219081.0	-5171.0	40865.0
14	17	56	22	74	63.0	-222992.0	-5246.0	41322.0
14	17	56	22	75	64.0	-225861.0	-5283.0	41024.0
14	17	56	22	76	65.0	-228215.0	-5330.0	40334.0
14	17	56	22	76	66.0	-229421.0	-5391.0	40379.0
14	17	56	22	77	67.0	-229747.0	-5456.0	40442.0
14	17	56	22	77	68.0	-230030.0	-5520.0	40966.0
14	17	56	22	78	69.0	-230290.0	-5575.0	40823.0
14	17	56	22	79	70.0	-230994.0	-5650.0	40216.0
14	17	56	22	79	71.0	-231524.0	-5697.0	40203.0
14	17	56	22	80	72.0	-231039.0	-5761.0	39815.0
14	17	56	22	81	73.0	-231168.0	-5794.0	39294.0
14	17	56	22	81	74.0	-231533.0	-5856.0	39369.0
14	17	56	22	82	75.0	-231141.0	-5924.0	39490.0
14	17	56	22	82	102.0	-184296.0	-6989.0	39838.0
14	17	56	22	83	103.0	-185152.0	-6976.0	40156.0
14	17	56	22	84	104.0	-187247.0	-6942.0	39262.0
14	17	56	22	84	105.0	-191488.0	-6887.0	38957.0
14	17	56	22	85	106.0	-196119.0	-6839.0	39429.0
14	17	56	22	85	107.0	-199376.0	-6783.0	39765.0
14	17	56	22	115	108.0	-202994.0	-6726.0	39503.0
14	17	56	22	116	109.0	-206122.0	-6657.0	39591.0
14	17	56	22	117	110.0	-209054.0	-6547.0	38963.0
14	17	56	22	117	111.0	-211679.0	-6472.0	39253.0
14	17	56	22	118	112.0	-213962.0	-6395.0	39501.0
14	17	56	22	118	113.0	-215267.0	-6253.0	39611.0
14	17	56	22	119	114.0	-215436.0	-6121.0	39796.0
14	17	56	22	207	115.0	-215516.0	-6044.0	39438.0
14	17	56	22	208	116.0	-215673.0	-5938.0	39909.0
14	17	56	22	209	117.0	-215620.0	-5772.0	40233.0
14	17	56	22	210	118.0	-215858.0	-5611.0	39919.0
14	17	56	22	210	119.0	-216114.0	-5448.0	40221.0
14	17	56	22	211	120.0	-216027.0	-5318.0	40589.0
14	17	56	22	211	121.0	-215601.0	-5151.0	40353.0
14	17	56	22	212	122.0	-215134.0	-4963.0	40628.0
14	17	56	22	213	124.0	-212982.0	-4600.0	41011.0
14	17	56	22	213	125.0	-211351.0	-4386.0	40310.0
14	17	56	22	214	126.0	-209996.0	-4199.0	40985.0
14	17	56	22	214	127.0	-208643.0	-3988.0	41139.0
14	17	56	22	215	128.0	-206913.0	-3764.0	40990.0
14	17	56	22	215	129.0	-205020.0	-3539.0	41608.0
14	17	56	22	216	130.0	-203625.0	-3341.0	41796.0
14	17	56	22	217	131.0	-202474.0	-3117.0	41521.0
14	17	56	22	217	169.0	-214519.0	3570.0	41980.0
14	17	56	22	218	170.0	-219164.0	3618.0	42269.0
14	17	56	22	218	171.0	-224152.0	3735.0	42130.0
14	17	56	22	219	172.0	-228550.0	3839.0	41986.0
14	17	56	22	219	173.0	-232644.0	3889.0	42054.0
14	17	56	22	220	174.0	-236161.0	3984.0	42159.0
14	17	56	22	221	175.0	-237936.0	4084.0	41659.0
14	17	56	22	296	176.0	-237778.0	4135.0	41742.0
14	17	56	22	297	177.0	-238045.0	4192.0	42077.0
14	17	56	22	298	178.0	-238480.0	4233.0	41722.0
14	17	56	22	298	179.0	-237121.0	4291.0	41579.0
14	17	56	22	299	180.0	-233732.0	4330.0	41178.0
14	17	56	22	299	181.0	-231182.0	4383.0	41526.0
14	17	56	22	300	182.0	-228644.0	4457.0	41421.0
14	17	56	22	301	183.0	-225593.0	4483.0	41358.0
14	17	56	22	341	184.0	-221444.0	4511.0	41148.0
14	17	56	22	431	185.0	-219784.0	4555.0	41313.0
14	17	56	22	432	186.0	-219022.0	4578.0	41368.0
14	17	56	22	433	187.0	-218776.0	4554.0	41462.0
14	17	56	22	433	188.0	-218529.0	4588.0	41434.0
14	17	56	22	434	189.0	-218671.0	4626.0	41800.0
14	17	56	22	434	190.0	-218149.0	4656.0	41444.0
14	17	56	22	435	191.0	-218589.0	4624.0	40643.0
14	17	56	22	436	214.0	-208519.0	4034.0	40307.0
14	17	56	22	436	215.0	-206736.0	3999.0	40295.0
14	17	56	22	437	216.0	-204555.0	3947.0	40699.0
14	17	56	22	437	217.0	-203243.0	3891.0	40203.0
14	17	56	22	438	218.0	-202709.0	3848.0	40114.0
14	17	56	22	439	219.0	-201939.0	3794.0	40860.0
14	17	56	22	439	220.0	-201496.0	3739.0	40588.0
14	17	56	22	440	236.0	-227821.0	2593.0	40348.0
14	17	56	22	441	237.0	-227785.0	2508.0	40382.0
14	17	56	22	441	26.0	-211562.0	9.0	39683.0
14	17	56	22	442	27.0	-209981.0	-52.0	39398.0
14	17	56	22	442	28.0	-207607.0	-92.0	39399.0
14	17	56	22	443	29.0	-205426.0	-115.0	39313.0
14	17	56	22	444	30.0	-203109.0	-130.0	39410.0
14	17	56	22	444	31.0	-200635.0	-161.0	39444.0
14	17	56	22	522	32.0	-198112.0	-207.0	39093.0
14	17	56	22	523	33.0	-195613.0	-198.0	39583.0
14	17	56	22	566	34.0	-192312.0	-206.0	39102.0
14	17	56	22	567	35.0	-188358.0	-224.0	38491.0
14	17	56	22	568	36.0	-183712.0	-234.0	39208.0
14	17	56	22	568	37.0	-178871.0	-292.0	38977.0
14	17	56	22	569	38.0	-175171.0	-314.0	38499.0
14	17	56	22	570	39.0	-172900.0	-341.0	39133.0
14	17	56	22	571	40.0	-171528.0	-409.0	39283.0
14	17	56	22	572	41.0	-170859.0	-425.0	38684.0
14	17	56	22	572	42.0	-170584.0	-422.0	39088.0
14	17	56	22	574	43.0	-170751.0	-459.0	39451.0
14	17	56	22	575	44.0	-171646.0	-483.0	39016.0
14	17	56	22	575	45.0	-172701.0	-489.0	38648.0
14	17	56	22	576	46.0	-173764.0	-510.0	39110.0
14	17	56	22	577	48.0	-176157.0	-579.0	39286.0
14	17	56	22	577	70.0	-205306.0	-1165.0	39598.0
14	17	56	22	578	71.0	-204284.0	-1237.0	39006.0
14	17	56	22	578	93.0	-214517.0	-2078.0	49974.0
14	17	56	22	579	94.0	-216312.0	-2142.0	50120.0
14	17	56	22	580	95.0	-219377.0	-2191.0	49732.0
14	17	56	22	581	96.0	-222761.0	-2198.0	49636.0
14	17	56	22	581	97.0	-220134.0	-2247.0	49048.0
14	17	56	22	582	98.0	-213397.0	-2292.0	47461.0
14	17	56	22	611	99.0	-202942.0	-2344.0	45696.0
14	17	56	22	612	100.0	-192213.0	-2376.0	44404.0
14	17	56	22	612	101.0	-183353.0	-2422.0	43155.0
14	17	56	22	613	102.0	-175915.0	-2503.0	41010.0
14	17	56	22	613	103.0	-167411.0	-2501.0	39659.0
14	17	56	22	614	104.0	-156838.0	-2552.0	39014.0
14	17	56	22	614	105.0	-145799.0	-2619.0	37628.0
14	17	56	22	657	106.0	-137231.0	-2673.0	37613.0
14	17	56	22	657	107.0	-134186.0	-2721.0	37312.0
14	17	56	22	658	108.0	-136282.0	-2785.0	36729.0
14	17	56	22	659	109.0	-143559.0	-2811.0	36639.0
14	17	56	22	659	110.0	-154844.0	-2857.0	36469.0
14	17	56	22	660	111.0	-168387.0	-2897.0	36461.0
14	17	56	22	660	112.0	-181859.0	-2939.0	36008.0
14	17	56	22	661	113.0	-193893.0	-3007.0	36413.0
14	17	56	22	662	115.0	-212433.0	-3162.0	35632.0
14	17	56	22	662	116.0	-219390.0	-3202.0	35473.0
14	17	56	22	663	117.0	-224572.0	-3261.0	35639.0
14	17	56	22	663	118.0	-228310.0	-3323.0	35751.0
14	17	56	22	664	119.0	-230297.0	-3355.0	35874.0
14	17	56	22	665	120.0	-230487.0	-3441.0	36208.0
14	17	56	22	665	121.0	-230082.0	-3507.0	36105.0
14	17	56	22	666	122.0	-228885.0	-3548.0	35818.0
14	17	56	22	666	138.0	-154722.0	-4463.0	34996.0
14	17	56	22	667	139.0	-157605.0	-4506.0	34799.0
14	17	56	22	668	140.0	-161424.0	-4562.0	34913.0
14	17	56	22	668	141.0	-166260.0	-4639.0	35622.0
14	17	56	22	669	142.0	-171029.0	-4684.0	35766.0
14	17	56	22	669	143.0	-174779.0	-4741.0	35283.0
14	17	56	22	702	144.0	-177723.0	-4814.0	34701.0
14	17	56	22	713	145.0	-179595.0	-4871.0	35198.0
14	17	56	22	714	146.0	-180766.0	-4916.0	35405.0
14	17	56	22	714	147.0	-181741.0	-4983.0	35003.0
14	17	56	22	715	148.0	-182224.0	-5012.0	35079.0
14	17	56	22	716	149.0	-182627.0	-5087.0	35145.0
14	17	56	22	716	150.0	-183001.0	-5137.0	34356.0
14	17	56	22	717	151.0	-183606.0	-5197.0	34686.0
14	17	56	22	717	152.0	-184781.0	-5254.0	35013.0
14	17	56	22	718	153.0	-186068.0	-5349.0	34514.0
14	17	56	22	718	154.0	-187555.0	-5399.0	34283.0
14	17	56	22	719	155.0	-188724.0	-5480.0	34344.0
14	17	56	22	719	156.0	-189187.0	-5541.0	34396.0
14	17	56	22	720	157.0	-189291.0	-5599.0	34204.0
14	17	56	22	746	158.0	-190162.0	-5626.0	33823.0
14	17	56	22	746	160.0	-192024.0	-5790.0	33896.0
14	17	56	22	747	161.0	-192522.0	-5837.0	33721.0
14	17	56	22	748	162.0	-193941.0	-5892.0	34085.0
14	17	56	22	748	163.0	-195727.0	-5932.0	33877.0
14	17	56	22	749	164.0	-197474.0	-5997.0	34243.0
14	17	56	22	749	165.0	-199422.0	-6062.0	33659.0
14	17	56	22	750	166.0	-201142.0	-6079.0	33449.0
14	17	56	22	751	167.0	-202862.0	-6163.0	33609.0
14	17	56	22	751	168.0	-204477.0	-6254.0	33388.0
14	17	56	22	752	169.0	-205288.0	-6323.0	33328.0
14	17	56	22	753	170.0	-204241.0	-6378.0	33213.0
14	17	56	22	753	171.0	-202958.0	-6431.0	33039.0
14	17	56	22	754	172.0	-200786.0	-6491.0	32762.0
14	17	56	22	755	173.0	-197117.0	-6565.0	32039.0
14	17	56	22	755	174.0	-192449.0	-6607.0	32441.0
14	17	56	22	756	183.0	-159831.0	-7064.0	32025.0
14	17	56	22	757	184.0	-158710.0	-7104.0	32718.0
14	17	56	22	757	185.0	-158912.0	-7174.0	32501.0
14	17	56	22	758	186.0	-159779.0	-7203.0	31480.0
14	17	56	22	758	187.0	-161905.0	-7193.0	31688.0
14	17	56	22	759	188.0	-164634.0	-7221.0	32050.0
14	17	56	22	790	189.0	-167361.0	-7256.0	32269.0
14	17	56	22	791	190.0	-170069.0	-7284.0	31867.0
14	17	56	22	791	191.0	-172843.0	-7304.0	32581.0
14	17	56	22	792	192.0	-175347.0	-7298.0	32313.0
14	17	56	22	793	193.0	-177787.0	-7314.0	32214.0
14	17	56	22	793	194.0	-179332.0	-7301.0	32308.0
14	17	56	22	794	195.0	-180040.0	-7276.0	32629.0
14	17	56	22	794	196.0	-179794.0	-7261.0	31828.0
14	17	56	22	795	197.0	-178653.0	-7222.0	32003.0
14	17	56	22	796	198.0	-177347.0	-7168.0	32285.0
14	17	56	22	796	199.0	-175612.0	-7179.0	32297.0
14	17	56	22	797	200.0	-173439.0	-7110.0	32784.0
14	17	56	22	798	201.0	-170360.0	-7048.0	33148.0
14	17	56	22	798	202.0	-168722.0	-6982.0	33057.0
14	17	56	22	799	203.0	-167776.0	-6913.0	33079.0
14	17	56	22	799	205.0	-165502.0	-6692.0	33106.0
14	17	56	22	800	206.0	-165796.0	-6584.0	33612.0
14	17	56	22	801	207.0	-166341.0	-6480.0	33206.0
14	17	56	22	801	208.0	-167141.0	-6361.0	33131.0
14	17	56	22	802	209.0	-168044.0	-6190.0	33854.0
14	17	56	22	803	210.0	-168782.0	-6046.0	34016.0
14	17	56	22	835	211.0	-169926.0	-5920.0	33894.0
14	17	56	22	836	212.0	-172061.0	-5777.0	34106.0
14	17	56	22	880	213.0	-175076.0	-5624.0	34015.0
14	17	56	22	881	214.0	-177728.0	-5451.0	33609.0
14	17	56	22	882	215.0	-180492.0	-5269.0	32603.0
14	17	56	22	883	216.0	-182835.0	-5076.0	32861.0
14	17	56	22	883	217.0	-184449.0	-4885.0	33171.0
14	17	56	22	884	218.0	-185800.0	-4698.0	32788.0
14	17	56	22	884	219.0	-185869.0	-4495.0	32607.0
14	17	56	22	885	220.0	-186561.0	-4306.0	32347.0
14	17	56	22	886	221.0	-188795.0	-4081.0	32406.0
14	17	56	22	886	222.0	-190316.0	-3872.0	32409.0
14	17	56	22	887	223.0	-190012.0	-3683.0	32855.0
14	17	56	22	888	224.0	-191106.0	-3454.0	32378.0
14	17	56	22	888	225.0	-192111.0	-3232.0	32388.0
14	17	56	22	889	227.0	-191618.0	-2800.0	33303.0
14	17	56	22	890	228.0	-190028.0	-2590.0	32459.0
14	17	56	22	890	250.0	-199923.0	1548.0	32369.0
14	17	56	22	891	251.0	-195458.0	1654.0	32503.0
14	17	56	22	892	252.0	-191407.0	1809.0	32855.0
14	17	56	22	892	253.0	-187284.0	1949.0	32139.0
14	17	56	22	893	254.0	-182546.0	2062.0	32191.0
14	17	56	22	894	255.0	-177731.0	2184.0	32251.0
14	17	56	22	972	0.0	-173585.0	2294.0	32226.0
14	17	56	22	972	1.0	-168677.0	2429.0	32186.0
14	17	56	22	973	2.0	-163912.0	2554.0	32348.0
14	17	56	22	974	3.0	-160631.0	2648.0	31747.0
14	17	56	22	974	4.0	-159476.0	2759.0	32004.0
14	17	56	22	975	5.0	-160460.0	2848.0	31850.0
14	17	56	22	976	6.0	-162955.0	2919.0	31602.0
14	17	56	22	976	7.0	-166756.0	2970.0	31953.0
14	17	56	22	977	8.0	-170636.0	3057.0	31953.0
14	17	56	22	978	9.0	-174719.0	3148.0	31391.0
14	17	56	22	978	10.0	-178304.0	3216.0	31187.0
14	17	56	22	979	11.0	-180639.0	3311.0	31168.0
14	17	56	22	979	12.0	-183094.0	3347.0	32056.0
14	17	56	22	980	13.0	-184732.0	3392.0	32261.0
14	17	56	22	981	14.0	-185768.0	3437.0	31860.0
14	17	56	22	981	38.0	-207493.0	3680.0	31340.0
14	17	56	22	982	39.0	-206316.0	3651.0	31108.0
14	17	56	22	982	40.0	-205604.0	3609.0	31016.0
14	17	56	22	983	41.0	-204565.0	3604.0	31668.0
14	17	56	22	984	42.0	-203827.0	3564.0	31122.0
14	17	56	22	984	43.0	-203414.0	3534.0	30659.0
14	17	56	22	985	44.0	-202837.0	3521.0	31489.0
14	17	56	23	16	45.0	-202169.0	3484.0	31486.0
14	17	56	23	16	46.0	-201811.0	3404.0	31455.0
14	17	56	23	17	47.0	-201487.0	3330.0	31492.0
14	17	56	23	18	48.0	-201569.0	3319.0	31933.0
14	17	56	23	18	49.0	-201316.0	3278.0	32208.0
14	17	56	23	19	50.0	-201049.0	3232.0	31794.0
14	17	56	23	20	51.0	-201017.0	3165.0	32098.0
14	17	56	23	20	52.0	-200324.0	3091.0	32400.0
14	17	56	23	61	53.0	-199167.0	3029.0	32803.0
14	17	56	23	62	54.0	-197619.0	2996.0	33587.0
14	17	56	23	63	55.0	-196322.0	2902.0	33370.0
14	17	56	23	63	56.0	-195421.0	2876.0	33171.0
14	17	56	23	64	57.0	-195086.0	2828.0	33388.0
14	17	56	23	65	58.0	-195561.0	2758.0	33002.0
14	17	56	23	65	59.0	-195806.0	2680.0	32586.0
14	17	56	23	66	61.0	-196972.0	2551.0	32896.0
14	17	56	23	67	62.0	-198002.0	2469.0	32439.0
14	17	56	23	67	63.0	-198852.0	2401.0	32669.0
14	17	56	23	68	64.0	-199278.0	2362.0	32938.0
14	17	56	23	69	65.0	-200108.0	2288.0	32607.0
14	17	56	23	69	66.0	-201389.0	2204.0	32468.0
14	17	56	23	70	67.0	-202788.0	2169.0	32351.0
14	17	56	23	70	68.0	-204141.0	2094.0	32010.0
14	17	56	23	71	83.0	-218441.0	1018.0	33509.0
14	17	56	23	72	84.0	-217096.0	949.0	33491.0
14	17	56	23	72	85.0	-215711.0	880.0	32944.0
14	17	56	23	73	86.0	-213984.0	804.0	33259.0
14	17	56	23	73	87.0	-211698.0	768.0	32964.0
14	17	56	23	74	88.0	-209377.0	710.0	32818.0
14	17	56	23	75	89.0	-207002.0	643.0	32837.0
14	17	56	23	105	90.0	-204504.0	576.0	32971.0
14	17	56	23	106	91.0	-202492.0	552.0	32573.0
14	17	56	23	107	92.0	-200720.0	496.0	32593.0
14	17	56	23	108	93.0	-199610.0	411.0	32910.0
14	17	56	23	108	94.0	-199533.0	356.0	32950.0
14	17	56	23	109	95.0	-200262.0	310.0	32608.0
14	17	56	23	110	96.0	-200987.0	256.0	32971.0
14	17	56	23	110	97.0	-201875.0	220.0	32508.0
14	17	56	23	111	98.0	-203892.0	181.0	32142.0
14	17	56	23	112	99.0	-206031.0	133.0	32253.0
14	17	56	23	112	100.0	-207776.0	71.0	31566.0
14	17	56	23	113	101.0	-209017.0	37.0	31441.0
14	17	56	23	114	102.0	-210031.0	-28.0	31464.0
14	17	56	23	114	103.0	-211087.0	-41.0	31496.0
14	17	56	23	115	104.0	-211824.0	-67.0	31300.0
14	17	56	23	115	106.0	-212546.0	-156.0	30601.0
14	17	56	23	116	107.0	-212001.0	-201.0	30544.0
14	17	56	23	117	108.0	-210984.0	-218.0	30928.0
14	17	56	23	117	109.0	-209156.0	-284.0	30746.0
14	17	56	23	118	110.0	-207087.0	-317.0	31338.0
14	17	56	23	118	111.0	-205351.0	-335.0	31783.0
14	17	56	23	197	112.0	-204065.0	-377.0	31606.0
14	17	56	23	198	113.0	-203411.0	-412.0	31009.0
14	17	56	23	199	114.0	-203064.0	-421.0	31929.0
14	17	56	23	199	115.0	-202489.0	-448.0	32413.0
14	17	56	23	200	116.0	-201712.0	-482.0	31601.0
14	17	56	23	201	117.0	-201777.0	-496.0	31829.0
14	17	56	23	201	118.0	-201724.0	-552.0	32186.0
14	17	56	23	202	119.0	-201661.0	-587.0	32534.0
14	17	56	23	203	120.0	-201870.0	-594.0	31926.0
14	17	56	23	203	121.0	-202779.0	-616.0	31767.0
14	17	56	23	204	122.0	-204506.0	-649.0	31577.0
14	17	56	23	205	123.0	-207027.0	-682.0	32504.0
14	17	56	23	205	124.0	-209682.0	-700.0	31753.0
14	17	56	23	206	125.0	-212713.0	-741.0	31491.0
14	17	56	23	206	126.0	-215437.0	-759.0	31906.0
14	17	56	23	207	128.0	-220768.0	-824.0	31918.0
14	17	56	23	241	151.0	-188064.0	-1449.0	30437.0
14	17	56	23	242	152.0	-186081.0	-1472.0	30046.0
14	17	56	23	243	153.0	-184405.0	-1494.0	30439.0
14	17	56	23	243	154.0	-182793.0	-1532.0	30346.0
14	17	56	23	244	155.0	-181850.0	-1553.0	30763.0
14	17	56	23	245	156.0	-181684.0	-1586.0	29843.0
14	17	56	23	245	157.0	-182404.0	-1603.0	30222.0
14	17	56	23	286	158.0	-183339.0	-1659.0	30098.0
14	17	56	23	287	159.0	-184579.0	-1714.0	29817.0
14	17	56	23	287	160.0	-186168.0	-1745.0	30153.0
14	17	56	23	288	161.0	-188011.0	-1757.0	30561.0
14	17	56	23	288	162.0	-189436.0	-1802.0	31271.0
14	17	56	23	289	163.0	-190227.0	-1836.0	31139.0
14	17	56	23	289	164.0	-191016.0	-1846.0	30836.0
14	17	56	23	331	165.0	-191756.0	-1892.0	30412.0
14	17	56	23	332	166.0	-192084.0	-1929.0	29993.0
14	17	56	23	332	173.0	-187516.0	-2218.0	17100.0
14	17	56	23	333	174.0	-187519.0	-2244.0	17406.0
14	17	56	23	333	175.0	-187696.0	-2284.0	19313.0
14	17	56	23	334	176.0	-188166.0	-2356.0	22724.0
14	17	56	23	334	177.0	-189345.0	-2407.0	22960.0
14	17	56	23	335	178.0	-190985.0	-2449.0	23545.0
14	17	56	23	376	179.0	-193432.0	-2458.0	25771.0
14	17	56	23	377	196.0	-158109.0	-3326.0	30073.0
14	17	56	23	378	197.0	-163825.0	-3378.0	28694.0
14	17	56	23	379	198.0	-171488.0	-3444.0	27085.0
14	17	56	23	380	199.0	-180663.0	-3486.0	26567.0
14	17	56	23	380	200.0	-190840.0	-3524.0	26200.0
14	17	56	23	381	201.0	-200569.0	-3572.0	25669.0
14	17	56	23	381	202.0	-209847.0	-3642.0	25659.0
14	17	56	23	421	218.0	-200454.0	-4551.0	23368.0
14	17	56	23	421	219.0	-201381.0	-4592.0	23074.0
14	17	56	23	422	220.0	-201178.0	-4646.0	23172.0
14	17	56	23	422	221.0	-201145.0	-4707.0	23129.0
14	17	56	23	423	222.0	-200979.0	-4769.0	22896.0
14	17	56	23	424	223.0	-200793.0	-4811.0	22349.0
14	17	56	23	424	224.0	-201309.0	-4836.0	22349.0
14	17	56	23	425	225.0	-202116.0	-4889.0	22874.0
14	17	56	23	425	241.0	-190795.0	-5822.0	21083.0
14	17	56	23	426	242.0	-191256.0	-5880.0	20898.0
14	17	56	23	427	243.0	-191561.0	-5956.0	20696.0
14	17	56	23	427	244.0	-191907.0	-6027.0	20701.0
14	17	56	23	428	245.0	-192664.0	-6093.0	20741.0
14	17	56	23	428	246.0	-193481.0	-6133.0	20741.0
14	17	56	23	429	247.0	-194566.0	-6173.0	20241.0
14	17	56	23	429	248.0	-195954.0	-6234.0	19581.0
14	17	56	23	465	7.0	-202637.0	-7117.0	18826.0
14	17	56	23	465	8.0	-198930.0	-7188.0	18296.0
14	17	56	23	466	9.0	-194744.0	-7248.0	18548.0
14	17	56	23	467	10.0	-190366.0	-7293.0	18728.0
14	17	56	23	467	11.0	-186179.0	-7345.0	17814.0
14	17	56	23	468	12.0	-182364.0	-7403.0	17942.0
14	17	56	23	468	13.0	-178987.0	-7439.0	17706.0
14	17	56	23	511	14.0	-176316.0	-7519.0	17929.0
14	17	56	23	511	15.0	-173731.0	-7569.0	17268.0
14	17	56	23	512	16.0	-171658.0	-7611.0	17674.0
14	17	56	23	513	17.0	-171065.0	-7655.0	18916.0
14	17	56	23	513	18.0	-172049.0	-7690.0	18470.0
14	17	56	23	514	19.0	-173801.0	-7772.0	17958.0
14	17	56	23	514	20.0	-175178.0	-7791.0	17383.0
14	17	56	23	556	21.0	-176434.0	-7814.0	17620.0
14	17	56	23	557	22.0	-178327.0	-7867.0	17701.0
14	17	56	23	557	30.0	-206550.0	-7916.0	17269.0
14	17	56	23	558	31.0	-210936.0	-7895.0	17334.0
14	17	56	23	558	32.0	-214673.0	-7864.0	17090.0
14	17	56	23	559	33.0	-218322.0	-7825.0	17734.0
14	17	56	23	560	34.0	-221500.0	-7776.0	17455.0
14	17	56	23	647	35.0	-223174.0	-7724.0	17759.0
14	17	56	23	647	36.0	-223538.0	-7666.0	17653.0
14	17	56	23	648	52.0	-178598.0	-5233.0	18894.0
14	17	56	23	649	53.0	-177494.0	-5024.0	18946.0
14	17	56	23	649	54.0	-177126.0	-4817.0	18911.0
14	17	56	23	650	55.0	-176911.0	-4591.0	19101.0
14	17	56	23	650	56.0	-176412.0	-4346.0	19479.0
14	17	56	23	691	57.0	-175957.0	-4105.0	19204.0
14	17	56	23	691	58.0	-175667.0	-3873.0	18838.0
14	17	56	23	692	75.0	-201649.0	117.0	19876.0
14	17	56	23	692	76.0	-202059.0	313.0	19942.0
14	17	56	23	693	77.0	-202058.0	533.0	20079.0
14	17	56	23	694	78.0	-201469.0	754.0	20636.0
14	17	56	23	695	79.0	-197351.0	952.0	20394.0
14	17	56	23	696	80.0	-190349.0	1140.0	20236.0
14	17	56	23	735	81.0	-182777.0	1337.0	20256.0
14	17	56	23	736	119.0	-173620.0	5136.0	20051.0
14	17	56	23	737	120.0	-174106.0	5164.0	20184.0
14	17	56	23	737	121.0	-175001.0	5203.0	19573.0
14	17	56	23	738	122.0	-176257.0	5209.0	19644.0
14	17	56	23	738	123.0	-177834.0	5241.0	20484.0
14	17	56	23	739	124.0	-180099.0	5264.0	20033.0
14	17	56	23	740	125.0	-182938.0	5270.0	20606.0
14	17	56	23	780	142.0	-216230.0	5053.0	19669.0
14	17	56	23	781	143.0	-217537.0	5008.0	20290.0
14	17	56	23	782	144.0	-218628.0	4969.0	19599.0
14	17	56	23	782	145.0	-219572.0	4932.0	19796.0
14	17	56	23	783	146.0	-220506.0	4881.0	20025.0
14	17	56	23	784	147.0	-221124.0	4809.0	19586.0
14	17	56	23	784	148.0	-221725.0	4757.0	19651.0
14	17	56	23	785	149.0	-221896.0	4739.0	19856.0
14	17	56	23	785	164.0	-190572.0	3828.0	19809.0
14	17	56	23	786	165.0	-189316.0	3781.0	19187.0
14	17	56	23	787	166.0	-188091.0	3735.0	19207.0
14	17	56	23	788	167.0	-187020.0	3658.0	19596.0
14	17	56	23	788	168.0	-186073.0	3601.0	19609.0
14	17	56	23	789	169.0	-185391.0	3537.0	18973.0
14	17	56	23	790	170.0	-184991.0	3429.0	19283.0
14	17	56	23	791	186.0	-194129.0	2336.0	18737.0
14	17	56	23	792	187.0	-195683.0	2278.0	19027.0
14	17	56	23	792	188.0	-197154.0	2186.0	18536.0
14	17	56	23	793	189.0	-197874.0	2116.0	17814.0
14	17	56	23	794	190.0	-198189.0	2065.0	18791.0
14	17	56	23	795	191.0	-198369.0	2005.0	19179.0
14	17	56	23	795	192.0	-198404.0	1944.0	18395.0
14	17	56	23	826	193.0	-197571.0	1896.0	18981.0
14	17	56	23	871	194.0	-195739.0	1831.0	19190.0
14	17	56	23	872	195.0	-193439.0	1806.0	19475.0
14	17	56	23	872	196.0	-190989.0	1715.0	19088.0
14	17	56	23	873	197.0	-188960.0	1641.0	18574.0
14	17	56	23	873	198.0	-187635.0	1619.0	18827.0
14	17	56	23	874	199.0	-186732.0	1577.0	18682.0
14	17	56	23	875	200.0	-186068.0	1536.0	18716.0
14	17	56	23	875	201.0	-185421.0	1461.0	18524.0
14	17	56	23	876	202.0	-184807.0	1398.0	18650.0
14	17	56	23	877	203.0	-184462.0	1367.0	18558.0
14	17	56	23	877	204.0	-185124.0	1338.0	18260.0
14	17	56	23	878	205.0	-186199.0	1261.0	18460.0
14	17	56	23	878	206.0	-187891.0	1224.0	18564.0
14	17	56	23	879	207.0	-190255.0	1199.0	18489.0
14	17	56	23	880	209.0	-195164.0	1073.0	17636.0
14	17	56	23	880	210.0	-197760.0	1056.0	17661.0
14	17	56	23	881	232.0	-214632.0	296.0	20854.0
14	17	56	23	881	233.0	-214138.0	279.0	20325.0
14	17	56	23	882	234.0	-213620.0	253.0	20334.0
14	17	56	23	883	235.0	-212421.0	231.0	20649.0
14	17	56	23	883	236.0	-210629.0	188.0	21121.0
14	17	56	23	884	237.0	-208274.0	147.0	20868.0
14	17	56	23	915	238.0	-205530.0	138.0	20926.0
14	17	56	23	937	239.0	-202249.0	118.0	20961.0
14	17	56	23	938	240.0	-198910.0	71.0	21006.0
14	17	56	23	938	241.0	-196239.0	37.0	21026.0
14	17	56	23	939	242.0	-194107.0	53.0	21099.0
14	17	56	23	939	243.0	-192820.0	15.0	20350.0
14	17	56	23	940	244.0	-192396.0	-22.0	20809.0
14	17	56	23	961	245.0	-192164.0	-64.0	21113.0
14	17	56	23	962	246.0	-192295.0	-84.0	21471.0
14	17	56	23	963	247.0	-192609.0	-110.0	20913.0
14	17	56	23	963	248.0	-192466.0	-158.0	20850.0
14	17	56	23	964	249.0	-192327.0	-196.0	21148.0
14	17	56	23	965	250.0	-192336.0	-248.0	21471.0
14	17	56	23	965	251.0	-192459.0	-286.0	20988.0
14	17	56	23	966	252.0	-192519.0	-288.0	21136.0
14	17	56	23	966	254.0	-192981.0	-371.0	21731.0
14	17	56	23	967	255.0	-194339.0	-416.0	21654.0
14	17	56	23	968	0.0	-195915.0	-452.0	21253.0
14	17	56	23	968	1.0	-197499.0	-498.0	21319.0
14	17	56	23	969	2.0	-199057.0	-510.0	21903.0
14	17	56	23	969	3.0	-199954.0	-539.0	21010.0
14	17	56	23	970	4.0	-200491.0	-616.0	21041.0
14	17	56	23	970	5.0	-200616.0	-622.0	21231.0
14	17	56	23	971	20.0	-182066.0	-1331.0	20077.0
14	17	56	23	972	21.0	-179467.0	-1380.0	17796.0
14	17	56	23	972	22.0	-177366.0	-1434.0	15215.0
14	17	56	23	973	23.0	-175766.0	-1492.0	12997.0
14	17	56	23	973	24.0	-174367.0	-1530.0	10698.0
14	17	56	23	974	25.0	-173462.0	-1578.0	10733.0
14	17	56	23	975	26.0	-173522.0	-1637.0	10924.0
14	17	56	24	6	27.0	-173731.0	-1685.0	12838.0
14	17	56	24	7	28.0	-174738.0	-1734.0	15843.0
14	17	56	24	8	29.0	-177094.0	-1787.0	16986.0
14	17	56	24	8	30.0	-180636.0	-1841.0	17416.0
14	17	56	24	9	31.0	-184701.0	-1889.0	18871.0
14	17	56	24	9	32.0	-189364.0	-1947.0	21043.0
14	17	56	24	10	33.0	-194302.0	-2028.0	23966.0
14	17	56	24	11	34.0	-198997.0	-2072.0	27605.0
14	17	56	24	11	35.0	-203064.0	-2129.0	31126.0
14	17	56	24	12	36.0	-206677.0	-2199.0	33151.0
14	17	56	24	13	37.0	-209495.0	-2231.0	34816.0
14	17	56	24	13	38.0	-211654.0	-2274.0	35796.0
14	17	56	24	14	39.0	-212761.0	-2316.0	35943.0
14	17	56	24	15	40.0	-210519.0	-2377.0	36511.0
14	17	56	24	15	41.0	-201672.0	-2462.0	36276.0
14	17	56	24	16	43.0	-171014.0	-2577.0	33699.0
14	17	56	24	17	44.0	-157169.0	-2654.0	32139.0
14	17	56	24	17	45.0	-147442.0	-2707.0	29562.0
14	17	56	24	18	46.0	-141552.0	-2747.0	27555.0
14	17	56	24	18	47.0	-139795.0	-2818.0	25995.0
14	17	56	24	19	48.0	-142642.0	-2875.0	25122.0
14	17	56	24	50	49.0	-149599.0	-2939.0	24054.0
14	17	56	24	51	50.0	-159079.0	-3016.0	23558.0
14	17	56	24	52	51.0	-170097.0	-3050.0	22335.0
14	17	56	24	52	52.0	-182067.0	-3106.0	21939.0
14	17	56	24	53	53.0	-193956.0	-3171.0	21901.0
14	17	56	24	54	54.0	-203579.0	-3236.0	21787.0
14	17	56	24	54	55.0	-209209.0	-3293.0	20863.0
14	17	56	24	55	56.0	-212311.0	-3362.0	20556.0
14	17	56	24	56	57.0	-213936.0	-3398.0	20851.0
14	17	56	24	56	58.0	-214889.0	-3474.0	20468.0
14	17	56	24	57	59.0	-214287.0	-3526.0	20498.0
14	17	56	24	57	60.0	-212952.0	-3606.0	20730.0
14	17	56	24	96	61.0	-210926.0	-3672.0	20641.0
14	17	56	24	97	62.0	-207065.0	-3752.0	20151.0
14	17	56	24	98	63.0	-200496.0	-3831.0	19928.0
14	17	56	24	98	65.0	-188486.0	-3926.0	20111.0
14	17	56	24	99	66.0	-188179.0	-3989.0	19956.0
14	17	56	24	100	67.0	-190921.0	-4067.0	20338.0
14	17	56	24	100	68.0	-194033.0	-4105.0	20579.0
14	17	56	24	101	69.0	-196805.0	-4179.0	20826.0
14	17	56	24	101	70.0	-199206.0	-4233.0	20696.0
14	17	56	24	102	71.0	-201424.0	-4304.0	20570.0
14	17	56	24	103	72.0	-202232.0	-4376.0	20354.0
14	17	56	24	103	73.0	-201751.0	-4420.0	19544.0
14	17	56	24	104	74.0	-199877.0	-4486.0	19824.0
14	17	56	24	104	75.0	-196872.0	-4522.0	19689.0
14	17	56	24	105	76.0	-193496.0	-4612.0	19818.0
14	17	56	24	106	77.0	-190584.0	-4699.0	19625.0
14	17	56	24	106	88.0	-173572.0	-5349.0	19440.0
14	17	56	24	107	89.0	-172327.0	-5405.0	19369.0
14	17	56	24	107	90.0	-172119.0	-5492.0	18978.0
14	17	56	24	108	91.0	-172434.0	-5544.0	19056.0
14	17	56	24	109	92.0	-173032.0	-5589.0	19448.0
14	17	56	24	109	93.0	-174552.0	-5666.0	19183.0
14	17	56	24	187	94.0	-177109.0	-5729.0	18869.0
14	17	56	24	187	95.0	-180434.0	-5770.0	18578.0
14	17	56	24	188	96.0	-185077.0	-5879.0	18530.0
14	17	56	24	189	97.0	-190181.0	-5908.0	18377.0
14	17	56	24	189	98.0	-195024.0	-5957.0	18844.0
14	17	56	24	190	99.0	-199219.0	-6025.0	18081.0
14	17	56	24	191	100.0	-203081.0	-6049.0	18186.0
14	17	56	24	191	101.0	-206909.0	-6121.0	18543.0
14	17	56	24	192	102.0	-210796.0	-6193.0	18135.0
14	17	56	24	193	103.0	-214359.0	-6246.0	17518.0
14	17	56	24	193	104.0	-217558.0	-6265.0	17934.0
14	17	56	24	194	105.0	-220596.0	-6336.0	18130.0
14	17	56	24	195	106.0	-223246.0	-6424.0	17316.0
14	17	56	24	196	107.0	-225775.0	-6513.0	17469.0
14	17	56	24	197	108.0	-227262.0	-6547.0	17433.0
14	17	56	24	198	110.0	-226069.0	-6640.0	17304.0
14	17	56	24	198	133.0	-175725.0	-7744.0	15145.0
14	17	56	24	199	134.0	-174338.0	-7735.0	15111.0
14	17	56	24	200	135.0	-173661.0	-7754.0	14973.0
14	17	56	24	200	136.0	-173517.0	-7734.0	15334.0
14	17	56	24	201	137.0	-173532.0	-7719.0	15249.0
14	17	56	24	201	138.0	-173871.0	-7679.0	15179.0
14	17	56	24	231	139.0	-174405.0	-7640.0	15501.0
14	17	56	24	232	140.0	-175042.0	-7605.0	14928.0
14	17	56	24	232	141.0	-176084.0	-7540.0	15111.0
14	17	56	24	233	142.0	-177725.0	-7469.0	14909.0
14	17	56	24	234	143.0	-179694.0	-7387.0	15074.0
14	17	56	24	235	144.0	-182893.0	-7321.0	15364.0
14	17	56	24	235	145.0	-187331.0	-7216.0	15332.0
14	17	56	24	236	146.0	-192487.0	-7099.0	15718.0
14	17	56	24	237	147.0	-198214.0	-6976.0	15493.0
14	17	56	24	237	148.0	-204249.0	-6835.0	15213.0
14	17	56	24	238	149.0	-209582.0	-6699.0	15596.0
14	17	56	24	238	150.0	-213610.0	-6565.0	15359.0
14	17	56	24	239	151.0	-216726.0	-6405.0	14971.0
14	17	56	24	240	152.0	-219104.0	-6246.0	14849.0
14	17	56	24	240	153.0	-220566.0	-6073.0	15113.0
14	17	56	24	241	155.0	-220806.0	-5685.0	15878.0
14	17	56	24	242	156.0	-219943.0	-5499.0	15941.0
14	17	56	24	242	157.0	-218434.0	-5312.0	15698.0
14	17	56	24	243	158.0	-216221.0	-5102.0	15627.0
14	17	56	24	243	159.0	-213559.0	-4863.0	15858.0
14	17	56	24	244	160.0	-210757.0	-4646.0	16791.0
14	17	56	24	276	161.0	-208184.0	-4424.0	16389.0
14	17	56	24	277	162.0	-205984.0	-4195.0	16436.0
14	17	56	24	278	163.0	-204143.0	-3987.0	16173.0
14	17	56	24	278	164.0	-202347.0	-3741.0	15738.0
14	17	56	24	279	165.0	-200245.0	-3476.0	15986.0
14	17	56	24	280	166.0	-197966.0	-3216.0	16226.0
14	17	56	24	281	167.0	-195703.0	-2983.0	16746.0
14	17	56	24	281	168.0	-192757.0	-2764.0	16419.0
14	17	56	24	282	169.0	-189696.0	-2517.0	16716.0
14	17	56	24	282	170.0	-186884.0	-2290.0	16511.0
14	17	56	24	283	171.0	-184282.0	-2044.0	16996.0
14	17	56	24	284	172.0	-182256.0	-1790.0	16903.0
14	17	56	24	285	173.0	-181062.0	-1581.0	16378.0
14	17	56	24	325	174.0	-180293.0	-1336.0	16730.0
14	17	56	24	325	175.0	-179364.0	-1063.0	16877.0
14	17	56	24	326	177.0	-179122.0	-613.0	16678.0
14	17	56	24	327	178.0	-179696.0	-386.0	17359.0
14	17	56	24	328	179.0	-181349.0	-152.0	17189.0
14	17	56	24	328	180.0	-183777.0	72.0	17103.0
14	17	56	24	329	181.0	-186396.0	298.0	16611.0
14	17	56	24	330	182.0	-189267.0	509.0	16660.0
14	17	56	24	330	183.0	-192106.0	709.0	16918.0
14	17	56	24	331	184.0	-194446.0	909.0	17374.0
14	17	56	24	332	185.0	-195704.0	1140.0	17847.0
14	17	56	24	333	186.0	-195873.0	1335.0	17081.0
14	17	56	24	334	187.0	-193788.0	1512.0	17474.0
14	17	56	24	335	188.0	-188195.0	1711.0	17528.0
14	17	56	24	335	189.0	-181927.0	1878.0	17373.0
14	17	56	24	336	190.0	-174841.0	2044.0	17310.0
14	17	56	24	336	200.0	-207901.0	3523.0	17598.0
14	17	56	24	337	201.0	-208052.0	3644.0	17213.0
14	17	56	24	337	202.0	-208211.0	3756.0	16833.0
14	17	56	24	338	203.0	-208545.0	3863.0	17140.0
14	17	56	24	339	204.0	-208196.0	4003.0	16775.0
14	17	56	24	339	205.0	-206666.0	4093.0	16411.0
14	17	56	24	365	206.0	-203786.0	4189.0	16224.0
14	17	56	24	366	207.0	-200253.0	4264.0	16955.0
14	17	56	24	367	208.0	-197054.0	4352.0	16584.0
14	17	56	24	368	209.0	-194254.0	4416.0	16694.0
14	17	56	24	368	210.0	-192081.0	4489.0	16504.0
14	17	56	24	369	211.0	-190291.0	4592.0	16475.0
14	17	56	24	370	212.0	-189472.0	4672.0	16782.0
14	17	56	24	370	213.0	-190081.0	4746.0	16524.0
14	17	56	24	413	214.0	-192051.0	4818.0	16444.0
14	17	56	24	414	215.0	-194401.0	4879.0	15925.0
14	17	56	24	415	216.0	-196471.0	4938.0	16311.0
14	17	56	24	416	217.0	-198691.0	5010.0	16589.0
14	17	56	24	416	218.0	-201299.0	5051.0	16531.0
14	17	56	24	417	219.0	-204197.0	5125.0	16728.0
14	17	56	24	418	220.0	-206501.0	5137.0	16696.0
14	17	56	24	418	222.0	-211076.0	5178.0	15791.0
14	17	56	24	419	223.0	-212844.0	5223.0	16156.0
14	17	56	24	420	224.0	-214261.0	5269.0	16303.0
14	17	56	24	420	225.0	-215624.0	5296.0	16319.0
14	17	56	24	421	226.0	-216972.0	5316.0	16333.0
14	17	56	24	421	227.0	-218373.0	5348.0	16800.0
14	17	56	24	422	228.0	-219749.0	5338.0	17015.0
14	17	56	24	423	229.0	-221083.0	5343.0	17099.0
14	17	56	24	423	230.0	-221862.0	5386.0	17046.0
14	17	56	24	424	245.0	-221253.0	5208.0	16929.0
14	17	56	24	424	246.0	-220890.0	5198.0	16957.0
14	17	56	24	425	247.0	-221269.0	5173.0	17012.0
14	17	56	24	426	248.0	-221282.0	5119.0	17169.0
14	17	56	24	426	249.0	-220647.0	5101.0	16884.0
14	17	56	24	427	250.0	-219826.0	5024.0	16174.0
14	17	56	24	455	251.0	-218497.0	4992.0	16324.0
14	17	56	24	456	252.0	-216930.0	4981.0	16131.0
14	17	56	24	457	253.0	-215068.0	4964.0	16670.0
14	17	56	24	458	254.0	-212999.0	4912.0	16453.0
14	17	56	24	458	255.0	-210921.0	4846.0	16263.0
14	17	56	24	459	0.0	-209366.0	4784.0	16019.0
14	17	56	24	460	1.0	-207588.0	4730.0	16229.0
14	17	56	24	500	2.0	-205359.0	4688.0	16903.0
14	17	56	24	545	3.0	-203179.0	4606.0	17127.0
14	17	56	24	546	4.0	-201436.0	4541.0	16474.0
14	17	56	24	547	5.0	-199559.0	4478.0	16266.0
14	17	56	24	548	6.0	-197138.0	4416.0	16656.0
14	17	56	24	548	7.0	-194709.0	4369.0	16506.0
14	17	56	24	549	8.0	-192562.0	4306.0	15923.0
14	17	56	24	550	9.0	-190726.0	4256.0	16543.0
14	17	56	24	550	11.0	-188252.0	4122.0	16056.0
14	17	56	24	551	12.0	-187019.0	4058.0	16194.0
14	17	56	24	552	13.0	-185721.0	3994.0	16752.0
14	17	56	24	552	14.0	-184844.0	3933.0	16421.0
14	17	56	24	553	15.0	-184452.0	3863.0	16148.0
14	17	56	24	553	16.0	-184166.0	3820.0	16727.0
14	17	56	24	554	17.0	-183878.0	3744.0	16684.0
14	17	56	24	555	18.0	-183806.0	3656.0	16123.0
14	17	56	24	555	34.0	-196202.0	2421.0	15515.0
14	17	56	24	556	56.0	-200519.0	1048.0	15538.0
14	17	56	24	557	57.0	-200146.0	1017.0	14679.0
14	17	56	24	557	58.0	-199790.0	968.0	15339.0
14	17	56	24	558	59.0	-199156.0	919.0	15216.0
14	17	56	24	558	60.0	-198474.0	880.0	15435.0
14	17	56	24	559	61.0	-198071.0	818.0	15639.0
14	17	56	24	560	62.0	-197773.0	768.0	15448.0
14	17	56	24	636	63.0	-197733.0	747.0	14729.0
14	17	56	24	637	64.0	-197675.0	718.0	15206.0
14	17	56	24	638	65.0	-196948.0	696.0	15293.0
14	17	56	24	638	66.0	-196307.0	660.0	15618.0
14	17	56	24	639	67.0	-196527.0	607.0	15329.0
14	17	56	24	640	68.0	-197455.0	572.0	15440.0
14	17	56	24	640	69.0	-198962.0	542.0	15948.0
14	17	56	24	641	70.0	-200689.0	513.0	15156.0
14	17	56	24	642	71.0	-202311.0	489.0	14544.0
14	17	56	24	642	72.0	-203493.0	463.0	14151.0
14	17	56	24	643	73.0	-203881.0	402.0	14176.0
14	17	56	24	644	74.0	-203726.0	373.0	14201.0
14	17	56	24	644	75.0	-203126.0	326.0	14038.0
14	17	56	24	645	76.0	-202429.0	284.0	14443.0
14	17	56	24	645	77.0	-201334.0	254.0	13849.0
14	17	56	24	646	101.0	-204262.0	-547.0	13328.0
14	17	56	24	647	102.0	-202459.0	-585.0	13304.0
14	17	56	24	647	103.0	-200169.0	-631.0	13174.0
14	17	56	24	648	104.0	-197970.0	-676.0	13234.0
14	17	56	24	648	105.0	-195605.0	-695.0	13757.0
14	17	56	24	649	106.0	-193569.0	-728.0	13684.0
14	17	56	24	680	107.0	-191688.0	-779.0	13341.0
14	17	56	24	681	108.0	-190607.0	-838.0	13703.0
14	17	56	24	681	109.0	-189955.0	-879.0	13449.0
14	17	56	24	682	110.0	-189409.0	-914.0	13092.0
14	17	56	24	683	111.0	-188539.0	-959.0	13861.0
14	17	56	24	683	112.0	-187723.0	-1002.0	14228.0
14	17	56	24	684	113.0	-186707.0	-1029.0	13246.0
14	17	56	24	684	114.0	-185956.0	-1089.0	13540.0
14	17	56	24	685	115.0	-185587.0	-1121.0	13446.0
14	17	56	24	686	116.0	-185839.0	-1162.0	13047.0
14	17	56	24	687	117.0	-186551.0	-1237.0	13257.0
14	17	56	24	688	118.0	-187504.0	-1285.0	13730.0
14	17	56	24	688	119.0	-188388.0	-1266.0	13258.0
14	17	56	24	689	120.0	-189249.0	-1319.0	13816.0
14	17	56	24	690	121.0	-190831.0	-1363.0	13845.0
14	17	56	24	690	123.0	-193384.0	-1479.0	14144.0
14	17	56	24	691	124.0	-194609.0	-1513.0	13511.0
14	17	56	24	692	125.0	-196329.0	-1569.0	13403.0
14	17	56	24	692	126.0	-197960.0	-1629.0	13422.0
14	17	56	24	693	127.0	-198465.0	-1664.0	13280.0
14	17	56	24	693	128.0	-198085.0	-1716.0	13433.0
14	17	56	24	694	129.0	-197609.0	-1772.0	13732.0
14	17	56	24	726	130.0	-196594.0	-1832.0	13503.0
14	17	56	24	727	131.0	-194869.0	-1858.0	13409.0
14	17	56	24	728	132.0	-192994.0	-1893.0	13758.0
14	17	56	24	729	133.0	-191406.0	-1949.0	13976.0
14	17	56	24	729	134.0	-189673.0	-2029.0	12885.0
14	17	56	24	730	135.0	-188484.0	-2041.0	12839.0
14	17	56	24	730	136.0	-187946.0	-2102.0	12849.0
14	17	56	24	731	137.0	-187906.0	-2170.0	12953.0
14	17	56	24	732	138.0	-188099.0	-2187.0	13431.0
14	17	56	24	732	139.0	-189248.0	-2261.0	13495.0
14	17	56	24	733	140.0	-190467.0	-2317.0	13611.0
14	17	56	24	733	141.0	-191925.0	-2406.0	13239.0
14	17	56	24	734	142.0	-193458.0	-2483.0	13426.0
14	17	56	24	735	143.0	-194603.0	-2553.0	13062.0
14	17	56	24	735	144.0	-195271.0	-2611.0	13765.0
14	17	56	24	771	146.0	-194419.0	-2717.0	13988.0
14	17	56	24	772	147.0	-194150.0	-2758.0	14243.0
14	17	56	24	773	148.0	-193314.0	-2799.0	13954.0
14	17	56	24	773	149.0	-191477.0	-2896.0	13251.0
14	17	56	24	774	150.0	-189686.0	-2946.0	13443.0
14	17	56	24	775	151.0	-187862.0	-3004.0	11844.0
14	17	56	24	775	152.0	-186217.0	-3062.0	10678.0
14	17	56	24	861	153.0	-185118.0	-3131.0	8263.0
14	17	56	24	862	154.0	-184134.0	-3161.0	5707.0
14	17	56	24	863	155.0	-180504.0	-3236.0	2877.0
14	17	56	24	864	156.0	-176555.0	-3309.0	1481.0
14	17	56	24	864	157.0	-187119.0	-3369.0	1401.0
14	17	56	24	865	158.0	-177216.0	-3437.0	2581.0
14	17	56	24	865	159.0	-181426.0	-3500.0	4988.0
14	17	56	24	866	160.0	-179421.0	-3551.0	7226.0
14	17	56	24	906	161.0	-181541.0	-3596.0	8209.0
14	17	56	24	911	168.0	-205826.0	-4033.0	23836.0
14	17	56	24	912	169.0	-209779.0	-4103.0	25811.0
14	17	56	24	913	170.0	-212944.0	-4181.0	26343.0
14	17	56	24	914	171.0	-215548.0	-4244.0	26627.0
14	17	56	24	915	172.0	-216229.0	-4299.0	26904.0
14	17	56	24	916	173.0	-212266.0	-4341.0	26759.0
14	17	56	24	916	174.0	-202375.0	-4424.0	26030.0
14	17	56	24	917	213.0	-193474.0	-7025.0	10751.0
14	17	56	24	918	214.0	-189494.0	-7055.0	10719.0
14	17	56	24	918	215.0	-185405.0	-7151.0	10777.0
14	17	56	24	919	216.0	-180704.0	-7196.0	10304.0
14	17	56	24	919	217.0	-175629.0	-7229.0	10167.0
14	17	56	24	920	218.0	-169962.0	-7331.0	10958.0
14	17	56	24	921	219.0	-165242.0	-7422.0	10873.0
14	17	56	24	921	235.0	-213969.0	-8395.0	10119.0
14	17	56	24	922	236.0	-215770.0	-8464.0	9469.0
14	17	56	24	922	237.0	-216515.0	-8515.0	9460.0
14	17	56	24	923	238.0	-217185.0	-8580.0	9943.0
14	17	56	24	923	239.0	-216992.0	-8632.0	9616.0
14	17	56	24	924	240.0	-215129.0	-8698.0	9264.0
14	17	56	24	925	241.0	-212927.0	-8754.0	9364.0
14	17	56	24	951	242.0	-209782.0	-8773.0	9279.0
14	17	56	24	952	243.0	-205385.0	-8819.0	9144.0
14	17	56	24	953	244.0	-200651.0	-8877.0	9902.0
14	17	56	24	953	245.0	-195752.0	-8947.0	9234.0
14	17	56	24	954	246.0	-191376.0	-8999.0	8714.0
14	17	56	24	954	247.0	-187041.0	-9062.0	9263.0
14	17	56	24	955	248.0	-182419.0	-9151.0	9184.0
14	17	56	24	956	249.0	-178142.0	-9171.0	8750.0
14	17	56	24	956	250.0	-174135.0	-9216.0	8887.0
14	17	56	24	957	251.0	-170691.0	-9277.0	9001.0
14	17	56	24	957	252.0	-167297.0	-9335.0	8098.0
14	17	56	24	958	253.0	-164854.0	-9363.0	8422.0
14	17	56	24	958	254.0	-162667.0	-9442.0	8091.0
14	17	56	24	959	255.0	-160999.0	-9497.0	8323.0
14	17	56	24	959	0.0	-160050.0	-9538.0	8254.0
14	17	56	24	960	2.0	-162517.0	-9662.0	8005.0
14	17	56	24	960	3.0	-163132.0	-9711.0	8123.0
14	17	56	24	961	4.0	-163212.0	-9756.0	8517.0
14	17	56	24	962	5.0	-163526.0	-9776.0	8426.0
14	17	56	24	962	6.0	-164464.0	-9811.0	8689.0
14	17	56	24	995	7.0	-165923.0	-9843.0	8809.0
14	17	56	24	996	8.0	-167786.0	-9846.0	8678.0
14	17	56	24	996	9.0	-169924.0	-9876.0	7721.0
14	17	56	24	997	10.0	-172369.0	-9927.0	8163.0
14	17	56	24	998	11.0	-174651.0	-9947.0	8657.0
14	17	56	24	998	12.0	-177086.0	-9947.0	8294.0
14	17	56	24	999	13.0	-179248.0	-9932.0	8246.0
14	17	56	24	999	14.0	-181192.0	-9911.0	7800.0
14	17	56	25	40	15.0	-183077.0	-9875.0	7816.0
14	17	56	25	41	16.0	-185160.0	-9847.0	8494.0
14	17	56	25	42	17.0	-186871.0	-9794.0	8884.0
14	17	56	25	42	18.0	-188070.0	-9736.0	8395.0
14	17	56	25	43	19.0	-188882.0	-9665.0	7731.0
14	17	56	25	44	20.0	-190589.0	-9639.0	8051.0
14	17	56	25	45	21.0	-192248.0	-9564.0	8610.0
14	17	56	25	46	22.0	-193334.0	-9444.0	8704.0
14	17	56	25	47	25.0	-194139.0	-9101.0	8458.0
14	17	56	25	47	26.0	-194031.0	-8975.0	8879.0
14	17	56	25	48	27.0	-194162.0	-8839.0	8843.0
14	17	56	25	49	28.0	-193806.0	-8678.0	8915.0
14	17	56	25	49	29.0	-193032.0	-8522.0	9033.0
14	17	56	25	50	30.0	-193116.0	-8342.0	9193.0
14	17	56	25	50	31.0	-193296.0	-8146.0	9188.0
14	17	56	25	51	47.0	-214342.0	-4562.0	11313.0
14	17	56	25	51	48.0	-215789.0	-4319.0	10900.0
14	17	56	25	52	49.0	-216986.0	-4063.0	10922.0
14	17	56	25	52	50.0	-217898.0	-3848.0	11189.0
14	17	56	25	53	51.0	-218871.0	-3614.0	11334.0
14	17	56	25	53	52.0	-219857.0	-3377.0	11476.0
14	17	56	25	85	53.0	-220586.0	-3148.0	11947.0
14	17	56	25	86	54.0	-220796.0	-2916.0	12014.0
14	17	56	25	87	55.0	-220889.0	-2683.0	11952.0
14	17	56	25	87	56.0	-220778.0	-2487.0	11768.0
14	17	56	25	88	57.0	-220587.0	-2262.0	12472.0
14	17	56	25	88	58.0	-219885.0	-2049.0	12173.0
14	17	56	25	96	59.0	-218674.0	-1872.0	12311.0
14	17	56	25	97	60.0	-215376.0	-1677.0	12594.0
14	17	56	25	98	61.0	-209072.0	-1496.0	12260.0
14	17	56	25	98	62.0	-201613.0	-1279.0	12199.0
14	17	56	25	99	63.0	-194222.0	-1106.0	12738.0
14	17	56	25	99	64.0	-187927.0	-891.0	12399.0
14	17	56	25	100	65.0	-185720.0	-724.0	12553.0
14	17	56	25	100	66.0	-186071.0	-587.0	12664.0
14	17	56	25	101	67.0	-189847.0	-439.0	12564.0
14	17	56	25	101	69.0	-197727.0	-151.0	12089.0
14	17	56	25	102	70.0	-196559.0	46.0	12004.0
14	17	56	25	103	71.0	-193681.0	209.0	12173.0
14	17	56	25	131	72.0	-191087.0	363.0	11934.0
14	17	56	25	131	73.0	-188656.0	510.0	12153.0
14	17	56	25	132	74.0	-186052.0	645.0	11679.0
14	17	56	25	132	75.0	-183540.0	743.0	12333.0
14	17	56	25	133	76.0	-180994.0	881.0	12558.0
14	17	56	25	134	77.0	-179376.0	984.0	12253.0
14	17	56	25	134	78.0	-179130.0	1091.0	12280.0
14	17	56	25	135	79.0	-179927.0	1216.0	13241.0
14	17	56	25	135	80.0	-180934.0	1295.0	12363.0
14	17	56	25	136	81.0	-182390.0	1381.0	12429.0
14	17	56	25	137	82.0	-184890.0	1525.0	12614.0
14	17	56	25	137	83.0	-186714.0	1604.0	11904.0
14	17	56	25	138	84.0	-188522.0	1654.0	12390.0
14	17	56	25	139	85.0	-190515.0	1781.0	12269.0
14	17	56	25	139	86.0	-192621.0	1855.0	12033.0
14	17	56	25	140	87.0	-194321.0	1916.0	12663.0
14	17	56	25	140	92.0	-196536.0	2252.0	12357.0
14	17	56	25	141	93.0	-196520.0	2263.0	12091.0
14	17	56	25	141	94.0	-195858.0	2316.0	12183.0
14	17	56	25	142	95.0	-195892.0	2385.0	11853.0
14	17	56	25	143	96.0	-198774.0	2414.0	12079.0
14	17	56	25	143	97.0	-203483.0	2444.0	12193.0
14	17	56	25	175	98.0	-207972.0	2483.0	12229.0
14	17	56	25	176	99.0	-209117.0	2515.0	11423.0
14	17	56	25	176	100.0	-209421.0	2536.0	11626.0
14	17	56	25	177	101.0	-210284.0	2576.0	11897.0
14	17	56	25	178	102.0	-210907.0	2578.0	12451.0
14	17	56	25	178	103.0	-211243.0	2604.0	12591.0
14	17	56	25	179	104.0	-211494.0	2641.0	12700.0
14	17	56	25	222	105.0	-212907.0	2643.0	11868.0
14	17	56	25	222	106.0	-214678.0	2635.0	11589.0
14	17	56	25	223	107.0	-216684.0	2643.0	11900.0
14	17	56	25	224	108.0	-218378.0	2637.0	12034.0
14	17	56	25	224	109.0	-219634.0	2665.0	11514.0
14	17	56	25	225	110.0	-221041.0	2653.0	12338.0
14	17	56	25	225	111.0	-222203.0	2649.0	12147.0
14	17	56	25	226	112.0	-222913.0	2658.0	11942.0
14	17	56	25	227	114.0	-222425.0	2628.0	12698.0
14	17	56	25	227	115.0	-221556.0	2603.0	12084.0
14	17	56	25	228	116.0	-220643.0	2582.0	12116.0
14	17	56	25	228	117.0	-219983.0	2583.0	12441.0
14	17	56	25	229	118.0	-219727.0	2581.0	12061.0
14	17	56	25	229	119.0	-219660.0	2552.0	11949.0
14	17	56	25	230	120.0	-219391.0	2538.0	11972.0
14	17	56	25	231	121.0	-219106.0	2496.0	12069.0
14	17	56	25	231	137.0	-199221.0	1806.0	12296.0
14	17	56	25	232	138.0	-198836.0	1731.0	12067.0
14	17	56	25	232	139.0	-198227.0	1671.0	12403.0
14	17	56	25	233	140.0	-197266.0	1628.0	12035.0
14	17	56	25	233	141.0	-196521.0	1561.0	12196.0
14	17	56	25	234	142.0	-195532.0	1486.0	12138.0
14	17	56	25	312	143.0	-194280.0	1455.0	12315.0
14	17	56	25	312	144.0	-193240.0	1391.0	12611.0
14	17	56	25	313	145.0	-193168.0	1295.0	11901.0
14	17	56	25	313	146.0	-193684.0	1274.0	11950.0
14	17	56	25	314	147.0	-194152.0	1228.0	12522.0
14	17	56	25	315	148.0	-194909.0	1158.0	12321.0
14	17	56	25	315	149.0	-195722.0	1076.0	12161.0
14	17	56	25	316	150.0	-196073.0	1004.0	12689.0
14	17	56	25	317	151.0	-196301.0	926.0	12619.0
14	17	56	25	317	152.0	-196344.0	891.0	12821.0
14	17	56	25	318	153.0	-196382.0	826.0	12706.0
14	17	56	25	318	154.0	-196733.0	754.0	12378.0
14	17	56	25	319	155.0	-196960.0	699.0	12158.0
14	17	56	25	319	156.0	-196711.0	623.0	12590.0
14	17	56	25	320	157.0	-196567.0	589.0	11688.0
14	17	56	25	321	159.0	-196255.0	456.0	11900.0
14	17	56	25	321	182.0	-179964.0	-900.0	11791.0
14	17	56	25	322	183.0	-180792.0	-905.0	11979.0
14	17	56	25	322	184.0	-182414.0	-956.0	11339.0
14	17	56	25	323	185.0	-184165.0	-999.0	11305.0
14	17	56	25	323	186.0	-185411.0	-1033.0	11328.0
14	17	56	25	324	187.0	-186089.0	-1079.0	11939.0
14	17	56	25	356	188.0	-186550.0	-1098.0	12014.0
14	17	56	25	357	189.0	-186621.0	-1116.0	11535.0
14	17	56	25	357	190.0	-186444.0	-1151.0	11398.0
14	17	56	25	358	191.0	-186456.0	-1216.0	12223.0
14	17	56	25	358	192.0	-186321.0	-1266.0	11934.0
14	17	56	25	359	193.0	-186292.0	-1289.0	11953.0
14	17	56	25	360	194.0	-186658.0	-1269.0	12246.0
14	17	56	25	360	195.0	-186884.0	-1282.0	11508.0
14	17	56	25	361	196.0	-187016.0	-1372.0	11634.0
14	17	56	25	362	197.0	-187761.0	-1379.0	11479.0
14	17	56	25	362	198.0	-188716.0	-1376.0	11083.0
14	17	56	25	363	199.0	-189587.0	-1409.0	10957.0
14	17	56	25	363	200.0	-190201.0	-1471.0	10954.0
14	17	56	25	364	201.0	-190523.0	-1507.0	11227.0
14	17	56	25	365	202.0	-190476.0	-1524.0	11642.0
14	17	56	25	365	204.0	-190554.0	-1566.0	11376.0
14	17	56	25	366	205.0	-190241.0	-1576.0	10477.0
14	17	56	25	366	206.0	-190228.0	-1611.0	10235.0
14	17	56	25	367	207.0	-190432.0	-1625.0	9995.0
14	17	56	25	368	208.0	-191182.0	-1641.0	10387.0
14	17	56	25	368	209.0	-192020.0	-1663.0	10174.0
14	17	56	25	401	210.0	-192746.0	-1674.0	10496.0
14	17	56	25	401	211.0	-193026.0	-1702.0	10861.0
14	17	56	25	402	212.0	-192891.0	-1742.0	11208.0
14	17	56	25	403	213.0	-192621.0	-1739.0	10648.0
14	17	56	25	403	214.0	-192452.0	-1761.0	10765.0
14	17	56	25	404	215.0	-192308.0	-1792.0	10594.0
14	17	56	25	405	216.0	-192236.0	-1842.0	10416.0
14	17	56	25	405	217.0	-192507.0	-1864.0	11079.0
14	17	56	25	406	218.0	-193516.0	-1887.0	11546.0
14	17	56	25	406	219.0	-195048.0	-1908.0	11565.0
14	17	56	25	407	220.0	-197028.0	-1965.0	11338.0
14	17	56	25	408	221.0	-199322.0	-1982.0	10912.0
14	17	56	25	408	222.0	-201426.0	-2002.0	11751.0
14	17	56	25	409	223.0	-202803.0	-2006.0	12183.0
14	17	56	25	410	224.0	-203548.0	-2013.0	11291.0
14	17	56	25	410	226.0	-203100.0	-2066.0	11500.0
14	17	56	25	411	227.0	-201493.0	-2110.0	11259.0
14	17	56	25	411	228.0	-199798.0	-2130.0	11394.0
14	17	56	25	412	229.0	-197986.0	-2138.0	11213.0
14	17	56	25	413	230.0	-196002.0	-2167.0	11181.0
14	17	56	25	413	231.0	-194226.0	-2208.0	11523.0
14	17	56	25	414	232.0	-192537.0	-2207.0	11906.0
14	17	56	25	446	233.0	-191034.0	-2241.0	11926.0
14	17	56	25	447	234.0	-189937.0	-2276.0	11438.0
14	17	56	25	447	235.0	-189389.0	-2313.0	11519.0
14	17	56	25	448	236.0	-189047.0	-2359.0	11869.0
14	17	56	25	449	237.0	-188449.0	-2372.0	11125.0
14	17	56	25	449	238.0	-188078.0	-2391.0	11404.0
14	17	56	25	450	239.0	-188014.0	-2406.0	11815.0
14	17	56	25	451	240.0	-187863.0	-2434.0	12388.0
14	17	56	25	451	241.0	-187654.0	-2478.0	11340.0
14	17	56	25	452	242.0	-187910.0	-2512.0	11685.0
14	17	56	25	452	243.0	-188312.0	-2567.0	11164.0
14	17	56	25	453	244.0	-189319.0	-2596.0	11404.0
14	17	56	25	454	245.0	-189981.0	-2659.0	11635.0
14	17	56	25	454	246.0	-190004.0	-2696.0	11228.0
14	17	56	25	455	247.0	-190077.0	-2725.0	10749.0
14	17	56	25	455	249.0	-190326.0	-2789.0	11266.0
14	17	56	25	456	250.0	-189669.0	-2827.0	10902.0
14	17	56	25	457	251.0	-189287.0	-2862.0	11011.0
14	17	56	25	457	252.0	-189331.0	-2919.0	11120.0
14	17	56	25	458	253.0	-189171.0	-2939.0	10748.0
14	17	56	25	458	254.0	-189272.0	-2965.0	10807.0
14	17	56	25	491	255.0	-189600.0	-3011.0	10839.0
14	17	56	25	536	0.0	-189651.0	-3072.0	10494.0
14	17	56	25	537	1.0	-189645.0	-3102.0	10400.0
14	17	56	25	538	2.0	-190042.0	-3139.0	10521.0
14	17	56	25	539	3.0	-190682.0	-3190.0	10571.0
14	17	56	25	539	4.0	-191282.0	-3205.0	10935.0
14	17	56	25	540	5.0	-191816.0	-3284.0	11731.0
14	17	56	25	540	6.0	-192521.0	-3329.0	11431.0
14	17	56	25	541	7.0	-193356.0	-3388.0	10964.0
14	17	56	25	542	8.0	-194559.0	-3425.0	11283.0
14	17	56	25	542	9.0	-195864.0	-3462.0	11501.0
14	17	56	25	543	10.0	-197501.0	-3511.0	11479.0
14	17	56	25	544	11.0	-198612.0	-3557.0	11600.0
14	17	56	25	544	12.0	-199120.0	-3621.0	12031.0
14	17	56	25	545	13.0	-199074.0	-3696.0	11888.0
14	17	56	25	545	15.0	-198092.0	-3781.0	10784.0
14	17	56	25	546	16.0	-197227.0	-3814.0	9391.0
14	17	56	25	547	38.0	-201114.0	-5063.0	23809.0
14	17	56	25	547	39.0	-188159.0	-5104.0	21993.0
14	17	56	25	548	40.0	-172427.0	-5190.0	20416.0
14	17	56	25	548	41.0	-157681.0	-5222.0	18781.0
14	17	56	25	549	42.0	-146667.0	-5270.0	16526.0
14	17	56	25	549	43.0	-138809.0	-5326.0	14911.0
14	17	56	25	580	44.0	-133632.0	-5384.0	13709.0
14	17	56	25	626	45.0	-130984.0	-5451.0	12537.0
14	17	56	25	627	46.0	-131854.0	-5532.0	11958.0
14	17	56	25	627	47.0	-137041.0	-5594.0	12296.0
14	17	56	25	628	48.0	-146861.0	-5679.0	11362.0
14	17	56	25	629	49.0	-159206.0	-5729.0	10404.0
14	17	56	25	630	50.0	-171731.0	-5798.0	9861.0
14	17	56	25	630	51.0	-184001.0	-5864.0	10134.0
14	17	56	25	631	52.0	-194934.0	-5873.0	9653.0
14	17	56	25	632	53.0	-201436.0	-5930.0	9847.0
14	17	56	25	632	54.0	-204306.0	-6014.0	9747.0
14	17	56	25	633	55.0	-205202.0	-6089.0	9681.0
14	17	56	25	634	56.0	-204087.0	-6166.0	9601.0
14	17	56	25	634	57.0	-201056.0	-6237.0	9878.0
14	17	56	25	635	58.0	-197429.0	-6272.0	9594.0
14	17	56	25	635	60.0	-192294.0	-6371.0	9272.0
14	17	56	25	636	61.0	-192397.0	-6441.0	9505.0
14	17	56	25	637	83.0	-174178.0	-7804.0	8187.0
14	17	56	25	637	84.0	-173815.0	-7866.0	7685.0
14	17	56	25	638	85.0	-173746.0	-7891.0	7528.0
14	17	56	25	639	86.0	-173829.0	-7936.0	7678.0
14	17	56	25	639	87.0	-173986.0	-8011.0	8039.0
14	17	56	25	640	88.0	-174037.0	-8072.0	8568.0
14	17	56	25	671	89.0	-174275.0	-8135.0	8025.0
14	17	56	25	672	90.0	-175876.0	-8175.0	7379.0
14	17	56	25	672	91.0	-177927.0	-8245.0	7830.0
14	17	56	25	673	92.0	-180324.0	-8281.0	7346.0
14	17	56	25	673	93.0	-183848.0	-8331.0	7259.0
14	17	56	25	674	94.0	-188453.0	-8413.0	6810.0
14	17	56	25	675	95.0	-193248.0	-8469.0	7334.0
14	17	56	25	675	96.0	-198227.0	-8526.0	7433.0
14	17	56	25	676	97.0	-202708.0	-8609.0	7332.0
14	17	56	25	676	98.0	-207346.0	-8644.0	6769.0
14	17	56	25	677	99.0	-212165.0	-8717.0	6488.0
14	17	56	25	678	100.0	-216562.0	-8793.0	6374.0
14	17	56	25	678	101.0	-220071.0	-8841.0	6918.0
14	17	56	25	679	102.0	-223264.0	-8909.0	6326.0
14	17	56	25	716	103.0	-225942.0	-8949.0	6039.0
14	17	56	25	717	105.0	-229787.0	-9096.0	6336.0
14	17	56	25	717	106.0	-230253.0	-9163.0	5779.0
14	17	56	25	718	107.0	-229888.0	-9227.0	5999.0
14	17	56	25	719	108.0	-228549.0	-9274.0	6726.0
14	17	56	25	720	109.0	-226315.0	-9337.0	6079.0
14	17	56	25	720	110.0	-223582.0	-9381.0	5831.0
14	17	56	25	721	111.0	-220721.0	-9434.0	5793.0
14	17	56	25	721	112.0	-217167.0	-9488.0	5746.0
14	17	56	25	722	113.0	-213361.0	-9527.0	6021.0
14	17	56	25	723	114.0	-209610.0	-9616.0	5676.0
14	17	56	25	723	115.0	-206005.0	-9659.0	5696.0
14	17	56	25	724	116.0	-202703.0	-9716.0	5582.0
14	17	56	25	725	117.0	-199974.0	-9769.0	5266.0
14	17	56	25	725	118.0	-197862.0	-9828.0	5641.0
14	17	56	25	726	128.0	-187504.0	-10296.0	5589.0
14	17	56	25	726	129.0	-188100.0	-10299.0	5314.0
14	17	56	25	727	130.0	-188362.0	-10333.0	4773.0
14	17	56	25	763	131.0	-188177.0	-10359.0	5407.0
14	17	56	25	807	132.0	-188126.0	-10383.0	5400.0
14	17	56	25	808	133.0	-188083.0	-10388.0	5373.0
14	17	56	25	808	134.0	-188097.0	-10383.0	4943.0
14	17	56	25	809	135.0	-188003.0	-10363.0	5408.0
14	17	56	25	810	136.0	-187416.0	-10350.0	5505.0
14	17	56	25	810	137.0	-187144.0	-10332.0	4908.0
14	17	56	25	811	138.0	-187492.0	-10321.0	5145.0
14	17	56	25	812	139.0	-188170.0	-10273.0	5424.0
14	17	56	25	812	140.0	-188893.0	-10227.0	5492.0
14	17	56	25	813	141.0	-189482.0	-10189.0	4956.0
14	17	56	25	850	142.0	-190084.0	-10099.0	5768.0
14	17	56	25	851	143.0	-190329.0	-9997.0	5859.0
14	17	56	25	851	144.0	-190914.0	-9900.0	5666.0
14	17	56	25	852	145.0	-191982.0	-9845.0	5686.0
14	17	56	25	853	150.0	-200527.0	-9156.0	6761.0
14	17	56	25	854	172.0	-202213.0	-4556.0	8304.0
14	17	56	25	854	173.0	-202717.0	-4357.0	8513.0
14	17	56	25	855	174.0	-203055.0	-4134.0	8486.0
14	17	56	25	856	175.0	-203009.0	-3896.0	8536.0
14	17	56	25	856	176.0	-202594.0	-3683.0	8568.0
14	17	56	25	857	177.0	-201823.0	-3490.0	8768.0
14	17	56	25	858	178.0	-200552.0	-3260.0	8279.0
14	17	56	25	858	179.0	-198445.0	-3069.0	8593.0
14	17	56	25	859	180.0	-194779.0	-2862.0	8290.0
14	17	56	25	860	181.0	-187526.0	-2703.0	8316.0
14	17	56	25	860	182.0	-177953.0	-2486.0	9083.0
14	17	56	25	861	195.0	-197999.0	-331.0	9254.0
14	17	56	25	861	196.0	-193729.0	-226.0	9865.0
14	17	56	25	862	197.0	-189813.0	-95.0	9518.0
14	17	56	25	863	198.0	-185622.0	12.0	8753.0
14	17	56	25	863	199.0	-181463.0	156.0	8592.0
14	17	56	25	864	200.0	-178536.0	277.0	9226.0
14	17	56	25	895	201.0	-177814.0	368.0	9402.0
14	17	56	25	896	202.0	-179149.0	469.0	9479.0
14	17	56	25	897	203.0	-182048.0	556.0	8428.0
14	17	56	25	898	204.0	-185825.0	673.0	9034.0
14	17	56	25	898	205.0	-190069.0	771.0	9240.0
14	17	56	25	899	206.0	-194440.0	877.0	9271.0
14	17	56	25	900	207.0	-198781.0	954.0	9136.0
14	17	56	25	940	208.0	-202720.0	1026.0	9149.0
14	17	56	25	941	209.0	-205534.0	1086.0	8929.0
14	17	56	25	943	210.0	-206953.0	1122.0	8747.0
14	17	56	25	944	211.0	-207553.0	1191.0	9751.0
14	17	56	25	944	212.0	-207249.0	1298.0	9476.0
14	17	56	25	945	213.0	-205867.0	1348.0	9013.0
14	17	56	25	946	214.0	-204229.0	1350.0	9259.0
14	17	56	25	946	215.0	-202606.0	1411.0	9213.0
14	17	56	25	947	217.0	-198839.0	1481.0	8881.0
14	17	56	25	948	218.0	-197496.0	1520.0	9259.0
14	17	56	25	949	219.0	-196071.0	1566.0	9566.0
14	17	56	25	949	220.0	-194616.0	1605.0	9304.0
14	17	56	25	950	221.0	-193193.0	1651.0	9249.0
14	17	56	25	950	222.0	-191701.0	1664.0	8993.0
14	17	56	25	951	223.0	-190885.0	1674.0	8916.0
14	17	56	25	952	224.0	-190559.0	1689.0	9399.0
14	17	56	25	952	240.0	-201643.0	1651.0	8784.0
14	17	56	25	953	241.0	-202440.0	1623.0	8941.0
14	17	56	25	954	242.0	-203537.0	1607.0	8861.0
14	17	56	25	954	243.0	-204762.0	1558.0	8916.0
14	17	56	25	955	244.0	-206196.0	1527.0	9079.0
14	17	56	25	956	245.0	-207601.0	1508.0	8833.0
14	17	56	25	987	246.0	-208824.0	1479.0	9263.0
14	17	56	25	987	247.0	-209926.0	1437.0	9598.0
14	17	56	25	988	248.0	-211030.0	1388.0	8962.0
14	17	56	25	989	249.0	-211813.0	1369.0	9329.0
14	17	56	25	989	250.0	-211907.0	1301.0	8974.0
14	17	56	25	990	251.0	-210959.0	1239.0	8858.0
14	17	56	25	990	252.0	-209580.0	1219.0	9375.0
14	17	56	25	991	253.0	-207447.0	1176.0	9609.0
14	17	56	26	30	254.0	-204569.0	1144.0	9094.0
14	17	56	26	31	255.0	-201682.0	1085.0	8976.0
14	17	56	26	32	0.0	-198816.0	1008.0	9826.0
14	17	56	26	33	1.0	-195917.0	913.0	9679.0
14	17	56	26	34	2.0	-193470.0	860.0	9243.0
14	17	56	26	34	3.0	-191408.0	829.0	9339.0
14	17	56	26	35	4.0	-189667.0	774.0	9433.0
14	17	56	26	36	6.0	-187771.0	693.0	9106.0
14	17	56	26	36	7.0	-186910.0	606.0	9480.0
14	17	56	26	37	8.0	-186586.0	536.0	9244.0
14	17	56	26	38	9.0	-187098.0	489.0	9467.0
14	17	56	26	38	10.0	-188135.0	414.0	9754.0
14	17	56	26	39	11.0	-189591.0	369.0	9384.0
14	17	56	26	40	12.0	-191539.0	298.0	8790.0
14	17	56	26	40	13.0	-192939.0	230.0	8834.0
14	17	56	26	41	14.0	-193838.0	128.0	8924.0
14	17	56	26	41	29.0	-207692.0	-866.0	8806.0
14	17	56	26	42	30.0	-207306.0	-931.0	8301.0
14	17	56	26	43	31.0	-206726.0	-996.0	7950.0
14	17	56	26	43	32.0	-205829.0	-1059.0	8426.0
14	17	56	26	44	33.0	-204272.0	-1141.0	8173.0
14	17	56	26	45	34.0	-202612.0	-1199.0	7654.0
14	17	56	26	76	35.0	-200631.0	-1221.0	8055.0
14	17	56	26	88	36.0	-198449.0	-1291.0	8858.0
14	17	56	26	89	37.0	-196872.0	-1334.0	8034.0
14	17	56	26	90	38.0	-196045.0	-1431.0	7982.0
14	17	56	26	90	39.0	-195188.0	-1465.0	8494.0
14	17	56	26	91	40.0	-194187.0	-1507.0	8498.0
14	17	56	26	91	41.0	-193475.0	-1549.0	8070.0
14	17	56	26	92	42.0	-192880.0	-1622.0	7960.0
14	17	56	26	92	43.0	-192201.0	-1670.0	7363.0
14	17	56	26	93	44.0	-191794.0	-1742.0	7916.0
14	17	56	26	94	45.0	-192117.0	-1809.0	7811.0
14	17	56	26	135	46.0	-192794.0	-1868.0	7502.0
14	17	56	26	155	47.0	-193662.0	-1899.0	7093.0
14	17	56	26	155	48.0	-194509.0	-1906.0	7444.0
14	17	56	26	156	49.0	-195249.0	-1962.0	7816.0
14	17	56	26	178	51.0	-196735.0	-2034.0	7846.0
14	17	56	26	178	52.0	-197884.0	-2118.0	7633.0
14	17	56	26	179	53.0	-198801.0	-2161.0	7529.0
14	17	56	26	180	54.0	-199886.0	-2182.0	7641.0
14	17	56	26	180	55.0	-200941.0	-2212.0	7812.0
14	17	56	26	181	56.0	-201381.0	-2248.0	7906.0
14	17	56	26	181	57.0	-201031.0	-2293.0	7896.0
14	17	56	26	182	58.0	-200200.0	-2332.0	7665.0
14	17	56	26	183	59.0	-198790.0	-2334.0	7530.0
14	17	56	26	183	60.0	-196710.0	-2359.0	7456.0
14	17	56	26	184	61.0	-194101.0	-2390.0	7171.0
14	17	56	26	184	62.0	-191761.0	-2419.0	6948.0
14	17	56	26	185	88.0	-204922.0	-3145.0	7062.0
14	17	56	26	185	89.0	-203479.0	-3171.0	6967.0
14	17	56	26	186	90.0	-202001.0	-3190.0	6134.0
14	17	56	26	187	91.0	-200747.0	-3212.0	6718.0
14	17	56	26	187	96.0	-196800.0	-3359.0	7219.0
14	17	56	26	188	97.0	-196410.0	-3386.0	6559.0
14	17	56	26	188	98.0	-196348.0	-3417.0	6938.0
14	17	56	26	189	99.0	-195860.0	-3462.0	7118.0
14	17	56	26	189	100.0	-195311.0	-3456.0	7064.0
14	17	56	26	200	101.0	-195464.0	-3487.0	6884.0
14	17	56	26	200	102.0	-195587.0	-3526.0	6734.0
14	17	56	26	201	103.0	-195460.0	-3551.0	7267.0
14	17	56	26	202	104.0	-195543.0	-3614.0	7445.0
14	17	56	26	202	105.0	-195683.0	-3623.0	7351.0
14	17	56	26	203	106.0	-195493.0	-3625.0	7149.0
14	17	56	26	203	107.0	-195249.0	-3647.0	7363.0
14	17	56	26	223	108.0	-195134.0	-3692.0	7187.0
14	17	56	26	224	109.0	-194810.0	-3721.0	7080.0
14	17	56	26	225	110.0	-194398.0	-3776.0	7371.0
14	17	56	26	225	111.0	-194137.0	-3831.0	7174.0
14	17	56	26	226	112.0	-193647.0	-3857.0	6848.0
14	17	56	26	227	113.0	-193101.0	-3888.0	7240.0
14	17	56	26	227	114.0	-192717.0	-3934.0	7152.0
14	17	56	26	228	115.0	-192082.0	-3970.0	7206.0
14	17	56	26	229	116.0	-191780.0	-4022.0	7476.0
14	17	56	26	229	117.0	-191545.0	-4059.0	7386.0
14	17	56	26	230	118.0	-191606.0	-4074.0	7583.0
14	17	56	26	231	119.0	-192130.0	-4121.0	7916.0
14	17	56	26	231	120.0	-192949.0	-4178.0	7787.0
14	17	56	26	232	121.0	-193796.0	-4215.0	7461.0
14	17	56	26	232	122.0	-194709.0	-4246.0	8188.0
14	17	56	26	233	123.0	-195987.0	-4296.0	7858.0
14	17	56	26	234	124.0	-197122.0	-4339.0	7500.0
14	17	56	26	234	125.0	-198097.0	-4367.0	7109.0
14	17	56	26	235	126.0	-198756.0	-4406.0	7297.0
14	17	56	26	236	127.0	-198890.0	-4476.0	7607.0
14	17	56	26	236	128.0	-199326.0	-4542.0	6974.0
14	17	56	26	237	129.0	-200427.0	-4576.0	7304.0
14	17	56	26	245	130.0	-201846.0	-4615.0	7023.0
14	17	56	26	246	131.0	-203994.0	-4645.0	6379.0
14	17	56	26	247	132.0	-206112.0	-4688.0	7091.0
14	17	56	26	247	133.0	-208183.0	-4723.0	7082.0
14	17	56	26	268	134.0	-210324.0	-4796.0	6619.0
14	17	56	26	269	135.0	-212301.0	-4873.0	7094.0
14	17	56	26	269	136.0	-213556.0	-4926.0	6541.0
14	17	56	26	270	137.0	-213985.0	-4970.0	6763.0
14	17	56	26	271	138.0	-214017.0	-5005.0	6688.0
14	17	56	26	271	139.0	-213914.0	-5066.0	6676.0
14	17	56	26	272	140.0	-213539.0	-5137.0	6202.0
14	17	56	26	273	141.0	-212776.0	-5172.0	6760.0
14	17	56	26	273	142.0	-211840.0	-5207.0	6827.0
14	17	56	26	274	143.0	-210548.0	-5287.0	7392.0
14	17	56	26	274	144.0	-208927.0	-5319.0	6882.0
14	17	56	26	275	145.0	-206427.0	-5374.0	6850.0
14	17	56	26	275	146.0	-203021.0	-5441.0	6463.0
14	17	56	26	276	147.0	-198612.0	-5502.0	5971.0
14	17	56	26	277	148.0	-194160.0	-5549.0	5211.0
14	17	56	26	277	149.0	-189949.0	-5599.0	2894.0
14	17	56	26	294	150.0	-185923.0	-5657.0	559.0
14	17	56	26	303	151.0	-182221.0	-5706.0	-2344.0
14	17	56	26	306	152.0	-178446.0	-5767.0	-4886.0
14	17	56	26	306	153.0	-175077.0	-5834.0	-5284.0
14	17	56	26	307	154.0	-172440.0	-5894.0	-5115.0
14	17	56	26	308	155.0	-170709.0	-5962.0	-3599.0
14	17	56	26	308	156.0	-170050.0	-6002.0	-569.0
14	17	56	26	309	157.0	-170581.0	-6073.0	656.0
14	17	56	26	309	158.0	-172504.0	-6104.0	1136.0
14	17	56	26	310	159.0	-175766.0	-6184.0	1548.0
14	17	56	26	310	160.0	-180187.0	-6229.0	3813.0
14	17	56	26	311	161.0	-185209.0	-6284.0	6837.0
14	17	56	26	312	162.0	-190542.0	-6346.0	10020.0
14	17	56	26	312	163.0	-196521.0	-6394.0	13231.0
14	17	56	26	313	164.0	-202569.0	-6462.0	15612.0
14	17	56	26	320	165.0	-207787.0	-6521.0	18446.0
14	17	56	26	321	166.0	-212221.0	-6564.0	18838.0
14	17	56	26	322	167.0	-215569.0	-6602.0	19335.0
14	17	56	26	322	168.0	-216893.0	-6654.0	20278.0
14	17	56	26	323	169.0	-213887.0	-6711.0	19203.0
14	17	56	26	323	170.0	-203886.0	-6804.0	19004.0
14	17	56	26	324	171.0	-188882.0	-6885.0	17948.0
14	17	56	26	345	172.0	-174146.0	-6934.0	16454.0
14	17	56	26	346	173.0	-162360.0	-6963.0	14713.0
14	17	56	26	346	174.0	-154542.0	-7029.0	12960.0
14	17	56	26	347	175.0	-150827.0	-7087.0	10727.0
14	17	56	26	347	176.0	-151329.0	-7169.0	8736.0
14	17	56	26	348	177.0	-156988.0	-7226.0	7560.0
14	17	56	26	348	178.0	-166302.0	-7280.0	6829.0
14	17	56	26	349	179.0	-176981.0	-7327.0	6386.0
14	17	56	26	350	180.0	-188175.0	-7384.0	5692.0
14	17	56	26	350	181.0	-199023.0	-7462.0	5546.0
14	17	56	26	351	182.0	-208657.0	-7517.0	5405.0
14	17	56	26	351	183.0	-217157.0	-7582.0	5697.0
14	17	56	26	352	184.0	-223574.0	-7629.0	5858.0
14	17	56	26	352	185.0	-226078.0	-7679.0	5943.0
14	17	56	26	353	186.0	-225724.0	-7741.0	6228.0
14	17	56	26	369	187.0	-224368.0	-7800.0	5303.0
14	17	56	26	370	188.0	-222179.0	-7865.0	4977.0
14	17	56	26	370	189.0	-218879.0	-7917.0	5451.0
14	17	56	26	371	190.0	-213646.0	-7976.0	5606.0
14	17	56	26	372	191.0	-204945.0	-8013.0	4859.0
14	17	56	26	372	192.0	-193945.0	-8067.0	4628.0
14	17	56	26	373	193.0	-185317.0	-8166.0	4614.0
14	17	56	26	392	194.0	-182259.0	-8237.0	4266.0
14	17	56	26	393	195.0	-183710.0	-8277.0	4719.0
14	17	56	26	393	196.0	-186952.0	-8341.0	4203.0
14	17	56	26	394	197.0	-189416.0	-8359.0	3686.0
14	17	56	26	394	198.0	-191284.0	-8420.0	4048.0
14	17	56	26	395	199.0	-193120.0	-8473.0	4675.0
14	17	56	26	396	200.0	-193908.0	-8556.0	4616.0
14	17	56	26	396	201.0	-192739.0	-8627.0	4623.0
14	17	56	26	397	202.0	-189124.0	-8664.0	3828.0
14	17	56	26	397	203.0	-184869.0	-8730.0	3261.0
14	17	56	26	398	204.0	-181115.0	-8796.0	3694.0
14	17	56	26	398	205.0	-178354.0	-8845.0	3359.0
14	17	56	26	399	206.0	-176363.0	-8876.0	3986.0
14	17	56	26	399	207.0	-174769.0	-8917.0	3944.0
14	17	56	26	400	208.0	-173284.0	-9002.0	3674.0
14	17	56	26	400	209.0	-171755.0	-9056.0	3541.0
14	17	56	26	421	210.0	-170273.0	-9104.0	3437.0
14	17	56	26	421	211.0	-168511.0	-9148.0	3271.0
14	17	56	26	422	212.0	-166301.0	-9221.0	3599.0
14	17	56	26	423	213.0	-164153.0	-9281.0	3756.0
14	17	56	26	423	214.0	-161862.0	-9312.0	3301.0
14	17	56	26	424	215.0	-159296.0	-9375.0	3475.0
14	17	56	26	424	216.0	-156984.0	-9455.0	3577.0
14	17	56	26	425	217.0	-155554.0	-9514.0	3146.0
14	17	56	26	426	218.0	-154985.0	-9563.0	3352.0
14	17	56	26	427	219.0	-154992.0	-9619.0	3616.0
14	17	56	26	427	220.0	-155942.0	-9652.0	3373.0
14	17	56	26	428	221.0	-157729.0	-9736.0	2791.0
14	17	56	26	428	222.0	-160127.0	-9803.0	2937.0
14	17	56	26	429	223.0	-163749.0	-9840.0	2464.0
14	17	56	26	439	224.0	-168780.0	-9882.0	2729.0
14	17	56	26	440	225.0	-174452.0	-9938.0	2721.0
14	17	56	26	440	226.0	-180792.0	-9991.0	3011.0
14	17	56	26	441	227.0	-187971.0	-10031.0	2615.0
14	17	56	26	441	228.0	-195332.0	-10059.0	2674.0
14	17	56	26	442	229.0	-202348.0	-10123.0	2333.0
14	17	56	26	443	230.0	-208627.0	-10185.0	2694.0
14	17	56	26	462	231.0	-213896.0	-10251.0	2965.0
14	17	56	26	463	232.0	-218596.0	-10302.0	2576.0
14	17	56	26	464	233.0	-222905.0	-10349.0	2624.0
14	17	56	26	464	234.0	-226068.0	-10369.0	1925.0
14	17	56	26	465	235.0	-228296.0	-10419.0	2069.0
14	17	56	26	465	236.0	-229586.0	-10512.0	2289.0
14	17	56	26	466	237.0	-230088.0	-10557.0	2029.0
14	17	56	26	467	238.0	-229751.0	-10586.0	1507.0
14	17	56	26	467	239.0	-228666.0	-10635.0	1482.0
14	17	56	26	468	240.0	-226754.0	-10704.0	1111.0
14	17	56	26	468	241.0	-223974.0	-10742.0	941.0
14	17	56	26	469	242.0	-220916.0	-10802.0	1381.0
14	17	56	26	469	243.0	-217950.0	-10882.0	592.0
14	17	56	26	470	244.0	-214771.0	-10934.0	405.0
14	17	56	26	471	245.0	-211540.0	-10977.0	776.0
14	17	56	26	471	246.0	-208307.0	-11007.0	503.0
14	17	56	26	495	247.0	-205779.0	-11071.0	883.0
14	17	56	26	496	248.0	-203408.0	-11103.0	843.0
14	17	56	26	497	249.0	-201148.0	-11176.0	403.0
14	17	56	26	497	250.0	-198667.0	-11227.0	-126.0
14	17	56	26	498	251.0	-196232.0	-11274.0	353.0
14	17	56	26	498	252.0	-194106.0	-11333.0	304.0
14	17	56	26	499	253.0	-191947.0	-11396.0	-311.0
14	17	56	26	499	254.0	-190537.0	-11436.0	-191.0
14	17	56	26	525	255.0	-189841.0	-11492.0	479.0
14	17	56	26	526	0.0	-189257.0	-11513.0	-37.0
14	17	56	26	542	1.0	-188974.0	-11521.0	428.0
14	17	56	26	543	2.0	-189392.0	-11574.0	165.0
14	17	56	26	543	3.0	-190514.0	-11620.0	-156.0
14	17	56	26	544	4.0	-192261.0	-11607.0	-509.0
14	17	56	26	544	5.0	-194362.0	-11632.0	249.0
14	17	56	26	545	6.0	-196141.0	-11667.0	-109.0
14	17	56	26	545	7.0	-197766.0	-11672.0	-354.0
14	17	56	26	546	8.0	-199410.0	-11651.0	-130.0
14	17	56	26	547	9.0	-201016.0	-11641.0	-110.0
14	17	56	26	547	10.0	-202121.0	-11657.0	-312.0
14	17	56	26	548	11.0	-202667.0	-11642.0	564.0
14	17	56	26	548	12.0	-202881.0	-11658.0	219.0
14	17	56	26	549	13.0	-202989.0	-11639.0	-276.0
14	17	56	26	550	14.0	-202033.0	-11600.0	-87.0
14	17	56	26	550	20.0	-192799.0	-11119.0	536.0
14	17	56	26	551	21.0	-192117.0	-11002.0	268.0
14	17	56	26	551	27.0	-193447.0	-10089.0	1120.0
14	17	56	26	552	28.0	-194134.0	-9878.0	851.0
14	17	56	26	552	29.0	-195177.0	-9705.0	1034.0
14	17	56	26	564	30.0	-195967.0	-9502.0	1473.0
14	17	56	26	565	31.0	-196594.0	-9280.0	1358.0
14	17	56	26	565	32.0	-197481.0	-9064.0	892.0
14	17	56	26	566	33.0	-198800.0	-8822.0	1073.0
14	17	56	26	567	34.0	-200246.0	-8592.0	1085.0
14	17	56	26	588	35.0	-201689.0	-8355.0	1355.0
14	17	56	26	589	36.0	-203418.0	-8119.0	1764.0
14	17	56	26	590	37.0	-204917.0	-7894.0	1785.0
14	17	56	26	590	38.0	-206001.0	-7647.0	1571.0
14	17	56	26	591	39.0	-206725.0	-7364.0	2094.0
14	17	56	26	591	40.0	-206997.0	-7102.0	2440.0
14	17	56	26	592	41.0	-207346.0	-6872.0	2464.0
14	17	56	26	611	42.0	-207681.0	-6621.0	2113.0
14	17	56	26	612	43.0	-207934.0	-6342.0	2464.0
14	17	56	26	612	44.0	-207919.0	-6077.0	2661.0
14	17	56	26	613	45.0	-207484.0	-5817.0	2076.0
14	17	56	26	613	46.0	-207226.0	-5561.0	2443.0
14	17	56	26	614	47.0	-207024.0	-5319.0	3032.0
14	17	56	26	615	48.0	-207201.0	-5062.0	2843.0
14	17	56	26	615	49.0	-207524.0	-4775.0	2945.0
14	17	56	26	616	50.0	-207993.0	-4560.0	2941.0
14	17	56	26	616	51.0	-208434.0	-4315.0	3363.0
14	17	56	26	617	52.0	-208705.0	-4077.0	3630.0
14	17	56	26	617	53.0	-208968.0	-3809.0	2654.0
14	17	56	26	618	54.0	-209006.0	-3582.0	2640.0
14	17	56	26	619	55.0	-209066.0	-3366.0	2896.0
14	17	56	26	619	56.0	-209001.0	-3117.0	3083.0
14	17	56	26	620	57.0	-208640.0	-2892.0	3598.0
14	17	56	26	620	58.0	-207639.0	-2684.0	3131.0
14	17	56	26	621	59.0	-206109.0	-2447.0	3208.0
14	17	56	26	621	60.0	-203689.0	-2212.0	3419.0
14	17	56	26	622	61.0	-197909.0	-2020.0	3628.0
14	17	56	26	622	62.0	-189266.0	-1829.0	3464.0
14	17	56	26	623	63.0	-180559.0	-1625.0	3659.0
14	17	56	26	624	64.0	-171556.0	-1439.0	3528.0
14	17	56	26	647	65.0	-166686.0	-1245.0	3680.0
14	17	56	26	648	66.0	-164472.0	-1017.0	3675.0
14	17	56	26	648	67.0	-168116.0	-827.0	3398.0
14	17	56	26	649	68.0	-177042.0	-661.0	3440.0
14	17	56	26	650	69.0	-183528.0	-503.0	4081.0
14	17	56	26	650	70.0	-186747.0	-317.0	4129.0
14	17	56	26	651	71.0	-188648.0	-166.0	3722.0
14	17	56	26	651	72.0	-189598.0	-6.0	3480.0
14	17	56	26	652	73.0	-191811.0	168.0	3386.0
14	17	56	26	653	74.0	-194559.0	319.0	3291.0
14	17	56	26	653	75.0	-196770.0	456.0	3503.0
14	17	56	26	654	76.0	-199815.0	579.0	3654.0
14	17	56	26	654	77.0	-203086.0	703.0	3700.0
14	17	56	26	655	78.0	-205706.0	844.0	3416.0
14	17	56	26	656	79.0	-207496.0	973.0	3672.0
14	17	56	26	656	80.0	-207831.0	1076.0	3851.0
14	17	56	26	657	81.0	-207521.0	1197.0	3677.0
14	17	56	26	657	82.0	-206389.0	1314.0	3346.0
14	17	56	26	658	83.0	-204926.0	1428.0	3752.0
14	17	56	26	667	84.0	-203333.0	1521.0	3875.0
14	17	56	26	668	85.0	-201211.0	1621.0	2616.0
14	17	56	26	668	86.0	-199226.0	1691.0	2686.0
14	17	56	26	690	87.0	-198139.0	1789.0	3291.0
14	17	56	26	690	88.0	-198375.0	1885.0	3317.0
14	17	56	26	691	89.0	-199061.0	1984.0	2806.0
14	17	56	26	692	90.0	-199857.0	2027.0	3343.0
14	17	56	26	692	91.0	-200840.0	2095.0	3426.0
14	17	56	26	693	92.0	-202056.0	2152.0	3262.0
14	17	56	26	693	93.0	-202874.0	2204.0	3070.0
14	17	56	26	694	94.0	-203379.0	2270.0	3887.0
14	17	56	26	695	95.0	-203398.0	2319.0	3053.0
14	17	56	26	695	96.0	-202969.0	2389.0	3132.0
14	17	56	26	696	97.0	-202256.0	2461.0	2934.0
14	17	56	26	696	98.0	-201151.0	2524.0	3550.0
14	17	56	26	697	99.0	-199789.0	2601.0	3571.0
14	17	56	26	698	100.0	-198257.0	2606.0	3221.0
14	17	56	26	698	101.0	-197171.0	2660.0	3442.0
14	17	56	26	699	102.0	-196497.0	2675.0	3948.0
14	17	56	26	713	103.0	-195933.0	2693.0	3255.0
14	17	56	26	713	104.0	-195617.0	2731.0	2886.0
14	17	56	26	714	105.0	-195070.0	2751.0	2926.0
14	17	56	26	715	106.0	-194401.0	2758.0	3391.0
14	17	56	26	715	107.0	-194157.0	2792.0	3328.0
14	17	56	26	716	108.0	-194177.0	2796.0	3549.0
14	17	56	26	716	109.0	-194019.0	2831.0	3793.0
14	17	56	26	738	110.0	-193908.0	2853.0	3828.0
14	17	56	26	739	111.0	-194402.0	2849.0	3614.0
14	17	56	26	740	112.0	-194917.0	2858.0	4064.0
14	17	56	26	740	113.0	-195849.0	2858.0	3941.0
14	17	56	26	741	114.0	-197106.0	2877.0	3820.0
14	17	56	26	741	115.0	-198754.0	2870.0	3828.0
14	17	56	26	742	116.0	-200249.0	2859.0	3653.0
14	17	56	26	742	117.0	-201801.0	2852.0	2999.0
14	17	56	26	761	118.0	-203810.0	2859.0	3836.0
14	17	56	26	762	119.0	-206598.0	2853.0	4129.0
14	17	56	26	763	120.0	-209306.0	2835.0	4122.0
14	17	56	26	763	121.0	-211915.0	2818.0	4159.0
14	17	56	26	764	122.0	-214387.0	2788.0	3854.0
14	17	56	26	765	123.0	-216494.0	2793.0	3800.0
14	17	56	26	765	124.0	-218214.0	2756.0	3864.0
14	17	56	26	766	125.0	-219300.0	2719.0	3935.0
14	17	56	26	766	126.0	-219992.0	2698.0	3846.0
14	17	56	26	767	127.0	-220492.0	2675.0	3594.0
14	17	56	26	767	128.0	-220529.0	2641.0	3788.0
14	17	56	26	768	129.0	-219591.0	2586.0	3644.0
14	17	56	26	768	130.0	-218289.0	2581.0	4211.0
14	17	56	26	769	131.0	-215839.0	2511.0	4142.0
14	17	56	26	770	132.0	-212407.0	2458.0	3513.0
14	17	56	26	770	133.0	-208201.0	2449.0	3438.0
14	17	56	26	771	134.0	-203849.0	2406.0	3739.0
14	17	56	26	771	135.0	-199360.0	2354.0	3530.0
14	17	56	26	772	136.0	-195069.0	2316.0	3919.0
14	17	56	26	772	137.0	-191234.0	2247.0	3559.0
14	17	56	26	773	138.0	-187876.0	2209.0	3575.0
14	17	56	26	784	139.0	-184904.0	2153.0	3321.0
14	17	56	26	784	140.0	-182342.0	2112.0	3281.0
14	17	56	26	785	141.0	-180263.0	2066.0	3405.0
14	17	56	26	785	142.0	-178444.0	2034.0	3452.0
14	17	56	26	786	143.0	-177167.0	1993.0	3609.0
14	17	56	26	787	144.0	-176871.0	1886.0	3123.0
14	17	56	26	787	145.0	-177426.0	1829.0	3100.0
14	17	56	26	788	146.0	-178629.0	1754.0	3731.0
14	17	56	26	788	147.0	-179999.0	1708.0	3798.0
14	17	56	26	789	148.0	-181591.0	1668.0	3494.0
14	17	56	26	808	149.0	-183477.0	1615.0	3840.0
14	17	56	26	808	150.0	-185314.0	1553.0	4204.0
14	17	56	26	809	151.0	-187061.0	1487.0	4038.0
14	17	56	26	809	152.0	-188756.0	1416.0	3777.0
14	17	56	26	810	153.0	-189862.0	1349.0	3222.0
14	17	56	26	811	154.0	-190699.0	1293.0	3351.0
14	17	56	26	830	155.0	-191451.0	1221.0	3394.0
14	17	56	26	831	156.0	-192530.0	1153.0	3817.0
14	17	56	26	831	157.0	-193514.0	1106.0	3386.0
14	17	56	26	832	158.0	-194332.0	1044.0	3738.0
14	17	56	26	832	159.0	-195221.0	965.0	4404.0
14	17	56	26	833	160.0	-196225.0	894.0	3536.0
14	17	56	26	833	161.0	-196875.0	849.0	3223.0
14	17	56	26	852	162.0	-198167.0	776.0	2964.0
14	17	56	26	853	163.0	-199743.0	731.0	3833.0
14	17	56	26	854	164.0	-201169.0	668.0	3437.0
14	17	56	26	854	165.0	-202379.0	611.0	2998.0
14	17	56	26	855	166.0	-203271.0	541.0	3484.0
14	17	56	26	855	167.0	-203989.0	483.0	2927.0
14	17	56	26	856	168.0	-204396.0	419.0	3429.0
14	17	56	26	856	169.0	-204094.0	369.0	3424.0
14	17	56	26	857	170.0	-203439.0	310.0	2681.0
14	17	56	26	857	171.0	-202579.0	225.0	3225.0
14	17	56	26	858	172.0	-201869.0	179.0	3266.0
14	17	56	26	859	173.0	-201211.0	152.0	3063.0
14	17	56	26	859	174.0	-200431.0	77.0	2691.0
14	17	56	26	860	175.0	-199526.0	19.0	3001.0
14	17	56	26	860	176.0	-198827.0	-60.0	3689.0
14	17	56	26	861	177.0	-197766.0	-99.0	3156.0
14	17	56	26	861	178.0	-196460.0	-146.0	3482.0
14	17	56	26	862	179.0	-195062.0	-208.0	4045.0
14	17	56	26	863	180.0	-193441.0	-230.0	3502.0
14	17	56	26	874	181.0	-191483.0	-281.0	3552.0
14	17	56	26	875	182.0	-190036.0	-327.0	4041.0
14	17	56	26	876	183.0	-188611.0	-387.0	3349.0
14	17	56	26	876	184.0	-186933.0	-437.0	3511.0
14	17	56	26	877	185.0	-185606.0	-483.0	3403.0
14	17	56	26	877	186.0	-184922.0	-523.0	2908.0
14	17	56	26	878	187.0	-184570.0	-567.0	3399.0
14	17	56	26	879	188.0	-184950.0	-602.0	3533.0
14	17	56	26	879	189.0	-185921.0	-633.0	3686.0
14	17	56	26	880	190.0	-186892.0	-694.0	3413.0
14	17	56	26	880	191.0	-187518.0	-725.0	3568.0
14	17	56	26	881	192.0	-188754.0	-755.0	3430.0
14	17	56	26	881	193.0	-190324.0	-802.0	3213.0
14	17	56	26	882	194.0	-191683.0	-813.0	3373.0
14	17	56	26	899	195.0	-192704.0	-836.0	3706.0
14	17	56	26	900	196.0	-193135.0	-861.0	3523.0
14	17	56	26	900	197.0	-193407.0	-889.0	3068.0
14	17	56	26	901	198.0	-193497.0	-896.0	3694.0
14	17	56	26	902	199.0	-193122.0	-961.0	2928.0
14	17	56	26	902	200.0	-192634.0	-991.0	3277.0
14	17	56	26	903	201.0	-192389.0	-1016.0	3299.0
14	17	56	26	903	202.0	-192736.0	-1026.0	2694.0
14	17	56	26	904	203.0	-193781.0	-1066.0	3220.0
14	17	56	26	904	204.0	-194758.0	-1113.0	2774.0
14	17	56	26	905	205.0	-195610.0	-1139.0	2858.0
14	17	56	26	906	206.0	-196832.0	-1176.0	2963.0
14	17	56	26	921	207.0	-197614.0	-1204.0	3283.0
14	17	56	26	922	208.0	-197796.0	-1207.0	3048.0
14	17	56	26	922	209.0	-197450.0	-1230.0	3423.0
14	17	56	26	923	210.0	-197296.0	-1239.0	3456.0
14	17	56	26	923	211.0	-197304.0	-1282.0	3491.0
14	17	56	26	924	212.0	-197777.0	-1327.0	3553.0
14	17	56	26	925	213.0	-198372.0	-1348.0	3134.0
14	17	56	26	925	214.0	-199021.0	-1372.0	3023.0
14	17	56	26	926	215.0	-199773.0	-1392.0	3123.0
14	17	56	26	944	216.0	-200955.0	-1399.0	2869.0
14	17	56	26	945	217.0	-201985.0	-1404.0	2936.0
14	17	56	26	946	218.0	-202367.0	-1405.0	2819.0
14	17	56	26	947	219.0	-202716.0	-1456.0	3121.0
14	17	56	26	947	220.0	-202946.0	-1459.0	2914.0
14	17	56	26	948	221.0	-202852.0	-1508.0	3367.0
14	17	56	26	948	222.0	-202570.0	-1528.0	3144.0
14	17	56	26	949	223.0	-202016.0	-1556.0	2529.0
14	17	56	26	950	224.0	-201009.0	-1605.0	2946.0
14	17	56	26	950	225.0	-199712.0	-1630.0	3009.0
14	17	56	26	951	226.0	-198109.0	-1665.0	2041.0
14	17	56	26	952	227.0	-196421.0	-1681.0	2122.0
14	17	56	26	952	228.0	-194872.0	-1681.0	2676.0
14	17	56	26	953	229.0	-193697.0	-1715.0	2949.0
14	17	56	26	953	230.0	-192797.0	-1748.0	2379.0
14	17	56	26	954	231.0	-192127.0	-1767.0	2190.0
14	17	56	26	955	232.0	-191714.0	-1826.0	1705.0
14	17	56	26	955	233.0	-191385.0	-1829.0	1986.0
14	17	56	26	975	234.0	-190898.0	-1839.0	1301.0
14	17	56	26	977	235.0	-190616.0	-1874.0	1805.0
14	17	56	26	977	236.0	-191107.0	-1922.0	2061.0
14	17	56	26	978	237.0	-191634.0	-1945.0	1389.0
14	17	56	26	978	238.0	-192477.0	-1974.0	2203.0
14	17	56	26	979	239.0	-193710.0	-2008.0	1973.0
14	17	56	26	980	240.0	-194656.0	-2049.0	2499.0
14	17	56	26	997	241.0	-195666.0	-2077.0	2499.0
14	17	56	26	998	242.0	-196800.0	-2074.0	2497.0
14	17	56	26	999	243.0	-197889.0	-2107.0	2772.0
14	17	56	26	999	244.0	-199253.0	-2165.0	2633.0
14	17	56	27	0	245.0	-200507.0	-2221.0	2334.0
14	17	56	27	0	246.0	-201364.0	-2241.0	2776.0
14	17	56	27	1	247.0	-201868.0	-2267.0	2924.0
14	17	56	27	1	248.0	-202279.0	-2329.0	2633.0
14	17	56	27	2	249.0	-202499.0	-2381.0	3109.0
14	17	56	27	3	250.0	-202796.0	-2419.0	3381.0
14	17	56	27	3	251.0	-203402.0	-2450.0	3027.0
14	17	56	27	4	252.0	-204307.0	-2494.0	2739.0
14	17	56	27	4	253.0	-204852.0	-2536.0	3058.0
14	17	56	27	5	254.0	-205014.0	-2571.0	2623.0
14	17	56	27	6	255.0	-204767.0	-2606.0	2559.0
14	17	56	27	6	0.0	-203802.0	-2662.0	2283.0
14	17	56	27	7	1.0	-202370.0	-2682.0	2421.0
14	17	56	27	8	2.0	-201114.0	-2697.0	2769.0
14	17	56	27	8	3.0	-199934.0	-2779.0	3045.0
14	17	56	27	27	4.0	-198847.0	-2819.0	2618.0
14	17	56	27	29	5.0	-197871.0	-2854.0	2510.0
14	17	56	27	29	6.0	-196866.0	-2906.0	2635.0
14	17	56	27	30	7.0	-195873.0	-2929.0	2548.0
14	17	56	27	31	8.0	-195136.0	-2995.0	2444.0
14	17	56	27	31	9.0	-194391.0	-3044.0	2798.0
14	17	56	27	32	10.0	-193556.0	-3082.0	2841.0
14	17	56	27	50	11.0	-192557.0	-3151.0	2946.0
14	17	56	27	51	12.0	-191542.0	-3196.0	2849.0
14	17	56	27	51	13.0	-190869.0	-3231.0	3310.0
14	17	56	27	52	14.0	-189937.0	-3287.0	2888.0
14	17	56	27	52	15.0	-188587.0	-3340.0	2903.0
14	17	56	27	53	16.0	-187310.0	-3399.0	2653.0
14	17	56	27	54	17.0	-186227.0	-3431.0	2614.0
14	17	56	27	54	18.0	-184969.0	-3501.0	2885.0
14	17	56	27	55	19.0	-183685.0	-3548.0	2658.0
14	17	56	27	55	20.0	-182479.0	-3589.0	2106.0
14	17	56	27	56	21.0	-181451.0	-3681.0	2258.0
14	17	56	27	56	22.0	-180891.0	-3726.0	2839.0
14	17	56	27	68	23.0	-180587.0	-3752.0	2833.0
14	17	56	27	68	24.0	-180882.0	-3779.0	2958.0
14	17	56	27	69	25.0	-181429.0	-3865.0	3109.0
14	17	56	27	69	26.0	-182272.0	-3919.0	3252.0
14	17	56	27	70	27.0	-184016.0	-3970.0	2883.0
14	17	56	27	70	28.0	-186764.0	-4033.0	3406.0
14	17	56	27	71	29.0	-190231.0	-4099.0	3114.0
14	17	56	27	90	30.0	-193816.0	-4147.0	3226.0
14	17	56	27	91	31.0	-197589.0	-4187.0	3135.0
14	17	56	27	91	32.0	-201510.0	-4244.0	3896.0
14	17	56	27	92	33.0	-205570.0	-4303.0	4041.0
14	17	56	27	93	34.0	-208486.0	-4373.0	3829.0
14	17	56	27	93	35.0	-210276.0	-4438.0	4129.0
14	17	56	27	94	36.0	-210894.0	-4507.0	4967.0
14	17	56	27	94	37.0	-210632.0	-4551.0	4208.0
14	17	56	27	95	38.0	-209208.0	-4601.0	3711.0
14	17	56	27	95	39.0	-206938.0	-4667.0	3181.0
14	17	56	27	96	40.0	-204220.0	-4705.0	1940.0
14	17	56	27	96	41.0	-200859.0	-4771.0	523.0
14	17	56	27	97	42.0	-197249.0	-4852.0	-2564.0
14	17	56	27	97	43.0	-193594.0	-4892.0	-5157.0
14	17	56	27	98	44.0	-190272.0	-4959.0	-7552.0
14	17	56	27	99	45.0	-187033.0	-5009.0	-8377.0
14	17	56	27	99	46.0	-184048.0	-5063.0	-8043.0
14	17	56	27	100	47.0	-181506.0	-5106.0	-5709.0
14	17	56	27	113	48.0	-179715.0	-5184.0	-3724.0
14	17	56	27	114	49.0	-179132.0	-5267.0	-1967.0
14	17	56	27	114	50.0	-179629.0	-5312.0	-2135.0
14	17	56	27	115	51.0	-181286.0	-5363.0	-1536.0
14	17	56	27	115	52.0	-184276.0	-5434.0	875.0
14	17	56	27	116	53.0	-188619.0	-5490.0	4141.0
14	17	56	27	117	54.0	-193849.0	-5550.0	7731.0
14	17	56	27	137	55.0	-199176.0	-5619.0	10454.0
14	17	56	27	137	56.0	-204454.0	-5689.0	13094.0
14	17	56	27	138	57.0	-209623.0	-5757.0	15413.0
14	17	56	27	138	58.0	-214589.0	-5810.0	16274.0
14	17	56	27	139	59.0	-219071.0	-5866.0	16526.0
14	17	56	27	139	60.0	-220953.0	-5907.0	17216.0
14	17	56	27	140	61.0	-217623.0	-5998.0	16413.0
14	17	56	27	140	62.0	-207414.0	-6045.0	15672.0
14	17	56	27	159	63.0	-193347.0	-6092.0	14238.0
14	17	56	27	160	64.0	-180342.0	-6156.0	13151.0
14	17	56	27	160	65.0	-170777.0	-6222.0	11246.0
14	17	56	27	161	66.0	-164703.0	-6274.0	8848.0
14	17	56	27	162	67.0	-161744.0	-6338.0	7226.0
14	17	56	27	162	68.0	-162572.0	-6405.0	5684.0
14	17	56	27	163	69.0	-167615.0	-6465.0	4362.0
14	17	56	27	163	70.0	-175474.0	-6574.0	4324.0
14	17	56	27	164	71.0	-184583.0	-6626.0	3496.0
14	17	56	27	164	72.0	-194624.0	-6683.0	2752.0
14	17	56	27	165	73.0	-204818.0	-6727.0	2751.0
14	17	56	27	165	74.0	-212316.0	-6779.0	3056.0
14	17	56	27	166	75.0	-217667.0	-6854.0	1867.0
14	17	56	27	167	76.0	-219692.0	-6956.0	1808.0
14	17	56	27	167	77.0	-218271.0	-7006.0	2234.0
14	17	56	27	168	78.0	-214014.0	-7052.0	1758.0
14	17	56	27	168	79.0	-208525.0	-7124.0	2271.0
14	17	56	27	169	80.0	-203015.0	-7173.0	2120.0
14	17	56	27	169	81.0	-197723.0	-7227.0	1936.0
14	17	56	27	170	82.0	-191021.0	-7289.0	1386.0
14	17	56	27	171	83.0	-182071.0	-7367.0	1335.0
14	17	56	27	171	84.0	-172004.0	-7426.0	919.0
14	17	56	27	185	85.0	-164397.0	-7502.0	1184.0
14	17	56	27	206	86.0	-162566.0	-7544.0	814.0
14	17	56	27	207	87.0	-165426.0	-7588.0	889.0
14	17	56	27	207	88.0	-171001.0	-7637.0	843.0
14	17	56	27	208	89.0	-177150.0	-7692.0	798.0
14	17	56	27	208	90.0	-182763.0	-7765.0	598.0
14	17	56	27	209	91.0	-188023.0	-7843.0	779.0
14	17	56	27	210	92.0	-192721.0	-7897.0	821.0
14	17	56	27	210	93.0	-195817.0	-7945.0	691.0
14	17	56	27	211	94.0	-197039.0	-8015.0	823.0
14	17	56	27	212	95.0	-197302.0	-8089.0	519.0
14	17	56	27	212	96.0	-197263.0	-8119.0	-95.0
14	17	56	27	213	97.0	-197247.0	-8163.0	-288.0
14	17	56	27	213	98.0	-198276.0	-8225.0	-294.0
14	17	56	27	214	99.0	-199219.0	-8307.0	90.0
14	17	56	27	215	100.0	-198871.0	-8371.0	568.0
14	17	56	27	215	101.0	-197559.0	-8426.0	501.0
14	17	56	27	216	102.0	-196049.0	-8476.0	531.0
14	17	56	27	216	103.0	-194106.0	-8556.0	306.0
14	17	56	27	217	104.0	-191360.0	-8622.0	131.0
14	17	56	27	217	105.0	-187964.0	-8630.0	236.0
14	17	56	27	218	106.0	-184205.0	-8726.0	552.0
14	17	56	27	219	107.0	-179809.0	-8758.0	309.0
14	17	56	27	229	108.0	-175306.0	-8797.0	320.0
14	17	56	27	230	109.0	-171024.0	-8861.0	-77.0
14	17	56	27	230	110.0	-167414.0	-8910.0	109.0
14	17	56	27	231	111.0	-164996.0	-8946.0	91.0
14	17	56	27	231	112.0	-163432.0	-9031.0	-451.0
14	17	56	27	232	113.0	-162649.0	-9044.0	-234.0
14	17	56	27	233	114.0	-163007.0	-9083.0	-29.0
14	17	56	27	253	115.0	-164369.0	-9165.0	-284.0
14	17	56	27	277	116.0	-166851.0	-9236.0	-814.0
14	17	56	27	278	117.0	-170447.0	-9288.0	-536.0
14	17	56	27	278	118.0	-174631.0	-9347.0	-262.0
14	17	56	27	279	119.0	-179057.0	-9391.0	-519.0
14	17	56	27	279	120.0	-183169.0	-9447.0	-983.0
14	17	56	27	280	121.0	-186691.0	-9508.0	-806.0
14	17	56	27	281	122.0	-189807.0	-9561.0	-724.0
14	17	56	27	281	123.0	-192976.0	-9601.0	-1549.0
14	17	56	27	301	124.0	-196068.0	-9644.0	-827.0
14	17	56	27	302	125.0	-198623.0	-9674.0	-1066.0
14	17	56	27	302	126.0	-200402.0	-9734.0	-1682.0
14	17	56	27	303	127.0	-201927.0	-9784.0	-1486.0
14	17	56	27	304	128.0	-203516.0	-9844.0	-1706.0
14	17	56	27	304	129.0	-205374.0	-9911.0	-1404.0
14	17	56	27	305	130.0	-206918.0	-9951.0	-1839.0
14	17	56	27	305	131.0	-207812.0	-10042.0	-1576.0
14	17	56	27	306	138.0	-206705.0	-10425.0	-2134.0
14	17	56	27	306	139.0	-205144.0	-10465.0	-2202.0
14	17	56	27	307	140.0	-203663.0	-10526.0	-1821.0
14	17	56	27	308	141.0	-201822.0	-10566.0	-1849.0
14	17	56	27	308	142.0	-200007.0	-10594.0	-2223.0
14	17	56	27	309	143.0	-198832.0	-10660.0	-2264.0
14	17	56	27	309	144.0	-198085.0	-10686.0	-2391.0
14	17	56	27	310	145.0	-197576.0	-10736.0	-2411.0
14	17	56	27	311	146.0	-197383.0	-10765.0	-2884.0
14	17	56	27	311	147.0	-197470.0	-10852.0	-2581.0
14	17	56	27	312	148.0	-197660.0	-10895.0	-2021.0
14	17	56	27	312	149.0	-197876.0	-10916.0	-2318.0
14	17	56	27	313	150.0	-197956.0	-10983.0	-2666.0
14	17	56	27	313	151.0	-197729.0	-10997.0	-1929.0
14	17	56	27	314	152.0	-197177.0	-10987.0	-2383.0
14	17	56	27	315	153.0	-196234.0	-11034.0	-3221.0
14	17	56	27	315	154.0	-195656.0	-11049.0	-2810.0
14	17	56	27	316	155.0	-195529.0	-11061.0	-2700.0
14	17	56	27	316	156.0	-195361.0	-11067.0	-2706.0
14	17	56	27	324	157.0	-195137.0	-11075.0	-2935.0
14	17	56	27	324	158.0	-194897.0	-11063.0	-2951.0
14	17	56	27	325	159.0	-194886.0	-11064.0	-2430.0
14	17	56	27	351	160.0	-195359.0	-11071.0	-2166.0
14	17	56	27	351	161.0	-195988.0	-11003.0	-2770.0
14	17	56	27	352	162.0	-196598.0	-10989.0	-2649.0
14	17	56	27	352	163.0	-196959.0	-10947.0	-2032.0
14	17	56	27	353	164.0	-197422.0	-10881.0	-2209.0
14	17	56	27	353	165.0	-198052.0	-10851.0	-2644.0
14	17	56	27	354	166.0	-198601.0	-10766.0	-2234.0
14	17	56	27	355	167.0	-198899.0	-10683.0	-1948.0
14	17	56	27	355	168.0	-199081.0	-10545.0	-2369.0
14	17	56	27	356	169.0	-199020.0	-10447.0	-1961.0
14	17	56	27	356	170.0	-198603.0	-10298.0	-1626.0
14	17	56	27	357	171.0	-198054.0	-10161.0	-1824.0
14	17	56	27	357	172.0	-196799.0	-10005.0	-1613.0
14	17	56	27	358	173.0	-195194.0	-9843.0	-1114.0
14	17	56	27	358	174.0	-193570.0	-9704.0	-1265.0
14	17	56	27	359	175.0	-191924.0	-9510.0	-1341.0
14	17	56	27	380	176.0	-190596.0	-9356.0	-657.0
14	17	56	27	381	177.0	-189723.0	-9136.0	-480.0
14	17	56	27	382	178.0	-189269.0	-8922.0	-960.0
14	17	56	27	382	179.0	-189237.0	-8729.0	-569.0
14	17	56	27	383	180.0	-189509.0	-8542.0	-527.0
14	17	56	27	383	181.0	-189870.0	-8302.0	-388.0
14	17	56	27	384	182.0	-189979.0	-8061.0	-637.0
14	17	56	27	385	183.0	-190446.0	-7823.0	-41.0
14	17	56	27	385	184.0	-191267.0	-7584.0	321.0
14	17	56	27	386	185.0	-192331.0	-7361.0	763.0
14	17	56	27	386	186.0	-193301.0	-7102.0	798.0
14	17	56	27	387	187.0	-194243.0	-6807.0	1214.0
14	17	56	27	388	188.0	-195466.0	-6564.0	2606.0
14	17	56	27	388	189.0	-197094.0	-6336.0	3991.0
14	17	56	27	389	190.0	-198822.0	-6085.0	4571.0
14	17	56	27	390	191.0	-200482.0	-5821.0	5161.0
14	17	56	27	390	192.0	-202351.0	-5562.0	6019.0
14	17	56	27	391	193.0	-204444.0	-5312.0	6352.0
14	17	56	27	391	194.0	-206724.0	-5053.0	7336.0
14	17	56	27	399	195.0	-209053.0	-4785.0	7366.0
14	17	56	27	400	196.0	-211004.0	-4532.0	7160.0
14	17	56	27	423	197.0	-212227.0	-4292.0	7476.0
14	17	56	27	424	198.0	-212596.0	-4037.0	6834.0
14	17	56	27	425	199.0	-212687.0	-3754.0	7019.0
14	17	56	27	425	200.0	-212491.0	-3528.0	7248.0
14	17	56	27	426	201.0	-212044.0	-3288.0	6644.0
14	17	56	27	426	202.0	-211030.0	-3055.0	6751.0
14	17	56	27	427	203.0	-209652.0	-2833.0	6669.0
14	17	56	27	428	204.0	-207837.0	-2601.0	6513.0
14	17	56	27	428	205.0	-205747.0	-2379.0	6836.0
14	17	56	27	429	206.0	-203200.0	-2164.0	6794.0
14	17	56	27	429	207.0	-199913.0	-1911.0	6284.0
14	17	56	27	430	208.0	-195214.0	-1704.0	6188.0
14	17	56	27	430	209.0	-186502.0	-1491.0	6155.0
14	17	56	27	431	210.0	-175697.0	-1273.0	6453.0
14	17	56	27	432	211.0	-164370.0	-1074.0	5604.0
14	17	56	27	432	212.0	-156197.0	-886.0	5281.0
14	17	56	27	433	213.0	-155253.0	-694.0	5158.0
14	17	56	27	447	214.0	-157384.0	-511.0	4943.0
14	17	56	27	447	215.0	-163844.0	-313.0	4296.0
14	17	56	27	448	216.0	-170660.0	-153.0	4564.0
14	17	56	27	448	217.0	-174098.0	13.0	4230.0
14	17	56	27	449	218.0	-175824.0	153.0	3599.0
14	17	56	27	449	219.0	-176279.0	328.0	4007.0
14	17	56	27	450	220.0	-176404.0	493.0	3734.0
14	17	56	27	469	221.0	-175974.0	651.0	3867.0
14	17	56	27	470	222.0	-174827.0	793.0	3921.0
14	17	56	27	471	223.0	-174771.0	936.0	3108.0
14	17	56	27	471	224.0	-176981.0	1091.0	2721.0
14	17	56	27	472	225.0	-181012.0	1236.0	3019.0
14	17	56	27	472	226.0	-185677.0	1351.0	2983.0
14	17	56	27	473	227.0	-190741.0	1464.0	2886.0
14	17	56	27	473	228.0	-194798.0	1547.0	2743.0
14	17	56	27	474	229.0	-197697.0	1679.0	2707.0
14	17	56	27	475	230.0	-199696.0	1808.0	2914.0
14	17	56	27	475	231.0	-200587.0	1918.0	2927.0
14	17	56	27	476	232.0	-201076.0	2023.0	2426.0
14	17	56	27	476	233.0	-201281.0	2095.0	3205.0
14	17	56	27	477	234.0	-201144.0	2166.0	2881.0
14	17	56	27	477	235.0	-201071.0	2278.0	2611.0
14	17	56	27	491	236.0	-201327.0	2366.0	2277.0
14	17	56	27	492	237.0	-201684.0	2428.0	3174.0
14	17	56	27	492	238.0	-202349.0	2521.0	3126.0
14	17	56	27	493	239.0	-203301.0	2594.0	2586.0
14	17	56	27	494	240.0	-204845.0	2654.0	2693.0
14	17	56	27	494	241.0	-206767.0	2694.0	3102.0
14	17	56	27	495	242.0	-208562.0	2779.0	2635.0
14	17	56	27	495	243.0	-210037.0	2833.0	2658.0
14	17	56	27	514	244.0	-210667.0	2879.0	2954.0
14	17	56	27	514	245.0	-211305.0	2929.0	2876.0
14	17	56	27	515	246.0	-211447.0	2951.0	2514.0
14	17	56	27	516	247.0	-210894.0	3023.0	2879.0
14	17	56	27	516	248.0	-210102.0	3100.0	2534.0
14	17	56	27	517	249.0	-209256.0	3130.0	2838.0
14	17	56	27	517	250.0	-208018.0	3130.0	2855.0
14	17	56	27	518	251.0	-206490.0	3167.0	2713.0
14	17	56	27	537	252.0	-204807.0	3197.0	3020.0
14	17	56	27	538	253.0	-203096.0	3214.0	2504.0
14	17	56	27	538	254.0	-201898.0	3234.0	2853.0
14	17	56	27	539	255.0	-200837.0	3238.0	2864.0
14	17	56	27	539	0.0	-199808.0	3250.0	2822.0
14	17	56	27	540	1.0	-199489.0	3273.0	2624.0
14	17	56	27	541	2.0	-199208.0	3274.0	2661.0
14	17	56	27	560	3.0	-199061.0	3291.0	2959.0
14	17	56	27	561	4.0	-199214.0	3302.0	3664.0
14	17	56	27	561	5.0	-199242.0	3295.0	3871.0
14	17	56	27	562	6.0	-199209.0	3289.0	3326.0
14	17	56	27	562	7.0	-199499.0	3271.0	2871.0
14	17	56	27	563	8.0	-200217.0	3291.0	2688.0
14	17	56	27	564	9.0	-200760.0	3286.0	2783.0
14	17	56	27	564	10.0	-201057.0	3280.0	2698.0
14	17	56	27	565	11.0	-201214.0	3293.0	2536.0
14	17	56	27	565	12.0	-201640.0	3268.0	2749.0
14	17	56	27	566	13.0	-202103.0	3276.0	2832.0
14	17	56	27	566	14.0	-202347.0	3236.0	3386.0
14	17	56	27	567	15.0	-202401.0	3215.0	2565.0
14	17	56	27	568	16.0	-202901.0	3201.0	3261.0
14	17	56	27	568	17.0	-203779.0	3178.0	3329.0
14	17	56	27	569	18.0	-204944.0	3131.0	3103.0
14	17	56	27	569	19.0	-206007.0	3112.0	2549.0
14	17	56	27	570	20.0	-206727.0	3068.0	2934.0
14	17	56	27	570	21.0	-207271.0	3038.0	2669.0
14	17	56	27	571	22.0	-207617.0	2981.0	2241.0
14	17	56	27	571	23.0	-207570.0	2955.0	3138.0
14	17	56	27	583	24.0	-206879.0	2927.0	3103.0
14	17	56	27	583	25.0	-205641.0	2879.0	3299.0
14	17	56	27	584	26.0	-204604.0	2824.0	3283.0
14	17	56	27	584	27.0	-204045.0	2786.0	3634.0
14	17	56	27	585	28.0	-203184.0	2738.0	3395.0
14	17	56	27	586	29.0	-202122.0	2709.0	2764.0
14	17	56	27	586	30.0	-201251.0	2638.0	3391.0
14	17	56	27	587	31.0	-200496.0	2574.0	3709.0
14	17	56	27	587	32.0	-199726.0	2514.0	3179.0
14	17	56	27	606	33.0	-198349.0	2469.0	3051.0
14	17	56	27	607	34.0	-196732.0	2431.0	3761.0
14	17	56	27	607	35.0	-194934.0	2364.0	3501.0
14	17	56	27	608	36.0	-192669.0	2339.0	3436.0
14	17	56	27	609	37.0	-190316.0	2263.0	3194.0
14	17	56	27	609	38.0	-188026.0	2191.0	2648.0
14	17	56	27	610	39.0	-185816.0	2145.0	2906.0
14	17	56	27	610	40.0	-183881.0	2090.0	3478.0
14	17	56	27	611	41.0	-182633.0	2034.0	2923.0
14	17	56	27	612	42.0	-181809.0	1990.0	3116.0
14	17	56	27	612	43.0	-180941.0	1904.0	3161.0
14	17	56	27	613	44.0	-180232.0	1830.0	3429.0
14	17	56	27	613	45.0	-180007.0	1749.0	2979.0
14	17	56	27	614	46.0	-180186.0	1729.0	2873.0
14	17	56	27	615	47.0	-180522.0	1681.0	2906.0
14	17	56	27	615	48.0	-180837.0	1606.0	2824.0
14	17	56	27	616	49.0	-181319.0	1539.0	2989.0
14	17	56	27	616	50.0	-181679.0	1492.0	2994.0
14	17	56	27	628	51.0	-182330.0	1418.0	2408.0
14	17	56	27	629	52.0	-183600.0	1338.0	2749.0
14	17	56	27	629	53.0	-184617.0	1274.0	2814.0
14	17	56	27	651	54.0	-185359.0	1211.0	2226.0
14	17	56	27	651	55.0	-186323.0	1173.0	2349.0
14	17	56	27	652	56.0	-187959.0	1099.0	3056.0
14	17	56	27	653	57.0	-189456.0	1025.0	2835.0
14	17	56	27	653	58.0	-190846.0	963.0	2414.0
14	17	56	27	654	59.0	-192500.0	918.0	2825.0
14	17	56	27	654	60.0	-194326.0	884.0	2646.0
14	17	56	27	655	61.0	-195732.0	826.0	2557.0
14	17	56	27	655	62.0	-197231.0	743.0	2535.0
14	17	56	27	656	63.0	-198556.0	676.0	2283.0
14	17	56	27	657	64.0	-199470.0	648.0	2436.0
14	17	56	27	657	65.0	-199458.0	583.0	2582.0
14	17	56	27	658	66.0	-198765.0	504.0	2698.0
14	17	56	27	658	67.0	-197739.0	467.0	2890.0
14	17	56	27	659	68.0	-196012.0	405.0	2704.0
14	17	56	27	659	69.0	-194046.0	335.0	2793.0
14	17	56	27	660	70.0	-192327.0	304.0	2747.0
14	17	56	27	673	71.0	-190949.0	244.0	2885.0
14	17	56	27	674	72.0	-189593.0	219.0	3174.0
14	17	56	27	674	73.0	-188610.0	193.0	3196.0
14	17	56	27	675	74.0	-187603.0	97.0	3355.0
14	17	56	27	675	75.0	-186796.0	52.0	3314.0
14	17	56	27	676	76.0	-186613.0	18.0	2940.0
14	17	56	27	697	77.0	-187067.0	-37.0	2884.0
14	17	56	27	697	78.0	-187819.0	-109.0	3063.0
14	17	56	27	698	79.0	-188591.0	-102.0	3342.0
14	17	56	27	699	80.0	-189509.0	-167.0	2626.0
14	17	56	27	699	81.0	-190348.0	-219.0	2101.0
14	17	56	27	700	82.0	-191152.0	-228.0	2396.0
14	17	56	27	700	83.0	-191985.0	-284.0	2769.0
14	17	56	27	701	84.0	-192691.0	-314.0	2424.0
14	17	56	27	719	85.0	-193275.0	-346.0	3017.0
14	17	56	27	720	86.0	-193749.0	-388.0	2641.0
14	17	56	27	721	87.0	-193729.0	-412.0	2319.0
14	17	56	27	721	88.0	-193680.0	-445.0	3157.0
14	17	56	27	722	89.0	-193469.0	-452.0	2492.0
14	17	56	27	723	90.0	-193923.0	-514.0	2675.0
14	17	56	27	723	91.0	-195317.0	-552.0	2760.0
14	17	56	27	724	92.0	-197233.0	-590.0	2279.0
14	17	56	27	724	93.0	-199642.0	-590.0	2646.0
14	17	56	27	725	94.0	-201769.0	-610.0	2628.0
14	17	56	27	725	95.0	-203376.0	-662.0	2069.0
14	17	56	27	726	96.0	-204726.0	-712.0	2158.0
14	17	56	27	727	97.0	-205869.0	-759.0	2951.0
14	17	56	27	727	98.0	-206912.0	-757.0	2574.0
14	17	56	27	728	99.0	-207591.0	-791.0	2651.0
14	17	56	27	728	100.0	-207717.0	-837.0	2488.0
14	17	56	27	729	101.0	-207604.0	-844.0	2492.0
14	17	56	27	729	102.0	-207836.0	-857.0	2733.0
14	17	56	27	730	103.0	-207694.0	-883.0	2809.0
14	17	56	27	731	104.0	-206602.0	-907.0	2642.0
14	17	56	27	732	105.0	-205065.0	-928.0	2424.0
14	17	56	27	744	106.0	-203096.0	-976.0	1916.0
14	17	56	27	747	107.0	-200726.0	-1005.0	2071.0
14	17	56	27	750	108.0	-197876.0	-1019.0	2658.0
14	17	56	27	759	109.0	-194991.0	-1037.0	2606.0
14	17	56	27	760	110.0	-192043.0	-1089.0	2454.0
14	17	56	27	761	111.0	-188946.0	-1112.0	2973.0
14	17	56	27	761	112.0	-186315.0	-1157.0	2633.0
14	17	56	27	762	113.0	-184017.0	-1192.0	2054.0
14	17	56	27	762	114.0	-182573.0	-1214.0	2009.0
14	17	56	27	763	115.0	-182562.0	-1239.0	2211.0
14	17	56	27	763	116.0	-183622.0	-1231.0	2180.0
14	17	56	27	764	117.0	-185568.0	-1246.0	1491.0
14	17	56	27	764	118.0	-188379.0	-1321.0	1598.0
14	17	56	27	765	119.0	-191606.0	-1331.0	2078.0
14	17	56	27	766	120.0	-194873.0	-1387.0	1849.0
14	17	56	27	766	121.0	-198121.0	-1402.0	1230.0
14	17	56	27	767	122.0	-201035.0	-1436.0	1255.0
14	17	56	27	775	123.0	-203577.0	-1477.0	1254.0
14	17	56	27	775	124.0	-205879.0	-1479.0	1005.0
14	17	56	27	776	125.0	-207774.0	-1484.0	1591.0
14	17	56	27	776	126.0	-209107.0	-1536.0	2113.0
14	17	56	27	777	127.0	-210412.0	-1607.0	1723.0
14	17	56	27	778	128.0	-211374.0	-1619.0	2002.0
14	17	56	27	778	129.0	-211859.0	-1644.0	2197.0
14	17	56	27	799	130.0	-212259.0	-1694.0	2452.0
14	17	56	27	799	131.0	-212611.0	-1716.0	2770.0
14	17	56	27	800	132.0	-212311.0	-1741.0	2798.0
14	17	56	27	801	133.0	-211459.0	-1786.0	2836.0
14	17	56	27	801	134.0	-210528.0	-1783.0	2628.0
14	17	56	27	802	135.0	-209602.0	-1819.0	1837.0
14	17	56	27	802	136.0	-208555.0	-1897.0	2471.0
14	17	56	27	803	137.0	-207159.0	-1951.0	2778.0
14	17	56	27	803	138.0	-205624.0	-1977.0	2383.0
14	17	56	27	804	139.0	-203951.0	-2041.0	2728.0
14	17	56	27	804	140.0	-202326.0	-2052.0	3146.0
14	17	56	27	821	141.0	-200427.0	-2071.0	2671.0
14	17	56	27	822	142.0	-198498.0	-2131.0	2409.0
14	17	56	27	822	143.0	-196642.0	-2197.0	2751.0
14	17	56	27	823	144.0	-194867.0	-2237.0	2900.0
14	17	56	27	823	145.0	-192719.0	-2297.0	3071.0
14	17	56	27	824	146.0	-190338.0	-2324.0	3193.0
14	17	56	27	824	147.0	-188167.0	-2356.0	2914.0
14	17	56	27	825	148.0	-186256.0	-2417.0	2851.0
14	17	56	27	825	149.0	-184689.0	-2472.0	2944.0
14	17	56	27	826	150.0	-183650.0	-2523.0	2549.0
14	17	56	27	827	151.0	-183357.0	-2561.0	3118.0
14	17	56	27	827	152.0	-183371.0	-2561.0	2634.0
14	17	56	27	828	153.0	-183814.0	-2624.0	2838.0
14	17	56	27	845	154.0	-184685.0	-2687.0	2832.0
14	17	56	27	846	155.0	-186204.0	-2716.0	3546.0
14	17	56	27	847	156.0	-187233.0	-2750.0	3178.0
14	17	56	27	847	157.0	-187821.0	-2849.0	2999.0
14	17	56	27	848	158.0	-188035.0	-2916.0	2406.0
14	17	56	27	868	159.0	-188026.0	-2919.0	3095.0
14	17	56	27	868	160.0	-187886.0	-3000.0	3289.0
14	17	56	27	869	161.0	-187722.0	-3016.0	2959.0
14	17	56	27	870	162.0	-187599.0	-3054.0	2695.0
14	17	56	27	870	163.0	-187887.0	-3130.0	2818.0
14	17	56	27	871	164.0	-188057.0	-3162.0	2565.0
14	17	56	27	871	165.0	-188216.0	-3208.0	3013.0
14	17	56	27	872	166.0	-188703.0	-3280.0	3166.0
14	17	56	27	872	167.0	-189064.0	-3329.0	2733.0
14	17	56	27	873	168.0	-189804.0	-3384.0	2997.0
14	17	56	27	873	169.0	-191360.0	-3407.0	2425.0
14	17	56	27	874	170.0	-193601.0	-3487.0	2126.0
14	17	56	27	875	171.0	-196251.0	-3566.0	2637.0
14	17	56	27	875	172.0	-199532.0	-3612.0	3101.0
14	17	56	27	876	173.0	-202946.0	-3674.0	2735.0
14	17	56	27	876	174.0	-206344.0	-3742.0	2116.0
14	17	56	27	877	175.0	-209925.0	-3772.0	2859.0
14	17	56	27	877	176.0	-212856.0	-3829.0	3190.0
14	17	56	27	878	177.0	-215238.0	-3896.0	2551.0
14	17	56	27	878	178.0	-217101.0	-3949.0	2784.0
14	17	56	27	879	179.0	-218203.0	-3983.0	3079.0
14	17	56	27	879	180.0	-218573.0	-4039.0	3213.0
14	17	56	27	891	181.0	-218204.0	-4094.0	3946.0
14	17	56	27	892	182.0	-217194.0	-4154.0	4184.0
14	17	56	27	892	183.0	-215951.0	-4214.0	3920.0
14	17	56	27	893	184.0	-214129.0	-4269.0	3503.0
14	17	56	27	893	185.0	-211772.0	-4348.0	3046.0
14	17	56	27	894	186.0	-208847.0	-4386.0	2499.0
14	17	56	27	895	187.0	-205584.0	-4448.0	960.0
14	17	56	27	895	188.0	-203038.0	-4512.0	-995.0
14	17	56	27	896	189.0	-200974.0	-4576.0	-4052.0
14	17	56	27	915	190.0	-198737.0	-4614.0	-6996.0
14	17	56	27	915	191.0	-196241.0	-4676.0	-8851.0
14	17	56	27	916	192.0	-193961.0	-4734.0	-8226.0
14	17	56	27	917	193.0	-192135.0	-4791.0	-8128.0
14	17	56	27	917	194.0	-190660.0	-4864.0	-5997.0
14	17	56	27	918	195.0	-190109.0	-4949.0	-3557.0
14	17	56	27	918	196.0	-190267.0	-5019.0	-2735.0
14	17	56	27	938	197.0	-190772.0	-5073.0	-2289.0
14	17	56	27	938	198.0	-191647.0	-5157.0	-1772.0
14	17	56	27	939	199.0	-192396.0	-5211.0	936.0
14	17	56	27	940	200.0	-193115.0	-5262.0	3867.0
14	17	56	27	940	201.0	-193909.0	-5305.0	7509.0
14	17	56	27	941	202.0	-194837.0	-5387.0	10277.0
14	17	56	27	941	203.0	-196162.0	-5414.0	12476.0
14	17	56	27	942	204.0	-197941.0	-5481.0	14973.0
14	17	56	27	960	205.0	-200564.0	-5547.0	15436.0
14	17	56	27	961	206.0	-203059.0	-5596.0	15722.0
14	17	56	27	961	207.0	-203161.0	-5654.0	16472.0
14	17	56	27	962	208.0	-198119.0	-5742.0	16105.0
14	17	56	27	963	209.0	-187694.0	-5821.0	14924.0
14	17	56	27	963	210.0	-175146.0	-5872.0	13932.0
14	17	56	27	964	211.0	-164230.0	-5934.0	12659.0
14	17	56	27	964	212.0	-156661.0	-6000.0	10043.0
14	17	56	27	965	213.0	-152611.0	-6062.0	8371.0
14	17	56	27	984	214.0	-152624.0	-6094.0	7034.0
14	17	56	27	984	215.0	-157256.0	-6179.0	5266.0
14	17	56	27	985	216.0	-165400.0	-6259.0	3716.0
14	17	56	27	985	217.0	-175297.0	-6294.0	3499.0
14	17	56	27	986	218.0	-185722.0	-6354.0	3236.0
14	17	56	27	986	219.0	-197174.0	-6414.0	2754.0
14	17	56	27	987	220.0	-208539.0	-6476.0	2627.0
14	17	56	27	988	221.0	-218749.0	-6557.0	2140.0
14	17	56	27	988	222.0	-227052.0	-6631.0	1963.0
14	17	56	27	989	223.0	-231880.0	-6646.0	1981.0
14	17	56	27	989	224.0	-231974.0	-6714.0	1684.0
14	17	56	27	990	225.0	-229918.0	-6792.0	1553.0
14	17	56	27	990	226.0	-227782.0	-6855.0	1404.0
14	17	56	27	991	227.0	-225171.0	-6903.0	1248.0
14	17	56	27	991	228.0	-221793.0	-6954.0	390.0
14	17	56	27	992	229.0	-215794.0	-7014.0	1186.0
14	17	56	27	993	230.0	-206957.0	-7084.0	1333.0
14	17	56	27	993	231.0	-197706.0	-7161.0	1027.0
14	17	56	27	994	232.0	-191663.0	-7226.0	842.0
14	17	56	27	994	233.0	-190458.0	-7280.0	896.0
14	17	56	27	995	234.0	-193257.0	-7339.0	183.0
14	17	56	27	995	235.0	-197726.0	-7433.0	604.0
14	17	56	27	996	236.0	-201224.0	-7497.0	339.0
14	17	56	27	996	237.0	-203604.0	-7530.0	431.0
14	17	56	27	997	238.0	-205417.0	-7580.0	573.0
14	17	56	27	998	239.0	-206225.0	-7653.0	284.0
14	17	56	27	998	240.0	-205574.0	-7716.0	261.0
14	17	56	27	999	241.0	-202888.0	-7781.0	-136.0
14	17	56	28	10	242.0	-198582.0	-7839.0	95.0
14	17	56	28	10	243.0	-194604.0	-7901.0	513.0
14	17	56	28	11	244.0	-191607.0	-7956.0	289.0
14	17	56	28	12	245.0	-189161.0	-8014.0	-11.0
14	17	56	28	12	246.0	-187132.0	-8079.0	553.0
14	17	56	28	13	247.0	-185353.0	-8111.0	83.0
14	17	56	28	13	248.0	-184325.0	-8174.0	-35.0
14	17	56	28	14	249.0	-183965.0	-8239.0	-28.0
14	17	56	28	30	250.0	-183529.0	-8297.0	139.0
14	17	56	28	31	251.0	-183310.0	-8350.0	-360.0
14	17	56	28	32	252.0	-182341.0	-8409.0	-108.0
14	17	56	28	32	253.0	-180768.0	-8486.0	-669.0
14	17	56	28	33	254.0	-179211.0	-8539.0	-504.0
14	17	56	28	33	255.0	-177454.0	-8583.0	-688.0
14	17	56	28	34	0.0	-175844.0	-8622.0	-695.0
14	17	56	28	53	1.0	-174852.0	-8700.0	-935.0
14	17	56	28	54	2.0	-174584.0	-8761.0	-722.0
14	17	56	28	54	3.0	-175157.0	-8811.0	-727.0
14	17	56	28	55	4.0	-176533.0	-8854.0	-1219.0
14	17	56	28	56	5.0	-178598.0	-8914.0	-1191.0
14	17	56	28	56	6.0	-181703.0	-8974.0	-1419.0
14	17	56	28	57	7.0	-185076.0	-9039.0	-1472.0
14	17	56	28	57	8.0	-188364.0	-9101.0	-1574.0
14	17	56	28	58	9.0	-191514.0	-9169.0	-1932.0
14	17	56	28	58	10.0	-194543.0	-9217.0	-1401.0
14	17	56	28	59	11.0	-197437.0	-9254.0	-1174.0
14	17	56	28	60	12.0	-199843.0	-9289.0	-1655.0
14	17	56	28	60	13.0	-201823.0	-9349.0	-2211.0
14	17	56	28	61	14.0	-203769.0	-9413.0	-2018.0
14	17	56	28	61	15.0	-205666.0	-9484.0	-1395.0
14	17	56	28	85	16.0	-206961.0	-9527.0	-1592.0
14	17	56	28	86	17.0	-207991.0	-9576.0	-1791.0
14	17	56	28	86	18.0	-209326.0	-9632.0	-1947.0
14	17	56	28	88	19.0	-209722.0	-9712.0	-1623.0
14	17	56	28	88	20.0	-209572.0	-9759.0	-1687.0
14	17	56	28	89	21.0	-209825.0	-9802.0	-1987.0
14	17	56	28	89	22.0	-210122.0	-9875.0	-1628.0
14	17	56	28	90	23.0	-210404.0	-9912.0	-1882.0
14	17	56	28	91	24.0	-211237.0	-9981.0	-2236.0
14	17	56	28	91	25.0	-212442.0	-10010.0	-1273.0
14	17	56	28	92	26.0	-213361.0	-10077.0	-1599.0
14	17	56	28	93	27.0	-214062.0	-10142.0	-1627.0
14	17	56	28	93	28.0	-215049.0	-10164.0	-1492.0
14	17	56	28	94	29.0	-216039.0	-10209.0	-1343.0
14	17	56	28	94	30.0	-216034.0	-10286.0	-1665.0
14	17	56	28	95	31.0	-215270.0	-10340.0	-2122.0
14	17	56	28	96	32.0	-214373.0	-10377.0	-2067.0
14	17	56	28	96	33.0	-212519.0	-10426.0	-2151.0
14	17	56	28	97	34.0	-210151.0	-10487.0	-2094.0
14	17	56	28	106	35.0	-207691.0	-10510.0	-2059.0
14	17	56	28	106	36.0	-204722.0	-10561.0	-1873.0
14	17	56	28	129	37.0	-200899.0	-10616.0	-2037.0
14	17	56	28	130	38.0	-197434.0	-10665.0	-2344.0
14	17	56	28	131	39.0	-194299.0	-10702.0	-2124.0
14	17	56	28	131	40.0	-190354.0	-10756.0	-2461.0
14	17	56	28	132	41.0	-186919.0	-10787.0	-2306.0
14	17	56	28	132	42.0	-183790.0	-10821.0	-2396.0
14	17	56	28	133	43.0	-181320.0	-10849.0	-2431.0
14	17	56	28	133	44.0	-179174.0	-10899.0	-2741.0
14	17	56	28	134	45.0	-177116.0	-10914.0	-2561.0
14	17	56	28	135	46.0	-176371.0	-10934.0	-2898.0
14	17	56	28	135	47.0	-176814.0	-10948.0	-1584.0
14	17	56	28	136	48.0	-177994.0	-10972.0	-1567.0
14	17	56	28	136	49.0	-179455.0	-10974.0	-2419.0
14	17	56	28	137	50.0	-181153.0	-10954.0	-2316.0
14	17	56	28	137	51.0	-182924.0	-10964.0	-2189.0
14	17	56	28	138	52.0	-185286.0	-10960.0	-2526.0
14	17	56	28	152	53.0	-187269.0	-10924.0	-2427.0
14	17	56	28	152	54.0	-188878.0	-10886.0	-2287.0
14	17	56	28	153	55.0	-190801.0	-10861.0	-2657.0
14	17	56	28	153	56.0	-192977.0	-10833.0	-2431.0
14	17	56	28	174	57.0	-195316.0	-10786.0	-2332.0
14	17	56	28	175	58.0	-198167.0	-10681.0	-2146.0
14	17	56	28	176	59.0	-201074.0	-10595.0	-2029.0
14	17	56	28	176	60.0	-203901.0	-10519.0	-1837.0
14	17	56	28	177	61.0	-206755.0	-10394.0	-1783.0
14	17	56	28	177	62.0	-208955.0	-10265.0	-2321.0
14	17	56	28	178	63.0	-211062.0	-10141.0	-2245.0
14	17	56	28	179	64.0	-213401.0	-10002.0	-1504.0
14	17	56	28	179	65.0	-214922.0	-9879.0	-1304.0
14	17	56	28	180	66.0	-215694.0	-9735.0	-2223.0
14	17	56	28	180	67.0	-215679.0	-9556.0	-1582.0
14	17	56	28	181	68.0	-215199.0	-9393.0	-1217.0
14	17	56	28	181	69.0	-214246.0	-9191.0	-1351.0
14	17	56	28	197	70.0	-212984.0	-8986.0	-977.0
14	17	56	28	198	71.0	-211409.0	-8792.0	-1156.0
14	17	56	28	199	72.0	-209772.0	-8599.0	-1266.0
14	17	56	28	199	73.0	-208365.0	-8368.0	-684.0
14	17	56	28	200	74.0	-206259.0	-8167.0	-748.0
14	17	56	28	200	75.0	-203635.0	-7953.0	-788.0
14	17	56	28	201	76.0	-201806.0	-7701.0	-248.0
14	17	56	28	201	77.0	-199817.0	-7461.0	257.0
14	17	56	28	202	78.0	-197932.0	-7236.0	431.0
14	17	56	28	203	79.0	-196421.0	-7000.0	-431.0
14	17	56	28	203	80.0	-195784.0	-6757.0	-256.0
14	17	56	28	204	81.0	-195767.0	-6515.0	-517.0
14	17	56	28	204	82.0	-195266.0	-6274.0	15.0
14	17	56	28	205	83.0	-195613.0	-6026.0	103.0
14	17	56	28	206	84.0	-197192.0	-5774.0	-222.0
14	17	56	28	206	85.0	-199931.0	-5511.0	336.0
14	17	56	28	207	86.0	-203501.0	-5266.0	802.0
14	17	56	28	207	87.0	-207426.0	-5017.0	784.0
14	17	56	28	208	88.0	-211291.0	-4779.0	692.0
14	17	56	28	208	89.0	-215262.0	-4534.0	-261.0
14	17	56	28	219	90.0	-219164.0	-4281.0	225.0
14	17	56	28	220	91.0	-222059.0	-4033.0	441.0
14	17	56	28	221	92.0	-223775.0	-3806.0	214.0
14	17	56	28	221	93.0	-224576.0	-3575.0	909.0
14	17	56	28	222	94.0	-224516.0	-3344.0	879.0
14	17	56	28	222	95.0	-224389.0	-3131.0	533.0
14	17	56	28	223	96.0	-223854.0	-2898.0	1401.0
14	17	56	28	265	97.0	-222585.0	-2668.0	1469.0
14	17	56	28	266	98.0	-218613.0	-2456.0	1494.0
14	17	56	28	267	99.0	-210629.0	-2241.0	1631.0
14	17	56	28	267	100.0	-200485.0	-2030.0	1036.0
14	17	56	28	268	101.0	-190282.0	-1813.0	1189.0
14	17	56	28	269	102.0	-186576.0	-1611.0	1104.0
14	17	56	28	269	103.0	-186966.0	-1427.0	1006.0
14	17	56	28	270	104.0	-190351.0	-1228.0	598.0
14	17	56	28	270	105.0	-196469.0	-1019.0	433.0
14	17	56	28	271	106.0	-201112.0	-874.0	374.0
14	17	56	28	272	107.0	-202758.0	-687.0	1285.0
14	17	56	28	272	108.0	-202499.0	-514.0	764.0
14	17	56	28	273	109.0	-200892.0	-339.0	517.0
14	17	56	28	273	110.0	-199134.0	-179.0	823.0
14	17	56	28	274	111.0	-196374.0	-42.0	905.0
14	17	56	28	275	112.0	-192274.0	104.0	724.0
14	17	56	28	275	119.0	-190093.0	1041.0	386.0
14	17	56	28	276	120.0	-192709.0	1123.0	583.0
14	17	56	28	276	121.0	-195941.0	1246.0	513.0
14	17	56	28	289	122.0	-198697.0	1338.0	974.0
14	17	56	28	289	123.0	-200584.0	1429.0	569.0
14	17	56	28	290	124.0	-202645.0	1537.0	948.0
14	17	56	28	290	125.0	-204583.0	1645.0	1312.0
14	17	56	28	291	126.0	-206534.0	1726.0	1371.0
14	17	56	28	291	127.0	-208450.0	1803.0	1756.0
14	17	56	28	312	128.0	-209742.0	1894.0	1428.0
14	17	56	28	313	129.0	-210252.0	1988.0	1702.0
14	17	56	28	314	130.0	-210773.0	2054.0	543.0
14	17	56	28	314	131.0	-210543.0	2133.0	463.0
14	17	56	28	315	132.0	-209751.0	2215.0	1110.0
14	17	56	28	315	133.0	-208657.0	2248.0	1129.0
14	17	56	28	316	134.0	-206925.0	2266.0	1041.0
14	17	56	28	317	135.0	-204805.0	2344.0	1861.0
14	17	56	28	317	136.0	-203689.0	2415.0	966.0
14	17	56	28	318	137.0	-203091.0	2424.0	968.0
14	17	56	28	319	138.0	-202156.0	2466.0	1613.0
14	17	56	28	319	139.0	-201600.0	2527.0	827.0
14	17	56	28	320	140.0	-201751.0	2535.0	864.0
14	17	56	28	320	141.0	-202395.0	2568.0	1104.0
14	17	56	28	321	142.0	-203563.0	2618.0	949.0
14	17	56	28	321	143.0	-204878.0	2658.0	821.0
14	17	56	28	322	144.0	-205717.0	2674.0	799.0
14	17	56	28	323	145.0	-206354.0	2687.0	986.0
14	17	56	28	323	146.0	-207135.0	2711.0	897.0
14	17	56	28	324	147.0	-208151.0	2732.0	1091.0
14	17	56	28	334	148.0	-209958.0	2756.0	709.0
14	17	56	28	358	149.0	-212042.0	2750.0	808.0
14	17	56	28	359	150.0	-214057.0	2748.0	738.0
14	17	56	28	360	151.0	-215574.0	2755.0	556.0
14	17	56	28	360	152.0	-217412.0	2777.0	454.0
14	17	56	28	361	153.0	-219085.0	2758.0	396.0
14	17	56	28	361	154.0	-219797.0	2768.0	222.0
14	17	56	28	362	155.0	-220694.0	2778.0	221.0
14	17	56	28	363	156.0	-221389.0	2767.0	1075.0
14	17	56	28	363	157.0	-221831.0	2735.0	536.0
14	17	56	28	364	158.0	-222432.0	2726.0	1008.0
14	17	56	28	364	159.0	-222553.0	2743.0	347.0
14	17	56	28	365	160.0	-221890.0	2709.0	599.0
14	17	56	28	365	161.0	-219646.0	2678.0	813.0
14	17	56	28	366	162.0	-216971.0	2671.0	334.0
14	17	56	28	367	163.0	-214156.0	2627.0	1334.0
14	17	56	28	386	164.0	-210679.0	2586.0	1169.0
14	17	56	28	387	165.0	-207071.0	2579.0	857.0
14	17	56	28	387	166.0	-203644.0	2573.0	818.0
14	17	56	28	388	167.0	-200732.0	2526.0	599.0
14	17	56	28	389	168.0	-198128.0	2469.0	968.0
14	17	56	28	389	169.0	-196197.0	2424.0	659.0
14	17	56	28	390	170.0	-194816.0	2402.0	623.0
14	17	56	28	391	171.0	-192933.0	2386.0	-101.0
14	17	56	28	391	172.0	-191280.0	2338.0	633.0
14	17	56	28	392	173.0	-189557.0	2312.0	1158.0
14	17	56	28	393	174.0	-188092.0	2239.0	1130.0
14	17	56	28	393	175.0	-186423.0	2191.0	1283.0
14	17	56	28	394	176.0	-184179.0	2167.0	1895.0
14	17	56	28	395	177.0	-182259.0	2111.0	1641.0
14	17	56	28	395	178.0	-180447.0	2070.0	1606.0
14	17	56	28	396	179.0	-179882.0	2026.0	1308.0
14	17	56	28	397	180.0	-179449.0	1967.0	1398.0
14	17	56	28	397	181.0	-179918.0	1920.0	1227.0
14	17	56	28	398	182.0	-181579.0	1879.0	736.0
14	17	56	28	415	183.0	-183539.0	1826.0	578.0
14	17	56	28	416	184.0	-186070.0	1767.0	848.0
14	17	56	28	416	185.0	-188542.0	1719.0	288.0
14	17	56	28	417	186.0	-191172.0	1656.0	690.0
14	17	56	28	418	187.0	-193118.0	1601.0	591.0
14	17	56	28	419	188.0	-194576.0	1553.0	521.0
14	17	56	28	419	189.0	-196094.0	1513.0	915.0
14	17	56	28	420	190.0	-197524.0	1429.0	926.0
14	17	56	28	420	191.0	-197827.0	1349.0	446.0
14	17	56	28	421	192.0	-197991.0	1279.0	864.0
14	17	56	28	422	193.0	-197942.0	1212.0	888.0
14	17	56	28	422	194.0	-197646.0	1159.0	528.0
14	17	56	28	423	195.0	-197211.0	1118.0	758.0
14	17	56	28	424	196.0	-196427.0	1036.0	1143.0
14	17	56	28	424	197.0	-195789.0	1006.0	669.0
14	17	56	28	437	198.0	-195785.0	943.0	1003.0
14	17	56	28	438	199.0	-195225.0	851.0	1024.0
14	17	56	28	438	200.0	-194329.0	809.0	681.0
14	17	56	28	439	201.0	-193167.0	754.0	284.0
14	17	56	28	460	202.0	-191536.0	693.0	590.0
14	17	56	28	461	203.0	-189707.0	623.0	346.0
14	17	56	28	461	204.0	-188667.0	564.0	795.0
14	17	56	28	462	205.0	-187565.0	491.0	1031.0
14	17	56	28	463	206.0	-186223.0	444.0	1082.0
14	17	56	28	463	207.0	-184922.0	391.0	956.0
14	17	56	28	464	208.0	-183661.0	339.0	551.0
14	17	56	28	464	209.0	-183506.0	283.0	935.0
14	17	56	28	465	210.0	-183534.0	223.0	1037.0
14	17	56	28	465	211.0	-183507.0	162.0	655.0
14	17	56	28	466	212.0	-183497.0	117.0	413.0
14	17	56	28	467	213.0	-183821.0	49.0	1128.0
14	17	56	28	467	214.0	-184105.0	-43.0	493.0
14	17	56	28	468	215.0	-184224.0	-47.0	490.0
14	17	56	28	487	216.0	-184711.0	-77.0	882.0
14	17	56	28	487	217.0	-185217.0	-144.0	266.0
14	17	56	28	510	218.0	-185854.0	-187.0	531.0
14	17	56	28	510	219.0	-186412.0	-247.0	947.0
14	17	56	28	511	220.0	-186852.0	-287.0	389.0
14	17	56	28	511	221.0	-187191.0	-306.0	372.0
14	17	56	28	512	222.0	-187197.0	-346.0	864.0
14	17	56	28	512	223.0	-188674.0	-403.0	536.0
14	17	56	28	513	224.0	-190604.0	-426.0	549.0
14	17	56	28	513	225.0	-191931.0	-476.0	386.0
14	17	56	28	514	226.0	-192953.0	-529.0	307.0
14	17	56	28	514	227.0	-192649.0	-565.0	413.0
14	17	56	28	515	228.0	-191709.0	-566.0	423.0
14	17	56	28	516	229.0	-190792.0	-633.0	326.0
14	17	56	28	516	230.0	-190439.0	-662.0	-9.0
14	17	56	28	517	231.0	-190784.0	-721.0	-246.0
14	17	56	28	517	232.0	-191118.0	-742.0	219.0
14	17	56	28	518	233.0	-190748.0	-773.0	-252.0
14	17	56	28	518	234.0	-190552.0	-814.0	-322.0
14	17	56	28	519	235.0	-190769.0	-852.0	143.0
14	17	56	28	519	236.0	-190937.0	-851.0	-527.0
14	17	56	28	520	237.0	-191273.0	-844.0	-60.0
14	17	56	28	520	238.0	-192123.0	-892.0	-153.0
14	17	56	28	521	239.0	-193107.0	-933.0	-72.0
14	17	56	28	522	240.0	-193591.0	-982.0	-84.0
14	17	56	28	522	241.0	-194122.0	-998.0	-237.0
14	17	56	28	523	242.0	-194523.0	-994.0	-244.0
14	17	56	28	523	243.0	-193975.0	-1025.0	-9.0
14	17	56	28	524	244.0	-193579.0	-1062.0	-188.0
14	17	56	28	524	245.0	-193669.0	-1085.0	-832.0
14	17	56	28	535	246.0	-193636.0	-1092.0	-604.0
14	17	56	28	535	247.0	-193282.0	-1117.0	-469.0
14	17	56	28	536	248.0	-192524.0	-1142.0	-841.0
14	17	56	28	536	249.0	-192377.0	-1157.0	-851.0
14	17	56	28	537	250.0	-192368.0	-1188.0	-882.0
14	17	56	28	538	251.0	-192226.0	-1203.0	-1023.0
14	17	56	28	538	252.0	-191434.0	-1240.0	-1487.0
14	17	56	28	539	253.0	-189796.0	-1248.0	-1382.0
14	17	56	28	539	254.0	-188706.0	-1254.0	-1466.0
14	17	56	28	557	255.0	-187286.0	-1280.0	-1476.0
14	17	56	28	558	0.0	-185844.0	-1307.0	-973.0
14	17	56	28	559	1.0	-184217.0	-1337.0	-1542.0
14	17	56	28	559	2.0	-182716.0	-1340.0	-1682.0
14	17	56	28	560	3.0	-181197.0	-1361.0	-1029.0
14	17	56	28	560	4.0	-179899.0	-1379.0	-1326.0
14	17	56	28	561	5.0	-179597.0	-1437.0	-1401.0
14	17	56	28	561	6.0	-179831.0	-1441.0	-965.0
14	17	56	28	580	7.0	-179983.0	-1447.0	-1102.0
14	17	56	28	581	8.0	-180119.0	-1476.0	-718.0
14	17	56	28	582	9.0	-180988.0	-1497.0	-1109.0
14	17	56	28	582	10.0	-181960.0	-1508.0	-612.0
14	17	56	28	583	11.0	-182646.0	-1533.0	-886.0
14	17	56	28	583	12.0	-183574.0	-1564.0	-403.0
14	17	56	28	584	13.0	-184155.0	-1595.0	-528.0
14	17	56	28	584	14.0	-183839.0	-1619.0	-424.0
14	17	56	28	585	15.0	-183824.0	-1644.0	-389.0
14	17	56	28	585	16.0	-183886.0	-1667.0	-141.0
14	17	56	28	586	17.0	-183894.0	-1684.0	-1074.0
14	17	56	28	587	18.0	-184561.0	-1717.0	-862.0
14	17	56	28	587	19.0	-184935.0	-1742.0	-843.0
14	17	56	28	588	20.0	-185089.0	-1782.0	-603.0
14	17	56	28	588	21.0	-186031.0	-1810.0	-1169.0
14	17	56	28	603	22.0	-187335.0	-1829.0	-847.0
14	17	56	28	604	23.0	-188854.0	-1836.0	-474.0
14	17	56	28	604	24.0	-190583.0	-1857.0	-721.0
14	17	56	28	626	25.0	-192542.0	-1900.0	-428.0
14	17	56	28	627	26.0	-194565.0	-1941.0	-475.0
14	17	56	28	627	27.0	-196518.0	-1977.0	-612.0
14	17	56	28	628	28.0	-197774.0	-2012.0	-656.0
14	17	56	28	629	29.0	-199076.0	-2030.0	-803.0
14	17	56	28	629	30.0	-200027.0	-2059.0	86.0
14	17	56	28	630	31.0	-201685.0	-2082.0	-413.0
14	17	56	28	630	32.0	-203097.0	-2094.0	-590.0
14	17	56	28	631	33.0	-203305.0	-2157.0	-7.0
14	17	56	28	631	34.0	-202996.0	-2186.0	-362.0
14	17	56	28	632	35.0	-202424.0	-2226.0	107.0
14	17	56	28	632	36.0	-201100.0	-2263.0	-313.0
14	17	56	28	633	37.0	-199435.0	-2302.0	-436.0
14	17	56	28	633	38.0	-198089.0	-2342.0	-727.0
14	17	56	28	649	39.0	-196935.0	-2391.0	-481.0
14	17	56	28	649	40.0	-195528.0	-2427.0	-607.0
14	17	56	28	650	41.0	-194047.0	-2415.0	-692.0
14	17	56	28	650	42.0	-192156.0	-2477.0	-1092.0
14	17	56	28	651	43.0	-190632.0	-2551.0	-676.0
14	17	56	28	652	44.0	-189422.0	-2590.0	-1052.0
14	17	56	28	652	45.0	-188461.0	-2634.0	-801.0
14	17	56	28	653	46.0	-188297.0	-2664.0	-886.0
14	17	56	28	654	47.0	-187839.0	-2685.0	-1100.0
14	17	56	28	654	48.0	-187752.0	-2722.0	-602.0
14	17	56	28	655	49.0	-188235.0	-2796.0	-249.0
14	17	56	28	655	50.0	-188592.0	-2851.0	-566.0
14	17	56	28	656	51.0	-188731.0	-2901.0	-513.0
14	17	56	28	656	52.0	-188678.0	-2972.0	-995.0
14	17	56	28	657	53.0	-188444.0	-2989.0	76.0
14	17	56	28	658	54.0	-188081.0	-3025.0	-241.0
14	17	56	28	658	55.0	-187467.0	-3080.0	175.0
14	17	56	28	659	56.0	-187032.0	-3128.0	289.0
14	17	56	28	659	57.0	-186802.0	-3177.0	-650.0
14	17	56	28	671	58.0	-187138.0	-3245.0	-898.0
14	17	56	28	672	59.0	-187498.0	-3287.0	-1116.0
14	17	56	28	673	60.0	-188086.0	-3345.0	-3020.0
14	17	56	28	673	61.0	-189161.0	-3364.0	-4956.0
14	17	56	28	674	62.0	-190259.0	-3414.0	-6911.0
14	17	56	28	674	63.0	-191696.0	-3484.0	-10110.0
14	17	56	28	675	64.0	-193111.0	-3529.0	-12666.0
14	17	56	28	694	65.0	-194453.0	-3590.0	-13349.0
14	17	56	28	695	66.0	-196007.0	-3632.0	-12552.0
14	17	56	28	695	67.0	-198323.0	-3689.0	-10660.0
14	17	56	28	696	68.0	-201014.0	-3731.0	-8922.0
14	17	56	28	696	69.0	-203596.0	-3767.0	-7437.0
14	17	56	28	697	70.0	-206407.0	-3786.0	-5979.0
14	17	56	28	697	71.0	-208011.0	-3840.0	-3914.0
14	17	56	28	698	72.0	-204524.0	-3909.0	-1377.0
14	17	56	28	699	73.0	-224719.0	-3976.0	2171.0
14	17	56	28	699	74.0	-215372.0	-4041.0	4716.0
14	17	56	28	717	75.0	-221132.0	-4099.0	6190.0
14	17	56	28	717	76.0	-219497.0	-4152.0	8523.0
14	17	56	28	718	77.0	-222001.0	-4188.0	10733.0
14	17	56	28	719	78.0	-223967.0	-4248.0	11654.0
14	17	56	28	719	79.0	-226085.0	-4294.0	12768.0
14	17	56	28	720	80.0	-227682.0	-4348.0	13249.0
14	17	56	28	720	81.0	-228787.0	-4415.0	13053.0
14	17	56	28	721	82.0	-226984.0	-4493.0	12168.0
14	17	56	28	721	83.0	-220709.0	-4514.0	10908.0
14	17	56	28	722	84.0	-210393.0	-4579.0	9126.0
14	17	56	28	723	85.0	-198933.0	-4669.0	7691.0
14	17	56	28	723	86.0	-188399.0	-4706.0	5512.0
14	17	56	28	724	87.0	-180203.0	-4757.0	4497.0
14	17	56	28	724	88.0	-173581.0	-4796.0	2932.0
14	17	56	28	725	89.0	-166257.0	-4870.0	1253.0
14	17	56	28	725	90.0	-157332.0	-4940.0	631.0
14	17	56	28	726	91.0	-148936.0	-4977.0	969.0
14	17	56	28	745	92.0	-143809.0	-5016.0	215.0
14	17	56	28	746	93.0	-143549.0	-5071.0	-2.0
14	17	56	28	747	94.0	-147893.0	-5126.0	-293.0
14	17	56	28	748	95.0	-155130.0	-5185.0	71.0
14	17	56	28	748	96.0	-164204.0	-5260.0	-664.0
14	17	56	28	749	97.0	-174138.0	-5327.0	-1483.0
14	17	56	28	749	98.0	-184854.0	-5366.0	-450.0
14	17	56	28	750	99.0	-194649.0	-5408.0	-614.0
14	17	56	28	750	100.0	-202614.0	-5460.0	-855.0
14	17	56	28	751	101.0	-207727.0	-5517.0	-1094.0
14	17	56	28	768	102.0	-209554.0	-5589.0	-1226.0
14	17	56	28	769	103.0	-209172.0	-5661.0	-1425.0
14	17	56	28	770	104.0	-207147.0	-5698.0	-1237.0
14	17	56	28	770	105.0	-205468.0	-5762.0	-791.0
14	17	56	28	771	106.0	-205757.0	-5816.0	-1730.0
14	17	56	28	771	107.0	-208412.0	-5892.0	-1546.0
14	17	56	28	772	108.0	-212581.0	-5931.0	-1464.0
14	17	56	28	792	109.0	-215821.0	-5972.0	-1661.0
14	17	56	28	792	110.0	-216499.0	-6041.0	-1846.0
14	17	56	28	793	111.0	-214798.0	-6112.0	-1689.0
14	17	56	28	793	112.0	-211669.0	-6173.0	-1084.0
14	17	56	28	794	113.0	-207688.0	-6199.0	-1462.0
14	17	56	28	795	114.0	-203676.0	-6254.0	-1659.0
14	17	56	28	795	115.0	-200111.0	-6309.0	-1971.0
14	17	56	28	796	116.0	-196453.0	-6404.0	-1429.0
14	17	56	28	796	117.0	-192824.0	-6449.0	-1571.0
14	17	56	28	797	118.0	-189370.0	-6502.0	-1502.0
14	17	56	28	797	119.0	-186465.0	-6556.0	-1743.0
14	17	56	28	798	120.0	-183886.0	-6609.0	-1412.0
14	17	56	28	798	121.0	-181682.0	-6673.0	-1007.0
14	17	56	28	799	122.0	-180026.0	-6706.0	-1346.0
14	17	56	28	799	123.0	-178616.0	-6763.0	-1451.0
14	17	56	28	800	124.0	-177206.0	-6837.0	-2089.0
14	17	56	28	801	125.0	-176077.0	-6932.0	-1390.0
14	17	56	28	821	126.0	-175172.0	-6991.0	-1742.0
14	17	56	28	822	127.0	-174653.0	-7033.0	-2173.0
14	17	56	28	823	128.0	-174406.0	-7080.0	-2136.0
14	17	56	28	823	129.0	-174546.0	-7135.0	-1750.0
14	17	56	28	824	130.0	-175075.0	-7185.0	-1496.0
14	17	56	28	824	131.0	-175180.0	-7234.0	-1452.0
14	17	56	28	825	132.0	-174929.0	-7311.0	-1830.0
14	17	56	28	826	133.0	-175149.0	-7347.0	-1111.0
14	17	56	28	826	134.0	-176385.0	-7379.0	-1150.0
14	17	56	28	827	135.0	-177896.0	-7457.0	-2233.0
14	17	56	28	827	136.0	-180064.0	-7562.0	-2150.0
14	17	56	28	828	137.0	-183301.0	-7665.0	-2251.0
14	17	56	28	829	138.0	-186811.0	-7688.0	-2191.0
14	17	56	28	829	139.0	-189731.0	-7741.0	-2222.0
