14	15	7	32	749	1.0	62903.0	-5537793.0	-32768.0
14	15	7	32	752	2.0	-516969.0	8388607.0	-8388608.0
14	15	7	32	754	3.0	-419777.0	6747130.0	-7762541.0
14	15	7	32	757	4.0	-353454.0	5583718.0	-6541801.0
14	15	7	32	759	5.0	-304452.0	4738995.0	-5647522.0
14	15	7	32	761	6.0	-267009.0	4096996.0	-4961668.0
14	15	7	32	762	7.0	-237145.0	3590044.0	-4418784.0
14	15	7	32	764	8.0	-213231.0	3183604.0	-3982127.0
14	15	7	32	765	9.0	-198013.0	2912881.0	-3702144.0
14	15	7	32	767	10.0	-194864.0	2817114.0	-3647137.0
14	15	7	32	768	11.0	-194231.0	2752699.0	-3643738.0
14	15	7	32	769	12.0	-194800.0	2649581.0	-3640846.0
14	15	7	32	770	13.0	-194326.0	2533951.0	-3637908.0
14	15	7	32	770	14.0	-193644.0	2428153.0	-3636764.0
14	15	7	32	771	15.0	-193812.0	2351319.0	-3635971.0
14	15	7	32	772	16.0	-195809.0	2312544.0	-3635131.0
14	15	7	32	772	17.0	-197741.0	2284081.0	-3632427.0
14	15	7	32	791	18.0	-199353.0	2255184.0	-3630303.0
14	15	7	32	792	19.0	-201004.0	2229076.0	-3627079.0
14	15	7	32	792	20.0	-202528.0	2205048.0	-3623663.0
14	15	7	32	793	21.0	-203235.0	2181013.0	-3621816.0
14	15	7	32	793	22.0	-202839.0	2156398.0	-3619304.0
14	15	7	32	794	23.0	-202733.0	2131445.0	-3616219.0
14	15	7	32	795	24.0	-201769.0	2104992.0	-3615322.0
14	15	7	32	795	25.0	-200928.0	2077066.0	-3613605.0
14	15	7	32	796	26.0	-201705.0	2052143.0	-3611846.0
14	15	7	32	796	27.0	-202055.0	2028459.0	-3609269.0
14	15	7	32	797	28.0	-202465.0	2005313.0	-3606229.0
14	15	7	32	798	29.0	-203415.0	1982349.0	-3603011.0
14	15	7	32	798	30.0	-204246.0	1958559.0	-3600312.0
14	15	7	32	799	31.0	-204165.0	1935935.0	-3598234.0
14	15	7	32	799	32.0	-206685.0	1913859.0	-3595376.0
14	15	7	32	800	35.0	-202916.0	1846750.0	-3589726.0
14	15	7	32	801	36.0	-200995.0	1824464.0	-3587197.0
14	15	7	32	801	37.0	-201381.0	1800596.0	-3583881.0
14	15	7	32	802	38.0	-199699.0	1778624.0	-3581227.0
14	15	7	32	802	39.0	-196743.0	1757291.0	-3577864.0
14	15	7	32	803	40.0	-195087.0	1735914.0	-3574371.0
14	15	7	32	804	41.0	-195982.0	1715126.0	-3571879.0
14	15	7	32	836	42.0	-195859.0	1694771.0	-3569557.0
14	15	7	32	836	43.0	-195760.0	1674854.0	-3566437.0
14	15	7	32	837	44.0	-196109.0	1654086.0	-3566203.0
14	15	7	32	838	45.0	-198796.0	1632247.0	-3564671.0
14	15	7	32	838	46.0	-201885.0	1610559.0	-3562886.0
14	15	7	32	839	47.0	-202128.0	1596393.0	-3560785.0
14	15	7	32	880	48.0	-201296.0	1580698.0	-3557702.0
14	15	7	32	926	49.0	-203972.0	1562866.0	-3553473.0
14	15	7	32	926	50.0	-204488.0	1544277.0	-3551052.0
14	15	7	32	927	51.0	-204022.0	1525241.0	-3548709.0
14	15	7	32	928	52.0	-204166.0	1507049.0	-3545964.0
14	15	7	32	928	53.0	-203943.0	1489646.0	-3545561.0
14	15	7	32	929	54.0	-202411.0	1472376.0	-3545746.0
14	15	7	32	929	55.0	-199908.0	1454430.0	-3544145.0
14	15	7	32	930	56.0	-199507.0	1436086.0	-3542034.0
14	15	7	32	931	58.0	-196832.0	1403031.0	-3536889.0
14	15	7	32	931	59.0	-194163.0	1396913.0	-3532742.0
14	15	7	32	932	60.0	-191408.0	1383107.0	-3528971.0
14	15	7	32	932	61.0	-188317.0	1365088.0	-3526409.0
14	15	7	32	933	62.0	-185064.0	1346637.0	-3523302.0
14	15	7	32	933	63.0	-181699.0	1328438.0	-3519538.0
14	15	7	32	934	80.0	-204670.0	1037604.0	-3482910.0
14	15	7	32	935	81.0	-204235.0	1022613.0	-3480642.0
14	15	7	32	935	103.0	-199759.0	737506.0	-3429968.0
14	15	7	32	936	104.0	-198807.0	725617.0	-3428703.0
14	15	7	32	936	105.0	-197306.0	712737.0	-3427102.0
14	15	7	32	937	106.0	-195594.0	700781.0	-3426681.0
14	15	7	32	937	107.0	-193798.0	689588.0	-3424442.0
14	15	7	32	938	108.0	-191909.0	678439.0	-3421121.0
14	15	7	32	939	109.0	-190271.0	666939.0	-3416804.0
14	15	7	32	971	110.0	-188842.0	656524.0	-3412297.0
14	15	7	32	972	111.0	-187410.0	646776.0	-3408786.0
14	15	7	32	972	112.0	-186632.0	635906.0	-3405146.0
14	15	7	32	973	113.0	-186344.0	624746.0	-3401402.0
14	15	7	32	973	114.0	-186386.0	613918.0	-3400144.0
14	15	7	32	974	115.0	-186868.0	603338.0	-3399183.0
14	15	7	32	975	116.0	-187594.0	593061.0	-3396841.0
14	15	7	32	975	117.0	-188263.0	582260.0	-3393619.0
14	15	7	32	976	118.0	-189120.0	571218.0	-3390631.0
14	15	7	32	977	119.0	-190488.0	560258.0	-3387047.0
14	15	7	32	977	120.0	-192727.0	549851.0	-3383667.0
14	15	7	32	978	121.0	-196398.0	539491.0	-3380497.0
14	15	7	32	978	122.0	-200562.0	529178.0	-3378107.0
14	15	7	32	979	123.0	-203884.0	518977.0	-3375581.0
14	15	7	32	980	124.0	-206062.0	507856.0	-3374210.0
14	15	7	32	981	125.0	-207632.0	497899.0	-3371972.0
14	15	7	32	981	126.0	-208485.0	488264.0	-3370503.0
14	15	7	32	982	127.0	-208614.0	478530.0	-3367724.0
14	15	7	32	983	128.0	-208711.0	468313.0	-3364639.0
14	15	7	32	983	129.0	-209554.0	459478.0	-3361146.0
14	15	7	32	984	130.0	-210066.0	449944.0	-3358046.0
14	15	7	32	985	131.0	-209246.0	439716.0	-3354571.0
14	15	7	33	16	132.0	-207745.0	430221.0	-3351437.0
14	15	7	33	17	133.0	-205559.0	421193.0	-3348716.0
14	15	7	33	18	134.0	-202615.0	411738.0	-3347411.0
14	15	7	33	18	135.0	-198776.0	401093.0	-3345274.0
14	15	7	33	19	136.0	-194730.0	381460.0	-3343205.0
14	15	7	33	20	137.0	-191933.0	365346.0	-3340377.0
14	15	7	33	20	138.0	-189248.0	356305.0	-3336657.0
14	15	7	33	21	139.0	-186970.0	346567.0	-3332939.0
14	15	7	33	21	140.0	-184904.0	337594.0	-3329759.0
14	15	7	33	22	141.0	-182691.0	329328.0	-3327422.0
14	15	7	33	22	142.0	-180669.0	320647.0	-3325207.0
14	15	7	33	23	143.0	-179128.0	312644.0	-3322389.0
14	15	7	33	24	144.0	-177811.0	304882.0	-3320719.0
14	15	7	33	24	145.0	-176985.0	296145.0	-3318024.0
14	15	7	33	25	146.0	-176642.0	286853.0	-3315123.0
14	15	7	33	25	148.0	-176681.0	270693.0	-3306707.0
14	15	7	33	26	149.0	-179303.0	263220.0	-3301872.0
14	15	7	33	27	150.0	-182436.0	255651.0	-3296776.0
14	15	7	33	27	151.0	-185687.0	247161.0	-3292324.0
14	15	7	33	28	152.0	-190856.0	238674.0	-3283369.0
14	15	7	33	28	153.0	-196231.0	231148.0	-3270255.0
14	15	7	33	107	154.0	-201605.0	224090.0	-3257425.0
14	15	7	33	107	155.0	-202014.0	208456.0	-3231731.0
14	15	7	33	108	156.0	-203384.0	191015.0	-3204136.0
14	15	7	33	108	157.0	-208236.0	182278.0	-3183857.0
14	15	7	33	109	158.0	-211297.0	174115.0	-3167447.0
14	15	7	33	110	159.0	-212525.0	165584.0	-3150972.0
14	15	7	33	110	160.0	-215006.0	157176.0	-3136029.0
14	15	7	33	111	161.0	-215487.0	149938.0	-3117821.0
14	15	7	33	112	162.0	-212427.0	142730.0	-3096441.0
14	15	7	33	112	163.0	-211054.0	134141.0	-3076424.0
14	15	7	33	113	164.0	-209945.0	126184.0	-3060137.0
14	15	7	33	113	165.0	-209634.0	118432.0	-3039459.0
14	15	7	33	114	166.0	-210419.0	111096.0	-3010357.0
14	15	7	33	114	167.0	-212492.0	104071.0	-3006690.0
14	15	7	33	115	168.0	-210453.0	94414.0	-3012945.0
14	15	7	33	116	170.0	-205288.0	74021.0	-2792912.0
14	15	7	33	116	193.0	-209048.0	-76178.0	-2016833.0
14	15	7	33	117	194.0	-207982.0	-83659.0	-1991738.0
14	15	7	33	117	195.0	-206679.0	-90779.0	-1972884.0
14	15	7	33	118	196.0	-204948.0	-97498.0	-1953132.0
14	15	7	33	119	197.0	-204335.0	-103992.0	-1924192.0
14	15	7	33	119	198.0	-200784.0	-109496.0	-1880904.0
14	15	7	33	152	199.0	-198376.0	-117039.0	-1830676.0
14	15	7	33	153	200.0	-195957.0	-127254.0	-1784954.0
14	15	7	33	153	201.0	-191832.0	-135084.0	-1746051.0
14	15	7	33	154	202.0	-188627.0	-143087.0	-1709634.0
14	15	7	33	155	203.0	-187089.0	-149989.0	-1672517.0
14	15	7	33	155	204.0	-186209.0	-154871.0	-1647195.0
14	15	7	33	156	205.0	-185899.0	-160887.0	-1627566.0
14	15	7	33	156	206.0	-185620.0	-167197.0	-1609962.0
14	15	7	33	157	207.0	-185639.0	-173874.0	-1587315.0
14	15	7	33	158	208.0	-185963.0	-180729.0	-1557848.0
14	15	7	33	158	209.0	-185782.0	-188059.0	-1533082.0
14	15	7	33	159	210.0	-184920.0	-194887.0	-1509856.0
14	15	7	33	160	211.0	-185659.0	-202052.0	-1494752.0
14	15	7	33	160	212.0	-187407.0	-209279.0	-1476467.0
14	15	7	33	161	213.0	-190416.0	-212612.0	-1453618.0
14	15	7	33	161	215.0	-194831.0	-220618.0	-1444627.0
14	15	7	33	162	216.0	-196514.0	-231748.0	-1456179.0
14	15	7	33	162	217.0	-198585.0	-244283.0	-1464911.0
14	15	7	33	163	218.0	-201116.0	-254100.0	-1469427.0
14	15	7	33	163	219.0	-200687.0	-263117.0	-1462552.0
14	15	7	33	164	220.0	-204561.0	-273579.0	-1446435.0
14	15	7	33	195	221.0	-206323.0	-253925.0	-1430399.0
14	15	7	33	196	222.0	-207699.0	-107337.0	-1416976.0
14	15	7	33	240	223.0	-209003.0	-59627.0	-1402853.0
14	15	7	33	241	224.0	-210579.0	-59537.0	-1398516.0
14	15	7	33	242	225.0	-210892.0	-59485.0	-1400487.0
14	15	7	33	242	226.0	-208962.0	-77649.0	-1409559.0
14	15	7	33	243	227.0	-207224.0	-111667.0	-1413855.0
14	15	7	33	244	228.0	-206063.0	-61412.0	-1412300.0
14	15	7	33	244	229.0	-205732.0	-41839.0	-1409361.0
14	15	7	33	245	230.0	-205249.0	-58326.0	-1410564.0
14	15	7	33	245	231.0	-204276.0	-58829.0	-1405911.0
14	15	7	33	246	232.0	-203472.0	-58741.0	-1394789.0
14	15	7	33	247	233.0	-202439.0	-58667.0	-1382906.0
14	15	7	33	247	234.0	-202314.0	-58621.0	-1388252.0
14	15	7	33	248	235.0	-202827.0	-58536.0	-1409857.0
14	15	7	33	248	237.0	-205834.0	-58391.0	-1490716.0
14	15	7	33	249	238.0	-209891.0	-58305.0	-1539930.0
14	15	7	33	250	4.0	-193597.0	-57026.0	-1769537.0
14	15	7	33	250	5.0	-192771.0	-56966.0	-1749645.0
14	15	7	33	285	6.0	-192567.0	-56887.0	-1691709.0
14	15	7	33	286	7.0	-192969.0	-56841.0	-1618814.0
14	15	7	33	287	8.0	-193664.0	-56802.0	-1609897.0
14	15	7	33	288	9.0	-194133.0	-56697.0	-1594523.0
14	15	7	33	288	10.0	-193962.0	-56616.0	-1551648.0
14	15	7	33	289	11.0	-194561.0	-56558.0	-1609827.0
14	15	7	33	290	12.0	-195313.0	-56461.0	-1720441.0
14	15	7	33	290	13.0	-196021.0	-56361.0	-1780039.0
14	15	7	33	291	14.0	-196836.0	-56251.0	-1805002.0
14	15	7	33	291	15.0	-197661.0	-56150.0	-1818118.0
14	15	7	33	292	16.0	-198462.0	-56040.0	-1816125.0
14	15	7	33	293	17.0	-199365.0	-55931.0	-1927379.0
14	15	7	33	293	18.0	-199852.0	-55808.0	-2184412.0
14	15	7	33	294	19.0	-200112.0	-55701.0	-2532726.0
14	15	7	33	295	20.0	-200304.0	-55582.0	-2941312.0
14	15	7	33	295	26.0	-199733.0	-54722.0	-5334133.0
14	15	7	33	296	27.0	-199002.0	-54548.0	-5540887.0
14	15	7	33	296	28.0	-198489.0	-54404.0	-5634696.0
14	15	7	33	297	29.0	-197982.0	-54284.0	-5647256.0
14	15	7	33	298	30.0	-197394.0	-54156.0	-5642351.0
14	15	7	33	298	31.0	-196889.0	-54039.0	-5635653.0
14	15	7	33	299	32.0	-196541.0	-53922.0	-5629699.0
14	15	7	33	330	33.0	-196544.0	-53796.0	-5625000.0
14	15	7	33	331	34.0	-197038.0	-53675.0	-5621081.0
14	15	7	33	332	35.0	-197651.0	-53563.0	-5618739.0
14	15	7	33	332	36.0	-198482.0	-53472.0	-5615975.0
14	15	7	33	333	37.0	-199538.0	-53361.0	-5613132.0
14	15	7	33	334	38.0	-200391.0	-53235.0	-5611536.0
14	15	7	33	334	39.0	-201058.0	-53137.0	-5609444.0
14	15	7	33	335	40.0	-201601.0	-53057.0	-5604803.0
14	15	7	33	336	41.0	-202115.0	-52950.0	-5600155.0
14	15	7	33	336	42.0	-202496.0	-52871.0	-5597881.0
14	15	7	33	337	43.0	-202801.0	-52851.0	-5597982.0
14	15	7	33	338	44.0	-202906.0	-52930.0	-5601178.0
14	15	7	33	338	45.0	-202964.0	-52883.0	-5606282.0
14	15	7	33	339	46.0	-202961.0	-52751.0	-5611656.0
14	15	7	33	340	47.0	-202683.0	-52637.0	-5616987.0
14	15	7	33	340	49.0	-201867.0	-52350.0	-5625669.0
14	15	7	33	341	50.0	-201739.0	-52183.0	-5629923.0
14	15	7	33	341	51.0	-201896.0	-52007.0	-5634081.0
14	15	7	33	342	52.0	-202436.0	-51822.0	-5642932.0
14	15	7	33	343	53.0	-202786.0	-51614.0	-5653907.0
14	15	7	33	343	54.0	-203171.0	-51392.0	-5662673.0
14	15	7	33	375	55.0	-203824.0	-51172.0	-5671001.0
14	15	7	33	375	56.0	-204203.0	-50913.0	-5679997.0
14	15	7	33	376	57.0	-204204.0	-50438.0	-5689397.0
14	15	7	33	377	58.0	-204076.0	-50069.0	-5698034.0
14	15	7	33	377	59.0	-203574.0	-49786.0	-5704161.0
14	15	7	33	378	60.0	-202949.0	-49493.0	-5708562.0
14	15	7	33	379	61.0	-202217.0	-49113.0	-5724266.0
14	15	7	33	379	62.0	-201516.0	-48744.0	-5720614.0
14	15	7	33	380	63.0	-200739.0	-48450.0	-5225384.0
14	15	7	33	381	64.0	-200002.0	-48157.0	-4212430.0
14	15	7	33	381	65.0	-199381.0	-47857.0	-3189356.0
14	15	7	33	382	66.0	-199068.0	-47557.0	-2216967.0
14	15	7	33	383	67.0	-199016.0	-47264.0	-1279477.0
14	15	7	33	383	68.0	-199336.0	-46995.0	-485403.0
14	15	7	33	384	69.0	-199679.0	-46689.0	153303.0
14	15	7	33	384	71.0	-200231.0	-46075.0	1313298.0
14	15	7	33	385	72.0	-200336.0	-45737.0	1865083.0
14	15	7	33	386	73.0	-200570.0	-45398.0	2422286.0
14	15	7	33	386	74.0	-200634.0	-45077.0	3018732.0
14	15	7	33	387	75.0	-200812.0	-44744.0	3648152.0
14	15	7	33	388	76.0	-201098.0	-44411.0	4292761.0
14	15	7	33	388	77.0	-201157.0	-44111.0	4942804.0
14	15	7	33	421	78.0	-200919.0	-43809.0	5553731.0
14	15	7	33	421	79.0	-200714.0	-43526.0	6037328.0
14	15	7	33	422	80.0	-200547.0	-43233.0	6199727.0
14	15	7	33	423	81.0	-200297.0	-42957.0	6198997.0
14	15	7	33	424	82.0	-200198.0	-42692.0	6193024.0
14	15	7	33	424	83.0	-200116.0	-42416.0	6191012.0
14	15	7	33	425	84.0	-199858.0	-42152.0	6193996.0
14	15	7	33	426	85.0	-199610.0	-41883.0	6201768.0
14	15	7	33	426	86.0	-199272.0	-41594.0	6213018.0
14	15	7	33	427	87.0	-198644.0	-41325.0	6226284.0
14	15	7	33	427	88.0	-197886.0	-41056.0	6241225.0
14	15	7	33	428	89.0	-197249.0	-40790.0	6256796.0
14	15	7	33	429	90.0	-196823.0	-40507.0	6272284.0
14	15	7	33	429	91.0	-196685.0	-40215.0	6286907.0
14	15	7	33	430	92.0	-196612.0	-39925.0	6300678.0
14	15	7	33	431	94.0	-197144.0	-39320.0	6324093.0
14	15	7	33	431	95.0	-197662.0	-39025.0	6332170.0
14	15	7	33	432	96.0	-198278.0	-38693.0	6336631.0
14	15	7	33	432	97.0	-199156.0	-38381.0	6337411.0
14	15	7	33	433	98.0	-200023.0	-38059.0	6335339.0
14	15	7	33	433	99.0	-201047.0	-37733.0	6332839.0
14	15	7	33	467	100.0	-201921.0	-37386.0	6330487.0
14	15	7	33	467	101.0	-202569.0	-37059.0	6327881.0
14	15	7	33	468	102.0	-202799.0	-36712.0	6324463.0
14	15	7	33	510	103.0	-202980.0	-36364.0	6321133.0
14	15	7	33	511	104.0	-203278.0	-36010.0	6319766.0
14	15	7	33	512	105.0	-203623.0	-35681.0	6320064.0
14	15	7	33	513	106.0	-203785.0	-35322.0	6321289.0
14	15	7	33	513	107.0	-203502.0	-34982.0	6326014.0
14	15	7	33	514	108.0	-202822.0	-34639.0	6338774.0
14	15	7	33	515	109.0	-202192.0	-34287.0	6360181.0
14	15	7	33	516	110.0	-202404.0	-33946.0	6380532.0
14	15	7	33	516	111.0	-203044.0	-33601.0	6385261.0
14	15	7	33	517	112.0	-203850.0	-33267.0	6372269.0
14	15	7	33	517	113.0	-204472.0	-32949.0	6350464.0
14	15	7	33	518	114.0	-204793.0	-32618.0	6330270.0
14	15	7	33	518	116.0	-205086.0	-31969.0	6310140.0
14	15	7	33	519	117.0	-204601.0	-31645.0	6309865.0
14	15	7	33	519	118.0	-204038.0	-31315.0	6312494.0
14	15	7	33	520	139.0	-196523.0	-25751.0	586571.0
14	15	7	33	520	140.0	-196326.0	-25511.0	751128.0
14	15	7	33	521	141.0	-196342.0	-25332.0	920576.0
14	15	7	33	522	142.0	-196385.0	-25124.0	1058414.0
14	15	7	33	523	143.0	-196052.0	-24939.0	1175886.0
14	15	7	33	523	144.0	-195752.0	-24763.0	1286205.0
14	15	7	33	556	145.0	-195589.0	-24590.0	1389396.0
14	15	7	33	556	146.0	-195509.0	-24435.0	1482248.0
14	15	7	33	557	147.0	-195814.0	-24266.0	1567439.0
14	15	7	33	558	148.0	-195935.0	-24117.0	1636347.0
14	15	7	33	558	149.0	-195907.0	-23982.0	1672303.0
14	15	7	33	559	150.0	-196091.0	-23829.0	1677031.0
14	15	7	33	559	151.0	-196336.0	-23702.0	1636653.0
14	15	7	33	560	152.0	-197104.0	-23594.0	1513248.0
14	15	7	33	560	153.0	-197978.0	-23444.0	1359019.0
14	15	7	33	576	154.0	-198812.0	-23328.0	1222372.0
14	15	7	33	577	155.0	-199774.0	-23199.0	1099058.0
14	15	7	33	578	156.0	-200912.0	-23091.0	986359.0
14	15	7	33	578	157.0	-201976.0	-22996.0	883973.0
14	15	7	33	579	158.0	-203251.0	-22902.0	785489.0
14	15	7	33	579	159.0	-204596.0	-22832.0	675009.0
14	15	7	33	580	161.0	-205985.0	-22705.0	431040.0
14	15	7	33	580	162.0	-206425.0	-22656.0	317805.0
14	15	7	33	581	163.0	-206724.0	-22573.0	209658.0
14	15	7	33	581	164.0	-207242.0	-22527.0	113336.0
14	15	7	33	582	165.0	-207751.0	-22501.0	24435.0
14	15	7	33	582	166.0	-208132.0	-22444.0	-57885.0
14	15	7	33	600	167.0	-208232.0	-22411.0	-132164.0
14	15	7	33	646	168.0	-208121.0	-22369.0	-201931.0
14	15	7	33	646	169.0	-207912.0	-22330.0	-280116.0
14	15	7	33	647	170.0	-207482.0	-22291.0	-370901.0
14	15	7	33	647	171.0	-207056.0	-22277.0	-461831.0
14	15	7	33	648	172.0	-206602.0	-22266.0	-552016.0
14	15	7	33	649	173.0	-205865.0	-22241.0	-643952.0
14	15	7	33	649	174.0	-204274.0	-22217.0	-719213.0
14	15	7	33	650	175.0	-202157.0	-22201.0	-779526.0
14	15	7	33	650	176.0	-199869.0	-22177.0	-833267.0
14	15	7	33	651	177.0	-197557.0	-22145.0	-881435.0
14	15	7	33	652	178.0	-195558.0	-22136.0	-925649.0
14	15	7	33	653	179.0	-193782.0	-22115.0	-978121.0
14	15	7	33	653	180.0	-191911.0	-22089.0	-1036743.0
14	15	7	33	654	181.0	-190359.0	-22058.0	-1094089.0
14	15	7	33	654	184.0	-187561.0	-21992.0	-1193034.0
14	15	7	33	655	206.0	-225749.0	-21621.0	-2079790.0
14	15	7	33	655	207.0	-224982.0	-21626.0	-2119859.0
14	15	7	33	656	208.0	-224319.0	-21657.0	-2166466.0
14	15	7	33	657	209.0	-223267.0	-21668.0	-2226606.0
14	15	7	33	657	210.0	-222141.0	-21676.0	-2295959.0
14	15	7	33	658	211.0	-220811.0	-21667.0	-2366739.0
14	15	7	33	690	212.0	-219769.0	-21687.0	-2430431.0
14	15	7	33	691	213.0	-218777.0	-21678.0	-2491455.0
14	15	7	33	692	214.0	-217247.0	-21671.0	-2546181.0
14	15	7	33	692	215.0	-215659.0	-21679.0	-2598701.0
14	15	7	33	693	216.0	-214292.0	-21674.0	-2649807.0
14	15	7	33	693	217.0	-212846.0	-21674.0	-2695819.0
14	15	7	33	694	218.0	-211639.0	-21679.0	-2742289.0
14	15	7	33	695	219.0	-210820.0	-21663.0	-2795048.0
14	15	7	33	695	220.0	-209834.0	-21666.0	-2845977.0
14	15	7	33	696	221.0	-208324.0	-21645.0	-2893009.0
14	15	7	33	696	222.0	-206967.0	-21636.0	-2933212.0
14	15	7	33	697	223.0	-206178.0	-21615.0	-2965577.0
14	15	7	33	697	224.0	-206292.0	-21622.0	-2987969.0
14	15	7	33	698	225.0	-206799.0	-21611.0	-3009372.0
14	15	7	33	699	226.0	-207859.0	-21609.0	-3029289.0
14	15	7	33	699	228.0	-209223.0	-21601.0	-3061851.0
14	15	7	33	700	229.0	-208871.0	-21621.0	-3089597.0
14	15	7	33	700	230.0	-208316.0	-21632.0	-3118774.0
14	15	7	33	701	231.0	-207439.0	-21639.0	-3144376.0
14	15	7	33	701	232.0	-206151.0	-21644.0	-3164882.0
14	15	7	33	702	233.0	-203887.0	-21654.0	-3182506.0
14	15	7	33	702	234.0	-200372.0	-21670.0	-3194654.0
14	15	7	33	736	235.0	-195289.0	-21689.0	-3202692.0
14	15	7	33	781	236.0	-189406.0	-21703.0	-3207906.0
14	15	7	33	782	237.0	-184058.0	-21721.0	-3211607.0
14	15	7	33	783	238.0	-180079.0	-21759.0	-3218747.0
14	15	7	33	783	239.0	-176977.0	-21791.0	-3238087.0
14	15	7	33	784	240.0	-174746.0	-21819.0	-3275366.0
14	15	7	33	785	241.0	-173449.0	-21853.0	-3308691.0
14	15	7	33	785	242.0	-172689.0	-21884.0	-3336790.0
14	15	7	33	786	243.0	-173148.0	-21898.0	-3366383.0
14	15	7	33	786	244.0	-174453.0	-21925.0	-3401076.0
14	15	7	33	787	245.0	-176179.0	-21947.0	-3450481.0
14	15	7	33	788	246.0	-177706.0	-21974.0	-3501456.0
14	15	7	33	789	247.0	-178502.0	-21999.0	-3561043.0
14	15	7	33	789	248.0	-178478.0	-22012.0	-3655216.0
14	15	7	33	790	249.0	-177622.0	-22025.0	-3765037.0
14	15	7	33	791	251.0	-174161.0	-22077.0	-3906934.0
14	15	7	33	791	17.0	-242332.0	-21885.0	-4265492.0
14	15	7	33	792	18.0	-239063.0	-21890.0	-4274693.0
14	15	7	33	792	19.0	-233272.0	-21858.0	-4276962.0
14	15	7	33	793	20.0	-226633.0	-21842.0	-4271417.0
14	15	7	33	793	21.0	-219746.0	-21856.0	-4263009.0
14	15	7	33	794	22.0	-213126.0	-21844.0	-4260182.0
14	15	7	33	795	23.0	-205880.0	-21843.0	-4257756.0
14	15	7	33	826	24.0	-196451.0	-21826.0	-4237819.0
14	15	7	33	827	25.0	-186771.0	-21807.0	-4215598.0
14	15	7	33	827	26.0	-178906.0	-21811.0	-4195658.0
14	15	7	33	828	27.0	-174047.0	-21816.0	-4175559.0
14	15	7	33	828	28.0	-172236.0	-21813.0	-4151727.0
14	15	7	33	829	29.0	-173414.0	-21799.0	-4128241.0
14	15	7	33	830	30.0	-176734.0	-21804.0	-4107839.0
14	15	7	33	830	31.0	-180509.0	-21791.0	-4088456.0
14	15	7	33	831	32.0	-183961.0	-21781.0	-4071240.0
14	15	7	33	831	33.0	-185289.0	-21785.0	-4053977.0
14	15	7	33	832	34.0	-184031.0	-21784.0	-4031052.0
14	15	7	33	833	35.0	-181149.0	-21781.0	-4002961.0
14	15	7	33	833	36.0	-178425.0	-21785.0	-3973286.0
14	15	7	33	834	37.0	-175155.0	-21773.0	-3948487.0
14	15	7	33	834	38.0	-170722.0	-21793.0	-3931298.0
14	15	7	33	835	40.0	-164871.0	-21788.0	-3915244.0
14	15	7	33	836	41.0	-166863.0	-21794.0	-3903031.0
14	15	7	33	836	42.0	-170797.0	-21792.0	-3890887.0
14	15	7	33	837	43.0	-175666.0	-21803.0	-3888365.0
14	15	7	33	837	44.0	-181476.0	-21797.0	-3888984.0
14	15	7	33	838	45.0	-187315.0	-21799.0	-3890961.0
14	15	7	33	869	46.0	-192265.0	-21791.0	-3892751.0
14	15	7	33	870	47.0	-195904.0	-21796.0	-3894776.0
14	15	7	33	871	48.0	-198012.0	-21807.0	-3895156.0
14	15	7	33	871	49.0	-198815.0	-21805.0	-3894892.0
14	15	7	33	872	50.0	-198558.0	-21793.0	-3895968.0
14	15	7	33	872	51.0	-198066.0	-21799.0	-3896101.0
14	15	7	33	873	52.0	-197639.0	-21801.0	-3897082.0
14	15	7	33	874	53.0	-197513.0	-21784.0	-3900604.0
14	15	7	33	874	54.0	-199436.0	-21788.0	-3901928.0
14	15	7	33	875	55.0	-197567.0	-21760.0	-3901471.0
14	15	7	33	876	56.0	-197912.0	-21716.0	-3898349.0
14	15	7	33	877	57.0	-201977.0	-21664.0	-3893023.0
14	15	7	33	877	58.0	-204150.0	-21604.0	-3886680.0
14	15	7	33	878	59.0	-205031.0	-21521.0	-3879521.0
14	15	7	33	879	60.0	-206502.0	-21449.0	-3871831.0
14	15	7	33	880	62.0	-204937.0	-21280.0	-3857738.0
14	15	7	33	880	63.0	-204225.0	-21196.0	-3852012.0
14	15	7	33	881	64.0	-203001.0	-21072.0	-3846601.0
14	15	7	33	881	65.0	-203074.0	-20965.0	-3839792.0
14	15	7	33	882	66.0	-204387.0	-20852.0	-3830453.0
14	15	7	33	883	67.0	-205786.0	-20726.0	-3820757.0
14	15	7	33	883	68.0	-207019.0	-20604.0	-3810923.0
14	15	7	33	916	69.0	-207999.0	-20486.0	-3802352.0
14	15	7	33	917	70.0	-208579.0	-20331.0	-3794035.0
14	15	7	33	917	71.0	-208238.0	-20222.0	-3786929.0
14	15	7	33	918	72.0	-206558.0	-20106.0	-3787502.0
14	15	7	33	919	73.0	-204452.0	-19994.0	-3789130.0
14	15	7	33	919	74.0	-202386.0	-19891.0	-3787432.0
14	15	7	33	920	75.0	-200626.0	-19773.0	-3786159.0
14	15	7	33	920	76.0	-199309.0	-19645.0	-3782644.0
14	15	7	33	921	77.0	-198392.0	-19535.0	-3778207.0
14	15	7	33	922	78.0	-197916.0	-19427.0	-3774164.0
14	15	7	33	922	79.0	-197861.0	-19306.0	-3771888.0
14	15	7	33	923	80.0	-197887.0	-19196.0	-3770080.0
14	15	7	33	924	81.0	-198377.0	-19094.0	-3767951.0
14	15	7	33	924	82.0	-199386.0	-18992.0	-3767894.0
14	15	7	33	925	83.0	-201039.0	-18902.0	-3771355.0
14	15	7	33	925	85.0	-205873.0	-18701.0	-3776007.0
14	15	7	33	926	86.0	-208651.0	-18612.0	-3776034.0
14	15	7	33	927	87.0	-211694.0	-18524.0	-3774798.0
14	15	7	33	927	88.0	-215508.0	-18425.0	-3770497.0
14	15	7	33	928	89.0	-219837.0	-18325.0	-3767074.0
14	15	7	33	928	90.0	-224126.0	-18236.0	-3764506.0
14	15	7	33	960	91.0	-227697.0	-18161.0	-3760869.0
14	15	7	33	974	92.0	-230295.0	-18063.0	-3757668.0
14	15	7	33	974	93.0	-232295.0	-17994.0	-3757799.0
14	15	7	33	975	94.0	-233671.0	-17911.0	-3758548.0
14	15	7	33	976	95.0	-234483.0	-17827.0	-3759254.0
14	15	7	33	976	96.0	-233591.0	-17743.0	-3758466.0
14	15	7	33	977	97.0	-231592.0	-17660.0	-3756894.0
14	15	7	34	6	98.0	-229475.0	-17542.0	-3752177.0
14	15	7	34	7	99.0	-226643.0	-17471.0	-3747508.0
14	15	7	34	7	100.0	-223244.0	-17412.0	-3742632.0
14	15	7	34	8	101.0	-219770.0	-17331.0	-3737766.0
14	15	7	34	8	102.0	-216226.0	-17249.0	-3735026.0
14	15	7	34	9	103.0	-212579.0	-17169.0	-3735394.0
14	15	7	34	10	104.0	-209110.0	-17111.0	-3734194.0
14	15	7	34	10	105.0	-205932.0	-17037.0	-3735212.0
14	15	7	34	11	107.0	-201386.0	-16895.0	-3730381.0
14	15	7	34	12	108.0	-200248.0	-16826.0	-3723596.0
14	15	7	34	12	109.0	-199617.0	-16744.0	-3719791.0
14	15	7	34	13	110.0	-200372.0	-16666.0	-3718084.0
14	15	7	34	14	111.0	-202085.0	-16601.0	-3716529.0
14	15	7	34	14	112.0	-203994.0	-16541.0	-3716527.0
14	15	7	34	15	113.0	-205715.0	-16469.0	-3720054.0
14	15	7	34	16	130.0	-168361.0	-15482.0	-3653044.0
14	15	7	34	16	131.0	-167161.0	-15435.0	-3648385.0
14	15	7	34	17	132.0	-166704.0	-15364.0	-3645888.0
14	15	7	34	17	133.0	-167189.0	-15307.0	-3647166.0
14	15	7	34	18	134.0	-168541.0	-15266.0	-3648309.0
14	15	7	34	19	135.0	-171042.0	-15198.0	-3647466.0
14	15	7	34	50	136.0	-174596.0	-15126.0	-3643611.0
14	15	7	34	51	137.0	-178846.0	-15064.0	-3639830.0
14	15	7	34	51	138.0	-183539.0	-15012.0	-3635980.0
14	15	7	34	52	139.0	-188150.0	-14951.0	-3629781.0
14	15	7	34	53	140.0	-192616.0	-14892.0	-3617482.0
14	15	7	34	54	141.0	-197154.0	-14840.0	-3605180.0
14	15	7	34	54	142.0	-201577.0	-14796.0	-3598111.0
14	15	7	34	55	143.0	-205788.0	-14748.0	-3594530.0
14	15	7	34	56	144.0	-209331.0	-14661.0	-3592587.0
14	15	7	34	56	145.0	-212597.0	-14612.0	-3591108.0
14	15	7	34	57	146.0	-215301.0	-14571.0	-3588877.0
14	15	7	34	57	147.0	-216784.0	-14518.0	-3589712.0
14	15	7	34	58	148.0	-217118.0	-14442.0	-3587659.0
14	15	7	34	59	149.0	-216309.0	-14397.0	-3586327.0
14	15	7	34	60	150.0	-214872.0	-14359.0	-3584955.0
14	15	7	34	60	152.0	-207930.0	-14242.0	-3574126.0
14	15	7	34	61	153.0	-201836.0	-14202.0	-3569769.0
14	15	7	34	62	154.0	-196609.0	-14156.0	-3567429.0
14	15	7	34	63	155.0	-197561.0	-14131.0	-3570851.0
14	15	7	34	63	156.0	-199706.0	-14073.0	-3575979.0
14	15	7	34	64	157.0	-202919.0	-14022.0	-3578471.0
14	15	7	34	96	158.0	-207931.0	-13954.0	-3576061.0
14	15	7	34	97	159.0	-212532.0	-13906.0	-3570987.0
14	15	7	34	97	160.0	-216769.0	-13854.0	-3564094.0
14	15	7	34	98	161.0	-219086.0	-13820.0	-3555929.0
14	15	7	34	99	162.0	-219558.0	-13784.0	-3550551.0
14	15	7	34	99	163.0	-219062.0	-13741.0	-3549874.0
14	15	7	34	100	164.0	-216979.0	-13709.0	-3548417.0
14	15	7	34	101	165.0	-214109.0	-13676.0	-3545869.0
14	15	7	34	101	166.0	-210819.0	-13618.0	-3541206.0
14	15	7	34	102	167.0	-206821.0	-13555.0	-3533471.0
14	15	7	34	103	168.0	-202065.0	-13525.0	-3522212.0
14	15	7	34	103	169.0	-197292.0	-13484.0	-3509261.0
14	15	7	34	104	170.0	-193326.0	-13447.0	-3497825.0
14	15	7	34	104	171.0	-190261.0	-13399.0	-3486361.0
14	15	7	34	105	172.0	-188607.0	-13351.0	-3476014.0
14	15	7	34	106	175.0	-194592.0	-13223.0	-3452139.0
14	15	7	34	106	176.0	-199088.0	-13166.0	-3443452.0
14	15	7	34	107	177.0	-203619.0	-13107.0	-3436041.0
14	15	7	34	107	178.0	-207485.0	-13074.0	-3426574.0
14	15	7	34	108	179.0	-210777.0	-13017.0	-3416734.0
14	15	7	34	109	180.0	-213841.0	-12977.0	-3407444.0
14	15	7	34	140	181.0	-215958.0	-12931.0	-3391687.0
14	15	7	34	141	182.0	-217014.0	-12889.0	-3371272.0
14	15	7	34	142	183.0	-217307.0	-12851.0	-3352921.0
14	15	7	34	143	184.0	-217176.0	-12799.0	-3337138.0
14	15	7	34	143	185.0	-216532.0	-12764.0	-3320937.0
14	15	7	34	144	186.0	-215308.0	-12719.0	-3299389.0
14	15	7	34	144	187.0	-213672.0	-12620.0	-3258545.0
14	15	7	34	145	188.0	-212450.0	-12571.0	-3193920.0
14	15	7	34	146	189.0	-211939.0	-12564.0	-3169756.0
14	15	7	34	146	190.0	-212016.0	-12509.0	-3153782.0
14	15	7	34	147	191.0	-212731.0	-12472.0	-3133072.0
14	15	7	34	148	192.0	-212938.0	-12428.0	-3114808.0
14	15	7	34	148	193.0	-212636.0	-12394.0	-3100009.0
14	15	7	34	149	194.0	-213057.0	-12362.0	-3084091.0
14	15	7	34	150	195.0	-212049.0	-12324.0	-3065972.0
14	15	7	34	150	197.0	-209384.0	-12250.0	-3027192.0
14	15	7	34	151	198.0	-208444.0	-12216.0	-3008912.0
14	15	7	34	151	199.0	-206586.0	-12174.0	-2989952.0
14	15	7	34	152	200.0	-203599.0	-12160.0	-2969199.0
14	15	7	34	153	201.0	-197442.0	-12139.0	-2946804.0
14	15	7	34	153	202.0	-191855.0	-12077.0	-2925857.0
14	15	7	34	185	203.0	-195597.0	-12037.0	-2908164.0
14	15	7	34	186	204.0	-196521.0	-12011.0	-2892968.0
14	15	7	34	205	205.0	-193886.0	-11971.0	-2877854.0
14	15	7	34	206	206.0	-187627.0	-11927.0	-2862032.0
14	15	7	34	206	207.0	-176816.0	-11899.0	-2847500.0
14	15	7	34	207	208.0	-165380.0	-11871.0	-2831710.0
14	15	7	34	208	209.0	-165645.0	-11820.0	-2818896.0
14	15	7	34	208	210.0	-173698.0	-11767.0	-2807972.0
14	15	7	34	209	211.0	-180344.0	-11717.0	-2795556.0
14	15	7	34	209	212.0	-183879.0	-11666.0	-2781618.0
14	15	7	34	210	213.0	-183209.0	-11617.0	-2767054.0
14	15	7	34	211	214.0	-179308.0	-11579.0	-2748372.0
14	15	7	34	211	215.0	-173726.0	-11540.0	-2727424.0
14	15	7	34	212	216.0	-168692.0	-11506.0	-2704508.0
14	15	7	34	212	217.0	-165791.0	-11452.0	-2680182.0
14	15	7	34	213	219.0	-169308.0	-11375.0	-2636435.0
14	15	7	34	213	220.0	-174463.0	-11307.0	-2623869.0
14	15	7	34	214	221.0	-180352.0	-11269.0	-2618359.0
14	15	7	34	215	222.0	-185722.0	-11237.0	-2614451.0
14	15	7	34	215	223.0	-189849.0	-11179.0	-2609989.0
14	15	7	34	216	224.0	-192324.0	-11133.0	-2603861.0
14	15	7	34	216	225.0	-193424.0	-11098.0	-2599831.0
14	15	7	34	230	226.0	-193612.0	-11055.0	-2594192.0
14	15	7	34	231	227.0	-192974.0	-11011.0	-2589271.0
14	15	7	34	231	228.0	-191739.0	-10969.0	-2585081.0
14	15	7	34	232	229.0	-189729.0	-10923.0	-2581983.0
14	15	7	34	233	230.0	-187379.0	-10879.0	-2577504.0
14	15	7	34	233	231.0	-184907.0	-10865.0	-2571871.0
14	15	7	34	234	232.0	-183029.0	-10829.0	-2567813.0
14	15	7	34	235	233.0	-181817.0	-10791.0	-2565482.0
14	15	7	34	275	234.0	-181114.0	-10750.0	-2562174.0
14	15	7	34	276	235.0	-180442.0	-10707.0	-2557873.0
14	15	7	34	276	236.0	-180146.0	-10681.0	-2552743.0
14	15	7	34	277	237.0	-180119.0	-10652.0	-2546504.0
14	15	7	34	278	238.0	-180518.0	-10606.0	-2537256.0
14	15	7	34	278	239.0	-181789.0	-10570.0	-2527325.0
14	15	7	34	279	240.0	-183617.0	-10526.0	-2515834.0
14	15	7	34	280	242.0	-187626.0	-10464.0	-2493450.0
14	15	7	34	281	243.0	-189787.0	-10411.0	-2489211.0
14	15	7	34	282	244.0	-192052.0	-10372.0	-2487065.0
14	15	7	34	282	245.0	-194207.0	-10352.0	-2484849.0
14	15	7	34	283	246.0	-196208.0	-10298.0	-2480747.0
14	15	7	34	284	247.0	-197854.0	-10260.0	-2476631.0
14	15	7	34	284	248.0	-199599.0	-10239.0	-2470124.0
14	15	7	34	285	249.0	-201502.0	-10215.0	-2461161.0
14	15	7	34	286	250.0	-202337.0	-10179.0	-2452272.0
14	15	7	34	286	9.0	-214893.0	-9709.0	-2309432.0
14	15	7	34	287	10.0	-217305.0	-9672.0	-2300013.0
14	15	7	34	288	11.0	-219297.0	-9626.0	-2291537.0
14	15	7	34	288	12.0	-220891.0	-9596.0	-2281747.0
14	15	7	34	289	13.0	-222121.0	-9584.0	-2271628.0
14	15	7	34	289	14.0	-223004.0	-9565.0	-2263549.0
14	15	7	34	321	15.0	-224096.0	-9542.0	-2255906.0
14	15	7	34	322	16.0	-225459.0	-9497.0	-2247972.0
14	15	7	34	323	17.0	-226757.0	-9485.0	-2241249.0
14	15	7	34	324	18.0	-228024.0	-9461.0	-2234894.0
14	15	7	34	324	19.0	-229392.0	-9429.0	-2229526.0
14	15	7	34	325	20.0	-230518.0	-9399.0	-2223299.0
14	15	7	34	326	21.0	-231474.0	-9378.0	-2217152.0
14	15	7	34	326	22.0	-232524.0	-9360.0	-2210967.0
14	15	7	34	327	23.0	-232323.0	-9321.0	-2205185.0
14	15	7	34	328	24.0	-230738.0	-9297.0	-2200741.0
14	15	7	34	328	25.0	-228317.0	-9272.0	-2195627.0
14	15	7	34	329	26.0	-224994.0	-9239.0	-2189601.0
14	15	7	34	330	27.0	-221013.0	-9216.0	-2184841.0
14	15	7	34	330	28.0	-216814.0	-9196.0	-2182981.0
14	15	7	34	331	29.0	-212657.0	-9164.0	-2183556.0
14	15	7	34	331	31.0	-204639.0	-9124.0	-2183997.0
14	15	7	34	332	32.0	-200521.0	-9108.0	-2183906.0
14	15	7	34	333	33.0	-196082.0	-9080.0	-2184817.0
14	15	7	34	333	34.0	-191875.0	-9047.0	-2187756.0
14	15	7	34	334	35.0	-187911.0	-9029.0	-2191402.0
14	15	7	34	335	36.0	-184691.0	-9011.0	-2195839.0
14	15	7	34	366	37.0	-182082.0	-8980.0	-2199601.0
14	15	7	34	367	38.0	-179679.0	-8952.0	-2200913.0
14	15	7	34	367	39.0	-177356.0	-8937.0	-2198481.0
14	15	7	34	368	40.0	-174877.0	-8922.0	-2193657.0
14	15	7	34	369	41.0	-172801.0	-8882.0	-2190592.0
14	15	7	34	370	42.0	-171581.0	-8868.0	-2188031.0
14	15	7	34	371	43.0	-171126.0	-8862.0	-2184997.0
14	15	7	34	371	44.0	-171347.0	-8835.0	-2181084.0
14	15	7	34	372	45.0	-172461.0	-8808.0	-2173924.0
14	15	7	34	373	46.0	-174117.0	-8781.0	-2163815.0
14	15	7	34	373	47.0	-176529.0	-8781.0	-2154424.0
14	15	7	34	374	48.0	-180095.0	-8775.0	-2144161.0
14	15	7	34	375	49.0	-184579.0	-8752.0	-2130328.0
14	15	7	34	375	50.0	-189972.0	-8725.0	-2117084.0
14	15	7	34	376	51.0	-196428.0	-8722.0	-2106354.0
14	15	7	34	377	53.0	-211854.0	-8680.0	-2087781.0
14	15	7	34	377	54.0	-219384.0	-8646.0	-2081907.0
14	15	7	34	378	55.0	-225449.0	-8641.0	-2081425.0
14	15	7	34	378	56.0	-229537.0	-8626.0	-2087084.0
14	15	7	34	379	57.0	-229877.0	-8629.0	-2093990.0
14	15	7	34	380	58.0	-231420.0	-8646.0	-2097436.0
14	15	7	34	380	59.0	-237766.0	-8637.0	-2098464.0
14	15	7	34	411	60.0	-234574.0	-8642.0	-2096499.0
14	15	7	34	412	61.0	-233121.0	-8650.0	-2092738.0
14	15	7	34	413	62.0	-228947.0	-8662.0	-2087324.0
14	15	7	34	413	63.0	-222510.0	-8662.0	-2082269.0
14	15	7	34	414	64.0	-214791.0	-8667.0	-2076216.0
14	15	7	34	415	65.0	-207064.0	-8681.0	-2069485.0
14	15	7	34	416	66.0	-201071.0	-8686.0	-2064059.0
14	15	7	34	416	67.0	-195900.0	-8709.0	-2060554.0
14	15	7	34	417	68.0	-196317.0	-8733.0	-2056906.0
14	15	7	34	418	69.0	-200901.0	-8754.0	-2053174.0
14	15	7	34	418	70.0	-200326.0	-8792.0	-2048582.0
14	15	7	34	419	71.0	-200832.0	-8813.0	-2042651.0
14	15	7	34	420	72.0	-199274.0	-8809.0	-2036944.0
14	15	7	34	420	73.0	-197180.0	-8837.0	-2031894.0
14	15	7	34	421	74.0	-195401.0	-8859.0	-2026027.0
14	15	7	34	422	76.0	-195152.0	-8888.0	-2013859.0
14	15	7	34	422	77.0	-194147.0	-8912.0	-2009508.0
14	15	7	34	423	78.0	-187331.0	-8951.0	-2004736.0
14	15	7	34	424	79.0	-177283.0	-8972.0	-1999823.0
14	15	7	34	424	80.0	-169607.0	-8966.0	-1993414.0
14	15	7	34	425	81.0	-163742.0	-9001.0	-1988117.0
14	15	7	34	455	82.0	-158827.0	-9014.0	-1981636.0
14	15	7	34	456	83.0	-156383.0	-9002.0	-1973161.0
14	15	7	34	457	84.0	-156947.0	-9039.0	-1964844.0
14	15	7	34	457	85.0	-158826.0	-9052.0	-1959627.0
14	15	7	34	458	86.0	-162587.0	-9068.0	-1956453.0
14	15	7	34	459	87.0	-168560.0	-9096.0	-1956844.0
14	15	7	34	460	88.0	-175651.0	-9092.0	-1956907.0
14	15	7	34	460	89.0	-182965.0	-9103.0	-1955338.0
14	15	7	34	461	90.0	-190515.0	-9113.0	-1953017.0
14	15	7	34	462	91.0	-198657.0	-9123.0	-1950311.0
14	15	7	34	462	92.0	-206726.0	-9132.0	-1945580.0
14	15	7	34	463	93.0	-213821.0	-9154.0	-1941183.0
14	15	7	34	464	94.0	-219572.0	-9153.0	-1936183.0
14	15	7	34	464	95.0	-223811.0	-9164.0	-1930412.0
14	15	7	34	465	96.0	-226822.0	-9172.0	-1925043.0
14	15	7	34	466	98.0	-228862.0	-9193.0	-1920082.0
14	15	7	34	466	99.0	-227506.0	-9186.0	-1915901.0
14	15	7	34	467	100.0	-223524.0	-9216.0	-1909724.0
14	15	7	34	468	101.0	-217731.0	-9246.0	-1905029.0
14	15	7	34	468	102.0	-222647.0	-9279.0	-1899464.0
14	15	7	34	469	103.0	-217269.0	-9317.0	-1894117.0
14	15	7	34	469	104.0	-213596.0	-9357.0	-1890544.0
14	15	7	34	546	105.0	-209973.0	-9382.0	-1888405.0
14	15	7	34	547	106.0	-207155.0	-9421.0	-1887338.0
14	15	7	34	548	107.0	-204572.0	-9461.0	-1887804.0
14	15	7	34	549	108.0	-202802.0	-9495.0	-1886873.0
14	15	7	34	549	109.0	-201702.0	-9508.0	-1885662.0
14	15	7	34	550	110.0	-200762.0	-9527.0	-1883249.0
14	15	7	34	551	111.0	-199749.0	-9556.0	-1879684.0
14	15	7	34	552	112.0	-198875.0	-9604.0	-1875695.0
14	15	7	34	552	113.0	-197942.0	-9634.0	-1872468.0
14	15	7	34	553	114.0	-196547.0	-9636.0	-1868765.0
14	15	7	34	554	115.0	-195027.0	-9655.0	-1866636.0
14	15	7	34	554	116.0	-193966.0	-9671.0	-1864206.0
14	15	7	34	555	117.0	-194308.0	-9704.0	-1862123.0
14	15	7	34	556	118.0	-195963.0	-9729.0	-1859642.0
14	15	7	34	556	119.0	-198545.0	-9748.0	-1858857.0
14	15	7	34	557	143.0	-209709.0	-10101.0	-1827175.0
14	15	7	34	557	144.0	-211464.0	-10086.0	-1863206.0
14	15	7	34	558	145.0	-213937.0	-10108.0	-1941540.0
14	15	7	34	559	146.0	-216377.0	-10128.0	-1957226.0
14	15	7	34	559	147.0	-218097.0	-10150.0	-1955973.0
14	15	7	34	560	148.0	-218970.0	-10142.0	-1952166.0
14	15	7	34	591	149.0	-219071.0	-10161.0	-1947897.0
14	15	7	34	602	150.0	-217777.0	-10174.0	-1944009.0
14	15	7	34	603	151.0	-217084.0	-10185.0	-1940665.0
14	15	7	34	604	152.0	-217247.0	-10230.0	-1935966.0
14	15	7	34	604	153.0	-213324.0	-10252.0	-1932511.0
14	15	7	34	605	154.0	-209211.0	-10247.0	-1929311.0
14	15	7	34	606	155.0	-203922.0	-10262.0	-1925508.0
14	15	7	34	606	156.0	-198793.0	-10292.0	-1922488.0
14	15	7	34	607	157.0	-194410.0	-10318.0	-1920654.0
14	15	7	34	607	158.0	-190867.0	-10340.0	-1917204.0
14	15	7	34	608	159.0	-188740.0	-10349.0	-1915309.0
14	15	7	34	608	160.0	-187986.0	-10351.0	-1915714.0
14	15	7	34	609	161.0	-188446.0	-10357.0	-1915147.0
14	15	7	34	610	162.0	-189627.0	-10360.0	-1913273.0
14	15	7	34	610	163.0	-191317.0	-10379.0	-1911698.0
14	15	7	34	611	165.0	-195999.0	-10373.0	-1912616.0
14	15	7	34	611	166.0	-198702.0	-10381.0	-1913757.0
14	15	7	34	612	167.0	-201535.0	-10369.0	-1914057.0
14	15	7	34	613	168.0	-204287.0	-10357.0	-1913348.0
14	15	7	34	613	169.0	-207262.0	-10369.0	-1912813.0
14	15	7	34	614	170.0	-209167.0	-10374.0	-1912129.0
14	15	7	34	614	171.0	-210040.0	-10379.0	-1911846.0
14	15	7	34	636	172.0	-210549.0	-10360.0	-1910179.0
14	15	7	34	637	173.0	-210930.0	-10361.0	-1908785.0
14	15	7	34	637	174.0	-211161.0	-10354.0	-1907257.0
14	15	7	34	638	175.0	-210864.0	-10366.0	-1906212.0
14	15	7	34	639	176.0	-209699.0	-10363.0	-1904629.0
14	15	7	34	640	177.0	-208141.0	-10347.0	-1904029.0
14	15	7	34	641	178.0	-206267.0	-10321.0	-1903876.0
14	15	7	34	641	179.0	-204646.0	-10302.0	-1903344.0
14	15	7	34	642	180.0	-203207.0	-10294.0	-1902314.0
14	15	7	34	644	181.0	-201637.0	-10282.0	-1901796.0
14	15	7	34	645	182.0	-199869.0	-10280.0	-1902894.0
14	15	7	34	646	183.0	-197715.0	-10278.0	-1904449.0
14	15	7	34	646	184.0	-194471.0	-10276.0	-1905029.0
14	15	7	34	647	185.0	-190298.0	-10248.0	-1904956.0
14	15	7	34	648	186.0	-185454.0	-10238.0	-1905812.0
14	15	7	34	648	188.0	-176142.0	-10218.0	-1908469.0
14	15	7	34	649	189.0	-171475.0	-10216.0	-1907713.0
14	15	7	34	650	190.0	-164154.0	-10204.0	-1905289.0
14	15	7	34	650	191.0	-156813.0	-10162.0	-1901914.0
14	15	7	34	651	192.0	-153933.0	-10149.0	-1897903.0
14	15	7	34	652	193.0	-162297.0	-10151.0	-1897095.0
14	15	7	34	681	194.0	-170924.0	-10121.0	-1896621.0
14	15	7	34	682	195.0	-179066.0	-10100.0	-1895072.0
14	15	7	34	682	196.0	-189837.0	-10089.0	-1894459.0
14	15	7	34	683	197.0	-201302.0	-10090.0	-1894841.0
14	15	7	34	684	198.0	-213466.0	-10050.0	-1893601.0
14	15	7	34	685	199.0	-221196.0	-10034.0	-1890687.0
14	15	7	34	685	200.0	-224548.0	-10001.0	-1888399.0
14	15	7	34	686	201.0	-225186.0	-9983.0	-1885591.0
14	15	7	34	687	202.0	-223414.0	-9955.0	-1881841.0
14	15	7	34	687	203.0	-219547.0	-9939.0	-1878789.0
14	15	7	34	688	204.0	-214072.0	-9932.0	-1877576.0
14	15	7	34	688	205.0	-208758.0	-9912.0	-1875962.0
14	15	7	34	689	206.0	-203713.0	-9897.0	-1874262.0
14	15	7	34	690	207.0	-198105.0	-9884.0	-1874921.0
14	15	7	34	691	208.0	-192662.0	-9859.0	-1875781.0
14	15	7	34	692	210.0	-181603.0	-9815.0	-1876172.0
14	15	7	34	692	211.0	-176168.0	-9805.0	-1875650.0
14	15	7	34	693	212.0	-171847.0	-9785.0	-1874632.0
14	15	7	34	693	213.0	-168467.0	-9772.0	-1874396.0
14	15	7	34	694	214.0	-165866.0	-9758.0	-1873209.0
14	15	7	34	695	215.0	-164740.0	-9730.0	-1872541.0
14	15	7	34	695	216.0	-163853.0	-9699.0	-1872316.0
14	15	7	34	725	217.0	-163253.0	-9701.0	-1873694.0
14	15	7	34	771	218.0	-163590.0	-9686.0	-1874989.0
14	15	7	34	772	219.0	-165059.0	-9666.0	-1874826.0
14	15	7	34	773	220.0	-167111.0	-9652.0	-1873932.0
14	15	7	34	774	221.0	-169029.0	-9646.0	-1873805.0
14	15	7	34	774	222.0	-171266.0	-9645.0	-1872789.0
14	15	7	34	775	223.0	-173851.0	-9631.0	-1873371.0
14	15	7	34	776	224.0	-176036.0	-9624.0	-1875330.0
14	15	7	34	776	225.0	-177910.0	-9611.0	-1879244.0
14	15	7	34	777	226.0	-179884.0	-9594.0	-1882699.0
14	15	7	34	778	227.0	-181782.0	-9598.0	-1883254.0
14	15	7	34	778	228.0	-183570.0	-9574.0	-1883038.0
14	15	7	34	779	229.0	-185795.0	-9550.0	-1884565.0
14	15	7	34	780	230.0	-188210.0	-9541.0	-1886286.0
14	15	7	34	780	231.0	-190646.0	-9542.0	-1887027.0
14	15	7	34	781	233.0	-194449.0	-9499.0	-1888213.0
14	15	7	34	782	234.0	-195848.0	-9496.0	-1889347.0
14	15	7	34	782	0.0	-167761.0	-9271.0	-1863277.0
14	15	7	34	783	1.0	-168966.0	-9246.0	-1860329.0
14	15	7	34	783	2.0	-172014.0	-9238.0	-1856995.0
14	15	7	34	784	3.0	-175925.0	-9236.0	-1854261.0
14	15	7	34	784	4.0	-180496.0	-9254.0	-1851644.0
14	15	7	34	785	5.0	-184927.0	-9256.0	-1848817.0
14	15	7	34	824	6.0	-188534.0	-9241.0	-1846059.0
14	15	7	34	825	7.0	-190922.0	-9230.0	-1845718.0
14	15	7	34	826	8.0	-192502.0	-9209.0	-1845629.0
14	15	7	34	827	9.0	-193578.0	-9219.0	-1845541.0
14	15	7	34	827	10.0	-194546.0	-9212.0	-1845324.0
14	15	7	34	828	11.0	-195703.0	-9204.0	-1845551.0
14	15	7	34	829	12.0	-196531.0	-9204.0	-1843827.0
14	15	7	34	829	13.0	-196847.0	-9208.0	-1842167.0
14	15	7	34	830	14.0	-196971.0	-9202.0	-1840775.0
14	15	7	34	830	15.0	-197469.0	-9194.0	-1838902.0
14	15	7	34	831	16.0	-198037.0	-9179.0	-1837864.0
14	15	7	34	832	17.0	-198786.0	-9181.0	-1837045.0
14	15	7	34	832	18.0	-199676.0	-9182.0	-1835842.0
14	15	7	34	834	19.0	-200095.0	-9171.0	-1834802.0
14	15	7	34	834	20.0	-200342.0	-9151.0	-1834481.0
14	15	7	34	835	22.0	-201392.0	-9162.0	-1834873.0
14	15	7	34	836	23.0	-202282.0	-9161.0	-1834962.0
14	15	7	34	836	24.0	-203387.0	-9154.0	-1834679.0
14	15	7	34	837	25.0	-204404.0	-9132.0	-1834000.0
14	15	7	34	837	26.0	-205496.0	-9136.0	-1832977.0
14	15	7	34	838	27.0	-206564.0	-9139.0	-1832239.0
14	15	7	34	860	28.0	-207730.0	-9142.0	-1831411.0
14	15	7	34	861	29.0	-209367.0	-9146.0	-1831147.0
14	15	7	34	906	30.0	-212184.0	-9129.0	-1830981.0
14	15	7	34	907	31.0	-216476.0	-9127.0	-1831377.0
14	15	7	34	907	32.0	-221737.0	-9121.0	-1831787.0
14	15	7	34	908	33.0	-226621.0	-9107.0	-1831928.0
14	15	7	34	909	34.0	-228916.0	-9110.0	-1830705.0
14	15	7	34	909	35.0	-228199.0	-9126.0	-1829262.0
14	15	7	34	910	36.0	-225306.0	-9112.0	-1827647.0
14	15	7	34	911	37.0	-220976.0	-9099.0	-1826168.0
14	15	7	34	911	38.0	-215976.0	-9086.0	-1824067.0
14	15	7	34	912	39.0	-210763.0	-9096.0	-1821187.0
14	15	7	34	913	40.0	-205476.0	-9091.0	-1818189.0
14	15	7	34	913	41.0	-200134.0	-9081.0	-1816559.0
14	15	7	34	914	42.0	-195413.0	-9065.0	-1814489.0
14	15	7	34	915	44.0	-187066.0	-9054.0	-1813438.0
14	15	7	34	915	45.0	-183094.0	-9046.0	-1813047.0
14	15	7	34	916	67.0	-214644.0	-9004.0	-1813780.0
14	15	7	34	916	68.0	-215244.0	-8986.0	-1815162.0
14	15	7	34	917	69.0	-214891.0	-8996.0	-1818402.0
14	15	7	34	918	70.0	-214059.0	-8994.0	-1822998.0
14	15	7	34	918	71.0	-212951.0	-8980.0	-1828549.0
14	15	7	34	919	72.0	-211505.0	-8986.0	-1832462.0
14	15	7	34	950	73.0	-209809.0	-8992.0	-1834719.0
14	15	7	34	950	74.0	-207947.0	-8971.0	-1833251.0
14	15	7	34	951	75.0	-205957.0	-8981.0	-1830088.0
14	15	7	34	994	76.0	-203726.0	-8990.0	-1827823.0
14	15	7	34	996	77.0	-201458.0	-8974.0	-1827320.0
14	15	7	34	997	78.0	-199428.0	-8977.0	-1826847.0
14	15	7	34	997	79.0	-197374.0	-8972.0	-1826249.0
14	15	7	34	998	80.0	-195768.0	-8970.0	-1825184.0
14	15	7	34	999	81.0	-194717.0	-8971.0	-1822425.0
14	15	7	35	0	82.0	-194677.0	-8954.0	-1816093.0
14	15	7	35	0	83.0	-196211.0	-8941.0	-1808443.0
14	15	7	35	1	84.0	-198656.0	-8962.0	-1799477.0
14	15	7	35	2	85.0	-201571.0	-8951.0	-1790145.0
14	15	7	35	2	86.0	-204846.0	-8948.0	-1781834.0
14	15	7	35	3	87.0	-208027.0	-8954.0	-1774783.0
14	15	7	35	4	89.0	-214819.0	-8933.0	-1760994.0
14	15	7	35	4	90.0	-218295.0	-8936.0	-1758663.0
14	15	7	35	5	91.0	-220589.0	-8952.0	-1762714.0
14	15	7	35	6	92.0	-221487.0	-8949.0	-1769973.0
14	15	7	35	6	112.0	-184360.0	-8889.0	-1762544.0
14	15	7	35	7	113.0	-183278.0	-8887.0	-1761472.0
14	15	7	35	7	114.0	-182556.0	-8881.0	-1759747.0
14	15	7	35	8	115.0	-182453.0	-8892.0	-1758474.0
14	15	7	35	9	116.0	-185501.0	-8883.0	-1757294.0
14	15	7	35	9	117.0	-190816.0	-8891.0	-1756143.0
14	15	7	35	42	118.0	-196851.0	-8877.0	-1755583.0
14	15	7	35	43	119.0	-204381.0	-8864.0	-1754830.0
14	15	7	35	44	120.0	-212435.0	-8872.0	-1754017.0
14	15	7	35	44	121.0	-218982.0	-8892.0	-1753596.0
14	15	7	35	45	122.0	-222705.0	-8889.0	-1752834.0
14	15	7	35	45	123.0	-224173.0	-8886.0	-1751510.0
14	15	7	35	46	124.0	-224923.0	-8859.0	-1750014.0
14	15	7	35	46	125.0	-225829.0	-8848.0	-1748954.0
14	15	7	35	47	126.0	-226681.0	-8851.0	-1747721.0
14	15	7	35	48	127.0	-225999.0	-8851.0	-1746699.0
14	15	7	35	48	128.0	-222902.0	-8856.0	-1746208.0
14	15	7	35	49	129.0	-218112.0	-8862.0	-1744559.0
14	15	7	35	49	130.0	-212439.0	-8857.0	-1741930.0
14	15	7	35	50	131.0	-206069.0	-8839.0	-1739987.0
14	15	7	35	50	132.0	-199009.0	-8845.0	-1738741.0
14	15	7	35	51	134.0	-184951.0	-8834.0	-1734274.0
14	15	7	35	52	135.0	-178747.0	-8842.0	-1733111.0
14	15	7	35	52	136.0	-173280.0	-8821.0	-1730962.0
14	15	7	35	53	137.0	-168891.0	-8829.0	-1729617.0
14	15	7	35	53	138.0	-166222.0	-8848.0	-1728786.0
14	15	7	35	54	139.0	-165554.0	-8831.0	-1728110.0
14	15	7	35	85	140.0	-166717.0	-8831.0	-1727177.0
14	15	7	35	86	141.0	-169089.0	-8834.0	-1726106.0
14	15	7	35	86	142.0	-172840.0	-8852.0	-1725352.0
14	15	7	35	87	143.0	-176882.0	-8856.0	-1725007.0
14	15	7	35	88	144.0	-180681.0	-8836.0	-1724287.0
14	15	7	35	88	145.0	-184165.0	-8818.0	-1723328.0
14	15	7	35	89	146.0	-186983.0	-8823.0	-1720679.0
14	15	7	35	89	147.0	-189323.0	-8821.0	-1717513.0
14	15	7	35	90	148.0	-191123.0	-8825.0	-1715296.0
14	15	7	35	91	149.0	-192353.0	-8829.0	-1714354.0
14	15	7	35	91	150.0	-193666.0	-8821.0	-1713345.0
14	15	7	35	92	151.0	-195187.0	-8821.0	-1712402.0
14	15	7	35	92	152.0	-196934.0	-8843.0	-1712382.0
14	15	7	35	93	153.0	-199378.0	-8833.0	-1711681.0
14	15	7	35	94	154.0	-202388.0	-8793.0	-1709802.0
14	15	7	35	102	156.0	-209625.0	-8801.0	-1707345.0
14	15	7	35	102	157.0	-213584.0	-8795.0	-1705435.0
14	15	7	35	103	158.0	-218262.0	-8812.0	-1704407.0
14	15	7	35	103	159.0	-223366.0	-8805.0	-1703604.0
14	15	7	35	104	160.0	-228149.0	-8800.0	-1702834.0
14	15	7	35	104	161.0	-232121.0	-8795.0	-1702986.0
14	15	7	35	105	162.0	-235017.0	-8795.0	-1702712.0
14	15	7	35	130	163.0	-235897.0	-8793.0	-1702078.0
14	15	7	35	131	164.0	-235311.0	-8790.0	-1702100.0
14	15	7	35	132	165.0	-234002.0	-8801.0	-1701924.0
14	15	7	35	132	166.0	-232097.0	-8806.0	-1701045.0
14	15	7	35	133	167.0	-229757.0	-8789.0	-1700104.0
14	15	7	35	133	168.0	-227152.0	-8781.0	-1699272.0
14	15	7	35	134	169.0	-224284.0	-8779.0	-1698052.0
14	15	7	35	134	170.0	-220576.0	-8766.0	-1696910.0
14	15	7	35	135	171.0	-216494.0	-8783.0	-1697192.0
14	15	7	35	136	172.0	-212400.0	-8776.0	-1696804.0
14	15	7	35	136	173.0	-208521.0	-8784.0	-1696247.0
14	15	7	35	137	174.0	-205447.0	-8791.0	-1695761.0
14	15	7	35	137	175.0	-202971.0	-8769.0	-1694934.0
14	15	7	35	138	176.0	-201371.0	-8744.0	-1693779.0
14	15	7	35	138	177.0	-200187.0	-8769.0	-1692482.0
14	15	7	35	139	179.0	-198537.0	-8759.0	-1689299.0
14	15	7	35	140	180.0	-196752.0	-8766.0	-1687857.0
14	15	7	35	140	181.0	-194642.0	-8757.0	-1686449.0
14	15	7	35	148	182.0	-192847.0	-8729.0	-1685267.0
14	15	7	35	149	183.0	-191397.0	-8742.0	-1683672.0
14	15	7	35	149	184.0	-190091.0	-8737.0	-1681441.0
14	15	7	35	174	185.0	-189501.0	-8716.0	-1679918.0
14	15	7	35	197	186.0	-190866.0	-8717.0	-1678646.0
14	15	7	35	197	187.0	-194430.0	-8705.0	-1676893.0
14	15	7	35	198	188.0	-199146.0	-8708.0	-1675272.0
14	15	7	35	199	189.0	-203849.0	-8701.0	-1673053.0
14	15	7	35	199	190.0	-207292.0	-8699.0	-1670234.0
14	15	7	35	200	191.0	-209417.0	-8699.0	-1669024.0
14	15	7	35	200	192.0	-210010.0	-8679.0	-1667665.0
14	15	7	35	201	193.0	-209468.0	-8692.0	-1666546.0
14	15	7	35	201	194.0	-207687.0	-8667.0	-1665196.0
14	15	7	35	202	195.0	-205178.0	-8676.0	-1663510.0
14	15	7	35	203	196.0	-202003.0	-8669.0	-1661949.0
14	15	7	35	203	197.0	-198342.0	-8655.0	-1660569.0
14	15	7	35	204	198.0	-194881.0	-8659.0	-1659058.0
14	15	7	35	205	199.0	-191908.0	-8650.0	-1657319.0
14	15	7	35	205	201.0	-186689.0	-8638.0	-1654276.0
14	15	7	35	206	202.0	-184912.0	-8648.0	-1652776.0
14	15	7	35	206	203.0	-183513.0	-8641.0	-1651199.0
14	15	7	35	207	204.0	-182427.0	-8619.0	-1649287.0
14	15	7	35	207	205.0	-181926.0	-8611.0	-1647321.0
14	15	7	35	208	206.0	-181820.0	-8612.0	-1645174.0
14	15	7	35	208	207.0	-181795.0	-8601.0	-1643854.0
14	15	7	35	209	208.0	-182443.0	-8609.0	-1642504.0
14	15	7	35	220	209.0	-183881.0	-8600.0	-1640766.0
14	15	7	35	221	210.0	-185969.0	-8591.0	-1639040.0
14	15	7	35	221	211.0	-188553.0	-8581.0	-1637374.0
14	15	7	35	222	212.0	-190989.0	-8571.0	-1635302.0
14	15	7	35	223	213.0	-192951.0	-8556.0	-1633464.0
14	15	7	35	223	214.0	-194809.0	-8547.0	-1631383.0
14	15	7	35	224	215.0	-196374.0	-8546.0	-1629401.0
14	15	7	35	224	216.0	-198041.0	-8534.0	-1627454.0
14	15	7	35	242	217.0	-200182.0	-8519.0	-1625184.0
14	15	7	35	242	218.0	-202297.0	-8502.0	-1623399.0
14	15	7	35	243	219.0	-203753.0	-8502.0	-1622339.0
14	15	7	35	243	220.0	-204647.0	-8495.0	-1620026.0
14	15	7	35	244	221.0	-204972.0	-8459.0	-1617999.0
14	15	7	35	245	222.0	-205048.0	-8460.0	-1616347.0
14	15	7	35	245	223.0	-205141.0	-8451.0	-1614207.0
14	15	7	35	246	224.0	-205157.0	-8424.0	-1612895.0
14	15	7	35	246	225.0	-203249.0	-8426.0	-1611804.0
14	15	7	35	247	226.0	-196806.0	-8392.0	-1609587.0
14	15	7	35	247	227.0	-189273.0	-8367.0	-1606636.0
14	15	7	35	248	228.0	-187396.0	-8366.0	-1605401.0
14	15	7	35	248	229.0	-193236.0	-8361.0	-1604313.0
14	15	7	35	249	230.0	-195787.0	-8355.0	-1603093.0
14	15	7	35	265	231.0	-200436.0	-8347.0	-1601679.0
14	15	7	35	265	232.0	-205818.0	-8341.0	-1600502.0
14	15	7	35	266	233.0	-211992.0	-8321.0	-1599505.0
14	15	7	35	267	234.0	-217496.0	-8327.0	-1598400.0
14	15	7	35	267	235.0	-219552.0	-8304.0	-1596842.0
14	15	7	35	268	236.0	-220163.0	-8287.0	-1595252.0
14	15	7	35	268	237.0	-219561.0	-8271.0	-1593819.0
14	15	7	35	269	238.0	-217906.0	-8259.0	-1592587.0
14	15	7	35	269	239.0	-216289.0	-8249.0	-1591836.0
14	15	7	35	270	240.0	-213936.0	-8248.0	-1590838.0
14	15	7	35	271	241.0	-210912.0	-8238.0	-1590109.0
14	15	7	35	271	242.0	-207124.0	-8217.0	-1589568.0
14	15	7	35	272	243.0	-202744.0	-8197.0	-1588671.0
14	15	7	35	272	244.0	-198154.0	-8198.0	-1587027.0
14	15	7	35	273	245.0	-193662.0	-8194.0	-1585032.0
14	15	7	35	287	246.0	-190726.0	-8172.0	-1582534.0
14	15	7	35	288	247.0	-189013.0	-8168.0	-1579742.0
14	15	7	35	310	248.0	-188172.0	-8151.0	-1577210.0
14	15	7	35	311	249.0	-188628.0	-8154.0	-1575506.0
14	15	7	35	312	250.0	-189713.0	-8127.0	-1573649.0
14	15	7	35	312	251.0	-191712.0	-8116.0	-1572817.0
14	15	7	35	313	252.0	-194799.0	-8116.0	-1572110.0
14	15	7	35	313	253.0	-199212.0	-8111.0	-1570509.0
14	15	7	35	314	254.0	-204970.0	-8107.0	-1569237.0
14	15	7	35	315	255.0	-210874.0	-8101.0	-1568082.0
14	15	7	35	315	0.0	-216039.0	-8074.0	-1565883.0
14	15	7	35	316	1.0	-219802.0	-8059.0	-1563030.0
14	15	7	35	316	2.0	-222799.0	-8055.0	-1560550.0
14	15	7	35	317	3.0	-224672.0	-8042.0	-1558480.0
14	15	7	35	318	4.0	-225682.0	-8030.0	-1556317.0
14	15	7	35	318	5.0	-226424.0	-8021.0	-1554238.0
14	15	7	35	319	6.0	-226564.0	-8014.0	-1553877.0
14	15	7	35	319	13.0	-215733.0	-7961.0	-1543259.0
14	15	7	35	320	14.0	-212371.0	-7946.0	-1541184.0
14	15	7	35	320	15.0	-208739.0	-7939.0	-1539619.0
14	15	7	35	321	16.0	-204847.0	-7926.0	-1537609.0
14	15	7	35	322	17.0	-200834.0	-7931.0	-1535681.0
14	15	7	35	322	18.0	-196746.0	-7916.0	-1532976.0
14	15	7	35	356	19.0	-192752.0	-7896.0	-1529724.0
14	15	7	35	356	20.0	-189416.0	-7904.0	-1526741.0
14	15	7	35	357	21.0	-186701.0	-7895.0	-1523861.0
14	15	7	35	358	22.0	-185074.0	-7899.0	-1520938.0
14	15	7	35	358	23.0	-184343.0	-7897.0	-1519021.0
14	15	7	35	359	24.0	-184187.0	-7904.0	-1517201.0
14	15	7	35	359	25.0	-184444.0	-7904.0	-1514984.0
14	15	7	35	360	26.0	-184408.0	-7896.0	-1513042.0
14	15	7	35	361	27.0	-184344.0	-7897.0	-1511716.0
14	15	7	35	361	28.0	-183996.0	-7896.0	-1509859.0
14	15	7	35	362	29.0	-183541.0	-7885.0	-1508085.0
14	15	7	35	362	30.0	-183575.0	-7878.0	-1506444.0
14	15	7	35	363	31.0	-184360.0	-7875.0	-1504046.0
14	15	7	35	363	32.0	-185761.0	-7872.0	-1501846.0
14	15	7	35	364	33.0	-187754.0	-7861.0	-1499819.0
14	15	7	35	401	35.0	-191652.0	-7867.0	-1496106.0
14	15	7	35	402	36.0	-192617.0	-7864.0	-1494840.0
14	15	7	35	402	37.0	-193209.0	-7856.0	-1493144.0
14	15	7	35	403	38.0	-193184.0	-7857.0	-1491438.0
14	15	7	35	404	39.0	-192694.0	-7846.0	-1489995.0
14	15	7	35	404	40.0	-192319.0	-7813.0	-1488450.0
14	15	7	35	405	41.0	-192642.0	-7815.0	-1486937.0
14	15	7	35	406	42.0	-193657.0	-7829.0	-1485307.0
14	15	7	35	406	43.0	-195140.0	-7839.0	-1483574.0
14	15	7	35	407	44.0	-196906.0	-7832.0	-1482202.0
14	15	7	35	407	45.0	-198174.0	-7838.0	-1480791.0
14	15	7	35	408	46.0	-198576.0	-7839.0	-1479341.0
14	15	7	35	409	47.0	-198254.0	-7831.0	-1478062.0
14	15	7	35	409	48.0	-196761.0	-7811.0	-1476619.0
14	15	7	35	410	49.0	-194624.0	-7802.0	-1474920.0
14	15	7	35	410	50.0	-192449.0	-7796.0	-1473566.0
14	15	7	35	411	58.0	-199024.0	-7728.0	-1457294.0
14	15	7	35	412	59.0	-201485.0	-7739.0	-1454564.0
14	15	7	35	412	60.0	-202912.0	-7737.0	-1452703.0
14	15	7	35	413	61.0	-203925.0	-7720.0	-1450341.0
14	15	7	35	413	62.0	-204272.0	-7721.0	-1447901.0
14	15	7	35	414	63.0	-204134.0	-7701.0	-1446497.0
14	15	7	35	445	64.0	-203306.0	-7686.0	-1444796.0
14	15	7	35	446	65.0	-202174.0	-7682.0	-1443179.0
14	15	7	35	447	66.0	-200522.0	-7674.0	-1441809.0
14	15	7	35	447	67.0	-198940.0	-7671.0	-1440101.0
14	15	7	35	448	68.0	-197434.0	-7659.0	-1438201.0
14	15	7	35	449	69.0	-196395.0	-7671.0	-1436078.0
14	15	7	35	450	70.0	-195887.0	-7656.0	-1434337.0
14	15	7	35	450	71.0	-195996.0	-7636.0	-1431498.0
14	15	7	35	451	72.0	-196444.0	-7622.0	-1429807.0
14	15	7	35	452	73.0	-197332.0	-7611.0	-1427566.0
14	15	7	35	452	74.0	-197886.0	-7604.0	-1425490.0
14	15	7	35	453	75.0	-198619.0	-7624.0	-1423937.0
14	15	7	35	453	76.0	-199177.0	-7621.0	-1422267.0
14	15	7	35	454	77.0	-199486.0	-7594.0	-1420721.0
14	15	7	35	455	78.0	-199765.0	-7581.0	-1419397.0
14	15	7	35	455	80.0	-200107.0	-7572.0	-1415158.0
14	15	7	35	456	81.0	-200855.0	-7553.0	-1413720.0
14	15	7	35	456	82.0	-202011.0	-7560.0	-1411787.0
14	15	7	35	457	83.0	-202983.0	-7560.0	-1410045.0
14	15	7	35	458	84.0	-203744.0	-7532.0	-1408780.0
14	15	7	35	458	85.0	-204669.0	-7521.0	-1407252.0
14	15	7	35	490	86.0	-205242.0	-7532.0	-1405674.0
14	15	7	35	491	87.0	-205702.0	-7534.0	-1404651.0
14	15	7	35	492	88.0	-205791.0	-7516.0	-1403318.0
14	15	7	35	492	89.0	-205637.0	-7512.0	-1401364.0
14	15	7	35	493	90.0	-205826.0	-7504.0	-1399729.0
14	15	7	35	494	91.0	-206689.0	-7504.0	-1396946.0
14	15	7	35	494	92.0	-207920.0	-7493.0	-1394450.0
14	15	7	35	495	93.0	-209429.0	-7483.0	-1392141.0
14	15	7	35	495	94.0	-210826.0	-7470.0	-1390340.0
14	15	7	35	536	95.0	-211671.0	-7450.0	-1388666.0
14	15	7	35	537	96.0	-211917.0	-7442.0	-1387501.0
14	15	7	35	537	97.0	-212028.0	-7434.0	-1386177.0
14	15	7	35	538	98.0	-212037.0	-7427.0	-1384559.0
14	15	7	35	539	99.0	-212203.0	-7432.0	-1382824.0
14	15	7	35	539	100.0	-212031.0	-7429.0	-1380564.0
14	15	7	35	540	103.0	-208621.0	-7412.0	-1373116.0
14	15	7	35	541	104.0	-206002.0	-7411.0	-1370609.0
14	15	7	35	541	105.0	-202886.0	-7415.0	-1368337.0
14	15	7	35	542	106.0	-199687.0	-7395.0	-1366144.0
14	15	7	35	543	107.0	-196489.0	-7377.0	-1364054.0
14	15	7	35	543	108.0	-193003.0	-7377.0	-1360332.0
14	15	7	35	544	109.0	-189851.0	-7382.0	-1356152.0
14	15	7	35	545	110.0	-187004.0	-7369.0	-1356189.0
14	15	7	35	545	111.0	-184448.0	-7361.0	-1356460.0
14	15	7	35	546	112.0	-182334.0	-7351.0	-1355232.0
14	15	7	35	547	125.0	-195389.0	-7326.0	-1359775.0
14	15	7	35	547	126.0	-196879.0	-7315.0	-1358764.0
14	15	7	35	548	127.0	-198111.0	-7307.0	-1354701.0
14	15	7	35	548	128.0	-199387.0	-7321.0	-1347517.0
14	15	7	35	549	129.0	-200658.0	-7312.0	-1339446.0
14	15	7	35	549	130.0	-202591.0	-7311.0	-1331023.0
14	15	7	35	550	131.0	-204357.0	-7305.0	-1322319.0
14	15	7	35	581	132.0	-205784.0	-7300.0	-1314109.0
14	15	7	35	582	133.0	-207496.0	-7295.0	-1305465.0
14	15	7	35	582	134.0	-210159.0	-7317.0	-1295100.0
14	15	7	35	583	135.0	-213095.0	-7325.0	-1288077.0
14	15	7	35	584	136.0	-216319.0	-7317.0	-1287777.0
14	15	7	35	585	137.0	-218693.0	-7293.0	-1292471.0
14	15	7	35	585	138.0	-219830.0	-7294.0	-1298926.0
14	15	7	35	586	139.0	-219161.0	-7303.0	-1304875.0
14	15	7	35	586	140.0	-217662.0	-7292.0	-1309539.0
14	15	7	35	587	141.0	-216015.0	-7304.0	-1311946.0
14	15	7	35	588	142.0	-214902.0	-7305.0	-1312528.0
14	15	7	35	588	143.0	-212106.0	-7288.0	-1311539.0
14	15	7	35	589	144.0	-205678.0	-7299.0	-1309995.0
14	15	7	35	590	145.0	-198447.0	-7302.0	-1307924.0
14	15	7	35	590	146.0	-192859.0	-7309.0	-1306550.0
14	15	7	35	591	147.0	-190109.0	-7341.0	-1306163.0
14	15	7	35	591	148.0	-192041.0	-7334.0	-1306126.0
14	15	7	35	592	149.0	-198202.0	-7317.0	-1305138.0
14	15	7	35	593	150.0	-206694.0	-7327.0	-1304877.0
14	15	7	35	593	151.0	-215085.0	-7324.0	-1304076.0
14	15	7	35	594	152.0	-220451.0	-7336.0	-1302994.0
14	15	7	35	595	153.0	-222875.0	-7354.0	-1301685.0
14	15	7	35	671	154.0	-223016.0	-7368.0	-1300609.0
14	15	7	35	672	155.0	-222274.0	-7375.0	-1299962.0
14	15	7	35	673	156.0	-221976.0	-7371.0	-1299397.0
14	15	7	35	674	157.0	-219793.0	-7384.0	-1298203.0
14	15	7	35	674	158.0	-213099.0	-7389.0	-1297937.0
14	15	7	35	675	159.0	-204414.0	-7401.0	-1303894.0
14	15	7	35	676	160.0	-198377.0	-7412.0	-1306891.0
14	15	7	35	676	161.0	-194926.0	-7419.0	-1306011.0
14	15	7	35	677	162.0	-190680.0	-7432.0	-1305822.0
14	15	7	35	677	163.0	-186885.0	-7435.0	-1305877.0
14	15	7	35	678	164.0	-185419.0	-7447.0	-1304955.0
14	15	7	35	679	165.0	-185055.0	-7460.0	-1304287.0
14	15	7	35	679	166.0	-185766.0	-7455.0	-1303854.0
14	15	7	35	680	167.0	-187869.0	-7477.0	-1303347.0
14	15	7	35	681	168.0	-189252.0	-7474.0	-1303581.0
14	15	7	35	681	170.0	-189066.0	-7501.0	-1301793.0
14	15	7	35	682	193.0	-194666.0	-7773.0	-1281476.0
14	15	7	35	682	194.0	-194272.0	-7794.0	-1280023.0
14	15	7	35	683	195.0	-194191.0	-7821.0	-1278943.0
14	15	7	35	684	196.0	-194300.0	-7854.0	-1278250.0
14	15	7	35	684	197.0	-194376.0	-7859.0	-1277170.0
14	15	7	35	685	198.0	-194822.0	-7875.0	-1275694.0
14	15	7	35	716	199.0	-195820.0	-7891.0	-1274657.0
14	15	7	35	717	200.0	-197567.0	-7925.0	-1273082.0
14	15	7	35	718	201.0	-200195.0	-7945.0	-1271706.0
14	15	7	35	718	202.0	-203699.0	-7961.0	-1271059.0
14	15	7	35	719	203.0	-208148.0	-7991.0	-1270229.0
14	15	7	35	720	204.0	-212390.0	-7991.0	-1269119.0
14	15	7	35	721	205.0	-215856.0	-8026.0	-1267708.0
14	15	7	35	721	206.0	-218239.0	-8036.0	-1265881.0
14	15	7	35	722	207.0	-220197.0	-8046.0	-1264019.0
14	15	7	35	723	208.0	-221217.0	-8057.0	-1262637.0
14	15	7	35	723	209.0	-222071.0	-8086.0	-1260636.0
14	15	7	35	724	210.0	-222212.0	-8084.0	-1259877.0
14	15	7	35	725	211.0	-221753.0	-8097.0	-1259339.0
14	15	7	35	725	212.0	-220635.0	-8130.0	-1258995.0
14	15	7	35	726	213.0	-218771.0	-8159.0	-1258297.0
14	15	7	35	727	215.0	-213714.0	-8175.0	-1257433.0
14	15	7	35	727	216.0	-210881.0	-8188.0	-1256278.0
14	15	7	35	728	217.0	-208242.0	-8191.0	-1255708.0
14	15	7	35	729	218.0	-206173.0	-8217.0	-1254898.0
14	15	7	35	729	219.0	-204183.0	-8216.0	-1253201.0
14	15	7	35	730	220.0	-202567.0	-8228.0	-1251784.0
14	15	7	35	760	221.0	-201465.0	-8249.0	-1250166.0
14	15	7	35	805	222.0	-200355.0	-8261.0	-1248563.0
14	15	7	35	806	223.0	-199259.0	-8275.0	-1246319.0
14	15	7	35	807	224.0	-197647.0	-8300.0	-1244512.0
14	15	7	35	808	225.0	-196125.0	-8305.0	-1242866.0
14	15	7	35	808	226.0	-194334.0	-8311.0	-1241217.0
14	15	7	35	809	227.0	-192951.0	-8313.0	-1239580.0
14	15	7	35	810	228.0	-192053.0	-8316.0	-1238516.0
14	15	7	35	811	229.0	-191555.0	-8327.0	-1237545.0
14	15	7	35	812	230.0	-191390.0	-8335.0	-1235715.0
14	15	7	35	812	231.0	-191524.0	-8359.0	-1233388.0
14	15	7	35	813	232.0	-192168.0	-8355.0	-1231831.0
14	15	7	35	814	233.0	-193236.0	-8346.0	-1229842.0
14	15	7	35	815	234.0	-195547.0	-8367.0	-1227961.0
14	15	7	35	816	235.0	-198736.0	-8372.0	-1226351.0
14	15	7	35	816	237.0	-207569.0	-8379.0	-1223877.0
14	15	7	35	817	4.0	-183059.0	-8311.0	-1186566.0
14	15	7	35	817	5.0	-183604.0	-8306.0	-1184540.0
14	15	7	35	818	6.0	-183772.0	-8296.0	-1183144.0
14	15	7	35	819	7.0	-184351.0	-8283.0	-1181814.0
14	15	7	35	819	8.0	-185049.0	-8284.0	-1179968.0
14	15	7	35	820	9.0	-185917.0	-8281.0	-1178557.0
14	15	7	35	851	10.0	-187364.0	-8254.0	-1177619.0
14	15	7	35	851	11.0	-188911.0	-8250.0	-1175791.0
14	15	7	35	852	12.0	-190806.0	-8255.0	-1174381.0
14	15	7	35	853	13.0	-192574.0	-8259.0	-1172982.0
14	15	7	35	853	14.0	-193766.0	-8242.0	-1171508.0
14	15	7	35	854	15.0	-194061.0	-8227.0	-1169642.0
14	15	7	35	855	16.0	-191129.0	-8208.0	-1167502.0
14	15	7	35	856	17.0	-184517.0	-8202.0	-1164696.0
14	15	7	35	856	18.0	-179765.0	-8201.0	-1162362.0
14	15	7	35	857	19.0	-183325.0	-8202.0	-1161236.0
14	15	7	35	857	20.0	-189871.0	-8181.0	-1160544.0
14	15	7	35	858	21.0	-194934.0	-8152.0	-1159407.0
14	15	7	35	859	22.0	-203409.0	-8146.0	-1158516.0
14	15	7	35	860	23.0	-211249.0	-8146.0	-1157766.0
14	15	7	35	860	24.0	-220372.0	-8125.0	-1156780.0
14	15	7	35	861	26.0	-229676.0	-8115.0	-1154777.0
14	15	7	35	861	27.0	-231305.0	-8093.0	-1153372.0
14	15	7	35	862	28.0	-230963.0	-8081.0	-1152186.0
14	15	7	35	863	29.0	-229462.0	-8069.0	-1151626.0
14	15	7	35	863	30.0	-227039.0	-8066.0	-1150431.0
14	15	7	35	864	31.0	-223708.0	-8040.0	-1149434.0
14	15	7	35	865	32.0	-219663.0	-8021.0	-1148316.0
14	15	7	35	900	33.0	-214921.0	-8026.0	-1147552.0
14	15	7	35	901	34.0	-210049.0	-8018.0	-1146890.0
14	15	7	35	902	35.0	-205346.0	-7974.0	-1145357.0
14	15	7	35	902	36.0	-201141.0	-7962.0	-1143562.0
14	15	7	35	903	37.0	-197464.0	-7954.0	-1142084.0
14	15	7	35	904	38.0	-193648.0	-7947.0	-1140446.0
14	15	7	35	904	39.0	-190602.0	-7929.0	-1138502.0
14	15	7	35	905	40.0	-189119.0	-7912.0	-1137566.0
14	15	7	35	905	41.0	-188569.0	-7899.0	-1136627.0
14	15	7	35	906	42.0	-188966.0	-7901.0	-1135232.0
14	15	7	35	906	43.0	-189807.0	-7879.0	-1134344.0
14	15	7	35	907	44.0	-190992.0	-7867.0	-1133489.0
14	15	7	35	941	45.0	-192433.0	-7846.0	-1132000.0
14	15	7	35	942	46.0	-193889.0	-7838.0	-1130603.0
14	15	7	35	943	47.0	-194595.0	-7827.0	-1129202.0
14	15	7	35	943	49.0	-194309.0	-7795.0	-1126109.0
14	15	7	35	944	50.0	-194247.0	-7794.0	-1125306.0
14	15	7	35	944	51.0	-194877.0	-7789.0	-1124187.0
14	15	7	35	945	52.0	-196154.0	-7767.0	-1122973.0
14	15	7	35	946	53.0	-197922.0	-7766.0	-1121624.0
14	15	7	35	946	54.0	-199558.0	-7749.0	-1120005.0
14	15	7	35	947	55.0	-201029.0	-7731.0	-1118466.0
14	15	7	35	948	56.0	-202506.0	-7719.0	-1117457.0
14	15	7	35	949	57.0	-204032.0	-7706.0	-1115860.0
14	15	7	35	950	58.0	-205444.0	-7708.0	-1114723.0
14	15	7	35	951	59.0	-207478.0	-7702.0	-1113347.0
14	15	7	35	951	60.0	-210362.0	-7673.0	-1112159.0
14	15	7	35	952	71.0	-219059.0	-7560.0	-1095282.0
14	15	7	35	952	72.0	-215916.0	-7560.0	-1094302.0
14	15	7	35	953	73.0	-213200.0	-7541.0	-1093107.0
14	15	7	35	953	74.0	-210949.0	-7537.0	-1091822.0
14	15	7	35	954	75.0	-208960.0	-7541.0	-1089753.0
14	15	7	35	955	76.0	-206841.0	-7529.0	-1088066.0
14	15	7	35	986	77.0	-204904.0	-7536.0	-1087052.0
14	15	7	35	987	78.0	-203397.0	-7516.0	-1085647.0
14	15	7	35	987	79.0	-202172.0	-7493.0	-1083752.0
14	15	7	35	988	80.0	-201359.0	-7501.0	-1082752.0
14	15	7	35	989	81.0	-200664.0	-7511.0	-1081129.0
14	15	7	35	989	82.0	-200330.0	-7482.0	-1079758.0
14	15	7	35	990	83.0	-200071.0	-7469.0	-1078877.0
14	15	7	35	991	84.0	-199783.0	-7467.0	-1077684.0
14	15	7	35	991	85.0	-199899.0	-7463.0	-1076416.0
14	15	7	35	992	86.0	-200890.0	-7436.0	-1075552.0
14	15	7	35	993	87.0	-203104.0	-7437.0	-1074348.0
14	15	7	35	993	88.0	-205532.0	-7450.0	-1072686.0
14	15	7	35	994	89.0	-207201.0	-7432.0	-1070710.0
14	15	7	35	995	90.0	-207855.0	-7417.0	-1069276.0
14	15	7	35	995	91.0	-207404.0	-7424.0	-1068424.0
14	15	7	35	996	93.0	-203351.0	-7417.0	-1066179.0
14	15	7	35	997	94.0	-200812.0	-7391.0	-1065167.0
14	15	7	35	997	95.0	-198386.0	-7400.0	-1064177.0
14	15	7	35	998	96.0	-196628.0	-7394.0	-1063297.0
14	15	7	35	999	97.0	-195932.0	-7387.0	-1062734.0
14	15	7	35	999	98.0	-195519.0	-7372.0	-1062634.0
14	15	7	36	0	99.0	-194526.0	-7356.0	-1062047.0
14	15	7	36	31	100.0	-192784.0	-7360.0	-1061941.0
14	15	7	36	76	101.0	-190241.0	-7381.0	-1061737.0
14	15	7	36	77	102.0	-187612.0	-7379.0	-1061229.0
14	15	7	36	78	103.0	-185407.0	-7367.0	-1059910.0
14	15	7	36	78	104.0	-183640.0	-7362.0	-1058672.0
14	15	7	36	79	105.0	-182783.0	-7341.0	-1056922.0
14	15	7	36	80	106.0	-182791.0	-7328.0	-1054806.0
14	15	7	36	80	107.0	-183259.0	-7329.0	-1053926.0
14	15	7	36	81	108.0	-183475.0	-7340.0	-1053516.0
14	15	7	36	82	109.0	-183749.0	-7347.0	-1052387.0
14	15	7	36	82	110.0	-184292.0	-7341.0	-1051861.0
14	15	7	36	83	111.0	-184856.0	-7317.0	-1050797.0
14	15	7	36	84	112.0	-185571.0	-7308.0	-1049056.0
14	15	7	36	84	113.0	-186315.0	-7299.0	-1047539.0
14	15	7	36	85	114.0	-187041.0	-7305.0	-1046068.0
14	15	7	36	85	116.0	-188553.0	-7285.0	-1043165.0
14	15	7	36	86	138.0	-192161.0	-7179.0	-1012025.0
14	15	7	36	87	139.0	-191680.0	-7167.0	-1010789.0
14	15	7	36	87	140.0	-192101.0	-7171.0	-1010369.0
14	15	7	36	88	141.0	-193097.0	-7159.0	-1009356.0
14	15	7	36	89	142.0	-193277.0	-7144.0	-1007336.0
14	15	7	36	89	143.0	-193089.0	-7148.0	-1005754.0
14	15	7	36	90	144.0	-193374.0	-7157.0	-1004392.0
14	15	7	36	120	145.0	-194217.0	-7134.0	-1002217.0
14	15	7	36	121	146.0	-195574.0	-7124.0	-1000499.0
14	15	7	36	122	147.0	-197275.0	-7131.0	-999674.0
14	15	7	36	122	148.0	-198758.0	-7119.0	-998374.0
14	15	7	36	123	149.0	-200227.0	-7107.0	-997067.0
14	15	7	36	124	150.0	-201797.0	-7114.0	-996389.0
14	15	7	36	125	151.0	-203443.0	-7094.0	-995645.0
14	15	7	36	125	152.0	-205470.0	-7093.0	-994636.0
14	15	7	36	126	153.0	-207769.0	-7095.0	-993420.0
14	15	7	36	127	154.0	-210901.0	-7082.0	-992277.0
14	15	7	36	127	155.0	-214457.0	-7078.0	-991928.0
14	15	7	36	128	156.0	-217804.0	-7067.0	-992226.0
14	15	7	36	129	157.0	-220198.0	-7061.0	-992375.0
14	15	7	36	129	158.0	-222059.0	-7057.0	-992580.0
14	15	7	36	130	159.0	-223908.0	-7052.0	-992645.0
14	15	7	36	131	161.0	-226044.0	-7021.0	-995106.0
14	15	7	36	131	162.0	-225929.0	-7017.0	-998242.0
14	15	7	36	132	163.0	-225335.0	-7002.0	-1002429.0
14	15	7	36	132	164.0	-224867.0	-7017.0	-1007529.0
14	15	7	36	133	165.0	-224545.0	-7002.0	-1009592.0
14	15	7	36	134	166.0	-223867.0	-6992.0	-1008394.0
14	15	7	36	134	167.0	-223081.0	-6999.0	-1005821.0
14	15	7	36	166	168.0	-222457.0	-6970.0	-1003824.0
14	15	7	36	167	169.0	-221116.0	-6961.0	-1002974.0
14	15	7	36	167	170.0	-219074.0	-6959.0	-1002437.0
14	15	7	36	168	171.0	-216866.0	-6961.0	-1002157.0
14	15	7	36	169	172.0	-214586.0	-6964.0	-1001552.0
14	15	7	36	169	173.0	-212368.0	-6938.0	-998153.0
14	15	7	36	170	174.0	-210021.0	-6937.0	-992679.0
14	15	7	36	171	175.0	-207720.0	-6942.0	-985425.0
14	15	7	36	171	176.0	-205564.0	-6928.0	-977073.0
14	15	7	36	172	177.0	-203384.0	-6912.0	-968647.0
14	15	7	36	173	178.0	-201285.0	-6914.0	-960750.0
14	15	7	36	173	179.0	-199690.0	-6916.0	-952743.0
14	15	7	36	174	180.0	-198307.0	-6900.0	-945166.0
14	15	7	36	174	181.0	-197263.0	-6887.0	-937608.0
14	15	7	36	175	182.0	-196277.0	-6882.0	-934841.0
14	15	7	36	211	183.0	-195130.0	-6889.0	-937107.0
14	15	7	36	212	184.0	-193590.0	-6882.0	-942766.0
14	15	7	36	212	185.0	-191052.0	-6868.0	-948456.0
14	15	7	36	213	186.0	-188073.0	-6863.0	-954542.0
14	15	7	36	214	187.0	-185723.0	-6862.0	-957636.0
14	15	7	36	214	188.0	-184336.0	-6855.0	-958514.0
14	15	7	36	216	189.0	-184547.0	-6860.0	-958736.0
14	15	7	36	217	190.0	-184289.0	-6856.0	-959145.0
14	15	7	36	217	191.0	-181846.0	-6853.0	-958077.0
14	15	7	36	218	192.0	-179671.0	-6846.0	-957289.0
14	15	7	36	219	193.0	-178873.0	-6837.0	-956309.0
14	15	7	36	219	194.0	-179909.0	-6822.0	-955504.0
14	15	7	36	220	195.0	-182581.0	-6802.0	-954714.0
14	15	7	36	221	196.0	-186351.0	-6806.0	-954144.0
14	15	7	36	221	197.0	-191832.0	-6809.0	-953483.0
14	15	7	36	222	198.0	-196991.0	-6807.0	-952752.0
14	15	7	36	222	206.0	-187777.0	-6732.0	-944074.0
14	15	7	36	223	207.0	-184921.0	-6721.0	-943087.0
14	15	7	36	224	208.0	-184167.0	-6704.0	-941837.0
14	15	7	36	224	209.0	-183144.0	-6737.0	-940484.0
14	15	7	36	225	210.0	-181702.0	-6737.0	-939494.0
14	15	7	36	225	211.0	-180509.0	-6721.0	-939244.0
14	15	7	36	256	212.0	-178125.0	-6712.0	-938685.0
14	15	7	36	257	213.0	-175492.0	-6716.0	-937262.0
14	15	7	36	257	214.0	-174060.0	-6709.0	-935950.0
14	15	7	36	258	215.0	-173191.0	-6705.0	-934297.0
14	15	7	36	259	216.0	-172365.0	-6707.0	-932418.0
14	15	7	36	259	217.0	-171077.0	-6707.0	-931217.0
14	15	7	36	260	218.0	-169492.0	-6696.0	-929713.0
14	15	7	36	261	219.0	-167970.0	-6691.0	-928333.0
14	15	7	36	261	220.0	-167352.0	-6675.0	-927547.0
14	15	7	36	262	221.0	-167374.0	-6688.0	-926692.0
14	15	7	36	262	222.0	-167416.0	-6687.0	-925682.0
14	15	7	36	263	223.0	-167328.0	-6686.0	-924477.0
14	15	7	36	346	224.0	-167293.0	-6672.0	-923281.0
14	15	7	36	347	225.0	-167346.0	-6692.0	-922196.0
14	15	7	36	347	226.0	-167695.0	-6690.0	-921090.0
14	15	7	36	348	228.0	-174173.0	-6706.0	-918869.0
14	15	7	36	349	229.0	-176437.0	-6708.0	-918156.0
14	15	7	36	349	230.0	-178924.0	-6712.0	-917312.0
14	15	7	36	350	231.0	-182592.0	-6732.0	-916241.0
14	15	7	36	351	232.0	-187227.0	-6756.0	-915734.0
14	15	7	36	351	233.0	-192136.0	-6752.0	-914969.0
14	15	7	36	391	234.0	-197932.0	-6752.0	-914151.0
14	15	7	36	436	235.0	-203707.0	-6773.0	-913193.0
14	15	7	36	437	236.0	-208719.0	-6799.0	-912286.0
14	15	7	36	438	237.0	-213301.0	-6819.0	-910972.0
14	15	7	36	439	238.0	-217024.0	-6822.0	-910021.0
14	15	7	36	439	17.0	-201451.0	-7036.0	-877596.0
14	15	7	36	440	18.0	-197532.0	-7034.0	-876967.0
14	15	7	36	441	19.0	-194144.0	-7041.0	-876048.0
14	15	7	36	441	20.0	-191816.0	-7041.0	-874271.0
14	15	7	36	442	21.0	-190641.0	-7052.0	-873367.0
14	15	7	36	443	22.0	-190063.0	-7056.0	-872269.0
14	15	7	36	443	23.0	-189689.0	-7046.0	-870484.0
14	15	7	36	444	24.0	-188829.0	-7062.0	-869394.0
14	15	7	36	444	25.0	-187753.0	-7067.0	-868524.0
14	15	7	36	445	26.0	-186302.0	-7086.0	-866945.0
14	15	7	36	446	40.0	-222022.0	-7035.0	-846412.0
14	15	7	36	446	62.0	-188477.0	-6827.0	-814835.0
14	15	7	36	447	63.0	-186796.0	-6815.0	-813932.0
14	15	7	36	447	64.0	-186695.0	-6842.0	-816511.0
14	15	7	36	448	65.0	-194397.0	-6853.0	-823822.0
14	15	7	36	449	66.0	-208910.0	-6802.0	-824027.0
14	15	7	36	449	67.0	-220046.0	-6763.0	-820197.0
14	15	7	36	481	68.0	-233522.0	-6735.0	-816702.0
14	15	7	36	482	69.0	-247547.0	-6709.0	-813954.0
14	15	7	36	482	70.0	-262161.0	-6694.0	-811084.0
14	15	7	36	483	71.0	-275169.0	-6673.0	-808795.0
14	15	7	36	484	72.0	-283589.0	-6628.0	-805173.0
14	15	7	36	484	73.0	-287744.0	-6631.0	-802182.0
14	15	7	36	485	74.0	-286952.0	-6626.0	-801290.0
14	15	7	36	486	75.0	-281794.0	-6604.0	-798181.0
14	15	7	36	487	76.0	-276411.0	-6606.0	-797151.0
14	15	7	36	487	77.0	-267916.0	-6601.0	-796581.0
14	15	7	36	488	78.0	-257395.0	-6587.0	-794716.0
14	15	7	36	489	79.0	-247782.0	-6568.0	-790893.0
14	15	7	36	489	80.0	-237071.0	-6576.0	-787620.0
14	15	7	36	490	81.0	-224642.0	-6575.0	-785324.0
14	15	7	36	491	82.0	-213467.0	-6572.0	-784407.0
14	15	7	36	491	84.0	-192332.0	-6621.0	-782832.0
14	15	7	36	492	85.0	-179970.0	-6625.0	-782339.0
14	15	7	36	492	86.0	-168424.0	-6639.0	-781699.0
14	15	7	36	493	87.0	-159836.0	-6647.0	-781105.0
14	15	7	36	494	88.0	-153605.0	-6656.0	-780431.0
14	15	7	36	494	89.0	-149940.0	-6664.0	-779253.0
14	15	7	36	495	90.0	-149525.0	-6671.0	-777787.0
14	15	7	36	525	91.0	-150942.0	-6705.0	-776751.0
14	15	7	36	526	92.0	-151924.0	-6726.0	-775726.0
14	15	7	36	527	93.0	-151248.0	-6735.0	-773614.0
14	15	7	36	528	94.0	-149490.0	-6750.0	-772436.0
14	15	7	36	529	95.0	-147172.0	-6759.0	-771361.0
14	15	7	36	530	96.0	-144536.0	-6771.0	-770019.0
14	15	7	36	530	97.0	-142091.0	-6801.0	-768446.0
14	15	7	36	531	98.0	-139241.0	-6812.0	-767730.0
14	15	7	36	532	99.0	-136549.0	-6823.0	-766607.0
14	15	7	36	532	100.0	-134751.0	-6824.0	-765167.0
14	15	7	36	533	101.0	-134176.0	-6845.0	-763860.0
14	15	7	36	533	102.0	-135386.0	-6850.0	-762520.0
14	15	7	36	534	103.0	-137597.0	-6864.0	-761479.0
14	15	7	36	535	104.0	-141085.0	-6874.0	-761167.0
14	15	7	36	535	105.0	-146029.0	-6889.0	-760290.0
14	15	7	36	536	107.0	-158365.0	-6891.0	-757908.0
14	15	7	36	537	108.0	-164721.0	-6911.0	-756347.0
14	15	7	36	537	109.0	-171187.0	-6917.0	-755066.0
14	15	7	36	538	110.0	-178356.0	-6932.0	-753834.0
14	15	7	36	538	111.0	-186008.0	-6942.0	-752748.0
14	15	7	36	539	112.0	-194404.0	-6944.0	-751318.0
14	15	7	36	540	113.0	-203781.0	-6948.0	-749879.0
14	15	7	36	570	114.0	-213839.0	-6957.0	-748654.0
14	15	7	36	570	115.0	-223737.0	-6952.0	-747812.0
14	15	7	36	571	116.0	-231872.0	-6963.0	-746699.0
14	15	7	36	615	117.0	-236640.0	-6966.0	-744862.0
14	15	7	36	616	118.0	-238436.0	-6972.0	-743079.0
14	15	7	36	617	119.0	-237543.0	-6982.0	-741549.0
14	15	7	36	618	120.0	-234739.0	-6999.0	-740166.0
14	15	7	36	618	121.0	-230371.0	-6994.0	-738964.0
14	15	7	36	619	122.0	-224876.0	-7007.0	-737855.0
14	15	7	36	619	123.0	-219406.0	-7015.0	-736329.0
14	15	7	36	620	124.0	-214331.0	-7012.0	-735036.0
14	15	7	36	621	125.0	-209716.0	-7021.0	-733917.0
14	15	7	36	621	126.0	-205619.0	-7021.0	-732521.0
14	15	7	36	622	127.0	-202722.0	-7041.0	-731142.0
14	15	7	36	622	128.0	-201065.0	-7042.0	-730115.0
14	15	7	36	623	129.0	-200196.0	-7059.0	-728669.0
14	15	7	36	623	130.0	-199339.0	-7031.0	-727378.0
14	15	7	36	624	131.0	-198669.0	-7043.0	-726364.0
14	15	7	36	625	152.0	-196529.0	-7086.0	-704196.0
14	15	7	36	625	153.0	-196637.0	-7080.0	-703162.0
14	15	7	36	626	154.0	-197834.0	-7093.0	-702973.0
14	15	7	36	626	155.0	-199832.0	-7106.0	-702158.0
14	15	7	36	627	156.0	-201828.0	-7097.0	-700789.0
14	15	7	36	627	157.0	-202997.0	-7091.0	-699266.0
14	15	7	36	661	158.0	-204087.0	-7097.0	-698368.0
14	15	7	36	661	159.0	-205206.0	-7102.0	-696834.0
14	15	7	36	662	160.0	-206562.0	-7100.0	-694910.0
14	15	7	36	663	161.0	-208811.0	-7098.0	-693259.0
14	15	7	36	663	162.0	-211580.0	-7094.0	-691689.0
14	15	7	36	664	163.0	-214184.0	-7092.0	-689863.0
14	15	7	36	665	164.0	-216240.0	-7091.0	-688979.0
14	15	7	36	665	165.0	-217201.0	-7097.0	-687718.0
14	15	7	36	666	166.0	-217348.0	-7079.0	-686407.0
14	15	7	36	666	167.0	-217029.0	-7087.0	-685969.0
14	15	7	36	667	168.0	-216706.0	-7080.0	-684938.0
14	15	7	36	667	169.0	-216584.0	-7074.0	-683331.0
14	15	7	36	668	170.0	-216791.0	-7061.0	-682359.0
14	15	7	36	669	171.0	-216871.0	-7049.0	-680796.0
14	15	7	36	669	172.0	-216459.0	-7062.0	-679322.0
14	15	7	36	670	174.0	-214281.0	-7073.0	-676780.0
14	15	7	36	670	175.0	-212306.0	-7057.0	-674972.0
14	15	7	36	671	176.0	-209955.0	-7045.0	-673324.0
14	15	7	36	672	177.0	-207157.0	-7046.0	-671764.0
14	15	7	36	672	178.0	-204329.0	-7044.0	-670151.0
14	15	7	36	673	179.0	-201896.0	-7043.0	-668579.0
14	15	7	36	673	180.0	-199671.0	-7049.0	-666155.0
14	15	7	36	705	181.0	-198009.0	-7034.0	-663408.0
14	15	7	36	706	182.0	-196429.0	-7045.0	-660925.0
14	15	7	36	707	183.0	-194573.0	-7032.0	-659934.0
14	15	7	36	707	184.0	-193087.0	-7021.0	-659487.0
14	15	7	36	708	185.0	-191925.0	-7016.0	-658699.0
14	15	7	36	709	186.0	-190896.0	-7021.0	-657581.0
14	15	7	36	709	187.0	-189821.0	-7002.0	-656194.0
14	15	7	36	710	188.0	-188830.0	-6995.0	-655244.0
14	15	7	36	710	189.0	-188107.0	-6991.0	-654278.0
14	15	7	36	711	190.0	-187508.0	-6979.0	-653232.0
14	15	7	36	712	191.0	-187869.0	-6984.0	-652399.0
14	15	7	36	712	192.0	-189417.0	-6978.0	-651133.0
14	15	7	36	713	193.0	-191477.0	-6974.0	-650006.0
14	15	7	36	713	194.0	-194822.0	-6964.0	-648866.0
14	15	7	36	714	195.0	-199161.0	-6971.0	-647994.0
14	15	7	36	714	197.0	-208305.0	-6954.0	-645511.0
14	15	7	36	715	198.0	-211807.0	-6947.0	-644866.0
14	15	7	36	715	199.0	-214377.0	-6934.0	-643852.0
14	15	7	36	716	200.0	-215932.0	-6947.0	-643347.0
14	15	7	36	717	201.0	-216527.0	-6948.0	-642752.0
14	15	7	36	725	202.0	-216612.0	-6934.0	-642562.0
14	15	7	36	766	203.0	-216416.0	-6915.0	-642695.0
14	15	7	36	786	204.0	-216262.0	-6920.0	-643932.0
14	15	7	36	787	205.0	-215576.0	-6911.0	-644823.0
14	15	7	36	788	206.0	-214399.0	-6913.0	-645308.0
14	15	7	36	789	207.0	-212999.0	-6919.0	-647571.0
14	15	7	36	790	208.0	-211538.0	-6902.0	-651615.0
14	15	7	36	791	209.0	-210092.0	-6895.0	-655406.0
14	15	7	36	791	210.0	-209349.0	-6889.0	-659734.0
14	15	7	36	792	211.0	-208672.0	-6891.0	-662854.0
14	15	7	36	793	212.0	-208509.0	-6897.0	-662593.0
14	15	7	36	793	213.0	-208522.0	-6902.0	-660299.0
14	15	7	36	794	214.0	-208475.0	-6877.0	-658560.0
14	15	7	36	794	215.0	-207740.0	-6877.0	-657277.0
14	15	7	36	795	216.0	-206626.0	-6879.0	-657432.0
14	15	7	36	795	217.0	-205221.0	-6861.0	-656078.0
14	15	7	36	796	227.0	-206143.0	-6793.0	-594482.0
14	15	7	36	796	234.0	-183316.0	-6792.0	-613472.0
14	15	7	36	797	235.0	-177294.0	-6784.0	-614451.0
14	15	7	36	798	236.0	-169590.0	-6779.0	-614411.0
14	15	7	36	798	237.0	-159957.0	-6762.0	-614091.0
14	15	7	36	799	238.0	-150241.0	-6762.0	-613297.0
14	15	7	36	799	239.0	-142438.0	-6756.0	-612391.0
14	15	7	36	800	240.0	-137811.0	-6765.0	-612422.0
14	15	7	36	800	241.0	-135332.0	-6752.0	-612349.0
14	15	7	36	801	242.0	-133986.0	-6749.0	-611675.0
14	15	7	36	811	243.0	-135062.0	-6752.0	-611134.0
14	15	7	36	812	244.0	-138670.0	-6738.0	-610824.0
14	15	7	36	812	245.0	-143811.0	-6746.0	-610385.0
14	15	7	36	813	246.0	-150284.0	-6749.0	-610372.0
14	15	7	36	813	247.0	-158094.0	-6731.0	-610322.0
14	15	7	36	814	248.0	-166647.0	-6730.0	-609433.0
14	15	7	36	814	249.0	-174861.0	-6729.0	-608373.0
14	15	7	36	815	250.0	-179192.0	-6714.0	-607389.0
14	15	7	36	840	251.0	-177976.0	-6704.0	-605954.0
14	15	7	36	841	252.0	-176929.0	-6702.0	-605284.0
14	15	7	36	841	253.0	-178091.0	-6697.0	-604801.0
14	15	7	36	842	254.0	-179824.0	-6692.0	-604426.0
14	15	7	36	843	255.0	-181354.0	-6710.0	-603856.0
14	15	7	36	843	0.0	-183478.0	-6706.0	-603659.0
14	15	7	36	844	1.0	-185097.0	-6697.0	-603092.0
14	15	7	36	845	2.0	-186765.0	-6677.0	-602927.0
14	15	7	36	845	3.0	-189596.0	-6681.0	-602637.0
14	15	7	36	846	4.0	-192746.0	-6676.0	-602058.0
14	15	7	36	846	5.0	-195269.0	-6673.0	-601242.0
14	15	7	36	847	6.0	-196816.0	-6654.0	-599590.0
14	15	7	36	847	7.0	-198270.0	-6642.0	-598740.0
14	15	7	36	848	8.0	-200746.0	-6640.0	-598499.0
14	15	7	36	849	9.0	-204173.0	-6632.0	-598109.0
14	15	7	36	850	10.0	-206166.0	-6625.0	-597685.0
14	15	7	36	851	11.0	-206240.0	-6630.0	-597267.0
14	15	7	36	851	12.0	-204470.0	-6629.0	-596940.0
14	15	7	36	852	13.0	-201866.0	-6615.0	-596107.0
14	15	7	36	859	14.0	-198749.0	-6593.0	-594954.0
14	15	7	36	860	15.0	-194561.0	-6589.0	-594284.0
14	15	7	36	884	16.0	-189132.0	-6591.0	-593428.0
14	15	7	36	885	17.0	-183474.0	-6597.0	-592536.0
14	15	7	36	886	18.0	-178757.0	-6605.0	-591915.0
14	15	7	36	886	19.0	-175951.0	-6604.0	-590926.0
14	15	7	36	887	20.0	-175229.0	-6567.0	-590389.0
14	15	7	36	887	21.0	-176172.0	-6555.0	-590123.0
14	15	7	36	888	22.0	-178851.0	-6561.0	-589638.0
14	15	7	36	888	23.0	-183004.0	-6547.0	-588765.0
14	15	7	36	889	24.0	-187921.0	-6544.0	-588069.0
14	15	7	36	890	25.0	-192578.0	-6549.0	-587251.0
14	15	7	36	890	26.0	-197206.0	-6544.0	-586368.0
14	15	7	36	891	27.0	-201115.0	-6539.0	-585572.0
14	15	7	36	891	28.0	-204441.0	-6547.0	-585038.0
14	15	7	36	892	29.0	-207529.0	-6537.0	-585127.0
14	15	7	36	893	30.0	-210241.0	-6514.0	-585096.0
14	15	7	36	893	31.0	-212888.0	-6522.0	-584376.0
14	15	7	36	894	32.0	-215190.0	-6500.0	-584165.0
14	15	7	36	895	33.0	-217339.0	-6497.0	-583624.0
14	15	7	36	895	34.0	-219946.0	-6491.0	-582778.0
14	15	7	36	906	35.0	-222846.0	-6476.0	-582333.0
14	15	7	36	907	36.0	-225706.0	-6477.0	-581651.0
14	15	7	36	907	37.0	-228696.0	-6486.0	-582048.0
14	15	7	36	908	38.0	-232280.0	-6473.0	-583731.0
14	15	7	36	930	39.0	-235902.0	-6475.0	-583386.0
14	15	7	36	931	40.0	-239391.0	-6464.0	-582530.0
14	15	7	36	931	41.0	-242819.0	-6464.0	-581734.0
14	15	7	36	932	42.0	-245862.0	-6452.0	-580893.0
14	15	7	36	932	43.0	-249143.0	-6429.0	-579842.0
14	15	7	36	933	44.0	-252372.0	-6412.0	-579126.0
14	15	7	36	933	45.0	-255321.0	-6411.0	-578557.0
14	15	7	36	934	46.0	-257287.0	-6429.0	-577844.0
14	15	7	36	935	47.0	-258329.0	-6429.0	-577034.0
14	15	7	36	935	48.0	-257954.0	-6399.0	-576499.0
14	15	7	36	936	49.0	-255986.0	-6394.0	-575452.0
14	15	7	36	936	50.0	-253088.0	-6390.0	-574547.0
14	15	7	36	937	51.0	-249219.0	-6387.0	-574102.0
14	15	7	36	937	52.0	-245170.0	-6385.0	-573171.0
14	15	7	36	938	53.0	-240962.0	-6388.0	-571932.0
14	15	7	36	938	54.0	-236589.0	-6371.0	-571289.0
14	15	7	36	953	55.0	-232156.0	-6367.0	-570347.0
14	15	7	36	953	56.0	-227869.0	-6363.0	-569355.0
14	15	7	36	954	57.0	-223865.0	-6374.0	-569141.0
14	15	7	36	955	58.0	-219494.0	-6359.0	-568551.0
14	15	7	36	955	59.0	-214978.0	-6355.0	-567544.0
14	15	7	36	956	60.0	-210333.0	-6364.0	-566703.0
14	15	7	36	956	61.0	-205853.0	-6362.0	-565507.0
14	15	7	36	976	62.0	-201464.0	-6352.0	-564565.0
14	15	7	36	977	63.0	-197199.0	-6345.0	-563336.0
14	15	7	36	977	64.0	-193421.0	-6349.0	-562149.0
14	15	7	36	978	65.0	-190271.0	-6349.0	-560566.0
14	15	7	36	979	66.0	-187932.0	-6340.0	-559149.0
14	15	7	36	979	67.0	-186524.0	-6339.0	-558202.0
14	15	7	36	980	68.0	-185604.0	-6351.0	-556623.0
14	15	7	36	980	69.0	-184920.0	-6334.0	-555779.0
14	15	7	36	981	70.0	-184767.0	-6322.0	-554637.0
14	15	7	36	981	71.0	-184891.0	-6359.0	-553520.0
14	15	7	36	982	72.0	-185035.0	-6338.0	-552186.0
14	15	7	36	982	73.0	-185384.0	-6326.0	-550686.0
14	15	7	36	983	74.0	-185956.0	-6326.0	-549306.0
14	15	7	36	983	75.0	-187247.0	-6335.0	-548467.0
14	15	7	36	984	76.0	-188715.0	-6338.0	-547187.0
14	15	7	36	999	77.0	-189942.0	-6343.0	-546133.0
14	15	7	37	0	78.0	-191232.0	-6339.0	-545201.0
14	15	7	37	1	79.0	-192300.0	-6326.0	-544684.0
14	15	7	37	1	80.0	-193305.0	-6337.0	-543892.0
14	15	7	37	2	81.0	-194238.0	-6321.0	-543074.0
14	15	7	37	23	82.0	-194646.0	-6324.0	-541625.0
14	15	7	37	23	83.0	-194502.0	-6326.0	-540273.0
14	15	7	37	24	84.0	-193710.0	-6322.0	-539011.0
14	15	7	37	24	85.0	-192227.0	-6306.0	-537955.0
14	15	7	37	25	86.0	-190174.0	-6302.0	-536682.0
14	15	7	37	26	87.0	-187563.0	-6299.0	-535533.0
14	15	7	37	26	88.0	-184450.0	-6297.0	-534816.0
14	15	7	37	27	89.0	-180871.0	-6292.0	-533897.0
14	15	7	37	27	90.0	-177263.0	-6304.0	-533237.0
14	15	7	37	28	91.0	-173955.0	-6307.0	-531879.0
14	15	7	37	28	92.0	-171551.0	-6302.0	-530487.0
14	15	7	37	29	93.0	-170162.0	-6300.0	-529728.0
14	15	7	37	29	94.0	-169242.0	-6291.0	-528721.0
14	15	7	37	30	95.0	-168817.0	-6262.0	-527416.0
14	15	7	37	31	96.0	-168722.0	-6251.0	-526468.0
14	15	7	37	31	97.0	-169417.0	-6244.0	-525586.0
14	15	7	37	32	98.0	-171391.0	-6236.0	-524942.0
14	15	7	37	46	99.0	-173810.0	-6227.0	-524566.0
14	15	7	37	47	100.0	-176112.0	-6217.0	-524147.0
14	15	7	37	47	101.0	-178006.0	-6222.0	-522442.0
14	15	7	37	48	102.0	-178880.0	-6205.0	-521580.0
14	15	7	37	49	103.0	-178692.0	-6189.0	-521117.0
14	15	7	37	49	104.0	-177782.0	-6189.0	-519739.0
14	15	7	37	50	105.0	-176306.0	-6165.0	-518484.0
14	15	7	37	50	106.0	-174042.0	-6149.0	-517514.0
14	15	7	37	51	107.0	-169039.0	-6159.0	-516029.0
14	15	7	37	52	108.0	-161341.0	-6157.0	-514564.0
14	15	7	37	52	109.0	-155271.0	-6127.0	-513424.0
14	15	7	37	53	110.0	-159018.0	-6129.0	-513170.0
14	15	7	37	53	111.0	-166849.0	-6129.0	-512938.0
14	15	7	37	54	112.0	-171369.0	-6091.0	-511787.0
14	15	7	37	54	113.0	-179209.0	-6077.0	-509976.0
14	15	7	37	69	114.0	-188486.0	-6071.0	-509021.0
14	15	7	37	69	115.0	-198734.0	-6052.0	-508104.0
14	15	7	37	70	116.0	-206792.0	-6054.0	-507149.0
14	15	7	37	70	117.0	-210689.0	-6041.0	-506380.0
14	15	7	37	71	118.0	-212819.0	-6029.0	-505971.0
14	15	7	37	71	119.0	-213796.0	-6022.0	-505229.0
14	15	7	37	72	120.0	-214118.0	-6012.0	-504483.0
14	15	7	37	73	121.0	-214140.0	-5993.0	-503521.0
14	15	7	37	73	122.0	-213419.0	-5991.0	-502623.0
14	15	7	37	95	123.0	-212373.0	-5982.0	-502303.0
14	15	7	37	96	124.0	-210396.0	-5960.0	-501184.0
14	15	7	37	96	125.0	-208112.0	-5938.0	-499116.0
14	15	7	37	97	126.0	-206412.0	-5916.0	-497778.0
14	15	7	37	98	127.0	-205156.0	-5921.0	-496772.0
14	15	7	37	98	128.0	-204874.0	-5911.0	-495581.0
14	15	7	37	99	129.0	-205232.0	-5918.0	-494713.0
14	15	7	37	99	130.0	-206788.0	-5871.0	-494599.0
14	15	7	37	100	131.0	-209469.0	-5862.0	-493765.0
14	15	7	37	101	132.0	-212456.0	-5846.0	-492884.0
14	15	7	37	101	133.0	-215504.0	-5839.0	-492291.0
14	15	7	37	102	134.0	-217494.0	-5824.0	-490942.0
14	15	7	37	103	135.0	-218759.0	-5827.0	-489488.0
14	15	7	37	103	136.0	-218396.0	-5811.0	-488681.0
14	15	7	37	104	137.0	-217040.0	-5801.0	-487560.0
14	15	7	37	104	138.0	-215657.0	-5777.0	-486775.0
14	15	7	37	105	139.0	-213997.0	-5764.0	-485496.0
14	15	7	37	116	140.0	-211932.0	-5756.0	-484738.0
14	15	7	37	141	141.0	-210514.0	-5738.0	-484182.0
14	15	7	37	141	142.0	-209816.0	-5711.0	-483222.0
14	15	7	37	142	143.0	-209715.0	-5694.0	-482069.0
14	15	7	37	143	144.0	-211144.0	-5667.0	-480691.0
14	15	7	37	143	145.0	-213456.0	-5668.0	-478934.0
14	15	7	37	144	146.0	-214424.0	-5647.0	-477965.0
14	15	7	37	144	147.0	-215804.0	-5632.0	-477206.0
14	15	7	37	145	148.0	-216989.0	-5639.0	-476742.0
14	15	7	37	146	149.0	-218415.0	-5609.0	-475941.0
14	15	7	37	146	150.0	-219939.0	-5590.0	-474391.0
14	15	7	37	147	151.0	-219604.0	-5561.0	-471399.0
14	15	7	37	147	152.0	-219054.0	-5541.0	-468774.0
14	15	7	37	148	153.0	-217764.0	-5523.0	-466484.0
14	15	7	37	149	154.0	-215872.0	-5493.0	-464667.0
14	15	7	37	149	155.0	-214317.0	-5461.0	-462260.0
14	15	7	37	150	156.0	-214344.0	-5444.0	-460394.0
14	15	7	37	150	158.0	-212931.0	-5371.0	-457653.0
14	15	7	37	151	159.0	-212001.0	-5351.0	-456917.0
14	15	7	37	151	160.0	-211399.0	-5304.0	-456243.0
14	15	7	37	162	161.0	-210952.0	-5283.0	-454214.0
14	15	7	37	163	162.0	-210843.0	-5266.0	-452567.0
14	15	7	37	164	163.0	-211078.0	-5236.0	-450972.0
14	15	7	37	164	164.0	-211371.0	-5212.0	-448987.0
14	15	7	37	165	165.0	-211414.0	-5184.0	-447514.0
14	15	7	37	185	166.0	-211270.0	-5147.0	-446167.0
14	15	7	37	186	167.0	-211427.0	-5105.0	-444601.0
14	15	7	37	186	168.0	-211661.0	-5079.0	-443302.0
14	15	7	37	187	169.0	-211662.0	-5058.0	-442619.0
14	15	7	37	188	170.0	-210872.0	-5039.0	-441298.0
14	15	7	37	188	171.0	-209393.0	-5009.0	-440168.0
14	15	7	37	189	172.0	-207718.0	-4981.0	-438404.0
14	15	7	37	189	173.0	-205579.0	-4971.0	-437527.0
14	15	7	37	190	174.0	-202784.0	-4954.0	-436496.0
14	15	7	37	191	175.0	-199806.0	-4911.0	-436005.0
14	15	7	37	193	176.0	-197169.0	-4892.0	-434940.0
14	15	7	37	194	177.0	-194876.0	-4882.0	-433702.0
14	15	7	37	194	178.0	-193436.0	-4853.0	-432875.0
14	15	7	37	195	179.0	-192733.0	-4829.0	-432271.0
14	15	7	37	196	180.0	-192651.0	-4826.0	-431168.0
14	15	7	37	196	181.0	-192476.0	-4809.0	-430682.0
14	15	7	37	197	182.0	-192125.0	-4787.0	-430209.0
14	15	7	37	197	183.0	-192106.0	-4766.0	-429451.0
14	15	7	37	198	184.0	-191965.0	-4745.0	-428942.0
14	15	7	37	207	185.0	-191416.0	-4744.0	-428662.0
14	15	7	37	208	186.0	-190557.0	-4729.0	-428313.0
14	15	7	37	209	187.0	-189685.0	-4702.0	-428946.0
14	15	7	37	231	188.0	-188600.0	-4684.0	-429532.0
14	15	7	37	231	189.0	-187621.0	-4668.0	-429187.0
14	15	7	37	232	190.0	-187280.0	-4656.0	-428693.0
14	15	7	37	233	191.0	-186923.0	-4651.0	-427695.0
14	15	7	37	233	192.0	-186237.0	-4640.0	-427177.0
14	15	7	37	234	193.0	-185499.0	-4634.0	-427124.0
14	15	7	37	234	194.0	-185054.0	-4618.0	-426392.0
14	15	7	37	235	195.0	-184889.0	-4600.0	-425214.0
14	15	7	37	235	196.0	-185198.0	-4596.0	-425201.0
14	15	7	37	236	197.0	-186017.0	-4597.0	-424182.0
14	15	7	37	236	198.0	-187453.0	-4586.0	-423546.0
14	15	7	37	237	199.0	-189485.0	-4582.0	-423617.0
14	15	7	37	238	200.0	-192064.0	-4569.0	-423101.0
14	15	7	37	238	201.0	-195001.0	-4554.0	-423042.0
14	15	7	37	239	202.0	-197470.0	-4541.0	-422827.0
14	15	7	37	239	203.0	-199681.0	-4547.0	-421701.0
14	15	7	37	253	204.0	-201786.0	-4531.0	-420432.0
14	15	7	37	254	205.0	-203718.0	-4508.0	-419827.0
14	15	7	37	255	206.0	-205749.0	-4503.0	-418824.0
14	15	7	37	255	207.0	-207773.0	-4507.0	-417752.0
14	15	7	37	256	208.0	-209721.0	-4507.0	-416727.0
14	15	7	37	256	209.0	-211560.0	-4487.0	-415725.0
14	15	7	37	257	210.0	-213057.0	-4474.0	-414753.0
14	15	7	37	258	211.0	-214175.0	-4466.0	-413874.0
14	15	7	37	258	212.0	-214388.0	-4466.0	-413250.0
14	15	7	37	259	213.0	-213574.0	-4451.0	-412296.0
14	15	7	37	276	214.0	-212267.0	-4437.0	-411256.0
14	15	7	37	277	215.0	-210227.0	-4437.0	-410212.0
14	15	7	37	278	216.0	-207664.0	-4427.0	-409177.0
14	15	7	37	278	217.0	-205169.0	-4413.0	-407944.0
14	15	7	37	279	218.0	-202687.0	-4406.0	-407527.0
14	15	7	37	279	219.0	-199917.0	-4394.0	-406725.0
14	15	7	37	280	220.0	-197081.0	-4416.0	-405960.0
14	15	7	37	281	221.0	-194737.0	-4412.0	-404991.0
14	15	7	37	281	222.0	-192952.0	-4399.0	-403871.0
14	15	7	37	282	223.0	-191985.0	-4386.0	-402690.0
14	15	7	37	282	224.0	-191835.0	-4370.0	-401989.0
14	15	7	37	283	225.0	-192127.0	-4364.0	-401182.0
14	15	7	37	283	226.0	-193279.0	-4374.0	-400424.0
14	15	7	37	300	227.0	-195172.0	-4357.0	-399337.0
14	15	7	37	300	228.0	-197332.0	-4362.0	-398483.0
14	15	7	37	301	229.0	-199608.0	-4346.0	-397582.0
14	15	7	37	301	230.0	-201548.0	-4347.0	-395776.0
14	15	7	37	302	231.0	-203245.0	-4336.0	-394857.0
14	15	7	37	303	232.0	-204976.0	-4311.0	-393986.0
14	15	7	37	303	233.0	-206516.0	-4310.0	-393088.0
14	15	7	37	323	234.0	-208006.0	-4304.0	-392275.0
14	15	7	37	323	235.0	-209407.0	-4299.0	-392302.0
14	15	7	37	324	236.0	-210843.0	-4294.0	-391677.0
14	15	7	37	325	237.0	-212632.0	-4293.0	-390572.0
14	15	7	37	325	238.0	-214493.0	-4281.0	-389981.0
14	15	7	37	326	239.0	-216219.0	-4281.0	-389531.0
14	15	7	37	326	240.0	-217531.0	-4278.0	-388580.0
14	15	7	37	327	241.0	-218935.0	-4273.0	-387568.0
14	15	7	37	327	242.0	-219722.0	-4272.0	-387284.0
14	15	7	37	328	243.0	-220826.0	-4249.0	-385762.0
14	15	7	37	329	244.0	-222247.0	-4250.0	-382621.0
14	15	7	37	329	245.0	-223032.0	-4240.0	-380662.0
14	15	7	37	330	246.0	-223554.0	-4246.0	-380264.0
14	15	7	37	330	247.0	-224281.0	-4257.0	-380631.0
14	15	7	37	331	248.0	-225685.0	-4271.0	-381943.0
14	15	7	37	346	249.0	-227527.0	-4258.0	-382981.0
14	15	7	37	347	250.0	-229238.0	-4241.0	-383517.0
14	15	7	37	347	251.0	-230892.0	-4240.0	-384319.0
14	15	7	37	348	252.0	-232268.0	-4249.0	-386156.0
14	15	7	37	349	253.0	-233583.0	-4236.0	-389663.0
14	15	7	37	349	254.0	-234939.0	-4217.0	-394693.0
14	15	7	37	350	255.0	-235971.0	-4217.0	-399093.0
14	15	7	37	350	0.0	-237320.0	-4233.0	-401666.0
14	15	7	37	351	1.0	-239330.0	-4214.0	-401524.0
14	15	7	37	352	2.0	-241657.0	-4218.0	-399156.0
14	15	7	37	352	3.0	-243961.0	-4227.0	-397138.0
14	15	7	37	353	4.0	-246086.0	-4245.0	-395874.0
14	15	7	37	369	5.0	-247666.0	-4239.0	-395427.0
14	15	7	37	370	6.0	-249161.0	-4236.0	-395024.0
14	15	7	37	370	7.0	-249991.0	-4243.0	-395095.0
14	15	7	37	371	8.0	-251286.0	-4226.0	-392866.0
14	15	7	37	372	9.0	-252994.0	-4237.0	-387522.0
14	15	7	37	372	10.0	-254947.0	-4236.0	-380827.0
14	15	7	37	373	11.0	-257190.0	-4252.0	-373755.0
14	15	7	37	373	12.0	-259393.0	-4261.0	-366354.0
14	15	7	37	374	13.0	-260773.0	-4278.0	-360116.0
14	15	7	37	375	14.0	-261887.0	-4263.0	-353120.0
14	15	7	37	375	15.0	-263006.0	-4257.0	-346393.0
14	15	7	37	376	16.0	-264879.0	-4262.0	-339361.0
14	15	7	37	376	17.0	-267424.0	-4268.0	-334862.0
14	15	7	37	395	18.0	-270247.0	-4258.0	-335241.0
14	15	7	37	396	19.0	-272085.0	-4281.0	-339156.0
14	15	7	37	396	20.0	-271554.0	-4283.0	-345515.0
14	15	7	37	397	21.0	-268682.0	-4296.0	-352153.0
14	15	7	37	397	22.0	-264724.0	-4317.0	-357110.0
14	15	7	37	414	23.0	-260230.0	-4313.0	-359501.0
14	15	7	37	415	24.0	-254989.0	-4311.0	-360878.0
14	15	7	37	416	25.0	-247544.0	-4317.0	-361350.0
14	15	7	37	416	26.0	-236756.0	-4327.0	-361360.0
14	15	7	37	417	27.0	-225255.0	-4336.0	-361727.0
14	15	7	37	417	28.0	-214357.0	-4346.0	-362555.0
14	15	7	37	418	29.0	-205352.0	-4354.0	-363218.0
14	15	7	37	418	30.0	-198394.0	-4394.0	-364193.0
14	15	7	37	419	31.0	-194041.0	-4396.0	-365004.0
14	15	7	37	420	32.0	-192172.0	-4388.0	-366172.0
14	15	7	37	420	33.0	-190557.0	-4395.0	-367134.0
14	15	7	37	421	34.0	-187594.0	-4411.0	-368074.0
14	15	7	37	421	35.0	-181888.0	-4422.0	-368465.0
14	15	7	37	422	36.0	-173152.0	-4420.0	-368425.0
14	15	7	37	438	37.0	-163154.0	-4429.0	-368392.0
14	15	7	37	439	38.0	-152917.0	-4450.0	-369129.0
14	15	7	37	440	39.0	-140447.0	-4457.0	-369202.0
14	15	7	37	440	40.0	-126507.0	-4482.0	-368974.0
14	15	7	37	460	41.0	-112931.0	-4469.0	-368752.0
14	15	7	37	461	42.0	-102801.0	-4482.0	-368016.0
14	15	7	37	461	43.0	-96812.0	-4504.0	-367411.0
14	15	7	37	462	44.0	-91661.0	-4524.0	-366725.0
14	15	7	37	463	45.0	-87407.0	-4534.0	-365939.0
14	15	7	37	463	46.0	-84574.0	-4541.0	-365366.0
14	15	7	37	464	47.0	-83784.0	-4540.0	-364881.0
14	15	7	37	464	48.0	-85496.0	-4537.0	-364821.0
14	15	7	37	465	49.0	-87579.0	-4573.0	-364903.0
14	15	7	37	465	50.0	-89224.0	-4570.0	-364933.0
14	15	7	37	466	51.0	-91395.0	-4584.0	-365291.0
14	15	7	37	466	52.0	-93874.0	-4584.0	-365231.0
14	15	7	37	467	53.0	-96887.0	-4583.0	-364687.0
14	15	7	37	467	54.0	-99842.0	-4609.0	-363996.0
14	15	7	37	468	55.0	-102790.0	-4627.0	-363287.0
14	15	7	37	468	56.0	-104831.0	-4633.0	-362509.0
14	15	7	37	469	57.0	-105563.0	-4642.0	-361624.0
14	15	7	37	469	58.0	-105694.0	-4659.0	-360376.0
14	15	7	37	470	59.0	-104935.0	-4666.0	-359366.0
14	15	7	37	485	60.0	-103674.0	-4682.0	-357709.0
14	15	7	37	486	61.0	-102826.0	-4684.0	-355750.0
14	15	7	37	486	62.0	-102588.0	-4698.0	-354321.0
14	15	7	37	487	63.0	-103624.0	-4718.0	-352894.0
14	15	7	37	487	64.0	-105104.0	-4716.0	-351442.0
14	15	7	37	488	65.0	-107463.0	-4729.0	-350092.0
14	15	7	37	488	66.0	-111415.0	-4740.0	-348163.0
14	15	7	37	489	67.0	-115474.0	-4733.0	-345088.0
14	15	7	37	490	68.0	-119324.0	-4728.0	-343158.0
14	15	7	37	490	69.0	-124734.0	-4737.0	-339754.0
14	15	7	37	491	70.0	-129483.0	-4751.0	-336914.0
14	15	7	37	491	71.0	-134861.0	-4747.0	-334142.0
14	15	7	37	505	72.0	-141099.0	-4756.0	-330739.0
14	15	7	37	506	73.0	-148142.0	-4740.0	-327514.0
14	15	7	37	507	74.0	-156809.0	-4762.0	-325153.0
14	15	7	37	507	75.0	-166694.0	-4772.0	-322431.0
14	15	7	37	508	76.0	-176849.0	-4776.0	-319665.0
14	15	7	37	508	77.0	-187071.0	-4766.0	-317221.0
14	15	7	37	509	78.0	-196549.0	-4774.0	-314976.0
14	15	7	37	509	79.0	-205181.0	-4786.0	-313251.0
14	15	7	37	510	80.0	-211807.0	-4798.0	-311667.0
14	15	7	37	510	81.0	-218350.0	-4817.0	-309862.0
14	15	7	37	529	82.0	-225233.0	-4837.0	-308004.0
14	15	7	37	530	83.0	-231832.0	-4847.0	-306424.0
14	15	7	37	530	84.0	-238296.0	-4846.0	-304583.0
14	15	7	37	531	85.0	-245754.0	-4866.0	-303128.0
14	15	7	37	531	86.0	-250094.0	-4859.0	-302427.0
14	15	7	37	532	87.0	-257328.0	-4877.0	-301734.0
14	15	7	37	533	88.0	-260370.0	-4897.0	-300389.0
14	15	7	37	533	89.0	-265052.0	-4927.0	-299076.0
14	15	7	37	534	90.0	-270742.0	-4949.0	-298199.0
14	15	7	37	534	91.0	-276474.0	-4962.0	-296205.0
14	15	7	37	535	92.0	-282378.0	-4982.0	-293982.0
14	15	7	37	535	93.0	-287906.0	-4992.0	-292210.0
14	15	7	37	536	94.0	-292401.0	-5009.0	-290739.0
14	15	7	37	536	95.0	-295917.0	-5036.0	-290162.0
14	15	7	37	537	96.0	-297546.0	-5064.0	-290518.0
14	15	7	37	538	97.0	-297373.0	-5083.0	-291133.0
14	15	7	37	553	98.0	-295495.0	-5102.0	-291472.0
14	15	7	37	553	99.0	-292541.0	-5121.0	-291237.0
14	15	7	37	554	100.0	-289090.0	-5136.0	-290888.0
14	15	7	37	555	101.0	-285127.0	-5146.0	-291106.0
14	15	7	37	555	102.0	-280405.0	-5171.0	-290678.0
14	15	7	37	556	103.0	-275332.0	-5187.0	-289560.0
14	15	7	37	556	104.0	-270179.0	-5216.0	-288784.0
14	15	7	37	557	105.0	-264806.0	-5219.0	-287438.0
14	15	7	37	577	106.0	-258961.0	-5225.0	-284444.0
14	15	7	37	577	107.0	-252996.0	-5254.0	-281084.0
14	15	7	37	578	108.0	-246902.0	-5276.0	-277620.0
14	15	7	37	578	109.0	-240634.0	-5307.0	-274269.0
14	15	7	37	579	110.0	-234895.0	-5316.0	-271347.0
14	15	7	37	580	111.0	-230429.0	-5314.0	-268885.0
14	15	7	37	580	112.0	-226906.0	-5339.0	-265996.0
14	15	7	37	581	113.0	-224129.0	-5376.0	-263759.0
14	15	7	37	582	114.0	-221859.0	-5375.0	-262582.0
14	15	7	37	582	115.0	-219389.0	-5387.0	-261387.0
14	15	7	37	583	116.0	-216876.0	-5399.0	-260949.0
14	15	7	37	583	117.0	-214011.0	-5411.0	-260373.0
14	15	7	37	584	118.0	-210779.0	-5425.0	-259643.0
14	15	7	37	584	119.0	-207497.0	-5436.0	-258276.0
14	15	7	37	585	120.0	-203690.0	-5449.0	-257134.0
14	15	7	37	602	121.0	-199142.0	-5477.0	-254460.0
14	15	7	37	603	122.0	-193909.0	-5471.0	-252242.0
14	15	7	37	603	123.0	-188132.0	-5501.0	-250945.0
14	15	7	37	604	124.0	-182553.0	-5522.0	-250947.0
14	15	7	37	605	125.0	-178156.0	-5524.0	-250897.0
14	15	7	37	606	126.0	-175014.0	-5524.0	-250714.0
14	15	7	37	606	127.0	-172983.0	-5539.0	-250184.0
14	15	7	37	607	128.0	-171407.0	-5552.0	-250634.0
14	15	7	37	608	129.0	-171227.0	-5550.0	-251037.0
14	15	7	37	608	130.0	-172786.0	-5569.0	-250283.0
14	15	7	37	609	131.0	-174925.0	-5576.0	-250169.0
14	15	7	37	609	132.0	-178479.0	-5578.0	-250309.0
14	15	7	37	610	133.0	-183167.0	-5593.0	-249319.0
14	15	7	37	610	134.0	-187824.0	-5599.0	-248091.0
14	15	7	37	611	135.0	-191422.0	-5601.0	-247072.0
14	15	7	37	625	136.0	-193688.0	-5599.0	-246069.0
14	15	7	37	625	137.0	-193939.0	-5614.0	-245280.0
14	15	7	37	626	138.0	-193466.0	-5619.0	-244812.0
14	15	7	37	626	139.0	-192160.0	-5616.0	-243739.0
14	15	7	37	627	140.0	-190042.0	-5611.0	-242429.0
14	15	7	37	628	141.0	-188049.0	-5606.0	-241449.0
14	15	7	37	628	142.0	-186182.0	-5625.0	-240435.0
14	15	7	37	650	143.0	-183719.0	-5624.0	-239658.0
14	15	7	37	651	144.0	-180440.0	-5637.0	-239077.0
14	15	7	37	651	145.0	-177819.0	-5629.0	-237906.0
14	15	7	37	652	146.0	-175776.0	-5634.0	-236519.0
14	15	7	37	652	147.0	-173392.0	-5622.0	-236057.0
14	15	7	37	653	148.0	-171494.0	-5620.0	-234802.0
14	15	7	37	654	149.0	-170522.0	-5605.0	-232941.0
14	15	7	37	654	150.0	-169846.0	-5606.0	-231307.0
14	15	7	37	655	151.0	-169367.0	-5614.0	-229460.0
14	15	7	37	655	152.0	-169769.0	-5612.0	-227507.0
14	15	7	37	656	153.0	-170140.0	-5617.0	-225834.0
14	15	7	37	657	154.0	-167471.0	-5612.0	-224329.0
14	15	7	37	657	155.0	-164609.0	-5614.0	-221916.0
14	15	7	37	658	156.0	-166442.0	-5589.0	-219661.0
14	15	7	37	658	157.0	-176610.0	-5586.0	-218250.0
14	15	7	37	659	158.0	-183683.0	-5597.0	-216146.0
14	15	7	37	659	159.0	-193129.0	-5599.0	-214544.0
14	15	7	37	660	160.0	-204279.0	-5569.0	-213647.0
14	15	7	37	661	161.0	-213938.0	-5580.0	-211995.0
14	15	7	37	670	162.0	-223555.0	-5576.0	-209788.0
14	15	7	37	671	163.0	-229805.0	-5562.0	-208457.0
14	15	7	37	695	164.0	-233919.0	-5569.0	-206429.0
14	15	7	37	695	165.0	-236931.0	-5569.0	-204944.0
14	15	7	37	696	166.0	-239499.0	-5550.0	-203746.0
14	15	7	37	697	167.0	-240992.0	-5547.0	-201911.0
14	15	7	37	697	168.0	-241189.0	-5534.0	-200206.0
14	15	7	37	698	169.0	-240418.0	-5534.0	-198984.0
14	15	7	37	698	170.0	-238451.0	-5524.0	-197626.0
14	15	7	37	699	171.0	-235926.0	-5517.0	-196733.0
14	15	7	37	700	172.0	-233671.0	-5526.0	-195704.0
14	15	7	37	700	173.0	-232416.0	-5512.0	-194482.0
14	15	7	37	701	174.0	-232001.0	-5501.0	-192962.0
14	15	7	37	701	175.0	-231500.0	-5505.0	-191669.0
14	15	7	37	702	176.0	-230904.0	-5489.0	-189839.0
14	15	7	37	702	177.0	-230827.0	-5501.0	-188800.0
14	15	7	37	703	178.0	-231237.0	-5491.0	-187243.0
14	15	7	37	704	179.0	-231468.0	-5491.0	-186565.0
14	15	7	37	704	180.0	-231577.0	-5464.0	-185729.0
14	15	7	37	705	181.0	-231255.0	-5462.0	-185067.0
14	15	7	37	705	182.0	-230552.0	-5477.0	-183937.0
14	15	7	37	717	183.0	-229611.0	-5488.0	-183318.0
14	15	7	37	717	184.0	-229209.0	-5477.0	-183119.0
14	15	7	37	718	185.0	-229213.0	-5466.0	-182277.0
14	15	7	37	718	186.0	-228927.0	-5456.0	-181809.0
14	15	7	37	740	187.0	-228486.0	-5479.0	-181651.0
14	15	7	37	740	188.0	-227172.0	-5451.0	-180747.0
14	15	7	37	741	189.0	-225364.0	-5460.0	-179575.0
14	15	7	37	742	190.0	-222271.0	-5469.0	-179442.0
14	15	7	37	742	191.0	-218258.0	-5451.0	-179104.0
14	15	7	37	743	192.0	-214034.0	-5471.0	-178067.0
14	15	7	37	743	193.0	-209828.0	-5451.0	-177172.0
14	15	7	37	744	194.0	-205121.0	-5434.0	-176594.0
14	15	7	37	745	195.0	-199950.0	-5448.0	-175461.0
14	15	7	37	745	196.0	-194541.0	-5442.0	-174523.0
14	15	7	37	746	197.0	-189165.0	-5442.0	-174244.0
14	15	7	37	746	198.0	-183732.0	-5439.0	-173654.0
14	15	7	37	747	199.0	-178383.0	-5439.0	-173270.0
14	15	7	37	748	200.0	-173134.0	-5438.0	-173170.0
14	15	7	37	748	201.0	-167947.0	-5446.0	-172507.0
14	15	7	37	749	202.0	-163008.0	-5452.0	-172156.0
14	15	7	37	749	203.0	-158497.0	-5450.0	-172028.0
14	15	7	37	750	204.0	-154511.0	-5456.0	-171650.0
14	15	7	37	750	205.0	-151105.0	-5459.0	-171779.0
14	15	7	37	762	206.0	-148045.0	-5454.0	-171747.0
14	15	7	37	763	207.0	-145799.0	-5444.0	-171262.0
14	15	7	37	763	208.0	-143967.0	-5464.0	-170623.0
14	15	7	37	785	209.0	-141792.0	-5487.0	-170171.0
14	15	7	37	808	210.0	-139915.0	-5484.0	-169777.0
14	15	7	37	809	211.0	-138276.0	-5486.0	-168921.0
14	15	7	37	809	212.0	-136749.0	-5488.0	-168271.0
14	15	7	37	810	213.0	-135427.0	-5493.0	-168371.0
14	15	7	37	810	214.0	-134879.0	-5512.0	-168877.0
14	15	7	37	811	215.0	-135351.0	-5504.0	-168750.0
14	15	7	37	812	216.0	-136547.0	-5514.0	-168199.0
14	15	7	37	812	217.0	-138912.0	-5535.0	-167841.0
14	15	7	37	813	218.0	-142020.0	-5536.0	-167019.0
14	15	7	37	813	219.0	-145944.0	-5532.0	-166710.0
14	15	7	37	814	220.0	-150504.0	-5537.0	-166267.0
14	15	7	37	815	221.0	-154897.0	-5550.0	-165098.0
14	15	7	37	815	222.0	-158696.0	-5547.0	-164452.0
14	15	7	37	816	223.0	-161472.0	-5547.0	-164406.0
14	15	7	37	816	224.0	-163039.0	-5562.0	-163782.0
14	15	7	37	817	225.0	-163516.0	-5570.0	-163476.0
14	15	7	37	817	226.0	-163099.0	-5566.0	-162732.0
14	15	7	37	818	227.0	-162309.0	-5573.0	-161702.0
14	15	7	37	819	228.0	-161484.0	-5577.0	-160547.0
14	15	7	37	819	229.0	-160312.0	-5594.0	-159654.0
14	15	7	37	820	230.0	-158292.0	-5596.0	-158172.0
14	15	7	37	820	231.0	-156429.0	-5593.0	-156741.0
14	15	7	37	821	232.0	-154177.0	-5616.0	-155790.0
14	15	7	37	821	233.0	-151026.0	-5613.0	-155016.0
14	15	7	37	822	234.0	-147797.0	-5621.0	-153992.0
14	15	7	37	823	235.0	-144981.0	-5616.0	-153350.0
14	15	7	37	823	236.0	-142992.0	-5617.0	-152751.0
14	15	7	37	824	237.0	-142256.0	-5627.0	-152121.0
14	15	7	37	824	238.0	-142639.0	-5639.0	-151812.0
14	15	7	37	825	239.0	-144241.0	-5633.0	-151776.0
14	15	7	37	826	240.0	-146661.0	-5652.0	-151989.0
14	15	7	37	833	241.0	-149529.0	-5659.0	-151096.0
14	15	7	37	834	242.0	-153014.0	-5667.0	-150746.0
14	15	7	37	834	243.0	-156812.0	-5674.0	-150281.0
14	15	7	37	835	244.0	-159296.0	-5703.0	-149544.0
14	15	7	37	835	245.0	-162085.0	-5725.0	-148792.0
14	15	7	37	836	246.0	-165719.0	-5737.0	-147675.0
14	15	7	37	837	247.0	-170892.0	-5757.0	-146838.0
14	15	7	37	857	248.0	-175482.0	-5772.0	-146463.0
14	15	7	37	857	249.0	-177947.0	-5777.0	-146512.0
14	15	7	37	858	250.0	-183011.0	-5800.0	-146081.0
14	15	7	37	858	251.0	-188292.0	-5819.0	-145662.0
14	15	7	37	859	252.0	-193859.0	-5820.0	-144814.0
14	15	7	37	860	253.0	-198656.0	-5844.0	-143780.0
14	15	7	37	860	254.0	-203901.0	-5866.0	-142555.0
14	15	7	37	861	255.0	-206218.0	-5892.0	-141687.0
14	15	7	37	861	0.0	-208521.0	-5903.0	-140482.0
14	15	7	37	862	1.0	-212081.0	-5921.0	-138808.0
14	15	7	37	863	2.0	-214412.0	-5930.0	-137902.0
14	15	7	37	863	3.0	-219054.0	-5967.0	-136817.0
14	15	7	37	864	4.0	-221236.0	-6005.0	-135688.0
14	15	7	37	864	5.0	-222074.0	-6021.0	-134376.0
14	15	7	37	865	6.0	-222947.0	-6064.0	-133586.0
14	15	7	37	879	7.0	-223607.0	-6087.0	-132694.0
14	15	7	37	880	8.0	-223160.0	-6112.0	-131807.0
14	15	7	37	880	9.0	-223369.0	-6129.0	-130961.0
14	15	7	37	881	10.0	-224230.0	-6156.0	-130056.0
14	15	7	37	882	11.0	-224404.0	-6184.0	-128506.0
14	15	7	37	882	12.0	-224793.0	-6214.0	-126642.0
14	15	7	37	883	13.0	-225396.0	-6241.0	-125597.0
14	15	7	37	903	14.0	-225021.0	-6266.0	-124562.0
14	15	7	37	904	15.0	-224955.0	-6281.0	-123487.0
14	15	7	37	904	16.0	-224986.0	-6319.0	-123049.0
14	15	7	37	905	17.0	-224683.0	-6349.0	-122259.0
14	15	7	37	905	18.0	-223734.0	-6361.0	-120914.0
14	15	7	37	906	19.0	-222139.0	-6386.0	-120359.0
14	15	7	37	907	20.0	-221124.0	-6426.0	-119669.0
14	15	7	37	907	21.0	-220702.0	-6451.0	-118315.0
14	15	7	37	908	22.0	-223267.0	-6491.0	-117021.0
14	15	7	37	908	23.0	-225619.0	-6523.0	-115994.0
14	15	7	37	909	24.0	-229653.0	-6542.0	-115321.0
14	15	7	37	910	25.0	-235111.0	-6584.0	-114834.0
14	15	7	37	910	26.0	-240606.0	-6621.0	-114179.0
14	15	7	37	911	27.0	-245814.0	-6639.0	-113375.0
14	15	7	37	911	28.0	-249818.0	-6669.0	-112622.0
14	15	7	37	912	29.0	-253975.0	-6722.0	-112259.0
14	15	7	37	927	30.0	-256700.0	-6758.0	-111419.0
14	15	7	37	927	31.0	-258192.0	-6789.0	-110564.0
14	15	7	37	928	32.0	-259617.0	-6813.0	-109956.0
14	15	7	37	928	33.0	-257976.0	-6828.0	-109179.0
14	15	7	37	929	34.0	-255677.0	-6864.0	-108319.0
14	15	7	37	930	35.0	-252424.0	-6881.0	-107447.0
14	15	7	37	950	36.0	-248422.0	-6888.0	-106232.0
14	15	7	37	950	37.0	-243287.0	-6924.0	-105322.0
14	15	7	37	951	38.0	-237704.0	-6950.0	-104377.0
14	15	7	37	952	39.0	-232024.0	-6966.0	-103259.0
14	15	7	37	952	40.0	-226741.0	-6981.0	-102741.0
14	15	7	37	953	41.0	-222192.0	-7013.0	-103716.0
14	15	7	37	954	42.0	-218114.0	-7029.0	-105167.0
14	15	7	37	954	43.0	-214456.0	-7053.0	-106598.0
14	15	7	37	955	44.0	-211462.0	-7059.0	-107576.0
14	15	7	37	956	45.0	-208831.0	-7092.0	-108772.0
14	15	7	37	956	46.0	-206899.0	-7129.0	-110927.0
14	15	7	37	957	47.0	-205303.0	-7135.0	-114568.0
14	15	7	37	957	48.0	-203998.0	-7156.0	-119011.0
14	15	7	37	958	49.0	-202616.0	-7168.0	-123895.0
14	15	7	37	959	50.0	-200192.0	-7172.0	-126741.0
14	15	7	37	959	51.0	-197077.0	-7192.0	-125623.0
14	15	7	37	960	52.0	-193906.0	-7193.0	-122290.0
14	15	7	37	960	53.0	-191553.0	-7224.0	-120826.0
14	15	7	37	961	54.0	-191017.0	-7251.0	-119952.0
14	15	7	37	973	55.0	-192462.0	-7265.0	-119717.0
14	15	7	37	973	56.0	-195763.0	-7286.0	-119747.0
14	15	7	37	974	57.0	-199940.0	-7306.0	-118994.0
14	15	7	37	997	58.0	-204362.0	-7311.0	-115184.0
14	15	7	37	998	59.0	-208242.0	-7335.0	-108867.0
14	15	7	37	999	60.0	-212132.0	-7361.0	-101562.0
14	15	7	38	0	61.0	-215548.0	-7383.0	-94008.0
14	15	7	38	0	62.0	-218232.0	-7376.0	-86864.0
14	15	7	38	1	63.0	-219896.0	-7392.0	-80993.0
14	15	7	38	1	64.0	-220584.0	-7401.0	-75541.0
14	15	7	38	2	65.0	-220349.0	-7424.0	-69739.0
14	15	7	38	3	66.0	-219661.0	-7443.0	-63647.0
14	15	7	38	3	67.0	-218316.0	-7442.0	-61245.0
14	15	7	38	4	68.0	-215933.0	-7476.0	-63606.0
14	15	7	38	4	69.0	-212659.0	-7486.0	-69238.0
14	15	7	38	5	70.0	-208011.0	-7496.0	-75091.0
14	15	7	38	6	71.0	-202724.0	-7519.0	-81261.0
14	15	7	38	6	72.0	-197992.0	-7527.0	-85089.0
14	15	7	38	7	73.0	-194010.0	-7527.0	-86836.0
14	15	7	38	7	74.0	-191092.0	-7558.0	-87786.0
14	15	7	38	8	75.0	-187371.0	-7572.0	-87679.0
14	15	7	38	20	76.0	-180932.0	-7580.0	-86902.0
14	15	7	38	20	77.0	-175401.0	-7597.0	-86649.0
14	15	7	38	21	78.0	-171374.0	-7619.0	-86603.0
14	15	7	38	21	79.0	-168537.0	-7629.0	-87079.0
14	15	7	38	22	80.0	-167620.0	-7641.0	-87299.0
14	15	7	38	43	81.0	-170481.0	-7644.0	-87377.0
14	15	7	38	44	82.0	-176873.0	-7652.0	-87294.0
14	15	7	38	44	83.0	-183932.0	-7668.0	-87352.0
14	15	7	38	45	84.0	-189784.0	-7681.0	-86617.0
14	15	7	38	46	85.0	-193278.0	-7691.0	-86149.0
14	15	7	38	46	86.0	-196761.0	-7694.0	-85681.0
14	15	7	38	47	87.0	-200187.0	-7703.0	-85617.0
14	15	7	38	47	88.0	-201988.0	-7709.0	-84481.0
14	15	7	38	48	89.0	-204264.0	-7724.0	-84301.0
14	15	7	38	48	90.0	-205274.0	-7754.0	-84198.0
14	15	7	38	49	91.0	-202516.0	-7769.0	-83932.0
14	15	7	38	50	92.0	-198237.0	-7781.0	-83764.0
14	15	7	38	50	93.0	-198858.0	-7802.0	-83514.0
14	15	7	38	51	94.0	-198232.0	-7829.0	-82864.0
14	15	7	38	51	95.0	-198907.0	-7852.0	-82067.0
14	15	7	38	52	96.0	-199187.0	-7886.0	-81194.0
14	15	7	38	52	97.0	-200681.0	-7914.0	-80746.0
14	15	7	38	67	98.0	-203820.0	-7934.0	-81046.0
14	15	7	38	67	99.0	-208291.0	-7966.0	-80968.0
14	15	7	38	68	100.0	-214028.0	-7991.0	-80584.0
14	15	7	38	69	101.0	-218964.0	-7991.0	-80402.0
14	15	7	38	69	102.0	-222066.0	-8011.0	-80487.0
14	15	7	38	70	103.0	-224214.0	-8039.0	-79742.0
14	15	7	38	71	104.0	-225452.0	-8076.0	-79059.0
14	15	7	38	71	105.0	-224645.0	-8116.0	-78733.0
14	15	7	38	72	106.0	-225057.0	-8147.0	-77979.0
14	15	7	38	73	107.0	-223311.0	-8162.0	-77789.0
14	15	7	38	73	108.0	-219096.0	-8204.0	-77816.0
14	15	7	38	74	109.0	-214597.0	-8231.0	-77920.0
14	15	7	38	74	110.0	-210281.0	-8261.0	-77989.0
14	15	7	38	75	111.0	-207542.0	-8286.0	-78201.0
14	15	7	38	89	112.0	-205342.0	-8336.0	-78041.0
14	15	7	38	90	113.0	-203904.0	-8366.0	-77925.0
14	15	7	38	91	114.0	-202921.0	-8404.0	-77569.0
14	15	7	38	91	115.0	-202894.0	-8427.0	-77402.0
14	15	7	38	92	116.0	-204408.0	-8449.0	-77184.0
14	15	7	38	92	117.0	-206894.0	-8488.0	-76967.0
14	15	7	38	93	118.0	-209664.0	-8525.0	-77177.0
14	15	7	38	113	119.0	-212470.0	-8549.0	-77357.0
14	15	7	38	114	120.0	-215147.0	-8584.0	-76521.0
14	15	7	38	115	121.0	-217201.0	-8617.0	-76071.0
14	15	7	38	116	122.0	-219036.0	-8649.0	-75699.0
14	15	7	38	116	123.0	-220320.0	-8657.0	-75836.0
14	15	7	38	117	124.0	-220882.0	-8674.0	-76424.0
14	15	7	38	117	125.0	-220796.0	-8704.0	-76667.0
14	15	7	38	118	126.0	-219824.0	-8727.0	-76829.0
14	15	7	38	119	127.0	-218408.0	-8762.0	-76999.0
14	15	7	38	119	128.0	-216321.0	-8777.0	-77039.0
14	15	7	38	120	129.0	-214164.0	-8812.0	-76906.0
14	15	7	38	120	130.0	-212161.0	-8826.0	-76954.0
14	15	7	38	121	131.0	-210134.0	-8869.0	-77137.0
14	15	7	38	121	132.0	-207936.0	-8906.0	-77292.0
14	15	7	38	122	133.0	-205727.0	-8916.0	-77152.0
14	15	7	38	137	134.0	-203591.0	-8924.0	-77276.0
14	15	7	38	137	135.0	-201409.0	-8930.0	-77534.0
14	15	7	38	138	136.0	-199193.0	-8958.0	-77726.0
14	15	7	38	138	137.0	-197623.0	-8964.0	-77392.0
14	15	7	38	139	138.0	-196177.0	-8984.0	-77841.0
14	15	7	38	139	139.0	-194557.0	-9009.0	-78221.0
14	15	7	38	140	140.0	-192482.0	-9034.0	-77736.0
14	15	7	38	141	141.0	-190122.0	-9064.0	-77294.0
14	15	7	38	159	142.0	-187578.0	-9076.0	-77377.0
14	15	7	38	160	143.0	-185223.0	-9091.0	-76628.0
14	15	7	38	160	144.0	-183141.0	-9121.0	-76319.0
14	15	7	38	161	145.0	-181829.0	-9139.0	-76481.0
14	15	7	38	162	146.0	-180795.0	-9157.0	-76136.0
14	15	7	38	162	147.0	-179942.0	-9151.0	-75704.0
14	15	7	38	163	148.0	-178809.0	-9159.0	-75159.0
14	15	7	38	163	149.0	-177377.0	-9191.0	-74396.0
14	15	7	38	164	150.0	-176087.0	-9228.0	-73920.0
14	15	7	38	165	151.0	-174329.0	-9229.0	-73313.0
14	15	7	38	165	152.0	-172532.0	-9239.0	-72494.0
14	15	7	38	166	153.0	-171155.0	-9270.0	-70688.0
14	15	7	38	166	154.0	-170447.0	-9269.0	-70216.0
14	15	7	38	167	155.0	-170279.0	-9272.0	-69094.0
14	15	7	38	167	156.0	-170656.0	-9279.0	-66927.0
14	15	7	38	182	157.0	-171531.0	-9314.0	-63885.0
14	15	7	38	182	158.0	-172864.0	-9315.0	-60075.0
14	15	7	38	183	159.0	-174679.0	-9315.0	-53162.0
14	15	7	38	184	160.0	-177275.0	-9304.0	-38429.0
14	15	7	38	184	161.0	-179929.0	-9316.0	-24394.0
14	15	7	38	185	162.0	-182522.0	-9321.0	-10756.0
14	15	7	38	185	163.0	-185030.0	-9316.0	1604.0
14	15	7	38	204	164.0	-187453.0	-9339.0	12912.0
14	15	7	38	206	165.0	-189621.0	-9362.0	21624.0
14	15	7	38	207	166.0	-191316.0	-9410.0	27439.0
14	15	7	38	207	167.0	-192150.0	-9433.0	31656.0
14	15	7	38	208	168.0	-192846.0	-9442.0	34364.0
14	15	7	38	208	169.0	-193078.0	-9424.0	39039.0
14	15	7	38	209	170.0	-193327.0	-9439.0	44664.0
14	15	7	38	209	171.0	-193564.0	-9476.0	50660.0
14	15	7	38	210	172.0	-193667.0	-9467.0	55223.0
14	15	7	38	211	173.0	-194210.0	-9484.0	57273.0
14	15	7	38	211	174.0	-194958.0	-9510.0	58327.0
14	15	7	38	212	175.0	-195840.0	-9520.0	58897.0
14	15	7	38	212	176.0	-196410.0	-9543.0	58974.0
14	15	7	38	213	177.0	-196844.0	-9551.0	59484.0
14	15	7	38	213	178.0	-197051.0	-9546.0	59557.0
14	15	7	38	230	179.0	-197161.0	-9559.0	60571.0
14	15	7	38	234	180.0	-197500.0	-9567.0	60935.0
14	15	7	38	235	181.0	-198256.0	-9581.0	60836.0
14	15	7	38	235	182.0	-199224.0	-9579.0	61086.0
14	15	7	38	236	183.0	-200249.0	-9583.0	61735.0
14	15	7	38	236	184.0	-201056.0	-9588.0	62313.0
14	15	7	38	237	185.0	-201392.0	-9591.0	62899.0
14	15	7	38	253	186.0	-201756.0	-9599.0	63359.0
14	15	7	38	254	187.0	-202809.0	-9590.0	63478.0
14	15	7	38	254	188.0	-204039.0	-9590.0	63612.0
14	15	7	38	255	189.0	-204901.0	-9601.0	64011.0
14	15	7	38	255	190.0	-205486.0	-9585.0	64096.0
14	15	7	38	256	191.0	-205949.0	-9608.0	64217.0
14	15	7	38	256	192.0	-206140.0	-9596.0	64895.0
14	15	7	38	257	193.0	-206055.0	-9591.0	65028.0
14	15	7	38	258	194.0	-206133.0	-9588.0	64811.0
14	15	7	38	258	195.0	-206736.0	-9574.0	65446.0
14	15	7	38	259	196.0	-207043.0	-9567.0	66401.0
14	15	7	38	259	197.0	-207223.0	-9569.0	66212.0
14	15	7	38	260	198.0	-206851.0	-9567.0	65780.0
14	15	7	38	260	199.0	-206141.0	-9571.0	65995.0
14	15	7	38	261	200.0	-204642.0	-9553.0	65921.0
14	15	7	38	261	201.0	-202422.0	-9559.0	65538.0
14	15	7	38	262	202.0	-199641.0	-9552.0	66164.0
14	15	7	38	275	203.0	-194709.0	-9542.0	66324.0
14	15	7	38	276	204.0	-186766.0	-9512.0	66100.0
14	15	7	38	277	205.0	-181490.0	-9502.0	66371.0
14	15	7	38	277	206.0	-182927.0	-9508.0	66323.0
14	15	7	38	278	207.0	-188221.0	-9529.0	66188.0
14	15	7	38	298	208.0	-191389.0	-9517.0	65599.0
14	15	7	38	299	209.0	-197623.0	-9515.0	64951.0
14	15	7	38	299	210.0	-204201.0	-9495.0	64469.0
14	15	7	38	300	211.0	-211412.0	-9496.0	64241.0
14	15	7	38	301	212.0	-218236.0	-9508.0	64071.0
14	15	7	38	301	213.0	-221917.0	-9482.0	63810.0
14	15	7	38	302	214.0	-223003.0	-9459.0	63014.0
14	15	7	38	302	215.0	-222642.0	-9445.0	62191.0
14	15	7	38	303	216.0	-221085.0	-9447.0	62451.0
14	15	7	38	303	217.0	-217564.0	-9449.0	62805.0
14	15	7	38	304	218.0	-213574.0	-9418.0	63228.0
14	15	7	38	305	219.0	-209190.0	-9419.0	63461.0
14	15	7	38	305	220.0	-203787.0	-9413.0	64186.0
14	15	7	38	306	221.0	-197521.0	-9395.0	64588.0
14	15	7	38	306	222.0	-191156.0	-9391.0	64243.0
14	15	7	38	307	223.0	-186411.0	-9388.0	64366.0
14	15	7	38	307	224.0	-182177.0	-9359.0	64491.0
14	15	7	38	308	225.0	-178142.0	-9373.0	63926.0
14	15	7	38	308	226.0	-175270.0	-9379.0	64411.0
14	15	7	38	309	227.0	-173832.0	-9346.0	65563.0
14	15	7	38	310	228.0	-174082.0	-9344.0	65469.0
14	15	7	38	324	229.0	-176287.0	-9336.0	65731.0
14	15	7	38	325	230.0	-180181.0	-9324.0	67210.0
14	15	7	38	325	231.0	-184850.0	-9318.0	67643.0
14	15	7	38	326	232.0	-189572.0	-9287.0	67218.0
14	15	7	38	327	233.0	-193819.0	-9294.0	68116.0
14	15	7	38	327	234.0	-196824.0	-9284.0	68873.0
14	15	7	38	328	235.0	-197194.0	-9284.0	68896.0
14	15	7	38	328	236.0	-195076.0	-9277.0	69842.0
14	15	7	38	329	237.0	-191500.0	-9272.0	69858.0
14	15	7	38	329	238.0	-187909.0	-9251.0	70216.0
14	15	7	38	330	239.0	-186240.0	-9251.0	71181.0
14	15	7	38	345	240.0	-185560.0	-9257.0	71860.0
14	15	7	38	346	241.0	-185906.0	-9257.0	72151.0
14	15	7	38	346	242.0	-186775.0	-9228.0	72337.0
14	15	7	38	347	243.0	-188170.0	-9220.0	72638.0
14	15	7	38	347	244.0	-190290.0	-9207.0	73421.0
14	15	7	38	348	245.0	-193469.0	-9209.0	74572.0
14	15	7	38	368	246.0	-196454.0	-9212.0	75194.0
14	15	7	38	369	247.0	-198296.0	-9200.0	75487.0
14	15	7	38	370	248.0	-202351.0	-9191.0	76096.0
14	15	7	38	370	249.0	-205647.0	-9189.0	78146.0
14	15	7	38	371	250.0	-208385.0	-9183.0	81676.0
14	15	7	38	371	251.0	-210720.0	-9164.0	83913.0
14	15	7	38	372	252.0	-210222.0	-9149.0	85448.0
14	15	7	38	373	253.0	-209059.0	-9149.0	86788.0
14	15	7	38	373	254.0	-207942.0	-9132.0	87895.0
14	15	7	38	374	255.0	-206024.0	-9142.0	89329.0
14	15	7	38	374	0.0	-203652.0	-9126.0	90193.0
14	15	7	38	375	1.0	-201297.0	-9128.0	90438.0
14	15	7	38	375	2.0	-199200.0	-9129.0	90928.0
14	15	7	38	376	3.0	-197597.0	-9125.0	91438.0
14	15	7	38	376	4.0	-196298.0	-9136.0	91346.0
14	15	7	38	391	5.0	-194692.0	-9100.0	91586.0
14	15	7	38	392	6.0	-193505.0	-9102.0	92236.0
14	15	7	38	392	7.0	-192844.0	-9085.0	92147.0
14	15	7	38	393	8.0	-192500.0	-9092.0	92480.0
14	15	7	38	393	9.0	-193685.0	-9098.0	93421.0
14	15	7	38	394	10.0	-196184.0	-9099.0	94086.0
14	15	7	38	394	11.0	-198266.0	-9126.0	93989.0
14	15	7	38	395	12.0	-199424.0	-9133.0	93916.0
14	15	7	38	414	13.0	-200059.0	-9134.0	93833.0
14	15	7	38	415	14.0	-200906.0	-9131.0	94269.0
14	15	7	38	416	15.0	-200534.0	-9136.0	94908.0
14	15	7	38	416	16.0	-202017.0	-9132.0	95419.0
14	15	7	38	417	17.0	-200480.0	-9136.0	95686.0
14	15	7	38	417	18.0	-198001.0	-9142.0	96321.0
14	15	7	38	418	19.0	-197504.0	-9152.0	97335.0
14	15	7	38	419	20.0	-196313.0	-9146.0	97540.0
14	15	7	38	419	21.0	-195806.0	-9172.0	97757.0
14	15	7	38	420	22.0	-194301.0	-9201.0	97866.0
14	15	7	38	420	23.0	-192251.0	-9209.0	97558.0
14	15	7	38	421	24.0	-188650.0	-9230.0	98021.0
14	15	7	38	421	25.0	-186819.0	-9236.0	98937.0
14	15	7	38	422	26.0	-184644.0	-9239.0	99361.0
14	15	7	38	422	27.0	-185255.0	-9267.0	100184.0
14	15	7	38	437	28.0	-186940.0	-9281.0	101833.0
14	15	7	38	437	29.0	-186796.0	-9302.0	103122.0
14	15	7	38	438	30.0	-187770.0	-9321.0	103863.0
14	15	7	38	438	31.0	-189937.0	-9326.0	105177.0
14	15	7	38	439	32.0	-192143.0	-9337.0	105958.0
14	15	7	38	440	33.0	-194742.0	-9344.0	106608.0
14	15	7	38	440	34.0	-199328.0	-9357.0	108299.0
14	15	7	38	461	35.0	-204648.0	-9381.0	112516.0
14	15	7	38	462	36.0	-203757.0	-9383.0	116156.0
14	15	7	38	462	37.0	-202734.0	-9403.0	118376.0
14	15	7	38	463	38.0	-205941.0	-9404.0	120128.0
14	15	7	38	463	39.0	-205725.0	-9434.0	119084.0
14	15	7	38	464	40.0	-207080.0	-9432.0	94829.0
14	15	7	38	464	41.0	-206294.0	-9441.0	65674.0
14	15	7	38	465	42.0	-206496.0	-9469.0	50164.0
14	15	7	38	466	43.0	-207827.0	-9502.0	40430.0
14	15	7	38	466	44.0	-202757.0	-9526.0	33861.0
14	15	7	38	467	45.0	-201397.0	-9554.0	27761.0
14	15	7	38	467	46.0	-202183.0	-9548.0	19800.0
14	15	7	38	468	47.0	-200307.0	-9571.0	13714.0
14	15	7	38	468	48.0	-198066.0	-9592.0	9373.0
14	15	7	38	469	49.0	-197286.0	-9583.0	5931.0
14	15	7	38	469	50.0	-196666.0	-9596.0	2957.0
14	15	7	38	470	51.0	-199757.0	-9622.0	77.0
14	15	7	38	485	52.0	-206015.0	-9635.0	-2090.0
14	15	7	38	485	53.0	-209179.0	-9639.0	-3812.0
14	15	7	38	486	54.0	-208542.0	-9664.0	-5312.0
14	15	7	38	486	55.0	-214746.0	-9687.0	-6476.0
14	15	7	38	487	56.0	-221006.0	-9721.0	-7399.0
14	15	7	38	508	57.0	-227322.0	-9735.0	-8968.0
14	15	7	38	509	58.0	-233873.0	-9746.0	-10590.0
14	15	7	38	509	59.0	-239851.0	-9763.0	-11227.0
14	15	7	38	510	60.0	-244546.0	-9776.0	-12141.0
14	15	7	38	511	61.0	-248601.0	-9791.0	-14053.0
14	15	7	38	511	62.0	-251873.0	-9824.0	-15432.0
14	15	7	38	512	63.0	-254125.0	-9852.0	-16431.0
14	15	7	38	512	64.0	-255415.0	-9864.0	-17269.0
14	15	7	38	513	65.0	-255675.0	-9866.0	-18579.0
14	15	7	38	513	66.0	-255294.0	-9899.0	-18570.0
14	15	7	38	514	67.0	-254869.0	-9912.0	-18527.0
14	15	7	38	515	68.0	-252449.0	-9917.0	-19386.0
14	15	7	38	515	69.0	-249397.0	-9941.0	-19221.0
14	15	7	38	516	70.0	-246141.0	-9954.0	-18868.0
14	15	7	38	516	71.0	-242340.0	-9957.0	-19349.0
14	15	7	38	517	72.0	-238427.0	-9982.0	-20007.0
14	15	7	38	517	73.0	-234369.0	-9999.0	-19926.0
14	15	7	38	518	74.0	-230529.0	-9997.0	-20297.0
14	15	7	38	519	75.0	-226776.0	-10011.0	-20176.0
14	15	7	38	519	76.0	-222782.0	-10019.0	-19692.0
14	15	7	38	520	77.0	-218334.0	-10031.0	-19877.0
14	15	7	38	520	78.0	-214016.0	-10050.0	-20511.0
14	15	7	38	552	79.0	-209837.0	-10070.0	-20978.0
14	15	7	38	552	80.0	-205529.0	-10077.0	-21579.0
14	15	7	38	553	81.0	-201209.0	-10098.0	-23532.0
14	15	7	38	554	82.0	-196829.0	-10115.0	-24849.0
14	15	7	38	555	83.0	-192440.0	-10127.0	-26582.0
14	15	7	38	555	84.0	-187954.0	-10127.0	-28711.0
14	15	7	38	556	85.0	-183926.0	-10130.0	-31967.0
14	15	7	38	556	86.0	-180532.0	-10139.0	-36165.0
14	15	7	38	557	87.0	-177324.0	-10162.0	-40734.0
14	15	7	38	558	88.0	-174517.0	-10189.0	-45741.0
14	15	7	38	558	89.0	-171987.0	-10207.0	-50002.0
14	15	7	38	559	90.0	-169759.0	-10201.0	-51758.0
14	15	7	38	559	91.0	-167691.0	-10205.0	-51909.0
14	15	7	38	560	92.0	-166134.0	-10227.0	-51729.0
14	15	7	38	560	93.0	-164781.0	-10244.0	-51161.0
14	15	7	38	561	94.0	-163924.0	-10245.0	-51332.0
14	15	7	38	562	95.0	-163681.0	-10248.0	-50865.0
14	15	7	38	562	96.0	-164394.0	-10268.0	-48779.0
14	15	7	38	563	97.0	-166339.0	-10282.0	-45029.0
14	15	7	38	563	98.0	-169184.0	-10283.0	-38841.0
14	15	7	38	564	99.0	-171801.0	-10300.0	-32747.0
14	15	7	38	572	100.0	-174331.0	-10309.0	-26006.0
14	15	7	38	597	101.0	-176994.0	-10319.0	-19431.0
14	15	7	38	597	102.0	-179240.0	-10332.0	-13791.0
14	15	7	38	598	103.0	-180969.0	-10343.0	-8069.0
14	15	7	38	598	104.0	-181799.0	-10332.0	-2014.0
14	15	7	38	599	105.0	-182083.0	-10364.0	2784.0
14	15	7	38	600	106.0	-183072.0	-10370.0	5699.0
14	15	7	38	600	107.0	-184721.0	-10385.0	5829.0
14	15	7	38	601	108.0	-187346.0	-10391.0	3283.0
14	15	7	38	601	109.0	-190787.0	-10394.0	-131.0
14	15	7	38	602	110.0	-194359.0	-10406.0	-3667.0
14	15	7	38	602	111.0	-197993.0	-10408.0	-8151.0
14	15	7	38	603	112.0	-201647.0	-10421.0	-10809.0
14	15	7	38	603	113.0	-205282.0	-10437.0	-12210.0
14	15	7	38	604	114.0	-208211.0	-10460.0	-13138.0
14	15	7	38	604	115.0	-209806.0	-10477.0	-13512.0
14	15	7	38	605	116.0	-209084.0	-10477.0	-12496.0
14	15	7	38	620	117.0	-206488.0	-10480.0	-11736.0
14	15	7	38	621	118.0	-203335.0	-10488.0	-11909.0
14	15	7	38	621	119.0	-200951.0	-10510.0	-11891.0
14	15	7	38	622	120.0	-199429.0	-10522.0	-11631.0
14	15	7	38	622	121.0	-199432.0	-10547.0	-11707.0
14	15	7	38	623	122.0	-201207.0	-10555.0	-11902.0
14	15	7	38	623	123.0	-204097.0	-10547.0	-11331.0
14	15	7	38	624	124.0	-207901.0	-10576.0	-11117.0
14	15	7	38	625	125.0	-212658.0	-10574.0	-10999.0
14	15	7	38	625	126.0	-217522.0	-10587.0	-10242.0
14	15	7	38	626	127.0	-220176.0	-10611.0	-10056.0
14	15	7	38	626	128.0	-219421.0	-10629.0	-10362.0
14	15	7	38	627	129.0	-216217.0	-10631.0	-9431.0
14	15	7	38	628	130.0	-212561.0	-10651.0	-7981.0
14	15	7	38	628	131.0	-210236.0	-10677.0	-6983.0
14	15	7	38	629	132.0	-208134.0	-10678.0	-6243.0
14	15	7	38	642	133.0	-205302.0	-10681.0	-5831.0
14	15	7	38	643	134.0	-203395.0	-10695.0	-5650.0
14	15	7	38	643	135.0	-203332.0	-10712.0	-5921.0
14	15	7	38	644	136.0	-204479.0	-10709.0	-5555.0
14	15	7	38	645	137.0	-206187.0	-10721.0	-5951.0
14	15	7	38	645	138.0	-207298.0	-10742.0	-6614.0
14	15	7	38	646	139.0	-207648.0	-10764.0	-7868.0
14	15	7	38	665	140.0	-207909.0	-10760.0	-8564.0
14	15	7	38	666	141.0	-208419.0	-10762.0	-8819.0
14	15	7	38	667	142.0	-209471.0	-10776.0	-8283.0
14	15	7	38	667	143.0	-210800.0	-10789.0	-7820.0
14	15	7	38	668	144.0	-212172.0	-10802.0	-6986.0
14	15	7	38	668	145.0	-213069.0	-10796.0	-6118.0
14	15	7	38	669	146.0	-213304.0	-10801.0	-5394.0
14	15	7	38	669	147.0	-212857.0	-10801.0	-4053.0
14	15	7	38	670	148.0	-212167.0	-10799.0	-2425.0
14	15	7	38	670	149.0	-210818.0	-10799.0	-1222.0
14	15	7	38	671	150.0	-208664.0	-10804.0	-142.0
14	15	7	38	672	151.0	-205349.0	-10817.0	931.0
14	15	7	38	672	152.0	-201134.0	-10832.0	1488.0
14	15	7	38	673	153.0	-196779.0	-10822.0	2437.0
14	15	7	38	673	154.0	-192587.0	-10817.0	3801.0
14	15	7	38	692	155.0	-189371.0	-10819.0	5281.0
14	15	7	38	693	156.0	-187214.0	-10832.0	6883.0
14	15	7	38	694	157.0	-186146.0	-10844.0	8847.0
14	15	7	38	694	158.0	-186034.0	-10831.0	10421.0
14	15	7	38	695	159.0	-186576.0	-10835.0	11521.0
14	15	7	38	695	160.0	-187664.0	-10833.0	13243.0
14	15	7	38	696	161.0	-189116.0	-10832.0	14282.0
14	15	7	38	715	162.0	-190139.0	-10824.0	14576.0
