14	14	52	44	19	177.0	-188475.0	-2944.0	-580.0
14	14	52	44	22	178.0	-186876.0	-2982.0	-571.0
14	14	52	44	24	179.0	-185465.0	-2959.0	-328.0
14	14	52	44	27	180.0	-184496.0	-2924.0	-351.0
14	14	52	44	29	181.0	-184210.0	-2939.0	-857.0
14	14	52	44	31	182.0	-184373.0	-2976.0	-937.0
14	14	52	44	32	183.0	-184482.0	-2969.0	-371.0
14	14	52	44	44	184.0	-184884.0	-2961.0	-481.0
14	14	52	44	44	185.0	-185538.0	-2953.0	-597.0
14	14	52	44	45	186.0	-185871.0	-2959.0	-759.0
14	14	52	44	46	187.0	-186241.0	-2971.0	-814.0
14	14	52	44	47	188.0	-187046.0	-2961.0	-801.0
14	14	52	44	47	189.0	-188285.0	-2972.0	-1038.0
14	14	52	44	48	190.0	-189384.0	-2972.0	-837.0
14	14	52	44	49	191.0	-190310.0	-3012.0	-653.0
14	14	52	44	73	192.0	-191093.0	-2992.0	-417.0
14	14	52	44	74	193.0	-192312.0	-2992.0	-531.0
14	14	52	44	75	194.0	-193594.0	-3009.0	-477.0
14	14	52	44	75	195.0	-194554.0	-3013.0	-325.0
14	14	52	44	76	196.0	-195909.0	-2999.0	-687.0
14	14	52	44	76	197.0	-197357.0	-2992.0	-817.0
14	14	52	44	77	198.0	-198708.0	-2996.0	-483.0
14	14	52	44	77	199.0	-199942.0	-2990.0	-467.0
14	14	52	44	99	200.0	-201022.0	-2979.0	-725.0
14	14	52	44	191	201.0	-201950.0	-2990.0	-646.0
14	14	52	44	192	202.0	-202848.0	-2986.0	-336.0
14	14	52	44	192	203.0	-204059.0	-3017.0	-479.0
14	14	52	44	193	204.0	-204805.0	-3039.0	21.0
14	14	52	44	194	205.0	-205354.0	-3006.0	531.0
14	14	52	44	194	206.0	-206142.0	-2988.0	337.0
14	14	52	44	195	207.0	-206756.0	-3001.0	151.0
14	14	52	44	196	208.0	-207320.0	-3021.0	266.0
14	14	52	44	196	209.0	-207915.0	-3003.0	18.0
14	14	52	44	197	210.0	-208384.0	-2988.0	-401.0
14	14	52	44	198	211.0	-208722.0	-3026.0	-246.0
14	14	52	44	198	212.0	-208879.0	-3035.0	16.0
14	14	52	44	199	213.0	-208791.0	-3031.0	-63.0
14	14	52	44	199	214.0	-208721.0	-3016.0	-197.0
14	14	52	44	200	222.0	-208219.0	-3064.0	60.0
14	14	52	44	201	10.0	-219284.0	-3030.0	1435.0
14	14	52	44	201	11.0	-216666.0	-3057.0	1346.0
14	14	52	44	202	12.0	-214453.0	-3076.0	1551.0
14	14	52	44	203	13.0	-212942.0	-3079.0	1406.0
14	14	52	44	203	14.0	-211938.0	-3082.0	1143.0
14	14	52	44	204	15.0	-211351.0	-3076.0	1256.0
14	14	52	44	205	16.0	-210997.0	-3094.0	1491.0
14	14	52	44	235	17.0	-210477.0	-3086.0	1531.0
14	14	52	44	236	18.0	-209865.0	-3089.0	1281.0
14	14	52	44	236	19.0	-209290.0	-3050.0	1495.0
14	14	52	44	237	20.0	-208886.0	-3039.0	1488.0
14	14	52	44	237	21.0	-208467.0	-3089.0	1153.0
14	14	52	44	238	22.0	-208762.0	-3077.0	909.0
14	14	52	44	239	23.0	-209852.0	-3084.0	934.0
14	14	52	44	239	24.0	-210651.0	-3042.0	930.0
14	14	52	44	240	25.0	-210713.0	-3054.0	776.0
14	14	52	44	241	26.0	-210685.0	-3083.0	960.0
14	14	52	44	241	27.0	-210516.0	-3062.0	1227.0
14	14	52	44	242	28.0	-210239.0	-3057.0	1180.0
14	14	52	44	242	29.0	-209682.0	-3081.0	1124.0
14	14	52	44	243	30.0	-208861.0	-3081.0	991.0
14	14	52	44	243	31.0	-208266.0	-3011.0	1168.0
14	14	52	44	244	33.0	-207414.0	-3054.0	1451.0
14	14	52	44	245	34.0	-207041.0	-3056.0	1693.0
14	14	52	44	245	35.0	-206516.0	-3069.0	1984.0
14	14	52	44	246	36.0	-206019.0	-3079.0	1888.0
14	14	52	44	246	37.0	-205449.0	-3054.0	1761.0
14	14	52	44	247	38.0	-205174.0	-3062.0	1896.0
14	14	52	44	279	39.0	-205164.0	-3059.0	1780.0
14	14	52	44	280	40.0	-205128.0	-3062.0	1664.0
14	14	52	44	280	41.0	-205105.0	-3054.0	1918.0
14	14	52	44	281	42.0	-205049.0	-3079.0	1976.0
14	14	52	44	282	43.0	-204651.0	-3074.0	1842.0
14	14	52	44	282	44.0	-203754.0	-3043.0	1828.0
14	14	52	44	283	45.0	-202770.0	-3039.0	2046.0
14	14	52	44	283	46.0	-201609.0	-3046.0	2091.0
14	14	52	44	284	47.0	-200386.0	-3064.0	1940.0
14	14	52	44	284	48.0	-199063.0	-3076.0	2260.0
14	14	52	44	285	49.0	-197877.0	-3049.0	2250.0
14	14	52	44	286	50.0	-197069.0	-3040.0	2272.0
14	14	52	44	286	51.0	-196593.0	-3044.0	2194.0
14	14	52	44	287	52.0	-196085.0	-3031.0	2566.0
14	14	52	44	287	53.0	-195600.0	-3031.0	2513.0
14	14	52	44	288	55.0	-195679.0	-3040.0	2869.0
14	14	52	44	288	56.0	-196114.0	-3043.0	2798.0
14	14	52	44	289	57.0	-197214.0	-3039.0	2903.0
14	14	52	44	290	58.0	-198232.0	-3056.0	3044.0
14	14	52	44	290	59.0	-199084.0	-3044.0	2812.0
14	14	52	44	291	60.0	-200321.0	-3040.0	2871.0
14	14	52	44	292	61.0	-201550.0	-3050.0	2746.0
14	14	52	44	324	62.0	-202363.0	-3042.0	2678.0
14	14	52	44	325	63.0	-203224.0	-3014.0	2736.0
14	14	52	44	325	64.0	-203977.0	-2996.0	2836.0
14	14	52	44	326	65.0	-204296.0	-3031.0	2569.0
14	14	52	44	326	66.0	-204137.0	-3039.0	2511.0
14	14	52	44	327	67.0	-203647.0	-3046.0	2773.0
14	14	52	44	327	68.0	-202915.0	-3065.0	2679.0
14	14	52	44	328	69.0	-202137.0	-3038.0	2242.0
14	14	52	44	329	70.0	-201360.0	-3037.0	2254.0
14	14	52	44	329	71.0	-200652.0	-3022.0	2366.0
14	14	52	44	330	72.0	-200244.0	-3031.0	2320.0
14	14	52	44	330	73.0	-199969.0	-3016.0	2426.0
14	14	52	44	331	74.0	-200376.0	-3009.0	2649.0
14	14	52	44	332	75.0	-201018.0	-3020.0	2349.0
14	14	52	44	332	76.0	-201726.0	-3040.0	2331.0
14	14	52	44	333	78.0	-203455.0	-3028.0	2957.0
14	14	52	44	333	79.0	-204591.0	-3009.0	2571.0
14	14	52	44	334	80.0	-205769.0	-3016.0	2710.0
14	14	52	44	334	81.0	-206581.0	-2992.0	2828.0
14	14	52	44	335	82.0	-206822.0	-2989.0	2554.0
14	14	52	44	336	83.0	-206705.0	-3014.0	2294.0
14	14	52	44	416	84.0	-206396.0	-3014.0	2467.0
14	14	52	44	416	85.0	-205764.0	-3008.0	2318.0
14	14	52	44	417	86.0	-205226.0	-3019.0	2175.0
14	14	52	44	418	87.0	-205140.0	-3017.0	2374.0
14	14	52	44	418	88.0	-205283.0	-3016.0	2648.0
14	14	52	44	419	89.0	-205164.0	-3018.0	2383.0
14	14	52	44	419	90.0	-204952.0	-3013.0	2658.0
14	14	52	44	420	91.0	-205224.0	-3009.0	2824.0
14	14	52	44	420	92.0	-205446.0	-3012.0	2648.0
14	14	52	44	421	93.0	-205645.0	-3016.0	1978.0
14	14	52	44	422	94.0	-206039.0	-2985.0	1911.0
14	14	52	44	422	95.0	-206665.0	-2985.0	2068.0
14	14	52	44	423	96.0	-207023.0	-3024.0	1682.0
14	14	52	44	423	97.0	-207149.0	-3039.0	1689.0
14	14	52	44	424	98.0	-207447.0	-3026.0	1688.0
14	14	52	44	425	123.0	-201503.0	-2997.0	2556.0
14	14	52	44	425	124.0	-201746.0	-2986.0	2656.0
14	14	52	44	426	125.0	-201582.0	-3006.0	2538.0
14	14	52	44	426	126.0	-201356.0	-3016.0	2780.0
14	14	52	44	427	127.0	-200921.0	-3021.0	2866.0
14	14	52	44	427	128.0	-200385.0	-3004.0	2741.0
14	14	52	44	459	129.0	-199823.0	-3014.0	2578.0
14	14	52	44	460	130.0	-198854.0	-3014.0	2706.0
14	14	52	44	460	131.0	-197806.0	-3043.0	2582.0
14	14	52	44	461	132.0	-196944.0	-3033.0	2499.0
14	14	52	44	462	133.0	-196119.0	-3023.0	2512.0
14	14	52	44	462	134.0	-195612.0	-2996.0	2447.0
14	14	52	44	463	135.0	-195182.0	-2953.0	2039.0
14	14	52	44	463	136.0	-194907.0	-2987.0	2182.0
14	14	52	44	464	137.0	-194801.0	-3007.0	2755.0
14	14	52	44	465	138.0	-194209.0	-3021.0	3144.0
14	14	52	44	465	139.0	-193586.0	-3006.0	2671.0
14	14	52	44	466	140.0	-192559.0	-3012.0	2405.0
14	14	52	44	466	141.0	-191052.0	-2981.0	2780.0
14	14	52	44	467	142.0	-189329.0	-2955.0	2751.0
14	14	52	44	468	143.0	-187663.0	-2987.0	2350.0
14	14	52	44	468	145.0	-185539.0	-2974.0	2523.0
14	14	52	44	469	146.0	-184646.0	-3011.0	2634.0
14	14	52	44	469	147.0	-183699.0	-3032.0	2789.0
14	14	52	44	470	148.0	-182947.0	-3016.0	2726.0
14	14	52	44	471	149.0	-182284.0	-3006.0	2550.0
14	14	52	44	471	150.0	-181808.0	-3012.0	2679.0
14	14	52	44	472	151.0	-181470.0	-2987.0	2917.0
14	14	52	44	504	152.0	-181466.0	-2975.0	2893.0
14	14	52	44	504	153.0	-182001.0	-2974.0	3031.0
14	14	52	44	505	154.0	-182838.0	-3004.0	2883.0
14	14	52	44	505	155.0	-183927.0	-2999.0	2704.0
14	14	52	44	506	156.0	-185027.0	-2951.0	2598.0
14	14	52	44	507	157.0	-186479.0	-2957.0	2348.0
14	14	52	44	507	158.0	-187982.0	-3009.0	2532.0
14	14	52	44	508	159.0	-189626.0	-2972.0	2463.0
14	14	52	44	508	160.0	-191305.0	-2971.0	2136.0
14	14	52	44	509	161.0	-193137.0	-2975.0	1100.0
14	14	52	44	510	162.0	-195081.0	-2974.0	242.0
14	14	52	44	511	163.0	-197030.0	-3002.0	-348.0
14	14	52	44	512	164.0	-198406.0	-2979.0	-1140.0
14	14	52	44	512	165.0	-199275.0	-2976.0	-2973.0
14	14	52	44	513	166.0	-199870.0	-2967.0	-4370.0
14	14	52	44	514	168.0	-199704.0	-2974.0	-3691.0
14	14	52	44	514	169.0	-199650.0	-2969.0	-2459.0
14	14	52	44	515	170.0	-200393.0	-2959.0	-1464.0
14	14	52	44	515	171.0	-201779.0	-2964.0	1904.0
14	14	52	44	516	172.0	-202947.0	-2961.0	7851.0
14	14	52	44	516	173.0	-203519.0	-2947.0	13925.0
14	14	52	44	549	174.0	-203874.0	-2941.0	18376.0
14	14	52	44	550	175.0	-204213.0	-2951.0	20689.0
14	14	52	44	550	176.0	-204681.0	-2951.0	23445.0
14	14	52	44	551	177.0	-205231.0	-2944.0	25843.0
14	14	52	44	552	178.0	-206422.0	-2943.0	26874.0
14	14	52	44	552	179.0	-207786.0	-2919.0	28005.0
14	14	52	44	553	180.0	-209777.0	-2944.0	28349.0
14	14	52	44	553	181.0	-212989.0	-2948.0	26516.0
14	14	52	44	554	182.0	-216361.0	-2939.0	23666.0
14	14	52	44	555	183.0	-219287.0	-2926.0	21431.0
14	14	52	44	555	184.0	-222411.0	-2930.0	20446.0
14	14	52	44	556	185.0	-225818.0	-2941.0	19888.0
14	14	52	44	596	186.0	-229478.0	-2926.0	18508.0
14	14	52	44	597	187.0	-233756.0	-2937.0	16547.0
14	14	52	44	598	188.0	-238102.0	-2919.0	15246.0
14	14	52	44	598	190.0	-246423.0	-2938.0	12964.0
14	14	52	44	599	191.0	-250652.0	-2914.0	11434.0
14	14	52	44	600	192.0	-249833.0	-2902.0	9779.0
14	14	52	44	600	193.0	-242060.0	-2903.0	8375.0
14	14	52	44	601	194.0	-233301.0	-2887.0	6549.0
14	14	52	44	601	195.0	-225637.0	-2904.0	5117.0
14	14	52	44	602	196.0	-218748.0	-2922.0	4117.0
14	14	52	44	602	197.0	-214902.0	-2917.0	3320.0
14	14	52	44	603	198.0	-214542.0	-2894.0	2983.0
14	14	52	44	604	199.0	-214189.0	-2891.0	2776.0
14	14	52	44	604	200.0	-214479.0	-2910.0	2458.0
14	14	52	44	605	201.0	-217402.0	-2891.0	1765.0
14	14	52	44	605	212.0	-186888.0	-2864.0	14.0
14	14	52	44	606	213.0	-182477.0	-2881.0	33.0
14	14	52	44	607	214.0	-179049.0	-2896.0	-215.0
14	14	52	44	607	215.0	-177196.0	-2879.0	-501.0
14	14	52	44	608	216.0	-178127.0	-2890.0	-305.0
14	14	52	44	608	217.0	-181001.0	-2892.0	209.0
14	14	52	44	609	218.0	-184218.0	-2882.0	127.0
14	14	52	44	640	219.0	-187188.0	-2871.0	429.0
14	14	52	44	640	220.0	-189393.0	-2859.0	320.0
14	14	52	44	641	221.0	-191217.0	-2850.0	144.0
14	14	52	44	642	222.0	-192217.0	-2878.0	13.0
14	14	52	44	642	223.0	-191982.0	-2847.0	100.0
14	14	52	44	643	224.0	-191121.0	-2877.0	-17.0
14	14	52	44	643	225.0	-190040.0	-2893.0	-263.0
14	14	52	44	644	226.0	-188722.0	-2861.0	-2.0
14	14	52	44	645	227.0	-187301.0	-2896.0	80.0
14	14	52	44	645	228.0	-185864.0	-2905.0	328.0
14	14	52	44	646	229.0	-183627.0	-2862.0	64.0
14	14	52	44	647	230.0	-180509.0	-2871.0	-116.0
14	14	52	44	647	231.0	-177127.0	-2884.0	-36.0
14	14	52	44	648	232.0	-174145.0	-2874.0	-76.0
14	14	52	44	648	233.0	-170666.0	-2845.0	-462.0
14	14	52	44	649	235.0	-165412.0	-2862.0	-459.0
14	14	52	44	650	236.0	-165537.0	-2877.0	-469.0
14	14	52	44	650	237.0	-166788.0	-2899.0	-440.0
14	14	52	44	651	238.0	-168887.0	-2876.0	-85.0
14	14	52	44	651	239.0	-172874.0	-2867.0	-182.0
14	14	52	44	652	240.0	-177897.0	-2877.0	-643.0
14	14	52	44	684	241.0	-182204.0	-2869.0	-351.0
14	14	52	44	685	242.0	-186447.0	-2856.0	-312.0
14	14	52	44	685	243.0	-190997.0	-2866.0	-583.0
14	14	52	44	686	244.0	-195168.0	-2896.0	-784.0
14	14	52	44	687	245.0	-198885.0	-2881.0	-702.0
14	14	52	44	687	246.0	-203416.0	-2864.0	-925.0
14	14	52	44	688	247.0	-208149.0	-2871.0	-1100.0
14	14	52	44	689	248.0	-212324.0	-2871.0	-536.0
14	14	52	44	689	249.0	-215809.0	-2862.0	-336.0
14	14	52	44	690	250.0	-217816.0	-2857.0	-561.0
14	14	52	44	690	251.0	-219141.0	-2854.0	-801.0
14	14	52	44	691	252.0	-220424.0	-2860.0	-574.0
14	14	52	44	692	253.0	-221763.0	-2866.0	-764.0
14	14	52	44	692	254.0	-223244.0	-2872.0	-907.0
14	14	52	44	693	255.0	-224890.0	-2867.0	-1126.0
14	14	52	44	693	1.0	-226506.0	-2882.0	-972.0
14	14	52	44	694	2.0	-226617.0	-2876.0	-955.0
14	14	52	44	695	3.0	-226336.0	-2862.0	-576.0
14	14	52	44	695	4.0	-225351.0	-2833.0	-683.0
14	14	52	44	696	5.0	-224127.0	-2834.0	-809.0
14	14	52	44	696	6.0	-222669.0	-2861.0	-729.0
14	14	52	44	697	7.0	-220662.0	-2856.0	-772.0
14	14	52	44	729	8.0	-218382.0	-2848.0	-1502.0
14	14	52	44	730	9.0	-215547.0	-2857.0	-1661.0
14	14	52	44	731	10.0	-212401.0	-2891.0	-1009.0
14	14	52	44	732	11.0	-209081.0	-2881.0	-577.0
14	14	52	44	732	12.0	-206294.0	-2869.0	-740.0
14	14	52	44	733	13.0	-203828.0	-2872.0	-965.0
14	14	52	44	733	14.0	-201076.0	-2881.0	-1225.0
14	14	52	44	734	15.0	-198119.0	-2847.0	-1625.0
14	14	52	44	735	16.0	-195569.0	-2839.0	-1576.0
14	14	52	44	735	17.0	-193301.0	-2863.0	-1577.0
14	14	52	44	736	18.0	-191643.0	-2859.0	-1737.0
14	14	52	44	736	19.0	-190716.0	-2871.0	-1965.0
14	14	52	44	737	20.0	-190264.0	-2909.0	-1893.0
14	14	52	44	737	21.0	-189696.0	-2907.0	-1325.0
14	14	52	44	738	22.0	-188855.0	-2884.0	-1537.0
14	14	52	44	739	24.0	-187314.0	-2871.0	-1518.0
14	14	52	44	739	25.0	-187077.0	-2893.0	-1509.0
14	14	52	44	740	26.0	-187689.0	-2877.0	-1412.0
14	14	52	44	741	27.0	-188630.0	-2891.0	-1326.0
14	14	52	44	741	28.0	-189736.0	-2874.0	-1289.0
14	14	52	44	742	29.0	-191549.0	-2902.0	-1432.0
14	14	52	44	775	30.0	-193437.0	-2889.0	-1568.0
14	14	52	44	776	31.0	-194997.0	-2886.0	-1457.0
14	14	52	44	776	32.0	-196461.0	-2905.0	-1529.0
14	14	52	44	777	33.0	-196912.0	-2923.0	-1649.0
14	14	52	44	778	34.0	-196802.0	-2913.0	-1963.0
14	14	52	44	778	35.0	-196629.0	-2907.0	-1431.0
14	14	52	44	779	36.0	-196621.0	-2909.0	-1302.0
14	14	52	44	779	37.0	-197159.0	-2915.0	-1299.0
14	14	52	44	780	38.0	-197537.0	-2923.0	-1483.0
14	14	52	44	781	39.0	-197916.0	-2931.0	-1193.0
14	14	52	44	781	40.0	-198215.0	-2941.0	-1213.0
14	14	52	44	782	41.0	-199004.0	-2951.0	-1076.0
14	14	52	44	782	42.0	-200201.0	-2938.0	-941.0
14	14	52	44	783	43.0	-201262.0	-2933.0	-761.0
14	14	52	44	784	44.0	-202404.0	-2924.0	-925.0
14	14	52	44	784	46.0	-205203.0	-2942.0	-55.0
14	14	52	44	785	47.0	-205934.0	-2937.0	-627.0
14	14	52	44	786	48.0	-205886.0	-2947.0	-962.0
14	14	52	44	786	49.0	-205372.0	-2959.0	-627.0
14	14	52	44	787	50.0	-204807.0	-2962.0	-206.0
14	14	52	44	788	51.0	-204271.0	-2971.0	80.0
14	14	52	44	788	52.0	-203731.0	-2959.0	159.0
14	14	52	44	819	53.0	-203421.0	-2965.0	116.0
14	14	52	44	820	54.0	-202974.0	-2980.0	-165.0
14	14	52	44	821	55.0	-202212.0	-2976.0	-124.0
14	14	52	44	821	56.0	-201212.0	-3002.0	-152.0
14	14	52	44	822	57.0	-200192.0	-2981.0	-352.0
14	14	52	44	823	58.0	-199236.0	-2989.0	-457.0
14	14	52	44	823	59.0	-198784.0	-2997.0	-374.0
14	14	52	44	824	60.0	-198835.0	-2996.0	-434.0
14	14	52	44	824	61.0	-199336.0	-3006.0	-610.0
14	14	52	44	825	62.0	-199871.0	-3012.0	-878.0
14	14	52	44	826	63.0	-200456.0	-2997.0	-868.0
14	14	52	44	826	64.0	-201007.0	-2987.0	-404.0
14	14	52	44	827	65.0	-201089.0	-2989.0	-586.0
14	14	52	44	828	66.0	-201016.0	-2973.0	-756.0
14	14	52	44	828	67.0	-201312.0	-2992.0	-799.0
14	14	52	44	829	69.0	-201918.0	-3001.0	-812.0
14	14	52	44	829	70.0	-201943.0	-2993.0	-1001.0
14	14	52	44	830	71.0	-202262.0	-2993.0	-996.0
14	14	52	44	831	72.0	-202397.0	-3012.0	-560.0
14	14	52	44	831	73.0	-202392.0	-3008.0	-389.0
14	14	52	44	840	74.0	-202202.0	-3007.0	-331.0
14	14	52	44	864	75.0	-202006.0	-3030.0	-63.0
14	14	52	44	865	76.0	-201421.0	-3024.0	64.0
14	14	52	44	866	77.0	-200578.0	-3011.0	1.0
14	14	52	44	866	78.0	-199637.0	-3010.0	145.0
14	14	52	44	867	79.0	-198530.0	-3014.0	64.0
14	14	52	44	868	80.0	-197098.0	-3041.0	19.0
14	14	52	44	868	81.0	-194855.0	-3037.0	314.0
14	14	52	44	869	82.0	-191505.0	-3024.0	483.0
14	14	52	44	870	83.0	-187847.0	-3032.0	278.0
14	14	52	44	870	84.0	-183877.0	-3047.0	455.0
14	14	52	44	871	85.0	-177372.0	-3054.0	964.0
14	14	52	44	871	86.0	-166884.0	-3029.0	908.0
14	14	52	44	872	87.0	-164185.0	-3007.0	582.0
14	14	52	44	873	88.0	-169174.0	-3005.0	1047.0
14	14	52	44	873	89.0	-168275.0	-3017.0	1264.0
14	14	52	44	874	91.0	-184533.0	-3037.0	1068.0
14	14	52	44	875	92.0	-188650.0	-3022.0	1159.0
14	14	52	44	875	93.0	-196432.0	-3017.0	1126.0
14	14	52	44	876	94.0	-205766.0	-3015.0	1192.0
14	14	52	44	876	95.0	-212014.0	-3035.0	1005.0
14	14	52	44	909	96.0	-213438.0	-3041.0	993.0
14	14	52	44	910	97.0	-214464.0	-3021.0	868.0
14	14	52	44	910	98.0	-216561.0	-3037.0	832.0
14	14	52	44	911	99.0	-215699.0	-3036.0	742.0
14	14	52	44	912	100.0	-211979.0	-3055.0	538.0
14	14	52	44	912	101.0	-206895.0	-3046.0	932.0
14	14	52	44	913	102.0	-203299.0	-3051.0	768.0
14	14	52	44	914	103.0	-201071.0	-3061.0	280.0
14	14	52	44	914	104.0	-199559.0	-3056.0	643.0
14	14	52	44	915	105.0	-198692.0	-3042.0	997.0
14	14	52	44	916	106.0	-198647.0	-3045.0	936.0
14	14	52	44	916	107.0	-199194.0	-3047.0	913.0
14	14	52	44	917	108.0	-200138.0	-3054.0	833.0
14	14	52	44	917	109.0	-201447.0	-3069.0	615.0
14	14	52	44	918	110.0	-202554.0	-3000.0	529.0
14	14	52	44	919	111.0	-203303.0	-3032.0	750.0
14	14	52	44	919	114.0	-204184.0	-3048.0	1423.0
14	14	52	44	920	115.0	-204437.0	-3038.0	1296.0
14	14	52	44	920	116.0	-204400.0	-3040.0	629.0
14	14	52	44	921	117.0	-204269.0	-3053.0	832.0
14	14	52	44	922	118.0	-204262.0	-3034.0	1151.0
14	14	52	44	922	119.0	-204046.0	-3052.0	1047.0
14	14	52	44	923	120.0	-203474.0	-3064.0	993.0
14	14	52	44	955	121.0	-203012.0	-3051.0	1458.0
14	14	52	44	956	122.0	-203279.0	-3041.0	1593.0
14	14	52	44	956	123.0	-203638.0	-3046.0	1421.0
14	14	52	44	957	124.0	-203829.0	-3054.0	1551.0
14	14	52	44	958	125.0	-204139.0	-3052.0	1796.0
14	14	52	44	958	126.0	-204200.0	-3030.0	1733.0
14	14	52	44	959	127.0	-203608.0	-3016.0	1478.0
14	14	52	44	960	128.0	-202489.0	-3045.0	1542.0
14	14	52	44	960	129.0	-201588.0	-3071.0	1779.0
14	14	52	44	961	130.0	-200391.0	-3082.0	1930.0
14	14	52	44	961	131.0	-199134.0	-3043.0	1990.0
14	14	52	44	962	132.0	-198216.0	-3055.0	1919.0
14	14	52	44	963	133.0	-197497.0	-3037.0	1670.0
14	14	52	44	963	134.0	-197061.0	-3047.0	1577.0
14	14	52	44	964	135.0	-196834.0	-3042.0	1454.0
14	14	52	44	965	136.0	-196615.0	-3040.0	1631.0
14	14	52	44	965	137.0	-196651.0	-3040.0	1656.0
14	14	52	44	966	138.0	-196987.0	-3047.0	2003.0
14	14	52	44	967	139.0	-197349.0	-3022.0	1686.0
14	14	52	44	967	140.0	-198076.0	-3032.0	1789.0
14	14	52	44	968	141.0	-199002.0	-3046.0	2113.0
14	14	52	45	0	142.0	-199881.0	-3044.0	1674.0
14	14	52	45	1	143.0	-200612.0	-3044.0	1795.0
14	14	52	45	1	144.0	-200917.0	-3037.0	2194.0
14	14	52	45	2	145.0	-200901.0	-3027.0	2033.0
14	14	52	45	3	146.0	-201043.0	-3022.0	2088.0
14	14	52	45	4	147.0	-201251.0	-2991.0	2243.0
14	14	52	45	4	148.0	-201356.0	-3032.0	2162.0
14	14	52	45	5	149.0	-201736.0	-3033.0	2022.0
14	14	52	45	6	150.0	-202394.0	-3036.0	2218.0
14	14	52	45	6	151.0	-203140.0	-3033.0	1986.0
14	14	52	45	7	152.0	-204049.0	-3021.0	1848.0
14	14	52	45	8	153.0	-204744.0	-3023.0	2079.0
14	14	52	45	8	154.0	-205296.0	-3027.0	2176.0
14	14	52	45	9	155.0	-205692.0	-3022.0	2011.0
14	14	52	45	10	156.0	-205769.0	-3014.0	2126.0
14	14	52	45	10	159.0	-204628.0	-3027.0	2458.0
14	14	52	45	11	160.0	-203462.0	-3023.0	2293.0
14	14	52	45	11	161.0	-202115.0	-3022.0	2855.0
14	14	52	45	12	162.0	-200927.0	-3020.0	2739.0
14	14	52	45	13	163.0	-200172.0	-3004.0	2470.0
14	14	52	45	13	164.0	-199452.0	-2988.0	2745.0
14	14	52	45	44	165.0	-198903.0	-3005.0	2708.0
14	14	52	45	45	166.0	-198917.0	-2986.0	2736.0
14	14	52	45	45	167.0	-198986.0	-2988.0	2873.0
14	14	52	45	46	168.0	-198742.0	-3028.0	2706.0
14	14	52	45	47	169.0	-198612.0	-3013.0	2501.0
14	14	52	45	48	170.0	-198528.0	-3006.0	2704.0
14	14	52	45	48	171.0	-198409.0	-3031.0	3155.0
14	14	52	45	49	172.0	-198727.0	-2987.0	3118.0
14	14	52	45	50	173.0	-199152.0	-2994.0	3004.0
14	14	52	45	50	174.0	-199229.0	-3001.0	3064.0
14	14	52	45	51	175.0	-198801.0	-2994.0	2981.0
14	14	52	45	52	176.0	-198637.0	-2995.0	2643.0
14	14	52	45	53	177.0	-198760.0	-2986.0	2593.0
14	14	52	45	53	178.0	-199187.0	-2985.0	2776.0
14	14	52	45	54	179.0	-200149.0	-3006.0	2760.0
14	14	52	45	54	181.0	-200957.0	-3005.0	2788.0
14	14	52	45	55	182.0	-201304.0	-3014.0	2841.0
14	14	52	45	56	183.0	-201679.0	-3009.0	3196.0
14	14	52	45	56	184.0	-202336.0	-2987.0	3419.0
14	14	52	45	57	185.0	-203062.0	-2985.0	3368.0
14	14	52	45	57	186.0	-203673.0	-2999.0	3191.0
14	14	52	45	91	187.0	-204111.0	-2987.0	3301.0
14	14	52	45	92	188.0	-204316.0	-2999.0	2936.0
14	14	52	45	92	189.0	-204402.0	-3014.0	3194.0
14	14	52	45	93	190.0	-204515.0	-3006.0	3376.0
14	14	52	45	94	191.0	-204411.0	-3027.0	3211.0
14	14	52	45	94	192.0	-204135.0	-3002.0	2983.0
14	14	52	45	95	193.0	-203691.0	-2969.0	3076.0
14	14	52	45	96	194.0	-203024.0	-2984.0	3000.0
14	14	52	45	96	195.0	-202285.0	-2981.0	2718.0
14	14	52	45	97	196.0	-201549.0	-2983.0	2657.0
14	14	52	45	98	197.0	-200734.0	-3006.0	2510.0
14	14	52	45	98	198.0	-200109.0	-2992.0	2831.0
14	14	52	45	99	199.0	-199559.0	-2986.0	2641.0
14	14	52	45	100	200.0	-198877.0	-2992.0	2594.0
14	14	52	45	100	201.0	-198127.0	-3004.0	2403.0
14	14	52	45	101	203.0	-197229.0	-2996.0	2615.0
14	14	52	45	101	204.0	-197066.0	-3000.0	3196.0
14	14	52	45	102	205.0	-197441.0	-2997.0	2822.0
14	14	52	45	103	206.0	-198206.0	-2989.0	2959.0
14	14	52	45	103	207.0	-198836.0	-2982.0	3281.0
14	14	52	45	104	208.0	-199329.0	-2996.0	2947.0
14	14	52	45	104	209.0	-199654.0	-3006.0	2582.0
14	14	52	45	135	210.0	-200179.0	-2991.0	2726.0
14	14	52	45	136	211.0	-200811.0	-2996.0	2924.0
14	14	52	45	137	212.0	-201214.0	-3008.0	2703.0
14	14	52	45	137	213.0	-201522.0	-3005.0	2856.0
14	14	52	45	180	214.0	-201696.0	-2999.0	3149.0
14	14	52	45	180	215.0	-201724.0	-2982.0	3401.0
14	14	52	45	181	216.0	-201825.0	-2977.0	3511.0
14	14	52	45	182	217.0	-202042.0	-2991.0	3551.0
14	14	52	45	182	218.0	-202664.0	-3001.0	3323.0
14	14	52	45	183	219.0	-203509.0	-2979.0	3319.0
14	14	52	45	184	220.0	-204158.0	-2974.0	4022.0
14	14	52	45	184	221.0	-204518.0	-2975.0	4182.0
14	14	52	45	185	222.0	-204869.0	-2988.0	3772.0
14	14	52	45	186	223.0	-205080.0	-2973.0	3284.0
14	14	52	45	186	224.0	-205313.0	-2979.0	3543.0
14	14	52	45	187	226.0	-205101.0	-2941.0	3516.0
14	14	52	45	188	227.0	-204492.0	-2956.0	3361.0
14	14	52	45	188	228.0	-203750.0	-2963.0	3036.0
14	14	52	45	189	229.0	-202781.0	-2973.0	3134.0
14	14	52	45	190	248.0	-184952.0	-2975.0	4044.0
14	14	52	45	190	249.0	-185475.0	-2968.0	4236.0
14	14	52	45	191	250.0	-186357.0	-2988.0	4267.0
14	14	52	45	192	251.0	-187289.0	-2999.0	4174.0
14	14	52	45	192	252.0	-188322.0	-2968.0	4312.0
14	14	52	45	193	253.0	-189478.0	-2977.0	4389.0
14	14	52	45	193	254.0	-190399.0	-2961.0	4022.0
14	14	52	45	225	255.0	-191404.0	-2967.0	3754.0
14	14	52	45	226	0.0	-192373.0	-2960.0	3748.0
14	14	52	45	227	1.0	-193234.0	-2957.0	3586.0
14	14	52	45	227	2.0	-194039.0	-2958.0	2893.0
14	14	52	45	228	3.0	-194823.0	-2946.0	1914.0
14	14	52	45	229	4.0	-195762.0	-2930.0	1648.0
14	14	52	45	270	5.0	-196646.0	-2959.0	563.0
14	14	52	45	271	6.0	-197621.0	-2963.0	-651.0
14	14	52	45	272	7.0	-198526.0	-2965.0	-2086.0
14	14	52	45	273	8.0	-198974.0	-2942.0	-2432.0
14	14	52	45	273	9.0	-198156.0	-2972.0	-1724.0
14	14	52	45	274	10.0	-198162.0	-2959.0	-731.0
14	14	52	45	275	11.0	-198121.0	-2944.0	533.0
14	14	52	45	275	12.0	-196906.0	-2938.0	4229.0
14	14	52	45	276	13.0	-196254.0	-2946.0	9791.0
14	14	52	45	277	15.0	-195167.0	-2971.0	19795.0
14	14	52	45	277	16.0	-194246.0	-2952.0	22240.0
14	14	52	45	278	17.0	-193593.0	-2941.0	25139.0
14	14	52	45	279	18.0	-193636.0	-2937.0	26901.0
14	14	52	45	280	19.0	-194293.0	-2945.0	27736.0
14	14	52	45	280	20.0	-195841.0	-2958.0	28744.0
14	14	52	45	281	21.0	-197892.0	-2964.0	27983.0
14	14	52	45	282	38.0	-197652.0	-2920.0	7110.0
14	14	52	45	282	39.0	-193147.0	-2893.0	6791.0
14	14	52	45	283	40.0	-189371.0	-2887.0	6318.0
14	14	52	45	283	41.0	-189469.0	-2896.0	5636.0
14	14	52	45	284	42.0	-193072.0	-2908.0	4922.0
14	14	52	45	285	43.0	-197206.0	-2932.0	4939.0
14	14	52	45	316	44.0	-201992.0	-2934.0	4711.0
14	14	52	45	317	45.0	-207691.0	-2932.0	3985.0
14	14	52	45	318	46.0	-213456.0	-2924.0	3596.0
14	14	52	45	318	47.0	-216838.0	-2912.0	3857.0
14	14	52	45	406	48.0	-216479.0	-2909.0	3520.0
14	14	52	45	407	49.0	-214002.0	-2947.0	3462.0
14	14	52	45	408	50.0	-209564.0	-2927.0	3890.0
14	14	52	45	409	51.0	-203399.0	-2896.0	3696.0
14	14	52	45	409	52.0	-196766.0	-2898.0	3206.0
14	14	52	45	410	53.0	-191239.0	-2922.0	3149.0
14	14	52	45	410	54.0	-186906.0	-2913.0	3378.0
14	14	52	45	411	55.0	-183629.0	-2920.0	3274.0
14	14	52	45	412	56.0	-182301.0	-2941.0	3299.0
14	14	52	45	412	57.0	-182567.0	-2912.0	3303.0
14	14	52	45	413	58.0	-183566.0	-2908.0	3203.0
14	14	52	45	414	60.0	-186837.0	-2922.0	2938.0
14	14	52	45	414	61.0	-188281.0	-2911.0	2829.0
14	14	52	45	415	62.0	-189646.0	-2920.0	2914.0
14	14	52	45	416	63.0	-191358.0	-2917.0	2654.0
14	14	52	45	416	64.0	-192447.0	-2939.0	2543.0
14	14	52	45	417	105.0	-195005.0	-2876.0	2423.0
14	14	52	45	417	106.0	-192422.0	-2876.0	2217.0
14	14	52	45	418	107.0	-189911.0	-2889.0	2201.0
14	14	52	45	419	108.0	-188174.0	-2843.0	2304.0
14	14	52	45	419	109.0	-187066.0	-2866.0	2217.0
14	14	52	45	420	110.0	-186224.0	-2872.0	1781.0
14	14	52	45	452	111.0	-185476.0	-2869.0	1919.0
14	14	52	45	452	112.0	-184891.0	-2864.0	2103.0
14	14	52	45	453	113.0	-184528.0	-2874.0	1919.0
14	14	52	45	495	114.0	-183867.0	-2889.0	1861.0
14	14	52	45	496	115.0	-183253.0	-2881.0	2184.0
14	14	52	45	497	116.0	-182962.0	-2865.0	2321.0
14	14	52	45	497	117.0	-183262.0	-2891.0	2196.0
14	14	52	45	498	118.0	-183715.0	-2889.0	1959.0
14	14	52	45	499	119.0	-184496.0	-2863.0	2017.0
14	14	52	45	499	120.0	-185681.0	-2874.0	1986.0
14	14	52	45	500	121.0	-186800.0	-2874.0	1911.0
14	14	52	45	540	122.0	-187819.0	-2899.0	1875.0
14	14	52	45	541	123.0	-188617.0	-2913.0	1854.0
14	14	52	45	542	124.0	-189281.0	-2907.0	1755.0
14	14	52	45	542	125.0	-189907.0	-2894.0	2396.0
14	14	52	45	543	127.0	-191477.0	-2882.0	2598.0
14	14	52	45	544	128.0	-192248.0	-2900.0	2724.0
14	14	52	45	545	129.0	-193248.0	-2934.0	2909.0
14	14	52	45	545	149.0	-214350.0	-2957.0	3480.0
14	14	52	45	546	150.0	-214142.0	-2950.0	3369.0
14	14	52	45	547	151.0	-213856.0	-2952.0	3383.0
14	14	52	45	547	152.0	-213767.0	-3004.0	3299.0
14	14	52	45	548	153.0	-213504.0	-3013.0	3218.0
14	14	52	45	549	154.0	-212947.0	-3005.0	3567.0
14	14	52	45	549	155.0	-212157.0	-3001.0	3794.0
14	14	52	45	550	156.0	-211298.0	-3011.0	3607.0
14	14	52	45	551	172.0	-201875.0	-3017.0	3115.0
14	14	52	45	551	173.0	-201587.0	-3029.0	2959.0
14	14	52	45	552	174.0	-201153.0	-3030.0	2923.0
14	14	52	45	553	175.0	-200258.0	-3037.0	3146.0
14	14	52	45	553	176.0	-198706.0	-3023.0	3883.0
14	14	52	45	554	177.0	-196202.0	-3021.0	3679.0
14	14	52	45	585	178.0	-193185.0	-3047.0	3669.0
14	14	52	45	586	179.0	-189737.0	-3040.0	3718.0
14	14	52	45	587	180.0	-185803.0	-3040.0	3399.0
14	14	52	45	588	181.0	-178532.0	-3031.0	3743.0
14	14	52	45	589	182.0	-170301.0	-3018.0	3646.0
14	14	52	45	589	183.0	-172968.0	-3052.0	3321.0
14	14	52	45	590	184.0	-171846.0	-3057.0	3303.0
14	14	52	45	591	185.0	-177816.0	-3056.0	3418.0
14	14	52	45	591	186.0	-186697.0	-3047.0	3546.0
14	14	52	45	592	187.0	-191645.0	-3013.0	3383.0
14	14	52	45	592	188.0	-200894.0	-3022.0	3514.0
14	14	52	45	593	189.0	-211403.0	-3047.0	3641.0
14	14	52	45	594	190.0	-220285.0	-3040.0	3624.0
14	14	52	45	630	191.0	-224998.0	-3028.0	3550.0
14	14	52	45	630	192.0	-225724.0	-3030.0	3684.0
14	14	52	45	631	194.0	-222782.0	-3047.0	3738.0
14	14	52	45	632	195.0	-217864.0	-3042.0	3488.0
14	14	52	45	633	196.0	-209509.0	-3021.0	3485.0
14	14	52	45	633	197.0	-200119.0	-3027.0	3867.0
14	14	52	45	634	198.0	-191606.0	-3041.0	3657.0
14	14	52	45	635	199.0	-184042.0	-3055.0	3151.0
14	14	52	45	676	200.0	-180559.0	-3044.0	3098.0
14	14	52	45	676	201.0	-181938.0	-3055.0	3535.0
14	14	52	45	677	202.0	-183868.0	-3028.0	3622.0
14	14	52	45	677	203.0	-184893.0	-3050.0	3638.0
14	14	52	45	678	204.0	-188490.0	-3039.0	3658.0
14	14	52	45	679	205.0	-193267.0	-3007.0	3569.0
14	14	52	45	679	206.0	-197983.0	-3052.0	3256.0
14	14	52	45	680	217.0	-214031.0	-3050.0	3494.0
14	14	52	45	680	218.0	-213499.0	-3025.0	3578.0
14	14	52	45	681	219.0	-212914.0	-3044.0	3293.0
14	14	52	45	681	220.0	-212424.0	-3024.0	3282.0
14	14	52	45	682	221.0	-212424.0	-3021.0	3481.0
14	14	52	45	683	222.0	-212267.0	-3010.0	3468.0
14	14	52	45	683	223.0	-212044.0	-3026.0	2998.0
14	14	52	45	684	224.0	-211811.0	-3041.0	2989.0
14	14	52	45	684	239.0	-202332.0	-3038.0	3369.0
14	14	52	45	685	240.0	-202927.0	-3027.0	3534.0
14	14	52	45	685	241.0	-203446.0	-3016.0	3303.0
14	14	52	45	686	242.0	-203973.0	-3036.0	3033.0
14	14	52	45	687	243.0	-204277.0	-3041.0	3498.0
14	14	52	45	687	244.0	-204297.0	-3035.0	3950.0
14	14	52	45	688	245.0	-204716.0	-3037.0	3739.0
14	14	52	45	689	246.0	-205181.0	-3025.0	3938.0
14	14	52	45	720	247.0	-205382.0	-3034.0	4489.0
14	14	52	45	721	248.0	-205591.0	-3021.0	4182.0
14	14	52	45	721	249.0	-205694.0	-3006.0	4031.0
14	14	52	45	722	250.0	-205562.0	-3021.0	4134.0
14	14	52	45	723	251.0	-205531.0	-3028.0	4273.0
14	14	52	45	723	252.0	-205821.0	-3032.0	4316.0
14	14	52	45	724	253.0	-206088.0	-3047.0	4438.0
14	14	52	45	724	254.0	-206419.0	-3043.0	4468.0
14	14	52	45	725	255.0	-206953.0	-3027.0	4299.0
14	14	52	45	725	0.0	-207310.0	-3010.0	4654.0
14	14	52	45	726	1.0	-207552.0	-3024.0	5031.0
14	14	52	45	726	2.0	-207724.0	-3038.0	4964.0
14	14	52	45	727	3.0	-207449.0	-3013.0	4491.0
14	14	52	45	728	4.0	-207126.0	-3030.0	4661.0
14	14	52	45	728	5.0	-206800.0	-3035.0	4889.0
14	14	52	45	729	6.0	-206134.0	-3021.0	4854.0
14	14	52	45	729	7.0	-205287.0	-3030.0	4596.0
14	14	52	45	730	8.0	-204359.0	-3039.0	4709.0
14	14	52	45	730	9.0	-203352.0	-3039.0	4756.0
14	14	52	45	731	10.0	-202200.0	-3052.0	5208.0
14	14	52	45	732	11.0	-200978.0	-3027.0	5522.0
14	14	52	45	764	12.0	-199643.0	-3035.0	5398.0
14	14	52	45	765	13.0	-198781.0	-3029.0	4883.0
14	14	52	45	766	14.0	-198185.0	-3018.0	4925.0
14	14	52	45	766	15.0	-197609.0	-3024.0	4944.0
14	14	52	45	767	16.0	-197287.0	-3017.0	4495.0
14	14	52	45	767	17.0	-196924.0	-3024.0	4199.0
14	14	52	45	768	18.0	-196668.0	-3019.0	4530.0
14	14	52	45	769	19.0	-196120.0	-3023.0	4498.0
14	14	52	45	769	20.0	-195929.0	-3045.0	4162.0
14	14	52	45	770	21.0	-195941.0	-3044.0	4021.0
14	14	52	45	770	22.0	-195856.0	-3026.0	4083.0
14	14	52	45	771	23.0	-195661.0	-3016.0	4385.0
14	14	52	45	771	24.0	-195527.0	-3028.0	4373.0
14	14	52	45	772	25.0	-195614.0	-3000.0	4051.0
14	14	52	45	773	26.0	-195513.0	-3006.0	3846.0
14	14	52	45	773	28.0	-194878.0	-3032.0	3503.0
14	14	52	45	774	29.0	-194739.0	-3028.0	3516.0
14	14	52	45	774	30.0	-194242.0	-3023.0	4273.0
14	14	52	45	775	31.0	-193816.0	-3031.0	4776.0
14	14	52	45	775	32.0	-194251.0	-3017.0	4697.0
14	14	52	45	776	33.0	-194435.0	-3001.0	4338.0
14	14	52	45	777	34.0	-194639.0	-3012.0	4132.0
14	14	52	45	809	35.0	-195077.0	-3024.0	4459.0
14	14	52	45	810	36.0	-195446.0	-3026.0	4634.0
14	14	52	45	810	37.0	-196045.0	-3031.0	5062.0
14	14	52	45	811	38.0	-196703.0	-3023.0	4778.0
14	14	52	45	855	39.0	-197019.0	-3019.0	4668.0
14	14	52	45	856	40.0	-197207.0	-3017.0	5109.0
14	14	52	45	857	41.0	-197434.0	-3029.0	5486.0
14	14	52	45	858	42.0	-197412.0	-3010.0	4868.0
14	14	52	45	858	43.0	-197307.0	-2982.0	4315.0
14	14	52	45	859	44.0	-197042.0	-2996.0	4703.0
14	14	52	45	860	45.0	-197047.0	-3007.0	5017.0
14	14	52	45	860	46.0	-196912.0	-3026.0	5060.0
14	14	52	45	861	47.0	-196175.0	-3017.0	5030.0
14	14	52	45	861	48.0	-195921.0	-3014.0	5052.0
14	14	52	45	862	49.0	-197129.0	-3003.0	4971.0
14	14	52	45	863	51.0	-196774.0	-2984.0	5441.0
14	14	52	45	863	52.0	-197095.0	-2989.0	5104.0
14	14	52	45	864	53.0	-197300.0	-2992.0	5098.0
14	14	52	45	864	54.0	-197315.0	-2998.0	5158.0
14	14	52	45	865	55.0	-197512.0	-2991.0	5388.0
14	14	52	45	866	73.0	-186517.0	-2974.0	6297.0
14	14	52	45	867	74.0	-187299.0	-2972.0	6216.0
14	14	52	45	868	75.0	-188004.0	-2959.0	5749.0
14	14	52	45	868	76.0	-189346.0	-2967.0	6005.0
14	14	52	45	869	77.0	-190936.0	-2967.0	6369.0
14	14	52	45	869	78.0	-192161.0	-2988.0	6219.0
14	14	52	45	870	79.0	-193357.0	-2988.0	5678.0
14	14	52	45	900	80.0	-194732.0	-2986.0	6147.0
14	14	52	45	913	81.0	-195907.0	-2981.0	5933.0
14	14	52	45	914	82.0	-196875.0	-2963.0	5224.0
14	14	52	45	915	83.0	-198154.0	-2972.0	4650.0
14	14	52	45	915	84.0	-199395.0	-2969.0	4378.0
14	14	52	45	916	85.0	-200121.0	-2963.0	3556.0
14	14	52	45	917	86.0	-200633.0	-2985.0	2686.0
14	14	52	45	917	87.0	-201248.0	-2960.0	1807.0
14	14	52	45	918	88.0	-201637.0	-2924.0	603.0
14	14	52	45	918	89.0	-201659.0	-2937.0	-256.0
14	14	52	45	919	90.0	-201672.0	-2994.0	404.0
14	14	52	45	919	91.0	-201374.0	-2957.0	1418.0
14	14	52	45	920	92.0	-200894.0	-2958.0	2005.0
14	14	52	45	921	93.0	-200464.0	-2997.0	4464.0
14	14	52	45	921	94.0	-199922.0	-2962.0	9819.0
14	14	52	45	922	95.0	-199000.0	-2982.0	15066.0
14	14	52	45	922	96.0	-198267.0	-2979.0	19143.0
14	14	52	45	923	97.0	-197769.0	-2954.0	21944.0
14	14	52	45	923	98.0	-197372.0	-2954.0	24969.0
14	14	52	45	924	99.0	-197562.0	-2955.0	27106.0
14	14	52	45	924	100.0	-198469.0	-2955.0	28368.0
14	14	52	45	925	101.0	-199212.0	-2946.0	29458.0
14	14	52	45	926	102.0	-200404.0	-2944.0	29184.0
14	14	52	45	945	103.0	-202005.0	-2967.0	27502.0
14	14	52	45	945	104.0	-203820.0	-2953.0	25730.0
14	14	52	45	946	105.0	-205246.0	-2962.0	23975.0
14	14	52	45	947	106.0	-206166.0	-2982.0	23148.0
14	14	52	45	947	107.0	-207091.0	-2959.0	22653.0
14	14	52	45	948	108.0	-208878.0	-3002.0	22024.0
14	14	52	45	949	109.0	-211401.0	-2989.0	20167.0
14	14	52	45	949	110.0	-214169.0	-2954.0	18909.0
14	14	52	45	950	111.0	-216564.0	-2957.0	17986.0
14	14	52	45	950	112.0	-219464.0	-2966.0	17221.0
14	14	52	45	951	113.0	-223653.0	-2951.0	15974.0
14	14	52	45	952	114.0	-227094.0	-2935.0	14923.0
14	14	52	45	952	115.0	-225246.0	-2947.0	13554.0
14	14	52	45	953	116.0	-219963.0	-2967.0	12364.0
14	14	52	45	954	117.0	-215117.0	-2930.0	10768.0
14	14	52	45	955	118.0	-210700.0	-2951.0	9352.0
14	14	52	45	955	119.0	-206057.0	-2925.0	8789.0
14	14	52	45	956	120.0	-200574.0	-2926.0	8435.0
14	14	52	45	956	121.0	-195324.0	-2935.0	7828.0
14	14	52	45	957	122.0	-192196.0	-2927.0	7534.0
14	14	52	45	958	123.0	-192245.0	-2904.0	7216.0
14	14	52	45	989	124.0	-194099.0	-2914.0	6679.0
14	14	52	45	990	125.0	-198592.0	-2918.0	6195.0
14	14	52	45	991	126.0	-205320.0	-2916.0	5727.0
14	14	52	45	992	127.0	-214202.0	-2934.0	5506.0
14	14	52	45	992	128.0	-222909.0	-2927.0	4983.0
14	14	52	45	993	129.0	-226994.0	-2945.0	5016.0
14	14	52	45	993	130.0	-226121.0	-2920.0	5649.0
14	14	52	45	994	131.0	-221817.0	-2917.0	5306.0
14	14	52	45	995	132.0	-215407.0	-2924.0	4587.0
14	14	52	45	995	133.0	-207238.0	-2916.0	4491.0
14	14	52	45	996	134.0	-198727.0	-2905.0	4559.0
14	14	52	45	997	135.0	-191482.0	-2927.0	4556.0
14	14	52	45	997	136.0	-186026.0	-2937.0	4628.0
14	14	52	45	998	137.0	-182432.0	-2906.0	4689.0
14	14	52	45	998	138.0	-180027.0	-2924.0	4554.0
14	14	52	45	999	140.0	-177512.0	-2902.0	4677.0
14	14	52	46	0	141.0	-178162.0	-2932.0	4446.0
14	14	52	46	0	142.0	-179527.0	-2924.0	4385.0
14	14	52	46	1	143.0	-181255.0	-2917.0	4158.0
14	14	52	46	1	144.0	-183477.0	-2929.0	3749.0
14	14	52	46	2	145.0	-186116.0	-2956.0	3676.0
14	14	52	46	2	146.0	-188885.0	-2932.0	4079.0
14	14	52	46	35	147.0	-191202.0	-2920.0	4179.0
14	14	52	46	35	148.0	-193391.0	-2920.0	4029.0
14	14	52	46	36	149.0	-195311.0	-2905.0	4006.0
14	14	52	46	37	150.0	-196219.0	-2909.0	3951.0
14	14	52	46	37	151.0	-195786.0	-2919.0	4016.0
14	14	52	46	38	152.0	-193812.0	-2869.0	4068.0
14	14	52	46	38	153.0	-190412.0	-2864.0	3984.0
14	14	52	46	81	154.0	-186201.0	-2889.0	4038.0
14	14	52	46	82	155.0	-181730.0	-2925.0	4077.0
14	14	52	46	83	156.0	-177256.0	-2914.0	3803.0
14	14	52	46	84	157.0	-172866.0	-2885.0	3566.0
14	14	52	46	84	158.0	-169469.0	-2901.0	3736.0
14	14	52	46	85	159.0	-167884.0	-2940.0	4237.0
14	14	52	46	86	160.0	-167706.0	-2956.0	4246.0
14	14	52	46	86	161.0	-168539.0	-2917.0	3886.0
14	14	52	46	87	163.0	-174752.0	-2907.0	4238.0
14	14	52	46	87	164.0	-178565.0	-2887.0	3755.0
14	14	52	46	88	165.0	-182606.0	-2873.0	3726.0
14	14	52	46	89	166.0	-186772.0	-2898.0	3813.0
14	14	52	46	89	167.0	-190300.0	-2931.0	3953.0
14	14	52	46	90	168.0	-193816.0	-2921.0	3984.0
14	14	52	46	90	169.0	-196500.0	-2926.0	3870.0
14	14	52	46	91	185.0	-201168.0	-2848.0	2924.0
14	14	52	46	92	186.0	-199289.0	-2864.0	3013.0
14	14	52	46	92	187.0	-197359.0	-2857.0	2899.0
14	14	52	46	93	188.0	-195064.0	-2861.0	2658.0
14	14	52	46	93	189.0	-193137.0	-2861.0	2882.0
14	14	52	46	94	190.0	-191359.0	-2871.0	2897.0
14	14	52	46	95	191.0	-190186.0	-2856.0	2781.0
14	14	52	46	125	192.0	-189282.0	-2857.0	2919.0
14	14	52	46	126	193.0	-188201.0	-2871.0	2703.0
14	14	52	46	127	194.0	-187299.0	-2852.0	2832.0
14	14	52	46	128	195.0	-186900.0	-2822.0	2620.0
14	14	52	46	128	196.0	-186509.0	-2863.0	2503.0
14	14	52	46	129	197.0	-185741.0	-2879.0	2579.0
14	14	52	46	130	198.0	-184982.0	-2886.0	2889.0
14	14	52	46	130	199.0	-184544.0	-2871.0	3281.0
14	14	52	46	131	200.0	-184491.0	-2859.0	3224.0
14	14	52	46	132	201.0	-184809.0	-2858.0	3124.0
14	14	52	46	132	202.0	-185308.0	-2851.0	3074.0
14	14	52	46	133	203.0	-186116.0	-2838.0	2811.0
14	14	52	46	133	204.0	-187209.0	-2836.0	2582.0
14	14	52	46	134	205.0	-188322.0	-2852.0	2588.0
14	14	52	46	135	206.0	-189130.0	-2884.0	2774.0
14	14	52	46	135	208.0	-190801.0	-2875.0	3504.0
14	14	52	46	136	209.0	-191135.0	-2854.0	3455.0
14	14	52	46	136	210.0	-191474.0	-2866.0	3311.0
14	14	52	46	137	211.0	-191872.0	-2867.0	3255.0
14	14	52	46	137	212.0	-192841.0	-2869.0	3551.0
14	14	52	46	138	213.0	-194024.0	-2867.0	3334.0
14	14	52	46	169	214.0	-194921.0	-2852.0	3273.0
14	14	52	46	169	215.0	-195883.0	-2854.0	3508.0
14	14	52	46	170	216.0	-197139.0	-2869.0	3729.0
14	14	52	46	171	217.0	-198687.0	-2877.0	3266.0
14	14	52	46	172	218.0	-200236.0	-2856.0	3771.0
14	14	52	46	172	219.0	-201594.0	-2889.0	4137.0
14	14	52	46	173	220.0	-203174.0	-2896.0	4056.0
14	14	52	46	174	221.0	-204717.0	-2893.0	3894.0
14	14	52	46	174	222.0	-206014.0	-2877.0	3884.0
14	14	52	46	175	223.0	-207711.0	-2866.0	4068.0
14	14	52	46	175	224.0	-209132.0	-2866.0	4178.0
14	14	52	46	176	225.0	-209929.0	-2876.0	4261.0
14	14	52	46	177	226.0	-210740.0	-2862.0	4705.0
14	14	52	46	177	227.0	-211041.0	-2863.0	4614.0
14	14	52	46	178	228.0	-210756.0	-2897.0	4704.0
14	14	52	46	179	230.0	-209867.0	-2907.0	4611.0
14	14	52	46	179	231.0	-208796.0	-2892.0	4663.0
14	14	52	46	180	232.0	-207746.0	-2889.0	4765.0
14	14	52	46	181	233.0	-206769.0	-2882.0	4876.0
14	14	52	46	181	234.0	-205590.0	-2889.0	4741.0
14	14	52	46	182	235.0	-204638.0	-2892.0	4759.0
14	14	52	46	182	236.0	-204206.0	-2909.0	4579.0
14	14	52	46	214	237.0	-203878.0	-2910.0	4561.0
14	14	52	46	215	238.0	-203201.0	-2897.0	4707.0
14	14	52	46	216	239.0	-202566.0	-2913.0	4861.0
14	14	52	46	217	240.0	-202065.0	-2896.0	4712.0
14	14	52	46	260	241.0	-201722.0	-2925.0	4554.0
14	14	52	46	260	242.0	-201287.0	-2924.0	4299.0
14	14	52	46	261	243.0	-200956.0	-2916.0	3828.0
14	14	52	46	262	244.0	-200917.0	-2932.0	4142.0
14	14	52	46	262	245.0	-200909.0	-2930.0	4477.0
14	14	52	46	263	246.0	-200891.0	-2915.0	4589.0
14	14	52	46	264	247.0	-200932.0	-2943.0	4736.0
14	14	52	46	264	248.0	-201259.0	-2951.0	4655.0
14	14	52	46	265	249.0	-201594.0	-2916.0	4089.0
14	14	52	46	266	250.0	-201787.0	-2929.0	4104.0
14	14	52	46	266	251.0	-202064.0	-2914.0	4283.0
14	14	52	46	267	253.0	-202989.0	-2921.0	4458.0
14	14	52	46	268	254.0	-203169.0	-2934.0	4421.0
14	14	52	46	268	255.0	-203616.0	-2923.0	4653.0
14	14	52	46	269	0.0	-203381.0	-2936.0	4716.0
14	14	52	46	269	1.0	-202005.0	-2922.0	4604.0
14	14	52	46	270	19.0	-229241.0	-2935.0	5374.0
14	14	52	46	271	20.0	-227186.0	-2935.0	5519.0
14	14	52	46	271	21.0	-222469.0	-2944.0	5811.0
14	14	52	46	272	22.0	-215383.0	-2953.0	6017.0
14	14	52	46	273	23.0	-206553.0	-2951.0	6092.0
14	14	52	46	273	24.0	-197161.0	-2946.0	5638.0
14	14	52	46	274	25.0	-190647.0	-2943.0	5573.0
14	14	52	46	304	26.0	-188226.0	-2942.0	5297.0
14	14	52	46	305	27.0	-188926.0	-2934.0	5235.0
14	14	52	46	305	28.0	-190369.0	-2928.0	5595.0
14	14	52	46	306	29.0	-191885.0	-2941.0	5726.0
14	14	52	46	307	30.0	-194921.0	-2969.0	5829.0
14	14	52	46	308	31.0	-199155.0	-2950.0	5926.0
14	14	52	46	308	32.0	-204369.0	-2946.0	5877.0
14	14	52	46	309	33.0	-209303.0	-2913.0	5650.0
14	14	52	46	310	34.0	-213443.0	-2929.0	5811.0
14	14	52	46	310	35.0	-216901.0	-2944.0	5914.0
14	14	52	46	311	36.0	-219100.0	-2940.0	5858.0
14	14	52	46	311	37.0	-220360.0	-2953.0	5640.0
14	14	52	46	312	38.0	-220446.0	-2932.0	5678.0
14	14	52	46	313	39.0	-219656.0	-2915.0	5932.0
14	14	52	46	313	40.0	-218267.0	-2946.0	6007.0
14	14	52	46	314	42.0	-214781.0	-2911.0	6028.0
14	14	52	46	315	43.0	-212743.0	-2930.0	5901.0
14	14	52	46	315	44.0	-210894.0	-2934.0	5662.0
14	14	52	46	316	45.0	-209786.0	-2935.0	6186.0
14	14	52	46	317	46.0	-209480.0	-2940.0	6099.0
14	14	52	46	317	47.0	-209184.0	-2932.0	5665.0
14	14	52	46	318	48.0	-208925.0	-2923.0	5653.0
14	14	52	46	350	49.0	-209219.0	-2922.0	5943.0
14	14	52	46	351	50.0	-209670.0	-2940.0	5993.0
14	14	52	46	352	51.0	-210008.0	-2938.0	6022.0
14	14	52	46	353	52.0	-210391.0	-2941.0	6190.0
14	14	52	46	354	53.0	-210622.0	-2967.0	6191.0
14	14	52	46	354	54.0	-210507.0	-2945.0	6605.0
14	14	52	46	355	55.0	-209868.0	-2926.0	6501.0
14	14	52	46	356	56.0	-208920.0	-2907.0	6218.0
14	14	52	46	357	57.0	-207915.0	-2920.0	6273.0
14	14	52	46	357	58.0	-206486.0	-2936.0	6479.0
14	14	52	46	358	59.0	-204800.0	-2925.0	6348.0
14	14	52	46	359	60.0	-203366.0	-2964.0	6529.0
14	14	52	46	359	61.0	-202059.0	-2969.0	6474.0
14	14	52	46	360	62.0	-200726.0	-2989.0	6866.0
14	14	52	46	361	63.0	-199697.0	-2961.0	6979.0
14	14	52	46	361	64.0	-198784.0	-2949.0	6826.0
14	14	52	46	362	65.0	-198406.0	-2928.0	6828.0
14	14	52	46	362	66.0	-198769.0	-2933.0	6764.0
14	14	52	46	363	67.0	-199614.0	-2918.0	6781.0
14	14	52	46	364	68.0	-200471.0	-2922.0	6788.0
14	14	52	46	364	69.0	-201662.0	-2918.0	6848.0
14	14	52	46	395	70.0	-203125.0	-2917.0	6864.0
14	14	52	46	396	71.0	-204404.0	-2944.0	7164.0
14	14	52	46	397	72.0	-205188.0	-2941.0	7131.0
14	14	52	46	398	73.0	-205776.0	-2933.0	7339.0
14	14	52	46	398	74.0	-206686.0	-2924.0	7489.0
14	14	52	46	399	75.0	-207318.0	-2911.0	7369.0
14	14	52	46	400	76.0	-207444.0	-2910.0	7408.0
14	14	52	46	400	77.0	-207273.0	-2891.0	7112.0
14	14	52	46	401	78.0	-207142.0	-2875.0	6851.0
14	14	52	46	402	79.0	-206815.0	-2902.0	6433.0
14	14	52	46	402	80.0	-206406.0	-2914.0	6796.0
14	14	52	46	403	81.0	-205910.0	-2910.0	7516.0
14	14	52	46	404	82.0	-205132.0	-2893.0	7636.0
14	14	52	46	404	83.0	-204390.0	-2894.0	7371.0
14	14	52	46	405	84.0	-203886.0	-2886.0	7927.0
14	14	52	46	406	86.0	-203911.0	-2906.0	7843.0
14	14	52	46	406	87.0	-204224.0	-2879.0	7681.0
14	14	52	46	407	88.0	-204339.0	-2882.0	7579.0
14	14	52	46	408	89.0	-204962.0	-2900.0	7627.0
14	14	52	46	408	90.0	-205732.0	-2881.0	7417.0
14	14	52	46	409	91.0	-206329.0	-2897.0	7119.0
14	14	52	46	410	92.0	-206658.0	-2906.0	7552.0
14	14	52	46	485	93.0	-206749.0	-2878.0	7321.0
14	14	52	46	486	94.0	-206382.0	-2878.0	7609.0
14	14	52	46	486	95.0	-205986.0	-2855.0	7764.0
14	14	52	46	487	96.0	-205498.0	-2851.0	7658.0
14	14	52	46	488	97.0	-205176.0	-2867.0	7435.0
14	14	52	46	489	98.0	-205079.0	-2849.0	7932.0
14	14	52	46	489	99.0	-204926.0	-2864.0	8004.0
14	14	52	46	490	100.0	-204709.0	-2867.0	7746.0
14	14	52	46	490	101.0	-204355.0	-2878.0	7549.0
14	14	52	46	491	102.0	-203804.0	-2897.0	7244.0
14	14	52	46	492	103.0	-203330.0	-2864.0	7118.0
14	14	52	46	492	104.0	-202887.0	-2832.0	6924.0
14	14	52	46	493	105.0	-202002.0	-2831.0	6842.0
14	14	52	46	494	106.0	-201018.0	-2844.0	6719.0
14	14	52	46	494	107.0	-200345.0	-2839.0	6754.0
14	14	52	46	495	131.0	-205094.0	-2823.0	8150.0
14	14	52	46	496	132.0	-204657.0	-2821.0	8009.0
14	14	52	46	496	133.0	-204261.0	-2811.0	7915.0
14	14	52	46	497	134.0	-203679.0	-2796.0	8318.0
14	14	52	46	498	135.0	-203137.0	-2831.0	8513.0
14	14	52	46	498	136.0	-202644.0	-2824.0	8035.0
14	14	52	46	499	137.0	-201926.0	-2809.0	7889.0
14	14	52	46	530	138.0	-201040.0	-2810.0	7817.0
14	14	52	46	531	139.0	-200295.0	-2817.0	7845.0
14	14	52	46	532	140.0	-199523.0	-2819.0	8231.0
14	14	52	46	532	141.0	-198491.0	-2829.0	8337.0
14	14	52	46	533	142.0	-197234.0	-2843.0	7846.0
14	14	52	46	534	143.0	-195997.0	-2811.0	7808.0
14	14	52	46	534	144.0	-194786.0	-2806.0	7974.0
14	14	52	46	535	145.0	-193622.0	-2801.0	8106.0
14	14	52	46	536	146.0	-192581.0	-2778.0	8142.0
14	14	52	46	537	147.0	-191626.0	-2808.0	8113.0
14	14	52	46	537	148.0	-190620.0	-2797.0	7962.0
14	14	52	46	538	149.0	-189411.0	-2802.0	7896.0
14	14	52	46	539	150.0	-188123.0	-2798.0	8068.0
14	14	52	46	539	151.0	-187041.0	-2820.0	7994.0
14	14	52	46	540	152.0	-186102.0	-2819.0	7973.0
14	14	52	46	540	154.0	-184380.0	-2796.0	8304.0
14	14	52	46	541	155.0	-184069.0	-2795.0	8129.0
14	14	52	46	542	156.0	-184039.0	-2794.0	7989.0
14	14	52	46	542	157.0	-184296.0	-2799.0	8084.0
14	14	52	46	543	158.0	-184917.0	-2801.0	7928.0
14	14	52	46	543	159.0	-185673.0	-2795.0	8018.0
14	14	52	46	574	160.0	-186748.0	-2793.0	8372.0
14	14	52	46	575	161.0	-188279.0	-2802.0	8184.0
14	14	52	46	576	162.0	-189782.0	-2811.0	8109.0
14	14	52	46	577	163.0	-191179.0	-2788.0	8403.0
14	14	52	46	577	164.0	-192712.0	-2806.0	7969.0
14	14	52	46	578	165.0	-194347.0	-2791.0	7889.0
14	14	52	46	579	166.0	-195946.0	-2795.0	7803.0
14	14	52	46	579	167.0	-197354.0	-2800.0	7735.0
14	14	52	46	580	168.0	-198317.0	-2817.0	7066.0
14	14	52	46	581	169.0	-198854.0	-2794.0	6594.0
14	14	52	46	582	170.0	-199217.0	-2767.0	6276.0
14	14	52	46	582	171.0	-199549.0	-2807.0	5334.0
14	14	52	46	583	172.0	-200077.0	-2798.0	4425.0
14	14	52	46	583	173.0	-200527.0	-2822.0	3583.0
14	14	52	46	584	174.0	-201256.0	-2788.0	2421.0
14	14	52	46	585	176.0	-202760.0	-2814.0	2161.0
14	14	52	46	585	177.0	-203084.0	-2814.0	3547.0
14	14	52	46	620	178.0	-203324.0	-2778.0	4039.0
14	14	52	46	621	179.0	-203336.0	-2789.0	7116.0
14	14	52	46	621	180.0	-203509.0	-2809.0	13374.0
14	14	52	46	622	181.0	-203583.0	-2826.0	19433.0
14	14	52	46	623	182.0	-203648.0	-2824.0	24069.0
14	14	52	46	623	183.0	-203782.0	-2831.0	26752.0
14	14	52	46	624	184.0	-204351.0	-2822.0	29187.0
14	14	52	46	625	185.0	-205386.0	-2818.0	30682.0
14	14	52	46	626	186.0	-206346.0	-2801.0	31491.0
14	14	52	46	626	187.0	-207546.0	-2799.0	32726.0
14	14	52	46	627	188.0	-208802.0	-2795.0	33182.0
14	14	52	46	628	189.0	-210233.0	-2801.0	31839.0
14	14	52	46	628	190.0	-211628.0	-2804.0	29751.0
14	14	52	46	629	191.0	-213159.0	-2819.0	27418.0
14	14	52	46	630	192.0	-215010.0	-2802.0	26673.0
14	14	52	46	630	193.0	-216876.0	-2785.0	26019.0
14	14	52	46	631	199.0	-231902.0	-2776.0	17114.0
14	14	52	46	632	200.0	-233155.0	-2779.0	15660.0
14	14	52	46	632	201.0	-226687.0	-2784.0	14258.0
14	14	52	46	633	202.0	-218799.0	-2791.0	12838.0
14	14	52	46	633	203.0	-212928.0	-2771.0	11135.0
14	14	52	46	634	204.0	-208192.0	-2789.0	9795.0
14	14	52	46	635	205.0	-204820.0	-2794.0	9140.0
14	14	52	46	665	206.0	-202192.0	-2792.0	8935.0
14	14	52	46	665	207.0	-200191.0	-2766.0	8564.0
14	14	52	46	666	208.0	-201274.0	-2755.0	7878.0
14	14	52	46	667	209.0	-205172.0	-2791.0	7424.0
14	14	52	46	667	210.0	-209017.0	-2772.0	7382.0
14	14	52	46	668	211.0	-212263.0	-2761.0	6663.0
14	14	52	46	669	212.0	-216673.0	-2788.0	6175.0
14	14	52	46	669	213.0	-221979.0	-2783.0	6231.0
14	14	52	46	670	214.0	-225368.0	-2754.0	6325.0
14	14	52	46	670	215.0	-224872.0	-2781.0	6493.0
14	14	52	46	671	216.0	-221236.0	-2814.0	6271.0
14	14	52	46	672	217.0	-215187.0	-2794.0	6172.0
14	14	52	46	710	218.0	-207531.0	-2787.0	5802.0
14	14	52	46	710	219.0	-200133.0	-2758.0	5868.0
14	14	52	46	712	220.0	-194466.0	-2751.0	6219.0
14	14	52	46	713	221.0	-190417.0	-2764.0	5966.0
14	14	52	46	714	222.0	-187066.0	-2766.0	5563.0
14	14	52	46	715	223.0	-185127.0	-2769.0	5546.0
14	14	52	46	716	224.0	-185014.0	-2765.0	5673.0
14	14	52	46	716	225.0	-186333.0	-2753.0	5575.0
14	14	52	46	717	226.0	-188013.0	-2746.0	5173.0
14	14	52	46	718	227.0	-189089.0	-2730.0	5321.0
14	14	52	46	719	228.0	-190111.0	-2725.0	5041.0
14	14	52	46	719	229.0	-191851.0	-2727.0	5343.0
14	14	52	46	720	230.0	-194183.0	-2772.0	5683.0
14	14	52	46	721	231.0	-195956.0	-2751.0	5656.0
14	14	52	46	721	232.0	-197104.0	-2736.0	5273.0
14	14	52	46	722	244.0	-166675.0	-2726.0	5323.0
14	14	52	46	723	245.0	-166530.0	-2728.0	5114.0
14	14	52	46	723	246.0	-167214.0	-2719.0	5111.0
14	14	52	46	724	247.0	-169024.0	-2715.0	4953.0
14	14	52	46	724	248.0	-172432.0	-2720.0	4629.0
14	14	52	46	725	249.0	-176834.0	-2739.0	4802.0
14	14	52	46	845	250.0	-181492.0	-2731.0	4968.0
14	14	52	46	846	251.0	-185878.0	-2722.0	5092.0
14	14	52	46	847	252.0	-190046.0	-2759.0	5120.0
14	14	52	46	848	253.0	-193820.0	-2804.0	5107.0
14	14	52	46	849	254.0	-196961.0	-2797.0	4661.0
14	14	52	46	849	255.0	-199742.0	-2785.0	4488.0
14	14	52	46	850	0.0	-201896.0	-2794.0	4477.0
14	14	52	46	851	1.0	-203777.0	-2742.0	4264.0
14	14	52	46	852	2.0	-205827.0	-2732.0	4156.0
14	14	52	46	852	3.0	-207381.0	-2752.0	4324.0
14	14	52	46	853	4.0	-208694.0	-2742.0	4577.0
14	14	52	46	854	5.0	-209972.0	-2769.0	4853.0
14	14	52	46	854	6.0	-211585.0	-2735.0	4786.0
14	14	52	46	855	7.0	-212980.0	-2720.0	4791.0
14	14	52	46	856	8.0	-213767.0	-2722.0	4498.0
14	14	52	46	856	55.0	-208901.0	-2747.0	4021.0
14	14	52	46	857	56.0	-208515.0	-2768.0	4382.0
14	14	52	46	858	57.0	-208131.0	-2764.0	4319.0
14	14	52	46	858	58.0	-207800.0	-2749.0	4024.0
14	14	52	46	859	59.0	-207552.0	-2758.0	3939.0
14	14	52	46	859	60.0	-207321.0	-2754.0	3553.0
14	14	52	46	935	61.0	-206951.0	-2745.0	3742.0
14	14	52	46	936	62.0	-207050.0	-2749.0	3899.0
14	14	52	46	937	63.0	-207707.0	-2789.0	3833.0
14	14	52	46	938	64.0	-208052.0	-2808.0	3827.0
14	14	52	46	938	65.0	-208032.0	-2817.0	3860.0
14	14	52	46	939	66.0	-208191.0	-2813.0	3821.0
14	14	52	46	940	67.0	-208515.0	-2776.0	3280.0
14	14	52	46	940	68.0	-209019.0	-2782.0	3274.0
14	14	52	46	941	69.0	-209606.0	-2799.0	3420.0
14	14	52	46	942	70.0	-209921.0	-2797.0	3559.0
14	14	52	46	943	71.0	-209691.0	-2792.0	3554.0
14	14	52	46	943	72.0	-209386.0	-2797.0	3605.0
14	14	52	46	944	73.0	-209073.0	-2800.0	3439.0
14	14	52	46	945	74.0	-208422.0	-2818.0	3596.0
14	14	52	46	945	75.0	-207598.0	-2816.0	3719.0
14	14	52	46	946	100.0	-186171.0	-2808.0	5316.0
14	14	52	46	946	101.0	-192756.0	-2827.0	5510.0
14	14	52	46	947	102.0	-196360.0	-2810.0	5244.0
14	14	52	46	948	103.0	-203383.0	-2810.0	5021.0
14	14	52	46	948	104.0	-211576.0	-2811.0	5060.0
14	14	52	46	949	105.0	-215956.0	-2812.0	5271.0
14	14	52	46	981	106.0	-219265.0	-2806.0	5207.0
14	14	52	46	981	107.0	-224494.0	-2821.0	4989.0
14	14	52	46	982	108.0	-226304.0	-2832.0	5288.0
14	14	52	46	983	109.0	-224338.0	-2812.0	5332.0
14	14	52	46	984	110.0	-222267.0	-2797.0	5111.0
14	14	52	46	985	111.0	-218786.0	-2834.0	5084.0
14	14	52	46	985	112.0	-215046.0	-2840.0	4903.0
14	14	52	46	986	113.0	-212224.0	-2835.0	4421.0
14	14	52	46	987	114.0	-209318.0	-2843.0	4528.0
14	14	52	46	988	115.0	-207079.0	-2799.0	4738.0
14	14	52	46	988	116.0	-205843.0	-2804.0	4612.0
14	14	52	46	989	117.0	-204717.0	-2802.0	4714.0
14	14	52	46	990	118.0	-204152.0	-2807.0	5103.0
14	14	52	46	990	119.0	-204333.0	-2776.0	5343.0
14	14	52	46	991	120.0	-204287.0	-2797.0	5063.0
14	14	52	46	992	122.0	-203571.0	-2814.0	4996.0
14	14	52	46	992	123.0	-203566.0	-2828.0	4820.0
14	14	52	46	993	124.0	-203333.0	-2810.0	4768.0
14	14	52	46	994	125.0	-202932.0	-2829.0	4832.0
14	14	52	46	994	126.0	-202962.0	-2835.0	4381.0
14	14	52	46	995	127.0	-203493.0	-2824.0	4428.0
14	14	52	46	995	128.0	-204242.0	-2826.0	4426.0
14	14	52	47	24	129.0	-205052.0	-2830.0	4736.0
14	14	52	47	69	130.0	-205829.0	-2801.0	4759.0
14	14	52	47	70	131.0	-206263.0	-2787.0	4716.0
14	14	52	47	71	132.0	-206471.0	-2831.0	4621.0
14	14	52	47	71	133.0	-206741.0	-2822.0	4829.0
14	14	52	47	72	134.0	-207024.0	-2829.0	4811.0
14	14	52	47	73	135.0	-206995.0	-2858.0	4828.0
14	14	52	47	74	136.0	-206650.0	-2815.0	4603.0
14	14	52	47	74	137.0	-206116.0	-2821.0	4594.0
14	14	52	47	75	138.0	-205704.0	-2811.0	4609.0
14	14	52	47	76	139.0	-205281.0	-2796.0	4712.0
14	14	52	47	76	140.0	-204658.0	-2796.0	4663.0
14	14	52	47	77	141.0	-204352.0	-2788.0	4665.0
14	14	52	47	78	142.0	-203886.0	-2788.0	4604.0
14	14	52	47	78	143.0	-203413.0	-2817.0	4881.0
14	14	52	47	79	145.0	-203244.0	-2813.0	4751.0
14	14	52	47	80	146.0	-203262.0	-2800.0	4531.0
14	14	52	47	80	167.0	-210139.0	-2811.0	4865.0
14	14	52	47	81	168.0	-211114.0	-2790.0	5223.0
14	14	52	47	82	169.0	-211440.0	-2787.0	4979.0
14	14	52	47	83	170.0	-211496.0	-2778.0	5113.0
14	14	52	47	83	171.0	-211172.0	-2774.0	5128.0
14	14	52	47	84	172.0	-210658.0	-2741.0	4792.0
14	14	52	47	85	173.0	-210179.0	-2765.0	4304.0
14	14	52	47	114	174.0	-210027.0	-2802.0	4654.0
14	14	52	47	115	175.0	-209510.0	-2787.0	4931.0
14	14	52	47	116	176.0	-208845.0	-2755.0	5011.0
14	14	52	47	116	177.0	-208389.0	-2756.0	5330.0
14	14	52	47	117	178.0	-208287.0	-2764.0	5293.0
14	14	52	47	159	179.0	-208517.0	-2775.0	5106.0
14	14	52	47	160	180.0	-208951.0	-2766.0	4764.0
14	14	52	47	161	181.0	-209730.0	-2788.0	4569.0
14	14	52	47	162	182.0	-210476.0	-2779.0	4795.0
14	14	52	47	163	183.0	-210992.0	-2753.0	4851.0
14	14	52	47	163	184.0	-211064.0	-2773.0	4623.0
14	14	52	47	164	185.0	-211506.0	-2784.0	4759.0
14	14	52	47	165	186.0	-211417.0	-2769.0	4687.0
14	14	52	47	165	187.0	-211022.0	-2764.0	4729.0
14	14	52	47	166	188.0	-210991.0	-2730.0	4462.0
14	14	52	47	167	190.0	-210564.0	-2727.0	4239.0
14	14	52	47	167	191.0	-209859.0	-2748.0	4146.0
14	14	52	47	168	192.0	-209465.0	-2774.0	4054.0
14	14	52	47	169	193.0	-209169.0	-2767.0	4255.0
14	14	52	47	205	194.0	-208902.0	-2762.0	4546.0
14	14	52	47	206	195.0	-208821.0	-2756.0	4396.0
14	14	52	47	206	212.0	-201659.0	-2736.0	3334.0
14	14	52	47	207	213.0	-201135.0	-2734.0	3186.0
14	14	52	47	208	214.0	-200729.0	-2735.0	3222.0
14	14	52	47	209	215.0	-200405.0	-2756.0	3105.0
14	14	52	47	209	216.0	-200282.0	-2748.0	2857.0
14	14	52	47	210	217.0	-200408.0	-2734.0	3000.0
14	14	52	47	211	218.0	-200654.0	-2716.0	3411.0
14	14	52	47	211	219.0	-200986.0	-2697.0	3111.0
14	14	52	47	212	220.0	-201599.0	-2716.0	3186.0
14	14	52	47	213	221.0	-201986.0	-2718.0	3165.0
14	14	52	47	221	222.0	-202192.0	-2729.0	3186.0
14	14	52	47	222	223.0	-202406.0	-2754.0	3329.0
14	14	52	47	223	224.0	-202380.0	-2742.0	3902.0
14	14	52	47	224	234.0	-202632.0	-2718.0	3731.0
14	14	52	47	224	235.0	-202817.0	-2739.0	3854.0
14	14	52	47	225	236.0	-202570.0	-2721.0	3986.0
14	14	52	47	226	237.0	-202072.0	-2730.0	3728.0
14	14	52	47	226	238.0	-201344.0	-2724.0	3149.0
14	14	52	47	227	239.0	-200384.0	-2717.0	3036.0
14	14	52	47	227	240.0	-199477.0	-2727.0	3423.0
14	14	52	47	296	241.0	-198130.0	-2741.0	3465.0
14	14	52	47	298	242.0	-196392.0	-2716.0	3251.0
14	14	52	47	298	243.0	-194855.0	-2699.0	3371.0
14	14	52	47	299	244.0	-193464.0	-2740.0	3468.0
14	14	52	47	300	245.0	-191737.0	-2738.0	3754.0
14	14	52	47	301	246.0	-190294.0	-2739.0	3861.0
14	14	52	47	302	247.0	-188959.0	-2757.0	3819.0
14	14	52	47	302	248.0	-187403.0	-2757.0	3437.0
14	14	52	47	303	249.0	-185777.0	-2759.0	3571.0
14	14	52	47	304	250.0	-184157.0	-2734.0	3769.0
14	14	52	47	304	251.0	-182689.0	-2724.0	3418.0
14	14	52	47	305	252.0	-181267.0	-2724.0	3372.0
14	14	52	47	306	253.0	-180079.0	-2736.0	3363.0
14	14	52	47	306	254.0	-179276.0	-2741.0	3548.0
14	14	52	47	307	255.0	-178946.0	-2737.0	3596.0
14	14	52	47	308	23.0	-200028.0	-2731.0	-343.0
14	14	52	47	308	24.0	-199051.0	-2721.0	3515.0
14	14	52	47	309	25.0	-197567.0	-2719.0	9350.0
14	14	52	47	309	26.0	-196012.0	-2729.0	15133.0
14	14	52	47	310	27.0	-194360.0	-2736.0	19691.0
14	14	52	47	311	28.0	-193218.0	-2754.0	22271.0
14	14	52	47	386	29.0	-192941.0	-2770.0	24874.0
14	14	52	47	387	30.0	-192951.0	-2738.0	26903.0
14	14	52	47	387	31.0	-193192.0	-2754.0	27878.0
14	14	52	47	388	32.0	-194564.0	-2761.0	29128.0
14	14	52	47	389	33.0	-196897.0	-2736.0	29528.0
14	14	52	47	390	34.0	-199249.0	-2716.0	27707.0
14	14	52	47	390	35.0	-201777.0	-2710.0	24817.0
14	14	52	47	391	36.0	-204454.0	-2731.0	22221.0
14	14	52	47	392	37.0	-207388.0	-2732.0	21677.0
14	14	52	47	392	38.0	-210812.0	-2739.0	21133.0
14	14	52	47	393	39.0	-214587.0	-2767.0	20056.0
14	14	52	47	394	40.0	-218341.0	-2740.0	18656.0
14	14	52	47	395	41.0	-221759.0	-2716.0	16936.0
14	14	52	47	395	42.0	-225156.0	-2705.0	15739.0
14	14	52	47	396	43.0	-229292.0	-2714.0	14198.0
14	14	52	47	397	44.0	-232385.0	-2736.0	12669.0
14	14	52	47	397	69.0	-179205.0	-2719.0	1105.0
14	14	52	47	398	70.0	-181724.0	-2716.0	1368.0
14	14	52	47	398	71.0	-185316.0	-2708.0	1215.0
14	14	52	47	399	72.0	-188729.0	-2711.0	1001.0
14	14	52	47	400	73.0	-191251.0	-2715.0	836.0
14	14	52	47	400	74.0	-193024.0	-2696.0	922.0
14	14	52	47	430	75.0	-194475.0	-2724.0	858.0
14	14	52	47	431	76.0	-195131.0	-2729.0	749.0
14	14	52	47	432	77.0	-195057.0	-2743.0	575.0
14	14	52	47	433	78.0	-194781.0	-2742.0	619.0
14	14	52	47	434	79.0	-194269.0	-2738.0	1037.0
14	14	52	47	434	80.0	-193402.0	-2725.0	943.0
14	14	52	47	435	81.0	-191469.0	-2733.0	727.0
14	14	52	47	436	82.0	-188621.0	-2751.0	854.0
14	14	52	47	437	83.0	-185144.0	-2736.0	1104.0
14	14	52	47	437	84.0	-181031.0	-2721.0	1218.0
14	14	52	47	438	85.0	-176797.0	-2726.0	846.0
14	14	52	47	439	86.0	-172653.0	-2705.0	741.0
14	14	52	47	439	87.0	-169458.0	-2714.0	713.0
14	14	52	47	440	88.0	-167738.0	-2677.0	859.0
14	14	52	47	441	89.0	-167421.0	-2713.0	1057.0
14	14	52	47	441	91.0	-169796.0	-2695.0	1004.0
14	14	52	47	442	92.0	-173392.0	-2700.0	765.0
14	14	52	47	442	93.0	-178296.0	-2683.0	719.0
14	14	52	47	443	94.0	-183393.0	-2695.0	639.0
14	14	52	47	444	95.0	-187592.0	-2686.0	474.0
14	14	52	47	444	96.0	-191792.0	-2687.0	274.0
14	14	52	47	474	97.0	-197180.0	-2704.0	23.0
14	14	52	47	521	98.0	-200499.0	-2721.0	-140.0
14	14	52	47	522	99.0	-203377.0	-2727.0	102.0
14	14	52	47	523	100.0	-206161.0	-2694.0	-88.0
14	14	52	47	524	101.0	-207741.0	-2713.0	-106.0
14	14	52	47	525	102.0	-208564.0	-2682.0	-262.0
14	14	52	47	525	103.0	-209209.0	-2686.0	-398.0
14	14	52	47	526	104.0	-209629.0	-2708.0	-406.0
14	14	52	47	527	105.0	-209735.0	-2696.0	-48.0
14	14	52	47	528	106.0	-209132.0	-2691.0	-340.0
14	14	52	47	528	107.0	-208749.0	-2686.0	-344.0
14	14	52	47	529	108.0	-210002.0	-2736.0	-182.0
14	14	52	47	530	109.0	-209814.0	-2689.0	135.0
14	14	52	47	530	110.0	-209647.0	-2678.0	-6.0
14	14	52	47	531	111.0	-209996.0	-2694.0	-527.0
14	14	52	47	532	113.0	-209033.0	-2658.0	-909.0
14	14	52	47	532	114.0	-208622.0	-2679.0	-1152.0
14	14	52	47	533	136.0	-191249.0	-2699.0	-985.0
14	14	52	47	534	137.0	-193008.0	-2717.0	-824.0
14	14	52	47	534	138.0	-194526.0	-2693.0	-442.0
14	14	52	47	535	139.0	-195511.0	-2719.0	-452.0
14	14	52	47	536	140.0	-196186.0	-2729.0	-757.0
14	14	52	47	536	141.0	-197337.0	-2734.0	-603.0
14	14	52	47	566	142.0	-198474.0	-2737.0	-576.0
14	14	52	47	567	143.0	-199729.0	-2741.0	-535.0
14	14	52	47	568	144.0	-200881.0	-2759.0	-499.0
14	14	52	47	569	145.0	-201719.0	-2766.0	-384.0
14	14	52	47	569	146.0	-202764.0	-2739.0	-429.0
14	14	52	47	570	147.0	-204154.0	-2771.0	-337.0
14	14	52	47	571	148.0	-205007.0	-2774.0	-67.0
14	14	52	47	571	149.0	-205817.0	-2775.0	-179.0
14	14	52	47	572	150.0	-206785.0	-2759.0	-318.0
14	14	52	47	573	151.0	-207525.0	-2746.0	-347.0
14	14	52	47	574	152.0	-208534.0	-2765.0	-244.0
14	14	52	47	575	153.0	-209727.0	-2794.0	-316.0
14	14	52	47	575	154.0	-210396.0	-2811.0	-302.0
14	14	52	47	576	155.0	-210667.0	-2771.0	286.0
14	14	52	47	577	156.0	-210804.0	-2766.0	373.0
14	14	52	47	577	158.0	-210524.0	-2774.0	359.0
14	14	52	47	578	159.0	-210138.0	-2774.0	574.0
14	14	52	47	579	160.0	-209528.0	-2775.0	347.0
14	14	52	47	579	161.0	-208959.0	-2787.0	323.0
14	14	52	47	580	162.0	-208844.0	-2792.0	493.0
14	14	52	47	581	163.0	-209089.0	-2783.0	174.0
14	14	52	47	609	164.0	-209036.0	-2785.0	31.0
14	14	52	47	610	165.0	-208922.0	-2806.0	18.0
14	14	52	47	610	166.0	-208824.0	-2821.0	-105.0
14	14	52	47	611	167.0	-208551.0	-2822.0	-211.0
14	14	52	47	612	168.0	-208161.0	-2804.0	24.0
14	14	52	47	612	169.0	-207666.0	-2796.0	468.0
14	14	52	47	613	170.0	-206966.0	-2811.0	270.0
14	14	52	47	614	171.0	-205734.0	-2815.0	42.0
14	14	52	47	614	172.0	-204669.0	-2818.0	161.0
14	14	52	47	615	173.0	-203624.0	-2805.0	146.0
14	14	52	47	616	174.0	-202538.0	-2812.0	-211.0
14	14	52	47	616	175.0	-201624.0	-2807.0	-356.0
14	14	52	47	617	176.0	-200592.0	-2809.0	-556.0
14	14	52	47	617	177.0	-199921.0	-2814.0	-509.0
14	14	52	47	618	178.0	-199791.0	-2807.0	-462.0
14	14	52	47	619	181.0	-199927.0	-2782.0	-244.0
14	14	52	47	619	182.0	-200067.0	-2782.0	-160.0
14	14	52	47	620	183.0	-200022.0	-2792.0	-492.0
14	14	52	47	620	184.0	-200376.0	-2808.0	-304.0
14	14	52	47	621	185.0	-200782.0	-2821.0	-433.0
14	14	52	47	621	186.0	-200707.0	-2826.0	-416.0
14	14	52	47	655	187.0	-200672.0	-2819.0	-299.0
14	14	52	47	655	188.0	-200351.0	-2835.0	91.0
14	14	52	47	656	189.0	-199639.0	-2846.0	142.0
14	14	52	47	657	190.0	-198857.0	-2821.0	162.0
14	14	52	47	657	191.0	-197684.0	-2801.0	533.0
14	14	52	47	658	192.0	-195363.0	-2787.0	486.0
14	14	52	47	658	193.0	-191578.0	-2792.0	137.0
14	14	52	47	659	194.0	-186445.0	-2823.0	488.0
14	14	52	47	660	195.0	-180427.0	-2807.0	1087.0
14	14	52	47	660	196.0	-173424.0	-2817.0	889.0
14	14	52	47	661	197.0	-169107.0	-2834.0	669.0
14	14	52	47	661	198.0	-171699.0	-2835.0	1001.0
14	14	52	47	662	199.0	-170227.0	-2828.0	733.0
14	14	52	47	662	200.0	-177839.0	-2837.0	880.0
14	14	52	47	663	201.0	-186909.0	-2825.0	964.0
14	14	52	47	664	203.0	-200883.0	-2796.0	843.0
14	14	52	47	664	204.0	-211257.0	-2809.0	904.0
14	14	52	47	665	205.0	-217016.0	-2816.0	1069.0
14	14	52	47	665	206.0	-218429.0	-2820.0	701.0
14	14	52	47	666	207.0	-217937.0	-2829.0	1033.0
14	14	52	47	666	208.0	-217841.0	-2832.0	873.0
14	14	52	47	699	209.0	-216137.0	-2862.0	1075.0
14	14	52	47	700	210.0	-211563.0	-2849.0	1175.0
14	14	52	47	701	211.0	-206209.0	-2830.0	980.0
14	14	52	47	701	212.0	-201341.0	-2837.0	1110.0
14	14	52	47	702	213.0	-197992.0	-2836.0	816.0
14	14	52	47	703	214.0	-196051.0	-2832.0	833.0
14	14	52	47	703	215.0	-194838.0	-2810.0	824.0
14	14	52	47	704	216.0	-194776.0	-2807.0	733.0
14	14	52	47	704	217.0	-195042.0	-2831.0	558.0
14	14	52	47	705	218.0	-195936.0	-2831.0	513.0
14	14	52	47	706	219.0	-197566.0	-2842.0	298.0
14	14	52	47	706	220.0	-199247.0	-2835.0	239.0
14	14	52	47	707	221.0	-200807.0	-2814.0	374.0
14	14	52	47	707	222.0	-202355.0	-2861.0	153.0
14	14	52	47	708	223.0	-203721.0	-2827.0	57.0
14	14	52	47	709	225.0	-206248.0	-2844.0	468.0
14	14	52	47	709	226.0	-207598.0	-2855.0	243.0
14	14	52	47	710	227.0	-209135.0	-2856.0	381.0
14	14	52	47	710	228.0	-211145.0	-2844.0	324.0
14	14	52	47	711	229.0	-213084.0	-2852.0	37.0
14	14	52	47	711	230.0	-214484.0	-2855.0	713.0
14	14	52	47	712	231.0	-215413.0	-2843.0	594.0
14	14	52	47	744	232.0	-215880.0	-2858.0	377.0
14	14	52	47	745	233.0	-216006.0	-2856.0	547.0
14	14	52	47	790	234.0	-215838.0	-2827.0	541.0
14	14	52	47	790	235.0	-215296.0	-2836.0	504.0
14	14	52	47	792	236.0	-214223.0	-2856.0	384.0
14	14	52	47	792	237.0	-211954.0	-2844.0	844.0
14	14	52	47	793	238.0	-211512.0	-2843.0	544.0
14	14	52	47	794	239.0	-210656.0	-2844.0	382.0
14	14	52	47	794	240.0	-208507.0	-2844.0	808.0
14	14	52	47	795	241.0	-207006.0	-2814.0	911.0
14	14	52	47	795	242.0	-206117.0	-2828.0	601.0
14	14	52	47	796	243.0	-205512.0	-2816.0	590.0
14	14	52	47	797	244.0	-205216.0	-2808.0	1097.0
14	14	52	47	797	245.0	-204989.0	-2832.0	1068.0
14	14	52	47	798	246.0	-204681.0	-2842.0	956.0
14	14	52	47	798	248.0	-204271.0	-2849.0	1400.0
14	14	52	47	799	249.0	-204382.0	-2856.0	1379.0
14	14	52	47	800	14.0	-203649.0	-2811.0	1944.0
14	14	52	47	800	15.0	-203217.0	-2829.0	2208.0
14	14	52	47	801	16.0	-202700.0	-2846.0	1988.0
14	14	52	47	801	17.0	-201899.0	-2843.0	1921.0
14	14	52	47	802	18.0	-200534.0	-2832.0	1681.0
14	14	52	47	802	19.0	-199327.0	-2837.0	1526.0
14	14	52	47	803	20.0	-198350.0	-2847.0	1643.0
14	14	52	47	834	21.0	-197538.0	-2850.0	1884.0
14	14	52	47	835	22.0	-196818.0	-2858.0	1815.0
14	14	52	47	836	23.0	-196431.0	-2869.0	1664.0
14	14	52	47	836	24.0	-195906.0	-2849.0	1773.0
14	14	52	47	837	25.0	-195461.0	-2842.0	1902.0
14	14	52	47	837	26.0	-195534.0	-2852.0	1888.0
14	14	52	47	838	27.0	-195278.0	-2854.0	1718.0
14	14	52	47	839	28.0	-194934.0	-2849.0	1913.0
14	14	52	47	839	29.0	-195040.0	-2842.0	1755.0
14	14	52	47	840	30.0	-195001.0	-2837.0	1828.0
14	14	52	47	840	31.0	-195310.0	-2847.0	2189.0
14	14	52	47	841	32.0	-195734.0	-2866.0	2265.0
14	14	52	47	842	33.0	-195625.0	-2859.0	2094.0
14	14	52	47	842	34.0	-195779.0	-2857.0	2156.0
14	14	52	47	843	35.0	-196076.0	-2868.0	2065.0
14	14	52	47	843	37.0	-197069.0	-2839.0	1568.0
14	14	52	47	844	38.0	-197764.0	-2846.0	1779.0
14	14	52	47	844	39.0	-198524.0	-2847.0	1395.0
14	14	52	47	845	40.0	-199503.0	-2855.0	1036.0
14	14	52	47	846	41.0	-200554.0	-2852.0	1432.0
14	14	52	47	846	42.0	-201357.0	-2859.0	1666.0
14	14	52	47	879	43.0	-202352.0	-2857.0	1713.0
14	14	52	47	880	44.0	-203287.0	-2854.0	1799.0
14	14	52	47	880	45.0	-203864.0	-2846.0	1568.0
14	14	52	47	881	46.0	-204084.0	-2851.0	1256.0
14	14	52	47	882	47.0	-204159.0	-2866.0	1433.0
14	14	52	47	882	48.0	-204278.0	-2861.0	1206.0
14	14	52	47	883	49.0	-203904.0	-2852.0	860.0
14	14	52	47	884	50.0	-202987.0	-2856.0	778.0
14	14	52	47	884	51.0	-201751.0	-2858.0	1254.0
14	14	52	47	885	52.0	-200694.0	-2879.0	1559.0
14	14	52	47	885	53.0	-199912.0	-2875.0	1636.0
14	14	52	47	886	54.0	-199115.0	-2857.0	1543.0
14	14	52	47	886	55.0	-198309.0	-2867.0	1494.0
14	14	52	47	887	56.0	-197822.0	-2869.0	1440.0
14	14	52	47	898	57.0	-197904.0	-2872.0	1678.0
14	14	52	47	899	59.0	-197777.0	-2861.0	1538.0
14	14	52	47	900	60.0	-197835.0	-2864.0	1876.0
14	14	52	47	900	61.0	-197854.0	-2876.0	1819.0
14	14	52	47	901	62.0	-197796.0	-2891.0	1714.0
14	14	52	47	901	63.0	-198138.0	-2874.0	2008.0
14	14	52	47	902	64.0	-198559.0	-2866.0	2367.0
14	14	52	47	902	65.0	-198742.0	-2875.0	2128.0
14	14	52	47	924	66.0	-199232.0	-2862.0	1914.0
14	14	52	47	925	67.0	-199508.0	-2880.0	2127.0
14	14	52	47	926	68.0	-199677.0	-2861.0	2062.0
14	14	52	47	926	69.0	-200339.0	-2872.0	2257.0
14	14	52	47	927	70.0	-201068.0	-2886.0	2508.0
14	14	52	47	927	71.0	-201412.0	-2901.0	2516.0
14	14	52	47	928	72.0	-201572.0	-2894.0	2514.0
14	14	52	47	929	73.0	-201213.0	-2890.0	3032.0
14	14	52	47	929	74.0	-200599.0	-2899.0	3131.0
14	14	52	47	930	75.0	-199943.0	-2885.0	2833.0
14	14	52	47	930	76.0	-199279.0	-2889.0	2556.0
14	14	52	47	931	77.0	-198376.0	-2886.0	2729.0
14	14	52	47	931	78.0	-197401.0	-2884.0	2768.0
14	14	52	47	932	79.0	-196064.0	-2884.0	2339.0
14	14	52	47	933	80.0	-194012.0	-2898.0	2534.0
14	14	52	47	933	82.0	-192049.0	-2913.0	2424.0
14	14	52	47	934	83.0	-190914.0	-2910.0	2576.0
14	14	52	47	934	84.0	-189816.0	-2904.0	2963.0
14	14	52	47	935	85.0	-189385.0	-2910.0	2966.0
14	14	52	47	935	86.0	-189505.0	-2896.0	2733.0
14	14	52	47	936	87.0	-189687.0	-2881.0	2942.0
14	14	52	47	970	88.0	-189614.0	-2894.0	2826.0
14	14	52	47	971	89.0	-189472.0	-2896.0	2729.0
14	14	52	47	972	90.0	-188982.0	-2917.0	2753.0
14	14	52	47	972	91.0	-188649.0	-2927.0	2764.0
14	14	52	47	973	92.0	-188646.0	-2932.0	2663.0
14	14	52	47	973	93.0	-188802.0	-2920.0	2403.0
14	14	52	47	974	94.0	-189172.0	-2922.0	2248.0
14	14	52	47	975	95.0	-189731.0	-2923.0	2427.0
14	14	52	47	975	96.0	-190544.0	-2929.0	2308.0
14	14	52	47	976	97.0	-191473.0	-2922.0	2230.0
14	14	52	47	976	98.0	-192519.0	-2915.0	2079.0
14	14	52	47	977	99.0	-193383.0	-2913.0	2091.0
14	14	52	47	978	100.0	-194314.0	-2914.0	2079.0
14	14	52	47	978	101.0	-195542.0	-2932.0	2138.0
14	14	52	47	979	102.0	-196713.0	-2917.0	2094.0
14	14	52	47	979	104.0	-198212.0	-2939.0	1042.0
14	14	52	47	980	105.0	-198420.0	-2922.0	-110.0
14	14	52	47	981	106.0	-199325.0	-2949.0	-685.0
14	14	52	47	981	107.0	-200258.0	-2961.0	-1882.0
14	14	52	47	982	108.0	-200734.0	-2926.0	-3094.0
14	14	52	47	982	109.0	-200785.0	-2932.0	-4043.0
14	14	52	48	14	110.0	-200376.0	-2940.0	-4071.0
14	14	52	48	15	111.0	-199835.0	-2937.0	-3713.0
14	14	52	48	16	112.0	-199136.0	-2964.0	-2727.0
14	14	52	48	16	113.0	-198599.0	-2982.0	-1271.0
14	14	52	48	17	114.0	-198452.0	-2950.0	2438.0
14	14	52	48	18	115.0	-197992.0	-2953.0	7490.0
14	14	52	48	18	116.0	-197024.0	-2972.0	12759.0
14	14	52	48	19	117.0	-196907.0	-2959.0	16586.0
14	14	52	48	19	118.0	-195866.0	-2932.0	19044.0
14	14	52	48	20	119.0	-195086.0	-2941.0	21949.0
14	14	52	48	21	120.0	-194069.0	-2961.0	23644.0
14	14	52	48	21	121.0	-193784.0	-2947.0	24942.0
14	14	52	48	22	122.0	-194143.0	-2954.0	25786.0
14	14	52	48	22	123.0	-195203.0	-2982.0	25045.0
14	14	52	48	23	124.0	-196743.0	-2979.0	23271.0
14	14	52	48	24	127.0	-203619.0	-2969.0	18851.0
14	14	52	48	24	128.0	-207056.0	-2947.0	18341.0
14	14	52	48	25	129.0	-207731.0	-2956.0	17392.0
14	14	52	48	25	130.0	-212493.0	-2982.0	15720.0
14	14	52	48	26	131.0	-215056.0	-2980.0	14536.0
14	14	52	48	27	132.0	-219414.0	-2992.0	13841.0
14	14	52	48	60	133.0	-223249.0	-2982.0	13119.0
14	14	52	48	61	134.0	-226219.0	-2972.0	11694.0
14	14	52	48	61	135.0	-225669.0	-2963.0	10148.0
14	14	52	48	62	136.0	-219930.0	-2972.0	8859.0
14	14	52	48	62	137.0	-212892.0	-2976.0	7226.0
14	14	52	48	63	138.0	-206386.0	-2973.0	5790.0
14	14	52	48	64	139.0	-199934.0	-2991.0	5309.0
14	14	52	48	64	140.0	-193095.0	-2982.0	4552.0
14	14	52	48	65	141.0	-187104.0	-2979.0	3659.0
14	14	52	48	65	142.0	-182327.0	-3011.0	3364.0
14	14	52	48	66	143.0	-180054.0	-3012.0	3099.0
14	14	52	48	67	144.0	-182497.0	-2997.0	2588.0
14	14	52	48	67	145.0	-189759.0	-2995.0	2174.0
14	14	52	48	68	146.0	-197947.0	-3001.0	1831.0
14	14	52	48	69	147.0	-206296.0	-2994.0	816.0
14	14	52	48	69	149.0	-223257.0	-2997.0	808.0
14	14	52	48	70	150.0	-225840.0	-3012.0	851.0
14	14	52	48	70	151.0	-223534.0	-3012.0	729.0
14	14	52	48	71	152.0	-218006.0	-3029.0	489.0
14	14	52	48	72	153.0	-210680.0	-3009.0	719.0
14	14	52	48	72	154.0	-202389.0	-3016.0	758.0
14	14	52	48	104	155.0	-194202.0	-3021.0	806.0
14	14	52	48	105	156.0	-187024.0	-3027.0	779.0
14	14	52	48	105	157.0	-181249.0	-3035.0	690.0
14	14	52	48	106	158.0	-176978.0	-3022.0	701.0
14	14	52	48	106	159.0	-174332.0	-3014.0	381.0
14	14	52	48	107	160.0	-173149.0	-3012.0	472.0
14	14	52	48	108	161.0	-173355.0	-3024.0	174.0
14	14	52	48	108	162.0	-175047.0	-3012.0	188.0
14	14	52	48	109	163.0	-177707.0	-3022.0	521.0
14	14	52	48	110	164.0	-181071.0	-3014.0	468.0
14	14	52	48	110	165.0	-184558.0	-3017.0	116.0
14	14	52	48	111	166.0	-187713.0	-3023.0	136.0
14	14	52	48	111	167.0	-190339.0	-3001.0	226.0
14	14	52	48	112	168.0	-192750.0	-3022.0	116.0
14	14	52	48	113	169.0	-195026.0	-3024.0	92.0
14	14	52	48	114	171.0	-196676.0	-3029.0	-2.0
14	14	52	48	114	172.0	-195824.0	-3035.0	284.0
14	14	52	48	115	173.0	-193796.0	-3044.0	164.0
14	14	52	48	116	174.0	-190854.0	-3030.0	-87.0
14	14	52	48	116	175.0	-186912.0	-3033.0	-1.0
14	14	52	48	149	176.0	-182084.0	-3034.0	-34.0
14	14	52	48	194	177.0	-177507.0	-3053.0	-231.0
14	14	52	48	195	178.0	-173857.0	-3056.0	-78.0
14	14	52	48	196	179.0	-171331.0	-3022.0	-143.0
14	14	52	48	197	180.0	-170331.0	-3037.0	-473.0
14	14	52	48	198	181.0	-170769.0	-3056.0	-562.0
14	14	52	48	199	182.0	-172454.0	-3046.0	-226.0
14	14	52	48	200	183.0	-175219.0	-3021.0	-588.0
14	14	52	48	200	184.0	-178481.0	-3024.0	-450.0
14	14	52	48	201	185.0	-182080.0	-3039.0	-76.0
14	14	52	48	201	186.0	-185783.0	-3050.0	-427.0
14	14	52	48	202	187.0	-189148.0	-3034.0	-1034.0
14	14	52	48	203	188.0	-192116.0	-3037.0	-912.0
14	14	52	48	203	189.0	-195094.0	-3026.0	-744.0
14	14	52	48	204	190.0	-197668.0	-3005.0	-992.0
14	14	52	48	204	194.0	-203419.0	-3022.0	-314.0
14	14	52	48	205	216.0	-185908.0	-3019.0	-1539.0
14	14	52	48	206	217.0	-184680.0	-3016.0	-1429.0
14	14	52	48	206	218.0	-183654.0	-3017.0	-1744.0
14	14	52	48	207	219.0	-183384.0	-3026.0	-1776.0
14	14	52	48	207	220.0	-183156.0	-3016.0	-1776.0
14	14	52	48	208	221.0	-183264.0	-3012.0	-1851.0
14	14	52	48	208	222.0	-184207.0	-3021.0	-1571.0
14	14	52	48	239	223.0	-184875.0	-3023.0	-1567.0
14	14	52	48	240	224.0	-185153.0	-3019.0	-1546.0
14	14	52	48	241	225.0	-185735.0	-3021.0	-1244.0
14	14	52	48	241	226.0	-186479.0	-3014.0	-1344.0
14	14	52	48	242	227.0	-187056.0	-3040.0	-1432.0
14	14	52	48	243	228.0	-187616.0	-3031.0	-1002.0
14	14	52	48	243	229.0	-188675.0	-3020.0	-809.0
14	14	52	48	244	230.0	-189894.0	-3032.0	-847.0
14	14	52	48	245	231.0	-191042.0	-3024.0	-726.0
14	14	52	48	245	232.0	-191896.0	-3027.0	-530.0
14	14	52	48	246	233.0	-193119.0	-3032.0	-509.0
14	14	52	48	246	234.0	-194839.0	-3042.0	-444.0
14	14	52	48	247	235.0	-196228.0	-3046.0	-168.0
14	14	52	48	248	236.0	-197949.0	-3065.0	-409.0
14	14	52	48	248	237.0	-199793.0	-3044.0	-770.0
14	14	52	48	249	239.0	-202253.0	-3029.0	108.0
14	14	52	48	250	240.0	-203466.0	-3048.0	-147.0
14	14	52	48	250	241.0	-204267.0	-3065.0	-102.0
14	14	52	48	251	242.0	-204836.0	-3065.0	364.0
14	14	52	48	251	243.0	-205417.0	-3063.0	281.0
14	14	52	48	252	244.0	-205607.0	-3051.0	-41.0
14	14	52	48	284	245.0	-205575.0	-3076.0	89.0
14	14	52	48	285	246.0	-205368.0	-3081.0	-125.0
14	14	52	48	286	247.0	-205184.0	-3062.0	-231.0
14	14	52	48	286	248.0	-205474.0	-3076.0	-429.0
14	14	52	48	287	249.0	-205644.0	-3079.0	-269.0
14	14	52	48	287	250.0	-205308.0	-3066.0	-274.0
14	14	52	48	288	251.0	-204964.0	-3103.0	112.0
14	14	52	48	289	252.0	-204969.0	-3106.0	554.0
14	14	52	48	289	253.0	-204907.0	-3094.0	653.0
14	14	52	48	290	254.0	-204877.0	-3079.0	478.0
14	14	52	48	291	255.0	-205061.0	-3082.0	509.0
14	14	52	48	291	0.0	-205226.0	-3076.0	196.0
14	14	52	48	292	1.0	-205002.0	-3089.0	138.0
14	14	52	48	292	2.0	-204404.0	-3087.0	232.0
14	14	52	48	293	3.0	-203839.0	-3077.0	53.0
14	14	52	48	294	5.0	-202456.0	-3088.0	83.0
14	14	52	48	294	6.0	-201851.0	-3117.0	-222.0
14	14	52	48	295	7.0	-201375.0	-3110.0	-202.0
14	14	52	48	295	8.0	-200841.0	-3117.0	-79.0
14	14	52	48	296	9.0	-200429.0	-3120.0	-216.0
14	14	52	48	329	10.0	-200109.0	-3127.0	-341.0
14	14	52	48	330	11.0	-199976.0	-3117.0	-109.0
14	14	52	48	330	12.0	-200099.0	-3102.0	-83.0
14	14	52	48	331	13.0	-200019.0	-3102.0	-175.0
14	14	52	48	332	14.0	-200141.0	-3094.0	-543.0
14	14	52	48	332	15.0	-200737.0	-3117.0	-234.0
14	14	52	48	333	16.0	-200946.0	-3106.0	-596.0
14	14	52	48	334	17.0	-200898.0	-3122.0	-659.0
14	14	52	48	334	18.0	-200935.0	-3141.0	-302.0
14	14	52	48	335	19.0	-201055.0	-3129.0	-309.0
14	14	52	48	336	20.0	-200911.0	-3136.0	-648.0
14	14	52	48	336	21.0	-200351.0	-3126.0	-713.0
14	14	52	48	337	22.0	-199200.0	-3130.0	-227.0
14	14	52	48	337	23.0	-197829.0	-3123.0	-189.0
14	14	52	48	338	24.0	-195835.0	-3134.0	-154.0
14	14	52	48	339	28.0	-174332.0	-3162.0	174.0
14	14	52	48	339	29.0	-166587.0	-3127.0	141.0
14	14	52	48	340	30.0	-167504.0	-3107.0	-236.0
14	14	52	48	340	31.0	-166020.0	-3147.0	53.0
14	14	52	48	341	32.0	-171467.0	-3136.0	514.0
14	14	52	48	342	33.0	-180806.0	-3126.0	223.0
14	14	52	48	374	34.0	-188164.0	-3134.0	28.0
14	14	52	48	375	35.0	-197517.0	-3139.0	212.0
14	14	52	48	376	36.0	-209106.0	-3148.0	471.0
14	14	52	48	377	37.0	-217685.0	-3131.0	38.0
14	14	52	48	377	38.0	-221802.0	-3114.0	-197.0
14	14	52	48	378	39.0	-222331.0	-3131.0	-221.0
14	14	52	48	379	40.0	-221402.0	-3131.0	-79.0
14	14	52	48	379	41.0	-218937.0	-3101.0	39.0
14	14	52	48	380	42.0	-213994.0	-3121.0	-31.0
14	14	52	48	381	43.0	-206105.0	-3121.0	-267.0
14	14	52	48	381	44.0	-197281.0	-3132.0	-173.0
14	14	52	48	382	45.0	-189872.0	-3137.0	133.0
14	14	52	48	382	46.0	-183344.0	-3127.0	-89.0
14	14	52	48	383	47.0	-179982.0	-3132.0	38.0
14	14	52	48	384	48.0	-181820.0	-3112.0	-431.0
14	14	52	48	384	50.0	-189833.0	-3120.0	-422.0
14	14	52	48	385	51.0	-193139.0	-3119.0	-426.0
14	14	52	48	385	52.0	-198088.0	-3105.0	-437.0
14	14	52	48	386	53.0	-202842.0	-3106.0	-909.0
14	14	52	48	387	54.0	-207146.0	-3124.0	-913.0
14	14	52	48	387	55.0	-210394.0	-3134.0	-918.0
14	14	52	48	388	56.0	-213051.0	-3145.0	-1116.0
14	14	52	48	420	57.0	-215209.0	-3139.0	-686.0
14	14	52	48	421	58.0	-216561.0	-3136.0	-206.0
14	14	52	48	422	59.0	-217149.0	-3126.0	-252.0
14	14	52	48	422	60.0	-217261.0	-3106.0	-481.0
14	14	52	48	423	61.0	-216511.0	-3119.0	-831.0
14	14	52	48	424	62.0	-215044.0	-3101.0	-846.0
14	14	52	48	424	63.0	-213904.0	-3123.0	-897.0
14	14	52	48	425	64.0	-212579.0	-3131.0	-589.0
14	14	52	48	426	65.0	-211051.0	-3112.0	-274.0
14	14	52	48	427	66.0	-210053.0	-3112.0	-526.0
14	14	52	48	428	67.0	-209599.0	-3109.0	-718.0
14	14	52	48	428	68.0	-209305.0	-3135.0	-79.0
14	14	52	48	429	69.0	-209591.0	-3123.0	-156.0
14	14	52	48	429	70.0	-210197.0	-3130.0	-615.0
14	14	52	48	430	71.0	-210641.0	-3127.0	-569.0
14	14	52	48	431	73.0	-211372.0	-3117.0	-446.0
14	14	52	48	431	74.0	-211201.0	-3115.0	-432.0
14	14	52	48	432	75.0	-210856.0	-3121.0	-394.0
14	14	52	48	432	76.0	-210046.0	-3132.0	-108.0
14	14	52	48	433	77.0	-208795.0	-3122.0	-99.0
14	14	52	48	434	78.0	-207406.0	-3106.0	-225.0
14	14	52	48	465	79.0	-205837.0	-3112.0	-171.0
14	14	52	48	466	80.0	-203979.0	-3109.0	-312.0
14	14	52	48	467	81.0	-202451.0	-3102.0	-368.0
14	14	52	48	468	82.0	-201157.0	-3126.0	-337.0
14	14	52	48	469	83.0	-200054.0	-3080.0	-702.0
14	14	52	48	470	84.0	-199130.0	-3075.0	-699.0
14	14	52	48	470	85.0	-198846.0	-3103.0	-385.0
14	14	52	48	471	86.0	-198873.0	-3101.0	-262.0
14	14	52	48	472	87.0	-199371.0	-3093.0	-161.0
14	14	52	48	472	88.0	-199932.0	-3061.0	-245.0
14	14	52	48	473	89.0	-200532.0	-3094.0	-541.0
14	14	52	48	474	90.0	-201529.0	-3111.0	-413.0
14	14	52	48	474	91.0	-202581.0	-3072.0	-363.0
14	14	52	48	475	92.0	-203181.0	-3080.0	-447.0
14	14	52	48	476	93.0	-203671.0	-3072.0	-613.0
14	14	52	48	477	95.0	-204577.0	-3085.0	-236.0
14	14	52	48	477	96.0	-205119.0	-3067.0	-177.0
14	14	52	48	478	97.0	-205346.0	-3067.0	-101.0
14	14	52	48	478	98.0	-205512.0	-3088.0	355.0
14	14	52	48	479	99.0	-205996.0	-3082.0	-124.0
14	14	52	48	480	100.0	-206495.0	-3096.0	241.0
14	14	52	48	525	101.0	-206958.0	-3067.0	651.0
14	14	52	48	545	102.0	-207616.0	-3067.0	58.0
14	14	52	48	546	103.0	-208200.0	-3063.0	-354.0
14	14	52	48	546	104.0	-208799.0	-3031.0	-170.0
14	14	52	48	547	105.0	-209505.0	-3052.0	-64.0
14	14	52	48	548	106.0	-210329.0	-3043.0	-232.0
14	14	52	48	549	107.0	-210981.0	-3032.0	-196.0
14	14	52	48	549	108.0	-211569.0	-3019.0	-289.0
14	14	52	48	550	109.0	-211700.0	-3034.0	-419.0
14	14	52	48	550	110.0	-211292.0	-3026.0	-471.0
14	14	52	48	551	111.0	-210980.0	-3036.0	-58.0
14	14	52	48	552	112.0	-210630.0	-3041.0	-285.0
14	14	52	48	552	113.0	-209995.0	-3041.0	-155.0
14	14	52	48	553	114.0	-209140.0	-3051.0	376.0
14	14	52	48	553	115.0	-208699.0	-3032.0	442.0
14	14	52	48	554	125.0	-198724.0	-3001.0	-341.0
14	14	52	48	555	132.0	-199489.0	-2984.0	-841.0
14	14	52	48	555	133.0	-199799.0	-2986.0	-621.0
14	14	52	48	556	134.0	-200021.0	-2999.0	-406.0
14	14	52	48	557	135.0	-200021.0	-3000.0	-413.0
14	14	52	48	557	136.0	-200051.0	-2985.0	-246.0
14	14	52	48	558	137.0	-200071.0	-2980.0	49.0
14	14	52	48	558	138.0	-200449.0	-2969.0	-74.0
14	14	52	48	559	139.0	-201056.0	-2961.0	124.0
14	14	52	48	560	140.0	-201856.0	-2969.0	198.0
14	14	52	48	569	141.0	-202691.0	-2977.0	-106.0
14	14	52	48	570	142.0	-203659.0	-2959.0	-260.0
14	14	52	48	571	143.0	-204716.0	-2941.0	-46.0
14	14	52	48	571	144.0	-205780.0	-2958.0	545.0
14	14	52	48	572	145.0	-206811.0	-2974.0	207.0
14	14	52	48	573	146.0	-207571.0	-2959.0	139.0
14	14	52	48	573	147.0	-208102.0	-2956.0	175.0
14	14	52	48	574	148.0	-208611.0	-2976.0	321.0
14	14	52	48	575	149.0	-209157.0	-2967.0	91.0
14	14	52	48	593	150.0	-209472.0	-2954.0	62.0
14	14	52	48	594	151.0	-209463.0	-2957.0	-56.0
14	14	52	48	594	152.0	-208977.0	-2958.0	-425.0
14	14	52	48	595	153.0	-208251.0	-2957.0	-286.0
14	14	52	48	596	154.0	-207287.0	-2959.0	-1.0
14	14	52	48	596	155.0	-206000.0	-2971.0	26.0
14	14	52	48	616	156.0	-204409.0	-2991.0	-158.0
14	14	52	48	616	157.0	-202799.0	-2971.0	-177.0
14	14	52	48	617	158.0	-200994.0	-2945.0	188.0
14	14	52	48	617	159.0	-199601.0	-2959.0	29.0
14	14	52	48	618	160.0	-197906.0	-2976.0	-102.0
14	14	52	48	619	161.0	-195960.0	-2967.0	173.0
14	14	52	48	619	162.0	-194024.0	-2957.0	127.0
14	14	52	48	620	163.0	-192154.0	-2966.0	199.0
14	14	52	48	620	164.0	-190750.0	-2956.0	547.0
14	14	52	48	621	165.0	-189495.0	-2949.0	429.0
14	14	52	48	621	166.0	-188808.0	-2986.0	233.0
14	14	52	48	622	167.0	-187969.0	-2981.0	134.0
14	14	52	48	623	168.0	-187156.0	-2958.0	232.0
14	14	52	48	623	169.0	-186780.0	-2958.0	-16.0
14	14	52	48	624	170.0	-186388.0	-2944.0	9.0
14	14	52	48	639	171.0	-185985.0	-2949.0	-249.0
14	14	52	48	640	172.0	-185904.0	-2942.0	-297.0
14	14	52	48	640	173.0	-185623.0	-2951.0	-277.0
14	14	52	48	641	174.0	-185140.0	-2949.0	-294.0
14	14	52	48	642	175.0	-184779.0	-2936.0	-346.0
14	14	52	48	642	176.0	-184593.0	-2919.0	-276.0
14	14	52	48	643	177.0	-184701.0	-2906.0	-86.0
14	14	52	48	644	178.0	-185011.0	-2922.0	-18.0
14	14	52	48	644	179.0	-185336.0	-2935.0	104.0
14	14	52	48	645	180.0	-185752.0	-2907.0	120.0
14	14	52	48	645	181.0	-186470.0	-2904.0	-312.0
14	14	52	48	646	182.0	-187510.0	-2885.0	-100.0
14	14	52	48	647	183.0	-188736.0	-2881.0	334.0
14	14	52	48	647	184.0	-190277.0	-2942.0	-134.0
14	14	52	48	648	185.0	-192361.0	-2945.0	-608.0
14	14	52	48	662	186.0	-194818.0	-2906.0	-905.0
14	14	52	48	663	187.0	-197329.0	-2901.0	-1399.0
14	14	52	48	664	188.0	-199521.0	-2898.0	-2437.0
14	14	52	48	664	189.0	-201815.0	-2886.0	-3395.0
14	14	52	48	665	190.0	-203905.0	-2892.0	-4569.0
14	14	52	48	665	191.0	-205640.0	-2921.0	-6079.0
14	14	52	48	666	192.0	-206827.0	-2933.0	-6525.0
14	14	52	48	667	193.0	-207750.0	-2897.0	-6031.0
14	14	52	48	667	194.0	-208145.0	-2884.0	-5272.0
14	14	52	48	686	195.0	-207772.0	-2881.0	-4346.0
14	14	52	48	686	196.0	-206912.0	-2888.0	-1431.0
14	14	52	48	687	197.0	-205891.0	-2895.0	3949.0
14	14	52	48	688	198.0	-204746.0	-2879.0	9552.0
14	14	52	48	689	199.0	-203182.0	-2879.0	14262.0
14	14	52	48	689	200.0	-201401.0	-2871.0	16896.0
14	14	52	48	690	201.0	-199537.0	-2867.0	18988.0
14	14	52	48	690	202.0	-198223.0	-2850.0	20708.0
14	14	52	48	691	203.0	-197254.0	-2851.0	22040.0
14	14	52	48	692	204.0	-196720.0	-2840.0	23148.0
14	14	52	48	692	205.0	-197163.0	-2854.0	23125.0
14	14	52	48	693	206.0	-198234.0	-2880.0	21698.0
14	14	52	48	694	207.0	-199506.0	-2849.0	20077.0
14	14	52	48	694	208.0	-201472.0	-2866.0	18386.0
14	14	52	48	709	209.0	-203900.0	-2868.0	17231.0
14	14	52	48	710	210.0	-206400.0	-2869.0	16409.0
14	14	52	48	711	211.0	-209370.0	-2836.0	15684.0
14	14	52	48	711	212.0	-212328.0	-2863.0	14015.0
14	14	52	48	712	213.0	-215001.0	-2881.0	12421.0
14	14	52	48	712	214.0	-217526.0	-2872.0	11603.0
14	14	52	48	713	215.0	-220415.0	-2832.0	10758.0
14	14	52	48	714	216.0	-224366.0	-2843.0	9825.0
14	14	52	48	733	217.0	-226971.0	-2847.0	8298.0
14	14	52	48	734	218.0	-222954.0	-2832.0	6578.0
14	14	52	48	734	219.0	-216182.0	-2793.0	5500.0
14	14	52	48	735	220.0	-211139.0	-2794.0	4026.0
14	14	52	48	736	221.0	-206169.0	-2838.0	2261.0
14	14	52	48	736	222.0	-201247.0	-2849.0	1523.0
14	14	52	48	737	223.0	-195875.0	-2804.0	1016.0
14	14	52	48	738	224.0	-192612.0	-2799.0	676.0
14	14	52	48	738	225.0	-192337.0	-2795.0	191.0
14	14	52	48	739	226.0	-193247.0	-2796.0	-124.0
14	14	52	48	739	227.0	-195877.0	-2846.0	-769.0
14	14	52	48	740	228.0	-201508.0	-2842.0	-1347.0
14	14	52	48	740	229.0	-210144.0	-2810.0	-1420.0
14	14	52	48	741	230.0	-219527.0	-2799.0	-1596.0
14	14	52	48	742	231.0	-226868.0	-2801.0	-1927.0
14	14	52	48	762	232.0	-229515.0	-2797.0	-2104.0
14	14	52	48	762	233.0	-227139.0	-2793.0	-1796.0
14	14	52	48	763	234.0	-220833.0	-2796.0	-2119.0
14	14	52	48	764	235.0	-212684.0	-2791.0	-2116.0
14	14	52	48	764	236.0	-204047.0	-2811.0	-1977.0
14	14	52	48	765	237.0	-195681.0	-2782.0	-2096.0
14	14	52	48	765	238.0	-188654.0	-2801.0	-2353.0
14	14	52	48	766	239.0	-183426.0	-2791.0	-2065.0
14	14	52	48	766	240.0	-179317.0	-2802.0	-2089.0
14	14	52	48	767	241.0	-175991.0	-2809.0	-2698.0
14	14	52	48	768	242.0	-173899.0	-2809.0	-2667.0
14	14	52	48	768	243.0	-173166.0	-2772.0	-2272.0
14	14	52	48	769	244.0	-173818.0	-2748.0	-2156.0
14	14	52	48	769	245.0	-175805.0	-2757.0	-2449.0
14	14	52	48	770	246.0	-178371.0	-2774.0	-2741.0
14	14	52	48	786	247.0	-181230.0	-2784.0	-2795.0
14	14	52	48	786	248.0	-184468.0	-2786.0	-2969.0
14	14	52	48	787	249.0	-187207.0	-2809.0	-2607.0
14	14	52	48	787	250.0	-189197.0	-2817.0	-2482.0
14	14	52	48	788	251.0	-190750.0	-2776.0	-2637.0
14	14	52	48	788	252.0	-191711.0	-2768.0	-2995.0
14	14	52	48	789	253.0	-192133.0	-2797.0	-2798.0
14	14	52	48	808	254.0	-191336.0	-2774.0	-2664.0
14	14	52	48	809	255.0	-189105.0	-2758.0	-2785.0
14	14	52	48	810	0.0	-185872.0	-2784.0	-2926.0
14	14	52	48	810	1.0	-181858.0	-2771.0	-2977.0
14	14	52	48	811	2.0	-177514.0	-2779.0	-3015.0
14	14	52	48	811	3.0	-173971.0	-2784.0	-3153.0
14	14	52	48	812	4.0	-171338.0	-2759.0	-3207.0
14	14	52	48	812	5.0	-169730.0	-2766.0	-3299.0
14	14	52	48	813	6.0	-169360.0	-2761.0	-3177.0
14	14	52	48	814	7.0	-170359.0	-2754.0	-3565.0
14	14	52	48	814	8.0	-172763.0	-2754.0	-3637.0
14	14	52	48	815	9.0	-176404.0	-2755.0	-3206.0
14	14	52	48	815	10.0	-180868.0	-2756.0	-3216.0
14	14	52	48	816	11.0	-185542.0	-2764.0	-3586.0
14	14	52	48	816	12.0	-190094.0	-2751.0	-3613.0
14	14	52	48	832	13.0	-194348.0	-2717.0	-3131.0
14	14	52	48	833	14.0	-197664.0	-2741.0	-3114.0
14	14	52	48	833	15.0	-200189.0	-2766.0	-3437.0
14	14	52	48	834	16.0	-202532.0	-2754.0	-3232.0
14	14	52	48	835	17.0	-204301.0	-2734.0	-2996.0
14	14	52	48	835	18.0	-205482.0	-2718.0	-3144.0
14	14	52	48	836	19.0	-206761.0	-2719.0	-3079.0
14	14	52	48	836	20.0	-207346.0	-2736.0	-3343.0
14	14	52	48	856	21.0	-207525.0	-2725.0	-3761.0
14	14	52	48	856	22.0	-208346.0	-2717.0	-3477.0
14	14	52	48	857	23.0	-209351.0	-2724.0	-3064.0
14	14	52	48	858	24.0	-209749.0	-2732.0	-3041.0
14	14	52	48	858	25.0	-209789.0	-2724.0	-3226.0
14	14	52	48	859	26.0	-210008.0	-2701.0	-3416.0
14	14	52	48	859	27.0	-210079.0	-2731.0	-3362.0
14	14	52	48	860	28.0	-209811.0	-2739.0	-3432.0
14	14	52	48	860	29.0	-209665.0	-2722.0	-3702.0
14	14	52	48	861	30.0	-209285.0	-2699.0	-3723.0
14	14	52	48	861	31.0	-208276.0	-2690.0	-3958.0
14	14	52	48	862	32.0	-207135.0	-2690.0	-4013.0
14	14	52	48	862	33.0	-205503.0	-2702.0	-4091.0
14	14	52	48	863	34.0	-203492.0	-2737.0	-4108.0
14	14	52	48	879	35.0	-201610.0	-2719.0	-4327.0
14	14	52	48	880	36.0	-199864.0	-2708.0	-4513.0
14	14	52	48	880	37.0	-197524.0	-2712.0	-4154.0
14	14	52	48	881	38.0	-194831.0	-2724.0	-4403.0
14	14	52	48	881	39.0	-192614.0	-2747.0	-4566.0
14	14	52	48	882	40.0	-190536.0	-2732.0	-4584.0
14	14	52	48	883	41.0	-188042.0	-2735.0	-4757.0
14	14	52	48	883	42.0	-185921.0	-2714.0	-4749.0
14	14	52	48	884	43.0	-184780.0	-2722.0	-4712.0
14	14	52	48	885	44.0	-183895.0	-2719.0	-4816.0
14	14	52	48	885	45.0	-183281.0	-2724.0	-4645.0
14	14	52	48	886	46.0	-183136.0	-2714.0	-4547.0
14	14	52	48	886	47.0	-183532.0	-2713.0	-4698.0
14	14	52	48	887	48.0	-184220.0	-2730.0	-4708.0
14	14	52	48	888	49.0	-185214.0	-2764.0	-4364.0
14	14	52	48	902	50.0	-186481.0	-2732.0	-4278.0
14	14	52	48	902	51.0	-187877.0	-2712.0	-4908.0
14	14	52	48	903	52.0	-189444.0	-2707.0	-4589.0
14	14	52	48	904	53.0	-191135.0	-2731.0	-4748.0
14	14	52	48	904	54.0	-192244.0	-2756.0	-4996.0
14	14	52	48	905	55.0	-193514.0	-2757.0	-4904.0
14	14	52	48	905	56.0	-194952.0	-2731.0	-4721.0
14	14	52	48	906	57.0	-195833.0	-2742.0	-4953.0
14	14	52	48	926	58.0	-196404.0	-2742.0	-4777.0
14	14	52	48	926	59.0	-196986.0	-2752.0	-4432.0
14	14	52	48	927	60.0	-197612.0	-2782.0	-4644.0
14	14	52	48	927	61.0	-198126.0	-2769.0	-4804.0
14	14	52	48	928	62.0	-198231.0	-2749.0	-4518.0
14	14	52	48	929	63.0	-198352.0	-2787.0	-4281.0
14	14	52	48	929	64.0	-199123.0	-2778.0	-4492.0
14	14	52	48	930	65.0	-199920.0	-2755.0	-4603.0
14	14	52	48	930	66.0	-200576.0	-2762.0	-4392.0
14	14	52	48	931	67.0	-201291.0	-2766.0	-4333.0
14	14	52	48	931	68.0	-202034.0	-2786.0	-4196.0
14	14	52	48	932	69.0	-202464.0	-2767.0	-4335.0
14	14	52	48	933	70.0	-202376.0	-2751.0	-4189.0
14	14	52	48	933	71.0	-202067.0	-2769.0	-4366.0
14	14	52	48	934	72.0	-201982.0	-2779.0	-3895.0
14	14	52	48	948	73.0	-202307.0	-2777.0	-3482.0
14	14	52	48	949	74.0	-202387.0	-2783.0	-3516.0
14	14	52	48	949	75.0	-202246.0	-2781.0	-3707.0
14	14	52	48	950	76.0	-202185.0	-2809.0	-3675.0
14	14	52	48	950	77.0	-201949.0	-2767.0	-3615.0
14	14	52	48	951	78.0	-201885.0	-2768.0	-3846.0
14	14	52	48	951	79.0	-202027.0	-2796.0	-3819.0
14	14	52	48	970	80.0	-202013.0	-2785.0	-3661.0
14	14	52	48	971	81.0	-202094.0	-2807.0	-3661.0
14	14	52	48	972	82.0	-202239.0	-2812.0	-3867.0
14	14	52	48	972	83.0	-202512.0	-2792.0	-3633.0
14	14	52	48	973	84.0	-203077.0	-2812.0	-3616.0
14	14	52	48	973	85.0	-203860.0	-2809.0	-3547.0
14	14	52	48	974	86.0	-204732.0	-2782.0	-3783.0
14	14	52	48	974	87.0	-205308.0	-2802.0	-4140.0
14	14	52	48	975	88.0	-205567.0	-2802.0	-3922.0
14	14	52	48	976	89.0	-205691.0	-2814.0	-4006.0
14	14	52	48	976	90.0	-205585.0	-2806.0	-3877.0
14	14	52	48	977	91.0	-205336.0	-2814.0	-3984.0
14	14	52	48	977	92.0	-205187.0	-2774.0	-4050.0
14	14	52	48	978	93.0	-205062.0	-2822.0	-4411.0
14	14	52	48	978	94.0	-205217.0	-2846.0	-4444.0
14	14	52	48	994	95.0	-204971.0	-2826.0	-4124.0
14	14	52	48	995	96.0	-204584.0	-2818.0	-4041.0
14	14	52	48	995	97.0	-204044.0	-2803.0	-4402.0
14	14	52	48	996	98.0	-203542.0	-2862.0	-4294.0
14	14	52	48	996	99.0	-203135.0	-2882.0	-4081.0
14	14	52	48	997	100.0	-202239.0	-2874.0	-3957.0
14	14	52	48	997	101.0	-201191.0	-2864.0	-3931.0
14	14	52	48	998	102.0	-199892.0	-2846.0	-4055.0
14	14	52	49	17	103.0	-198630.0	-2820.0	-3995.0
14	14	52	49	18	104.0	-197670.0	-2822.0	-4096.0
14	14	52	49	19	105.0	-196850.0	-2836.0	-3842.0
14	14	52	49	19	106.0	-195939.0	-2830.0	-4040.0
14	14	52	49	20	107.0	-194849.0	-2841.0	-3974.0
14	14	52	49	20	108.0	-193044.0	-2859.0	-3738.0
14	14	52	49	21	109.0	-190307.0	-2822.0	-3533.0
14	14	52	49	21	110.0	-186614.0	-2836.0	-3440.0
14	14	52	49	22	111.0	-181586.0	-2839.0	-3386.0
14	14	52	49	23	112.0	-175692.0	-2837.0	-2999.0
14	14	52	49	23	113.0	-168524.0	-2847.0	-2941.0
14	14	52	49	24	114.0	-165178.0	-2853.0	-3207.0
14	14	52	49	24	115.0	-168667.0	-2846.0	-2994.0
14	14	52	49	25	116.0	-168343.0	-2851.0	-2746.0
14	14	52	49	25	117.0	-177914.0	-2851.0	-2891.0
14	14	52	49	40	118.0	-186441.0	-2837.0	-3247.0
14	14	52	49	41	119.0	-194718.0	-2840.0	-3256.0
14	14	52	49	41	120.0	-205369.0	-2827.0	-3006.0
14	14	52	49	42	121.0	-216501.0	-2851.0	-2893.0
14	14	52	49	43	122.0	-223906.0	-2840.0	-2467.0
14	14	52	49	43	123.0	-226466.0	-2834.0	-2657.0
14	14	52	49	44	124.0	-226253.0	-2812.0	-3069.0
14	14	52	49	63	125.0	-223868.0	-2844.0	-2937.0
14	14	52	49	64	126.0	-218729.0	-2858.0	-3032.0
14	14	52	49	65	127.0	-214729.0	-2850.0	-3156.0
14	14	52	49	65	128.0	-212724.0	-2827.0	-3172.0
14	14	52	49	66	129.0	-208512.0	-2847.0	-3313.0
14	14	52	49	66	130.0	-203208.0	-2811.0	-3166.0
14	14	52	49	67	131.0	-200503.0	-2819.0	-2958.0
14	14	52	49	67	132.0	-200375.0	-2833.0	-3165.0
14	14	52	49	68	133.0	-202391.0	-2832.0	-3666.0
14	14	52	49	69	134.0	-204891.0	-2821.0	-3341.0
14	14	52	49	69	135.0	-207349.0	-2829.0	-3272.0
14	14	52	49	70	136.0	-210219.0	-2835.0	-3610.0
14	14	52	49	70	137.0	-212916.0	-2826.0	-3429.0
14	14	52	49	71	138.0	-214971.0	-2841.0	-3136.0
14	14	52	49	71	139.0	-216501.0	-2834.0	-3127.0
14	14	52	49	86	140.0	-217631.0	-2832.0	-3218.0
14	14	52	49	87	141.0	-218282.0	-2831.0	-3324.0
14	14	52	49	88	142.0	-219033.0	-2817.0	-3274.0
14	14	52	49	88	143.0	-219566.0	-2824.0	-3136.0
14	14	52	49	89	144.0	-219881.0	-2821.0	-3085.0
14	14	52	49	89	145.0	-220176.0	-2831.0	-2987.0
14	14	52	49	90	146.0	-220463.0	-2796.0	-3321.0
14	14	52	49	90	147.0	-220629.0	-2821.0	-3465.0
14	14	52	49	109	148.0	-220572.0	-2826.0	-3035.0
14	14	52	49	110	149.0	-220356.0	-2816.0	-2974.0
14	14	52	49	110	150.0	-220101.0	-2836.0	-3210.0
14	14	52	49	111	151.0	-219982.0	-2832.0	-3074.0
14	14	52	49	112	152.0	-220031.0	-2815.0	-2761.0
14	14	52	49	112	153.0	-220044.0	-2808.0	-2804.0
14	14	52	49	113	154.0	-219546.0	-2830.0	-2821.0
14	14	52	49	113	155.0	-218634.0	-2821.0	-2904.0
14	14	52	49	114	156.0	-217869.0	-2811.0	-3166.0
14	14	52	49	114	157.0	-216650.0	-2796.0	-3345.0
14	14	52	49	115	158.0	-215118.0	-2837.0	-3209.0
14	14	52	49	116	159.0	-213829.0	-2848.0	-2956.0
14	14	52	49	116	160.0	-212481.0	-2834.0	-3273.0
14	14	52	49	117	161.0	-210997.0	-2832.0	-3034.0
14	14	52	49	117	162.0	-209836.0	-2811.0	-3031.0
14	14	52	49	132	163.0	-209076.0	-2817.0	-3162.0
14	14	52	49	156	164.0	-208464.0	-2812.0	-3062.0
14	14	52	49	157	165.0	-207954.0	-2800.0	-2936.0
14	14	52	49	157	166.0	-207352.0	-2796.0	-3123.0
14	14	52	49	158	167.0	-206599.0	-2809.0	-3173.0
14	14	52	49	158	168.0	-205318.0	-2802.0	-3242.0
14	14	52	49	159	169.0	-203912.0	-2806.0	-3211.0
14	14	52	49	159	170.0	-203025.0	-2813.0	-3084.0
14	14	52	49	160	171.0	-202159.0	-2796.0	-2951.0
14	14	52	49	161	172.0	-201313.0	-2791.0	-3316.0
14	14	52	49	161	173.0	-200959.0	-2794.0	-3094.0
14	14	52	49	162	174.0	-200837.0	-2782.0	-2927.0
14	14	52	49	162	175.0	-200600.0	-2798.0	-2967.0
14	14	52	49	163	176.0	-200336.0	-2782.0	-3077.0
14	14	52	49	163	177.0	-200157.0	-2772.0	-3019.0
14	14	52	49	164	178.0	-200519.0	-2785.0	-3194.0
14	14	52	49	164	179.0	-201080.0	-2781.0	-3108.0
14	14	52	49	165	180.0	-201475.0	-2783.0	-2629.0
14	14	52	49	166	181.0	-201750.0	-2767.0	-2727.0
14	14	52	49	166	182.0	-201905.0	-2766.0	-3059.0
14	14	52	49	167	183.0	-201696.0	-2791.0	-2722.0
14	14	52	49	167	184.0	-201621.0	-2779.0	-2399.0
14	14	52	49	168	185.0	-201371.0	-2779.0	-2656.0
14	14	52	49	178	186.0	-200787.0	-2771.0	-2571.0
14	14	52	49	179	187.0	-200331.0	-2772.0	-2113.0
14	14	52	49	180	188.0	-200192.0	-2784.0	-1868.0
14	14	52	49	180	189.0	-199884.0	-2792.0	-2157.0
14	14	52	49	181	190.0	-199327.0	-2806.0	-1972.0
14	14	52	49	181	191.0	-199026.0	-2754.0	-1887.0
14	14	52	49	182	192.0	-198947.0	-2732.0	-2089.0
14	14	52	49	201	193.0	-198937.0	-2741.0	-2044.0
14	14	52	49	202	194.0	-199213.0	-2785.0	-2013.0
14	14	52	49	202	195.0	-199783.0	-2774.0	-2144.0
14	14	52	49	203	196.0	-200329.0	-2775.0	-2567.0
14	14	52	49	204	197.0	-200600.0	-2771.0	-2567.0
14	14	52	49	204	198.0	-201003.0	-2771.0	-2094.0
14	14	52	49	205	199.0	-201286.0	-2766.0	-2253.0
14	14	52	49	205	200.0	-201635.0	-2772.0	-2387.0
14	14	52	49	206	201.0	-201832.0	-2748.0	-2220.0
14	14	52	49	206	202.0	-202017.0	-2729.0	-2275.0
14	14	52	49	207	203.0	-202081.0	-2754.0	-2392.0
14	14	52	49	207	204.0	-201664.0	-2735.0	-2364.0
14	14	52	49	208	205.0	-201441.0	-2741.0	-2317.0
14	14	52	49	209	206.0	-201036.0	-2752.0	-2254.0
14	14	52	49	209	207.0	-200404.0	-2756.0	-2222.0
14	14	52	49	224	208.0	-200296.0	-2766.0	-2364.0
14	14	52	49	225	209.0	-200821.0	-2774.0	-2333.0
14	14	52	49	226	210.0	-201440.0	-2761.0	-2655.0
14	14	52	49	226	211.0	-201459.0	-2767.0	-2695.0
14	14	52	49	227	212.0	-201264.0	-2755.0	-2501.0
14	14	52	49	227	213.0	-201557.0	-2751.0	-2470.0
14	14	52	49	228	214.0	-201992.0	-2751.0	-2447.0
14	14	52	49	229	215.0	-202397.0	-2749.0	-2585.0
14	14	52	49	229	216.0	-202169.0	-2739.0	-2494.0
14	14	52	49	230	217.0	-201667.0	-2737.0	-2331.0
14	14	52	49	230	218.0	-201133.0	-2756.0	-2401.0
14	14	52	49	231	219.0	-201451.0	-2754.0	-2767.0
14	14	52	49	232	220.0	-202247.0	-2769.0	-2717.0
14	14	52	49	232	221.0	-202526.0	-2768.0	-2614.0
14	14	52	49	233	222.0	-202684.0	-2771.0	-2855.0
14	14	52	49	247	223.0	-202469.0	-2772.0	-2878.0
14	14	52	49	247	224.0	-202239.0	-2757.0	-2734.0
14	14	52	49	248	225.0	-202164.0	-2756.0	-2582.0
14	14	52	49	249	226.0	-202526.0	-2744.0	-2766.0
14	14	52	49	249	227.0	-203149.0	-2727.0	-2306.0
14	14	52	49	250	228.0	-203491.0	-2731.0	-2626.0
14	14	52	49	250	229.0	-203794.0	-2712.0	-2582.0
14	14	52	49	270	230.0	-204111.0	-2729.0	-2547.0
14	14	52	49	270	231.0	-204101.0	-2741.0	-2744.0
14	14	52	49	271	232.0	-203912.0	-2740.0	-2956.0
14	14	52	49	272	233.0	-203706.0	-2745.0	-2662.0
14	14	52	49	272	234.0	-203207.0	-2731.0	-2205.0
14	14	52	49	273	235.0	-202790.0	-2726.0	-2269.0
14	14	52	49	273	236.0	-202191.0	-2724.0	-2482.0
14	14	52	49	274	237.0	-201100.0	-2723.0	-1955.0
14	14	52	49	275	238.0	-200375.0	-2729.0	-1857.0
14	14	52	49	275	239.0	-199925.0	-2735.0	-2183.0
14	14	52	49	276	240.0	-199733.0	-2750.0	-2143.0
14	14	52	49	276	241.0	-199610.0	-2735.0	-1967.0
14	14	52	49	277	242.0	-199578.0	-2722.0	-2232.0
14	14	52	49	278	243.0	-200008.0	-2715.0	-1967.0
14	14	52	49	278	244.0	-200629.0	-2726.0	-1709.0
14	14	52	49	293	245.0	-201293.0	-2721.0	-1738.0
14	14	52	49	294	246.0	-202056.0	-2733.0	-1989.0
14	14	52	49	294	247.0	-202823.0	-2747.0	-2216.0
14	14	52	49	295	248.0	-203392.0	-2731.0	-2129.0
14	14	52	49	296	249.0	-203706.0	-2744.0	-1641.0
14	14	52	49	296	250.0	-203872.0	-2734.0	-1529.0
14	14	52	49	297	251.0	-203911.0	-2721.0	-1937.0
14	14	52	49	317	252.0	-203601.0	-2696.0	-1924.0
14	14	52	49	317	253.0	-202837.0	-2721.0	-1753.0
14	14	52	49	318	254.0	-201688.0	-2736.0	-1987.0
14	14	52	49	318	255.0	-200638.0	-2718.0	-2181.0
14	14	52	49	319	0.0	-199634.0	-2706.0	-1859.0
14	14	52	49	320	1.0	-198247.0	-2709.0	-1972.0
14	14	52	49	320	2.0	-196701.0	-2705.0	-2145.0
14	14	52	49	321	3.0	-195041.0	-2704.0	-2087.0
14	14	52	49	322	4.0	-193441.0	-2720.0	-1794.0
14	14	52	49	322	5.0	-191729.0	-2724.0	-1719.0
14	14	52	49	323	6.0	-190062.0	-2709.0	-1774.0
14	14	52	49	323	7.0	-188827.0	-2712.0	-1771.0
14	14	52	49	324	8.0	-187495.0	-2709.0	-1682.0
14	14	52	49	324	9.0	-186330.0	-2721.0	-1644.0
14	14	52	49	325	10.0	-185343.0	-2722.0	-1651.0
14	14	52	49	343	11.0	-184446.0	-2741.0	-1765.0
14	14	52	49	344	12.0	-183762.0	-2717.0	-1697.0
14	14	52	49	344	13.0	-183394.0	-2715.0	-1436.0
14	14	52	49	345	14.0	-183441.0	-2724.0	-1155.0
14	14	52	49	345	15.0	-183709.0	-2724.0	-1511.0
14	14	52	49	346	16.0	-184129.0	-2722.0	-2102.0
14	14	52	49	346	17.0	-184646.0	-2704.0	-1597.0
14	14	52	49	347	18.0	-185184.0	-2712.0	-1604.0
14	14	52	49	366	19.0	-185719.0	-2697.0	-1734.0
14	14	52	49	367	20.0	-186349.0	-2715.0	-1532.0
14	14	52	49	367	21.0	-186884.0	-2710.0	-1568.0
14	14	52	49	368	22.0	-187491.0	-2693.0	-1667.0
14	14	52	49	368	23.0	-188677.0	-2723.0	-1596.0
14	14	52	49	369	24.0	-190005.0	-2712.0	-1426.0
14	14	52	49	369	25.0	-191542.0	-2709.0	-1708.0
14	14	52	49	370	26.0	-193277.0	-2708.0	-1924.0
14	14	52	49	371	27.0	-195481.0	-2705.0	-1600.0
14	14	52	49	371	28.0	-197614.0	-2724.0	-1667.0
14	14	52	49	372	29.0	-199858.0	-2731.0	-2507.0
14	14	52	49	372	30.0	-202179.0	-2726.0	-3147.0
14	14	52	49	373	31.0	-204474.0	-2711.0	-3676.0
14	14	52	49	373	32.0	-206419.0	-2711.0	-4396.0
14	14	52	49	374	33.0	-208038.0	-2723.0	-5486.0
14	14	52	49	388	34.0	-209862.0	-2731.0	-6800.0
14	14	52	49	389	35.0	-210886.0	-2722.0	-8142.0
14	14	52	49	390	36.0	-211085.0	-2697.0	-8746.0
14	14	52	49	390	37.0	-210769.0	-2709.0	-7512.0
14	14	52	49	391	38.0	-210108.0	-2724.0	-6159.0
14	14	52	49	392	39.0	-208895.0	-2724.0	-5074.0
14	14	52	49	392	40.0	-207544.0	-2726.0	-1058.0
14	14	52	49	412	41.0	-206125.0	-2722.0	4908.0
14	14	52	49	412	42.0	-204904.0	-2717.0	10388.0
14	14	52	49	413	43.0	-203754.0	-2727.0	15046.0
14	14	52	49	414	44.0	-202871.0	-2706.0	17685.0
14	14	52	49	414	45.0	-202762.0	-2702.0	19861.0
14	14	52	49	415	46.0	-202812.0	-2686.0	21340.0
14	14	52	49	415	47.0	-203220.0	-2689.0	22160.0
14	14	52	49	416	48.0	-204285.0	-2709.0	23296.0
14	14	52	49	417	49.0	-205641.0	-2701.0	23650.0
14	14	52	49	417	50.0	-207609.0	-2701.0	22076.0
14	14	52	49	418	51.0	-209694.0	-2702.0	19173.0
14	14	52	49	418	52.0	-211655.0	-2700.0	17130.0
14	14	52	49	419	53.0	-214166.0	-2692.0	16461.0
14	14	52	49	419	54.0	-217383.0	-2722.0	15761.0
14	14	52	49	420	55.0	-220862.0	-2719.0	14416.0
14	14	52	49	434	56.0	-224227.0	-2689.0	12840.0
14	14	52	49	435	57.0	-226742.0	-2680.0	11282.0
14	14	52	49	436	58.0	-229215.0	-2687.0	10416.0
14	14	52	49	436	59.0	-232702.0	-2656.0	9053.0
14	14	52	49	437	60.0	-235293.0	-2672.0	7651.0
14	14	52	49	437	61.0	-230796.0	-2691.0	6203.0
14	14	52	49	438	62.0	-221266.0	-2677.0	4880.0
14	14	52	49	439	63.0	-212395.0	-2644.0	3796.0
14	14	52	49	439	64.0	-204855.0	-2656.0	2243.0
14	14	52	49	440	65.0	-198679.0	-2657.0	841.0
14	14	52	49	441	66.0	-195771.0	-2643.0	98.0
14	14	52	49	441	67.0	-195672.0	-2647.0	-258.0
14	14	52	49	442	68.0	-195534.0	-2626.0	-621.0
14	14	52	49	442	69.0	-196797.0	-2647.0	-1345.0
14	14	52	49	443	70.0	-201812.0	-2648.0	-1810.0
14	14	52	49	458	71.0	-207959.0	-2665.0	-2021.0
14	14	52	49	459	72.0	-213258.0	-2667.0	-2201.0
14	14	52	49	460	73.0	-218202.0	-2642.0	-2828.0
14	14	52	49	460	74.0	-222961.0	-2679.0	-3132.0
14	14	52	49	461	75.0	-224527.0	-2684.0	-3450.0
14	14	52	49	461	76.0	-221434.0	-2702.0	-3324.0
14	14	52	49	462	77.0	-215629.0	-2684.0	-3141.0
14	14	52	49	462	78.0	-208326.0	-2649.0	-3486.0
14	14	52	49	481	79.0	-200387.0	-2637.0	-3653.0
14	14	52	49	481	80.0	-192881.0	-2644.0	-3532.0
14	14	52	49	482	81.0	-187061.0	-2647.0	-3419.0
14	14	52	49	483	82.0	-182709.0	-2656.0	-3131.0
14	14	52	49	483	83.0	-179042.0	-2651.0	-3597.0
14	14	52	49	484	84.0	-176978.0	-2640.0	-3866.0
14	14	52	49	485	85.0	-177389.0	-2647.0	-3637.0
14	14	52	49	485	86.0	-179788.0	-2637.0	-3684.0
14	14	52	49	486	87.0	-182787.0	-2642.0	-3706.0
14	14	52	49	486	88.0	-185238.0	-2646.0	-4109.0
14	14	52	49	487	89.0	-187325.0	-2640.0	-4294.0
14	14	52	49	488	90.0	-189379.0	-2657.0	-4219.0
14	14	52	49	488	91.0	-191321.0	-2660.0	-4446.0
14	14	52	49	489	92.0	-192670.0	-2666.0	-4305.0
14	14	52	49	489	93.0	-193438.0	-2627.0	-4081.0
14	14	52	49	504	94.0	-193884.0	-2651.0	-4274.0
14	14	52	49	504	95.0	-194079.0	-2649.0	-4275.0
14	14	52	49	505	96.0	-193607.0	-2634.0	-4315.0
14	14	52	49	506	97.0	-191999.0	-2659.0	-4384.0
14	14	52	49	506	98.0	-189839.0	-2609.0	-4439.0
14	14	52	49	507	99.0	-187143.0	-2634.0	-4336.0
14	14	52	49	507	100.0	-183189.0	-2649.0	-4291.0
14	14	52	49	527	101.0	-178355.0	-2651.0	-5077.0
14	14	52	49	528	102.0	-170872.0	-2635.0	-5203.0
14	14	52	49	528	103.0	-162586.0	-2648.0	-4620.0
14	14	52	49	529	104.0	-166714.0	-2654.0	-4282.0
14	14	52	49	530	105.0	-159661.0	-2670.0	-4458.0
14	14	52	49	530	106.0	-160471.0	-2628.0	-4801.0
14	14	52	49	531	107.0	-160619.0	-2624.0	-4788.0
14	14	52	49	531	108.0	-164197.0	-2626.0	-4867.0
14	14	52	49	532	109.0	-170888.0	-2653.0	-4885.0
14	14	52	49	533	110.0	-176489.0	-2647.0	-4699.0
14	14	52	49	533	111.0	-181649.0	-2632.0	-4788.0
14	14	52	49	534	112.0	-186158.0	-2619.0	-4970.0
14	14	52	49	534	113.0	-190525.0	-2589.0	-4746.0
14	14	52	49	535	114.0	-194879.0	-2592.0	-4702.0
14	14	52	49	536	115.0	-198258.0	-2614.0	-5287.0
14	14	52	49	549	116.0	-200968.0	-2615.0	-5336.0
14	14	52	49	550	117.0	-203015.0	-2616.0	-5194.0
14	14	52	49	550	118.0	-204727.0	-2615.0	-5246.0
14	14	52	49	551	119.0	-206046.0	-2639.0	-5484.0
14	14	52	49	552	120.0	-206701.0	-2616.0	-5445.0
14	14	52	49	552	121.0	-207165.0	-2609.0	-5598.0
14	14	52	49	553	122.0	-207624.0	-2610.0	-5739.0
14	14	52	49	553	123.0	-208271.0	-2597.0	-5846.0
14	14	52	49	574	124.0	-209130.0	-2614.0	-5967.0
14	14	52	49	575	125.0	-210104.0	-2612.0	-5792.0
14	14	52	49	575	126.0	-211111.0	-2602.0	-5994.0
14	14	52	49	576	127.0	-211876.0	-2587.0	-6085.0
14	14	52	49	576	128.0	-212608.0	-2596.0	-5944.0
14	14	52	49	577	129.0	-212979.0	-2614.0	-6151.0
14	14	52	49	578	130.0	-212951.0	-2589.0	-6407.0
14	14	52	49	578	131.0	-212487.0	-2592.0	-6529.0
14	14	52	49	579	132.0	-211450.0	-2582.0	-6109.0
14	14	52	49	579	133.0	-209570.0	-2599.0	-6514.0
14	14	52	49	598	134.0	-207447.0	-2603.0	-6396.0
14	14	52	49	599	135.0	-205519.0	-2593.0	-6257.0
14	14	52	49	599	136.0	-203752.0	-2584.0	-6074.0
14	14	52	49	600	137.0	-202251.0	-2582.0	-6322.0
14	14	52	49	601	138.0	-200724.0	-2596.0	-6538.0
14	14	52	49	601	139.0	-199187.0	-2569.0	-6212.0
14	14	52	49	602	140.0	-197462.0	-2567.0	-6541.0
14	14	52	49	602	141.0	-195830.0	-2568.0	-7152.0
14	14	52	49	603	142.0	-194656.0	-2579.0	-7354.0
14	14	52	49	604	143.0	-193089.0	-2586.0	-7119.0
14	14	52	49	604	144.0	-191567.0	-2584.0	-7097.0
14	14	52	49	612	145.0	-189851.0	-2587.0	-7180.0
14	14	52	49	615	146.0	-188351.0	-2588.0	-6931.0
14	14	52	49	617	147.0	-187277.0	-2570.0	-6951.0
14	14	52	49	617	148.0	-186637.0	-2568.0	-7109.0
14	14	52	49	618	149.0	-186652.0	-2569.0	-7022.0
14	14	52	49	619	150.0	-186868.0	-2596.0	-7276.0
14	14	52	49	619	151.0	-187161.0	-2581.0	-7546.0
14	14	52	49	620	152.0	-187975.0	-2579.0	-7309.0
14	14	52	49	620	153.0	-189064.0	-2589.0	-6791.0
14	14	52	49	621	154.0	-189823.0	-2587.0	-6852.0
14	14	52	49	621	155.0	-190461.0	-2582.0	-6875.0
14	14	52	49	622	156.0	-191481.0	-2597.0	-6680.0
14	14	52	49	623	157.0	-192328.0	-2594.0	-6823.0
14	14	52	49	623	158.0	-193003.0	-2592.0	-7038.0
14	14	52	49	624	159.0	-194111.0	-2596.0	-7096.0
14	14	52	49	624	160.0	-194887.0	-2596.0	-7035.0
14	14	52	49	635	161.0	-195387.0	-2615.0	-6905.0
14	14	52	49	635	162.0	-196139.0	-2609.0	-6836.0
14	14	52	49	636	163.0	-196981.0	-2639.0	-6637.0
14	14	52	49	637	164.0	-198107.0	-2626.0	-6391.0
14	14	52	49	637	165.0	-199669.0	-2607.0	-6574.0
14	14	52	49	638	166.0	-201078.0	-2600.0	-6574.0
14	14	52	49	638	167.0	-202572.0	-2616.0	-6596.0
14	14	52	49	639	168.0	-204167.0	-2632.0	-6619.0
14	14	52	49	657	169.0	-205708.0	-2628.0	-6612.0
14	14	52	49	657	170.0	-207083.0	-2623.0	-6519.0
14	14	52	49	658	171.0	-208124.0	-2636.0	-6717.0
14	14	52	49	658	172.0	-208581.0	-2629.0	-6413.0
14	14	52	49	659	173.0	-208744.0	-2626.0	-6431.0
14	14	52	49	659	174.0	-208626.0	-2646.0	-6401.0
14	14	52	49	660	175.0	-208237.0	-2626.0	-6403.0
14	14	52	49	680	176.0	-207694.0	-2639.0	-6279.0
14	14	52	49	681	177.0	-207063.0	-2647.0	-6116.0
14	14	52	49	681	178.0	-206394.0	-2637.0	-6103.0
14	14	52	49	682	179.0	-205534.0	-2629.0	-6314.0
14	14	52	49	683	180.0	-204629.0	-2646.0	-6692.0
14	14	52	49	683	181.0	-204237.0	-2640.0	-6746.0
14	14	52	49	684	182.0	-203839.0	-2652.0	-6596.0
14	14	52	49	684	183.0	-203427.0	-2685.0	-6669.0
14	14	52	49	685	184.0	-203089.0	-2701.0	-6494.0
14	14	52	49	685	185.0	-202866.0	-2672.0	-6098.0
14	14	52	49	686	186.0	-202279.0	-2654.0	-6044.0
14	14	52	49	686	187.0	-201494.0	-2676.0	-6399.0
14	14	52	49	687	188.0	-200651.0	-2667.0	-6350.0
14	14	52	49	687	189.0	-199767.0	-2665.0	-6327.0
14	14	52	49	688	190.0	-198704.0	-2690.0	-6412.0
14	14	52	49	703	191.0	-197630.0	-2677.0	-6844.0
14	14	52	49	704	192.0	-196864.0	-2674.0	-6583.0
14	14	52	49	704	193.0	-196371.0	-2686.0	-6347.0
14	14	52	49	705	194.0	-195930.0	-2700.0	-6375.0
14	14	52	49	705	195.0	-195776.0	-2701.0	-6634.0
14	14	52	49	706	196.0	-195662.0	-2692.0	-6551.0
14	14	52	49	706	197.0	-195906.0	-2685.0	-6838.0
14	14	52	49	707	198.0	-196477.0	-2676.0	-6337.0
14	14	52	49	726	199.0	-196914.0	-2664.0	-6090.0
14	14	52	49	726	200.0	-197442.0	-2679.0	-6061.0
14	14	52	49	727	201.0	-198040.0	-2724.0	-5991.0
14	14	52	49	728	202.0	-198650.0	-2717.0	-5767.0
14	14	52	49	728	203.0	-199269.0	-2711.0	-5550.0
14	14	52	49	729	204.0	-199426.0	-2698.0	-5843.0
14	14	52	49	729	205.0	-198957.0	-2697.0	-5773.0
14	14	52	49	730	206.0	-198729.0	-2701.0	-5387.0
14	14	52	49	730	207.0	-198542.0	-2686.0	-5265.0
14	14	52	49	731	208.0	-198006.0	-2697.0	-5298.0
14	14	52	49	731	209.0	-196444.0	-2722.0	-4972.0
14	14	52	49	732	210.0	-193757.0	-2727.0	-4829.0
14	14	52	49	732	211.0	-190021.0	-2719.0	-4899.0
14	14	52	49	733	212.0	-185767.0	-2703.0	-4911.0
14	14	52	49	748	213.0	-179736.0	-2716.0	-4826.0
14	14	52	49	749	214.0	-171038.0	-2712.0	-4630.0
14	14	52	49	750	215.0	-170602.0	-2710.0	-4424.0
14	14	52	49	750	216.0	-173224.0	-2719.0	-4670.0
14	14	52	49	751	217.0	-171592.0	-2708.0	-4678.0
14	14	52	49	751	218.0	-180126.0	-2706.0	-4373.0
14	14	52	49	752	219.0	-184444.0	-2705.0	-4513.0
14	14	52	49	752	220.0	-188637.0	-2701.0	-4772.0
14	14	52	49	753	221.0	-196774.0	-2716.0	-4355.0
14	14	52	49	754	222.0	-206200.0	-2710.0	-3954.0
14	14	52	49	754	223.0	-214366.0	-2714.0	-4174.0
14	14	52	49	755	224.0	-219371.0	-2697.0	-4254.0
14	14	52	49	755	225.0	-221387.0	-2696.0	-4011.0
14	14	52	49	756	226.0	-222804.0	-2712.0	-4118.0
14	14	52	49	756	227.0	-223026.0	-2692.0	-4284.0
14	14	52	49	774	228.0	-222037.0	-2683.0	-4172.0
14	14	52	49	774	229.0	-219001.0	-2707.0	-4107.0
14	14	52	49	775	230.0	-215631.0	-2724.0	-4555.0
14	14	52	49	776	231.0	-212911.0	-2734.0	-4366.0
14	14	52	49	776	232.0	-209756.0	-2727.0	-4281.0
14	14	52	49	777	233.0	-207244.0	-2692.0	-4177.0
14	14	52	49	777	234.0	-205754.0	-2704.0	-4072.0
14	14	52	49	778	235.0	-204428.0	-2719.0	-3872.0
14	14	52	49	797	236.0	-203911.0	-2704.0	-4029.0
14	14	52	49	798	237.0	-204573.0	-2712.0	-4265.0
14	14	52	49	799	238.0	-204850.0	-2712.0	-4281.0
14	14	52	49	799	239.0	-204809.0	-2715.0	-4310.0
14	14	52	49	800	240.0	-204779.0	-2706.0	-4334.0
14	14	52	49	800	241.0	-204889.0	-2734.0	-4263.0
14	14	52	49	801	242.0	-205582.0	-2724.0	-3838.0
14	14	52	49	801	243.0	-206581.0	-2727.0	-3801.0
14	14	52	49	802	244.0	-207198.0	-2733.0	-3868.0
14	14	52	49	802	245.0	-208067.0	-2729.0	-3847.0
14	14	52	49	803	246.0	-208769.0	-2727.0	-3710.0
14	14	52	49	804	247.0	-209209.0	-2714.0	-3682.0
14	14	52	49	804	248.0	-209650.0	-2717.0	-3712.0
14	14	52	49	805	249.0	-210149.0	-2712.0	-3924.0
14	14	52	49	806	250.0	-210432.0	-2719.0	-4036.0
14	14	52	49	820	251.0	-210824.0	-2724.0	-3948.0
14	14	52	49	821	252.0	-211339.0	-2727.0	-3611.0
14	14	52	49	821	253.0	-211301.0	-2725.0	-3907.0
14	14	52	49	822	254.0	-211079.0	-2724.0	-3949.0
14	14	52	49	822	255.0	-210949.0	-2738.0	-3807.0
14	14	52	49	823	0.0	-210909.0	-2731.0	-3942.0
14	14	52	49	824	1.0	-211379.0	-2719.0	-3900.0
14	14	52	49	843	2.0	-211922.0	-2707.0	-3742.0
14	14	52	49	844	3.0	-212277.0	-2685.0	-3846.0
14	14	52	49	845	4.0	-212510.0	-2676.0	-3882.0
14	14	52	49	845	5.0	-213453.0	-2710.0	-4000.0
14	14	52	49	846	6.0	-214934.0	-2725.0	-3777.0
14	14	52	49	846	7.0	-216047.0	-2730.0	-3630.0
14	14	52	49	847	8.0	-216400.0	-2726.0	-3253.0
14	14	52	49	848	9.0	-216252.0	-2719.0	-3536.0
14	14	52	49	848	10.0	-216095.0	-2706.0	-3611.0
14	14	52	49	849	11.0	-216161.0	-2705.0	-3566.0
14	14	52	49	849	12.0	-216136.0	-2738.0	-3390.0
14	14	52	49	850	13.0	-215614.0	-2750.0	-3406.0
14	14	52	49	850	14.0	-215129.0	-2731.0	-3567.0
14	14	52	49	851	15.0	-214387.0	-2746.0	-3371.0
14	14	52	49	852	16.0	-212927.0	-2740.0	-3454.0
14	14	52	49	867	17.0	-211467.0	-2749.0	-3649.0
14	14	52	49	868	18.0	-210644.0	-2743.0	-3144.0
14	14	52	49	868	19.0	-210387.0	-2749.0	-2763.0
14	14	52	49	869	20.0	-210036.0	-2744.0	-3026.0
14	14	52	49	869	21.0	-209715.0	-2724.0	-3036.0
14	14	52	49	870	22.0	-209941.0	-2714.0	-2644.0
14	14	52	49	870	23.0	-210543.0	-2718.0	-2686.0
14	14	52	49	871	24.0	-210910.0	-2716.0	-2802.0
14	14	52	49	890	25.0	-211004.0	-2714.0	-2906.0
14	14	52	49	891	26.0	-211257.0	-2739.0	-2629.0
14	14	52	49	891	27.0	-211949.0	-2737.0	-2824.0
14	14	52	49	892	28.0	-213061.0	-2722.0	-2777.0
14	14	52	49	892	29.0	-213944.0	-2732.0	-2799.0
14	14	52	49	893	30.0	-214086.0	-2719.0	-2968.0
14	14	52	49	894	31.0	-213824.0	-2724.0	-2726.0
14	14	52	49	894	32.0	-213479.0	-2731.0	-2544.0
14	14	52	49	895	33.0	-212822.0	-2725.0	-2576.0
14	14	52	49	895	34.0	-212039.0	-2717.0	-2614.0
14	14	52	49	896	35.0	-211129.0	-2739.0	-2356.0
14	14	52	49	896	36.0	-209812.0	-2731.0	-2133.0
14	14	52	49	897	37.0	-208225.0	-2726.0	-2269.0
14	14	52	49	897	38.0	-206264.0	-2720.0	-2469.0
14	14	52	49	898	39.0	-204409.0	-2712.0	-2626.0
14	14	52	49	913	40.0	-202961.0	-2709.0	-2779.0
14	14	52	49	913	41.0	-201818.0	-2721.0	-2924.0
14	14	52	49	914	42.0	-201014.0	-2729.0	-2672.0
14	14	52	49	915	43.0	-200514.0	-2718.0	-2557.0
14	14	52	49	915	44.0	-200721.0	-2690.0	-2639.0
14	14	52	49	916	45.0	-201203.0	-2712.0	-2834.0
14	14	52	49	916	46.0	-201801.0	-2734.0	-2653.0
14	14	52	49	938	47.0	-202244.0	-2727.0	-2482.0
14	14	52	49	938	48.0	-203215.0	-2705.0	-2332.0
14	14	52	49	939	49.0	-204143.0	-2691.0	-2341.0
14	14	52	49	939	50.0	-204705.0	-2707.0	-2526.0
14	14	52	49	940	51.0	-204899.0	-2693.0	-2586.0
14	14	52	49	940	52.0	-204857.0	-2695.0	-2625.0
14	14	52	49	941	53.0	-204581.0	-2712.0	-2829.0
14	14	52	49	942	54.0	-204328.0	-2707.0	-2979.0
14	14	52	49	942	55.0	-204310.0	-2722.0	-2805.0
14	14	52	49	943	56.0	-204634.0	-2729.0	-2899.0
14	14	52	49	943	57.0	-204987.0	-2729.0	-2749.0
14	14	52	49	944	58.0	-205569.0	-2742.0	-2317.0
14	14	52	49	944	59.0	-206674.0	-2712.0	-2006.0
14	14	52	49	945	60.0	-207983.0	-2703.0	-2151.0
14	14	52	49	945	61.0	-209761.0	-2731.0	-1942.0
14	14	52	49	961	62.0	-212031.0	-2737.0	-2097.0
14	14	52	49	961	63.0	-213786.0	-2731.0	-2581.0
14	14	52	49	962	64.0	-214999.0	-2713.0	-2983.0
14	14	52	49	963	65.0	-215819.0	-2716.0	-2716.0
14	14	52	49	963	66.0	-216567.0	-2723.0	-2424.0
14	14	52	49	964	67.0	-217882.0	-2724.0	-2479.0
14	14	52	49	964	68.0	-219019.0	-2721.0	-2249.0
14	14	52	49	965	69.0	-219464.0	-2721.0	-2147.0
14	14	52	49	966	70.0	-219259.0	-2708.0	-2509.0
14	14	52	49	966	71.0	-218254.0	-2707.0	-2401.0
14	14	52	49	967	72.0	-216843.0	-2707.0	-1893.0
14	14	52	49	968	73.0	-215538.0	-2709.0	-2030.0
14	14	52	49	968	74.0	-214036.0	-2713.0	-2614.0
14	14	52	49	969	75.0	-211842.0	-2733.0	-2651.0
14	14	52	49	969	76.0	-209809.0	-2721.0	-2544.0
14	14	52	49	984	77.0	-207994.0	-2711.0	-2317.0
14	14	52	49	984	78.0	-206280.0	-2713.0	-2271.0
14	14	52	49	985	79.0	-204980.0	-2719.0	-2536.0
14	14	52	49	985	80.0	-203684.0	-2721.0	-2707.0
14	14	52	49	986	81.0	-202395.0	-2710.0	-2556.0
14	14	52	49	986	82.0	-201341.0	-2703.0	-2375.0
14	14	52	49	987	83.0	-200089.0	-2694.0	-2478.0
14	14	52	49	988	84.0	-198638.0	-2702.0	-2379.0
14	14	52	50	7	85.0	-197627.0	-2710.0	-2881.0
14	14	52	50	7	86.0	-196567.0	-2733.0	-3381.0
14	14	52	50	8	87.0	-195558.0	-2722.0	-3318.0
14	14	52	50	9	88.0	-194989.0	-2699.0	-3448.0
14	14	52	50	9	89.0	-194035.0	-2689.0	-3853.0
14	14	52	50	10	90.0	-192733.0	-2699.0	-3927.0
14	14	52	50	11	91.0	-191387.0	-2689.0	-3914.0
14	14	52	50	11	92.0	-190394.0	-2680.0	-3528.0
14	14	52	50	12	93.0	-189746.0	-2686.0	-3153.0
14	14	52	50	12	94.0	-188711.0	-2676.0	-3324.0
14	14	52	50	13	95.0	-187917.0	-2682.0	-3596.0
14	14	52	50	14	96.0	-187407.0	-2687.0	-3869.0
14	14	52	50	14	97.0	-186856.0	-2684.0	-3662.0
14	14	52	50	15	98.0	-186340.0	-2683.0	-3624.0
14	14	52	50	15	99.0	-186312.0	-2703.0	-3526.0
14	14	52	50	30	100.0	-187013.0	-2689.0	-3412.0
14	14	52	50	30	101.0	-188000.0	-2678.0	-3185.0
14	14	52	50	31	102.0	-189269.0	-2681.0	-3320.0
14	14	52	50	31	103.0	-190586.0	-2671.0	-3430.0
14	14	52	50	32	104.0	-191861.0	-2679.0	-3216.0
14	14	52	50	32	105.0	-193057.0	-2691.0	-3093.0
14	14	52	50	33	106.0	-194062.0	-2688.0	-3084.0
14	14	52	50	54	107.0	-195220.0	-2702.0	-2884.0
14	14	52	50	55	108.0	-196713.0	-2702.0	-2347.0
14	14	52	50	55	109.0	-197937.0	-2669.0	-2607.0
14	14	52	50	56	110.0	-198692.0	-2659.0	-2555.0
14	14	52	50	56	111.0	-199511.0	-2657.0	-2385.0
14	14	52	50	57	112.0	-199879.0	-2664.0	-2182.0
14	14	52	50	58	113.0	-200142.0	-2664.0	-2744.0
14	14	52	50	58	114.0	-200802.0	-2656.0	-2489.0
14	14	52	50	59	115.0	-201429.0	-2676.0	-2094.0
14	14	52	50	59	116.0	-201876.0	-2678.0	-2242.0
14	14	52	50	60	117.0	-202576.0	-2679.0	-2147.0
14	14	52	50	60	118.0	-203545.0	-2676.0	-2204.0
14	14	52	50	61	119.0	-204615.0	-2661.0	-2424.0
14	14	52	50	62	120.0	-205800.0	-2658.0	-2519.0
14	14	52	50	62	121.0	-206446.0	-2662.0	-2456.0
14	14	52	50	78	122.0	-206921.0	-2662.0	-2464.0
14	14	52	50	78	123.0	-207331.0	-2676.0	-2659.0
14	14	52	50	79	124.0	-207051.0	-2669.0	-2850.0
14	14	52	50	79	125.0	-206281.0	-2656.0	-3212.0
14	14	52	50	80	126.0	-205226.0	-2675.0	-2855.0
14	14	52	50	81	127.0	-203797.0	-2674.0	-2566.0
14	14	52	50	81	128.0	-202439.0	-2664.0	-2604.0
14	14	52	50	82	129.0	-201097.0	-2656.0	-2819.0
14	14	52	50	100	130.0	-199879.0	-2649.0	-2557.0
14	14	52	50	101	131.0	-198495.0	-2639.0	-2556.0
14	14	52	50	102	132.0	-197049.0	-2635.0	-2671.0
14	14	52	50	102	133.0	-195670.0	-2621.0	-2624.0
14	14	52	50	103	134.0	-194331.0	-2661.0	-2630.0
14	14	52	50	104	135.0	-193146.0	-2662.0	-2675.0
14	14	52	50	104	136.0	-191975.0	-2678.0	-2493.0
14	14	52	50	105	137.0	-190897.0	-2672.0	-2217.0
14	14	52	50	105	138.0	-190673.0	-2646.0	-1937.0
14	14	52	50	106	139.0	-191027.0	-2637.0	-2294.0
14	14	52	50	106	140.0	-191802.0	-2628.0	-2141.0
14	14	52	50	107	141.0	-192606.0	-2631.0	-2032.0
14	14	52	50	108	142.0	-193235.0	-2636.0	-2662.0
14	14	52	50	108	143.0	-193886.0	-2639.0	-2511.0
14	14	52	50	109	144.0	-194805.0	-2631.0	-2734.0
14	14	52	50	124	145.0	-196023.0	-2646.0	-2787.0
14	14	52	50	125	146.0	-197219.0	-2642.0	-2975.0
14	14	52	50	125	147.0	-198471.0	-2656.0	-2311.0
14	14	52	50	126	148.0	-199886.0	-2656.0	-2319.0
14	14	52	50	126	149.0	-201501.0	-2629.0	-2722.0
14	14	52	50	127	150.0	-202904.0	-2639.0	-2891.0
14	14	52	50	128	151.0	-203927.0	-2621.0	-2698.0
14	14	52	50	129	152.0	-204938.0	-2617.0	-3014.0
14	14	52	50	129	153.0	-205956.0	-2606.0	-4205.0
14	14	52	50	130	154.0	-206986.0	-2632.0	-4986.0
14	14	52	50	131	155.0	-207605.0	-2657.0	-5975.0
14	14	52	50	131	156.0	-208104.0	-2627.0	-7052.0
14	14	52	50	132	157.0	-208406.0	-2612.0	-8008.0
14	14	52	50	132	158.0	-208427.0	-2626.0	-9063.0
14	14	52	50	133	159.0	-207971.0	-2627.0	-9334.0
14	14	52	50	147	160.0	-207091.0	-2619.0	-8293.0
14	14	52	50	147	161.0	-206015.0	-2627.0	-7012.0
14	14	52	50	148	162.0	-204719.0	-2612.0	-5098.0
14	14	52	50	149	163.0	-203252.0	-2615.0	-451.0
14	14	52	50	149	164.0	-202139.0	-2614.0	5663.0
14	14	52	50	150	165.0	-200766.0	-2614.0	11237.0
14	14	52	50	150	166.0	-199477.0	-2650.0	15151.0
14	14	52	50	171	167.0	-198624.0	-2639.0	17383.0
14	14	52	50	171	168.0	-198029.0	-2623.0	19353.0
14	14	52	50	172	169.0	-197577.0	-2611.0	21138.0
14	14	52	50	172	170.0	-197511.0	-2602.0	21955.0
14	14	52	50	173	171.0	-197959.0	-2605.0	23021.0
14	14	52	50	175	172.0	-198981.0	-2602.0	22533.0
14	14	52	50	175	173.0	-200605.0	-2589.0	20452.0
14	14	52	50	176	174.0	-202769.0	-2600.0	17736.0
14	14	52	50	177	175.0	-205225.0	-2604.0	15743.0
14	14	52	50	177	176.0	-207881.0	-2597.0	15326.0
14	14	52	50	178	177.0	-210874.0	-2616.0	14841.0
14	14	52	50	178	178.0	-213588.0	-2613.0	13145.0
14	14	52	50	179	179.0	-216341.0	-2617.0	11586.0
14	14	52	50	180	180.0	-219463.0	-2619.0	10325.0
14	14	52	50	180	181.0	-222341.0	-2604.0	8971.0
14	14	52	50	194	182.0	-225590.0	-2599.0	7580.0
14	14	52	50	194	183.0	-227072.0	-2592.0	6424.0
14	14	52	50	195	184.0	-220922.0	-2607.0	4808.0
14	14	52	50	196	185.0	-211334.0	-2583.0	3159.0
14	14	52	50	196	186.0	-202984.0	-2587.0	1922.0
14	14	52	50	197	187.0	-195251.0	-2589.0	1179.0
14	14	52	50	197	188.0	-189190.0	-2581.0	-52.0
14	14	52	50	217	189.0	-185927.0	-2602.0	-1031.0
14	14	52	50	218	190.0	-185768.0	-2592.0	-1542.0
14	14	52	50	219	191.0	-185915.0	-2602.0	-2011.0
14	14	52	50	219	192.0	-187654.0	-2596.0	-2437.0
14	14	52	50	220	193.0	-194086.0	-2572.0	-3051.0
14	14	52	50	221	194.0	-202327.0	-2559.0	-3328.0
14	14	52	50	221	195.0	-208754.0	-2582.0	-3826.0
14	14	52	50	222	196.0	-213024.0	-2584.0	-4325.0
14	14	52	50	223	197.0	-216361.0	-2596.0	-4348.0
14	14	52	50	223	198.0	-216908.0	-2601.0	-4174.0
14	14	52	50	224	199.0	-213668.0	-2606.0	-4331.0
14	14	52	50	224	200.0	-208169.0	-2575.0	-4401.0
14	14	52	50	225	201.0	-201942.0	-2584.0	-4386.0
14	14	52	50	226	202.0	-194976.0	-2579.0	-4423.0
14	14	52	50	226	203.0	-188576.0	-2574.0	-4409.0
14	14	52	50	239	204.0	-183623.0	-2588.0	-4839.0
14	14	52	50	240	205.0	-179805.0	-2612.0	-4956.0
14	14	52	50	241	206.0	-177330.0	-2607.0	-4939.0
14	14	52	50	241	207.0	-176596.0	-2599.0	-4796.0
14	14	52	50	242	208.0	-177999.0	-2604.0	-4825.0
14	14	52	50	242	209.0	-181343.0	-2590.0	-4810.0
14	14	52	50	243	210.0	-185329.0	-2586.0	-5039.0
14	14	52	50	244	211.0	-188714.0	-2588.0	-5132.0
14	14	52	50	261	212.0	-191273.0	-2591.0	-5129.0
14	14	52	50	262	213.0	-193337.0	-2589.0	-5130.0
14	14	52	50	262	214.0	-194644.0	-2594.0	-5309.0
14	14	52	50	263	215.0	-195357.0	-2590.0	-5046.0
14	14	52	50	264	216.0	-195577.0	-2574.0	-4989.0
14	14	52	50	264	217.0	-195006.0	-2594.0	-5155.0
14	14	52	50	265	218.0	-193844.0	-2594.0	-5196.0
14	14	52	50	266	219.0	-192096.0	-2590.0	-4955.0
14	14	52	50	266	220.0	-189429.0	-2576.0	-4884.0
14	14	52	50	267	221.0	-185693.0	-2563.0	-5361.0
14	14	52	50	267	222.0	-181221.0	-2582.0	-5478.0
14	14	52	50	268	223.0	-176264.0	-2588.0	-5491.0
14	14	52	50	269	224.0	-171322.0	-2597.0	-5756.0
14	14	52	50	269	225.0	-167270.0	-2587.0	-5546.0
14	14	52	50	270	226.0	-164867.0	-2582.0	-5359.0
14	14	52	50	283	227.0	-163763.0	-2594.0	-5020.0
14	14	52	50	284	228.0	-163633.0	-2584.0	-5068.0
14	14	52	50	284	229.0	-164917.0	-2595.0	-5501.0
14	14	52	50	285	230.0	-168303.0	-2584.0	-5798.0
14	14	52	50	286	231.0	-172749.0	-2566.0	-6034.0
14	14	52	50	286	232.0	-177354.0	-2553.0	-6119.0
14	14	52	50	287	233.0	-182064.0	-2558.0	-5821.0
14	14	52	50	304	234.0	-186474.0	-2577.0	-5727.0
14	14	52	50	305	235.0	-190491.0	-2587.0	-5930.0
14	14	52	50	305	236.0	-193449.0	-2607.0	-5831.0
14	14	52	50	306	237.0	-195531.0	-2587.0	-5739.0
14	14	52	50	307	238.0	-197151.0	-2581.0	-5811.0
14	14	52	50	308	239.0	-198342.0	-2579.0	-5936.0
14	14	52	50	308	240.0	-198912.0	-2583.0	-6080.0
14	14	52	50	309	241.0	-199587.0	-2589.0	-6102.0
14	14	52	50	310	242.0	-200059.0	-2572.0	-6026.0
14	14	52	50	310	243.0	-200686.0	-2575.0	-5966.0
14	14	52	50	311	244.0	-200856.0	-2569.0	-6286.0
14	14	52	50	312	245.0	-200998.0	-2555.0	-6269.0
14	14	52	50	312	246.0	-201311.0	-2572.0	-6054.0
14	14	52	50	313	247.0	-201640.0	-2591.0	-5861.0
14	14	52	50	313	248.0	-202654.0	-2595.0	-5896.0
14	14	52	50	327	249.0	-203504.0	-2580.0	-5806.0
14	14	52	50	328	250.0	-203126.0	-2566.0	-6265.0
14	14	52	50	328	251.0	-202987.0	-2554.0	-6387.0
14	14	52	50	329	252.0	-202829.0	-2555.0	-6361.0
14	14	52	50	330	253.0	-202257.0	-2593.0	-6170.0
14	14	52	50	330	254.0	-201707.0	-2612.0	-6343.0
14	14	52	50	331	255.0	-200830.0	-2608.0	-6603.0
14	14	52	50	332	0.0	-199287.0	-2578.0	-6784.0
14	14	52	50	349	1.0	-197752.0	-2597.0	-6603.0
14	14	52	50	349	2.0	-195889.0	-2575.0	-6368.0
14	14	52	50	350	3.0	-193583.0	-2559.0	-6377.0
14	14	52	50	350	4.0	-191352.0	-2563.0	-6559.0
14	14	52	50	351	5.0	-189138.0	-2581.0	-6916.0
14	14	52	50	352	6.0	-187174.0	-2574.0	-6752.0
14	14	52	50	352	7.0	-185332.0	-2538.0	-6839.0
14	14	52	50	353	8.0	-183859.0	-2557.0	-7162.0
14	14	52	50	354	9.0	-183001.0	-2592.0	-7276.0
14	14	52	50	354	10.0	-182554.0	-2591.0	-6898.0
14	14	52	50	355	11.0	-182281.0	-2603.0	-6730.0
14	14	52	50	356	12.0	-182408.0	-2609.0	-6816.0
14	14	52	50	356	13.0	-182959.0	-2576.0	-6515.0
14	14	52	50	357	14.0	-183879.0	-2569.0	-6770.0
14	14	52	50	358	15.0	-185182.0	-2560.0	-6922.0
14	14	52	50	371	16.0	-186222.0	-2574.0	-6755.0
14	14	52	50	372	17.0	-186955.0	-2580.0	-6632.0
14	14	52	50	373	18.0	-187741.0	-2576.0	-7069.0
14	14	52	50	373	19.0	-188925.0	-2568.0	-7327.0
14	14	52	50	374	20.0	-190087.0	-2584.0	-7076.0
14	14	52	50	374	21.0	-191244.0	-2600.0	-6819.0
14	14	52	50	375	22.0	-192541.0	-2598.0	-6771.0
