15	18	5	2	817	234.0	-201359.0	-4400.0	-41760.0
15	18	5	2	820	235.0	-195701.0	-4404.0	-41902.0
15	18	5	2	843	236.0	-191067.0	-4426.0	-41769.0
15	18	5	2	844	237.0	-187686.0	-4445.0	-42195.0
15	18	5	2	846	238.0	-184674.0	-4455.0	-42391.0
15	18	5	2	848	239.0	-182006.0	-4472.0	-42357.0
15	18	5	2	849	240.0	-180220.0	-4499.0	-42714.0
15	18	5	2	851	241.0	-178900.0	-4509.0	-42861.0
15	18	5	2	851	242.0	-178218.0	-4517.0	-42384.0
15	18	5	2	852	243.0	-178060.0	-4547.0	-42469.0
15	18	5	2	852	244.0	-177666.0	-4561.0	-42976.0
15	18	5	2	853	245.0	-177323.0	-4577.0	-43024.0
15	18	5	2	853	246.0	-177034.0	-4584.0	-43348.0
15	18	5	2	854	247.0	-176647.0	-4617.0	-43577.0
15	18	5	2	854	248.0	-176396.0	-4652.0	-43597.0
15	18	5	2	855	249.0	-176127.0	-4672.0	-43740.0
15	18	5	2	856	250.0	-175897.0	-4691.0	-43858.0
15	18	5	2	856	251.0	-176241.0	-4691.0	-44179.0
15	18	5	2	857	252.0	-176419.0	-4726.0	-44351.0
15	18	5	2	857	253.0	-176825.0	-4744.0	-44695.0
15	18	5	2	858	254.0	-177756.0	-4784.0	-45152.0
15	18	5	2	858	255.0	-178398.0	-4790.0	-45285.0
15	18	5	2	859	0.0	-178990.0	-4819.0	-45802.0
15	18	5	2	861	1.0	-179909.0	-4837.0	-46247.0
15	18	5	2	906	2.0	-180740.0	-4835.0	-46461.0
15	18	5	2	951	3.0	-181702.0	-4845.0	-46604.0
15	18	5	2	952	4.0	-183173.0	-4872.0	-46681.0
15	18	5	2	952	5.0	-184679.0	-4893.0	-46780.0
15	18	5	2	953	6.0	-185782.0	-4907.0	-47217.0
15	18	5	2	953	7.0	-187566.0	-4919.0	-47270.0
15	18	5	2	954	8.0	-189741.0	-4962.0	-47495.0
15	18	5	2	955	9.0	-191896.0	-4987.0	-47917.0
15	18	5	2	955	10.0	-194152.0	-5004.0	-47897.0
15	18	5	2	956	11.0	-196707.0	-5011.0	-48275.0
15	18	5	2	956	12.0	-199480.0	-5034.0	-48177.0
15	18	5	2	957	13.0	-202300.0	-5055.0	-48445.0
15	18	5	2	957	14.0	-205246.0	-5074.0	-48565.0
15	18	5	2	958	15.0	-207791.0	-5090.0	-48879.0
15	18	5	2	959	16.0	-209791.0	-5115.0	-48851.0
15	18	5	2	959	27.0	-205180.0	-5310.0	-49092.0
15	18	5	2	960	49.0	-187234.0	-5576.0	-39418.0
15	18	5	2	960	50.0	-188091.0	-5563.0	-38774.0
15	18	5	2	961	51.0	-189302.0	-5564.0	-38884.0
15	18	5	2	961	52.0	-190679.0	-5573.0	-38918.0
15	18	5	2	962	53.0	-191671.0	-5560.0	-38520.0
15	18	5	2	963	54.0	-192591.0	-5546.0	-38321.0
15	18	5	2	963	55.0	-193592.0	-5531.0	-38117.0
15	18	5	2	995	56.0	-193884.0	-5522.0	-37619.0
15	18	5	2	996	57.0	-193781.0	-5507.0	-36943.0
15	18	5	2	997	58.0	-194259.0	-5506.0	-36989.0
15	18	5	2	997	59.0	-194974.0	-5490.0	-37151.0
15	18	5	2	998	60.0	-195348.0	-5469.0	-36898.0
15	18	5	2	998	61.0	-195993.0	-5441.0	-36829.0
15	18	5	2	999	62.0	-197104.0	-5426.0	-36675.0
15	18	5	3	41	63.0	-198122.0	-5399.0	-36454.0
15	18	5	3	42	64.0	-199277.0	-5356.0	-36642.0
15	18	5	3	42	65.0	-200609.0	-5324.0	-36809.0
15	18	5	3	43	66.0	-201832.0	-5282.0	-36622.0
15	18	5	3	43	67.0	-202886.0	-5253.0	-36889.0
15	18	5	3	44	68.0	-204129.0	-5212.0	-36622.0
15	18	5	3	44	69.0	-205698.0	-5178.0	-36662.0
15	18	5	3	85	70.0	-207299.0	-5149.0	-37059.0
15	18	5	3	86	72.0	-208933.0	-5060.0	-37528.0
15	18	5	3	86	73.0	-209460.0	-5017.0	-37531.0
15	18	5	3	87	74.0	-210001.0	-4956.0	-37474.0
15	18	5	3	88	75.0	-210352.0	-4891.0	-37408.0
15	18	5	3	88	76.0	-210543.0	-4856.0	-37401.0
15	18	5	3	89	77.0	-210584.0	-4814.0	-37320.0
15	18	5	3	130	78.0	-210596.0	-4756.0	-37102.0
15	18	5	3	131	79.0	-210776.0	-4698.0	-37360.0
15	18	5	3	132	94.0	-189604.0	-3877.0	-36921.0
15	18	5	3	132	95.0	-197597.0	-3824.0	-37319.0
15	18	5	3	133	96.0	-203686.0	-3771.0	-37565.0
15	18	5	3	134	97.0	-206066.0	-3721.0	-37075.0
15	18	5	3	134	98.0	-206691.0	-3658.0	-37156.0
15	18	5	3	135	99.0	-208408.0	-3612.0	-36948.0
15	18	5	3	135	100.0	-208626.0	-3568.0	-37231.0
15	18	5	3	136	117.0	-182695.0	-2807.0	-36879.0
15	18	5	3	137	118.0	-183476.0	-2784.0	-36875.0
15	18	5	3	137	119.0	-184244.0	-2736.0	-36801.0
15	18	5	3	138	120.0	-185816.0	-2680.0	-36817.0
15	18	5	3	140	121.0	-188300.0	-2652.0	-36821.0
15	18	5	3	141	122.0	-191561.0	-2626.0	-36873.0
15	18	5	3	142	123.0	-195397.0	-2597.0	-36767.0
15	18	5	3	142	139.0	-202737.0	-2195.0	-36489.0
15	18	5	3	143	140.0	-201602.0	-2196.0	-36569.0
15	18	5	3	144	141.0	-200386.0	-2173.0	-36307.0
15	18	5	3	144	142.0	-199227.0	-2137.0	-36502.0
15	18	5	3	145	143.0	-198280.0	-2117.0	-36768.0
15	18	5	3	145	144.0	-196963.0	-2098.0	-36617.0
15	18	5	3	146	145.0	-196211.0	-2089.0	-36107.0
15	18	5	3	176	146.0	-195905.0	-2076.0	-36056.0
15	18	5	3	177	147.0	-195449.0	-2063.0	-36110.0
15	18	5	3	177	148.0	-195126.0	-2034.0	-35274.0
15	18	5	3	178	149.0	-194855.0	-2029.0	-35487.0
15	18	5	3	179	150.0	-194634.0	-2007.0	-35589.0
15	18	5	3	179	151.0	-193890.0	-1982.0	-35086.0
15	18	5	3	180	152.0	-193439.0	-1979.0	-35271.0
15	18	5	3	221	153.0	-192961.0	-1965.0	-34820.0
15	18	5	3	222	154.0	-192639.0	-1966.0	-34421.0
15	18	5	3	222	155.0	-192298.0	-1964.0	-34585.0
15	18	5	3	223	156.0	-192354.0	-1941.0	-34489.0
15	18	5	3	224	157.0	-192651.0	-1914.0	-33756.0
15	18	5	3	224	158.0	-193082.0	-1918.0	-33917.0
15	18	5	3	225	159.0	-194333.0	-1929.0	-34418.0
15	18	5	3	225	160.0	-195957.0	-1901.0	-33990.0
15	18	5	3	234	162.0	-200698.0	-1885.0	-33734.0
15	18	5	3	234	163.0	-203931.0	-1895.0	-33275.0
15	18	5	3	235	164.0	-207209.0	-1900.0	-32917.0
15	18	5	3	236	165.0	-210352.0	-1870.0	-32902.0
15	18	5	3	236	166.0	-213340.0	-1869.0	-32679.0
15	18	5	3	237	167.0	-215954.0	-1866.0	-32442.0
15	18	5	3	237	168.0	-218519.0	-1871.0	-32432.0
15	18	5	3	238	169.0	-220684.0	-1884.0	-32439.0
15	18	5	3	238	184.0	-195180.0	-1879.0	-30484.0
15	18	5	3	239	185.0	-192395.0	-1884.0	-30445.0
15	18	5	3	240	186.0	-190370.0	-1884.0	-30438.0
15	18	5	3	240	187.0	-188868.0	-1887.0	-30206.0
15	18	5	3	241	188.0	-187988.0	-1897.0	-30277.0
15	18	5	3	241	189.0	-188067.0	-1906.0	-30381.0
15	18	5	3	242	190.0	-188259.0	-1912.0	-30324.0
15	18	5	3	265	191.0	-188196.0	-1901.0	-29804.0
15	18	5	3	266	192.0	-188582.0	-1898.0	-30136.0
15	18	5	3	266	193.0	-189133.0	-1903.0	-30117.0
15	18	5	3	267	194.0	-188979.0	-1889.0	-29710.0
15	18	5	3	267	195.0	-188606.0	-1887.0	-29937.0
15	18	5	3	268	196.0	-188617.0	-1888.0	-29804.0
15	18	5	3	269	197.0	-188687.0	-1897.0	-29273.0
15	18	5	3	269	198.0	-189496.0	-1886.0	-29454.0
15	18	5	3	310	199.0	-190434.0	-1888.0	-30087.0
15	18	5	3	311	200.0	-191193.0	-1886.0	-30637.0
15	18	5	3	311	201.0	-191960.0	-1894.0	-30723.0
15	18	5	3	312	202.0	-192942.0	-1899.0	-30668.0
15	18	5	3	313	203.0	-193957.0	-1876.0	-30506.0
15	18	5	3	313	204.0	-194832.0	-1867.0	-30684.0
15	18	5	3	314	205.0	-195858.0	-1876.0	-30709.0
15	18	5	3	314	206.0	-196975.0	-1865.0	-30659.0
15	18	5	3	315	207.0	-198026.0	-1863.0	-30513.0
15	18	5	3	316	208.0	-199238.0	-1868.0	-30593.0
15	18	5	3	316	209.0	-200659.0	-1872.0	-30704.0
15	18	5	3	317	210.0	-201920.0	-1861.0	-30797.0
15	18	5	3	317	211.0	-202882.0	-1852.0	-31046.0
15	18	5	3	318	212.0	-203669.0	-1852.0	-31334.0
15	18	5	3	319	213.0	-203869.0	-1845.0	-31627.0
15	18	5	3	319	229.0	-200320.0	-1773.0	-32904.0
15	18	5	3	320	230.0	-200110.0	-1779.0	-32884.0
15	18	5	3	320	231.0	-200458.0	-1756.0	-32984.0
15	18	5	3	321	232.0	-200527.0	-1761.0	-33382.0
15	18	5	3	322	233.0	-200200.0	-1741.0	-33191.0
15	18	5	3	322	234.0	-199789.0	-1713.0	-33146.0
15	18	5	3	356	235.0	-199550.0	-1712.0	-33374.0
15	18	5	3	356	236.0	-199301.0	-1727.0	-33515.0
15	18	5	3	357	237.0	-198916.0	-1722.0	-33212.0
15	18	5	3	357	238.0	-198276.0	-1721.0	-33776.0
15	18	5	3	358	239.0	-197418.0	-1720.0	-34409.0
15	18	5	3	359	240.0	-196594.0	-1717.0	-34358.0
15	18	5	3	359	241.0	-195978.0	-1718.0	-34561.0
15	18	5	3	401	242.0	-195589.0	-1722.0	-34473.0
15	18	5	3	402	243.0	-195071.0	-1707.0	-34355.0
15	18	5	3	402	244.0	-194528.0	-1716.0	-34286.0
15	18	5	3	403	245.0	-194454.0	-1713.0	-34305.0
15	18	5	3	404	246.0	-194820.0	-1699.0	-34706.0
15	18	5	3	404	247.0	-194891.0	-1692.0	-35050.0
15	18	5	3	405	248.0	-194756.0	-1684.0	-35021.0
15	18	5	3	405	249.0	-195078.0	-1672.0	-34863.0
15	18	5	3	406	251.0	-194562.0	-1695.0	-34927.0
15	18	5	3	407	252.0	-194498.0	-1701.0	-34893.0
15	18	5	3	407	253.0	-194019.0	-1702.0	-34773.0
15	18	5	3	408	254.0	-193347.0	-1684.0	-34322.0
15	18	5	3	408	255.0	-192952.0	-1683.0	-34460.0
15	18	5	3	409	0.0	-192801.0	-1683.0	-34412.0
15	18	5	3	410	1.0	-192271.0	-1711.0	-34315.0
15	18	5	3	410	2.0	-191921.0	-1706.0	-34346.0
15	18	5	3	411	18.0	-191152.0	-1814.0	-32569.0
15	18	5	3	412	19.0	-191233.0	-1834.0	-32474.0
15	18	5	3	412	20.0	-191464.0	-1843.0	-32599.0
15	18	5	3	413	21.0	-191835.0	-1851.0	-32574.0
15	18	5	3	413	22.0	-191801.0	-1876.0	-32487.0
15	18	5	3	414	23.0	-191827.0	-1874.0	-32651.0
15	18	5	3	414	24.0	-192356.0	-1875.0	-32807.0
15	18	5	3	446	25.0	-193261.0	-1897.0	-32649.0
15	18	5	3	447	26.0	-194789.0	-1900.0	-32334.0
15	18	5	3	447	27.0	-196145.0	-1921.0	-32234.0
15	18	5	3	448	28.0	-196877.0	-1935.0	-32405.0
15	18	5	3	449	29.0	-197119.0	-1937.0	-32098.0
15	18	5	3	449	30.0	-196434.0	-1958.0	-32329.0
15	18	5	3	450	31.0	-195597.0	-1979.0	-32775.0
15	18	5	3	451	32.0	-194799.0	-1991.0	-32534.0
15	18	5	3	451	33.0	-193585.0	-1997.0	-32596.0
15	18	5	3	452	34.0	-192304.0	-1997.0	-32862.0
15	18	5	3	452	35.0	-190632.0	-2012.0	-32539.0
15	18	5	3	453	36.0	-189210.0	-2036.0	-32437.0
15	18	5	3	454	37.0	-188056.0	-2056.0	-33067.0
15	18	5	3	454	38.0	-187092.0	-2078.0	-33156.0
15	18	5	3	455	39.0	-186326.0	-2083.0	-33273.0
15	18	5	3	455	40.0	-185627.0	-2102.0	-33743.0
15	18	5	3	456	41.0	-185349.0	-2111.0	-34542.0
15	18	5	3	457	42.0	-185111.0	-2136.0	-35026.0
15	18	5	3	457	43.0	-185151.0	-2156.0	-35986.0
15	18	5	3	458	44.0	-185614.0	-2159.0	-35796.0
15	18	5	3	458	45.0	-186507.0	-2184.0	-32680.0
15	18	5	3	459	46.0	-187778.0	-2202.0	-28097.0
15	18	5	3	490	47.0	-188868.0	-2211.0	-23617.0
15	18	5	3	535	48.0	-190653.0	-2227.0	-20486.0
15	18	5	3	536	49.0	-192858.0	-2244.0	-18616.0
15	18	5	3	536	50.0	-194462.0	-2252.0	-16878.0
15	18	5	3	537	51.0	-195739.0	-2296.0	-16284.0
15	18	5	3	537	52.0	-196766.0	-2300.0	-16212.0
15	18	5	3	538	53.0	-197402.0	-2306.0	-15852.0
15	18	5	3	539	54.0	-198349.0	-2322.0	-15441.0
15	18	5	3	539	55.0	-199272.0	-2332.0	-15559.0
15	18	5	3	540	56.0	-199579.0	-2342.0	-15235.0
15	18	5	3	540	57.0	-199884.0	-2358.0	-15073.0
15	18	5	3	541	58.0	-200128.0	-2371.0	-16059.0
15	18	5	3	542	59.0	-201157.0	-2382.0	-17221.0
15	18	5	3	542	60.0	-203222.0	-2396.0	-17546.0
15	18	5	3	543	61.0	-206179.0	-2427.0	-18617.0
15	18	5	3	544	63.0	-214304.0	-2470.0	-20600.0
15	18	5	3	544	64.0	-218949.0	-2485.0	-23269.0
15	18	5	3	545	86.0	-189875.0	-2857.0	-37423.0
15	18	5	3	545	87.0	-197224.0	-2871.0	-37654.0
15	18	5	3	546	88.0	-204296.0	-2872.0	-37393.0
15	18	5	3	580	89.0	-211211.0	-2899.0	-37589.0
15	18	5	3	581	90.0	-216883.0	-2922.0	-37556.0
15	18	5	3	582	91.0	-221484.0	-2946.0	-37369.0
15	18	5	3	582	92.0	-224575.0	-2953.0	-37624.0
15	18	5	3	583	93.0	-226293.0	-2974.0	-37928.0
15	18	5	3	583	94.0	-227031.0	-2988.0	-37976.0
15	18	5	3	584	95.0	-225786.0	-3010.0	-38001.0
15	18	5	3	585	96.0	-222765.0	-3015.0	-38292.0
15	18	5	3	585	97.0	-217099.0	-3040.0	-38515.0
15	18	5	3	586	98.0	-210279.0	-3057.0	-38642.0
15	18	5	3	587	99.0	-202605.0	-3060.0	-38726.0
15	18	5	3	587	100.0	-195496.0	-3064.0	-38281.0
15	18	5	3	588	101.0	-189056.0	-3099.0	-38869.0
15	18	5	3	588	102.0	-184091.0	-3119.0	-38895.0
15	18	5	3	597	103.0	-182050.0	-3138.0	-38604.0
15	18	5	3	597	104.0	-181302.0	-3140.0	-38722.0
15	18	5	3	598	108.0	-187052.0	-3215.0	-39534.0
15	18	5	3	599	109.0	-190194.0	-3237.0	-39219.0
15	18	5	3	599	110.0	-194212.0	-3248.0	-39451.0
15	18	5	3	600	111.0	-198527.0	-3273.0	-39549.0
15	18	5	3	600	112.0	-202366.0	-3286.0	-39491.0
15	18	5	3	601	113.0	-205751.0	-3307.0	-39563.0
15	18	5	3	625	114.0	-207288.0	-3324.0	-40012.0
15	18	5	3	626	115.0	-207694.0	-3322.0	-40075.0
15	18	5	3	627	116.0	-206254.0	-3336.0	-40095.0
15	18	5	3	627	117.0	-203496.0	-3371.0	-40462.0
15	18	5	3	628	118.0	-199305.0	-3386.0	-40839.0
15	18	5	3	629	119.0	-194399.0	-3416.0	-40564.0
15	18	5	3	629	120.0	-189214.0	-3436.0	-40319.0
15	18	5	3	630	121.0	-183871.0	-3439.0	-40599.0
15	18	5	3	630	122.0	-180051.0	-3460.0	-40807.0
15	18	5	3	631	123.0	-176765.0	-3473.0	-41039.0
15	18	5	3	632	124.0	-174430.0	-3494.0	-41049.0
15	18	5	3	632	125.0	-172936.0	-3510.0	-41026.0
15	18	5	3	633	126.0	-171836.0	-3523.0	-41302.0
15	18	5	3	634	127.0	-171752.0	-3546.0	-41801.0
15	18	5	3	634	128.0	-172029.0	-3561.0	-41807.0
15	18	5	3	635	130.0	-174702.0	-3584.0	-41712.0
15	18	5	3	635	131.0	-176357.0	-3603.0	-41827.0
15	18	5	3	636	132.0	-178609.0	-3610.0	-42327.0
15	18	5	3	637	133.0	-180515.0	-3632.0	-42616.0
15	18	5	3	637	134.0	-182845.0	-3653.0	-43005.0
15	18	5	3	638	135.0	-185217.0	-3667.0	-43272.0
15	18	5	3	639	136.0	-187642.0	-3686.0	-42761.0
15	18	5	3	670	137.0	-190132.0	-3702.0	-42620.0
15	18	5	3	671	138.0	-191899.0	-3726.0	-42777.0
15	18	5	3	671	139.0	-192962.0	-3756.0	-42654.0
15	18	5	3	672	140.0	-193769.0	-3767.0	-42374.0
15	18	5	3	673	141.0	-194021.0	-3771.0	-42651.0
15	18	5	3	673	142.0	-194284.0	-3794.0	-42500.0
15	18	5	3	674	143.0	-194464.0	-3812.0	-42538.0
15	18	5	3	675	144.0	-194297.0	-3843.0	-42622.0
15	18	5	3	675	145.0	-194410.0	-3862.0	-42809.0
15	18	5	3	676	146.0	-194556.0	-3877.0	-42730.0
15	18	5	3	677	147.0	-194900.0	-3888.0	-42954.0
15	18	5	3	677	148.0	-195074.0	-3917.0	-43420.0
15	18	5	3	678	149.0	-194945.0	-3949.0	-43562.0
15	18	5	3	678	150.0	-194802.0	-3964.0	-43795.0
15	18	5	3	679	151.0	-194445.0	-3975.0	-44044.0
15	18	5	3	680	153.0	-194241.0	-3999.0	-44156.0
15	18	5	3	717	154.0	-194502.0	-4005.0	-44411.0
15	18	5	3	718	155.0	-194733.0	-4037.0	-44301.0
15	18	5	3	719	156.0	-194680.0	-4057.0	-44292.0
15	18	5	3	719	157.0	-194953.0	-4077.0	-44711.0
15	18	5	3	720	158.0	-195588.0	-4106.0	-44807.0
15	18	5	3	720	159.0	-196349.0	-4133.0	-44726.0
15	18	5	3	721	160.0	-197226.0	-4171.0	-44888.0
15	18	5	3	722	161.0	-198715.0	-4176.0	-45035.0
15	18	5	3	723	162.0	-199972.0	-4186.0	-45429.0
15	18	5	3	723	163.0	-201181.0	-4192.0	-45272.0
15	18	5	3	724	164.0	-202999.0	-4216.0	-45228.0
15	18	5	3	724	165.0	-204438.0	-4259.0	-45012.0
15	18	5	3	725	166.0	-206009.0	-4277.0	-44687.0
15	18	5	3	726	167.0	-207218.0	-4294.0	-44307.0
15	18	5	3	726	168.0	-208379.0	-4311.0	-44215.0
15	18	5	3	727	169.0	-209749.0	-4329.0	-44154.0
15	18	5	3	727	175.0	-212017.0	-4453.0	-43255.0
15	18	5	3	728	176.0	-211913.0	-4473.0	-42507.0
15	18	5	3	729	177.0	-211031.0	-4498.0	-42074.0
15	18	5	3	729	178.0	-209743.0	-4508.0	-41763.0
15	18	5	3	730	179.0	-208515.0	-4521.0	-41173.0
15	18	5	3	730	180.0	-207136.0	-4534.0	-40738.0
15	18	5	3	731	181.0	-205330.0	-4549.0	-40416.0
15	18	5	3	761	182.0	-203164.0	-4563.0	-39421.0
15	18	5	3	762	183.0	-201272.0	-4578.0	-38594.0
15	18	5	3	763	184.0	-199062.0	-4601.0	-38618.0
15	18	5	3	763	185.0	-196332.0	-4597.0	-38074.0
15	18	5	3	764	186.0	-193649.0	-4609.0	-37042.0
15	18	5	3	765	187.0	-190884.0	-4608.0	-36927.0
15	18	5	3	765	188.0	-188355.0	-4618.0	-36390.0
15	18	5	3	766	189.0	-185819.0	-4630.0	-35464.0
15	18	5	3	767	190.0	-183823.0	-4627.0	-35103.0
15	18	5	3	767	191.0	-182019.0	-4618.0	-35131.0
15	18	5	3	768	192.0	-180392.0	-4615.0	-34767.0
15	18	5	3	768	193.0	-179366.0	-4614.0	-34088.0
15	18	5	3	769	194.0	-179001.0	-4613.0	-34104.0
15	18	5	3	769	195.0	-179356.0	-4622.0	-34009.0
15	18	5	3	805	196.0	-180084.0	-4610.0	-33519.0
15	18	5	3	805	198.0	-182217.0	-4577.0	-33695.0
15	18	5	3	806	199.0	-183898.0	-4551.0	-33237.0
15	18	5	3	807	200.0	-185494.0	-4540.0	-32601.0
15	18	5	3	808	201.0	-187301.0	-4517.0	-32697.0
15	18	5	3	808	202.0	-189269.0	-4504.0	-32779.0
15	18	5	3	809	203.0	-191294.0	-4478.0	-32644.0
15	18	5	3	810	204.0	-193306.0	-4444.0	-32434.0
15	18	5	3	810	205.0	-194947.0	-4413.0	-32330.0
15	18	5	3	811	206.0	-196282.0	-4381.0	-31954.0
15	18	5	3	812	207.0	-197638.0	-4344.0	-31632.0
15	18	5	3	812	208.0	-198704.0	-4327.0	-31813.0
15	18	5	3	813	209.0	-199701.0	-4302.0	-32027.0
15	18	5	3	814	210.0	-200699.0	-4255.0	-31773.0
15	18	5	3	814	211.0	-201752.0	-4205.0	-31979.0
15	18	5	3	815	212.0	-202911.0	-4162.0	-31997.0
15	18	5	3	816	220.0	-211347.0	-3777.0	-30935.0
15	18	5	3	816	221.0	-212536.0	-3720.0	-31358.0
15	18	5	3	817	222.0	-213787.0	-3671.0	-31356.0
15	18	5	3	818	223.0	-214445.0	-3593.0	-31457.0
15	18	5	3	818	224.0	-214621.0	-3548.0	-31737.0
15	18	5	3	819	225.0	-214122.0	-3499.0	-31685.0
15	18	5	3	819	226.0	-213206.0	-3447.0	-31374.0
15	18	5	3	850	227.0	-211637.0	-3401.0	-31464.0
15	18	5	3	851	228.0	-209129.0	-3349.0	-31403.0
15	18	5	3	852	229.0	-204947.0	-3282.0	-31111.0
15	18	5	3	853	230.0	-198149.0	-3220.0	-30984.0
15	18	5	3	853	231.0	-187277.0	-3176.0	-31214.0
15	18	5	3	854	232.0	-177004.0	-3111.0	-30961.0
15	18	5	3	855	233.0	-172575.0	-3055.0	-31067.0
15	18	5	3	855	234.0	-174682.0	-2990.0	-31328.0
15	18	5	3	856	235.0	-181912.0	-2939.0	-31183.0
15	18	5	3	857	236.0	-189974.0	-2875.0	-31202.0
15	18	5	3	857	237.0	-198078.0	-2812.0	-31234.0
15	18	5	3	858	238.0	-205181.0	-2762.0	-31146.0
15	18	5	3	859	239.0	-209080.0	-2696.0	-31148.0
15	18	5	3	860	240.0	-211753.0	-2647.0	-30976.0
15	18	5	3	860	241.0	-214941.0	-2603.0	-31228.0
15	18	5	3	861	243.0	-217901.0	-2497.0	-31417.0
15	18	5	3	862	244.0	-218460.0	-2432.0	-31311.0
15	18	5	3	862	245.0	-218487.0	-2394.0	-31521.0
15	18	5	3	863	246.0	-216853.0	-2334.0	-31109.0
15	18	5	3	863	247.0	-213151.0	-2274.0	-31035.0
15	18	5	3	864	248.0	-208671.0	-2214.0	-31196.0
15	18	5	3	896	249.0	-203754.0	-2179.0	-31091.0
15	18	5	3	896	250.0	-198556.0	-2142.0	-30889.0
15	18	5	3	897	251.0	-193336.0	-2103.0	-31481.0
15	18	5	3	898	252.0	-188606.0	-2055.0	-31982.0
15	18	5	3	899	253.0	-184907.0	-2022.0	-31682.0
15	18	5	3	899	254.0	-181953.0	-1974.0	-31734.0
15	18	5	3	900	255.0	-179618.0	-1931.0	-31777.0
15	18	5	3	941	0.0	-177792.0	-1892.0	-31242.0
15	18	5	3	941	1.0	-176377.0	-1850.0	-31429.0
15	18	5	3	942	2.0	-175429.0	-1808.0	-31257.0
15	18	5	3	943	3.0	-174627.0	-1776.0	-30867.0
15	18	5	3	944	4.0	-174272.0	-1732.0	-30789.0
15	18	5	3	944	5.0	-175123.0	-1687.0	-30933.0
15	18	5	3	945	6.0	-175965.0	-1649.0	-31016.0
15	18	5	3	946	7.0	-177167.0	-1596.0	-30838.0
15	18	5	3	946	9.0	-181811.0	-1526.0	-31123.0
15	18	5	3	947	10.0	-184189.0	-1502.0	-31007.0
15	18	5	3	948	11.0	-186440.0	-1464.0	-31239.0
15	18	5	3	948	12.0	-188380.0	-1417.0	-31056.0
15	18	5	3	949	13.0	-190407.0	-1377.0	-30668.0
15	18	5	3	951	14.0	-191704.0	-1364.0	-31086.0
15	18	5	3	952	15.0	-192919.0	-1330.0	-31222.0
15	18	5	3	953	16.0	-194451.0	-1316.0	-31517.0
15	18	5	3	954	32.0	-211666.0	-926.0	-30379.0
15	18	5	3	954	33.0	-211852.0	-908.0	-30026.0
15	18	5	3	955	34.0	-211772.0	-905.0	-30071.0
15	18	5	3	955	35.0	-211420.0	-872.0	-30812.0
15	18	5	3	956	36.0	-211304.0	-866.0	-30956.0
15	18	5	3	957	37.0	-210399.0	-857.0	-30489.0
15	18	5	3	987	38.0	-208686.0	-842.0	-30927.0
15	18	5	3	988	39.0	-207089.0	-823.0	-31027.0
15	18	5	3	989	40.0	-204969.0	-803.0	-30610.0
15	18	5	3	989	41.0	-202803.0	-814.0	-30839.0
15	18	5	3	990	42.0	-200786.0	-792.0	-30992.0
15	18	5	3	991	43.0	-198714.0	-786.0	-30512.0
15	18	5	3	992	44.0	-196876.0	-790.0	-30677.0
15	18	5	3	992	45.0	-195509.0	-769.0	-30831.0
15	18	5	3	993	46.0	-194271.0	-756.0	-30551.0
15	18	5	3	994	47.0	-193530.0	-761.0	-30775.0
15	18	5	3	994	48.0	-193309.0	-735.0	-30732.0
15	18	5	3	995	49.0	-193613.0	-731.0	-30719.0
15	18	5	3	996	50.0	-193985.0	-742.0	-30919.0
15	18	5	3	996	51.0	-194756.0	-718.0	-30782.0
15	18	5	3	997	52.0	-195464.0	-713.0	-30926.0
15	18	5	3	997	54.0	-195876.0	-701.0	-30921.0
15	18	5	3	998	55.0	-196694.0	-712.0	-30519.0
15	18	5	3	999	56.0	-197580.0	-715.0	-30641.0
15	18	5	3	999	57.0	-198495.0	-694.0	-30942.0
15	18	5	4	0	58.0	-199837.0	-689.0	-30851.0
15	18	5	4	0	59.0	-201351.0	-689.0	-30787.0
15	18	5	4	31	60.0	-203343.0	-679.0	-30656.0
15	18	5	4	31	61.0	-205140.0	-686.0	-30257.0
15	18	5	4	32	62.0	-206627.0	-694.0	-30113.0
15	18	5	4	33	63.0	-208119.0	-707.0	-30542.0
15	18	5	4	33	64.0	-209497.0	-704.0	-30397.0
15	18	5	4	34	65.0	-210517.0	-707.0	-30647.0
15	18	5	4	35	66.0	-211153.0	-717.0	-30860.0
15	18	5	4	35	67.0	-211674.0	-717.0	-30479.0
15	18	5	4	75	68.0	-211686.0	-707.0	-30607.0
15	18	5	4	76	69.0	-211337.0	-711.0	-30682.0
15	18	5	4	77	70.0	-211450.0	-722.0	-30440.0
15	18	5	4	78	71.0	-211464.0	-719.0	-30224.0
15	18	5	4	79	72.0	-211334.0	-721.0	-30491.0
15	18	5	4	79	73.0	-211240.0	-741.0	-30329.0
15	18	5	4	80	74.0	-211377.0	-732.0	-30117.0
15	18	5	4	81	76.0	-210761.0	-739.0	-30666.0
15	18	5	4	81	77.0	-210521.0	-736.0	-30547.0
15	18	5	4	82	78.0	-210217.0	-739.0	-30722.0
15	18	5	4	83	79.0	-209569.0	-741.0	-31021.0
15	18	5	4	84	80.0	-208761.0	-726.0	-31272.0
15	18	5	4	84	81.0	-207934.0	-734.0	-31166.0
15	18	5	4	85	82.0	-207404.0	-736.0	-30987.0
15	18	5	4	86	83.0	-207137.0	-739.0	-31023.0
15	18	5	4	86	99.0	-197926.0	-725.0	-30895.0
15	18	5	4	87	100.0	-197304.0	-721.0	-31377.0
15	18	5	4	88	101.0	-196859.0	-712.0	-31294.0
15	18	5	4	88	102.0	-195993.0	-717.0	-31236.0
15	18	5	4	89	103.0	-194924.0	-713.0	-31232.0
15	18	5	4	89	104.0	-194001.0	-712.0	-30862.0
15	18	5	4	120	105.0	-192947.0	-712.0	-31129.0
15	18	5	4	121	106.0	-191697.0	-706.0	-31698.0
15	18	5	4	122	107.0	-190874.0	-710.0	-31561.0
15	18	5	4	122	108.0	-190279.0	-693.0	-31491.0
15	18	5	4	123	109.0	-189401.0	-690.0	-31455.0
15	18	5	4	124	110.0	-188424.0	-681.0	-31355.0
15	18	5	4	125	111.0	-187978.0	-667.0	-31053.0
15	18	5	4	125	112.0	-187700.0	-686.0	-31054.0
15	18	5	4	126	113.0	-187168.0	-682.0	-31032.0
15	18	5	4	127	114.0	-186901.0	-669.0	-30900.0
15	18	5	4	127	115.0	-186887.0	-669.0	-31289.0
15	18	5	4	128	116.0	-186872.0	-665.0	-31290.0
15	18	5	4	129	117.0	-187138.0	-683.0	-31644.0
15	18	5	4	129	118.0	-187976.0	-674.0	-31849.0
15	18	5	4	130	119.0	-189094.0	-657.0	-31794.0
15	18	5	4	131	121.0	-191059.0	-674.0	-31707.0
15	18	5	4	131	122.0	-192662.0	-667.0	-31589.0
15	18	5	4	132	123.0	-194111.0	-666.0	-32070.0
15	18	5	4	133	124.0	-195124.0	-664.0	-32427.0
15	18	5	4	133	125.0	-196266.0	-662.0	-32602.0
15	18	5	4	134	126.0	-197350.0	-652.0	-32763.0
15	18	5	4	134	127.0	-198105.0	-646.0	-32808.0
15	18	5	4	167	128.0	-198524.0	-649.0	-32646.0
15	18	5	4	168	129.0	-199101.0	-653.0	-31997.0
15	18	5	4	168	130.0	-199827.0	-660.0	-31572.0
15	18	5	4	169	131.0	-200748.0	-676.0	-31639.0
15	18	5	4	170	132.0	-201730.0	-672.0	-31476.0
15	18	5	4	171	133.0	-202452.0	-676.0	-31644.0
15	18	5	4	171	134.0	-203407.0	-681.0	-31531.0
15	18	5	4	172	135.0	-204204.0	-675.0	-31219.0
15	18	5	4	173	136.0	-204262.0	-672.0	-31212.0
15	18	5	4	174	137.0	-203747.0	-664.0	-30809.0
15	18	5	4	174	138.0	-203597.0	-669.0	-30347.0
15	18	5	4	175	139.0	-203292.0	-684.0	-30346.0
15	18	5	4	176	140.0	-202722.0	-682.0	-29971.0
15	18	5	4	176	141.0	-202587.0	-671.0	-29512.0
15	18	5	4	177	142.0	-202632.0	-686.0	-29971.0
15	18	5	4	178	144.0	-202369.0	-697.0	-28972.0
15	18	5	4	178	145.0	-202802.0	-701.0	-28870.0
15	18	5	4	179	146.0	-202656.0	-711.0	-29102.0
15	18	5	4	179	147.0	-202122.0	-711.0	-28502.0
15	18	5	4	180	148.0	-201429.0	-719.0	-28202.0
15	18	5	4	181	149.0	-200145.0	-734.0	-28312.0
15	18	5	4	210	150.0	-198929.0	-751.0	-27758.0
15	18	5	4	211	151.0	-197386.0	-753.0	-27764.0
15	18	5	4	212	152.0	-195301.0	-765.0	-28054.0
15	18	5	4	213	153.0	-193759.0	-761.0	-28128.0
15	18	5	4	213	154.0	-192236.0	-780.0	-27888.0
15	18	5	4	214	155.0	-190432.0	-782.0	-27779.0
15	18	5	4	214	156.0	-188809.0	-790.0	-27456.0
15	18	5	4	256	157.0	-187336.0	-795.0	-27474.0
15	18	5	4	257	158.0	-185864.0	-804.0	-27370.0
15	18	5	4	257	159.0	-184555.0	-827.0	-27242.0
15	18	5	4	258	160.0	-182895.0	-857.0	-27055.0
15	18	5	4	259	161.0	-181600.0	-867.0	-26977.0
15	18	5	4	259	162.0	-180884.0	-894.0	-26832.0
15	18	5	4	260	163.0	-180240.0	-894.0	-26990.0
15	18	5	4	260	164.0	-179549.0	-896.0	-27082.0
15	18	5	4	262	166.0	-179347.0	-902.0	-27009.0
15	18	5	4	263	167.0	-179358.0	-931.0	-27377.0
15	18	5	4	263	168.0	-179581.0	-936.0	-27124.0
15	18	5	4	264	169.0	-180915.0	-950.0	-26968.0
15	18	5	4	264	170.0	-182306.0	-981.0	-27063.0
15	18	5	4	265	171.0	-183608.0	-997.0	-26363.0
15	18	5	4	265	172.0	-185279.0	-1009.0	-26325.0
15	18	5	4	266	173.0	-187061.0	-1004.0	-26496.0
15	18	5	4	266	189.0	-204710.0	-1301.0	-9242.0
15	18	5	4	267	190.0	-204154.0	-1296.0	-8944.0
15	18	5	4	268	191.0	-203411.0	-1317.0	-8731.0
15	18	5	4	300	192.0	-202987.0	-1346.0	-7408.0
15	18	5	4	301	193.0	-203330.0	-1347.0	-7217.0
15	18	5	4	301	194.0	-203672.0	-1373.0	-7661.0
15	18	5	4	302	195.0	-204837.0	-1396.0	-8738.0
15	18	5	4	303	196.0	-207069.0	-1417.0	-9817.0
15	18	5	4	303	197.0	-209807.0	-1464.0	-10218.0
15	18	5	4	304	198.0	-213524.0	-1481.0	-10680.0
15	18	5	4	304	199.0	-217786.0	-1477.0	-11329.0
15	18	5	4	305	200.0	-221747.0	-1502.0	-12579.0
15	18	5	4	305	201.0	-225664.0	-1529.0	-14567.0
15	18	5	4	306	202.0	-229584.0	-1550.0	-16667.0
15	18	5	4	307	203.0	-232617.0	-1575.0	-19066.0
15	18	5	4	307	204.0	-234554.0	-1579.0	-20792.0
15	18	5	4	308	205.0	-235706.0	-1599.0	-22426.0
15	18	5	4	308	206.0	-235839.0	-1622.0	-23682.0
15	18	5	4	309	207.0	-234517.0	-1628.0	-24901.0
15	18	5	4	309	211.0	-216179.0	-1728.0	-27732.0
15	18	5	4	310	212.0	-210234.0	-1747.0	-28285.0
15	18	5	4	311	213.0	-201631.0	-1762.0	-28823.0
15	18	5	4	311	214.0	-189478.0	-1792.0	-28841.0
15	18	5	4	312	215.0	-174513.0	-1802.0	-28745.0
15	18	5	4	312	216.0	-160576.0	-1826.0	-29144.0
15	18	5	4	321	217.0	-150478.0	-1846.0	-29407.0
15	18	5	4	345	218.0	-143938.0	-1869.0	-29215.0
15	18	5	4	346	219.0	-141430.0	-1885.0	-29687.0
15	18	5	4	347	220.0	-142356.0	-1889.0	-29644.0
15	18	5	4	347	221.0	-145940.0	-1922.0	-29295.0
15	18	5	4	348	222.0	-151751.0	-1947.0	-29836.0
15	18	5	4	348	223.0	-158782.0	-1969.0	-30232.0
15	18	5	4	349	224.0	-166271.0	-1982.0	-30596.0
15	18	5	4	390	225.0	-174141.0	-2015.0	-30854.0
15	18	5	4	391	226.0	-181881.0	-2042.0	-31327.0
15	18	5	4	391	227.0	-188991.0	-2045.0	-31237.0
15	18	5	4	392	228.0	-195770.0	-2069.0	-30986.0
15	18	5	4	393	229.0	-202286.0	-2092.0	-31124.0
15	18	5	4	393	230.0	-208976.0	-2123.0	-31276.0
15	18	5	4	394	231.0	-215648.0	-2132.0	-31284.0
15	18	5	4	395	232.0	-221527.0	-2156.0	-31559.0
15	18	5	4	395	234.0	-226336.0	-2194.0	-31744.0
15	18	5	4	396	235.0	-224459.0	-2216.0	-31526.0
15	18	5	4	396	236.0	-219786.0	-2240.0	-31587.0
15	18	5	4	397	237.0	-213276.0	-2261.0	-31919.0
15	18	5	4	405	238.0	-205633.0	-2267.0	-31979.0
15	18	5	4	406	239.0	-197841.0	-2297.0	-32094.0
15	18	5	4	407	240.0	-191082.0	-2344.0	-32364.0
15	18	5	4	407	241.0	-185326.0	-2345.0	-32375.0
15	18	5	4	408	0.0	-194055.0	-2639.0	-34161.0
15	18	5	4	408	1.0	-193409.0	-2672.0	-34184.0
15	18	5	4	409	2.0	-192552.0	-2688.0	-33520.0
15	18	5	4	409	3.0	-191368.0	-2691.0	-33634.0
15	18	5	4	410	4.0	-190117.0	-2727.0	-33821.0
15	18	5	4	410	5.0	-189160.0	-2737.0	-33547.0
15	18	5	4	411	6.0	-188695.0	-2754.0	-33960.0
15	18	5	4	435	7.0	-187857.0	-2766.0	-34328.0
15	18	5	4	435	8.0	-187668.0	-2797.0	-34817.0
15	18	5	4	436	9.0	-187952.0	-2811.0	-34808.0
15	18	5	4	436	10.0	-188230.0	-2832.0	-34882.0
15	18	5	4	437	11.0	-189235.0	-2849.0	-35089.0
15	18	5	4	438	12.0	-190069.0	-2862.0	-35506.0
15	18	5	4	438	13.0	-190852.0	-2892.0	-35856.0
15	18	5	4	439	14.0	-191383.0	-2896.0	-35967.0
15	18	5	4	439	15.0	-191809.0	-2907.0	-36049.0
15	18	5	4	440	16.0	-192059.0	-2926.0	-35936.0
15	18	5	4	440	17.0	-191402.0	-2949.0	-36016.0
15	18	5	4	454	18.0	-190737.0	-2970.0	-35979.0
15	18	5	4	454	19.0	-190069.0	-2974.0	-36517.0
15	18	5	4	455	20.0	-188897.0	-2996.0	-36889.0
15	18	5	4	456	21.0	-188012.0	-3028.0	-37667.0
15	18	5	4	456	23.0	-186772.0	-3062.0	-37657.0
15	18	5	4	457	24.0	-186929.0	-3085.0	-37896.0
15	18	5	4	457	25.0	-187984.0	-3088.0	-37721.0
15	18	5	4	458	26.0	-189024.0	-3127.0	-37906.0
15	18	5	4	458	27.0	-189566.0	-3138.0	-38674.0
15	18	5	4	459	28.0	-191036.0	-3154.0	-38684.0
15	18	5	4	480	29.0	-192522.0	-3180.0	-38627.0
15	18	5	4	481	30.0	-193420.0	-3194.0	-39287.0
15	18	5	4	481	31.0	-194506.0	-3206.0	-40033.0
15	18	5	4	482	32.0	-195744.0	-3239.0	-39923.0
15	18	5	4	483	33.0	-196500.0	-3266.0	-40194.0
15	18	5	4	483	34.0	-196687.0	-3287.0	-40586.0
15	18	5	4	484	35.0	-197297.0	-3297.0	-40594.0
15	18	5	4	484	36.0	-198199.0	-3312.0	-40421.0
15	18	5	4	485	37.0	-198477.0	-3331.0	-40404.0
15	18	5	4	486	38.0	-199157.0	-3342.0	-40107.0
15	18	5	4	486	39.0	-200039.0	-3361.0	-39886.0
15	18	5	4	487	40.0	-200196.0	-3389.0	-40154.0
15	18	5	4	487	41.0	-199977.0	-3416.0	-40182.0
15	18	5	4	488	42.0	-200459.0	-3434.0	-40007.0
15	18	5	4	489	43.0	-200771.0	-3439.0	-40190.0
15	18	5	4	489	45.0	-201321.0	-3465.0	-40266.0
15	18	5	4	490	46.0	-202086.0	-3517.0	-40136.0
15	18	5	4	490	47.0	-202149.0	-3515.0	-39989.0
15	18	5	4	491	48.0	-202952.0	-3540.0	-39747.0
15	18	5	4	492	49.0	-203938.0	-3558.0	-39824.0
15	18	5	4	492	50.0	-204679.0	-3575.0	-39866.0
15	18	5	4	524	51.0	-205449.0	-3598.0	-39790.0
15	18	5	4	525	52.0	-206391.0	-3632.0	-39408.0
15	18	5	4	526	53.0	-207144.0	-3666.0	-39263.0
15	18	5	4	526	54.0	-207618.0	-3668.0	-39382.0
15	18	5	4	527	55.0	-207984.0	-3667.0	-38835.0
15	18	5	4	528	56.0	-207576.0	-3696.0	-38152.0
15	18	5	4	528	57.0	-207166.0	-3728.0	-37756.0
15	18	5	4	571	58.0	-206884.0	-3738.0	-37759.0
15	18	5	4	571	59.0	-206133.0	-3751.0	-36934.0
15	18	5	4	572	60.0	-205540.0	-3776.0	-36497.0
15	18	5	4	572	61.0	-204407.0	-3807.0	-36273.0
15	18	5	4	573	62.0	-203136.0	-3800.0	-35591.0
15	18	5	4	574	63.0	-201996.0	-3818.0	-35049.0
15	18	5	4	574	64.0	-200636.0	-3839.0	-34615.0
15	18	5	4	616	65.0	-199142.0	-3842.0	-33962.0
15	18	5	4	617	67.0	-196996.0	-3887.0	-33081.0
15	18	5	4	617	68.0	-196444.0	-3902.0	-32256.0
15	18	5	4	618	69.0	-196392.0	-3914.0	-31386.0
15	18	5	4	619	70.0	-196154.0	-3918.0	-31592.0
15	18	5	4	619	71.0	-195923.0	-3929.0	-30983.0
15	18	5	4	620	72.0	-196234.0	-3923.0	-30201.0
15	18	5	4	660	73.0	-195719.0	-3938.0	-29461.0
15	18	5	4	661	74.0	-195171.0	-3952.0	-29326.0
15	18	5	4	661	90.0	-198289.0	-3710.0	-27042.0
15	18	5	4	670	91.0	-198563.0	-3683.0	-27034.0
15	18	5	4	671	92.0	-198709.0	-3655.0	-27017.0
15	18	5	4	671	93.0	-198786.0	-3611.0	-26647.0
15	18	5	4	672	94.0	-199464.0	-3567.0	-26232.0
15	18	5	4	672	95.0	-199955.0	-3529.0	-25865.0
15	18	5	4	705	96.0	-200142.0	-3491.0	-25692.0
15	18	5	4	706	113.0	-175642.0	-2601.0	-27087.0
15	18	5	4	707	114.0	-168224.0	-2536.0	-27272.0
15	18	5	4	707	115.0	-166884.0	-2488.0	-26884.0
15	18	5	4	708	116.0	-171426.0	-2421.0	-26824.0
15	18	5	4	708	117.0	-180947.0	-2364.0	-27282.0
15	18	5	4	709	118.0	-192371.0	-2306.0	-27415.0
15	18	5	4	710	119.0	-204496.0	-2252.0	-27541.0
15	18	5	4	751	135.0	-189526.0	-1398.0	-27345.0
15	18	5	4	752	136.0	-185507.0	-1343.0	-27369.0
15	18	5	4	752	137.0	-181365.0	-1293.0	-27610.0
15	18	5	4	753	138.0	-177097.0	-1260.0	-27716.0
15	18	5	4	754	139.0	-173807.0	-1225.0	-27623.0
15	18	5	4	754	140.0	-171647.0	-1182.0	-27474.0
15	18	5	4	755	141.0	-170364.0	-1136.0	-27914.0
15	18	5	4	755	142.0	-170166.0	-1094.0	-27526.0
15	18	5	4	756	158.0	-207421.0	-551.0	-26087.0
15	18	5	4	757	159.0	-208732.0	-514.0	-25942.0
15	18	5	4	757	160.0	-210048.0	-484.0	-25876.0
15	18	5	4	758	161.0	-211329.0	-463.0	-25663.0
15	18	5	4	758	162.0	-212469.0	-435.0	-25535.0
15	18	5	4	759	163.0	-213655.0	-420.0	-25800.0
15	18	5	4	760	164.0	-215002.0	-391.0	-25663.0
15	18	5	4	760	180.0	-215872.0	-160.0	-24901.0
15	18	5	4	796	181.0	-213907.0	-142.0	-25032.0
15	18	5	4	796	182.0	-212004.0	-124.0	-24961.0
15	18	5	4	797	183.0	-209797.0	-125.0	-25157.0
15	18	5	4	798	184.0	-207484.0	-112.0	-25429.0
15	18	5	4	798	185.0	-205291.0	-109.0	-25274.0
15	18	5	4	799	186.0	-203375.0	-112.0	-25181.0
15	18	5	4	799	187.0	-201898.0	-82.0	-25496.0
15	18	5	4	800	188.0	-200791.0	-80.0	-25715.0
15	18	5	4	801	189.0	-199830.0	-72.0	-25754.0
15	18	5	4	802	190.0	-198707.0	-69.0	-25534.0
15	18	5	4	803	191.0	-197626.0	-72.0	-25237.0
15	18	5	4	803	192.0	-196393.0	-86.0	-24999.0
15	18	5	4	804	193.0	-195227.0	-80.0	-25076.0
15	18	5	4	805	194.0	-194147.0	-71.0	-24644.0
15	18	5	4	805	195.0	-193367.0	-71.0	-24758.0
15	18	5	4	806	196.0	-192979.0	-70.0	-24927.0
15	18	5	4	806	203.0	-190396.0	-78.0	-25319.0
15	18	5	4	807	204.0	-190649.0	-84.0	-25389.0
15	18	5	4	807	205.0	-191195.0	-79.0	-25315.0
15	18	5	4	808	206.0	-192279.0	-79.0	-25291.0
15	18	5	4	809	207.0	-193660.0	-86.0	-25257.0
15	18	5	4	809	208.0	-194967.0	-81.0	-25615.0
15	18	5	4	842	209.0	-196131.0	-74.0	-25752.0
15	18	5	4	843	210.0	-197321.0	-62.0	-25558.0
15	18	5	4	843	211.0	-198310.0	-61.0	-25914.0
15	18	5	4	844	212.0	-199192.0	-67.0	-25669.0
15	18	5	4	845	213.0	-200054.0	-76.0	-25434.0
15	18	5	4	845	214.0	-200855.0	-82.0	-25359.0
15	18	5	4	846	215.0	-201834.0	-88.0	-25360.0
15	18	5	4	846	216.0	-202648.0	-92.0	-25322.0
15	18	5	4	847	217.0	-203838.0	-77.0	-25219.0
15	18	5	4	848	218.0	-205055.0	-72.0	-25468.0
15	18	5	4	848	219.0	-206096.0	-82.0	-25538.0
15	18	5	4	849	220.0	-207148.0	-79.0	-25545.0
15	18	5	4	850	221.0	-208094.0	-78.0	-25937.0
15	18	5	4	850	222.0	-208917.0	-93.0	-25543.0
15	18	5	4	851	223.0	-209778.0	-89.0	-25541.0
15	18	5	4	851	225.0	-211566.0	-89.0	-25466.0
15	18	5	4	852	226.0	-212237.0	-96.0	-25665.0
15	18	5	4	853	227.0	-212625.0	-85.0	-26001.0
15	18	5	4	853	228.0	-212444.0	-79.0	-25842.0
15	18	5	4	854	229.0	-211937.0	-78.0	-26226.0
15	18	5	4	855	230.0	-211343.0	-87.0	-26282.0
15	18	5	4	886	231.0	-210453.0	-69.0	-26161.0
15	18	5	4	887	232.0	-209159.0	-49.0	-26128.0
15	18	5	4	887	233.0	-207436.0	-33.0	-26251.0
15	18	5	4	888	234.0	-205345.0	-54.0	-26090.0
15	18	5	4	888	235.0	-202671.0	-52.0	-26027.0
15	18	5	4	889	236.0	-200161.0	-39.0	-25996.0
15	18	5	4	890	237.0	-197278.0	-27.0	-26287.0
15	18	5	4	891	238.0	-194157.0	-29.0	-26513.0
15	18	5	4	891	239.0	-191099.0	-17.0	-26757.0
15	18	5	4	892	240.0	-188174.0	-29.0	-26694.0
15	18	5	4	893	241.0	-185523.0	-31.0	-26356.0
15	18	5	4	893	242.0	-183333.0	-14.0	-26286.0
15	18	5	4	894	243.0	-181684.0	6.0	-26089.0
15	18	5	4	894	244.0	-180352.0	22.0	-25792.0
15	18	5	4	895	245.0	-179517.0	22.0	-26549.0
15	18	5	4	896	247.0	-178694.0	-7.0	-26314.0
15	18	5	4	896	248.0	-178591.0	2.0	-26621.0
15	18	5	4	897	249.0	-178776.0	31.0	-26971.0
15	18	5	4	897	250.0	-179464.0	44.0	-26671.0
15	18	5	4	898	251.0	-180376.0	33.0	-26554.0
15	18	5	4	899	252.0	-181462.0	37.0	-26476.0
15	18	5	4	899	253.0	-182587.0	43.0	-26404.0
15	18	5	4	930	254.0	-184099.0	60.0	-26806.0
15	18	5	4	931	255.0	-186035.0	68.0	-26879.0
15	18	5	4	931	0.0	-187722.0	69.0	-26896.0
15	18	5	4	932	1.0	-189102.0	62.0	-27434.0
15	18	5	4	933	2.0	-190548.0	55.0	-27589.0
15	18	5	4	933	3.0	-192126.0	69.0	-27621.0
15	18	5	4	934	4.0	-193519.0	68.0	-27639.0
15	18	5	4	975	5.0	-195091.0	69.0	-27683.0
15	18	5	4	976	6.0	-196246.0	81.0	-27712.0
15	18	5	4	976	7.0	-197232.0	86.0	-27900.0
15	18	5	4	977	8.0	-198002.0	106.0	-27837.0
15	18	5	4	978	9.0	-198592.0	98.0	-28048.0
15	18	5	4	978	10.0	-198933.0	76.0	-28197.0
15	18	5	4	979	11.0	-199410.0	95.0	-28111.0
15	18	5	5	20	12.0	-199768.0	110.0	-27695.0
15	18	5	5	21	14.0	-199684.0	78.0	-27849.0
15	18	5	5	22	15.0	-199586.0	88.0	-27772.0
15	18	5	5	23	16.0	-199784.0	101.0	-27894.0
15	18	5	5	23	17.0	-200466.0	89.0	-27766.0
15	18	5	5	24	18.0	-201444.0	101.0	-27466.0
15	18	5	5	24	19.0	-202606.0	96.0	-27642.0
15	18	5	5	25	20.0	-203677.0	91.0	-27850.0
15	18	5	5	66	21.0	-204439.0	87.0	-27505.0
15	18	5	5	68	36.0	-202235.0	-4.0	-25960.0
15	18	5	5	69	37.0	-201486.0	-28.0	-25822.0
15	18	5	5	69	38.0	-200551.0	-24.0	-25981.0
15	18	5	5	70	39.0	-198950.0	-37.0	-26202.0
15	18	5	5	71	40.0	-197334.0	-47.0	-26416.0
15	18	5	5	72	41.0	-195883.0	-57.0	-26712.0
15	18	5	5	72	42.0	-194085.0	-69.0	-26756.0
15	18	5	5	110	59.0	-190917.0	-294.0	-29897.0
15	18	5	5	111	60.0	-193044.0	-307.0	-30866.0
15	18	5	5	111	61.0	-194902.0	-312.0	-29540.0
15	18	5	5	112	62.0	-196533.0	-347.0	-26129.0
15	18	5	5	113	63.0	-198142.0	-345.0	-21291.0
15	18	5	5	113	64.0	-199876.0	-357.0	-16673.0
15	18	5	5	114	65.0	-201521.0	-364.0	-14016.0
15	18	5	5	115	66.0	-202532.0	-381.0	-12174.0
15	18	5	5	115	81.0	-230674.0	-642.0	-16755.0
15	18	5	5	116	82.0	-231133.0	-660.0	-18663.0
15	18	5	5	116	83.0	-230936.0	-679.0	-19921.0
15	18	5	5	117	84.0	-229601.0	-696.0	-20572.0
15	18	5	5	118	85.0	-227245.0	-717.0	-21125.0
15	18	5	5	155	86.0	-224070.0	-732.0	-22237.0
15	18	5	5	156	87.0	-219497.0	-759.0	-23121.0
15	18	5	5	157	103.0	-152897.0	-1033.0	-28026.0
15	18	5	5	157	104.0	-163457.0	-1057.0	-27647.0
15	18	5	5	158	105.0	-174184.0	-1064.0	-27869.0
15	18	5	5	159	106.0	-185250.0	-1073.0	-28260.0
15	18	5	5	159	107.0	-196711.0	-1101.0	-28342.0
15	18	5	5	160	108.0	-208135.0	-1114.0	-28783.0
15	18	5	5	161	109.0	-218571.0	-1131.0	-28911.0
15	18	5	5	161	110.0	-227113.0	-1153.0	-29056.0
15	18	5	5	162	111.0	-233022.0	-1181.0	-29064.0
15	18	5	5	163	112.0	-235477.0	-1187.0	-29317.0
15	18	5	5	163	113.0	-234866.0	-1187.0	-29787.0
15	18	5	5	164	114.0	-232472.0	-1224.0	-30001.0
15	18	5	5	165	115.0	-229559.0	-1234.0	-29970.0
15	18	5	5	165	116.0	-226097.0	-1259.0	-29737.0
15	18	5	5	166	126.0	-200069.0	-1411.0	-30261.0
15	18	5	5	167	127.0	-200760.0	-1429.0	-30451.0
15	18	5	5	167	128.0	-201792.0	-1454.0	-30131.0
15	18	5	5	168	129.0	-202512.0	-1469.0	-29781.0
15	18	5	5	169	130.0	-202254.0	-1486.0	-30499.0
15	18	5	5	170	131.0	-201612.0	-1514.0	-30731.0
15	18	5	5	170	132.0	-200257.0	-1539.0	-30746.0
15	18	5	5	200	133.0	-198267.0	-1579.0	-31149.0
15	18	5	5	201	134.0	-196127.0	-1586.0	-30352.0
15	18	5	5	201	135.0	-193709.0	-1598.0	-30021.0
15	18	5	5	202	136.0	-191025.0	-1606.0	-30639.0
15	18	5	5	203	137.0	-188713.0	-1634.0	-30702.0
15	18	5	5	203	138.0	-186699.0	-1653.0	-31010.0
15	18	5	5	204	139.0	-184830.0	-1657.0	-31819.0
15	18	5	5	245	140.0	-183596.0	-1666.0	-31879.0
15	18	5	5	246	141.0	-183196.0	-1702.0	-31841.0
15	18	5	5	246	142.0	-183499.0	-1734.0	-32291.0
15	18	5	5	247	143.0	-184232.0	-1749.0	-32364.0
15	18	5	5	248	144.0	-185420.0	-1755.0	-32120.0
15	18	5	5	248	145.0	-186532.0	-1774.0	-32027.0
15	18	5	5	249	146.0	-187570.0	-1808.0	-32151.0
15	18	5	5	291	147.0	-188660.0	-1826.0	-31777.0
15	18	5	5	291	148.0	-189341.0	-1844.0	-31861.0
15	18	5	5	292	149.0	-189719.0	-1859.0	-31765.0
15	18	5	5	293	150.0	-190134.0	-1881.0	-32136.0
15	18	5	5	293	151.0	-190158.0	-1894.0	-32568.0
15	18	5	5	294	152.0	-189801.0	-1918.0	-32992.0
15	18	5	5	294	153.0	-189436.0	-1954.0	-32929.0
15	18	5	5	335	154.0	-188765.0	-1966.0	-33031.0
15	18	5	5	336	155.0	-188182.0	-1983.0	-33172.0
15	18	5	5	336	171.0	-180767.0	-2331.0	-36447.0
15	18	5	5	337	172.0	-182474.0	-2354.0	-36946.0
15	18	5	5	338	173.0	-184721.0	-2374.0	-37655.0
15	18	5	5	338	174.0	-187944.0	-2384.0	-37755.0
15	18	5	5	339	175.0	-191283.0	-2408.0	-37804.0
15	18	5	5	381	176.0	-194390.0	-2444.0	-38138.0
15	18	5	5	382	177.0	-197132.0	-2443.0	-37873.0
15	18	5	5	382	194.0	-205082.0	-2852.0	-35698.0
15	18	5	5	383	195.0	-204374.0	-2846.0	-34937.0
15	18	5	5	384	196.0	-203352.0	-2867.0	-34431.0
15	18	5	5	384	197.0	-202149.0	-2901.0	-33874.0
15	18	5	5	385	198.0	-200990.0	-2912.0	-33085.0
15	18	5	5	425	199.0	-199872.0	-2934.0	-32322.0
15	18	5	5	426	200.0	-198697.0	-2943.0	-31809.0
15	18	5	5	427	216.0	-191226.0	-3077.0	-24924.0
15	18	5	5	428	217.0	-191699.0	-3060.0	-24985.0
15	18	5	5	428	218.0	-192498.0	-3039.0	-24592.0
15	18	5	5	429	219.0	-193606.0	-3031.0	-24483.0
15	18	5	5	430	220.0	-194129.0	-3008.0	-24341.0
15	18	5	5	471	221.0	-194859.0	-2992.0	-24401.0
15	18	5	5	471	222.0	-195575.0	-2972.0	-24301.0
15	18	5	5	472	239.0	-204766.0	-2326.0	-22791.0
15	18	5	5	473	240.0	-204996.0	-2272.0	-22879.0
15	18	5	5	473	241.0	-204965.0	-2207.0	-23080.0
15	18	5	5	474	242.0	-204617.0	-2149.0	-22823.0
15	18	5	5	475	243.0	-203003.0	-2110.0	-22992.0
15	18	5	5	476	244.0	-199941.0	-2052.0	-22836.0
15	18	5	5	476	245.0	-193950.0	-2012.0	-22408.0
15	18	5	5	477	5.0	-229129.0	-1125.0	-21946.0
15	18	5	5	478	6.0	-225737.0	-1066.0	-22299.0
15	18	5	5	479	7.0	-222186.0	-1001.0	-22391.0
15	18	5	5	479	8.0	-218809.0	-950.0	-22371.0
15	18	5	5	480	9.0	-215391.0	-906.0	-21930.0
15	18	5	5	481	10.0	-211461.0	-861.0	-21899.0
15	18	5	5	482	11.0	-207435.0	-824.0	-22326.0
15	18	5	5	482	27.0	-185138.0	-142.0	-22336.0
15	18	5	5	483	28.0	-187225.0	-112.0	-22262.0
15	18	5	5	484	29.0	-188776.0	-79.0	-22372.0
15	18	5	5	484	30.0	-189516.0	-49.0	-22211.0
15	18	5	5	485	31.0	-189631.0	3.0	-22442.0
15	18	5	5	486	32.0	-189512.0	31.0	-22416.0
15	18	5	5	486	33.0	-189547.0	61.0	-22178.0
15	18	5	5	516	34.0	-189515.0	83.0	-22376.0
15	18	5	5	517	35.0	-189906.0	108.0	-21856.0
15	18	5	5	518	36.0	-191219.0	122.0	-21645.0
15	18	5	5	518	37.0	-192802.0	149.0	-21894.0
15	18	5	5	519	38.0	-194961.0	169.0	-21872.0
15	18	5	5	519	39.0	-197616.0	199.0	-21998.0
15	18	5	5	520	40.0	-200081.0	243.0	-21951.0
15	18	5	5	521	41.0	-202522.0	253.0	-22088.0
15	18	5	5	521	42.0	-205601.0	274.0	-22056.0
15	18	5	5	522	43.0	-208361.0	299.0	-21704.0
15	18	5	5	523	44.0	-210277.0	326.0	-21643.0
15	18	5	5	523	45.0	-212252.0	333.0	-21865.0
15	18	5	5	524	46.0	-213864.0	358.0	-21441.0
15	18	5	5	563	47.0	-215007.0	380.0	-21234.0
15	18	5	5	563	48.0	-216212.0	403.0	-21297.0
15	18	5	5	564	50.0	-217826.0	441.0	-21140.0
15	18	5	5	565	51.0	-217971.0	448.0	-21256.0
15	18	5	5	565	52.0	-217649.0	448.0	-21007.0
15	18	5	5	566	53.0	-217362.0	469.0	-20339.0
15	18	5	5	567	54.0	-216901.0	479.0	-20520.0
15	18	5	5	567	55.0	-216551.0	489.0	-21154.0
15	18	5	5	568	56.0	-216293.0	499.0	-20911.0
15	18	5	5	569	57.0	-215561.0	504.0	-20922.0
15	18	5	5	569	58.0	-214437.0	521.0	-21382.0
15	18	5	5	570	59.0	-213366.0	516.0	-20949.0
15	18	5	5	571	60.0	-211957.0	526.0	-20588.0
15	18	5	5	571	61.0	-210424.0	543.0	-21007.0
15	18	5	5	572	62.0	-208576.0	551.0	-20758.0
15	18	5	5	573	63.0	-206471.0	536.0	-20397.0
15	18	5	5	573	72.0	-192692.0	569.0	-20609.0
15	18	5	5	574	73.0	-192887.0	574.0	-20611.0
15	18	5	5	575	74.0	-193562.0	586.0	-20669.0
15	18	5	5	575	75.0	-194206.0	572.0	-20857.0
15	18	5	5	576	76.0	-195481.0	563.0	-21037.0
15	18	5	5	576	77.0	-197503.0	552.0	-21091.0
15	18	5	5	577	78.0	-199677.0	545.0	-21093.0
15	18	5	5	606	79.0	-201546.0	553.0	-21166.0
15	18	5	5	607	80.0	-203337.0	559.0	-21155.0
15	18	5	5	608	81.0	-204768.0	548.0	-21156.0
15	18	5	5	608	82.0	-205861.0	536.0	-21180.0
15	18	5	5	609	83.0	-207062.0	529.0	-21053.0
15	18	5	5	610	84.0	-207957.0	537.0	-21003.0
15	18	5	5	610	85.0	-208582.0	540.0	-21269.0
15	18	5	5	650	86.0	-209184.0	526.0	-21026.0
15	18	5	5	651	87.0	-209375.0	534.0	-21024.0
15	18	5	5	652	88.0	-209504.0	530.0	-21282.0
15	18	5	5	652	89.0	-209149.0	535.0	-21327.0
15	18	5	5	653	90.0	-208233.0	525.0	-21111.0
15	18	5	5	654	91.0	-207796.0	524.0	-21518.0
15	18	5	5	655	92.0	-207004.0	533.0	-21493.0
15	18	5	5	655	93.0	-205648.0	532.0	-21122.0
15	18	5	5	656	95.0	-203398.0	511.0	-21825.0
15	18	5	5	657	96.0	-202102.0	506.0	-21255.0
15	18	5	5	658	97.0	-201329.0	483.0	-21049.0
15	18	5	5	658	98.0	-200166.0	501.0	-21242.0
15	18	5	5	659	99.0	-199042.0	505.0	-21132.0
15	18	5	5	660	100.0	-198039.0	483.0	-21082.0
15	18	5	5	660	101.0	-196775.0	496.0	-21484.0
15	18	5	5	661	102.0	-195528.0	486.0	-21527.0
15	18	5	5	661	117.0	-183063.0	544.0	-21478.0
15	18	5	5	662	118.0	-184096.0	555.0	-21695.0
15	18	5	5	663	119.0	-185179.0	568.0	-21444.0
15	18	5	5	663	120.0	-186624.0	584.0	-21285.0
15	18	5	5	664	121.0	-188339.0	573.0	-21292.0
15	18	5	5	665	122.0	-190171.0	566.0	-21381.0
15	18	5	5	665	123.0	-191734.0	584.0	-21339.0
15	18	5	5	695	124.0	-193147.0	598.0	-21407.0
15	18	5	5	695	125.0	-194779.0	589.0	-21785.0
15	18	5	5	696	126.0	-196341.0	609.0	-21337.0
15	18	5	5	697	127.0	-197748.0	623.0	-21031.0
15	18	5	5	697	128.0	-199036.0	624.0	-21399.0
15	18	5	5	698	129.0	-200255.0	626.0	-21296.0
15	18	5	5	699	130.0	-201366.0	631.0	-21306.0
15	18	5	5	700	131.0	-202164.0	628.0	-21863.0
15	18	5	5	700	132.0	-202492.0	647.0	-21957.0
15	18	5	5	701	133.0	-202372.0	646.0	-21854.0
15	18	5	5	702	134.0	-202469.0	643.0	-22299.0
15	18	5	5	702	135.0	-202316.0	640.0	-22272.0
15	18	5	5	703	136.0	-202004.0	635.0	-22017.0
15	18	5	5	704	137.0	-202039.0	659.0	-22102.0
15	18	5	5	704	138.0	-202214.0	658.0	-22232.0
15	18	5	5	705	139.0	-201950.0	663.0	-21999.0
15	18	5	5	706	140.0	-201589.0	674.0	-22276.0
15	18	5	5	706	141.0	-201464.0	681.0	-22482.0
15	18	5	5	707	142.0	-201034.0	672.0	-22226.0
15	18	5	5	708	143.0	-200399.0	667.0	-22211.0
15	18	5	5	708	144.0	-199694.0	657.0	-22321.0
15	18	5	5	709	145.0	-198584.0	670.0	-22307.0
15	18	5	5	740	146.0	-197229.0	684.0	-22243.0
15	18	5	5	741	147.0	-195999.0	689.0	-22243.0
15	18	5	5	742	148.0	-194709.0	680.0	-22229.0
15	18	5	5	743	149.0	-193500.0	690.0	-22432.0
15	18	5	5	743	150.0	-192660.0	680.0	-22091.0
15	18	5	5	744	151.0	-191929.0	668.0	-22334.0
15	18	5	5	745	152.0	-191291.0	656.0	-22426.0
15	18	5	5	786	153.0	-191009.0	668.0	-22118.0
15	18	5	5	787	154.0	-191091.0	659.0	-21969.0
15	18	5	5	787	155.0	-191297.0	652.0	-21765.0
15	18	5	5	788	156.0	-191632.0	658.0	-21591.0
15	18	5	5	789	157.0	-192562.0	659.0	-21342.0
15	18	5	5	790	158.0	-193642.0	653.0	-20970.0
15	18	5	5	790	159.0	-194391.0	655.0	-21146.0
15	18	5	5	791	160.0	-195762.0	639.0	-21019.0
15	18	5	5	792	162.0	-198696.0	623.0	-20815.0
15	18	5	5	793	163.0	-199557.0	623.0	-20911.0
15	18	5	5	793	164.0	-200941.0	621.0	-20724.0
15	18	5	5	794	165.0	-202358.0	619.0	-20872.0
15	18	5	5	795	166.0	-202949.0	610.0	-20406.0
15	18	5	5	796	167.0	-203370.0	590.0	-20220.0
15	18	5	5	796	168.0	-204086.0	579.0	-20305.0
15	18	5	5	797	169.0	-204004.0	578.0	-20152.0
15	18	5	5	798	185.0	-179427.0	378.0	-19586.0
15	18	5	5	799	186.0	-178367.0	363.0	-19682.0
15	18	5	5	799	187.0	-177414.0	356.0	-20095.0
15	18	5	5	800	188.0	-176818.0	338.0	-20547.0
15	18	5	5	800	189.0	-176719.0	321.0	-21551.0
15	18	5	5	801	190.0	-177022.0	306.0	-22424.0
15	18	5	5	831	191.0	-177752.0	283.0	-22990.0
15	18	5	5	831	192.0	-179249.0	259.0	-24401.0
15	18	5	5	832	193.0	-181600.0	265.0	-23856.0
15	18	5	5	833	194.0	-184131.0	239.0	-20147.0
15	18	5	5	834	195.0	-187159.0	215.0	-15704.0
15	18	5	5	834	196.0	-191059.0	197.0	-11671.0
15	18	5	5	835	197.0	-194558.0	173.0	-8860.0
15	18	5	5	835	198.0	-197719.0	163.0	-7131.0
15	18	5	5	875	199.0	-201490.0	154.0	-6034.0
15	18	5	5	876	200.0	-205011.0	140.0	-5432.0
15	18	5	5	877	201.0	-208254.0	104.0	-5326.0
15	18	5	5	878	202.0	-211446.0	73.0	-5223.0
15	18	5	5	878	203.0	-214056.0	46.0	-4790.0
15	18	5	5	879	204.0	-216093.0	47.0	-5696.0
15	18	5	5	880	205.0	-217921.0	31.0	-6509.0
15	18	5	5	880	207.0	-221684.0	-2.0	-6339.0
15	18	5	5	881	208.0	-223561.0	-34.0	-6772.0
15	18	5	5	882	209.0	-225510.0	-40.0	-6215.0
15	18	5	5	882	210.0	-227727.0	-29.0	-6741.0
15	18	5	5	883	211.0	-229680.0	-74.0	-8162.0
15	18	5	5	884	212.0	-231369.0	-106.0	-9711.0
15	18	5	5	884	213.0	-232803.0	-127.0	-11516.0
15	18	5	5	885	214.0	-233430.0	-140.0	-13799.0
15	18	5	5	886	229.0	-129486.0	-471.0	-22762.0
15	18	5	5	886	230.0	-127507.0	-473.0	-22627.0
15	18	5	5	887	231.0	-129592.0	-507.0	-22565.0
15	18	5	5	888	232.0	-135388.0	-527.0	-22814.0
15	18	5	5	888	233.0	-144191.0	-545.0	-22923.0
15	18	5	5	889	234.0	-155316.0	-554.0	-23082.0
15	18	5	5	889	235.0	-167481.0	-581.0	-23558.0
15	18	5	5	923	236.0	-179336.0	-621.0	-23467.0
15	18	5	5	923	237.0	-191577.0	-660.0	-22946.0
15	18	5	5	924	238.0	-204769.0	-658.0	-23154.0
15	18	5	5	925	239.0	-217440.0	-688.0	-23462.0
15	18	5	5	926	240.0	-228516.0	-719.0	-23195.0
15	18	5	5	926	241.0	-237324.0	-732.0	-23301.0
15	18	5	5	927	242.0	-242898.0	-761.0	-23226.0
15	18	5	5	928	243.0	-245042.0	-788.0	-23103.0
15	18	5	5	929	244.0	-244437.0	-820.0	-23271.0
15	18	5	5	930	245.0	-242416.0	-836.0	-23698.0
15	18	5	5	931	246.0	-238717.0	-841.0	-23437.0
15	18	5	5	931	247.0	-233150.0	-881.0	-22744.0
15	18	5	5	932	248.0	-226413.0	-904.0	-23172.0
15	18	5	5	933	249.0	-217969.0	-921.0	-23403.0
15	18	5	5	933	250.0	-208998.0	-946.0	-23156.0
15	18	5	5	934	252.0	-194054.0	-1001.0	-23387.0
15	18	5	5	935	253.0	-186804.0	-1010.0	-23886.0
15	18	5	5	935	254.0	-179829.0	-1027.0	-24241.0
15	18	5	5	936	255.0	-174049.0	-1054.0	-24018.0
15	18	5	5	936	0.0	-169904.0	-1069.0	-23647.0
15	18	5	5	937	1.0	-167645.0	-1089.0	-23927.0
15	18	5	5	966	2.0	-167584.0	-1106.0	-23957.0
15	18	5	5	966	3.0	-168443.0	-1139.0	-23804.0
15	18	5	5	967	4.0	-169803.0	-1176.0	-24370.0
15	18	5	5	968	5.0	-171867.0	-1196.0	-24429.0
15	18	5	5	969	6.0	-173291.0	-1218.0	-24634.0
15	18	5	5	969	7.0	-174103.0	-1229.0	-25141.0
15	18	5	5	970	8.0	-174370.0	-1252.0	-24739.0
15	18	5	5	971	9.0	-174011.0	-1286.0	-24717.0
15	18	5	5	971	10.0	-173103.0	-1297.0	-25075.0
15	18	5	5	972	11.0	-172077.0	-1322.0	-25179.0
15	18	5	5	972	12.0	-171341.0	-1339.0	-25298.0
15	18	5	5	973	13.0	-170650.0	-1357.0	-25676.0
15	18	5	5	974	14.0	-170325.0	-1386.0	-25735.0
15	18	5	5	974	15.0	-170539.0	-1413.0	-25396.0
15	18	5	5	975	16.0	-171677.0	-1452.0	-25759.0
15	18	5	5	975	18.0	-175543.0	-1474.0	-25652.0
15	18	5	5	976	19.0	-178476.0	-1503.0	-25622.0
15	18	5	5	976	20.0	-181262.0	-1523.0	-25837.0
15	18	5	5	977	21.0	-183425.0	-1539.0	-25615.0
15	18	5	5	978	22.0	-185840.0	-1556.0	-25949.0
15	18	5	5	978	23.0	-188379.0	-1578.0	-26289.0
15	18	5	5	979	24.0	-190133.0	-1605.0	-26200.0
15	18	5	6	10	25.0	-191574.0	-1621.0	-26364.0
15	18	5	6	10	26.0	-192419.0	-1650.0	-26808.0
15	18	5	6	11	27.0	-193018.0	-1685.0	-27099.0
15	18	5	6	11	28.0	-193161.0	-1701.0	-27552.0
15	18	5	6	12	29.0	-193105.0	-1714.0	-27967.0
15	18	5	6	13	30.0	-193141.0	-1740.0	-27564.0
15	18	5	6	13	31.0	-193467.0	-1768.0	-27400.0
15	18	5	6	14	32.0	-194447.0	-1789.0	-27632.0
15	18	5	6	15	33.0	-195684.0	-1795.0	-27721.0
15	18	5	6	15	34.0	-196816.0	-1830.0	-27981.0
15	18	5	6	16	35.0	-197952.0	-1847.0	-28561.0
15	18	5	6	16	36.0	-199018.0	-1877.0	-29172.0
15	18	5	6	17	37.0	-199827.0	-1894.0	-29937.0
15	18	5	6	18	38.0	-200316.0	-1898.0	-30278.0
15	18	5	6	18	39.0	-200800.0	-1924.0	-30255.0
15	18	5	6	19	41.0	-201397.0	-1990.0	-30995.0
15	18	5	6	20	42.0	-201467.0	-2004.0	-31259.0
15	18	5	6	20	43.0	-201754.0	-2025.0	-31444.0
15	18	5	6	21	44.0	-201720.0	-2046.0	-31889.0
15	18	5	6	21	45.0	-201277.0	-2067.0	-32069.0
15	18	5	6	22	46.0	-200742.0	-2096.0	-32491.0
15	18	5	6	56	47.0	-200511.0	-2101.0	-33032.0
15	18	5	6	56	48.0	-200606.0	-2115.0	-32913.0
15	18	5	6	57	49.0	-200994.0	-2137.0	-33146.0
15	18	5	6	57	50.0	-201701.0	-2164.0	-33278.0
15	18	5	6	58	51.0	-202482.0	-2189.0	-33104.0
15	18	5	6	59	52.0	-203511.0	-2210.0	-33143.0
15	18	5	6	59	53.0	-204516.0	-2237.0	-33567.0
15	18	5	6	100	54.0	-205738.0	-2264.0	-34060.0
15	18	5	6	102	55.0	-206941.0	-2286.0	-34259.0
15	18	5	6	102	56.0	-208127.0	-2304.0	-34381.0
15	18	5	6	103	57.0	-208580.0	-2331.0	-34811.0
15	18	5	6	104	58.0	-208588.0	-2350.0	-34407.0
15	18	5	6	104	59.0	-208389.0	-2368.0	-34384.0
15	18	5	6	105	60.0	-207635.0	-2400.0	-34117.0
15	18	5	6	105	61.0	-206589.0	-2420.0	-33705.0
15	18	5	6	106	63.0	-204417.0	-2451.0	-33260.0
15	18	5	6	107	64.0	-202791.0	-2478.0	-32652.0
15	18	5	6	107	65.0	-201497.0	-2506.0	-32581.0
15	18	5	6	108	66.0	-200357.0	-2509.0	-32895.0
15	18	5	6	108	67.0	-198502.0	-2543.0	-32483.0
15	18	5	6	109	68.0	-196477.0	-2572.0	-32044.0
15	18	5	6	109	69.0	-194937.0	-2599.0	-31441.0
15	18	5	6	110	70.0	-193204.0	-2617.0	-30820.0
15	18	5	6	111	86.0	-196382.0	-2799.0	-23381.0
15	18	5	6	111	87.0	-198049.0	-2789.0	-23199.0
15	18	5	6	112	88.0	-199425.0	-2766.0	-22622.0
15	18	5	6	112	89.0	-200962.0	-2781.0	-22171.0
15	18	5	6	113	90.0	-202329.0	-2769.0	-21982.0
15	18	5	6	113	91.0	-203295.0	-2763.0	-21748.0
15	18	5	6	114	92.0	-203988.0	-2744.0	-21281.0
15	18	5	6	145	93.0	-204582.0	-2728.0	-21722.0
15	18	5	6	146	94.0	-204899.0	-2712.0	-21310.0
15	18	5	6	146	95.0	-205202.0	-2687.0	-21176.0
15	18	5	6	147	96.0	-205370.0	-2652.0	-21165.0
15	18	5	6	148	97.0	-205269.0	-2632.0	-21402.0
15	18	5	6	148	98.0	-204699.0	-2597.0	-20940.0
15	18	5	6	149	99.0	-203889.0	-2572.0	-20774.0
15	18	5	6	190	100.0	-203232.0	-2542.0	-20694.0
15	18	5	6	192	101.0	-202221.0	-2502.0	-20464.0
15	18	5	6	193	102.0	-201087.0	-2471.0	-20614.0
15	18	5	6	193	103.0	-199961.0	-2429.0	-20547.0
15	18	5	6	194	104.0	-198927.0	-2377.0	-20421.0
15	18	5	6	195	105.0	-197846.0	-2348.0	-20321.0
15	18	5	6	196	106.0	-196726.0	-2303.0	-20528.0
15	18	5	6	196	107.0	-195853.0	-2274.0	-20314.0
15	18	5	6	197	108.0	-195319.0	-2212.0	-20197.0
15	18	5	6	197	109.0	-195296.0	-2155.0	-20298.0
15	18	5	6	198	110.0	-196008.0	-2114.0	-19916.0
15	18	5	6	199	111.0	-197289.0	-2062.0	-19815.0
15	18	5	6	199	112.0	-199082.0	-2004.0	-19625.0
15	18	5	6	200	113.0	-201159.0	-1943.0	-19882.0
15	18	5	6	200	114.0	-202952.0	-1901.0	-20283.0
15	18	5	6	201	115.0	-204694.0	-1841.0	-20605.0
15	18	5	6	201	131.0	-208488.0	-884.0	-19607.0
15	18	5	6	202	132.0	-214483.0	-802.0	-19699.0
15	18	5	6	203	133.0	-217856.0	-751.0	-19844.0
15	18	5	6	203	134.0	-220796.0	-710.0	-19789.0
15	18	5	6	204	135.0	-222954.0	-651.0	-19571.0
15	18	5	6	204	136.0	-223490.0	-584.0	-19894.0
15	18	5	6	236	137.0	-223714.0	-517.0	-19992.0
15	18	5	6	237	138.0	-223096.0	-471.0	-19848.0
15	18	5	6	237	139.0	-220216.0	-431.0	-19796.0
15	18	5	6	238	140.0	-216204.0	-383.0	-19639.0
15	18	5	6	238	141.0	-212196.0	-330.0	-19652.0
15	18	5	6	239	142.0	-207753.0	-274.0	-19530.0
15	18	5	6	240	143.0	-202858.0	-222.0	-19564.0
15	18	5	6	240	144.0	-197466.0	-177.0	-19490.0
15	18	5	6	241	145.0	-191699.0	-130.0	-19325.0
15	18	5	6	242	146.0	-186031.0	-66.0	-19592.0
15	18	5	6	242	147.0	-180752.0	-27.0	-19861.0
15	18	5	6	243	148.0	-176537.0	4.0	-19711.0
15	18	5	6	244	149.0	-173244.0	61.0	-19344.0
15	18	5	6	244	150.0	-170210.0	108.0	-19262.0
15	18	5	6	245	151.0	-167633.0	149.0	-19382.0
15	18	5	6	245	153.0	-165843.0	238.0	-19286.0
15	18	5	6	246	154.0	-166194.0	283.0	-19454.0
15	18	5	6	247	155.0	-167260.0	316.0	-19436.0
15	18	5	6	247	156.0	-169151.0	371.0	-19500.0
15	18	5	6	248	157.0	-171676.0	408.0	-20027.0
15	18	5	6	248	158.0	-174451.0	448.0	-19655.0
15	18	5	6	280	159.0	-177369.0	458.0	-19173.0
15	18	5	6	280	160.0	-180592.0	491.0	-19332.0
15	18	5	6	281	161.0	-183531.0	533.0	-19067.0
15	18	5	6	281	162.0	-186008.0	582.0	-18606.0
15	18	5	6	282	163.0	-188147.0	603.0	-18832.0
15	18	5	6	283	164.0	-190034.0	654.0	-19097.0
15	18	5	6	283	165.0	-191434.0	681.0	-19052.0
15	18	5	6	284	166.0	-192812.0	698.0	-19435.0
15	18	5	6	284	167.0	-194296.0	734.0	-19897.0
15	18	5	6	285	168.0	-196129.0	775.0	-19533.0
15	18	5	6	286	169.0	-198485.0	814.0	-19212.0
15	18	5	6	286	170.0	-201168.0	830.0	-19374.0
15	18	5	6	287	171.0	-204163.0	841.0	-19536.0
15	18	5	6	288	172.0	-207522.0	859.0	-19132.0
15	18	5	6	288	173.0	-210631.0	880.0	-19311.0
15	18	5	6	289	175.0	-216073.0	948.0	-19406.0
15	18	5	6	290	176.0	-218238.0	970.0	-19596.0
15	18	5	6	291	177.0	-220092.0	979.0	-19666.0
15	18	5	6	291	178.0	-221549.0	1001.0	-19622.0
15	18	5	6	292	179.0	-222718.0	1023.0	-19430.0
15	18	5	6	293	180.0	-223397.0	1043.0	-19371.0
15	18	5	6	293	181.0	-223662.0	1041.0	-19393.0
15	18	5	6	325	182.0	-223524.0	1059.0	-19117.0
15	18	5	6	326	183.0	-222885.0	1084.0	-19342.0
15	18	5	6	327	184.0	-221689.0	1101.0	-19607.0
15	18	5	6	327	185.0	-220262.0	1112.0	-19491.0
15	18	5	6	328	186.0	-218576.0	1116.0	-19559.0
15	18	5	6	329	187.0	-216710.0	1134.0	-20069.0
15	18	5	6	329	188.0	-214998.0	1150.0	-19930.0
15	18	5	6	330	189.0	-213327.0	1158.0	-20135.0
15	18	5	6	330	190.0	-211697.0	1167.0	-19873.0
15	18	5	6	331	191.0	-210237.0	1166.0	-19952.0
15	18	5	6	332	192.0	-208826.0	1179.0	-19475.0
15	18	5	6	332	193.0	-207594.0	1204.0	-19137.0
15	18	5	6	333	194.0	-206699.0	1208.0	-19343.0
15	18	5	6	333	195.0	-206223.0	1199.0	-19304.0
15	18	5	6	334	196.0	-206149.0	1199.0	-19166.0
15	18	5	6	335	198.0	-205609.0	1200.0	-19272.0
15	18	5	6	335	199.0	-205127.0	1204.0	-19228.0
15	18	5	6	336	200.0	-204841.0	1219.0	-19131.0
15	18	5	6	336	201.0	-204731.0	1220.0	-19011.0
15	18	5	6	337	202.0	-204452.0	1220.0	-18745.0
15	18	5	6	337	203.0	-204159.0	1236.0	-19126.0
15	18	5	6	370	204.0	-203953.0	1235.0	-19566.0
15	18	5	6	370	205.0	-203756.0	1228.0	-19159.0
15	18	5	6	371	206.0	-203584.0	1225.0	-18987.0
15	18	5	6	372	207.0	-203591.0	1234.0	-19254.0
15	18	5	6	372	208.0	-203435.0	1246.0	-18884.0
15	18	5	6	373	209.0	-202919.0	1243.0	-18763.0
15	18	5	6	374	210.0	-202462.0	1251.0	-19173.0
15	18	5	6	374	211.0	-202220.0	1236.0	-19026.0
15	18	5	6	375	212.0	-202005.0	1234.0	-19066.0
15	18	5	6	376	213.0	-201908.0	1240.0	-19050.0
15	18	5	6	376	214.0	-201902.0	1234.0	-19237.0
15	18	5	6	377	215.0	-202112.0	1220.0	-19046.0
15	18	5	6	377	216.0	-202470.0	1234.0	-19292.0
15	18	5	6	378	217.0	-202634.0	1231.0	-19317.0
15	18	5	6	379	218.0	-202300.0	1231.0	-19254.0
15	18	5	6	379	220.0	-200997.0	1216.0	-19442.0
15	18	5	6	380	221.0	-200102.0	1212.0	-19549.0
15	18	5	6	381	222.0	-199420.0	1231.0	-19566.0
15	18	5	6	381	223.0	-198929.0	1228.0	-19449.0
15	18	5	6	382	224.0	-198609.0	1208.0	-19502.0
15	18	5	6	382	225.0	-198393.0	1201.0	-20027.0
15	18	5	6	383	226.0	-198470.0	1235.0	-20174.0
15	18	5	6	415	227.0	-198576.0	1236.0	-20094.0
15	18	5	6	416	228.0	-198791.0	1214.0	-20084.0
15	18	5	6	416	229.0	-199465.0	1209.0	-19625.0
15	18	5	6	417	230.0	-200646.0	1204.0	-19729.0
15	18	5	6	417	231.0	-202072.0	1212.0	-20014.0
15	18	5	6	418	232.0	-203851.0	1206.0	-19911.0
15	18	5	6	419	233.0	-206403.0	1224.0	-19737.0
15	18	5	6	419	234.0	-208968.0	1221.0	-20309.0
15	18	5	6	461	235.0	-211341.0	1227.0	-20161.0
15	18	5	6	461	236.0	-213957.0	1237.0	-19900.0
15	18	5	6	463	237.0	-216394.0	1225.0	-20418.0
15	18	5	6	464	238.0	-218104.0	1211.0	-20309.0
15	18	5	6	465	239.0	-219454.0	1224.0	-20213.0
15	18	5	6	465	240.0	-220476.0	1232.0	-20524.0
15	18	5	6	466	241.0	-220841.0	1234.0	-20415.0
15	18	5	6	467	243.0	-219108.0	1237.0	-19804.0
15	18	5	6	467	244.0	-217299.0	1243.0	-20048.0
15	18	5	6	468	245.0	-214831.0	1245.0	-19706.0
15	18	5	6	468	246.0	-211911.0	1247.0	-20314.0
15	18	5	6	469	247.0	-208606.0	1264.0	-20586.0
15	18	5	6	470	248.0	-204952.0	1261.0	-20212.0
15	18	5	6	470	249.0	-201252.0	1267.0	-20471.0
15	18	5	6	471	250.0	-197631.0	1283.0	-20526.0
15	18	5	6	471	9.0	-191564.0	1308.0	-22042.0
15	18	5	6	472	10.0	-192346.0	1316.0	-22212.0
15	18	5	6	472	11.0	-193283.0	1314.0	-22282.0
15	18	5	6	473	12.0	-194034.0	1314.0	-22594.0
15	18	5	6	474	13.0	-194937.0	1318.0	-22313.0
15	18	5	6	474	14.0	-195767.0	1324.0	-22536.0
15	18	5	6	475	15.0	-196312.0	1324.0	-23057.0
15	18	5	6	505	16.0	-196572.0	1317.0	-23106.0
15	18	5	6	506	17.0	-196456.0	1312.0	-22937.0
15	18	5	6	507	18.0	-196111.0	1304.0	-22989.0
15	18	5	6	508	19.0	-195671.0	1304.0	-22674.0
15	18	5	6	508	20.0	-195381.0	1313.0	-22764.0
15	18	5	6	509	21.0	-195356.0	1311.0	-22825.0
15	18	5	6	509	22.0	-195630.0	1312.0	-22637.0
15	18	5	6	510	23.0	-196232.0	1312.0	-22485.0
15	18	5	6	511	24.0	-197099.0	1304.0	-22351.0
15	18	5	6	511	25.0	-198103.0	1306.0	-22471.0
15	18	5	6	512	26.0	-199234.0	1292.0	-22661.0
15	18	5	6	513	27.0	-199911.0	1294.0	-22767.0
15	18	5	6	513	28.0	-200122.0	1298.0	-23143.0
15	18	5	6	514	29.0	-200151.0	1281.0	-23034.0
15	18	5	6	514	30.0	-200306.0	1289.0	-22491.0
15	18	5	6	515	32.0	-200632.0	1267.0	-22536.0
15	18	5	6	516	33.0	-200264.0	1268.0	-22293.0
15	18	5	6	516	34.0	-199508.0	1274.0	-22059.0
15	18	5	6	517	35.0	-198746.0	1259.0	-21887.0
15	18	5	6	517	36.0	-197756.0	1259.0	-22007.0
15	18	5	6	518	37.0	-196357.0	1256.0	-22255.0
15	18	5	6	550	38.0	-194711.0	1236.0	-22385.0
15	18	5	6	550	39.0	-193154.0	1218.0	-22408.0
15	18	5	6	551	40.0	-191574.0	1203.0	-22393.0
15	18	5	6	552	41.0	-190075.0	1186.0	-22278.0
15	18	5	6	552	42.0	-188569.0	1177.0	-22331.0
15	18	5	6	553	43.0	-186955.0	1159.0	-21779.0
15	18	5	6	553	44.0	-185582.0	1143.0	-21600.0
15	18	5	6	554	45.0	-184286.0	1140.0	-21794.0
15	18	5	6	640	46.0	-182852.0	1139.0	-21768.0
15	18	5	6	641	47.0	-181588.0	1123.0	-21576.0
15	18	5	6	642	48.0	-180693.0	1115.0	-21723.0
15	18	5	6	642	49.0	-179788.0	1088.0	-22053.0
15	18	5	6	643	50.0	-179672.0	1082.0	-21692.0
15	18	5	6	644	51.0	-180146.0	1065.0	-21714.0
15	18	5	6	644	52.0	-180992.0	1051.0	-21761.0
15	18	5	6	645	54.0	-183997.0	1035.0	-21102.0
15	18	5	6	645	55.0	-186377.0	1023.0	-21574.0
15	18	5	6	646	56.0	-189416.0	997.0	-21322.0
15	18	5	6	647	57.0	-192760.0	984.0	-21024.0
15	18	5	6	647	58.0	-195767.0	966.0	-21512.0
15	18	5	6	648	59.0	-198599.0	943.0	-21631.0
15	18	5	6	648	60.0	-201245.0	911.0	-21463.0
15	18	5	6	649	61.0	-203561.0	883.0	-21397.0
15	18	5	6	650	77.0	-209788.0	570.0	-5237.0
15	18	5	6	650	99.0	-197952.0	93.0	-22735.0
15	18	5	6	651	100.0	-193884.0	54.0	-23107.0
15	18	5	6	652	101.0	-186197.0	48.0	-23329.0
15	18	5	6	652	102.0	-174892.0	24.0	-23522.0
15	18	5	6	653	103.0	-162411.0	-5.0	-23449.0
15	18	5	6	653	104.0	-153713.0	-27.0	-23501.0
15	18	5	6	654	105.0	-148889.0	-52.0	-23842.0
15	18	5	6	686	106.0	-147712.0	-80.0	-24189.0
15	18	5	6	687	107.0	-150312.0	-103.0	-24300.0
15	18	5	6	687	108.0	-155461.0	-117.0	-24241.0
15	18	5	6	688	109.0	-161767.0	-143.0	-24414.0
15	18	5	6	689	110.0	-169110.0	-179.0	-24628.0
15	18	5	6	689	111.0	-177287.0	-199.0	-24569.0
15	18	5	6	690	112.0	-185672.0	-222.0	-24763.0
15	18	5	6	691	113.0	-194298.0	-252.0	-24843.0
15	18	5	6	691	114.0	-203205.0	-270.0	-24261.0
15	18	5	6	692	115.0	-212136.0	-272.0	-24512.0
15	18	5	6	693	116.0	-221569.0	-302.0	-24848.0
15	18	5	6	693	117.0	-230621.0	-334.0	-24605.0
15	18	5	6	694	118.0	-238080.0	-359.0	-24915.0
15	18	5	6	695	119.0	-243424.0	-386.0	-25331.0
15	18	5	6	695	120.0	-245909.0	-406.0	-25245.0
15	18	5	6	696	122.0	-242669.0	-452.0	-25121.0
15	18	5	6	696	123.0	-237939.0	-478.0	-25068.0
15	18	5	6	697	124.0	-232501.0	-486.0	-24902.0
15	18	5	6	698	125.0	-227226.0	-501.0	-25039.0
15	18	5	6	698	126.0	-222086.0	-541.0	-25011.0
15	18	5	6	699	127.0	-217539.0	-584.0	-24807.0
15	18	5	6	730	128.0	-213405.0	-621.0	-24979.0
15	18	5	6	731	129.0	-210100.0	-625.0	-25279.0
15	18	5	6	732	130.0	-207386.0	-652.0	-25143.0
15	18	5	6	733	131.0	-204591.0	-681.0	-24929.0
15	18	5	6	733	132.0	-202214.0	-697.0	-25134.0
15	18	5	6	734	133.0	-200333.0	-737.0	-25421.0
15	18	5	6	735	134.0	-199294.0	-751.0	-25367.0
15	18	5	6	735	135.0	-198893.0	-768.0	-25487.0
15	18	5	6	736	136.0	-198609.0	-797.0	-25712.0
15	18	5	6	737	137.0	-198375.0	-804.0	-25974.0
15	18	5	6	738	138.0	-198135.0	-829.0	-25784.0
15	18	5	6	738	139.0	-197524.0	-855.0	-26364.0
15	18	5	6	739	140.0	-196144.0	-872.0	-26495.0
15	18	5	6	740	141.0	-193874.0	-889.0	-26416.0
15	18	5	6	740	142.0	-190760.0	-920.0	-26552.0
15	18	5	6	741	144.0	-182863.0	-986.0	-26802.0
15	18	5	6	742	145.0	-178579.0	-1009.0	-26794.0
15	18	5	6	742	146.0	-174673.0	-1034.0	-27054.0
15	18	5	6	743	147.0	-171727.0	-1033.0	-27001.0
15	18	5	6	743	148.0	-170167.0	-1051.0	-27291.0
15	18	5	6	744	149.0	-169137.0	-1072.0	-27850.0
15	18	5	6	777	150.0	-168604.0	-1092.0	-27938.0
15	18	5	6	777	151.0	-169257.0	-1115.0	-27737.0
15	18	5	6	778	152.0	-170386.0	-1141.0	-28092.0
15	18	5	6	779	153.0	-171892.0	-1172.0	-28184.0
15	18	5	6	780	154.0	-173924.0	-1196.0	-27888.0
15	18	5	6	780	155.0	-175762.0	-1227.0	-27927.0
15	18	5	6	781	156.0	-177528.0	-1243.0	-28199.0
15	18	5	6	781	157.0	-179453.0	-1267.0	-27927.0
15	18	5	6	782	158.0	-181572.0	-1284.0	-27616.0
15	18	5	6	783	159.0	-183629.0	-1310.0	-28322.0
15	18	5	6	783	160.0	-185452.0	-1326.0	-27874.0
15	18	5	6	784	161.0	-186892.0	-1362.0	-27440.0
15	18	5	6	785	162.0	-187803.0	-1374.0	-27922.0
15	18	5	6	785	163.0	-188223.0	-1383.0	-28091.0
15	18	5	6	786	164.0	-188527.0	-1434.0	-27986.0
15	18	5	6	787	167.0	-189312.0	-1486.0	-29254.0
15	18	5	6	787	168.0	-189818.0	-1522.0	-29747.0
15	18	5	6	788	169.0	-190377.0	-1522.0	-30546.0
15	18	5	6	788	170.0	-190700.0	-1542.0	-30859.0
15	18	5	6	789	171.0	-190942.0	-1554.0	-30940.0
15	18	5	6	789	172.0	-190979.0	-1569.0	-31179.0
15	18	5	6	820	173.0	-190760.0	-1612.0	-31232.0
15	18	5	6	821	174.0	-190760.0	-1648.0	-31484.0
15	18	5	6	822	175.0	-191118.0	-1683.0	-31536.0
15	18	5	6	823	176.0	-191634.0	-1707.0	-31848.0
15	18	5	6	823	177.0	-192614.0	-1714.0	-32083.0
15	18	5	6	824	178.0	-193969.0	-1736.0	-32311.0
15	18	5	6	825	179.0	-195541.0	-1767.0	-32982.0
15	18	5	6	825	180.0	-197350.0	-1781.0	-33527.0
15	18	5	6	826	181.0	-198831.0	-1807.0	-33598.0
15	18	5	6	827	182.0	-199931.0	-1827.0	-33946.0
15	18	5	6	828	183.0	-200801.0	-1861.0	-34399.0
15	18	5	6	828	184.0	-201465.0	-1881.0	-34272.0
15	18	5	6	829	185.0	-202225.0	-1899.0	-34049.0
15	18	5	6	830	186.0	-202865.0	-1906.0	-34374.0
15	18	5	6	830	187.0	-203386.0	-1930.0	-34498.0
15	18	5	6	831	189.0	-204273.0	-1974.0	-35115.0
15	18	5	6	832	190.0	-204641.0	-1997.0	-34915.0
15	18	5	6	832	191.0	-204773.0	-2016.0	-34923.0
15	18	5	6	833	192.0	-204946.0	-2032.0	-35036.0
15	18	5	6	833	193.0	-204843.0	-2062.0	-34584.0
15	18	5	6	834	194.0	-204450.0	-2087.0	-34150.0
15	18	5	6	865	195.0	-204192.0	-2114.0	-33953.0
15	18	5	6	866	196.0	-204079.0	-2135.0	-33906.0
15	18	5	6	867	197.0	-204254.0	-2154.0	-33409.0
15	18	5	6	868	198.0	-204111.0	-2194.0	-32981.0
15	18	5	6	868	199.0	-203737.0	-2214.0	-33114.0
15	18	5	6	869	200.0	-203143.0	-2234.0	-32582.0
15	18	5	6	869	201.0	-202391.0	-2262.0	-31917.0
15	18	5	6	911	202.0	-201734.0	-2263.0	-31604.0
15	18	5	6	911	203.0	-200582.0	-2289.0	-30995.0
15	18	5	6	912	204.0	-199039.0	-2302.0	-29853.0
15	18	5	6	913	205.0	-197696.0	-2316.0	-27594.0
15	18	5	6	913	206.0	-196181.0	-2334.0	-25701.0
15	18	5	6	914	207.0	-194299.0	-2350.0	-25055.0
15	18	5	6	915	208.0	-192861.0	-2369.0	-25220.0
15	18	5	6	915	209.0	-191547.0	-2388.0	-25168.0
15	18	5	6	916	211.0	-187791.0	-2416.0	-24981.0
15	18	5	6	917	212.0	-186343.0	-2439.0	-24461.0
15	18	5	6	917	213.0	-184846.0	-2433.0	-24157.0
15	18	5	6	918	214.0	-183548.0	-2437.0	-24116.0
15	18	5	6	919	215.0	-182556.0	-2451.0	-23831.0
15	18	5	6	919	216.0	-181820.0	-2452.0	-23340.0
15	18	5	6	920	217.0	-181278.0	-2430.0	-23079.0
15	18	5	6	921	218.0	-181326.0	-2419.0	-22689.0
15	18	5	6	922	234.0	-198677.0	-2016.0	-19567.0
15	18	5	6	923	235.0	-198731.0	-1977.0	-19266.0
15	18	5	6	923	236.0	-198692.0	-1924.0	-19711.0
15	18	5	6	924	237.0	-198334.0	-1893.0	-19431.0
15	18	5	6	924	238.0	-197519.0	-1846.0	-19692.0
15	18	5	6	925	239.0	-196973.0	-1792.0	-20329.0
15	18	5	6	925	240.0	-196174.0	-1737.0	-20345.0
15	18	5	6	955	241.0	-194960.0	-1679.0	-20412.0
15	18	5	6	956	242.0	-194283.0	-1620.0	-20041.0
15	18	5	6	957	243.0	-194207.0	-1552.0	-19983.0
15	18	5	6	957	244.0	-193799.0	-1504.0	-19819.0
15	18	5	6	958	245.0	-193292.0	-1448.0	-19921.0
15	18	5	6	959	246.0	-193277.0	-1389.0	-20106.0
15	18	5	6	959	247.0	-193080.0	-1343.0	-19896.0
15	18	5	6	960	248.0	-192759.0	-1286.0	-19817.0
15	18	5	7	1	249.0	-192793.0	-1233.0	-19742.0
15	18	5	7	2	250.0	-193172.0	-1175.0	-19968.0
15	18	5	7	3	251.0	-193869.0	-1115.0	-19537.0
15	18	5	7	3	252.0	-194546.0	-1046.0	-19474.0
15	18	5	7	4	253.0	-195366.0	-986.0	-19406.0
15	18	5	7	5	254.0	-195819.0	-916.0	-19195.0
15	18	5	7	5	255.0	-195907.0	-862.0	-19286.0
15	18	5	7	6	0.0	-195442.0	-792.0	-19332.0
15	18	5	7	7	1.0	-192839.0	-737.0	-19630.0
15	18	5	7	7	2.0	-185925.0	-669.0	-19534.0
15	18	5	7	8	3.0	-177137.0	-606.0	-19559.0
15	18	5	7	9	4.0	-172562.0	-545.0	-19453.0
15	18	5	7	9	5.0	-174850.0	-491.0	-19227.0
15	18	5	7	10	6.0	-183236.0	-425.0	-18947.0
15	18	5	7	11	7.0	-194704.0	-381.0	-18903.0
15	18	5	7	11	23.0	-192403.0	504.0	-19321.0
15	18	5	7	12	24.0	-186412.0	539.0	-19241.0
15	18	5	7	13	25.0	-181499.0	579.0	-19164.0
15	18	5	7	13	26.0	-178082.0	629.0	-18971.0
15	18	5	7	14	27.0	-175838.0	682.0	-18869.0
15	18	5	7	46	28.0	-174594.0	729.0	-18745.0
15	18	5	7	90	29.0	-174097.0	783.0	-18552.0
15	18	5	7	91	30.0	-174135.0	841.0	-18703.0
15	18	5	7	91	31.0	-174617.0	869.0	-18881.0
15	18	5	7	92	32.0	-175949.0	893.0	-18792.0
15	18	5	7	93	33.0	-178055.0	936.0	-18522.0
15	18	5	7	101	34.0	-180675.0	959.0	-18643.0
15	18	5	7	102	35.0	-183727.0	1002.0	-19163.0
15	18	5	7	103	36.0	-186934.0	1051.0	-19165.0
15	18	5	7	103	37.0	-189972.0	1083.0	-19352.0
15	18	5	7	104	38.0	-192948.0	1118.0	-19253.0
15	18	5	7	105	39.0	-195288.0	1162.0	-18990.0
15	18	5	7	105	40.0	-197098.0	1188.0	-19049.0
15	18	5	7	106	41.0	-198680.0	1214.0	-19366.0
15	18	5	7	106	42.0	-199951.0	1236.0	-19236.0
15	18	5	7	107	45.0	-204944.0	1362.0	-18665.0
15	18	5	7	108	68.0	-196427.0	1846.0	-18001.0
15	18	5	7	108	69.0	-195379.0	1858.0	-17796.0
15	18	5	7	109	70.0	-194481.0	1855.0	-17810.0
15	18	5	7	109	71.0	-194089.0	1869.0	-17811.0
15	18	5	7	110	72.0	-193949.0	1894.0	-17935.0
15	18	5	7	111	73.0	-194019.0	1904.0	-17832.0
15	18	5	7	111	74.0	-194401.0	1910.0	-17889.0
15	18	5	7	136	75.0	-195494.0	1919.0	-17811.0
15	18	5	7	137	76.0	-197061.0	1926.0	-17435.0
15	18	5	7	137	77.0	-198653.0	1934.0	-17295.0
15	18	5	7	138	78.0	-200338.0	1934.0	-17318.0
15	18	5	7	139	79.0	-201871.0	1943.0	-17045.0
15	18	5	7	140	80.0	-203191.0	1934.0	-17289.0
15	18	5	7	141	81.0	-204359.0	1951.0	-17418.0
15	18	5	7	142	82.0	-205076.0	1939.0	-17161.0
15	18	5	7	143	83.0	-205275.0	1946.0	-17389.0
15	18	5	7	143	84.0	-205325.0	1956.0	-17646.0
15	18	5	7	144	85.0	-205488.0	1971.0	-17536.0
15	18	5	7	145	86.0	-205695.0	1964.0	-16785.0
15	18	5	7	146	87.0	-205661.0	1960.0	-17027.0
15	18	5	7	146	88.0	-205471.0	1973.0	-17287.0
15	18	5	7	147	89.0	-205118.0	1976.0	-17241.0
15	18	5	7	148	90.0	-204772.0	1977.0	-17764.0
15	18	5	7	148	91.0	-204250.0	1978.0	-17647.0
15	18	5	7	149	92.0	-203838.0	1974.0	-17679.0
15	18	5	7	149	93.0	-203531.0	1971.0	-17739.0
15	18	5	7	150	94.0	-203092.0	1973.0	-17749.0
15	18	5	7	151	95.0	-202832.0	1984.0	-17730.0
15	18	5	7	151	96.0	-202649.0	1979.0	-17871.0
15	18	5	7	181	97.0	-202564.0	1976.0	-17699.0
15	18	5	7	182	98.0	-202628.0	1975.0	-17699.0
15	18	5	7	182	99.0	-202592.0	1961.0	-18274.0
15	18	5	7	183	100.0	-202216.0	1976.0	-18030.0
15	18	5	7	184	101.0	-202016.0	1988.0	-17831.0
15	18	5	7	184	102.0	-202005.0	1966.0	-17587.0
15	18	5	7	185	103.0	-202315.0	1970.0	-17415.0
15	18	5	7	226	104.0	-202422.0	1961.0	-17141.0
15	18	5	7	227	105.0	-202295.0	1971.0	-17243.0
15	18	5	7	228	106.0	-202206.0	1973.0	-17397.0
15	18	5	7	228	107.0	-201937.0	1968.0	-17281.0
15	18	5	7	229	108.0	-201720.0	1989.0	-17311.0
15	18	5	7	230	109.0	-201567.0	1986.0	-17498.0
15	18	5	7	231	110.0	-201244.0	1975.0	-17414.0
15	18	5	7	231	111.0	-200936.0	1978.0	-17405.0
15	18	5	7	232	113.0	-200520.0	1988.0	-17729.0
15	18	5	7	233	114.0	-199776.0	1993.0	-17675.0
15	18	5	7	233	115.0	-198553.0	1974.0	-17622.0
15	18	5	7	234	116.0	-197404.0	1979.0	-17307.0
15	18	5	7	235	117.0	-196022.0	1978.0	-17431.0
15	18	5	7	236	118.0	-194926.0	1981.0	-17222.0
15	18	5	7	237	119.0	-194102.0	2010.0	-15520.0
15	18	5	7	238	120.0	-193286.0	2003.0	-14722.0
15	18	5	7	239	135.0	-187354.0	2091.0	-11287.0
15	18	5	7	239	136.0	-188919.0	2087.0	-11329.0
15	18	5	7	240	137.0	-190989.0	2094.0	-10828.0
15	18	5	7	241	138.0	-193358.0	2096.0	-11168.0
15	18	5	7	241	139.0	-195867.0	2094.0	-11643.0
15	18	5	7	242	140.0	-198562.0	2106.0	-11861.0
15	18	5	7	242	141.0	-201094.0	2100.0	-12457.0
15	18	5	7	271	142.0	-203052.0	2093.0	-14011.0
15	18	5	7	271	143.0	-204262.0	2093.0	-14824.0
15	18	5	7	273	144.0	-205115.0	2098.0	-15463.0
15	18	5	7	274	145.0	-205832.0	2096.0	-15714.0
15	18	5	7	275	146.0	-205873.0	2096.0	-15726.0
15	18	5	7	276	147.0	-205588.0	2109.0	-15754.0
15	18	5	7	277	148.0	-205306.0	2099.0	-16326.0
15	18	5	7	277	149.0	-205094.0	2104.0	-16484.0
15	18	5	7	278	150.0	-204986.0	2120.0	-16614.0
15	18	5	7	279	151.0	-205011.0	2128.0	-16819.0
15	18	5	7	279	152.0	-205367.0	2121.0	-16781.0
15	18	5	7	280	153.0	-205740.0	2109.0	-16597.0
15	18	5	7	281	154.0	-206024.0	2093.0	-16494.0
15	18	5	7	281	155.0	-206237.0	2104.0	-16562.0
15	18	5	7	282	156.0	-206416.0	2101.0	-16347.0
15	18	5	7	282	158.0	-205897.0	2094.0	-16820.0
15	18	5	7	283	159.0	-205702.0	2078.0	-16649.0
15	18	5	7	284	160.0	-205364.0	2070.0	-16642.0
15	18	5	7	284	161.0	-204867.0	2067.0	-16996.0
15	18	5	7	285	162.0	-204194.0	2057.0	-16705.0
15	18	5	7	285	163.0	-203268.0	2056.0	-16154.0
15	18	5	7	315	164.0	-202134.0	2055.0	-16346.0
15	18	5	7	316	165.0	-200771.0	2036.0	-16102.0
15	18	5	7	317	166.0	-199421.0	2041.0	-15504.0
15	18	5	7	318	167.0	-198298.0	2043.0	-15540.0
15	18	5	7	319	168.0	-197257.0	2041.0	-15492.0
15	18	5	7	319	169.0	-196496.0	2003.0	-15630.0
15	18	5	7	320	170.0	-196294.0	1989.0	-15674.0
15	18	5	7	321	171.0	-195616.0	1984.0	-15707.0
15	18	5	7	321	172.0	-194927.0	1976.0	-15773.0
15	18	5	7	322	173.0	-194082.0	1964.0	-15607.0
15	18	5	7	323	174.0	-193205.0	1958.0	-15443.0
15	18	5	7	323	175.0	-192650.0	1948.0	-15592.0
15	18	5	7	324	176.0	-192323.0	1948.0	-15410.0
15	18	5	7	325	177.0	-191832.0	1929.0	-14864.0
15	18	5	7	325	178.0	-191216.0	1916.0	-15027.0
15	18	5	7	326	180.0	-190354.0	1881.0	-15289.0
15	18	5	7	327	181.0	-189992.0	1864.0	-15232.0
15	18	5	7	327	182.0	-189774.0	1856.0	-15591.0
15	18	5	7	328	183.0	-189696.0	1844.0	-15333.0
15	18	5	7	329	184.0	-189842.0	1821.0	-15112.0
15	18	5	7	329	185.0	-190190.0	1807.0	-15336.0
15	18	5	7	330	186.0	-190751.0	1798.0	-15209.0
15	18	5	7	360	187.0	-191467.0	1764.0	-14978.0
15	18	5	7	361	188.0	-192811.0	1750.0	-15474.0
15	18	5	7	362	189.0	-194431.0	1756.0	-15649.0
15	18	5	7	363	190.0	-195869.0	1729.0	-15483.0
15	18	5	7	363	191.0	-197151.0	1705.0	-15651.0
15	18	5	7	364	192.0	-198235.0	1693.0	-15763.0
15	18	5	7	365	193.0	-199495.0	1666.0	-15481.0
15	18	5	7	365	194.0	-200902.0	1656.0	-15572.0
15	18	5	7	366	195.0	-201682.0	1623.0	-15872.0
15	18	5	7	367	196.0	-202377.0	1606.0	-15841.0
15	18	5	7	421	197.0	-202742.0	1603.0	-16208.0
15	18	5	7	435	198.0	-202664.0	1594.0	-16392.0
15	18	5	7	436	199.0	-202293.0	1554.0	-16677.0
15	18	5	7	437	200.0	-201978.0	1552.0	-17472.0
15	18	5	7	438	201.0	-201902.0	1528.0	-18558.0
15	18	5	7	438	203.0	-201692.0	1476.0	-18006.0
15	18	5	7	439	204.0	-201644.0	1463.0	-14444.0
15	18	5	7	440	205.0	-201644.0	1453.0	-9479.0
15	18	5	7	441	206.0	-201606.0	1437.0	-5309.0
15	18	5	7	441	207.0	-201507.0	1399.0	-2256.0
15	18	5	7	442	208.0	-201413.0	1364.0	116.0
15	18	5	7	443	209.0	-201493.0	1331.0	1438.0
15	18	5	7	443	210.0	-201499.0	1307.0	1701.0
15	18	5	7	444	211.0	-201554.0	1290.0	1709.0
15	18	5	7	445	212.0	-201792.0	1272.0	1390.0
15	18	5	7	445	213.0	-202188.0	1248.0	1879.0
15	18	5	7	446	240.0	-146489.0	611.0	-18706.0
15	18	5	7	446	241.0	-152989.0	556.0	-18660.0
15	18	5	7	447	242.0	-160813.0	542.0	-19076.0
15	18	5	7	448	243.0	-169499.0	523.0	-19166.0
15	18	5	7	457	244.0	-178971.0	499.0	-18681.0
15	18	5	7	458	245.0	-188461.0	476.0	-18589.0
15	18	5	7	458	246.0	-197267.0	460.0	-19050.0
15	18	5	7	459	247.0	-205544.0	423.0	-18748.0
15	18	5	7	480	248.0	-212924.0	402.0	-19032.0
15	18	5	7	481	249.0	-219462.0	378.0	-19901.0
15	18	5	7	481	250.0	-225041.0	350.0	-19957.0
15	18	5	7	482	251.0	-228969.0	327.0	-20151.0
15	18	5	7	483	252.0	-231188.0	294.0	-20647.0
15	18	5	7	483	253.0	-231202.0	273.0	-20312.0
15	18	5	7	484	254.0	-228508.0	234.0	-19819.0
15	18	5	7	484	255.0	-223585.0	233.0	-19847.0
15	18	5	7	504	0.0	-216909.0	208.0	-20221.0
15	18	5	7	504	1.0	-208981.0	182.0	-19891.0
15	18	5	7	505	2.0	-200627.0	159.0	-20106.0
15	18	5	7	506	3.0	-192769.0	126.0	-20497.0
15	18	5	7	506	4.0	-186946.0	96.0	-20270.0
15	18	5	7	507	5.0	-183709.0	88.0	-20606.0
15	18	5	7	507	6.0	-182484.0	56.0	-20870.0
15	18	5	7	508	7.0	-181979.0	31.0	-20530.0
15	18	5	7	509	8.0	-182189.0	16.0	-20459.0
15	18	5	7	509	9.0	-183402.0	-4.0	-21179.0
15	18	5	7	510	10.0	-185467.0	-38.0	-21098.0
15	18	5	7	511	11.0	-188712.0	-67.0	-21252.0
15	18	5	7	512	12.0	-192573.0	-106.0	-21866.0
15	18	5	7	513	13.0	-196508.0	-113.0	-21930.0
15	18	5	7	513	14.0	-200624.0	-129.0	-21334.0
15	18	5	7	514	15.0	-204347.0	-147.0	-21834.0
15	18	5	7	515	16.0	-207137.0	-179.0	-21997.0
15	18	5	7	516	17.0	-208806.0	-207.0	-21814.0
15	18	5	7	516	18.0	-209135.0	-217.0	-21806.0
15	18	5	7	517	19.0	-208210.0	-240.0	-22006.0
15	18	5	7	518	20.0	-206149.0	-270.0	-22081.0
15	18	5	7	518	21.0	-203413.0	-306.0	-22367.0
15	18	5	7	519	22.0	-200292.0	-327.0	-22836.0
15	18	5	7	520	23.0	-196952.0	-340.0	-22903.0
15	18	5	7	523	24.0	-193612.0	-354.0	-23131.0
15	18	5	7	524	25.0	-190456.0	-384.0	-23292.0
15	18	5	7	529	26.0	-187886.0	-427.0	-23487.0
15	18	5	7	531	27.0	-186003.0	-461.0	-23467.0
15	18	5	7	531	28.0	-184876.0	-465.0	-23242.0
15	18	5	7	539	29.0	-184499.0	-505.0	-23279.0
15	18	5	7	540	30.0	-184362.0	-556.0	-23608.0
15	18	5	7	540	31.0	-184222.0	-563.0	-23871.0
15	18	5	7	541	32.0	-184170.0	-569.0	-24019.0
15	18	5	7	541	33.0	-184316.0	-590.0	-24251.0
15	18	5	7	542	34.0	-184631.0	-617.0	-24305.0
15	18	5	7	542	35.0	-184784.0	-642.0	-24532.0
15	18	5	7	543	36.0	-185095.0	-662.0	-24771.0
15	18	5	7	544	37.0	-185677.0	-697.0	-24807.0
15	18	5	7	544	38.0	-186308.0	-721.0	-24721.0
15	18	5	7	562	39.0	-186811.0	-741.0	-25193.0
15	18	5	7	563	40.0	-187162.0	-774.0	-25534.0
15	18	5	7	563	41.0	-187459.0	-797.0	-25517.0
15	18	5	7	564	42.0	-187537.0	-839.0	-25759.0
15	18	5	7	565	43.0	-187597.0	-864.0	-25922.0
15	18	5	7	565	44.0	-187694.0	-880.0	-25747.0
15	18	5	7	585	45.0	-187979.0	-897.0	-25962.0
15	18	5	7	586	46.0	-188219.0	-917.0	-26457.0
15	18	5	7	587	47.0	-188152.0	-960.0	-26673.0
15	18	5	7	587	48.0	-187817.0	-979.0	-27048.0
15	18	5	7	588	49.0	-187529.0	-993.0	-27422.0
15	18	5	7	588	50.0	-187914.0	-1018.0	-27314.0
15	18	5	7	589	51.0	-188500.0	-1064.0	-27209.0
15	18	5	7	589	52.0	-189566.0	-1092.0	-27875.0
15	18	5	7	608	53.0	-190903.0	-1125.0	-28661.0
15	18	5	7	609	54.0	-192266.0	-1152.0	-28996.0
15	18	5	7	609	55.0	-193472.0	-1176.0	-29566.0
15	18	5	7	610	56.0	-194142.0	-1204.0	-29571.0
15	18	5	7	611	57.0	-194667.0	-1231.0	-29939.0
15	18	5	7	611	58.0	-195126.0	-1262.0	-30250.0
15	18	5	7	612	59.0	-195979.0	-1297.0	-30297.0
15	18	5	7	612	60.0	-196840.0	-1322.0	-30418.0
15	18	5	7	613	61.0	-198127.0	-1347.0	-30733.0
15	18	5	7	613	62.0	-199704.0	-1362.0	-31153.0
15	18	5	7	614	63.0	-200957.0	-1404.0	-31104.0
15	18	5	7	614	64.0	-202158.0	-1436.0	-31592.0
15	18	5	7	615	65.0	-203176.0	-1450.0	-31476.0
15	18	5	7	616	66.0	-203795.0	-1478.0	-31664.0
15	18	5	7	616	67.0	-204026.0	-1505.0	-31724.0
15	18	5	7	617	68.0	-204146.0	-1524.0	-31250.0
15	18	5	7	617	69.0	-204215.0	-1568.0	-31297.0
15	18	5	7	618	70.0	-204186.0	-1596.0	-31407.0
15	18	5	7	618	71.0	-203772.0	-1594.0	-31071.0
15	18	5	7	619	72.0	-203341.0	-1623.0	-30837.0
15	18	5	7	634	73.0	-203252.0	-1680.0	-30812.0
15	18	5	7	635	74.0	-203368.0	-1695.0	-30593.0
15	18	5	7	635	75.0	-203416.0	-1706.0	-30375.0
15	18	5	7	636	76.0	-203609.0	-1726.0	-30496.0
15	18	5	7	636	77.0	-203729.0	-1743.0	-29604.0
15	18	5	7	637	78.0	-203999.0	-1779.0	-29184.0
15	18	5	7	637	79.0	-204146.0	-1801.0	-29006.0
15	18	5	7	638	80.0	-203856.0	-1811.0	-28346.0
15	18	5	7	639	81.0	-203576.0	-1842.0	-27775.0
15	18	5	7	639	82.0	-203314.0	-1846.0	-27185.0
15	18	5	7	640	83.0	-202861.0	-1878.0	-26732.0
15	18	5	7	640	84.0	-202281.0	-1905.0	-26244.0
15	18	5	7	657	85.0	-201903.0	-1924.0	-25541.0
15	18	5	7	658	86.0	-201544.0	-1945.0	-24927.0
15	18	5	7	658	87.0	-201346.0	-1947.0	-24244.0
15	18	5	7	659	88.0	-201786.0	-1958.0	-23406.0
15	18	5	7	660	89.0	-202166.0	-1979.0	-23080.0
15	18	5	7	660	90.0	-202501.0	-1978.0	-22429.0
15	18	5	7	661	91.0	-202682.0	-1979.0	-22177.0
15	18	5	7	661	92.0	-202772.0	-1996.0	-22017.0
15	18	5	7	662	93.0	-202921.0	-2007.0	-21624.0
15	18	5	7	662	94.0	-202839.0	-1999.0	-21166.0
15	18	5	7	663	95.0	-202376.0	-1986.0	-20737.0
15	18	5	7	664	96.0	-202059.0	-1973.0	-20312.0
15	18	5	7	680	97.0	-201743.0	-1972.0	-19912.0
15	18	5	7	681	98.0	-201223.0	-1963.0	-19645.0
15	18	5	7	681	99.0	-200452.0	-1961.0	-19100.0
15	18	5	7	682	100.0	-199826.0	-1937.0	-18764.0
15	18	5	7	682	101.0	-199293.0	-1912.0	-18607.0
15	18	5	7	683	102.0	-198758.0	-1892.0	-18250.0
15	18	5	7	684	103.0	-198474.0	-1869.0	-18296.0
15	18	5	7	684	104.0	-198205.0	-1841.0	-18267.0
15	18	5	7	685	105.0	-197722.0	-1821.0	-17963.0
15	18	5	7	703	106.0	-197009.0	-1785.0	-17881.0
15	18	5	7	704	107.0	-196126.0	-1752.0	-17677.0
15	18	5	7	705	108.0	-195549.0	-1707.0	-17361.0
15	18	5	7	705	109.0	-194825.0	-1668.0	-17342.0
15	18	5	7	706	110.0	-193902.0	-1634.0	-17269.0
15	18	5	7	706	111.0	-192892.0	-1586.0	-16769.0
15	18	5	7	707	112.0	-192333.0	-1541.0	-16920.0
15	18	5	7	707	113.0	-191689.0	-1510.0	-17064.0
15	18	5	7	708	114.0	-191476.0	-1456.0	-16166.0
15	18	5	7	709	115.0	-191482.0	-1397.0	-15917.0
15	18	5	7	709	116.0	-191532.0	-1346.0	-16194.0
15	18	5	7	710	117.0	-191629.0	-1287.0	-16129.0
15	18	5	7	710	118.0	-191979.0	-1236.0	-15916.0
15	18	5	7	711	119.0	-192452.0	-1186.0	-16062.0
15	18	5	7	711	120.0	-193042.0	-1122.0	-16134.0
15	18	5	7	726	121.0	-193920.0	-1067.0	-16079.0
15	18	5	7	726	122.0	-194794.0	-1011.0	-16209.0
15	18	5	7	727	123.0	-195532.0	-950.0	-16424.0
15	18	5	7	728	124.0	-196436.0	-887.0	-16442.0
15	18	5	7	728	125.0	-197204.0	-824.0	-16722.0
15	18	5	7	729	126.0	-197927.0	-751.0	-16830.0
15	18	5	7	729	127.0	-199211.0	-717.0	-16706.0
15	18	5	7	750	128.0	-200445.0	-651.0	-16676.0
15	18	5	7	751	129.0	-201276.0	-567.0	-16287.0
15	18	5	7	751	130.0	-201791.0	-511.0	-16206.0
15	18	5	7	752	131.0	-202031.0	-477.0	-16096.0
15	18	5	7	752	132.0	-202007.0	-402.0	-16097.0
15	18	5	7	753	133.0	-201199.0	-334.0	-16346.0
15	18	5	7	753	134.0	-199214.0	-277.0	-16667.0
15	18	5	7	754	135.0	-195282.0	-218.0	-16462.0
15	18	5	7	755	136.0	-187749.0	-173.0	-16447.0
15	18	5	7	755	137.0	-179431.0	-94.0	-16610.0
15	18	5	7	756	138.0	-175091.0	-10.0	-16468.0
15	18	5	7	756	139.0	-178311.0	45.0	-16301.0
15	18	5	7	757	140.0	-186863.0	96.0	-16484.0
15	18	5	7	757	141.0	-195878.0	151.0	-16911.0
15	18	5	7	758	142.0	-203952.0	209.0	-16271.0
15	18	5	7	773	143.0	-211240.0	271.0	-16022.0
15	18	5	7	774	144.0	-215936.0	338.0	-16651.0
15	18	5	7	774	145.0	-218917.0	387.0	-16587.0
15	18	5	7	775	146.0	-222344.0	436.0	-16791.0
15	18	5	7	775	147.0	-224614.0	489.0	-16488.0
15	18	5	7	776	148.0	-224747.0	548.0	-16142.0
15	18	5	7	776	149.0	-224701.0	602.0	-15972.0
15	18	5	7	777	150.0	-223443.0	649.0	-16276.0
15	18	5	7	796	151.0	-219795.0	701.0	-16135.0
15	18	5	7	797	152.0	-214561.0	763.0	-16032.0
15	18	5	7	797	153.0	-209094.0	818.0	-16476.0
15	18	5	7	798	154.0	-203367.0	868.0	-16388.0
15	18	5	7	799	155.0	-197294.0	928.0	-16324.0
15	18	5	7	799	156.0	-191306.0	955.0	-16369.0
15	18	5	7	800	157.0	-186070.0	998.0	-16202.0
15	18	5	7	800	158.0	-182225.0	1054.0	-15833.0
15	18	5	7	801	159.0	-179530.0	1089.0	-15874.0
15	18	5	7	801	160.0	-177487.0	1145.0	-15646.0
15	18	5	7	802	161.0	-175953.0	1188.0	-15461.0
15	18	5	7	803	162.0	-174984.0	1221.0	-15920.0
15	18	5	7	820	163.0	-174379.0	1268.0	-16107.0
15	18	5	7	821	164.0	-173892.0	1313.0	-16255.0
15	18	5	7	821	165.0	-173869.0	1362.0	-16531.0
15	18	5	7	822	166.0	-174967.0	1396.0	-16469.0
15	18	5	7	822	167.0	-176734.0	1432.0	-16201.0
15	18	5	7	823	168.0	-178905.0	1455.0	-16145.0
15	18	5	7	824	169.0	-181509.0	1478.0	-16027.0
15	18	5	7	824	170.0	-184579.0	1508.0	-16041.0
15	18	5	7	825	171.0	-187724.0	1565.0	-16159.0
15	18	5	7	844	172.0	-190471.0	1579.0	-16128.0
15	18	5	7	845	173.0	-193131.0	1613.0	-16511.0
15	18	5	7	845	174.0	-195645.0	1664.0	-16989.0
15	18	5	7	846	175.0	-197922.0	1703.0	-16956.0
15	18	5	7	847	176.0	-199818.0	1739.0	-16651.0
15	18	5	7	847	177.0	-200979.0	1761.0	-16812.0
15	18	5	7	848	178.0	-201797.0	1792.0	-16806.0
15	18	5	7	848	179.0	-202421.0	1838.0	-16184.0
15	18	5	7	849	180.0	-202976.0	1841.0	-16222.0
15	18	5	7	849	181.0	-203644.0	1849.0	-16129.0
15	18	5	7	850	182.0	-204688.0	1884.0	-16164.0
15	18	5	7	850	183.0	-205511.0	1917.0	-16211.0
15	18	5	7	851	184.0	-205986.0	1940.0	-16576.0
15	18	5	7	868	185.0	-206285.0	1987.0	-16434.0
15	18	5	7	869	186.0	-206551.0	2019.0	-16027.0
15	18	5	7	869	187.0	-206824.0	2032.0	-16186.0
15	18	5	7	870	188.0	-207040.0	2048.0	-15986.0
15	18	5	7	871	189.0	-207266.0	2074.0	-15906.0
15	18	5	7	871	190.0	-207893.0	2099.0	-16199.0
15	18	5	7	872	191.0	-208407.0	2104.0	-15884.0
15	18	5	7	872	192.0	-208509.0	2126.0	-15997.0
15	18	5	7	873	193.0	-208551.0	2164.0	-16092.0
15	18	5	7	873	194.0	-208880.0	2188.0	-15995.0
15	18	5	7	874	195.0	-209059.0	2191.0	-15731.0
15	18	5	7	875	196.0	-208727.0	2202.0	-16126.0
15	18	5	7	875	197.0	-208133.0	2238.0	-16062.0
15	18	5	7	876	198.0	-207252.0	2238.0	-15804.0
15	18	5	7	876	199.0	-206139.0	2249.0	-16017.0
15	18	5	7	877	200.0	-205003.0	2259.0	-15932.0
15	18	5	7	877	201.0	-204037.0	2283.0	-15745.0
15	18	5	7	891	202.0	-203324.0	2285.0	-15929.0
15	18	5	7	891	203.0	-203149.0	2286.0	-16064.0
15	18	5	7	892	204.0	-203797.0	2311.0	-16155.0
15	18	5	7	893	205.0	-205062.0	2331.0	-15991.0
15	18	5	7	893	206.0	-206288.0	2335.0	-15637.0
15	18	5	7	894	207.0	-207459.0	2336.0	-15747.0
15	18	5	7	894	208.0	-208825.0	2352.0	-16026.0
15	18	5	7	914	209.0	-210178.0	2371.0	-15894.0
15	18	5	7	915	210.0	-211404.0	2384.0	-15909.0
15	18	5	7	915	211.0	-212287.0	2383.0	-16274.0
15	18	5	7	916	212.0	-212961.0	2375.0	-16201.0
15	18	5	7	916	213.0	-213581.0	2376.0	-15983.0
15	18	5	7	917	214.0	-214016.0	2393.0	-16048.0
15	18	5	7	917	215.0	-214134.0	2396.0	-15677.0
15	18	5	7	918	216.0	-213768.0	2392.0	-15384.0
15	18	5	7	919	217.0	-213308.0	2399.0	-15617.0
15	18	5	7	919	218.0	-212889.0	2401.0	-15587.0
15	18	5	7	920	219.0	-212134.0	2393.0	-15512.0
15	18	5	7	920	220.0	-211135.0	2403.0	-15876.0
15	18	5	7	921	221.0	-209704.0	2409.0	-16246.0
15	18	5	7	921	222.0	-208043.0	2413.0	-15822.0
15	18	5	7	922	223.0	-206487.0	2403.0	-15962.0
15	18	5	7	922	224.0	-204987.0	2406.0	-16381.0
15	18	5	7	937	225.0	-203378.0	2411.0	-16303.0
15	18	5	7	938	226.0	-201379.0	2426.0	-16214.0
15	18	5	7	938	227.0	-199524.0	2419.0	-16281.0
15	18	5	7	939	228.0	-198029.0	2410.0	-16228.0
15	18	5	7	940	229.0	-196762.0	2415.0	-15961.0
15	18	5	7	940	230.0	-195474.0	2426.0	-16446.0
15	18	5	7	941	231.0	-194414.0	2426.0	-16729.0
15	18	5	7	941	232.0	-193856.0	2410.0	-16395.0
15	18	5	7	962	233.0	-193461.0	2404.0	-16525.0
15	18	5	7	962	234.0	-193034.0	2418.0	-16640.0
15	18	5	7	963	235.0	-192386.0	2416.0	-16655.0
15	18	5	7	963	236.0	-191562.0	2403.0	-16902.0
15	18	5	7	964	237.0	-190858.0	2406.0	-16494.0
15	18	5	7	964	238.0	-190342.0	2409.0	-16399.0
15	18	5	7	965	239.0	-189979.0	2427.0	-16219.0
15	18	5	7	966	240.0	-189970.0	2414.0	-16058.0
15	18	5	7	966	241.0	-189857.0	2403.0	-16272.0
15	18	5	7	967	242.0	-189641.0	2425.0	-16399.0
15	18	5	7	967	243.0	-189454.0	2415.0	-16412.0
15	18	5	7	968	244.0	-189611.0	2399.0	-16754.0
15	18	5	7	968	245.0	-190389.0	2399.0	-16959.0
15	18	5	7	969	246.0	-191120.0	2409.0	-16618.0
15	18	5	7	985	247.0	-191777.0	2414.0	-16244.0
15	18	5	7	986	248.0	-192494.0	2426.0	-16117.0
15	18	5	7	987	249.0	-193331.0	2434.0	-15715.0
15	18	5	7	987	250.0	-193861.0	2431.0	-16263.0
15	18	5	7	988	251.0	-194108.0	2436.0	-16315.0
15	18	5	7	989	252.0	-194265.0	2439.0	-15947.0
15	18	5	7	989	253.0	-194786.0	2418.0	-15948.0
15	18	5	7	990	254.0	-195817.0	2433.0	-16009.0
15	18	5	7	991	255.0	-196985.0	2431.0	-15660.0
15	18	5	7	991	0.0	-197772.0	2436.0	-15661.0
15	18	5	7	992	1.0	-198526.0	2449.0	-15805.0
15	18	5	7	992	2.0	-199295.0	2455.0	-15777.0
15	18	5	7	993	3.0	-199769.0	2452.0	-15514.0
15	18	5	7	994	4.0	-200086.0	2448.0	-15742.0
15	18	5	7	994	5.0	-200558.0	2448.0	-15976.0
15	18	5	7	995	6.0	-201303.0	2451.0	-15870.0
15	18	5	8	8	7.0	-201887.0	2457.0	-15769.0
15	18	5	8	9	8.0	-202379.0	2454.0	-16141.0
15	18	5	8	9	9.0	-202712.0	2459.0	-16017.0
15	18	5	8	10	10.0	-202988.0	2451.0	-15971.0
15	18	5	8	10	11.0	-202907.0	2456.0	-16227.0
15	18	5	8	11	12.0	-202461.0	2479.0	-16042.0
15	18	5	8	12	13.0	-201685.0	2473.0	-16302.0
15	18	5	8	32	14.0	-200515.0	2469.0	-16374.0
15	18	5	8	32	15.0	-199231.0	2460.0	-15941.0
15	18	5	8	33	16.0	-198282.0	2469.0	-16174.0
15	18	5	8	34	17.0	-197779.0	2471.0	-16722.0
15	18	5	8	34	18.0	-197280.0	2478.0	-16936.0
15	18	5	8	35	19.0	-196704.0	2493.0	-17304.0
15	18	5	8	36	20.0	-196107.0	2494.0	-17529.0
15	18	5	8	36	21.0	-195335.0	2494.0	-17711.0
15	18	5	8	37	22.0	-194335.0	2482.0	-17714.0
15	18	5	8	37	23.0	-193492.0	2494.0	-17755.0
15	18	5	8	38	24.0	-192799.0	2495.0	-17656.0
15	18	5	8	39	25.0	-191951.0	2483.0	-18179.0
15	18	5	8	39	26.0	-191021.0	2461.0	-18555.0
15	18	5	8	40	27.0	-190422.0	2491.0	-18546.0
15	18	5	8	40	28.0	-190346.0	2478.0	-18612.0
15	18	5	8	55	29.0	-190116.0	2466.0	-18481.0
15	18	5	8	56	30.0	-189590.0	2463.0	-18247.0
15	18	5	8	56	31.0	-188902.0	2465.0	-18053.0
15	18	5	8	57	32.0	-187928.0	2476.0	-18052.0
15	18	5	8	57	33.0	-186534.0	2474.0	-17847.0
15	18	5	8	58	34.0	-184724.0	2463.0	-17861.0
15	18	5	8	59	35.0	-182880.0	2444.0	-18001.0
15	18	5	8	77	36.0	-181166.0	2438.0	-17922.0
15	18	5	8	78	37.0	-179579.0	2440.0	-17892.0
15	18	5	8	78	38.0	-178202.0	2452.0	-17953.0
15	18	5	8	79	39.0	-177277.0	2441.0	-17882.0
15	18	5	8	80	40.0	-176958.0	2424.0	-17775.0
15	18	5	8	80	41.0	-176957.0	2396.0	-17659.0
15	18	5	8	81	42.0	-177188.0	2410.0	-17407.0
15	18	5	8	82	43.0	-177746.0	2402.0	-17130.0
15	18	5	8	82	44.0	-178916.0	2414.0	-17286.0
15	18	5	8	83	45.0	-180531.0	2386.0	-17216.0
15	18	5	8	83	46.0	-182811.0	2362.0	-17211.0
15	18	5	8	84	47.0	-185629.0	2372.0	-17367.0
15	18	5	8	84	48.0	-188665.0	2363.0	-17166.0
15	18	5	8	85	49.0	-191934.0	2355.0	-16829.0
15	18	5	8	86	50.0	-195364.0	2343.0	-16552.0
15	18	5	8	86	51.0	-198676.0	2318.0	-16495.0
15	18	5	8	100	52.0	-201887.0	2298.0	-16463.0
15	18	5	8	101	53.0	-205236.0	2294.0	-16586.0
15	18	5	8	101	54.0	-208079.0	2297.0	-16282.0
15	18	5	8	102	55.0	-210150.0	2278.0	-16187.0
15	18	5	8	103	56.0	-211420.0	2268.0	-16277.0
15	18	5	8	103	57.0	-212009.0	2248.0	-16179.0
15	18	5	8	104	58.0	-211616.0	2225.0	-16379.0
15	18	5	8	124	59.0	-210544.0	2210.0	-16531.0
15	18	5	8	125	60.0	-209277.0	2201.0	-16426.0
15	18	5	8	126	61.0	-208000.0	2184.0	-16200.0
15	18	5	8	126	62.0	-206769.0	2175.0	-15795.0
15	18	5	8	127	63.0	-205579.0	2160.0	-15702.0
15	18	5	8	128	64.0	-204616.0	2138.0	-15839.0
15	18	5	8	128	65.0	-203914.0	2123.0	-15921.0
15	18	5	8	129	66.0	-202947.0	2091.0	-15929.0
15	18	5	8	129	67.0	-201891.0	2091.0	-15804.0
15	18	5	8	130	68.0	-200606.0	2078.0	-15907.0
15	18	5	8	131	69.0	-199474.0	2055.0	-16303.0
15	18	5	8	131	70.0	-198461.0	2016.0	-15727.0
15	18	5	8	132	71.0	-197644.0	2006.0	-15053.0
15	18	5	8	132	72.0	-196975.0	2005.0	-14961.0
15	18	5	8	133	73.0	-196302.0	1963.0	-14583.0
15	18	5	8	133	74.0	-195609.0	1933.0	-14536.0
15	18	5	8	147	75.0	-194668.0	1928.0	-14965.0
15	18	5	8	148	76.0	-193824.0	1906.0	-15253.0
15	18	5	8	149	77.0	-193091.0	1878.0	-15401.0
15	18	5	8	149	78.0	-192411.0	1853.0	-15955.0
15	18	5	8	150	79.0	-191806.0	1820.0	-15616.0
15	18	5	8	150	80.0	-191259.0	1809.0	-16214.0
15	18	5	8	171	81.0	-190376.0	1793.0	-16919.0
15	18	5	8	172	82.0	-189626.0	1776.0	-17989.0
15	18	5	8	172	83.0	-189027.0	1740.0	-18285.0
15	18	5	8	173	84.0	-188535.0	1709.0	-15962.0
15	18	5	8	173	85.0	-188202.0	1694.0	-11391.0
15	18	5	8	174	86.0	-188223.0	1663.0	-5809.0
15	18	5	8	175	87.0	-188701.0	1646.0	-2329.0
15	18	5	8	176	88.0	-189246.0	1610.0	-435.0
15	18	5	8	177	89.0	-190079.0	1578.0	1907.0
15	18	5	8	177	90.0	-191082.0	1544.0	3069.0
15	18	5	8	178	91.0	-192221.0	1525.0	2629.0
15	18	5	8	179	92.0	-193317.0	1507.0	3336.0
15	18	5	8	180	93.0	-194117.0	1469.0	3281.0
15	18	5	8	180	94.0	-194687.0	1448.0	3334.0
15	18	5	8	181	95.0	-195329.0	1431.0	3200.0
15	18	5	8	181	96.0	-196304.0	1408.0	3060.0
15	18	5	8	182	97.0	-197990.0	1388.0	2401.0
15	18	5	8	182	98.0	-200353.0	1369.0	1155.0
15	18	5	8	183	99.0	-203023.0	1335.0	478.0
15	18	5	8	184	100.0	-205877.0	1311.0	-21.0
15	18	5	8	184	101.0	-208958.0	1296.0	-1242.0
15	18	5	8	185	102.0	-212327.0	1255.0	-3150.0
15	18	5	8	200	103.0	-215312.0	1218.0	-4914.0
15	18	5	8	201	104.0	-217841.0	1205.0	-6764.0
15	18	5	8	201	105.0	-219716.0	1179.0	-9021.0
15	18	5	8	202	106.0	-220874.0	1157.0	-10436.0
15	18	5	8	203	107.0	-220766.0	1138.0	-11269.0
15	18	5	8	203	108.0	-219271.0	1109.0	-12226.0
15	18	5	8	204	109.0	-216899.0	1093.0	-13504.0
15	18	5	8	217	110.0	-213799.0	1061.0	-14341.0
15	18	5	8	217	111.0	-210417.0	1018.0	-15555.0
15	18	5	8	218	112.0	-206801.0	1004.0	-16421.0
15	18	5	8	219	113.0	-201702.0	965.0	-16381.0
15	18	5	8	219	114.0	-192688.0	954.0	-16764.0
15	18	5	8	220	115.0	-180599.0	928.0	-17082.0
15	18	5	8	220	116.0	-168418.0	906.0	-17229.0
15	18	5	8	221	117.0	-160894.0	877.0	-17435.0
15	18	5	8	222	118.0	-157892.0	856.0	-17792.0
15	18	5	8	222	119.0	-158810.0	821.0	-17741.0
15	18	5	8	240	120.0	-163162.0	794.0	-17890.0
15	18	5	8	240	121.0	-169774.0	775.0	-17843.0
15	18	5	8	241	122.0	-177764.0	743.0	-18036.0
15	18	5	8	241	123.0	-186109.0	724.0	-17709.0
15	18	5	8	242	124.0	-194502.0	710.0	-18032.0
15	18	5	8	243	125.0	-202672.0	684.0	-18280.0
15	18	5	8	263	126.0	-210374.0	644.0	-18128.0
15	18	5	8	264	127.0	-217417.0	611.0	-18273.0
15	18	5	8	264	128.0	-223689.0	597.0	-18278.0
15	18	5	8	265	129.0	-228716.0	576.0	-18249.0
15	18	5	8	266	130.0	-232377.0	538.0	-18604.0
15	18	5	8	266	131.0	-234141.0	508.0	-18544.0
15	18	5	8	267	132.0	-234132.0	502.0	-18304.0
15	18	5	8	267	133.0	-232507.0	483.0	-18377.0
15	18	5	8	268	134.0	-228677.0	440.0	-18477.0
15	18	5	8	286	135.0	-222730.0	409.0	-18699.0
15	18	5	8	287	136.0	-215261.0	374.0	-19096.0
15	18	5	8	287	137.0	-206935.0	363.0	-19151.0
15	18	5	8	288	138.0	-198505.0	351.0	-19213.0
15	18	5	8	289	139.0	-190569.0	328.0	-19349.0
15	18	5	8	289	140.0	-184196.0	294.0	-19021.0
15	18	5	8	290	141.0	-180234.0	270.0	-18961.0
15	18	5	8	290	142.0	-178760.0	242.0	-19423.0
15	18	5	8	291	143.0	-179550.0	219.0	-19450.0
15	18	5	8	291	144.0	-181911.0	208.0	-19197.0
15	18	5	8	292	145.0	-185029.0	184.0	-19350.0
15	18	5	8	293	146.0	-188807.0	146.0	-19579.0
15	18	5	8	293	147.0	-192977.0	110.0	-19249.0
15	18	5	8	294	148.0	-197347.0	88.0	-19424.0
15	18	5	8	294	149.0	-201714.0	65.0	-19869.0
15	18	5	8	295	150.0	-205691.0	49.0	-19759.0
15	18	5	8	295	151.0	-209149.0	13.0	-19485.0
15	18	5	8	296	152.0	-211894.0	-1.0	-19389.0
15	18	5	8	297	153.0	-213609.0	-30.0	-19570.0
15	18	5	8	297	154.0	-213887.0	-56.0	-19759.0
15	18	5	8	309	155.0	-212714.0	-86.0	-20344.0
15	18	5	8	309	156.0	-209706.0	-123.0	-20402.0
15	18	5	8	310	157.0	-205047.0	-124.0	-20334.0
15	18	5	8	310	158.0	-199009.0	-122.0	-20276.0
15	18	5	8	311	159.0	-192066.0	-157.0	-20699.0
15	18	5	8	312	160.0	-185328.0	-190.0	-20737.0
15	18	5	8	312	161.0	-179128.0	-236.0	-20874.0
15	18	5	8	332	162.0	-173377.0	-252.0	-21153.0
15	18	5	8	333	163.0	-168664.0	-282.0	-21237.0
15	18	5	8	333	164.0	-165075.0	-309.0	-21771.0
15	18	5	8	334	165.0	-162372.0	-332.0	-21691.0
15	18	5	8	335	166.0	-161016.0	-369.0	-21956.0
15	18	5	8	335	167.0	-161041.0	-395.0	-22159.0
15	18	5	8	336	168.0	-162234.0	-412.0	-21712.0
15	18	5	8	336	169.0	-164571.0	-433.0	-21994.0
15	18	5	8	337	170.0	-167847.0	-473.0	-22544.0
15	18	5	8	338	171.0	-171438.0	-488.0	-22134.0
15	18	5	8	338	172.0	-175593.0	-512.0	-22202.0
15	18	5	8	339	173.0	-180261.0	-543.0	-22696.0
15	18	5	8	339	174.0	-185062.0	-571.0	-22766.0
15	18	5	8	340	175.0	-189911.0	-616.0	-23026.0
15	18	5	8	341	176.0	-194914.0	-642.0	-24145.0
15	18	5	8	341	177.0	-199847.0	-650.0	-24379.0
15	18	5	8	342	178.0	-204212.0	-684.0	-24246.0
15	18	5	8	354	179.0	-207758.0	-714.0	-24649.0
15	18	5	8	355	180.0	-210623.0	-751.0	-24661.0
15	18	5	8	355	181.0	-212826.0	-770.0	-24751.0
15	18	5	8	356	182.0	-214172.0	-790.0	-24968.0
15	18	5	8	356	183.0	-214964.0	-832.0	-25272.0
15	18	5	8	357	184.0	-215281.0	-852.0	-25230.0
15	18	5	8	358	185.0	-214628.0	-875.0	-25625.0
15	18	5	8	358	186.0	-213068.0	-894.0	-25888.0
15	18	5	8	377	187.0	-210899.0	-925.0	-26032.0
15	18	5	8	378	188.0	-207978.0	-964.0	-26243.0
15	18	5	8	379	189.0	-204475.0	-998.0	-26344.0
15	18	5	8	380	190.0	-200722.0	-1019.0	-26374.0
15	18	5	8	380	191.0	-196860.0	-1051.0	-26717.0
15	18	5	8	381	192.0	-193343.0	-1072.0	-27016.0
15	18	5	8	382	193.0	-190269.0	-1094.0	-27353.0
15	18	5	8	382	194.0	-187453.0	-1124.0	-27565.0
15	18	5	8	383	195.0	-185036.0	-1145.0	-28137.0
15	18	5	8	384	196.0	-183387.0	-1173.0	-28217.0
15	18	5	8	384	197.0	-182809.0	-1211.0	-28477.0
15	18	5	8	385	198.0	-182801.0	-1237.0	-28808.0
15	18	5	8	385	199.0	-183114.0	-1257.0	-28940.0
15	18	5	8	386	200.0	-183874.0	-1301.0	-29038.0
15	18	5	8	387	201.0	-184982.0	-1309.0	-28885.0
15	18	5	8	400	202.0	-186452.0	-1317.0	-28964.0
15	18	5	8	401	203.0	-188393.0	-1361.0	-29261.0
15	18	5	8	401	204.0	-190546.0	-1379.0	-29394.0
15	18	5	8	402	205.0	-192645.0	-1407.0	-29054.0
15	18	5	8	402	206.0	-194404.0	-1436.0	-29494.0
15	18	5	8	403	207.0	-195959.0	-1465.0	-29371.0
15	18	5	8	404	208.0	-197435.0	-1497.0	-28881.0
15	18	5	8	424	209.0	-198672.0	-1522.0	-28606.0
15	18	5	8	425	210.0	-199891.0	-1539.0	-28526.0
15	18	5	8	425	211.0	-200698.0	-1564.0	-28087.0
15	18	5	8	426	212.0	-201064.0	-1584.0	-27906.0
15	18	5	8	427	213.0	-201186.0	-1600.0	-27594.0
15	18	5	8	427	214.0	-200689.0	-1649.0	-27369.0
15	18	5	8	428	215.0	-199794.0	-1666.0	-27056.0
15	18	5	8	428	216.0	-198917.0	-1686.0	-26797.0
15	18	5	8	429	217.0	-197871.0	-1693.0	-26309.0
15	18	5	8	430	218.0	-196707.0	-1731.0	-25764.0
15	18	5	8	430	219.0	-195307.0	-1777.0	-25372.0
15	18	5	8	431	220.0	-193426.0	-1796.0	-24449.0
15	18	5	8	431	221.0	-191601.0	-1800.0	-23211.0
15	18	5	8	432	222.0	-190140.0	-1806.0	-23084.0
15	18	5	8	433	223.0	-188537.0	-1822.0	-22707.0
15	18	5	8	447	224.0	-186777.0	-1854.0	-21965.0
15	18	5	8	448	225.0	-185594.0	-1855.0	-21284.0
15	18	5	8	448	226.0	-185055.0	-1863.0	-20965.0
15	18	5	8	449	227.0	-184948.0	-1886.0	-20455.0
15	18	5	8	450	228.0	-185263.0	-1905.0	-20031.0
15	18	5	8	450	229.0	-186285.0	-1891.0	-19226.0
15	18	5	8	451	230.0	-188034.0	-1887.0	-18492.0
15	18	5	8	451	231.0	-190051.0	-1888.0	-18091.0
15	18	5	8	471	232.0	-192306.0	-1894.0	-18189.0
15	18	5	8	472	233.0	-194461.0	-1888.0	-17785.0
15	18	5	8	473	234.0	-196327.0	-1887.0	-17441.0
15	18	5	8	473	235.0	-197874.0	-1875.0	-17252.0
15	18	5	8	474	236.0	-199231.0	-1844.0	-17141.0
15	18	5	8	475	237.0	-200302.0	-1853.0	-17119.0
15	18	5	8	475	238.0	-201226.0	-1841.0	-16792.0
15	18	5	8	476	239.0	-202066.0	-1802.0	-16214.0
15	18	5	8	476	240.0	-202629.0	-1763.0	-15906.0
15	18	5	8	477	241.0	-202685.0	-1733.0	-15618.0
15	18	5	8	478	242.0	-202556.0	-1731.0	-15347.0
15	18	5	8	478	243.0	-202707.0	-1706.0	-15648.0
15	18	5	8	479	244.0	-202645.0	-1662.0	-15827.0
15	18	5	8	479	245.0	-202221.0	-1621.0	-15387.0
15	18	5	8	480	246.0	-201852.0	-1583.0	-15443.0
15	18	5	8	500	247.0	-201320.0	-1547.0	-15492.0
15	18	5	8	503	248.0	-200422.0	-1526.0	-15081.0
15	18	5	8	504	249.0	-199155.0	-1472.0	-14958.0
15	18	5	8	505	250.0	-197688.0	-1447.0	-14997.0
15	18	5	8	506	251.0	-196398.0	-1392.0	-14821.0
15	18	5	8	506	252.0	-195326.0	-1352.0	-14631.0
15	18	5	8	507	253.0	-194228.0	-1302.0	-14867.0
15	18	5	8	507	254.0	-193268.0	-1253.0	-14737.0
15	18	5	8	508	255.0	-192582.0	-1190.0	-14672.0
15	18	5	8	508	0.0	-192399.0	-1124.0	-15191.0
15	18	5	8	509	1.0	-192618.0	-1088.0	-15098.0
15	18	5	8	509	2.0	-193024.0	-1035.0	-14976.0
15	18	5	8	510	3.0	-193907.0	-966.0	-15327.0
15	18	5	8	510	4.0	-195401.0	-919.0	-15296.0
15	18	5	8	518	5.0	-197111.0	-856.0	-14986.0
15	18	5	8	519	6.0	-198719.0	-779.0	-15346.0
15	18	5	8	519	7.0	-200577.0	-731.0	-15402.0
15	18	5	8	520	8.0	-203012.0	-662.0	-15171.0
15	18	5	8	520	9.0	-205791.0	-603.0	-15460.0
15	18	5	8	521	10.0	-208594.0	-549.0	-15716.0
15	18	5	8	521	11.0	-211920.0	-495.0	-15548.0
15	18	5	8	540	12.0	-215377.0	-433.0	-15315.0
15	18	5	8	541	13.0	-217774.0	-382.0	-15367.0
15	18	5	8	542	14.0	-217893.0	-321.0	-15265.0
15	18	5	8	542	15.0	-215214.0	-252.0	-15781.0
15	18	5	8	543	16.0	-208405.0	-196.0	-15531.0
15	18	5	8	543	17.0	-198449.0	-126.0	-15764.0
15	18	5	8	544	18.0	-190524.0	-69.0	-15934.0
15	18	5	8	545	19.0	-188589.0	7.0	-15750.0
15	18	5	8	545	20.0	-192686.0	64.0	-15784.0
15	18	5	8	546	21.0	-199688.0	120.0	-15794.0
15	18	5	8	546	22.0	-205983.0	198.0	-15720.0
15	18	5	8	547	23.0	-211682.0	254.0	-15956.0
15	18	5	8	547	24.0	-214181.0	297.0	-16279.0
15	18	5	8	548	25.0	-213475.0	342.0	-16337.0
15	18	5	8	548	26.0	-213129.0	396.0	-16132.0
15	18	5	8	549	27.0	-213025.0	448.0	-16332.0
15	18	5	8	564	28.0	-210676.0	514.0	-16434.0
15	18	5	8	564	29.0	-208462.0	569.0	-15997.0
15	18	5	8	565	30.0	-206206.0	624.0	-16412.0
15	18	5	8	565	31.0	-201531.0	667.0	-16697.0
15	18	5	8	566	32.0	-195522.0	711.0	-16307.0
15	18	5	8	567	33.0	-190008.0	756.0	-16384.0
15	18	5	8	567	34.0	-184961.0	796.0	-16373.0
15	18	5	8	586	35.0	-179951.0	853.0	-16329.0
15	18	5	8	587	36.0	-175991.0	918.0	-16160.0
15	18	5	8	588	37.0	-174047.0	958.0	-16177.0
15	18	5	8	588	38.0	-173718.0	979.0	-16453.0
15	18	5	8	589	39.0	-174422.0	1043.0	-16582.0
15	18	5	8	589	40.0	-176295.0	1099.0	-16777.0
15	18	5	8	590	41.0	-178476.0	1140.0	-16690.0
15	18	5	8	591	42.0	-180439.0	1190.0	-16442.0
15	18	5	8	591	43.0	-182386.0	1228.0	-16383.0
15	18	5	8	592	44.0	-184441.0	1268.0	-16782.0
15	18	5	8	592	45.0	-186454.0	1296.0	-16672.0
15	18	5	8	593	46.0	-188811.0	1326.0	-16528.0
15	18	5	8	593	47.0	-191133.0	1375.0	-16849.0
15	18	5	8	594	48.0	-193279.0	1428.0	-17065.0
15	18	5	8	595	49.0	-195594.0	1451.0	-17407.0
15	18	5	8	611	50.0	-197943.0	1493.0	-17541.0
15	18	5	8	611	51.0	-200042.0	1538.0	-17362.0
15	18	5	8	612	52.0	-202097.0	1556.0	-17552.0
15	18	5	8	612	53.0	-204187.0	1585.0	-17422.0
15	18	5	8	613	54.0	-206294.0	1616.0	-17339.0
15	18	5	8	613	55.0	-208404.0	1649.0	-17076.0
15	18	5	8	614	56.0	-210402.0	1671.0	-17291.0
15	18	5	8	634	57.0	-211916.0	1686.0	-17516.0
15	18	5	8	635	58.0	-212904.0	1723.0	-17471.0
15	18	5	8	635	59.0	-213604.0	1768.0	-17585.0
15	18	5	8	636	60.0	-214248.0	1808.0	-17609.0
15	18	5	8	636	61.0	-214721.0	1825.0	-17978.0
15	18	5	8	637	62.0	-215234.0	1841.0	-18082.0
15	18	5	8	637	63.0	-215935.0	1855.0	-17708.0
15	18	5	8	638	64.0	-216767.0	1884.0	-17983.0
15	18	5	8	639	65.0	-217700.0	1933.0	-17594.0
15	18	5	8	639	66.0	-218562.0	1948.0	-17671.0
15	18	5	8	640	67.0	-219033.0	1967.0	-17999.0
15	18	5	8	640	68.0	-219395.0	1998.0	-17807.0
15	18	5	8	641	69.0	-219436.0	2003.0	-17606.0
15	18	5	8	641	70.0	-218939.0	2025.0	-17727.0
15	18	5	8	642	71.0	-218337.0	2043.0	-17879.0
15	18	5	8	642	72.0	-217671.0	2058.0	-17954.0
15	18	5	8	657	73.0	-216661.0	2082.0	-17952.0
15	18	5	8	658	74.0	-215643.0	2101.0	-18076.0
15	18	5	8	658	75.0	-214407.0	2121.0	-17381.0
15	18	5	8	659	76.0	-212778.0	2137.0	-17139.0
15	18	5	8	659	77.0	-210919.0	2138.0	-17652.0
15	18	5	8	660	78.0	-208679.0	2145.0	-17646.0
15	18	5	8	660	79.0	-205726.0	2155.0	-17844.0
15	18	5	8	681	80.0	-202340.0	2177.0	-18200.0
15	18	5	8	682	81.0	-198524.0	2181.0	-18106.0
15	18	5	8	682	82.0	-194659.0	2200.0	-17932.0
15	18	5	8	683	83.0	-190802.0	2199.0	-17842.0
15	18	5	8	683	84.0	-187071.0	2214.0	-17671.0
15	18	5	8	684	85.0	-183595.0	2224.0	-17735.0
15	18	5	8	685	86.0	-180060.0	2226.0	-17859.0
15	18	5	8	685	87.0	-177101.0	2234.0	-17813.0
15	18	5	8	686	88.0	-175241.0	2247.0	-17608.0
15	18	5	8	686	89.0	-174467.0	2247.0	-17693.0
15	18	5	8	687	90.0	-174941.0	2249.0	-17750.0
15	18	5	8	687	91.0	-176684.0	2251.0	-17901.0
15	18	5	8	688	92.0	-179225.0	2243.0	-17919.0
15	18	5	8	688	93.0	-182097.0	2250.0	-17562.0
15	18	5	8	689	94.0	-185434.0	2245.0	-17513.0
15	18	5	8	705	95.0	-189324.0	2258.0	-17427.0
15	18	5	8	706	96.0	-193414.0	2261.0	-17162.0
15	18	5	8	706	97.0	-197564.0	2261.0	-17274.0
15	18	5	8	707	98.0	-201606.0	2251.0	-17626.0
15	18	5	8	708	99.0	-205188.0	2251.0	-17673.0
15	18	5	8	709	100.0	-208435.0	2248.0	-17941.0
15	18	5	8	709	101.0	-211106.0	2242.0	-18181.0
15	18	5	8	710	102.0	-213229.0	2240.0	-18059.0
15	18	5	8	710	103.0	-215032.0	2246.0	-17771.0
15	18	5	8	711	104.0	-216528.0	2252.0	-17736.0
15	18	5	8	712	105.0	-217947.0	2245.0	-17566.0
15	18	5	8	712	106.0	-219241.0	2238.0	-17219.0
15	18	5	8	713	107.0	-220456.0	2243.0	-17177.0
15	18	5	8	713	108.0	-221826.0	2231.0	-17093.0
15	18	5	8	714	109.0	-223046.0	2241.0	-16989.0
15	18	5	8	728	110.0	-223790.0	2247.0	-17077.0
15	18	5	8	729	111.0	-224416.0	2240.0	-17068.0
15	18	5	8	729	112.0	-224739.0	2235.0	-17197.0
15	18	5	8	730	113.0	-224411.0	2224.0	-17024.0
15	18	5	8	731	114.0	-223299.0	2214.0	-17440.0
15	18	5	8	731	115.0	-221905.0	2216.0	-17099.0
15	18	5	8	732	116.0	-220385.0	2214.0	-17271.0
15	18	5	8	732	117.0	-218471.0	2214.0	-17413.0
15	18	5	8	751	118.0	-216264.0	2224.0	-17338.0
15	18	5	8	752	119.0	-213848.0	2214.0	-17346.0
15	18	5	8	753	120.0	-211500.0	2216.0	-17547.0
15	18	5	8	753	121.0	-209021.0	2202.0	-17317.0
15	18	5	8	754	122.0	-205915.0	2209.0	-16854.0
15	18	5	8	755	123.0	-202925.0	2203.0	-16916.0
15	18	5	8	755	124.0	-200312.0	2197.0	-16885.0
15	18	5	8	756	125.0	-197581.0	2195.0	-16916.0
15	18	5	8	756	126.0	-194381.0	2199.0	-16988.0
15	18	5	8	757	127.0	-191411.0	2198.0	-17154.0
15	18	5	8	757	128.0	-188873.0	2201.0	-17141.0
15	18	5	8	758	129.0	-186546.0	2201.0	-17063.0
15	18	5	8	759	130.0	-184360.0	2202.0	-16984.0
15	18	5	8	759	131.0	-182750.0	2209.0	-17185.0
15	18	5	8	760	132.0	-181979.0	2205.0	-16984.0
15	18	5	8	778	133.0	-181699.0	2219.0	-16944.0
15	18	5	8	779	134.0	-181567.0	2221.0	-16882.0
15	18	5	8	780	135.0	-181822.0	2223.0	-16784.0
15	18	5	8	780	136.0	-182453.0	2225.0	-16591.0
15	18	5	8	783	137.0	-183403.0	2246.0	-16496.0
15	18	5	8	783	138.0	-184378.0	2233.0	-16781.0
15	18	5	8	785	139.0	-185463.0	2214.0	-16786.0
15	18	5	8	785	140.0	-186597.0	2224.0	-16615.0
15	18	5	8	786	141.0	-187506.0	2219.0	-16711.0
15	18	5	8	787	142.0	-188230.0	2223.0	-16565.0
15	18	5	8	788	143.0	-188833.0	2218.0	-16326.0
15	18	5	8	788	144.0	-189369.0	2251.0	-16282.0
15	18	5	8	789	145.0	-189822.0	2246.0	-16639.0
15	18	5	8	789	146.0	-190331.0	2213.0	-16566.0
15	18	5	8	790	147.0	-191003.0	2208.0	-16774.0
15	18	5	8	801	148.0	-191665.0	2222.0	-16852.0
15	18	5	8	802	149.0	-192175.0	2243.0	-16834.0
15	18	5	8	802	150.0	-192986.0	2239.0	-16667.0
15	18	5	8	803	151.0	-194097.0	2233.0	-16649.0
15	18	5	8	803	152.0	-194854.0	2244.0	-16384.0
15	18	5	8	804	153.0	-194957.0	2230.0	-16219.0
15	18	5	8	804	154.0	-195281.0	2248.0	-16319.0
15	18	5	8	824	155.0	-196155.0	2257.0	-16331.0
15	18	5	8	825	156.0	-197094.0	2246.0	-16510.0
15	18	5	8	825	157.0	-198085.0	2259.0	-16800.0
15	18	5	8	826	158.0	-199224.0	2258.0	-16897.0
15	18	5	8	826	159.0	-200416.0	2230.0	-17322.0
15	18	5	8	827	160.0	-201761.0	2242.0	-17676.0
15	18	5	8	827	161.0	-203293.0	2251.0	-17761.0
15	18	5	8	848	162.0	-204535.0	2243.0	-17903.0
15	18	5	8	848	163.0	-205299.0	2248.0	-17791.0
15	18	5	8	849	164.0	-205589.0	2253.0	-17951.0
15	18	5	8	849	165.0	-205287.0	2225.0	-18096.0
15	18	5	8	850	166.0	-204792.0	2228.0	-18275.0
15	18	5	8	850	167.0	-204159.0	2224.0	-18382.0
15	18	5	8	851	168.0	-203463.0	2226.0	-18531.0
15	18	5	8	852	169.0	-202852.0	2226.0	-18816.0
15	18	5	8	852	170.0	-202387.0	2216.0	-18716.0
15	18	5	8	853	171.0	-201667.0	2208.0	-18848.0
15	18	5	8	853	172.0	-200554.0	2199.0	-18704.0
15	18	5	8	854	173.0	-199336.0	2191.0	-17633.0
15	18	5	8	854	174.0	-198229.0	2163.0	-17436.0
15	18	5	8	855	175.0	-196912.0	2157.0	-17606.0
15	18	5	8	856	176.0	-195784.0	2174.0	-17164.0
15	18	5	8	871	177.0	-195156.0	2156.0	-17070.0
15	18	5	8	872	178.0	-194236.0	2149.0	-17406.0
15	18	5	8	873	179.0	-193091.0	2148.0	-17393.0
15	18	5	8	873	180.0	-192214.0	2129.0	-16773.0
15	18	5	8	874	181.0	-191087.0	2123.0	-16937.0
15	18	5	8	875	182.0	-189810.0	2127.0	-16819.0
15	18	5	8	875	183.0	-189235.0	2112.0	-16496.0
15	18	5	8	876	184.0	-189164.0	2095.0	-16467.0
15	18	5	8	876	185.0	-188899.0	2091.0	-16367.0
15	18	5	8	877	186.0	-189736.0	2070.0	-16367.0
15	18	5	8	877	187.0	-191044.0	2054.0	-16149.0
15	18	5	8	878	188.0	-191106.0	2033.0	-15564.0
15	18	5	8	879	189.0	-190944.0	2015.0	-15766.0
15	18	5	8	879	190.0	-191690.0	2001.0	-15969.0
15	18	5	8	880	191.0	-191903.0	1993.0	-15842.0
15	18	5	8	880	192.0	-191607.0	1980.0	-15351.0
15	18	5	8	895	193.0	-191679.0	1978.0	-15048.0
15	18	5	8	895	194.0	-191787.0	1948.0	-14964.0
15	18	5	8	896	195.0	-191334.0	1936.0	-15269.0
15	18	5	8	896	196.0	-191097.0	1926.0	-15734.0
15	18	5	8	897	197.0	-191146.0	1894.0	-15872.0
15	18	5	8	897	198.0	-191146.0	1875.0	-15749.0
15	18	5	8	898	199.0	-191784.0	1842.0	-16016.0
15	18	5	8	917	200.0	-193156.0	1830.0	-15361.0
15	18	5	8	918	201.0	-194580.0	1815.0	-15000.0
15	18	5	8	919	202.0	-196184.0	1804.0	-15061.0
15	18	5	8	919	203.0	-198017.0	1786.0	-15255.0
15	18	5	8	920	204.0	-199273.0	1750.0	-15189.0
15	18	5	8	921	205.0	-200079.0	1720.0	-15469.0
15	18	5	8	921	206.0	-200817.0	1697.0	-15692.0
15	18	5	8	922	207.0	-201014.0	1676.0	-15544.0
15	18	5	8	923	208.0	-200846.0	1668.0	-15842.0
15	18	5	8	923	209.0	-201072.0	1651.0	-15791.0
15	18	5	8	924	210.0	-201007.0	1624.0	-15467.0
15	18	5	8	924	211.0	-200501.0	1600.0	-15621.0
15	18	5	8	942	212.0	-200039.0	1582.0	-15823.0
15	18	5	8	942	213.0	-199584.0	1558.0	-15497.0
15	18	5	8	943	214.0	-198691.0	1530.0	-15098.0
15	18	5	8	944	215.0	-197774.0	1521.0	-15759.0
15	18	5	8	944	216.0	-197054.0	1491.0	-16164.0
15	18	5	8	945	217.0	-196166.0	1468.0	-16429.0
15	18	5	8	945	218.0	-195246.0	1464.0	-16814.0
15	18	5	8	946	219.0	-194694.0	1423.0	-16902.0
15	18	5	8	946	220.0	-194457.0	1387.0	-17222.0
15	18	5	8	947	221.0	-194426.0	1374.0	-17997.0
15	18	5	8	947	222.0	-194721.0	1349.0	-18722.0
15	18	5	8	948	223.0	-195363.0	1323.0	-18246.0
15	18	5	8	965	224.0	-196303.0	1286.0	-15106.0
15	18	5	8	966	225.0	-197384.0	1262.0	-10394.0
15	18	5	8	967	226.0	-198137.0	1240.0	-5877.0
15	18	5	8	967	227.0	-198768.0	1223.0	-2894.0
15	18	5	8	968	228.0	-199632.0	1191.0	-1007.0
15	18	5	8	969	229.0	-200311.0	1161.0	1009.0
15	18	5	8	969	230.0	-200498.0	1123.0	1571.0
15	18	5	8	970	231.0	-200786.0	1104.0	1211.0
15	18	5	8	970	232.0	-200774.0	1077.0	1495.0
15	18	5	8	971	233.0	-199928.0	1048.0	1876.0
15	18	5	8	972	234.0	-198687.0	1014.0	2179.0
15	18	5	8	972	235.0	-197529.0	990.0	2386.0
15	18	5	8	973	236.0	-196491.0	981.0	1676.0
15	18	5	8	973	237.0	-195587.0	932.0	902.0
15	18	5	8	989	238.0	-195904.0	913.0	-229.0
15	18	5	8	989	239.0	-197252.0	889.0	-909.0
15	18	5	8	990	240.0	-199114.0	874.0	-1357.0
15	18	5	8	990	241.0	-201951.0	826.0	-2466.0
15	18	5	8	991	242.0	-205119.0	794.0	-4386.0
15	18	5	9	12	243.0	-207854.0	779.0	-6365.0
15	18	5	9	13	244.0	-209822.0	749.0	-8074.0
15	18	5	9	13	245.0	-210707.0	725.0	-10219.0
15	18	5	9	14	246.0	-210728.0	683.0	-11726.0
15	18	5	9	14	247.0	-209820.0	661.0	-12509.0
15	18	5	9	15	248.0	-207914.0	635.0	-13424.0
15	18	5	9	16	249.0	-205420.0	594.0	-14572.0
15	18	5	9	16	250.0	-202541.0	573.0	-15504.0
15	18	5	9	17	251.0	-200166.0	560.0	-16935.0
15	18	5	9	17	252.0	-197796.0	529.0	-17596.0
15	18	5	9	18	253.0	-193670.0	484.0	-17856.0
15	18	5	9	18	254.0	-186627.0	447.0	-18035.0
15	18	5	9	19	255.0	-176675.0	426.0	-18248.0
15	18	5	9	20	0.0	-166336.0	415.0	-17921.0
15	18	5	9	20	1.0	-159767.0	378.0	-18014.0
15	18	5	9	21	2.0	-156529.0	368.0	-18370.0
15	18	5	9	36	3.0	-156808.0	359.0	-18441.0
15	18	5	9	37	4.0	-160991.0	334.0	-18577.0
15	18	5	9	37	5.0	-167836.0	291.0	-18733.0
15	18	5	9	38	6.0	-175974.0	261.0	-18834.0
15	18	5	9	39	7.0	-184992.0	236.0	-19022.0
15	18	5	9	39	8.0	-194370.0	212.0	-18951.0
15	18	5	9	40	9.0	-202734.0	167.0	-19454.0
15	18	5	9	40	10.0	-210176.0	151.0	-19604.0
15	18	5	9	41	11.0	-216731.0	125.0	-19645.0
15	18	5	9	42	12.0	-222248.0	99.0	-19620.0
15	18	5	9	42	13.0	-227119.0	68.0	-19803.0
15	18	5	9	43	14.0	-231156.0	35.0	-19836.0
15	18	5	9	44	15.0	-233686.0	24.0	-19653.0
15	18	5	9	44	16.0	-235214.0	-4.0	-19595.0
15	18	5	9	45	17.0	-235979.0	-45.0	-19766.0
15	18	5	9	45	18.0	-235209.0	-68.0	-19256.0
15	18	5	9	46	19.0	-232232.0	-99.0	-19074.0
15	18	5	9	59	20.0	-227436.0	-116.0	-19543.0
15	18	5	9	60	21.0	-221164.0	-134.0	-19521.0
15	18	5	9	60	22.0	-213622.0	-139.0	-19959.0
15	18	5	9	61	23.0	-205349.0	-149.0	-20255.0
15	18	5	9	61	24.0	-197572.0	-199.0	-20045.0
15	18	5	9	62	25.0	-190641.0	-233.0	-19619.0
15	18	5	9	82	26.0	-184626.0	-252.0	-19840.0
15	18	5	9	83	27.0	-179794.0	-269.0	-19624.0
15	18	5	9	83	28.0	-176016.0	-291.0	-19360.0
15	18	5	9	84	29.0	-173047.0	-342.0	-20016.0
15	18	5	9	85	30.0	-171509.0	-368.0	-20177.0
15	18	5	9	85	31.0	-171518.0	-382.0	-20156.0
15	18	5	9	86	32.0	-172985.0	-415.0	-20803.0
15	18	5	9	87	33.0	-175686.0	-442.0	-20930.0
15	18	5	9	87	34.0	-179281.0	-471.0	-20300.0
15	18	5	9	88	35.0	-183354.0	-501.0	-20457.0
15	18	5	9	88	36.0	-187169.0	-523.0	-21049.0
15	18	5	9	89	37.0	-190969.0	-539.0	-20552.0
15	18	5	9	90	38.0	-194285.0	-571.0	-20331.0
15	18	5	9	90	39.0	-197180.0	-596.0	-20743.0
15	18	5	9	91	40.0	-199412.0	-593.0	-20859.0
15	18	5	9	91	41.0	-200489.0	-624.0	-21073.0
15	18	5	9	104	42.0	-200647.0	-666.0	-21294.0
15	18	5	9	105	43.0	-199984.0	-673.0	-21389.0
15	18	5	9	105	44.0	-198623.0	-716.0	-21217.0
15	18	5	9	106	45.0	-196939.0	-748.0	-21205.0
15	18	5	9	107	46.0	-195488.0	-748.0	-21383.0
15	18	5	9	107	47.0	-194057.0	-789.0	-21688.0
15	18	5	9	108	48.0	-192526.0	-827.0	-21362.0
15	18	5	9	127	49.0	-191293.0	-851.0	-21579.0
15	18	5	9	128	50.0	-190305.0	-869.0	-22175.0
15	18	5	9	129	51.0	-189826.0	-887.0	-22362.0
15	18	5	9	130	52.0	-189802.0	-901.0	-22037.0
15	18	5	9	130	53.0	-189650.0	-926.0	-22543.0
15	18	5	9	131	54.0	-189834.0	-947.0	-22935.0
15	18	5	9	132	55.0	-190101.0	-990.0	-23024.0
15	18	5	9	132	56.0	-190197.0	-1018.0	-23336.0
15	18	5	9	133	57.0	-190209.0	-1039.0	-23581.0
15	18	5	9	133	58.0	-190112.0	-1062.0	-23687.0
15	18	5	9	134	59.0	-189851.0	-1094.0	-23878.0
15	18	5	9	135	60.0	-189285.0	-1121.0	-24334.0
15	18	5	9	135	61.0	-188253.0	-1146.0	-24372.0
15	18	5	9	136	62.0	-187109.0	-1167.0	-24151.0
15	18	5	9	136	63.0	-185914.0	-1194.0	-24591.0
15	18	5	9	150	64.0	-184813.0	-1201.0	-24698.0
15	18	5	9	151	65.0	-183704.0	-1227.0	-24574.0
15	18	5	9	151	66.0	-182702.0	-1246.0	-25472.0
15	18	5	9	152	67.0	-181534.0	-1271.0	-25704.0
15	18	5	9	152	68.0	-180327.0	-1306.0	-25728.0
15	18	5	9	153	69.0	-179673.0	-1331.0	-26279.0
15	18	5	9	153	70.0	-179201.0	-1366.0	-26722.0
15	18	5	9	172	71.0	-179140.0	-1402.0	-26106.0
15	18	5	9	173	72.0	-179591.0	-1411.0	-26448.0
15	18	5	9	174	73.0	-180237.0	-1420.0	-27232.0
15	18	5	9	174	74.0	-181061.0	-1454.0	-27101.0
15	18	5	9	175	75.0	-182174.0	-1486.0	-27226.0
15	18	5	9	176	76.0	-183239.0	-1503.0	-27500.0
15	18	5	9	176	77.0	-184682.0	-1535.0	-27366.0
15	18	5	9	177	78.0	-186462.0	-1575.0	-27598.0
15	18	5	9	177	79.0	-188051.0	-1579.0	-28322.0
15	18	5	9	178	80.0	-189622.0	-1601.0	-28779.0
15	18	5	9	179	81.0	-191176.0	-1650.0	-29146.0
15	18	5	9	179	82.0	-192946.0	-1680.0	-29303.0
15	18	5	9	180	83.0	-194699.0	-1699.0	-29436.0
15	18	5	9	180	84.0	-196001.0	-1727.0	-29650.0
15	18	5	9	181	85.0	-197297.0	-1747.0	-29605.0
15	18	5	9	195	86.0	-198582.0	-1764.0	-29732.0
15	18	5	9	196	87.0	-199368.0	-1788.0	-29974.0
15	18	5	9	196	88.0	-199740.0	-1828.0	-29724.0
15	18	5	9	197	89.0	-200166.0	-1866.0	-29627.0
15	18	5	9	197	90.0	-200595.0	-1897.0	-29698.0
15	18	5	9	198	91.0	-200839.0	-1922.0	-29405.0
15	18	5	9	199	92.0	-201014.0	-1931.0	-29142.0
15	18	5	9	199	93.0	-201208.0	-1985.0	-29372.0
15	18	5	9	219	94.0	-201516.0	-2004.0	-29178.0
15	18	5	9	220	95.0	-202122.0	-2022.0	-28596.0
15	18	5	9	220	96.0	-202644.0	-2061.0	-28567.0
15	18	5	9	221	97.0	-203374.0	-2092.0	-28339.0
15	18	5	9	222	98.0	-204122.0	-2114.0	-27724.0
15	18	5	9	222	99.0	-204687.0	-2137.0	-27342.0
15	18	5	9	223	100.0	-205117.0	-2159.0	-27166.0
15	18	5	9	224	101.0	-205032.0	-2186.0	-26341.0
15	18	5	9	224	102.0	-204813.0	-2214.0	-26019.0
15	18	5	9	225	103.0	-204548.0	-2247.0	-25959.0
15	18	5	9	225	104.0	-203867.0	-2262.0	-25109.0
15	18	5	9	226	105.0	-203064.0	-2261.0	-23672.0
15	18	5	9	226	106.0	-202339.0	-2300.0	-23573.0
15	18	5	9	227	107.0	-201672.0	-2306.0	-22936.0
15	18	5	9	228	108.0	-200721.0	-2329.0	-21816.0
15	18	5	9	242	109.0	-199684.0	-2342.0	-21377.0
15	18	5	9	243	110.0	-198924.0	-2361.0	-21352.0
15	18	5	9	243	111.0	-197829.0	-2358.0	-20669.0
15	18	5	9	244	112.0	-196656.0	-2381.0	-20454.0
15	18	5	9	244	113.0	-195776.0	-2392.0	-20198.0
15	18	5	9	245	114.0	-195334.0	-2399.0	-19689.0
15	18	5	9	246	115.0	-194832.0	-2404.0	-19061.0
15	18	5	9	265	116.0	-194554.0	-2404.0	-18862.0
15	18	5	9	266	117.0	-194542.0	-2391.0	-18272.0
15	18	5	9	266	118.0	-194438.0	-2382.0	-18007.0
15	18	5	9	267	119.0	-193870.0	-2363.0	-17792.0
15	18	5	9	268	120.0	-193351.0	-2356.0	-17268.0
15	18	5	9	268	121.0	-192856.0	-2350.0	-16661.0
15	18	5	9	269	122.0	-192675.0	-2338.0	-16860.0
15	18	5	9	269	123.0	-192312.0	-2307.0	-16605.0
15	18	5	9	270	124.0	-191646.0	-2302.0	-16269.0
15	18	5	9	270	125.0	-191249.0	-2262.0	-15666.0
15	18	5	9	271	126.0	-190696.0	-2227.0	-15654.0
15	18	5	9	272	127.0	-189905.0	-2199.0	-15771.0
15	18	5	9	272	128.0	-189208.0	-2179.0	-15568.0
15	18	5	9	273	129.0	-188871.0	-2153.0	-15411.0
15	18	5	9	273	130.0	-188603.0	-2101.0	-15598.0
15	18	5	9	290	131.0	-188521.0	-2056.0	-15717.0
15	18	5	9	291	132.0	-188706.0	-2018.0	-15197.0
15	18	5	9	292	133.0	-189252.0	-1964.0	-15562.0
15	18	5	9	292	134.0	-189826.0	-1917.0	-15552.0
15	18	5	9	293	135.0	-190277.0	-1881.0	-15202.0
15	18	5	9	293	136.0	-190770.0	-1818.0	-15054.0
15	18	5	9	294	137.0	-191536.0	-1780.0	-15134.0
15	18	5	9	295	138.0	-191906.0	-1732.0	-14635.0
15	18	5	9	295	139.0	-192209.0	-1684.0	-14511.0
15	18	5	9	296	140.0	-193101.0	-1626.0	-14906.0
15	18	5	9	297	141.0	-193657.0	-1573.0	-14919.0
15	18	5	9	297	142.0	-193912.0	-1515.0	-14664.0
15	18	5	9	298	143.0	-195266.0	-1459.0	-14991.0
15	18	5	9	299	144.0	-197192.0	-1422.0	-14752.0
15	18	5	9	299	145.0	-198862.0	-1361.0	-14471.0
15	18	5	9	313	146.0	-200743.0	-1272.0	-14371.0
15	18	5	9	314	147.0	-202723.0	-1221.0	-14324.0
15	18	5	9	314	148.0	-204584.0	-1159.0	-14523.0
15	18	5	9	315	149.0	-206199.0	-1113.0	-14706.0
15	18	5	9	315	150.0	-207402.0	-1047.0	-14622.0
15	18	5	9	316	151.0	-208466.0	-981.0	-14526.0
15	18	5	9	317	152.0	-208579.0	-920.0	-14439.0
15	18	5	9	317	153.0	-207024.0	-858.0	-14527.0
15	18	5	9	336	154.0	-203581.0	-804.0	-14453.0
15	18	5	9	337	155.0	-197019.0	-746.0	-14264.0
15	18	5	9	337	156.0	-187796.0	-682.0	-14450.0
15	18	5	9	338	157.0	-180934.0	-627.0	-14454.0
15	18	5	9	339	158.0	-179938.0	-561.0	-14175.0
15	18	5	9	340	159.0	-185562.0	-501.0	-13910.0
15	18	5	9	340	160.0	-195075.0	-433.0	-13880.0
15	18	5	9	341	161.0	-204750.0	-387.0	-14111.0
15	18	5	9	341	162.0	-214320.0	-332.0	-14250.0
15	18	5	9	342	163.0	-221441.0	-266.0	-14461.0
15	18	5	9	343	164.0	-225142.0	-212.0	-14418.0
15	18	5	9	343	165.0	-228015.0	-171.0	-14136.0
15	18	5	9	344	166.0	-230915.0	-106.0	-14150.0
15	18	5	9	345	167.0	-231922.0	-30.0	-14251.0
15	18	5	9	345	168.0	-232276.0	8.0	-14214.0
15	18	5	9	359	169.0	-232067.0	59.0	-13897.0
15	18	5	9	359	170.0	-230141.0	119.0	-14289.0
15	18	5	9	360	171.0	-225972.0	179.0	-14561.0
15	18	5	9	361	172.0	-220869.0	221.0	-14050.0
15	18	5	9	361	173.0	-215358.0	280.0	-13910.0
15	18	5	9	362	174.0	-209478.0	336.0	-14247.0
15	18	5	9	362	175.0	-203816.0	371.0	-13842.0
15	18	5	9	382	176.0	-198674.0	427.0	-13853.0
15	18	5	9	383	177.0	-194335.0	473.0	-13822.0
15	18	5	9	383	178.0	-190973.0	509.0	-13801.0
15	18	5	9	384	179.0	-188224.0	560.0	-13879.0
15	18	5	9	385	180.0	-185646.0	605.0	-14239.0
15	18	5	9	385	181.0	-183286.0	626.0	-14100.0
15	18	5	9	386	182.0	-180832.0	688.0	-14034.0
15	18	5	9	387	183.0	-178949.0	732.0	-14248.0
15	18	5	9	387	184.0	-177653.0	758.0	-13969.0
15	18	5	9	388	185.0	-177001.0	789.0	-13739.0
15	18	5	9	388	186.0	-177892.0	832.0	-13776.0
15	18	5	9	389	187.0	-180185.0	888.0	-13661.0
15	18	5	9	390	188.0	-183241.0	920.0	-13952.0
15	18	5	9	390	189.0	-186236.0	937.0	-14334.0
15	18	5	9	391	190.0	-189227.0	976.0	-14216.0
15	18	5	9	405	191.0	-192803.0	1011.0	-14276.0
15	18	5	9	406	192.0	-195766.0	1040.0	-14489.0
15	18	5	9	406	193.0	-198366.0	1068.0	-14452.0
15	18	5	9	407	194.0	-200803.0	1111.0	-14644.0
15	18	5	9	407	195.0	-202820.0	1137.0	-14822.0
15	18	5	9	408	196.0	-204431.0	1160.0	-14576.0
15	18	5	9	409	197.0	-205783.0	1181.0	-14697.0
15	18	5	9	409	198.0	-206826.0	1221.0	-14802.0
15	18	5	9	428	199.0	-207071.0	1250.0	-14504.0
15	18	5	9	429	200.0	-207231.0	1279.0	-14274.0
15	18	5	9	429	201.0	-207568.0	1308.0	-14543.0
15	18	5	9	430	202.0	-207852.0	1332.0	-14432.0
15	18	5	9	431	203.0	-208190.0	1348.0	-14616.0
15	18	5	9	432	204.0	-208763.0	1363.0	-15099.0
15	18	5	9	432	205.0	-209452.0	1394.0	-14952.0
15	18	5	9	433	206.0	-209776.0	1430.0	-14877.0
15	18	5	9	433	207.0	-210272.0	1444.0	-14974.0
15	18	5	9	434	208.0	-211201.0	1451.0	-14715.0
15	18	5	9	435	209.0	-212091.0	1473.0	-14352.0
15	18	5	9	435	210.0	-212913.0	1512.0	-14305.0
15	18	5	9	436	211.0	-213911.0	1545.0	-14787.0
15	18	5	9	436	212.0	-214612.0	1553.0	-14664.0
15	18	5	9	455	213.0	-214923.0	1550.0	-14474.0
15	18	5	9	463	214.0	-214893.0	1550.0	-14534.0
15	18	5	9	465	215.0	-214375.0	1569.0	-14452.0
15	18	5	9	466	216.0	-213457.0	1594.0	-14221.0
15	18	5	9	467	217.0	-212475.0	1608.0	-14285.0
15	18	5	9	467	218.0	-211068.0	1626.0	-14170.0
15	18	5	9	468	219.0	-209057.0	1641.0	-14075.0
15	18	5	9	468	220.0	-207272.0	1649.0	-14030.0
15	18	5	9	469	221.0	-205664.0	1647.0	-14031.0
15	18	5	9	470	222.0	-203608.0	1659.0	-14162.0
15	18	5	9	470	223.0	-201036.0	1669.0	-14257.0
15	18	5	9	471	224.0	-198407.0	1685.0	-14143.0
15	18	5	9	471	225.0	-195987.0	1679.0	-13858.0
15	18	5	9	472	226.0	-193590.0	1698.0	-13709.0
15	18	5	9	472	227.0	-191430.0	1701.0	-13848.0
15	18	5	9	480	228.0	-189955.0	1714.0	-14002.0
15	18	5	9	481	229.0	-188719.0	1719.0	-14033.0
15	18	5	9	481	230.0	-187892.0	1718.0	-13637.0
15	18	5	9	482	231.0	-187789.0	1731.0	-13851.0
15	18	5	9	482	232.0	-187966.0	1727.0	-13913.0
15	18	5	9	483	233.0	-188434.0	1738.0	-13716.0
15	18	5	9	483	234.0	-189471.0	1734.0	-13536.0
15	18	5	9	504	235.0	-190771.0	1731.0	-13632.0
15	18	5	9	505	236.0	-192181.0	1731.0	-13439.0
15	18	5	9	505	237.0	-193923.0	1730.0	-13072.0
15	18	5	9	506	238.0	-196566.0	1733.0	-13635.0
15	18	5	9	506	239.0	-199701.0	1727.0	-13641.0
15	18	5	9	507	240.0	-202600.0	1720.0	-13947.0
15	18	5	9	508	241.0	-205462.0	1736.0	-14329.0
15	18	5	9	528	242.0	-208156.0	1714.0	-14241.0
15	18	5	9	529	243.0	-209781.0	1707.0	-14155.0
15	18	5	9	529	244.0	-210324.0	1720.0	-14276.0
15	18	5	9	530	245.0	-210097.0	1718.0	-13605.0
15	18	5	9	530	246.0	-209549.0	1732.0	-13187.0
15	18	5	9	531	247.0	-208436.0	1708.0	-13496.0
15	18	5	9	531	248.0	-207159.0	1699.0	-13941.0
15	18	5	9	532	249.0	-205941.0	1704.0	-13489.0
15	18	5	9	533	250.0	-204512.0	1701.0	-13686.0
15	18	5	9	533	251.0	-202856.0	1713.0	-13962.0
15	18	5	9	534	252.0	-201036.0	1698.0	-13342.0
15	18	5	9	534	253.0	-199511.0	1689.0	-13251.0
15	18	5	9	535	254.0	-197716.0	1696.0	-12987.0
15	18	5	9	535	255.0	-196050.0	1700.0	-12727.0
15	18	5	9	536	0.0	-194558.0	1692.0	-12748.0
15	18	5	9	536	1.0	-193187.0	1688.0	-13133.0
15	18	5	9	537	2.0	-191709.0	1694.0	-13136.0
15	18	5	9	538	3.0	-190182.0	1692.0	-13451.0
15	18	5	9	538	4.0	-188983.0	1682.0	-13500.0
15	18	5	9	551	5.0	-187502.0	1669.0	-13639.0
15	18	5	9	552	6.0	-186542.0	1683.0	-13712.0
15	18	5	9	552	7.0	-186014.0	1683.0	-13471.0
15	18	5	9	553	8.0	-185997.0	1684.0	-13149.0
15	18	5	9	553	9.0	-186252.0	1673.0	-13366.0
