20	17	31	9	335	0.0	-212027.0	6194.0	-1318240.0
20	17	31	9	338	1.0	-213251.0	6160.0	-1317314.0
20	17	31	9	341	2.0	-214099.0	6124.0	-1315983.0
20	17	31	9	343	3.0	-214503.0	6097.0	-1314475.0
20	17	31	9	345	4.0	-214551.0	6041.0	-1313654.0
20	17	31	9	347	5.0	-214249.0	5985.0	-1312971.0
20	17	31	9	349	6.0	-213676.0	5966.0	-1311158.0
20	17	31	9	351	7.0	-213426.0	5944.0	-1307789.0
20	17	31	9	353	8.0	-213774.0	5909.0	-1305804.0
20	17	31	9	355	9.0	-215130.0	5861.0	-1304466.0
20	17	31	9	356	10.0	-217702.0	5825.0	-1301844.0
20	17	31	9	357	11.0	-220933.0	5779.0	-1299471.0
20	17	31	9	358	12.0	-223434.0	5739.0	-1297388.0
20	17	31	9	359	13.0	-223666.0	5713.0	-1295736.0
20	17	31	9	359	14.0	-221081.0	5676.0	-1295714.0
20	17	31	9	368	15.0	-215711.0	5641.0	-1296591.0
20	17	31	9	369	16.0	-208408.0	5607.0	-1297294.0
20	17	31	9	370	17.0	-198946.0	5563.0	-1297622.0
20	17	31	9	370	18.0	-185602.0	5518.0	-1296600.0
20	17	31	9	371	19.0	-167853.0	5469.0	-1295035.0
20	17	31	9	372	20.0	-148916.0	5427.0	-1293550.0
20	17	31	9	372	21.0	-133712.0	5403.0	-1290961.0
20	17	31	9	373	22.0	-125264.0	5369.0	-1289699.0
20	17	31	9	374	23.0	-122773.0	5328.0	-1289939.0
20	17	31	9	468	24.0	-125240.0	5286.0	-1291528.0
20	17	31	9	513	25.0	-131679.0	5239.0	-1292213.0
20	17	31	9	514	26.0	-141296.0	5194.0	-1291923.0
20	17	31	9	514	27.0	-152441.0	5159.0	-1291234.0
20	17	31	9	515	28.0	-163626.0	5132.0	-1290102.0
20	17	31	9	515	29.0	-179501.0	5097.0	-1288469.0
20	17	31	9	516	30.0	-200884.0	5046.0	-1286554.0
20	17	31	9	516	31.0	-222619.0	5002.0	-1283889.0
20	17	31	9	557	32.0	-240405.0	4980.0	-1280802.0
20	17	31	9	558	33.0	-250845.0	4945.0	-1278842.0
20	17	31	9	558	34.0	-254450.0	4879.0	-1279184.0
20	17	31	9	559	35.0	-251420.0	4828.0	-1279103.0
20	17	31	9	560	36.0	-242455.0	4811.0	-1277349.0
20	17	31	9	560	37.0	-230208.0	4768.0	-1275469.0
20	17	31	9	561	38.0	-216804.0	4721.0	-1273052.0
20	17	31	9	603	71.0	-219645.0	3509.0	-1239812.0
20	17	31	9	604	93.0	-217799.0	2868.0	-1218252.0
20	17	31	9	604	94.0	-218019.0	2852.0	-1218292.0
20	17	31	9	605	95.0	-217419.0	2824.0	-1216879.0
20	17	31	9	605	96.0	-216964.0	2791.0	-1215413.0
20	17	31	9	606	97.0	-216739.0	2770.0	-1213573.0
20	17	31	9	607	98.0	-216764.0	2728.0	-1211767.0
20	17	31	9	693	99.0	-216437.0	2699.0	-1210160.0
20	17	31	9	693	100.0	-214914.0	2695.0	-1207969.0
20	17	31	9	694	116.0	-169656.0	2347.0	-1188189.0
20	17	31	9	695	117.0	-176207.0	2323.0	-1185456.0
20	17	31	9	695	118.0	-183267.0	2328.0	-1182158.0
20	17	31	9	696	119.0	-190402.0	2330.0	-1178577.0
20	17	31	9	697	120.0	-197721.0	2318.0	-1174270.0
20	17	31	9	738	121.0	-204824.0	2314.0	-1170086.0
20	17	31	9	739	122.0	-210781.0	2343.0	-1167414.0
20	17	31	9	739	139.0	-217280.0	3376.0	-1129472.0
20	17	31	9	740	140.0	-215675.0	3496.0	-1128309.0
20	17	31	9	741	141.0	-214289.0	3603.0	-1126128.0
20	17	31	9	741	142.0	-213007.0	3703.0	-1124282.0
20	17	31	9	742	143.0	-211732.0	3826.0	-1124629.0
20	17	31	9	782	144.0	-210414.0	3953.0	-1126134.0
20	17	31	9	783	145.0	-209289.0	4058.0	-1127008.0
20	17	31	9	783	184.0	-216557.0	7402.0	-1097542.0
20	17	31	9	784	185.0	-216960.0	7434.0	-1096774.0
20	17	31	9	785	186.0	-216953.0	7461.0	-1095756.0
20	17	31	9	785	187.0	-216281.0	7504.0	-1093729.0
20	17	31	9	786	188.0	-214498.0	7538.0	-1092209.0
20	17	31	9	828	189.0	-211466.0	7553.0	-1089999.0
20	17	31	9	829	190.0	-206899.0	7569.0	-1087073.0
20	17	31	9	829	206.0	-183715.0	7752.0	-1077685.0
20	17	31	9	830	207.0	-186079.0	7756.0	-1075421.0
20	17	31	9	830	208.0	-188162.0	7763.0	-1074063.0
20	17	31	9	831	209.0	-189994.0	7763.0	-1071210.0
20	17	31	9	831	210.0	-191607.0	7754.0	-1067674.0
20	17	31	9	872	211.0	-193132.0	7754.0	-1065764.0
20	17	31	9	873	212.0	-194707.0	7774.0	-1064021.0
20	17	31	9	874	229.0	-203410.0	7549.0	-1040246.0
20	17	31	9	874	230.0	-202836.0	7520.0	-1037564.0
20	17	31	9	875	231.0	-202222.0	7504.0	-1036163.0
20	17	31	9	876	232.0	-201825.0	7485.0	-1036162.0
20	17	31	9	877	233.0	-201698.0	7462.0	-1036126.0
20	17	31	9	877	234.0	-201537.0	7441.0	-1036134.0
20	17	31	9	878	235.0	-201568.0	7426.0	-1036567.0
20	17	31	9	879	251.0	-206841.0	7080.0	-1022182.0
20	17	31	9	880	252.0	-204616.0	7051.0	-1022047.0
20	17	31	9	917	253.0	-202766.0	7058.0	-1022694.0
20	17	31	9	917	254.0	-201427.0	7012.0	-1022939.0
20	17	31	9	918	255.0	-200514.0	6974.0	-1022245.0
20	17	31	9	919	0.0	-199741.0	6936.0	-1020867.0
20	17	31	9	919	1.0	-199053.0	6909.0	-1019239.0
20	17	31	9	920	18.0	-195741.0	6615.0	-1012787.0
20	17	31	9	921	19.0	-196499.0	6588.0	-1013146.0
20	17	31	9	921	20.0	-197314.0	6569.0	-1012969.0
20	17	31	9	922	21.0	-198421.0	6546.0	-1011722.0
20	17	31	9	923	22.0	-199637.0	6516.0	-1009639.0
20	17	31	9	923	23.0	-200991.0	6493.0	-1008096.0
20	17	31	9	963	24.0	-202365.0	6468.0	-1006826.0
20	17	31	9	964	25.0	-203638.0	6468.0	-1006035.0
20	17	31	9	965	26.0	-204621.0	6455.0	-1005752.0
20	17	31	9	973	27.0	-205376.0	6431.0	-1004856.0
20	17	31	9	974	28.0	-205875.0	6414.0	-1004203.0
20	17	31	9	975	40.0	-204788.0	6206.0	-998769.0
20	17	31	9	975	41.0	-203216.0	6174.0	-997007.0
20	17	31	9	976	42.0	-201734.0	6178.0	-995473.0
20	17	31	9	977	43.0	-200455.0	6148.0	-993167.0
20	17	31	9	977	44.0	-199339.0	6130.0	-990429.0
20	17	31	9	978	45.0	-198382.0	6121.0	-989570.0
20	17	31	9	978	46.0	-197662.0	6111.0	-990036.0
20	17	31	9	979	47.0	-196879.0	6085.0	-990581.0
20	17	31	9	979	48.0	-196357.0	6068.0	-991351.0
20	17	31	9	980	49.0	-195812.0	6038.0	-990914.0
20	17	31	9	981	62.0	-197777.0	5736.0	-977823.0
20	17	31	9	981	63.0	-197262.0	5708.0	-974799.0
20	17	31	9	982	64.0	-196719.0	5677.0	-973847.0
20	17	31	9	982	65.0	-196259.0	5651.0	-973232.0
20	17	31	9	983	66.0	-196179.0	5604.0	-974061.0
20	17	31	9	983	67.0	-196682.0	5576.0	-974709.0
20	17	31	9	984	68.0	-197700.0	5536.0	-975164.0
20	17	31	10	7	69.0	-199032.0	5511.0	-973837.0
20	17	31	10	8	70.0	-200546.0	5494.0	-972862.0
20	17	31	10	9	71.0	-201993.0	5458.0	-971661.0
20	17	31	10	9	72.0	-203157.0	5431.0	-971150.0
20	17	31	10	10	73.0	-203858.0	5381.0	-970385.0
20	17	31	10	10	74.0	-204039.0	5344.0	-969487.0
20	17	31	10	11	75.0	-203557.0	5325.0	-968736.0
20	17	31	10	52	76.0	-202609.0	5302.0	-967798.0
20	17	31	10	97	77.0	-201257.0	5257.0	-967552.0
20	17	31	10	98	78.0	-199999.0	5224.0	-968138.0
20	17	31	10	99	79.0	-199087.0	5203.0	-968292.0
20	17	31	10	99	80.0	-198603.0	5170.0	-967526.0
20	17	31	10	100	81.0	-198756.0	5140.0	-965954.0
20	17	31	10	101	82.0	-199236.0	5098.0	-965057.0
20	17	31	10	101	83.0	-200089.0	5066.0	-964513.0
20	17	31	10	189	85.0	-201707.0	4989.0	-962916.0
20	17	31	10	189	86.0	-202081.0	4953.0	-962461.0
20	17	31	10	190	87.0	-201894.0	4903.0	-963397.0
20	17	31	10	192	88.0	-201143.0	4875.0	-963849.0
20	17	31	10	192	89.0	-200194.0	4856.0	-963590.0
20	17	31	10	193	90.0	-199202.0	4846.0	-963017.0
20	17	31	10	194	91.0	-197997.0	4801.0	-962634.0
20	17	31	10	232	92.0	-196552.0	4768.0	-961313.0
20	17	31	10	257	130.0	-194443.0	3538.0	-934084.0
20	17	31	10	258	131.0	-193768.0	3499.0	-933218.0
20	17	31	10	258	132.0	-193607.0	3464.0	-932007.0
20	17	31	10	259	133.0	-194133.0	3426.0	-930887.0
20	17	31	10	260	134.0	-194914.0	3383.0	-929163.0
20	17	31	10	260	135.0	-195858.0	3353.0	-927906.0
20	17	31	10	322	136.0	-196715.0	3328.0	-925841.0
20	17	31	10	323	137.0	-197261.0	3299.0	-925061.0
20	17	31	10	324	175.0	-186934.0	2004.0	-885227.0
20	17	31	10	325	176.0	-189807.0	1947.0	-883256.0
20	17	31	10	325	177.0	-194334.0	1918.0	-881202.0
20	17	31	10	326	178.0	-199763.0	1893.0	-879015.0
20	17	31	10	327	179.0	-205931.0	1848.0	-875416.0
20	17	31	10	367	180.0	-211942.0	1800.0	-871856.0
20	17	31	10	367	181.0	-215692.0	1771.0	-869365.0
20	17	31	10	368	197.0	-193159.0	1201.0	-866472.0
20	17	31	10	369	198.0	-197752.0	1155.0	-867761.0
20	17	31	10	370	199.0	-202814.0	1113.0	-868060.0
20	17	31	10	370	200.0	-207527.0	1079.0	-868784.0
20	17	31	10	371	201.0	-211192.0	1048.0	-870637.0
20	17	31	10	372	202.0	-213466.0	1016.0	-870749.0
20	17	31	10	412	203.0	-214136.0	956.0	-870104.0
20	17	31	10	412	242.0	-188551.0	-341.0	-843259.0
20	17	31	10	413	243.0	-188412.0	-371.0	-842648.0
20	17	31	10	414	244.0	-188440.0	-403.0	-841659.0
20	17	31	10	414	245.0	-188865.0	-430.0	-840482.0
20	17	31	10	415	246.0	-189547.0	-427.0	-840261.0
20	17	31	10	416	247.0	-190275.0	-447.0	-840857.0
20	17	31	10	417	248.0	-190762.0	-473.0	-840521.0
20	17	31	10	417	9.0	-198639.0	-184.0	-826311.0
20	17	31	10	418	10.0	-198246.0	-125.0	-827926.0
20	17	31	10	419	11.0	-198199.0	-49.0	-828280.0
20	17	31	10	419	12.0	-198464.0	24.0	-827407.0
20	17	31	10	420	13.0	-198884.0	105.0	-825348.0
20	17	31	10	421	14.0	-199342.0	198.0	-823643.0
20	17	31	10	422	15.0	-199904.0	288.0	-822146.0
20	17	31	10	423	31.0	-210882.0	1863.0	-818545.0
20	17	31	10	424	32.0	-211499.0	1953.0	-819206.0
20	17	31	10	424	33.0	-211479.0	2063.0	-819614.0
20	17	31	10	425	34.0	-210720.0	2146.0	-819787.0
20	17	31	10	426	35.0	-209125.0	2236.0	-820352.0
20	17	31	10	427	36.0	-206684.0	2324.0	-820649.0
20	17	31	10	459	37.0	-202761.0	2405.0	-819071.0
20	17	31	10	460	38.0	-195315.0	2509.0	-818461.0
20	17	31	10	460	39.0	-183314.0	2603.0	-817813.0
20	17	31	10	461	40.0	-175437.0	2690.0	-817089.0
20	17	31	10	462	41.0	-175284.0	2764.0	-815660.0
20	17	31	10	462	42.0	-181632.0	2838.0	-814086.0
20	17	31	10	463	43.0	-198171.0	2927.0	-812058.0
20	17	31	10	464	44.0	-217787.0	3004.0	-810424.0
20	17	31	10	464	45.0	-231649.0	3076.0	-808146.0
20	17	31	10	465	46.0	-238451.0	3140.0	-805516.0
20	17	31	10	466	47.0	-238840.0	3201.0	-803830.0
20	17	31	10	466	48.0	-232966.0	3274.0	-803627.0
20	17	31	10	467	49.0	-222067.0	3360.0	-803634.0
20	17	31	10	467	50.0	-208247.0	3403.0	-803467.0
20	17	31	10	468	51.0	-194411.0	3456.0	-803980.0
20	17	31	10	469	53.0	-176619.0	3561.0	-805436.0
20	17	31	10	469	54.0	-174236.0	3626.0	-806307.0
20	17	31	10	470	55.0	-175682.0	3683.0	-807391.0
20	17	31	10	471	56.0	-179889.0	3754.0	-807024.0
20	17	31	10	471	57.0	-185455.0	3812.0	-805252.0
20	17	31	10	472	58.0	-191644.0	3857.0	-805447.0
20	17	31	10	472	59.0	-197623.0	3889.0	-805829.0
20	17	31	10	504	60.0	-202877.0	3928.0	-805547.0
20	17	31	10	504	61.0	-207220.0	3959.0	-805397.0
20	17	31	10	505	62.0	-210617.0	4001.0	-805464.0
20	17	31	10	505	63.0	-212976.0	4049.0	-805432.0
20	17	31	10	506	64.0	-214550.0	4079.0	-804127.0
20	17	31	10	507	65.0	-215380.0	4108.0	-802655.0
20	17	31	10	507	66.0	-215547.0	4139.0	-801208.0
20	17	31	10	508	67.0	-214982.0	4182.0	-799994.0
20	17	31	10	547	68.0	-213121.0	4208.0	-799666.0
20	17	31	10	548	69.0	-209543.0	4235.0	-799983.0
20	17	31	10	549	70.0	-204723.0	4242.0	-800079.0
20	17	31	10	549	71.0	-199125.0	4254.0	-800058.0
20	17	31	10	550	72.0	-193521.0	4263.0	-799455.0
20	17	31	10	551	73.0	-188493.0	4281.0	-797880.0
20	17	31	10	551	74.0	-184687.0	4289.0	-796877.0
20	17	31	10	638	76.0	-181572.0	4318.0	-791811.0
20	17	31	10	639	77.0	-182122.0	4338.0	-789261.0
20	17	31	10	640	78.0	-183614.0	4341.0	-788271.0
20	17	31	10	641	79.0	-185516.0	4358.0	-787024.0
20	17	31	10	643	80.0	-187584.0	4340.0	-786797.0
20	17	31	10	644	81.0	-189506.0	4352.0	-788111.0
20	17	31	10	644	82.0	-191056.0	4376.0	-787822.0
20	17	31	10	645	83.0	-192089.0	4367.0	-786885.0
20	17	31	10	645	98.0	-204780.0	4361.0	-770470.0
20	17	31	10	646	99.0	-205748.0	4359.0	-769042.0
20	17	31	10	647	100.0	-206781.0	4335.0	-768497.0
20	17	31	10	647	101.0	-207920.0	4305.0	-769102.0
20	17	31	10	648	102.0	-208970.0	4307.0	-768234.0
20	17	31	10	649	103.0	-209985.0	4306.0	-765679.0
20	17	31	10	649	104.0	-211006.0	4305.0	-762646.0
20	17	31	10	650	105.0	-211671.0	4289.0	-760539.0
20	17	31	10	650	144.0	-204319.0	3726.0	-737014.0
20	17	31	10	651	145.0	-205897.0	3722.0	-735585.0
20	17	31	10	651	146.0	-207142.0	3727.0	-733617.0
20	17	31	10	652	147.0	-207822.0	3709.0	-731596.0
20	17	31	10	653	148.0	-208157.0	3683.0	-730902.0
20	17	31	10	653	149.0	-208428.0	3686.0	-731838.0
20	17	31	10	683	150.0	-208546.0	3677.0	-732334.0
20	17	31	10	684	151.0	-208323.0	3665.0	-734061.0
20	17	31	10	685	152.0	-207907.0	3654.0	-734353.0
20	17	31	10	686	153.0	-207443.0	3641.0	-733800.0
20	17	31	10	687	154.0	-207215.0	3639.0	-733510.0
20	17	31	10	687	155.0	-207141.0	3616.0	-733122.0
20	17	31	10	688	156.0	-206797.0	3594.0	-732111.0
20	17	31	10	689	157.0	-206154.0	3595.0	-730559.0
20	17	31	10	689	158.0	-205084.0	3579.0	-729447.0
20	17	31	10	690	159.0	-203727.0	3575.0	-729556.0
20	17	31	10	691	160.0	-202336.0	3578.0	-730426.0
20	17	31	10	691	161.0	-201122.0	3561.0	-730614.0
20	17	31	10	692	162.0	-200206.0	3554.0	-728754.0
20	17	31	10	692	163.0	-199699.0	3547.0	-726917.0
20	17	31	10	693	164.0	-199629.0	3533.0	-725978.0
20	17	31	10	694	166.0	-200245.0	3516.0	-725022.0
20	17	31	10	694	167.0	-200454.0	3504.0	-723912.0
20	17	31	10	695	168.0	-200522.0	3488.0	-723405.0
20	17	31	10	728	169.0	-200431.0	3484.0	-723649.0
20	17	31	10	729	170.0	-200134.0	3449.0	-722929.0
20	17	31	10	730	171.0	-199729.0	3444.0	-722265.0
20	17	31	10	730	172.0	-199233.0	3444.0	-721714.0
20	17	31	10	731	173.0	-198562.0	3421.0	-720239.0
20	17	31	10	732	174.0	-197745.0	3401.0	-719339.0
20	17	31	10	732	175.0	-196947.0	3390.0	-717299.0
20	17	31	10	733	176.0	-196401.0	3388.0	-715293.0
20	17	31	10	773	177.0	-196142.0	3371.0	-715449.0
20	17	31	10	774	178.0	-196085.0	3361.0	-715907.0
20	17	31	10	775	179.0	-196125.0	3338.0	-716691.0
20	17	31	10	775	180.0	-196342.0	3332.0	-717164.0
20	17	31	10	817	181.0	-196631.0	3319.0	-717424.0
20	17	31	10	818	182.0	-196857.0	3307.0	-717337.0
20	17	31	10	819	183.0	-196931.0	3287.0	-717332.0
20	17	31	10	819	188.0	-194126.0	3221.0	-710837.0
20	17	31	10	820	189.0	-193569.0	3206.0	-710989.0
20	17	31	10	821	190.0	-193381.0	3174.0	-710881.0
20	17	31	10	821	191.0	-193367.0	3163.0	-711109.0
20	17	31	10	822	192.0	-193489.0	3143.0	-710971.0
20	17	31	10	862	193.0	-194032.0	3106.0	-710236.0
20	17	31	10	862	194.0	-194970.0	3078.0	-709287.0
20	17	31	10	863	195.0	-196147.0	3034.0	-708123.0
20	17	31	10	864	211.0	-205078.0	2661.0	-700779.0
20	17	31	10	864	212.0	-202126.0	2621.0	-699829.0
20	17	31	10	865	213.0	-199526.0	2590.0	-698405.0
20	17	31	10	865	214.0	-197462.0	2552.0	-698140.0
20	17	31	10	866	233.0	-186909.0	2046.0	-685572.0
20	17	31	10	908	234.0	-188892.0	1993.0	-684804.0
20	17	31	10	908	235.0	-190973.0	1961.0	-684135.0
20	17	31	10	909	236.0	-192966.0	1919.0	-682724.0
20	17	31	10	910	237.0	-194697.0	1869.0	-682671.0
20	17	31	10	910	238.0	-196236.0	1829.0	-683892.0
20	17	31	10	911	239.0	-197537.0	1800.0	-685491.0
20	17	31	10	911	240.0	-198569.0	1769.0	-687611.0
20	17	31	10	953	0.0	-214171.0	1133.0	-669116.0
20	17	31	10	968	1.0	-213896.0	1101.0	-668014.0
20	17	31	10	968	2.0	-212966.0	1064.0	-665892.0
20	17	31	10	969	3.0	-211489.0	1018.0	-666380.0
20	17	31	10	970	4.0	-209510.0	971.0	-667806.0
20	17	31	10	970	5.0	-207149.0	932.0	-667584.0
20	17	31	10	971	6.0	-204637.0	902.0	-667971.0
20	17	31	10	972	7.0	-202387.0	865.0	-667742.0
20	17	31	10	972	22.0	-197850.0	313.0	-658329.0
20	17	31	10	973	23.0	-199006.0	270.0	-657814.0
20	17	31	10	973	24.0	-200295.0	224.0	-658099.0
20	17	31	10	974	25.0	-201884.0	180.0	-656083.0
20	17	31	10	974	26.0	-204339.0	167.0	-652056.0
20	17	31	10	975	27.0	-207782.0	126.0	-649609.0
20	17	31	10	975	28.0	-211894.0	86.0	-647951.0
20	17	31	10	976	29.0	-214796.0	59.0	-646912.0
20	17	31	10	976	45.0	-184672.0	-354.0	-658231.0
20	17	31	10	977	46.0	-198904.0	-371.0	-654531.0
20	17	31	10	977	47.0	-214182.0	-392.0	-651339.0
20	17	31	10	978	48.0	-228436.0	-415.0	-648717.0
20	17	31	10	979	49.0	-239126.0	-452.0	-646412.0
20	17	31	10	979	50.0	-245470.0	-467.0	-643931.0
20	17	31	10	980	51.0	-246324.0	-469.0	-641528.0
20	17	31	10	997	52.0	-241607.0	-486.0	-639864.0
20	17	31	10	998	53.0	-233119.0	-534.0	-639908.0
20	17	31	10	999	54.0	-222838.0	-566.0	-639367.0
20	17	31	10	999	55.0	-212881.0	-590.0	-637882.0
20	17	31	11	0	56.0	-204059.0	-602.0	-636954.0
20	17	31	11	1	57.0	-196762.0	-616.0	-636107.0
20	17	31	11	1	58.0	-192302.0	-642.0	-634209.0
20	17	31	11	2	59.0	-191941.0	-667.0	-630564.0
20	17	31	11	42	60.0	-194907.0	-694.0	-626919.0
20	17	31	11	42	61.0	-199354.0	-737.0	-622649.0
20	17	31	11	43	62.0	-204014.0	-769.0	-618414.0
20	17	31	11	44	63.0	-208952.0	-779.0	-615574.0
20	17	31	11	44	64.0	-213883.0	-801.0	-611732.0
20	17	31	11	45	65.0	-217512.0	-827.0	-609531.0
20	17	31	11	45	66.0	-218299.0	-852.0	-606639.0
20	17	31	11	46	67.0	-215213.0	-868.0	-602516.0
20	17	31	11	132	68.0	-208851.0	-899.0	-598964.0
20	17	31	11	133	69.0	-201241.0	-924.0	-594348.0
20	17	31	11	134	70.0	-194674.0	-949.0	-591211.0
20	17	31	11	134	71.0	-190171.0	-974.0	-590204.0
20	17	31	11	135	72.0	-188094.0	-1004.0	-589548.0
20	17	31	11	136	73.0	-188031.0	-1028.0	-589809.0
20	17	31	11	136	74.0	-188647.0	-1042.0	-590186.0
20	17	31	11	137	90.0	-213364.0	-1499.0	-608399.0
20	17	31	11	137	91.0	-210836.0	-1543.0	-608705.0
20	17	31	11	138	92.0	-208315.0	-1604.0	-609006.0
20	17	31	11	138	93.0	-205927.0	-1612.0	-611011.0
20	17	31	11	139	94.0	-203784.0	-1646.0	-612864.0
20	17	31	11	140	95.0	-201712.0	-1690.0	-612721.0
20	17	31	11	140	96.0	-199793.0	-1727.0	-613036.0
20	17	31	11	141	97.0	-198096.0	-1767.0	-612741.0
20	17	31	11	141	134.0	-203577.0	-2661.0	-575641.0
20	17	31	11	142	135.0	-203272.0	-2664.0	-575011.0
20	17	31	11	142	136.0	-202860.0	-2674.0	-575210.0
20	17	31	11	143	137.0	-202432.0	-2694.0	-574717.0
20	17	31	11	143	138.0	-201776.0	-2709.0	-573345.0
20	17	31	11	144	139.0	-200969.0	-2694.0	-572313.0
20	17	31	11	145	140.0	-199847.0	-2684.0	-570922.0
20	17	31	11	177	141.0	-198565.0	-2672.0	-571002.0
20	17	31	11	178	142.0	-197361.0	-2678.0	-571477.0
20	17	31	11	178	143.0	-196436.0	-2659.0	-572120.0
20	17	31	11	179	144.0	-195779.0	-2649.0	-572112.0
20	17	31	11	180	145.0	-195339.0	-2625.0	-571892.0
20	17	31	11	180	146.0	-195157.0	-2604.0	-570746.0
20	17	31	11	181	147.0	-195137.0	-2585.0	-568905.0
20	17	31	11	181	148.0	-194995.0	-2560.0	-567452.0
20	17	31	11	182	149.0	-194856.0	-2517.0	-566724.0
20	17	31	11	182	150.0	-194387.0	-2462.0	-565442.0
20	17	31	11	183	151.0	-193907.0	-2408.0	-564280.0
20	17	31	11	184	152.0	-193504.0	-2352.0	-564707.0
20	17	31	11	184	153.0	-193111.0	-2296.0	-566127.0
20	17	31	11	185	154.0	-192655.0	-2229.0	-567419.0
20	17	31	11	185	155.0	-191971.0	-2142.0	-567925.0
20	17	31	11	186	157.0	-190679.0	-1990.0	-566865.0
20	17	31	11	187	158.0	-190229.0	-1904.0	-565403.0
20	17	31	11	188	159.0	-189974.0	-1816.0	-562549.0
20	17	31	11	188	160.0	-190204.0	-1732.0	-560136.0
20	17	31	11	189	161.0	-190975.0	-1633.0	-560587.0
20	17	31	11	189	162.0	-192211.0	-1531.0	-562835.0
20	17	31	11	221	163.0	-193811.0	-1431.0	-563936.0
20	17	31	11	222	164.0	-195941.0	-1328.0	-564321.0
20	17	31	11	223	165.0	-198409.0	-1227.0	-564892.0
20	17	31	11	224	166.0	-201179.0	-1114.0	-564883.0
20	17	31	11	224	167.0	-204021.0	-1012.0	-565358.0
20	17	31	11	225	168.0	-206507.0	-921.0	-566021.0
20	17	31	11	225	169.0	-208750.0	-810.0	-565553.0
20	17	31	11	267	170.0	-210656.0	-702.0	-565998.0
20	17	31	11	268	171.0	-212166.0	-606.0	-567656.0
20	17	31	11	269	172.0	-212966.0	-482.0	-571185.0
20	17	31	11	269	173.0	-213099.0	-387.0	-573753.0
20	17	31	11	270	174.0	-212668.0	-292.0	-576051.0
20	17	31	11	271	175.0	-212059.0	-199.0	-577502.0
20	17	31	11	271	176.0	-210974.0	-101.0	-579057.0
20	17	31	11	272	177.0	-209606.0	24.0	-580932.0
20	17	31	11	272	179.0	-204774.0	215.0	-583187.0
20	17	31	11	273	180.0	-197891.0	291.0	-582777.0
20	17	31	11	274	181.0	-186664.0	367.0	-583637.0
20	17	31	11	274	182.0	-176419.0	472.0	-584159.0
20	17	31	11	275	183.0	-174622.0	556.0	-582467.0
20	17	31	11	275	184.0	-178228.0	649.0	-581512.0
20	17	31	11	276	185.0	-192162.0	735.0	-580356.0
20	17	31	11	277	186.0	-210350.0	796.0	-578062.0
20	17	31	11	277	202.0	-195384.0	1662.0	-568059.0
20	17	31	11	278	203.0	-200771.0	1696.0	-568023.0
20	17	31	11	278	204.0	-204944.0	1728.0	-567423.0
20	17	31	11	279	205.0	-208062.0	1770.0	-566926.0
20	17	31	11	280	206.0	-210192.0	1812.0	-565416.0
20	17	31	11	280	207.0	-211834.0	1843.0	-563097.0
20	17	31	11	281	208.0	-213020.0	1869.0	-561518.0
20	17	31	11	312	209.0	-213408.0	1899.0	-559332.0
20	17	31	11	312	210.0	-212612.0	1923.0	-557459.0
20	17	31	11	313	211.0	-210962.0	1955.0	-556686.0
20	17	31	11	357	212.0	-208579.0	1994.0	-556629.0
20	17	31	11	358	213.0	-205268.0	2022.0	-556950.0
20	17	31	11	358	214.0	-201364.0	2031.0	-557436.0
20	17	31	11	359	215.0	-197615.0	2071.0	-557807.0
20	17	31	11	359	216.0	-194498.0	2068.0	-557441.0
20	17	31	11	360	217.0	-192098.0	2099.0	-556912.0
20	17	31	11	361	218.0	-190709.0	2110.0	-556131.0
20	17	31	11	402	219.0	-190637.0	2104.0	-553834.0
20	17	31	11	403	220.0	-191536.0	2136.0	-551274.0
20	17	31	11	404	221.0	-192946.0	2151.0	-551486.0
20	17	31	11	404	222.0	-194945.0	2136.0	-551781.0
20	17	31	11	405	223.0	-197588.0	2162.0	-551996.0
20	17	31	11	406	224.0	-200547.0	2168.0	-553197.0
20	17	31	11	406	225.0	-203141.0	2183.0	-552968.0
20	17	31	11	407	226.0	-205006.0	2203.0	-551551.0
20	17	31	11	407	247.0	-199336.0	2137.0	-531301.0
20	17	31	11	408	248.0	-200354.0	2122.0	-531395.0
20	17	31	11	409	249.0	-201491.0	2123.0	-530134.0
20	17	31	11	409	250.0	-202450.0	2111.0	-528874.0
20	17	31	11	447	251.0	-203000.0	2108.0	-528300.0
20	17	31	11	448	252.0	-203046.0	2092.0	-529196.0
20	17	31	11	449	253.0	-202984.0	2074.0	-530627.0
20	17	31	11	449	254.0	-202664.0	2044.0	-530746.0
20	17	31	11	450	14.0	-205754.0	1837.0	-514814.0
20	17	31	11	451	15.0	-203862.0	1803.0	-515325.0
20	17	31	11	451	16.0	-201880.0	1789.0	-515408.0
20	17	31	11	452	17.0	-199847.0	1776.0	-516034.0
20	17	31	11	453	18.0	-197828.0	1771.0	-517161.0
20	17	31	11	453	19.0	-195917.0	1746.0	-517200.0
20	17	31	11	454	20.0	-194311.0	1726.0	-517268.0
20	17	31	11	454	21.0	-193183.0	1705.0	-516325.0
20	17	31	11	455	22.0	-192549.0	1681.0	-513533.0
20	17	31	11	456	23.0	-191910.0	1669.0	-510176.0
20	17	31	11	456	24.0	-191138.0	1657.0	-509621.0
20	17	31	11	457	36.0	-195099.0	1540.0	-514347.0
20	17	31	11	457	37.0	-196689.0	1560.0	-516578.0
20	17	31	11	458	38.0	-198311.0	1552.0	-517249.0
20	17	31	11	459	39.0	-199867.0	1539.0	-517391.0
20	17	31	11	459	40.0	-201264.0	1514.0	-517731.0
20	17	31	11	460	41.0	-202355.0	1508.0	-517474.0
20	17	31	11	493	42.0	-203080.0	1509.0	-517058.0
20	17	31	11	493	43.0	-203366.0	1510.0	-516081.0
20	17	31	11	494	44.0	-203420.0	1503.0	-515426.0
20	17	31	11	495	45.0	-203660.0	1485.0	-515516.0
20	17	31	11	495	46.0	-203913.0	1500.0	-517319.0
20	17	31	11	536	47.0	-204263.0	1491.0	-519626.0
20	17	31	11	537	48.0	-204896.0	1471.0	-520770.0
20	17	31	11	538	49.0	-205686.0	1458.0	-519621.0
20	17	31	11	538	50.0	-206321.0	1458.0	-518509.0
20	17	31	11	539	51.0	-206731.0	1449.0	-517127.0
20	17	31	11	540	52.0	-206800.0	1424.0	-514795.0
20	17	31	11	540	53.0	-206316.0	1405.0	-512939.0
20	17	31	11	583	54.0	-205296.0	1400.0	-512593.0
20	17	31	11	584	55.0	-203992.0	1398.0	-512184.0
20	17	31	11	585	56.0	-202551.0	1387.0	-511751.0
20	17	31	11	585	58.0	-200102.0	1349.0	-511006.0
20	17	31	11	586	59.0	-199439.0	1337.0	-510395.0
20	17	31	11	587	60.0	-199152.0	1332.0	-510262.0
20	17	31	11	587	61.0	-198857.0	1317.0	-509997.0
20	17	31	11	628	62.0	-198524.0	1286.0	-508985.0
20	17	31	11	628	81.0	-195335.0	973.0	-499724.0
20	17	31	11	629	82.0	-194994.0	942.0	-498775.0
20	17	31	11	630	83.0	-195052.0	928.0	-498302.0
20	17	31	11	630	84.0	-195432.0	894.0	-499123.0
20	17	31	11	631	85.0	-196397.0	887.0	-500306.0
20	17	31	11	631	86.0	-197560.0	869.0	-501791.0
20	17	31	11	673	87.0	-198560.0	842.0	-502148.0
20	17	31	11	673	88.0	-199459.0	833.0	-502536.0
20	17	31	11	674	104.0	-198346.0	433.0	-493962.0
20	17	31	11	675	105.0	-198071.0	414.0	-495092.0
20	17	31	11	675	106.0	-197906.0	373.0	-497252.0
20	17	31	11	676	107.0	-197806.0	324.0	-498342.0
20	17	31	11	677	108.0	-197655.0	284.0	-498079.0
20	17	31	11	677	109.0	-197357.0	266.0	-497424.0
20	17	31	11	718	110.0	-197051.0	254.0	-497328.0
20	17	31	11	763	126.0	-194638.0	-271.0	-495941.0
20	17	31	11	763	127.0	-193626.0	-302.0	-495680.0
20	17	31	11	764	128.0	-192894.0	-345.0	-495857.0
20	17	31	11	765	129.0	-192262.0	-386.0	-495544.0
20	17	31	11	765	130.0	-191869.0	-425.0	-494980.0
20	17	31	11	766	131.0	-191611.0	-450.0	-494203.0
20	17	31	11	766	132.0	-191526.0	-467.0	-493212.0
20	17	31	11	854	148.0	-212727.0	-918.0	-480167.0
20	17	31	11	854	149.0	-213940.0	-951.0	-479264.0
20	17	31	11	855	150.0	-215141.0	-995.0	-478247.0
20	17	31	11	856	151.0	-216180.0	-1028.0	-477556.0
20	17	31	11	857	152.0	-216589.0	-1050.0	-475119.0
20	17	31	11	858	153.0	-216393.0	-1084.0	-472325.0
20	17	31	11	858	154.0	-215557.0	-1092.0	-470532.0
20	17	31	11	900	155.0	-214202.0	-1109.0	-469833.0
20	17	31	11	901	193.0	-147222.0	-2064.0	-461282.0
20	17	31	11	902	194.0	-154486.0	-2079.0	-463188.0
20	17	31	11	903	195.0	-163969.0	-2103.0	-464817.0
20	17	31	11	903	196.0	-173738.0	-2139.0	-466437.0
20	17	31	11	904	197.0	-185426.0	-2156.0	-466347.0
20	17	31	11	905	198.0	-201137.0	-2191.0	-465191.0
20	17	31	11	905	199.0	-216479.0	-2221.0	-462909.0
20	17	31	11	906	200.0	-231566.0	-2246.0	-459600.0
20	17	31	11	907	238.0	-220757.0	-3228.0	-435272.0
20	17	31	11	908	239.0	-223689.0	-3259.0	-435805.0
20	17	31	11	908	240.0	-224929.0	-3271.0	-436455.0
20	17	31	11	909	241.0	-224775.0	-3314.0	-437444.0
20	17	31	11	910	242.0	-223603.0	-3344.0	-437486.0
20	17	31	11	911	243.0	-221591.0	-3386.0	-438079.0
20	17	31	11	911	244.0	-218904.0	-3392.0	-440030.0
20	17	31	11	912	5.0	-203449.0	-3764.0	-446365.0
20	17	31	11	913	6.0	-204417.0	-3787.0	-443331.0
20	17	31	11	914	7.0	-205286.0	-3826.0	-440920.0
20	17	31	11	914	8.0	-206049.0	-3874.0	-439917.0
20	17	31	11	915	9.0	-206672.0	-3899.0	-439153.0
20	17	31	11	916	10.0	-206969.0	-3922.0	-438746.0
20	17	31	11	942	11.0	-206891.0	-3949.0	-438356.0
20	17	31	11	943	12.0	-206526.0	-3960.0	-436392.0
20	17	31	11	943	13.0	-205991.0	-3997.0	-432765.0
20	17	31	11	987	14.0	-205037.0	-4034.0	-429668.0
20	17	31	11	988	15.0	-203902.0	-4077.0	-426827.0
20	17	31	11	988	16.0	-202445.0	-4111.0	-424349.0
20	17	31	11	989	17.0	-200546.0	-4139.0	-423009.0
20	17	31	11	989	18.0	-198428.0	-4154.0	-421872.0
20	17	31	11	990	19.0	-196617.0	-4181.0	-421569.0
20	17	31	11	991	20.0	-195231.0	-4207.0	-422797.0
20	17	31	11	991	21.0	-194279.0	-4221.0	-422649.0
20	17	31	11	992	22.0	-193775.0	-4268.0	-422827.0
20	17	31	11	993	23.0	-193521.0	-4291.0	-422507.0
20	17	31	11	993	24.0	-193349.0	-4310.0	-420843.0
20	17	31	11	994	25.0	-193234.0	-4334.0	-418362.0
20	17	31	11	994	27.0	-192420.0	-4412.0	-412950.0
20	17	31	11	995	28.0	-191467.0	-4439.0	-412811.0
20	17	31	11	996	29.0	-190585.0	-4452.0	-413466.0
20	17	31	11	996	49.0	-204418.0	-4319.0	-413965.0
20	17	31	11	997	50.0	-204290.0	-4258.0	-414551.0
20	17	31	11	998	51.0	-204263.0	-4200.0	-414985.0
20	17	31	11	998	52.0	-204305.0	-4148.0	-415962.0
20	17	31	11	999	53.0	-204679.0	-4090.0	-415974.0
20	17	31	12	0	54.0	-204979.0	-4006.0	-415417.0
20	17	31	12	0	55.0	-204975.0	-3946.0	-413941.0
20	17	31	12	38	56.0	-204935.0	-3873.0	-412090.0
20	17	31	12	39	57.0	-204842.0	-3774.0	-411411.0
20	17	31	12	40	58.0	-204030.0	-3702.0	-409872.0
20	17	31	12	40	59.0	-202243.0	-3611.0	-409122.0
20	17	31	12	41	60.0	-199955.0	-3512.0	-408529.0
20	17	31	12	42	61.0	-197749.0	-3424.0	-408434.0
20	17	31	12	42	62.0	-195862.0	-3321.0	-409216.0
20	17	31	12	43	63.0	-194782.0	-3234.0	-409841.0
20	17	31	12	77	64.0	-194870.0	-3159.0	-410084.0
20	17	31	12	77	65.0	-195621.0	-3057.0	-408841.0
20	17	31	12	78	66.0	-197231.0	-2952.0	-407699.0
20	17	31	12	79	67.0	-199809.0	-2836.0	-407913.0
20	17	31	12	79	68.0	-202793.0	-2738.0	-409375.0
20	17	31	12	80	69.0	-205767.0	-2644.0	-411632.0
20	17	31	12	81	70.0	-208179.0	-2548.0	-415086.0
20	17	31	12	81	72.0	-210766.0	-2351.0	-420124.0
20	17	31	12	123	73.0	-210828.0	-2253.0	-423322.0
20	17	31	12	124	74.0	-210169.0	-2188.0	-425574.0
20	17	31	12	125	75.0	-208991.0	-2099.0	-426681.0
20	17	31	12	125	76.0	-207164.0	-2009.0	-428204.0
20	17	31	12	126	77.0	-203669.0	-1931.0	-429399.0
20	17	31	12	126	78.0	-196544.0	-1851.0	-430695.0
20	17	31	12	127	79.0	-185578.0	-1758.0	-432667.0
20	17	31	12	128	94.0	-171492.0	-727.0	-420165.0
20	17	31	12	167	95.0	-173583.0	-676.0	-419333.0
20	17	31	12	168	96.0	-178604.0	-627.0	-419314.0
20	17	31	12	191	97.0	-184930.0	-585.0	-420596.0
20	17	31	12	192	98.0	-191450.0	-526.0	-420874.0
20	17	31	12	193	99.0	-197844.0	-491.0	-420629.0
20	17	31	12	194	100.0	-203706.0	-466.0	-420557.0
20	17	31	12	194	101.0	-208540.0	-420.0	-420966.0
20	17	31	12	195	117.0	-186998.0	-26.0	-398444.0
20	17	31	12	195	118.0	-185946.0	9.0	-397394.0
20	17	31	12	196	119.0	-186111.0	16.0	-397788.0
20	17	31	12	196	120.0	-186997.0	24.0	-397779.0
20	17	31	12	197	121.0	-188185.0	34.0	-397074.0
20	17	31	12	198	122.0	-189181.0	47.0	-397087.0
20	17	31	12	198	123.0	-189896.0	58.0	-397312.0
20	17	31	12	199	124.0	-190178.0	63.0	-396316.0
20	17	31	12	199	139.0	-198501.0	97.0	-392136.0
20	17	31	12	200	140.0	-200602.0	81.0	-391608.0
20	17	31	12	200	141.0	-203009.0	81.0	-389576.0
20	17	31	12	201	142.0	-205653.0	58.0	-387941.0
20	17	31	12	202	143.0	-208547.0	39.0	-386507.0
20	17	31	12	202	144.0	-211294.0	29.0	-384826.0
20	17	31	12	203	145.0	-213738.0	18.0	-382686.0
20	17	31	12	214	146.0	-215794.0	4.0	-380736.0
20	17	31	12	215	147.0	-217436.0	6.0	-379040.0
20	17	31	12	215	148.0	-218397.0	-21.0	-378400.0
20	17	31	12	216	149.0	-218519.0	-24.0	-378233.0
20	17	31	12	217	150.0	-217976.0	-49.0	-378438.0
20	17	31	12	217	151.0	-216908.0	-47.0	-377154.0
20	17	31	12	218	152.0	-215694.0	-61.0	-374482.0
20	17	31	12	303	153.0	-214421.0	-66.0	-372257.0
20	17	31	12	304	154.0	-213201.0	-91.0	-369716.0
20	17	31	12	305	155.0	-211904.0	-107.0	-366801.0
20	17	31	12	305	156.0	-210819.0	-123.0	-366439.0
20	17	31	12	306	157.0	-209983.0	-128.0	-366092.0
20	17	31	12	307	158.0	-209194.0	-159.0	-365727.0
20	17	31	12	307	159.0	-208151.0	-159.0	-366149.0
20	17	31	12	308	160.0	-206463.0	-167.0	-365544.0
20	17	31	12	347	162.0	-202075.0	-180.0	-363259.0
20	17	31	12	348	163.0	-199687.0	-215.0	-363284.0
20	17	31	12	349	164.0	-197292.0	-232.0	-363349.0
20	17	31	12	349	165.0	-195056.0	-256.0	-362695.0
20	17	31	12	350	166.0	-192944.0	-270.0	-362067.0
20	17	31	12	351	167.0	-191117.0	-271.0	-362602.0
20	17	31	12	352	168.0	-189671.0	-275.0	-364933.0
20	17	31	12	391	169.0	-188664.0	-292.0	-366037.0
20	17	31	12	392	207.0	-201314.0	-787.0	-359880.0
20	17	31	12	393	208.0	-200383.0	-804.0	-360208.0
20	17	31	12	394	209.0	-199827.0	-809.0	-360111.0
20	17	31	12	394	210.0	-199611.0	-819.0	-359799.0
20	17	31	12	395	211.0	-199961.0	-840.0	-360104.0
20	17	31	12	396	212.0	-200793.0	-841.0	-359664.0
20	17	31	12	437	213.0	-201804.0	-877.0	-358411.0
20	17	31	12	439	229.0	-198464.0	-1135.0	-349630.0
20	17	31	12	440	230.0	-196755.0	-1181.0	-349662.0
20	17	31	12	440	231.0	-195086.0	-1192.0	-350342.0
20	17	31	12	441	232.0	-193508.0	-1213.0	-350506.0
20	17	31	12	441	233.0	-192112.0	-1232.0	-350292.0
20	17	31	12	442	234.0	-190974.0	-1245.0	-349635.0
20	17	31	12	482	235.0	-190117.0	-1247.0	-348649.0
20	17	31	12	483	236.0	-189537.0	-1282.0	-347876.0
20	17	31	12	484	252.0	-203772.0	-1549.0	-346022.0
20	17	31	12	485	253.0	-205029.0	-1579.0	-346523.0
20	17	31	12	485	254.0	-206766.0	-1601.0	-346087.0
20	17	31	12	486	255.0	-208641.0	-1599.0	-345226.0
20	17	31	12	487	0.0	-210578.0	-1621.0	-345195.0
20	17	31	12	488	1.0	-212372.0	-1659.0	-347024.0
20	17	31	12	488	2.0	-213631.0	-1684.0	-348784.0
20	17	31	12	489	18.0	-189101.0	-2081.0	-342402.0
20	17	31	12	490	19.0	-190134.0	-2106.0	-341098.0
20	17	31	12	490	20.0	-191439.0	-2147.0	-342057.0
20	17	31	12	491	21.0	-192821.0	-2174.0	-343086.0
20	17	31	12	492	22.0	-194216.0	-2189.0	-344036.0
20	17	31	12	492	23.0	-195701.0	-2235.0	-345353.0
20	17	31	12	493	24.0	-197142.0	-2262.0	-346512.0
20	17	31	12	494	41.0	-198114.0	-2733.0	-338188.0
20	17	31	12	494	42.0	-197626.0	-2742.0	-337967.0
20	17	31	12	495	43.0	-197192.0	-2782.0	-338284.0
20	17	31	12	496	44.0	-196541.0	-2825.0	-339063.0
20	17	31	12	496	45.0	-195628.0	-2859.0	-339337.0
20	17	31	12	497	46.0	-194729.0	-2901.0	-339140.0
20	17	31	12	528	47.0	-193813.0	-2931.0	-338406.0
20	17	31	12	529	48.0	-192876.0	-2965.0	-337360.0
20	17	31	12	530	49.0	-192071.0	-3014.0	-336115.0
20	17	31	12	530	50.0	-191479.0	-3051.0	-335751.0
20	17	31	12	531	51.0	-191275.0	-3093.0	-335999.0
20	17	31	12	532	52.0	-191547.0	-3118.0	-337052.0
20	17	31	12	533	53.0	-192305.0	-3148.0	-337602.0
20	17	31	12	533	54.0	-193401.0	-3195.0	-337782.0
20	17	31	12	534	55.0	-194522.0	-3231.0	-337935.0
20	17	31	12	535	56.0	-195583.0	-3252.0	-338769.0
20	17	31	12	535	57.0	-196679.0	-3279.0	-339744.0
20	17	31	12	536	58.0	-197798.0	-3299.0	-338768.0
20	17	31	12	536	59.0	-199048.0	-3331.0	-336489.0
20	17	31	12	537	60.0	-200376.0	-3350.0	-335293.0
20	17	31	12	537	61.0	-201564.0	-3366.0	-334248.0
20	17	31	12	572	63.0	-203217.0	-3407.0	-332178.0
20	17	31	12	573	64.0	-203474.0	-3441.0	-330791.0
20	17	31	12	574	65.0	-203861.0	-3471.0	-327307.0
20	17	31	12	575	66.0	-204844.0	-3489.0	-322958.0
20	17	31	12	575	67.0	-206567.0	-3517.0	-319670.0
20	17	31	12	576	68.0	-209272.0	-3546.0	-315984.0
20	17	31	12	577	69.0	-212839.0	-3582.0	-312066.0
20	17	31	12	578	70.0	-217077.0	-3617.0	-310154.0
20	17	31	12	618	71.0	-220821.0	-3641.0	-309819.0
20	17	31	12	618	72.0	-222941.0	-3671.0	-310596.0
20	17	31	12	619	73.0	-223029.0	-3702.0	-312012.0
20	17	31	12	620	74.0	-221172.0	-3720.0	-314637.0
20	17	31	12	620	75.0	-217239.0	-3753.0	-317506.0
20	17	31	12	621	76.0	-209742.0	-3779.0	-319606.0
20	17	31	12	621	77.0	-197291.0	-3802.0	-321149.0
20	17	31	12	662	78.0	-182772.0	-3838.0	-322890.0
20	17	31	12	663	86.0	-173621.0	-4051.0	-334771.0
20	17	31	12	664	87.0	-182296.0	-4087.0	-333902.0
20	17	31	12	707	88.0	-194727.0	-4114.0	-331521.0
20	17	31	12	708	89.0	-208219.0	-4122.0	-327723.0
20	17	31	12	709	90.0	-222309.0	-4149.0	-323839.0
20	17	31	12	709	91.0	-232601.0	-4196.0	-320852.0
20	17	31	12	720	92.0	-237789.0	-4224.0	-319336.0
20	17	31	12	721	108.0	-210192.0	-4682.0	-297477.0
20	17	31	12	722	109.0	-210513.0	-4719.0	-294519.0
20	17	31	12	722	110.0	-207027.0	-4744.0	-293843.0
20	17	31	12	723	111.0	-201111.0	-4768.0	-292926.0
20	17	31	12	724	112.0	-194850.0	-4792.0	-292434.0
20	17	31	12	724	113.0	-189909.0	-4819.0	-292281.0
20	17	31	12	725	114.0	-187015.0	-4837.0	-292268.0
20	17	31	12	725	115.0	-186710.0	-4869.0	-292431.0
20	17	31	12	726	131.0	-225402.0	-5231.0	-315185.0
20	17	31	12	726	132.0	-223621.0	-5240.0	-316794.0
20	17	31	12	727	153.0	-206967.0	-5616.0	-315404.0
20	17	31	12	727	154.0	-207187.0	-5641.0	-314460.0
20	17	31	12	728	155.0	-206974.0	-5657.0	-313579.0
20	17	31	12	728	156.0	-206621.0	-5687.0	-311728.0
20	17	31	12	729	157.0	-206190.0	-5727.0	-310147.0
20	17	31	12	730	158.0	-205714.0	-5754.0	-308733.0
20	17	31	12	797	159.0	-204867.0	-5779.0	-307643.0
20	17	31	12	798	160.0	-203769.0	-5789.0	-306855.0
20	17	31	12	799	161.0	-202675.0	-5813.0	-304658.0
20	17	31	12	799	162.0	-201622.0	-5827.0	-304299.0
20	17	31	12	800	163.0	-200548.0	-5854.0	-302854.0
20	17	31	12	801	164.0	-199311.0	-5877.0	-300651.0
20	17	31	12	801	165.0	-197782.0	-5896.0	-299421.0
20	17	31	12	802	166.0	-196188.0	-5922.0	-298743.0
20	17	31	12	843	167.0	-194898.0	-5941.0	-296489.0
20	17	31	12	843	168.0	-193987.0	-5954.0	-294342.0
20	17	31	12	844	169.0	-193440.0	-5989.0	-292869.0
20	17	31	12	845	170.0	-192859.0	-6011.0	-291374.0
20	17	31	12	845	171.0	-192326.0	-6037.0	-290721.0
20	17	31	12	846	172.0	-192026.0	-6054.0	-290699.0
20	17	31	12	846	173.0	-191970.0	-6066.0	-290286.0
20	17	31	12	847	198.0	-197322.0	-6120.0	-287296.0
20	17	31	12	887	199.0	-197552.0	-6087.0	-286321.0
20	17	31	12	888	200.0	-198130.0	-6031.0	-286997.0
20	17	31	12	889	201.0	-199026.0	-5979.0	-288799.0
20	17	31	12	889	202.0	-200031.0	-5935.0	-290394.0
20	17	31	12	890	203.0	-201236.0	-5897.0	-291206.0
20	17	31	12	890	204.0	-202681.0	-5826.0	-291117.0
20	17	31	12	891	205.0	-204445.0	-5781.0	-291331.0
20	17	31	12	932	220.0	-212926.0	-4731.0	-311364.0
20	17	31	12	933	221.0	-209704.0	-4630.0	-315153.0
20	17	31	12	933	222.0	-205944.0	-4549.0	-318785.0
20	17	31	12	934	223.0	-200207.0	-4484.0	-321081.0
20	17	31	12	934	224.0	-189652.0	-4398.0	-321672.0
20	17	31	12	935	225.0	-175397.0	-4318.0	-320926.0
20	17	31	12	936	226.0	-166044.0	-4254.0	-318577.0
20	17	31	12	936	227.0	-166901.0	-4196.0	-315757.0
20	17	31	12	937	243.0	-179609.0	-3319.0	-310087.0
20	17	31	12	938	244.0	-185525.0	-3286.0	-309701.0
20	17	31	12	938	245.0	-191387.0	-3213.0	-308878.0
20	17	31	12	939	246.0	-197106.0	-3175.0	-307524.0
20	17	31	12	939	247.0	-202391.0	-3134.0	-305939.0
20	17	31	12	940	248.0	-207165.0	-3097.0	-304231.0
20	17	31	12	940	249.0	-211412.0	-3051.0	-303436.0
20	17	31	12	941	250.0	-215032.0	-3007.0	-302831.0
20	17	31	12	942	10.0	-189642.0	-2631.0	-284016.0
20	17	31	12	942	11.0	-191401.0	-2600.0	-282667.0
20	17	31	12	943	12.0	-193062.0	-2585.0	-281328.0
20	17	31	12	943	13.0	-194539.0	-2575.0	-280267.0
20	17	31	12	944	14.0	-195639.0	-2562.0	-280123.0
20	17	31	12	945	15.0	-196407.0	-2544.0	-280969.0
20	17	31	12	977	16.0	-196944.0	-2541.0	-280824.0
20	17	31	13	22	17.0	-197177.0	-2539.0	-279762.0
20	17	31	13	23	18.0	-197079.0	-2557.0	-280149.0
20	17	31	13	24	19.0	-196911.0	-2552.0	-279632.0
20	17	31	13	24	20.0	-196976.0	-2522.0	-278479.0
20	17	31	13	25	21.0	-197339.0	-2521.0	-278757.0
20	17	31	13	26	22.0	-197464.0	-2539.0	-278606.0
20	17	31	13	26	23.0	-197577.0	-2536.0	-278169.0
20	17	31	13	27	24.0	-197782.0	-2526.0	-278396.0
20	17	31	13	27	25.0	-197969.0	-2516.0	-278457.0
20	17	31	13	28	26.0	-198472.0	-2509.0	-278576.0
20	17	31	13	29	27.0	-199431.0	-2507.0	-278718.0
20	17	31	13	29	28.0	-200681.0	-2505.0	-279134.0
20	17	31	13	30	29.0	-202073.0	-2513.0	-278540.0
20	17	31	13	30	30.0	-203383.0	-2505.0	-277539.0
20	17	31	13	31	32.0	-204717.0	-2504.0	-275121.0
20	17	31	13	32	54.0	-202027.0	-2545.0	-264676.0
20	17	31	13	32	55.0	-201155.0	-2548.0	-265370.0
20	17	31	13	33	56.0	-199982.0	-2549.0	-265779.0
20	17	31	13	33	57.0	-198952.0	-2541.0	-266644.0
20	17	31	13	34	58.0	-197970.0	-2537.0	-266912.0
20	17	31	13	35	59.0	-196794.0	-2542.0	-266351.0
20	17	31	13	35	60.0	-195724.0	-2549.0	-264931.0
20	17	31	13	67	61.0	-194884.0	-2554.0	-263537.0
20	17	31	13	68	62.0	-194544.0	-2557.0	-262574.0
20	17	31	13	68	63.0	-194629.0	-2557.0	-262344.0
20	17	31	13	69	64.0	-194763.0	-2569.0	-263478.0
20	17	31	13	70	65.0	-194802.0	-2577.0	-264790.0
20	17	31	13	70	66.0	-194972.0	-2587.0	-265191.0
20	17	31	13	71	67.0	-195179.0	-2597.0	-265490.0
20	17	31	13	113	68.0	-195152.0	-2623.0	-264352.0
20	17	31	13	114	69.0	-194852.0	-2621.0	-263664.0
20	17	31	13	115	70.0	-194418.0	-2612.0	-263743.0
20	17	31	13	115	71.0	-193877.0	-2621.0	-263136.0
20	17	31	13	116	72.0	-193192.0	-2638.0	-262949.0
20	17	31	13	116	73.0	-192671.0	-2637.0	-263566.0
20	17	31	13	117	74.0	-192492.0	-2662.0	-264919.0
20	17	31	13	118	75.0	-192760.0	-2673.0	-266097.0
20	17	31	13	204	77.0	-194391.0	-2673.0	-267701.0
20	17	31	13	204	78.0	-195338.0	-2691.0	-268265.0
20	17	31	13	205	79.0	-196387.0	-2698.0	-267227.0
20	17	31	13	206	80.0	-197198.0	-2689.0	-266068.0
20	17	31	13	206	81.0	-197735.0	-2700.0	-265510.0
20	17	31	13	207	82.0	-198311.0	-2702.0	-264671.0
20	17	31	13	208	83.0	-199187.0	-2697.0	-264656.0
20	17	31	13	208	84.0	-200364.0	-2710.0	-265946.0
20	17	31	13	209	100.0	-202514.0	-2757.0	-267356.0
20	17	31	13	209	101.0	-200904.0	-2739.0	-265849.0
20	17	31	13	210	102.0	-199258.0	-2746.0	-262621.0
20	17	31	13	211	103.0	-197779.0	-2765.0	-260657.0
20	17	31	13	211	104.0	-196297.0	-2766.0	-260936.0
20	17	31	13	212	105.0	-195032.0	-2769.0	-262319.0
20	17	31	13	213	106.0	-194347.0	-2782.0	-262994.0
20	17	31	13	214	144.0	-205297.0	-3255.0	-246786.0
20	17	31	13	215	145.0	-205208.0	-3269.0	-247040.0
20	17	31	13	215	146.0	-204934.0	-3306.0	-247532.0
20	17	31	13	216	147.0	-204496.0	-3304.0	-247441.0
20	17	31	13	216	148.0	-204017.0	-3301.0	-247286.0
20	17	31	13	217	149.0	-203514.0	-3342.0	-246591.0
20	17	31	13	218	150.0	-203023.0	-3368.0	-245926.0
20	17	31	13	248	151.0	-202607.0	-3391.0	-245332.0
20	17	31	13	249	152.0	-202286.0	-3392.0	-245239.0
20	17	31	13	250	153.0	-201987.0	-3416.0	-245379.0
20	17	31	13	250	154.0	-201614.0	-3461.0	-245776.0
20	17	31	13	251	155.0	-200789.0	-3490.0	-246699.0
20	17	31	13	251	156.0	-199447.0	-3497.0	-248554.0
20	17	31	13	252	157.0	-197913.0	-3515.0	-249957.0
20	17	31	13	252	158.0	-196315.0	-3509.0	-250930.0
20	17	31	13	292	159.0	-194299.0	-3536.0	-251349.0
20	17	31	13	292	160.0	-191893.0	-3561.0	-250116.0
20	17	31	13	293	161.0	-189705.0	-3586.0	-248657.0
20	17	31	13	294	162.0	-187881.0	-3602.0	-248121.0
20	17	31	13	316	163.0	-186622.0	-3631.0	-249475.0
20	17	31	13	317	164.0	-185946.0	-3665.0	-251177.0
20	17	31	13	317	165.0	-185955.0	-3682.0	-253056.0
20	17	31	13	340	167.0	-187848.0	-3737.0	-253281.0
20	17	31	13	341	168.0	-189509.0	-3772.0	-252135.0
20	17	31	13	341	169.0	-191511.0	-3799.0	-251160.0
20	17	31	13	342	170.0	-193669.0	-3819.0	-249484.0
20	17	31	13	343	171.0	-195947.0	-3851.0	-247683.0
20	17	31	13	343	172.0	-198272.0	-3874.0	-247309.0
20	17	31	13	344	173.0	-200577.0	-3905.0	-246834.0
20	17	31	13	428	174.0	-202405.0	-3930.0	-245688.0
20	17	31	13	429	175.0	-203360.0	-3940.0	-246512.0
20	17	31	13	429	189.0	-199784.0	-4281.0	-242035.0
20	17	31	13	430	190.0	-201635.0	-4313.0	-241190.0
20	17	31	13	431	191.0	-203319.0	-4336.0	-239141.0
20	17	31	13	431	192.0	-204847.0	-4349.0	-237731.0
20	17	31	13	432	193.0	-205963.0	-4366.0	-237216.0
20	17	31	13	432	194.0	-206866.0	-4382.0	-237236.0
20	17	31	13	473	195.0	-207781.0	-4404.0	-236992.0
20	17	31	13	473	212.0	-214328.0	-4847.0	-214594.0
20	17	31	13	474	213.0	-207523.0	-4865.0	-215855.0
20	17	31	13	518	214.0	-198147.0	-4881.0	-218650.0
20	17	31	13	519	215.0	-184868.0	-4917.0	-223290.0
20	17	31	13	519	216.0	-169748.0	-4932.0	-227227.0
20	17	31	13	520	217.0	-156545.0	-4967.0	-230047.0
20	17	31	13	521	218.0	-148125.0	-4980.0	-234402.0
20	17	31	13	521	1.0	-191177.0	-5795.0	-195386.0
20	17	31	13	522	2.0	-192675.0	-5814.0	-199257.0
20	17	31	13	563	3.0	-194508.0	-5844.0	-203250.0
20	17	31	13	564	4.0	-197210.0	-5873.0	-206600.0
20	17	31	13	565	5.0	-200764.0	-5899.0	-208203.0
20	17	31	13	565	6.0	-204877.0	-5905.0	-209892.0
20	17	31	13	566	7.0	-209392.0	-5929.0	-212179.0
20	17	31	13	566	23.0	-182119.0	-6220.0	-247684.0
20	17	31	13	567	24.0	-180444.0	-6232.0	-247329.0
20	17	31	13	606	45.0	-205551.0	-6597.0	-232657.0
20	17	31	13	607	46.0	-204588.0	-6627.0	-231388.0
20	17	31	13	653	47.0	-203310.0	-6633.0	-229754.0
20	17	31	13	697	48.0	-201899.0	-6659.0	-229754.0
20	17	31	13	698	49.0	-200919.0	-6680.0	-229517.0
20	17	31	13	699	50.0	-200402.0	-6694.0	-229126.0
20	17	31	13	742	51.0	-199854.0	-6702.0	-228366.0
20	17	31	13	743	52.0	-199331.0	-6731.0	-227014.0
20	17	31	13	744	68.0	-198346.0	-6891.0	-223252.0
20	17	31	13	745	69.0	-196657.0	-6900.0	-224575.0
20	17	31	13	746	70.0	-195114.0	-6894.0	-224811.0
20	17	31	13	747	71.0	-193507.0	-6879.0	-225421.0
20	17	31	13	748	72.0	-191939.0	-6865.0	-226167.0
20	17	31	13	748	73.0	-190600.0	-6878.0	-225379.0
20	17	31	13	749	74.0	-189704.0	-6858.0	-224750.0
20	17	31	13	750	75.0	-188924.0	-6826.0	-223744.0
20	17	31	13	751	91.0	-202576.0	-6066.0	-229805.0
20	17	31	13	752	113.0	-221994.0	-4396.0	-247561.0
20	17	31	13	753	135.0	-210612.0	-3344.0	-252766.0
20	17	31	13	754	136.0	-209336.0	-3302.0	-253112.0
20	17	31	13	755	137.0	-207916.0	-3276.0	-253318.0
20	17	31	13	755	158.0	-200195.0	-2802.0	-252056.0
20	17	31	13	756	159.0	-200735.0	-2801.0	-251708.0
20	17	31	13	757	160.0	-201442.0	-2779.0	-252091.0
20	17	31	13	758	161.0	-202148.0	-2748.0	-252207.0
20	17	31	13	758	162.0	-203249.0	-2736.0	-252336.0
20	17	31	13	759	163.0	-204994.0	-2728.0	-253160.0
20	17	31	13	788	164.0	-207696.0	-2723.0	-252663.0
20	17	31	13	789	165.0	-209939.0	-2706.0	-251617.0
20	17	31	13	789	166.0	-211013.0	-2693.0	-252549.0
20	17	31	13	790	167.0	-211166.0	-2685.0	-253967.0
20	17	31	13	791	168.0	-210403.0	-2685.0	-255104.0
20	17	31	13	791	169.0	-208421.0	-2662.0	-256074.0
20	17	31	13	792	170.0	-206291.0	-2649.0	-256197.0
20	17	31	13	833	171.0	-205024.0	-2651.0	-255419.0
20	17	31	13	834	172.0	-204537.0	-2644.0	-254870.0
20	17	31	13	835	173.0	-204379.0	-2631.0	-255091.0
20	17	31	13	835	174.0	-204931.0	-2617.0	-255131.0
20	17	31	13	836	175.0	-205752.0	-2596.0	-254111.0
20	17	31	13	836	176.0	-206706.0	-2577.0	-253880.0
20	17	31	13	837	177.0	-207818.0	-2558.0	-254414.0
20	17	31	13	838	178.0	-208533.0	-2567.0	-254165.0
20	17	31	13	838	180.0	-209463.0	-2550.0	-256426.0
20	17	31	13	839	181.0	-209877.0	-2556.0	-256717.0
20	17	31	13	839	182.0	-210489.0	-2561.0	-255751.0
20	17	31	13	840	183.0	-211566.0	-2549.0	-254844.0
20	17	31	13	841	184.0	-212518.0	-2527.0	-253194.0
20	17	31	13	841	185.0	-213285.0	-2529.0	-251207.0
20	17	31	13	842	186.0	-214367.0	-2548.0	-250309.0
20	17	31	13	842	187.0	-216225.0	-2544.0	-250165.0
20	17	31	13	843	203.0	-187023.0	-2484.0	-242496.0
20	17	31	13	844	204.0	-185151.0	-2477.0	-239977.0
20	17	31	13	844	205.0	-184007.0	-2491.0	-238501.0
20	17	31	13	845	206.0	-183767.0	-2492.0	-238729.0
20	17	31	13	845	207.0	-183897.0	-2487.0	-239170.0
20	17	31	13	846	208.0	-183901.0	-2487.0	-240817.0
20	17	31	13	877	209.0	-183700.0	-2481.0	-242429.0
20	17	31	13	878	210.0	-183433.0	-2479.0	-243040.0
20	17	31	13	878	211.0	-183051.0	-2466.0	-242121.0
20	17	31	13	879	212.0	-182907.0	-2466.0	-240909.0
20	17	31	13	880	213.0	-183019.0	-2457.0	-240584.0
20	17	31	13	880	214.0	-183437.0	-2436.0	-239597.0
20	17	31	13	881	215.0	-184360.0	-2423.0	-239057.0
20	17	31	13	922	216.0	-185436.0	-2426.0	-239414.0
20	17	31	13	923	217.0	-186549.0	-2426.0	-240684.0
20	17	31	13	923	218.0	-187796.0	-2424.0	-241102.0
20	17	31	13	924	219.0	-189465.0	-2426.0	-242120.0
20	17	31	13	924	220.0	-191527.0	-2412.0	-243287.0
20	17	31	13	925	221.0	-193707.0	-2386.0	-242532.0
20	17	31	13	926	222.0	-195989.0	-2389.0	-241332.0
20	17	31	13	967	223.0	-198724.0	-2375.0	-239721.0
20	17	31	13	968	225.0	-204671.0	-2359.0	-238526.0
20	17	31	13	968	226.0	-207854.0	-2346.0	-239271.0
20	17	31	13	969	227.0	-210674.0	-2324.0	-240267.0
20	17	31	13	970	228.0	-213128.0	-2299.0	-241309.0
20	17	31	13	970	229.0	-214986.0	-2282.0	-241997.0
20	17	31	13	971	230.0	-216174.0	-2287.0	-240976.0
20	17	31	14	28	231.0	-216920.0	-2262.0	-239572.0
20	17	31	14	43	232.0	-216959.0	-2245.0	-238452.0
20	17	31	14	44	248.0	-199519.0	-2177.0	-232062.0
20	17	31	14	44	249.0	-198658.0	-2170.0	-233555.0
20	17	31	14	45	250.0	-197918.0	-2177.0	-233462.0
20	17	31	14	46	251.0	-197079.0	-2165.0	-232939.0
20	17	31	14	46	252.0	-195983.0	-2152.0	-232257.0
20	17	31	14	47	253.0	-194854.0	-2157.0	-230799.0
20	17	31	14	47	254.0	-194369.0	-2168.0	-230794.0
20	17	31	14	67	14.0	-211541.0	-2171.0	-234581.0
20	17	31	14	68	15.0	-211757.0	-2147.0	-234074.0
20	17	31	14	69	16.0	-211682.0	-2148.0	-232224.0
20	17	31	14	90	17.0	-210948.0	-2160.0	-230135.0
20	17	31	14	91	18.0	-209550.0	-2136.0	-228776.0
20	17	31	14	92	19.0	-207728.0	-2137.0	-228574.0
20	17	31	14	92	20.0	-205974.0	-2142.0	-227744.0
20	17	31	14	93	52.0	-202461.0	-2400.0	-229342.0
20	17	31	14	93	53.0	-201322.0	-2401.0	-229221.0
20	17	31	14	94	54.0	-200133.0	-2414.0	-228850.0
20	17	31	14	94	55.0	-198876.0	-2417.0	-228745.0
20	17	31	14	95	56.0	-197562.0	-2414.0	-228495.0
20	17	31	14	95	57.0	-196468.0	-2409.0	-227466.0
20	17	31	14	96	58.0	-195644.0	-2432.0	-226941.0
20	17	31	14	97	59.0	-194882.0	-2453.0	-227354.0
20	17	31	14	97	60.0	-194081.0	-2482.0	-226494.0
20	17	31	14	98	61.0	-193194.0	-2483.0	-227086.0
20	17	31	14	113	62.0	-192466.0	-2486.0	-227856.0
20	17	31	14	113	67.0	-192267.0	-2542.0	-226051.0
20	17	31	14	114	68.0	-193799.0	-2554.0	-225669.0
20	17	31	14	115	69.0	-195816.0	-2575.0	-226098.0
20	17	31	14	115	70.0	-198021.0	-2596.0	-227448.0
20	17	31	14	116	71.0	-200414.0	-2610.0	-228794.0
20	17	31	14	116	72.0	-202607.0	-2636.0	-228941.0
20	17	31	14	117	73.0	-204492.0	-2648.0	-228582.0
20	17	31	14	118	74.0	-205461.0	-2661.0	-227885.0
20	17	31	14	118	75.0	-205778.0	-2678.0	-226962.0
20	17	31	14	119	76.0	-206211.0	-2690.0	-225694.0
20	17	31	14	120	77.0	-206829.0	-2695.0	-223532.0
20	17	31	14	120	78.0	-208019.0	-2703.0	-221616.0
20	17	31	14	121	79.0	-210359.0	-2726.0	-220113.0
20	17	31	14	135	80.0	-214202.0	-2745.0	-217878.0
20	17	31	14	136	81.0	-219077.0	-2740.0	-216699.0
20	17	31	14	136	82.0	-224281.0	-2759.0	-215564.0
20	17	31	14	137	83.0	-228454.0	-2794.0	-214941.0
20	17	31	14	164	84.0	-230494.0	-2804.0	-214724.0
20	17	31	14	165	85.0	-229827.0	-2811.0	-213584.0
20	17	31	14	166	86.0	-226830.0	-2842.0	-213428.0
20	17	31	14	166	87.0	-222284.0	-2859.0	-214088.0
20	17	31	14	167	88.0	-216052.0	-2869.0	-214626.0
20	17	31	14	167	89.0	-207154.0	-2885.0	-215950.0
20	17	31	14	168	90.0	-193681.0	-2903.0	-218000.0
20	17	31	14	169	91.0	-177321.0	-2919.0	-221881.0
20	17	31	14	169	92.0	-162087.0	-2922.0	-223797.0
20	17	31	14	170	93.0	-151692.0	-2915.0	-225397.0
20	17	31	14	188	94.0	-146772.0	-2946.0	-227027.0
20	17	31	14	189	95.0	-145773.0	-2976.0	-227099.0
20	17	31	14	189	97.0	-152643.0	-3000.0	-225195.0
20	17	31	14	190	98.0	-158602.0	-3010.0	-225272.0
20	17	31	14	190	99.0	-165534.0	-3019.0	-225866.0
20	17	31	14	191	104.0	-223164.0	-3089.0	-220094.0
20	17	31	14	192	105.0	-230814.0	-3105.0	-218622.0
20	17	31	14	192	106.0	-233827.0	-3120.0	-216613.0
20	17	31	14	193	107.0	-232471.0	-3146.0	-214113.0
20	17	31	14	194	108.0	-226576.0	-3158.0	-212252.0
20	17	31	14	194	109.0	-218948.0	-3176.0	-211377.0
20	17	31	14	195	110.0	-210900.0	-3179.0	-211984.0
20	17	31	14	195	111.0	-202914.0	-3207.0	-212099.0
20	17	31	14	196	112.0	-194989.0	-3219.0	-210924.0
20	17	31	14	211	113.0	-187371.0	-3231.0	-210426.0
20	17	31	14	212	119.0	-196329.0	-3320.0	-203903.0
20	17	31	14	212	120.0	-200416.0	-3336.0	-203273.0
20	17	31	14	213	121.0	-202416.0	-3348.0	-203106.0
20	17	31	14	213	122.0	-201602.0	-3370.0	-203430.0
20	17	31	14	214	123.0	-197781.0	-3394.0	-202347.0
20	17	31	14	215	124.0	-191654.0	-3419.0	-201509.0
20	17	31	14	215	125.0	-185470.0	-3441.0	-200056.0
20	17	31	14	216	126.0	-180958.0	-3445.0	-198399.0
20	17	31	14	217	127.0	-180061.0	-3464.0	-197610.0
20	17	31	14	217	128.0	-182944.0	-3479.0	-197659.0
20	17	31	14	218	129.0	-187792.0	-3477.0	-197484.0
20	17	31	14	218	130.0	-193309.0	-3479.0	-198377.0
20	17	31	14	219	131.0	-198417.0	-3497.0	-199673.0
20	17	31	14	220	132.0	-202432.0	-3522.0	-200854.0
20	17	31	14	220	133.0	-205741.0	-3556.0	-202431.0
20	17	31	14	221	134.0	-208641.0	-3569.0	-203440.0
20	17	31	14	221	135.0	-211297.0	-3566.0	-204068.0
20	17	31	14	222	136.0	-214092.0	-3566.0	-203987.0
20	17	31	14	223	137.0	-216681.0	-3584.0	-203507.0
20	17	31	14	223	138.0	-219335.0	-3621.0	-203155.0
20	17	31	14	224	139.0	-221995.0	-3629.0	-204446.0
20	17	31	14	225	140.0	-224250.0	-3649.0	-206343.0
20	17	31	14	225	141.0	-225697.0	-3681.0	-208049.0
20	17	31	14	226	142.0	-225626.0	-3679.0	-209429.0
20	17	31	14	256	143.0	-223799.0	-3699.0	-209654.0
20	17	31	14	256	144.0	-220622.0	-3712.0	-210866.0
20	17	31	14	257	145.0	-216620.0	-3724.0	-211847.0
20	17	31	14	258	146.0	-212124.0	-3739.0	-212651.0
20	17	31	14	258	147.0	-207399.0	-3757.0	-213268.0
20	17	31	14	259	148.0	-202451.0	-3769.0	-213055.0
20	17	31	14	259	149.0	-197250.0	-3776.0	-213543.0
20	17	31	14	260	150.0	-192183.0	-3795.0	-216357.0
20	17	31	14	261	151.0	-187616.0	-3809.0	-218278.0
20	17	31	14	261	152.0	-184134.0	-3809.0	-218814.0
20	17	31	14	262	153.0	-182031.0	-3824.0	-218774.0
20	17	31	14	262	154.0	-181583.0	-3856.0	-219282.0
20	17	31	14	263	155.0	-182975.0	-3847.0	-219932.0
20	17	31	14	263	156.0	-186084.0	-3854.0	-220616.0
20	17	31	14	264	157.0	-189990.0	-3874.0	-218509.0
20	17	31	14	264	158.0	-193885.0	-3879.0	-216678.0
20	17	31	14	265	159.0	-197621.0	-3906.0	-216146.0
20	17	31	14	266	160.0	-201329.0	-3913.0	-216844.0
20	17	31	14	266	161.0	-204782.0	-3916.0	-216272.0
20	17	31	14	267	162.0	-207626.0	-3931.0	-214973.0
20	17	31	14	267	163.0	-209763.0	-3944.0	-214599.0
20	17	31	14	282	164.0	-211519.0	-3949.0	-214877.0
20	17	31	14	283	165.0	-212902.0	-3968.0	-214165.0
20	17	31	14	283	166.0	-213844.0	-3973.0	-212008.0
20	17	31	14	284	167.0	-214011.0	-3988.0	-210520.0
20	17	31	14	284	168.0	-213617.0	-3996.0	-210091.0
20	17	31	14	285	169.0	-213133.0	-3999.0	-209053.0
20	17	31	14	286	170.0	-212349.0	-4006.0	-206898.0
20	17	31	14	286	171.0	-211791.0	-4017.0	-206091.0
20	17	31	14	312	172.0	-211449.0	-4049.0	-205589.0
20	17	31	14	313	173.0	-211341.0	-4064.0	-204844.0
20	17	31	14	313	174.0	-211177.0	-4077.0	-203003.0
20	17	31	14	314	175.0	-210869.0	-4094.0	-200942.0
20	17	31	14	315	176.0	-210313.0	-4118.0	-199996.0
20	17	31	14	315	177.0	-209387.0	-4129.0	-197821.0
20	17	31	14	316	178.0	-208133.0	-4116.0	-195681.0
20	17	31	14	327	179.0	-206596.0	-4122.0	-195099.0
20	17	31	14	327	180.0	-204937.0	-4152.0	-196066.0
20	17	31	14	328	181.0	-202899.0	-4175.0	-197032.0
20	17	31	14	329	182.0	-200821.0	-4174.0	-197537.0
20	17	31	14	329	183.0	-199398.0	-4181.0	-197206.0
20	17	31	14	330	184.0	-198039.0	-4195.0	-196257.0
20	17	31	14	330	185.0	-196517.0	-4191.0	-194801.0
20	17	31	14	347	186.0	-194675.0	-4190.0	-193501.0
20	17	31	14	347	187.0	-192490.0	-4196.0	-192445.0
20	17	31	14	348	188.0	-189991.0	-4219.0	-192319.0
20	17	31	14	349	189.0	-187576.0	-4230.0	-191674.0
20	17	31	14	349	190.0	-185513.0	-4217.0	-191545.0
20	17	31	14	350	191.0	-183840.0	-4243.0	-191650.0
20	17	31	14	350	192.0	-182390.0	-4241.0	-192694.0
20	17	31	14	369	193.0	-181139.0	-4237.0	-194809.0
20	17	31	14	370	194.0	-180781.0	-4237.0	-195458.0
20	17	31	14	371	195.0	-181179.0	-4239.0	-195191.0
20	17	31	14	371	196.0	-181779.0	-4226.0	-194321.0
20	17	31	14	372	197.0	-182489.0	-4224.0	-192722.0
20	17	31	14	373	198.0	-182871.0	-4234.0	-190762.0
20	17	31	14	373	199.0	-183197.0	-4240.0	-190914.0
20	17	31	14	395	200.0	-183746.0	-4214.0	-191584.0
20	17	31	14	395	201.0	-184561.0	-4204.0	-193084.0
20	17	31	14	396	202.0	-185557.0	-4201.0	-194896.0
20	17	31	14	397	203.0	-186735.0	-4189.0	-195567.0
20	17	31	14	397	204.0	-187959.0	-4165.0	-196112.0
20	17	31	14	398	205.0	-189129.0	-4131.0	-197265.0
20	17	31	14	398	206.0	-190671.0	-4100.0	-197196.0
20	17	31	14	418	207.0	-192596.0	-4071.0	-196141.0
20	17	31	14	419	208.0	-194541.0	-4034.0	-195884.0
20	17	31	14	419	209.0	-196467.0	-3996.0	-195710.0
20	17	31	14	420	210.0	-198227.0	-3942.0	-196620.0
20	17	31	14	421	211.0	-199767.0	-3901.0	-198449.0
20	17	31	14	421	212.0	-201169.0	-3841.0	-199634.0
20	17	31	14	422	213.0	-202295.0	-3796.0	-199431.0
20	17	31	14	422	214.0	-203144.0	-3720.0	-199024.0
20	17	31	14	423	215.0	-203451.0	-3638.0	-199259.0
20	17	31	14	424	224.0	-224447.0	-2879.0	-205552.0
20	17	31	14	424	225.0	-227038.0	-2792.0	-207046.0
20	17	31	14	425	226.0	-229203.0	-2702.0	-207765.0
20	17	31	14	425	227.0	-230822.0	-2604.0	-206892.0
20	17	31	14	426	228.0	-231942.0	-2514.0	-206994.0
20	17	31	14	426	229.0	-232418.0	-2426.0	-208207.0
20	17	31	14	427	230.0	-232141.0	-2327.0	-210574.0
20	17	31	14	428	239.0	-180161.0	-1496.0	-215052.0
20	17	31	14	428	240.0	-183040.0	-1432.0	-213545.0
20	17	31	14	429	241.0	-192357.0	-1355.0	-211990.0
20	17	31	14	440	242.0	-204472.0	-1262.0	-211274.0
20	17	31	14	441	243.0	-212397.0	-1171.0	-210392.0
20	17	31	14	442	244.0	-214148.0	-1101.0	-208566.0
20	17	31	14	442	245.0	-210395.0	-1017.0	-206774.0
20	17	31	14	443	246.0	-202221.0	-958.0	-204629.0
20	17	31	14	443	247.0	-191423.0	-892.0	-202991.0
20	17	31	14	463	248.0	-179151.0	-819.0	-203124.0
20	17	31	14	464	249.0	-167044.0	-749.0	-205274.0
20	17	31	14	464	250.0	-157629.0	-659.0	-207880.0
20	17	31	14	465	251.0	-151986.0	-599.0	-209122.0
20	17	31	14	465	252.0	-149108.0	-536.0	-209909.0
20	17	31	14	466	253.0	-149132.0	-456.0	-210504.0
20	17	31	14	467	254.0	-152386.0	-393.0	-210245.0
20	17	31	14	467	255.0	-158466.0	-332.0	-210456.0
20	17	31	14	468	0.0	-166446.0	-266.0	-209649.0
20	17	31	14	468	1.0	-175269.0	-216.0	-207997.0
20	17	31	14	469	2.0	-184244.0	-155.0	-207068.0
20	17	31	14	469	3.0	-192822.0	-114.0	-206966.0
20	17	31	14	470	4.0	-200437.0	-74.0	-207549.0
20	17	31	14	471	5.0	-206976.0	-14.0	-208274.0
20	17	31	14	471	6.0	-212034.0	30.0	-209562.0
20	17	31	14	492	7.0	-215520.0	51.0	-209662.0
20	17	31	14	493	8.0	-217781.0	95.0	-208661.0
20	17	31	14	494	9.0	-218779.0	124.0	-208456.0
20	17	31	14	494	10.0	-218837.0	161.0	-207561.0
20	17	31	14	495	11.0	-218599.0	189.0	-206746.0
20	17	31	14	495	12.0	-218250.0	221.0	-207274.0
20	17	31	14	496	13.0	-217419.0	257.0	-208304.0
20	17	31	14	509	14.0	-215842.0	297.0	-209657.0
20	17	31	14	510	15.0	-214319.0	339.0	-210226.0
20	17	31	14	510	16.0	-213407.0	361.0	-211165.0
20	17	31	14	511	17.0	-211752.0	381.0	-210544.0
20	17	31	14	511	18.0	-209222.0	414.0	-208943.0
20	17	31	14	512	19.0	-206359.0	417.0	-207887.0
20	17	31	14	513	20.0	-203566.0	447.0	-206446.0
20	17	31	14	513	21.0	-201036.0	488.0	-205366.0
20	17	31	14	514	22.0	-199374.0	489.0	-204858.0
20	17	31	14	515	23.0	-198239.0	509.0	-205331.0
20	17	31	14	515	24.0	-196918.0	523.0	-206493.0
20	17	31	14	516	25.0	-195214.0	549.0	-208044.0
20	17	31	14	516	26.0	-193425.0	551.0	-208994.0
20	17	31	14	517	27.0	-191890.0	557.0	-210027.0
20	17	31	14	517	28.0	-190664.0	581.0	-209473.0
20	17	31	14	518	29.0	-189416.0	588.0	-208892.0
20	17	31	14	519	30.0	-188529.0	595.0	-208507.0
20	17	31	14	519	31.0	-188036.0	603.0	-207483.0
20	17	31	14	520	32.0	-188234.0	621.0	-207519.0
20	17	31	14	533	33.0	-189141.0	621.0	-206941.0
20	17	31	14	533	34.0	-190622.0	618.0	-207549.0
20	17	31	14	534	35.0	-192522.0	626.0	-209371.0
20	17	31	14	556	36.0	-194372.0	630.0	-210390.0
20	17	31	14	556	37.0	-195918.0	631.0	-209859.0
20	17	31	14	557	38.0	-197352.0	636.0	-207944.0
20	17	31	14	558	39.0	-198727.0	625.0	-205557.0
20	17	31	14	558	40.0	-199947.0	628.0	-203576.0
20	17	31	14	559	41.0	-201286.0	621.0	-200757.0
20	17	31	14	559	42.0	-202839.0	631.0	-200737.0
20	17	31	14	560	43.0	-204597.0	621.0	-201122.0
20	17	31	14	560	44.0	-206528.0	641.0	-199845.0
20	17	31	14	561	45.0	-208233.0	659.0	-198736.0
20	17	31	14	561	46.0	-209637.0	655.0	-199053.0
20	17	31	14	579	47.0	-210847.0	661.0	-199591.0
20	17	31	14	580	48.0	-211876.0	652.0	-199621.0
20	17	31	14	581	49.0	-212687.0	646.0	-198966.0
20	17	31	14	582	50.0	-213274.0	654.0	-196832.0
20	17	31	14	582	51.0	-213607.0	641.0	-194863.0
20	17	31	14	583	52.0	-213522.0	637.0	-194832.0
20	17	31	14	584	53.0	-213177.0	622.0	-196401.0
20	17	31	14	584	54.0	-212529.0	621.0	-198195.0
20	17	31	14	585	55.0	-211486.0	629.0	-198629.0
20	17	31	14	585	56.0	-210151.0	621.0	-198814.0
20	17	31	14	586	57.0	-208301.0	612.0	-198553.0
20	17	31	14	586	58.0	-206331.0	614.0	-197507.0
20	17	31	14	587	59.0	-204316.0	601.0	-196154.0
20	17	31	14	588	60.0	-202237.0	593.0	-194659.0
20	17	31	14	602	61.0	-200506.0	583.0	-192947.0
20	17	31	14	603	62.0	-198991.0	585.0	-192391.0
20	17	31	14	603	63.0	-197522.0	565.0	-192907.0
20	17	31	14	604	64.0	-196486.0	569.0	-193133.0
20	17	31	14	604	65.0	-195857.0	575.0	-193461.0
20	17	31	14	605	66.0	-195433.0	561.0	-195351.0
20	17	31	14	606	67.0	-195018.0	535.0	-195582.0
20	17	31	14	626	68.0	-194976.0	520.0	-194030.0
20	17	31	14	627	69.0	-195186.0	533.0	-191854.0
20	17	31	14	628	70.0	-195497.0	523.0	-190371.0
20	17	31	14	628	71.0	-195622.0	523.0	-190059.0
20	17	31	14	629	72.0	-195704.0	519.0	-189602.0
20	17	31	14	629	73.0	-195614.0	501.0	-189973.0
20	17	31	14	630	74.0	-195108.0	494.0	-190895.0
20	17	31	14	630	75.0	-194454.0	486.0	-191097.0
20	17	31	14	649	76.0	-193419.0	486.0	-190409.0
20	17	31	14	650	77.0	-192083.0	477.0	-190014.0
20	17	31	14	650	78.0	-191746.0	447.0	-190517.0
20	17	31	14	651	79.0	-192417.0	445.0	-190378.0
20	17	31	14	651	80.0	-193427.0	438.0	-189601.0
20	17	31	14	652	81.0	-194375.0	429.0	-188571.0
20	17	31	14	652	82.0	-195486.0	441.0	-188099.0
20	17	31	14	672	83.0	-196438.0	432.0	-188935.0
20	17	31	14	673	88.0	-196824.0	401.0	-189631.0
20	17	31	14	673	89.0	-196431.0	382.0	-189079.0
20	17	31	14	674	90.0	-196228.0	349.0	-188014.0
20	17	31	14	675	91.0	-196574.0	332.0	-188159.0
20	17	31	14	675	92.0	-197021.0	349.0	-189559.0
20	17	31	14	676	93.0	-197692.0	353.0	-189453.0
20	17	31	14	676	94.0	-198417.0	351.0	-190186.0
20	17	31	14	677	95.0	-199304.0	345.0	-191336.0
20	17	31	14	677	96.0	-199937.0	324.0	-190541.0
20	17	31	14	678	97.0	-200387.0	323.0	-190314.0
20	17	31	14	679	98.0	-200628.0	339.0	-192057.0
20	17	31	14	679	99.0	-200654.0	336.0	-192036.0
20	17	31	14	680	100.0	-200607.0	328.0	-191492.0
20	17	31	14	695	101.0	-200672.0	337.0	-190539.0
20	17	31	14	696	102.0	-200766.0	337.0	-190112.0
20	17	31	14	697	103.0	-200664.0	323.0	-190659.0
20	17	31	14	697	104.0	-200466.0	324.0	-191449.0
20	17	31	14	698	105.0	-200349.0	345.0	-192299.0
20	17	31	14	698	106.0	-200369.0	333.0	-193398.0
20	17	31	14	699	107.0	-200738.0	332.0	-194186.0
20	17	31	14	719	108.0	-201389.0	332.0	-194684.0
20	17	31	14	719	109.0	-201963.0	327.0	-195244.0
20	17	31	14	720	111.0	-202612.0	320.0	-194665.0
20	17	31	14	721	112.0	-203252.0	301.0	-194787.0
20	17	31	14	721	113.0	-204114.0	298.0	-195287.0
20	17	31	14	722	114.0	-204857.0	295.0	-196572.0
20	17	31	14	722	115.0	-205078.0	296.0	-198394.0
20	17	31	14	743	116.0	-204706.0	293.0	-198275.0
20	17	31	14	744	117.0	-203836.0	298.0	-197313.0
20	17	31	14	744	118.0	-202556.0	281.0	-197355.0
20	17	31	14	745	119.0	-200926.0	259.0	-197211.0
20	17	31	14	745	120.0	-198884.0	252.0	-196016.0
20	17	31	14	746	121.0	-196609.0	230.0	-194934.0
20	17	31	14	746	122.0	-194562.0	217.0	-194547.0
20	17	31	14	747	123.0	-192784.0	226.0	-194917.0
20	17	31	14	748	124.0	-191295.0	229.0	-196090.0
20	17	31	14	748	126.0	-189896.0	198.0	-195573.0
20	17	31	14	749	127.0	-189835.0	194.0	-193844.0
20	17	31	14	749	128.0	-189996.0	193.0	-192551.0
20	17	31	14	750	129.0	-190406.0	196.0	-192903.0
20	17	31	14	750	130.0	-190999.0	171.0	-192251.0
20	17	31	14	751	131.0	-191665.0	168.0	-191882.0
20	17	31	14	752	132.0	-192552.0	154.0	-191412.0
20	17	31	14	752	141.0	-202326.0	53.0	-187900.0
20	17	31	14	753	142.0	-204741.0	28.0	-187014.0
20	17	31	14	753	143.0	-207537.0	23.0	-186035.0
20	17	31	14	765	144.0	-210372.0	29.0	-185466.0
20	17	31	14	766	145.0	-213167.0	1.0	-184391.0
20	17	31	14	766	146.0	-215857.0	-22.0	-183121.0
20	17	31	14	767	147.0	-217842.0	-34.0	-182346.0
20	17	31	14	768	148.0	-218181.0	-39.0	-182142.0
20	17	31	14	768	149.0	-217676.0	-56.0	-181251.0
20	17	31	14	769	150.0	-217810.0	-59.0	-179139.0
20	17	31	14	788	151.0	-217492.0	-54.0	-176923.0
20	17	31	14	789	152.0	-216060.0	-94.0	-174056.0
20	17	31	14	789	153.0	-213356.0	-106.0	-172227.0
20	17	31	14	790	154.0	-210102.0	-108.0	-171581.0
20	17	31	14	790	155.0	-206914.0	-143.0	-171187.0
20	17	31	14	791	156.0	-203910.0	-161.0	-170439.0
20	17	31	14	792	157.0	-201171.0	-174.0	-168917.0
20	17	31	14	792	158.0	-199006.0	-197.0	-168954.0
20	17	31	14	793	159.0	-197799.0	-223.0	-168391.0
20	17	31	14	793	160.0	-197041.0	-250.0	-167256.0
20	17	31	14	794	161.0	-196354.0	-286.0	-165836.0
20	17	31	14	795	162.0	-195742.0	-289.0	-164966.0
20	17	31	14	795	163.0	-195216.0	-319.0	-164689.0
20	17	31	14	796	164.0	-194343.0	-341.0	-164994.0
20	17	31	14	796	165.0	-193511.0	-381.0	-164966.0
20	17	31	14	797	166.0	-192695.0	-403.0	-165586.0
20	17	31	14	797	167.0	-191899.0	-412.0	-166872.0
20	17	31	14	798	168.0	-191216.0	-441.0	-166129.0
20	17	31	14	799	169.0	-190701.0	-466.0	-165136.0
20	17	31	14	799	170.0	-190784.0	-491.0	-163696.0
20	17	31	14	810	171.0	-191272.0	-511.0	-161534.0
20	17	31	14	811	172.0	-192259.0	-562.0	-159838.0
20	17	31	14	812	173.0	-193273.0	-595.0	-160404.0
20	17	31	14	812	174.0	-193966.0	-593.0	-162536.0
20	17	31	14	813	175.0	-194246.0	-615.0	-163421.0
20	17	31	14	813	176.0	-194469.0	-633.0	-163490.0
20	17	31	14	814	177.0	-195136.0	-656.0	-163747.0
20	17	31	14	814	178.0	-196152.0	-674.0	-162148.0
20	17	31	14	815	179.0	-197026.0	-689.0	-160502.0
20	17	31	14	833	180.0	-197589.0	-727.0	-158979.0
20	17	31	14	834	181.0	-197501.0	-747.0	-158341.0
20	17	31	14	835	182.0	-196929.0	-758.0	-157929.0
20	17	31	14	835	183.0	-195994.0	-776.0	-158372.0
20	17	31	14	836	184.0	-194696.0	-793.0	-159863.0
20	17	31	14	837	185.0	-193265.0	-815.0	-161432.0
20	17	31	14	837	186.0	-191262.0	-824.0	-161914.0
20	17	31	14	838	187.0	-189364.0	-859.0	-161571.0
20	17	31	14	839	188.0	-187655.0	-868.0	-160712.0
20	17	31	14	839	189.0	-186382.0	-905.0	-159620.0
20	17	31	14	840	190.0	-186069.0	-944.0	-159714.0
20	17	31	14	840	191.0	-185948.0	-978.0	-159839.0
20	17	31	14	841	192.0	-186178.0	-993.0	-159820.0
20	17	31	14	842	193.0	-186695.0	-1034.0	-160624.0
20	17	31	14	842	194.0	-187641.0	-1059.0	-160789.0
20	17	31	14	859	195.0	-189202.0	-1069.0	-160776.0
20	17	31	14	859	196.0	-191748.0	-1099.0	-161110.0
20	17	31	14	860	197.0	-194942.0	-1126.0	-160148.0
20	17	31	14	860	198.0	-198539.0	-1157.0	-158398.0
20	17	31	14	861	199.0	-202929.0	-1186.0	-157070.0
20	17	31	14	862	200.0	-207584.0	-1203.0	-156443.0
20	17	31	14	862	201.0	-211811.0	-1231.0	-155734.0
20	17	31	14	882	202.0	-215511.0	-1250.0	-155855.0
20	17	31	14	883	203.0	-218621.0	-1271.0	-157254.0
20	17	31	14	883	204.0	-220651.0	-1289.0	-158577.0
20	17	31	14	884	205.0	-221502.0	-1309.0	-158189.0
20	17	31	14	884	206.0	-221549.0	-1337.0	-157158.0
20	17	31	14	885	207.0	-221302.0	-1364.0	-155537.0
20	17	31	14	886	208.0	-220940.0	-1387.0	-152041.0
20	17	31	14	886	209.0	-220799.0	-1404.0	-148491.0
20	17	31	14	887	210.0	-220802.0	-1416.0	-143497.0
20	17	31	14	887	211.0	-221575.0	-1445.0	-138879.0
20	17	31	14	888	212.0	-223162.0	-1472.0	-135834.0
20	17	31	14	888	213.0	-224882.0	-1476.0	-133639.0
20	17	31	14	889	214.0	-225601.0	-1487.0	-133126.0
20	17	31	14	890	215.0	-224233.0	-1526.0	-134273.0
20	17	31	14	890	216.0	-220594.0	-1533.0	-135752.0
20	17	31	14	905	217.0	-215185.0	-1556.0	-137662.0
20	17	31	14	906	218.0	-208531.0	-1579.0	-139074.0
20	17	31	14	906	219.0	-201095.0	-1597.0	-139429.0
20	17	31	14	907	220.0	-191624.0	-1623.0	-139336.0
20	17	31	14	907	221.0	-178062.0	-1657.0	-141489.0
20	17	31	14	908	222.0	-163081.0	-1672.0	-144314.0
20	17	31	14	908	223.0	-149879.0	-1710.0	-147539.0
20	17	31	14	928	224.0	-141641.0	-1716.0	-149873.0
20	17	31	14	929	225.0	-139127.0	-1730.0	-151574.0
20	17	31	14	929	226.0	-140126.0	-1762.0	-153700.0
20	17	31	14	930	227.0	-143503.0	-1799.0	-154975.0
20	17	31	14	930	228.0	-148843.0	-1802.0	-156457.0
20	17	31	14	931	229.0	-156426.0	-1821.0	-156081.0
20	17	31	14	932	230.0	-164189.0	-1856.0	-155947.0
20	17	31	14	932	231.0	-171541.0	-1887.0	-155466.0
20	17	31	14	933	232.0	-183401.0	-1905.0	-154529.0
20	17	31	14	933	233.0	-198471.0	-1929.0	-153775.0
20	17	31	14	934	234.0	-213264.0	-1951.0	-152541.0
20	17	31	14	934	235.0	-224807.0	-1992.0	-151262.0
20	17	31	14	935	236.0	-231758.0	-2017.0	-148974.0
20	17	31	14	936	237.0	-233766.0	-2023.0	-146946.0
20	17	31	14	936	238.0	-232191.0	-2034.0	-145354.0
20	17	31	14	950	239.0	-226723.0	-2094.0	-145467.0
20	17	31	14	951	240.0	-218012.0	-2121.0	-144616.0
20	17	31	14	952	241.0	-207634.0	-2146.0	-143847.0
20	17	31	14	952	242.0	-196757.0	-2183.0	-144071.0
20	17	31	14	953	243.0	-186509.0	-2209.0	-143996.0
20	17	31	14	954	244.0	-178414.0	-2244.0	-145348.0
20	17	31	14	954	245.0	-173744.0	-2269.0	-144765.0
20	17	31	14	955	246.0	-173212.0	-2284.0	-142857.0
20	17	31	14	973	247.0	-177286.0	-2313.0	-139117.0
20	17	31	14	974	248.0	-184932.0	-2339.0	-135117.0
20	17	31	14	975	249.0	-193925.0	-2350.0	-131462.0
20	17	31	14	975	250.0	-202086.0	-2369.0	-126431.0
20	17	31	14	976	251.0	-207935.0	-2399.0	-121627.0
20	17	31	14	976	252.0	-209861.0	-2428.0	-117679.0
20	17	31	14	977	253.0	-207293.0	-2467.0	-115122.0
20	17	31	14	978	254.0	-200968.0	-2484.0	-113579.0
20	17	31	14	978	255.0	-192374.0	-2497.0	-112882.0
20	17	31	14	979	0.0	-183860.0	-2519.0	-112045.0
20	17	31	14	979	1.0	-178528.0	-2551.0	-110372.0
20	17	31	14	980	2.0	-176830.0	-2561.0	-108933.0
20	17	31	14	980	3.0	-177776.0	-2576.0	-108093.0
20	17	31	14	981	4.0	-180496.0	-2604.0	-107061.0
20	17	31	14	982	5.0	-183731.0	-2626.0	-106648.0
20	17	31	14	996	6.0	-186947.0	-2638.0	-107776.0
20	17	31	14	997	7.0	-190154.0	-2667.0	-110317.0
20	17	31	14	997	8.0	-194420.0	-2702.0	-112909.0
20	17	31	14	998	9.0	-200086.0	-2714.0	-115093.0
20	17	31	14	999	10.0	-206709.0	-2743.0	-117361.0
20	17	31	14	999	11.0	-213879.0	-2747.0	-118817.0
20	17	31	15	0	12.0	-220792.0	-2775.0	-119817.0
20	17	31	15	20	13.0	-227141.0	-2783.0	-120789.0
20	17	31	15	20	14.0	-232881.0	-2801.0	-121787.0
20	17	31	15	21	15.0	-237641.0	-2826.0	-122647.0
20	17	31	15	22	16.0	-241054.0	-2857.0	-123472.0
20	17	31	15	22	17.0	-242629.0	-2869.0	-125081.0
20	17	31	15	23	18.0	-242096.0	-2892.0	-126238.0
20	17	31	15	23	19.0	-239514.0	-2922.0	-127276.0
20	17	31	15	24	20.0	-235261.0	-2944.0	-128406.0
20	17	31	15	24	21.0	-229399.0	-2970.0	-129612.0
20	17	31	15	25	22.0	-222208.0	-3006.0	-130930.0
20	17	31	15	26	23.0	-214368.0	-3035.0	-131292.0
20	17	31	15	26	24.0	-206330.0	-3064.0	-131097.0
20	17	31	15	27	25.0	-199018.0	-3101.0	-132277.0
20	17	31	15	27	26.0	-192921.0	-3132.0	-133849.0
20	17	31	15	43	27.0	-188212.0	-3155.0	-135891.0
20	17	31	15	66	28.0	-185401.0	-3179.0	-138467.0
20	17	31	15	66	29.0	-184997.0	-3181.0	-140312.0
20	17	31	15	67	30.0	-186496.0	-3204.0	-140723.0
20	17	31	15	68	31.0	-189081.0	-3236.0	-140930.0
20	17	31	15	68	32.0	-191486.0	-3265.0	-140842.0
20	17	31	15	69	33.0	-194036.0	-3287.0	-138984.0
20	17	31	15	69	34.0	-195696.0	-3326.0	-136767.0
20	17	31	15	70	35.0	-196736.0	-3334.0	-134693.0
20	17	31	15	70	36.0	-196372.0	-3355.0	-134014.0
20	17	31	15	71	37.0	-195427.0	-3357.0	-135152.0
20	17	31	15	72	38.0	-194336.0	-3371.0	-136431.0
20	17	31	15	72	39.0	-193704.0	-3397.0	-136768.0
20	17	31	15	73	40.0	-194057.0	-3431.0	-135952.0
20	17	31	15	73	41.0	-195244.0	-3441.0	-133418.0
20	17	31	15	74	42.0	-197062.0	-3459.0	-131417.0
20	17	31	15	74	43.0	-198054.0	-3463.0	-128994.0
20	17	31	15	75	44.0	-198435.0	-3494.0	-126509.0
20	17	31	15	76	45.0	-198951.0	-3526.0	-125856.0
20	17	31	15	76	46.0	-198777.0	-3549.0	-125819.0
20	17	31	15	77	47.0	-198843.0	-3561.0	-125824.0
20	17	31	15	78	48.0	-198442.0	-3587.0	-125800.0
20	17	31	15	78	49.0	-197437.0	-3605.0	-125934.0
20	17	31	15	79	50.0	-196342.0	-3631.0	-125291.0
20	17	31	15	80	51.0	-194831.0	-3667.0	-126004.0
20	17	31	15	80	52.0	-193702.0	-3692.0	-126009.0
20	17	31	15	81	53.0	-192102.0	-3715.0	-124789.0
20	17	31	15	81	54.0	-190179.0	-3747.0	-124484.0
20	17	31	15	82	55.0	-188548.0	-3770.0	-124293.0
20	17	31	15	83	56.0	-187117.0	-3794.0	-123806.0
20	17	31	15	84	57.0	-186087.0	-3821.0	-124086.0
20	17	31	15	84	58.0	-185959.0	-3859.0	-124025.0
20	17	31	15	92	59.0	-186807.0	-3887.0	-123564.0
20	17	31	15	93	60.0	-188701.0	-3910.0	-123094.0
20	17	31	15	93	61.0	-191230.0	-3929.0	-122644.0
20	17	31	15	94	62.0	-193134.0	-3974.0	-121732.0
20	17	31	15	95	63.0	-195091.0	-4006.0	-119360.0
20	17	31	15	95	64.0	-197739.0	-4029.0	-116395.0
20	17	31	15	96	65.0	-200875.0	-4062.0	-113820.0
20	17	31	15	115	66.0	-203606.0	-4071.0	-112834.0
20	17	31	15	116	67.0	-205927.0	-4087.0	-111860.0
20	17	31	15	116	68.0	-208301.0	-4122.0	-112092.0
20	17	31	15	117	69.0	-211057.0	-4160.0	-112474.0
20	17	31	15	117	70.0	-213198.0	-4199.0	-111202.0
20	17	31	15	118	71.0	-214570.0	-4222.0	-109194.0
20	17	31	15	118	72.0	-217316.0	-4236.0	-107387.0
20	17	31	15	141	73.0	-222862.0	-4258.0	-105357.0
20	17	31	15	150	74.0	-211199.0	-4252.0	-104293.0
20	17	31	15	152	75.0	-217705.0	-4271.0	-103489.0
20	17	31	15	155	76.0	-213103.0	-4291.0	-102531.0
20	17	31	15	156	77.0	-211869.0	-4289.0	-103063.0
20	17	31	15	156	78.0	-209509.0	-4284.0	-103861.0
20	17	31	15	157	79.0	-207442.0	-4292.0	-103996.0
20	17	31	15	157	80.0	-205385.0	-4294.0	-104186.0
20	17	31	15	158	81.0	-203136.0	-4276.0	-104660.0
20	17	31	15	158	82.0	-201489.0	-4266.0	-104224.0
20	17	31	15	159	83.0	-201035.0	-4254.0	-103294.0
20	17	31	15	159	84.0	-200448.0	-4236.0	-102137.0
20	17	31	15	160	85.0	-198558.0	-4214.0	-101807.0
20	17	31	15	161	86.0	-195997.0	-4175.0	-102779.0
20	17	31	15	161	87.0	-193139.0	-4156.0	-105105.0
20	17	31	15	162	88.0	-190023.0	-4132.0	-107616.0
20	17	31	15	162	89.0	-186739.0	-4092.0	-109489.0
20	17	31	15	163	90.0	-183539.0	-4068.0	-110326.0
20	17	31	15	163	91.0	-181292.0	-4019.0	-110257.0
20	17	31	15	164	92.0	-179797.0	-3967.0	-110961.0
20	17	31	15	164	93.0	-179061.0	-3904.0	-110774.0
20	17	31	15	165	94.0	-179350.0	-3856.0	-110807.0
20	17	31	15	165	95.0	-180456.0	-3802.0	-111859.0
20	17	31	15	166	96.0	-182207.0	-3739.0	-112786.0
20	17	31	15	167	97.0	-185122.0	-3696.0	-114555.0
20	17	31	15	167	98.0	-188991.0	-3654.0	-116657.0
20	17	31	15	168	99.0	-192842.0	-3590.0	-118851.0
20	17	31	15	168	100.0	-196202.0	-3526.0	-120523.0
20	17	31	15	169	101.0	-199592.0	-3456.0	-121374.0
20	17	31	15	169	102.0	-203343.0	-3391.0	-122022.0
20	17	31	15	182	103.0	-206078.0	-3325.0	-123559.0
20	17	31	15	182	104.0	-208166.0	-3247.0	-125759.0
20	17	31	15	183	105.0	-210254.0	-3176.0	-128542.0
20	17	31	15	184	106.0	-211814.0	-3097.0	-131984.0
20	17	31	15	184	107.0	-213608.0	-3036.0	-134743.0
20	17	31	15	201	108.0	-214965.0	-2975.0	-138511.0
20	17	31	15	202	109.0	-214036.0	-2891.0	-141125.0
20	17	31	15	202	110.0	-208905.0	-2826.0	-141736.0
20	17	31	15	203	111.0	-199185.0	-2774.0	-142207.0
20	17	31	15	203	112.0	-187336.0	-2692.0	-141823.0
20	17	31	15	204	113.0	-183070.0	-2629.0	-139624.0
20	17	31	15	204	114.0	-185185.0	-2569.0	-137446.0
20	17	31	15	225	115.0	-193040.0	-2508.0	-135999.0
20	17	31	15	225	116.0	-207982.0	-2461.0	-134894.0
20	17	31	15	226	117.0	-223477.0	-2396.0	-134381.0
20	17	31	15	226	118.0	-233942.0	-2332.0	-134270.0
20	17	31	15	227	119.0	-237959.0	-2279.0	-134518.0
20	17	31	15	228	120.0	-236620.0	-2202.0	-134852.0
20	17	31	15	228	121.0	-231213.0	-2142.0	-134553.0
20	17	31	15	229	122.0	-222201.0	-2081.0	-132431.0
20	17	31	15	229	123.0	-211374.0	-2036.0	-130442.0
20	17	31	15	230	124.0	-199974.0	-1972.0	-129454.0
20	17	31	15	231	125.0	-190601.0	-1922.0	-129144.0
20	17	31	15	231	126.0	-185057.0	-1871.0	-129160.0
20	17	31	15	232	127.0	-182384.0	-1824.0	-130026.0
20	17	31	15	232	128.0	-181661.0	-1766.0	-131032.0
20	17	31	15	257	129.0	-182431.0	-1715.0	-129891.0
20	17	31	15	257	130.0	-185263.0	-1662.0	-128081.0
20	17	31	15	258	131.0	-189282.0	-1621.0	-125687.0
20	17	31	15	259	132.0	-193644.0	-1581.0	-123481.0
20	17	31	15	259	133.0	-197255.0	-1551.0	-120706.0
20	17	31	15	260	134.0	-200034.0	-1519.0	-118962.0
20	17	31	15	261	135.0	-202839.0	-1478.0	-119212.0
20	17	31	15	287	136.0	-205741.0	-1454.0	-119633.0
20	17	31	15	287	137.0	-207709.0	-1421.0	-120522.0
20	17	31	15	288	138.0	-209207.0	-1372.0	-120821.0
20	17	31	15	289	139.0	-210484.0	-1341.0	-120495.0
20	17	31	15	289	140.0	-210263.0	-1324.0	-119750.0
20	17	31	15	290	141.0	-209145.0	-1295.0	-119034.0
20	17	31	15	291	142.0	-205997.0	-1288.0	-118079.0
20	17	31	15	301	143.0	-201267.0	-1277.0	-116905.0
20	17	31	15	302	144.0	-196185.0	-1241.0	-115834.0
20	17	31	15	302	147.0	-179659.0	-1196.0	-118299.0
20	17	31	15	303	148.0	-175681.0	-1179.0	-119747.0
20	17	31	15	304	149.0	-173444.0	-1162.0	-121026.0
20	17	31	15	304	150.0	-172084.0	-1157.0	-121717.0
20	17	31	15	305	151.0	-171384.0	-1140.0	-122415.0
20	17	31	15	323	152.0	-172109.0	-1120.0	-123102.0
20	17	31	15	324	153.0	-174376.0	-1113.0	-122588.0
20	17	31	15	325	162.0	-213402.0	-1009.0	-130456.0
20	17	31	15	325	163.0	-215226.0	-1002.0	-128149.0
20	17	31	15	326	164.0	-216417.0	-991.0	-126423.0
20	17	31	15	326	165.0	-217181.0	-984.0	-126244.0
20	17	31	15	327	166.0	-217964.0	-982.0	-126622.0
20	17	31	15	346	167.0	-218769.0	-961.0	-126069.0
20	17	31	15	347	168.0	-219692.0	-954.0	-124570.0
20	17	31	15	348	169.0	-220740.0	-956.0	-123399.0
20	17	31	15	348	170.0	-221926.0	-947.0	-121019.0
20	17	31	15	349	171.0	-222820.0	-939.0	-118425.0
20	17	31	15	349	172.0	-223409.0	-954.0	-116039.0
20	17	31	15	350	173.0	-224414.0	-946.0	-113374.0
20	17	31	15	368	174.0	-224826.0	-929.0	-111538.0
20	17	31	15	369	175.0	-223182.0	-921.0	-109239.0
20	17	31	15	370	177.0	-222538.0	-920.0	-103844.0
20	17	31	15	370	178.0	-220588.0	-937.0	-102271.0
20	17	31	15	371	179.0	-217881.0	-925.0	-99078.0
20	17	31	15	372	180.0	-213696.0	-913.0	-97734.0
20	17	31	15	372	181.0	-210040.0	-916.0	-96630.0
20	17	31	15	391	182.0	-206428.0	-923.0	-95036.0
20	17	31	15	392	183.0	-203129.0	-921.0	-92767.0
20	17	31	15	393	184.0	-200601.0	-916.0	-90156.0
20	17	31	15	393	185.0	-199387.0	-888.0	-88263.0
20	17	31	15	394	186.0	-199372.0	-887.0	-88072.0
20	17	31	15	395	187.0	-199482.0	-889.0	-88203.0
20	17	31	15	395	188.0	-201896.0	-896.0	-87886.0
20	17	31	15	396	189.0	-205471.0	-894.0	-87843.0
20	17	31	15	396	190.0	-206924.0	-894.0	-87228.0
20	17	31	15	397	199.0	-191491.0	-920.0	-82361.0
20	17	31	15	398	200.0	-191496.0	-916.0	-82281.0
20	17	31	15	398	201.0	-191749.0	-919.0	-81696.0
20	17	31	15	399	202.0	-192668.0	-929.0	-80705.0
20	17	31	15	417	203.0	-193366.0	-918.0	-80407.0
20	17	31	15	417	204.0	-195283.0	-893.0	-80866.0
20	17	31	15	418	205.0	-197256.0	-889.0	-80633.0
20	17	31	15	418	207.0	-198831.0	-882.0	-82650.0
20	17	31	15	439	208.0	-196826.0	-868.0	-83210.0
20	17	31	15	440	209.0	-196601.0	-879.0	-83883.0
20	17	31	15	440	210.0	-198148.0	-863.0	-85491.0
20	17	31	15	441	211.0	-198384.0	-866.0	-85547.0
20	17	31	15	441	212.0	-198152.0	-870.0	-83662.0
20	17	31	15	442	214.0	-194321.0	-861.0	-83461.0
20	17	31	15	443	215.0	-192476.0	-856.0	-83936.0
20	17	31	15	443	216.0	-191437.0	-844.0	-85103.0
20	17	31	15	444	217.0	-190876.0	-833.0	-87028.0
20	17	31	15	444	218.0	-189826.0	-821.0	-89064.0
20	17	31	15	445	219.0	-188807.0	-821.0	-89959.0
20	17	31	15	445	220.0	-187843.0	-817.0	-90856.0
20	17	31	15	446	222.0	-185566.0	-773.0	-93269.0
20	17	31	15	446	223.0	-184374.0	-766.0	-95143.0
20	17	31	15	462	224.0	-183417.0	-769.0	-95707.0
20	17	31	15	463	229.0	-184135.0	-703.0	-104438.0
20	17	31	15	463	230.0	-184713.0	-709.0	-105961.0
20	17	31	15	464	231.0	-186729.0	-714.0	-106599.0
20	17	31	15	465	232.0	-181389.0	-714.0	-106956.0
20	17	31	15	465	233.0	-187446.0	-694.0	-106108.0
20	17	31	15	466	234.0	-184567.0	-680.0	-105711.0
20	17	31	15	467	235.0	-186564.0	-671.0	-106607.0
20	17	31	15	467	236.0	-187183.0	-639.0	-107661.0
20	17	31	15	468	237.0	-189557.0	-620.0	-110037.0
20	17	31	15	469	238.0	-193008.0	-616.0	-111682.0
20	17	31	15	469	239.0	-196630.0	-634.0	-111827.0
20	17	31	15	470	240.0	-200759.0	-625.0	-111322.0
20	17	31	15	470	241.0	-204455.0	-604.0	-110519.0
20	17	31	15	471	242.0	-207739.0	-592.0	-109894.0
20	17	31	15	472	243.0	-210554.0	-581.0	-109636.0
20	17	31	15	472	244.0	-213014.0	-575.0	-110034.0
20	17	31	15	498	245.0	-215197.0	-576.0	-110442.0
20	17	31	15	498	246.0	-217218.0	-563.0	-111224.0
20	17	31	15	499	247.0	-218859.0	-555.0	-112593.0
20	17	31	15	500	248.0	-220358.0	-535.0	-113991.0
20	17	31	15	500	249.0	-221616.0	-534.0	-114857.0
20	17	31	15	501	250.0	-222709.0	-529.0	-116131.0
20	17	31	15	502	251.0	-223394.0	-522.0	-116630.0
20	17	31	15	502	252.0	-223745.0	-514.0	-116169.0
20	17	31	15	503	253.0	-223612.0	-483.0	-114812.0
20	17	31	15	504	254.0	-223047.0	-469.0	-112677.0
20	17	31	15	505	255.0	-221914.0	-464.0	-111407.0
20	17	31	15	505	0.0	-220452.0	-446.0	-110225.0
20	17	31	15	506	1.0	-218259.0	-431.0	-109266.0
20	17	31	15	506	2.0	-215989.0	-403.0	-108359.0
20	17	31	15	507	3.0	-213132.0	-381.0	-106737.0
20	17	31	15	508	4.0	-209939.0	-385.0	-106910.0
20	17	31	15	508	11.0	-187042.0	-272.0	-103746.0
20	17	31	15	509	12.0	-184330.0	-249.0	-103827.0
20	17	31	15	510	13.0	-181895.0	-235.0	-103815.0
20	17	31	15	510	14.0	-180199.0	-255.0	-103825.0
20	17	31	15	511	15.0	-178850.0	-249.0	-102582.0
20	17	31	15	511	16.0	-177061.0	-218.0	-101474.0
20	17	31	15	512	17.0	-174786.0	-214.0	-100529.0
20	17	31	15	513	18.0	-173154.0	-212.0	-100241.0
20	17	31	15	527	19.0	-172076.0	-199.0	-101537.0
20	17	31	15	528	20.0	-170906.0	-192.0	-101130.0
20	17	31	15	529	21.0	-170464.0	-177.0	-100462.0
20	17	31	15	529	22.0	-170158.0	-164.0	-101628.0
20	17	31	15	530	23.0	-170597.0	-161.0	-101969.0
20	17	31	15	531	24.0	-172359.0	-131.0	-100799.0
20	17	31	15	531	25.0	-174842.0	-129.0	-98938.0
20	17	31	15	549	26.0	-178488.0	-126.0	-96924.0
20	17	31	15	549	27.0	-182979.0	-99.0	-95855.0
20	17	31	15	550	28.0	-188547.0	-91.0	-96833.0
20	17	31	15	551	29.0	-194233.0	-96.0	-96102.0
20	17	31	15	551	30.0	-199964.0	-88.0	-95762.0
20	17	31	15	552	31.0	-204384.0	-80.0	-96891.0
20	17	31	15	552	32.0	-207535.0	-68.0	-97578.0
20	17	31	15	572	33.0	-210544.0	-65.0	-97569.0
20	17	31	15	572	34.0	-213096.0	-83.0	-97429.0
20	17	31	15	573	35.0	-214521.0	-59.0	-96817.0
20	17	31	15	574	36.0	-215175.0	-41.0	-97452.0
20	17	31	15	574	37.0	-213583.0	-24.0	-96681.0
20	17	31	15	575	38.0	-212604.0	-43.0	-96194.0
20	17	31	15	576	39.0	-211541.0	-49.0	-97533.0
20	17	31	15	576	40.0	-210678.0	-34.0	-97908.0
20	17	31	15	577	41.0	-210272.0	-49.0	-97678.0
20	17	31	15	577	42.0	-210471.0	-37.0	-96692.0
20	17	31	15	578	43.0	-210914.0	-49.0	-95397.0
20	17	31	15	578	44.0	-211899.0	-52.0	-93745.0
20	17	31	15	579	45.0	-212902.0	-39.0	-91209.0
20	17	31	15	580	46.0	-214177.0	-56.0	-89069.0
20	17	31	15	595	47.0	-215655.0	-36.0	-86681.0
20	17	31	15	620	48.0	-217136.0	-34.0	-84993.0
20	17	31	15	621	49.0	-217977.0	-39.0	-84190.0
20	17	31	15	622	50.0	-219109.0	-22.0	-83402.0
20	17	31	15	622	51.0	-219478.0	-22.0	-82258.0
20	17	31	15	623	52.0	-219531.0	-34.0	-81069.0
20	17	31	15	623	53.0	-218831.0	-41.0	-80672.0
20	17	31	15	624	54.0	-217442.0	-47.0	-79816.0
20	17	31	15	625	55.0	-215258.0	-31.0	-78298.0
20	17	31	15	625	56.0	-212757.0	-19.0	-75878.0
20	17	31	15	626	57.0	-209850.0	-22.0	-73103.0
20	17	31	15	626	58.0	-207194.0	-36.0	-71982.0
20	17	31	15	627	59.0	-204609.0	-30.0	-72444.0
20	17	31	15	628	60.0	-202326.0	-22.0	-74397.0
20	17	31	15	628	61.0	-200216.0	-25.0	-76786.0
20	17	31	15	642	62.0	-198397.0	-17.0	-79269.0
20	17	31	15	643	63.0	-196987.0	-22.0	-81463.0
20	17	31	15	643	64.0	-196006.0	-34.0	-82846.0
20	17	31	15	644	65.0	-194996.0	-8.0	-82807.0
20	17	31	15	645	66.0	-194182.0	17.0	-81551.0
20	17	31	15	645	67.0	-193380.0	22.0	-77762.0
20	17	31	15	646	68.0	-192413.0	21.0	-73827.0
20	17	31	15	646	69.0	-191949.0	10.0	-70099.0
20	17	31	15	647	70.0	-191655.0	21.0	-65854.0
20	17	31	15	648	71.0	-192717.0	35.0	-61961.0
20	17	31	15	648	72.0	-195731.0	37.0	-58020.0
20	17	31	15	649	73.0	-199345.0	36.0	-54126.0
20	17	31	15	649	74.0	-202803.0	37.0	-52541.0
20	17	31	15	650	75.0	-204616.0	30.0	-54104.0
20	17	31	15	668	76.0	-205044.0	43.0	-57294.0
20	17	31	15	669	77.0	-204462.0	46.0	-60323.0
20	17	31	15	669	78.0	-203349.0	37.0	-63928.0
20	17	31	15	670	79.0	-202273.0	49.0	-68344.0
20	17	31	15	671	80.0	-200083.0	69.0	-73404.0
20	17	31	15	671	81.0	-193704.0	84.0	-79044.0
20	17	31	15	672	82.0	-181854.0	80.0	-84293.0
20	17	31	15	692	83.0	-169956.0	78.0	-88286.0
20	17	31	15	692	84.0	-160980.0	74.0	-90966.0
20	17	31	15	693	85.0	-157537.0	78.0	-93857.0
20	17	31	15	694	86.0	-159002.0	76.0	-94947.0
20	17	31	15	694	87.0	-163876.0	78.0	-93917.0
20	17	31	15	695	88.0	-169845.0	84.0	-91279.0
20	17	31	15	696	89.0	-177194.0	91.0	-88293.0
20	17	31	15	696	90.0	-184721.0	84.0	-85299.0
20	17	31	15	697	91.0	-190225.0	89.0	-81834.0
20	17	31	15	697	93.0	-206426.0	92.0	-71406.0
20	17	31	15	698	94.0	-217416.0	88.0	-62386.0
20	17	31	15	699	95.0	-228516.0	91.0	-52751.0
20	17	31	15	699	96.0	-234421.0	104.0	-43396.0
20	17	31	15	700	97.0	-235214.0	89.0	-34994.0
20	17	31	15	700	98.0	-232812.0	80.0	-28489.0
20	17	31	15	701	99.0	-226646.0	84.0	-23461.0
20	17	31	15	702	100.0	-218086.0	100.0	-20233.0
20	17	31	15	702	101.0	-207994.0	103.0	-18784.0
20	17	31	15	703	102.0	-197736.0	79.0	-18557.0
20	17	31	15	703	103.0	-188518.0	76.0	-15926.0
20	17	31	15	704	104.0	-180212.0	76.0	-14012.0
20	17	31	15	705	105.0	-174104.0	44.0	-12442.0
20	17	31	15	705	106.0	-171511.0	45.0	-7237.0
20	17	31	15	706	108.0	-187616.0	40.0	7845.0
20	17	31	15	708	109.0	-172669.0	14.0	19067.0
20	17	31	15	708	110.0	-196356.0	-12.0	29911.0
20	17	31	15	709	111.0	-193528.0	-7.0	39131.0
20	17	31	15	710	112.0	-198514.0	-1.0	47109.0
20	17	31	15	710	113.0	-198286.0	-9.0	54344.0
20	17	31	15	711	114.0	-197036.0	-16.0	59700.0
20	17	31	15	712	115.0	-192461.0	3.0	64122.0
20	17	31	15	737	116.0	-186707.0	-26.0	69828.0
20	17	31	15	738	117.0	-182712.0	-29.0	73733.0
20	17	31	15	739	118.0	-181137.0	-21.0	75548.0
20	17	31	15	740	119.0	-181524.0	-20.0	75695.0
20	17	31	15	740	120.0	-183275.0	-21.0	74583.0
20	17	31	15	741	121.0	-185791.0	-24.0	73477.0
20	17	31	15	742	122.0	-188372.0	-38.0	70961.0
20	17	31	15	742	123.0	-190956.0	-21.0	67706.0
20	17	31	15	752	124.0	-193957.0	-29.0	65038.0
20	17	31	15	753	125.0	-197172.0	-47.0	62281.0
20	17	31	15	754	126.0	-202363.0	-52.0	60878.0
20	17	31	15	755	127.0	-205712.0	-44.0	59506.0
20	17	31	15	755	128.0	-207248.0	-66.0	56846.0
20	17	31	15	756	129.0	-210197.0	-54.0	55229.0
20	17	31	15	757	130.0	-214910.0	-68.0	55361.0
20	17	31	15	773	131.0	-220515.0	-81.0	57508.0
20	17	31	15	774	132.0	-224941.0	-100.0	59606.0
20	17	31	15	774	133.0	-228259.0	-89.0	61959.0
20	17	31	15	775	134.0	-229958.0	-88.0	64316.0
20	17	31	15	776	135.0	-230142.0	-122.0	66086.0
20	17	31	15	776	136.0	-228243.0	-135.0	69929.0
20	17	31	15	777	137.0	-225682.0	-109.0	74236.0
20	17	31	15	778	138.0	-223547.0	-112.0	77135.0
20	17	31	15	778	139.0	-222278.0	-127.0	78626.0
20	17	31	15	779	140.0	-228154.0	-141.0	80161.0
20	17	31	15	779	141.0	-202146.0	-142.0	81794.0
20	17	31	15	780	142.0	-212804.0	-150.0	83653.0
20	17	31	15	781	143.0	-205976.0	-151.0	87101.0
20	17	31	15	781	144.0	-204274.0	-141.0	90963.0
20	17	31	15	782	145.0	-203765.0	-164.0	94963.0
20	17	31	15	783	146.0	-203614.0	-155.0	100879.0
20	17	31	15	783	147.0	-202781.0	-156.0	108422.0
20	17	31	15	784	148.0	-202303.0	-159.0	116231.0
20	17	31	15	784	149.0	-202337.0	-137.0	125214.0
20	17	31	15	785	150.0	-202593.0	-146.0	133135.0
20	17	31	15	786	151.0	-203239.0	-157.0	142104.0
20	17	31	15	786	152.0	-203146.0	-171.0	154027.0
20	17	31	15	812	153.0	-203477.0	-177.0	167824.0
20	17	31	15	813	154.0	-202751.0	-167.0	180524.0
20	17	31	15	814	155.0	-200874.0	-146.0	193664.0
20	17	31	15	815	156.0	-199279.0	-152.0	207208.0
20	17	31	15	816	157.0	-197007.0	-147.0	223145.0
20	17	31	15	816	158.0	-194058.0	-153.0	240729.0
20	17	31	15	817	159.0	-191154.0	-149.0	257298.0
20	17	31	15	818	160.0	-188471.0	-136.0	270880.0
20	17	31	15	831	161.0	-186047.0	-154.0	283491.0
20	17	31	15	831	162.0	-184680.0	-153.0	295590.0
20	17	31	15	832	163.0	-185016.0	-144.0	308086.0
20	17	31	15	833	164.0	-183447.0	-152.0	319749.0
20	17	31	15	833	165.0	-185162.0	-170.0	327823.0
20	17	31	15	834	166.0	-186342.0	-146.0	334236.0
20	17	31	15	835	167.0	-188303.0	-158.0	339478.0
20	17	31	15	854	168.0	-191627.0	-147.0	344138.0
20	17	31	15	854	169.0	-194625.0	-147.0	348743.0
20	17	31	15	855	170.0	-199084.0	-142.0	352047.0
20	17	31	15	856	171.0	-203524.0	-137.0	355090.0
20	17	31	15	857	172.0	-207826.0	-134.0	358009.0
20	17	31	15	857	173.0	-211069.0	-130.0	362023.0
20	17	31	15	858	174.0	-213985.0	-130.0	364663.0
20	17	31	15	859	175.0	-216438.0	-132.0	367019.0
20	17	31	15	859	176.0	-217893.0	-139.0	369674.0
20	17	31	15	860	177.0	-218638.0	-133.0	371804.0
20	17	31	15	861	178.0	-218817.0	-131.0	372232.0
20	17	31	15	861	179.0	-219181.0	-117.0	372201.0
20	17	31	15	862	180.0	-219784.0	-101.0	373831.0
20	17	31	15	862	181.0	-220148.0	-88.0	376971.0
20	17	31	15	876	182.0	-221172.0	-101.0	382124.0
20	17	31	15	877	183.0	-223439.0	-87.0	391156.0
20	17	31	15	877	184.0	-225298.0	-69.0	403337.0
20	17	31	15	878	185.0	-226726.0	-30.0	417873.0
20	17	31	15	879	186.0	-226265.0	4.0	438203.0
20	17	31	15	879	187.0	-223540.0	38.0	461518.0
20	17	31	15	880	188.0	-221524.0	71.0	487506.0
20	17	31	15	899	189.0	-220294.0	99.0	514456.0
20	17	31	15	900	190.0	-218627.0	127.0	541527.0
20	17	31	15	901	191.0	-216364.0	192.0	567430.0
20	17	31	15	902	192.0	-212762.0	263.0	596868.0
20	17	31	15	902	193.0	-209080.0	311.0	627084.0
20	17	31	15	903	194.0	-206653.0	376.0	654330.0
20	17	31	15	904	195.0	-204999.0	452.0	685084.0
20	17	31	15	904	196.0	-213317.0	524.0	723921.0
20	17	31	15	905	197.0	-211599.0	585.0	771840.0
20	17	31	15	906	198.0	-181719.0	690.0	810317.0
20	17	31	15	906	199.0	-205425.0	775.0	834340.0
20	17	31	15	907	200.0	-191787.0	883.0	860563.0
20	17	31	15	908	201.0	-192678.0	1011.0	878775.0
20	17	31	15	908	202.0	-189727.0	1105.0	893403.0
20	17	31	15	922	203.0	-188681.0	1226.0	907262.0
20	17	31	15	922	204.0	-186069.0	1358.0	924208.0
20	17	31	15	923	205.0	-183028.0	1500.0	941773.0
20	17	31	15	924	206.0	-180272.0	1647.0	957088.0
20	17	31	15	925	207.0	-178472.0	1786.0	970919.0
20	17	31	15	925	208.0	-177547.0	1944.0	983459.0
20	17	31	15	926	209.0	-178714.0	2093.0	991858.0
20	17	31	15	945	210.0	-179431.0	2278.0	993952.0
20	17	31	15	945	211.0	-180038.0	2447.0	995593.0
20	17	31	15	946	213.0	-183565.0	2789.0	989223.0
20	17	31	15	947	214.0	-185109.0	2964.0	971045.0
20	17	31	15	948	215.0	-186875.0	3166.0	945258.0
20	17	31	15	948	216.0	-188151.0	3339.0	914498.0
20	17	31	15	949	217.0	-188616.0	3514.0	874279.0
20	17	31	15	950	218.0	-189117.0	3706.0	820567.0
20	17	31	15	950	219.0	-190028.0	3884.0	759804.0
20	17	31	15	951	220.0	-192116.0	4062.0	698182.0
20	17	31	15	951	221.0	-194390.0	4240.0	640060.0
20	17	31	15	952	222.0	-196672.0	4429.0	588491.0
20	17	31	15	953	223.0	-199043.0	4626.0	542978.0
20	17	31	15	953	224.0	-200307.0	4811.0	501209.0
20	17	31	15	967	225.0	-198159.0	4979.0	468291.0
20	17	31	15	968	226.0	-193293.0	5166.0	445665.0
20	17	31	15	968	228.0	-181826.0	5527.0	435464.0
20	17	31	15	969	229.0	-186130.0	5688.0	444403.0
20	17	31	15	970	230.0	-193501.0	5883.0	458114.0
20	17	31	15	970	231.0	-205802.0	6068.0	473900.0
20	17	31	15	971	232.0	-219616.0	6226.0	490324.0
20	17	31	15	990	233.0	-227276.0	6411.0	505608.0
20	17	31	15	991	234.0	-227470.0	6561.0	518756.0
20	17	31	15	992	235.0	-222460.0	6740.0	528598.0
20	17	31	15	992	236.0	-216411.0	6923.0	538506.0
20	17	31	15	993	237.0	-208486.0	7089.0	549281.0
20	17	31	15	994	238.0	-197926.0	7261.0	560759.0
20	17	31	15	994	239.0	-185542.0	7407.0	571396.0
20	17	31	15	995	240.0	-173965.0	7553.0	577827.0
20	17	31	15	996	241.0	-164278.0	7713.0	582960.0
20	17	31	15	996	243.0	-162642.0	7991.0	598198.0
20	17	31	15	997	244.0	-164286.0	8112.0	614569.0
20	17	31	15	998	245.0	-134666.0	8261.0	630591.0
20	17	31	15	998	246.0	-164606.0	8372.0	646108.0
20	17	31	15	999	247.0	-163693.0	8495.0	681373.0
20	17	31	16	12	248.0	-172832.0	8629.0	729325.0
20	17	31	16	13	249.0	-181315.0	8739.0	787901.0
20	17	31	16	14	250.0	-191149.0	8851.0	855691.0
20	17	31	16	15	251.0	-200146.0	8955.0	958791.0
20	17	31	16	15	252.0	-209372.0	9055.0	1193244.0
20	17	31	16	16	253.0	-222476.0	9178.0	1574673.0
20	17	31	16	17	254.0	-209692.0	9277.0	2083509.0
20	17	31	16	36	255.0	-223929.0	9351.0	2724669.0
20	17	31	16	36	0.0	-221745.0	9433.0	3507346.0
20	17	31	16	37	2.0	-230059.0	9614.0	5456035.0
20	17	31	16	38	3.0	-221260.0	9666.0	6034333.0
20	17	31	16	39	4.0	-210975.0	9800.0	6109876.0
20	17	31	16	40	5.0	-216091.0	10033.0	6110094.0
20	17	31	16	40	6.0	-212384.0	10218.0	6110209.0
20	17	31	16	41	7.0	-210797.0	10320.0	6110169.0
20	17	31	16	41	8.0	-210206.0	10418.0	6110298.0
20	17	31	16	42	9.0	-209894.0	10526.0	6112286.0
20	17	31	16	43	10.0	-209710.0	10703.0	6207795.0
20	17	31	16	43	11.0	-209371.0	10864.0	6656004.0
20	17	31	16	44	12.0	-209296.0	10861.0	6959855.0
20	17	31	16	44	13.0	-209498.0	10923.0	7067425.0
20	17	31	16	68	14.0	-210942.0	11003.0	7124840.0
20	17	31	16	69	15.0	-214482.0	11106.0	7210827.0
20	17	31	16	70	17.0	-224049.0	11279.0	7585702.0
20	17	31	16	71	18.0	-228921.0	11339.0	7840908.0
20	17	31	16	72	19.0	-232516.0	11431.0	8168821.0
20	17	31	16	72	20.0	-234024.0	11496.0	8388607.0
20	17	31	16	73	21.0	-233182.0	11519.0	8388607.0
20	17	31	16	74	22.0	-230829.0	11551.0	8388607.0
20	17	31	16	75	23.0	-227249.0	11616.0	8388607.0
20	17	31	16	80	24.0	-221979.0	11696.0	8388607.0
20	17	31	16	80	25.0	-215502.0	11756.0	8388607.0
20	17	31	16	81	26.0	-209066.0	11837.0	8388607.0
20	17	31	16	82	27.0	-202992.0	11908.0	8388607.0
20	17	31	16	82	28.0	-197346.0	11981.0	8388607.0
20	17	31	16	83	29.0	-192206.0	12044.0	8388607.0
20	17	31	16	84	30.0	-187945.0	12051.0	8388607.0
20	17	31	16	84	39.0	-183881.0	12311.0	8388607.0
20	17	31	16	85	40.0	-184378.0	12314.0	8388607.0
20	17	31	16	85	41.0	-185227.0	12324.0	8388607.0
20	17	31	16	101	42.0	-186859.0	12353.0	8388607.0
20	17	31	16	104	43.0	-188897.0	12378.0	8388607.0
20	17	31	16	105	44.0	-192366.0	12382.0	8388607.0
20	17	31	16	107	45.0	-196748.0	12391.0	8388607.0
20	17	31	16	108	46.0	-202172.0	12406.0	8388607.0
20	17	31	16	108	47.0	-206299.0	12434.0	8388607.0
20	17	31	16	109	48.0	-212408.0	12450.0	8388607.0
20	17	31	16	109	49.0	-219853.0	12458.0	8388607.0
20	17	31	16	110	50.0	-225804.0	12470.0	8388607.0
20	17	31	16	110	51.0	-227200.0	12465.0	8388607.0
20	17	31	16	111	52.0	-227471.0	12461.0	8388607.0
20	17	31	16	112	53.0	-225988.0	12470.0	8388607.0
20	17	31	16	112	54.0	-222831.0	12473.0	8388607.0
20	17	31	16	113	55.0	-218164.0	12464.0	8388607.0
20	17	31	16	113	56.0	-212322.0	12483.0	8388607.0
20	17	31	16	114	57.0	-203544.0	12510.0	8388607.0
20	17	31	16	114	58.0	-196228.0	12519.0	8388607.0
20	17	31	16	115	59.0	-190846.0	12526.0	8388607.0
20	17	31	16	116	60.0	-186662.0	12535.0	8388607.0
20	17	31	16	116	61.0	-184121.0	12551.0	8388607.0
20	17	31	16	126	62.0	-182676.0	12575.0	8388607.0
20	17	31	16	127	63.0	-182495.0	12599.0	8388607.0
20	17	31	16	128	64.0	-183109.0	12587.0	8388607.0
20	17	31	16	128	65.0	-183766.0	12604.0	8388607.0
20	17	31	16	129	66.0	-184987.0	12620.0	8388607.0
20	17	31	16	129	67.0	-187038.0	12629.0	8388607.0
20	17	31	16	130	68.0	-189539.0	12638.0	8388607.0
20	17	31	16	156	69.0	-191619.0	12638.0	8388607.0
20	17	31	16	157	70.0	-193714.0	12664.0	8388607.0
20	17	31	16	158	71.0	-196090.0	12664.0	8388607.0
20	17	31	16	158	72.0	-199110.0	12663.0	8388607.0
20	17	31	16	159	73.0	-202531.0	12661.0	8388607.0
20	17	31	16	160	74.0	-205632.0	12665.0	8388607.0
20	17	31	16	160	75.0	-208330.0	12666.0	8388607.0
20	17	31	16	178	76.0	-212281.0	12649.0	8388607.0
20	17	31	16	178	77.0	-235041.0	12646.0	8388607.0
20	17	31	16	179	78.0	-222442.0	12639.0	8388607.0
20	17	31	16	180	79.0	-207575.0	12624.0	8388607.0
20	17	31	16	180	80.0	-218661.0	12609.0	8388607.0
20	17	31	16	181	81.0	-218116.0	12605.0	8388607.0
20	17	31	16	181	82.0	-218557.0	12581.0	8388607.0
20	17	31	16	201	83.0	-217897.0	12541.0	8388607.0
20	17	31	16	202	84.0	-217815.0	12539.0	8388607.0
20	17	31	16	202	85.0	-217583.0	12539.0	8388607.0
20	17	31	16	203	86.0	-229150.0	12547.0	8388607.0
20	17	31	16	203	87.0	-216203.0	12526.0	8388607.0
20	17	31	16	204	88.0	-197981.0	12508.0	8388607.0
20	17	31	16	205	89.0	-191917.0	12496.0	8388607.0
20	17	31	16	205	90.0	-179871.0	12493.0	8388607.0
20	17	31	16	206	91.0	-170455.0	12482.0	8388607.0
20	17	31	16	206	92.0	-161149.0	12471.0	8388607.0
20	17	31	16	207	93.0	-159630.0	12481.0	8388607.0
20	17	31	16	207	94.0	-152081.0	12483.0	8388607.0
20	17	31	16	208	95.0	-142724.0	12473.0	8388607.0
20	17	31	16	208	96.0	-144263.0	12469.0	8388607.0
20	17	31	16	224	97.0	-146329.0	12461.0	8388607.0
20	17	31	16	224	98.0	-153286.0	12474.0	8388607.0
20	17	31	16	225	99.0	-161530.0	12475.0	8388607.0
20	17	31	16	225	100.0	-171898.0	12470.0	8388607.0
20	17	31	16	247	101.0	-181394.0	12476.0	8388607.0
20	17	31	16	248	102.0	-192903.0	12481.0	8388607.0
20	17	31	16	248	103.0	-204870.0	12483.0	8388607.0
20	17	31	16	249	104.0	-215829.0	12480.0	8388607.0
20	17	31	16	249	105.0	-224390.0	12481.0	8388607.0
20	17	31	16	250	107.0	-234555.0	12498.0	8388607.0
20	17	31	16	251	108.0	-233655.0	12494.0	8388607.0
20	17	31	16	251	109.0	-238573.0	12493.0	8388607.0
20	17	31	16	252	110.0	-234774.0	12508.0	8388607.0
20	17	31	16	252	111.0	-231669.0	12491.0	8388607.0
20	17	31	16	253	112.0	-234294.0	12478.0	8388607.0
20	17	31	16	254	113.0	-233684.0	12492.0	8388607.0
20	17	31	16	254	114.0	-216948.0	12504.0	8388607.0
20	17	31	16	255	115.0	-211431.0	12516.0	8388607.0
20	17	31	16	255	116.0	-208880.0	12527.0	8388607.0
20	17	31	16	256	121.0	-195266.0	12564.0	8388607.0
20	17	31	16	257	122.0	-192953.0	12575.0	8388607.0
20	17	31	16	257	123.0	-192177.0	12586.0	8388607.0
20	17	31	16	258	124.0	-202562.0	12596.0	8388607.0
20	17	31	16	258	125.0	-191976.0	12610.0	8388607.0
20	17	31	16	259	126.0	-180489.0	12621.0	8388607.0
20	17	31	16	259	127.0	-182105.0	12636.0	8388607.0
20	17	31	16	260	128.0	-181059.0	12620.0	8388607.0
20	17	31	16	260	129.0	-182043.0	12624.0	8388607.0
20	17	31	16	261	130.0	-181214.0	12614.0	8388607.0
20	17	31	16	262	131.0	-182042.0	12594.0	8388607.0
20	17	31	16	262	132.0	-182043.0	12596.0	8388607.0
20	17	31	16	263	133.0	-181361.0	12598.0	8388607.0
20	17	31	16	264	134.0	-180301.0	12600.0	8388607.0
20	17	31	16	264	135.0	-179733.0	12616.0	8388607.0
20	17	31	16	265	136.0	-179711.0	12624.0	8388607.0
20	17	31	16	292	137.0	-180639.0	12616.0	8388607.0
20	17	31	16	293	138.0	-182114.0	12639.0	8388607.0
20	17	31	16	293	139.0	-184470.0	12639.0	8388607.0
20	17	31	16	294	140.0	-187618.0	12621.0	8388607.0
20	17	31	16	294	141.0	-191137.0	12607.0	8388607.0
20	17	31	16	295	142.0	-194834.0	12613.0	8388607.0
20	17	31	16	296	143.0	-198352.0	12599.0	8388607.0
20	17	31	16	296	144.0	-200834.0	12581.0	8388607.0
20	17	31	16	297	145.0	-202530.0	12566.0	8388607.0
20	17	31	16	297	146.0	-207666.0	12552.0	8388607.0
20	17	31	16	298	147.0	-221507.0	12548.0	8388607.0
20	17	31	16	298	148.0	-203435.0	12556.0	8388607.0
20	17	31	16	299	149.0	-202460.0	12541.0	8388607.0
20	17	31	16	300	150.0	-199615.0	12528.0	8388607.0
20	17	31	16	300	151.0	-202316.0	12512.0	8388607.0
20	17	31	16	301	152.0	-205354.0	12483.0	8388607.0
20	17	31	16	302	153.0	-207189.0	12468.0	8388607.0
20	17	31	16	302	154.0	-210389.0	12449.0	8388607.0
20	17	31	16	303	155.0	-212668.0	12427.0	8388607.0
20	17	31	16	311	156.0	-214966.0	12409.0	8388607.0
20	17	31	16	312	157.0	-216936.0	12391.0	8388607.0
20	17	31	16	312	158.0	-218848.0	12376.0	8388607.0
20	17	31	16	336	159.0	-221875.0	12356.0	8388607.0
20	17	31	16	336	160.0	-235474.0	12333.0	8388607.0
20	17	31	16	337	161.0	-237937.0	12328.0	8388607.0
20	17	31	16	337	162.0	-230245.0	12291.0	8388607.0
20	17	31	16	338	163.0	-233527.0	12258.0	8388607.0
20	17	31	16	338	164.0	-234332.0	12231.0	8388607.0
20	17	31	16	339	165.0	-239667.0	12194.0	8388607.0
20	17	31	16	340	166.0	-240070.0	12159.0	8388607.0
20	17	31	16	340	167.0	-237426.0	12133.0	8388607.0
20	17	31	16	341	168.0	-231824.0	12105.0	8388607.0
20	17	31	16	341	169.0	-224172.0	12075.0	8388607.0
20	17	31	16	342	170.0	-216124.0	12053.0	8388607.0
20	17	31	16	342	171.0	-212869.0	12016.0	8388607.0
20	17	31	16	343	172.0	-197004.0	12002.0	8388607.0
20	17	31	16	344	173.0	-178236.0	11982.0	8388607.0
20	17	31	16	359	174.0	-170490.0	11945.0	8388607.0
20	17	31	16	360	175.0	-163957.0	11932.0	8388607.0
20	17	31	16	361	176.0	-158024.0	11915.0	8388607.0
20	17	31	16	361	177.0	-153706.0	11907.0	8388607.0
20	17	31	16	362	178.0	-152356.0	11878.0	8388607.0
20	17	31	16	362	179.0	-153313.0	11846.0	8388607.0
20	17	31	16	363	180.0	-155825.0	11844.0	8388607.0
20	17	31	16	364	181.0	-159242.0	11804.0	8388607.0
20	17	31	16	382	182.0	-162794.0	11771.0	8388607.0
20	17	31	16	382	183.0	-166126.0	11776.0	8388607.0
20	17	31	16	383	184.0	-169546.0	11769.0	8388607.0
20	17	31	16	384	185.0	-173535.0	11738.0	8388607.0
20	17	31	16	384	186.0	-177639.0	11715.0	8388607.0
20	17	31	16	385	187.0	-181928.0	11701.0	8388607.0
20	17	31	16	385	188.0	-185712.0	11684.0	8388607.0
20	17	31	16	386	189.0	-186619.0	11661.0	8388607.0
20	17	31	16	387	190.0	-183617.0	11636.0	8388607.0
20	17	31	16	387	191.0	-178949.0	11619.0	8388607.0
20	17	31	16	388	192.0	-175133.0	11578.0	8388607.0
20	17	31	16	404	193.0	-173808.0	11568.0	8388607.0
20	17	31	16	405	194.0	-174997.0	11538.0	8388607.0
20	17	31	16	405	195.0	-177585.0	11496.0	8388607.0
20	17	31	16	406	196.0	-180728.0	11468.0	8388607.0
20	17	31	16	406	197.0	-185640.0	11456.0	8388607.0
20	17	31	16	407	198.0	-190723.0	11418.0	8388607.0
20	17	31	16	408	199.0	-195011.0	11369.0	8388607.0
20	17	31	16	408	200.0	-198927.0	11344.0	8388607.0
20	17	31	16	409	201.0	-202894.0	11317.0	8388607.0
20	17	31	16	409	202.0	-212340.0	11284.0	8388607.0
20	17	31	16	410	203.0	-220964.0	11264.0	8388607.0
20	17	31	16	411	204.0	-228555.0	11229.0	8388607.0
20	17	31	16	411	205.0	-231726.0	11207.0	8388607.0
20	17	31	16	412	206.0	-231452.0	11191.0	8388607.0
20	17	31	16	412	207.0	-229900.0	11153.0	8388607.0
20	17	31	16	413	208.0	-225594.0	11123.0	8388607.0
20	17	31	16	414	209.0	-219254.0	11126.0	8388607.0
20	17	31	16	414	210.0	-211441.0	11104.0	8388607.0
20	17	31	16	415	211.0	-202789.0	11078.0	8388607.0
20	17	31	16	429	212.0	-194644.0	11034.0	8388607.0
20	17	31	16	429	213.0	-188081.0	11014.0	8388607.0
20	17	31	16	430	214.0	-183911.0	10990.0	8388607.0
20	17	31	16	431	215.0	-183054.0	10964.0	8388607.0
20	17	31	16	431	216.0	-187219.0	10924.0	8388607.0
20	17	31	16	432	217.0	-195011.0	10897.0	8388607.0
20	17	31	16	433	218.0	-201235.0	10865.0	8388607.0
20	17	31	16	433	219.0	-206432.0	10826.0	8388607.0
20	17	31	16	451	220.0	-210512.0	10813.0	8388607.0
20	17	31	16	452	221.0	-212036.0	10799.0	8388607.0
20	17	31	16	452	222.0	-211592.0	10771.0	8388607.0
20	17	31	16	453	223.0	-209581.0	10730.0	8388607.0
20	17	31	16	454	224.0	-206461.0	10687.0	8388607.0
20	17	31	16	454	225.0	-203483.0	10668.0	8388607.0
20	17	31	16	455	226.0	-201780.0	10643.0	8388607.0
20	17	31	16	475	227.0	-200500.0	10603.0	8388607.0
20	17	31	16	476	228.0	-199389.0	10588.0	8388607.0
20	17	31	16	476	229.0	-197884.0	10570.0	8388607.0
20	17	31	16	477	230.0	-195931.0	10549.0	8388607.0
20	17	31	16	478	231.0	-194112.0	10521.0	8388607.0
20	17	31	16	478	232.0	-193780.0	10503.0	8388607.0
20	17	31	16	479	233.0	-195814.0	10466.0	8388607.0
20	17	31	16	480	234.0	-199114.0	10446.0	8388607.0
20	17	31	16	480	235.0	-203704.0	10399.0	8388607.0
20	17	31	16	481	236.0	-210331.0	10384.0	8388607.0
20	17	31	16	481	237.0	-217687.0	10364.0	8388607.0
20	17	31	16	482	238.0	-225367.0	10334.0	8388607.0
20	17	31	16	482	239.0	-232313.0	10311.0	8388607.0
20	17	31	16	483	240.0	-237820.0	10283.0	8388607.0
20	17	31	16	484	241.0	-241374.0	10251.0	8388607.0
20	17	31	16	484	242.0	-242871.0	10223.0	8388607.0
20	17	31	16	485	243.0	-241194.0	10189.0	8388607.0
20	17	31	16	485	244.0	-237142.0	10169.0	8388607.0
20	17	31	16	486	245.0	-231208.0	10134.0	8388607.0
20	17	31	16	486	246.0	-223926.0	10103.0	8388607.0
20	17	31	16	487	247.0	-216305.0	10081.0	8388607.0
20	17	31	16	488	248.0	-208946.0	10083.0	8388607.0
20	17	31	16	502	249.0	-203198.0	10047.0	8388607.0
20	17	31	16	503	250.0	-197674.0	10014.0	8388607.0
20	17	31	16	504	251.0	-192437.0	9973.0	8388607.0
20	17	31	16	504	252.0	-188561.0	9953.0	8388607.0
20	17	31	16	505	253.0	-186357.0	9942.0	8388607.0
20	17	31	16	506	254.0	-185036.0	9921.0	8388607.0
20	17	31	16	506	255.0	-184418.0	9898.0	8388607.0
20	17	31	16	507	0.0	-184286.0	9857.0	8388607.0
20	17	31	16	508	1.0	-184092.0	9829.0	8388607.0
20	17	31	16	508	2.0	-183912.0	9793.0	8388607.0
20	17	31	16	525	3.0	-184099.0	9766.0	8388607.0
20	17	31	16	526	4.0	-184231.0	9741.0	8388607.0
20	17	31	16	527	5.0	-184722.0	9719.0	8388607.0
20	17	31	16	528	6.0	-186037.0	9693.0	8388607.0
20	17	31	16	528	7.0	-184914.0	9672.0	8388607.0
20	17	31	16	529	8.0	-182585.0	9627.0	8388607.0
20	17	31	16	546	9.0	-180997.0	9593.0	8388607.0
20	17	31	16	547	10.0	-179839.0	9572.0	8388607.0
20	17	31	16	548	11.0	-179772.0	9537.0	8388607.0
20	17	31	16	548	12.0	-180280.0	9491.0	8388607.0
20	17	31	16	549	13.0	-181259.0	9454.0	8388607.0
20	17	31	16	550	14.0	-182724.0	9453.0	8388607.0
20	17	31	16	550	15.0	-184104.0	9414.0	8388607.0
20	17	31	16	551	16.0	-186008.0	9379.0	8388607.0
20	17	31	16	551	17.0	-188430.0	9353.0	8388607.0
20	17	31	16	552	18.0	-190237.0	9311.0	8388607.0
20	17	31	16	553	19.0	-191216.0	9277.0	8388607.0
20	17	31	16	553	20.0	-182431.0	9240.0	8388607.0
20	17	31	16	554	21.0	-170796.0	9216.0	8388607.0
20	17	31	16	554	22.0	-200445.0	9181.0	8388607.0
20	17	31	16	567	23.0	-185807.0	9156.0	8388607.0
20	17	31	16	568	24.0	-199358.0	9121.0	8388607.0
20	17	31	16	569	25.0	-190475.0	9108.0	8388607.0
20	17	31	16	569	26.0	-195454.0	9084.0	8388607.0
20	17	31	16	570	27.0	-196263.0	9053.0	8388607.0
20	17	31	16	570	28.0	-198107.0	9016.0	8388607.0
20	17	31	16	571	29.0	-200335.0	8967.0	8388607.0
20	17	31	16	591	30.0	-203432.0	8920.0	8388607.0
20	17	31	16	592	31.0	-196376.0	8885.0	8388607.0
20	17	31	16	592	32.0	-210556.0	8863.0	8388607.0
20	17	31	16	593	33.0	-222366.0	8811.0	8388607.0
20	17	31	16	594	34.0	-210026.0	8788.0	8388607.0
20	17	31	16	594	35.0	-216191.0	8731.0	8388607.0
20	17	31	16	595	36.0	-213416.0	8691.0	8388607.0
20	17	31	16	595	37.0	-213912.0	8661.0	8388607.0
20	17	31	16	596	38.0	-213442.0	8601.0	8388607.0
20	17	31	16	597	39.0	-213186.0	8555.0	8388607.0
20	17	31	16	612	40.0	-212697.0	8523.0	8388607.0
20	17	31	16	613	41.0	-211808.0	8467.0	8388607.0
20	17	31	16	613	42.0	-210747.0	8426.0	8388607.0
20	17	31	16	614	43.0	-209543.0	8384.0	8388607.0
20	17	31	16	614	44.0	-208021.0	8338.0	8388607.0
20	17	31	16	615	45.0	-206437.0	8306.0	8388607.0
20	17	31	16	615	46.0	-204951.0	8256.0	8388607.0
20	17	31	16	633	47.0	-203927.0	8212.0	8388607.0
20	17	31	16	634	48.0	-203313.0	8177.0	8388607.0
20	17	31	16	635	49.0	-202949.0	8133.0	8388607.0
20	17	31	16	635	50.0	-202974.0	8069.0	8388607.0
20	17	31	16	636	51.0	-203125.0	8026.0	8388607.0
20	17	31	16	637	52.0	-203834.0	7984.0	8388607.0
20	17	31	16	637	53.0	-204557.0	7933.0	8388607.0
20	17	31	16	638	54.0	-204693.0	7878.0	8388607.0
20	17	31	16	638	55.0	-204716.0	7834.0	8388607.0
20	17	31	16	639	56.0	-204714.0	7794.0	8388607.0
20	17	31	16	639	57.0	-204603.0	7751.0	8388607.0
20	17	31	16	640	58.0	-204513.0	7719.0	8388607.0
20	17	31	16	641	59.0	-204482.0	7671.0	8388607.0
20	17	31	16	641	60.0	-204646.0	7619.0	8388607.0
20	17	31	16	657	61.0	-205172.0	7581.0	8388607.0
20	17	31	16	658	62.0	-206340.0	7536.0	8388607.0
20	17	31	16	659	63.0	-208186.0	7504.0	8388607.0
20	17	31	16	659	64.0	-209817.0	7478.0	8388607.0
20	17	31	16	660	65.0	-211171.0	7448.0	8388607.0
20	17	31	16	660	66.0	-212049.0	7398.0	8388607.0
20	17	31	16	661	67.0	-212284.0	7363.0	8388607.0
20	17	31	16	678	68.0	-212461.0	7323.0	8388607.0
20	17	31	16	679	69.0	-213150.0	7289.0	8388607.0
20	17	31	16	680	70.0	-213798.0	7265.0	8388607.0
20	17	31	16	680	71.0	-214054.0	7219.0	8388607.0
20	17	31	16	681	72.0	-213734.0	7180.0	8388607.0
20	17	31	16	682	73.0	-212328.0	7155.0	8388607.0
20	17	31	16	682	74.0	-210091.0	7129.0	8388607.0
20	17	31	16	683	75.0	-206807.0	7103.0	8388607.0
20	17	31	16	683	76.0	-201226.0	7059.0	8388607.0
20	17	31	16	684	77.0	-192134.0	7037.0	8388607.0
20	17	31	16	699	78.0	-179882.0	7008.0	8388607.0
20	17	31	16	719	79.0	-167255.0	6993.0	8388607.0
20	17	31	16	720	80.0	-163834.0	6961.0	8388607.0
20	17	31	16	721	81.0	-165426.0	6919.0	8388607.0
20	17	31	16	721	82.0	-168467.0	6889.0	8388607.0
20	17	31	16	722	83.0	-152472.0	6852.0	8388607.0
20	17	31	16	722	84.0	-198734.0	6827.0	8388607.0
20	17	31	16	723	85.0	-203424.0	6784.0	8388607.0
20	17	31	16	741	90.0	-188559.0	6618.0	8388607.0
20	17	31	16	742	91.0	-183711.0	6576.0	8388607.0
20	17	31	16	742	92.0	-180941.0	6545.0	8388607.0
20	17	31	16	743	93.0	-179577.0	6517.0	8388607.0
20	17	31	16	743	94.0	-179226.0	6426.0	8388607.0
20	17	31	16	744	95.0	-180540.0	6349.0	8388607.0
20	17	31	16	745	96.0	-182894.0	6415.0	8388607.0
20	17	31	16	745	97.0	-186665.0	6396.0	8388607.0
20	17	31	16	746	105.0	-215794.0	6064.0	8388607.0
20	17	31	16	746	106.0	-215051.0	6046.0	8388607.0
20	17	31	16	747	107.0	-213709.0	6028.0	8388607.0
20	17	31	16	747	108.0	-211443.0	6004.0	8388607.0
20	17	31	16	748	109.0	-208297.0	5962.0	8388607.0
20	17	31	16	749	110.0	-204441.0	5917.0	8388607.0
20	17	31	16	761	111.0	-200471.0	5888.0	8388607.0
20	17	31	16	762	112.0	-197097.0	5857.0	8388607.0
20	17	31	16	763	113.0	-194146.0	5788.0	8388607.0
20	17	31	16	763	114.0	-191765.0	5728.0	8388607.0
20	17	31	16	764	115.0	-189847.0	5685.0	8388607.0
20	17	31	16	765	116.0	-188804.0	5656.0	8388607.0
20	17	31	16	766	117.0	-187915.0	5631.0	8388607.0
20	17	31	16	766	118.0	-187054.0	5600.0	8388607.0
20	17	31	16	767	119.0	-186402.0	5533.0	8388607.0
20	17	31	16	768	120.0	-186079.0	5486.0	8388607.0
20	17	31	16	768	121.0	-185591.0	5439.0	8388607.0
20	17	31	16	769	122.0	-185189.0	5417.0	8388607.0
20	17	31	16	769	123.0	-185461.0	5353.0	8388607.0
20	17	31	16	770	124.0	-186459.0	5306.0	8388607.0
20	17	31	16	771	125.0	-187412.0	5251.0	8388607.0
20	17	31	16	771	126.0	-188536.0	5238.0	8388607.0
20	17	31	16	772	128.0	-192070.0	5180.0	8388607.0
20	17	31	16	773	129.0	-194723.0	5137.0	8388607.0
20	17	31	16	773	130.0	-197276.0	5096.0	8388607.0
20	17	31	16	774	131.0	-199896.0	5054.0	8388607.0
20	17	31	16	775	132.0	-203103.0	5017.0	8388607.0
20	17	31	16	775	133.0	-206607.0	4951.0	8388607.0
20	17	31	16	776	134.0	-209301.0	4896.0	8388607.0
20	17	31	16	777	135.0	-211702.0	4848.0	8388607.0
20	17	31	16	786	136.0	-213718.0	4832.0	8388607.0
20	17	31	16	787	137.0	-214784.0	4813.0	8388607.0
20	17	31	16	788	138.0	-215753.0	4781.0	8388607.0
20	17	31	16	788	139.0	-216931.0	4723.0	8388607.0
20	17	31	16	789	140.0	-217970.0	4674.0	8388607.0
20	17	31	16	790	141.0	-219486.0	4639.0	8388607.0
20	17	31	16	790	142.0	-220802.0	4618.0	8388607.0
20	17	31	16	791	143.0	-222425.0	4555.0	8388607.0
20	17	31	16	791	144.0	-223591.0	4506.0	8388607.0
20	17	31	16	807	145.0	-223594.0	4491.0	8388607.0
20	17	31	16	807	146.0	-222742.0	4462.0	8388607.0
20	17	31	16	808	147.0	-221376.0	4451.0	8388607.0
20	17	31	16	809	148.0	-219212.0	4415.0	8388607.0
20	17	31	16	809	149.0	-216544.0	4383.0	8388607.0
20	17	31	16	810	150.0	-213537.0	4338.0	8388607.0
20	17	31	16	828	151.0	-210999.0	4326.0	8388607.0
20	17	31	16	828	152.0	-209640.0	4296.0	8388607.0
20	17	31	16	829	153.0	-207812.0	4242.0	8388607.0
20	17	31	16	829	154.0	-205807.0	4206.0	8388607.0
20	17	31	16	830	155.0	-204736.0	4161.0	8388607.0
20	17	31	16	830	156.0	-203966.0	4159.0	8388607.0
20	17	31	16	831	157.0	-203990.0	4148.0	8388607.0
20	17	31	16	832	158.0	-203959.0	4114.0	8388607.0
20	17	31	16	832	159.0	-203447.0	4069.0	8388607.0
20	17	31	16	848	160.0	-202918.0	4044.0	8388607.0
20	17	31	16	849	161.0	-202366.0	4023.0	8388607.0
20	17	31	16	849	162.0	-201378.0	3984.0	8388607.0
20	17	31	16	850	163.0	-199623.0	3929.0	8388607.0
20	17	31	16	851	164.0	-197641.0	3874.0	8388607.0
20	17	31	16	851	165.0	-195685.0	3842.0	8388607.0
20	17	31	16	852	166.0	-194334.0	3823.0	8388607.0
20	17	31	16	872	167.0	-194077.0	3818.0	8388607.0
20	17	31	16	873	168.0	-193309.0	3788.0	8388607.0
20	17	31	16	873	169.0	-192391.0	3753.0	8388607.0
20	17	31	16	874	170.0	-191892.0	3709.0	8388607.0
20	17	31	16	875	171.0	-191964.0	3685.0	8388607.0
20	17	31	16	875	172.0	-192551.0	3651.0	8388607.0
20	17	31	16	876	173.0	-193850.0	3587.0	8388607.0
20	17	31	16	877	174.0	-195370.0	3545.0	8388607.0
20	17	31	16	877	175.0	-196827.0	3519.0	8388607.0
20	17	31	16	878	176.0	-198076.0	3503.0	8388607.0
20	17	31	16	878	177.0	-199154.0	3499.0	8388607.0
20	17	31	16	879	178.0	-200456.0	3479.0	8388607.0
20	17	31	16	880	179.0	-201757.0	3439.0	8388607.0
20	17	31	16	880	180.0	-202901.0	3419.0	8388607.0
20	17	31	16	891	181.0	-203717.0	3401.0	8388607.0
20	17	31	16	892	182.0	-204502.0	3372.0	8388607.0
20	17	31	16	893	183.0	-205198.0	3319.0	8388607.0
20	17	31	16	893	184.0	-205251.0	3271.0	8388607.0
20	17	31	16	894	185.0	-204437.0	3243.0	8388607.0
20	17	31	16	895	186.0	-203397.0	3221.0	8388607.0
20	17	31	16	895	187.0	-202354.0	3201.0	8388607.0
20	17	31	16	922	188.0	-201029.0	3179.0	8388607.0
20	17	31	16	923	189.0	-200176.0	3143.0	8388607.0
20	17	31	16	924	190.0	-199173.0	3112.0	8388607.0
20	17	31	16	924	191.0	-198651.0	3099.0	8388607.0
20	17	31	16	925	192.0	-199054.0	3066.0	8388607.0
20	17	31	16	925	193.0	-200155.0	3013.0	8388607.0
20	17	31	16	926	194.0	-201262.0	2972.0	8388607.0
20	17	31	16	938	195.0	-202182.0	2938.0	8388607.0
20	17	31	16	939	196.0	-202916.0	2911.0	8388607.0
20	17	31	16	940	197.0	-203241.0	2883.0	8388607.0
20	17	31	16	957	198.0	-203029.0	2853.0	8388607.0
20	17	31	16	958	199.0	-189994.0	2823.0	8388607.0
20	17	31	16	959	200.0	-161508.0	2775.0	8388607.0
20	17	31	16	959	201.0	-201355.0	2751.0	8388607.0
20	17	31	16	960	202.0	-200426.0	2709.0	8388607.0
20	17	31	16	960	203.0	-215131.0	2663.0	8388607.0
20	17	31	16	961	210.0	-194389.0	2518.0	8388607.0
20	17	31	16	976	211.0	-194682.0	2522.0	8388607.0
20	17	31	16	977	212.0	-194146.0	2495.0	8388607.0
20	17	31	16	978	213.0	-194606.0	2419.0	8388607.0
20	17	31	16	978	214.0	-194296.0	2369.0	8388607.0
20	17	31	16	979	215.0	-194278.0	2368.0	8388607.0
20	17	31	16	980	216.0	-193960.0	2351.0	8388607.0
20	17	31	16	981	218.0	-193164.0	2303.0	8388607.0
20	17	31	16	982	219.0	-193076.0	2268.0	8388607.0
20	17	31	16	982	225.0	-190543.0	2019.0	8388607.0
20	17	31	16	983	226.0	-190257.0	2013.0	8388607.0
20	17	31	16	984	227.0	-190226.0	1997.0	8388607.0
20	17	31	16	984	228.0	-190484.0	1995.0	8388607.0
20	17	31	16	985	229.0	-191227.0	1973.0	8388607.0
20	17	31	16	985	230.0	-192289.0	1933.0	8388607.0
20	17	31	16	986	231.0	-193813.0	1921.0	8388607.0
20	17	31	16	987	232.0	-195521.0	1874.0	8388607.0
20	17	31	16	987	233.0	-197567.0	1832.0	8388607.0
20	17	31	16	988	234.0	-199900.0	1810.0	8388607.0
20	17	31	16	988	235.0	-202002.0	1785.0	8388607.0
20	17	31	16	989	236.0	-203932.0	1774.0	8388607.0
20	17	31	16	990	237.0	-205814.0	1759.0	8388607.0
20	17	31	16	990	238.0	-208302.0	1755.0	8388607.0
20	17	31	16	991	239.0	-210973.0	1734.0	8388607.0
20	17	31	16	992	240.0	-213919.0	1689.0	8388607.0
20	17	31	16	999	241.0	-216628.0	1684.0	8388607.0
20	17	31	17	0	242.0	-218419.0	1654.0	8388607.0
20	17	31	17	1	243.0	-219517.0	1613.0	8388607.0
20	17	31	17	2	244.0	-219599.0	1571.0	8388607.0
20	17	31	17	2	245.0	-219606.0	1550.0	8388607.0
20	17	31	17	3	246.0	-219801.0	1533.0	8388607.0
20	17	31	17	3	247.0	-220187.0	1513.0	8388607.0
20	17	31	17	4	248.0	-220140.0	1497.0	8388607.0
20	17	31	17	25	249.0	-219461.0	1466.0	8388607.0
20	17	31	17	26	250.0	-218579.0	1448.0	8388607.0
20	17	31	17	27	251.0	-217511.0	1409.0	8388607.0
20	17	31	17	27	252.0	-216217.0	1369.0	8388607.0
20	17	31	17	28	253.0	-214928.0	1326.0	8388607.0
20	17	31	17	28	254.0	-213111.0	1284.0	8388607.0
20	17	31	17	29	255.0	-211051.0	1254.0	8388607.0
20	17	31	17	29	0.0	-208276.0	1239.0	8388607.0
20	17	31	17	30	1.0	-201019.0	1246.0	8388607.0
20	17	31	17	31	2.0	-201692.0	1224.0	8388607.0
20	17	31	17	31	3.0	-202707.0	1187.0	8388607.0
20	17	31	17	32	4.0	-197101.0	1164.0	8388607.0
20	17	31	17	32	5.0	-197110.0	1136.0	8388607.0
20	17	31	17	33	6.0	-193663.0	1103.0	8388607.0
20	17	31	17	33	7.0	-191504.0	1064.0	8388607.0
20	17	31	17	44	8.0	-189474.0	1059.0	8388607.0
20	17	31	17	45	9.0	-188570.0	1036.0	8388607.0
20	17	31	17	46	10.0	-188465.0	1022.0	8388607.0
20	17	31	17	46	11.0	-189589.0	1016.0	8388607.0
20	17	31	17	64	12.0	-191532.0	1020.0	8388607.0
20	17	31	17	65	13.0	-194344.0	1003.0	8388607.0
20	17	31	17	65	14.0	-196912.0	978.0	8388607.0
20	17	31	17	66	15.0	-198996.0	956.0	8388607.0
20	17	31	17	67	16.0	-201027.0	919.0	8388607.0
20	17	31	17	67	17.0	-202510.0	889.0	8388607.0
20	17	31	17	68	18.0	-203558.0	858.0	8388607.0
20	17	31	17	88	19.0	-203348.0	853.0	8388607.0
20	17	31	17	88	20.0	-202067.0	858.0	8388607.0
20	17	31	17	89	21.0	-200785.0	839.0	8388607.0
20	17	31	17	89	22.0	-199103.0	831.0	8388607.0
20	17	31	17	90	23.0	-197482.0	826.0	8388607.0
20	17	31	17	91	24.0	-195968.0	804.0	8388607.0
20	17	31	17	91	25.0	-195322.0	788.0	8388607.0
20	17	31	17	92	26.0	-196816.0	741.0	8388607.0
20	17	31	17	92	27.0	-200132.0	719.0	8388607.0
20	17	31	17	93	28.0	-205272.0	704.0	8388607.0
20	17	31	17	93	29.0	-210796.0	678.0	8388607.0
20	17	31	17	94	30.0	-214472.0	668.0	8388607.0
20	17	31	17	94	31.0	-213845.0	672.0	8388607.0
20	17	31	17	95	32.0	-200633.0	643.0	8388607.0
20	17	31	17	96	33.0	-214832.0	621.0	8388607.0
20	17	31	17	96	34.0	-219294.0	610.0	8388607.0
20	17	31	17	97	35.0	-207104.0	588.0	8388607.0
20	17	31	17	97	36.0	-202567.0	563.0	8388607.0
20	17	31	17	98	37.0	-188256.0	541.0	8388607.0
20	17	31	17	98	38.0	-175035.0	534.0	8388607.0
20	17	31	17	107	39.0	-164108.0	526.0	8388607.0
20	17	31	17	108	40.0	-158599.0	539.0	8388607.0
20	17	31	17	108	41.0	-156491.0	531.0	8388607.0
20	17	31	17	109	42.0	-154867.0	504.0	8388607.0
20	17	31	17	109	43.0	-150056.0	473.0	8388607.0
20	17	31	17	110	44.0	-161232.0	464.0	8388607.0
20	17	31	17	126	45.0	-175186.0	483.0	8388607.0
20	17	31	17	127	46.0	-175006.0	453.0	8388607.0
20	17	31	17	127	47.0	-184841.0	424.0	8388607.0
20	17	31	17	128	48.0	-194551.0	404.0	8388607.0
20	17	31	17	129	49.0	-206946.0	394.0	8388607.0
20	17	31	17	129	50.0	-216387.0	397.0	8388607.0
20	17	31	17	130	51.0	-223252.0	406.0	8388607.0
20	17	31	17	145	52.0	-223009.0	379.0	8388607.0
20	17	31	17	146	53.0	-219721.0	378.0	8388607.0
20	17	31	17	147	54.0	-215478.0	362.0	8388607.0
20	17	31	17	147	55.0	-207842.0	353.0	8388607.0
20	17	31	17	148	56.0	-194916.0	296.0	8388607.0
20	17	31	17	148	57.0	-200364.0	289.0	8388607.0
20	17	31	17	149	58.0	-192996.0	275.0	8388607.0
20	17	31	17	164	59.0	-187196.0	266.0	8388607.0
20	17	31	17	165	60.0	-185539.0	263.0	8388607.0
20	17	31	17	166	61.0	-183923.0	251.0	8388607.0
20	17	31	17	166	62.0	-183708.0	241.0	8388607.0
20	17	31	17	167	63.0	-185167.0	214.0	8388607.0
20	17	31	17	167	64.0	-195553.0	198.0	8388607.0
20	17	31	17	187	65.0	-200262.0	184.0	8388607.0
20	17	31	17	205	66.0	-202597.0	153.0	8388607.0
20	17	31	17	206	67.0	-201777.0	135.0	8388607.0
20	17	31	17	206	68.0	-197319.0	116.0	8388607.0
20	17	31	17	207	69.0	-192496.0	86.0	8388607.0
20	17	31	17	208	70.0	-187320.0	92.0	8388607.0
20	17	31	17	208	71.0	-182193.0	113.0	8388607.0
20	17	31	17	209	72.0	-179854.0	92.0	8388607.0
20	17	31	17	209	73.0	-179667.0	60.0	8388607.0
20	17	31	17	210	74.0	-181322.0	60.0	8388607.0
20	17	31	17	210	75.0	-183705.0	60.0	8388607.0
20	17	31	17	211	76.0	-185806.0	34.0	8388607.0
20	17	31	17	212	77.0	-187176.0	10.0	8388607.0
20	17	31	17	212	78.0	-188392.0	-17.0	8388607.0
20	17	31	17	213	79.0	-190324.0	-12.0	8388607.0
20	17	31	17	223	81.0	-196332.0	-24.0	8388607.0
20	17	31	17	224	89.0	-216399.0	-92.0	8388607.0
20	17	31	17	224	90.0	-215814.0	-112.0	8388607.0
20	17	31	17	241	91.0	-214283.0	-116.0	8388607.0
20	17	31	17	242	92.0	-212131.0	-96.0	8388607.0
20	17	31	17	243	93.0	-209445.0	-110.0	8388607.0
20	17	31	17	243	94.0	-206085.0	-101.0	8388607.0
20	17	31	17	244	95.0	-202611.0	-110.0	8388607.0
20	17	31	17	244	96.0	-199502.0	-148.0	8388607.0
20	17	31	17	245	97.0	-197229.0	-171.0	8388607.0
20	17	31	17	260	98.0	-196132.0	-165.0	8388607.0
20	17	31	17	261	99.0	-195773.0	-176.0	8388607.0
20	17	31	17	279	100.0	-196462.0	-186.0	8388607.0
20	17	31	17	280	101.0	-197871.0	-186.0	8388607.0
20	17	31	17	281	102.0	-203139.0	-189.0	8388607.0
20	17	31	17	281	103.0	-207541.0	-194.0	8388607.0
20	17	31	17	282	104.0	-210389.0	-188.0	8388607.0
20	17	31	17	282	105.0	-214458.0	-194.0	8388607.0
20	17	31	17	283	111.0	-216690.0	-268.0	8388607.0
20	17	31	17	284	112.0	-214443.0	-277.0	8388607.0
20	17	31	17	284	113.0	-211861.0	-281.0	8388607.0
20	17	31	17	285	114.0	-209059.0	-291.0	8388607.0
20	17	31	17	285	115.0	-205722.0	-304.0	8388607.0
20	17	31	17	286	116.0	-203050.0	-348.0	8388607.0
20	17	31	17	286	117.0	-200008.0	-345.0	8388607.0
20	17	31	17	287	118.0	-196657.0	-346.0	8388607.0
20	17	31	17	288	119.0	-193296.0	-355.0	8388607.0
20	17	31	17	288	126.0	-184432.0	-411.0	8388607.0
20	17	31	17	289	127.0	-185447.0	-448.0	8388607.0
20	17	31	17	289	128.0	-186516.0	-472.0	8388607.0
20	17	31	17	290	129.0	-187517.0	-470.0	8388607.0
20	17	31	17	290	130.0	-187873.0	-472.0	8388607.0
20	17	31	17	291	131.0	-187387.0	-469.0	8388607.0
20	17	31	17	291	132.0	-186355.0	-482.0	8388607.0
20	17	31	17	292	133.0	-185326.0	-485.0	8388607.0
20	17	31	17	292	134.0	-184134.0	-505.0	8388607.0
20	17	31	17	303	135.0	-183379.0	-529.0	8388607.0
20	17	31	17	303	136.0	-183800.0	-563.0	8388607.0
20	17	31	17	304	137.0	-184990.0	-587.0	8388607.0
20	17	31	17	305	138.0	-186666.0	-604.0	8388607.0
20	17	31	17	305	139.0	-189139.0	-601.0	8388607.0
20	17	31	17	306	140.0	-191867.0	-601.0	8388607.0
20	17	31	17	306	141.0	-194591.0	-594.0	8388607.0
20	17	31	17	307	142.0	-196814.0	-596.0	8388607.0
20	17	31	17	327	143.0	-198472.0	-602.0	8388607.0
20	17	31	17	328	144.0	-200063.0	-617.0	8388607.0
20	17	31	17	328	145.0	-201749.0	-639.0	8388607.0
20	17	31	17	341	146.0	-202791.0	-674.0	8388607.0
20	17	31	17	342	147.0	-203292.0	-706.0	8388607.0
20	17	31	17	343	148.0	-203297.0	-721.0	8388607.0
20	17	31	17	344	149.0	-202808.0	-720.0	8388607.0
20	17	31	17	344	150.0	-201618.0	-723.0	8388607.0
20	17	31	17	345	151.0	-200761.0	-722.0	8388607.0
20	17	31	17	345	152.0	-200181.0	-748.0	8388607.0
20	17	31	17	346	153.0	-199877.0	-772.0	8388607.0
20	17	31	17	347	154.0	-199944.0	-783.0	8388607.0
20	17	31	17	359	155.0	-200179.0	-810.0	8388607.0
20	17	31	17	359	156.0	-200477.0	-837.0	8388607.0
20	17	31	17	360	157.0	-201234.0	-870.0	8388607.0
20	17	31	17	361	158.0	-201887.0	-887.0	8388607.0
20	17	31	17	361	159.0	-202226.0	-887.0	8388607.0
20	17	31	17	362	160.0	-202254.0	-887.0	8388607.0
20	17	31	17	362	161.0	-201791.0	-904.0	8388607.0
20	17	31	17	377	164.0	-200355.0	-956.0	8388607.0
20	17	31	17	378	165.0	-201016.0	-974.0	8388607.0
20	17	31	17	379	166.0	-202025.0	-992.0	8388607.0
20	17	31	17	379	167.0	-203934.0	-1019.0	8388607.0
20	17	31	17	380	168.0	-206948.0	-1037.0	8388607.0
20	17	31	17	381	169.0	-210751.0	-1039.0	8388607.0
20	17	31	17	381	170.0	-215223.0	-1041.0	8388607.0
20	17	31	17	403	171.0	-219653.0	-1031.0	8388607.0
20	17	31	17	404	172.0	-223928.0	-1058.0	8388607.0
20	17	31	17	405	173.0	-227824.0	-1057.0	8388607.0
20	17	31	17	405	174.0	-231502.0	-1053.0	8388607.0
20	17	31	17	406	175.0	-233972.0	-1081.0	8388607.0
20	17	31	17	406	176.0	-234641.0	-1132.0	8388607.0
20	17	31	17	407	177.0	-232340.0	-1149.0	8388607.0
20	17	31	17	422	178.0	-224686.0	-1146.0	8388607.0
20	17	31	17	423	179.0	-211124.0	-1154.0	8388607.0
