20	17	37	41	390	149.0	-199112.0	709.0	-124986.0
20	17	37	41	392	150.0	-197430.0	674.0	-143291.0
20	17	37	41	394	151.0	-196667.0	651.0	-157690.0
20	17	37	41	396	152.0	-196039.0	638.0	-162996.0
20	17	37	41	398	153.0	-196640.0	631.0	-157893.0
20	17	37	41	400	154.0	-198712.0	599.0	-151461.0
20	17	37	41	402	155.0	-201306.0	579.0	-150174.0
20	17	37	41	404	156.0	-203732.0	538.0	-150017.0
20	17	37	41	405	157.0	-206306.0	500.0	-143472.0
20	17	37	41	407	158.0	-208471.0	481.0	-155964.0
20	17	37	41	408	159.0	-210314.0	454.0	-177316.0
20	17	37	41	409	160.0	-211147.0	419.0	-195641.0
20	17	37	41	410	161.0	-212026.0	418.0	-208837.0
20	17	37	41	411	162.0	-213040.0	417.0	-210327.0
20	17	37	41	412	163.0	-213741.0	389.0	-199509.0
20	17	37	41	413	164.0	-214546.0	343.0	-189977.0
20	17	37	41	422	165.0	-215114.0	313.0	-184323.0
20	17	37	41	423	166.0	-215426.0	293.0	-177455.0
20	17	37	41	424	167.0	-216059.0	240.0	-164482.0
20	17	37	41	424	168.0	-217256.0	195.0	-173287.0
20	17	37	41	452	169.0	-218514.0	161.0	-194016.0
20	17	37	41	453	170.0	-219561.0	115.0	-215286.0
20	17	37	41	453	171.0	-221030.0	91.0	-230416.0
20	17	37	41	478	172.0	-222179.0	64.0	-232116.0
20	17	37	41	505	173.0	-223127.0	26.0	-221525.0
20	17	37	41	506	174.0	-223988.0	-16.0	-212979.0
20	17	37	41	506	175.0	-224645.0	-71.0	-207283.0
20	17	37	41	507	176.0	-224597.0	-101.0	-196001.0
20	17	37	41	508	177.0	-223989.0	-132.0	-179907.0
20	17	37	41	508	178.0	-223249.0	-187.0	-187599.0
20	17	37	41	509	179.0	-221476.0	-213.0	-203818.0
20	17	37	41	509	180.0	-219504.0	-229.0	-223780.0
20	17	37	41	510	181.0	-217479.0	-284.0	-234744.0
20	17	37	41	510	182.0	-214486.0	-318.0	-231571.0
20	17	37	41	511	183.0	-211401.0	-354.0	-219361.0
20	17	37	41	512	184.0	-208086.0	-369.0	-210907.0
20	17	37	41	546	185.0	-204167.0	-398.0	-204843.0
20	17	37	41	547	186.0	-200262.0	-444.0	-194214.0
20	17	37	41	548	187.0	-196779.0	-479.0	-179807.0
20	17	37	41	548	209.0	-208317.0	-1285.0	-210689.0
20	17	37	41	549	210.0	-204052.0	-1322.0	-229409.0
20	17	37	41	549	211.0	-199812.0	-1366.0	-238991.0
20	17	37	41	550	212.0	-195422.0	-1406.0	-237979.0
20	17	37	41	551	213.0	-190844.0	-1453.0	-227832.0
20	17	37	41	551	214.0	-186697.0	-1499.0	-220781.0
20	17	37	41	552	215.0	-183771.0	-1537.0	-215126.0
20	17	37	41	553	216.0	-181112.0	-1573.0	-204856.0
20	17	37	41	553	217.0	-180146.0	-1616.0	-192532.0
20	17	37	41	554	218.0	-181109.0	-1661.0	-202876.0
20	17	37	41	555	219.0	-183759.0	-1699.0	-218926.0
20	17	37	41	555	220.0	-188748.0	-1721.0	-234778.0
20	17	37	41	556	232.0	-216881.0	-2063.0	-221076.0
20	17	37	41	556	233.0	-212254.0	-2082.0	-206500.0
20	17	37	41	557	234.0	-206956.0	-2107.0	-197004.0
20	17	37	41	558	235.0	-201999.0	-2128.0	-189887.0
20	17	37	41	558	236.0	-196496.0	-2156.0	-178764.0
20	17	37	41	559	237.0	-191245.0	-2155.0	-169612.0
20	17	37	41	591	238.0	-186719.0	-2167.0	-183759.0
20	17	37	41	592	239.0	-181897.0	-2186.0	-201550.0
20	17	37	41	592	240.0	-177625.0	-2194.0	-219234.0
20	17	37	41	593	241.0	-174071.0	-2203.0	-225292.0
20	17	37	41	593	242.0	-170214.0	-2208.0	-220766.0
20	17	37	41	594	243.0	-167250.0	-2219.0	-207551.0
20	17	37	41	595	244.0	-165206.0	-2236.0	-198913.0
20	17	37	41	637	245.0	-163170.0	-2231.0	-190270.0
20	17	37	41	638	246.0	-161849.0	-2214.0	-174992.0
20	17	37	41	638	247.0	-161506.0	-2205.0	-172259.0
20	17	37	41	639	248.0	-161655.0	-2191.0	-192477.0
20	17	37	41	640	249.0	-162887.0	-2179.0	-211517.0
20	17	37	41	640	250.0	-163919.0	-2131.0	-229298.0
20	17	37	41	682	251.0	-164824.0	-2093.0	-237508.0
20	17	37	41	683	252.0	-167522.0	-2042.0	-236731.0
20	17	37	41	684	254.0	-174236.0	-1963.0	-229234.0
20	17	37	41	684	255.0	-179043.0	-1936.0	-231485.0
20	17	37	41	685	0.0	-184128.0	-1902.0	-232855.0
20	17	37	41	685	1.0	-189407.0	-1897.0	-254231.0
20	17	37	41	686	2.0	-196029.0	-1877.0	-301809.0
20	17	37	41	726	3.0	-201954.0	-1871.0	-367326.0
20	17	37	41	771	4.0	-208293.0	-1852.0	-438141.0
20	17	37	41	772	5.0	-215496.0	-1811.0	-474770.0
20	17	37	41	797	21.0	-187959.0	-1116.0	-552606.0
20	17	37	41	797	22.0	-196672.0	-1057.0	-571227.0
20	17	37	41	798	23.0	-201473.0	-973.0	-590933.0
20	17	37	41	798	24.0	-202817.0	-905.0	-608200.0
20	17	37	41	799	25.0	-203297.0	-839.0	-612700.0
20	17	37	41	800	43.0	-204813.0	93.0	-607129.0
20	17	37	41	820	44.0	-205644.0	142.0	-621890.0
20	17	37	41	821	45.0	-206140.0	183.0	-624819.0
20	17	37	41	821	46.0	-206015.0	234.0	-616992.0
20	17	37	41	822	47.0	-205573.0	277.0	-604514.0
20	17	37	41	822	48.0	-202991.0	323.0	-597487.0
20	17	37	41	823	49.0	-199551.0	371.0	-591581.0
20	17	37	41	861	50.0	-196799.0	416.0	-578346.0
20	17	37	41	862	66.0	-228222.0	869.0	-619854.0
20	17	37	41	863	88.0	-208676.0	860.0	-593825.0
20	17	37	41	863	89.0	-205231.0	861.0	-585070.0
20	17	37	41	878	90.0	-202023.0	853.0	-570139.0
20	17	37	41	879	91.0	-199127.0	840.0	-573167.0
20	17	37	41	880	92.0	-196024.0	799.0	-589080.0
20	17	37	41	906	93.0	-192936.0	786.0	-605419.0
20	17	37	41	907	94.0	-189774.0	763.0	-616419.0
20	17	37	41	908	110.0	-180184.0	447.0	-553402.0
20	17	37	41	909	111.0	-181728.0	400.0	-559547.0
20	17	37	41	909	112.0	-183764.0	389.0	-575320.0
20	17	37	41	910	113.0	-187396.0	381.0	-591438.0
20	17	37	41	911	114.0	-191684.0	346.0	-599630.0
20	17	37	41	911	115.0	-196033.0	328.0	-596512.0
20	17	37	41	912	133.0	-192566.0	-24.0	-564045.0
20	17	37	41	913	134.0	-190417.0	-25.0	-571962.0
20	17	37	41	913	135.0	-189412.0	-35.0	-568937.0
20	17	37	41	914	136.0	-188541.0	-51.0	-554996.0
20	17	37	41	914	137.0	-187206.0	-82.0	-544604.0
20	17	37	41	915	138.0	-186709.0	-95.0	-537170.0
20	17	37	41	916	139.0	-185498.0	-116.0	-526382.0
20	17	37	41	916	140.0	-184217.0	-154.0	-512277.0
20	17	37	41	917	156.0	-179611.0	-565.0	-537664.0
20	17	37	41	917	157.0	-179459.0	-609.0	-529021.0
20	17	37	41	918	158.0	-180013.0	-641.0	-523159.0
20	17	37	41	919	159.0	-181761.0	-678.0	-514422.0
20	17	37	41	951	160.0	-183847.0	-743.0	-505069.0
20	17	37	41	952	161.0	-186082.0	-799.0	-518444.0
20	17	37	41	952	162.0	-188452.0	-816.0	-536718.0
20	17	37	41	953	163.0	-190436.0	-844.0	-555951.0
20	17	37	41	954	164.0	-191872.0	-848.0	-565163.0
20	17	37	41	954	165.0	-193426.0	-875.0	-564819.0
20	17	37	41	955	166.0	-195249.0	-903.0	-555761.0
20	17	37	41	997	167.0	-196968.0	-919.0	-551387.0
20	17	37	41	998	168.0	-197712.0	-942.0	-547266.0
20	17	37	41	999	169.0	-198930.0	-943.0	-534989.0
20	17	37	41	999	170.0	-200383.0	-969.0	-518926.0
20	17	37	42	0	171.0	-201517.0	-986.0	-522809.0
20	17	37	42	0	172.0	-202909.0	-1009.0	-527490.0
20	17	37	42	1	173.0	-202836.0	-1019.0	-531231.0
20	17	37	42	41	174.0	-202643.0	-1042.0	-521793.0
20	17	37	42	42	175.0	-202847.0	-1062.0	-508846.0
20	17	37	42	42	178.0	-204367.0	-1104.0	-477904.0
20	17	37	42	86	179.0	-206044.0	-1136.0	-467997.0
20	17	37	42	87	180.0	-207353.0	-1175.0	-460382.0
20	17	37	42	87	181.0	-208779.0	-1198.0	-476139.0
20	17	37	42	88	182.0	-209587.0	-1197.0	-496063.0
20	17	37	42	89	183.0	-208469.0	-1219.0	-516082.0
20	17	37	42	89	184.0	-205131.0	-1244.0	-524668.0
20	17	37	42	90	200.0	-206557.0	-1641.0	-479761.0
20	17	37	42	223	201.0	-208397.0	-1683.0	-494753.0
20	17	37	42	224	202.0	-208741.0	-1711.0	-513494.0
20	17	37	42	224	203.0	-208264.0	-1723.0	-529376.0
20	17	37	42	226	204.0	-206447.0	-1743.0	-534155.0
20	17	37	42	227	205.0	-203604.0	-1794.0	-526492.0
20	17	37	42	228	206.0	-199538.0	-1806.0	-513638.0
20	17	37	42	228	223.0	-199814.0	-2316.0	-530604.0
20	17	37	42	229	224.0	-202822.0	-2344.0	-533413.0
20	17	37	42	230	245.0	-194284.0	-3004.0	-523619.0
20	17	37	42	230	246.0	-194033.0	-3042.0	-512249.0
20	17	37	42	267	247.0	-194344.0	-3061.0	-505528.0
20	17	37	42	268	248.0	-196257.0	-3110.0	-498684.0
20	17	37	42	294	249.0	-199147.0	-3127.0	-484642.0
20	17	37	42	294	250.0	-203902.0	-3191.0	-482067.0
20	17	37	42	295	251.0	-209433.0	-3236.0	-498834.0
20	17	37	42	296	252.0	-214777.0	-3259.0	-517002.0
20	17	37	42	297	57.0	-214647.0	-4110.0	-501697.0
20	17	37	42	297	58.0	-212888.0	-4094.0	-500515.0
20	17	37	42	298	59.0	-210140.0	-4062.0	-487312.0
20	17	37	42	298	60.0	-207577.0	-4022.0	-477386.0
20	17	37	42	299	61.0	-205391.0	-3982.0	-470848.0
20	17	37	42	299	62.0	-203178.0	-3959.0	-462617.0
20	17	37	42	300	63.0	-201535.0	-3923.0	-448985.0
20	17	37	42	300	64.0	-199801.0	-3902.0	-457069.0
20	17	37	42	301	65.0	-199121.0	-3868.0	-474417.0
20	17	37	42	302	66.0	-198747.0	-3806.0	-493019.0
20	17	37	42	302	79.0	-185043.0	-3262.0	-485348.0
20	17	37	42	303	80.0	-191049.0	-3222.0	-476785.0
20	17	37	42	303	81.0	-200547.0	-3179.0	-471009.0
20	17	37	42	317	82.0	-209154.0	-3122.0	-461191.0
20	17	37	42	318	83.0	-212907.0	-3089.0	-446867.0
20	17	37	42	318	84.0	-212645.0	-3061.0	-456928.0
20	17	37	42	319	85.0	-209832.0	-3027.0	-474732.0
20	17	37	42	320	86.0	-205953.0	-2960.0	-492259.0
20	17	37	42	402	87.0	-202021.0	-2912.0	-500226.0
20	17	37	42	403	88.0	-198653.0	-2847.0	-497004.0
20	17	37	42	404	89.0	-195839.0	-2792.0	-483380.0
20	17	37	42	404	90.0	-193557.0	-2741.0	-474884.0
20	17	37	42	405	91.0	-191464.0	-2703.0	-468584.0
20	17	37	42	405	92.0	-188779.0	-2665.0	-458693.0
20	17	37	42	406	93.0	-185734.0	-2619.0	-446384.0
20	17	37	42	448	94.0	-182704.0	-2574.0	-457490.0
20	17	37	42	449	95.0	-179761.0	-2542.0	-474792.0
20	17	37	42	449	96.0	-177175.0	-2493.0	-492712.0
20	17	37	42	450	101.0	-169661.0	-2298.0	-468712.0
20	17	37	42	537	102.0	-166761.0	-2269.0	-458085.0
20	17	37	42	538	103.0	-161948.0	-2226.0	-446157.0
20	17	37	42	539	104.0	-155506.0	-2204.0	-458721.0
20	17	37	42	540	105.0	-149807.0	-2187.0	-476149.0
20	17	37	42	540	106.0	-145629.0	-2161.0	-492408.0
20	17	37	42	541	147.0	-223284.0	-1652.0	-530353.0
20	17	37	42	541	148.0	-222445.0	-1660.0	-524066.0
20	17	37	42	582	149.0	-221596.0	-1677.0	-510565.0
20	17	37	42	582	150.0	-220572.0	-1691.0	-502786.0
20	17	37	42	583	151.0	-218352.0	-1690.0	-496393.0
20	17	37	42	584	152.0	-216591.0	-1702.0	-483492.0
20	17	37	42	585	153.0	-214084.0	-1741.0	-476442.0
20	17	37	42	585	169.0	-224177.0	-2259.0	-520275.0
20	17	37	42	628	170.0	-228706.0	-2296.0	-513347.0
20	17	37	42	629	171.0	-232163.0	-2320.0	-507489.0
20	17	37	42	629	172.0	-234791.0	-2346.0	-494022.0
20	17	37	42	630	214.0	-205791.0	-3236.0	-495118.0
20	17	37	42	631	215.0	-204512.0	-3252.0	-512252.0
20	17	37	42	631	216.0	-203299.0	-3247.0	-524729.0
20	17	37	42	632	217.0	-201234.0	-3254.0	-525381.0
20	17	37	42	633	218.0	-200758.0	-3264.0	-515902.0
20	17	37	42	633	219.0	-200536.0	-3287.0	-503817.0
20	17	37	42	634	220.0	-200843.0	-3299.0	-495588.0
20	17	37	42	634	236.0	-211736.0	-3503.0	-531965.0
20	17	37	42	635	237.0	-210529.0	-3511.0	-534506.0
20	17	37	42	636	238.0	-209524.0	-3517.0	-526046.0
20	17	37	42	636	239.0	-208135.0	-3535.0	-518514.0
20	17	37	42	637	240.0	-207316.0	-3561.0	-513501.0
20	17	37	42	638	241.0	-205998.0	-3570.0	-504081.0
20	17	37	42	638	3.0	-211227.0	-3820.0	-469910.0
20	17	37	42	639	4.0	-208525.0	-3854.0	-464562.0
20	17	37	42	639	5.0	-206186.0	-3872.0	-456622.0
20	17	37	42	640	6.0	-204025.0	-3864.0	-442592.0
20	17	37	42	641	7.0	-204152.0	-3888.0	-450632.0
20	17	37	42	641	8.0	-209027.0	-3920.0	-467152.0
20	17	37	42	642	9.0	-215636.0	-3933.0	-484171.0
20	17	37	42	672	10.0	-221058.0	-3946.0	-493123.0
20	17	37	42	673	11.0	-227196.0	-3994.0	-490691.0
20	17	37	42	674	12.0	-233039.0	-4023.0	-477906.0
20	17	37	42	674	13.0	-238303.0	-4033.0	-467996.0
20	17	37	42	675	14.0	-241839.0	-4082.0	-460512.0
20	17	37	42	676	15.0	-242322.0	-4115.0	-449224.0
20	17	37	42	677	16.0	-241134.0	-4127.0	-435439.0
20	17	37	42	677	17.0	-238749.0	-4165.0	-444159.0
20	17	37	42	678	18.0	-235322.0	-4234.0	-460151.0
20	17	37	42	679	19.0	-231687.0	-4272.0	-476846.0
20	17	37	42	679	20.0	-227475.0	-4304.0	-484452.0
20	17	37	42	680	21.0	-222402.0	-4328.0	-481325.0
20	17	37	42	680	22.0	-216239.0	-4383.0	-468448.0
20	17	37	42	681	23.0	-209160.0	-4423.0	-457110.0
20	17	37	42	682	24.0	-201302.0	-4457.0	-448389.0
20	17	37	42	682	25.0	-195275.0	-4497.0	-436397.0
20	17	37	42	683	26.0	-189767.0	-4530.0	-420391.0
20	17	37	42	683	27.0	-185309.0	-4572.0	-427126.0
20	17	37	42	684	28.0	-182625.0	-4627.0	-440142.0
20	17	37	42	716	29.0	-180146.0	-4652.0	-455353.0
20	17	37	42	717	30.0	-178167.0	-4684.0	-462526.0
20	17	37	42	718	31.0	-175246.0	-4726.0	-458360.0
20	17	37	42	762	32.0	-172519.0	-4767.0	-445074.0
20	17	37	42	763	33.0	-170083.0	-4831.0	-434907.0
20	17	37	42	764	34.0	-168173.0	-4859.0	-428049.0
20	17	37	42	764	35.0	-168164.0	-4904.0	-417372.0
20	17	37	42	765	36.0	-170216.0	-4946.0	-403727.0
20	17	37	42	766	37.0	-175176.0	-4991.0	-411798.0
20	17	37	42	766	38.0	-182580.0	-5002.0	-427731.0
20	17	37	42	807	39.0	-191411.0	-5007.0	-444909.0
20	17	37	42	808	40.0	-200688.0	-5035.0	-449696.0
20	17	37	42	809	41.0	-210746.0	-5066.0	-440209.0
20	17	37	42	809	42.0	-220221.0	-5086.0	-426511.0
20	17	37	42	810	43.0	-230200.0	-5123.0	-417775.0
20	17	37	42	810	44.0	-240107.0	-5160.0	-409327.0
20	17	37	42	811	48.0	-277365.0	-5324.0	-287274.0
20	17	37	42	812	49.0	-286037.0	-5379.0	-237630.0
20	17	37	42	852	50.0	-293558.0	-5414.0	-194785.0
20	17	37	42	852	70.0	-253987.0	-6699.0	226098.0
20	17	37	42	853	71.0	-252423.0	-6735.0	253665.0
20	17	37	42	854	72.0	-253137.0	-6778.0	304463.0
20	17	37	42	855	73.0	-254608.0	-6819.0	393596.0
20	17	37	42	855	74.0	-251139.0	-6893.0	440201.0
20	17	37	42	856	75.0	-247411.0	-6971.0	452272.0
20	17	37	42	896	76.0	-242869.0	-7017.0	461215.0
20	17	37	42	897	93.0	-174594.0	-7868.0	517756.0
20	17	37	42	898	94.0	-173007.0	-7935.0	538640.0
20	17	37	42	898	95.0	-185088.0	-7958.0	564429.0
20	17	37	42	899	96.0	-180494.0	-8015.0	583969.0
20	17	37	42	900	97.0	-187127.0	-8049.0	580301.0
20	17	37	42	900	98.0	-187676.0	-8068.0	571766.0
20	17	37	42	942	99.0	-191192.0	-8113.0	562984.0
20	17	37	42	943	115.0	-226523.0	-7762.0	697851.0
20	17	37	42	953	116.0	-232330.0	-7731.0	710019.0
20	17	37	42	954	117.0	-237796.0	-7691.0	704241.0
20	17	37	42	955	118.0	-243067.0	-7648.0	698115.0
20	17	37	42	956	119.0	-246619.0	-7568.0	700823.0
20	17	37	42	956	120.0	-247826.0	-7492.0	713056.0
20	17	37	42	957	121.0	-246859.0	-7408.0	730828.0
20	17	37	42	958	122.0	-243332.0	-7325.0	750199.0
20	17	37	42	958	138.0	-201332.0	-5463.0	751633.0
20	17	37	42	959	139.0	-201869.0	-5336.0	749759.0
20	17	37	42	959	140.0	-203066.0	-5216.0	747653.0
20	17	37	42	960	141.0	-203619.0	-5083.0	745521.0
20	17	37	42	960	142.0	-204314.0	-4961.0	743426.0
20	17	37	42	961	143.0	-205039.0	-4860.0	742309.0
20	17	37	42	961	144.0	-204833.0	-4731.0	741704.0
20	17	37	42	962	160.0	-176602.0	-2932.0	706959.0
20	17	37	42	963	161.0	-164471.0	-2829.0	705854.0
20	17	37	42	963	162.0	-153494.0	-2729.0	703059.0
20	17	37	42	964	163.0	-144422.0	-2636.0	699015.0
20	17	37	42	964	164.0	-137160.0	-2519.0	696034.0
20	17	37	42	965	165.0	-131655.0	-2403.0	693692.0
20	17	37	42	966	166.0	-127016.0	-2328.0	690364.0
20	17	37	42	987	167.0	-124687.0	-2241.0	686998.0
20	17	37	42	988	168.0	-125142.0	-2159.0	684078.0
20	17	37	42	988	169.0	-127589.0	-2082.0	682681.0
20	17	37	42	989	170.0	-131394.0	-1986.0	681237.0
20	17	37	42	990	171.0	-136572.0	-1888.0	679411.0
20	17	37	42	990	172.0	-140439.0	-1790.0	678115.0
20	17	37	42	991	173.0	-145151.0	-1702.0	676239.0
20	17	37	43	77	174.0	-148683.0	-1633.0	674478.0
20	17	37	43	78	175.0	-147304.0	-1533.0	672709.0
20	17	37	43	78	176.0	-144344.0	-1474.0	670243.0
20	17	37	43	79	177.0	-139336.0	-1382.0	668343.0
20	17	37	43	80	178.0	-134973.0	-1304.0	666218.0
20	17	37	43	80	179.0	-131731.0	-1214.0	664415.0
20	17	37	43	81	180.0	-128962.0	-1141.0	662550.0
20	17	37	43	122	181.0	-127665.0	-1068.0	660336.0
20	17	37	43	123	182.0	-128045.0	-986.0	657924.0
20	17	37	43	124	183.0	-130094.0	-923.0	656499.0
20	17	37	43	124	184.0	-133559.0	-862.0	656135.0
20	17	37	43	125	185.0	-137316.0	-799.0	656009.0
20	17	37	43	125	186.0	-140728.0	-748.0	654264.0
20	17	37	43	126	187.0	-144124.0	-712.0	652163.0
20	17	37	43	126	188.0	-147031.0	-695.0	650118.0
20	17	37	43	167	189.0	-149607.0	-670.0	648235.0
20	17	37	43	167	228.0	-222234.0	95.0	585156.0
20	17	37	43	168	229.0	-217596.0	84.0	584130.0
20	17	37	43	169	230.0	-212842.0	81.0	584011.0
20	17	37	43	169	231.0	-208329.0	71.0	583549.0
20	17	37	43	170	232.0	-203991.0	54.0	581764.0
20	17	37	43	170	233.0	-199558.0	51.0	578548.0
20	17	37	43	211	234.0	-195637.0	41.0	576246.0
20	17	37	43	235	250.0	-195693.0	-264.0	558094.0
20	17	37	43	236	251.0	-199874.0	-291.0	556669.0
20	17	37	43	236	252.0	-204827.0	-301.0	555814.0
20	17	37	43	237	253.0	-210172.0	-297.0	554399.0
20	17	37	43	237	254.0	-214949.0	-292.0	552396.0
20	17	37	43	238	255.0	-218717.0	-307.0	550406.0
20	17	37	43	259	0.0	-221226.0	-341.0	546734.0
20	17	37	43	259	16.0	-183834.0	-532.0	517945.0
20	17	37	43	260	17.0	-182726.0	-560.0	516913.0
20	17	37	43	260	18.0	-182395.0	-576.0	514675.0
20	17	37	43	261	19.0	-182239.0	-576.0	511237.0
20	17	37	43	262	20.0	-182576.0	-581.0	507255.0
20	17	37	43	262	21.0	-182826.0	-601.0	503219.0
20	17	37	43	263	22.0	-182605.0	-592.0	498825.0
20	17	37	43	263	23.0	-181604.0	-602.0	493805.0
20	17	37	43	264	39.0	-204997.0	-656.0	524179.0
20	17	37	43	264	40.0	-215110.0	-680.0	519697.0
20	17	37	43	265	41.0	-226701.0	-677.0	514166.0
20	17	37	43	265	42.0	-239199.0	-661.0	506873.0
20	17	37	43	266	43.0	-251234.0	-662.0	500005.0
20	17	37	43	267	44.0	-261147.0	-654.0	495264.0
20	17	37	43	267	45.0	-267774.0	-653.0	491889.0
20	17	37	43	268	61.0	-181842.0	-907.0	441406.0
20	17	37	43	268	62.0	-177869.0	-938.0	439937.0
20	17	37	43	269	63.0	-173367.0	-967.0	439323.0
20	17	37	43	270	64.0	-168939.0	-976.0	439365.0
20	17	37	43	270	65.0	-164558.0	-988.0	439415.0
20	17	37	43	271	66.0	-160206.0	-1009.0	439958.0
20	17	37	43	271	67.0	-155818.0	-1024.0	440265.0
20	17	37	43	301	68.0	-152112.0	-1051.0	440059.0
20	17	37	43	302	69.0	-149616.0	-1078.0	440362.0
20	17	37	43	302	70.0	-149028.0	-1091.0	439265.0
20	17	37	43	303	71.0	-149964.0	-1098.0	437060.0
20	17	37	43	303	72.0	-152348.0	-1103.0	435900.0
20	17	37	43	304	73.0	-156729.0	-1112.0	434523.0
20	17	37	43	304	74.0	-161263.0	-1122.0	433076.0
20	17	37	43	346	75.0	-165431.0	-1111.0	433163.0
20	17	37	43	347	76.0	-170219.0	-1111.0	432569.0
20	17	37	43	348	77.0	-175829.0	-1119.0	432505.0
20	17	37	43	348	78.0	-182867.0	-1151.0	431431.0
20	17	37	43	349	79.0	-190832.0	-1157.0	428861.0
20	17	37	43	349	80.0	-198544.0	-1165.0	426369.0
20	17	37	43	350	81.0	-205426.0	-1170.0	424843.0
20	17	37	43	350	82.0	-211713.0	-1194.0	423283.0
20	17	37	43	437	84.0	-221589.0	-1203.0	419909.0
20	17	37	43	438	85.0	-224909.0	-1198.0	418701.0
20	17	37	43	439	86.0	-227244.0	-1232.0	417826.0
20	17	37	43	440	87.0	-227242.0	-1239.0	415604.0
20	17	37	43	441	88.0	-225695.0	-1262.0	413299.0
20	17	37	43	441	89.0	-223190.0	-1274.0	411270.0
20	17	37	43	442	90.0	-219449.0	-1292.0	409168.0
20	17	37	43	442	91.0	-214991.0	-1293.0	407529.0
20	17	37	43	443	106.0	-141708.0	-1591.0	385009.0
20	17	37	43	444	107.0	-139486.0	-1607.0	383854.0
20	17	37	43	444	108.0	-138438.0	-1605.0	383155.0
20	17	37	43	445	109.0	-138520.0	-1636.0	381473.0
20	17	37	43	445	110.0	-139530.0	-1649.0	379637.0
20	17	37	43	446	111.0	-141930.0	-1686.0	377944.0
20	17	37	43	447	112.0	-145286.0	-1719.0	375870.0
20	17	37	43	447	151.0	-187884.0	-2452.0	325548.0
20	17	37	43	448	152.0	-187653.0	-2471.0	324528.0
20	17	37	43	448	153.0	-188364.0	-2460.0	324022.0
20	17	37	43	449	154.0	-190006.0	-2451.0	324609.0
20	17	37	43	450	155.0	-192091.0	-2474.0	324748.0
20	17	37	43	450	156.0	-194084.0	-2482.0	324744.0
20	17	37	43	572	157.0	-196319.0	-2483.0	324372.0
20	17	37	43	573	158.0	-198339.0	-2476.0	324824.0
20	17	37	43	574	159.0	-200139.0	-2504.0	324056.0
20	17	37	43	575	160.0	-201392.0	-2522.0	323889.0
20	17	37	43	576	161.0	-202719.0	-2511.0	322955.0
20	17	37	43	576	162.0	-204049.0	-2477.0	322024.0
20	17	37	43	577	163.0	-204674.0	-2447.0	323073.0
20	17	37	43	578	164.0	-205009.0	-2421.0	323959.0
20	17	37	43	616	165.0	-204699.0	-2377.0	323172.0
20	17	37	43	617	166.0	-203754.0	-2365.0	321170.0
20	17	37	43	618	167.0	-202517.0	-2329.0	320064.0
20	17	37	43	618	168.0	-201280.0	-2283.0	320413.0
20	17	37	43	619	169.0	-201057.0	-2269.0	319539.0
20	17	37	43	619	170.0	-201855.0	-2224.0	318623.0
20	17	37	43	620	171.0	-203417.0	-2176.0	317625.0
20	17	37	43	621	218.0	-154878.0	478.0	281404.0
20	17	37	43	662	219.0	-150329.0	528.0	280376.0
20	17	37	43	662	220.0	-145299.0	576.0	280469.0
20	17	37	43	663	221.0	-141784.0	606.0	280646.0
20	17	37	43	664	222.0	-140300.0	638.0	279904.0
20	17	37	43	664	223.0	-140599.0	682.0	278386.0
20	17	37	43	665	224.0	-142567.0	722.0	277134.0
20	17	37	43	665	225.0	-145996.0	749.0	275134.0
20	17	37	43	706	241.0	-206960.0	1104.0	265799.0
20	17	37	43	707	242.0	-205872.0	1114.0	264253.0
20	17	37	43	752	243.0	-204432.0	1146.0	262451.0
20	17	37	43	753	244.0	-202556.0	1157.0	261004.0
20	17	37	43	753	245.0	-200433.0	1145.0	258797.0
20	17	37	43	754	246.0	-198382.0	1168.0	257039.0
20	17	37	43	755	247.0	-196186.0	1181.0	254578.0
20	17	37	43	755	248.0	-193999.0	1159.0	252331.0
20	17	37	43	756	7.0	-205124.0	1258.0	238921.0
20	17	37	43	756	8.0	-208138.0	1250.0	238961.0
20	17	37	43	757	9.0	-209706.0	1236.0	238146.0
20	17	37	43	758	10.0	-210204.0	1242.0	236658.0
20	17	37	43	759	11.0	-210057.0	1253.0	235299.0
20	17	37	43	759	12.0	-209356.0	1220.0	234213.0
20	17	37	43	760	13.0	-207662.0	1203.0	233336.0
20	17	37	43	761	14.0	-205646.0	1175.0	232293.0
20	17	37	43	761	30.0	-207010.0	1111.0	208513.0
20	17	37	43	762	31.0	-214632.0	1119.0	206703.0
20	17	37	43	762	52.0	-212194.0	1046.0	192495.0
20	17	37	43	763	53.0	-209404.0	1046.0	190718.0
20	17	37	43	764	54.0	-206109.0	1039.0	189319.0
20	17	37	43	765	55.0	-202982.0	1041.0	188845.0
20	17	37	43	765	56.0	-200383.0	1055.0	188258.0
20	17	37	43	766	57.0	-198229.0	1076.0	187528.0
20	17	37	43	766	58.0	-196146.0	1080.0	186102.0
20	17	37	43	842	59.0	-194195.0	1063.0	184847.0
20	17	37	43	843	60.0	-192935.0	1074.0	184162.0
20	17	37	43	844	61.0	-191919.0	1084.0	183209.0
20	17	37	43	844	62.0	-191241.0	1066.0	181613.0
20	17	37	43	845	63.0	-190527.0	1083.0	179938.0
20	17	37	43	845	64.0	-189754.0	1100.0	178606.0
20	17	37	43	887	65.0	-189181.0	1101.0	177923.0
20	17	37	43	887	66.0	-188457.0	1134.0	177334.0
20	17	37	43	888	67.0	-187472.0	1150.0	176668.0
20	17	37	43	889	68.0	-186616.0	1164.0	177119.0
20	17	37	43	889	69.0	-185798.0	1182.0	177302.0
20	17	37	43	890	70.0	-185077.0	1163.0	177490.0
20	17	37	43	890	71.0	-184954.0	1154.0	177281.0
20	17	37	43	932	72.0	-184715.0	1159.0	176124.0
20	17	37	43	933	73.0	-184243.0	1143.0	174731.0
20	17	37	43	934	97.0	-207549.0	1073.0	152425.0
20	17	37	43	934	98.0	-205746.0	1054.0	151451.0
20	17	37	43	935	99.0	-203328.0	1042.0	149758.0
20	17	37	43	936	100.0	-200861.0	1041.0	147050.0
20	17	37	43	936	101.0	-198265.0	1033.0	144013.0
20	17	37	43	937	102.0	-195693.0	1038.0	140524.0
20	17	37	43	977	103.0	-193829.0	1026.0	138313.0
20	17	37	43	979	120.0	-206780.0	829.0	159681.0
20	17	37	43	979	121.0	-208813.0	818.0	164310.0
20	17	37	43	980	122.0	-210362.0	798.0	163673.0
20	17	37	43	981	123.0	-211448.0	781.0	160678.0
20	17	37	43	981	124.0	-211924.0	752.0	155519.0
20	17	37	43	982	125.0	-212543.0	758.0	150252.0
20	17	37	43	983	126.0	-212244.0	753.0	145609.0
20	17	37	43	983	142.0	-219024.0	384.0	106064.0
20	17	37	43	984	143.0	-221237.0	336.0	103441.0
20	17	37	43	985	144.0	-222221.0	322.0	100288.0
20	17	37	43	985	145.0	-221639.0	292.0	97351.0
20	17	37	43	986	146.0	-219591.0	281.0	94767.0
20	17	37	43	986	147.0	-216522.0	266.0	93799.0
20	17	37	43	987	148.0	-212766.0	261.0	91731.0
20	17	37	43	988	164.0	-198873.0	-237.0	76492.0
20	17	37	43	988	165.0	-203651.0	-263.0	76073.0
20	17	37	43	989	166.0	-207644.0	-289.0	75648.0
20	17	37	43	990	167.0	-210071.0	-309.0	74195.0
20	17	37	43	990	168.0	-210646.0	-329.0	72880.0
20	17	37	43	991	169.0	-209692.0	-368.0	72088.0
20	17	37	43	991	170.0	-207537.0	-404.0	71098.0
20	17	37	44	22	171.0	-204386.0	-434.0	69131.0
20	17	37	44	67	172.0	-200926.0	-462.0	67039.0
20	17	37	44	68	173.0	-198221.0	-484.0	66444.0
20	17	37	44	68	174.0	-196286.0	-511.0	65746.0
20	17	37	44	69	175.0	-194774.0	-526.0	65302.0
20	17	37	44	70	176.0	-193591.0	-535.0	64916.0
20	17	37	44	70	177.0	-194039.0	-556.0	63870.0
20	17	37	44	71	178.0	-195706.0	-572.0	62759.0
20	17	37	44	72	179.0	-198927.0	-602.0	61151.0
20	17	37	44	72	180.0	-203098.0	-610.0	59654.0
20	17	37	44	73	181.0	-201699.0	-625.0	58473.0
20	17	37	44	73	182.0	-199071.0	-664.0	56893.0
20	17	37	44	74	183.0	-198982.0	-677.0	56376.0
20	17	37	44	75	184.0	-199197.0	-696.0	56631.0
20	17	37	44	75	185.0	-197849.0	-712.0	56954.0
20	17	37	44	76	187.0	-196914.0	-730.0	51825.0
20	17	37	44	76	188.0	-193625.0	-760.0	50577.0
20	17	37	44	77	210.0	-212854.0	-990.0	14899.0
20	17	37	44	78	211.0	-207851.0	-1003.0	13239.0
20	17	37	44	78	212.0	-203541.0	-1012.0	11164.0
20	17	37	44	79	213.0	-203285.0	-1038.0	8626.0
20	17	37	44	79	214.0	-203726.0	-1036.0	5937.0
20	17	37	44	80	215.0	-211637.0	-1027.0	2626.0
20	17	37	44	118	216.0	-226547.0	-1037.0	610.0
20	17	37	44	119	217.0	-209087.0	-1031.0	464.0
20	17	37	44	119	218.0	-197354.0	-1029.0	601.0
20	17	37	44	123	219.0	-180111.0	-1039.0	652.0
20	17	37	44	124	220.0	-173312.0	-1031.0	105.0
20	17	37	44	124	221.0	-167212.0	-1052.0	-922.0
20	17	37	44	125	222.0	-172333.0	-1064.0	-2807.0
20	17	37	44	126	223.0	-174562.0	-1082.0	-4000.0
20	17	37	44	126	224.0	-174815.0	-1104.0	-4235.0
20	17	37	44	202	225.0	-178236.0	-1111.0	-3465.0
20	17	37	44	202	226.0	-182118.0	-1099.0	-931.0
20	17	37	44	203	227.0	-176779.0	-1092.0	-326.0
20	17	37	44	204	228.0	-178299.0	-1096.0	-157.0
20	17	37	44	204	229.0	-181066.0	-1089.0	-778.0
20	17	37	44	205	230.0	-180109.0	-1077.0	-831.0
20	17	37	44	206	232.0	-182087.0	-1044.0	-307.0
20	17	37	44	206	233.0	-178611.0	-1006.0	1064.0
20	17	37	44	247	234.0	-172434.0	-979.0	1927.0
20	17	37	44	247	235.0	-172922.0	-952.0	3312.0
20	17	37	44	248	236.0	-170626.0	-900.0	5184.0
20	17	37	44	249	237.0	-164731.0	-861.0	5853.0
20	17	37	44	249	238.0	-166777.0	-808.0	5572.0
20	17	37	44	250	239.0	-169134.0	-759.0	5611.0
20	17	37	44	251	240.0	-163912.0	-699.0	6418.0
20	17	37	44	251	241.0	-160726.0	-636.0	6428.0
20	17	37	44	252	21.0	-219761.0	2504.0	-21327.0
20	17	37	44	252	22.0	-138171.0	2590.0	-21695.0
20	17	37	44	253	23.0	-148992.0	2699.0	-24176.0
20	17	37	44	254	24.0	-174849.0	2789.0	-25029.0
20	17	37	44	254	25.0	-121419.0	2845.0	-25331.0
20	17	37	44	255	26.0	-144686.0	2906.0	-26606.0
20	17	37	44	256	27.0	-124740.0	2964.0	-26564.0
20	17	37	44	257	43.0	-173963.0	3849.0	-35566.0
20	17	37	44	258	44.0	-180156.0	3907.0	-37707.0
20	17	37	44	259	45.0	-187869.0	3966.0	-39882.0
20	17	37	44	260	46.0	-196549.0	4020.0	-42664.0
20	17	37	44	260	47.0	-205792.0	4066.0	-43637.0
20	17	37	44	261	48.0	-214084.0	4117.0	-43945.0
20	17	37	44	261	49.0	-218826.0	4173.0	-44303.0
20	17	37	44	291	50.0	-225450.0	4229.0	-45659.0
20	17	37	44	310	51.0	-226548.0	4279.0	-47248.0
20	17	37	44	311	52.0	-226259.0	4323.0	-48536.0
20	17	37	44	311	53.0	-224646.0	4361.0	-50002.0
20	17	37	44	312	54.0	-221074.0	4412.0	-50962.0
20	17	37	44	313	55.0	-215544.0	4468.0	-52690.0
20	17	37	44	313	56.0	-209908.0	4519.0	-54202.0
20	17	37	44	314	57.0	-202474.0	4555.0	-55274.0
20	17	37	44	315	58.0	-195555.0	4618.0	-56367.0
20	17	37	44	315	59.0	-190058.0	4663.0	-57184.0
20	17	37	44	316	60.0	-185919.0	4711.0	-56935.0
20	17	37	44	316	61.0	-183731.0	4758.0	-56891.0
20	17	37	44	317	62.0	-180988.0	4806.0	-56034.0
20	17	37	44	317	63.0	-179571.0	4838.0	-56961.0
20	17	37	44	318	64.0	-180819.0	4861.0	-58439.0
20	17	37	44	319	66.0	-187871.0	4886.0	-60172.0
20	17	37	44	319	67.0	-191065.0	4923.0	-60454.0
20	17	37	44	320	68.0	-195513.0	4967.0	-61082.0
20	17	37	44	320	69.0	-204484.0	4971.0	-61724.0
20	17	37	44	321	70.0	-214237.0	4974.0	-62307.0
20	17	37	44	321	71.0	-220219.0	4979.0	-63164.0
20	17	37	44	339	72.0	-212653.0	5015.0	-63896.0
20	17	37	44	339	73.0	-214711.0	5056.0	-63981.0
20	17	37	44	340	74.0	-246467.0	5059.0	-63412.0
20	17	37	44	341	75.0	-253717.0	5049.0	-63642.0
20	17	37	44	341	76.0	-238928.0	5058.0	-63675.0
20	17	37	44	342	77.0	-224941.0	5080.0	-64302.0
20	17	37	44	343	78.0	-251481.0	5094.0	-64812.0
20	17	37	44	381	79.0	-252566.0	5131.0	-64797.0
20	17	37	44	382	80.0	-244240.0	5164.0	-63587.0
20	17	37	44	383	81.0	-222856.0	5169.0	-62848.0
20	17	37	44	383	82.0	-239217.0	5189.0	-62887.0
20	17	37	44	427	83.0	-245051.0	5194.0	-62939.0
20	17	37	44	428	84.0	-240242.0	5203.0	-61200.0
20	17	37	44	428	85.0	-217828.0	5209.0	-60339.0
20	17	37	44	429	86.0	-221328.0	5227.0	-60991.0
20	17	37	44	429	88.0	-236749.0	5265.0	-61427.0
20	17	37	44	430	89.0	-221501.0	5293.0	-60809.0
20	17	37	44	431	90.0	-211312.0	5331.0	-59601.0
20	17	37	44	471	91.0	-232294.0	5324.0	-58116.0
20	17	37	44	472	92.0	-232361.0	5308.0	-57073.0
20	17	37	44	472	93.0	-236592.0	5318.0	-56154.0
20	17	37	44	473	94.0	-258503.0	5314.0	-55974.0
20	17	37	44	516	95.0	-286969.0	5321.0	-56353.0
20	17	37	44	517	111.0	-161989.0	5191.0	-65622.0
20	17	37	44	518	112.0	-168902.0	5186.0	-66004.0
20	17	37	44	518	113.0	-188262.0	5179.0	-66744.0
20	17	37	44	519	114.0	-200886.0	5157.0	-67918.0
20	17	37	44	520	133.0	-227248.0	4709.0	-78414.0
20	17	37	44	520	134.0	-209454.0	4686.0	-79006.0
20	17	37	44	521	135.0	-222516.0	4653.0	-81477.0
20	17	37	44	521	136.0	-221241.0	4633.0	-83530.0
20	17	37	44	522	137.0	-224029.0	4606.0	-84904.0
20	17	37	44	523	138.0	-200771.0	4596.0	-85566.0
20	17	37	44	523	139.0	-198791.0	4593.0	-86117.0
20	17	37	44	524	156.0	-221091.0	4363.0	-96575.0
20	17	37	44	525	157.0	-198459.0	4361.0	-95397.0
20	17	37	44	525	158.0	-203490.0	4383.0	-94353.0
20	17	37	44	526	159.0	-214708.0	4339.0	-94774.0
20	17	37	44	526	178.0	-190389.0	4038.0	-104014.0
20	17	37	44	562	179.0	-198226.0	4016.0	-104162.0
20	17	37	44	562	180.0	-190724.0	3991.0	-103906.0
20	17	37	44	563	181.0	-175334.0	3971.0	-104628.0
20	17	37	44	564	182.0	-191729.0	3948.0	-106416.0
20	17	37	44	564	183.0	-197302.0	3932.0	-107736.0
20	17	37	44	565	184.0	-204251.0	3896.0	-108420.0
20	17	37	44	566	185.0	-185122.0	3868.0	-109172.0
20	17	37	44	567	186.0	-181996.0	3840.0	-109868.0
20	17	37	44	567	187.0	-196012.0	3824.0	-110384.0
20	17	37	44	568	188.0	-198476.0	3816.0	-111417.0
20	17	37	44	569	189.0	-195717.0	3801.0	-113284.0
20	17	37	44	569	190.0	-172777.0	3781.0	-115048.0
20	17	37	44	570	191.0	-185864.0	3761.0	-115894.0
20	17	37	44	571	192.0	-190576.0	3728.0	-116329.0
20	17	37	44	571	193.0	-195269.0	3698.0	-116656.0
20	17	37	44	572	194.0	-176064.0	3647.0	-117366.0
20	17	37	44	573	201.0	-188056.0	3386.0	-122134.0
20	17	37	44	573	202.0	-190503.0	3337.0	-125682.0
20	17	37	44	574	203.0	-167385.0	3278.0	-129994.0
20	17	37	44	574	204.0	-178475.0	3234.0	-136199.0
20	17	37	44	575	205.0	-185401.0	3166.0	-141538.0
20	17	37	44	576	206.0	-187117.0	3139.0	-146924.0
20	17	37	44	607	207.0	-168472.0	3095.0	-151024.0
20	17	37	44	608	208.0	-170334.0	3050.0	-154632.0
20	17	37	44	608	209.0	-185362.0	3216.0	-157882.0
20	17	37	44	609	210.0	-184224.0	3098.0	-161073.0
20	17	37	44	609	211.0	-170947.0	2793.0	-162183.0
20	17	37	44	610	212.0	-168847.0	2738.0	-161597.0
20	17	37	44	610	213.0	-189224.0	2631.0	-158631.0
20	17	37	44	651	214.0	-188990.0	2683.0	-150705.0
20	17	37	44	652	215.0	-180028.0	2614.0	-139474.0
20	17	37	44	652	216.0	-181635.0	3531.0	-125134.0
20	17	37	44	653	217.0	-205555.0	4329.0	-109726.0
20	17	37	44	654	218.0	-204136.0	-331.0	-97459.0
20	17	37	44	654	219.0	-195371.0	-2052.0	-92977.0
20	17	37	44	655	220.0	-203026.0	-2506.0	-93927.0
20	17	37	44	655	221.0	-225462.0	-2162.0	-98263.0
20	17	37	44	656	223.0	-209424.0	-1741.0	-108509.0
20	17	37	44	657	224.0	-221940.0	-1512.0	-112359.0
20	17	37	44	657	225.0	-230464.0	-1710.0	-116896.0
20	17	37	44	658	226.0	-211500.0	-1558.0	-121131.0
20	17	37	44	659	227.0	-188153.0	-2880.0	-123611.0
20	17	37	44	659	228.0	-197799.0	-1552.0	-126196.0
20	17	37	44	660	229.0	-189358.0	-386.0	-129311.0
20	17	37	44	660	230.0	-166279.0	-447.0	-132248.0
20	17	37	44	661	246.0	-197163.0	-992.0	-148394.0
20	17	37	44	662	247.0	-219139.0	-562.0	-149311.0
20	17	37	44	662	248.0	-204739.0	156.0	-148924.0
20	17	37	44	663	249.0	-186802.0	4.0	-149053.0
20	17	37	44	664	250.0	-196977.0	90.0	-149149.0
20	17	37	44	664	251.0	-203876.0	16.0	-149259.0
20	17	37	44	697	252.0	-180619.0	-669.0	-149368.0
20	17	37	44	697	253.0	-168207.0	-128.0	-148421.0
20	17	37	44	698	254.0	-185828.0	-909.0	-148967.0
20	17	37	44	699	255.0	-186372.0	-1219.0	-150224.0
20	17	37	44	699	0.0	-167074.0	-270.0	-150563.0
20	17	37	44	741	1.0	-166521.0	-535.0	-151673.0
20	17	37	44	742	2.0	-187832.0	-812.0	-154564.0
20	17	37	44	743	3.0	-180204.0	-786.0	-157211.0
20	17	37	44	743	4.0	-166708.0	-1336.0	-158691.0
20	17	37	44	744	5.0	-176310.0	-2809.0	-158843.0
20	17	37	44	745	6.0	-195882.0	-245.0	-159215.0
20	17	37	44	745	7.0	-183812.0	-72.0	-158717.0
20	17	37	44	786	8.0	-177832.0	-345.0	-157591.0
20	17	37	44	787	9.0	-194441.0	-246.0	-157462.0
20	17	37	44	788	10.0	-205806.0	-152.0	-158261.0
20	17	37	44	789	12.0	-186806.0	-479.0	-159318.0
20	17	37	44	790	13.0	-202815.0	-488.0	-160712.0
20	17	37	44	790	14.0	-203123.0	-490.0	-161855.0
20	17	37	44	791	15.0	-185448.0	-25.0	-162450.0
20	17	37	44	831	16.0	-186385.0	-809.0	-163251.0
20	17	37	44	832	17.0	-204989.0	-1738.0	-163975.0
20	17	37	44	832	35.0	-193483.0	241.0	-167457.0
20	17	37	44	833	36.0	-217782.0	223.0	-166645.0
20	17	37	44	834	37.0	-228086.0	181.0	-165546.0
20	17	37	44	834	38.0	-218610.0	148.0	-165429.0
20	17	37	44	835	39.0	-204718.0	125.0	-164697.0
20	17	37	44	877	40.0	-227744.0	123.0	-163818.0
20	17	37	44	878	41.0	-240471.0	91.0	-163477.0
20	17	37	44	879	57.0	-201381.0	-433.0	-154377.0
20	17	37	44	879	58.0	-213632.0	-472.0	-154752.0
20	17	37	44	880	59.0	-213854.0	-472.0	-154896.0
20	17	37	44	880	60.0	-190408.0	-499.0	-154509.0
20	17	37	44	881	61.0	-179544.0	-528.0	-153327.0
20	17	37	44	882	62.0	-203881.0	-539.0	-152127.0
20	17	37	44	922	79.0	-182132.0	-582.0	-141167.0
20	17	37	44	923	80.0	-210240.0	-577.0	-142334.0
20	17	37	44	924	81.0	-215243.0	-562.0	-142764.0
20	17	37	44	925	82.0	-205492.0	-542.0	-142774.0
20	17	37	44	925	83.0	-179429.0	-509.0	-142637.0
20	17	37	44	926	84.0	-197907.0	-461.0	-142707.0
20	17	37	44	927	85.0	-212147.0	-435.0	-143255.0
20	17	37	44	927	86.0	-209532.0	-384.0	-143188.0
20	17	37	44	966	102.0	-186422.0	620.0	-149489.0
20	17	37	44	967	103.0	-187227.0	718.0	-148789.0
20	17	37	44	968	104.0	-183096.0	778.0	-147999.0
20	17	37	44	969	105.0	-178757.0	841.0	-148026.0
20	17	37	44	969	106.0	-179486.0	923.0	-148009.0
20	17	37	44	970	107.0	-184353.0	995.0	-148798.0
20	17	37	44	970	108.0	-187031.0	1080.0	-149341.0
20	17	37	45	12	124.0	-158887.0	2147.0	-154411.0
20	17	37	45	13	125.0	-158808.0	2198.0	-155847.0
20	17	37	45	13	126.0	-164415.0	2258.0	-156216.0
20	17	37	45	14	127.0	-176318.0	2294.0	-158024.0
20	17	37	45	15	128.0	-188301.0	2343.0	-159954.0
20	17	37	45	15	129.0	-199783.0	2364.0	-160727.0
20	17	37	45	16	130.0	-209351.0	2408.0	-159966.0
20	17	37	45	17	131.0	-215189.0	2451.0	-158992.0
20	17	37	45	18	147.0	-227085.0	2863.0	-170071.0
20	17	37	45	18	148.0	-227527.0	2850.0	-169760.0
20	17	37	45	19	149.0	-231933.0	2861.0	-170347.0
20	17	37	45	20	150.0	-210384.0	2869.0	-170827.0
20	17	37	45	20	151.0	-179601.0	2887.0	-171137.0
20	17	37	45	21	152.0	-197732.0	2888.0	-172433.0
20	17	37	45	22	153.0	-198004.0	2879.0	-172895.0
20	17	37	45	22	154.0	-205527.0	2879.0	-173153.0
20	17	37	45	23	169.0	-219572.0	2314.0	-179836.0
20	17	37	45	24	170.0	-227017.0	2251.0	-180497.0
20	17	37	45	24	171.0	-215517.0	2187.0	-180094.0
20	17	37	45	25	172.0	-194204.0	2131.0	-178744.0
20	17	37	45	26	173.0	-191057.0	2083.0	-177699.0
20	17	37	45	26	174.0	-203216.0	2020.0	-178102.0
20	17	37	45	27	175.0	-205209.0	1946.0	-178566.0
20	17	37	45	57	176.0	-207740.0	1876.0	-180234.0
20	17	37	45	57	177.0	-188657.0	1808.0	-181402.0
20	17	37	45	58	178.0	-175658.0	1736.0	-180707.0
20	17	37	45	59	179.0	-193461.0	1650.0	-180894.0
20	17	37	45	60	180.0	-200127.0	1587.0	-181131.0
20	17	37	45	60	181.0	-208216.0	1511.0	-180928.0
20	17	37	45	61	182.0	-201028.0	1419.0	-181092.0
20	17	37	45	62	183.0	-181571.0	1346.0	-181237.0
20	17	37	45	102	184.0	-180824.0	1284.0	-181847.0
20	17	37	45	103	185.0	-199207.0	1206.0	-182678.0
20	17	37	45	104	186.0	-205872.0	1132.0	-183270.0
20	17	37	45	104	187.0	-208917.0	1038.0	-184343.0
20	17	37	45	105	188.0	-196159.0	959.0	-185741.0
20	17	37	45	106	189.0	-185265.0	882.0	-187272.0
20	17	37	45	106	190.0	-204140.0	798.0	-188514.0
20	17	37	45	107	192.0	-224309.0	623.0	-189228.0
20	17	37	45	146	193.0	-218281.0	546.0	-189533.0
20	17	37	45	147	194.0	-199374.0	471.0	-190209.0
20	17	37	45	148	195.0	-202147.0	404.0	-190822.0
20	17	37	45	149	196.0	-217421.0	289.0	-190831.0
20	17	37	45	149	197.0	-221881.0	191.0	-192552.0
20	17	37	45	150	198.0	-221114.0	-483.0	-194308.0
20	17	37	45	151	199.0	-200197.0	-1571.0	-195560.0
20	17	37	45	193	214.0	-179350.0	-537.0	-201075.0
20	17	37	45	194	215.0	-160704.0	-1126.0	-199724.0
20	17	37	45	194	216.0	-173556.0	-333.0	-199334.0
20	17	37	45	195	217.0	-186594.0	-934.0	-200258.0
20	17	37	45	196	218.0	-194055.0	-1152.0	-201075.0
20	17	37	45	196	219.0	-183698.0	-1228.0	-201218.0
20	17	37	45	197	220.0	-166848.0	-1282.0	-201339.0
20	17	37	45	197	221.0	-183713.0	-1337.0	-201305.0
20	17	37	45	198	236.0	-211711.0	-7755.0	-199747.0
20	17	37	45	198	237.0	-217611.0	-7720.0	-200501.0
20	17	37	45	199	238.0	-196244.0	-9653.0	-202052.0
20	17	37	45	200	239.0	-199719.0	-12057.0	-203492.0
20	17	37	45	200	240.0	-222080.0	-12189.0	-204439.0
20	17	37	45	201	241.0	-226409.0	-8069.0	-204627.0
20	17	37	45	201	242.0	-215694.0	-7759.0	-205737.0
20	17	37	45	202	243.0	-197408.0	-8974.0	-206936.0
20	17	37	45	202	3.0	-225470.0	-16894.0	-221529.0
20	17	37	45	203	4.0	-214854.0	-16412.0	-221936.0
20	17	37	45	204	5.0	-239876.0	-15637.0	-222204.0
20	17	37	45	204	6.0	-236348.0	-13262.0	-221689.0
20	17	37	45	205	7.0	-222627.0	-11714.0	-221470.0
20	17	37	45	205	8.0	-209750.0	-12330.0	-221997.0
20	17	37	45	206	9.0	-234761.0	-13982.0	-222854.0
20	17	37	45	236	10.0	-231141.0	-9490.0	-222919.0
20	17	37	45	237	11.0	-217122.0	-8368.0	-223104.0
20	17	37	45	237	12.0	-204720.0	-4867.0	-222770.0
20	17	37	45	238	13.0	-228896.0	-2954.0	-222628.0
20	17	37	45	238	14.0	-222871.0	-3353.0	-222293.0
20	17	37	45	239	15.0	-207462.0	-3304.0	-221936.0
20	17	37	45	240	16.0	-200904.0	-3327.0	-222601.0
20	17	37	45	281	17.0	-226871.0	-3374.0	-224304.0
20	17	37	45	282	18.0	-216147.0	-3387.0	-225451.0
20	17	37	45	283	19.0	-197724.0	-3437.0	-225829.0
20	17	37	45	283	20.0	-195904.0	-3496.0	-225045.0
20	17	37	45	284	21.0	-213319.0	-3518.0	-224329.0
20	17	37	45	284	22.0	-188152.0	-3532.0	-224924.0
20	17	37	45	285	23.0	-173162.0	-3549.0	-226054.0
20	17	37	45	286	24.0	-184113.0	-3574.0	-226831.0
20	17	37	45	286	25.0	-183202.0	-3579.0	-227036.0
20	17	37	45	287	26.0	-154186.0	-3588.0	-227067.0
20	17	37	45	287	27.0	-167909.0	-3612.0	-226722.0
20	17	37	45	288	28.0	-182247.0	-3676.0	-226289.0
20	17	37	45	289	29.0	-155174.0	-3719.0	-227032.0
20	17	37	45	289	30.0	-152897.0	-3760.0	-228374.0
20	17	37	45	290	31.0	-175051.0	-3808.0	-229512.0
20	17	37	45	290	32.0	-158810.0	-3837.0	-231236.0
20	17	37	45	291	48.0	-213469.0	-4380.0	-235231.0
20	17	37	45	291	49.0	-218136.0	-4414.0	-235684.0
20	17	37	45	292	50.0	-212044.0	-4462.0	-235716.0
20	17	37	45	293	51.0	-216577.0	-4515.0	-235441.0
20	17	37	45	293	52.0	-223132.0	-4564.0	-235487.0
20	17	37	45	294	53.0	-224297.0	-4592.0	-235756.0
20	17	37	45	294	54.0	-221349.0	-4632.0	-236526.0
20	17	37	45	326	55.0	-224154.0	-4659.0	-237101.0
20	17	37	45	327	56.0	-227569.0	-4671.0	-237328.0
20	17	37	45	328	57.0	-228124.0	-4707.0	-238902.0
20	17	37	45	328	58.0	-224495.0	-4759.0	-242115.0
20	17	37	45	329	59.0	-225352.0	-4804.0	-245699.0
20	17	37	45	329	60.0	-225652.0	-4854.0	-250073.0
20	17	37	45	330	61.0	-227492.0	-4904.0	-254945.0
20	17	37	45	331	62.0	-224404.0	-4953.0	-261275.0
20	17	37	45	373	63.0	-222875.0	-5006.0	-267092.0
20	17	37	45	373	64.0	-219809.0	-5074.0	-272282.0
20	17	37	45	374	65.0	-217628.0	-5142.0	-278057.0
20	17	37	45	374	66.0	-214093.0	-5126.0	-283749.0
20	17	37	45	375	67.0	-212231.0	-5179.0	-286237.0
20	17	37	45	376	68.0	-209304.0	-5237.0	-287344.0
20	17	37	45	376	69.0	-207259.0	-5246.0	-283944.0
20	17	37	45	417	70.0	-206526.0	-5263.0	-276116.0
20	17	37	45	418	71.0	-206417.0	-5342.0	-264514.0
20	17	37	45	418	72.0	-206862.0	-5365.0	-249101.0
20	17	37	45	419	73.0	-207827.0	-5385.0	-229606.0
20	17	37	45	420	74.0	-209009.0	-5456.0	-218093.0
20	17	37	45	420	75.0	-210111.0	-6212.0	-215374.0
20	17	37	45	421	76.0	-212804.0	-6738.0	-215823.0
20	17	37	45	421	77.0	-217105.0	-6276.0	-218082.0
20	17	37	45	508	93.0	-203119.0	-5841.0	-247159.0
20	17	37	45	509	94.0	-206152.0	-5869.0	-247055.0
20	17	37	45	510	95.0	-208389.0	-5868.0	-247419.0
20	17	37	45	510	96.0	-211337.0	-5864.0	-247992.0
20	17	37	45	511	97.0	-215062.0	-5892.0	-247591.0
20	17	37	45	511	98.0	-218507.0	-5907.0	-247280.0
20	17	37	45	512	99.0	-221034.0	-5917.0	-247171.0
20	17	37	45	513	100.0	-222819.0	-5926.0	-247222.0
20	17	37	45	513	116.0	-182822.0	-6224.0	-245974.0
20	17	37	45	514	117.0	-182531.0	-6248.0	-247332.0
20	17	37	45	514	118.0	-183775.0	-6259.0	-248901.0
20	17	37	45	515	119.0	-185382.0	-6283.0	-250139.0
20	17	37	45	515	120.0	-187612.0	-6323.0	-251067.0
20	17	37	45	516	121.0	-189572.0	-6327.0	-251595.0
20	17	37	45	516	122.0	-190443.0	-6358.0	-252346.0
20	17	37	45	517	160.0	-215655.0	-7236.0	-285192.0
20	17	37	45	551	161.0	-215501.0	-7257.0	-286675.0
20	17	37	45	552	162.0	-214340.0	-7276.0	-287380.0
20	17	37	45	552	163.0	-213008.0	-7284.0	-288187.0
20	17	37	45	553	164.0	-211475.0	-7273.0	-289881.0
20	17	37	45	554	165.0	-209644.0	-7277.0	-290555.0
20	17	37	45	554	166.0	-208120.0	-7287.0	-289343.0
20	17	37	45	555	167.0	-206572.0	-7294.0	-288731.0
20	17	37	45	556	168.0	-205436.0	-7289.0	-289227.0
20	17	37	45	597	169.0	-204781.0	-7291.0	-289925.0
20	17	37	45	597	170.0	-203375.0	-7312.0	-290384.0
20	17	37	45	598	171.0	-202341.0	-7322.0	-291022.0
20	17	37	45	598	172.0	-201346.0	-7339.0	-289870.0
20	17	37	45	599	173.0	-199921.0	-7370.0	-287578.0
20	17	37	45	600	174.0	-198487.0	-7367.0	-286132.0
20	17	37	45	641	175.0	-196239.0	-7372.0	-285257.0
20	17	37	45	642	183.0	-198910.0	-7369.0	-282102.0
20	17	37	45	732	184.0	-204882.0	-7368.0	-282041.0
20	17	37	45	732	185.0	-209929.0	-7363.0	-281798.0
20	17	37	45	733	186.0	-214443.0	-7328.0	-281639.0
20	17	37	45	734	187.0	-218467.0	-7307.0	-281208.0
20	17	37	45	734	188.0	-221737.0	-7292.0	-281545.0
20	17	37	45	735	189.0	-223696.0	-7259.0	-282474.0
20	17	37	45	736	205.0	-188986.0	-6693.0	-277906.0
20	17	37	45	736	206.0	-186806.0	-6651.0	-278558.0
20	17	37	45	776	207.0	-185002.0	-6597.0	-278896.0
20	17	37	45	777	208.0	-184026.0	-6539.0	-278855.0
20	17	37	45	778	209.0	-184512.0	-6496.0	-279087.0
20	17	37	45	778	210.0	-185534.0	-6431.0	-279136.0
20	17	37	45	779	211.0	-187652.0	-6381.0	-279341.0
20	17	37	45	780	212.0	-190257.0	-6317.0	-278992.0
20	17	37	45	781	228.0	-199371.0	-5182.0	-280921.0
20	17	37	45	868	250.0	-203631.0	-4052.0	-282234.0
20	17	37	45	869	17.0	-223489.0	-10781.0	-287428.0
20	17	37	45	870	18.0	-228974.0	-3485.0	-287734.0
20	17	37	45	870	19.0	-233342.0	-3264.0	-288212.0
20	17	37	45	871	20.0	-236596.0	-3089.0	-288969.0
20	17	37	45	872	21.0	-239995.0	-3046.0	-289787.0
20	17	37	45	872	22.0	-241830.0	-3025.0	-289930.0
20	17	37	45	912	23.0	-243609.0	-2964.0	-290185.0
20	17	37	45	913	39.0	-236147.0	-3016.0	-289876.0
20	17	37	45	914	40.0	-237010.0	-2311.0	-290149.0
20	17	37	45	915	41.0	-237409.0	-2676.0	-290689.0
20	17	37	45	916	42.0	-237171.0	-3419.0	-291256.0
20	17	37	45	916	43.0	-236721.0	-7689.0	-291358.0
20	17	37	45	917	44.0	-235032.0	-7304.0	-291957.0
20	17	37	45	957	45.0	-232320.0	-6622.0	-293154.0
20	17	37	45	958	46.0	-229567.0	-7281.0	-293357.0
20	17	37	45	959	84.0	-223397.0	-30483.0	-307379.0
20	17	37	45	959	85.0	-225189.0	-36001.0	-308768.0
20	17	37	45	960	86.0	-227387.0	-40685.0	-309974.0
20	17	37	45	961	87.0	-230207.0	-45547.0	-309873.0
20	17	37	45	961	88.0	-232139.0	-50796.0	-309126.0
20	17	37	46	17	89.0	-232619.0	-56004.0	-309306.0
20	17	37	46	33	90.0	-231487.0	-60090.0	-309781.0
20	17	37	46	34	107.0	-217684.0	-2409.0	-308779.0
20	17	37	46	35	108.0	-219090.0	-2431.0	-308789.0
20	17	37	46	36	109.0	-219257.0	-640.0	-309008.0
20	17	37	46	37	110.0	-218125.0	-2248.0	-309487.0
20	17	37	46	37	111.0	-218232.0	-4629.0	-309611.0
20	17	37	46	38	112.0	-216917.0	-8383.0	-309561.0
20	17	37	46	38	113.0	-217671.0	-10366.0	-310137.0
20	17	37	46	58	129.0	-224364.0	-69396.0	-318541.0
20	17	37	46	59	130.0	-220229.0	-75246.0	-319487.0
20	17	37	46	60	131.0	-218821.0	-63484.0	-318986.0
20	17	37	46	60	132.0	-219332.0	-13296.0	-319019.0
20	17	37	46	61	133.0	-221099.0	-2251.0	-319728.0
20	17	37	46	61	134.0	-205287.0	-2245.0	-321049.0
20	17	37	46	62	135.0	-201666.0	-2281.0	-321254.0
20	17	37	46	63	166.0	-211411.0	-4496.0	-331319.0
20	17	37	46	63	167.0	-214531.0	-4564.0	-331403.0
20	17	37	46	64	168.0	-218853.0	-4622.0	-330991.0
20	17	37	46	64	169.0	-223040.0	-4696.0	-331104.0
20	17	37	46	65	170.0	-227520.0	-4761.0	-331203.0
20	17	37	46	66	171.0	-229772.0	-4820.0	-332270.0
20	17	37	46	66	172.0	-233935.0	-4896.0	-334817.0
20	17	37	46	81	173.0	-237140.0	-4969.0	-339207.0
20	17	37	46	82	174.0	-238512.0	-5062.0	-343087.0
20	17	37	46	82	175.0	-238321.0	-5106.0	-346120.0
20	17	37	46	83	176.0	-238043.0	-5166.0	-349849.0
20	17	37	46	84	177.0	-233185.0	-5227.0	-355463.0
20	17	37	46	84	178.0	-236169.0	-5296.0	-360795.0
20	17	37	46	85	179.0	-234731.0	-5366.0	-367185.0
20	17	37	46	104	180.0	-227301.0	-5436.0	-372906.0
20	17	37	46	105	181.0	-223564.0	-5508.0	-375619.0
20	17	37	46	106	182.0	-221240.0	-5611.0	-375162.0
20	17	37	46	106	183.0	-220649.0	-5706.0	-373035.0
20	17	37	46	107	184.0	-219212.0	-5768.0	-368288.0
20	17	37	46	108	185.0	-220472.0	-5831.0	-358998.0
20	17	37	46	108	186.0	-221085.0	-5908.0	-345689.0
20	17	37	46	109	187.0	-221707.0	-5997.0	-332372.0
20	17	37	46	109	188.0	-223600.0	-6081.0	-316941.0
20	17	37	46	110	189.0	-225666.0	-6165.0	-307377.0
20	17	37	46	111	190.0	-226339.0	-6251.0	-305868.0
20	17	37	46	134	191.0	-230382.0	-6308.0	-306586.0
20	17	37	46	134	192.0	-231019.0	-6389.0	-309043.0
20	17	37	46	135	193.0	-234027.0	-6501.0	-311682.0
20	17	37	46	136	194.0	-235207.0	-6592.0	-314231.0
20	17	37	46	136	195.0	-235971.0	-6677.0	-317433.0
20	17	37	46	137	196.0	-239324.0	-6762.0	-321035.0
20	17	37	46	137	197.0	-239957.0	-6819.0	-324502.0
20	17	37	46	157	198.0	-242547.0	-6886.0	-327351.0
20	17	37	46	158	199.0	-241088.0	-6959.0	-330408.0
20	17	37	46	158	200.0	-243424.0	-7022.0	-334024.0
20	17	37	46	159	201.0	-240828.0	-7096.0	-336937.0
20	17	37	46	160	202.0	-237235.0	-7184.0	-339968.0
20	17	37	46	160	204.0	-225413.0	-7353.0	-343837.0
20	17	37	46	161	205.0	-216826.0	-7423.0	-344278.0
20	17	37	46	180	206.0	-211842.0	-7484.0	-345454.0
20	17	37	46	180	207.0	-208101.0	-7539.0	-345920.0
20	17	37	46	181	211.0	-191552.0	-7793.0	-347437.0
20	17	37	46	181	212.0	-189165.0	-7878.0	-348673.0
20	17	37	46	182	213.0	-184596.0	-7957.0	-349395.0
20	17	37	46	182	214.0	-179592.0	-8028.0	-349174.0
20	17	37	46	183	215.0	-174982.0	-8099.0	-348283.0
20	17	37	46	183	216.0	-171113.0	-8159.0	-347057.0
20	17	37	46	184	226.0	-159597.0	-8627.0	-355834.0
20	17	37	46	185	227.0	-159240.0	-8664.0	-356692.0
20	17	37	46	185	228.0	-158570.0	-8715.0	-356569.0
20	17	37	46	213	229.0	-157156.0	-8742.0	-356053.0
20	17	37	46	214	230.0	-156616.0	-8755.0	-355435.0
20	17	37	46	214	231.0	-155386.0	-8791.0	-355595.0
20	17	37	46	215	232.0	-153891.0	-8834.0	-355529.0
20	17	37	46	216	233.0	-151680.0	-8857.0	-355296.0
20	17	37	46	216	234.0	-149008.0	-8865.0	-356509.0
20	17	37	46	217	235.0	-147012.0	-8887.0	-358000.0
20	17	37	46	217	236.0	-145287.0	-8891.0	-359036.0
20	17	37	46	218	237.0	-144375.0	-8889.0	-360049.0
20	17	37	46	219	238.0	-144826.0	-8910.0	-361299.0
20	17	37	46	219	239.0	-145176.0	-8896.0	-362258.0
20	17	37	46	220	240.0	-145464.0	-8885.0	-363324.0
20	17	37	46	220	241.0	-145080.0	-8895.0	-364074.0
20	17	37	46	221	242.0	-146069.0	-8908.0	-364392.0
20	17	37	46	221	243.0	-146772.0	-8916.0	-364776.0
20	17	37	46	222	244.0	-147531.0	-8884.0	-366002.0
20	17	37	46	222	249.0	-164164.0	-8782.0	-366910.0
20	17	37	46	223	250.0	-169620.0	-8768.0	-369114.0
20	17	37	46	224	251.0	-175157.0	-8742.0	-370877.0
20	17	37	46	224	252.0	-179867.0	-8731.0	-371439.0
20	17	37	46	225	253.0	-185254.0	-8717.0	-372146.0
20	17	37	46	225	254.0	-190749.0	-8710.0	-372288.0
20	17	37	46	226	255.0	-196687.0	-8698.0	-372011.0
20	17	37	46	227	0.0	-201066.0	-8655.0	-371981.0
20	17	37	46	227	1.0	-203900.0	-8634.0	-372239.0
20	17	37	46	228	2.0	-205670.0	-8616.0	-372821.0
20	17	37	46	229	3.0	-206242.0	-8575.0	-374152.0
20	17	37	46	229	4.0	-205561.0	-8540.0	-375482.0
20	17	37	46	230	5.0	-203910.0	-8486.0	-376264.0
20	17	37	46	231	6.0	-200894.0	-8457.0	-377012.0
20	17	37	46	231	7.0	-196842.0	-8429.0	-377482.0
20	17	37	46	232	8.0	-192694.0	-8404.0	-376997.0
20	17	37	46	233	9.0	-189119.0	-8352.0	-377608.0
20	17	37	46	241	10.0	-186989.0	-8294.0	-378069.0
20	17	37	46	241	11.0	-186564.0	-8254.0	-377454.0
20	17	37	46	242	12.0	-188905.0	-8202.0	-377211.0
20	17	37	46	243	13.0	-193523.0	-8144.0	-377264.0
20	17	37	46	243	14.0	-200246.0	-8086.0	-377426.0
20	17	37	46	244	15.0	-207292.0	-8051.0	-377996.0
20	17	37	46	245	16.0	-215456.0	-8002.0	-378238.0
20	17	37	46	264	17.0	-222792.0	-7949.0	-379119.0
20	17	37	46	264	18.0	-229576.0	-7886.0	-378694.0
20	17	37	46	265	19.0	-235466.0	-7832.0	-378830.0
20	17	37	46	266	20.0	-240268.0	-7791.0	-380469.0
20	17	37	46	266	21.0	-243487.0	-7732.0	-381871.0
20	17	37	46	267	22.0	-246390.0	-7674.0	-383711.0
20	17	37	46	267	23.0	-246981.0	-7606.0	-384946.0
20	17	37	46	287	24.0	-245846.0	-7553.0	-386124.0
20	17	37	46	288	25.0	-243008.0	-7504.0	-386357.0
20	17	37	46	288	26.0	-239324.0	-7438.0	-386865.0
20	17	37	46	289	27.0	-233481.0	-7369.0	-386931.0
20	17	37	46	289	28.0	-226785.0	-7295.0	-386766.0
20	17	37	46	290	29.0	-221267.0	-7224.0	-386886.0
20	17	37	46	290	30.0	-214688.0	-7153.0	-387568.0
20	17	37	46	310	31.0	-207891.0	-7102.0	-388121.0
20	17	37	46	310	32.0	-201298.0	-7001.0	-388259.0
20	17	37	46	311	33.0	-194826.0	-6936.0	-389249.0
20	17	37	46	311	34.0	-188629.0	-6894.0	-390142.0
20	17	37	46	312	35.0	-182962.0	-6822.0	-390044.0
20	17	37	46	313	36.0	-178114.0	-6763.0	-390432.0
20	17	37	46	313	37.0	-174272.0	-6700.0	-390254.0
20	17	37	46	331	38.0	-171266.0	-6636.0	-389289.0
20	17	37	46	332	39.0	-169130.0	-6577.0	-388213.0
20	17	37	46	333	40.0	-166524.0	-6502.0	-388632.0
20	17	37	46	333	41.0	-163984.0	-6399.0	-387767.0
20	17	37	46	334	42.0	-162388.0	-6315.0	-387016.0
20	17	37	46	334	43.0	-161047.0	-6246.0	-386629.0
20	17	37	46	335	44.0	-159985.0	-6153.0	-386204.0
20	17	37	46	336	45.0	-159072.0	-6064.0	-386114.0
20	17	37	46	336	46.0	-157086.0	-6001.0	-387056.0
20	17	37	46	337	47.0	-155792.0	-5879.0	-387197.0
20	17	37	46	337	48.0	-155447.0	-5786.0	-386959.0
20	17	37	46	338	49.0	-156326.0	-5703.0	-386887.0
20	17	37	46	338	50.0	-158477.0	-5572.0	-386713.0
20	17	37	46	339	51.0	-160736.0	-5466.0	-386469.0
20	17	37	46	355	52.0	-162650.0	-5351.0	-387002.0
20	17	37	46	355	53.0	-163988.0	-5262.0	-387026.0
20	17	37	46	356	54.0	-165434.0	-5145.0	-387441.0
20	17	37	46	356	55.0	-166985.0	-5016.0	-388717.0
20	17	37	46	357	56.0	-168312.0	-4923.0	-389616.0
20	17	37	46	358	57.0	-169020.0	-4821.0	-389819.0
20	17	37	46	358	58.0	-169323.0	-4707.0	-389749.0
20	17	37	46	378	59.0	-168452.0	-4576.0	-390726.0
20	17	37	46	378	60.0	-167124.0	-4441.0	-391621.0
20	17	37	46	379	61.0	-165709.0	-4295.0	-391813.0
20	17	37	46	380	62.0	-164851.0	-4178.0	-392227.0
20	17	37	46	380	63.0	-164103.0	-4031.0	-393711.0
20	17	37	46	381	64.0	-163042.0	-3858.0	-394329.0
20	17	37	46	381	65.0	-162939.0	-3724.0	-393981.0
20	17	37	46	382	66.0	-161801.0	-3579.0	-393509.0
20	17	37	46	383	67.0	-160094.0	-3410.0	-392660.0
20	17	37	46	383	68.0	-157998.0	-3256.0	-392530.0
20	17	37	46	384	69.0	-156236.0	-3099.0	-392976.0
20	17	37	46	384	70.0	-154693.0	-2906.0	-392776.0
20	17	37	46	385	71.0	-153292.0	-2762.0	-392492.0
20	17	37	46	385	72.0	-153026.0	-2609.0	-392388.0
20	17	37	46	401	73.0	-153116.0	-2430.0	-391499.0
20	17	37	46	402	74.0	-154051.0	-2242.0	-390729.0
20	17	37	46	403	75.0	-163440.0	-2094.0	-390901.0
20	17	37	46	403	76.0	-168368.0	-1952.0	-392326.0
20	17	37	46	404	77.0	-150364.0	-1798.0	-394044.0
20	17	37	46	405	78.0	-154194.0	-1657.0	-395127.0
20	17	37	46	405	79.0	-158099.0	-1495.0	-395254.0
20	17	37	46	406	80.0	-161429.0	-1327.0	-394972.0
20	17	37	46	406	81.0	-165196.0	-1191.0	-394748.0
20	17	37	46	407	83.0	-166472.0	-912.0	-393522.0
20	17	37	46	408	84.0	-165595.0	-759.0	-393837.0
20	17	37	46	408	85.0	-176426.0	-596.0	-393812.0
20	17	37	46	409	86.0	-175989.0	-478.0	-393999.0
20	17	37	46	409	87.0	-155157.0	-347.0	-394659.0
20	17	37	46	424	88.0	-170616.0	-197.0	-395676.0
20	17	37	46	424	89.0	-163425.0	-66.0	-396664.0
20	17	37	46	425	90.0	-136042.0	98.0	-396568.0
20	17	37	46	426	91.0	-109537.0	253.0	-396886.0
20	17	37	46	426	92.0	-125103.0	409.0	-396596.0
20	17	37	46	427	93.0	-134713.0	544.0	-396562.0
20	17	37	46	427	94.0	-130049.0	706.0	-396151.0
20	17	37	46	448	95.0	-134116.0	835.0	-396374.0
20	17	37	46	448	96.0	-169372.0	976.0	-397443.0
20	17	37	46	449	98.0	-168518.0	1271.0	-400956.0
20	17	37	46	450	99.0	-150162.0	1421.0	-402031.0
20	17	37	46	450	100.0	-166823.0	1571.0	-402884.0
20	17	37	46	451	101.0	-167947.0	1714.0	-402536.0
20	17	37	46	452	102.0	-156855.0	1851.0	-402551.0
20	17	37	46	452	103.0	-139160.0	1990.0	-403729.0
20	17	37	46	453	104.0	-157874.0	2126.0	-404494.0
20	17	37	46	454	105.0	-167034.0	2243.0	-404749.0
20	17	37	46	454	106.0	-159238.0	2369.0	-405148.0
20	17	37	46	455	107.0	-141484.0	2509.0	-406896.0
20	17	37	46	455	108.0	-156842.0	2646.0	-408492.0
20	17	37	46	456	109.0	-172272.0	2760.0	-408583.0
20	17	37	46	470	110.0	-169750.0	2892.0	-409206.0
20	17	37	46	471	111.0	-157034.0	3018.0	-409312.0
20	17	37	46	472	113.0	-195319.0	3248.0	-410381.0
20	17	37	46	493	114.0	-193442.0	3363.0	-410284.0
20	17	37	46	494	115.0	-180283.0	3491.0	-410582.0
20	17	37	46	495	116.0	-181649.0	3616.0	-411822.0
20	17	37	46	495	117.0	-204542.0	3724.0	-412924.0
20	17	37	46	496	118.0	-197652.0	3831.0	-413674.0
20	17	37	46	496	119.0	-183303.0	3926.0	-413087.0
20	17	37	46	497	120.0	-176020.0	4032.0	-413087.0
20	17	37	46	498	121.0	-205710.0	4141.0	-413393.0
20	17	37	46	498	122.0	-205601.0	4239.0	-414477.0
20	17	37	46	499	123.0	-199132.0	4361.0	-415166.0
20	17	37	46	500	124.0	-191242.0	4459.0	-415731.0
20	17	37	46	500	125.0	-225680.0	4516.0	-416322.0
20	17	37	46	501	126.0	-229494.0	4597.0	-417264.0
20	17	37	46	502	128.0	-211470.0	4763.0	-419362.0
20	17	37	46	502	129.0	-242719.0	4874.0	-418972.0
20	17	37	46	503	130.0	-253266.0	4963.0	-419185.0
20	17	37	46	504	135.0	-258371.0	5298.0	-421928.0
20	17	37	46	504	136.0	-238212.0	5354.0	-422276.0
20	17	37	46	505	137.0	-250903.0	5411.0	-422091.0
20	17	37	46	505	138.0	-261477.0	5451.0	-420880.0
20	17	37	46	506	139.0	-243193.0	5508.0	-419342.0
20	17	37	46	507	140.0	-222913.0	5576.0	-419490.0
20	17	37	46	507	141.0	-235374.0	5641.0	-420475.0
20	17	37	46	508	143.0	-223887.0	5719.0	-421699.0
20	17	37	46	508	144.0	-208485.0	5787.0	-422514.0
20	17	37	46	516	145.0	-226745.0	5836.0	-422733.0
20	17	37	46	517	146.0	-230807.0	5857.0	-423659.0
20	17	37	46	539	147.0	-206991.0	5896.0	-425121.0
20	17	37	46	540	148.0	-201494.0	5954.0	-425739.0
20	17	37	46	541	149.0	-228272.0	6017.0	-425886.0
20	17	37	46	541	150.0	-216239.0	6051.0	-426126.0
20	17	37	46	542	151.0	-194682.0	6094.0	-426904.0
20	17	37	46	543	152.0	-201243.0	6142.0	-426269.0
20	17	37	46	543	153.0	-221238.0	6164.0	-425924.0
20	17	37	46	544	154.0	-194574.0	6194.0	-427054.0
20	17	37	46	544	155.0	-182244.0	6221.0	-428616.0
20	17	37	46	545	156.0	-202342.0	6261.0	-429612.0
20	17	37	46	546	157.0	-205688.0	6271.0	-430482.0
20	17	37	46	546	158.0	-180381.0	6266.0	-431681.0
20	17	37	46	547	159.0	-183727.0	6305.0	-432094.0
20	17	37	46	547	160.0	-206354.0	6315.0	-432056.0
20	17	37	46	548	161.0	-193143.0	6301.0	-432243.0
20	17	37	46	548	162.0	-179219.0	6323.0	-432752.0
20	17	37	46	549	163.0	-193957.0	6329.0	-433024.0
20	17	37	46	550	164.0	-208134.0	6342.0	-433171.0
20	17	37	46	550	165.0	-190037.0	6358.0	-433875.0
20	17	37	46	564	166.0	-189569.0	6343.0	-434949.0
20	17	37	46	564	167.0	-205866.0	6333.0	-435451.0
20	17	37	46	565	168.0	-210254.0	6337.0	-435205.0
20	17	37	46	566	169.0	-198183.0	6340.0	-434852.0
20	17	37	46	566	170.0	-201732.0	6333.0	-434002.0
20	17	37	46	567	171.0	-209602.0	6318.0	-433851.0
20	17	37	46	568	172.0	-205057.0	6316.0	-433604.0
20	17	37	46	568	173.0	-185182.0	6310.0	-433316.0
20	17	37	46	591	174.0	-192155.0	6301.0	-433506.0
20	17	37	46	591	175.0	-217126.0	6283.0	-433926.0
20	17	37	46	592	176.0	-206276.0	6276.0	-433976.0
20	17	37	46	593	177.0	-187758.0	6248.0	-434181.0
20	17	37	46	593	178.0	-204471.0	6233.0	-433624.0
20	17	37	46	594	179.0	-222317.0	6197.0	-433513.0
20	17	37	46	594	180.0	-195142.0	6173.0	-433269.0
20	17	37	46	595	181.0	-185057.0	6163.0	-433788.0
20	17	37	46	611	182.0	-215918.0	6168.0	-435167.0
20	17	37	46	612	183.0	-217954.0	6142.0	-435334.0
20	17	37	46	612	184.0	-191993.0	6121.0	-435200.0
20	17	37	46	613	185.0	-199189.0	6089.0	-436279.0
20	17	37	46	614	186.0	-234387.0	6058.0	-436581.0
20	17	37	46	614	187.0	-217647.0	6027.0	-436649.0
20	17	37	46	615	188.0	-197159.0	6018.0	-436499.0
20	17	37	46	615	189.0	-217251.0	6039.0	-436743.0
20	17	37	46	616	190.0	-239243.0	6024.0	-436699.0
20	17	37	46	616	191.0	-216785.0	6016.0	-436480.0
20	17	37	46	617	192.0	-202292.0	6007.0	-435013.0
20	17	37	46	617	193.0	-231310.0	5997.0	-433197.0
20	17	37	46	618	194.0	-240652.0	5982.0	-432706.0
20	17	37	46	619	195.0	-222154.0	5942.0	-432726.0
20	17	37	46	619	196.0	-207427.0	5910.0	-433545.0
20	17	37	46	620	197.0	-235037.0	5896.0	-434804.0
20	17	37	46	620	198.0	-241412.0	5874.0	-436066.0
20	17	37	46	621	199.0	-231059.0	5863.0	-436474.0
20	17	37	46	621	200.0	-209741.0	5853.0	-436305.0
20	17	37	46	622	201.0	-229178.0	5838.0	-435768.0
20	17	37	46	634	202.0	-237267.0	5809.0	-435410.0
20	17	37	46	635	203.0	-231004.0	5774.0	-435614.0
20	17	37	46	635	204.0	-207592.0	5776.0	-435621.0
20	17	37	46	636	205.0	-214459.0	5758.0	-434949.0
20	17	37	46	637	206.0	-232902.0	5725.0	-434602.0
20	17	37	46	637	207.0	-230484.0	5696.0	-435101.0
20	17	37	46	638	208.0	-215634.0	5674.0	-435748.0
20	17	37	46	638	209.0	-209506.0	5667.0	-435186.0
20	17	37	46	639	210.0	-237920.0	5648.0	-435264.0
20	17	37	46	640	211.0	-238931.0	5626.0	-435940.0
20	17	37	46	640	212.0	-232858.0	5579.0	-436144.0
20	17	37	46	656	213.0	-213998.0	5554.0	-435622.0
20	17	37	46	657	214.0	-237165.0	5522.0	-435042.0
20	17	37	46	658	215.0	-241793.0	5479.0	-434722.0
20	17	37	46	658	216.0	-238008.0	5460.0	-435295.0
20	17	37	46	659	217.0	-213937.0	5437.0	-436252.0
20	17	37	46	679	218.0	-224564.0	5401.0	-436151.0
20	17	37	46	680	219.0	-235264.0	5374.0	-435691.0
20	17	37	46	681	220.0	-229427.0	5364.0	-435082.0
20	17	37	46	681	221.0	-209952.0	5341.0	-435630.0
20	17	37	46	682	222.0	-204957.0	5299.0	-436146.0
20	17	37	46	682	223.0	-219949.0	5244.0	-437097.0
20	17	37	46	683	224.0	-213627.0	5202.0	-436714.0
20	17	37	46	684	225.0	-199107.0	5162.0	-436322.0
20	17	37	46	684	226.0	-182079.0	5123.0	-436162.0
20	17	37	46	685	227.0	-197754.0	5098.0	-436413.0
20	17	37	46	685	228.0	-194477.0	5063.0	-437048.0
20	17	37	46	686	229.0	-183616.0	5039.0	-437622.0
20	17	37	46	686	230.0	-162987.0	5028.0	-437731.0
20	17	37	46	687	231.0	-177163.0	5006.0	-437636.0
20	17	37	46	687	232.0	-182702.0	4969.0	-438022.0
20	17	37	46	688	233.0	-176512.0	4921.0	-437817.0
20	17	37	46	705	234.0	-157997.0	4869.0	-437419.0
20	17	37	46	706	235.0	-170756.0	4821.0	-437449.0
20	17	37	46	707	236.0	-185328.0	4803.0	-438229.0
20	17	37	46	707	237.0	-180966.0	4757.0	-438587.0
20	17	37	46	708	238.0	-165878.0	4705.0	-438781.0
20	17	37	46	709	239.0	-175317.0	4671.0	-438754.0
20	17	37	46	709	240.0	-197689.0	4652.0	-438906.0
20	17	37	46	725	241.0	-194701.0	4642.0	-438541.0
20	17	37	46	726	242.0	-182369.0	4623.0	-438365.0
20	17	37	46	727	243.0	-186885.0	4620.0	-438463.0
20	17	37	46	727	244.0	-213726.0	4604.0	-438334.0
20	17	37	46	728	245.0	-210731.0	4567.0	-438366.0
20	17	37	46	728	246.0	-198087.0	4535.0	-438540.0
20	17	37	46	729	247.0	-196137.0	4514.0	-438876.0
20	17	37	46	751	248.0	-224807.0	4493.0	-438526.0
20	17	37	46	751	249.0	-220544.0	4466.0	-437869.0
20	17	37	46	752	250.0	-207593.0	4427.0	-437434.0
20	17	37	46	753	251.0	-200852.0	4381.0	-437469.0
20	17	37	46	753	252.0	-230434.0	4356.0	-439226.0
20	17	37	46	754	253.0	-225988.0	4314.0	-441400.0
20	17	37	46	755	254.0	-212369.0	4271.0	-444214.0
20	17	37	46	774	255.0	-202651.0	4243.0	-447991.0
20	17	37	46	775	0.0	-232376.0	4210.0	-451313.0
20	17	37	46	776	1.0	-227787.0	4167.0	-454584.0
20	17	37	46	776	2.0	-213084.0	4153.0	-457561.0
20	17	37	46	777	3.0	-199706.0	4123.0	-461175.0
20	17	37	46	778	4.0	-226959.0	4107.0	-464631.0
20	17	37	46	778	5.0	-220376.0	4098.0	-467819.0
20	17	37	46	779	6.0	-204562.0	4072.0	-470611.0
20	17	37	46	779	7.0	-189047.0	4053.0	-472539.0
20	17	37	46	780	14.0	-198191.0	3722.0	-409321.0
20	17	37	46	781	15.0	-187483.0	3677.0	-403010.0
20	17	37	46	781	16.0	-221420.0	3636.0	-403512.0
20	17	37	46	782	17.0	-221737.0	3596.0	-404888.0
20	17	37	46	782	18.0	-210790.0	3519.0	-407313.0
20	17	37	46	783	19.0	-202803.0	3454.0	-411082.0
20	17	37	46	784	20.0	-237571.0	3421.0	-414032.0
20	17	37	46	784	21.0	-236381.0	3364.0	-416359.0
20	17	37	46	785	22.0	-222485.0	3318.0	-419823.0
20	17	37	46	785	23.0	-212617.0	3295.0	-422437.0
20	17	37	46	786	24.0	-240077.0	3228.0	-424915.0
20	17	37	46	786	25.0	-226731.0	3154.0	-427534.0
20	17	37	46	787	26.0	-201416.0	3101.0	-429344.0
20	17	37	46	788	27.0	-188231.0	3034.0	-430766.0
20	17	37	46	788	28.0	-208567.0	2959.0	-432775.0
20	17	37	46	789	29.0	-192573.0	2881.0	-434193.0
20	17	37	46	797	30.0	-175563.0	2815.0	-435331.0
20	17	37	46	798	31.0	-179858.0	2779.0	-435619.0
20	17	37	46	799	32.0	-209367.0	2708.0	-435915.0
20	17	37	46	799	33.0	-204504.0	2633.0	-436117.0
20	17	37	46	800	34.0	-201569.0	2589.0	-436394.0
20	17	37	46	800	35.0	-219543.0	2542.0	-436536.0
20	17	37	46	801	36.0	-244992.0	2473.0	-436998.0
20	17	37	46	802	37.0	-234489.0	2391.0	-437453.0
20	17	37	46	821	38.0	-226692.0	2333.0	-437641.0
20	17	37	46	822	39.0	-246817.0	2259.0	-437850.0
20	17	37	46	823	40.0	-258833.0	2203.0	-438532.0
20	17	37	46	823	41.0	-240554.0	2124.0	-438530.0
20	17	37	46	824	42.0	-229496.0	2052.0	-438874.0
20	17	37	46	825	43.0	-249014.0	1991.0	-438912.0
20	17	37	46	825	44.0	-243934.0	1898.0	-438422.0
20	17	37	46	826	45.0	-221113.0	1819.0	-438891.0
20	17	37	46	826	46.0	-212003.0	1765.0	-440109.0
20	17	37	46	827	47.0	-230827.0	1716.0	-440775.0
20	17	37	46	828	48.0	-212666.0	1630.0	-441577.0
20	17	37	46	828	49.0	-188779.0	1558.0	-442681.0
20	17	37	46	829	50.0	-186252.0	1503.0	-443490.0
20	17	37	46	856	51.0	-201029.0	1429.0	-443792.0
20	17	37	46	857	52.0	-176857.0	1371.0	-443380.0
20	17	37	46	857	53.0	-159174.0	1309.0	-442257.0
20	17	37	46	858	54.0	-171132.0	1243.0	-441387.0
20	17	37	46	859	55.0	-182254.0	1184.0	-441383.0
20	17	37	46	859	56.0	-161317.0	1134.0	-440877.0
20	17	37	46	860	57.0	-155698.0	1071.0	-440366.0
20	17	37	46	874	58.0	-180201.0	993.0	-440835.0
20	17	37	46	874	59.0	-181287.0	890.0	-441895.0
20	17	37	46	875	60.0	-163947.0	835.0	-443092.0
20	17	37	46	876	61.0	-168035.0	773.0	-443633.0
20	17	37	46	876	62.0	-194589.0	733.0	-444483.0
20	17	37	46	877	63.0	-183437.0	656.0	-445368.0
20	17	37	46	877	64.0	-171557.0	589.0	-445747.0
20	17	37	46	898	65.0	-186977.0	558.0	-445557.0
20	17	37	46	898	66.0	-205436.0	509.0	-445883.0
20	17	37	46	899	67.0	-186954.0	453.0	-446697.0
20	17	37	46	900	68.0	-178374.0	396.0	-446414.0
20	17	37	46	900	69.0	-198962.0	352.0	-446180.0
20	17	37	46	901	70.0	-203539.0	298.0	-446317.0
20	17	37	46	901	71.0	-182745.0	255.0	-445983.0
20	17	37	46	902	72.0	-175036.0	244.0	-445942.0
20	17	37	46	902	73.0	-197404.0	216.0	-445879.0
20	17	37	46	903	74.0	-191249.0	173.0	-446029.0
20	17	37	46	904	75.0	-170392.0	118.0	-446629.0
20	17	37	46	904	76.0	-164479.0	56.0	-447550.0
20	17	37	46	905	77.0	-189622.0	19.0	-448284.0
20	17	37	46	905	78.0	-183143.0	-41.0	-448897.0
20	17	37	46	931	79.0	-168414.0	-87.0	-449657.0
20	17	37	46	932	80.0	-166957.0	-122.0	-449494.0
20	17	37	46	932	81.0	-194712.0	-154.0	-450218.0
20	17	37	46	933	82.0	-187631.0	-194.0	-451301.0
20	17	37	46	934	83.0	-173982.0	-227.0	-451999.0
20	17	37	46	934	84.0	-173752.0	-244.0	-452161.0
20	17	37	46	935	85.0	-201869.0	-259.0	-453371.0
20	17	37	46	945	86.0	-194619.0	-268.0	-454637.0
20	17	37	46	968	87.0	-180323.0	-283.0	-454732.0
20	17	37	46	969	89.0	-207059.0	-336.0	-457186.0
20	17	37	46	970	90.0	-198577.0	-359.0	-457688.0
20	17	37	46	970	91.0	-184004.0	-384.0	-458269.0
20	17	37	46	971	92.0	-185172.0	-376.0	-458381.0
20	17	37	46	971	93.0	-210972.0	-407.0	-458682.0
20	17	37	46	972	94.0	-203814.0	-441.0	-459086.0
20	17	37	46	991	95.0	-189422.0	-452.0	-460076.0
20	17	37	46	992	104.0	-211325.0	-747.0	-466589.0
20	17	37	46	992	105.0	-230164.0	-753.0	-466566.0
20	17	37	46	993	106.0	-222893.0	-783.0	-466090.0
20	17	37	46	993	107.0	-206339.0	-791.0	-464719.0
20	17	37	46	994	108.0	-211957.0	-826.0	-464186.0
20	17	37	46	994	109.0	-228790.0	-851.0	-463822.0
20	17	37	46	995	110.0	-221239.0	-872.0	-464489.0
20	17	37	46	996	111.0	-204642.0	-904.0	-463810.0
20	17	37	46	996	119.0	-195742.0	-1039.0	-458300.0
20	17	37	46	997	120.0	-203546.0	-1051.0	-457147.0
20	17	37	46	997	121.0	-212322.0	-1051.0	-456581.0
20	17	37	46	998	122.0	-207886.0	-1065.0	-455245.0
20	17	37	46	998	123.0	-191582.0	-1085.0	-453474.0
20	17	37	47	14	124.0	-200026.0	-1094.0	-452615.0
20	17	37	47	15	125.0	-208769.0	-1098.0	-451619.0
20	17	37	47	15	126.0	-205611.0	-1092.0	-450541.0
20	17	37	47	16	127.0	-189369.0	-1087.0	-449777.0
20	17	37	47	17	128.0	-195653.0	-1100.0	-450042.0
20	17	37	47	17	129.0	-202997.0	-1109.0	-449992.0
20	17	37	47	18	130.0	-199105.0	-1101.0	-450191.0
20	17	37	47	18	131.0	-183043.0	-1084.0	-450367.0
20	17	37	47	19	132.0	-185218.0	-1082.0	-450912.0
20	17	37	47	19	134.0	-195049.0	-1084.0	-450797.0
20	17	37	47	20	135.0	-183086.0	-1079.0	-449764.0
20	17	37	47	21	136.0	-180434.0	-1057.0	-449067.0
20	17	37	47	21	137.0	-195557.0	-1039.0	-449068.0
20	17	37	47	22	138.0	-194714.0	-1022.0	-449248.0
20	17	37	47	22	139.0	-188257.0	-1019.0	-449898.0
20	17	37	47	23	140.0	-182537.0	-972.0	-449987.0
20	17	37	47	23	141.0	-201975.0	-937.0	-449417.0
20	17	37	47	24	142.0	-202351.0	-912.0	-448362.0
20	17	37	47	25	143.0	-197786.0	-872.0	-447669.0
20	17	37	47	37	144.0	-189091.0	-850.0	-448340.0
20	17	37	47	38	145.0	-209241.0	-827.0	-448676.0
20	17	37	47	39	146.0	-209312.0	-785.0	-448813.0
20	17	37	47	39	147.0	-204601.0	-741.0	-448827.0
20	17	37	47	40	148.0	-197989.0	-710.0	-448896.0
20	17	37	47	40	149.0	-219561.0	-663.0	-449196.0
20	17	37	47	62	150.0	-219352.0	-604.0	-449492.0
20	17	37	47	85	151.0	-212008.0	-559.0	-449388.0
20	17	37	47	86	152.0	-208797.0	-473.0	-449610.0
20	17	37	47	87	153.0	-228416.0	-388.0	-449563.0
20	17	37	47	87	154.0	-224514.0	-311.0	-449921.0
20	17	37	47	88	155.0	-213414.0	-238.0	-450555.0
20	17	37	47	89	156.0	-215296.0	-163.0	-451726.0
20	17	37	47	89	157.0	-230660.0	-89.0	-452371.0
20	17	37	47	90	158.0	-222202.0	-14.0	-453070.0
20	17	37	47	90	159.0	-208319.0	72.0	-452115.0
20	17	37	47	91	160.0	-216734.0	156.0	-451058.0
20	17	37	47	92	161.0	-225152.0	221.0	-450292.0
20	17	37	47	92	162.0	-213072.0	305.0	-450237.0
20	17	37	47	93	163.0	-201469.0	386.0	-450221.0
20	17	37	47	93	164.0	-218130.0	438.0	-450156.0
20	17	37	47	94	165.0	-220400.0	521.0	-450521.0
20	17	37	47	94	178.0	-137022.0	1491.0	-450427.0
20	17	37	47	95	179.0	-161889.0	1553.0	-450735.0
20	17	37	47	96	180.0	-175651.0	1608.0	-451738.0
20	17	37	47	96	181.0	-177476.0	1681.0	-451662.0
20	17	37	47	97	182.0	-184245.0	1748.0	-451184.0
20	17	37	47	97	183.0	-209814.0	1805.0	-451489.0
20	17	37	47	98	184.0	-206578.0	1864.0	-452466.0
20	17	37	47	98	185.0	-192657.0	1925.0	-452767.0
20	17	37	47	99	186.0	-194278.0	2011.0	-452319.0
20	17	37	47	111	187.0	-209614.0	2071.0	-451699.0
20	17	37	47	112	188.0	-201990.0	2123.0	-451259.0
20	17	37	47	112	189.0	-189992.0	2185.0	-451052.0
20	17	37	47	113	190.0	-201144.0	2245.0	-450672.0
20	17	37	47	114	191.0	-210449.0	2322.0	-450542.0
20	17	37	47	114	192.0	-199541.0	2376.0	-450979.0
20	17	37	47	115	193.0	-183339.0	2416.0	-450287.0
20	17	37	47	116	194.0	-194341.0	2444.0	-449471.0
20	17	37	47	116	195.0	-193589.0	2488.0	-448965.0
20	17	37	47	132	196.0	-183582.0	2539.0	-447441.0
20	17	37	47	133	197.0	-172195.0	2582.0	-446656.0
20	17	37	47	134	198.0	-191357.0	2598.0	-447017.0
20	17	37	47	134	199.0	-194106.0	2621.0	-447691.0
20	17	37	47	135	200.0	-191954.0	2655.0	-447951.0
20	17	37	47	136	201.0	-183148.0	2700.0	-447590.0
20	17	37	47	155	202.0	-201306.0	2766.0	-447004.0
20	17	37	47	156	203.0	-199662.0	2806.0	-446943.0
20	17	37	47	157	204.0	-196534.0	2821.0	-446492.0
20	17	37	47	158	205.0	-181509.0	2854.0	-446213.0
20	17	37	47	158	206.0	-196098.0	2876.0	-446263.0
20	17	37	47	159	207.0	-195618.0	2893.0	-446457.0
20	17	37	47	160	208.0	-198391.0	2914.0	-447540.0
20	17	37	47	160	209.0	-183691.0	2936.0	-448651.0
20	17	37	47	161	210.0	-188498.0	2946.0	-448479.0
20	17	37	47	161	211.0	-196970.0	2974.0	-449054.0
20	17	37	47	162	212.0	-200083.0	3005.0	-450014.0
20	17	37	47	162	213.0	-201126.0	3004.0	-450077.0
20	17	37	47	163	214.0	-187481.0	3013.0	-449494.0
20	17	37	47	164	215.0	-190783.0	3017.0	-450025.0
20	17	37	47	164	216.0	-200227.0	3029.0	-450932.0
20	17	37	47	165	217.0	-204636.0	3043.0	-451545.0
20	17	37	47	186	218.0	-206471.0	3047.0	-452417.0
20	17	37	47	187	219.0	-195002.0	3077.0	-453086.0
20	17	37	47	188	220.0	-191636.0	3083.0	-452826.0
20	17	37	47	188	221.0	-203949.0	3107.0	-453087.0
20	17	37	47	189	222.0	-209266.0	3121.0	-453727.0
20	17	37	47	190	223.0	-214783.0	3106.0	-452752.0
20	17	37	47	191	224.0	-209284.0	3098.0	-452058.0
20	17	37	47	191	225.0	-198319.0	3091.0	-451389.0
20	17	37	47	192	226.0	-205349.0	3094.0	-450710.0
20	17	37	47	193	227.0	-212946.0	3089.0	-450362.0
20	17	37	47	193	228.0	-217420.0	3071.0	-450646.0
20	17	37	47	194	229.0	-216148.0	3064.0	-450687.0
20	17	37	47	195	230.0	-202572.0	3035.0	-450512.0
20	17	37	47	196	231.0	-201835.0	3029.0	-450041.0
20	17	37	47	196	232.0	-210138.0	3016.0	-449321.0
20	17	37	47	197	233.0	-211777.0	3003.0	-448855.0
20	17	37	47	197	234.0	-211756.0	2970.0	-449661.0
20	17	37	47	198	235.0	-196655.0	2946.0	-450529.0
20	17	37	47	206	236.0	-184197.0	2923.0	-450698.0
20	17	37	47	207	237.0	-192754.0	2931.0	-450692.0
20	17	37	47	231	238.0	-196130.0	2893.0	-451576.0
20	17	37	47	232	239.0	-197016.0	2848.0	-452487.0
20	17	37	47	233	240.0	-181094.0	2842.0	-452637.0
20	17	37	47	234	241.0	-169515.0	2804.0	-451935.0
20	17	37	47	235	242.0	-181234.0	2765.0	-451512.0
20	17	37	47	235	243.0	-186075.0	2748.0	-450884.0
20	17	37	47	236	244.0	-185527.0	2729.0	-450729.0
20	17	37	47	237	245.0	-164497.0	2678.0	-450656.0
20	17	37	47	237	246.0	-157515.0	2654.0	-450822.0
20	17	37	47	238	247.0	-171117.0	2611.0	-451137.0
20	17	37	47	238	248.0	-172047.0	2539.0	-451353.0
20	17	37	47	239	249.0	-160656.0	2506.0	-451326.0
20	17	37	47	240	250.0	-133067.0	2468.0	-451184.0
20	17	37	47	240	251.0	-123907.0	2435.0	-450550.0
20	17	37	47	241	252.0	-141400.0	2399.0	-449787.0
20	17	37	47	241	253.0	-145541.0	2378.0	-448874.0
20	17	37	47	242	254.0	-126619.0	2343.0	-448700.0
20	17	37	47	242	255.0	-110914.0	2321.0	-448667.0
20	17	37	47	254	0.0	-132026.0	2273.0	-448891.0
20	17	37	47	255	1.0	-144455.0	2243.0	-449640.0
20	17	37	47	256	2.0	-125559.0	2197.0	-449421.0
20	17	37	47	256	3.0	-116744.0	2138.0	-448836.0
20	17	37	47	257	4.0	-132002.0	2105.0	-448210.0
20	17	37	47	258	5.0	-143271.0	2073.0	-447306.0
20	17	37	47	277	6.0	-127674.0	2044.0	-447304.0
20	17	37	47	278	7.0	-127459.0	2012.0	-448342.0
20	17	37	47	279	8.0	-141789.0	1961.0	-449077.0
20	17	37	47	279	9.0	-153766.0	1929.0	-449711.0
20	17	37	47	280	10.0	-144734.0	1896.0	-450826.0
20	17	37	47	281	11.0	-140702.0	1837.0	-451631.0
20	17	37	47	281	12.0	-144207.0	1793.0	-452257.0
20	17	37	47	282	13.0	-149643.0	1739.0	-452416.0
20	17	37	47	283	14.0	-150254.0	1698.0	-452144.0
20	17	37	47	283	15.0	-144967.0	1674.0	-451764.0
20	17	37	47	284	16.0	-147248.0	1647.0	-451792.0
20	17	37	47	284	17.0	-155837.0	1600.0	-451846.0
20	17	37	47	285	18.0	-168101.0	1576.0	-452073.0
20	17	37	47	286	19.0	-174184.0	1564.0	-451961.0
20	17	37	47	286	20.0	-177867.0	1537.0	-451686.0
20	17	37	47	287	21.0	-184829.0	1513.0	-451015.0
20	17	37	47	300	22.0	-194799.0	1496.0	-450722.0
20	17	37	47	325	23.0	-205519.0	1472.0	-450529.0
20	17	37	47	326	24.0	-210839.0	1450.0	-450391.0
20	17	37	47	327	25.0	-214721.0	1425.0	-450176.0
20	17	37	47	327	26.0	-220434.0	1408.0	-449529.0
20	17	37	47	328	27.0	-225875.0	1398.0	-448592.0
20	17	37	47	329	28.0	-229486.0	1381.0	-447968.0
20	17	37	47	329	29.0	-230956.0	1353.0	-447247.0
20	17	37	47	330	30.0	-230711.0	1321.0	-446630.0
20	17	37	47	331	31.0	-229962.0	1263.0	-445921.0
20	17	37	47	331	32.0	-229853.0	1221.0	-445627.0
20	17	37	47	332	33.0	-228554.0	1171.0	-445262.0
20	17	37	47	332	34.0	-225679.0	1152.0	-445041.0
20	17	37	47	333	35.0	-221702.0	1128.0	-444827.0
20	17	37	47	348	36.0	-217519.0	1098.0	-444593.0
20	17	37	47	349	37.0	-214827.0	1044.0	-444199.0
20	17	37	47	350	38.0	-213061.0	1035.0	-444291.0
20	17	37	47	351	39.0	-211210.0	1027.0	-444441.0
20	17	37	47	351	40.0	-210569.0	997.0	-444119.0
20	17	37	47	352	41.0	-209735.0	945.0	-445043.0
20	17	37	47	353	42.0	-211475.0	900.0	-446032.0
20	17	37	47	353	43.0	-214368.0	859.0	-446227.0
20	17	37	47	354	44.0	-219409.0	819.0	-446716.0
20	17	37	47	355	45.0	-224269.0	809.0	-446811.0
20	17	37	47	355	46.0	-226759.0	776.0	-446499.0
20	17	37	47	356	47.0	-230097.0	751.0	-446561.0
20	17	37	47	356	48.0	-233037.0	725.0	-446640.0
20	17	37	47	357	49.0	-235574.0	695.0	-446472.0
20	17	37	47	374	50.0	-238621.0	671.0	-445387.0
20	17	37	47	375	51.0	-240979.0	636.0	-444842.0
20	17	37	47	376	52.0	-242956.0	599.0	-445139.0
20	17	37	47	377	53.0	-243914.0	579.0	-444554.0
20	17	37	47	377	54.0	-243151.0	565.0	-443842.0
20	17	37	47	378	55.0	-240757.0	533.0	-443735.0
20	17	37	47	379	56.0	-236787.0	489.0	-443864.0
20	17	37	47	398	57.0	-232374.0	437.0	-442677.0
20	17	37	47	399	58.0	-228311.0	376.0	-440909.0
20	17	37	47	400	59.0	-224447.0	326.0	-440425.0
20	17	37	47	400	60.0	-220507.0	299.0	-440127.0
20	17	37	47	401	61.0	-214724.0	255.0	-439370.0
20	17	37	47	402	62.0	-207664.0	191.0	-438894.0
20	17	37	47	402	63.0	-201619.0	143.0	-439169.0
20	17	37	47	403	64.0	-195917.0	94.0	-439176.0
20	17	37	47	403	65.0	-191433.0	48.0	-439089.0
20	17	37	47	404	66.0	-188019.0	-3.0	-439603.0
20	17	37	47	425	67.0	-185814.0	-56.0	-440571.0
20	17	37	47	426	68.0	-184102.0	-92.0	-441131.0
20	17	37	47	426	69.0	-182842.0	-122.0	-440646.0
20	17	37	47	427	70.0	-182359.0	-140.0	-440806.0
20	17	37	47	428	71.0	-182388.0	-174.0	-440722.0
20	17	37	47	428	72.0	-184752.0	-208.0	-440360.0
20	17	37	47	429	73.0	-187999.0	-241.0	-440091.0
20	17	37	47	430	74.0	-191376.0	-243.0	-439737.0
20	17	37	47	430	75.0	-195244.0	-258.0	-439063.0
20	17	37	47	431	76.0	-199408.0	-264.0	-438538.0
20	17	37	47	432	77.0	-204241.0	-287.0	-438802.0
20	17	37	47	432	78.0	-209124.0	-314.0	-439165.0
20	17	37	47	433	79.0	-214375.0	-361.0	-440482.0
20	17	37	47	433	80.0	-219220.0	-411.0	-442806.0
20	17	37	47	448	81.0	-223471.0	-432.0	-446086.0
20	17	37	47	449	82.0	-226062.0	-485.0	-450216.0
20	17	37	47	450	87.0	-227609.0	-650.0	-469559.0
20	17	37	47	450	88.0	-225553.0	-679.0	-475104.0
20	17	37	47	451	89.0	-223013.0	-731.0	-479513.0
20	17	37	47	452	90.0	-220310.0	-771.0	-480686.0
20	17	37	47	452	91.0	-217441.0	-819.0	-480315.0
20	17	37	47	474	92.0	-214583.0	-861.0	-474639.0
20	17	37	47	475	93.0	-211097.0	-894.0	-463425.0
20	17	37	47	476	95.0	-203826.0	-971.0	-429797.0
20	17	37	47	476	96.0	-200699.0	-1017.0	-410749.0
20	17	37	47	477	97.0	-198339.0	-1052.0	-401984.0
20	17	37	47	478	98.0	-196738.0	-1088.0	-400003.0
20	17	37	47	478	99.0	-196495.0	-1127.0	-400554.0
20	17	37	47	498	100.0	-197019.0	-1152.0	-403583.0
20	17	37	47	498	101.0	-198985.0	-1207.0	-408008.0
20	17	37	47	499	102.0	-201961.0	-1277.0	-412017.0
20	17	37	47	500	103.0	-205123.0	-1302.0	-415842.0
20	17	37	47	500	104.0	-207522.0	-1332.0	-419522.0
20	17	37	47	501	105.0	-208099.0	-1395.0	-422993.0
20	17	37	47	501	106.0	-206092.0	-1432.0	-426471.0
20	17	37	47	528	107.0	-202276.0	-1470.0	-429271.0
20	17	37	47	530	108.0	-198130.0	-1526.0	-431765.0
20	17	37	47	538	110.0	-191201.0	-1636.0	-434141.0
20	17	37	47	541	111.0	-189865.0	-1680.0	-436231.0
20	17	37	47	542	112.0	-191457.0	-1725.0	-437556.0
20	17	37	47	542	113.0	-195461.0	-1751.0	-438231.0
20	17	37	47	543	114.0	-202045.0	-1789.0	-438233.0
20	17	37	47	543	115.0	-210017.0	-1829.0	-437957.0
20	17	37	47	544	116.0	-217958.0	-1851.0	-438374.0
20	17	37	47	544	125.0	-242957.0	-2290.0	-439855.0
20	17	37	47	545	126.0	-239052.0	-2332.0	-439284.0
20	17	37	47	546	127.0	-234610.0	-2384.0	-439225.0
20	17	37	47	546	128.0	-229142.0	-2407.0	-439004.0
20	17	37	47	547	129.0	-223484.0	-2428.0	-439019.0
20	17	37	47	547	130.0	-216789.0	-2465.0	-438614.0
20	17	37	47	548	131.0	-209767.0	-2534.0	-438241.0
20	17	37	47	548	140.0	-176503.0	-2913.0	-435586.0
20	17	37	47	549	141.0	-176719.0	-2954.0	-435029.0
20	17	37	47	549	142.0	-178567.0	-2981.0	-434614.0
20	17	37	47	550	143.0	-181884.0	-3036.0	-434302.0
20	17	37	47	551	144.0	-186768.0	-3082.0	-433359.0
20	17	37	47	551	145.0	-192849.0	-3109.0	-433158.0
20	17	37	47	552	146.0	-199400.0	-3157.0	-433225.0
20	17	37	47	552	147.0	-206294.0	-3202.0	-433247.0
20	17	37	47	553	148.0	-212943.0	-3237.0	-433552.0
20	17	37	47	553	149.0	-219094.0	-3280.0	-434019.0
20	17	37	47	554	150.0	-224134.0	-3324.0	-434592.0
20	17	37	47	554	151.0	-228695.0	-3387.0	-435083.0
20	17	37	47	555	152.0	-232480.0	-3452.0	-436237.0
20	17	37	47	555	153.0	-235141.0	-3493.0	-437390.0
20	17	37	47	556	154.0	-237011.0	-3534.0	-436599.0
20	17	37	47	557	155.0	-237756.0	-3588.0	-436384.0
20	17	37	47	565	156.0	-237453.0	-3636.0	-437426.0
20	17	37	47	565	157.0	-236251.0	-3694.0	-438807.0
20	17	37	47	566	158.0	-233874.0	-3737.0	-439207.0
20	17	37	47	566	159.0	-230541.0	-3774.0	-439991.0
20	17	37	47	567	160.0	-226229.0	-3846.0	-440802.0
20	17	37	47	568	161.0	-221617.0	-3921.0	-440911.0
20	17	37	47	568	162.0	-216751.0	-3977.0	-440914.0
20	17	37	47	569	163.0	-211169.0	-4042.0	-441555.0
20	17	37	47	589	164.0	-205202.0	-4100.0	-441783.0
20	17	37	47	590	165.0	-199804.0	-4150.0	-441631.0
20	17	37	47	590	166.0	-194725.0	-4213.0	-440396.0
20	17	37	47	591	167.0	-189553.0	-4271.0	-440390.0
20	17	37	47	592	168.0	-185924.0	-4319.0	-440820.0
20	17	37	47	592	169.0	-183642.0	-4350.0	-440697.0
20	17	37	47	593	170.0	-181616.0	-4417.0	-441079.0
20	17	37	47	593	171.0	-180270.0	-4459.0	-442189.0
20	17	37	47	594	172.0	-179792.0	-4529.0	-443656.0
20	17	37	47	595	173.0	-180284.0	-4607.0	-445446.0
20	17	37	47	595	174.0	-182038.0	-4658.0	-446001.0
20	17	37	47	612	175.0	-184557.0	-4704.0	-445274.0
20	17	37	47	613	176.0	-187414.0	-4733.0	-444967.0
20	17	37	47	613	177.0	-191100.0	-4789.0	-445021.0
20	17	37	47	614	178.0	-195330.0	-4837.0	-445231.0
20	17	37	47	615	179.0	-199679.0	-4849.0	-445594.0
20	17	37	47	615	180.0	-203464.0	-4903.0	-446176.0
20	17	37	47	616	181.0	-207190.0	-4969.0	-447027.0
20	17	37	47	616	182.0	-210894.0	-5039.0	-447960.0
20	17	37	47	617	183.0	-214194.0	-5102.0	-448804.0
20	17	37	47	617	184.0	-218024.0	-5146.0	-448535.0
20	17	37	47	618	185.0	-221271.0	-5192.0	-447932.0
20	17	37	47	635	186.0	-224858.0	-5232.0	-447513.0
20	17	37	47	636	187.0	-227898.0	-5281.0	-447090.0
20	17	37	47	636	188.0	-230604.0	-5339.0	-447160.0
20	17	37	47	637	189.0	-232898.0	-5389.0	-447372.0
20	17	37	47	638	190.0	-234389.0	-5461.0	-447079.0
20	17	37	47	638	191.0	-235388.0	-5525.0	-446982.0
20	17	37	47	639	192.0	-235248.0	-5597.0	-446424.0
20	17	37	47	639	193.0	-234228.0	-5653.0	-445776.0
20	17	37	47	640	194.0	-232722.0	-5681.0	-445584.0
20	17	37	47	640	195.0	-230478.0	-5733.0	-445590.0
20	17	37	47	641	196.0	-227644.0	-5784.0	-445196.0
20	17	37	47	642	197.0	-224053.0	-5849.0	-444672.0
20	17	37	47	658	198.0	-220016.0	-5884.0	-443457.0
20	17	37	47	659	199.0	-215537.0	-5914.0	-441798.0
20	17	37	47	660	200.0	-210920.0	-5953.0	-440744.0
20	17	37	47	660	201.0	-207082.0	-6022.0	-440421.0
20	17	37	47	661	202.0	-203683.0	-6077.0	-439829.0
20	17	37	47	661	203.0	-200724.0	-6100.0	-439418.0
20	17	37	47	662	204.0	-198377.0	-6149.0	-437939.0
20	17	37	47	681	205.0	-196685.0	-6165.0	-436777.0
20	17	37	47	682	206.0	-195126.0	-6210.0	-435886.0
20	17	37	47	682	207.0	-193974.0	-6264.0	-434691.0
20	17	37	47	683	208.0	-193172.0	-6259.0	-433414.0
20	17	37	47	684	209.0	-191782.0	-6255.0	-432308.0
20	17	37	47	684	210.0	-189527.0	-6257.0	-431666.0
20	17	37	47	685	211.0	-187373.0	-6265.0	-431778.0
20	17	37	47	685	212.0	-185636.0	-6289.0	-431267.0
20	17	37	47	686	213.0	-183302.0	-6291.0	-430511.0
20	17	37	47	686	214.0	-180603.0	-6278.0	-429158.0
20	17	37	47	687	215.0	-177681.0	-6273.0	-427954.0
20	17	37	47	688	216.0	-174701.0	-6276.0	-426964.0
20	17	37	47	688	217.0	-171667.0	-6256.0	-426231.0
20	17	37	47	689	218.0	-168976.0	-6263.0	-425594.0
20	17	37	47	704	219.0	-166819.0	-6260.0	-423869.0
20	17	37	47	705	220.0	-165380.0	-6229.0	-423126.0
20	17	37	47	706	221.0	-164777.0	-6219.0	-423432.0
20	17	37	47	706	222.0	-165206.0	-6227.0	-424114.0
20	17	37	47	707	223.0	-167154.0	-6221.0	-423835.0
20	17	37	47	707	224.0	-170038.0	-6204.0	-423954.0
20	17	37	47	708	225.0	-174019.0	-6150.0	-424222.0
20	17	37	47	728	226.0	-178898.0	-6119.0	-423976.0
20	17	37	47	728	227.0	-184085.0	-6105.0	-423392.0
20	17	37	47	729	228.0	-189573.0	-6097.0	-423439.0
20	17	37	47	730	229.0	-194465.0	-6060.0	-423409.0
20	17	37	47	730	230.0	-198091.0	-6043.0	-423692.0
20	17	37	47	731	231.0	-201039.0	-6006.0	-423918.0
20	17	37	47	731	232.0	-202939.0	-5957.0	-424531.0
20	17	37	47	732	233.0	-203687.0	-5917.0	-424782.0
20	17	37	47	733	234.0	-203283.0	-5891.0	-424386.0
20	17	37	47	733	235.0	-202122.0	-5877.0	-423801.0
20	17	37	47	734	236.0	-200941.0	-5831.0	-422884.0
20	17	37	47	751	237.0	-199981.0	-5794.0	-422596.0
20	17	37	47	752	238.0	-199471.0	-5745.0	-422815.0
20	17	37	47	752	239.0	-199624.0	-5673.0	-423521.0
20	17	37	47	753	240.0	-200616.0	-5642.0	-424110.0
20	17	37	47	754	241.0	-202651.0	-5597.0	-423629.0
20	17	37	47	754	242.0	-205694.0	-5554.0	-423676.0
20	17	37	47	755	243.0	-209192.0	-5487.0	-423870.0
20	17	37	47	755	244.0	-212568.0	-5422.0	-423317.0
20	17	37	47	756	245.0	-215927.0	-5368.0	-423333.0
20	17	37	47	756	246.0	-219165.0	-5306.0	-423041.0
20	17	37	47	757	247.0	-221739.0	-5225.0	-422882.0
20	17	37	47	757	248.0	-223501.0	-5168.0	-422911.0
20	17	37	47	758	249.0	-223896.0	-5104.0	-422791.0
20	17	37	47	759	250.0	-222459.0	-5052.0	-422812.0
20	17	37	47	759	251.0	-219216.0	-5008.0	-423142.0
20	17	37	47	760	252.0	-214519.0	-4959.0	-423477.0
20	17	37	47	760	253.0	-207668.0	-4905.0	-423155.0
20	17	37	47	761	254.0	-197336.0	-4842.0	-422421.0
20	17	37	47	761	255.0	-181892.0	-4777.0	-422670.0
20	17	37	47	773	0.0	-165573.0	-4721.0	-423451.0
20	17	37	47	774	1.0	-150994.0	-4664.0	-422794.0
20	17	37	47	775	2.0	-143783.0	-4600.0	-422337.0
20	17	37	47	776	3.0	-141982.0	-4557.0	-422560.0
20	17	37	47	776	4.0	-147081.0	-4529.0	-423386.0
20	17	37	47	777	5.0	-159481.0	-4476.0	-423534.0
20	17	37	47	778	6.0	-173573.0	-4415.0	-423814.0
20	17	37	47	778	7.0	-185446.0	-4366.0	-423649.0
20	17	37	47	779	8.0	-193600.0	-4334.0	-422829.0
20	17	37	47	779	9.0	-200774.0	-4286.0	-421112.0
20	17	37	47	780	10.0	-206939.0	-4221.0	-420279.0
20	17	37	47	781	11.0	-212901.0	-4186.0	-420171.0
20	17	37	47	781	12.0	-218951.0	-4136.0	-420325.0
20	17	37	47	782	13.0	-225664.0	-4075.0	-420064.0
20	17	37	47	782	14.0	-232335.0	-4032.0	-421302.0
20	17	37	47	797	15.0	-237761.0	-4006.0	-422439.0
20	17	37	47	797	16.0	-240471.0	-3989.0	-422587.0
20	17	37	47	798	17.0	-240130.0	-3957.0	-421389.0
20	17	37	47	798	18.0	-236050.0	-3929.0	-419818.0
20	17	37	47	822	19.0	-229876.0	-3894.0	-418852.0
20	17	37	47	822	20.0	-222259.0	-3883.0	-418620.0
20	17	37	47	823	21.0	-213999.0	-3849.0	-418696.0
20	17	37	47	824	22.0	-207319.0	-3831.0	-418215.0
20	17	37	47	824	23.0	-201371.0	-3797.0	-418117.0
20	17	37	47	825	24.0	-196302.0	-3806.0	-419463.0
20	17	37	47	825	25.0	-192035.0	-3807.0	-420492.0
20	17	37	47	844	26.0	-187975.0	-3800.0	-421059.0
20	17	37	47	845	27.0	-182969.0	-3777.0	-421246.0
20	17	37	47	845	28.0	-177197.0	-3755.0	-421595.0
20	17	37	47	846	29.0	-170862.0	-3751.0	-422677.0
20	17	37	47	846	30.0	-164412.0	-3774.0	-424021.0
20	17	37	47	847	31.0	-158979.0	-3773.0	-424676.0
20	17	37	47	848	32.0	-154967.0	-3779.0	-424933.0
20	17	37	47	848	33.0	-152129.0	-3766.0	-425184.0
20	17	37	47	849	34.0	-150801.0	-3756.0	-426368.0
20	17	37	47	849	35.0	-151396.0	-3762.0	-426664.0
20	17	37	47	850	36.0	-154559.0	-3759.0	-426522.0
20	17	37	47	850	37.0	-159976.0	-3763.0	-426359.0
20	17	37	47	851	38.0	-167072.0	-3784.0	-425697.0
20	17	37	47	852	39.0	-174786.0	-3793.0	-424645.0
20	17	37	47	852	40.0	-182769.0	-3794.0	-424121.0
20	17	37	47	853	41.0	-190637.0	-3812.0	-423767.0
20	17	37	47	853	42.0	-197724.0	-3814.0	-423834.0
20	17	37	47	854	43.0	-204141.0	-3819.0	-424045.0
20	17	37	47	854	44.0	-210107.0	-3857.0	-423878.0
20	17	37	47	855	45.0	-215395.0	-3871.0	-423807.0
20	17	37	47	855	46.0	-219627.0	-3899.0	-423236.0
20	17	37	47	856	47.0	-222251.0	-3908.0	-422487.0
20	17	37	47	857	48.0	-223716.0	-3908.0	-421681.0
20	17	37	47	867	49.0	-224409.0	-3931.0	-420931.0
20	17	37	47	868	50.0	-224466.0	-3972.0	-419842.0
20	17	37	47	868	51.0	-223719.0	-3989.0	-420255.0
20	17	37	47	869	52.0	-221686.0	-4004.0	-421414.0
20	17	37	47	869	53.0	-219446.0	-4033.0	-420964.0
20	17	37	47	870	54.0	-216926.0	-4087.0	-420014.0
20	17	37	47	871	55.0	-214072.0	-4100.0	-418836.0
20	17	37	47	871	56.0	-210981.0	-4134.0	-418227.0
20	17	37	47	872	57.0	-208616.0	-4166.0	-418401.0
20	17	37	47	890	58.0	-206407.0	-4197.0	-418417.0
20	17	37	47	891	59.0	-204978.0	-4209.0	-418359.0
20	17	37	47	892	60.0	-203505.0	-4270.0	-418171.0
20	17	37	47	892	61.0	-202602.0	-4335.0	-418506.0
20	17	37	47	893	62.0	-201539.0	-4375.0	-418713.0
20	17	37	47	894	63.0	-201351.0	-4412.0	-418689.0
20	17	37	47	894	64.0	-201262.0	-4463.0	-418051.0
20	17	37	47	895	65.0	-201201.0	-4502.0	-417534.0
20	17	37	47	896	66.0	-201576.0	-4548.0	-417510.0
20	17	37	47	896	67.0	-201656.0	-4592.0	-417054.0
20	17	37	47	897	68.0	-202042.0	-4641.0	-417059.0
20	17	37	47	897	69.0	-202324.0	-4687.0	-416399.0
20	17	37	47	898	70.0	-203859.0	-4735.0	-415744.0
20	17	37	47	898	71.0	-206359.0	-4784.0	-415270.0
20	17	37	47	899	72.0	-209632.0	-4829.0	-415625.0
20	17	37	47	913	73.0	-213056.0	-4876.0	-415324.0
20	17	37	47	914	74.0	-216107.0	-4932.0	-414937.0
20	17	37	47	915	75.0	-219335.0	-4976.0	-416093.0
20	17	37	47	915	76.0	-222265.0	-5020.0	-416621.0
20	17	37	47	916	77.0	-224720.0	-5051.0	-415309.0
20	17	37	47	916	78.0	-226904.0	-5091.0	-413434.0
20	17	37	47	917	79.0	-228711.0	-5133.0	-412159.0
20	17	37	47	936	80.0	-229942.0	-5185.0	-411184.0
20	17	37	47	937	81.0	-230104.0	-5224.0	-411118.0
20	17	37	47	938	82.0	-229043.0	-5249.0	-411290.0
20	17	37	47	938	83.0	-226594.0	-5283.0	-412042.0
20	17	37	47	939	84.0	-223022.0	-5335.0	-413401.0
20	17	37	47	939	85.0	-218992.0	-5377.0	-413927.0
20	17	37	47	940	86.0	-214464.0	-5426.0	-413517.0
20	17	37	47	965	87.0	-209526.0	-5462.0	-412132.0
20	17	37	47	966	88.0	-204493.0	-5489.0	-411291.0
20	17	37	47	967	89.0	-199477.0	-5524.0	-410557.0
20	17	37	47	967	90.0	-194649.0	-5559.0	-410712.0
20	17	37	47	968	91.0	-189933.0	-5591.0	-411148.0
20	17	37	47	969	92.0	-185437.0	-5600.0	-412066.0
20	17	37	47	969	93.0	-181464.0	-5636.0	-412399.0
20	17	37	47	983	94.0	-178248.0	-5707.0	-412272.0
20	17	37	47	983	95.0	-176219.0	-5748.0	-412525.0
20	17	37	47	984	96.0	-175297.0	-5768.0	-412704.0
20	17	37	47	984	97.0	-175062.0	-5794.0	-412697.0
20	17	37	47	985	98.0	-177169.0	-5807.0	-412449.0
20	17	37	47	986	99.0	-181624.0	-5821.0	-411719.0
20	17	37	47	986	100.0	-187832.0	-5840.0	-410909.0
20	17	37	48	5	101.0	-195702.0	-5873.0	-409852.0
20	17	37	48	6	102.0	-204372.0	-5916.0	-409291.0
20	17	37	48	7	108.0	-243916.0	-5982.0	-409394.0
20	17	37	48	7	109.0	-245983.0	-5987.0	-409546.0
20	17	37	48	8	110.0	-246806.0	-6004.0	-408532.0
20	17	37	48	8	111.0	-246275.0	-6018.0	-407721.0
20	17	37	48	9	112.0	-244517.0	-6026.0	-407633.0
20	17	37	48	29	113.0	-241506.0	-6043.0	-407835.0
20	17	37	48	29	114.0	-237305.0	-6075.0	-408924.0
20	17	37	48	30	116.0	-226536.0	-6128.0	-409954.0
20	17	37	48	31	117.0	-220524.0	-6156.0	-410592.0
20	17	37	48	32	118.0	-214246.0	-6170.0	-410000.0
20	17	37	48	32	119.0	-207572.0	-6177.0	-409473.0
20	17	37	48	33	120.0	-200807.0	-6205.0	-408996.0
20	17	37	48	33	121.0	-194314.0	-6233.0	-408305.0
20	17	37	48	54	122.0	-188039.0	-6264.0	-407529.0
20	17	37	48	55	123.0	-182241.0	-6279.0	-407329.0
20	17	37	48	56	124.0	-176927.0	-6287.0	-406989.0
20	17	37	48	56	125.0	-172471.0	-6299.0	-406384.0
20	17	37	48	57	126.0	-168638.0	-6305.0	-405719.0
20	17	37	48	57	127.0	-165048.0	-6317.0	-405518.0
20	17	37	48	58	128.0	-161836.0	-6307.0	-405690.0
20	17	37	48	58	129.0	-159042.0	-6331.0	-406173.0
20	17	37	48	59	131.0	-153563.0	-6350.0	-406799.0
20	17	37	48	60	132.0	-151196.0	-6359.0	-406397.0
20	17	37	48	60	133.0	-148921.0	-6393.0	-406619.0
20	17	37	48	61	134.0	-146812.0	-6410.0	-406621.0
20	17	37	48	61	135.0	-145084.0	-6418.0	-406196.0
20	17	37	48	62	136.0	-143486.0	-6419.0	-406066.0
20	17	37	48	62	137.0	-142092.0	-6447.0	-405494.0
20	17	37	48	63	138.0	-141843.0	-6445.0	-403679.0
20	17	37	48	64	146.0	-222828.0	-6416.0	-399970.0
20	17	37	48	64	147.0	-235360.0	-6413.0	-400542.0
20	17	37	48	65	148.0	-245806.0	-6412.0	-400646.0
20	17	37	48	65	149.0	-253622.0	-6411.0	-400179.0
20	17	37	48	66	150.0	-258628.0	-6406.0	-399487.0
20	17	37	48	66	151.0	-260867.0	-6404.0	-398534.0
20	17	37	48	67	152.0	-260591.0	-6412.0	-398887.0
20	17	37	48	68	153.0	-257491.0	-6440.0	-399976.0
20	17	37	48	76	154.0	-253423.0	-6459.0	-401112.0
20	17	37	48	77	155.0	-248562.0	-6461.0	-401214.0
20	17	37	48	78	156.0	-240736.0	-6505.0	-401409.0
20	17	37	48	78	157.0	-232628.0	-6531.0	-401457.0
20	17	37	48	79	158.0	-224324.0	-6546.0	-401227.0
20	17	37	48	80	159.0	-217012.0	-6551.0	-400864.0
20	17	37	48	80	160.0	-210147.0	-6577.0	-400310.0
20	17	37	48	81	161.0	-204336.0	-6634.0	-399882.0
20	17	37	48	81	162.0	-199552.0	-6655.0	-399010.0
20	17	37	48	99	163.0	-195586.0	-6674.0	-398074.0
20	17	37	48	100	164.0	-192466.0	-6701.0	-397221.0
20	17	37	48	101	165.0	-190015.0	-6737.0	-396037.0
20	17	37	48	101	166.0	-188052.0	-6746.0	-394949.0
20	17	37	48	102	167.0	-186529.0	-6766.0	-394437.0
20	17	37	48	103	168.0	-185371.0	-6804.0	-395296.0
20	17	37	48	103	169.0	-184392.0	-6826.0	-396463.0
20	17	37	48	104	170.0	-183630.0	-6866.0	-398064.0
20	17	37	48	105	171.0	-183045.0	-6899.0	-401247.0
20	17	37	48	105	172.0	-182343.0	-6918.0	-404401.0
20	17	37	48	106	173.0	-181727.0	-6969.0	-407992.0
20	17	37	48	106	174.0	-181283.0	-7004.0	-412484.0
20	17	37	48	107	175.0	-181254.0	-7020.0	-418617.0
20	17	37	48	108	176.0	-182201.0	-7040.0	-423735.0
20	17	37	48	122	177.0	-183324.0	-7065.0	-429355.0
20	17	37	48	123	178.0	-185459.0	-7090.0	-436177.0
20	17	37	48	123	179.0	-188621.0	-7104.0	-442225.0
20	17	37	48	124	180.0	-193266.0	-7139.0	-445314.0
20	17	37	48	125	181.0	-199199.0	-7173.0	-446767.0
20	17	37	48	125	182.0	-205636.0	-7196.0	-444136.0
20	17	37	48	126	183.0	-210870.0	-7243.0	-435916.0
20	17	37	48	145	184.0	-215215.0	-7305.0	-423628.0
20	17	37	48	145	185.0	-219379.0	-7335.0	-406739.0
20	17	37	48	146	186.0	-224056.0	-7387.0	-385339.0
20	17	37	48	147	187.0	-227244.0	-7441.0	-373013.0
20	17	37	48	148	188.0	-229572.0	-7474.0	-370196.0
20	17	37	48	148	189.0	-232361.0	-7530.0	-370269.0
20	17	37	48	149	190.0	-235228.0	-7576.0	-371885.0
20	17	37	48	149	191.0	-237596.0	-7606.0	-374464.0
20	17	37	48	150	192.0	-238577.0	-7651.0	-378555.0
20	17	37	48	151	193.0	-238263.0	-7699.0	-381001.0
20	17	37	48	151	194.0	-235683.0	-7762.0	-382926.0
20	17	37	48	169	195.0	-231987.0	-7826.0	-385476.0
20	17	37	48	169	196.0	-226776.0	-7866.0	-388096.0
20	17	37	48	170	197.0	-219306.0	-7890.0	-391145.0
20	17	37	48	171	198.0	-209743.0	-7910.0	-393165.0
20	17	37	48	171	199.0	-197641.0	-7938.0	-394446.0
20	17	37	48	172	200.0	-185046.0	-7956.0	-395461.0
20	17	37	48	173	201.0	-172232.0	-7965.0	-396279.0
20	17	37	48	191	202.0	-161592.0	-8022.0	-396902.0
20	17	37	48	192	203.0	-146784.0	-8099.0	-397589.0
20	17	37	48	193	204.0	-131272.0	-8124.0	-398759.0
20	17	37	48	193	205.0	-174324.0	-8167.0	-400085.0
20	17	37	48	194	206.0	-153355.0	-8207.0	-400872.0
20	17	37	48	195	207.0	-171496.0	-8237.0	-401103.0
20	17	37	48	195	208.0	-176235.0	-8269.0	-401295.0
20	17	37	48	214	209.0	-185977.0	-8307.0	-402076.0
20	17	37	48	215	210.0	-194654.0	-8357.0	-402639.0
20	17	37	48	216	211.0	-202930.0	-8397.0	-402840.0
20	17	37	48	216	212.0	-211825.0	-8419.0	-402953.0
20	17	37	48	217	213.0	-218705.0	-8447.0	-403076.0
20	17	37	48	218	214.0	-226229.0	-8499.0	-403101.0
20	17	37	48	218	215.0	-232376.0	-8560.0	-402886.0
20	17	37	48	237	216.0	-236657.0	-8594.0	-402221.0
20	17	37	48	238	217.0	-239444.0	-8609.0	-402355.0
20	17	37	48	238	221.0	-228420.0	-8755.0	-405107.0
20	17	37	48	239	222.0	-222029.0	-8776.0	-405221.0
20	17	37	48	240	223.0	-214650.0	-8828.0	-405639.0
20	17	37	48	240	224.0	-208067.0	-8874.0	-405695.0
20	17	37	48	241	225.0	-202293.0	-8940.0	-405539.0
20	17	37	48	242	226.0	-197212.0	-8990.0	-405352.0
20	17	37	48	242	227.0	-193262.0	-9013.0	-405219.0
20	17	37	48	243	228.0	-189764.0	-9063.0	-406064.0
20	17	37	48	243	229.0	-186522.0	-9136.0	-407111.0
20	17	37	48	244	230.0	-184049.0	-9157.0	-406697.0
20	17	37	48	245	231.0	-182172.0	-9206.0	-406361.0
20	17	37	48	245	232.0	-180734.0	-9256.0	-405337.0
20	17	37	48	267	233.0	-180680.0	-9327.0	-404525.0
20	17	37	48	268	234.0	-181343.0	-9397.0	-404669.0
20	17	37	48	269	236.0	-184737.0	-9475.0	-404286.0
20	17	37	48	269	237.0	-186599.0	-9540.0	-403649.0
20	17	37	48	270	238.0	-188785.0	-9593.0	-403376.0
20	17	37	48	270	239.0	-190200.0	-9639.0	-403344.0
20	17	37	48	271	240.0	-191467.0	-9692.0	-402833.0
20	17	37	48	296	241.0	-192347.0	-9755.0	-401661.0
20	17	37	48	297	242.0	-192232.0	-9809.0	-400816.0
20	17	37	48	298	243.0	-191907.0	-9879.0	-400979.0
20	17	37	48	299	244.0	-190689.0	-9948.0	-401055.0
20	17	37	48	299	245.0	-189522.0	-9959.0	-401992.0
20	17	37	48	300	246.0	-188839.0	-9994.0	-402022.0
20	17	37	48	301	247.0	-188109.0	-10036.0	-401503.0
20	17	37	48	314	248.0	-188326.0	-10067.0	-401434.0
20	17	37	48	315	249.0	-188602.0	-10119.0	-401756.0
20	17	37	48	315	2.0	-195124.0	-10446.0	-401638.0
20	17	37	48	316	3.0	-195222.0	-10490.0	-401732.0
20	17	37	48	317	4.0	-194305.0	-10531.0	-402267.0
20	17	37	48	317	5.0	-193542.0	-10556.0	-401692.0
20	17	37	48	318	6.0	-192943.0	-10602.0	-401166.0
20	17	37	48	338	7.0	-191480.0	-10684.0	-402366.0
20	17	37	48	339	8.0	-190745.0	-10744.0	-403042.0
20	17	37	48	339	17.0	-187924.0	-11107.0	-406171.0
20	17	37	48	340	18.0	-188371.0	-11147.0	-406085.0
20	17	37	48	341	19.0	-188804.0	-11186.0	-405692.0
20	17	37	48	342	20.0	-188738.0	-11214.0	-405367.0
20	17	37	48	342	21.0	-189406.0	-11249.0	-404807.0
20	17	37	48	343	22.0	-188996.0	-11309.0	-403809.0
20	17	37	48	344	23.0	-188652.0	-11369.0	-403206.0
20	17	37	48	344	25.0	-186880.0	-11471.0	-402331.0
20	17	37	48	345	26.0	-186555.0	-11530.0	-401179.0
20	17	37	48	346	27.0	-186371.0	-11611.0	-400276.0
20	17	37	48	346	28.0	-186219.0	-11683.0	-399672.0
20	17	37	48	347	29.0	-185967.0	-11762.0	-399142.0
20	17	37	48	348	30.0	-185704.0	-11788.0	-398414.0
20	17	37	48	348	31.0	-186399.0	-11847.0	-397602.0
20	17	37	48	361	32.0	-186281.0	-11918.0	-396969.0
20	17	37	48	362	33.0	-185059.0	-11982.0	-396791.0
20	17	37	48	362	34.0	-184054.0	-12029.0	-396274.0
20	17	37	48	363	35.0	-184062.0	-12098.0	-394876.0
20	17	37	48	384	36.0	-182159.0	-12147.0	-393395.0
20	17	37	48	385	37.0	-179659.0	-12190.0	-392174.0
20	17	37	48	386	38.0	-176794.0	-12238.0	-390853.0
20	17	37	48	386	40.0	-174951.0	-12346.0	-387851.0
20	17	37	48	387	41.0	-175196.0	-12381.0	-386967.0
20	17	37	48	388	42.0	-177594.0	-12412.0	-386292.0
20	17	37	48	389	43.0	-179908.0	-12466.0	-386041.0
20	17	37	48	389	44.0	-181816.0	-12499.0	-385566.0
20	17	37	48	390	45.0	-184052.0	-12537.0	-385404.0
20	17	37	48	391	46.0	-185667.0	-12576.0	-385217.0
20	17	37	48	391	47.0	-188432.0	-12622.0	-384903.0
20	17	37	48	392	48.0	-190477.0	-12671.0	-384059.0
20	17	37	48	392	49.0	-191685.0	-12702.0	-382919.0
20	17	37	48	393	50.0	-192798.0	-12741.0	-382566.0
20	17	37	48	394	51.0	-193132.0	-12776.0	-382934.0
20	17	37	48	407	54.0	-194544.0	-12846.0	-381097.0
20	17	37	48	408	55.0	-194786.0	-12862.0	-379864.0
20	17	37	48	408	56.0	-194057.0	-12892.0	-378771.0
20	17	37	48	409	57.0	-193912.0	-12909.0	-378457.0
20	17	37	48	410	58.0	-194211.0	-12937.0	-378290.0
20	17	37	48	410	59.0	-194803.0	-12956.0	-378349.0
20	17	37	48	411	60.0	-196095.0	-12983.0	-379189.0
20	17	37	48	412	61.0	-197586.0	-12999.0	-380021.0
20	17	37	48	412	62.0	-198656.0	-12995.0	-379753.0
20	17	37	48	430	63.0	-200690.0	-12988.0	-378898.0
20	17	37	48	431	64.0	-202341.0	-12996.0	-378441.0
20	17	37	48	431	65.0	-204500.0	-13009.0	-378603.0
20	17	37	48	432	66.0	-207336.0	-13037.0	-378191.0
20	17	37	48	433	67.0	-208666.0	-13059.0	-377469.0
20	17	37	48	434	68.0	-210870.0	-13061.0	-377465.0
20	17	37	48	434	69.0	-212728.0	-13062.0	-377772.0
20	17	37	48	435	70.0	-213712.0	-13059.0	-377823.0
20	17	37	48	435	71.0	-215796.0	-13041.0	-378424.0
20	17	37	48	436	72.0	-218206.0	-13029.0	-378704.0
20	17	37	48	437	73.0	-221589.0	-13014.0	-377538.0
20	17	37	48	437	74.0	-226402.0	-12993.0	-376852.0
20	17	37	48	438	75.0	-231504.0	-12961.0	-376641.0
20	17	37	48	438	76.0	-237956.0	-12946.0	-376189.0
20	17	37	48	439	77.0	-244947.0	-12942.0	-376468.0
20	17	37	48	458	78.0	-251806.0	-12924.0	-377097.0
20	17	37	48	460	79.0	-258450.0	-12908.0	-377419.0
20	17	37	48	462	80.0	-263527.0	-12890.0	-377363.0
20	17	37	48	463	81.0	-267882.0	-12867.0	-377059.0
20	17	37	48	464	82.0	-269204.0	-12824.0	-376994.0
20	17	37	48	464	83.0	-266579.0	-12797.0	-376427.0
20	17	37	48	465	84.0	-262331.0	-12779.0	-375821.0
20	17	37	48	465	85.0	-254371.0	-12746.0	-375271.0
20	17	37	48	466	86.0	-239950.0	-12723.0	-374829.0
20	17	37	48	466	87.0	-221390.0	-12710.0	-374454.0
20	17	37	48	467	88.0	-204759.0	-12657.0	-374906.0
20	17	37	48	468	89.0	-193417.0	-12623.0	-374951.0
20	17	37	48	468	90.0	-191189.0	-12595.0	-374127.0
20	17	37	48	469	91.0	-192821.0	-12581.0	-373320.0
20	17	37	48	469	92.0	-200799.0	-12557.0	-372058.0
20	17	37	48	470	93.0	-210522.0	-12531.0	-371460.0
20	17	37	48	470	94.0	-217758.0	-12511.0	-371387.0
20	17	37	48	471	95.0	-219409.0	-12489.0	-370911.0
20	17	37	48	472	96.0	-217849.0	-12478.0	-370887.0
20	17	37	48	472	97.0	-213667.0	-12466.0	-371121.0
20	17	37	48	473	98.0	-209261.0	-12432.0	-371091.0
20	17	37	48	480	99.0	-206094.0	-12406.0	-370418.0
20	17	37	48	481	100.0	-203374.0	-12369.0	-370339.0
20	17	37	48	482	101.0	-201759.0	-12334.0	-370337.0
20	17	37	48	482	102.0	-200821.0	-12317.0	-370367.0
20	17	37	48	483	103.0	-199198.0	-12309.0	-370121.0
20	17	37	48	483	104.0	-197757.0	-12307.0	-369430.0
20	17	37	48	484	105.0	-194677.0	-12281.0	-369372.0
20	17	37	48	484	106.0	-191082.0	-12272.0	-368986.0
20	17	37	48	485	107.0	-188106.0	-12261.0	-368698.0
20	17	37	48	504	108.0	-185511.0	-12243.0	-368412.0
20	17	37	48	505	109.0	-184954.0	-12230.0	-368178.0
20	17	37	48	506	110.0	-186019.0	-12199.0	-368222.0
20	17	37	48	506	111.0	-187000.0	-12177.0	-368657.0
20	17	37	48	507	112.0	-188839.0	-12181.0	-368891.0
20	17	37	48	507	113.0	-189773.0	-12181.0	-369472.0
20	17	37	48	508	114.0	-189277.0	-12191.0	-369139.0
20	17	37	48	508	115.0	-188664.0	-12216.0	-368799.0
20	17	37	48	509	116.0	-186737.0	-12225.0	-369222.0
20	17	37	48	527	117.0	-184076.0	-12225.0	-369025.0
20	17	37	48	528	118.0	-182220.0	-12235.0	-369519.0
20	17	37	48	528	119.0	-180168.0	-12240.0	-369347.0
20	17	37	48	529	120.0	-178576.0	-12211.0	-368684.0
20	17	37	48	530	121.0	-178332.0	-12196.0	-368100.0
20	17	37	48	530	122.0	-178511.0	-12186.0	-367171.0
20	17	37	48	531	123.0	-179406.0	-12165.0	-366486.0
20	17	37	48	531	124.0	-180944.0	-12146.0	-366463.0
20	17	37	48	532	125.0	-182382.0	-12122.0	-367042.0
20	17	37	48	532	126.0	-184411.0	-12138.0	-367764.0
20	17	37	48	533	127.0	-187093.0	-12132.0	-367286.0
20	17	37	48	534	128.0	-189749.0	-12138.0	-366857.0
20	17	37	48	534	129.0	-192390.0	-12126.0	-367479.0
20	17	37	48	535	130.0	-194859.0	-12096.0	-366806.0
20	17	37	48	535	131.0	-196841.0	-12099.0	-366507.0
20	17	37	48	536	132.0	-197765.0	-12096.0	-366693.0
20	17	37	48	536	133.0	-197896.0	-12091.0	-366485.0
20	17	37	48	537	134.0	-197463.0	-12101.0	-365860.0
20	17	37	48	537	135.0	-196987.0	-12116.0	-365127.0
20	17	37	48	538	136.0	-196921.0	-12131.0	-364557.0
20	17	37	48	550	137.0	-197217.0	-12141.0	-364383.0
20	17	37	48	551	138.0	-198023.0	-12141.0	-364161.0
20	17	37	48	552	139.0	-199427.0	-12140.0	-363231.0
20	17	37	48	553	140.0	-201076.0	-12137.0	-362145.0
20	17	37	48	553	141.0	-202744.0	-12115.0	-360684.0
20	17	37	48	554	142.0	-204581.0	-12109.0	-359510.0
20	17	37	48	554	143.0	-206136.0	-12094.0	-359092.0
20	17	37	48	574	144.0	-207399.0	-12091.0	-358836.0
20	17	37	48	575	145.0	-208506.0	-12092.0	-358211.0
20	17	37	48	576	146.0	-209571.0	-12121.0	-357875.0
20	17	37	48	576	147.0	-210294.0	-12122.0	-357457.0
20	17	37	48	577	148.0	-210599.0	-12129.0	-357386.0
20	17	37	48	577	149.0	-211254.0	-12131.0	-357704.0
20	17	37	48	578	150.0	-211949.0	-12104.0	-357364.0
20	17	37	48	598	151.0	-212190.0	-12117.0	-356246.0
20	17	37	48	599	152.0	-212535.0	-12151.0	-355229.0
20	17	37	48	600	153.0	-212957.0	-12151.0	-354136.0
20	17	37	48	600	154.0	-213762.0	-12162.0	-353719.0
20	17	37	48	601	155.0	-214231.0	-12171.0	-354297.0
20	17	37	48	602	156.0	-214167.0	-12203.0	-355100.0
20	17	37	48	602	157.0	-213577.0	-12241.0	-356041.0
20	17	37	48	603	158.0	-212126.0	-12249.0	-356230.0
20	17	37	48	603	159.0	-210794.0	-12252.0	-355797.0
20	17	37	48	604	160.0	-209045.0	-12259.0	-355659.0
20	17	37	48	604	161.0	-206585.0	-12260.0	-355190.0
20	17	37	48	605	162.0	-204471.0	-12287.0	-354188.0
20	17	37	48	626	163.0	-201616.0	-12304.0	-353060.0
20	17	37	48	627	164.0	-199378.0	-12324.0	-352557.0
20	17	37	48	628	165.0	-197634.0	-12322.0	-352106.0
20	17	37	48	628	166.0	-195659.0	-12347.0	-352137.0
20	17	37	48	629	167.0	-194272.0	-12364.0	-352043.0
20	17	37	48	629	168.0	-193119.0	-12384.0	-352256.0
20	17	37	48	645	169.0	-193138.0	-12382.0	-352462.0
20	17	37	48	646	170.0	-193100.0	-12394.0	-352910.0
20	17	37	48	646	171.0	-192680.0	-12412.0	-353207.0
20	17	37	48	647	172.0	-192914.0	-12421.0	-353181.0
20	17	37	48	648	173.0	-194492.0	-12426.0	-352486.0
20	17	37	48	648	174.0	-196075.0	-12459.0	-351858.0
20	17	37	48	649	175.0	-197779.0	-12467.0	-351446.0
20	17	37	48	669	176.0	-199949.0	-12482.0	-351514.0
20	17	37	48	670	177.0	-201672.0	-12505.0	-351572.0
20	17	37	48	671	178.0	-203486.0	-12528.0	-351033.0
20	17	37	48	672	182.0	-205932.0	-12589.0	-347277.0
20	17	37	48	672	183.0	-205271.0	-12585.0	-346347.0
20	17	37	48	673	184.0	-204573.0	-12593.0	-346117.0
20	17	37	48	674	185.0	-203684.0	-12592.0	-346087.0
20	17	37	48	674	186.0	-203091.0	-12617.0	-346551.0
20	17	37	48	675	187.0	-203348.0	-12642.0	-347769.0
20	17	37	48	675	189.0	-204668.0	-12672.0	-348601.0
20	17	37	48	676	190.0	-205355.0	-12669.0	-348747.0
20	17	37	48	676	191.0	-206551.0	-12677.0	-348943.0
20	17	37	48	677	192.0	-208061.0	-12693.0	-350182.0
20	17	37	48	677	193.0	-209838.0	-12701.0	-350500.0
20	17	37	48	701	194.0	-212322.0	-12698.0	-350706.0
20	17	37	48	702	195.0	-214688.0	-12744.0	-351284.0
20	17	37	48	702	197.0	-219251.0	-12776.0	-351742.0
20	17	37	48	703	198.0	-221366.0	-12779.0	-351434.0
20	17	37	48	704	199.0	-222461.0	-12793.0	-351197.0
20	17	37	48	704	200.0	-222727.0	-12788.0	-351191.0
20	17	37	48	716	201.0	-222774.0	-12805.0	-351092.0
20	17	37	48	716	202.0	-221518.0	-12823.0	-350864.0
20	17	37	48	717	203.0	-219852.0	-12846.0	-350301.0
20	17	37	48	718	204.0	-218182.0	-12864.0	-349309.0
20	17	37	48	718	205.0	-216878.0	-12896.0	-348577.0
20	17	37	48	719	206.0	-216374.0	-12924.0	-348694.0
20	17	37	48	719	207.0	-216644.0	-12963.0	-348210.0
20	17	37	48	740	208.0	-216617.0	-12981.0	-347649.0
20	17	37	48	740	209.0	-216712.0	-13009.0	-346504.0
20	17	37	48	741	210.0	-216859.0	-13015.0	-345621.0
20	17	37	48	741	219.0	-206679.0	-13117.0	-344444.0
20	17	37	48	742	220.0	-204485.0	-13109.0	-344076.0
20	17	37	48	762	221.0	-203328.0	-13113.0	-343305.0
20	17	37	48	763	222.0	-202827.0	-13106.0	-342377.0
20	17	37	48	764	223.0	-202110.0	-13096.0	-341836.0
20	17	37	48	764	224.0	-201963.0	-13099.0	-342683.0
20	17	37	48	765	227.0	-198865.0	-13163.0	-344442.0
20	17	37	48	766	228.0	-197255.0	-13187.0	-344068.0
20	17	37	48	766	229.0	-194185.0	-13185.0	-343679.0
20	17	37	48	767	230.0	-176949.0	-13159.0	-343484.0
20	17	37	48	767	231.0	-184142.0	-13145.0	-343255.0
20	17	37	48	768	232.0	-203913.0	-13178.0	-343221.0
20	17	37	48	786	233.0	-181016.0	-13171.0	-343111.0
20	17	37	48	787	234.0	-192087.0	-13166.0	-343161.0
20	17	37	48	787	235.0	-184317.0	-13167.0	-342962.0
20	17	37	48	788	236.0	-187798.0	-13161.0	-342876.0
20	17	37	48	789	237.0	-186568.0	-13172.0	-342717.0
20	17	37	48	789	241.0	-193094.0	-13146.0	-341247.0
20	17	37	48	790	242.0	-193876.0	-13151.0	-341087.0
20	17	37	48	791	243.0	-195126.0	-13146.0	-341635.0
20	17	37	48	791	249.0	-195061.0	-13241.0	-340892.0
20	17	37	48	792	250.0	-194757.0	-13244.0	-340371.0
20	17	37	48	793	251.0	-194923.0	-13229.0	-340624.0
20	17	37	48	793	252.0	-195114.0	-13216.0	-340903.0
20	17	37	48	794	253.0	-195754.0	-13241.0	-340685.0
20	17	37	48	794	254.0	-196798.0	-13264.0	-340075.0
20	17	37	48	810	255.0	-198679.0	-13297.0	-338632.0
20	17	37	48	833	0.0	-199469.0	-13307.0	-337964.0
20	17	37	48	834	1.0	-199403.0	-13341.0	-336954.0
20	17	37	48	835	2.0	-199059.0	-13366.0	-336657.0
20	17	37	48	835	3.0	-196927.0	-13384.0	-336468.0
20	17	37	48	836	4.0	-194466.0	-13403.0	-336319.0
20	17	37	48	836	5.0	-190621.0	-13449.0	-336732.0
20	17	37	48	837	6.0	-186799.0	-13478.0	-336474.0
20	17	37	48	856	7.0	-183202.0	-13499.0	-336722.0
20	17	37	48	856	8.0	-178237.0	-13511.0	-336912.0
20	17	37	48	857	9.0	-174346.0	-13544.0	-338366.0
20	17	37	48	858	10.0	-171878.0	-13556.0	-341400.0
20	17	37	48	858	11.0	-171066.0	-13584.0	-345411.0
20	17	37	48	859	12.0	-171799.0	-13621.0	-348395.0
20	17	37	48	860	13.0	-173195.0	-13653.0	-351661.0
20	17	37	48	860	14.0	-175633.0	-13666.0	-356086.0
20	17	37	48	861	16.0	-182045.0	-13711.0	-366841.0
20	17	37	48	861	23.0	-202851.0	-13812.0	-378594.0
20	17	37	48	862	24.0	-203492.0	-13829.0	-365506.0
20	17	37	48	863	25.0	-204476.0	-13831.0	-349642.0
20	17	37	48	863	26.0	-206616.0	-13873.0	-328879.0
20	17	37	48	864	27.0	-209324.0	-13892.0	-310671.0
20	17	37	48	864	28.0	-211820.0	-13904.0	-304185.0
20	17	37	48	865	29.0	-215131.0	-13922.0	-303015.0
20	17	37	48	866	38.0	-213402.0	-14145.0	-325886.0
20	17	37	48	866	39.0	-204007.0	-14179.0	-327582.0
20	17	37	48	867	40.0	-194005.0	-14208.0	-329117.0
20	17	37	48	867	41.0	-182893.0	-14256.0	-330787.0
20	17	37	48	868	42.0	-173320.0	-14326.0	-332096.0
20	17	37	48	869	43.0	-167131.0	-14335.0	-332821.0
20	17	37	48	869	44.0	-163071.0	-14356.0	-332934.0
20	17	37	48	870	45.0	-163647.0	-14387.0	-334162.0
20	17	37	48	870	46.0	-167352.0	-14422.0	-335778.0
20	17	37	48	880	47.0	-174181.0	-14442.0	-336319.0
20	17	37	48	881	48.0	-181953.0	-14482.0	-336743.0
20	17	37	48	882	49.0	-190488.0	-14526.0	-337988.0
20	17	37	48	883	50.0	-196593.0	-14597.0	-338791.0
20	17	37	48	883	51.0	-201191.0	-14657.0	-339224.0
20	17	37	48	884	52.0	-206222.0	-14704.0	-339318.0
20	17	37	48	884	53.0	-210612.0	-14742.0	-339992.0
20	17	37	48	885	54.0	-214138.0	-14789.0	-340599.0
20	17	37	48	901	55.0	-217656.0	-14836.0	-340756.0
20	17	37	48	902	56.0	-219575.0	-14872.0	-340439.0
20	17	37	48	903	57.0	-221005.0	-14924.0	-339698.0
20	17	37	48	903	58.0	-222384.0	-14981.0	-339164.0
20	17	37	48	904	59.0	-221801.0	-15037.0	-339702.0
20	17	37	48	905	60.0	-219277.0	-15079.0	-340499.0
20	17	37	48	905	61.0	-215526.0	-15153.0	-340037.0
20	17	37	48	926	62.0	-211058.0	-15191.0	-339316.0
20	17	37	48	926	63.0	-203357.0	-15239.0	-339340.0
20	17	37	48	927	64.0	-197834.0	-15263.0	-339791.0
20	17	37	48	928	65.0	-191255.0	-15301.0	-339551.0
20	17	37	48	928	66.0	-186391.0	-15339.0	-339759.0
20	17	37	48	929	67.0	-183612.0	-15379.0	-339625.0
20	17	37	48	930	68.0	-180216.0	-15412.0	-339291.0
20	17	37	48	930	69.0	-179152.0	-15442.0	-339213.0
20	17	37	48	949	70.0	-178146.0	-15461.0	-338924.0
20	17	37	48	949	71.0	-176223.0	-15495.0	-338294.0
20	17	37	48	950	72.0	-177373.0	-15536.0	-338524.0
20	17	37	48	951	73.0	-179058.0	-15547.0	-339136.0
20	17	37	48	951	74.0	-181288.0	-15574.0	-339657.0
20	17	37	48	952	75.0	-183581.0	-15628.0	-340202.0
20	17	37	48	952	76.0	-186104.0	-15679.0	-341206.0
20	17	37	48	972	77.0	-188891.0	-15706.0	-341396.0
20	17	37	48	972	78.0	-190983.0	-15736.0	-341633.0
20	17	37	48	973	79.0	-192816.0	-15772.0	-341732.0
20	17	37	48	973	80.0	-193451.0	-15806.0	-341932.0
20	17	37	48	974	81.0	-195577.0	-15840.0	-341853.0
20	17	37	48	975	82.0	-194792.0	-15879.0	-341457.0
20	17	37	48	975	83.0	-194361.0	-15917.0	-340787.0
20	17	37	48	976	84.0	-196637.0	-15952.0	-340314.0
20	17	37	48	976	85.0	-196194.0	-15966.0	-340299.0
20	17	37	48	977	86.0	-196342.0	-15966.0	-340239.0
20	17	37	48	977	87.0	-198579.0	-15976.0	-339927.0
20	17	37	48	978	88.0	-201694.0	-15992.0	-339092.0
20	17	37	48	978	89.0	-202107.0	-16020.0	-338933.0
20	17	37	48	979	90.0	-204037.0	-16074.0	-338277.0
20	17	37	48	996	91.0	-205669.0	-16093.0	-337749.0
20	17	37	48	996	92.0	-205701.0	-16133.0	-338269.0
20	17	37	48	997	93.0	-205899.0	-16148.0	-338919.0
20	17	37	48	998	94.0	-203794.0	-16175.0	-339173.0
20	17	37	48	998	95.0	-202940.0	-16193.0	-340049.0
20	17	37	48	999	96.0	-200527.0	-16215.0	-341274.0
20	17	37	48	999	97.0	-195549.0	-16231.0	-342291.0
20	17	37	49	0	98.0	-192021.0	-16237.0	-342077.0
20	17	37	49	1	99.0	-187367.0	-16267.0	-342118.0
20	17	37	49	1	100.0	-182279.0	-16292.0	-342712.0
20	17	37	49	2	101.0	-178916.0	-16297.0	-342214.0
20	17	37	49	2	102.0	-175821.0	-16308.0	-341720.0
20	17	37	49	3	103.0	-177074.0	-16318.0	-341854.0
20	17	37	49	4	104.0	-179089.0	-16349.0	-341764.0
20	17	37	49	18	105.0	-180685.0	-16383.0	-342195.0
20	17	37	49	19	106.0	-184797.0	-16417.0	-342191.0
20	17	37	49	19	107.0	-189062.0	-16444.0	-342469.0
20	17	37	49	20	108.0	-194701.0	-16461.0	-343207.0
20	17	37	49	21	109.0	-200074.0	-16491.0	-343616.0
20	17	37	49	21	110.0	-203966.0	-16521.0	-344293.0
20	17	37	49	22	111.0	-207950.0	-16520.0	-344715.0
20	17	37	49	41	112.0	-212180.0	-16534.0	-345184.0
20	17	37	49	42	113.0	-213113.0	-16552.0	-345925.0
20	17	37	49	43	114.0	-215475.0	-16572.0	-346171.0
20	17	37	49	43	115.0	-217257.0	-16584.0	-346781.0
20	17	37	49	65	116.0	-219116.0	-16623.0	-346662.0
20	17	37	49	66	117.0	-219019.0	-16649.0	-346794.0
20	17	37	49	66	118.0	-217855.0	-16671.0	-346456.0
20	17	37	49	67	119.0	-217957.0	-16700.0	-346271.0
20	17	37	49	67	120.0	-216766.0	-16736.0	-346175.0
20	17	37	49	68	121.0	-214317.0	-16770.0	-345447.0
20	17	37	49	68	122.0	-214020.0	-16774.0	-344457.0
20	17	37	49	88	123.0	-213979.0	-16754.0	-343181.0
20	17	37	49	88	124.0	-215006.0	-16769.0	-342731.0
20	17	37	49	89	125.0	-215209.0	-16801.0	-342674.0
20	17	37	49	89	126.0	-217220.0	-16837.0	-342455.0
20	17	37	49	90	127.0	-221056.0	-16846.0	-342144.0
20	17	37	49	91	128.0	-223221.0	-16844.0	-340371.0
20	17	37	49	91	129.0	-225361.0	-16875.0	-338882.0
20	17	37	49	92	130.0	-229306.0	-16889.0	-339166.0
20	17	37	49	92	131.0	-230661.0	-16917.0	-339476.0
20	17	37	49	93	135.0	-227743.0	-16982.0	-335837.0
20	17	37	49	93	136.0	-225231.0	-16974.0	-334927.0
20	17	37	49	94	137.0	-223032.0	-16990.0	-333489.0
20	17	37	49	95	138.0	-219380.0	-16993.0	-332441.0
20	17	37	49	95	139.0	-215445.0	-16999.0	-332205.0
20	17	37	49	96	140.0	-210934.0	-16995.0	-331313.0
20	17	37	49	96	141.0	-206244.0	-17013.0	-330382.0
20	17	37	49	97	150.0	-163978.0	-17009.0	-328031.0
20	17	37	49	97	151.0	-161981.0	-16992.0	-327107.0
20	17	37	49	98	152.0	-160172.0	-16967.0	-325559.0
20	17	37	49	110	153.0	-161254.0	-16947.0	-325703.0
20	17	37	49	111	154.0	-164804.0	-16926.0	-326000.0
20	17	37	49	112	155.0	-168805.0	-16905.0	-325778.0
20	17	37	49	112	156.0	-174824.0	-16887.0	-324475.0
20	17	37	49	113	157.0	-181684.0	-16859.0	-323024.0
20	17	37	49	114	158.0	-188532.0	-16827.0	-322246.0
20	17	37	49	114	159.0	-196309.0	-16799.0	-321909.0
20	17	37	49	115	160.0	-202789.0	-16752.0	-321270.0
20	17	37	49	115	161.0	-206291.0	-16722.0	-320532.0
20	17	37	49	116	162.0	-210048.0	-16676.0	-320802.0
20	17	37	49	117	163.0	-212708.0	-16631.0	-321668.0
20	17	37	49	117	164.0	-214236.0	-16598.0	-322084.0
20	17	37	49	118	165.0	-215927.0	-16570.0	-321839.0
20	17	37	49	118	166.0	-216704.0	-16521.0	-322063.0
20	17	37	49	119	167.0	-216316.0	-16459.0	-322319.0
20	17	37	49	120	168.0	-215217.0	-16415.0	-322753.0
20	17	37	49	121	169.0	-214228.0	-16380.0	-323633.0
20	17	37	49	121	170.0	-213642.0	-16344.0	-323977.0
20	17	37	49	122	171.0	-214459.0	-16283.0	-324065.0
20	17	37	49	123	172.0	-215925.0	-16228.0	-324408.0
20	17	37	49	135	173.0	-218048.0	-16165.0	-323762.0
20	17	37	49	135	174.0	-220334.0	-16114.0	-322936.0
20	17	37	49	157	175.0	-222624.0	-16056.0	-322350.0
20	17	37	49	158	176.0	-225723.0	-16019.0	-322269.0
20	17	37	49	159	177.0	-227270.0	-15957.0	-322127.0
20	17	37	49	159	178.0	-228681.0	-15891.0	-322345.0
20	17	37	49	160	179.0	-227066.0	-15838.0	-322488.0
20	17	37	49	160	180.0	-223274.0	-15799.0	-322843.0
20	17	37	49	161	181.0	-218474.0	-15760.0	-323135.0
20	17	37	49	181	182.0	-211186.0	-15711.0	-322987.0
20	17	37	49	182	183.0	-199256.0	-15654.0	-322497.0
20	17	37	49	182	184.0	-185600.0	-15594.0	-321732.0
20	17	37	49	183	185.0	-173380.0	-15556.0	-322019.0
20	17	37	49	184	186.0	-166642.0	-15488.0	-322532.0
20	17	37	49	184	187.0	-165700.0	-15410.0	-322809.0
20	17	37	49	185	188.0	-168459.0	-15337.0	-322649.0
20	17	37	49	185	189.0	-176987.0	-15304.0	-322449.0
20	17	37	49	186	190.0	-175346.0	-15261.0	-322227.0
20	17	37	49	187	191.0	-211374.0	-15206.0	-322129.0
20	17	37	49	187	192.0	-215151.0	-15144.0	-322178.0
20	17	37	49	188	193.0	-212777.0	-15091.0	-321281.0
20	17	37	49	189	194.0	-216086.0	-15036.0	-320041.0
20	17	37	49	189	195.0	-212124.0	-14974.0	-319964.0
20	17	37	49	190	196.0	-213131.0	-14919.0	-320985.0
20	17	37	49	191	197.0	-209977.0	-14858.0	-321456.0
20	17	37	49	191	203.0	-195127.0	-14528.0	-318280.0
20	17	37	49	192	204.0	-189899.0	-14474.0	-318802.0
20	17	37	49	192	205.0	-187621.0	-14427.0	-319337.0
20	17	37	49	203	206.0	-185271.0	-14379.0	-318792.0
20	17	37	49	204	207.0	-185663.0	-14305.0	-318176.0
20	17	37	49	204	208.0	-186411.0	-14264.0	-317687.0
20	17	37	49	205	209.0	-186527.0	-14234.0	-318512.0
20	17	37	49	205	210.0	-186161.0	-14179.0	-318795.0
20	17	37	49	227	211.0	-185099.0	-14157.0	-318238.0
20	17	37	49	227	212.0	-182934.0	-14101.0	-317292.0
20	17	37	49	228	213.0	-181629.0	-14051.0	-316766.0
20	17	37	49	229	214.0	-180327.0	-14014.0	-316947.0
20	17	37	49	229	215.0	-178762.0	-13963.0	-317634.0
20	17	37	49	230	216.0	-178312.0	-13904.0	-317043.0
20	17	37	49	230	217.0	-178054.0	-13859.0	-316664.0
20	17	37	49	231	218.0	-176992.0	-13816.0	-316886.0
20	17	37	49	231	219.0	-180287.0	-13798.0	-316975.0
20	17	37	49	232	220.0	-183268.0	-13769.0	-316864.0
20	17	37	49	233	221.0	-184128.0	-13724.0	-317177.0
20	17	37	49	233	222.0	-185726.0	-13689.0	-316749.0
20	17	37	49	234	223.0	-188443.0	-13666.0	-316184.0
20	17	37	49	234	224.0	-192410.0	-13642.0	-316471.0
20	17	37	49	235	225.0	-195894.0	-13615.0	-316536.0
20	17	37	49	236	226.0	-200486.0	-13573.0	-316522.0
20	17	37	49	256	227.0	-204598.0	-13537.0	-316692.0
20	17	37	49	257	228.0	-208747.0	-13521.0	-316514.0
20	17	37	49	258	229.0	-212469.0	-13518.0	-316528.0
20	17	37	49	258	230.0	-214958.0	-13489.0	-316031.0
20	17	37	49	259	231.0	-216904.0	-13472.0	-315420.0
20	17	37	49	259	232.0	-218989.0	-13456.0	-314376.0
20	17	37	49	260	233.0	-219902.0	-13442.0	-313652.0
20	17	37	49	273	234.0	-215840.0	-13434.0	-313490.0
20	17	37	49	274	235.0	-208839.0	-13411.0	-313177.0
20	17	37	49	274	236.0	-231451.0	-13390.0	-312758.0
20	17	37	49	275	237.0	-219275.0	-13377.0	-312937.0
20	17	37	49	275	238.0	-222881.0	-13386.0	-313246.0
20	17	37	49	276	239.0	-221698.0	-13379.0	-313101.0
20	17	37	49	277	240.0	-221362.0	-13369.0	-312522.0
20	17	37	49	296	241.0	-221320.0	-13366.0	-312282.0
20	17	37	49	297	242.0	-221037.0	-13349.0	-311664.0
20	17	37	49	319	243.0	-221593.0	-13337.0	-311437.0
20	17	37	49	320	244.0	-219516.0	-13334.0	-310804.0
20	17	37	49	321	245.0	-218219.0	-13324.0	-310629.0
20	17	37	49	321	246.0	-216704.0	-13321.0	-310569.0
20	17	37	49	322	247.0	-215055.0	-13309.0	-310175.0
20	17	37	49	322	248.0	-212831.0	-13309.0	-310409.0
20	17	37	49	323	249.0	-210379.0	-13308.0	-310899.0
20	17	37	49	324	250.0	-207867.0	-13308.0	-310774.0
20	17	37	49	324	251.0	-205496.0	-13305.0	-310666.0
20	17	37	49	325	252.0	-202276.0	-13294.0	-309456.0
20	17	37	49	325	253.0	-198513.0	-13262.0	-307867.0
20	17	37	49	326	254.0	-194055.0	-13227.0	-306724.0
20	17	37	49	326	255.0	-189785.0	-13228.0	-305757.0
20	17	37	49	327	0.0	-185868.0	-13241.0	-304767.0
20	17	37	49	342	1.0	-181902.0	-13222.0	-304280.0
20	17	37	49	343	6.0	-167295.0	-13178.0	-302523.0
20	17	37	49	373	7.0	-165645.0	-13176.0	-303020.0
20	17	37	49	376	8.0	-164776.0	-13181.0	-303746.0
20	17	37	49	376	9.0	-163562.0	-13175.0	-304467.0
20	17	37	49	377	10.0	-162841.0	-13178.0	-304995.0
20	17	37	49	378	11.0	-162611.0	-13169.0	-305018.0
20	17	37	49	378	12.0	-162820.0	-13166.0	-305449.0
20	17	37	49	379	13.0	-163931.0	-13163.0	-305879.0
20	17	37	49	379	14.0	-164642.0	-13171.0	-305982.0
20	17	37	49	380	15.0	-165659.0	-13178.0	-306236.0
20	17	37	49	380	16.0	-168264.0	-13139.0	-306481.0
20	17	37	49	381	17.0	-170794.0	-13132.0	-306380.0
20	17	37	49	382	18.0	-174011.0	-13136.0	-307027.0
20	17	37	49	382	19.0	-177138.0	-13136.0	-307226.0
20	17	37	49	383	20.0	-180300.0	-13154.0	-306826.0
20	17	37	49	383	22.0	-186980.0	-13203.0	-305609.0
20	17	37	49	384	29.0	-205059.0	-13314.0	-304733.0
20	17	37	49	385	30.0	-205732.0	-13330.0	-305662.0
20	17	37	49	385	31.0	-205607.0	-13347.0	-306617.0
20	17	37	49	386	32.0	-205005.0	-13371.0	-307352.0
20	17	37	49	386	33.0	-204226.0	-13392.0	-307365.0
20	17	37	49	387	34.0	-203503.0	-13417.0	-307835.0
20	17	37	49	387	35.0	-202674.0	-13439.0	-308628.0
20	17	37	49	388	36.0	-202084.0	-13439.0	-309600.0
20	17	37	49	388	37.0	-200638.0	-13446.0	-309504.0
20	17	37	49	389	38.0	-198956.0	-13472.0	-309851.0
20	17	37	49	390	44.0	-188882.0	-13613.0	-309229.0
20	17	37	49	390	45.0	-187142.0	-13636.0	-308784.0
20	17	37	49	391	46.0	-185881.0	-13663.0	-307462.0
20	17	37	49	391	47.0	-184779.0	-13682.0	-306976.0
20	17	37	49	392	48.0	-182661.0	-13689.0	-306258.0
20	17	37	49	392	49.0	-180774.0	-13706.0	-305224.0
20	17	37	49	393	50.0	-178050.0	-13709.0	-304573.0
20	17	37	49	393	51.0	-175099.0	-13719.0	-305003.0
20	17	37	49	406	52.0	-172794.0	-13757.0	-305504.0
20	17	37	49	407	53.0	-170681.0	-13754.0	-306237.0
20	17	37	49	407	54.0	-168994.0	-13765.0	-307059.0
20	17	37	49	408	55.0	-168386.0	-13804.0	-307933.0
20	17	37	49	409	56.0	-168637.0	-13831.0	-307822.0
20	17	37	49	409	57.0	-168631.0	-13844.0	-306540.0
20	17	37	49	410	58.0	-169304.0	-13868.0	-305819.0
20	17	37	49	410	59.0	-169650.0	-13894.0	-306394.0
20	17	37	49	411	60.0	-169296.0	-13911.0	-307099.0
20	17	37	49	424	61.0	-168667.0	-13926.0	-307484.0
20	17	37	49	425	62.0	-168071.0	-13945.0	-307281.0
20	17	37	49	425	63.0	-166972.0	-13957.0	-306336.0
20	17	37	49	426	64.0	-166349.0	-13979.0	-305058.0
20	17	37	49	427	65.0	-166118.0	-13984.0	-304534.0
20	17	37	49	427	66.0	-166575.0	-13989.0	-303957.0
20	17	37	49	428	67.0	-166692.0	-14000.0	-303386.0
20	17	37	49	447	68.0	-167331.0	-14003.0	-303205.0
20	17	37	49	448	69.0	-168347.0	-14000.0	-303706.0
20	17	37	49	449	70.0	-168695.0	-14006.0	-305905.0
20	17	37	49	449	71.0	-170087.0	-14009.0	-308603.0
20	17	37	49	450	72.0	-172644.0	-14006.0	-312286.0
20	17	37	49	450	73.0	-175629.0	-14016.0	-316203.0
20	17	37	49	451	74.0	-178086.0	-14017.0	-319597.0
20	17	37	49	452	75.0	-180505.0	-14020.0	-324136.0
20	17	37	49	452	76.0	-182774.0	-13998.0	-328394.0
20	17	37	49	453	77.0	-184671.0	-13982.0	-331393.0
20	17	37	49	453	78.0	-186379.0	-13994.0	-334754.0
20	17	37	49	454	79.0	-188176.0	-14006.0	-337147.0
20	17	37	49	454	80.0	-188617.0	-13992.0	-335916.0
20	17	37	49	455	81.0	-189993.0	-13965.0	-333012.0
20	17	37	49	456	82.0	-191947.0	-13985.0	-330006.0
20	17	37	49	483	83.0	-194042.0	-13980.0	-322302.0
20	17	37	49	483	84.0	-196781.0	-13963.0	-310622.0
20	17	37	49	484	85.0	-200221.0	-13946.0	-299204.0
20	17	37	49	485	86.0	-203885.0	-13935.0	-287196.0
20	17	37	49	485	87.0	-207277.0	-13925.0	-276539.0
20	17	37	49	486	88.0	-210436.0	-13893.0	-274447.0
20	17	37	49	486	89.0	-215277.0	-13882.0	-275771.0
20	17	37	49	487	90.0	-221415.0	-13867.0	-277030.0
20	17	37	49	505	91.0	-227592.0	-13852.0	-278414.0
20	17	37	49	505	92.0	-234523.0	-13839.0	-279921.0
20	17	37	49	506	93.0	-241192.0	-13797.0	-282240.0
20	17	37	49	507	94.0	-248592.0	-13787.0	-286082.0
20	17	37	49	507	95.0	-253987.0	-13765.0	-289573.0
20	17	37	49	508	96.0	-257897.0	-13732.0	-292307.0
20	17	37	49	508	97.0	-259558.0	-13709.0	-294952.0
20	17	37	49	528	98.0	-257750.0	-13692.0	-297658.0
20	17	37	49	528	99.0	-254225.0	-13661.0	-300991.0
