20	17	34	42	963	167.0	-197678.0	-1080.0	30218.0
20	17	34	42	966	168.0	-196251.0	-1081.0	30082.0
20	17	34	42	969	169.0	-195300.0	-1089.0	29857.0
20	17	34	42	972	170.0	-194635.0	-1090.0	29978.0
20	17	34	42	974	171.0	-194264.0	-1069.0	30149.0
20	17	34	42	977	172.0	-193392.0	-1051.0	30278.0
20	17	34	42	979	173.0	-192631.0	-1029.0	30290.0
20	17	34	42	981	174.0	-191669.0	-1020.0	30479.0
20	17	34	42	983	175.0	-190965.0	-1030.0	30371.0
20	17	34	42	984	176.0	-190439.0	-1042.0	29731.0
20	17	34	42	985	177.0	-189806.0	-1062.0	29805.0
20	17	34	42	986	178.0	-189182.0	-1069.0	29816.0
20	17	34	42	987	179.0	-189023.0	-1067.0	29556.0
20	17	34	42	988	180.0	-189138.0	-1035.0	29734.0
20	17	34	42	989	181.0	-189543.0	-1022.0	30318.0
20	17	34	42	989	182.0	-190288.0	-1023.0	30596.0
20	17	34	42	990	183.0	-191204.0	-1009.0	30392.0
20	17	34	42	992	184.0	-192257.0	-988.0	30241.0
20	17	34	42	992	185.0	-193334.0	-989.0	30305.0
20	17	34	43	1	186.0	-194581.0	-996.0	30168.0
20	17	34	43	2	187.0	-195533.0	-994.0	29989.0
20	17	34	43	3	188.0	-195991.0	-1004.0	29361.0
20	17	34	43	3	189.0	-195951.0	-999.0	29581.0
20	17	34	43	35	190.0	-195366.0	-984.0	29945.0
20	17	34	43	80	191.0	-194738.0	-958.0	30379.0
20	17	34	43	80	192.0	-194029.0	-972.0	30543.0
20	17	34	43	81	193.0	-193062.0	-968.0	30533.0
20	17	34	43	82	194.0	-191860.0	-957.0	30739.0
20	17	34	43	83	195.0	-190417.0	-967.0	30832.0
20	17	34	43	83	196.0	-189153.0	-990.0	30676.0
20	17	34	43	84	197.0	-188199.0	-1002.0	30085.0
20	17	34	43	84	198.0	-187721.0	-997.0	30179.0
20	17	34	43	125	199.0	-187802.0	-989.0	30653.0
20	17	34	43	125	200.0	-188681.0	-981.0	30496.0
20	17	34	43	126	201.0	-190477.0	-979.0	30433.0
20	17	34	43	127	202.0	-192982.0	-963.0	30544.0
20	17	34	43	127	203.0	-195603.0	-945.0	30982.0
20	17	34	43	128	204.0	-198724.0	-926.0	31083.0
20	17	34	43	129	208.0	-210401.0	-950.0	30205.0
20	17	34	43	169	230.0	-181563.0	-821.0	29713.0
20	17	34	43	170	231.0	-182697.0	-807.0	30054.0
20	17	34	43	171	232.0	-185323.0	-804.0	30004.0
20	17	34	43	171	233.0	-189037.0	-786.0	30296.0
20	17	34	43	172	234.0	-194305.0	-766.0	30295.0
20	17	34	43	173	235.0	-200221.0	-784.0	30026.0
20	17	34	43	173	236.0	-206806.0	-798.0	29806.0
20	17	34	43	174	237.0	-213538.0	-824.0	29178.0
20	17	34	43	215	253.0	-200147.0	-1059.0	28652.0
20	17	34	43	215	254.0	-195281.0	-1053.0	28408.0
20	17	34	43	216	255.0	-190799.0	-1067.0	28400.0
20	17	34	43	216	0.0	-186689.0	-1111.0	28463.0
20	17	34	43	260	1.0	-183133.0	-1155.0	27946.0
20	17	34	43	261	2.0	-180292.0	-1167.0	27843.0
20	17	34	43	261	3.0	-177974.0	-1181.0	27747.0
20	17	34	43	262	4.0	-176106.0	-1182.0	27950.0
20	17	34	43	262	20.0	-205755.0	-1394.0	28611.0
20	17	34	43	263	21.0	-206552.0	-1407.0	28406.0
20	17	34	43	264	22.0	-207012.0	-1430.0	28153.0
20	17	34	43	264	23.0	-207375.0	-1414.0	27943.0
20	17	34	43	304	24.0	-207485.0	-1416.0	27988.0
20	17	34	43	306	25.0	-207004.0	-1422.0	27809.0
20	17	34	43	307	26.0	-206064.0	-1438.0	27559.0
20	17	34	43	307	42.0	-207564.0	-1761.0	25634.0
20	17	34	43	308	43.0	-213502.0	-1773.0	25741.0
20	17	34	43	309	44.0	-219033.0	-1761.0	26071.0
20	17	34	43	310	45.0	-223785.0	-1800.0	26108.0
20	17	34	43	310	64.0	-181243.0	-2161.0	35634.0
20	17	34	43	311	65.0	-179032.0	-2172.0	37596.0
20	17	34	43	312	66.0	-177264.0	-2169.0	38060.0
20	17	34	43	312	67.0	-175665.0	-2152.0	39898.0
20	17	34	43	313	68.0	-174548.0	-2184.0	42279.0
20	17	34	43	314	69.0	-173855.0	-2209.0	43981.0
20	17	34	43	314	70.0	-173902.0	-2222.0	44863.0
20	17	34	43	315	71.0	-174594.0	-2227.0	43986.0
20	17	34	43	316	87.0	-229016.0	-2370.0	43060.0
20	17	34	43	316	88.0	-223294.0	-2392.0	40474.0
20	17	34	43	317	89.0	-215669.0	-2422.0	38003.0
20	17	34	43	318	90.0	-207522.0	-2467.0	34849.0
20	17	34	43	318	91.0	-200565.0	-2501.0	32116.0
20	17	34	43	319	92.0	-194801.0	-2518.0	29854.0
20	17	34	43	350	93.0	-190074.0	-2539.0	28034.0
20	17	34	43	394	94.0	-187146.0	-2559.0	26721.0
20	17	34	43	395	95.0	-185403.0	-2589.0	25720.0
20	17	34	43	396	96.0	-184239.0	-2605.0	24876.0
20	17	34	43	396	97.0	-183362.0	-2619.0	24878.0
20	17	34	43	397	98.0	-183832.0	-2646.0	24717.0
20	17	34	43	398	99.0	-186929.0	-2685.0	24169.0
20	17	34	43	398	100.0	-192399.0	-2729.0	23557.0
20	17	34	43	440	101.0	-198716.0	-2758.0	22741.0
20	17	34	43	442	102.0	-204691.0	-2799.0	23518.0
20	17	34	43	443	103.0	-209105.0	-2816.0	23214.0
20	17	34	43	444	104.0	-212176.0	-2831.0	23290.0
20	17	34	43	444	105.0	-216507.0	-2841.0	23447.0
20	17	34	43	445	106.0	-220573.0	-2864.0	23493.0
20	17	34	43	445	107.0	-223827.0	-2868.0	23728.0
20	17	34	43	446	109.0	-227710.0	-2954.0	23250.0
20	17	34	43	485	110.0	-226811.0	-2992.0	22854.0
20	17	34	43	485	132.0	-177079.0	-3261.0	21779.0
20	17	34	43	486	133.0	-174049.0	-3281.0	21642.0
20	17	34	43	487	134.0	-171324.0	-3276.0	21686.0
20	17	34	43	487	135.0	-169177.0	-3300.0	21766.0
20	17	34	43	488	136.0	-168190.0	-3298.0	22196.0
20	17	34	43	488	137.0	-168439.0	-3305.0	22092.0
20	17	34	43	529	138.0	-169940.0	-3341.0	21967.0
20	17	34	43	529	154.0	-206401.0	-3745.0	18693.0
20	17	34	43	537	155.0	-207992.0	-3771.0	18151.0
20	17	34	43	538	156.0	-210075.0	-3790.0	18618.0
20	17	34	43	538	157.0	-210891.0	-3820.0	18936.0
20	17	34	43	539	158.0	-212001.0	-3846.0	18853.0
20	17	34	43	539	159.0	-212524.0	-3892.0	18511.0
20	17	34	43	540	160.0	-212729.0	-3927.0	17903.0
20	17	34	43	541	177.0	-193016.0	-4282.0	18708.0
20	17	34	43	541	178.0	-194667.0	-4311.0	18809.0
20	17	34	43	542	179.0	-195828.0	-4359.0	18542.0
20	17	34	43	542	180.0	-197056.0	-4379.0	18518.0
20	17	34	43	543	181.0	-197890.0	-4405.0	18425.0
20	17	34	43	543	182.0	-198280.0	-4443.0	18337.0
20	17	34	43	544	183.0	-198503.0	-4444.0	18795.0
20	17	34	43	544	184.0	-198567.0	-4427.0	19421.0
20	17	34	43	545	199.0	-202967.0	-4356.0	26307.0
20	17	34	43	545	200.0	-201704.0	-4347.0	26136.0
20	17	34	43	546	201.0	-200472.0	-4327.0	26838.0
20	17	34	43	546	202.0	-199282.0	-4305.0	27457.0
20	17	34	43	547	203.0	-198239.0	-4282.0	27689.0
20	17	34	43	547	204.0	-197529.0	-4253.0	27988.0
20	17	34	43	548	205.0	-196917.0	-4238.0	28252.0
20	17	34	43	574	206.0	-196427.0	-4203.0	28403.0
20	17	34	43	575	207.0	-196435.0	-4176.0	28971.0
20	17	34	43	575	208.0	-196726.0	-4164.0	29422.0
20	17	34	43	576	209.0	-197396.0	-4134.0	29789.0
20	17	34	43	577	210.0	-198531.0	-4122.0	29602.0
20	17	34	43	577	211.0	-199686.0	-4114.0	29731.0
20	17	34	43	578	212.0	-200881.0	-4056.0	29971.0
20	17	34	43	578	213.0	-202664.0	-3993.0	30021.0
20	17	34	43	579	214.0	-203475.0	-3959.0	30173.0
20	17	34	43	580	215.0	-203915.0	-3899.0	30424.0
20	17	34	43	580	216.0	-204671.0	-3854.0	30651.0
20	17	34	43	581	217.0	-204962.0	-3789.0	30849.0
20	17	34	43	581	218.0	-204761.0	-3737.0	30346.0
20	17	34	43	582	219.0	-204196.0	-3710.0	30331.0
20	17	34	43	583	220.0	-203655.0	-3684.0	30346.0
20	17	34	43	583	222.0	-203457.0	-3601.0	30513.0
20	17	34	43	584	223.0	-204431.0	-3543.0	30606.0
20	17	34	43	584	224.0	-205801.0	-3479.0	30444.0
20	17	34	43	585	225.0	-207186.0	-3407.0	30753.0
20	17	34	43	585	226.0	-209019.0	-3352.0	31153.0
20	17	34	43	586	227.0	-210549.0	-3293.0	31416.0
20	17	34	43	618	228.0	-212331.0	-3252.0	31364.0
20	17	34	43	619	229.0	-213714.0	-3204.0	30646.0
20	17	34	43	619	230.0	-214655.0	-3179.0	30736.0
20	17	34	43	620	231.0	-215164.0	-3143.0	30798.0
20	17	34	43	620	232.0	-215320.0	-3071.0	30468.0
20	17	34	43	621	233.0	-215138.0	-3000.0	30612.0
20	17	34	43	637	234.0	-214826.0	-2951.0	31039.0
20	17	34	43	637	235.0	-214385.0	-2889.0	31652.0
20	17	34	43	638	236.0	-214091.0	-2813.0	31617.0
20	17	34	43	638	237.0	-213334.0	-2741.0	32061.0
20	17	34	43	639	238.0	-212074.0	-2668.0	32227.0
20	17	34	43	639	239.0	-210569.0	-2652.0	32379.0
20	17	34	43	640	240.0	-207461.0	-2617.0	32465.0
20	17	34	43	640	241.0	-203616.0	-2569.0	32534.0
20	17	34	43	641	242.0	-198996.0	-2512.0	33085.0
20	17	34	43	641	244.0	-179874.0	-2408.0	33599.0
20	17	34	43	642	245.0	-171286.0	-2338.0	33706.0
20	17	34	43	642	246.0	-167734.0	-2272.0	33822.0
20	17	34	43	643	247.0	-171811.0	-2208.0	34128.0
20	17	34	43	644	248.0	-178049.0	-2169.0	34231.0
20	17	34	43	644	249.0	-192492.0	-2141.0	34222.0
20	17	34	43	664	250.0	-208335.0	-2115.0	34094.0
20	17	34	43	664	251.0	-219142.0	-2079.0	34234.0
20	17	34	43	665	252.0	-223909.0	-2022.0	34714.0
20	17	34	43	666	253.0	-224181.0	-1955.0	34767.0
20	17	34	43	709	254.0	-221034.0	-1896.0	34814.0
20	17	34	43	710	255.0	-215656.0	-1858.0	35069.0
20	17	34	43	710	0.0	-210635.0	-1833.0	35598.0
20	17	34	43	711	1.0	-206882.0	-1781.0	36003.0
20	17	34	43	712	2.0	-204329.0	-1752.0	35989.0
20	17	34	43	712	3.0	-202302.0	-1746.0	35621.0
20	17	34	43	713	4.0	-200149.0	-1707.0	35513.0
20	17	34	43	800	5.0	-198055.0	-1672.0	35538.0
20	17	34	43	800	6.0	-195677.0	-1630.0	35461.0
20	17	34	43	801	7.0	-193049.0	-1577.0	35879.0
20	17	34	43	801	8.0	-190344.0	-1516.0	36399.0
20	17	34	43	802	10.0	-189022.0	-1415.0	36472.0
20	17	34	43	803	11.0	-190988.0	-1380.0	36693.0
20	17	34	43	803	12.0	-194286.0	-1365.0	37184.0
20	17	34	43	804	13.0	-198383.0	-1327.0	37148.0
20	17	34	43	844	33.0	-198194.0	-1039.0	38247.0
20	17	34	43	853	34.0	-198795.0	-1041.0	38051.0
20	17	34	43	853	35.0	-199826.0	-1020.0	37881.0
20	17	34	43	854	36.0	-200431.0	-1004.0	38247.0
20	17	34	43	854	37.0	-200586.0	-969.0	38981.0
20	17	34	43	855	38.0	-200735.0	-948.0	39058.0
20	17	34	43	856	39.0	-200831.0	-936.0	38741.0
20	17	34	43	856	40.0	-200696.0	-901.0	38878.0
20	17	34	43	857	78.0	-202720.0	-894.0	41022.0
20	17	34	43	857	79.0	-203084.0	-866.0	41042.0
20	17	34	43	858	80.0	-203469.0	-847.0	41354.0
20	17	34	43	889	81.0	-203717.0	-846.0	41368.0
20	17	34	43	889	82.0	-203766.0	-874.0	40713.0
20	17	34	43	890	83.0	-203457.0	-899.0	40398.0
20	17	34	43	890	84.0	-202984.0	-931.0	40288.0
20	17	34	43	891	100.0	-197972.0	-1007.0	40349.0
20	17	34	43	892	101.0	-196586.0	-991.0	40508.0
20	17	34	43	892	102.0	-195067.0	-1015.0	40342.0
20	17	34	43	893	103.0	-193706.0	-1034.0	40148.0
20	17	34	43	934	104.0	-192833.0	-1054.0	39662.0
20	17	34	43	935	105.0	-192444.0	-1058.0	39313.0
20	17	34	43	935	106.0	-192552.0	-1042.0	40051.0
20	17	34	43	936	107.0	-192944.0	-1044.0	40865.0
20	17	34	43	936	108.0	-193374.0	-1061.0	40688.0
20	17	34	43	937	109.0	-194177.0	-1079.0	40634.0
20	17	34	43	938	110.0	-194858.0	-1094.0	41050.0
20	17	34	44	25	111.0	-195049.0	-1078.0	40856.0
20	17	34	44	25	123.0	-189928.0	-1187.0	40983.0
20	17	34	44	70	124.0	-188159.0	-1208.0	41110.0
20	17	34	44	71	125.0	-186859.0	-1205.0	40856.0
20	17	34	44	72	126.0	-185914.0	-1223.0	40624.0
20	17	34	44	73	127.0	-185469.0	-1216.0	40870.0
20	17	34	44	73	128.0	-185706.0	-1222.0	41193.0
20	17	34	44	74	129.0	-186579.0	-1231.0	41433.0
20	17	34	44	75	145.0	-202182.0	-1536.0	38058.0
20	17	34	44	76	146.0	-199418.0	-1551.0	38006.0
20	17	34	44	76	147.0	-196754.0	-1559.0	38410.0
20	17	34	44	77	148.0	-194584.0	-1568.0	38598.0
20	17	34	44	78	149.0	-192553.0	-1572.0	38754.0
20	17	34	44	79	150.0	-190818.0	-1586.0	39217.0
20	17	34	44	79	151.0	-189487.0	-1602.0	39365.0
20	17	34	44	80	152.0	-189030.0	-1646.0	39279.0
20	17	34	44	81	191.0	-200296.0	-2531.0	39517.0
20	17	34	44	82	192.0	-201767.0	-2582.0	38898.0
20	17	34	44	114	213.0	-208265.0	-2863.0	37779.0
20	17	34	44	114	214.0	-208507.0	-2897.0	38456.0
20	17	34	44	115	215.0	-208989.0	-2917.0	39919.0
20	17	34	44	115	216.0	-209997.0	-2922.0	41726.0
20	17	34	44	116	217.0	-211127.0	-2939.0	43488.0
20	17	34	44	117	218.0	-212086.0	-2956.0	44149.0
20	17	34	44	134	219.0	-213201.0	-2983.0	45069.0
20	17	34	44	158	220.0	-213940.0	-2999.0	46659.0
20	17	34	44	159	221.0	-214300.0	-3037.0	47590.0
20	17	34	44	160	222.0	-214258.0	-3092.0	47369.0
20	17	34	44	160	223.0	-213702.0	-3143.0	47501.0
20	17	34	44	161	224.0	-212760.0	-3185.0	48704.0
20	17	34	44	162	225.0	-211691.0	-3201.0	50970.0
20	17	34	44	162	226.0	-210326.0	-3229.0	52316.0
20	17	34	44	204	227.0	-208975.0	-3243.0	52756.0
20	17	34	44	205	235.0	-192824.0	-3481.0	29126.0
20	17	34	44	205	236.0	-191214.0	-3486.0	34496.0
20	17	34	44	206	237.0	-189964.0	-3512.0	43656.0
20	17	34	44	207	238.0	-189723.0	-3532.0	51766.0
20	17	34	44	207	239.0	-190676.0	-3527.0	56930.0
20	17	34	44	208	240.0	-192537.0	-3553.0	60141.0
20	17	34	44	208	241.0	-194841.0	-3589.0	60566.0
20	17	34	44	250	2.0	-213716.0	-3799.0	33507.0
20	17	34	44	250	3.0	-216297.0	-3819.0	33426.0
20	17	34	44	251	4.0	-218057.0	-3837.0	33491.0
20	17	34	44	252	5.0	-218444.0	-3865.0	33104.0
20	17	34	44	252	6.0	-217578.0	-3880.0	32993.0
20	17	34	44	253	7.0	-215069.0	-3896.0	32525.0
20	17	34	44	253	8.0	-211202.0	-3917.0	32139.0
20	17	34	44	254	9.0	-206248.0	-3927.0	31755.0
20	17	34	44	254	24.0	-189010.0	-3901.0	31244.0
20	17	34	44	255	25.0	-192518.0	-3935.0	30876.0
20	17	34	44	256	26.0	-195092.0	-3981.0	30168.0
20	17	34	44	256	27.0	-196793.0	-4004.0	30017.0
20	17	34	44	257	28.0	-197929.0	-4010.0	30393.0
20	17	34	44	258	29.0	-199092.0	-4022.0	30356.0
20	17	34	44	259	30.0	-200358.0	-4029.0	30271.0
20	17	34	44	260	47.0	-201496.0	-4257.0	26772.0
20	17	34	44	260	48.0	-199636.0	-4296.0	26506.0
20	17	34	44	261	49.0	-197995.0	-4313.0	26338.0
20	17	34	44	261	50.0	-196468.0	-4307.0	26134.0
20	17	34	44	262	51.0	-195445.0	-4332.0	26366.0
20	17	34	44	263	52.0	-195227.0	-4357.0	26360.0
20	17	34	44	295	53.0	-195192.0	-4369.0	26289.0
20	17	34	44	295	54.0	-195566.0	-4377.0	26277.0
20	17	34	44	316	55.0	-196605.0	-4402.0	26080.0
20	17	34	44	316	56.0	-197456.0	-4470.0	25624.0
20	17	34	44	317	57.0	-198079.0	-4508.0	24811.0
20	17	34	44	317	58.0	-198685.0	-4548.0	24609.0
20	17	34	44	318	59.0	-199126.0	-4577.0	24312.0
20	17	34	44	318	60.0	-199562.0	-4604.0	24358.0
20	17	34	44	319	61.0	-200051.0	-4604.0	24518.0
20	17	34	44	320	62.0	-200849.0	-4628.0	24464.0
20	17	34	44	320	63.0	-201477.0	-4631.0	24619.0
20	17	34	44	339	64.0	-202039.0	-4632.0	25181.0
20	17	34	44	340	65.0	-202441.0	-4664.0	24793.0
20	17	34	44	340	66.0	-202599.0	-4702.0	23931.0
20	17	34	44	341	67.0	-202824.0	-4766.0	23776.0
20	17	34	44	341	69.0	-203110.0	-4806.0	23442.0
20	17	34	44	342	70.0	-203633.0	-4796.0	23414.0
20	17	34	44	342	71.0	-204351.0	-4791.0	23846.0
20	17	34	44	384	72.0	-204754.0	-4774.0	23901.0
20	17	34	44	384	73.0	-204760.0	-4780.0	23864.0
20	17	34	44	385	74.0	-205057.0	-4787.0	24081.0
20	17	34	44	385	75.0	-205192.0	-4814.0	24049.0
20	17	34	44	386	76.0	-205324.0	-4830.0	24012.0
20	17	34	44	387	77.0	-205735.0	-4863.0	23778.0
20	17	34	44	387	78.0	-205956.0	-4891.0	23673.0
20	17	34	44	388	79.0	-205794.0	-4921.0	24064.0
20	17	34	44	475	80.0	-205477.0	-4931.0	24177.0
20	17	34	44	476	92.0	-199297.0	-4998.0	24641.0
20	17	34	44	477	93.0	-198961.0	-4969.0	25025.0
20	17	34	44	477	94.0	-198221.0	-4959.0	25613.0
20	17	34	44	478	95.0	-197534.0	-4956.0	25686.0
20	17	34	44	478	96.0	-197127.0	-4969.0	25643.0
20	17	34	44	479	97.0	-196602.0	-4974.0	25683.0
20	17	34	44	480	98.0	-195809.0	-4953.0	25534.0
20	17	34	44	520	114.0	-200709.0	-4505.0	28571.0
20	17	34	44	521	115.0	-201243.0	-4497.0	28521.0
20	17	34	44	521	116.0	-201694.0	-4480.0	28409.0
20	17	34	44	522	117.0	-201929.0	-4430.0	28548.0
20	17	34	44	522	118.0	-202024.0	-4381.0	28309.0
20	17	34	44	523	119.0	-202204.0	-4339.0	28135.0
20	17	34	44	564	120.0	-202629.0	-4283.0	28394.0
20	17	34	44	564	159.0	-194133.0	-2697.0	27136.0
20	17	34	44	565	160.0	-190379.0	-2673.0	27418.0
20	17	34	44	566	161.0	-187121.0	-2642.0	28031.0
20	17	34	44	566	162.0	-184877.0	-2627.0	28120.0
20	17	34	44	567	163.0	-183806.0	-2606.0	27875.0
20	17	34	44	567	164.0	-184074.0	-2587.0	28114.0
20	17	34	44	568	165.0	-184968.0	-2583.0	28308.0
20	17	34	44	569	166.0	-185960.0	-2579.0	27724.0
20	17	34	44	569	181.0	-206437.0	-2322.0	27700.0
20	17	34	44	570	182.0	-209659.0	-2290.0	27959.0
20	17	34	44	571	183.0	-212472.0	-2262.0	28158.0
20	17	34	44	571	184.0	-214437.0	-2247.0	28349.0
20	17	34	44	572	185.0	-215666.0	-2224.0	28102.0
20	17	34	44	573	186.0	-216216.0	-2234.0	27848.0
20	17	34	44	574	204.0	-192112.0	-2149.0	29421.0
20	17	34	44	575	205.0	-195955.0	-2169.0	29306.0
20	17	34	44	575	206.0	-200114.0	-2168.0	29210.0
20	17	34	44	576	207.0	-204183.0	-2165.0	29211.0
20	17	34	44	577	208.0	-207384.0	-2152.0	29107.0
20	17	34	44	577	209.0	-209813.0	-2142.0	29050.0
20	17	34	44	608	210.0	-211455.0	-2120.0	29564.0
20	17	34	44	609	211.0	-212116.0	-2110.0	29268.0
20	17	34	44	610	212.0	-212349.0	-2106.0	29011.0
20	17	34	44	611	213.0	-212201.0	-2096.0	29287.0
20	17	34	44	611	214.0	-211325.0	-2134.0	29508.0
20	17	34	44	612	215.0	-209977.0	-2182.0	29116.0
20	17	34	44	612	216.0	-208493.0	-2206.0	28553.0
20	17	34	44	613	217.0	-206659.0	-2228.0	28603.0
20	17	34	44	655	218.0	-204264.0	-2244.0	28596.0
20	17	34	44	655	219.0	-201957.0	-2225.0	28476.0
20	17	34	44	656	220.0	-199507.0	-2226.0	28453.0
20	17	34	44	657	221.0	-196702.0	-2232.0	28409.0
20	17	34	44	657	222.0	-193884.0	-2228.0	28468.0
20	17	34	44	658	223.0	-191047.0	-2232.0	28376.0
20	17	34	44	658	224.0	-188645.0	-2244.0	28409.0
20	17	34	44	659	226.0	-185003.0	-2296.0	28237.0
20	17	34	44	700	227.0	-184352.0	-2325.0	27569.0
20	17	34	44	700	228.0	-184668.0	-2357.0	27521.0
20	17	34	44	701	229.0	-185444.0	-2354.0	28043.0
20	17	34	44	701	230.0	-187143.0	-2344.0	27909.0
20	17	34	44	702	231.0	-189467.0	-2359.0	27772.0
20	17	34	44	703	232.0	-192206.0	-2373.0	27801.0
20	17	34	44	703	233.0	-195521.0	-2354.0	27873.0
20	17	34	44	745	249.0	-210361.0	-2469.0	26900.0
20	17	34	44	746	250.0	-207639.0	-2469.0	26945.0
20	17	34	44	746	251.0	-204400.0	-2446.0	27026.0
20	17	34	44	747	252.0	-201219.0	-2428.0	26796.0
20	17	34	44	748	253.0	-198125.0	-2414.0	27065.0
20	17	34	44	748	254.0	-195019.0	-2414.0	26914.0
20	17	34	44	749	255.0	-192159.0	-2435.0	26931.0
20	17	34	44	750	0.0	-189766.0	-2456.0	26563.0
20	17	34	44	750	15.0	-208269.0	-2422.0	26297.0
20	17	34	44	751	16.0	-209773.0	-2404.0	26774.0
20	17	34	44	751	17.0	-210808.0	-2393.0	27370.0
20	17	34	44	752	18.0	-211302.0	-2397.0	27344.0
20	17	34	44	753	19.0	-211167.0	-2404.0	27406.0
20	17	34	44	753	20.0	-210302.0	-2434.0	27212.0
20	17	34	44	754	21.0	-208515.0	-2437.0	27161.0
20	17	34	44	756	22.0	-206166.0	-2431.0	27094.0
20	17	34	44	756	38.0	-188772.0	-2304.0	27949.0
20	17	34	44	757	39.0	-193564.0	-2332.0	28051.0
20	17	34	44	757	40.0	-199366.0	-2330.0	27520.0
20	17	34	44	758	41.0	-205341.0	-2340.0	27322.0
20	17	34	44	759	42.0	-211191.0	-2347.0	27522.0
20	17	34	44	759	43.0	-216531.0	-2332.0	27825.0
20	17	34	44	789	44.0	-220992.0	-2306.0	27653.0
20	17	34	44	812	45.0	-224249.0	-2282.0	27531.0
20	17	34	44	813	46.0	-226453.0	-2304.0	27522.0
20	17	34	44	814	47.0	-227516.0	-2312.0	27683.0
20	17	34	44	814	48.0	-227583.0	-2299.0	27973.0
20	17	34	44	815	49.0	-226599.0	-2307.0	27942.0
20	17	34	44	836	50.0	-225087.0	-2332.0	27464.0
20	17	34	44	836	51.0	-223044.0	-2355.0	26973.0
20	17	34	44	837	52.0	-220466.0	-2352.0	26929.0
20	17	34	44	838	53.0	-217802.0	-2347.0	26991.0
20	17	34	44	838	54.0	-215069.0	-2322.0	27299.0
20	17	34	44	839	55.0	-212147.0	-2331.0	27274.0
20	17	34	44	840	56.0	-209155.0	-2327.0	27278.0
20	17	34	44	840	57.0	-206254.0	-2326.0	27573.0
20	17	34	44	841	58.0	-203252.0	-2342.0	27584.0
20	17	34	44	842	60.0	-196516.0	-2386.0	27077.0
20	17	34	44	842	61.0	-193536.0	-2409.0	26931.0
20	17	34	44	843	62.0	-190466.0	-2414.0	27318.0
20	17	34	44	843	63.0	-187567.0	-2428.0	27289.0
20	17	34	44	844	64.0	-184897.0	-2423.0	27177.0
20	17	34	44	845	65.0	-182344.0	-2437.0	27558.0
20	17	34	44	845	66.0	-180097.0	-2429.0	27678.0
20	17	34	44	846	83.0	-228870.0	-2714.0	33334.0
20	17	34	44	846	84.0	-230372.0	-2731.0	33926.0
20	17	34	44	847	85.0	-230799.0	-2739.0	29003.0
20	17	34	44	848	86.0	-230204.0	-2749.0	22253.0
20	17	34	44	848	87.0	-228648.0	-2742.0	14974.0
20	17	34	44	849	88.0	-226342.0	-2768.0	10560.0
20	17	34	44	878	89.0	-223551.0	-2787.0	11945.0
20	17	34	44	879	90.0	-220253.0	-2820.0	14890.0
20	17	34	44	880	91.0	-216401.0	-2842.0	18783.0
20	17	34	44	881	92.0	-212196.0	-2837.0	24839.0
20	17	34	44	881	93.0	-207855.0	-2822.0	32528.0
20	17	34	44	882	94.0	-203784.0	-2833.0	40912.0
20	17	34	44	883	95.0	-200001.0	-2833.0	46838.0
20	17	34	44	883	96.0	-196673.0	-2826.0	50931.0
20	17	34	44	884	97.0	-194237.0	-2830.0	53019.0
20	17	34	44	884	98.0	-192574.0	-2824.0	51613.0
20	17	34	44	885	99.0	-191831.0	-2861.0	49468.0
20	17	34	44	886	100.0	-191732.0	-2883.0	47290.0
20	17	34	44	886	101.0	-192100.0	-2891.0	44916.0
20	17	34	44	887	102.0	-192958.0	-2891.0	42304.0
20	17	34	44	887	103.0	-192977.0	-2891.0	39672.0
20	17	34	44	888	105.0	-189580.0	-2914.0	35173.0
20	17	34	44	889	106.0	-186728.0	-2896.0	32172.0
20	17	34	44	889	107.0	-184261.0	-2892.0	30419.0
20	17	34	44	890	108.0	-182227.0	-2915.0	29046.0
20	17	34	44	891	109.0	-180187.0	-2938.0	28204.0
20	17	34	44	891	110.0	-178912.0	-2979.0	27181.0
20	17	34	44	923	111.0	-179542.0	-2998.0	26044.0
20	17	34	44	924	112.0	-182079.0	-3006.0	25388.0
20	17	34	44	925	113.0	-185778.0	-3003.0	25170.0
20	17	34	44	926	114.0	-190842.0	-3031.0	25433.0
20	17	34	44	926	115.0	-198259.0	-3048.0	25437.0
20	17	34	44	927	116.0	-207396.0	-3057.0	24931.0
20	17	34	44	928	117.0	-215860.0	-3062.0	24992.0
20	17	34	44	928	118.0	-222533.0	-3090.0	25201.0
20	17	34	44	929	119.0	-227507.0	-3116.0	24746.0
20	17	34	44	930	120.0	-230197.0	-3143.0	23845.0
20	17	34	44	945	121.0	-230276.0	-3169.0	24106.0
20	17	34	44	945	122.0	-227857.0	-3194.0	24110.0
20	17	34	44	946	123.0	-222773.0	-3194.0	23731.0
20	17	34	44	947	124.0	-215629.0	-3213.0	23628.0
20	17	34	44	947	125.0	-206891.0	-3229.0	23594.0
20	17	34	44	948	128.0	-183218.0	-3264.0	22752.0
20	17	34	44	948	129.0	-179334.0	-3305.0	22194.0
20	17	34	44	949	130.0	-177951.0	-3334.0	21882.0
20	17	34	44	949	131.0	-178043.0	-3356.0	21534.0
20	17	34	44	950	132.0	-178504.0	-3370.0	21325.0
20	17	34	44	951	133.0	-178460.0	-3389.0	21104.0
20	17	34	44	969	134.0	-177307.0	-3408.0	20702.0
20	17	34	44	970	135.0	-175511.0	-3432.0	20603.0
20	17	34	44	970	136.0	-173969.0	-3454.0	20901.0
20	17	34	44	971	137.0	-173189.0	-3466.0	21039.0
20	17	34	44	972	138.0	-173513.0	-3499.0	21073.0
20	17	34	44	972	139.0	-174712.0	-3530.0	20808.0
20	17	34	44	973	140.0	-176374.0	-3573.0	20423.0
20	17	34	44	974	141.0	-178543.0	-3612.0	20421.0
20	17	34	44	974	142.0	-181108.0	-3618.0	20176.0
20	17	34	44	975	143.0	-184096.0	-3611.0	20474.0
20	17	34	44	976	144.0	-187299.0	-3631.0	20437.0
20	17	34	44	976	145.0	-190638.0	-3652.0	19788.0
20	17	34	44	977	146.0	-194442.0	-3670.0	19599.0
20	17	34	44	977	147.0	-198467.0	-3686.0	19877.0
20	17	34	44	978	148.0	-202386.0	-3729.0	19406.0
20	17	34	44	979	150.0	-209399.0	-3811.0	18792.0
20	17	34	44	979	151.0	-211830.0	-3863.0	18753.0
20	17	34	44	980	152.0	-213668.0	-3876.0	18569.0
20	17	34	45	15	153.0	-214498.0	-3885.0	18607.0
20	17	34	45	16	154.0	-214556.0	-3910.0	18497.0
20	17	34	45	16	155.0	-214097.0	-3922.0	18158.0
20	17	34	45	17	156.0	-213259.0	-3934.0	18370.0
20	17	34	45	17	157.0	-211935.0	-3947.0	18352.0
20	17	34	45	18	158.0	-210506.0	-3999.0	17768.0
20	17	34	45	59	159.0	-209412.0	-4027.0	17039.0
20	17	34	45	59	160.0	-208654.0	-4059.0	16739.0
20	17	34	45	60	161.0	-208182.0	-4087.0	17074.0
20	17	34	45	60	162.0	-207719.0	-4092.0	16652.0
20	17	34	45	61	163.0	-207210.0	-4094.0	16405.0
20	17	34	45	61	164.0	-206627.0	-4114.0	16690.0
20	17	34	45	62	165.0	-205694.0	-4138.0	16394.0
20	17	34	45	150	166.0	-204407.0	-4134.0	16077.0
20	17	34	45	150	167.0	-203070.0	-4137.0	16070.0
20	17	34	45	152	168.0	-201592.0	-4162.0	15618.0
20	17	34	45	153	173.0	-195147.0	-4301.0	14678.0
20	17	34	45	153	174.0	-194614.0	-4316.0	14326.0
20	17	34	45	154	175.0	-194266.0	-4340.0	14209.0
20	17	34	45	154	176.0	-194057.0	-4327.0	14394.0
20	17	34	45	155	177.0	-194247.0	-4346.0	14433.0
20	17	34	45	194	178.0	-194639.0	-4379.0	13799.0
20	17	34	45	195	195.0	-210174.0	-4704.0	14457.0
20	17	34	45	196	196.0	-209791.0	-4719.0	14843.0
20	17	34	45	196	197.0	-209517.0	-4717.0	15199.0
20	17	34	45	197	198.0	-209214.0	-4739.0	15177.0
20	17	34	45	197	199.0	-209059.0	-4794.0	14984.0
20	17	34	45	198	200.0	-208592.0	-4826.0	15428.0
20	17	34	45	198	201.0	-207568.0	-4847.0	15655.0
20	17	34	45	239	240.0	-197552.0	-4242.0	20156.0
20	17	34	45	240	241.0	-195382.0	-4201.0	20175.0
20	17	34	45	240	242.0	-193708.0	-4147.0	20442.0
20	17	34	45	241	243.0	-192954.0	-4097.0	20634.0
20	17	34	45	241	244.0	-192752.0	-4049.0	20440.0
20	17	34	45	242	245.0	-193145.0	-4000.0	20626.0
20	17	34	45	242	246.0	-193567.0	-3921.0	20848.0
20	17	34	45	243	6.0	-240349.0	-3357.0	18858.0
20	17	34	45	284	7.0	-240674.0	-3307.0	18826.0
20	17	34	45	284	8.0	-237294.0	-3259.0	19402.0
20	17	34	45	285	9.0	-230377.0	-3225.0	19367.0
20	17	34	45	286	10.0	-222575.0	-3167.0	19404.0
20	17	34	45	286	11.0	-214802.0	-3139.0	19476.0
20	17	34	45	287	12.0	-206901.0	-3138.0	19162.0
20	17	34	45	288	13.0	-199209.0	-3114.0	18990.0
20	17	34	45	288	29.0	-201339.0	-2763.0	19550.0
20	17	34	45	330	30.0	-199077.0	-2741.0	19520.0
20	17	34	45	330	31.0	-195351.0	-2733.0	19517.0
20	17	34	45	331	32.0	-191973.0	-2724.0	19481.0
20	17	34	45	331	33.0	-190375.0	-2724.0	19598.0
20	17	34	45	332	34.0	-190647.0	-2732.0	18848.0
20	17	34	45	375	35.0	-192628.0	-2717.0	18696.0
20	17	34	45	375	36.0	-195830.0	-2705.0	18859.0
20	17	34	45	376	51.0	-202809.0	-2499.0	18829.0
20	17	34	45	377	52.0	-202126.0	-2531.0	18644.0
20	17	34	45	377	53.0	-201250.0	-2529.0	18552.0
20	17	34	45	378	54.0	-200753.0	-2554.0	18194.0
20	17	34	45	378	55.0	-200267.0	-2550.0	18199.0
20	17	34	45	379	56.0	-199548.0	-2532.0	18239.0
20	17	34	45	379	57.0	-198859.0	-2511.0	18475.0
20	17	34	45	380	58.0	-198579.0	-2491.0	18463.0
20	17	34	45	380	74.0	-208102.0	-2604.0	17919.0
20	17	34	45	381	75.0	-211217.0	-2616.0	17941.0
20	17	34	45	382	76.0	-213596.0	-2609.0	18368.0
20	17	34	45	382	77.0	-214996.0	-2612.0	18278.0
20	17	34	45	383	78.0	-215862.0	-2603.0	18226.0
20	17	34	45	383	79.0	-215806.0	-2612.0	18490.0
20	17	34	45	384	96.0	-188091.0	-2737.0	16576.0
20	17	34	45	384	97.0	-187007.0	-2726.0	16696.0
20	17	34	45	385	98.0	-186451.0	-2733.0	16413.0
20	17	34	45	386	99.0	-186469.0	-2740.0	16543.0
20	17	34	45	386	100.0	-186776.0	-2715.0	17173.0
20	17	34	45	387	101.0	-187352.0	-2718.0	17316.0
20	17	34	45	387	102.0	-188442.0	-2734.0	16644.0
20	17	34	45	465	103.0	-189786.0	-2741.0	16185.0
20	17	34	45	466	104.0	-190983.0	-2753.0	16013.0
20	17	34	45	510	105.0	-192356.0	-2759.0	15853.0
20	17	34	45	511	106.0	-193749.0	-2750.0	15995.0
20	17	34	45	512	107.0	-194861.0	-2736.0	16381.0
20	17	34	45	512	108.0	-195748.0	-2744.0	16601.0
20	17	34	45	513	109.0	-196987.0	-2748.0	16755.0
20	17	34	45	513	110.0	-198127.0	-2735.0	17075.0
20	17	34	45	514	111.0	-199046.0	-2732.0	17204.0
20	17	34	45	514	112.0	-199579.0	-2756.0	16934.0
20	17	34	45	515	113.0	-200243.0	-2791.0	16885.0
20	17	34	45	516	114.0	-201017.0	-2792.0	17162.0
20	17	34	45	516	115.0	-201592.0	-2799.0	17621.0
20	17	34	45	517	116.0	-202482.0	-2780.0	17614.0
20	17	34	45	517	117.0	-204249.0	-2774.0	17844.0
20	17	34	45	518	141.0	-192918.0	-2819.0	18058.0
20	17	34	45	518	142.0	-195919.0	-2848.0	17928.0
20	17	34	45	519	143.0	-198164.0	-2859.0	18032.0
20	17	34	45	520	164.0	-199857.0	-3050.0	17829.0
20	17	34	45	520	165.0	-199845.0	-3051.0	17852.0
20	17	34	45	521	166.0	-199412.0	-3046.0	18062.0
20	17	34	45	521	167.0	-198816.0	-3046.0	18209.0
20	17	34	45	522	168.0	-198164.0	-3032.0	18238.0
20	17	34	45	522	169.0	-197319.0	-3014.0	18047.0
20	17	34	45	554	170.0	-196425.0	-3014.0	18434.0
20	17	34	45	554	171.0	-195879.0	-3037.0	18949.0
20	17	34	45	555	172.0	-195628.0	-3044.0	19959.0
20	17	34	45	556	173.0	-196106.0	-3069.0	21178.0
20	17	34	45	556	174.0	-197504.0	-3089.0	22296.0
20	17	34	45	557	175.0	-199340.0	-3087.0	23617.0
20	17	34	45	557	176.0	-201676.0	-3067.0	24126.0
20	17	34	45	599	177.0	-204358.0	-3051.0	24841.0
20	17	34	45	599	178.0	-206891.0	-3067.0	25753.0
20	17	34	45	600	179.0	-209162.0	-3055.0	26006.0
20	17	34	45	601	180.0	-210946.0	-3046.0	25674.0
20	17	34	45	601	181.0	-212185.0	-3050.0	25917.0
20	17	34	45	602	182.0	-212982.0	-3083.0	27206.0
20	17	34	45	602	183.0	-213481.0	-3112.0	28690.0
20	17	34	45	603	184.0	-213682.0	-3131.0	29474.0
20	17	34	45	689	186.0	-214382.0	-3149.0	25734.0
20	17	34	45	690	187.0	-214812.0	-3161.0	18618.0
20	17	34	45	690	188.0	-215231.0	-3157.0	10612.0
20	17	34	45	691	189.0	-215424.0	-3173.0	3635.0
20	17	34	45	692	190.0	-215112.0	-3179.0	3566.0
20	17	34	45	692	191.0	-214564.0	-3219.0	7279.0
20	17	34	45	693	192.0	-213839.0	-3241.0	12059.0
20	17	34	45	734	193.0	-212798.0	-3283.0	17342.0
20	17	34	45	735	209.0	-181472.0	-3412.0	18806.0
20	17	34	45	736	210.0	-181611.0	-3412.0	17791.0
20	17	34	45	736	211.0	-183519.0	-3431.0	16661.0
20	17	34	45	737	212.0	-186919.0	-3477.0	15870.0
20	17	34	45	738	213.0	-191539.0	-3504.0	15138.0
20	17	34	45	738	214.0	-197352.0	-3521.0	14663.0
20	17	34	45	779	215.0	-204265.0	-3529.0	14598.0
20	17	34	45	779	253.0	-203352.0	-4084.0	9494.0
20	17	34	45	780	254.0	-202336.0	-4086.0	9295.0
20	17	34	45	781	255.0	-201387.0	-4082.0	9325.0
20	17	34	45	825	0.0	-200787.0	-4079.0	9241.0
20	17	34	45	825	1.0	-200129.0	-4081.0	9131.0
20	17	34	45	826	2.0	-199430.0	-4087.0	8656.0
20	17	34	45	827	3.0	-198458.0	-4090.0	8764.0
20	17	34	45	827	4.0	-197441.0	-4085.0	9038.0
20	17	34	45	828	20.0	-198076.0	-4326.0	6817.0
20	17	34	45	829	21.0	-199619.0	-4324.0	6815.0
20	17	34	45	829	22.0	-201092.0	-4311.0	6864.0
20	17	34	45	869	23.0	-202524.0	-4297.0	7014.0
20	17	34	45	869	24.0	-203384.0	-4293.0	7060.0
20	17	34	45	870	25.0	-204061.0	-4317.0	7540.0
20	17	34	45	870	26.0	-204855.0	-4331.0	6946.0
20	17	34	45	872	43.0	-207610.0	-4417.0	9358.0
20	17	34	45	872	44.0	-206277.0	-4413.0	9833.0
20	17	34	45	873	45.0	-204587.0	-4447.0	10168.0
20	17	34	45	874	46.0	-203003.0	-4466.0	10283.0
20	17	34	45	914	65.0	-198660.0	-4343.0	16507.0
20	17	34	45	914	66.0	-197583.0	-4361.0	15890.0
20	17	34	45	915	67.0	-196464.0	-4369.0	15736.0
20	17	34	45	916	68.0	-195286.0	-4343.0	16076.0
20	17	34	45	916	69.0	-194309.0	-4302.0	16308.0
20	17	34	45	917	70.0	-193771.0	-4282.0	16354.0
20	17	34	45	917	71.0	-194016.0	-4233.0	16643.0
20	17	34	45	918	87.0	-194960.0	-3550.0	16357.0
20	17	34	45	960	88.0	-193557.0	-3504.0	16253.0
20	17	34	45	960	89.0	-192272.0	-3438.0	16399.0
20	17	34	45	961	90.0	-191043.0	-3359.0	16801.0
20	17	34	45	961	91.0	-190151.0	-3314.0	16991.0
20	17	34	45	962	92.0	-189745.0	-3266.0	16873.0
20	17	34	45	962	93.0	-190077.0	-3202.0	17494.0
20	17	34	45	963	94.0	-191483.0	-3140.0	17413.0
20	17	34	46	50	110.0	-226614.0	-2490.0	16805.0
20	17	34	46	51	111.0	-231784.0	-2429.0	17340.0
20	17	34	46	52	112.0	-232381.0	-2397.0	17463.0
20	17	34	46	53	113.0	-230131.0	-2356.0	17654.0
20	17	34	46	54	114.0	-223847.0	-2287.0	17877.0
20	17	34	46	54	115.0	-215491.0	-2271.0	17756.0
20	17	34	46	55	116.0	-207267.0	-2259.0	17736.0
20	17	34	46	56	117.0	-199564.0	-2231.0	17776.0
20	17	34	46	94	132.0	-203778.0	-1901.0	17021.0
20	17	34	46	95	133.0	-207785.0	-1864.0	17259.0
20	17	34	46	96	134.0	-210846.0	-1858.0	17169.0
20	17	34	46	96	135.0	-212256.0	-1857.0	17149.0
20	17	34	46	97	136.0	-211839.0	-1865.0	17189.0
20	17	34	46	97	137.0	-210041.0	-1883.0	16872.0
20	17	34	46	98	138.0	-207717.0	-1862.0	16549.0
20	17	34	46	139	139.0	-205410.0	-1839.0	16834.0
20	17	34	46	140	177.0	-187694.0	-1858.0	18361.0
20	17	34	46	141	178.0	-189584.0	-1873.0	18136.0
20	17	34	46	141	179.0	-191906.0	-1879.0	18519.0
20	17	34	46	142	180.0	-194177.0	-1876.0	18615.0
20	17	34	46	142	181.0	-196629.0	-1879.0	18820.0
20	17	34	46	143	182.0	-198982.0	-1884.0	19294.0
20	17	34	46	143	183.0	-200996.0	-1876.0	19813.0
20	17	34	46	184	200.0	-192582.0	-2056.0	19865.0
20	17	34	46	185	201.0	-193261.0	-2064.0	19794.0
20	17	34	46	186	202.0	-194517.0	-2039.0	20021.0
20	17	34	46	186	203.0	-196118.0	-2019.0	20586.0
20	17	34	46	187	204.0	-198064.0	-2017.0	20518.0
20	17	34	46	188	205.0	-200274.0	-2027.0	20198.0
20	17	34	46	189	206.0	-202370.0	-2038.0	19923.0
20	17	34	46	190	207.0	-204493.0	-2016.0	19646.0
20	17	34	46	190	222.0	-202252.0	-1919.0	18703.0
20	17	34	46	191	223.0	-200890.0	-1916.0	19145.0
20	17	34	46	192	224.0	-199406.0	-1916.0	18825.0
20	17	34	46	193	225.0	-197916.0	-1919.0	18733.0
20	17	34	46	193	226.0	-196497.0	-1941.0	18305.0
20	17	34	46	194	227.0	-195091.0	-1959.0	18094.0
20	17	34	46	195	228.0	-194271.0	-1966.0	18346.0
20	17	34	46	196	245.0	-201697.0	-2076.0	19778.0
20	17	34	46	197	246.0	-199516.0	-2093.0	19704.0
20	17	34	46	197	247.0	-197327.0	-2103.0	19603.0
20	17	34	46	198	248.0	-195278.0	-2087.0	19482.0
20	17	34	46	199	249.0	-193374.0	-2075.0	19356.0
20	17	34	46	200	250.0	-191845.0	-2046.0	19601.0
20	17	34	46	275	251.0	-190777.0	-2069.0	19636.0
20	17	34	46	276	252.0	-190303.0	-2086.0	19687.0
20	17	34	46	277	253.0	-190387.0	-2071.0	19781.0
20	17	34	46	278	254.0	-190873.0	-2087.0	19765.0
20	17	34	46	278	255.0	-191723.0	-2107.0	19336.0
20	17	34	46	279	0.0	-193142.0	-2139.0	19028.0
20	17	34	46	279	1.0	-194739.0	-2140.0	18656.0
20	17	34	46	280	2.0	-196314.0	-2137.0	18626.0
20	17	34	46	280	3.0	-197611.0	-2130.0	18652.0
20	17	34	46	319	4.0	-198693.0	-2119.0	18777.0
20	17	34	46	320	5.0	-199523.0	-2111.0	19021.0
20	17	34	46	321	6.0	-200308.0	-2117.0	19130.0
20	17	34	46	364	7.0	-200811.0	-2092.0	19203.0
20	17	34	46	365	8.0	-201487.0	-2110.0	19135.0
20	17	34	46	365	9.0	-202086.0	-2137.0	19223.0
20	17	34	46	366	11.0	-202802.0	-2155.0	18583.0
20	17	34	46	367	34.0	-195950.0	-2396.0	26246.0
20	17	34	46	367	35.0	-196939.0	-2386.0	27543.0
20	17	34	46	368	36.0	-197939.0	-2367.0	29593.0
20	17	34	46	409	37.0	-198914.0	-2354.0	30996.0
20	17	34	46	433	38.0	-199694.0	-2391.0	31179.0
20	17	34	46	434	39.0	-200322.0	-2447.0	31807.0
20	17	34	46	435	40.0	-200701.0	-2469.0	33808.0
20	17	34	46	435	41.0	-200926.0	-2483.0	35395.0
20	17	34	46	436	42.0	-201056.0	-2511.0	36426.0
20	17	34	46	437	56.0	-211488.0	-2749.0	45167.0
20	17	34	46	437	57.0	-211687.0	-2752.0	43231.0
20	17	34	46	457	78.0	-223611.0	-3180.0	15974.0
20	17	34	46	458	79.0	-220328.0	-3201.0	15434.0
20	17	34	46	458	80.0	-216515.0	-3242.0	14829.0
20	17	34	46	459	81.0	-211912.0	-3252.0	14659.0
20	17	34	46	499	82.0	-206181.0	-3270.0	14749.0
20	17	34	46	500	83.0	-199367.0	-3290.0	14836.0
20	17	34	46	501	84.0	-192714.0	-3307.0	14725.0
20	17	34	46	501	85.0	-186448.0	-3319.0	14609.0
20	17	34	46	502	101.0	-205332.0	-3706.0	12378.0
20	17	34	46	503	102.0	-204417.0	-3716.0	12667.0
20	17	34	46	503	103.0	-203176.0	-3711.0	12927.0
20	17	34	46	544	104.0	-201589.0	-3709.0	12625.0
20	17	34	46	545	105.0	-200017.0	-3731.0	12592.0
20	17	34	46	545	106.0	-198538.0	-3765.0	12831.0
20	17	34	46	546	107.0	-197442.0	-3778.0	12998.0
20	17	34	46	547	123.0	-190917.0	-4071.0	10016.0
20	17	34	46	547	124.0	-190545.0	-4071.0	10111.0
20	17	34	46	548	125.0	-190881.0	-4072.0	9792.0
20	17	34	46	590	126.0	-191792.0	-4060.0	9487.0
20	17	34	46	591	146.0	-205971.0	-4422.0	7298.0
20	17	34	46	592	147.0	-205498.0	-4467.0	7622.0
20	17	34	46	592	148.0	-204853.0	-4518.0	7139.0
20	17	34	46	593	149.0	-204454.0	-4538.0	6886.0
20	17	34	46	594	150.0	-204135.0	-4565.0	6964.0
20	17	34	46	594	151.0	-203556.0	-4594.0	6846.0
20	17	34	46	595	152.0	-202557.0	-4594.0	7267.0
20	17	34	46	596	153.0	-201464.0	-4600.0	7690.0
20	17	34	46	597	169.0	-200244.0	-4641.0	12879.0
20	17	34	46	598	170.0	-201275.0	-4615.0	13158.0
20	17	34	46	598	171.0	-202309.0	-4597.0	13387.0
20	17	34	46	599	172.0	-203137.0	-4567.0	13789.0
20	17	34	46	600	173.0	-204094.0	-4534.0	13953.0
20	17	34	46	601	174.0	-204971.0	-4494.0	14124.0
20	17	34	46	602	175.0	-205718.0	-4467.0	14561.0
20	17	34	46	602	191.0	-205276.0	-3800.0	15586.0
20	17	34	46	603	192.0	-204984.0	-3752.0	16326.0
20	17	34	46	604	193.0	-204550.0	-3702.0	16568.0
20	17	34	46	604	194.0	-204101.0	-3632.0	16552.0
20	17	34	46	605	195.0	-203866.0	-3566.0	16385.0
20	17	34	46	606	196.0	-203833.0	-3519.0	16806.0
20	17	34	46	635	197.0	-203147.0	-3456.0	16804.0
20	17	34	46	635	198.0	-202295.0	-3427.0	16299.0
20	17	34	46	636	199.0	-201880.0	-3407.0	15700.0
20	17	34	46	637	200.0	-201504.0	-3369.0	15774.0
20	17	34	46	637	201.0	-201107.0	-3311.0	16035.0
20	17	34	46	638	202.0	-200783.0	-3246.0	16135.0
20	17	34	46	638	203.0	-200903.0	-3176.0	16256.0
20	17	34	46	639	204.0	-202023.0	-3127.0	16434.0
20	17	34	46	639	205.0	-201035.0	-3076.0	16486.0
20	17	34	46	679	206.0	-197399.0	-3011.0	16594.0
20	17	34	46	680	207.0	-199964.0	-2964.0	16654.0
20	17	34	46	724	208.0	-203916.0	-2937.0	16138.0
20	17	34	46	725	209.0	-205848.0	-2901.0	15997.0
20	17	34	46	725	210.0	-206230.0	-2849.0	16038.0
20	17	34	46	726	211.0	-206982.0	-2803.0	16061.0
20	17	34	46	726	213.0	-209073.0	-2690.0	16307.0
20	17	34	46	727	214.0	-208013.0	-2617.0	16379.0
20	17	34	46	728	215.0	-205292.0	-2552.0	16435.0
20	17	34	46	770	216.0	-200722.0	-2494.0	16522.0
20	17	34	46	771	217.0	-192442.0	-2470.0	16383.0
20	17	34	46	771	218.0	-181534.0	-2453.0	16224.0
20	17	34	46	815	219.0	-174303.0	-2421.0	16207.0
20	17	34	46	816	220.0	-171323.0	-2393.0	15885.0
20	17	34	46	816	221.0	-176411.0	-2378.0	15789.0
20	17	34	46	818	236.0	-184742.0	-1923.0	17130.0
20	17	34	46	819	237.0	-180956.0	-1907.0	16991.0
20	17	34	46	820	238.0	-177396.0	-1914.0	16732.0
20	17	34	46	820	2.0	-210501.0	-1511.0	17469.0
20	17	34	46	821	3.0	-210035.0	-1512.0	16957.0
20	17	34	46	822	4.0	-209464.0	-1510.0	16929.0
20	17	34	46	822	5.0	-208704.0	-1493.0	16911.0
20	17	34	46	823	6.0	-208449.0	-1460.0	16956.0
20	17	34	46	824	7.0	-207784.0	-1462.0	17178.0
20	17	34	46	825	8.0	-207451.0	-1448.0	17096.0
20	17	34	46	825	25.0	-193523.0	-1417.0	16993.0
20	17	34	46	826	26.0	-192464.0	-1423.0	17396.0
20	17	34	46	827	27.0	-191843.0	-1413.0	17351.0
20	17	34	46	828	47.0	-196475.0	-1498.0	16425.0
20	17	34	46	828	48.0	-196411.0	-1484.0	16238.0
20	17	34	46	829	49.0	-196661.0	-1466.0	16438.0
20	17	34	46	830	50.0	-196749.0	-1436.0	16866.0
20	17	34	46	830	51.0	-197065.0	-1424.0	16853.0
20	17	34	46	831	52.0	-197041.0	-1452.0	16444.0
20	17	34	46	832	53.0	-197181.0	-1461.0	15899.0
20	17	34	46	859	54.0	-197393.0	-1463.0	15964.0
20	17	34	46	860	55.0	-198208.0	-1465.0	15870.0
20	17	34	46	861	56.0	-199089.0	-1444.0	16375.0
20	17	34	46	862	57.0	-200202.0	-1427.0	16499.0
20	17	34	46	862	58.0	-200667.0	-1414.0	16343.0
20	17	34	46	863	59.0	-201036.0	-1402.0	16525.0
20	17	34	46	863	60.0	-201524.0	-1391.0	16992.0
20	17	34	46	864	61.0	-202236.0	-1401.0	16438.0
20	17	34	46	904	62.0	-202820.0	-1404.0	16480.0
20	17	34	46	905	63.0	-203596.0	-1414.0	16233.0
20	17	34	46	905	64.0	-204109.0	-1434.0	16202.0
20	17	34	46	906	65.0	-204692.0	-1431.0	15817.0
20	17	34	46	907	66.0	-204846.0	-1409.0	15866.0
20	17	34	46	907	67.0	-204884.0	-1391.0	16403.0
20	17	34	46	908	68.0	-204348.0	-1365.0	16063.0
20	17	34	46	908	69.0	-203672.0	-1364.0	15443.0
20	17	34	46	949	70.0	-202661.0	-1356.0	15383.0
20	17	34	46	950	71.0	-201724.0	-1367.0	15091.0
20	17	34	46	951	72.0	-200888.0	-1371.0	14617.0
20	17	34	46	951	73.0	-200224.0	-1362.0	14120.0
20	17	34	46	952	74.0	-199407.0	-1343.0	13943.0
20	17	34	46	953	75.0	-198419.0	-1320.0	14312.0
20	17	34	46	953	76.0	-197387.0	-1309.0	14526.0
20	17	34	46	954	92.0	-191734.0	-1136.0	14758.0
20	17	34	46	994	93.0	-192156.0	-1143.0	14610.0
20	17	34	46	995	94.0	-193027.0	-1120.0	14769.0
20	17	34	46	996	95.0	-194019.0	-1105.0	14713.0
20	17	34	47	38	96.0	-195181.0	-1077.0	15038.0
20	17	34	47	39	97.0	-196473.0	-1074.0	15121.0
20	17	34	47	39	98.0	-197876.0	-1065.0	15371.0
20	17	34	47	40	99.0	-198980.0	-1057.0	15996.0
20	17	34	47	40	114.0	-204967.0	-977.0	15171.0
20	17	34	47	41	115.0	-204757.0	-987.0	15096.0
20	17	34	47	41	116.0	-204446.0	-984.0	15235.0
20	17	34	47	42	117.0	-204105.0	-969.0	15359.0
20	17	34	47	84	118.0	-203707.0	-972.0	15589.0
20	17	34	47	85	119.0	-203126.0	-970.0	15906.0
20	17	34	47	85	120.0	-202488.0	-971.0	16086.0
20	17	34	47	86	121.0	-201862.0	-991.0	16016.0
20	17	34	47	86	137.0	-196857.0	-1248.0	15011.0
20	17	34	47	176	138.0	-197012.0	-1253.0	15296.0
20	17	34	47	176	139.0	-196777.0	-1266.0	15818.0
20	17	34	47	177	140.0	-196424.0	-1286.0	15889.0
20	17	34	47	177	160.0	-198677.0	-1586.0	24921.0
20	17	34	47	178	161.0	-199766.0	-1613.0	16410.0
20	17	34	47	178	162.0	-201647.0	-1653.0	5862.0
20	17	34	47	179	163.0	-204081.0	-1727.0	-114.0
20	17	34	47	180	164.0	-206681.0	-1790.0	1858.0
20	17	34	47	219	165.0	-209653.0	-1790.0	5645.0
20	17	34	47	220	166.0	-212590.0	-1799.0	9506.0
20	17	34	47	264	182.0	-181396.0	-2107.0	14979.0
20	17	34	47	265	183.0	-183466.0	-2141.0	13699.0
20	17	34	47	266	184.0	-187005.0	-2184.0	13112.0
20	17	34	47	266	185.0	-190956.0	-2214.0	12832.0
20	17	34	47	267	186.0	-195211.0	-2223.0	12833.0
20	17	34	47	277	204.0	-160804.0	-2662.0	10373.0
20	17	34	47	278	227.0	-192546.0	-2966.0	8367.0
20	17	34	47	400	228.0	-190531.0	-3002.0	8358.0
20	17	34	47	401	229.0	-188869.0	-3008.0	8598.0
20	17	34	47	446	230.0	-187402.0	-3024.0	8553.0
20	17	34	47	490	231.0	-185906.0	-3069.0	8152.0
20	17	34	47	490	232.0	-184507.0	-3126.0	7754.0
20	17	34	47	491	249.0	-217386.0	-3529.0	5660.0
20	17	34	47	492	250.0	-219456.0	-3562.0	5601.0
20	17	34	47	492	251.0	-221035.0	-3589.0	5301.0
20	17	34	47	493	16.0	-193206.0	-3718.0	6785.0
20	17	34	47	494	17.0	-195241.0	-3733.0	6816.0
20	17	34	47	534	18.0	-196924.0	-3735.0	7458.0
20	17	34	47	534	19.0	-198627.0	-3712.0	8034.0
20	17	34	47	535	20.0	-200817.0	-3699.0	8496.0
20	17	34	47	536	21.0	-202933.0	-3692.0	8879.0
20	17	34	47	536	22.0	-205097.0	-3690.0	9544.0
20	17	34	47	580	61.0	-216232.0	-2336.0	14816.0
20	17	34	47	581	83.0	-214527.0	-1263.0	14664.0
20	17	34	47	582	106.0	-207206.0	-717.0	14643.0
20	17	34	47	582	128.0	-206337.0	-565.0	14564.0
20	17	34	47	583	129.0	-206063.0	-560.0	14742.0
20	17	34	47	583	130.0	-205216.0	-557.0	14981.0
20	17	34	47	584	131.0	-204092.0	-533.0	14866.0
20	17	34	47	584	132.0	-202903.0	-496.0	15110.0
20	17	34	47	624	133.0	-201219.0	-480.0	15251.0
20	17	34	47	625	134.0	-199891.0	-483.0	15124.0
20	17	34	47	626	135.0	-198562.0	-509.0	15087.0
20	17	34	47	626	151.0	-197823.0	-443.0	15279.0
20	17	34	47	627	152.0	-198598.0	-426.0	15724.0
20	17	34	47	627	153.0	-199747.0	-401.0	15708.0
20	17	34	47	628	154.0	-201080.0	-437.0	15421.0
20	17	34	47	716	173.0	-192831.0	-499.0	14903.0
20	17	34	47	716	174.0	-192602.0	-514.0	14731.0
20	17	34	47	717	175.0	-192951.0	-522.0	14433.0
20	17	34	47	717	176.0	-193509.0	-541.0	13796.0
20	17	34	47	718	177.0	-194198.0	-539.0	13944.0
20	17	34	47	718	178.0	-195003.0	-540.0	14089.0
20	17	34	47	719	179.0	-195591.0	-537.0	14084.0
20	17	34	47	759	180.0	-196077.0	-524.0	14443.0
20	17	34	47	760	195.0	-213070.0	-551.0	13179.0
20	17	34	47	761	196.0	-214313.0	-577.0	12356.0
20	17	34	47	761	197.0	-214764.0	-590.0	12222.0
20	17	34	47	762	198.0	-214593.0	-583.0	12559.0
20	17	34	47	762	199.0	-213444.0	-559.0	12598.0
20	17	34	47	820	200.0	-211612.0	-560.0	12429.0
20	17	34	47	842	201.0	-209451.0	-560.0	12961.0
20	17	34	47	843	202.0	-206872.0	-539.0	13701.0
20	17	34	47	844	241.0	-198149.0	-703.0	14594.0
20	17	34	47	844	242.0	-200135.0	-686.0	14849.0
20	17	34	47	845	243.0	-202085.0	-703.0	14863.0
20	17	34	47	845	244.0	-203904.0	-737.0	14541.0
20	17	34	47	846	245.0	-205687.0	-754.0	14514.0
20	17	34	47	846	246.0	-207557.0	-789.0	14371.0
20	17	34	47	847	247.0	-209402.0	-811.0	14399.0
20	17	34	47	848	7.0	-195792.0	-1084.0	14981.0
20	17	34	47	848	8.0	-193724.0	-1146.0	16178.0
20	17	34	47	849	9.0	-191558.0	-1193.0	17283.0
20	17	34	47	849	10.0	-189271.0	-1230.0	18890.0
20	17	34	47	850	11.0	-187076.0	-1291.0	20334.0
20	17	34	47	850	37.0	-221709.0	-1907.0	31016.0
20	17	34	47	851	44.0	-186354.0	-2064.0	14519.0
20	17	34	47	851	45.0	-184831.0	-2082.0	13573.0
20	17	34	47	852	46.0	-185549.0	-2065.0	13108.0
20	17	34	47	866	47.0	-188066.0	-2084.0	12561.0
20	17	34	47	867	48.0	-191836.0	-2120.0	11967.0
20	17	34	47	867	49.0	-197259.0	-2175.0	11258.0
20	17	34	47	868	50.0	-204754.0	-2212.0	10644.0
20	17	34	47	868	51.0	-213611.0	-2233.0	10703.0
20	17	34	47	869	52.0	-222136.0	-2231.0	10918.0
20	17	34	47	870	53.0	-228917.0	-2243.0	10626.0
20	17	34	47	894	54.0	-232822.0	-2262.0	10449.0
20	17	34	47	895	55.0	-233514.0	-2287.0	10908.0
20	17	34	47	895	56.0	-231631.0	-2303.0	10794.0
20	17	34	47	896	57.0	-228346.0	-2336.0	10676.0
20	17	34	47	896	58.0	-223700.0	-2395.0	9910.0
20	17	34	47	897	59.0	-217797.0	-2435.0	9674.0
20	17	34	47	898	60.0	-210759.0	-2461.0	9439.0
20	17	34	47	912	61.0	-202693.0	-2486.0	9522.0
20	17	34	47	913	62.0	-193865.0	-2516.0	9822.0
20	17	34	47	913	63.0	-185109.0	-2512.0	9606.0
20	17	34	47	914	64.0	-177367.0	-2542.0	9828.0
20	17	34	47	914	65.0	-171556.0	-2547.0	9754.0
20	17	34	47	915	66.0	-167659.0	-2542.0	9753.0
20	17	34	47	916	67.0	-165090.0	-2585.0	9420.0
20	17	34	47	935	68.0	-163737.0	-2619.0	9086.0
20	17	34	47	936	69.0	-163629.0	-2661.0	8639.0
20	17	34	47	936	74.0	-179583.0	-2761.0	8772.0
20	17	34	47	937	75.0	-182431.0	-2774.0	8616.0
20	17	34	47	937	76.0	-184544.0	-2782.0	8529.0
20	17	34	47	938	77.0	-186117.0	-2811.0	8229.0
20	17	34	47	939	78.0	-187433.0	-2859.0	8034.0
20	17	34	47	939	79.0	-188643.0	-2917.0	7769.0
20	17	34	47	940	80.0	-189821.0	-2936.0	7867.0
20	17	34	47	940	82.0	-192121.0	-2951.0	7514.0
20	17	34	47	941	83.0	-193566.0	-2947.0	7717.0
20	17	34	47	941	84.0	-195588.0	-2972.0	7324.0
20	17	34	47	942	85.0	-198389.0	-2978.0	7299.0
20	17	34	47	943	86.0	-201984.0	-3002.0	7069.0
20	17	34	47	943	87.0	-206066.0	-3036.0	6856.0
20	17	34	47	959	88.0	-210524.0	-3057.0	6431.0
20	17	34	47	960	89.0	-214789.0	-3097.0	6169.0
20	17	34	47	960	90.0	-218413.0	-3117.0	5605.0
20	17	34	47	961	91.0	-221107.0	-3136.0	5780.0
20	17	34	47	961	92.0	-222736.0	-3147.0	5957.0
20	17	34	47	962	93.0	-223076.0	-3166.0	5898.0
20	17	34	47	962	94.0	-222083.0	-3181.0	5786.0
20	17	34	47	982	95.0	-220053.0	-3192.0	6069.0
20	17	34	47	982	97.0	-214480.0	-3235.0	5765.0
20	17	34	47	983	98.0	-211207.0	-3259.0	5191.0
20	17	34	47	984	99.0	-207889.0	-3289.0	5059.0
20	17	34	47	984	100.0	-204620.0	-3319.0	4571.0
20	17	34	47	985	101.0	-201409.0	-3351.0	4080.0
20	17	34	47	985	102.0	-198401.0	-3378.0	4061.0
20	17	34	47	986	103.0	-195573.0	-3389.0	4362.0
20	17	34	47	986	104.0	-193296.0	-3416.0	4438.0
20	17	34	47	987	105.0	-191526.0	-3436.0	4554.0
20	17	34	47	988	106.0	-190117.0	-3461.0	4837.0
20	17	34	47	988	107.0	-189143.0	-3508.0	4276.0
20	17	34	47	989	108.0	-188794.0	-3556.0	4037.0
20	17	34	47	989	109.0	-189119.0	-3640.0	4209.0
20	17	34	48	14	110.0	-190034.0	-3663.0	3706.0
20	17	34	48	15	111.0	-191534.0	-3680.0	3281.0
20	17	34	48	15	112.0	-193291.0	-3692.0	3661.0
20	17	34	48	16	113.0	-195321.0	-3724.0	3769.0
20	17	34	48	17	114.0	-197574.0	-3737.0	3540.0
20	17	34	48	18	115.0	-199897.0	-3748.0	3533.0
20	17	34	48	18	116.0	-202095.0	-3766.0	4081.0
20	17	34	48	38	117.0	-204075.0	-3814.0	3970.0
20	17	34	48	38	118.0	-205916.0	-3854.0	3569.0
20	17	34	48	39	119.0	-207331.0	-3891.0	3106.0
20	17	34	48	40	120.0	-208340.0	-3944.0	3553.0
20	17	34	48	40	121.0	-208711.0	-3961.0	3566.0
20	17	34	48	41	122.0	-208647.0	-3960.0	3573.0
20	17	34	48	41	123.0	-208319.0	-3987.0	3488.0
20	17	34	48	42	124.0	-207602.0	-4014.0	3659.0
20	17	34	48	42	125.0	-206399.0	-4044.0	3950.0
20	17	34	48	43	134.0	-195201.0	-4258.0	5126.0
20	17	34	48	44	135.0	-195923.0	-4252.0	5565.0
20	17	34	48	44	136.0	-197101.0	-4247.0	5918.0
20	17	34	48	45	137.0	-198509.0	-4262.0	6050.0
20	17	34	48	45	138.0	-199646.0	-4303.0	5962.0
20	17	34	48	46	139.0	-200346.0	-4319.0	6052.0
20	17	34	48	46	140.0	-200612.0	-4315.0	6684.0
20	17	34	48	47	142.0	-200277.0	-4312.0	7007.0
20	17	34	48	48	143.0	-199881.0	-4297.0	7371.0
20	17	34	48	60	144.0	-199519.0	-4267.0	8097.0
20	17	34	48	61	145.0	-199274.0	-4260.0	8457.0
20	17	34	48	62	146.0	-199105.0	-4230.0	8881.0
20	17	34	48	62	147.0	-199219.0	-4228.0	9016.0
20	17	34	48	63	148.0	-199514.0	-4236.0	9540.0
20	17	34	48	63	149.0	-199802.0	-4249.0	9592.0
20	17	34	48	64	150.0	-200187.0	-4247.0	9636.0
20	17	34	48	83	151.0	-200563.0	-4234.0	9846.0
20	17	34	48	84	152.0	-200599.0	-4189.0	10683.0
20	17	34	48	84	153.0	-200497.0	-4154.0	10731.0
20	17	34	48	85	154.0	-200432.0	-4136.0	10572.0
20	17	34	48	86	155.0	-200295.0	-4099.0	10450.0
20	17	34	48	86	156.0	-200117.0	-4053.0	11231.0
20	17	34	48	87	157.0	-199479.0	-4045.0	11594.0
20	17	34	48	87	158.0	-198447.0	-4045.0	11579.0
20	17	34	48	88	159.0	-197154.0	-4055.0	11281.0
20	17	34	48	89	160.0	-195860.0	-4021.0	11616.0
20	17	34	48	89	161.0	-194952.0	-3990.0	11544.0
20	17	34	48	90	162.0	-194229.0	-3938.0	11997.0
20	17	34	48	90	163.0	-193837.0	-3912.0	11985.0
20	17	34	48	91	164.0	-193925.0	-3885.0	12047.0
20	17	34	48	91	165.0	-194453.0	-3827.0	12388.0
20	17	34	48	92	166.0	-195682.0	-3777.0	12724.0
20	17	34	48	93	167.0	-197338.0	-3737.0	12184.0
20	17	34	48	93	168.0	-199166.0	-3716.0	11916.0
20	17	34	48	94	169.0	-201062.0	-3700.0	12138.0
20	17	34	48	94	170.0	-202877.0	-3682.0	12126.0
20	17	34	48	95	171.0	-204183.0	-3621.0	12113.0
20	17	34	48	107	172.0	-205090.0	-3567.0	12239.0
20	17	34	48	108	173.0	-205592.0	-3496.0	12157.0
20	17	34	48	109	174.0	-205693.0	-3401.0	12403.0
20	17	34	48	130	175.0	-205489.0	-3316.0	12520.0
20	17	34	48	131	176.0	-205308.0	-3247.0	12685.0
20	17	34	48	131	177.0	-205160.0	-3190.0	12461.0
20	17	34	48	132	178.0	-205074.0	-3143.0	12285.0
20	17	34	48	133	179.0	-205395.0	-3106.0	11974.0
20	17	34	48	133	180.0	-206050.0	-3047.0	11916.0
20	17	34	48	134	181.0	-206689.0	-2951.0	11554.0
20	17	34	48	134	182.0	-207386.0	-2884.0	11888.0
20	17	34	48	135	183.0	-208421.0	-2806.0	11908.0
20	17	34	48	135	184.0	-209506.0	-2737.0	11730.0
20	17	34	48	154	185.0	-210061.0	-2676.0	12111.0
20	17	34	48	154	186.0	-210087.0	-2617.0	12146.0
20	17	34	48	155	187.0	-209798.0	-2568.0	11788.0
20	17	34	48	155	188.0	-208694.0	-2516.0	11739.0
20	17	34	48	156	189.0	-206877.0	-2479.0	11774.0
20	17	34	48	157	190.0	-204642.0	-2447.0	11396.0
20	17	34	48	157	191.0	-201338.0	-2417.0	11509.0
20	17	34	48	158	192.0	-194844.0	-2350.0	11767.0
20	17	34	48	177	193.0	-184482.0	-2276.0	11793.0
20	17	34	48	200	194.0	-178283.0	-2234.0	11926.0
20	17	34	48	200	195.0	-176854.0	-2185.0	12046.0
20	17	34	48	201	196.0	-183072.0	-2131.0	11948.0
20	17	34	48	201	197.0	-190267.0	-2097.0	11884.0
20	17	34	48	202	198.0	-203741.0	-2074.0	11483.0
20	17	34	48	202	199.0	-217587.0	-2065.0	11408.0
20	17	34	48	203	200.0	-227056.0	-2024.0	11466.0
20	17	34	48	204	202.0	-228866.0	-1912.0	11381.0
20	17	34	48	223	203.0	-225184.0	-1867.0	11748.0
20	17	34	48	224	204.0	-219914.0	-1830.0	11926.0
20	17	34	48	224	205.0	-214076.0	-1799.0	11829.0
20	17	34	48	225	206.0	-208656.0	-1760.0	11926.0
20	17	34	48	225	207.0	-204412.0	-1727.0	11646.0
20	17	34	48	226	208.0	-200195.0	-1699.0	11106.0
20	17	34	48	227	209.0	-195961.0	-1695.0	10893.0
20	17	34	48	227	224.0	-199106.0	-1460.0	12466.0
20	17	34	48	228	225.0	-200929.0	-1428.0	12823.0
20	17	34	48	228	226.0	-201805.0	-1384.0	12558.0
20	17	34	48	229	227.0	-202171.0	-1368.0	11949.0
20	17	34	48	229	228.0	-202398.0	-1370.0	11905.0
20	17	34	48	230	229.0	-202721.0	-1362.0	11703.0
20	17	34	48	246	230.0	-203171.0	-1347.0	11049.0
20	17	34	48	246	231.0	-203595.0	-1326.0	11413.0
20	17	34	48	247	232.0	-204012.0	-1307.0	11926.0
20	17	34	48	247	233.0	-204157.0	-1302.0	11942.0
20	17	34	48	248	234.0	-203972.0	-1284.0	11832.0
20	17	34	48	248	235.0	-203687.0	-1271.0	12329.0
20	17	34	48	249	236.0	-203357.0	-1261.0	12424.0
20	17	34	48	250	237.0	-202931.0	-1265.0	12166.0
20	17	34	48	250	238.0	-202400.0	-1267.0	11723.0
20	17	34	48	251	239.0	-201739.0	-1291.0	11658.0
20	17	34	48	251	240.0	-201106.0	-1276.0	11761.0
20	17	34	48	252	241.0	-200744.0	-1267.0	11491.0
20	17	34	48	270	242.0	-200747.0	-1246.0	11724.0
20	17	34	48	270	243.0	-201010.0	-1249.0	11846.0
20	17	34	48	271	244.0	-201310.0	-1254.0	11952.0
20	17	34	48	272	245.0	-201553.0	-1229.0	12227.0
20	17	34	48	272	247.0	-201728.0	-1259.0	12176.0
20	17	34	48	273	248.0	-201479.0	-1289.0	12094.0
20	17	34	48	273	249.0	-201273.0	-1311.0	11744.0
20	17	34	48	293	250.0	-201239.0	-1340.0	11603.0
20	17	34	48	293	251.0	-201060.0	-1354.0	11625.0
20	17	34	48	294	252.0	-200872.0	-1360.0	11917.0
20	17	34	48	294	253.0	-200684.0	-1384.0	11913.0
20	17	34	48	295	254.0	-200557.0	-1396.0	11751.0
20	17	34	48	296	255.0	-200352.0	-1417.0	11594.0
20	17	34	48	296	0.0	-200071.0	-1437.0	11858.0
20	17	34	48	316	1.0	-199426.0	-1465.0	11356.0
20	17	34	48	317	2.0	-198627.0	-1478.0	10909.0
20	17	34	48	317	6.0	-196201.0	-1562.0	10503.0
20	17	34	48	318	7.0	-195766.0	-1577.0	10304.0
20	17	34	48	319	8.0	-195546.0	-1582.0	10770.0
20	17	34	48	319	9.0	-195649.0	-1568.0	11381.0
20	17	34	48	320	10.0	-195885.0	-1592.0	11784.0
20	17	34	48	320	11.0	-196424.0	-1624.0	11227.0
20	17	34	48	321	12.0	-197499.0	-1649.0	11061.0
20	17	34	48	321	13.0	-198699.0	-1691.0	10871.0
20	17	34	48	322	14.0	-199837.0	-1708.0	10541.0
20	17	34	48	322	15.0	-201146.0	-1721.0	10898.0
20	17	34	48	323	16.0	-202322.0	-1719.0	11224.0
20	17	34	48	324	17.0	-203611.0	-1732.0	11274.0
20	17	34	48	344	18.0	-204673.0	-1774.0	11266.0
20	17	34	48	345	19.0	-205293.0	-1771.0	11695.0
20	17	34	48	346	21.0	-206106.0	-1846.0	11564.0
20	17	34	48	347	22.0	-206262.0	-1872.0	11155.0
20	17	34	48	348	23.0	-206252.0	-1892.0	10996.0
20	17	34	48	349	24.0	-206136.0	-1929.0	10688.0
20	17	34	48	349	25.0	-206034.0	-1943.0	10577.0
20	17	34	48	350	26.0	-205956.0	-1939.0	10853.0
20	17	34	48	351	27.0	-205852.0	-1932.0	10333.0
20	17	34	48	351	28.0	-205702.0	-1961.0	9958.0
20	17	34	48	352	29.0	-205596.0	-1967.0	10373.0
20	17	34	48	352	30.0	-205424.0	-1981.0	10358.0
20	17	34	48	353	31.0	-205376.0	-2024.0	10065.0
20	17	34	48	353	32.0	-205209.0	-2062.0	9671.0
20	17	34	48	361	33.0	-204799.0	-2082.0	9790.0
20	17	34	48	362	34.0	-204100.0	-2082.0	9538.0
20	17	34	48	362	43.0	-200256.0	-2064.0	9393.0
20	17	34	48	363	44.0	-200886.0	-2050.0	9297.0
20	17	34	48	363	45.0	-201423.0	-2024.0	9721.0
20	17	34	48	364	46.0	-201830.0	-2040.0	9722.0
20	17	34	48	365	47.0	-201712.0	-2034.0	9724.0
20	17	34	48	385	48.0	-201252.0	-2012.0	10168.0
20	17	34	48	386	49.0	-200525.0	-2011.0	10476.0
20	17	34	48	387	50.0	-199469.0	-1999.0	10510.0
20	17	34	48	387	51.0	-198341.0	-2009.0	10279.0
20	17	34	48	388	52.0	-197328.0	-2011.0	10228.0
20	17	34	48	389	53.0	-196476.0	-2017.0	10049.0
20	17	34	48	389	54.0	-195837.0	-2015.0	9658.0
20	17	34	48	390	55.0	-195410.0	-2006.0	10474.0
20	17	34	48	391	56.0	-195051.0	-1984.0	10673.0
20	17	34	48	391	57.0	-194986.0	-1964.0	10597.0
20	17	34	48	392	58.0	-195098.0	-1948.0	10655.0
20	17	34	48	392	59.0	-195286.0	-1942.0	11214.0
20	17	34	48	393	60.0	-195631.0	-1938.0	10891.0
20	17	34	48	394	61.0	-196159.0	-1949.0	10148.0
20	17	34	48	394	62.0	-196667.0	-1977.0	10004.0
20	17	34	48	395	63.0	-197252.0	-2007.0	10101.0
20	17	34	48	396	64.0	-197402.0	-2012.0	10174.0
20	17	34	48	396	65.0	-197547.0	-1998.0	10188.0
20	17	34	48	397	66.0	-197626.0	-1974.0	10635.0
20	17	34	48	397	67.0	-197620.0	-1970.0	10745.0
20	17	34	48	398	68.0	-197402.0	-1970.0	10903.0
20	17	34	48	399	69.0	-196963.0	-1981.0	11111.0
20	17	34	48	407	70.0	-196348.0	-1988.0	10817.0
20	17	34	48	408	71.0	-195479.0	-1978.0	10446.0
20	17	34	48	409	72.0	-194684.0	-2012.0	10483.0
20	17	34	48	432	73.0	-194039.0	-2057.0	10511.0
20	17	34	48	433	74.0	-193413.0	-2066.0	10047.0
20	17	34	48	433	75.0	-193052.0	-2060.0	10179.0
20	17	34	48	454	76.0	-193191.0	-2072.0	10794.0
20	17	34	48	454	77.0	-193347.0	-2076.0	10793.0
20	17	34	48	455	78.0	-193727.0	-2069.0	10434.0
20	17	34	48	455	79.0	-194259.0	-2058.0	10545.0
20	17	34	48	456	80.0	-194876.0	-2079.0	10726.0
20	17	34	48	456	81.0	-195509.0	-2111.0	10430.0
20	17	34	48	457	82.0	-196078.0	-2125.0	10045.0
20	17	34	48	477	83.0	-196614.0	-2146.0	9912.0
20	17	34	48	477	84.0	-197129.0	-2155.0	9866.0
20	17	34	48	478	85.0	-197559.0	-2160.0	9693.0
20	17	34	48	478	86.0	-198418.0	-2151.0	9758.0
20	17	34	48	479	87.0	-199769.0	-2154.0	9735.0
20	17	34	48	479	88.0	-201276.0	-2154.0	9630.0
20	17	34	48	480	89.0	-203072.0	-2146.0	9891.0
20	17	34	48	499	90.0	-205069.0	-2152.0	9796.0
20	17	34	48	500	91.0	-206963.0	-2181.0	9255.0
20	17	34	48	500	96.0	-212274.0	-2257.0	9706.0
20	17	34	48	501	97.0	-212136.0	-2249.0	9725.0
20	17	34	48	502	98.0	-211566.0	-2254.0	9894.0
20	17	34	48	502	99.0	-210831.0	-2250.0	10147.0
20	17	34	48	503	100.0	-209843.0	-2276.0	9799.0
20	17	34	48	522	101.0	-208576.0	-2302.0	9546.0
20	17	34	48	522	102.0	-206976.0	-2322.0	9907.0
20	17	34	48	523	103.0	-205446.0	-2328.0	10618.0
20	17	34	48	523	104.0	-203951.0	-2335.0	12538.0
20	17	34	48	524	105.0	-202415.0	-2319.0	14383.0
20	17	34	48	525	106.0	-200849.0	-2305.0	15944.0
20	17	34	48	525	107.0	-199285.0	-2307.0	16573.0
20	17	34	48	526	108.0	-197844.0	-2292.0	17357.0
20	17	34	48	526	109.0	-196511.0	-2296.0	18475.0
20	17	34	48	527	118.0	-192554.0	-2377.0	5989.0
20	17	34	48	527	119.0	-192891.0	-2364.0	-2554.0
20	17	34	48	528	120.0	-193446.0	-2359.0	-7521.0
20	17	34	48	529	121.0	-193932.0	-2374.0	-6226.0
20	17	34	48	529	122.0	-194566.0	-2387.0	-3762.0
20	17	34	48	544	123.0	-194925.0	-2392.0	-337.0
20	17	34	48	545	124.0	-195384.0	-2392.0	5620.0
20	17	34	48	545	126.0	-195784.0	-2389.0	21017.0
20	17	34	48	546	127.0	-196120.0	-2383.0	26697.0
20	17	34	48	547	128.0	-197321.0	-2372.0	31644.0
20	17	34	48	547	129.0	-199020.0	-2350.0	33675.0
20	17	34	48	548	130.0	-200973.0	-2351.0	32604.0
20	17	34	48	548	131.0	-203556.0	-2377.0	30881.0
20	17	34	48	549	132.0	-206536.0	-2393.0	28391.0
20	17	34	48	549	133.0	-209974.0	-2409.0	25016.0
20	17	34	48	550	134.0	-212527.0	-2416.0	22679.0
20	17	34	48	550	135.0	-213832.0	-2389.0	20893.0
20	17	34	48	551	136.0	-214398.0	-2379.0	18241.0
20	17	34	48	552	137.0	-213777.0	-2383.0	15041.0
20	17	34	48	552	138.0	-211969.0	-2374.0	12738.0
20	17	34	48	553	139.0	-208545.0	-2361.0	11043.0
20	17	34	48	553	140.0	-203259.0	-2366.0	9641.0
20	17	34	48	554	141.0	-197889.0	-2382.0	8762.0
20	17	34	48	554	142.0	-193249.0	-2394.0	7714.0
20	17	34	48	568	143.0	-189874.0	-2406.0	6829.0
20	17	34	48	568	144.0	-188683.0	-2400.0	6863.0
20	17	34	48	569	145.0	-189236.0	-2389.0	6550.0
20	17	34	48	570	146.0	-191951.0	-2404.0	6076.0
20	17	34	48	570	147.0	-196544.0	-2430.0	6124.0
20	17	34	48	571	148.0	-201944.0	-2430.0	6287.0
20	17	34	48	571	149.0	-206653.0	-2408.0	5951.0
20	17	34	48	598	150.0	-210004.0	-2412.0	5901.0
20	17	34	48	599	151.0	-212579.0	-2457.0	5659.0
20	17	34	48	600	152.0	-213701.0	-2509.0	5518.0
20	17	34	48	600	153.0	-213243.0	-2536.0	5066.0
20	17	34	48	601	154.0	-210785.0	-2551.0	4818.0
20	17	34	48	602	155.0	-206359.0	-2547.0	5141.0
20	17	34	48	602	156.0	-200569.0	-2542.0	5268.0
20	17	34	48	603	157.0	-193958.0	-2531.0	5073.0
20	17	34	48	604	158.0	-187309.0	-2547.0	4781.0
20	17	34	48	604	159.0	-181123.0	-2571.0	4836.0
20	17	34	48	605	160.0	-176384.0	-2607.0	4576.0
20	17	34	48	605	161.0	-173952.0	-2654.0	4107.0
20	17	34	48	606	162.0	-173779.0	-2674.0	3845.0
20	17	34	48	617	163.0	-175104.0	-2703.0	3479.0
20	17	34	48	617	164.0	-176279.0	-2701.0	3219.0
20	17	34	48	618	165.0	-176939.0	-2682.0	3261.0
20	17	34	48	619	170.0	-181228.0	-2736.0	2994.0
20	17	34	48	620	171.0	-182771.0	-2787.0	2512.0
20	17	34	48	620	172.0	-184451.0	-2812.0	2099.0
20	17	34	48	621	173.0	-186315.0	-2853.0	1578.0
20	17	34	48	640	174.0	-188552.0	-2861.0	1896.0
20	17	34	48	641	175.0	-190991.0	-2834.0	1938.0
20	17	34	48	641	176.0	-193669.0	-2816.0	1749.0
20	17	34	48	642	177.0	-196514.0	-2839.0	1663.0
20	17	34	48	643	178.0	-199065.0	-2846.0	1794.0
20	17	34	48	643	179.0	-201421.0	-2847.0	1657.0
20	17	34	48	644	180.0	-203757.0	-2860.0	1513.0
20	17	34	48	645	181.0	-205420.0	-2897.0	1061.0
20	17	34	48	645	182.0	-206461.0	-2937.0	681.0
20	17	34	48	646	183.0	-207320.0	-2979.0	303.0
20	17	34	48	646	184.0	-207848.0	-2986.0	813.0
20	17	34	48	647	185.0	-208012.0	-2997.0	1543.0
20	17	34	48	648	186.0	-207905.0	-3016.0	923.0
20	17	34	48	648	187.0	-207639.0	-3016.0	374.0
20	17	34	48	649	188.0	-207362.0	-3024.0	242.0
20	17	34	48	650	189.0	-207176.0	-3024.0	162.0
20	17	34	48	650	190.0	-207192.0	-3054.0	-353.0
20	17	34	48	651	191.0	-207162.0	-3101.0	-649.0
20	17	34	48	651	192.0	-207207.0	-3136.0	-552.0
20	17	34	48	652	193.0	-207106.0	-3156.0	-940.0
20	17	34	48	653	194.0	-206900.0	-3161.0	-750.0
20	17	34	48	653	195.0	-206491.0	-3185.0	-457.0
20	17	34	48	654	196.0	-205761.0	-3206.0	-647.0
20	17	34	48	662	197.0	-204719.0	-3226.0	-1087.0
20	17	34	48	663	198.0	-203671.0	-3226.0	-1062.0
20	17	34	48	664	199.0	-202724.0	-3221.0	-924.0
20	17	34	48	664	200.0	-201884.0	-3262.0	-1436.0
20	17	34	48	687	201.0	-201297.0	-3310.0	-1571.0
20	17	34	48	687	202.0	-201168.0	-3351.0	-2268.0
20	17	34	48	688	203.0	-201473.0	-3373.0	-2362.0
20	17	34	48	689	204.0	-202097.0	-3390.0	-2224.0
20	17	34	48	689	205.0	-202916.0	-3384.0	-2221.0
20	17	34	48	690	206.0	-203652.0	-3361.0	-2297.0
20	17	34	48	690	207.0	-204364.0	-3369.0	-2102.0
20	17	34	48	719	208.0	-204922.0	-3359.0	-2041.0
20	17	34	48	720	209.0	-205020.0	-3371.0	-1763.0
20	17	34	48	721	210.0	-204681.0	-3409.0	-1997.0
20	17	34	48	721	211.0	-204112.0	-3451.0	-2513.0
20	17	34	48	722	212.0	-203334.0	-3508.0	-2677.0
20	17	34	48	723	213.0	-202468.0	-3537.0	-2602.0
20	17	34	48	723	214.0	-201939.0	-3551.0	-2634.0
20	17	34	48	733	215.0	-201430.0	-3568.0	-2766.0
20	17	34	48	734	216.0	-200932.0	-3587.0	-2989.0
20	17	34	48	734	217.0	-200812.0	-3582.0	-2647.0
20	17	34	48	735	218.0	-200891.0	-3589.0	-2317.0
20	17	34	48	736	219.0	-200863.0	-3597.0	-2184.0
20	17	34	48	736	220.0	-200744.0	-3608.0	-1979.0
20	17	34	48	737	221.0	-200919.0	-3627.0	-1891.0
20	17	34	48	755	222.0	-201061.0	-3662.0	-2341.0
20	17	34	48	756	223.0	-201072.0	-3666.0	-2319.0
20	17	34	48	756	230.0	-200326.0	-3698.0	103.0
20	17	34	48	757	231.0	-200441.0	-3757.0	340.0
20	17	34	48	758	232.0	-200635.0	-3794.0	204.0
20	17	34	48	758	233.0	-200631.0	-3804.0	-100.0
20	17	34	48	759	234.0	-200682.0	-3807.0	495.0
20	17	34	48	759	235.0	-200969.0	-3822.0	1304.0
20	17	34	48	760	236.0	-201133.0	-3804.0	1453.0
20	17	34	48	761	238.0	-200889.0	-3785.0	2635.0
20	17	34	48	761	239.0	-200719.0	-3759.0	3178.0
20	17	34	48	762	240.0	-200164.0	-3778.0	3181.0
20	17	34	48	762	241.0	-199847.0	-3794.0	3278.0
20	17	34	48	763	242.0	-199467.0	-3826.0	3260.0
20	17	34	48	763	243.0	-198975.0	-3816.0	3306.0
20	17	34	48	764	244.0	-198774.0	-3788.0	3640.0
20	17	34	48	764	245.0	-198597.0	-3769.0	4034.0
20	17	34	48	765	246.0	-198430.0	-3762.0	4118.0
20	17	34	48	766	247.0	-198184.0	-3746.0	4662.0
20	17	34	48	778	248.0	-198129.0	-3727.0	5118.0
20	17	34	48	803	249.0	-198136.0	-3702.0	5278.0
20	17	34	48	804	250.0	-198415.0	-3702.0	5136.0
20	17	34	48	804	251.0	-198772.0	-3721.0	5120.0
20	17	34	48	826	252.0	-199191.0	-3725.0	4939.0
20	17	34	48	827	253.0	-199614.0	-3727.0	4708.0
20	17	34	48	827	254.0	-200220.0	-3705.0	5013.0
20	17	34	48	828	255.0	-200911.0	-3666.0	5365.0
20	17	34	48	828	0.0	-201704.0	-3624.0	5393.0
20	17	34	48	829	1.0	-202664.0	-3577.0	5871.0
20	17	34	48	830	2.0	-203514.0	-3543.0	6043.0
20	17	34	48	830	3.0	-204476.0	-3491.0	6273.0
20	17	34	48	831	4.0	-205088.0	-3472.0	6299.0
20	17	34	48	831	5.0	-205366.0	-3451.0	5929.0
20	17	34	48	832	6.0	-205507.0	-3442.0	5446.0
20	17	34	48	832	7.0	-205259.0	-3442.0	5526.0
20	17	34	48	833	8.0	-205064.0	-3411.0	5723.0
20	17	34	48	834	9.0	-205231.0	-3324.0	5831.0
20	17	34	48	848	10.0	-205416.0	-3260.0	5955.0
20	17	34	48	849	11.0	-205842.0	-3216.0	6286.0
20	17	34	48	849	19.0	-209069.0	-2827.0	6496.0
20	17	34	48	850	20.0	-210315.0	-2748.0	6253.0
20	17	34	48	851	21.0	-211416.0	-2684.0	6371.0
20	17	34	48	851	22.0	-212527.0	-2641.0	6887.0
20	17	34	48	852	23.0	-213141.0	-2564.0	6683.0
20	17	34	48	853	24.0	-212979.0	-2532.0	6418.0
20	17	34	48	853	25.0	-211982.0	-2491.0	6273.0
20	17	34	48	854	27.0	-205732.0	-2412.0	6016.0
20	17	34	48	854	28.0	-199335.0	-2331.0	6431.0
20	17	34	48	855	29.0	-187646.0	-2285.0	6644.0
20	17	34	48	856	30.0	-172185.0	-2230.0	6766.0
20	17	34	48	856	31.0	-161867.0	-2170.0	6553.0
20	17	34	48	857	32.0	-160821.0	-2106.0	6589.0
20	17	34	48	857	33.0	-167269.0	-2034.0	6665.0
20	17	34	48	858	34.0	-177015.0	-1989.0	6310.0
20	17	34	48	858	35.0	-189807.0	-1945.0	6101.0
20	17	34	48	859	36.0	-200286.0	-1887.0	5708.0
20	17	34	48	860	37.0	-205971.0	-1822.0	5703.0
20	17	34	48	860	38.0	-208537.0	-1746.0	5854.0
20	17	34	48	861	39.0	-209669.0	-1672.0	6004.0
20	17	34	48	861	40.0	-207697.0	-1617.0	6206.0
20	17	34	48	862	41.0	-204292.0	-1559.0	6463.0
20	17	34	48	862	42.0	-200956.0	-1497.0	6603.0
20	17	34	48	870	43.0	-198849.0	-1452.0	6623.0
20	17	34	48	871	44.0	-197527.0	-1437.0	6527.0
20	17	34	48	871	45.0	-196678.0	-1435.0	6271.0
20	17	34	48	872	46.0	-196277.0	-1432.0	5913.0
20	17	34	48	873	47.0	-196000.0	-1394.0	5867.0
20	17	34	48	873	48.0	-196287.0	-1346.0	5696.0
20	17	34	48	874	49.0	-197504.0	-1309.0	5956.0
20	17	34	48	899	50.0	-199035.0	-1266.0	6056.0
20	17	34	48	899	51.0	-200545.0	-1213.0	6298.0
20	17	34	48	900	52.0	-202135.0	-1162.0	6434.0
20	17	34	48	901	53.0	-203982.0	-1131.0	6577.0
20	17	34	48	901	54.0	-205891.0	-1131.0	6416.0
20	17	34	48	902	55.0	-207854.0	-1114.0	6324.0
20	17	34	48	903	56.0	-209692.0	-1077.0	5707.0
20	17	34	48	919	57.0	-210831.0	-1054.0	5654.0
20	17	34	48	942	58.0	-210943.0	-1031.0	6593.0
20	17	34	48	943	59.0	-209846.0	-985.0	6892.0
20	17	34	48	944	60.0	-207656.0	-923.0	6496.0
20	17	34	48	944	61.0	-204349.0	-882.0	6518.0
20	17	34	48	945	62.0	-200062.0	-859.0	6874.0
20	17	34	48	946	63.0	-195059.0	-824.0	6820.0
20	17	34	48	946	64.0	-190907.0	-805.0	6486.0
20	17	34	48	947	65.0	-188639.0	-791.0	6253.0
20	17	34	48	947	66.0	-187837.0	-764.0	5728.0
20	17	34	48	948	67.0	-188841.0	-749.0	6122.0
20	17	34	48	948	68.0	-191324.0	-724.0	6424.0
20	17	34	48	949	69.0	-194169.0	-720.0	6398.0
20	17	34	48	950	70.0	-196812.0	-693.0	6420.0
20	17	34	48	950	71.0	-198841.0	-669.0	6511.0
20	17	34	48	966	72.0	-200369.0	-645.0	6923.0
20	17	34	48	967	79.0	-207632.0	-696.0	6578.0
20	17	34	48	967	80.0	-208254.0	-696.0	6340.0
20	17	34	48	968	81.0	-208565.0	-699.0	6457.0
20	17	34	48	969	82.0	-208564.0	-691.0	6442.0
20	17	34	48	969	83.0	-208191.0	-685.0	6654.0
20	17	34	48	970	84.0	-207429.0	-700.0	6283.0
20	17	34	48	989	85.0	-206666.0	-714.0	6127.0
20	17	34	48	989	86.0	-206077.0	-727.0	5884.0
20	17	34	48	990	87.0	-205555.0	-722.0	6202.0
20	17	34	48	991	88.0	-205212.0	-709.0	6018.0
20	17	34	48	991	89.0	-205199.0	-704.0	6049.0
20	17	34	48	992	90.0	-205251.0	-689.0	6644.0
20	17	34	48	992	91.0	-205258.0	-669.0	6497.0
20	17	34	48	993	92.0	-205404.0	-657.0	6381.0
20	17	34	48	994	93.0	-205686.0	-654.0	6565.0
20	17	34	49	11	94.0	-205614.0	-691.0	6299.0
20	17	34	49	12	95.0	-205528.0	-695.0	6155.0
20	17	34	49	12	96.0	-205347.0	-702.0	5492.0
20	17	34	49	13	97.0	-205138.0	-707.0	5453.0
20	17	34	49	14	98.0	-204875.0	-700.0	5764.0
20	17	34	49	14	99.0	-204494.0	-696.0	5533.0
20	17	34	49	15	100.0	-203828.0	-686.0	5846.0
20	17	34	49	35	102.0	-202089.0	-669.0	6161.0
20	17	34	49	36	103.0	-201058.0	-675.0	6010.0
20	17	34	49	37	104.0	-199928.0	-705.0	5921.0
20	17	34	49	37	105.0	-198768.0	-726.0	5380.0
20	17	34	49	38	106.0	-197602.0	-753.0	4974.0
20	17	34	49	38	107.0	-196567.0	-771.0	5006.0
20	17	34	49	39	108.0	-195851.0	-758.0	4907.0
20	17	34	49	58	109.0	-195476.0	-747.0	4678.0
20	17	34	49	59	110.0	-195509.0	-755.0	4577.0
20	17	34	49	60	117.0	-201036.0	-831.0	4145.0
20	17	34	49	60	118.0	-201735.0	-807.0	4249.0
20	17	34	49	61	119.0	-202124.0	-799.0	4570.0
20	17	34	49	61	120.0	-202286.0	-786.0	4569.0
20	17	34	49	62	121.0	-202434.0	-772.0	4565.0
20	17	34	49	63	122.0	-202208.0	-772.0	4913.0
20	17	34	49	63	123.0	-201785.0	-779.0	5091.0
20	17	34	49	64	124.0	-201332.0	-800.0	5184.0
20	17	34	49	65	125.0	-200763.0	-821.0	5116.0
20	17	34	49	65	126.0	-199981.0	-850.0	4696.0
20	17	34	49	66	127.0	-199142.0	-865.0	4426.0
20	17	34	49	66	128.0	-198296.0	-839.0	4709.0
20	17	34	49	80	129.0	-197725.0	-827.0	5127.0
20	17	34	49	81	130.0	-197683.0	-825.0	5439.0
20	17	34	49	82	139.0	-204744.0	-781.0	6131.0
20	17	34	49	82	140.0	-204008.0	-749.0	6172.0
20	17	34	49	83	141.0	-202758.0	-725.0	6298.0
20	17	34	49	84	142.0	-201191.0	-707.0	6753.0
20	17	34	49	84	143.0	-199484.0	-678.0	6751.0
20	17	34	49	104	144.0	-197677.0	-699.0	6892.0
20	17	34	49	105	145.0	-195955.0	-707.0	6826.0
20	17	34	49	106	147.0	-193512.0	-689.0	6868.0
20	17	34	49	106	148.0	-192687.0	-669.0	6880.0
20	17	34	49	107	149.0	-192186.0	-671.0	6702.0
20	17	34	49	108	150.0	-192109.0	-677.0	6848.0
20	17	34	49	108	151.0	-192241.0	-656.0	7241.0
20	17	34	49	109	152.0	-192461.0	-626.0	7175.0
20	17	34	49	110	153.0	-192701.0	-627.0	6987.0
20	17	34	49	110	154.0	-192846.0	-653.0	6529.0
20	17	34	49	111	155.0	-192911.0	-656.0	6553.0
20	17	34	49	112	156.0	-192914.0	-666.0	6737.0
20	17	34	49	112	157.0	-192595.0	-661.0	6567.0
20	17	34	49	113	158.0	-192182.0	-651.0	6791.0
20	17	34	49	126	159.0	-191852.0	-643.0	6929.0
20	17	34	49	127	160.0	-191872.0	-637.0	6916.0
20	17	34	49	128	162.0	-192466.0	-610.0	6860.0
20	17	34	49	129	163.0	-193022.0	-616.0	6701.0
20	17	34	49	129	164.0	-193812.0	-621.0	6301.0
20	17	34	49	130	165.0	-194751.0	-627.0	6174.0
20	17	34	49	130	166.0	-195786.0	-647.0	6060.0
20	17	34	49	154	167.0	-196949.0	-626.0	5819.0
20	17	34	49	155	168.0	-198104.0	-604.0	6120.0
20	17	34	49	156	169.0	-199116.0	-595.0	6289.0
20	17	34	49	156	170.0	-199954.0	-591.0	6093.0
20	17	34	49	157	171.0	-200771.0	-579.0	6085.0
20	17	34	49	158	172.0	-201424.0	-551.0	6265.0
20	17	34	49	158	173.0	-201895.0	-546.0	6373.0
20	17	34	49	159	174.0	-202205.0	-563.0	5792.0
20	17	34	49	160	175.0	-202464.0	-579.0	5183.0
20	17	34	49	160	177.0	-202473.0	-579.0	5288.0
20	17	34	49	161	178.0	-202425.0	-539.0	5340.0
20	17	34	49	162	179.0	-202628.0	-503.0	5630.0
20	17	34	49	163	180.0	-202976.0	-485.0	5830.0
20	17	34	49	163	181.0	-203422.0	-478.0	5479.0
20	17	34	49	164	182.0	-203989.0	-436.0	5146.0
20	17	34	49	165	183.0	-204639.0	-429.0	5396.0
20	17	34	49	165	192.0	-206128.0	-431.0	14831.0
20	17	34	49	166	193.0	-205011.0	-427.0	13726.0
20	17	34	49	167	194.0	-203556.0	-441.0	11958.0
20	17	34	49	174	195.0	-201752.0	-484.0	11175.0
20	17	34	49	175	196.0	-200179.0	-505.0	11825.0
20	17	34	49	176	197.0	-199000.0	-497.0	12956.0
20	17	34	49	177	198.0	-198165.0	-461.0	14463.0
20	17	34	49	177	199.0	-197531.0	-465.0	14624.0
20	17	34	49	197	200.0	-197058.0	-479.0	9696.0
20	17	34	49	198	201.0	-196868.0	-472.0	2061.0
20	17	34	49	199	202.0	-197107.0	-468.0	-6395.0
20	17	34	49	199	203.0	-197521.0	-490.0	-11539.0
20	17	34	49	200	204.0	-198128.0	-520.0	-10271.0
20	17	34	49	201	205.0	-198600.0	-542.0	-6740.0
20	17	34	49	201	206.0	-199164.0	-573.0	-2893.0
20	17	34	49	202	207.0	-199667.0	-584.0	3250.0
20	17	34	49	202	208.0	-200189.0	-585.0	11380.0
20	17	34	49	203	209.0	-200836.0	-579.0	20161.0
20	17	34	49	204	210.0	-201831.0	-589.0	25683.0
20	17	34	49	204	211.0	-203059.0	-593.0	30115.0
20	17	34	49	205	212.0	-204728.0	-587.0	31935.0
20	17	34	49	205	213.0	-206557.0	-587.0	30724.0
20	17	34	49	228	214.0	-208382.0	-616.0	28692.0
20	17	34	49	229	215.0	-210116.0	-638.0	26224.0
20	17	34	49	230	216.0	-212029.0	-634.0	23363.0
20	17	34	49	230	217.0	-213148.0	-607.0	20711.0
20	17	34	49	231	218.0	-212276.0	-592.0	18482.0
20	17	34	49	232	219.0	-210555.0	-580.0	16014.0
20	17	34	49	232	220.0	-208477.0	-581.0	13046.0
20	17	34	49	245	221.0	-205734.0	-579.0	10569.0
20	17	34	49	246	222.0	-202540.0	-562.0	8388.0
20	17	34	49	247	223.0	-199003.0	-579.0	7034.0
20	17	34	49	248	224.0	-195655.0	-601.0	6070.0
20	17	34	49	248	225.0	-192459.0	-634.0	4399.0
20	17	34	49	249	226.0	-189732.0	-669.0	3338.0
20	17	34	49	250	227.0	-188303.0	-701.0	3140.0
20	17	34	49	269	228.0	-189035.0	-691.0	2684.0
20	17	34	49	270	229.0	-192556.0	-707.0	2456.0
20	17	34	49	271	230.0	-197745.0	-691.0	2534.0
20	17	34	49	272	231.0	-202802.0	-671.0	2605.0
20	17	34	49	272	232.0	-206526.0	-673.0	2417.0
20	17	34	49	273	233.0	-208876.0	-706.0	2158.0
20	17	34	49	274	234.0	-210049.0	-715.0	1531.0
20	17	34	49	274	235.0	-209804.0	-741.0	1154.0
20	17	34	49	275	236.0	-207740.0	-751.0	844.0
20	17	34	49	276	237.0	-203804.0	-771.0	704.0
20	17	34	49	277	238.0	-198199.0	-764.0	759.0
20	17	34	49	277	239.0	-191556.0	-760.0	583.0
20	17	34	49	278	240.0	-185136.0	-766.0	683.0
20	17	34	49	278	241.0	-179114.0	-773.0	749.0
20	17	34	49	293	242.0	-174742.0	-761.0	830.0
20	17	34	49	294	243.0	-172371.0	-780.0	760.0
20	17	34	49	295	244.0	-171862.0	-799.0	512.0
20	17	34	49	295	245.0	-172421.0	-826.0	138.0
20	17	34	49	296	246.0	-173807.0	-835.0	-179.0
20	17	34	49	297	247.0	-175094.0	-859.0	68.0
20	17	34	49	297	248.0	-176177.0	-846.0	296.0
20	17	34	49	318	249.0	-177469.0	-840.0	89.0
20	17	34	49	321	250.0	-179337.0	-847.0	-369.0
20	17	34	49	322	251.0	-181979.0	-839.0	-49.0
20	17	34	49	330	252.0	-184749.0	-833.0	60.0
20	17	34	49	333	253.0	-187326.0	-841.0	-343.0
20	17	34	49	334	254.0	-189637.0	-871.0	-663.0
20	17	34	49	334	255.0	-191685.0	-896.0	-1226.0
20	17	34	49	335	0.0	-193685.0	-932.0	-1661.0
20	17	34	49	335	1.0	-195728.0	-952.0	-1772.0
20	17	34	49	336	3.0	-200161.0	-914.0	-1672.0
20	17	34	49	337	4.0	-202342.0	-929.0	-1696.0
20	17	34	49	337	5.0	-204509.0	-925.0	-1962.0
20	17	34	49	338	6.0	-206470.0	-911.0	-1797.0
20	17	34	49	338	7.0	-207810.0	-929.0	-2041.0
20	17	34	49	339	8.0	-208621.0	-967.0	-2379.0
20	17	34	49	339	9.0	-208954.0	-996.0	-3120.0
20	17	34	49	340	10.0	-208897.0	-999.0	-2866.0
20	17	34	49	340	11.0	-208479.0	-1009.0	-2872.0
20	17	34	49	341	12.0	-208019.0	-979.0	-3100.0
20	17	34	49	341	13.0	-207725.0	-964.0	-3127.0
20	17	34	49	342	14.0	-207714.0	-973.0	-3389.0
20	17	34	49	350	15.0	-208094.0	-967.0	-3305.0
20	17	34	49	351	16.0	-208652.0	-952.0	-3249.0
20	17	34	49	351	18.0	-209864.0	-1019.0	-3939.0
20	17	34	49	352	19.0	-210041.0	-1063.0	-4292.0
20	17	34	49	353	20.0	-209815.0	-1077.0	-4903.0
20	17	34	49	353	21.0	-209045.0	-1097.0	-4669.0
20	17	34	49	354	22.0	-207887.0	-1101.0	-4459.0
20	17	34	49	354	23.0	-206412.0	-1097.0	-4444.0
20	17	34	49	355	24.0	-204718.0	-1090.0	-4716.0
20	17	34	49	356	25.0	-202729.0	-1095.0	-4807.0
20	17	34	49	356	26.0	-200702.0	-1082.0	-4882.0
20	17	34	49	357	27.0	-199231.0	-1131.0	-4941.0
20	17	34	49	357	28.0	-198361.0	-1177.0	-5321.0
20	17	34	49	358	29.0	-197861.0	-1210.0	-6096.0
20	17	34	49	358	30.0	-197637.0	-1251.0	-6212.0
20	17	34	49	359	31.0	-197669.0	-1292.0	-6072.0
20	17	34	49	360	33.0	-197616.0	-1309.0	-5822.0
20	17	34	49	360	34.0	-197512.0	-1326.0	-5629.0
20	17	34	49	361	35.0	-197252.0	-1333.0	-5340.0
20	17	34	49	373	36.0	-196642.0	-1331.0	-5501.0
20	17	34	49	374	37.0	-195881.0	-1356.0	-5983.0
20	17	34	49	375	38.0	-195304.0	-1387.0	-6427.0
20	17	34	49	375	39.0	-195111.0	-1420.0	-6598.0
20	17	34	49	376	40.0	-195479.0	-1429.0	-6796.0
20	17	34	49	396	41.0	-196119.0	-1461.0	-6935.0
20	17	34	49	396	42.0	-197353.0	-1448.0	-6687.0
20	17	34	49	397	43.0	-198697.0	-1449.0	-6471.0
20	17	34	49	397	44.0	-200003.0	-1479.0	-6373.0
20	17	34	49	398	45.0	-201103.0	-1499.0	-6102.0
20	17	34	49	399	46.0	-202159.0	-1498.0	-5938.0
20	17	34	49	399	47.0	-203079.0	-1555.0	-6051.0
20	17	34	49	400	48.0	-203444.0	-1586.0	-6547.0
20	17	34	49	400	49.0	-203294.0	-1656.0	-6868.0
20	17	34	49	401	50.0	-202896.0	-1677.0	-6456.0
20	17	34	49	401	51.0	-202372.0	-1687.0	-6384.0
20	17	34	49	402	52.0	-201618.0	-1706.0	-5906.0
20	17	34	49	402	53.0	-200734.0	-1723.0	-5436.0
20	17	34	49	403	54.0	-200073.0	-1723.0	-4896.0
20	17	34	49	404	55.0	-200003.0	-1700.0	-4719.0
20	17	34	49	404	56.0	-200326.0	-1696.0	-4180.0
20	17	34	49	405	57.0	-200841.0	-1726.0	-4184.0
20	17	34	49	419	58.0	-201625.0	-1772.0	-3941.0
20	17	34	49	420	59.0	-202491.0	-1812.0	-4094.0
20	17	34	49	420	60.0	-203515.0	-1821.0	-4039.0
20	17	34	49	421	61.0	-204194.0	-1820.0	-4017.0
20	17	34	49	421	62.0	-204684.0	-1820.0	-3556.0
20	17	34	49	422	63.0	-204968.0	-1836.0	-2329.0
20	17	34	49	423	64.0	-205003.0	-1826.0	-1852.0
20	17	34	49	423	65.0	-204648.0	-1822.0	-1850.0
20	17	34	49	424	66.0	-203899.0	-1827.0	-1324.0
20	17	34	49	424	67.0	-202732.0	-1845.0	-907.0
20	17	34	49	425	68.0	-201444.0	-1874.0	-876.0
20	17	34	49	425	69.0	-200121.0	-1873.0	-1461.0
20	17	34	49	426	70.0	-198796.0	-1879.0	-779.0
20	17	34	49	427	71.0	-197515.0	-1864.0	-229.0
20	17	34	49	454	72.0	-196414.0	-1837.0	24.0
20	17	34	49	457	73.0	-195472.0	-1811.0	222.0
20	17	34	49	457	74.0	-194732.0	-1781.0	613.0
20	17	34	49	458	75.0	-194336.0	-1759.0	1029.0
20	17	34	49	459	76.0	-193975.0	-1732.0	1408.0
20	17	34	49	459	77.0	-193711.0	-1706.0	1299.0
20	17	34	49	460	78.0	-193799.0	-1687.0	1031.0
20	17	34	49	461	79.0	-194021.0	-1673.0	654.0
20	17	34	49	461	80.0	-194028.0	-1639.0	770.0
20	17	34	49	462	81.0	-194012.0	-1617.0	1118.0
20	17	34	49	462	82.0	-193991.0	-1576.0	1299.0
20	17	34	49	463	83.0	-193867.0	-1531.0	1433.0
20	17	34	49	464	84.0	-193836.0	-1501.0	1571.0
20	17	34	49	464	85.0	-193661.0	-1463.0	1685.0
20	17	34	49	465	86.0	-193541.0	-1425.0	2105.0
20	17	34	49	465	87.0	-193660.0	-1413.0	2123.0
20	17	34	49	466	88.0	-193779.0	-1385.0	1816.0
20	17	34	49	466	89.0	-193791.0	-1363.0	1176.0
20	17	34	49	467	90.0	-193919.0	-1321.0	1210.0
20	17	34	49	467	91.0	-194126.0	-1261.0	1166.0
20	17	34	49	477	92.0	-194323.0	-1209.0	1271.0
20	17	34	49	500	93.0	-194475.0	-1167.0	1686.0
20	17	34	49	501	94.0	-194770.0	-1091.0	1799.0
20	17	34	49	502	95.0	-195118.0	-1026.0	1878.0
20	17	34	49	502	96.0	-195498.0	-984.0	2486.0
20	17	34	49	503	97.0	-195905.0	-929.0	2638.0
20	17	34	49	503	98.0	-196636.0	-881.0	2351.0
20	17	34	49	504	99.0	-197741.0	-830.0	1968.0
20	17	34	49	505	100.0	-199229.0	-804.0	2137.0
20	17	34	49	505	101.0	-200686.0	-725.0	2012.0
20	17	34	49	506	102.0	-202121.0	-658.0	1963.0
20	17	34	49	506	103.0	-203871.0	-606.0	2328.0
20	17	34	49	507	104.0	-206485.0	-536.0	2513.0
20	17	34	49	507	105.0	-209457.0	-486.0	2405.0
20	17	34	49	508	106.0	-212123.0	-405.0	2880.0
20	17	34	49	508	107.0	-214198.0	-361.0	3155.0
20	17	34	49	509	108.0	-215598.0	-309.0	2874.0
20	17	34	49	524	109.0	-216032.0	-245.0	2573.0
20	17	34	49	525	110.0	-215403.0	-191.0	2981.0
20	17	34	49	525	111.0	-213288.0	-113.0	3001.0
20	17	34	49	526	112.0	-207603.0	-32.0	2950.0
20	17	34	49	526	113.0	-197287.0	31.0	3028.0
20	17	34	49	527	114.0	-189628.0	107.0	3129.0
20	17	34	49	528	115.0	-186906.0	205.0	3332.0
20	17	34	49	528	116.0	-192502.0	291.0	3274.0
20	17	34	49	529	117.0	-200452.0	339.0	3181.0
20	17	34	49	530	118.0	-212337.0	379.0	3205.0
20	17	34	49	530	119.0	-223798.0	440.0	2942.0
20	17	34	49	531	120.0	-230856.0	506.0	2859.0
20	17	34	49	531	121.0	-231922.0	593.0	3230.0
20	17	34	49	532	122.0	-229871.0	673.0	3314.0
20	17	34	49	532	123.0	-225008.0	751.0	3292.0
20	17	34	49	548	124.0	-217764.0	830.0	3174.0
20	17	34	49	548	125.0	-210455.0	914.0	3468.0
20	17	34	49	549	126.0	-203649.0	980.0	3396.0
20	17	34	49	550	127.0	-197392.0	1023.0	3291.0
20	17	34	49	570	128.0	-191844.0	1042.0	2959.0
20	17	34	49	571	129.0	-187287.0	1062.0	2931.0
20	17	34	49	572	130.0	-183514.0	1100.0	2883.0
20	17	34	49	572	131.0	-180900.0	1155.0	2518.0
20	17	34	49	573	132.0	-179914.0	1201.0	2788.0
20	17	34	49	573	133.0	-180152.0	1254.0	3244.0
20	17	34	49	574	134.0	-180853.0	1317.0	3092.0
20	17	34	49	575	135.0	-182306.0	1368.0	3468.0
20	17	34	49	576	136.0	-184413.0	1401.0	3317.0
20	17	34	49	576	137.0	-186921.0	1403.0	3146.0
20	17	34	49	577	138.0	-189649.0	1385.0	3132.0
20	17	34	49	578	139.0	-192566.0	1383.0	2921.0
20	17	34	49	578	140.0	-195374.0	1400.0	2625.0
20	17	34	49	579	141.0	-197267.0	1433.0	2912.0
20	17	34	49	593	142.0	-197817.0	1440.0	3527.0
20	17	34	49	594	143.0	-196712.0	1486.0	3972.0
20	17	34	49	594	144.0	-193549.0	1544.0	3693.0
20	17	34	49	595	145.0	-189453.0	1582.0	3574.0
20	17	34	49	596	146.0	-185988.0	1614.0	4001.0
20	17	34	49	596	147.0	-184277.0	1631.0	3919.0
20	17	34	49	597	148.0	-184371.0	1648.0	2944.0
20	17	34	49	616	149.0	-186039.0	1645.0	2757.0
20	17	34	49	617	150.0	-188571.0	1655.0	3560.0
20	17	34	49	617	151.0	-191017.0	1659.0	3599.0
20	17	34	49	618	152.0	-193106.0	1682.0	4002.0
20	17	34	49	619	153.0	-194886.0	1704.0	4254.0
20	17	34	49	619	154.0	-196648.0	1711.0	4709.0
20	17	34	49	620	155.0	-198837.0	1734.0	4783.0
20	17	34	49	621	156.0	-201486.0	1751.0	4888.0
20	17	34	49	621	157.0	-204401.0	1729.0	4628.0
20	17	34	49	622	158.0	-207643.0	1725.0	4156.0
20	17	34	49	622	159.0	-211056.0	1713.0	4014.0
20	17	34	49	623	160.0	-214284.0	1715.0	4384.0
20	17	34	49	624	161.0	-217421.0	1720.0	4486.0
20	17	34	49	624	162.0	-219851.0	1732.0	4873.0
20	17	34	49	625	163.0	-221416.0	1756.0	5012.0
20	17	34	49	626	164.0	-222006.0	1794.0	5181.0
20	17	34	49	626	165.0	-221464.0	1813.0	5245.0
20	17	34	49	627	166.0	-220012.0	1804.0	5159.0
20	17	34	49	627	167.0	-218306.0	1773.0	4921.0
20	17	34	49	628	168.0	-216647.0	1773.0	4859.0
20	17	34	49	628	169.0	-214967.0	1764.0	4214.0
20	17	34	49	629	170.0	-213504.0	1761.0	4313.0
20	17	34	49	630	171.0	-212331.0	1746.0	4418.0
20	17	34	49	638	172.0	-211446.0	1743.0	4644.0
20	17	34	49	639	173.0	-210676.0	1753.0	5066.0
20	17	34	49	639	174.0	-209644.0	1781.0	4863.0
20	17	34	49	662	175.0	-208213.0	1783.0	5216.0
20	17	34	49	663	176.0	-206377.0	1778.0	5380.0
20	17	34	49	664	177.0	-204087.0	1760.0	5031.0
20	17	34	49	664	178.0	-201482.0	1739.0	4688.0
20	17	34	49	665	179.0	-198646.0	1708.0	4515.0
20	17	34	49	665	180.0	-195302.0	1692.0	4293.0
20	17	34	49	666	181.0	-191664.0	1701.0	4434.0
20	17	34	49	667	182.0	-188024.0	1714.0	5022.0
20	17	34	49	667	183.0	-184413.0	1721.0	5125.0
20	17	34	49	668	184.0	-181133.0	1739.0	5243.0
20	17	34	49	668	185.0	-178634.0	1750.0	5468.0
20	17	34	49	669	186.0	-176777.0	1754.0	5451.0
20	17	34	49	669	187.0	-175486.0	1741.0	5421.0
20	17	34	49	670	188.0	-174979.0	1708.0	4673.0
20	17	34	49	671	189.0	-175371.0	1676.0	4520.0
20	17	34	49	671	190.0	-176659.0	1671.0	4696.0
20	17	34	49	685	191.0	-178937.0	1684.0	4451.0
20	17	34	49	685	192.0	-182034.0	1681.0	4788.0
20	17	34	49	686	193.0	-186102.0	1675.0	5038.0
20	17	34	49	686	194.0	-191121.0	1659.0	5159.0
20	17	34	49	687	195.0	-196472.0	1654.0	5250.0
20	17	34	49	688	196.0	-201291.0	1642.0	5388.0
20	17	34	49	688	197.0	-205679.0	1598.0	4997.0
20	17	34	49	689	198.0	-209196.0	1574.0	4691.0
20	17	34	49	689	199.0	-211672.0	1536.0	4620.0
20	17	34	49	709	200.0	-213407.0	1510.0	4524.0
20	17	34	49	709	201.0	-214422.0	1511.0	4708.0
20	17	34	49	710	202.0	-215256.0	1498.0	4747.0
20	17	34	49	711	203.0	-216051.0	1483.0	5035.0
20	17	34	49	712	204.0	-216456.0	1484.0	4968.0
20	17	34	49	712	205.0	-216713.0	1494.0	4941.0
20	17	34	49	713	206.0	-216913.0	1480.0	5203.0
20	17	34	49	714	207.0	-216782.0	1453.0	5031.0
20	17	34	49	714	208.0	-216445.0	1406.0	4738.0
20	17	34	49	715	209.0	-215837.0	1390.0	4258.0
20	17	34	49	716	210.0	-214759.0	1369.0	4361.0
20	17	34	49	716	211.0	-213202.0	1373.0	4228.0
20	17	34	49	717	212.0	-211599.0	1386.0	4303.0
20	17	34	49	717	213.0	-209637.0	1376.0	4629.0
20	17	34	49	718	214.0	-207370.0	1376.0	4737.0
20	17	34	49	719	215.0	-205357.0	1396.0	4962.0
20	17	34	49	719	216.0	-203289.0	1377.0	4912.0
20	17	34	49	732	217.0	-201270.0	1333.0	4606.0
20	17	34	49	732	218.0	-199340.0	1299.0	4168.0
20	17	34	49	733	219.0	-197609.0	1307.0	4047.0
20	17	34	49	755	220.0	-196033.0	1307.0	3837.0
20	17	34	49	756	221.0	-194990.0	1306.0	4008.0
20	17	34	49	756	222.0	-194158.0	1329.0	3950.0
20	17	34	49	757	223.0	-193604.0	1337.0	3730.0
20	17	34	49	758	224.0	-193306.0	1347.0	3908.0
20	17	34	49	758	225.0	-193154.0	1380.0	4266.0
20	17	34	49	759	226.0	-193091.0	1386.0	4419.0
20	17	34	49	759	227.0	-193106.0	1393.0	4184.0
20	17	34	49	760	228.0	-193026.0	1367.0	3491.0
20	17	34	49	761	229.0	-192881.0	1369.0	3680.0
20	17	34	49	761	230.0	-192747.0	1352.0	3711.0
20	17	34	49	762	231.0	-192581.0	1370.0	3319.0
20	17	34	49	762	232.0	-192604.0	1381.0	3114.0
20	17	34	49	763	233.0	-192730.0	1392.0	3334.0
20	17	34	49	784	234.0	-193032.0	1412.0	3460.0
20	17	34	49	785	235.0	-193716.0	1436.0	3774.0
20	17	34	49	786	236.0	-194433.0	1448.0	4002.0
20	17	34	49	786	237.0	-195431.0	1434.0	3619.0
20	17	34	49	787	238.0	-196942.0	1433.0	3641.0
20	17	34	49	788	239.0	-198582.0	1432.0	4233.0
20	17	34	49	788	240.0	-200227.0	1444.0	4378.0
20	17	34	49	829	241.0	-201651.0	1474.0	4448.0
20	17	34	49	829	242.0	-202965.0	1490.0	5014.0
20	17	34	49	830	243.0	-203984.0	1498.0	5683.0
20	17	34	49	831	244.0	-204731.0	1520.0	5730.0
20	17	34	49	832	245.0	-204971.0	1534.0	5658.0
20	17	34	49	832	246.0	-204872.0	1534.0	5429.0
20	17	34	49	833	247.0	-204590.0	1514.0	5292.0
20	17	34	49	844	248.0	-204388.0	1500.0	5063.0
20	17	34	49	845	249.0	-203984.0	1504.0	4815.0
20	17	34	49	845	250.0	-203605.0	1498.0	5153.0
20	17	34	49	846	251.0	-203302.0	1521.0	5508.0
20	17	34	49	847	252.0	-203367.0	1551.0	5551.0
20	17	34	49	847	253.0	-203742.0	1551.0	5576.0
20	17	34	49	848	254.0	-204160.0	1566.0	5822.0
20	17	34	49	865	255.0	-204498.0	1581.0	5833.0
20	17	34	49	866	0.0	-204748.0	1596.0	5855.0
20	17	34	49	866	16.0	-192400.0	1641.0	5763.0
20	17	34	49	867	17.0	-191992.0	1644.0	5588.0
20	17	34	49	868	18.0	-191638.0	1628.0	5376.0
20	17	34	49	904	19.0	-191391.0	1628.0	5595.0
20	17	34	49	905	20.0	-191351.0	1619.0	5761.0
20	17	34	49	924	21.0	-191720.0	1573.0	5061.0
20	17	34	49	925	22.0	-192209.0	1551.0	4589.0
20	17	34	49	926	24.0	-193464.0	1492.0	5104.0
20	17	34	49	926	25.0	-194154.0	1469.0	5176.0
20	17	34	49	927	26.0	-194987.0	1466.0	5371.0
20	17	34	49	928	27.0	-195846.0	1457.0	5955.0
20	17	34	49	928	28.0	-196729.0	1434.0	6093.0
20	17	34	49	929	29.0	-197614.0	1450.0	6139.0
20	17	34	49	929	30.0	-198357.0	1439.0	5930.0
20	17	34	49	930	31.0	-198901.0	1402.0	5877.0
20	17	34	49	931	32.0	-199247.0	1374.0	5493.0
20	17	34	49	931	33.0	-199474.0	1356.0	4998.0
20	17	34	49	932	34.0	-199613.0	1357.0	5229.0
20	17	34	49	947	46.0	-197356.0	1244.0	11804.0
20	17	34	49	948	54.0	-197974.0	1092.0	18501.0
20	17	34	49	949	55.0	-199186.0	1084.0	19955.0
20	17	34	49	949	56.0	-200612.0	1068.0	21085.0
20	17	34	49	950	57.0	-202361.0	1051.0	20919.0
20	17	34	49	951	58.0	-203965.0	1036.0	16186.0
20	17	34	49	951	59.0	-205072.0	1025.0	8835.0
20	17	34	49	952	60.0	-205990.0	1011.0	248.0
20	17	34	49	953	61.0	-206713.0	964.0	-7611.0
20	17	34	49	953	62.0	-207334.0	927.0	-8589.0
20	17	34	49	954	63.0	-207689.0	897.0	-3867.0
20	17	34	49	954	64.0	-207661.0	858.0	576.0
20	17	34	49	955	65.0	-207594.0	853.0	5605.0
20	17	34	49	956	66.0	-207218.0	792.0	14487.0
20	17	34	49	956	67.0	-207117.0	761.0	23144.0
20	17	34	49	957	68.0	-207221.0	725.0	28279.0
20	17	34	49	957	69.0	-207512.0	706.0	32433.0
20	17	34	49	958	70.0	-207826.0	656.0	32933.0
20	17	34	49	958	71.0	-207962.0	589.0	30784.0
20	17	34	49	959	72.0	-208658.0	529.0	27658.0
20	17	34	49	960	73.0	-209286.0	514.0	24656.0
20	17	34	49	960	74.0	-208344.0	492.0	22361.0
20	17	34	49	961	75.0	-205824.0	470.0	19690.0
20	17	34	49	961	76.0	-202178.0	448.0	16711.0
20	17	34	49	970	77.0	-198684.0	418.0	14108.0
20	17	34	49	970	78.0	-195922.0	401.0	11881.0
20	17	34	49	971	79.0	-193746.0	391.0	9813.0
20	17	34	49	972	80.0	-192580.0	316.0	8188.0
20	17	34	49	973	81.0	-193359.0	246.0	6402.0
20	17	34	49	973	82.0	-195674.0	194.0	4806.0
20	17	34	49	974	83.0	-198594.0	150.0	4214.0
20	17	34	49	995	84.0	-202122.0	118.0	3994.0
20	17	34	49	995	85.0	-206905.0	94.0	3699.0
20	17	34	49	996	86.0	-212577.0	86.0	3384.0
20	17	34	49	997	87.0	-218096.0	63.0	3114.0
20	17	34	49	997	88.0	-222317.0	46.0	3006.0
20	17	34	49	998	89.0	-224401.0	26.0	3259.0
20	17	34	49	998	90.0	-223834.0	-4.0	2888.0
20	17	34	49	999	91.0	-220916.0	-37.0	2467.0
20	17	34	50	0	92.0	-216222.0	-79.0	1888.0
20	17	34	50	0	93.0	-210115.0	-101.0	1608.0
20	17	34	50	17	94.0	-202852.0	-129.0	1474.0
20	17	34	50	17	95.0	-194212.0	-136.0	1388.0
20	17	34	50	18	96.0	-184858.0	-167.0	1443.0
20	17	34	50	19	97.0	-175807.0	-165.0	1356.0
20	17	34	50	20	98.0	-168331.0	-181.0	1389.0
20	17	34	50	20	99.0	-163509.0	-189.0	1714.0
20	17	34	50	21	100.0	-161066.0	-226.0	1991.0
20	17	34	50	21	101.0	-160884.0	-275.0	1276.0
20	17	34	50	22	102.0	-163087.0	-313.0	826.0
20	17	34	50	23	103.0	-167557.0	-366.0	978.0
20	17	34	50	23	104.0	-173861.0	-399.0	976.0
20	17	34	50	24	105.0	-181412.0	-402.0	394.0
20	17	34	50	24	106.0	-189371.0	-427.0	796.0
20	17	34	50	25	107.0	-197006.0	-439.0	992.0
20	17	34	50	26	108.0	-203861.0	-451.0	1171.0
20	17	34	50	26	109.0	-209761.0	-465.0	1147.0
20	17	34	50	27	110.0	-214201.0	-521.0	732.0
20	17	34	50	40	111.0	-216996.0	-577.0	522.0
20	17	34	50	40	112.0	-218314.0	-619.0	13.0
20	17	34	50	41	113.0	-218530.0	-641.0	55.0
20	17	34	50	42	114.0	-217448.0	-667.0	229.0
20	17	34	50	42	115.0	-215362.0	-659.0	298.0
20	17	34	50	43	116.0	-212589.0	-667.0	87.0
20	17	34	50	44	117.0	-209483.0	-680.0	93.0
20	17	34	50	44	118.0	-206114.0	-691.0	-131.0
20	17	34	50	68	119.0	-202606.0	-712.0	59.0
20	17	34	50	69	120.0	-199056.0	-737.0	-301.0
20	17	34	50	70	121.0	-195721.0	-768.0	-507.0
20	17	34	50	71	122.0	-193193.0	-807.0	-876.0
20	17	34	50	71	123.0	-191298.0	-839.0	-992.0
20	17	34	50	72	124.0	-190006.0	-849.0	-1147.0
20	17	34	50	73	125.0	-188998.0	-851.0	-1096.0
20	17	34	50	74	126.0	-188342.0	-841.0	-1406.0
20	17	34	50	74	127.0	-187975.0	-831.0	-1711.0
20	17	34	50	75	128.0	-187691.0	-816.0	-1734.0
20	17	34	50	76	129.0	-187341.0	-819.0	-1590.0
20	17	34	50	77	130.0	-187203.0	-851.0	-1994.0
20	17	34	50	78	131.0	-187345.0	-864.0	-2621.0
20	17	34	50	78	132.0	-188042.0	-887.0	-3252.0
20	17	34	50	79	133.0	-189069.0	-907.0	-3334.0
20	17	34	50	80	136.0	-195541.0	-964.0	-3267.0
20	17	34	50	80	137.0	-198826.0	-991.0	-3653.0
20	17	34	50	81	138.0	-202304.0	-1011.0	-3697.0
20	17	34	50	82	139.0	-205769.0	-1022.0	-3310.0
20	17	34	50	90	140.0	-209079.0	-1051.0	-3333.0
20	17	34	50	91	141.0	-211985.0	-1076.0	-4157.0
20	17	34	50	91	142.0	-214467.0	-1146.0	-5009.0
20	17	34	50	92	143.0	-216074.0	-1189.0	-4894.0
20	17	34	50	113	144.0	-216474.0	-1217.0	-4903.0
20	17	34	50	114	145.0	-216325.0	-1230.0	-4924.0
20	17	34	50	115	146.0	-215166.0	-1237.0	-4851.0
20	17	34	50	116	147.0	-213458.0	-1267.0	-4832.0
20	17	34	50	117	148.0	-211615.0	-1288.0	-4950.0
20	17	34	50	117	149.0	-209768.0	-1311.0	-4847.0
20	17	34	50	118	150.0	-207407.0	-1353.0	-4764.0
20	17	34	50	119	151.0	-205168.0	-1408.0	-5022.0
20	17	34	50	120	152.0	-202748.0	-1466.0	-5269.0
20	17	34	50	120	153.0	-199774.0	-1521.0	-5339.0
20	17	34	50	121	154.0	-196832.0	-1564.0	-5374.0
20	17	34	50	122	155.0	-194004.0	-1603.0	-5145.0
20	17	34	50	123	156.0	-191227.0	-1619.0	-5115.0
20	17	34	50	123	157.0	-188506.0	-1637.0	-4787.0
20	17	34	50	124	158.0	-186044.0	-1680.0	-4884.0
20	17	34	50	125	159.0	-184052.0	-1710.0	-4851.0
20	17	34	50	125	160.0	-182501.0	-1759.0	-5171.0
20	17	34	50	126	161.0	-182027.0	-1782.0	-5138.0
20	17	34	50	126	162.0	-182550.0	-1816.0	-5338.0
20	17	34	50	135	163.0	-184222.0	-1822.0	-5324.0
20	17	34	50	136	164.0	-187640.0	-1833.0	-5257.0
20	17	34	50	137	165.0	-191829.0	-1840.0	-4928.0
20	17	34	50	138	166.0	-196783.0	-1849.0	-4661.0
20	17	34	50	160	167.0	-202046.0	-1868.0	-4235.0
20	17	34	50	161	168.0	-206991.0	-1845.0	-3850.0
20	17	34	50	162	169.0	-211402.0	-1848.0	-3359.0
20	17	34	50	183	170.0	-214828.0	-1872.0	-3149.0
20	17	34	50	184	171.0	-217126.0	-1907.0	-3125.0
20	17	34	50	185	172.0	-218516.0	-1922.0	-3237.0
20	17	34	50	185	173.0	-218854.0	-1924.0	-2787.0
20	17	34	50	186	174.0	-218524.0	-1941.0	-2577.0
20	17	34	50	187	175.0	-217929.0	-1923.0	-1986.0
20	17	34	50	187	176.0	-216986.0	-1905.0	-1411.0
20	17	34	50	188	177.0	-216084.0	-1868.0	-1111.0
20	17	34	50	189	178.0	-215052.0	-1845.0	-854.0
20	17	34	50	189	179.0	-213893.0	-1846.0	-483.0
20	17	34	50	190	180.0	-212783.0	-1847.0	296.0
20	17	34	50	191	181.0	-211697.0	-1845.0	555.0
20	17	34	50	191	182.0	-210679.0	-1859.0	157.0
20	17	34	50	192	183.0	-209686.0	-1817.0	849.0
20	17	34	50	207	184.0	-208565.0	-1777.0	1481.0
20	17	34	50	208	188.0	-201734.0	-1653.0	2881.0
20	17	34	50	208	189.0	-199511.0	-1581.0	2828.0
20	17	34	50	209	190.0	-197196.0	-1569.0	2934.0
20	17	34	50	210	191.0	-194894.0	-1546.0	2793.0
20	17	34	50	210	192.0	-192817.0	-1526.0	2479.0
20	17	34	50	211	193.0	-190926.0	-1493.0	2751.0
20	17	34	50	233	194.0	-189138.0	-1432.0	3180.0
20	17	34	50	234	195.0	-187537.0	-1354.0	3489.0
20	17	34	50	235	196.0	-186354.0	-1302.0	3438.0
20	17	34	50	236	197.0	-185707.0	-1250.0	3954.0
20	17	34	50	236	198.0	-185652.0	-1193.0	4336.0
20	17	34	50	237	199.0	-185873.0	-1127.0	4519.0
20	17	34	50	238	200.0	-186429.0	-1068.0	4086.0
20	17	34	50	268	201.0	-187393.0	-1033.0	4316.0
20	17	34	50	270	202.0	-188724.0	-984.0	4197.0
20	17	34	50	271	204.0	-192441.0	-846.0	4293.0
20	17	34	50	273	205.0	-194435.0	-749.0	4628.0
20	17	34	50	274	206.0	-196582.0	-681.0	4762.0
20	17	34	50	275	207.0	-198784.0	-637.0	4874.0
20	17	34	50	276	208.0	-200886.0	-578.0	4945.0
20	17	34	50	288	209.0	-202866.0	-523.0	4931.0
20	17	34	50	289	210.0	-204794.0	-482.0	4677.0
20	17	34	50	289	219.0	-213371.0	128.0	4754.0
20	17	34	50	290	220.0	-212706.0	191.0	4785.0
20	17	34	50	290	221.0	-211793.0	222.0	4619.0
20	17	34	50	291	222.0	-210709.0	251.0	3946.0
20	17	34	50	312	223.0	-209348.0	314.0	4246.0
20	17	34	50	312	224.0	-207990.0	382.0	4801.0
20	17	34	50	313	225.0	-206333.0	490.0	4640.0
20	17	34	50	313	234.0	-169896.0	956.0	4587.0
20	17	34	50	314	235.0	-174676.0	1032.0	4593.0
20	17	34	50	315	236.0	-186268.0	1104.0	4548.0
20	17	34	50	315	237.0	-199401.0	1147.0	4914.0
20	17	34	50	316	238.0	-209950.0	1205.0	4988.0
20	17	34	50	316	239.0	-215476.0	1260.0	4858.0
20	17	34	50	317	240.0	-217759.0	1268.0	4276.0
20	17	34	50	317	241.0	-217149.0	1274.0	3869.0
20	17	34	50	318	242.0	-214127.0	1309.0	4100.0
20	17	34	50	318	243.0	-210704.0	1345.0	4077.0
20	17	34	50	319	244.0	-207679.0	1419.0	4186.0
20	17	34	50	338	245.0	-204914.0	1477.0	4136.0
20	17	34	50	339	248.0	-195096.0	1670.0	4664.0
20	17	34	50	339	249.0	-191712.0	1706.0	4726.0
20	17	34	50	340	250.0	-188652.0	1734.0	4213.0
20	17	34	50	341	251.0	-185985.0	1759.0	4006.0
20	17	34	50	341	252.0	-183336.0	1786.0	3783.0
20	17	34	50	342	253.0	-180688.0	1828.0	3789.0
20	17	34	50	369	254.0	-179174.0	1884.0	3895.0
20	17	34	50	369	255.0	-180167.0	1939.0	4068.0
20	17	34	50	370	0.0	-183243.0	1985.0	4108.0
20	17	34	50	371	1.0	-187667.0	2034.0	4206.0
20	17	34	50	371	2.0	-192901.0	2074.0	4436.0
20	17	34	50	372	3.0	-198049.0	2089.0	4466.0
20	17	34	50	372	4.0	-202231.0	2114.0	4093.0
20	17	34	50	387	5.0	-204803.0	2123.0	3626.0
20	17	34	50	388	6.0	-205686.0	2114.0	3465.0
20	17	34	50	388	15.0	-208120.0	2296.0	4316.0
20	17	34	50	389	16.0	-208584.0	2277.0	3716.0
20	17	34	50	390	17.0	-208624.0	2288.0	3843.0
20	17	34	50	390	18.0	-208287.0	2316.0	4076.0
20	17	34	50	391	19.0	-207834.0	2350.0	4164.0
20	17	34	50	391	20.0	-206932.0	2381.0	4348.0
20	17	34	50	392	21.0	-205576.0	2411.0	4765.0
20	17	34	50	393	30.0	-197766.0	2468.0	5106.0
20	17	34	50	393	31.0	-197384.0	2476.0	5109.0
20	17	34	50	394	32.0	-197092.0	2467.0	5549.0
20	17	34	50	394	33.0	-196857.0	2455.0	5834.0
20	17	34	50	395	34.0	-196693.0	2434.0	5296.0
20	17	34	50	395	35.0	-196761.0	2395.0	5033.0
20	17	34	50	396	36.0	-196916.0	2359.0	5069.0
20	17	34	50	397	38.0	-197491.0	2335.0	5223.0
20	17	34	50	397	39.0	-197779.0	2343.0	5331.0
20	17	34	50	398	40.0	-198086.0	2368.0	5403.0
20	17	34	50	398	41.0	-198205.0	2355.0	5517.0
20	17	34	50	399	42.0	-198351.0	2368.0	5649.0
20	17	34	50	399	43.0	-198222.0	2341.0	5593.0
20	17	34	50	400	44.0	-198015.0	2289.0	5006.0
20	17	34	50	401	45.0	-197784.0	2255.0	4846.0
20	17	34	50	414	46.0	-197555.0	2218.0	4727.0
20	17	34	50	414	47.0	-197497.0	2219.0	4243.0
20	17	34	50	415	48.0	-197805.0	2232.0	4425.0
20	17	34	50	415	49.0	-198378.0	2235.0	4706.0
20	17	34	50	416	50.0	-199014.0	2226.0	5082.0
20	17	34	50	417	51.0	-199597.0	2226.0	5168.0
20	17	34	50	417	52.0	-200067.0	2245.0	5263.0
20	17	34	50	418	53.0	-200247.0	2236.0	5336.0
20	17	34	50	459	54.0	-200466.0	2216.0	5284.0
20	17	34	50	460	55.0	-200687.0	2198.0	5133.0
20	17	34	50	460	56.0	-200867.0	2174.0	4562.0
20	17	34	50	461	57.0	-201037.0	2159.0	4412.0
20	17	34	50	489	58.0	-201336.0	2166.0	4891.0
20	17	34	50	490	59.0	-201711.0	2168.0	5163.0
20	17	34	50	490	60.0	-202224.0	2170.0	4869.0
20	17	34	50	491	61.0	-202899.0	2151.0	5161.0
20	17	34	50	492	62.0	-203682.0	2156.0	5603.0
20	17	34	50	503	63.0	-204523.0	2134.0	5524.0
20	17	34	50	504	64.0	-205342.0	2088.0	5401.0
20	17	34	50	504	65.0	-206093.0	2068.0	4998.0
20	17	34	50	505	66.0	-206576.0	2055.0	5352.0
20	17	34	50	505	67.0	-206837.0	2055.0	5171.0
20	17	34	50	506	68.0	-207032.0	2050.0	5269.0
20	17	34	50	507	69.0	-207124.0	2073.0	5244.0
20	17	34	50	507	75.0	-205329.0	1986.0	5498.0
20	17	34	50	508	76.0	-204437.0	1968.0	5383.0
20	17	34	50	526	77.0	-203829.0	1951.0	5216.0
20	17	34	50	527	78.0	-203371.0	1940.0	5678.0
20	17	34	50	528	90.0	-192547.0	1873.0	5511.0
20	17	34	50	528	91.0	-192319.0	1881.0	5835.0
20	17	34	50	529	92.0	-192227.0	1882.0	6163.0
20	17	34	50	529	93.0	-192211.0	1872.0	5979.0
20	17	34	50	530	94.0	-192165.0	1863.0	5485.0
20	17	34	50	549	95.0	-192106.0	1832.0	5506.0
20	17	34	50	550	96.0	-192053.0	1809.0	5548.0
20	17	34	50	550	97.0	-192317.0	1797.0	5309.0
20	17	34	50	551	98.0	-192754.0	1809.0	5623.0
20	17	34	50	551	99.0	-193646.0	1833.0	5941.0
20	17	34	50	552	100.0	-194706.0	1844.0	5544.0
20	17	34	50	552	101.0	-195759.0	1842.0	5488.0
20	17	34	50	574	102.0	-196693.0	1843.0	5682.0
20	17	34	50	574	103.0	-197646.0	1826.0	5434.0
20	17	34	50	575	105.0	-198790.0	1771.0	4552.0
20	17	34	50	576	106.0	-199219.0	1746.0	4710.0
20	17	34	50	576	107.0	-199518.0	1730.0	4664.0
20	17	34	50	577	108.0	-199547.0	1754.0	4603.0
20	17	34	50	577	109.0	-199544.0	1759.0	4674.0
20	17	34	50	597	110.0	-199381.0	1769.0	4537.0
20	17	34	50	597	111.0	-199154.0	1771.0	4247.0
20	17	34	50	598	112.0	-199271.0	1786.0	4626.0
20	17	34	50	598	113.0	-199289.0	1780.0	4793.0
20	17	34	50	599	114.0	-199577.0	1773.0	4546.0
20	17	34	50	600	115.0	-200302.0	1766.0	4301.0
20	17	34	50	600	116.0	-201707.0	1753.0	4763.0
20	17	34	50	601	117.0	-203717.0	1761.0	5111.0
20	17	34	50	601	118.0	-206062.0	1786.0	5308.0
20	17	34	50	602	127.0	-211756.0	1775.0	5278.0
20	17	34	50	602	128.0	-210069.0	1786.0	5453.0
20	17	34	50	603	129.0	-208030.0	1796.0	5861.0
20	17	34	50	604	130.0	-205861.0	1798.0	5714.0
20	17	34	50	604	131.0	-203470.0	1799.0	5793.0
20	17	34	50	605	132.0	-201076.0	1793.0	6226.0
20	17	34	50	605	133.0	-198859.0	1791.0	6078.0
20	17	34	50	606	142.0	-193442.0	1772.0	7085.0
20	17	34	50	607	143.0	-193606.0	1757.0	7516.0
20	17	34	50	607	144.0	-193451.0	1728.0	8829.0
20	17	34	50	608	145.0	-192907.0	1719.0	8749.0
20	17	34	50	608	146.0	-192022.0	1701.0	8400.0
20	17	34	50	609	147.0	-190890.0	1679.0	8164.0
20	17	34	50	610	148.0	-189631.0	1674.0	8326.0
20	17	34	50	611	149.0	-188425.0	1690.0	8400.0
20	17	34	50	611	150.0	-187371.0	1683.0	8463.0
20	17	34	50	624	151.0	-186271.0	1693.0	8132.0
20	17	34	50	624	152.0	-185627.0	1699.0	8231.0
20	17	34	50	625	153.0	-184870.0	1673.0	7871.0
20	17	34	50	625	154.0	-184434.0	1622.0	7303.0
20	17	34	50	626	155.0	-184752.0	1586.0	7370.0
20	17	34	50	627	156.0	-185716.0	1575.0	7679.0
20	17	34	50	627	157.0	-187569.0	1563.0	7768.0
20	17	34	50	628	158.0	-190216.0	1584.0	7574.0
20	17	34	50	641	159.0	-193794.0	1573.0	7798.0
20	17	34	50	642	160.0	-197407.0	1571.0	7965.0
20	17	34	50	642	161.0	-201127.0	1549.0	8004.0
20	17	34	50	643	162.0	-204180.0	1541.0	7903.0
20	17	34	50	643	163.0	-206438.0	1516.0	7779.0
20	17	34	50	644	164.0	-208487.0	1456.0	7697.0
20	17	34	50	645	165.0	-209704.0	1414.0	7323.0
20	17	34	50	664	166.0	-210225.0	1374.0	7237.0
20	17	34	50	665	167.0	-209919.0	1354.0	7092.0
20	17	34	50	687	168.0	-209339.0	1357.0	7394.0
20	17	34	50	688	169.0	-208299.0	1339.0	7144.0
20	17	34	50	688	170.0	-207035.0	1310.0	6983.0
20	17	34	50	689	171.0	-206045.0	1306.0	7275.0
20	17	34	50	689	172.0	-205030.0	1308.0	7531.0
20	17	34	50	690	173.0	-204203.0	1287.0	7156.0
20	17	34	50	691	174.0	-203372.0	1245.0	6996.0
20	17	34	50	691	175.0	-202756.0	1188.0	6703.0
20	17	34	50	692	176.0	-202506.0	1169.0	6831.0
20	17	34	50	693	177.0	-202487.0	1175.0	6768.0
20	17	34	50	693	178.0	-203198.0	1173.0	7003.0
20	17	34	50	694	179.0	-203942.0	1152.0	7474.0
20	17	34	50	694	180.0	-205112.0	1118.0	8324.0
20	17	34	50	695	181.0	-206014.0	1100.0	9641.0
20	17	34	50	696	182.0	-206777.0	1101.0	11638.0
20	17	34	50	696	183.0	-207051.0	1071.0	13246.0
20	17	34	50	697	184.0	-206919.0	992.0	13879.0
20	17	34	50	697	185.0	-206597.0	924.0	14394.0
20	17	34	50	698	186.0	-206096.0	896.0	16188.0
20	17	34	50	698	187.0	-205688.0	868.0	18058.0
20	17	34	50	699	188.0	-204989.0	839.0	18995.0
20	17	34	50	700	189.0	-204314.0	824.0	20374.0
20	17	34	50	700	190.0	-203274.0	805.0	22128.0
20	17	34	50	701	191.0	-202218.0	790.0	23860.0
20	17	34	50	714	192.0	-201196.0	779.0	25031.0
20	17	34	50	714	193.0	-200094.0	743.0	25763.0
20	17	34	50	715	194.0	-198912.0	690.0	23887.0
20	17	34	50	716	195.0	-197829.0	631.0	16757.0
20	17	34	50	716	196.0	-196951.0	597.0	8284.0
20	17	34	50	717	197.0	-196335.0	573.0	-1057.0
20	17	34	50	718	198.0	-195922.0	548.0	-7094.0
20	17	34	50	718	199.0	-195434.0	536.0	-5074.0
20	17	34	50	719	200.0	-195037.0	509.0	-814.0
20	17	34	50	720	201.0	-194747.0	486.0	2986.0
20	17	34	50	720	202.0	-194384.0	471.0	9692.0
20	17	34	50	721	203.0	-194254.0	421.0	18683.0
20	17	34	50	721	204.0	-194649.0	381.0	25737.0
20	17	34	50	722	205.0	-195412.0	348.0	30081.0
20	17	34	50	734	206.0	-196573.0	314.0	32327.0
20	17	34	50	735	207.0	-197766.0	293.0	32271.0
20	17	34	50	736	208.0	-199147.0	294.0	29888.0
20	17	34	50	736	209.0	-199801.0	277.0	26594.0
20	17	34	50	757	210.0	-198572.0	249.0	23968.0
20	17	34	50	758	211.0	-196174.0	245.0	21908.0
20	17	34	50	759	212.0	-193180.0	217.0	19213.0
20	17	34	50	759	213.0	-191109.0	178.0	16354.0
20	17	34	50	760	214.0	-190411.0	136.0	14031.0
20	17	34	50	761	215.0	-190880.0	94.0	11318.0
20	17	34	50	761	216.0	-191972.0	53.0	9359.0
20	17	34	50	762	217.0	-194448.0	31.0	7967.0
20	17	34	50	762	218.0	-197662.0	8.0	7085.0
20	17	34	50	763	219.0	-200994.0	9.0	6718.0
20	17	34	50	764	220.0	-204406.0	1.0	6549.0
20	17	34	50	764	221.0	-209294.0	-17.0	6328.0
20	17	34	50	765	222.0	-215736.0	-24.0	6019.0
20	17	34	50	765	223.0	-222829.0	-61.0	5635.0
20	17	34	50	766	224.0	-228974.0	-104.0	5123.0
20	17	34	50	766	225.0	-233153.0	-132.0	4786.0
20	17	34	50	780	226.0	-234727.0	-172.0	5068.0
20	17	34	50	781	227.0	-233714.0	-183.0	4828.0
20	17	34	50	781	228.0	-230467.0	-193.0	4852.0
20	17	34	50	782	229.0	-226649.0	-166.0	5228.0
20	17	34	50	783	230.0	-222305.0	-161.0	5655.0
20	17	34	50	783	231.0	-217982.0	-169.0	5523.0
20	17	34	50	784	232.0	-212961.0	-161.0	5458.0
20	17	34	50	804	233.0	-207000.0	-190.0	5424.0
20	17	34	50	805	234.0	-200099.0	-223.0	5031.0
20	17	34	50	806	235.0	-193354.0	-252.0	4378.0
20	17	34	50	806	236.0	-187302.0	-270.0	4049.0
20	17	34	50	807	237.0	-182682.0	-275.0	4463.0
20	17	34	50	808	238.0	-179103.0	-272.0	4485.0
20	17	34	50	808	239.0	-177058.0	-274.0	4757.0
20	17	34	50	809	240.0	-175624.0	-289.0	5039.0
20	17	34	50	809	241.0	-175221.0	-311.0	5305.0
20	17	34	50	810	242.0	-175925.0	-321.0	5025.0
20	17	34	50	810	243.0	-177967.0	-363.0	4756.0
20	17	34	50	811	244.0	-180826.0	-421.0	4413.0
20	17	34	50	812	245.0	-183941.0	-461.0	4106.0
20	17	34	50	812	246.0	-186646.0	-476.0	3861.0
20	17	34	50	827	247.0	-188846.0	-502.0	4127.0
20	17	34	50	828	248.0	-190606.0	-532.0	4141.0
20	17	34	50	829	249.0	-191906.0	-542.0	4141.0
20	17	34	50	829	250.0	-193137.0	-521.0	4332.0
20	17	34	50	830	251.0	-194050.0	-532.0	4419.0
20	17	34	50	831	252.0	-194907.0	-524.0	4432.0
20	17	34	50	831	253.0	-195962.0	-562.0	3826.0
20	17	34	50	850	254.0	-196554.0	-594.0	3653.0
20	17	34	50	851	255.0	-196853.0	-626.0	3504.0
20	17	34	50	852	0.0	-196741.0	-666.0	3416.0
20	17	34	50	853	1.0	-196675.0	-685.0	3176.0
20	17	34	50	853	2.0	-196847.0	-686.0	3121.0
20	17	34	50	854	3.0	-197319.0	-692.0	2941.0
20	17	34	50	854	4.0	-198196.0	-698.0	2811.0
20	17	34	50	855	5.0	-198955.0	-694.0	3041.0
20	17	34	50	856	6.0	-199864.0	-707.0	2762.0
20	17	34	50	856	7.0	-200334.0	-739.0	2434.0
20	17	34	50	857	8.0	-200471.0	-779.0	1874.0
20	17	34	50	857	9.0	-200512.0	-816.0	1276.0
20	17	34	50	858	10.0	-200476.0	-836.0	999.0
20	17	34	50	858	11.0	-200339.0	-859.0	1137.0
20	17	34	50	874	12.0	-200020.0	-866.0	1263.0
20	17	34	50	874	13.0	-199576.0	-876.0	1245.0
20	17	34	50	875	14.0	-199301.0	-903.0	1473.0
20	17	34	50	876	15.0	-199160.0	-914.0	1463.0
20	17	34	50	876	16.0	-199001.0	-917.0	1288.0
20	17	34	50	877	17.0	-198974.0	-934.0	1001.0
20	17	34	50	878	18.0	-199031.0	-973.0	1027.0
20	17	34	50	878	19.0	-199377.0	-1016.0	273.0
20	17	34	50	879	20.0	-199916.0	-1043.0	-18.0
20	17	34	50	896	21.0	-200465.0	-1042.0	201.0
20	17	34	50	897	22.0	-201287.0	-1054.0	90.0
20	17	34	50	898	23.0	-202663.0	-1096.0	-254.0
20	17	34	50	898	24.0	-203226.0	-1112.0	120.0
20	17	34	50	899	25.0	-203774.0	-1114.0	499.0
20	17	34	50	900	26.0	-204354.0	-1129.0	259.0
20	17	34	50	900	27.0	-205015.0	-1157.0	58.0
20	17	34	50	901	28.0	-205688.0	-1206.0	-134.0
20	17	34	50	902	29.0	-206259.0	-1258.0	-216.0
20	17	34	50	902	30.0	-206614.0	-1271.0	-650.0
20	17	34	50	903	31.0	-206663.0	-1294.0	-469.0
20	17	34	50	904	32.0	-206873.0	-1288.0	-72.0
20	17	34	50	904	33.0	-206472.0	-1321.0	-145.0
20	17	34	50	905	34.0	-205916.0	-1349.0	-103.0
20	17	34	50	906	35.0	-205011.0	-1365.0	289.0
20	17	34	50	906	36.0	-203623.0	-1389.0	294.0
20	17	34	50	907	37.0	-201790.0	-1461.0	-62.0
20	17	34	50	907	38.0	-199944.0	-1497.0	-431.0
20	17	34	50	908	39.0	-198376.0	-1544.0	-199.0
20	17	34	50	909	40.0	-196575.0	-1569.0	-495.0
20	17	34	50	939	41.0	-194763.0	-1594.0	-242.0
20	17	34	50	940	42.0	-193739.0	-1634.0	-237.0
20	17	34	50	941	43.0	-192894.0	-1657.0	-190.0
20	17	34	50	941	44.0	-192331.0	-1691.0	11.0
20	17	34	50	942	45.0	-191949.0	-1700.0	382.0
20	17	34	50	943	46.0	-192061.0	-1683.0	473.0
20	17	34	50	943	47.0	-192540.0	-1716.0	508.0
20	17	34	50	944	48.0	-193403.0	-1744.0	664.0
20	17	34	50	953	49.0	-194340.0	-1765.0	420.0
20	17	34	50	954	50.0	-195365.0	-1755.0	703.0
20	17	34	50	955	51.0	-196259.0	-1741.0	968.0
20	17	34	50	956	52.0	-196894.0	-1726.0	1043.0
20	17	34	50	956	53.0	-197410.0	-1729.0	1684.0
20	17	34	50	957	54.0	-197787.0	-1712.0	2337.0
20	17	34	50	958	55.0	-198229.0	-1693.0	2599.0
20	17	34	50	975	56.0	-199010.0	-1720.0	2914.0
20	17	34	50	976	59.0	-201314.0	-1797.0	3926.0
20	17	34	50	976	60.0	-202167.0	-1789.0	3699.0
20	17	34	50	977	61.0	-202952.0	-1781.0	4409.0
20	17	34	50	978	62.0	-203781.0	-1752.0	5029.0
20	17	34	50	978	63.0	-204166.0	-1754.0	5059.0
20	17	34	50	979	64.0	-204553.0	-1752.0	5530.0
20	17	34	50	998	65.0	-204769.0	-1722.0	6315.0
20	17	34	51	22	66.0	-205017.0	-1699.0	6881.0
20	17	34	51	22	67.0	-205190.0	-1720.0	6754.0
20	17	34	51	23	68.0	-205494.0	-1727.0	7026.0
20	17	34	51	24	69.0	-205641.0	-1717.0	7349.0
20	17	34	51	24	70.0	-205666.0	-1712.0	7657.0
20	17	34	51	25	71.0	-205367.0	-1683.0	7931.0
20	17	34	51	26	72.0	-204727.0	-1654.0	8321.0
20	17	34	51	45	73.0	-203851.0	-1607.0	8164.0
20	17	34	51	45	74.0	-202718.0	-1582.0	8148.0
20	17	34	51	46	75.0	-201538.0	-1547.0	8449.0
20	17	34	51	47	76.0	-200290.0	-1528.0	8427.0
20	17	34	51	47	77.0	-199063.0	-1509.0	8665.0
20	17	34	51	48	78.0	-197859.0	-1490.0	8746.0
20	17	34	51	49	79.0	-196807.0	-1447.0	8956.0
20	17	34	51	49	80.0	-196131.0	-1391.0	8773.0
20	17	34	51	50	81.0	-196052.0	-1330.0	8918.0
20	17	34	51	50	96.0	-203849.0	-335.0	10272.0
20	17	34	51	51	97.0	-204251.0	-303.0	10019.0
20	17	34	51	52	98.0	-204759.0	-264.0	9944.0
20	17	34	51	70	99.0	-205369.0	-224.0	10009.0
20	17	34	51	70	100.0	-205987.0	-156.0	9748.0
20	17	34	51	71	101.0	-206726.0	-89.0	9954.0
20	17	34	51	72	103.0	-208625.0	46.0	10263.0
20	17	34	51	72	104.0	-209277.0	85.0	9896.0
20	17	34	51	73	105.0	-209630.0	152.0	10201.0
20	17	34	51	74	106.0	-209544.0	208.0	10200.0
20	17	34	51	74	107.0	-208716.0	234.0	9855.0
20	17	34	51	75	108.0	-207128.0	274.0	9677.0
20	17	34	51	92	111.0	-193927.0	416.0	10418.0
20	17	34	51	93	112.0	-184142.0	476.0	10742.0
20	17	34	51	94	113.0	-177696.0	544.0	10527.0
20	17	34	51	94	114.0	-175328.0	606.0	10415.0
20	17	34	51	95	115.0	-179789.0	649.0	10767.0
20	17	34	51	96	116.0	-185670.0	719.0	10828.0
20	17	34	51	96	117.0	-198246.0	752.0	10385.0
20	17	34	51	97	119.0	-219411.0	788.0	10451.0
20	17	34	51	98	120.0	-222505.0	828.0	10676.0
20	17	34	51	98	121.0	-222176.0	854.0	10455.0
20	17	34	51	99	122.0	-219187.0	893.0	10447.0
20	17	34	51	100	123.0	-215139.0	938.0	10807.0
20	17	34	51	100	124.0	-211144.0	986.0	11266.0
20	17	34	51	101	125.0	-207680.0	1021.0	11094.0
20	17	34	51	102	126.0	-204809.0	1054.0	10860.0
20	17	34	51	102	133.0	-181220.0	1253.0	10297.0
20	17	34	51	103	134.0	-180790.0	1286.0	10431.0
20	17	34	51	103	135.0	-182236.0	1331.0	10720.0
20	17	34	51	104	136.0	-184975.0	1346.0	10674.0
20	17	34	51	119	137.0	-188643.0	1356.0	10481.0
20	17	34	51	121	138.0	-192601.0	1351.0	10555.0
20	17	34	51	121	139.0	-196056.0	1366.0	10554.0
20	17	34	51	122	140.0	-198574.0	1379.0	10384.0
20	17	34	51	123	141.0	-199859.0	1396.0	10362.0
20	17	34	51	124	142.0	-200132.0	1431.0	10608.0
20	17	34	51	124	143.0	-199803.0	1438.0	10662.0
20	17	34	51	125	144.0	-199507.0	1482.0	10603.0
20	17	34	51	126	145.0	-199147.0	1499.0	10808.0
20	17	34	51	126	146.0	-198947.0	1510.0	10833.0
20	17	34	51	127	147.0	-199076.0	1498.0	10681.0
20	17	34	51	128	148.0	-199491.0	1503.0	10243.0
20	17	34	51	129	149.0	-200245.0	1514.0	10499.0
20	17	34	51	129	150.0	-200679.0	1536.0	10068.0
20	17	34	51	130	151.0	-201008.0	1571.0	10294.0
20	17	34	51	131	152.0	-201079.0	1598.0	10981.0
20	17	34	51	149	153.0	-201024.0	1612.0	11263.0
20	17	34	51	150	154.0	-201096.0	1613.0	10896.0
20	17	34	51	150	155.0	-200766.0	1648.0	11021.0
20	17	34	51	151	156.0	-200778.0	1644.0	11299.0
20	17	34	51	152	157.0	-201234.0	1625.0	11006.0
20	17	34	51	153	158.0	-201767.0	1602.0	10814.0
20	17	34	51	153	159.0	-202139.0	1603.0	10425.0
20	17	34	51	154	160.0	-202497.0	1619.0	10931.0
20	17	34	51	155	161.0	-203125.0	1641.0	11136.0
20	17	34	51	156	162.0	-203745.0	1671.0	11293.0
20	17	34	51	156	163.0	-204211.0	1691.0	11504.0
20	17	34	51	157	164.0	-204535.0	1724.0	11523.0
20	17	34	51	158	165.0	-205577.0	1753.0	11536.0
20	17	34	51	158	166.0	-206427.0	1769.0	11616.0
20	17	34	51	167	167.0	-207024.0	1754.0	11643.0
20	17	34	51	167	168.0	-207526.0	1740.0	11218.0
20	17	34	51	168	169.0	-207936.0	1753.0	10904.0
20	17	34	51	169	170.0	-207936.0	1752.0	10842.0
20	17	34	51	169	171.0	-207521.0	1746.0	11061.0
20	17	34	51	190	172.0	-207288.0	1755.0	11409.0
20	17	34	51	191	173.0	-206706.0	1773.0	11420.0
20	17	34	51	192	174.0	-205885.0	1772.0	11489.0
20	17	34	51	192	175.0	-204962.0	1777.0	11708.0
20	17	34	51	193	176.0	-203866.0	1736.0	11474.0
20	17	34	51	194	177.0	-203062.0	1682.0	11341.0
20	17	34	51	195	178.0	-202787.0	1636.0	11086.0
20	17	34	51	195	179.0	-202596.0	1614.0	10851.0
20	17	34	51	196	180.0	-202189.0	1586.0	11011.0
20	17	34	51	197	181.0	-201822.0	1574.0	11014.0
20	17	34	51	197	182.0	-201662.0	1554.0	11123.0
20	17	34	51	198	183.0	-201621.0	1553.0	11677.0
20	17	34	51	198	184.0	-201631.0	1544.0	11621.0
20	17	34	51	199	185.0	-201798.0	1529.0	11524.0
20	17	34	51	200	186.0	-202051.0	1499.0	11634.0
20	17	34	51	200	187.0	-202037.0	1458.0	11457.0
20	17	34	51	226	188.0	-202123.0	1414.0	10972.0
20	17	34	51	227	189.0	-202289.0	1406.0	11263.0
20	17	34	51	227	190.0	-202409.0	1390.0	11510.0
20	17	34	51	228	191.0	-202276.0	1391.0	11401.0
20	17	34	51	229	192.0	-202237.0	1385.0	11709.0
20	17	34	51	229	193.0	-202199.0	1393.0	11833.0
20	17	34	51	230	194.0	-202525.0	1409.0	11584.0
20	17	34	51	230	195.0	-202664.0	1429.0	11411.0
20	17	34	51	231	196.0	-202849.0	1410.0	11244.0
20	17	34	51	231	197.0	-202649.0	1389.0	11098.0
20	17	34	51	232	198.0	-202734.0	1369.0	10866.0
20	17	34	51	233	199.0	-203021.0	1364.0	10702.0
20	17	34	51	233	200.0	-203249.0	1366.0	10899.0
20	17	34	51	234	201.0	-203462.0	1359.0	11251.0
20	17	34	51	234	202.0	-203581.0	1373.0	11332.0
20	17	34	51	235	203.0	-203429.0	1400.0	11409.0
20	17	34	51	235	204.0	-203324.0	1418.0	11596.0
20	17	34	51	236	205.0	-203237.0	1433.0	11768.0
20	17	34	51	248	206.0	-202807.0	1420.0	11369.0
20	17	34	51	249	207.0	-202655.0	1389.0	11085.0
20	17	34	51	272	208.0	-202056.0	1366.0	10856.0
20	17	34	51	272	209.0	-201541.0	1339.0	10871.0
20	17	34	51	273	210.0	-201082.0	1351.0	10976.0
20	17	34	51	273	211.0	-200281.0	1341.0	11007.0
20	17	34	51	274	212.0	-199761.0	1336.0	11072.0
20	17	34	51	274	213.0	-199219.0	1329.0	11010.0
20	17	34	51	275	214.0	-198175.0	1343.0	11174.0
20	17	34	51	276	215.0	-197532.0	1352.0	11218.0
20	17	34	51	298	216.0	-197068.0	1344.0	10893.0
20	17	34	51	299	217.0	-196769.0	1308.0	10756.0
20	17	34	51	300	218.0	-196831.0	1283.0	10568.0
20	17	34	51	300	219.0	-196847.0	1278.0	10421.0
20	17	34	51	301	220.0	-196824.0	1293.0	10427.0
20	17	34	51	301	221.0	-197242.0	1316.0	10971.0
20	17	34	51	302	222.0	-197674.0	1329.0	11012.0
20	17	34	51	303	223.0	-198164.0	1331.0	11027.0
20	17	34	51	303	224.0	-198678.0	1336.0	10874.0
20	17	34	51	304	225.0	-199154.0	1362.0	11248.0
20	17	34	51	304	226.0	-199489.0	1336.0	11204.0
20	17	34	51	305	227.0	-200021.0	1313.0	10682.0
20	17	34	51	306	228.0	-200249.0	1276.0	10156.0
20	17	34	51	306	229.0	-200122.0	1260.0	10156.0
20	17	34	51	307	230.0	-200419.0	1243.0	10336.0
20	17	34	51	317	238.0	-198434.0	1327.0	9608.0
20	17	34	51	318	239.0	-198156.0	1321.0	9220.0
20	17	34	51	318	240.0	-197976.0	1338.0	8998.0
20	17	34	51	319	241.0	-197834.0	1356.0	9113.0
20	17	34	51	320	242.0	-197571.0	1390.0	8956.0
20	17	34	51	320	243.0	-197501.0	1412.0	8684.0
20	17	34	51	321	244.0	-197536.0	1406.0	9046.0
20	17	34	51	321	245.0	-197602.0	1423.0	8926.0
20	17	34	51	345	246.0	-197524.0	1411.0	8344.0
20	17	34	51	345	247.0	-197508.0	1392.0	7748.0
20	17	34	51	346	248.0	-197607.0	1384.0	7470.0
20	17	34	51	347	249.0	-197859.0	1366.0	6938.0
20	17	34	51	347	250.0	-198103.0	1360.0	6949.0
20	17	34	51	348	251.0	-198579.0	1380.0	7116.0
20	17	34	51	348	252.0	-199071.0	1384.0	6997.0
20	17	34	51	349	253.0	-199360.0	1378.0	6917.0
20	17	34	51	350	254.0	-199684.0	1384.0	7177.0
20	17	34	51	350	255.0	-200162.0	1388.0	7228.0
20	17	34	51	351	0.0	-200539.0	1364.0	6925.0
20	17	34	51	351	1.0	-200674.0	1354.0	6484.0
20	17	34	51	352	2.0	-200794.0	1324.0	6469.0
20	17	34	51	353	3.0	-200987.0	1313.0	6341.0
20	17	34	51	353	4.0	-200931.0	1313.0	6824.0
20	17	34	51	354	5.0	-201016.0	1331.0	7384.0
20	17	34	51	354	6.0	-200859.0	1323.0	7571.0
20	17	34	51	355	7.0	-200638.0	1323.0	7983.0
20	17	34	51	355	8.0	-200297.0	1314.0	8040.0
20	17	34	51	375	9.0	-200160.0	1306.0	8356.0
20	17	34	51	375	10.0	-200121.0	1285.0	8495.0
20	17	34	51	376	11.0	-199854.0	1274.0	8298.0
20	17	34	51	377	12.0	-199665.0	1269.0	7953.0
20	17	34	51	377	13.0	-199491.0	1243.0	7789.0
20	17	34	51	378	14.0	-199099.0	1231.0	8376.0
20	17	34	51	378	15.0	-198713.0	1219.0	8551.0
20	17	34	51	396	16.0	-198181.0	1217.0	8558.0
20	17	34	51	396	17.0	-197737.0	1221.0	8984.0
20	17	34	51	397	18.0	-197216.0	1257.0	9588.0
20	17	34	51	398	19.0	-196676.0	1259.0	9531.0
20	17	34	51	398	20.0	-196684.0	1211.0	9454.0
20	17	34	51	399	21.0	-196666.0	1179.0	9491.0
20	17	34	51	399	22.0	-196856.0	1158.0	9643.0
20	17	34	51	400	23.0	-197113.0	1152.0	9649.0
20	17	34	51	400	24.0	-197446.0	1134.0	9469.0
20	17	34	51	401	25.0	-197858.0	1124.0	9878.0
20	17	34	51	401	26.0	-198318.0	1131.0	9933.0
20	17	34	51	402	27.0	-198672.0	1116.0	10212.0
20	17	34	51	402	28.0	-199309.0	1081.0	10528.0
20	17	34	51	403	29.0	-200100.0	1077.0	10519.0
20	17	34	51	404	30.0	-200640.0	1058.0	10156.0
20	17	34	51	404	31.0	-201271.0	1034.0	10082.0
20	17	34	51	405	32.0	-201795.0	996.0	10369.0
20	17	34	51	405	33.0	-202400.0	941.0	9957.0
20	17	34	51	406	34.0	-202938.0	933.0	9859.0
20	17	34	51	420	35.0	-202974.0	919.0	10684.0
20	17	34	51	421	36.0	-203126.0	904.0	10889.0
20	17	34	51	421	37.0	-202897.0	877.0	10858.0
20	17	34	51	422	38.0	-202483.0	870.0	11125.0
20	17	34	51	422	39.0	-201897.0	846.0	11431.0
20	17	34	51	423	40.0	-201358.0	803.0	11246.0
20	17	34	51	424	41.0	-200546.0	751.0	10693.0
20	17	34	51	424	42.0	-199623.0	718.0	10309.0
20	17	34	51	425	43.0	-198802.0	693.0	10644.0
20	17	34	51	449	44.0	-198221.0	677.0	10801.0
20	17	34	51	449	45.0	-197625.0	706.0	10885.0
20	17	34	51	450	46.0	-197098.0	707.0	10919.0
20	17	34	51	451	47.0	-196736.0	696.0	11156.0
20	17	34	51	451	48.0	-196336.0	666.0	11298.0
20	17	34	51	452	49.0	-196016.0	649.0	11403.0
20	17	34	51	453	50.0	-195629.0	599.0	11359.0
20	17	34	51	467	51.0	-195154.0	551.0	11091.0
20	17	34	51	468	52.0	-194501.0	512.0	10711.0
20	17	34	51	468	53.0	-193832.0	479.0	10566.0
20	17	34	51	494	54.0	-193399.0	447.0	10739.0
20	17	34	51	494	55.0	-193274.0	431.0	11100.0
20	17	34	51	495	56.0	-193034.0	414.0	11018.0
20	17	34	51	496	57.0	-193029.0	396.0	11135.0
20	17	34	51	496	58.0	-193139.0	405.0	11379.0
20	17	34	51	513	59.0	-193307.0	399.0	11427.0
20	17	34	51	514	60.0	-193284.0	388.0	11436.0
20	17	34	51	514	61.0	-193309.0	344.0	11309.0
20	17	34	51	515	62.0	-193289.0	302.0	10614.0
20	17	34	51	515	63.0	-193154.0	272.0	10856.0
20	17	34	51	516	64.0	-193234.0	254.0	11079.0
20	17	34	51	516	65.0	-193402.0	232.0	11150.0
20	17	34	51	536	66.0	-193428.0	214.0	11413.0
20	17	34	51	537	67.0	-193173.0	198.0	12401.0
20	17	34	51	538	68.0	-193059.0	205.0	14569.0
20	17	34	51	538	72.0	-195312.0	59.0	19480.0
20	17	34	51	539	80.0	-202409.0	-159.0	29153.0
20	17	34	51	540	81.0	-204247.0	-227.0	26118.0
20	17	34	51	540	82.0	-206230.0	-271.0	18466.0
20	17	34	51	541	83.0	-207990.0	-317.0	10019.0
20	17	34	51	541	84.0	-209561.0	-349.0	-174.0
20	17	34	51	542	87.0	-212306.0	-388.0	1163.0
20	17	34	51	542	88.0	-212609.0	-409.0	5271.0
20	17	34	51	543	89.0	-212824.0	-421.0	12423.0
20	17	34	51	544	90.0	-213010.0	-459.0	20956.0
20	17	34	51	544	91.0	-213422.0	-507.0	27701.0
20	17	34	51	569	92.0	-213845.0	-546.0	32484.0
20	17	34	51	570	93.0	-214346.0	-578.0	34241.0
20	17	34	51	571	95.0	-214143.0	-605.0	31182.0
20	17	34	51	571	96.0	-213367.0	-639.0	28129.0
20	17	34	51	572	97.0	-210867.0	-663.0	25813.0
20	17	34	51	573	98.0	-206126.0	-684.0	23881.0
20	17	34	51	573	99.0	-200064.0	-707.0	21196.0
20	17	34	51	584	100.0	-193212.0	-747.0	18573.0
20	17	34	51	584	101.0	-187111.0	-776.0	16279.0
20	17	34	51	585	102.0	-182457.0	-805.0	14108.0
20	17	34	51	586	103.0	-179041.0	-832.0	12339.0
20	17	34	51	586	104.0	-177063.0	-843.0	10819.0
20	17	34	51	587	105.0	-176778.0	-862.0	10478.0
20	17	34	51	587	106.0	-178434.0	-873.0	9946.0
20	17	34	51	607	107.0	-181128.0	-884.0	9446.0
20	17	34	51	608	108.0	-184869.0	-882.0	9476.0
20	17	34	51	609	117.0	-216602.0	-1056.0	8096.0
20	17	34	51	609	118.0	-212016.0	-1046.0	8111.0
20	17	34	51	610	119.0	-206696.0	-1066.0	7876.0
20	17	34	51	611	120.0	-200841.0	-1099.0	7699.0
20	17	34	51	611	121.0	-194551.0	-1139.0	7393.0
20	17	34	51	630	122.0	-188505.0	-1178.0	7403.0
20	17	34	51	630	123.0	-183913.0	-1194.0	7365.0
20	17	34	51	631	125.0	-181300.0	-1189.0	7083.0
20	17	34	51	632	126.0	-182204.0	-1192.0	7353.0
20	17	34	51	632	127.0	-183754.0	-1196.0	7411.0
20	17	34	51	633	128.0	-185882.0	-1172.0	7248.0
20	17	34	51	634	129.0	-188512.0	-1208.0	7103.0
20	17	34	51	634	130.0	-191571.0	-1238.0	6562.0
20	17	34	51	635	131.0	-194899.0	-1282.0	6189.0
20	17	34	51	635	132.0	-198062.0	-1317.0	6276.0
20	17	34	51	636	133.0	-200647.0	-1346.0	6184.0
20	17	34	51	636	134.0	-202360.0	-1336.0	6078.0
20	17	34	51	637	135.0	-203184.0	-1339.0	6210.0
20	17	34	51	637	136.0	-203330.0	-1362.0	6368.0
20	17	34	51	653	137.0	-203036.0	-1351.0	6314.0
20	17	34	51	654	138.0	-202781.0	-1384.0	6178.0
20	17	34	51	655	140.0	-202941.0	-1426.0	5999.0
20	17	34	51	655	141.0	-203162.0	-1459.0	5632.0
20	17	34	51	656	142.0	-203171.0	-1482.0	5498.0
20	17	34	51	657	143.0	-202667.0	-1487.0	5166.0
20	17	34	51	657	144.0	-201803.0	-1511.0	4953.0
20	17	34	51	676	145.0	-200679.0	-1514.0	5518.0
20	17	34	51	677	146.0	-199193.0	-1521.0	5497.0
20	17	34	51	677	147.0	-197644.0	-1516.0	5084.0
20	17	34	51	678	148.0	-196258.0	-1519.0	5244.0
20	17	34	51	679	149.0	-195216.0	-1523.0	5053.0
20	17	34	51	680	150.0	-194305.0	-1559.0	4999.0
20	17	34	51	680	151.0	-193481.0	-1582.0	4216.0
20	17	34	51	681	152.0	-192682.0	-1596.0	4012.0
20	17	34	51	681	153.0	-191843.0	-1605.0	4254.0
20	17	34	51	682	155.0	-189821.0	-1619.0	4311.0
20	17	34	51	683	156.0	-188513.0	-1645.0	4421.0
20	17	34	51	683	157.0	-187024.0	-1661.0	4303.0
20	17	34	51	684	158.0	-185682.0	-1651.0	4140.0
20	17	34	51	685	159.0	-184751.0	-1668.0	4439.0
20	17	34	51	685	160.0	-184312.0	-1710.0	4004.0
20	17	34	51	686	161.0	-184325.0	-1739.0	3439.0
20	17	34	51	687	170.0	-204624.0	-1966.0	2743.0
20	17	34	51	687	171.0	-207629.0	-2029.0	2523.0
20	17	34	51	688	172.0	-210264.0	-2065.0	1891.0
20	17	34	51	688	173.0	-212530.0	-2079.0	2023.0
20	17	34	51	689	174.0	-214465.0	-2085.0	2092.0
20	17	34	51	690	175.0	-215936.0	-2069.0	2388.0
20	17	34	51	690	176.0	-217132.0	-2080.0	2239.0
20	17	34	51	691	177.0	-218099.0	-2104.0	2016.0
20	17	34	51	705	178.0	-218889.0	-2110.0	2205.0
20	17	34	51	705	179.0	-219521.0	-2110.0	2259.0
20	17	34	51	706	180.0	-219866.0	-2156.0	2098.0
20	17	34	51	707	181.0	-219905.0	-2207.0	2077.0
20	17	34	51	707	182.0	-219640.0	-2246.0	2098.0
20	17	34	51	708	183.0	-218909.0	-2269.0	1873.0
20	17	34	51	709	184.0	-217762.0	-2274.0	1954.0
20	17	34	51	709	185.0	-216284.0	-2293.0	2441.0
20	17	34	51	727	186.0	-214117.0	-2292.0	2618.0
20	17	34	51	728	187.0	-211735.0	-2311.0	2519.0
20	17	34	51	728	188.0	-209096.0	-2306.0	3104.0
20	17	34	51	729	189.0	-206397.0	-2322.0	3576.0
20	17	34	51	730	190.0	-203564.0	-2372.0	3287.0
20	17	34	51	730	191.0	-201030.0	-2390.0	3022.0
20	17	34	51	731	192.0	-198944.0	-2426.0	2822.0
20	17	34	51	731	193.0	-196882.0	-2441.0	3604.0
20	17	34	51	751	194.0	-195262.0	-2418.0	3924.0
20	17	34	51	752	195.0	-193787.0	-2411.0	4400.0
20	17	34	51	752	196.0	-192526.0	-2413.0	5376.0
20	17	34	51	753	197.0	-191007.0	-2388.0	5510.0
20	17	34	51	754	198.0	-189563.0	-2349.0	5710.0
20	17	34	51	754	199.0	-188255.0	-2355.0	6583.0
20	17	34	51	755	200.0	-186959.0	-2392.0	6426.0
20	17	34	51	755	201.0	-185858.0	-2413.0	6406.0
20	17	34	51	756	202.0	-184908.0	-2434.0	6674.0
20	17	34	51	757	203.0	-184146.0	-2406.0	7166.0
20	17	34	51	757	204.0	-183686.0	-2376.0	7629.0
20	17	34	51	758	205.0	-183956.0	-2376.0	7908.0
20	17	34	51	758	206.0	-184657.0	-2357.0	8364.0
20	17	34	51	759	207.0	-185754.0	-2326.0	9057.0
20	17	34	51	774	208.0	-187228.0	-2291.0	9508.0
20	17	34	51	775	209.0	-189094.0	-2277.0	9590.0
20	17	34	51	775	210.0	-190949.0	-2277.0	9795.0
20	17	34	51	776	211.0	-192698.0	-2274.0	10053.0
