20	17	29	34	648	68.0	-187332.0	-2027.0	1409248.0
20	17	29	34	650	69.0	-187598.0	-2016.0	1410161.0
20	17	29	34	666	70.0	-188001.0	-2026.0	1409296.0
20	17	29	34	667	71.0	-188368.0	-2026.0	1406381.0
20	17	29	34	668	72.0	-188949.0	-2032.0	1403080.0
20	17	29	34	669	73.0	-189531.0	-2029.0	1400312.0
20	17	29	34	670	74.0	-190127.0	-2026.0	1397886.0
20	17	29	34	670	75.0	-191063.0	-2044.0	1397649.0
20	17	29	34	671	76.0	-191666.0	-2045.0	1396684.0
20	17	29	34	671	77.0	-192154.0	-2058.0	1394151.0
20	17	29	34	672	78.0	-192320.0	-2069.0	1393179.0
20	17	29	34	672	79.0	-192387.0	-2052.0	1394532.0
20	17	29	34	697	80.0	-192504.0	-2069.0	1393151.0
20	17	29	34	697	81.0	-192599.0	-2083.0	1389728.0
20	17	29	34	698	82.0	-192980.0	-2040.0	1386753.0
20	17	29	34	698	83.0	-193849.0	-2058.0	1384201.0
20	17	29	34	699	84.0	-195491.0	-2064.0	1381315.0
20	17	29	34	699	85.0	-197872.0	-2062.0	1380143.0
20	17	29	34	700	86.0	-201009.0	-2049.0	1379883.0
20	17	29	34	701	87.0	-205021.0	-2064.0	1378421.0
20	17	29	34	701	88.0	-210083.0	-2059.0	1376647.0
20	17	29	34	744	89.0	-215869.0	-2064.0	1374743.0
20	17	29	34	745	90.0	-222720.0	-2087.0	1371552.0
20	17	29	34	746	91.0	-230897.0	-2071.0	1367672.0
20	17	29	34	746	92.0	-239364.0	-2069.0	1362113.0
20	17	29	34	747	93.0	-241797.0	-2067.0	1357660.0
20	17	29	34	747	94.0	-236953.0	-2058.0	1354269.0
20	17	29	34	748	95.0	-230556.0	-2054.0	1352257.0
20	17	29	34	748	96.0	-223164.0	-2039.0	1350341.0
20	17	29	34	789	97.0	-220431.0	-2055.0	1349031.0
20	17	29	34	789	98.0	-220027.0	-2044.0	1348975.0
20	17	29	34	790	99.0	-217329.0	-2018.0	1349183.0
20	17	29	34	791	100.0	-214765.0	-2015.0	1348284.0
20	17	29	34	791	101.0	-213335.0	-2004.0	1346723.0
20	17	29	34	792	102.0	-209694.0	-2020.0	1344066.0
20	17	29	34	792	103.0	-205861.0	-2025.0	1342301.0
20	17	29	34	834	121.0	-180507.0	-2031.0	1313648.0
20	17	29	34	835	122.0	-181278.0	-2016.0	1311682.0
20	17	29	34	835	123.0	-182120.0	-2023.0	1309030.0
20	17	29	34	836	124.0	-183152.0	-2026.0	1307715.0
20	17	29	34	837	125.0	-184124.0	-2015.0	1308318.0
20	17	29	34	837	126.0	-185056.0	-2004.0	1308558.0
20	17	29	34	838	127.0	-185571.0	-2010.0	1308629.0
20	17	29	34	879	128.0	-185744.0	-2034.0	1309174.0
20	17	29	34	924	143.0	-210571.0	-2100.0	1287816.0
20	17	29	34	924	144.0	-213414.0	-2099.0	1285799.0
20	17	29	34	925	145.0	-215899.0	-2106.0	1284416.0
20	17	29	34	925	146.0	-218186.0	-2091.0	1281468.0
20	17	29	34	926	147.0	-220262.0	-2087.0	1278745.0
20	17	29	34	927	148.0	-222116.0	-2107.0	1277101.0
20	17	29	34	927	149.0	-223808.0	-2117.0	1276423.0
20	17	29	34	928	150.0	-225501.0	-2112.0	1274463.0
20	17	29	34	929	166.0	-204205.0	-2163.0	1245071.0
20	17	29	34	930	167.0	-201221.0	-2144.0	1242946.0
20	17	29	34	931	168.0	-198151.0	-2150.0	1242078.0
20	17	29	34	932	169.0	-195262.0	-2137.0	1240528.0
20	17	29	34	932	170.0	-192419.0	-2140.0	1237315.0
20	17	29	34	933	171.0	-189808.0	-2156.0	1234337.0
20	17	29	34	934	172.0	-187196.0	-2153.0	1230613.0
20	17	29	34	935	211.0	-207267.0	-1917.0	1176103.0
20	17	29	34	936	212.0	-206932.0	-1932.0	1172784.0
20	17	29	34	936	213.0	-206512.0	-1925.0	1171543.0
20	17	29	34	937	214.0	-205872.0	-1925.0	1169224.0
20	17	29	34	938	215.0	-205023.0	-1952.0	1166001.0
20	17	29	34	938	216.0	-203949.0	-1952.0	1164917.0
20	17	29	35	15	217.0	-202881.0	-1961.0	1164930.0
20	17	29	35	15	218.0	-201870.0	-1968.0	1164273.0
20	17	29	35	16	219.0	-200844.0	-1971.0	1161629.0
20	17	29	35	17	220.0	-199907.0	-1957.0	1159094.0
20	17	29	35	17	221.0	-199113.0	-1959.0	1155605.0
20	17	29	35	18	222.0	-198566.0	-1977.0	1154540.0
20	17	29	35	18	223.0	-198423.0	-1975.0	1153034.0
20	17	29	35	60	224.0	-198552.0	-1973.0	1152539.0
20	17	29	35	60	225.0	-198704.0	-1982.0	1151579.0
20	17	29	35	61	226.0	-198840.0	-1987.0	1150439.0
20	17	29	35	61	227.0	-199199.0	-1989.0	1151027.0
20	17	29	35	62	228.0	-199621.0	-1984.0	1150681.0
20	17	29	35	63	229.0	-199834.0	-1988.0	1148337.0
20	17	29	35	63	230.0	-199664.0	-1983.0	1147302.0
20	17	29	35	64	231.0	-199245.0	-1976.0	1146104.0
20	17	29	35	104	233.0	-198109.0	-1987.0	1143570.0
20	17	29	35	105	0.0	-208734.0	-1991.0	1110383.0
20	17	29	35	105	1.0	-208164.0	-1967.0	1109458.0
20	17	29	35	106	2.0	-207269.0	-1949.0	1109078.0
20	17	29	35	107	3.0	-206369.0	-1929.0	1106908.0
20	17	29	35	107	4.0	-205166.0	-1940.0	1104183.0
20	17	29	35	108	5.0	-203755.0	-1935.0	1102794.0
20	17	29	35	149	6.0	-202102.0	-1945.0	1100792.0
20	17	29	35	149	22.0	-200996.0	-1669.0	1071204.0
20	17	29	35	150	23.0	-203110.0	-1666.0	1070428.0
20	17	29	35	151	24.0	-205619.0	-1652.0	1071196.0
20	17	29	35	151	25.0	-208227.0	-1626.0	1073611.0
20	17	29	35	152	26.0	-210527.0	-1609.0	1073074.0
20	17	29	35	153	27.0	-212407.0	-1607.0	1072859.0
20	17	29	35	240	28.0	-213524.0	-1611.0	1073652.0
20	17	29	35	240	29.0	-213832.0	-1590.0	1074433.0
20	17	29	35	241	45.0	-199833.0	-1350.0	1035167.0
20	17	29	35	242	46.0	-197411.0	-1349.0	1032831.0
20	17	29	35	242	47.0	-194142.0	-1335.0	1032178.0
20	17	29	35	243	48.0	-190097.0	-1308.0	1032241.0
20	17	29	35	244	49.0	-186886.0	-1299.0	1031793.0
20	17	29	35	244	50.0	-185769.0	-1276.0	1030438.0
20	17	29	35	245	51.0	-187131.0	-1259.0	1030792.0
20	17	29	35	246	67.0	-225109.0	-1171.0	1000216.0
20	17	29	35	246	68.0	-218775.0	-1171.0	1000587.0
20	17	29	35	247	69.0	-212839.0	-1187.0	1000311.0
20	17	29	35	248	70.0	-207872.0	-1189.0	999679.0
20	17	29	35	248	71.0	-203274.0	-1181.0	1000187.0
20	17	29	35	249	72.0	-198562.0	-1190.0	999441.0
20	17	29	35	250	73.0	-194386.0	-1170.0	996893.0
20	17	29	35	250	112.0	-210449.0	-1084.0	929596.0
20	17	29	35	251	113.0	-209852.0	-1100.0	926706.0
20	17	29	35	252	114.0	-209148.0	-1077.0	921712.0
20	17	29	35	252	115.0	-208242.0	-1090.0	916744.0
20	17	29	35	253	116.0	-207188.0	-1108.0	914888.0
20	17	29	35	254	117.0	-206111.0	-1125.0	913906.0
20	17	29	35	254	118.0	-204730.0	-1111.0	913391.0
20	17	29	35	329	119.0	-204369.0	-1122.0	913561.0
20	17	29	35	330	120.0	-203883.0	-1123.0	914234.0
20	17	29	35	375	121.0	-203514.0	-1146.0	914220.0
20	17	29	35	376	122.0	-203253.0	-1138.0	913940.0
20	17	29	35	376	123.0	-203144.0	-1141.0	911118.0
20	17	29	35	377	124.0	-202764.0	-1141.0	905525.0
20	17	29	35	378	125.0	-202227.0	-1141.0	902341.0
20	17	29	35	419	126.0	-201751.0	-1149.0	900381.0
20	17	29	35	420	127.0	-201963.0	-1146.0	898543.0
20	17	29	35	420	128.0	-202532.0	-1152.0	897879.0
20	17	29	35	421	129.0	-202509.0	-1164.0	896526.0
20	17	29	35	422	130.0	-202691.0	-1155.0	894862.0
20	17	29	35	422	131.0	-203131.0	-1172.0	894696.0
20	17	29	35	423	132.0	-203387.0	-1172.0	891751.0
20	17	29	35	465	133.0	-203714.0	-1171.0	888733.0
20	17	29	35	466	157.0	-195556.0	-1250.0	859443.0
20	17	29	35	466	158.0	-195698.0	-1252.0	861066.0
20	17	29	35	467	179.0	-184247.0	-1597.0	840833.0
20	17	29	35	467	180.0	-184331.0	-1615.0	840999.0
20	17	29	35	468	181.0	-185594.0	-1624.0	841151.0
20	17	29	35	469	182.0	-188238.0	-1634.0	840388.0
20	17	29	35	469	183.0	-190731.0	-1652.0	838594.0
20	17	29	35	509	184.0	-195176.0	-1659.0	837649.0
20	17	29	35	510	202.0	-215787.0	-1697.0	803742.0
20	17	29	35	510	203.0	-209819.0	-1689.0	798969.0
20	17	29	35	511	204.0	-202971.0	-1676.0	795279.0
20	17	29	35	512	205.0	-196348.0	-1677.0	793953.0
20	17	29	35	512	206.0	-191671.0	-1679.0	794369.0
20	17	29	35	513	207.0	-187464.0	-1687.0	796651.0
20	17	29	35	554	208.0	-184963.0	-1671.0	797439.0
20	17	29	35	555	225.0	-178653.0	-1713.0	788915.0
20	17	29	35	555	226.0	-179434.0	-1720.0	788589.0
20	17	29	35	556	227.0	-180361.0	-1727.0	788548.0
20	17	29	35	557	228.0	-181739.0	-1721.0	789341.0
20	17	29	35	557	229.0	-183189.0	-1738.0	789138.0
20	17	29	35	558	230.0	-184641.0	-1742.0	789890.0
20	17	29	35	599	231.0	-186577.0	-1759.0	791048.0
20	17	29	35	600	232.0	-188965.0	-1761.0	788456.0
20	17	29	35	600	247.0	-210509.0	-1764.0	768227.0
20	17	29	35	601	248.0	-210758.0	-1745.0	767256.0
20	17	29	35	602	249.0	-211786.0	-1759.0	765978.0
20	17	29	35	602	250.0	-213146.0	-1764.0	765207.0
20	17	29	35	603	251.0	-213579.0	-1755.0	765519.0
20	17	29	35	643	252.0	-213969.0	-1756.0	763951.0
20	17	29	35	644	13.0	-188670.0	-1543.0	743489.0
20	17	29	35	645	14.0	-186325.0	-1546.0	743669.0
20	17	29	35	690	15.0	-184548.0	-1522.0	742070.0
20	17	29	35	690	16.0	-183221.0	-1509.0	739699.0
20	17	29	35	691	17.0	-182148.0	-1500.0	737584.0
20	17	29	35	692	18.0	-181451.0	-1514.0	735191.0
20	17	29	35	692	19.0	-181105.0	-1524.0	734268.0
20	17	29	35	693	20.0	-180307.0	-1497.0	736144.0
20	17	29	35	693	36.0	-190906.0	-1410.0	730359.0
20	17	29	35	734	37.0	-192782.0	-1413.0	724735.0
20	17	29	35	734	38.0	-194364.0	-1402.0	720079.0
20	17	29	35	736	39.0	-195189.0	-1406.0	718639.0
20	17	29	35	737	40.0	-197134.0	-1431.0	718474.0
20	17	29	35	738	41.0	-199393.0	-1438.0	716801.0
20	17	29	35	738	42.0	-201213.0	-1437.0	714491.0
20	17	29	35	739	59.0	-217009.0	-1436.0	667309.0
20	17	29	35	779	60.0	-215532.0	-1420.0	665746.0
20	17	29	35	780	81.0	-186017.0	-1504.0	643124.0
20	17	29	35	781	82.0	-187678.0	-1504.0	642404.0
20	17	29	35	782	83.0	-189150.0	-1509.0	641331.0
20	17	29	35	782	84.0	-191116.0	-1503.0	641908.0
20	17	29	35	783	85.0	-193479.0	-1496.0	640681.0
20	17	29	35	784	86.0	-195542.0	-1518.0	637558.0
20	17	29	35	824	87.0	-198270.0	-1518.0	632989.0
20	17	29	35	825	88.0	-201180.0	-1506.0	628066.0
20	17	29	35	826	103.0	-198471.0	-1484.0	594552.0
20	17	29	35	827	104.0	-196829.0	-1499.0	592517.0
20	17	29	35	827	105.0	-195391.0	-1488.0	589543.0
20	17	29	35	828	106.0	-194106.0	-1482.0	587908.0
20	17	29	35	828	107.0	-193295.0	-1463.0	586404.0
20	17	29	35	869	108.0	-193212.0	-1478.0	585395.0
20	17	29	35	870	109.0	-193981.0	-1486.0	585034.0
20	17	29	35	871	126.0	-185817.0	-1352.0	579078.0
20	17	29	35	872	127.0	-181784.0	-1360.0	572382.0
20	17	29	35	872	128.0	-179733.0	-1346.0	569339.0
20	17	29	35	873	129.0	-180149.0	-1357.0	567714.0
20	17	29	35	873	130.0	-182631.0	-1330.0	563946.0
20	17	29	35	915	131.0	-185759.0	-1336.0	561176.0
20	17	29	35	916	132.0	-188244.0	-1315.0	559160.0
20	17	29	35	916	148.0	-240389.0	-1250.0	520726.0
20	17	29	35	917	149.0	-241823.0	-1261.0	521499.0
20	17	29	35	918	150.0	-240794.0	-1264.0	520906.0
20	17	29	35	918	151.0	-237260.0	-1276.0	518286.0
20	17	29	35	919	152.0	-231881.0	-1267.0	516074.0
20	17	29	35	920	153.0	-225281.0	-1274.0	515863.0
20	17	29	35	920	154.0	-218287.0	-1294.0	513996.0
20	17	29	35	921	171.0	-169545.0	-1343.0	487487.0
20	17	29	35	921	172.0	-169389.0	-1366.0	486722.0
20	17	29	35	922	173.0	-169670.0	-1366.0	487668.0
20	17	29	35	923	174.0	-170422.0	-1378.0	487231.0
20	17	29	35	923	175.0	-171664.0	-1391.0	484248.0
20	17	29	35	924	176.0	-173276.0	-1404.0	480531.0
20	17	29	35	924	193.0	-195552.0	-1514.0	450630.0
20	17	29	35	925	194.0	-196259.0	-1531.0	448323.0
20	17	29	35	926	195.0	-196960.0	-1514.0	445191.0
20	17	29	36	5	196.0	-197939.0	-1512.0	440381.0
20	17	29	36	6	197.0	-198823.0	-1521.0	437077.0
20	17	29	36	6	198.0	-199734.0	-1511.0	434308.0
20	17	29	36	7	199.0	-200591.0	-1516.0	433238.0
20	17	29	36	8	200.0	-201186.0	-1510.0	432766.0
20	17	29	36	8	201.0	-201672.0	-1517.0	431694.0
20	17	29	36	9	202.0	-202053.0	-1517.0	429884.0
20	17	29	36	49	203.0	-202291.0	-1538.0	428763.0
20	17	29	36	50	204.0	-202474.0	-1541.0	426857.0
20	17	29	36	51	205.0	-202683.0	-1528.0	423928.0
20	17	29	36	52	206.0	-202730.0	-1506.0	420458.0
20	17	29	36	53	207.0	-202782.0	-1504.0	418078.0
20	17	29	36	53	208.0	-202624.0	-1512.0	416918.0
20	17	29	36	54	209.0	-202378.0	-1509.0	417055.0
20	17	29	36	94	210.0	-202102.0	-1514.0	416622.0
20	17	29	36	95	211.0	-201972.0	-1499.0	414208.0
20	17	29	36	96	238.0	-198037.0	-1777.0	388666.0
20	17	29	36	96	239.0	-198621.0	-1822.0	386842.0
20	17	29	36	97	240.0	-199229.0	-1844.0	385544.0
20	17	29	36	97	241.0	-199833.0	-1857.0	385603.0
20	17	29	36	98	242.0	-200529.0	-1889.0	386474.0
20	17	29	36	139	243.0	-201122.0	-1914.0	386614.0
20	17	29	36	140	244.0	-201329.0	-1946.0	385246.0
20	17	29	36	141	5.0	-193685.0	-2344.0	368943.0
20	17	29	36	141	6.0	-192991.0	-2373.0	369788.0
20	17	29	36	142	7.0	-192281.0	-2386.0	369381.0
20	17	29	36	143	8.0	-191481.0	-2406.0	368718.0
20	17	29	36	143	9.0	-190920.0	-2400.0	365939.0
20	17	29	36	229	10.0	-191102.0	-2426.0	362988.0
20	17	29	36	230	11.0	-192101.0	-2446.0	360738.0
20	17	29	36	231	27.0	-224754.0	-2644.0	341287.0
20	17	29	36	232	28.0	-223786.0	-2662.0	339613.0
20	17	29	36	233	29.0	-220742.0	-2656.0	337078.0
20	17	29	36	234	30.0	-217111.0	-2652.0	333878.0
20	17	29	36	273	31.0	-212409.0	-2676.0	332329.0
20	17	29	36	274	32.0	-206302.0	-2697.0	332138.0
20	17	29	36	275	33.0	-199483.0	-2695.0	331934.0
20	17	29	36	276	50.0	-181985.0	-2796.0	337997.0
20	17	29	36	277	51.0	-181986.0	-2796.0	336140.0
20	17	29	36	277	52.0	-181996.0	-2787.0	335179.0
20	17	29	36	278	53.0	-181812.0	-2787.0	335586.0
20	17	29	36	279	54.0	-181441.0	-2784.0	335732.0
20	17	29	36	280	55.0	-180950.0	-2771.0	336031.0
20	17	29	36	281	56.0	-180139.0	-2782.0	337949.0
20	17	29	36	282	95.0	-213669.0	-2812.0	291526.0
20	17	29	36	282	96.0	-210709.0	-2813.0	292429.0
20	17	29	36	283	97.0	-207424.0	-2781.0	293291.0
20	17	29	36	284	98.0	-204125.0	-2797.0	291800.0
20	17	29	36	285	99.0	-200731.0	-2792.0	290196.0
20	17	29	36	286	117.0	-187628.0	-2841.0	300844.0
20	17	29	36	286	118.0	-190318.0	-2848.0	298684.0
20	17	29	36	287	119.0	-193201.0	-2850.0	295583.0
20	17	29	36	318	120.0	-196112.0	-2849.0	293797.0
20	17	29	36	319	121.0	-198922.0	-2854.0	291846.0
20	17	29	36	320	122.0	-201445.0	-2855.0	291788.0
20	17	29	36	321	123.0	-203276.0	-2854.0	293020.0
20	17	29	36	321	124.0	-204591.0	-2849.0	292669.0
20	17	29	36	322	125.0	-205641.0	-2847.0	291106.0
20	17	29	36	365	126.0	-206422.0	-2850.0	290575.0
20	17	29	36	366	127.0	-207400.0	-2845.0	289647.0
20	17	29	36	366	128.0	-208041.0	-2859.0	287561.0
20	17	29	36	367	129.0	-208520.0	-2838.0	286849.0
20	17	29	36	368	130.0	-208846.0	-2826.0	285142.0
20	17	29	36	368	131.0	-209258.0	-2831.0	285047.0
20	17	29	36	369	132.0	-209212.0	-2830.0	286504.0
20	17	29	36	409	133.0	-209142.0	-2824.0	287019.0
20	17	29	36	410	134.0	-209193.0	-2826.0	286832.0
20	17	29	36	410	135.0	-208824.0	-2832.0	285964.0
20	17	29	36	411	140.0	-207690.0	-2832.0	274869.0
20	17	29	36	412	141.0	-207339.0	-2817.0	273662.0
20	17	29	36	413	142.0	-206728.0	-2814.0	273078.0
20	17	29	36	413	143.0	-206138.0	-2819.0	274084.0
20	17	29	36	455	144.0	-205667.0	-2813.0	273900.0
20	17	29	36	456	162.0	-189841.0	-2842.0	268433.0
20	17	29	36	456	163.0	-189206.0	-2836.0	268538.0
20	17	29	36	457	164.0	-189000.0	-2827.0	268018.0
20	17	29	36	458	165.0	-188954.0	-2828.0	268493.0
20	17	29	36	459	166.0	-189235.0	-2831.0	270074.0
20	17	29	36	459	167.0	-189809.0	-2832.0	269614.0
20	17	29	36	502	168.0	-190156.0	-2816.0	267718.0
20	17	29	36	503	169.0	-190384.0	-2822.0	265058.0
20	17	29	36	504	185.0	-198747.0	-2749.0	256434.0
20	17	29	36	504	186.0	-200174.0	-2724.0	259372.0
20	17	29	36	505	187.0	-201634.0	-2727.0	259813.0
20	17	29	36	506	188.0	-203651.0	-2716.0	257968.0
20	17	29	36	507	189.0	-205886.0	-2736.0	257079.0
20	17	29	36	544	190.0	-208601.0	-2749.0	257561.0
20	17	29	36	545	191.0	-211561.0	-2720.0	259114.0
20	17	29	36	546	207.0	-181100.0	-2692.0	253021.0
20	17	29	36	546	208.0	-179606.0	-2697.0	250718.0
20	17	29	36	547	209.0	-180172.0	-2684.0	249657.0
20	17	29	36	588	210.0	-182602.0	-2676.0	249035.0
20	17	29	36	589	211.0	-185411.0	-2667.0	250320.0
20	17	29	36	590	212.0	-186872.0	-2692.0	252803.0
20	17	29	36	590	213.0	-186964.0	-2692.0	253529.0
20	17	29	36	591	230.0	-220266.0	-2735.0	243209.0
20	17	29	36	591	231.0	-217969.0	-2738.0	242461.0
20	17	29	36	592	232.0	-214972.0	-2719.0	242564.0
20	17	29	36	593	233.0	-211468.0	-2724.0	244285.0
20	17	29	36	679	234.0	-207921.0	-2742.0	245561.0
20	17	29	36	680	235.0	-204532.0	-2755.0	245695.0
20	17	29	36	680	236.0	-201585.0	-2745.0	247199.0
20	17	29	36	681	252.0	-201062.0	-2776.0	229453.0
20	17	29	36	682	253.0	-202154.0	-2777.0	229991.0
20	17	29	36	683	254.0	-202950.0	-2789.0	229437.0
20	17	29	36	684	255.0	-203336.0	-2774.0	229559.0
20	17	29	36	685	18.0	-183391.0	-2786.0	219738.0
20	17	29	36	686	19.0	-183023.0	-2802.0	220684.0
20	17	29	36	687	20.0	-183281.0	-2780.0	220719.0
20	17	29	36	688	21.0	-183697.0	-2779.0	219480.0
20	17	29	36	689	22.0	-184452.0	-2804.0	219704.0
20	17	29	36	689	23.0	-185388.0	-2831.0	220393.0
20	17	29	36	690	24.0	-186982.0	-2845.0	220167.0
20	17	29	36	691	25.0	-189386.0	-2839.0	220743.0
20	17	29	36	692	26.0	-191707.0	-2846.0	221428.0
20	17	29	36	693	64.0	-205359.0	-3116.0	193491.0
20	17	29	36	693	65.0	-204754.0	-3105.0	192309.0
20	17	29	36	694	66.0	-203992.0	-3134.0	191361.0
20	17	29	36	695	67.0	-203074.0	-3142.0	190116.0
20	17	29	36	696	68.0	-202027.0	-3157.0	189256.0
20	17	29	36	724	69.0	-200815.0	-3192.0	190689.0
20	17	29	36	725	70.0	-199537.0	-3216.0	190545.0
20	17	29	36	726	71.0	-198231.0	-3224.0	189371.0
20	17	29	36	726	72.0	-197037.0	-3227.0	186204.0
20	17	29	36	727	73.0	-195718.0	-3250.0	184489.0
20	17	29	36	728	74.0	-194477.0	-3261.0	183401.0
20	17	29	36	728	75.0	-193262.0	-3291.0	184391.0
20	17	29	36	770	76.0	-192197.0	-3302.0	186942.0
20	17	29	36	772	77.0	-191234.0	-3331.0	188316.0
20	17	29	36	774	78.0	-190106.0	-3349.0	186709.0
20	17	29	36	775	79.0	-189013.0	-3381.0	187956.0
20	17	29	36	775	80.0	-187984.0	-3414.0	188936.0
20	17	29	36	776	81.0	-187148.0	-3430.0	187204.0
20	17	29	36	777	82.0	-186360.0	-3426.0	185208.0
20	17	29	36	812	83.0	-185598.0	-3446.0	184004.0
20	17	29	36	813	84.0	-184819.0	-3464.0	182644.0
20	17	29	36	813	86.0	-183319.0	-3481.0	183590.0
20	17	29	36	814	87.0	-182909.0	-3502.0	184971.0
20	17	29	36	815	88.0	-182827.0	-3496.0	184796.0
20	17	29	36	815	89.0	-183178.0	-3516.0	184671.0
20	17	29	36	816	90.0	-183844.0	-3537.0	183520.0
20	17	29	36	857	91.0	-184711.0	-3561.0	180640.0
20	17	29	36	858	92.0	-186118.0	-3554.0	178099.0
20	17	29	36	858	108.0	-209402.0	-3686.0	176828.0
20	17	29	36	859	109.0	-208277.0	-3687.0	179314.0
20	17	29	36	859	110.0	-207434.0	-3698.0	180021.0
20	17	29	36	860	111.0	-206052.0	-3707.0	178228.0
20	17	29	36	903	112.0	-203779.0	-3695.0	176062.0
20	17	29	36	903	113.0	-200598.0	-3711.0	175623.0
20	17	29	36	904	114.0	-197227.0	-3722.0	175421.0
20	17	29	36	905	131.0	-199247.0	-3609.0	177489.0
20	17	29	36	905	132.0	-199712.0	-3596.0	175848.0
20	17	29	36	906	133.0	-199772.0	-3599.0	173676.0
20	17	29	36	906	134.0	-199484.0	-3608.0	171898.0
20	17	29	36	947	135.0	-199057.0	-3607.0	172541.0
20	17	29	36	948	136.0	-198330.0	-3612.0	173606.0
20	17	29	36	949	137.0	-197596.0	-3582.0	175315.0
20	17	29	36	949	153.0	-208746.0	-3491.0	167458.0
20	17	29	36	950	154.0	-209352.0	-3486.0	167131.0
20	17	29	36	950	155.0	-209640.0	-3480.0	168706.0
20	17	29	36	951	156.0	-209514.0	-3479.0	170146.0
20	17	29	36	992	157.0	-209002.0	-3486.0	170112.0
20	17	29	36	993	176.0	-207197.0	-3431.0	157631.0
20	17	29	36	994	177.0	-206338.0	-3417.0	155693.0
20	17	29	36	994	178.0	-205343.0	-3397.0	155622.0
20	17	29	36	995	179.0	-204265.0	-3412.0	154597.0
20	17	29	36	996	180.0	-203231.0	-3399.0	152380.0
20	17	29	36	996	181.0	-202504.0	-3392.0	149641.0
20	17	29	36	997	182.0	-202007.0	-3396.0	147680.0
20	17	29	36	997	183.0	-201652.0	-3398.0	146330.0
20	17	29	36	998	198.0	-201321.0	-3444.0	155431.0
20	17	29	37	38	199.0	-199255.0	-3447.0	158068.0
20	17	29	37	39	200.0	-197562.0	-3469.0	156894.0
20	17	29	37	40	201.0	-196333.0	-3466.0	154533.0
20	17	29	37	40	202.0	-194908.0	-3466.0	153349.0
20	17	29	37	41	203.0	-193449.0	-3465.0	152051.0
20	17	29	37	42	221.0	-201314.0	-3542.0	141757.0
20	17	29	37	42	222.0	-201631.0	-3554.0	139468.0
20	17	29	37	83	223.0	-201959.0	-3560.0	138253.0
20	17	29	37	84	224.0	-202170.0	-3565.0	136869.0
20	17	29	37	85	225.0	-202394.0	-3556.0	136193.0
20	17	29	37	86	226.0	-202632.0	-3542.0	135755.0
20	17	29	37	86	227.0	-202744.0	-3548.0	135309.0
20	17	29	37	87	228.0	-202445.0	-3564.0	136728.0
20	17	29	37	88	229.0	-201997.0	-3562.0	137817.0
20	17	29	37	129	230.0	-201512.0	-3556.0	137954.0
20	17	29	37	130	243.0	-207830.0	-3602.0	133755.0
20	17	29	37	131	244.0	-207832.0	-3594.0	133996.0
20	17	29	37	139	245.0	-207973.0	-3597.0	134121.0
20	17	29	37	139	246.0	-208268.0	-3598.0	133874.0
20	17	29	37	140	247.0	-208767.0	-3596.0	133997.0
20	17	29	37	141	248.0	-209277.0	-3590.0	134729.0
20	17	29	37	141	249.0	-209612.0	-3594.0	135161.0
20	17	29	37	142	250.0	-209694.0	-3614.0	132623.0
20	17	29	37	142	10.0	-195296.0	-3569.0	120894.0
20	17	29	37	143	11.0	-194966.0	-3567.0	122665.0
20	17	29	37	143	12.0	-195404.0	-3563.0	124685.0
20	17	29	37	144	13.0	-196221.0	-3546.0	126740.0
20	17	29	37	145	14.0	-197616.0	-3535.0	128521.0
20	17	29	37	145	15.0	-199353.0	-3531.0	131584.0
20	17	29	37	146	16.0	-201116.0	-3536.0	133016.0
20	17	29	37	146	32.0	-179632.0	-3496.0	129006.0
20	17	29	37	147	33.0	-184150.0	-3489.0	127895.0
20	17	29	37	147	34.0	-188309.0	-3473.0	125233.0
20	17	29	37	148	35.0	-190510.0	-3462.0	122493.0
20	17	29	37	148	36.0	-190351.0	-3466.0	121249.0
20	17	29	37	149	37.0	-188024.0	-3489.0	121874.0
20	17	29	37	149	38.0	-184831.0	-3475.0	123799.0
20	17	29	37	173	39.0	-182394.0	-3467.0	126121.0
20	17	29	37	174	40.0	-181365.0	-3473.0	127208.0
20	17	29	37	174	41.0	-182369.0	-3474.0	126009.0
20	17	29	37	175	42.0	-185644.0	-3472.0	125754.0
20	17	29	37	176	43.0	-190709.0	-3466.0	122629.0
20	17	29	37	176	44.0	-196922.0	-3451.0	119448.0
20	17	29	37	177	45.0	-203679.0	-3443.0	117769.0
20	17	29	37	178	46.0	-209961.0	-3449.0	116034.0
20	17	29	37	178	47.0	-215640.0	-3458.0	113974.0
20	17	29	37	179	48.0	-221177.0	-3469.0	114493.0
20	17	29	37	179	49.0	-226854.0	-3470.0	114629.0
20	17	29	37	180	50.0	-232486.0	-3472.0	115534.0
20	17	29	37	219	51.0	-237347.0	-3491.0	116413.0
20	17	29	37	220	52.0	-240801.0	-3476.0	116694.0
20	17	29	37	220	53.0	-242231.0	-3463.0	114833.0
20	17	29	37	221	54.0	-241679.0	-3476.0	113119.0
20	17	29	37	221	55.0	-239436.0	-3469.0	111515.0
20	17	29	37	222	56.0	-236085.0	-3461.0	109601.0
20	17	29	37	223	57.0	-232387.0	-3466.0	109065.0
20	17	29	37	265	58.0	-228816.0	-3486.0	110311.0
20	17	29	37	265	59.0	-225330.0	-3469.0	111445.0
20	17	29	37	266	60.0	-222307.0	-3478.0	111686.0
20	17	29	37	267	61.0	-219304.0	-3494.0	112027.0
20	17	29	37	267	62.0	-216212.0	-3489.0	113582.0
20	17	29	37	268	63.0	-213217.0	-3476.0	113285.0
20	17	29	37	268	64.0	-209942.0	-3453.0	111524.0
20	17	29	37	269	65.0	-206117.0	-3462.0	110668.0
20	17	29	37	270	66.0	-202247.0	-3464.0	110538.0
20	17	29	37	270	77.0	-179306.0	-3476.0	108616.0
20	17	29	37	271	78.0	-178738.0	-3460.0	110449.0
20	17	29	37	272	79.0	-178242.0	-3480.0	111188.0
20	17	29	37	272	80.0	-177751.0	-3467.0	111840.0
20	17	29	37	273	81.0	-177448.0	-3466.0	112501.0
20	17	29	37	274	82.0	-177133.0	-3502.0	112739.0
20	17	29	37	274	83.0	-176884.0	-3506.0	110783.0
20	17	29	37	275	100.0	-193529.0	-3651.0	106369.0
20	17	29	37	275	101.0	-198577.0	-3642.0	108200.0
20	17	29	37	276	102.0	-203646.0	-3643.0	109617.0
20	17	29	37	276	103.0	-208466.0	-3652.0	108073.0
20	17	29	37	277	104.0	-212881.0	-3666.0	104384.0
20	17	29	37	277	105.0	-216838.0	-3671.0	100091.0
20	17	29	37	309	106.0	-220060.0	-3669.0	99149.0
20	17	29	37	310	107.0	-222846.0	-3657.0	98936.0
20	17	29	37	353	108.0	-225311.0	-3665.0	98947.0
20	17	29	37	353	109.0	-227376.0	-3672.0	97778.0
20	17	29	37	354	110.0	-229066.0	-3671.0	95317.0
20	17	29	37	355	111.0	-230212.0	-3659.0	93958.0
20	17	29	37	355	112.0	-230527.0	-3670.0	91834.0
20	17	29	37	356	113.0	-230016.0	-3675.0	87838.0
20	17	29	37	356	114.0	-228590.0	-3669.0	85470.0
20	17	29	37	400	115.0	-226642.0	-3668.0	83129.0
20	17	29	37	400	116.0	-223577.0	-3658.0	81160.0
20	17	29	37	401	117.0	-219754.0	-3651.0	81891.0
20	17	29	37	402	118.0	-215707.0	-3663.0	83181.0
20	17	29	37	402	119.0	-211700.0	-3660.0	83556.0
20	17	29	37	403	120.0	-207741.0	-3641.0	84003.0
20	17	29	37	403	122.0	-200150.0	-3696.0	85124.0
20	17	29	37	404	123.0	-196905.0	-3694.0	84102.0
20	17	29	37	444	144.0	-185731.0	-3812.0	79763.0
20	17	29	37	445	145.0	-188056.0	-3814.0	80768.0
20	17	29	37	445	146.0	-190562.0	-3792.0	80004.0
20	17	29	37	446	147.0	-193086.0	-3801.0	79738.0
20	17	29	37	446	148.0	-195552.0	-3802.0	79053.0
20	17	29	37	447	149.0	-198110.0	-3805.0	77048.0
20	17	29	37	448	150.0	-200870.0	-3814.0	75536.0
20	17	29	37	489	151.0	-203974.0	-3821.0	76288.0
20	17	29	37	490	167.0	-208312.0	-3931.0	73339.0
20	17	29	37	490	168.0	-205111.0	-3935.0	72170.0
20	17	29	37	491	169.0	-202409.0	-3931.0	74178.0
20	17	29	37	492	170.0	-200465.0	-3931.0	77109.0
20	17	29	37	492	171.0	-199390.0	-3942.0	78843.0
20	17	29	37	493	172.0	-199247.0	-3945.0	79011.0
20	17	29	37	534	173.0	-200027.0	-3949.0	78034.0
20	17	29	37	535	189.0	-192149.0	-3884.0	77585.0
20	17	29	37	535	190.0	-189734.0	-3873.0	77853.0
20	17	29	37	536	191.0	-187009.0	-3859.0	80718.0
20	17	29	37	537	192.0	-184117.0	-3880.0	80211.0
20	17	29	37	538	193.0	-180846.0	-3881.0	78661.0
20	17	29	37	539	194.0	-177447.0	-3889.0	78181.0
20	17	29	37	539	195.0	-175224.0	-3886.0	77976.0
20	17	29	37	540	196.0	-174097.0	-3882.0	77672.0
20	17	29	37	541	212.0	-206266.0	-3936.0	83794.0
20	17	29	37	542	213.0	-206776.0	-3926.0	81401.0
20	17	29	37	542	214.0	-206774.0	-3922.0	78218.0
20	17	29	37	543	215.0	-206686.0	-3911.0	74067.0
20	17	29	37	579	216.0	-206307.0	-3929.0	70167.0
20	17	29	37	580	217.0	-205852.0	-3934.0	69682.0
20	17	29	37	581	218.0	-205397.0	-3929.0	70058.0
20	17	29	37	582	235.0	-201760.0	-3945.0	61845.0
20	17	29	37	583	236.0	-201517.0	-3936.0	61001.0
20	17	29	37	583	237.0	-201234.0	-3940.0	63526.0
20	17	29	37	584	238.0	-200614.0	-3959.0	66481.0
20	17	29	37	585	239.0	-199793.0	-3981.0	68621.0
20	17	29	37	586	240.0	-198651.0	-3959.0	69374.0
20	17	29	37	586	241.0	-197559.0	-3946.0	68901.0
20	17	29	37	587	242.0	-196312.0	-3946.0	67495.0
20	17	29	37	588	243.0	-195225.0	-3946.0	66977.0
20	17	29	37	589	244.0	-194328.0	-3946.0	65476.0
20	17	29	37	589	245.0	-193740.0	-3946.0	64728.0
20	17	29	37	590	246.0	-193604.0	-3937.0	64281.0
20	17	29	37	591	247.0	-193758.0	-3931.0	64552.0
20	17	29	37	592	1.0	-210429.0	-3866.0	64934.0
20	17	29	37	593	2.0	-212456.0	-3853.0	66441.0
20	17	29	37	593	3.0	-214019.0	-3854.0	68402.0
20	17	29	37	594	4.0	-215172.0	-3856.0	70743.0
20	17	29	37	595	5.0	-215921.0	-3844.0	70959.0
20	17	29	37	595	6.0	-216221.0	-3859.0	67650.0
20	17	29	37	596	7.0	-216214.0	-3854.0	65581.0
20	17	29	37	624	8.0	-215533.0	-3857.0	64564.0
20	17	29	37	625	9.0	-214396.0	-3850.0	63859.0
20	17	29	37	626	10.0	-213071.0	-3867.0	64426.0
20	17	29	37	627	11.0	-211383.0	-3849.0	64419.0
20	17	29	37	627	12.0	-209271.0	-3851.0	65549.0
20	17	29	37	628	13.0	-207017.0	-3862.0	67475.0
20	17	29	37	628	14.0	-204655.0	-3864.0	68910.0
20	17	29	37	629	15.0	-202202.0	-3855.0	69422.0
20	17	29	37	668	16.0	-199727.0	-3845.0	68846.0
20	17	29	37	669	17.0	-197153.0	-3831.0	67656.0
20	17	29	37	669	18.0	-194413.0	-3831.0	66521.0
20	17	29	37	670	19.0	-191717.0	-3839.0	66856.0
20	17	29	37	671	20.0	-189132.0	-3832.0	67435.0
20	17	29	37	671	21.0	-186822.0	-3826.0	71273.0
20	17	29	37	672	22.0	-185021.0	-3819.0	73270.0
20	17	29	37	713	23.0	-183626.0	-3799.0	72128.0
20	17	29	37	714	24.0	-182625.0	-3789.0	72842.0
20	17	29	37	715	25.0	-181809.0	-3779.0	74574.0
20	17	29	37	715	26.0	-181172.0	-3769.0	72489.0
20	17	29	37	716	27.0	-180979.0	-3781.0	69559.0
20	17	29	37	717	28.0	-181262.0	-3789.0	67963.0
20	17	29	37	718	29.0	-181716.0	-3790.0	66071.0
20	17	29	37	719	30.0	-182381.0	-3780.0	65649.0
20	17	29	37	759	46.0	-204134.0	-3704.0	63250.0
20	17	29	37	759	47.0	-203397.0	-3706.0	60104.0
20	17	29	37	760	48.0	-203002.0	-3677.0	56694.0
20	17	29	37	761	49.0	-202674.0	-3671.0	54183.0
20	17	29	37	761	50.0	-202442.0	-3666.0	52723.0
20	17	29	37	762	51.0	-202547.0	-3662.0	52769.0
20	17	29	37	762	52.0	-202837.0	-3665.0	53936.0
20	17	29	37	763	53.0	-203347.0	-3666.0	55110.0
20	17	29	37	764	69.0	-205481.0	-3544.0	47756.0
20	17	29	37	764	70.0	-204173.0	-3528.0	46755.0
20	17	29	37	765	71.0	-202990.0	-3537.0	47272.0
20	17	29	37	765	72.0	-201777.0	-3525.0	48063.0
20	17	29	37	766	73.0	-200666.0	-3506.0	48505.0
20	17	29	37	767	74.0	-199565.0	-3523.0	50146.0
20	17	29	37	767	75.0	-198518.0	-3527.0	50670.0
20	17	29	37	768	91.0	-182287.0	-3494.0	35229.0
20	17	29	37	769	92.0	-182917.0	-3525.0	37731.0
20	17	29	37	769	93.0	-184506.0	-3524.0	41379.0
20	17	29	37	770	94.0	-186918.0	-3514.0	43578.0
20	17	29	37	770	95.0	-190141.0	-3523.0	45849.0
20	17	29	37	771	96.0	-194382.0	-3539.0	47353.0
20	17	29	37	803	97.0	-199422.0	-3534.0	49507.0
20	17	29	37	804	98.0	-205102.0	-3538.0	50609.0
20	17	29	37	805	99.0	-210436.0	-3549.0	52324.0
20	17	29	37	805	100.0	-215794.0	-3564.0	53494.0
20	17	29	37	806	101.0	-220562.0	-3561.0	54400.0
20	17	29	37	807	102.0	-224478.0	-3569.0	55143.0
20	17	29	37	807	103.0	-226771.0	-3548.0	56254.0
20	17	29	37	808	104.0	-227894.0	-3547.0	58046.0
20	17	29	37	809	105.0	-228339.0	-3548.0	56946.0
20	17	29	37	809	106.0	-228064.0	-3527.0	52998.0
20	17	29	37	810	107.0	-227153.0	-3521.0	50020.0
20	17	29	37	810	108.0	-225709.0	-3514.0	48148.0
20	17	29	37	811	109.0	-222712.0	-3512.0	45828.0
20	17	29	37	812	110.0	-218142.0	-3516.0	44114.0
20	17	29	37	812	111.0	-212169.0	-3517.0	43642.0
20	17	29	37	813	113.0	-201648.0	-3516.0	41559.0
20	17	29	37	814	114.0	-201577.0	-3514.0	41291.0
20	17	29	37	814	115.0	-204426.0	-3503.0	40089.0
20	17	29	37	848	116.0	-207902.0	-3496.0	37515.0
20	17	29	37	893	117.0	-209829.0	-3492.0	34986.0
20	17	29	37	917	118.0	-209656.0	-3490.0	32451.0
20	17	29	37	918	119.0	-207112.0	-3476.0	29287.0
20	17	29	37	919	120.0	-203154.0	-3457.0	27195.0
20	17	29	37	919	121.0	-198666.0	-3448.0	27072.0
20	17	29	37	920	122.0	-195251.0	-3465.0	26866.0
20	17	29	37	920	123.0	-192801.0	-3465.0	27601.0
20	17	29	37	921	124.0	-192827.0	-3440.0	29055.0
20	17	29	37	941	125.0	-194839.0	-3418.0	30285.0
20	17	29	37	942	126.0	-198476.0	-3406.0	29007.0
20	17	29	37	942	127.0	-202936.0	-3413.0	26635.0
20	17	29	37	943	128.0	-208001.0	-3411.0	24638.0
20	17	29	37	944	129.0	-212625.0	-3401.0	23035.0
20	17	29	37	944	130.0	-216249.0	-3399.0	23629.0
20	17	29	37	945	131.0	-219536.0	-3381.0	25507.0
20	17	29	38	29	136.0	-225321.0	-3392.0	30295.0
20	17	29	38	30	158.0	-179062.0	-3219.0	25511.0
20	17	29	38	31	159.0	-183614.0	-3211.0	23172.0
20	17	29	38	31	160.0	-188549.0	-3177.0	21474.0
20	17	29	38	32	161.0	-194027.0	-3179.0	21407.0
20	17	29	38	33	162.0	-199567.0	-3162.0	20472.0
20	17	29	38	33	163.0	-205051.0	-3170.0	20537.0
20	17	29	38	34	164.0	-209857.0	-3151.0	22164.0
20	17	29	38	74	181.0	-187096.0	-3029.0	17638.0
20	17	29	38	75	182.0	-185577.0	-3037.0	17824.0
20	17	29	38	76	183.0	-184306.0	-3034.0	18589.0
20	17	29	38	76	184.0	-183546.0	-3026.0	19005.0
20	17	29	38	77	185.0	-182785.0	-3024.0	17094.0
20	17	29	38	78	186.0	-181898.0	-3005.0	15709.0
20	17	29	38	78	187.0	-181078.0	-2992.0	13529.0
20	17	29	38	79	188.0	-180621.0	-2988.0	11741.0
20	17	29	38	80	226.0	-210096.0	-3127.0	3308.0
20	17	29	38	81	227.0	-208281.0	-3129.0	3008.0
20	17	29	38	82	228.0	-206211.0	-3138.0	2397.0
20	17	29	38	83	229.0	-204216.0	-3144.0	2217.0
20	17	29	38	84	230.0	-201986.0	-3161.0	4244.0
20	17	29	38	84	231.0	-199796.0	-3180.0	4653.0
20	17	29	38	85	232.0	-197587.0	-3174.0	4721.0
20	17	29	38	86	248.0	-184637.0	-3289.0	5779.0
20	17	29	38	86	249.0	-184032.0	-3311.0	6131.0
20	17	29	38	87	250.0	-183987.0	-3309.0	7893.0
20	17	29	38	88	251.0	-184661.0	-3302.0	8579.0
20	17	29	38	88	252.0	-186149.0	-3308.0	9686.0
20	17	29	38	89	253.0	-188534.0	-3337.0	10390.0
20	17	29	38	119	254.0	-192206.0	-3331.0	9898.0
20	17	29	38	120	255.0	-196809.0	-3344.0	7762.0
20	17	29	38	121	0.0	-201974.0	-3344.0	5563.0
20	17	29	38	122	1.0	-208445.0	-3347.0	5393.0
20	17	29	38	122	2.0	-216322.0	-3342.0	5536.0
20	17	29	38	123	3.0	-226260.0	-3321.0	6771.0
20	17	29	38	124	4.0	-235369.0	-3325.0	7033.0
20	17	29	38	164	5.0	-233255.0	-3341.0	7375.0
20	17	29	38	165	6.0	-227344.0	-3331.0	7623.0
20	17	29	38	166	7.0	-223372.0	-3314.0	8873.0
20	17	29	38	166	8.0	-221508.0	-3304.0	9336.0
20	17	29	38	167	9.0	-223399.0	-3297.0	7916.0
20	17	29	38	168	10.0	-223337.0	-3301.0	4918.0
20	17	29	38	168	11.0	-222662.0	-3306.0	3188.0
20	17	29	38	169	12.0	-224026.0	-3290.0	1934.0
20	17	29	38	255	15.0	-219598.0	-3296.0	3641.0
20	17	29	38	256	16.0	-216591.0	-3293.0	3168.0
20	17	29	38	256	17.0	-213012.0	-3307.0	3502.0
20	17	29	38	257	18.0	-208492.0	-3292.0	4521.0
20	17	29	38	258	19.0	-203532.0	-3289.0	3380.0
20	17	29	38	258	20.0	-199149.0	-3320.0	854.0
20	17	29	38	259	21.0	-195611.0	-3320.0	750.0
20	17	29	38	260	22.0	-193043.0	-3327.0	1588.0
20	17	29	38	261	37.0	-197266.0	-3237.0	3326.0
20	17	29	38	261	38.0	-196003.0	-3247.0	3280.0
20	17	29	38	262	39.0	-194397.0	-3222.0	1021.0
20	17	29	38	262	40.0	-192586.0	-3215.0	-733.0
20	17	29	38	263	41.0	-190563.0	-3186.0	-1272.0
20	17	29	38	264	42.0	-188521.0	-3165.0	-982.0
20	17	29	38	264	43.0	-186496.0	-3157.0	-1263.0
20	17	29	38	265	59.0	-210767.0	-3084.0	1693.0
20	17	29	38	266	82.0	-207345.0	-2966.0	-13126.0
20	17	29	38	266	83.0	-205959.0	-2977.0	-13557.0
20	17	29	38	267	84.0	-204476.0	-2979.0	-13636.0
20	17	29	38	267	85.0	-203011.0	-2965.0	-13909.0
20	17	29	38	268	86.0	-201715.0	-2979.0	-11842.0
20	17	29	38	269	87.0	-200363.0	-2979.0	-9544.0
20	17	29	38	269	88.0	-199317.0	-2982.0	-10300.0
20	17	29	38	299	89.0	-198535.0	-2986.0	-12280.0
20	17	29	38	300	90.0	-197892.0	-2983.0	-13962.0
20	17	29	38	301	91.0	-197364.0	-2984.0	-15229.0
20	17	29	38	301	92.0	-196872.0	-2998.0	-14577.0
20	17	29	38	302	93.0	-196579.0	-2991.0	-12886.0
20	17	29	38	303	94.0	-196546.0	-2969.0	-12367.0
20	17	29	38	304	95.0	-196521.0	-2972.0	-13089.0
20	17	29	38	304	96.0	-196696.0	-2976.0	-11412.0
20	17	29	38	305	97.0	-197001.0	-2972.0	-8328.0
20	17	29	38	306	98.0	-197035.0	-2990.0	-7836.0
20	17	29	38	306	99.0	-196897.0	-2984.0	-9710.0
20	17	29	38	307	100.0	-196871.0	-2981.0	-11936.0
20	17	29	38	308	101.0	-196809.0	-2979.0	-13124.0
20	17	29	38	308	102.0	-196754.0	-2976.0	-13372.0
20	17	29	38	344	103.0	-196902.0	-2976.0	-12398.0
20	17	29	38	345	104.0	-197301.0	-2947.0	-12208.0
20	17	29	38	346	105.0	-198025.0	-2951.0	-12137.0
20	17	29	38	347	106.0	-199052.0	-2941.0	-12947.0
20	17	29	38	347	107.0	-200356.0	-2938.0	-11620.0
20	17	29	38	348	108.0	-201810.0	-2916.0	-11516.0
20	17	29	38	349	109.0	-203124.0	-2929.0	-13030.0
20	17	29	38	349	110.0	-204369.0	-2934.0	-15007.0
20	17	29	38	389	111.0	-205357.0	-2937.0	-15188.0
20	17	29	38	390	112.0	-206007.0	-2936.0	-14239.0
20	17	29	38	391	113.0	-206298.0	-2926.0	-12219.0
20	17	29	38	391	114.0	-206312.0	-2923.0	-10961.0
20	17	29	38	392	115.0	-205866.0	-2917.0	-10764.0
20	17	29	38	393	116.0	-204963.0	-2939.0	-10292.0
20	17	29	38	393	117.0	-203831.0	-2929.0	-9562.0
20	17	29	38	394	118.0	-202531.0	-2931.0	-10964.0
20	17	29	38	434	127.0	-189981.0	-2902.0	-6127.0
20	17	29	38	435	128.0	-189941.0	-2885.0	-7447.0
20	17	29	38	436	129.0	-190194.0	-2883.0	-10018.0
20	17	29	38	436	130.0	-190465.0	-2902.0	-10437.0
20	17	29	38	437	131.0	-190591.0	-2901.0	-12612.0
20	17	29	38	438	132.0	-190371.0	-2892.0	-13621.0
20	17	29	38	438	133.0	-189541.0	-2906.0	-12052.0
20	17	29	38	439	149.0	-196494.0	-2977.0	-8744.0
20	17	29	38	479	150.0	-198681.0	-2989.0	-11479.0
20	17	29	38	480	151.0	-200609.0	-2992.0	-13096.0
20	17	29	38	481	152.0	-202669.0	-2987.0	-12447.0
20	17	29	38	482	153.0	-204979.0	-2969.0	-11544.0
20	17	29	38	483	154.0	-207473.0	-2956.0	-11586.0
20	17	29	38	484	155.0	-209937.0	-2950.0	-12852.0
20	17	29	38	484	156.0	-212607.0	-2930.0	-13114.0
20	17	29	38	485	172.0	-222257.0	-2931.0	-27386.0
20	17	29	38	486	173.0	-220850.0	-2924.0	-28812.0
20	17	29	38	486	174.0	-219223.0	-2933.0	-29934.0
20	17	29	38	489	175.0	-217034.0	-2931.0	-30057.0
20	17	29	38	490	176.0	-214351.0	-2909.0	-29382.0
20	17	29	38	491	177.0	-212136.0	-2898.0	-28139.0
20	17	29	38	491	178.0	-209984.0	-2888.0	-28309.0
20	17	29	38	492	179.0	-208046.0	-2885.0	-29311.0
20	17	29	38	493	194.0	-197781.0	-2811.0	-17417.0
20	17	29	38	493	195.0	-194742.0	-2813.0	-17761.0
20	17	29	38	494	196.0	-190553.0	-2790.0	-17961.0
20	17	29	38	495	197.0	-185321.0	-2803.0	-18076.0
20	17	29	38	495	198.0	-180936.0	-2789.0	-20111.0
20	17	29	38	496	199.0	-179315.0	-2791.0	-21671.0
20	17	29	38	496	200.0	-180961.0	-2781.0	-24166.0
20	17	29	38	525	201.0	-184930.0	-2775.0	-25210.0
20	17	29	38	526	202.0	-188874.0	-2775.0	-23412.0
20	17	29	38	527	203.0	-190910.0	-2767.0	-21092.0
20	17	29	38	528	204.0	-190416.0	-2752.0	-21427.0
20	17	29	38	528	205.0	-188750.0	-2744.0	-22896.0
20	17	29	38	529	206.0	-186951.0	-2750.0	-21911.0
20	17	29	38	530	207.0	-184095.0	-2755.0	-20516.0
20	17	29	38	530	208.0	-180894.0	-2757.0	-22343.0
20	17	29	38	531	209.0	-179979.0	-2754.0	-24806.0
20	17	29	38	569	210.0	-181749.0	-2754.0	-26770.0
20	17	29	38	570	211.0	-185743.0	-2753.0	-27053.0
20	17	29	38	571	212.0	-191419.0	-2732.0	-27084.0
20	17	29	38	572	213.0	-197725.0	-2732.0	-26141.0
20	17	29	38	572	214.0	-203837.0	-2727.0	-26176.0
20	17	29	38	573	215.0	-210801.0	-2722.0	-26731.0
20	17	29	38	574	217.0	-226005.0	-2719.0	-24814.0
20	17	29	38	613	218.0	-234066.0	-2707.0	-26648.0
20	17	29	38	614	219.0	-242012.0	-2718.0	-30261.0
20	17	29	38	658	220.0	-248249.0	-2701.0	-32769.0
20	17	29	38	659	221.0	-252001.0	-2694.0	-32971.0
20	17	29	38	659	222.0	-253333.0	-2698.0	-32314.0
20	17	29	38	660	223.0	-252779.0	-2688.0	-32693.0
20	17	29	38	661	224.0	-249287.0	-2699.0	-33638.0
20	17	29	38	661	225.0	-244908.0	-2689.0	-34913.0
20	17	29	38	662	239.0	-161846.0	-2642.0	-42045.0
20	17	29	38	662	240.0	-158687.0	-2641.0	-43441.0
20	17	29	38	703	241.0	-156206.0	-2640.0	-44142.0
20	17	29	38	704	242.0	-155415.0	-2638.0	-43251.0
20	17	29	38	704	243.0	-154974.0	-2622.0	-41743.0
20	17	29	38	705	244.0	-156149.0	-2617.0	-40273.0
20	17	29	38	706	245.0	-157612.0	-2611.0	-40032.0
20	17	29	38	706	246.0	-158491.0	-2616.0	-38987.0
20	17	29	38	707	6.0	-187419.0	-2365.0	-44467.0
20	17	29	38	707	7.0	-189042.0	-2361.0	-43096.0
20	17	29	38	749	29.0	-197547.0	-2214.0	-53577.0
20	17	29	38	750	30.0	-196074.0	-2226.0	-52888.0
20	17	29	38	750	31.0	-194376.0	-2228.0	-53690.0
20	17	29	38	751	32.0	-192982.0	-2224.0	-54237.0
20	17	29	38	752	33.0	-191406.0	-2218.0	-53779.0
20	17	29	38	752	34.0	-190012.0	-2218.0	-53696.0
20	17	29	38	753	35.0	-189540.0	-2227.0	-54946.0
20	17	29	38	794	51.0	-213427.0	-2351.0	-57132.0
20	17	29	38	795	52.0	-213852.0	-2375.0	-59264.0
20	17	29	38	796	53.0	-214093.0	-2379.0	-62257.0
20	17	29	38	796	54.0	-213482.0	-2391.0	-64583.0
20	17	29	38	797	55.0	-213394.0	-2414.0	-66084.0
20	17	29	38	798	56.0	-213128.0	-2437.0	-65813.0
20	17	29	38	799	57.0	-212498.0	-2468.0	-65920.0
20	17	29	38	799	58.0	-212035.0	-2484.0	-65962.0
20	17	29	38	800	73.0	-183947.0	-2684.0	-67821.0
20	17	29	38	801	74.0	-181877.0	-2719.0	-68999.0
20	17	29	38	802	75.0	-179862.0	-2709.0	-69205.0
20	17	29	38	802	76.0	-178024.0	-2714.0	-68306.0
20	17	29	38	803	77.0	-176781.0	-2734.0	-67528.0
20	17	29	38	804	78.0	-175654.0	-2769.0	-67176.0
20	17	29	38	805	79.0	-174877.0	-2787.0	-66791.0
20	17	29	38	806	80.0	-174651.0	-2822.0	-64757.0
20	17	29	38	806	96.0	-216581.0	-2900.0	-67975.0
20	17	29	38	807	97.0	-216925.0	-2880.0	-67747.0
20	17	29	38	808	98.0	-216127.0	-2878.0	-68427.0
20	17	29	38	809	99.0	-215317.0	-2862.0	-67795.0
20	17	29	38	840	100.0	-214456.0	-2871.0	-67377.0
20	17	29	38	882	101.0	-213203.0	-2857.0	-68897.0
20	17	29	38	883	102.0	-211322.0	-2859.0	-71016.0
20	17	29	38	884	103.0	-209737.0	-2865.0	-72643.0
20	17	29	38	884	104.0	-208878.0	-2867.0	-74319.0
20	17	29	38	885	105.0	-208332.0	-2856.0	-75013.0
20	17	29	38	885	106.0	-208150.0	-2858.0	-74446.0
20	17	29	38	886	107.0	-208885.0	-2847.0	-72875.0
20	17	29	38	887	108.0	-209154.0	-2842.0	-71128.0
20	17	29	38	929	109.0	-209266.0	-2838.0	-71272.0
20	17	29	38	930	110.0	-209460.0	-2834.0	-70915.0
20	17	29	38	930	111.0	-208670.0	-2828.0	-72174.0
20	17	29	38	931	112.0	-207619.0	-2830.0	-74197.0
20	17	29	38	932	113.0	-206213.0	-2832.0	-76492.0
20	17	29	38	932	114.0	-204637.0	-2819.0	-77035.0
20	17	29	38	933	118.0	-197739.0	-2754.0	-72768.0
20	17	29	38	973	141.0	-182236.0	-2541.0	-67599.0
20	17	29	38	974	142.0	-184730.0	-2541.0	-69304.0
20	17	29	38	975	143.0	-187317.0	-2529.0	-71023.0
20	17	29	38	976	144.0	-189900.0	-2500.0	-72362.0
20	17	29	38	976	145.0	-192954.0	-2481.0	-73145.0
20	17	29	38	977	146.0	-195704.0	-2469.0	-72062.0
20	17	29	38	978	147.0	-198443.0	-2441.0	-70441.0
20	17	29	39	18	148.0	-201233.0	-2440.0	-69540.0
20	17	29	39	19	163.0	-213572.0	-2283.0	-86711.0
20	17	29	39	20	164.0	-213274.0	-2272.0	-87994.0
20	17	29	39	20	165.0	-212954.0	-2270.0	-89221.0
20	17	29	39	21	166.0	-212899.0	-2259.0	-89493.0
20	17	29	39	21	167.0	-212485.0	-2233.0	-90706.0
20	17	29	39	22	168.0	-211604.0	-2225.0	-92222.0
20	17	29	39	23	169.0	-210779.0	-2212.0	-92046.0
20	17	29	39	23	170.0	-209652.0	-2217.0	-91431.0
20	17	29	39	24	186.0	-182392.0	-2135.0	-99668.0
20	17	29	39	25	187.0	-181246.0	-2156.0	-100609.0
20	17	29	39	25	188.0	-180358.0	-2155.0	-100909.0
20	17	29	39	26	189.0	-179776.0	-2153.0	-98576.0
20	17	29	39	27	190.0	-179734.0	-2149.0	-98321.0
20	17	29	39	27	191.0	-179883.0	-2178.0	-100885.0
20	17	29	39	28	192.0	-179867.0	-2198.0	-103996.0
20	17	29	39	29	208.0	-203058.0	-2297.0	-118883.0
20	17	29	39	29	209.0	-204283.0	-2311.0	-119026.0
20	17	29	39	30	210.0	-205844.0	-2323.0	-119881.0
20	17	29	39	31	211.0	-207791.0	-2314.0	-121950.0
20	17	29	39	31	212.0	-209918.0	-2309.0	-124283.0
20	17	29	39	32	213.0	-212009.0	-2325.0	-126883.0
20	17	29	39	33	214.0	-214076.0	-2353.0	-128954.0
20	17	29	39	64	215.0	-215721.0	-2373.0	-128716.0
20	17	29	39	65	216.0	-216971.0	-2372.0	-129051.0
20	17	29	39	65	217.0	-217651.0	-2363.0	-130426.0
20	17	29	39	66	218.0	-217732.0	-2369.0	-130974.0
20	17	29	39	66	219.0	-217296.0	-2363.0	-131050.0
20	17	29	39	67	220.0	-216357.0	-2352.0	-131733.0
20	17	29	39	68	221.0	-215007.0	-2364.0	-132347.0
20	17	29	39	109	222.0	-213339.0	-2361.0	-134594.0
20	17	29	39	110	223.0	-211382.0	-2366.0	-136062.0
20	17	29	39	110	224.0	-209219.0	-2376.0	-136600.0
20	17	29	39	111	225.0	-206998.0	-2354.0	-135843.0
20	17	29	39	112	226.0	-204697.0	-2359.0	-134636.0
20	17	29	39	112	227.0	-202539.0	-2364.0	-134344.0
20	17	29	39	113	228.0	-200514.0	-2363.0	-134351.0
20	17	29	39	114	229.0	-198744.0	-2352.0	-133977.0
20	17	29	39	114	231.0	-195780.0	-2339.0	-137604.0
20	17	29	39	115	232.0	-194637.0	-2339.0	-140675.0
20	17	29	39	115	233.0	-193685.0	-2345.0	-143374.0
20	17	29	39	116	234.0	-192842.0	-2354.0	-145611.0
20	17	29	39	117	235.0	-192091.0	-2362.0	-145149.0
20	17	29	39	117	236.0	-191299.0	-2359.0	-145225.0
20	17	29	39	118	237.0	-190662.0	-2361.0	-145987.0
20	17	29	39	118	238.0	-190177.0	-2349.0	-146785.0
20	17	29	39	119	253.0	-197664.0	-2441.0	-160616.0
20	17	29	39	119	254.0	-198613.0	-2447.0	-163541.0
20	17	29	39	121	255.0	-199584.0	-2452.0	-162941.0
20	17	29	39	121	0.0	-200642.0	-2439.0	-161430.0
20	17	29	39	122	1.0	-201757.0	-2436.0	-159979.0
20	17	29	39	123	2.0	-203036.0	-2436.0	-157765.0
20	17	29	39	124	3.0	-204573.0	-2432.0	-153803.0
20	17	29	39	154	4.0	-206561.0	-2439.0	-151730.0
20	17	29	39	155	5.0	-208807.0	-2441.0	-151491.0
20	17	29	39	156	6.0	-211027.0	-2442.0	-149732.0
20	17	29	39	156	7.0	-213166.0	-2456.0	-149498.0
20	17	29	39	157	8.0	-215124.0	-2456.0	-150195.0
20	17	29	39	158	9.0	-216513.0	-2453.0	-147011.0
20	17	29	39	158	10.0	-217092.0	-2470.0	-146477.0
20	17	29	39	159	11.0	-216599.0	-2469.0	-146415.0
20	17	29	39	159	12.0	-215106.0	-2472.0	-145416.0
20	17	29	39	160	13.0	-212817.0	-2487.0	-144007.0
20	17	29	39	161	14.0	-209686.0	-2497.0	-146737.0
20	17	29	39	161	15.0	-205983.0	-2489.0	-151442.0
20	17	29	39	162	16.0	-201731.0	-2499.0	-155528.0
20	17	29	39	162	17.0	-197072.0	-2499.0	-158234.0
20	17	29	39	163	18.0	-193016.0	-2492.0	-159659.0
20	17	29	39	164	20.0	-184844.0	-2504.0	-162069.0
20	17	29	39	164	21.0	-180395.0	-2491.0	-164102.0
20	17	29	39	165	22.0	-176534.0	-2512.0	-163709.0
20	17	29	39	165	23.0	-174402.0	-2527.0	-164170.0
20	17	29	39	166	24.0	-174584.0	-2524.0	-167073.0
20	17	29	39	166	25.0	-176569.0	-2511.0	-168804.0
20	17	29	39	215	26.0	-178627.0	-2528.0	-170947.0
20	17	29	39	229	27.0	-179599.0	-2557.0	-173296.0
20	17	29	39	230	28.0	-180053.0	-2574.0	-174302.0
20	17	29	39	230	29.0	-180374.0	-2586.0	-172584.0
20	17	29	39	231	30.0	-180301.0	-2584.0	-171782.0
20	17	29	39	232	31.0	-180364.0	-2592.0	-172078.0
20	17	29	39	233	32.0	-180422.0	-2602.0	-171684.0
20	17	29	39	233	33.0	-180828.0	-2589.0	-170957.0
20	17	29	39	234	34.0	-182716.0	-2611.0	-170725.0
20	17	29	39	234	35.0	-186399.0	-2609.0	-172063.0
20	17	29	39	235	36.0	-191094.0	-2619.0	-172878.0
20	17	29	39	236	37.0	-195904.0	-2633.0	-172843.0
20	17	29	39	236	38.0	-200667.0	-2622.0	-172761.0
20	17	29	39	237	39.0	-205231.0	-2618.0	-172271.0
20	17	29	39	238	40.0	-209266.0	-2615.0	-170492.0
20	17	29	39	238	49.0	-201567.0	-2578.0	-169966.0
20	17	29	39	239	57.0	-203482.0	-2501.0	-173811.0
20	17	29	39	239	58.0	-202596.0	-2499.0	-175830.0
20	17	29	39	240	59.0	-200760.0	-2490.0	-175152.0
20	17	29	39	241	60.0	-198533.0	-2491.0	-175092.0
20	17	29	39	258	61.0	-196560.0	-2481.0	-176514.0
20	17	29	39	259	62.0	-194977.0	-2473.0	-176652.0
20	17	29	39	260	63.0	-194127.0	-2461.0	-176856.0
20	17	29	39	261	64.0	-193948.0	-2457.0	-179986.0
20	17	29	39	261	65.0	-194337.0	-2475.0	-183361.0
20	17	29	39	262	66.0	-195210.0	-2469.0	-185833.0
20	17	29	39	262	67.0	-196733.0	-2452.0	-188088.0
20	17	29	39	263	68.0	-198224.0	-2438.0	-190426.0
20	17	29	39	273	69.0	-199584.0	-2434.0	-191187.0
20	17	29	39	274	70.0	-200396.0	-2436.0	-190714.0
20	17	29	39	274	71.0	-200646.0	-2428.0	-190109.0
20	17	29	39	275	72.0	-200367.0	-2423.0	-188823.0
20	17	29	39	275	73.0	-200085.0	-2417.0	-188100.0
20	17	29	39	276	74.0	-199384.0	-2400.0	-188377.0
20	17	29	39	277	75.0	-198294.0	-2410.0	-189559.0
20	17	29	39	296	76.0	-196825.0	-2396.0	-192260.0
20	17	29	39	297	77.0	-195171.0	-2402.0	-193460.0
20	17	29	39	297	78.0	-193246.0	-2415.0	-193336.0
20	17	29	39	298	79.0	-191249.0	-2402.0	-191686.0
20	17	29	39	298	80.0	-189431.0	-2396.0	-191702.0
20	17	29	39	299	81.0	-187530.0	-2394.0	-191891.0
20	17	29	39	300	82.0	-185631.0	-2392.0	-191828.0
20	17	29	39	319	83.0	-184140.0	-2384.0	-191951.0
20	17	29	39	320	84.0	-182843.0	-2388.0	-192481.0
20	17	29	39	321	85.0	-181852.0	-2372.0	-193831.0
20	17	29	39	321	86.0	-181135.0	-2367.0	-195664.0
20	17	29	39	322	87.0	-180663.0	-2362.0	-196820.0
20	17	29	39	322	88.0	-180384.0	-2366.0	-197121.0
20	17	29	39	323	89.0	-180571.0	-2364.0	-196238.0
20	17	29	39	343	90.0	-180904.0	-2360.0	-195300.0
20	17	29	39	344	91.0	-181512.0	-2358.0	-194809.0
20	17	29	39	344	92.0	-182043.0	-2360.0	-194049.0
20	17	29	39	345	93.0	-182506.0	-2370.0	-193962.0
20	17	29	39	346	94.0	-183286.0	-2363.0	-195488.0
20	17	29	39	346	95.0	-184213.0	-2361.0	-198281.0
20	17	29	39	347	96.0	-184944.0	-2361.0	-200426.0
20	17	29	39	348	97.0	-185434.0	-2359.0	-200066.0
20	17	29	39	348	98.0	-185832.0	-2349.0	-199198.0
20	17	29	39	349	99.0	-186337.0	-2369.0	-198344.0
20	17	29	39	349	100.0	-186943.0	-2394.0	-197254.0
20	17	29	39	350	101.0	-187411.0	-2384.0	-195357.0
20	17	29	39	351	102.0	-187714.0	-2375.0	-192751.0
20	17	29	39	351	103.0	-187999.0	-2387.0	-192304.0
20	17	29	39	352	104.0	-188207.0	-2398.0	-194022.0
20	17	29	39	365	105.0	-188475.0	-2399.0	-195031.0
20	17	29	39	366	110.0	-190690.0	-2431.0	-193676.0
20	17	29	39	367	111.0	-190455.0	-2434.0	-192893.0
20	17	29	39	367	112.0	-190156.0	-2442.0	-191202.0
20	17	29	39	388	113.0	-189802.0	-2449.0	-191356.0
20	17	29	39	389	114.0	-189592.0	-2467.0	-192361.0
20	17	29	39	390	115.0	-189847.0	-2458.0	-192958.0
20	17	29	39	390	116.0	-191073.0	-2459.0	-193518.0
20	17	29	39	391	117.0	-192851.0	-2467.0	-192414.0
20	17	29	39	392	118.0	-195261.0	-2496.0	-192575.0
20	17	29	39	392	119.0	-197786.0	-2505.0	-193786.0
20	17	29	39	393	120.0	-200468.0	-2509.0	-193452.0
20	17	29	39	394	121.0	-203676.0	-2510.0	-193321.0
20	17	29	39	394	122.0	-206987.0	-2512.0	-191644.0
20	17	29	39	395	123.0	-210136.0	-2528.0	-190955.0
20	17	29	39	395	124.0	-213234.0	-2537.0	-191915.0
20	17	29	39	396	125.0	-215852.0	-2548.0	-193258.0
20	17	29	39	396	126.0	-217949.0	-2564.0	-194130.0
20	17	29	39	397	127.0	-219347.0	-2563.0	-193148.0
20	17	29	39	411	132.0	-221582.0	-2606.0	-189776.0
20	17	29	39	411	133.0	-221015.0	-2619.0	-190892.0
20	17	29	39	412	134.0	-220178.0	-2633.0	-192723.0
20	17	29	39	413	135.0	-219064.0	-2655.0	-194837.0
20	17	29	39	413	136.0	-217671.0	-2667.0	-195260.0
20	17	29	39	414	137.0	-216098.0	-2681.0	-195215.0
20	17	29	39	434	138.0	-214522.0	-2705.0	-194746.0
20	17	29	39	434	139.0	-213212.0	-2728.0	-195741.0
20	17	29	39	435	140.0	-212043.0	-2766.0	-196510.0
20	17	29	39	436	141.0	-210582.0	-2771.0	-197268.0
20	17	29	39	436	142.0	-209152.0	-2787.0	-196882.0
20	17	29	39	437	143.0	-207626.0	-2804.0	-197287.0
20	17	29	39	438	144.0	-206049.0	-2817.0	-199900.0
20	17	29	39	438	145.0	-204561.0	-2835.0	-202397.0
20	17	29	39	439	146.0	-203042.0	-2860.0	-201987.0
20	17	29	39	439	147.0	-201634.0	-2863.0	-202172.0
20	17	29	39	440	148.0	-200048.0	-2872.0	-202009.0
20	17	29	39	456	149.0	-198389.0	-2887.0	-200372.0
20	17	29	39	457	150.0	-196672.0	-2922.0	-200068.0
20	17	29	39	458	151.0	-194776.0	-2928.0	-198797.0
20	17	29	39	458	152.0	-192577.0	-2932.0	-196764.0
20	17	29	39	459	153.0	-190021.0	-2958.0	-196888.0
20	17	29	39	460	155.0	-184148.0	-3002.0	-200333.0
20	17	29	39	460	156.0	-181307.0	-3032.0	-200604.0
20	17	29	39	480	157.0	-179002.0	-3038.0	-201496.0
20	17	29	39	480	158.0	-177374.0	-3040.0	-201691.0
20	17	29	39	481	159.0	-176637.0	-3071.0	-199417.0
20	17	29	39	482	160.0	-177057.0	-3093.0	-198079.0
20	17	29	39	482	161.0	-178714.0	-3103.0	-197696.0
20	17	29	39	483	162.0	-181564.0	-3124.0	-197946.0
20	17	29	39	484	163.0	-185625.0	-3152.0	-198910.0
20	17	29	39	485	164.0	-191324.0	-3176.0	-199323.0
20	17	29	39	485	165.0	-198932.0	-3176.0	-199755.0
20	17	29	39	486	170.0	-216120.0	-3255.0	-196469.0
20	17	29	39	486	171.0	-215142.0	-3265.0	-195388.0
20	17	29	39	487	172.0	-216349.0	-3267.0	-192781.0
20	17	29	39	488	173.0	-216278.0	-3272.0	-191426.0
20	17	29	39	488	174.0	-216933.0	-3305.0	-192084.0
20	17	29	39	489	175.0	-219158.0	-3311.0	-194106.0
20	17	29	39	490	176.0	-220077.0	-3312.0	-194477.0
20	17	29	39	490	177.0	-219703.0	-3306.0	-193732.0
20	17	29	39	491	178.0	-219038.0	-3332.0	-193522.0
20	17	29	39	492	179.0	-217166.0	-3345.0	-193447.0
20	17	29	39	492	180.0	-214485.0	-3352.0	-193310.0
20	17	29	39	493	181.0	-211470.0	-3365.0	-194009.0
20	17	29	39	493	182.0	-208449.0	-3369.0	-194176.0
20	17	29	39	494	183.0	-206714.0	-3375.0	-194446.0
20	17	29	39	495	185.0	-206101.0	-3366.0	-196445.0
20	17	29	39	496	186.0	-206247.0	-3388.0	-198369.0
20	17	29	39	496	187.0	-206361.0	-3377.0	-198590.0
20	17	29	39	504	188.0	-206469.0	-3365.0	-198302.0
20	17	29	39	504	189.0	-206470.0	-3367.0	-197749.0
20	17	29	39	505	190.0	-206037.0	-3371.0	-198153.0
20	17	29	39	506	191.0	-205141.0	-3390.0	-198517.0
20	17	29	39	506	192.0	-204094.0	-3396.0	-197697.0
20	17	29	39	527	193.0	-203421.0	-3400.0	-197578.0
20	17	29	39	528	194.0	-203128.0	-3394.0	-198819.0
20	17	29	39	529	195.0	-202849.0	-3392.0	-199813.0
20	17	29	39	529	196.0	-202378.0	-3381.0	-200476.0
20	17	29	39	530	197.0	-201975.0	-3367.0	-201018.0
20	17	29	39	531	198.0	-201417.0	-3370.0	-200087.0
20	17	29	39	531	199.0	-200568.0	-3344.0	-199329.0
20	17	29	39	532	200.0	-199406.0	-3338.0	-199584.0
20	17	29	39	533	201.0	-198285.0	-3334.0	-197239.0
20	17	29	39	533	202.0	-197137.0	-3311.0	-193873.0
20	17	29	39	534	203.0	-196147.0	-3301.0	-193999.0
20	17	29	39	534	204.0	-195349.0	-3302.0	-195258.0
20	17	29	39	535	205.0	-194892.0	-3306.0	-196316.0
20	17	29	39	536	206.0	-194888.0	-3296.0	-195826.0
20	17	29	39	536	207.0	-195157.0	-3276.0	-195634.0
20	17	29	39	558	208.0	-195725.0	-3268.0	-194428.0
20	17	29	39	559	209.0	-196482.0	-3269.0	-193326.0
20	17	29	39	560	210.0	-197004.0	-3255.0	-192784.0
20	17	29	39	560	211.0	-197286.0	-3249.0	-191983.0
20	17	29	39	561	212.0	-197647.0	-3249.0	-190730.0
20	17	29	39	562	213.0	-198165.0	-3243.0	-192530.0
20	17	29	39	562	214.0	-198757.0	-3214.0	-195031.0
20	17	29	39	572	215.0	-198872.0	-3206.0	-197521.0
20	17	29	39	573	216.0	-198498.0	-3209.0	-198952.0
20	17	29	39	574	217.0	-198257.0	-3213.0	-199416.0
20	17	29	39	574	218.0	-198134.0	-3213.0	-199160.0
20	17	29	39	575	219.0	-197582.0	-3212.0	-199337.0
20	17	29	39	576	220.0	-196951.0	-3215.0	-198369.0
20	17	29	39	576	221.0	-195824.0	-3218.0	-196519.0
20	17	29	39	595	222.0	-194185.0	-3206.0	-195399.0
20	17	29	39	595	223.0	-193671.0	-3204.0	-196359.0
20	17	29	39	596	224.0	-194317.0	-3202.0	-197766.0
20	17	29	39	597	225.0	-195299.0	-3187.0	-199951.0
20	17	29	39	597	226.0	-196117.0	-3179.0	-202053.0
20	17	29	39	598	227.0	-196649.0	-3188.0	-201587.0
20	17	29	39	599	228.0	-197045.0	-3194.0	-200184.0
20	17	29	39	618	229.0	-197154.0	-3186.0	-199431.0
20	17	29	39	619	230.0	-197210.0	-3157.0	-198434.0
20	17	29	39	619	231.0	-197256.0	-3153.0	-196047.0
20	17	29	39	620	232.0	-197339.0	-3159.0	-193802.0
20	17	29	39	621	233.0	-197529.0	-3153.0	-194301.0
20	17	29	39	621	234.0	-197590.0	-3147.0	-196305.0
20	17	29	39	622	235.0	-197374.0	-3153.0	-197962.0
20	17	29	39	623	236.0	-197374.0	-3138.0	-198894.0
20	17	29	39	623	237.0	-197487.0	-3153.0	-198274.0
20	17	29	39	624	238.0	-197749.0	-3147.0	-197029.0
20	17	29	39	625	239.0	-198061.0	-3136.0	-196562.0
20	17	29	39	625	240.0	-198637.0	-3124.0	-195930.0
20	17	29	39	626	241.0	-199185.0	-3119.0	-193789.0
20	17	29	39	626	242.0	-199703.0	-3125.0	-193032.0
20	17	29	39	641	243.0	-200291.0	-3130.0	-195969.0
20	17	29	39	642	244.0	-200915.0	-3133.0	-198307.0
20	17	29	39	642	245.0	-201376.0	-3161.0	-198672.0
20	17	29	39	643	246.0	-201632.0	-3161.0	-198087.0
20	17	29	39	644	247.0	-201569.0	-3150.0	-195496.0
20	17	29	39	644	248.0	-201197.0	-3169.0	-193091.0
20	17	29	39	645	249.0	-200574.0	-3171.0	-190129.0
20	17	29	39	664	250.0	-199729.0	-3156.0	-188844.0
20	17	29	39	664	251.0	-199055.0	-3169.0	-187807.0
20	17	29	39	665	252.0	-198679.0	-3169.0	-185697.0
20	17	29	39	666	253.0	-198446.0	-3171.0	-187377.0
20	17	29	39	667	254.0	-198289.0	-3174.0	-189637.0
20	17	29	39	667	255.0	-198470.0	-3176.0	-190204.0
20	17	29	39	668	0.0	-198794.0	-3173.0	-190409.0
20	17	29	39	669	1.0	-199149.0	-3152.0	-190545.0
20	17	29	39	669	2.0	-199754.0	-3157.0	-189662.0
20	17	29	39	670	4.0	-200701.0	-3171.0	-188674.0
20	17	29	39	670	5.0	-200868.0	-3172.0	-187481.0
20	17	29	39	671	6.0	-200666.0	-3181.0	-187449.0
20	17	29	39	672	7.0	-200166.0	-3180.0	-189059.0
20	17	29	39	672	8.0	-199281.0	-3193.0	-190210.0
20	17	29	39	686	9.0	-198036.0	-3191.0	-192065.0
20	17	29	39	687	10.0	-196591.0	-3182.0	-190986.0
20	17	29	39	688	11.0	-194897.0	-3192.0	-189401.0
20	17	29	39	689	12.0	-193097.0	-3190.0	-188221.0
20	17	29	39	689	13.0	-191480.0	-3181.0	-188383.0
20	17	29	39	690	14.0	-190015.0	-3181.0	-187230.0
20	17	29	39	690	15.0	-188488.0	-3182.0	-185332.0
20	17	29	39	709	16.0	-186991.0	-3190.0	-184761.0
20	17	29	39	710	17.0	-185667.0	-3201.0	-185734.0
20	17	29	39	711	19.0	-183062.0	-3198.0	-185432.0
20	17	29	39	712	20.0	-182091.0	-3214.0	-183931.0
20	17	29	39	713	21.0	-181405.0	-3212.0	-182590.0
20	17	29	39	713	22.0	-180946.0	-3206.0	-182936.0
20	17	29	39	714	23.0	-180994.0	-3197.0	-183378.0
20	17	29	39	714	24.0	-181301.0	-3189.0	-182170.0
20	17	29	39	715	25.0	-181852.0	-3204.0	-181096.0
20	17	29	39	716	26.0	-182852.0	-3234.0	-181809.0
20	17	29	39	716	27.0	-184392.0	-3240.0	-183616.0
20	17	29	39	717	28.0	-186394.0	-3214.0	-186579.0
20	17	29	39	718	29.0	-188791.0	-3214.0	-188612.0
20	17	29	39	718	30.0	-191664.0	-3227.0	-188781.0
20	17	29	39	719	31.0	-194786.0	-3236.0	-187675.0
20	17	29	39	720	32.0	-198136.0	-3231.0	-187220.0
20	17	29	39	720	34.0	-205272.0	-3219.0	-188188.0
20	17	29	39	721	35.0	-209267.0	-3219.0	-186621.0
20	17	29	39	721	36.0	-213354.0	-3207.0	-184327.0
20	17	29	39	722	37.0	-217657.0	-3186.0	-186024.0
20	17	29	39	723	38.0	-221537.0	-3179.0	-187200.0
20	17	29	39	723	39.0	-225414.0	-3189.0	-187531.0
20	17	29	39	724	40.0	-228255.0	-3195.0	-187977.0
20	17	29	39	725	41.0	-230966.0	-3210.0	-187627.0
20	17	29	39	726	42.0	-232689.0	-3214.0	-187265.0
20	17	29	39	726	43.0	-233645.0	-3187.0	-186311.0
20	17	29	39	727	44.0	-233663.0	-3181.0	-186101.0
20	17	29	39	728	45.0	-232910.0	-3184.0	-185095.0
20	17	29	39	728	46.0	-231171.0	-3176.0	-185041.0
20	17	29	39	729	47.0	-228597.0	-3162.0	-186149.0
20	17	29	39	730	48.0	-225515.0	-3159.0	-188194.0
20	17	29	39	730	49.0	-222004.0	-3182.0	-190324.0
20	17	29	39	738	50.0	-218448.0	-3186.0	-191921.0
20	17	29	39	739	51.0	-214735.0	-3167.0	-190436.0
20	17	29	39	740	52.0	-211042.0	-3169.0	-187028.0
20	17	29	39	741	53.0	-207363.0	-3169.0	-184903.0
20	17	29	39	742	54.0	-203875.0	-3151.0	-183934.0
20	17	29	39	742	55.0	-200682.0	-3162.0	-181889.0
20	17	29	39	743	56.0	-197658.0	-3157.0	-182576.0
20	17	29	39	744	57.0	-194787.0	-3154.0	-183733.0
20	17	29	39	762	58.0	-192307.0	-3124.0	-184257.0
20	17	29	39	762	59.0	-190267.0	-3110.0	-184694.0
20	17	29	39	763	60.0	-188454.0	-3096.0	-184434.0
20	17	29	39	764	61.0	-186899.0	-3083.0	-184037.0
20	17	29	39	765	62.0	-185816.0	-3076.0	-183460.0
20	17	29	39	765	63.0	-185412.0	-3077.0	-181680.0
20	17	29	39	766	64.0	-185727.0	-3059.0	-180257.0
20	17	29	39	785	65.0	-186296.0	-3045.0	-179158.0
20	17	29	39	786	66.0	-187111.0	-3029.0	-178642.0
20	17	29	39	787	67.0	-188442.0	-3035.0	-180180.0
20	17	29	39	788	68.0	-189509.0	-3058.0	-182893.0
20	17	29	39	788	69.0	-190170.0	-3046.0	-185726.0
20	17	29	39	789	70.0	-190683.0	-3031.0	-188277.0
20	17	29	39	790	71.0	-191211.0	-3029.0	-188399.0
20	17	29	39	791	72.0	-191874.0	-3025.0	-186853.0
20	17	29	39	791	73.0	-192636.0	-2997.0	-185799.0
20	17	29	39	792	74.0	-193679.0	-3004.0	-185995.0
20	17	29	39	793	75.0	-195211.0	-2984.0	-187009.0
20	17	29	39	793	76.0	-197046.0	-2978.0	-188154.0
20	17	29	39	794	77.0	-199103.0	-2977.0	-189240.0
20	17	29	39	795	78.0	-201238.0	-2959.0	-189763.0
20	17	29	39	795	79.0	-203554.0	-2967.0	-188367.0
20	17	29	39	796	80.0	-206083.0	-2959.0	-186304.0
20	17	29	39	797	81.0	-208956.0	-2973.0	-185045.0
20	17	29	39	797	82.0	-212807.0	-2962.0	-183432.0
20	17	29	39	798	83.0	-217482.0	-2956.0	-181522.0
20	17	29	39	798	84.0	-222207.0	-2951.0	-178506.0
20	17	29	39	799	85.0	-226945.0	-2941.0	-174907.0
20	17	29	39	813	86.0	-230886.0	-2958.0	-172682.0
20	17	29	39	814	87.0	-233998.0	-2941.0	-169615.0
20	17	29	39	815	88.0	-236136.0	-2949.0	-169446.0
20	17	29	39	815	89.0	-236922.0	-2980.0	-171375.0
20	17	29	39	816	90.0	-235959.0	-2985.0	-171042.0
20	17	29	39	817	91.0	-233765.0	-2981.0	-169069.0
20	17	29	39	818	92.0	-230252.0	-2976.0	-169346.0
20	17	29	39	818	93.0	-224832.0	-2974.0	-169619.0
20	17	29	39	819	94.0	-218794.0	-2985.0	-170723.0
20	17	29	39	820	95.0	-212311.0	-2987.0	-171750.0
20	17	29	39	835	96.0	-205662.0	-2996.0	-172457.0
20	17	29	39	836	97.0	-198830.0	-2982.0	-173901.0
20	17	29	39	837	98.0	-191904.0	-2982.0	-176113.0
20	17	29	39	837	99.0	-184561.0	-2982.0	-176235.0
20	17	29	39	838	100.0	-178668.0	-2978.0	-174087.0
20	17	29	39	839	101.0	-175907.0	-2973.0	-173597.0
20	17	29	39	858	102.0	-175308.0	-2977.0	-174880.0
20	17	29	39	859	103.0	-175213.0	-2981.0	-176904.0
20	17	29	39	860	104.0	-175018.0	-2995.0	-176306.0
20	17	29	39	860	105.0	-175289.0	-3025.0	-174873.0
20	17	29	39	861	106.0	-175112.0	-3031.0	-175154.0
20	17	29	39	862	107.0	-174202.0	-3034.0	-177656.0
20	17	29	39	862	108.0	-173234.0	-3048.0	-179484.0
20	17	29	39	863	109.0	-172712.0	-3065.0	-179729.0
20	17	29	39	864	110.0	-172969.0	-3065.0	-180079.0
20	17	29	39	864	111.0	-174891.0	-3052.0	-179210.0
20	17	29	39	865	112.0	-179077.0	-3054.0	-177261.0
20	17	29	39	865	113.0	-185384.0	-3083.0	-176677.0
20	17	29	39	866	114.0	-192539.0	-3092.0	-175634.0
20	17	29	39	867	115.0	-200296.0	-3097.0	-174436.0
20	17	29	39	867	116.0	-207739.0	-3094.0	-174367.0
20	17	29	39	883	117.0	-214511.0	-3101.0	-174262.0
20	17	29	39	893	118.0	-220503.0	-3117.0	-175641.0
20	17	29	39	896	119.0	-226067.0	-3111.0	-176924.0
20	17	29	39	897	120.0	-230614.0	-3118.0	-176509.0
20	17	29	39	898	121.0	-233437.0	-3106.0	-176467.0
20	17	29	39	898	122.0	-234445.0	-3111.0	-175322.0
20	17	29	39	899	123.0	-233405.0	-3104.0	-173801.0
20	17	29	39	899	124.0	-230650.0	-3116.0	-172639.0
20	17	29	39	900	125.0	-227049.0	-3119.0	-171887.0
20	17	29	39	901	126.0	-223429.0	-3119.0	-172474.0
20	17	29	39	901	127.0	-220151.0	-3125.0	-173682.0
20	17	29	39	902	128.0	-217333.0	-3128.0	-175567.0
20	17	29	39	902	129.0	-215456.0	-3122.0	-177214.0
20	17	29	39	903	130.0	-214329.0	-3115.0	-178351.0
20	17	29	39	903	131.0	-213471.0	-3119.0	-177697.0
20	17	29	39	904	132.0	-212207.0	-3127.0	-176304.0
20	17	29	39	905	133.0	-210552.0	-3117.0	-175201.0
20	17	29	39	905	134.0	-208476.0	-3102.0	-174948.0
20	17	29	39	906	135.0	-205604.0	-3120.0	-174513.0
20	17	29	39	906	136.0	-202535.0	-3126.0	-176113.0
20	17	29	39	907	137.0	-199222.0	-3100.0	-177353.0
20	17	29	39	917	138.0	-195718.0	-3088.0	-178776.0
20	17	29	39	918	139.0	-192655.0	-3094.0	-180385.0
20	17	29	39	919	140.0	-189991.0	-3074.0	-180736.0
20	17	29	39	919	141.0	-187936.0	-3074.0	-181242.0
20	17	29	39	939	142.0	-186420.0	-3054.0	-181111.0
20	17	29	39	940	143.0	-185488.0	-3062.0	-180286.0
20	17	29	39	941	144.0	-185384.0	-3045.0	-179361.0
20	17	29	39	941	145.0	-185851.0	-3046.0	-179236.0
20	17	29	39	942	146.0	-186831.0	-3027.0	-179801.0
20	17	29	39	942	147.0	-187984.0	-3017.0	-180714.0
20	17	29	39	943	148.0	-188889.0	-2997.0	-181011.0
20	17	29	39	963	149.0	-189792.0	-3003.0	-180870.0
20	17	29	39	964	150.0	-190729.0	-3018.0	-180449.0
20	17	29	39	965	151.0	-191886.0	-3007.0	-180272.0
20	17	29	39	965	152.0	-193264.0	-3007.0	-182100.0
20	17	29	39	966	153.0	-194146.0	-3003.0	-181597.0
20	17	29	39	966	154.0	-194457.0	-2996.0	-178666.0
20	17	29	39	967	155.0	-194252.0	-2991.0	-176707.0
20	17	29	39	967	156.0	-193836.0	-2991.0	-177730.0
20	17	29	39	968	157.0	-193002.0	-2992.0	-179221.0
20	17	29	39	969	158.0	-191786.0	-2984.0	-182303.0
20	17	29	39	969	159.0	-190450.0	-3001.0	-183269.0
20	17	29	39	970	160.0	-189121.0	-2999.0	-183586.0
20	17	29	39	970	161.0	-187953.0	-2981.0	-184118.0
20	17	29	39	971	162.0	-186867.0	-2985.0	-183907.0
20	17	29	39	986	163.0	-186334.0	-2995.0	-183119.0
20	17	29	39	987	164.0	-186832.0	-3007.0	-182498.0
20	17	29	39	988	165.0	-188004.0	-2992.0	-182422.0
20	17	29	39	988	166.0	-189217.0	-3012.0	-182444.0
20	17	29	39	989	167.0	-190569.0	-2999.0	-185262.0
20	17	29	39	989	168.0	-192334.0	-3002.0	-187227.0
20	17	29	39	990	169.0	-194215.0	-3023.0	-186210.0
20	17	29	40	9	170.0	-196137.0	-3009.0	-186158.0
20	17	29	40	10	171.0	-198592.0	-3013.0	-186567.0
20	17	29	40	11	172.0	-200632.0	-3004.0	-186698.0
20	17	29	40	11	173.0	-202521.0	-2990.0	-187518.0
20	17	29	40	12	174.0	-203702.0	-2978.0	-187048.0
20	17	29	40	12	175.0	-204791.0	-2972.0	-186761.0
20	17	29	40	13	176.0	-205602.0	-2983.0	-188509.0
20	17	29	40	13	177.0	-206086.0	-2991.0	-191221.0
20	17	29	40	14	178.0	-206631.0	-2985.0	-193538.0
20	17	29	40	15	179.0	-206662.0	-2981.0	-194064.0
20	17	29	40	15	180.0	-206764.0	-2993.0	-193972.0
20	17	29	40	16	181.0	-206682.0	-2990.0	-192992.0
20	17	29	40	17	182.0	-206686.0	-2985.0	-192407.0
20	17	29	40	17	183.0	-206743.0	-2989.0	-191537.0
20	17	29	40	18	184.0	-206817.0	-2989.0	-190851.0
20	17	29	40	18	185.0	-206849.0	-2991.0	-192266.0
20	17	29	40	19	191.0	-207428.0	-2987.0	-196687.0
20	17	29	40	19	192.0	-207732.0	-2992.0	-196177.0
20	17	29	40	20	193.0	-207894.0	-2981.0	-194411.0
20	17	29	40	39	194.0	-207909.0	-2999.0	-193502.0
20	17	29	40	40	195.0	-208052.0	-3002.0	-194721.0
20	17	29	40	40	196.0	-208417.0	-3000.0	-196481.0
20	17	29	40	41	197.0	-208894.0	-3007.0	-196875.0
20	17	29	40	42	198.0	-209426.0	-2999.0	-196897.0
20	17	29	40	43	199.0	-209787.0	-2988.0	-198825.0
20	17	29	40	44	200.0	-209849.0	-2994.0	-198355.0
20	17	29	40	45	201.0	-209234.0	-3007.0	-196986.0
20	17	29	40	45	202.0	-208134.0	-3023.0	-196018.0
20	17	29	40	46	203.0	-206827.0	-3010.0	-195177.0
20	17	29	40	46	204.0	-205503.0	-3032.0	-195142.0
20	17	29	40	47	205.0	-204091.0	-3046.0	-196052.0
20	17	29	40	48	206.0	-202522.0	-3066.0	-196473.0
20	17	29	40	48	207.0	-201215.0	-3071.0	-197827.0
20	17	29	40	49	208.0	-199790.0	-3071.0	-198873.0
20	17	29	40	50	209.0	-198446.0	-3091.0	-198283.0
20	17	29	40	50	210.0	-197089.0	-3101.0	-197753.0
20	17	29	40	58	211.0	-195793.0	-3132.0	-197140.0
20	17	29	40	58	212.0	-194591.0	-3134.0	-196102.0
20	17	29	40	80	213.0	-193358.0	-3151.0	-196106.0
20	17	29	40	81	214.0	-192396.0	-3168.0	-196116.0
20	17	29	40	82	215.0	-191675.0	-3169.0	-193777.0
20	17	29	40	82	216.0	-190869.0	-3194.0	-193593.0
20	17	29	40	83	217.0	-190062.0	-3201.0	-195167.0
20	17	29	40	83	218.0	-189317.0	-3211.0	-195031.0
20	17	29	40	84	219.0	-188372.0	-3246.0	-193517.0
20	17	29	40	84	220.0	-187232.0	-3252.0	-191053.0
20	17	29	40	85	221.0	-186025.0	-3256.0	-189280.0
20	17	29	40	85	222.0	-185176.0	-3280.0	-187151.0
20	17	29	40	86	223.0	-184363.0	-3264.0	-185422.0
20	17	29	40	87	224.0	-183652.0	-3276.0	-182747.0
20	17	29	40	87	225.0	-182920.0	-3277.0	-181441.0
20	17	29	40	88	226.0	-181924.0	-3273.0	-182773.0
20	17	29	40	88	227.0	-180970.0	-3282.0	-184603.0
20	17	29	40	89	228.0	-180214.0	-3290.0	-184052.0
20	17	29	40	89	229.0	-179799.0	-3286.0	-182070.0
20	17	29	40	114	230.0	-179789.0	-3284.0	-180190.0
20	17	29	40	115	231.0	-180002.0	-3289.0	-179301.0
20	17	29	40	115	232.0	-180635.0	-3289.0	-177424.0
20	17	29	40	116	233.0	-181616.0	-3296.0	-175089.0
20	17	29	40	116	234.0	-182941.0	-3283.0	-173325.0
20	17	29	40	117	235.0	-184557.0	-3271.0	-173964.0
20	17	29	40	117	236.0	-186495.0	-3274.0	-174036.0
20	17	29	40	133	237.0	-188847.0	-3271.0	-175266.0
20	17	29	40	133	238.0	-191616.0	-3279.0	-175565.0
20	17	29	40	134	239.0	-194905.0	-3295.0	-174750.0
20	17	29	40	135	240.0	-198641.0	-3290.0	-174872.0
20	17	29	40	135	241.0	-202997.0	-3287.0	-174997.0
20	17	29	40	136	242.0	-208089.0	-3291.0	-173287.0
20	17	29	40	136	243.0	-213931.0	-3291.0	-172071.0
20	17	29	40	157	244.0	-221017.0	-3313.0	-169873.0
20	17	29	40	157	245.0	-230776.0	-3308.0	-170248.0
20	17	29	40	158	246.0	-236806.0	-3292.0	-171805.0
20	17	29	40	159	247.0	-231894.0	-3294.0	-173500.0
20	17	29	40	159	248.0	-227649.0	-3288.0	-175766.0
20	17	29	40	160	249.0	-222364.0	-3287.0	-175440.0
20	17	29	40	161	250.0	-219519.0	-3291.0	-172968.0
20	17	29	40	161	251.0	-218072.0	-3292.0	-172539.0
20	17	29	40	162	252.0	-215723.0	-3285.0	-171697.0
20	17	29	40	162	253.0	-213700.0	-3262.0	-171199.0
20	17	29	40	163	254.0	-212452.0	-3261.0	-168446.0
20	17	29	40	163	255.0	-209977.0	-3269.0	-167879.0
20	17	29	40	164	0.0	-207491.0	-3271.0	-169164.0
20	17	29	40	164	1.0	-205709.0	-3281.0	-170224.0
20	17	29	40	180	2.0	-203096.0	-3260.0	-169464.0
20	17	29	40	180	3.0	-199615.0	-3287.0	-168502.0
20	17	29	40	181	4.0	-195536.0	-3277.0	-167124.0
20	17	29	40	181	5.0	-191675.0	-3267.0	-166129.0
20	17	29	40	182	6.0	-188991.0	-3260.0	-165710.0
20	17	29	40	182	7.0	-187127.0	-3270.0	-166251.0
20	17	29	40	203	8.0	-185961.0	-3265.0	-164759.0
20	17	29	40	203	9.0	-185485.0	-3258.0	-163253.0
20	17	29	40	204	10.0	-185876.0	-3280.0	-163617.0
20	17	29	40	204	11.0	-186739.0	-3273.0	-165321.0
20	17	29	40	205	12.0	-187876.0	-3250.0	-164852.0
20	17	29	40	205	13.0	-189048.0	-3242.0	-163937.0
20	17	29	40	206	14.0	-190106.0	-3255.0	-163296.0
20	17	29	40	225	15.0	-191056.0	-3248.0	-163367.0
20	17	29	40	226	16.0	-192046.0	-3227.0	-163032.0
20	17	29	40	226	17.0	-193034.0	-3214.0	-163215.0
20	17	29	40	227	18.0	-194183.0	-3206.0	-163279.0
20	17	29	40	228	19.0	-195602.0	-3194.0	-162482.0
20	17	29	40	228	20.0	-197076.0	-3192.0	-163836.0
20	17	29	40	229	21.0	-198446.0	-3189.0	-164497.0
20	17	29	40	249	22.0	-199670.0	-3211.0	-164470.0
20	17	29	40	249	23.0	-200562.0	-3196.0	-163194.0
20	17	29	40	250	25.0	-201185.0	-3199.0	-161840.0
20	17	29	40	250	26.0	-201061.0	-3191.0	-162187.0
20	17	29	40	251	27.0	-200847.0	-3173.0	-163389.0
20	17	29	40	251	28.0	-200684.0	-3162.0	-161447.0
20	17	29	40	271	29.0	-200665.0	-3152.0	-162119.0
20	17	29	40	272	30.0	-200802.0	-3145.0	-162277.0
20	17	29	40	273	31.0	-201309.0	-3148.0	-162877.0
20	17	29	40	273	40.0	-213382.0	-3066.0	-155369.0
20	17	29	40	274	41.0	-214607.0	-3074.0	-157754.0
20	17	29	40	274	42.0	-215537.0	-3063.0	-158862.0
20	17	29	40	275	43.0	-216186.0	-3051.0	-157716.0
20	17	29	40	275	44.0	-216805.0	-3046.0	-156916.0
20	17	29	40	276	45.0	-217380.0	-3016.0	-156499.0
20	17	29	40	277	46.0	-217951.0	-2992.0	-156422.0
20	17	29	40	277	48.0	-218776.0	-2985.0	-155891.0
20	17	29	40	278	49.0	-219111.0	-2984.0	-154602.0
20	17	29	40	278	50.0	-219289.0	-2967.0	-153558.0
20	17	29	40	279	51.0	-219112.0	-2948.0	-153701.0
20	17	29	40	279	52.0	-218832.0	-2927.0	-152665.0
20	17	29	40	280	53.0	-218454.0	-2936.0	-150421.0
20	17	29	40	281	62.0	-206054.0	-2884.0	-133871.0
20	17	29	40	281	63.0	-203862.0	-2888.0	-133455.0
20	17	29	40	282	64.0	-201447.0	-2869.0	-132929.0
20	17	29	40	282	65.0	-199178.0	-2861.0	-131884.0
20	17	29	40	283	66.0	-197200.0	-2856.0	-131157.0
20	17	29	40	283	67.0	-195514.0	-2851.0	-129829.0
20	17	29	40	284	68.0	-194290.0	-2836.0	-127456.0
20	17	29	40	285	69.0	-193776.0	-2809.0	-127457.0
20	17	29	40	285	70.0	-193902.0	-2816.0	-128639.0
20	17	29	40	294	71.0	-194415.0	-2813.0	-130039.0
20	17	29	40	295	72.0	-195269.0	-2824.0	-130539.0
20	17	29	40	295	73.0	-196347.0	-2824.0	-129195.0
20	17	29	40	296	74.0	-197695.0	-2807.0	-127168.0
20	17	29	40	296	75.0	-198949.0	-2805.0	-127222.0
20	17	29	40	297	76.0	-200084.0	-2777.0	-125977.0
20	17	29	40	298	77.0	-201294.0	-2781.0	-124257.0
20	17	29	40	298	78.0	-202549.0	-2785.0	-122228.0
20	17	29	40	317	79.0	-204025.0	-2773.0	-121184.0
20	17	29	40	318	80.0	-205505.0	-2774.0	-120968.0
20	17	29	40	318	81.0	-207033.0	-2777.0	-120937.0
20	17	29	40	319	82.0	-208477.0	-2779.0	-120776.0
20	17	29	40	320	83.0	-209632.0	-2790.0	-119985.0
20	17	29	40	320	84.0	-210399.0	-2792.0	-118985.0
20	17	29	40	321	85.0	-210909.0	-2784.0	-118637.0
20	17	29	40	340	86.0	-211226.0	-2802.0	-118264.0
20	17	29	40	341	87.0	-211459.0	-2814.0	-116089.0
20	17	29	40	342	88.0	-211752.0	-2805.0	-114086.0
20	17	29	40	342	89.0	-212004.0	-2807.0	-113041.0
20	17	29	40	343	90.0	-212291.0	-2814.0	-114096.0
20	17	29	40	343	91.0	-212664.0	-2816.0	-114918.0
20	17	29	40	344	92.0	-212991.0	-2794.0	-114374.0
20	17	29	40	345	93.0	-213369.0	-2781.0	-113954.0
20	17	29	40	345	94.0	-213677.0	-2777.0	-114194.0
20	17	29	40	346	95.0	-214063.0	-2774.0	-113873.0
20	17	29	40	346	96.0	-214579.0	-2779.0	-113644.0
20	17	29	40	347	97.0	-215077.0	-2773.0	-113584.0
20	17	29	40	348	98.0	-215283.0	-2767.0	-114621.0
20	17	29	40	348	99.0	-215282.0	-2754.0	-117547.0
20	17	29	40	349	100.0	-215139.0	-2771.0	-119559.0
20	17	29	40	349	101.0	-214780.0	-2784.0	-120314.0
20	17	29	40	350	102.0	-214659.0	-2758.0	-121279.0
20	17	29	40	350	103.0	-215129.0	-2747.0	-122681.0
20	17	29	40	351	104.0	-216207.0	-2757.0	-121816.0
20	17	29	40	352	105.0	-217456.0	-2760.0	-120712.0
20	17	29	40	368	106.0	-218812.0	-2753.0	-120308.0
20	17	29	40	369	107.0	-220106.0	-2739.0	-119104.0
20	17	29	40	369	108.0	-220907.0	-2724.0	-117916.0
20	17	29	40	370	109.0	-221235.0	-2733.0	-118618.0
20	17	29	40	370	110.0	-221423.0	-2737.0	-120927.0
20	17	29	40	371	111.0	-221674.0	-2729.0	-122062.0
20	17	29	40	372	112.0	-221959.0	-2728.0	-121183.0
20	17	29	40	372	113.0	-222179.0	-2721.0	-118776.0
20	17	29	40	374	114.0	-222117.0	-2714.0	-115999.0
20	17	29	40	375	115.0	-221886.0	-2714.0	-113692.0
20	17	29	40	375	116.0	-221746.0	-2719.0	-111652.0
20	17	29	40	376	117.0	-221467.0	-2699.0	-109946.0
20	17	29	40	387	118.0	-220944.0	-2681.0	-108629.0
20	17	29	40	388	119.0	-220146.0	-2674.0	-107247.0
20	17	29	40	389	120.0	-218952.0	-2647.0	-104783.0
20	17	29	40	389	121.0	-216947.0	-2645.0	-101742.0
20	17	29	40	390	122.0	-214681.0	-2667.0	-99267.0
20	17	29	40	410	123.0	-211892.0	-2671.0	-95567.0
20	17	29	40	411	124.0	-209099.0	-2637.0	-91849.0
20	17	29	40	412	125.0	-206382.0	-2627.0	-87045.0
20	17	29	40	412	126.0	-203759.0	-2629.0	-82476.0
20	17	29	40	413	127.0	-201655.0	-2617.0	-79292.0
20	17	29	40	413	128.0	-199902.0	-2613.0	-76854.0
20	17	29	40	414	129.0	-198597.0	-2617.0	-74126.0
20	17	29	40	415	130.0	-198125.0	-2607.0	-70172.0
20	17	29	40	415	131.0	-198228.0	-2614.0	-67252.0
20	17	29	40	416	132.0	-198626.0	-2602.0	-61626.0
20	17	29	40	417	133.0	-199209.0	-2606.0	-55606.0
20	17	29	40	417	134.0	-200017.0	-2604.0	-52094.0
20	17	29	40	418	135.0	-200580.0	-2591.0	-48852.0
20	17	29	40	418	136.0	-201089.0	-2578.0	-44887.0
20	17	29	40	419	137.0	-201483.0	-2571.0	-40396.0
20	17	29	40	419	138.0	-201701.0	-2574.0	-37287.0
20	17	29	40	444	139.0	-201903.0	-2577.0	-34986.0
20	17	29	40	445	140.0	-201949.0	-2576.0	-31607.0
20	17	29	40	445	141.0	-202065.0	-2554.0	-26746.0
20	17	29	40	446	142.0	-202594.0	-2555.0	-20907.0
20	17	29	40	447	143.0	-203542.0	-2550.0	-14907.0
20	17	29	40	447	144.0	-205022.0	-2529.0	-10307.0
20	17	29	40	448	145.0	-206390.0	-2517.0	-6795.0
20	17	29	40	449	146.0	-208170.0	-2510.0	-4475.0
20	17	29	40	449	147.0	-209626.0	-2519.0	-2564.0
20	17	29	40	450	148.0	-211101.0	-2519.0	-1303.0
20	17	29	40	451	149.0	-212364.0	-2511.0	-412.0
20	17	29	40	451	150.0	-213406.0	-2517.0	103.0
20	17	29	40	452	151.0	-214377.0	-2486.0	1664.0
20	17	29	40	453	152.0	-215091.0	-2467.0	4668.0
20	17	29	40	453	153.0	-215321.0	-2478.0	6341.0
20	17	29	40	454	154.0	-215521.0	-2476.0	6509.0
20	17	29	40	454	155.0	-215446.0	-2467.0	6633.0
20	17	29	40	455	156.0	-215617.0	-2471.0	8708.0
20	17	29	40	464	157.0	-215482.0	-2461.0	13712.0
20	17	29	40	464	158.0	-215129.0	-2460.0	18847.0
20	17	29	40	465	159.0	-215059.0	-2459.0	23342.0
20	17	29	40	488	160.0	-214950.0	-2459.0	28071.0
20	17	29	40	488	161.0	-214636.0	-2459.0	34359.0
20	17	29	40	489	162.0	-214502.0	-2443.0	40364.0
20	17	29	40	490	163.0	-214522.0	-2434.0	47452.0
20	17	29	40	490	164.0	-215476.0	-2422.0	55818.0
20	17	29	40	491	165.0	-216707.0	-2402.0	64174.0
20	17	29	40	492	166.0	-218066.0	-2391.0	70939.0
20	17	29	40	492	167.0	-219781.0	-2388.0	77253.0
20	17	29	40	510	168.0	-220890.0	-2372.0	80671.0
20	17	29	40	511	169.0	-220908.0	-2341.0	84853.0
20	17	29	40	512	170.0	-219569.0	-2355.0	88499.0
20	17	29	40	512	171.0	-216894.0	-2337.0	90487.0
20	17	29	40	513	172.0	-213156.0	-2316.0	92723.0
20	17	29	40	514	173.0	-208450.0	-2301.0	96803.0
20	17	29	40	514	174.0	-203311.0	-2289.0	99697.0
20	17	29	40	534	175.0	-198676.0	-2300.0	101746.0
20	17	29	40	535	176.0	-193684.0	-2281.0	103546.0
20	17	29	40	536	177.0	-187819.0	-2267.0	105439.0
20	17	29	40	536	178.0	-180961.0	-2252.0	107271.0
20	17	29	40	537	179.0	-173448.0	-2229.0	108454.0
20	17	29	40	537	180.0	-167842.0	-2222.0	109383.0
20	17	29	40	538	181.0	-165406.0	-2207.0	111118.0
20	17	29	40	539	182.0	-165424.0	-2193.0	113913.0
20	17	29	40	539	183.0	-166931.0	-2192.0	116501.0
20	17	29	40	540	184.0	-167407.0	-2187.0	120516.0
20	17	29	40	540	185.0	-165997.0	-2174.0	125433.0
20	17	29	40	541	186.0	-162374.0	-2154.0	130484.0
20	17	29	40	541	187.0	-156764.0	-2155.0	135074.0
20	17	29	40	542	188.0	-150702.0	-2141.0	138353.0
20	17	29	40	557	189.0	-145809.0	-2125.0	141253.0
20	17	29	40	558	190.0	-142669.0	-2114.0	143791.0
20	17	29	40	559	191.0	-142169.0	-2102.0	146956.0
20	17	29	40	559	192.0	-144477.0	-2068.0	150441.0
20	17	29	40	560	193.0	-149231.0	-2066.0	153426.0
20	17	29	40	580	194.0	-155437.0	-2059.0	156368.0
20	17	29	40	581	195.0	-163042.0	-2052.0	159246.0
20	17	29	40	582	196.0	-171531.0	-2039.0	162119.0
20	17	29	40	582	197.0	-179806.0	-2011.0	166174.0
20	17	29	40	583	198.0	-188528.0	-1999.0	167774.0
20	17	29	40	583	199.0	-197568.0	-1989.0	167603.0
20	17	29	40	584	200.0	-206239.0	-1962.0	167454.0
20	17	29	40	585	201.0	-213487.0	-1960.0	168067.0
20	17	29	40	585	202.0	-218130.0	-1960.0	169831.0
20	17	29	40	586	203.0	-219864.0	-1934.0	171323.0
20	17	29	40	586	204.0	-218742.0	-1922.0	173814.0
20	17	29	40	587	205.0	-215047.0	-1927.0	174904.0
20	17	29	40	587	206.0	-211244.0	-1906.0	176248.0
20	17	29	40	588	207.0	-208874.0	-1877.0	178803.0
20	17	29	40	604	208.0	-205873.0	-1856.0	180678.0
20	17	29	40	605	212.0	-191382.0	-1741.0	188209.0
20	17	29	40	605	213.0	-188529.0	-1714.0	190829.0
20	17	29	40	606	214.0	-185689.0	-1680.0	192594.0
20	17	29	40	607	215.0	-182972.0	-1655.0	194486.0
20	17	29	40	607	216.0	-180882.0	-1646.0	196092.0
20	17	29	40	608	217.0	-179442.0	-1628.0	196702.0
20	17	29	40	609	218.0	-178244.0	-1601.0	196416.0
20	17	29	40	609	219.0	-177422.0	-1567.0	194743.0
20	17	29	40	610	220.0	-177152.0	-1557.0	193367.0
20	17	29	40	610	221.0	-177003.0	-1511.0	190825.0
20	17	29	40	611	222.0	-177515.0	-1472.0	188868.0
20	17	29	40	612	223.0	-179846.0	-1429.0	186944.0
20	17	29	40	612	224.0	-183069.0	-1412.0	184761.0
20	17	29	40	627	225.0	-185576.0	-1391.0	184641.0
20	17	29	40	627	226.0	-188076.0	-1359.0	184363.0
20	17	29	40	628	227.0	-189157.0	-1325.0	184960.0
20	17	29	40	628	228.0	-186484.0	-1306.0	182521.0
20	17	29	40	629	229.0	-184873.0	-1271.0	179721.0
20	17	29	40	630	230.0	-184917.0	-1242.0	176446.0
20	17	29	40	630	231.0	-186534.0	-1219.0	174133.0
20	17	29	40	649	232.0	-195674.0	-1179.0	171481.0
20	17	29	40	650	233.0	-199116.0	-1167.0	168266.0
20	17	29	40	651	235.0	-201961.0	-1074.0	143810.0
20	17	29	40	651	236.0	-200826.0	-1044.0	123681.0
20	17	29	40	652	237.0	-198335.0	-992.0	105231.0
20	17	29	40	652	238.0	-194242.0	-931.0	88061.0
20	17	29	40	653	239.0	-189527.0	-925.0	69650.0
20	17	29	40	672	240.0	-184880.0	-906.0	51243.0
20	17	29	40	673	241.0	-181073.0	-874.0	35241.0
20	17	29	40	673	242.0	-177532.0	-835.0	20408.0
20	17	29	40	674	243.0	-174738.0	-811.0	7956.0
20	17	29	40	674	244.0	-172915.0	-780.0	-2025.0
20	17	29	40	675	245.0	-171561.0	-741.0	-11242.0
20	17	29	40	676	246.0	-170978.0	-714.0	-19300.0
20	17	29	40	696	247.0	-171345.0	-669.0	-25712.0
20	17	29	40	697	248.0	-172629.0	-651.0	-32944.0
20	17	29	40	697	250.0	-176595.0	-604.0	-51211.0
20	17	29	40	698	251.0	-178656.0	-567.0	-60151.0
20	17	29	40	699	252.0	-180639.0	-536.0	-67868.0
20	17	29	40	699	253.0	-182502.0	-509.0	-73716.0
20	17	29	40	700	254.0	-184045.0	-495.0	-79974.0
20	17	29	40	701	255.0	-185516.0	-472.0	-84976.0
20	17	29	40	701	0.0	-186541.0	-463.0	-89817.0
20	17	29	40	702	9.0	-192657.0	-282.0	-128312.0
20	17	29	40	702	10.0	-194757.0	-267.0	-130115.0
20	17	29	40	703	11.0	-197324.0	-232.0	-131721.0
20	17	29	40	704	12.0	-200107.0	-214.0	-134710.0
20	17	29	40	704	13.0	-202986.0	-207.0	-138699.0
20	17	29	40	728	14.0	-206141.0	-201.0	-143347.0
20	17	29	40	729	15.0	-208892.0	-204.0	-147109.0
20	17	29	40	730	16.0	-210654.0	-192.0	-150576.0
20	17	29	40	730	17.0	-211788.0	-195.0	-154890.0
20	17	29	40	731	18.0	-212683.0	-192.0	-160432.0
20	17	29	40	732	19.0	-212938.0	-194.0	-167622.0
20	17	29	40	732	20.0	-212692.0	-191.0	-178716.0
20	17	29	40	744	21.0	-212227.0	-207.0	-197164.0
20	17	29	40	745	22.0	-211521.0	-227.0	-224089.0
20	17	29	40	746	24.0	-209582.0	-222.0	-293402.0
20	17	29	40	746	25.0	-208484.0	-244.0	-324479.0
20	17	29	40	747	26.0	-206607.0	-248.0	-356405.0
20	17	29	40	748	27.0	-204625.0	-256.0	-389987.0
20	17	29	40	748	28.0	-202770.0	-288.0	-423076.0
20	17	29	40	768	29.0	-200561.0	-291.0	-454472.0
20	17	29	40	769	30.0	-198442.0	-298.0	-482800.0
20	17	29	40	769	39.0	-182204.0	-492.0	-815007.0
20	17	29	40	770	40.0	-181100.0	-492.0	-837758.0
20	17	29	40	770	41.0	-180327.0	-496.0	-863239.0
20	17	29	40	771	42.0	-179566.0	-510.0	-886158.0
20	17	29	40	772	43.0	-178951.0	-532.0	-904475.0
20	17	29	40	772	44.0	-178649.0	-557.0	-922247.0
20	17	29	40	773	45.0	-178404.0	-581.0	-938292.0
20	17	29	40	774	46.0	-178554.0	-601.0	-951723.0
20	17	29	40	774	47.0	-179364.0	-634.0	-963792.0
20	17	29	40	775	48.0	-181339.0	-659.0	-975287.0
20	17	29	40	775	49.0	-184289.0	-662.0	-982962.0
20	17	29	40	776	50.0	-188125.0	-667.0	-990594.0
20	17	29	40	791	51.0	-192202.0	-703.0	-999464.0
20	17	29	40	791	52.0	-196269.0	-706.0	-1008476.0
20	17	29	40	792	54.0	-201854.0	-757.0	-1022789.0
20	17	29	40	793	55.0	-203091.0	-784.0	-1029457.0
20	17	29	40	793	56.0	-203352.0	-813.0	-1035104.0
20	17	29	40	794	57.0	-202924.0	-810.0	-1042082.0
20	17	29	40	794	58.0	-202011.0	-847.0	-1048554.0
20	17	29	40	826	59.0	-200966.0	-886.0	-1054811.0
20	17	29	40	826	60.0	-199565.0	-897.0	-1059104.0
20	17	29	40	827	61.0	-197883.0	-921.0	-1063111.0
20	17	29	40	827	62.0	-196414.0	-931.0	-1068446.0
20	17	29	40	828	63.0	-195311.0	-957.0	-1073904.0
20	17	29	40	829	64.0	-194945.0	-969.0	-1077812.0
20	17	29	40	829	65.0	-195708.0	-969.0	-1080198.0
20	17	29	40	830	66.0	-197415.0	-991.0	-1080846.0
20	17	29	40	830	67.0	-200539.0	-1028.0	-1082075.0
20	17	29	40	831	69.0	-211348.0	-1067.0	-1084146.0
20	17	29	40	831	70.0	-219927.0	-1086.0	-1083216.0
20	17	29	40	832	71.0	-225616.0	-1119.0	-1082111.0
20	17	29	40	832	72.0	-219951.0	-1136.0	-1081970.0
20	17	29	40	833	73.0	-213117.0	-1155.0	-1081347.0
20	17	29	40	834	74.0	-206591.0	-1181.0	-1079961.0
20	17	29	40	834	75.0	-203634.0	-1195.0	-1077886.0
20	17	29	40	835	84.0	-178327.0	-1317.0	-1034181.0
20	17	29	40	835	85.0	-172930.0	-1325.0	-1028679.0
20	17	29	40	836	86.0	-168121.0	-1345.0	-1021165.0
20	17	29	40	837	87.0	-164329.0	-1400.0	-1012143.0
20	17	29	40	837	88.0	-161932.0	-1396.0	-1002701.0
20	17	29	40	838	89.0	-161024.0	-1409.0	-992328.0
20	17	29	40	838	90.0	-161564.0	-1402.0	-980722.0
20	17	29	40	839	91.0	-163024.0	-1412.0	-971308.0
20	17	29	40	848	92.0	-164689.0	-1448.0	-962962.0
20	17	29	40	849	93.0	-166551.0	-1452.0	-953017.0
20	17	29	40	850	94.0	-168822.0	-1461.0	-941704.0
20	17	29	40	850	95.0	-171420.0	-1481.0	-930109.0
20	17	29	40	851	96.0	-174420.0	-1504.0	-917981.0
20	17	29	40	851	97.0	-177892.0	-1521.0	-907048.0
20	17	29	40	852	98.0	-181626.0	-1536.0	-895815.0
20	17	29	40	852	99.0	-185000.0	-1565.0	-883579.0
20	17	29	40	870	100.0	-188198.0	-1582.0	-870255.0
20	17	29	40	870	101.0	-191087.0	-1599.0	-858076.0
20	17	29	40	871	102.0	-192017.0	-1607.0	-845603.0
20	17	29	40	872	103.0	-193140.0	-1623.0	-830509.0
20	17	29	40	872	104.0	-193858.0	-1627.0	-811406.0
20	17	29	40	873	105.0	-194827.0	-1657.0	-789276.0
20	17	29	40	873	106.0	-195728.0	-1681.0	-764959.0
20	17	29	40	892	107.0	-196440.0	-1699.0	-739735.0
20	17	29	40	893	108.0	-197299.0	-1720.0	-714225.0
20	17	29	40	893	109.0	-198112.0	-1737.0	-688931.0
20	17	29	40	894	110.0	-199039.0	-1757.0	-662330.0
20	17	29	40	895	111.0	-200397.0	-1776.0	-636319.0
20	17	29	40	895	112.0	-202074.0	-1794.0	-612964.0
20	17	29	40	896	113.0	-204628.0	-1808.0	-589773.0
20	17	29	40	896	114.0	-206744.0	-1834.0	-562994.0
20	17	29	40	897	115.0	-207071.0	-1846.0	-533451.0
20	17	29	40	897	116.0	-207822.0	-1869.0	-503167.0
20	17	29	40	898	117.0	-208181.0	-1882.0	-475262.0
20	17	29	40	898	118.0	-209100.0	-1894.0	-448780.0
20	17	29	40	899	119.0	-209774.0	-1913.0	-422882.0
20	17	29	40	900	120.0	-210107.0	-1933.0	-397377.0
20	17	29	40	914	121.0	-209295.0	-1957.0	-374867.0
20	17	29	40	915	122.0	-208679.0	-1984.0	-355154.0
20	17	29	40	916	123.0	-208266.0	-2012.0	-336596.0
20	17	29	40	916	124.0	-209544.0	-2019.0	-317780.0
20	17	29	40	917	125.0	-210084.0	-2044.0	-299649.0
20	17	29	40	917	126.0	-208377.0	-2075.0	-280414.0
20	17	29	40	918	127.0	-207820.0	-2095.0	-261419.0
20	17	29	40	937	128.0	-206766.0	-2121.0	-242430.0
20	17	29	40	938	129.0	-206123.0	-2165.0	-224272.0
20	17	29	40	938	130.0	-205516.0	-2172.0	-205717.0
20	17	29	40	939	131.0	-205421.0	-2189.0	-189106.0
20	17	29	40	940	132.0	-205557.0	-2227.0	-174351.0
20	17	29	40	940	133.0	-206012.0	-2256.0	-160341.0
20	17	29	40	941	134.0	-205736.0	-2271.0	-147460.0
20	17	29	40	941	135.0	-203961.0	-2283.0	-133896.0
20	17	29	40	942	136.0	-202149.0	-2324.0	-119709.0
20	17	29	40	943	137.0	-200467.0	-2352.0	-106709.0
20	17	29	40	943	138.0	-199321.0	-2381.0	-93535.0
20	17	29	40	944	139.0	-198805.0	-2404.0	-79980.0
20	17	29	40	944	140.0	-198353.0	-2432.0	-66878.0
20	17	29	40	945	141.0	-197876.0	-2449.0	-55718.0
20	17	29	40	960	142.0	-197472.0	-2481.0	-46212.0
20	17	29	40	961	143.0	-197352.0	-2496.0	-37154.0
20	17	29	40	961	144.0	-197362.0	-2507.0	-27679.0
20	17	29	40	962	145.0	-197642.0	-2527.0	-17937.0
20	17	29	40	962	146.0	-198098.0	-2546.0	-7309.0
20	17	29	40	963	147.0	-198474.0	-2571.0	3791.0
20	17	29	40	963	148.0	-198636.0	-2622.0	15089.0
20	17	29	40	983	149.0	-198599.0	-2637.0	25398.0
20	17	29	40	984	150.0	-199001.0	-2659.0	35528.0
20	17	29	40	985	151.0	-198677.0	-2676.0	45003.0
20	17	29	40	985	152.0	-196624.0	-2707.0	53638.0
20	17	29	40	986	153.0	-194559.0	-2726.0	61825.0
20	17	29	40	986	154.0	-193121.0	-2762.0	71176.0
20	17	29	40	987	155.0	-192344.0	-2802.0	79801.0
20	17	29	41	6	156.0	-191921.0	-2846.0	88188.0
20	17	29	41	7	157.0	-192059.0	-2869.0	97504.0
20	17	29	41	7	158.0	-192212.0	-2909.0	108336.0
20	17	29	41	8	159.0	-192435.0	-2935.0	118693.0
20	17	29	41	8	160.0	-192689.0	-2942.0	129770.0
20	17	29	41	9	161.0	-194877.0	-2973.0	139011.0
20	17	29	41	10	162.0	-196443.0	-2984.0	146121.0
20	17	29	41	10	163.0	-195445.0	-3007.0	153559.0
20	17	29	41	29	164.0	-196708.0	-3035.0	163518.0
20	17	29	41	52	165.0	-198079.0	-3051.0	174487.0
20	17	29	41	53	166.0	-200509.0	-3074.0	186943.0
20	17	29	41	53	167.0	-203560.0	-3086.0	199570.0
20	17	29	41	54	168.0	-207261.0	-3106.0	212125.0
20	17	29	41	54	169.0	-210935.0	-3140.0	222322.0
20	17	29	41	55	170.0	-214882.0	-3174.0	233068.0
20	17	29	41	56	171.0	-218569.0	-3191.0	242668.0
20	17	29	41	56	173.0	-220732.0	-3236.0	263353.0
20	17	29	41	57	174.0	-220126.0	-3247.0	276767.0
20	17	29	41	57	175.0	-218721.0	-3279.0	287476.0
20	17	29	41	58	176.0	-217756.0	-3301.0	297670.0
20	17	29	41	59	177.0	-216207.0	-3316.0	307111.0
20	17	29	41	59	178.0	-214388.0	-3341.0	315169.0
20	17	29	41	60	179.0	-212432.0	-3369.0	323341.0
20	17	29	41	60	188.0	-199583.0	-3459.0	382976.0
20	17	29	41	61	196.0	-203407.0	-3531.0	413379.0
20	17	29	41	61	197.0	-203326.0	-3560.0	416669.0
20	17	29	41	62	198.0	-203634.0	-3568.0	420533.0
20	17	29	41	63	199.0	-204906.0	-3599.0	423762.0
20	17	29	41	63	200.0	-206296.0	-3614.0	428423.0
20	17	29	41	64	201.0	-207679.0	-3629.0	431729.0
20	17	29	41	64	202.0	-208637.0	-3658.0	431587.0
20	17	29	41	65	203.0	-209106.0	-3671.0	432181.0
20	17	29	41	76	204.0	-209205.0	-3699.0	434731.0
20	17	29	41	77	205.0	-208477.0	-3719.0	437676.0
20	17	29	41	78	206.0	-207422.0	-3725.0	441041.0
20	17	29	41	78	207.0	-206292.0	-3761.0	443104.0
20	17	29	41	79	208.0	-205142.0	-3783.0	443387.0
20	17	29	41	79	209.0	-204642.0	-3811.0	444923.0
20	17	29	41	80	210.0	-204612.0	-3847.0	447741.0
20	17	29	41	81	211.0	-204774.0	-3856.0	447573.0
20	17	29	41	81	212.0	-204479.0	-3873.0	446148.0
20	17	29	41	103	213.0	-203454.0	-3874.0	444366.0
20	17	29	41	104	214.0	-202505.0	-3902.0	442254.0
20	17	29	41	104	215.0	-201484.0	-3938.0	443101.0
20	17	29	41	105	216.0	-201273.0	-3937.0	445646.0
20	17	29	41	106	217.0	-201658.0	-3952.0	446818.0
20	17	29	41	106	218.0	-202607.0	-3971.0	447719.0
20	17	29	41	125	219.0	-204067.0	-3991.0	448036.0
20	17	29	41	126	220.0	-205882.0	-3996.0	447837.0
20	17	29	41	126	221.0	-208025.0	-4027.0	445484.0
20	17	29	41	127	222.0	-210012.0	-4051.0	442803.0
20	17	29	41	128	223.0	-211699.0	-4076.0	440727.0
20	17	29	41	128	224.0	-213011.0	-4077.0	439342.0
20	17	29	41	129	225.0	-214250.0	-4097.0	437570.0
20	17	29	41	130	226.0	-215516.0	-4122.0	437703.0
20	17	29	41	130	227.0	-216573.0	-4124.0	436542.0
20	17	29	41	131	228.0	-217371.0	-4139.0	435360.0
20	17	29	41	131	229.0	-217451.0	-4157.0	435289.0
20	17	29	41	132	230.0	-216784.0	-4174.0	434902.0
20	17	29	41	132	231.0	-215437.0	-4190.0	432869.0
20	17	29	41	133	232.0	-213361.0	-4207.0	429559.0
20	17	29	41	134	233.0	-210507.0	-4207.0	427117.0
20	17	29	41	134	234.0	-206925.0	-4223.0	426901.0
20	17	29	41	135	235.0	-203063.0	-4224.0	426388.0
20	17	29	41	135	236.0	-198982.0	-4210.0	424811.0
20	17	29	41	136	237.0	-195167.0	-4212.0	423918.0
20	17	29	41	148	238.0	-191611.0	-4251.0	422649.0
20	17	29	41	149	239.0	-188363.0	-4264.0	421860.0
20	17	29	41	149	240.0	-185716.0	-4269.0	420011.0
20	17	29	41	150	241.0	-183568.0	-4294.0	416028.0
20	17	29	41	151	242.0	-182371.0	-4308.0	411266.0
20	17	29	41	151	243.0	-181794.0	-4311.0	407629.0
20	17	29	41	152	244.0	-181760.0	-4318.0	404837.0
20	17	29	41	152	245.0	-182649.0	-4346.0	403974.0
20	17	29	41	171	246.0	-183827.0	-4363.0	405584.0
20	17	29	41	172	247.0	-185684.0	-4383.0	406604.0
20	17	29	41	172	248.0	-188128.0	-4374.0	406359.0
20	17	29	41	173	249.0	-191051.0	-4398.0	407726.0
20	17	29	41	174	250.0	-194673.0	-4405.0	410565.0
20	17	29	41	174	251.0	-198850.0	-4394.0	412443.0
20	17	29	41	175	252.0	-203559.0	-4426.0	412289.0
20	17	29	41	193	253.0	-208896.0	-4430.0	412286.0
20	17	29	41	194	254.0	-214194.0	-4419.0	412454.0
20	17	29	41	194	255.0	-219026.0	-4429.0	413266.0
20	17	29	41	195	0.0	-223541.0	-4450.0	414091.0
20	17	29	41	196	1.0	-227137.0	-4474.0	413129.0
20	17	29	41	196	2.0	-229199.0	-4479.0	410834.0
20	17	29	41	197	3.0	-230376.0	-4492.0	409280.0
20	17	29	41	198	4.0	-230599.0	-4484.0	408809.0
20	17	29	41	198	5.0	-229736.0	-4507.0	406959.0
20	17	29	41	199	6.0	-228476.0	-4514.0	404587.0
20	17	29	41	200	7.0	-225475.0	-4519.0	401628.0
20	17	29	41	200	8.0	-220759.0	-4536.0	397290.0
20	17	29	41	201	9.0	-214685.0	-4521.0	393144.0
20	17	29	41	201	10.0	-208789.0	-4541.0	389364.0
20	17	29	41	216	11.0	-205953.0	-4549.0	386348.0
20	17	29	41	217	12.0	-206194.0	-4569.0	382057.0
20	17	29	41	239	13.0	-207512.0	-4602.0	377642.0
20	17	29	41	240	14.0	-208211.0	-4599.0	372333.0
20	17	29	41	241	15.0	-206555.0	-4598.0	364446.0
20	17	29	41	241	16.0	-201857.0	-4609.0	354943.0
20	17	29	41	242	17.0	-195796.0	-4614.0	344475.0
20	17	29	41	243	18.0	-188901.0	-4614.0	333673.0
20	17	29	41	243	19.0	-181908.0	-4621.0	323626.0
20	17	29	41	244	20.0	-176781.0	-4640.0	314017.0
20	17	29	41	244	21.0	-174194.0	-4644.0	304271.0
20	17	29	41	262	22.0	-174466.0	-4635.0	294678.0
20	17	29	41	263	23.0	-176903.0	-4654.0	287381.0
20	17	29	41	264	24.0	-180977.0	-4650.0	280353.0
20	17	29	41	265	25.0	-186342.0	-4659.0	273605.0
20	17	29	41	265	26.0	-193001.0	-4669.0	266815.0
20	17	29	41	266	27.0	-200086.0	-4690.0	260863.0
20	17	29	41	266	30.0	-224829.0	-4706.0	248615.0
20	17	29	41	267	31.0	-232577.0	-4718.0	246075.0
20	17	29	41	268	32.0	-238584.0	-4723.0	243094.0
20	17	29	41	268	33.0	-242227.0	-4741.0	240798.0
20	17	29	41	269	34.0	-243156.0	-4756.0	237544.0
20	17	29	41	270	35.0	-241697.0	-4774.0	233266.0
20	17	29	41	270	36.0	-238880.0	-4789.0	230548.0
20	17	29	41	271	37.0	-234212.0	-4803.0	228638.0
20	17	29	41	271	38.0	-229396.0	-4819.0	227641.0
20	17	29	41	272	39.0	-224559.0	-4817.0	229033.0
20	17	29	41	273	45.0	-186555.0	-4856.0	254020.0
20	17	29	41	273	46.0	-179102.0	-4867.0	262326.0
20	17	29	41	274	47.0	-173008.0	-4859.0	273574.0
20	17	29	41	274	48.0	-168223.0	-4866.0	283458.0
20	17	29	41	275	49.0	-165144.0	-4882.0	291948.0
20	17	29	41	275	50.0	-163116.0	-4882.0	298836.0
20	17	29	41	276	51.0	-162279.0	-4872.0	305013.0
20	17	29	41	277	52.0	-161688.0	-4854.0	311248.0
20	17	29	41	285	53.0	-161560.0	-4864.0	318014.0
20	17	29	41	286	54.0	-161714.0	-4860.0	324015.0
20	17	29	41	287	55.0	-163882.0	-4861.0	327254.0
20	17	29	41	287	56.0	-166441.0	-4869.0	330537.0
20	17	29	41	288	57.0	-169861.0	-4876.0	334239.0
20	17	29	41	289	58.0	-173921.0	-4884.0	340046.0
20	17	29	41	289	59.0	-177989.0	-4896.0	344243.0
20	17	29	41	290	60.0	-183285.0	-4898.0	348403.0
20	17	29	41	290	61.0	-189757.0	-4906.0	352207.0
20	17	29	41	308	62.0	-196327.0	-4898.0	356144.0
20	17	29	41	309	63.0	-202064.0	-4932.0	360959.0
20	17	29	41	310	64.0	-207043.0	-4942.0	365482.0
20	17	29	41	311	65.0	-211762.0	-4953.0	366664.0
20	17	29	41	311	66.0	-215807.0	-4947.0	366916.0
20	17	29	41	312	67.0	-218877.0	-4951.0	367873.0
20	17	29	41	313	68.0	-220375.0	-4959.0	368588.0
20	17	29	41	313	69.0	-220725.0	-4962.0	371357.0
20	17	29	41	314	70.0	-219657.0	-4969.0	375207.0
20	17	29	41	331	71.0	-217312.0	-4961.0	375767.0
20	17	29	41	332	72.0	-215514.0	-4970.0	375161.0
20	17	29	41	332	73.0	-212762.0	-4981.0	377854.0
20	17	29	41	333	74.0	-210724.0	-4993.0	379104.0
20	17	29	41	334	75.0	-208694.0	-4991.0	380113.0
20	17	29	41	334	76.0	-206676.0	-5017.0	381638.0
20	17	29	41	335	77.0	-205075.0	-4987.0	382538.0
20	17	29	41	336	78.0	-204299.0	-4983.0	383981.0
20	17	29	41	336	79.0	-203398.0	-5006.0	386304.0
20	17	29	41	337	80.0	-203624.0	-5009.0	388920.0
20	17	29	41	338	81.0	-205309.0	-5008.0	390181.0
20	17	29	41	338	82.0	-206994.0	-5025.0	391224.0
20	17	29	41	339	83.0	-209101.0	-5050.0	392965.0
20	17	29	41	340	84.0	-210383.0	-5060.0	392938.0
20	17	29	41	340	85.0	-211296.0	-5077.0	392267.0
20	17	29	41	355	86.0	-213945.0	-5101.0	391254.0
20	17	29	41	355	87.0	-224517.0	-5119.0	389625.0
20	17	29	41	356	88.0	-198712.0	-5132.0	388530.0
20	17	29	41	357	89.0	-213147.0	-5147.0	390420.0
20	17	29	41	378	90.0	-212700.0	-5184.0	391946.0
20	17	29	41	379	91.0	-213106.0	-5189.0	391822.0
20	17	29	41	380	92.0	-214823.0	-5187.0	392262.0
20	17	29	41	380	93.0	-213180.0	-5207.0	394989.0
20	17	29	41	381	94.0	-213356.0	-5233.0	396711.0
20	17	29	41	382	95.0	-212394.0	-5223.0	395989.0
20	17	29	41	382	96.0	-212024.0	-5216.0	393979.0
20	17	29	41	383	97.0	-210722.0	-5223.0	393676.0
20	17	29	41	384	98.0	-210257.0	-5237.0	392863.0
20	17	29	41	384	99.0	-209949.0	-5216.0	392298.0
20	17	29	41	385	100.0	-209098.0	-5224.0	392250.0
20	17	29	41	385	101.0	-207545.0	-5220.0	392518.0
20	17	29	41	386	102.0	-204464.0	-5236.0	392486.0
20	17	29	41	387	103.0	-199404.0	-5249.0	392682.0
20	17	29	41	387	104.0	-202572.0	-5256.0	391324.0
20	17	29	41	388	105.0	-202336.0	-5260.0	390113.0
20	17	29	41	389	106.0	-203382.0	-5272.0	388964.0
20	17	29	41	389	107.0	-202621.0	-5276.0	386386.0
20	17	29	41	390	108.0	-200127.0	-5290.0	384273.0
20	17	29	41	390	109.0	-198022.0	-5301.0	382923.0
20	17	29	41	391	110.0	-195971.0	-5296.0	382260.0
20	17	29	41	392	111.0	-192944.0	-5311.0	382239.0
20	17	29	41	392	112.0	-191441.0	-5314.0	382817.0
20	17	29	41	403	113.0	-190146.0	-5327.0	384283.0
20	17	29	41	404	114.0	-186334.0	-5302.0	384153.0
20	17	29	41	404	115.0	-189946.0	-5318.0	382176.0
20	17	29	41	405	116.0	-193617.0	-5327.0	381146.0
20	17	29	41	406	117.0	-197403.0	-5362.0	379805.0
20	17	29	41	406	118.0	-201045.0	-5377.0	379112.0
20	17	29	41	407	119.0	-201414.0	-5380.0	380807.0
20	17	29	41	424	120.0	-199831.0	-5392.0	380766.0
20	17	29	41	425	121.0	-197772.0	-5399.0	380105.0
20	17	29	41	426	122.0	-195654.0	-5424.0	380011.0
20	17	29	41	426	123.0	-193824.0	-5439.0	381193.0
20	17	29	41	427	124.0	-192957.0	-5465.0	381706.0
20	17	29	41	427	125.0	-193009.0	-5477.0	381541.0
20	17	29	41	428	126.0	-193567.0	-5483.0	381511.0
20	17	29	41	446	127.0	-194356.0	-5498.0	380888.0
20	17	29	41	447	128.0	-194291.0	-5519.0	381396.0
20	17	29	41	447	129.0	-191326.0	-5531.0	382721.0
20	17	29	41	448	130.0	-192391.0	-5552.0	383436.0
20	17	29	41	449	131.0	-194333.0	-5595.0	384235.0
20	17	29	41	449	132.0	-195669.0	-5603.0	385829.0
20	17	29	41	450	133.0	-197882.0	-5634.0	388516.0
20	17	29	41	450	134.0	-198327.0	-5649.0	389432.0
20	17	29	41	451	135.0	-197829.0	-5661.0	389027.0
20	17	29	41	452	136.0	-196751.0	-5711.0	388781.0
20	17	29	41	452	137.0	-196296.0	-5729.0	387798.0
20	17	29	41	453	138.0	-196228.0	-5750.0	387913.0
20	17	29	41	453	139.0	-196859.0	-5775.0	388830.0
20	17	29	41	454	140.0	-197617.0	-5795.0	389846.0
20	17	29	41	478	141.0	-197460.0	-5799.0	391214.0
20	17	29	41	479	142.0	-196833.0	-5826.0	392638.0
20	17	29	41	480	143.0	-195769.0	-5840.0	394894.0
20	17	29	41	480	144.0	-193965.0	-5863.0	396413.0
20	17	29	41	481	145.0	-192107.0	-5879.0	394613.0
20	17	29	41	482	146.0	-191262.0	-4846.0	392698.0
20	17	29	41	482	147.0	-190646.0	-1244.0	392212.0
20	17	29	41	494	148.0	-190821.0	-5776.0	391549.0
20	17	29	41	494	149.0	-191529.0	-6517.0	390786.0
20	17	29	41	495	150.0	-193354.0	-6447.0	390913.0
20	17	29	41	496	151.0	-195829.0	-6214.0	390694.0
20	17	29	41	496	152.0	-198694.0	-5979.0	389570.0
20	17	29	41	497	153.0	-202262.0	-6601.0	389250.0
20	17	29	41	497	154.0	-206798.0	-6579.0	386019.0
20	17	29	41	517	155.0	-213126.0	-6467.0	383227.0
20	17	29	41	517	156.0	-220219.0	-6776.0	379667.0
20	17	29	41	518	157.0	-220282.0	-6686.0	376749.0
20	17	29	41	519	158.0	-214482.0	-6441.0	376560.0
20	17	29	41	519	159.0	-208666.0	-6706.0	378988.0
20	17	29	41	520	160.0	-202287.0	-6742.0	380901.0
20	17	29	41	520	161.0	-201152.0	-6686.0	383417.0
20	17	29	41	539	162.0	-200432.0	-6692.0	386270.0
20	17	29	41	540	163.0	-199384.0	-6666.0	388686.0
20	17	29	41	540	165.0	-200373.0	-6580.0	387464.0
20	17	29	41	541	166.0	-198555.0	-7166.0	386544.0
20	17	29	41	541	167.0	-196768.0	-6599.0	385925.0
20	17	29	41	542	168.0	-194841.0	-6461.0	385154.0
20	17	29	41	543	169.0	-192307.0	-6362.0	384880.0
20	17	29	41	543	170.0	-189093.0	-6400.0	385371.0
20	17	29	41	544	171.0	-185829.0	-6399.0	384721.0
20	17	29	41	544	172.0	-183542.0	-7308.0	385455.0
20	17	29	41	545	173.0	-182494.0	-7906.0	386139.0
20	17	29	41	545	174.0	-182247.0	-6916.0	385098.0
20	17	29	41	546	175.0	-183709.0	-6602.0	382359.0
20	17	29	41	547	176.0	-185630.0	-6382.0	378675.0
20	17	29	41	547	177.0	-188436.0	-6827.0	375255.0
20	17	29	41	548	178.0	-190446.0	-6816.0	373489.0
20	17	29	41	548	180.0	-193646.0	-6236.0	370726.0
20	17	29	41	549	181.0	-194422.0	-5982.0	369965.0
20	17	29	41	550	182.0	-195261.0	-6156.0	369398.0
20	17	29	41	550	183.0	-195504.0	-6029.0	369263.0
20	17	29	41	551	184.0	-195387.0	-6495.0	369594.0
20	17	29	41	552	185.0	-195374.0	-6573.0	369186.0
20	17	29	41	553	186.0	-195033.0	-6506.0	367912.0
20	17	29	41	554	187.0	-194034.0	-6582.0	368282.0
20	17	29	41	554	188.0	-192642.0	-6563.0	369067.0
20	17	29	41	555	189.0	-191019.0	-6427.0	369543.0
20	17	29	41	556	190.0	-188961.0	-6609.0	369209.0
20	17	29	41	557	191.0	-186913.0	-6567.0	370213.0
20	17	29	41	557	192.0	-184939.0	-6741.0	373139.0
20	17	29	41	558	193.0	-183441.0	-6959.0	374123.0
20	17	29	41	559	194.0	-182347.0	-6732.0	373449.0
20	17	29	41	559	195.0	-181663.0	-6521.0	373078.0
20	17	29	41	560	196.0	-181846.0	-6556.0	374163.0
20	17	29	41	561	197.0	-182477.0	-6701.0	373366.0
20	17	29	41	569	198.0	-183035.0	-6346.0	373318.0
20	17	29	41	569	199.0	-183506.0	-6587.0	375195.0
20	17	29	41	570	200.0	-183986.0	-6233.0	376879.0
20	17	29	41	571	201.0	-184776.0	-6417.0	377046.0
20	17	29	41	571	202.0	-185631.0	-6713.0	377206.0
20	17	29	41	592	203.0	-186328.0	-6612.0	378036.0
20	17	29	41	615	204.0	-186987.0	-6740.0	377925.0
20	17	29	41	616	205.0	-187332.0	-6667.0	378068.0
20	17	29	41	617	206.0	-187629.0	-6491.0	378006.0
20	17	29	41	617	207.0	-188345.0	-6574.0	378210.0
20	17	29	41	618	208.0	-189119.0	-6682.0	378511.0
20	17	29	41	618	209.0	-189817.0	-5779.0	377965.0
20	17	29	41	619	210.0	-191125.0	-5962.0	376804.0
20	17	29	41	620	211.0	-192508.0	-5980.0	376134.0
20	17	29	41	620	212.0	-194309.0	-5951.0	377182.0
20	17	29	41	621	213.0	-196591.0	-6172.0	377546.0
20	17	29	41	621	214.0	-199296.0	-6335.0	376548.0
20	17	29	41	622	215.0	-202801.0	-6249.0	374838.0
20	17	29	41	622	216.0	-205628.0	-6902.0	372155.0
20	17	29	41	623	217.0	-208016.0	-6926.0	368624.0
20	17	29	41	624	218.0	-210232.0	-6627.0	366549.0
20	17	29	41	639	219.0	-212639.0	-6207.0	366067.0
20	17	29	41	639	220.0	-214122.0	-6422.0	364251.0
20	17	29	41	640	221.0	-214517.0	-6727.0	362426.0
20	17	29	41	641	222.0	-215206.0	-7132.0	360468.0
20	17	29	41	641	223.0	-215317.0	-6159.0	358636.0
20	17	29	41	642	224.0	-214707.0	-6181.0	357046.0
20	17	29	41	643	225.0	-214242.0	-6591.0	356311.0
20	17	29	41	643	226.0	-213537.0	-6289.0	356684.0
20	17	29	41	644	227.0	-213024.0	-6981.0	357127.0
20	17	29	41	645	228.0	-212993.0	-6661.0	356113.0
20	17	29	41	645	229.0	-212933.0	-6591.0	354875.0
20	17	29	41	646	230.0	-212555.0	-6629.0	354313.0
20	17	29	41	646	231.0	-211817.0	-6324.0	353954.0
20	17	29	41	647	232.0	-210799.0	-6699.0	353809.0
20	17	29	41	648	233.0	-209650.0	-6200.0	353839.0
20	17	29	41	648	234.0	-207967.0	-6286.0	352591.0
20	17	29	41	649	235.0	-206073.0	-6527.0	351392.0
20	17	29	41	649	236.0	-204514.0	-7476.0	350619.0
20	17	29	41	650	237.0	-203249.0	-6296.0	350178.0
20	17	29	41	650	238.0	-201666.0	-6288.0	349650.0
20	17	29	41	651	239.0	-200025.0	-6174.0	348484.0
20	17	29	41	661	240.0	-198419.0	-6038.0	348058.0
20	17	29	41	662	241.0	-196429.0	-6149.0	349415.0
20	17	29	41	684	242.0	-194976.0	-6127.0	349799.0
20	17	29	41	684	243.0	-193569.0	-6187.0	348995.0
20	17	29	41	685	244.0	-191412.0	-6290.0	347684.0
20	17	29	41	686	245.0	-189764.0	-6294.0	347794.0
20	17	29	41	687	246.0	-189176.0	-6416.0	347476.0
20	17	29	41	687	247.0	-188451.0	-6134.0	346868.0
20	17	29	41	688	248.0	-188129.0	-6374.0	347404.0
20	17	29	41	688	249.0	-187751.0	-6084.0	347914.0
20	17	29	41	689	250.0	-187627.0	-5951.0	348595.0
20	17	29	41	690	251.0	-187919.0	-6009.0	349216.0
20	17	29	41	690	252.0	-187957.0	-6007.0	349853.0
20	17	29	41	691	253.0	-188292.0	-6434.0	348556.0
20	17	29	41	691	254.0	-187918.0	-6867.0	347244.0
20	17	29	41	692	255.0	-187802.0	-6302.0	347069.0
20	17	29	41	693	0.0	-188879.0	-6351.0	346403.0
20	17	29	41	693	1.0	-190207.0	-6577.0	345943.0
20	17	29	41	694	2.0	-191586.0	-6499.0	345738.0
20	17	29	41	709	3.0	-193521.0	-6151.0	344001.0
20	17	29	41	709	4.0	-196139.0	-6214.0	343623.0
20	17	29	41	710	5.0	-198401.0	-6045.0	345808.0
20	17	29	41	711	6.0	-200357.0	-5966.0	348140.0
20	17	29	41	711	7.0	-202600.0	-6529.0	348294.0
20	17	29	41	712	8.0	-204243.0	-6731.0	346626.0
20	17	29	41	713	9.0	-205555.0	-6772.0	345306.0
20	17	29	41	713	10.0	-206515.0	-6224.0	344684.0
20	17	29	41	739	11.0	-206763.0	-6229.0	342376.0
20	17	29	41	740	12.0	-207172.0	-6501.0	342436.0
20	17	29	41	741	13.0	-207346.0	-6412.0	341970.0
20	17	29	41	741	14.0	-206781.0	-6551.0	340948.0
20	17	29	41	742	15.0	-206178.0	-5426.0	340959.0
20	17	29	41	742	16.0	-205084.0	-4735.0	341166.0
20	17	29	41	743	17.0	-204244.0	-5968.0	339728.0
20	17	29	41	754	18.0	-203029.0	-5570.0	338040.0
20	17	29	41	755	19.0	-201185.0	-5899.0	335580.0
20	17	29	41	755	20.0	-200184.0	-5259.0	333167.0
20	17	29	41	756	21.0	-199496.0	-5463.0	331523.0
20	17	29	41	757	22.0	-199059.0	-5475.0	331806.0
20	17	29	41	757	23.0	-199577.0	-5824.0	332009.0
20	17	29	41	758	24.0	-199917.0	-6519.0	330103.0
20	17	29	41	778	25.0	-200431.0	-6362.0	328265.0
20	17	29	41	778	28.0	-204229.0	-6292.0	322699.0
20	17	29	41	779	29.0	-204600.0	-5939.0	319809.0
20	17	29	41	780	30.0	-205122.0	-6162.0	317907.0
20	17	29	41	780	31.0	-205046.0	-7582.0	316686.0
20	17	29	41	781	32.0	-204812.0	-6906.0	316746.0
20	17	29	41	781	33.0	-203984.0	-5524.0	316202.0
20	17	29	41	809	34.0	-202883.0	-6511.0	316665.0
20	17	29	41	809	35.0	-201261.0	-6168.0	318126.0
20	17	29	41	810	36.0	-199092.0	-6253.0	319716.0
20	17	29	41	811	37.0	-197536.0	-6215.0	318181.0
20	17	29	41	811	38.0	-195453.0	-6069.0	317040.0
20	17	29	41	812	39.0	-193689.0	-6984.0	315912.0
20	17	29	41	812	40.0	-192745.0	-6474.0	313514.0
20	17	29	41	824	41.0	-191464.0	-6072.0	312615.0
20	17	29	41	825	42.0	-190366.0	-5729.0	313504.0
20	17	29	41	825	51.0	-185843.0	-5773.0	307596.0
20	17	29	41	826	52.0	-186823.0	-6301.0	307621.0
20	17	29	41	826	53.0	-188064.0	-6468.0	308694.0
20	17	29	41	827	54.0	-189911.0	-6411.0	309968.0
20	17	29	41	828	55.0	-191986.0	-5946.0	310445.0
20	17	29	41	847	56.0	-194319.0	-5709.0	309381.0
20	17	29	41	847	57.0	-196902.0	-5740.0	307329.0
20	17	29	41	848	66.0	-212658.0	-6324.0	295756.0
20	17	29	41	849	67.0	-214321.0	-5752.0	294478.0
20	17	29	41	849	68.0	-215281.0	-5602.0	290781.0
20	17	29	41	850	69.0	-215787.0	-5769.0	286349.0
20	17	29	41	850	70.0	-216700.0	-6273.0	283066.0
20	17	29	41	851	71.0	-217422.0	-5816.0	280439.0
20	17	29	41	851	72.0	-218212.0	-5827.0	278554.0
20	17	29	41	852	74.0	-220312.0	-5909.0	272970.0
20	17	29	41	853	75.0	-220906.0	-6137.0	271116.0
20	17	29	41	853	76.0	-221189.0	-5557.0	269611.0
20	17	29	41	854	77.0	-220587.0	-5977.0	266536.0
20	17	29	41	854	78.0	-219332.0	-6078.0	262693.0
20	17	29	41	855	79.0	-217658.0	-6007.0	258543.0
20	17	29	41	856	80.0	-215305.0	-5811.0	255023.0
20	17	29	41	856	81.0	-213017.0	-6236.0	254211.0
20	17	29	41	857	82.0	-210167.0	-5951.0	255436.0
20	17	29	41	857	83.0	-207480.0	-6074.0	257044.0
20	17	29	41	858	84.0	-205294.0	-6162.0	258460.0
20	17	29	41	858	85.0	-203620.0	-6172.0	259201.0
20	17	29	41	859	86.0	-202929.0	-6157.0	258591.0
20	17	29	41	859	87.0	-203350.0	-6219.0	258643.0
20	17	29	41	860	88.0	-204708.0	-7042.0	258833.0
20	17	29	41	860	89.0	-206783.0	-6777.0	260415.0
20	17	29	41	870	90.0	-208976.0	-5900.0	261348.0
20	17	29	41	871	91.0	-211412.0	-6250.0	262308.0
20	17	29	41	871	92.0	-213136.0	-6608.0	262639.0
20	17	29	41	872	93.0	-213986.0	-6072.0	262986.0
20	17	29	41	872	94.0	-213853.0	-5593.0	265119.0
20	17	29	41	873	95.0	-212549.0	-5984.0	267459.0
20	17	29	41	873	96.0	-210339.0	-6687.0	267303.0
20	17	29	41	894	97.0	-207364.0	-7244.0	263725.0
20	17	29	41	895	98.0	-202294.0	-6342.0	259651.0
20	17	29	41	895	99.0	-197919.0	-5590.0	256249.0
20	17	29	41	896	100.0	-194639.0	-5281.0	254319.0
20	17	29	41	897	101.0	-190391.0	-6336.0	253636.0
20	17	29	41	897	102.0	-185832.0	-6106.0	252435.0
20	17	29	41	898	103.0	-181283.0	-5899.0	252391.0
20	17	29	41	898	104.0	-177807.0	-5956.0	251444.0
20	17	29	41	899	105.0	-177560.0	-5550.0	249813.0
20	17	29	41	900	106.0	-180528.0	-5983.0	248065.0
20	17	29	41	900	107.0	-185008.0	-6066.0	244014.0
20	17	29	41	901	108.0	-189635.0	-6037.0	240323.0
20	17	29	41	901	109.0	-193544.0	-6444.0	237887.0
20	17	29	41	902	110.0	-195339.0	-6204.0	236619.0
20	17	29	41	902	111.0	-194072.0	-5937.0	236198.0
20	17	29	41	903	112.0	-190870.0	-5962.0	235109.0
20	17	29	41	916	113.0	-187669.0	-6052.0	233888.0
20	17	29	41	917	114.0	-184816.0	-6261.0	233318.0
20	17	29	41	918	115.0	-184066.0	-6414.0	233899.0
20	17	29	41	918	116.0	-185113.0	-5752.0	235002.0
20	17	29	41	919	117.0	-187140.0	-6079.0	232909.0
20	17	29	41	919	118.0	-189744.0	-7459.0	230396.0
20	17	29	41	920	119.0	-194131.0	-7294.0	228176.0
20	17	29	41	940	120.0	-198956.0	-6254.0	226276.0
20	17	29	41	940	121.0	-204549.0	-5857.0	225708.0
20	17	29	41	941	122.0	-211714.0	-5856.0	224071.0
20	17	29	41	942	123.0	-219609.0	-5796.0	222168.0
20	17	29	41	942	124.0	-226841.0	-5738.0	220509.0
20	17	29	41	943	125.0	-232494.0	-5633.0	220000.0
20	17	29	41	943	126.0	-236024.0	-5462.0	219404.0
20	17	29	41	944	127.0	-236817.0	-5754.0	217444.0
20	17	29	41	945	128.0	-235211.0	-5993.0	215969.0
20	17	29	41	945	129.0	-231286.0	-6086.0	213321.0
20	17	29	41	946	130.0	-225946.0	-6254.0	210704.0
20	17	29	41	946	131.0	-220127.0	-6096.0	211081.0
20	17	29	41	947	132.0	-214617.0	-6015.0	211551.0
20	17	29	41	947	133.0	-210447.0	-5981.0	210101.0
20	17	29	41	962	134.0	-208091.0	-6143.0	208650.0
20	17	29	41	963	135.0	-207605.0	-5834.0	208974.0
20	17	29	41	964	136.0	-207667.0	-5881.0	208821.0
20	17	29	41	964	137.0	-207648.0	-5831.0	207381.0
20	17	29	41	965	138.0	-206163.0	-5952.0	204551.0
20	17	29	41	965	139.0	-203509.0	-6006.0	201719.0
20	17	29	41	966	140.0	-200348.0	-5476.0	199428.0
20	17	29	41	986	141.0	-196413.0	-5587.0	197486.0
20	17	29	41	987	142.0	-192701.0	-5840.0	197443.0
20	17	29	41	987	143.0	-189211.0	-5761.0	197458.0
20	17	29	41	988	144.0	-185802.0	-5745.0	196927.0
20	17	29	41	989	145.0	-182571.0	-5572.0	196415.0
20	17	29	41	989	146.0	-180061.0	-5329.0	195963.0
20	17	29	41	990	147.0	-178270.0	-5882.0	194173.0
20	17	29	41	990	148.0	-176975.0	-5863.0	191490.0
20	17	29	41	991	149.0	-176481.0	-5869.0	189167.0
20	17	29	41	991	150.0	-177039.0	-5761.0	185768.0
20	17	29	41	992	151.0	-178384.0	-5626.0	183359.0
20	17	29	42	9	152.0	-180276.0	-5681.0	181566.0
20	17	29	42	10	153.0	-182092.0	-5417.0	179559.0
20	17	29	42	10	154.0	-184351.0	-5309.0	178667.0
20	17	29	42	11	155.0	-186926.0	-5494.0	179179.0
20	17	29	42	11	156.0	-189033.0	-5126.0	179104.0
20	17	29	42	12	157.0	-190090.0	-5001.0	176467.0
20	17	29	42	13	158.0	-190472.0	-5365.0	172144.0
20	17	29	42	13	159.0	-190316.0	-5269.0	168327.0
20	17	29	42	14	160.0	-189573.0	-5732.0	166227.0
20	17	29	42	14	161.0	-188652.0	-5566.0	165984.0
20	17	29	42	15	162.0	-187623.0	-5572.0	165661.0
20	17	29	42	15	163.0	-186745.0	-5789.0	163908.0
20	17	29	42	16	164.0	-186317.0	-5315.0	161618.0
20	17	29	42	17	165.0	-186237.0	-4006.0	161208.0
20	17	29	42	17	166.0	-186417.0	-5232.0	160082.0
20	17	29	42	18	167.0	-186874.0	-5826.0	157654.0
20	17	29	42	18	168.0	-188322.0	-5161.0	155851.0
20	17	29	42	19	169.0	-190724.0	-5209.0	153619.0
20	17	29	42	19	170.0	-193821.0	-5907.0	153266.0
20	17	29	42	32	171.0	-197296.0	-5689.0	153189.0
20	17	29	42	33	172.0	-200630.0	-5566.0	151879.0
20	17	29	42	34	173.0	-203632.0	-5475.0	149384.0
20	17	29	42	34	174.0	-206016.0	-5279.0	147237.0
20	17	29	42	35	175.0	-207889.0	-5631.0	147041.0
20	17	29	42	36	176.0	-209106.0	-4932.0	144744.0
20	17	29	42	36	177.0	-210037.0	-4902.0	141873.0
20	17	29	42	37	178.0	-210826.0	-5688.0	139072.0
20	17	29	42	37	179.0	-211371.0	-5576.0	136819.0
20	17	29	42	38	180.0	-211779.0	-5468.0	135343.0
20	17	29	42	57	181.0	-211951.0	-5265.0	135669.0
20	17	29	42	57	182.0	-212197.0	-5292.0	134399.0
20	17	29	42	58	183.0	-212129.0	-5615.0	132852.0
20	17	29	42	59	184.0	-211761.0	-5148.0	131619.0
20	17	29	42	59	185.0	-210861.0	-5229.0	129569.0
20	17	29	42	60	186.0	-209722.0	-5599.0	126751.0
20	17	29	42	81	187.0	-208539.0	-5453.0	123863.0
20	17	29	42	81	188.0	-207243.0	-5314.0	120933.0
20	17	29	42	82	189.0	-205806.0	-5361.0	118141.0
20	17	29	42	82	190.0	-204671.0	-5491.0	115622.0
20	17	29	42	83	191.0	-203804.0	-5217.0	115512.0
20	17	29	42	83	192.0	-202956.0	-5326.0	115919.0
20	17	29	42	84	193.0	-202013.0	-5119.0	114854.0
20	17	29	42	85	194.0	-201004.0	-5027.0	115095.0
20	17	29	42	85	195.0	-200057.0	-5265.0	114943.0
20	17	29	42	86	196.0	-198957.0	-5537.0	114741.0
20	17	29	42	86	197.0	-197623.0	-5289.0	114543.0
20	17	29	42	87	198.0	-196032.0	-5031.0	112475.0
20	17	29	42	87	199.0	-194831.0	-5198.0	109683.0
20	17	29	42	88	200.0	-193849.0	-4823.0	107900.0
20	17	29	42	89	201.0	-193210.0	-4852.0	108088.0
20	17	29	42	89	202.0	-193234.0	-4797.0	107365.0
20	17	29	42	108	203.0	-193733.0	-4812.0	105944.0
20	17	29	42	108	204.0	-194987.0	-4875.0	105410.0
20	17	29	42	109	205.0	-196472.0	-5132.0	105269.0
20	17	29	42	110	206.0	-197600.0	-5259.0	105633.0
20	17	29	42	110	207.0	-198582.0	-5266.0	107077.0
20	17	29	42	111	208.0	-199183.0	-5661.0	105084.0
20	17	29	42	112	209.0	-199491.0	-5631.0	103301.0
20	17	29	42	112	210.0	-199793.0	-5362.0	102274.0
20	17	29	42	113	211.0	-199975.0	-5416.0	102858.0
20	17	29	42	113	212.0	-199971.0	-6273.0	102764.0
20	17	29	42	114	213.0	-199954.0	-5203.0	103993.0
20	17	29	42	115	214.0	-199827.0	-5273.0	103914.0
20	17	29	42	126	215.0	-199754.0	-4914.0	103316.0
20	17	29	42	127	216.0	-199499.0	-5413.0	102100.0
20	17	29	42	127	217.0	-199502.0	-5379.0	98338.0
20	17	29	42	128	218.0	-199850.0	-5013.0	94794.0
20	17	29	42	129	219.0	-200362.0	-5197.0	93566.0
20	17	29	42	129	220.0	-200942.0	-5389.0	92348.0
20	17	29	42	130	221.0	-201207.0	-5311.0	91583.0
20	17	29	42	149	222.0	-201212.0	-5197.0	92151.0
20	17	29	42	173	223.0	-201068.0	-5477.0	94440.0
20	17	29	42	174	224.0	-200652.0	-5596.0	96558.0
20	17	29	42	174	225.0	-200015.0	-5687.0	98403.0
20	17	29	42	175	226.0	-199416.0	-6081.0	97527.0
20	17	29	42	175	227.0	-198686.0	-6016.0	94379.0
20	17	29	42	176	228.0	-197931.0	-5808.0	93266.0
20	17	29	42	176	229.0	-197238.0	-5059.0	92439.0
20	17	29	42	177	230.0	-195827.0	-4885.0	93759.0
20	17	29	42	177	231.0	-194379.0	-4953.0	95551.0
20	17	29	42	178	232.0	-193024.0	-5502.0	97015.0
20	17	29	42	179	233.0	-191688.0	-5244.0	98056.0
20	17	29	42	179	234.0	-190546.0	-4844.0	99589.0
20	17	29	42	180	235.0	-189406.0	-4971.0	100963.0
20	17	29	42	196	236.0	-188289.0	-5270.0	101001.0
20	17	29	42	197	237.0	-187089.0	-5362.0	101251.0
20	17	29	42	198	238.0	-186648.0	-5747.0	100460.0
20	17	29	42	198	239.0	-186830.0	-4214.0	97982.0
20	17	29	42	199	240.0	-187105.0	-4726.0	96214.0
20	17	29	42	199	241.0	-188297.0	-5534.0	96270.0
20	17	29	42	200	242.0	-190111.0	-5327.0	97644.0
20	17	29	42	201	243.0	-192394.0	-5079.0	97241.0
20	17	29	42	201	246.0	-201791.0	-5161.0	98289.0
20	17	29	42	202	247.0	-206497.0	-5392.0	94182.0
20	17	29	42	202	248.0	-212785.0	-5909.0	91522.0
20	17	29	42	203	249.0	-216352.0	-5955.0	89751.0
20	17	29	42	203	250.0	-212649.0	-5680.0	89053.0
20	17	29	42	204	251.0	-207752.0	-5526.0	88789.0
20	17	29	42	223	252.0	-201636.0	-5520.0	88233.0
20	17	29	42	223	253.0	-199013.0	-4819.0	88881.0
20	17	29	42	245	254.0	-198386.0	-5272.0	90183.0
20	17	29	42	246	255.0	-197516.0	-5323.0	90909.0
20	17	29	42	247	0.0	-198248.0	-5301.0	89576.0
20	17	29	42	247	1.0	-200863.0	-5262.0	88679.0
20	17	29	42	248	2.0	-201813.0	-5153.0	86626.0
20	17	29	42	248	3.0	-202168.0	-5378.0	85513.0
20	17	29	42	249	4.0	-201730.0	-5360.0	85789.0
20	17	29	42	249	5.0	-200181.0	-5499.0	85723.0
20	17	29	42	268	6.0	-197802.0	-5056.0	84848.0
20	17	29	42	269	7.0	-194887.0	-5403.0	85996.0
20	17	29	42	269	8.0	-192291.0	-5827.0	87642.0
20	17	29	42	270	9.0	-190994.0	-5342.0	87259.0
20	17	29	42	270	10.0	-190944.0	-5316.0	85713.0
20	17	29	42	271	11.0	-191733.0	-5436.0	83358.0
20	17	29	42	271	12.0	-193256.0	-5411.0	80822.0
20	17	29	42	272	20.0	-205743.0	-5454.0	76239.0
20	17	29	42	273	21.0	-206436.0	-5424.0	74567.0
20	17	29	42	273	22.0	-206748.0	-5650.0	73049.0
20	17	29	42	274	23.0	-206706.0	-5545.0	72499.0
20	17	29	42	274	24.0	-206140.0	-5361.0	72602.0
20	17	29	42	275	25.0	-205152.0	-5512.0	73949.0
20	17	29	42	275	26.0	-203776.0	-5282.0	73060.0
20	17	29	42	276	27.0	-202226.0	-5131.0	73675.0
20	17	29	42	277	28.0	-200854.0	-5124.0	76296.0
20	17	29	42	277	35.0	-192354.0	-5138.0	71586.0
20	17	29	42	278	36.0	-190871.0	-5236.0	72838.0
20	17	29	42	278	37.0	-189483.0	-5180.0	74297.0
20	17	29	42	279	38.0	-188256.0	-5195.0	75663.0
20	17	29	42	279	39.0	-187506.0	-5523.0	76435.0
20	17	29	42	280	40.0	-187297.0	-5444.0	74970.0
20	17	29	42	281	41.0	-187759.0	-5410.0	72739.0
20	17	29	42	281	42.0	-188681.0	-5057.0	70755.0
20	17	29	42	291	43.0	-189771.0	-5195.0	70078.0
20	17	29	42	291	44.0	-191256.0	-3939.0	72669.0
20	17	29	42	292	45.0	-192890.0	-4369.0	75382.0
20	17	29	42	293	46.0	-194659.0	-5601.0	74595.0
20	17	29	42	293	47.0	-196655.0	-6220.0	75110.0
20	17	29	42	294	48.0	-198537.0	-4792.0	76559.0
20	17	29	42	294	49.0	-200439.0	-5134.0	76696.0
20	17	29	42	295	50.0	-202021.0	-5180.0	74038.0
20	17	29	42	295	51.0	-203188.0	-4994.0	71851.0
20	17	29	42	314	52.0	-204017.0	-4703.0	70341.0
20	17	29	42	314	53.0	-204494.0	-5109.0	71168.0
20	17	29	42	315	54.0	-204863.0	-5239.0	72393.0
20	17	29	42	315	55.0	-204999.0	-5061.0	74591.0
20	17	29	42	316	56.0	-205073.0	-5103.0	74534.0
20	17	29	42	317	57.0	-205256.0	-5081.0	73863.0
20	17	29	42	317	58.0	-205377.0	-4858.0	72888.0
20	17	29	42	318	59.0	-205765.0	-5125.0	72812.0
20	17	29	42	318	60.0	-206360.0	-4868.0	70864.0
20	17	29	42	319	61.0	-206992.0	-5118.0	68226.0
20	17	29	42	320	62.0	-207727.0	-5486.0	66078.0
20	17	29	42	321	63.0	-208282.0	-6128.0	64758.0
20	17	29	42	321	64.0	-208357.0	-5139.0	64636.0
20	17	29	42	337	65.0	-208161.0	-4792.0	64375.0
20	17	29	42	337	66.0	-207801.0	-4934.0	63329.0
20	17	29	42	338	67.0	-207197.0	-5131.0	63347.0
20	17	29	42	339	68.0	-206602.0	-4844.0	63163.0
20	17	29	42	339	69.0	-206241.0	-4893.0	61858.0
20	17	29	42	340	70.0	-205716.0	-5629.0	58658.0
20	17	29	42	340	71.0	-205143.0	-5926.0	56034.0
20	17	29	42	363	72.0	-204685.0	-5729.0	55765.0
20	17	29	42	364	73.0	-204088.0	-5595.0	55311.0
20	17	29	42	365	74.0	-203517.0	-4862.0	55598.0
20	17	29	42	365	75.0	-202937.0	-5054.0	57127.0
20	17	29	42	366	76.0	-202498.0	-5081.0	59569.0
20	17	29	42	367	77.0	-202273.0	-4956.0	60454.0
20	17	29	42	367	78.0	-201704.0	-5171.0	62036.0
20	17	29	42	368	79.0	-200452.0	-5104.0	62008.0
20	17	29	42	369	80.0	-198557.0	-5101.0	60745.0
20	17	29	42	370	81.0	-196286.0	-5233.0	59736.0
20	17	29	42	370	82.0	-193699.0	-5522.0	59793.0
20	17	29	42	371	83.0	-191144.0	-5276.0	59853.0
20	17	29	42	372	84.0	-188606.0	-5132.0	60861.0
20	17	29	42	372	85.0	-186613.0	-5029.0	61606.0
20	17	29	42	373	86.0	-185006.0	-4888.0	62814.0
20	17	29	42	373	87.0	-184182.0	-5302.0	64520.0
20	17	29	42	374	88.0	-184097.0	-5131.0	67430.0
20	17	29	42	375	89.0	-184151.0	-5004.0	68933.0
20	17	29	42	375	90.0	-184502.0	-5121.0	68642.0
20	17	29	42	383	91.0	-184984.0	-5526.0	68528.0
20	17	29	42	384	92.0	-185418.0	-5197.0	69358.0
20	17	29	42	384	93.0	-185981.0	-4308.0	70774.0
20	17	29	42	385	94.0	-186506.0	-4914.0	72707.0
20	17	29	42	406	95.0	-187552.0	-5107.0	72638.0
20	17	29	42	406	96.0	-189009.0	-5111.0	72607.0
20	17	29	42	407	97.0	-190596.0	-4971.0	71531.0
20	17	29	42	408	98.0	-192142.0	-4788.0	71744.0
20	17	29	42	409	99.0	-193503.0	-5039.0	72344.0
20	17	29	42	409	100.0	-194674.0	-5299.0	72315.0
20	17	29	42	410	101.0	-195531.0	-5094.0	71863.0
20	17	29	42	410	102.0	-196132.0	-4966.0	71396.0
20	17	29	42	411	103.0	-196610.0	-5017.0	70435.0
20	17	29	42	412	104.0	-197064.0	-5297.0	69370.0
20	17	29	42	412	105.0	-197616.0	-5410.0	68810.0
20	17	29	42	413	106.0	-198323.0	-4795.0	68453.0
20	17	29	42	413	107.0	-199262.0	-5221.0	67603.0
20	17	29	42	414	108.0	-200407.0	-5294.0	67501.0
20	17	29	42	438	109.0	-201479.0	-5077.0	66491.0
20	17	29	42	439	110.0	-202604.0	-5675.0	63316.0
20	17	29	42	440	111.0	-203827.0	-5291.0	60732.0
20	17	29	42	440	112.0	-204854.0	-5019.0	58441.0
20	17	29	42	441	113.0	-205469.0	-5121.0	57251.0
20	17	29	42	442	114.0	-205960.0	-5241.0	55506.0
20	17	29	42	442	115.0	-206330.0	-5467.0	54290.0
20	17	29	42	453	116.0	-206757.0	-5625.0	54007.0
20	17	29	42	454	117.0	-207199.0	-4902.0	52989.0
20	17	29	42	454	118.0	-207604.0	-5299.0	53134.0
20	17	29	42	455	119.0	-208199.0	-4906.0	53677.0
20	17	29	42	456	120.0	-208774.0	-5033.0	52641.0
20	17	29	42	456	121.0	-209018.0	-4969.0	50856.0
20	17	29	42	457	122.0	-208855.0	-5214.0	49774.0
20	17	29	42	475	123.0	-208446.0	-4962.0	49766.0
20	17	29	42	476	124.0	-207614.0	-5063.0	50093.0
20	17	29	42	477	125.0	-206339.0	-5500.0	49437.0
20	17	29	42	477	126.0	-204862.0	-5027.0	50024.0
20	17	29	42	478	127.0	-203424.0	-4857.0	50245.0
20	17	29	42	478	128.0	-202132.0	-4679.0	50542.0
20	17	29	42	479	129.0	-201048.0	-4643.0	50013.0
20	17	29	42	499	130.0	-200339.0	-5109.0	48821.0
20	17	29	42	500	131.0	-200146.0	-5124.0	48211.0
20	17	29	42	501	132.0	-200233.0	-4801.0	46571.0
20	17	29	42	501	133.0	-200459.0	-4790.0	45465.0
20	17	29	42	502	134.0	-200699.0	-4815.0	45311.0
20	17	29	42	502	135.0	-201026.0	-4997.0	45907.0
20	17	29	42	503	136.0	-201289.0	-4968.0	46886.0
20	17	29	42	503	137.0	-201444.0	-5163.0	49024.0
20	17	29	42	504	138.0	-201507.0	-4892.0	49308.0
20	17	29	42	505	140.0	-201252.0	-4924.0	46059.0
20	17	29	42	505	141.0	-201471.0	-5268.0	43092.0
20	17	29	42	506	142.0	-201912.0	-4931.0	42049.0
20	17	29	42	506	143.0	-202436.0	-4648.0	41445.0
20	17	29	42	507	144.0	-202815.0	-4969.0	41099.0
20	17	29	42	522	145.0	-203016.0	-5626.0	40748.0
20	17	29	42	523	146.0	-203262.0	-5739.0	40560.0
20	17	29	42	524	147.0	-203337.0	-5113.0	41900.0
20	17	29	42	524	148.0	-203286.0	-4869.0	43638.0
20	17	29	42	525	149.0	-203351.0	-4686.0	43857.0
20	17	29	42	525	150.0	-203269.0	-5235.0	43133.0
20	17	29	42	526	151.0	-203079.0	-6397.0	41694.0
20	17	29	42	527	152.0	-202633.0	-4842.0	40213.0
20	17	29	42	527	153.0	-202102.0	-4882.0	40653.0
20	17	29	42	528	155.0	-201059.0	-4763.0	41742.0
20	17	29	42	529	156.0	-200762.0	-5356.0	42999.0
20	17	29	42	529	157.0	-200584.0	-5326.0	43492.0
20	17	29	42	530	158.0	-200669.0	-4944.0	43959.0
20	17	29	42	530	159.0	-200819.0	-4899.0	41887.0
20	17	29	42	545	160.0	-200756.0	-4609.0	39130.0
20	17	29	42	545	161.0	-200612.0	-3343.0	36771.0
20	17	29	42	546	162.0	-200084.0	-4319.0	35659.0
20	17	29	42	546	163.0	-199724.0	-4629.0	33775.0
20	17	29	42	547	164.0	-199590.0	-3357.0	32383.0
20	17	29	42	548	165.0	-199684.0	-4411.0	32088.0
20	17	29	42	548	166.0	-200069.0	-4824.0	31299.0
20	17	29	42	568	167.0	-200842.0	-4609.0	30587.0
20	17	29	42	569	168.0	-201769.0	-4751.0	32394.0
20	17	29	42	569	170.0	-204060.0	-5247.0	33381.0
20	17	29	42	570	171.0	-205291.0	-5149.0	32896.0
20	17	29	42	571	172.0	-206436.0	-5142.0	33198.0
20	17	29	42	571	173.0	-207862.0	-4800.0	35005.0
20	17	29	42	572	174.0	-209432.0	-4737.0	38208.0
20	17	29	42	572	175.0	-210789.0	-4762.0	40783.0
20	17	29	42	573	176.0	-211899.0	-4722.0	43103.0
20	17	29	42	574	177.0	-212797.0	-4597.0	46739.0
20	17	29	42	574	178.0	-213153.0	-4536.0	50214.0
20	17	29	42	575	179.0	-212793.0	-4874.0	51718.0
20	17	29	42	575	180.0	-211454.0	-4327.0	52676.0
20	17	29	42	576	181.0	-209069.0	-4398.0	53030.0
20	17	29	42	576	182.0	-205909.0	-4694.0	52494.0
20	17	29	42	577	183.0	-201911.0	-4856.0	52151.0
20	17	29	42	578	185.0	-193146.0	-4522.0	50418.0
20	17	29	42	578	186.0	-189048.0	-4813.0	49886.0
20	17	29	42	579	187.0	-185356.0	-4949.0	48979.0
20	17	29	42	590	188.0	-181473.0	-4796.0	48676.0
20	17	29	42	591	189.0	-177559.0	-4310.0	46909.0
20	17	29	42	592	190.0	-174444.0	-4601.0	44743.0
20	17	29	42	592	191.0	-173858.0	-4972.0	42654.0
20	17	29	42	593	192.0	-176201.0	-4824.0	41034.0
20	17	29	42	593	193.0	-180748.0	-4753.0	39848.0
20	17	29	42	594	194.0	-186034.0	-4436.0	38422.0
20	17	29	42	595	195.0	-190139.0	-4239.0	37401.0
20	17	29	42	595	196.0	-192315.0	-4749.0	38057.0
20	17	29	42	596	197.0	-192257.0	-4406.0	38816.0
20	17	29	42	597	198.0	-191593.0	-4694.0	39625.0
20	17	29	42	597	199.0	-191129.0	-5002.0	39908.0
20	17	29	42	598	200.0	-190734.0	-4446.0	38803.0
20	17	29	42	598	201.0	-191241.0	-4185.0	36799.0
20	17	29	42	599	202.0	-192798.0	-4634.0	36557.0
20	17	29	42	599	203.0	-195754.0	-4546.0	36490.0
20	17	29	42	613	204.0	-200252.0	-4245.0	36818.0
20	17	29	42	614	205.0	-206132.0	-4544.0	37844.0
20	17	29	42	614	206.0	-212637.0	-4276.0	38381.0
20	17	29	42	615	207.0	-218981.0	-4413.0	38579.0
20	17	29	42	635	208.0	-225007.0	-4818.0	39611.0
20	17	29	42	636	209.0	-230167.0	-4951.0	37389.0
20	17	29	42	637	210.0	-234229.0	-4941.0	34631.0
20	17	29	42	637	211.0	-236606.0	-4669.0	33212.0
20	17	29	42	638	212.0	-236827.0	-4447.0	33308.0
20	17	29	42	638	213.0	-234946.0	-4468.0	33711.0
20	17	29	42	639	214.0	-231341.0	-4504.0	32474.0
