20	10	3	4	833	118.0	-195794.0	1213.0	-106960.0
20	10	3	4	836	119.0	-195902.0	1220.0	-106891.0
20	10	3	4	839	120.0	-195524.0	1235.0	-106719.0
20	10	3	4	841	121.0	-194723.0	1240.0	-106674.0
20	10	3	4	843	122.0	-193917.0	1261.0	-106677.0
20	10	3	4	846	123.0	-193447.0	1276.0	-106493.0
20	10	3	4	848	124.0	-193347.0	1295.0	-106241.0
20	10	3	4	850	125.0	-193649.0	1305.0	-106104.0
20	10	3	4	851	126.0	-194219.0	1323.0	-106072.0
20	10	3	4	853	127.0	-194886.0	1344.0	-105829.0
20	10	3	4	855	128.0	-195362.0	1374.0	-105663.0
20	10	3	4	857	129.0	-195558.0	1398.0	-105697.0
20	10	3	4	857	130.0	-195376.0	1422.0	-105717.0
20	10	3	4	858	131.0	-196084.0	1416.0	-105519.0
20	10	3	4	859	132.0	-195840.0	1428.0	-105300.0
20	10	3	4	860	133.0	-194637.0	1433.0	-105276.0
20	10	3	4	860	134.0	-194244.0	1446.0	-105206.0
20	10	3	4	861	135.0	-193944.0	1457.0	-104919.0
20	10	3	4	862	136.0	-193373.0	1464.0	-104693.0
20	10	3	4	870	137.0	-192511.0	1463.0	-104692.0
20	10	3	4	871	138.0	-191513.0	1484.0	-104608.0
20	10	3	4	871	139.0	-190700.0	1491.0	-104381.0
20	10	3	4	872	140.0	-190132.0	1502.0	-104284.0
20	10	3	4	898	141.0	-189582.0	1496.0	-104319.0
20	10	3	4	935	142.0	-188689.0	1458.0	-104171.0
20	10	3	4	937	143.0	-187582.0	1464.0	-103946.0
20	10	3	4	937	144.0	-186037.0	1473.0	-103789.0
20	10	3	4	938	145.0	-184500.0	1465.0	-103717.0
20	10	3	4	939	146.0	-183247.0	1463.0	-103524.0
20	10	3	4	939	147.0	-181991.0	1454.0	-103329.0
20	10	3	4	940	148.0	-180494.0	1448.0	-103227.0
20	10	3	4	940	149.0	-179079.0	1429.0	-103112.0
20	10	3	4	941	150.0	-178157.0	1431.0	-103010.0
20	10	3	4	942	151.0	-177567.0	1436.0	-102997.0
20	10	3	4	942	152.0	-177326.0	1429.0	-102874.0
20	10	3	4	943	153.0	-177127.0	1414.0	-102679.0
20	10	3	4	980	154.0	-177096.0	1409.0	-102517.0
20	10	3	4	981	155.0	-177422.0	1413.0	-102392.0
20	10	3	4	982	156.0	-177656.0	1404.0	-102146.0
20	10	3	4	983	174.0	-206044.0	1199.0	-98857.0
20	10	3	4	984	175.0	-206837.0	1166.0	-98473.0
20	10	3	4	985	176.0	-207586.0	1143.0	-98061.0
20	10	3	4	985	177.0	-208078.0	1139.0	-97904.0
20	10	3	5	26	178.0	-208225.0	1127.0	-97792.0
20	10	3	5	27	179.0	-208331.0	1101.0	-97569.0
20	10	3	5	28	180.0	-208791.0	1069.0	-97336.0
20	10	3	5	28	181.0	-209277.0	1059.0	-97301.0
20	10	3	5	29	182.0	-209800.0	1055.0	-97261.0
20	10	3	5	30	183.0	-210134.0	1033.0	-97023.0
20	10	3	5	30	184.0	-210606.0	991.0	-96847.0
20	10	3	5	70	185.0	-211533.0	949.0	-96801.0
20	10	3	5	71	186.0	-212524.0	928.0	-96719.0
20	10	3	5	71	197.0	-214235.0	618.0	-96392.0
20	10	3	5	72	198.0	-213697.0	583.0	-96394.0
20	10	3	5	73	199.0	-213291.0	550.0	-96526.0
20	10	3	5	73	200.0	-212720.0	518.0	-96536.0
20	10	3	5	74	201.0	-211872.0	483.0	-96479.0
20	10	3	5	116	202.0	-210797.0	438.0	-96580.0
20	10	3	5	117	203.0	-209736.0	413.0	-96726.0
20	10	3	5	117	219.0	-202489.0	-79.0	-97261.0
20	10	3	5	118	220.0	-201711.0	-127.0	-97319.0
20	10	3	5	118	221.0	-200841.0	-159.0	-97424.0
20	10	3	5	119	222.0	-200051.0	-186.0	-97475.0
20	10	3	5	120	223.0	-199138.0	-206.0	-97371.0
20	10	3	5	161	224.0	-198288.0	-222.0	-97303.0
20	10	3	5	161	225.0	-197314.0	-255.0	-97298.0
20	10	3	5	162	242.0	-193869.0	-766.0	-96397.0
20	10	3	5	163	243.0	-196089.0	-784.0	-96453.0
20	10	3	5	163	244.0	-198297.0	-824.0	-96135.0
20	10	3	5	164	245.0	-199579.0	-853.0	-95843.0
20	10	3	5	164	246.0	-200757.0	-905.0	-95859.0
20	10	3	5	206	247.0	-200206.0	-932.0	-95875.0
20	10	3	5	207	248.0	-198309.0	-945.0	-95674.0
20	10	3	5	207	8.0	-188779.0	-1372.0	-94652.0
20	10	3	5	208	9.0	-188836.0	-1405.0	-94668.0
20	10	3	5	209	10.0	-188986.0	-1427.0	-94683.0
20	10	3	5	209	11.0	-189553.0	-1449.0	-94685.0
20	10	3	5	210	12.0	-191594.0	-1464.0	-94717.0
20	10	3	5	297	13.0	-192593.0	-1502.0	-94654.0
20	10	3	5	340	14.0	-191812.0	-1539.0	-94609.0
20	10	3	5	341	31.0	-217947.0	-2118.0	-92542.0
20	10	3	5	342	32.0	-220970.0	-2160.0	-92283.0
20	10	3	5	342	33.0	-221764.0	-2193.0	-92224.0
20	10	3	5	343	34.0	-208702.0	-2221.0	-92355.0
20	10	3	5	343	35.0	-189764.0	-2245.0	-92272.0
20	10	3	5	344	36.0	-178053.0	-2289.0	-92042.0
20	10	3	5	477	37.0	-171030.0	-2310.0	-91951.0
20	10	3	5	478	53.0	-234486.0	-2891.0	-91547.0
20	10	3	5	478	54.0	-236922.0	-2942.0	-91599.0
20	10	3	5	479	55.0	-228787.0	-2976.0	-91673.0
20	10	3	5	479	56.0	-211943.0	-3011.0	-91548.0
20	10	3	5	480	57.0	-191112.0	-3049.0	-91354.0
20	10	3	5	481	58.0	-172638.0	-3092.0	-91369.0
20	10	3	5	482	59.0	-163344.0	-3134.0	-91386.0
20	10	3	5	483	120.0	-191105.0	-4389.0	-87122.0
20	10	3	5	484	121.0	-191269.0	-4377.0	-87067.0
20	10	3	5	484	122.0	-191271.0	-4380.0	-87004.0
20	10	3	5	485	123.0	-190874.0	-4364.0	-87001.0
20	10	3	5	486	124.0	-190407.0	-4326.0	-86947.0
20	10	3	5	487	125.0	-190206.0	-4287.0	-86847.0
20	10	3	5	488	126.0	-190352.0	-4244.0	-86802.0
20	10	3	5	489	127.0	-190564.0	-4214.0	-86755.0
20	10	3	5	490	188.0	-197281.0	-666.0	-83239.0
20	10	3	5	491	189.0	-192591.0	-626.0	-83009.0
20	10	3	5	491	190.0	-190629.0	-590.0	-82947.0
20	10	3	5	492	191.0	-191235.0	-554.0	-83066.0
20	10	3	5	493	192.0	-191917.0	-527.0	-82958.0
20	10	3	5	494	193.0	-191353.0	-504.0	-82768.0
20	10	3	5	521	194.0	-190431.0	-472.0	-82737.0
20	10	3	5	566	195.0	-191036.0	-458.0	-82743.0
20	10	3	5	567	196.0	-193953.0	-434.0	-82633.0
20	10	3	5	567	197.0	-198444.0	-424.0	-82561.0
20	10	3	5	568	198.0	-202495.0	-414.0	-82589.0
20	10	3	5	569	199.0	-205493.0	-379.0	-82537.0
20	10	3	5	569	200.0	-206989.0	-367.0	-82497.0
20	10	3	5	570	201.0	-207335.0	-351.0	-82508.0
20	10	3	5	570	202.0	-207163.0	-367.0	-82461.0
20	10	3	5	611	203.0	-207002.0	-337.0	-82402.0
20	10	3	5	612	204.0	-207516.0	-324.0	-82432.0
20	10	3	5	613	205.0	-208476.0	-332.0	-82398.0
20	10	3	5	613	206.0	-209441.0	-326.0	-82302.0
20	10	3	5	614	207.0	-209924.0	-307.0	-82286.0
20	10	3	5	614	208.0	-209781.0	-289.0	-82376.0
20	10	3	5	615	210.0	-208792.0	-274.0	-82135.0
20	10	3	5	657	233.0	-191347.0	-406.0	-80944.0
20	10	3	5	657	234.0	-190931.0	-434.0	-80898.0
20	10	3	5	658	235.0	-190510.0	-474.0	-80814.0
20	10	3	5	658	236.0	-190315.0	-506.0	-80794.0
20	10	3	5	659	237.0	-190465.0	-530.0	-80866.0
20	10	3	5	660	238.0	-190833.0	-561.0	-80868.0
20	10	3	5	660	239.0	-191016.0	-589.0	-80865.0
20	10	3	5	661	240.0	-191233.0	-602.0	-80857.0
20	10	3	5	662	255.0	-196885.0	-876.0	-80652.0
20	10	3	5	662	0.0	-196568.0	-917.0	-80584.0
20	10	3	5	663	1.0	-196816.0	-945.0	-80796.0
20	10	3	5	663	2.0	-197245.0	-969.0	-80954.0
20	10	3	5	664	3.0	-197820.0	-1009.0	-80841.0
20	10	3	5	665	4.0	-198443.0	-1042.0	-80796.0
20	10	3	5	666	5.0	-199044.0	-1064.0	-80956.0
20	10	3	5	667	6.0	-199306.0	-1103.0	-80932.0
20	10	3	5	668	22.0	-201081.0	-1600.0	-81466.0
20	10	3	5	669	23.0	-200969.0	-1614.0	-81594.0
20	10	3	5	669	24.0	-201269.0	-1634.0	-81657.0
20	10	3	5	670	25.0	-201867.0	-1657.0	-81761.0
20	10	3	5	671	26.0	-202537.0	-1676.0	-81863.0
20	10	3	5	671	27.0	-203231.0	-1701.0	-81819.0
20	10	3	5	702	28.0	-203901.0	-1733.0	-81881.0
20	10	3	5	702	29.0	-204484.0	-1758.0	-82147.0
20	10	3	5	703	30.0	-205238.0	-1780.0	-82293.0
20	10	3	5	704	31.0	-206126.0	-1807.0	-82357.0
20	10	3	5	704	32.0	-207188.0	-1839.0	-82504.0
20	10	3	5	705	33.0	-208125.0	-1857.0	-82819.0
20	10	3	5	705	34.0	-208640.0	-1876.0	-82889.0
20	10	3	5	706	35.0	-208823.0	-1890.0	-82870.0
20	10	3	5	746	36.0	-208751.0	-1899.0	-83111.0
20	10	3	5	747	37.0	-208610.0	-1917.0	-83342.0
20	10	3	5	747	38.0	-208596.0	-1956.0	-83354.0
20	10	3	5	748	39.0	-208753.0	-1996.0	-83523.0
20	10	3	5	749	40.0	-208603.0	-1991.0	-83898.0
20	10	3	5	749	41.0	-207930.0	-2001.0	-84176.0
20	10	3	5	750	42.0	-207292.0	-2034.0	-84282.0
20	10	3	5	791	44.0	-205774.0	-2057.0	-85005.0
20	10	3	5	792	45.0	-204796.0	-2068.0	-85101.0
20	10	3	5	792	46.0	-203829.0	-2076.0	-85137.0
20	10	3	5	793	47.0	-203256.0	-2089.0	-85461.0
20	10	3	5	794	48.0	-202801.0	-2119.0	-85686.0
20	10	3	5	794	49.0	-202334.0	-2129.0	-85763.0
20	10	3	5	795	50.0	-201809.0	-2141.0	-86033.0
20	10	3	5	795	51.0	-200909.0	-2139.0	-86553.0
20	10	3	5	836	66.0	-184614.0	-2476.0	-90601.0
20	10	3	5	837	67.0	-184676.0	-2507.0	-90856.0
20	10	3	5	837	68.0	-185964.0	-2527.0	-91177.0
20	10	3	5	838	69.0	-186647.0	-2537.0	-91386.0
20	10	3	5	838	70.0	-186631.0	-2546.0	-91817.0
20	10	3	5	839	71.0	-186524.0	-2565.0	-92401.0
20	10	3	5	840	72.0	-186802.0	-2576.0	-92893.0
20	10	3	5	840	73.0	-187482.0	-2607.0	-93159.0
20	10	3	5	841	89.0	-207595.0	-2905.0	-102834.0
20	10	3	5	842	90.0	-209016.0	-2921.0	-103862.0
20	10	3	5	842	91.0	-209746.0	-2945.0	-104904.0
20	10	3	5	843	92.0	-210311.0	-2981.0	-106156.0
20	10	3	5	844	93.0	-211002.0	-2995.0	-107569.0
20	10	3	5	845	94.0	-211475.0	-3027.0	-108808.0
20	10	3	5	845	95.0	-212306.0	-3044.0	-109868.0
20	10	3	5	846	111.0	-132196.0	-3444.0	-118864.0
20	10	3	5	846	112.0	-121140.0	-3464.0	-119491.0
20	10	3	5	847	113.0	-122293.0	-3494.0	-120270.0
20	10	3	5	848	114.0	-136451.0	-3510.0	-120816.0
20	10	3	5	848	115.0	-159687.0	-3542.0	-121136.0
20	10	3	5	849	116.0	-182398.0	-3567.0	-121686.0
20	10	3	5	850	117.0	-198086.0	-3587.0	-122427.0
20	10	3	5	881	118.0	-208207.0	-3611.0	-123011.0
20	10	3	5	882	119.0	-214226.0	-3641.0	-123621.0
20	10	3	5	882	120.0	-211592.0	-3677.0	-124642.0
20	10	3	5	883	121.0	-190481.0	-3724.0	-125653.0
20	10	3	5	884	122.0	-176978.0	-3776.0	-126292.0
20	10	3	5	884	123.0	-174121.0	-3777.0	-126991.0
20	10	3	5	885	124.0	-174424.0	-3814.0	-127907.0
20	10	3	5	885	125.0	-181337.0	-3831.0	-128492.0
20	10	3	5	886	126.0	-196177.0	-3856.0	-128926.0
20	10	3	5	886	127.0	-209688.0	-3914.0	-129622.0
20	10	3	5	887	128.0	-209644.0	-3966.0	-130472.0
20	10	3	5	887	129.0	-200147.0	-3999.0	-131146.0
20	10	3	5	888	130.0	-189274.0	-4018.0	-131827.0
20	10	3	5	889	131.0	-179453.0	-4050.0	-132565.0
20	10	3	5	889	132.0	-173644.0	-4073.0	-133198.0
20	10	3	5	890	134.0	-181639.0	-4111.0	-134117.0
20	10	3	5	890	135.0	-190424.0	-4112.0	-134549.0
20	10	3	5	891	136.0	-197858.0	-4137.0	-134990.0
20	10	3	5	891	137.0	-202645.0	-4166.0	-135460.0
20	10	3	5	892	138.0	-205112.0	-4177.0	-135999.0
20	10	3	5	892	139.0	-205928.0	-4204.0	-136616.0
20	10	3	5	926	140.0	-205243.0	-4252.0	-137317.0
20	10	3	5	926	141.0	-202968.0	-4257.0	-138061.0
20	10	3	5	927	142.0	-199664.0	-4268.0	-138493.0
20	10	3	5	927	143.0	-197727.0	-4297.0	-138895.0
20	10	3	5	928	144.0	-197396.0	-4316.0	-139333.0
20	10	3	5	928	145.0	-198546.0	-4322.0	-139622.0
20	10	3	5	929	146.0	-200386.0	-4345.0	-139746.0
20	10	3	5	971	147.0	-201873.0	-4381.0	-140145.0
20	10	3	5	971	148.0	-202800.0	-4407.0	-140834.0
20	10	3	5	972	149.0	-203317.0	-4419.0	-141422.0
20	10	3	5	972	150.0	-204073.0	-4462.0	-141966.0
20	10	3	5	973	151.0	-205776.0	-4504.0	-142658.0
20	10	3	5	974	152.0	-208231.0	-4509.0	-143127.0
20	10	3	5	974	153.0	-210639.0	-4522.0	-143253.0
20	10	3	6	62	154.0	-212854.0	-4554.0	-143363.0
20	10	3	6	107	156.0	-217014.0	-4612.0	-143519.0
20	10	3	6	107	157.0	-217708.0	-4641.0	-143617.0
20	10	3	6	108	158.0	-217761.0	-4677.0	-144099.0
20	10	3	6	108	159.0	-217964.0	-4708.0	-144675.0
20	10	3	6	109	160.0	-218899.0	-4732.0	-144998.0
20	10	3	6	110	161.0	-220259.0	-4754.0	-145299.0
20	10	3	6	110	162.0	-221781.0	-4779.0	-145749.0
20	10	3	6	111	163.0	-223068.0	-4799.0	-145835.0
20	10	3	6	111	179.0	-197629.0	-5154.0	-146466.0
20	10	3	6	112	180.0	-196703.0	-5174.0	-146667.0
20	10	3	6	112	181.0	-196041.0	-5190.0	-146738.0
20	10	3	6	113	182.0	-195797.0	-5191.0	-146864.0
20	10	3	6	113	183.0	-195932.0	-5200.0	-146769.0
20	10	3	6	114	184.0	-196351.0	-5210.0	-146307.0
20	10	3	6	114	185.0	-196837.0	-5211.0	-146024.0
20	10	3	6	151	246.0	-184112.0	-2069.0	-139567.0
20	10	3	6	152	247.0	-171133.0	-2045.0	-140037.0
20	10	3	6	153	248.0	-165251.0	-1994.0	-140664.0
20	10	3	6	153	249.0	-172571.0	-1938.0	-140535.0
20	10	3	6	154	250.0	-185507.0	-1894.0	-140271.0
20	10	3	6	154	251.0	-196596.0	-1858.0	-140025.0
20	10	3	6	155	252.0	-208160.0	-1811.0	-139601.0
20	10	3	6	156	253.0	-215480.0	-1779.0	-139149.0
20	10	3	6	286	254.0	-219418.0	-1746.0	-139211.0
20	10	3	6	287	255.0	-221416.0	-1707.0	-138843.0
20	10	3	6	288	0.0	-220878.0	-1666.0	-138899.0
20	10	3	6	303	1.0	-218604.0	-1632.0	-139452.0
20	10	3	6	304	2.0	-215364.0	-1590.0	-139305.0
20	10	3	6	304	3.0	-213326.0	-1540.0	-139052.0
20	10	3	6	305	4.0	-211807.0	-1531.0	-139463.0
20	10	3	6	306	5.0	-209509.0	-1487.0	-139905.0
20	10	3	6	331	13.0	-193348.0	-1338.0	-138216.0
20	10	3	6	332	14.0	-189470.0	-1332.0	-138019.0
20	10	3	6	332	15.0	-190241.0	-1330.0	-137998.0
20	10	3	6	333	16.0	-194358.0	-1315.0	-137433.0
20	10	3	6	334	17.0	-197922.0	-1291.0	-136832.0
20	10	3	6	334	18.0	-198746.0	-1281.0	-136739.0
20	10	3	6	335	19.0	-197202.0	-1276.0	-137005.0
20	10	3	6	375	80.0	-196767.0	-1581.0	-129998.0
20	10	3	6	376	81.0	-196901.0	-1627.0	-129901.0
20	10	3	6	376	82.0	-197144.0	-1639.0	-129976.0
20	10	3	6	377	83.0	-197509.0	-1641.0	-129904.0
20	10	3	6	378	84.0	-197748.0	-1659.0	-129779.0
20	10	3	6	378	85.0	-197376.0	-1663.0	-129248.0
20	10	3	6	379	86.0	-196792.0	-1671.0	-128182.0
20	10	3	6	380	87.0	-196658.0	-1701.0	-126876.0
20	10	3	6	380	102.0	-209566.0	-1817.0	-124956.0
20	10	3	6	381	103.0	-210582.0	-1839.0	-125414.0
20	10	3	6	382	104.0	-211718.0	-1845.0	-126079.0
20	10	3	6	382	105.0	-212728.0	-1857.0	-126421.0
20	10	3	6	383	106.0	-213205.0	-1879.0	-125783.0
20	10	3	6	384	107.0	-213672.0	-1896.0	-125434.0
20	10	3	6	385	108.0	-214069.0	-1900.0	-125917.0
20	10	3	6	386	109.0	-214222.0	-1913.0	-125447.0
20	10	3	6	386	125.0	-200386.0	-2216.0	-123166.0
20	10	3	6	387	126.0	-200054.0	-2239.0	-123066.0
20	10	3	6	388	127.0	-199799.0	-2272.0	-123000.0
20	10	3	6	389	128.0	-199329.0	-2290.0	-122820.0
20	10	3	6	389	129.0	-198480.0	-2321.0	-122518.0
20	10	3	6	390	130.0	-197336.0	-2347.0	-122631.0
20	10	3	6	421	131.0	-195858.0	-2357.0	-122042.0
20	10	3	6	422	132.0	-194194.0	-2385.0	-121774.0
20	10	3	6	422	133.0	-192707.0	-2408.0	-122474.0
20	10	3	6	423	134.0	-191509.0	-2424.0	-122326.0
20	10	3	6	423	135.0	-190486.0	-2435.0	-122074.0
20	10	3	6	424	136.0	-189589.0	-2464.0	-122011.0
20	10	3	6	425	137.0	-188959.0	-2475.0	-122474.0
20	10	3	6	425	138.0	-188776.0	-2499.0	-122332.0
20	10	3	6	466	139.0	-188962.0	-2538.0	-122257.0
20	10	3	6	467	140.0	-188986.0	-2568.0	-122111.0
20	10	3	6	467	141.0	-188857.0	-2580.0	-121376.0
20	10	3	6	468	142.0	-188862.0	-2611.0	-121284.0
20	10	3	6	468	143.0	-189318.0	-2652.0	-121226.0
20	10	3	6	469	144.0	-189892.0	-2667.0	-120687.0
20	10	3	6	469	145.0	-190801.0	-2708.0	-120444.0
20	10	3	6	511	147.0	-193211.0	-2745.0	-120621.0
20	10	3	6	511	148.0	-194521.0	-2784.0	-119960.0
20	10	3	6	512	149.0	-195696.0	-2818.0	-119723.0
20	10	3	6	513	150.0	-196924.0	-2839.0	-121026.0
20	10	3	6	556	151.0	-198312.0	-2869.0	-123599.0
20	10	3	6	557	152.0	-200047.0	-2918.0	-125041.0
20	10	3	6	557	153.0	-201683.0	-2953.0	-125554.0
20	10	3	6	558	154.0	-202112.0	-2984.0	-125531.0
20	10	3	6	559	170.0	-212814.0	-3421.0	-116384.0
20	10	3	6	559	171.0	-212362.0	-3436.0	-114394.0
20	10	3	6	560	172.0	-210676.0	-3441.0	-113697.0
20	10	3	6	601	173.0	-207781.0	-3451.0	-113612.0
20	10	3	6	601	174.0	-204512.0	-3459.0	-113862.0
20	10	3	6	602	175.0	-200881.0	-3492.0	-113944.0
20	10	3	6	603	176.0	-197707.0	-3512.0	-114364.0
20	10	3	6	603	177.0	-197171.0	-3529.0	-115163.0
20	10	3	6	604	192.0	-149529.0	-3850.0	-115336.0
20	10	3	6	604	193.0	-155849.0	-3859.0	-115415.0
20	10	3	6	605	194.0	-169524.0	-3869.0	-115658.0
20	10	3	6	646	195.0	-190274.0	-3918.0	-115416.0
20	10	3	6	647	215.0	-193426.0	-4292.0	-115182.0
20	10	3	6	648	216.0	-192692.0	-4299.0	-114932.0
20	10	3	6	648	217.0	-191654.0	-4326.0	-114784.0
20	10	3	6	649	218.0	-190302.0	-4342.0	-115002.0
20	10	3	6	650	219.0	-188704.0	-4374.0	-115072.0
20	10	3	6	650	220.0	-187382.0	-4394.0	-115063.0
20	10	3	6	690	221.0	-186960.0	-4419.0	-115233.0
20	10	3	6	691	237.0	-200377.0	-4681.0	-113968.0
20	10	3	6	691	238.0	-200768.0	-4698.0	-114362.0
20	10	3	6	692	239.0	-200771.0	-4722.0	-114241.0
20	10	3	6	693	240.0	-200816.0	-4752.0	-113943.0
20	10	3	6	693	241.0	-200951.0	-4758.0	-113938.0
20	10	3	6	694	242.0	-200781.0	-4756.0	-114103.0
20	10	3	6	695	243.0	-200159.0	-4756.0	-113745.0
20	10	3	6	695	3.0	-207891.0	-4779.0	-112799.0
20	10	3	6	696	4.0	-209037.0	-4776.0	-112852.0
20	10	3	6	697	5.0	-209457.0	-4747.0	-112939.0
20	10	3	6	697	6.0	-209912.0	-4724.0	-113272.0
20	10	3	6	698	7.0	-210182.0	-4694.0	-112910.0
20	10	3	6	699	8.0	-210089.0	-4673.0	-112815.0
20	10	3	6	700	9.0	-209961.0	-4627.0	-112883.0
20	10	3	6	701	10.0	-209989.0	-4584.0	-112769.0
20	10	3	6	702	26.0	-203853.0	-3893.0	-111277.0
20	10	3	6	702	27.0	-203457.0	-3803.0	-111641.0
20	10	3	6	703	28.0	-202955.0	-3747.0	-111794.0
20	10	3	6	704	29.0	-202529.0	-3668.0	-112056.0
20	10	3	6	704	30.0	-201941.0	-3595.0	-112402.0
20	10	3	6	705	31.0	-201446.0	-3521.0	-112367.0
20	10	3	6	706	32.0	-201334.0	-3444.0	-111669.0
20	10	3	6	737	33.0	-201259.0	-3364.0	-111401.0
20	10	3	6	737	34.0	-201408.0	-3292.0	-111354.0
20	10	3	6	738	35.0	-202190.0	-3214.0	-111499.0
20	10	3	6	738	36.0	-203635.0	-3140.0	-111647.0
20	10	3	6	739	37.0	-205134.0	-3049.0	-111551.0
20	10	3	6	740	38.0	-206487.0	-2972.0	-111418.0
20	10	3	6	740	39.0	-207562.0	-2895.0	-111872.0
20	10	3	6	782	40.0	-208479.0	-2832.0	-112317.0
20	10	3	6	782	41.0	-208980.0	-2755.0	-112682.0
20	10	3	6	783	42.0	-209282.0	-2685.0	-113405.0
20	10	3	6	784	43.0	-209618.0	-2627.0	-114131.0
20	10	3	6	785	44.0	-210019.0	-2578.0	-115153.0
20	10	3	6	785	45.0	-210409.0	-2521.0	-115519.0
20	10	3	6	786	46.0	-210741.0	-2459.0	-115124.0
20	10	3	6	787	47.0	-211101.0	-2380.0	-115012.0
20	10	3	6	826	48.0	-211534.0	-2328.0	-115753.0
20	10	3	6	826	49.0	-211956.0	-2249.0	-116044.0
20	10	3	6	827	50.0	-212432.0	-2184.0	-116428.0
20	10	3	6	828	51.0	-212846.0	-2127.0	-116701.0
20	10	3	6	828	52.0	-212969.0	-2061.0	-116776.0
20	10	3	6	829	53.0	-212749.0	-1982.0	-117069.0
20	10	3	6	829	54.0	-212573.0	-1921.0	-117057.0
20	10	3	6	871	55.0	-212388.0	-1884.0	-117319.0
20	10	3	6	871	71.0	-209779.0	-1219.0	-119642.0
20	10	3	6	872	72.0	-212114.0	-1196.0	-119883.0
20	10	3	6	873	73.0	-212791.0	-1169.0	-119344.0
20	10	3	6	873	74.0	-213671.0	-1156.0	-118940.0
20	10	3	6	874	75.0	-213601.0	-1136.0	-118945.0
20	10	3	6	874	76.0	-212201.0	-1088.0	-118894.0
20	10	3	6	875	77.0	-212261.0	-1062.0	-119215.0
20	10	3	6	876	93.0	-202531.0	-732.0	-119025.0
20	10	3	6	876	94.0	-207072.0	-721.0	-118871.0
20	10	3	6	877	95.0	-210557.0	-695.0	-118776.0
20	10	3	6	878	96.0	-212559.0	-682.0	-118419.0
20	10	3	6	878	97.0	-212902.0	-666.0	-118378.0
20	10	3	6	879	98.0	-212728.0	-651.0	-118459.0
20	10	3	6	880	99.0	-212806.0	-619.0	-118893.0
20	10	3	6	881	100.0	-213014.0	-610.0	-118102.0
20	10	3	6	881	116.0	-191663.0	-684.0	-117315.0
20	10	3	6	882	117.0	-190887.0	-702.0	-117038.0
20	10	3	6	882	118.0	-190709.0	-680.0	-116908.0
20	10	3	6	883	119.0	-190616.0	-677.0	-116740.0
20	10	3	6	884	120.0	-190346.0	-722.0	-116951.0
20	10	3	6	885	121.0	-189986.0	-721.0	-116467.0
20	10	3	6	961	122.0	-189579.0	-744.0	-115729.0
20	10	3	7	5	123.0	-189774.0	-769.0	-115916.0
20	10	3	7	6	124.0	-190184.0	-800.0	-116204.0
20	10	3	7	7	125.0	-189786.0	-812.0	-116239.0
20	10	3	7	7	126.0	-188461.0	-810.0	-116200.0
20	10	3	7	8	127.0	-188691.0	-832.0	-115980.0
20	10	3	7	9	128.0	-191724.0	-825.0	-116229.0
20	10	3	7	9	129.0	-194066.0	-844.0	-116099.0
20	10	3	7	10	130.0	-195703.0	-874.0	-116439.0
20	10	3	7	11	131.0	-196699.0	-878.0	-116091.0
20	10	3	7	11	132.0	-197299.0	-902.0	-115748.0
20	10	3	7	12	133.0	-197641.0	-919.0	-116074.0
20	10	3	7	13	134.0	-197648.0	-944.0	-115796.0
20	10	3	7	13	135.0	-197392.0	-955.0	-115521.0
20	10	3	7	14	136.0	-197122.0	-967.0	-116184.0
20	10	3	7	14	161.0	-207438.0	-1574.0	-115263.0
20	10	3	7	15	183.0	-203189.0	-2012.0	-117841.0
20	10	3	7	16	184.0	-203866.0	-2022.0	-117102.0
20	10	3	7	16	185.0	-204539.0	-2049.0	-116477.0
20	10	3	7	17	186.0	-205316.0	-2066.0	-116299.0
20	10	3	7	17	187.0	-206086.0	-2100.0	-116052.0
20	10	3	7	18	188.0	-206647.0	-2115.0	-115862.0
20	10	3	7	96	189.0	-207134.0	-2116.0	-115640.0
20	10	3	7	97	190.0	-207340.0	-2127.0	-115824.0
20	10	3	7	98	191.0	-207224.0	-2151.0	-116104.0
20	10	3	7	142	192.0	-207005.0	-2168.0	-115961.0
20	10	3	7	142	193.0	-206883.0	-2176.0	-116044.0
20	10	3	7	143	194.0	-206857.0	-2191.0	-116184.0
20	10	3	7	143	195.0	-207026.0	-2207.0	-116156.0
20	10	3	7	144	196.0	-207295.0	-2220.0	-116581.0
20	10	3	7	145	197.0	-207501.0	-2239.0	-116814.0
20	10	3	7	145	198.0	-207307.0	-2246.0	-116046.0
20	10	3	7	185	199.0	-206785.0	-2267.0	-115341.0
20	10	3	7	186	200.0	-206109.0	-2291.0	-115702.0
20	10	3	7	187	201.0	-205707.0	-2322.0	-115376.0
20	10	3	7	187	202.0	-205355.0	-2343.0	-114849.0
20	10	3	7	188	203.0	-204835.0	-2376.0	-114688.0
20	10	3	7	189	228.0	-181054.0	-2823.0	-114406.0
20	10	3	7	189	229.0	-183696.0	-2824.0	-116709.0
20	10	3	7	190	230.0	-186279.0	-2840.0	-118302.0
20	10	3	7	190	250.0	-212653.0	-3379.0	-106782.0
20	10	3	7	191	251.0	-214465.0	-3410.0	-106871.0
20	10	3	7	231	252.0	-215964.0	-3446.0	-107153.0
20	10	3	7	232	253.0	-218127.0	-3481.0	-107216.0
20	10	3	7	233	254.0	-221342.0	-3529.0	-107921.0
20	10	3	7	234	255.0	-215867.0	-3548.0	-108094.0
20	10	3	7	234	0.0	-199610.0	-3575.0	-107878.0
20	10	3	7	235	1.0	-189941.0	-3609.0	-107924.0
20	10	3	7	235	17.0	-202968.0	-4025.0	-106354.0
20	10	3	7	276	18.0	-214361.0	-4037.0	-105932.0
20	10	3	7	277	19.0	-221667.0	-4086.0	-105806.0
20	10	3	7	277	20.0	-221661.0	-4107.0	-106132.0
20	10	3	7	278	21.0	-212378.0	-4149.0	-105822.0
20	10	3	7	278	22.0	-197473.0	-4170.0	-105736.0
20	10	3	7	279	23.0	-182932.0	-4193.0	-106212.0
20	10	3	7	280	24.0	-173783.0	-4204.0	-105979.0
20	10	3	7	322	25.0	-174110.0	-4224.0	-105407.0
20	10	3	7	322	26.0	-181898.0	-4242.0	-105361.0
20	10	3	7	323	40.0	-219664.0	-4464.0	-104774.0
20	10	3	7	324	41.0	-218365.0	-4506.0	-104326.0
20	10	3	7	324	42.0	-217669.0	-4521.0	-103804.0
20	10	3	7	325	43.0	-215645.0	-4539.0	-104174.0
20	10	3	7	326	44.0	-214261.0	-4532.0	-104679.0
20	10	3	7	326	45.0	-214879.0	-4577.0	-104737.0
20	10	3	7	327	46.0	-215461.0	-4599.0	-104705.0
20	10	3	7	328	62.0	-205225.0	-4844.0	-102287.0
20	10	3	7	329	63.0	-203582.0	-4868.0	-102257.0
20	10	3	7	329	64.0	-202079.0	-4898.0	-101873.0
20	10	3	7	330	65.0	-200999.0	-4917.0	-101561.0
20	10	3	7	331	66.0	-200051.0	-4938.0	-102097.0
20	10	3	7	332	67.0	-198932.0	-4953.0	-101639.0
20	10	3	7	333	68.0	-197499.0	-4972.0	-101614.0
20	10	3	7	333	85.0	-198459.0	-4810.0	-97487.0
20	10	3	7	334	86.0	-199174.0	-4791.0	-97239.0
20	10	3	7	335	87.0	-199634.0	-4759.0	-96650.0
20	10	3	7	336	88.0	-199649.0	-4731.0	-96122.0
20	10	3	7	337	89.0	-199449.0	-4670.0	-96147.0
20	10	3	7	337	90.0	-199229.0	-4622.0	-96094.0
20	10	3	7	366	91.0	-198896.0	-4572.0	-95656.0
20	10	3	7	367	92.0	-198477.0	-4524.0	-95797.0
20	10	3	7	368	93.0	-198089.0	-4477.0	-95772.0
20	10	3	7	368	94.0	-197654.0	-4436.0	-95449.0
20	10	3	7	369	95.0	-197111.0	-4388.0	-95177.0
20	10	3	7	370	96.0	-196627.0	-4334.0	-95489.0
20	10	3	7	370	97.0	-196248.0	-4267.0	-95114.0
20	10	3	7	371	98.0	-195905.0	-4208.0	-94650.0
20	10	3	7	371	99.0	-195863.0	-4134.0	-94604.0
20	10	3	7	372	100.0	-195985.0	-4071.0	-94252.0
20	10	3	7	373	101.0	-196031.0	-3997.0	-93677.0
20	10	3	7	373	102.0	-195693.0	-3922.0	-93756.0
20	10	3	7	374	103.0	-195429.0	-3827.0	-93997.0
20	10	3	7	375	104.0	-195909.0	-3772.0	-93554.0
20	10	3	7	375	105.0	-196967.0	-3696.0	-93139.0
20	10	3	7	376	107.0	-199434.0	-3537.0	-93730.0
20	10	3	7	377	108.0	-200993.0	-3456.0	-94329.0
20	10	3	7	377	109.0	-202247.0	-3376.0	-94001.0
20	10	3	7	378	110.0	-203066.0	-3306.0	-93747.0
20	10	3	7	378	111.0	-204171.0	-3232.0	-94027.0
20	10	3	7	379	112.0	-205614.0	-3117.0	-93737.0
20	10	3	7	411	113.0	-207274.0	-3017.0	-93416.0
20	10	3	7	411	114.0	-208952.0	-2942.0	-93466.0
20	10	3	7	412	115.0	-210894.0	-2864.0	-93436.0
20	10	3	7	413	116.0	-213018.0	-2794.0	-93443.0
20	10	3	7	414	117.0	-214766.0	-2726.0	-93529.0
20	10	3	7	415	118.0	-216347.0	-2645.0	-93144.0
20	10	3	7	415	119.0	-217883.0	-2587.0	-93150.0
20	10	3	7	416	120.0	-219490.0	-2515.0	-93874.0
20	10	3	7	417	121.0	-221121.0	-2438.0	-94388.0
20	10	3	7	417	122.0	-222647.0	-2377.0	-94449.0
20	10	3	7	418	123.0	-223932.0	-2298.0	-94399.0
20	10	3	7	418	124.0	-225389.0	-2220.0	-94411.0
20	10	3	7	419	125.0	-226397.0	-2141.0	-94469.0
20	10	3	7	456	126.0	-225376.0	-2074.0	-94749.0
20	10	3	7	457	127.0	-222721.0	-1996.0	-94836.0
20	10	3	7	457	129.0	-218677.0	-1858.0	-95182.0
20	10	3	7	458	130.0	-216314.0	-1799.0	-95936.0
20	10	3	7	458	131.0	-213585.0	-1712.0	-96051.0
20	10	3	7	459	132.0	-211205.0	-1645.0	-95347.0
20	10	3	7	460	133.0	-209832.0	-1591.0	-94964.0
20	10	3	7	506	134.0	-209651.0	-1526.0	-94334.0
20	10	3	7	507	135.0	-209763.0	-1474.0	-94880.0
20	10	3	7	507	136.0	-209117.0	-1408.0	-95154.0
20	10	3	7	508	137.0	-208257.0	-1342.0	-95521.0
20	10	3	7	509	138.0	-207332.0	-1295.0	-95368.0
20	10	3	7	509	139.0	-205951.0	-1246.0	-95093.0
20	10	3	7	510	140.0	-205953.0	-1196.0	-95215.0
20	10	3	7	545	141.0	-205075.0	-1116.0	-95054.0
20	10	3	7	546	142.0	-202859.0	-1078.0	-94495.0
20	10	3	7	547	152.0	-194449.0	-586.0	-94709.0
20	10	3	7	547	153.0	-196624.0	-560.0	-94891.0
20	10	3	7	548	154.0	-201341.0	-504.0	-94579.0
20	10	3	7	549	155.0	-204550.0	-460.0	-94600.0
20	10	3	7	549	156.0	-203868.0	-440.0	-94040.0
20	10	3	7	550	157.0	-201783.0	-410.0	-93689.0
20	10	3	7	590	158.0	-201692.0	-406.0	-93725.0
20	10	3	7	591	174.0	-195977.0	-3.0	-91486.0
20	10	3	7	591	175.0	-194299.0	-3.0	-91179.0
20	10	3	7	592	176.0	-192505.0	23.0	-91341.0
20	10	3	7	593	177.0	-190952.0	33.0	-91151.0
20	10	3	7	594	178.0	-190327.0	41.0	-90922.0
20	10	3	7	595	179.0	-190065.0	57.0	-91313.0
20	10	3	7	595	180.0	-190036.0	83.0	-91597.0
20	10	3	7	596	197.0	-186297.0	264.0	-89403.0
20	10	3	7	597	198.0	-185390.0	271.0	-88731.0
20	10	3	7	598	199.0	-184403.0	291.0	-89139.0
20	10	3	7	598	200.0	-183247.0	293.0	-89011.0
20	10	3	7	599	201.0	-181842.0	298.0	-88850.0
20	10	3	7	600	202.0	-180468.0	289.0	-88563.0
20	10	3	7	601	203.0	-179147.0	295.0	-88560.0
20	10	3	7	601	219.0	-191689.0	111.0	-88773.0
20	10	3	7	602	220.0	-192485.0	108.0	-88556.0
20	10	3	7	603	221.0	-192905.0	74.0	-88784.0
20	10	3	7	604	222.0	-193296.0	53.0	-88575.0
20	10	3	7	604	223.0	-193729.0	36.0	-88489.0
20	10	3	7	605	224.0	-194462.0	12.0	-88460.0
20	10	3	7	638	225.0	-195611.0	-3.0	-87389.0
20	10	3	7	639	226.0	-196861.0	-31.0	-87272.0
20	10	3	7	639	227.0	-198451.0	-53.0	-88077.0
20	10	3	7	640	228.0	-200402.0	-80.0	-87557.0
20	10	3	7	641	229.0	-202583.0	-105.0	-87045.0
20	10	3	7	641	230.0	-205061.0	-134.0	-87375.0
20	10	3	7	642	231.0	-207731.0	-149.0	-87617.0
20	10	3	7	680	232.0	-210052.0	-163.0	-87759.0
20	10	3	7	681	233.0	-211604.0	-202.0	-87839.0
20	10	3	7	681	234.0	-212483.0	-226.0	-87852.0
20	10	3	7	682	235.0	-212959.0	-256.0	-87146.0
20	10	3	7	683	236.0	-213131.0	-296.0	-87008.0
20	10	3	7	683	237.0	-213102.0	-319.0	-87171.0
20	10	3	7	684	238.0	-212823.0	-311.0	-87562.0
20	10	3	7	726	239.0	-212219.0	-325.0	-87572.0
20	10	3	7	727	241.0	-210562.0	-362.0	-86706.0
20	10	3	7	727	242.0	-209827.0	-378.0	-86276.0
20	10	3	7	728	243.0	-208859.0	-382.0	-86484.0
20	10	3	7	729	244.0	-207874.0	-426.0	-86726.0
20	10	3	7	729	245.0	-206966.0	-460.0	-87069.0
20	10	3	7	730	246.0	-205854.0	-471.0	-87547.0
20	10	3	7	771	247.0	-204613.0	-489.0	-87523.0
20	10	3	7	772	248.0	-203609.0	-515.0	-87464.0
20	10	3	7	791	8.0	-200259.0	-893.0	-86287.0
20	10	3	7	792	9.0	-201331.0	-927.0	-86892.0
20	10	3	7	793	10.0	-201888.0	-933.0	-86706.0
20	10	3	7	794	11.0	-201949.0	-957.0	-86451.0
20	10	3	7	796	12.0	-201786.0	-981.0	-86319.0
20	10	3	7	817	13.0	-201641.0	-982.0	-85701.0
20	10	3	7	818	14.0	-201766.0	-1002.0	-85822.0
20	10	3	7	818	31.0	-205038.0	-1329.0	-84430.0
20	10	3	7	819	32.0	-204579.0	-1341.0	-84219.0
20	10	3	7	861	33.0	-203611.0	-1349.0	-84730.0
20	10	3	7	861	34.0	-201968.0	-1364.0	-84412.0
20	10	3	7	862	35.0	-199888.0	-1372.0	-83464.0
20	10	3	7	862	36.0	-197667.0	-1389.0	-83077.0
20	10	3	7	863	37.0	-195881.0	-1414.0	-82824.0
20	10	3	7	863	53.0	-188851.0	-1707.0	-85825.0
20	10	3	7	864	54.0	-190252.0	-1738.0	-88259.0
20	10	3	7	864	55.0	-191484.0	-1774.0	-89899.0
20	10	3	7	906	56.0	-192928.0	-1796.0	-90849.0
20	10	3	7	907	57.0	-194791.0	-1816.0	-89794.0
20	10	3	7	908	58.0	-196677.0	-1849.0	-88964.0
20	10	3	7	908	59.0	-198590.0	-1874.0	-88294.0
20	10	3	7	909	76.0	-207965.0	-2218.0	-78013.0
20	10	3	7	909	77.0	-209121.0	-2233.0	-78581.0
20	10	3	7	910	78.0	-211502.0	-2252.0	-78206.0
20	10	3	7	910	98.0	-212353.0	-2614.0	-77790.0
20	10	3	7	950	99.0	-223261.0	-2621.0	-78005.0
20	10	3	7	951	100.0	-228564.0	-2650.0	-78039.0
20	10	3	7	951	101.0	-222729.0	-2652.0	-78209.0
20	10	3	7	952	102.0	-208886.0	-2671.0	-78114.0
20	10	3	7	953	103.0	-193117.0	-2712.0	-77829.0
20	10	3	7	953	104.0	-178546.0	-2735.0	-77512.0
20	10	3	7	954	105.0	-169332.0	-2768.0	-77331.0
20	10	3	7	955	106.0	-168930.0	-2802.0	-76978.0
20	10	3	7	955	120.0	-207393.0	-3130.0	-73633.0
20	10	3	7	956	121.0	-206138.0	-3164.0	-73489.0
20	10	3	7	957	122.0	-204287.0	-3186.0	-72856.0
20	10	3	7	957	123.0	-202121.0	-3200.0	-72701.0
20	10	3	7	958	124.0	-200555.0	-3206.0	-72706.0
20	10	3	7	959	125.0	-200108.0	-3211.0	-72771.0
20	10	3	7	959	126.0	-200791.0	-3243.0	-72746.0
20	10	3	7	960	127.0	-202066.0	-3255.0	-72609.0
20	10	3	7	996	143.0	-202824.0	-3684.0	-69666.0
20	10	3	8	5	144.0	-202522.0	-3704.0	-69561.0
20	10	3	8	6	145.0	-202307.0	-3741.0	-69863.0
20	10	3	8	7	146.0	-201909.0	-3757.0	-69653.0
20	10	3	8	7	147.0	-201322.0	-3770.0	-69786.0
20	10	3	8	8	148.0	-200699.0	-3773.0	-70011.0
20	10	3	8	8	149.0	-200017.0	-3795.0	-69445.0
20	10	3	8	42	150.0	-199360.0	-3815.0	-68976.0
20	10	3	8	42	151.0	-199337.0	-3839.0	-68777.0
20	10	3	8	43	152.0	-199836.0	-3855.0	-68747.0
20	10	3	8	44	153.0	-200179.0	-3876.0	-68642.0
20	10	3	8	44	154.0	-200073.0	-3902.0	-68282.0
20	10	3	8	45	155.0	-199521.0	-3903.0	-67876.0
20	10	3	8	46	156.0	-199395.0	-3919.0	-67789.0
20	10	3	8	86	157.0	-199915.0	-3932.0	-67759.0
20	10	3	8	86	158.0	-200454.0	-3934.0	-67734.0
20	10	3	8	87	165.0	-198099.0	-3906.0	-66575.0
20	10	3	8	88	166.0	-197452.0	-3873.0	-67044.0
20	10	3	8	88	167.0	-197077.0	-3841.0	-66750.0
20	10	3	8	89	168.0	-197299.0	-3808.0	-66131.0
20	10	3	8	90	169.0	-197694.0	-3780.0	-65922.0
20	10	3	8	130	170.0	-197581.0	-3739.0	-66379.0
20	10	3	8	131	171.0	-197315.0	-3694.0	-66586.0
20	10	3	8	156	188.0	-200065.0	-2648.0	-65340.0
20	10	3	8	157	189.0	-200944.0	-2559.0	-65097.0
20	10	3	8	158	190.0	-201781.0	-2471.0	-64659.0
20	10	3	8	158	191.0	-202652.0	-2377.0	-64582.0
20	10	3	8	159	192.0	-203806.0	-2274.0	-65197.0
20	10	3	8	179	193.0	-205234.0	-2192.0	-65400.0
20	10	3	8	180	194.0	-206411.0	-2123.0	-65241.0
20	10	3	8	181	210.0	-209057.0	-864.0	-69677.0
20	10	3	8	181	211.0	-209228.0	-794.0	-69996.0
20	10	3	8	182	212.0	-209191.0	-726.0	-69418.0
20	10	3	8	183	213.0	-208956.0	-644.0	-69476.0
20	10	3	8	183	214.0	-208617.0	-574.0	-70011.0
20	10	3	8	221	215.0	-208139.0	-497.0	-70061.0
20	10	3	8	222	216.0	-207673.0	-414.0	-70418.0
20	10	3	8	223	233.0	-203269.0	416.0	-71392.0
20	10	3	8	224	234.0	-204266.0	459.0	-71557.0
20	10	3	8	224	235.0	-205756.0	504.0	-71008.0
20	10	3	8	225	236.0	-207677.0	529.0	-70706.0
20	10	3	8	225	237.0	-210067.0	585.0	-70341.0
20	10	3	8	226	238.0	-211141.0	607.0	-70229.0
20	10	3	8	265	239.0	-210276.0	649.0	-70391.0
20	10	3	8	266	255.0	-204488.0	911.0	-70831.0
20	10	3	8	266	0.0	-203299.0	935.0	-70134.0
20	10	3	8	267	1.0	-201853.0	963.0	-70122.0
20	10	3	8	268	2.0	-200363.0	978.0	-70147.0
20	10	3	8	269	3.0	-199097.0	978.0	-69761.0
20	10	3	8	269	4.0	-198337.0	977.0	-69946.0
20	10	3	8	270	5.0	-197761.0	996.0	-69913.0
20	10	3	8	311	22.0	-200281.0	972.0	-69291.0
20	10	3	8	319	23.0	-200142.0	954.0	-69132.0
20	10	3	8	320	24.0	-200119.0	949.0	-69012.0
20	10	3	8	320	25.0	-199805.0	943.0	-68709.0
20	10	3	8	321	26.0	-199274.0	922.0	-68956.0
20	10	3	8	322	27.0	-199129.0	907.0	-69297.0
20	10	3	8	322	28.0	-199469.0	890.0	-69161.0
20	10	3	8	323	29.0	-200179.0	874.0	-69367.0
20	10	3	8	356	44.0	-199657.0	589.0	-68603.0
20	10	3	8	357	45.0	-200190.0	569.0	-68791.0
20	10	3	8	357	46.0	-200654.0	552.0	-69004.0
20	10	3	8	358	47.0	-200881.0	513.0	-69077.0
20	10	3	8	359	48.0	-201007.0	508.0	-68817.0
20	10	3	8	359	49.0	-201087.0	473.0	-68874.0
20	10	3	8	360	50.0	-201416.0	442.0	-69130.0
20	10	3	8	361	66.0	-204861.0	95.0	-68656.0
20	10	3	8	401	67.0	-204559.0	61.0	-69369.0
20	10	3	8	402	68.0	-203909.0	36.0	-69677.0
20	10	3	8	402	69.0	-203269.0	3.0	-68933.0
20	10	3	8	403	70.0	-202748.0	-32.0	-68194.0
20	10	3	8	404	71.0	-202472.0	-64.0	-67999.0
20	10	3	8	404	72.0	-202285.0	-96.0	-67844.0
20	10	3	8	405	73.0	-202081.0	-114.0	-68085.0
20	10	3	8	406	89.0	-195858.0	-405.0	-67216.0
20	10	3	8	407	90.0	-195541.0	-431.0	-66849.0
20	10	3	8	408	91.0	-195604.0	-440.0	-66736.0
20	10	3	8	408	92.0	-196069.0	-469.0	-66484.0
20	10	3	8	409	93.0	-196644.0	-504.0	-65964.0
20	10	3	8	410	94.0	-196974.0	-541.0	-65687.0
20	10	3	8	411	95.0	-197173.0	-551.0	-65272.0
20	10	3	8	412	96.0	-197186.0	-563.0	-64852.0
20	10	3	8	412	111.0	-205688.0	-889.0	-62219.0
20	10	3	8	413	112.0	-206680.0	-915.0	-62269.0
20	10	3	8	414	113.0	-207710.0	-917.0	-62509.0
20	10	3	8	415	114.0	-208572.0	-956.0	-62489.0
20	10	3	8	415	115.0	-208965.0	-999.0	-61972.0
20	10	3	8	416	116.0	-208553.0	-1031.0	-61161.0
20	10	3	8	417	117.0	-207736.0	-1043.0	-60992.0
20	10	3	8	446	118.0	-207006.0	-1076.0	-61159.0
20	10	3	8	447	119.0	-205852.0	-1092.0	-60850.0
20	10	3	8	448	120.0	-204426.0	-1125.0	-60938.0
20	10	3	8	448	121.0	-203202.0	-1159.0	-60668.0
20	10	3	8	449	122.0	-201970.0	-1203.0	-61022.0
20	10	3	8	450	123.0	-200471.0	-1212.0	-61467.0
20	10	3	8	450	124.0	-198876.0	-1222.0	-61323.0
20	10	3	8	451	125.0	-196942.0	-1245.0	-60913.0
20	10	3	8	451	126.0	-194899.0	-1279.0	-60721.0
20	10	3	8	452	127.0	-192991.0	-1301.0	-60898.0
20	10	3	8	453	128.0	-191382.0	-1339.0	-60737.0
20	10	3	8	454	129.0	-190386.0	-1359.0	-61279.0
20	10	3	8	454	130.0	-189991.0	-1396.0	-61497.0
20	10	3	8	455	131.0	-189736.0	-1423.0	-61575.0
20	10	3	8	456	132.0	-189834.0	-1447.0	-61021.0
20	10	3	8	456	134.0	-190289.0	-1506.0	-59992.0
20	10	3	8	457	135.0	-190632.0	-1552.0	-59399.0
20	10	3	8	457	136.0	-191139.0	-1599.0	-59990.0
20	10	3	8	458	137.0	-191940.0	-1625.0	-60402.0
20	10	3	8	459	138.0	-193009.0	-1648.0	-61715.0
20	10	3	8	459	139.0	-194323.0	-1699.0	-64918.0
20	10	3	8	491	140.0	-195986.0	-1714.0	-67154.0
20	10	3	8	491	141.0	-197784.0	-1746.0	-68416.0
20	10	3	8	492	142.0	-199787.0	-1785.0	-68441.0
20	10	3	8	493	143.0	-201761.0	-1791.0	-67746.0
20	10	3	8	493	144.0	-203934.0	-1816.0	-66917.0
20	10	3	8	494	145.0	-205579.0	-1862.0	-66068.0
20	10	3	8	495	146.0	-206406.0	-1894.0	-66036.0
20	10	3	8	537	147.0	-206756.0	-1908.0	-66366.0
20	10	3	8	537	148.0	-206561.0	-1936.0	-67269.0
20	10	3	8	538	149.0	-206004.0	-1954.0	-70277.0
20	10	3	8	538	150.0	-205004.0	-1987.0	-74451.0
20	10	3	8	539	151.0	-203971.0	-2009.0	-76954.0
20	10	3	8	540	152.0	-202777.0	-2016.0	-77321.0
20	10	3	8	540	153.0	-201370.0	-2036.0	-75269.0
20	10	3	8	541	154.0	-200217.0	-2083.0	-71667.0
20	10	3	8	581	156.0	-200351.0	-2116.0	-65933.0
20	10	3	8	626	157.0	-201524.0	-2147.0	-62794.0
20	10	3	8	627	158.0	-203021.0	-2204.0	-60311.0
20	10	3	8	627	159.0	-204181.0	-2226.0	-59207.0
20	10	3	8	628	160.0	-204919.0	-2252.0	-58622.0
20	10	3	8	629	161.0	-205629.0	-2303.0	-58540.0
20	10	3	8	629	162.0	-206463.0	-2340.0	-59356.0
20	10	3	8	630	163.0	-207680.0	-2374.0	-59608.0
20	10	3	8	630	179.0	-180051.0	-2896.0	-59288.0
20	10	3	8	671	180.0	-185475.0	-2906.0	-59217.0
20	10	3	8	672	181.0	-185768.0	-2926.0	-58907.0
20	10	3	8	672	182.0	-188755.0	-2964.0	-58475.0
20	10	3	8	673	183.0	-197964.0	-2993.0	-58393.0
20	10	3	8	674	184.0	-209497.0	-3015.0	-58717.0
20	10	3	8	675	185.0	-219797.0	-3047.0	-58974.0
20	10	3	8	675	201.0	-203464.0	-3385.0	-58434.0
20	10	3	8	676	223.0	-232134.0	-3930.0	-57855.0
20	10	3	8	716	224.0	-232730.0	-3947.0	-57782.0
20	10	3	8	717	225.0	-233232.0	-3952.0	-57859.0
20	10	3	8	717	226.0	-232911.0	-3982.0	-58229.0
20	10	3	8	760	227.0	-231752.0	-3997.0	-58079.0
20	10	3	8	761	228.0	-230195.0	-4016.0	-57626.0
20	10	3	8	762	229.0	-228046.0	-4031.0	-57604.0
20	10	3	8	762	230.0	-225694.0	-4045.0	-57964.0
20	10	3	8	763	246.0	-204208.0	-4353.0	-54237.0
20	10	3	8	764	247.0	-203027.0	-4328.0	-53991.0
20	10	3	8	764	248.0	-202136.0	-4345.0	-53786.0
20	10	3	8	806	249.0	-201629.0	-4336.0	-53764.0
20	10	3	8	807	250.0	-201329.0	-4327.0	-52897.0
20	10	3	8	807	251.0	-200875.0	-4312.0	-52147.0
20	10	3	8	808	252.0	-200151.0	-4278.0	-51991.0
20	10	3	8	809	253.0	-199666.0	-4258.0	-52169.0
20	10	3	8	809	12.0	-191613.0	-3546.0	-48361.0
20	10	3	8	810	13.0	-191233.0	-3473.0	-47941.0
20	10	3	8	851	14.0	-191095.0	-3396.0	-48152.0
20	10	3	8	852	35.0	-206424.0	-1709.0	-48079.0
20	10	3	8	853	36.0	-206779.0	-1646.0	-48316.0
20	10	3	8	854	37.0	-206944.0	-1555.0	-48956.0
20	10	3	8	854	38.0	-206887.0	-1484.0	-49057.0
20	10	3	8	855	39.0	-206635.0	-1418.0	-49085.0
20	10	3	8	856	40.0	-206357.0	-1339.0	-49465.0
20	10	3	8	896	41.0	-205659.0	-1276.0	-50191.0
20	10	3	8	897	57.0	-205516.0	-495.0	-50262.0
20	10	3	8	898	58.0	-211857.0	-439.0	-50851.0
20	10	3	8	898	59.0	-215201.0	-396.0	-51329.0
20	10	3	8	899	60.0	-215352.0	-366.0	-51079.0
20	10	3	8	900	61.0	-212862.0	-334.0	-50986.0
20	10	3	8	901	62.0	-208893.0	-303.0	-51073.0
20	10	3	8	940	63.0	-203020.0	-277.0	-51126.0
20	10	3	8	941	64.0	-198344.0	-236.0	-50700.0
20	10	3	8	942	80.0	-201074.0	128.0	-50589.0
20	10	3	8	943	81.0	-201727.0	141.0	-50481.0
20	10	3	8	943	82.0	-201529.0	159.0	-49829.0
20	10	3	8	944	83.0	-200594.0	182.0	-49711.0
20	10	3	8	945	84.0	-199520.0	173.0	-49337.0
20	10	3	8	946	85.0	-198543.0	178.0	-49262.0
20	10	3	8	946	86.0	-197480.0	191.0	-49232.0
20	10	3	8	947	102.0	-197239.0	186.0	-48075.0
20	10	3	8	948	103.0	-196388.0	194.0	-48207.0
20	10	3	8	949	104.0	-195981.0	178.0	-48007.0
20	10	3	8	950	105.0	-196073.0	184.0	-48410.0
20	10	3	8	951	106.0	-196054.0	173.0	-48266.0
20	10	3	8	952	107.0	-196187.0	154.0	-48187.0
20	10	3	8	953	108.0	-196514.0	146.0	-48347.0
20	10	3	8	954	125.0	-206796.0	-105.0	-47477.0
20	10	3	8	955	126.0	-206147.0	-124.0	-46961.0
20	10	3	8	956	127.0	-205411.0	-141.0	-46899.0
20	10	3	8	956	128.0	-205081.0	-159.0	-46895.0
20	10	3	8	957	129.0	-204636.0	-159.0	-46553.0
20	10	3	8	958	130.0	-203907.0	-202.0	-46721.0
20	10	3	8	988	131.0	-203226.0	-234.0	-47322.0
20	10	3	9	31	132.0	-202526.0	-247.0	-46845.0
20	10	3	9	32	133.0	-201803.0	-272.0	-46847.0
20	10	3	9	33	134.0	-201158.0	-314.0	-47236.0
20	10	3	9	33	135.0	-200486.0	-334.0	-46883.0
20	10	3	9	34	136.0	-200074.0	-368.0	-46187.0
20	10	3	9	35	137.0	-199950.0	-390.0	-46117.0
20	10	3	9	35	138.0	-200534.0	-424.0	-46463.0
20	10	3	9	36	139.0	-201008.0	-450.0	-46553.0
20	10	3	9	76	140.0	-201227.0	-469.0	-46724.0
20	10	3	9	77	141.0	-201211.0	-483.0	-46654.0
20	10	3	9	77	142.0	-201269.0	-497.0	-46465.0
20	10	3	9	78	143.0	-201559.0	-522.0	-45588.0
20	10	3	9	79	144.0	-201917.0	-544.0	-44906.0
20	10	3	9	80	145.0	-202442.0	-572.0	-45059.0
20	10	3	9	80	147.0	-203835.0	-583.0	-45881.0
20	10	3	9	120	169.0	-200796.0	-953.0	-44926.0
20	10	3	9	121	170.0	-200789.0	-962.0	-44702.0
20	10	3	9	122	171.0	-200736.0	-969.0	-45042.0
20	10	3	9	122	172.0	-201116.0	-971.0	-45372.0
20	10	3	9	123	173.0	-201927.0	-997.0	-44864.0
20	10	3	9	124	174.0	-202324.0	-1027.0	-44812.0
20	10	3	9	124	175.0	-202192.0	-1067.0	-44862.0
20	10	3	9	166	176.0	-202131.0	-1070.0	-44161.0
20	10	3	9	167	192.0	-200998.0	-1310.0	-40082.0
20	10	3	9	168	193.0	-201299.0	-1344.0	-40191.0
20	10	3	9	169	194.0	-200711.0	-1359.0	-39567.0
20	10	3	9	170	195.0	-200010.0	-1359.0	-39163.0
20	10	3	9	170	196.0	-199343.0	-1392.0	-39691.0
20	10	3	9	171	197.0	-198506.0	-1415.0	-39683.0
20	10	3	9	211	198.0	-197862.0	-1447.0	-39424.0
20	10	3	9	212	199.0	-197102.0	-1474.0	-38745.0
20	10	3	9	213	215.0	-190182.0	-1916.0	-35970.0
20	10	3	9	214	216.0	-190426.0	-1963.0	-36377.0
20	10	3	9	214	217.0	-188191.0	-1998.0	-37232.0
20	10	3	9	215	218.0	-188191.0	-2036.0	-39384.0
20	10	3	9	216	219.0	-189062.0	-2060.0	-40387.0
20	10	3	9	256	220.0	-190346.0	-2104.0	-41401.0
20	10	3	9	257	221.0	-192296.0	-2127.0	-42632.0
20	10	3	9	257	237.0	-221266.0	-2766.0	-33102.0
20	10	3	9	258	238.0	-221046.0	-2806.0	-30810.0
20	10	3	9	259	239.0	-219966.0	-2872.0	-30541.0
20	10	3	9	260	240.0	-217609.0	-2920.0	-31055.0
20	10	3	9	260	241.0	-214807.0	-2966.0	-30756.0
20	10	3	9	261	242.0	-211691.0	-2997.0	-29911.0
20	10	3	9	262	243.0	-208107.0	-3034.0	-29545.0
20	10	3	9	263	4.0	-177703.0	-3751.0	-29271.0
20	10	3	9	263	5.0	-170551.0	-3791.0	-29244.0
20	10	3	9	264	6.0	-172967.0	-3808.0	-29788.0
20	10	3	9	265	7.0	-178631.0	-3873.0	-29414.0
20	10	3	9	266	8.0	-191844.0	-3927.0	-29799.0
20	10	3	9	266	9.0	-206332.0	-3954.0	-29832.0
20	10	3	9	267	10.0	-208352.0	-3992.0	-29801.0
20	10	3	9	301	26.0	-195322.0	-4766.0	-26339.0
20	10	3	9	302	27.0	-196772.0	-4829.0	-26588.0
20	10	3	9	302	28.0	-199235.0	-4891.0	-26257.0
20	10	3	9	303	29.0	-202825.0	-4940.0	-26561.0
20	10	3	9	304	30.0	-203564.0	-4984.0	-26520.0
20	10	3	9	304	31.0	-203784.0	-5039.0	-25719.0
20	10	3	9	305	32.0	-204577.0	-5088.0	-26557.0
20	10	3	9	306	33.0	-206009.0	-5151.0	-26348.0
20	10	3	9	306	34.0	-207877.0	-5184.0	-25994.0
20	10	3	9	307	35.0	-209662.0	-5250.0	-26340.0
20	10	3	9	308	36.0	-212066.0	-5322.0	-25190.0
20	10	3	9	308	37.0	-214676.0	-5394.0	-25361.0
20	10	3	9	309	38.0	-216830.0	-5450.0	-25777.0
20	10	3	9	310	39.0	-218298.0	-5524.0	-24986.0
20	10	3	9	310	40.0	-219627.0	-5593.0	-24799.0
20	10	3	9	312	48.0	-218946.0	-6053.0	-24495.0
20	10	3	9	313	49.0	-217401.0	-6121.0	-25287.0
20	10	3	9	313	50.0	-215341.0	-6184.0	-25322.0
20	10	3	9	314	51.0	-213436.0	-6253.0	-24926.0
20	10	3	9	315	52.0	-211938.0	-6316.0	-24424.0
20	10	3	9	315	53.0	-210388.0	-6365.0	-23918.0
20	10	3	9	316	54.0	-208319.0	-6416.0	-23899.0
20	10	3	9	362	55.0	-206410.0	-6486.0	-23755.0
20	10	3	9	379	56.0	-204911.0	-6556.0	-23438.0
20	10	3	9	380	57.0	-203587.0	-6594.0	-23599.0
20	10	3	9	381	58.0	-202037.0	-6644.0	-23855.0
20	10	3	9	382	59.0	-199996.0	-6707.0	-24089.0
20	10	3	9	382	60.0	-197746.0	-6746.0	-23848.0
20	10	3	9	383	61.0	-195950.0	-6804.0	-23703.0
20	10	3	9	384	62.0	-194636.0	-6846.0	-23432.0
20	10	3	9	384	63.0	-193776.0	-6898.0	-23144.0
20	10	3	9	385	64.0	-193304.0	-6936.0	-23628.0
20	10	3	9	385	65.0	-193288.0	-6971.0	-23202.0
20	10	3	9	386	66.0	-193604.0	-7010.0	-23613.0
20	10	3	9	387	67.0	-194007.0	-7027.0	-23671.0
20	10	3	9	387	68.0	-194620.0	-7056.0	-22853.0
20	10	3	9	388	69.0	-194967.0	-7075.0	-22642.0
20	10	3	9	403	78.0	-196441.0	-7091.0	-21116.0
20	10	3	9	404	86.0	-189218.0	-7052.0	-20666.0
20	10	3	9	405	87.0	-188747.0	-7038.0	-20526.0
20	10	3	9	405	88.0	-188741.0	-7008.0	-20600.0
20	10	3	9	406	89.0	-188927.0	-6976.0	-20292.0
20	10	3	9	407	90.0	-189204.0	-6946.0	-20012.0
20	10	3	9	408	91.0	-189616.0	-6906.0	-19772.0
20	10	3	9	408	92.0	-189892.0	-6851.0	-19235.0
20	10	3	9	409	93.0	-190260.0	-6803.0	-19308.0
20	10	3	9	409	94.0	-191035.0	-6751.0	-18939.0
20	10	3	9	410	95.0	-192181.0	-6704.0	-19556.0
20	10	3	9	411	96.0	-193236.0	-6647.0	-19504.0
20	10	3	9	411	97.0	-194164.0	-6593.0	-19722.0
20	10	3	9	412	98.0	-195199.0	-6552.0	-20400.0
20	10	3	9	425	99.0	-196592.0	-6506.0	-20176.0
20	10	3	9	426	100.0	-198012.0	-6439.0	-20587.0
20	10	3	9	427	101.0	-199092.0	-6378.0	-20558.0
20	10	3	9	427	102.0	-200045.0	-6358.0	-19838.0
20	10	3	9	428	103.0	-201395.0	-6304.0	-20219.0
20	10	3	9	429	104.0	-202815.0	-6242.0	-19620.0
20	10	3	9	429	105.0	-204186.0	-6177.0	-19322.0
20	10	3	9	449	106.0	-205692.0	-6113.0	-19977.0
20	10	3	9	449	107.0	-206956.0	-6055.0	-20496.0
20	10	3	9	450	108.0	-208346.0	-5986.0	-20992.0
20	10	3	9	451	109.0	-209824.0	-5909.0	-20598.0
20	10	3	9	452	110.0	-210909.0	-5834.0	-20174.0
20	10	3	9	452	111.0	-211789.0	-5762.0	-20400.0
20	10	3	9	453	112.0	-212619.0	-5697.0	-20324.0
20	10	3	9	454	113.0	-213294.0	-5642.0	-20759.0
20	10	3	9	454	114.0	-214131.0	-5579.0	-21237.0
20	10	3	9	455	115.0	-215309.0	-5514.0	-21767.0
20	10	3	9	456	116.0	-216322.0	-5454.0	-22050.0
20	10	3	9	456	117.0	-217026.0	-5407.0	-21840.0
20	10	3	9	457	118.0	-217612.0	-5348.0	-21890.0
20	10	3	9	457	119.0	-218219.0	-5296.0	-22048.0
20	10	3	9	471	120.0	-218529.0	-5237.0	-22268.0
20	10	3	9	472	121.0	-218352.0	-5169.0	-22171.0
20	10	3	9	473	122.0	-217743.0	-5110.0	-22676.0
20	10	3	9	474	123.0	-216621.0	-5089.0	-23211.0
20	10	3	9	474	124.0	-214794.0	-5049.0	-23107.0
20	10	3	9	475	125.0	-212519.0	-4984.0	-23259.0
20	10	3	9	476	126.0	-209587.0	-4948.0	-23480.0
20	10	3	9	498	127.0	-206057.0	-4894.0	-23605.0
20	10	3	9	499	128.0	-199220.0	-4838.0	-23180.0
20	10	3	9	500	129.0	-184860.0	-4800.0	-23069.0
20	10	3	9	500	130.0	-175129.0	-4767.0	-22812.0
20	10	3	9	501	131.0	-178344.0	-4731.0	-22527.0
20	10	3	9	502	132.0	-190527.0	-4687.0	-23414.0
20	10	3	9	502	133.0	-201005.0	-4656.0	-23086.0
20	10	3	9	503	134.0	-211136.0	-4628.0	-23269.0
20	10	3	9	503	135.0	-219914.0	-4607.0	-23575.0
20	10	3	9	504	136.0	-224521.0	-4576.0	-22511.0
20	10	3	9	505	137.0	-227401.0	-4556.0	-22802.0
20	10	3	9	505	138.0	-227012.0	-4536.0	-23012.0
20	10	3	9	506	139.0	-224607.0	-4509.0	-23161.0
20	10	3	9	506	140.0	-221039.0	-4471.0	-23827.0
20	10	3	9	527	141.0	-217607.0	-4449.0	-23280.0
20	10	3	9	527	142.0	-215829.0	-4417.0	-22496.0
20	10	3	9	528	143.0	-213901.0	-4386.0	-22339.0
20	10	3	9	529	144.0	-211699.0	-4362.0	-22347.0
20	10	3	9	529	145.0	-209661.0	-4339.0	-23044.0
20	10	3	9	530	146.0	-207707.0	-4312.0	-23429.0
20	10	3	9	530	147.0	-206171.0	-4311.0	-23941.0
20	10	3	9	531	148.0	-204746.0	-4310.0	-24323.0
20	10	3	9	532	149.0	-203426.0	-4274.0	-24607.0
20	10	3	9	532	150.0	-200714.0	-4251.0	-24319.0
20	10	3	9	533	151.0	-195051.0	-4242.0	-24580.0
20	10	3	9	533	152.0	-188839.0	-4219.0	-24144.0
20	10	3	9	534	153.0	-186612.0	-4206.0	-23952.0
20	10	3	9	534	154.0	-189192.0	-4211.0	-24253.0
20	10	3	9	535	155.0	-192896.0	-4179.0	-24148.0
20	10	3	9	536	156.0	-194605.0	-4161.0	-24751.0
20	10	3	9	536	157.0	-193596.0	-4153.0	-24836.0
20	10	3	9	537	158.0	-191249.0	-4137.0	-24494.0
20	10	3	9	537	159.0	-189918.0	-4141.0	-24689.0
20	10	3	9	538	160.0	-190925.0	-4128.0	-24181.0
20	10	3	9	538	161.0	-193837.0	-4117.0	-24116.0
20	10	3	9	539	162.0	-196742.0	-4107.0	-24457.0
20	10	3	9	540	163.0	-198413.0	-4104.0	-24626.0
20	10	3	9	540	164.0	-198552.0	-4097.0	-24809.0
20	10	3	9	541	165.0	-198028.0	-4101.0	-24157.0
20	10	3	9	541	166.0	-197795.0	-4101.0	-23677.0
20	10	3	9	542	167.0	-198382.0	-4089.0	-23482.0
20	10	3	9	555	168.0	-199562.0	-4092.0	-23218.0
20	10	3	9	555	169.0	-201045.0	-4091.0	-23329.0
20	10	3	9	556	170.0	-202278.0	-4097.0	-22651.0
20	10	3	9	557	171.0	-202854.0	-4088.0	-22599.0
20	10	3	9	557	172.0	-202894.0	-4074.0	-22879.0
20	10	3	9	558	173.0	-202337.0	-4081.0	-22504.0
20	10	3	9	558	174.0	-201820.0	-4086.0	-22818.0
20	10	3	9	559	175.0	-201112.0	-4096.0	-22422.0
20	10	3	9	559	176.0	-200297.0	-4106.0	-22579.0
20	10	3	9	560	177.0	-199624.0	-4117.0	-22814.0
20	10	3	9	576	178.0	-198960.0	-4127.0	-22344.0
20	10	3	9	577	179.0	-198121.0	-4132.0	-22566.0
20	10	3	9	577	180.0	-197326.0	-4134.0	-22272.0
20	10	3	9	578	181.0	-196758.0	-4126.0	-21957.0
20	10	3	9	579	182.0	-196524.0	-4128.0	-21692.0
20	10	3	9	579	183.0	-196669.0	-4137.0	-21612.0
20	10	3	9	580	184.0	-197392.0	-4150.0	-21899.0
20	10	3	9	600	185.0	-198275.0	-4159.0	-21872.0
20	10	3	9	601	186.0	-198833.0	-4176.0	-21076.0
20	10	3	9	602	187.0	-198996.0	-4215.0	-20707.0
20	10	3	9	602	188.0	-199274.0	-4236.0	-20725.0
20	10	3	9	603	189.0	-199765.0	-4250.0	-20211.0
20	10	3	9	603	190.0	-200287.0	-4268.0	-20366.0
20	10	3	9	604	191.0	-200998.0	-4271.0	-20337.0
20	10	3	9	605	192.0	-201582.0	-4300.0	-19239.0
20	10	3	9	605	193.0	-202179.0	-4320.0	-19906.0
20	10	3	9	606	194.0	-202757.0	-4371.0	-20202.0
20	10	3	9	606	195.0	-203654.0	-4410.0	-19586.0
20	10	3	9	607	196.0	-204253.0	-4451.0	-19844.0
20	10	3	9	607	197.0	-204643.0	-4492.0	-19146.0
20	10	3	9	608	198.0	-205059.0	-4517.0	-19062.0
20	10	3	9	624	199.0	-205376.0	-4544.0	-19197.0
20	10	3	9	625	200.0	-205416.0	-4562.0	-18945.0
20	10	3	9	625	201.0	-205197.0	-4576.0	-18781.0
20	10	3	9	626	202.0	-204847.0	-4590.0	-18677.0
20	10	3	9	626	203.0	-204239.0	-4624.0	-18484.0
20	10	3	9	627	204.0	-204070.0	-4647.0	-18161.0
20	10	3	9	627	205.0	-203846.0	-4679.0	-17911.0
20	10	3	9	647	206.0	-203731.0	-4703.0	-17854.0
20	10	3	9	648	207.0	-203488.0	-4737.0	-18016.0
20	10	3	9	648	208.0	-203362.0	-4755.0	-18145.0
20	10	3	9	649	209.0	-203306.0	-4759.0	-18213.0
20	10	3	9	649	210.0	-203566.0	-4784.0	-18152.0
20	10	3	9	650	211.0	-203836.0	-4792.0	-17920.0
20	10	3	9	651	212.0	-204023.0	-4807.0	-17959.0
20	10	3	9	651	213.0	-203996.0	-4856.0	-18412.0
20	10	3	9	652	214.0	-203727.0	-4858.0	-18234.0
20	10	3	9	652	215.0	-203051.0	-4910.0	-18438.0
20	10	3	9	653	216.0	-202397.0	-4954.0	-18341.0
20	10	3	9	653	217.0	-201626.0	-4959.0	-17792.0
20	10	3	9	654	218.0	-200898.0	-4989.0	-17786.0
20	10	3	9	655	219.0	-200121.0	-5001.0	-17232.0
20	10	3	9	655	220.0	-199392.0	-5008.0	-17107.0
20	10	3	9	656	221.0	-198647.0	-5034.0	-16627.0
20	10	3	9	656	222.0	-198161.0	-5052.0	-16732.0
20	10	3	9	670	223.0	-197761.0	-5071.0	-17245.0
20	10	3	9	671	224.0	-197134.0	-5085.0	-17369.0
20	10	3	9	671	225.0	-196446.0	-5104.0	-17675.0
20	10	3	9	672	226.0	-195782.0	-5116.0	-17198.0
20	10	3	9	673	227.0	-195248.0	-5121.0	-16575.0
20	10	3	9	673	228.0	-195192.0	-5134.0	-16877.0
20	10	3	9	693	229.0	-195566.0	-5129.0	-16503.0
20	10	3	9	693	230.0	-195773.0	-5148.0	-16832.0
20	10	3	9	694	231.0	-196007.0	-5169.0	-17534.0
20	10	3	9	695	232.0	-196463.0	-5167.0	-17097.0
20	10	3	9	695	233.0	-196835.0	-5193.0	-17135.0
20	10	3	9	696	234.0	-197162.0	-5225.0	-16524.0
20	10	3	9	696	235.0	-197918.0	-5242.0	-15604.0
20	10	3	9	697	236.0	-199187.0	-5267.0	-16049.0
20	10	3	9	697	237.0	-200172.0	-5294.0	-16595.0
20	10	3	9	698	238.0	-200993.0	-5297.0	-16885.0
20	10	3	9	698	239.0	-201968.0	-5300.0	-17021.0
20	10	3	9	699	240.0	-203022.0	-5319.0	-17161.0
20	10	3	9	700	241.0	-203899.0	-5336.0	-17471.0
20	10	3	9	700	242.0	-204478.0	-5332.0	-17714.0
20	10	3	9	701	243.0	-204774.0	-5342.0	-18027.0
20	10	3	9	716	244.0	-204748.0	-5369.0	-17819.0
20	10	3	9	716	245.0	-204646.0	-5392.0	-17792.0
20	10	3	9	717	246.0	-204600.0	-5441.0	-17545.0
20	10	3	9	718	247.0	-204252.0	-5463.0	-18191.0
20	10	3	9	718	248.0	-203686.0	-5474.0	-18201.0
20	10	3	9	719	249.0	-203054.0	-5480.0	-17816.0
20	10	3	9	719	250.0	-202609.0	-5487.0	-17996.0
20	10	3	9	720	251.0	-202278.0	-5527.0	-17529.0
20	10	3	9	739	252.0	-201894.0	-5560.0	-17296.0
20	10	3	9	740	253.0	-201533.0	-5556.0	-17242.0
20	10	3	9	741	254.0	-201179.0	-5566.0	-16746.0
20	10	3	9	741	255.0	-200892.0	-5583.0	-16841.0
20	10	3	9	742	0.0	-200726.0	-5613.0	-16991.0
20	10	3	9	742	1.0	-200484.0	-5645.0	-17007.0
20	10	3	9	743	2.0	-200284.0	-5657.0	-16854.0
20	10	3	9	763	3.0	-200097.0	-5682.0	-16748.0
20	10	3	9	764	4.0	-200032.0	-5689.0	-16791.0
20	10	3	9	765	5.0	-199919.0	-5702.0	-15852.0
20	10	3	9	765	6.0	-199739.0	-5722.0	-15907.0
20	10	3	9	766	7.0	-199642.0	-5745.0	-16147.0
20	10	3	9	766	8.0	-199691.0	-5762.0	-15224.0
20	10	3	9	767	9.0	-199446.0	-5777.0	-15718.0
20	10	3	9	768	10.0	-198721.0	-5786.0	-15557.0
20	10	3	9	768	11.0	-197740.0	-5799.0	-15009.0
20	10	3	9	769	12.0	-196743.0	-5811.0	-15619.0
20	10	3	9	769	13.0	-195831.0	-5822.0	-15291.0
20	10	3	9	770	14.0	-194870.0	-5837.0	-15522.0
20	10	3	9	771	15.0	-193972.0	-5856.0	-15162.0
20	10	3	9	771	16.0	-193016.0	-5859.0	-14583.0
20	10	3	9	786	17.0	-192009.0	-5867.0	-14587.0
20	10	3	9	786	18.0	-191188.0	-5887.0	-14931.0
20	10	3	9	787	19.0	-190567.0	-5916.0	-15609.0
20	10	3	9	788	20.0	-190195.0	-5938.0	-15964.0
20	10	3	9	788	21.0	-189583.0	-5947.0	-15389.0
20	10	3	9	789	22.0	-188766.0	-5971.0	-14769.0
20	10	3	9	789	23.0	-187948.0	-5977.0	-14958.0
20	10	3	9	808	24.0	-187362.0	-5986.0	-14904.0
20	10	3	9	809	25.0	-187227.0	-5993.0	-15015.0
20	10	3	9	810	26.0	-187325.0	-6019.0	-14982.0
20	10	3	9	810	27.0	-187429.0	-6027.0	-14537.0
20	10	3	9	811	28.0	-187559.0	-6054.0	-15007.0
20	10	3	9	811	29.0	-187939.0	-6077.0	-14579.0
20	10	3	9	812	30.0	-188714.0	-6073.0	-14148.0
20	10	3	9	813	31.0	-189673.0	-6089.0	-15105.0
20	10	3	9	813	32.0	-190384.0	-6111.0	-15482.0
20	10	3	9	814	33.0	-190702.0	-6124.0	-17215.0
20	10	3	9	814	34.0	-191283.0	-6131.0	-18726.0
20	10	3	9	815	35.0	-191909.0	-6138.0	-19087.0
20	10	3	9	815	36.0	-192816.0	-6162.0	-20463.0
20	10	3	9	816	37.0	-193979.0	-6192.0	-20141.0
20	10	3	9	831	38.0	-195497.0	-6201.0	-19223.0
20	10	3	9	832	39.0	-197245.0	-6234.0	-18461.0
20	10	3	9	832	40.0	-198934.0	-6259.0	-18455.0
20	10	3	9	854	41.0	-200395.0	-6277.0	-18819.0
20	10	3	9	855	42.0	-201684.0	-6295.0	-18611.0
20	10	3	9	855	43.0	-203214.0	-6298.0	-19930.0
20	10	3	9	856	44.0	-204494.0	-6322.0	-22619.0
20	10	3	9	857	45.0	-205543.0	-6342.0	-26179.0
20	10	3	9	857	46.0	-206688.0	-6367.0	-28627.0
20	10	3	9	858	47.0	-208131.0	-6381.0	-28353.0
20	10	3	9	858	48.0	-209948.0	-6402.0	-25996.0
20	10	3	9	859	49.0	-211767.0	-6419.0	-23174.0
20	10	3	9	860	50.0	-213412.0	-6453.0	-20756.0
20	10	3	9	860	51.0	-214771.0	-6486.0	-17837.0
20	10	3	9	861	52.0	-215771.0	-6504.0	-14378.0
20	10	3	9	861	53.0	-216517.0	-6509.0	-11704.0
20	10	3	9	862	54.0	-216456.0	-6526.0	-10208.0
20	10	3	9	878	55.0	-215272.0	-6562.0	-9889.0
20	10	3	9	879	62.0	-184236.0	-6769.0	-12171.0
20	10	3	9	880	63.0	-175565.0	-6789.0	-12531.0
20	10	3	9	880	64.0	-164409.0	-6801.0	-12035.0
20	10	3	9	881	65.0	-153189.0	-6840.0	-12419.0
20	10	3	9	882	66.0	-148255.0	-6874.0	-12256.0
20	10	3	9	882	67.0	-151989.0	-6877.0	-12491.0
20	10	3	9	901	68.0	-165685.0	-6897.0	-13021.0
20	10	3	9	902	69.0	-187320.0	-6916.0	-12261.0
20	10	3	9	903	70.0	-207454.0	-6936.0	-12376.0
20	10	3	9	903	71.0	-217167.0	-6951.0	-13027.0
20	10	3	9	904	72.0	-202814.0	-6971.0	-13299.0
20	10	3	9	905	73.0	-176844.0	-7007.0	-13889.0
20	10	3	9	905	74.0	-164182.0	-7029.0	-14035.0
20	10	3	9	906	75.0	-161720.0	-7019.0	-14250.0
20	10	3	9	906	76.0	-166137.0	-7047.0	-14072.0
20	10	3	9	907	77.0	-178034.0	-7086.0	-13840.0
20	10	3	9	907	78.0	-198867.0	-7101.0	-13687.0
20	10	3	9	908	79.0	-212446.0	-7101.0	-13392.0
20	10	3	9	909	80.0	-209138.0	-7119.0	-13863.0
20	10	3	9	909	81.0	-196486.0	-7167.0	-14027.0
20	10	3	9	923	82.0	-181981.0	-7179.0	-13909.0
20	10	3	9	924	83.0	-169244.0	-7192.0	-13458.0
20	10	3	9	925	84.0	-161711.0	-7212.0	-13366.0
20	10	3	9	925	85.0	-163521.0	-7233.0	-13913.0
20	10	3	9	926	86.0	-173444.0	-7247.0	-13893.0
20	10	3	9	927	87.0	-184744.0	-7272.0	-14398.0
20	10	3	9	927	88.0	-192562.0	-7294.0	-14187.0
20	10	3	9	946	89.0	-195847.0	-7309.0	-13942.0
20	10	3	9	947	90.0	-196118.0	-7328.0	-13967.0
20	10	3	9	947	92.0	-194224.0	-7360.0	-13867.0
20	10	3	9	948	93.0	-192438.0	-7373.0	-13356.0
20	10	3	9	949	94.0	-190284.0	-7404.0	-13387.0
20	10	3	9	950	95.0	-189051.0	-7416.0	-13596.0
20	10	3	9	950	96.0	-189728.0	-7432.0	-13982.0
20	10	3	9	951	97.0	-191967.0	-7425.0	-14676.0
20	10	3	9	951	98.0	-194313.0	-7472.0	-13899.0
20	10	3	9	952	99.0	-196171.0	-7484.0	-13566.0
20	10	3	9	953	100.0	-197316.0	-7501.0	-13623.0
20	10	3	9	953	101.0	-198029.0	-7512.0	-12894.0
20	10	3	9	954	102.0	-198966.0	-7536.0	-13374.0
20	10	3	9	955	103.0	-200574.0	-7558.0	-13700.0
20	10	3	9	955	104.0	-202556.0	-7589.0	-13049.0
20	10	3	9	956	105.0	-204798.0	-7610.0	-13377.0
20	10	3	9	957	107.0	-209487.0	-7649.0	-13502.0
20	10	3	9	957	108.0	-212331.0	-7667.0	-13686.0
20	10	3	9	958	109.0	-214849.0	-7697.0	-13999.0
20	10	3	9	958	110.0	-216699.0	-7705.0	-14376.0
20	10	3	9	959	111.0	-218053.0	-7705.0	-14870.0
20	10	3	9	959	112.0	-219199.0	-7721.0	-15458.0
20	10	3	9	960	113.0	-219996.0	-7739.0	-15688.0
20	10	3	9	961	114.0	-220566.0	-7771.0	-15877.0
20	10	3	9	961	115.0	-220709.0	-7767.0	-15846.0
20	10	3	9	962	116.0	-220892.0	-7800.0	-15362.0
20	10	3	9	963	117.0	-220741.0	-7816.0	-15540.0
20	10	3	9	975	118.0	-220704.0	-7843.0	-16207.0
20	10	3	9	976	119.0	-220724.0	-7839.0	-16564.0
20	10	3	9	977	120.0	-220350.0	-7870.0	-16687.0
20	10	3	9	977	121.0	-219714.0	-7878.0	-16849.0
20	10	3	9	978	122.0	-218862.0	-7882.0	-17186.0
20	10	3	9	979	123.0	-217819.0	-7885.0	-16871.0
20	10	3	9	979	124.0	-217155.0	-7908.0	-17099.0
20	10	3	9	980	125.0	-216777.0	-7927.0	-17215.0
20	10	3	9	981	126.0	-215949.0	-7941.0	-16986.0
20	10	3	9	981	127.0	-214551.0	-7944.0	-16944.0
20	10	3	9	982	128.0	-212771.0	-7947.0	-17251.0
20	10	3	9	983	129.0	-211161.0	-7999.0	-17217.0
20	10	3	9	983	130.0	-209589.0	-8026.0	-17551.0
20	10	3	9	984	131.0	-207835.0	-8044.0	-17904.0
20	10	3	9	985	132.0	-205847.0	-8066.0	-18139.0
20	10	3	9	992	133.0	-204111.0	-8080.0	-18240.0
20	10	3	9	993	134.0	-202646.0	-8097.0	-18127.0
20	10	3	9	994	135.0	-201457.0	-8104.0	-17953.0
20	10	3	9	994	136.0	-200697.0	-8119.0	-17922.0
20	10	3	10	16	137.0	-199993.0	-8135.0	-17415.0
20	10	3	10	16	138.0	-199311.0	-8155.0	-17120.0
20	10	3	10	17	139.0	-199031.0	-8168.0	-17343.0
20	10	3	10	18	140.0	-199189.0	-8158.0	-17371.0
20	10	3	10	18	141.0	-199724.0	-8163.0	-17259.0
20	10	3	10	19	142.0	-200406.0	-8167.0	-17489.0
20	10	3	10	20	143.0	-200791.0	-8157.0	-17079.0
20	10	3	10	20	144.0	-200897.0	-8150.0	-16707.0
20	10	3	10	21	145.0	-201269.0	-8134.0	-16337.0
20	10	3	10	22	146.0	-201882.0	-8129.0	-15916.0
20	10	3	10	22	147.0	-202113.0	-8110.0	-15694.0
20	10	3	10	23	148.0	-202147.0	-8085.0	-15266.0
20	10	3	10	23	149.0	-202034.0	-8038.0	-15239.0
20	10	3	10	24	150.0	-201932.0	-8015.0	-15062.0
20	10	3	10	25	151.0	-201656.0	-7999.0	-15311.0
20	10	3	10	37	152.0	-200684.0	-7930.0	-15188.0
20	10	3	10	38	153.0	-199108.0	-7891.0	-14962.0
20	10	3	10	39	154.0	-197354.0	-7849.0	-14811.0
20	10	3	10	40	155.0	-195954.0	-7799.0	-14594.0
20	10	3	10	40	156.0	-194821.0	-7750.0	-14878.0
20	10	3	10	41	157.0	-193706.0	-7684.0	-14994.0
20	10	3	10	41	158.0	-192535.0	-7621.0	-15202.0
20	10	3	10	42	159.0	-191317.0	-7563.0	-14814.0
20	10	3	10	43	160.0	-190457.0	-7494.0	-14145.0
20	10	3	10	60	161.0	-190066.0	-7417.0	-14094.0
20	10	3	10	61	162.0	-190226.0	-7344.0	-14419.0
20	10	3	10	61	163.0	-190655.0	-7252.0	-14749.0
20	10	3	10	62	164.0	-190857.0	-7199.0	-14277.0
20	10	3	10	63	165.0	-191009.0	-7118.0	-13984.0
20	10	3	10	63	166.0	-191644.0	-7031.0	-14121.0
20	10	3	10	64	167.0	-192629.0	-6950.0	-14313.0
20	10	3	10	65	168.0	-193797.0	-6864.0	-13812.0
20	10	3	10	65	169.0	-194622.0	-6777.0	-13884.0
20	10	3	10	82	170.0	-195343.0	-6669.0	-14236.0
20	10	3	10	83	171.0	-196424.0	-6594.0	-13970.0
20	10	3	10	83	172.0	-197604.0	-6488.0	-14006.0
20	10	3	10	84	173.0	-198731.0	-6372.0	-14767.0
20	10	3	10	85	174.0	-199967.0	-6266.0	-14875.0
20	10	3	10	85	175.0	-201283.0	-6172.0	-15018.0
20	10	3	10	86	176.0	-202409.0	-6069.0	-15064.0
20	10	3	10	87	177.0	-203252.0	-5980.0	-15627.0
20	10	3	10	87	178.0	-204518.0	-5897.0	-15805.0
20	10	3	10	88	179.0	-205725.0	-5777.0	-15606.0
20	10	3	10	88	180.0	-206183.0	-5687.0	-16025.0
20	10	3	10	89	181.0	-206991.0	-5565.0	-16577.0
20	10	3	10	89	182.0	-207432.0	-5471.0	-16807.0
20	10	3	10	106	183.0	-208074.0	-5363.0	-17630.0
20	10	3	10	107	184.0	-208607.0	-5269.0	-18138.0
20	10	3	10	107	185.0	-208831.0	-5154.0	-18291.0
20	10	3	10	108	186.0	-208972.0	-5051.0	-18503.0
20	10	3	10	109	187.0	-209221.0	-4971.0	-18924.0
20	10	3	10	109	188.0	-209296.0	-4852.0	-19070.0
20	10	3	10	110	189.0	-209650.0	-4762.0	-19185.0
20	10	3	10	111	190.0	-210098.0	-4669.0	-19677.0
20	10	3	10	111	191.0	-210516.0	-4571.0	-19546.0
20	10	3	10	112	192.0	-210719.0	-4481.0	-19483.0
20	10	3	10	113	193.0	-210656.0	-4395.0	-19781.0
20	10	3	10	113	194.0	-210514.0	-4314.0	-19882.0
20	10	3	10	114	195.0	-210243.0	-4224.0	-20174.0
20	10	3	10	114	196.0	-209627.0	-4121.0	-20347.0
20	10	3	10	115	197.0	-208823.0	-4054.0	-20667.0
20	10	3	10	128	198.0	-207829.0	-3991.0	-21055.0
20	10	3	10	129	199.0	-206286.0	-3912.0	-21039.0
20	10	3	10	130	200.0	-203904.0	-3843.0	-21382.0
20	10	3	10	130	201.0	-200056.0	-3754.0	-21812.0
20	10	3	10	131	202.0	-190732.0	-3706.0	-21701.0
20	10	3	10	131	203.0	-175302.0	-3634.0	-21871.0
20	10	3	10	132	204.0	-169145.0	-3559.0	-22452.0
20	10	3	10	151	205.0	-177759.0	-3499.0	-22402.0
20	10	3	10	152	206.0	-190564.0	-3432.0	-22661.0
20	10	3	10	153	207.0	-198919.0	-3357.0	-22566.0
20	10	3	10	154	208.0	-207551.0	-3299.0	-22596.0
20	10	3	10	154	209.0	-215024.0	-3241.0	-22467.0
20	10	3	10	155	210.0	-219157.0	-3192.0	-22468.0
20	10	3	10	155	211.0	-220930.0	-3132.0	-22334.0
20	10	3	10	156	212.0	-221057.0	-3068.0	-22666.0
20	10	3	10	157	213.0	-220045.0	-3016.0	-22825.0
20	10	3	10	157	214.0	-217535.0	-2967.0	-22870.0
20	10	3	10	158	215.0	-215862.0	-2919.0	-22910.0
20	10	3	10	158	216.0	-215517.0	-2858.0	-23016.0
20	10	3	10	159	217.0	-214230.0	-2810.0	-23136.0
20	10	3	10	160	218.0	-211604.0	-2769.0	-23074.0
20	10	3	10	160	219.0	-208487.0	-2717.0	-23543.0
20	10	3	10	178	220.0	-205821.0	-2674.0	-23069.0
20	10	3	10	178	221.0	-203274.0	-2637.0	-23039.0
20	10	3	10	179	222.0	-199817.0	-2584.0	-23230.0
20	10	3	10	179	223.0	-194106.0	-2557.0	-23132.0
20	10	3	10	180	224.0	-187331.0	-2530.0	-22974.0
20	10	3	10	181	225.0	-182766.0	-2473.0	-23114.0
20	10	3	10	181	226.0	-183202.0	-2442.0	-23262.0
20	10	3	10	182	227.0	-187121.0	-2399.0	-23082.0
20	10	3	10	182	228.0	-190596.0	-2385.0	-23206.0
20	10	3	10	200	229.0	-191955.0	-2359.0	-23337.0
20	10	3	10	201	230.0	-192177.0	-2327.0	-23062.0
20	10	3	10	202	231.0	-192932.0	-2292.0	-22947.0
20	10	3	10	202	232.0	-194621.0	-2275.0	-23238.0
20	10	3	10	203	233.0	-197293.0	-2231.0	-23553.0
20	10	3	10	204	234.0	-199514.0	-2186.0	-23704.0
20	10	3	10	204	235.0	-200789.0	-2154.0	-23611.0
20	10	3	10	205	236.0	-201093.0	-2101.0	-23487.0
20	10	3	10	205	237.0	-201125.0	-2053.0	-23570.0
20	10	3	10	206	238.0	-201454.0	-2025.0	-23792.0
20	10	3	10	206	239.0	-202187.0	-2002.0	-23627.0
20	10	3	10	207	240.0	-203059.0	-1986.0	-23268.0
20	10	3	10	208	241.0	-204216.0	-1957.0	-23034.0
20	10	3	10	223	242.0	-205256.0	-1922.0	-22783.0
20	10	3	10	223	243.0	-205644.0	-1894.0	-22727.0
20	10	3	10	224	244.0	-205403.0	-1892.0	-23200.0
20	10	3	10	224	245.0	-204726.0	-1862.0	-23761.0
20	10	3	10	225	246.0	-203866.0	-1832.0	-23825.0
20	10	3	10	226	247.0	-203437.0	-1820.0	-23779.0
20	10	3	10	246	248.0	-203394.0	-1792.0	-23786.0
20	10	3	10	246	249.0	-203356.0	-1764.0	-23083.0
20	10	3	10	247	250.0	-202972.0	-1769.0	-22681.0
20	10	3	10	248	251.0	-202238.0	-1757.0	-22829.0
20	10	3	10	248	252.0	-201540.0	-1728.0	-23042.0
20	10	3	10	249	253.0	-200934.0	-1711.0	-22975.0
20	10	3	10	249	254.0	-200187.0	-1686.0	-23147.0
20	10	3	10	250	255.0	-199636.0	-1659.0	-23342.0
20	10	3	10	275	0.0	-199060.0	-1655.0	-23152.0
20	10	3	10	276	1.0	-197977.0	-1617.0	-23345.0
20	10	3	10	277	2.0	-196674.0	-1606.0	-23523.0
20	10	3	10	277	3.0	-195957.0	-1615.0	-22943.0
20	10	3	10	278	4.0	-195866.0	-1591.0	-22381.0
20	10	3	10	279	5.0	-195839.0	-1574.0	-22823.0
20	10	3	10	279	6.0	-195744.0	-1547.0	-22631.0
20	10	3	10	292	7.0	-195987.0	-1535.0	-22403.0
20	10	3	10	292	8.0	-196821.0	-1536.0	-22497.0
20	10	3	10	293	9.0	-197818.0	-1519.0	-22865.0
20	10	3	10	294	10.0	-198726.0	-1489.0	-22729.0
20	10	3	10	294	11.0	-199396.0	-1464.0	-22308.0
20	10	3	10	295	12.0	-199999.0	-1470.0	-22397.0
20	10	3	10	295	13.0	-200636.0	-1449.0	-22774.0
20	10	3	10	314	14.0	-200950.0	-1414.0	-22681.0
20	10	3	10	315	15.0	-201273.0	-1410.0	-22495.0
20	10	3	10	316	23.0	-201923.0	-1317.0	-22509.0
20	10	3	10	316	24.0	-203003.0	-1341.0	-22909.0
20	10	3	10	317	25.0	-204239.0	-1344.0	-23129.0
20	10	3	10	317	26.0	-205607.0	-1349.0	-22922.0
20	10	3	10	318	27.0	-207175.0	-1332.0	-22771.0
20	10	3	10	338	28.0	-208482.0	-1339.0	-22897.0
20	10	3	10	339	29.0	-209306.0	-1353.0	-22486.0
20	10	3	10	339	31.0	-210341.0	-1377.0	-23057.0
20	10	3	10	340	32.0	-210308.0	-1382.0	-22992.0
20	10	3	10	340	33.0	-210339.0	-1382.0	-22779.0
20	10	3	10	341	34.0	-209973.0	-1387.0	-22582.0
20	10	3	10	341	35.0	-209189.0	-1382.0	-22596.0
20	10	3	10	342	36.0	-208365.0	-1388.0	-22637.0
20	10	3	10	343	37.0	-208152.0	-1401.0	-22571.0
20	10	3	10	343	38.0	-207883.0	-1394.0	-22578.0
20	10	3	10	344	39.0	-207301.0	-1378.0	-21868.0
20	10	3	10	344	40.0	-206671.0	-1381.0	-21234.0
20	10	3	10	345	41.0	-206039.0	-1383.0	-21711.0
20	10	3	10	346	42.0	-205185.0	-1387.0	-21925.0
20	10	3	10	361	43.0	-204142.0	-1377.0	-21681.0
20	10	3	10	362	44.0	-203174.0	-1361.0	-21838.0
20	10	3	10	362	45.0	-202132.0	-1359.0	-22262.0
20	10	3	10	363	46.0	-201025.0	-1358.0	-22254.0
20	10	3	10	363	47.0	-200089.0	-1362.0	-22556.0
20	10	3	10	364	48.0	-199290.0	-1347.0	-22852.0
20	10	3	10	365	49.0	-198571.0	-1352.0	-22956.0
20	10	3	10	365	50.0	-198060.0	-1358.0	-22826.0
20	10	3	10	366	51.0	-197743.0	-1364.0	-22872.0
20	10	3	10	366	53.0	-196991.0	-1372.0	-22046.0
20	10	3	10	367	54.0	-196748.0	-1362.0	-21738.0
20	10	3	10	368	55.0	-196870.0	-1371.0	-22407.0
20	10	3	10	368	56.0	-196916.0	-1368.0	-22585.0
20	10	3	10	369	57.0	-196874.0	-1379.0	-22724.0
20	10	3	10	383	58.0	-197062.0	-1401.0	-22171.0
20	10	3	10	384	59.0	-197356.0	-1415.0	-22343.0
20	10	3	10	385	60.0	-197434.0	-1412.0	-22419.0
20	10	3	10	385	61.0	-197344.0	-1424.0	-22549.0
20	10	3	10	386	62.0	-197348.0	-1424.0	-22629.0
20	10	3	10	386	63.0	-197571.0	-1428.0	-22934.0
20	10	3	10	387	64.0	-197928.0	-1426.0	-23349.0
20	10	3	10	407	65.0	-198382.0	-1431.0	-23190.0
20	10	3	10	408	66.0	-199051.0	-1449.0	-22974.0
20	10	3	10	409	68.0	-201737.0	-1442.0	-23476.0
20	10	3	10	409	69.0	-203232.0	-1430.0	-22740.0
20	10	3	10	410	70.0	-204412.0	-1429.0	-22819.0
20	10	3	10	411	71.0	-205562.0	-1444.0	-23207.0
20	10	3	10	411	72.0	-206259.0	-1456.0	-23212.0
20	10	3	10	412	73.0	-206606.0	-1451.0	-22955.0
20	10	3	10	413	74.0	-206817.0	-1459.0	-22878.0
20	10	3	10	413	75.0	-206730.0	-1462.0	-22462.0
20	10	3	10	414	76.0	-206810.0	-1454.0	-22551.0
20	10	3	10	414	77.0	-207041.0	-1451.0	-22886.0
20	10	3	10	415	78.0	-207117.0	-1438.0	-23096.0
20	10	3	10	416	79.0	-207361.0	-1446.0	-22624.0
20	10	3	10	430	80.0	-207610.0	-1464.0	-22127.0
20	10	3	10	430	81.0	-207678.0	-1466.0	-21509.0
20	10	3	10	431	83.0	-207395.0	-1442.0	-19909.0
20	10	3	10	431	84.0	-207183.0	-1436.0	-20034.0
20	10	3	10	432	85.0	-206689.0	-1444.0	-19802.0
20	10	3	10	433	86.0	-206410.0	-1450.0	-19769.0
20	10	3	10	433	87.0	-205930.0	-1460.0	-20249.0
20	10	3	10	454	88.0	-205570.0	-1435.0	-20398.0
20	10	3	10	454	89.0	-204834.0	-1449.0	-19861.0
20	10	3	10	455	90.0	-203712.0	-1459.0	-19377.0
20	10	3	10	456	91.0	-202126.0	-1451.0	-19514.0
20	10	3	10	456	92.0	-200497.0	-1462.0	-19561.0
20	10	3	10	457	93.0	-198736.0	-1459.0	-19167.0
20	10	3	10	458	94.0	-196671.0	-1458.0	-19267.0
20	10	3	10	458	95.0	-194895.0	-1459.0	-19276.0
20	10	3	10	459	96.0	-193349.0	-1475.0	-19381.0
20	10	3	10	459	98.0	-188837.0	-1461.0	-19984.0
20	10	3	10	460	99.0	-186272.0	-1466.0	-19809.0
20	10	3	10	461	100.0	-184530.0	-1452.0	-19830.0
20	10	3	10	461	101.0	-183297.0	-1451.0	-19263.0
20	10	3	10	462	102.0	-182369.0	-1461.0	-19071.0
20	10	3	10	462	103.0	-181669.0	-1451.0	-19456.0
20	10	3	10	463	104.0	-181367.0	-1469.0	-19607.0
20	10	3	10	464	105.0	-181453.0	-1482.0	-19459.0
20	10	3	10	464	106.0	-182010.0	-1487.0	-19216.0
20	10	3	10	465	107.0	-182986.0	-1487.0	-19667.0
20	10	3	10	465	108.0	-184098.0	-1488.0	-19562.0
20	10	3	10	466	109.0	-185196.0	-1508.0	-19346.0
20	10	3	10	467	110.0	-186527.0	-1530.0	-19877.0
20	10	3	10	468	111.0	-187954.0	-1539.0	-21669.0
20	10	3	10	469	112.0	-189351.0	-1536.0	-24322.0
20	10	3	10	470	113.0	-190934.0	-1546.0	-26442.0
20	10	3	10	470	114.0	-193000.0	-1566.0	-27858.0
20	10	3	10	471	115.0	-195172.0	-1569.0	-27711.0
20	10	3	10	472	116.0	-197349.0	-1571.0	-27157.0
20	10	3	10	473	117.0	-199520.0	-1562.0	-26368.0
20	10	3	10	473	118.0	-201579.0	-1553.0	-24836.0
20	10	3	10	474	119.0	-203116.0	-1560.0	-24184.0
20	10	3	10	475	120.0	-204030.0	-1561.0	-24995.0
20	10	3	10	476	121.0	-204084.0	-1566.0	-26041.0
20	10	3	10	490	122.0	-203654.0	-1573.0	-27989.0
20	10	3	10	491	123.0	-203195.0	-1588.0	-31506.0
20	10	3	10	513	124.0	-202747.0	-1575.0	-34374.0
20	10	3	10	514	125.0	-202228.0	-1573.0	-35121.0
20	10	3	10	515	126.0	-201461.0	-1576.0	-34486.0
20	10	3	10	515	127.0	-200951.0	-1578.0	-31670.0
20	10	3	10	516	128.0	-201559.0	-1576.0	-28177.0
20	10	3	10	517	129.0	-203382.0	-1592.0	-24947.0
20	10	3	10	517	130.0	-205687.0	-1578.0	-21869.0
20	10	3	10	518	131.0	-207991.0	-1578.0	-19036.0
20	10	3	10	518	132.0	-209875.0	-1597.0	-17349.0
20	10	3	10	519	133.0	-211224.0	-1612.0	-17252.0
20	10	3	10	519	134.0	-211663.0	-1585.0	-17333.0
20	10	3	10	520	135.0	-211464.0	-1601.0	-18009.0
20	10	3	10	520	136.0	-211675.0	-1602.0	-18368.0
20	10	3	10	521	137.0	-213416.0	-1606.0	-18466.0
20	10	3	10	522	138.0	-208137.0	-1603.0	-18785.0
20	10	3	10	522	139.0	-193904.0	-1616.0	-18732.0
20	10	3	10	523	140.0	-188739.0	-1623.0	-18628.0
20	10	3	10	523	141.0	-188059.0	-1633.0	-18378.0
20	10	3	10	524	142.0	-188657.0	-1649.0	-18302.0
20	10	3	10	536	143.0	-189834.0	-1679.0	-18003.0
20	10	3	10	537	144.0	-186867.0	-1696.0	-17902.0
20	10	3	10	538	145.0	-184101.0	-1698.0	-18342.0
20	10	3	10	538	146.0	-186816.0	-1709.0	-18534.0
20	10	3	10	539	147.0	-190822.0	-1709.0	-18336.0
20	10	3	10	539	148.0	-191918.0	-1720.0	-18144.0
20	10	3	10	540	149.0	-188833.0	-1718.0	-18596.0
20	10	3	10	559	150.0	-185476.0	-1744.0	-18876.0
20	10	3	10	560	151.0	-185924.0	-1764.0	-18698.0
20	10	3	10	560	152.0	-181254.0	-1784.0	-18806.0
20	10	3	10	561	153.0	-177367.0	-1794.0	-18926.0
20	10	3	10	562	154.0	-176213.0	-1801.0	-18375.0
20	10	3	10	562	155.0	-183686.0	-1801.0	-18436.0
20	10	3	10	563	156.0	-198385.0	-1794.0	-18879.0
20	10	3	10	563	157.0	-212376.0	-1807.0	-19001.0
20	10	3	10	564	158.0	-216573.0	-1828.0	-18609.0
20	10	3	10	564	159.0	-209452.0	-1821.0	-18481.0
20	10	3	10	565	160.0	-195986.0	-1824.0	-18349.0
20	10	3	10	566	161.0	-181071.0	-1832.0	-18267.0
20	10	3	10	566	162.0	-168096.0	-1852.0	-18313.0
20	10	3	10	567	163.0	-162398.0	-1862.0	-18451.0
20	10	3	10	567	164.0	-166236.0	-1861.0	-18542.0
20	10	3	10	568	165.0	-176167.0	-1867.0	-18668.0
20	10	3	10	581	166.0	-186681.0	-1876.0	-18682.0
20	10	3	10	582	167.0	-195063.0	-1879.0	-19042.0
20	10	3	10	582	168.0	-200286.0	-1874.0	-18833.0
20	10	3	10	583	169.0	-202314.0	-1877.0	-18412.0
20	10	3	10	584	170.0	-203175.0	-1893.0	-18500.0
20	10	3	10	584	171.0	-204349.0	-1897.0	-18402.0
20	10	3	10	585	172.0	-205407.0	-1902.0	-18373.0
20	10	3	10	585	173.0	-205466.0	-1915.0	-18739.0
20	10	3	10	586	174.0	-204638.0	-1921.0	-19060.0
20	10	3	10	605	175.0	-203761.0	-1945.0	-19278.0
20	10	3	10	606	176.0	-203626.0	-1957.0	-19333.0
20	10	3	10	607	177.0	-204779.0	-1971.0	-19409.0
20	10	3	10	607	178.0	-205867.0	-1964.0	-19380.0
20	10	3	10	608	179.0	-205679.0	-1991.0	-19200.0
20	10	3	10	608	180.0	-205222.0	-2004.0	-18813.0
20	10	3	10	609	181.0	-204360.0	-2007.0	-18847.0
20	10	3	10	610	182.0	-204089.0	-2005.0	-19312.0
20	10	3	10	610	183.0	-204283.0	-2024.0	-19433.0
20	10	3	10	611	184.0	-204862.0	-2051.0	-18830.0
20	10	3	10	611	185.0	-205911.0	-2051.0	-18735.0
20	10	3	10	612	186.0	-206926.0	-2072.0	-18537.0
20	10	3	10	612	187.0	-207242.0	-2091.0	-18512.0
20	10	3	10	628	188.0	-207466.0	-2115.0	-18764.0
20	10	3	10	629	189.0	-207394.0	-2113.0	-19434.0
20	10	3	10	630	190.0	-206926.0	-2112.0	-19344.0
20	10	3	10	630	191.0	-206035.0	-2137.0	-18957.0
20	10	3	10	631	192.0	-205236.0	-2176.0	-18262.0
20	10	3	10	631	193.0	-205468.0	-2193.0	-17782.0
20	10	3	10	632	194.0	-206235.0	-2209.0	-17439.0
20	10	3	10	652	195.0	-207223.0	-2227.0	-17691.0
20	10	3	10	653	196.0	-208384.0	-2267.0	-18103.0
20	10	3	10	654	197.0	-209512.0	-2291.0	-17879.0
20	10	3	10	654	198.0	-210097.0	-2302.0	-18219.0
20	10	3	10	655	199.0	-210972.0	-2301.0	-18892.0
20	10	3	10	655	200.0	-212535.0	-2326.0	-18317.0
20	10	3	10	656	201.0	-213412.0	-2359.0	-17752.0
20	10	3	10	656	202.0	-213146.0	-2382.0	-18259.0
20	10	3	10	657	203.0	-212526.0	-2401.0	-18536.0
20	10	3	10	658	204.0	-211746.0	-2401.0	-18014.0
20	10	3	10	658	205.0	-211372.0	-2433.0	-17858.0
20	10	3	10	659	206.0	-211440.0	-2464.0	-18091.0
20	10	3	10	659	207.0	-211504.0	-2482.0	-17996.0
20	10	3	10	660	208.0	-210995.0	-2511.0	-17972.0
20	10	3	10	675	209.0	-210176.0	-2528.0	-17866.0
20	10	3	10	676	210.0	-209641.0	-2559.0	-17356.0
20	10	3	10	677	211.0	-209210.0	-2560.0	-17281.0
20	10	3	10	677	212.0	-208816.0	-2581.0	-17189.0
20	10	3	10	678	213.0	-208461.0	-2592.0	-17376.0
20	10	3	10	678	214.0	-208083.0	-2601.0	-17496.0
20	10	3	10	679	215.0	-207321.0	-2612.0	-17346.0
20	10	3	10	679	216.0	-206255.0	-2627.0	-17222.0
20	10	3	10	680	217.0	-205147.0	-2614.0	-17379.0
20	10	3	10	681	218.0	-203862.0	-2597.0	-17507.0
20	10	3	10	682	219.0	-202400.0	-2597.0	-17742.0
20	10	3	10	682	220.0	-200798.0	-2594.0	-17515.0
20	10	3	10	683	221.0	-199325.0	-2589.0	-17288.0
20	10	3	10	683	222.0	-197881.0	-2573.0	-16717.0
20	10	3	10	698	223.0	-196339.0	-2575.0	-16329.0
20	10	3	10	698	224.0	-194919.0	-2556.0	-16077.0
20	10	3	10	699	225.0	-194049.0	-2514.0	-15946.0
20	10	3	10	699	226.0	-193795.0	-2478.0	-16121.0
20	10	3	10	700	227.0	-193744.0	-2454.0	-16081.0
20	10	3	10	701	228.0	-193802.0	-2422.0	-16164.0
20	10	3	10	701	229.0	-193708.0	-2402.0	-16187.0
20	10	3	10	722	230.0	-193242.0	-2382.0	-15459.0
20	10	3	10	723	231.0	-192648.0	-2346.0	-15271.0
20	10	3	10	724	232.0	-192054.0	-2292.0	-15559.0
20	10	3	10	724	233.0	-191422.0	-2236.0	-15186.0
20	10	3	10	725	234.0	-190868.0	-2180.0	-14834.0
20	10	3	10	726	235.0	-190619.0	-2129.0	-14544.0
20	10	3	10	726	236.0	-190307.0	-2088.0	-14339.0
20	10	3	10	727	237.0	-190624.0	-2022.0	-14198.0
20	10	3	10	727	238.0	-190787.0	-1950.0	-14144.0
20	10	3	10	728	239.0	-190613.0	-1858.0	-14792.0
20	10	3	10	729	240.0	-190642.0	-1796.0	-14904.0
20	10	3	10	729	241.0	-191290.0	-1731.0	-14621.0
20	10	3	10	730	242.0	-192369.0	-1656.0	-14319.0
20	10	3	10	731	243.0	-193852.0	-1557.0	-14522.0
20	10	3	10	745	244.0	-195442.0	-1447.0	-14854.0
20	10	3	10	746	245.0	-196998.0	-1362.0	-14941.0
20	10	3	10	746	246.0	-198655.0	-1271.0	-14611.0
20	10	3	10	747	247.0	-200516.0	-1180.0	-14444.0
20	10	3	10	747	248.0	-202212.0	-1100.0	-14715.0
20	10	3	10	748	249.0	-203471.0	-1007.0	-15054.0
20	10	3	10	749	250.0	-204311.0	-899.0	-15305.0
20	10	3	10	786	251.0	-205024.0	-821.0	-15261.0
20	10	3	10	787	252.0	-205601.0	-732.0	-15149.0
20	10	3	10	787	253.0	-206321.0	-643.0	-15517.0
20	10	3	10	801	254.0	-207128.0	-516.0	-16136.0
20	10	3	10	802	255.0	-207754.0	-422.0	-16857.0
20	10	3	10	803	0.0	-208206.0	-332.0	-16909.0
20	10	3	10	803	1.0	-208631.0	-231.0	-17063.0
20	10	3	10	804	2.0	-209047.0	-127.0	-16797.0
20	10	3	10	805	3.0	-209464.0	-42.0	-16616.0
20	10	3	10	805	4.0	-209664.0	53.0	-16733.0
20	10	3	10	806	5.0	-209625.0	154.0	-16977.0
20	10	3	10	806	6.0	-209394.0	245.0	-17086.0
20	10	3	10	807	7.0	-209248.0	361.0	-17247.0
20	10	3	10	808	8.0	-209364.0	451.0	-17617.0
20	10	3	10	808	9.0	-209520.0	520.0	-18637.0
20	10	3	10	809	10.0	-209452.0	620.0	-18823.0
20	10	3	10	810	21.0	-207011.0	1519.0	-20829.0
20	10	3	10	810	22.0	-206174.0	1579.0	-21032.0
20	10	3	10	811	29.0	-169905.0	2007.0	-20950.0
20	10	3	10	811	30.0	-173476.0	2070.0	-21051.0
20	10	3	10	812	31.0	-187354.0	2106.0	-20964.0
20	10	3	10	813	32.0	-199842.0	2166.0	-21202.0
20	10	3	10	825	33.0	-207379.0	2228.0	-21102.0
20	10	3	10	825	34.0	-211336.0	2268.0	-21156.0
20	10	3	10	826	35.0	-208461.0	2299.0	-21250.0
20	10	3	10	827	36.0	-204196.0	2328.0	-21049.0
20	10	3	10	848	37.0	-204928.0	2369.0	-20470.0
20	10	3	10	849	38.0	-208916.0	2420.0	-20216.0
20	10	3	10	850	39.0	-210946.0	2471.0	-20681.0
20	10	3	10	850	40.0	-210048.0	2516.0	-20660.0
20	10	3	10	851	41.0	-209721.0	2570.0	-19999.0
20	10	3	10	851	42.0	-211335.0	2578.0	-19641.0
20	10	3	10	852	43.0	-212949.0	2628.0	-19367.0
20	10	3	10	852	44.0	-213844.0	2675.0	-19705.0
20	10	3	10	853	45.0	-214169.0	2711.0	-20037.0
20	10	3	10	854	46.0	-213659.0	2736.0	-19674.0
20	10	3	10	854	47.0	-211836.0	2770.0	-18897.0
20	10	3	10	855	48.0	-209194.0	2814.0	-18413.0
20	10	3	10	855	49.0	-207205.0	2854.0	-18605.0
20	10	3	10	856	50.0	-206232.0	2886.0	-18060.0
20	10	3	10	870	51.0	-205937.0	2927.0	-17361.0
20	10	3	10	871	52.0	-206037.0	2951.0	-17879.0
20	10	3	10	872	53.0	-206260.0	2983.0	-18284.0
20	10	3	10	873	54.0	-206442.0	3011.0	-18214.0
20	10	3	10	873	55.0	-206302.0	3028.0	-18056.0
20	10	3	10	874	56.0	-205485.0	3063.0	-17847.0
20	10	3	10	874	57.0	-204196.0	3111.0	-17308.0
20	10	3	10	875	58.0	-203476.0	3128.0	-17312.0
20	10	3	10	876	59.0	-203005.0	3159.0	-17423.0
20	10	3	10	876	60.0	-202496.0	3184.0	-17297.0
20	10	3	10	877	61.0	-201801.0	3226.0	-17629.0
20	10	3	10	877	62.0	-201212.0	3259.0	-17791.0
20	10	3	10	878	63.0	-200761.0	3279.0	-17766.0
20	10	3	10	879	64.0	-200063.0	3274.0	-17712.0
20	10	3	10	893	65.0	-199117.0	3296.0	-17834.0
20	10	3	10	893	66.0	-198238.0	3340.0	-17601.0
20	10	3	10	894	67.0	-197561.0	3358.0	-17581.0
20	10	3	10	895	68.0	-197112.0	3364.0	-17481.0
20	10	3	10	895	69.0	-196741.0	3400.0	-17612.0
20	10	3	10	896	70.0	-196440.0	3417.0	-17559.0
20	10	3	10	896	71.0	-196169.0	3440.0	-17437.0
20	10	3	10	917	72.0	-196087.0	3473.0	-17660.0
20	10	3	10	918	73.0	-196160.0	3487.0	-17749.0
20	10	3	10	919	74.0	-196307.0	3498.0	-17652.0
20	10	3	10	919	75.0	-196261.0	3525.0	-17714.0
20	10	3	10	920	76.0	-195910.0	3533.0	-17528.0
20	10	3	10	921	77.0	-195572.0	3519.0	-17421.0
20	10	3	10	921	78.0	-195319.0	3521.0	-17294.0
20	10	3	10	922	79.0	-195349.0	3514.0	-17123.0
20	10	3	10	923	80.0	-195200.0	3529.0	-16946.0
20	10	3	10	923	81.0	-194554.0	3549.0	-17389.0
20	10	3	10	924	82.0	-193899.0	3546.0	-17367.0
20	10	3	10	924	83.0	-193297.0	3526.0	-16622.0
20	10	3	10	925	84.0	-192389.0	3513.0	-16974.0
20	10	3	10	926	85.0	-191229.0	3499.0	-17329.0
20	10	3	10	941	86.0	-190346.0	3491.0	-17396.0
20	10	3	10	941	87.0	-189832.0	3480.0	-16776.0
20	10	3	10	942	88.0	-189605.0	3498.0	-16770.0
20	10	3	10	943	89.0	-189473.0	3481.0	-16819.0
20	10	3	10	943	90.0	-189733.0	3480.0	-16436.0
20	10	3	10	944	91.0	-190441.0	3476.0	-16236.0
20	10	3	10	944	92.0	-191372.0	3471.0	-16549.0
20	10	3	10	963	93.0	-192352.0	3442.0	-16368.0
20	10	3	10	964	94.0	-193597.0	3429.0	-16248.0
20	10	3	10	964	95.0	-195007.0	3428.0	-17099.0
20	10	3	10	965	96.0	-196196.0	3388.0	-17106.0
20	10	3	10	966	97.0	-196991.0	3378.0	-16646.0
20	10	3	10	966	98.0	-197878.0	3353.0	-16502.0
20	10	3	10	967	99.0	-199060.0	3343.0	-16042.0
20	10	3	10	967	100.0	-200089.0	3316.0	-15847.0
20	10	3	10	968	101.0	-200967.0	3300.0	-15890.0
20	10	3	10	969	102.0	-201222.0	3284.0	-16088.0
20	10	3	10	969	103.0	-200823.0	3260.0	-15907.0
20	10	3	10	970	104.0	-200523.0	3246.0	-15326.0
20	10	3	10	970	105.0	-200786.0	3229.0	-15002.0
20	10	3	10	971	106.0	-201496.0	3224.0	-15240.0
20	10	3	10	971	107.0	-202159.0	3216.0	-15722.0
20	10	3	10	972	108.0	-202466.0	3203.0	-15627.0
20	10	3	10	972	109.0	-202984.0	3192.0	-14864.0
20	10	3	10	973	110.0	-203852.0	3188.0	-14239.0
20	10	3	10	974	111.0	-205104.0	3189.0	-15177.0
20	10	3	10	987	112.0	-206449.0	3201.0	-15103.0
20	10	3	10	988	113.0	-207744.0	3182.0	-14844.0
20	10	3	10	988	114.0	-208954.0	3178.0	-14725.0
20	10	3	10	989	115.0	-210043.0	3158.0	-14515.0
20	10	3	10	990	116.0	-210514.0	3131.0	-14629.0
20	10	3	10	990	117.0	-210088.0	3137.0	-14733.0
20	10	3	10	991	118.0	-209343.0	3131.0	-14547.0
20	10	3	10	991	119.0	-208382.0	3126.0	-14110.0
20	10	3	10	992	120.0	-207272.0	3105.0	-13892.0
20	10	3	11	10	121.0	-206198.0	3093.0	-14169.0
20	10	3	11	11	122.0	-205394.0	3081.0	-14021.0
20	10	3	11	12	123.0	-204906.0	3054.0	-13853.0
20	10	3	11	12	124.0	-204714.0	3021.0	-13892.0
20	10	3	11	13	125.0	-204263.0	3003.0	-13702.0
20	10	3	11	14	126.0	-203591.0	2993.0	-12989.0
20	10	3	11	14	127.0	-202857.0	2969.0	-12815.0
20	10	3	11	15	128.0	-202153.0	2951.0	-13181.0
20	10	3	11	15	129.0	-201562.0	2936.0	-13104.0
20	10	3	11	16	130.0	-201012.0	2911.0	-13190.0
20	10	3	11	16	131.0	-200569.0	2905.0	-13912.0
20	10	3	11	17	132.0	-199962.0	2881.0	-14332.0
20	10	3	11	18	133.0	-199369.0	2863.0	-14087.0
20	10	3	11	18	134.0	-198927.0	2844.0	-13884.0
20	10	3	11	33	135.0	-198664.0	2828.0	-14179.0
20	10	3	11	33	136.0	-198492.0	2792.0	-14479.0
20	10	3	11	34	137.0	-198105.0	2765.0	-14119.0
20	10	3	11	34	138.0	-197832.0	2755.0	-13966.0
20	10	3	11	35	139.0	-197654.0	2742.0	-13604.0
20	10	3	11	36	140.0	-197751.0	2735.0	-13466.0
20	10	3	11	36	141.0	-197899.0	2701.0	-13193.0
20	10	3	11	37	142.0	-198199.0	2670.0	-13066.0
20	10	3	11	55	143.0	-198164.0	2644.0	-13333.0
20	10	3	11	56	144.0	-197711.0	2615.0	-13860.0
20	10	3	11	57	145.0	-197151.0	2592.0	-13863.0
20	10	3	11	58	146.0	-196794.0	2567.0	-13679.0
20	10	3	11	58	147.0	-196720.0	2558.0	-13650.0
20	10	3	11	59	148.0	-196782.0	2543.0	-13462.0
20	10	3	11	60	149.0	-196970.0	2514.0	-13229.0
20	10	3	11	60	150.0	-197117.0	2501.0	-13706.0
20	10	3	11	61	151.0	-197267.0	2503.0	-13992.0
20	10	3	11	62	152.0	-197541.0	2483.0	-13927.0
20	10	3	11	62	153.0	-198063.0	2481.0	-14141.0
20	10	3	11	63	154.0	-198726.0	2466.0	-13707.0
20	10	3	11	64	155.0	-199432.0	2450.0	-13007.0
20	10	3	11	64	156.0	-200209.0	2411.0	-12792.0
20	10	3	11	65	157.0	-200712.0	2397.0	-12774.0
20	10	3	11	78	158.0	-200892.0	2378.0	-12309.0
20	10	3	11	79	159.0	-200836.0	2379.0	-12102.0
20	10	3	11	102	160.0	-200553.0	2384.0	-12679.0
20	10	3	11	102	161.0	-200162.0	2378.0	-12639.0
20	10	3	11	103	162.0	-199935.0	2355.0	-12562.0
20	10	3	11	104	163.0	-199851.0	2352.0	-12632.0
20	10	3	11	104	164.0	-199792.0	2344.0	-12616.0
20	10	3	11	105	165.0	-199728.0	2328.0	-12032.0
20	10	3	11	106	166.0	-199687.0	2322.0	-11565.0
20	10	3	11	106	167.0	-199494.0	2293.0	-11455.0
20	10	3	11	107	168.0	-199337.0	2271.0	-11819.0
20	10	3	11	107	169.0	-199357.0	2274.0	-11877.0
20	10	3	11	108	170.0	-199249.0	2269.0	-12151.0
20	10	3	11	108	171.0	-199004.0	2267.0	-11608.0
20	10	3	11	109	172.0	-198871.0	2258.0	-11350.0
20	10	3	11	110	173.0	-198537.0	2248.0	-11455.0
20	10	3	11	125	174.0	-197872.0	2211.0	-11285.0
20	10	3	11	126	175.0	-197007.0	2180.0	-11334.0
20	10	3	11	126	176.0	-195848.0	2157.0	-11710.0
20	10	3	11	127	177.0	-194353.0	2129.0	-11754.0
20	10	3	11	128	178.0	-192604.0	2107.0	-11234.0
20	10	3	11	128	179.0	-190830.0	2105.0	-10961.0
20	10	3	11	129	180.0	-189241.0	2088.0	-10929.0
20	10	3	11	130	181.0	-187779.0	2066.0	-10921.0
20	10	3	11	130	182.0	-186461.0	2038.0	-11436.0
20	10	3	11	131	183.0	-185402.0	2029.0	-11754.0
20	10	3	11	132	184.0	-184598.0	2003.0	-12063.0
20	10	3	11	132	185.0	-184333.0	1969.0	-11917.0
20	10	3	11	133	186.0	-184417.0	1939.0	-12002.0
20	10	3	11	134	187.0	-184957.0	1921.0	-12256.0
20	10	3	11	149	188.0	-185884.0	1907.0	-12081.0
20	10	3	11	150	189.0	-186909.0	1889.0	-11716.0
20	10	3	11	151	190.0	-187554.0	1876.0	-10971.0
20	10	3	11	151	191.0	-188116.0	1844.0	-10201.0
20	10	3	11	152	192.0	-189025.0	1806.0	-10593.0
20	10	3	11	152	193.0	-190348.0	1793.0	-11697.0
20	10	3	11	153	194.0	-191679.0	1756.0	-14492.0
20	10	3	11	172	195.0	-193209.0	1724.0	-17484.0
20	10	3	11	173	196.0	-195149.0	1670.0	-19634.0
20	10	3	11	173	197.0	-197567.0	1640.0	-19931.0
20	10	3	11	174	198.0	-200236.0	1616.0	-19116.0
20	10	3	11	175	199.0	-202874.0	1594.0	-18342.0
20	10	3	11	175	200.0	-205122.0	1569.0	-17527.0
20	10	3	11	176	201.0	-206766.0	1529.0	-17071.0
20	10	3	11	177	202.0	-207199.0	1490.0	-17346.0
20	10	3	11	177	203.0	-206592.0	1462.0	-17918.0
20	10	3	11	178	204.0	-205109.0	1438.0	-19192.0
20	10	3	11	178	205.0	-203171.0	1413.0	-22378.0
20	10	3	11	179	206.0	-201171.0	1375.0	-25476.0
20	10	3	11	180	207.0	-199340.0	1328.0	-27043.0
20	10	3	11	180	208.0	-197738.0	1316.0	-27326.0
20	10	3	11	181	209.0	-196637.0	1291.0	-24778.0
20	10	3	11	181	210.0	-196379.0	1250.0	-21248.0
20	10	3	11	182	211.0	-197087.0	1227.0	-17970.0
20	10	3	11	182	212.0	-198713.0	1197.0	-14899.0
20	10	3	11	183	213.0	-201447.0	1161.0	-12053.0
20	10	3	11	184	214.0	-204359.0	1126.0	-10139.0
20	10	3	11	184	215.0	-206349.0	1102.0	-9359.0
20	10	3	11	194	216.0	-207837.0	1071.0	-9153.0
20	10	3	11	194	217.0	-209204.0	1029.0	-9494.0
20	10	3	11	195	218.0	-211142.0	1004.0	-9792.0
20	10	3	11	196	219.0	-214497.0	979.0	-10491.0
20	10	3	11	197	220.0	-214588.0	954.0	-10212.0
20	10	3	11	197	221.0	-201694.0	918.0	-10543.0
20	10	3	11	198	222.0	-191667.0	886.0	-10709.0
20	10	3	11	198	223.0	-190007.0	852.0	-10631.0
20	10	3	11	199	224.0	-190371.0	826.0	-10496.0
20	10	3	11	200	225.0	-194349.0	803.0	-10681.0
20	10	3	11	218	226.0	-196781.0	768.0	-10653.0
20	10	3	11	218	227.0	-196273.0	739.0	-10720.0
20	10	3	11	219	228.0	-197709.0	700.0	-10377.0
20	10	3	11	220	229.0	-200471.0	659.0	-10113.0
20	10	3	11	220	230.0	-200918.0	641.0	-10310.0
20	10	3	11	221	231.0	-196123.0	616.0	-10661.0
20	10	3	11	222	232.0	-186994.0	579.0	-10279.0
20	10	3	11	222	233.0	-181959.0	546.0	-10407.0
20	10	3	11	223	234.0	-187201.0	498.0	-11196.0
20	10	3	11	224	235.0	-191709.0	460.0	-11190.0
20	10	3	11	224	236.0	-188770.0	414.0	-10523.0
20	10	3	11	225	237.0	-186072.0	364.0	-10064.0
20	10	3	11	226	238.0	-189584.0	344.0	-9921.0
20	10	3	11	226	239.0	-199737.0	301.0	-9581.0
20	10	3	11	241	240.0	-209963.0	258.0	-9371.0
20	10	3	11	241	241.0	-214829.0	208.0	-9099.0
20	10	3	11	242	242.0	-209823.0	194.0	-9349.0
20	10	3	11	243	243.0	-196649.0	130.0	-9432.0
20	10	3	11	243	244.0	-180947.0	71.0	-9414.0
20	10	3	11	244	245.0	-167339.0	31.0	-9406.0
20	10	3	11	245	246.0	-158323.0	-26.0	-9543.0
20	10	3	11	264	247.0	-156823.0	-74.0	-9582.0
20	10	3	11	265	248.0	-162843.0	-109.0	-8789.0
20	10	3	11	266	249.0	-173436.0	-156.0	-8242.0
20	10	3	11	266	250.0	-184777.0	-192.0	-8850.0
20	10	3	11	267	251.0	-194981.0	-226.0	-9441.0
20	10	3	11	268	252.0	-202370.0	-252.0	-8943.0
20	10	3	11	269	253.0	-205844.0	-264.0	-7970.0
20	10	3	11	269	254.0	-207059.0	-284.0	-7851.0
20	10	3	11	270	255.0	-207907.0	-332.0	-7716.0
20	10	3	11	270	0.0	-208430.0	-377.0	-7977.0
20	10	3	11	271	1.0	-207741.0	-428.0	-8189.0
20	10	3	11	272	2.0	-206180.0	-461.0	-8545.0
20	10	3	11	272	3.0	-204807.0	-478.0	-8882.0
20	10	3	11	273	4.0	-204337.0	-504.0	-8578.0
20	10	3	11	273	5.0	-204162.0	-527.0	-8205.0
20	10	3	11	274	6.0	-204041.0	-565.0	-8404.0
20	10	3	11	287	7.0	-203881.0	-612.0	-8511.0
20	10	3	11	288	8.0	-203505.0	-634.0	-8299.0
20	10	3	11	289	9.0	-202643.0	-672.0	-8316.0
20	10	3	11	289	10.0	-201745.0	-716.0	-8575.0
20	10	3	11	290	11.0	-202028.0	-751.0	-8255.0
20	10	3	11	291	12.0	-203707.0	-772.0	-7959.0
20	10	3	11	291	13.0	-205991.0	-803.0	-8192.0
20	10	3	11	309	14.0	-207955.0	-855.0	-8205.0
20	10	3	11	310	15.0	-209134.0	-911.0	-7783.0
20	10	3	11	311	16.0	-209962.0	-949.0	-8102.0
20	10	3	11	312	17.0	-210433.0	-1000.0	-8503.0
20	10	3	11	312	18.0	-210740.0	-1044.0	-8043.0
20	10	3	11	313	19.0	-210455.0	-1065.0	-7450.0
20	10	3	11	314	20.0	-209795.0	-1102.0	-7643.0
20	10	3	11	314	21.0	-209439.0	-1118.0	-7983.0
20	10	3	11	315	22.0	-209234.0	-1147.0	-7715.0
20	10	3	11	316	23.0	-209136.0	-1222.0	-8111.0
20	10	3	11	316	24.0	-209217.0	-1254.0	-8106.0
20	10	3	11	317	25.0	-209366.0	-1294.0	-7283.0
20	10	3	11	317	26.0	-209252.0	-1321.0	-7328.0
20	10	3	11	318	27.0	-209081.0	-1357.0	-7537.0
20	10	3	11	319	28.0	-209084.0	-1420.0	-7468.0
20	10	3	11	333	29.0	-208920.0	-1467.0	-8010.0
20	10	3	11	334	30.0	-208626.0	-1500.0	-8414.0
20	10	3	11	335	31.0	-208117.0	-1531.0	-8262.0
20	10	3	11	336	32.0	-207712.0	-1571.0	-7844.0
20	10	3	11	336	33.0	-206932.0	-1600.0	-6946.0
20	10	3	11	337	34.0	-206261.0	-1641.0	-6444.0
20	10	3	11	338	35.0	-205627.0	-1685.0	-6442.0
20	10	3	11	338	36.0	-204551.0	-1713.0	-6765.0
20	10	3	11	357	37.0	-203366.0	-1750.0	-6345.0
20	10	3	11	357	38.0	-202519.0	-1773.0	-6504.0
20	10	3	11	358	39.0	-202139.0	-1784.0	-6759.0
20	10	3	11	359	40.0	-201899.0	-1819.0	-6776.0
20	10	3	11	359	41.0	-201159.0	-1851.0	-6186.0
20	10	3	11	360	42.0	-199979.0	-1887.0	-6270.0
20	10	3	11	361	43.0	-198785.0	-1913.0	-6205.0
20	10	3	11	361	44.0	-198132.0	-1937.0	-6582.0
20	10	3	11	362	45.0	-197696.0	-1962.0	-6826.0
20	10	3	11	363	46.0	-197391.0	-1986.0	-6889.0
20	10	3	11	380	47.0	-197281.0	-2009.0	-5836.0
20	10	3	11	381	48.0	-197403.0	-2039.0	-5219.0
20	10	3	11	382	49.0	-197704.0	-2052.0	-4959.0
20	10	3	11	382	50.0	-197903.0	-2049.0	-4311.0
20	10	3	11	383	51.0	-197487.0	-2041.0	-4367.0
20	10	3	11	384	52.0	-196589.0	-2039.0	-4789.0
20	10	3	11	384	53.0	-195706.0	-2041.0	-4594.0
20	10	3	11	385	54.0	-195242.0	-2027.0	-4569.0
20	10	3	11	386	55.0	-195234.0	-2027.0	-5355.0
20	10	3	11	387	56.0	-195304.0	-2019.0	-5536.0
20	10	3	11	387	57.0	-195489.0	-2010.0	-4916.0
20	10	3	11	388	58.0	-195514.0	-2005.0	-4618.0
20	10	3	11	388	59.0	-195568.0	-1977.0	-4031.0
20	10	3	11	389	60.0	-195986.0	-1952.0	-3842.0
20	10	3	11	402	61.0	-196034.0	-1939.0	-4134.0
20	10	3	11	403	62.0	-196345.0	-1928.0	-4374.0
20	10	3	11	404	63.0	-196770.0	-1886.0	-3801.0
20	10	3	11	405	64.0	-196980.0	-1839.0	-3538.0
20	10	3	11	405	65.0	-197059.0	-1811.0	-3912.0
20	10	3	11	406	66.0	-197171.0	-1794.0	-4277.0
20	10	3	11	407	67.0	-197182.0	-1761.0	-4202.0
20	10	3	11	425	68.0	-197104.0	-1720.0	-4204.0
20	10	3	11	425	69.0	-197097.0	-1672.0	-4195.0
20	10	3	11	426	70.0	-197069.0	-1639.0	-4148.0
20	10	3	11	426	71.0	-196841.0	-1609.0	-3954.0
20	10	3	11	427	72.0	-196786.0	-1549.0	-3676.0
20	10	3	11	427	73.0	-197165.0	-1511.0	-3528.0
20	10	3	11	428	74.0	-197806.0	-1471.0	-3710.0
20	10	3	11	450	75.0	-198651.0	-1427.0	-3831.0
20	10	3	11	451	76.0	-199709.0	-1371.0	-4227.0
20	10	3	11	452	77.0	-200516.0	-1326.0	-4198.0
20	10	3	11	452	78.0	-201335.0	-1273.0	-4603.0
20	10	3	11	453	79.0	-202015.0	-1234.0	-5010.0
20	10	3	11	453	80.0	-203005.0	-1185.0	-5031.0
20	10	3	11	454	81.0	-203816.0	-1108.0	-5297.0
20	10	3	11	454	82.0	-204752.0	-1049.0	-5291.0
20	10	3	11	455	83.0	-205738.0	-1014.0	-5555.0
20	10	3	11	455	84.0	-206662.0	-959.0	-5907.0
20	10	3	11	456	85.0	-207151.0	-914.0	-6283.0
20	10	3	11	456	86.0	-207439.0	-852.0	-6219.0
20	10	3	11	457	87.0	-207596.0	-790.0	-6771.0
20	10	3	11	458	88.0	-207754.0	-762.0	-6981.0
20	10	3	11	473	89.0	-207807.0	-708.0	-6733.0
20	10	3	11	473	90.0	-207971.0	-673.0	-7179.0
20	10	3	11	474	91.0	-208396.0	-627.0	-7274.0
20	10	3	11	475	92.0	-208822.0	-564.0	-7586.0
20	10	3	11	475	93.0	-209082.0	-526.0	-8172.0
20	10	3	11	476	94.0	-209593.0	-477.0	-8553.0
20	10	3	11	476	95.0	-210128.0	-440.0	-8329.0
20	10	3	11	477	96.0	-210693.0	-404.0	-8300.0
20	10	3	11	477	97.0	-211072.0	-345.0	-9140.0
20	10	3	11	478	98.0	-211109.0	-314.0	-9536.0
20	10	3	11	478	99.0	-210613.0	-269.0	-9339.0
20	10	3	11	479	100.0	-209934.0	-246.0	-9197.0
20	10	3	11	480	101.0	-209459.0	-207.0	-8911.0
20	10	3	11	480	102.0	-209269.0	-167.0	-8784.0
20	10	3	11	481	103.0	-209043.0	-142.0	-9014.0
20	10	3	11	481	104.0	-208574.0	-124.0	-9269.0
20	10	3	11	482	105.0	-207737.0	-86.0	-9187.0
20	10	3	11	482	106.0	-205999.0	-69.0	-9162.0
20	10	3	11	483	107.0	-204332.0	-48.0	-9069.0
20	10	3	11	483	108.0	-201436.0	-21.0	-9141.0
20	10	3	11	484	109.0	-193527.0	-17.0	-9091.0
20	10	3	11	496	110.0	-180117.0	-15.0	-9147.0
20	10	3	11	496	111.0	-176266.0	5.0	-9054.0
20	10	3	11	497	112.0	-185847.0	4.0	-9236.0
20	10	3	11	497	113.0	-198286.0	3.0	-9351.0
20	10	3	11	498	114.0	-207937.0	-6.0	-9395.0
20	10	3	11	499	115.0	-214130.0	-24.0	-9013.0
20	10	3	11	499	116.0	-213876.0	-37.0	-9101.0
20	10	3	11	500	117.0	-210047.0	-30.0	-9330.0
20	10	3	11	500	118.0	-208757.0	-61.0	-9564.0
20	10	3	11	501	119.0	-211056.0	-77.0	-9670.0
20	10	3	11	518	120.0	-213931.0	-102.0	-9516.0
20	10	3	11	519	121.0	-212378.0	-101.0	-8813.0
20	10	3	11	520	122.0	-209810.0	-115.0	-8517.0
20	10	3	11	520	123.0	-209169.0	-139.0	-8761.0
20	10	3	11	521	124.0	-208886.0	-161.0	-8767.0
20	10	3	11	522	125.0	-208935.0	-184.0	-9167.0
20	10	3	11	522	126.0	-209295.0	-206.0	-9277.0
20	10	3	11	523	127.0	-209699.0	-229.0	-9285.0
20	10	3	11	523	128.0	-209359.0	-254.0	-9292.0
20	10	3	11	524	129.0	-206686.0	-292.0	-9309.0
20	10	3	11	525	130.0	-204120.0	-323.0	-9211.0
20	10	3	11	525	131.0	-201585.0	-350.0	-8523.0
20	10	3	11	526	132.0	-199612.0	-389.0	-9087.0
20	10	3	11	526	133.0	-198460.0	-417.0	-9464.0
20	10	3	11	541	134.0	-199645.0	-474.0	-9546.0
20	10	3	11	542	135.0	-198617.0	-499.0	-9592.0
20	10	3	11	543	136.0	-199669.0	-530.0	-9806.0
20	10	3	11	543	137.0	-199797.0	-579.0	-9093.0
20	10	3	11	544	138.0	-198633.0	-622.0	-9016.0
20	10	3	11	544	139.0	-198667.0	-653.0	-9735.0
20	10	3	11	545	140.0	-197867.0	-691.0	-9684.0
20	10	3	11	564	141.0	-197287.0	-739.0	-9576.0
20	10	3	11	565	142.0	-196522.0	-784.0	-9785.0
20	10	3	11	565	143.0	-196036.0	-804.0	-10243.0
20	10	3	11	566	144.0	-195636.0	-849.0	-10287.0
20	10	3	11	567	145.0	-196019.0	-909.0	-10199.0
20	10	3	11	567	146.0	-195332.0	-938.0	-10587.0
20	10	3	11	568	147.0	-195121.0	-959.0	-11169.0
20	10	3	11	568	148.0	-195754.0	-999.0	-11456.0
20	10	3	11	569	149.0	-195874.0	-1047.0	-11239.0
20	10	3	11	569	150.0	-197032.0	-1071.0	-10616.0
20	10	3	11	570	151.0	-196563.0	-1067.0	-10306.0
20	10	3	11	570	152.0	-196424.0	-1097.0	-10146.0
20	10	3	11	571	153.0	-195539.0	-1127.0	-10314.0
20	10	3	11	572	154.0	-194354.0	-1144.0	-10467.0
20	10	3	11	587	155.0	-194426.0	-1175.0	-10476.0
20	10	3	11	587	156.0	-194682.0	-1206.0	-10715.0
20	10	3	11	610	157.0	-195294.0	-1204.0	-10996.0
20	10	3	11	610	158.0	-196388.0	-1217.0	-11201.0
20	10	3	11	611	159.0	-196382.0	-1247.0	-11164.0
20	10	3	11	611	160.0	-196739.0	-1253.0	-11244.0
20	10	3	11	612	161.0	-198105.0	-1263.0	-11555.0
20	10	3	11	613	162.0	-199701.0	-1282.0	-11599.0
20	10	3	11	613	163.0	-200490.0	-1295.0	-11334.0
20	10	3	11	614	164.0	-198907.0	-1316.0	-11419.0
20	10	3	11	614	165.0	-199581.0	-1338.0	-11839.0
20	10	3	11	615	166.0	-202000.0	-1364.0	-11365.0
20	10	3	11	615	167.0	-202151.0	-1383.0	-10917.0
20	10	3	11	616	168.0	-201737.0	-1400.0	-10806.0
20	10	3	11	617	169.0	-200994.0	-1426.0	-10631.0
20	10	3	11	617	170.0	-201192.0	-1447.0	-10404.0
20	10	3	11	632	171.0	-202195.0	-1451.0	-10934.0
20	10	3	11	632	172.0	-203659.0	-1473.0	-11434.0
20	10	3	11	633	173.0	-205310.0	-1510.0	-11929.0
20	10	3	11	633	174.0	-206526.0	-1518.0	-11670.0
20	10	3	11	634	175.0	-207208.0	-1536.0	-11329.0
20	10	3	11	635	176.0	-206899.0	-1577.0	-11009.0
20	10	3	11	654	177.0	-202775.0	-1602.0	-10804.0
20	10	3	11	655	178.0	-207798.0	-1618.0	-10854.0
20	10	3	11	656	179.0	-210319.0	-1633.0	-10757.0
20	10	3	11	656	180.0	-210109.0	-1646.0	-10849.0
20	10	3	11	657	181.0	-209332.0	-1692.0	-11262.0
20	10	3	11	657	182.0	-207527.0	-1709.0	-11153.0
20	10	3	11	658	183.0	-207060.0	-1752.0	-11597.0
20	10	3	11	659	184.0	-207496.0	-1791.0	-11971.0
20	10	3	11	659	185.0	-208371.0	-1831.0	-11689.0
20	10	3	11	660	186.0	-209434.0	-1874.0	-11494.0
20	10	3	11	660	187.0	-209664.0	-1907.0	-11567.0
20	10	3	11	661	188.0	-210172.0	-1929.0	-11548.0
20	10	3	11	661	189.0	-211589.0	-1958.0	-11962.0
20	10	3	11	662	190.0	-201858.0	-2002.0	-12315.0
20	10	3	11	677	191.0	-210736.0	-2024.0	-12316.0
20	10	3	11	678	192.0	-221709.0	-2047.0	-12295.0
20	10	3	11	679	193.0	-222974.0	-2086.0	-12206.0
20	10	3	11	679	194.0	-222934.0	-2114.0	-11482.0
20	10	3	11	680	195.0	-218936.0	-2154.0	-10929.0
20	10	3	11	680	196.0	-218354.0	-2189.0	-11279.0
20	10	3	11	681	197.0	-218901.0	-2206.0	-11962.0
20	10	3	11	682	198.0	-217342.0	-2231.0	-12239.0
20	10	3	11	682	199.0	-222046.0	-2231.0	-12039.0
20	10	3	11	683	200.0	-221672.0	-2222.0	-12106.0
20	10	3	11	683	201.0	-223871.0	-2221.0	-11567.0
20	10	3	11	684	202.0	-221502.0	-2229.0	-11089.0
20	10	3	11	684	203.0	-221760.0	-2209.0	-11614.0
20	10	3	11	685	204.0	-216784.0	-2196.0	-12089.0
20	10	3	11	686	205.0	-215179.0	-2187.0	-11502.0
20	10	3	11	686	206.0	-211827.0	-2141.0	-11559.0
20	10	3	11	687	207.0	-213856.0	-2098.0	-12255.0
20	10	3	11	687	208.0	-208132.0	-2072.0	-12147.0
20	10	3	11	688	209.0	-205527.0	-2026.0	-11778.0
20	10	3	11	689	210.0	-214109.0	-1945.0	-11704.0
20	10	3	11	689	211.0	-207754.0	-1888.0	-11668.0
20	10	3	11	690	212.0	-203887.0	-1819.0	-11994.0
20	10	3	11	690	213.0	-200867.0	-1747.0	-12342.0
20	10	3	11	691	214.0	-200592.0	-1672.0	-12999.0
20	10	3	11	692	215.0	-198340.0	-1607.0	-13111.0
20	10	3	11	699	216.0	-197990.0	-1529.0	-13352.0
20	10	3	11	700	217.0	-196423.0	-1472.0	-13485.0
20	10	3	11	701	218.0	-194274.0	-1433.0	-13216.0
20	10	3	11	701	219.0	-193476.0	-1353.0	-12991.0
20	10	3	11	702	220.0	-192403.0	-1271.0	-12949.0
20	10	3	11	702	221.0	-191586.0	-1211.0	-12763.0
20	10	3	11	703	222.0	-190364.0	-1132.0	-12883.0
20	10	3	11	722	223.0	-189362.0	-1050.0	-12648.0
20	10	3	11	723	224.0	-189129.0	-966.0	-12954.0
20	10	3	11	724	225.0	-189529.0	-894.0	-13080.0
20	10	3	11	724	226.0	-189456.0	-819.0	-13670.0
20	10	3	11	725	227.0	-189166.0	-716.0	-13716.0
20	10	3	11	726	228.0	-188607.0	-652.0	-13688.0
20	10	3	11	726	229.0	-188240.0	-564.0	-14012.0
20	10	3	11	727	230.0	-187989.0	-501.0	-13706.0
20	10	3	11	745	231.0	-188070.0	-403.0	-13854.0
20	10	3	11	746	232.0	-187976.0	-321.0	-14051.0
20	10	3	11	746	233.0	-187970.0	-229.0	-13810.0
20	10	3	11	747	234.0	-187979.0	-173.0	-14152.0
20	10	3	11	748	235.0	-188006.0	-98.0	-14302.0
20	10	3	11	748	236.0	-188119.0	-26.0	-13307.0
20	10	3	11	749	237.0	-188397.0	56.0	-12726.0
20	10	3	11	750	238.0	-189056.0	136.0	-13546.0
20	10	3	11	750	239.0	-189546.0	211.0	-14161.0
20	10	3	11	751	240.0	-189810.0	274.0	-14057.0
20	10	3	11	751	241.0	-190173.0	328.0	-13658.0
20	10	3	11	752	242.0	-190707.0	405.0	-13236.0
20	10	3	11	752	243.0	-191159.0	467.0	-12902.0
20	10	3	11	753	244.0	-191548.0	498.0	-12977.0
20	10	3	11	753	245.0	-191742.0	539.0	-13146.0
20	10	3	11	769	246.0	-191822.0	598.0	-12544.0
20	10	3	11	769	247.0	-191542.0	639.0	-12466.0
20	10	3	11	770	248.0	-191123.0	679.0	-12459.0
20	10	3	11	771	249.0	-190892.0	739.0	-12452.0
20	10	3	11	771	250.0	-190777.0	767.0	-12266.0
20	10	3	11	772	251.0	-190823.0	787.0	-12151.0
20	10	3	11	772	252.0	-191056.0	808.0	-12161.0
20	10	3	11	791	253.0	-191511.0	861.0	-11812.0
20	10	3	11	792	254.0	-191802.0	875.0	-12006.0
20	10	3	11	793	255.0	-191942.0	885.0	-12405.0
20	10	3	11	794	0.0	-191886.0	914.0	-12185.0
20	10	3	11	794	1.0	-191431.0	932.0	-11694.0
20	10	3	11	795	2.0	-190764.0	957.0	-11119.0
20	10	3	11	795	3.0	-190063.0	968.0	-11576.0
20	10	3	11	796	4.0	-189222.0	980.0	-11839.0
20	10	3	11	796	5.0	-188301.0	995.0	-11508.0
20	10	3	11	797	6.0	-187258.0	996.0	-11156.0
20	10	3	11	798	7.0	-186310.0	992.0	-11094.0
20	10	3	11	798	8.0	-185430.0	1000.0	-10641.0
20	10	3	11	799	9.0	-184523.0	987.0	-10576.0
20	10	3	11	799	10.0	-183594.0	957.0	-10830.0
20	10	3	11	800	11.0	-183032.0	954.0	-10712.0
20	10	3	11	800	12.0	-183321.0	919.0	-10377.0
20	10	3	11	814	13.0	-183990.0	878.0	-10161.0
20	10	3	11	815	14.0	-184904.0	848.0	-10486.0
20	10	3	11	816	15.0	-185956.0	818.0	-10404.0
20	10	3	11	816	16.0	-187410.0	793.0	-9759.0
20	10	3	11	817	17.0	-188880.0	743.0	-9323.0
20	10	3	11	818	18.0	-190190.0	729.0	-9228.0
20	10	3	11	818	19.0	-191581.0	703.0	-9228.0
20	10	3	11	837	20.0	-193276.0	643.0	-10672.0
20	10	3	11	838	21.0	-195132.0	586.0	-13672.0
20	10	3	11	839	22.0	-196760.0	540.0	-16033.0
20	10	3	11	839	23.0	-198599.0	478.0	-17776.0
20	10	3	11	840	24.0	-200990.0	422.0	-18824.0
20	10	3	11	840	25.0	-203516.0	368.0	-17805.0
20	10	3	11	841	26.0	-205829.0	327.0	-16893.0
20	10	3	11	842	27.0	-207844.0	292.0	-15987.0
20	10	3	11	842	28.0	-209289.0	251.0	-15497.0
20	10	3	11	843	29.0	-210028.0	186.0	-16137.0
20	10	3	11	843	30.0	-209699.0	122.0	-16969.0
20	10	3	11	844	31.0	-208451.0	69.0	-18917.0
20	10	3	11	844	32.0	-206804.0	24.0	-22283.0
20	10	3	11	845	33.0	-205367.0	-16.0	-25133.0
20	10	3	11	846	34.0	-203974.0	-60.0	-25929.0
20	10	3	11	860	35.0	-202831.0	-112.0	-24954.0
20	10	3	11	861	36.0	-202330.0	-179.0	-22024.0
20	10	3	11	862	37.0	-202371.0	-236.0	-18864.0
20	10	3	11	862	38.0	-202802.0	-276.0	-15362.0
20	10	3	11	863	39.0	-203528.0	-314.0	-11954.0
20	10	3	11	864	40.0	-204670.0	-369.0	-9626.0
20	10	3	11	864	41.0	-205724.0	-394.0	-8000.0
20	10	3	11	865	42.0	-206276.0	-436.0	-6824.0
20	10	3	11	865	43.0	-206925.0	-487.0	-6627.0
20	10	3	11	866	44.0	-208207.0	-536.0	-6408.0
20	10	3	11	867	45.0	-209727.0	-567.0	-6484.0
20	10	3	11	867	46.0	-212071.0	-601.0	-7066.0
20	10	3	11	868	47.0	-215634.0	-643.0	-6731.0
20	10	3	11	869	48.0	-208319.0	-667.0	-5751.0
20	10	3	11	869	49.0	-193125.0	-727.0	-6169.0
20	10	3	11	882	50.0	-186464.0	-769.0	-7404.0
20	10	3	11	883	51.0	-182606.0	-784.0	-7692.0
20	10	3	11	884	52.0	-184214.0	-852.0	-7182.0
20	10	3	11	884	53.0	-189304.0	-878.0	-6884.0
20	10	3	11	885	54.0	-191209.0	-888.0	-6603.0
20	10	3	11	886	55.0	-192514.0	-931.0	-6949.0
20	10	3	11	886	56.0	-196429.0	-967.0	-7764.0
20	10	3	11	906	57.0	-200601.0	-994.0	-7527.0
20	10	3	11	906	58.0	-200397.0	-1046.0	-6834.0
20	10	3	11	930	59.0	-195001.0	-1091.0	-7016.0
20	10	3	11	931	60.0	-189298.0	-1118.0	-7624.0
20	10	3	11	931	61.0	-190999.0	-1148.0	-8003.0
20	10	3	11	932	62.0	-195629.0	-1176.0	-8157.0
20	10	3	11	933	63.0	-192925.0	-1213.0	-8356.0
20	10	3	11	933	64.0	-192550.0	-1236.0	-7842.0
20	10	3	11	934	65.0	-197514.0	-1272.0	-7314.0
20	10	3	11	934	66.0	-208551.0	-1319.0	-7471.0
20	10	3	11	935	67.0	-220577.0	-1373.0	-7256.0
20	10	3	11	936	68.0	-230041.0	-1404.0	-7412.0
20	10	3	11	936	69.0	-230392.0	-1443.0	-7666.0
20	10	3	11	937	70.0	-220821.0	-1491.0	-7610.0
20	10	3	11	937	71.0	-204933.0	-1531.0	-7727.0
20	10	3	11	938	72.0	-187872.0	-1569.0	-7606.0
20	10	3	11	939	73.0	-174817.0	-1617.0	-7767.0
20	10	3	11	939	74.0	-169833.0	-1667.0	-8139.0
20	10	3	11	940	75.0	-173126.0	-1694.0	-8348.0
20	10	3	11	941	76.0	-181986.0	-1746.0	-8349.0
20	10	3	11	941	77.0	-192881.0	-1792.0	-8337.0
20	10	3	11	942	78.0	-202411.0	-1828.0	-8701.0
20	10	3	11	943	79.0	-208781.0	-1867.0	-8790.0
20	10	3	11	943	80.0	-211228.0	-1890.0	-8541.0
20	10	3	11	944	81.0	-211431.0	-1945.0	-8033.0
20	10	3	11	945	82.0	-210952.0	-1998.0	-7405.0
20	10	3	11	945	83.0	-209822.0	-2032.0	-7283.0
20	10	3	11	946	84.0	-207365.0	-2068.0	-7771.0
20	10	3	11	947	85.0	-204655.0	-2098.0	-8089.0
20	10	3	11	947	86.0	-202837.0	-2142.0	-8159.0
20	10	3	11	948	87.0	-201441.0	-2164.0	-8408.0
20	10	3	11	949	88.0	-199958.0	-2210.0	-8722.0
20	10	3	11	956	89.0	-198677.0	-2271.0	-7993.0
20	10	3	11	957	90.0	-197667.0	-2304.0	-7879.0
20	10	3	11	958	91.0	-196644.0	-2341.0	-7840.0
20	10	3	11	958	92.0	-195924.0	-2400.0	-7492.0
20	10	3	11	959	93.0	-196096.0	-2430.0	-7413.0
20	10	3	11	979	94.0	-197691.0	-2457.0	-7957.0
20	10	3	11	980	95.0	-201347.0	-2491.0	-7963.0
20	10	3	11	980	96.0	-206799.0	-2526.0	-7251.0
20	10	3	11	981	97.0	-211101.0	-2569.0	-7606.0
20	10	3	11	982	98.0	-215052.0	-2621.0	-7734.0
20	10	3	11	982	99.0	-217826.0	-2639.0	-7515.0
20	10	3	11	983	100.0	-215942.0	-2691.0	-7844.0
20	10	3	12	2	101.0	-215887.0	-2720.0	-8122.0
20	10	3	12	2	102.0	-217697.0	-2762.0	-8058.0
20	10	3	12	3	103.0	-219694.0	-2809.0	-8416.0
20	10	3	12	4	104.0	-220462.0	-2847.0	-8607.0
20	10	3	12	4	105.0	-220321.0	-2862.0	-8244.0
20	10	3	12	5	106.0	-219636.0	-2891.0	-8283.0
20	10	3	12	6	107.0	-218319.0	-2913.0	-8447.0
20	10	3	12	6	108.0	-215191.0	-2942.0	-8547.0
20	10	3	12	7	109.0	-210309.0	-2954.0	-8778.0
20	10	3	12	7	110.0	-215711.0	-2980.0	-8430.0
20	10	3	12	8	111.0	-217038.0	-2999.0	-8486.0
20	10	3	12	9	112.0	-216765.0	-3012.0	-8737.0
20	10	3	12	9	113.0	-213674.0	-3033.0	-8804.0
20	10	3	12	10	114.0	-208154.0	-3035.0	-8099.0
20	10	3	12	25	115.0	-205711.0	-3021.0	-7954.0
20	10	3	12	26	116.0	-204811.0	-3028.0	-8230.0
20	10	3	12	27	117.0	-203116.0	-3034.0	-8078.0
20	10	3	12	27	118.0	-201064.0	-3032.0	-7857.0
20	10	3	12	28	119.0	-198445.0	-3048.0	-7929.0
20	10	3	12	29	120.0	-196447.0	-3036.0	-7879.0
20	10	3	12	29	121.0	-194489.0	-3034.0	-7886.0
20	10	3	12	30	122.0	-192935.0	-3036.0	-7589.0
20	10	3	12	31	123.0	-191551.0	-3029.0	-7461.0
20	10	3	12	31	124.0	-189570.0	-3057.0	-7001.0
20	10	3	12	32	125.0	-187674.0	-3041.0	-7057.0
20	10	3	12	32	126.0	-186789.0	-3044.0	-7388.0
20	10	3	12	33	127.0	-187167.0	-3046.0	-7303.0
20	10	3	12	34	128.0	-187664.0	-3055.0	-6898.0
20	10	3	12	48	129.0	-187524.0	-3053.0	-7334.0
20	10	3	12	49	130.0	-187219.0	-3027.0	-7851.0
20	10	3	12	50	131.0	-187080.0	-3038.0	-7668.0
20	10	3	12	51	132.0	-187172.0	-3057.0	-7247.0
20	10	3	12	51	133.0	-187004.0	-3043.0	-6724.0
20	10	3	12	52	134.0	-186464.0	-3010.0	-6024.0
20	10	3	12	52	135.0	-186192.0	-3004.0	-6021.0
20	10	3	12	72	136.0	-186395.0	-2974.0	-5969.0
20	10	3	12	72	137.0	-187374.0	-2927.0	-5581.0
20	10	3	12	73	138.0	-190859.0	-2899.0	-5072.0
20	10	3	12	74	139.0	-191959.0	-2864.0	-5359.0
20	10	3	12	74	140.0	-193654.0	-2808.0	-5319.0
20	10	3	12	75	141.0	-193692.0	-2765.0	-5225.0
20	10	3	12	76	142.0	-193227.0	-2716.0	-4876.0
20	10	3	12	76	143.0	-192723.0	-2676.0	-4791.0
20	10	3	12	77	144.0	-193290.0	-2608.0	-4736.0
20	10	3	12	78	145.0	-194525.0	-2541.0	-4547.0
20	10	3	12	78	146.0	-195051.0	-2476.0	-4689.0
20	10	3	12	79	147.0	-194706.0	-2407.0	-5016.0
20	10	3	12	80	148.0	-193806.0	-2354.0	-5479.0
20	10	3	12	80	149.0	-192831.0	-2299.0	-5478.0
20	10	3	12	81	150.0	-192110.0	-2220.0	-5216.0
20	10	3	12	82	151.0	-192141.0	-2125.0	-5126.0
20	10	3	12	82	152.0	-192905.0	-2052.0	-5225.0
20	10	3	12	83	153.0	-193353.0	-1979.0	-5619.0
20	10	3	12	83	154.0	-193326.0	-1908.0	-5613.0
20	10	3	12	84	155.0	-193286.0	-1813.0	-5726.0
20	10	3	12	85	156.0	-193571.0	-1716.0	-5787.0
20	10	3	12	95	157.0	-193943.0	-1646.0	-5785.0
20	10	3	12	96	158.0	-194497.0	-1538.0	-6018.0
20	10	3	12	97	159.0	-195351.0	-1439.0	-6027.0
20	10	3	12	97	160.0	-197003.0	-1350.0	-6506.0
20	10	3	12	118	161.0	-197844.0	-1286.0	-7407.0
20	10	3	12	119	162.0	-197708.0	-1198.0	-7391.0
20	10	3	12	119	163.0	-198874.0	-1104.0	-6816.0
20	10	3	12	120	164.0	-200207.0	-1003.0	-6577.0
20	10	3	12	121	165.0	-201708.0	-904.0	-6290.0
20	10	3	12	121	166.0	-203317.0	-806.0	-6185.0
20	10	3	12	122	167.0	-204629.0	-704.0	-6551.0
20	10	3	12	123	168.0	-205588.0	-607.0	-7143.0
20	10	3	12	123	169.0	-206836.0	-504.0	-7459.0
20	10	3	12	124	170.0	-208984.0	-421.0	-7527.0
20	10	3	12	124	171.0	-210960.0	-329.0	-8486.0
20	10	3	12	125	172.0	-211569.0	-231.0	-9211.0
20	10	3	12	126	173.0	-211694.0	-125.0	-9322.0
20	10	3	12	126	174.0	-212654.0	-42.0	-9664.0
20	10	3	12	127	175.0	-213654.0	43.0	-9985.0
20	10	3	12	127	176.0	-214345.0	153.0	-10046.0
20	10	3	12	142	177.0	-214769.0	231.0	-10838.0
20	10	3	12	143	178.0	-215419.0	322.0	-10936.0
20	10	3	12	143	179.0	-216181.0	399.0	-10723.0
20	10	3	12	144	180.0	-216847.0	477.0	-10687.0
20	10	3	12	145	181.0	-217187.0	535.0	-11249.0
20	10	3	12	145	182.0	-216932.0	609.0	-11848.0
20	10	3	12	146	183.0	-216518.0	695.0	-12375.0
20	10	3	12	147	184.0	-215785.0	778.0	-12295.0
20	10	3	12	165	185.0	-215025.0	858.0	-11587.0
20	10	3	12	166	186.0	-213892.0	914.0	-11862.0
20	10	3	12	166	187.0	-211905.0	973.0	-11900.0
20	10	3	12	167	188.0	-209256.0	1048.0	-11678.0
20	10	3	12	168	189.0	-205666.0	1133.0	-12012.0
20	10	3	12	168	190.0	-197660.0	1203.0	-12264.0
20	10	3	12	169	191.0	-185700.0	1246.0	-12416.0
20	10	3	12	187	192.0	-180209.0	1312.0	-12559.0
20	10	3	12	188	193.0	-184219.0	1389.0	-13162.0
20	10	3	12	189	194.0	-194372.0	1473.0	-13366.0
20	10	3	12	211	195.0	-206114.0	1521.0	-13326.0
20	10	3	12	212	196.0	-218279.0	1563.0	-13541.0
20	10	3	12	212	197.0	-223302.0	1601.0	-13530.0
20	10	3	12	213	198.0	-223392.0	1636.0	-13851.0
20	10	3	12	214	199.0	-221772.0	1703.0	-14771.0
20	10	3	12	214	200.0	-218016.0	1764.0	-14604.0
20	10	3	12	215	201.0	-211851.0	1811.0	-13669.0
20	10	3	12	215	202.0	-205797.0	1850.0	-13782.0
20	10	3	12	216	203.0	-204444.0	1892.0	-14046.0
20	10	3	12	217	204.0	-206247.0	1933.0	-13770.0
20	10	3	12	217	205.0	-206901.0	2000.0	-13627.0
20	10	3	12	218	206.0	-205428.0	2064.0	-13802.0
20	10	3	12	218	207.0	-203116.0	2109.0	-13957.0
20	10	3	12	234	208.0	-201819.0	2156.0	-14146.0
20	10	3	12	235	209.0	-202271.0	2193.0	-14729.0
20	10	3	12	235	213.0	-202093.0	2351.0	-13878.0
20	10	3	12	236	214.0	-200316.0	2384.0	-13747.0
20	10	3	12	236	215.0	-198949.0	2454.0	-13636.0
20	10	3	12	237	216.0	-198241.0	2509.0	-13369.0
20	10	3	12	238	217.0	-198204.0	2531.0	-13409.0
20	10	3	12	257	218.0	-198768.0	2590.0	-13505.0
20	10	3	12	258	219.0	-199067.0	2643.0	-13639.0
20	10	3	12	258	221.0	-196204.0	2752.0	-13764.0
20	10	3	12	259	222.0	-196447.0	2828.0	-13823.0
20	10	3	12	259	223.0	-193502.0	2885.0	-13671.0
20	10	3	12	260	224.0	-192490.0	2932.0	-13432.0
20	10	3	12	260	225.0	-193700.0	2983.0	-13652.0
20	10	3	12	261	226.0	-194675.0	3055.0	-13572.0
20	10	3	12	262	227.0	-193957.0	3122.0	-13606.0
20	10	3	12	262	228.0	-192725.0	3189.0	-13572.0
20	10	3	12	263	229.0	-192213.0	3273.0	-13324.0
20	10	3	12	263	230.0	-191505.0	3322.0	-13034.0
20	10	3	12	264	231.0	-190167.0	3377.0	-12564.0
20	10	3	12	264	232.0	-189267.0	3419.0	-12376.0
20	10	3	12	281	233.0	-188688.0	3493.0	-12557.0
20	10	3	12	282	234.0	-189324.0	3560.0	-12968.0
20	10	3	12	282	236.0	-190035.0	3683.0	-12724.0
20	10	3	12	283	237.0	-190367.0	3728.0	-12731.0
20	10	3	12	284	238.0	-191025.0	3791.0	-12917.0
20	10	3	12	284	239.0	-192104.0	3850.0	-12521.0
20	10	3	12	285	240.0	-192969.0	3908.0	-11876.0
20	10	3	12	286	241.0	-193383.0	3950.0	-12027.0
20	10	3	12	287	242.0	-193884.0	4021.0	-12227.0
20	10	3	12	287	243.0	-194527.0	4084.0	-11958.0
20	10	3	12	288	244.0	-195360.0	4141.0	-11711.0
20	10	3	12	288	245.0	-196362.0	4176.0	-11906.0
20	10	3	12	289	246.0	-197387.0	4248.0	-11626.0
20	10	3	12	289	247.0	-198274.0	4314.0	-11267.0
20	10	3	12	303	248.0	-198922.0	4342.0	-11520.0
20	10	3	12	304	249.0	-199111.0	4380.0	-11106.0
20	10	3	12	305	250.0	-199291.0	4436.0	-10777.0
20	10	3	12	305	251.0	-199537.0	4469.0	-10776.0
20	10	3	12	306	252.0	-199477.0	4491.0	-10497.0
20	10	3	12	307	253.0	-199109.0	4538.0	-10495.0
20	10	3	12	307	254.0	-198914.0	4578.0	-10489.0
20	10	3	12	333	255.0	-199462.0	4604.0	-10264.0
20	10	3	12	335	0.0	-200101.0	4638.0	-10181.0
20	10	3	12	336	2.0	-200550.0	4678.0	-10078.0
20	10	3	12	336	3.0	-200334.0	4706.0	-10283.0
20	10	3	12	337	4.0	-200120.0	4744.0	-10597.0
20	10	3	12	337	5.0	-199558.0	4754.0	-10200.0
20	10	3	12	338	6.0	-198627.0	4756.0	-9841.0
20	10	3	12	338	7.0	-197426.0	4769.0	-10192.0
20	10	3	12	339	8.0	-196509.0	4797.0	-9956.0
20	10	3	12	339	9.0	-195682.0	4826.0	-9758.0
20	10	3	12	340	10.0	-195052.0	4854.0	-10007.0
20	10	3	12	341	11.0	-194458.0	4861.0	-9685.0
20	10	3	12	341	12.0	-193780.0	4867.0	-9559.0
20	10	3	12	342	13.0	-193331.0	4873.0	-9625.0
20	10	3	12	349	14.0	-193347.0	4873.0	-9524.0
20	10	3	12	350	15.0	-193761.0	4872.0	-9114.0
20	10	3	12	350	17.0	-195092.0	4886.0	-9422.0
20	10	3	12	351	18.0	-195192.0	4893.0	-8805.0
20	10	3	12	351	19.0	-195392.0	4905.0	-8625.0
20	10	3	12	352	20.0	-195916.0	4908.0	-9138.0
20	10	3	12	353	21.0	-196567.0	4920.0	-9716.0
20	10	3	12	373	22.0	-197082.0	4916.0	-9475.0
20	10	3	12	373	23.0	-197359.0	4924.0	-9089.0
20	10	3	12	374	24.0	-197681.0	4931.0	-8852.0
20	10	3	12	374	25.0	-198240.0	4936.0	-8822.0
20	10	3	12	375	26.0	-198994.0	4948.0	-9193.0
20	10	3	12	376	27.0	-199624.0	4937.0	-9143.0
20	10	3	12	376	28.0	-199786.0	4948.0	-9355.0
20	10	3	12	377	29.0	-199602.0	4949.0	-9557.0
20	10	3	12	377	30.0	-199558.0	4939.0	-9363.0
20	10	3	12	378	32.0	-199132.0	4954.0	-9004.0
20	10	3	12	379	33.0	-199028.0	4960.0	-8801.0
20	10	3	12	379	34.0	-199137.0	4948.0	-9010.0
20	10	3	12	380	35.0	-199244.0	4934.0	-9281.0
20	10	3	12	380	36.0	-199697.0	4915.0	-9066.0
20	10	3	12	395	37.0	-200194.0	4918.0	-9030.0
20	10	3	12	395	38.0	-201067.0	4918.0	-9311.0
20	10	3	12	396	39.0	-201816.0	4921.0	-9377.0
20	10	3	12	397	40.0	-202124.0	4927.0	-8816.0
20	10	3	12	397	41.0	-202171.0	4949.0	-8615.0
20	10	3	12	398	42.0	-201881.0	4949.0	-8722.0
20	10	3	12	398	43.0	-201636.0	4936.0	-8187.0
20	10	3	12	418	44.0	-201737.0	4961.0	-8292.0
20	10	3	12	419	45.0	-201874.0	4953.0	-8631.0
20	10	3	12	419	47.0	-201871.0	4948.0	-8375.0
20	10	3	12	420	48.0	-201730.0	4941.0	-9146.0
20	10	3	12	421	49.0	-201548.0	4901.0	-8474.0
20	10	3	12	421	50.0	-201115.0	4867.0	-7809.0
20	10	3	12	422	51.0	-200700.0	4906.0	-7775.0
20	10	3	12	422	52.0	-200327.0	4911.0	-6964.0
20	10	3	12	423	53.0	-200359.0	4902.0	-6476.0
20	10	3	12	423	54.0	-200615.0	4918.0	-6889.0
20	10	3	12	424	55.0	-200907.0	4952.0	-7279.0
20	10	3	12	425	56.0	-201823.0	4971.0	-7093.0
20	10	3	12	425	57.0	-202001.0	4986.0	-6328.0
20	10	3	12	441	58.0	-202502.0	4993.0	-5859.0
20	10	3	12	442	59.0	-203072.0	5003.0	-5882.0
20	10	3	12	443	60.0	-203239.0	4996.0	-5843.0
20	10	3	12	443	62.0	-203392.0	5029.0	-5918.0
20	10	3	12	464	63.0	-203653.0	5032.0	-5577.0
20	10	3	12	465	64.0	-204069.0	5044.0	-5169.0
20	10	3	12	465	65.0	-204500.0	5064.0	-4911.0
20	10	3	12	466	66.0	-204688.0	5078.0	-4407.0
20	10	3	12	467	69.0	-205827.0	5098.0	-4616.0
20	10	3	12	467	70.0	-206021.0	5101.0	-4575.0
20	10	3	12	468	71.0	-206019.0	5106.0	-4539.0
20	10	3	12	469	72.0	-205930.0	5113.0	-3860.0
20	10	3	12	469	73.0	-206141.0	5137.0	-3976.0
20	10	3	12	470	74.0	-206127.0	5156.0	-3604.0
20	10	3	12	470	75.0	-206144.0	5193.0	-2747.0
20	10	3	12	471	76.0	-206470.0	5193.0	-2212.0
20	10	3	12	472	77.0	-207437.0	5196.0	-1779.0
20	10	3	12	472	78.0	-208158.0	5221.0	-1037.0
20	10	3	12	473	79.0	-208334.0	5241.0	-1284.0
20	10	3	12	473	84.0	-204437.0	5276.0	-1276.0
20	10	3	12	474	85.0	-202481.0	5294.0	-1199.0
20	10	3	12	475	91.0	-192227.0	5406.0	-407.0
20	10	3	12	475	92.0	-190977.0	5416.0	-115.0
20	10	3	12	476	93.0	-189842.0	5428.0	416.0
20	10	3	12	476	94.0	-188999.0	5447.0	441.0
20	10	3	12	489	95.0	-188011.0	5458.0	397.0
20	10	3	12	489	96.0	-186986.0	5457.0	203.0
20	10	3	12	490	97.0	-186186.0	5463.0	-93.0
20	10	3	12	490	98.0	-185452.0	5476.0	-281.0
20	10	3	12	491	99.0	-184579.0	5482.0	-77.0
20	10	3	12	511	100.0	-183976.0	5511.0	33.0
20	10	3	12	512	101.0	-184082.0	5519.0	572.0
20	10	3	12	513	102.0	-184905.0	5508.0	869.0
20	10	3	12	513	103.0	-185901.0	5516.0	658.0
20	10	3	12	514	104.0	-187259.0	5535.0	18.0
20	10	3	12	515	105.0	-188954.0	5569.0	-1667.0
20	10	3	12	515	106.0	-190888.0	5574.0	-3767.0
20	10	3	12	516	107.0	-192872.0	5580.0	-5104.0
20	10	3	12	516	108.0	-194571.0	5591.0	-6976.0
20	10	3	12	517	109.0	-196206.0	5608.0	-7112.0
20	10	3	12	517	110.0	-197845.0	5628.0	-7827.0
20	10	3	12	518	111.0	-199231.0	5638.0	-8281.0
20	10	3	12	518	112.0	-200342.0	5656.0	-8048.0
20	10	3	12	519	113.0	-201781.0	5663.0	-8104.0
20	10	3	12	519	114.0	-203665.0	5666.0	-9029.0
20	10	3	12	534	115.0	-205624.0	5673.0	-9887.0
20	10	3	12	535	116.0	-207366.0	5682.0	-12807.0
20	10	3	12	535	117.0	-208563.0	5693.0	-16610.0
20	10	3	12	536	118.0	-209440.0	5701.0	-18049.0
20	10	3	12	537	119.0	-210327.0	5711.0	-17672.0
20	10	3	12	537	120.0	-211131.0	5714.0	-15636.0
20	10	3	12	538	121.0	-211837.0	5714.0	-12196.0
20	10	3	12	539	122.0	-212221.0	5686.0	-9512.0
20	10	3	12	539	123.0	-212630.0	5688.0	-6224.0
20	10	3	12	540	124.0	-213494.0	5690.0	-2716.0
20	10	3	12	540	125.0	-214760.0	5689.0	-621.0
20	10	3	12	541	126.0	-216168.0	5695.0	-138.0
20	10	3	12	542	127.0	-217162.0	5695.0	660.0
20	10	3	12	542	128.0	-217117.0	5698.0	337.0
20	10	3	12	543	129.0	-215950.0	5694.0	484.0
20	10	3	12	559	130.0	-213724.0	5692.0	946.0
20	10	3	12	560	131.0	-211432.0	5686.0	612.0
20	10	3	12	560	132.0	-209506.0	5681.0	161.0
20	10	3	12	561	133.0	-198276.0	5661.0	-85.0
20	10	3	12	562	134.0	-179426.0	5658.0	-339.0
20	10	3	12	562	135.0	-166532.0	5642.0	-106.0
20	10	3	12	563	136.0	-152534.0	5633.0	221.0
20	10	3	12	563	137.0	-139014.0	5619.0	-9.0
20	10	3	12	564	138.0	-135236.0	5604.0	-103.0
20	10	3	12	582	139.0	-141092.0	5586.0	-533.0
20	10	3	12	583	140.0	-152102.0	5583.0	-1259.0
20	10	3	12	583	141.0	-169187.0	5551.0	-1243.0
20	10	3	12	584	142.0	-185781.0	5526.0	-872.0
20	10	3	12	585	143.0	-195239.0	5503.0	-984.0
20	10	3	12	585	144.0	-199314.0	5488.0	-1131.0
20	10	3	12	586	145.0	-203860.0	5467.0	-904.0
20	10	3	12	587	146.0	-208131.0	5436.0	-1774.0
20	10	3	12	587	147.0	-199936.0	5424.0	-2025.0
20	10	3	12	588	148.0	-191029.0	5415.0	-1636.0
20	10	3	12	588	149.0	-187713.0	5406.0	-1861.0
20	10	3	12	589	150.0	-193665.0	5383.0	-1495.0
20	10	3	12	590	151.0	-205900.0	5341.0	-926.0
20	10	3	12	604	152.0	-218389.0	5306.0	-1288.0
20	10	3	12	605	153.0	-225451.0	5284.0	-1609.0
20	10	3	12	606	154.0	-222665.0	5261.0	-1919.0
20	10	3	12	606	155.0	-209302.0	5257.0	-1855.0
20	10	3	12	607	156.0	-189817.0	5236.0	-1322.0
20	10	3	12	607	157.0	-172093.0	5198.0	-1423.0
20	10	3	12	608	158.0	-163761.0	5153.0	-1494.0
20	10	3	12	627	159.0	-166044.0	5097.0	-1101.0
20	10	3	12	628	160.0	-176349.0	5059.0	-1331.0
20	10	3	12	629	161.0	-190626.0	5030.0	-1341.0
20	10	3	12	629	162.0	-203346.0	5011.0	-1226.0
20	10	3	12	630	163.0	-210621.0	4970.0	-1424.0
20	10	3	12	631	164.0	-212422.0	4949.0	-1356.0
20	10	3	12	631	165.0	-211208.0	4920.0	-1222.0
20	10	3	12	632	166.0	-208313.0	4903.0	-1360.0
20	10	3	12	632	167.0	-204416.0	4876.0	-1426.0
20	10	3	12	633	168.0	-200122.0	4860.0	-1568.0
20	10	3	12	634	169.0	-196521.0	4844.0	-1584.0
20	10	3	12	634	170.0	-194870.0	4791.0	-1626.0
20	10	3	12	635	171.0	-195363.0	4768.0	-1768.0
20	10	3	12	635	172.0	-197616.0	4750.0	-2048.0
20	10	3	12	650	173.0	-199547.0	4721.0	-2039.0
20	10	3	12	650	174.0	-200162.0	4686.0	-2193.0
20	10	3	12	651	175.0	-199643.0	4673.0	-2334.0
20	10	3	12	652	176.0	-198834.0	4646.0	-2454.0
20	10	3	12	652	177.0	-198384.0	4652.0	-2094.0
20	10	3	12	653	178.0	-198820.0	4640.0	-2267.0
20	10	3	12	653	179.0	-200237.0	4618.0	-2373.0
20	10	3	12	674	180.0	-202731.0	4603.0	-1803.0
20	10	3	12	674	181.0	-205182.0	4578.0	-1743.0
20	10	3	12	675	182.0	-207084.0	4546.0	-2137.0
20	10	3	12	676	183.0	-208662.0	4529.0	-1722.0
20	10	3	12	676	184.0	-209937.0	4491.0	-2183.0
20	10	3	12	677	185.0	-210847.0	4466.0	-2249.0
20	10	3	12	678	186.0	-211767.0	4441.0	-1847.0
20	10	3	12	678	187.0	-212928.0	4423.0	-1861.0
20	10	3	12	679	188.0	-214258.0	4408.0	-1909.0
20	10	3	12	679	189.0	-215530.0	4394.0	-1757.0
20	10	3	12	680	190.0	-216753.0	4354.0	-2131.0
20	10	3	12	681	191.0	-217800.0	4339.0	-1745.0
20	10	3	12	681	192.0	-218444.0	4308.0	-849.0
20	10	3	12	682	193.0	-219050.0	4261.0	-1096.0
20	10	3	12	696	194.0	-219212.0	4233.0	-1375.0
20	10	3	12	697	195.0	-218397.0	4204.0	-1228.0
20	10	3	12	698	196.0	-217207.0	4173.0	-1505.0
20	10	3	12	698	197.0	-216719.0	4157.0	-1288.0
20	10	3	12	699	198.0	-215970.0	4146.0	-569.0
20	10	3	12	700	199.0	-214602.0	4114.0	-685.0
20	10	3	12	720	200.0	-212908.0	4083.0	-664.0
20	10	3	12	721	201.0	-211059.0	4048.0	-888.0
20	10	3	12	722	202.0	-208856.0	4003.0	-990.0
20	10	3	12	722	203.0	-206719.0	3964.0	-839.0
20	10	3	12	723	204.0	-204630.0	3930.0	-600.0
20	10	3	12	724	205.0	-202651.0	3905.0	-670.0
20	10	3	12	724	206.0	-200895.0	3886.0	-454.0
20	10	3	12	725	207.0	-199558.0	3866.0	-515.0
20	10	3	12	725	208.0	-198021.0	3839.0	-276.0
20	10	3	12	726	209.0	-196329.0	3818.0	-293.0
20	10	3	12	726	210.0	-195163.0	3792.0	-244.0
20	10	3	12	727	211.0	-194361.0	3747.0	-137.0
20	10	3	12	743	212.0	-193831.0	3706.0	-124.0
20	10	3	12	744	213.0	-193214.0	3673.0	38.0
20	10	3	12	745	214.0	-192926.0	3655.0	12.0
20	10	3	12	745	215.0	-192971.0	3644.0	-343.0
20	10	3	12	746	216.0	-193094.0	3636.0	-409.0
20	10	3	12	766	217.0	-192979.0	3622.0	-253.0
20	10	3	12	767	218.0	-192452.0	3598.0	337.0
20	10	3	12	767	219.0	-191987.0	3597.0	975.0
20	10	3	12	768	220.0	-191678.0	3602.0	2129.0
20	10	3	12	769	221.0	-191881.0	3596.0	2516.0
20	10	3	12	769	222.0	-192217.0	3578.0	2553.0
20	10	3	12	770	223.0	-191924.0	3570.0	2831.0
20	10	3	12	770	224.0	-191127.0	3573.0	2781.0
20	10	3	12	788	225.0	-190350.0	3566.0	2398.0
20	10	3	12	789	226.0	-189117.0	3581.0	2827.0
20	10	3	12	790	227.0	-188011.0	3587.0	3266.0
20	10	3	12	790	228.0	-187526.0	3589.0	3524.0
20	10	3	12	791	229.0	-187355.0	3566.0	3352.0
20	10	3	12	792	230.0	-187334.0	3574.0	3456.0
20	10	3	12	792	231.0	-187646.0	3583.0	3057.0
20	10	3	12	811	232.0	-187893.0	3594.0	2953.0
20	10	3	12	812	241.0	-195437.0	3883.0	4089.0
20	10	3	12	812	242.0	-197154.0	3928.0	4273.0
20	10	3	12	813	243.0	-198590.0	3979.0	4401.0
20	10	3	12	814	244.0	-200133.0	4019.0	4231.0
20	10	3	12	814	245.0	-201874.0	4071.0	4433.0
20	10	3	12	815	246.0	-203476.0	4145.0	4563.0
20	10	3	12	815	247.0	-205176.0	4223.0	4616.0
20	10	3	12	816	248.0	-206938.0	4298.0	4144.0
20	10	3	12	817	249.0	-208231.0	4369.0	3515.0
20	10	3	12	817	250.0	-209154.0	4429.0	3521.0
20	10	3	12	818	251.0	-209921.0	4479.0	3159.0
20	10	3	12	818	252.0	-210830.0	4544.0	3074.0
20	10	3	12	819	253.0	-211391.0	4627.0	3208.0
20	10	3	12	819	254.0	-211680.0	4675.0	2881.0
20	10	3	12	820	255.0	-211838.0	4718.0	2313.0
20	10	3	12	821	0.0	-211568.0	4801.0	2004.0
20	10	3	12	821	1.0	-211082.0	4860.0	2136.0
20	10	3	12	822	2.0	-211091.0	4926.0	2116.0
20	10	3	12	822	3.0	-211357.0	4971.0	2193.0
20	10	3	12	823	4.0	-211581.0	5033.0	2369.0
20	10	3	12	823	5.0	-212141.0	5089.0	1911.0
20	10	3	12	824	6.0	-212569.0	5134.0	1193.0
20	10	3	12	825	7.0	-212800.0	5173.0	1080.0
20	10	3	12	825	8.0	-212482.0	5240.0	553.0
20	10	3	12	826	9.0	-211651.0	5254.0	219.0
20	10	3	12	827	10.0	-210609.0	5297.0	348.0
20	10	3	12	827	11.0	-209420.0	5326.0	484.0
20	10	3	12	828	12.0	-208046.0	5350.0	100.0
20	10	3	12	829	13.0	-206629.0	5380.0	659.0
20	10	3	12	829	14.0	-204972.0	5404.0	1348.0
20	10	3	12	830	15.0	-202701.0	5411.0	1418.0
20	10	3	12	831	16.0	-196796.0	5436.0	1550.0
20	10	3	12	840	17.0	-183961.0	5453.0	1630.0
20	10	3	12	841	18.0	-174167.0	5458.0	1404.0
20	10	3	12	842	19.0	-175929.0	5479.0	1382.0
20	10	3	12	843	20.0	-186592.0	5489.0	1510.0
20	10	3	12	843	21.0	-196597.0	5493.0	1416.0
20	10	3	12	844	22.0	-206989.0	5524.0	953.0
20	10	3	12	844	23.0	-216971.0	5528.0	931.0
20	10	3	12	862	24.0	-223188.0	5531.0	931.0
20	10	3	12	863	25.0	-227037.0	5524.0	776.0
20	10	3	12	863	26.0	-228360.0	5506.0	921.0
20	10	3	12	864	27.0	-226978.0	5493.0	664.0
20	10	3	12	865	28.0	-223037.0	5493.0	819.0
20	10	3	12	865	29.0	-218571.0	5483.0	1081.0
20	10	3	12	886	30.0	-215804.0	5468.0	1079.0
20	10	3	12	886	31.0	-213597.0	5469.0	1566.0
20	10	3	12	887	32.0	-210711.0	5442.0	1831.0
20	10	3	12	888	33.0	-208109.0	5433.0	1428.0
20	10	3	12	888	34.0	-206972.0	5408.0	1271.0
20	10	3	12	889	35.0	-205734.0	5371.0	1406.0
20	10	3	12	890	36.0	-198913.0	5321.0	1476.0
20	10	3	12	890	37.0	-191435.0	5293.0	1809.0
20	10	3	12	891	38.0	-187648.0	5242.0	1724.0
20	10	3	12	891	39.0	-188340.0	5199.0	1086.0
20	10	3	12	892	40.0	-191860.0	5148.0	1106.0
20	10	3	12	893	41.0	-193724.0	5096.0	1596.0
20	10	3	12	893	42.0	-192939.0	5015.0	1294.0
20	10	3	12	894	43.0	-190824.0	4949.0	1233.0
20	10	3	12	909	44.0	-188145.0	4865.0	2191.0
20	10	3	12	910	45.0	-187082.0	4764.0	2326.0
