21	17	13	40	582	211.0	-214237.0	-6218.0	81849.0
21	17	13	40	600	212.0	-213580.0	-6236.0	82197.0
21	17	13	40	602	213.0	-213092.0	-6255.0	82631.0
21	17	13	40	603	214.0	-212691.0	-6280.0	82514.0
21	17	13	40	605	215.0	-212437.0	-6305.0	82761.0
21	17	13	40	606	216.0	-212317.0	-6295.0	83235.0
21	17	13	40	608	217.0	-212584.0	-6307.0	83382.0
21	17	13	40	608	218.0	-213318.0	-6328.0	83669.0
21	17	13	40	609	219.0	-214215.0	-6342.0	83851.0
21	17	13	40	609	220.0	-215587.0	-6341.0	84004.0
21	17	13	40	610	221.0	-217086.0	-6344.0	84324.0
21	17	13	40	611	222.0	-219189.0	-6329.0	84448.0
21	17	13	40	611	223.0	-221569.0	-6319.0	84474.0
21	17	13	40	612	224.0	-223944.0	-6302.0	84902.0
21	17	13	40	612	225.0	-226631.0	-6267.0	85298.0
21	17	13	40	613	226.0	-229136.0	-6245.0	85549.0
21	17	13	40	627	227.0	-231094.0	-6197.0	85958.0
21	17	13	40	627	228.0	-232764.0	-6174.0	86327.0
21	17	13	40	628	229.0	-234134.0	-6127.0	86276.0
21	17	13	40	650	230.0	-234999.0	-6074.0	86298.0
21	17	13	40	738	231.0	-235356.0	-6024.0	86573.0
21	17	13	40	739	232.0	-235279.0	-5969.0	86828.0
21	17	13	40	739	233.0	-234854.0	-5927.0	87033.0
21	17	13	40	740	234.0	-234208.0	-5861.0	87339.0
21	17	13	40	741	235.0	-233234.0	-5791.0	87546.0
21	17	13	40	741	236.0	-231906.0	-5722.0	87422.0
21	17	13	40	742	237.0	-230335.0	-5646.0	87573.0
21	17	13	40	742	238.0	-229319.0	-5552.0	87672.0
21	17	13	40	782	239.0	-228574.0	-5459.0	87347.0
21	17	13	40	783	240.0	-227522.0	-5350.0	87534.0
21	17	13	40	784	241.0	-225624.0	-5255.0	87733.0
21	17	13	40	784	242.0	-223107.0	-5136.0	87119.0
21	17	13	40	785	243.0	-222404.0	-5024.0	86850.0
21	17	13	40	785	244.0	-223544.0	-4906.0	87329.0
21	17	13	40	786	249.0	-230482.0	-4281.0	86298.0
21	17	13	40	827	15.0	-240984.0	-1560.0	82161.0
21	17	13	40	872	38.0	-244744.0	449.0	83982.0
21	17	13	40	873	39.0	-238261.0	510.0	84378.0
21	17	13	40	874	40.0	-231506.0	563.0	84444.0
21	17	13	40	874	41.0	-224216.0	607.0	84896.0
21	17	13	40	875	42.0	-215554.0	668.0	85489.0
21	17	13	40	875	43.0	-206424.0	708.0	85426.0
21	17	13	40	876	44.0	-198261.0	759.0	86021.0
21	17	13	40	877	60.0	-170359.0	1291.0	92511.0
21	17	13	40	916	61.0	-166191.0	1284.0	92730.0
21	17	13	40	917	62.0	-162242.0	1286.0	93196.0
21	17	13	40	918	63.0	-158854.0	1287.0	93637.0
21	17	13	40	919	64.0	-156128.0	1308.0	93713.0
21	17	13	40	919	65.0	-153877.0	1325.0	93668.0
21	17	13	40	920	66.0	-152242.0	1326.0	93819.0
21	17	13	40	921	67.0	-151156.0	1348.0	94047.0
21	17	13	40	922	105.0	-169589.0	901.0	98114.0
21	17	13	40	922	106.0	-169785.0	888.0	97708.0
21	17	13	40	923	107.0	-169966.0	853.0	97735.0
21	17	13	40	924	108.0	-170642.0	836.0	97919.0
21	17	13	40	925	109.0	-171524.0	811.0	98105.0
21	17	13	40	926	110.0	-172592.0	786.0	98185.0
21	17	13	40	926	111.0	-173730.0	750.0	98701.0
21	17	13	40	927	112.0	-175016.0	706.0	98706.0
21	17	13	40	928	127.0	-187411.0	406.0	101066.0
21	17	13	40	929	128.0	-187481.0	389.0	101084.0
21	17	13	40	929	129.0	-187605.0	377.0	101411.0
21	17	13	40	930	130.0	-187779.0	362.0	101661.0
21	17	13	40	931	131.0	-188098.0	340.0	101593.0
21	17	13	40	932	132.0	-188441.0	329.0	101882.0
21	17	13	40	932	133.0	-188904.0	319.0	102099.0
21	17	13	40	962	134.0	-189092.0	306.0	102126.0
21	17	13	40	963	135.0	-189032.0	295.0	102338.0
21	17	13	40	964	136.0	-189127.0	288.0	102762.0
21	17	13	40	964	137.0	-189425.0	281.0	103123.0
21	17	13	40	965	138.0	-189598.0	278.0	102919.0
21	17	13	40	965	139.0	-189771.0	267.0	103611.0
21	17	13	41	7	140.0	-189770.0	264.0	103911.0
21	17	13	41	8	141.0	-189846.0	256.0	103570.0
21	17	13	41	9	142.0	-190052.0	258.0	103918.0
21	17	13	41	9	143.0	-189631.0	258.0	104529.0
21	17	13	41	10	144.0	-189394.0	267.0	104551.0
21	17	13	41	11	145.0	-189121.0	302.0	104443.0
21	17	13	41	11	146.0	-189029.0	306.0	104749.0
21	17	13	41	12	147.0	-189282.0	303.0	104893.0
21	17	13	41	98	148.0	-189040.0	301.0	105112.0
21	17	13	41	143	150.0	-189664.0	339.0	105879.0
21	17	13	41	144	151.0	-190797.0	360.0	105852.0
21	17	13	41	144	152.0	-191801.0	358.0	106350.0
21	17	13	41	146	153.0	-192706.0	350.0	106334.0
21	17	13	41	147	154.0	-194079.0	371.0	106168.0
21	17	13	41	147	155.0	-195887.0	400.0	106122.0
21	17	13	41	148	156.0	-197426.0	398.0	106173.0
21	17	13	41	186	173.0	-220687.0	439.0	107450.0
21	17	13	41	232	174.0	-220764.0	437.0	107543.0
21	17	13	41	233	175.0	-220421.0	414.0	107640.0
21	17	13	41	233	176.0	-219935.0	399.0	107598.0
21	17	13	41	234	177.0	-219811.0	394.0	107650.0
21	17	13	41	235	178.0	-219478.0	385.0	107949.0
21	17	13	41	235	179.0	-219432.0	368.0	108433.0
21	17	13	41	277	217.0	-218748.0	-140.0	115656.0
21	17	13	41	277	240.0	-206012.0	-965.0	120677.0
21	17	13	41	278	241.0	-206162.0	-980.0	121087.0
21	17	13	41	323	242.0	-206362.0	-1017.0	121229.0
21	17	13	41	324	243.0	-206826.0	-1061.0	121363.0
21	17	13	41	324	244.0	-207564.0	-1120.0	121983.0
21	17	13	41	325	245.0	-208386.0	-1181.0	122398.0
21	17	13	41	325	246.0	-209402.0	-1209.0	122310.0
21	17	13	41	326	247.0	-210681.0	-1255.0	122796.0
21	17	13	41	326	29.0	-162813.0	-2521.0	133035.0
21	17	13	41	327	30.0	-162319.0	-2561.0	133101.0
21	17	13	41	367	31.0	-162418.0	-2568.0	133283.0
21	17	13	41	368	32.0	-162600.0	-2582.0	133540.0
21	17	13	41	369	33.0	-162287.0	-2614.0	133755.0
21	17	13	41	369	34.0	-160909.0	-2650.0	134275.0
21	17	13	41	370	51.0	-169872.0	-3124.0	135179.0
21	17	13	41	370	52.0	-169554.0	-3156.0	135437.0
21	17	13	41	371	53.0	-169134.0	-3182.0	135611.0
21	17	13	41	372	54.0	-168732.0	-3189.0	135653.0
21	17	13	41	411	74.0	-157244.0	-3455.0	131478.0
21	17	13	41	412	75.0	-158472.0	-3484.0	128013.0
21	17	13	41	412	76.0	-160247.0	-3489.0	125743.0
21	17	13	41	413	77.0	-162477.0	-3525.0	124238.0
21	17	13	41	414	78.0	-164938.0	-3544.0	122637.0
21	17	13	41	414	79.0	-167890.0	-3566.0	120452.0
21	17	13	41	415	80.0	-171026.0	-3576.0	118341.0
21	17	13	41	458	81.0	-173989.0	-3602.0	116292.0
21	17	13	41	459	96.0	-186378.0	-3871.0	133914.0
21	17	13	41	502	97.0	-183428.0	-3885.0	135914.0
21	17	13	41	503	98.0	-179341.0	-3901.0	137471.0
21	17	13	41	593	99.0	-177522.0	-3910.0	137877.0
21	17	13	41	594	100.0	-178751.0	-3944.0	138189.0
21	17	13	41	594	101.0	-182221.0	-3971.0	138816.0
21	17	13	41	595	102.0	-187049.0	-3996.0	139339.0
21	17	13	41	595	118.0	-191060.0	-4363.0	140264.0
21	17	13	41	596	119.0	-184465.0	-4386.0	140256.0
21	17	13	41	597	120.0	-177585.0	-4431.0	140318.0
21	17	13	41	637	121.0	-170072.0	-4438.0	140549.0
21	17	13	41	637	122.0	-163851.0	-4444.0	140791.0
21	17	13	41	638	123.0	-161704.0	-4474.0	140716.0
21	17	13	41	639	124.0	-165771.0	-4481.0	141064.0
21	17	13	41	639	125.0	-174395.0	-4495.0	141512.0
21	17	13	41	640	141.0	-141671.0	-4752.0	141634.0
21	17	13	41	682	142.0	-140380.0	-4778.0	141643.0
21	17	13	41	727	164.0	-193840.0	-5381.0	144937.0
21	17	13	41	728	165.0	-196682.0	-5402.0	144900.0
21	17	13	41	729	209.0	-205502.0	-5399.0	149983.0
21	17	13	41	730	210.0	-203846.0	-5316.0	150426.0
21	17	13	41	731	211.0	-202307.0	-5219.0	150356.0
21	17	13	41	731	212.0	-201156.0	-5142.0	150129.0
21	17	13	41	732	213.0	-200487.0	-5062.0	150036.0
21	17	13	41	772	214.0	-200078.0	-4933.0	149919.0
21	17	13	41	773	215.0	-199947.0	-4834.0	149253.0
21	17	13	41	774	231.0	-218111.0	-2863.0	143887.0
21	17	13	41	774	232.0	-218817.0	-2759.0	143594.0
21	17	13	41	775	233.0	-219293.0	-2622.0	143072.0
21	17	13	41	776	234.0	-219691.0	-2490.0	142501.0
21	17	13	41	776	235.0	-220035.0	-2362.0	142561.0
21	17	13	41	818	236.0	-220091.0	-2249.0	142412.0
21	17	13	41	818	253.0	-244057.0	-530.0	142427.0
21	17	13	41	819	20.0	-189964.0	936.0	143322.0
21	17	13	41	820	21.0	-193082.0	974.0	143288.0
21	17	13	41	820	22.0	-196497.0	1011.0	142619.0
21	17	13	41	821	23.0	-199642.0	1067.0	142567.0
21	17	13	41	822	24.0	-202332.0	1079.0	142870.0
21	17	13	41	822	25.0	-203953.0	1092.0	143052.0
21	17	13	41	823	26.0	-204441.0	1109.0	142926.0
21	17	13	41	823	42.0	-198351.0	1333.0	143488.0
21	17	13	41	824	43.0	-201212.0	1331.0	143546.0
21	17	13	41	825	44.0	-203422.0	1333.0	143653.0
21	17	13	41	825	45.0	-205365.0	1334.0	144097.0
21	17	13	41	826	46.0	-206996.0	1343.0	144156.0
21	17	13	41	826	47.0	-207966.0	1316.0	144101.0
21	17	13	41	827	48.0	-208464.0	1298.0	144222.0
21	17	13	41	828	65.0	-226164.0	911.0	144451.0
21	17	13	41	828	66.0	-226539.0	883.0	144273.0
21	17	13	41	861	67.0	-226436.0	856.0	144150.0
21	17	13	41	862	68.0	-225735.0	844.0	144293.0
21	17	13	41	881	69.0	-224649.0	841.0	144082.0
21	17	13	41	881	70.0	-223855.0	814.0	143613.0
21	17	13	41	882	71.0	-223129.0	790.0	143801.0
21	17	13	41	883	72.0	-222324.0	780.0	143536.0
21	17	13	41	883	73.0	-221202.0	736.0	143720.0
21	17	13	41	884	74.0	-219852.0	710.0	143810.0
21	17	13	41	884	75.0	-218704.0	703.0	143931.0
21	17	13	41	885	76.0	-217668.0	673.0	143717.0
21	17	13	41	885	77.0	-216588.0	643.0	143433.0
21	17	13	41	886	78.0	-215074.0	626.0	143609.0
21	17	13	41	887	79.0	-213387.0	628.0	143555.0
21	17	13	41	887	80.0	-211831.0	607.0	143511.0
21	17	13	41	888	81.0	-210403.0	568.0	143526.0
21	17	13	41	888	82.0	-209169.0	562.0	142992.0
21	17	13	41	889	88.0	-200797.0	418.0	142753.0
21	17	13	41	889	89.0	-199839.0	405.0	142608.0
21	17	13	41	890	90.0	-199097.0	394.0	142771.0
21	17	13	41	890	91.0	-198809.0	383.0	142607.0
21	17	13	41	891	92.0	-198772.0	341.0	142406.0
21	17	13	41	892	93.0	-198812.0	342.0	142492.0
21	17	13	41	907	94.0	-198787.0	342.0	142431.0
21	17	13	41	908	95.0	-198534.0	354.0	142520.0
21	17	13	41	909	96.0	-198454.0	349.0	142651.0
21	17	13	41	909	97.0	-198443.0	329.0	142378.0
21	17	13	41	910	98.0	-198515.0	317.0	142376.0
21	17	13	41	998	99.0	-198182.0	308.0	142599.0
21	17	13	41	998	100.0	-197857.0	299.0	142469.0
21	17	13	41	999	101.0	-197702.0	296.0	142295.0
21	17	13	42	0	102.0	-197855.0	301.0	142218.0
21	17	13	42	223	103.0	-198211.0	308.0	142298.0
21	17	13	42	224	104.0	-198896.0	311.0	142144.0
21	17	13	42	224	105.0	-199844.0	308.0	142304.0
21	17	13	42	225	106.0	-200627.0	290.0	142201.0
21	17	13	42	226	107.0	-201072.0	269.0	141818.0
21	17	13	42	226	108.0	-200956.0	268.0	141942.0
21	17	13	42	227	109.0	-200701.0	259.0	141848.0
21	17	13	42	268	110.0	-200501.0	255.0	141567.0
21	17	13	42	312	111.0	-200161.0	256.0	141303.0
21	17	13	42	313	112.0	-200043.0	247.0	141254.0
21	17	13	42	313	113.0	-200004.0	243.0	141229.0
21	17	13	42	314	114.0	-200054.0	241.0	140985.0
21	17	13	42	315	155.0	-200036.0	331.0	141333.0
21	17	13	42	315	156.0	-198752.0	327.0	141569.0
21	17	13	42	316	157.0	-197424.0	323.0	141898.0
21	17	13	42	357	158.0	-196079.0	311.0	141622.0
21	17	13	42	357	11.0	-240716.0	-2339.0	139319.0
21	17	13	42	358	12.0	-240969.0	-2362.0	139242.0
21	17	13	42	359	13.0	-240879.0	-2382.0	139138.0
21	17	13	42	360	14.0	-240941.0	-2403.0	139029.0
21	17	13	42	402	15.0	-240743.0	-2426.0	138949.0
21	17	13	42	403	16.0	-240169.0	-2446.0	138796.0
21	17	13	42	404	33.0	-220517.0	-2834.0	141743.0
21	17	13	42	405	34.0	-216588.0	-2863.0	141859.0
21	17	13	42	405	56.0	-164105.0	-3440.0	131231.0
21	17	13	42	406	57.0	-160748.0	-3456.0	132538.0
21	17	13	42	406	58.0	-157411.0	-3479.0	134284.0
21	17	13	42	448	59.0	-153854.0	-3507.0	136503.0
21	17	13	42	449	60.0	-151866.0	-3516.0	138032.0
21	17	13	42	449	61.0	-150109.0	-3539.0	138576.0
21	17	13	42	450	62.0	-145521.0	-3571.0	140768.0
21	17	13	42	451	78.0	-191314.0	-3881.0	143788.0
21	17	13	42	451	79.0	-193585.0	-3900.0	143654.0
21	17	13	42	452	80.0	-193030.0	-3926.0	143668.0
21	17	13	42	453	81.0	-189871.0	-3951.0	143855.0
21	17	13	42	453	101.0	-192714.0	-4245.0	143179.0
21	17	13	42	454	102.0	-189996.0	-4269.0	143187.0
21	17	13	42	454	103.0	-187619.0	-4287.0	143072.0
21	17	13	42	455	104.0	-185136.0	-4306.0	142755.0
21	17	13	42	456	105.0	-182187.0	-4332.0	142806.0
21	17	13	42	457	106.0	-178957.0	-4354.0	142863.0
21	17	13	42	457	107.0	-175677.0	-4394.0	143270.0
21	17	13	42	458	108.0	-172859.0	-4419.0	143334.0
21	17	13	42	459	123.0	-194285.0	-4798.0	143190.0
21	17	13	42	460	124.0	-197240.0	-4841.0	142648.0
21	17	13	42	460	125.0	-200344.0	-4862.0	142834.0
21	17	13	42	462	126.0	-203738.0	-4895.0	143279.0
21	17	13	42	463	127.0	-206989.0	-4923.0	143378.0
21	17	13	42	463	128.0	-210028.0	-4961.0	143547.0
21	17	13	42	464	129.0	-212897.0	-4971.0	143587.0
21	17	13	42	492	130.0	-215827.0	-5009.0	143534.0
21	17	13	42	492	131.0	-218752.0	-5039.0	143392.0
21	17	13	42	493	132.0	-221332.0	-5064.0	143619.0
21	17	13	42	494	133.0	-223669.0	-5082.0	143543.0
21	17	13	42	537	134.0	-225510.0	-5121.0	143427.0
21	17	13	42	537	135.0	-227100.0	-5146.0	143464.0
21	17	13	42	538	136.0	-228097.0	-5187.0	143861.0
21	17	13	42	539	137.0	-228348.0	-5227.0	144184.0
21	17	13	42	539	138.0	-227956.0	-5238.0	144358.0
21	17	13	42	540	139.0	-227326.0	-5267.0	144613.0
21	17	13	42	540	140.0	-226611.0	-5273.0	144487.0
21	17	13	42	583	141.0	-225758.0	-5314.0	144342.0
21	17	13	42	583	142.0	-224427.0	-5345.0	144347.0
21	17	13	42	584	143.0	-222919.0	-5357.0	144213.0
21	17	13	42	585	144.0	-221404.0	-5387.0	144361.0
21	17	13	42	585	145.0	-220120.0	-5404.0	144767.0
21	17	13	42	586	146.0	-218757.0	-5429.0	144876.0
21	17	13	42	586	147.0	-217266.0	-5429.0	145246.0
21	17	13	42	627	148.0	-215904.0	-5433.0	145607.0
21	17	13	42	718	149.0	-214331.0	-5448.0	145411.0
21	17	13	42	718	168.0	-206511.0	-5071.0	147488.0
21	17	13	42	719	169.0	-208436.0	-5021.0	147331.0
21	17	13	42	720	170.0	-210176.0	-4964.0	146929.0
21	17	13	42	720	171.0	-211670.0	-4886.0	146954.0
21	17	13	42	721	172.0	-213128.0	-4803.0	147003.0
21	17	13	42	721	173.0	-214410.0	-4721.0	146637.0
21	17	13	42	762	174.0	-215444.0	-4638.0	146359.0
21	17	13	42	763	191.0	-208489.0	-2686.0	139559.0
21	17	13	42	774	192.0	-206797.0	-2554.0	139216.0
21	17	13	42	774	193.0	-204799.0	-2397.0	138745.0
21	17	13	42	775	194.0	-203009.0	-2274.0	137916.0
21	17	13	42	776	195.0	-201478.0	-2157.0	137809.0
21	17	13	42	776	196.0	-200123.0	-2019.0	137746.0
21	17	13	42	777	213.0	-192456.0	18.0	134094.0
21	17	13	42	806	235.0	-170884.0	1626.0	133906.0
21	17	13	42	807	2.0	-187052.0	2236.0	133596.0
21	17	13	42	808	3.0	-191252.0	2241.0	133947.0
21	17	13	42	808	4.0	-195976.0	2251.0	133419.0
21	17	13	42	809	5.0	-200639.0	2269.0	133088.0
21	17	13	42	810	6.0	-205703.0	2271.0	133606.0
21	17	13	42	810	7.0	-211101.0	2276.0	133594.0
21	17	13	42	898	8.0	-216047.0	2269.0	133488.0
21	17	13	42	899	25.0	-219701.0	2104.0	133243.0
21	17	13	42	900	26.0	-217825.0	2100.0	132758.0
21	17	13	42	900	27.0	-215879.0	2072.0	132903.0
21	17	13	42	901	28.0	-213891.0	2050.0	132795.0
21	17	13	42	902	29.0	-212052.0	2028.0	132536.0
21	17	13	42	902	30.0	-210216.0	2021.0	132603.0
21	17	13	42	903	31.0	-208682.0	1999.0	133098.0
21	17	13	42	943	47.0	-239631.0	1656.0	131931.0
21	17	13	42	987	48.0	-240644.0	1651.0	131956.0
21	17	13	42	988	49.0	-241500.0	1629.0	132138.0
21	17	13	42	988	50.0	-241933.0	1633.0	132284.0
21	17	13	43	33	51.0	-241759.0	1621.0	132241.0
21	17	13	43	33	52.0	-241550.0	1600.0	132236.0
21	17	13	43	34	53.0	-241416.0	1584.0	132376.0
21	17	13	43	34	54.0	-241064.0	1576.0	132015.0
21	17	13	43	35	92.0	-163083.0	1522.0	132073.0
21	17	13	43	35	93.0	-166677.0	1513.0	131935.0
21	17	13	43	36	94.0	-170939.0	1522.0	132062.0
21	17	13	43	78	95.0	-175960.0	1531.0	132040.0
21	17	13	43	78	96.0	-181743.0	1520.0	131780.0
21	17	13	43	79	97.0	-187681.0	1497.0	131860.0
21	17	13	43	168	98.0	-193116.0	1494.0	132068.0
21	17	13	43	213	114.0	-223257.0	1419.0	130590.0
21	17	13	43	214	136.0	-200348.0	1012.0	128994.0
21	17	13	43	214	137.0	-199462.0	986.0	128801.0
21	17	13	43	215	138.0	-198942.0	966.0	128818.0
21	17	13	43	216	159.0	-196526.0	494.0	127779.0
21	17	13	43	216	160.0	-196251.0	453.0	127603.0
21	17	13	43	217	161.0	-195961.0	448.0	127917.0
21	17	13	43	301	162.0	-195589.0	436.0	127561.0
21	17	13	43	348	163.0	-195052.0	401.0	127437.0
21	17	13	43	348	164.0	-194680.0	359.0	127303.0
21	17	13	43	396	165.0	-194447.0	320.0	127478.0
21	17	13	43	398	166.0	-194672.0	306.0	127503.0
21	17	13	43	400	182.0	-211121.0	-183.0	125975.0
21	17	13	43	402	183.0	-210802.0	-214.0	126231.0
21	17	13	43	404	204.0	-196076.0	-1067.0	127106.0
21	17	13	43	406	249.0	-198352.0	-2009.0	127581.0
21	17	13	43	407	250.0	-199937.0	-2054.0	128198.0
21	17	13	43	409	251.0	-201437.0	-2103.0	128352.0
21	17	13	43	436	252.0	-202652.0	-2129.0	128528.0
21	17	13	43	437	253.0	-203429.0	-2165.0	128711.0
21	17	13	43	438	254.0	-204262.0	-2204.0	129021.0
21	17	13	43	482	255.0	-204764.0	-2251.0	129854.0
21	17	13	43	483	38.0	-211264.0	-2909.0	126133.0
21	17	13	43	483	60.0	-205423.0	-3184.0	125256.0
21	17	13	43	484	61.0	-203444.0	-3201.0	125277.0
21	17	13	43	485	62.0	-199073.0	-3191.0	125105.0
21	17	13	43	486	83.0	-163366.0	-3524.0	125709.0
21	17	13	43	487	84.0	-166382.0	-3533.0	125718.0
21	17	13	43	487	85.0	-169084.0	-3537.0	125623.0
21	17	13	43	488	86.0	-171624.0	-3550.0	125745.0
21	17	13	43	489	87.0	-174279.0	-3579.0	125599.0
21	17	13	43	490	88.0	-176644.0	-3593.0	125781.0
21	17	13	43	490	89.0	-179081.0	-3596.0	125575.0
21	17	13	43	491	105.0	-201784.0	-3922.0	128778.0
21	17	13	43	492	106.0	-201274.0	-3935.0	128614.0
21	17	13	43	493	107.0	-200590.0	-3926.0	128824.0
21	17	13	43	494	108.0	-199748.0	-3959.0	129148.0
21	17	13	43	494	128.0	-210463.0	-4224.0	133274.0
21	17	13	43	495	129.0	-211856.0	-4194.0	133139.0
21	17	13	43	496	130.0	-213049.0	-4180.0	133088.0
21	17	13	43	497	131.0	-213959.0	-4152.0	133360.0
21	17	13	43	497	132.0	-214865.0	-4101.0	133527.0
21	17	13	43	498	133.0	-215645.0	-4088.0	133901.0
21	17	13	43	499	134.0	-216266.0	-4045.0	133968.0
21	17	13	43	527	135.0	-216872.0	-4000.0	133565.0
21	17	13	43	552	136.0	-217249.0	-3951.0	133647.0
21	17	13	43	552	137.0	-217242.0	-3890.0	133581.0
21	17	13	43	553	138.0	-216684.0	-3853.0	133284.0
21	17	13	43	554	139.0	-215916.0	-3819.0	133101.0
21	17	13	43	575	140.0	-214951.0	-3749.0	133222.0
21	17	13	43	575	141.0	-213907.0	-3681.0	132890.0
21	17	13	43	576	142.0	-212599.0	-3609.0	133138.0
21	17	13	43	576	143.0	-211100.0	-3554.0	133077.0
21	17	13	43	577	144.0	-209979.0	-3476.0	132453.0
21	17	13	43	578	145.0	-208967.0	-3375.0	131758.0
21	17	13	43	578	146.0	-207808.0	-3282.0	131374.0
21	17	13	43	579	147.0	-206779.0	-3192.0	131033.0
21	17	13	43	617	148.0	-205487.0	-3108.0	130561.0
21	17	13	43	618	149.0	-204089.0	-3012.0	129942.0
21	17	13	43	618	150.0	-202727.0	-2915.0	129494.0
21	17	13	43	619	151.0	-201469.0	-2824.0	129078.0
21	17	13	43	620	152.0	-200382.0	-2716.0	128803.0
21	17	13	43	620	153.0	-199637.0	-2591.0	128201.0
21	17	13	43	621	154.0	-198956.0	-2502.0	127729.0
21	17	13	43	708	155.0	-198451.0	-2385.0	127292.0
21	17	13	43	708	173.0	-215187.0	-369.0	119999.0
21	17	13	43	709	174.0	-217837.0	-257.0	119637.0
21	17	13	43	752	175.0	-221021.0	-147.0	119384.0
21	17	13	43	753	176.0	-224831.0	-49.0	119126.0
21	17	13	43	753	177.0	-229169.0	37.0	119159.0
21	17	13	43	754	178.0	-234017.0	135.0	118822.0
21	17	13	43	754	179.0	-239279.0	232.0	118639.0
21	17	13	43	755	195.0	-222540.0	1410.0	116634.0
21	17	13	43	757	196.0	-215060.0	1451.0	116502.0
21	17	13	43	758	197.0	-207257.0	1496.0	116526.0
21	17	13	43	759	198.0	-201010.0	1539.0	116058.0
21	17	13	43	760	199.0	-197324.0	1583.0	115889.0
21	17	13	43	760	200.0	-195865.0	1606.0	116112.0
21	17	13	43	761	201.0	-196146.0	1649.0	116119.0
21	17	13	43	762	202.0	-197371.0	1694.0	115928.0
21	17	13	43	762	240.0	-201530.0	2068.0	111351.0
21	17	13	43	763	241.0	-200392.0	2078.0	111273.0
21	17	13	43	763	242.0	-199182.0	2055.0	111318.0
21	17	13	43	764	7.0	-205138.0	1574.0	109936.0
21	17	13	43	765	8.0	-205773.0	1551.0	109715.0
21	17	13	43	765	9.0	-206309.0	1529.0	109393.0
21	17	13	43	766	10.0	-206837.0	1503.0	109721.0
21	17	13	43	766	11.0	-207032.0	1471.0	109296.0
21	17	13	43	842	12.0	-206763.0	1456.0	108906.0
21	17	13	43	842	13.0	-206326.0	1445.0	108929.0
21	17	13	43	843	14.0	-205647.0	1439.0	109156.0
21	17	13	43	844	15.0	-204876.0	1414.0	109215.0
21	17	13	43	844	16.0	-204652.0	1389.0	109130.0
21	17	13	43	845	17.0	-204512.0	1364.0	109357.0
21	17	13	43	846	18.0	-204379.0	1354.0	109250.0
21	17	13	43	888	19.0	-204519.0	1324.0	108970.0
21	17	13	43	888	20.0	-204605.0	1303.0	108719.0
21	17	13	43	889	21.0	-204937.0	1298.0	108908.0
21	17	13	43	889	22.0	-205158.0	1278.0	108749.0
21	17	13	43	890	23.0	-204885.0	1258.0	108409.0
21	17	13	43	890	24.0	-204166.0	1257.0	108438.0
21	17	13	43	891	25.0	-203137.0	1221.0	108748.0
21	17	13	43	892	26.0	-201639.0	1216.0	108680.0
21	17	13	43	892	27.0	-199851.0	1208.0	108401.0
21	17	13	43	893	52.0	-192909.0	1146.0	107528.0
21	17	13	43	932	53.0	-195058.0	1149.0	107460.0
21	17	13	43	933	54.0	-197253.0	1172.0	107516.0
21	17	13	43	934	55.0	-199124.0	1174.0	107254.0
21	17	13	43	934	56.0	-201004.0	1163.0	107490.0
21	17	13	43	935	57.0	-202926.0	1163.0	107506.0
21	17	13	43	936	58.0	-204494.0	1157.0	107104.0
21	17	13	43	936	74.0	-203984.0	1106.0	106484.0
21	17	13	43	976	75.0	-202772.0	1106.0	106493.0
21	17	13	43	977	76.0	-201277.0	1103.0	106687.0
21	17	13	43	978	77.0	-199881.0	1089.0	106795.0
21	17	13	43	979	78.0	-198388.0	1074.0	106641.0
21	17	13	43	979	79.0	-197067.0	1093.0	106461.0
21	17	13	43	980	80.0	-196019.0	1076.0	106333.0
21	17	13	43	980	81.0	-195019.0	1056.0	106341.0
21	17	13	43	981	82.0	-194074.0	1042.0	106121.0
21	17	13	44	22	83.0	-193645.0	1021.0	106031.0
21	17	13	44	23	96.0	-194526.0	739.0	105314.0
21	17	13	44	24	97.0	-195150.0	713.0	105197.0
21	17	13	44	24	98.0	-195836.0	692.0	105004.0
21	17	13	44	25	99.0	-196716.0	688.0	105301.0
21	17	13	44	25	100.0	-197631.0	662.0	104954.0
21	17	13	44	26	101.0	-198393.0	644.0	104931.0
21	17	13	44	67	102.0	-199136.0	598.0	104977.0
21	17	13	44	68	119.0	-192833.0	191.0	104458.0
21	17	13	44	69	120.0	-192954.0	149.0	104119.0
21	17	13	44	69	121.0	-193084.0	114.0	103740.0
21	17	13	44	70	122.0	-192881.0	96.0	103764.0
21	17	13	44	71	123.0	-192622.0	54.0	103822.0
21	17	13	44	71	124.0	-192451.0	18.0	104045.0
21	17	13	44	112	125.0	-192397.0	-29.0	103768.0
21	17	13	44	113	141.0	-201944.0	-643.0	102619.0
21	17	13	44	114	142.0	-202386.0	-672.0	102496.0
21	17	13	44	115	143.0	-202716.0	-711.0	102702.0
21	17	13	44	116	144.0	-202812.0	-736.0	102951.0
21	17	13	44	116	145.0	-202987.0	-774.0	103112.0
21	17	13	44	117	146.0	-203009.0	-814.0	103219.0
21	17	13	44	157	147.0	-203016.0	-862.0	103093.0
21	17	13	44	202	148.0	-203042.0	-909.0	102755.0
21	17	13	44	203	164.0	-202125.0	-1391.0	102336.0
21	17	13	44	203	165.0	-202066.0	-1401.0	102785.0
21	17	13	44	204	166.0	-201986.0	-1422.0	102521.0
21	17	13	44	205	167.0	-201866.0	-1432.0	102308.0
21	17	13	44	205	168.0	-201593.0	-1466.0	102688.0
21	17	13	44	206	169.0	-201217.0	-1497.0	102514.0
21	17	13	44	207	170.0	-200798.0	-1527.0	102193.0
21	17	13	44	208	186.0	-194919.0	-1944.0	102274.0
21	17	13	44	209	187.0	-195488.0	-1969.0	102323.0
21	17	13	44	210	188.0	-196097.0	-1997.0	101811.0
21	17	13	44	210	189.0	-196574.0	-2039.0	101917.0
21	17	13	44	211	190.0	-197000.0	-2051.0	102097.0
21	17	13	44	212	191.0	-197644.0	-2081.0	101716.0
21	17	13	44	212	192.0	-198370.0	-2090.0	101479.0
21	17	13	44	213	209.0	-204539.0	-2464.0	103397.0
21	17	13	44	213	231.0	-223774.0	-2773.0	78104.0
21	17	13	44	214	232.0	-222636.0	-2785.0	81268.0
21	17	13	44	214	233.0	-220674.0	-2794.0	83927.0
21	17	13	44	215	234.0	-218024.0	-2811.0	87671.0
21	17	13	44	216	235.0	-215177.0	-2810.0	89873.0
21	17	13	44	216	236.0	-212232.0	-2836.0	91134.0
21	17	13	44	217	237.0	-210066.0	-2859.0	92912.0
21	17	13	44	247	238.0	-208929.0	-2871.0	94020.0
21	17	13	44	248	239.0	-206856.0	-2872.0	94874.0
21	17	13	44	249	240.0	-202069.0	-2896.0	96145.0
21	17	13	44	249	241.0	-196111.0	-2906.0	97981.0
21	17	13	44	250	242.0	-192668.0	-2921.0	99086.0
21	17	13	44	251	243.0	-192721.0	-2924.0	99384.0
21	17	13	44	251	244.0	-195466.0	-2946.0	99371.0
21	17	13	44	252	245.0	-200405.0	-2964.0	99712.0
21	17	13	44	292	246.0	-205394.0	-2989.0	100046.0
21	17	13	44	292	247.0	-209266.0	-2998.0	99946.0
21	17	13	44	293	248.0	-211935.0	-3022.0	99813.0
21	17	13	44	294	249.0	-213117.0	-3044.0	99986.0
21	17	13	44	294	250.0	-212334.0	-3065.0	99440.0
21	17	13	44	295	251.0	-210032.0	-3075.0	99157.0
21	17	13	44	296	252.0	-209362.0	-3087.0	99138.0
21	17	13	44	296	253.0	-213241.0	-3105.0	99228.0
21	17	13	44	337	254.0	-220919.0	-3127.0	99335.0
21	17	13	44	337	255.0	-229055.0	-3136.0	99341.0
21	17	13	44	338	0.0	-233589.0	-3138.0	99541.0
21	17	13	44	339	1.0	-233289.0	-3163.0	99512.0
21	17	13	44	339	2.0	-229121.0	-3179.0	99193.0
21	17	13	44	340	3.0	-221900.0	-3185.0	99414.0
21	17	13	44	341	4.0	-213297.0	-3213.0	99464.0
21	17	13	44	383	20.0	-179037.0	-3586.0	98834.0
21	17	13	44	383	21.0	-171980.0	-3623.0	98534.0
21	17	13	44	384	22.0	-164819.0	-3633.0	98435.0
21	17	13	44	385	23.0	-158862.0	-3672.0	98482.0
21	17	13	44	385	24.0	-154664.0	-3707.0	98350.0
21	17	13	44	386	25.0	-151486.0	-3730.0	98123.0
21	17	13	44	387	26.0	-149621.0	-3750.0	98147.0
21	17	13	44	427	27.0	-148848.0	-3767.0	98284.0
21	17	13	44	428	42.0	-183436.0	-4144.0	98487.0
21	17	13	44	429	43.0	-185156.0	-4169.0	98094.0
21	17	13	44	429	44.0	-186897.0	-4182.0	98034.0
21	17	13	44	430	45.0	-188669.0	-4206.0	98334.0
21	17	13	44	431	46.0	-190552.0	-4236.0	98365.0
21	17	13	44	431	47.0	-192451.0	-4269.0	98110.0
21	17	13	44	432	48.0	-194407.0	-4286.0	98311.0
21	17	13	44	433	49.0	-196780.0	-4310.0	98596.0
21	17	13	44	434	65.0	-207030.0	-4693.0	98619.0
21	17	13	44	434	66.0	-205769.0	-4712.0	99051.0
21	17	13	44	435	67.0	-204577.0	-4720.0	99386.0
21	17	13	44	435	68.0	-203234.0	-4739.0	99596.0
21	17	13	44	436	69.0	-201922.0	-4761.0	99326.0
21	17	13	44	437	70.0	-200701.0	-4761.0	99615.0
21	17	13	44	437	87.0	-202589.0	-4481.0	101723.0
21	17	13	44	438	88.0	-203346.0	-4426.0	101899.0
21	17	13	44	471	89.0	-203480.0	-4357.0	101833.0
21	17	13	44	472	90.0	-203746.0	-4298.0	101387.0
21	17	13	44	473	91.0	-204121.0	-4238.0	101550.0
21	17	13	44	474	92.0	-204527.0	-4163.0	101663.0
21	17	13	44	474	93.0	-204990.0	-4077.0	101461.0
21	17	13	44	475	94.0	-205963.0	-3987.0	101181.0
21	17	13	44	476	95.0	-206890.0	-3907.0	100994.0
21	17	13	44	476	96.0	-207996.0	-3832.0	100870.0
21	17	13	44	477	97.0	-209211.0	-3741.0	100561.0
21	17	13	44	477	98.0	-210039.0	-3645.0	100552.0
21	17	13	44	478	99.0	-210892.0	-3544.0	100806.0
21	17	13	44	479	100.0	-211721.0	-3451.0	100357.0
21	17	13	44	479	101.0	-212318.0	-3340.0	99728.0
21	17	13	44	480	102.0	-212807.0	-3221.0	99759.0
21	17	13	44	481	103.0	-213549.0	-3106.0	99204.0
21	17	13	44	481	104.0	-214006.0	-3002.0	98785.0
21	17	13	44	482	110.0	-212982.0	-2246.0	96368.0
21	17	13	44	483	111.0	-212348.0	-2126.0	95771.0
21	17	13	44	483	112.0	-211619.0	-1994.0	95411.0
21	17	13	44	484	113.0	-210763.0	-1857.0	94699.0
21	17	13	44	517	114.0	-210241.0	-1731.0	94149.0
21	17	13	44	517	115.0	-209537.0	-1617.0	93745.0
21	17	13	44	518	116.0	-208857.0	-1495.0	93284.0
21	17	13	44	519	117.0	-208026.0	-1357.0	92836.0
21	17	13	44	520	118.0	-207211.0	-1226.0	92625.0
21	17	13	44	562	119.0	-206707.0	-1096.0	92007.0
21	17	13	44	563	120.0	-206241.0	-963.0	91749.0
21	17	13	44	564	121.0	-205792.0	-828.0	91309.0
21	17	13	44	565	122.0	-205059.0	-719.0	90859.0
21	17	13	44	565	123.0	-204684.0	-591.0	90414.0
21	17	13	44	566	124.0	-204488.0	-451.0	90114.0
21	17	13	44	567	125.0	-204476.0	-329.0	89669.0
21	17	13	44	567	126.0	-204324.0	-232.0	89512.0
21	17	13	44	607	127.0	-204090.0	-96.0	89655.0
21	17	13	44	608	128.0	-203799.0	26.0	89103.0
21	17	13	44	609	132.0	-201964.0	503.0	88091.0
21	17	13	44	610	133.0	-202057.0	617.0	88042.0
21	17	13	44	610	134.0	-202586.0	726.0	88001.0
21	17	13	44	611	135.0	-203556.0	822.0	87469.0
21	17	13	44	611	136.0	-204982.0	915.0	87428.0
21	17	13	44	612	137.0	-206913.0	995.0	87772.0
21	17	13	44	653	155.0	-229280.0	2229.0	85319.0
21	17	13	44	654	156.0	-225247.0	2249.0	85357.0
21	17	13	44	654	157.0	-220446.0	2271.0	85078.0
21	17	13	44	655	158.0	-213792.0	2316.0	85158.0
21	17	13	44	656	159.0	-205743.0	2336.0	85346.0
21	17	13	44	656	160.0	-197819.0	2366.0	84907.0
21	17	13	44	657	161.0	-191371.0	2399.0	84671.0
21	17	13	44	697	177.0	-193628.0	2688.0	84411.0
21	17	13	44	698	178.0	-192363.0	2692.0	84117.0
21	17	13	44	699	179.0	-191323.0	2713.0	83928.0
21	17	13	44	700	180.0	-190460.0	2736.0	83939.0
21	17	13	44	700	181.0	-190071.0	2735.0	83911.0
21	17	13	44	701	182.0	-189911.0	2730.0	83814.0
21	17	13	44	702	183.0	-190206.0	2734.0	83810.0
21	17	13	44	702	184.0	-190373.0	2716.0	83387.0
21	17	13	44	703	200.0	-209126.0	2590.0	82156.0
21	17	13	44	704	201.0	-209194.0	2567.0	82063.0
21	17	13	44	705	202.0	-209219.0	2558.0	81862.0
21	17	13	44	705	203.0	-208977.0	2548.0	81798.0
21	17	13	44	706	204.0	-208577.0	2525.0	81770.0
21	17	13	44	707	205.0	-207947.0	2500.0	81633.0
21	17	13	44	708	206.0	-206981.0	2489.0	81701.0
21	17	13	44	709	207.0	-205899.0	2438.0	82061.0
21	17	13	44	709	222.0	-207550.0	1956.0	81180.0
21	17	13	44	710	223.0	-208012.0	1905.0	81081.0
21	17	13	44	711	224.0	-208280.0	1893.0	80606.0
21	17	13	44	712	225.0	-209062.0	1880.0	80871.0
21	17	13	44	712	226.0	-209955.0	1841.0	80947.0
21	17	13	44	713	227.0	-210906.0	1804.0	80783.0
21	17	13	44	714	228.0	-211790.0	1794.0	81051.0
21	17	13	44	742	229.0	-212767.0	1777.0	80953.0
21	17	13	44	787	230.0	-213274.0	1774.0	80676.0
21	17	13	44	878	231.0	-213407.0	1727.0	80773.0
21	17	13	44	878	232.0	-213269.0	1706.0	80766.0
21	17	13	44	879	233.0	-213126.0	1696.0	80559.0
21	17	13	44	880	234.0	-212654.0	1676.0	80258.0
21	17	13	44	880	235.0	-211958.0	1679.0	80546.0
21	17	13	44	881	236.0	-211306.0	1665.0	80708.0
21	17	13	44	881	237.0	-210924.0	1641.0	80633.0
21	17	13	44	882	238.0	-210332.0	1612.0	81008.0
21	17	13	44	921	239.0	-209867.0	1616.0	81064.0
21	17	13	44	922	240.0	-209375.0	1603.0	80741.0
21	17	13	44	922	241.0	-208555.0	1593.0	80981.0
21	17	13	44	923	242.0	-207554.0	1592.0	81243.0
21	17	13	44	924	243.0	-206499.0	1584.0	80846.0
21	17	13	44	924	244.0	-205071.0	1582.0	80724.0
21	17	13	44	925	11.0	-192772.0	1524.0	80438.0
21	17	13	44	925	56.0	-204829.0	1221.0	78623.0
21	17	13	44	966	57.0	-205367.0	1200.0	78386.0
21	17	13	44	967	58.0	-205871.0	1193.0	78724.0
21	17	13	44	968	59.0	-205837.0	1173.0	78852.0
21	17	13	44	968	60.0	-205820.0	1167.0	78821.0
21	17	13	44	969	61.0	-205504.0	1139.0	78661.0
21	17	13	44	970	62.0	-205011.0	1092.0	78582.0
21	17	13	44	970	63.0	-204595.0	1078.0	78444.0
21	17	13	45	13	78.0	-195652.0	589.0	79089.0
21	17	13	45	13	79.0	-195029.0	561.0	78852.0
21	17	13	45	14	80.0	-194771.0	535.0	79106.0
21	17	13	45	15	81.0	-194786.0	513.0	79241.0
21	17	13	45	15	82.0	-194930.0	493.0	79205.0
21	17	13	45	16	83.0	-194975.0	464.0	79148.0
21	17	13	45	16	84.0	-195039.0	429.0	79224.0
21	17	13	45	17	85.0	-195302.0	397.0	79164.0
21	17	13	45	18	101.0	-200114.0	-154.0	79308.0
21	17	13	45	18	102.0	-199728.0	-183.0	79685.0
21	17	13	45	19	103.0	-199267.0	-191.0	79780.0
21	17	13	45	19	104.0	-198710.0	-211.0	79381.0
21	17	13	45	20	105.0	-197786.0	-259.0	79278.0
21	17	13	45	21	106.0	-196467.0	-301.0	79509.0
21	17	13	45	21	107.0	-195106.0	-327.0	79118.0
21	17	13	45	22	108.0	-193768.0	-372.0	79424.0
21	17	13	45	23	124.0	-190110.0	-766.0	79761.0
21	17	13	45	23	125.0	-191764.0	-804.0	79461.0
21	17	13	45	24	126.0	-193426.0	-818.0	79353.0
21	17	13	45	25	127.0	-195379.0	-837.0	79296.0
21	17	13	45	25	128.0	-197366.0	-841.0	79441.0
21	17	13	45	26	129.0	-199326.0	-874.0	79234.0
21	17	13	45	56	130.0	-201186.0	-891.0	79244.0
21	17	13	45	57	131.0	-202787.0	-907.0	79508.0
21	17	13	45	58	132.0	-204439.0	-937.0	79318.0
21	17	13	45	58	133.0	-206037.0	-958.0	79146.0
21	17	13	45	59	134.0	-207442.0	-992.0	79297.0
21	17	13	45	59	135.0	-208395.0	-1014.0	79084.0
21	17	13	45	60	136.0	-208971.0	-1047.0	79101.0
21	17	13	45	102	137.0	-209634.0	-1088.0	79266.0
21	17	13	45	102	138.0	-210222.0	-1124.0	79209.0
21	17	13	45	103	139.0	-210402.0	-1139.0	79101.0
21	17	13	45	104	140.0	-210546.0	-1136.0	79506.0
21	17	13	45	104	141.0	-210645.0	-1174.0	79585.0
21	17	13	45	105	142.0	-210516.0	-1200.0	79240.0
21	17	13	45	106	143.0	-210209.0	-1234.0	79250.0
21	17	13	45	107	144.0	-209678.0	-1254.0	79556.0
21	17	13	45	177	146.0	-208719.0	-1314.0	79012.0
21	17	13	45	177	147.0	-207958.0	-1352.0	78993.0
21	17	13	45	192	148.0	-207249.0	-1358.0	79308.0
21	17	13	45	192	149.0	-206497.0	-1391.0	79236.0
21	17	13	45	193	150.0	-206004.0	-1425.0	79526.0
21	17	13	45	194	151.0	-205539.0	-1446.0	79483.0
21	17	13	45	194	152.0	-204899.0	-1473.0	79320.0
21	17	13	45	195	153.0	-204168.0	-1492.0	79190.0
21	17	13	45	196	168.0	-202080.0	-1854.0	78761.0
21	17	13	45	196	169.0	-202263.0	-1901.0	79038.0
21	17	13	45	197	170.0	-202719.0	-1935.0	78726.0
21	17	13	45	197	171.0	-203166.0	-1940.0	78674.0
21	17	13	45	198	172.0	-203577.0	-1958.0	78649.0
21	17	13	45	214	173.0	-203804.0	-2011.0	78808.0
21	17	13	45	215	174.0	-203932.0	-2037.0	78517.0
21	17	13	45	216	198.0	-195376.0	-2626.0	77172.0
21	17	13	45	216	206.0	-200119.0	-2725.0	77293.0
21	17	13	45	217	207.0	-200982.0	-2748.0	77313.0
21	17	13	45	217	213.0	-205930.0	-2861.0	77581.0
21	17	13	45	218	214.0	-206771.0	-2891.0	77619.0
21	17	13	45	218	215.0	-207479.0	-2910.0	77510.0
21	17	13	45	219	216.0	-208010.0	-2899.0	77331.0
21	17	13	45	220	217.0	-208119.0	-2912.0	77163.0
21	17	13	45	220	218.0	-207896.0	-2937.0	77154.0
21	17	13	45	221	219.0	-207193.0	-2954.0	77356.0
21	17	13	45	221	220.0	-206191.0	-2971.0	77350.0
21	17	13	45	222	221.0	-205006.0	-3000.0	76964.0
21	17	13	45	222	222.0	-203359.0	-3039.0	77071.0
21	17	13	45	223	223.0	-201443.0	-3060.0	77093.0
21	17	13	45	224	224.0	-199402.0	-3074.0	76788.0
21	17	13	45	224	225.0	-197365.0	-3081.0	76776.0
21	17	13	45	225	226.0	-195701.0	-3096.0	76993.0
21	17	13	45	225	227.0	-194253.0	-3136.0	76672.0
21	17	13	45	226	228.0	-193341.0	-3146.0	76506.0
21	17	13	45	237	229.0	-192862.0	-3179.0	76644.0
21	17	13	45	238	230.0	-192760.0	-3191.0	76691.0
21	17	13	45	238	231.0	-193019.0	-3196.0	76471.0
21	17	13	45	239	232.0	-193472.0	-3211.0	76901.0
21	17	13	45	239	233.0	-194114.0	-3229.0	77071.0
21	17	13	45	240	234.0	-194722.0	-3255.0	76367.0
21	17	13	45	241	235.0	-195227.0	-3290.0	76340.0
21	17	13	45	241	236.0	-195450.0	-3317.0	76549.0
21	17	13	45	242	237.0	-195557.0	-3346.0	76530.0
21	17	13	45	259	238.0	-195824.0	-3347.0	76553.0
21	17	13	45	260	239.0	-196072.0	-3361.0	76958.0
21	17	13	45	260	240.0	-196183.0	-3382.0	76466.0
21	17	13	45	261	241.0	-196096.0	-3417.0	76344.0
21	17	13	45	262	242.0	-196468.0	-3449.0	76649.0
21	17	13	45	262	243.0	-196472.0	-3469.0	76605.0
21	17	13	45	263	244.0	-196287.0	-3481.0	76317.0
21	17	13	45	282	245.0	-195982.0	-3489.0	76271.0
21	17	13	45	282	246.0	-196326.0	-3503.0	76151.0
21	17	13	45	283	247.0	-197210.0	-3512.0	75831.0
21	17	13	45	284	248.0	-197904.0	-3534.0	75955.0
21	17	13	45	284	249.0	-198641.0	-3554.0	75932.0
21	17	13	45	285	250.0	-199499.0	-3574.0	76053.0
21	17	13	45	286	251.0	-200327.0	-3590.0	76131.0
21	17	13	45	286	252.0	-201005.0	-3622.0	76324.0
21	17	13	45	287	253.0	-202065.0	-3652.0	76661.0
21	17	13	45	287	254.0	-202857.0	-3666.0	76963.0
21	17	13	45	288	255.0	-203726.0	-3676.0	77215.0
21	17	13	45	288	0.0	-204431.0	-3711.0	77274.0
21	17	13	45	289	1.0	-204824.0	-3748.0	77349.0
21	17	13	45	290	2.0	-205046.0	-3780.0	77527.0
21	17	13	45	309	3.0	-205081.0	-3818.0	78263.0
21	17	13	45	332	4.0	-204838.0	-3825.0	79348.0
21	17	13	45	333	5.0	-204436.0	-3839.0	80016.0
21	17	13	45	333	6.0	-204043.0	-3857.0	79438.0
21	17	13	45	334	7.0	-203222.0	-3865.0	78713.0
21	17	13	45	335	8.0	-202677.0	-3874.0	77118.0
21	17	13	45	335	9.0	-201998.0	-3889.0	74444.0
21	17	13	45	336	10.0	-201086.0	-3912.0	70854.0
21	17	13	45	336	11.0	-200790.0	-3922.0	67790.0
21	17	13	45	337	12.0	-201199.0	-3939.0	65524.0
21	17	13	45	337	13.0	-202306.0	-3983.0	63616.0
21	17	13	45	338	14.0	-203941.0	-4000.0	62464.0
21	17	13	45	339	15.0	-206209.0	-4021.0	61348.0
21	17	13	45	339	16.0	-208682.0	-4058.0	59551.0
21	17	13	45	340	17.0	-211554.0	-4076.0	57291.0
21	17	13	45	340	18.0	-214324.0	-4108.0	56148.0
21	17	13	45	341	19.0	-217198.0	-4137.0	54444.0
21	17	13	45	342	20.0	-220164.0	-4164.0	51481.0
21	17	13	45	342	21.0	-222576.0	-4179.0	51584.0
21	17	13	45	343	22.0	-224055.0	-4220.0	51412.0
21	17	13	45	343	23.0	-225039.0	-4251.0	52019.0
21	17	13	45	344	24.0	-224804.0	-4276.0	55439.0
21	17	13	45	371	25.0	-223839.0	-4302.0	57918.0
21	17	13	45	372	26.0	-221987.0	-4332.0	60494.0
21	17	13	45	373	27.0	-219487.0	-4351.0	63299.0
21	17	13	45	373	28.0	-216454.0	-4371.0	64597.0
21	17	13	45	374	29.0	-213067.0	-4407.0	65844.0
21	17	13	45	375	30.0	-210293.0	-4421.0	67498.0
21	17	13	45	375	31.0	-208688.0	-4442.0	68840.0
21	17	13	45	387	32.0	-205715.0	-4454.0	70139.0
21	17	13	45	388	33.0	-199317.0	-4472.0	72403.0
21	17	13	45	389	34.0	-192721.0	-4488.0	74185.0
21	17	13	45	389	35.0	-189176.0	-4497.0	74524.0
21	17	13	45	390	36.0	-189561.0	-4514.0	75073.0
21	17	13	45	391	37.0	-192781.0	-4566.0	75204.0
21	17	13	45	391	38.0	-197857.0	-4604.0	75624.0
21	17	13	45	411	39.0	-203276.0	-4644.0	76197.0
21	17	13	45	412	40.0	-207742.0	-4653.0	76493.0
21	17	13	45	412	47.0	-222022.0	-4820.0	76938.0
21	17	13	45	413	48.0	-228140.0	-4854.0	77073.0
21	17	13	45	413	49.0	-229294.0	-4886.0	77420.0
21	17	13	45	414	50.0	-225729.0	-4893.0	77528.0
21	17	13	45	415	51.0	-217509.0	-4924.0	77396.0
21	17	13	45	415	52.0	-206255.0	-4938.0	77593.0
21	17	13	45	416	53.0	-193693.0	-4959.0	77878.0
21	17	13	45	417	55.0	-169872.0	-4988.0	77980.0
21	17	13	45	417	56.0	-159817.0	-5004.0	77939.0
21	17	13	45	418	57.0	-151256.0	-5015.0	77936.0
21	17	13	45	419	58.0	-146214.0	-5032.0	77690.0
21	17	13	45	419	59.0	-147500.0	-5057.0	77460.0
21	17	13	45	433	60.0	-154964.0	-5070.0	77511.0
21	17	13	45	434	61.0	-165454.0	-5091.0	77624.0
21	17	13	45	435	62.0	-174833.0	-5111.0	77607.0
21	17	13	45	436	63.0	-181111.0	-5139.0	77354.0
21	17	13	45	436	64.0	-183757.0	-5151.0	77437.0
21	17	13	45	437	65.0	-183036.0	-5182.0	77598.0
21	17	13	45	459	66.0	-179854.0	-5209.0	77703.0
21	17	13	45	459	67.0	-174922.0	-5257.0	77859.0
21	17	13	45	460	68.0	-169349.0	-5286.0	78021.0
21	17	13	45	461	70.0	-159482.0	-5322.0	77413.0
21	17	13	45	461	71.0	-155422.0	-5347.0	77598.0
21	17	13	45	462	72.0	-152247.0	-5356.0	77930.0
21	17	13	45	464	73.0	-149628.0	-5373.0	77882.0
21	17	13	45	465	74.0	-147919.0	-5387.0	78038.0
21	17	13	45	466	75.0	-147472.0	-5403.0	78213.0
21	17	13	45	466	76.0	-148524.0	-5402.0	77956.0
21	17	13	45	467	77.0	-150286.0	-5416.0	77818.0
21	17	13	45	468	78.0	-152959.0	-5436.0	77884.0
21	17	13	45	468	79.0	-156403.0	-5432.0	77653.0
21	17	13	45	481	80.0	-159792.0	-5449.0	77591.0
21	17	13	45	481	81.0	-163414.0	-5441.0	77909.0
21	17	13	45	482	82.0	-166990.0	-5446.0	78062.0
21	17	13	45	483	85.0	-175795.0	-5494.0	78316.0
21	17	13	45	483	86.0	-178460.0	-5504.0	78091.0
21	17	13	45	484	87.0	-181205.0	-5528.0	78115.0
21	17	13	45	485	88.0	-183601.0	-5562.0	77955.0
21	17	13	45	503	89.0	-185678.0	-5562.0	77630.0
21	17	13	45	504	90.0	-187599.0	-5572.0	77795.0
21	17	13	45	504	92.0	-191334.0	-5580.0	78132.0
21	17	13	45	505	93.0	-193309.0	-5593.0	78233.0
21	17	13	45	506	94.0	-195589.0	-5619.0	78235.0
21	17	13	45	506	95.0	-198290.0	-5617.0	78151.0
21	17	13	45	507	96.0	-200902.0	-5631.0	78129.0
21	17	13	45	508	97.0	-203532.0	-5654.0	78369.0
21	17	13	45	508	98.0	-205854.0	-5687.0	78584.0
21	17	13	45	509	100.0	-209222.0	-5696.0	78664.0
21	17	13	45	509	101.0	-210007.0	-5726.0	78703.0
21	17	13	45	510	102.0	-210230.0	-5744.0	79001.0
21	17	13	45	525	103.0	-210355.0	-5759.0	79318.0
21	17	13	45	526	104.0	-210357.0	-5772.0	79129.0
21	17	13	45	527	105.0	-209901.0	-5787.0	78881.0
21	17	13	45	527	106.0	-209128.0	-5802.0	79448.0
21	17	13	45	528	107.0	-208455.0	-5831.0	79668.0
21	17	13	45	528	108.0	-207783.0	-5882.0	79604.0
21	17	13	45	529	109.0	-207234.0	-5891.0	79619.0
21	17	13	45	551	110.0	-206516.0	-5916.0	79782.0
21	17	13	45	552	111.0	-205739.0	-5960.0	80114.0
21	17	13	45	553	112.0	-204914.0	-5970.0	80288.0
21	17	13	45	554	113.0	-203641.0	-5994.0	80589.0
21	17	13	45	554	115.0	-202280.0	-6036.0	80804.0
21	17	13	45	555	116.0	-201312.0	-6047.0	81021.0
21	17	13	45	556	117.0	-200996.0	-6061.0	81156.0
21	17	13	45	571	118.0	-200669.0	-6072.0	81371.0
21	17	13	45	571	119.0	-200272.0	-6067.0	81848.0
21	17	13	45	572	122.0	-200945.0	-6056.0	81986.0
21	17	13	45	573	123.0	-201347.0	-6069.0	82397.0
21	17	13	45	573	124.0	-201494.0	-6056.0	82418.0
21	17	13	45	574	125.0	-201431.0	-6036.0	82449.0
21	17	13	45	574	126.0	-201569.0	-6023.0	82654.0
21	17	13	45	575	127.0	-201946.0	-6007.0	82603.0
21	17	13	45	597	128.0	-203076.0	-5986.0	82703.0
21	17	13	45	597	137.0	-209142.0	-5609.0	83491.0
21	17	13	45	598	138.0	-209602.0	-5557.0	83488.0
21	17	13	45	599	139.0	-210057.0	-5483.0	83230.0
21	17	13	45	599	140.0	-209967.0	-5412.0	83176.0
21	17	13	45	600	141.0	-209760.0	-5321.0	83769.0
21	17	13	45	601	142.0	-209376.0	-5241.0	83877.0
21	17	13	45	627	143.0	-208566.0	-5162.0	83426.0
21	17	13	45	628	145.0	-206813.0	-4946.0	83572.0
21	17	13	45	629	146.0	-205692.0	-4847.0	83119.0
21	17	13	45	629	147.0	-204996.0	-4742.0	83296.0
21	17	13	45	630	148.0	-204364.0	-4619.0	83011.0
21	17	13	45	631	149.0	-203879.0	-4504.0	82633.0
21	17	13	45	631	150.0	-203597.0	-4382.0	82402.0
21	17	13	45	642	151.0	-203119.0	-4254.0	82693.0
21	17	13	45	643	159.0	-204638.0	-3199.0	79276.0
21	17	13	45	643	160.0	-205194.0	-3055.0	78984.0
21	17	13	45	644	161.0	-205597.0	-2918.0	78698.0
21	17	13	45	644	162.0	-205817.0	-2765.0	78556.0
21	17	13	45	645	163.0	-206016.0	-2606.0	78185.0
21	17	13	45	645	164.0	-205944.0	-2474.0	77690.0
21	17	13	45	664	165.0	-205799.0	-2354.0	77176.0
21	17	13	45	664	166.0	-205557.0	-2200.0	76935.0
21	17	13	45	665	174.0	-202164.0	-1150.0	74358.0
21	17	13	45	666	175.0	-202607.0	-1024.0	74348.0
21	17	13	45	666	176.0	-203439.0	-899.0	74199.0
21	17	13	45	667	177.0	-204165.0	-769.0	73749.0
21	17	13	45	667	178.0	-204762.0	-624.0	73363.0
21	17	13	45	668	179.0	-205805.0	-515.0	73054.0
21	17	13	45	669	180.0	-206632.0	-424.0	72868.0
21	17	13	45	669	182.0	-208693.0	-197.0	72815.0
21	17	13	45	670	183.0	-210136.0	-95.0	72904.0
21	17	13	45	670	184.0	-211477.0	0.0	72535.0
21	17	13	45	671	185.0	-213260.0	113.0	72535.0
21	17	13	45	672	186.0	-215105.0	223.0	72249.0
21	17	13	45	672	187.0	-217332.0	323.0	72263.0
21	17	13	45	673	188.0	-219992.0	419.0	72018.0
21	17	13	45	673	189.0	-222815.0	481.0	71566.0
21	17	13	45	674	190.0	-226034.0	559.0	71707.0
21	17	13	45	674	191.0	-229741.0	642.0	71622.0
21	17	13	45	675	192.0	-233344.0	716.0	71585.0
21	17	13	45	676	193.0	-237563.0	793.0	71594.0
21	17	13	45	676	194.0	-242177.0	862.0	71695.0
21	17	13	45	677	195.0	-242859.0	921.0	71441.0
21	17	13	45	677	196.0	-240662.0	1002.0	71289.0
21	17	13	45	678	197.0	-236121.0	1038.0	71260.0
21	17	13	45	688	198.0	-234442.0	1100.0	71086.0
21	17	13	45	689	199.0	-233569.0	1186.0	70661.0
21	17	13	45	690	200.0	-234159.0	1223.0	70851.0
21	17	13	45	690	201.0	-234588.0	1274.0	70816.0
21	17	13	45	691	202.0	-232710.0	1323.0	70604.0
21	17	13	45	691	203.0	-228182.0	1381.0	70595.0
21	17	13	45	692	204.0	-222676.0	1434.0	70897.0
21	17	13	45	712	205.0	-216644.0	1475.0	70878.0
21	17	13	45	712	206.0	-210344.0	1517.0	70269.0
21	17	13	45	713	207.0	-202547.0	1549.0	70544.0
21	17	13	45	713	208.0	-194067.0	1600.0	70654.0
21	17	13	45	714	209.0	-186757.0	1631.0	70146.0
21	17	13	45	715	210.0	-181698.0	1644.0	70156.0
21	17	13	45	715	211.0	-179210.0	1688.0	70546.0
21	17	13	45	716	212.0	-179439.0	1711.0	70558.0
21	17	13	45	716	213.0	-181011.0	1735.0	70533.0
21	17	13	45	717	214.0	-184044.0	1778.0	70566.0
21	17	13	45	718	215.0	-188165.0	1806.0	70764.0
21	17	13	45	718	216.0	-192731.0	1833.0	70339.0
21	17	13	45	719	217.0	-197019.0	1861.0	70308.0
21	17	13	45	719	218.0	-200389.0	1883.0	70569.0
21	17	13	45	720	219.0	-202738.0	1918.0	70449.0
21	17	13	45	735	220.0	-203654.0	1948.0	70606.0
21	17	13	45	736	221.0	-203389.0	1956.0	70502.0
21	17	13	45	736	222.0	-202092.0	1966.0	70286.0
21	17	13	45	737	223.0	-200103.0	1994.0	70226.0
21	17	13	45	738	224.0	-197831.0	2027.0	70173.0
21	17	13	45	738	225.0	-195508.0	2039.0	69996.0
21	17	13	45	739	226.0	-193429.0	2074.0	70090.0
21	17	13	45	762	227.0	-191457.0	2081.0	69906.0
21	17	13	45	763	228.0	-189808.0	2079.0	69571.0
21	17	13	45	764	229.0	-188884.0	2098.0	69521.0
21	17	13	45	764	230.0	-188652.0	2103.0	69514.0
21	17	13	45	765	231.0	-188794.0	2104.0	69391.0
21	17	13	45	766	232.0	-189326.0	2116.0	69753.0
21	17	13	45	766	233.0	-190473.0	2130.0	69696.0
21	17	13	45	767	234.0	-192026.0	2119.0	69493.0
21	17	13	45	768	235.0	-194129.0	2109.0	69350.0
21	17	13	45	768	236.0	-196072.0	2118.0	69479.0
21	17	13	45	769	237.0	-197757.0	2126.0	69481.0
21	17	13	45	770	238.0	-199472.0	2120.0	69038.0
21	17	13	45	770	239.0	-201083.0	2122.0	69163.0
21	17	13	45	771	240.0	-202328.0	2122.0	69526.0
21	17	13	45	772	241.0	-203298.0	2140.0	69430.0
21	17	13	45	772	242.0	-203907.0	2134.0	69551.0
21	17	13	45	773	243.0	-204119.0	2124.0	69579.0
21	17	13	45	774	244.0	-204010.0	2114.0	69166.0
21	17	13	45	774	245.0	-203614.0	2118.0	69103.0
21	17	13	45	775	246.0	-203191.0	2116.0	69544.0
21	17	13	45	776	247.0	-202835.0	2111.0	69365.0
21	17	13	45	776	248.0	-202452.0	2106.0	69214.0
21	17	13	45	777	249.0	-202148.0	2091.0	69145.0
21	17	13	45	791	250.0	-202090.0	2083.0	69023.0
21	17	13	45	792	251.0	-202387.0	2100.0	69061.0
21	17	13	45	793	252.0	-202812.0	2103.0	69227.0
21	17	13	45	793	253.0	-203171.0	2110.0	69100.0
21	17	13	45	794	254.0	-203250.0	2100.0	69289.0
21	17	13	45	794	255.0	-203496.0	2103.0	69415.0
21	17	13	45	795	0.0	-203612.0	2084.0	69011.0
21	17	13	45	821	1.0	-203541.0	2071.0	68991.0
21	17	13	45	822	2.0	-203317.0	2041.0	68959.0
21	17	13	45	822	3.0	-202612.0	2042.0	68721.0
21	17	13	45	823	4.0	-202463.0	2031.0	68871.0
21	17	13	45	824	5.0	-202452.0	2003.0	69134.0
21	17	13	45	824	6.0	-202305.0	1973.0	69106.0
21	17	13	45	825	7.0	-202536.0	1942.0	68990.0
21	17	13	45	826	8.0	-203234.0	1929.0	69108.0
21	17	13	45	836	9.0	-203983.0	1921.0	68929.0
21	17	13	45	837	10.0	-204839.0	1909.0	68659.0
21	17	13	45	838	11.0	-205782.0	1895.0	68998.0
21	17	13	45	839	12.0	-206639.0	1867.0	68971.0
21	17	13	45	839	13.0	-207676.0	1851.0	68507.0
21	17	13	45	840	14.0	-209192.0	1841.0	68552.0
21	17	13	45	856	15.0	-210978.0	1827.0	69035.0
21	17	13	45	857	16.0	-212384.0	1824.0	69030.0
21	17	13	45	858	17.0	-213932.0	1802.0	68710.0
21	17	13	45	858	18.0	-215859.0	1776.0	68889.0
21	17	13	45	859	19.0	-217304.0	1767.0	69003.0
21	17	13	45	859	20.0	-218454.0	1751.0	68776.0
21	17	13	45	860	21.0	-219604.0	1720.0	68526.0
21	17	13	45	861	22.0	-220502.0	1711.0	68549.0
21	17	13	45	861	23.0	-221356.0	1699.0	68426.0
21	17	13	45	880	24.0	-221740.0	1679.0	68353.0
21	17	13	45	881	25.0	-221785.0	1677.0	68318.0
21	17	13	45	881	26.0	-221733.0	1671.0	68379.0
21	17	13	45	882	27.0	-221441.0	1672.0	68401.0
21	17	13	45	883	28.0	-220821.0	1651.0	68257.0
21	17	13	45	883	29.0	-219687.0	1646.0	68194.0
21	17	13	45	884	30.0	-218368.0	1645.0	68143.0
21	17	13	45	884	31.0	-217162.0	1643.0	68181.0
21	17	13	45	885	32.0	-216044.0	1647.0	67713.0
21	17	13	45	885	33.0	-215080.0	1641.0	67783.0
21	17	13	45	886	34.0	-214144.0	1644.0	67760.0
21	17	13	45	887	35.0	-213116.0	1643.0	67493.0
21	17	13	45	887	36.0	-211956.0	1623.0	67676.0
21	17	13	45	888	37.0	-210774.0	1621.0	67886.0
21	17	13	45	888	38.0	-209459.0	1628.0	67578.0
21	17	13	45	889	39.0	-208158.0	1615.0	67594.0
21	17	13	45	890	40.0	-206849.0	1626.0	67701.0
21	17	13	45	890	41.0	-205376.0	1636.0	67513.0
21	17	13	45	891	42.0	-204071.0	1631.0	67315.0
21	17	13	45	891	43.0	-203021.0	1641.0	67332.0
21	17	13	45	892	44.0	-201954.0	1645.0	67102.0
21	17	13	45	902	45.0	-200877.0	1642.0	66987.0
21	17	13	45	903	46.0	-200127.0	1634.0	66969.0
21	17	13	45	904	47.0	-199498.0	1622.0	67305.0
21	17	13	45	904	48.0	-198885.0	1611.0	67103.0
21	17	13	45	905	49.0	-198742.0	1631.0	67082.0
21	17	13	45	906	50.0	-198654.0	1624.0	67389.0
21	17	13	45	906	51.0	-198656.0	1629.0	66904.0
21	17	13	45	926	52.0	-198952.0	1639.0	66525.0
21	17	13	45	927	53.0	-199322.0	1636.0	66706.0
21	17	13	45	927	54.0	-199711.0	1623.0	66433.0
21	17	13	45	928	55.0	-200125.0	1625.0	66099.0
21	17	13	45	929	56.0	-201222.0	1635.0	66651.0
21	17	13	45	929	57.0	-202404.0	1631.0	66739.0
21	17	13	45	950	58.0	-203347.0	1614.0	66403.0
21	17	13	45	951	59.0	-204293.0	1610.0	66598.0
21	17	13	45	951	60.0	-204856.0	1611.0	66703.0
21	17	13	45	952	61.0	-205450.0	1613.0	66273.0
21	17	13	45	952	62.0	-206304.0	1628.0	66092.0
21	17	13	45	953	63.0	-207487.0	1620.0	66279.0
21	17	13	45	953	64.0	-208815.0	1602.0	66173.0
21	17	13	45	973	65.0	-210413.0	1609.0	66144.0
21	17	13	45	973	66.0	-212272.0	1598.0	66332.0
21	17	13	45	974	67.0	-214419.0	1601.0	66093.0
21	17	13	45	975	68.0	-216782.0	1604.0	66163.0
21	17	13	45	976	69.0	-219029.0	1609.0	66118.0
21	17	13	45	977	70.0	-220594.0	1608.0	65730.0
21	17	13	45	978	71.0	-221631.0	1599.0	65712.0
21	17	13	45	978	72.0	-221891.0	1598.0	65554.0
21	17	13	45	979	75.0	-220127.0	1610.0	65584.0
21	17	13	45	987	76.0	-218851.0	1599.0	65693.0
21	17	13	45	989	77.0	-218062.0	1609.0	65826.0
21	17	13	45	990	78.0	-218092.0	1613.0	65963.0
21	17	13	45	990	79.0	-218334.0	1619.0	65734.0
21	17	13	45	991	80.0	-218523.0	1616.0	65536.0
21	17	13	45	991	81.0	-219108.0	1597.0	65715.0
21	17	13	45	992	82.0	-219487.0	1593.0	65614.0
21	17	13	45	993	84.0	-218904.0	1572.0	65295.0
21	17	13	45	993	85.0	-219092.0	1584.0	65454.0
21	17	13	45	994	86.0	-218959.0	1588.0	65403.0
21	17	13	46	1	87.0	-218214.0	1572.0	65673.0
21	17	13	46	2	88.0	-217071.0	1542.0	65795.0
21	17	13	46	2	91.0	-212949.0	1465.0	65473.0
21	17	13	46	25	92.0	-210881.0	1454.0	65211.0
21	17	13	46	26	93.0	-208462.0	1463.0	65036.0
21	17	13	46	27	94.0	-205333.0	1448.0	65022.0
21	17	13	46	27	95.0	-201881.0	1425.0	65206.0
21	17	13	46	28	96.0	-197782.0	1396.0	65347.0
21	17	13	46	28	97.0	-193046.0	1377.0	65178.0
21	17	13	46	29	98.0	-188286.0	1358.0	65086.0
21	17	13	46	49	99.0	-182982.0	1346.0	64997.0
21	17	13	46	50	100.0	-177148.0	1337.0	65016.0
21	17	13	46	51	101.0	-171063.0	1320.0	64918.0
21	17	13	46	51	102.0	-164770.0	1301.0	64818.0
21	17	13	46	52	103.0	-158903.0	1286.0	64915.0
21	17	13	46	52	104.0	-153585.0	1265.0	64688.0
21	17	13	46	53	106.0	-145032.0	1234.0	64411.0
21	17	13	46	53	107.0	-142373.0	1226.0	64534.0
21	17	13	46	54	108.0	-140017.0	1213.0	63803.0
21	17	13	46	54	113.0	-137492.0	1139.0	63696.0
21	17	13	46	55	114.0	-139035.0	1091.0	63556.0
21	17	13	46	55	115.0	-141455.0	1044.0	63234.0
21	17	13	46	56	116.0	-144450.0	1014.0	63688.0
21	17	13	46	77	117.0	-148967.0	1011.0	63788.0
21	17	13	46	78	118.0	-154205.0	990.0	63328.0
21	17	13	46	78	119.0	-158800.0	957.0	63263.0
21	17	13	46	79	121.0	-168610.0	903.0	63381.0
21	17	13	46	79	122.0	-174204.0	876.0	63334.0
21	17	13	46	80	123.0	-180186.0	838.0	63339.0
21	17	13	46	81	124.0	-186794.0	798.0	63216.0
21	17	13	46	98	125.0	-192801.0	766.0	63194.0
21	17	13	46	99	126.0	-197994.0	736.0	63224.0
21	17	13	46	100	127.0	-202768.0	679.0	62908.0
21	17	13	46	100	128.0	-207092.0	627.0	62818.0
21	17	13	46	101	129.0	-211821.0	567.0	62745.0
21	17	13	46	101	130.0	-217237.0	546.0	62595.0
21	17	13	46	102	131.0	-223964.0	501.0	62772.0
21	17	13	46	122	132.0	-231959.0	454.0	62629.0
21	17	13	46	122	133.0	-241546.0	437.0	62561.0
21	17	13	46	123	143.0	-399962.0	98.0	62820.0
21	17	13	46	144	144.0	-410471.0	63.0	62768.0
21	17	13	46	145	145.0	-417839.0	21.0	63011.0
21	17	13	46	145	146.0	-421305.0	-17.0	62908.0
21	17	13	46	146	147.0	-420564.0	-39.0	62975.0
21	17	13	46	146	148.0	-415205.0	-79.0	63431.0
21	17	13	46	147	149.0	-405442.0	-106.0	63170.0
21	17	13	46	148	151.0	-373545.0	-144.0	62492.0
21	17	13	46	170	152.0	-352293.0	-178.0	62568.0
21	17	13	46	171	153.0	-327281.0	-216.0	62749.0
21	17	13	46	172	154.0	-298907.0	-227.0	62973.0
21	17	13	46	172	155.0	-268126.0	-257.0	62841.0
21	17	13	46	193	156.0	-236273.0	-279.0	62596.0
21	17	13	46	194	157.0	-203854.0	-317.0	62252.0
21	17	13	46	195	158.0	-170753.0	-325.0	62053.0
21	17	13	46	195	166.0	47131.0	-528.0	60797.0
21	17	13	46	196	173.0	100637.0	-656.0	59756.0
21	17	13	46	196	174.0	98928.0	-654.0	59439.0
21	17	13	46	197	175.0	95765.0	-662.0	59292.0
21	17	13	46	197	176.0	90089.0	-684.0	59433.0
21	17	13	46	198	177.0	82931.0	-716.0	59582.0
21	17	13	46	199	178.0	73454.0	-752.0	59073.0
21	17	13	46	199	179.0	62663.0	-782.0	58985.0
21	17	13	46	200	180.0	50324.0	-806.0	59304.0
21	17	13	46	200	188.0	-84967.0	-941.0	59159.0
21	17	13	46	220	189.0	-105252.0	-974.0	59114.0
21	17	13	46	221	190.0	-125380.0	-989.0	59187.0
21	17	13	46	221	191.0	-145466.0	-1034.0	59122.0
21	17	13	46	222	195.0	-223419.0	-1126.0	59948.0
21	17	13	46	223	196.0	-241131.0	-1174.0	59922.0
21	17	13	46	244	197.0	-257641.0	-1200.0	59733.0
21	17	13	46	244	198.0	-273790.0	-1213.0	59910.0
21	17	13	46	245	199.0	-288835.0	-1247.0	59944.0
21	17	13	46	246	200.0	-303130.0	-1276.0	59804.0
21	17	13	46	246	201.0	-316251.0	-1314.0	59753.0
21	17	13	46	247	203.0	-338556.0	-1356.0	59608.0
21	17	13	46	247	204.0	-347194.0	-1381.0	59628.0
21	17	13	46	248	205.0	-353925.0	-1411.0	59895.0
21	17	13	46	248	206.0	-359224.0	-1432.0	59615.0
21	17	13	46	249	207.0	-362061.0	-1463.0	59661.0
21	17	13	46	272	208.0	-363051.0	-1476.0	59889.0
21	17	13	46	272	210.0	-360372.0	-1526.0	59359.0
21	17	13	46	273	211.0	-356752.0	-1577.0	59504.0
21	17	13	46	274	212.0	-351997.0	-1603.0	59489.0
21	17	13	46	274	213.0	-345586.0	-1621.0	59236.0
21	17	13	46	275	218.0	-304214.0	-1765.0	59576.0
21	17	13	46	275	219.0	-294792.0	-1795.0	59390.0
21	17	13	46	276	220.0	-285783.0	-1805.0	59063.0
21	17	13	46	277	221.0	-277289.0	-1848.0	58739.0
21	17	13	46	277	225.0	-249325.0	-1960.0	58413.0
21	17	13	46	291	226.0	-243553.0	-1987.0	58700.0
21	17	13	46	291	227.0	-238924.0	-2019.0	58776.0
21	17	13	46	292	228.0	-234766.0	-2035.0	58398.0
21	17	13	46	293	229.0	-230679.0	-2059.0	58531.0
21	17	13	46	293	230.0	-227389.0	-2089.0	58206.0
21	17	13	46	294	231.0	-224685.0	-2111.0	57925.0
21	17	13	46	294	240.0	-224204.0	-2300.0	58177.0
21	17	13	46	295	241.0	-225054.0	-2331.0	58047.0
21	17	13	46	295	242.0	-226244.0	-2367.0	58444.0
21	17	13	46	296	243.0	-227354.0	-2388.0	58524.0
21	17	13	46	296	244.0	-228392.0	-2414.0	58389.0
21	17	13	46	297	245.0	-229281.0	-2452.0	58610.0
21	17	13	46	297	246.0	-230567.0	-2467.0	58599.0
21	17	13	46	298	247.0	-232128.0	-2478.0	58594.0
21	17	13	46	314	248.0	-233292.0	-2513.0	58435.0
21	17	13	46	314	249.0	-234581.0	-2543.0	58437.0
21	17	13	46	315	250.0	-236051.0	-2563.0	58524.0
21	17	13	46	316	251.0	-237128.0	-2591.0	58356.0
21	17	13	46	316	252.0	-237946.0	-2622.0	58318.0
21	17	13	46	317	253.0	-238533.0	-2637.0	58839.0
21	17	13	46	317	254.0	-239084.0	-2656.0	59319.0
21	17	13	46	318	255.0	-239581.0	-2668.0	59396.0
21	17	13	46	337	0.0	-240103.0	-2672.0	59243.0
21	17	13	46	337	1.0	-240505.0	-2684.0	59104.0
21	17	13	46	338	2.0	-240642.0	-2685.0	58788.0
21	17	13	46	339	3.0	-240351.0	-2705.0	58648.0
21	17	13	46	339	4.0	-239224.0	-2722.0	58353.0
21	17	13	46	340	5.0	-237799.0	-2751.0	58258.0
21	17	13	46	340	6.0	-236020.0	-2769.0	58727.0
21	17	13	46	341	7.0	-233956.0	-2791.0	59076.0
21	17	13	46	342	8.0	-231959.0	-2784.0	59414.0
21	17	13	46	342	9.0	-229603.0	-2784.0	59634.0
21	17	13	46	343	10.0	-226857.0	-2809.0	59530.0
21	17	13	46	343	11.0	-224582.0	-2842.0	59729.0
21	17	13	46	344	12.0	-222281.0	-2866.0	59802.0
21	17	13	46	344	13.0	-219478.0	-2879.0	59434.0
21	17	13	46	345	14.0	-216255.0	-2881.0	59119.0
21	17	13	46	346	15.0	-212696.0	-2907.0	59551.0
21	17	13	46	346	16.0	-208557.0	-2916.0	59595.0
21	17	13	46	347	17.0	-204250.0	-2926.0	59550.0
21	17	13	46	347	18.0	-200273.0	-2935.0	59754.0
21	17	13	46	348	19.0	-196861.0	-2941.0	59926.0
21	17	13	46	348	20.0	-193611.0	-2952.0	59668.0
21	17	13	46	349	21.0	-191337.0	-2977.0	59762.0
21	17	13	46	360	22.0	-189467.0	-2980.0	59811.0
21	17	13	46	361	23.0	-187408.0	-2995.0	59422.0
21	17	13	46	361	24.0	-186134.0	-3017.0	59366.0
21	17	13	46	362	25.0	-185729.0	-3025.0	59201.0
21	17	13	46	363	26.0	-185052.0	-3027.0	59264.0
21	17	13	46	363	27.0	-183950.0	-3047.0	59274.0
21	17	13	46	364	28.0	-182779.0	-3067.0	59520.0
21	17	13	46	364	29.0	-182130.0	-3096.0	59608.0
21	17	13	46	365	30.0	-181937.0	-3129.0	59683.0
21	17	13	46	385	31.0	-181689.0	-3151.0	59232.0
21	17	13	46	385	32.0	-181616.0	-3148.0	58718.0
21	17	13	46	386	33.0	-181800.0	-3171.0	59021.0
21	17	13	46	386	34.0	-182111.0	-3202.0	59043.0
21	17	13	46	387	35.0	-181954.0	-3225.0	58947.0
21	17	13	46	387	36.0	-182239.0	-3246.0	58751.0
21	17	13	46	388	37.0	-182535.0	-3264.0	59158.0
21	17	13	46	407	38.0	-183339.0	-3284.0	59122.0
21	17	13	46	408	39.0	-184136.0	-3290.0	59114.0
21	17	13	46	408	40.0	-184441.0	-3317.0	59468.0
21	17	13	46	409	41.0	-184294.0	-3336.0	59381.0
21	17	13	46	410	42.0	-184584.0	-3335.0	58860.0
21	17	13	46	410	43.0	-184874.0	-3355.0	58924.0
21	17	13	46	411	44.0	-185254.0	-3367.0	59149.0
21	17	13	46	411	45.0	-184978.0	-3412.0	58764.0
21	17	13	46	412	46.0	-184129.0	-3431.0	58618.0
21	17	13	46	412	47.0	-183221.0	-3420.0	58909.0
21	17	13	46	413	48.0	-182485.0	-3434.0	58892.0
21	17	13	46	414	49.0	-181769.0	-3457.0	58829.0
21	17	13	46	414	50.0	-180409.0	-3442.0	59204.0
21	17	13	46	415	51.0	-178566.0	-3454.0	59066.0
21	17	13	46	415	52.0	-176879.0	-3490.0	58763.0
21	17	13	46	416	53.0	-174254.0	-3509.0	58665.0
21	17	13	46	430	54.0	-171306.0	-3507.0	58522.0
21	17	13	46	430	55.0	-169038.0	-3526.0	58307.0
21	17	13	46	431	56.0	-167224.0	-3541.0	58914.0
21	17	13	46	431	57.0	-165592.0	-3544.0	59796.0
21	17	13	46	432	58.0	-164698.0	-3556.0	60262.0
21	17	13	46	433	59.0	-164304.0	-3567.0	60339.0
21	17	13	46	433	60.0	-164242.0	-3589.0	60562.0
21	17	13	46	453	61.0	-164789.0	-3604.0	60816.0
21	17	13	46	453	62.0	-165491.0	-3615.0	61276.0
21	17	13	46	454	63.0	-166084.0	-3642.0	62065.0
21	17	13	46	454	64.0	-165855.0	-3677.0	62136.0
21	17	13	46	455	65.0	-164772.0	-3676.0	61954.0
21	17	13	46	456	66.0	-163389.0	-3694.0	61338.0
21	17	13	46	456	67.0	-161721.0	-3726.0	60006.0
21	17	13	46	457	68.0	-159597.0	-3770.0	57744.0
21	17	13	46	457	69.0	-157148.0	-3776.0	53949.0
21	17	13	46	458	70.0	-155219.0	-3789.0	50697.0
21	17	13	46	458	71.0	-153142.0	-3811.0	48058.0
21	17	13	46	459	72.0	-152607.0	-3828.0	45948.0
21	17	13	46	459	73.0	-153833.0	-3848.0	44683.0
21	17	13	46	460	74.0	-156209.0	-3881.0	43228.0
21	17	13	46	461	75.0	-160346.0	-3916.0	41792.0
21	17	13	46	476	76.0	-166050.0	-3917.0	39334.0
21	17	13	46	477	77.0	-172369.0	-3929.0	38904.0
21	17	13	46	477	78.0	-178618.0	-3964.0	37267.0
21	17	13	46	478	79.0	-184399.0	-3997.0	34977.0
21	17	13	46	478	80.0	-189549.0	-3997.0	34890.0
21	17	13	46	479	81.0	-193212.0	-4017.0	34154.0
21	17	13	46	480	82.0	-195132.0	-4026.0	34876.0
21	17	13	46	498	83.0	-195066.0	-4032.0	38024.0
21	17	13	46	499	84.0	-193301.0	-4052.0	39683.0
21	17	13	46	500	85.0	-189601.0	-4074.0	42372.0
21	17	13	46	500	86.0	-184739.0	-4084.0	44999.0
21	17	13	46	501	87.0	-180995.0	-4099.0	46566.0
21	17	13	46	501	88.0	-178153.0	-4104.0	48289.0
21	17	13	46	502	89.0	-175277.0	-4124.0	49944.0
21	17	13	46	502	90.0	-173672.0	-4161.0	50904.0
21	17	13	46	503	91.0	-172116.0	-4169.0	51962.0
21	17	13	46	504	92.0	-167458.0	-4174.0	53919.0
21	17	13	46	504	93.0	-160984.0	-4196.0	55384.0
21	17	13	46	505	94.0	-156772.0	-4221.0	55716.0
21	17	13	46	505	95.0	-156734.0	-4222.0	55991.0
21	17	13	46	506	96.0	-159700.0	-4242.0	56257.0
21	17	13	46	506	97.0	-164451.0	-4271.0	56676.0
21	17	13	46	521	98.0	-170163.0	-4281.0	56913.0
21	17	13	46	522	99.0	-176793.0	-4287.0	56887.0
21	17	13	46	522	100.0	-183975.0	-4292.0	57143.0
21	17	13	46	523	101.0	-190504.0	-4319.0	57146.0
21	17	13	46	544	102.0	-194332.0	-4358.0	57014.0
21	17	13	46	545	103.0	-195671.0	-4360.0	56850.0
21	17	13	46	545	104.0	-196510.0	-4372.0	56939.0
21	17	13	46	546	105.0	-200694.0	-4401.0	56503.0
21	17	13	46	547	106.0	-207829.0	-4417.0	56666.0
21	17	13	46	547	107.0	-215668.0	-4441.0	57447.0
21	17	13	46	548	108.0	-219479.0	-4460.0	57413.0
21	17	13	46	548	109.0	-215118.0	-4460.0	57199.0
21	17	13	46	549	110.0	-205384.0	-4462.0	57183.0
21	17	13	46	549	111.0	-199721.0	-4480.0	57375.0
21	17	13	46	550	112.0	-184985.0	-4510.0	57209.0
21	17	13	46	551	113.0	-169694.0	-4521.0	57842.0
21	17	13	46	551	114.0	-165680.0	-4531.0	57548.0
21	17	13	46	552	115.0	-159911.0	-4546.0	57509.0
21	17	13	46	567	116.0	-149084.0	-4583.0	57766.0
21	17	13	46	567	117.0	-133886.0	-4592.0	58043.0
21	17	13	46	568	118.0	-138882.0	-4612.0	57914.0
21	17	13	46	569	119.0	-149161.0	-4646.0	57821.0
21	17	13	46	569	120.0	-156928.0	-4681.0	57744.0
21	17	13	46	570	121.0	-161388.0	-4712.0	57564.0
21	17	13	46	570	122.0	-178742.0	-4719.0	57544.0
21	17	13	46	571	123.0	-195016.0	-4750.0	57821.0
21	17	13	46	572	124.0	-195472.0	-4740.0	57644.0
21	17	13	46	572	125.0	-187761.0	-4762.0	57640.0
21	17	13	46	589	126.0	-187700.0	-4789.0	57892.0
21	17	13	46	589	127.0	-194871.0	-4815.0	57878.0
21	17	13	46	590	128.0	-185427.0	-4817.0	58085.0
21	17	13	46	591	129.0	-172317.0	-4832.0	58421.0
21	17	13	46	591	130.0	-165449.0	-4828.0	58407.0
21	17	13	46	592	131.0	-175198.0	-4847.0	58477.0
21	17	13	46	592	132.0	-168329.0	-4855.0	58528.0
21	17	13	46	593	133.0	-159036.0	-4861.0	58361.0
21	17	13	46	612	134.0	-150621.0	-4876.0	58187.0
21	17	13	46	613	135.0	-162946.0	-4887.0	58224.0
21	17	13	46	613	136.0	-162582.0	-4894.0	58516.0
21	17	13	46	614	137.0	-157401.0	-4907.0	58503.0
21	17	13	46	614	138.0	-151205.0	-4911.0	58928.0
21	17	13	46	615	139.0	-162076.0	-4919.0	58823.0
21	17	13	46	616	140.0	-171820.0	-4940.0	58670.0
21	17	13	46	616	141.0	-170454.0	-4948.0	58879.0
21	17	13	46	617	142.0	-170399.0	-4963.0	59063.0
21	17	13	46	617	143.0	-174794.0	-4982.0	58889.0
21	17	13	46	634	144.0	-188222.0	-4985.0	58462.0
21	17	13	46	635	145.0	-192387.0	-4988.0	59086.0
21	17	13	46	636	146.0	-194171.0	-5001.0	59027.0
21	17	13	46	636	147.0	-196260.0	-5017.0	58917.0
21	17	13	46	637	148.0	-202145.0	-5019.0	59320.0
21	17	13	46	637	149.0	-208692.0	-5049.0	59491.0
21	17	13	46	638	150.0	-210502.0	-5044.0	59843.0
21	17	13	46	657	151.0	-211591.0	-5047.0	59631.0
21	17	13	46	658	152.0	-213876.0	-5074.0	59770.0
21	17	13	46	658	153.0	-217705.0	-5102.0	59596.0
21	17	13	46	659	154.0	-221264.0	-5106.0	59801.0
21	17	13	46	659	155.0	-224405.0	-5112.0	59856.0
21	17	13	46	660	156.0	-228307.0	-5116.0	59616.0
21	17	13	46	661	157.0	-233312.0	-5112.0	59773.0
21	17	13	46	661	158.0	-238791.0	-5134.0	59822.0
21	17	13	46	679	159.0	-243745.0	-5131.0	60081.0
21	17	13	46	680	164.0	-254902.0	-5179.0	60438.0
21	17	13	46	704	165.0	-253407.0	-5198.0	60239.0
21	17	13	46	705	166.0	-250816.0	-5213.0	60489.0
21	17	13	46	705	167.0	-247444.0	-5222.0	60938.0
21	17	13	46	706	168.0	-243580.0	-5240.0	60883.0
21	17	13	46	707	169.0	-239043.0	-5241.0	61124.0
21	17	13	46	707	171.0	-231277.0	-5232.0	61269.0
21	17	13	46	708	172.0	-228430.0	-5241.0	61192.0
21	17	13	46	708	173.0	-225922.0	-5232.0	61568.0
21	17	13	46	709	174.0	-224263.0	-5224.0	61689.0
21	17	13	46	710	175.0	-223429.0	-5229.0	61699.0
21	17	13	46	710	176.0	-222736.0	-5239.0	62328.0
21	17	13	46	711	177.0	-221587.0	-5244.0	62709.0
21	17	13	46	711	178.0	-220145.0	-5212.0	62481.0
21	17	13	46	712	179.0	-218292.0	-5197.0	62694.0
21	17	13	46	728	187.0	-193047.0	-4997.0	64683.0
21	17	13	46	728	194.0	-175152.0	-4570.0	65187.0
21	17	13	46	729	195.0	-170461.0	-4502.0	65715.0
21	17	13	46	729	196.0	-166194.0	-4408.0	65606.0
21	17	13	46	730	197.0	-163379.0	-4336.0	65787.0
21	17	13	46	750	198.0	-160459.0	-4252.0	66010.0
21	17	13	46	751	199.0	-159135.0	-4167.0	65803.0
21	17	13	46	752	200.0	-158448.0	-4079.0	65574.0
21	17	13	46	753	201.0	-159924.0	-3985.0	65644.0
21	17	13	46	753	202.0	-163051.0	-3895.0	65834.0
21	17	13	46	754	203.0	-167584.0	-3803.0	65518.0
21	17	13	46	755	204.0	-173025.0	-3683.0	65219.0
21	17	13	46	755	205.0	-179007.0	-3568.0	65278.0
21	17	13	46	756	206.0	-184531.0	-3448.0	65227.0
21	17	13	46	756	207.0	-189499.0	-3334.0	65070.0
21	17	13	46	757	208.0	-195006.0	-3211.0	65652.0
21	17	13	46	758	209.0	-201822.0	-3100.0	65711.0
21	17	13	46	758	210.0	-208660.0	-2985.0	65462.0
21	17	13	46	759	211.0	-212504.0	-2847.0	65179.0
21	17	13	46	760	212.0	-216355.0	-2694.0	65198.0
21	17	13	46	760	213.0	-228113.0	-2575.0	65109.0
21	17	13	46	761	217.0	-253864.0	-2061.0	63754.0
21	17	13	46	761	218.0	-256474.0	-1942.0	63591.0
21	17	13	46	762	219.0	-245880.0	-1800.0	63228.0
21	17	13	46	763	220.0	-240987.0	-1662.0	62961.0
21	17	13	46	763	221.0	-256019.0	-1532.0	62389.0
21	17	13	46	764	222.0	-251931.0	-1404.0	61864.0
21	17	13	46	764	223.0	-238832.0	-1282.0	61850.0
21	17	13	46	782	224.0	-231249.0	-1147.0	61266.0
21	17	13	46	783	225.0	-243933.0	-1029.0	60894.0
21	17	13	46	783	226.0	-238607.0	-876.0	60533.0
21	17	13	46	784	227.0	-225392.0	-757.0	60679.0
21	17	13	46	784	228.0	-216109.0	-642.0	60055.0
21	17	13	46	785	229.0	-227569.0	-517.0	59703.0
21	17	13	46	786	230.0	-224167.0	-379.0	59386.0
21	17	13	46	786	231.0	-212146.0	-236.0	59077.0
21	17	13	46	787	232.0	-200871.0	-116.0	58878.0
21	17	13	46	787	233.0	-210108.0	19.0	58618.0
21	17	13	46	788	234.0	-209409.0	132.0	58157.0
21	17	13	46	789	235.0	-197539.0	226.0	57896.0
21	17	13	46	789	236.0	-185140.0	339.0	57940.0
21	17	13	46	797	237.0	-191029.0	457.0	58039.0
21	17	13	46	797	238.0	-196251.0	568.0	57881.0
21	17	13	46	798	239.0	-187628.0	673.0	57821.0
21	17	13	46	799	240.0	-178108.0	783.0	58079.0
21	17	13	46	799	241.0	-181074.0	894.0	57948.0
21	17	13	46	800	242.0	-192933.0	974.0	57061.0
21	17	13	46	800	243.0	-188675.0	1058.0	57274.0
21	17	13	46	820	244.0	-183343.0	1160.0	57306.0
21	17	13	46	821	245.0	-181683.0	1264.0	57191.0
21	17	13	46	822	246.0	-197926.0	1338.0	57419.0
21	17	13	46	822	247.0	-198238.0	1400.0	57523.0
21	17	13	46	844	248.0	-196726.0	1498.0	57452.0
21	17	13	46	844	249.0	-192866.0	1563.0	57486.0
21	17	13	46	845	250.0	-210750.0	1641.0	57706.0
21	17	13	46	845	251.0	-218746.0	1709.0	57766.0
21	17	13	46	846	252.0	-220971.0	1758.0	57478.0
21	17	13	46	847	253.0	-218270.0	1804.0	57546.0
21	17	13	46	847	254.0	-230093.0	1854.0	57511.0
21	17	13	46	848	255.0	-241582.0	1912.0	57606.0
21	17	13	46	848	0.0	-237729.0	1953.0	58053.0
21	17	13	46	849	1.0	-230958.0	1988.0	57896.0
21	17	13	46	849	2.0	-232612.0	2038.0	58024.0
21	17	13	46	850	3.0	-249101.0	2083.0	58219.0
21	17	13	46	850	4.0	-250127.0	2130.0	58183.0
21	17	13	46	851	5.0	-246531.0	2170.0	58223.0
21	17	13	46	866	6.0	-237889.0	2210.0	58227.0
21	17	13	46	867	7.0	-247399.0	2258.0	58128.0
21	17	13	46	867	8.0	-242836.0	2295.0	57979.0
21	17	13	46	889	9.0	-234119.0	2352.0	58124.0
21	17	13	46	890	10.0	-221132.0	2376.0	58178.0
21	17	13	46	890	11.0	-227397.0	2397.0	58348.0
21	17	13	46	891	12.0	-226014.0	2432.0	58798.0
21	17	13	46	891	13.0	-216448.0	2462.0	58669.0
21	17	13	46	892	14.0	-203601.0	2481.0	58196.0
21	17	13	46	892	15.0	-207164.0	2508.0	58576.0
21	17	13	46	893	16.0	-215887.0	2526.0	59114.0
21	17	13	46	893	17.0	-212853.0	2549.0	58716.0
21	17	13	46	894	18.0	-208217.0	2574.0	58569.0
21	17	13	46	895	19.0	-211216.0	2591.0	58834.0
21	17	13	46	895	20.0	-226916.0	2611.0	58666.0
21	17	13	46	896	21.0	-225785.0	2618.0	58978.0
21	17	13	46	896	22.0	-221752.0	2650.0	59210.0
21	17	13	46	913	23.0	-217461.0	2676.0	59142.0
21	17	13	46	914	24.0	-230247.0	2664.0	58901.0
21	17	13	46	914	28.0	-215424.0	2704.0	58752.0
21	17	13	46	915	29.0	-211297.0	2708.0	59134.0
21	17	13	46	915	30.0	-202426.0	2741.0	59265.0
21	17	13	46	916	31.0	-190672.0	2768.0	59320.0
21	17	13	46	916	32.0	-197508.0	2771.0	59407.0
21	17	13	46	917	33.0	-198174.0	2800.0	59056.0
21	17	13	46	918	34.0	-191421.0	2812.0	58908.0
21	17	13	46	918	35.0	-183908.0	2846.0	59039.0
21	17	13	46	919	36.0	-192214.0	2863.0	58926.0
21	17	13	46	919	37.0	-198761.0	2861.0	59262.0
21	17	13	46	947	38.0	-194410.0	2851.0	59123.0
21	17	13	46	947	39.0	-189346.0	2856.0	58974.0
21	17	13	46	948	40.0	-196520.0	2854.0	59051.0
21	17	13	46	949	41.0	-204936.0	2855.0	59307.0
21	17	13	46	949	43.0	-195768.0	2857.0	59073.0
21	17	13	46	950	44.0	-201967.0	2852.0	59121.0
21	17	13	46	950	45.0	-209660.0	2848.0	58824.0
21	17	13	46	960	46.0	-202832.0	2850.0	58566.0
21	17	13	46	960	47.0	-198754.0	2867.0	58643.0
21	17	13	46	961	48.0	-205729.0	2874.0	58720.0
21	17	13	46	962	49.0	-211138.0	2861.0	58718.0
21	17	13	46	962	50.0	-204091.0	2851.0	58788.0
21	17	13	46	963	51.0	-201896.0	2861.0	58955.0
21	17	13	46	982	52.0	-210941.0	2867.0	58909.0
21	17	13	46	982	53.0	-213217.0	2855.0	58983.0
21	17	13	46	983	58.0	-204911.0	2831.0	58647.0
21	17	13	46	984	65.0	-204244.0	2747.0	59223.0
21	17	13	46	984	66.0	-204944.0	2728.0	59278.0
21	17	13	46	985	67.0	-211565.0	2739.0	59126.0
21	17	13	46	985	68.0	-205805.0	2730.0	59299.0
21	17	13	46	986	69.0	-200080.0	2713.0	59256.0
21	17	13	46	987	70.0	-205637.0	2694.0	59373.0
21	17	13	46	987	71.0	-207671.0	2666.0	59504.0
21	17	13	46	988	73.0	-200089.0	2621.0	59313.0
21	17	13	46	988	74.0	-206659.0	2609.0	59308.0
21	17	13	46	989	75.0	-203497.0	2592.0	59324.0
21	17	13	46	989	76.0	-198477.0	2573.0	59091.0
21	17	13	46	990	77.0	-202619.0	2564.0	58764.0
21	17	13	46	991	78.0	-205505.0	2514.0	58976.0
21	17	13	46	991	79.0	-199826.0	2479.0	59567.0
21	17	13	46	992	80.0	-198532.0	2489.0	59971.0
21	17	13	46	992	81.0	-204375.0	2462.0	59609.0
21	17	13	46	993	82.0	-203811.0	2441.0	59867.0
21	17	13	46	993	83.0	-199258.0	2430.0	60023.0
21	17	13	46	994	84.0	-201954.0	2423.0	59806.0
21	17	13	46	994	85.0	-206477.0	2421.0	59943.0
21	17	13	46	995	86.0	-203336.0	2397.0	59826.0
21	17	13	46	996	87.0	-200786.0	2389.0	59359.0
21	17	13	47	7	88.0	-204732.0	2374.0	59764.0
21	17	13	47	8	89.0	-206149.0	2372.0	60038.0
21	17	13	47	9	90.0	-202196.0	2339.0	60002.0
21	17	13	47	9	91.0	-201658.0	2314.0	59897.0
21	17	13	47	10	92.0	-205446.0	2306.0	59849.0
21	17	13	47	10	93.0	-204592.0	2293.0	59698.0
21	17	13	47	11	94.0	-201773.0	2279.0	59683.0
21	17	13	47	30	95.0	-203383.0	2271.0	59352.0
21	17	13	47	31	96.0	-205228.0	2252.0	59420.0
21	17	13	47	31	97.0	-202401.0	2251.0	59099.0
21	17	13	47	32	98.0	-201502.0	2242.0	59010.0
21	17	13	47	32	99.0	-204078.0	2229.0	59148.0
21	17	13	47	33	100.0	-204017.0	2214.0	59366.0
21	17	13	47	33	101.0	-201710.0	2205.0	59153.0
21	17	13	47	34	102.0	-202342.0	2196.0	59226.0
21	17	13	47	34	103.0	-203417.0	2188.0	59065.0
21	17	13	47	35	104.0	-201772.0	2176.0	59065.0
21	17	13	47	36	105.0	-200190.0	2174.0	58876.0
21	17	13	47	37	106.0	-200318.0	2214.0	58701.0
21	17	13	47	37	107.0	-199333.0	2223.0	58871.0
21	17	13	47	38	108.0	-197256.0	2201.0	58853.0
21	17	13	47	38	109.0	-196505.0	2193.0	58491.0
21	17	13	47	39	110.0	-196399.0	2212.0	58563.0
21	17	13	47	53	111.0	-195708.0	2203.0	59109.0
21	17	13	47	53	112.0	-194996.0	2193.0	58722.0
21	17	13	47	54	113.0	-194974.0	2199.0	58413.0
21	17	13	47	54	114.0	-194957.0	2189.0	58347.0
21	17	13	47	55	115.0	-195102.0	2186.0	58249.0
21	17	13	47	55	116.0	-195187.0	2173.0	58339.0
21	17	13	47	56	117.0	-195140.0	2164.0	58791.0
21	17	13	47	75	118.0	-195117.0	2151.0	58831.0
21	17	13	47	76	119.0	-194777.0	2139.0	58620.0
21	17	13	47	76	120.0	-195035.0	2125.0	58456.0
21	17	13	47	77	121.0	-195069.0	2128.0	58651.0
21	17	13	47	77	122.0	-195094.0	2123.0	58974.0
21	17	13	47	78	123.0	-194991.0	2106.0	58776.0
21	17	13	47	78	124.0	-195174.0	2082.0	58576.0
21	17	13	47	79	125.0	-195669.0	2079.0	58469.0
21	17	13	47	79	126.0	-196396.0	2078.0	58374.0
21	17	13	47	97	127.0	-196546.0	2073.0	58437.0
21	17	13	47	98	128.0	-196466.0	2072.0	58657.0
21	17	13	47	98	129.0	-196627.0	2061.0	58632.0
21	17	13	47	99	130.0	-196484.0	2033.0	58585.0
21	17	13	47	100	131.0	-196556.0	2037.0	58536.0
21	17	13	47	100	132.0	-196838.0	2029.0	58553.0
21	17	13	47	101	133.0	-197116.0	2028.0	58627.0
21	17	13	47	101	134.0	-197381.0	2024.0	58408.0
21	17	13	47	102	135.0	-197831.0	2009.0	58051.0
21	17	13	47	102	136.0	-197964.0	2007.0	58111.0
21	17	13	47	120	137.0	-197686.0	1991.0	57791.0
21	17	13	47	121	138.0	-197542.0	1984.0	57813.0
21	17	13	47	122	139.0	-197315.0	1967.0	58054.0
21	17	13	47	122	140.0	-196910.0	1956.0	58118.0
21	17	13	47	123	141.0	-196319.0	1924.0	57708.0
21	17	13	47	124	142.0	-195818.0	1909.0	57924.0
21	17	13	47	124	143.0	-195309.0	1907.0	57679.0
21	17	13	47	146	144.0	-195077.0	1881.0	57388.0
21	17	13	47	147	145.0	-195284.0	1856.0	57631.0
21	17	13	47	147	146.0	-195541.0	1827.0	57546.0
21	17	13	47	148	147.0	-195886.0	1813.0	57083.0
21	17	13	47	148	148.0	-196575.0	1802.0	57079.0
21	17	13	47	149	149.0	-197221.0	1776.0	57473.0
21	17	13	47	169	150.0	-197954.0	1768.0	57405.0
21	17	13	47	169	151.0	-198891.0	1753.0	56972.0
21	17	13	47	170	152.0	-199789.0	1724.0	57193.0
21	17	13	47	170	153.0	-200673.0	1693.0	57446.0
21	17	13	47	171	154.0	-201731.0	1661.0	57094.0
21	17	13	47	171	155.0	-202758.0	1656.0	57249.0
21	17	13	47	172	156.0	-203722.0	1644.0	57470.0
21	17	13	47	173	157.0	-204642.0	1626.0	57291.0
21	17	13	47	173	158.0	-205537.0	1576.0	57074.0
21	17	13	47	174	159.0	-206207.0	1540.0	57239.0
21	17	13	47	174	160.0	-206797.0	1531.0	57126.0
21	17	13	47	175	163.0	-207921.0	1411.0	57018.0
21	17	13	47	175	164.0	-208254.0	1389.0	56764.0
21	17	13	47	176	165.0	-208282.0	1364.0	56746.0
21	17	13	47	176	166.0	-208830.0	1324.0	56640.0
21	17	13	47	177	170.0	-214450.0	1202.0	56461.0
21	17	13	47	191	171.0	-216403.0	1158.0	56644.0
21	17	13	47	215	172.0	-218092.0	1132.0	56818.0
21	17	13	47	215	173.0	-219557.0	1111.0	56714.0
21	17	13	47	216	174.0	-220710.0	1078.0	56673.0
21	17	13	47	217	175.0	-221824.0	1051.0	56728.0
21	17	13	47	217	176.0	-223274.0	1008.0	56538.0
21	17	13	47	237	177.0	-224650.0	980.0	56671.0
21	17	13	47	237	178.0	-226137.0	954.0	56676.0
21	17	13	47	238	179.0	-227537.0	906.0	56753.0
21	17	13	47	238	180.0	-228663.0	854.0	56579.0
21	17	13	47	239	181.0	-229304.0	819.0	56810.0
21	17	13	47	240	182.0	-229202.0	771.0	56748.0
21	17	13	47	240	183.0	-228719.0	733.0	56846.0
21	17	13	47	261	184.0	-227877.0	684.0	56886.0
21	17	13	47	261	185.0	-226775.0	645.0	56841.0
21	17	13	47	262	186.0	-224955.0	604.0	56568.0
21	17	13	47	262	187.0	-223099.0	578.0	56834.0
21	17	13	47	263	193.0	-209386.0	324.0	56179.0
21	17	13	47	264	194.0	-207398.0	301.0	56146.0
21	17	13	47	264	195.0	-205522.0	263.0	55987.0
21	17	13	47	265	196.0	-204179.0	213.0	55893.0
21	17	13	47	265	197.0	-202746.0	168.0	55814.0
21	17	13	47	266	208.0	-186322.0	-373.0	55439.0
21	17	13	47	266	209.0	-185517.0	-413.0	55648.0
21	17	13	47	267	210.0	-184816.0	-437.0	55625.0
21	17	13	47	284	211.0	-184587.0	-481.0	55228.0
21	17	13	47	307	212.0	-184814.0	-553.0	55441.0
21	17	13	47	307	213.0	-184942.0	-586.0	55628.0
21	17	13	47	308	214.0	-185002.0	-633.0	55245.0
21	17	13	47	308	215.0	-185297.0	-689.0	55310.0
21	17	13	47	309	216.0	-186031.0	-737.0	55261.0
21	17	13	47	310	217.0	-186419.0	-781.0	55153.0
21	17	13	47	310	218.0	-186666.0	-802.0	54965.0
21	17	13	47	311	219.0	-186452.0	-857.0	55358.0
21	17	13	47	311	220.0	-185906.0	-914.0	55006.0
21	17	13	47	312	223.0	-183331.0	-1029.0	55000.0
21	17	13	47	312	224.0	-182284.0	-1069.0	54941.0
21	17	13	47	313	225.0	-181447.0	-1117.0	55001.0
21	17	13	47	313	226.0	-180791.0	-1153.0	54846.0
21	17	13	47	314	227.0	-180528.0	-1201.0	54628.0
21	17	13	47	329	228.0	-180642.0	-1232.0	55076.0
21	17	13	47	330	230.0	-180573.0	-1278.0	55021.0
21	17	13	47	331	238.0	-180432.0	-1538.0	54949.0
21	17	13	47	331	239.0	-180518.0	-1557.0	55106.0
21	17	13	47	332	240.0	-181006.0	-1579.0	55214.0
21	17	13	47	332	241.0	-181901.0	-1605.0	55419.0
21	17	13	47	333	242.0	-183106.0	-1631.0	55025.0
21	17	13	47	353	243.0	-184300.0	-1667.0	54984.0
21	17	13	47	353	244.0	-185416.0	-1675.0	55324.0
21	17	13	47	354	245.0	-186559.0	-1712.0	54914.0
21	17	13	47	354	246.0	-187643.0	-1747.0	54804.0
21	17	13	47	355	247.0	-188394.0	-1772.0	54828.0
21	17	13	47	356	248.0	-189244.0	-1796.0	55219.0
21	17	13	47	356	249.0	-189578.0	-1815.0	55208.0
21	17	13	47	379	250.0	-189790.0	-1863.0	55296.0
21	17	13	47	380	251.0	-189780.0	-1874.0	55363.0
21	17	13	47	380	252.0	-189952.0	-1891.0	54962.0
21	17	13	47	381	253.0	-190243.0	-1932.0	54781.0
21	17	13	47	381	254.0	-190630.0	-1949.0	55018.0
21	17	13	47	382	255.0	-191166.0	-1974.0	55027.0
21	17	13	47	383	0.0	-191582.0	-2007.0	54811.0
21	17	13	47	383	1.0	-191580.0	-2044.0	55031.0
21	17	13	47	384	2.0	-191333.0	-2054.0	55271.0
21	17	13	47	384	4.0	-190521.0	-2134.0	55478.0
21	17	13	47	385	5.0	-190103.0	-2167.0	55593.0
21	17	13	47	385	6.0	-189291.0	-2186.0	55388.0
21	17	13	47	386	7.0	-188387.0	-2209.0	55379.0
21	17	13	47	387	8.0	-187869.0	-2245.0	54958.0
21	17	13	47	401	9.0	-187286.0	-2271.0	55015.0
21	17	13	47	401	10.0	-186772.0	-2287.0	54789.0
21	17	13	47	402	19.0	-189286.0	-2506.0	54628.0
21	17	13	47	403	20.0	-189801.0	-2539.0	54649.0
21	17	13	47	403	21.0	-190421.0	-2562.0	54374.0
21	17	13	47	404	22.0	-191017.0	-2584.0	54854.0
21	17	13	47	404	23.0	-191472.0	-2616.0	55208.0
21	17	13	47	423	24.0	-192206.0	-2647.0	55171.0
21	17	13	47	424	25.0	-192478.0	-2678.0	55129.0
21	17	13	47	425	26.0	-192571.0	-2699.0	55448.0
21	17	13	47	426	27.0	-192046.0	-2722.0	54914.0
21	17	13	47	426	28.0	-191811.0	-2743.0	54441.0
21	17	13	47	427	29.0	-191463.0	-2762.0	54801.0
21	17	13	47	427	30.0	-191455.0	-2787.0	55044.0
21	17	13	47	428	31.0	-191561.0	-2822.0	54938.0
21	17	13	47	429	32.0	-191587.0	-2859.0	55129.0
21	17	13	47	429	34.0	-192226.0	-2932.0	55881.0
21	17	13	47	430	35.0	-192827.0	-2949.0	55776.0
21	17	13	47	430	36.0	-193544.0	-2971.0	55685.0
21	17	13	47	431	37.0	-194235.0	-2979.0	55644.0
21	17	13	47	446	38.0	-194531.0	-3021.0	55364.0
21	17	13	47	447	39.0	-194711.0	-3052.0	55338.0
21	17	13	47	448	40.0	-195104.0	-3082.0	55519.0
21	17	13	47	448	41.0	-195113.0	-3117.0	55528.0
21	17	13	47	449	42.0	-194899.0	-3154.0	55466.0
21	17	13	47	449	43.0	-194796.0	-3168.0	55391.0
21	17	13	47	450	44.0	-194752.0	-3191.0	55248.0
21	17	13	47	469	45.0	-194866.0	-3209.0	55532.0
21	17	13	47	470	46.0	-194841.0	-3235.0	55041.0
21	17	13	47	470	49.0	-194284.0	-3290.0	54778.0
21	17	13	47	471	50.0	-194294.0	-3326.0	54639.0
21	17	13	47	472	51.0	-194263.0	-3341.0	54923.0
21	17	13	47	472	52.0	-194513.0	-3361.0	55111.0
21	17	13	47	473	53.0	-195302.0	-3381.0	54723.0
21	17	13	47	474	54.0	-195974.0	-3402.0	54950.0
21	17	13	47	474	55.0	-196873.0	-3421.0	55107.0
21	17	13	47	475	56.0	-197996.0	-3434.0	54888.0
21	17	13	47	475	57.0	-198872.0	-3452.0	54854.0
21	17	13	47	476	58.0	-199809.0	-3457.0	54869.0
21	17	13	47	476	59.0	-200719.0	-3463.0	54571.0
21	17	13	47	477	60.0	-201717.0	-3476.0	54563.0
21	17	13	47	493	61.0	-202756.0	-3494.0	54941.0
21	17	13	47	494	62.0	-204086.0	-3524.0	55004.0
21	17	13	47	494	64.0	-206245.0	-3556.0	54634.0
21	17	13	47	495	65.0	-207169.0	-3579.0	55000.0
21	17	13	47	496	66.0	-207880.0	-3592.0	54961.0
21	17	13	47	496	67.0	-208313.0	-3606.0	54988.0
21	17	13	47	497	68.0	-208277.0	-3648.0	54787.0
21	17	13	47	497	69.0	-208166.0	-3681.0	54596.0
21	17	13	47	498	70.0	-207947.0	-3698.0	54584.0
21	17	13	47	499	71.0	-207422.0	-3719.0	54350.0
21	17	13	47	499	72.0	-206702.0	-3742.0	54403.0
21	17	13	47	500	73.0	-206128.0	-3755.0	54510.0
21	17	13	47	501	74.0	-205306.0	-3777.0	54473.0
21	17	13	47	501	75.0	-204382.0	-3803.0	54340.0
21	17	13	47	502	76.0	-203641.0	-3822.0	54492.0
21	17	13	47	502	77.0	-202876.0	-3846.0	54416.0
21	17	13	47	503	79.0	-203084.0	-3864.0	54351.0
21	17	13	47	504	80.0	-203946.0	-3909.0	54448.0
21	17	13	47	504	81.0	-204768.0	-3907.0	54431.0
21	17	13	47	505	82.0	-205358.0	-3927.0	55066.0
21	17	13	47	505	83.0	-206336.0	-3961.0	55842.0
21	17	13	47	506	84.0	-207433.0	-4001.0	55923.0
21	17	13	47	507	85.0	-208436.0	-4011.0	56237.0
21	17	13	47	507	86.0	-209259.0	-4027.0	56458.0
21	17	13	47	508	87.0	-209860.0	-4042.0	56678.0
21	17	13	47	516	88.0	-210580.0	-4064.0	57245.0
21	17	13	47	517	89.0	-211059.0	-4069.0	58006.0
21	17	13	47	518	90.0	-211257.0	-4094.0	58157.0
21	17	13	47	541	91.0	-211159.0	-4119.0	57621.0
21	17	13	47	542	92.0	-210859.0	-4128.0	57139.0
21	17	13	47	542	93.0	-210334.0	-4147.0	56210.0
21	17	13	47	543	94.0	-209686.0	-4156.0	52933.0
21	17	13	47	543	95.0	-209374.0	-4166.0	49219.0
21	17	13	47	544	96.0	-209282.0	-4196.0	46449.0
21	17	13	47	544	97.0	-209904.0	-4212.0	43878.0
21	17	13	47	545	98.0	-210896.0	-4217.0	41821.0
21	17	13	47	545	99.0	-212626.0	-4232.0	40138.0
21	17	13	47	546	100.0	-214866.0	-4266.0	38059.0
21	17	13	47	547	101.0	-217435.0	-4288.0	36127.0
21	17	13	47	547	102.0	-220212.0	-4324.0	35429.0
21	17	13	47	548	103.0	-222694.0	-4349.0	34553.0
21	17	13	47	548	104.0	-224779.0	-4386.0	31607.0
21	17	13	47	549	105.0	-226205.0	-4411.0	31238.0
21	17	13	47	549	106.0	-226654.0	-4422.0	30906.0
21	17	13	47	550	107.0	-226337.0	-4436.0	30224.0
21	17	13	47	550	108.0	-225016.0	-4454.0	32434.0
21	17	13	47	551	109.0	-222692.0	-4481.0	33983.0
21	17	13	47	563	110.0	-219781.0	-4501.0	36033.0
21	17	13	47	564	111.0	-216262.0	-4524.0	38234.0
21	17	13	47	565	112.0	-212330.0	-4541.0	40569.0
21	17	13	47	565	113.0	-207577.0	-4561.0	42516.0
21	17	13	47	566	114.0	-202219.0	-4582.0	44449.0
21	17	13	47	566	115.0	-196928.0	-4587.0	46101.0
21	17	13	47	567	116.0	-193849.0	-4604.0	47256.0
21	17	13	47	567	117.0	-191602.0	-4635.0	48621.0
21	17	13	47	586	118.0	-186429.0	-4655.0	50888.0
21	17	13	47	586	119.0	-179699.0	-4676.0	51874.0
21	17	13	47	587	120.0	-175124.0	-4699.0	52141.0
21	17	13	47	587	121.0	-174412.0	-4726.0	53095.0
21	17	13	47	609	122.0	-176479.0	-4769.0	53580.0
21	17	13	47	609	123.0	-180496.0	-4815.0	53464.0
21	17	13	47	610	124.0	-186407.0	-4840.0	53823.0
21	17	13	47	610	125.0	-193565.0	-4857.0	54196.0
21	17	13	47	611	126.0	-201111.0	-4877.0	54119.0
21	17	13	47	612	127.0	-207297.0	-4899.0	53959.0
21	17	13	47	612	128.0	-210632.0	-4934.0	53922.0
21	17	13	47	613	129.0	-210902.0	-4959.0	53474.0
21	17	13	47	613	130.0	-210418.0	-4979.0	53269.0
21	17	13	47	614	131.0	-212127.0	-5000.0	53558.0
21	17	13	47	614	132.0	-217168.0	-5026.0	53552.0
21	17	13	47	615	133.0	-223553.0	-5031.0	53653.0
21	17	13	47	615	134.0	-227670.0	-5047.0	53813.0
21	17	13	47	631	135.0	-228623.0	-5055.0	53864.0
21	17	13	47	632	136.0	-226454.0	-5054.0	53763.0
21	17	13	47	633	137.0	-221436.0	-5061.0	53988.0
21	17	13	47	633	138.0	-215693.0	-5079.0	53813.0
21	17	13	47	634	139.0	-210263.0	-5107.0	53714.0
21	17	13	47	634	140.0	-204729.0	-5137.0	53678.0
21	17	13	47	635	141.0	-198746.0	-5135.0	53994.0
21	17	13	47	654	142.0	-191554.0	-5123.0	54023.0
21	17	13	47	655	143.0	-184360.0	-5141.0	54244.0
21	17	13	47	655	144.0	-180172.0	-5148.0	54117.0
21	17	13	47	656	145.0	-180874.0	-5151.0	54030.0
21	17	13	47	656	146.0	-186061.0	-5166.0	54396.0
21	17	13	47	657	147.0	-193881.0	-5164.0	54126.0
21	17	13	47	657	148.0	-202016.0	-5157.0	53918.0
21	17	13	47	658	149.0	-208542.0	-5168.0	54033.0
21	17	13	47	659	150.0	-212336.0	-5172.0	54173.0
21	17	13	47	659	151.0	-213024.0	-5179.0	53928.0
21	17	13	47	660	152.0	-210547.0	-5197.0	53956.0
21	17	13	47	660	153.0	-205922.0	-5194.0	54292.0
21	17	13	47	661	154.0	-199447.0	-5204.0	54043.0
21	17	13	47	661	155.0	-191686.0	-5199.0	53970.0
21	17	13	47	662	156.0	-183940.0	-5174.0	54181.0
21	17	13	47	663	157.0	-176876.0	-5176.0	53749.0
21	17	13	47	663	158.0	-171034.0	-5210.0	53345.0
21	17	13	47	664	159.0	-166760.0	-5231.0	53497.0
21	17	13	47	664	160.0	-163960.0	-5245.0	53511.0
21	17	13	47	665	161.0	-162292.0	-5259.0	53189.0
21	17	13	47	665	162.0	-161394.0	-5269.0	53714.0
21	17	13	47	666	163.0	-161262.0	-5277.0	54136.0
21	17	13	47	666	164.0	-161571.0	-5301.0	53744.0
21	17	13	47	667	165.0	-162244.0	-5326.0	53449.0
21	17	13	47	668	166.0	-163153.0	-5332.0	53479.0
21	17	13	47	668	167.0	-164610.0	-5347.0	53502.0
21	17	13	47	669	168.0	-166397.0	-5361.0	53491.0
21	17	13	47	681	169.0	-168404.0	-5372.0	53454.0
21	17	13	47	682	170.0	-170506.0	-5382.0	53155.0
21	17	13	47	683	171.0	-172592.0	-5389.0	53454.0
21	17	13	47	683	172.0	-174681.0	-5407.0	53763.0
21	17	13	47	684	173.0	-177067.0	-5429.0	53574.0
21	17	13	47	684	174.0	-179739.0	-5457.0	53770.0
21	17	13	47	685	175.0	-182219.0	-5477.0	53816.0
21	17	13	47	685	176.0	-184497.0	-5499.0	53573.0
21	17	13	47	686	177.0	-186849.0	-5525.0	53563.0
21	17	13	47	706	178.0	-189181.0	-5544.0	53836.0
21	17	13	47	706	179.0	-191469.0	-5554.0	53729.0
21	17	13	47	707	180.0	-193488.0	-5570.0	53988.0
21	17	13	47	707	181.0	-195442.0	-5599.0	54324.0
21	17	13	47	708	182.0	-197491.0	-5622.0	54393.0
21	17	13	47	708	183.0	-199566.0	-5671.0	54439.0
21	17	13	47	709	184.0	-201492.0	-5706.0	55222.0
21	17	13	47	728	185.0	-203237.0	-5752.0	55431.0
21	17	13	47	729	186.0	-204708.0	-5771.0	55079.0
21	17	13	47	730	187.0	-205771.0	-5795.0	55250.0
21	17	13	47	730	188.0	-206369.0	-5842.0	55858.0
21	17	13	47	731	189.0	-206697.0	-5853.0	55929.0
21	17	13	47	731	190.0	-207153.0	-5882.0	56276.0
21	17	13	47	732	191.0	-207619.0	-5931.0	56711.0
21	17	13	47	732	192.0	-208297.0	-5979.0	56786.0
21	17	13	47	733	193.0	-208839.0	-5991.0	57105.0
21	17	13	47	733	194.0	-209267.0	-6008.0	57636.0
21	17	13	47	734	195.0	-209697.0	-6033.0	57696.0
21	17	13	47	751	196.0	-210000.0	-6074.0	57960.0
21	17	13	47	774	197.0	-210329.0	-6100.0	58329.0
21	17	13	47	775	198.0	-210638.0	-6124.0	58993.0
21	17	13	47	775	199.0	-210947.0	-6156.0	59239.0
21	17	13	47	776	200.0	-211321.0	-6189.0	59286.0
21	17	13	47	776	201.0	-211534.0	-6202.0	59584.0
21	17	13	47	777	202.0	-211714.0	-6246.0	60032.0
21	17	13	47	777	203.0	-211673.0	-6280.0	60118.0
21	17	13	47	778	204.0	-211654.0	-6306.0	60802.0
21	17	13	47	779	205.0	-211281.0	-6323.0	60961.0
21	17	13	47	779	206.0	-210861.0	-6324.0	61266.0
21	17	13	47	780	207.0	-210577.0	-6332.0	61865.0
21	17	13	47	780	208.0	-210519.0	-6339.0	61833.0
21	17	13	47	798	209.0	-210319.0	-6369.0	61949.0
21	17	13	47	798	210.0	-210172.0	-6387.0	62217.0
21	17	13	47	799	211.0	-210339.0	-6399.0	62378.0
21	17	13	47	799	212.0	-211016.0	-6419.0	62844.0
21	17	13	47	800	214.0	-212989.0	-6407.0	63372.0
21	17	13	47	801	215.0	-213881.0	-6418.0	63262.0
21	17	13	47	801	216.0	-214533.0	-6402.0	64172.0
21	17	13	47	802	217.0	-215013.0	-6400.0	64223.0
21	17	13	47	802	218.0	-215576.0	-6402.0	64038.0
21	17	13	47	803	219.0	-216123.0	-6359.0	64127.0
21	17	13	47	803	220.0	-216447.0	-6326.0	64386.0
21	17	13	47	804	221.0	-216691.0	-6296.0	64522.0
21	17	13	47	805	222.0	-217007.0	-6257.0	64816.0
21	17	13	47	805	223.0	-217199.0	-6212.0	64920.0
21	17	13	47	820	224.0	-217299.0	-6157.0	64719.0
21	17	13	47	821	225.0	-217323.0	-6128.0	64431.0
21	17	13	47	821	229.0	-216610.0	-5886.0	64896.0
21	17	13	47	822	230.0	-216247.0	-5799.0	64998.0
21	17	13	47	822	231.0	-215454.0	-5724.0	64818.0
21	17	13	47	823	232.0	-214563.0	-5636.0	64970.0
21	17	13	47	843	233.0	-213741.0	-5559.0	65134.0
21	17	13	47	844	234.0	-212594.0	-5466.0	64656.0
21	17	13	47	845	235.0	-211123.0	-5386.0	64328.0
21	17	13	47	845	236.0	-209727.0	-5294.0	64097.0
21	17	13	47	846	237.0	-208381.0	-5185.0	63864.0
21	17	13	47	846	238.0	-207310.0	-5057.0	63364.0
21	17	13	47	847	239.0	-206760.0	-4952.0	63047.0
21	17	13	47	848	240.0	-206362.0	-4838.0	62754.0
21	17	13	47	848	241.0	-206241.0	-4725.0	62244.0
21	17	13	47	849	242.0	-206228.0	-4619.0	62048.0
21	17	13	47	849	244.0	-206583.0	-4387.0	61326.0
21	17	13	47	850	245.0	-206570.0	-4256.0	60534.0
21	17	13	47	865	246.0	-206376.0	-4123.0	59996.0
21	17	13	47	866	247.0	-206319.0	-4006.0	59860.0
21	17	13	47	866	248.0	-206182.0	-3877.0	59541.0
21	17	13	47	867	249.0	-206191.0	-3737.0	58663.0
21	17	13	47	867	251.0	-206607.0	-3480.0	58091.0
21	17	13	47	868	252.0	-206555.0	-3349.0	57653.0
21	17	13	47	869	253.0	-206032.0	-3216.0	57444.0
21	17	13	47	890	254.0	-205497.0	-3087.0	57439.0
21	17	13	47	891	255.0	-205156.0	-2966.0	56979.0
21	17	13	47	892	3.0	-205548.0	-2460.0	55961.0
21	17	13	47	892	4.0	-205061.0	-2339.0	55570.0
21	17	13	47	893	5.0	-204568.0	-2241.0	55569.0
21	17	13	47	893	6.0	-203846.0	-2120.0	55902.0
21	17	13	47	894	7.0	-202746.0	-1999.0	55748.0
21	17	13	47	894	8.0	-200811.0	-1869.0	55671.0
21	17	13	47	895	9.0	-199366.0	-1765.0	55130.0
21	17	13	47	913	10.0	-197835.0	-1652.0	54991.0
21	17	13	47	914	11.0	-196272.0	-1542.0	54651.0
21	17	13	47	915	12.0	-195500.0	-1419.0	54301.0
21	17	13	47	915	13.0	-194929.0	-1334.0	54120.0
21	17	13	47	916	14.0	-194906.0	-1236.0	54082.0
21	17	13	47	916	15.0	-195400.0	-1144.0	53856.0
21	17	13	47	917	16.0	-196926.0	-1039.0	53892.0
21	17	13	47	936	17.0	-199363.0	-946.0	53888.0
21	17	13	47	937	18.0	-202352.0	-879.0	53754.0
21	17	13	47	937	19.0	-205750.0	-799.0	53629.0
21	17	13	47	938	20.0	-209671.0	-705.0	53430.0
21	17	13	47	938	21.0	-214332.0	-621.0	53356.0
21	17	13	47	939	22.0	-220312.0	-570.0	53703.0
21	17	13	47	939	23.0	-225972.0	-507.0	53544.0
21	17	13	47	940	25.0	-228762.0	-358.0	53555.0
21	17	13	47	941	26.0	-228769.0	-288.0	53676.0
21	17	13	47	941	32.0	-221216.0	67.0	52993.0
21	17	13	47	942	33.0	-213789.0	113.0	53266.0
21	17	13	47	942	34.0	-206864.0	158.0	53433.0
21	17	13	47	943	35.0	-200505.0	199.0	53130.0
21	17	13	47	943	36.0	-193932.0	238.0	53094.0
21	17	13	47	959	37.0	-187850.0	285.0	53403.0
21	17	13	47	959	38.0	-183479.0	316.0	53286.0
21	17	13	47	960	40.0	-181126.0	397.0	53119.0
21	17	13	47	961	41.0	-182122.0	429.0	53275.0
21	17	13	47	961	42.0	-184306.0	479.0	53035.0
21	17	13	47	962	43.0	-187034.0	496.0	53289.0
21	17	13	47	962	44.0	-190361.0	496.0	53268.0
21	17	13	47	982	45.0	-193899.0	521.0	53224.0
21	17	13	47	983	46.0	-197287.0	548.0	53549.0
21	17	13	47	983	47.0	-199995.0	568.0	53518.0
21	17	13	47	984	48.0	-201909.0	569.0	53162.0
21	17	13	47	985	49.0	-202951.0	586.0	53379.0
21	17	13	47	985	50.0	-202866.0	604.0	53439.0
21	17	13	47	986	51.0	-201551.0	626.0	53174.0
21	17	13	47	986	52.0	-199535.0	646.0	52912.0
21	17	13	47	987	53.0	-197105.0	663.0	52845.0
21	17	13	47	987	55.0	-191748.0	681.0	53093.0
21	17	13	47	988	56.0	-189321.0	681.0	53255.0
21	17	13	47	988	57.0	-187841.0	671.0	53052.0
21	17	13	47	989	58.0	-187116.0	669.0	52929.0
21	17	13	48	11	59.0	-187088.0	666.0	52761.0
21	17	13	48	12	60.0	-187757.0	671.0	52770.0
21	17	13	48	13	61.0	-189193.0	678.0	52768.0
21	17	13	48	14	62.0	-190644.0	679.0	52497.0
21	17	13	48	14	63.0	-192046.0	688.0	52303.0
21	17	13	48	15	64.0	-193215.0	663.0	52512.0
21	17	13	48	15	65.0	-194597.0	660.0	52944.0
21	17	13	48	16	66.0	-196284.0	643.0	52855.0
21	17	13	48	35	67.0	-197901.0	645.0	52468.0
21	17	13	48	36	70.0	-202395.0	632.0	52702.0
21	17	13	48	36	71.0	-203524.0	631.0	52804.0
21	17	13	48	37	72.0	-204437.0	626.0	53146.0
21	17	13	48	37	73.0	-205197.0	616.0	52876.0
21	17	13	48	38	74.0	-205264.0	581.0	52364.0
21	17	13	48	38	75.0	-204434.0	573.0	52602.0
21	17	13	48	58	76.0	-203441.0	581.0	53026.0
21	17	13	48	59	85.0	-194885.0	454.0	52092.0
21	17	13	48	59	86.0	-195115.0	424.0	51849.0
21	17	13	48	60	87.0	-195711.0	401.0	52016.0
21	17	13	48	60	88.0	-196580.0	408.0	51984.0
21	17	13	48	61	89.0	-197691.0	391.0	51798.0
21	17	13	48	61	90.0	-198996.0	369.0	52143.0
21	17	13	48	62	91.0	-200428.0	354.0	51848.0
21	17	13	48	63	92.0	-201678.0	324.0	51179.0
21	17	13	48	63	93.0	-202932.0	288.0	51457.0
21	17	13	48	64	94.0	-204026.0	257.0	51474.0
21	17	13	48	64	95.0	-204816.0	221.0	51590.0
21	17	13	48	65	96.0	-205264.0	197.0	51609.0
21	17	13	48	65	97.0	-205398.0	152.0	51818.0
21	17	13	48	66	98.0	-205580.0	119.0	51551.0
21	17	13	48	67	99.0	-205518.0	81.0	51561.0
21	17	13	48	67	100.0	-205197.0	48.0	51648.0
21	17	13	48	68	101.0	-204891.0	23.0	51328.0
21	17	13	48	68	102.0	-204461.0	-1.0	51345.0
21	17	13	48	81	103.0	-203907.0	-16.0	51574.0
21	17	13	48	82	104.0	-203108.0	-40.0	51476.0
21	17	13	48	82	105.0	-202261.0	-74.0	51437.0
21	17	13	48	83	106.0	-201277.0	-108.0	51793.0
21	17	13	48	84	107.0	-200407.0	-119.0	51744.0
21	17	13	48	84	108.0	-199767.0	-124.0	51591.0
21	17	13	48	85	109.0	-199262.0	-127.0	51469.0
21	17	13	48	85	110.0	-198586.0	-131.0	51259.0
21	17	13	48	86	111.0	-197844.0	-129.0	51263.0
21	17	13	48	87	112.0	-197223.0	-158.0	51214.0
21	17	13	48	87	113.0	-196701.0	-192.0	51438.0
21	17	13	48	88	114.0	-196437.0	-214.0	51430.0
21	17	13	48	88	115.0	-196327.0	-235.0	51331.0
21	17	13	48	89	116.0	-196136.0	-250.0	51164.0
21	17	13	48	89	117.0	-195627.0	-265.0	51179.0
21	17	13	48	90	118.0	-195049.0	-279.0	51283.0
21	17	13	48	90	119.0	-194439.0	-284.0	50980.0
21	17	13	48	91	120.0	-193842.0	-281.0	50708.0
21	17	13	48	92	121.0	-193447.0	-278.0	50814.0
21	17	13	48	92	122.0	-192700.0	-302.0	50986.0
21	17	13	48	105	123.0	-191903.0	-321.0	50353.0
21	17	13	48	105	124.0	-191614.0	-319.0	50511.0
21	17	13	48	106	125.0	-191455.0	-329.0	50720.0
21	17	13	48	106	126.0	-191202.0	-316.0	50641.0
21	17	13	48	107	127.0	-191264.0	-321.0	50261.0
21	17	13	48	108	128.0	-191576.0	-352.0	50389.0
21	17	13	48	108	129.0	-191513.0	-337.0	50519.0
21	17	13	48	109	130.0	-191687.0	-348.0	49971.0
21	17	13	48	109	131.0	-191930.0	-346.0	50107.0
21	17	13	48	127	132.0	-191796.0	-331.0	50083.0
21	17	13	48	128	133.0	-191302.0	-326.0	49606.0
21	17	13	48	128	134.0	-190792.0	-338.0	49998.0
21	17	13	48	129	135.0	-190354.0	-364.0	50408.0
21	17	13	48	130	136.0	-189804.0	-357.0	50268.0
21	17	13	48	130	137.0	-189171.0	-349.0	50008.0
21	17	13	48	131	138.0	-188606.0	-350.0	50153.0
21	17	13	48	131	139.0	-188571.0	-362.0	50047.0
21	17	13	48	150	140.0	-188823.0	-339.0	49959.0
21	17	13	48	151	141.0	-189444.0	-319.0	49744.0
21	17	13	48	151	142.0	-190429.0	-331.0	49578.0
21	17	13	48	152	143.0	-191595.0	-341.0	49490.0
21	17	13	48	153	144.0	-192889.0	-326.0	49706.0
21	17	13	48	153	145.0	-194089.0	-338.0	49680.0
21	17	13	48	173	146.0	-195151.0	-315.0	49308.0
21	17	13	48	174	147.0	-195892.0	-302.0	49316.0
21	17	13	48	175	148.0	-196566.0	-305.0	49415.0
21	17	13	48	176	149.0	-197388.0	-296.0	49268.0
21	17	13	48	176	150.0	-198224.0	-284.0	49415.0
21	17	13	48	177	151.0	-199032.0	-272.0	49031.0
21	17	13	48	178	152.0	-199597.0	-291.0	48889.0
21	17	13	48	178	153.0	-200185.0	-301.0	49105.0
21	17	13	48	179	154.0	-200916.0	-284.0	48998.0
21	17	13	48	179	155.0	-201624.0	-280.0	48894.0
21	17	13	48	180	156.0	-202342.0	-262.0	49244.0
21	17	13	48	180	157.0	-203085.0	-270.0	49328.0
21	17	13	48	181	158.0	-203668.0	-284.0	49311.0
21	17	13	48	182	159.0	-203984.0	-286.0	49227.0
21	17	13	48	196	160.0	-204111.0	-287.0	49603.0
21	17	13	48	197	161.0	-204042.0	-302.0	49162.0
21	17	13	48	197	162.0	-203981.0	-305.0	48629.0
21	17	13	48	198	163.0	-204509.0	-310.0	48966.0
21	17	13	48	198	164.0	-205944.0	-317.0	48751.0
21	17	13	48	199	165.0	-208056.0	-316.0	48869.0
21	17	13	48	200	166.0	-210492.0	-303.0	49040.0
21	17	13	48	218	167.0	-213067.0	-302.0	49383.0
21	17	13	48	219	168.0	-215496.0	-306.0	49096.0
21	17	13	48	220	169.0	-217256.0	-314.0	48979.0
21	17	13	48	220	170.0	-218494.0	-300.0	48992.0
21	17	13	48	221	171.0	-219096.0	-307.0	49054.0
21	17	13	48	222	172.0	-219176.0	-302.0	48627.0
21	17	13	48	222	173.0	-218941.0	-299.0	48651.0
21	17	13	48	223	174.0	-218787.0	-294.0	48844.0
21	17	13	48	223	175.0	-218370.0	-299.0	48816.0
21	17	13	48	224	176.0	-217829.0	-306.0	48800.0
21	17	13	48	225	177.0	-217160.0	-286.0	48656.0
21	17	13	48	225	178.0	-215449.0	-287.0	48398.0
21	17	13	48	226	179.0	-213494.0	-314.0	48443.0
21	17	13	48	226	180.0	-213638.0	-326.0	48373.0
21	17	13	48	241	181.0	-213427.0	-356.0	47809.0
21	17	13	48	241	182.0	-212527.0	-371.0	47908.0
21	17	13	48	242	183.0	-211127.0	-399.0	48199.0
21	17	13	48	243	184.0	-209346.0	-416.0	48236.0
21	17	13	48	243	185.0	-207602.0	-450.0	48278.0
21	17	13	48	244	186.0	-206091.0	-452.0	48206.0
21	17	13	48	244	187.0	-204881.0	-457.0	48005.0
21	17	13	48	266	188.0	-203679.0	-476.0	48220.0
21	17	13	48	273	189.0	-202857.0	-507.0	48079.0
21	17	13	48	275	190.0	-202131.0	-530.0	47933.0
21	17	13	48	276	191.0	-201632.0	-552.0	47963.0
21	17	13	48	276	192.0	-201617.0	-569.0	48031.0
21	17	13	48	277	193.0	-201812.0	-592.0	47977.0
21	17	13	48	278	194.0	-202386.0	-620.0	48116.0
21	17	13	48	278	195.0	-203405.0	-644.0	48096.0
21	17	13	48	279	196.0	-204761.0	-652.0	47943.0
21	17	13	48	279	197.0	-205675.0	-664.0	47936.0
21	17	13	48	280	198.0	-205759.0	-710.0	47890.0
21	17	13	48	280	199.0	-205937.0	-732.0	47931.0
21	17	13	48	281	200.0	-205781.0	-764.0	47665.0
21	17	13	48	282	201.0	-205214.0	-785.0	47791.0
21	17	13	48	282	202.0	-204255.0	-821.0	47757.0
21	17	13	48	283	203.0	-202872.0	-856.0	47502.0
21	17	13	48	283	205.0	-201552.0	-921.0	48119.0
21	17	13	48	284	206.0	-201637.0	-941.0	47947.0
21	17	13	48	284	207.0	-201888.0	-954.0	48103.0
21	17	13	48	285	208.0	-202144.0	-974.0	47981.0
21	17	13	48	285	209.0	-202358.0	-1022.0	47743.0
21	17	13	48	286	210.0	-202112.0	-1047.0	47630.0
21	17	13	48	287	211.0	-201369.0	-1054.0	47609.0
21	17	13	48	287	212.0	-200496.0	-1092.0	47346.0
21	17	13	48	288	213.0	-199275.0	-1134.0	47747.0
21	17	13	48	288	214.0	-197609.0	-1173.0	47574.0
21	17	13	48	289	215.0	-195605.0	-1203.0	47483.0
21	17	13	48	289	216.0	-193337.0	-1211.0	47710.0
21	17	13	48	290	217.0	-190984.0	-1245.0	47389.0
21	17	13	48	290	218.0	-188607.0	-1281.0	47478.0
21	17	13	48	298	219.0	-186215.0	-1316.0	47716.0
21	17	13	48	299	220.0	-183836.0	-1360.0	47560.0
21	17	13	48	300	221.0	-181482.0	-1374.0	47271.0
21	17	13	48	300	222.0	-179091.0	-1407.0	46946.0
21	17	13	48	301	223.0	-176639.0	-1442.0	47383.0
21	17	13	48	301	224.0	-173806.0	-1477.0	47602.0
21	17	13	48	302	225.0	-170881.0	-1489.0	47423.0
21	17	13	48	322	226.0	-168081.0	-1511.0	47662.0
21	17	13	48	323	227.0	-165653.0	-1564.0	47902.0
21	17	13	48	324	228.0	-163373.0	-1596.0	47355.0
21	17	13	48	324	229.0	-161225.0	-1604.0	47048.0
21	17	13	48	325	230.0	-159695.0	-1637.0	47531.0
21	17	13	48	325	231.0	-158275.0	-1677.0	47393.0
21	17	13	48	326	232.0	-157219.0	-1719.0	47126.0
21	17	13	48	326	233.0	-156629.0	-1746.0	47246.0
21	17	13	48	327	234.0	-156552.0	-1767.0	47383.0
21	17	13	48	327	235.0	-157282.0	-1799.0	47313.0
21	17	13	48	328	236.0	-158265.0	-1830.0	47518.0
21	17	13	48	329	237.0	-159738.0	-1850.0	47399.0
21	17	13	48	329	238.0	-161480.0	-1857.0	47008.0
21	17	13	48	345	239.0	-163277.0	-1888.0	47168.0
21	17	13	48	345	240.0	-165191.0	-1899.0	47188.0
21	17	13	48	346	241.0	-167376.0	-1916.0	46988.0
21	17	13	48	346	242.0	-169667.0	-1931.0	46524.0
21	17	13	48	347	243.0	-172052.0	-1972.0	46646.0
21	17	13	48	347	244.0	-174561.0	-2007.0	46733.0
21	17	13	48	348	245.0	-176694.0	-2044.0	46794.0
21	17	13	48	348	246.0	-178794.0	-2092.0	46666.0
21	17	13	48	349	247.0	-180735.0	-2097.0	46577.0
21	17	13	48	349	248.0	-182459.0	-2121.0	46594.0
21	17	13	48	350	249.0	-184202.0	-2149.0	46305.0
21	17	13	48	371	250.0	-185551.0	-2186.0	45867.0
21	17	13	48	372	251.0	-186929.0	-2242.0	45629.0
21	17	13	48	372	252.0	-188270.0	-2271.0	45568.0
21	17	13	48	373	253.0	-189249.0	-2322.0	45719.0
21	17	13	48	373	254.0	-190403.0	-2347.0	45976.0
21	17	13	48	374	255.0	-191694.0	-2369.0	45911.0
21	17	13	48	374	0.0	-192941.0	-2400.0	45749.0
21	17	13	48	375	1.0	-193987.0	-2433.0	45697.0
21	17	13	48	376	2.0	-194704.0	-2475.0	45989.0
21	17	13	48	376	3.0	-195250.0	-2506.0	45827.0
21	17	13	48	377	4.0	-196294.0	-2534.0	45585.0
21	17	13	48	377	5.0	-197366.0	-2556.0	45759.0
21	17	13	48	378	6.0	-198441.0	-2591.0	45531.0
21	17	13	48	379	7.0	-199920.0	-2618.0	44864.0
21	17	13	48	379	8.0	-201752.0	-2653.0	44680.0
21	17	13	48	380	9.0	-203734.0	-2700.0	45148.0
21	17	13	48	380	10.0	-205779.0	-2729.0	44986.0
21	17	13	48	381	11.0	-207740.0	-2761.0	45056.0
21	17	13	48	381	12.0	-209792.0	-2787.0	45492.0
21	17	13	48	401	13.0	-211124.0	-2817.0	45491.0
21	17	13	48	402	14.0	-211744.0	-2852.0	45436.0
21	17	13	48	403	15.0	-211759.0	-2856.0	45496.0
21	17	13	48	403	16.0	-211147.0	-2895.0	45446.0
21	17	13	48	404	17.0	-209965.0	-2936.0	45731.0
21	17	13	48	415	18.0	-208324.0	-2938.0	45858.0
21	17	13	48	416	19.0	-206328.0	-2970.0	45673.0
21	17	13	48	416	20.0	-204245.0	-2993.0	45544.0
21	17	13	48	417	21.0	-201709.0	-3032.0	45396.0
21	17	13	48	417	22.0	-199154.0	-3050.0	45487.0
21	17	13	48	418	23.0	-197094.0	-3087.0	45246.0
21	17	13	48	419	24.0	-195498.0	-3093.0	45084.0
21	17	13	48	419	25.0	-194489.0	-3105.0	45041.0
21	17	13	48	420	26.0	-193889.0	-3117.0	45039.0
21	17	13	48	438	27.0	-193637.0	-3154.0	44827.0
21	17	13	48	439	28.0	-193825.0	-3176.0	44831.0
21	17	13	48	439	29.0	-194915.0	-3205.0	44726.0
21	17	13	48	440	30.0	-196259.0	-3224.0	44984.0
21	17	13	48	441	31.0	-196864.0	-3247.0	44967.0
21	17	13	48	441	32.0	-197732.0	-3301.0	44812.0
21	17	13	48	442	33.0	-199113.0	-3301.0	44634.0
21	17	13	48	442	34.0	-200301.0	-3313.0	44681.0
21	17	13	48	443	35.0	-201602.0	-3380.0	44390.0
21	17	13	48	443	36.0	-202581.0	-3426.0	44411.0
21	17	13	48	444	37.0	-203535.0	-3437.0	44769.0
21	17	13	48	461	38.0	-204540.0	-3437.0	44721.0
21	17	13	48	462	39.0	-205574.0	-3477.0	44616.0
21	17	13	48	462	40.0	-206634.0	-3487.0	45083.0
21	17	13	48	463	41.0	-207436.0	-3487.0	45183.0
21	17	13	48	463	42.0	-207797.0	-3526.0	44938.0
21	17	13	48	464	43.0	-208096.0	-3546.0	44786.0
21	17	13	48	464	44.0	-208430.0	-3559.0	44957.0
21	17	13	48	465	45.0	-208593.0	-3572.0	44827.0
21	17	13	48	466	46.0	-208633.0	-3596.0	44715.0
21	17	13	48	466	47.0	-208731.0	-3612.0	45053.0
21	17	13	48	467	48.0	-208879.0	-3629.0	45012.0
21	17	13	48	467	49.0	-208628.0	-3655.0	44988.0
21	17	13	48	468	50.0	-208313.0	-3671.0	45036.0
21	17	13	48	485	51.0	-208329.0	-3694.0	45005.0
21	17	13	48	486	52.0	-208214.0	-3724.0	44902.0
21	17	13	48	487	53.0	-207592.0	-3754.0	44730.0
21	17	13	48	487	54.0	-207231.0	-3759.0	44365.0
21	17	13	48	488	55.0	-206595.0	-3762.0	44703.0
21	17	13	48	488	56.0	-205967.0	-3778.0	44634.0
21	17	13	48	509	57.0	-205512.0	-3789.0	44382.0
21	17	13	48	509	58.0	-204958.0	-3799.0	44492.0
21	17	13	48	510	59.0	-204473.0	-3819.0	44900.0
21	17	13	48	510	60.0	-204114.0	-3836.0	44740.0
21	17	13	48	511	61.0	-203911.0	-3829.0	44756.0
21	17	13	48	512	62.0	-203867.0	-3853.0	45120.0
21	17	13	48	512	63.0	-204548.0	-3857.0	45462.0
21	17	13	48	513	64.0	-205234.0	-3876.0	45986.0
21	17	13	48	513	65.0	-206019.0	-3901.0	46335.0
21	17	13	48	514	66.0	-207249.0	-3917.0	46570.0
21	17	13	48	514	67.0	-208703.0	-3929.0	46703.0
21	17	13	48	532	68.0	-209796.0	-3946.0	47515.0
21	17	13	48	533	69.0	-210979.0	-3974.0	48399.0
21	17	13	48	533	70.0	-212507.0	-4002.0	48684.0
21	17	13	48	534	71.0	-213521.0	-4019.0	48728.0
21	17	13	48	534	72.0	-214168.0	-4029.0	48400.0
21	17	13	48	535	73.0	-214912.0	-4042.0	47264.0
21	17	13	48	535	74.0	-215126.0	-4049.0	44818.0
21	17	13	48	536	75.0	-215105.0	-4059.0	41500.0
21	17	13	48	537	76.0	-215004.0	-4087.0	37826.0
21	17	13	48	537	77.0	-215396.0	-4131.0	35355.0
21	17	13	48	538	78.0	-216169.0	-4152.0	33198.0
21	17	13	48	538	79.0	-217174.0	-4179.0	31435.0
21	17	13	48	539	80.0	-218406.0	-4213.0	29139.0
21	17	13	48	539	81.0	-220186.0	-4259.0	26687.0
21	17	13	48	540	82.0	-222091.0	-4303.0	25701.0
21	17	13	48	541	83.0	-223591.0	-4328.0	25028.0
21	17	13	48	541	84.0	-225082.0	-4376.0	22968.0
21	17	13	48	542	85.0	-225864.0	-4395.0	21223.0
21	17	13	48	542	86.0	-226094.0	-4389.0	21353.0
21	17	13	48	543	87.0	-225941.0	-4401.0	20433.0
21	17	13	48	543	88.0	-224901.0	-4409.0	21720.0
21	17	13	48	544	89.0	-223134.0	-4396.0	24090.0
21	17	13	48	545	90.0	-220058.0	-4394.0	25287.0
21	17	13	48	545	91.0	-216386.0	-4411.0	27331.0
21	17	13	48	546	92.0	-212031.0	-4419.0	30006.0
21	17	13	48	555	93.0	-207368.0	-4406.0	32170.0
21	17	13	48	555	94.0	-202555.0	-4397.0	34161.0
21	17	13	48	556	95.0	-197374.0	-4432.0	35299.0
21	17	13	48	556	96.0	-192144.0	-4441.0	37080.0
21	17	13	48	557	97.0	-188282.0	-4462.0	38953.0
21	17	13	48	557	98.0	-187062.0	-4473.0	39832.0
21	17	13	48	558	99.0	-186295.0	-4471.0	41494.0
21	17	13	48	578	100.0	-183193.0	-4465.0	43356.0
21	17	13	48	578	101.0	-180075.0	-4487.0	44084.0
21	17	13	48	579	102.0	-181076.0	-4502.0	44167.0
21	17	13	48	580	103.0	-180597.0	-4522.0	44699.0
21	17	13	48	580	104.0	-181937.0	-4542.0	44995.0
21	17	13	48	601	105.0	-189771.0	-4544.0	44863.0
21	17	13	48	602	106.0	-199356.0	-4569.0	44957.0
21	17	13	48	602	107.0	-209593.0	-4597.0	45307.0
21	17	13	48	603	108.0	-217081.0	-4596.0	45556.0
21	17	13	48	604	109.0	-221129.0	-4616.0	45582.0
21	17	13	48	604	110.0	-222013.0	-4623.0	45626.0
21	17	13	48	605	111.0	-220424.0	-4631.0	45748.0
21	17	13	48	605	112.0	-218408.0	-4628.0	45839.0
21	17	13	48	606	113.0	-218091.0	-4667.0	46201.0
21	17	13	48	606	114.0	-217689.0	-4672.0	46113.0
21	17	13	48	607	115.0	-217016.0	-4672.0	45931.0
21	17	13	48	607	116.0	-215449.0	-4688.0	45991.0
21	17	13	48	608	117.0	-211529.0	-4713.0	46541.0
21	17	13	48	609	118.0	-206875.0	-4696.0	46756.0
21	17	13	48	609	119.0	-202407.0	-4744.0	47001.0
21	17	13	48	610	120.0	-197301.0	-4787.0	47184.0
21	17	13	48	610	121.0	-191239.0	-4782.0	47131.0
21	17	13	48	626	122.0	-184732.0	-4807.0	46898.0
21	17	13	48	627	123.0	-178068.0	-4804.0	46722.0
21	17	13	48	628	124.0	-172674.0	-4824.0	46756.0
21	17	13	48	628	125.0	-170753.0	-4866.0	46597.0
21	17	13	48	629	126.0	-173922.0	-4889.0	46778.0
21	17	13	48	630	127.0	-181426.0	-4889.0	46594.0
21	17	13	48	630	128.0	-191432.0	-4889.0	46877.0
21	17	13	48	631	129.0	-201429.0	-4904.0	47023.0
21	17	13	48	631	130.0	-209930.0	-4933.0	46800.0
21	17	13	48	632	131.0	-216615.0	-4947.0	46862.0
21	17	13	48	633	132.0	-220406.0	-4974.0	47207.0
21	17	13	48	633	133.0	-220594.0	-5003.0	47203.0
21	17	13	48	634	134.0	-217971.0	-5018.0	46919.0
21	17	13	48	634	135.0	-212814.0	-5034.0	47208.0
21	17	13	48	635	136.0	-205793.0	-5068.0	46998.0
21	17	13	48	647	137.0	-197579.0	-5081.0	46964.0
21	17	13	48	648	138.0	-188779.0	-5105.0	47398.0
21	17	13	48	648	139.0	-180248.0	-5131.0	47504.0
21	17	13	48	649	140.0	-172736.0	-5143.0	47007.0
21	17	13	48	649	141.0	-166433.0	-5159.0	47261.0
21	17	13	48	650	142.0	-161817.0	-5160.0	47313.0
21	17	13	48	651	143.0	-159310.0	-5206.0	47138.0
21	17	13	48	670	144.0	-158031.0	-5257.0	47081.0
21	17	13	48	671	145.0	-157577.0	-5287.0	47247.0
21	17	13	48	671	146.0	-158093.0	-5296.0	47405.0
21	17	13	48	672	147.0	-159282.0	-5313.0	47463.0
21	17	13	48	672	148.0	-160760.0	-5329.0	47358.0
21	17	13	48	673	149.0	-162805.0	-5353.0	47423.0
21	17	13	48	673	150.0	-165909.0	-5368.0	47609.0
21	17	13	48	674	151.0	-169517.0	-5384.0	47535.0
21	17	13	48	692	152.0	-173419.0	-5389.0	47584.0
21	17	13	48	693	153.0	-177944.0	-5402.0	47533.0
21	17	13	48	694	154.0	-182307.0	-5432.0	47349.0
21	17	13	48	694	155.0	-186563.0	-5466.0	47596.0
21	17	13	48	695	156.0	-190501.0	-5489.0	47772.0
21	17	13	48	695	157.0	-193417.0	-5522.0	48191.0
21	17	13	48	696	158.0	-196046.0	-5555.0	48125.0
21	17	13	48	717	159.0	-198049.0	-5606.0	47855.0
21	17	13	48	718	160.0	-199396.0	-5613.0	48204.0
21	17	13	48	718	161.0	-200466.0	-5621.0	48298.0
21	17	13	48	719	162.0	-200626.0	-5643.0	48368.0
21	17	13	48	720	163.0	-200536.0	-5649.0	48433.0
21	17	13	48	720	164.0	-200672.0	-5652.0	48290.0
21	17	13	48	721	165.0	-200427.0	-5689.0	48218.0
21	17	13	48	721	166.0	-199938.0	-5736.0	47989.0
21	17	13	48	722	167.0	-199766.0	-5758.0	48550.0
21	17	13	48	722	168.0	-199610.0	-5788.0	48731.0
21	17	13	48	723	169.0	-199597.0	-5803.0	48728.0
21	17	13	48	723	170.0	-199878.0	-5826.0	49134.0
21	17	13	48	724	171.0	-199966.0	-5844.0	49211.0
21	17	13	48	725	172.0	-199489.0	-5861.0	49175.0
21	17	13	48	740	173.0	-199035.0	-5913.0	49513.0
21	17	13	48	741	174.0	-198669.0	-5947.0	49528.0
21	17	13	48	741	175.0	-197954.0	-5976.0	49218.0
21	17	13	48	742	176.0	-197207.0	-6006.0	49520.0
21	17	13	48	742	177.0	-196334.0	-6033.0	49946.0
21	17	13	48	743	178.0	-195233.0	-6061.0	50089.0
21	17	13	48	744	179.0	-194308.0	-6089.0	50036.0
21	17	13	48	763	180.0	-193428.0	-6113.0	50396.0
21	17	13	48	764	181.0	-192275.0	-6135.0	50601.0
21	17	13	48	764	182.0	-191439.0	-6158.0	50641.0
21	17	13	48	765	183.0	-190892.0	-6178.0	51123.0
21	17	13	48	765	184.0	-190379.0	-6186.0	51086.0
21	17	13	48	766	185.0	-190584.0	-6205.0	51242.0
21	17	13	48	767	186.0	-190961.0	-6224.0	51531.0
21	17	13	48	767	187.0	-191551.0	-6270.0	51487.0
21	17	13	48	768	188.0	-192353.0	-6279.0	52080.0
21	17	13	48	768	189.0	-193074.0	-6311.0	52133.0
21	17	13	48	769	190.0	-193996.0	-6337.0	52098.0
21	17	13	48	770	191.0	-194909.0	-6354.0	52289.0
21	17	13	48	770	192.0	-196029.0	-6378.0	52716.0
21	17	13	48	771	193.0	-197179.0	-6381.0	52784.0
21	17	13	48	772	194.0	-198821.0	-6386.0	52793.0
21	17	13	48	772	195.0	-200798.0	-6388.0	52876.0
21	17	13	48	773	196.0	-202565.0	-6399.0	53313.0
21	17	13	48	773	197.0	-204094.0	-6405.0	53390.0
21	17	13	48	774	198.0	-205395.0	-6415.0	53818.0
21	17	13	48	774	199.0	-206604.0	-6410.0	53932.0
21	17	13	48	775	200.0	-207746.0	-6428.0	53402.0
21	17	13	48	776	201.0	-209002.0	-6431.0	53631.0
21	17	13	48	776	202.0	-209874.0	-6419.0	54209.0
21	17	13	48	777	203.0	-210697.0	-6416.0	53854.0
21	17	13	48	777	204.0	-211729.0	-6399.0	53608.0
21	17	13	48	778	205.0	-212569.0	-6367.0	53794.0
21	17	13	48	791	206.0	-213174.0	-6334.0	53923.0
21	17	13	48	792	207.0	-213831.0	-6327.0	53596.0
21	17	13	48	792	208.0	-214258.0	-6291.0	54123.0
21	17	13	48	793	209.0	-214814.0	-6241.0	54033.0
21	17	13	48	794	210.0	-215135.0	-6205.0	53665.0
21	17	13	48	794	211.0	-214774.0	-6184.0	53698.0
21	17	13	48	795	212.0	-213616.0	-6131.0	53780.0
21	17	13	48	796	213.0	-212491.0	-6075.0	53557.0
21	17	13	48	796	214.0	-211359.0	-6036.0	53258.0
21	17	13	48	797	215.0	-210136.0	-5978.0	53064.0
21	17	13	48	797	216.0	-209409.0	-5907.0	52823.0
21	17	13	48	798	217.0	-209188.0	-5857.0	52799.0
21	17	13	48	799	218.0	-209008.0	-5782.0	52145.0
21	17	13	48	799	219.0	-209139.0	-5701.0	51913.0
21	17	13	48	800	220.0	-209806.0	-5613.0	51647.0
21	17	13	48	801	221.0	-210523.0	-5532.0	51006.0
21	17	13	48	801	222.0	-211110.0	-5444.0	50454.0
21	17	13	48	812	223.0	-211392.0	-5345.0	49884.0
21	17	13	48	813	224.0	-211439.0	-5258.0	49031.0
21	17	13	48	814	225.0	-211157.0	-5146.0	48425.0
21	17	13	48	836	226.0	-211258.0	-5051.0	48273.0
21	17	13	48	836	227.0	-211616.0	-4948.0	48379.0
21	17	13	48	837	228.0	-211452.0	-4845.0	47409.0
21	17	13	48	838	229.0	-211136.0	-4734.0	46804.0
21	17	13	48	838	230.0	-210547.0	-4644.0	46686.0
21	17	13	48	839	231.0	-209766.0	-4556.0	46290.0
21	17	13	48	839	232.0	-208849.0	-4429.0	45847.0
21	17	13	48	840	233.0	-207905.0	-4315.0	45490.0
21	17	13	48	840	234.0	-206849.0	-4209.0	45485.0
21	17	13	48	841	235.0	-205717.0	-4093.0	44942.0
21	17	13	48	842	236.0	-204586.0	-3977.0	44557.0
21	17	13	48	842	237.0	-203625.0	-3845.0	44877.0
21	17	13	48	858	238.0	-202300.0	-3735.0	44654.0
21	17	13	48	859	239.0	-200616.0	-3654.0	44230.0
21	17	13	48	860	240.0	-198201.0	-3535.0	44192.0
21	17	13	48	860	241.0	-194866.0	-3425.0	43928.0
21	17	13	48	861	242.0	-192400.0	-3296.0	43453.0
21	17	13	48	861	243.0	-191533.0	-3191.0	43339.0
21	17	13	48	862	244.0	-191652.0	-3106.0	43344.0
21	17	13	48	882	245.0	-189941.0	-3003.0	43004.0
21	17	13	48	883	246.0	-187628.0	-2896.0	42977.0
21	17	13	48	884	247.0	-189292.0	-2798.0	43111.0
21	17	13	48	884	248.0	-189478.0	-2704.0	43115.0
21	17	13	48	885	249.0	-189077.0	-2602.0	42898.0
21	17	13	48	885	250.0	-189281.0	-2496.0	42927.0
21	17	13	48	886	251.0	-190736.0	-2406.0	42684.0
21	17	13	48	886	252.0	-192508.0	-2312.0	42813.0
21	17	13	48	887	253.0	-196474.0	-2204.0	42540.0
21	17	13	48	888	254.0	-202849.0	-2106.0	42262.0
21	17	13	48	888	255.0	-211311.0	-2032.0	42472.0
21	17	13	48	889	0.0	-220372.0	-1957.0	42678.0
21	17	13	48	889	1.0	-226901.0	-1873.0	42246.0
21	17	13	48	890	2.0	-229380.0	-1784.0	42518.0
21	17	13	48	890	3.0	-231089.0	-1700.0	42622.0
21	17	13	48	891	4.0	-232899.0	-1615.0	42136.0
21	17	13	48	892	5.0	-233910.0	-1546.0	42164.0
21	17	13	48	892	6.0	-233081.0	-1479.0	42455.0
21	17	13	48	905	7.0	-228974.0	-1423.0	41948.0
21	17	13	48	906	8.0	-221124.0	-1360.0	41658.0
21	17	13	48	906	9.0	-211083.0	-1282.0	41994.0
21	17	13	48	907	10.0	-200687.0	-1241.0	42007.0
21	17	13	48	907	11.0	-192032.0	-1180.0	42170.0
21	17	13	48	908	12.0	-185370.0	-1130.0	42229.0
21	17	13	48	909	13.0	-179203.0	-1059.0	42138.0
21	17	13	48	910	14.0	-173812.0	-1011.0	41755.0
21	17	13	48	910	15.0	-170363.0	-956.0	41814.0
21	17	13	48	911	16.0	-169050.0	-923.0	42131.0
21	17	13	48	912	17.0	-169744.0	-894.0	42048.0
21	17	13	48	912	18.0	-172542.0	-877.0	41887.0
21	17	13	48	913	19.0	-176442.0	-846.0	42132.0
21	17	13	48	914	20.0	-180622.0	-838.0	41847.0
21	17	13	48	914	21.0	-185229.0	-798.0	41974.0
21	17	13	48	915	22.0	-189277.0	-768.0	42336.0
21	17	13	48	928	23.0	-192582.0	-736.0	42444.0
21	17	13	48	929	24.0	-195430.0	-699.0	42278.0
21	17	13	48	930	25.0	-197000.0	-679.0	42607.0
21	17	13	48	930	26.0	-197079.0	-649.0	42353.0
21	17	13	48	931	27.0	-196713.0	-624.0	42259.0
21	17	13	48	931	28.0	-196218.0	-620.0	41946.0
21	17	13	48	932	29.0	-196203.0	-607.0	42168.0
21	17	13	48	933	30.0	-196722.0	-607.0	42413.0
21	17	13	48	933	31.0	-197519.0	-584.0	42336.0
21	17	13	48	952	32.0	-198555.0	-579.0	42251.0
21	17	13	48	952	33.0	-200552.0	-557.0	42304.0
21	17	13	48	953	34.0	-202699.0	-544.0	42553.0
21	17	13	48	954	35.0	-205579.0	-547.0	42628.0
21	17	13	48	954	36.0	-208407.0	-536.0	42614.0
21	17	13	48	955	37.0	-210876.0	-523.0	42590.0
21	17	13	48	955	38.0	-213649.0	-516.0	42542.0
21	17	13	48	956	39.0	-215985.0	-528.0	42545.0
21	17	13	48	957	40.0	-218253.0	-522.0	42468.0
21	17	13	48	957	41.0	-220470.0	-513.0	42833.0
21	17	13	48	958	42.0	-222549.0	-512.0	42703.0
21	17	13	48	959	43.0	-224927.0	-511.0	42567.0
21	17	13	48	959	44.0	-226764.0	-504.0	42671.0
21	17	13	48	974	45.0	-227526.0	-527.0	42666.0
21	17	13	48	975	46.0	-228054.0	-548.0	42383.0
21	17	13	48	975	47.0	-227954.0	-556.0	42833.0
21	17	13	48	976	48.0	-227188.0	-538.0	42900.0
21	17	13	48	977	49.0	-226529.0	-552.0	42610.0
21	17	13	48	977	50.0	-225840.0	-590.0	42954.0
21	17	13	48	980	51.0	-224800.0	-616.0	43161.0
21	17	13	48	981	52.0	-223942.0	-619.0	42938.0
21	17	13	48	991	53.0	-222961.0	-628.0	42907.0
21	17	13	48	992	54.0	-222009.0	-644.0	42891.0
21	17	13	48	992	55.0	-221016.0	-657.0	42847.0
21	17	13	48	993	56.0	-219930.0	-658.0	42816.0
21	17	13	48	993	57.0	-218954.0	-686.0	42823.0
21	17	13	49	1	58.0	-217644.0	-695.0	42796.0
21	17	13	49	2	59.0	-215926.0	-699.0	42811.0
21	17	13	49	2	60.0	-214321.0	-722.0	42959.0
21	17	13	49	3	61.0	-212476.0	-737.0	43215.0
21	17	13	49	4	62.0	-210146.0	-737.0	43059.0
21	17	13	49	5	63.0	-208820.0	-759.0	43035.0
21	17	13	49	5	64.0	-207824.0	-777.0	42699.0
21	17	13	49	6	65.0	-207133.0	-791.0	42650.0
21	17	13	49	6	66.0	-206714.0	-819.0	42853.0
21	17	13	49	7	67.0	-206344.0	-845.0	42685.0
21	17	13	49	8	68.0	-205155.0	-884.0	42424.0
21	17	13	49	8	69.0	-204362.0	-889.0	42806.0
21	17	13	49	25	70.0	-204155.0	-907.0	42821.0
21	17	13	49	26	71.0	-203526.0	-942.0	42287.0
21	17	13	49	47	72.0	-202871.0	-976.0	42522.0
21	17	13	49	48	73.0	-202863.0	-1032.0	42491.0
21	17	13	49	49	74.0	-202686.0	-1065.0	42348.0
21	17	13	49	49	75.0	-203034.0	-1093.0	42487.0
21	17	13	49	50	76.0	-204161.0	-1111.0	42363.0
21	17	13	49	50	77.0	-204953.0	-1142.0	42062.0
21	17	13	49	51	78.0	-206056.0	-1162.0	41853.0
21	17	13	49	51	79.0	-207659.0	-1187.0	42299.0
21	17	13	49	52	80.0	-208957.0	-1204.0	41994.0
21	17	13	49	52	81.0	-210032.0	-1233.0	41734.0
21	17	13	49	53	82.0	-210439.0	-1259.0	42020.0
21	17	13	49	53	83.0	-210419.0	-1297.0	42074.0
21	17	13	49	54	84.0	-209992.0	-1325.0	41882.0
21	17	13	49	55	85.0	-209108.0	-1345.0	41868.0
21	17	13	49	70	86.0	-208011.0	-1376.0	41928.0
21	17	13	49	71	87.0	-206847.0	-1411.0	41454.0
21	17	13	49	72	88.0	-206053.0	-1417.0	41556.0
21	17	13	49	72	89.0	-205709.0	-1445.0	42124.0
21	17	13	49	73	90.0	-205452.0	-1473.0	41889.0
21	17	13	49	73	91.0	-204601.0	-1480.0	41670.0
21	17	13	49	74	92.0	-203512.0	-1477.0	41575.0
21	17	13	49	93	93.0	-201794.0	-1511.0	41533.0
21	17	13	49	94	94.0	-199942.0	-1559.0	41439.0
21	17	13	49	94	95.0	-198516.0	-1579.0	41260.0
21	17	13	49	95	96.0	-197086.0	-1605.0	41226.0
21	17	13	49	95	97.0	-195062.0	-1639.0	41132.0
21	17	13	49	96	98.0	-193082.0	-1643.0	40986.0
21	17	13	49	96	99.0	-191067.0	-1659.0	40549.0
21	17	13	49	116	100.0	-189169.0	-1676.0	40818.0
21	17	13	49	117	101.0	-188301.0	-1710.0	40987.0
21	17	13	49	117	102.0	-187690.0	-1726.0	40571.0
21	17	13	49	118	103.0	-186638.0	-1739.0	40394.0
21	17	13	49	118	104.0	-186080.0	-1742.0	40509.0
21	17	13	49	119	105.0	-186240.0	-1755.0	40276.0
21	17	13	49	120	106.0	-185664.0	-1771.0	40121.0
21	17	13	49	120	107.0	-184769.0	-1755.0	40008.0
21	17	13	49	139	108.0	-184002.0	-1764.0	40052.0
21	17	13	49	139	109.0	-182838.0	-1742.0	40007.0
21	17	13	49	140	110.0	-182038.0	-1752.0	39946.0
21	17	13	49	141	111.0	-181886.0	-1782.0	40025.0
21	17	13	49	141	112.0	-181949.0	-1767.0	39985.0
21	17	13	49	142	113.0	-182197.0	-1741.0	40033.0
21	17	13	49	142	114.0	-182286.0	-1730.0	40052.0
21	17	13	49	143	115.0	-182725.0	-1723.0	39888.0
21	17	13	49	143	119.0	-183743.0	-1718.0	39608.0
21	17	13	49	144	120.0	-184551.0	-1721.0	40026.0
21	17	13	49	144	121.0	-185689.0	-1707.0	39926.0
21	17	13	49	145	122.0	-187706.0	-1696.0	39898.0
21	17	13	49	161	123.0	-189874.0	-1686.0	39914.0
21	17	13	49	162	124.0	-191571.0	-1669.0	39658.0
21	17	13	49	162	125.0	-193840.0	-1662.0	39566.0
21	17	13	49	163	127.0	-199709.0	-1661.0	39623.0
21	17	13	49	163	128.0	-202256.0	-1661.0	39516.0
21	17	13	49	164	129.0	-204972.0	-1647.0	39773.0
21	17	13	49	184	130.0	-207250.0	-1629.0	39725.0
21	17	13	49	184	131.0	-209051.0	-1626.0	39637.0
21	17	13	49	185	132.0	-210408.0	-1633.0	39712.0
21	17	13	49	185	134.0	-211128.0	-1615.0	39341.0
21	17	13	49	186	135.0	-210867.0	-1622.0	39463.0
21	17	13	49	186	136.0	-210782.0	-1629.0	39173.0
21	17	13	49	187	137.0	-211181.0	-1617.0	38858.0
21	17	13	49	187	138.0	-211666.0	-1619.0	38893.0
21	17	13	49	188	139.0	-212404.0	-1614.0	39141.0
21	17	13	49	188	140.0	-213626.0	-1597.0	39040.0
21	17	13	49	189	142.0	-214484.0	-1611.0	39546.0
21	17	13	49	190	143.0	-214752.0	-1604.0	39230.0
21	17	13	49	190	144.0	-214946.0	-1596.0	38733.0
21	17	13	49	206	145.0	-214386.0	-1584.0	38998.0
21	17	13	49	207	146.0	-213857.0	-1566.0	39293.0
21	17	13	49	208	147.0	-213502.0	-1554.0	39064.0
21	17	13	49	208	149.0	-213699.0	-1537.0	39384.0
21	17	13	49	209	150.0	-213671.0	-1524.0	39249.0
21	17	13	49	209	151.0	-213801.0	-1503.0	39203.0
21	17	13	49	210	152.0	-214188.0	-1495.0	39328.0
21	17	13	49	210	153.0	-214515.0	-1499.0	39107.0
21	17	13	49	211	154.0	-214789.0	-1484.0	38809.0
21	17	13	49	212	157.0	-213936.0	-1479.0	38505.0
21	17	13	49	232	158.0	-212941.0	-1482.0	38703.0
21	17	13	49	232	159.0	-211982.0	-1482.0	38831.0
21	17	13	49	233	160.0	-211391.0	-1475.0	38612.0
21	17	13	49	233	161.0	-210474.0	-1470.0	38404.0
21	17	13	49	254	162.0	-209644.0	-1476.0	38451.0
21	17	13	49	255	163.0	-208936.0	-1478.0	38179.0
21	17	13	49	255	164.0	-208156.0	-1477.0	38274.0
21	17	13	49	256	165.0	-207322.0	-1481.0	38253.0
21	17	13	49	256	166.0	-206362.0	-1491.0	37993.0
21	17	13	49	257	167.0	-204981.0	-1507.0	38278.0
21	17	13	49	258	168.0	-203756.0	-1499.0	38556.0
21	17	13	49	258	169.0	-201772.0	-1522.0	38173.0
21	17	13	49	259	170.0	-199961.0	-1515.0	37989.0
21	17	13	49	259	172.0	-197716.0	-1530.0	37773.0
21	17	13	49	260	173.0	-197198.0	-1534.0	37586.0
21	17	13	49	260	174.0	-197148.0	-1549.0	37788.0
21	17	13	49	261	175.0	-196825.0	-1567.0	37704.0
21	17	13	49	261	176.0	-196131.0	-1574.0	37565.0
21	17	13	49	277	177.0	-195952.0	-1582.0	37846.0
21	17	13	49	277	178.0	-195487.0	-1615.0	37962.0
21	17	13	49	278	187.0	-186224.0	-1722.0	38508.0
21	17	13	49	279	188.0	-184273.0	-1742.0	38764.0
21	17	13	49	279	189.0	-182801.0	-1766.0	38730.0
21	17	13	49	280	190.0	-181522.0	-1783.0	38929.0
21	17	13	49	280	191.0	-180379.0	-1816.0	39213.0
21	17	13	49	281	192.0	-179613.0	-1822.0	38982.0
21	17	13	49	282	193.0	-178897.0	-1825.0	39044.0
21	17	13	49	282	194.0	-178433.0	-1841.0	38941.0
21	17	13	49	283	195.0	-178262.0	-1877.0	38902.0
21	17	13	49	283	196.0	-177870.0	-1896.0	39102.0
21	17	13	49	284	197.0	-177257.0	-1899.0	38923.0
21	17	13	49	284	198.0	-176946.0	-1923.0	38834.0
21	17	13	49	285	199.0	-176493.0	-1947.0	39053.0
21	17	13	49	285	200.0	-175898.0	-1966.0	39371.0
21	17	13	49	286	202.0	-176367.0	-2005.0	39747.0
21	17	13	49	287	203.0	-176796.0	-2032.0	39583.0
21	17	13	49	287	204.0	-178276.0	-2046.0	39536.0
21	17	13	49	288	205.0	-180036.0	-2086.0	39642.0
21	17	13	49	288	206.0	-181471.0	-2119.0	39865.0
21	17	13	49	289	207.0	-182839.0	-2155.0	39798.0
21	17	13	49	289	208.0	-184116.0	-2189.0	39922.0
21	17	13	49	290	209.0	-185119.0	-2226.0	40057.0
21	17	13	49	301	210.0	-186159.0	-2300.0	40187.0
21	17	13	49	301	211.0	-186750.0	-2334.0	39946.0
21	17	13	49	302	212.0	-187031.0	-2381.0	40063.0
21	17	13	49	302	213.0	-187559.0	-2416.0	40198.0
21	17	13	49	303	214.0	-188819.0	-2446.0	40076.0
21	17	13	49	304	215.0	-190754.0	-2479.0	40448.0
21	17	13	49	304	216.0	-193137.0	-2514.0	40479.0
21	17	13	49	305	217.0	-195937.0	-2556.0	40130.0
21	17	13	49	305	218.0	-198194.0	-2591.0	40496.0
21	17	13	49	324	219.0	-200192.0	-2586.0	40606.0
21	17	13	49	325	220.0	-201881.0	-2607.0	40595.0
21	17	13	49	326	221.0	-203459.0	-2654.0	40724.0
21	17	13	49	326	222.0	-204170.0	-2682.0	40773.0
21	17	13	49	327	223.0	-204054.0	-2683.0	40934.0
21	17	13	49	327	224.0	-203682.0	-2715.0	40867.0
21	17	13	49	347	225.0	-203315.0	-2754.0	40604.0
21	17	13	49	348	226.0	-202462.0	-2759.0	40755.0
21	17	13	49	349	227.0	-200904.0	-2767.0	40614.0
21	17	13	49	349	228.0	-198439.0	-2808.0	40794.0
21	17	13	49	350	229.0	-195579.0	-2829.0	41064.0
21	17	13	49	350	230.0	-193280.0	-2872.0	41932.0
21	17	13	49	351	231.0	-190589.0	-2904.0	42473.0
21	17	13	49	351	232.0	-188767.0	-2949.0	43017.0
21	17	13	49	352	233.0	-187858.0	-2987.0	43254.0
21	17	13	49	352	234.0	-187816.0	-3005.0	43326.0
21	17	13	49	353	235.0	-187964.0	-3027.0	43779.0
21	17	13	49	353	236.0	-188329.0	-3074.0	44444.0
21	17	13	49	354	237.0	-189411.0	-3097.0	44691.0
21	17	13	49	355	238.0	-190506.0	-3144.0	44559.0
21	17	13	49	370	239.0	-191346.0	-3182.0	43378.0
21	17	13	49	371	240.0	-192026.0	-3202.0	42952.0
21	17	13	49	372	241.0	-192642.0	-3226.0	41039.0
21	17	13	49	372	242.0	-193297.0	-3264.0	37390.0
21	17	13	49	373	243.0	-194371.0	-3299.0	33271.0
21	17	13	49	373	244.0	-196106.0	-3344.0	29901.0
21	17	13	49	374	245.0	-198106.0	-3399.0	27604.0
21	17	13	49	396	246.0	-200807.0	-3437.0	25126.0
21	17	13	49	396	247.0	-204410.0	-3477.0	21883.0
21	17	13	49	397	248.0	-208818.0	-3536.0	17882.0
21	17	13	49	398	249.0	-213354.0	-3555.0	16776.0
21	17	13	49	398	250.0	-218079.0	-3570.0	16891.0
21	17	13	49	399	251.0	-222603.0	-3584.0	15588.0
21	17	13	49	399	252.0	-225895.0	-3621.0	13387.0
21	17	13	49	400	253.0	-228912.0	-3674.0	12350.0
21	17	13	49	400	254.0	-231006.0	-3681.0	13543.0
21	17	13	49	401	255.0	-231795.0	-3718.0	15898.0
21	17	13	49	401	0.0	-231021.0	-3746.0	19135.0
21	17	13	49	402	1.0	-229164.0	-3779.0	20785.0
21	17	13	49	403	2.0	-225584.0	-3794.0	23171.0
