23	18	6	20	52	170.0	-200778.0	-8087.0	-8388608.0
23	18	6	20	54	171.0	-200920.0	-8101.0	-8388608.0
23	18	6	20	56	172.0	-200962.0	-8097.0	-8388608.0
23	18	6	20	58	173.0	-200749.0	-8121.0	-8388608.0
23	18	6	20	60	174.0	-200007.0	-8130.0	-8388608.0
23	18	6	20	62	175.0	-198705.0	-8153.0	-8388608.0
23	18	6	20	64	176.0	-197447.0	-8172.0	-8388608.0
23	18	6	20	66	177.0	-196108.0	-8169.0	-8388608.0
23	18	6	20	68	178.0	-194507.0	-8178.0	-8388608.0
23	18	6	20	70	179.0	-193192.0	-8187.0	-8388608.0
23	18	6	20	71	180.0	-191972.0	-8192.0	-8388608.0
23	18	6	20	73	181.0	-191642.0	-8199.0	-8388608.0
23	18	6	20	74	182.0	-192459.0	-8211.0	-8388608.0
23	18	6	20	75	183.0	-191916.0	-8203.0	-8388608.0
23	18	6	20	75	184.0	-192499.0	-8199.0	-8388608.0
23	18	6	20	76	185.0	-191921.0	-8224.0	-8388608.0
23	18	6	20	85	186.0	-190542.0	-8232.0	-8388608.0
23	18	6	20	85	187.0	-189839.0	-8199.0	-8388608.0
23	18	6	20	86	188.0	-189325.0	-8177.0	-8388608.0
23	18	6	20	87	189.0	-188787.0	-8168.0	-8388608.0
23	18	6	20	87	190.0	-188006.0	-8138.0	-8388608.0
23	18	6	20	88	191.0	-188200.0	-8103.0	-8388608.0
23	18	6	20	88	192.0	-188916.0	-8087.0	-8388608.0
23	18	6	20	89	193.0	-189519.0	-8068.0	-8388608.0
23	18	6	20	132	194.0	-190112.0	-8030.0	-8388608.0
23	18	6	20	177	195.0	-190307.0	-7974.0	-8388608.0
23	18	6	20	178	196.0	-190541.0	-7947.0	-8388608.0
23	18	6	20	179	197.0	-190437.0	-7917.0	-8388608.0
23	18	6	20	179	198.0	-190287.0	-7861.0	-8388608.0
23	18	6	20	180	199.0	-190017.0	-7805.0	-8388608.0
23	18	6	20	180	200.0	-189410.0	-7769.0	-8388608.0
23	18	6	20	181	201.0	-188507.0	-7719.0	-8388608.0
23	18	6	20	182	202.0	-187658.0	-7666.0	-8388608.0
23	18	6	20	221	203.0	-186720.0	-7605.0	-8388608.0
23	18	6	20	222	204.0	-185784.0	-7551.0	-8388608.0
23	18	6	20	223	205.0	-184958.0	-7485.0	-8388608.0
23	18	6	20	223	206.0	-184122.0	-7421.0	-8388608.0
23	18	6	20	224	207.0	-182932.0	-7362.0	-8388608.0
23	18	6	20	224	208.0	-181867.0	-7293.0	-8388608.0
23	18	6	20	225	215.0	-175767.0	-6741.0	-8388608.0
23	18	6	20	226	238.0	-205404.0	-4964.0	-8388608.0
23	18	6	20	226	239.0	-206833.0	-4894.0	-8388608.0
23	18	6	20	227	240.0	-207828.0	-4833.0	-8388608.0
23	18	6	20	227	241.0	-208712.0	-4772.0	-8388608.0
23	18	6	20	228	242.0	-209589.0	-4702.0	-8388608.0
23	18	6	20	229	243.0	-210361.0	-4630.0	-8388608.0
23	18	6	20	229	244.0	-211078.0	-4561.0	-8388608.0
23	18	6	20	230	245.0	-211719.0	-4493.0	-8388608.0
23	18	6	20	230	246.0	-212034.0	-4445.0	-8388608.0
23	18	6	20	231	4.0	-176249.0	-3670.0	-8388608.0
23	18	6	20	231	5.0	-172736.0	-3628.0	-8388608.0
23	18	6	20	232	6.0	-169597.0	-3576.0	-8388608.0
23	18	6	20	233	7.0	-172981.0	-3512.0	-8388608.0
23	18	6	20	233	8.0	-182334.0	-3481.0	-8388608.0
23	18	6	20	234	9.0	-196610.0	-3441.0	-8388608.0
23	18	6	20	234	10.0	-209557.0	-3381.0	-8388608.0
23	18	6	20	266	11.0	-216464.0	-3356.0	-8388608.0
23	18	6	20	267	12.0	-218353.0	-3305.0	-8388608.0
23	18	6	20	267	13.0	-215777.0	-3254.0	-8388608.0
23	18	6	20	268	14.0	-210320.0	-3225.0	-8388608.0
23	18	6	20	269	15.0	-203542.0	-3172.0	-8388608.0
23	18	6	20	269	16.0	-196981.0	-3136.0	-8388608.0
23	18	6	20	270	17.0	-191530.0	-3106.0	-8388608.0
23	18	6	20	270	18.0	-186849.0	-3072.0	-8388608.0
23	18	6	20	271	19.0	-183437.0	-3027.0	-8388608.0
23	18	6	20	272	20.0	-181929.0	-3007.0	-8388608.0
23	18	6	20	272	21.0	-181971.0	-3005.0	-8388608.0
23	18	6	20	273	22.0	-182722.0	-2967.0	-8388608.0
23	18	6	20	273	23.0	-183227.0	-2942.0	-8388608.0
23	18	6	20	274	24.0	-183328.0	-2919.0	-8388608.0
23	18	6	20	275	25.0	-182788.0	-2894.0	-8388608.0
23	18	6	20	275	27.0	-180663.0	-2829.0	-8388608.0
23	18	6	20	276	28.0	-180140.0	-2817.0	-8388608.0
23	18	6	20	276	29.0	-180151.0	-2786.0	-8388608.0
23	18	6	20	277	30.0	-180452.0	-2755.0	-8388608.0
23	18	6	20	277	31.0	-181032.0	-2731.0	-8388608.0
23	18	6	20	278	32.0	-181631.0	-2676.0	-8388608.0
23	18	6	20	312	33.0	-181805.0	-2629.0	-8388608.0
23	18	6	20	356	34.0	-181642.0	-2597.0	-8388608.0
23	18	6	20	356	35.0	-182058.0	-2571.0	-8388608.0
23	18	6	20	357	36.0	-182601.0	-2567.0	-8388608.0
23	18	6	20	357	37.0	-183055.0	-2544.0	-8388608.0
23	18	6	20	358	38.0	-183872.0	-2533.0	-8388608.0
23	18	6	20	359	39.0	-184399.0	-2517.0	-8388608.0
23	18	6	20	359	40.0	-184885.0	-2503.0	-8388608.0
23	18	6	20	401	41.0	-184954.0	-2495.0	-8388608.0
23	18	6	20	401	42.0	-184929.0	-2492.0	-8388608.0
23	18	6	20	402	43.0	-184559.0	-2472.0	-8388608.0
23	18	6	20	403	44.0	-183921.0	-2462.0	-8388608.0
23	18	6	20	403	45.0	-183344.0	-2451.0	-8388608.0
23	18	6	20	404	46.0	-182919.0	-2439.0	-8388608.0
23	18	6	20	404	47.0	-182483.0	-2444.0	-8388608.0
23	18	6	20	405	49.0	-182409.0	-2462.0	-8388608.0
23	18	6	20	406	71.0	-216564.0	-2619.0	-8388608.0
23	18	6	20	407	72.0	-217881.0	-2651.0	-8388608.0
23	18	6	20	407	73.0	-219261.0	-2661.0	-8388608.0
23	18	6	20	408	74.0	-220569.0	-2689.0	-8388608.0
23	18	6	20	408	75.0	-221850.0	-2692.0	-8388608.0
23	18	6	20	409	76.0	-222878.0	-2722.0	-8388608.0
23	18	6	20	410	77.0	-223247.0	-2725.0	-8388608.0
23	18	6	20	410	78.0	-223277.0	-2747.0	-8388608.0
23	18	6	20	411	94.0	-165685.0	-2710.0	-8388608.0
23	18	6	20	411	95.0	-161284.0	-2714.0	-8388608.0
23	18	6	20	412	96.0	-157495.0	-2718.0	-8388608.0
23	18	6	20	413	97.0	-154276.0	-2713.0	-8388608.0
23	18	6	20	413	98.0	-151357.0	-2721.0	-8388608.0
23	18	6	20	414	99.0	-148756.0	-2726.0	-8388608.0
23	18	6	20	414	100.0	-146714.0	-2720.0	-8388608.0
23	18	6	20	447	101.0	-145607.0	-2726.0	-8388608.0
23	18	6	20	471	102.0	-144911.0	-2734.0	-8388608.0
23	18	6	20	472	103.0	-144724.0	-2718.0	-8388608.0
23	18	6	20	472	104.0	-144918.0	-2738.0	-8388608.0
23	18	6	20	473	105.0	-145771.0	-2755.0	-8388608.0
23	18	6	20	473	106.0	-147510.0	-2780.0	-8388608.0
23	18	6	20	474	107.0	-150010.0	-2788.0	-8388608.0
23	18	6	20	493	108.0	-153177.0	-2809.0	-8388608.0
23	18	6	20	494	109.0	-157310.0	-2815.0	-8388608.0
23	18	6	20	495	110.0	-162231.0	-2841.0	-8388608.0
23	18	6	20	495	111.0	-167839.0	-2855.0	-8388608.0
23	18	6	20	496	112.0	-174281.0	-2861.0	-8388608.0
23	18	6	20	497	113.0	-181459.0	-2888.0	-8388608.0
23	18	6	20	497	114.0	-189183.0	-2857.0	-8388608.0
23	18	6	20	498	115.0	-196896.0	-2867.0	-8388608.0
23	18	6	20	498	117.0	-211381.0	-2908.0	-8388608.0
23	18	6	20	499	118.0	-217697.0	-2909.0	-8388608.0
23	18	6	20	499	119.0	-223186.0	-2895.0	-8388608.0
23	18	6	20	500	120.0	-227664.0	-2882.0	-8388608.0
23	18	6	20	501	121.0	-231434.0	-2898.0	-8388608.0
23	18	6	20	501	122.0	-234266.0	-2907.0	-8388608.0
23	18	6	20	502	123.0	-236262.0	-2904.0	-8388608.0
23	18	6	20	502	139.0	-174560.0	-3251.0	-8388608.0
23	18	6	20	503	140.0	-168554.0	-3264.0	-8388608.0
23	18	6	20	503	141.0	-163098.0	-3290.0	-8388608.0
23	18	6	20	504	142.0	-158446.0	-3301.0	-8388608.0
23	18	6	20	505	143.0	-154714.0	-3318.0	-8388608.0
23	18	6	20	505	144.0	-151739.0	-3344.0	-8388608.0
23	18	6	20	536	145.0	-150262.0	-3361.0	-8388608.0
23	18	6	20	537	146.0	-150196.0	-3391.0	-8388608.0
23	18	6	20	538	147.0	-151433.0	-3422.0	-8388608.0
23	18	6	20	538	148.0	-153868.0	-3457.0	-8388608.0
23	18	6	20	539	149.0	-157213.0	-3482.0	-8388608.0
23	18	6	20	540	150.0	-161205.0	-3524.0	-8388608.0
23	18	6	20	540	151.0	-165575.0	-3533.0	-8388608.0
23	18	6	20	541	152.0	-170263.0	-3566.0	-8388608.0
23	18	6	20	541	153.0	-175126.0	-3607.0	-8388608.0
23	18	6	20	542	154.0	-179887.0	-3629.0	-8388608.0
23	18	6	20	543	155.0	-184529.0	-3667.0	-8388608.0
23	18	6	20	544	156.0	-189167.0	-3707.0	-8388608.0
23	18	6	20	544	157.0	-193325.0	-3733.0	-8388608.0
23	18	6	20	545	158.0	-196932.0	-3751.0	-8388608.0
23	18	6	20	547	159.0	-200322.0	-3779.0	-8388608.0
23	18	6	20	548	161.0	-205997.0	-3851.0	-8388608.0
23	18	6	20	548	162.0	-207487.0	-3890.0	-8388608.0
23	18	6	20	549	163.0	-208298.0	-3898.0	-8388608.0
23	18	6	20	549	164.0	-208708.0	-3914.0	-8388608.0
23	18	6	20	550	165.0	-208540.0	-3940.0	-8388608.0
23	18	6	20	551	166.0	-207947.0	-3951.0	-8388608.0
23	18	6	20	551	167.0	-206741.0	-3977.0	-8388608.0
23	18	6	20	581	168.0	-205036.0	-4013.0	-8388608.0
23	18	6	20	582	169.0	-203124.0	-4028.0	-8388608.0
23	18	6	20	582	170.0	-200892.0	-4083.0	-8388608.0
23	18	6	20	583	171.0	-198318.0	-4126.0	-8388608.0
23	18	6	20	584	172.0	-195457.0	-4129.0	-8388608.0
23	18	6	20	584	173.0	-192606.0	-4166.0	-8388608.0
23	18	6	20	585	174.0	-189569.0	-4210.0	-8388608.0
23	18	6	20	585	175.0	-186729.0	-4239.0	-8388608.0
23	18	6	20	586	176.0	-184162.0	-4277.0	-8388608.0
23	18	6	20	587	177.0	-181748.0	-4319.0	-8388608.0
23	18	6	20	587	178.0	-179707.0	-4354.0	-8388608.0
23	18	6	20	588	179.0	-178152.0	-4365.0	-8388608.0
23	18	6	20	588	180.0	-177019.0	-4389.0	-8388608.0
23	18	6	20	589	181.0	-176368.0	-4434.0	-8388608.0
23	18	6	20	590	182.0	-175904.0	-4469.0	-8388608.0
23	18	6	20	590	184.0	-175842.0	-4520.0	-8388608.0
23	18	6	20	591	185.0	-176165.0	-4562.0	-8388608.0
23	18	6	20	591	186.0	-177256.0	-4585.0	-8388608.0
23	18	6	20	592	187.0	-178677.0	-4610.0	-8388608.0
23	18	6	20	592	188.0	-180214.0	-4621.0	-8388608.0
23	18	6	20	593	189.0	-182042.0	-4651.0	-8388608.0
23	18	6	20	626	190.0	-184254.0	-4674.0	-8388608.0
23	18	6	20	627	191.0	-186529.0	-4684.0	-8388608.0
23	18	6	20	627	192.0	-188623.0	-4719.0	-8388608.0
23	18	6	20	628	193.0	-190896.0	-4777.0	-8388608.0
23	18	6	20	629	194.0	-193147.0	-4813.0	-8388608.0
23	18	6	20	629	195.0	-195306.0	-4849.0	-8388608.0
23	18	6	20	630	196.0	-197618.0	-4887.0	-8388608.0
23	18	6	20	630	197.0	-199833.0	-4915.0	-8388608.0
23	18	6	20	631	198.0	-201397.0	-4933.0	-8388608.0
23	18	6	20	632	199.0	-202420.0	-4945.0	-8388608.0
23	18	6	20	632	200.0	-203124.0	-4986.0	-8388608.0
23	18	6	20	633	201.0	-203357.0	-5017.0	-8388608.0
23	18	6	20	633	202.0	-203422.0	-5044.0	-8388608.0
23	18	6	20	634	203.0	-203048.0	-5082.0	-8388608.0
23	18	6	20	634	204.0	-202263.0	-5117.0	-8388608.0
23	18	6	20	635	206.0	-199748.0	-5208.0	-8388608.0
23	18	6	20	636	207.0	-198126.0	-5239.0	-8388608.0
23	18	6	20	636	208.0	-196411.0	-5249.0	-8388608.0
23	18	6	20	637	209.0	-194582.0	-5264.0	-8388608.0
23	18	6	20	637	210.0	-193059.0	-5290.0	-8388608.0
23	18	6	20	638	211.0	-191609.0	-5332.0	-8388608.0
23	18	6	20	672	212.0	-189991.0	-5362.0	-8388608.0
23	18	6	20	673	213.0	-188074.0	-5376.0	-8388608.0
23	18	6	20	674	214.0	-186461.0	-5405.0	-8388608.0
23	18	6	20	674	215.0	-185258.0	-5457.0	-8388608.0
23	18	6	20	675	216.0	-183961.0	-5493.0	-8388608.0
23	18	6	20	676	217.0	-182634.0	-5526.0	-8388608.0
23	18	6	20	676	218.0	-181463.0	-5567.0	-8388608.0
23	18	6	20	677	219.0	-180346.0	-5602.0	-8388608.0
23	18	6	20	677	220.0	-178891.0	-5642.0	-8388608.0
23	18	6	20	678	221.0	-177557.0	-5678.0	-8388608.0
23	18	6	20	679	222.0	-176593.0	-5697.0	-8388608.0
23	18	6	20	679	223.0	-175591.0	-5731.0	-8388608.0
23	18	6	20	680	224.0	-174701.0	-5782.0	-8388608.0
23	18	6	20	680	225.0	-174403.0	-5829.0	-8388608.0
23	18	6	20	681	226.0	-174361.0	-5860.0	-8388608.0
23	18	6	20	682	229.0	-177251.0	-5945.0	-8388608.0
23	18	6	20	682	230.0	-179417.0	-5974.0	-8388608.0
23	18	6	20	683	231.0	-181976.0	-5993.0	-8388608.0
23	18	6	20	683	232.0	-185179.0	-6031.0	-8388608.0
23	18	6	20	684	233.0	-189162.0	-6056.0	-8388608.0
23	18	6	20	684	234.0	-193762.0	-6080.0	-8388608.0
23	18	6	20	716	235.0	-199254.0	-6114.0	-8388608.0
23	18	6	20	716	236.0	-205172.0	-6120.0	-8388608.0
23	18	6	20	717	237.0	-211013.0	-6138.0	-8388608.0
23	18	6	20	735	238.0	-215624.0	-6204.0	-8388608.0
23	18	6	20	736	239.0	-217376.0	-6257.0	-8388608.0
23	18	6	20	736	240.0	-215538.0	-6285.0	-8388608.0
23	18	6	20	737	241.0	-211325.0	-6322.0	-8388608.0
23	18	6	20	738	242.0	-206724.0	-6350.0	-8388608.0
23	18	6	20	738	243.0	-202557.0	-6394.0	-8388608.0
23	18	6	20	739	244.0	-200034.0	-6449.0	-8388608.0
23	18	6	20	739	245.0	-199924.0	-6469.0	-8388608.0
23	18	6	20	740	246.0	-202589.0	-6497.0	-8388608.0
23	18	6	20	740	247.0	-207692.0	-6521.0	-8388608.0
23	18	6	20	741	248.0	-214171.0	-6548.0	-8388608.0
23	18	6	20	741	249.0	-220248.0	-6599.0	-8388608.0
23	18	6	20	742	251.0	-229458.0	-6652.0	-8388608.0
23	18	6	20	743	252.0	-232126.0	-6699.0	-8388608.0
23	18	6	20	743	253.0	-232034.0	-6721.0	-8388608.0
23	18	6	20	744	254.0	-228619.0	-6737.0	-8388608.0
23	18	6	20	744	255.0	-221192.0	-6767.0	-8388608.0
23	18	6	20	745	0.0	-210133.0	-6788.0	-8388608.0
23	18	6	20	761	1.0	-197572.0	-6822.0	-8388608.0
23	18	6	20	762	2.0	-186139.0	-6854.0	-8388608.0
23	18	6	20	762	3.0	-176174.0	-6876.0	-8388608.0
23	18	6	20	763	4.0	-167081.0	-6914.0	-8388608.0
23	18	6	20	763	5.0	-160505.0	-6939.0	-8388608.0
23	18	6	20	764	6.0	-157157.0	-6977.0	-8388608.0
23	18	6	20	765	7.0	-157525.0	-7008.0	-8388608.0
23	18	6	20	765	8.0	-160689.0	-7043.0	-8388608.0
23	18	6	20	766	9.0	-164406.0	-7075.0	-8388608.0
23	18	6	20	766	10.0	-167497.0	-7091.0	-8388608.0
23	18	6	20	767	11.0	-169416.0	-7126.0	-8388608.0
23	18	6	20	767	12.0	-171260.0	-7156.0	-8388608.0
23	18	6	20	768	13.0	-173919.0	-7171.0	-8388608.0
23	18	6	20	769	14.0	-177301.0	-7200.0	-8388608.0
23	18	6	20	769	15.0	-181056.0	-7227.0	-8388608.0
23	18	6	20	770	17.0	-187228.0	-7291.0	-8388608.0
23	18	6	20	771	18.0	-189679.0	-7307.0	-8388608.0
23	18	6	20	771	19.0	-191766.0	-7336.0	-8388608.0
23	18	6	20	772	20.0	-192983.0	-7355.0	-8388608.0
23	18	6	20	773	21.0	-193089.0	-7380.0	-8388608.0
23	18	6	20	773	22.0	-192346.0	-7404.0	-8388608.0
23	18	6	20	774	23.0	-191272.0	-7414.0	-8388608.0
23	18	6	20	852	24.0	-189737.0	-7441.0	-8388608.0
23	18	6	20	852	25.0	-188186.0	-7463.0	-8388608.0
23	18	6	20	853	26.0	-186646.0	-7477.0	-8388608.0
23	18	6	20	853	27.0	-184980.0	-7497.0	-8388608.0
23	18	6	20	897	28.0	-183450.0	-7535.0	-8388608.0
23	18	6	20	898	29.0	-182050.0	-7561.0	-8388608.0
23	18	6	20	899	30.0	-180649.0	-7565.0	-8388608.0
23	18	6	20	899	31.0	-179351.0	-7616.0	-8388608.0
23	18	6	20	900	32.0	-178732.0	-7670.0	-8388608.0
23	18	6	20	900	33.0	-178434.0	-7689.0	-8388608.0
23	18	6	20	901	34.0	-178475.0	-7711.0	-8388608.0
23	18	6	20	902	35.0	-178695.0	-7749.0	-8388608.0
23	18	6	20	902	36.0	-178725.0	-7794.0	-8388608.0
23	18	6	20	903	37.0	-178877.0	-7828.0	-8388608.0
23	18	6	20	903	38.0	-179481.0	-7839.0	-8388608.0
23	18	6	20	904	62.0	-204492.0	-8516.0	-8388608.0
23	18	6	20	905	63.0	-205564.0	-8538.0	-8388608.0
23	18	6	20	905	64.0	-206361.0	-8537.0	-8388608.0
23	18	6	20	906	65.0	-206816.0	-8546.0	-8388608.0
23	18	6	20	906	66.0	-207263.0	-8539.0	-8388608.0
23	18	6	20	907	85.0	-173308.0	-7806.0	-8388608.0
23	18	6	20	908	86.0	-172571.0	-7722.0	-8388608.0
23	18	6	20	908	87.0	-171990.0	-7645.0	-8388608.0
23	18	6	20	909	88.0	-171481.0	-7554.0	-8388608.0
23	18	6	20	909	89.0	-170934.0	-7469.0	-8388608.0
23	18	6	20	910	90.0	-170840.0	-7377.0	-8388608.0
23	18	6	20	941	91.0	-171249.0	-7304.0	-8388608.0
23	18	6	20	942	92.0	-172057.0	-7227.0	-8388608.0
23	18	6	20	943	93.0	-173046.0	-7122.0	-8388608.0
23	18	6	20	943	94.0	-174432.0	-7032.0	-8388608.0
23	18	6	20	944	95.0	-176436.0	-6956.0	-8388608.0
23	18	6	20	944	96.0	-178751.0	-6888.0	-8388608.0
23	18	6	20	945	97.0	-181265.0	-6822.0	-8388608.0
23	18	6	20	946	98.0	-184051.0	-6733.0	-8388608.0
23	18	6	20	946	99.0	-186808.0	-6630.0	-8388608.0
23	18	6	20	947	100.0	-189434.0	-6552.0	-8388608.0
23	18	6	20	947	101.0	-192128.0	-6455.0	-8388608.0
23	18	6	20	948	102.0	-194936.0	-6372.0	-8388608.0
23	18	6	20	949	103.0	-197534.0	-6298.0	-8388608.0
23	18	6	20	949	104.0	-200134.0	-6229.0	-8388608.0
23	18	6	20	987	105.0	-202623.0	-6128.0	-8388608.0
23	18	6	20	988	108.0	-208055.0	-5866.0	-8388608.0
23	18	6	20	989	109.0	-209435.0	-5777.0	-8388608.0
23	18	6	20	990	110.0	-211106.0	-5684.0	-8388608.0
23	18	6	20	991	111.0	-212691.0	-5591.0	-8388608.0
23	18	6	20	991	112.0	-213223.0	-5522.0	-8388608.0
23	18	6	20	992	113.0	-213214.0	-5442.0	-8388608.0
23	18	6	20	993	114.0	-213043.0	-5361.0	-8388608.0
23	18	6	20	993	115.0	-212496.0	-5275.0	-8388608.0
23	18	6	20	994	116.0	-211199.0	-5205.0	-8388608.0
23	18	6	20	994	117.0	-209269.0	-5123.0	-8388608.0
23	18	6	20	995	118.0	-206902.0	-5051.0	-8388608.0
23	18	6	20	996	119.0	-204171.0	-4983.0	-8388608.0
23	18	6	20	996	120.0	-201142.0	-4914.0	-8388608.0
23	18	6	20	997	121.0	-198218.0	-4837.0	-8388608.0
23	18	6	20	997	122.0	-195204.0	-4766.0	-8388608.0
23	18	6	20	998	130.0	-182386.0	-4256.0	-8388608.0
23	18	6	20	999	131.0	-181792.0	-4183.0	-8388608.0
23	18	6	20	999	132.0	-180864.0	-4122.0	-8388608.0
23	18	6	21	0	133.0	-179486.0	-4063.0	-8388608.0
23	18	6	21	0	134.0	-177373.0	-3999.0	-8388608.0
23	18	6	21	1	135.0	-174765.0	-3945.0	-8388608.0
23	18	6	21	30	136.0	-170740.0	-3903.0	-8388608.0
23	18	6	21	31	137.0	-165913.0	-3847.0	-8388608.0
23	18	6	21	32	138.0	-161221.0	-3787.0	-8388608.0
23	18	6	21	33	139.0	-162277.0	-3712.0	-8388608.0
23	18	6	21	33	140.0	-169448.0	-3648.0	-8388608.0
23	18	6	21	34	141.0	-183837.0	-3625.0	-8388608.0
23	18	6	21	35	142.0	-198334.0	-3585.0	-8388608.0
23	18	6	21	35	143.0	-210144.0	-3554.0	-8388608.0
23	18	6	21	36	144.0	-218927.0	-3487.0	-8388608.0
23	18	6	21	36	145.0	-221769.0	-3447.0	-8388608.0
23	18	6	21	37	146.0	-219616.0	-3414.0	-8388608.0
23	18	6	21	38	147.0	-216310.0	-3379.0	-8388608.0
23	18	6	21	38	148.0	-214168.0	-3324.0	-8388608.0
23	18	6	21	39	149.0	-213367.0	-3279.0	-8388608.0
23	18	6	21	40	150.0	-213044.0	-3251.0	-8388608.0
23	18	6	21	40	152.0	-212792.0	-3195.0	-8388608.0
23	18	6	21	41	153.0	-211949.0	-3173.0	-8388608.0
23	18	6	21	41	154.0	-210796.0	-3119.0	-8388608.0
23	18	6	21	42	155.0	-209608.0	-3071.0	-8388608.0
23	18	6	21	43	156.0	-208606.0	-3029.0	-8388608.0
23	18	6	21	43	157.0	-207482.0	-3007.0	-8388608.0
23	18	6	21	76	158.0	-206205.0	-2961.0	-8388608.0
23	18	6	21	77	159.0	-204817.0	-2923.0	-8388608.0
23	18	6	21	78	160.0	-202886.0	-2888.0	-8388608.0
23	18	6	21	79	161.0	-200628.0	-2871.0	-8388608.0
23	18	6	21	79	162.0	-197744.0	-2840.0	-8388608.0
23	18	6	21	80	163.0	-194247.0	-2801.0	-8388608.0
23	18	6	21	81	164.0	-190174.0	-2766.0	-8388608.0
23	18	6	21	82	165.0	-185475.0	-2764.0	-8388608.0
23	18	6	21	82	166.0	-180906.0	-2739.0	-8388608.0
23	18	6	21	83	167.0	-176539.0	-2692.0	-8388608.0
23	18	6	21	84	168.0	-172537.0	-2667.0	-8388608.0
23	18	6	21	84	169.0	-168762.0	-2644.0	-8388608.0
23	18	6	21	85	170.0	-165422.0	-2617.0	-8388608.0
23	18	6	21	86	171.0	-162802.0	-2596.0	-8388608.0
23	18	6	21	86	172.0	-160797.0	-2585.0	-8388608.0
23	18	6	21	87	175.0	-156991.0	-2559.0	-8388608.0
23	18	6	21	87	176.0	-156370.0	-2550.0	-8388608.0
23	18	6	21	88	177.0	-156379.0	-2494.0	-8388608.0
23	18	6	21	89	178.0	-157244.0	-2484.0	-8388608.0
23	18	6	21	89	179.0	-158729.0	-2481.0	-8388608.0
23	18	6	21	90	180.0	-160731.0	-2442.0	-8388608.0
23	18	6	21	120	181.0	-162989.0	-2437.0	-8388608.0
23	18	6	21	132	182.0	-165667.0	-2425.0	-8388608.0
23	18	6	21	133	183.0	-168995.0	-2393.0	-8388608.0
23	18	6	21	134	184.0	-172757.0	-2388.0	-8388608.0
23	18	6	21	134	185.0	-176422.0	-2391.0	-8388608.0
23	18	6	21	135	186.0	-180320.0	-2408.0	-8388608.0
23	18	6	21	136	187.0	-184401.0	-2417.0	-8388608.0
23	18	6	21	136	188.0	-188242.0	-2414.0	-8388608.0
23	18	6	21	137	189.0	-192237.0	-2394.0	-8388608.0
23	18	6	21	137	190.0	-196349.0	-2390.0	-8388608.0
23	18	6	21	138	191.0	-200068.0	-2402.0	-8388608.0
23	18	6	21	139	192.0	-203491.0	-2403.0	-8388608.0
23	18	6	21	139	193.0	-206826.0	-2427.0	-8388608.0
23	18	6	21	140	194.0	-209394.0	-2431.0	-8388608.0
23	18	6	21	140	195.0	-211458.0	-2440.0	-8388608.0
23	18	6	21	141	197.0	-215641.0	-2468.0	-8388608.0
23	18	6	21	141	198.0	-217476.0	-2497.0	-8388608.0
23	18	6	21	142	199.0	-219523.0	-2490.0	-8388608.0
23	18	6	21	143	200.0	-220897.0	-2504.0	-8388608.0
23	18	6	21	143	201.0	-222035.0	-2514.0	-8388608.0
23	18	6	21	144	202.0	-222510.0	-2536.0	-8388608.0
23	18	6	21	166	203.0	-221960.0	-2536.0	-8388608.0
23	18	6	21	167	204.0	-220865.0	-2553.0	-8388608.0
23	18	6	21	168	205.0	-218951.0	-2548.0	-8388608.0
23	18	6	21	168	206.0	-216361.0	-2567.0	-8388608.0
23	18	6	21	169	207.0	-213854.0	-2574.0	-8388608.0
23	18	6	21	170	208.0	-210524.0	-2614.0	-8388608.0
23	18	6	21	170	209.0	-206980.0	-2635.0	-8388608.0
23	18	6	21	171	210.0	-202999.0	-2653.0	-8388608.0
23	18	6	21	172	211.0	-199257.0	-2678.0	-8388608.0
23	18	6	21	172	212.0	-195636.0	-2691.0	-8388608.0
23	18	6	21	173	213.0	-192679.0	-2712.0	-8388608.0
23	18	6	21	174	214.0	-190467.0	-2742.0	-8388608.0
23	18	6	21	174	215.0	-188522.0	-2785.0	-8388608.0
23	18	6	21	175	216.0	-186974.0	-2807.0	-8388608.0
23	18	6	21	176	217.0	-185844.0	-2826.0	-8388608.0
23	18	6	21	176	219.0	-183965.0	-2881.0	-8388608.0
23	18	6	21	177	220.0	-183612.0	-2880.0	-8388608.0
23	18	6	21	177	221.0	-183958.0	-2883.0	-8388608.0
23	18	6	21	178	222.0	-183891.0	-2902.0	-8388608.0
23	18	6	21	179	223.0	-183529.0	-2939.0	-8388608.0
23	18	6	21	179	224.0	-183524.0	-2952.0	-8388608.0
23	18	6	21	180	225.0	-182744.0	-2981.0	-8388608.0
23	18	6	21	258	226.0	-181531.0	-2988.0	-8388608.0
23	18	6	21	259	227.0	-180236.0	-2977.0	-8388608.0
23	18	6	21	260	228.0	-178607.0	-3004.0	-8388608.0
23	18	6	21	260	229.0	-177394.0	-3042.0	-8388608.0
23	18	6	21	261	230.0	-176086.0	-3051.0	-8388608.0
23	18	6	21	262	231.0	-174360.0	-3052.0	-8388608.0
23	18	6	21	262	232.0	-172882.0	-3089.0	-8388608.0
23	18	6	21	263	233.0	-171760.0	-3127.0	-8388608.0
23	18	6	21	264	234.0	-171346.0	-3131.0	-8388608.0
23	18	6	21	264	235.0	-171784.0	-3139.0	-8388608.0
23	18	6	21	265	236.0	-172595.0	-3157.0	-8388608.0
23	18	6	21	265	237.0	-173762.0	-3159.0	-8388608.0
23	18	6	21	266	238.0	-175977.0	-3186.0	-8388608.0
23	18	6	21	267	239.0	-178228.0	-3227.0	-8388608.0
23	18	6	21	267	240.0	-180630.0	-3251.0	-8388608.0
23	18	6	21	268	8.0	-220673.0	-3686.0	-8388608.0
23	18	6	21	268	9.0	-221059.0	-3690.0	-8388608.0
23	18	6	21	269	10.0	-220738.0	-3711.0	-8388608.0
23	18	6	21	270	11.0	-219634.0	-3711.0	-8388608.0
23	18	6	21	270	12.0	-218672.0	-3719.0	-8388608.0
23	18	6	21	271	13.0	-217156.0	-3711.0	-8388608.0
23	18	6	21	271	14.0	-214364.0	-3714.0	-8388608.0
23	18	6	21	301	15.0	-211376.0	-3711.0	-8388608.0
23	18	6	21	302	16.0	-208133.0	-3732.0	-8388608.0
23	18	6	21	303	17.0	-203744.0	-3720.0	-8388608.0
23	18	6	21	303	18.0	-199294.0	-3737.0	-8388608.0
23	18	6	21	304	19.0	-194469.0	-3766.0	-8388608.0
23	18	6	21	304	20.0	-189731.0	-3772.0	-8388608.0
23	18	6	21	305	21.0	-186199.0	-3795.0	-8388608.0
23	18	6	21	306	22.0	-182955.0	-3804.0	-8388608.0
23	18	6	21	306	23.0	-179774.0	-3819.0	-8388608.0
23	18	6	21	307	24.0	-177652.0	-3845.0	-8388608.0
23	18	6	21	307	25.0	-174739.0	-3862.0	-8388608.0
23	18	6	21	308	26.0	-171857.0	-3869.0	-8388608.0
23	18	6	21	308	27.0	-169486.0	-3888.0	-8388608.0
23	18	6	21	309	28.0	-166719.0	-3904.0	-8388608.0
23	18	6	21	310	29.0	-164277.0	-3921.0	-8388608.0
23	18	6	21	310	31.0	-159641.0	-3970.0	-8388608.0
23	18	6	21	311	32.0	-157892.0	-3979.0	-8388608.0
23	18	6	21	311	33.0	-156484.0	-3992.0	-8388608.0
23	18	6	21	312	34.0	-155444.0	-4007.0	-8388608.0
23	18	6	21	312	35.0	-155553.0	-4027.0	-8388608.0
23	18	6	21	313	36.0	-155700.0	-4044.0	-8388608.0
23	18	6	21	346	37.0	-156891.0	-4029.0	-8388608.0
23	18	6	21	347	38.0	-159564.0	-4044.0	-8388608.0
23	18	6	21	348	39.0	-162896.0	-4081.0	-8388608.0
23	18	6	21	348	40.0	-166291.0	-4089.0	-8388608.0
23	18	6	21	349	41.0	-170576.0	-4107.0	-8388608.0
23	18	6	21	349	42.0	-175226.0	-4149.0	-8388608.0
23	18	6	21	350	43.0	-180525.0	-4142.0	-8388608.0
23	18	6	21	351	44.0	-186294.0	-4170.0	-8388608.0
23	18	6	21	351	45.0	-191914.0	-4187.0	-8388608.0
23	18	6	21	352	46.0	-197716.0	-4209.0	-8388608.0
23	18	6	21	352	47.0	-203324.0	-4249.0	-8388608.0
23	18	6	21	353	48.0	-208852.0	-4266.0	-8388608.0
23	18	6	21	353	49.0	-214339.0	-4284.0	-8388608.0
23	18	6	21	354	50.0	-219151.0	-4308.0	-8388608.0
23	18	6	21	355	51.0	-223412.0	-4327.0	-8388608.0
23	18	6	21	355	53.0	-229167.0	-4371.0	-8388608.0
23	18	6	21	356	54.0	-230369.0	-4414.0	-8388608.0
23	18	6	21	356	55.0	-231436.0	-4452.0	-8388608.0
23	18	6	21	357	56.0	-231546.0	-4455.0	-8388608.0
23	18	6	21	358	57.0	-230895.0	-4473.0	-8388608.0
23	18	6	21	358	58.0	-229635.0	-4502.0	-8388608.0
23	18	6	21	366	59.0	-227021.0	-4537.0	-8386912.0
23	18	6	21	392	60.0	-223951.0	-4549.0	-8384888.0
23	18	6	21	392	61.0	-219685.0	-4560.0	-8378632.0
23	18	6	21	393	62.0	-215006.0	-4590.0	-8365471.0
23	18	6	21	394	63.0	-210051.0	-4622.0	-8359206.0
23	18	6	21	395	64.0	-204620.0	-4644.0	-8364020.0
23	18	6	21	395	65.0	-198392.0	-4686.0	-8366864.0
23	18	6	21	396	66.0	-192074.0	-4714.0	-8351384.0
23	18	6	21	396	67.0	-185972.0	-4740.0	-8326307.0
23	18	6	21	397	68.0	-179771.0	-4784.0	-8308789.0
23	18	6	21	398	69.0	-172987.0	-4809.0	-8305784.0
23	18	6	21	398	70.0	-166432.0	-4838.0	-8314732.0
23	18	6	21	399	71.0	-159652.0	-4868.0	-8327344.0
23	18	6	21	399	72.0	-153535.0	-4903.0	-8328895.0
23	18	6	21	400	73.0	-147855.0	-4932.0	-8318817.0
23	18	6	21	400	74.0	-142818.0	-4958.0	-8311423.0
23	18	6	21	401	76.0	-136191.0	-5039.0	-8328590.0
23	18	6	21	402	77.0	-134876.0	-5063.0	-8346636.0
23	18	6	21	402	78.0	-134051.0	-5077.0	-8352675.0
23	18	6	21	403	79.0	-134489.0	-5105.0	-8351159.0
23	18	6	21	403	80.0	-135888.0	-5108.0	-8348565.0
23	18	6	21	404	81.0	-137529.0	-5147.0	-8344410.0
23	18	6	21	435	82.0	-140833.0	-5193.0	-8343364.0
23	18	6	21	436	83.0	-145196.0	-5226.0	-8343789.0
23	18	6	21	437	84.0	-149854.0	-5257.0	-8342511.0
23	18	6	21	437	85.0	-155570.0	-5285.0	-8340951.0
23	18	6	21	438	86.0	-162094.0	-5311.0	-8339147.0
23	18	6	21	438	87.0	-168751.0	-5346.0	-8337247.0
23	18	6	21	439	88.0	-176199.0	-5357.0	-8335274.0
23	18	6	21	439	89.0	-184151.0	-5395.0	-8333502.0
23	18	6	21	440	90.0	-192013.0	-5443.0	-8331710.0
23	18	6	21	440	91.0	-199035.0	-5474.0	-8329992.0
23	18	6	21	441	92.0	-206407.0	-5491.0	-8328211.0
23	18	6	21	449	93.0	-213089.0	-5532.0	-8325321.0
23	18	6	21	450	94.0	-218681.0	-5569.0	-8314567.0
23	18	6	21	450	95.0	-224003.0	-5614.0	-8302496.0
23	18	6	21	451	96.0	-229431.0	-5653.0	-8300402.0
23	18	6	21	452	98.0	-237959.0	-5687.0	-8291736.0
23	18	6	21	452	99.0	-241406.0	-5708.0	-8254158.0
23	18	6	21	453	100.0	-243974.0	-5737.0	-8210762.0
23	18	6	21	453	101.0	-246100.0	-5755.0	-8172602.0
23	18	6	21	454	102.0	-247231.0	-5793.0	-8128890.0
23	18	6	21	454	103.0	-247472.0	-5808.0	-8069733.0
23	18	6	21	481	104.0	-246581.0	-5841.0	-8004731.0
23	18	6	21	482	105.0	-245257.0	-5879.0	-7933581.0
23	18	6	21	482	106.0	-242842.0	-5906.0	-7855999.0
23	18	6	21	483	107.0	-240009.0	-5934.0	-7753842.0
23	18	6	21	484	108.0	-236716.0	-5846.0	-7297372.0
23	18	6	21	484	109.0	-233128.0	-5868.0	-6364130.0
23	18	6	21	485	110.0	-228637.0	-5919.0	-5502781.0
23	18	6	21	485	111.0	-224026.0	-5867.0	-4314986.0
23	18	6	21	486	112.0	-219409.0	-5927.0	-2988547.0
23	18	6	21	486	113.0	-214909.0	-6016.0	-2009297.0
23	18	6	21	487	114.0	-210755.0	-6091.0	-1361571.0
23	18	6	21	488	115.0	-207052.0	-6139.0	-860058.0
23	18	6	21	488	116.0	-203020.0	-6157.0	-393837.0
23	18	6	21	489	117.0	-197910.0	-6174.0	129707.0
23	18	6	21	489	118.0	-191086.0	-6199.0	708537.0
23	18	6	21	490	121.0	-163819.0	-6150.0	3446385.0
23	18	6	21	490	122.0	-156964.0	-6237.0	4047585.0
23	18	6	21	491	123.0	-152344.0	-6325.0	4098949.0
23	18	6	21	492	124.0	-149659.0	-6376.0	4100587.0
23	18	6	21	492	125.0	-147816.0	-6402.0	4102257.0
23	18	6	21	493	126.0	-147771.0	-6429.0	4104009.0
23	18	6	21	526	127.0	-149971.0	-6431.0	4105809.0
23	18	6	21	527	128.0	-156077.0	-6435.0	4107631.0
23	18	6	21	527	129.0	-166633.0	-6455.0	4109403.0
23	18	6	21	528	130.0	-179563.0	-6473.0	4111185.0
23	18	6	21	528	131.0	-190666.0	-6496.0	4112929.0
23	18	6	21	529	132.0	-198272.0	-6506.0	4114554.0
23	18	6	21	530	133.0	-200133.0	-6533.0	4116238.0
23	18	6	21	530	134.0	-196626.0	-6541.0	4118060.0
23	18	6	21	531	135.0	-190898.0	-6534.0	4120346.0
23	18	6	21	532	136.0	-183384.0	-6532.0	4123564.0
23	18	6	21	533	137.0	-177159.0	-6572.0	4127950.0
23	18	6	21	534	138.0	-173784.0	-6587.0	4133920.0
23	18	6	21	534	139.0	-171411.0	-6578.0	4142174.0
23	18	6	21	535	140.0	-170004.0	-6586.0	4153489.0
23	18	6	21	535	141.0	-169544.0	-6617.0	4169841.0
23	18	6	21	536	143.0	-170344.0	-6665.0	4242239.0
23	18	6	21	536	144.0	-172197.0	-6702.0	4358624.0
23	18	6	21	537	145.0	-175704.0	-6768.0	4671736.0
23	18	6	21	537	146.0	-181643.0	-6791.0	5149853.0
23	18	6	21	538	147.0	-188679.0	-6797.0	5623062.0
23	18	6	21	539	148.0	-195838.0	-6782.0	6103598.0
23	18	6	21	571	149.0	-200996.0	-6772.0	6555923.0
23	18	6	21	572	150.0	-202743.0	-6750.0	6893865.0
23	18	6	21	572	151.0	-201832.0	-6710.0	7132217.0
23	18	6	21	573	152.0	-199788.0	-6706.0	7288960.0
23	18	6	21	574	153.0	-197547.0	-6711.0	7385890.0
23	18	6	21	574	154.0	-195337.0	-6701.0	7441612.0
23	18	6	21	575	155.0	-193352.0	-6689.0	7483453.0
23	18	6	21	575	156.0	-191599.0	-6704.0	7537217.0
23	18	6	21	576	157.0	-190026.0	-6724.0	7622531.0
23	18	6	21	576	158.0	-187263.0	-6719.0	7731285.0
23	18	6	21	577	159.0	-184187.0	-6717.0	7846226.0
23	18	6	21	578	160.0	-181591.0	-6714.0	7925623.0
23	18	6	21	578	161.0	-178766.0	-6726.0	7966496.0
23	18	6	21	579	162.0	-176557.0	-6717.0	7980989.0
23	18	6	21	580	163.0	-175181.0	-6709.0	7979343.0
23	18	6	21	581	165.0	-173678.0	-6747.0	7963151.0
23	18	6	21	582	166.0	-173825.0	-6738.0	7983043.0
23	18	6	21	582	167.0	-173825.0	-6741.0	8035468.0
23	18	6	21	583	168.0	-174351.0	-6762.0	8111804.0
23	18	6	21	583	169.0	-175817.0	-6744.0	8196223.0
23	18	6	21	584	170.0	-177189.0	-6731.0	8249448.0
23	18	6	21	584	171.0	-179712.0	-6721.0	8265147.0
23	18	6	21	615	172.0	-183441.0	-6714.0	8250771.0
23	18	6	21	616	173.0	-187234.0	-6702.0	8216209.0
23	18	6	21	616	174.0	-190881.0	-6706.0	8170078.0
23	18	6	21	617	175.0	-193672.0	-6717.0	8130669.0
23	18	6	21	618	176.0	-196693.0	-6744.0	8112934.0
23	18	6	21	618	177.0	-198839.0	-6751.0	8132693.0
23	18	6	21	619	178.0	-201365.0	-6782.0	8183166.0
23	18	6	21	619	179.0	-204320.0	-6772.0	8246656.0
23	18	6	21	620	180.0	-206979.0	-6766.0	8284375.0
23	18	6	21	621	181.0	-208939.0	-6778.0	8294089.0
23	18	6	21	622	182.0	-209909.0	-6769.0	8279929.0
23	18	6	21	622	183.0	-210680.0	-6770.0	8247774.0
23	18	6	21	623	184.0	-211879.0	-6765.0	8204826.0
23	18	6	21	624	185.0	-212528.0	-6772.0	8165581.0
23	18	6	21	624	186.0	-213368.0	-6788.0	8150522.0
23	18	6	21	625	188.0	-213156.0	-6791.0	8234338.0
23	18	6	21	625	189.0	-211564.0	-6809.0	8301383.0
23	18	6	21	626	190.0	-209599.0	-6801.0	8339226.0
23	18	6	21	626	191.0	-207066.0	-6801.0	8344883.0
23	18	6	21	627	192.0	-204564.0	-6813.0	8325145.0
23	18	6	21	628	193.0	-201651.0	-6806.0	8288873.0
23	18	6	21	661	194.0	-199101.0	-6794.0	8243214.0
23	18	6	21	661	195.0	-197233.0	-6780.0	8202806.0
23	18	6	21	662	196.0	-195397.0	-6778.0	8186483.0
23	18	6	21	663	197.0	-193377.0	-6796.0	8209281.0
23	18	6	21	663	198.0	-191584.0	-6807.0	8261780.0
23	18	6	21	664	199.0	-190249.0	-6792.0	8323406.0
23	18	6	21	664	200.0	-188780.0	-6757.0	8356071.0
23	18	6	21	665	201.0	-187546.0	-6732.0	8357052.0
23	18	6	21	666	202.0	-186644.0	-6707.0	8337051.0
23	18	6	21	666	203.0	-184440.0	-6682.0	8303648.0
23	18	6	21	667	204.0	-181707.0	-6652.0	8262754.0
23	18	6	21	667	205.0	-178566.0	-6609.0	8225878.0
23	18	6	21	668	206.0	-177009.0	-6583.0	8212920.0
23	18	6	21	668	207.0	-175738.0	-6573.0	8239457.0
23	18	6	21	670	208.0	-173779.0	-6560.0	8293186.0
23	18	6	21	670	210.0	-169701.0	-6470.0	8381112.0
23	18	6	21	671	211.0	-168031.0	-6408.0	8377408.0
23	18	6	21	671	212.0	-167001.0	-6354.0	8351293.0
23	18	6	21	672	213.0	-166311.0	-6296.0	8309446.0
23	18	6	21	672	214.0	-167139.0	-6234.0	8261344.0
23	18	6	21	673	215.0	-168159.0	-6174.0	8219739.0
23	18	6	21	674	216.0	-169132.0	-6112.0	8204431.0
23	18	6	21	706	217.0	-170269.0	-6037.0	8228426.0
23	18	6	21	707	218.0	-171201.0	-5964.0	8279691.0
23	18	6	21	707	219.0	-172591.0	-5890.0	8335268.0
23	18	6	21	751	220.0	-174022.0	-5796.0	8362673.0
23	18	6	21	752	221.0	-175319.0	-5716.0	8358680.0
23	18	6	21	752	222.0	-176613.0	-5637.0	8330477.0
23	18	6	21	753	223.0	-177377.0	-5558.0	8288453.0
23	18	6	21	753	224.0	-178181.0	-5471.0	8241173.0
23	18	6	21	754	225.0	-179072.0	-5392.0	8200519.0
23	18	6	21	754	226.0	-180379.0	-5301.0	8185251.0
23	18	6	21	755	227.0	-181060.0	-5197.0	8208493.0
23	18	6	21	756	228.0	-181290.0	-5132.0	8259399.0
23	18	6	21	796	229.0	-181256.0	-5040.0	8314631.0
23	18	6	21	797	230.0	-181145.0	-4946.0	8339070.0
23	18	6	21	798	231.0	-180897.0	-4835.0	8331917.0
23	18	6	21	798	233.0	-182635.0	-4666.0	8260573.0
23	18	6	21	799	234.0	-183229.0	-4587.0	8212517.0
23	18	6	21	799	235.0	-184552.0	-4500.0	8172708.0
23	18	6	21	800	236.0	-186353.0	-4400.0	8160691.0
23	18	6	21	800	0.0	-202767.0	-2619.0	8113948.0
23	18	6	21	801	1.0	-202936.0	-2527.0	8141483.0
23	18	6	21	802	2.0	-203339.0	-2446.0	8195937.0
23	18	6	21	802	3.0	-203409.0	-2367.0	8250441.0
23	18	6	21	803	4.0	-203327.0	-2276.0	8272164.0
23	18	6	21	803	5.0	-202429.0	-2210.0	8262621.0
23	18	6	21	804	6.0	-201613.0	-2156.0	8232247.0
23	18	6	21	804	7.0	-201006.0	-2085.0	8187410.0
23	18	6	21	805	8.0	-200289.0	-2025.0	8139087.0
23	18	6	21	806	22.0	-201876.0	-1301.0	8153244.0
23	18	6	21	806	23.0	-206030.0	-1227.0	8205567.0
23	18	6	21	807	24.0	-210083.0	-1167.0	8224962.0
23	18	6	21	808	25.0	-212404.0	-1091.0	8214333.0
23	18	6	21	808	26.0	-212583.0	-1022.0	8183082.0
23	18	6	21	809	27.0	-209966.0	-976.0	8137764.0
23	18	6	21	842	28.0	-204657.0	-930.0	8090098.0
23	18	6	21	843	29.0	-200179.0	-864.0	8051184.0
23	18	6	21	843	30.0	-199780.0	-813.0	8044578.0
23	18	6	21	844	31.0	-202036.0	-771.0	8074604.0
23	18	6	21	844	32.0	-204551.0	-721.0	8130223.0
23	18	6	21	845	33.0	-204191.0	-674.0	8182698.0
23	18	6	21	846	34.0	-200872.0	-624.0	8201839.0
23	18	6	21	846	35.0	-194607.0	-562.0	8189536.0
23	18	6	21	847	36.0	-187961.0	-510.0	8158203.0
23	18	6	21	847	37.0	-182540.0	-482.0	8112670.0
23	18	6	21	848	38.0	-178959.0	-437.0	8064251.0
23	18	6	21	849	39.0	-176750.0	-379.0	8025389.0
23	18	6	21	849	40.0	-175338.0	-317.0	8019742.0
23	18	6	21	850	41.0	-174081.0	-296.0	8050426.0
23	18	6	21	850	42.0	-172810.0	-262.0	8106339.0
23	18	6	21	851	44.0	-172533.0	-154.0	8173778.0
23	18	6	21	852	45.0	-173789.0	-110.0	8159898.0
23	18	6	21	852	46.0	-176619.0	-64.0	8127201.0
23	18	6	21	853	47.0	-179744.0	-27.0	8081563.0
23	18	6	21	853	48.0	-183242.0	16.0	8034183.0
23	18	6	21	854	49.0	-186693.0	71.0	7996353.0
23	18	6	21	886	50.0	-190519.0	119.0	7991669.0
23	18	6	21	887	51.0	-193327.0	174.0	8022896.0
23	18	6	21	887	52.0	-196007.0	212.0	8078636.0
23	18	6	21	888	53.0	-198242.0	237.0	8127889.0
23	18	6	21	888	54.0	-199646.0	268.0	8145463.0
23	18	6	21	889	55.0	-200416.0	314.0	8132864.0
23	18	6	21	890	56.0	-200066.0	371.0	8100801.0
23	18	6	21	890	57.0	-198726.0	399.0	8054395.0
23	18	6	21	891	58.0	-196307.0	423.0	8007648.0
23	18	6	21	891	59.0	-195943.0	447.0	7972048.0
23	18	6	21	892	60.0	-197214.0	481.0	7969863.0
23	18	6	21	893	61.0	-198491.0	518.0	8003063.0
23	18	6	21	893	62.0	-201197.0	550.0	8060334.0
23	18	6	21	894	63.0	-204641.0	573.0	8110134.0
23	18	6	21	894	64.0	-206699.0	628.0	8126204.0
23	18	6	21	895	67.0	-209465.0	758.0	8032989.0
23	18	6	21	896	68.0	-210701.0	798.0	7985773.0
23	18	6	21	896	69.0	-211588.0	843.0	7949033.0
23	18	6	21	897	70.0	-210527.0	890.0	7947029.0
23	18	6	21	897	71.0	-210027.0	919.0	7980465.0
23	18	6	21	898	72.0	-209723.0	976.0	8038956.0
23	18	6	21	931	73.0	-209486.0	1039.0	8088538.0
23	18	6	21	932	74.0	-209636.0	1098.0	8103911.0
23	18	6	21	977	75.0	-210103.0	1157.0	8088419.0
23	18	6	21	977	76.0	-210612.0	1186.0	8054919.0
23	18	6	21	978	77.0	-211788.0	1261.0	8009294.0
23	18	6	21	979	78.0	-213112.0	1302.0	7964816.0
23	18	6	21	979	79.0	-213545.0	1332.0	7930688.0
23	18	6	21	993	80.0	-212174.0	1340.0	7930501.0
23	18	6	21	994	81.0	-209612.0	1384.0	7964941.0
23	18	6	21	994	82.0	-205887.0	1438.0	8023993.0
23	18	6	21	995	83.0	-201263.0	1455.0	8072503.0
23	18	6	21	995	84.0	-196381.0	1516.0	8086295.0
23	18	6	21	996	85.0	-192071.0	1584.0	8070277.0
23	18	6	21	996	86.0	-186576.0	1633.0	8036998.0
23	18	6	21	997	87.0	-180762.0	1676.0	7990181.0
23	18	6	21	998	89.0	-170348.0	1741.0	7909853.0
23	18	6	21	998	90.0	-166311.0	1758.0	7910556.0
23	18	6	21	999	111.0	-224262.0	2861.0	7887621.0
23	18	6	21	999	112.0	-226802.0	2923.0	7945974.0
23	18	6	22	0	113.0	-227095.0	2989.0	8006668.0
23	18	6	22	0	114.0	-226417.0	3103.0	8050160.0
23	18	6	22	1	115.0	-224014.0	3210.0	8049214.0
23	18	6	22	2	116.0	-220261.0	3328.0	8023244.0
23	18	6	22	2	117.0	-216707.0	3436.0	7984514.0
23	18	6	22	21	118.0	-212517.0	3524.0	7945748.0
23	18	6	22	22	119.0	-207476.0	3609.0	7914479.0
23	18	6	22	22	120.0	-200387.0	3698.0	7913493.0
23	18	6	22	23	121.0	-190547.0	3800.0	7937578.0
23	18	6	22	24	122.0	-181493.0	3900.0	7982978.0
23	18	6	22	24	123.0	-172957.0	4041.0	8018911.0
23	18	6	22	25	124.0	-164986.0	4153.0	8023143.0
23	18	6	22	26	125.0	-158521.0	4256.0	7997504.0
23	18	6	22	26	126.0	-152747.0	4376.0	7947391.0
23	18	6	22	27	127.0	-148039.0	4501.0	7885158.0
23	18	6	22	28	128.0	-143806.0	4623.0	7832094.0
23	18	6	22	28	129.0	-140064.0	4731.0	7795639.0
23	18	6	22	29	130.0	-138530.0	4865.0	7795188.0
23	18	6	22	30	131.0	-139364.0	4989.0	7827655.0
23	18	6	22	30	132.0	-141475.0	5101.0	7885151.0
23	18	6	22	31	134.0	-149845.0	5380.0	7944065.0
23	18	6	22	31	135.0	-155684.0	5528.0	7928016.0
23	18	6	22	32	136.0	-161681.0	5665.0	7893879.0
23	18	6	22	33	137.0	-168878.0	5813.0	7844664.0
23	18	6	22	33	138.0	-176936.0	5978.0	7789770.0
23	18	6	22	34	139.0	-185641.0	6119.0	7741928.0
23	18	6	22	66	140.0	-194385.0	6248.0	7734929.0
23	18	6	22	66	141.0	-202533.0	6366.0	7761917.0
23	18	6	22	67	142.0	-209965.0	6431.0	7817059.0
23	18	6	22	68	143.0	-215889.0	6628.0	7860564.0
23	18	6	22	68	144.0	-220267.0	6866.0	7867553.0
23	18	6	22	69	145.0	-222707.0	7029.0	7848399.0
23	18	6	22	70	146.0	-222804.0	7193.0	7816858.0
23	18	6	22	70	147.0	-220969.0	7369.0	7772781.0
23	18	6	22	71	148.0	-216957.0	7523.0	7726269.0
23	18	6	22	71	149.0	-213363.0	7712.0	7678951.0
23	18	6	22	72	150.0	-205219.0	7883.0	7669634.0
23	18	6	22	73	151.0	-197832.0	8048.0	7694419.0
23	18	6	22	73	152.0	-189636.0	8216.0	7742709.0
23	18	6	22	74	153.0	-180599.0	8416.0	7781375.0
23	18	6	22	74	154.0	-171351.0	8626.0	7789166.0
23	18	6	22	75	156.0	-154452.0	9052.0	7724568.0
23	18	6	22	76	157.0	-148588.0	9241.0	7673741.0
23	18	6	22	76	158.0	-143944.0	9452.0	7627241.0
23	18	6	22	77	159.0	-140369.0	9668.0	7593229.0
23	18	6	22	77	160.0	-137822.0	9874.0	7594781.0
23	18	6	22	78	161.0	-135826.0	10070.0	7626384.0
23	18	6	22	79	162.0	-134722.0	10272.0	7678226.0
23	18	6	22	110	163.0	-134801.0	10480.0	7716241.0
23	18	6	22	111	164.0	-134949.0	10702.0	7722978.0
23	18	6	22	112	165.0	-134702.0	10922.0	7703098.0
23	18	6	22	112	166.0	-134083.0	11137.0	7668314.0
23	18	6	22	113	167.0	-133493.0	11352.0	7622019.0
23	18	6	22	114	168.0	-132991.0	11556.0	7577289.0
23	18	6	22	114	169.0	-132597.0	11763.0	7547188.0
23	18	6	22	115	170.0	-133592.0	11999.0	7555451.0
23	18	6	22	115	171.0	-136342.0	12220.0	7594713.0
23	18	6	22	116	172.0	-141412.0	12454.0	7655181.0
23	18	6	22	117	173.0	-149072.0	12714.0	7698943.0
23	18	6	22	117	174.0	-158362.0	12957.0	7708456.0
23	18	6	22	118	175.0	-168962.0	13206.0	7688494.0
23	18	6	22	119	176.0	-180402.0	13470.0	7650665.0
23	18	6	22	119	177.0	-192171.0	13729.0	7598512.0
23	18	6	22	120	179.0	-216369.0	14278.0	7514039.0
23	18	6	22	121	180.0	-229230.0	14561.0	7518922.0
23	18	6	22	122	181.0	-240338.0	14860.0	7555706.0
23	18	6	22	123	182.0	-249387.0	15174.0	7610548.0
23	18	6	22	123	183.0	-257204.0	15510.0	7645093.0
23	18	6	22	124	184.0	-263222.0	15862.0	7647046.0
23	18	6	22	156	185.0	-268387.0	16233.0	7619551.0
23	18	6	22	157	186.0	-271806.0	16582.0	7577384.0
23	18	6	22	158	187.0	-272662.0	16947.0	7528857.0
23	18	6	22	159	188.0	-272177.0	17328.0	7487285.0
23	18	6	22	159	189.0	-269866.0	17712.0	7462716.0
23	18	6	22	160	190.0	-266437.0	18108.0	7473683.0
23	18	6	22	160	191.0	-261560.0	18513.0	7513601.0
23	18	6	22	161	192.0	-254989.0	18947.0	7572247.0
23	18	6	22	162	193.0	-247304.0	19409.0	7612277.0
23	18	6	22	162	194.0	-238525.0	19866.0	7620009.0
23	18	6	22	163	195.0	-229235.0	20338.0	7601116.0
23	18	6	22	164	196.0	-220732.0	20813.0	7567008.0
23	18	6	22	165	197.0	-213245.0	21294.0	7520613.0
23	18	6	22	166	198.0	-202831.0	21780.0	7473856.0
23	18	6	22	166	199.0	-191326.0	22286.0	7440454.0
23	18	6	22	167	201.0	-174879.0	23236.0	7483338.0
23	18	6	22	167	202.0	-168126.0	23734.0	7531973.0
23	18	6	22	168	203.0	-161049.0	24246.0	7553472.0
23	18	6	22	169	204.0	-155352.0	24745.0	7544859.0
23	18	6	22	169	205.0	-151137.0	25261.0	7513088.0
23	18	6	22	170	206.0	-147829.0	25753.0	7470483.0
23	18	6	22	170	207.0	-144604.0	26249.0	7416516.0
23	18	6	22	201	208.0	-141494.0	26752.0	7363766.0
23	18	6	22	202	209.0	-138002.0	27228.0	7324772.0
23	18	6	22	203	210.0	-132571.0	27696.0	7324613.0
23	18	6	22	204	211.0	-126725.0	28166.0	7355161.0
23	18	6	22	205	212.0	-121307.0	28641.0	7407380.0
23	18	6	22	205	213.0	-116242.0	29146.0	7445016.0
23	18	6	22	206	214.0	-114050.0	29636.0	7454016.0
23	18	6	22	207	215.0	-113606.0	30139.0	7436618.0
23	18	6	22	207	216.0	-115299.0	30629.0	7403839.0
23	18	6	22	208	217.0	-121521.0	31131.0	7359814.0
23	18	6	22	209	218.0	-130784.0	31647.0	7317915.0
23	18	6	22	209	219.0	-142067.0	32153.0	7290092.0
23	18	6	22	210	220.0	-154071.0	32698.0	7300390.0
23	18	6	22	211	221.0	-163987.0	33238.0	7342603.0
23	18	6	22	211	222.0	-170653.0	33794.0	7400510.0
23	18	6	22	212	224.0	-177341.0	35030.0	7433379.0
23	18	6	22	212	225.0	-180321.0	35656.0	7403938.0
23	18	6	22	213	226.0	-184119.0	36321.0	7355876.0
23	18	6	22	214	227.0	-188696.0	37009.0	7290774.0
23	18	6	22	214	228.0	-193691.0	37714.0	7223846.0
23	18	6	22	215	229.0	-199005.0	38453.0	7171163.0
23	18	6	22	246	230.0	-204797.0	39219.0	7155643.0
23	18	6	22	247	231.0	-210189.0	40018.0	7170493.0
23	18	6	22	248	232.0	-214385.0	40833.0	7204540.0
23	18	6	22	248	233.0	-217802.0	41678.0	7227144.0
23	18	6	22	249	234.0	-222216.0	42561.0	7219508.0
23	18	6	22	250	235.0	-227813.0	43477.0	7174867.0
23	18	6	22	250	236.0	-234221.0	44406.0	7097171.0
23	18	6	22	251	237.0	-240067.0	45347.0	6997186.0
23	18	6	22	252	238.0	-244788.0	46311.0	6896037.0
23	18	6	22	252	239.0	-248276.0	47277.0	6810653.0
23	18	6	22	253	240.0	-249745.0	48254.0	6771331.0
23	18	6	22	254	241.0	-249529.0	49251.0	6775742.0
23	18	6	22	254	242.0	-249069.0	50284.0	6813939.0
23	18	6	22	255	243.0	-247474.0	51361.0	6840886.0
23	18	6	22	256	244.0	-242472.0	52445.0	6835156.0
23	18	6	22	256	246.0	-239249.0	54663.0	6747374.0
23	18	6	22	257	247.0	-232991.0	55845.0	6673191.0
23	18	6	22	257	248.0	-230031.0	57074.0	6585777.0
23	18	6	22	258	249.0	-223108.0	58319.0	6522181.0
23	18	6	22	259	250.0	-216209.0	59628.0	6515998.0
23	18	6	22	259	251.0	-213240.0	61011.0	6533141.0
23	18	6	22	292	252.0	-210162.0	62465.0	6556104.0
23	18	6	22	293	253.0	-205040.0	63972.0	6553369.0
23	18	6	22	294	254.0	-198687.0	65558.0	6505158.0
23	18	6	22	295	255.0	-192047.0	67213.0	6414903.0
23	18	6	22	295	0.0	-185853.0	68925.0	6300335.0
23	18	6	22	296	1.0	-181616.0	70713.0	6163738.0
23	18	6	22	297	2.0	-180628.0	72609.0	6006138.0
23	18	6	22	297	3.0	-184729.0	74622.0	5801104.0
23	18	6	22	298	4.0	-193677.0	76758.0	5491174.0
23	18	6	22	299	5.0	-201769.0	79019.0	5070328.0
23	18	6	22	300	6.0	-210378.0	81414.0	4578949.0
23	18	6	22	300	7.0	-214445.0	83966.0	3981398.0
23	18	6	22	301	8.0	-219065.0	86654.0	3524790.0
23	18	6	22	301	9.0	-222467.0	89564.0	3291702.0
23	18	6	22	302	10.0	-222824.0	92724.0	3166321.0
23	18	6	22	303	13.0	-220423.0	103492.0	2894583.0
23	18	6	22	303	14.0	-217136.0	107459.0	2723965.0
23	18	6	22	304	15.0	-213082.0	111625.0	2390677.0
23	18	6	22	304	16.0	-209432.0	115973.0	1873898.0
23	18	6	22	305	17.0	-205976.0	120537.0	1286333.0
23	18	6	22	306	18.0	-202627.0	125278.0	686088.0
23	18	6	22	335	19.0	-200984.0	130194.0	87493.0
23	18	6	22	335	20.0	-200694.0	135257.0	-494577.0
23	18	6	22	336	21.0	-200701.0	140434.0	-1047223.0
23	18	6	22	337	22.0	-202394.0	145703.0	-1566365.0
23	18	6	22	338	23.0	-205586.0	151129.0	-2052970.0
23	18	6	22	338	24.0	-211729.0	156694.0	-2506898.0
23	18	6	22	339	25.0	-224810.0	162461.0	-2932083.0
23	18	6	22	340	26.0	-241806.0	168448.0	-3329312.0
23	18	6	22	341	27.0	-248370.0	174738.0	-3702727.0
23	18	6	22	341	28.0	-260031.0	181219.0	-4054381.0
23	18	6	22	342	29.0	-270387.0	187813.0	-4384829.0
23	18	6	22	343	30.0	-280717.0	194509.0	-4696017.0
23	18	6	22	343	31.0	-289804.0	201204.0	-4989094.0
23	18	6	22	344	32.0	-297981.0	207881.0	-5266279.0
23	18	6	22	345	33.0	-303901.0	214504.0	-5531989.0
23	18	6	22	345	35.0	-306222.0	227484.0	-6078353.0
23	18	6	22	346	36.0	-302607.0	233769.0	-6367743.0
23	18	6	22	347	37.0	-294460.0	239971.0	-6652432.0
23	18	6	22	347	38.0	-283064.0	246049.0	-6927320.0
23	18	6	22	348	39.0	-268846.0	251971.0	-7189696.0
23	18	6	22	349	40.0	-254753.0	257757.0	-7437679.0
23	18	6	22	381	41.0	-240793.0	263387.0	-7672982.0
23	18	6	22	382	42.0	-225409.0	268869.0	-7896772.0
23	18	6	22	383	43.0	-207851.0	274212.0	-8109046.0
23	18	6	22	384	44.0	-189496.0	279399.0	-8308957.0
23	18	6	22	385	45.0	-175267.0	284405.0	-8388608.0
23	18	6	22	385	46.0	-161017.0	289248.0	-8388608.0
23	18	6	22	386	47.0	-147422.0	293933.0	-8388608.0
23	18	6	22	387	48.0	-137843.0	298449.0	-8388608.0
23	18	6	22	388	49.0	-132413.0	302803.0	-8388608.0
23	18	6	22	388	50.0	-130835.0	307004.0	-8388608.0
23	18	6	22	389	51.0	-126270.0	311045.0	-8388608.0
23	18	6	22	390	52.0	-124572.0	314924.0	-8388608.0
23	18	6	22	390	53.0	-123627.0	318667.0	-8388608.0
23	18	6	22	391	54.0	-119706.0	322248.0	-8388608.0
23	18	6	22	392	55.0	-115314.0	325716.0	-8388608.0
23	18	6	22	392	57.0	-100984.0	332248.0	-8388608.0
23	18	6	22	393	58.0	-92664.0	335312.0	-8388608.0
23	18	6	22	394	59.0	-84207.0	338262.0	-8388608.0
23	18	6	22	394	60.0	-75761.0	341117.0	-8388608.0
23	18	6	22	395	61.0	-66651.0	343828.0	-8388608.0
23	18	6	22	395	62.0	-57699.0	346366.0	-8388608.0
23	18	6	22	396	63.0	-48990.0	348782.0	-8388608.0
23	18	6	22	427	64.0	-40899.0	351079.0	-8388608.0
23	18	6	22	427	65.0	-34561.0	353231.0	-8388608.0
23	18	6	22	428	66.0	-30187.0	355228.0	-8388608.0
23	18	6	22	429	67.0	-28627.0	357079.0	-8388608.0
23	18	6	22	430	68.0	-31189.0	358807.0	-8388608.0
23	18	6	22	431	69.0	-38792.0	360392.0	-8388608.0
23	18	6	22	431	70.0	-50828.0	361854.0	-8388608.0
23	18	6	22	432	71.0	-65713.0	363163.0	-8388608.0
23	18	6	22	433	72.0	-82423.0	364339.0	-8388608.0
23	18	6	22	433	73.0	-100044.0	365387.0	-8388608.0
23	18	6	22	434	74.0	-117702.0	366301.0	-8388608.0
23	18	6	22	435	75.0	-135505.0	367076.0	-8388608.0
23	18	6	22	435	76.0	-152617.0	367678.0	-8388608.0
23	18	6	22	436	77.0	-168210.0	368163.0	-8388608.0
23	18	6	22	437	78.0	-182194.0	368491.0	-8388608.0
23	18	6	22	437	80.0	-204063.0	368676.0	-8388608.0
23	18	6	22	438	81.0	-211699.0	368532.0	-8388608.0
23	18	6	22	439	82.0	-217443.0	368250.0	-8388608.0
23	18	6	22	439	83.0	-221622.0	367819.0	-8388608.0
23	18	6	22	440	84.0	-224897.0	367214.0	-8388608.0
23	18	6	22	440	85.0	-228020.0	366453.0	-8388608.0
23	18	6	22	472	86.0	-231694.0	365539.0	-8388608.0
23	18	6	22	473	87.0	-235744.0	364458.0	-8388608.0
23	18	6	22	474	88.0	-238986.0	363189.0	-8388608.0
23	18	6	22	474	89.0	-241692.0	361758.0	-8388608.0
23	18	6	22	475	90.0	-244137.0	360176.0	-8388608.0
23	18	6	22	476	91.0	-245259.0	358424.0	-8388608.0
23	18	6	22	477	92.0	-244863.0	356501.0	-8388608.0
23	18	6	22	477	93.0	-244222.0	354462.0	-8388608.0
23	18	6	22	478	94.0	-243856.0	352278.0	-8388608.0
23	18	6	22	479	95.0	-244159.0	349983.0	-8388608.0
23	18	6	22	479	96.0	-244028.0	347620.0	-8388608.0
23	18	6	22	480	97.0	-242606.0	345180.0	-8388608.0
23	18	6	22	481	98.0	-239714.0	342672.0	-8388608.0
23	18	6	22	482	99.0	-235029.0	340058.0	-8388608.0
23	18	6	22	483	100.0	-229108.0	337379.0	-8388608.0
23	18	6	22	483	102.0	-210691.0	331793.0	-8388608.0
23	18	6	22	484	103.0	-195729.0	328889.0	-8388608.0
23	18	6	22	485	104.0	-181550.0	325889.0	-8388608.0
23	18	6	22	485	105.0	-169768.0	322844.0	-8388608.0
23	18	6	22	486	106.0	-164798.0	319692.0	-8388608.0
23	18	6	22	486	107.0	-165821.0	316451.0	-8388608.0
23	18	6	22	487	108.0	-168204.0	313158.0	-8388608.0
23	18	6	22	516	109.0	-173281.0	309743.0	-8388608.0
23	18	6	22	517	110.0	-177600.0	306227.0	-8388608.0
23	18	6	22	518	111.0	-179186.0	302589.0	-8388608.0
23	18	6	22	518	112.0	-179149.0	298838.0	-8388608.0
23	18	6	22	519	113.0	-180416.0	294974.0	-8388608.0
23	18	6	22	520	114.0	-185088.0	291003.0	-8388608.0
23	18	6	22	520	115.0	-190211.0	286923.0	-8388608.0
23	18	6	22	521	116.0	-194201.0	282771.0	-8388608.0
23	18	6	22	522	117.0	-197827.0	278538.0	-8388608.0
23	18	6	22	522	118.0	-200291.0	274245.0	-8388608.0
23	18	6	22	523	119.0	-201341.0	269911.0	-8388608.0
23	18	6	22	524	120.0	-201890.0	265526.0	-8388608.0
23	18	6	22	524	121.0	-204579.0	261146.0	-8388608.0
23	18	6	22	525	122.0	-205249.0	256727.0	-8388608.0
23	18	6	22	526	123.0	-205751.0	252291.0	-8388608.0
23	18	6	22	526	125.0	-223920.0	243405.0	-8388608.0
23	18	6	22	527	126.0	-233234.0	238974.0	-8388608.0
23	18	6	22	527	127.0	-240007.0	234558.0	-8388608.0
23	18	6	22	528	128.0	-242692.0	230153.0	-8388608.0
23	18	6	22	528	129.0	-242313.0	225785.0	-8388608.0
23	18	6	22	529	130.0	-240285.0	221429.0	-8388608.0
23	18	6	22	561	131.0	-239497.0	217105.0	-8388608.0
23	18	6	22	562	132.0	-241602.0	212767.0	-8388608.0
23	18	6	22	563	133.0	-245434.0	208471.0	-8388608.0
23	18	6	22	564	134.0	-249605.0	204179.0	-8388608.0
23	18	6	22	564	135.0	-252567.0	199906.0	-8388608.0
23	18	6	22	565	136.0	-255177.0	195666.0	-8388608.0
23	18	6	22	566	137.0	-256472.0	191461.0	-8388608.0
23	18	6	22	566	138.0	-256755.0	187243.0	-8388608.0
23	18	6	22	567	139.0	-256661.0	183048.0	-8388608.0
23	18	6	22	568	140.0	-255333.0	178898.0	-8388608.0
23	18	6	22	568	141.0	-252909.0	174751.0	-8388608.0
23	18	6	22	569	142.0	-248658.0	170603.0	-8388608.0
23	18	6	22	570	143.0	-242965.0	166499.0	-8388608.0
23	18	6	22	570	144.0	-235787.0	162390.0	-8388608.0
23	18	6	22	571	145.0	-227256.0	158320.0	-8388608.0
23	18	6	22	571	147.0	-209048.0	150215.0	-8388608.0
23	18	6	22	572	148.0	-198756.0	146221.0	-8388608.0
23	18	6	22	573	149.0	-187861.0	142263.0	-8388608.0
23	18	6	22	574	150.0	-176021.0	138364.0	-8388608.0
23	18	6	22	574	151.0	-163970.0	134488.0	-8388608.0
23	18	6	22	575	152.0	-151674.0	130658.0	-8388608.0
23	18	6	22	575	153.0	-139492.0	126870.0	-8388608.0
23	18	6	22	606	154.0	-127536.0	123114.0	-8388608.0
23	18	6	22	606	155.0	-117252.0	119439.0	-8388608.0
23	18	6	22	607	156.0	-109244.0	115807.0	-8388608.0
23	18	6	22	608	157.0	-103561.0	112199.0	-8388608.0
23	18	6	22	608	158.0	-101215.0	108649.0	-8388608.0
23	18	6	22	609	159.0	-102224.0	105155.0	-8388608.0
23	18	6	22	610	160.0	-105449.0	101719.0	-8388608.0
23	18	6	22	610	161.0	-111284.0	98322.0	-8388608.0
23	18	6	22	611	162.0	-119014.0	94942.0	-8388608.0
23	18	6	22	612	163.0	-128367.0	91619.0	-8388608.0
23	18	6	22	612	164.0	-138889.0	88355.0	-8388608.0
23	18	6	22	613	165.0	-149629.0	85142.0	-8388608.0
23	18	6	22	614	166.0	-160505.0	81936.0	-8388608.0
23	18	6	22	614	167.0	-170909.0	78788.0	-8388608.0
23	18	6	22	615	168.0	-180539.0	75687.0	-8388608.0
23	18	6	22	615	170.0	-196107.0	69613.0	-8388608.0
23	18	6	22	616	171.0	-202499.0	66626.0	-8388608.0
23	18	6	22	617	172.0	-208161.0	63716.0	-8388608.0
23	18	6	22	617	173.0	-213669.0	60853.0	-8388608.0
23	18	6	22	618	174.0	-218026.0	58048.0	-8388608.0
23	18	6	22	651	175.0	-221413.0	55274.0	-8388608.0
23	18	6	22	652	176.0	-224357.0	52551.0	-8388608.0
23	18	6	22	652	177.0	-225576.0	49893.0	-8388608.0
23	18	6	22	653	178.0	-225389.0	47264.0	-8388608.0
23	18	6	22	654	179.0	-223741.0	44658.0	-8388608.0
23	18	6	22	655	180.0	-221254.0	42118.0	-8388608.0
23	18	6	22	655	181.0	-217411.0	39614.0	-8388608.0
23	18	6	22	656	182.0	-212987.0	37168.0	-8388608.0
23	18	6	22	656	183.0	-208204.0	34771.0	-8388608.0
23	18	6	22	657	184.0	-203319.0	32429.0	-8388608.0
23	18	6	22	658	185.0	-197994.0	30133.0	-8388608.0
23	18	6	22	658	186.0	-192352.0	27858.0	-8388608.0
23	18	6	22	659	187.0	-186282.0	25636.0	-8388608.0
23	18	6	22	660	188.0	-179970.0	23473.0	-8388608.0
23	18	6	22	660	189.0	-173476.0	21348.0	-8388608.0
23	18	6	22	661	190.0	-166994.0	19240.0	-8388608.0
23	18	6	22	661	192.0	-155154.0	15176.0	-8387892.0
23	18	6	22	662	193.0	-150343.0	13193.0	-8386041.0
23	18	6	22	663	194.0	-145698.0	11263.0	-8384241.0
23	18	6	22	663	195.0	-141670.0	9381.0	-8382170.0
23	18	6	22	664	196.0	-138016.0	7511.0	-8380348.0
23	18	6	22	664	197.0	-134487.0	5699.0	-8378680.0
23	18	6	22	665	198.0	-131681.0	3912.0	-8376913.0
23	18	6	22	696	199.0	-129731.0	2162.0	-8375081.0
23	18	6	22	697	200.0	-128462.0	433.0	-8373067.0
23	18	6	22	698	201.0	-127771.0	-1269.0	-8371321.0
23	18	6	22	699	202.0	-127605.0	-2921.0	-8369506.0
23	18	6	22	699	203.0	-127699.0	-4541.0	-8367619.0
23	18	6	22	700	204.0	-127782.0	-6139.0	-8365737.0
23	18	6	22	701	205.0	-127852.0	-7688.0	-8363897.0
23	18	6	22	701	206.0	-128407.0	-9226.0	-8362056.0
23	18	6	22	702	207.0	-129207.0	-10729.0	-8360204.0
23	18	6	22	703	208.0	-131057.0	-12181.0	-8358374.0
23	18	6	22	703	209.0	-132975.0	-13621.0	-8356580.0
23	18	6	22	704	210.0	-134581.0	-15035.0	-8354791.0
23	18	6	22	705	211.0	-136667.0	-16427.0	-8352959.0
23	18	6	22	705	212.0	-139507.0	-17782.0	-8351080.0
23	18	6	22	706	213.0	-143556.0	-19101.0	-8349281.0
23	18	6	22	707	215.0	-156142.0	-21657.0	-8345393.0
23	18	6	22	707	216.0	-164094.0	-22888.0	-8343541.0
23	18	6	22	708	217.0	-172374.0	-24107.0	-8341855.0
23	18	6	22	709	218.0	-180669.0	-25272.0	-8340040.0
23	18	6	22	709	219.0	-188491.0	-26419.0	-8338056.0
23	18	6	22	710	220.0	-195442.0	-27511.0	-8336354.0
23	18	6	22	741	221.0	-201020.0	-28619.0	-8334819.0
23	18	6	22	742	222.0	-205385.0	-29709.0	-8332974.0
23	18	6	22	742	223.0	-208779.0	-30757.0	-8330981.0
23	18	6	22	743	224.0	-211728.0	-31792.0	-8329032.0
23	18	6	22	744	225.0	-214314.0	-32815.0	-8327249.0
23	18	6	22	744	226.0	-217036.0	-33834.0	-8325376.0
23	18	6	22	745	227.0	-220276.0	-34815.0	-8323508.0
23	18	6	22	745	228.0	-224894.0	-35769.0	-8321819.0
23	18	6	22	746	229.0	-230162.0	-36699.0	-8320137.0
23	18	6	22	747	230.0	-235663.0	-37586.0	-8318433.0
23	18	6	22	747	231.0	-241325.0	-38480.0	-8316704.0
23	18	6	22	748	232.0	-246763.0	-39340.0	-8314881.0
23	18	6	22	748	233.0	-251711.0	-40179.0	-8313086.0
23	18	6	22	749	234.0	-255392.0	-41012.0	-8311232.0
23	18	6	22	749	235.0	-257809.0	-41811.0	-8309361.0
23	18	6	22	750	237.0	-258887.0	-43370.0	-8305927.0
23	18	6	22	751	238.0	-257610.0	-44111.0	-8304076.0
23	18	6	22	751	239.0	-254508.0	-44822.0	-8302229.0
23	18	6	22	752	240.0	-249993.0	-45500.0	-8300469.0
23	18	6	22	752	241.0	-244494.0	-46196.0	-8298774.0
23	18	6	22	753	242.0	-238212.0	-46864.0	-8296901.0
23	18	6	22	786	243.0	-231776.0	-47519.0	-8295066.0
23	18	6	22	786	244.0	-225154.0	-48159.0	-8293346.0
23	18	6	22	787	245.0	-218139.0	-48756.0	-8291561.0
23	18	6	22	788	246.0	-210912.0	-49371.0	-8289649.0
23	18	6	22	789	247.0	-202837.0	-49957.0	-8287802.0
23	18	6	22	789	248.0	-194301.0	-50553.0	-8286039.0
23	18	6	22	790	249.0	-185459.0	-51114.0	-8284447.0
23	18	6	22	791	250.0	-176238.0	-51652.0	-8282734.0
23	18	6	22	803	251.0	-167190.0	-52175.0	-8280894.0
23	18	6	22	804	252.0	-158422.0	-52692.0	-8279142.0
23	18	6	22	804	253.0	-150144.0	-53192.0	-8277451.0
23	18	6	22	805	254.0	-142672.0	-53685.0	-8275726.0
23	18	6	22	805	255.0	-136291.0	-54166.0	-8273834.0
23	18	6	22	806	0.0	-130729.0	-54621.0	-8272142.0
23	18	6	22	807	1.0	-126171.0	-55046.0	-8270504.0
23	18	6	22	807	3.0	-120193.0	-55876.0	-8267034.0
23	18	6	22	808	4.0	-118584.0	-56269.0	-8265358.0
23	18	6	22	808	5.0	-118406.0	-56659.0	-8263647.0
23	18	6	22	809	6.0	-119494.0	-57021.0	-8261807.0
23	18	6	22	809	7.0	-121461.0	-57368.0	-8260082.0
23	18	6	22	810	8.0	-124684.0	-57727.0	-8258408.0
23	18	6	22	810	9.0	-129054.0	-58036.0	-8256642.0
23	18	6	22	831	10.0	-135191.0	-58342.0	-8254862.0
23	18	6	22	831	11.0	-142466.0	-58653.0	-8253104.0
23	18	6	22	832	12.0	-151292.0	-58949.0	-8251490.0
23	18	6	22	833	13.0	-160709.0	-59226.0	-8249844.0
23	18	6	22	833	14.0	-169841.0	-59502.0	-8248018.0
23	18	6	22	834	15.0	-179223.0	-59777.0	-8246167.0
23	18	6	22	834	16.0	-189109.0	-60040.0	-8244394.0
23	18	6	22	835	17.0	-198864.0	-60277.0	-8242705.0
23	18	6	22	835	18.0	-208294.0	-60524.0	-8240905.0
23	18	6	22	836	19.0	-216587.0	-60730.0	-8239220.0
23	18	6	22	837	20.0	-223931.0	-60950.0	-8237602.0
23	18	6	22	837	21.0	-230506.0	-61187.0	-8236022.0
23	18	6	22	838	22.0	-236165.0	-61386.0	-8234386.0
23	18	6	22	838	23.0	-240831.0	-61595.0	-8232589.0
23	18	6	22	839	24.0	-244314.0	-61799.0	-8230826.0
23	18	6	22	840	26.0	-248685.0	-62180.0	-8227264.0
23	18	6	22	840	27.0	-249113.0	-62348.0	-8225500.0
23	18	6	22	841	28.0	-248078.0	-62492.0	-8223807.0
23	18	6	22	841	29.0	-246323.0	-62652.0	-8222184.0
23	18	6	22	842	30.0	-243514.0	-62811.0	-8220457.0
23	18	6	22	843	31.0	-240321.0	-62946.0	-8218829.0
23	18	6	22	875	32.0	-236986.0	-63052.0	-8217254.0
23	18	6	22	876	33.0	-232979.0	-63200.0	-8215577.0
23	18	6	22	876	34.0	-228708.0	-63323.0	-8213756.0
23	18	6	22	877	35.0	-223994.0	-63450.0	-8212038.0
23	18	6	22	880	36.0	-218878.0	-63577.0	-8210360.0
23	18	6	22	881	37.0	-213380.0	-63667.0	-8208705.0
23	18	6	22	882	38.0	-207402.0	-63776.0	-8207000.0
23	18	6	22	882	39.0	-201261.0	-63851.0	-8205276.0
23	18	6	22	883	40.0	-194851.0	-63932.0	-8203634.0
23	18	6	22	883	41.0	-188326.0	-63991.0	-8201985.0
23	18	6	22	884	42.0	-182447.0	-64064.0	-8200271.0
23	18	6	22	884	43.0	-177011.0	-64113.0	-8198494.0
23	18	6	22	885	44.0	-172296.0	-64162.0	-8196847.0
23	18	6	22	886	45.0	-169166.0	-64211.0	-8195274.0
23	18	6	22	886	46.0	-167622.0	-64239.0	-8193591.0
23	18	6	22	887	48.0	-169667.0	-64296.0	-8190156.0
23	18	6	22	887	49.0	-173434.0	-64304.0	-8188422.0
23	18	6	22	888	50.0	-178424.0	-64304.0	-8186674.0
23	18	6	22	888	51.0	-185334.0	-64321.0	-8185142.0
23	18	6	22	889	52.0	-193438.0	-64299.0	-8183572.0
23	18	6	22	889	53.0	-200902.0	-64273.0	-8181994.0
23	18	6	22	890	54.0	-206308.0	-64269.0	-8180421.0
23	18	6	22	920	55.0	-209167.0	-64256.0	-8178750.0
23	18	6	22	921	56.0	-210263.0	-64219.0	-8177112.0
23	18	6	22	922	57.0	-210962.0	-64196.0	-8175422.0
23	18	6	22	922	58.0	-212340.0	-64169.0	-8173747.0
23	18	6	22	923	59.0	-214477.0	-64150.0	-8172137.0
23	18	6	22	923	60.0	-217641.0	-64119.0	-8170587.0
23	18	6	22	924	61.0	-222166.0	-64076.0	-8168864.0
23	18	6	22	924	62.0	-227773.0	-64034.0	-8167147.0
23	18	6	22	925	63.0	-232791.0	-64006.0	-8165577.0
23	18	6	22	926	64.0	-236041.0	-63979.0	-8163881.0
23	18	6	22	926	65.0	-238668.0	-63908.0	-8162171.0
23	18	6	22	927	66.0	-242696.0	-63851.0	-8160536.0
23	18	6	22	927	67.0	-247309.0	-63807.0	-8159034.0
23	18	6	22	928	68.0	-249696.0	-63761.0	-8157430.0
23	18	6	22	928	69.0	-248366.0	-63690.0	-8155725.0
23	18	6	22	936	71.0	-227402.0	-63592.0	-8152463.0
23	18	6	22	937	72.0	-208508.0	-63530.0	-8150852.0
23	18	6	22	938	73.0	-188279.0	-63462.0	-8149077.0
23	18	6	22	938	74.0	-170786.0	-63396.0	-8147359.0
23	18	6	22	939	75.0	-158368.0	-63322.0	-8145841.0
23	18	6	22	939	76.0	-151052.0	-63225.0	-8144229.0
23	18	6	22	966	77.0	-147432.0	-63148.0	-8142620.0
23	18	6	22	967	78.0	-145902.0	-63072.0	-8141000.0
23	18	6	22	967	79.0	-145111.0	-62997.0	-8139416.0
23	18	6	22	968	80.0	-144488.0	-62939.0	-8137712.0
23	18	6	22	968	81.0	-145431.0	-62868.0	-8136102.0
23	18	6	22	969	82.0	-148561.0	-62766.0	-8134630.0
23	18	6	22	970	83.0	-154047.0	-62693.0	-8133101.0
23	18	6	22	970	84.0	-160577.0	-62599.0	-8131531.0
23	18	6	22	971	85.0	-166506.0	-62506.0	-8129893.0
23	18	6	22	971	86.0	-171265.0	-62393.0	-8128222.0
23	18	6	22	972	87.0	-175335.0	-62319.0	-8126605.0
23	18	6	22	972	88.0	-178502.0	-62220.0	-8124979.0
23	18	6	22	973	89.0	-180222.0	-62126.0	-8123246.0
23	18	6	22	974	90.0	-181289.0	-62016.0	-8121686.0
23	18	6	22	974	91.0	-182209.0	-61927.0	-8120171.0
23	18	6	22	975	93.0	-184272.0	-61719.0	-8116909.0
23	18	6	22	976	94.0	-185407.0	-61627.0	-8115407.0
23	18	6	22	976	95.0	-186515.0	-61540.0	-8113889.0
23	18	6	22	977	96.0	-187708.0	-61410.0	-8112216.0
23	18	6	22	977	97.0	-188381.0	-61279.0	-8110558.0
23	18	6	22	978	98.0	-188306.0	-61161.0	-8108994.0
23	18	6	22	978	99.0	-187896.0	-61046.0	-8107447.0
23	18	6	23	11	100.0	-186853.0	-60920.0	-8105817.0
23	18	6	23	12	101.0	-186276.0	-60768.0	-8104126.0
23	18	6	23	12	102.0	-185813.0	-60637.0	-8102738.0
23	18	6	23	13	103.0	-185031.0	-60522.0	-8101231.0
23	18	6	23	14	104.0	-184338.0	-60392.0	-8099571.0
23	18	6	23	14	105.0	-184487.0	-60269.0	-8097975.0
23	18	6	23	15	106.0	-185151.0	-60153.0	-8096399.0
23	18	6	23	15	107.0	-185994.0	-60000.0	-8094781.0
23	18	6	23	16	108.0	-186822.0	-59839.0	-8093089.0
23	18	6	23	16	109.0	-187622.0	-59702.0	-8091389.0
23	18	6	23	17	110.0	-188845.0	-59572.0	-8089942.0
23	18	6	23	18	111.0	-190311.0	-59439.0	-8088412.0
23	18	6	23	18	112.0	-192014.0	-59286.0	-8086786.0
23	18	6	23	19	113.0	-194079.0	-59127.0	-8085332.0
23	18	6	23	20	114.0	-196777.0	-58973.0	-8083899.0
23	18	6	23	20	116.0	-203131.0	-58650.0	-8080749.0
23	18	6	23	21	117.0	-206379.0	-58491.0	-8079109.0
23	18	6	23	22	118.0	-209604.0	-58332.0	-8077561.0
23	18	6	23	23	119.0	-212832.0	-58165.0	-8075899.0
23	18	6	23	23	120.0	-215981.0	-58002.0	-8074155.0
23	18	6	23	24	121.0	-218609.0	-57819.0	-8072658.0
23	18	6	23	56	122.0	-220672.0	-57647.0	-8071226.0
23	18	6	23	57	123.0	-221784.0	-57480.0	-8069813.0
23	18	6	23	58	124.0	-221510.0	-57294.0	-8068281.0
23	18	6	23	58	125.0	-220226.0	-57121.0	-8066789.0
23	18	6	23	59	126.0	-218082.0	-56950.0	-8065212.0
23	18	6	23	59	127.0	-214992.0	-56772.0	-8063624.0
23	18	6	23	60	128.0	-211376.0	-56592.0	-8062004.0
23	18	6	23	60	129.0	-207012.0	-56394.0	-8060473.0
23	18	6	23	61	130.0	-202608.0	-56181.0	-8059051.0
23	18	6	23	63	131.0	-198749.0	-55984.0	-8057476.0
23	18	6	23	63	132.0	-195470.0	-55767.0	-8055970.0
23	18	6	23	64	133.0	-192639.0	-55546.0	-8054531.0
23	18	6	23	64	134.0	-189907.0	-55350.0	-8052976.0
23	18	6	23	65	135.0	-187464.0	-55134.0	-8051424.0
23	18	6	23	66	136.0	-184641.0	-54900.0	-8049810.0
23	18	6	23	66	138.0	-178136.0	-54414.0	-8046913.0
23	18	6	23	67	139.0	-174662.0	-54174.0	-8045242.0
23	18	6	23	67	140.0	-171098.0	-53919.0	-8043650.0
23	18	6	23	68	141.0	-167779.0	-53669.0	-8042206.0
23	18	6	23	68	142.0	-165036.0	-53409.0	-8040766.0
23	18	6	23	69	143.0	-162944.0	-53147.0	-8039089.0
23	18	6	23	100	144.0	-161269.0	-52880.0	-8037562.0
23	18	6	23	100	145.0	-159997.0	-52588.0	-8036237.0
23	18	6	23	101	146.0	-159061.0	-52304.0	-8034692.0
23	18	6	23	101	147.0	-159059.0	-52018.0	-8033094.0
23	18	6	23	102	148.0	-159810.0	-51737.0	-8031590.0
23	18	6	23	103	149.0	-160712.0	-51447.0	-8030164.0
23	18	6	23	103	150.0	-161909.0	-51154.0	-8028697.0
23	18	6	23	104	151.0	-163986.0	-50851.0	-8027174.0
23	18	6	23	105	152.0	-167158.0	-50567.0	-8025625.0
23	18	6	23	105	153.0	-171104.0	-50257.0	-8024174.0
23	18	6	23	106	154.0	-175612.0	-49965.0	-8022714.0
23	18	6	23	119	155.0	-180635.0	-49679.0	-8021114.0
23	18	6	23	120	156.0	-186356.0	-49369.0	-8019583.0
23	18	6	23	121	157.0	-192616.0	-49065.0	-8018011.0
23	18	6	23	121	158.0	-199120.0	-48784.0	-8016469.0
23	18	6	23	122	161.0	-217576.0	-47827.0	-8012131.0
23	18	6	23	122	162.0	-222954.0	-47524.0	-8010596.0
23	18	6	23	123	163.0	-227674.0	-47200.0	-8009020.0
23	18	6	23	124	164.0	-231502.0	-46891.0	-8007632.0
23	18	6	23	124	165.0	-234798.0	-46587.0	-8006296.0
23	18	6	23	125	166.0	-237089.0	-46275.0	-8004700.0
23	18	6	23	146	167.0	-238055.0	-45968.0	-8003078.0
23	18	6	23	146	168.0	-238229.0	-45659.0	-8001644.0
23	18	6	23	147	169.0	-237591.0	-45367.0	-8000272.0
23	18	6	23	148	170.0	-236101.0	-45087.0	-7998651.0
23	18	6	23	148	171.0	-234304.0	-44792.0	-7997136.0
23	18	6	23	149	172.0	-231039.0	-44484.0	-7995666.0
23	18	6	23	149	173.0	-226731.0	-44196.0	-7994166.0
23	18	6	23	150	174.0	-222066.0	-43908.0	-7992737.0
23	18	6	23	151	175.0	-217419.0	-43614.0	-7991214.0
23	18	6	23	151	176.0	-212534.0	-43329.0	-7989734.0
23	18	6	23	152	177.0	-207724.0	-43049.0	-7988253.0
23	18	6	23	152	178.0	-202677.0	-42742.0	-7986751.0
23	18	6	23	153	179.0	-197399.0	-42439.0	-7985299.0
23	18	6	23	154	180.0	-192046.0	-42151.0	-7984056.0
23	18	6	23	154	181.0	-186504.0	-41874.0	-7982704.0
23	18	6	23	155	183.0	-176531.0	-41308.0	-7979512.0
23	18	6	23	156	184.0	-172150.0	-41029.0	-7977960.0
23	18	6	23	156	185.0	-168457.0	-40733.0	-7976687.0
23	18	6	23	157	186.0	-165289.0	-40457.0	-7975144.0
23	18	6	23	158	187.0	-162196.0	-40187.0	-7973642.0
23	18	6	23	158	188.0	-158964.0	-39898.0	-7972241.0
23	18	6	23	191	189.0	-156192.0	-39621.0	-7970715.0
23	18	6	23	192	190.0	-154384.0	-39358.0	-7969136.0
23	18	6	23	193	191.0	-153391.0	-39077.0	-7967711.0
23	18	6	23	193	192.0	-152960.0	-38796.0	-7966392.0
23	18	6	23	194	193.0	-153169.0	-38537.0	-7965046.0
23	18	6	23	194	194.0	-153913.0	-38287.0	-7963716.0
23	18	6	23	195	195.0	-155410.0	-38029.0	-7962391.0
23	18	6	23	196	196.0	-157731.0	-37776.0	-7961004.0
23	18	6	23	196	197.0	-161327.0	-37522.0	-7959405.0
23	18	6	23	197	198.0	-165771.0	-37264.0	-7957807.0
23	18	6	23	197	199.0	-170399.0	-37015.0	-7956366.0
23	18	6	23	198	200.0	-175317.0	-36789.0	-7954931.0
23	18	6	23	199	201.0	-179931.0	-36565.0	-7953370.0
23	18	6	23	199	202.0	-183852.0	-36341.0	-7951781.0
23	18	6	23	200	203.0	-187443.0	-36106.0	-7950497.0
23	18	6	23	201	205.0	-192239.0	-35679.0	-7947679.0
23	18	6	23	201	206.0	-193776.0	-35467.0	-7946182.0
23	18	6	23	202	207.0	-192326.0	-35260.0	-7944879.0
23	18	6	23	202	208.0	-189903.0	-35039.0	-7943511.0
23	18	6	23	203	209.0	-189039.0	-34812.0	-7942000.0
23	18	6	23	204	210.0	-189892.0	-34602.0	-7940467.0
23	18	6	23	204	211.0	-192296.0	-34390.0	-7939147.0
23	18	6	23	236	212.0	-199959.0	-34183.0	-7937791.0
23	18	6	23	237	213.0	-207226.0	-33974.0	-7936433.0
23	18	6	23	238	214.0	-214432.0	-33754.0	-7935033.0
23	18	6	23	239	215.0	-220937.0	-33560.0	-7933631.0
23	18	6	23	239	216.0	-223002.0	-33369.0	-7932151.0
23	18	6	23	240	217.0	-222458.0	-33181.0	-7930564.0
23	18	6	23	240	218.0	-218189.0	-32994.0	-7929126.0
23	18	6	23	241	219.0	-214270.0	-32787.0	-7927752.0
23	18	6	23	242	220.0	-218279.0	-32609.0	-7926378.0
23	18	6	23	242	221.0	-223354.0	-32437.0	-7924972.0
23	18	6	23	243	222.0	-227998.0	-32251.0	-7923607.0
23	18	6	23	243	223.0	-231185.0	-32089.0	-7922179.0
23	18	6	23	244	224.0	-230282.0	-31910.0	-7920682.0
23	18	6	23	245	225.0	-224326.0	-31732.0	-7919195.0
23	18	6	23	245	226.0	-215089.0	-31544.0	-7917964.0
23	18	6	23	246	228.0	-198214.0	-31217.0	-7914962.0
23	18	6	23	247	229.0	-192802.0	-31048.0	-7913382.0
23	18	6	23	247	230.0	-188151.0	-30854.0	-7911373.0
23	18	6	23	248	231.0	-183701.0	-30681.0	-7906804.0
23	18	6	23	248	232.0	-179646.0	-30522.0	-7904678.0
23	18	6	23	249	233.0	-175350.0	-30363.0	-7906667.0
23	18	6	23	280	234.0	-171011.0	-30202.0	-7906518.0
23	18	6	23	281	235.0	-166561.0	-30028.0	-7905214.0
23	18	6	23	326	236.0	-161977.0	-29865.0	-7903011.0
23	18	6	23	327	237.0	-157865.0	-29725.0	-7895669.0
23	18	6	23	327	238.0	-153872.0	-29576.0	-7887710.0
23	18	6	23	328	239.0	-150356.0	-29409.0	-7887737.0
23	18	6	23	329	240.0	-147869.0	-29281.0	-7893954.0
23	18	6	23	329	241.0	-146092.0	-29148.0	-7896412.0
23	18	6	23	330	242.0	-145162.0	-29025.0	-7894811.0
23	18	6	23	331	243.0	-145220.0	-28901.0	-7888556.0
23	18	6	23	331	244.0	-146271.0	-28774.0	-7875764.0
23	18	6	23	332	245.0	-147919.0	-28635.0	-7867593.0
23	18	6	23	332	246.0	-149631.0	-28499.0	-7869720.0
23	18	6	23	333	247.0	-151880.0	-28391.0	-7879898.0
23	18	6	23	334	248.0	-155385.0	-28262.0	-7885960.0
23	18	6	23	334	250.0	-166293.0	-28066.0	-7866809.0
23	18	6	23	335	251.0	-173116.0	-27986.0	-7850450.0
23	18	6	23	335	17.0	-226658.0	-26347.0	-7702257.0
23	18	6	23	336	18.0	-222166.0	-26283.0	-7698436.0
23	18	6	23	336	19.0	-217181.0	-26236.0	-7691012.0
23	18	6	23	337	20.0	-212277.0	-26191.0	-7682982.0
23	18	6	23	338	21.0	-206958.0	-26142.0	-7673837.0
23	18	6	23	338	22.0	-201777.0	-26086.0	-7661394.0
23	18	6	23	371	23.0	-196624.0	-26042.0	-7652212.0
23	18	6	23	372	24.0	-191809.0	-25992.0	-7644402.0
23	18	6	23	372	25.0	-187411.0	-25949.0	-7635758.0
23	18	6	23	373	26.0	-183242.0	-25941.0	-7628626.0
23	18	6	23	374	27.0	-179384.0	-25899.0	-7620939.0
23	18	6	23	374	28.0	-176019.0	-25882.0	-7614562.0
23	18	6	23	375	29.0	-173334.0	-25846.0	-7607776.0
23	18	6	23	376	30.0	-171544.0	-25824.0	-7601237.0
23	18	6	23	376	31.0	-170581.0	-25801.0	-7594832.0
23	18	6	23	377	32.0	-170422.0	-25762.0	-7586441.0
23	18	6	23	378	33.0	-170312.0	-25752.0	-7578350.0
23	18	6	23	378	34.0	-170454.0	-25745.0	-7570519.0
23	18	6	23	379	35.0	-170979.0	-25742.0	-7561892.0
23	18	6	23	379	36.0	-171809.0	-25727.0	-7552806.0
23	18	6	23	380	37.0	-172900.0	-25723.0	-7544661.0
23	18	6	23	381	39.0	-175989.0	-25697.0	-7529337.0
23	18	6	23	381	40.0	-177992.0	-25709.0	-7521386.0
23	18	6	23	382	41.0	-180073.0	-25704.0	-7514029.0
23	18	6	23	383	42.0	-181808.0	-25684.0	-7505567.0
23	18	6	23	384	43.0	-182975.0	-25712.0	-7495929.0
23	18	6	23	384	44.0	-183949.0	-25719.0	-7485596.0
23	18	6	23	385	45.0	-184841.0	-25727.0	-7477298.0
23	18	6	23	416	46.0	-185639.0	-25734.0	-7470802.0
23	18	6	23	417	47.0	-186409.0	-25746.0	-7464757.0
23	18	6	23	418	48.0	-187211.0	-25776.0	-7457454.0
23	18	6	23	418	49.0	-188096.0	-25786.0	-7449621.0
23	18	6	23	419	50.0	-189124.0	-25807.0	-7442121.0
23	18	6	23	419	51.0	-189893.0	-25846.0	-7435407.0
23	18	6	23	420	52.0	-190188.0	-25894.0	-7426832.0
23	18	6	23	421	53.0	-189766.0	-25921.0	-7417563.0
23	18	6	23	421	54.0	-189248.0	-25936.0	-7408574.0
23	18	6	23	422	55.0	-188542.0	-25969.0	-7400464.0
23	18	6	23	422	56.0	-187409.0	-26001.0	-7394703.0
23	18	6	23	423	57.0	-186071.0	-26024.0	-7389576.0
23	18	6	23	424	58.0	-184334.0	-26076.0	-7384693.0
23	18	6	23	424	59.0	-182702.0	-26111.0	-7379381.0
23	18	6	23	425	60.0	-181375.0	-26144.0	-7373349.0
23	18	6	23	425	62.0	-178455.0	-26149.0	-7358461.0
23	18	6	23	426	63.0	-177127.0	-26184.0	-7351439.0
23	18	6	23	427	64.0	-176266.0	-26207.0	-7341559.0
23	18	6	23	428	65.0	-175486.0	-26236.0	-7333190.0
23	18	6	23	428	66.0	-175011.0	-26256.0	-7325319.0
23	18	6	23	429	67.0	-175047.0	-26283.0	-7318226.0
23	18	6	23	461	68.0	-175359.0	-26296.0	-7312102.0
23	18	6	23	462	69.0	-176335.0	-26311.0	-7305695.0
23	18	6	23	463	70.0	-177847.0	-26313.0	-7300011.0
23	18	6	23	463	71.0	-179767.0	-26333.0	-7292144.0
23	18	6	23	464	72.0	-182141.0	-26354.0	-7283291.0
23	18	6	23	465	73.0	-184649.0	-26374.0	-7275727.0
23	18	6	23	465	74.0	-187612.0	-26380.0	-7267099.0
23	18	6	23	466	75.0	-190657.0	-26418.0	-7259317.0
23	18	6	23	466	76.0	-193811.0	-26454.0	-7251077.0
23	18	6	23	467	77.0	-197058.0	-26487.0	-7244755.0
23	18	6	23	468	78.0	-199982.0	-26517.0	-7238735.0
23	18	6	23	468	79.0	-202308.0	-26535.0	-7230687.0
23	18	6	23	469	80.0	-204331.0	-26554.0	-7223062.0
23	18	6	23	469	81.0	-205407.0	-26576.0	-7216751.0
23	18	6	23	470	82.0	-205671.0	-26599.0	-7209959.0
23	18	6	23	471	84.0	-204227.0	-26663.0	-7192266.0
23	18	6	23	471	85.0	-203364.0	-26696.0	-7184827.0
23	18	6	23	472	86.0	-202252.0	-26725.0	-7178499.0
23	18	6	23	472	87.0	-200779.0	-26749.0	-7173833.0
23	18	6	23	473	88.0	-199174.0	-26795.0	-7168684.0
23	18	6	23	474	89.0	-197684.0	-26850.0	-7162386.0
23	18	6	23	506	90.0	-196089.0	-26881.0	-7157312.0
23	18	6	23	507	91.0	-194549.0	-26926.0	-7151389.0
23	18	6	23	508	92.0	-192496.0	-26939.0	-7143146.0
23	18	6	23	508	93.0	-190321.0	-27011.0	-7134149.0
23	18	6	23	509	94.0	-187919.0	-27069.0	-7125099.0
23	18	6	23	509	95.0	-185709.0	-27104.0	-7116761.0
23	18	6	23	510	96.0	-184016.0	-27158.0	-7109318.0
23	18	6	23	511	97.0	-182514.0	-27192.0	-7102569.0
23	18	6	23	511	98.0	-181121.0	-27217.0	-7097374.0
23	18	6	23	512	99.0	-179854.0	-27239.0	-7092341.0
23	18	6	23	513	100.0	-178999.0	-27282.0	-7086232.0
23	18	6	23	513	101.0	-178691.0	-27311.0	-7079129.0
23	18	6	23	514	102.0	-178946.0	-27361.0	-7071446.0
23	18	6	23	514	103.0	-179649.0	-27402.0	-7062894.0
23	18	6	23	515	104.0	-180479.0	-27447.0	-7055557.0
23	18	6	23	516	107.0	-185356.0	-27554.0	-7032586.0
23	18	6	23	516	108.0	-187174.0	-27587.0	-7024652.0
23	18	6	23	517	109.0	-189292.0	-27618.0	-7018192.0
23	18	6	23	517	110.0	-191874.0	-27633.0	-7010865.0
23	18	6	23	518	111.0	-194545.0	-27649.0	-7002416.0
23	18	6	23	518	112.0	-196869.0	-27676.0	-6993746.0
23	18	6	23	550	113.0	-199057.0	-27704.0	-6985072.0
23	18	6	23	551	114.0	-201053.0	-27736.0	-6977761.0
23	18	6	23	552	115.0	-203148.0	-27757.0	-6970578.0
23	18	6	23	552	116.0	-205108.0	-27797.0	-6961708.0
23	18	6	23	553	117.0	-206697.0	-27840.0	-6953326.0
23	18	6	23	554	118.0	-208409.0	-27863.0	-6945694.0
23	18	6	23	554	119.0	-209863.0	-27886.0	-6939179.0
23	18	6	23	555	120.0	-211024.0	-27904.0	-6931719.0
23	18	6	23	556	121.0	-211845.0	-27926.0	-6923660.0
23	18	6	23	556	122.0	-212331.0	-27940.0	-6915169.0
23	18	6	23	557	123.0	-212086.0	-27957.0	-6905861.0
23	18	6	23	558	124.0	-211329.0	-27972.0	-6895817.0
23	18	6	23	559	125.0	-210502.0	-28004.0	-6886499.0
23	18	6	23	559	126.0	-209156.0	-28007.0	-6877874.0
23	18	6	23	560	127.0	-207203.0	-28024.0	-6868509.0
23	18	6	23	561	129.0	-204892.0	-28075.0	-6852869.0
23	18	6	23	562	130.0	-203619.0	-28119.0	-6844745.0
23	18	6	23	563	131.0	-202566.0	-28143.0	-6836409.0
23	18	6	23	563	132.0	-198379.0	-28142.0	-6826548.0
23	18	6	23	564	133.0	-193672.0	-28167.0	-6817051.0
23	18	6	23	564	134.0	-189523.0	-28187.0	-6809085.0
23	18	6	23	642	135.0	-186046.0	-28216.0	-6802850.0
23	18	6	23	643	136.0	-183357.0	-28229.0	-6797324.0
23	18	6	23	644	137.0	-180842.0	-28257.0	-6791406.0
23	18	6	23	644	138.0	-179362.0	-28323.0	-6785613.0
23	18	6	23	645	139.0	-177115.0	-28384.0	-6779378.0
23	18	6	23	646	140.0	-174657.0	-28426.0	-6773544.0
23	18	6	23	646	141.0	-172727.0	-28470.0	-6766337.0
23	18	6	23	647	142.0	-171388.0	-28529.0	-6757464.0
23	18	6	23	648	143.0	-170915.0	-28592.0	-6749962.0
23	18	6	23	648	144.0	-170736.0	-28639.0	-6742238.0
23	18	6	23	649	145.0	-171136.0	-28688.0	-6735399.0
23	18	6	23	649	146.0	-171791.0	-28754.0	-6730350.0
23	18	6	23	650	147.0	-172541.0	-28792.0	-6724733.0
23	18	6	23	651	148.0	-173492.0	-28844.0	-6720179.0
23	18	6	23	651	149.0	-174868.0	-28899.0	-6714771.0
23	18	6	23	652	174.0	-195856.0	-30363.0	-6541279.0
23	18	6	23	653	175.0	-199135.0	-30409.0	-6535200.0
23	18	6	23	653	176.0	-203148.0	-30422.0	-6529588.0
23	18	6	23	654	177.0	-206350.0	-30454.0	-6523502.0
23	18	6	23	654	178.0	-207471.0	-30491.0	-6517097.0
23	18	6	23	655	179.0	-205050.0	-30521.0	-6510049.0
23	18	6	23	687	180.0	-199082.0	-30571.0	-6502174.0
23	18	6	23	688	181.0	-192259.0	-30575.0	-6495073.0
23	18	6	23	688	182.0	-186460.0	-30607.0	-6487272.0
23	18	6	23	689	183.0	-181076.0	-30647.0	-6480939.0
23	18	6	23	690	184.0	-179524.0	-30696.0	-6474912.0
23	18	6	23	691	185.0	-179749.0	-30747.0	-6469357.0
23	18	6	23	691	186.0	-181879.0	-30764.0	-6461989.0
23	18	6	23	692	187.0	-187895.0	-30803.0	-6454505.0
23	18	6	23	692	188.0	-195272.0	-30834.0	-6447408.0
23	18	6	23	693	189.0	-203201.0	-30841.0	-6440957.0
23	18	6	23	694	190.0	-211417.0	-30869.0	-6434647.0
23	18	6	23	695	191.0	-220061.0	-30882.0	-6426896.0
23	18	6	23	695	192.0	-227561.0	-30908.0	-6417070.0
23	18	6	23	696	193.0	-231442.0	-30937.0	-6406109.0
23	18	6	23	696	194.0	-232254.0	-30949.0	-6394130.0
23	18	6	23	697	196.0	-217264.0	-31009.0	-6374057.0
23	18	6	23	698	197.0	-205795.0	-31040.0	-6367886.0
23	18	6	23	698	198.0	-194631.0	-31039.0	-6362729.0
23	18	6	23	699	199.0	-184106.0	-31051.0	-6355966.0
23	18	6	23	699	200.0	-174701.0	-31082.0	-6348536.0
23	18	6	23	700	201.0	-168744.0	-31086.0	-6341774.0
23	18	6	23	701	202.0	-167656.0	-31106.0	-6334022.0
23	18	6	23	731	203.0	-170270.0	-31109.0	-6324959.0
23	18	6	23	732	204.0	-174656.0	-31118.0	-6315059.0
23	18	6	23	733	205.0	-178419.0	-31096.0	-6306009.0
23	18	6	23	733	206.0	-180672.0	-31124.0	-6298081.0
23	18	6	23	734	207.0	-181829.0	-31147.0	-6289126.0
23	18	6	23	735	208.0	-182972.0	-31159.0	-6279766.0
23	18	6	23	735	209.0	-184706.0	-31174.0	-6273096.0
23	18	6	23	736	210.0	-186867.0	-31196.0	-6266393.0
23	18	6	23	737	211.0	-188001.0	-31211.0	-6257737.0
23	18	6	23	737	212.0	-187754.0	-31249.0	-6248574.0
23	18	6	23	738	213.0	-185626.0	-31262.0	-6239326.0
23	18	6	23	739	214.0	-182704.0	-31267.0	-6230669.0
23	18	6	23	739	215.0	-179531.0	-31288.0	-6222913.0
23	18	6	23	740	216.0	-176197.0	-31306.0	-6215725.0
23	18	6	23	741	217.0	-172342.0	-31317.0	-6209433.0
23	18	6	23	741	219.0	-164150.0	-31340.0	-6195528.0
23	18	6	23	742	220.0	-160659.0	-31343.0	-6189308.0
23	18	6	23	742	221.0	-158160.0	-31349.0	-6184474.0
23	18	6	23	743	222.0	-156700.0	-31366.0	-6180118.0
23	18	6	23	744	223.0	-155916.0	-31390.0	-6174934.0
23	18	6	23	744	224.0	-155661.0	-31410.0	-6168967.0
23	18	6	23	777	225.0	-155922.0	-31426.0	-6164286.0
23	18	6	23	778	226.0	-156844.0	-31444.0	-6160182.0
23	18	6	23	778	227.0	-158374.0	-31464.0	-6156150.0
23	18	6	23	779	228.0	-160567.0	-31479.0	-6153396.0
23	18	6	23	822	229.0	-163926.0	-31502.0	-6149829.0
23	18	6	23	823	230.0	-167949.0	-31521.0	-6146108.0
23	18	6	23	823	231.0	-172248.0	-31518.0	-6141411.0
23	18	6	23	824	232.0	-176920.0	-31528.0	-6135861.0
23	18	6	23	825	233.0	-182513.0	-31540.0	-6128826.0
23	18	6	23	825	234.0	-188160.0	-31546.0	-6120734.0
23	18	6	23	826	235.0	-194135.0	-31540.0	-6113951.0
23	18	6	23	827	236.0	-200148.0	-31534.0	-6107009.0
23	18	6	23	828	237.0	-205864.0	-31551.0	-6099219.0
23	18	6	23	828	238.0	-211434.0	-31586.0	-6091184.0
23	18	6	23	829	239.0	-216722.0	-31604.0	-6081619.0
23	18	6	23	830	241.0	-225099.0	-31601.0	-6065438.0
23	18	6	23	831	242.0	-228509.0	-31643.0	-6056735.0
23	18	6	23	831	243.0	-231002.0	-31631.0	-6046802.0
23	18	6	23	832	244.0	-233104.0	-31617.0	-6034994.0
23	18	6	23	833	245.0	-234002.0	-31648.0	-6023766.0
23	18	6	23	833	8.0	-186976.0	-32056.0	-5898885.0
23	18	6	23	834	9.0	-187096.0	-32074.0	-5889905.0
23	18	6	23	834	10.0	-187004.0	-32074.0	-5881816.0
23	18	6	23	835	11.0	-186333.0	-32076.0	-5873461.0
23	18	6	23	835	12.0	-185146.0	-32060.0	-5867222.0
23	18	6	23	836	13.0	-183710.0	-32061.0	-5861727.0
23	18	6	23	866	14.0	-182454.0	-32082.0	-5856877.0
23	18	6	23	867	15.0	-181149.0	-32059.0	-5851699.0
23	18	6	23	868	16.0	-179870.0	-32032.0	-5845979.0
23	18	6	23	869	17.0	-178437.0	-32014.0	-5839701.0
23	18	6	23	869	18.0	-176990.0	-32003.0	-5833802.0
23	18	6	23	870	19.0	-175755.0	-31974.0	-5828861.0
23	18	6	23	871	20.0	-174836.0	-31967.0	-5824742.0
23	18	6	23	871	21.0	-174293.0	-31924.0	-5820344.0
23	18	6	23	872	22.0	-173554.0	-31897.0	-5815252.0
23	18	6	23	873	23.0	-172887.0	-31875.0	-5810024.0
23	18	6	23	873	24.0	-173359.0	-31835.0	-5804397.0
23	18	6	23	874	25.0	-174513.0	-31784.0	-5798437.0
23	18	6	23	875	26.0	-176099.0	-31754.0	-5793575.0
23	18	6	23	875	27.0	-176956.0	-31700.0	-5787882.0
23	18	6	23	876	28.0	-177188.0	-31661.0	-5781761.0
23	18	6	23	876	30.0	-177454.0	-31542.0	-5771841.0
23	18	6	23	877	31.0	-177787.0	-31479.0	-5767566.0
23	18	6	23	878	32.0	-178038.0	-31409.0	-5764682.0
23	18	6	23	878	33.0	-178248.0	-31322.0	-5761931.0
23	18	6	23	879	34.0	-178549.0	-31221.0	-5758987.0
23	18	6	23	879	35.0	-179190.0	-31121.0	-5754114.0
23	18	6	23	910	36.0	-180003.0	-31039.0	-5749373.0
23	18	6	23	911	37.0	-180916.0	-30949.0	-5744306.0
23	18	6	23	912	38.0	-182163.0	-30847.0	-5739704.0
23	18	6	23	913	39.0	-183817.0	-30766.0	-5734859.0
23	18	6	23	913	40.0	-185749.0	-30684.0	-5728435.0
23	18	6	23	914	41.0	-188329.0	-30602.0	-5722350.0
23	18	6	23	915	42.0	-191447.0	-30519.0	-5716949.0
23	18	6	23	916	43.0	-194525.0	-30429.0	-5713361.0
23	18	6	23	916	44.0	-197898.0	-30327.0	-5708521.0
23	18	6	23	917	45.0	-201798.0	-30226.0	-5702414.0
23	18	6	23	918	46.0	-205585.0	-30133.0	-5694272.0
23	18	6	23	918	47.0	-209052.0	-30038.0	-5685366.0
23	18	6	23	919	48.0	-212435.0	-29954.0	-5677181.0
23	18	6	23	922	49.0	-215164.0	-29861.0	-5670191.0
23	18	6	23	922	50.0	-217241.0	-29771.0	-5662464.0
23	18	6	23	923	53.0	-221582.0	-29496.0	-5641251.0
23	18	6	23	929	54.0	-221382.0	-29403.0	-5634039.0
23	18	6	23	930	55.0	-220046.0	-29306.0	-5625231.0
23	18	6	23	931	56.0	-218482.0	-29186.0	-5616832.0
23	18	6	23	931	57.0	-216746.0	-29081.0	-5608721.0
23	18	6	23	932	58.0	-214882.0	-28991.0	-5599194.0
23	18	6	23	957	59.0	-212359.0	-28902.0	-5591118.0
23	18	6	23	957	60.0	-209407.0	-28802.0	-5582791.0
23	18	6	23	958	61.0	-206202.0	-28731.0	-5575502.0
23	18	6	23	959	62.0	-202337.0	-28666.0	-5568486.0
23	18	6	23	959	63.0	-198199.0	-28574.0	-5562369.0
23	18	6	23	960	64.0	-193441.0	-28506.0	-5555990.0
23	18	6	23	960	65.0	-188161.0	-28438.0	-5549504.0
23	18	6	23	961	66.0	-182982.0	-28349.0	-5545063.0
23	18	6	23	962	67.0	-177933.0	-28276.0	-5541089.0
23	18	6	23	962	68.0	-172431.0	-28201.0	-5537651.0
23	18	6	23	963	69.0	-167046.0	-28136.0	-5534233.0
23	18	6	23	963	70.0	-162705.0	-28080.0	-5530954.0
23	18	6	23	964	71.0	-157121.0	-28014.0	-5530087.0
23	18	6	23	964	72.0	-152306.0	-27951.0	-5529187.0
23	18	6	23	965	73.0	-148498.0	-27883.0	-5528262.0
23	18	6	23	966	75.0	-139254.0	-27748.0	-5523396.0
23	18	6	23	967	76.0	-134544.0	-27691.0	-5519021.0
23	18	6	23	967	77.0	-130124.0	-27596.0	-5515276.0
23	18	6	23	968	78.0	-122294.0	-27514.0	-5512049.0
23	18	6	23	968	79.0	-122282.0	-27452.0	-5509539.0
23	18	6	23	969	80.0	-129049.0	-27387.0	-5506182.0
23	18	6	24	0	81.0	-143426.0	-27307.0	-5502609.0
23	18	6	24	1	82.0	-164174.0	-27231.0	-5498671.0
23	18	6	24	2	83.0	-180449.0	-27155.0	-5493679.0
23	18	6	24	2	84.0	-192892.0	-27081.0	-5486344.0
23	18	6	24	3	85.0	-203750.0	-27035.0	-5476761.0
23	18	6	24	3	86.0	-211365.0	-26971.0	-5465171.0
23	18	6	24	4	87.0	-216981.0	-26916.0	-5452355.0
23	18	6	24	5	88.0	-224106.0	-26871.0	-5439364.0
23	18	6	24	5	89.0	-233059.0	-26814.0	-5427759.0
23	18	6	24	6	90.0	-241573.0	-26763.0	-5416877.0
23	18	6	24	7	91.0	-247261.0	-26686.0	-5406502.0
23	18	6	24	7	92.0	-250847.0	-26627.0	-5397762.0
23	18	6	24	8	93.0	-252016.0	-26592.0	-5388971.0
23	18	6	24	8	94.0	-250636.0	-26535.0	-5378689.0
23	18	6	24	9	95.0	-248142.0	-26484.0	-5366406.0
23	18	6	24	9	97.0	-243653.0	-26379.0	-5339420.0
23	18	6	24	10	98.0	-241040.0	-26337.0	-5327131.0
23	18	6	24	11	99.0	-237480.0	-26287.0	-5315336.0
23	18	6	24	11	100.0	-233069.0	-26208.0	-5305164.0
23	18	6	24	12	101.0	-227736.0	-26139.0	-5296972.0
23	18	6	24	12	102.0	-220918.0	-26079.0	-5288345.0
23	18	6	24	13	103.0	-213233.0	-26027.0	-5280187.0
23	18	6	24	46	104.0	-205682.0	-25963.0	-5273673.0
23	18	6	24	46	105.0	-198209.0	-25919.0	-5268029.0
23	18	6	24	47	106.0	-190070.0	-25860.0	-5261797.0
23	18	6	24	47	107.0	-182220.0	-25791.0	-5255767.0
23	18	6	24	48	108.0	-174772.0	-25754.0	-5251291.0
23	18	6	24	49	109.0	-167619.0	-25716.0	-5248236.0
23	18	6	24	49	110.0	-160801.0	-25686.0	-5244947.0
23	18	6	24	50	111.0	-154276.0	-25648.0	-5242480.0
23	18	6	24	50	112.0	-148119.0	-25605.0	-5240841.0
23	18	6	24	51	113.0	-142137.0	-25558.0	-5237564.0
23	18	6	24	51	114.0	-137414.0	-25511.0	-5234642.0
23	18	6	24	52	115.0	-134117.0	-25461.0	-5232442.0
23	18	6	24	53	116.0	-130830.0	-25443.0	-5230490.0
23	18	6	24	53	117.0	-129075.0	-25421.0	-5228351.0
23	18	6	24	54	118.0	-128847.0	-25384.0	-5225332.0
23	18	6	24	54	120.0	-129574.0	-25319.0	-5220557.0
23	18	6	24	55	121.0	-132267.0	-25279.0	-5220521.0
23	18	6	24	55	122.0	-134735.0	-25266.0	-5221269.0
23	18	6	24	56	123.0	-138752.0	-25223.0	-5220212.0
23	18	6	24	56	124.0	-143630.0	-25184.0	-5218047.0
23	18	6	24	57	125.0	-149568.0	-25159.0	-5214871.0
23	18	6	24	91	126.0	-156791.0	-25119.0	-5209910.0
23	18	6	24	92	127.0	-164126.0	-25092.0	-5204843.0
23	18	6	24	93	128.0	-172863.0	-25071.0	-5200917.0
23	18	6	24	93	129.0	-182692.0	-25044.0	-5196281.0
23	18	6	24	94	130.0	-193036.0	-25011.0	-5190739.0
23	18	6	24	94	131.0	-203046.0	-25004.0	-5185259.0
23	18	6	24	95	132.0	-212704.0	-24993.0	-5178723.0
23	18	6	24	96	133.0	-222574.0	-24986.0	-5170568.0
23	18	6	24	96	134.0	-231266.0	-24967.0	-5161966.0
23	18	6	24	97	135.0	-239221.0	-24976.0	-5151707.0
23	18	6	24	97	136.0	-245787.0	-24965.0	-5139270.0
23	18	6	24	98	137.0	-251256.0	-24955.0	-5125476.0
23	18	6	24	99	138.0	-256036.0	-24949.0	-5112667.0
23	18	6	24	99	139.0	-259354.0	-24959.0	-5101483.0
23	18	6	24	100	140.0	-261502.0	-24983.0	-5090736.0
23	18	6	24	100	142.0	-264339.0	-24980.0	-5070350.0
23	18	6	24	101	143.0	-262815.0	-25002.0	-5060433.0
23	18	6	24	101	144.0	-260654.0	-24988.0	-5050209.0
23	18	6	24	102	145.0	-257042.0	-24973.0	-5040882.0
23	18	6	24	102	146.0	-251648.0	-25002.0	-5029519.0
23	18	6	24	103	147.0	-245931.0	-24996.0	-5017179.0
23	18	6	24	104	148.0	-239602.0	-24992.0	-5005786.0
23	18	6	24	137	149.0	-231395.0	-24977.0	-4996406.0
23	18	6	24	137	150.0	-222428.0	-24986.0	-4988962.0
23	18	6	24	138	151.0	-212957.0	-24997.0	-4983669.0
23	18	6	24	139	152.0	-202640.0	-25016.0	-4978990.0
23	18	6	24	139	153.0	-191215.0	-25036.0	-4974644.0
23	18	6	24	140	154.0	-180996.0	-25057.0	-4970073.0
23	18	6	24	140	155.0	-171524.0	-25065.0	-4967993.0
23	18	6	24	141	156.0	-162325.0	-25086.0	-4965869.0
23	18	6	24	141	157.0	-154345.0	-25096.0	-4965527.0
23	18	6	24	142	158.0	-147677.0	-25101.0	-4966266.0
23	18	6	24	143	159.0	-142174.0	-25105.0	-4965324.0
23	18	6	24	143	160.0	-137583.0	-25123.0	-4964416.0
23	18	6	24	144	161.0	-134028.0	-25112.0	-4965402.0
23	18	6	24	144	162.0	-132322.0	-25112.0	-4965513.0
23	18	6	24	145	163.0	-131137.0	-25105.0	-4964995.0
23	18	6	24	145	165.0	-131501.0	-25121.0	-4963256.0
23	18	6	24	146	166.0	-132797.0	-25124.0	-4960225.0
23	18	6	24	147	167.0	-135323.0	-25098.0	-4959263.0
23	18	6	24	147	168.0	-138794.0	-25105.0	-4958575.0
23	18	6	24	148	169.0	-142794.0	-25102.0	-4958449.0
23	18	6	24	148	170.0	-147352.0	-25101.0	-4957143.0
23	18	6	24	182	171.0	-151956.0	-25084.0	-4954527.0
23	18	6	24	183	172.0	-156963.0	-25074.0	-4952880.0
23	18	6	24	183	173.0	-162166.0	-25052.0	-4951037.0
23	18	6	24	184	174.0	-166947.0	-25038.0	-4947090.0
23	18	6	24	184	175.0	-171656.0	-25051.0	-4941500.0
23	18	6	24	185	176.0	-176615.0	-25030.0	-4935132.0
23	18	6	24	186	177.0	-180517.0	-25028.0	-4928889.0
23	18	6	24	186	178.0	-184916.0	-25025.0	-4921603.0
23	18	6	24	187	179.0	-188946.0	-25031.0	-4914950.0
23	18	6	24	187	180.0	-191688.0	-25032.0	-4909058.0
23	18	6	24	188	181.0	-193989.0	-25032.0	-4904280.0
23	18	6	24	189	182.0	-195814.0	-25036.0	-4899702.0
23	18	6	24	189	183.0	-196896.0	-25049.0	-4895667.0
23	18	6	24	190	184.0	-197595.0	-25054.0	-4891582.0
23	18	6	24	190	185.0	-198692.0	-25040.0	-4884833.0
23	18	6	24	191	187.0	-200279.0	-25060.0	-4872097.0
23	18	6	24	191	188.0	-201052.0	-25064.0	-4865412.0
23	18	6	24	192	189.0	-201615.0	-25051.0	-4859929.0
23	18	6	24	193	190.0	-202597.0	-25033.0	-4855802.0
23	18	6	24	201	191.0	-203149.0	-25036.0	-4850815.0
23	18	6	24	201	192.0	-204251.0	-25039.0	-4845302.0
23	18	6	24	202	193.0	-205091.0	-25045.0	-4839134.0
23	18	6	24	226	194.0	-206207.0	-25032.0	-4833484.0
23	18	6	24	226	195.0	-207472.0	-25008.0	-4828762.0
23	18	6	24	227	196.0	-207955.0	-25007.0	-4823592.0
23	18	6	24	228	197.0	-208196.0	-25023.0	-4817307.0
23	18	6	24	228	198.0	-207626.0	-25024.0	-4811674.0
23	18	6	24	229	199.0	-207481.0	-25043.0	-4807216.0
23	18	6	24	230	200.0	-206625.0	-25045.0	-4802409.0
23	18	6	24	230	201.0	-205033.0	-25041.0	-4797184.0
23	18	6	24	231	202.0	-203895.0	-25037.0	-4793640.0
23	18	6	24	231	203.0	-202647.0	-25064.0	-4789563.0
23	18	6	24	232	204.0	-201254.0	-25062.0	-4785735.0
23	18	6	24	320	205.0	-201313.0	-25064.0	-4781117.0
23	18	6	24	362	206.0	-202613.0	-25080.0	-4775437.0
23	18	6	24	363	207.0	-204552.0	-25079.0	-4768814.0
23	18	6	24	363	210.0	-210132.0	-25103.0	-4744281.0
23	18	6	24	364	211.0	-211246.0	-25108.0	-4737663.0
23	18	6	24	365	212.0	-212574.0	-25101.0	-4731347.0
23	18	6	24	366	213.0	-212849.0	-25106.0	-4724812.0
23	18	6	24	366	214.0	-212226.0	-25117.0	-4718667.0
23	18	6	24	367	215.0	-211469.0	-25134.0	-4710772.0
23	18	6	24	367	216.0	-209828.0	-25172.0	-4704063.0
23	18	6	24	368	217.0	-207875.0	-25192.0	-4697114.0
23	18	6	24	369	218.0	-206037.0	-25229.0	-4689521.0
23	18	6	24	369	219.0	-203362.0	-25251.0	-4684046.0
23	18	6	24	370	220.0	-201212.0	-25265.0	-4679174.0
23	18	6	24	370	221.0	-198989.0	-25300.0	-4672677.0
23	18	6	24	371	255.0	-201227.0	-26392.0	-4445897.0
23	18	6	24	371	21.0	-178366.0	-27307.0	-4342137.0
23	18	6	24	372	22.0	-179056.0	-27348.0	-4338892.0
23	18	6	24	373	23.0	-181011.0	-27384.0	-4336863.0
23	18	6	24	373	24.0	-183723.0	-27412.0	-4334199.0
23	18	6	24	374	25.0	-186685.0	-27427.0	-4331006.0
23	18	6	24	374	26.0	-189394.0	-27452.0	-4327576.0
23	18	6	24	406	27.0	-191018.0	-27471.0	-4323009.0
23	18	6	24	407	28.0	-192829.0	-27474.0	-4316026.0
23	18	6	24	407	29.0	-194171.0	-27504.0	-4309364.0
23	18	6	24	408	30.0	-194267.0	-27530.0	-4303016.0
23	18	6	24	409	31.0	-193386.0	-27545.0	-4296316.0
23	18	6	24	409	32.0	-192610.0	-27564.0	-4290031.0
23	18	6	24	410	33.0	-192389.0	-27571.0	-4285946.0
23	18	6	24	410	34.0	-191913.0	-27604.0	-4282200.0
23	18	6	24	411	35.0	-191959.0	-27618.0	-4278777.0
23	18	6	24	412	36.0	-192507.0	-27630.0	-4275396.0
23	18	6	24	413	37.0	-194647.0	-27643.0	-4272588.0
23	18	6	24	413	38.0	-197706.0	-27662.0	-4269296.0
23	18	6	24	414	39.0	-201407.0	-27662.0	-4263025.0
23	18	6	24	415	40.0	-205073.0	-27686.0	-4254477.0
23	18	6	24	415	41.0	-206554.0	-27717.0	-4245509.0
23	18	6	24	416	43.0	-202399.0	-27741.0	-4231956.0
23	18	6	24	416	44.0	-197174.0	-27781.0	-4225981.0
23	18	6	24	417	45.0	-192248.0	-27784.0	-4221896.0
23	18	6	24	418	46.0	-188329.0	-27780.0	-4218922.0
23	18	6	24	418	47.0	-184567.0	-27801.0	-4216439.0
23	18	6	24	419	48.0	-180526.0	-27794.0	-4213189.0
23	18	6	24	419	49.0	-176629.0	-27829.0	-4209981.0
23	18	6	24	451	50.0	-174336.0	-27842.0	-4207446.0
23	18	6	24	452	51.0	-175770.0	-27837.0	-4205087.0
23	18	6	24	452	52.0	-181961.0	-27857.0	-4202269.0
23	18	6	24	453	53.0	-190086.0	-27892.0	-4197603.0
23	18	6	24	453	54.0	-197857.0	-27925.0	-4193340.0
23	18	6	24	454	55.0	-204362.0	-27949.0	-4187775.0
23	18	6	24	455	56.0	-206741.0	-27958.0	-4180249.0
23	18	6	24	455	57.0	-206755.0	-27965.0	-4171202.0
23	18	6	24	456	58.0	-205546.0	-27977.0	-4160138.0
23	18	6	24	456	59.0	-201596.0	-27990.0	-4149081.0
23	18	6	24	457	60.0	-196109.0	-28016.0	-4137279.0
23	18	6	24	458	61.0	-191572.0	-28032.0	-4126714.0
23	18	6	24	458	62.0	-189457.0	-28057.0	-4118064.0
23	18	6	24	459	63.0	-188889.0	-28071.0	-4111934.0
23	18	6	24	460	64.0	-188059.0	-28096.0	-4104721.0
23	18	6	24	460	66.0	-187024.0	-28108.0	-4087674.0
23	18	6	24	461	67.0	-187300.0	-28108.0	-4079349.0
23	18	6	24	461	68.0	-189529.0	-28097.0	-4070617.0
23	18	6	24	462	69.0	-193779.0	-28093.0	-4059125.0
23	18	6	24	462	70.0	-198964.0	-28114.0	-4045744.0
23	18	6	24	463	71.0	-203399.0	-28112.0	-4032649.0
23	18	6	24	497	72.0	-205051.0	-28130.0	-4020156.0
23	18	6	24	498	73.0	-203247.0	-28148.0	-4009684.0
23	18	6	24	499	74.0	-199634.0	-28137.0	-3998922.0
23	18	6	24	499	75.0	-194629.0	-28159.0	-3989824.0
23	18	6	24	500	76.0	-189680.0	-28189.0	-3983322.0
23	18	6	24	500	77.0	-185563.0	-28199.0	-3976829.0
23	18	6	24	501	78.0	-181942.0	-28184.0	-3970278.0
23	18	6	24	502	79.0	-178306.0	-28201.0	-3964069.0
23	18	6	24	502	80.0	-175035.0	-28242.0	-3958856.0
23	18	6	24	503	81.0	-172471.0	-28244.0	-3954371.0
23	18	6	24	504	82.0	-169419.0	-28273.0	-3950240.0
23	18	6	24	504	83.0	-166002.0	-28271.0	-3948952.0
23	18	6	24	505	84.0	-162707.0	-28258.0	-3949166.0
23	18	6	24	506	85.0	-159629.0	-28276.0	-3949213.0
23	18	6	24	506	86.0	-156973.0	-28301.0	-3949795.0
23	18	6	24	507	88.0	-151607.0	-28332.0	-3952099.0
23	18	6	24	507	89.0	-149693.0	-28349.0	-3953898.0
23	18	6	24	508	90.0	-148152.0	-28346.0	-3954959.0
23	18	6	24	509	91.0	-147771.0	-28332.0	-3957527.0
23	18	6	24	509	92.0	-148862.0	-28326.0	-3961002.0
23	18	6	24	510	93.0	-151886.0	-28336.0	-3963365.0
23	18	6	24	510	94.0	-156579.0	-28327.0	-3965294.0
23	18	6	24	541	95.0	-162497.0	-28324.0	-3966175.0
23	18	6	24	542	96.0	-168931.0	-28330.0	-3966309.0
23	18	6	24	542	97.0	-175776.0	-28336.0	-3965689.0
23	18	6	24	543	98.0	-182907.0	-28346.0	-3963542.0
23	18	6	24	544	99.0	-189977.0	-28346.0	-3959508.0
23	18	6	24	544	100.0	-197161.0	-28341.0	-3954329.0
23	18	6	24	545	101.0	-204131.0	-28345.0	-3947546.0
23	18	6	24	546	102.0	-211305.0	-28346.0	-3938806.0
23	18	6	24	546	103.0	-218363.0	-28336.0	-3929988.0
23	18	6	24	547	104.0	-224554.0	-28332.0	-3922056.0
23	18	6	24	548	105.0	-229999.0	-28309.0	-3912573.0
23	18	6	24	548	106.0	-234490.0	-28303.0	-3902756.0
23	18	6	24	549	107.0	-237901.0	-28301.0	-3892315.0
23	18	6	24	550	108.0	-240759.0	-28291.0	-3880344.0
23	18	6	24	550	109.0	-242502.0	-28297.0	-3864797.0
23	18	6	24	551	111.0	-242455.0	-28262.0	-3835662.0
23	18	6	24	551	112.0	-241131.0	-28256.0	-3823706.0
23	18	6	24	552	113.0	-238912.0	-28248.0	-3812821.0
23	18	6	24	552	114.0	-236111.0	-28233.0	-3803727.0
23	18	6	24	553	115.0	-232731.0	-28224.0	-3796037.0
23	18	6	24	554	116.0	-228687.0	-28216.0	-3788509.0
23	18	6	24	585	117.0	-224164.0	-28204.0	-3781854.0
23	18	6	24	587	118.0	-218137.0	-28182.0	-3776127.0
23	18	6	24	587	119.0	-211001.0	-28176.0	-3770031.0
23	18	6	24	588	120.0	-203856.0	-28159.0	-3765657.0
23	18	6	24	589	121.0	-196455.0	-28152.0	-3762028.0
23	18	6	24	589	122.0	-189115.0	-28129.0	-3758481.0
23	18	6	24	590	123.0	-181467.0	-28116.0	-3756701.0
23	18	6	24	590	124.0	-173813.0	-28092.0	-3758378.0
23	18	6	24	591	125.0	-166917.0	-28079.0	-3761481.0
23	18	6	24	592	126.0	-160626.0	-28066.0	-3764846.0
23	18	6	24	592	127.0	-154889.0	-28025.0	-3769114.0
23	18	6	24	593	128.0	-150284.0	-27982.0	-3772924.0
23	18	6	24	594	129.0	-146665.0	-27939.0	-3777100.0
23	18	6	24	595	130.0	-144043.0	-27929.0	-3781072.0
23	18	6	24	595	131.0	-142818.0	-27893.0	-3784448.0
23	18	6	24	596	133.0	-142982.0	-27779.0	-3787729.0
23	18	6	24	596	134.0	-145042.0	-27727.0	-3789732.0
23	18	6	24	597	135.0	-148314.0	-27672.0	-3793016.0
23	18	6	24	597	136.0	-152712.0	-27604.0	-3794669.0
23	18	6	24	598	137.0	-157316.0	-27526.0	-3793671.0
23	18	6	24	599	138.0	-162357.0	-27442.0	-3791374.0
23	18	6	24	599	139.0	-168196.0	-27359.0	-3788543.0
23	18	6	24	646	140.0	-174529.0	-27279.0	-3783947.0
23	18	6	24	660	141.0	-181001.0	-27189.0	-3778001.0
23	18	6	24	661	142.0	-186962.0	-27101.0	-3771092.0
23	18	6	24	662	143.0	-192189.0	-27018.0	-3763397.0
23	18	6	24	662	144.0	-196615.0	-26937.0	-3754191.0
23	18	6	24	663	145.0	-200957.0	-26850.0	-3744815.0
23	18	6	24	664	146.0	-204942.0	-26742.0	-3736209.0
23	18	6	24	664	147.0	-208124.0	-26639.0	-3727573.0
23	18	6	24	665	148.0	-210274.0	-26543.0	-3718247.0
23	18	6	24	665	149.0	-212116.0	-26431.0	-3707992.0
23	18	6	24	666	150.0	-213487.0	-26333.0	-3697561.0
23	18	6	24	667	151.0	-214176.0	-26229.0	-3687870.0
23	18	6	24	667	152.0	-213889.0	-26143.0	-3678020.0
23	18	6	24	668	153.0	-212827.0	-26032.0	-3669576.0
23	18	6	24	669	154.0	-211841.0	-25919.0	-3663157.0
23	18	6	24	669	163.0	-192426.0	-24879.0	-3630324.0
23	18	6	24	670	171.0	-189637.0	-23853.0	-3626757.0
23	18	6	24	670	172.0	-190539.0	-23725.0	-3622245.0
23	18	6	24	671	173.0	-191530.0	-23596.0	-3618271.0
23	18	6	24	672	174.0	-192681.0	-23489.0	-3616769.0
23	18	6	24	681	175.0	-193982.0	-23371.0	-3613156.0
23	18	6	24	681	176.0	-195319.0	-23256.0	-3608109.0
23	18	6	24	682	177.0	-196680.0	-23135.0	-3603814.0
23	18	6	24	682	178.0	-197867.0	-23003.0	-3598166.0
23	18	6	24	703	179.0	-199091.0	-22892.0	-3590321.0
23	18	6	24	704	180.0	-200241.0	-22767.0	-3582487.0
23	18	6	24	705	181.0	-201155.0	-22667.0	-3573336.0
23	18	6	24	705	182.0	-201849.0	-22592.0	-3564482.0
23	18	6	24	706	183.0	-202459.0	-22496.0	-3555749.0
23	18	6	24	707	184.0	-203291.0	-22405.0	-3548373.0
23	18	6	24	707	185.0	-204092.0	-22315.0	-3540448.0
23	18	6	24	708	186.0	-204926.0	-22212.0	-3532227.0
23	18	6	24	708	187.0	-205666.0	-22128.0	-3524473.0
23	18	6	24	709	188.0	-205579.0	-22022.0	-3516985.0
23	18	6	24	709	189.0	-204265.0	-21918.0	-3508831.0
23	18	6	24	710	190.0	-202229.0	-21836.0	-3499912.0
23	18	6	24	711	191.0	-199444.0	-21758.0	-3491136.0
23	18	6	24	711	192.0	-195824.0	-21674.0	-3484812.0
23	18	6	24	712	193.0	-190453.0	-21599.0	-3479978.0
23	18	6	24	712	194.0	-183571.0	-21511.0	-3478641.0
23	18	6	24	728	195.0	-176912.0	-21418.0	-3480112.0
23	18	6	24	728	196.0	-171265.0	-21331.0	-3485538.0
23	18	6	24	729	197.0	-166054.0	-21241.0	-3494072.0
23	18	6	24	730	198.0	-166961.0	-21181.0	-3504147.0
23	18	6	24	730	199.0	-168592.0	-21097.0	-3512987.0
23	18	6	24	731	200.0	-170591.0	-21029.0	-3519817.0
23	18	6	24	731	201.0	-175414.0	-20962.0	-3522311.0
23	18	6	24	751	202.0	-179691.0	-20905.0	-3521202.0
23	18	6	24	752	203.0	-181752.0	-20815.0	-3519041.0
23	18	6	24	753	204.0	-182271.0	-20732.0	-3517201.0
23	18	6	24	753	205.0	-182953.0	-20671.0	-3517504.0
23	18	6	24	754	206.0	-182408.0	-20634.0	-3519772.0
23	18	6	24	754	207.0	-179414.0	-20555.0	-3522348.0
23	18	6	24	755	208.0	-175012.0	-20504.0	-3524328.0
23	18	6	24	756	209.0	-170897.0	-20427.0	-3526314.0
23	18	6	24	756	210.0	-166732.0	-20361.0	-3526964.0
23	18	6	24	757	211.0	-164177.0	-20299.0	-3525520.0
23	18	6	24	757	212.0	-167358.0	-20238.0	-3521521.0
23	18	6	24	758	213.0	-173059.0	-20197.0	-3515428.0
23	18	6	24	758	214.0	-177494.0	-20128.0	-3509311.0
23	18	6	24	759	215.0	-180126.0	-20076.0	-3504296.0
23	18	6	24	760	216.0	-180228.0	-20023.0	-3498372.0
23	18	6	24	776	217.0	-177967.0	-19986.0	-3493542.0
23	18	6	24	776	218.0	-175311.0	-19916.0	-3489709.0
23	18	6	24	777	219.0	-174390.0	-19847.0	-3485445.0
23	18	6	24	777	220.0	-176251.0	-19812.0	-3482279.0
23	18	6	24	778	221.0	-179684.0	-19766.0	-3482019.0
23	18	6	24	779	222.0	-182973.0	-19701.0	-3481330.0
23	18	6	24	779	223.0	-186314.0	-19646.0	-3479309.0
23	18	6	24	780	224.0	-189319.0	-19612.0	-3476362.0
23	18	6	24	780	225.0	-192578.0	-19558.0	-3472987.0
23	18	6	24	781	226.0	-196708.0	-19492.0	-3469122.0
23	18	6	24	782	227.0	-200347.0	-19431.0	-3463677.0
23	18	6	24	782	228.0	-203733.0	-19386.0	-3455992.0
23	18	6	24	783	229.0	-206716.0	-19347.0	-3447609.0
23	18	6	24	783	230.0	-209382.0	-19302.0	-3438609.0
23	18	6	24	784	231.0	-211375.0	-19243.0	-3428560.0
23	18	6	24	799	232.0	-212372.0	-19190.0	-3417237.0
23	18	6	24	799	233.0	-212464.0	-19156.0	-3407278.0
23	18	6	24	800	234.0	-211397.0	-19099.0	-3400089.0
23	18	6	24	800	235.0	-209366.0	-19079.0	-3393750.0
23	18	6	24	801	236.0	-206791.0	-19060.0	-3388176.0
23	18	6	24	802	237.0	-203761.0	-19034.0	-3383992.0
23	18	6	24	802	238.0	-200261.0	-19002.0	-3379849.0
23	18	6	24	803	239.0	-196567.0	-18994.0	-3376710.0
23	18	6	24	822	240.0	-192904.0	-18954.0	-3375726.0
23	18	6	24	823	241.0	-189906.0	-18936.0	-3374499.0
23	18	6	24	823	242.0	-187541.0	-18910.0	-3373099.0
23	18	6	24	824	243.0	-185919.0	-18897.0	-3372835.0
23	18	6	24	824	244.0	-185030.0	-18881.0	-3373785.0
23	18	6	24	825	245.0	-184559.0	-18867.0	-3375571.0
23	18	6	24	826	246.0	-184889.0	-18871.0	-3377378.0
23	18	6	24	826	247.0	-186264.0	-18871.0	-3379101.0
23	18	6	24	827	248.0	-187847.0	-18847.0	-3379039.0
23	18	6	24	828	249.0	-189772.0	-18839.0	-3377965.0
23	18	6	24	828	250.0	-191698.0	-18859.0	-3376141.0
23	18	6	24	829	251.0	-193346.0	-18848.0	-3373681.0
23	18	6	24	829	252.0	-195043.0	-18855.0	-3370225.0
23	18	6	24	830	253.0	-196362.0	-18867.0	-3367242.0
23	18	6	24	830	254.0	-197579.0	-18865.0	-3365143.0
23	18	6	24	845	255.0	-198913.0	-18851.0	-3363854.0
23	18	6	24	845	0.0	-200107.0	-18861.0	-3361856.0
23	18	6	24	846	1.0	-201429.0	-18876.0	-3358579.0
23	18	6	24	846	2.0	-202585.0	-18889.0	-3353181.0
23	18	6	24	847	3.0	-203309.0	-18910.0	-3347038.0
23	18	6	24	848	4.0	-203719.0	-18932.0	-3341078.0
23	18	6	24	848	5.0	-203871.0	-18946.0	-3334677.0
23	18	6	24	867	6.0	-203622.0	-18954.0	-3328945.0
23	18	6	24	868	7.0	-202859.0	-18954.0	-3324693.0
23	18	6	24	869	8.0	-201298.0	-18968.0	-3320443.0
23	18	6	24	870	9.0	-199051.0	-18979.0	-3316920.0
23	18	6	24	871	10.0	-196559.0	-19007.0	-3314500.0
23	18	6	24	871	11.0	-194095.0	-19016.0	-3312244.0
23	18	6	24	872	12.0	-191514.0	-19034.0	-3310249.0
23	18	6	24	872	13.0	-188810.0	-19039.0	-3308297.0
23	18	6	24	873	14.0	-186229.0	-19046.0	-3305780.0
23	18	6	24	874	15.0	-184000.0	-19051.0	-3302461.0
23	18	6	24	874	16.0	-181971.0	-19069.0	-3299264.0
23	18	6	24	875	17.0	-179846.0	-19097.0	-3298319.0
23	18	6	24	875	18.0	-178287.0	-19098.0	-3297567.0
23	18	6	24	876	19.0	-177431.0	-19112.0	-3296901.0
23	18	6	24	876	20.0	-176640.0	-19122.0	-3295304.0
23	18	6	24	893	21.0	-175887.0	-19143.0	-3293496.0
23	18	6	24	894	22.0	-175368.0	-19143.0	-3292229.0
23	18	6	24	894	23.0	-175200.0	-19137.0	-3290174.0
23	18	6	24	895	24.0	-175395.0	-19146.0	-3286879.0
23	18	6	24	895	25.0	-175906.0	-19174.0	-3282957.0
23	18	6	24	896	26.0	-176614.0	-19184.0	-3280160.0
23	18	6	24	896	27.0	-177493.0	-19199.0	-3277502.0
23	18	6	24	897	28.0	-178409.0	-19230.0	-3275598.0
23	18	6	24	916	29.0	-179134.0	-19252.0	-3273051.0
23	18	6	24	917	30.0	-179985.0	-19252.0	-3269753.0
23	18	6	24	918	31.0	-180974.0	-19255.0	-3266057.0
23	18	6	24	918	32.0	-181517.0	-19281.0	-3261862.0
23	18	6	24	919	33.0	-181861.0	-19297.0	-3255570.0
23	18	6	24	919	34.0	-182366.0	-19296.0	-3251194.0
23	18	6	24	920	35.0	-183057.0	-19277.0	-3246789.0
23	18	6	24	921	36.0	-183527.0	-19292.0	-3239966.0
23	18	6	24	921	37.0	-183970.0	-19307.0	-3234888.0
23	18	6	24	922	38.0	-184611.0	-19317.0	-3232476.0
23	18	6	24	922	39.0	-185224.0	-19324.0	-3229466.0
23	18	6	24	923	40.0	-185792.0	-19323.0	-3227358.0
23	18	6	24	923	41.0	-186252.0	-19337.0	-3223899.0
23	18	6	24	924	42.0	-186414.0	-19356.0	-3219592.0
23	18	6	24	925	43.0	-186417.0	-19371.0	-3213465.0
23	18	6	24	940	44.0	-186781.0	-19394.0	-3208406.0
23	18	6	24	941	45.0	-187260.0	-19379.0	-3203931.0
23	18	6	24	941	46.0	-187909.0	-19377.0	-3197829.0
23	18	6	24	942	47.0	-188255.0	-19411.0	-3192024.0
23	18	6	24	943	48.0	-188309.0	-19415.0	-3187037.0
23	18	6	24	943	49.0	-188433.0	-19414.0	-3183161.0
23	18	6	24	944	50.0	-188654.0	-19433.0	-3179434.0
23	18	6	24	963	51.0	-189123.0	-19447.0	-3175665.0
23	18	6	24	964	52.0	-189510.0	-19429.0	-3172206.0
23	18	6	24	965	53.0	-189739.0	-19448.0	-3168841.0
23	18	6	24	965	54.0	-190334.0	-19466.0	-3164302.0
23	18	6	24	966	55.0	-191719.0	-19463.0	-3158659.0
23	18	6	24	966	56.0	-193879.0	-19459.0	-3151809.0
23	18	6	24	967	57.0	-196796.0	-19476.0	-3147144.0
23	18	6	24	968	58.0	-200896.0	-19479.0	-3142977.0
23	18	6	24	968	59.0	-205419.0	-19490.0	-3137624.0
23	18	6	24	969	60.0	-209880.0	-19470.0	-3132434.0
23	18	6	24	969	61.0	-214429.0	-19464.0	-3124684.0
23	18	6	24	970	62.0	-218409.0	-19481.0	-3114912.0
23	18	6	24	970	63.0	-221866.0	-19497.0	-3103080.0
23	18	6	24	971	64.0	-224834.0	-19495.0	-3091008.0
23	18	6	24	972	65.0	-227241.0	-19507.0	-3080831.0
23	18	6	24	997	66.0	-228404.0	-19512.0	-3071738.0
23	18	6	25	0	67.0	-228510.0	-19506.0	-3061583.0
23	18	6	25	2	68.0	-227847.0	-19511.0	-3051959.0
23	18	6	25	2	69.0	-226536.0	-19530.0	-3043092.0
23	18	6	25	3	70.0	-224514.0	-19534.0	-3033836.0
23	18	6	25	3	71.0	-221866.0	-19546.0	-3023959.0
23	18	6	25	4	72.0	-218444.0	-19536.0	-3014114.0
23	18	6	25	5	73.0	-214100.0	-19542.0	-3004681.0
23	18	6	25	5	74.0	-209133.0	-19537.0	-2996213.0
23	18	6	25	6	75.0	-204002.0	-19526.0	-2990102.0
23	18	6	25	6	76.0	-198759.0	-19524.0	-2985676.0
23	18	6	25	7	77.0	-193121.0	-19508.0	-2981007.0
23	18	6	25	8	78.0	-187159.0	-19529.0	-2976881.0
23	18	6	25	8	79.0	-180840.0	-19563.0	-2975544.0
23	18	6	25	9	80.0	-174541.0	-19566.0	-2975555.0
23	18	6	25	9	81.0	-168371.0	-19547.0	-2973715.0
23	18	6	25	10	82.0	-162242.0	-19526.0	-2973253.0
23	18	6	25	10	83.0	-156622.0	-19519.0	-2973869.0
23	18	6	25	11	84.0	-152122.0	-19527.0	-2974367.0
23	18	6	25	12	85.0	-148362.0	-19526.0	-2978226.0
23	18	6	25	12	86.0	-145216.0	-19524.0	-2982828.0
23	18	6	25	13	87.0	-143254.0	-19528.0	-2986541.0
23	18	6	25	13	88.0	-142379.0	-19559.0	-2990956.0
23	18	6	25	21	89.0	-142641.0	-19542.0	-2994778.0
23	18	6	25	22	90.0	-143812.0	-19538.0	-2996538.0
23	18	6	25	22	91.0	-145950.0	-19544.0	-2997361.0
23	18	6	25	23	92.0	-148994.0	-19549.0	-2997856.0
23	18	6	25	24	93.0	-152938.0	-19556.0	-2998918.0
23	18	6	25	24	94.0	-157707.0	-19563.0	-2999000.0
23	18	6	25	25	95.0	-162827.0	-19562.0	-2996832.0
23	18	6	25	44	96.0	-168236.0	-19541.0	-2994681.0
23	18	6	25	45	97.0	-174029.0	-19539.0	-2991321.0
23	18	6	25	46	98.0	-180134.0	-19534.0	-2987856.0
23	18	6	25	46	99.0	-186482.0	-19538.0	-2984044.0
23	18	6	25	47	100.0	-192716.0	-19541.0	-2978607.0
23	18	6	25	47	101.0	-198538.0	-19552.0	-2972541.0
23	18	6	25	48	102.0	-203645.0	-19561.0	-2964060.0
23	18	6	25	48	103.0	-207844.0	-19574.0	-2954083.0
23	18	6	25	67	104.0	-211139.0	-19569.0	-2945391.0
23	18	6	25	68	105.0	-213438.0	-19566.0	-2935934.0
23	18	6	25	68	106.0	-214772.0	-19593.0	-2926445.0
23	18	6	25	69	107.0	-215733.0	-19596.0	-2918934.0
23	18	6	25	70	108.0	-216447.0	-19603.0	-2912434.0
23	18	6	25	70	109.0	-216528.0	-19611.0	-2905343.0
23	18	6	25	71	110.0	-216487.0	-19634.0	-2898199.0
23	18	6	25	71	111.0	-216219.0	-19636.0	-2889819.0
23	18	6	25	72	112.0	-215551.0	-19649.0	-2881192.0
23	18	6	25	72	113.0	-214522.0	-19660.0	-2871068.0
23	18	6	25	73	114.0	-213387.0	-19663.0	-2862116.0
23	18	6	25	73	115.0	-212202.0	-19671.0	-2855960.0
23	18	6	25	74	116.0	-211091.0	-19677.0	-2850471.0
23	18	6	25	74	117.0	-210417.0	-19699.0	-2845658.0
23	18	6	25	91	118.0	-209595.0	-19716.0	-2840262.0
23	18	6	25	92	119.0	-208364.0	-19716.0	-2836582.0
23	18	6	25	92	120.0	-207285.0	-19705.0	-2834807.0
23	18	6	25	93	121.0	-206829.0	-19732.0	-2831907.0
23	18	6	25	94	122.0	-206411.0	-19746.0	-2828124.0
23	18	6	25	94	123.0	-206057.0	-19771.0	-2824326.0
23	18	6	25	95	124.0	-206294.0	-19774.0	-2821182.0
23	18	6	25	95	125.0	-207121.0	-19786.0	-2816527.0
23	18	6	25	96	126.0	-208554.0	-19804.0	-2812344.0
23	18	6	25	96	127.0	-208847.0	-19821.0	-2808306.0
23	18	6	25	97	128.0	-206848.0	-19845.0	-2804126.0
23	18	6	25	98	129.0	-201906.0	-19843.0	-2800626.0
23	18	6	25	98	130.0	-194119.0	-19858.0	-2799893.0
23	18	6	25	99	131.0	-185566.0	-19895.0	-2798984.0
23	18	6	25	99	132.0	-178194.0	-19906.0	-2798201.0
23	18	6	25	114	133.0	-171977.0	-19927.0	-2798236.0
23	18	6	25	115	134.0	-166510.0	-19924.0	-2797927.0
23	18	6	25	115	135.0	-162687.0	-19927.0	-2798549.0
23	18	6	25	116	136.0	-160272.0	-19942.0	-2800410.0
23	18	6	25	117	137.0	-159369.0	-19942.0	-2802421.0
23	18	6	25	117	138.0	-161407.0	-19979.0	-2803652.0
23	18	6	25	118	139.0	-166432.0	-19986.0	-2804476.0
23	18	6	25	118	140.0	-172996.0	-19978.0	-2803637.0
23	18	6	25	137	141.0	-178612.0	-19969.0	-2800342.0
23	18	6	25	138	142.0	-181486.0	-19970.0	-2795584.0
23	18	6	25	138	143.0	-182312.0	-19983.0	-2789316.0
23	18	6	25	139	144.0	-181907.0	-20002.0	-2781106.0
23	18	6	25	140	145.0	-179954.0	-20015.0	-2772991.0
23	18	6	25	140	146.0	-176924.0	-20007.0	-2766143.0
23	18	6	25	141	147.0	-174354.0	-20020.0	-2760049.0
23	18	6	25	141	148.0	-172984.0	-20028.0	-2757027.0
23	18	6	25	142	149.0	-172731.0	-20040.0	-2754576.0
23	18	6	25	142	150.0	-173611.0	-20012.0	-2752032.0
23	18	6	25	143	151.0	-175220.0	-20011.0	-2747892.0
23	18	6	25	144	152.0	-176877.0	-20015.0	-2742886.0
23	18	6	25	144	153.0	-178350.0	-20022.0	-2735584.0
23	18	6	25	145	154.0	-181101.0	-20024.0	-2727449.0
23	18	6	25	145	155.0	-185479.0	-20027.0	-2718990.0
23	18	6	25	160	156.0	-190613.0	-20010.0	-2711411.0
23	18	6	25	160	157.0	-194816.0	-20014.0	-2703696.0
23	18	6	25	161	158.0	-197036.0	-20007.0	-2696922.0
23	18	6	25	162	159.0	-197410.0	-20002.0	-2692738.0
23	18	6	25	162	160.0	-196243.0	-20000.0	-2687574.0
23	18	6	25	163	161.0	-194032.0	-20001.0	-2680377.0
23	18	6	25	163	162.0	-192038.0	-20015.0	-2673659.0
23	18	6	25	183	163.0	-190634.0	-20020.0	-2667100.0
23	18	6	25	183	164.0	-189512.0	-19993.0	-2660837.0
23	18	6	25	184	165.0	-189147.0	-19971.0	-2656487.0
23	18	6	25	185	166.0	-189300.0	-19974.0	-2653956.0
23	18	6	25	185	167.0	-189100.0	-19961.0	-2651484.0
23	18	6	25	186	168.0	-189089.0	-19971.0	-2650333.0
23	18	6	25	186	169.0	-189420.0	-19956.0	-2648586.0
23	18	6	25	187	170.0	-188967.0	-19954.0	-2645741.0
23	18	6	25	187	171.0	-188143.0	-19942.0	-2642601.0
23	18	6	25	188	172.0	-187557.0	-19919.0	-2637844.0
23	18	6	25	189	173.0	-187353.0	-19904.0	-2632511.0
23	18	6	25	189	174.0	-187224.0	-19902.0	-2629373.0
23	18	6	25	190	175.0	-187029.0	-19922.0	-2625923.0
23	18	6	25	190	176.0	-186889.0	-19929.0	-2622416.0
23	18	6	25	191	177.0	-187006.0	-19916.0	-2621629.0
23	18	6	25	206	178.0	-186985.0	-19905.0	-2622417.0
23	18	6	25	206	179.0	-187161.0	-19864.0	-2622463.0
23	18	6	25	207	180.0	-187698.0	-19856.0	-2620545.0
23	18	6	25	207	181.0	-188304.0	-19867.0	-2619338.0
23	18	6	25	208	182.0	-189051.0	-19856.0	-2616735.0
23	18	6	25	208	183.0	-190436.0	-19856.0	-2612718.0
23	18	6	25	209	184.0	-191976.0	-19872.0	-2609804.0
23	18	6	25	209	185.0	-193801.0	-19864.0	-2606569.0
23	18	6	25	230	186.0	-195997.0	-19844.0	-2603316.0
23	18	6	25	230	187.0	-198338.0	-19847.0	-2601246.0
23	18	6	25	231	188.0	-200838.0	-19841.0	-2599214.0
23	18	6	25	231	189.0	-203397.0	-19839.0	-2595049.0
23	18	6	25	232	190.0	-205711.0	-19839.0	-2591334.0
23	18	6	25	232	191.0	-207807.0	-19844.0	-2586199.0
23	18	6	25	233	192.0	-209867.0	-19851.0	-2580599.0
23	18	6	25	234	193.0	-211611.0	-19859.0	-2574964.0
23	18	6	25	234	194.0	-213044.0	-19866.0	-2568638.0
23	18	6	25	235	195.0	-214246.0	-19885.0	-2563378.0
23	18	6	25	235	196.0	-215204.0	-19872.0	-2558489.0
23	18	6	25	236	197.0	-215557.0	-19872.0	-2553970.0
23	18	6	25	236	198.0	-215529.0	-19858.0	-2550632.0
23	18	6	25	237	199.0	-214961.0	-19859.0	-2547229.0
23	18	6	25	238	200.0	-213913.0	-19878.0	-2543094.0
23	18	6	25	238	201.0	-212436.0	-19882.0	-2539868.0
23	18	6	25	252	202.0	-210216.0	-19879.0	-2535831.0
23	18	6	25	253	203.0	-207555.0	-19859.0	-2530394.0
23	18	6	25	254	204.0	-204502.0	-19867.0	-2523712.0
23	18	6	25	254	205.0	-201548.0	-19849.0	-2517371.0
23	18	6	25	255	206.0	-198416.0	-19846.0	-2512684.0
23	18	6	25	255	207.0	-194846.0	-19835.0	-2510280.0
23	18	6	25	276	208.0	-191162.0	-19825.0	-2508824.0
23	18	6	25	276	209.0	-187353.0	-19819.0	-2508729.0
23	18	6	25	277	210.0	-183912.0	-19797.0	-2508571.0
23	18	6	25	278	211.0	-181358.0	-19797.0	-2507806.0
23	18	6	25	278	212.0	-179379.0	-19792.0	-2506127.0
23	18	6	25	279	213.0	-177544.0	-19782.0	-2502624.0
23	18	6	25	279	214.0	-175306.0	-19763.0	-2500569.0
23	18	6	25	280	215.0	-172832.0	-19747.0	-2499707.0
23	18	6	25	280	216.0	-170581.0	-19712.0	-2498817.0
23	18	6	25	281	217.0	-168505.0	-19670.0	-2498412.0
23	18	6	25	282	218.0	-166772.0	-19604.0	-2498187.0
23	18	6	25	282	219.0	-165825.0	-19583.0	-2498146.0
23	18	6	25	283	220.0	-165268.0	-19537.0	-2497416.0
23	18	6	25	283	221.0	-164589.0	-19489.0	-2497239.0
23	18	6	25	284	222.0	-164246.0	-19424.0	-2496751.0
23	18	6	25	298	223.0	-164872.0	-19342.0	-2495265.0
23	18	6	25	299	224.0	-166274.0	-19289.0	-2492780.0
23	18	6	25	299	225.0	-167954.0	-19224.0	-2491244.0
23	18	6	25	300	226.0	-170074.0	-19134.0	-2490719.0
23	18	6	25	301	227.0	-172960.0	-19062.0	-2490204.0
23	18	6	25	301	228.0	-176471.0	-18974.0	-2487992.0
23	18	6	25	302	229.0	-180680.0	-18891.0	-2485388.0
23	18	6	25	302	230.0	-184762.0	-18824.0	-2481639.0
23	18	6	25	321	231.0	-189076.0	-18728.0	-2476879.0
23	18	6	25	321	232.0	-193581.0	-18603.0	-2470916.0
23	18	6	25	322	233.0	-197514.0	-18502.0	-2464662.0
23	18	6	25	323	234.0	-200849.0	-18424.0	-2457878.0
23	18	6	25	323	235.0	-204059.0	-18337.0	-2450959.0
23	18	6	25	324	236.0	-206757.0	-18233.0	-2443734.0
23	18	6	25	324	237.0	-208853.0	-18146.0	-2436493.0
23	18	6	25	325	238.0	-210767.0	-18030.0	-2429466.0
23	18	6	25	325	239.0	-212464.0	-17897.0	-2423987.0
23	18	6	25	326	240.0	-213486.0	-17767.0	-2419506.0
23	18	6	25	327	241.0	-213692.0	-17664.0	-2413798.0
23	18	6	25	327	242.0	-213313.0	-17532.0	-2407410.0
23	18	6	25	328	243.0	-212216.0	-17421.0	-2400232.0
23	18	6	25	328	244.0	-210803.0	-17323.0	-2395016.0
23	18	6	25	329	245.0	-209639.0	-17208.0	-2389552.0
23	18	6	25	344	246.0	-208554.0	-17065.0	-2384093.0
23	18	6	25	345	247.0	-207296.0	-16955.0	-2380462.0
23	18	6	25	345	248.0	-206345.0	-16837.0	-2377787.0
23	18	6	25	368	249.0	-205469.0	-16731.0	-2375872.0
23	18	6	25	368	250.0	-204179.0	-16622.0	-2374936.0
23	18	6	25	369	251.0	-203106.0	-16509.0	-2373691.0
23	18	6	25	369	252.0	-201857.0	-16418.0	-2370420.0
23	18	6	25	370	253.0	-200296.0	-16288.0	-2366997.0
23	18	6	25	370	254.0	-198468.0	-16184.0	-2363951.0
23	18	6	25	371	255.0	-196622.0	-16080.0	-2360839.0
23	18	6	25	372	0.0	-194876.0	-15958.0	-2358339.0
23	18	6	25	372	1.0	-193002.0	-15847.0	-2356597.0
23	18	6	25	373	2.0	-191087.0	-15748.0	-2354567.0
23	18	6	25	373	3.0	-189404.0	-15645.0	-2353303.0
23	18	6	25	374	4.0	-188345.0	-15535.0	-2352465.0
23	18	6	25	374	5.0	-187321.0	-15402.0	-2351989.0
23	18	6	25	375	6.0	-186356.0	-15276.0	-2350479.0
23	18	6	25	375	7.0	-185513.0	-15172.0	-2346219.0
23	18	6	25	376	8.0	-184644.0	-15054.0	-2343003.0
23	18	6	25	377	9.0	-184141.0	-14935.0	-2341984.0
23	18	6	25	377	10.0	-183728.0	-14832.0	-2340824.0
23	18	6	25	391	11.0	-183511.0	-14740.0	-2340541.0
23	18	6	25	392	12.0	-183331.0	-14636.0	-2340929.0
23	18	6	25	393	13.0	-183234.0	-14541.0	-2340926.0
23	18	6	25	393	14.0	-183314.0	-14461.0	-2341333.0
23	18	6	25	394	15.0	-183680.0	-14369.0	-2339052.0
23	18	6	25	394	16.0	-183974.0	-14255.0	-2336417.0
23	18	6	25	395	17.0	-184249.0	-14184.0	-2333351.0
23	18	6	25	395	18.0	-184555.0	-14099.0	-2329783.0
23	18	6	25	396	19.0	-184652.0	-14001.0	-2326893.0
23	18	6	25	397	20.0	-184728.0	-13905.0	-2324592.0
23	18	6	25	397	21.0	-184794.0	-13807.0	-2323806.0
23	18	6	25	398	22.0	-185734.0	-13729.0	-2323188.0
23	18	6	25	398	23.0	-186487.0	-13661.0	-2322762.0
23	18	6	25	399	24.0	-186105.0	-13588.0	-2321312.0
23	18	6	25	399	25.0	-185809.0	-13508.0	-2318368.0
23	18	6	25	400	26.0	-186009.0	-13413.0	-2315228.0
23	18	6	25	414	27.0	-186446.0	-13343.0	-2312766.0
23	18	6	25	415	28.0	-192942.0	-13258.0	-2310964.0
23	18	6	25	415	29.0	-202183.0	-13172.0	-2307871.0
23	18	6	25	416	30.0	-210956.0	-13112.0	-2303879.0
23	18	6	25	416	31.0	-220546.0	-13034.0	-2297581.0
23	18	6	25	417	32.0	-228181.0	-12949.0	-2289197.0
23	18	6	25	418	33.0	-231292.0	-12906.0	-2279352.0
23	18	6	25	418	34.0	-231254.0	-12857.0	-2269066.0
23	18	6	25	437	35.0	-230412.0	-12777.0	-2258117.0
23	18	6	25	438	36.0	-228651.0	-12706.0	-2248407.0
23	18	6	25	439	37.0	-224153.0	-12662.0	-2239664.0
23	18	6	25	439	38.0	-217878.0	-12620.0	-2232426.0
23	18	6	25	440	39.0	-210934.0	-12574.0	-2225128.0
23	18	6	25	441	40.0	-205141.0	-12523.0	-2218955.0
23	18	6	25	441	41.0	-199329.0	-12488.0	-2212054.0
23	18	6	25	442	42.0	-191686.0	-12446.0	-2204774.0
23	18	6	25	442	43.0	-189281.0	-12362.0	-2197251.0
23	18	6	25	443	44.0	-190061.0	-12322.0	-2189632.0
23	18	6	25	443	45.0	-191270.0	-12299.0	-2184037.0
23	18	6	25	444	46.0	-189738.0	-12273.0	-2178991.0
23	18	6	25	445	47.0	-182552.0	-12233.0	-2173639.0
23	18	6	25	445	48.0	-173001.0	-12178.0	-2169361.0
23	18	6	25	446	49.0	-163254.0	-12135.0	-2167239.0
23	18	6	25	460	50.0	-154631.0	-12097.0	-2166438.0
23	18	6	25	461	51.0	-148594.0	-12061.0	-2168047.0
23	18	6	25	461	52.0	-146069.0	-12031.0	-2172110.0
23	18	6	25	462	53.0	-146166.0	-11986.0	-2177500.0
23	18	6	25	462	54.0	-147786.0	-11957.0	-2180836.0
23	18	6	25	463	55.0	-150247.0	-11917.0	-2182273.0
23	18	6	25	464	56.0	-153161.0	-11889.0	-2182729.0
23	18	6	25	483	57.0	-156799.0	-11845.0	-2181129.0
23	18	6	25	484	58.0	-160825.0	-11817.0	-2180139.0
23	18	6	25	485	59.0	-165357.0	-11790.0	-2180200.0
23	18	6	25	485	60.0	-170729.0	-11761.0	-2180122.0
23	18	6	25	486	61.0	-175919.0	-11736.0	-2179906.0
23	18	6	25	487	62.0	-180874.0	-11708.0	-2179375.0
23	18	6	25	487	63.0	-185420.0	-11703.0	-2177591.0
23	18	6	25	488	64.0	-189229.0	-11674.0	-2174578.0
23	18	6	25	488	65.0	-192232.0	-11649.0	-2171737.0
23	18	6	25	489	66.0	-194895.0	-11623.0	-2169129.0
23	18	6	25	490	67.0	-196961.0	-11601.0	-2166184.0
23	18	6	25	490	68.0	-198560.0	-11587.0	-2163143.0
23	18	6	25	491	69.0	-199950.0	-11577.0	-2161127.0
23	18	6	25	491	70.0	-200797.0	-11567.0	-2158180.0
23	18	6	25	492	71.0	-201531.0	-11562.0	-2154982.0
23	18	6	25	506	72.0	-202251.0	-11547.0	-2152849.0
23	18	6	25	507	73.0	-202962.0	-11540.0	-2150467.0
23	18	6	25	507	74.0	-203300.0	-11551.0	-2147317.0
23	18	6	25	508	75.0	-204226.0	-11557.0	-2143899.0
23	18	6	25	508	76.0	-206087.0	-11566.0	-2139380.0
23	18	6	25	509	77.0	-208394.0	-11588.0	-2133959.0
23	18	6	25	509	78.0	-211053.0	-11575.0	-2129144.0
23	18	6	25	529	79.0	-214035.0	-11611.0	-2124930.0
23	18	6	25	530	80.0	-216857.0	-11593.0	-2119991.0
23	18	6	25	530	81.0	-219122.0	-11575.0	-2114902.0
23	18	6	25	531	82.0	-220768.0	-11592.0	-2110891.0
23	18	6	25	532	83.0	-221947.0	-11611.0	-2106389.0
23	18	6	25	532	84.0	-222857.0	-11612.0	-2100805.0
23	18	6	25	533	85.0	-223167.0	-11627.0	-2093436.0
23	18	6	25	533	86.0	-222940.0	-11643.0	-2086595.0
23	18	6	25	534	87.0	-222502.0	-11637.0	-2079676.0
23	18	6	25	535	88.0	-221922.0	-11628.0	-2072454.0
23	18	6	25	535	89.0	-220953.0	-11634.0	-2066329.0
23	18	6	25	536	90.0	-219683.0	-11639.0	-2059822.0
23	18	6	25	536	91.0	-218197.0	-11654.0	-2054080.0
23	18	6	25	537	92.0	-215906.0	-11662.0	-2050079.0
23	18	6	25	537	93.0	-213022.0	-11681.0	-2046937.0
23	18	6	25	554	94.0	-209894.0	-11666.0	-2045228.0
23	18	6	25	554	95.0	-205528.0	-11659.0	-2042386.0
23	18	6	25	555	96.0	-200536.0	-11679.0	-2038681.0
23	18	6	25	556	97.0	-195591.0	-11682.0	-2034745.0
23	18	6	25	556	98.0	-190242.0	-11691.0	-2030402.0
23	18	6	25	557	99.0	-184455.0	-11699.0	-2029189.0
23	18	6	25	557	100.0	-179145.0	-11704.0	-2029889.0
23	18	6	25	558	101.0	-174397.0	-11727.0	-2032091.0
23	18	6	25	576	102.0	-169694.0	-11726.0	-2034785.0
23	18	6	25	577	103.0	-165676.0	-11737.0	-2036621.0
23	18	6	25	577	104.0	-162245.0	-11741.0	-2038810.0
23	18	6	25	578	105.0	-159180.0	-11749.0	-2040501.0
23	18	6	25	579	106.0	-156701.0	-11752.0	-2042176.0
23	18	6	25	579	107.0	-154856.0	-11777.0	-2043718.0
23	18	6	25	580	108.0	-153647.0	-11793.0	-2044629.0
23	18	6	25	580	109.0	-152681.0	-11786.0	-2045904.0
23	18	6	25	581	110.0	-152042.0	-11789.0	-2047887.0
23	18	6	25	581	111.0	-152099.0	-11780.0	-2049496.0
23	18	6	25	582	112.0	-152739.0	-11784.0	-2051961.0
23	18	6	25	583	113.0	-153941.0	-11802.0	-2055052.0
23	18	6	25	583	114.0	-155754.0	-11821.0	-2057054.0
23	18	6	25	584	115.0	-158441.0	-11819.0	-2057022.0
23	18	6	25	584	116.0	-161947.0	-11813.0	-2056124.0
23	18	6	25	599	117.0	-165904.0	-11810.0	-2055466.0
23	18	6	25	599	118.0	-170441.0	-11809.0	-2054097.0
23	18	6	25	600	119.0	-175497.0	-11803.0	-2052076.0
23	18	6	25	600	120.0	-180848.0	-11816.0	-2048561.0
23	18	6	25	601	121.0	-186542.0	-11815.0	-2045230.0
23	18	6	25	602	122.0	-192980.0	-11814.0	-2043077.0
23	18	6	25	602	123.0	-199397.0	-11820.0	-2041126.0
23	18	6	25	621	124.0	-205200.0	-11822.0	-2037466.0
23	18	6	25	622	125.0	-210869.0	-11808.0	-2032892.0
23	18	6	25	622	126.0	-216172.0	-11810.0	-2025954.0
23	18	6	25	623	127.0	-220626.0	-11806.0	-2017819.0
23	18	6	25	623	128.0	-224197.0	-11804.0	-2010191.0
23	18	6	25	624	129.0	-227026.0	-11822.0	-2003540.0
23	18	6	25	625	130.0	-229056.0	-11830.0	-1997567.0
23	18	6	25	625	131.0	-230049.0	-11817.0	-1992131.0
23	18	6	25	626	132.0	-230246.0	-11812.0	-1985332.0
23	18	6	25	626	133.0	-229849.0	-11800.0	-1979699.0
23	18	6	25	627	134.0	-228762.0	-11796.0	-1973970.0
23	18	6	25	628	135.0	-226862.0	-11802.0	-1967366.0
23	18	6	25	628	136.0	-224745.0	-11804.0	-1960495.0
23	18	6	25	629	137.0	-222040.0	-11812.0	-1953820.0
23	18	6	25	629	138.0	-218548.0	-11814.0	-1947126.0
23	18	6	25	643	139.0	-214531.0	-11812.0	-1941957.0
23	18	6	25	644	140.0	-210272.0	-11811.0	-1937954.0
23	18	6	25	645	141.0	-205871.0	-11803.0	-1934721.0
23	18	6	25	645	142.0	-201706.0	-11798.0	-1932184.0
23	18	6	25	646	143.0	-197314.0	-11812.0	-1928756.0
23	18	6	25	646	144.0	-192998.0	-11827.0	-1925181.0
23	18	6	25	647	145.0	-188391.0	-11836.0	-1922293.0
23	18	6	25	648	146.0	-183878.0	-11831.0	-1920434.0
23	18	6	25	668	147.0	-179700.0	-11821.0	-1918719.0
23	18	6	25	669	148.0	-175860.0	-11796.0	-1916520.0
23	18	6	25	670	149.0	-172195.0	-11797.0	-1916468.0
23	18	6	25	670	150.0	-168898.0	-11819.0	-1917759.0
23	18	6	25	671	151.0	-165981.0	-11821.0	-1917367.0
23	18	6	25	671	152.0	-163636.0	-11826.0	-1917106.0
23	18	6	25	672	153.0	-162532.0	-11845.0	-1917276.0
23	18	6	25	673	154.0	-162732.0	-11846.0	-1917619.0
23	18	6	25	673	155.0	-164109.0	-11829.0	-1916568.0
23	18	6	25	674	156.0	-166552.0	-11821.0	-1914146.0
23	18	6	25	674	157.0	-169729.0	-11844.0	-1910755.0
23	18	6	25	675	158.0	-173136.0	-11845.0	-1907334.0
23	18	6	25	676	159.0	-176743.0	-11843.0	-1903056.0
23	18	6	25	676	160.0	-180117.0	-11859.0	-1898977.0
23	18	6	25	677	161.0	-183304.0	-11869.0	-1895588.0
23	18	6	25	691	162.0	-186114.0	-11880.0	-1892170.0
23	18	6	25	692	163.0	-188574.0	-11885.0	-1889252.0
23	18	6	25	692	164.0	-190961.0	-11896.0	-1886553.0
23	18	6	25	693	165.0	-193637.0	-11911.0	-1882641.0
23	18	6	25	694	166.0	-196444.0	-11918.0	-1876435.0
23	18	6	25	694	167.0	-198886.0	-11944.0	-1869595.0
23	18	6	25	695	168.0	-201332.0	-11959.0	-1864746.0
23	18	6	25	696	169.0	-203461.0	-11974.0	-1860308.0
23	18	6	25	696	170.0	-205509.0	-11961.0	-1855746.0
23	18	6	25	697	171.0	-207011.0	-11981.0	-1850951.0
23	18	6	25	698	172.0	-208107.0	-11990.0	-1845685.0
23	18	6	25	698	173.0	-209122.0	-12021.0	-1840394.0
23	18	6	25	699	174.0	-209646.0	-12040.0	-1836007.0
23	18	6	25	699	175.0	-209886.0	-12049.0	-1831129.0
23	18	6	25	700	176.0	-209527.0	-12056.0	-1824851.0
23	18	6	25	715	177.0	-208479.0	-12057.0	-1818222.0
23	18	6	25	716	178.0	-206713.0	-12067.0	-1811332.0
23	18	6	25	716	179.0	-204529.0	-12092.0	-1805916.0
23	18	6	25	717	180.0	-201545.0	-12117.0	-1801449.0
23	18	6	25	718	181.0	-197572.0	-12122.0	-1798256.0
23	18	6	25	718	182.0	-192952.0	-12141.0	-1796222.0
23	18	6	25	719	183.0	-188042.0	-12169.0	-1794319.0
23	18	6	25	737	184.0	-183204.0	-12192.0	-1791730.0
23	18	6	25	738	185.0	-178403.0	-12197.0	-1789157.0
23	18	6	25	739	186.0	-173827.0	-12220.0	-1787191.0
23	18	6	25	739	187.0	-169169.0	-12246.0	-1785132.0
23	18	6	25	740	188.0	-165221.0	-12257.0	-1784469.0
23	18	6	25	741	189.0	-161239.0	-12251.0	-1785701.0
23	18	6	25	741	190.0	-157558.0	-12281.0	-1787131.0
23	18	6	25	742	191.0	-154466.0	-12303.0	-1789141.0
23	18	6	25	743	192.0	-151750.0	-12299.0	-1791862.0
23	18	6	25	743	193.0	-150394.0	-12298.0	-1794748.0
23	18	6	25	744	194.0	-149739.0	-12318.0	-1797745.0
