23	17	34	35	856	252.0	-200434.0	-3239451.0	70619.0
23	17	34	35	858	253.0	-200152.0	-3236164.0	67660.0
23	17	34	35	861	254.0	-199515.0	-3234620.0	68186.0
23	17	34	35	863	255.0	-198921.0	-3233905.0	70075.0
23	17	34	35	865	0.0	-198614.0	-3234532.0	71620.0
23	17	34	35	867	1.0	-198473.0	-3234239.0	73351.0
23	17	34	35	869	2.0	-198474.0	-3232638.0	75962.0
23	17	34	35	871	3.0	-198629.0	-3233934.0	78205.0
23	17	34	35	873	4.0	-198674.0	-3235308.0	76911.0
23	17	34	35	874	5.0	-198671.0	-3233134.0	73958.0
23	17	34	35	875	6.0	-198702.0	-3231486.0	69105.0
23	17	34	35	876	7.0	-198744.0	-3229249.0	67318.0
23	17	34	35	877	8.0	-198491.0	-3227690.0	67544.0
23	17	34	35	878	9.0	-198062.0	-3227737.0	70009.0
23	17	34	35	878	10.0	-196815.0	-3227861.0	71928.0
23	17	34	35	879	11.0	-193554.0	-3227959.0	73866.0
23	17	34	35	888	12.0	-188151.0	-3228415.0	76366.0
23	17	34	35	889	13.0	-185786.0	-3229756.0	79220.0
23	17	34	35	889	14.0	-188062.0	-3230927.0	78158.0
23	17	34	35	890	15.0	-190754.0	-3232066.0	74556.0
23	17	34	35	891	16.0	-193098.0	-3234604.0	70488.0
23	17	34	35	891	17.0	-193456.0	-3233117.0	68164.0
23	17	34	35	892	18.0	-194028.0	-3229369.0	68998.0
23	17	34	35	942	19.0	-193723.0	-3226034.0	71681.0
23	17	34	35	987	20.0	-192081.0	-3221504.0	73580.0
23	17	34	35	988	21.0	-189481.0	-3214266.0	76333.0
23	17	34	35	989	22.0	-186909.0	-3215146.0	79476.0
23	17	34	35	990	23.0	-185151.0	-3218230.0	81921.0
23	17	34	35	991	24.0	-184432.0	-3218929.0	80209.0
23	17	34	35	991	25.0	-185149.0	-3217706.0	76921.0
23	17	34	35	992	26.0	-187214.0	-3216484.0	71618.0
23	17	34	35	993	27.0	-189755.0	-3214977.0	68779.0
23	17	34	35	993	28.0	-192307.0	-3213320.0	69666.0
23	17	34	35	994	29.0	-194444.0	-3211694.0	72700.0
23	17	34	35	994	30.0	-196051.0	-3209794.0	74609.0
23	17	34	35	995	31.0	-197099.0	-3209600.0	76080.0
23	17	34	35	995	32.0	-197906.0	-3210354.0	78974.0
23	17	34	35	996	33.0	-198077.0	-3213987.0	81176.0
23	17	34	35	997	45.0	-179329.0	-3201644.0	76166.0
23	17	34	35	997	67.0	-211804.0	-3153735.0	70759.0
23	17	34	35	998	68.0	-212090.0	-3154367.0	72332.0
23	17	34	35	998	69.0	-212191.0	-3154580.0	74858.0
23	17	34	35	999	70.0	-212076.0	-3155419.0	76960.0
23	17	34	35	999	71.0	-211588.0	-3164816.0	78255.0
23	17	34	36	0	72.0	-211085.0	-3169729.0	81336.0
23	17	34	36	1	73.0	-210413.0	-3170105.0	82427.0
23	17	34	36	31	74.0	-209938.0	-3167849.0	79711.0
23	17	34	36	32	75.0	-209091.0	-3164861.0	76264.0
23	17	34	36	32	76.0	-208334.0	-3161627.0	71369.0
23	17	34	36	33	77.0	-207672.0	-3159176.0	70764.0
23	17	34	36	34	78.0	-207170.0	-3158170.0	72351.0
23	17	34	36	34	79.0	-206712.0	-3158098.0	74206.0
23	17	34	36	35	80.0	-206214.0	-3157185.0	75904.0
23	17	34	36	35	81.0	-205319.0	-3156264.0	78356.0
23	17	34	36	36	82.0	-204142.0	-3155970.0	81208.0
23	17	34	36	37	83.0	-202957.0	-3157204.0	81469.0
23	17	34	36	37	84.0	-201826.0	-3157861.0	78426.0
23	17	34	36	48	85.0	-200342.0	-3157078.0	74106.0
23	17	34	36	48	86.0	-198907.0	-3155225.0	70249.0
23	17	34	36	49	87.0	-197599.0	-3152811.0	67734.0
23	17	34	36	50	88.0	-196265.0	-3150917.0	69291.0
23	17	34	36	51	90.0	-193768.0	-3142779.0	73529.0
23	17	34	36	51	91.0	-192691.0	-3141927.0	75598.0
23	17	34	36	52	92.0	-191564.0	-3142184.0	78638.0
23	17	34	36	52	93.0	-190802.0	-3143162.0	78765.0
23	17	34	36	53	94.0	-190411.0	-3142457.0	76176.0
23	17	34	36	54	95.0	-190167.0	-3140224.0	70232.0
23	17	34	36	78	96.0	-190034.0	-3137586.0	67324.0
23	17	34	36	78	97.0	-190006.0	-3132669.0	65975.0
23	17	34	36	79	98.0	-190379.0	-3128556.0	68457.0
23	17	34	36	80	99.0	-190905.0	-3128877.0	71388.0
23	17	34	36	80	100.0	-191474.0	-3129724.0	73338.0
23	17	34	36	81	101.0	-192266.0	-3129125.0	75196.0
23	17	34	36	81	102.0	-193024.0	-3129620.0	78180.0
23	17	34	36	122	103.0	-193829.0	-3131122.0	78529.0
23	17	34	36	123	104.0	-194376.0	-3131412.0	75951.0
23	17	34	36	124	105.0	-194875.0	-3130148.0	70567.0
23	17	34	36	125	106.0	-195257.0	-3126376.0	67563.0
23	17	34	36	125	107.0	-195847.0	-3120147.0	66821.0
23	17	34	36	126	108.0	-196309.0	-3118227.0	68886.0
23	17	34	36	127	109.0	-196869.0	-3118753.0	71004.0
23	17	34	36	127	110.0	-197523.0	-3122109.0	73198.0
23	17	34	36	128	112.0	-198600.0	-3126083.0	78921.0
23	17	34	36	128	113.0	-199048.0	-3126727.0	79627.0
23	17	34	36	167	114.0	-199557.0	-3126274.0	76591.0
23	17	34	36	168	115.0	-199769.0	-3125389.0	72281.0
23	17	34	36	168	116.0	-199738.0	-3124306.0	68632.0
23	17	34	36	169	117.0	-199661.0	-3123104.0	68259.0
23	17	34	36	170	118.0	-199572.0	-3120547.0	70738.0
23	17	34	36	170	135.0	-198696.0	-3112179.0	69740.0
23	17	34	36	171	136.0	-198172.0	-3110392.0	66593.0
23	17	34	36	171	137.0	-197566.0	-3110524.0	66579.0
23	17	34	36	172	138.0	-197099.0	-3109772.0	69461.0
23	17	34	36	173	139.0	-196750.0	-3108620.0	71419.0
23	17	34	36	173	140.0	-196353.0	-3106033.0	73033.0
23	17	34	36	174	141.0	-196111.0	-3104942.0	75556.0
23	17	34	36	174	142.0	-196100.0	-3105416.0	78450.0
23	17	34	36	175	143.0	-196231.0	-3105771.0	77936.0
23	17	34	36	175	144.0	-196384.0	-3104352.0	74075.0
23	17	34	36	176	157.0	-193889.0	-3089281.0	67020.0
23	17	34	36	177	158.0	-193414.0	-3088922.0	69809.0
23	17	34	36	177	159.0	-193264.0	-3088122.0	72152.0
23	17	34	36	178	160.0	-193304.0	-3088334.0	73823.0
23	17	34	36	178	161.0	-193404.0	-3088828.0	76226.0
23	17	34	36	179	162.0	-193500.0	-3089282.0	78770.0
23	17	34	36	179	163.0	-193524.0	-3088917.0	77800.0
23	17	34	36	212	164.0	-193717.0	-3087659.0	73791.0
23	17	34	36	212	165.0	-193939.0	-3085650.0	69820.0
23	17	34	36	213	166.0	-194280.0	-3084572.0	66579.0
23	17	34	36	214	167.0	-194626.0	-3083648.0	67054.0
23	17	34	36	214	168.0	-194783.0	-3083362.0	69391.0
23	17	34	36	215	169.0	-195041.0	-3083721.0	71346.0
23	17	34	36	216	170.0	-195191.0	-3084988.0	73016.0
23	17	34	36	216	171.0	-195367.0	-3085652.0	75525.0
23	17	34	36	217	172.0	-195629.0	-3086384.0	78162.0
23	17	34	36	217	173.0	-195788.0	-3086178.0	76721.0
23	17	34	36	218	174.0	-195801.0	-3085501.0	73161.0
23	17	34	36	218	175.0	-195698.0	-3084208.0	68398.0
23	17	34	36	219	176.0	-195812.0	-3082631.0	65828.0
23	17	34	36	220	177.0	-195997.0	-3081991.0	66041.0
23	17	34	36	220	178.0	-196175.0	-3084988.0	69198.0
23	17	34	36	221	180.0	-196661.0	-3088457.0	73243.0
23	17	34	36	221	181.0	-196851.0	-3087613.0	76018.0
23	17	34	36	222	182.0	-197260.0	-3086414.0	78175.0
23	17	34	36	223	183.0	-197511.0	-3080204.0	76831.0
23	17	34	36	231	184.0	-197480.0	-3077636.0	72209.0
23	17	34	36	231	185.0	-197551.0	-3076167.0	68014.0
23	17	34	36	257	186.0	-197739.0	-3074808.0	65147.0
23	17	34	36	258	187.0	-197989.0	-3073610.0	66346.0
23	17	34	36	258	188.0	-198174.0	-3072798.0	69466.0
23	17	34	36	259	189.0	-198431.0	-3071834.0	71501.0
23	17	34	36	259	190.0	-198531.0	-3072425.0	73623.0
23	17	34	36	260	191.0	-198343.0	-3073287.0	76249.0
23	17	34	36	260	192.0	-198176.0	-3074192.0	78231.0
23	17	34	36	261	193.0	-197659.0	-3074565.0	76004.0
23	17	34	36	262	194.0	-197209.0	-3073706.0	71779.0
23	17	34	36	262	195.0	-196918.0	-3072744.0	68333.0
23	17	34	36	263	196.0	-196514.0	-3072574.0	66155.0
23	17	34	36	263	197.0	-196229.0	-3070088.0	67378.0
23	17	34	36	264	198.0	-195912.0	-3068014.0	70078.0
23	17	34	36	265	199.0	-195789.0	-3056889.0	72456.0
23	17	34	36	265	200.0	-195402.0	-3049694.0	74486.0
23	17	34	36	266	202.0	-194102.0	-3052210.0	79138.0
23	17	34	36	266	203.0	-193410.0	-3052724.0	77078.0
23	17	34	36	267	204.0	-192594.0	-3051899.0	72753.0
23	17	34	36	268	205.0	-191747.0	-3049514.0	68791.0
23	17	34	36	268	206.0	-191048.0	-3047171.0	66085.0
23	17	34	36	269	207.0	-190272.0	-3045882.0	67804.0
23	17	34	36	269	208.0	-189474.0	-3042384.0	71098.0
23	17	34	36	303	209.0	-189055.0	-3030106.0	73389.0
23	17	34	36	304	210.0	-188974.0	-3027997.0	75206.0
23	17	34	36	304	211.0	-189062.0	-3029640.0	78653.0
23	17	34	36	305	212.0	-189432.0	-3031499.0	80499.0
23	17	34	36	306	213.0	-189914.0	-3031905.0	77633.0
23	17	34	36	306	214.0	-190449.0	-3030871.0	74064.0
23	17	34	36	307	215.0	-191211.0	-3028762.0	69538.0
23	17	34	36	307	216.0	-192120.0	-3027391.0	68395.0
23	17	34	36	308	217.0	-193396.0	-3026229.0	69803.0
23	17	34	36	309	218.0	-194946.0	-3025428.0	72043.0
23	17	34	36	309	219.0	-196509.0	-3024382.0	74183.0
23	17	34	36	310	220.0	-197816.0	-3023858.0	76053.0
23	17	34	36	310	221.0	-199035.0	-3024017.0	78936.0
23	17	34	36	311	222.0	-200121.0	-3024769.0	80692.0
23	17	34	36	312	223.0	-201029.0	-3024309.0	78209.0
23	17	34	36	312	225.0	-202014.0	-3016679.0	70472.0
23	17	34	36	313	226.0	-202152.0	-3015599.0	69562.0
23	17	34	36	313	227.0	-201988.0	-3015106.0	71654.0
23	17	34	36	314	228.0	-201459.0	-3018216.0	74162.0
23	17	34	36	315	229.0	-200783.0	-3031005.0	76028.0
23	17	34	36	315	230.0	-200151.0	-3034612.0	78033.0
23	17	34	36	348	231.0	-199439.0	-3034630.0	80748.0
23	17	34	36	349	232.0	-198415.0	-3034307.0	81634.0
23	17	34	36	349	233.0	-197947.0	-3034511.0	79153.0
23	17	34	36	350	234.0	-197372.0	-3034216.0	75022.0
23	17	34	36	350	235.0	-196911.0	-3032351.0	71152.0
23	17	34	36	351	236.0	-196361.0	-3031287.0	69166.0
23	17	34	36	351	237.0	-195695.0	-3030613.0	71253.0
23	17	34	36	393	238.0	-194887.0	-3030624.0	73875.0
23	17	34	36	394	239.0	-194179.0	-3030645.0	76049.0
23	17	34	36	394	240.0	-193345.0	-3031133.0	78091.0
23	17	34	36	395	241.0	-192572.0	-3038625.0	81079.0
23	17	34	36	396	242.0	-191511.0	-3048087.0	81535.0
23	17	34	36	396	243.0	-190466.0	-3046688.0	78620.0
23	17	34	36	397	244.0	-189681.0	-3044290.0	75399.0
23	17	34	36	397	245.0	-189211.0	-3041199.0	70296.0
23	17	34	36	398	247.0	-188134.0	-3036156.0	74765.0
23	17	34	36	399	248.0	-188138.0	-3035901.0	78045.0
23	17	34	36	399	249.0	-188182.0	-3035751.0	80206.0
23	17	34	36	400	250.0	-188355.0	-3035125.0	82184.0
23	17	34	36	400	251.0	-189074.0	-3034731.0	85012.0
23	17	34	36	401	252.0	-189731.0	-3035734.0	84264.0
23	17	34	36	401	253.0	-190504.0	-3035593.0	80573.0
23	17	34	36	402	14.0	-196497.0	-3024550.0	80849.0
23	17	34	36	403	15.0	-196723.0	-3026039.0	83968.0
23	17	34	36	403	16.0	-196968.0	-3027934.0	83637.0
23	17	34	36	404	17.0	-197081.0	-3028104.0	81015.0
23	17	34	36	404	18.0	-197160.0	-3026957.0	75958.0
23	17	34	36	413	19.0	-197216.0	-3021167.0	72992.0
23	17	34	36	437	20.0	-197199.0	-3007026.0	72475.0
23	17	34	36	438	21.0	-197034.0	-3005467.0	75164.0
23	17	34	36	438	22.0	-197039.0	-3007367.0	77427.0
23	17	34	36	439	23.0	-197095.0	-3008679.0	78828.0
23	17	34	36	440	24.0	-197119.0	-3009892.0	80937.0
23	17	34	36	440	25.0	-197387.0	-3011487.0	83827.0
23	17	34	36	441	26.0	-197519.0	-3013109.0	83094.0
23	17	34	36	442	27.0	-197650.0	-3012954.0	80133.0
23	17	34	36	442	28.0	-197649.0	-3011567.0	75480.0
23	17	34	36	443	29.0	-197704.0	-3009426.0	72884.0
23	17	34	36	443	30.0	-197705.0	-3007297.0	72368.0
23	17	34	36	444	31.0	-197471.0	-3006618.0	75096.0
23	17	34	36	444	32.0	-197107.0	-3006816.0	77244.0
23	17	34	36	445	33.0	-196518.0	-3006692.0	78868.0
23	17	34	36	446	34.0	-195925.0	-3007560.0	81321.0
23	17	34	36	446	36.0	-195429.0	-3010897.0	83273.0
23	17	34	36	482	37.0	-195081.0	-3013014.0	79986.0
23	17	34	36	483	38.0	-194950.0	-3012641.0	75608.0
23	17	34	36	483	39.0	-195119.0	-3010550.0	72006.0
23	17	34	36	484	40.0	-195507.0	-3008784.0	72084.0
23	17	34	36	485	41.0	-195909.0	-3007287.0	75076.0
23	17	34	36	485	42.0	-196419.0	-3007197.0	77474.0
23	17	34	36	486	43.0	-196860.0	-3007130.0	79408.0
23	17	34	36	487	44.0	-197279.0	-3006804.0	81899.0
23	17	34	36	487	45.0	-197780.0	-3003651.0	84666.0
23	17	34	36	488	46.0	-198305.0	-3004458.0	83854.0
23	17	34	36	488	47.0	-198722.0	-3006019.0	80967.0
23	17	34	36	489	48.0	-198969.0	-3005174.0	75283.0
23	17	34	36	490	49.0	-199168.0	-3003545.0	73383.0
23	17	34	36	490	50.0	-199349.0	-3002347.0	73111.0
23	17	34	36	491	51.0	-199377.0	-3002499.0	75398.0
23	17	34	36	491	52.0	-199191.0	-3003915.0	77961.0
23	17	34	36	492	59.0	-196355.0	-3004814.0	72468.0
23	17	34	36	493	60.0	-195811.0	-3003554.0	73151.0
23	17	34	36	493	61.0	-195057.0	-3003566.0	76280.0
23	17	34	36	494	62.0	-194359.0	-3003781.0	78276.0
23	17	34	36	495	63.0	-193897.0	-3003677.0	80744.0
23	17	34	36	495	64.0	-193465.0	-3004021.0	84380.0
23	17	34	36	527	65.0	-193321.0	-3003546.0	87192.0
23	17	34	36	528	66.0	-193111.0	-3001768.0	86540.0
23	17	34	36	529	67.0	-192960.0	-3002169.0	82718.0
23	17	34	36	529	68.0	-193281.0	-3002170.0	79665.0
23	17	34	36	530	69.0	-193806.0	-3000481.0	76590.0
23	17	34	36	531	70.0	-194299.0	-2999042.0	77489.0
23	17	34	36	532	71.0	-194665.0	-2997549.0	79883.0
23	17	34	36	532	72.0	-195076.0	-2995552.0	81616.0
23	17	34	36	533	73.0	-195580.0	-2995861.0	83693.0
23	17	34	36	534	74.0	-195882.0	-2997586.0	86669.0
23	17	34	36	534	75.0	-196086.0	-2999462.0	89208.0
23	17	34	36	535	76.0	-196314.0	-3001245.0	89455.0
23	17	34	36	536	77.0	-196471.0	-3001162.0	88273.0
23	17	34	36	536	78.0	-196873.0	-2998646.0	83477.0
23	17	34	36	537	79.0	-197226.0	-2996489.0	79914.0
23	17	34	36	537	81.0	-197938.0	-2994442.0	83360.0
23	17	34	36	538	82.0	-198091.0	-2994005.0	84896.0
23	17	34	36	547	83.0	-198239.0	-2993602.0	86534.0
23	17	34	36	548	84.0	-198291.0	-2994078.0	90208.0
23	17	34	36	549	85.0	-198056.0	-2995755.0	93338.0
23	17	34	36	549	86.0	-198046.0	-2997557.0	91458.0
23	17	34	36	572	87.0	-198107.0	-2997836.0	87834.0
23	17	34	36	573	88.0	-198426.0	-2996811.0	82383.0
23	17	34	36	574	89.0	-198979.0	-2996441.0	77909.0
23	17	34	36	574	90.0	-199484.0	-2996151.0	77159.0
23	17	34	36	575	91.0	-200247.0	-2996087.0	76814.0
23	17	34	36	576	92.0	-201082.0	-2996567.0	74825.0
23	17	34	36	576	93.0	-201954.0	-2997438.0	72493.0
23	17	34	36	577	94.0	-202882.0	-2998326.0	70946.0
23	17	34	36	578	95.0	-203421.0	-3000141.0	67313.0
23	17	34	36	578	96.0	-203621.0	-3001136.0	60936.0
23	17	34	36	579	97.0	-203282.0	-3001304.0	52574.0
23	17	34	36	579	98.0	-201999.0	-3000862.0	46462.0
23	17	34	36	580	99.0	-199514.0	-2999911.0	40554.0
23	17	34	36	581	100.0	-196431.0	-2999722.0	39176.0
23	17	34	36	581	101.0	-192602.0	-3005612.0	40172.0
23	17	34	36	582	103.0	-183692.0	-3020424.0	46828.0
23	17	34	36	583	104.0	-179777.0	-3020605.0	53704.0
23	17	34	36	583	105.0	-176699.0	-3022198.0	60777.0
23	17	34	36	584	106.0	-174934.0	-3026417.0	65208.0
23	17	34	36	584	107.0	-174554.0	-3027231.0	68809.0
23	17	34	36	585	108.0	-175551.0	-3024853.0	69886.0
23	17	34	36	586	109.0	-177779.0	-3022732.0	69423.0
23	17	34	36	617	110.0	-181014.0	-3021211.0	73119.0
23	17	34	36	618	111.0	-184507.0	-3021469.0	78578.0
23	17	34	36	626	112.0	-187906.0	-3026881.0	83328.0
23	17	34	36	626	113.0	-190838.0	-3029712.0	88038.0
23	17	34	36	627	114.0	-190554.0	-3030490.0	93070.0
23	17	34	36	628	115.0	-182189.0	-3033305.0	95511.0
23	17	34	36	628	116.0	-171023.0	-3035350.0	91761.0
23	17	34	36	629	117.0	-162262.0	-3035566.0	87775.0
23	17	34	36	629	118.0	-158874.0	-3034236.0	82498.0
23	17	34	36	630	119.0	-162378.0	-3031737.0	80321.0
23	17	34	36	630	120.0	-170711.0	-3030381.0	81622.0
23	17	34	36	631	121.0	-181607.0	-3030779.0	83923.0
23	17	34	36	632	122.0	-191169.0	-3032405.0	85796.0
23	17	34	36	632	123.0	-199084.0	-3035461.0	87975.0
23	17	34	36	633	124.0	-204719.0	-3036707.0	91379.0
23	17	34	36	633	126.0	-210320.0	-3038316.0	90950.0
23	17	34	36	634	127.0	-207446.0	-3038184.0	87884.0
23	17	34	36	634	128.0	-202253.0	-3037032.0	83059.0
23	17	34	36	635	129.0	-197211.0	-3036199.0	81844.0
23	17	34	36	636	130.0	-191822.0	-3037964.0	83836.0
23	17	34	36	636	131.0	-188078.0	-3039349.0	86168.0
23	17	34	36	663	132.0	-186059.0	-3040147.0	88243.0
23	17	34	36	664	133.0	-186862.0	-3041204.0	90161.0
23	17	34	36	665	134.0	-190219.0	-3043314.0	93102.0
23	17	34	36	666	135.0	-195179.0	-3045491.0	94223.0
23	17	34	36	666	136.0	-201486.0	-3045564.0	92027.0
23	17	34	36	667	137.0	-208904.0	-3044407.0	87885.0
23	17	34	36	668	138.0	-215941.0	-3036479.0	83574.0
23	17	34	36	668	139.0	-221232.0	-3024576.0	82099.0
23	17	34	36	669	140.0	-224574.0	-3022894.0	84082.0
23	17	34	36	670	141.0	-226157.0	-3022971.0	86693.0
23	17	34	36	670	142.0	-227132.0	-3023037.0	88938.0
23	17	34	36	671	143.0	-228333.0	-3024012.0	91092.0
23	17	34	36	672	144.0	-229018.0	-3025749.0	94230.0
23	17	34	36	672	145.0	-228958.0	-3027598.0	94986.0
23	17	34	36	673	146.0	-227956.0	-3027712.0	92016.0
23	17	34	36	674	148.0	-225150.0	-3023507.0	83404.0
23	17	34	36	674	149.0	-224118.0	-3028424.0	82675.0
23	17	34	36	675	150.0	-222996.0	-3032184.0	86295.0
23	17	34	36	676	151.0	-222323.0	-3032116.0	88466.0
23	17	34	36	676	152.0	-221465.0	-3031139.0	89747.0
23	17	34	36	677	153.0	-220870.0	-3030815.0	92069.0
23	17	34	36	677	154.0	-220288.0	-3032235.0	95441.0
23	17	34	36	708	155.0	-218876.0	-3034688.0	95438.0
23	17	34	36	708	156.0	-217049.0	-3036441.0	92581.0
23	17	34	36	753	157.0	-214301.0	-3036445.0	88852.0
23	17	34	36	753	158.0	-211297.0	-3034956.0	84613.0
23	17	34	36	754	159.0	-207737.0	-3034171.0	83412.0
23	17	34	36	754	160.0	-203705.0	-3034134.0	85764.0
23	17	34	36	755	161.0	-199697.0	-3034929.0	88328.0
23	17	34	36	755	162.0	-195882.0	-3035942.0	90471.0
23	17	34	36	756	163.0	-192754.0	-3036763.0	92878.0
23	17	34	36	757	164.0	-190164.0	-3037659.0	96194.0
23	17	34	36	757	165.0	-187939.0	-3039652.0	95681.0
23	17	34	36	758	166.0	-186453.0	-3042946.0	92246.0
23	17	34	36	758	167.0	-185531.0	-3042699.0	87769.0
23	17	34	36	759	168.0	-185626.0	-3041671.0	84085.0
23	17	34	36	759	169.0	-186989.0	-3039999.0	83612.0
23	17	34	36	760	171.0	-191941.0	-3039127.0	87617.0
23	17	34	36	775	172.0	-196132.0	-3039229.0	89166.0
23	17	34	36	775	173.0	-200874.0	-3039904.0	91989.0
23	17	34	36	776	193.0	-220217.0	-3017916.0	90139.0
23	17	34	36	777	194.0	-222815.0	-3020369.0	92387.0
23	17	34	36	777	195.0	-224855.0	-3023441.0	91279.0
23	17	34	36	778	196.0	-226600.0	-3024017.0	87591.0
23	17	34	36	778	197.0	-228711.0	-3022767.0	82949.0
23	17	34	36	779	198.0	-230039.0	-3020970.0	78878.0
23	17	34	36	779	199.0	-231277.0	-3019439.0	78993.0
23	17	34	36	798	200.0	-232217.0	-3019131.0	80869.0
23	17	34	36	799	201.0	-232313.0	-3019674.0	82599.0
23	17	34	36	800	202.0	-231242.0	-3019443.0	84848.0
23	17	34	36	800	203.0	-230559.0	-3019047.0	87491.0
23	17	34	36	801	204.0	-230126.0	-3018984.0	89804.0
23	17	34	36	801	205.0	-228763.0	-3019927.0	88088.0
23	17	34	36	802	206.0	-227727.0	-3020742.0	84906.0
23	17	34	36	802	207.0	-226688.0	-3020946.0	78728.0
23	17	34	36	803	208.0	-226204.0	-3020605.0	75217.0
23	17	34	36	804	209.0	-225616.0	-3025217.0	75048.0
23	17	34	36	804	210.0	-224931.0	-3029647.0	77088.0
23	17	34	36	805	211.0	-223999.0	-3030294.0	78386.0
23	17	34	36	805	212.0	-223185.0	-3030918.0	79022.0
23	17	34	36	806	213.0	-221549.0	-3032221.0	81278.0
23	17	34	36	807	214.0	-220148.0	-3034414.0	83994.0
23	17	34	36	807	216.0	-220377.0	-3035092.0	78473.0
23	17	34	36	808	217.0	-220746.0	-3033992.0	71581.0
23	17	34	36	808	218.0	-221157.0	-3032105.0	68556.0
23	17	34	36	809	219.0	-221342.0	-3028807.0	69553.0
23	17	34	36	809	220.0	-222251.0	-3027329.0	71797.0
23	17	34	36	810	221.0	-222735.0	-3027712.0	73113.0
23	17	34	36	841	222.0	-224132.0	-3028804.0	74399.0
23	17	34	36	842	223.0	-225604.0	-3030938.0	77083.0
23	17	34	36	843	224.0	-227464.0	-3033549.0	78531.0
23	17	34	36	843	225.0	-228901.0	-3035057.0	76559.0
23	17	34	36	844	226.0	-228804.0	-3033619.0	72453.0
23	17	34	36	844	227.0	-228774.0	-3030657.0	68523.0
23	17	34	36	845	228.0	-228373.0	-3028992.0	67171.0
23	17	34	36	846	229.0	-227634.0	-3027983.0	68409.0
23	17	34	36	846	230.0	-226340.0	-3027650.0	69438.0
23	17	34	36	847	231.0	-225062.0	-3029921.0	69631.0
23	17	34	36	847	232.0	-223493.0	-3035979.0	70539.0
23	17	34	36	848	233.0	-222676.0	-3038033.0	73844.0
23	17	34	36	848	234.0	-222855.0	-3039396.0	75343.0
23	17	34	36	849	235.0	-222461.0	-3040327.0	71478.0
23	17	34	36	850	236.0	-222159.0	-3040527.0	66134.0
23	17	34	36	850	238.0	-217889.0	-3038003.0	56481.0
23	17	34	36	851	239.0	-209962.0	-3036866.0	57750.0
23	17	34	36	851	240.0	-229739.0	-3037198.0	59576.0
23	17	34	36	852	241.0	-228883.0	-3038573.0	65522.0
23	17	34	36	852	242.0	-229117.0	-3040531.0	72378.0
23	17	34	36	853	243.0	-231911.0	-3042801.0	78252.0
23	17	34	36	887	244.0	-233477.0	-3046112.0	80313.0
23	17	34	36	887	245.0	-235121.0	-3051932.0	77965.0
23	17	34	36	888	246.0	-237109.0	-3053308.0	73571.0
23	17	34	36	888	247.0	-240061.0	-3051600.0	68081.0
23	17	34	36	889	248.0	-245630.0	-3049819.0	65604.0
23	17	34	36	890	249.0	-252759.0	-3047787.0	65903.0
23	17	34	36	890	250.0	-255352.0	-3047331.0	68043.0
23	17	34	36	891	251.0	-258956.0	-3048195.0	69789.0
23	17	34	36	907	252.0	-262008.0	-3049912.0	70648.0
23	17	34	36	908	253.0	-267046.0	-3052192.0	73461.0
23	17	34	36	908	254.0	-271729.0	-3055426.0	74200.0
23	17	34	36	909	255.0	-273282.0	-3058692.0	69958.0
23	17	34	36	910	0.0	-273433.0	-3059630.0	63363.0
23	17	34	36	910	1.0	-275530.0	-3057745.0	56565.0
23	17	34	36	911	2.0	-276076.0	-3055114.0	55470.0
23	17	34	36	911	5.0	-261429.0	-3054130.0	52787.0
23	17	34	36	912	6.0	-257175.0	-3054215.0	53475.0
23	17	34	36	912	7.0	-246949.0	-3055251.0	55836.0
23	17	34	36	913	8.0	-244072.0	-3061965.0	55725.0
23	17	34	36	913	9.0	-241845.0	-3069106.0	50739.0
23	17	34	36	914	10.0	-238201.0	-3068888.0	43208.0
23	17	34	36	915	11.0	-239981.0	-3066069.0	40792.0
23	17	34	36	931	12.0	-238641.0	-3062958.0	40708.0
23	17	34	36	932	13.0	-230028.0	-3062729.0	40717.0
23	17	34	36	932	14.0	-219097.0	-3073067.0	40593.0
23	17	34	36	933	15.0	-209978.0	-3078995.0	39980.0
23	17	34	36	934	16.0	-202563.0	-3081033.0	40148.0
23	17	34	36	934	17.0	-196644.0	-3084525.0	40994.0
23	17	34	36	935	18.0	-193111.0	-3089674.0	40663.0
23	17	34	36	935	19.0	-189419.0	-3090700.0	35986.0
23	17	34	36	936	20.0	-191191.0	-3090164.0	29858.0
23	17	34	36	937	21.0	-190772.0	-3088306.0	27564.0
23	17	34	36	937	22.0	-190064.0	-3085398.0	25838.0
23	17	34	36	938	23.0	-189577.0	-3082821.0	24972.0
23	17	34	36	938	24.0	-192495.0	-3082512.0	24661.0
23	17	34	36	939	25.0	-194242.0	-3082214.0	24135.0
23	17	34	36	940	26.0	-195662.0	-3082461.0	23851.0
23	17	34	36	940	27.0	-199345.0	-3083761.0	24909.0
23	17	34	36	941	28.0	-199431.0	-3085063.0	24393.0
23	17	34	36	941	29.0	-200381.0	-3084770.0	21143.0
23	17	34	36	942	30.0	-199788.0	-3083477.0	17086.0
23	17	34	36	943	31.0	-198804.0	-3078849.0	14268.0
23	17	34	36	943	32.0	-198263.0	-3073509.0	13589.0
23	17	34	36	976	33.0	-195087.0	-3071732.0	13103.0
23	17	34	36	977	34.0	-190987.0	-3071545.0	12804.0
23	17	34	36	978	35.0	-191784.0	-3073123.0	13135.0
23	17	34	36	979	36.0	-188658.0	-3074554.0	13463.0
23	17	34	36	979	37.0	-185769.0	-3077028.0	13492.0
23	17	34	36	980	38.0	-181901.0	-3078906.0	13621.0
23	17	34	36	980	39.0	-179451.0	-3079247.0	9991.0
23	17	34	36	981	40.0	-176078.0	-3077773.0	8031.0
23	17	34	36	982	41.0	-174892.0	-3075757.0	8134.0
23	17	34	36	982	42.0	-174424.0	-3074067.0	10864.0
23	17	34	36	983	43.0	-171952.0	-3069361.0	10675.0
23	17	34	36	983	44.0	-173311.0	-3063961.0	10108.0
23	17	34	36	984	45.0	-170421.0	-3063522.0	8384.0
23	17	34	36	985	46.0	-166874.0	-3063592.0	7518.0
23	17	34	36	985	47.0	-165512.0	-3063709.0	7931.0
23	17	34	36	986	49.0	-155982.0	-3062366.0	3380.0
23	17	34	36	986	50.0	-153065.0	-3059837.0	857.0
23	17	34	36	987	51.0	-145397.0	-3058378.0	-1251.0
23	17	34	36	988	52.0	-125145.0	-3056641.0	-1602.0
23	17	34	36	988	53.0	-92459.0	-3054717.0	-1396.0
23	17	34	36	989	54.0	-122227.0	-3053714.0	-1094.0
23	17	34	36	990	55.0	-136791.0	-3052513.0	-16.0
23	17	34	37	22	56.0	-158381.0	-3051009.0	1139.0
23	17	34	37	22	57.0	-174708.0	-3050714.0	2795.0
23	17	34	37	23	58.0	-187041.0	-3051031.0	2140.0
23	17	34	37	24	59.0	-193614.0	-3049574.0	214.0
23	17	34	37	24	60.0	-199546.0	-3046682.0	-2125.0
23	17	34	37	25	61.0	-201806.0	-3043329.0	-3283.0
23	17	34	37	25	62.0	-209056.0	-3040663.0	-4272.0
23	17	34	37	26	63.0	-213099.0	-3038558.0	-4184.0
23	17	34	37	27	64.0	-216331.0	-3036606.0	-4039.0
23	17	34	37	28	65.0	-217946.0	-3035754.0	-3907.0
23	17	34	37	28	66.0	-218541.0	-3035195.0	-3701.0
23	17	34	37	29	67.0	-219030.0	-3035669.0	-3047.0
23	17	34	37	30	68.0	-219476.0	-3036073.0	-3680.0
23	17	34	37	30	69.0	-218009.0	-3035335.0	-6227.0
23	17	34	37	31	70.0	-215449.0	-3033859.0	-7057.0
23	17	34	37	32	72.0	-206066.0	-3032904.0	-8516.0
23	17	34	37	32	73.0	-200473.0	-3036194.0	-8072.0
23	17	34	37	33	74.0	-193862.0	-3047404.0	-8467.0
23	17	34	37	33	75.0	-188118.0	-3048862.0	-8819.0
23	17	34	37	34	76.0	-180502.0	-3049119.0	-7753.0
23	17	34	37	35	77.0	-173680.0	-3048544.0	-6828.0
23	17	34	37	66	78.0	-166344.0	-3048814.0	-6299.0
23	17	34	37	67	79.0	-159174.0	-3048361.0	-9074.0
23	17	34	37	113	80.0	-152066.0	-3046874.0	-9244.0
23	17	34	37	114	81.0	-145095.0	-3042269.0	-10618.0
23	17	34	37	114	82.0	-138852.0	-3035296.0	-10487.0
23	17	34	37	115	83.0	-133147.0	-3034734.0	-6460.0
23	17	34	37	116	84.0	-125867.0	-3034623.0	-37.0
23	17	34	37	116	85.0	-120310.0	-3031135.0	3910.0
23	17	34	37	117	86.0	-113859.0	-3028242.0	6624.0
23	17	34	37	118	87.0	-108377.0	-3038539.0	9809.0
23	17	34	37	118	88.0	-101976.0	-3047023.0	12629.0
23	17	34	37	119	89.0	-96779.0	-3046678.0	12925.0
23	17	34	37	119	90.0	-91584.0	-3045361.0	14972.0
23	17	34	37	120	91.0	-87146.0	-3044435.0	16312.0
23	17	34	37	121	92.0	-82924.0	-3044741.0	19036.0
23	17	34	37	121	94.0	-77816.0	-3056339.0	24782.0
23	17	34	37	122	95.0	-76302.0	-3067443.0	27321.0
23	17	34	37	122	117.0	-119525.0	-3134794.0	56466.0
23	17	34	37	123	118.0	-117927.0	-3136297.0	56779.0
23	17	34	37	124	119.0	-117586.0	-3138105.0	55766.0
23	17	34	37	124	120.0	-117679.0	-3139426.0	54715.0
23	17	34	37	125	121.0	-117704.0	-3139705.0	55370.0
23	17	34	37	125	122.0	-117592.0	-3134216.0	56423.0
23	17	34	37	126	123.0	-117134.0	-3132539.0	57727.0
23	17	34	37	157	124.0	-117103.0	-3134331.0	58746.0
23	17	34	37	158	125.0	-117462.0	-3137246.0	59569.0
23	17	34	37	158	126.0	-118042.0	-3139947.0	60323.0
23	17	34	37	159	127.0	-119547.0	-3143203.0	60913.0
23	17	34	37	160	128.0	-121097.0	-3145620.0	60623.0
23	17	34	37	160	129.0	-122745.0	-3145134.0	59931.0
23	17	34	37	161	130.0	-125685.0	-3144797.0	59162.0
23	17	34	37	161	131.0	-129400.0	-3145244.0	59350.0
23	17	34	37	162	132.0	-133086.0	-3145279.0	59984.0
23	17	34	37	163	133.0	-137022.0	-3145211.0	61181.0
23	17	34	37	163	134.0	-141484.0	-3145641.0	62298.0
23	17	34	37	164	135.0	-145542.0	-3145336.0	62943.0
23	17	34	37	164	136.0	-149612.0	-3144303.0	64049.0
23	17	34	37	165	137.0	-152911.0	-3140519.0	65077.0
23	17	34	37	166	138.0	-155771.0	-3129918.0	64991.0
23	17	34	37	167	139.0	-158538.0	-3126816.0	64507.0
23	17	34	37	168	140.0	-161144.0	-3126052.0	63905.0
23	17	34	37	168	141.0	-163037.0	-3125394.0	64560.0
23	17	34	37	169	142.0	-165049.0	-3125138.0	65334.0
23	17	34	37	170	143.0	-166720.0	-3124452.0	66019.0
23	17	34	37	170	144.0	-168005.0	-3123794.0	66511.0
23	17	34	37	171	145.0	-169940.0	-3122886.0	67469.0
23	17	34	37	202	146.0	-172011.0	-3121210.0	68873.0
23	17	34	37	203	147.0	-173896.0	-3119512.0	69770.0
23	17	34	37	204	148.0	-175748.0	-3114675.0	69436.0
23	17	34	37	204	149.0	-177872.0	-3110956.0	68728.0
23	17	34	37	205	150.0	-180397.0	-3109294.0	68986.0
23	17	34	37	206	151.0	-183833.0	-3108114.0	69339.0
23	17	34	37	206	152.0	-186699.0	-3107782.0	69683.0
23	17	34	37	207	153.0	-189782.0	-3107142.0	70154.0
23	17	34	37	207	154.0	-193077.0	-3106243.0	70863.0
23	17	34	37	208	155.0	-196831.0	-3103662.0	71158.0
23	17	34	37	209	156.0	-200513.0	-3100947.0	71651.0
23	17	34	37	210	157.0	-204172.0	-3099256.0	72951.0
23	17	34	37	210	158.0	-207631.0	-3098142.0	73016.0
23	17	34	37	211	159.0	-211301.0	-3099867.0	72545.0
23	17	34	37	211	160.0	-215227.0	-3098712.0	72361.0
23	17	34	37	212	162.0	-222606.0	-3094063.0	77047.0
23	17	34	37	213	163.0	-226064.0	-3091631.0	77318.0
23	17	34	37	213	164.0	-229665.0	-3089463.0	76863.0
23	17	34	37	214	165.0	-233295.0	-3087249.0	76686.0
23	17	34	37	214	166.0	-237114.0	-3085281.0	76771.0
23	17	34	37	215	167.0	-240754.0	-3083632.0	76784.0
23	17	34	37	247	168.0	-243959.0	-3089934.0	75880.0
23	17	34	37	248	169.0	-247167.0	-3098947.0	74363.0
23	17	34	37	249	170.0	-250039.0	-3096562.0	73643.0
23	17	34	37	249	171.0	-252309.0	-3091424.0	73310.0
23	17	34	37	250	172.0	-254412.0	-3087755.0	73096.0
23	17	34	37	251	173.0	-256459.0	-3084999.0	73456.0
23	17	34	37	252	174.0	-258481.0	-3082682.0	73801.0
23	17	34	37	252	175.0	-260432.0	-3080989.0	73988.0
23	17	34	37	253	176.0	-263196.0	-3079277.0	74705.0
23	17	34	37	254	177.0	-265789.0	-3077966.0	75974.0
23	17	34	37	254	178.0	-268532.0	-3075977.0	75263.0
23	17	34	37	255	179.0	-271161.0	-3070527.0	74743.0
23	17	34	37	256	180.0	-273814.0	-3061267.0	74119.0
23	17	34	37	256	181.0	-276366.0	-3058234.0	73949.0
23	17	34	37	257	182.0	-278087.0	-3056216.0	74428.0
23	17	34	37	257	184.0	-278643.0	-3053572.0	76188.0
23	17	34	37	258	185.0	-277984.0	-3051937.0	76511.0
23	17	34	37	258	186.0	-276626.0	-3049487.0	77728.0
23	17	34	37	259	187.0	-274986.0	-3047806.0	77999.0
23	17	34	37	260	188.0	-273501.0	-3049993.0	76963.0
23	17	34	37	260	189.0	-272282.0	-3050505.0	74825.0
23	17	34	37	261	190.0	-270831.0	-3048058.0	73162.0
23	17	34	37	338	191.0	-269166.0	-3045443.0	75390.0
23	17	34	37	339	192.0	-267391.0	-3043919.0	77233.0
23	17	34	37	340	193.0	-265146.0	-3043353.0	77941.0
23	17	34	37	340	194.0	-262606.0	-3042376.0	78057.0
23	17	34	37	341	195.0	-260128.0	-3041878.0	78718.0
23	17	34	37	342	196.0	-257507.0	-3042027.0	80488.0
23	17	34	37	342	197.0	-254476.0	-3042505.0	80371.0
23	17	34	37	343	198.0	-251871.0	-3042272.0	78216.0
23	17	34	37	343	199.0	-249469.0	-3042567.0	75856.0
23	17	34	37	344	200.0	-247330.0	-3040716.0	75654.0
23	17	34	37	345	201.0	-245500.0	-3038624.0	76770.0
23	17	34	37	345	202.0	-243882.0	-3035556.0	77921.0
23	17	34	37	346	203.0	-242228.0	-3033327.0	78391.0
23	17	34	37	346	204.0	-240836.0	-3033262.0	78696.0
23	17	34	37	347	205.0	-240552.0	-3033101.0	78776.0
23	17	34	37	348	229.0	-226114.0	-3015856.0	78265.0
23	17	34	37	348	230.0	-226587.0	-3016397.0	77073.0
23	17	34	37	349	231.0	-227189.0	-3025232.0	77578.0
23	17	34	37	349	232.0	-228475.0	-3032422.0	78458.0
23	17	34	37	350	233.0	-230246.0	-3033605.0	78336.0
23	17	34	37	351	234.0	-231897.0	-3032352.0	78320.0
23	17	34	37	383	235.0	-233108.0	-3030606.0	78742.0
23	17	34	37	383	236.0	-233392.0	-3030316.0	79239.0
23	17	34	37	384	237.0	-232842.0	-3029772.0	78706.0
23	17	34	37	385	238.0	-230978.0	-3030227.0	77394.0
23	17	34	37	385	239.0	-228043.0	-3029563.0	76374.0
23	17	34	37	386	240.0	-223778.0	-3029598.0	76077.0
23	17	34	37	387	241.0	-219099.0	-3031405.0	76251.0
23	17	34	37	387	242.0	-213725.0	-3037871.0	76264.0
23	17	34	37	388	243.0	-208302.0	-3046617.0	76446.0
23	17	34	37	389	244.0	-202824.0	-3047556.0	76322.0
23	17	34	37	389	245.0	-197861.0	-3047522.0	76091.0
23	17	34	37	390	246.0	-193087.0	-3046908.0	76419.0
23	17	34	37	391	247.0	-189230.0	-3046687.0	76436.0
23	17	34	37	392	248.0	-185824.0	-3046356.0	75038.0
23	17	34	37	392	249.0	-183384.0	-3047942.0	73488.0
23	17	34	37	393	251.0	-177990.0	-3053334.0	73041.0
23	17	34	37	394	252.0	-176093.0	-3053362.0	73026.0
23	17	34	37	395	253.0	-174591.0	-3052906.0	72843.0
23	17	34	37	395	254.0	-173338.0	-3051804.0	72486.0
23	17	34	37	396	255.0	-172445.0	-3051216.0	72301.0
23	17	34	37	397	0.0	-171577.0	-3051649.0	72584.0
23	17	34	37	398	1.0	-171381.0	-3051001.0	71604.0
23	17	34	37	428	2.0	-171291.0	-3049641.0	70513.0
23	17	34	37	429	3.0	-170959.0	-3048673.0	69585.0
23	17	34	37	429	4.0	-170651.0	-3048154.0	69480.0
23	17	34	37	430	5.0	-171100.0	-3048366.0	69918.0
23	17	34	37	431	6.0	-171821.0	-3049165.0	70178.0
23	17	34	37	431	7.0	-173644.0	-3048004.0	70014.0
23	17	34	37	432	8.0	-176093.0	-3047224.0	69694.0
23	17	34	37	432	9.0	-178407.0	-3046210.0	69629.0
23	17	34	37	433	10.0	-180187.0	-3044421.0	70524.0
23	17	34	37	434	11.0	-181146.0	-3041367.0	70094.0
23	17	34	37	434	12.0	-182146.0	-3039929.0	68676.0
23	17	34	37	435	13.0	-183521.0	-3039711.0	68379.0
23	17	34	37	436	14.0	-184539.0	-3040902.0	68756.0
23	17	34	37	436	15.0	-185257.0	-3043151.0	69664.0
23	17	34	37	437	16.0	-185181.0	-3043924.0	69963.0
23	17	34	37	438	18.0	-183081.0	-3044362.0	71577.0
23	17	34	37	438	19.0	-181883.0	-3043557.0	73032.0
23	17	34	37	439	20.0	-180012.0	-3042206.0	74179.0
23	17	34	37	439	21.0	-177885.0	-3041237.0	73904.0
23	17	34	37	440	22.0	-175517.0	-3040392.0	73141.0
23	17	34	37	440	23.0	-172563.0	-3040915.0	72871.0
23	17	34	37	441	24.0	-169706.0	-3049092.0	72652.0
23	17	34	37	473	25.0	-166234.0	-3051771.0	72933.0
23	17	34	37	474	26.0	-163635.0	-3050533.0	74087.0
23	17	34	37	474	27.0	-161479.0	-3049223.0	74902.0
23	17	34	37	475	28.0	-160589.0	-3047919.0	74819.0
23	17	34	37	476	29.0	-161191.0	-3046217.0	75261.0
23	17	34	37	476	30.0	-162897.0	-3044734.0	75786.0
23	17	34	37	477	31.0	-165866.0	-3044088.0	75506.0
23	17	34	37	478	32.0	-169504.0	-3044317.0	74789.0
23	17	34	37	478	33.0	-173442.0	-3044847.0	74393.0
23	17	34	37	479	34.0	-176789.0	-3044471.0	74040.0
23	17	34	37	479	35.0	-180701.0	-3043686.0	73778.0
23	17	34	37	480	36.0	-183822.0	-3042941.0	73454.0
23	17	34	37	481	37.0	-187115.0	-3042624.0	73861.0
23	17	34	37	481	38.0	-189617.0	-3043121.0	74706.0
23	17	34	37	482	39.0	-191656.0	-3041421.0	75084.0
23	17	34	37	483	40.0	-192282.0	-3038339.0	75082.0
23	17	34	37	483	41.0	-192892.0	-3035881.0	74543.0
23	17	34	37	484	42.0	-192160.0	-3034090.0	74948.0
23	17	34	37	484	43.0	-190959.0	-3034869.0	74766.0
23	17	34	37	485	44.0	-190050.0	-3030840.0	74746.0
23	17	34	37	486	45.0	-188791.0	-3021631.0	74852.0
23	17	34	37	486	46.0	-187902.0	-3020421.0	75176.0
23	17	34	37	517	47.0	-187171.0	-3020138.0	75629.0
23	17	34	37	518	48.0	-186834.0	-3020304.0	75585.0
23	17	34	37	519	49.0	-187061.0	-3021822.0	75936.0
23	17	34	37	519	50.0	-187206.0	-3028599.0	76265.0
23	17	34	37	520	51.0	-187989.0	-3029569.0	75698.0
23	17	34	37	521	52.0	-189262.0	-3028629.0	75311.0
23	17	34	37	521	53.0	-190745.0	-3028379.0	75169.0
23	17	34	37	522	54.0	-192239.0	-3027676.0	75533.0
23	17	34	37	523	55.0	-194549.0	-3027174.0	75632.0
23	17	34	37	523	56.0	-197336.0	-3026659.0	75844.0
23	17	34	37	524	57.0	-200469.0	-3025601.0	75952.0
23	17	34	37	525	58.0	-203585.0	-3023715.0	75870.0
23	17	34	37	525	59.0	-206054.0	-3022100.0	76174.0
23	17	34	37	526	60.0	-207973.0	-3020379.0	77353.0
23	17	34	37	526	61.0	-210068.0	-3018772.0	78833.0
23	17	34	37	527	63.0	-211935.0	-3017227.0	78371.0
23	17	34	37	528	64.0	-210600.0	-3016967.0	78381.0
23	17	34	37	529	65.0	-209053.0	-3016384.0	78858.0
23	17	34	37	530	66.0	-207676.0	-3016962.0	78841.0
23	17	34	37	530	67.0	-206673.0	-3022827.0	78401.0
23	17	34	37	531	68.0	-204596.0	-3023371.0	78100.0
23	17	34	37	539	69.0	-202006.0	-3022189.0	78260.0
23	17	34	37	563	70.0	-199539.0	-3019691.0	78462.0
23	17	34	37	563	71.0	-197719.0	-3018237.0	77668.0
23	17	34	37	564	72.0	-195819.0	-3017455.0	77120.0
23	17	34	37	565	73.0	-195173.0	-3016514.0	77028.0
23	17	34	37	607	74.0	-194119.0	-3015922.0	77024.0
23	17	34	37	608	75.0	-192944.0	-3015174.0	76921.0
23	17	34	37	609	76.0	-191579.0	-3013646.0	77095.0
23	17	34	37	610	77.0	-189652.0	-3012802.0	77240.0
23	17	34	37	610	78.0	-188686.0	-3012097.0	77059.0
23	17	34	37	611	79.0	-187562.0	-3010517.0	77069.0
23	17	34	37	612	80.0	-186867.0	-3009266.0	77039.0
23	17	34	37	612	81.0	-186409.0	-3007606.0	76584.0
23	17	34	37	613	82.0	-185332.0	-3006900.0	76457.0
23	17	34	37	614	83.0	-184860.0	-3006573.0	75939.0
23	17	34	37	614	84.0	-183991.0	-3005903.0	76889.0
23	17	34	37	615	85.0	-183032.0	-3005059.0	78280.0
23	17	34	37	616	86.0	-182244.0	-2996351.0	79326.0
23	17	34	37	616	87.0	-181342.0	-2992076.0	79504.0
23	17	34	37	617	88.0	-180846.0	-2992984.0	79441.0
23	17	34	37	617	89.0	-179967.0	-2991267.0	78125.0
23	17	34	37	652	108.0	-155159.0	-2975160.0	56616.0
23	17	34	37	653	109.0	-158406.0	-2973219.0	63614.0
23	17	34	37	654	110.0	-163592.0	-2971698.0	66338.0
23	17	34	37	655	111.0	-169821.0	-2971159.0	68628.0
23	17	34	37	655	112.0	-176185.0	-2970807.0	70943.0
23	17	34	37	656	113.0	-182146.0	-2969471.0	74099.0
23	17	34	37	657	114.0	-184330.0	-2968392.0	76616.0
23	17	34	37	658	115.0	-173959.0	-2967953.0	77468.0
23	17	34	37	659	116.0	-153330.0	-2966965.0	76977.0
23	17	34	37	659	117.0	-129739.0	-2965633.0	75964.0
23	17	34	37	660	118.0	-113711.0	-2964528.0	75301.0
23	17	34	37	661	119.0	-112259.0	-2963900.0	75023.0
23	17	34	37	661	120.0	-126200.0	-2962612.0	74171.0
23	17	34	37	662	121.0	-149851.0	-2961839.0	73474.0
23	17	34	37	663	122.0	-173959.0	-2961732.0	73318.0
23	17	34	37	663	123.0	-194316.0	-2962276.0	73224.0
23	17	34	37	664	131.0	-210849.0	-2951168.0	76221.0
23	17	34	37	664	132.0	-201138.0	-2946573.0	77643.0
23	17	34	37	665	133.0	-189802.0	-2946085.0	78035.0
23	17	34	37	666	134.0	-181240.0	-2946619.0	78489.0
23	17	34	37	667	135.0	-176727.0	-2946625.0	78876.0
23	17	34	37	667	136.0	-177327.0	-2945774.0	79010.0
23	17	34	37	698	137.0	-179061.0	-2944468.0	78708.0
23	17	34	37	698	138.0	-182096.0	-2943017.0	78648.0
23	17	34	37	699	139.0	-187796.0	-2941641.0	78987.0
23	17	34	37	700	140.0	-195989.0	-2940878.0	78448.0
23	17	34	37	700	141.0	-205015.0	-2939937.0	77926.0
23	17	34	37	701	142.0	-211958.0	-2939797.0	77649.0
23	17	34	37	702	143.0	-216249.0	-2940377.0	77494.0
23	17	34	37	702	144.0	-218791.0	-2941211.0	77816.0
23	17	34	37	703	145.0	-220331.0	-2944732.0	78171.0
23	17	34	37	704	146.0	-220092.0	-2944874.0	78119.0
23	17	34	37	704	147.0	-217517.0	-2944074.0	78278.0
23	17	34	37	705	148.0	-213733.0	-2942824.0	78875.0
23	17	34	37	706	149.0	-209157.0	-2941429.0	79295.0
23	17	34	37	706	150.0	-205297.0	-2939798.0	79038.0
23	17	34	37	707	151.0	-202736.0	-2938576.0	78352.0
23	17	34	37	708	153.0	-203085.0	-2938264.0	78090.0
23	17	34	37	708	154.0	-203859.0	-2938107.0	78359.0
23	17	34	37	709	155.0	-203759.0	-2937232.0	78474.0
23	17	34	37	710	156.0	-201908.0	-2935847.0	78218.0
23	17	34	37	710	157.0	-198556.0	-2934205.0	78063.0
23	17	34	37	711	158.0	-194464.0	-2931992.0	77919.0
23	17	34	37	743	159.0	-190362.0	-2925308.0	77656.0
23	17	34	37	744	160.0	-186322.0	-2911621.0	77589.0
23	17	34	37	834	161.0	-181598.0	-2909079.0	77517.0
23	17	34	37	835	162.0	-176724.0	-2908656.0	77306.0
23	17	34	37	836	163.0	-172227.0	-2911452.0	77269.0
23	17	34	37	838	164.0	-168255.0	-2922834.0	76502.0
23	17	34	37	838	165.0	-164267.0	-2924523.0	76609.0
23	17	34	37	839	166.0	-160421.0	-2923734.0	76418.0
23	17	34	37	839	167.0	-156820.0	-2922509.0	76351.0
23	17	34	37	840	168.0	-154746.0	-2920739.0	76100.0
23	17	34	37	841	169.0	-153813.0	-2918674.0	75925.0
23	17	34	37	841	170.0	-153458.0	-2917197.0	75544.0
23	17	34	37	842	171.0	-153839.0	-2915566.0	75410.0
23	17	34	37	878	172.0	-154609.0	-2914711.0	75129.0
23	17	34	37	878	173.0	-156151.0	-2913141.0	75253.0
23	17	34	37	879	175.0	-160191.0	-2901966.0	75813.0
23	17	34	37	880	176.0	-162953.0	-2899096.0	75763.0
23	17	34	37	880	177.0	-166626.0	-2898316.0	75921.0
23	17	34	37	881	221.0	-224741.0	-2880661.0	86403.0
23	17	34	37	882	222.0	-223794.0	-2880562.0	86053.0
23	17	34	37	883	223.0	-222721.0	-2880205.0	86141.0
23	17	34	37	883	224.0	-222040.0	-2879013.0	86267.0
23	17	34	37	884	225.0	-220190.0	-2874504.0	85938.0
23	17	34	37	884	226.0	-217546.0	-2873607.0	85166.0
23	17	34	37	885	227.0	-214921.0	-2873348.0	85070.0
23	17	34	37	886	228.0	-213346.0	-2871906.0	86178.0
23	17	34	37	886	229.0	-212361.0	-2869787.0	86423.0
23	17	34	37	887	230.0	-211792.0	-2869309.0	85675.0
23	17	34	37	887	231.0	-211955.0	-2871936.0	85115.0
23	17	34	37	888	243.0	-212966.0	-2863221.0	87961.0
23	17	34	37	889	244.0	-212189.0	-2863031.0	88286.0
23	17	34	37	889	245.0	-212215.0	-2861578.0	88433.0
23	17	34	37	890	246.0	-212982.0	-2860932.0	88434.0
23	17	34	37	890	247.0	-214243.0	-2860339.0	88841.0
23	17	34	37	891	248.0	-215432.0	-2859397.0	89148.0
23	17	34	37	922	249.0	-216039.0	-2860306.0	89341.0
23	17	34	37	923	250.0	-215798.0	-2864517.0	89486.0
23	17	34	37	923	251.0	-215140.0	-2864820.0	89191.0
23	17	34	37	924	252.0	-213844.0	-2864412.0	88705.0
23	17	34	37	925	253.0	-212737.0	-2864648.0	89393.0
23	17	34	37	925	254.0	-212014.0	-2865254.0	90847.0
23	17	34	37	933	255.0	-211117.0	-2865436.0	92064.0
23	17	34	37	934	0.0	-210612.0	-2865050.0	93494.0
23	17	34	37	934	1.0	-210777.0	-2863274.0	95293.0
23	17	34	37	935	2.0	-212335.0	-2860433.0	97169.0
23	17	34	37	936	3.0	-213892.0	-2858903.0	99681.0
23	17	34	37	936	4.0	-215274.0	-2857922.0	103178.0
23	17	34	37	937	5.0	-216037.0	-2857618.0	106903.0
23	17	34	37	937	6.0	-215972.0	-2856900.0	110612.0
23	17	34	37	938	7.0	-215230.0	-2853627.0	114559.0
23	17	34	37	938	9.0	-212009.0	-2853477.0	123284.0
23	17	34	37	939	10.0	-208666.0	-2853167.0	126369.0
23	17	34	37	939	11.0	-202996.0	-2850722.0	129846.0
23	17	34	37	940	12.0	-194772.0	-2848273.0	133294.0
23	17	34	37	941	13.0	-192332.0	-2846419.0	137158.0
23	17	34	37	941	14.0	-195356.0	-2845301.0	140688.0
23	17	34	37	942	15.0	-201496.0	-2845283.0	144108.0
23	17	34	37	968	16.0	-207023.0	-2845726.0	148309.0
23	17	34	37	968	17.0	-209903.0	-2845726.0	152926.0
23	17	34	37	969	18.0	-211616.0	-2844757.0	157185.0
23	17	34	37	970	19.0	-212115.0	-2833493.0	161271.0
23	17	34	37	970	20.0	-211439.0	-2827304.0	165053.0
23	17	34	37	971	21.0	-209290.0	-2837156.0	168744.0
23	17	34	37	971	22.0	-208279.0	-2839212.0	172145.0
23	17	34	37	972	23.0	-208494.0	-2832007.0	175185.0
23	17	34	37	973	24.0	-209953.0	-2807379.0	177503.0
23	17	34	37	973	25.0	-213368.0	-2768816.0	179051.0
23	17	34	37	974	26.0	-219174.0	-2724791.0	180761.0
23	17	34	37	974	27.0	-226144.0	-2603144.0	182775.0
23	17	34	37	975	28.0	-233139.0	-2373157.0	184024.0
23	17	34	37	976	29.0	-240448.0	-2126712.0	185008.0
23	17	34	37	976	30.0	-247984.0	-1918646.0	186121.0
23	17	34	37	977	31.0	-256713.0	-1753787.0	187261.0
23	17	34	37	977	32.0	-265631.0	-1635125.0	188178.0
23	17	34	37	978	33.0	-272634.0	-1524845.0	188765.0
23	17	34	37	979	34.0	-279820.0	-1226453.0	189278.0
23	17	34	37	979	35.0	-285091.0	-606456.0	189398.0
23	17	34	37	980	36.0	-289266.0	-237586.0	190269.0
23	17	34	37	980	37.0	-292514.0	-108520.0	191398.0
23	17	34	38	58	38.0	-294596.0	-66765.0	191756.0
23	17	34	38	59	39.0	-296402.0	-53949.0	192155.0
23	17	34	38	59	40.0	-298730.0	-38929.0	193249.0
23	17	34	38	60	41.0	-301134.0	-32197.0	194074.0
23	17	34	38	61	42.0	-303656.0	-32179.0	194329.0
23	17	34	38	61	43.0	-305198.0	-27341.0	194456.0
23	17	34	38	62	44.0	-306221.0	-27679.0	195856.0
23	17	34	38	62	45.0	-306255.0	-27699.0	197374.0
23	17	34	38	63	46.0	-305979.0	-27596.0	198224.0
23	17	34	38	63	47.0	-306416.0	-29149.0	198759.0
23	17	34	38	64	48.0	-307002.0	-30986.0	199130.0
23	17	34	38	64	49.0	-308406.0	-31919.0	198851.0
23	17	34	38	65	50.0	-310489.0	-28622.0	198738.0
23	17	34	38	66	51.0	-312639.0	-27209.0	198563.0
23	17	34	38	66	52.0	-316790.0	-27773.0	198846.0
23	17	34	38	67	76.0	-446960.0	-71865.0	197374.0
23	17	34	38	67	77.0	-442520.0	-78696.0	198544.0
23	17	34	38	68	78.0	-435598.0	-83282.0	199263.0
23	17	34	38	68	79.0	-428416.0	-85223.0	199145.0
23	17	34	38	69	80.0	-424094.0	-89812.0	199491.0
23	17	34	38	70	81.0	-419518.0	-95303.0	200340.0
23	17	34	38	70	82.0	-416302.0	-93641.0	201314.0
23	17	34	38	104	83.0	-414306.0	-91655.0	201544.0
23	17	34	38	104	84.0	-414289.0	-90216.0	202073.0
23	17	34	38	105	85.0	-415341.0	-89857.0	202456.0
23	17	34	38	115	86.0	-417572.0	-99031.0	203054.0
23	17	34	38	116	87.0	-420229.0	-101837.0	203694.0
23	17	34	38	116	88.0	-423278.0	-100867.0	204225.0
23	17	34	38	117	89.0	-424126.0	-100813.0	205128.0
23	17	34	38	117	90.0	-422652.0	-99816.0	206549.0
23	17	34	38	118	91.0	-421176.0	-101077.0	207373.0
23	17	34	38	118	92.0	-419447.0	-102262.0	208137.0
23	17	34	38	119	93.0	-417485.0	-100672.0	209063.0
23	17	34	38	120	94.0	-416773.0	-97847.0	209978.0
23	17	34	38	120	95.0	-417043.0	-98426.0	211128.0
23	17	34	38	121	96.0	-418277.0	-100110.0	212994.0
23	17	34	38	121	97.0	-421428.0	-101268.0	214716.0
23	17	34	38	122	99.0	-429664.0	-99624.0	217053.0
23	17	34	38	122	100.0	-430147.0	-100082.0	217866.0
23	17	34	38	123	101.0	-426543.0	-99409.0	218096.0
23	17	34	38	123	102.0	-422147.0	-97682.0	218278.0
23	17	34	38	124	103.0	-416502.0	-95839.0	218754.0
23	17	34	38	125	104.0	-411462.0	-93686.0	219373.0
23	17	34	38	147	105.0	-407113.0	-88161.0	219503.0
23	17	34	38	148	106.0	-403029.0	-78994.0	221656.0
23	17	34	38	148	107.0	-398962.0	-80219.0	223038.0
23	17	34	38	149	108.0	-395196.0	-78755.0	224647.0
23	17	34	38	150	109.0	-391697.0	-74821.0	225458.0
23	17	34	38	150	110.0	-387101.0	-72151.0	226029.0
23	17	34	38	151	111.0	-382235.0	-70849.0	226710.0
23	17	34	38	152	112.0	-376849.0	-69296.0	227437.0
23	17	34	38	152	113.0	-371280.0	-67812.0	227997.0
23	17	34	38	153	114.0	-364626.0	-64383.0	228637.0
23	17	34	38	154	115.0	-357047.0	-54482.0	229291.0
23	17	34	38	154	116.0	-349606.0	-50859.0	230228.0
23	17	34	38	155	117.0	-342502.0	-51434.0	231713.0
23	17	34	38	155	118.0	-334050.0	-53227.0	232439.0
23	17	34	38	156	119.0	-324891.0	-52870.0	232903.0
23	17	34	38	157	121.0	-306447.0	-42055.0	234943.0
23	17	34	38	157	122.0	-296770.0	-35514.0	234991.0
23	17	34	38	158	123.0	-286475.0	-37499.0	235198.0
23	17	34	38	158	124.0	-276788.0	-38432.0	237039.0
23	17	34	38	159	125.0	-267456.0	-40739.0	238849.0
23	17	34	38	159	126.0	-259163.0	-41035.0	240076.0
23	17	34	38	160	127.0	-250921.0	-39966.0	240853.0
23	17	34	38	192	128.0	-243315.0	-39347.0	242449.0
23	17	34	38	192	129.0	-237107.0	-40082.0	243843.0
23	17	34	38	193	130.0	-231984.0	-38325.0	245289.0
23	17	34	38	193	131.0	-227362.0	-40021.0	246198.0
23	17	34	38	194	132.0	-222681.0	-41082.0	247043.0
23	17	34	38	195	133.0	-218407.0	-40274.0	247465.0
23	17	34	38	195	134.0	-215147.0	-41212.0	249068.0
23	17	34	38	196	135.0	-212507.0	-39946.0	250454.0
23	17	34	38	238	136.0	-208555.0	-35520.0	251836.0
23	17	34	38	238	137.0	-205657.0	-37284.0	253344.0
23	17	34	38	239	138.0	-201568.0	-33651.0	255198.0
23	17	34	38	239	139.0	-196822.0	-33589.0	257148.0
23	17	34	38	241	140.0	-192304.0	-33136.0	259326.0
23	17	34	38	249	141.0	-187332.0	-36499.0	261533.0
23	17	34	38	250	142.0	-181947.0	-34701.0	263928.0
23	17	34	38	250	144.0	-172312.0	-30242.0	269447.0
23	17	34	38	251	145.0	-168372.0	-34476.0	272873.0
23	17	34	38	252	146.0	-164426.0	-33974.0	276384.0
23	17	34	38	252	147.0	-160709.0	-35277.0	279096.0
23	17	34	38	253	148.0	-156976.0	-34429.0	281648.0
23	17	34	38	253	149.0	-152724.0	-30252.0	283946.0
23	17	34	38	254	150.0	-149046.0	-30241.0	285571.0
23	17	34	38	254	151.0	-146532.0	-33466.0	286705.0
23	17	34	38	255	152.0	-143451.0	-32529.0	288261.0
23	17	34	38	255	166.0	-106326.0	-33439.0	308664.0
23	17	34	38	256	167.0	-99448.0	-31874.0	309333.0
23	17	34	38	257	168.0	-93957.0	-30702.0	309281.0
23	17	34	38	257	169.0	-90306.0	-29788.0	308588.0
23	17	34	38	258	170.0	-86524.0	-31531.0	308137.0
23	17	34	38	258	171.0	-80967.0	-32377.0	308016.0
23	17	34	38	259	172.0	-74915.0	-33140.0	307746.0
23	17	34	38	283	173.0	-67948.0	-31723.0	307802.0
23	17	34	38	284	174.0	-60919.0	-31167.0	308022.0
23	17	34	38	284	175.0	-55238.0	-30967.0	308329.0
23	17	34	38	285	176.0	-50088.0	-33062.0	309024.0
23	17	34	38	286	177.0	-45011.0	-31263.0	309019.0
23	17	34	38	286	178.0	-40458.0	-33442.0	309054.0
23	17	34	38	287	179.0	-36925.0	-33076.0	309521.0
23	17	34	38	288	180.0	-33180.0	-29256.0	309214.0
23	17	34	38	288	181.0	-29261.0	-34358.0	309026.0
23	17	34	38	289	182.0	-24392.0	-38777.0	308761.0
23	17	34	38	290	183.0	-18347.0	-35748.0	307869.0
23	17	34	38	290	184.0	-12911.0	-31116.0	307301.0
23	17	34	38	291	185.0	-6649.0	-30588.0	306888.0
23	17	34	38	291	186.0	8270.0	-31786.0	306967.0
23	17	34	38	292	187.0	27863.0	-32532.0	306412.0
23	17	34	38	293	189.0	50147.0	-32854.0	306061.0
23	17	34	38	327	190.0	58358.0	-33107.0	305704.0
23	17	34	38	327	191.0	64520.0	-34964.0	305190.0
23	17	34	38	328	192.0	70221.0	-35256.0	304591.0
23	17	34	38	329	193.0	75848.0	-37624.0	303472.0
23	17	34	38	329	194.0	81779.0	-29952.0	302277.0
23	17	34	38	330	195.0	87549.0	-30921.0	301967.0
23	17	34	38	330	196.0	92441.0	-30737.0	301895.0
23	17	34	38	331	197.0	97447.0	-33309.0	301483.0
23	17	34	38	332	198.0	102684.0	-38042.0	300806.0
23	17	34	38	333	199.0	107431.0	-35176.0	300641.0
23	17	34	38	334	200.0	112191.0	-34620.0	300336.0
23	17	34	38	334	201.0	115706.0	-33492.0	299832.0
23	17	34	38	335	202.0	118680.0	-33086.0	299189.0
23	17	34	38	336	203.0	121322.0	-33159.0	298766.0
23	17	34	38	337	204.0	123746.0	-31236.0	298101.0
23	17	34	38	338	205.0	126144.0	-29691.0	297579.0
23	17	34	38	338	211.0	120651.0	-31297.0	296048.0
23	17	34	38	339	212.0	115846.0	-31911.0	295418.0
23	17	34	38	339	213.0	110484.0	-29950.0	294114.0
23	17	34	38	341	214.0	104629.0	-32018.0	292198.0
23	17	34	38	342	215.0	98277.0	-33188.0	291064.0
23	17	34	38	342	216.0	91833.0	-31721.0	291507.0
23	17	34	38	343	217.0	85804.0	-30994.0	292021.0
23	17	34	38	373	218.0	79653.0	-30340.0	291180.0
23	17	34	38	374	219.0	73712.0	-31608.0	290045.0
23	17	34	38	375	220.0	68146.0	-32876.0	289494.0
23	17	34	38	375	221.0	63566.0	-30799.0	289281.0
23	17	34	38	418	222.0	58719.0	-31840.0	288729.0
23	17	34	38	419	223.0	53785.0	-32324.0	288005.0
23	17	34	38	419	224.0	50071.0	-32959.0	286864.0
23	17	34	38	420	225.0	47234.0	-32679.0	285938.0
23	17	34	38	420	226.0	44798.0	-31052.0	284874.0
23	17	34	38	421	227.0	43880.0	-30254.0	283979.0
23	17	34	38	422	228.0	43285.0	-32022.0	283368.0
23	17	34	38	422	229.0	42629.0	-31044.0	282611.0
23	17	34	38	423	230.0	42726.0	-31006.0	281793.0
23	17	34	38	424	231.0	44161.0	-31598.0	280863.0
23	17	34	38	424	232.0	47490.0	-30799.0	279541.0
23	17	34	38	425	233.0	49731.0	-30612.0	278226.0
23	17	34	38	425	234.0	51433.0	-30425.0	277630.0
23	17	34	38	426	235.0	52358.0	-30667.0	278666.0
23	17	34	38	427	236.0	52998.0	-30305.0	281709.0
23	17	34	38	427	0.0	-7769.0	-28705.0	294636.0
23	17	34	38	428	1.0	-16428.0	-30740.0	295108.0
23	17	34	38	428	2.0	-24423.0	-30239.0	295284.0
23	17	34	38	429	3.0	-32819.0	-29553.0	295154.0
23	17	34	38	430	4.0	-40981.0	-28914.0	295176.0
23	17	34	38	430	5.0	-49252.0	-28172.0	295518.0
23	17	34	38	462	6.0	-57596.0	-28368.0	294808.0
23	17	34	38	462	7.0	-65608.0	-28914.0	294388.0
23	17	34	38	463	8.0	-72741.0	-28933.0	294519.0
23	17	34	38	464	9.0	-78326.0	-28413.0	294474.0
23	17	34	38	464	10.0	-83911.0	-28327.0	294164.0
23	17	34	38	465	11.0	-89551.0	-27575.0	293944.0
23	17	34	38	465	12.0	-95707.0	-27586.0	293746.0
23	17	34	38	466	13.0	-101489.0	-27744.0	293316.0
23	17	34	38	467	14.0	-106505.0	-27529.0	293291.0
23	17	34	38	467	15.0	-109560.0	-27144.0	292938.0
23	17	34	38	468	16.0	-111003.0	-27347.0	292864.0
23	17	34	38	468	17.0	-110772.0	-27304.0	293121.0
23	17	34	38	469	18.0	-110192.0	-28343.0	293159.0
23	17	34	38	470	19.0	-108515.0	-29721.0	292755.0
23	17	34	38	470	20.0	-107128.0	-27241.0	292383.0
23	17	34	38	471	22.0	-103727.0	-27234.0	292819.0
23	17	34	38	471	23.0	-103120.0	-29124.0	292335.0
23	17	34	38	472	24.0	-102587.0	-26538.0	292302.0
23	17	34	38	473	25.0	-101865.0	-26366.0	292816.0
23	17	34	38	474	26.0	-102148.0	-26452.0	292393.0
23	17	34	38	474	27.0	-103635.0	-26539.0	291844.0
23	17	34	38	475	28.0	-105251.0	-26655.0	291463.0
23	17	34	38	553	29.0	-106974.0	-26696.0	291304.0
23	17	34	38	554	30.0	-108264.0	-26613.0	291035.0
23	17	34	38	555	31.0	-109114.0	-26178.0	291340.0
23	17	34	38	555	32.0	-110434.0	-26158.0	291637.0
23	17	34	38	556	33.0	-112169.0	-25792.0	291618.0
23	17	34	38	556	34.0	-115001.0	-25709.0	291652.0
23	17	34	38	557	35.0	-118764.0	-25725.0	292254.0
23	17	34	38	558	36.0	-123331.0	-25997.0	293411.0
23	17	34	38	558	37.0	-128331.0	-26200.0	293639.0
23	17	34	38	559	38.0	-133319.0	-26035.0	293556.0
23	17	34	38	559	39.0	-137827.0	-25746.0	293469.0
23	17	34	38	560	40.0	-141359.0	-25638.0	293145.0
23	17	34	38	561	41.0	-144746.0	-25991.0	292846.0
23	17	34	38	561	42.0	-148357.0	-25837.0	292429.0
23	17	34	38	562	43.0	-152329.0	-25872.0	292381.0
23	17	34	38	562	67.0	-150222.0	-24836.0	284718.0
23	17	34	38	563	68.0	-150301.0	-24078.0	284381.0
23	17	34	38	564	69.0	-151617.0	-23542.0	284211.0
23	17	34	38	603	70.0	-153806.0	-23998.0	284376.0
23	17	34	38	604	71.0	-156708.0	-24057.0	284126.0
23	17	34	38	604	72.0	-160662.0	-24207.0	283867.0
23	17	34	38	605	73.0	-166417.0	-24232.0	283336.0
23	17	34	38	605	74.0	-174361.0	-23909.0	283292.0
23	17	34	38	606	75.0	-183935.0	-24004.0	283422.0
23	17	34	38	607	76.0	-193359.0	-23733.0	283264.0
23	17	34	38	607	77.0	-203477.0	-24681.0	283966.0
23	17	34	38	608	78.0	-214039.0	-23475.0	284208.0
23	17	34	38	609	79.0	-225663.0	-24052.0	283513.0
23	17	34	38	609	80.0	-237633.0	-24487.0	282234.0
23	17	34	38	610	81.0	-249147.0	-23808.0	280235.0
23	17	34	38	610	82.0	-259807.0	-23024.0	278078.0
23	17	34	38	611	83.0	-270166.0	-22234.0	275253.0
23	17	34	38	612	84.0	-280003.0	-22257.0	271260.0
23	17	34	38	612	85.0	-289516.0	-23198.0	266108.0
23	17	34	38	613	90.0	-328464.0	-22924.0	241384.0
23	17	34	38	613	91.0	-332001.0	-23092.0	237530.0
23	17	34	38	614	92.0	-333013.0	-23016.0	231724.0
23	17	34	38	614	93.0	-331520.0	-23356.0	225438.0
23	17	34	38	615	94.0	-327851.0	-23086.0	223509.0
23	17	34	38	616	95.0	-322059.0	-23324.0	224722.0
23	17	34	38	643	96.0	-315129.0	-23261.0	227624.0
23	17	34	38	644	97.0	-307177.0	-23591.0	233344.0
23	17	34	38	645	98.0	-298156.0	-23423.0	240493.0
23	17	34	38	645	99.0	-290019.0	-23402.0	249358.0
23	17	34	38	646	100.0	-283054.0	-23792.0	256339.0
23	17	34	38	646	101.0	-276872.0	-23577.0	258847.0
23	17	34	38	647	102.0	-272027.0	-23147.0	260754.0
23	17	34	38	648	103.0	-268856.0	-23667.0	263342.0
23	17	34	38	648	104.0	-265814.0	-22711.0	266014.0
23	17	34	38	649	105.0	-259962.0	-22518.0	267971.0
23	17	34	38	650	106.0	-246902.0	-23448.0	268455.0
23	17	34	38	650	107.0	-227942.0	-23825.0	267198.0
23	17	34	38	651	108.0	-204561.0	-23636.0	265520.0
23	17	34	38	651	109.0	-189763.0	-23370.0	264346.0
23	17	34	38	652	110.0	-189214.0	-24349.0	263771.0
23	17	34	38	653	112.0	-221909.0	-24400.0	261935.0
23	17	34	38	653	113.0	-246119.0	-22941.0	261901.0
23	17	34	38	654	114.0	-272971.0	-21573.0	262158.0
23	17	34	38	654	115.0	-299299.0	-23400.0	262027.0
23	17	34	38	655	116.0	-322498.0	-23963.0	261786.0
23	17	34	38	656	117.0	-339174.0	-24476.0	261159.0
23	17	34	38	656	118.0	-348262.0	-23748.0	260825.0
23	17	34	38	689	119.0	-353344.0	-22181.0	260695.0
23	17	34	38	689	120.0	-358959.0	-22499.0	260729.0
23	17	34	38	690	121.0	-364466.0	-22900.0	260548.0
23	17	34	38	691	122.0	-368672.0	-21063.0	259993.0
23	17	34	38	691	123.0	-365138.0	-21641.0	259376.0
23	17	34	38	692	124.0	-351874.0	-21971.0	258869.0
23	17	34	38	693	125.0	-334417.0	-22567.0	258106.0
23	17	34	38	693	126.0	-317339.0	-22020.0	257393.0
23	17	34	38	694	127.0	-303176.0	-22371.0	256913.0
23	17	34	38	694	128.0	-294172.0	-22939.0	256495.0
23	17	34	38	695	129.0	-290459.0	-22187.0	256204.0
23	17	34	38	696	130.0	-290269.0	-20789.0	255808.0
23	17	34	38	696	131.0	-286624.0	-21100.0	255469.0
23	17	34	38	697	132.0	-285359.0	-21811.0	255148.0
23	17	34	38	698	133.0	-304082.0	-21572.0	254431.0
23	17	34	38	698	135.0	-330178.0	-20859.0	252786.0
23	17	34	38	699	136.0	-340821.0	-20766.0	252113.0
23	17	34	38	699	137.0	-349780.0	-20983.0	251049.0
23	17	34	38	733	138.0	-352626.0	-21579.0	250369.0
23	17	34	38	734	139.0	-352495.0	-20126.0	249991.0
23	17	34	38	734	140.0	-347964.0	-20547.0	249387.0
23	17	34	38	735	141.0	-341470.0	-21132.0	248311.0
23	17	34	38	736	142.0	-334102.0	-21593.0	247480.0
23	17	34	38	777	143.0	-328256.0	-20913.0	246562.0
23	17	34	38	778	144.0	-324678.0	-22430.0	245673.0
23	17	34	38	779	145.0	-321277.0	-22461.0	244911.0
23	17	34	38	779	146.0	-318247.0	-22851.0	244646.0
23	17	34	38	780	147.0	-316059.0	-22025.0	243944.0
23	17	34	38	782	148.0	-313160.0	-21250.0	243755.0
23	17	34	38	782	149.0	-308892.0	-22580.0	243754.0
23	17	34	38	783	150.0	-302409.0	-23707.0	243052.0
23	17	34	38	784	151.0	-294684.0	-24739.0	241939.0
23	17	34	38	784	152.0	-286695.0	-22154.0	240883.0
23	17	34	38	785	153.0	-278177.0	-22679.0	239749.0
23	17	34	38	785	157.0	-241323.0	-22981.0	235784.0
23	17	34	38	786	158.0	-234697.0	-22985.0	234693.0
23	17	34	38	787	159.0	-229161.0	-22297.0	234210.0
23	17	34	38	787	160.0	-223314.0	-22357.0	233877.0
23	17	34	38	788	179.0	-209880.0	-21391.0	339429.0
23	17	34	38	789	180.0	-206362.0	-21810.0	343011.0
23	17	34	38	789	181.0	-202115.0	-22044.0	347417.0
23	17	34	38	790	182.0	-198992.0	-22152.0	352765.0
23	17	34	38	790	183.0	-196409.0	-22667.0	365439.0
23	17	34	38	791	184.0	-192269.0	-23349.0	393517.0
23	17	34	38	792	185.0	-188672.0	-22461.0	429106.0
23	17	34	38	792	186.0	-184926.0	-23578.0	469168.0
23	17	34	38	823	187.0	-182201.0	-23218.0	514103.0
23	17	34	38	824	188.0	-180677.0	-22524.0	561988.0
23	17	34	38	824	189.0	-179862.0	-22061.0	610449.0
23	17	34	38	825	190.0	-179202.0	-21767.0	659628.0
23	17	34	38	826	191.0	-178052.0	-21931.0	709458.0
23	17	34	38	826	192.0	-176077.0	-21984.0	759893.0
23	17	34	38	827	193.0	-174868.0	-21614.0	811613.0
23	17	34	38	828	194.0	-173737.0	-21809.0	867273.0
23	17	34	38	828	195.0	-173219.0	-22184.0	931326.0
23	17	34	38	829	196.0	-174346.0	-21684.0	1013358.0
23	17	34	38	829	197.0	-177332.0	-21554.0	1137706.0
23	17	34	38	830	198.0	-182044.0	-22466.0	1289068.0
23	17	34	38	831	199.0	-186886.0	-22609.0	1424078.0
23	17	34	38	831	200.0	-191437.0	-21840.0	1536985.0
23	17	34	38	832	201.0	-197076.0	-21599.0	1636084.0
23	17	34	38	833	202.0	-203168.0	-21862.0	1732567.0
23	17	34	38	833	203.0	-208832.0	-21736.0	1836358.0
23	17	34	38	834	204.0	-214336.0	-22009.0	1945300.0
23	17	34	38	834	205.0	-218528.0	-22431.0	2048909.0
23	17	34	38	835	206.0	-222464.0	-22002.0	2142324.0
23	17	34	38	836	207.0	-225099.0	-21864.0	2227713.0
23	17	34	38	867	208.0	-227969.0	-21946.0	2304951.0
23	17	34	38	868	209.0	-229355.0	-21622.0	2375215.0
23	17	34	38	869	210.0	-229710.0	-21734.0	2445196.0
23	17	34	38	869	211.0	-229219.0	-21481.0	2516889.0
23	17	34	38	870	212.0	-227485.0	-20721.0	2594086.0
23	17	34	38	871	213.0	-225799.0	-20389.0	2678480.0
23	17	34	38	871	214.0	-224019.0	-20935.0	2778034.0
23	17	34	38	872	215.0	-222614.0	-20958.0	2895827.0
23	17	34	38	873	216.0	-222098.0	-20448.0	3013146.0
23	17	34	38	874	217.0	-221663.0	-21147.0	3118504.0
23	17	34	38	874	218.0	-221482.0	-21247.0	3209646.0
23	17	34	38	875	219.0	-220081.0	-21280.0	3286978.0
23	17	34	38	875	220.0	-217897.0	-20934.0	3353376.0
23	17	34	38	876	221.0	-216252.0	-20798.0	3410723.0
23	17	34	38	877	222.0	-215371.0	-20557.0	3459673.0
23	17	34	38	877	224.0	-212498.0	-20407.0	3542349.0
23	17	34	38	878	225.0	-211590.0	-19631.0	3579553.0
23	17	34	38	879	226.0	-210239.0	-19573.0	3615706.0
23	17	34	38	879	227.0	-209485.0	-19922.0	3648742.0
23	17	34	38	880	228.0	-208626.0	-19853.0	3677035.0
23	17	34	38	880	229.0	-207961.0	-19856.0	3702586.0
23	17	34	38	881	230.0	-207519.0	-19597.0	3726988.0
23	17	34	38	912	231.0	-206329.0	-19524.0	3753430.0
23	17	34	38	912	232.0	-205106.0	-19401.0	3784791.0
23	17	34	38	913	233.0	-204529.0	-19365.0	3819224.0
23	17	34	38	914	234.0	-205087.0	-19547.0	3853069.0
23	17	34	38	914	235.0	-205464.0	-19151.0	3879941.0
23	17	34	38	915	236.0	-206422.0	-19367.0	3900786.0
23	17	34	38	916	237.0	-209381.0	-19107.0	3916454.0
23	17	34	38	916	238.0	-213475.0	-18993.0	3927764.0
23	17	34	38	917	239.0	-217360.0	-19146.0	3938004.0
23	17	34	38	918	240.0	-222153.0	-19039.0	3948062.0
23	17	34	38	918	241.0	-226977.0	-18965.0	3956746.0
23	17	34	38	919	242.0	-231150.0	-18892.0	3964840.0
23	17	34	38	920	243.0	-234621.0	-18841.0	3971649.0
23	17	34	38	920	244.0	-237599.0	-18741.0	3979295.0
23	17	34	38	921	245.0	-240011.0	-18786.0	3987827.0
23	17	34	38	930	247.0	-241800.0	-18702.0	3999754.0
23	17	34	38	930	248.0	-241714.0	-18712.0	4005146.0
23	17	34	38	931	249.0	-241214.0	-18582.0	4010428.0
23	17	34	38	931	250.0	-241539.0	-18522.0	4017032.0
23	17	34	38	932	251.0	-240993.0	-18483.0	4024259.0
23	17	34	38	933	252.0	-240267.0	-18537.0	4031976.0
23	17	34	38	958	253.0	-238944.0	-18496.0	4040823.0
23	17	34	38	959	254.0	-238064.0	-18430.0	4052814.0
23	17	34	38	959	255.0	-237577.0	-18404.0	4064458.0
23	17	34	38	960	0.0	-245172.0	-18392.0	4075084.0
23	17	34	39	3	1.0	-267123.0	-18322.0	4083919.0
23	17	34	39	4	2.0	-242347.0	-18396.0	4091843.0
23	17	34	39	5	3.0	-225516.0	-18240.0	4098640.0
23	17	34	39	6	4.0	-203691.0	-18208.0	4104261.0
23	17	34	39	7	5.0	-191257.0	-18132.0	4109083.0
23	17	34	39	8	6.0	-181024.0	-18334.0	4114516.0
23	17	34	39	9	7.0	-178474.0	-18442.0	4120006.0
23	17	34	39	10	8.0	-180899.0	-18162.0	4126841.0
23	17	34	39	11	9.0	-186631.0	-18149.0	4133393.0
23	17	34	39	11	10.0	-192314.0	-18196.0	4140084.0
23	17	34	39	12	11.0	-193916.0	-18175.0	4145077.0
23	17	34	39	13	13.0	-186794.0	-18153.0	4153085.0
23	17	34	39	13	14.0	-179963.0	-18081.0	4156350.0
23	17	34	39	14	15.0	-171999.0	-17996.0	4161450.0
23	17	34	39	15	16.0	-165764.0	-17915.0	4165054.0
23	17	34	39	15	17.0	-162881.0	-17902.0	4167689.0
23	17	34	39	16	36.0	-118959.0	-17786.0	4194483.0
23	17	34	39	16	37.0	-117970.0	-17784.0	4193425.0
23	17	34	39	17	38.0	-117509.0	-17781.0	4193426.0
23	17	34	39	18	39.0	-117582.0	-17750.0	4192513.0
23	17	34	39	18	40.0	-118372.0	-17742.0	4192121.0
23	17	34	39	19	41.0	-119953.0	-17712.0	4190879.0
23	17	34	39	49	42.0	-121538.0	-17671.0	4189847.0
23	17	34	39	50	43.0	-123480.0	-17646.0	4189749.0
23	17	34	39	51	44.0	-126127.0	-17625.0	4189489.0
23	17	34	39	51	45.0	-127717.0	-17617.0	4187141.0
23	17	34	39	52	46.0	-129177.0	-17609.0	4183622.0
23	17	34	39	53	47.0	-130860.0	-17601.0	4181151.0
23	17	34	39	53	48.0	-132590.0	-17610.0	4179603.0
23	17	34	39	54	49.0	-135264.0	-17627.0	4176723.0
23	17	34	39	55	50.0	-138274.0	-17616.0	4173300.0
23	17	34	39	55	51.0	-141816.0	-17616.0	4168189.0
23	17	34	39	56	52.0	-144645.0	-17604.0	4163563.0
23	17	34	39	56	53.0	-146037.0	-17589.0	4160054.0
23	17	34	39	57	54.0	-146862.0	-17582.0	4157204.0
23	17	34	39	58	55.0	-146722.0	-17596.0	4154767.0
23	17	34	39	58	56.0	-144719.0	-17575.0	4152770.0
23	17	34	39	59	58.0	-137981.0	-17593.0	4150173.0
23	17	34	39	60	59.0	-134707.0	-17602.0	4148733.0
23	17	34	39	60	60.0	-131967.0	-17593.0	4146328.0
23	17	34	39	61	61.0	-129621.0	-17563.0	4142003.0
23	17	34	39	62	62.0	-127596.0	-17542.0	4138917.0
23	17	34	39	62	63.0	-125506.0	-17522.0	4140116.0
23	17	34	39	63	64.0	-123705.0	-17501.0	4155883.0
23	17	34	39	92	65.0	-122871.0	-17483.0	4179078.0
23	17	34	39	93	66.0	-122478.0	-17469.0	4195274.0
23	17	34	39	93	67.0	-122045.0	-17464.0	4207276.0
23	17	34	39	94	68.0	-122131.0	-17496.0	4217215.0
23	17	34	39	138	69.0	-122563.0	-17501.0	4224142.0
23	17	34	39	138	70.0	-123681.0	-17522.0	4229705.0
23	17	34	39	139	71.0	-125157.0	-17511.0	4233386.0
23	17	34	39	139	72.0	-126608.0	-17501.0	4237066.0
23	17	34	39	141	73.0	-127942.0	-17496.0	4241024.0
23	17	34	39	142	74.0	-129305.0	-17507.0	4243318.0
23	17	34	39	142	75.0	-131340.0	-17521.0	4245130.0
23	17	34	39	143	76.0	-133611.0	-17536.0	4245404.0
23	17	34	39	143	77.0	-135530.0	-17551.0	4245221.0
23	17	34	39	144	78.0	-137810.0	-17561.0	4245891.0
23	17	34	39	144	79.0	-139835.0	-17576.0	4244936.0
23	17	34	39	145	81.0	-143751.0	-17621.0	4237921.0
23	17	34	39	146	82.0	-145406.0	-17624.0	4234432.0
23	17	34	39	146	83.0	-146647.0	-17600.0	4231033.0
23	17	34	39	147	84.0	-148091.0	-17612.0	4228728.0
23	17	34	39	147	103.0	-187376.0	-17760.0	4167573.0
23	17	34	39	148	104.0	-189113.0	-17738.0	4163146.0
23	17	34	39	148	105.0	-190774.0	-17713.0	4158699.0
23	17	34	39	149	106.0	-192532.0	-17711.0	4153258.0
23	17	34	39	149	107.0	-193731.0	-17706.0	4148563.0
23	17	34	39	150	108.0	-194224.0	-17695.0	4144258.0
23	17	34	39	151	109.0	-194662.0	-17682.0	4140273.0
23	17	34	39	183	110.0	-194581.0	-17684.0	4136207.0
23	17	34	39	183	111.0	-193675.0	-17650.0	4131951.0
23	17	34	39	184	112.0	-192344.0	-17644.0	4128730.0
23	17	34	39	184	113.0	-190444.0	-17642.0	4124310.0
23	17	34	39	185	114.0	-189082.0	-17654.0	4119291.0
23	17	34	39	186	115.0	-188502.0	-17640.0	4114004.0
23	17	34	39	186	116.0	-188294.0	-17641.0	4108092.0
23	17	34	39	187	117.0	-188526.0	-17661.0	4104192.0
23	17	34	39	187	118.0	-189484.0	-17654.0	4101226.0
23	17	34	39	188	119.0	-190368.0	-17671.0	4097545.0
23	17	34	39	188	120.0	-191432.0	-17659.0	4092298.0
23	17	34	39	189	121.0	-192411.0	-17651.0	4087227.0
23	17	34	39	190	122.0	-192597.0	-17656.0	4082858.0
23	17	34	39	190	123.0	-192544.0	-17657.0	4078829.0
23	17	34	39	191	124.0	-192769.0	-17656.0	4074496.0
23	17	34	39	191	126.0	-193402.0	-17629.0	4064974.0
23	17	34	39	192	127.0	-193371.0	-17619.0	4061343.0
23	17	34	39	192	128.0	-193077.0	-17613.0	4057116.0
23	17	34	39	193	129.0	-192569.0	-17607.0	4053153.0
23	17	34	39	194	130.0	-192040.0	-17591.0	4048230.0
23	17	34	39	194	131.0	-192354.0	-17566.0	4042238.0
23	17	34	39	207	132.0	-192889.0	-17539.0	4038586.0
23	17	34	39	230	133.0	-193772.0	-17524.0	4036731.0
23	17	34	39	231	134.0	-195193.0	-17514.0	4033939.0
23	17	34	39	273	135.0	-197347.0	-17506.0	4030744.0
23	17	34	39	274	136.0	-199419.0	-17497.0	4026746.0
23	17	34	39	274	137.0	-201889.0	-17488.0	4024829.0
23	17	34	39	275	138.0	-204348.0	-17497.0	4023915.0
23	17	34	39	276	139.0	-206137.0	-17504.0	4021928.0
23	17	34	39	277	140.0	-207390.0	-17501.0	4018128.0
23	17	34	39	277	141.0	-207744.0	-17489.0	4014328.0
23	17	34	39	278	142.0	-207772.0	-17473.0	4010038.0
23	17	34	39	278	143.0	-208354.0	-17462.0	4006376.0
23	17	34	39	279	144.0	-208819.0	-17453.0	4002886.0
23	17	34	39	280	145.0	-209265.0	-17443.0	3998922.0
23	17	34	39	280	146.0	-209916.0	-17454.0	3995039.0
23	17	34	39	281	147.0	-210266.0	-17453.0	3992089.0
23	17	34	39	281	148.0	-210443.0	-17452.0	3988719.0
23	17	34	39	282	149.0	-210829.0	-17439.0	3984888.0
23	17	34	39	282	170.0	-224613.0	-17240.0	3917054.0
23	17	34	39	318	171.0	-227497.0	-17241.0	3912144.0
23	17	34	39	319	172.0	-230014.0	-17228.0	3906724.0
23	17	34	39	320	173.0	-232044.0	-17204.0	3902484.0
23	17	34	39	320	174.0	-233789.0	-17164.0	3897759.0
23	17	34	39	321	175.0	-235281.0	-17133.0	3892163.0
23	17	34	39	322	176.0	-236314.0	-17117.0	3887368.0
23	17	34	39	322	177.0	-237335.0	-17109.0	3884244.0
23	17	34	39	323	178.0	-238036.0	-17104.0	3881354.0
23	17	34	39	323	179.0	-238662.0	-17101.0	3879241.0
23	17	34	39	324	180.0	-239169.0	-17073.0	3875880.0
23	17	34	39	325	181.0	-240011.0	-17037.0	3871496.0
23	17	34	39	325	182.0	-240979.0	-17032.0	3866890.0
23	17	34	39	326	183.0	-242319.0	-17042.0	3863201.0
23	17	34	39	326	184.0	-243812.0	-17012.0	3859311.0
23	17	34	39	327	185.0	-245180.0	-16995.0	3854243.0
23	17	34	39	327	186.0	-245921.0	-16989.0	3848881.0
23	17	34	39	328	193.0	-241119.0	-16912.0	3817054.0
23	17	34	39	329	194.0	-242486.0	-16906.0	3813256.0
23	17	34	39	329	195.0	-244574.0	-16861.0	3809019.0
23	17	34	39	330	196.0	-246793.0	-16842.0	3804703.0
23	17	34	39	330	197.0	-249341.0	-16816.0	3801604.0
23	17	34	39	331	198.0	-251581.0	-16798.0	3797196.0
23	17	34	39	331	199.0	-253787.0	-16791.0	3793314.0
23	17	34	39	363	200.0	-254825.0	-16742.0	3788187.0
23	17	34	39	363	201.0	-254852.0	-16698.0	3782445.0
23	17	34	39	364	202.0	-254009.0	-16689.0	3777225.0
23	17	34	39	365	203.0	-253267.0	-16674.0	3772742.0
23	17	34	39	365	204.0	-251877.0	-16651.0	3768506.0
23	17	34	39	366	205.0	-250677.0	-16631.0	3764589.0
23	17	34	39	366	206.0	-249372.0	-16651.0	3761688.0
23	17	34	39	367	207.0	-248230.0	-16652.0	3759421.0
23	17	34	39	367	208.0	-246487.0	-16631.0	3756410.0
23	17	34	39	368	209.0	-245358.0	-16613.0	3752596.0
23	17	34	39	369	210.0	-244766.0	-16584.0	3747385.0
23	17	34	39	369	211.0	-243877.0	-16559.0	3742429.0
23	17	34	39	370	212.0	-242392.0	-16555.0	3737974.0
23	17	34	39	370	213.0	-240201.0	-16534.0	3733714.0
23	17	34	39	371	214.0	-237426.0	-16520.0	3729739.0
23	17	34	39	372	215.0	-234735.0	-16495.0	3724744.0
23	17	34	39	372	216.0	-232275.0	-16497.0	3720177.0
23	17	34	39	373	217.0	-229628.0	-16486.0	3716568.0
23	17	34	39	373	218.0	-227131.0	-16450.0	3713458.0
23	17	34	39	374	219.0	-224532.0	-16412.0	3710466.0
23	17	34	39	375	220.0	-222303.0	-16369.0	3706390.0
23	17	34	39	375	221.0	-220717.0	-16341.0	3702781.0
23	17	34	39	407	222.0	-219426.0	-16309.0	3699649.0
23	17	34	39	408	223.0	-218519.0	-16274.0	3694624.0
23	17	34	39	408	224.0	-217371.0	-16246.0	3689185.0
23	17	34	39	409	225.0	-216067.0	-16246.0	3684521.0
23	17	34	39	453	226.0	-214486.0	-16218.0	3680462.0
23	17	34	39	454	227.0	-212904.0	-16222.0	3677157.0
23	17	34	39	454	228.0	-210922.0	-16222.0	3673854.0
23	17	34	39	455	229.0	-208996.0	-16232.0	3670785.0
23	17	34	39	497	230.0	-206825.0	-16187.0	3667231.0
23	17	34	39	498	231.0	-204486.0	-16159.0	3663899.0
23	17	34	39	499	232.0	-202389.0	-16140.0	3660361.0
23	17	34	39	499	233.0	-200554.0	-16131.0	3656441.0
23	17	34	39	500	234.0	-198686.0	-16128.0	3652741.0
23	17	34	39	500	235.0	-197299.0	-16094.0	3649196.0
23	17	34	39	501	236.0	-196815.0	-16066.0	3646634.0
23	17	34	39	502	238.0	-199567.0	-16059.0	3643823.0
23	17	34	39	503	239.0	-202239.0	-16015.0	3640869.0
23	17	34	39	503	240.0	-204906.0	-15957.0	3636265.0
23	17	34	39	504	241.0	-207262.0	-15941.0	3632436.0
23	17	34	39	505	4.0	-232200.0	-15481.0	3559477.0
23	17	34	39	506	5.0	-229681.0	-15449.0	3554787.0
23	17	34	39	507	6.0	-227392.0	-15418.0	3550343.0
23	17	34	39	507	7.0	-226139.0	-15366.0	3546523.0
23	17	34	39	508	27.0	-218810.0	-14867.0	3477091.0
23	17	34	39	508	28.0	-219606.0	-14827.0	3472409.0
23	17	34	39	509	29.0	-220713.0	-14791.0	3468683.0
23	17	34	39	509	30.0	-222519.0	-14762.0	3463792.0
23	17	34	39	510	31.0	-224637.0	-14712.0	3457026.0
23	17	34	39	511	32.0	-226695.0	-14666.0	3450095.0
23	17	34	39	589	33.0	-228577.0	-14635.0	3442303.0
23	17	34	39	590	34.0	-230197.0	-14591.0	3433793.0
23	17	34	39	590	35.0	-231611.0	-14530.0	3425781.0
23	17	34	39	591	36.0	-231759.0	-14521.0	3418308.0
23	17	34	39	592	37.0	-229317.0	-14517.0	3411767.0
23	17	34	39	592	38.0	-224907.0	-14486.0	3405668.0
23	17	34	39	593	39.0	-218858.0	-14461.0	3398948.0
23	17	34	39	593	40.0	-210993.0	-14466.0	3394341.0
23	17	34	39	594	41.0	-201920.0	-14448.0	3391487.0
23	17	34	39	595	42.0	-191952.0	-14434.0	3391322.0
23	17	34	39	595	43.0	-182291.0	-14414.0	3391584.0
23	17	34	39	596	44.0	-173474.0	-14382.0	3393917.0
23	17	34	39	597	45.0	-165659.0	-14341.0	3398797.0
23	17	34	39	597	46.0	-158427.0	-14329.0	3404176.0
23	17	34	39	598	47.0	-152358.0	-14318.0	3404579.0
23	17	34	39	598	72.0	-177545.0	-13745.0	3311396.0
23	17	34	39	599	73.0	-173971.0	-13684.0	3306647.0
23	17	34	39	600	74.0	-174996.0	-13632.0	3302145.0
23	17	34	39	600	75.0	-182056.0	-13576.0	3298661.0
23	17	34	39	601	76.0	-194229.0	-13518.0	3295459.0
23	17	34	39	601	77.0	-208884.0	-13476.0	3291188.0
23	17	34	39	632	78.0	-222990.0	-13437.0	3286274.0
23	17	34	39	633	79.0	-235169.0	-13386.0	3282860.0
23	17	34	39	634	80.0	-245650.0	-13371.0	3280738.0
23	17	34	39	634	81.0	-254696.0	-13354.0	3276243.0
23	17	34	39	635	82.0	-261852.0	-13341.0	3272218.0
23	17	34	39	635	83.0	-266362.0	-13299.0	3268659.0
23	17	34	39	636	84.0	-266490.0	-13257.0	3263749.0
23	17	34	39	637	85.0	-261868.0	-13230.0	3259341.0
23	17	34	39	638	86.0	-252227.0	-13226.0	3256168.0
23	17	34	39	638	87.0	-239425.0	-13191.0	3252204.0
23	17	34	39	639	88.0	-225332.0	-13152.0	3246853.0
23	17	34	39	639	89.0	-212006.0	-13115.0	3241958.0
23	17	34	39	640	90.0	-199665.0	-13111.0	3238958.0
23	17	34	39	640	91.0	-189064.0	-13105.0	3234672.0
23	17	34	39	641	92.0	-179671.0	-13065.0	3230479.0
23	17	34	39	642	94.0	-164449.0	-12996.0	3220016.0
23	17	34	39	642	95.0	-158868.0	-12980.0	3215781.0
23	17	34	39	643	96.0	-153412.0	-12951.0	3211214.0
23	17	34	39	643	97.0	-148026.0	-12891.0	3206122.0
23	17	34	39	644	98.0	-142571.0	-12844.0	3201887.0
23	17	34	39	645	99.0	-137649.0	-12792.0	3198944.0
23	17	34	39	678	100.0	-133842.0	-12773.0	3195919.0
23	17	34	39	679	101.0	-131177.0	-12743.0	3191507.0
23	17	34	39	680	102.0	-129628.0	-12698.0	3188269.0
23	17	34	39	680	103.0	-130236.0	-12656.0	3184014.0
23	17	34	39	681	104.0	-132191.0	-12632.0	3179770.0
23	17	34	39	723	105.0	-135516.0	-12631.0	3176558.0
23	17	34	39	724	106.0	-140051.0	-12604.0	3173726.0
23	17	34	39	724	107.0	-145166.0	-12567.0	3170461.0
23	17	34	39	725	108.0	-150299.0	-12532.0	3166539.0
23	17	34	39	726	109.0	-155887.0	-12519.0	3162645.0
23	17	34	39	726	110.0	-161351.0	-12509.0	3158479.0
23	17	34	39	727	111.0	-166691.0	-12475.0	3154163.0
23	17	34	39	727	112.0	-171711.0	-12471.0	3150241.0
23	17	34	39	728	113.0	-176987.0	-12432.0	3145686.0
23	17	34	39	729	114.0	-182108.0	-12401.0	3142253.0
23	17	34	39	729	117.0	-192122.0	-12327.0	3135829.0
23	17	34	39	730	118.0	-193807.0	-12311.0	3134345.0
23	17	34	39	731	119.0	-194920.0	-12258.0	3132949.0
23	17	34	39	732	120.0	-194531.0	-12252.0	3130463.0
23	17	34	39	732	121.0	-193677.0	-12244.0	3126919.0
23	17	34	39	733	139.0	-127890.0	-11864.0	3060310.0
23	17	34	39	734	140.0	-125902.0	-11842.0	3057688.0
23	17	34	39	734	141.0	-125422.0	-11792.0	3054233.0
23	17	34	39	735	142.0	-126351.0	-11736.0	3050998.0
23	17	34	39	735	143.0	-127666.0	-11673.0	3046160.0
23	17	34	39	736	144.0	-129889.0	-11627.0	3041714.0
23	17	34	39	767	145.0	-132725.0	-11558.0	3038114.0
23	17	34	39	786	146.0	-136266.0	-11491.0	3034928.0
23	17	34	39	787	147.0	-140268.0	-11436.0	3031138.0
23	17	34	39	788	148.0	-144887.0	-11405.0	3026806.0
23	17	34	39	788	149.0	-149984.0	-11377.0	3024163.0
23	17	34	39	789	150.0	-155256.0	-11339.0	3021945.0
23	17	34	39	789	151.0	-160199.0	-11296.0	3019016.0
23	17	34	39	790	152.0	-164957.0	-11249.0	3015743.0
23	17	34	39	790	153.0	-169546.0	-11172.0	3011988.0
23	17	34	39	791	154.0	-173799.0	-11111.0	3007647.0
23	17	34	39	792	155.0	-177676.0	-11057.0	3004001.0
23	17	34	39	792	156.0	-181666.0	-10995.0	3000043.0
23	17	34	39	793	157.0	-185822.0	-10912.0	2996531.0
23	17	34	39	793	158.0	-189208.0	-10850.0	2992199.0
23	17	34	39	794	159.0	-191028.0	-10798.0	2989246.0
23	17	34	39	794	161.0	-193361.0	-10691.0	2983774.0
23	17	34	39	795	162.0	-193187.0	-10609.0	2980045.0
23	17	34	39	795	163.0	-192308.0	-10526.0	2975824.0
23	17	34	39	796	164.0	-190932.0	-10436.0	2971661.0
23	17	34	39	797	165.0	-189520.0	-10363.0	2968021.0
23	17	34	39	797	166.0	-188102.0	-10276.0	2963202.0
23	17	34	39	798	167.0	-186455.0	-10194.0	2957683.0
23	17	34	39	811	168.0	-184679.0	-10102.0	2953352.0
23	17	34	39	812	169.0	-183656.0	-10014.0	2950289.0
23	17	34	39	813	170.0	-183017.0	-9942.0	2947012.0
23	17	34	39	813	171.0	-182567.0	-9880.0	2943118.0
23	17	34	39	814	172.0	-182361.0	-9808.0	2939744.0
23	17	34	39	814	173.0	-182236.0	-9737.0	2935708.0
23	17	34	39	815	174.0	-181733.0	-9659.0	2931366.0
23	17	34	39	816	175.0	-181581.0	-9581.0	2927356.0
23	17	34	39	816	176.0	-182026.0	-9513.0	2923721.0
23	17	34	39	817	177.0	-182849.0	-9452.0	2919356.0
23	17	34	39	818	178.0	-183811.0	-9379.0	2915473.0
23	17	34	39	818	179.0	-184201.0	-9344.0	2912504.0
23	17	34	39	819	180.0	-184480.0	-9289.0	2908651.0
23	17	34	39	819	181.0	-184259.0	-9227.0	2904423.0
23	17	34	39	820	182.0	-183726.0	-9164.0	2900028.0
23	17	34	39	821	184.0	-182485.0	-9037.0	2891679.0
23	17	34	39	821	185.0	-181916.0	-8962.0	2889242.0
23	17	34	39	822	186.0	-181434.0	-8884.0	2886245.0
23	17	34	39	823	187.0	-181008.0	-8807.0	2883133.0
23	17	34	39	823	188.0	-180489.0	-8718.0	2879288.0
23	17	34	39	824	189.0	-180064.0	-8667.0	2877197.0
23	17	34	39	857	190.0	-180004.0	-8614.0	2875237.0
23	17	34	39	858	191.0	-181211.0	-8557.0	2872746.0
23	17	34	39	858	192.0	-182960.0	-8517.0	2869801.0
23	17	34	39	859	193.0	-185599.0	-8454.0	2868818.0
23	17	34	39	860	194.0	-188809.0	-8392.0	2868456.0
23	17	34	39	861	195.0	-192747.0	-8339.0	2866846.0
23	17	34	39	861	196.0	-197415.0	-8304.0	2865109.0
23	17	34	39	862	197.0	-202091.0	-8258.0	2863082.0
23	17	34	39	862	198.0	-206462.0	-8183.0	2860796.0
23	17	34	39	863	199.0	-209693.0	-8178.0	2859789.0
23	17	34	39	864	200.0	-211275.0	-8143.0	2857818.0
23	17	34	39	865	201.0	-208628.0	-8109.0	2855253.0
23	17	34	39	866	202.0	-204876.0	-8077.0	2851595.0
23	17	34	39	866	203.0	-205762.0	-8019.0	2848589.0
23	17	34	39	867	204.0	-207663.0	-7962.0	2846108.0
23	17	34	39	868	206.0	-210339.0	-7885.0	2840462.0
23	17	34	39	868	207.0	-211613.0	-7877.0	2836894.0
23	17	34	39	869	208.0	-212757.0	-7821.0	2833601.0
23	17	34	39	869	209.0	-212285.0	-7757.0	2831596.0
23	17	34	39	870	210.0	-207966.0	-7724.0	2829470.0
23	17	34	39	871	211.0	-200827.0	-7675.0	2827363.0
23	17	34	39	871	212.0	-192927.0	-7608.0	2823038.0
23	17	34	39	902	213.0	-185349.0	-7547.0	2819070.0
23	17	34	39	947	214.0	-180021.0	-7489.0	2815332.0
23	17	34	39	968	215.0	-178334.0	-7436.0	2811678.0
23	17	34	39	969	216.0	-179649.0	-7416.0	2807819.0
23	17	34	39	970	217.0	-182170.0	-7366.0	2804557.0
23	17	34	39	970	218.0	-185115.0	-7342.0	2801890.0
23	17	34	39	971	219.0	-188099.0	-7331.0	2800138.0
23	17	34	39	971	220.0	-190930.0	-7306.0	2797509.0
23	17	34	39	972	221.0	-194088.0	-7283.0	2794701.0
23	17	34	39	972	222.0	-197924.0	-7230.0	2791282.0
23	17	34	39	973	223.0	-202731.0	-7202.0	2787282.0
23	17	34	39	974	224.0	-207747.0	-7179.0	2783314.0
23	17	34	39	974	225.0	-212287.0	-7137.0	2779715.0
23	17	34	39	975	226.0	-215961.0	-7124.0	2775661.0
23	17	34	39	975	227.0	-218049.0	-7098.0	2771223.0
23	17	34	39	976	229.0	-215699.0	-7069.0	2764523.0
23	17	34	39	976	230.0	-212624.0	-7062.0	2761725.0
23	17	34	39	977	252.0	-200504.0	-6529.0	2683454.0
23	17	34	39	978	253.0	-203443.0	-6496.0	2678636.0
23	17	34	39	978	254.0	-205312.0	-6465.0	2673842.0
23	17	34	39	979	255.0	-206454.0	-6435.0	2670229.0
23	17	34	39	979	0.0	-206184.0	-6410.0	2666553.0
23	17	34	39	980	1.0	-205107.0	-6361.0	2663086.0
23	17	34	39	992	2.0	-203340.0	-6329.0	2660306.0
23	17	34	39	993	3.0	-201519.0	-6309.0	2658711.0
23	17	34	39	993	4.0	-200307.0	-6301.0	2656373.0
23	17	34	39	994	5.0	-199251.0	-6291.0	2653209.0
23	17	34	39	995	6.0	-199731.0	-6247.0	2648570.0
23	17	34	39	995	7.0	-200006.0	-6217.0	2642519.0
23	17	34	39	996	8.0	-199697.0	-6199.0	2638232.0
23	17	34	39	997	9.0	-200154.0	-6196.0	2634954.0
23	17	34	39	997	10.0	-200909.0	-6199.0	2631518.0
23	17	34	39	998	11.0	-201916.0	-6189.0	2627784.0
23	17	34	39	999	12.0	-202989.0	-6182.0	2624804.0
23	17	34	40	0	13.0	-204142.0	-6204.0	2623249.0
23	17	34	40	14	14.0	-204958.0	-6197.0	2619737.0
23	17	34	40	15	15.0	-205140.0	-6184.0	2616199.0
23	17	34	40	16	18.0	-202952.0	-6151.0	2603501.0
23	17	34	40	39	19.0	-201145.0	-6142.0	2599964.0
23	17	34	40	83	20.0	-199026.0	-6118.0	2596470.0
23	17	34	40	83	21.0	-196162.0	-6092.0	2593081.0
23	17	34	40	84	22.0	-192882.0	-6062.0	2589573.0
23	17	34	40	85	23.0	-189459.0	-6052.0	2587176.0
23	17	34	40	86	24.0	-186344.0	-6023.0	2584050.0
23	17	34	40	86	25.0	-183048.0	-6022.0	2580386.0
23	17	34	40	87	26.0	-179489.0	-6013.0	2575743.0
23	17	34	40	88	27.0	-176892.0	-5990.0	2571964.0
23	17	34	40	88	28.0	-174204.0	-5969.0	2567874.0
23	17	34	40	89	29.0	-171766.0	-5967.0	2563329.0
23	17	34	40	90	30.0	-169595.0	-5962.0	2558767.0
23	17	34	40	90	31.0	-167018.0	-5954.0	2554698.0
23	17	34	40	91	32.0	-164374.0	-5969.0	2551365.0
23	17	34	40	91	33.0	-161819.0	-5964.0	2548768.0
23	17	34	40	92	40.0	-158271.0	-5887.0	2522132.0
23	17	34	40	93	63.0	-180443.0	-5677.0	2450793.0
23	17	34	40	93	64.0	-180410.0	-5654.0	2449634.0
23	17	34	40	94	65.0	-179821.0	-5612.0	2446514.0
23	17	34	40	94	66.0	-178804.0	-5574.0	2442250.0
23	17	34	40	95	67.0	-177482.0	-5550.0	2437925.0
23	17	34	40	96	68.0	-175964.0	-5520.0	2434070.0
23	17	34	40	219	69.0	-174293.0	-5504.0	2430483.0
23	17	34	40	219	70.0	-172436.0	-5466.0	2427079.0
23	17	34	40	220	71.0	-170698.0	-5447.0	2423320.0
23	17	34	40	221	72.0	-169361.0	-5446.0	2420646.0
23	17	34	40	233	73.0	-168843.0	-5446.0	2418499.0
23	17	34	40	234	74.0	-169057.0	-5434.0	2415970.0
23	17	34	40	234	75.0	-170011.0	-5424.0	2413284.0
23	17	34	40	235	76.0	-171194.0	-5411.0	2410275.0
23	17	34	40	236	77.0	-172064.0	-5391.0	2406477.0
23	17	34	40	236	78.0	-172436.0	-5391.0	2402339.0
23	17	34	40	237	79.0	-172653.0	-5395.0	2398544.0
23	17	34	40	237	80.0	-173149.0	-5381.0	2395077.0
23	17	34	40	238	81.0	-173687.0	-5368.0	2390176.0
23	17	34	40	238	82.0	-174895.0	-5364.0	2386322.0
23	17	34	40	239	83.0	-176929.0	-5370.0	2383354.0
23	17	34	40	240	130.0	-213504.0	-5055.0	2231242.0
23	17	34	40	240	131.0	-213130.0	-5046.0	2227693.0
23	17	34	40	241	132.0	-213418.0	-5034.0	2224942.0
23	17	34	40	241	133.0	-214041.0	-5016.0	2222347.0
23	17	34	40	242	134.0	-214359.0	-4979.0	2220309.0
23	17	34	40	242	135.0	-213593.0	-4941.0	2216891.0
23	17	34	40	262	136.0	-212252.0	-4896.0	2212866.0
23	17	34	40	263	137.0	-210838.0	-4881.0	2208877.0
23	17	34	40	264	138.0	-209394.0	-4859.0	2206038.0
23	17	34	40	265	139.0	-208352.0	-4856.0	2203852.0
23	17	34	40	265	140.0	-207151.0	-4832.0	2200551.0
23	17	34	40	266	141.0	-205149.0	-4812.0	2196636.0
23	17	34	40	267	142.0	-202546.0	-4816.0	2193986.0
23	17	34	40	268	143.0	-199719.0	-4817.0	2190305.0
23	17	34	40	268	144.0	-196371.0	-4809.0	2186945.0
23	17	34	40	269	145.0	-193261.0	-4789.0	2183642.0
23	17	34	40	270	146.0	-190070.0	-4790.0	2180349.0
23	17	34	40	270	147.0	-186790.0	-4775.0	2176402.0
23	17	34	40	271	148.0	-183437.0	-4753.0	2173126.0
23	17	34	40	272	149.0	-180637.0	-4749.0	2170686.0
23	17	34	40	273	150.0	-178472.0	-4732.0	2167612.0
23	17	34	40	273	152.0	-174916.0	-4731.0	2161101.0
23	17	34	40	274	153.0	-172477.0	-4726.0	2158348.0
23	17	34	40	275	154.0	-170387.0	-4725.0	2156026.0
23	17	34	40	275	155.0	-168312.0	-4684.0	2152175.0
23	17	34	40	276	156.0	-166048.0	-4643.0	2148873.0
23	17	34	40	277	157.0	-163926.0	-4627.0	2145464.0
23	17	34	40	278	158.0	-161755.0	-4611.0	2142676.0
23	17	34	40	308	159.0	-159556.0	-4587.0	2139558.0
23	17	34	40	308	160.0	-156795.0	-4556.0	2135059.0
23	17	34	40	309	161.0	-154363.0	-4542.0	2131289.0
23	17	34	40	310	162.0	-152440.0	-4567.0	2129274.0
23	17	34	40	310	163.0	-150479.0	-4575.0	2126480.0
23	17	34	40	311	164.0	-148680.0	-4577.0	2123445.0
23	17	34	40	311	165.0	-148201.0	-4564.0	2119180.0
23	17	34	40	312	166.0	-149327.0	-4556.0	2115138.0
23	17	34	40	312	167.0	-151485.0	-4554.0	2110980.0
23	17	34	40	313	168.0	-153278.0	-4541.0	2108124.0
23	17	34	40	313	169.0	-155329.0	-4529.0	2105463.0
23	17	34	40	314	170.0	-157389.0	-4524.0	2101864.0
23	17	34	40	315	171.0	-158672.0	-4508.0	2098870.0
23	17	34	40	315	172.0	-159101.0	-4521.0	2096642.0
23	17	34	40	316	173.0	-159447.0	-4543.0	2093078.0
23	17	34	40	316	175.0	-160459.0	-4524.0	2084548.0
23	17	34	40	317	176.0	-161568.0	-4499.0	2080536.0
23	17	34	40	318	177.0	-162735.0	-4451.0	2077203.0
23	17	34	40	318	178.0	-164944.0	-4435.0	2073822.0
23	17	34	40	319	179.0	-167679.0	-4429.0	2070838.0
23	17	34	40	319	180.0	-170667.0	-4419.0	2067651.0
23	17	34	40	353	181.0	-173414.0	-4395.0	2064446.0
23	17	34	40	354	182.0	-176135.0	-4371.0	2062152.0
23	17	34	40	354	183.0	-178941.0	-4369.0	2058826.0
23	17	34	40	355	184.0	-181842.0	-4375.0	2055925.0
23	17	34	40	356	185.0	-185067.0	-4365.0	2052248.0
23	17	34	40	356	186.0	-188636.0	-4377.0	2048132.0
23	17	34	40	357	187.0	-192196.0	-4364.0	2043217.0
23	17	34	40	357	188.0	-195624.0	-4361.0	2039625.0
23	17	34	40	358	189.0	-199470.0	-4352.0	2037211.0
23	17	34	40	359	190.0	-203690.0	-4351.0	2033890.0
23	17	34	40	359	191.0	-207377.0	-4366.0	2029801.0
23	17	34	40	360	192.0	-210964.0	-4379.0	2026054.0
23	17	34	40	360	193.0	-214579.0	-4367.0	2022243.0
23	17	34	40	361	194.0	-217899.0	-4368.0	2019236.0
23	17	34	40	361	195.0	-221032.0	-4370.0	2015719.0
23	17	34	40	362	197.0	-225519.0	-4349.0	2008699.0
23	17	34	40	363	198.0	-226426.0	-4341.0	2006651.0
23	17	34	40	363	199.0	-226638.0	-4324.0	2003782.0
23	17	34	40	364	200.0	-226462.0	-4286.0	1999904.0
23	17	34	40	365	201.0	-225314.0	-4267.0	1997184.0
23	17	34	40	366	202.0	-223147.0	-4277.0	1995754.0
23	17	34	40	366	203.0	-220049.0	-4276.0	1994563.0
23	17	34	40	428	204.0	-216129.0	-4249.0	1992888.0
23	17	34	40	429	205.0	-212266.0	-4223.0	1990503.0
23	17	34	40	429	206.0	-208641.0	-4218.0	1988152.0
23	17	34	40	430	207.0	-205081.0	-4210.0	1985736.0
23	17	34	40	431	208.0	-201924.0	-4207.0	1982631.0
23	17	34	40	431	209.0	-198562.0	-4210.0	1980223.0
23	17	34	40	432	210.0	-195174.0	-4219.0	1977491.0
23	17	34	40	432	211.0	-191820.0	-4219.0	1975940.0
23	17	34	40	433	212.0	-189049.0	-4217.0	1975791.0
23	17	34	40	434	213.0	-186596.0	-4221.0	1974245.0
23	17	34	40	434	214.0	-184552.0	-4198.0	1972753.0
23	17	34	40	435	215.0	-183194.0	-4187.0	1970741.0
23	17	34	40	435	216.0	-182191.0	-4187.0	1968190.0
23	17	34	40	436	217.0	-181536.0	-4194.0	1967058.0
23	17	34	40	436	218.0	-181019.0	-4199.0	1967566.0
23	17	34	40	437	227.0	-177466.0	-4142.0	1973169.0
23	17	34	40	438	235.0	-179270.0	-4048.0	1964640.0
23	17	34	40	438	236.0	-183142.0	-4017.0	1962845.0
23	17	34	40	439	237.0	-187199.0	-4002.0	1961926.0
23	17	34	40	448	238.0	-191538.0	-3973.0	1962012.0
23	17	34	40	448	239.0	-195939.0	-3956.0	1961864.0
23	17	34	40	449	240.0	-200596.0	-3926.0	1961697.0
23	17	34	40	450	241.0	-204742.0	-3912.0	1962815.0
23	17	34	40	450	242.0	-208727.0	-3896.0	1963651.0
23	17	34	40	472	243.0	-212812.0	-3891.0	1963071.0
23	17	34	40	473	244.0	-216992.0	-3868.0	1960342.0
23	17	34	40	473	245.0	-221066.0	-3825.0	1955214.0
23	17	34	40	474	246.0	-224884.0	-3837.0	1949985.0
23	17	34	40	475	247.0	-228578.0	-3826.0	1944885.0
23	17	34	40	475	248.0	-231838.0	-3799.0	1939670.0
23	17	34	40	476	249.0	-235170.0	-3796.0	1933103.0
23	17	34	40	476	250.0	-238582.0	-3804.0	1924669.0
23	17	34	40	477	251.0	-241249.0	-3790.0	1916626.0
23	17	34	40	477	252.0	-243316.0	-3770.0	1909460.0
23	17	34	40	478	253.0	-244939.0	-3757.0	1902215.0
23	17	34	40	479	254.0	-245516.0	-3741.0	1894189.0
23	17	34	40	479	255.0	-244876.0	-3729.0	1886807.0
23	17	34	40	480	0.0	-242593.0	-3714.0	1878325.0
23	17	34	40	480	1.0	-238496.0	-3714.0	1869573.0
23	17	34	40	481	2.0	-232991.0	-3731.0	1862354.0
23	17	34	40	496	3.0	-226391.0	-3703.0	1858804.0
23	17	34	40	518	4.0	-219074.0	-3674.0	1857219.0
23	17	34	40	519	5.0	-211111.0	-3679.0	1858911.0
23	17	34	40	520	6.0	-202028.0	-3686.0	1863505.0
23	17	34	40	520	7.0	-192822.0	-3703.0	1870068.0
23	17	34	40	521	8.0	-183697.0	-3694.0	1877124.0
23	17	34	40	521	9.0	-175546.0	-3678.0	1879498.0
23	17	34	40	522	10.0	-169527.0	-3667.0	1878719.0
23	17	34	40	522	11.0	-165900.0	-3660.0	1878784.0
23	17	34	40	523	12.0	-164622.0	-3664.0	1878868.0
23	17	34	40	523	13.0	-163402.0	-3646.0	1878816.0
23	17	34	40	524	14.0	-156432.0	-3639.0	1877086.0
23	17	34	40	525	15.0	-139336.0	-3646.0	1875611.0
23	17	34	40	525	16.0	-115251.0	-3662.0	1872549.0
23	17	34	40	526	17.0	-94452.0	-3648.0	1869094.0
23	17	34	40	526	18.0	-89443.0	-3634.0	1865485.0
23	17	34	40	527	19.0	-98517.0	-3593.0	1861366.0
23	17	34	40	527	20.0	-118081.0	-3569.0	1856638.0
23	17	34	40	528	21.0	-141747.0	-3543.0	1853306.0
23	17	34	40	528	22.0	-167624.0	-3546.0	1850342.0
23	17	34	40	529	23.0	-193593.0	-3511.0	1847403.0
23	17	34	40	541	24.0	-217552.0	-3502.0	1843973.0
23	17	34	40	541	25.0	-235243.0	-3503.0	1842098.0
23	17	34	40	542	26.0	-244547.0	-3501.0	1839856.0
23	17	34	40	543	27.0	-248262.0	-3518.0	1837056.0
23	17	34	40	543	28.0	-251781.0	-3517.0	1833433.0
23	17	34	40	544	29.0	-255839.0	-3501.0	1829145.0
23	17	34	40	544	30.0	-257059.0	-3491.0	1824991.0
23	17	34	40	545	31.0	-251916.0	-3488.0	1821971.0
23	17	34	40	545	32.0	-240096.0	-3509.0	1819759.0
23	17	34	40	546	33.0	-224183.0	-3488.0	1815854.0
23	17	34	40	546	34.0	-209487.0	-3464.0	1811626.0
23	17	34	40	547	35.0	-199126.0	-3449.0	1809289.0
23	17	34	40	548	36.0	-194577.0	-3468.0	1807133.0
23	17	34	40	548	37.0	-194669.0	-3461.0	1804255.0
23	17	34	40	549	38.0	-195823.0	-3465.0	1799696.0
23	17	34	40	549	39.0	-198642.0	-3458.0	1794923.0
23	17	34	40	568	40.0	-202391.0	-3437.0	1790732.0
23	17	34	40	569	41.0	-206997.0	-3417.0	1788277.0
23	17	34	40	570	42.0	-211136.0	-3402.0	1785483.0
23	17	34	40	570	43.0	-215277.0	-3396.0	1781944.0
23	17	34	40	571	44.0	-219377.0	-3401.0	1777438.0
23	17	34	40	571	45.0	-223121.0	-3415.0	1774364.0
23	17	34	40	572	46.0	-224560.0	-3426.0	1771421.0
23	17	34	40	592	47.0	-223967.0	-3444.0	1769235.0
23	17	34	40	593	48.0	-221616.0	-3411.0	1765566.0
23	17	34	40	593	49.0	-219166.0	-3387.0	1761238.0
23	17	34	40	594	50.0	-217283.0	-3361.0	1757515.0
23	17	34	40	595	51.0	-216606.0	-3362.0	1753872.0
23	17	34	40	595	52.0	-217452.0	-3349.0	1749525.0
23	17	34	40	596	53.0	-219436.0	-3356.0	1745835.0
23	17	34	40	596	54.0	-222272.0	-3341.0	1742005.0
23	17	34	40	597	55.0	-224734.0	-3350.0	1740845.0
23	17	34	40	598	56.0	-226470.0	-3373.0	1739106.0
23	17	34	40	598	57.0	-226004.0	-3388.0	1736706.0
23	17	34	40	599	58.0	-223717.0	-3364.0	1733256.0
23	17	34	40	599	59.0	-220034.0	-3356.0	1728671.0
23	17	34	40	600	60.0	-214934.0	-3349.0	1724061.0
23	17	34	40	600	61.0	-208376.0	-3350.0	1720501.0
23	17	34	40	601	62.0	-201956.0	-3344.0	1716631.0
23	17	34	40	602	63.0	-195226.0	-3315.0	1711776.0
23	17	34	40	602	64.0	-188420.0	-3307.0	1708037.0
23	17	34	40	603	65.0	-181659.0	-3289.0	1706629.0
23	17	34	40	615	66.0	-175199.0	-3284.0	1704460.0
23	17	34	40	615	67.0	-169598.0	-3276.0	1701648.0
23	17	34	40	616	68.0	-165056.0	-3243.0	1697879.0
23	17	34	40	638	69.0	-160978.0	-3229.0	1693629.0
23	17	34	40	639	70.0	-158345.0	-3219.0	1690065.0
23	17	34	40	639	71.0	-156749.0	-3220.0	1687761.0
23	17	34	40	640	72.0	-155956.0	-3211.0	1685938.0
23	17	34	40	640	73.0	-155351.0	-3197.0	1683003.0
23	17	34	40	641	74.0	-155698.0	-3196.0	1679935.0
23	17	34	40	641	75.0	-156831.0	-3232.0	1678279.0
23	17	34	40	642	76.0	-157972.0	-3246.0	1676434.0
23	17	34	40	643	77.0	-159556.0	-3241.0	1673550.0
23	17	34	40	643	78.0	-161278.0	-3212.0	1670048.0
23	17	34	40	644	79.0	-163463.0	-3202.0	1666869.0
23	17	34	40	667	80.0	-164842.0	-3175.0	1663926.0
23	17	34	40	668	81.0	-165893.0	-3164.0	1661094.0
23	17	34	40	668	82.0	-165934.0	-3154.0	1658316.0
23	17	34	40	669	83.0	-164245.0	-3158.0	1654531.0
23	17	34	40	670	84.0	-162399.0	-3147.0	1650745.0
23	17	34	40	670	85.0	-159385.0	-3157.0	1649081.0
23	17	34	40	671	86.0	-156050.0	-3161.0	1647311.0
23	17	34	40	671	87.0	-150827.0	-3156.0	1645089.0
23	17	34	40	672	88.0	-146700.0	-3133.0	1640978.0
23	17	34	40	673	89.0	-142547.0	-3121.0	1636569.0
23	17	34	40	673	90.0	-138207.0	-3121.0	1634000.0
23	17	34	40	674	91.0	-133417.0	-3118.0	1632034.0
23	17	34	40	675	92.0	-128003.0	-3103.0	1629538.0
23	17	34	40	675	93.0	-122534.0	-3107.0	1627354.0
23	17	34	40	683	94.0	-116969.0	-3087.0	1625875.0
23	17	34	40	684	98.0	-94072.0	-3049.0	1620071.0
23	17	34	40	684	99.0	-88817.0	-3001.0	1616624.0
23	17	34	40	685	100.0	-84301.0	-2957.0	1615031.0
23	17	34	40	686	101.0	-80010.0	-2920.0	1612629.0
23	17	34	40	686	102.0	-76796.0	-2872.0	1609021.0
23	17	34	40	687	103.0	-73981.0	-2816.0	1604998.0
23	17	34	40	687	104.0	-71854.0	-2783.0	1603163.0
23	17	34	40	688	105.0	-70246.0	-2748.0	1602389.0
23	17	34	40	688	106.0	-69806.0	-2724.0	1600499.0
23	17	34	40	689	107.0	-70288.0	-2692.0	1598589.0
23	17	34	40	707	108.0	-71158.0	-2604.0	1595071.0
23	17	34	40	708	109.0	-72881.0	-2533.0	1591219.0
23	17	34	40	708	110.0	-75057.0	-2457.0	1587757.0
23	17	34	40	709	111.0	-77151.0	-2409.0	1584618.0
23	17	34	40	709	112.0	-79795.0	-2357.0	1581212.0
23	17	34	40	710	113.0	-82777.0	-2317.0	1578752.0
23	17	34	40	711	114.0	-85888.0	-2265.0	1577486.0
23	17	34	40	711	115.0	-88935.0	-2203.0	1576125.0
23	17	34	40	712	116.0	-91994.0	-2139.0	1573985.0
23	17	34	40	713	117.0	-95892.0	-2074.0	1572413.0
23	17	34	40	713	118.0	-100511.0	-2014.0	1570355.0
23	17	34	40	714	119.0	-105401.0	-1931.0	1567744.0
23	17	34	40	714	120.0	-110331.0	-1890.0	1566594.0
23	17	34	40	715	121.0	-115476.0	-1826.0	1566049.0
23	17	34	40	715	122.0	-121034.0	-1756.0	1565161.0
23	17	34	40	742	123.0	-127332.0	-1657.0	1562693.0
23	17	34	40	743	124.0	-133521.0	-1582.0	1561863.0
23	17	34	40	743	125.0	-140242.0	-1543.0	1561767.0
23	17	34	40	744	126.0	-146909.0	-1471.0	1560762.0
23	17	34	40	745	127.0	-152700.0	-1404.0	1559545.0
23	17	34	40	745	128.0	-157957.0	-1332.0	1556911.0
23	17	34	40	746	129.0	-161561.0	-1251.0	1555304.0
23	17	34	40	747	130.0	-165331.0	-1166.0	1553666.0
23	17	34	40	747	131.0	-167771.0	-1101.0	1552099.0
23	17	34	40	748	132.0	-170844.0	-1031.0	1549819.0
23	17	34	40	749	133.0	-173014.0	-957.0	1546403.0
23	17	34	40	749	134.0	-175387.0	-899.0	1543760.0
23	17	34	40	750	135.0	-176877.0	-867.0	1542077.0
23	17	34	40	751	136.0	-178958.0	-789.0	1540533.0
23	17	34	40	751	137.0	-180741.0	-716.0	1538689.0
23	17	34	40	752	138.0	-182284.0	-540.0	1535204.0
23	17	34	40	752	139.0	-182452.0	-84.0	1531675.0
23	17	34	40	753	140.0	-182476.0	-594.0	1529443.0
23	17	34	40	762	141.0	-181564.0	-606.0	1526815.0
23	17	34	40	763	142.0	-179524.0	-181.0	1523363.0
23	17	34	40	763	143.0	-178387.0	-637.0	1519376.0
23	17	34	40	786	144.0	-175915.0	-745.0	1516244.0
23	17	34	40	787	145.0	-173776.0	-348.0	1514485.0
23	17	34	40	788	146.0	-169836.0	-59.0	1512243.0
23	17	34	40	788	147.0	-166106.0	88.0	1508769.0
23	17	34	40	789	148.0	-162185.0	87.0	1503468.0
23	17	34	40	789	149.0	-158827.0	-14.0	1500039.0
23	17	34	40	790	150.0	-155174.0	283.0	1497688.0
23	17	34	40	791	151.0	-151952.0	166.0	1495272.0
23	17	34	40	791	152.0	-149969.0	573.0	1493138.0
23	17	34	40	792	153.0	-147731.0	435.0	1490000.0
23	17	34	40	792	154.0	-150624.0	618.0	1487136.0
23	17	34	40	793	155.0	-157327.0	646.0	1485578.0
23	17	34	40	793	156.0	-172747.0	190.0	1483920.0
23	17	34	40	794	157.0	-196509.0	556.0	1482103.0
23	17	34	40	794	158.0	-237388.0	624.0	1478655.0
23	17	34	40	795	159.0	-288921.0	576.0	1475015.0
23	17	34	40	810	160.0	-345997.0	401.0	1472124.0
23	17	34	40	811	161.0	-406896.0	449.0	1468673.0
23	17	34	40	812	162.0	-461418.0	849.0	1465886.0
23	17	34	40	812	163.0	-510283.0	918.0	1462531.0
23	17	34	40	833	164.0	-542698.0	898.0	1461046.0
23	17	34	40	834	165.0	-564738.0	911.0	1459608.0
23	17	34	40	834	166.0	-583069.0	1156.0	1458486.0
23	17	34	40	835	167.0	-599922.0	1058.0	1456157.0
23	17	34	40	835	168.0	-605689.0	1028.0	1452689.0
23	17	34	40	836	169.0	-607360.0	1155.0	1449089.0
23	17	34	40	837	170.0	-602716.0	1157.0	1446723.0
23	17	34	40	837	171.0	-596651.0	1196.0	1444211.0
23	17	34	40	838	172.0	-592713.0	1286.0	1441328.0
23	17	34	40	838	173.0	-590847.0	1253.0	1438876.0
23	17	34	40	839	174.0	-583040.0	1294.0	1438850.0
23	17	34	40	839	175.0	-570983.0	1164.0	1438528.0
23	17	34	40	840	176.0	-563644.0	1446.0	1438313.0
23	17	34	40	841	177.0	-551954.0	1463.0	1436257.0
23	17	34	40	841	178.0	-541437.0	1515.0	1432733.0
23	17	34	40	842	179.0	-529991.0	1353.0	1428595.0
23	17	34	40	842	180.0	-520394.0	1634.0	1425677.0
23	17	34	40	843	181.0	-510356.0	1608.0	1423304.0
23	17	34	40	855	182.0	-496860.0	1541.0	1420301.0
23	17	34	40	856	183.0	-488479.0	1624.0	1417512.0
23	17	34	40	856	184.0	-479702.0	1694.0	1417694.0
23	17	34	40	857	185.0	-472361.0	1545.0	1417018.0
23	17	34	40	858	186.0	-461371.0	1635.0	1417425.0
23	17	34	40	858	187.0	-454443.0	1374.0	1417854.0
23	17	34	40	859	188.0	-448353.0	1600.0	1415360.0
23	17	34	40	859	189.0	-442376.0	1567.0	1410884.0
23	17	34	40	860	190.0	-436846.0	1691.0	1408557.0
23	17	34	40	861	191.0	-432684.0	1888.0	1406861.0
23	17	34	40	861	192.0	-427196.0	1809.0	1403999.0
23	17	34	40	862	193.0	-420339.0	1670.0	1400505.0
23	17	34	40	863	194.0	-414463.0	1010.0	1401201.0
23	17	34	40	863	195.0	-408627.0	1433.0	1403376.0
23	17	34	40	864	196.0	-402114.0	2073.0	1406272.0
23	17	34	40	893	197.0	-397312.0	1906.0	1404387.0
23	17	34	40	894	198.0	-392711.0	1873.0	1398399.0
23	17	34	40	895	199.0	-390434.0	2214.0	1391863.0
23	17	34	40	895	200.0	-387315.0	2324.0	1386774.0
23	17	34	40	912	201.0	-384737.0	1849.0	1382263.0
23	17	34	40	913	202.0	-381892.0	1946.0	1378477.0
23	17	34	40	913	203.0	-379591.0	1900.0	1375978.0
23	17	34	40	914	204.0	-377134.0	2071.0	1373459.0
23	17	34	40	915	205.0	-373710.0	2106.0	1369186.0
23	17	34	40	915	206.0	-370314.0	1498.0	1367061.0
23	17	34	40	916	207.0	-366366.0	1849.0	1366061.0
23	17	34	40	916	208.0	-362642.0	2085.0	1363982.0
23	17	34	40	917	209.0	-358922.0	2109.0	1362526.0
23	17	34	40	918	210.0	-355726.0	2083.0	1360380.0
23	17	34	40	918	211.0	-352821.0	2105.0	1359167.0
23	17	34	40	919	212.0	-349308.0	2126.0	1358102.0
23	17	34	40	919	213.0	-346490.0	2138.0	1357580.0
23	17	34	40	920	214.0	-343320.0	2156.0	1356131.0
23	17	34	40	921	215.0	-340253.0	2003.0	1341681.0
23	17	34	40	921	218.0	-332471.0	1658.0	1004739.0
23	17	34	40	922	219.0	-329665.0	-2591.0	1004027.0
23	17	34	40	922	220.0	-325750.0	-767.0	1004877.0
23	17	34	40	923	221.0	-321559.0	1256.0	1009319.0
23	17	34	40	924	222.0	-316842.0	371.0	1026488.0
23	17	34	40	924	223.0	-311734.0	-145.0	1061949.0
23	17	34	40	925	224.0	-306708.0	-969.0	1040373.0
23	17	34	40	925	225.0	-301592.0	-5712.0	971624.0
23	17	34	40	926	226.0	-295725.0	-9835.0	895789.0
23	17	34	40	937	227.0	-289717.0	-10130.0	857138.0
23	17	34	40	937	228.0	-283395.0	-7512.0	866211.0
23	17	34	40	938	229.0	-276545.0	-7919.0	896528.0
23	17	34	40	939	230.0	-269738.0	-5555.0	914304.0
23	17	34	40	939	231.0	-262694.0	-844.0	925493.0
23	17	34	40	940	232.0	-255451.0	-300.0	949525.0
23	17	34	40	941	233.0	-248251.0	-2822.0	990886.0
23	17	34	40	941	234.0	-241709.0	-3938.0	973033.0
23	17	34	40	982	235.0	-235237.0	-1687.0	912783.0
23	17	34	40	983	236.0	-228717.0	-602.0	843768.0
23	17	34	40	984	237.0	-222344.0	1376.0	814954.0
23	17	34	40	984	238.0	-216245.0	3938.0	830051.0
23	17	34	40	985	239.0	-210468.0	-614.0	861906.0
23	17	34	40	986	240.0	-204803.0	353.0	881641.0
23	17	34	40	986	241.0	-199575.0	-358.0	896491.0
23	17	34	40	987	242.0	-194072.0	339.0	924936.0
23	17	34	40	987	243.0	-189417.0	957.0	968863.0
23	17	34	40	988	244.0	-185188.0	3809.0	948311.0
23	17	34	40	989	245.0	-181759.0	7043.0	891343.0
23	17	34	40	990	246.0	-178947.0	974.0	836515.0
23	17	34	40	991	247.0	-176660.0	1352.0	825071.0
23	17	34	40	991	248.0	-175521.0	2890.0	847093.0
23	17	34	40	992	249.0	-174929.0	3859.0	884399.0
23	17	34	40	992	0.0	-175237.0	1141.0	919808.0
23	17	34	40	993	1.0	-175293.0	2493.0	909071.0
23	17	34	40	994	2.0	-174432.0	1868.0	931759.0
23	17	34	40	994	3.0	-173892.0	1416.0	969808.0
23	17	34	40	995	4.0	-173859.0	1337.0	999589.0
23	17	34	40	996	5.0	-174171.0	1875.0	1023494.0
23	17	34	40	997	6.0	-174711.0	1664.0	1059850.0
23	17	34	40	998	7.0	-175983.0	916.0	1102251.0
23	17	34	41	12	8.0	-177835.0	1674.0	1078919.0
23	17	34	41	13	9.0	-180526.0	1068.0	1030011.0
23	17	34	41	13	10.0	-183319.0	547.0	982225.0
23	17	34	41	14	11.0	-186064.0	874.0	983800.0
23	17	34	41	15	12.0	-189112.0	1058.0	1015158.0
23	17	34	41	15	13.0	-191944.0	414.0	1054684.0
23	17	34	41	16	14.0	-193824.0	-200.0	1080753.0
23	17	34	41	16	15.0	-195325.0	1037.0	1109043.0
23	17	34	41	17	16.0	-196763.0	1206.0	1162086.0
23	17	34	41	28	17.0	-198822.0	1076.0	1218736.0
23	17	34	41	29	18.0	-201076.0	1064.0	1207681.0
23	17	34	41	30	19.0	-203317.0	1567.0	1168955.0
23	17	34	41	30	20.0	-204911.0	389.0	1120501.0
23	17	34	41	31	21.0	-206821.0	250.0	1114046.0
23	17	34	41	31	22.0	-208951.0	951.0	1141743.0
23	17	34	41	32	23.0	-210225.0	6.0	1180636.0
23	17	34	41	52	24.0	-211366.0	3514.0	1206034.0
23	17	34	41	52	25.0	-211972.0	2706.0	1235409.0
23	17	34	41	53	26.0	-212514.0	1294.0	1287167.0
23	17	34	41	54	27.0	-212610.0	1401.0	1331736.0
23	17	34	41	54	28.0	-211439.0	411.0	1256323.0
23	17	34	41	55	29.0	-210268.0	448.0	1211923.0
23	17	34	41	55	30.0	-209046.0	1723.0	1223956.0
23	17	34	41	81	31.0	-206797.0	1124.0	1222689.0
23	17	34	41	82	32.0	-203681.0	139.0	1218162.0
23	17	34	41	83	33.0	-199275.0	-511.0	1214509.0
23	17	34	41	83	34.0	-195781.0	-26.0	1212486.0
23	17	34	41	84	35.0	-191487.0	624.0	1210908.0
23	17	34	41	84	36.0	-187898.0	-249.0	1209746.0
23	17	34	41	85	37.0	-184156.0	-910.0	1208668.0
23	17	34	41	85	38.0	-180889.0	-524.0	1208140.0
23	17	34	41	86	39.0	-177241.0	-167.0	1206473.0
23	17	34	41	86	40.0	-173435.0	-289.0	1205718.0
23	17	34	41	87	41.0	-168469.0	556.0	1203475.0
23	17	34	41	88	42.0	-163913.0	2107.0	1202744.0
23	17	34	41	88	43.0	-159588.0	2729.0	1201672.0
23	17	34	41	89	44.0	-155557.0	3132.0	1200666.0
23	17	34	41	89	45.0	-152044.0	2760.0	1198906.0
23	17	34	41	90	46.0	-149582.0	1755.0	1197138.0
23	17	34	41	90	47.0	-148209.0	1730.0	1196135.0
23	17	34	41	91	48.0	-147729.0	1530.0	1193953.0
23	17	34	41	91	49.0	-146636.0	1226.0	1192868.0
23	17	34	41	92	50.0	-146119.0	842.0	1193441.0
23	17	34	41	93	51.0	-145496.0	716.0	1191632.0
23	17	34	41	93	52.0	-144561.0	1114.0	1189873.0
23	17	34	41	94	53.0	-142697.0	1252.0	1187666.0
23	17	34	41	102	54.0	-140427.0	1411.0	1185183.0
23	17	34	41	102	55.0	-138302.0	1699.0	1184077.0
23	17	34	41	103	56.0	-136041.0	2666.0	1182089.0
23	17	34	41	104	57.0	-134428.0	3761.0	1180183.0
23	17	34	41	104	58.0	-133034.0	2714.0	1177774.0
23	17	34	41	105	59.0	-131752.0	1577.0	1176094.0
23	17	34	41	105	60.0	-130262.0	1491.0	1175156.0
23	17	34	41	126	61.0	-128364.0	449.0	1174652.0
23	17	34	41	126	62.0	-126521.0	675.0	1172952.0
23	17	34	41	127	63.0	-124849.0	2739.0	1171038.0
23	17	34	41	127	64.0	-123734.0	2734.0	1169144.0
23	17	34	41	128	65.0	-122821.0	2524.0	1167254.0
23	17	34	41	148	66.0	-122196.0	2207.0	1165541.0
23	17	34	41	149	67.0	-121453.0	2436.0	1163874.0
23	17	34	41	149	68.0	-120561.0	2427.0	1161816.0
23	17	34	41	150	69.0	-119541.0	2228.0	1160431.0
23	17	34	41	150	70.0	-118521.0	2409.0	1158083.0
23	17	34	41	151	71.0	-117899.0	2367.0	1155918.0
23	17	34	41	151	72.0	-117534.0	2041.0	1154623.0
23	17	34	41	152	73.0	-117626.0	1684.0	1153404.0
23	17	34	41	152	74.0	-118174.0	1870.0	1152572.0
23	17	34	41	153	75.0	-119262.0	2244.0	1151484.0
23	17	34	41	154	76.0	-120558.0	2002.0	1150474.0
23	17	34	41	154	77.0	-122284.0	2045.0	1149259.0
23	17	34	41	155	78.0	-124347.0	2429.0	1147989.0
23	17	34	41	155	79.0	-126291.0	2439.0	1146718.0
23	17	34	41	156	80.0	-128032.0	2713.0	1144729.0
23	17	34	41	156	81.0	-129782.0	3408.0	1143128.0
23	17	34	41	157	82.0	-131187.0	3266.0	1142763.0
23	17	34	41	171	83.0	-132326.0	2711.0	1141087.0
23	17	34	41	172	84.0	-133869.0	3084.0	1139725.0
23	17	34	41	172	85.0	-135608.0	2729.0	1137830.0
23	17	34	41	173	86.0	-137424.0	2509.0	1135769.0
23	17	34	41	174	87.0	-139325.0	2746.0	1134058.0
23	17	34	41	174	88.0	-141546.0	2601.0	1132727.0
23	17	34	41	175	89.0	-144262.0	2920.0	1131148.0
23	17	34	41	175	90.0	-147367.0	3357.0	1130368.0
23	17	34	41	176	91.0	-150980.0	2775.0	1128655.0
23	17	34	41	176	92.0	-154286.0	2554.0	1126243.0
23	17	34	41	177	93.0	-157882.0	2571.0	1124915.0
23	17	34	41	178	94.0	-162726.0	2531.0	1123067.0
23	17	34	41	178	95.0	-167443.0	2436.0	1121018.0
23	17	34	41	179	96.0	-171847.0	2390.0	1118924.0
23	17	34	41	179	97.0	-176169.0	2214.0	1117694.0
23	17	34	41	180	98.0	-180291.0	2678.0	1115141.0
23	17	34	41	197	99.0	-184076.0	2428.0	1113486.0
23	17	34	41	198	100.0	-187730.0	1878.0	1111945.0
23	17	34	41	198	101.0	-191229.0	2405.0	1110749.0
23	17	34	41	199	102.0	-194679.0	2496.0	1109912.0
23	17	34	41	200	103.0	-198088.0	2581.0	1108706.0
23	17	34	41	200	104.0	-201037.0	2472.0	1106269.0
23	17	34	41	201	105.0	-203414.0	2478.0	1104290.0
23	17	34	41	201	106.0	-205101.0	2034.0	1102525.0
23	17	34	41	202	107.0	-206074.0	3029.0	1099606.0
23	17	34	41	221	108.0	-206893.0	1964.0	1096968.0
23	17	34	41	222	109.0	-206843.0	2802.0	1095342.0
23	17	34	41	222	110.0	-206405.0	2989.0	1092715.0
23	17	34	41	223	111.0	-205479.0	2943.0	1091574.0
23	17	34	41	224	112.0	-203943.0	3006.0	1090406.0
23	17	34	41	224	113.0	-203779.0	2916.0	1088933.0
23	17	34	41	225	114.0	-203403.0	2804.0	1087649.0
23	17	34	41	225	115.0	-204299.0	2683.0	1085428.0
23	17	34	41	226	116.0	-204968.0	2433.0	1082593.0
23	17	34	41	227	117.0	-206154.0	3074.0	1081040.0
23	17	34	41	227	118.0	-207379.0	2831.0	1079298.0
23	17	34	41	228	119.0	-208696.0	2299.0	1077409.0
23	17	34	41	228	120.0	-209764.0	2204.0	1076019.0
23	17	34	41	229	121.0	-210342.0	2916.0	1075928.0
23	17	34	41	244	122.0	-210167.0	2999.0	1074475.0
23	17	34	41	245	123.0	-209467.0	2196.0	1072734.0
23	17	34	41	245	124.0	-208163.0	2915.0	1072667.0
23	17	34	41	246	125.0	-206740.0	3099.0	1071891.0
23	17	34	41	246	126.0	-204661.0	2394.0	1070399.0
23	17	34	41	247	127.0	-203036.0	2802.0	1068460.0
23	17	34	41	268	128.0	-200936.0	3086.0	1066579.0
23	17	34	41	268	129.0	-198732.0	2368.0	1064917.0
23	17	34	41	269	130.0	-196945.0	2361.0	1064668.0
23	17	34	41	270	131.0	-194799.0	2525.0	1064391.0
23	17	34	41	270	132.0	-192757.0	2569.0	1064552.0
23	17	34	41	271	133.0	-190751.0	2758.0	1063493.0
23	17	34	41	271	134.0	-188533.0	2646.0	1062240.0
23	17	34	41	272	135.0	-186776.0	2550.0	1060937.0
23	17	34	41	272	136.0	-185362.0	2556.0	1059628.0
23	17	34	41	273	137.0	-184584.0	2561.0	1058352.0
23	17	34	41	273	138.0	-183441.0	2602.0	1056317.0
23	17	34	41	274	139.0	-182921.0	2798.0	1055399.0
23	17	34	41	275	140.0	-182867.0	2997.0	1054540.0
23	17	34	41	275	141.0	-182657.0	2766.0	1053193.0
23	17	34	41	276	142.0	-182896.0	2836.0	1051826.0
23	17	34	41	292	143.0	-182644.0	3036.0	1049383.0
23	17	34	41	315	144.0	-182796.0	2964.0	1047375.0
23	17	34	41	315	145.0	-182449.0	2993.0	1046728.0
23	17	34	41	316	146.0	-181847.0	2960.0	1047103.0
23	17	34	41	316	147.0	-180967.0	3161.0	1046709.0
23	17	34	41	317	148.0	-180027.0	2663.0	1045136.0
23	17	34	41	317	149.0	-179324.0	2456.0	1044013.0
23	17	34	41	318	150.0	-178544.0	2263.0	1043787.0
23	17	34	41	319	151.0	-178573.0	2334.0	1044133.0
23	17	34	41	319	152.0	-178111.0	2426.0	1043603.0
23	17	34	41	320	153.0	-173978.0	2814.0	1042616.0
23	17	34	41	320	154.0	-172955.0	2673.0	1041749.0
23	17	34	41	321	155.0	-170389.0	2427.0	1040144.0
23	17	34	41	321	156.0	-167930.0	2498.0	1038384.0
23	17	34	41	322	157.0	-164919.0	2516.0	1036419.0
23	17	34	41	322	158.0	-161857.0	2239.0	1034607.0
23	17	34	41	323	159.0	-159198.0	2166.0	1033839.0
23	17	34	41	324	160.0	-156542.0	1838.0	1033193.0
23	17	34	41	324	161.0	-153685.0	2019.0	1033631.0
23	17	34	41	325	162.0	-152788.0	2514.0	1033589.0
23	17	34	41	325	163.0	-153255.0	1735.0	1032114.0
23	17	34	41	326	164.0	-154992.0	1774.0	1030271.0
23	17	34	41	326	165.0	-156278.0	3008.0	1028661.0
23	17	34	41	327	166.0	-158152.0	3493.0	1026799.0
23	17	34	41	328	167.0	-161579.0	2397.0	1024931.0
23	17	34	41	328	168.0	-163649.0	2368.0	1022673.0
23	17	34	41	329	169.0	-166303.0	2708.0	1019705.0
23	17	34	41	330	170.0	-170079.0	2813.0	1013886.0
23	17	34	41	330	171.0	-174359.0	2986.0	995350.0
23	17	34	41	331	172.0	-179069.0	2420.0	941269.0
23	17	34	41	331	173.0	-183311.0	2734.0	874551.0
23	17	34	41	342	174.0	-187032.0	2439.0	829387.0
23	17	34	41	342	175.0	-191892.0	2302.0	808661.0
23	17	34	41	343	176.0	-197085.0	2193.0	796711.0
23	17	34	41	344	177.0	-200699.0	2161.0	722361.0
23	17	34	41	344	178.0	-203770.0	2751.0	630178.0
23	17	34	41	345	179.0	-207866.0	2388.0	538342.0
23	17	34	41	345	180.0	-211249.0	1496.0	503699.0
23	17	34	41	361	181.0	-214410.0	1684.0	515111.0
23	17	34	41	362	182.0	-213433.0	1616.0	542892.0
23	17	34	41	363	183.0	-216991.0	1316.0	557559.0
23	17	34	41	363	184.0	-217301.0	2430.0	570375.0
23	17	34	41	364	185.0	-219111.0	2143.0	604203.0
23	17	34	41	364	186.0	-219132.0	2654.0	642104.0
23	17	34	41	365	187.0	-219597.0	2279.0	600379.0
23	17	34	41	365	188.0	-218782.0	2276.0	531534.0
23	17	34	41	385	189.0	-217226.0	2348.0	459475.0
23	17	34	41	385	190.0	-215195.0	2502.0	443931.0
23	17	34	41	386	191.0	-213907.0	2008.0	467019.0
23	17	34	41	387	192.0	-212637.0	2158.0	500392.0
23	17	34	41	387	193.0	-212696.0	2169.0	518729.0
23	17	34	41	388	194.0	-212783.0	2496.0	535149.0
23	17	34	41	388	195.0	-213834.0	2626.0	574386.0
23	17	34	41	389	196.0	-217217.0	2348.0	611356.0
23	17	34	41	390	197.0	-218022.0	2262.0	568628.0
23	17	34	41	390	198.0	-219619.0	2305.0	499654.0
23	17	34	41	391	199.0	-223345.0	2527.0	429468.0
23	17	34	41	391	200.0	-226580.0	2165.0	417150.0
23	17	34	41	392	201.0	-230539.0	1979.0	442472.0
23	17	34	41	392	202.0	-233794.0	2283.0	476190.0
23	17	34	41	393	203.0	-237567.0	2343.0	495106.0
23	17	34	41	407	204.0	-241013.0	2790.0	513370.0
23	17	34	41	430	205.0	-244317.0	3064.0	555224.0
23	17	34	41	431	206.0	-247814.0	2351.0	589350.0
23	17	34	41	431	207.0	-251665.0	1912.0	543014.0
23	17	34	41	432	208.0	-255368.0	2216.0	473285.0
23	17	34	41	432	209.0	-258808.0	3358.0	406921.0
23	17	34	41	433	210.0	-262145.0	2453.0	398882.0
23	17	34	41	434	211.0	-266238.0	2858.0	425711.0
23	17	34	41	434	212.0	-270464.0	2814.0	456934.0
23	17	34	41	435	213.0	-274289.0	2091.0	473273.0
23	17	34	41	435	214.0	-279374.0	1992.0	490490.0
23	17	34	41	436	215.0	-284702.0	1666.0	530513.0
23	17	34	41	436	216.0	-290265.0	1930.0	555824.0
23	17	34	41	437	217.0	-295830.0	1952.0	501414.0
23	17	34	41	437	218.0	-301106.0	1695.0	426383.0
23	17	34	41	438	219.0	-305899.0	559.0	357260.0
23	17	34	41	439	220.0	-308666.0	1500.0	347673.0
23	17	34	41	439	221.0	-309662.0	2134.0	374073.0
23	17	34	41	440	222.0	-308731.0	1716.0	402977.0
23	17	34	41	440	223.0	-305954.0	1872.0	415957.0
23	17	34	41	441	224.0	-301884.0	2328.0	429760.0
23	17	34	41	453	225.0	-296605.0	1744.0	473191.0
23	17	34	41	453	226.0	-291219.0	1948.0	499414.0
23	17	34	41	454	227.0	-286070.0	2518.0	450206.0
23	17	34	41	454	228.0	-281276.0	2200.0	385033.0
23	17	34	41	455	229.0	-276221.0	1543.0	332558.0
23	17	34	41	456	230.0	-271359.0	1446.0	338881.0
23	17	34	41	456	231.0	-267468.0	1250.0	374735.0
23	17	34	41	457	232.0	-264848.0	1929.0	409023.0
23	17	34	41	457	233.0	-262665.0	2149.0	429553.0
23	17	34	41	475	234.0	-260844.0	2248.0	453297.0
23	17	34	41	476	235.0	-257636.0	2059.0	503956.0
23	17	34	41	477	236.0	-248224.0	2714.0	527571.0
23	17	34	41	477	237.0	-231269.0	1802.0	474898.0
23	17	34	41	478	238.0	-213179.0	880.0	403624.0
23	17	34	41	478	239.0	-197307.0	73.0	345819.0
23	17	34	41	479	240.0	-195191.0	848.0	345219.0
23	17	34	41	480	241.0	-201735.0	1978.0	375659.0
23	17	34	41	480	242.0	-214975.0	2146.0	404513.0
23	17	34	41	481	243.0	-229815.0	869.0	422400.0
23	17	34	41	481	244.0	-245452.0	1301.0	444359.0
23	17	34	41	482	245.0	-261969.0	1429.0	490858.0
23	17	34	41	483	246.0	-275357.0	861.0	506956.0
23	17	34	41	483	247.0	-282226.0	2148.0	452168.0
23	17	34	41	484	248.0	-282028.0	2364.0	382034.0
23	17	34	41	498	249.0	-278079.0	1498.0	330159.0
23	17	34	41	499	250.0	-274496.0	-395.0	333155.0
23	17	34	41	499	251.0	-270979.0	1783.0	365828.0
23	17	34	41	500	252.0	-263164.0	970.0	394473.0
23	17	34	41	501	253.0	-249794.0	1631.0	411293.0
23	17	34	41	501	254.0	-231219.0	88.0	434398.0
23	17	34	41	521	255.0	-213526.0	1115.0	481576.0
23	17	34	41	522	0.0	-198926.0	1191.0	492666.0
23	17	34	41	523	1.0	-189463.0	2487.0	440126.0
23	17	34	41	523	2.0	-186867.0	2931.0	376040.0
23	17	34	41	524	3.0	-187726.0	2034.0	331379.0
23	17	34	41	524	4.0	-190916.0	1581.0	338122.0
23	17	34	41	525	5.0	-193610.0	2483.0	373856.0
23	17	34	41	525	6.0	-196297.0	2738.0	407631.0
23	17	34	41	526	7.0	-196882.0	1479.0	431841.0
23	17	34	41	526	8.0	-195042.0	856.0	458914.0
23	17	34	41	527	9.0	-193278.0	1856.0	506741.0
23	17	34	41	528	10.0	-191371.0	2143.0	515637.0
23	17	34	41	543	11.0	-187656.0	1170.0	479449.0
23	17	34	41	544	12.0	-182945.0	1616.0	459505.0
23	17	34	41	545	13.0	-176182.0	1279.0	470399.0
23	17	34	41	545	14.0	-168963.0	1518.0	514507.0
23	17	34	41	546	15.0	-162681.0	1432.0	572934.0
23	17	34	41	546	16.0	-158316.0	1009.0	624314.0
23	17	34	41	547	17.0	-157092.0	811.0	669690.0
23	17	34	41	548	18.0	-157066.0	2253.0	728042.0
23	17	34	41	548	19.0	-158154.0	1058.0	806784.0
23	17	34	41	549	20.0	-159481.0	1189.0	836218.0
23	17	34	41	549	21.0	-160369.0	1369.0	828586.0
23	17	34	41	550	22.0	-161086.0	1038.0	811819.0
23	17	34	41	550	23.0	-159853.0	1693.0	806786.0
23	17	34	41	566	24.0	-157797.0	1576.0	838759.0
23	17	34	41	567	25.0	-156923.0	1025.0	889210.0
23	17	34	41	568	26.0	-154386.0	1496.0	926744.0
23	17	34	41	568	27.0	-152333.0	2413.0	945739.0
23	17	34	41	569	28.0	-149812.0	2985.0	873248.0
23	17	34	41	569	29.0	-148355.0	1893.0	847435.0
23	17	34	41	570	30.0	-146127.0	-144.0	853513.0
23	17	34	41	571	31.0	-144983.0	668.0	853504.0
23	17	34	41	571	32.0	-143179.0	293.0	853439.0
23	17	34	41	572	33.0	-142626.0	1247.0	851908.0
23	17	34	41	572	34.0	-142609.0	1647.0	850541.0
23	17	34	41	573	35.0	-143041.0	996.0	849963.0
23	17	34	41	573	36.0	-144529.0	811.0	849576.0
23	17	34	41	574	37.0	-147289.0	1193.0	848161.0
23	17	34	41	589	38.0	-150159.0	1151.0	846362.0
23	17	34	41	590	39.0	-153402.0	1378.0	844412.0
23	17	34	41	590	40.0	-156644.0	1774.0	843238.0
23	17	34	41	591	41.0	-159264.0	1528.0	841566.0
23	17	34	41	592	42.0	-163051.0	1566.0	841031.0
23	17	34	41	592	43.0	-166261.0	1669.0	839114.0
23	17	34	41	593	44.0	-169653.0	1352.0	837624.0
23	17	34	41	612	45.0	-172550.0	1183.0	837014.0
23	17	34	41	612	46.0	-174432.0	1309.0	835816.0
23	17	34	41	613	47.0	-176579.0	1165.0	834024.0
23	17	34	41	614	48.0	-178416.0	824.0	832593.0
23	17	34	41	614	49.0	-178499.0	803.0	831334.0
23	17	34	41	615	50.0	-178464.0	1424.0	829219.0
23	17	34	41	615	51.0	-177466.0	712.0	827349.0
23	17	34	41	616	52.0	-176469.0	981.0	826381.0
23	17	34	41	617	53.0	-176094.0	906.0	825649.0
23	17	34	41	617	54.0	-175111.0	905.0	824158.0
23	17	34	41	618	55.0	-174814.0	897.0	822346.0
23	17	34	41	618	56.0	-173154.0	242.0	820896.0
23	17	34	41	619	57.0	-170836.0	439.0	819284.0
23	17	34	41	620	58.0	-167566.0	878.0	817211.0
23	17	34	41	620	59.0	-164853.0	1236.0	815014.0
23	17	34	41	634	60.0	-161764.0	911.0	812323.0
23	17	34	41	635	61.0	-158297.0	853.0	809699.0
23	17	34	41	636	62.0	-155069.0	964.0	807743.0
23	17	34	41	636	63.0	-152109.0	720.0	805735.0
23	17	34	41	637	64.0	-149374.0	515.0	805155.0
23	17	34	41	637	65.0	-146001.0	928.0	803784.0
23	17	34	41	638	66.0	-144146.0	981.0	801797.0
23	17	34	41	660	67.0	-142738.0	728.0	799339.0
23	17	34	41	660	68.0	-141756.0	583.0	797250.0
23	17	34	41	661	69.0	-141744.0	708.0	795341.0
23	17	34	41	661	70.0	-142524.0	656.0	792237.0
23	17	34	41	662	71.0	-143730.0	564.0	790585.0
23	17	34	41	662	72.0	-146026.0	728.0	788635.0
23	17	34	41	663	73.0	-148982.0	237.0	786598.0
23	17	34	41	664	74.0	-152002.0	263.0	785503.0
23	17	34	41	664	75.0	-154901.0	670.0	783479.0
23	17	34	41	665	76.0	-158611.0	942.0	780680.0
23	17	34	41	665	77.0	-161810.0	543.0	777603.0
23	17	34	41	666	78.0	-164577.0	386.0	775543.0
23	17	34	41	666	79.0	-166361.0	1218.0	773712.0
23	17	34	41	667	80.0	-167854.0	1241.0	771342.0
23	17	34	41	668	81.0	-169342.0	509.0	769189.0
23	17	34	41	683	82.0	-171148.0	487.0	768674.0
23	17	34	41	684	83.0	-173164.0	406.0	767910.0
23	17	34	41	684	84.0	-174755.0	219.0	766329.0
23	17	34	41	685	85.0	-175432.0	294.0	764228.0
23	17	34	41	686	86.0	-176468.0	1046.0	762457.0
23	17	34	41	686	87.0	-177146.0	1209.0	760417.0
23	17	34	41	687	88.0	-177944.0	782.0	758244.0
23	17	34	41	688	89.0	-178414.0	975.0	755844.0
23	17	34	41	688	90.0	-178599.0	130.0	753419.0
23	17	34	41	689	91.0	-178610.0	-1269.0	752434.0
23	17	34	41	689	92.0	-177939.0	786.0	751835.0
23	17	34	41	690	93.0	-177096.0	1019.0	751903.0
23	17	34	41	690	94.0	-176055.0	603.0	751683.0
23	17	34	41	691	95.0	-175236.0	628.0	749645.0
23	17	34	41	692	96.0	-174279.0	741.0	746719.0
23	17	34	41	706	97.0	-172894.0	1096.0	745015.0
23	17	34	41	706	98.0	-171734.0	1526.0	743646.0
23	17	34	41	707	99.0	-170787.0	1246.0	741789.0
23	17	34	41	707	100.0	-169803.0	1509.0	739920.0
23	17	34	41	708	101.0	-168161.0	1051.0	738164.0
23	17	34	41	709	102.0	-166269.0	1119.0	736073.0
23	17	34	41	709	103.0	-164499.0	1644.0	734092.0
23	17	34	41	710	104.0	-163517.0	1597.0	732977.0
23	17	34	41	729	105.0	-163257.0	993.0	732907.0
23	17	34	41	730	106.0	-163008.0	478.0	732144.0
23	17	34	41	730	107.0	-162609.0	739.0	731141.0
23	17	34	41	731	108.0	-162329.0	1257.0	729523.0
23	17	34	41	731	109.0	-161733.0	1516.0	726451.0
23	17	34	41	732	110.0	-160509.0	1548.0	723902.0
23	17	34	41	733	111.0	-158716.0	1779.0	721719.0
23	17	34	41	733	112.0	-156874.0	1231.0	718906.0
23	17	34	41	734	113.0	-154807.0	1481.0	717483.0
23	17	34	41	735	114.0	-152419.0	1910.0	715662.0
23	17	34	41	735	115.0	-150043.0	1611.0	713262.0
23	17	34	41	736	116.0	-148077.0	1178.0	711656.0
23	17	34	41	736	117.0	-146834.0	1403.0	709168.0
23	17	34	41	737	118.0	-146114.0	2272.0	706237.0
23	17	34	41	738	119.0	-145706.0	1978.0	704025.0
23	17	34	41	751	120.0	-145367.0	2178.0	702593.0
23	17	34	41	775	121.0	-144909.0	1688.0	701371.0
23	17	34	41	776	122.0	-143928.0	1313.0	699903.0
23	17	34	41	777	123.0	-142834.0	1645.0	699568.0
23	17	34	41	777	124.0	-141798.0	1762.0	697638.0
23	17	34	41	778	125.0	-140616.0	1624.0	695494.0
23	17	34	41	779	126.0	-139616.0	1724.0	694338.0
23	17	34	41	779	127.0	-138512.0	1837.0	693294.0
23	17	34	41	780	128.0	-137054.0	1943.0	691542.0
23	17	34	41	781	129.0	-135658.0	1797.0	690057.0
23	17	34	41	781	130.0	-134262.0	1966.0	689220.0
23	17	34	41	782	131.0	-132144.0	1523.0	688258.0
23	17	34	41	782	132.0	-129349.0	1806.0	686493.0
23	17	34	41	783	133.0	-124776.0	1752.0	684691.0
23	17	34	41	783	134.0	-116600.0	1736.0	683286.0
23	17	34	41	784	135.0	-108129.0	1922.0	681233.0
23	17	34	41	785	136.0	-106695.0	1889.0	678563.0
23	17	34	41	785	137.0	-107293.0	1733.0	676239.0
23	17	34	41	786	138.0	-108601.0	1939.0	674325.0
23	17	34	41	786	139.0	-107054.0	2148.0	673658.0
23	17	34	41	798	140.0	-106964.0	1997.0	673185.0
23	17	34	41	799	141.0	-106019.0	1755.0	671513.0
23	17	34	41	799	142.0	-105011.0	1869.0	669875.0
23	17	34	41	800	143.0	-102511.0	2287.0	668593.0
23	17	34	41	801	144.0	-99769.0	1964.0	667055.0
23	17	34	41	801	145.0	-96961.0	1824.0	666069.0
23	17	34	41	802	146.0	-93607.0	1468.0	664438.0
23	17	34	41	802	147.0	-91887.0	2109.0	662219.0
23	17	34	41	803	148.0	-92093.0	2251.0	660692.0
23	17	34	41	803	149.0	-93906.0	1814.0	660193.0
23	17	34	41	804	150.0	-96421.0	2151.0	658948.0
23	17	34	41	821	151.0	-99382.0	1973.0	657739.0
23	17	34	41	822	152.0	-103319.0	2081.0	657018.0
23	17	34	41	823	153.0	-105626.0	1937.0	655319.0
23	17	34	41	823	154.0	-105926.0	2298.0	654414.0
23	17	34	41	824	155.0	-106972.0	2227.0	653331.0
23	17	34	41	825	156.0	-105760.0	2198.0	651429.0
23	17	34	41	825	157.0	-103651.0	2214.0	649494.0
23	17	34	41	826	158.0	-101335.0	2158.0	647822.0
23	17	34	41	826	159.0	-98142.0	2093.0	646505.0
23	17	34	41	827	160.0	-94361.0	1825.0	644990.0
23	17	34	41	828	161.0	-90800.0	1615.0	645027.0
23	17	34	41	828	162.0	-87487.0	1926.0	644451.0
23	17	34	41	829	163.0	-85979.0	1903.0	642915.0
23	17	34	41	830	164.0	-85134.0	1976.0	641412.0
23	17	34	41	846	165.0	-87518.0	2208.0	640889.0
23	17	34	41	846	166.0	-87404.0	2156.0	640109.0
23	17	34	41	847	167.0	-84979.0	2419.0	638786.0
23	17	34	41	847	168.0	-90151.0	1514.0	636607.0
23	17	34	41	848	169.0	-92957.0	1973.0	634906.0
23	17	34	41	848	170.0	-97913.0	2844.0	633294.0
23	17	34	41	849	171.0	-101941.0	2440.0	632527.0
23	17	34	41	870	172.0	-105017.0	1515.0	631693.0
23	17	34	41	870	173.0	-109177.0	1619.0	629849.0
23	17	34	41	871	174.0	-114669.0	2356.0	629071.0
23	17	34	41	871	175.0	-118687.0	2373.0	630806.0
23	17	34	41	872	176.0	-123930.0	2629.0	630328.0
23	17	34	41	872	177.0	-131242.0	2754.0	628504.0
23	17	34	41	873	178.0	-132755.0	2898.0	614918.0
23	17	34	41	873	179.0	-142036.0	2716.0	517531.0
23	17	34	41	874	180.0	-150262.0	2862.0	350585.0
23	17	34	41	875	181.0	-161224.0	2858.0	233784.0
23	17	34	41	875	182.0	-170263.0	3173.0	171902.0
23	17	34	41	876	183.0	-175911.0	3283.0	172330.0
23	17	34	41	876	184.0	-184128.0	2883.0	203194.0
23	17	34	41	877	185.0	-186689.0	2891.0	227423.0
23	17	34	41	877	186.0	-194314.0	3208.0	242310.0
23	17	34	41	893	187.0	-193029.0	3070.0	268903.0
23	17	34	41	893	188.0	-195803.0	3151.0	328931.0
23	17	34	41	894	189.0	-193561.0	3207.0	344113.0
23	17	34	41	894	190.0	-194211.0	2969.0	294939.0
23	17	34	41	895	191.0	-186789.0	2933.0	233311.0
23	17	34	41	895	192.0	-175584.0	2938.0	235767.0
23	17	34	41	896	193.0	-170317.0	3058.0	319319.0
23	17	34	41	897	194.0	-155815.0	3259.0	455359.0
23	17	34	41	897	195.0	-152416.0	3084.0	555344.0
23	17	34	41	916	196.0	-142562.0	2729.0	601755.0
23	17	34	41	917	197.0	-146507.0	3223.0	659487.0
23	17	34	41	917	198.0	-152919.0	3150.0	785128.0
23	17	34	41	918	199.0	-155041.0	3145.0	846853.0
23	17	34	41	918	200.0	-157319.0	3208.0	820567.0
23	17	34	41	919	201.0	-163884.0	3451.0	825984.0
23	17	34	41	938	202.0	-162909.0	3384.0	880794.0
23	17	34	41	939	203.0	-175868.0	3213.0	1001693.0
23	17	34	41	940	204.0	-168307.0	3266.0	1176608.0
23	17	34	41	940	205.0	-170492.0	3388.0	1331885.0
23	17	34	41	941	206.0	-175873.0	3492.0	1453122.0
23	17	34	41	941	207.0	-181772.0	3072.0	1581301.0
23	17	34	41	942	208.0	-182373.0	3059.0	1751527.0
23	17	34	41	942	209.0	-181039.0	3092.0	1825728.0
23	17	34	41	943	210.0	-196502.0	3236.0	1801146.0
23	17	34	41	943	211.0	-195127.0	3469.0	1778263.0
23	17	34	41	944	212.0	-206037.0	3593.0	1845225.0
23	17	34	41	944	213.0	-215177.0	3346.0	1991869.0
23	17	34	41	945	214.0	-217761.0	3253.0	2177072.0
23	17	34	41	946	215.0	-222834.0	3691.0	2342142.0
23	17	34	41	946	216.0	-234584.0	3675.0	2499736.0
23	17	34	41	947	217.0	-242759.0	3174.0	2680804.0
23	17	34	41	947	218.0	-261839.0	3454.0	2905631.0
23	17	34	41	948	219.0	-272021.0	3468.0	3008603.0
23	17	34	41	948	220.0	-282572.0	3356.0	3007873.0
23	17	34	41	949	221.0	-298359.0	3029.0	2987584.0
23	17	34	41	949	222.0	-307107.0	3148.0	3041039.0
23	17	34	41	961	223.0	-317142.0	3379.0	3171557.0
23	17	34	41	961	224.0	-327457.0	3563.0	3328013.0
23	17	34	41	962	225.0	-327976.0	2641.0	3452894.0
23	17	34	41	963	226.0	-335156.0	3198.0	3557052.0
23	17	34	41	963	227.0	-347332.0	2912.0	3683499.0
23	17	34	41	964	228.0	-355128.0	2376.0	3846884.0
23	17	34	41	964	229.0	-364789.0	2982.0	3875409.0
23	17	34	41	965	230.0	-374596.0	3383.0	3813016.0
23	17	34	41	965	231.0	-378114.0	3473.0	3727103.0
23	17	34	41	966	232.0	-382800.0	3152.0	3725559.0
23	17	34	41	966	233.0	-382081.0	3633.0	3804306.0
23	17	34	41	984	234.0	-382495.0	1680.0	3920943.0
23	17	34	41	985	235.0	-382587.0	-1937.0	4031776.0
23	17	34	41	985	236.0	-380114.0	-9035.0	4190458.0
23	17	34	41	986	237.0	-378241.0	-17631.0	4425556.0
23	17	34	41	987	238.0	-376462.0	-32925.0	4690529.0
23	17	34	41	987	239.0	-375939.0	-47670.0	4763575.0
23	17	34	41	988	240.0	-372088.0	-52724.0	4710991.0
23	17	34	41	988	241.0	-371061.0	-51502.0	4619076.0
23	17	34	41	989	242.0	-370198.0	-19334.0	4610959.0
23	17	34	41	990	243.0	-366543.0	981.0	4682445.0
23	17	34	41	990	244.0	-363504.0	3988.0	4788370.0
23	17	34	41	991	245.0	-361688.0	3433.0	4871766.0
23	17	34	41	991	246.0	-359631.0	3446.0	4969148.0
23	17	34	42	8	247.0	-358196.0	3501.0	5110153.0
23	17	34	42	9	248.0	-354454.0	3441.0	5259451.0
23	17	34	42	9	249.0	-352055.0	3397.0	5240711.0
23	17	34	42	10	250.0	-350024.0	3348.0	5149948.0
