23	17	35	43	205	62.0	-284379.0	-3181774.0	351706.0
23	17	35	43	208	63.0	-290016.0	-3182869.0	336343.0
23	17	35	43	210	64.0	-296286.0	-3184614.0	314425.0
23	17	35	43	212	65.0	-302933.0	-3188795.0	307863.0
23	17	35	43	214	66.0	-309026.0	-3197902.0	306144.0
23	17	35	43	216	67.0	-315671.0	-3200262.0	306703.0
23	17	35	43	218	68.0	-321905.0	-3201062.0	306793.0
23	17	35	43	220	69.0	-327822.0	-3201259.0	304269.0
23	17	35	43	222	70.0	-334173.0	-3201814.0	299749.0
23	17	35	43	223	71.0	-340452.0	-3203132.0	335716.0
23	17	35	43	224	72.0	-346044.0	-3204834.0	368048.0
23	17	35	43	224	73.0	-352737.0	-3207028.0	354213.0
23	17	35	43	225	74.0	-357284.0	-3209848.0	317244.0
23	17	35	43	226	75.0	-361651.0	-3215779.0	305249.0
23	17	35	43	227	76.0	-365030.0	-3219243.0	303047.0
23	17	35	43	228	77.0	-367445.0	-3221976.0	304236.0
23	17	35	43	237	78.0	-367876.0	-3223727.0	306327.0
23	17	35	43	238	79.0	-367936.0	-3223649.0	303393.0
23	17	35	43	238	80.0	-367032.0	-3225264.0	299825.0
23	17	35	43	239	81.0	-364684.0	-3227171.0	342098.0
23	17	35	43	240	82.0	-362157.0	-3228419.0	417510.0
23	17	35	43	240	83.0	-359473.0	-3229694.0	424760.0
23	17	35	43	241	84.0	-356295.0	-3231017.0	343702.0
23	17	35	43	266	85.0	-353138.0	-3233274.0	307711.0
23	17	35	43	307	86.0	-347368.0	-3233848.0	303952.0
23	17	35	43	308	87.0	-342662.0	-3234522.0	308616.0
23	17	35	43	308	88.0	-337667.0	-3235702.0	311068.0
23	17	35	43	309	89.0	-332815.0	-3235849.0	308180.0
23	17	35	43	309	90.0	-328072.0	-3235169.0	303234.0
23	17	35	43	310	91.0	-323078.0	-3235304.0	348229.0
23	17	35	43	311	92.0	-317680.0	-3242542.0	391364.0
23	17	35	43	312	93.0	-311655.0	-3255007.0	359909.0
23	17	35	43	312	94.0	-305627.0	-3257575.0	308281.0
23	17	35	43	313	95.0	-299816.0	-3258542.0	297163.0
23	17	35	43	313	96.0	-294247.0	-3259771.0	295583.0
23	17	35	43	314	97.0	-289429.0	-3260836.0	296363.0
23	17	35	43	315	98.0	-285167.0	-3261378.0	297029.0
23	17	35	43	315	99.0	-280835.0	-3261759.0	294369.0
23	17	35	43	316	100.0	-277161.0	-3256998.0	296321.0
23	17	35	43	316	118.0	-117156.0	-3251514.0	283868.0
23	17	35	43	317	119.0	-109861.0	-3250501.0	282931.0
23	17	35	43	318	120.0	-106874.0	-3247822.0	284055.0
23	17	35	43	318	121.0	-105496.0	-3246054.0	285070.0
23	17	35	43	319	122.0	-104769.0	-3245679.0	284811.0
23	17	35	43	320	123.0	-104604.0	-3245574.0	283827.0
23	17	35	43	320	124.0	-105092.0	-3245773.0	282738.0
23	17	35	43	352	125.0	-105367.0	-3246719.0	281890.0
23	17	35	43	397	126.0	-106306.0	-3248534.0	281499.0
23	17	35	43	397	127.0	-107725.0	-3247743.0	281036.0
23	17	35	43	398	128.0	-109533.0	-3242969.0	280804.0
23	17	35	43	398	129.0	-110373.0	-3241037.0	280128.0
23	17	35	43	399	130.0	-109548.0	-3239200.0	280005.0
23	17	35	43	399	131.0	-107383.0	-3238188.0	280186.0
23	17	35	43	400	132.0	-103881.0	-3237451.0	280024.0
23	17	35	43	401	133.0	-98952.0	-3239344.0	279682.0
23	17	35	43	442	134.0	-92735.0	-3246662.0	279170.0
23	17	35	43	443	135.0	-86364.0	-3249978.0	278861.0
23	17	35	43	444	136.0	-79755.0	-3250884.0	278366.0
23	17	35	43	444	137.0	-73054.0	-3253017.0	277922.0
23	17	35	43	445	138.0	-66813.0	-3253247.0	277316.0
23	17	35	43	445	139.0	-60755.0	-3252409.0	276790.0
23	17	35	43	446	141.0	-49519.0	-3251417.0	276388.0
23	17	35	43	446	163.0	316.0	-3261436.0	270338.0
23	17	35	43	447	164.0	1759.0	-3263042.0	270231.0
23	17	35	43	447	165.0	3109.0	-3263761.0	270016.0
23	17	35	43	448	166.0	4326.0	-3264356.0	269689.0
23	17	35	43	448	167.0	5814.0	-3269539.0	269139.0
23	17	35	43	449	168.0	6874.0	-3279967.0	268888.0
23	17	35	43	487	169.0	8103.0	-3281100.0	268288.0
23	17	35	43	487	170.0	10282.0	-3282110.0	268085.0
23	17	35	43	488	186.0	56799.0	-3293287.0	264311.0
23	17	35	43	532	187.0	59048.0	-3293088.0	263786.0
23	17	35	43	532	188.0	60518.0	-3292829.0	263460.0
23	17	35	43	533	189.0	62286.0	-3291803.0	262884.0
23	17	35	43	533	190.0	64019.0	-3290479.0	262445.0
23	17	35	43	534	191.0	65223.0	-3289649.0	262507.0
23	17	35	43	535	192.0	65708.0	-3291359.0	262581.0
23	17	35	43	535	193.0	66162.0	-3293930.0	262427.0
23	17	35	43	536	194.0	65469.0	-3295411.0	262712.0
23	17	35	43	536	195.0	63796.0	-3296633.0	262678.0
23	17	35	43	537	196.0	59728.0	-3297163.0	262000.0
23	17	35	43	538	197.0	55803.0	-3296600.0	261524.0
23	17	35	43	539	198.0	47993.0	-3296331.0	261183.0
23	17	35	43	539	199.0	35768.0	-3295392.0	260619.0
23	17	35	43	540	209.0	-437908.0	-3296959.0	257796.0
23	17	35	43	540	210.0	-447981.0	-3295370.0	257336.0
23	17	35	43	541	231.0	-299416.0	-3275024.0	270900.0
23	17	35	43	542	232.0	-295480.0	-3272952.0	272663.0
23	17	35	43	542	233.0	-290706.0	-3270132.0	275051.0
23	17	35	43	543	234.0	-288583.0	-3266415.0	278081.0
23	17	35	43	543	235.0	-286224.0	-3262322.0	279804.0
23	17	35	43	544	236.0	-283869.0	-3259602.0	279693.0
23	17	35	43	577	237.0	-282096.0	-3258065.0	279846.0
23	17	35	43	578	238.0	-278296.0	-3257021.0	279139.0
23	17	35	43	578	239.0	-276409.0	-3256827.0	278581.0
23	17	35	43	579	240.0	-274041.0	-3256553.0	278073.0
23	17	35	43	579	241.0	-271629.0	-3255393.0	279502.0
23	17	35	43	580	242.0	-268082.0	-3253165.0	281311.0
23	17	35	43	581	243.0	-266613.0	-3250001.0	283999.0
23	17	35	43	581	244.0	-262448.0	-3247533.0	285413.0
23	17	35	43	582	245.0	-260232.0	-3245484.0	285689.0
23	17	35	43	582	246.0	-257910.0	-3243971.0	285831.0
23	17	35	43	583	247.0	-255555.0	-3243332.0	285903.0
23	17	35	43	583	248.0	-254096.0	-3243585.0	285291.0
23	17	35	43	584	249.0	-253096.0	-3244654.0	284345.0
23	17	35	43	584	250.0	-253029.0	-3245982.0	283431.0
23	17	35	43	585	251.0	-253393.0	-3244742.0	283778.0
23	17	35	43	585	253.0	-252867.0	-3233618.0	286322.0
23	17	35	43	586	254.0	-250164.0	-3231541.0	288628.0
23	17	35	43	586	255.0	-249346.0	-3230026.0	290544.0
23	17	35	43	587	0.0	-247544.0	-3228841.0	290631.0
23	17	35	43	587	1.0	-244416.0	-3223632.0	290250.0
23	17	35	43	588	2.0	-243358.0	-3222084.0	289709.0
23	17	35	43	588	3.0	-241647.0	-3223311.0	288504.0
23	17	35	43	623	4.0	-240241.0	-3225808.0	287291.0
23	17	35	43	623	5.0	-238691.0	-3226607.0	287007.0
23	17	35	43	624	6.0	-236737.0	-3226369.0	288876.0
23	17	35	43	625	7.0	-234420.0	-3225573.0	291299.0
23	17	35	43	625	8.0	-230979.0	-3224746.0	292487.0
23	17	35	43	626	9.0	-228411.0	-3224790.0	292555.0
23	17	35	43	626	10.0	-225510.0	-3222245.0	292821.0
23	17	35	43	627	11.0	-223351.0	-3220039.0	292401.0
23	17	35	43	627	12.0	-221285.0	-3220937.0	291498.0
23	17	35	43	628	13.0	-219924.0	-3223021.0	290376.0
23	17	35	43	628	14.0	-218576.0	-3226271.0	289278.0
23	17	35	43	629	15.0	-217954.0	-3228251.0	289658.0
23	17	35	43	629	16.0	-217818.0	-3227508.0	290009.0
23	17	35	43	630	17.0	-218111.0	-3223409.0	291745.0
23	17	35	43	631	18.0	-218434.0	-3221068.0	293582.0
23	17	35	43	631	20.0	-219869.0	-3220807.0	294693.0
23	17	35	43	632	21.0	-220594.0	-3221230.0	294341.0
23	17	35	43	632	22.0	-221499.0	-3222511.0	293504.0
23	17	35	43	633	23.0	-222182.0	-3225456.0	291811.0
23	17	35	43	633	24.0	-222567.0	-3229540.0	290613.0
23	17	35	43	634	25.0	-223489.0	-3241819.0	289831.0
23	17	35	43	666	26.0	-224676.0	-3247287.0	292365.0
23	17	35	43	667	27.0	-225079.0	-3244567.0	293531.0
23	17	35	43	667	28.0	-226567.0	-3243611.0	295423.0
23	17	35	43	668	29.0	-226871.0	-3244209.0	294904.0
23	17	35	43	668	30.0	-227611.0	-3244217.0	294109.0
23	17	35	43	669	31.0	-228076.0	-3243231.0	293964.0
23	17	35	43	669	32.0	-228411.0	-3239845.0	293026.0
23	17	35	43	670	33.0	-229157.0	-3241242.0	292363.0
23	17	35	43	671	34.0	-230248.0	-3243133.0	290998.0
23	17	35	43	672	35.0	-231298.0	-3243672.0	291732.0
23	17	35	43	672	36.0	-232597.0	-3242557.0	291569.0
23	17	35	43	673	37.0	-233908.0	-3240411.0	294602.0
23	17	35	43	674	38.0	-234702.0	-3239220.0	295061.0
23	17	35	43	674	39.0	-234989.0	-3238742.0	295177.0
23	17	35	43	675	40.0	-234711.0	-3235533.0	295283.0
23	17	35	43	712	42.0	-231947.0	-3222238.0	293683.0
23	17	35	43	713	43.0	-229569.0	-3223956.0	292667.0
23	17	35	43	714	44.0	-227171.0	-3225047.0	291503.0
23	17	35	43	714	45.0	-224856.0	-3226449.0	291681.0
23	17	35	43	715	46.0	-222293.0	-3229752.0	293388.0
23	17	35	43	715	47.0	-219336.0	-3227007.0	294965.0
23	17	35	43	716	48.0	-216593.0	-3224670.0	295796.0
23	17	35	43	717	49.0	-214770.0	-3224299.0	295928.0
23	17	35	43	717	50.0	-213291.0	-3224508.0	295134.0
23	17	35	43	718	51.0	-212536.0	-3224218.0	294356.0
23	17	35	43	718	52.0	-212234.0	-3224321.0	293529.0
23	17	35	43	719	53.0	-212039.0	-3226287.0	291066.0
23	17	35	43	719	54.0	-211465.0	-3228747.0	290423.0
23	17	35	43	720	55.0	-210566.0	-3228698.0	290263.0
23	17	35	43	721	56.0	-210009.0	-3223204.0	293340.0
23	17	35	43	722	65.0	-213289.0	-3229195.0	288594.0
23	17	35	43	722	66.0	-213552.0	-3227479.0	291769.0
23	17	35	43	723	67.0	-213424.0	-3225941.0	291020.0
23	17	35	43	723	68.0	-212926.0	-3225261.0	291945.0
23	17	35	43	724	69.0	-212156.0	-3225031.0	292543.0
23	17	35	43	724	70.0	-211304.0	-3224896.0	291799.0
23	17	35	43	756	71.0	-210657.0	-3224430.0	290794.0
23	17	35	43	802	72.0	-210177.0	-3225229.0	290761.0
23	17	35	43	803	73.0	-209929.0	-3227269.0	288861.0
23	17	35	43	804	74.0	-210342.0	-3228531.0	289036.0
23	17	35	43	806	75.0	-211391.0	-3227493.0	288598.0
23	17	35	43	806	76.0	-212912.0	-3225762.0	290921.0
23	17	35	43	807	77.0	-215063.0	-3221794.0	291431.0
23	17	35	43	807	78.0	-217077.0	-3219591.0	292211.0
23	17	35	43	808	79.0	-218734.0	-3218891.0	291875.0
23	17	35	43	808	80.0	-219976.0	-3218354.0	291966.0
23	17	35	43	809	81.0	-220927.0	-3218118.0	291248.0
23	17	35	43	810	82.0	-221502.0	-3218751.0	290251.0
23	17	35	43	810	83.0	-222025.0	-3220924.0	288806.0
23	17	35	43	811	84.0	-223286.0	-3231509.0	289135.0
23	17	35	43	811	85.0	-224047.0	-3238759.0	288389.0
23	17	35	43	812	87.0	-225882.0	-3234308.0	291783.0
23	17	35	43	812	88.0	-226264.0	-3232583.0	292694.0
23	17	35	43	813	110.0	-183251.0	-3233387.0	290159.0
23	17	35	43	814	111.0	-184807.0	-3235464.0	289724.0
23	17	35	43	814	112.0	-186989.0	-3236818.0	288768.0
23	17	35	43	815	113.0	-190363.0	-3239129.0	287094.0
23	17	35	43	815	114.0	-192457.0	-3240496.0	285753.0
23	17	35	43	816	115.0	-194827.0	-3240343.0	288819.0
23	17	35	43	847	116.0	-197001.0	-3237505.0	290284.0
23	17	35	43	848	117.0	-198401.0	-3230822.0	293558.0
23	17	35	43	848	118.0	-199435.0	-3228656.0	295167.0
23	17	35	43	849	119.0	-199412.0	-3227546.0	294338.0
23	17	35	43	849	120.0	-199747.0	-3226804.0	291819.0
23	17	35	43	850	121.0	-200292.0	-3225957.0	289411.0
23	17	35	43	851	122.0	-200587.0	-3225766.0	286495.0
23	17	35	43	851	123.0	-201204.0	-3226478.0	282724.0
23	17	35	43	852	124.0	-201475.0	-3226028.0	277625.0
23	17	35	43	852	125.0	-202950.0	-3222962.0	274662.0
23	17	35	43	853	126.0	-204391.0	-3220569.0	270666.0
23	17	35	43	853	127.0	-205462.0	-3218939.0	266820.0
23	17	35	43	854	128.0	-206254.0	-3218595.0	261283.0
23	17	35	43	854	129.0	-205843.0	-3218767.0	257036.0
23	17	35	43	855	130.0	-204864.0	-3219085.0	252263.0
23	17	35	43	856	132.0	-199231.0	-3221676.0	238098.0
23	17	35	43	856	133.0	-193244.0	-3223744.0	232058.0
23	17	35	43	857	134.0	-185692.0	-3223176.0	230783.0
23	17	35	43	858	135.0	-176497.0	-3220499.0	235688.0
23	17	35	43	858	136.0	-167179.0	-3218156.0	240003.0
23	17	35	43	859	137.0	-158697.0	-3216626.0	248449.0
23	17	35	43	892	138.0	-151762.0	-3215391.0	257245.0
23	17	35	43	892	139.0	-147696.0	-3215222.0	266812.0
23	17	35	43	893	140.0	-145679.0	-3215518.0	272654.0
23	17	35	43	894	141.0	-146401.0	-3215914.0	275032.0
23	17	35	43	894	142.0	-147166.0	-3218336.0	277418.0
23	17	35	43	895	143.0	-143084.0	-3220796.0	279880.0
23	17	35	43	895	144.0	-130202.0	-3221463.0	283438.0
23	17	35	43	896	145.0	-112185.0	-3220501.0	285411.0
23	17	35	43	896	146.0	-93436.0	-3218552.0	286287.0
23	17	35	43	897	147.0	-88259.0	-3217916.0	286009.0
23	17	35	43	897	148.0	-106120.0	-3224066.0	285374.0
23	17	35	43	898	149.0	-133761.0	-3227154.0	284816.0
23	17	35	43	899	150.0	-164761.0	-3226162.0	283801.0
23	17	35	43	899	151.0	-191564.0	-3224946.0	283404.0
23	17	35	43	900	152.0	-214527.0	-3224193.0	282097.0
23	17	35	43	900	154.0	-249612.0	-3224424.0	280287.0
23	17	35	43	901	155.0	-256700.0	-3221967.0	282178.0
23	17	35	43	901	156.0	-259818.0	-3216146.0	282375.0
23	17	35	43	902	157.0	-264893.0	-3214955.0	284549.0
23	17	35	43	902	158.0	-271328.0	-3215380.0	284741.0
23	17	35	43	903	159.0	-274434.0	-3215892.0	285087.0
23	17	35	43	904	160.0	-270243.0	-3215348.0	284689.0
23	17	35	43	937	161.0	-259047.0	-3217569.0	284168.0
23	17	35	43	938	162.0	-243848.0	-3226589.0	282519.0
23	17	35	43	938	163.0	-227209.0	-3229567.0	281404.0
23	17	35	43	939	164.0	-208506.0	-3230167.0	280272.0
23	17	35	43	940	165.0	-192723.0	-3227730.0	282497.0
23	17	35	43	940	166.0	-179209.0	-3226054.0	283084.0
23	17	35	43	941	167.0	-169311.0	-3224749.0	284699.0
23	17	35	43	941	168.0	-164496.0	-3223969.0	284313.0
23	17	35	43	942	169.0	-163351.0	-3225487.0	283149.0
23	17	35	43	943	170.0	-165496.0	-3230541.0	282834.0
23	17	35	43	943	171.0	-167257.0	-3230612.0	282222.0
23	17	35	43	944	172.0	-168597.0	-3230801.0	280259.0
23	17	35	43	945	173.0	-169637.0	-3231530.0	279169.0
23	17	35	43	945	174.0	-170126.0	-3230434.0	278458.0
23	17	35	43	946	175.0	-169649.0	-3228405.0	280189.0
23	17	35	43	946	177.0	-162583.0	-3223458.0	281597.0
23	17	35	43	947	178.0	-158086.0	-3221525.0	281911.0
23	17	35	43	948	179.0	-154254.0	-3220966.0	281703.0
23	17	35	43	948	180.0	-151829.0	-3222685.0	280769.0
23	17	35	43	949	181.0	-152509.0	-3223724.0	280463.0
23	17	35	43	949	182.0	-155882.0	-3224704.0	278701.0
23	17	35	43	982	183.0	-161791.0	-3226336.0	277260.0
23	17	35	43	982	184.0	-168072.0	-3226647.0	277416.0
23	17	35	43	983	185.0	-175359.0	-3224374.0	278423.0
23	17	35	43	983	186.0	-181991.0	-3218670.0	279558.0
23	17	35	43	984	187.0	-188243.0	-3215894.0	280969.0
23	17	35	43	985	188.0	-193247.0	-3214040.0	280073.0
23	17	35	43	985	189.0	-196180.0	-3213811.0	279019.0
23	17	35	43	986	190.0	-198569.0	-3214621.0	278506.0
23	17	35	43	986	191.0	-200193.0	-3215353.0	277609.0
23	17	35	43	987	192.0	-201572.0	-3216905.0	276184.0
23	17	35	43	988	193.0	-203389.0	-3218836.0	274884.0
23	17	35	43	989	194.0	-205508.0	-3219406.0	274109.0
23	17	35	43	990	195.0	-206817.0	-3219766.0	275576.0
23	17	35	43	990	196.0	-208291.0	-3217696.0	275772.0
23	17	35	43	991	197.0	-210166.0	-3213399.0	276097.0
23	17	35	43	991	199.0	-211496.0	-3218742.0	275066.0
23	17	35	43	992	200.0	-212129.0	-3220734.0	273272.0
23	17	35	43	992	201.0	-213121.0	-3220859.0	272265.0
23	17	35	43	993	202.0	-214561.0	-3223622.0	270684.0
23	17	35	43	993	203.0	-214924.0	-3230252.0	268511.0
23	17	35	43	994	204.0	-213895.0	-3244904.0	267111.0
23	17	35	44	26	205.0	-212932.0	-3249492.0	266121.0
23	17	35	44	27	206.0	-211522.0	-3252639.0	265431.0
23	17	35	44	28	207.0	-209938.0	-3256144.0	264093.0
23	17	35	44	28	208.0	-208049.0	-3260421.0	262099.0
23	17	35	44	29	209.0	-206426.0	-3265987.0	259388.0
23	17	35	44	29	210.0	-204847.0	-3271864.0	256818.0
23	17	35	44	30	211.0	-202366.0	-3278847.0	254237.0
23	17	35	44	31	212.0	-197969.0	-3285335.0	251194.0
23	17	35	44	31	213.0	-192826.0	-3290714.0	248116.0
23	17	35	44	32	214.0	-188398.0	-3295424.0	246315.0
23	17	35	44	47	215.0	-184686.0	-3298947.0	245444.0
23	17	35	44	48	216.0	-181781.0	-3301266.0	244802.0
23	17	35	44	49	217.0	-179748.0	-3305297.0	243414.0
23	17	35	44	49	218.0	-178307.0	-3309964.0	241376.0
23	17	35	44	50	219.0	-176369.0	-3313586.0	238765.0
23	17	35	44	50	220.0	-174661.0	-3317134.0	236665.0
23	17	35	44	51	222.0	-173934.0	-3323527.0	233238.0
23	17	35	44	51	223.0	-174388.0	-3326376.0	231163.0
23	17	35	44	52	224.0	-175087.0	-3323770.0	230107.0
23	17	35	44	52	225.0	-176208.0	-3318736.0	230150.0
23	17	35	44	53	226.0	-177416.0	-3320009.0	230370.0
23	17	35	44	53	227.0	-178848.0	-3322359.0	229939.0
23	17	35	44	54	228.0	-180634.0	-3324645.0	228864.0
23	17	35	44	71	229.0	-182426.0	-3326541.0	227738.0
23	17	35	44	72	230.0	-184196.0	-3333850.0	226824.0
23	17	35	44	72	231.0	-185623.0	-3346663.0	225844.0
23	17	35	44	73	232.0	-186730.0	-3349202.0	224338.0
23	17	35	44	74	233.0	-188519.0	-3351576.0	222754.0
23	17	35	44	74	234.0	-190598.0	-3359448.0	222221.0
23	17	35	44	117	235.0	-192176.0	-3363441.0	222491.0
23	17	35	44	117	236.0	-193237.0	-3352982.0	222797.0
23	17	35	44	118	237.0	-193959.0	-3348124.0	222769.0
23	17	35	44	119	238.0	-194385.0	-3350051.0	222182.0
23	17	35	44	119	239.0	-194924.0	-3351205.0	221276.0
23	17	35	44	120	240.0	-195846.0	-3351666.0	220733.0
23	17	35	44	120	241.0	-197121.0	-3353197.0	219879.0
23	17	35	44	121	242.0	-198809.0	-3357585.0	218655.0
23	17	35	44	122	243.0	-199891.0	-3357314.0	217853.0
23	17	35	44	123	244.0	-201040.0	-3355405.0	217521.0
23	17	35	44	124	245.0	-201814.0	-3355557.0	217675.0
23	17	35	44	124	246.0	-202395.0	-3356024.0	218165.0
23	17	35	44	125	247.0	-202196.0	-3355926.0	218174.0
23	17	35	44	126	248.0	-201429.0	-3362228.0	217592.0
23	17	35	44	127	249.0	-200109.0	-3368974.0	216888.0
23	17	35	44	127	11.0	-193662.0	-3349287.0	210260.0
23	17	35	44	128	12.0	-194019.0	-3350654.0	209115.0
23	17	35	44	128	13.0	-194318.0	-3352077.0	207874.0
23	17	35	44	129	14.0	-194167.0	-3353030.0	207190.0
23	17	35	44	129	15.0	-195041.0	-3353509.0	206079.0
23	17	35	44	130	16.0	-196037.0	-3353321.0	204714.0
23	17	35	44	161	17.0	-197176.0	-3353263.0	204465.0
23	17	35	44	162	18.0	-198038.0	-3354676.0	204801.0
23	17	35	44	163	19.0	-198791.0	-3356382.0	205754.0
23	17	35	44	163	20.0	-199508.0	-3357913.0	206049.0
23	17	35	44	164	21.0	-199757.0	-3358721.0	205161.0
23	17	35	44	165	22.0	-200909.0	-3359737.0	204026.0
23	17	35	44	165	23.0	-202389.0	-3363075.0	203449.0
23	17	35	44	166	24.0	-203086.0	-3364711.0	202773.0
23	17	35	44	166	25.0	-204484.0	-3363979.0	201299.0
23	17	35	44	167	26.0	-207101.0	-3363775.0	200201.0
23	17	35	44	167	27.0	-211054.0	-3364741.0	200203.0
23	17	35	44	168	28.0	-214384.0	-3366128.0	200979.0
23	17	35	44	169	29.0	-219049.0	-3366987.0	202110.0
23	17	35	44	169	30.0	-223452.0	-3367509.0	202389.0
23	17	35	44	170	31.0	-228540.0	-3369247.0	201597.0
23	17	35	44	170	33.0	-241772.0	-3372434.0	199717.0
23	17	35	44	171	34.0	-246516.0	-3374989.0	198939.0
23	17	35	44	172	35.0	-251661.0	-3376934.0	197740.0
23	17	35	44	172	36.0	-252962.0	-3375937.0	196739.0
23	17	35	44	173	37.0	-254475.0	-3375805.0	196753.0
23	17	35	44	181	38.0	-257192.0	-3376148.0	197229.0
23	17	35	44	207	39.0	-262769.0	-3377138.0	198304.0
23	17	35	44	208	40.0	-266611.0	-3375646.0	198359.0
23	17	35	44	208	41.0	-268512.0	-3373298.0	197655.0
23	17	35	44	209	42.0	-272717.0	-3374616.0	196926.0
23	17	35	44	210	43.0	-274970.0	-3375513.0	196212.0
23	17	35	44	210	44.0	-276233.0	-3376458.0	195636.0
23	17	35	44	211	45.0	-276694.0	-3376852.0	194666.0
23	17	35	44	211	46.0	-275714.0	-3376444.0	194652.0
23	17	35	44	212	47.0	-274417.0	-3376339.0	194614.0
23	17	35	44	213	48.0	-273609.0	-3377632.0	195377.0
23	17	35	44	213	49.0	-276317.0	-3379136.0	196425.0
23	17	35	44	214	50.0	-280352.0	-3379966.0	196814.0
23	17	35	44	214	51.0	-285481.0	-3381101.0	196548.0
23	17	35	44	215	52.0	-288856.0	-3382116.0	196288.0
23	17	35	44	216	53.0	-293966.0	-3383025.0	196006.0
23	17	35	44	216	55.0	-301721.0	-3381292.0	194561.0
23	17	35	44	217	56.0	-307131.0	-3379307.0	194093.0
23	17	35	44	217	57.0	-313996.0	-3376922.0	194633.0
23	17	35	44	218	58.0	-321268.0	-3372417.0	195459.0
23	17	35	44	219	59.0	-328564.0	-3371498.0	196058.0
23	17	35	44	219	60.0	-338123.0	-3371949.0	195835.0
23	17	35	44	220	61.0	-347339.0	-3372386.0	195215.0
23	17	35	44	251	62.0	-356035.0	-3373216.0	194424.0
23	17	35	44	252	63.0	-364036.0	-3374312.0	193715.0
23	17	35	44	252	64.0	-370958.0	-3374641.0	192838.0
23	17	35	44	253	65.0	-375171.0	-3372681.0	191838.0
23	17	35	44	254	66.0	-377702.0	-3370252.0	191194.0
23	17	35	44	254	67.0	-380107.0	-3369739.0	191106.0
23	17	35	44	255	68.0	-380123.0	-3370282.0	191602.0
23	17	35	44	256	69.0	-380621.0	-3370785.0	191809.0
23	17	35	44	256	70.0	-380577.0	-3370979.0	191486.0
23	17	35	44	257	71.0	-381013.0	-3370761.0	190968.0
23	17	35	44	257	72.0	-380682.0	-3370846.0	190356.0
23	17	35	44	297	73.0	-383849.0	-3371014.0	189659.0
23	17	35	44	297	74.0	-384675.0	-3370947.0	188958.0
23	17	35	44	298	75.0	-387134.0	-3369749.0	188106.0
23	17	35	44	299	76.0	-390781.0	-3368811.0	187292.0
23	17	35	44	299	78.0	-397045.0	-3368786.0	187598.0
23	17	35	44	300	79.0	-401748.0	-3370092.0	188099.0
23	17	35	44	301	80.0	-406816.0	-3371031.0	187871.0
23	17	35	44	301	81.0	-415864.0	-3375007.0	187383.0
23	17	35	44	302	82.0	-422203.0	-3385120.0	187114.0
23	17	35	44	302	83.0	-428186.0	-3387370.0	186993.0
23	17	35	44	303	84.0	-437954.0	-3389150.0	186370.0
23	17	35	44	304	85.0	-444064.0	-3389223.0	185789.0
23	17	35	44	304	86.0	-447131.0	-3384624.0	185216.0
23	17	35	44	305	87.0	-454485.0	-3383236.0	185238.0
23	17	35	44	305	88.0	-456289.0	-3387538.0	185714.0
23	17	35	44	306	100.0	-439744.0	-3388015.0	185393.0
23	17	35	44	307	101.0	-432640.0	-3385649.0	185389.0
23	17	35	44	307	102.0	-422781.0	-3385044.0	185174.0
23	17	35	44	316	103.0	-411085.0	-3387127.0	184826.0
23	17	35	44	316	104.0	-401052.0	-3391556.0	184635.0
23	17	35	44	317	105.0	-390491.0	-3390480.0	184858.0
23	17	35	44	317	106.0	-383414.0	-3388418.0	184795.0
23	17	35	44	342	107.0	-376369.0	-3387615.0	184961.0
23	17	35	44	343	108.0	-370690.0	-3388570.0	184965.0
23	17	35	44	343	109.0	-363580.0	-3390107.0	184728.0
23	17	35	44	344	110.0	-354827.0	-3389353.0	184614.0
23	17	35	44	344	111.0	-346343.0	-3389036.0	184561.0
23	17	35	44	345	112.0	-337861.0	-3389371.0	184336.0
23	17	35	44	346	113.0	-328946.0	-3389441.0	184286.0
23	17	35	44	346	114.0	-319693.0	-3388880.0	183580.0
23	17	35	44	347	115.0	-309904.0	-3387671.0	182949.0
23	17	35	44	348	116.0	-299974.0	-3386479.0	182813.0
23	17	35	44	348	117.0	-291881.0	-3385323.0	182816.0
23	17	35	44	349	118.0	-283267.0	-3385519.0	183147.0
23	17	35	44	350	119.0	-276594.0	-3387230.0	183238.0
23	17	35	44	350	120.0	-269203.0	-3387618.0	183434.0
23	17	35	44	351	121.0	-260931.0	-3387807.0	183213.0
23	17	35	44	351	123.0	-242303.0	-3386752.0	183144.0
23	17	35	44	352	124.0	-234562.0	-3385602.0	182744.0
23	17	35	44	353	125.0	-228428.0	-3384252.0	182739.0
23	17	35	44	353	126.0	-219890.0	-3383372.0	182756.0
23	17	35	44	354	127.0	-211392.0	-3384216.0	182716.0
23	17	35	44	355	128.0	-201458.0	-3386899.0	183195.0
23	17	35	44	386	129.0	-192646.0	-3388476.0	183327.0
23	17	35	44	387	130.0	-183952.0	-3389736.0	182907.0
23	17	35	44	388	131.0	-177827.0	-3390778.0	182760.0
23	17	35	44	388	132.0	-171953.0	-3390936.0	182508.0
23	17	35	44	389	133.0	-167481.0	-3390735.0	182616.0
23	17	35	44	390	134.0	-163886.0	-3389906.0	182639.0
23	17	35	44	390	135.0	-161451.0	-3388032.0	182119.0
23	17	35	44	391	136.0	-158310.0	-3386020.0	181721.0
23	17	35	44	391	137.0	-155957.0	-3384232.0	181671.0
23	17	35	44	392	138.0	-153547.0	-3377349.0	181955.0
23	17	35	44	432	139.0	-150750.0	-3375679.0	182034.0
23	17	35	44	433	140.0	-146513.0	-3378561.0	181776.0
23	17	35	44	434	141.0	-142191.0	-3379469.0	181481.0
23	17	35	44	434	142.0	-138241.0	-3379246.0	181405.0
23	17	35	44	435	143.0	-134728.0	-3378596.0	181071.0
23	17	35	44	436	145.0	-131097.0	-3375299.0	180658.0
23	17	35	44	436	146.0	-132268.0	-3373872.0	180530.0
23	17	35	44	437	147.0	-134678.0	-3373275.0	180691.0
23	17	35	44	438	148.0	-138056.0	-3371176.0	181223.0
23	17	35	44	438	149.0	-141337.0	-3371198.0	181197.0
23	17	35	44	439	150.0	-143248.0	-3372305.0	181306.0
23	17	35	44	440	151.0	-144664.0	-3372727.0	181328.0
23	17	35	44	440	152.0	-145321.0	-3372081.0	181103.0
23	17	35	44	441	153.0	-144602.0	-3371446.0	180956.0
23	17	35	44	442	154.0	-143367.0	-3371787.0	180906.0
23	17	35	44	442	168.0	-114527.0	-3370407.0	179912.0
23	17	35	44	443	169.0	-111910.0	-3370881.0	179818.0
23	17	35	44	443	170.0	-108652.0	-3371115.0	179597.0
23	17	35	44	444	171.0	-104802.0	-3370626.0	179459.0
23	17	35	44	444	172.0	-100852.0	-3370172.0	179294.0
23	17	35	44	445	173.0	-97079.0	-3368699.0	179201.0
23	17	35	44	478	174.0	-94439.0	-3366683.0	179204.0
23	17	35	44	478	175.0	-93163.0	-3364263.0	179013.0
23	17	35	44	479	176.0	-92949.0	-3362204.0	178930.0
23	17	35	44	480	177.0	-93571.0	-3361541.0	178646.0
23	17	35	44	480	178.0	-95451.0	-3363047.0	178951.0
23	17	35	44	481	179.0	-98484.0	-3363718.0	178831.0
23	17	35	44	482	180.0	-102986.0	-3363465.0	178828.0
23	17	35	44	482	181.0	-109194.0	-3362886.0	178702.0
23	17	35	44	483	182.0	-116129.0	-3363170.0	178584.0
23	17	35	44	484	183.0	-122992.0	-3370539.0	178628.0
23	17	35	44	484	184.0	-129824.0	-3374542.0	178239.0
23	17	35	44	485	185.0	-136350.0	-3370859.0	177658.0
23	17	35	44	485	186.0	-142256.0	-3368846.0	177364.0
23	17	35	44	486	187.0	-146858.0	-3368903.0	177869.0
23	17	35	44	487	188.0	-150214.0	-3370331.0	178247.0
23	17	35	44	488	190.0	-155914.0	-3371432.0	178283.0
23	17	35	44	488	191.0	-158425.0	-3370796.0	178078.0
23	17	35	44	489	192.0	-160271.0	-3369982.0	177658.0
23	17	35	44	490	193.0	-162462.0	-3370462.0	177373.0
23	17	35	44	491	194.0	-164527.0	-3371076.0	177239.0
23	17	35	44	491	195.0	-165864.0	-3368867.0	177119.0
23	17	35	44	492	196.0	-166441.0	-3367538.0	177074.0
23	17	35	44	522	197.0	-166486.0	-3368817.0	177298.0
23	17	35	44	523	198.0	-165758.0	-3370702.0	177451.0
23	17	35	44	524	199.0	-164333.0	-3372205.0	176939.0
23	17	35	44	524	200.0	-162640.0	-3373419.0	176726.0
23	17	35	44	525	201.0	-160682.0	-3374735.0	176825.0
23	17	35	44	526	202.0	-157991.0	-3375122.0	176581.0
23	17	35	44	526	203.0	-155346.0	-3373757.0	176261.0
23	17	35	44	527	204.0	-152607.0	-3372284.0	175848.0
23	17	35	44	528	205.0	-149336.0	-3371784.0	175758.0
23	17	35	44	528	206.0	-146149.0	-3370163.0	175763.0
23	17	35	44	529	207.0	-143224.0	-3368707.0	175910.0
23	17	35	44	530	208.0	-140250.0	-3367869.0	176138.0
23	17	35	44	531	209.0	-137463.0	-3366116.0	176239.0
23	17	35	44	531	210.0	-135939.0	-3366714.0	176160.0
23	17	35	44	532	211.0	-135370.0	-3366406.0	175777.0
23	17	35	44	533	213.0	-135864.0	-3363065.0	175221.0
23	17	35	44	533	214.0	-136951.0	-3363656.0	175226.0
23	17	35	44	534	215.0	-137902.0	-3375878.0	175153.0
23	17	35	44	534	216.0	-138182.0	-3378745.0	174851.0
23	17	35	44	535	217.0	-138207.0	-3376799.0	174431.0
23	17	35	44	536	218.0	-138362.0	-3374413.0	174435.0
23	17	35	44	567	219.0	-139097.0	-3372000.0	174719.0
23	17	35	44	612	220.0	-139915.0	-3371559.0	174578.0
23	17	35	44	613	221.0	-141889.0	-3375837.0	174334.0
23	17	35	44	614	222.0	-143946.0	-3374896.0	174064.0
23	17	35	44	614	223.0	-145779.0	-3371787.0	173759.0
23	17	35	44	615	224.0	-148979.0	-3367450.0	173662.0
23	17	35	44	616	225.0	-152501.0	-3361340.0	173484.0
23	17	35	44	616	226.0	-155844.0	-3357647.0	173271.0
23	17	35	44	617	227.0	-158849.0	-3354792.0	173269.0
23	17	35	44	618	228.0	-161744.0	-3353551.0	173305.0
23	17	35	44	618	229.0	-164062.0	-3352900.0	173597.0
23	17	35	44	619	230.0	-165398.0	-3350194.0	173319.0
23	17	35	44	620	231.0	-167419.0	-3348327.0	172915.0
23	17	35	44	620	232.0	-168854.0	-3355389.0	172754.0
23	17	35	44	621	233.0	-171084.0	-3358797.0	172820.0
23	17	35	44	621	235.0	-176140.0	-3348509.0	172206.0
23	17	35	44	622	2.0	-177989.0	-3328408.0	171317.0
23	17	35	44	623	3.0	-179459.0	-3329465.0	171651.0
23	17	35	44	624	4.0	-182755.0	-3330027.0	171836.0
23	17	35	44	625	5.0	-185492.0	-3330469.0	171421.0
23	17	35	44	626	6.0	-190459.0	-3325732.0	170980.0
23	17	35	44	626	7.0	-194554.0	-3322716.0	170629.0
23	17	35	44	656	8.0	-198976.0	-3322804.0	170239.0
23	17	35	44	657	9.0	-202832.0	-3323111.0	170189.0
23	17	35	44	657	10.0	-205852.0	-3324472.0	169793.0
23	17	35	44	658	11.0	-208030.0	-3326157.0	169914.0
23	17	35	44	659	12.0	-209662.0	-3328410.0	170139.0
23	17	35	44	659	13.0	-210296.0	-3330541.0	169917.0
23	17	35	44	660	14.0	-210071.0	-3331456.0	169809.0
23	17	35	44	661	15.0	-209274.0	-3332106.0	169833.0
23	17	35	44	662	16.0	-207345.0	-3332827.0	169452.0
23	17	35	44	662	17.0	-204386.0	-3333734.0	169153.0
23	17	35	44	663	18.0	-201141.0	-3333742.0	168948.0
23	17	35	44	664	19.0	-197929.0	-3334639.0	169018.0
23	17	35	44	664	20.0	-194866.0	-3336320.0	169636.0
23	17	35	44	665	21.0	-191574.0	-3338521.0	169725.0
23	17	35	44	666	22.0	-188446.0	-3340802.0	169646.0
23	17	35	44	666	24.0	-180790.0	-3344791.0	169131.0
23	17	35	44	667	25.0	-176449.0	-3345542.0	168806.0
23	17	35	44	668	26.0	-172204.0	-3345597.0	168283.0
23	17	35	44	668	27.0	-168161.0	-3345280.0	167646.0
23	17	35	44	669	28.0	-164391.0	-3345079.0	167077.0
23	17	35	44	669	29.0	-161457.0	-3346067.0	166892.0
23	17	35	44	700	30.0	-159150.0	-3349788.0	167451.0
23	17	35	44	701	31.0	-157094.0	-3351809.0	167865.0
23	17	35	44	701	32.0	-155060.0	-3354152.0	168181.0
23	17	35	44	702	33.0	-153687.0	-3356293.0	168121.0
23	17	35	44	702	34.0	-152804.0	-3357381.0	167953.0
23	17	35	44	703	35.0	-152623.0	-3359116.0	167918.0
23	17	35	44	704	36.0	-153087.0	-3359653.0	168089.0
23	17	35	44	704	37.0	-153569.0	-3359201.0	168248.0
23	17	35	44	705	38.0	-154352.0	-3358497.0	167785.0
23	17	35	44	705	39.0	-154958.0	-3357366.0	167734.0
23	17	35	44	706	40.0	-155085.0	-3356797.0	167868.0
23	17	35	44	706	41.0	-155963.0	-3359124.0	168319.0
23	17	35	44	707	42.0	-156566.0	-3362379.0	168464.0
23	17	35	44	708	43.0	-156368.0	-3362187.0	168628.0
23	17	35	44	708	44.0	-154999.0	-3360224.0	168870.0
23	17	35	44	709	46.0	-151082.0	-3374669.0	168463.0
23	17	35	44	709	47.0	-148377.0	-3376129.0	168301.0
23	17	35	44	710	48.0	-145483.0	-3377047.0	167857.0
23	17	35	44	710	49.0	-143266.0	-3376918.0	168008.0
23	17	35	44	711	50.0	-141754.0	-3378363.0	168142.0
23	17	35	44	712	51.0	-140754.0	-3380752.0	168500.0
23	17	35	44	719	52.0	-139581.0	-3383416.0	168504.0
23	17	35	44	745	53.0	-138694.0	-3384637.0	168654.0
23	17	35	44	746	54.0	-138306.0	-3384765.0	168286.0
23	17	35	44	747	55.0	-137291.0	-3386180.0	168246.0
23	17	35	44	747	56.0	-135527.0	-3387164.0	168145.0
23	17	35	44	748	57.0	-133241.0	-3387546.0	167769.0
23	17	35	44	748	58.0	-129809.0	-3387200.0	167790.0
23	17	35	44	749	59.0	-125186.0	-3381017.0	167994.0
23	17	35	44	750	60.0	-119868.0	-3369287.0	167917.0
23	17	35	44	750	61.0	-114277.0	-3368794.0	167751.0
23	17	35	44	751	62.0	-108827.0	-3371126.0	167965.0
23	17	35	44	751	63.0	-103757.0	-3373086.0	168098.0
23	17	35	44	764	64.0	-98892.0	-3374409.0	168012.0
23	17	35	44	765	65.0	-94550.0	-3368904.0	167792.0
23	17	35	44	765	66.0	-90908.0	-3364280.0	167682.0
23	17	35	44	790	67.0	-88194.0	-3364654.0	167593.0
23	17	35	44	791	69.0	-86847.0	-3364731.0	167118.0
23	17	35	44	791	70.0	-87982.0	-3364968.0	167205.0
23	17	35	44	792	71.0	-89952.0	-3366597.0	167574.0
23	17	35	44	792	72.0	-91909.0	-3369021.0	167784.0
23	17	35	44	793	73.0	-93536.0	-3370211.0	168044.0
23	17	35	44	793	74.0	-95399.0	-3371169.0	168255.0
23	17	35	44	794	75.0	-97382.0	-3371947.0	168840.0
23	17	35	44	795	76.0	-99444.0	-3372489.0	170156.0
23	17	35	44	795	77.0	-101634.0	-3372462.0	170190.0
23	17	35	44	796	78.0	-104225.0	-3370687.0	169569.0
23	17	35	44	796	79.0	-105986.0	-3368589.0	168432.0
23	17	35	44	797	80.0	-107480.0	-3369291.0	166884.0
23	17	35	44	798	81.0	-109254.0	-3371186.0	165372.0
23	17	35	44	798	82.0	-111143.0	-3373804.0	163146.0
23	17	35	44	799	91.0	-110639.0	-3387157.0	127634.0
23	17	35	44	799	92.0	-102812.0	-3384894.0	122909.0
23	17	35	44	800	93.0	-93814.0	-3386038.0	121062.0
23	17	35	44	800	94.0	-83890.0	-3387073.0	121962.0
23	17	35	44	801	95.0	-73341.0	-3387414.0	124608.0
23	17	35	44	813	96.0	-62941.0	-3387134.0	130000.0
23	17	35	44	813	97.0	-54863.0	-3387612.0	136477.0
23	17	35	44	836	98.0	-48876.0	-3387879.0	143685.0
23	17	35	44	836	99.0	-44565.0	-3388999.0	149351.0
23	17	35	44	837	100.0	-42229.0	-3397625.0	152191.0
23	17	35	44	838	101.0	-42665.0	-3404106.0	154941.0
23	17	35	44	838	102.0	-43901.0	-3406791.0	157886.0
23	17	35	44	839	103.0	-38991.0	-3408284.0	161562.0
23	17	35	44	839	104.0	-19800.0	-3408851.0	165394.0
23	17	35	44	840	105.0	8036.0	-3409042.0	167259.0
23	17	35	44	840	106.0	33903.0	-3408951.0	166565.0
23	17	35	44	841	107.0	42098.0	-3408357.0	165399.0
23	17	35	44	842	108.0	26593.0	-3407294.0	164667.0
23	17	35	44	842	109.0	-4066.0	-3406799.0	164167.0
23	17	35	44	843	110.0	-41262.0	-3407544.0	163696.0
23	17	35	44	843	111.0	-74722.0	-3409752.0	163694.0
23	17	35	44	844	112.0	-105379.0	-3411667.0	163640.0
23	17	35	44	845	114.0	-164996.0	-3409216.0	163753.0
23	17	35	44	845	115.0	-188256.0	-3409937.0	164033.0
23	17	35	44	846	116.0	-205867.0	-3411914.0	164235.0
23	17	35	44	847	117.0	-221622.0	-3411127.0	164185.0
23	17	35	44	847	118.0	-232715.0	-3409639.0	163848.0
23	17	35	44	848	119.0	-233796.0	-3409594.0	164054.0
23	17	35	44	880	120.0	-223258.0	-3411087.0	163986.0
23	17	35	44	881	121.0	-204527.0	-3412274.0	164171.0
23	17	35	44	882	122.0	-183916.0	-3412436.0	164180.0
23	17	35	44	882	123.0	-167667.0	-3412644.0	164110.0
23	17	35	44	883	124.0	-154227.0	-3412388.0	163795.0
23	17	35	44	883	125.0	-146024.0	-3412737.0	163729.0
23	17	35	44	884	126.0	-140681.0	-3412891.0	163367.0
23	17	35	44	884	127.0	-137087.0	-3411459.0	163161.0
23	17	35	44	885	128.0	-137627.0	-3410906.0	163151.0
23	17	35	44	886	129.0	-143012.0	-3417154.0	163038.0
23	17	35	44	886	130.0	-151327.0	-3422444.0	163258.0
23	17	35	44	887	131.0	-160564.0	-3424064.0	163469.0
23	17	35	44	887	132.0	-169535.0	-3426042.0	163344.0
23	17	35	44	888	133.0	-176321.0	-3427341.0	163291.0
23	17	35	44	889	134.0	-178679.0	-3423981.0	162930.0
23	17	35	44	889	136.0	-165115.0	-3408492.0	162143.0
23	17	35	44	890	137.0	-152127.0	-3407389.0	161844.0
23	17	35	44	890	138.0	-138642.0	-3406443.0	161621.0
23	17	35	44	891	139.0	-126790.0	-3403964.0	161364.0
23	17	35	44	891	140.0	-118540.0	-3401897.0	161526.0
23	17	35	44	892	141.0	-114637.0	-3404510.0	161749.0
23	17	35	44	893	142.0	-113210.0	-3408400.0	161572.0
23	17	35	44	926	143.0	-112922.0	-3410689.0	161337.0
23	17	35	44	927	144.0	-113409.0	-3410984.0	161231.0
23	17	35	44	927	145.0	-114284.0	-3410741.0	160860.0
23	17	35	44	928	146.0	-115462.0	-3410236.0	160789.0
23	17	35	44	929	147.0	-116509.0	-3409082.0	160471.0
23	17	35	44	929	148.0	-116720.0	-3407696.0	160078.0
23	17	35	44	930	149.0	-115438.0	-3407804.0	160150.0
23	17	35	44	931	150.0	-113417.0	-3414253.0	160331.0
23	17	35	44	931	151.0	-111400.0	-3428313.0	160421.0
23	17	35	44	932	152.0	-110056.0	-3431107.0	160469.0
23	17	35	44	932	153.0	-109159.0	-3431428.0	160244.0
23	17	35	44	933	154.0	-108709.0	-3431056.0	159899.0
23	17	35	44	934	155.0	-109249.0	-3431028.0	159618.0
23	17	35	44	934	156.0	-110922.0	-3430617.0	159701.0
23	17	35	44	935	157.0	-114071.0	-3428917.0	159220.0
23	17	35	44	936	159.0	-122297.0	-3428422.0	158621.0
23	17	35	44	937	160.0	-127534.0	-3440406.0	159073.0
23	17	35	44	937	161.0	-133546.0	-3450892.0	159338.0
23	17	35	44	938	162.0	-139941.0	-3452947.0	159371.0
23	17	35	44	939	163.0	-145922.0	-3453783.0	159131.0
23	17	35	44	939	164.0	-151440.0	-3454324.0	159120.0
23	17	35	44	971	165.0	-156436.0	-3454466.0	159165.0
23	17	35	44	972	166.0	-160654.0	-3449001.0	158973.0
23	17	35	44	973	167.0	-163944.0	-3443985.0	158551.0
23	17	35	44	973	168.0	-166951.0	-3443486.0	158224.0
23	17	35	44	974	169.0	-169375.0	-3443617.0	158518.0
23	17	35	44	975	170.0	-171113.0	-3444656.0	158612.0
23	17	35	44	975	171.0	-172359.0	-3446265.0	158918.0
23	17	35	44	976	172.0	-173047.0	-3448114.0	158764.0
23	17	35	44	977	173.0	-173027.0	-3449599.0	158543.0
23	17	35	44	978	174.0	-172997.0	-3449506.0	158311.0
23	17	35	44	978	175.0	-172659.0	-3444134.0	158168.0
23	17	35	44	979	176.0	-171889.0	-3431747.0	157999.0
23	17	35	44	979	177.0	-170777.0	-3429863.0	157741.0
23	17	35	44	980	178.0	-168914.0	-3429986.0	157684.0
23	17	35	44	981	179.0	-165851.0	-3430574.0	157696.0
23	17	35	44	981	181.0	-157260.0	-3433697.0	158204.0
23	17	35	44	982	182.0	-154057.0	-3436292.0	158164.0
23	17	35	44	982	183.0	-151037.0	-3437351.0	157985.0
23	17	35	44	983	184.0	-147825.0	-3437537.0	157743.0
23	17	35	44	983	185.0	-144991.0	-3437896.0	157602.0
23	17	35	44	984	186.0	-142108.0	-3435817.0	157314.0
23	17	35	44	985	187.0	-139912.0	-3430502.0	157144.0
23	17	35	45	16	188.0	-137844.0	-3428812.0	157373.0
23	17	35	45	17	189.0	-135811.0	-3428632.0	157365.0
23	17	35	45	17	190.0	-133642.0	-3429646.0	157342.0
23	17	35	45	18	191.0	-131026.0	-3433375.0	157399.0
23	17	35	45	19	192.0	-128697.0	-3437855.0	157596.0
23	17	35	45	19	193.0	-127137.0	-3435469.0	157874.0
23	17	35	45	20	194.0	-126239.0	-3432772.0	157433.0
23	17	35	45	40	195.0	-126342.0	-3443033.0	156728.0
23	17	35	45	41	196.0	-127817.0	-3450229.0	156942.0
23	17	35	45	41	197.0	-130889.0	-3447827.0	157035.0
23	17	35	45	42	198.0	-134954.0	-3445851.0	156814.0
23	17	35	45	42	199.0	-139937.0	-3444990.0	156924.0
23	17	35	45	43	200.0	-145886.0	-3445568.0	157380.0
23	17	35	45	63	201.0	-151672.0	-3446842.0	157399.0
23	17	35	45	63	202.0	-157175.0	-3450497.0	157108.0
23	17	35	45	107	204.0	-166422.0	-3462081.0	157053.0
23	17	35	45	107	205.0	-170416.0	-3469392.0	156879.0
23	17	35	45	108	206.0	-173454.0	-3469719.0	156337.0
23	17	35	45	109	207.0	-175284.0	-3468299.0	155913.0
23	17	35	45	109	208.0	-176122.0	-3467594.0	155896.0
23	17	35	45	110	209.0	-176779.0	-3468857.0	155599.0
23	17	35	45	111	210.0	-177791.0	-3471362.0	155461.0
23	17	35	45	111	211.0	-178966.0	-3473937.0	155913.0
23	17	35	45	112	212.0	-180658.0	-3475485.0	156141.0
23	17	35	45	112	213.0	-183052.0	-3476105.0	155797.0
23	17	35	45	113	214.0	-186426.0	-3476604.0	155333.0
23	17	35	45	114	215.0	-190286.0	-3477509.0	154853.0
23	17	35	45	114	216.0	-194241.0	-3478179.0	154729.0
23	17	35	45	115	226.0	-208091.0	-3483892.0	153105.0
23	17	35	45	116	227.0	-206464.0	-3484652.0	152592.0
23	17	35	45	116	248.0	-210590.0	-3503681.0	149040.0
23	17	35	45	117	249.0	-210929.0	-3501861.0	148931.0
23	17	35	45	118	250.0	-213721.0	-3495741.0	149256.0
23	17	35	45	118	251.0	-218737.0	-3495214.0	149474.0
23	17	35	45	119	252.0	-225099.0	-3496369.0	149424.0
23	17	35	45	119	253.0	-229870.0	-3498397.0	149391.0
23	17	35	45	120	254.0	-234810.0	-3499402.0	149647.0
23	17	35	45	152	255.0	-237421.0	-3501476.0	149668.0
23	17	35	45	152	0.0	-236567.0	-3505563.0	149456.0
23	17	35	45	153	1.0	-231897.0	-3505793.0	149510.0
23	17	35	45	154	2.0	-224584.0	-3505265.0	149645.0
23	17	35	45	154	3.0	-217349.0	-3505892.0	149869.0
23	17	35	45	155	4.0	-211882.0	-3508702.0	150002.0
23	17	35	45	156	5.0	-208824.0	-3510859.0	149913.0
23	17	35	45	156	6.0	-208727.0	-3510681.0	149748.0
23	17	35	45	157	7.0	-209566.0	-3511224.0	149737.0
23	17	35	45	157	8.0	-210332.0	-3513685.0	149993.0
23	17	35	45	158	9.0	-210078.0	-3513396.0	150084.0
23	17	35	45	159	10.0	-209434.0	-3512774.0	149975.0
23	17	35	45	159	11.0	-209112.0	-3519223.0	149682.0
23	17	35	45	160	12.0	-209953.0	-3527306.0	149800.0
23	17	35	45	160	13.0	-211702.0	-3527551.0	149793.0
23	17	35	45	161	15.0	-217299.0	-3530943.0	150054.0
23	17	35	45	161	16.0	-219979.0	-3532542.0	150170.0
23	17	35	45	162	17.0	-221769.0	-3532670.0	150046.0
23	17	35	45	197	18.0	-222118.0	-3532347.0	149987.0
23	17	35	45	198	19.0	-220004.0	-3532521.0	149683.0
23	17	35	45	198	20.0	-215939.0	-3531464.0	149552.0
23	17	35	45	199	21.0	-210827.0	-3530100.0	149333.0
23	17	35	45	199	22.0	-205595.0	-3530362.0	149161.0
23	17	35	45	200	23.0	-201226.0	-3532336.0	149642.0
23	17	35	45	201	24.0	-197391.0	-3534591.0	149783.0
23	17	35	45	201	25.0	-194681.0	-3533962.0	149723.0
23	17	35	45	202	26.0	-192850.0	-3534288.0	149653.0
23	17	35	45	202	27.0	-191301.0	-3536808.0	149204.0
23	17	35	45	203	28.0	-190011.0	-3537998.0	148856.0
23	17	35	45	204	29.0	-189391.0	-3538571.0	148954.0
23	17	35	45	204	30.0	-188952.0	-3538385.0	148938.0
23	17	35	45	205	31.0	-188481.0	-3537402.0	148801.0
23	17	35	45	205	32.0	-187882.0	-3536813.0	148336.0
23	17	35	45	206	33.0	-187519.0	-3537951.0	148244.0
23	17	35	45	207	38.0	-190711.0	-3542409.0	148539.0
23	17	35	45	207	39.0	-193070.0	-3542439.0	148311.0
23	17	35	45	208	40.0	-196244.0	-3541647.0	147950.0
23	17	35	45	208	41.0	-199781.0	-3539947.0	147636.0
23	17	35	45	209	42.0	-203522.0	-3539301.0	147698.0
23	17	35	45	210	43.0	-207090.0	-3540329.0	147648.0
23	17	35	45	242	44.0	-210757.0	-3544323.0	147805.0
23	17	35	45	243	45.0	-214724.0	-3546941.0	148011.0
23	17	35	45	243	46.0	-218688.0	-3548128.0	147860.0
23	17	35	45	244	47.0	-222944.0	-3549009.0	147383.0
23	17	35	45	245	48.0	-227420.0	-3550404.0	147444.0
23	17	35	45	245	49.0	-231601.0	-3551144.0	147218.0
23	17	35	45	246	50.0	-235364.0	-3549844.0	146952.0
23	17	35	45	246	51.0	-238779.0	-3548624.0	146550.0
23	17	35	45	247	52.0	-241666.0	-3548372.0	146629.0
23	17	35	45	247	53.0	-243531.0	-3548985.0	146467.0
23	17	35	45	287	54.0	-245008.0	-3550467.0	146636.0
23	17	35	45	288	55.0	-246501.0	-3552967.0	146404.0
23	17	35	45	288	56.0	-247204.0	-3555008.0	146383.0
23	17	35	45	289	57.0	-247204.0	-3556177.0	146324.0
23	17	35	45	290	58.0	-246335.0	-3556832.0	145898.0
23	17	35	45	290	60.0	-244199.0	-3554672.0	145794.0
23	17	35	45	291	61.0	-243645.0	-3553420.0	145163.0
23	17	35	45	292	62.0	-243526.0	-3553144.0	145120.0
23	17	35	45	292	63.0	-243716.0	-3554274.0	145184.0
23	17	35	45	293	64.0	-243882.0	-3556236.0	145235.0
23	17	35	45	293	65.0	-244369.0	-3558678.0	145220.0
23	17	35	45	294	66.0	-244476.0	-3560945.0	145379.0
23	17	35	45	295	67.0	-243654.0	-3561816.0	145373.0
23	17	35	45	295	68.0	-242757.0	-3561562.0	144939.0
23	17	35	45	296	69.0	-242186.0	-3561816.0	144530.0
23	17	35	45	296	82.0	-235919.0	-3573078.0	143136.0
23	17	35	45	297	83.0	-234022.0	-3574200.0	143544.0
23	17	35	45	298	84.0	-232856.0	-3574767.0	144456.0
23	17	35	45	298	85.0	-232430.0	-3574795.0	144334.0
23	17	35	45	299	86.0	-232904.0	-3575469.0	144078.0
23	17	35	45	299	87.0	-233702.0	-3575556.0	144308.0
23	17	35	45	332	88.0	-234712.0	-3576077.0	144225.0
23	17	35	45	332	89.0	-235248.0	-3578054.0	143716.0
23	17	35	45	333	90.0	-235574.0	-3577927.0	143350.0
23	17	35	45	334	91.0	-235521.0	-3577052.0	143146.0
23	17	35	45	334	92.0	-234874.0	-3576456.0	143461.0
23	17	35	45	335	93.0	-234281.0	-3578053.0	143451.0
23	17	35	45	336	94.0	-233589.0	-3580485.0	143379.0
23	17	35	45	336	95.0	-233315.0	-3581871.0	143749.0
23	17	35	45	337	96.0	-233441.0	-3582480.0	143688.0
23	17	35	45	338	97.0	-233306.0	-3582054.0	143426.0
23	17	35	45	338	98.0	-232671.0	-3583011.0	143075.0
23	17	35	45	339	99.0	-231997.0	-3584187.0	142969.0
23	17	35	45	339	100.0	-230771.0	-3584136.0	142568.0
23	17	35	45	340	101.0	-229452.0	-3584432.0	142397.0
23	17	35	45	341	102.0	-228355.0	-3584267.0	142492.0
23	17	35	45	341	103.0	-226655.0	-3584851.0	142336.0
23	17	35	45	342	105.0	-223126.0	-3577880.0	142078.0
23	17	35	45	342	106.0	-222012.0	-3578994.0	141707.0
23	17	35	45	343	107.0	-221015.0	-3579106.0	141392.0
23	17	35	45	344	108.0	-220142.0	-3578195.0	140934.0
23	17	35	45	344	109.0	-219467.0	-3567372.0	140533.0
23	17	35	45	345	110.0	-219467.0	-3557266.0	140471.0
23	17	35	45	377	111.0	-219187.0	-3556107.0	140153.0
23	17	35	45	378	112.0	-218119.0	-3556659.0	140048.0
23	17	35	45	378	113.0	-216840.0	-3558944.0	140279.0
23	17	35	45	379	114.0	-215904.0	-3558580.0	140237.0
23	17	35	45	380	115.0	-214991.0	-3557066.0	140385.0
23	17	35	45	380	116.0	-213872.0	-3558620.0	140433.0
23	17	35	45	381	117.0	-213093.0	-3559303.0	140084.0
23	17	35	45	381	118.0	-212457.0	-3558952.0	139958.0
23	17	35	45	382	119.0	-211827.0	-3555326.0	139895.0
23	17	35	45	383	120.0	-211159.0	-3540454.0	139585.0
23	17	35	45	383	121.0	-210472.0	-3535753.0	139070.0
23	17	35	45	384	122.0	-210167.0	-3536924.0	139469.0
23	17	35	45	384	123.0	-210174.0	-3537770.0	139668.0
23	17	35	45	385	124.0	-209852.0	-3538483.0	139713.0
23	17	35	45	386	125.0	-209599.0	-3540112.0	139578.0
23	17	35	45	422	127.0	-210446.0	-3545239.0	139133.0
23	17	35	45	423	128.0	-210926.0	-3546843.0	138573.0
23	17	35	45	423	129.0	-212270.0	-3546625.0	138164.0
23	17	35	45	424	130.0	-214181.0	-3545157.0	138015.0
23	17	35	45	424	131.0	-215508.0	-3543844.0	138179.0
23	17	35	45	425	132.0	-216297.0	-3543939.0	138256.0
23	17	35	45	426	133.0	-216699.0	-3544757.0	138330.0
23	17	35	45	426	134.0	-216781.0	-3545570.0	138238.0
23	17	35	45	466	135.0	-217631.0	-3544586.0	138439.0
23	17	35	45	467	136.0	-218211.0	-3539579.0	138494.0
23	17	35	45	468	137.0	-218571.0	-3527587.0	138093.0
23	17	35	45	468	138.0	-217996.0	-3526888.0	137631.0
23	17	35	45	469	139.0	-217995.0	-3526876.0	137201.0
23	17	35	45	470	140.0	-217796.0	-3528253.0	137186.0
23	17	35	45	470	141.0	-217759.0	-3529271.0	136973.0
23	17	35	45	471	150.0	-212879.0	-3537765.0	135881.0
23	17	35	45	471	151.0	-211152.0	-3536764.0	135780.0
23	17	35	45	472	152.0	-209184.0	-3536633.0	135968.0
23	17	35	45	473	153.0	-207282.0	-3537355.0	135814.0
23	17	35	45	473	154.0	-205064.0	-3538620.0	135944.0
23	17	35	45	474	155.0	-202732.0	-3539910.0	135979.0
23	17	35	45	475	156.0	-200536.0	-3543744.0	136063.0
23	17	35	45	475	157.0	-198462.0	-3545012.0	135783.0
23	17	35	45	476	172.0	-209062.0	-3542489.0	133266.0
23	17	35	45	476	173.0	-209672.0	-3542366.0	133249.0
23	17	35	45	477	174.0	-209985.0	-3543327.0	133324.0
23	17	35	45	478	175.0	-209526.0	-3544807.0	133318.0
23	17	35	45	478	176.0	-209147.0	-3545746.0	133101.0
23	17	35	45	479	177.0	-208417.0	-3546569.0	132783.0
23	17	35	45	511	178.0	-207452.0	-3546525.0	132473.0
23	17	35	45	512	179.0	-206194.0	-3545341.0	132169.0
23	17	35	45	513	180.0	-204954.0	-3543844.0	131720.0
23	17	35	45	513	181.0	-204000.0	-3543957.0	131724.0
23	17	35	45	514	182.0	-203589.0	-3547117.0	132028.0
23	17	35	45	514	183.0	-202612.0	-3552972.0	132069.0
23	17	35	45	515	184.0	-200607.0	-3555601.0	132051.0
23	17	35	45	516	185.0	-198748.0	-3557124.0	132121.0
23	17	35	45	516	186.0	-197606.0	-3557762.0	132187.0
23	17	35	45	517	187.0	-197361.0	-3557583.0	131892.0
23	17	35	45	518	188.0	-197214.0	-3558721.0	131438.0
23	17	35	45	518	189.0	-197002.0	-3558002.0	131143.0
23	17	35	45	519	190.0	-196556.0	-3555645.0	130836.0
23	17	35	45	519	191.0	-196187.0	-3551481.0	130733.0
23	17	35	45	520	192.0	-196981.0	-3547834.0	130738.0
23	17	35	45	521	194.0	-199219.0	-3550582.0	130878.0
23	17	35	45	521	195.0	-200202.0	-3551926.0	130774.0
23	17	35	45	522	196.0	-201209.0	-3552426.0	130750.0
23	17	35	45	522	197.0	-202396.0	-3552138.0	130234.0
23	17	35	45	523	198.0	-204152.0	-3550314.0	130033.0
23	17	35	45	524	199.0	-206071.0	-3548924.0	129828.0
23	17	35	45	524	200.0	-207515.0	-3546694.0	129546.0
23	17	35	45	556	201.0	-208637.0	-3535814.0	129530.0
23	17	35	45	557	202.0	-209698.0	-3530517.0	129755.0
23	17	35	45	558	203.0	-210472.0	-3532428.0	129994.0
23	17	35	45	559	204.0	-211155.0	-3534818.0	129750.0
23	17	35	45	559	205.0	-211744.0	-3537424.0	129346.0
23	17	35	45	560	206.0	-212113.0	-3539200.0	129124.0
23	17	35	45	561	207.0	-212132.0	-3539003.0	128607.0
23	17	35	45	561	208.0	-211653.0	-3538327.0	128449.0
23	17	35	45	562	209.0	-210852.0	-3537209.0	128506.0
23	17	35	45	563	210.0	-209423.0	-3536069.0	128193.0
23	17	35	45	563	211.0	-208033.0	-3536124.0	127773.0
23	17	35	45	564	212.0	-206791.0	-3537036.0	127543.0
23	17	35	45	564	213.0	-205613.0	-3538901.0	128037.0
23	17	35	45	565	214.0	-204793.0	-3536165.0	128153.0
23	17	35	45	566	215.0	-204757.0	-3531255.0	127949.0
23	17	35	45	566	217.0	-202342.0	-3531917.0	127566.0
23	17	35	45	567	218.0	-201118.0	-3531286.0	127526.0
23	17	35	45	567	219.0	-200353.0	-3527825.0	127029.0
23	17	35	45	568	220.0	-199863.0	-3526176.0	126804.0
23	17	35	45	569	221.0	-199316.0	-3524184.0	127089.0
23	17	35	45	569	222.0	-199847.0	-3523491.0	127243.0
23	17	35	45	602	223.0	-200682.0	-3525367.0	127274.0
23	17	35	45	603	224.0	-201505.0	-3526348.0	127114.0
23	17	35	45	603	225.0	-202406.0	-3526594.0	126824.0
23	17	35	45	604	226.0	-203539.0	-3526045.0	126417.0
23	17	35	45	605	227.0	-204978.0	-3522498.0	126309.0
23	17	35	45	605	228.0	-206157.0	-3514987.0	126373.0
23	17	35	45	606	229.0	-207301.0	-3505289.0	126075.0
23	17	35	45	607	230.0	-208229.0	-3490321.0	126049.0
23	17	35	45	607	231.0	-208201.0	-3485489.0	125901.0
23	17	35	45	608	232.0	-207614.0	-3483896.0	125629.0
23	17	35	45	609	233.0	-207272.0	-3481179.0	125849.0
23	17	35	45	609	234.0	-206950.0	-3477940.0	126046.0
23	17	35	45	610	235.0	-206392.0	-3474746.0	125868.0
23	17	35	45	611	236.0	-204691.0	-3470618.0	125694.0
23	17	35	45	611	237.0	-202524.0	-3463650.0	125499.0
23	17	35	45	612	239.0	-197380.0	-3452394.0	125024.0
23	17	35	45	612	240.0	-194401.0	-3445664.0	124659.0
23	17	35	45	613	241.0	-191504.0	-3439636.0	124693.0
23	17	35	45	614	242.0	-189218.0	-3436947.0	124689.0
23	17	35	45	614	243.0	-187162.0	-3435656.0	124386.0
23	17	35	45	615	244.0	-185111.0	-3431476.0	124205.0
23	17	35	45	615	245.0	-183476.0	-3428809.0	124143.0
23	17	35	45	647	246.0	-182355.0	-3425694.0	123819.0
23	17	35	45	648	247.0	-181207.0	-3420799.0	123959.0
23	17	35	45	649	248.0	-179988.0	-3416279.0	124093.0
23	17	35	45	649	249.0	-179262.0	-3411074.0	123584.0
23	17	35	45	650	250.0	-179075.0	-3406839.0	123431.0
23	17	35	45	651	251.0	-178888.0	-3407513.0	123740.0
23	17	35	45	652	252.0	-178235.0	-3405609.0	123650.0
23	17	35	45	652	253.0	-178107.0	-3402851.0	123372.0
23	17	35	45	653	254.0	-179486.0	-3399882.0	123038.0
23	17	35	45	654	255.0	-180954.0	-3396989.0	122761.0
23	17	35	45	655	0.0	-182227.0	-3394881.0	121857.0
23	17	35	45	656	1.0	-183834.0	-3392911.0	121233.0
23	17	35	45	657	2.0	-185316.0	-3389227.0	121344.0
23	17	35	45	658	3.0	-186471.0	-3384827.0	121115.0
23	17	35	45	658	4.0	-187276.0	-3380392.0	120549.0
23	17	35	45	659	6.0	-189389.0	-3370236.0	121617.0
23	17	35	45	659	7.0	-189919.0	-3365881.0	121963.0
23	17	35	45	660	8.0	-191783.0	-3358521.0	121925.0
23	17	35	45	661	9.0	-194242.0	-3356095.0	121964.0
23	17	35	45	661	10.0	-196256.0	-3354263.0	121794.0
23	17	35	45	662	11.0	-197311.0	-3352040.0	121467.0
23	17	35	45	693	12.0	-197864.0	-3349883.0	121336.0
23	17	35	45	694	13.0	-198610.0	-3349840.0	121270.0
23	17	35	45	695	14.0	-198398.0	-3356249.0	121116.0
23	17	35	45	695	15.0	-197355.0	-3356308.0	121278.0
23	17	35	45	696	16.0	-195236.0	-3356625.0	121554.0
23	17	35	45	738	17.0	-192132.0	-3357263.0	121693.0
23	17	35	45	738	18.0	-188392.0	-3356591.0	121639.0
23	17	35	45	739	19.0	-183399.0	-3355185.0	121702.0
23	17	35	45	740	20.0	-178797.0	-3352641.0	121608.0
23	17	35	45	740	21.0	-175891.0	-3350884.0	121172.0
23	17	35	45	741	22.0	-174015.0	-3348302.0	120546.0
23	17	35	45	742	23.0	-172218.0	-3344636.0	120265.0
23	17	35	45	742	24.0	-170642.0	-3341899.0	120231.0
23	17	35	45	743	25.0	-169759.0	-3341139.0	120416.0
23	17	35	45	744	26.0	-169794.0	-3341993.0	120181.0
23	17	35	45	744	28.0	-168055.0	-3343894.0	120386.0
23	17	35	45	745	29.0	-165909.0	-3343104.0	120472.0
23	17	35	45	746	30.0	-163400.0	-3338788.0	119976.0
23	17	35	45	746	31.0	-161252.0	-3325771.0	119734.0
23	17	35	45	747	32.0	-159769.0	-3321956.0	119559.0
23	17	35	45	747	33.0	-158759.0	-3320539.0	119269.0
23	17	35	45	748	51.0	-183455.0	-3306029.0	120763.0
23	17	35	45	749	52.0	-185920.0	-3303519.0	119746.0
23	17	35	45	749	53.0	-188624.0	-3300572.0	117488.0
23	17	35	45	750	54.0	-191233.0	-3298374.0	115746.0
23	17	35	45	750	55.0	-194004.0	-3297634.0	114124.0
23	17	35	45	751	56.0	-197117.0	-3299134.0	111014.0
23	17	35	45	782	57.0	-200464.0	-3302182.0	107150.0
23	17	35	45	783	58.0	-203848.0	-3304172.0	103216.0
23	17	35	45	784	59.0	-206722.0	-3306011.0	98687.0
23	17	35	45	784	60.0	-208605.0	-3307732.0	93927.0
23	17	35	45	785	61.0	-209155.0	-3307988.0	90026.0
23	17	35	45	786	62.0	-208358.0	-3307296.0	86650.0
23	17	35	45	787	63.0	-205928.0	-3304353.0	83642.0
23	17	35	45	787	64.0	-201416.0	-3299263.0	80489.0
23	17	35	45	788	65.0	-194761.0	-3293581.0	76254.0
23	17	35	45	788	66.0	-185791.0	-3294347.0	73191.0
23	17	35	45	789	67.0	-175365.0	-3296378.0	73474.0
23	17	35	45	790	68.0	-164665.0	-3298139.0	75303.0
23	17	35	45	790	69.0	-153220.0	-3298693.0	79341.0
23	17	35	45	791	70.0	-143006.0	-3299113.0	85641.0
23	17	35	45	792	71.0	-135067.0	-3298403.0	93134.0
23	17	35	45	793	73.0	-123729.0	-3294335.0	103199.0
23	17	35	45	794	74.0	-120967.0	-3292923.0	105840.0
23	17	35	45	794	75.0	-119531.0	-3291832.0	109098.0
23	17	35	45	795	76.0	-117197.0	-3293592.0	112472.0
23	17	35	45	796	77.0	-108247.0	-3296674.0	116776.0
23	17	35	45	796	78.0	-84786.0	-3297983.0	120113.0
23	17	35	45	797	79.0	-55844.0	-3297433.0	121057.0
23	17	35	45	835	80.0	-31523.0	-3295856.0	120273.0
23	17	35	45	835	81.0	-26537.0	-3294647.0	119442.0
23	17	35	45	836	82.0	-40648.0	-3294125.0	118577.0
23	17	35	45	837	83.0	-66588.0	-3292893.0	117772.0
23	17	35	45	837	84.0	-95646.0	-3292836.0	117379.0
23	17	35	45	838	85.0	-120098.0	-3289978.0	117246.0
23	17	35	45	838	86.0	-143495.0	-3279513.0	117117.0
23	17	35	45	839	87.0	-168282.0	-3279711.0	117418.0
23	17	35	45	839	88.0	-191639.0	-3281891.0	118011.0
23	17	35	45	840	89.0	-209472.0	-3283592.0	118470.0
23	17	35	45	840	90.0	-221861.0	-3284654.0	118413.0
23	17	35	45	841	91.0	-230883.0	-3283775.0	118234.0
23	17	35	45	842	92.0	-233644.0	-3283751.0	118644.0
23	17	35	45	842	93.0	-229188.0	-3290667.0	118498.0
23	17	35	45	843	94.0	-217522.0	-3292596.0	118381.0
23	17	35	45	843	96.0	-195997.0	-3291550.0	119041.0
23	17	35	45	844	97.0	-193067.0	-3293790.0	119104.0
23	17	35	45	844	98.0	-194036.0	-3295525.0	119381.0
23	17	35	45	845	99.0	-195111.0	-3295926.0	119242.0
23	17	35	45	845	100.0	-196357.0	-3295254.0	119274.0
23	17	35	45	846	101.0	-199604.0	-3294735.0	119129.0
23	17	35	45	872	102.0	-204882.0	-3293517.0	118680.0
23	17	35	45	873	103.0	-210894.0	-3288785.0	118215.0
23	17	35	45	873	104.0	-217832.0	-3286128.0	118374.0
23	17	35	45	874	105.0	-223694.0	-3286062.0	118563.0
23	17	35	45	875	106.0	-227754.0	-3286249.0	118608.0
23	17	35	45	875	107.0	-227061.0	-3286010.0	118689.0
23	17	35	45	876	108.0	-220525.0	-3286018.0	118450.0
23	17	35	45	876	109.0	-209481.0	-3285914.0	118296.0
23	17	35	45	877	110.0	-196981.0	-3285462.0	118213.0
23	17	35	45	878	111.0	-184429.0	-3284909.0	118321.0
23	17	35	45	878	112.0	-173778.0	-3281574.0	118182.0
23	17	35	45	879	113.0	-165675.0	-3276099.0	117571.0
23	17	35	45	880	114.0	-159814.0	-3276229.0	117449.0
23	17	35	45	880	115.0	-155560.0	-3278774.0	117459.0
23	17	35	45	881	116.0	-151899.0	-3278161.0	117743.0
23	17	35	45	881	118.0	-145993.0	-3281902.0	117998.0
23	17	35	45	882	119.0	-144112.0	-3284723.0	117979.0
23	17	35	45	882	120.0	-143363.0	-3284496.0	117505.0
23	17	35	45	883	121.0	-143000.0	-3280732.0	117452.0
23	17	35	45	884	122.0	-143314.0	-3277574.0	117521.0
23	17	35	45	884	123.0	-144217.0	-3274992.0	117321.0
23	17	35	45	885	124.0	-145576.0	-3274065.0	117003.0
23	17	35	45	915	125.0	-147294.0	-3273701.0	116898.0
23	17	35	45	916	126.0	-149173.0	-3274537.0	117362.0
23	17	35	45	917	127.0	-151093.0	-3275919.0	117327.0
23	17	35	45	917	128.0	-153582.0	-3276808.0	117058.0
23	17	35	45	918	129.0	-157725.0	-3276664.0	117091.0
23	17	35	45	918	130.0	-162816.0	-3273931.0	117136.0
23	17	35	45	919	131.0	-168702.0	-3271552.0	116991.0
23	17	35	45	920	132.0	-174547.0	-3270945.0	117130.0
23	17	35	45	920	133.0	-179612.0	-3270057.0	117206.0
23	17	35	45	921	134.0	-184779.0	-3269602.0	117103.0
23	17	35	45	921	135.0	-189989.0	-3270103.0	116911.0
23	17	35	45	922	136.0	-195017.0	-3272187.0	117144.0
23	17	35	45	922	137.0	-199834.0	-3274112.0	117531.0
23	17	35	45	923	138.0	-203812.0	-3271982.0	117187.0
23	17	35	45	935	139.0	-207306.0	-3269804.0	116811.0
23	17	35	45	935	141.0	-211191.0	-3270839.0	116699.0
23	17	35	45	936	142.0	-212324.0	-3270027.0	116299.0
23	17	35	45	936	143.0	-213170.0	-3268942.0	116470.0
23	17	35	45	937	144.0	-213756.0	-3269407.0	116983.0
23	17	35	45	937	145.0	-213666.0	-3270814.0	116694.0
23	17	35	45	938	146.0	-212893.0	-3273579.0	116251.0
23	17	35	45	961	147.0	-210967.0	-3275773.0	116496.0
23	17	35	45	962	148.0	-209136.0	-3276199.0	116463.0
23	17	35	45	963	149.0	-207970.0	-3276858.0	116200.0
23	17	35	45	963	150.0	-206819.0	-3277404.0	116198.0
23	17	35	45	964	151.0	-205502.0	-3278962.0	115884.0
23	17	35	45	964	152.0	-203963.0	-3282127.0	115706.0
23	17	35	45	965	153.0	-202284.0	-3281504.0	115830.0
23	17	35	45	966	154.0	-199767.0	-3281006.0	115907.0
23	17	35	45	966	155.0	-196444.0	-3279140.0	116012.0
23	17	35	45	967	156.0	-192872.0	-3278765.0	115986.0
23	17	35	45	967	157.0	-189392.0	-3280087.0	115764.0
23	17	35	46	6	158.0	-186512.0	-3280424.0	115639.0
23	17	35	46	7	159.0	-184686.0	-3279204.0	115879.0
23	17	35	46	7	160.0	-184251.0	-3277548.0	115914.0
23	17	35	46	8	161.0	-184679.0	-3275187.0	115742.0
23	17	35	46	9	163.0	-185172.0	-3272558.0	115670.0
23	17	35	46	9	164.0	-185297.0	-3272542.0	115713.0
23	17	35	46	10	165.0	-185855.0	-3273835.0	115834.0
23	17	35	46	10	166.0	-187122.0	-3275361.0	116131.0
23	17	35	46	18	167.0	-188999.0	-3277506.0	116081.0
23	17	35	46	19	168.0	-191422.0	-3280685.0	115766.0
23	17	35	46	19	169.0	-194244.0	-3282143.0	115697.0
23	17	35	46	20	170.0	-197136.0	-3282442.0	115586.0
23	17	35	46	21	171.0	-200039.0	-3281833.0	115407.0
23	17	35	46	21	172.0	-202597.0	-3280829.0	115194.0
23	17	35	46	22	173.0	-205394.0	-3278910.0	115143.0
23	17	35	46	22	174.0	-207891.0	-3277746.0	115534.0
23	17	35	46	23	186.0	-218529.0	-3282184.0	115041.0
23	17	35	46	23	187.0	-218481.0	-3283219.0	115004.0
23	17	35	46	24	188.0	-218259.0	-3284376.0	114784.0
23	17	35	46	24	189.0	-217796.0	-3285736.0	114696.0
23	17	35	46	25	190.0	-216587.0	-3285894.0	114447.0
23	17	35	46	26	191.0	-214539.0	-3285452.0	114328.0
23	17	35	46	144	192.0	-212446.0	-3284386.0	113831.0
23	17	35	46	165	193.0	-210430.0	-3283244.0	113807.0
23	17	35	46	166	194.0	-208116.0	-3283521.0	113924.0
23	17	35	46	167	195.0	-206184.0	-3284744.0	114133.0
23	17	35	46	167	196.0	-205032.0	-3286217.0	114089.0
23	17	35	46	168	197.0	-204776.0	-3287916.0	113968.0
23	17	35	46	168	198.0	-204886.0	-3289226.0	113667.0
23	17	35	46	169	199.0	-206153.0	-3289649.0	113261.0
23	17	35	46	169	200.0	-208066.0	-3289894.0	113074.0
23	17	35	46	189	201.0	-209566.0	-3289141.0	112769.0
23	17	35	46	190	202.0	-210864.0	-3287534.0	112363.0
23	17	35	46	190	203.0	-211616.0	-3284999.0	111979.0
23	17	35	46	191	204.0	-211735.0	-3281771.0	111856.0
23	17	35	46	191	205.0	-211855.0	-3283472.0	111698.0
23	17	35	46	192	206.0	-211929.0	-3286225.0	111507.0
23	17	35	46	193	253.0	-172752.0	-3263939.0	109322.0
23	17	35	46	193	254.0	-171032.0	-3264825.0	109154.0
23	17	35	46	194	255.0	-170359.0	-3266552.0	109645.0
23	17	35	46	194	0.0	-170517.0	-3268621.0	109671.0
23	17	35	46	195	1.0	-171092.0	-3270755.0	109512.0
23	17	35	46	195	2.0	-171826.0	-3271792.0	109445.0
23	17	35	46	196	3.0	-172391.0	-3272491.0	109386.0
23	17	35	46	197	4.0	-172683.0	-3272429.0	109164.0
23	17	35	46	197	5.0	-173184.0	-3271951.0	109051.0
23	17	35	46	198	6.0	-173866.0	-3270790.0	109036.0
23	17	35	46	198	20.0	-196835.0	-3252166.0	108391.0
23	17	35	46	199	21.0	-199893.0	-3252993.0	108097.0
23	17	35	46	199	22.0	-202172.0	-3253134.0	108073.0
23	17	35	46	200	23.0	-203787.0	-3253011.0	108109.0
23	17	35	46	201	24.0	-204824.0	-3253467.0	107920.0
23	17	35	46	201	25.0	-205401.0	-3252787.0	107826.0
23	17	35	46	232	26.0	-205581.0	-3251559.0	107623.0
23	17	35	46	233	27.0	-205273.0	-3251696.0	107509.0
23	17	35	46	233	28.0	-204550.0	-3254504.0	107381.0
23	17	35	46	234	29.0	-203856.0	-3256658.0	107552.0
23	17	35	46	234	30.0	-203897.0	-3258244.0	107423.0
23	17	35	46	235	31.0	-204278.0	-3259611.0	107298.0
23	17	35	46	236	32.0	-204986.0	-3260139.0	107308.0
23	17	35	46	236	33.0	-206064.0	-3260491.0	107112.0
23	17	35	46	237	34.0	-207296.0	-3259659.0	106872.0
23	17	35	46	237	35.0	-209158.0	-3259061.0	106950.0
23	17	35	46	276	36.0	-211362.0	-3258066.0	106763.0
23	17	35	46	277	37.0	-213241.0	-3258090.0	106694.0
23	17	35	46	277	38.0	-214979.0	-3258922.0	107121.0
23	17	35	46	279	39.0	-217145.0	-3260366.0	107311.0
23	17	35	46	279	40.0	-219364.0	-3261960.0	107092.0
23	17	35	46	280	42.0	-223747.0	-3260885.0	106856.0
23	17	35	46	281	43.0	-225222.0	-3258965.0	106819.0
23	17	35	46	282	44.0	-226431.0	-3259612.0	106603.0
23	17	35	46	282	45.0	-227513.0	-3262136.0	106028.0
23	17	35	46	283	46.0	-227552.0	-3262071.0	105935.0
23	17	35	46	283	47.0	-226739.0	-3259053.0	106118.0
23	17	35	46	284	48.0	-224772.0	-3253988.0	105995.0
23	17	35	46	285	49.0	-222272.0	-3255182.0	106008.0
23	17	35	46	285	50.0	-219824.0	-3257804.0	106243.0
23	17	35	46	286	51.0	-217761.0	-3265992.0	106073.0
23	17	35	46	286	64.0	-218651.0	-3273316.0	104840.0
23	17	35	46	287	65.0	-217588.0	-3273525.0	104593.0
23	17	35	46	288	66.0	-216116.0	-3273404.0	104295.0
23	17	35	46	289	67.0	-213700.0	-3273932.0	104260.0
23	17	35	46	289	68.0	-211036.0	-3276873.0	104257.0
23	17	35	46	290	69.0	-208434.0	-3282957.0	104648.0
23	17	35	46	291	70.0	-206103.0	-3286216.0	104555.0
23	17	35	46	321	71.0	-204418.0	-3287979.0	104209.0
23	17	35	46	322	72.0	-203181.0	-3289534.0	104344.0
23	17	35	46	322	73.0	-202491.0	-3290470.0	104299.0
23	17	35	46	330	74.0	-202169.0	-3291141.0	104132.0
23	17	35	46	331	75.0	-201911.0	-3290868.0	103788.0
23	17	35	46	332	76.0	-201754.0	-3290744.0	103754.0
23	17	35	46	332	77.0	-201415.0	-3291046.0	103675.0
23	17	35	46	333	78.0	-200953.0	-3292666.0	103518.0
23	17	35	46	333	79.0	-200895.0	-3289846.0	103821.0
23	17	35	46	334	80.0	-201168.0	-3287486.0	103763.0
23	17	35	46	335	81.0	-201154.0	-3290072.0	103366.0
23	17	35	46	335	82.0	-201287.0	-3291830.0	103147.0
23	17	35	46	336	83.0	-201568.0	-3292959.0	103163.0
23	17	35	46	336	84.0	-201890.0	-3293291.0	102422.0
23	17	35	46	337	85.0	-202435.0	-3292200.0	102124.0
23	17	35	46	337	87.0	-203594.0	-3291011.0	102115.0
23	17	35	46	338	88.0	-204401.0	-3292581.0	101918.0
23	17	35	46	338	89.0	-205165.0	-3297385.0	102024.0
23	17	35	46	339	90.0	-205454.0	-3300939.0	102133.0
23	17	35	46	340	91.0	-205345.0	-3302211.0	101902.0
23	17	35	46	340	92.0	-204839.0	-3303195.0	101728.0
23	17	35	46	367	93.0	-203881.0	-3304489.0	101894.0
23	17	35	46	368	94.0	-202899.0	-3305652.0	101761.0
23	17	35	46	368	95.0	-201597.0	-3306263.0	101213.0
23	17	35	46	369	96.0	-200430.0	-3305746.0	101028.0
23	17	35	46	370	97.0	-199437.0	-3305709.0	101163.0
23	17	35	46	370	98.0	-198864.0	-3307624.0	101155.0
23	17	35	46	371	99.0	-198594.0	-3310637.0	101138.0
23	17	35	46	372	100.0	-198508.0	-3313457.0	101298.0
23	17	35	46	372	101.0	-198685.0	-3315796.0	101018.0
23	17	35	46	373	102.0	-199455.0	-3316839.0	100786.0
23	17	35	46	374	103.0	-200499.0	-3317270.0	100564.0
23	17	35	46	374	104.0	-201976.0	-3317419.0	100104.0
23	17	35	46	375	105.0	-204419.0	-3316816.0	99987.0
23	17	35	46	375	106.0	-206915.0	-3316255.0	99895.0
23	17	35	46	376	107.0	-209582.0	-3319085.0	99923.0
23	17	35	46	377	109.0	-214604.0	-3327430.0	100048.0
23	17	35	46	377	110.0	-216431.0	-3328380.0	99836.0
23	17	35	46	378	111.0	-218467.0	-3326978.0	99641.0
23	17	35	46	379	112.0	-219583.0	-3327056.0	99671.0
23	17	35	46	379	113.0	-220329.0	-3328757.0	99519.0
23	17	35	46	380	114.0	-220479.0	-3329147.0	99408.0
23	17	35	46	411	115.0	-220633.0	-3324886.0	98966.0
23	17	35	46	412	116.0	-220359.0	-3321930.0	98857.0
23	17	35	46	412	117.0	-218772.0	-3322014.0	98805.0
23	17	35	46	413	118.0	-217200.0	-3324051.0	98489.0
23	17	35	46	414	119.0	-215443.0	-3323791.0	98971.0
23	17	35	46	414	120.0	-213609.0	-3321109.0	99141.0
23	17	35	46	415	121.0	-211961.0	-3321966.0	98659.0
23	17	35	46	416	122.0	-210577.0	-3320674.0	98601.0
23	17	35	46	416	123.0	-209112.0	-3323237.0	98685.0
23	17	35	46	417	124.0	-207276.0	-3325031.0	98539.0
23	17	35	46	417	125.0	-205387.0	-3324152.0	98202.0
23	17	35	46	418	126.0	-203506.0	-3320172.0	97960.0
23	17	35	46	419	127.0	-201119.0	-3319401.0	98234.0
23	17	35	46	419	128.0	-199041.0	-3327389.0	98193.0
23	17	35	46	420	129.0	-197614.0	-3339052.0	98416.0
23	17	35	46	420	131.0	-195629.0	-3342031.0	98105.0
23	17	35	46	421	132.0	-194509.0	-3343208.0	97879.0
23	17	35	46	421	133.0	-193106.0	-3343174.0	98168.0
23	17	35	46	422	134.0	-191385.0	-3342749.0	97958.0
23	17	35	46	430	135.0	-189437.0	-3341704.0	97376.0
23	17	35	46	457	136.0	-187542.0	-3341825.0	97399.0
23	17	35	46	457	137.0	-185899.0	-3343694.0	97590.0
23	17	35	46	458	138.0	-184231.0	-3347252.0	97756.0
23	17	35	46	501	139.0	-182753.0	-3349981.0	97901.0
23	17	35	46	502	140.0	-181348.0	-3348417.0	97899.0
23	17	35	46	503	141.0	-180004.0	-3340879.0	97522.0
23	17	35	46	503	142.0	-179056.0	-3339811.0	97421.0
23	17	35	46	504	143.0	-178599.0	-3340471.0	97253.0
23	17	35	46	505	144.0	-178302.0	-3339416.0	97274.0
23	17	35	46	505	145.0	-178384.0	-3336985.0	96836.0
23	17	35	46	506	146.0	-178791.0	-3334109.0	96849.0
23	17	35	46	507	147.0	-179249.0	-3333186.0	97048.0
23	17	35	46	507	148.0	-180126.0	-3333061.0	97233.0
23	17	35	46	508	149.0	-181614.0	-3329348.0	97353.0
23	17	35	46	508	150.0	-183215.0	-3317311.0	97408.0
23	17	35	46	509	154.0	-190430.0	-3310936.0	96536.0
23	17	35	46	510	155.0	-192516.0	-3302782.0	96286.0
23	17	35	46	511	156.0	-195096.0	-3288110.0	96704.0
23	17	35	46	512	157.0	-198170.0	-3287279.0	96721.0
23	17	35	46	513	177.0	-203572.0	-3246634.0	95376.0
23	17	35	46	514	178.0	-201781.0	-3245564.0	95185.0
23	17	35	46	514	179.0	-199836.0	-3245647.0	95270.0
23	17	35	46	515	180.0	-198091.0	-3243661.0	95308.0
23	17	35	46	516	181.0	-195963.0	-3234397.0	95146.0
23	17	35	46	516	182.0	-193668.0	-3229938.0	94691.0
23	17	35	46	548	183.0	-191940.0	-3227785.0	94661.0
23	17	35	46	549	184.0	-190607.0	-3226497.0	94739.0
23	17	35	46	549	185.0	-189667.0	-3223821.0	94585.0
23	17	35	46	550	186.0	-189177.0	-3221038.0	94204.0
23	17	35	46	550	187.0	-189214.0	-3218773.0	94005.0
23	17	35	46	551	188.0	-189622.0	-3216883.0	94231.0
23	17	35	46	552	189.0	-190406.0	-3215727.0	94602.0
23	17	35	46	552	190.0	-190930.0	-3214662.0	94648.0
23	17	35	46	553	191.0	-191089.0	-3212768.0	94793.0
23	17	35	46	553	192.0	-190919.0	-3211386.0	94654.0
23	17	35	46	592	193.0	-190788.0	-3210750.0	94048.0
23	17	35	46	592	194.0	-190684.0	-3208506.0	93219.0
23	17	35	46	593	195.0	-190764.0	-3205486.0	93038.0
23	17	35	46	594	196.0	-191264.0	-3204374.0	93273.0
23	17	35	46	594	197.0	-192541.0	-3205061.0	93163.0
23	17	35	46	595	199.0	-196422.0	-3206086.0	93546.0
23	17	35	46	596	200.0	-198077.0	-3205170.0	93325.0
23	17	35	46	596	201.0	-199564.0	-3203750.0	93136.0
23	17	35	46	597	202.0	-201329.0	-3202513.0	92961.0
23	17	35	46	597	203.0	-202698.0	-3201379.0	93009.0
23	17	35	46	598	204.0	-203586.0	-3199857.0	92871.0
23	17	35	46	599	205.0	-204129.0	-3196892.0	92689.0
23	17	35	46	599	206.0	-204568.0	-3194732.0	92857.0
23	17	35	46	600	207.0	-204718.0	-3193676.0	92906.0
23	17	35	46	600	208.0	-204685.0	-3193577.0	92923.0
23	17	35	46	601	221.0	-191015.0	-3172336.0	92066.0
23	17	35	46	602	222.0	-189012.0	-3168068.0	91859.0
23	17	35	46	602	223.0	-187345.0	-3164181.0	91880.0
23	17	35	46	603	224.0	-186041.0	-3159546.0	91809.0
23	17	35	46	603	225.0	-185274.0	-3154256.0	91678.0
23	17	35	46	604	226.0	-185080.0	-3149626.0	91756.0
23	17	35	46	605	227.0	-185161.0	-3144166.0	91623.0
23	17	35	46	637	228.0	-185676.0	-3142451.0	91724.0
23	17	35	46	637	229.0	-186344.0	-3142734.0	91707.0
23	17	35	46	682	230.0	-187087.0	-3142579.0	91414.0
23	17	35	46	683	231.0	-187697.0	-3140478.0	91381.0
23	17	35	46	683	232.0	-188004.0	-3137508.0	91376.0
23	17	35	46	684	233.0	-188107.0	-3142078.0	91246.0
23	17	35	46	685	234.0	-187984.0	-3151986.0	90674.0
23	17	35	46	685	235.0	-187242.0	-3150109.0	90436.0
23	17	35	46	726	236.0	-186270.0	-3149199.0	90513.0
23	17	35	46	727	237.0	-185415.0	-3157899.0	90320.0
23	17	35	46	728	238.0	-184256.0	-3165881.0	90459.0
23	17	35	46	728	239.0	-183047.0	-3165921.0	91044.0
23	17	35	46	729	240.0	-181894.0	-3165778.0	91006.0
23	17	35	46	729	241.0	-181191.0	-3165918.0	90488.0
23	17	35	46	771	242.0	-180867.0	-3164688.0	90181.0
23	17	35	46	772	244.0	-180162.0	-3160240.0	89939.0
23	17	35	46	773	245.0	-179904.0	-3156600.0	89392.0
23	17	35	46	773	246.0	-179739.0	-3152669.0	88882.0
23	17	35	46	774	11.0	-205975.0	-3151649.0	88114.0
23	17	35	46	774	12.0	-207028.0	-3150897.0	88261.0
23	17	35	46	775	13.0	-207809.0	-3152031.0	88037.0
23	17	35	46	776	14.0	-208427.0	-3161274.0	87778.0
23	17	35	46	776	15.0	-208691.0	-3159827.0	87823.0
23	17	35	46	777	16.0	-208391.0	-3156966.0	87752.0
23	17	35	46	778	33.0	-192329.0	-3132635.0	87449.0
23	17	35	46	778	34.0	-193383.0	-3132114.0	87198.0
23	17	35	46	779	35.0	-194444.0	-3130896.0	87171.0
23	17	35	46	779	36.0	-195711.0	-3131246.0	87524.0
23	17	35	46	780	37.0	-197578.0	-3134099.0	87480.0
23	17	35	46	781	38.0	-199594.0	-3131863.0	87273.0
23	17	35	46	781	55.0	-212718.0	-3088903.0	45328.0
23	17	35	46	782	56.0	-206057.0	-3088976.0	39998.0
23	17	35	46	782	57.0	-197397.0	-3089335.0	37878.0
23	17	35	46	783	58.0	-187539.0	-3088053.0	38736.0
23	17	35	46	784	59.0	-177096.0	-3086538.0	41799.0
23	17	35	46	784	60.0	-166927.0	-3087455.0	47405.0
23	17	35	46	785	61.0	-158799.0	-3090404.0	54463.0
23	17	35	46	816	62.0	-153257.0	-3092821.0	62818.0
23	17	35	46	817	63.0	-149532.0	-3095308.0	69177.0
23	17	35	46	818	64.0	-147503.0	-3097135.0	71541.0
23	17	35	46	818	65.0	-146575.0	-3098139.0	74439.0
23	17	35	46	819	66.0	-146310.0	-3098952.0	77836.0
23	17	35	46	820	67.0	-142476.0	-3100787.0	81036.0
23	17	35	46	820	68.0	-126189.0	-3101259.0	83898.0
23	17	35	46	821	69.0	-98213.0	-3100947.0	85678.0
23	17	35	46	822	70.0	-68693.0	-3101639.0	85228.0
23	17	35	46	822	71.0	-52298.0	-3102728.0	83936.0
23	17	35	46	823	72.0	-59651.0	-3104750.0	83366.0
23	17	35	46	824	73.0	-82626.0	-3106777.0	83026.0
23	17	35	46	824	74.0	-113897.0	-3110760.0	82561.0
23	17	35	46	825	75.0	-142586.0	-3115965.0	81945.0
23	17	35	46	826	76.0	-169670.0	-3116783.0	81849.0
23	17	35	46	826	78.0	-225799.0	-3115654.0	81875.0
23	17	35	46	827	79.0	-249336.0	-3115091.0	81766.0
23	17	35	46	828	80.0	-266057.0	-3115661.0	81902.0
23	17	35	46	828	81.0	-278644.0	-3117725.0	81468.0
23	17	35	46	829	82.0	-288468.0	-3120361.0	81323.0
23	17	35	46	829	83.0	-291242.0	-3122182.0	81541.0
23	17	35	46	862	84.0	-284672.0	-3122219.0	81715.0
23	17	35	46	862	85.0	-270841.0	-3122250.0	81968.0
23	17	35	46	863	86.0	-252716.0	-3122930.0	81663.0
23	17	35	46	864	87.0	-237802.0	-3122515.0	81526.0
23	17	35	46	864	88.0	-227418.0	-3121348.0	81191.0
23	17	35	46	865	89.0	-222562.0	-3120177.0	81181.0
23	17	35	46	866	90.0	-218400.0	-3119596.0	81046.0
23	17	35	46	866	91.0	-213256.0	-3120522.0	81122.0
23	17	35	46	867	92.0	-209191.0	-3121641.0	81164.0
23	17	35	46	868	93.0	-208522.0	-3121227.0	81099.0
23	17	35	46	868	94.0	-210033.0	-3120799.0	81194.0
23	17	35	46	869	95.0	-211525.0	-3121522.0	81290.0
23	17	35	46	869	96.0	-213627.0	-3121489.0	80859.0
23	17	35	46	870	97.0	-215211.0	-3118316.0	80717.0
23	17	35	46	871	98.0	-213559.0	-3114239.0	80700.0
23	17	35	46	871	100.0	-197474.0	-3115574.0	80589.0
23	17	35	46	872	101.0	-186904.0	-3116927.0	80365.0
23	17	35	46	872	102.0	-177719.0	-3118391.0	80359.0
23	17	35	46	873	103.0	-171233.0	-3119544.0	80007.0
23	17	35	46	874	104.0	-167564.0	-3120781.0	79974.0
23	17	35	46	874	105.0	-166573.0	-3121306.0	79734.0
23	17	35	46	907	106.0	-166994.0	-3120781.0	79627.0
23	17	35	46	908	107.0	-167949.0	-3119975.0	79642.0
23	17	35	46	909	108.0	-168782.0	-3118699.0	79176.0
23	17	35	46	910	109.0	-169701.0	-3118260.0	79301.0
23	17	35	46	910	110.0	-170718.0	-3118181.0	79139.0
23	17	35	46	911	111.0	-171942.0	-3119863.0	78886.0
23	17	35	46	911	112.0	-172970.0	-3121847.0	79253.0
23	17	35	46	912	113.0	-173694.0	-3123875.0	79348.0
23	17	35	46	913	114.0	-174277.0	-3125339.0	78964.0
23	17	35	46	913	115.0	-174759.0	-3125894.0	78281.0
23	17	35	46	914	116.0	-175491.0	-3126154.0	78174.0
23	17	35	46	915	117.0	-176438.0	-3126122.0	78161.0
23	17	35	46	915	118.0	-177187.0	-3125047.0	78028.0
23	17	35	46	916	119.0	-178737.0	-3124562.0	78054.0
23	17	35	46	917	120.0	-181344.0	-3124516.0	78236.0
23	17	35	46	918	122.0	-187617.0	-3127827.0	78129.0
23	17	35	46	918	123.0	-191139.0	-3128902.0	78108.0
23	17	35	46	919	124.0	-194739.0	-3128911.0	77916.0
23	17	35	46	919	125.0	-198872.0	-3128997.0	77696.0
23	17	35	46	920	126.0	-202866.0	-3129372.0	77716.0
23	17	35	46	921	127.0	-205818.0	-3127942.0	77551.0
23	17	35	46	921	128.0	-208021.0	-3123459.0	77156.0
23	17	35	46	951	129.0	-209547.0	-3122212.0	77402.0
23	17	35	46	952	130.0	-211684.0	-3123292.0	77783.0
23	17	35	46	953	131.0	-213919.0	-3126064.0	77732.0
23	17	35	46	954	132.0	-215611.0	-3132717.0	77820.0
23	17	35	46	954	133.0	-217220.0	-3146237.0	77396.0
23	17	35	46	955	134.0	-218531.0	-3147372.0	77041.0
23	17	35	46	956	135.0	-219239.0	-3146236.0	77078.0
23	17	35	46	956	136.0	-219248.0	-3146837.0	77031.0
23	17	35	46	957	137.0	-218842.0	-3146776.0	76864.0
23	17	35	46	957	138.0	-217889.0	-3144746.0	76584.0
23	17	35	46	958	139.0	-216326.0	-3142996.0	76490.0
23	17	35	46	959	140.0	-215026.0	-3143387.0	76795.0
23	17	35	46	959	141.0	-214143.0	-3145400.0	77176.0
23	17	35	46	960	142.0	-213443.0	-3147152.0	77306.0
23	17	35	46	961	143.0	-213162.0	-3148357.0	77257.0
23	17	35	46	961	145.0	-210277.0	-3151111.0	76600.0
23	17	35	46	962	146.0	-208621.0	-3152279.0	76367.0
23	17	35	46	962	147.0	-207269.0	-3149523.0	76011.0
23	17	35	46	963	148.0	-206052.0	-3146402.0	75741.0
23	17	35	46	964	149.0	-204905.0	-3144177.0	75738.0
23	17	35	46	964	150.0	-204142.0	-3142371.0	75731.0
23	17	35	46	997	151.0	-203687.0	-3141028.0	75851.0
23	17	35	46	998	152.0	-203064.0	-3139477.0	75939.0
23	17	35	46	999	153.0	-202757.0	-3137929.0	76144.0
23	17	35	46	999	154.0	-203522.0	-3135873.0	75981.0
23	17	35	47	0	155.0	-204846.0	-3133907.0	75969.0
23	17	35	47	0	156.0	-206092.0	-3132417.0	76074.0
23	17	35	47	1	157.0	-207546.0	-3130686.0	75731.0
23	17	35	47	1	158.0	-208864.0	-3128035.0	75199.0
23	17	35	47	2	159.0	-210004.0	-3126583.0	75306.0
23	17	35	47	3	160.0	-211117.0	-3126248.0	75614.0
23	17	35	47	3	161.0	-211980.0	-3127186.0	75588.0
23	17	35	47	4	162.0	-212852.0	-3127371.0	75398.0
23	17	35	47	4	163.0	-213624.0	-3126929.0	75644.0
23	17	35	47	5	164.0	-214224.0	-3125531.0	75573.0
23	17	35	47	5	165.0	-214806.0	-3123194.0	75298.0
23	17	35	47	6	167.0	-214707.0	-3118914.0	75015.0
23	17	35	47	7	168.0	-214509.0	-3116381.0	74832.0
23	17	35	47	7	169.0	-213842.0	-3114167.0	75038.0
23	17	35	47	8	170.0	-212731.0	-3113439.0	74823.0
23	17	35	47	8	171.0	-211224.0	-3115213.0	75115.0
23	17	35	47	9	172.0	-209569.0	-3127308.0	75247.0
23	17	35	47	9	173.0	-207984.0	-3132564.0	74996.0
23	17	35	47	41	174.0	-206468.0	-3132087.0	74978.0
23	17	35	47	42	175.0	-205227.0	-3131407.0	74929.0
23	17	35	47	43	176.0	-204136.0	-3130693.0	74751.0
23	17	35	47	43	177.0	-203040.0	-3128362.0	74573.0
23	17	35	47	44	178.0	-201517.0	-3125489.0	74232.0
23	17	35	47	44	179.0	-199593.0	-3124849.0	73864.0
23	17	35	47	45	180.0	-198188.0	-3125587.0	73799.0
23	17	35	47	45	181.0	-197049.0	-3125716.0	73972.0
23	17	35	47	46	182.0	-196139.0	-3124819.0	73911.0
23	17	35	47	47	183.0	-195063.0	-3123670.0	73838.0
23	17	35	47	47	184.0	-193667.0	-3123183.0	73669.0
23	17	35	47	48	185.0	-192322.0	-3123479.0	73484.0
23	17	35	47	48	186.0	-191109.0	-3122246.0	73538.0
23	17	35	47	49	187.0	-190426.0	-3119064.0	73106.0
23	17	35	47	49	188.0	-190128.0	-3116926.0	72804.0
23	17	35	47	50	190.0	-190690.0	-3112617.0	72701.0
23	17	35	47	51	191.0	-191289.0	-3112022.0	72861.0
23	17	35	47	51	192.0	-192342.0	-3113132.0	73098.0
23	17	35	47	52	193.0	-194182.0	-3113103.0	72630.0
23	17	35	47	52	194.0	-196500.0	-3111804.0	71991.0
23	17	35	47	53	195.0	-198985.0	-3111402.0	71869.0
23	17	35	47	87	196.0	-201377.0	-3110144.0	71746.0
23	17	35	47	87	197.0	-203854.0	-3107638.0	71409.0
23	17	35	47	88	198.0	-206257.0	-3104291.0	70873.0
23	17	35	47	89	199.0	-208703.0	-3102669.0	70669.0
23	17	35	47	89	200.0	-210602.0	-3102287.0	70664.0
23	17	35	47	90	201.0	-211451.0	-3102771.0	70638.0
23	17	35	47	90	202.0	-212381.0	-3103394.0	70664.0
23	17	35	47	91	203.0	-213487.0	-3103277.0	70577.0
23	17	35	47	91	204.0	-214847.0	-3102531.0	70377.0
23	17	35	47	92	205.0	-216059.0	-3101516.0	70030.0
23	17	35	47	93	206.0	-216914.0	-3100696.0	70023.0
23	17	35	47	94	207.0	-218028.0	-3098471.0	69908.0
23	17	35	47	95	208.0	-219171.0	-3095598.0	69803.0
23	17	35	47	95	209.0	-219136.0	-3093922.0	69882.0
23	17	35	47	96	210.0	-218514.0	-3093638.0	70084.0
23	17	35	47	96	212.0	-217549.0	-3091342.0	70398.0
23	17	35	47	97	213.0	-216965.0	-3089989.0	70484.0
23	17	35	47	97	214.0	-215941.0	-3087049.0	70467.0
23	17	35	47	98	215.0	-214157.0	-3083722.0	70431.0
23	17	35	47	99	216.0	-210276.0	-3079959.0	70298.0
23	17	35	47	99	217.0	-206576.0	-3067900.0	70175.0
23	17	35	47	100	218.0	-204577.0	-3060103.0	70095.0
23	17	35	47	131	219.0	-204695.0	-3058044.0	70193.0
23	17	35	47	131	220.0	-205857.0	-3058153.0	70153.0
23	17	35	47	132	221.0	-204045.0	-3058494.0	70518.0
23	17	35	47	133	222.0	-203302.0	-3057160.0	70904.0
23	17	35	47	133	223.0	-201574.0	-3054974.0	70783.0
23	17	35	47	134	224.0	-198016.0	-3054302.0	70961.0
23	17	35	47	142	225.0	-191272.0	-3052981.0	71280.0
23	17	35	47	143	226.0	-182002.0	-3050042.0	71181.0
23	17	35	47	144	227.0	-172986.0	-3050319.0	71018.0
23	17	35	47	145	228.0	-166539.0	-3059761.0	71095.0
23	17	35	47	145	229.0	-162996.0	-3056973.0	71423.0
23	17	35	47	146	230.0	-162132.0	-3050399.0	71593.0
23	17	35	47	146	231.0	-162806.0	-3058147.0	71790.0
23	17	35	47	147	232.0	-164476.0	-3068264.0	72233.0
23	17	35	47	148	233.0	-165092.0	-3060492.0	72092.0
23	17	35	47	148	235.0	-165351.0	-3049491.0	72184.0
23	17	35	47	149	236.0	-165814.0	-3045315.0	72124.0
23	17	35	47	149	237.0	-167114.0	-3040461.0	71929.0
23	17	35	47	150	238.0	-169204.0	-3035822.0	72196.0
23	17	35	47	150	239.0	-171151.0	-3031646.0	72416.0
23	17	35	47	151	240.0	-172228.0	-3030523.0	72449.0
23	17	35	47	223	241.0	-171684.0	-3035582.0	72315.0
23	17	35	47	223	242.0	-169657.0	-3039152.0	72714.0
23	17	35	47	224	243.0	-166480.0	-3039424.0	72448.0
23	17	35	47	225	244.0	-163192.0	-3037777.0	72045.0
23	17	35	47	225	245.0	-160172.0	-3036127.0	71986.0
23	17	35	47	226	246.0	-157545.0	-3035586.0	72129.0
23	17	35	47	226	247.0	-155324.0	-3032711.0	72328.0
23	17	35	47	227	248.0	-153613.0	-3030361.0	72022.0
23	17	35	47	228	249.0	-152272.0	-3031161.0	72141.0
23	17	35	47	228	250.0	-151494.0	-3032415.0	72200.0
23	17	35	47	229	251.0	-151624.0	-3032242.0	72441.0
23	17	35	47	229	252.0	-152037.0	-3031067.0	72400.0
23	17	35	47	230	253.0	-152950.0	-3029745.0	71997.0
23	17	35	47	230	254.0	-154016.0	-3028929.0	72008.0
23	17	35	47	231	255.0	-155993.0	-3027052.0	71958.0
23	17	35	47	232	1.0	-160444.0	-3021900.0	71639.0
23	17	35	47	232	24.0	-196889.0	-2992408.0	70775.0
23	17	35	47	233	25.0	-197591.0	-2992409.0	71054.0
23	17	35	47	233	26.0	-197701.0	-2993197.0	71286.0
23	17	35	47	234	27.0	-197494.0	-2992249.0	71056.0
23	17	35	47	234	28.0	-197486.0	-2991335.0	70798.0
23	17	35	47	235	29.0	-197624.0	-2989656.0	70584.0
23	17	35	47	267	30.0	-198346.0	-2987681.0	70536.0
23	17	35	47	268	31.0	-199029.0	-2983121.0	70156.0
23	17	35	47	269	32.0	-199626.0	-2975442.0	69972.0
23	17	35	47	269	33.0	-200816.0	-2973692.0	70232.0
23	17	35	47	270	34.0	-201761.0	-2974167.0	70225.0
23	17	35	47	270	35.0	-202560.0	-2974789.0	70243.0
23	17	35	47	271	36.0	-203116.0	-2975564.0	70288.0
23	17	35	47	272	37.0	-203852.0	-2975061.0	70069.0
23	17	35	47	272	38.0	-204639.0	-2973773.0	70004.0
23	17	35	47	314	39.0	-205350.0	-2972952.0	69620.0
23	17	35	47	357	40.0	-206069.0	-2971933.0	69386.0
23	17	35	47	358	41.0	-206602.0	-2970314.0	69377.0
23	17	35	47	358	42.0	-206762.0	-2968667.0	69428.0
23	17	35	47	359	43.0	-206536.0	-2967250.0	69386.0
23	17	35	47	359	46.0	-204218.0	-2968269.0	69659.0
23	17	35	47	360	47.0	-202873.0	-2961566.0	69312.0
23	17	35	47	361	48.0	-201663.0	-2960291.0	69337.0
23	17	35	47	361	49.0	-200536.0	-2960399.0	69248.0
23	17	35	47	362	50.0	-198924.0	-2959909.0	68890.0
23	17	35	47	362	51.0	-197242.0	-2958702.0	68931.0
23	17	35	47	363	52.0	-195794.0	-2957915.0	69031.0
23	17	35	47	364	53.0	-194324.0	-2958634.0	68846.0
23	17	35	47	365	54.0	-192931.0	-2959966.0	68867.0
23	17	35	47	366	55.0	-192027.0	-2961293.0	69341.0
23	17	35	47	367	69.0	-167327.0	-2958546.0	68442.0
23	17	35	47	367	91.0	-182964.0	-2945850.0	66969.0
23	17	35	47	368	92.0	-185432.0	-2944290.0	66799.0
23	17	35	47	368	93.0	-187433.0	-2943609.0	66580.0
23	17	35	47	369	94.0	-189403.0	-2944109.0	67306.0
23	17	35	47	369	95.0	-191157.0	-2944869.0	67480.0
23	17	35	47	370	96.0	-192394.0	-2944929.0	67162.0
23	17	35	47	401	97.0	-193921.0	-2940324.0	66729.0
23	17	35	47	402	98.0	-195357.0	-2937090.0	66768.0
23	17	35	47	403	99.0	-196171.0	-2937797.0	66214.0
23	17	35	47	403	100.0	-196514.0	-2938382.0	66238.0
23	17	35	47	404	101.0	-197179.0	-2935480.0	66386.0
23	17	35	47	405	102.0	-197636.0	-2932409.0	66240.0
23	17	35	47	405	103.0	-197839.0	-2936172.0	66311.0
23	17	35	47	406	104.0	-197759.0	-2942280.0	66809.0
23	17	35	47	406	105.0	-198069.0	-2942096.0	66818.0
23	17	35	47	407	106.0	-198554.0	-2941165.0	66264.0
23	17	35	47	408	107.0	-198823.0	-2946732.0	66278.0
23	17	35	47	408	108.0	-199269.0	-2949385.0	66394.0
23	17	35	47	409	109.0	-199741.0	-2947306.0	66325.0
23	17	35	47	409	110.0	-199816.0	-2945314.0	65898.0
23	17	35	47	410	111.0	-199771.0	-2943107.0	65500.0
23	17	35	47	411	113.0	-198334.0	-2942629.0	65913.0
23	17	35	47	411	114.0	-196882.0	-2944661.0	66099.0
23	17	35	47	412	115.0	-195000.0	-2947387.0	66115.0
23	17	35	47	412	116.0	-192816.0	-2948722.0	66212.0
23	17	35	47	413	117.0	-190494.0	-2948962.0	65665.0
23	17	35	47	413	118.0	-188464.0	-2947954.0	65308.0
23	17	35	47	414	119.0	-186641.0	-2946814.0	65242.0
23	17	35	47	446	120.0	-185594.0	-2944559.0	65349.0
23	17	35	47	447	121.0	-185504.0	-2940379.0	65245.0
23	17	35	47	448	122.0	-185951.0	-2939881.0	64917.0
23	17	35	47	448	123.0	-186771.0	-2940438.0	65168.0
23	17	35	47	449	124.0	-188206.0	-2941302.0	65513.0
23	17	35	47	450	125.0	-190106.0	-2942125.0	65608.0
23	17	35	47	451	126.0	-191804.0	-2942770.0	65479.0
23	17	35	47	451	127.0	-193099.0	-2942650.0	65343.0
23	17	35	47	452	128.0	-194299.0	-2940778.0	64842.0
23	17	35	47	453	129.0	-195253.0	-2934863.0	64836.0
23	17	35	47	454	130.0	-196237.0	-2933266.0	64832.0
23	17	35	47	455	131.0	-197302.0	-2932112.0	64563.0
23	17	35	47	455	132.0	-198276.0	-2932318.0	64435.0
23	17	35	47	456	133.0	-199394.0	-2934850.0	64506.0
23	17	35	47	456	134.0	-200790.0	-2934788.0	64723.0
23	17	35	47	457	136.0	-203040.0	-2934411.0	64216.0
23	17	35	47	457	137.0	-203651.0	-2933716.0	64470.0
23	17	35	47	458	138.0	-203826.0	-2931901.0	64564.0
23	17	35	47	459	139.0	-203472.0	-2930464.0	64585.0
23	17	35	47	460	140.0	-203037.0	-2929247.0	64545.0
23	17	35	47	460	141.0	-202250.0	-2928001.0	64199.0
23	17	35	47	492	142.0	-201333.0	-2928669.0	64145.0
23	17	35	47	506	143.0	-200259.0	-2929584.0	64150.0
23	17	35	47	507	144.0	-199702.0	-2930821.0	64588.0
23	17	35	47	507	145.0	-199458.0	-2932073.0	64476.0
23	17	35	47	508	146.0	-199511.0	-2933010.0	64266.0
23	17	35	47	508	147.0	-199836.0	-2930481.0	64268.0
23	17	35	47	509	148.0	-200148.0	-2921877.0	64330.0
23	17	35	47	510	149.0	-200356.0	-2912729.0	64231.0
23	17	35	47	510	150.0	-200573.0	-2911055.0	64076.0
23	17	35	47	511	151.0	-201143.0	-2909493.0	64079.0
23	17	35	47	511	152.0	-201554.0	-2906957.0	64355.0
23	17	35	47	512	153.0	-201299.0	-2907433.0	64339.0
23	17	35	47	512	154.0	-201041.0	-2910546.0	64228.0
23	17	35	47	513	155.0	-200818.0	-2912064.0	64142.0
23	17	35	47	514	156.0	-200240.0	-2911107.0	64118.0
23	17	35	47	514	158.0	-199009.0	-2909902.0	63868.0
23	17	35	47	515	159.0	-198514.0	-2909219.0	63681.0
23	17	35	47	515	160.0	-197936.0	-2908099.0	63600.0
23	17	35	47	516	161.0	-197222.0	-2906456.0	63409.0
23	17	35	47	516	162.0	-196376.0	-2906296.0	63311.0
23	17	35	47	517	163.0	-195565.0	-2908966.0	63228.0
23	17	35	47	537	164.0	-195048.0	-2910699.0	63116.0
23	17	35	47	538	165.0	-194611.0	-2911761.0	63262.0
23	17	35	47	538	166.0	-194092.0	-2911592.0	63248.0
23	17	35	47	539	167.0	-193992.0	-2911574.0	63149.0
23	17	35	47	540	168.0	-194464.0	-2910728.0	62850.0
23	17	35	47	540	169.0	-194983.0	-2909774.0	62683.0
23	17	35	47	541	170.0	-195241.0	-2908359.0	62794.0
23	17	35	47	542	171.0	-196179.0	-2910864.0	62654.0
23	17	35	47	542	172.0	-197706.0	-2922999.0	62613.0
23	17	35	47	543	173.0	-199436.0	-2925063.0	62839.0
23	17	35	47	544	174.0	-201214.0	-2926112.0	62621.0
23	17	35	47	544	175.0	-203062.0	-2926904.0	62611.0
23	17	35	47	545	176.0	-204624.0	-2926290.0	62624.0
23	17	35	47	546	177.0	-206482.0	-2925361.0	62524.0
23	17	35	47	546	178.0	-208357.0	-2924281.0	62276.0
23	17	35	47	547	179.0	-209934.0	-2922029.0	62095.0
23	17	35	47	547	181.0	-212148.0	-2916377.0	61541.0
23	17	35	47	548	182.0	-212864.0	-2915576.0	61950.0
23	17	35	47	549	183.0	-212923.0	-2915638.0	61976.0
23	17	35	47	549	184.0	-212564.0	-2916344.0	61826.0
23	17	35	47	550	185.0	-211782.0	-2916947.0	61783.0
23	17	35	47	550	186.0	-210731.0	-2916442.0	61836.0
23	17	35	47	581	187.0	-209429.0	-2916079.0	61785.0
23	17	35	47	582	188.0	-208088.0	-2915348.0	61768.0
23	17	35	47	583	189.0	-206811.0	-2914804.0	61301.0
23	17	35	47	584	190.0	-206001.0	-2913400.0	61011.0
23	17	35	47	584	191.0	-205921.0	-2911752.0	60694.0
23	17	35	47	585	192.0	-206275.0	-2911277.0	60603.0
23	17	35	47	585	193.0	-206646.0	-2919273.0	60998.0
23	17	35	47	586	194.0	-207055.0	-2929413.0	61064.0
23	17	35	47	587	195.0	-207406.0	-2920257.0	60868.0
23	17	35	47	587	196.0	-207398.0	-2911683.0	60714.0
23	17	35	47	588	197.0	-207702.0	-2914233.0	60366.0
23	17	35	47	588	198.0	-207959.0	-2913382.0	60315.0
23	17	35	47	589	199.0	-208346.0	-2899991.0	60025.0
23	17	35	47	590	200.0	-209124.0	-2893968.0	59641.0
23	17	35	47	590	201.0	-209779.0	-2893052.0	59848.0
23	17	35	47	591	203.0	-209899.0	-2894007.0	59935.0
23	17	35	47	592	204.0	-209731.0	-2894856.0	59899.0
23	17	35	47	592	205.0	-209292.0	-2895893.0	60149.0
23	17	35	47	593	206.0	-208985.0	-2896391.0	60076.0
23	17	35	47	593	207.0	-209217.0	-2895910.0	59849.0
23	17	35	47	594	208.0	-209139.0	-2892067.0	59878.0
23	17	35	47	594	209.0	-208736.0	-2888749.0	60104.0
23	17	35	47	626	210.0	-208333.0	-2886504.0	59647.0
23	17	35	47	626	211.0	-208358.0	-2884542.0	59766.0
23	17	35	47	627	212.0	-208601.0	-2883997.0	60143.0
23	17	35	47	628	213.0	-208407.0	-2884525.0	60203.0
23	17	35	47	628	214.0	-208225.0	-2885607.0	59800.0
23	17	35	47	629	215.0	-207841.0	-2885788.0	59654.0
23	17	35	47	630	216.0	-207343.0	-2885077.0	59708.0
23	17	35	47	630	217.0	-206585.0	-2885461.0	59196.0
23	17	35	47	631	218.0	-205882.0	-2885263.0	59153.0
23	17	35	47	631	219.0	-205491.0	-2883796.0	59092.0
23	17	35	47	632	220.0	-205189.0	-2882180.0	58979.0
23	17	35	47	633	221.0	-205376.0	-2881169.0	59151.0
23	17	35	47	633	222.0	-205529.0	-2881217.0	59471.0
23	17	35	47	634	223.0	-205661.0	-2883229.0	59738.0
23	17	35	47	635	224.0	-205899.0	-2883621.0	59221.0
23	17	35	47	635	226.0	-206975.0	-2881638.0	59257.0
23	17	35	47	636	227.0	-207768.0	-2880926.0	59020.0
23	17	35	47	636	228.0	-209004.0	-2879557.0	58897.0
23	17	35	47	637	229.0	-210349.0	-2873116.0	58562.0
23	17	35	47	638	230.0	-211487.0	-2863485.0	58415.0
23	17	35	47	639	231.0	-212609.0	-2861964.0	58660.0
23	17	35	47	686	232.0	-213479.0	-2862419.0	58571.0
23	17	35	47	704	233.0	-214377.0	-2864518.0	58669.0
23	17	35	47	705	234.0	-215223.0	-2866711.0	58444.0
23	17	35	47	706	235.0	-215584.0	-2866574.0	58194.0
23	17	35	47	706	236.0	-215383.0	-2865284.0	57687.0
23	17	35	47	707	237.0	-214861.0	-2864852.0	57382.0
23	17	35	47	708	238.0	-213835.0	-2864245.0	57543.0
23	17	35	47	708	239.0	-212312.0	-2863250.0	57279.0
23	17	35	47	709	240.0	-210570.0	-2860936.0	57312.0
23	17	35	47	710	241.0	-208669.0	-2858247.0	57503.0
23	17	35	47	710	242.0	-206507.0	-2856842.0	57449.0
23	17	35	47	711	243.0	-204457.0	-2857483.0	57179.0
23	17	35	47	711	244.0	-203081.0	-2857963.0	57228.0
23	17	35	47	712	245.0	-202570.0	-2857679.0	57184.0
23	17	35	47	712	246.0	-202474.0	-2857002.0	56828.0
23	17	35	47	713	0.0	-210171.0	-2840146.0	56544.0
23	17	35	47	714	7.0	-207297.0	-2834077.0	56028.0
23	17	35	47	714	8.0	-207698.0	-2834494.0	56289.0
23	17	35	47	715	9.0	-208656.0	-2835887.0	56761.0
23	17	35	47	715	10.0	-210209.0	-2842452.0	56617.0
23	17	35	47	716	11.0	-212062.0	-2842876.0	56528.0
23	17	35	47	717	12.0	-213372.0	-2841510.0	56394.0
23	17	35	47	717	13.0	-214265.0	-2839741.0	56071.0
23	17	35	47	718	14.0	-214761.0	-2838849.0	55861.0
23	17	35	47	731	15.0	-214851.0	-2840422.0	55803.0
23	17	35	47	732	16.0	-214137.0	-2843744.0	55595.0
23	17	35	47	733	17.0	-212891.0	-2845800.0	55500.0
23	17	35	47	733	18.0	-211491.0	-2847009.0	55789.0
23	17	35	47	734	19.0	-209566.0	-2844382.0	55290.0
23	17	35	47	735	20.0	-207025.0	-2830864.0	54706.0
23	17	35	47	735	21.0	-204034.0	-2828056.0	54794.0
23	17	35	47	736	22.0	-200550.0	-2828846.0	54771.0
23	17	35	47	736	23.0	-196719.0	-2826254.0	54691.0
23	17	35	47	737	24.0	-192769.0	-2820577.0	54713.0
23	17	35	47	754	25.0	-189076.0	-2818089.0	54681.0
23	17	35	47	755	26.0	-186149.0	-2818935.0	54572.0
23	17	35	47	756	27.0	-184571.0	-2822765.0	54769.0
23	17	35	47	756	28.0	-184837.0	-2823779.0	54727.0
23	17	35	47	757	29.0	-186436.0	-2821810.0	54130.0
23	17	35	47	757	30.0	-189440.0	-2821416.0	53983.0
23	17	35	47	777	31.0	-193340.0	-2820806.0	54271.0
23	17	35	47	778	32.0	-197265.0	-2820304.0	54334.0
23	17	35	47	778	33.0	-201221.0	-2819108.0	54045.0
23	17	35	47	779	34.0	-204914.0	-2817613.0	54253.0
23	17	35	47	780	35.0	-208060.0	-2817687.0	54828.0
23	17	35	47	780	36.0	-210511.0	-2818773.0	55330.0
23	17	35	47	781	37.0	-212732.0	-2822940.0	56727.0
23	17	35	47	781	38.0	-214808.0	-2825519.0	57458.0
23	17	35	47	782	39.0	-216238.0	-2825719.0	57654.0
23	17	35	47	783	40.0	-217147.0	-2827902.0	57090.0
23	17	35	47	783	41.0	-217927.0	-2828330.0	55156.0
23	17	35	47	784	42.0	-218377.0	-2827250.0	53494.0
23	17	35	47	784	43.0	-218706.0	-2824954.0	51118.0
23	17	35	47	785	44.0	-219582.0	-2822127.0	47485.0
23	17	35	47	785	45.0	-220795.0	-2820924.0	43088.0
23	17	35	47	799	46.0	-222177.0	-2819950.0	38471.0
23	17	35	47	800	47.0	-224101.0	-2818866.0	33863.0
23	17	35	47	801	48.0	-226439.0	-2819797.0	28971.0
23	17	35	47	801	49.0	-228835.0	-2820014.0	24206.0
23	17	35	47	802	50.0	-230562.0	-2818997.0	20811.0
23	17	35	47	803	51.0	-230976.0	-2817582.0	17973.0
23	17	35	47	803	52.0	-229849.0	-2815877.0	13328.0
23	17	35	47	804	53.0	-227095.0	-2812484.0	7284.0
23	17	35	47	823	54.0	-222668.0	-2809634.0	4262.0
23	17	35	47	823	55.0	-216734.0	-2807986.0	4917.0
23	17	35	47	845	56.0	-209106.0	-2807663.0	7608.0
23	17	35	47	846	57.0	-200557.0	-2808016.0	12947.0
23	17	35	47	847	58.0	-192010.0	-2807659.0	19576.0
23	17	35	47	847	59.0	-184677.0	-2805976.0	27538.0
23	17	35	47	848	60.0	-179143.0	-2802966.0	35668.0
23	17	35	47	848	61.0	-175429.0	-2800084.0	39636.0
23	17	35	47	849	62.0	-173217.0	-2797504.0	42477.0
23	17	35	47	850	63.0	-171789.0	-2791979.0	45683.0
23	17	35	47	850	64.0	-169404.0	-2779142.0	48805.0
23	17	35	47	851	65.0	-159861.0	-2774544.0	52520.0
23	17	35	47	852	66.0	-136039.0	-2774657.0	54371.0
23	17	35	47	852	67.0	-105187.0	-2776870.0	54050.0
23	17	35	47	853	68.0	-74722.0	-2778776.0	52793.0
23	17	35	47	853	69.0	-63047.0	-2778653.0	51795.0
23	17	35	47	854	70.0	-72719.0	-2779577.0	51666.0
23	17	35	47	855	74.0	-176764.0	-2771969.0	50807.0
23	17	35	47	855	75.0	-205099.0	-2769628.0	50979.0
23	17	35	47	856	76.0	-233663.0	-2768972.0	51438.0
23	17	35	47	856	77.0	-256966.0	-2769656.0	51703.0
23	17	35	47	857	78.0	-274948.0	-2768921.0	51851.0
23	17	35	47	858	79.0	-290910.0	-2762549.0	51883.0
23	17	35	47	858	80.0	-303655.0	-2759958.0	52524.0
23	17	35	47	859	81.0	-308890.0	-2758236.0	52407.0
23	17	35	47	859	82.0	-304570.0	-2747704.0	52132.0
23	17	35	47	869	83.0	-292240.0	-2741803.0	52123.0
23	17	35	47	870	84.0	-275952.0	-2739286.0	52126.0
23	17	35	47	870	85.0	-259442.0	-2737071.0	52296.0
23	17	35	47	871	86.0	-245544.0	-2737516.0	52328.0
23	17	35	47	871	87.0	-236282.0	-2738754.0	52626.0
23	17	35	47	872	88.0	-231528.0	-2742859.0	52332.0
23	17	35	47	873	89.0	-226776.0	-2747564.0	52187.0
23	17	35	47	873	90.0	-223542.0	-2746038.0	52162.0
23	17	35	47	874	91.0	-223421.0	-2743043.0	51945.0
23	17	35	47	892	92.0	-224741.0	-2741114.0	51824.0
23	17	35	47	893	93.0	-225885.0	-2739282.0	51497.0
23	17	35	47	893	94.0	-228090.0	-2738384.0	51121.0
23	17	35	47	894	95.0	-230443.0	-2738392.0	51347.0
23	17	35	47	895	96.0	-230939.0	-2739272.0	51236.0
23	17	35	47	896	97.0	-227229.0	-2740216.0	51033.0
23	17	35	47	896	98.0	-219579.0	-2740550.0	50796.0
23	17	35	47	897	99.0	-209274.0	-2741441.0	50444.0
23	17	35	47	898	100.0	-198721.0	-2743801.0	50479.0
23	17	35	47	898	101.0	-189606.0	-2744738.0	50629.0
23	17	35	47	899	102.0	-182908.0	-2744200.0	50673.0
23	17	35	47	899	103.0	-178743.0	-2742699.0	50238.0
23	17	35	47	900	104.0	-176513.0	-2741151.0	49757.0
23	17	35	47	901	105.0	-175286.0	-2740391.0	49805.0
23	17	35	47	901	106.0	-173587.0	-2731114.0	50163.0
23	17	35	47	914	107.0	-170864.0	-2726937.0	50093.0
23	17	35	47	914	108.0	-167945.0	-2728774.0	50008.0
23	17	35	47	915	109.0	-164455.0	-2731277.0	49888.0
23	17	35	47	916	110.0	-160829.0	-2732599.0	49518.0
23	17	35	47	916	111.0	-157621.0	-2731636.0	49575.0
23	17	35	47	917	112.0	-155055.0	-2729560.0	49604.0
23	17	35	47	940	113.0	-153169.0	-2725799.0	49364.0
23	17	35	47	940	114.0	-152298.0	-2723059.0	48898.0
23	17	35	47	941	115.0	-152531.0	-2722577.0	49072.0
23	17	35	47	942	116.0	-153266.0	-2723561.0	49279.0
23	17	35	47	942	117.0	-154741.0	-2723463.0	49034.0
23	17	35	47	943	118.0	-158601.0	-2722931.0	49004.0
23	17	35	47	944	119.0	-166391.0	-2722431.0	48986.0
23	17	35	47	945	120.0	-165332.0	-2721056.0	48548.0
23	17	35	47	945	121.0	-168986.0	-2718879.0	48221.0
23	17	35	47	946	122.0	-172134.0	-2715924.0	48223.0
23	17	35	47	947	123.0	-177860.0	-2714867.0	48261.0
23	17	35	47	948	124.0	-183550.0	-2713432.0	48075.0
23	17	35	47	949	125.0	-189655.0	-2711847.0	48135.0
23	17	35	47	949	126.0	-195407.0	-2711911.0	48391.0
23	17	35	47	950	127.0	-200891.0	-2712628.0	48423.0
23	17	35	47	951	128.0	-205774.0	-2712333.0	48493.0
23	17	35	47	951	129.0	-210030.0	-2710477.0	48331.0
23	17	35	47	952	130.0	-213289.0	-2708251.0	48414.0
23	17	35	47	953	131.0	-215997.0	-2706934.0	48052.0
23	17	35	47	962	132.0	-218694.0	-2704153.0	47766.0
23	17	35	47	963	133.0	-220691.0	-2700912.0	47338.0
23	17	35	47	963	134.0	-221357.0	-2698844.0	47319.0
23	17	35	47	985	135.0	-221210.0	-2697336.0	47487.0
23	17	35	47	986	136.0	-220831.0	-2696846.0	47731.0
23	17	35	47	987	137.0	-220946.0	-2697155.0	47606.0
23	17	35	47	987	138.0	-221426.0	-2696569.0	47669.0
23	17	35	47	988	139.0	-222003.0	-2696038.0	47296.0
23	17	35	47	989	140.0	-221789.0	-2695206.0	47004.0
23	17	35	47	989	141.0	-221166.0	-2693722.0	47191.0
23	17	35	47	990	142.0	-220501.0	-2691766.0	47028.0
23	17	35	47	990	143.0	-219508.0	-2690957.0	46855.0
23	17	35	47	991	144.0	-218467.0	-2689819.0	47037.0
23	17	35	47	992	145.0	-217682.0	-2688221.0	46943.0
23	17	35	47	992	146.0	-217164.0	-2689407.0	47233.0
23	17	35	47	993	147.0	-216406.0	-2690824.0	47350.0
23	17	35	47	993	148.0	-215662.0	-2691005.0	47176.0
23	17	35	47	994	149.0	-215197.0	-2691335.0	46870.0
23	17	35	47	995	150.0	-214735.0	-2691324.0	47034.0
23	17	35	48	9	151.0	-214718.0	-2689769.0	47039.0
23	17	35	48	10	152.0	-214953.0	-2688011.0	46904.0
23	17	35	48	10	153.0	-215532.0	-2685464.0	46294.0
23	17	35	48	17	154.0	-215884.0	-2683531.0	46204.0
23	17	35	48	19	155.0	-216179.0	-2683874.0	46735.0
23	17	35	48	21	156.0	-216971.0	-2685251.0	46844.0
23	17	35	48	22	157.0	-217722.0	-2685612.0	46878.0
23	17	35	48	22	158.0	-218962.0	-2685309.0	46898.0
23	17	35	48	23	159.0	-220436.0	-2684490.0	46796.0
23	17	35	48	23	160.0	-221216.0	-2684129.0	46195.0
23	17	35	48	24	161.0	-221077.0	-2684097.0	46274.0
23	17	35	48	24	162.0	-220474.0	-2682461.0	46383.0
23	17	35	48	25	163.0	-219585.0	-2679951.0	46147.0
23	17	35	48	26	164.0	-217968.0	-2678065.0	45904.0
23	17	35	48	26	165.0	-216171.0	-2677024.0	46228.0
23	17	35	48	33	166.0	-214351.0	-2676804.0	46108.0
23	17	35	48	56	167.0	-212186.0	-2676665.0	45898.0
23	17	35	48	57	168.0	-209744.0	-2674307.0	45772.0
23	17	35	48	58	169.0	-207644.0	-2672084.0	45538.0
23	17	35	48	58	170.0	-205807.0	-2670760.0	45355.0
23	17	35	48	59	171.0	-204571.0	-2675992.0	45671.0
23	17	35	48	59	172.0	-204078.0	-2685782.0	45495.0
23	17	35	48	60	173.0	-204097.0	-2683618.0	45480.0
23	17	35	48	60	174.0	-204594.0	-2681407.0	45126.0
23	17	35	48	61	175.0	-205301.0	-2682161.0	44928.0
23	17	35	48	62	176.0	-206152.0	-2689500.0	44922.0
23	17	35	48	62	177.0	-207229.0	-2691332.0	45271.0
23	17	35	48	63	178.0	-208807.0	-2690656.0	45130.0
23	17	35	48	63	179.0	-210487.0	-2690272.0	44779.0
23	17	35	48	79	180.0	-211951.0	-2689679.0	44818.0
23	17	35	48	79	181.0	-213179.0	-2688829.0	44716.0
23	17	35	48	80	182.0	-214122.0	-2686583.0	44816.0
23	17	35	48	81	183.0	-215027.0	-2684477.0	44778.0
23	17	35	48	81	184.0	-215977.0	-2683834.0	44439.0
23	17	35	48	82	185.0	-217168.0	-2683584.0	43984.0
23	17	35	48	82	186.0	-218517.0	-2683232.0	44099.0
23	17	35	48	83	187.0	-219578.0	-2682913.0	44136.0
23	17	35	48	83	188.0	-220645.0	-2681424.0	43626.0
23	17	35	48	84	189.0	-221571.0	-2679357.0	43481.0
23	17	35	48	84	190.0	-222124.0	-2677872.0	43700.0
23	17	35	48	85	191.0	-222712.0	-2676129.0	43371.0
23	17	35	48	85	192.0	-223448.0	-2674414.0	42626.0
23	17	35	48	86	193.0	-223540.0	-2671791.0	42638.0
23	17	35	48	87	194.0	-222910.0	-2668560.0	42864.0
23	17	35	48	101	195.0	-222011.0	-2667662.0	42567.0
23	17	35	48	101	196.0	-220956.0	-2668809.0	42424.0
23	17	35	48	102	197.0	-219404.0	-2670553.0	42651.0
23	17	35	48	103	198.0	-217467.0	-2669779.0	42410.0
23	17	35	48	103	199.0	-215756.0	-2668249.0	41974.0
23	17	35	48	104	200.0	-214128.0	-2664016.0	42207.0
23	17	35	48	104	201.0	-212877.0	-2662075.0	42072.0
23	17	35	48	105	202.0	-212301.0	-2660947.0	41308.0
23	17	35	48	105	203.0	-211874.0	-2658109.0	41237.0
23	17	35	48	123	204.0	-211533.0	-2649624.0	41484.0
23	17	35	48	124	205.0	-211142.0	-2639834.0	41357.0
23	17	35	48	125	206.0	-210715.0	-2640890.0	41429.0
23	17	35	48	125	207.0	-210482.0	-2642787.0	41669.0
23	17	35	48	126	208.0	-210396.0	-2644240.0	41790.0
23	17	35	48	126	209.0	-210763.0	-2644672.0	41523.0
23	17	35	48	127	210.0	-211351.0	-2644807.0	41378.0
23	17	35	48	127	211.0	-212241.0	-2645938.0	41163.0
23	17	35	48	128	212.0	-213404.0	-2645167.0	41136.0
23	17	35	48	128	213.0	-214804.0	-2643506.0	41339.0
23	17	35	48	129	214.0	-216097.0	-2642821.0	41634.0
23	17	35	48	130	215.0	-215546.0	-2643471.0	41728.0
23	17	35	48	130	216.0	-212703.0	-2645367.0	42060.0
23	17	35	48	131	217.0	-212314.0	-2646838.0	42249.0
23	17	35	48	131	218.0	-212909.0	-2647223.0	42578.0
23	17	35	48	146	219.0	-215539.0	-2647835.0	42609.0
23	17	35	48	147	220.0	-213713.0	-2647957.0	42548.0
23	17	35	48	147	221.0	-213359.0	-2647829.0	42529.0
23	17	35	48	148	222.0	-213623.0	-2646936.0	42974.0
23	17	35	48	149	223.0	-211981.0	-2645843.0	42762.0
23	17	35	48	149	224.0	-208251.0	-2645348.0	42459.0
23	17	35	48	150	225.0	-201995.0	-2645387.0	42863.0
23	17	35	48	150	226.0	-195396.0	-2647191.0	43249.0
23	17	35	48	151	227.0	-189908.0	-2648726.0	43199.0
23	17	35	48	152	228.0	-186476.0	-2651237.0	43414.0
23	17	35	48	152	229.0	-185526.0	-2655819.0	43556.0
23	17	35	48	153	230.0	-186250.0	-2655252.0	43731.0
23	17	35	48	153	231.0	-186646.0	-2654732.0	43218.0
23	17	35	48	154	232.0	-185811.0	-2652438.0	43064.0
23	17	35	48	171	233.0	-184013.0	-2649134.0	43068.0
23	17	35	48	171	234.0	-182469.0	-2647157.0	43143.0
23	17	35	48	172	235.0	-181572.0	-2645977.0	43308.0
23	17	35	48	173	236.0	-181782.0	-2647301.0	43651.0
23	17	35	48	173	237.0	-183592.0	-2654720.0	43625.0
23	17	35	48	174	238.0	-186321.0	-2657167.0	43573.0
23	17	35	48	174	239.0	-188421.0	-2651927.0	43350.0
23	17	35	48	175	240.0	-189809.0	-2649102.0	42888.0
23	17	35	48	194	241.0	-190548.0	-2648172.0	43081.0
23	17	35	48	194	242.0	-190706.0	-2646530.0	43049.0
23	17	35	48	195	243.0	-190338.0	-2644921.0	42978.0
23	17	35	48	195	244.0	-189376.0	-2642981.0	42861.0
23	17	35	48	196	245.0	-188207.0	-2642406.0	43156.0
23	17	35	48	196	246.0	-187329.0	-2643095.0	43147.0
23	17	35	48	197	247.0	-186857.0	-2644654.0	42869.0
23	17	35	48	198	248.0	-186426.0	-2647651.0	42614.0
23	17	35	48	198	249.0	-185861.0	-2647676.0	42730.0
23	17	35	48	199	250.0	-185636.0	-2646741.0	42847.0
23	17	35	48	200	251.0	-185181.0	-2645274.0	42586.0
23	17	35	48	200	252.0	-184454.0	-2642775.0	42214.0
23	17	35	48	201	253.0	-183292.0	-2640307.0	41903.0
23	17	35	48	201	254.0	-182070.0	-2638379.0	41843.0
23	17	35	48	202	255.0	-181314.0	-2636899.0	42215.0
23	17	35	48	216	0.0	-181463.0	-2640207.0	42348.0
23	17	35	48	217	1.0	-181762.0	-2653102.0	42685.0
23	17	35	48	218	2.0	-182508.0	-2656119.0	42369.0
23	17	35	48	218	3.0	-183879.0	-2655634.0	42208.0
23	17	35	48	219	4.0	-185621.0	-2655096.0	42168.0
23	17	35	48	219	5.0	-187496.0	-2653774.0	42246.0
23	17	35	48	220	6.0	-189342.0	-2651684.0	42168.0
23	17	35	48	220	7.0	-190966.0	-2648044.0	42018.0
23	17	35	48	240	8.0	-192279.0	-2646774.0	42382.0
23	17	35	48	241	9.0	-193651.0	-2648451.0	42713.0
23	17	35	48	241	10.0	-195561.0	-2650614.0	42821.0
23	17	35	48	242	11.0	-197719.0	-2650514.0	42886.0
23	17	35	48	242	12.0	-199824.0	-2646928.0	43066.0
23	17	35	48	243	13.0	-201769.0	-2645031.0	42496.0
23	17	35	48	244	14.0	-203704.0	-2644038.0	42454.0
23	17	35	48	244	15.0	-205486.0	-2643113.0	42769.0
23	17	35	48	245	16.0	-207206.0	-2641538.0	42457.0
23	17	35	48	245	17.0	-208930.0	-2640727.0	42173.0
23	17	35	48	246	18.0	-209902.0	-2639894.0	42726.0
23	17	35	48	247	19.0	-210216.0	-2639840.0	43030.0
23	17	35	48	247	20.0	-210108.0	-2640751.0	42890.0
23	17	35	48	248	21.0	-209704.0	-2641300.0	42726.0
23	17	35	48	263	22.0	-209069.0	-2640191.0	42753.0
23	17	35	48	263	23.0	-208720.0	-2638084.0	42577.0
23	17	35	48	264	24.0	-209047.0	-2636347.0	42544.0
23	17	35	48	264	25.0	-209801.0	-2634579.0	42646.0
23	17	35	48	265	26.0	-210697.0	-2632056.0	42194.0
23	17	35	48	287	27.0	-211649.0	-2629084.0	41761.0
23	17	35	48	288	28.0	-212655.0	-2628436.0	41848.0
23	17	35	48	288	29.0	-213687.0	-2629094.0	42166.0
23	17	35	48	289	30.0	-214590.0	-2630899.0	42136.0
23	17	35	48	290	31.0	-215473.0	-2638607.0	41753.0
23	17	35	48	290	32.0	-216247.0	-2645971.0	41476.0
23	17	35	48	291	33.0	-217255.0	-2643345.0	41255.0
23	17	35	48	291	34.0	-218587.0	-2641486.0	41063.0
23	17	35	48	292	35.0	-219866.0	-2640943.0	40937.0
23	17	35	48	292	36.0	-220543.0	-2638844.0	40624.0
23	17	35	48	293	37.0	-220611.0	-2636337.0	40456.0
23	17	35	48	293	38.0	-219940.0	-2635386.0	40054.0
23	17	35	48	294	39.0	-218757.0	-2636654.0	40068.0
23	17	35	48	295	40.0	-217372.0	-2632927.0	40196.0
23	17	35	48	295	41.0	-215538.0	-2627333.0	40203.0
23	17	35	48	296	42.0	-213433.0	-2627169.0	40163.0
23	17	35	48	296	43.0	-211653.0	-2627098.0	39851.0
23	17	35	48	311	44.0	-210246.0	-2625709.0	39970.0
23	17	35	48	311	45.0	-209146.0	-2624088.0	39872.0
23	17	35	48	312	46.0	-208684.0	-2622239.0	39394.0
23	17	35	48	313	47.0	-208556.0	-2620814.0	39299.0
23	17	35	48	313	48.0	-208389.0	-2620523.0	39649.0
23	17	35	48	314	49.0	-208275.0	-2621561.0	39676.0
23	17	35	48	314	50.0	-208432.0	-2622638.0	40163.0
23	17	35	48	315	51.0	-208469.0	-2623004.0	40201.0
23	17	35	48	315	52.0	-208263.0	-2622656.0	39731.0
23	17	35	48	316	53.0	-208072.0	-2623090.0	39695.0
23	17	35	48	317	54.0	-208326.0	-2622308.0	39902.0
23	17	35	48	317	55.0	-208562.0	-2621175.0	39684.0
23	17	35	48	318	56.0	-208189.0	-2620535.0	39227.0
23	17	35	48	318	57.0	-207692.0	-2618042.0	39329.0
23	17	35	48	319	58.0	-207429.0	-2616164.0	39186.0
23	17	35	48	334	59.0	-207058.0	-2617225.0	38888.0
23	17	35	48	335	60.0	-206297.0	-2619030.0	39186.0
23	17	35	48	335	61.0	-205170.0	-2619402.0	39463.0
23	17	35	48	336	62.0	-204256.0	-2615019.0	39023.0
23	17	35	48	336	63.0	-203132.0	-2612820.0	39111.0
23	17	35	48	337	64.0	-201659.0	-2612694.0	39289.0
23	17	35	48	338	65.0	-200191.0	-2611449.0	39051.0
23	17	35	48	338	66.0	-199324.0	-2609204.0	38424.0
23	17	35	48	339	67.0	-198774.0	-2608287.0	38409.0
23	17	35	48	357	68.0	-198204.0	-2603720.0	38650.0
23	17	35	48	358	69.0	-198085.0	-2596674.0	38855.0
23	17	35	48	358	70.0	-198540.0	-2597907.0	38836.0
23	17	35	48	359	71.0	-199211.0	-2599657.0	38935.0
23	17	35	48	359	72.0	-199541.0	-2600186.0	38673.0
23	17	35	48	360	73.0	-199900.0	-2600073.0	38674.0
23	17	35	48	360	74.0	-200767.0	-2598845.0	38571.0
23	17	35	48	361	75.0	-201800.0	-2597198.0	38173.0
23	17	35	48	362	76.0	-202452.0	-2595576.0	38088.0
23	17	35	48	362	77.0	-202700.0	-2594855.0	37889.0
23	17	35	48	363	78.0	-203004.0	-2595928.0	37911.0
23	17	35	48	363	79.0	-203080.0	-2598644.0	38109.0
23	17	35	48	364	80.0	-203075.0	-2600500.0	37984.0
23	17	35	48	365	81.0	-203051.0	-2601501.0	37558.0
23	17	35	48	365	82.0	-202786.0	-2601751.0	37549.0
23	17	35	48	379	83.0	-202371.0	-2601232.0	37838.0
23	17	35	48	380	84.0	-201666.0	-2598907.0	37762.0
23	17	35	48	381	85.0	-200824.0	-2597541.0	37759.0
23	17	35	48	381	86.0	-199434.0	-2595571.0	37583.0
23	17	35	48	382	87.0	-198057.0	-2594177.0	37107.0
23	17	35	48	382	88.0	-197311.0	-2594121.0	37023.0
23	17	35	48	402	89.0	-197344.0	-2595573.0	37613.0
23	17	35	48	403	90.0	-198260.0	-2589997.0	37758.0
23	17	35	48	404	91.0	-199917.0	-2581391.0	37534.0
23	17	35	48	404	92.0	-202025.0	-2580575.0	37368.0
23	17	35	48	405	93.0	-204091.0	-2578751.0	37220.0
23	17	35	48	405	94.0	-206235.0	-2575412.0	36904.0
23	17	35	48	406	95.0	-208280.0	-2572430.0	36814.0
23	17	35	48	407	96.0	-210197.0	-2568709.0	36974.0
23	17	35	48	407	97.0	-212389.0	-2565346.0	36664.0
23	17	35	48	408	98.0	-214818.0	-2564772.0	36676.0
23	17	35	48	408	99.0	-217387.0	-2566099.0	37431.0
23	17	35	48	409	100.0	-219431.0	-2567198.0	37454.0
23	17	35	48	409	101.0	-220649.0	-2566865.0	36873.0
23	17	35	48	410	102.0	-221092.0	-2564692.0	36868.0
23	17	35	48	411	103.0	-220500.0	-2562711.0	37246.0
23	17	35	48	424	104.0	-219084.0	-2559817.0	37005.0
23	17	35	48	425	105.0	-217067.0	-2556307.0	36447.0
23	17	35	48	425	106.0	-214598.0	-2553731.0	36269.0
23	17	35	48	426	107.0	-211497.0	-2552322.0	36189.0
23	17	35	48	426	108.0	-208142.0	-2552605.0	36188.0
23	17	35	48	427	109.0	-204698.0	-2557359.0	36859.0
23	17	35	48	428	110.0	-201369.0	-2563579.0	37029.0
23	17	35	48	428	111.0	-198017.0	-2568681.0	36798.0
23	17	35	48	448	112.0	-194898.0	-2574709.0	36837.0
23	17	35	48	449	113.0	-192087.0	-2574317.0	36636.0
23	17	35	48	450	114.0	-189539.0	-2573270.0	36393.0
23	17	35	48	450	115.0	-187233.0	-2570381.0	36349.0
23	17	35	48	451	116.0	-185250.0	-2566133.0	35848.0
23	17	35	48	451	117.0	-183578.0	-2561895.0	35599.0
23	17	35	48	452	118.0	-181924.0	-2551148.0	35870.0
23	17	35	48	453	119.0	-180556.0	-2547913.0	36216.0
23	17	35	48	453	120.0	-179675.0	-2549044.0	36204.0
23	17	35	48	454	121.0	-178942.0	-2550007.0	36301.0
23	17	35	48	454	122.0	-178362.0	-2549374.0	36159.0
23	17	35	48	455	123.0	-177897.0	-2547625.0	35697.0
23	17	35	48	455	124.0	-177369.0	-2546676.0	35831.0
23	17	35	48	456	125.0	-177151.0	-2544716.0	35834.0
23	17	35	48	456	126.0	-177542.0	-2541841.0	35246.0
23	17	35	48	470	127.0	-178544.0	-2539591.0	35147.0
23	17	35	48	471	128.0	-180006.0	-2539300.0	35456.0
23	17	35	48	471	129.0	-181731.0	-2540274.0	35446.0
23	17	35	48	472	130.0	-183696.0	-2540634.0	35435.0
23	17	35	48	473	131.0	-186001.0	-2540182.0	35769.0
23	17	35	48	473	132.0	-187813.0	-2539397.0	35806.0
23	17	35	48	474	133.0	-189575.0	-2538382.0	35347.0
23	17	35	48	474	134.0	-192094.0	-2536728.0	35626.0
23	17	35	48	493	135.0	-195220.0	-2533736.0	35556.0
23	17	35	48	493	136.0	-198265.0	-2530829.0	35079.0
23	17	35	48	494	137.0	-200987.0	-2530400.0	34819.0
23	17	35	48	495	138.0	-203363.0	-2529803.0	35395.0
23	17	35	48	495	139.0	-205050.0	-2529547.0	35666.0
23	17	35	48	496	140.0	-206828.0	-2530015.0	35578.0
23	17	35	48	496	141.0	-208724.0	-2529393.0	35451.0
23	17	35	48	497	142.0	-209941.0	-2519331.0	35053.0
23	17	35	48	498	143.0	-211020.0	-2507736.0	34932.0
23	17	35	48	499	144.0	-212210.0	-2506159.0	35390.0
23	17	35	48	499	145.0	-213211.0	-2504672.0	35106.0
23	17	35	48	500	146.0	-213586.0	-2502289.0	34888.0
23	17	35	48	500	147.0	-213270.0	-2500741.0	34883.0
23	17	35	48	501	148.0	-212646.0	-2500647.0	35107.0
23	17	35	48	502	149.0	-211624.0	-2502204.0	35388.0
23	17	35	48	515	150.0	-210619.0	-2503146.0	35456.0
23	17	35	48	516	151.0	-209469.0	-2511019.0	35548.0
23	17	35	48	517	152.0	-208141.0	-2520584.0	35348.0
23	17	35	48	517	153.0	-206814.0	-2519334.0	35109.0
23	17	35	48	518	154.0	-205364.0	-2515023.0	35059.0
23	17	35	48	518	155.0	-203561.0	-2512351.0	34902.0
23	17	35	48	519	156.0	-201966.0	-2509909.0	34689.0
23	17	35	48	538	157.0	-200693.0	-2506242.0	34874.0
23	17	35	48	539	158.0	-199409.0	-2505424.0	35006.0
23	17	35	48	540	159.0	-198402.0	-2506062.0	35176.0
23	17	35	48	540	160.0	-197759.0	-2505048.0	35558.0
23	17	35	48	541	161.0	-197439.0	-2499129.0	35081.0
23	17	35	48	542	162.0	-197766.0	-2487061.0	34978.0
23	17	35	48	542	163.0	-198327.0	-2483457.0	35099.0
23	17	35	48	543	164.0	-198816.0	-2480027.0	35151.0
23	17	35	48	544	165.0	-199374.0	-2476581.0	34866.0
23	17	35	48	544	166.0	-199977.0	-2473059.0	34830.0
23	17	35	48	545	167.0	-200331.0	-2470811.0	34754.0
23	17	35	48	546	168.0	-200502.0	-2463886.0	34456.0
23	17	35	48	546	169.0	-200594.0	-2456704.0	34707.0
23	17	35	48	547	170.0	-200656.0	-2456736.0	35073.0
23	17	35	48	547	171.0	-200571.0	-2455186.0	34719.0
23	17	35	48	560	172.0	-199990.0	-2453092.0	34791.0
23	17	35	48	561	173.0	-199609.0	-2451943.0	35149.0
23	17	35	48	561	174.0	-199531.0	-2449413.0	34711.0
23	17	35	48	562	175.0	-199126.0	-2445994.0	34234.0
23	17	35	48	563	176.0	-198319.0	-2442956.0	34509.0
23	17	35	48	563	177.0	-197824.0	-2440736.0	34684.0
23	17	35	48	564	178.0	-197222.0	-2440582.0	34399.0
23	17	35	48	564	179.0	-196495.0	-2441091.0	34551.0
23	17	35	48	584	180.0	-196009.0	-2441183.0	34676.0
23	17	35	48	585	181.0	-195634.0	-2442300.0	34621.0
23	17	35	48	586	182.0	-195032.0	-2442377.0	34166.0
23	17	35	48	586	183.0	-194272.0	-2440770.0	34125.0
23	17	35	48	587	184.0	-193396.0	-2437939.0	34183.0
23	17	35	48	587	185.0	-191992.0	-2434897.0	33879.0
23	17	35	48	588	186.0	-190121.0	-2431606.0	33878.0
23	17	35	48	589	187.0	-188087.0	-2429788.0	34148.0
23	17	35	48	589	188.0	-185987.0	-2429206.0	34007.0
23	17	35	48	590	189.0	-184384.0	-2429296.0	33991.0
23	17	35	48	590	190.0	-183360.0	-2429468.0	33989.0
23	17	35	48	591	191.0	-182693.0	-2430063.0	33940.0
23	17	35	48	592	192.0	-182497.0	-2429911.0	33797.0
23	17	35	48	592	193.0	-182666.0	-2428977.0	33654.0
23	17	35	48	607	194.0	-183649.0	-2427044.0	33601.0
23	17	35	48	607	195.0	-185109.0	-2423932.0	33564.0
23	17	35	48	608	196.0	-187089.0	-2421217.0	33369.0
23	17	35	48	609	197.0	-189654.0	-2420016.0	33471.0
23	17	35	48	609	198.0	-192366.0	-2419899.0	33693.0
23	17	35	48	610	199.0	-195337.0	-2421036.0	33640.0
23	17	35	48	610	200.0	-198386.0	-2422587.0	33335.0
23	17	35	48	611	201.0	-201188.0	-2423353.0	33318.0
23	17	35	48	631	202.0	-203483.0	-2425328.0	33193.0
23	17	35	48	631	203.0	-205302.0	-2429571.0	32821.0
23	17	35	48	632	204.0	-207191.0	-2428877.0	32659.0
23	17	35	48	632	205.0	-208923.0	-2426385.0	32756.0
23	17	35	48	633	206.0	-210226.0	-2424697.0	32505.0
23	17	35	48	634	207.0	-210524.0	-2424276.0	32540.0
23	17	35	48	634	208.0	-210357.0	-2424359.0	33016.0
23	17	35	48	635	209.0	-209657.0	-2425224.0	33121.0
23	17	35	48	636	210.0	-208287.0	-2426227.0	33067.0
23	17	35	48	636	211.0	-206184.0	-2432177.0	33006.0
23	17	35	48	637	212.0	-203986.0	-2442278.0	33117.0
23	17	35	48	637	213.0	-201966.0	-2440819.0	32663.0
23	17	35	48	638	214.0	-199958.0	-2438259.0	32294.0
23	17	35	48	638	215.0	-198208.0	-2436242.0	32046.0
23	17	35	48	639	216.0	-196516.0	-2434292.0	31951.0
23	17	35	48	653	217.0	-195012.0	-2432866.0	31726.0
23	17	35	48	654	218.0	-193811.0	-2429970.0	31956.0
23	17	35	48	654	219.0	-192579.0	-2430527.0	32354.0
23	17	35	48	655	220.0	-191666.0	-2431473.0	32031.0
23	17	35	48	655	221.0	-190839.0	-2430918.0	31951.0
23	17	35	48	656	222.0	-189664.0	-2430778.0	32198.0
23	17	35	48	656	223.0	-188469.0	-2430259.0	32119.0
23	17	35	48	675	224.0	-187712.0	-2428508.0	31733.0
23	17	35	48	676	225.0	-187046.0	-2426374.0	31769.0
23	17	35	48	677	226.0	-186597.0	-2423904.0	31657.0
23	17	35	48	677	227.0	-186319.0	-2421764.0	31381.0
23	17	35	48	678	228.0	-186204.0	-2422666.0	31431.0
23	17	35	48	679	229.0	-185947.0	-2423751.0	31794.0
23	17	35	48	679	230.0	-185554.0	-2424101.0	32026.0
23	17	35	48	680	231.0	-185457.0	-2420321.0	32053.0
23	17	35	48	680	232.0	-185638.0	-2418904.0	31772.0
23	17	35	48	681	233.0	-185876.0	-2417852.0	31480.0
23	17	35	48	681	234.0	-186527.0	-2417129.0	31491.0
23	17	35	48	682	235.0	-187439.0	-2416137.0	31239.0
23	17	35	48	683	236.0	-188389.0	-2414577.0	31054.0
23	17	35	48	683	237.0	-189369.0	-2418680.0	31120.0
23	17	35	48	684	238.0	-190446.0	-2425397.0	30913.0
23	17	35	48	699	239.0	-190861.0	-2426572.0	30563.0
23	17	35	48	700	240.0	-191184.0	-2426175.0	30428.0
23	17	35	48	701	241.0	-191671.0	-2426449.0	30331.0
23	17	35	48	701	242.0	-191902.0	-2426131.0	29918.0
23	17	35	48	702	243.0	-191954.0	-2426034.0	29726.0
23	17	35	48	702	244.0	-191943.0	-2425160.0	29701.0
23	17	35	48	703	245.0	-192065.0	-2422176.0	29264.0
23	17	35	48	703	246.0	-192634.0	-2418356.0	29335.0
23	17	35	48	722	247.0	-193505.0	-2416946.0	29931.0
23	17	35	48	722	248.0	-194519.0	-2417067.0	30025.0
23	17	35	48	723	249.0	-195592.0	-2418152.0	30273.0
23	17	35	48	724	250.0	-196652.0	-2419187.0	30723.0
23	17	35	48	724	251.0	-196987.0	-2419362.0	30637.0
23	17	35	48	725	252.0	-197334.0	-2419307.0	29922.0
23	17	35	48	725	253.0	-197794.0	-2418418.0	29254.0
23	17	35	48	726	254.0	-198187.0	-2416852.0	29282.0
23	17	35	48	727	255.0	-199161.0	-2414622.0	29146.0
23	17	35	48	727	0.0	-200570.0	-2413612.0	29018.0
23	17	35	48	728	1.0	-201991.0	-2414141.0	29026.0
23	17	35	48	728	2.0	-203060.0	-2415784.0	28935.0
23	17	35	48	729	3.0	-203994.0	-2418098.0	28891.0
23	17	35	48	729	4.0	-204726.0	-2419872.0	29210.0
23	17	35	48	730	5.0	-205406.0	-2419550.0	29594.0
23	17	35	48	753	6.0	-206354.0	-2418272.0	29416.0
23	17	35	48	753	7.0	-207221.0	-2416454.0	29368.0
23	17	35	48	754	8.0	-207954.0	-2414144.0	29469.0
23	17	35	48	754	9.0	-208326.0	-2411632.0	29236.0
23	17	35	48	755	10.0	-208639.0	-2409944.0	29109.0
23	17	35	48	756	11.0	-208722.0	-2408516.0	29185.0
23	17	35	48	756	12.0	-208371.0	-2408070.0	29213.0
23	17	35	48	757	13.0	-207527.0	-2408117.0	29114.0
23	17	35	48	757	14.0	-206321.0	-2408415.0	29201.0
23	17	35	48	758	15.0	-204779.0	-2408347.0	28736.0
23	17	35	48	758	16.0	-203036.0	-2406546.0	28455.0
23	17	35	48	759	17.0	-201121.0	-2394780.0	28384.0
23	17	35	48	759	18.0	-199277.0	-2388248.0	28272.0
23	17	35	48	760	19.0	-197172.0	-2386594.0	28124.0
23	17	35	48	761	20.0	-194908.0	-2385770.0	27925.0
23	17	35	48	776	21.0	-192344.0	-2383820.0	27720.0
23	17	35	48	777	22.0	-190125.0	-2383447.0	28035.0
23	17	35	48	777	23.0	-188239.0	-2385487.0	28113.0
23	17	35	48	778	24.0	-186482.0	-2388161.0	27698.0
23	17	35	48	778	25.0	-184804.0	-2388214.0	27444.0
23	17	35	48	779	26.0	-183695.0	-2387523.0	27577.0
23	17	35	48	779	27.0	-183235.0	-2384530.0	27493.0
23	17	35	48	798	28.0	-182944.0	-2378341.0	26898.0
23	17	35	48	799	29.0	-183041.0	-2375391.0	26993.0
23	17	35	48	800	30.0	-183404.0	-2374805.0	27504.0
23	17	35	48	800	31.0	-184218.0	-2375856.0	27639.0
23	17	35	48	801	32.0	-185427.0	-2382317.0	27983.0
23	17	35	48	801	33.0	-186751.0	-2387821.0	28284.0
23	17	35	48	802	34.0	-187895.0	-2388810.0	28448.0
23	17	35	48	802	35.0	-188622.0	-2388191.0	29133.0
23	17	35	48	803	36.0	-189808.0	-2391022.0	30399.0
23	17	35	48	803	37.0	-191244.0	-2398429.0	31380.0
23	17	35	48	804	38.0	-192982.0	-2397820.0	30959.0
23	17	35	48	804	39.0	-195388.0	-2396158.0	30451.0
23	17	35	48	805	40.0	-198234.0	-2394457.0	29369.0
23	17	35	48	806	41.0	-201560.0	-2393551.0	27493.0
23	17	35	48	806	42.0	-204849.0	-2395248.0	25819.0
23	17	35	48	826	43.0	-207905.0	-2397127.0	23396.0
23	17	35	48	845	44.0	-211458.0	-2397627.0	19310.0
23	17	35	48	846	45.0	-215509.0	-2397481.0	14338.0
23	17	35	48	847	46.0	-220219.0	-2397307.0	9815.0
23	17	35	48	847	47.0	-225150.0	-2397360.0	4569.0
23	17	35	48	848	48.0	-229881.0	-2396962.0	-344.0
23	17	35	48	848	49.0	-233377.0	-2394931.0	-3915.0
23	17	35	48	849	50.0	-234880.0	-2392973.0	-7164.0
23	17	35	48	849	51.0	-233976.0	-2393067.0	-11050.0
23	17	35	48	850	52.0	-230262.0	-2394599.0	-16517.0
23	17	35	48	851	53.0	-223512.0	-2396736.0	-21404.0
23	17	35	48	851	54.0	-214044.0	-2398912.0	-22009.0
23	17	35	48	852	55.0	-202947.0	-2399087.0	-20217.0
23	17	35	48	852	56.0	-191159.0	-2401412.0	-16145.0
23	17	35	48	853	57.0	-179237.0	-2412754.0	-10127.0
23	17	35	48	853	58.0	-168381.0	-2413657.0	-2461.0
23	17	35	48	854	64.0	-144708.0	-2413363.0	24451.0
23	17	35	48	854	65.0	-130141.0	-2412336.0	26966.0
23	17	35	48	855	66.0	-102371.0	-2411484.0	26764.0
23	17	35	48	872	67.0	-72026.0	-2410460.0	25469.0
23	17	35	48	872	68.0	-48219.0	-2408682.0	24720.0
23	17	35	48	873	69.0	-49409.0	-2406192.0	24159.0
23	17	35	48	873	70.0	-67822.0	-2405346.0	23540.0
23	17	35	48	874	71.0	-96899.0	-2406572.0	23369.0
23	17	35	48	875	72.0	-126161.0	-2408421.0	23527.0
23	17	35	48	875	73.0	-152952.0	-2409255.0	23726.0
23	17	35	48	876	74.0	-180829.0	-2409059.0	24038.0
23	17	35	48	894	75.0	-210920.0	-2408304.0	24352.0
23	17	35	48	895	76.0	-238822.0	-2407630.0	24411.0
23	17	35	48	895	77.0	-261258.0	-2407135.0	24516.0
23	17	35	48	896	78.0	-279817.0	-2407086.0	24660.0
23	17	35	48	896	79.0	-295282.0	-2407556.0	24663.0
23	17	35	48	897	80.0	-304933.0	-2408258.0	24832.0
23	17	35	48	898	81.0	-305177.0	-2409991.0	25321.0
23	17	35	48	898	82.0	-295982.0	-2412910.0	25829.0
23	17	35	48	899	83.0	-279856.0	-2416169.0	25701.0
23	17	35	48	899	84.0	-259732.0	-2417682.0	25738.0
23	17	35	48	900	85.0	-238941.0	-2417794.0	25846.0
23	17	35	48	900	86.0	-220626.0	-2417389.0	25544.0
23	17	35	48	901	87.0	-205676.0	-2416003.0	24959.0
23	17	35	48	901	88.0	-197264.0	-2414004.0	24952.0
23	17	35	48	902	89.0	-192126.0	-2412054.0	24664.0
23	17	35	48	903	90.0	-189447.0	-2413839.0	24825.0
23	17	35	48	903	91.0	-190886.0	-2417169.0	25228.0
23	17	35	48	904	92.0	-195879.0	-2418907.0	25139.0
23	17	35	48	904	93.0	-200342.0	-2421047.0	24743.0
23	17	35	48	905	94.0	-204384.0	-2422387.0	24784.0
23	17	35	48	917	95.0	-208579.0	-2428736.0	24823.0
23	17	35	48	917	96.0	-212038.0	-2434069.0	24786.0
23	17	35	48	918	97.0	-213070.0	-2427729.0	24609.0
23	17	35	48	919	98.0	-210271.0	-2413038.0	23999.0
23	17	35	48	919	99.0	-204059.0	-2409592.0	23712.0
23	17	35	48	920	100.0	-196457.0	-2409561.0	23689.0
23	17	35	48	920	101.0	-189534.0	-2409807.0	23488.0
23	17	35	48	921	102.0	-184713.0	-2410314.0	23543.0
23	17	35	48	921	103.0	-183029.0	-2411522.0	24121.0
23	17	35	48	939	104.0	-184075.0	-2411986.0	24208.0
23	17	35	48	940	105.0	-186406.0	-2411434.0	23715.0
23	17	35	48	940	106.0	-189035.0	-2404709.0	23444.0
23	17	35	48	941	107.0	-190569.0	-2393304.0	23341.0
23	17	35	48	941	108.0	-190775.0	-2390371.0	22716.0
23	17	35	48	942	109.0	-190059.0	-2388757.0	22601.0
23	17	35	48	962	110.0	-188831.0	-2388167.0	22968.0
23	17	35	48	962	111.0	-187026.0	-2389778.0	22769.0
23	17	35	48	963	112.0	-184467.0	-2392073.0	22759.0
23	17	35	48	964	113.0	-181800.0	-2394124.0	22846.0
23	17	35	48	964	114.0	-179582.0	-2395356.0	22733.0
23	17	35	48	965	115.0	-178417.0	-2396161.0	22145.0
23	17	35	48	965	116.0	-178042.0	-2396246.0	22262.0
23	17	35	48	966	117.0	-178513.0	-2395745.0	22256.0
23	17	35	48	967	118.0	-179656.0	-2394727.0	21944.0
23	17	35	48	967	119.0	-181857.0	-2393590.0	21964.0
23	17	35	48	968	120.0	-185004.0	-2393516.0	22063.0
23	17	35	48	968	121.0	-188400.0	-2395056.0	22273.0
23	17	35	48	969	122.0	-191972.0	-2397392.0	22146.0
23	17	35	48	969	123.0	-196157.0	-2399277.0	22206.0
23	17	35	48	970	124.0	-201046.0	-2400433.0	22212.0
23	17	35	48	971	125.0	-205774.0	-2400485.0	21843.0
23	17	35	48	971	126.0	-209423.0	-2400246.0	21900.0
23	17	35	48	972	127.0	-212587.0	-2399337.0	21803.0
23	17	35	48	972	128.0	-215349.0	-2396650.0	21634.0
23	17	35	48	985	129.0	-217354.0	-2394982.0	21346.0
23	17	35	48	985	130.0	-218196.0	-2394576.0	21139.0
23	17	35	49	7	131.0	-218160.0	-2395182.0	21160.0
23	17	35	49	8	132.0	-217999.0	-2396496.0	21523.0
23	17	35	49	9	133.0	-217576.0	-2397854.0	21491.0
23	17	35	49	9	134.0	-216731.0	-2398724.0	21315.0
23	17	35	49	10	135.0	-215500.0	-2399608.0	21236.0
23	17	35	49	10	136.0	-214112.0	-2399904.0	20829.0
23	17	35	49	11	137.0	-212665.0	-2399196.0	20592.0
23	17	35	49	11	138.0	-211225.0	-2397526.0	20732.0
23	17	35	49	12	139.0	-209984.0	-2396370.0	20746.0
23	17	35	49	13	140.0	-208876.0	-2396068.0	20648.0
23	17	35	49	13	141.0	-207584.0	-2397330.0	20558.0
23	17	35	49	14	142.0	-206105.0	-2400026.0	21108.0
23	17	35	49	14	143.0	-205067.0	-2402932.0	21168.0
23	17	35	49	15	144.0	-203824.0	-2404774.0	20885.0
23	17	35	49	15	145.0	-202592.0	-2405006.0	20963.0
23	17	35	49	16	146.0	-201932.0	-2399433.0	20977.0
23	17	35	49	32	147.0	-201632.0	-2396646.0	20881.0
23	17	35	49	32	148.0	-201671.0	-2394034.0	20986.0
23	17	35	49	33	149.0	-202099.0	-2392799.0	20588.0
23	17	35	49	34	150.0	-203114.0	-2393589.0	20121.0
23	17	35	49	55	151.0	-204341.0	-2395495.0	20326.0
23	17	35	49	55	152.0	-205784.0	-2398912.0	20815.0
23	17	35	49	56	153.0	-207259.0	-2401166.0	20791.0
23	17	35	49	57	154.0	-208506.0	-2402267.0	20406.0
23	17	35	49	57	155.0	-210489.0	-2402702.0	20517.0
23	17	35	49	58	156.0	-212301.0	-2403489.0	20359.0
23	17	35	49	58	157.0	-213650.0	-2403473.0	20204.0
23	17	35	49	59	158.0	-213822.0	-2398959.0	20334.0
23	17	35	49	59	159.0	-213385.0	-2388219.0	20289.0
23	17	35	49	60	160.0	-212917.0	-2389393.0	20104.0
23	17	35	49	60	161.0	-212597.0	-2396714.0	20303.0
23	17	35	49	61	162.0	-212118.0	-2399709.0	20628.0
23	17	35	49	62	163.0	-211291.0	-2400774.0	20339.0
23	17	35	49	62	164.0	-210302.0	-2400857.0	20092.0
23	17	35	49	63	165.0	-209142.0	-2400055.0	20428.0
23	17	35	49	63	166.0	-207701.0	-2396252.0	20259.0
23	17	35	49	64	167.0	-206395.0	-2394759.0	20054.0
23	17	35	49	64	168.0	-205203.0	-2393981.0	20084.0
23	17	35	49	65	169.0	-204319.0	-2393621.0	19909.0
23	17	35	49	65	170.0	-203804.0	-2401746.0	19789.0
23	17	35	49	66	171.0	-203169.0	-2414535.0	19905.0
23	17	35	49	67	172.0	-202665.0	-2417014.0	19749.0
23	17	35	49	67	173.0	-202581.0	-2418367.0	19686.0
23	17	35	49	68	174.0	-202697.0	-2419039.0	19348.0
23	17	35	49	68	175.0	-202853.0	-2419322.0	19088.0
23	17	35	49	81	176.0	-203411.0	-2419598.0	18833.0
23	17	35	49	82	177.0	-204079.0	-2418626.0	19046.0
