23	17	25	7	168	101.0	-196051.0	-2227756.0	-927899.0
23	17	25	7	169	102.0	-196179.0	-2228930.0	-930146.0
23	17	25	7	186	103.0	-196174.0	-2231079.0	-937213.0
23	17	25	7	189	104.0	-196194.0	-2233174.0	-947292.0
23	17	25	7	190	105.0	-196223.0	-2236190.0	-946494.0
23	17	25	7	192	106.0	-196315.0	-2243186.0	-938436.0
23	17	25	7	194	107.0	-196347.0	-2243078.0	-924524.0
23	17	25	7	196	108.0	-196316.0	-2246924.0	-913812.0
23	17	25	7	197	109.0	-196247.0	-2250526.0	-911809.0
23	17	25	7	198	110.0	-196048.0	-2250507.0	-913650.0
23	17	25	7	199	111.0	-195887.0	-2254669.0	-913975.0
23	17	25	7	199	112.0	-196042.0	-2258175.0	-915007.0
23	17	25	7	200	113.0	-195977.0	-2260312.0	-920792.0
23	17	25	7	201	114.0	-195970.0	-2264647.0	-926977.0
23	17	25	7	202	115.0	-196153.0	-2266367.0	-922007.0
23	17	25	7	203	116.0	-196358.0	-2265536.0	-910641.0
23	17	25	7	204	117.0	-196571.0	-2263191.0	-896630.0
23	17	25	7	205	118.0	-196642.0	-2261234.0	-886109.0
23	17	25	7	206	119.0	-196588.0	-2260677.0	-883536.0
23	17	25	7	206	120.0	-196682.0	-2261087.0	-884096.0
23	17	25	7	207	121.0	-196864.0	-2261650.0	-886194.0
23	17	25	7	208	122.0	-196773.0	-2263107.0	-889454.0
23	17	25	7	209	123.0	-196654.0	-2266341.0	-896054.0
23	17	25	7	277	124.0	-196594.0	-2268107.0	-902497.0
23	17	25	7	323	125.0	-196565.0	-2268713.0	-896538.0
23	17	25	7	324	126.0	-196574.0	-2267975.0	-884721.0
23	17	25	7	325	127.0	-196574.0	-2266276.0	-871111.0
23	17	25	7	326	128.0	-196417.0	-2257271.0	-861888.0
23	17	25	7	327	129.0	-196341.0	-2242674.0	-860772.0
23	17	25	7	328	130.0	-196220.0	-2241529.0	-862609.0
23	17	25	7	329	131.0	-196162.0	-2243526.0	-862029.0
23	17	25	7	369	132.0	-196336.0	-2246432.0	-862197.0
23	17	25	7	370	133.0	-196440.0	-2252333.0	-868171.0
23	17	25	7	371	134.0	-196289.0	-2259994.0	-872529.0
23	17	25	7	372	135.0	-196238.0	-2269470.0	-862155.0
23	17	25	7	373	136.0	-196108.0	-2269766.0	-845904.0
23	17	25	7	374	137.0	-196131.0	-2268142.0	-828345.0
23	17	25	7	375	138.0	-196113.0	-2265459.0	-815779.0
23	17	25	7	414	160.0	-196243.0	-2257112.0	-711817.0
23	17	25	7	416	183.0	-196209.0	-2276822.0	-493161.0
23	17	25	7	417	184.0	-196277.0	-2277996.0	-485171.0
23	17	25	7	418	185.0	-196251.0	-2274195.0	-467858.0
23	17	25	7	419	186.0	-196344.0	-2271850.0	-443038.0
23	17	25	7	420	187.0	-196231.0	-2270666.0	-418499.0
23	17	25	7	422	188.0	-195956.0	-2269016.0	-397188.0
23	17	25	7	459	189.0	-195837.0	-2271644.0	-383394.0
23	17	25	7	461	190.0	-195719.0	-2277759.0	-371483.0
23	17	25	7	462	206.0	-196377.0	-2258869.0	-178278.0
23	17	25	7	464	207.0	-196356.0	-2256211.0	-159351.0
23	17	25	7	465	208.0	-196161.0	-2254442.0	-144694.0
23	17	25	7	466	209.0	-196190.0	-2254734.0	-134663.0
23	17	25	7	468	210.0	-196346.0	-2257212.0	-124081.0
23	17	25	7	506	211.0	-196366.0	-2263390.0	-116553.0
23	17	25	7	507	212.0	-196357.0	-2267022.0	-115331.0
23	17	25	7	509	228.0	-196249.0	-2266421.0	13041.0
23	17	25	7	511	229.0	-196294.0	-2272712.0	16616.0
23	17	25	7	512	230.0	-196099.0	-2275501.0	20183.0
23	17	25	7	514	231.0	-195914.0	-2276707.0	22814.0
23	17	25	7	515	232.0	-195962.0	-2279165.0	19951.0
23	17	25	7	517	233.0	-195929.0	-2282973.0	12009.0
23	17	25	7	550	234.0	-196001.0	-2284006.0	16534.0
23	17	25	7	551	251.0	-196081.0	-2275579.0	73262.0
23	17	25	7	553	252.0	-196229.0	-2277072.0	71111.0
23	17	25	7	554	253.0	-196342.0	-2277394.0	66718.0
23	17	25	7	556	254.0	-196226.0	-2278361.0	72912.0
23	17	25	7	558	255.0	-196166.0	-2277914.0	87886.0
23	17	25	7	559	0.0	-196092.0	-2276101.0	108133.0
23	17	25	7	561	1.0	-196157.0	-2273009.0	124471.0
23	17	25	7	563	17.0	-195967.0	-2283997.0	263078.0
23	17	25	7	565	18.0	-195968.0	-2284346.0	277402.0
23	17	25	7	566	19.0	-195939.0	-2283491.0	298614.0
23	17	25	7	568	20.0	-196107.0	-2282085.0	323274.0
23	17	25	7	570	21.0	-196125.0	-2280131.0	344731.0
23	17	25	7	572	22.0	-196088.0	-2280101.0	359382.0
23	17	25	7	573	23.0	-196217.0	-2280696.0	369368.0
23	17	25	7	575	24.0	-196417.0	-2280583.0	379801.0
23	17	25	7	576	39.0	-196052.0	-2297394.0	472801.0
23	17	25	7	593	40.0	-196162.0	-2295398.0	492289.0
23	17	25	7	594	41.0	-196219.0	-2292113.0	507785.0
23	17	25	7	595	42.0	-196284.0	-2290312.0	513463.0
23	17	25	7	597	43.0	-196307.0	-2289892.0	514019.0
23	17	25	7	598	44.0	-196293.0	-2290243.0	514209.0
23	17	25	7	599	45.0	-196296.0	-2291529.0	513308.0
23	17	25	7	600	46.0	-196210.0	-2295670.0	506278.0
23	17	25	7	601	47.0	-196181.0	-2298639.0	503446.0
23	17	25	7	601	48.0	-196191.0	-2298375.0	513662.0
23	17	25	7	602	49.0	-196369.0	-2296469.0	531001.0
23	17	25	7	602	50.0	-196511.0	-2293518.0	547808.0
23	17	25	7	603	51.0	-196496.0	-2289754.0	560201.0
23	17	25	7	603	52.0	-196359.0	-2288162.0	566197.0
23	17	25	7	604	53.0	-196378.0	-2287693.0	568361.0
23	17	25	7	604	54.0	-196446.0	-2286762.0	569112.0
23	17	25	7	605	55.0	-196364.0	-2284673.0	567394.0
23	17	25	7	605	62.0	-196140.0	-2275861.0	614981.0
23	17	25	7	606	63.0	-196207.0	-2276616.0	617388.0
23	17	25	7	606	64.0	-196176.0	-2279834.0	621548.0
23	17	25	7	606	65.0	-196167.0	-2284306.0	621059.0
23	17	25	7	607	66.0	-196174.0	-2289492.0	611994.0
23	17	25	7	607	67.0	-196287.0	-2293839.0	611894.0
23	17	25	7	638	68.0	-196226.0	-2295032.0	622417.0
23	17	25	7	639	69.0	-196072.0	-2293432.0	639991.0
23	17	25	7	640	70.0	-196196.0	-2291711.0	657768.0
23	17	25	7	641	71.0	-196317.0	-2290054.0	667709.0
23	17	25	7	642	72.0	-196459.0	-2290065.0	666267.0
23	17	25	7	642	73.0	-196487.0	-2291059.0	664944.0
23	17	25	7	642	74.0	-196471.0	-2291298.0	663100.0
23	17	25	7	643	75.0	-196451.0	-2291183.0	657662.0
23	17	25	7	643	76.0	-196396.0	-2296089.0	647493.0
23	17	25	7	644	77.0	-196389.0	-2300522.0	644713.0
23	17	25	7	644	78.0	-196385.0	-2300889.0	651243.0
23	17	25	7	644	79.0	-196357.0	-2297878.0	663118.0
23	17	25	7	645	80.0	-196342.0	-2292411.0	671668.0
23	17	25	7	645	81.0	-196367.0	-2282199.0	674138.0
23	17	25	7	645	82.0	-196419.0	-2280259.0	670474.0
23	17	25	7	646	84.0	-196514.0	-2283924.0	666921.0
23	17	25	7	646	85.0	-196481.0	-2286587.0	663299.0
23	17	25	7	646	86.0	-196396.0	-2292394.0	652108.0
23	17	25	7	647	87.0	-196368.0	-2296222.0	646888.0
23	17	25	7	647	88.0	-196437.0	-2295159.0	651965.0
23	17	25	7	656	89.0	-196621.0	-2291029.0	663420.0
23	17	25	7	656	90.0	-196646.0	-2288181.0	671224.0
23	17	25	7	729	91.0	-196531.0	-2281695.0	673159.0
23	17	25	7	731	92.0	-196432.0	-2276186.0	668257.0
23	17	25	7	731	93.0	-196174.0	-2276794.0	664172.0
23	17	25	7	731	94.0	-196069.0	-2278588.0	658271.0
23	17	25	7	732	95.0	-196129.0	-2281452.0	649169.0
23	17	25	7	732	96.0	-196094.0	-2286825.0	635387.0
23	17	25	7	772	97.0	-196091.0	-2288957.0	630340.0
23	17	25	7	772	98.0	-195983.0	-2285698.0	634313.0
23	17	25	7	773	99.0	-195800.0	-2282227.0	645172.0
23	17	25	7	773	100.0	-195872.0	-2279272.0	655761.0
23	17	25	7	773	101.0	-196038.0	-2277027.0	660331.0
23	17	25	7	775	102.0	-196136.0	-2279667.0	659089.0
23	17	25	7	775	103.0	-196117.0	-2281725.0	656020.0
23	17	25	7	817	104.0	-196039.0	-2283576.0	650881.0
23	17	25	7	818	105.0	-196095.0	-2286297.0	639964.0
23	17	25	7	818	107.0	-196194.0	-2290789.0	616818.0
23	17	25	7	819	129.0	-196084.0	-2299154.0	571162.0
23	17	25	7	820	130.0	-196083.0	-2296240.0	577803.0
23	17	25	7	821	131.0	-195927.0	-2303352.0	577036.0
23	17	25	7	821	132.0	-195694.0	-2311088.0	570378.0
23	17	25	7	863	133.0	-195731.0	-2314101.0	563670.0
23	17	25	7	863	134.0	-196004.0	-2322671.0	555589.0
23	17	25	7	864	152.0	-196647.0	-2292757.0	489564.0
23	17	25	7	864	153.0	-197049.0	-2294450.0	484253.0
23	17	25	7	865	154.0	-197473.0	-2297027.0	476723.0
23	17	25	7	865	155.0	-197505.0	-2301486.0	465222.0
23	17	25	7	866	156.0	-197286.0	-2306417.0	456136.0
23	17	25	7	866	157.0	-197209.0	-2306838.0	457282.0
23	17	25	7	953	158.0	-197104.0	-2303690.0	461269.0
23	17	25	7	953	174.0	-196770.0	-2297387.0	497322.0
23	17	25	7	954	175.0	-196743.0	-2301274.0	492371.0
23	17	25	7	954	176.0	-196729.0	-2304037.0	488128.0
23	17	25	7	955	177.0	-196699.0	-2303674.0	492379.0
23	17	25	7	955	178.0	-196656.0	-2301511.0	499128.0
23	17	25	7	956	179.0	-196664.0	-2298751.0	506761.0
23	17	25	7	956	180.0	-196732.0	-2300815.0	515497.0
23	17	25	7	957	197.0	-196242.0	-2356961.0	487761.0
23	17	25	7	957	198.0	-196001.0	-2351192.0	503436.0
23	17	25	7	958	199.0	-195887.0	-2334814.0	520384.0
23	17	25	7	958	200.0	-195787.0	-2328073.0	535481.0
23	17	25	7	959	201.0	-195807.0	-2327451.0	545424.0
23	17	25	7	960	202.0	-195499.0	-2327524.0	549904.0
23	17	25	7	961	203.0	-195400.0	-2327358.0	552563.0
23	17	25	7	962	241.0	-196943.0	-2270351.0	784885.0
23	17	25	7	962	242.0	-196394.0	-2269936.0	786212.0
23	17	25	7	963	243.0	-195618.0	-2271709.0	787958.0
23	17	25	7	963	244.0	-195078.0	-2277759.0	787053.0
23	17	25	7	964	245.0	-195072.0	-2288231.0	786350.0
23	17	25	7	964	246.0	-195099.0	-2292879.0	793401.0
23	17	25	7	965	247.0	-194642.0	-2294135.0	802788.0
23	17	25	8	0	248.0	-194776.0	-2292777.0	811488.0
23	17	25	8	1	249.0	-195206.0	-2286023.0	817444.0
23	17	25	8	1	250.0	-195216.0	-2279361.0	822555.0
23	17	25	8	2	251.0	-195108.0	-2276996.0	828159.0
23	17	25	8	2	252.0	-195200.0	-2275864.0	835628.0
23	17	25	8	3	253.0	-195068.0	-2275133.0	844850.0
23	17	25	8	3	254.0	-195040.0	-2276049.0	854018.0
23	17	25	8	4	255.0	-195067.0	-2281863.0	859063.0
23	17	25	8	4	0.0	-194962.0	-2286270.0	874226.0
23	17	25	8	5	1.0	-194786.0	-2287075.0	897280.0
23	17	25	8	6	2.0	-194831.0	-2284443.0	922049.0
23	17	25	8	6	3.0	-194836.0	-2279807.0	943842.0
23	17	25	8	7	4.0	-194816.0	-2274569.0	962707.0
23	17	25	8	7	5.0	-194792.0	-2264892.0	980604.0
23	17	25	8	8	6.0	-194889.0	-2259285.0	1001407.0
23	17	25	8	8	8.0	-194995.0	-2264989.0	1036968.0
23	17	25	8	8	9.0	-195218.0	-2270998.0	1048778.0
23	17	25	8	9	10.0	-195288.0	-2275224.0	1068899.0
23	17	25	8	9	11.0	-195331.0	-2275832.0	1095266.0
23	17	25	8	10	12.0	-195295.0	-2273789.0	1127666.0
23	17	25	8	10	13.0	-195412.0	-2271851.0	1159957.0
23	17	25	8	44	14.0	-195394.0	-2268877.0	1185739.0
23	17	25	8	45	15.0	-195118.0	-2268417.0	1202672.0
23	17	25	8	46	16.0	-195078.0	-2270028.0	1220204.0
23	17	25	8	46	17.0	-195171.0	-2271981.0	1236440.0
23	17	25	8	47	18.0	-195306.0	-2276469.0	1246530.0
23	17	25	8	47	19.0	-195384.0	-2283714.0	1250904.0
23	17	25	8	47	20.0	-195329.0	-2287651.0	1267584.0
23	17	25	8	87	21.0	-195365.0	-2287719.0	1293942.0
23	17	25	8	89	22.0	-195410.0	-2284078.0	1327655.0
23	17	25	8	90	23.0	-195316.0	-2278627.0	1361515.0
23	17	25	8	90	24.0	-195308.0	-2273194.0	1387495.0
23	17	25	8	91	25.0	-195352.0	-2269793.0	1403356.0
23	17	25	8	91	26.0	-195362.0	-2266483.0	1417826.0
23	17	25	8	91	27.0	-195359.0	-2264524.0	1429250.0
23	17	25	8	133	28.0	-195490.0	-2261876.0	1432003.0
23	17	25	8	134	30.0	-195557.0	-2268502.0	1436606.0
23	17	25	8	134	31.0	-195532.0	-2268320.0	1458938.0
23	17	25	8	135	32.0	-195542.0	-2265344.0	1491223.0
23	17	25	8	136	33.0	-195473.0	-2260052.0	1523667.0
23	17	25	8	137	34.0	-195552.0	-2255524.0	1544515.0
23	17	25	8	137	35.0	-195661.0	-2254774.0	1553746.0
23	17	25	8	178	36.0	-195537.0	-2253409.0	1559631.0
23	17	25	8	178	37.0	-195510.0	-2254152.0	1562615.0
23	17	25	8	179	53.0	-197382.0	-2168257.0	1678856.0
23	17	25	8	179	54.0	-197215.0	-2153726.0	1695589.0
23	17	25	8	180	55.0	-197046.0	-2145646.0	1695409.0
23	17	25	8	180	56.0	-196973.0	-2148529.0	1692006.0
23	17	25	8	181	57.0	-197022.0	-2154977.0	1681738.0
23	17	25	8	182	58.0	-196996.0	-2153139.0	1657369.0
23	17	25	8	223	59.0	-196615.0	-2152722.0	1629988.0
23	17	25	8	225	75.0	-195360.0	-2058310.0	1726649.0
23	17	25	8	226	76.0	-195197.0	-2052754.0	1716643.0
23	17	25	8	226	77.0	-195106.0	-2047357.0	1700718.0
23	17	25	8	227	78.0	-195136.0	-2044669.0	1668746.0
23	17	25	8	227	79.0	-195162.0	-2042573.0	1639618.0
23	17	25	8	228	80.0	-195354.0	-2037082.0	1640651.0
23	17	25	8	228	81.0	-195535.0	-2029209.0	1666094.0
23	17	25	8	268	98.0	-196371.0	-1941691.0	1768212.0
23	17	25	8	270	99.0	-196197.0	-1943186.0	1750211.0
23	17	25	8	270	100.0	-196070.0	-1942244.0	1766001.0
23	17	25	8	271	101.0	-195376.0	-1938467.0	1808423.0
23	17	25	8	272	102.0	-195564.0	-1932897.0	1860536.0
23	17	25	8	272	103.0	-196266.0	-1927321.0	1909185.0
23	17	25	8	273	104.0	-196561.0	-1923738.0	1934029.0
23	17	25	8	274	105.0	-196840.0	-1920871.0	1947034.0
23	17	25	8	274	120.0	-196792.0	-1898254.0	2133914.0
23	17	25	8	275	121.0	-196974.0	-1897226.0	2174154.0
23	17	25	8	313	122.0	-197010.0	-1899269.0	2221473.0
23	17	25	8	314	123.0	-197287.0	-1902797.0	2265186.0
23	17	25	8	315	124.0	-197348.0	-1904920.0	2280961.0
23	17	25	8	316	125.0	-197418.0	-1906381.0	2285799.0
23	17	25	8	358	126.0	-197574.0	-1901859.0	2284413.0
23	17	25	8	359	143.0	-196314.0	-1880337.0	2342169.0
23	17	25	8	359	144.0	-196306.0	-1878677.0	2340013.0
23	17	25	8	360	145.0	-196256.0	-1874296.0	2326931.0
23	17	25	8	361	146.0	-196266.0	-1871885.0	2309832.0
23	17	25	8	362	147.0	-196264.0	-1869483.0	2281389.0
23	17	25	8	362	148.0	-196197.0	-1862868.0	2236731.0
23	17	25	8	363	149.0	-196124.0	-1858139.0	2213280.0
23	17	25	8	364	150.0	-196094.0	-1857664.0	2220701.0
23	17	25	8	364	151.0	-196127.0	-1860813.0	2249560.0
23	17	25	8	365	152.0	-196267.0	-1865156.0	2282482.0
23	17	25	8	403	153.0	-195804.0	-1869005.0	2305636.0
23	17	25	8	404	165.0	-195802.0	-1857823.0	2237608.0
23	17	25	8	405	166.0	-195756.0	-1855816.0	2217719.0
23	17	25	8	449	167.0	-195684.0	-1852117.0	2185476.0
23	17	25	8	449	168.0	-195541.0	-1844870.0	2137926.0
23	17	25	8	493	188.0	-195807.0	-1867931.0	1927089.0
23	17	25	8	494	189.0	-195891.0	-1864127.0	1903236.0
23	17	25	8	495	190.0	-195919.0	-1860899.0	1908651.0
23	17	25	8	495	191.0	-195839.0	-1859656.0	1933435.0
23	17	25	8	497	192.0	-195789.0	-1859384.0	1960232.0
23	17	25	8	498	193.0	-195697.0	-1859712.0	1969733.0
23	17	25	8	499	194.0	-195564.0	-1858534.0	1956245.0
23	17	25	8	500	195.0	-195651.0	-1852629.0	1938195.0
23	17	25	8	500	196.0	-195967.0	-1849166.0	1915954.0
23	17	25	8	501	197.0	-196509.0	-1849226.0	1878850.0
23	17	25	8	502	198.0	-196976.0	-1847734.0	1834086.0
23	17	25	8	503	210.0	-196793.0	-1836041.0	1788653.0
23	17	25	8	504	211.0	-196954.0	-1832945.0	1814605.0
23	17	25	8	504	212.0	-197114.0	-1828753.0	1839920.0
23	17	25	8	505	233.0	-197621.0	-1799765.0	1619601.0
23	17	25	8	506	255.0	-197651.0	-1791700.0	1345527.0
23	17	25	8	506	0.0	-197647.0	-1792381.0	1318695.0
23	17	25	8	507	1.0	-198167.0	-1795861.0	1274394.0
23	17	25	8	538	2.0	-198326.0	-1798978.0	1239264.0
23	17	25	8	539	3.0	-198281.0	-1799903.0	1233994.0
23	17	25	8	539	4.0	-198234.0	-1798708.0	1250054.0
23	17	25	8	540	5.0	-198102.0	-1796000.0	1273844.0
23	17	25	8	540	6.0	-197698.0	-1792441.0	1293411.0
23	17	25	8	542	7.0	-196879.0	-1790107.0	1289064.0
23	17	25	8	542	8.0	-197111.0	-1788899.0	1277024.0
23	17	25	8	584	9.0	-197515.0	-1789002.0	1261641.0
23	17	25	8	585	10.0	-197314.0	-1790917.0	1238535.0
23	17	25	8	586	11.0	-197467.0	-1793875.0	1199911.0
23	17	25	8	587	12.0	-196574.0	-1795930.0	1175495.0
23	17	25	8	587	13.0	-195931.0	-1795683.0	1180208.0
23	17	25	8	588	14.0	-195947.0	-1792827.0	1206782.0
23	17	25	8	589	15.0	-195786.0	-1790392.0	1236923.0
23	17	25	8	590	16.0	-195534.0	-1788860.0	1260718.0
23	17	25	8	590	17.0	-195459.0	-1788633.0	1257726.0
23	17	25	8	591	22.0	-193939.0	-1793309.0	1179026.0
23	17	25	8	592	23.0	-193566.0	-1791677.0	1190439.0
23	17	25	8	593	24.0	-193376.0	-1788061.0	1220791.0
23	17	25	8	594	25.0	-193392.0	-1785607.0	1255641.0
23	17	25	8	595	26.0	-193384.0	-1784008.0	1284116.0
23	17	25	8	595	27.0	-193440.0	-1783172.0	1286929.0
23	17	25	8	596	28.0	-193606.0	-1782747.0	1283121.0
23	17	25	8	596	44.0	-193656.0	-1690900.0	1386852.0
23	17	25	8	597	45.0	-193796.0	-1674411.0	1429274.0
23	17	25	8	597	46.0	-193668.0	-1669332.0	1462336.0
23	17	25	8	598	47.0	-193646.0	-1465056.0	1469991.0
23	17	25	8	599	48.0	-193744.0	-940976.0	1471388.0
23	17	25	8	599	49.0	-193869.0	-708652.0	1469963.0
23	17	25	8	600	50.0	-193893.0	-611613.0	1460394.0
23	17	25	8	628	51.0	-193917.0	-547519.0	1435797.0
23	17	25	8	629	52.0	-193914.0	-523909.0	1429813.0
23	17	25	8	629	53.0	-193912.0	-531493.0	1449702.0
23	17	25	8	630	54.0	-194151.0	-540181.0	1484572.0
23	17	25	8	630	55.0	-194266.0	-547174.0	1519902.0
23	17	25	8	631	56.0	-194502.0	-552908.0	1544113.0
23	17	25	8	631	57.0	-194921.0	-557237.0	1545955.0
23	17	25	8	632	58.0	-195238.0	-563949.0	1545058.0
23	17	25	8	673	59.0	-195434.0	-571026.0	1541791.0
23	17	25	8	673	60.0	-195621.0	-578371.0	1527901.0
23	17	25	8	674	61.0	-195757.0	-585084.0	1501966.0
23	17	25	8	674	62.0	-195709.0	-591666.0	1498043.0
23	17	25	8	675	63.0	-195759.0	-599046.0	1519072.0
23	17	25	8	675	64.0	-195818.0	-605257.0	1555813.0
23	17	25	8	676	65.0	-196056.0	-610277.0	1593624.0
23	17	25	8	676	66.0	-195472.0	-615985.0	1615288.0
23	17	25	8	677	67.0	-195186.0	-623422.0	1614360.0
23	17	25	8	678	68.0	-195199.0	-629518.0	1610818.0
23	17	25	8	678	69.0	-195040.0	-635309.0	1605316.0
23	17	25	8	679	70.0	-194810.0	-641580.0	1589544.0
23	17	25	8	679	71.0	-194468.0	-644675.0	1565503.0
23	17	25	8	680	72.0	-194447.0	-601390.0	1562123.0
23	17	25	8	680	73.0	-194702.0	-434939.0	1578526.0
23	17	25	8	681	89.0	-196995.0	-75.0	1686062.0
23	17	25	8	681	90.0	-197207.0	1611.0	1668931.0
23	17	25	8	682	91.0	-197407.0	1091.0	1650044.0
23	17	25	8	718	92.0	-197183.0	1089.0	1650471.0
23	17	25	8	719	93.0	-197311.0	1585.0	1669406.0
23	17	25	8	719	94.0	-197409.0	806.0	1698572.0
23	17	25	8	720	95.0	-197569.0	967.0	1728083.0
23	17	25	8	721	96.0	-197659.0	1304.0	1742804.0
23	17	25	8	721	97.0	-197370.0	2492.0	1740168.0
23	17	25	8	722	98.0	-197281.0	3709.0	1732564.0
23	17	25	8	722	99.0	-197589.0	-14.0	1725464.0
23	17	25	8	723	100.0	-197706.0	-6451.0	1707503.0
23	17	25	8	764	101.0	-197692.0	-11214.0	1689437.0
23	17	25	8	766	102.0	-197650.0	-16399.0	1695218.0
23	17	25	8	767	103.0	-197839.0	-21649.0	1720942.0
23	17	25	8	767	104.0	-197834.0	-27808.0	1755401.0
23	17	25	8	768	105.0	-197871.0	-33776.0	1786800.0
23	17	25	8	769	106.0	-197905.0	-40374.0	1800528.0
23	17	25	8	770	107.0	-197722.0	-47221.0	1802124.0
23	17	25	8	771	111.0	-197978.0	-19072.0	1777935.0
23	17	25	8	771	112.0	-197679.0	-1482.0	1789633.0
23	17	25	8	772	113.0	-197377.0	1286.0	1816877.0
23	17	25	8	772	114.0	-197286.0	1446.0	1849537.0
23	17	25	8	773	115.0	-197054.0	3752.0	1881297.0
23	17	25	8	773	116.0	-196821.0	-1124.0	1895764.0
23	17	25	8	774	117.0	-196684.0	-9092.0	1900938.0
23	17	25	8	775	118.0	-196501.0	-15076.0	1905533.0
23	17	25	8	775	134.0	-196253.0	-37249.0	2043183.0
23	17	25	8	776	135.0	-196302.0	-33662.0	2064252.0
23	17	25	8	776	136.0	-196137.0	-29722.0	2065636.0
23	17	25	8	777	137.0	-196158.0	-26537.0	2060732.0
23	17	25	8	777	138.0	-196482.0	-24177.0	2055563.0
23	17	25	8	778	139.0	-196512.0	-21852.0	2043978.0
23	17	25	8	809	140.0	-196470.0	-26058.0	2018908.0
23	17	25	8	810	141.0	-196689.0	-29281.0	2001506.0
23	17	25	8	810	142.0	-196959.0	-24842.0	2004251.0
23	17	25	8	811	143.0	-197320.0	-23697.0	2020697.0
23	17	25	8	811	144.0	-197553.0	-21442.0	2038087.0
23	17	25	8	812	145.0	-197621.0	-18940.0	2053388.0
23	17	25	8	813	146.0	-197776.0	-16851.0	2054990.0
23	17	25	8	813	147.0	-197744.0	-15977.0	2049630.0
23	17	25	8	814	148.0	-197603.0	-17804.0	2041083.0
23	17	25	8	814	149.0	-197569.0	-22945.0	2025647.0
23	17	25	8	815	150.0	-197550.0	-28860.0	1998991.0
23	17	25	8	815	151.0	-197422.0	-34506.0	1980218.0
23	17	25	8	816	152.0	-197281.0	-40351.0	1981490.0
23	17	25	8	817	153.0	-197292.0	-48776.0	1996671.0
23	17	25	8	817	154.0	-197219.0	-50632.0	2014329.0
23	17	25	8	818	156.0	-197113.0	7395.0	2022200.0
23	17	25	8	818	157.0	-196905.0	7933.0	2011861.0
23	17	25	8	819	158.0	-196744.0	7993.0	1998479.0
23	17	25	8	820	159.0	-196569.0	8056.0	1978057.0
23	17	25	8	820	160.0	-196357.0	8110.0	1947611.0
23	17	25	8	821	161.0	-196336.0	8191.0	1928605.0
23	17	25	8	852	162.0	-196242.0	8258.0	1929320.0
23	17	25	8	853	163.0	-195986.0	8319.0	1945170.0
23	17	25	8	854	164.0	-195670.0	8354.0	1965475.0
23	17	25	8	854	165.0	-195478.0	8372.0	1979854.0
23	17	25	8	855	166.0	-195285.0	8378.0	1975478.0
23	17	25	8	855	167.0	-195066.0	8408.0	1966121.0
23	17	25	8	856	168.0	-194993.0	8440.0	1956545.0
23	17	25	8	898	169.0	-194849.0	8442.0	1942498.0
23	17	25	8	899	170.0	-195026.0	8451.0	1918519.0
23	17	25	8	899	171.0	-195548.0	8466.0	1909234.0
23	17	25	8	900	172.0	-194887.0	8483.0	1920293.0
23	17	25	8	901	173.0	-194416.0	8498.0	1942804.0
23	17	25	8	901	174.0	-194619.0	8512.0	1964571.0
23	17	25	8	902	175.0	-194473.0	8514.0	1982901.0
23	17	25	8	902	176.0	-194336.0	8535.0	1988237.0
23	17	25	8	903	179.0	-194214.0	8596.0	1985366.0
23	17	25	8	903	180.0	-194207.0	8613.0	1974135.0
23	17	25	8	905	181.0	-194166.0	8656.0	1975219.0
23	17	25	8	906	182.0	-194272.0	8735.0	1990990.0
23	17	25	8	907	183.0	-194369.0	8761.0	2014981.0
23	17	25	8	907	184.0	-194496.0	8784.0	2039771.0
23	17	25	8	908	185.0	-194579.0	8828.0	2057475.0
23	17	25	8	908	186.0	-194642.0	8879.0	2059774.0
23	17	25	8	909	201.0	-196184.0	9823.0	2141171.0
23	17	25	8	909	202.0	-196204.0	9860.0	2152839.0
23	17	25	8	910	203.0	-196321.0	9923.0	2173331.0
23	17	25	8	911	204.0	-196438.0	9997.0	2194133.0
23	17	25	8	911	205.0	-196550.0	10059.0	2208749.0
23	17	25	8	912	206.0	-196522.0	10125.0	2212546.0
23	17	25	8	912	207.0	-196479.0	10171.0	2214829.0
23	17	25	8	989	208.0	-196539.0	10238.0	2214475.0
23	17	25	8	990	209.0	-196589.0	10296.0	2209699.0
23	17	25	8	990	210.0	-196671.0	10341.0	2201021.0
23	17	25	8	991	211.0	-196570.0	10361.0	2202822.0
23	17	25	8	991	212.0	-196412.0	10386.0	2211368.0
23	17	25	8	992	213.0	-196310.0	10409.0	2222068.0
23	17	25	8	993	214.0	-196184.0	10446.0	2231719.0
23	17	25	8	993	215.0	-196126.0	10457.0	2235768.0
23	17	25	8	994	216.0	-196066.0	10489.0	2231491.0
23	17	25	8	995	217.0	-195968.0	10493.0	2229026.0
23	17	25	8	995	218.0	-195827.0	10515.0	2227619.0
23	17	25	8	996	219.0	-195709.0	10548.0	2222773.0
23	17	25	8	996	220.0	-195691.0	10564.0	2213479.0
23	17	25	8	997	221.0	-195568.0	10564.0	2208105.0
23	17	25	8	997	222.0	-195609.0	10584.0	2209856.0
23	17	25	8	998	246.0	-196509.0	10441.0	2104630.0
23	17	25	9	34	247.0	-196631.0	10434.0	2085664.0
23	17	25	9	35	248.0	-196900.0	10456.0	2067872.0
23	17	25	9	35	249.0	-196946.0	10488.0	2047904.0
23	17	25	9	36	250.0	-197073.0	10501.0	2024479.0
23	17	25	9	36	251.0	-197195.0	10507.0	2000277.0
23	17	25	9	37	252.0	-197314.0	10521.0	1979195.0
23	17	25	9	38	253.0	-197250.0	10511.0	1958604.0
23	17	25	9	38	254.0	-196726.0	10516.0	1939965.0
23	17	25	9	39	255.0	-195655.0	10534.0	1923584.0
23	17	25	9	40	0.0	-194319.0	10528.0	1906275.0
23	17	25	9	40	1.0	-193923.0	10529.0	1890747.0
23	17	25	9	41	2.0	-196337.0	10530.0	1877276.0
23	17	25	9	42	3.0	-199091.0	10543.0	1864688.0
23	17	25	9	42	4.0	-200028.0	10551.0	1853610.0
23	17	25	9	43	5.0	-199676.0	10594.0	1842228.0
23	17	25	9	44	6.0	-198589.0	10611.0	1833911.0
23	17	25	9	44	13.0	-191817.0	10849.0	1804884.0
23	17	25	9	45	14.0	-194994.0	10877.0	1799615.0
23	17	25	9	45	15.0	-196616.0	10923.0	1793433.0
23	17	25	9	46	16.0	-195145.0	10966.0	1787338.0
23	17	25	9	47	17.0	-194641.0	11014.0	1782038.0
23	17	25	9	47	18.0	-198209.0	11046.0	1771288.0
23	17	25	9	78	19.0	-200276.0	11047.0	1755738.0
23	17	25	9	78	20.0	-200954.0	11066.0	1737074.0
23	17	25	9	79	21.0	-201425.0	11116.0	1714516.0
23	17	25	9	80	22.0	-202151.0	11148.0	1688228.0
23	17	25	9	80	23.0	-203451.0	11174.0	1659326.0
23	17	25	9	81	24.0	-207984.0	11194.0	1628313.0
23	17	25	9	82	25.0	-206274.0	11211.0	1593041.0
23	17	25	9	123	26.0	-203968.0	11233.0	1556046.0
23	17	25	9	124	27.0	-202952.0	11236.0	1518239.0
23	17	25	9	124	28.0	-201044.0	6196.0	1479320.0
23	17	25	9	125	29.0	-202731.0	-12152.0	1439901.0
23	17	25	9	126	30.0	-202626.0	4854.0	1401183.0
23	17	25	9	126	31.0	-203458.0	11004.0	1363318.0
23	17	25	9	127	32.0	-204565.0	8936.0	1325169.0
23	17	25	9	128	33.0	-205380.0	10164.0	1288115.0
23	17	25	9	128	35.0	-203707.0	10548.0	1213852.0
23	17	25	9	129	36.0	-202022.0	10769.0	1176933.0
23	17	25	9	130	37.0	-198571.0	4311.0	1139080.0
23	17	25	9	131	38.0	-205352.0	-7409.0	1100494.0
23	17	25	9	131	39.0	-210237.0	-17099.0	1059724.0
23	17	25	9	132	40.0	-204221.0	-13340.0	1019756.0
23	17	25	9	133	41.0	-199222.0	4274.0	977933.0
23	17	25	9	134	42.0	-196027.0	6571.0	933094.0
23	17	25	9	134	58.0	-193698.0	8786.0	356720.0
23	17	25	9	135	59.0	-194238.0	8668.0	321438.0
23	17	25	9	136	60.0	-194081.0	8593.0	284694.0
23	17	25	9	136	61.0	-193791.0	8509.0	248477.0
23	17	25	9	137	62.0	-193550.0	8422.0	213445.0
23	17	25	9	137	63.0	-192329.0	8346.0	176386.0
23	17	25	9	168	64.0	-194142.0	8221.0	139031.0
23	17	25	9	169	65.0	-196238.0	8059.0	102306.0
23	17	25	9	169	66.0	-196592.0	7888.0	64930.0
23	17	25	9	170	67.0	-195737.0	7719.0	27614.0
23	17	25	9	171	68.0	-194898.0	7553.0	-9434.0
23	17	25	9	172	69.0	-194700.0	7362.0	-45186.0
23	17	25	9	173	70.0	-194577.0	7194.0	-82656.0
23	17	25	9	174	71.0	-194654.0	7026.0	-120348.0
23	17	25	9	175	72.0	-194929.0	6878.0	-158285.0
23	17	25	9	175	73.0	-195204.0	6704.0	-197507.0
23	17	25	9	176	74.0	-195289.0	6538.0	-237346.0
23	17	25	9	177	75.0	-195345.0	6367.0	-275155.0
23	17	25	9	177	76.0	-195481.0	6234.0	-309495.0
23	17	25	9	178	77.0	-195475.0	6086.0	-344044.0
23	17	25	9	179	78.0	-195465.0	5933.0	-376436.0
23	17	25	9	180	80.0	-194875.0	5625.0	-447449.0
23	17	25	9	180	81.0	-194686.0	5497.0	-483293.0
23	17	25	9	181	82.0	-194484.0	5363.0	-518461.0
23	17	25	9	182	83.0	-194094.0	5230.0	-553777.0
23	17	25	9	182	84.0	-194014.0	5111.0	-585066.0
23	17	25	9	183	85.0	-194158.0	4988.0	-614249.0
23	17	25	9	214	86.0	-194051.0	4886.0	-644792.0
23	17	25	9	214	87.0	-193430.0	4758.0	-675029.0
23	17	25	9	215	88.0	-195213.0	4596.0	-704721.0
23	17	25	9	216	89.0	-196529.0	4436.0	-735505.0
23	17	25	9	217	90.0	-196679.0	4271.0	-765981.0
23	17	25	9	217	91.0	-196472.0	4092.0	-796871.0
23	17	25	9	218	92.0	-196084.0	3938.0	-827659.0
23	17	25	9	219	93.0	-196067.0	3784.0	-859859.0
23	17	25	9	220	94.0	-195779.0	3631.0	-891909.0
23	17	25	9	220	95.0	-194767.0	3501.0	-922681.0
23	17	25	9	221	96.0	-195779.0	3347.0	-951714.0
23	17	25	9	222	97.0	-196685.0	3159.0	-979233.0
23	17	25	9	222	98.0	-196752.0	3004.0	-1006671.0
23	17	25	9	223	99.0	-196527.0	2823.0	-1034225.0
23	17	25	9	224	100.0	-196418.0	2634.0	-1060456.0
23	17	25	9	224	102.0	-196159.0	2285.0	-1108414.0
23	17	25	9	225	103.0	-196193.0	2108.0	-1132861.0
23	17	25	9	226	104.0	-195741.0	1935.0	-1157131.0
23	17	25	9	226	105.0	-195218.0	1781.0	-1181656.0
23	17	25	9	227	106.0	-195452.0	1608.0	-1205249.0
23	17	25	9	228	107.0	-195174.0	1421.0	-1226885.0
23	17	25	9	228	108.0	-195156.0	1291.0	-1248892.0
23	17	25	9	258	109.0	-195066.0	1361.0	-1273249.0
23	17	25	9	259	110.0	-195109.0	1056.0	-1294791.0
23	17	25	9	259	111.0	-195137.0	709.0	-1316845.0
23	17	25	9	260	112.0	-194676.0	458.0	-1342179.0
23	17	25	9	261	113.0	-194694.0	214.0	-1369622.0
23	17	25	9	261	114.0	-194866.0	-8.0	-1398113.0
23	17	25	9	262	115.0	-195084.0	-264.0	-1427780.0
23	17	25	9	303	116.0	-195401.0	-509.0	-1456696.0
23	17	25	9	328	117.0	-195677.0	-766.0	-1485004.0
23	17	25	9	329	118.0	-195958.0	-894.0	-1512405.0
23	17	25	9	330	119.0	-196246.0	-1114.0	-1540053.0
23	17	25	9	330	120.0	-196079.0	-3758.0	-1569599.0
23	17	25	9	331	121.0	-195916.0	-1867.0	-1600444.0
23	17	25	9	332	122.0	-195657.0	-1393.0	-1630696.0
23	17	25	9	332	123.0	-195502.0	-1966.0	-1659424.0
23	17	25	9	333	125.0	-195639.0	-3871.0	-1715215.0
23	17	25	9	334	126.0	-195636.0	-6261.0	-1741502.0
23	17	25	9	334	127.0	-195696.0	-4740.0	-1765901.0
23	17	25	9	335	128.0	-195810.0	-3963.0	-1788398.0
23	17	25	9	335	129.0	-196174.0	-4188.0	-1813429.0
23	17	25	9	336	130.0	-196408.0	-4499.0	-1838468.0
23	17	25	9	337	131.0	-196479.0	-4772.0	-1862827.0
23	17	25	9	337	132.0	-196792.0	-5071.0	-1886542.0
23	17	25	9	338	147.0	-196738.0	-10010.0	-2241750.0
23	17	25	9	339	148.0	-197404.0	-10191.0	-2261305.0
23	17	25	9	339	149.0	-197287.0	-10655.0	-2280922.0
23	17	25	9	340	150.0	-196661.0	-10953.0	-2299983.0
23	17	25	9	341	151.0	-195877.0	-11263.0	-2319700.0
23	17	25	9	341	152.0	-195369.0	-11568.0	-2339938.0
23	17	25	9	342	153.0	-194973.0	-11888.0	-2360439.0
23	17	25	9	351	154.0	-194920.0	-12209.0	-2380158.0
23	17	25	9	352	155.0	-195253.0	-12554.0	-2399791.0
23	17	25	9	352	156.0	-195532.0	-12910.0	-2417499.0
23	17	25	9	353	157.0	-195538.0	-13253.0	-2437294.0
23	17	25	9	354	158.0	-195362.0	-13602.0	-2456172.0
23	17	25	9	354	159.0	-195017.0	-13925.0	-2469650.0
23	17	25	9	355	160.0	-195001.0	-14250.0	-2483490.0
23	17	25	9	393	161.0	-194586.0	-14567.0	-2500315.0
23	17	25	9	394	162.0	-194323.0	-14870.0	-2516225.0
23	17	25	9	394	163.0	-194702.0	-15164.0	-2528861.0
23	17	25	9	395	164.0	-194304.0	-15314.0	-2541621.0
23	17	25	9	396	165.0	-193847.0	-15152.0	-2554996.0
23	17	25	9	396	166.0	-194900.0	-16402.0	-2565784.0
23	17	25	9	397	167.0	-192454.0	-16530.0	-2573973.0
23	17	25	9	397	168.0	-184765.0	-14959.0	-2581698.0
23	17	25	9	398	170.0	-188465.0	-17741.0	-2594316.0
23	17	25	9	399	171.0	-189364.0	-17405.0	-2598157.0
23	17	25	9	400	172.0	-190895.0	-17648.0	-2602017.0
23	17	25	9	400	173.0	-193217.0	-17886.0	-2607663.0
23	17	25	9	401	174.0	-193964.0	-18138.0	-2610937.0
23	17	25	9	402	175.0	-192319.0	-18369.0	-2614215.0
23	17	25	9	402	176.0	-191886.0	-18582.0	-2617831.0
23	17	25	9	403	177.0	-192099.0	-18806.0	-2622356.0
23	17	25	9	404	192.0	-197941.0	-21542.0	-2674837.0
23	17	25	9	404	193.0	-197797.0	-21682.0	-2680074.0
23	17	25	9	405	194.0	-197854.0	-21548.0	-2687436.0
23	17	25	9	406	195.0	-198115.0	-21436.0	-2696741.0
23	17	25	9	406	196.0	-198351.0	-22501.0	-2704402.0
23	17	25	9	407	197.0	-199032.0	-54088.0	-2708365.0
23	17	25	9	408	198.0	-200727.0	-94155.0	-2711184.0
23	17	25	9	438	199.0	-199658.0	-104133.0	-2714493.0
23	17	25	9	439	200.0	-198172.0	-112347.0	-2718992.0
23	17	25	9	439	201.0	-197143.0	-121312.0	-2728334.0
23	17	25	9	440	202.0	-196338.0	-129692.0	-2738307.0
23	17	25	9	441	203.0	-196104.0	-136156.0	-2749386.0
23	17	25	9	442	204.0	-196166.0	-143427.0	-2760369.0
23	17	25	9	442	205.0	-196456.0	-151102.0	-2770540.0
23	17	25	9	443	206.0	-196869.0	-158512.0	-2783125.0
23	17	25	9	444	207.0	-197340.0	-165661.0	-2796052.0
23	17	25	9	445	208.0	-197377.0	-173313.0	-2812107.0
23	17	25	9	445	209.0	-197442.0	-181645.0	-2829564.0
23	17	25	9	446	210.0	-197324.0	-189515.0	-2847161.0
23	17	25	9	447	211.0	-197343.0	-204375.0	-2865376.0
23	17	25	9	447	212.0	-197436.0	-216315.0	-2885327.0
23	17	25	9	448	213.0	-197457.0	-223223.0	-2903771.0
23	17	25	9	483	215.0	-197041.0	-235021.0	-2931396.0
23	17	25	9	483	216.0	-196753.0	-239907.0	-2944911.0
23	17	25	9	484	217.0	-196771.0	-244790.0	-2957680.0
23	17	25	9	485	218.0	-196761.0	-243553.0	-2971999.0
23	17	25	9	485	219.0	-196779.0	-245293.0	-2989712.0
23	17	25	9	486	220.0	-197153.0	-250584.0	-3010334.0
23	17	25	9	487	221.0	-197406.0	-256801.0	-3031871.0
23	17	25	9	487	222.0	-197285.0	-263608.0	-3054769.0
23	17	25	9	488	223.0	-197153.0	-270211.0	-3074189.0
23	17	25	9	489	224.0	-197402.0	-275806.0	-3088510.0
23	17	25	9	490	225.0	-197947.0	-280549.0	-3099612.0
23	17	25	9	490	226.0	-198174.0	-284531.0	-3108106.0
23	17	25	9	491	227.0	-198035.0	-287746.0	-3118539.0
23	17	25	9	492	228.0	-197939.0	-291741.0	-3132581.0
23	17	25	9	493	229.0	-197887.0	-297046.0	-3145397.0
23	17	25	9	494	230.0	-197839.0	-302183.0	-3157059.0
23	17	25	9	494	237.0	-197611.0	-334598.0	-3207747.0
23	17	25	9	495	238.0	-197414.0	-337894.0	-3219809.0
23	17	25	9	496	239.0	-197356.0	-342201.0	-3234141.0
23	17	25	9	496	240.0	-197190.0	-346347.0	-3252914.0
23	17	25	9	497	241.0	-197178.0	-350169.0	-3273356.0
23	17	25	9	498	242.0	-197221.0	-355487.0	-3296553.0
23	17	25	9	498	243.0	-197271.0	-359137.0	-3309596.0
23	17	25	9	528	244.0	-197409.0	-358619.0	-3313102.0
23	17	25	9	529	245.0	-197292.0	-356910.0	-3311114.0
23	17	25	9	530	246.0	-197037.0	-358379.0	-3308255.0
23	17	25	9	531	247.0	-196879.0	-361146.0	-3311919.0
23	17	25	9	531	248.0	-196598.0	-367284.0	-3322932.0
23	17	25	9	532	249.0	-196501.0	-374236.0	-3332442.0
23	17	25	9	533	250.0	-196477.0	-379177.0	-3342217.0
23	17	25	9	533	251.0	-196306.0	-384002.0	-3357611.0
23	17	25	9	535	252.0	-196272.0	-387272.0	-3375001.0
23	17	25	9	535	253.0	-196418.0	-389490.0	-3377896.0
23	17	25	9	536	254.0	-196514.0	-392537.0	-3370372.0
23	17	25	9	537	255.0	-196424.0	-395231.0	-3356624.0
23	17	25	9	538	0.0	-196351.0	-397072.0	-3343584.0
23	17	25	9	539	1.0	-196449.0	-400131.0	-3337745.0
23	17	25	9	539	2.0	-196676.0	-404617.0	-3339424.0
23	17	25	9	540	3.0	-196725.0	-409041.0	-3340955.0
23	17	25	9	540	4.0	-196652.0	-415784.0	-3340752.0
23	17	25	9	541	5.0	-196715.0	-423736.0	-3342962.0
23	17	25	9	542	6.0	-196759.0	-428404.0	-3348299.0
23	17	25	9	542	7.0	-196855.0	-430347.0	-3339633.0
23	17	25	9	543	8.0	-196601.0	-433124.0	-3315171.0
23	17	25	9	544	9.0	-196639.0	-434729.0	-3281333.0
23	17	25	9	573	10.0	-196529.0	-436324.0	-3245588.0
23	17	25	9	618	11.0	-196586.0	-438837.0	-3216883.0
23	17	25	9	619	12.0	-196654.0	-443005.0	-3196869.0
23	17	25	9	619	13.0	-196715.0	-446932.0	-3176192.0
23	17	25	9	620	14.0	-196573.0	-450841.0	-3155322.0
23	17	25	9	621	15.0	-196539.0	-455530.0	-3139932.0
23	17	25	9	622	16.0	-196703.0	-458787.0	-3124889.0
23	17	25	9	622	17.0	-196597.0	-460287.0	-3094821.0
23	17	25	9	623	18.0	-196287.0	-460355.0	-3052314.0
23	17	25	9	624	19.0	-196249.0	-459969.0	-3005420.0
23	17	25	9	624	20.0	-196361.0	-459384.0	-2960804.0
23	17	25	9	625	21.0	-196607.0	-460123.0	-2926401.0
23	17	25	9	626	22.0	-196481.0	-462444.0	-2900798.0
23	17	25	9	626	23.0	-196502.0	-465829.0	-2875806.0
23	17	25	9	627	24.0	-196615.0	-468689.0	-2851433.0
23	17	25	9	628	26.0	-196734.0	-480347.0	-2820157.0
23	17	25	9	628	48.0	-197502.0	-543772.0	-2033719.0
23	17	25	9	629	49.0	-197412.0	-543992.0	-1984654.0
23	17	25	9	630	50.0	-197206.0	-544445.0	-1939572.0
23	17	25	9	630	51.0	-197367.0	-547706.0	-1912819.0
23	17	25	9	631	52.0	-197425.0	-552696.0	-1895762.0
23	17	25	9	632	53.0	-197570.0	-559441.0	-1880706.0
23	17	25	9	632	54.0	-197722.0	-565160.0	-1869537.0
23	17	25	9	663	55.0	-197901.0	-571629.0	-1868348.0
23	17	25	9	664	56.0	-197557.0	-576270.0	-1864466.0
23	17	25	9	664	57.0	-197162.0	-573699.0	-1843974.0
23	17	25	9	665	58.0	-196689.0	-571460.0	-1810109.0
23	17	25	9	666	59.0	-196834.0	-571634.0	-1775807.0
23	17	25	9	667	60.0	-197631.0	-572022.0	-1744726.0
23	17	25	9	667	61.0	-197522.0	-574811.0	-1731131.0
23	17	25	9	668	62.0	-197369.0	-578381.0	-1726531.0
23	17	25	9	669	63.0	-197355.0	-581947.0	-1722741.0
23	17	25	9	669	64.0	-197177.0	-586197.0	-1721516.0
23	17	25	9	670	65.0	-197297.0	-593044.0	-1730174.0
23	17	25	9	671	66.0	-197134.0	-599267.0	-1734014.0
23	17	25	9	671	67.0	-197116.0	-602924.0	-1721867.0
23	17	25	9	672	68.0	-196727.0	-603721.0	-1695818.0
23	17	25	9	673	69.0	-196394.0	-603685.0	-1666442.0
23	17	25	9	674	70.0	-196807.0	-604422.0	-1641213.0
23	17	25	9	674	71.0	-196582.0	-606389.0	-1632038.0
23	17	25	9	675	72.0	-196538.0	-609304.0	-1626457.0
23	17	25	9	676	73.0	-196539.0	-613558.0	-1619787.0
23	17	25	9	676	74.0	-196315.0	-619610.0	-1616581.0
23	17	25	9	677	75.0	-196221.0	-627907.0	-1625601.0
23	17	25	9	677	76.0	-196281.0	-634061.0	-1626147.0
23	17	25	9	678	77.0	-196410.0	-637715.0	-1602300.0
23	17	25	9	709	78.0	-196260.0	-638954.0	-1566120.0
23	17	25	9	709	79.0	-195831.0	-638729.0	-1528018.0
23	17	25	9	710	80.0	-195796.0	-635079.0	-1491334.0
23	17	25	9	711	81.0	-195787.0	-631814.0	-1469061.0
23	17	25	9	712	82.0	-195724.0	-635289.0	-1450722.0
23	17	25	9	712	83.0	-195562.0	-640067.0	-1433547.0
23	17	25	9	713	84.0	-195458.0	-647593.0	-1420139.0
23	17	25	9	714	85.0	-195563.0	-658292.0	-1416042.0
23	17	25	9	715	86.0	-195669.0	-665227.0	-1400762.0
23	17	25	9	715	87.0	-195654.0	-667756.0	-1368108.0
23	17	25	9	716	88.0	-195707.0	-667657.0	-1322321.0
23	17	25	9	717	89.0	-195501.0	-667256.0	-1273456.0
23	17	25	9	717	90.0	-195570.0	-666992.0	-1226629.0
23	17	25	9	718	91.0	-195569.0	-668529.0	-1194751.0
23	17	25	9	719	92.0	-195359.0	-669217.0	-1166917.0
23	17	25	9	720	93.0	-195419.0	-667432.0	-1139587.0
23	17	25	9	720	94.0	-195602.0	-673524.0	-1114872.0
23	17	25	9	721	95.0	-195647.0	-689090.0	-1096599.0
23	17	25	9	721	96.0	-195675.0	-697092.0	-1064496.0
23	17	25	9	722	97.0	-195746.0	-699230.0	-1011724.0
23	17	25	9	723	98.0	-195697.0	-700461.0	-945471.0
23	17	25	9	723	99.0	-195703.0	-700781.0	-878228.0
23	17	25	9	752	100.0	-195627.0	-700424.0	-816364.0
23	17	25	9	753	101.0	-195683.0	-703193.0	-774159.0
23	17	25	9	753	102.0	-195807.0	-707122.0	-736014.0
23	17	25	9	979	103.0	-195772.0	-709477.0	-696981.0
23	17	25	9	980	104.0	-195951.0	-712544.0	-663251.0
23	17	25	9	981	105.0	-196083.0	-718595.0	-642474.0
23	17	25	9	981	106.0	-196192.0	-722552.0	-608617.0
23	17	25	9	982	107.0	-196224.0	-725252.0	-557528.0
23	17	25	10	23	108.0	-196159.0	-725299.0	-495721.0
23	17	25	10	24	109.0	-195986.0	-724898.0	-431764.0
23	17	25	10	25	110.0	-195748.0	-725909.0	-373473.0
23	17	25	10	25	111.0	-195848.0	-730306.0	-335096.0
23	17	25	10	26	112.0	-195834.0	-735241.0	-302373.0
23	17	25	10	27	113.0	-195818.0	-741208.0	-271755.0
23	17	25	10	27	114.0	-195904.0	-748673.0	-248369.0
23	17	25	10	28	116.0	-195756.0	-761832.0	-208712.0
23	17	25	10	29	117.0	-195624.0	-762463.0	-165817.0
23	17	25	10	30	118.0	-195780.0	-754512.0	-112832.0
23	17	25	10	31	138.0	-195834.0	-784172.0	371276.0
23	17	25	10	31	228.0	-196539.0	-1021246.0	531120.0
23	17	25	10	32	229.0	-196488.0	-1010609.0	545409.0
23	17	25	10	33	230.0	-196431.0	-1012365.0	543915.0
23	17	25	10	33	231.0	-196411.0	-1015448.0	541213.0
23	17	25	10	34	232.0	-196362.0	-1018844.0	536015.0
23	17	25	10	34	251.0	-196321.0	-1044756.0	539556.0
23	17	25	10	35	252.0	-196454.0	-1046882.0	534990.0
23	17	25	10	36	253.0	-196571.0	-1050813.0	523746.0
23	17	25	10	67	254.0	-196534.0	-1056138.0	505434.0
23	17	25	10	68	255.0	-196377.0	-1058813.0	498073.0
23	17	25	10	68	0.0	-196376.0	-1059372.0	506250.0
23	17	25	10	69	1.0	-196562.0	-1059149.0	524536.0
23	17	25	10	70	2.0	-196501.0	-1058396.0	542598.0
23	17	25	10	71	3.0	-196296.0	-1058806.0	553744.0
23	17	25	10	71	4.0	-196329.0	-1060936.0	550616.0
23	17	25	10	72	5.0	-196436.0	-1063791.0	543899.0
23	17	25	10	73	6.0	-196444.0	-1067337.0	535674.0
23	17	25	10	73	7.0	-196436.0	-1071839.0	521721.0
23	17	25	10	74	8.0	-196701.0	-1077125.0	501246.0
23	17	25	10	75	9.0	-196685.0	-1080585.0	495373.0
23	17	25	10	75	10.0	-196383.0	-1081390.0	505404.0
23	17	25	10	76	11.0	-196277.0	-1079622.0	524833.0
23	17	25	10	77	12.0	-196452.0	-1078504.0	541271.0
23	17	25	10	77	13.0	-196452.0	-1077094.0	547670.0
23	17	25	10	78	17.0	-196657.0	-1087055.0	502140.0
23	17	25	10	79	18.0	-196649.0	-1089347.0	479532.0
23	17	25	10	79	19.0	-196464.0	-1092237.0	470480.0
23	17	25	10	80	20.0	-196334.0	-1093482.0	477604.0
23	17	25	10	81	21.0	-196267.0	-1092264.0	495632.0
23	17	25	10	81	22.0	-196234.0	-1090640.0	512661.0
23	17	25	10	82	23.0	-196227.0	-1090672.0	521875.0
23	17	25	10	114	24.0	-196307.0	-1092659.0	515474.0
23	17	25	10	114	25.0	-196309.0	-1095548.0	504881.0
23	17	25	10	115	26.0	-196324.0	-1099093.0	493109.0
23	17	25	10	116	27.0	-196345.0	-1103852.0	476468.0
23	17	25	10	116	28.0	-196226.0	-1109062.0	454928.0
23	17	25	10	158	29.0	-196111.0	-1111208.0	448834.0
23	17	25	10	158	30.0	-196066.0	-1111657.0	456002.0
23	17	25	10	159	31.0	-195985.0	-1110983.0	472607.0
23	17	25	10	160	32.0	-195922.0	-1109857.0	488895.0
23	17	25	10	160	33.0	-195985.0	-1109571.0	497228.0
23	17	25	10	161	34.0	-195949.0	-1110842.0	489637.0
23	17	25	10	203	35.0	-195901.0	-1106146.0	480700.0
23	17	25	10	204	36.0	-195961.0	-1099915.0	472346.0
23	17	25	10	205	37.0	-196017.0	-1103629.0	457429.0
23	17	25	10	205	38.0	-196154.0	-1108660.0	435900.0
23	17	25	10	206	39.0	-196006.0	-1111357.0	431454.0
23	17	25	10	207	40.0	-195910.0	-1111484.0	442368.0
23	17	25	10	207	41.0	-196097.0	-1110297.0	460496.0
23	17	25	10	208	42.0	-196133.0	-1109367.0	476181.0
23	17	25	10	209	43.0	-196126.0	-1109348.0	482783.0
23	17	25	10	209	62.0	-196909.0	-1147664.0	522807.0
23	17	25	10	210	63.0	-197010.0	-1159569.0	528414.0
23	17	25	10	211	64.0	-196972.0	-1162742.0	524051.0
23	17	25	10	212	65.0	-196771.0	-1162108.0	519019.0
23	17	25	10	212	66.0	-196771.0	-1161946.0	512457.0
23	17	25	10	213	67.0	-196860.0	-1166499.0	498306.0
23	17	25	10	214	68.0	-196618.0	-1171196.0	481475.0
23	17	25	10	214	85.0	-195839.0	-1208252.0	532828.0
23	17	25	10	215	86.0	-195759.0	-1210440.0	524719.0
23	17	25	10	215	87.0	-195679.0	-1214044.0	504956.0
23	17	25	10	216	88.0	-195844.0	-1217639.0	490490.0
23	17	25	10	217	89.0	-195836.0	-1216576.0	496821.0
23	17	25	10	217	90.0	-195767.0	-1211341.0	516400.0
23	17	25	10	247	91.0	-195739.0	-1209417.0	540128.0
23	17	25	10	248	92.0	-195944.0	-1208171.0	561623.0
23	17	25	10	249	93.0	-195872.0	-1209713.0	570115.0
23	17	25	10	250	94.0	-195737.0	-1212117.0	571160.0
23	17	25	10	250	95.0	-195729.0	-1213661.0	571679.0
23	17	25	10	251	96.0	-195637.0	-1217344.0	569506.0
23	17	25	10	252	97.0	-195623.0	-1223401.0	554626.0
23	17	25	10	252	98.0	-195599.0	-1227421.0	546191.0
23	17	25	10	253	99.0	-195446.0	-1229438.0	553515.0
23	17	25	10	254	100.0	-195534.0	-1230670.0	570904.0
23	17	25	10	254	101.0	-195626.0	-1231353.0	592881.0
23	17	25	10	293	102.0	-195428.0	-1230541.0	612475.0
23	17	25	10	294	103.0	-195336.0	-1232281.0	618105.0
23	17	25	10	296	104.0	-195329.0	-1235287.0	620143.0
23	17	25	10	304	105.0	-195506.0	-1238511.0	622277.0
23	17	25	10	304	107.0	-195561.0	-1241938.0	611694.0
23	17	25	10	305	108.0	-195698.0	-1242939.0	606134.0
23	17	25	10	306	109.0	-195877.0	-1243465.0	618079.0
23	17	25	10	306	110.0	-196097.0	-1234472.0	643840.0
23	17	25	10	307	111.0	-196145.0	-1229568.0	669953.0
23	17	25	10	308	112.0	-196113.0	-1229976.0	692314.0
23	17	25	10	308	113.0	-196235.0	-1232289.0	697504.0
23	17	25	10	309	114.0	-195931.0	-1234902.0	694271.0
23	17	25	10	310	115.0	-195913.0	-1237272.0	691561.0
23	17	25	10	310	116.0	-196127.0	-1239659.0	689204.0
23	17	25	10	311	117.0	-195942.0	-1239606.0	678229.0
23	17	25	10	311	118.0	-195898.0	-1241189.0	677956.0
23	17	25	10	312	130.0	-196030.0	-1242627.0	816677.0
23	17	25	10	313	131.0	-196040.0	-1240709.0	844949.0
23	17	25	10	313	132.0	-196181.0	-1233901.0	867779.0
23	17	25	10	314	133.0	-196058.0	-1234386.0	874017.0
23	17	25	10	315	134.0	-195919.0	-1237678.0	876071.0
23	17	25	10	315	135.0	-195951.0	-1239599.0	874855.0
23	17	25	10	338	136.0	-196029.0	-1241892.0	870651.0
23	17	25	10	383	137.0	-195926.0	-1246810.0	858571.0
23	17	25	10	383	138.0	-195911.0	-1250687.0	858099.0
23	17	25	10	384	139.0	-195955.0	-1252282.0	873756.0
23	17	25	10	385	140.0	-196163.0	-1251788.0	896404.0
23	17	25	10	385	141.0	-196122.0	-1250347.0	920054.0
23	17	25	10	386	142.0	-196080.0	-1249962.0	937541.0
23	17	25	10	427	143.0	-195978.0	-1251668.0	938716.0
23	17	25	10	428	144.0	-195902.0	-1253845.0	937046.0
23	17	25	10	429	145.0	-195787.0	-1255844.0	932844.0
23	17	25	10	429	146.0	-195899.0	-1251694.0	923983.0
23	17	25	10	430	147.0	-196027.0	-1251783.0	910423.0
23	17	25	10	431	148.0	-196127.0	-1254618.0	909343.0
23	17	25	10	431	149.0	-196087.0	-1255387.0	924238.0
23	17	25	10	432	150.0	-196012.0	-1257933.0	946383.0
23	17	25	10	433	152.0	-196019.0	-1258758.0	977195.0
23	17	25	10	474	153.0	-195906.0	-1263010.0	975529.0
23	17	25	10	474	175.0	-196601.0	-1295461.0	975419.0
23	17	25	10	475	176.0	-196552.0	-1291686.0	960591.0
23	17	25	10	476	177.0	-196593.0	-1296338.0	940995.0
23	17	25	10	476	178.0	-196619.0	-1298733.0	936169.0
23	17	25	10	477	179.0	-196701.0	-1298497.0	944901.0
23	17	25	10	478	180.0	-196869.0	-1296760.0	961118.0
23	17	25	10	479	197.0	-196822.0	-1320657.0	913782.0
23	17	25	10	479	198.0	-196723.0	-1321699.0	910636.0
23	17	25	10	480	199.0	-196599.0	-1316542.0	919228.0
23	17	25	10	481	200.0	-196684.0	-1306728.0	931863.0
23	17	25	10	481	201.0	-196802.0	-1304966.0	943923.0
23	17	25	10	482	202.0	-196728.0	-1305229.0	946121.0
23	17	25	10	483	203.0	-196799.0	-1306224.0	937794.0
23	17	25	10	483	204.0	-196893.0	-1307631.0	928453.0
23	17	25	10	484	205.0	-196829.0	-1308780.0	917651.0
23	17	25	10	486	219.0	-196466.0	-1310198.0	844498.0
23	17	25	10	486	220.0	-196594.0	-1307692.0	854738.0
23	17	25	10	487	221.0	-196591.0	-1298869.0	865246.0
23	17	25	10	487	222.0	-196589.0	-1293315.0	862231.0
23	17	25	10	488	223.0	-196690.0	-1294898.0	849250.0
23	17	25	10	489	224.0	-196602.0	-1296621.0	836196.0
23	17	25	10	489	225.0	-196454.0	-1298262.0	820158.0
23	17	25	10	518	226.0	-196457.0	-1301941.0	796221.0
23	17	25	10	519	227.0	-196366.0	-1305909.0	776509.0
23	17	25	10	519	228.0	-196254.0	-1307697.0	776413.0
23	17	25	10	520	229.0	-196271.0	-1307557.0	785917.0
23	17	25	10	521	230.0	-196577.0	-1306901.0	797287.0
23	17	25	10	521	231.0	-196482.0	-1305204.0	804771.0
23	17	25	10	522	232.0	-196352.0	-1305382.0	800822.0
23	17	25	10	523	233.0	-196432.0	-1304131.0	790608.0
23	17	25	10	524	234.0	-196352.0	-1294170.0	775254.0
23	17	25	10	524	235.0	-196251.0	-1294521.0	754616.0
23	17	25	10	525	236.0	-196353.0	-1304371.0	725248.0
23	17	25	10	526	237.0	-196348.0	-1309439.0	699899.0
23	17	25	10	527	238.0	-196154.0	-1310047.0	695243.0
23	17	25	10	527	239.0	-196194.0	-1309262.0	705103.0
23	17	25	10	528	240.0	-196422.0	-1307303.0	718465.0
23	17	25	10	529	242.0	-196369.0	-1306192.0	723908.0
23	17	25	10	529	243.0	-196304.0	-1307577.0	711870.0
23	17	25	10	530	244.0	-196267.0	-1309701.0	699344.0
23	17	25	10	531	245.0	-196159.0	-1317879.0	684759.0
23	17	25	10	531	246.0	-196146.0	-1325152.0	659807.0
23	17	25	10	532	247.0	-196125.0	-1328972.0	638906.0
23	17	25	10	563	248.0	-196162.0	-1330494.0	635592.0
23	17	25	10	564	249.0	-196310.0	-1329839.0	643876.0
23	17	25	10	564	250.0	-196422.0	-1327697.0	655747.0
23	17	25	10	565	251.0	-196432.0	-1325737.0	667030.0
23	17	25	10	566	252.0	-196363.0	-1326052.0	660700.0
23	17	25	10	567	253.0	-196139.0	-1327118.0	646701.0
23	17	25	10	567	254.0	-196237.0	-1328581.0	631947.0
23	17	25	10	568	255.0	-196458.0	-1331397.0	615097.0
23	17	25	10	569	0.0	-196526.0	-1336209.0	588881.0
23	17	25	10	570	1.0	-196504.0	-1340189.0	568065.0
23	17	25	10	570	2.0	-196470.0	-1340520.0	564246.0
23	17	25	10	571	3.0	-196412.0	-1338637.0	572634.0
23	17	25	10	572	4.0	-196254.0	-1336147.0	583330.0
23	17	25	10	573	5.0	-196102.0	-1334257.0	589373.0
23	17	25	10	574	6.0	-196027.0	-1334587.0	578269.0
23	17	25	10	575	8.0	-196063.0	-1339357.0	549196.0
23	17	25	10	575	9.0	-196169.0	-1342569.0	532638.0
23	17	25	10	581	10.0	-196220.0	-1347672.0	504829.0
23	17	25	10	609	11.0	-196233.0	-1351457.0	485455.0
23	17	25	10	609	12.0	-196149.0	-1352643.0	484499.0
23	17	25	10	610	13.0	-196269.0	-1351031.0	494429.0
23	17	25	10	611	14.0	-196281.0	-1348532.0	506401.0
23	17	25	10	611	15.0	-196322.0	-1347272.0	513724.0
23	17	25	10	653	16.0	-196297.0	-1348466.0	503704.0
23	17	25	10	654	17.0	-196281.0	-1350537.0	489039.0
23	17	25	10	655	18.0	-196266.0	-1353388.0	474225.0
23	17	25	10	655	19.0	-196259.0	-1356984.0	457260.0
23	17	25	10	656	20.0	-196277.0	-1362163.0	434091.0
23	17	25	10	656	21.0	-196286.0	-1365652.0	420247.0
23	17	25	10	657	22.0	-196138.0	-1365852.0	421497.0
23	17	25	10	697	23.0	-196280.0	-1363395.0	433151.0
23	17	25	10	698	24.0	-196173.0	-1360659.0	443733.0
23	17	25	10	699	25.0	-196055.0	-1359777.0	449583.0
23	17	25	10	699	31.0	-195925.0	-1380030.0	348857.0
23	17	25	10	700	32.0	-195736.0	-1380979.0	346098.0
23	17	25	10	701	33.0	-195963.0	-1380507.0	354541.0
23	17	25	10	701	34.0	-196025.0	-1379326.0	363021.0
23	17	25	10	702	35.0	-196014.0	-1378659.0	366369.0
23	17	25	10	703	53.0	-196337.0	-1401753.0	182430.0
23	17	25	10	703	54.0	-196429.0	-1399484.0	190550.0
23	17	25	10	704	55.0	-196227.0	-1398754.0	191718.0
23	17	25	10	705	56.0	-196000.0	-1400287.0	178840.0
23	17	25	10	705	57.0	-196123.0	-1401961.0	161815.0
23	17	25	10	742	58.0	-196203.0	-1404918.0	144383.0
23	17	25	10	743	59.0	-196094.0	-1409132.0	121811.0
23	17	25	10	743	60.0	-196056.0	-1416192.0	92408.0
23	17	25	10	744	76.0	-196118.0	-1433894.0	16908.0
23	17	25	10	745	77.0	-196131.0	-1435306.0	5816.0
23	17	25	10	746	78.0	-196130.0	-1437202.0	-7250.0
23	17	25	10	746	79.0	-196256.0	-1440047.0	-23746.0
23	17	25	10	747	80.0	-196282.0	-1441304.0	-43576.0
23	17	25	10	748	81.0	-196126.0	-1441044.0	-50246.0
23	17	25	10	748	82.0	-196006.0	-1440944.0	-45096.0
23	17	25	10	749	83.0	-196300.0	-1440813.0	-32599.0
23	17	25	10	750	84.0	-196328.0	-1439425.0	-20069.0
23	17	25	10	750	85.0	-196206.0	-1439189.0	-19164.0
23	17	25	10	751	86.0	-196201.0	-1440791.0	-28320.0
23	17	25	10	752	87.0	-196334.0	-1443199.0	-40345.0
23	17	25	10	752	88.0	-196380.0	-1446053.0	-53259.0
23	17	25	10	753	98.0	-196132.0	-1436966.0	-61406.0
23	17	25	10	754	99.0	-196104.0	-1441833.0	-74422.0
23	17	25	10	754	100.0	-196239.0	-1447022.0	-89586.0
23	17	25	10	755	101.0	-196252.0	-1448859.0	-89408.0
23	17	25	10	755	102.0	-196195.0	-1448486.0	-76588.0
23	17	25	10	756	103.0	-196351.0	-1446831.0	-55217.0
23	17	25	10	757	104.0	-196281.0	-1445457.0	-35992.0
23	17	25	10	788	105.0	-196135.0	-1445600.0	-30387.0
23	17	25	10	789	106.0	-196222.0	-1447450.0	-34551.0
23	17	25	10	789	107.0	-196208.0	-1448997.0	-38241.0
23	17	25	10	790	108.0	-196226.0	-1450512.0	-43606.0
23	17	25	10	791	109.0	-196332.0	-1453819.0	-56702.0
23	17	25	10	791	110.0	-196394.0	-1456873.0	-69198.0
23	17	25	10	792	111.0	-196378.0	-1457561.0	-65472.0
23	17	25	10	833	112.0	-196407.0	-1456774.0	-51786.0
23	17	25	10	834	113.0	-196282.0	-1455530.0	-31652.0
23	17	25	10	834	114.0	-196207.0	-1454526.0	-12685.0
23	17	25	10	835	115.0	-196371.0	-1453379.0	-6814.0
23	17	25	10	836	116.0	-196395.0	-1453676.0	-8462.0
23	17	25	10	836	117.0	-196239.0	-1454961.0	-8474.0
23	17	25	10	837	118.0	-196276.0	-1457604.0	-10778.0
23	17	25	10	838	119.0	-196396.0	-1461914.0	-22895.0
23	17	25	10	838	120.0	-196466.0	-1465591.0	-34442.0
23	17	25	10	877	121.0	-196389.0	-1466736.0	-30613.0
23	17	25	10	878	122.0	-196246.0	-1465773.0	-14607.0
23	17	25	10	879	123.0	-196284.0	-1462645.0	7688.0
23	17	25	10	879	124.0	-196401.0	-1459607.0	29341.0
23	17	25	10	880	125.0	-196241.0	-1459587.0	38341.0
23	17	25	10	881	126.0	-196075.0	-1460887.0	39864.0
23	17	25	10	881	127.0	-196241.0	-1462239.0	38725.0
23	17	25	10	882	143.0	-196420.0	-1488336.0	132626.0
23	17	25	10	883	144.0	-196352.0	-1480289.0	150504.0
23	17	25	10	883	145.0	-196466.0	-1478065.0	155819.0
23	17	25	10	884	146.0	-196260.0	-1479998.0	155556.0
23	17	25	10	923	147.0	-196025.0	-1481319.0	150534.0
23	17	25	10	924	148.0	-196194.0	-1483101.0	142036.0
23	17	25	10	925	149.0	-196402.0	-1496666.0	126439.0
23	17	25	10	925	150.0	-196414.0	-1509106.0	119323.0
23	17	25	10	926	165.0	-196226.0	-1512849.0	282483.0
23	17	25	10	927	166.0	-196504.0	-1513976.0	284117.0
23	17	25	10	927	167.0	-196546.0	-1514822.0	286493.0
23	17	25	10	928	168.0	-196414.0	-1516864.0	283533.0
23	17	25	10	929	169.0	-196508.0	-1520798.0	272650.0
23	17	25	10	929	170.0	-196464.0	-1523327.0	271101.0
23	17	25	10	930	171.0	-196314.0	-1523904.0	281433.0
23	17	25	10	931	172.0	-196192.0	-1522439.0	301653.0
23	17	25	10	931	173.0	-196091.0	-1520560.0	323407.0
23	17	25	10	932	174.0	-195990.0	-1519803.0	339123.0
23	17	25	10	933	175.0	-195990.0	-1520772.0	340738.0
23	17	25	10	934	176.0	-196150.0	-1521186.0	339768.0
23	17	25	10	934	188.0	-196376.0	-1529442.0	381374.0
23	17	25	10	935	189.0	-196401.0	-1532578.0	366484.0
23	17	25	10	936	190.0	-196377.0	-1533375.0	361910.0
23	17	25	10	936	191.0	-196227.0	-1529220.0	371232.0
23	17	25	10	937	192.0	-196339.0	-1525496.0	390430.0
23	17	25	10	938	193.0	-196235.0	-1523178.0	412491.0
23	17	25	10	968	194.0	-196313.0	-1522927.0	427671.0
23	17	25	10	969	195.0	-196379.0	-1527331.0	428626.0
23	17	25	10	970	196.0	-196254.0	-1543219.0	426824.0
23	17	25	10	970	197.0	-196116.0	-1549602.0	424858.0
23	17	25	10	971	198.0	-196144.0	-1552372.0	417896.0
23	17	25	10	972	199.0	-196242.0	-1556039.0	403720.0
23	17	25	10	972	200.0	-196281.0	-1558144.0	402938.0
23	17	25	11	14	201.0	-196392.0	-1558326.0	415094.0
23	17	25	11	14	202.0	-196366.0	-1555579.0	434652.0
23	17	25	11	15	203.0	-196412.0	-1553112.0	453908.0
23	17	25	11	16	204.0	-196354.0	-1552009.0	465895.0
23	17	25	11	16	205.0	-196256.0	-1552758.0	462391.0
23	17	25	11	18	206.0	-196322.0	-1554147.0	458195.0
23	17	25	11	18	207.0	-196301.0	-1555849.0	455505.0
23	17	25	11	19	208.0	-196231.0	-1558241.0	447844.0
23	17	25	11	20	210.0	-196322.0	-1563872.0	433354.0
23	17	25	11	20	211.0	-196533.0	-1564261.0	446597.0
23	17	25	11	21	212.0	-196570.0	-1564774.0	467937.0
23	17	25	11	22	213.0	-196599.0	-1564316.0	488464.0
23	17	25	11	23	214.0	-196396.0	-1563679.0	501865.0
23	17	25	11	23	215.0	-196487.0	-1564763.0	501341.0
23	17	25	11	24	216.0	-196402.0	-1565073.0	497938.0
23	17	25	11	25	217.0	-196361.0	-1565256.0	493037.0
23	17	25	11	25	233.0	-196194.0	-1564379.0	503113.0
23	17	25	11	26	234.0	-196170.0	-1564298.0	507210.0
23	17	25	11	26	235.0	-196351.0	-1573688.0	500031.0
23	17	25	11	27	236.0	-196392.0	-1579299.0	491334.0
23	17	25	11	28	237.0	-196404.0	-1581136.0	480541.0
23	17	25	11	28	238.0	-196328.0	-1584886.0	460911.0
23	17	25	11	59	239.0	-196441.0	-1588147.0	439040.0
23	17	25	11	60	240.0	-196379.0	-1588827.0	435684.0
23	17	25	11	61	241.0	-196332.0	-1588324.0	445723.0
23	17	25	11	62	242.0	-196359.0	-1587094.0	462504.0
23	17	25	11	62	243.0	-196412.0	-1575884.0	475448.0
23	17	25	11	63	244.0	-196324.0	-1565759.0	478270.0
23	17	25	11	64	245.0	-196184.0	-1567307.0	470488.0
23	17	25	11	64	246.0	-196238.0	-1568709.0	459957.0
23	17	25	11	65	247.0	-196340.0	-1567815.0	449106.0
23	17	25	11	65	248.0	-196539.0	-1569267.0	433277.0
23	17	25	11	66	249.0	-196413.0	-1572349.0	415242.0
23	17	25	11	103	250.0	-196387.0	-1572337.0	411313.0
23	17	25	11	104	251.0	-196359.0	-1570339.0	420471.0
23	17	25	11	104	252.0	-196502.0	-1568067.0	436372.0
23	17	25	11	105	253.0	-196349.0	-1566737.0	450228.0
23	17	25	11	106	255.0	-196197.0	-1583088.0	440489.0
23	17	25	11	106	0.0	-196344.0	-1590779.0	428094.0
23	17	25	11	107	1.0	-196299.0	-1592251.0	414328.0
23	17	25	11	148	2.0	-196449.0	-1596239.0	394003.0
23	17	25	11	148	3.0	-196299.0	-1599612.0	373818.0
23	17	25	11	149	4.0	-196328.0	-1601127.0	368324.0
23	17	25	11	150	5.0	-196298.0	-1602248.0	373606.0
23	17	25	11	151	6.0	-196218.0	-1600601.0	382683.0
23	17	25	11	151	7.0	-196356.0	-1598687.0	392318.0
23	17	25	11	152	8.0	-196300.0	-1598214.0	388554.0
23	17	25	11	153	9.0	-196459.0	-1598447.0	375928.0
23	17	25	11	153	10.0	-196438.0	-1599601.0	362436.0
23	17	25	11	154	22.0	-196189.0	-1624704.0	265153.0
23	17	25	11	155	23.0	-196306.0	-1626333.0	246615.0
23	17	25	11	156	24.0	-196114.0	-1626187.0	245270.0
23	17	25	11	156	25.0	-196234.0	-1624401.0	255128.0
23	17	25	11	157	26.0	-196258.0	-1622346.0	267478.0
23	17	25	11	158	27.0	-196301.0	-1620761.0	276549.0
23	17	25	11	159	28.0	-196183.0	-1620909.0	271605.0
23	17	25	11	159	44.0	-196326.0	-1643230.0	180126.0
23	17	25	11	160	45.0	-196376.0	-1639716.0	193756.0
23	17	25	11	161	46.0	-196371.0	-1635227.0	209351.0
23	17	25	11	161	47.0	-196466.0	-1631652.0	219759.0
23	17	25	11	162	48.0	-196443.0	-1631317.0	215711.0
23	17	25	11	162	49.0	-196492.0	-1632327.0	208517.0
23	17	25	11	163	50.0	-196576.0	-1633304.0	202101.0
23	17	25	11	194	51.0	-197022.0	-1635886.0	190221.0
23	17	25	11	194	52.0	-196771.0	-1639851.0	168914.0
23	17	25	11	195	53.0	-196486.0	-1642594.0	157067.0
23	17	25	11	196	54.0	-196815.0	-1643149.0	162299.0
23	17	25	11	196	55.0	-196926.0	-1642009.0	178136.0
23	17	25	11	197	56.0	-196774.0	-1640353.0	194686.0
23	17	25	11	197	57.0	-196796.0	-1636291.0	206064.0
23	17	25	11	238	58.0	-196793.0	-1631667.0	201311.0
23	17	25	11	239	59.0	-196572.0	-1619253.0	194613.0
23	17	25	11	239	60.0	-196419.0	-1617049.0	188452.0
23	17	25	11	240	61.0	-196540.0	-1617396.0	177193.0
23	17	25	11	241	62.0	-196669.0	-1619897.0	159219.0
23	17	25	11	241	63.0	-196269.0	-1619936.0	151350.0
23	17	25	11	242	64.0	-196256.0	-1619585.0	158312.0
23	17	25	11	243	65.0	-196516.0	-1617976.0	176861.0
23	17	25	11	243	67.0	-196777.0	-1614380.0	208530.0
23	17	25	11	244	68.0	-196940.0	-1614945.0	208104.0
23	17	25	11	244	69.0	-196868.0	-1616592.0	204067.0
23	17	25	11	284	70.0	-196780.0	-1618716.0	201182.0
23	17	25	11	328	71.0	-197088.0	-1621941.0	193993.0
23	17	25	11	328	72.0	-197117.0	-1625382.0	179194.0
23	17	25	11	329	73.0	-196972.0	-1626894.0	176799.0
23	17	25	11	330	74.0	-197260.0	-1625651.0	189456.0
23	17	25	11	330	89.0	-196474.0	-1596221.0	334627.0
23	17	25	11	331	90.0	-196591.0	-1596314.0	337719.0
23	17	25	11	332	91.0	-196376.0	-1597711.0	336793.0
23	17	25	11	372	92.0	-196601.0	-1601155.0	326526.0
23	17	25	11	373	93.0	-197012.0	-1601932.0	330786.0
23	17	25	11	374	94.0	-197099.0	-1600671.0	349510.0
23	17	25	11	374	95.0	-196964.0	-1599179.0	375064.0
23	17	25	11	375	96.0	-196872.0	-1596934.0	399472.0
23	17	25	11	376	97.0	-196719.0	-1595396.0	417965.0
23	17	25	11	376	98.0	-196601.0	-1595907.0	422526.0
23	17	25	11	377	99.0	-196583.0	-1597245.0	424861.0
23	17	25	11	378	134.0	-196424.0	-1630557.0	566491.0
23	17	25	11	379	135.0	-196674.0	-1628842.0	578423.0
23	17	25	11	379	136.0	-196384.0	-1626406.0	588785.0
23	17	25	11	380	137.0	-196125.0	-1626088.0	589603.0
23	17	25	11	380	138.0	-196266.0	-1627562.0	579324.0
23	17	25	11	418	139.0	-197442.0	-1629379.0	566848.0
23	17	25	11	462	140.0	-197797.0	-1632435.0	552537.0
23	17	25	11	463	157.0	-192318.0	-1610109.0	426191.0
23	17	25	11	463	158.0	-192927.0	-1609437.0	412034.0
23	17	25	11	464	159.0	-193852.0	-1608676.0	398944.0
23	17	25	11	465	160.0	-194427.0	-1608768.0	383064.0
23	17	25	11	466	161.0	-195037.0	-1610147.0	363863.0
23	17	25	11	466	162.0	-195588.0	-1610752.0	345900.0
23	17	25	11	467	163.0	-195846.0	-1609028.0	337577.0
23	17	25	11	468	164.0	-195981.0	-1605281.0	336469.0
23	17	25	11	469	165.0	-196318.0	-1600929.0	336108.0
23	17	25	11	507	166.0	-196434.0	-1596708.0	332283.0
23	17	25	11	508	167.0	-196382.0	-1586040.0	320491.0
23	17	25	11	509	168.0	-196467.0	-1579091.0	306061.0
23	17	25	11	509	169.0	-196590.0	-1578849.0	290864.0
23	17	25	11	510	179.0	-195831.0	-1575814.0	195418.0
23	17	25	11	511	201.0	-197211.0	-1543031.0	221144.0
23	17	25	11	512	202.0	-195276.0	-1541845.0	235999.0
23	17	25	11	512	203.0	-191805.0	-1539581.0	246587.0
23	17	25	11	513	204.0	-188124.0	-1539104.0	254578.0
23	17	25	11	514	205.0	-190071.0	-1540849.0	260919.0
23	17	25	11	515	206.0	-195571.0	-1544001.0	267988.0
23	17	25	11	516	207.0	-197964.0	-1544347.0	282748.0
23	17	25	11	516	208.0	-197594.0	-1543161.0	298951.0
23	17	25	11	517	209.0	-196247.0	-1541794.0	315274.0
23	17	25	11	518	210.0	-194601.0	-1540708.0	333075.0
23	17	25	11	519	211.0	-193493.0	-1538447.0	356642.0
23	17	25	11	519	224.0	-197044.0	-1535277.0	556813.0
23	17	25	11	520	225.0	-196735.0	-1535086.0	554279.0
23	17	25	11	521	226.0	-197026.0	-1534841.0	554653.0
23	17	25	11	521	227.0	-197356.0	-1534486.0	567366.0
23	17	25	11	522	228.0	-197752.0	-1534312.0	581270.0
23	17	25	11	523	229.0	-198427.0	-1533748.0	595027.0
23	17	25	11	524	230.0	-198767.0	-1531429.0	614872.0
23	17	25	11	553	231.0	-199589.0	-1537058.0	644386.0
23	17	25	11	554	232.0	-200354.0	-1547618.0	664675.0
23	17	25	11	555	233.0	-200861.0	-1548460.0	670263.0
23	17	25	11	555	234.0	-200069.0	-1550422.0	664679.0
23	17	25	11	556	235.0	-198538.0	-1553322.0	660651.0
23	17	25	11	557	236.0	-197843.0	-1556425.0	662367.0
23	17	25	11	558	237.0	-198150.0	-1558173.0	673574.0
23	17	25	11	558	238.0	-199539.0	-1559304.0	685784.0
23	17	25	11	559	239.0	-200494.0	-1558936.0	697344.0
23	17	25	11	560	240.0	-200207.0	-1554746.0	707794.0
23	17	25	11	560	241.0	-199455.0	-1530254.0	720198.0
23	17	25	11	561	242.0	-198865.0	-1435819.0	725419.0
23	17	25	11	561	243.0	-198882.0	-1107353.0	725518.0
23	17	25	11	598	244.0	-199146.0	-626532.0	720864.0
23	17	25	11	599	245.0	-199148.0	-169567.0	716656.0
23	17	25	11	600	246.0	-199306.0	175151.0	719094.0
23	17	25	11	600	247.0	-199501.0	391096.0	730367.0
23	17	25	11	601	248.0	-199728.0	527661.0	741839.0
23	17	25	11	601	249.0	-199852.0	624768.0	751196.0
23	17	25	11	602	250.0	-199599.0	685422.0	760807.0
23	17	25	11	603	251.0	-199112.0	720926.0	773046.0
23	17	25	11	689	252.0	-198316.0	740391.0	776626.0
23	17	25	11	690	253.0	-197395.0	753698.0	773801.0
23	17	25	11	691	254.0	-196445.0	755039.0	769669.0
23	17	25	11	692	255.0	-195504.0	752663.0	765545.0
23	17	25	11	692	0.0	-194638.0	757610.0	766038.0
23	17	25	11	693	1.0	-193727.0	762096.0	770888.0
23	17	25	11	694	2.0	-193262.0	764598.0	778168.0
23	17	25	11	694	3.0	-194466.0	765424.0	785798.0
23	17	25	11	695	13.0	-203347.0	730673.0	793707.0
23	17	25	11	696	14.0	-212889.0	745730.0	796059.0
23	17	25	11	696	15.0	-210308.0	740133.0	792591.0
23	17	25	11	697	16.0	-204669.0	720528.0	780451.0
23	17	25	11	698	17.0	-201541.0	705729.0	764040.0
23	17	25	11	698	18.0	-199002.0	690131.0	745511.0
23	17	25	11	699	19.0	-196927.0	673219.0	727627.0
23	17	25	11	700	58.0	-195975.0	740308.0	-1353784.0
23	17	25	11	700	59.0	-196078.0	739008.0	-1424241.0
23	17	25	11	701	60.0	-195999.0	737702.0	-1485990.0
23	17	25	11	702	61.0	-195833.0	736366.0	-1544316.0
23	17	25	11	702	62.0	-195629.0	735026.0	-1603812.0
23	17	25	11	703	63.0	-195427.0	733651.0	-1662056.0
23	17	25	11	733	64.0	-195162.0	732296.0	-1715965.0
23	17	25	11	734	65.0	-194937.0	731030.0	-1769479.0
23	17	25	11	735	66.0	-194659.0	729857.0	-1827397.0
23	17	25	11	736	67.0	-194666.0	728674.0	-1886204.0
23	17	25	11	736	68.0	-194867.0	727489.0	-1941957.0
23	17	25	11	737	69.0	-195197.0	726285.0	-1994894.0
23	17	25	11	738	70.0	-195337.0	725056.0	-2040387.0
23	17	25	11	738	71.0	-195532.0	723822.0	-2082907.0
23	17	25	11	739	72.0	-195441.0	722559.0	-2125893.0
23	17	25	11	740	73.0	-195422.0	721293.0	-2167928.0
23	17	25	11	740	74.0	-195365.0	720020.0	-2204277.0
23	17	25	11	741	75.0	-195409.0	718733.0	-2244475.0
23	17	25	11	742	76.0	-195322.0	717477.0	-2286838.0
23	17	25	11	743	77.0	-195289.0	716170.0	-2328917.0
23	17	25	11	743	78.0	-195406.0	714861.0	-2370649.0
23	17	25	11	744	80.0	-195185.0	712141.0	-2440079.0
23	17	25	11	745	81.0	-195131.0	710743.0	-2470749.0
23	17	25	11	746	82.0	-195162.0	709364.0	-2504695.0
23	17	25	11	747	83.0	-195308.0	707982.0	-2537657.0
23	17	25	11	747	84.0	-195266.0	706606.0	-2568054.0
23	17	25	11	748	85.0	-195163.0	705256.0	-2599805.0
23	17	25	11	793	86.0	-195142.0	703968.0	-2634448.0
23	17	25	11	810	87.0	-195312.0	702679.0	-2672807.0
23	17	25	11	810	88.0	-195415.0	701418.0	-2707772.0
23	17	25	11	811	89.0	-195529.0	700174.0	-2739252.0
23	17	25	11	812	90.0	-195568.0	698949.0	-2764659.0
23	17	25	11	812	91.0	-195737.0	697731.0	-2788567.0
23	17	25	11	813	92.0	-195966.0	696509.0	-2811285.0
23	17	25	11	814	93.0	-196106.0	695266.0	-2831947.0
23	17	25	11	837	94.0	-196336.0	694036.0	-2851941.0
23	17	25	11	838	95.0	-196348.0	692756.0	-2878673.0
23	17	25	11	838	96.0	-196437.0	691515.0	-2909450.0
23	17	25	11	839	97.0	-196767.0	690265.0	-2942186.0
23	17	25	11	840	98.0	-196902.0	688999.0	-2973023.0
23	17	25	11	840	99.0	-197029.0	687749.0	-2998794.0
23	17	25	11	841	100.0	-197105.0	686496.0	-3016045.0
23	17	25	11	842	110.0	-196757.0	673915.0	-3208011.0
23	17	25	11	843	117.0	-196189.0	664331.0	-3283333.0
23	17	25	11	843	118.0	-196209.0	662913.0	-3295939.0
23	17	25	11	844	119.0	-196196.0	661503.0	-3304308.0
23	17	25	11	845	120.0	-196134.0	660118.0	-3304011.0
23	17	25	11	845	121.0	-195979.0	658696.0	-3304548.0
23	17	25	11	846	122.0	-195970.0	657266.0	-3308664.0
23	17	25	11	847	123.0	-195787.0	655845.0	-3310266.0
23	17	25	11	847	124.0	-195735.0	654405.0	-3307559.0
23	17	25	11	848	125.0	-195747.0	652973.0	-3309972.0
23	17	25	11	848	126.0	-195784.0	651533.0	-3317480.0
23	17	25	11	849	127.0	-195800.0	650089.0	-3323233.0
23	17	25	11	850	128.0	-195884.0	648639.0	-3324482.0
23	17	25	11	851	129.0	-195998.0	647194.0	-3321511.0
23	17	25	11	852	130.0	-196063.0	645743.0	-3313983.0
23	17	25	11	853	131.0	-196038.0	644255.0	-3305798.0
23	17	25	11	853	133.0	-195912.0	641320.0	-3282123.0
23	17	25	11	854	134.0	-195749.0	639838.0	-3268676.0
23	17	25	11	855	135.0	-195647.0	638362.0	-3262209.0
23	17	25	11	856	136.0	-195539.0	636876.0	-3259746.0
23	17	25	11	856	137.0	-195334.0	635401.0	-3255439.0
23	17	25	11	857	138.0	-195208.0	633923.0	-3248462.0
23	17	25	11	858	139.0	-195229.0	632476.0	-3235422.0
23	17	25	11	858	140.0	-195322.0	631036.0	-3217987.0
23	17	25	11	867	141.0	-195477.0	629564.0	-3201892.0
23	17	25	11	893	142.0	-195561.0	628115.0	-3185586.0
23	17	25	11	893	143.0	-195587.0	626692.0	-3167165.0
23	17	25	11	894	144.0	-195564.0	625246.0	-3146301.0
23	17	25	11	895	145.0	-195511.0	623819.0	-3132464.0
23	17	25	11	896	146.0	-195680.0	622403.0	-3124071.0
23	17	25	11	896	147.0	-195846.0	620987.0	-3117536.0
23	17	25	11	897	148.0	-195980.0	619569.0	-3109293.0
23	17	25	11	898	149.0	-195941.0	618171.0	-3095107.0
23	17	25	11	899	150.0	-195811.0	616794.0	-3078564.0
23	17	25	11	899	151.0	-195912.0	615405.0	-3063927.0
23	17	25	11	900	152.0	-195932.0	614016.0	-3048152.0
23	17	25	11	901	153.0	-195861.0	612642.0	-3031975.0
23	17	25	11	901	154.0	-195789.0	611271.0	-3013699.0
23	17	25	11	902	155.0	-195812.0	609904.0	-3001964.0
23	17	25	11	903	156.0	-195817.0	608553.0	-2993279.0
23	17	25	11	903	157.0	-195776.0	607213.0	-2984421.0
23	17	25	11	904	158.0	-195665.0	605841.0	-2972656.0
23	17	25	11	905	159.0	-195779.0	604507.0	-2954791.0
23	17	25	11	905	160.0	-195881.0	603169.0	-2933420.0
23	17	25	11	915	161.0	-195965.0	601819.0	-2912350.0
23	17	25	11	915	162.0	-195837.0	600492.0	-2891476.0
23	17	25	11	916	163.0	-195797.0	599158.0	-2869951.0
23	17	25	11	917	164.0	-195666.0	597852.0	-2850199.0
23	17	25	11	917	165.0	-195719.0	596542.0	-2837524.0
23	17	25	11	918	166.0	-195585.0	595233.0	-2826446.0
23	17	25	11	919	167.0	-195511.0	593931.0	-2814177.0
23	17	25	11	938	168.0	-195642.0	592624.0	-2804245.0
23	17	25	11	939	169.0	-195692.0	591341.0	-2791154.0
23	17	25	11	939	170.0	-195735.0	590037.0	-2774675.0
23	17	25	11	940	171.0	-195677.0	588735.0	-2761597.0
23	17	25	11	941	172.0	-195581.0	587464.0	-2749570.0
23	17	25	11	941	173.0	-195597.0	586185.0	-2734348.0
23	17	25	11	942	174.0	-195607.0	584908.0	-2720890.0
23	17	25	11	942	175.0	-195606.0	583624.0	-2714711.0
23	17	25	11	943	176.0	-195554.0	582356.0	-2709327.0
23	17	25	11	944	177.0	-195608.0	581111.0	-2701824.0
23	17	25	11	944	178.0	-195705.0	579851.0	-2692779.0
23	17	25	11	945	179.0	-195817.0	578607.0	-2679633.0
23	17	25	11	946	180.0	-195743.0	577376.0	-2665217.0
23	17	25	11	946	181.0	-195742.0	576128.0	-2651869.0
23	17	25	11	961	182.0	-195726.0	574884.0	-2637261.0
23	17	25	11	962	183.0	-195462.0	573669.0	-2620899.0
23	17	25	11	963	184.0	-195282.0	572457.0	-2607101.0
23	17	25	11	963	185.0	-195392.0	571241.0	-2599742.0
23	17	25	11	964	186.0	-195612.0	570030.0	-2595594.0
23	17	25	11	965	187.0	-195796.0	568816.0	-2591867.0
23	17	25	11	965	188.0	-195846.0	567628.0	-2585689.0
23	17	25	11	966	189.0	-195881.0	566461.0	-2572673.0
23	17	25	11	966	190.0	-195952.0	565283.0	-2559331.0
23	17	25	11	967	191.0	-195957.0	564108.0	-2548197.0
23	17	25	11	968	192.0	-196009.0	562941.0	-2536490.0
23	17	25	11	968	193.0	-196094.0	561786.0	-2520206.0
23	17	25	11	969	194.0	-196014.0	560633.0	-2506417.0
23	17	25	11	970	195.0	-195947.0	559494.0	-2499637.0
23	17	25	11	971	196.0	-195866.0	558350.0	-2495508.0
23	17	25	11	972	197.0	-195921.0	557226.0	-2490842.0
23	17	25	11	972	198.0	-196027.0	556103.0	-2485211.0
23	17	25	11	973	199.0	-196047.0	554989.0	-2473796.0
23	17	25	11	986	200.0	-196177.0	553879.0	-2457825.0
23	17	25	11	986	201.0	-196240.0	552770.0	-2443478.0
23	17	25	11	987	202.0	-196311.0	551684.0	-2430671.0
23	17	25	11	988	203.0	-196324.0	550598.0	-2413135.0
23	17	25	11	988	204.0	-196309.0	549525.0	-2400008.0
23	17	25	11	989	205.0	-196352.0	548466.0	-2393665.0
23	17	25	11	990	206.0	-196124.0	547383.0	-2391268.0
23	17	25	12	8	207.0	-195930.0	546311.0	-2390352.0
23	17	25	12	8	208.0	-195856.0	545272.0	-2388317.0
23	17	25	12	9	209.0	-195891.0	544230.0	-2379209.0
23	17	25	12	10	210.0	-196069.0	543173.0	-2367421.0
23	17	25	12	10	211.0	-195964.0	542133.0	-2356297.0
23	17	25	12	11	212.0	-196047.0	541085.0	-2346257.0
23	17	25	12	12	213.0	-196091.0	540055.0	-2334187.0
23	17	25	12	12	214.0	-196175.0	539024.0	-2326237.0
23	17	25	12	13	215.0	-196235.0	537993.0	-2323051.0
23	17	25	12	14	216.0	-196285.0	536963.0	-2322758.0
23	17	25	12	14	217.0	-196344.0	535933.0	-2322278.0
23	17	25	12	31	218.0	-196282.0	534901.0	-2319799.0
23	17	25	12	32	219.0	-196229.0	533866.0	-2310611.0
23	17	25	12	33	220.0	-196211.0	532827.0	-2303078.0
23	17	25	12	33	221.0	-196171.0	531798.0	-2296530.0
23	17	25	12	34	222.0	-196146.0	530757.0	-2289822.0
23	17	25	12	35	223.0	-196171.0	529727.0	-2279559.0
23	17	25	12	35	224.0	-196157.0	528691.0	-2272004.0
23	17	25	12	36	225.0	-196247.0	527676.0	-2271242.0
23	17	25	12	37	226.0	-196426.0	526629.0	-2272689.0
23	17	25	12	37	227.0	-196559.0	525619.0	-2272684.0
23	17	25	12	38	228.0	-196397.0	524574.0	-2270862.0
23	17	25	12	39	229.0	-196194.0	523543.0	-2264312.0
23	17	25	12	39	230.0	-196244.0	522516.0	-2256251.0
23	17	25	12	40	231.0	-196271.0	521496.0	-2249750.0
23	17	25	12	54	232.0	-196191.0	520479.0	-2242163.0
23	17	25	12	55	233.0	-196140.0	519451.0	-2229919.0
23	17	25	12	55	234.0	-196244.0	518419.0	-2222036.0
23	17	25	12	56	235.0	-196246.0	517383.0	-2221316.0
23	17	25	12	57	236.0	-196213.0	516370.0	-2222104.0
23	17	25	12	57	237.0	-196173.0	515338.0	-2222004.0
23	17	25	12	58	238.0	-196036.0	514325.0	-2219844.0
23	17	25	12	77	239.0	-195992.0	513334.0	-2212301.0
23	17	25	12	78	240.0	-196061.0	512328.0	-2204622.0
23	17	25	12	79	241.0	-196096.0	511303.0	-2199000.0
23	17	25	12	79	242.0	-196004.0	510296.0	-2191874.0
23	17	25	12	80	243.0	-195887.0	509289.0	-2181234.0
23	17	25	12	81	244.0	-195909.0	508278.0	-2178246.0
23	17	25	12	81	245.0	-196021.0	507281.0	-2182485.0
23	17	25	12	82	246.0	-196092.0	506279.0	-2190226.0
23	17	25	12	82	247.0	-196221.0	505283.0	-2197897.0
23	17	25	12	83	248.0	-196302.0	504278.0	-2201250.0
23	17	25	12	84	249.0	-196224.0	503297.0	-2196482.0
23	17	25	12	84	250.0	-196157.0	502309.0	-2193134.0
23	17	25	12	85	251.0	-196202.0	501319.0	-2191000.0
23	17	25	12	86	252.0	-196071.0	500346.0	-2186826.0
23	17	25	12	86	253.0	-195681.0	499361.0	-2179394.0
23	17	25	12	100	254.0	-195444.0	498383.0	-2179976.0
23	17	25	12	101	255.0	-195321.0	497400.0	-2187420.0
23	17	25	12	102	0.0	-195229.0	496437.0	-2193717.0
23	17	25	12	102	1.0	-195177.0	495462.0	-2197058.0
23	17	25	12	103	2.0	-195094.0	494511.0	-2198889.0
23	17	25	12	104	3.0	-195147.0	493556.0	-2196878.0
23	17	25	12	104	4.0	-195328.0	492574.0	-2196960.0
23	17	25	12	105	5.0	-195486.0	491609.0	-2198834.0
23	17	25	12	123	6.0	-195532.0	490651.0	-2197791.0
23	17	25	12	124	7.0	-195722.0	489692.0	-2195807.0
23	17	25	12	125	8.0	-196183.0	488765.0	-2200073.0
23	17	25	12	125	9.0	-196650.0	487801.0	-2208821.0
23	17	25	12	126	10.0	-196836.0	486859.0	-2220732.0
23	17	25	12	127	11.0	-196984.0	485921.0	-2230233.0
23	17	25	12	127	12.0	-197066.0	484973.0	-2234551.0
23	17	25	12	128	13.0	-196849.0	484037.0	-2234159.0
23	17	25	12	128	14.0	-196512.0	483101.0	-2235389.0
23	17	25	12	129	15.0	-196302.0	482148.0	-2234805.0
23	17	25	12	130	16.0	-196207.0	481213.0	-2232055.0
23	17	25	12	130	17.0	-196148.0	480291.0	-2227582.0
23	17	25	12	131	18.0	-196090.0	479364.0	-2229557.0
23	17	25	12	132	19.0	-196137.0	478434.0	-2233361.0
23	17	25	12	151	20.0	-196362.0	477491.0	-2237065.0
23	17	25	12	152	21.0	-196520.0	476539.0	-2241552.0
23	17	25	12	152	22.0	-196584.0	475588.0	-2244419.0
23	17	25	12	153	23.0	-196624.0	474633.0	-2241278.0
23	17	25	12	154	24.0	-196725.0	473681.0	-2238451.0
23	17	25	12	154	25.0	-196627.0	472734.0	-2236519.0
23	17	25	12	155	26.0	-196729.0	471789.0	-2234232.0
23	17	25	12	156	27.0	-196599.0	470844.0	-2231131.0
23	17	25	12	156	28.0	-196745.0	469914.0	-2236173.0
23	17	25	12	157	29.0	-196642.0	468956.0	-2243454.0
23	17	25	12	157	30.0	-196452.0	468043.0	-2251512.0
23	17	25	12	158	31.0	-196527.0	467107.0	-2257744.0
23	17	25	12	159	32.0	-196514.0	466180.0	-2261734.0
23	17	25	12	159	33.0	-196198.0	465245.0	-2262719.0
23	17	25	12	160	34.0	-195972.0	464313.0	-2263182.0
23	17	25	12	160	35.0	-196123.0	463391.0	-2262723.0
23	17	25	12	173	36.0	-196382.0	462488.0	-2260721.0
23	17	25	12	174	37.0	-196473.0	461587.0	-2257044.0
23	17	25	12	174	38.0	-196506.0	460680.0	-2261313.0
23	17	25	12	175	39.0	-196439.0	459768.0	-2271239.0
23	17	25	12	176	40.0	-196284.0	458859.0	-2282515.0
23	17	25	12	176	41.0	-196020.0	457949.0	-2293380.0
23	17	25	12	177	42.0	-195871.0	457063.0	-2299852.0
23	17	25	12	196	43.0	-195866.0	456156.0	-2302852.0
23	17	25	12	197	44.0	-195979.0	455254.0	-2307147.0
23	17	25	12	198	45.0	-196222.0	454364.0	-2312001.0
23	17	25	12	198	46.0	-196384.0	453469.0	-2315036.0
23	17	25	12	199	47.0	-196397.0	452578.0	-2316652.0
23	17	25	12	199	48.0	-196475.0	451688.0	-2324496.0
23	17	25	12	200	49.0	-196574.0	450798.0	-2335350.0
23	17	25	12	201	50.0	-196585.0	449909.0	-2344518.0
23	17	25	12	201	51.0	-196489.0	449044.0	-2349672.0
23	17	25	12	202	52.0	-196331.0	448175.0	-2351558.0
23	17	25	12	202	53.0	-196228.0	447288.0	-2354392.0
23	17	25	12	203	54.0	-196174.0	446409.0	-2359699.0
23	17	25	12	204	55.0	-196069.0	445530.0	-2363126.0
23	17	25	12	204	56.0	-195750.0	444653.0	-2363992.0
23	17	25	12	205	57.0	-195368.0	443769.0	-2366821.0
23	17	25	12	218	58.0	-195197.0	442899.0	-2376265.0
23	17	25	12	219	59.0	-194972.0	442036.0	-2390406.0
23	17	25	12	220	60.0	-194828.0	441184.0	-2404674.0
23	17	25	12	220	61.0	-194878.0	440313.0	-2418996.0
23	17	25	12	221	62.0	-194834.0	439436.0	-2429986.0
23	17	25	12	221	63.0	-194853.0	438581.0	-2437068.0
23	17	25	12	222	64.0	-194976.0	437723.0	-2444564.0
23	17	25	12	223	65.0	-195067.0	436866.0	-2452394.0
23	17	25	12	242	66.0	-195238.0	436005.0	-2458139.0
23	17	25	12	243	67.0	-195237.0	435146.0	-2463088.0
23	17	25	12	243	68.0	-195566.0	434272.0	-2475527.0
23	17	25	12	244	69.0	-195662.0	433431.0	-2492277.0
23	17	25	12	244	70.0	-195662.0	432598.0	-2507318.0
23	17	25	12	245	71.0	-195645.0	431729.0	-2522147.0
23	17	25	12	246	72.0	-195547.0	430856.0	-2535153.0
23	17	25	12	246	73.0	-195499.0	429994.0	-2545297.0
23	17	25	12	247	74.0	-195051.0	429142.0	-2552476.0
23	17	25	12	247	75.0	-195283.0	428318.0	-2558117.0
23	17	25	12	248	76.0	-196743.0	427460.0	-2565346.0
23	17	25	12	249	77.0	-197885.0	426608.0	-2573348.0
23	17	25	12	249	78.0	-197861.0	425758.0	-2586614.0
23	17	25	12	250	79.0	-196817.0	424914.0	-2602317.0
23	17	25	12	250	80.0	-196626.0	424053.0	-2618588.0
23	17	25	12	273	81.0	-196767.0	423214.0	-2634132.0
23	17	25	12	274	82.0	-196685.0	422362.0	-2645166.0
23	17	25	12	274	83.0	-196384.0	421516.0	-2652602.0
23	17	25	12	275	84.0	-196342.0	420679.0	-2662011.0
23	17	25	12	276	85.0	-196330.0	419838.0	-2672709.0
23	17	25	12	276	86.0	-196454.0	418976.0	-2679852.0
23	17	25	12	277	87.0	-196399.0	418152.0	-2691031.0
23	17	25	12	278	88.0	-196186.0	417307.0	-2705901.0
23	17	25	12	279	89.0	-196122.0	416489.0	-2721499.0
23	17	25	12	279	90.0	-196078.0	415651.0	-2739639.0
23	17	25	12	280	91.0	-196282.0	414831.0	-2757327.0
23	17	25	12	281	92.0	-196452.0	413991.0	-2768720.0
23	17	25	12	281	93.0	-196586.0	413164.0	-2778339.0
23	17	25	12	282	94.0	-196697.0	412329.0	-2789516.0
23	17	25	12	283	95.0	-196889.0	411501.0	-2799467.0
23	17	25	12	283	96.0	-197050.0	410671.0	-2808290.0
23	17	25	12	284	97.0	-197160.0	409864.0	-2818859.0
23	17	25	12	284	98.0	-197064.0	409042.0	-2832814.0
23	17	25	12	293	99.0	-196812.0	408228.0	-2849011.0
23	17	25	12	293	100.0	-196964.0	407404.0	-2864846.0
23	17	25	12	315	101.0	-196997.0	406583.0	-2876979.0
23	17	25	12	316	102.0	-196899.0	405773.0	-2884182.0
23	17	25	12	317	103.0	-196874.0	404979.0	-2890034.0
23	17	25	12	318	104.0	-197047.0	404159.0	-2896971.0
23	17	25	12	318	105.0	-196980.0	403356.0	-2904858.0
23	17	25	12	319	106.0	-196941.0	402553.0	-2910349.0
23	17	25	12	320	107.0	-196901.0	401744.0	-2916156.0
23	17	25	12	320	108.0	-196954.0	400948.0	-2925404.0
23	17	25	12	321	109.0	-197022.0	400140.0	-2935807.0
23	17	25	12	322	110.0	-196984.0	399348.0	-2945731.0
23	17	25	12	322	111.0	-196847.0	398561.0	-2955975.0
23	17	25	12	323	112.0	-196871.0	397760.0	-2960583.0
23	17	25	12	323	113.0	-197072.0	396958.0	-2964033.0
23	17	25	12	324	114.0	-197314.0	396169.0	-2969417.0
23	17	25	12	324	115.0	-197486.0	395377.0	-2974114.0
23	17	25	12	325	116.0	-197429.0	394588.0	-2976621.0
23	17	25	12	338	117.0	-197358.0	393811.0	-2983083.0
23	17	25	12	339	118.0	-197272.0	393019.0	-2993024.0
23	17	25	12	339	119.0	-197271.0	392226.0	-3003718.0
23	17	25	12	340	120.0	-197348.0	391449.0	-3012864.0
23	17	25	12	341	121.0	-197611.0	390663.0	-3020772.0
23	17	25	12	342	122.0	-197673.0	389863.0	-3020912.0
23	17	25	12	342	123.0	-197779.0	389056.0	-3020197.0
23	17	25	12	361	124.0	-197849.0	388275.0	-3021601.0
23	17	25	12	362	125.0	-197745.0	387485.0	-3022963.0
23	17	25	12	363	126.0	-197770.0	386703.0	-3020621.0
23	17	25	12	363	127.0	-197735.0	385924.0	-3023549.0
23	17	25	12	364	128.0	-197438.0	385142.0	-3031704.0
23	17	25	12	365	129.0	-197137.0	384342.0	-3042332.0
23	17	25	12	365	130.0	-197117.0	383563.0	-3050951.0
23	17	25	12	366	131.0	-196994.0	382776.0	-3056848.0
23	17	25	12	366	132.0	-196728.0	381998.0	-3055706.0
23	17	25	12	367	133.0	-196498.0	381235.0	-3054031.0
23	17	25	12	383	134.0	-196347.0	380461.0	-3054248.0
23	17	25	12	384	135.0	-196076.0	379669.0	-3054887.0
23	17	25	12	385	136.0	-195994.0	378908.0	-3054164.0
23	17	25	12	385	137.0	-196019.0	378111.0	-3057411.0
23	17	25	12	386	138.0	-195941.0	377349.0	-3064423.0
23	17	25	12	387	139.0	-195811.0	376571.0	-3073686.0
23	17	25	12	387	140.0	-195678.0	375790.0	-3082512.0
23	17	25	12	388	141.0	-195550.0	375024.0	-3088661.0
23	17	25	12	388	142.0	-195576.0	374264.0	-3089103.0
23	17	25	12	408	143.0	-195718.0	373486.0	-3088439.0
23	17	25	12	408	144.0	-195633.0	372716.0	-3088815.0
23	17	25	12	409	145.0	-195585.0	371959.0	-3089585.0
23	17	25	12	410	146.0	-195582.0	371184.0	-3086667.0
23	17	25	12	410	147.0	-195682.0	370426.0	-3089508.0
23	17	25	12	411	148.0	-195544.0	369663.0	-3094689.0
23	17	25	12	411	149.0	-195432.0	368913.0	-3099972.0
23	17	25	12	412	150.0	-195364.0	368145.0	-3104449.0
23	17	25	12	413	151.0	-195232.0	367393.0	-3108732.0
23	17	25	12	413	152.0	-194966.0	366643.0	-3109462.0
23	17	25	12	414	153.0	-194937.0	365883.0	-3110040.0
23	17	25	12	414	154.0	-195054.0	365133.0	-3108091.0
23	17	25	12	415	155.0	-195021.0	364385.0	-3103765.0
23	17	25	12	430	156.0	-194886.0	363644.0	-3101341.0
23	17	25	12	431	157.0	-194844.0	362896.0	-3102602.0
23	17	25	12	431	158.0	-195076.0	362154.0	-3107851.0
23	17	25	12	432	159.0	-195273.0	361399.0	-3114157.0
23	17	25	12	433	160.0	-195468.0	360663.0	-3118006.0
23	17	25	12	433	161.0	-195442.0	359922.0	-3120361.0
23	17	25	12	434	162.0	-195471.0	359193.0	-3119092.0
23	17	25	12	434	163.0	-195371.0	358463.0	-3116462.0
23	17	25	12	435	164.0	-195100.0	357710.0	-3114522.0
23	17	25	12	436	165.0	-194997.0	356981.0	-3115181.0
23	17	25	12	436	166.0	-195012.0	356246.0	-3113381.0
23	17	25	12	437	167.0	-194882.0	355503.0	-3114580.0
23	17	25	12	437	168.0	-194896.0	354779.0	-3122010.0
23	17	25	12	438	169.0	-195019.0	354056.0	-3130843.0
23	17	25	12	439	170.0	-195006.0	353323.0	-3138752.0
23	17	25	12	439	171.0	-194970.0	352601.0	-3143347.0
23	17	25	12	440	172.0	-194946.0	351871.0	-3143982.0
23	17	25	12	440	173.0	-194899.0	351158.0	-3146626.0
23	17	25	12	441	174.0	-194896.0	350434.0	-3148651.0
23	17	25	12	442	175.0	-195130.0	349726.0	-3147938.0
23	17	25	12	456	176.0	-195292.0	348992.0	-3146651.0
23	17	25	12	457	177.0	-195449.0	348268.0	-3150774.0
23	17	25	12	457	178.0	-195694.0	347565.0	-3156116.0
23	17	25	12	460	179.0	-195854.0	346843.0	-3161919.0
23	17	25	12	467	180.0	-195861.0	346116.0	-3166316.0
23	17	25	12	469	181.0	-195917.0	345408.0	-3166119.0
23	17	25	12	470	182.0	-196100.0	344686.0	-3163749.0
23	17	25	12	471	183.0	-196274.0	343961.0	-3162095.0
23	17	25	12	471	184.0	-196115.0	343268.0	-3160673.0
23	17	25	12	472	185.0	-195984.0	342559.0	-3157932.0
23	17	25	12	473	186.0	-196026.0	341849.0	-3153299.0
23	17	25	12	473	187.0	-195939.0	341146.0	-3152982.0
23	17	25	12	474	188.0	-195931.0	340440.0	-3155919.0
23	17	25	12	475	189.0	-195833.0	339728.0	-3157676.0
23	17	25	12	475	190.0	-195839.0	339011.0	-3159306.0
23	17	25	12	476	191.0	-195824.0	338323.0	-3159544.0
23	17	25	12	477	192.0	-196022.0	337626.0	-3157179.0
23	17	25	12	484	193.0	-196027.0	336944.0	-3155572.0
23	17	25	12	485	194.0	-196019.0	336230.0	-3151831.0
23	17	25	12	486	195.0	-196129.0	335518.0	-3147501.0
23	17	25	12	487	196.0	-196294.0	334818.0	-3143266.0
23	17	25	12	487	197.0	-196528.0	334115.0	-3141832.0
23	17	25	12	488	198.0	-196691.0	333422.0	-3140966.0
23	17	25	12	489	199.0	-196854.0	332708.0	-3142153.0
23	17	25	12	511	200.0	-197034.0	332034.0	-3140832.0
23	17	25	12	512	201.0	-197039.0	331344.0	-3136652.0
23	17	25	12	513	202.0	-196977.0	330645.0	-3129113.0
23	17	25	12	514	203.0	-196794.0	329957.0	-3121059.0
23	17	25	12	514	204.0	-196737.0	329274.0	-3112051.0
23	17	25	12	515	205.0	-196771.0	328578.0	-3100582.0
23	17	25	12	515	206.0	-196767.0	327858.0	-3089389.0
23	17	25	12	516	207.0	-196373.0	327173.0	-3083299.0
23	17	25	12	517	208.0	-196256.0	326487.0	-3078489.0
23	17	25	12	517	209.0	-196238.0	325789.0	-3073606.0
23	17	25	12	518	210.0	-196331.0	325088.0	-3068566.0
23	17	25	12	518	211.0	-196374.0	324396.0	-3059380.0
23	17	25	12	519	212.0	-196159.0	323695.0	-3046896.0
23	17	25	12	527	213.0	-196173.0	323011.0	-3034809.0
23	17	25	12	528	214.0	-196371.0	322313.0	-3022891.0
23	17	25	12	528	215.0	-196362.0	321619.0	-3012769.0
23	17	25	12	529	216.0	-196357.0	320933.0	-3004851.0
23	17	25	12	529	217.0	-196468.0	320249.0	-2998801.0
23	17	25	12	530	218.0	-196788.0	319553.0	-2992852.0
23	17	25	12	531	219.0	-196789.0	318858.0	-2987152.0
23	17	25	12	549	220.0	-196766.0	318158.0	-2979401.0
23	17	25	12	550	221.0	-196494.0	317466.0	-2969347.0
23	17	25	12	550	222.0	-196482.0	316763.0	-2957496.0
23	17	25	12	551	223.0	-196639.0	316087.0	-2947214.0
23	17	25	12	552	224.0	-196686.0	315399.0	-2935919.0
23	17	25	12	552	225.0	-196609.0	314706.0	-2924091.0
23	17	25	12	553	226.0	-196877.0	314001.0	-2913269.0
23	17	25	12	553	227.0	-197155.0	313305.0	-2906789.0
23	17	25	12	554	228.0	-197101.0	312622.0	-2902549.0
23	17	25	12	555	229.0	-197242.0	311928.0	-2899409.0
23	17	25	12	555	230.0	-197408.0	311246.0	-2896881.0
23	17	25	12	556	231.0	-197454.0	310544.0	-2889781.0
23	17	25	12	556	232.0	-197237.0	309854.0	-2881642.0
23	17	25	12	557	233.0	-197184.0	309170.0	-2874199.0
23	17	25	12	558	234.0	-197345.0	308498.0	-2866056.0
23	17	25	12	558	235.0	-197572.0	307791.0	-2858294.0
23	17	25	12	559	236.0	-197441.0	307100.0	-2853414.0
23	17	25	12	573	237.0	-197357.0	306415.0	-2852992.0
23	17	25	12	574	238.0	-197388.0	305746.0	-2853306.0
23	17	25	12	574	239.0	-197351.0	305068.0	-2852046.0
23	17	25	12	575	240.0	-197154.0	304385.0	-2852252.0
23	17	25	12	575	241.0	-196929.0	303708.0	-2851214.0
23	17	25	12	576	242.0	-196894.0	303026.0	-2849268.0
23	17	25	12	577	243.0	-196880.0	302354.0	-2845627.0
23	17	25	12	577	244.0	-196791.0	301688.0	-2840004.0
23	17	25	12	578	245.0	-196755.0	301031.0	-2832533.0
23	17	25	12	596	246.0	-196684.0	300375.0	-2825255.0
23	17	25	12	596	247.0	-196598.0	299713.0	-2823618.0
23	17	25	12	597	248.0	-196600.0	299038.0	-2825150.0
23	17	25	12	598	249.0	-196481.0	298386.0	-2824674.0
23	17	25	12	598	250.0	-196402.0	297731.0	-2822305.0
23	17	25	12	599	251.0	-196376.0	297088.0	-2814436.0
23	17	25	12	620	252.0	-196292.0	296442.0	-2809049.0
23	17	25	12	620	253.0	-196179.0	295798.0	-2806721.0
23	17	25	12	621	254.0	-196152.0	295146.0	-2802261.0
23	17	25	12	621	255.0	-196106.0	294522.0	-2797596.0
23	17	25	12	622	0.0	-195757.0	293890.0	-2794569.0
23	17	25	12	623	1.0	-195444.0	293245.0	-2795209.0
23	17	25	12	623	2.0	-195299.0	292629.0	-2799893.0
23	17	25	12	624	3.0	-195302.0	291995.0	-2804439.0
23	17	25	12	624	4.0	-195196.0	291382.0	-2807759.0
23	17	25	12	625	5.0	-195219.0	290775.0	-2808711.0
23	17	25	12	626	6.0	-195395.0	290142.0	-2809277.0
23	17	25	12	626	7.0	-195193.0	289529.0	-2810321.0
23	17	25	12	627	8.0	-195066.0	288928.0	-2810689.0
23	17	25	12	627	9.0	-195317.0	288326.0	-2811492.0
23	17	25	12	628	10.0	-195687.0	287708.0	-2819911.0
23	17	25	12	643	11.0	-195802.0	287083.0	-2837051.0
23	17	25	12	643	12.0	-195738.0	286488.0	-2855362.0
23	17	25	12	644	13.0	-195782.0	285898.0	-2871072.0
23	17	25	12	645	14.0	-195841.0	285283.0	-2883824.0
23	17	25	12	645	15.0	-195979.0	284701.0	-2893426.0
23	17	25	12	646	16.0	-196023.0	284104.0	-2902804.0
23	17	25	12	647	17.0	-196011.0	283499.0	-2913571.0
23	17	25	12	647	18.0	-196039.0	282918.0	-2926839.0
23	17	25	12	648	19.0	-196264.0	282341.0	-2941147.0
23	17	25	12	649	20.0	-196234.0	281728.0	-2960151.0
23	17	25	12	649	21.0	-196094.0	281135.0	-2983015.0
23	17	25	12	650	22.0	-196062.0	280560.0	-3008749.0
23	17	25	12	651	23.0	-196220.0	279973.0	-3033442.0
23	17	25	12	651	24.0	-196433.0	279378.0	-3059221.0
23	17	25	12	652	25.0	-196497.0	278804.0	-3083302.0
23	17	25	12	652	26.0	-196349.0	278223.0	-3106846.0
23	17	25	12	665	27.0	-196143.0	277618.0	-3133922.0
23	17	25	12	666	28.0	-196239.0	277051.0	-3161475.0
23	17	25	12	667	29.0	-196974.0	276460.0	-3186386.0
23	17	25	12	667	30.0	-197497.0	275878.0	-3216637.0
23	17	25	12	668	31.0	-197149.0	275291.0	-3252384.0
23	17	25	12	668	32.0	-196777.0	274718.0	-3290653.0
23	17	25	12	669	33.0	-196594.0	274128.0	-3326456.0
23	17	25	12	687	34.0	-196289.0	273556.0	-3359647.0
23	17	25	12	688	35.0	-195902.0	272975.0	-3388051.0
23	17	25	12	689	36.0	-195682.0	272393.0	-3415391.0
23	17	25	12	689	37.0	-195952.0	271824.0	-3439726.0
23	17	25	12	690	38.0	-196324.0	271238.0	-3459857.0
23	17	25	12	691	39.0	-196433.0	270669.0	-3477875.0
23	17	25	12	691	40.0	-196317.0	270093.0	-3501127.0
23	17	25	12	692	41.0	-196191.0	269506.0	-3527057.0
23	17	25	12	693	42.0	-196020.0	268929.0	-3552462.0
23	17	25	12	693	43.0	-195907.0	268352.0	-3576672.0
23	17	25	12	694	44.0	-195506.0	267788.0	-3594916.0
23	17	25	12	694	45.0	-195244.0	267223.0	-3605396.0
23	17	25	12	695	46.0	-195772.0	266641.0	-3616161.0
23	17	25	12	696	47.0	-196150.0	266071.0	-3626302.0
23	17	25	12	696	48.0	-196157.0	265491.0	-3633031.0
23	17	25	12	710	49.0	-195920.0	264926.0	-3638062.0
23	17	25	12	710	50.0	-195656.0	264340.0	-3649687.0
23	17	25	12	711	51.0	-195704.0	263796.0	-3663937.0
23	17	25	12	712	52.0	-195936.0	263221.0	-3677802.0
23	17	25	12	712	53.0	-196120.0	262655.0	-3689400.0
23	17	25	12	713	54.0	-196106.0	262081.0	-3696632.0
23	17	25	12	714	55.0	-196059.0	261516.0	-3698451.0
23	17	25	12	714	56.0	-196397.0	260938.0	-3699458.0
23	17	25	12	733	57.0	-196772.0	260370.0	-3699526.0
23	17	25	12	733	58.0	-196721.0	259821.0	-3697682.0
23	17	25	12	734	59.0	-196667.0	259259.0	-3692051.0
23	17	25	12	735	60.0	-196607.0	258687.0	-3691101.0
23	17	25	12	735	61.0	-196439.0	258107.0	-3693294.0
23	17	25	12	736	62.0	-196201.0	257536.0	-3696972.0
23	17	25	12	737	63.0	-196096.0	256984.0	-3700241.0
23	17	25	12	737	64.0	-196347.0	256428.0	-3699486.0
23	17	25	12	738	65.0	-196534.0	255846.0	-3695273.0
23	17	25	12	739	66.0	-196616.0	255273.0	-3691771.0
23	17	25	12	739	67.0	-196656.0	254719.0	-3687350.0
23	17	25	12	740	68.0	-196742.0	254147.0	-3681770.0
23	17	25	12	740	69.0	-196857.0	253572.0	-3674898.0
23	17	25	12	741	70.0	-196616.0	253004.0	-3673502.0
23	17	25	12	760	71.0	-196547.0	252455.0	-3676731.0
23	17	25	12	761	72.0	-196912.0	251895.0	-3677036.0
23	17	25	12	761	73.0	-197072.0	251341.0	-3674656.0
23	17	25	12	762	74.0	-196849.0	250792.0	-3669192.0
23	17	25	12	763	75.0	-196662.0	250224.0	-3659751.0
23	17	25	12	763	76.0	-196467.0	249658.0	-3653896.0
23	17	25	12	764	77.0	-196324.0	249096.0	-3648943.0
23	17	25	12	764	78.0	-196919.0	248541.0	-3639058.0
23	17	25	12	765	79.0	-196756.0	247977.0	-3629404.0
23	17	25	12	812	80.0	-196395.0	247427.0	-3624224.0
23	17	25	12	835	81.0	-196141.0	246859.0	-3621251.0
23	17	25	12	836	82.0	-195786.0	246308.0	-3619687.0
23	17	25	12	837	83.0	-195544.0	245753.0	-3615692.0
23	17	25	12	837	84.0	-195744.0	245198.0	-3607356.0
23	17	25	12	838	85.0	-196142.0	244644.0	-3595937.0
23	17	25	12	838	86.0	-196212.0	244103.0	-3584872.0
23	17	25	12	839	87.0	-195952.0	243557.0	-3574739.0
23	17	25	12	839	88.0	-196015.0	243003.0	-3561674.0
23	17	25	12	840	89.0	-196121.0	242459.0	-3548231.0
23	17	25	12	841	90.0	-195782.0	241924.0	-3541031.0
23	17	25	12	841	91.0	-195522.0	241393.0	-3535543.0
23	17	25	12	842	92.0	-195652.0	240831.0	-3529476.0
23	17	25	12	843	93.0	-195867.0	240288.0	-3522331.0
23	17	25	12	843	94.0	-195813.0	239790.0	-3512899.0
23	17	25	12	844	107.0	-196141.0	232963.0	-3367849.0
23	17	25	12	844	115.0	-196044.0	228896.0	-3290717.0
23	17	25	12	845	116.0	-196086.0	228409.0	-3278013.0
23	17	25	12	846	117.0	-196280.0	227924.0	-3266524.0
23	17	25	12	846	118.0	-196353.0	227421.0	-3252524.0
23	17	25	12	847	119.0	-196469.0	226914.0	-3240282.0
23	17	25	12	847	120.0	-196478.0	226436.0	-3234388.0
23	17	25	12	848	121.0	-196416.0	225953.0	-3231396.0
23	17	25	12	848	122.0	-196587.0	225467.0	-3226535.0
23	17	25	12	859	123.0	-196663.0	224979.0	-3218584.0
23	17	25	12	859	124.0	-196531.0	224478.0	-3205412.0
23	17	25	12	860	125.0	-196486.0	223993.0	-3190806.0
23	17	25	12	861	126.0	-196432.0	223506.0	-3177202.0
23	17	25	12	861	127.0	-196463.0	223021.0	-3163821.0
23	17	25	12	862	128.0	-196439.0	222541.0	-3145526.0
23	17	25	12	862	129.0	-196326.0	222067.0	-3129533.0
23	17	25	12	863	130.0	-196254.0	221568.0	-3120297.0
23	17	25	12	883	131.0	-196246.0	221101.0	-3114494.0
23	17	25	12	883	132.0	-196183.0	220628.0	-3108025.0
23	17	25	12	884	133.0	-196132.0	220148.0	-3100177.0
23	17	25	12	885	134.0	-196238.0	219673.0	-3086779.0
23	17	25	12	885	135.0	-196272.0	219203.0	-3070541.0
23	17	25	12	886	136.0	-196260.0	218737.0	-3057802.0
23	17	25	12	887	137.0	-196279.0	218266.0	-3044364.0
23	17	25	12	887	138.0	-196230.0	217798.0	-3028466.0
23	17	25	12	888	139.0	-196017.0	217315.0	-3013859.0
23	17	25	12	889	140.0	-195993.0	216858.0	-3004334.0
23	17	25	12	889	141.0	-196000.0	216388.0	-2998293.0
23	17	25	12	890	142.0	-196054.0	215926.0	-2991219.0
23	17	25	12	890	143.0	-196165.0	215454.0	-2982387.0
23	17	25	12	891	144.0	-196093.0	215009.0	-2969916.0
23	17	25	12	892	145.0	-195940.0	214536.0	-2954269.0
23	17	25	12	905	146.0	-196047.0	214068.0	-2937917.0
23	17	25	12	906	147.0	-196027.0	213640.0	-2921513.0
23	17	25	12	906	148.0	-195871.0	213164.0	-2899053.0
23	17	25	12	907	149.0	-195863.0	212705.0	-2878594.0
23	17	25	12	908	150.0	-195937.0	212240.0	-2866297.0
23	17	25	12	908	151.0	-196097.0	211791.0	-2854974.0
23	17	25	12	909	152.0	-196081.0	211334.0	-2841452.0
23	17	25	12	910	153.0	-195939.0	210884.0	-2825362.0
23	17	25	12	928	154.0	-196054.0	210449.0	-2804869.0
23	17	25	12	929	155.0	-196199.0	209989.0	-2783681.0
23	17	25	12	929	156.0	-196164.0	209525.0	-2763566.0
23	17	25	12	930	157.0	-196076.0	209074.0	-2744339.0
23	17	25	12	930	158.0	-196117.0	208636.0	-2722907.0
23	17	25	12	931	159.0	-196006.0	208193.0	-2707038.0
23	17	25	12	932	160.0	-195765.0	207727.0	-2694331.0
23	17	25	12	933	161.0	-195806.0	207278.0	-2685848.0
23	17	25	12	933	162.0	-195881.0	206849.0	-2677324.0
23	17	25	12	934	163.0	-195779.0	206416.0	-2666211.0
23	17	25	12	934	164.0	-195831.0	205985.0	-2651484.0
23	17	25	12	935	165.0	-196026.0	205547.0	-2636182.0
23	17	25	12	936	166.0	-196196.0	205086.0	-2620307.0
23	17	25	12	936	167.0	-196262.0	204646.0	-2604059.0
23	17	25	12	954	168.0	-196314.0	204201.0	-2585405.0
23	17	25	12	955	169.0	-196321.0	203760.0	-2570076.0
23	17	25	12	956	170.0	-196181.0	203333.0	-2559276.0
23	17	25	12	956	171.0	-196136.0	202913.0	-2552060.0
23	17	25	12	957	172.0	-196112.0	202471.0	-2545161.0
23	17	25	12	957	173.0	-196190.0	202010.0	-2536355.0
23	17	25	12	958	174.0	-196219.0	201573.0	-2522647.0
23	17	25	12	977	175.0	-196177.0	201163.0	-2508146.0
23	17	25	12	978	176.0	-196182.0	200714.0	-2492791.0
23	17	25	12	978	177.0	-196320.0	200261.0	-2476631.0
23	17	25	12	979	178.0	-196401.0	199844.0	-2456871.0
23	17	25	12	980	179.0	-196400.0	199408.0	-2443232.0
23	17	25	12	980	180.0	-196442.0	198973.0	-2436554.0
23	17	25	12	981	181.0	-196564.0	198546.0	-2432127.0
23	17	25	12	981	182.0	-196487.0	198091.0	-2427476.0
23	17	25	12	982	183.0	-196335.0	197655.0	-2420666.0
23	17	25	12	983	184.0	-196486.0	197219.0	-2408439.0
23	17	25	12	983	185.0	-196869.0	196800.0	-2395566.0
23	17	25	13	0	186.0	-197102.0	196369.0	-2382439.0
23	17	25	13	0	187.0	-197151.0	195918.0	-2367997.0
23	17	25	13	1	188.0	-197143.0	195467.0	-2351887.0
23	17	25	13	1	189.0	-197297.0	195049.0	-2339643.0
23	17	25	13	2	190.0	-197343.0	194626.0	-2332964.0
23	17	25	13	3	191.0	-197147.0	194193.0	-2328391.0
23	17	25	13	3	192.0	-197115.0	193751.0	-2322081.0
23	17	25	13	4	193.0	-197111.0	193304.0	-2314801.0
23	17	25	13	22	194.0	-197062.0	192886.0	-2303014.0
23	17	25	13	23	195.0	-196967.0	192460.0	-2290294.0
23	17	25	13	23	196.0	-196981.0	192024.0	-2278508.0
23	17	25	13	24	197.0	-197098.0	191589.0	-2264241.0
23	17	25	13	25	198.0	-197127.0	191180.0	-2247053.0
23	17	25	13	25	199.0	-197155.0	190746.0	-2236079.0
23	17	25	13	26	200.0	-197362.0	190316.0	-2229982.0
23	17	25	13	44	201.0	-197461.0	189903.0	-2224364.0
23	17	25	13	45	202.0	-197366.0	189484.0	-2217129.0
23	17	25	13	46	203.0	-197445.0	189045.0	-2207118.0
23	17	25	13	47	204.0	-197150.0	188617.0	-2189856.0
23	17	25	13	48	205.0	-196814.0	188201.0	-2174435.0
23	17	25	13	48	206.0	-196698.0	187784.0	-2160767.0
23	17	25	13	49	207.0	-196787.0	187373.0	-2145424.0
23	17	25	13	50	208.0	-196639.0	186943.0	-2127217.0
23	17	25	13	50	209.0	-196782.0	186524.0	-2113370.0
23	17	25	13	51	210.0	-196371.0	186107.0	-2104178.0
23	17	25	13	52	211.0	-196197.0	185688.0	-2096551.0
23	17	25	13	52	212.0	-196529.0	185283.0	-2085206.0
23	17	25	13	53	213.0	-196017.0	184869.0	-2072897.0
23	17	25	13	54	214.0	-195787.0	184457.0	-2057423.0
23	17	25	13	54	215.0	-195483.0	184026.0	-2042765.0
23	17	25	13	55	216.0	-195211.0	183617.0	-2027949.0
23	17	25	13	55	220.0	-194766.0	181973.0	-1970781.0
23	17	25	13	56	221.0	-194966.0	181579.0	-1964052.0
23	17	25	13	57	222.0	-195114.0	181183.0	-1956962.0
23	17	25	13	57	223.0	-195202.0	180796.0	-1945849.0
23	17	25	13	58	224.0	-195269.0	180408.0	-1928391.0
23	17	25	13	58	225.0	-195442.0	179998.0	-1911969.0
23	17	25	13	59	226.0	-195688.0	179593.0	-1894709.0
23	17	25	13	60	227.0	-195862.0	179179.0	-1874057.0
23	17	25	13	68	228.0	-195841.0	178783.0	-1853108.0
23	17	25	13	68	229.0	-195717.0	178395.0	-1838082.0
23	17	25	13	69	230.0	-195849.0	177996.0	-1826772.0
23	17	25	13	70	231.0	-196067.0	177596.0	-1817002.0
23	17	25	13	71	232.0	-196264.0	177213.0	-1805255.0
23	17	25	13	71	233.0	-196105.0	176801.0	-1791873.0
23	17	25	13	72	234.0	-196051.0	176399.0	-1775912.0
23	17	25	13	72	235.0	-196031.0	176001.0	-1758662.0
23	17	25	13	73	236.0	-196077.0	175623.0	-1743346.0
23	17	25	13	90	237.0	-196232.0	175223.0	-1725680.0
23	17	25	13	91	238.0	-196547.0	174819.0	-1706196.0
23	17	25	13	91	239.0	-196740.0	174424.0	-1694222.0
23	17	25	13	92	240.0	-196639.0	174036.0	-1685978.0
23	17	25	13	92	241.0	-196643.0	173661.0	-1680304.0
23	17	25	13	93	242.0	-196581.0	173264.0	-1671918.0
23	17	25	13	113	243.0	-196276.0	172868.0	-1658578.0
23	17	25	13	114	244.0	-195946.0	172485.0	-1643164.0
23	17	25	13	114	245.0	-195849.0	172098.0	-1629124.0
23	17	25	13	115	246.0	-195850.0	171682.0	-1618950.0
23	17	25	13	115	247.0	-195867.0	171288.0	-1606384.0
23	17	25	13	116	248.0	-196001.0	170904.0	-1593675.0
23	17	25	13	117	249.0	-196159.0	170515.0	-1587631.0
23	17	25	13	117	250.0	-196211.0	170110.0	-1585408.0
23	17	25	13	118	251.0	-196292.0	169739.0	-1581860.0
23	17	25	13	118	252.0	-196684.0	169371.0	-1575038.0
23	17	25	13	119	253.0	-196794.0	168951.0	-1563784.0
23	17	25	13	135	254.0	-196382.0	168565.0	-1549041.0
23	17	25	13	136	255.0	-195842.0	168165.0	-1536559.0
23	17	25	13	136	0.0	-195394.0	167784.0	-1526361.0
23	17	25	13	137	1.0	-195029.0	167378.0	-1513101.0
23	17	25	13	138	2.0	-194891.0	167019.0	-1499454.0
23	17	25	13	138	3.0	-195132.0	166614.0	-1493771.0
23	17	25	13	139	4.0	-195604.0	166229.0	-1492764.0
23	17	25	13	139	5.0	-195914.0	165868.0	-1490337.0
23	17	25	13	140	6.0	-196107.0	165468.0	-1484559.0
23	17	25	13	159	7.0	-196319.0	165085.0	-1475897.0
23	17	25	13	159	8.0	-196361.0	164689.0	-1466354.0
23	17	25	13	160	9.0	-196180.0	164300.0	-1459106.0
23	17	25	13	161	10.0	-196029.0	163934.0	-1451146.0
23	17	25	13	161	11.0	-195894.0	163561.0	-1440382.0
23	17	25	13	162	12.0	-195996.0	163184.0	-1432472.0
23	17	25	13	163	13.0	-196627.0	162806.0	-1431541.0
23	17	25	13	163	14.0	-196756.0	162432.0	-1432376.0
23	17	25	13	164	15.0	-196451.0	162049.0	-1431279.0
23	17	25	13	164	16.0	-196624.0	161671.0	-1428362.0
23	17	25	13	165	17.0	-196407.0	161303.0	-1420627.0
23	17	25	13	166	18.0	-195927.0	160931.0	-1409596.0
23	17	25	13	166	19.0	-196106.0	160561.0	-1400024.0
23	17	25	13	167	20.0	-196943.0	160206.0	-1394028.0
23	17	25	13	167	21.0	-196952.0	159816.0	-1384502.0
23	17	25	13	168	22.0	-196395.0	159441.0	-1377926.0
23	17	25	13	169	23.0	-195891.0	159088.0	-1378339.0
23	17	25	13	169	24.0	-196065.0	158734.0	-1381144.0
23	17	25	13	170	25.0	-195863.0	158361.0	-1383059.0
23	17	25	13	170	26.0	-195679.0	157991.0	-1384794.0
23	17	25	13	171	27.0	-195928.0	157638.0	-1379886.0
23	17	25	13	172	28.0	-195729.0	157284.0	-1372256.0
23	17	25	13	172	29.0	-194806.0	156936.0	-1365319.0
23	17	25	13	173	30.0	-194093.0	156571.0	-1357049.0
23	17	25	13	173	31.0	-194075.0	156209.0	-1347904.0
23	17	25	13	187	32.0	-194097.0	155837.0	-1342561.0
23	17	25	13	188	33.0	-194318.0	155476.0	-1344189.0
23	17	25	13	189	34.0	-194577.0	155105.0	-1345686.0
23	17	25	13	189	35.0	-194852.0	154726.0	-1345879.0
23	17	25	13	190	36.0	-194951.0	154356.0	-1346164.0
23	17	25	13	191	37.0	-195144.0	153981.0	-1337527.0
23	17	25	13	191	38.0	-195614.0	153579.0	-1326884.0
23	17	25	13	192	39.0	-196192.0	153184.0	-1317703.0
23	17	25	13	192	40.0	-196361.0	152779.0	-1307872.0
23	17	25	13	204	41.0	-196437.0	152392.0	-1295022.0
23	17	25	13	205	42.0	-196667.0	151986.0	-1283639.0
23	17	25	13	205	43.0	-196939.0	151557.0	-1280077.0
23	17	25	13	206	44.0	-197133.0	151130.0	-1277555.0
23	17	25	13	207	45.0	-197274.0	150703.0	-1275288.0
23	17	25	13	207	46.0	-197349.0	150279.0	-1270639.0
23	17	25	13	226	47.0	-197572.0	149833.0	-1260041.0
23	17	25	13	227	48.0	-197647.0	149373.0	-1249312.0
23	17	25	13	227	49.0	-197331.0	148918.0	-1239541.0
23	17	25	13	228	50.0	-196855.0	148448.0	-1230362.0
23	17	25	13	229	51.0	-196496.0	147983.0	-1220862.0
23	17	25	13	229	52.0	-196074.0	147523.0	-1215296.0
23	17	25	13	230	53.0	-195885.0	147046.0	-1212309.0
23	17	25	13	230	54.0	-195892.0	146583.0	-1210521.0
23	17	25	13	252	55.0	-195847.0	146103.0	-1209424.0
23	17	25	13	253	56.0	-195692.0	145628.0	-1207696.0
23	17	25	13	253	57.0	-195530.0	145156.0	-1201466.0
23	17	25	13	254	58.0	-195592.0	144670.0	-1194442.0
23	17	25	13	254	59.0	-195838.0	144193.0	-1187474.0
23	17	25	13	255	60.0	-196076.0	143719.0	-1179886.0
23	17	25	13	256	61.0	-196194.0	143252.0	-1170356.0
23	17	25	13	256	62.0	-196472.0	142787.0	-1163672.0
23	17	25	13	257	63.0	-196717.0	142316.0	-1162259.0
23	17	25	13	257	64.0	-196629.0	141858.0	-1162776.0
23	17	25	13	258	65.0	-196177.0	141388.0	-1162200.0
23	17	25	13	259	66.0	-195574.0	140941.0	-1161197.0
23	17	25	13	259	67.0	-194808.0	140502.0	-1154833.0
23	17	25	13	260	68.0	-194379.0	140054.0	-1146786.0
23	17	25	13	260	69.0	-194344.0	139604.0	-1136746.0
23	17	25	13	261	70.0	-194355.0	139166.0	-1126286.0
23	17	25	13	262	71.0	-194572.0	138763.0	-1115557.0
23	17	25	13	262	72.0	-195280.0	138351.0	-1106076.0
23	17	25	13	263	73.0	-196347.0	137934.0	-1098089.0
23	17	25	13	263	74.0	-197577.0	137519.0	-1092147.0
23	17	25	13	264	75.0	-198843.0	137135.0	-1084785.0
23	17	25	13	276	76.0	-199677.0	136736.0	-1076451.0
23	17	25	13	277	77.0	-200077.0	136353.0	-1065110.0
23	17	25	13	278	78.0	-200401.0	135970.0	-1056229.0
23	17	25	13	278	79.0	-200476.0	135601.0	-1047399.0
23	17	25	13	279	80.0	-200171.0	135249.0	-1037386.0
23	17	25	13	280	81.0	-199712.0	134905.0	-1024267.0
23	17	25	13	280	82.0	-199200.0	134549.0	-1015169.0
23	17	25	13	281	83.0	-198768.0	134211.0	-1009574.0
23	17	25	13	281	84.0	-198435.0	133889.0	-1007621.0
23	17	25	13	282	85.0	-198178.0	133588.0	-1002998.0
23	17	25	13	298	86.0	-198078.0	133294.0	-995463.0
23	17	25	13	299	87.0	-198193.0	132975.0	-983214.0
23	17	25	13	299	88.0	-198369.0	132678.0	-971435.0
23	17	25	13	300	89.0	-198486.0	132403.0	-960311.0
23	17	25	13	300	90.0	-198647.0	132138.0	-949020.0
23	17	25	13	301	91.0	-198855.0	131866.0	-937224.0
23	17	25	13	320	92.0	-199105.0	131618.0	-929740.0
23	17	25	13	321	93.0	-198401.0	131361.0	-928416.0
23	17	25	13	322	94.0	-199418.0	131088.0	-930333.0
23	17	25	13	322	95.0	-200883.0	130816.0	-930139.0
23	17	25	13	323	96.0	-201300.0	130578.0	-928496.0
23	17	25	13	324	97.0	-201174.0	130333.0	-925154.0
23	17	25	13	324	98.0	-200204.0	130084.0	-923483.0
23	17	25	13	325	99.0	-201220.0	129848.0	-923103.0
23	17	25	13	326	100.0	-201342.0	129586.0	-920778.0
23	17	25	13	326	101.0	-199521.0	129339.0	-918608.0
23	17	25	13	327	102.0	-200007.0	129074.0	-922069.0
23	17	25	13	327	103.0	-198577.0	128815.0	-929672.0
23	17	25	13	328	104.0	-198032.0	128569.0	-934596.0
23	17	25	13	329	105.0	-196789.0	128309.0	-938152.0
23	17	25	13	329	106.0	-196531.0	128054.0	-941776.0
23	17	25	13	330	107.0	-195932.0	127798.0	-941227.0
23	17	25	13	342	108.0	-195176.0	127547.0	-940717.0
23	17	25	13	343	109.0	-194971.0	127303.0	-943786.0
23	17	25	13	344	110.0	-193527.0	127036.0	-946565.0
23	17	25	13	344	111.0	-194546.0	126764.0	-950090.0
23	17	25	13	345	112.0	-194113.0	126519.0	-963033.0
23	17	25	13	345	113.0	-193649.0	126263.0	-978744.0
23	17	25	13	346	114.0	-194351.0	125991.0	-995104.0
23	17	25	13	374	115.0	-195485.0	125741.0	-1013468.0
23	17	25	13	375	116.0	-195588.0	125481.0	-1028605.0
23	17	25	13	375	117.0	-195267.0	125219.0	-1039447.0
23	17	25	13	376	118.0	-195253.0	124955.0	-1051333.0
23	17	25	13	377	119.0	-195259.0	124698.0	-1063997.0
23	17	25	13	378	120.0	-194787.0	124424.0	-1076521.0
23	17	25	13	378	121.0	-193794.0	124168.0	-1088979.0
23	17	25	13	379	122.0	-188061.0	123921.0	-1107408.0
23	17	25	13	379	123.0	-192211.0	123664.0	-1129746.0
23	17	25	13	380	124.0	-198371.0	123411.0	-1152540.0
23	17	25	13	381	125.0	-196414.0	123151.0	-1177588.0
23	17	25	13	381	126.0	-195607.0	122902.0	-1198848.0
23	17	25	13	382	127.0	-195732.0	122634.0	-1213711.0
23	17	25	13	382	128.0	-194619.0	122396.0	-1232096.0
23	17	25	13	383	129.0	-194276.0	122145.0	-1253663.0
23	17	25	13	398	130.0	-193201.0	121863.0	-1273342.0
23	17	25	13	398	131.0	-192401.0	121611.0	-1293148.0
23	17	25	13	399	132.0	-192622.0	121368.0	-1319031.0
23	17	25	13	400	133.0	-193269.0	121104.0	-1344256.0
23	17	25	13	400	134.0	-193533.0	120856.0	-1367709.0
23	17	25	13	401	135.0	-193636.0	120619.0	-1389301.0
23	17	25	13	402	136.0	-193843.0	120354.0	-1407935.0
23	17	25	13	402	137.0	-194268.0	120090.0	-1422527.0
23	17	25	13	403	138.0	-193962.0	119832.0	-1436721.0
23	17	25	13	404	139.0	-194586.0	119593.0	-1449657.0
23	17	25	13	404	140.0	-194574.0	119338.0	-1460249.0
23	17	25	13	405	141.0	-193888.0	119081.0	-1474409.0
23	17	25	13	406	142.0	-192666.0	118834.0	-1496861.0
23	17	25	13	406	143.0	-192819.0	118584.0	-1521282.0
23	17	25	13	407	144.0	-193304.0	118314.0	-1543758.0
23	17	25	13	407	145.0	-193171.0	118071.0	-1563794.0
23	17	25	13	408	146.0	-193029.0	117828.0	-1578291.0
23	17	25	13	409	147.0	-193414.0	117600.0	-1587132.0
23	17	25	13	409	148.0	-193887.0	117346.0	-1599862.0
23	17	25	13	420	149.0	-194002.0	117096.0	-1615353.0
23	17	25	13	420	150.0	-194176.0	116842.0	-1631274.0
23	17	25	13	443	151.0	-194506.0	116594.0	-1648648.0
23	17	25	13	443	152.0	-194810.0	116348.0	-1676221.0
23	17	25	13	444	153.0	-195077.0	116095.0	-1708737.0
23	17	25	13	444	154.0	-195530.0	115839.0	-1741172.0
23	17	25	13	445	155.0	-196010.0	115587.0	-1773729.0
23	17	25	13	446	156.0	-196131.0	115331.0	-1802627.0
23	17	25	13	446	157.0	-196376.0	115072.0	-1829307.0
23	17	25	13	447	158.0	-196538.0	114806.0	-1855405.0
23	17	25	13	448	159.0	-196600.0	114561.0	-1880976.0
23	17	25	13	448	160.0	-196779.0	114309.0	-1907867.0
23	17	25	13	449	161.0	-197025.0	114034.0	-1939937.0
23	17	25	13	449	162.0	-197209.0	113778.0	-1980596.0
23	17	25	13	450	163.0	-197306.0	113523.0	-2024132.0
23	17	25	13	450	164.0	-197563.0	113274.0	-2068425.0
23	17	25	13	451	165.0	-197797.0	112998.0	-2109591.0
23	17	25	13	452	166.0	-197784.0	112732.0	-2143371.0
23	17	25	13	465	167.0	-197756.0	112476.0	-2172936.0
23	17	25	13	465	168.0	-197487.0	112229.0	-2202379.0
23	17	25	13	466	169.0	-197382.0	111973.0	-2231942.0
23	17	25	13	467	170.0	-197402.0	111720.0	-2257759.0
23	17	25	13	467	171.0	-197325.0	111439.0	-2285776.0
23	17	25	13	468	172.0	-197320.0	111188.0	-2323503.0
23	17	25	13	468	173.0	-197567.0	110931.0	-2367454.0
23	17	25	13	488	174.0	-197999.0	110669.0	-2408723.0
23	17	25	13	488	175.0	-198250.0	110416.0	-2445488.0
23	17	25	13	489	176.0	-198389.0	110155.0	-2472213.0
23	17	25	13	490	177.0	-198492.0	109913.0	-2496035.0
23	17	25	13	490	178.0	-198677.0	109670.0	-2520092.0
23	17	25	13	491	179.0	-198810.0	109413.0	-2541765.0
23	17	25	13	492	180.0	-198791.0	109154.0	-2560354.0
23	17	25	13	492	181.0	-197341.0	108885.0	-2582231.0
23	17	25	13	493	182.0	-198494.0	108633.0	-2615033.0
23	17	25	13	493	183.0	-199548.0	108379.0	-2652525.0
23	17	25	13	494	184.0	-198683.0	108114.0	-2685988.0
23	17	25	13	495	185.0	-197766.0	107866.0	-2716222.0
23	17	25	13	495	186.0	-196839.0	107603.0	-2735292.0
23	17	25	13	496	187.0	-197482.0	107354.0	-2748937.0
23	17	25	13	497	188.0	-197850.0	107114.0	-2762572.0
23	17	25	13	497	189.0	-197389.0	106848.0	-2774725.0
23	17	25	13	498	190.0	-196897.0	106601.0	-2778583.0
23	17	25	13	498	191.0	-196505.0	106346.0	-2787216.0
23	17	25	13	499	192.0	-196141.0	106107.0	-2805794.0
23	17	25	13	510	193.0	-195780.0	105861.0	-2829147.0
23	17	25	13	510	194.0	-195539.0	105602.0	-2849199.0
23	17	25	13	511	195.0	-195400.0	105338.0	-2865957.0
23	17	25	13	534	196.0	-195206.0	105109.0	-2874177.0
23	17	25	13	535	197.0	-194931.0	104870.0	-2879572.0
23	17	25	13	535	198.0	-194791.0	104627.0	-2883602.0
23	17	25	13	536	199.0	-194761.0	104376.0	-2887763.0
23	17	25	13	536	200.0	-194360.0	104131.0	-2889662.0
23	17	25	13	537	201.0	-194777.0	103873.0	-2899824.0
23	17	25	13	538	202.0	-195371.0	103623.0	-2919683.0
23	17	25	13	538	203.0	-195490.0	103389.0	-2943069.0
23	17	25	13	539	204.0	-195479.0	103149.0	-2961842.0
23	17	25	13	539	205.0	-195411.0	102908.0	-2974848.0
23	17	25	13	540	206.0	-195496.0	102649.0	-2977682.0
23	17	25	13	540	207.0	-195524.0	102403.0	-2980685.0
23	17	25	13	541	208.0	-195432.0	102157.0	-2986236.0
23	17	25	13	557	209.0	-195343.0	101922.0	-2988853.0
23	17	25	13	558	210.0	-195261.0	101668.0	-2985121.0
23	17	25	13	558	211.0	-195154.0	101405.0	-2991182.0
23	17	25	13	559	212.0	-194934.0	101164.0	-3006607.0
23	17	25	13	559	213.0	-194859.0	100920.0	-3025531.0
23	17	25	13	560	214.0	-194884.0	100669.0	-3040380.0
23	17	25	13	561	215.0	-194872.0	100433.0	-3049139.0
23	17	25	13	561	216.0	-194969.0	100193.0	-3046061.0
23	17	25	13	562	217.0	-194936.0	99957.0	-3043122.0
23	17	25	13	563	218.0	-195036.0	99706.0	-3041849.0
23	17	25	13	563	219.0	-195124.0	99453.0	-3039185.0
23	17	25	13	564	220.0	-195133.0	99213.0	-3029522.0
23	17	25	13	564	221.0	-195449.0	98945.0	-3028076.0
23	17	25	13	565	222.0	-195626.0	98721.0	-3036136.0
23	17	25	13	582	223.0	-195424.0	98469.0	-3046133.0
23	17	25	13	583	224.0	-195083.0	98227.0	-3054280.0
23	17	25	13	584	225.0	-195041.0	97988.0	-3059091.0
23	17	25	13	584	226.0	-195202.0	97761.0	-3050408.0
23	17	25	13	585	227.0	-195627.0	97506.0	-3041446.0
23	17	25	13	586	228.0	-195779.0	97243.0	-3033277.0
23	17	25	13	586	229.0	-195760.0	97013.0	-3024411.0
23	17	25	13	587	230.0	-195844.0	96783.0	-3012429.0
23	17	25	13	587	231.0	-196022.0	96537.0	-3013035.0
23	17	25	13	588	232.0	-196171.0	96299.0	-3019941.0
23	17	25	13	589	233.0	-196180.0	96063.0	-3028575.0
23	17	25	13	589	234.0	-196277.0	95823.0	-3033806.0
23	17	25	13	590	235.0	-196377.0	95573.0	-3033178.0
23	17	25	13	591	236.0	-196529.0	95361.0	-3020110.0
23	17	25	13	591	237.0	-196810.0	95112.0	-3009532.0
23	17	25	13	592	238.0	-196947.0	94855.0	-3002406.0
23	17	25	13	592	239.0	-196934.0	94620.0	-2991994.0
23	17	25	13	593	240.0	-196914.0	94389.0	-2977559.0
23	17	25	13	606	241.0	-196981.0	94138.0	-2975271.0
23	17	25	13	606	242.0	-196981.0	93914.0	-2982959.0
23	17	25	13	607	243.0	-197033.0	93679.0	-2992254.0
23	17	25	13	608	244.0	-197136.0	93442.0	-2997082.0
23	17	25	13	608	245.0	-197216.0	93209.0	-2997196.0
23	17	25	13	609	246.0	-197139.0	92969.0	-2984951.0
23	17	25	13	610	247.0	-197250.0	92743.0	-2974492.0
23	17	25	13	638	248.0	-197357.0	92518.0	-2967522.0
23	17	25	13	639	249.0	-197285.0	92273.0	-2958796.0
23	17	25	13	639	250.0	-197096.0	92061.0	-2948022.0
23	17	25	13	640	251.0	-196964.0	91831.0	-2949112.0
23	17	25	13	641	252.0	-196884.0	91578.0	-2958238.0
23	17	25	13	641	253.0	-196823.0	91346.0	-2968741.0
23	17	25	13	642	254.0	-196763.0	91111.0	-2977512.0
23	17	25	13	643	255.0	-196713.0	90874.0	-2979244.0
23	17	25	13	643	0.0	-196591.0	90631.0	-2967419.0
23	17	25	13	644	1.0	-196486.0	90408.0	-2960169.0
23	17	25	13	645	2.0	-196372.0	90168.0	-2955972.0
23	17	25	13	645	3.0	-196241.0	89922.0	-2949781.0
23	17	25	13	646	4.0	-196187.0	89694.0	-2942747.0
23	17	25	13	647	5.0	-196141.0	89447.0	-2948952.0
23	17	25	13	647	6.0	-196094.0	89234.0	-2962249.0
23	17	25	13	648	7.0	-195936.0	88978.0	-2977225.0
23	17	25	13	649	8.0	-195920.0	88731.0	-2984942.0
23	17	25	13	649	9.0	-195896.0	88499.0	-2983393.0
23	17	25	13	650	10.0	-195687.0	88243.0	-2973413.0
23	17	25	13	665	11.0	-195577.0	87988.0	-2969656.0
23	17	25	13	675	12.0	-195672.0	87768.0	-2965354.0
23	17	25	13	677	13.0	-195669.0	87526.0	-2956701.0
23	17	25	13	678	14.0	-195588.0	87283.0	-2948525.0
23	17	25	13	679	15.0	-195664.0	87038.0	-2955985.0
23	17	25	13	680	16.0	-195796.0	86788.0	-2971052.0
23	17	25	13	680	17.0	-195888.0	86554.0	-2986115.0
23	17	25	13	681	18.0	-195972.0	86311.0	-2995106.0
23	17	25	13	682	19.0	-195950.0	86082.0	-2996969.0
23	17	25	13	682	20.0	-195834.0	85838.0	-2989134.0
23	17	25	13	683	21.0	-195796.0	85605.0	-2986407.0
23	17	25	13	683	22.0	-195794.0	85374.0	-2984417.0
23	17	25	13	684	23.0	-195894.0	85125.0	-2978179.0
23	17	25	13	685	24.0	-195841.0	84900.0	-2975994.0
23	17	25	13	685	25.0	-195776.0	84678.0	-2986910.0
23	17	25	13	686	26.0	-195702.0	84443.0	-3003722.0
23	17	25	13	686	27.0	-195687.0	84198.0	-3020914.0
23	17	25	13	687	28.0	-195574.0	83982.0	-3030791.0
23	17	25	13	688	29.0	-195557.0	83753.0	-3032148.0
23	17	25	13	688	30.0	-195654.0	83534.0	-3022839.0
23	17	25	13	689	31.0	-195729.0	83306.0	-3016566.0
23	17	25	13	698	32.0	-195779.0	83080.0	-3014624.0
23	17	25	13	698	33.0	-195892.0	82866.0	-3010842.0
23	17	25	13	699	34.0	-196129.0	82644.0	-3009823.0
23	17	25	13	700	35.0	-196281.0	82419.0	-3023273.0
23	17	25	13	700	36.0	-196321.0	82194.0	-3039207.0
23	17	25	13	701	37.0	-196457.0	81964.0	-3053391.0
23	17	25	13	720	38.0	-196568.0	81773.0	-3063464.0
23	17	25	13	721	39.0	-196529.0	81568.0	-3062096.0
23	17	25	13	722	40.0	-196535.0	81373.0	-3053504.0
23	17	25	13	722	41.0	-196551.0	81158.0	-3048327.0
23	17	25	13	723	42.0	-196565.0	80933.0	-3044995.0
23	17	25	13	723	43.0	-196571.0	80721.0	-3037476.0
23	17	25	13	724	44.0	-196619.0	80525.0	-3033399.0
23	17	25	13	725	45.0	-196632.0	80315.0	-3042679.0
23	17	25	13	725	46.0	-196702.0	80103.0	-3060617.0
23	17	25	13	744	47.0	-196784.0	79919.0	-3077017.0
23	17	25	13	745	48.0	-196822.0	79744.0	-3087536.0
23	17	25	13	745	49.0	-196742.0	79548.0	-3085102.0
23	17	25	13	746	50.0	-196829.0	79339.0	-3074044.0
23	17	25	13	747	51.0	-196781.0	79158.0	-3065351.0
23	17	25	13	747	52.0	-196734.0	78959.0	-3060071.0
23	17	25	13	748	53.0	-196782.0	78759.0	-3053464.0
23	17	25	13	748	54.0	-196824.0	78569.0	-3051584.0
23	17	25	13	749	55.0	-196673.0	78388.0	-3063937.0
23	17	25	13	750	56.0	-196636.0	78204.0	-3078851.0
23	17	25	13	750	57.0	-196735.0	78009.0	-3089663.0
23	17	25	13	751	58.0	-196807.0	77824.0	-3096774.0
23	17	25	13	751	59.0	-196689.0	77663.0	-3090431.0
23	17	25	13	752	60.0	-196515.0	77483.0	-3078837.0
23	17	25	13	753	61.0	-196611.0	77291.0	-3072734.0
23	17	25	13	768	62.0	-196686.0	77108.0	-3069561.0
23	17	25	13	768	63.0	-196666.0	76955.0	-3061953.0
23	17	25	13	769	64.0	-196528.0	76784.0	-3060159.0
23	17	25	13	769	65.0	-196351.0	76604.0	-3072779.0
23	17	25	13	770	66.0	-196426.0	76428.0	-3087611.0
23	17	25	13	771	67.0	-196537.0	76254.0	-3099177.0
23	17	25	13	771	68.0	-196626.0	76096.0	-3105447.0
23	17	25	13	772	69.0	-196692.0	75932.0	-3096886.0
23	17	25	13	790	70.0	-196623.0	75758.0	-3084136.0
23	17	25	13	791	71.0	-196362.0	75593.0	-3073481.0
23	17	25	13	792	72.0	-196398.0	75436.0	-3064258.0
23	17	25	13	792	73.0	-196541.0	75262.0	-3051489.0
23	17	25	13	793	74.0	-196729.0	75106.0	-3047854.0
23	17	25	13	793	75.0	-196666.0	74934.0	-3058294.0
23	17	25	13	794	76.0	-196666.0	74759.0	-3071884.0
23	17	25	13	795	77.0	-196705.0	74606.0	-3079378.0
23	17	25	13	795	78.0	-196756.0	74451.0	-3080846.0
23	17	25	13	796	79.0	-196736.0	74288.0	-3065608.0
23	17	25	13	796	80.0	-196762.0	74114.0	-3051169.0
23	17	25	13	797	81.0	-196659.0	73961.0	-3041718.0
23	17	25	13	798	82.0	-196515.0	73811.0	-3032990.0
23	17	25	13	798	83.0	-196419.0	73656.0	-3019534.0
23	17	25	13	799	84.0	-196367.0	73493.0	-3015678.0
23	17	25	13	799	85.0	-196346.0	73321.0	-3025922.0
23	17	25	13	800	86.0	-196260.0	73171.0	-3038329.0
23	17	25	13	801	87.0	-196112.0	73028.0	-3043308.0
23	17	25	13	801	88.0	-196143.0	72882.0	-3043174.0
23	17	25	13	802	89.0	-196115.0	72741.0	-3030406.0
23	17	25	13	817	90.0	-196354.0	72598.0	-3017391.0
23	17	25	13	817	91.0	-196524.0	72453.0	-3009142.0
23	17	25	13	818	92.0	-196516.0	72289.0	-3000019.0
23	17	25	13	819	93.0	-196559.0	72138.0	-2984934.0
23	17	25	13	819	94.0	-196588.0	71987.0	-2978694.0
23	17	25	13	820	95.0	-196432.0	71832.0	-2986474.0
23	17	25	13	820	96.0	-196371.0	71696.0	-2998532.0
23	17	25	13	835	97.0	-196479.0	71549.0	-3007927.0
23	17	25	13	836	98.0	-196472.0	71404.0	-3011819.0
23	17	25	13	836	99.0	-196412.0	71274.0	-2997166.0
23	17	25	13	837	100.0	-196294.0	71123.0	-2981224.0
23	17	25	13	838	101.0	-196352.0	70981.0	-2969740.0
23	17	25	13	838	102.0	-196774.0	70855.0	-2958624.0
23	17	25	13	839	103.0	-196980.0	70714.0	-2944994.0
23	17	25	13	858	104.0	-196879.0	70569.0	-2944049.0
23	17	25	13	859	105.0	-196649.0	70414.0	-2954411.0
23	17	25	13	859	106.0	-196543.0	70303.0	-2965172.0
23	17	25	13	860	107.0	-196749.0	70173.0	-2970091.0
23	17	25	13	860	108.0	-196841.0	70047.0	-2969259.0
23	17	25	13	861	109.0	-196734.0	69896.0	-2953476.0
23	17	25	13	862	110.0	-196383.0	69771.0	-2937726.0
23	17	25	13	862	111.0	-196084.0	69649.0	-2925290.0
23	17	25	13	863	112.0	-196044.0	69515.0	-2913842.0
23	17	25	13	864	113.0	-196354.0	69379.0	-2899177.0
23	17	25	13	864	114.0	-196461.0	69248.0	-2897696.0
23	17	25	13	865	115.0	-196669.0	69124.0	-2908539.0
23	17	25	13	865	116.0	-196751.0	69003.0	-2920724.0
23	17	25	13	866	117.0	-196664.0	68877.0	-2931634.0
23	17	25	13	881	118.0	-196651.0	68764.0	-2936977.0
23	17	25	13	882	119.0	-196684.0	68646.0	-2922740.0
23	17	25	13	882	120.0	-196634.0	68522.0	-2908589.0
23	17	25	13	883	121.0	-196640.0	68375.0	-2899619.0
23	17	25	13	884	122.0	-196583.0	68254.0	-2890581.0
23	17	25	13	884	123.0	-196422.0	68140.0	-2875962.0
23	17	25	13	885	124.0	-196202.0	68009.0	-2875681.0
23	17	25	13	904	125.0	-195916.0	67893.0	-2885833.0
23	17	25	13	905	126.0	-195762.0	67762.0	-2899762.0
23	17	25	13	905	127.0	-195714.0	67650.0	-2909714.0
23	17	25	13	906	128.0	-195700.0	67535.0	-2913725.0
23	17	25	13	907	129.0	-195721.0	67421.0	-2904517.0
23	17	25	13	907	130.0	-195662.0	67286.0	-2896797.0
23	17	25	13	908	131.0	-195536.0	67164.0	-2891302.0
23	17	25	13	908	132.0	-195450.0	67055.0	-2886276.0
23	17	25	13	909	133.0	-195548.0	66921.0	-2876721.0
23	17	25	13	910	134.0	-195579.0	66790.0	-2881834.0
23	17	25	13	910	135.0	-195666.0	66682.0	-2897729.0
23	17	25	13	911	136.0	-196011.0	66575.0	-2914601.0
23	17	25	13	911	137.0	-196151.0	66447.0	-2924942.0
23	17	25	13	912	138.0	-195914.0	66318.0	-2927174.0
23	17	25	13	913	139.0	-195722.0	66214.0	-2913453.0
23	17	25	13	913	140.0	-195857.0	66088.0	-2903622.0
23	17	25	13	914	141.0	-196237.0	65966.0	-2899357.0
23	17	25	13	914	142.0	-196341.0	65863.0	-2893565.0
23	17	25	13	928	143.0	-196120.0	65736.0	-2885303.0
23	17	25	13	928	144.0	-196050.0	65617.0	-2892955.0
23	17	25	13	929	145.0	-196189.0	65463.0	-2910753.0
23	17	25	13	930	146.0	-196517.0	65363.0	-2931387.0
23	17	25	13	930	147.0	-196580.0	65259.0	-2948077.0
23	17	25	13	931	148.0	-196389.0	65141.0	-2957431.0
23	17	25	13	931	149.0	-196344.0	65018.0	-2952602.0
23	17	25	13	954	150.0	-196353.0	64883.0	-2951176.0
23	17	25	13	954	151.0	-196471.0	64774.0	-2952004.0
23	17	25	13	955	152.0	-196550.0	64681.0	-2949117.0
23	17	25	13	956	153.0	-196603.0	64565.0	-2944852.0
23	17	25	13	956	154.0	-196742.0	64434.0	-2957696.0
23	17	25	13	957	155.0	-196864.0	64308.0	-2978401.0
23	17	25	13	957	156.0	-196861.0	64176.0	-2998996.0
23	17	25	13	958	157.0	-196945.0	64056.0	-3012414.0
23	17	25	13	958	158.0	-197026.0	63946.0	-3018089.0
23	17	25	13	959	159.0	-196914.0	63828.0	-3011601.0
23	17	25	13	960	160.0	-196711.0	63734.0	-3005537.0
23	17	25	13	960	161.0	-196660.0	63599.0	-3002069.0
23	17	25	13	961	162.0	-196673.0	63472.0	-2996289.0
23	17	25	13	961	163.0	-196547.0	63360.0	-2992762.0
23	17	25	13	962	164.0	-196614.0	63222.0	-3007862.0
23	17	25	13	963	165.0	-196644.0	63119.0	-3029105.0
23	17	25	13	976	166.0	-196632.0	62998.0	-3053141.0
23	17	25	13	977	167.0	-196488.0	62874.0	-3072879.0
23	17	25	13	977	168.0	-196541.0	62759.0	-3082528.0
23	17	25	13	978	169.0	-196594.0	62639.0	-3080328.0
23	17	25	13	978	170.0	-196394.0	62521.0	-3083192.0
23	17	25	13	979	171.0	-196217.0	62390.0	-3087524.0
23	17	25	13	980	172.0	-196094.0	62273.0	-3089746.0
23	17	25	13	998	173.0	-196180.0	62167.0	-3093066.0
23	17	25	13	999	174.0	-196349.0	62041.0	-3115092.0
23	17	25	14	0	175.0	-196348.0	61924.0	-3145251.0
23	17	25	14	0	176.0	-196381.0	61797.0	-3172252.0
23	17	25	14	1	177.0	-196456.0	61669.0	-3192678.0
23	17	25	14	2	178.0	-196420.0	61563.0	-3201640.0
23	17	25	14	2	179.0	-196133.0	61439.0	-3199915.0
23	17	25	14	3	180.0	-196174.0	61333.0	-3203984.0
23	17	25	14	3	181.0	-196508.0	61196.0	-3209587.0
23	17	25	14	4	182.0	-196514.0	61081.0	-3210106.0
23	17	25	14	4	183.0	-196373.0	60963.0	-3213739.0
23	17	25	14	5	184.0	-196279.0	60828.0	-3236398.0
23	17	25	14	6	185.0	-196357.0	60718.0	-3266486.0
23	17	25	14	6	186.0	-196278.0	60598.0	-3294729.0
23	17	25	14	7	187.0	-196253.0	60466.0	-3318432.0
23	17	25	14	7	188.0	-196007.0	60360.0	-3329072.0
23	17	25	14	22	189.0	-195699.0	60223.0	-3330259.0
23	17	25	14	22	190.0	-195556.0	60096.0	-3336659.0
23	17	25	14	23	191.0	-196004.0	59982.0	-3343271.0
23	17	25	14	24	192.0	-196257.0	59864.0	-3344310.0
23	17	25	14	24	193.0	-196040.0	59720.0	-3349850.0
23	17	25	14	25	194.0	-195975.0	59606.0	-3372251.0
23	17	25	14	25	195.0	-196021.0	59493.0	-3400617.0
23	17	25	14	45	196.0	-195964.0	59358.0	-3426367.0
23	17	25	14	46	197.0	-195931.0	59245.0	-3446950.0
23	17	25	14	46	198.0	-195651.0	59136.0	-3455914.0
23	17	25	14	47	199.0	-195438.0	59012.0	-3454856.0
23	17	25	14	47	200.0	-195164.0	58880.0	-3455382.0
23	17	25	14	48	201.0	-195068.0	58742.0	-3457556.0
23	17	25	14	48	202.0	-195061.0	58614.0	-3456670.0
23	17	25	14	49	203.0	-194987.0	58499.0	-3460367.0
23	17	25	14	50	204.0	-194956.0	58365.0	-3478482.0
23	17	25	14	50	205.0	-195129.0	58234.0	-3501625.0
23	17	25	14	51	206.0	-195296.0	58124.0	-3522541.0
23	17	25	14	51	207.0	-195432.0	57998.0	-3539307.0
23	17	25	14	52	208.0	-195541.0	57872.0	-3541422.0
23	17	25	14	52	209.0	-195602.0	57745.0	-3537945.0
23	17	25	14	53	210.0	-195726.0	57606.0	-3538036.0
23	17	25	14	68	211.0	-195664.0	57476.0	-3536871.0
23	17	25	14	69	212.0	-195558.0	57339.0	-3530000.0
23	17	25	14	69	213.0	-195849.0	57219.0	-3528556.0
23	17	25	14	70	214.0	-195904.0	57079.0	-3540645.0
23	17	25	14	70	215.0	-195912.0	56924.0	-3557086.0
23	17	25	14	71	216.0	-195974.0	56804.0	-3570265.0
23	17	25	14	72	217.0	-195961.0	56696.0	-3577605.0
23	17	25	14	72	218.0	-195987.0	56565.0	-3571439.0
23	17	25	14	73	219.0	-196278.0	56423.0	-3558418.0
23	17	25	14	74	220.0	-196250.0	56285.0	-3548799.0
23	17	25	14	74	221.0	-196225.0	56157.0	-3541049.0
23	17	25	14	75	222.0	-196448.0	56010.0	-3527324.0
23	17	25	14	75	223.0	-196552.0	55853.0	-3520795.0
23	17	25	14	76	224.0	-196416.0	55693.0	-3529287.0
23	17	25	14	93	225.0	-196287.0	55551.0	-3540608.0
23	17	25	14	93	226.0	-196348.0	55401.0	-3549251.0
23	17	25	14	94	227.0	-196492.0	55248.0	-3553086.0
23	17	25	14	94	228.0	-196291.0	55136.0	-3539748.0
23	17	25	14	95	229.0	-196082.0	54978.0	-3519467.0
23	17	25	14	96	230.0	-196148.0	54811.0	-3502266.0
23	17	25	14	96	231.0	-195996.0	54641.0	-3485848.0
23	17	25	14	116	232.0	-196157.0	54509.0	-3466608.0
23	17	25	14	117	233.0	-196447.0	54339.0	-3455949.0
23	17	25	14	117	234.0	-196869.0	54176.0	-3458316.0
23	17	25	14	118	235.0	-197343.0	54033.0	-3464887.0
23	17	25	14	119	236.0	-197744.0	53878.0	-3467327.0
23	17	25	14	119	237.0	-197793.0	53711.0	-3463414.0
23	17	25	14	120	238.0	-197796.0	53550.0	-3442145.0
23	17	25	14	120	239.0	-197531.0	53388.0	-3418828.0
23	17	25	14	121	240.0	-197217.0	53222.0	-3400824.0
23	17	25	14	121	241.0	-197172.0	53051.0	-3382222.0
23	17	25	14	122	242.0	-196914.0	52909.0	-3355673.0
23	17	25	14	123	243.0	-196826.0	52747.0	-3337874.0
23	17	25	14	123	244.0	-196855.0	52576.0	-3334066.0
23	17	25	14	124	245.0	-196842.0	52421.0	-3334724.0
23	17	25	14	124	246.0	-196926.0	52263.0	-3328942.0
23	17	25	14	125	247.0	-197044.0	52083.0	-3315651.0
23	17	25	14	139	248.0	-197149.0	51930.0	-3286756.0
23	17	25	14	140	249.0	-197067.0	51768.0	-3253887.0
23	17	25	14	140	250.0	-196910.0	51609.0	-3224052.0
