23	18	10	41	453	252.0	-163021.0	359.0	-73401.0
23	18	10	41	456	253.0	-168058.0	367.0	-72762.0
23	18	10	41	458	254.0	-172788.0	361.0	-72409.0
23	18	10	41	461	255.0	-176966.0	368.0	-72345.0
23	18	10	41	463	0.0	-180219.0	360.0	-71740.0
23	18	10	41	465	1.0	-182769.0	358.0	-71427.0
23	18	10	41	467	2.0	-185074.0	384.0	-70627.0
23	18	10	41	469	3.0	-187551.0	364.0	-69877.0
23	18	10	41	470	4.0	-189630.0	357.0	-69926.0
23	18	10	41	471	5.0	-191774.0	370.0	-70207.0
23	18	10	41	472	6.0	-194264.0	361.0	-70561.0
23	18	10	41	472	7.0	-197116.0	363.0	-70799.0
23	18	10	41	473	8.0	-200418.0	363.0	-70865.0
23	18	10	41	474	9.0	-204572.0	361.0	-70991.0
23	18	10	41	475	10.0	-208914.0	381.0	-71067.0
23	18	10	41	484	11.0	-212982.0	379.0	-71152.0
23	18	10	41	484	12.0	-217027.0	383.0	-71271.0
23	18	10	41	485	13.0	-220683.0	384.0	-71037.0
23	18	10	41	486	14.0	-223782.0	362.0	-70899.0
23	18	10	41	486	15.0	-226367.0	328.0	-71270.0
23	18	10	41	487	16.0	-228412.0	328.0	-71278.0
23	18	10	41	487	17.0	-230162.0	322.0	-71607.0
23	18	10	41	513	18.0	-231738.0	321.0	-71092.0
23	18	10	41	537	19.0	-233012.0	314.0	-70423.0
23	18	10	41	577	20.0	-234131.0	332.0	-70311.0
23	18	10	41	578	21.0	-235072.0	321.0	-69260.0
23	18	10	41	579	22.0	-236237.0	299.0	-67539.0
23	18	10	41	579	23.0	-237327.0	302.0	-66797.0
23	18	10	41	580	24.0	-238226.0	323.0	-66794.0
23	18	10	41	580	25.0	-239004.0	311.0	-66982.0
23	18	10	41	581	26.0	-239544.0	299.0	-66985.0
23	18	10	41	588	27.0	-239645.0	304.0	-66804.0
23	18	10	41	589	28.0	-239540.0	298.0	-66296.0
23	18	10	41	590	29.0	-239462.0	286.0	-66213.0
23	18	10	41	590	30.0	-239362.0	278.0	-66295.0
23	18	10	41	591	31.0	-238924.0	289.0	-66621.0
23	18	10	41	591	32.0	-238538.0	273.0	-66569.0
23	18	10	41	592	33.0	-237706.0	281.0	-66889.0
23	18	10	41	592	41.0	-221592.0	192.0	-67957.0
23	18	10	41	593	63.0	-186232.0	169.0	-68939.0
23	18	10	41	593	64.0	-186837.0	158.0	-68753.0
23	18	10	41	594	65.0	-188527.0	158.0	-68789.0
23	18	10	41	594	66.0	-191004.0	154.0	-69369.0
23	18	10	41	595	67.0	-193649.0	148.0	-69507.0
23	18	10	41	596	68.0	-196566.0	172.0	-69801.0
23	18	10	41	621	69.0	-199887.0	188.0	-70278.0
23	18	10	41	622	70.0	-203439.0	164.0	-70302.0
23	18	10	41	622	71.0	-206337.0	169.0	-69886.0
23	18	10	41	623	72.0	-208487.0	179.0	-69873.0
23	18	10	41	623	73.0	-210130.0	166.0	-70491.0
23	18	10	41	637	74.0	-211136.0	150.0	-71364.0
23	18	10	41	638	75.0	-211931.0	135.0	-71777.0
23	18	10	41	638	76.0	-212683.0	138.0	-71806.0
23	18	10	41	639	77.0	-213881.0	96.0	-71769.0
23	18	10	41	639	78.0	-214968.0	89.0	-71209.0
23	18	10	41	640	79.0	-215894.0	110.0	-70598.0
23	18	10	41	640	80.0	-216946.0	113.0	-70585.0
23	18	10	41	641	81.0	-218254.0	99.0	-70676.0
23	18	10	41	641	82.0	-219603.0	99.0	-70879.0
23	18	10	41	642	83.0	-221066.0	83.0	-70857.0
23	18	10	41	666	85.0	-223469.0	91.0	-71719.0
23	18	10	41	667	86.0	-224389.0	97.0	-71826.0
23	18	10	41	686	87.0	-225449.0	93.0	-72377.0
23	18	10	41	687	88.0	-226508.0	105.0	-72535.0
23	18	10	41	688	89.0	-227261.0	116.0	-72774.0
23	18	10	41	688	90.0	-227387.0	125.0	-73212.0
23	18	10	41	689	91.0	-227101.0	126.0	-72953.0
23	18	10	41	689	92.0	-226487.0	138.0	-72172.0
23	18	10	41	690	93.0	-225573.0	146.0	-71961.0
23	18	10	41	690	94.0	-224295.0	128.0	-72142.0
23	18	10	41	691	95.0	-222700.0	101.0	-72536.0
23	18	10	41	691	96.0	-220292.0	89.0	-72823.0
23	18	10	41	692	97.0	-217054.0	97.0	-73208.0
23	18	10	41	692	98.0	-213186.0	116.0	-72914.0
23	18	10	41	693	99.0	-209181.0	89.0	-72579.0
23	18	10	41	694	100.0	-205014.0	86.0	-72684.0
23	18	10	41	694	108.0	-180931.0	43.0	-71601.0
23	18	10	41	695	109.0	-179104.0	48.0	-72129.0
23	18	10	41	695	110.0	-177899.0	39.0	-72355.0
23	18	10	41	696	111.0	-176804.0	49.0	-72442.0
23	18	10	41	696	112.0	-175757.0	49.0	-72564.0
23	18	10	41	697	113.0	-174561.0	48.0	-73047.0
23	18	10	41	697	114.0	-173696.0	52.0	-73850.0
23	18	10	41	712	115.0	-172964.0	56.0	-74024.0
23	18	10	41	713	116.0	-172394.0	63.0	-74042.0
23	18	10	41	714	117.0	-172426.0	66.0	-74309.0
23	18	10	41	714	118.0	-173297.0	56.0	-74471.0
23	18	10	41	715	119.0	-175184.0	53.0	-74208.0
23	18	10	41	715	120.0	-177934.0	58.0	-74442.0
23	18	10	41	716	121.0	-181269.0	41.0	-73638.0
23	18	10	41	717	122.0	-184841.0	52.0	-73146.0
23	18	10	41	717	123.0	-188306.0	43.0	-73407.0
23	18	10	41	718	124.0	-191432.0	25.0	-73196.0
23	18	10	41	718	125.0	-194162.0	16.0	-73257.0
23	18	10	41	719	126.0	-196270.0	30.0	-74048.0
23	18	10	41	719	127.0	-197903.0	19.0	-75058.0
23	18	10	41	720	128.0	-199103.0	16.0	-75002.0
23	18	10	41	721	129.0	-199912.0	29.0	-74339.0
23	18	10	41	721	130.0	-200133.0	28.0	-73181.0
23	18	10	41	722	131.0	-200128.0	17.0	-72275.0
23	18	10	41	722	132.0	-199986.0	21.0	-72273.0
23	18	10	41	723	133.0	-199829.0	39.0	-72594.0
23	18	10	41	723	134.0	-200107.0	23.0	-72930.0
23	18	10	41	724	135.0	-200301.0	16.0	-73434.0
23	18	10	41	724	136.0	-200029.0	23.0	-74101.0
23	18	10	41	758	137.0	-199447.0	6.0	-74539.0
23	18	10	41	758	138.0	-198492.0	21.0	-74697.0
23	18	10	41	759	139.0	-197667.0	23.0	-74904.0
23	18	10	41	760	140.0	-196766.0	36.0	-74862.0
23	18	10	41	760	141.0	-195762.0	13.0	-75125.0
23	18	10	41	761	142.0	-194641.0	25.0	-75219.0
23	18	10	41	762	143.0	-193186.0	9.0	-74651.0
23	18	10	41	762	144.0	-191394.0	2.0	-74456.0
23	18	10	41	763	145.0	-189029.0	6.0	-75339.0
23	18	10	41	763	146.0	-186541.0	9.0	-75821.0
23	18	10	41	764	147.0	-184215.0	0.0	-75544.0
23	18	10	41	764	148.0	-182463.0	-8.0	-75312.0
23	18	10	41	765	149.0	-181344.0	3.0	-74521.0
23	18	10	41	766	150.0	-180656.0	13.0	-74097.0
23	18	10	41	766	151.0	-180110.0	-6.0	-74130.0
23	18	10	41	767	153.0	-178998.0	12.0	-74017.0
23	18	10	41	767	154.0	-178436.0	19.0	-73731.0
23	18	10	41	768	155.0	-178119.0	38.0	-73647.0
23	18	10	41	768	156.0	-177625.0	35.0	-73327.0
23	18	10	41	802	157.0	-176867.0	37.0	-73233.0
23	18	10	41	803	158.0	-176251.0	53.0	-73581.0
23	18	10	41	804	159.0	-175957.0	74.0	-73657.0
23	18	10	41	804	160.0	-175942.0	74.0	-73814.0
23	18	10	41	805	161.0	-176077.0	69.0	-73416.0
23	18	10	41	805	162.0	-176291.0	58.0	-73227.0
23	18	10	41	806	163.0	-176435.0	53.0	-73907.0
23	18	10	41	807	164.0	-176850.0	51.0	-73825.0
23	18	10	41	807	165.0	-177403.0	65.0	-73446.0
23	18	10	41	808	166.0	-178031.0	68.0	-73548.0
23	18	10	41	808	167.0	-178188.0	50.0	-73305.0
23	18	10	41	809	168.0	-178131.0	51.0	-72592.0
23	18	10	41	809	169.0	-177861.0	41.0	-72009.0
23	18	10	41	810	170.0	-177307.0	42.0	-72427.0
23	18	10	41	811	171.0	-176562.0	54.0	-72205.0
23	18	10	41	811	172.0	-175251.0	56.0	-71731.0
23	18	10	41	812	176.0	-172112.0	62.0	-71141.0
23	18	10	41	812	177.0	-171677.0	71.0	-70912.0
23	18	10	41	813	178.0	-171744.0	69.0	-68574.0
23	18	10	41	814	179.0	-172566.0	69.0	-67279.0
23	18	10	41	814	180.0	-173293.0	81.0	-66433.0
23	18	10	41	815	181.0	-173796.0	86.0	-66106.0
23	18	10	41	847	182.0	-174827.0	96.0	-65693.0
23	18	10	41	893	183.0	-176381.0	108.0	-66079.0
23	18	10	41	894	184.0	-177998.0	94.0	-66424.0
23	18	10	41	894	185.0	-178583.0	101.0	-67521.0
23	18	10	41	895	186.0	-178726.0	91.0	-68486.0
23	18	10	41	895	187.0	-179486.0	83.0	-69341.0
23	18	10	41	896	188.0	-180524.0	90.0	-70256.0
23	18	10	41	897	189.0	-181796.0	65.0	-70298.0
23	18	10	41	897	190.0	-183319.0	54.0	-70422.0
23	18	10	41	898	191.0	-185275.0	53.0	-71135.0
23	18	10	41	899	192.0	-187684.0	38.0	-71052.0
23	18	10	41	899	193.0	-189576.0	45.0	-70819.0
23	18	10	41	900	194.0	-191306.0	41.0	-71468.0
23	18	10	41	901	195.0	-192773.0	30.0	-71823.0
23	18	10	41	901	196.0	-193897.0	28.0	-72101.0
23	18	10	41	902	198.0	-196088.0	41.0	-72423.0
23	18	10	41	902	199.0	-196221.0	25.0	-72594.0
23	18	10	41	903	220.0	-204072.0	-104.0	-75564.0
23	18	10	41	904	221.0	-204098.0	-130.0	-75252.0
23	18	10	41	904	222.0	-203281.0	-133.0	-75367.0
23	18	10	41	905	223.0	-201695.0	-132.0	-75113.0
23	18	10	41	905	224.0	-200046.0	-140.0	-75644.0
23	18	10	41	906	225.0	-199004.0	-136.0	-75691.0
23	18	10	41	906	226.0	-198274.0	-127.0	-75830.0
23	18	10	41	938	227.0	-197885.0	-105.0	-75534.0
23	18	10	41	938	228.0	-197902.0	-95.0	-75075.0
23	18	10	41	939	229.0	-198235.0	-119.0	-74267.0
23	18	10	41	940	230.0	-199144.0	-126.0	-73272.0
23	18	10	41	940	231.0	-200647.0	-129.0	-72104.0
23	18	10	41	941	232.0	-202089.0	-119.0	-71332.0
23	18	10	41	942	233.0	-203512.0	-127.0	-71616.0
23	18	10	41	942	234.0	-204003.0	-126.0	-72016.0
23	18	10	41	943	235.0	-204005.0	-124.0	-71486.0
23	18	10	41	943	236.0	-204369.0	-107.0	-72094.0
23	18	10	41	944	237.0	-205309.0	-102.0	-72608.0
23	18	10	41	945	238.0	-205916.0	-95.0	-72757.0
23	18	10	41	945	239.0	-205843.0	-82.0	-71817.0
23	18	10	41	946	240.0	-206427.0	-97.0	-72224.0
23	18	10	41	947	241.0	-206798.0	-111.0	-70865.0
23	18	10	41	948	243.0	-206427.0	-109.0	-70134.0
23	18	10	41	949	244.0	-205714.0	-103.0	-70021.0
23	18	10	41	949	245.0	-204838.0	-91.0	-69530.0
23	18	10	41	950	246.0	-202479.0	-97.0	-69664.0
23	18	10	41	950	247.0	-200515.0	-84.0	-69084.0
23	18	10	41	951	248.0	-198818.0	-71.0	-68416.0
23	18	10	41	982	249.0	-198036.0	-81.0	-68021.0
23	18	10	42	2	250.0	-197730.0	-70.0	-67321.0
23	18	10	42	2	251.0	-197004.0	-63.0	-67375.0
23	18	10	42	3	252.0	-197926.0	-62.0	-67116.0
23	18	10	42	3	253.0	-199922.0	-54.0	-66952.0
23	18	10	42	4	254.0	-202607.0	-65.0	-66800.0
23	18	10	42	4	255.0	-205636.0	-61.0	-66742.0
23	18	10	42	5	0.0	-208540.0	-57.0	-66557.0
23	18	10	42	6	1.0	-211347.0	-49.0	-66450.0
23	18	10	42	6	2.0	-214225.0	-49.0	-67144.0
23	18	10	42	7	3.0	-217690.0	-53.0	-67092.0
23	18	10	42	7	4.0	-220417.0	-49.0	-66356.0
23	18	10	42	8	5.0	-222559.0	-49.0	-66246.0
23	18	10	42	8	6.0	-223486.0	-35.0	-65993.0
23	18	10	42	9	7.0	-223335.0	-46.0	-65244.0
23	18	10	42	9	9.0	-221433.0	-39.0	-64049.0
23	18	10	42	10	10.0	-219624.0	-26.0	-62349.0
23	18	10	42	11	11.0	-216678.0	-4.0	-61380.0
23	18	10	42	11	12.0	-213561.0	-5.0	-60962.0
23	18	10	42	12	13.0	-210627.0	2.0	-59766.0
23	18	10	42	12	14.0	-208310.0	14.0	-59133.0
23	18	10	42	27	15.0	-206630.0	24.0	-58179.0
23	18	10	42	28	16.0	-205284.0	34.0	-56693.0
23	18	10	42	29	17.0	-205088.0	69.0	-55943.0
23	18	10	42	29	18.0	-205667.0	83.0	-56143.0
23	18	10	42	30	19.0	-207394.0	54.0	-56562.0
23	18	10	42	31	20.0	-209916.0	49.0	-58632.0
23	18	10	42	31	21.0	-212422.0	46.0	-63162.0
23	18	10	42	32	22.0	-216141.0	70.0	-67407.0
23	18	10	42	32	23.0	-220487.0	75.0	-71927.0
23	18	10	42	33	24.0	-227311.0	70.0	-76672.0
23	18	10	42	34	25.0	-236072.0	78.0	-79822.0
23	18	10	42	34	26.0	-245994.0	79.0	-82652.0
23	18	10	42	35	27.0	-256332.0	80.0	-86214.0
23	18	10	42	35	28.0	-266398.0	76.0	-92196.0
23	18	10	42	36	29.0	-274322.0	48.0	-97754.0
23	18	10	42	37	31.0	-280657.0	68.0	-102274.0
23	18	10	42	37	32.0	-276812.0	71.0	-97864.0
23	18	10	42	38	33.0	-267367.0	101.0	-93379.0
23	18	10	42	38	34.0	-254568.0	118.0	-86876.0
23	18	10	42	39	35.0	-241137.0	117.0	-78719.0
23	18	10	42	40	36.0	-229329.0	123.0	-70511.0
23	18	10	42	40	37.0	-221281.0	114.0	-64418.0
23	18	10	42	73	38.0	-217822.0	118.0	-60973.0
23	18	10	42	118	39.0	-219536.0	108.0	-60334.0
23	18	10	42	119	40.0	-224346.0	110.0	-59692.0
23	18	10	42	119	41.0	-231301.0	123.0	-59176.0
23	18	10	42	121	42.0	-238076.0	126.0	-59776.0
23	18	10	42	121	43.0	-241907.0	121.0	-58757.0
23	18	10	42	122	44.0	-238547.0	116.0	-57671.0
23	18	10	42	123	45.0	-224812.0	120.0	-57374.0
23	18	10	42	123	46.0	-195026.0	124.0	-56927.0
23	18	10	42	124	47.0	-169372.0	104.0	-56886.0
23	18	10	42	124	48.0	-158620.0	82.0	-57591.0
23	18	10	42	125	49.0	-154792.0	87.0	-57455.0
23	18	10	42	126	50.0	-152451.0	92.0	-56749.0
23	18	10	42	126	51.0	-145369.0	100.0	-56926.0
23	18	10	42	127	52.0	-134306.0	101.0	-56814.0
23	18	10	42	127	54.0	-160752.0	96.0	-57199.0
23	18	10	42	128	76.0	-279602.0	200.0	-60043.0
23	18	10	42	129	77.0	-284743.0	210.0	-59602.0
23	18	10	42	129	78.0	-280284.0	215.0	-59568.0
23	18	10	42	130	79.0	-267947.0	224.0	-59906.0
23	18	10	42	130	80.0	-251693.0	224.0	-59819.0
23	18	10	42	131	81.0	-232339.0	216.0	-59718.0
23	18	10	42	131	82.0	-207804.0	228.0	-59922.0
23	18	10	42	163	83.0	-181601.0	234.0	-59756.0
23	18	10	42	209	84.0	-156467.0	248.0	-59486.0
23	18	10	42	210	85.0	-135024.0	268.0	-59289.0
23	18	10	42	211	86.0	-119512.0	259.0	-58866.0
23	18	10	42	211	87.0	-110571.0	244.0	-59337.0
23	18	10	42	212	88.0	-107494.0	236.0	-59902.0
23	18	10	42	212	89.0	-107527.0	222.0	-60066.0
23	18	10	42	213	90.0	-110215.0	216.0	-60504.0
23	18	10	42	214	91.0	-115554.0	218.0	-61475.0
23	18	10	42	214	92.0	-122782.0	224.0	-61184.0
23	18	10	42	215	93.0	-131017.0	214.0	-61126.0
23	18	10	42	215	94.0	-137554.0	199.0	-61390.0
23	18	10	42	216	95.0	-141686.0	214.0	-61311.0
23	18	10	42	217	96.0	-143969.0	206.0	-60902.0
23	18	10	42	217	97.0	-145238.0	196.0	-60779.0
23	18	10	42	218	99.0	-143922.0	179.0	-61557.0
23	18	10	42	218	100.0	-141914.0	174.0	-61839.0
23	18	10	42	219	122.0	-168646.0	203.0	-61462.0
23	18	10	42	220	123.0	-167074.0	228.0	-60986.0
23	18	10	42	220	124.0	-165157.0	220.0	-60781.0
23	18	10	42	221	125.0	-163576.0	231.0	-60599.0
23	18	10	42	221	126.0	-162581.0	228.0	-61161.0
23	18	10	42	222	127.0	-161398.0	231.0	-62084.0
23	18	10	42	253	128.0	-160379.0	229.0	-61884.0
23	18	10	42	254	129.0	-159671.0	235.0	-61839.0
23	18	10	42	255	130.0	-158936.0	229.0	-61965.0
23	18	10	42	255	131.0	-158549.0	224.0	-61457.0
23	18	10	42	256	132.0	-158894.0	205.0	-61286.0
23	18	10	42	257	133.0	-159514.0	211.0	-60954.0
23	18	10	42	257	134.0	-159837.0	231.0	-60495.0
23	18	10	42	258	135.0	-159779.0	237.0	-60117.0
23	18	10	42	259	136.0	-159173.0	218.0	-59879.0
23	18	10	42	259	137.0	-158352.0	214.0	-60173.0
23	18	10	42	260	138.0	-157546.0	208.0	-60797.0
23	18	10	42	260	139.0	-156926.0	197.0	-60802.0
23	18	10	42	261	140.0	-156485.0	186.0	-60693.0
23	18	10	42	262	141.0	-156846.0	187.0	-61226.0
23	18	10	42	262	142.0	-157827.0	183.0	-61012.0
23	18	10	42	263	144.0	-162281.0	159.0	-60353.0
23	18	10	42	297	145.0	-164795.0	162.0	-60008.0
23	18	10	42	297	146.0	-167832.0	184.0	-60242.0
23	18	10	42	298	147.0	-171585.0	189.0	-59324.0
23	18	10	42	299	148.0	-176333.0	195.0	-59186.0
23	18	10	42	299	149.0	-181612.0	178.0	-58799.0
23	18	10	42	300	150.0	-186542.0	181.0	-58865.0
23	18	10	42	300	151.0	-190847.0	169.0	-59874.0
23	18	10	42	301	152.0	-194194.0	173.0	-59987.0
23	18	10	42	301	153.0	-196494.0	173.0	-59481.0
23	18	10	42	302	154.0	-198320.0	163.0	-59687.0
23	18	10	42	303	155.0	-199710.0	155.0	-60884.0
23	18	10	42	303	156.0	-200612.0	144.0	-60796.0
23	18	10	42	304	157.0	-201417.0	158.0	-60822.0
23	18	10	42	304	158.0	-202064.0	148.0	-61271.0
23	18	10	42	305	159.0	-202147.0	138.0	-61724.0
23	18	10	42	305	160.0	-201843.0	141.0	-61994.0
23	18	10	42	306	166.0	-202191.0	118.0	-62524.0
23	18	10	42	316	167.0	-201921.0	114.0	-63481.0
23	18	10	42	316	168.0	-201412.0	113.0	-63773.0
23	18	10	42	317	169.0	-200902.0	109.0	-64441.0
23	18	10	42	317	170.0	-200481.0	100.0	-65089.0
23	18	10	42	318	171.0	-200245.0	107.0	-64101.0
23	18	10	42	319	172.0	-200493.0	114.0	-63821.0
23	18	10	42	341	173.0	-201136.0	133.0	-64306.0
23	18	10	42	341	174.0	-202160.0	127.0	-64516.0
23	18	10	42	342	175.0	-204279.0	128.0	-64979.0
23	18	10	42	342	176.0	-207338.0	125.0	-65045.0
23	18	10	42	343	177.0	-210864.0	134.0	-65306.0
23	18	10	42	343	178.0	-215365.0	133.0	-64891.0
23	18	10	42	344	179.0	-219713.0	133.0	-65014.0
23	18	10	42	344	180.0	-224532.0	130.0	-64894.0
23	18	10	42	345	181.0	-229387.0	145.0	-65542.0
23	18	10	42	362	182.0	-233506.0	145.0	-66605.0
23	18	10	42	362	183.0	-236647.0	155.0	-67078.0
23	18	10	42	363	184.0	-238441.0	139.0	-67102.0
23	18	10	42	364	185.0	-239441.0	133.0	-66670.0
23	18	10	42	364	186.0	-240764.0	166.0	-65745.0
23	18	10	42	365	187.0	-242242.0	156.0	-63547.0
23	18	10	42	365	189.0	-245383.0	142.0	-62370.0
23	18	10	42	366	190.0	-247048.0	155.0	-61972.0
23	18	10	42	366	191.0	-248008.0	185.0	-61444.0
23	18	10	42	367	192.0	-248261.0	155.0	-60581.0
23	18	10	42	367	193.0	-255787.0	166.0	-60613.0
23	18	10	42	368	194.0	-255713.0	201.0	-60683.0
23	18	10	42	386	195.0	-245601.0	224.0	-60777.0
23	18	10	42	386	196.0	-245614.0	220.0	-60851.0
23	18	10	42	387	197.0	-238647.0	200.0	-60954.0
23	18	10	42	387	198.0	-237161.0	192.0	-62280.0
23	18	10	42	388	199.0	-236342.0	184.0	-63081.0
23	18	10	42	389	200.0	-235021.0	162.0	-64085.0
23	18	10	42	390	201.0	-233704.0	164.0	-64789.0
23	18	10	42	390	202.0	-231369.0	159.0	-65302.0
23	18	10	42	391	203.0	-228041.0	164.0	-65652.0
23	18	10	42	408	204.0	-223849.0	169.0	-65036.0
23	18	10	42	408	205.0	-218971.0	162.0	-65437.0
23	18	10	42	409	206.0	-213739.0	161.0	-66034.0
23	18	10	42	409	207.0	-208981.0	154.0	-66418.0
23	18	10	42	410	208.0	-206016.0	159.0	-66754.0
23	18	10	42	410	209.0	-203424.0	144.0	-67839.0
23	18	10	42	411	211.0	-184813.0	139.0	-68082.0
23	18	10	42	412	212.0	-176456.0	123.0	-68828.0
23	18	10	42	412	213.0	-174443.0	140.0	-68706.0
23	18	10	42	413	214.0	-180052.0	111.0	-68962.0
23	18	10	42	413	215.0	-198646.0	118.0	-69336.0
23	18	10	42	414	216.0	-227287.0	114.0	-68856.0
23	18	10	42	414	217.0	-251643.0	106.0	-69389.0
23	18	10	42	432	218.0	-269592.0	85.0	-69431.0
23	18	10	42	432	219.0	-275174.0	94.0	-69071.0
23	18	10	42	433	220.0	-273821.0	89.0	-69539.0
23	18	10	42	433	221.0	-268272.0	66.0	-68864.0
23	18	10	42	434	222.0	-260040.0	69.0	-69524.0
23	18	10	42	435	223.0	-243431.0	54.0	-70220.0
23	18	10	42	435	224.0	-220630.0	26.0	-70100.0
23	18	10	42	436	225.0	-198561.0	16.0	-70461.0
23	18	10	42	436	226.0	-181543.0	16.0	-69357.0
23	18	10	42	437	227.0	-170807.0	-9.0	-69856.0
23	18	10	42	437	228.0	-166209.0	-8.0	-71051.0
23	18	10	42	438	229.0	-164706.0	-35.0	-71734.0
23	18	10	42	439	230.0	-165425.0	-52.0	-71955.0
23	18	10	42	439	231.0	-168816.0	-75.0	-72444.0
23	18	10	42	440	232.0	-173574.0	-79.0	-72104.0
23	18	10	42	441	233.0	-178399.0	-64.0	-71216.0
23	18	10	42	441	234.0	-182241.0	-79.0	-70282.0
23	18	10	42	442	235.0	-185762.0	-94.0	-70870.0
23	18	10	42	442	236.0	-187261.0	-98.0	-71182.0
23	18	10	42	443	237.0	-187585.0	-116.0	-71927.0
23	18	10	42	443	238.0	-185342.0	-107.0	-72134.0
23	18	10	42	455	239.0	-181772.0	-107.0	-72059.0
23	18	10	42	479	240.0	-177590.0	-124.0	-72169.0
23	18	10	42	479	241.0	-174049.0	-101.0	-71566.0
23	18	10	42	480	242.0	-171782.0	-115.0	-69948.0
23	18	10	42	481	243.0	-169340.0	-129.0	-70180.0
23	18	10	42	481	244.0	-168916.0	-144.0	-70682.0
23	18	10	42	482	245.0	-169827.0	-150.0	-70477.0
23	18	10	42	482	246.0	-171144.0	-172.0	-70524.0
23	18	10	42	483	247.0	-170841.0	-182.0	-70081.0
23	18	10	42	483	248.0	-169023.0	-176.0	-70035.0
23	18	10	42	484	249.0	-169170.0	-189.0	-69971.0
23	18	10	42	484	250.0	-171776.0	-199.0	-68525.0
23	18	10	42	485	251.0	-174862.0	-222.0	-69150.0
23	18	10	42	486	252.0	-177412.0	-202.0	-69914.0
23	18	10	42	486	253.0	-179631.0	-209.0	-69928.0
23	18	10	42	487	254.0	-180701.0	-231.0	-69680.0
23	18	10	42	487	0.0	-183686.0	-224.0	-69502.0
23	18	10	42	488	1.0	-187082.0	-250.0	-68506.0
23	18	10	42	488	2.0	-191574.0	-264.0	-68395.0
23	18	10	42	489	3.0	-195724.0	-244.0	-68415.0
23	18	10	42	490	4.0	-200614.0	-239.0	-67807.0
23	18	10	42	490	5.0	-206275.0	-232.0	-68039.0
23	18	10	42	522	6.0	-211693.0	-244.0	-68409.0
23	18	10	42	523	7.0	-216987.0	-241.0	-67516.0
23	18	10	42	524	8.0	-222874.0	-230.0	-67396.0
23	18	10	42	524	9.0	-228904.0	-246.0	-67551.0
23	18	10	42	525	10.0	-233906.0	-256.0	-67836.0
23	18	10	42	525	11.0	-237339.0	-266.0	-67814.0
23	18	10	42	526	12.0	-240239.0	-287.0	-68406.0
23	18	10	42	526	13.0	-242216.0	-306.0	-68325.0
23	18	10	42	527	14.0	-243506.0	-283.0	-67593.0
23	18	10	42	528	15.0	-243939.0	-300.0	-67051.0
23	18	10	42	528	16.0	-243166.0	-333.0	-66757.0
23	18	10	42	529	17.0	-242347.0	-326.0	-66192.0
23	18	10	42	529	18.0	-241572.0	-328.0	-65529.0
23	18	10	42	530	19.0	-240074.0	-366.0	-64691.0
23	18	10	42	530	20.0	-238606.0	-366.0	-64846.0
23	18	10	42	531	22.0	-243832.0	-412.0	-65600.0
23	18	10	42	531	23.0	-241043.0	-417.0	-66575.0
23	18	10	42	532	24.0	-242401.0	-392.0	-66630.0
23	18	10	42	533	25.0	-254442.0	-378.0	-66797.0
23	18	10	42	533	26.0	-259967.0	-401.0	-67119.0
23	18	10	42	534	27.0	-240736.0	-410.0	-67187.0
23	18	10	42	534	28.0	-244672.0	-394.0	-66428.0
23	18	10	42	567	29.0	-257187.0	-396.0	-66638.0
23	18	10	42	568	30.0	-254654.0	-398.0	-66917.0
23	18	10	42	612	31.0	-236510.0	-417.0	-66714.0
23	18	10	42	613	32.0	-239567.0	-417.0	-66154.0
23	18	10	42	614	33.0	-245062.0	-424.0	-66477.0
23	18	10	42	614	34.0	-240362.0	-441.0	-66384.0
23	18	10	42	615	35.0	-219658.0	-442.0	-66697.0
23	18	10	42	616	36.0	-219559.0	-466.0	-66956.0
23	18	10	42	616	37.0	-222391.0	-479.0	-66732.0
23	18	10	42	657	38.0	-216850.0	-492.0	-66598.0
23	18	10	42	658	39.0	-195005.0	-471.0	-67463.0
23	18	10	42	658	40.0	-194359.0	-469.0	-67329.0
23	18	10	42	659	41.0	-198692.0	-478.0	-67306.0
23	18	10	42	660	42.0	-196487.0	-506.0	-67531.0
23	18	10	42	660	43.0	-175986.0	-523.0	-66933.0
23	18	10	42	661	45.0	-184427.0	-514.0	-66346.0
23	18	10	42	662	46.0	-191062.0	-496.0	-65974.0
23	18	10	42	662	47.0	-175542.0	-507.0	-64796.0
23	18	10	42	663	68.0	-237979.0	-474.0	-60786.0
23	18	10	42	663	69.0	-219020.0	-467.0	-60924.0
23	18	10	42	664	70.0	-222000.0	-459.0	-61164.0
23	18	10	42	665	71.0	-229386.0	-421.0	-61426.0
23	18	10	42	665	72.0	-221697.0	-410.0	-61544.0
23	18	10	42	666	73.0	-198889.0	-417.0	-61621.0
23	18	10	42	666	74.0	-199529.0	-419.0	-61761.0
23	18	10	42	667	90.0	-206795.0	-337.0	-58643.0
23	18	10	42	667	91.0	-199358.0	-342.0	-58340.0
23	18	10	42	668	92.0	-209635.0	-326.0	-58324.0
23	18	10	42	669	93.0	-220473.0	-319.0	-59195.0
23	18	10	42	670	94.0	-208684.0	-291.0	-59336.0
23	18	10	42	670	95.0	-193576.0	-294.0	-59251.0
23	18	10	42	703	96.0	-199634.0	-271.0	-58947.0
23	18	10	42	704	97.0	-212285.0	-257.0	-59009.0
23	18	10	42	705	98.0	-212811.0	-249.0	-57969.0
23	18	10	42	705	99.0	-195342.0	-267.0	-57411.0
23	18	10	42	706	100.0	-195957.0	-259.0	-57249.0
23	18	10	42	706	101.0	-206925.0	-266.0	-57281.0
23	18	10	42	707	102.0	-214162.0	-277.0	-57657.0
23	18	10	42	708	103.0	-198366.0	-267.0	-58212.0
23	18	10	42	708	104.0	-191534.0	-254.0	-58715.0
23	18	10	42	709	105.0	-200237.0	-249.0	-58809.0
23	18	10	42	709	106.0	-209986.0	-261.0	-58901.0
23	18	10	42	710	107.0	-197799.0	-268.0	-57939.0
23	18	10	42	711	108.0	-182793.0	-259.0	-57136.0
23	18	10	42	711	109.0	-188183.0	-257.0	-57537.0
23	18	10	42	712	110.0	-199731.0	-269.0	-57582.0
23	18	10	42	712	112.0	-178152.0	-281.0	-58971.0
23	18	10	42	713	113.0	-181629.0	-289.0	-59684.0
23	18	10	42	713	114.0	-194309.0	-283.0	-59125.0
23	18	10	42	714	115.0	-195911.0	-284.0	-58606.0
23	18	10	42	715	116.0	-176250.0	-277.0	-58326.0
23	18	10	42	715	117.0	-175792.0	-270.0	-58182.0
23	18	10	42	716	118.0	-188094.0	-275.0	-57496.0
23	18	10	42	748	119.0	-193199.0	-288.0	-57582.0
23	18	10	42	749	120.0	-174456.0	-281.0	-57315.0
23	18	10	42	749	121.0	-170104.0	-284.0	-57471.0
23	18	10	42	750	122.0	-182222.0	-313.0	-58128.0
23	18	10	42	751	123.0	-190639.0	-323.0	-58436.0
23	18	10	42	751	124.0	-174276.0	-336.0	-58261.0
23	18	10	42	752	125.0	-167335.0	-345.0	-58166.0
23	18	10	42	752	126.0	-180914.0	-331.0	-57693.0
23	18	10	42	753	127.0	-193147.0	-354.0	-57632.0
23	18	10	42	754	128.0	-181162.0	-381.0	-57711.0
23	18	10	42	754	129.0	-169999.0	-367.0	-57629.0
23	18	10	42	755	130.0	-181173.0	-377.0	-58482.0
23	18	10	42	755	131.0	-192947.0	-369.0	-58596.0
23	18	10	42	756	132.0	-182811.0	-376.0	-58490.0
23	18	10	42	757	133.0	-167564.0	-386.0	-58852.0
23	18	10	42	757	135.0	-193166.0	-396.0	-58537.0
23	18	10	42	758	136.0	-185809.0	-385.0	-58166.0
23	18	10	42	758	137.0	-170014.0	-364.0	-58174.0
23	18	10	42	759	138.0	-181451.0	-350.0	-57823.0
23	18	10	42	759	139.0	-196683.0	-327.0	-58481.0
23	18	10	42	760	140.0	-189380.0	-314.0	-58427.0
23	18	10	42	792	141.0	-172636.0	-310.0	-58659.0
23	18	10	42	813	142.0	-184108.0	-295.0	-58831.0
23	18	10	42	813	143.0	-199645.0	-269.0	-59278.0
23	18	10	42	814	144.0	-192507.0	-265.0	-59131.0
23	18	10	42	814	145.0	-175116.0	-257.0	-59037.0
23	18	10	42	815	146.0	-185499.0	-251.0	-59397.0
23	18	10	42	816	147.0	-199864.0	-241.0	-58935.0
23	18	10	42	816	148.0	-191590.0	-253.0	-58534.0
23	18	10	42	817	149.0	-174684.0	-262.0	-58514.0
23	18	10	42	817	150.0	-185782.0	-247.0	-58396.0
23	18	10	42	818	151.0	-199502.0	-243.0	-58774.0
23	18	10	42	818	152.0	-190306.0	-252.0	-59437.0
23	18	10	42	819	153.0	-175035.0	-273.0	-59627.0
23	18	10	42	819	154.0	-187607.0	-263.0	-59966.0
23	18	10	42	836	155.0	-201423.0	-260.0	-59494.0
23	18	10	42	837	157.0	-180409.0	-253.0	-57134.0
23	18	10	42	838	158.0	-195611.0	-246.0	-57064.0
23	18	10	42	838	159.0	-207532.0	-229.0	-57117.0
23	18	10	42	839	160.0	-196632.0	-232.0	-57536.0
23	18	10	42	840	161.0	-184959.0	-222.0	-58173.0
23	18	10	42	840	162.0	-199299.0	-201.0	-58429.0
23	18	10	42	841	163.0	-207601.0	-214.0	-58902.0
23	18	10	42	842	164.0	-195831.0	-234.0	-59142.0
23	18	10	42	842	165.0	-187807.0	-229.0	-58812.0
23	18	10	42	843	166.0	-202959.0	-220.0	-58659.0
23	18	10	42	843	167.0	-204026.0	-234.0	-58506.0
23	18	10	42	844	168.0	-188065.0	-233.0	-57941.0
23	18	10	42	844	169.0	-182271.0	-229.0	-57711.0
23	18	10	42	845	170.0	-193586.0	-231.0	-57923.0
23	18	10	42	846	171.0	-187302.0	-227.0	-57870.0
23	18	10	42	846	180.0	-173775.0	-204.0	-58200.0
23	18	10	42	847	181.0	-190259.0	-191.0	-58926.0
23	18	10	42	847	182.0	-189304.0	-204.0	-59801.0
23	18	10	42	848	183.0	-173484.0	-194.0	-60556.0
23	18	10	42	849	184.0	-174530.0	-168.0	-60696.0
23	18	10	42	849	185.0	-186668.0	-176.0	-59957.0
23	18	10	42	882	186.0	-174253.0	-165.0	-59087.0
23	18	10	42	883	187.0	-155117.0	-167.0	-57926.0
23	18	10	42	883	188.0	-163235.0	-172.0	-57814.0
23	18	10	42	884	189.0	-170294.0	-153.0	-57998.0
23	18	10	42	885	190.0	-150850.0	-140.0	-57893.0
23	18	10	42	886	191.0	-137328.0	-145.0	-57701.0
23	18	10	42	886	192.0	-152991.0	-138.0	-57504.0
23	18	10	42	887	193.0	-156967.0	-150.0	-57287.0
23	18	10	42	888	194.0	-136643.0	-150.0	-57849.0
23	18	10	42	888	195.0	-134317.0	-146.0	-58382.0
23	18	10	42	889	196.0	-154417.0	-159.0	-58061.0
23	18	10	42	890	197.0	-153122.0	-149.0	-58084.0
23	18	10	42	890	198.0	-132762.0	-160.0	-57852.0
23	18	10	42	891	199.0	-140872.0	-139.0	-57890.0
23	18	10	42	891	200.0	-160180.0	-154.0	-58974.0
23	18	10	42	892	202.0	-138760.0	-161.0	-58637.0
23	18	10	42	893	203.0	-158469.0	-162.0	-59262.0
23	18	10	42	893	204.0	-174606.0	-151.0	-59008.0
23	18	10	42	894	205.0	-160811.0	-147.0	-58809.0
23	18	10	42	894	206.0	-159052.0	-165.0	-59009.0
23	18	10	42	903	207.0	-184611.0	-163.0	-59115.0
23	18	10	42	903	208.0	-190335.0	-154.0	-58434.0
23	18	10	42	904	209.0	-171474.0	-153.0	-58989.0
23	18	10	42	927	210.0	-181867.0	-123.0	-59104.0
23	18	10	42	928	211.0	-204407.0	-122.0	-58739.0
23	18	10	42	928	212.0	-197782.0	-129.0	-59182.0
23	18	10	42	929	213.0	-184287.0	-131.0	-59539.0
23	18	10	42	929	214.0	-204479.0	-144.0	-59179.0
23	18	10	42	930	215.0	-221891.0	-144.0	-59381.0
23	18	10	42	931	216.0	-205336.0	-145.0	-59312.0
23	18	10	42	931	217.0	-202505.0	-143.0	-59125.0
23	18	10	42	932	218.0	-222916.0	-150.0	-59530.0
23	18	10	42	932	219.0	-231021.0	-152.0	-59624.0
23	18	10	42	933	220.0	-210276.0	-151.0	-59784.0
23	18	10	42	934	221.0	-214850.0	-146.0	-60297.0
23	18	10	42	934	222.0	-229117.0	-139.0	-60729.0
23	18	10	42	935	223.0	-227387.0	-146.0	-61029.0
23	18	10	42	935	224.0	-208252.0	-152.0	-61273.0
23	18	10	42	936	225.0	-215139.0	-166.0	-61502.0
23	18	10	42	937	226.0	-222732.0	-156.0	-61492.0
23	18	10	42	938	227.0	-213823.0	-156.0	-61113.0
23	18	10	42	938	228.0	-200297.0	-144.0	-61048.0
23	18	10	42	939	229.0	-208137.0	-144.0	-61167.0
23	18	10	42	972	230.0	-214166.0	-131.0	-61892.0
23	18	10	42	994	231.0	-203612.0	-139.0	-62208.0
23	18	10	42	995	232.0	-202310.0	-132.0	-62077.0
23	18	10	42	995	233.0	-212356.0	-130.0	-62196.0
23	18	10	42	996	234.0	-216891.0	-136.0	-62962.0
23	18	10	42	997	235.0	-207306.0	-139.0	-62654.0
23	18	10	42	997	236.0	-212216.0	-155.0	-62569.0
23	18	10	42	998	237.0	-219528.0	-169.0	-62623.0
23	18	10	42	998	238.0	-216371.0	-173.0	-62697.0
23	18	10	42	999	239.0	-208727.0	-171.0	-63209.0
23	18	10	42	999	240.0	-212442.0	-171.0	-64349.0
23	18	10	43	0	241.0	-214157.0	-164.0	-64929.0
23	18	10	43	0	242.0	-203868.0	-172.0	-65595.0
23	18	10	43	1	243.0	-201002.0	-176.0	-66496.0
23	18	10	43	2	244.0	-204286.0	-171.0	-66666.0
23	18	10	43	2	247.0	-200105.0	-171.0	-65165.0
23	18	10	43	3	248.0	-205571.0	-182.0	-64277.0
23	18	10	43	3	249.0	-202268.0	-170.0	-63554.0
23	18	10	43	4	250.0	-202759.0	-165.0	-62341.0
23	18	10	43	4	251.0	-207641.0	-159.0	-62196.0
23	18	10	43	5	252.0	-209204.0	-147.0	-62691.0
23	18	10	43	18	253.0	-205924.0	-146.0	-62666.0
23	18	10	43	19	254.0	-207784.0	-143.0	-62174.0
23	18	10	43	20	255.0	-212396.0	-141.0	-61343.0
23	18	10	43	20	0.0	-209873.0	-140.0	-60494.0
23	18	10	43	21	1.0	-207096.0	-147.0	-60307.0
23	18	10	43	22	2.0	-209383.0	-149.0	-61000.0
23	18	10	43	22	3.0	-210350.0	-147.0	-62922.0
23	18	10	43	23	4.0	-217374.0	-137.0	-66809.0
23	18	10	43	23	5.0	-224060.0	-154.0	-71652.0
23	18	10	43	24	6.0	-230778.0	-173.0	-76149.0
23	18	10	43	25	7.0	-228896.0	-158.0	-80380.0
23	18	10	43	25	8.0	-238177.0	-154.0	-84494.0
23	18	10	43	26	9.0	-244261.0	-154.0	-88201.0
23	18	10	43	27	10.0	-258119.0	-154.0	-92316.0
23	18	10	43	27	11.0	-267256.0	-151.0	-97966.0
23	18	10	43	28	13.0	-272752.0	-171.0	-110405.0
23	18	10	43	28	14.0	-271956.0	-176.0	-110469.0
23	18	10	43	29	15.0	-265614.0	-166.0	-105348.0
23	18	10	43	30	16.0	-259189.0	-169.0	-100646.0
23	18	10	43	30	17.0	-247935.0	-154.0	-94863.0
23	18	10	43	31	18.0	-235484.0	-130.0	-85777.0
23	18	10	43	31	19.0	-216972.0	-127.0	-75752.0
23	18	10	43	62	20.0	-207447.0	-132.0	-69229.0
23	18	10	43	63	21.0	-203446.0	-112.0	-65103.0
23	18	10	43	64	22.0	-207307.0	-108.0	-63877.0
23	18	10	43	64	23.0	-214401.0	-97.0	-63803.0
23	18	10	43	65	24.0	-225086.0	-93.0	-63340.0
23	18	10	43	66	25.0	-231109.0	-107.0	-61847.0
23	18	10	43	66	26.0	-235306.0	-139.0	-60357.0
23	18	10	43	67	27.0	-227827.0	-135.0	-60167.0
23	18	10	43	68	28.0	-209017.0	-134.0	-59316.0
23	18	10	43	68	29.0	-178337.0	-146.0	-59387.0
23	18	10	43	69	30.0	-148159.0	-116.0	-59548.0
23	18	10	43	70	31.0	-133367.0	-136.0	-58866.0
23	18	10	43	70	32.0	-121932.0	-151.0	-57734.0
23	18	10	43	71	33.0	-110764.0	-136.0	-57378.0
23	18	10	43	71	34.0	-98532.0	-137.0	-57419.0
23	18	10	43	72	36.0	-117537.0	-169.0	-59611.0
23	18	10	43	73	37.0	-164405.0	-156.0	-60925.0
23	18	10	43	73	38.0	-223031.0	-166.0	-61414.0
23	18	10	43	74	39.0	-279746.0	-147.0	-61984.0
23	18	10	43	74	40.0	-327796.0	-157.0	-62600.0
23	18	10	43	75	41.0	-364099.0	-184.0	-63514.0
23	18	10	43	106	42.0	-384657.0	-180.0	-64382.0
23	18	10	43	107	43.0	-389667.0	-164.0	-64988.0
23	18	10	43	108	44.0	-379440.0	-179.0	-65465.0
23	18	10	43	108	45.0	-356905.0	-187.0	-65834.0
23	18	10	43	109	46.0	-326427.0	-178.0	-65836.0
23	18	10	43	110	47.0	-287196.0	-172.0	-66093.0
23	18	10	43	110	48.0	-244161.0	-162.0	-65804.0
23	18	10	43	111	49.0	-207761.0	-156.0	-65515.0
23	18	10	43	112	50.0	-182742.0	-172.0	-65576.0
23	18	10	43	112	51.0	-168388.0	-162.0	-65329.0
23	18	10	43	113	52.0	-162094.0	-155.0	-65686.0
23	18	10	43	113	53.0	-161069.0	-161.0	-65699.0
23	18	10	43	114	54.0	-163960.0	-177.0	-66221.0
23	18	10	43	115	55.0	-171376.0	-169.0	-66895.0
23	18	10	43	115	56.0	-181792.0	-152.0	-67001.0
23	18	10	43	116	58.0	-199021.0	-143.0	-66869.0
23	18	10	43	117	59.0	-207354.0	-139.0	-66727.0
23	18	10	43	117	60.0	-212184.0	-135.0	-66304.0
23	18	10	43	118	61.0	-217166.0	-144.0	-65804.0
23	18	10	43	118	62.0	-221662.0	-146.0	-65012.0
23	18	10	43	119	63.0	-216906.0	-154.0	-64741.0
23	18	10	43	120	64.0	-204166.0	-129.0	-64936.0
23	18	10	43	153	65.0	-190794.0	-125.0	-65765.0
23	18	10	43	154	66.0	-173989.0	-129.0	-67014.0
23	18	10	43	155	67.0	-153927.0	-149.0	-67239.0
23	18	10	43	155	68.0	-133906.0	-165.0	-66858.0
23	18	10	43	156	69.0	-116413.0	-179.0	-65434.0
23	18	10	43	156	70.0	-107202.0	-159.0	-65241.0
23	18	10	43	157	71.0	-101590.0	-167.0	-65246.0
23	18	10	43	158	72.0	-100367.0	-182.0	-65627.0
23	18	10	43	158	73.0	-101877.0	-199.0	-65766.0
23	18	10	43	159	74.0	-106412.0	-220.0	-64986.0
23	18	10	43	160	75.0	-114974.0	-221.0	-64599.0
23	18	10	43	160	76.0	-122470.0	-232.0	-64854.0
23	18	10	43	161	77.0	-128224.0	-237.0	-65073.0
23	18	10	43	162	78.0	-133356.0	-252.0	-66153.0
23	18	10	43	162	79.0	-135057.0	-263.0	-66211.0
23	18	10	43	163	81.0	-135714.0	-233.0	-65869.0
23	18	10	43	164	82.0	-134169.0	-217.0	-66725.0
23	18	10	43	164	83.0	-131812.0	-231.0	-66508.0
23	18	10	43	165	84.0	-127620.0	-204.0	-65944.0
23	18	10	43	166	85.0	-123760.0	-189.0	-66649.0
23	18	10	43	166	86.0	-120332.0	-167.0	-66654.0
23	18	10	43	198	87.0	-118627.0	-173.0	-66243.0
23	18	10	43	199	88.0	-117426.0	-186.0	-66559.0
23	18	10	43	200	89.0	-117942.0	-181.0	-66730.0
23	18	10	43	200	90.0	-119396.0	-186.0	-66579.0
23	18	10	43	201	91.0	-121707.0	-199.0	-66614.0
23	18	10	43	202	92.0	-124883.0	-191.0	-66349.0
23	18	10	43	202	93.0	-128349.0	-179.0	-67017.0
23	18	10	43	203	94.0	-131256.0	-164.0	-67121.0
23	18	10	43	204	95.0	-133417.0	-177.0	-66800.0
23	18	10	43	204	96.0	-135498.0	-167.0	-66319.0
23	18	10	43	205	97.0	-136872.0	-162.0	-65915.0
23	18	10	43	205	98.0	-137011.0	-156.0	-65775.0
23	18	10	43	206	99.0	-135631.0	-158.0	-64784.0
23	18	10	43	207	100.0	-132027.0	-136.0	-63142.0
23	18	10	43	207	101.0	-127214.0	-140.0	-62664.0
23	18	10	43	208	103.0	-115154.0	-129.0	-63307.0
23	18	10	43	208	104.0	-107595.0	-107.0	-63547.0
23	18	10	43	209	105.0	-99831.0	-90.0	-63130.0
23	18	10	43	210	106.0	-91979.0	-81.0	-63328.0
23	18	10	43	210	107.0	-83961.0	-69.0	-63295.0
23	18	10	43	242	108.0	-75814.0	-49.0	-62807.0
23	18	10	43	243	109.0	-68029.0	-21.0	-63071.0
23	18	10	43	244	110.0	-61652.0	-2.0	-62908.0
23	18	10	43	244	111.0	-56582.0	-10.0	-63276.0
23	18	10	43	245	112.0	-52976.0	-4.0	-63747.0
23	18	10	43	246	113.0	-50336.0	11.0	-63891.0
23	18	10	43	247	114.0	-49629.0	11.0	-64132.0
23	18	10	43	247	115.0	-50630.0	21.0	-64452.0
23	18	10	43	248	116.0	-53231.0	24.0	-64572.0
23	18	10	43	250	117.0	-57756.0	36.0	-64697.0
23	18	10	43	251	118.0	-63353.0	50.0	-65497.0
23	18	10	43	257	119.0	-69899.0	53.0	-65589.0
23	18	10	43	258	120.0	-77282.0	59.0	-65387.0
23	18	10	43	258	121.0	-85409.0	54.0	-65323.0
23	18	10	43	259	122.0	-93662.0	58.0	-65509.0
23	18	10	43	259	123.0	-101471.0	76.0	-65447.0
23	18	10	43	260	126.0	-124513.0	83.0	-65734.0
23	18	10	43	261	127.0	-131689.0	109.0	-65762.0
23	18	10	43	261	128.0	-138159.0	136.0	-66139.0
23	18	10	43	262	129.0	-144314.0	155.0	-65827.0
23	18	10	43	262	130.0	-150372.0	157.0	-65467.0
23	18	10	43	263	131.0	-156604.0	175.0	-65096.0
23	18	10	43	288	132.0	-162524.0	191.0	-65007.0
23	18	10	43	288	133.0	-167554.0	213.0	-65111.0
23	18	10	43	308	134.0	-171517.0	234.0	-65066.0
23	18	10	43	309	135.0	-174584.0	236.0	-65237.0
23	18	10	43	309	136.0	-177241.0	279.0	-65722.0
23	18	10	43	310	137.0	-179314.0	296.0	-66214.0
23	18	10	43	311	138.0	-180681.0	296.0	-65471.0
23	18	10	43	311	139.0	-181633.0	314.0	-65014.0
23	18	10	43	312	140.0	-181958.0	317.0	-64722.0
23	18	10	43	312	141.0	-181958.0	328.0	-64692.0
23	18	10	43	313	142.0	-182074.0	338.0	-64339.0
23	18	10	43	313	143.0	-183282.0	344.0	-64184.0
23	18	10	43	314	144.0	-184949.0	359.0	-64160.0
23	18	10	43	314	145.0	-187082.0	352.0	-63786.0
23	18	10	43	315	146.0	-189034.0	359.0	-64126.0
23	18	10	43	315	148.0	-192650.0	394.0	-64790.0
23	18	10	43	316	149.0	-193995.0	400.0	-64849.0
23	18	10	43	316	150.0	-194960.0	433.0	-64862.0
23	18	10	43	317	151.0	-195907.0	446.0	-65656.0
23	18	10	43	317	152.0	-196890.0	442.0	-65921.0
23	18	10	43	318	153.0	-197859.0	448.0	-65731.0
23	18	10	43	379	154.0	-198661.0	471.0	-65366.0
23	18	10	43	380	155.0	-199786.0	482.0	-63947.0
23	18	10	43	381	156.0	-200871.0	506.0	-63212.0
23	18	10	43	382	157.0	-201637.0	522.0	-62916.0
23	18	10	43	382	158.0	-201657.0	544.0	-63385.0
23	18	10	43	383	159.0	-201006.0	532.0	-63161.0
23	18	10	43	383	160.0	-200347.0	523.0	-62755.0
23	18	10	43	384	161.0	-199932.0	519.0	-62806.0
23	18	10	43	384	162.0	-199918.0	508.0	-63631.0
23	18	10	43	386	163.0	-200189.0	518.0	-64249.0
23	18	10	43	387	164.0	-200109.0	548.0	-66562.0
23	18	10	43	388	165.0	-199819.0	533.0	-67847.0
23	18	10	43	388	166.0	-199324.0	539.0	-68874.0
23	18	10	43	389	167.0	-198863.0	544.0	-69567.0
23	18	10	43	390	168.0	-197744.0	563.0	-69076.0
23	18	10	43	390	170.0	-195061.0	546.0	-69109.0
23	18	10	43	391	193.0	-157994.0	718.0	-74604.0
23	18	10	43	422	194.0	-159252.0	739.0	-75324.0
23	18	10	43	423	195.0	-160481.0	749.0	-76102.0
23	18	10	43	423	196.0	-158098.0	768.0	-76274.0
23	18	10	43	424	197.0	-152167.0	805.0	-76797.0
23	18	10	43	424	198.0	-150443.0	827.0	-77721.0
23	18	10	43	425	199.0	-146187.0	834.0	-77547.0
23	18	10	43	426	200.0	-155356.0	847.0	-76979.0
23	18	10	43	426	201.0	-171436.0	851.0	-76487.0
23	18	10	43	427	202.0	-188152.0	844.0	-75612.0
23	18	10	43	427	203.0	-203042.0	846.0	-74536.0
23	18	10	43	428	204.0	-210380.0	844.0	-74354.0
23	18	10	43	429	205.0	-210454.0	840.0	-74681.0
23	18	10	43	429	206.0	-206089.0	842.0	-75096.0
23	18	10	43	430	207.0	-196609.0	847.0	-75697.0
23	18	10	43	430	208.0	-182242.0	862.0	-76198.0
23	18	10	43	431	209.0	-164265.0	863.0	-76164.0
23	18	10	43	432	216.0	-118329.0	899.0	-76814.0
23	18	10	43	432	217.0	-118887.0	892.0	-76982.0
23	18	10	43	433	218.0	-120891.0	893.0	-77823.0
23	18	10	43	433	219.0	-125340.0	933.0	-78826.0
23	18	10	43	434	220.0	-130263.0	921.0	-78849.0
23	18	10	43	434	221.0	-135251.0	913.0	-77989.0
23	18	10	43	468	222.0	-139914.0	923.0	-78666.0
23	18	10	43	469	223.0	-143491.0	939.0	-78710.0
23	18	10	43	469	224.0	-145264.0	953.0	-78894.0
23	18	10	43	470	225.0	-146001.0	942.0	-80018.0
23	18	10	43	471	226.0	-146209.0	936.0	-80196.0
23	18	10	43	471	227.0	-146207.0	941.0	-79820.0
23	18	10	43	472	228.0	-145809.0	928.0	-79778.0
23	18	10	43	472	229.0	-144959.0	929.0	-79948.0
23	18	10	43	473	230.0	-143719.0	919.0	-79853.0
23	18	10	43	473	231.0	-141898.0	908.0	-79829.0
23	18	10	43	474	232.0	-139424.0	908.0	-79977.0
23	18	10	43	474	233.0	-136902.0	914.0	-79790.0
23	18	10	43	475	234.0	-134284.0	903.0	-79884.0
23	18	10	43	476	235.0	-131791.0	899.0	-80217.0
23	18	10	43	476	236.0	-130529.0	911.0	-80164.0
23	18	10	43	477	238.0	-131607.0	892.0	-80172.0
23	18	10	43	477	239.0	-133594.0	891.0	-80309.0
23	18	10	43	478	240.0	-136046.0	896.0	-80465.0
23	18	10	43	478	241.0	-139421.0	934.0	-80461.0
23	18	10	43	479	242.0	-143495.0	946.0	-79911.0
23	18	10	43	480	243.0	-147482.0	941.0	-80116.0
23	18	10	43	512	244.0	-151955.0	941.0	-80166.0
23	18	10	43	513	245.0	-156991.0	955.0	-79954.0
23	18	10	43	513	246.0	-162159.0	949.0	-80049.0
23	18	10	43	514	247.0	-166812.0	948.0	-80909.0
23	18	10	43	515	248.0	-169978.0	973.0	-80998.0
23	18	10	43	515	249.0	-171992.0	969.0	-80616.0
23	18	10	43	516	250.0	-173132.0	949.0	-80666.0
23	18	10	43	517	251.0	-172632.0	933.0	-80277.0
23	18	10	43	517	252.0	-171100.0	928.0	-79949.0
23	18	10	43	518	253.0	-168922.0	943.0	-79728.0
23	18	10	43	518	254.0	-166159.0	937.0	-79814.0
23	18	10	43	558	255.0	-162991.0	934.0	-80397.0
23	18	10	43	559	0.0	-160586.0	928.0	-80651.0
23	18	10	43	559	1.0	-159605.0	926.0	-80851.0
23	18	10	43	560	2.0	-159447.0	917.0	-80757.0
23	18	10	43	561	4.0	-161261.0	913.0	-80661.0
23	18	10	43	561	5.0	-162971.0	901.0	-80695.0
23	18	10	43	562	6.0	-165401.0	891.0	-80675.0
23	18	10	43	562	7.0	-168217.0	901.0	-80071.0
23	18	10	43	563	8.0	-170784.0	919.0	-80271.0
23	18	10	43	563	9.0	-173246.0	924.0	-80534.0
23	18	10	43	564	10.0	-175365.0	894.0	-80122.0
23	18	10	43	565	11.0	-176780.0	901.0	-80255.0
23	18	10	43	565	12.0	-177543.0	898.0	-80692.0
23	18	10	43	566	13.0	-177564.0	881.0	-80455.0
23	18	10	43	566	14.0	-177257.0	869.0	-80002.0
23	18	10	43	567	15.0	-177367.0	863.0	-79907.0
23	18	10	43	567	27.0	-202389.0	806.0	-77026.0
23	18	10	43	568	28.0	-205435.0	824.0	-76621.0
23	18	10	43	569	29.0	-207713.0	833.0	-76489.0
23	18	10	43	569	30.0	-209529.0	830.0	-77367.0
23	18	10	43	570	31.0	-210452.0	830.0	-77181.0
23	18	10	43	570	32.0	-210831.0	834.0	-76618.0
23	18	10	43	602	33.0	-210186.0	829.0	-76471.0
23	18	10	43	603	34.0	-208757.0	848.0	-76052.0
23	18	10	43	604	35.0	-206711.0	849.0	-75936.0
23	18	10	43	604	36.0	-203901.0	820.0	-75300.0
23	18	10	43	605	37.0	-200117.0	823.0	-75224.0
23	18	10	43	605	38.0	-196422.0	837.0	-75222.0
23	18	10	43	606	39.0	-192610.0	826.0	-75285.0
23	18	10	43	607	40.0	-189775.0	817.0	-74596.0
23	18	10	43	607	41.0	-189290.0	816.0	-74788.0
23	18	10	43	608	42.0	-190916.0	806.0	-74409.0
23	18	10	43	608	43.0	-192568.0	798.0	-74071.0
23	18	10	43	609	44.0	-194056.0	805.0	-74082.0
23	18	10	43	609	45.0	-196684.0	775.0	-73877.0
23	18	10	43	610	46.0	-200071.0	760.0	-73554.0
23	18	10	43	611	47.0	-203962.0	783.0	-73764.0
23	18	10	43	611	49.0	-210689.0	767.0	-74961.0
23	18	10	43	612	50.0	-213589.0	781.0	-74671.0
23	18	10	43	612	51.0	-216153.0	767.0	-74472.0
23	18	10	43	613	52.0	-218334.0	777.0	-74057.0
23	18	10	43	614	53.0	-219854.0	793.0	-73189.0
23	18	10	43	614	54.0	-220300.0	796.0	-72380.0
23	18	10	43	647	55.0	-219944.0	801.0	-71934.0
23	18	10	43	648	56.0	-219021.0	821.0	-71174.0
23	18	10	43	656	57.0	-217929.0	820.0	-71452.0
23	18	10	43	656	58.0	-216510.0	821.0	-72151.0
23	18	10	43	657	59.0	-215234.0	815.0	-72929.0
23	18	10	43	658	60.0	-214806.0	804.0	-73303.0
23	18	10	43	658	61.0	-215031.0	785.0	-73853.0
23	18	10	43	659	62.0	-215414.0	804.0	-74291.0
23	18	10	43	659	63.0	-216383.0	821.0	-73613.0
23	18	10	43	660	64.0	-217877.0	819.0	-72854.0
23	18	10	43	660	65.0	-219994.0	802.0	-71927.0
23	18	10	43	661	66.0	-221784.0	799.0	-72186.0
23	18	10	43	661	67.0	-223351.0	806.0	-71791.0
23	18	10	43	662	68.0	-225355.0	796.0	-71357.0
23	18	10	43	663	69.0	-227789.0	793.0	-71322.0
23	18	10	43	663	72.0	-235849.0	818.0	-70747.0
23	18	10	43	664	73.0	-238074.0	835.0	-70342.0
23	18	10	43	664	74.0	-239177.0	841.0	-69506.0
23	18	10	43	665	75.0	-240603.0	829.0	-69446.0
23	18	10	43	665	76.0	-241117.0	837.0	-69914.0
23	18	10	43	666	77.0	-241990.0	845.0	-70119.0
23	18	10	43	693	78.0	-242399.0	853.0	-70536.0
23	18	10	43	694	79.0	-242472.0	856.0	-70529.0
23	18	10	43	695	80.0	-242821.0	844.0	-69797.0
23	18	10	43	695	81.0	-242726.0	836.0	-68993.0
23	18	10	43	696	82.0	-242126.0	812.0	-69040.0
23	18	10	43	697	83.0	-240678.0	813.0	-68912.0
23	18	10	43	697	84.0	-240146.0	822.0	-68452.0
23	18	10	43	698	85.0	-240631.0	832.0	-68844.0
23	18	10	43	699	86.0	-241576.0	823.0	-68466.0
23	18	10	43	699	87.0	-243450.0	809.0	-67972.0
23	18	10	43	700	88.0	-245239.0	801.0	-68733.0
23	18	10	43	700	89.0	-246855.0	814.0	-69052.0
23	18	10	43	701	90.0	-248796.0	819.0	-68637.0
23	18	10	43	701	91.0	-250032.0	820.0	-68962.0
23	18	10	43	702	92.0	-251566.0	804.0	-69113.0
23	18	10	43	703	94.0	-255147.0	772.0	-67622.0
23	18	10	43	703	95.0	-255903.0	792.0	-67604.0
23	18	10	43	704	96.0	-255401.0	794.0	-67592.0
23	18	10	43	704	97.0	-254736.0	789.0	-67794.0
23	18	10	43	705	98.0	-254947.0	787.0	-67635.0
23	18	10	43	705	99.0	-254970.0	767.0	-67704.0
23	18	10	43	737	100.0	-254005.0	778.0	-67409.0
23	18	10	43	737	101.0	-253527.0	791.0	-66909.0
23	18	10	43	738	102.0	-252860.0	791.0	-67040.0
23	18	10	43	739	103.0	-252071.0	784.0	-67066.0
23	18	10	43	739	104.0	-251809.0	783.0	-66241.0
23	18	10	43	740	105.0	-251476.0	801.0	-66335.0
23	18	10	43	740	106.0	-251084.0	798.0	-65777.0
23	18	10	43	741	107.0	-250447.0	789.0	-65570.0
23	18	10	43	742	108.0	-248851.0	773.0	-65274.0
23	18	10	43	742	109.0	-246559.0	770.0	-65204.0
23	18	10	43	743	110.0	-244241.0	773.0	-64950.0
23	18	10	43	756	111.0	-241529.0	766.0	-63601.0
23	18	10	43	782	112.0	-237391.0	759.0	-63104.0
23	18	10	43	782	113.0	-234206.0	743.0	-61988.0
23	18	10	43	783	114.0	-230876.0	719.0	-61004.0
23	18	10	43	784	116.0	-224956.0	682.0	-61082.0
23	18	10	43	784	117.0	-223451.0	646.0	-61669.0
23	18	10	43	785	118.0	-222219.0	660.0	-62109.0
23	18	10	43	785	119.0	-220620.0	631.0	-62026.0
23	18	10	43	786	120.0	-219154.0	619.0	-61536.0
23	18	10	43	787	121.0	-218136.0	623.0	-61336.0
23	18	10	43	787	122.0	-216736.0	613.0	-61602.0
23	18	10	43	788	123.0	-215625.0	591.0	-61151.0
23	18	10	43	788	124.0	-213939.0	591.0	-60631.0
23	18	10	43	789	125.0	-213016.0	569.0	-60897.0
23	18	10	43	790	126.0	-212729.0	551.0	-60481.0
23	18	10	43	790	127.0	-212092.0	533.0	-59704.0
23	18	10	43	791	128.0	-212190.0	539.0	-60273.0
23	18	10	43	791	139.0	-228769.0	341.0	-61711.0
23	18	10	43	792	140.0	-226833.0	322.0	-63441.0
23	18	10	43	793	141.0	-225162.0	325.0	-64132.0
23	18	10	43	793	142.0	-223933.0	326.0	-64016.0
23	18	10	43	794	143.0	-222750.0	311.0	-63094.0
23	18	10	43	794	144.0	-221464.0	293.0	-62527.0
23	18	10	43	804	145.0	-221222.0	287.0	-62335.0
23	18	10	43	828	146.0	-220759.0	269.0	-61939.0
23	18	10	43	829	147.0	-219021.0	281.0	-61287.0
23	18	10	43	829	148.0	-216715.0	268.0	-61010.0
23	18	10	43	830	149.0	-214605.0	236.0	-61804.0
23	18	10	43	831	150.0	-212325.0	223.0	-61810.0
23	18	10	43	831	151.0	-211066.0	228.0	-61852.0
23	18	10	43	832	152.0	-210537.0	220.0	-62134.0
23	18	10	43	832	153.0	-210249.0	200.0	-61850.0
23	18	10	43	833	154.0	-211321.0	174.0	-61045.0
23	18	10	43	834	155.0	-212684.0	141.0	-61156.0
23	18	10	43	834	156.0	-214024.0	123.0	-60713.0
23	18	10	43	835	157.0	-215987.0	115.0	-59612.0
23	18	10	43	835	158.0	-218719.0	101.0	-59117.0
23	18	10	43	836	159.0	-221579.0	86.0	-57046.0
23	18	10	43	836	160.0	-224849.0	79.0	-55706.0
23	18	10	43	837	161.0	-228198.0	73.0	-54949.0
23	18	10	43	838	162.0	-230847.0	32.0	-54651.0
23	18	10	43	838	163.0	-232803.0	22.0	-54099.0
23	18	10	43	839	164.0	-234689.0	19.0	-54294.0
23	18	10	43	839	165.0	-236446.0	10.0	-54698.0
23	18	10	43	840	166.0	-238182.0	4.0	-55429.0
23	18	10	43	841	167.0	-240056.0	19.0	-56239.0
23	18	10	43	872	168.0	-242029.0	18.0	-56854.0
23	18	10	43	873	169.0	-243709.0	14.0	-57481.0
23	18	10	43	874	170.0	-244711.0	-1.0	-58351.0
23	18	10	43	874	171.0	-245514.0	1.0	-58991.0
23	18	10	43	875	172.0	-246594.0	-2.0	-58881.0
23	18	10	43	875	173.0	-247850.0	-38.0	-59114.0
23	18	10	43	876	174.0	-248702.0	-32.0	-59462.0
23	18	10	43	877	175.0	-249466.0	-17.0	-59806.0
23	18	10	43	877	176.0	-250115.0	-28.0	-60232.0
23	18	10	43	878	177.0	-249617.0	-30.0	-60376.0
23	18	10	43	879	178.0	-247824.0	-47.0	-60424.0
23	18	10	43	879	179.0	-245279.0	-71.0	-60674.0
23	18	10	43	880	180.0	-242882.0	-58.0	-60521.0
23	18	10	43	880	181.0	-240795.0	-82.0	-61044.0
23	18	10	43	881	182.0	-238441.0	-109.0	-61843.0
23	18	10	43	917	184.0	-233656.0	-116.0	-61790.0
23	18	10	43	918	185.0	-231771.0	-113.0	-62373.0
23	18	10	43	918	186.0	-230516.0	-116.0	-62547.0
23	18	10	43	919	187.0	-229128.0	-100.0	-62362.0
23	18	10	43	919	188.0	-228206.0	-100.0	-62524.0
23	18	10	43	920	189.0	-227593.0	-112.0	-62633.0
23	18	10	43	921	190.0	-226716.0	-107.0	-62263.0
23	18	10	43	921	191.0	-225404.0	-112.0	-62169.0
23	18	10	43	922	192.0	-223882.0	-127.0	-61674.0
23	18	10	43	922	193.0	-222459.0	-136.0	-60900.0
23	18	10	43	923	194.0	-220859.0	-139.0	-60134.0
23	18	10	43	924	195.0	-219564.0	-144.0	-59921.0
23	18	10	43	924	196.0	-218254.0	-159.0	-59946.0
23	18	10	43	925	197.0	-216406.0	-178.0	-60022.0
23	18	10	43	926	198.0	-214340.0	-184.0	-60230.0
23	18	10	43	926	199.0	-212396.0	-193.0	-59744.0
23	18	10	43	927	207.0	-199034.0	-291.0	-56357.0
23	18	10	43	927	208.0	-197442.0	-296.0	-56034.0
23	18	10	43	928	209.0	-195709.0	-290.0	-55725.0
23	18	10	43	929	210.0	-194272.0	-298.0	-56424.0
23	18	10	43	929	211.0	-193542.0	-302.0	-57213.0
23	18	10	43	930	212.0	-193494.0	-307.0	-57914.0
23	18	10	43	963	213.0	-194065.0	-327.0	-58120.0
23	18	10	43	963	214.0	-194821.0	-327.0	-57551.0
23	18	10	43	964	215.0	-195653.0	-339.0	-58397.0
23	18	10	43	964	216.0	-197241.0	-355.0	-59583.0
23	18	10	43	965	217.0	-199458.0	-354.0	-60208.0
23	18	10	43	966	218.0	-201922.0	-354.0	-60871.0
23	18	10	43	966	219.0	-204301.0	-367.0	-61030.0
23	18	10	43	967	220.0	-206707.0	-382.0	-60957.0
23	18	10	43	968	221.0	-208807.0	-402.0	-60891.0
23	18	10	43	968	222.0	-211507.0	-408.0	-60905.0
23	18	10	43	969	223.0	-215489.0	-419.0	-60921.0
23	18	10	43	969	224.0	-219826.0	-421.0	-60946.0
23	18	10	43	970	225.0	-224122.0	-413.0	-60872.0
23	18	10	43	971	226.0	-228213.0	-421.0	-61853.0
23	18	10	43	971	227.0	-231799.0	-417.0	-62341.0
23	18	10	43	972	229.0	-236388.0	-439.0	-62484.0
23	18	10	43	972	230.0	-236962.0	-452.0	-60946.0
23	18	10	43	973	231.0	-236860.0	-466.0	-58470.0
23	18	10	43	974	232.0	-236168.0	-461.0	-57228.0
23	18	10	43	974	233.0	-235293.0	-466.0	-55634.0
23	18	10	43	975	234.0	-234363.0	-466.0	-53557.0
23	18	10	44	8	235.0	-233757.0	-477.0	-52317.0
23	18	10	44	9	236.0	-232626.0	-467.0	-51266.0
23	18	10	44	9	237.0	-230862.0	-464.0	-51801.0
23	18	10	44	10	238.0	-229115.0	-497.0	-53659.0
23	18	10	44	10	239.0	-227341.0	-502.0	-54032.0
23	18	10	44	11	240.0	-226113.0	-491.0	-54145.0
23	18	10	44	12	241.0	-225709.0	-482.0	-54323.0
23	18	10	44	12	242.0	-225613.0	-485.0	-54848.0
23	18	10	44	13	243.0	-225541.0	-503.0	-56964.0
23	18	10	44	14	244.0	-226042.0	-511.0	-61454.0
23	18	10	44	14	245.0	-226794.0	-525.0	-66387.0
23	18	10	44	15	246.0	-228070.0	-530.0	-71929.0
23	18	10	44	15	247.0	-230326.0	-507.0	-77458.0
23	18	10	44	16	248.0	-234042.0	-524.0	-81656.0
23	18	10	44	17	249.0	-239206.0	-546.0	-85515.0
23	18	10	44	17	251.0	-250424.0	-514.0	-95361.0
23	18	10	44	18	252.0	-254775.0	-517.0	-100239.0
23	18	10	44	18	253.0	-256574.0	-527.0	-104011.0
23	18	10	44	19	254.0	-254921.0	-530.0	-101544.0
23	18	10	44	19	255.0	-247997.0	-537.0	-96171.0
23	18	10	44	20	0.0	-235722.0	-519.0	-90508.0
23	18	10	44	52	1.0	-220256.0	-513.0	-83148.0
23	18	10	44	53	2.0	-204021.0	-500.0	-75806.0
23	18	10	44	54	3.0	-189404.0	-499.0	-68691.0
23	18	10	44	54	4.0	-178847.0	-515.0	-63062.0
23	18	10	44	55	5.0	-173731.0	-505.0	-60434.0
23	18	10	44	56	6.0	-174028.0	-506.0	-59621.0
23	18	10	44	56	7.0	-178816.0	-524.0	-58544.0
23	18	10	44	57	8.0	-187154.0	-538.0	-58067.0
23	18	10	44	58	9.0	-195671.0	-537.0	-58387.0
23	18	10	44	58	10.0	-203009.0	-544.0	-58079.0
23	18	10	44	59	11.0	-206742.0	-547.0	-57194.0
23	18	10	44	59	12.0	-203496.0	-569.0	-56706.0
23	18	10	44	60	13.0	-189684.0	-567.0	-56751.0
23	18	10	44	61	14.0	-156487.0	-560.0	-56568.0
23	18	10	44	61	15.0	-125993.0	-564.0	-56056.0
23	18	10	44	62	18.0	-92457.0	-589.0	-55056.0
23	18	10	44	62	19.0	-89629.0	-593.0	-55569.0
23	18	10	44	63	20.0	-87801.0	-581.0	-56176.0
23	18	10	44	64	21.0	-95619.0	-596.0	-56549.0
23	18	10	44	64	22.0	-124369.0	-592.0	-56496.0
23	18	10	44	65	23.0	-175391.0	-575.0	-56528.0
23	18	10	44	97	24.0	-246294.0	-559.0	-56796.0
23	18	10	44	98	25.0	-323584.0	-571.0	-56958.0
23	18	10	44	99	26.0	-396279.0	-593.0	-57346.0
23	18	10	44	99	27.0	-454809.0	-577.0	-58221.0
23	18	10	44	100	28.0	-485688.0	-584.0	-58612.0
23	18	10	44	100	29.0	-482759.0	-586.0	-58847.0
23	18	10	44	101	30.0	-458776.0	-594.0	-58796.0
23	18	10	44	102	31.0	-420777.0	-587.0	-58232.0
23	18	10	44	102	32.0	-367777.0	-580.0	-58478.0
23	18	10	44	103	33.0	-305082.0	-589.0	-59467.0
23	18	10	44	104	34.0	-249856.0	-604.0	-60086.0
23	18	10	44	104	35.0	-209279.0	-601.0	-59852.0
23	18	10	44	105	36.0	-183253.0	-613.0	-59691.0
23	18	10	44	106	37.0	-171426.0	-612.0	-59302.0
23	18	10	44	106	38.0	-174510.0	-602.0	-58346.0
23	18	10	44	107	40.0	-216066.0	-584.0	-58784.0
23	18	10	44	107	41.0	-240866.0	-593.0	-58928.0
23	18	10	44	108	42.0	-259284.0	-581.0	-59037.0
23	18	10	44	109	43.0	-266760.0	-579.0	-59187.0
23	18	10	44	109	44.0	-264952.0	-589.0	-59510.0
23	18	10	44	110	45.0	-259262.0	-577.0	-59652.0
23	18	10	44	143	46.0	-246807.0	-568.0	-59695.0
23	18	10	44	143	47.0	-226435.0	-576.0	-59086.0
23	18	10	44	144	48.0	-200937.0	-586.0	-59376.0
23	18	10	44	145	49.0	-175549.0	-592.0	-59614.0
23	18	10	44	146	50.0	-151636.0	-590.0	-60112.0
23	18	10	44	146	51.0	-131428.0	-604.0	-61028.0
23	18	10	44	147	52.0	-117552.0	-606.0	-61134.0
23	18	10	44	147	53.0	-108342.0	-599.0	-61036.0
23	18	10	44	148	54.0	-102951.0	-609.0	-61256.0
23	18	10	44	149	55.0	-101782.0	-606.0	-60941.0
23	18	10	44	149	56.0	-105828.0	-617.0	-59920.0
23	18	10	44	150	57.0	-112891.0	-603.0	-59452.0
23	18	10	44	151	58.0	-120474.0	-587.0	-59694.0
23	18	10	44	151	59.0	-127334.0	-582.0	-59961.0
23	18	10	44	152	60.0	-133305.0	-586.0	-60674.0
23	18	10	44	152	62.0	-141902.0	-565.0	-61092.0
23	18	10	44	153	63.0	-144458.0	-556.0	-61677.0
23	18	10	44	154	64.0	-145669.0	-561.0	-62070.0
23	18	10	44	154	65.0	-145357.0	-539.0	-61778.0
23	18	10	44	155	66.0	-143952.0	-521.0	-62344.0
23	18	10	44	155	67.0	-141972.0	-511.0	-63121.0
23	18	10	44	156	68.0	-139292.0	-496.0	-63391.0
23	18	10	44	194	69.0	-135571.0	-490.0	-63132.0
23	18	10	44	195	70.0	-131122.0	-482.0	-63216.0
23	18	10	44	196	71.0	-126105.0	-496.0	-63349.0
23	18	10	44	196	72.0	-120307.0	-496.0	-62777.0
23	18	10	44	197	73.0	-114300.0	-505.0	-63159.0
23	18	10	44	234	74.0	-108726.0	-517.0	-62427.0
23	18	10	44	235	75.0	-104742.0	-528.0	-62090.0
23	18	10	44	236	76.0	-102330.0	-520.0	-62358.0
23	18	10	44	237	77.0	-101736.0	-521.0	-62338.0
23	18	10	44	237	78.0	-103394.0	-517.0	-62232.0
23	18	10	44	238	79.0	-106725.0	-520.0	-62395.0
23	18	10	44	239	80.0	-110671.0	-515.0	-63022.0
23	18	10	44	239	81.0	-114771.0	-526.0	-63729.0
23	18	10	44	240	82.0	-118507.0	-522.0	-64287.0
23	18	10	44	241	83.0	-121735.0	-534.0	-64338.0
23	18	10	44	241	85.0	-125851.0	-532.0	-62800.0
23	18	10	44	242	86.0	-126569.0	-524.0	-62507.0
23	18	10	44	243	87.0	-125939.0	-507.0	-62666.0
23	18	10	44	243	88.0	-124636.0	-511.0	-63056.0
23	18	10	44	244	89.0	-123191.0	-522.0	-63228.0
23	18	10	44	244	90.0	-122045.0	-511.0	-62793.0
23	18	10	44	245	108.0	-148239.0	-525.0	-61116.0
23	18	10	44	246	109.0	-148710.0	-496.0	-61412.0
23	18	10	44	246	110.0	-149246.0	-508.0	-61462.0
23	18	10	44	247	111.0	-149296.0	-510.0	-61597.0
23	18	10	44	247	112.0	-149079.0	-495.0	-61923.0
23	18	10	44	248	113.0	-148932.0	-482.0	-61987.0
23	18	10	44	280	114.0	-148727.0	-462.0	-61586.0
23	18	10	44	281	115.0	-148444.0	-472.0	-61106.0
23	18	10	44	281	116.0	-148068.0	-486.0	-59729.0
23	18	10	44	282	117.0	-147786.0	-508.0	-59121.0
23	18	10	44	283	118.0	-147516.0	-511.0	-58972.0
23	18	10	44	283	119.0	-147161.0	-502.0	-58609.0
23	18	10	44	284	120.0	-146952.0	-507.0	-59283.0
23	18	10	44	285	121.0	-147086.0	-513.0	-60155.0
23	18	10	44	285	122.0	-148076.0	-512.0	-60272.0
23	18	10	44	286	123.0	-149637.0	-517.0	-59013.0
23	18	10	44	286	124.0	-151655.0	-525.0	-58086.0
23	18	10	44	287	125.0	-152846.0	-511.0	-57380.0
23	18	10	44	288	126.0	-153509.0	-518.0	-56642.0
23	18	10	44	288	127.0	-153929.0	-521.0	-55892.0
23	18	10	44	289	128.0	-154542.0	-518.0	-54402.0
23	18	10	44	290	130.0	-156073.0	-524.0	-53964.0
23	18	10	44	290	131.0	-156057.0	-517.0	-54036.0
23	18	10	44	291	132.0	-155834.0	-511.0	-53989.0
23	18	10	44	291	133.0	-155937.0	-499.0	-54596.0
23	18	10	44	292	134.0	-157029.0	-496.0	-54913.0
23	18	10	44	292	135.0	-158597.0	-483.0	-54761.0
23	18	10	44	322	136.0	-161566.0	-481.0	-54774.0
23	18	10	44	323	137.0	-164812.0	-477.0	-55655.0
23	18	10	44	323	138.0	-168703.0	-470.0	-55768.0
23	18	10	44	324	139.0	-173197.0	-476.0	-56291.0
23	18	10	44	324	140.0	-177323.0	-475.0	-57126.0
23	18	10	44	325	141.0	-181109.0	-467.0	-57577.0
23	18	10	44	326	142.0	-184626.0	-487.0	-58485.0
23	18	10	44	326	143.0	-187269.0	-482.0	-59898.0
23	18	10	44	327	144.0	-188859.0	-481.0	-59797.0
23	18	10	44	334	145.0	-189762.0	-494.0	-59302.0
23	18	10	44	335	146.0	-190984.0	-470.0	-58782.0
23	18	10	44	335	147.0	-192761.0	-484.0	-58316.0
23	18	10	44	336	148.0	-194989.0	-484.0	-57740.0
23	18	10	44	336	149.0	-197041.0	-476.0	-57490.0
23	18	10	44	337	150.0	-198716.0	-468.0	-57566.0
23	18	10	44	337	152.0	-201373.0	-442.0	-57676.0
23	18	10	44	338	153.0	-201726.0	-461.0	-58067.0
23	18	10	44	338	154.0	-201652.0	-454.0	-58378.0
23	18	10	44	339	155.0	-201518.0	-434.0	-58186.0
23	18	10	44	340	156.0	-201696.0	-436.0	-58115.0
23	18	10	44	340	157.0	-201420.0	-434.0	-58641.0
23	18	10	44	341	158.0	-200701.0	-427.0	-58725.0
23	18	10	44	367	159.0	-199585.0	-406.0	-59031.0
23	18	10	44	367	160.0	-197971.0	-386.0	-58767.0
23	18	10	44	368	161.0	-195931.0	-413.0	-57514.0
23	18	10	44	369	162.0	-193530.0	-396.0	-56657.0
23	18	10	44	369	163.0	-191411.0	-385.0	-56658.0
23	18	10	44	370	164.0	-189184.0	-381.0	-56477.0
23	18	10	44	370	165.0	-186837.0	-372.0	-55724.0
23	18	10	44	371	166.0	-184913.0	-359.0	-55082.0
23	18	10	44	371	167.0	-183352.0	-367.0	-54811.0
23	18	10	44	372	168.0	-182273.0	-371.0	-54553.0
23	18	10	44	373	169.0	-182791.0	-355.0	-55142.0
23	18	10	44	373	170.0	-183756.0	-361.0	-55776.0
23	18	10	44	374	171.0	-185013.0	-349.0	-56111.0
23	18	10	44	374	172.0	-187022.0	-333.0	-55839.0
23	18	10	44	375	173.0	-189075.0	-328.0	-55921.0
23	18	10	44	375	175.0	-181449.0	-337.0	-56604.0
23	18	10	44	383	176.0	-185906.0	-343.0	-57024.0
23	18	10	44	383	177.0	-189939.0	-318.0	-58535.0
23	18	10	44	384	178.0	-198092.0	-324.0	-59227.0
23	18	10	44	384	179.0	-219708.0	-302.0	-59427.0
23	18	10	44	385	180.0	-239946.0	-310.0	-60300.0
23	18	10	44	412	181.0	-253739.0	-311.0	-60396.0
23	18	10	44	433	182.0	-262531.0	-294.0	-60145.0
23	18	10	44	434	183.0	-259757.0	-286.0	-60452.0
23	18	10	44	434	184.0	-249872.0	-282.0	-60979.0
23	18	10	44	435	185.0	-234773.0	-281.0	-60419.0
23	18	10	44	435	186.0	-215889.0	-279.0	-60376.0
23	18	10	44	457	187.0	-195206.0	-287.0	-60510.0
23	18	10	44	458	188.0	-174044.0	-306.0	-60741.0
23	18	10	44	458	189.0	-155971.0	-314.0	-61229.0
23	18	10	44	459	190.0	-144602.0	-317.0	-61248.0
23	18	10	44	459	191.0	-139794.0	-326.0	-61734.0
23	18	10	44	460	192.0	-139768.0	-337.0	-62112.0
23	18	10	44	461	193.0	-143285.0	-338.0	-62141.0
23	18	10	44	461	194.0	-148577.0	-346.0	-61826.0
23	18	10	44	462	195.0	-153530.0	-341.0	-61529.0
23	18	10	44	462	197.0	-162744.0	-374.0	-60506.0
23	18	10	44	463	198.0	-168193.0	-390.0	-60201.0
23	18	10	44	463	199.0	-173657.0	-387.0	-59776.0
23	18	10	44	464	200.0	-178116.0	-395.0	-58676.0
23	18	10	44	480	201.0	-182491.0	-409.0	-56579.0
23	18	10	44	480	202.0	-186229.0	-419.0	-53807.0
23	18	10	44	481	203.0	-188943.0	-417.0	-51745.0
23	18	10	44	482	220.0	-192149.0	-500.0	-45739.0
23	18	10	44	482	221.0	-194997.0	-486.0	-46061.0
23	18	10	44	483	222.0	-197753.0	-479.0	-46721.0
23	18	10	44	483	223.0	-200067.0	-487.0	-46847.0
23	18	10	44	484	224.0	-202009.0	-477.0	-46711.0
23	18	10	44	484	225.0	-203361.0	-472.0	-46752.0
23	18	10	44	505	226.0	-204747.0	-453.0	-46529.0
23	18	10	44	506	227.0	-205852.0	-456.0	-46837.0
23	18	10	44	507	228.0	-207261.0	-464.0	-47445.0
23	18	10	44	507	229.0	-208918.0	-474.0	-48019.0
23	18	10	44	508	230.0	-210659.0	-491.0	-47760.0
23	18	10	44	508	231.0	-212554.0	-480.0	-48201.0
23	18	10	44	509	232.0	-214671.0	-479.0	-48446.0
23	18	10	44	509	233.0	-216724.0	-481.0	-48792.0
23	18	10	44	510	234.0	-219246.0	-496.0	-49031.0
23	18	10	44	510	235.0	-222099.0	-522.0	-48926.0
23	18	10	44	511	236.0	-225147.0	-514.0	-47905.0
23	18	10	44	512	237.0	-227694.0	-517.0	-47341.0
23	18	10	44	512	238.0	-230455.0	-537.0	-47346.0
23	18	10	44	513	239.0	-233359.0	-552.0	-47268.0
23	18	10	44	513	240.0	-236513.0	-563.0	-48314.0
23	18	10	44	514	242.0	-243099.0	-571.0	-48631.0
23	18	10	44	514	243.0	-245987.0	-564.0	-49074.0
23	18	10	44	515	244.0	-248501.0	-557.0	-49739.0
23	18	10	44	515	245.0	-251001.0	-546.0	-49123.0
23	18	10	44	516	246.0	-253184.0	-541.0	-49274.0
23	18	10	44	517	247.0	-254800.0	-539.0	-49763.0
23	18	10	44	546	248.0	-256192.0	-531.0	-50182.0
23	18	10	44	547	249.0	-257523.0	-539.0	-50521.0
23	18	10	44	548	250.0	-258788.0	-553.0	-51101.0
23	18	10	44	549	251.0	-260178.0	-559.0	-51546.0
23	18	10	44	549	252.0	-260926.0	-562.0	-51492.0
23	18	10	44	550	253.0	-260638.0	-549.0	-51869.0
23	18	10	44	550	254.0	-259891.0	-567.0	-52384.0
23	18	10	44	551	255.0	-259069.0	-593.0	-52087.0
23	18	10	44	552	0.0	-257625.0	-601.0	-52602.0
23	18	10	44	552	1.0	-255266.0	-585.0	-52521.0
23	18	10	44	553	2.0	-251851.0	-599.0	-51732.0
23	18	10	44	553	3.0	-248426.0	-617.0	-51329.0
23	18	10	44	554	4.0	-244612.0	-624.0	-50740.0
23	18	10	44	554	5.0	-241107.0	-642.0	-50147.0
23	18	10	44	555	6.0	-237562.0	-651.0	-49833.0
23	18	10	44	556	8.0	-230550.0	-662.0	-49029.0
23	18	10	44	556	9.0	-226873.0	-684.0	-48815.0
23	18	10	44	557	10.0	-223656.0	-682.0	-48631.0
23	18	10	44	557	11.0	-220789.0	-677.0	-49224.0
23	18	10	44	558	12.0	-218607.0	-678.0	-50077.0
23	18	10	44	558	13.0	-217254.0	-686.0	-50288.0
23	18	10	44	566	14.0	-216509.0	-662.0	-50604.0
23	18	10	44	592	15.0	-215784.0	-674.0	-51577.0
23	18	10	44	593	16.0	-215363.0	-688.0	-52216.0
23	18	10	44	594	17.0	-214946.0	-689.0	-52127.0
23	18	10	44	594	18.0	-214104.0	-697.0	-52467.0
23	18	10	44	595	19.0	-212304.0	-714.0	-52440.0
23	18	10	44	595	20.0	-210111.0	-720.0	-52356.0
23	18	10	44	596	21.0	-207492.0	-736.0	-52791.0
23	18	10	44	597	22.0	-204425.0	-742.0	-52746.0
23	18	10	44	597	23.0	-201861.0	-729.0	-52414.0
23	18	10	44	598	24.0	-199757.0	-756.0	-53003.0
23	18	10	44	598	25.0	-199054.0	-764.0	-53986.0
23	18	10	44	599	26.0	-198796.0	-747.0	-53774.0
23	18	10	44	599	27.0	-199390.0	-748.0	-53794.0
23	18	10	44	600	28.0	-199787.0	-736.0	-54120.0
23	18	10	44	601	29.0	-200141.0	-725.0	-53864.0
23	18	10	44	601	31.0	-201565.0	-724.0	-53746.0
23	18	10	44	602	32.0	-202642.0	-755.0	-53811.0
23	18	10	44	602	33.0	-203474.0	-743.0	-54221.0
23	18	10	44	603	34.0	-203958.0	-726.0	-54895.0
23	18	10	44	604	35.0	-203428.0	-717.0	-55617.0
23	18	10	44	604	36.0	-202656.0	-715.0	-55531.0
23	18	10	44	605	37.0	-201264.0	-688.0	-55712.0
23	18	10	44	638	38.0	-199180.0	-662.0	-56136.0
23	18	10	44	638	39.0	-196974.0	-682.0	-56314.0
23	18	10	44	639	40.0	-194630.0	-695.0	-56642.0
23	18	10	44	640	41.0	-192463.0	-677.0	-56984.0
23	18	10	44	640	42.0	-190274.0	-667.0	-57187.0
23	18	10	44	641	43.0	-188564.0	-668.0	-57562.0
23	18	10	44	641	44.0	-187319.0	-657.0	-58200.0
23	18	10	44	642	45.0	-186199.0	-636.0	-57834.0
23	18	10	44	643	46.0	-185332.0	-636.0	-57932.0
23	18	10	44	643	47.0	-184306.0	-646.0	-57631.0
23	18	10	44	644	48.0	-184061.0	-635.0	-56657.0
23	18	10	44	644	49.0	-184249.0	-612.0	-55287.0
23	18	10	44	645	50.0	-185285.0	-609.0	-53634.0
23	18	10	44	645	51.0	-186754.0	-616.0	-52639.0
23	18	10	44	646	52.0	-188704.0	-613.0	-51839.0
23	18	10	44	683	53.0	-191321.0	-610.0	-51843.0
23	18	10	44	683	54.0	-194006.0	-596.0	-52188.0
23	18	10	44	684	55.0	-196456.0	-569.0	-52606.0
23	18	10	44	684	56.0	-198424.0	-567.0	-53054.0
23	18	10	44	685	57.0	-199884.0	-542.0	-53660.0
23	18	10	44	686	58.0	-200300.0	-538.0	-53806.0
23	18	10	44	686	59.0	-200381.0	-501.0	-54143.0
23	18	10	44	687	60.0	-200461.0	-499.0	-54482.0
23	18	10	44	687	61.0	-200756.0	-499.0	-54313.0
23	18	10	44	688	62.0	-200755.0	-476.0	-54724.0
23	18	10	44	689	63.0	-200547.0	-479.0	-55756.0
23	18	10	44	689	64.0	-200840.0	-473.0	-56182.0
23	18	10	44	690	65.0	-201751.0	-459.0	-56069.0
23	18	10	44	690	66.0	-203071.0	-448.0	-55716.0
23	18	10	44	691	67.0	-204292.0	-453.0	-55459.0
23	18	10	44	691	68.0	-205439.0	-442.0	-55071.0
23	18	10	44	692	76.0	-214584.0	-468.0	-56972.0
23	18	10	44	693	77.0	-213691.0	-449.0	-57294.0
23	18	10	44	693	78.0	-212862.0	-447.0	-57041.0
23	18	10	44	694	79.0	-211210.0	-437.0	-56756.0
23	18	10	44	694	80.0	-209378.0	-407.0	-56377.0
23	18	10	44	695	81.0	-207187.0	-407.0	-56738.0
23	18	10	44	727	82.0	-204760.0	-407.0	-56996.0
23	18	10	44	727	83.0	-202329.0	-393.0	-56474.0
23	18	10	44	728	84.0	-199842.0	-382.0	-57282.0
23	18	10	44	729	85.0	-197449.0	-389.0	-57800.0
23	18	10	44	729	86.0	-195053.0	-383.0	-58107.0
23	18	10	44	730	87.0	-192824.0	-381.0	-58432.0
23	18	10	44	731	88.0	-191004.0	-388.0	-58452.0
23	18	10	44	731	89.0	-189829.0	-394.0	-57240.0
23	18	10	44	732	90.0	-188959.0	-396.0	-55913.0
23	18	10	44	732	91.0	-188091.0	-389.0	-55208.0
23	18	10	44	733	92.0	-187116.0	-391.0	-55857.0
23	18	10	44	733	93.0	-185675.0	-385.0	-56431.0
23	18	10	44	734	94.0	-184272.0	-390.0	-57024.0
23	18	10	44	735	95.0	-182508.0	-383.0	-57104.0
23	18	10	44	735	96.0	-180767.0	-350.0	-56654.0
23	18	10	44	736	98.0	-177204.0	-359.0	-56257.0
23	18	10	44	737	99.0	-176157.0	-337.0	-56378.0
23	18	10	44	737	100.0	-175662.0	-340.0	-56433.0
23	18	10	44	738	101.0	-174917.0	-324.0	-57027.0
23	18	10	44	738	102.0	-174133.0	-299.0	-57203.0
23	18	10	44	739	103.0	-173460.0	-294.0	-57064.0
23	18	10	44	740	104.0	-173223.0	-275.0	-57112.0
23	18	10	44	773	105.0	-173434.0	-295.0	-56806.0
23	18	10	44	774	106.0	-174333.0	-276.0	-56749.0
23	18	10	44	774	107.0	-174927.0	-269.0	-56589.0
23	18	10	44	775	108.0	-176277.0	-290.0	-56621.0
23	18	10	44	776	109.0	-177631.0	-294.0	-56766.0
23	18	10	44	776	110.0	-179646.0	-285.0	-57481.0
23	18	10	44	777	111.0	-181181.0	-281.0	-57877.0
23	18	10	44	777	112.0	-183338.0	-289.0	-57672.0
23	18	10	44	778	113.0	-185283.0	-287.0	-58025.0
23	18	10	44	779	114.0	-187877.0	-296.0	-58548.0
23	18	10	44	779	115.0	-190479.0	-296.0	-58596.0
23	18	10	44	780	116.0	-193078.0	-304.0	-58784.0
23	18	10	44	780	117.0	-195823.0	-313.0	-58196.0
23	18	10	44	781	118.0	-198736.0	-329.0	-58264.0
23	18	10	44	782	119.0	-201612.0	-320.0	-57927.0
23	18	10	44	782	121.0	-205819.0	-321.0	-56963.0
23	18	10	44	783	122.0	-207156.0	-311.0	-56792.0
23	18	10	44	783	123.0	-208484.0	-296.0	-56627.0
23	18	10	44	784	124.0	-209520.0	-291.0	-57556.0
23	18	10	44	784	125.0	-210362.0	-293.0	-57826.0
23	18	10	44	785	126.0	-211479.0	-272.0	-57381.0
23	18	10	44	818	127.0	-212243.0	-249.0	-57347.0
23	18	10	44	818	128.0	-212969.0	-239.0	-57049.0
23	18	10	44	819	129.0	-213544.0	-244.0	-56421.0
23	18	10	44	820	130.0	-213851.0	-265.0	-55856.0
23	18	10	44	820	131.0	-214357.0	-277.0	-56131.0
23	18	10	44	821	132.0	-214324.0	-289.0	-56714.0
23	18	10	44	822	133.0	-214140.0	-297.0	-56887.0
23	18	10	44	822	134.0	-213629.0	-297.0	-57375.0
23	18	10	44	823	135.0	-213457.0	-278.0	-57537.0
23	18	10	44	823	136.0	-212420.0	-282.0	-57545.0
23	18	10	44	824	137.0	-211235.0	-287.0	-57169.0
23	18	10	44	825	138.0	-210472.0	-287.0	-56287.0
23	18	10	44	825	139.0	-210414.0	-287.0	-55411.0
23	18	10	44	826	140.0	-210500.0	-269.0	-54946.0
23	18	10	44	826	141.0	-210464.0	-267.0	-55321.0
23	18	10	44	827	143.0	-210336.0	-276.0	-55389.0
23	18	10	44	828	144.0	-210332.0	-271.0	-55943.0
23	18	10	44	828	145.0	-210045.0	-261.0	-56341.0
23	18	10	44	829	146.0	-209775.0	-258.0	-55846.0
23	18	10	44	829	147.0	-209293.0	-233.0	-56218.0
23	18	10	44	830	148.0	-208757.0	-218.0	-56512.0
23	18	10	44	830	149.0	-208683.0	-222.0	-56434.0
23	18	10	44	862	150.0	-209015.0	-219.0	-56278.0
23	18	10	44	863	151.0	-209156.0	-185.0	-56357.0
23	18	10	44	863	152.0	-208703.0	-182.0	-56645.0
23	18	10	44	908	153.0	-207740.0	-183.0	-56806.0
23	18	10	44	908	154.0	-206382.0	-186.0	-56970.0
23	18	10	44	909	155.0	-204628.0	-191.0	-57162.0
23	18	10	44	910	156.0	-202469.0	-178.0	-56757.0
23	18	10	44	911	157.0	-199814.0	-176.0	-56456.0
23	18	10	44	911	158.0	-197328.0	-182.0	-55731.0
23	18	10	44	912	159.0	-195722.0	-190.0	-55162.0
23	18	10	44	913	160.0	-195022.0	-187.0	-54769.0
23	18	10	44	913	161.0	-194748.0	-177.0	-54779.0
23	18	10	44	914	162.0	-194850.0	-177.0	-55062.0
23	18	10	44	914	163.0	-195079.0	-197.0	-54994.0
23	18	10	44	915	164.0	-195801.0	-182.0	-55469.0
23	18	10	44	915	166.0	-197711.0	-190.0	-55372.0
23	18	10	44	916	167.0	-198768.0	-198.0	-55025.0
23	18	10	44	917	168.0	-199941.0	-182.0	-55464.0
23	18	10	44	917	169.0	-201139.0	-164.0	-55572.0
23	18	10	44	918	188.0	-200386.0	-94.0	-51182.0
23	18	10	44	918	189.0	-198537.0	-91.0	-51402.0
23	18	10	44	919	190.0	-196181.0	-69.0	-52174.0
23	18	10	44	920	191.0	-194209.0	-45.0	-52301.0
23	18	10	44	920	192.0	-192356.0	-36.0	-52892.0
23	18	10	44	921	193.0	-190749.0	-33.0	-53245.0
23	18	10	44	921	194.0	-189734.0	-13.0	-53256.0
23	18	10	44	951	195.0	-189384.0	-4.0	-53237.0
23	18	10	44	952	196.0	-189500.0	1.0	-53365.0
23	18	10	44	953	197.0	-189771.0	-7.0	-52527.0
23	18	10	44	953	198.0	-190747.0	-14.0	-52907.0
23	18	10	44	954	199.0	-192002.0	-8.0	-52995.0
23	18	10	44	955	200.0	-193706.0	-6.0	-52572.0
23	18	10	44	955	201.0	-195947.0	-2.0	-52302.0
23	18	10	44	956	202.0	-198171.0	3.0	-51825.0
23	18	10	44	956	203.0	-201064.0	-4.0	-50957.0
23	18	10	44	957	204.0	-204030.0	5.0	-50850.0
23	18	10	44	958	205.0	-206757.0	6.0	-50944.0
23	18	10	44	958	206.0	-209299.0	14.0	-50987.0
23	18	10	44	959	207.0	-211193.0	7.0	-50906.0
23	18	10	44	959	208.0	-212709.0	9.0	-51151.0
23	18	10	44	960	209.0	-213486.0	9.0	-50820.0
23	18	10	44	961	210.0	-213706.0	-6.0	-50513.0
23	18	10	44	961	211.0	-212950.0	-12.0	-51712.0
23	18	10	44	962	212.0	-211351.0	-14.0	-51721.0
23	18	10	44	962	213.0	-209108.0	2.0	-51202.0
23	18	10	44	963	214.0	-206636.0	10.0	-50102.0
23	18	10	44	964	215.0	-204858.0	13.0	-49194.0
23	18	10	44	964	216.0	-203515.0	1.0	-48831.0
23	18	10	44	998	217.0	-202707.0	15.0	-48622.0
23	18	10	44	998	218.0	-202853.0	33.0	-48257.0
23	18	10	44	999	219.0	-203800.0	46.0	-47849.0
23	18	10	45	0	220.0	-205326.0	47.0	-47286.0
23	18	10	45	0	221.0	-206881.0	54.0	-47021.0
23	18	10	45	1	222.0	-208874.0	74.0	-47507.0
23	18	10	45	1	223.0	-211095.0	62.0	-48394.0
23	18	10	45	2	224.0	-213282.0	66.0	-51507.0
23	18	10	45	3	225.0	-216049.0	86.0	-56557.0
23	18	10	45	3	226.0	-219796.0	90.0	-61657.0
23	18	10	45	4	227.0	-224939.0	88.0	-67083.0
23	18	10	45	4	228.0	-231151.0	93.0	-71555.0
23	18	10	45	5	229.0	-238969.0	97.0	-75937.0
23	18	10	45	6	230.0	-247177.0	89.0	-79597.0
23	18	10	45	6	231.0	-254887.0	109.0	-85311.0
23	18	10	45	7	233.0	-265798.0	122.0	-96736.0
23	18	10	45	7	234.0	-266387.0	128.0	-99276.0
23	18	10	45	8	235.0	-262111.0	144.0	-95757.0
23	18	10	45	9	236.0	-253034.0	151.0	-90637.0
23	18	10	45	9	237.0	-239708.0	143.0	-84914.0
23	18	10	45	10	238.0	-223980.0	151.0	-77496.0
23	18	10	45	42	239.0	-208896.0	166.0	-68416.0
23	18	10	45	43	240.0	-197059.0	164.0	-61046.0
23	18	10	45	44	241.0	-190096.0	166.0	-56291.0
23	18	10	45	44	242.0	-188408.0	165.0	-54254.0
23	18	10	45	45	243.0	-191772.0	156.0	-53149.0
23	18	10	45	46	244.0	-198889.0	168.0	-52718.0
23	18	10	45	46	245.0	-207593.0	183.0	-53031.0
23	18	10	45	47	246.0	-214127.0	193.0	-52361.0
23	18	10	45	48	247.0	-215101.0	173.0	-51253.0
23	18	10	45	48	248.0	-208672.0	176.0	-51005.0
23	18	10	45	49	249.0	-187773.0	186.0	-50803.0
23	18	10	45	50	250.0	-161929.0	196.0	-50839.0
23	18	10	45	50	251.0	-147834.0	209.0	-51159.0
23	18	10	45	51	252.0	-141420.0	212.0	-51344.0
23	18	10	45	52	253.0	-134024.0	213.0	-51256.0
23	18	10	45	88	255.0	-111157.0	188.0	-50800.0
23	18	10	45	88	0.0	-113169.0	191.0	-50675.0
23	18	10	45	89	1.0	-142104.0	203.0	-50349.0
23	18	10	45	90	2.0	-191866.0	196.0	-49116.0
23	18	10	45	91	3.0	-250169.0	204.0	-48411.0
23	18	10	45	91	4.0	-304678.0	195.0	-48576.0
23	18	10	45	92	5.0	-351407.0	195.0	-49199.0
23	18	10	45	92	6.0	-385843.0	203.0	-50139.0
23	18	10	45	93	7.0	-404989.0	220.0	-50509.0
23	18	10	45	94	8.0	-411148.0	207.0	-50799.0
23	18	10	45	94	9.0	-403532.0	220.0	-51541.0
23	18	10	45	95	10.0	-377926.0	225.0	-51431.0
23	18	10	45	95	11.0	-334930.0	224.0	-50854.0
23	18	10	45	96	12.0	-291007.0	245.0	-50800.0
23	18	10	45	97	13.0	-257062.0	255.0	-50752.0
23	18	10	45	98	14.0	-230626.0	253.0	-50721.0
23	18	10	45	98	22.0	-232568.0	238.0	-52578.0
23	18	10	45	99	23.0	-236261.0	227.0	-52161.0
23	18	10	45	100	24.0	-236154.0	232.0	-52102.0
23	18	10	45	100	25.0	-228764.0	250.0	-51929.0
23	18	10	45	101	26.0	-216368.0	263.0	-51514.0
23	18	10	45	101	27.0	-201899.0	285.0	-51272.0
23	18	10	45	102	28.0	-182809.0	296.0	-50963.0
23	18	10	45	133	29.0	-157680.0	286.0	-50961.0
23	18	10	45	133	30.0	-131927.0	284.0	-50542.0
23	18	10	45	134	31.0	-109301.0	289.0	-50433.0
23	18	10	45	135	32.0	-91441.0	285.0	-50392.0
23	18	10	45	136	33.0	-79572.0	287.0	-50527.0
23	18	10	45	136	34.0	-74226.0	275.0	-50701.0
23	18	10	45	137	35.0	-74607.0	264.0	-50876.0
23	18	10	45	138	36.0	-77846.0	281.0	-50806.0
23	18	10	45	138	37.0	-83123.0	274.0	-50761.0
23	18	10	45	139	38.0	-91834.0	284.0	-51299.0
23	18	10	45	140	39.0	-103461.0	286.0	-51803.0
23	18	10	45	140	40.0	-115286.0	286.0	-51764.0
23	18	10	45	141	41.0	-125301.0	304.0	-51502.0
23	18	10	45	141	42.0	-133325.0	331.0	-52057.0
23	18	10	45	142	43.0	-139424.0	353.0	-52627.0
23	18	10	45	143	44.0	-143271.0	374.0	-52864.0
23	18	10	45	143	45.0	-144633.0	388.0	-52472.0
23	18	10	45	144	46.0	-143456.0	396.0	-52480.0
23	18	10	45	145	47.0	-140908.0	401.0	-53087.0
23	18	10	45	145	48.0	-137667.0	413.0	-53056.0
23	18	10	45	146	49.0	-134413.0	412.0	-52615.0
23	18	10	45	146	50.0	-132199.0	419.0	-52033.0
23	18	10	45	177	51.0	-130206.0	428.0	-51672.0
23	18	10	45	178	52.0	-128276.0	441.0	-51494.0
23	18	10	45	179	53.0	-127014.0	440.0	-51210.0
23	18	10	45	179	54.0	-127144.0	423.0	-51071.0
23	18	10	45	180	55.0	-128527.0	409.0	-51519.0
23	18	10	45	181	56.0	-130755.0	413.0	-52505.0
23	18	10	45	181	57.0	-133708.0	413.0	-52655.0
23	18	10	45	182	58.0	-137226.0	403.0	-53437.0
23	18	10	45	183	59.0	-141169.0	398.0	-54333.0
23	18	10	45	183	60.0	-145426.0	373.0	-54554.0
23	18	10	45	184	61.0	-150283.0	378.0	-54349.0
23	18	10	45	184	62.0	-154881.0	364.0	-54833.0
23	18	10	45	185	63.0	-158850.0	351.0	-54657.0
23	18	10	45	186	64.0	-160936.0	354.0	-55161.0
23	18	10	45	186	65.0	-161451.0	358.0	-56337.0
23	18	10	45	187	67.0	-161277.0	387.0	-57439.0
23	18	10	45	188	68.0	-160409.0	384.0	-57354.0
23	18	10	45	188	69.0	-159381.0	392.0	-56777.0
23	18	10	45	189	70.0	-157635.0	403.0	-55911.0
23	18	10	45	189	71.0	-155912.0	417.0	-55292.0
23	18	10	45	190	72.0	-154561.0	426.0	-54699.0
23	18	10	45	222	73.0	-153744.0	435.0	-54947.0
23	18	10	45	223	74.0	-153119.0	424.0	-55175.0
23	18	10	45	224	75.0	-152833.0	426.0	-54771.0
23	18	10	45	225	76.0	-153386.0	427.0	-55071.0
23	18	10	45	226	77.0	-154599.0	414.0	-55281.0
23	18	10	45	226	78.0	-155887.0	406.0	-54764.0
23	18	10	45	227	79.0	-156409.0	400.0	-55061.0
23	18	10	45	228	80.0	-156171.0	393.0	-55636.0
23	18	10	45	228	81.0	-155496.0	408.0	-55627.0
23	18	10	45	229	82.0	-154720.0	398.0	-55710.0
23	18	10	45	229	83.0	-153987.0	381.0	-55564.0
23	18	10	45	230	84.0	-153893.0	363.0	-55092.0
23	18	10	45	231	85.0	-154184.0	369.0	-55079.0
23	18	10	45	231	86.0	-154667.0	369.0	-55652.0
23	18	10	45	232	87.0	-155347.0	378.0	-55178.0
23	18	10	45	233	89.0	-157386.0	353.0	-54568.0
23	18	10	45	233	90.0	-158284.0	325.0	-54309.0
23	18	10	45	234	91.0	-159305.0	357.0	-54102.0
23	18	10	45	234	92.0	-160526.0	359.0	-54134.0
23	18	10	45	235	93.0	-161144.0	357.0	-53970.0
23	18	10	45	236	94.0	-161737.0	383.0	-53783.0
23	18	10	45	267	95.0	-162411.0	392.0	-53482.0
23	18	10	45	268	96.0	-163722.0	381.0	-53008.0
23	18	10	45	269	97.0	-165549.0	378.0	-53237.0
23	18	10	45	270	98.0	-167618.0	384.0	-53849.0
23	18	10	45	270	99.0	-169516.0	377.0	-54255.0
23	18	10	45	271	100.0	-171501.0	379.0	-54126.0
23	18	10	45	272	101.0	-173336.0	388.0	-53836.0
23	18	10	45	273	102.0	-175022.0	392.0	-53640.0
23	18	10	45	273	103.0	-176302.0	388.0	-53714.0
23	18	10	45	274	104.0	-176681.0	406.0	-54081.0
23	18	10	45	275	105.0	-175955.0	396.0	-53869.0
23	18	10	45	275	106.0	-174924.0	390.0	-53817.0
23	18	10	45	276	107.0	-174216.0	393.0	-54175.0
23	18	10	45	276	108.0	-174131.0	419.0	-54007.0
23	18	10	45	277	109.0	-174609.0	418.0	-53912.0
23	18	10	45	278	110.0	-175546.0	414.0	-54076.0
23	18	10	45	278	112.0	-178322.0	408.0	-53034.0
23	18	10	45	279	113.0	-179656.0	408.0	-53335.0
23	18	10	45	280	114.0	-181359.0	433.0	-53190.0
23	18	10	45	280	115.0	-182971.0	439.0	-53679.0
23	18	10	45	281	116.0	-184654.0	451.0	-54566.0
23	18	10	45	281	117.0	-185955.0	448.0	-54681.0
23	18	10	45	282	118.0	-186912.0	471.0	-54742.0
23	18	10	45	312	119.0	-187216.0	477.0	-54542.0
23	18	10	45	313	120.0	-186821.0	500.0	-53598.0
23	18	10	45	314	121.0	-186732.0	513.0	-52833.0
23	18	10	45	314	122.0	-186581.0	511.0	-52737.0
23	18	10	45	315	123.0	-186247.0	523.0	-53052.0
23	18	10	45	315	124.0	-185521.0	516.0	-53259.0
23	18	10	45	316	125.0	-184818.0	534.0	-53223.0
23	18	10	45	316	126.0	-183845.0	551.0	-53616.0
23	18	10	45	317	127.0	-182712.0	565.0	-53963.0
23	18	10	45	317	128.0	-181084.0	569.0	-52860.0
23	18	10	45	318	129.0	-179374.0	571.0	-51893.0
23	18	10	45	318	130.0	-177667.0	588.0	-51172.0
23	18	10	45	319	131.0	-176155.0	599.0	-50215.0
23	18	10	45	320	132.0	-174927.0	596.0	-50095.0
23	18	10	45	320	133.0	-174279.0	589.0	-49978.0
23	18	10	45	321	134.0	-174402.0	598.0	-50049.0
23	18	10	45	321	135.0	-174811.0	591.0	-50373.0
23	18	10	45	322	136.0	-175272.0	604.0	-49349.0
23	18	10	45	322	137.0	-175859.0	606.0	-48869.0
23	18	10	45	323	138.0	-176219.0	601.0	-49797.0
23	18	10	45	323	139.0	-176286.0	603.0	-50645.0
23	18	10	45	357	140.0	-176137.0	605.0	-51237.0
23	18	10	45	357	141.0	-175965.0	594.0	-51631.0
23	18	10	45	358	142.0	-175424.0	611.0	-51741.0
23	18	10	45	359	143.0	-174624.0	601.0	-52285.0
23	18	10	45	359	144.0	-173477.0	627.0	-53057.0
23	18	10	45	360	145.0	-171988.0	621.0	-53051.0
23	18	10	45	360	146.0	-170071.0	608.0	-53651.0
23	18	10	45	361	147.0	-167661.0	603.0	-54029.0
23	18	10	45	361	148.0	-164982.0	586.0	-53967.0
23	18	10	45	362	149.0	-161941.0	591.0	-54596.0
23	18	10	45	363	150.0	-159152.0	604.0	-55087.0
23	18	10	45	364	151.0	-156788.0	619.0	-55182.0
23	18	10	45	365	152.0	-154770.0	625.0	-55446.0
23	18	10	45	366	153.0	-153019.0	631.0	-56437.0
23	18	10	45	366	154.0	-151777.0	629.0	-56507.0
23	18	10	45	367	156.0	-149521.0	638.0	-57727.0
23	18	10	45	367	157.0	-148249.0	627.0	-58002.0
23	18	10	45	368	158.0	-145941.0	632.0	-58274.0
23	18	10	45	368	159.0	-138767.0	634.0	-58709.0
23	18	10	45	369	160.0	-134614.0	636.0	-58731.0
23	18	10	45	370	161.0	-129065.0	651.0	-58667.0
23	18	10	45	370	162.0	-125767.0	676.0	-57254.0
23	18	10	45	402	163.0	-136101.0	668.0	-56482.0
23	18	10	45	403	164.0	-158021.0	659.0	-55975.0
23	18	10	45	404	165.0	-181053.0	674.0	-56073.0
23	18	10	45	448	166.0	-198360.0	679.0	-55861.0
23	18	10	45	449	167.0	-205924.0	675.0	-55989.0
23	18	10	45	449	168.0	-208904.0	664.0	-55726.0
23	18	10	45	450	169.0	-205962.0	662.0	-55699.0
23	18	10	45	451	170.0	-197690.0	668.0	-55131.0
23	18	10	45	451	171.0	-186245.0	660.0	-55289.0
23	18	10	45	452	172.0	-171657.0	654.0	-55512.0
23	18	10	45	452	173.0	-155627.0	641.0	-56544.0
23	18	10	45	453	174.0	-142931.0	629.0	-57296.0
23	18	10	45	454	175.0	-137094.0	630.0	-57737.0
23	18	10	45	454	176.0	-137020.0	628.0	-58854.0
23	18	10	45	455	177.0	-139917.0	623.0	-59806.0
23	18	10	45	455	179.0	-149292.0	624.0	-59867.0
23	18	10	45	456	180.0	-155696.0	626.0	-59943.0
23	18	10	45	456	181.0	-162302.0	641.0	-57466.0
23	18	10	45	457	182.0	-167507.0	639.0	-56076.0
23	18	10	45	458	202.0	-166836.0	656.0	-62241.0
23	18	10	45	458	203.0	-168386.0	657.0	-62369.0
23	18	10	45	459	204.0	-170404.0	659.0	-62492.0
23	18	10	45	459	205.0	-173557.0	669.0	-62174.0
23	18	10	45	460	206.0	-177666.0	653.0	-61615.0
23	18	10	45	460	207.0	-182624.0	654.0	-61581.0
23	18	10	45	492	208.0	-187876.0	648.0	-61484.0
23	18	10	45	493	209.0	-192879.0	644.0	-61459.0
23	18	10	45	493	210.0	-197774.0	654.0	-61547.0
23	18	10	45	494	211.0	-202529.0	664.0	-60174.0
23	18	10	45	494	212.0	-207374.0	635.0	-59594.0
23	18	10	45	495	213.0	-212447.0	609.0	-59911.0
23	18	10	45	496	214.0	-216922.0	613.0	-60635.0
23	18	10	45	496	215.0	-220498.0	601.0	-60816.0
23	18	10	45	497	216.0	-222873.0	589.0	-61287.0
23	18	10	45	498	217.0	-224819.0	581.0	-62459.0
23	18	10	45	499	218.0	-226686.0	576.0	-62539.0
23	18	10	45	499	219.0	-228179.0	547.0	-63211.0
23	18	10	45	500	220.0	-229610.0	536.0	-63434.0
23	18	10	45	500	221.0	-230785.0	536.0	-62997.0
23	18	10	45	501	222.0	-231893.0	526.0	-62466.0
23	18	10	45	501	224.0	-233796.0	508.0	-62426.0
23	18	10	45	502	225.0	-234719.0	484.0	-62367.0
23	18	10	45	502	226.0	-235430.0	481.0	-62261.0
23	18	10	45	503	227.0	-236230.0	492.0	-62947.0
23	18	10	45	504	228.0	-237333.0	487.0	-63290.0
23	18	10	45	504	229.0	-238362.0	494.0	-63286.0
23	18	10	45	538	230.0	-239032.0	499.0	-63374.0
23	18	10	45	539	231.0	-239308.0	477.0	-62754.0
23	18	10	45	539	232.0	-239165.0	468.0	-62236.0
23	18	10	45	540	233.0	-239069.0	457.0	-61907.0
23	18	10	45	540	234.0	-238974.0	451.0	-62004.0
23	18	10	45	541	235.0	-238969.0	441.0	-62544.0
23	18	10	45	542	236.0	-238696.0	412.0	-63089.0
23	18	10	45	542	237.0	-238404.0	388.0	-62526.0
23	18	10	45	543	238.0	-238079.0	371.0	-62051.0
23	18	10	45	543	239.0	-237841.0	378.0	-61837.0
23	18	10	45	544	240.0	-237532.0	359.0	-61658.0
23	18	10	45	545	241.0	-237670.0	349.0	-61972.0
23	18	10	45	545	242.0	-237441.0	334.0	-62453.0
23	18	10	45	546	243.0	-237416.0	309.0	-61397.0
23	18	10	45	546	244.0	-237491.0	304.0	-60508.0
23	18	10	45	547	246.0	-238441.0	275.0	-60101.0
23	18	10	45	547	247.0	-239012.0	251.0	-60292.0
23	18	10	45	548	248.0	-239886.0	234.0	-60196.0
23	18	10	45	549	249.0	-240631.0	228.0	-59794.0
23	18	10	45	549	250.0	-241189.0	224.0	-59887.0
23	18	10	45	550	251.0	-241887.0	214.0	-59564.0
23	18	10	45	550	252.0	-242334.0	216.0	-58967.0
23	18	10	45	582	253.0	-242341.0	214.0	-58976.0
23	18	10	45	583	254.0	-242192.0	219.0	-59499.0
23	18	10	45	584	255.0	-241521.0	214.0	-59709.0
23	18	10	45	584	0.0	-240663.0	196.0	-59524.0
23	18	10	45	585	1.0	-239376.0	179.0	-59443.0
23	18	10	45	586	2.0	-237996.0	178.0	-58502.0
23	18	10	45	586	3.0	-236907.0	174.0	-57569.0
23	18	10	45	587	4.0	-236326.0	138.0	-57420.0
23	18	10	45	587	5.0	-235936.0	138.0	-57131.0
23	18	10	45	588	6.0	-235567.0	136.0	-56546.0
23	18	10	45	588	7.0	-235504.0	118.0	-56384.0
23	18	10	45	589	8.0	-235612.0	124.0	-56301.0
23	18	10	45	590	9.0	-235861.0	111.0	-56319.0
23	18	10	45	590	10.0	-235234.0	110.0	-57065.0
23	18	10	45	591	11.0	-234797.0	106.0	-55971.0
23	18	10	45	591	13.0	-233041.0	92.0	-55150.0
23	18	10	45	592	14.0	-231982.0	87.0	-55145.0
23	18	10	45	592	15.0	-230571.0	98.0	-55812.0
23	18	10	45	593	16.0	-229257.0	86.0	-57096.0
23	18	10	45	594	17.0	-228407.0	103.0	-57787.0
23	18	10	45	594	18.0	-227959.0	121.0	-57813.0
23	18	10	45	674	19.0	-227764.0	116.0	-58126.0
23	18	10	45	674	20.0	-227918.0	118.0	-58011.0
23	18	10	45	717	21.0	-228025.0	104.0	-58195.0
23	18	10	45	718	22.0	-227628.0	100.0	-58446.0
23	18	10	45	741	23.0	-226911.0	108.0	-58288.0
23	18	10	45	741	24.0	-225971.0	104.0	-58632.0
23	18	10	45	742	25.0	-224647.0	84.0	-58452.0
23	18	10	45	742	26.0	-222504.0	88.0	-57432.0
23	18	10	45	743	27.0	-220201.0	89.0	-57124.0
23	18	10	45	743	28.0	-218361.0	71.0	-57357.0
23	18	10	45	744	29.0	-217197.0	69.0	-57002.0
23	18	10	45	744	30.0	-216340.0	58.0	-56617.0
23	18	10	45	745	31.0	-216081.0	68.0	-57052.0
23	18	10	45	746	32.0	-216579.0	64.0	-56877.0
23	18	10	45	746	33.0	-217635.0	50.0	-56787.0
23	18	10	45	747	35.0	-221079.0	6.0	-57231.0
23	18	10	45	747	58.0	-210447.0	-207.0	-51397.0
23	18	10	45	748	80.0	-201119.0	-236.0	-51146.0
23	18	10	45	748	81.0	-201891.0	-229.0	-51502.0
23	18	10	45	749	82.0	-202648.0	-224.0	-51024.0
23	18	10	45	749	83.0	-203787.0	-225.0	-50667.0
23	18	10	45	750	84.0	-205107.0	-207.0	-50471.0
23	18	10	45	750	85.0	-206652.0	-191.0	-50675.0
23	18	10	45	765	86.0	-208083.0	-191.0	-51062.0
23	18	10	45	766	87.0	-209148.0	-179.0	-51476.0
23	18	10	45	766	88.0	-210560.0	-164.0	-51710.0
23	18	10	45	767	89.0	-211722.0	-169.0	-51447.0
23	18	10	45	767	90.0	-212302.0	-151.0	-50249.0
23	18	10	45	768	91.0	-212413.0	-136.0	-49424.0
23	18	10	45	769	92.0	-212237.0	-172.0	-49084.0
23	18	10	45	769	93.0	-212021.0	-187.0	-48402.0
23	18	10	45	770	94.0	-211375.0	-186.0	-48045.0
23	18	10	45	770	95.0	-210006.0	-174.0	-47622.0
23	18	10	45	771	96.0	-208494.0	-189.0	-46920.0
23	18	10	45	772	97.0	-206601.0	-187.0	-46531.0
23	18	10	45	772	98.0	-204464.0	-201.0	-46767.0
23	18	10	45	773	99.0	-202557.0	-186.0	-47150.0
23	18	10	45	773	100.0	-200427.0	-177.0	-47611.0
23	18	10	45	774	102.0	-196691.0	-197.0	-48211.0
23	18	10	45	774	103.0	-194906.0	-207.0	-48384.0
23	18	10	45	775	104.0	-193223.0	-222.0	-48897.0
23	18	10	45	776	105.0	-191816.0	-199.0	-48691.0
23	18	10	45	776	106.0	-190627.0	-186.0	-48091.0
23	18	10	45	777	107.0	-189382.0	-204.0	-48694.0
23	18	10	45	777	108.0	-188378.0	-199.0	-49271.0
23	18	10	45	808	109.0	-187828.0	-187.0	-49086.0
23	18	10	45	809	110.0	-187378.0	-159.0	-48617.0
23	18	10	45	810	111.0	-186841.0	-176.0	-49087.0
23	18	10	45	811	112.0	-186914.0	-197.0	-49277.0
23	18	10	45	811	113.0	-187414.0	-190.0	-49044.0
23	18	10	45	812	114.0	-188411.0	-179.0	-49194.0
23	18	10	45	812	115.0	-189389.0	-177.0	-48601.0
23	18	10	45	813	116.0	-190556.0	-192.0	-48931.0
23	18	10	45	813	117.0	-191672.0	-184.0	-49576.0
23	18	10	45	814	118.0	-192846.0	-180.0	-49809.0
23	18	10	45	815	119.0	-193686.0	-175.0	-50142.0
23	18	10	45	815	120.0	-194376.0	-174.0	-50670.0
23	18	10	45	816	121.0	-195262.0	-187.0	-51432.0
23	18	10	45	816	122.0	-196214.0	-206.0	-51670.0
23	18	10	45	817	123.0	-196906.0	-194.0	-52095.0
23	18	10	45	817	125.0	-197939.0	-197.0	-51577.0
23	18	10	45	818	126.0	-198112.0	-169.0	-52158.0
23	18	10	45	819	127.0	-197902.0	-154.0	-52531.0
23	18	10	45	819	128.0	-197457.0	-161.0	-52553.0
23	18	10	45	820	129.0	-197051.0	-138.0	-52524.0
23	18	10	45	820	130.0	-196604.0	-122.0	-52759.0
23	18	10	45	852	131.0	-196144.0	-120.0	-53214.0
23	18	10	45	852	132.0	-195811.0	-108.0	-52966.0
23	18	10	45	853	133.0	-195342.0	-101.0	-51993.0
23	18	10	45	854	134.0	-194380.0	-101.0	-51436.0
23	18	10	45	854	135.0	-192997.0	-105.0	-51760.0
23	18	10	45	855	136.0	-191618.0	-123.0	-51403.0
23	18	10	45	855	137.0	-190094.0	-134.0	-51913.0
23	18	10	45	856	138.0	-188224.0	-113.0	-52818.0
23	18	10	45	857	139.0	-186047.0	-107.0	-51859.0
23	18	10	45	857	140.0	-184235.0	-112.0	-49477.0
23	18	10	45	858	141.0	-182663.0	-102.0	-48560.0
23	18	10	45	859	142.0	-181189.0	-124.0	-48047.0
23	18	10	45	859	143.0	-180122.0	-128.0	-48819.0
23	18	10	45	860	144.0	-179364.0	-134.0	-49990.0
23	18	10	45	860	145.0	-178679.0	-140.0	-50674.0
23	18	10	45	861	147.0	-177482.0	-128.0	-52457.0
23	18	10	45	862	148.0	-176621.0	-116.0	-53460.0
23	18	10	45	862	149.0	-175592.0	-116.0	-53720.0
23	18	10	45	863	150.0	-175143.0	-104.0	-54132.0
23	18	10	45	863	151.0	-175539.0	-91.0	-54422.0
23	18	10	45	864	152.0	-176579.0	-69.0	-54718.0
23	18	10	45	864	153.0	-177786.0	-59.0	-55026.0
23	18	10	45	896	154.0	-179077.0	-64.0	-54921.0
23	18	10	45	897	155.0	-180689.0	-58.0	-53954.0
23	18	10	45	898	156.0	-182588.0	-51.0	-53956.0
23	18	10	45	898	157.0	-184688.0	-38.0	-54479.0
23	18	10	45	899	158.0	-186656.0	-43.0	-54918.0
23	18	10	45	899	159.0	-188580.0	-67.0	-54305.0
23	18	10	45	900	160.0	-190428.0	-77.0	-53989.0
23	18	10	45	901	161.0	-192478.0	-68.0	-54452.0
23	18	10	45	901	162.0	-194236.0	-89.0	-54408.0
23	18	10	45	902	163.0	-195281.0	-85.0	-54575.0
23	18	10	45	902	164.0	-195722.0	-94.0	-54744.0
23	18	10	45	903	165.0	-196024.0	-99.0	-54214.0
23	18	10	45	904	166.0	-196437.0	-90.0	-53426.0
23	18	10	45	904	167.0	-196626.0	-73.0	-53289.0
23	18	10	45	905	168.0	-196527.0	-79.0	-54250.0
23	18	10	45	905	170.0	-195722.0	-74.0	-55741.0
23	18	10	45	906	171.0	-195784.0	-69.0	-56387.0
23	18	10	45	907	172.0	-196009.0	-52.0	-56709.0
23	18	10	45	907	173.0	-196137.0	-44.0	-56096.0
23	18	10	45	908	174.0	-196249.0	-16.0	-55336.0
23	18	10	45	908	175.0	-196733.0	-8.0	-55758.0
23	18	10	45	942	176.0	-197612.0	-14.0	-55924.0
23	18	10	45	943	177.0	-198676.0	-10.0	-55329.0
23	18	10	45	944	178.0	-199798.0	-16.0	-55267.0
23	18	10	45	944	179.0	-200971.0	-22.0	-55227.0
23	18	10	45	945	180.0	-202260.0	-34.0	-55026.0
23	18	10	45	946	181.0	-203377.0	-12.0	-54992.0
23	18	10	45	947	182.0	-204674.0	-22.0	-54402.0
23	18	10	45	947	183.0	-206003.0	-49.0	-54177.0
23	18	10	45	948	184.0	-207009.0	-36.0	-53630.0
23	18	10	45	948	185.0	-207571.0	-22.0	-53050.0
23	18	10	45	949	186.0	-207931.0	-2.0	-53237.0
23	18	10	45	950	187.0	-208337.0	-29.0	-54316.0
23	18	10	45	951	188.0	-208661.0	-26.0	-54561.0
23	18	10	45	952	189.0	-208676.0	-35.0	-53951.0
23	18	10	45	953	190.0	-208862.0	-37.0	-53822.0
23	18	10	45	953	192.0	-209856.0	-26.0	-54476.0
23	18	10	45	954	193.0	-210064.0	-25.0	-53977.0
23	18	10	45	954	194.0	-209934.0	-19.0	-53763.0
23	18	10	45	955	195.0	-209201.0	-15.0	-53520.0
23	18	10	45	955	196.0	-208075.0	-22.0	-53822.0
23	18	10	45	956	197.0	-206677.0	-25.0	-53582.0
23	18	10	45	957	198.0	-204971.0	4.0	-53382.0
23	18	10	45	988	199.0	-203342.0	-6.0	-53701.0
23	18	10	45	988	200.0	-201771.0	-12.0	-54456.0
23	18	10	45	989	201.0	-200136.0	-27.0	-55149.0
23	18	10	45	990	202.0	-198391.0	-44.0	-55094.0
23	18	10	45	990	203.0	-197024.0	-51.0	-54391.0
23	18	10	45	991	204.0	-196043.0	-51.0	-53653.0
23	18	10	45	991	205.0	-195687.0	-71.0	-53944.0
23	18	10	45	992	206.0	-195398.0	-90.0	-53788.0
23	18	10	45	993	207.0	-195146.0	-84.0	-53869.0
23	18	10	45	993	208.0	-194835.0	-105.0	-54362.0
23	18	10	45	994	209.0	-194703.0	-117.0	-54496.0
23	18	10	45	994	210.0	-194336.0	-139.0	-53738.0
23	18	10	45	995	211.0	-193457.0	-162.0	-52889.0
23	18	10	45	996	212.0	-192096.0	-154.0	-52811.0
23	18	10	45	996	213.0	-190621.0	-150.0	-52546.0
23	18	10	45	997	215.0	-187014.0	-183.0	-53317.0
23	18	10	45	997	216.0	-184574.0	-206.0	-53592.0
23	18	10	45	998	217.0	-182108.0	-207.0	-54275.0
23	18	10	45	998	218.0	-180193.0	-194.0	-54572.0
23	18	10	45	999	219.0	-178306.0	-190.0	-53963.0
23	18	10	46	7	220.0	-176888.0	-174.0	-52902.0
23	18	10	46	48	221.0	-176411.0	-167.0	-52668.0
23	18	10	46	73	222.0	-176246.0	-176.0	-52074.0
23	18	10	46	74	223.0	-176407.0	-161.0	-52147.0
23	18	10	46	95	224.0	-177277.0	-186.0	-51839.0
23	18	10	46	96	225.0	-178897.0	-191.0	-51500.0
23	18	10	46	97	226.0	-181134.0	-187.0	-50894.0
23	18	10	46	97	227.0	-183644.0	-181.0	-51443.0
23	18	10	46	98	228.0	-186476.0	-186.0	-53051.0
23	18	10	46	99	229.0	-189867.0	-192.0	-55873.0
23	18	10	46	99	230.0	-194093.0	-198.0	-60781.0
23	18	10	46	100	231.0	-199804.0	-207.0	-65425.0
23	18	10	46	100	232.0	-206998.0	-212.0	-69334.0
23	18	10	46	101	233.0	-215692.0	-228.0	-71882.0
23	18	10	46	101	234.0	-226146.0	-229.0	-74517.0
23	18	10	46	102	235.0	-238001.0	-222.0	-77811.0
23	18	10	46	102	245.0	-212921.0	-203.0	-65911.0
23	18	10	46	103	252.0	-209839.0	-190.0	-56545.0
23	18	10	46	104	253.0	-201806.0	-155.0	-55557.0
23	18	10	46	104	254.0	-178282.0	-134.0	-55663.0
23	18	10	46	105	4.0	-96935.0	-60.0	-54773.0
23	18	10	46	106	5.0	-96817.0	-77.0	-54881.0
23	18	10	46	106	6.0	-120418.0	-70.0	-54752.0
23	18	10	46	107	7.0	-165202.0	-70.0	-55004.0
23	18	10	46	108	8.0	-221021.0	-39.0	-54465.0
23	18	10	46	108	9.0	-274941.0	-38.0	-54619.0
23	18	10	46	109	10.0	-322357.0	-34.0	-55178.0
23	18	10	46	110	11.0	-360052.0	-26.0	-55219.0
23	18	10	46	110	12.0	-383260.0	-22.0	-55737.0
23	18	10	46	111	13.0	-391024.0	-25.0	-55819.0
23	18	10	46	112	14.0	-384906.0	-16.0	-55760.0
23	18	10	46	112	15.0	-363090.0	-21.0	-55540.0
23	18	10	46	113	16.0	-324256.0	-31.0	-55287.0
23	18	10	46	113	17.0	-280121.0	-34.0	-56056.0
23	18	10	46	114	18.0	-242414.0	-19.0	-56453.0
23	18	10	46	115	19.0	-219271.0	-12.0	-56864.0
23	18	10	46	115	20.0	-205830.0	-18.0	-57204.0
23	18	10	46	123	21.0	-197989.0	-14.0	-56989.0
23	18	10	46	124	22.0	-197174.0	-11.0	-57007.0
23	18	10	46	124	23.0	-201862.0	-22.0	-56880.0
23	18	10	46	125	24.0	-206884.0	-21.0	-56014.0
23	18	10	46	126	25.0	-212009.0	-19.0	-56064.0
23	18	10	46	126	26.0	-215486.0	-29.0	-55838.0
23	18	10	46	127	27.0	-217463.0	-29.0	-54633.0
23	18	10	46	147	28.0	-221510.0	-18.0	-53049.0
23	18	10	46	148	29.0	-224124.0	12.0	-52392.0
23	18	10	46	148	30.0	-220731.0	11.0	-51820.0
23	18	10	46	149	31.0	-210910.0	6.0	-51806.0
23	18	10	46	150	32.0	-197182.0	17.0	-52132.0
23	18	10	46	150	33.0	-178147.0	18.0	-51732.0
23	18	10	46	151	34.0	-154903.0	28.0	-50835.0
23	18	10	46	151	35.0	-131059.0	44.0	-49711.0
23	18	10	46	152	36.0	-107864.0	37.0	-48856.0
23	18	10	46	153	37.0	-87172.0	32.0	-48179.0
23	18	10	46	153	38.0	-71676.0	26.0	-48060.0
23	18	10	46	154	39.0	-63916.0	40.0	-47311.0
23	18	10	46	154	40.0	-62660.0	59.0	-47069.0
23	18	10	46	155	41.0	-64625.0	69.0	-47082.0
23	18	10	46	156	42.0	-68007.0	54.0	-46641.0
23	18	10	46	171	43.0	-73517.0	67.0	-46197.0
23	18	10	46	171	44.0	-81646.0	86.0	-46143.0
23	18	10	46	172	45.0	-90787.0	83.0	-45629.0
23	18	10	46	173	46.0	-98327.0	64.0	-45171.0
23	18	10	46	173	47.0	-103741.0	71.0	-44671.0
23	18	10	46	174	48.0	-106381.0	69.0	-44031.0
23	18	10	46	174	49.0	-106849.0	48.0	-43882.0
23	18	10	46	194	50.0	-106199.0	43.0	-43669.0
23	18	10	46	195	51.0	-105386.0	44.0	-43327.0
23	18	10	46	196	52.0	-104196.0	59.0	-42983.0
23	18	10	46	196	53.0	-102393.0	31.0	-43916.0
23	18	10	46	197	54.0	-100934.0	15.0	-43906.0
23	18	10	46	198	55.0	-100349.0	18.0	-43277.0
23	18	10	46	198	56.0	-101123.0	34.0	-42809.0
23	18	10	46	199	57.0	-103207.0	30.0	-41814.0
23	18	10	46	200	58.0	-106097.0	46.0	-41040.0
23	18	10	46	200	59.0	-109753.0	66.0	-40956.0
23	18	10	46	201	60.0	-113996.0	74.0	-40949.0
23	18	10	46	201	61.0	-118921.0	91.0	-40717.0
23	18	10	46	202	62.0	-124409.0	95.0	-40927.0
23	18	10	46	202	63.0	-130212.0	79.0	-40898.0
23	18	10	46	203	64.0	-136203.0	96.0	-40692.0
23	18	10	46	216	65.0	-141434.0	114.0	-40617.0
23	18	10	46	217	66.0	-145632.0	123.0	-40622.0
23	18	10	46	217	67.0	-148997.0	140.0	-39947.0
23	18	10	46	218	68.0	-150849.0	138.0	-39342.0
23	18	10	46	219	69.0	-151001.0	141.0	-39704.0
23	18	10	46	220	70.0	-149911.0	137.0	-39659.0
23	18	10	46	220	71.0	-148199.0	144.0	-40076.0
23	18	10	46	221	72.0	-146233.0	116.0	-40150.0
23	18	10	46	240	73.0	-145004.0	134.0	-39889.0
23	18	10	46	241	74.0	-143772.0	145.0	-40019.0
23	18	10	46	241	75.0	-142287.0	146.0	-39849.0
23	18	10	46	242	76.0	-140354.0	148.0	-39696.0
23	18	10	46	243	77.0	-138157.0	150.0	-39523.0
23	18	10	46	244	78.0	-136189.0	144.0	-39795.0
23	18	10	46	244	79.0	-134336.0	139.0	-40049.0
23	18	10	46	245	80.0	-133263.0	149.0	-40092.0
23	18	10	46	246	81.0	-132657.0	143.0	-39980.0
23	18	10	46	246	82.0	-131387.0	136.0	-40147.0
23	18	10	46	247	83.0	-129546.0	158.0	-40036.0
23	18	10	46	247	84.0	-127589.0	140.0	-40138.0
23	18	10	46	248	85.0	-126094.0	139.0	-40190.0
23	18	10	46	248	86.0	-124165.0	146.0	-40156.0
23	18	10	46	249	87.0	-122227.0	144.0	-40163.0
23	18	10	46	263	88.0	-119989.0	146.0	-39996.0
23	18	10	46	263	89.0	-117479.0	156.0	-40259.0
23	18	10	46	264	90.0	-115460.0	141.0	-40211.0
23	18	10	46	265	91.0	-113945.0	143.0	-39691.0
23	18	10	46	265	92.0	-113351.0	149.0	-40100.0
23	18	10	46	266	93.0	-112797.0	134.0	-40619.0
23	18	10	46	286	94.0	-112572.0	126.0	-40171.0
23	18	10	46	287	95.0	-112581.0	119.0	-39379.0
23	18	10	46	288	96.0	-113303.0	141.0	-39368.0
23	18	10	46	288	97.0	-114962.0	156.0	-39127.0
23	18	10	46	289	98.0	-116756.0	151.0	-38442.0
23	18	10	46	290	99.0	-118631.0	136.0	-38932.0
23	18	10	46	290	100.0	-120893.0	136.0	-38911.0
23	18	10	46	291	101.0	-124034.0	143.0	-38261.0
23	18	10	46	291	102.0	-128219.0	158.0	-38451.0
23	18	10	46	292	103.0	-132574.0	158.0	-38443.0
23	18	10	46	292	104.0	-136699.0	179.0	-38192.0
23	18	10	46	293	105.0	-140557.0	181.0	-38232.0
23	18	10	46	293	106.0	-144124.0	168.0	-38177.0
23	18	10	46	294	107.0	-147566.0	171.0	-37814.0
23	18	10	46	309	108.0	-151132.0	183.0	-37512.0
23	18	10	46	310	109.0	-154329.0	204.0	-37335.0
23	18	10	46	311	110.0	-156126.0	202.0	-36949.0
23	18	10	46	311	111.0	-157214.0	202.0	-36611.0
23	18	10	46	312	112.0	-158321.0	221.0	-36495.0
23	18	10	46	313	113.0	-159213.0	222.0	-36905.0
23	18	10	46	313	114.0	-160435.0	216.0	-37314.0
23	18	10	46	314	115.0	-161621.0	213.0	-37666.0
23	18	10	46	314	116.0	-163396.0	220.0	-37448.0
23	18	10	46	315	117.0	-165311.0	210.0	-37596.0
23	18	10	46	316	118.0	-167368.0	222.0	-37698.0
23	18	10	46	342	119.0	-169077.0	226.0	-37599.0
23	18	10	46	345	120.0	-170596.0	251.0	-37679.0
23	18	10	46	346	121.0	-172240.0	249.0	-37329.0
23	18	10	46	346	122.0	-173534.0	251.0	-37950.0
23	18	10	46	347	123.0	-174479.0	263.0	-38282.0
23	18	10	46	347	124.0	-175859.0	274.0	-37927.0
23	18	10	46	348	125.0	-177612.0	295.0	-36017.0
23	18	10	46	348	126.0	-179617.0	321.0	-34581.0
23	18	10	46	349	127.0	-181643.0	332.0	-34264.0
23	18	10	46	350	128.0	-184615.0	321.0	-34016.0
23	18	10	46	350	129.0	-187473.0	331.0	-35440.0
23	18	10	46	351	130.0	-189994.0	335.0	-36555.0
23	18	10	46	351	131.0	-192965.0	344.0	-36889.0
23	18	10	46	352	132.0	-196154.0	336.0	-37362.0
23	18	10	46	352	133.0	-199070.0	332.0	-37997.0
23	18	10	46	353	134.0	-201734.0	368.0	-38140.0
23	18	10	46	354	135.0	-204175.0	404.0	-38601.0
23	18	10	46	354	136.0	-206289.0	433.0	-39231.0
23	18	10	46	355	137.0	-207567.0	431.0	-39217.0
23	18	10	46	355	138.0	-208548.0	418.0	-38947.0
23	18	10	46	356	139.0	-208904.0	434.0	-39476.0
23	18	10	46	364	140.0	-208805.0	457.0	-40141.0
23	18	10	46	364	141.0	-207996.0	456.0	-39780.0
23	18	10	46	365	142.0	-206831.0	458.0	-39979.0
23	18	10	46	365	143.0	-205402.0	461.0	-40212.0
23	18	10	46	366	144.0	-203907.0	486.0	-40357.0
23	18	10	46	366	145.0	-201936.0	489.0	-40573.0
23	18	10	46	367	146.0	-199658.0	519.0	-40737.0
23	18	10	46	367	147.0	-197076.0	546.0	-40482.0
23	18	10	46	388	148.0	-194331.0	579.0	-40270.0
23	18	10	46	389	149.0	-191799.0	607.0	-40249.0
23	18	10	46	389	150.0	-190105.0	615.0	-40412.0
23	18	10	46	390	151.0	-189072.0	618.0	-40522.0
23	18	10	46	390	152.0	-188191.0	626.0	-41042.0
23	18	10	46	391	153.0	-187548.0	649.0	-41377.0
23	18	10	46	391	154.0	-187495.0	649.0	-41607.0
23	18	10	46	392	155.0	-187737.0	665.0	-41467.0
23	18	10	46	410	156.0	-188270.0	695.0	-40844.0
23	18	10	46	411	157.0	-188467.0	700.0	-40454.0
23	18	10	46	412	158.0	-188594.0	729.0	-40227.0
23	18	10	46	412	159.0	-189435.0	733.0	-40031.0
23	18	10	46	413	160.0	-189526.0	744.0	-40346.0
23	18	10	46	413	161.0	-189087.0	754.0	-40464.0
23	18	10	46	414	162.0	-188461.0	767.0	-40980.0
23	18	10	46	414	163.0	-186621.0	784.0	-41655.0
23	18	10	46	415	164.0	-178321.0	784.0	-41625.0
23	18	10	46	415	165.0	-164619.0	789.0	-41678.0
23	18	10	46	416	166.0	-160822.0	783.0	-41770.0
23	18	10	46	417	167.0	-163283.0	788.0	-41498.0
23	18	10	46	417	168.0	-176617.0	794.0	-40758.0
23	18	10	46	418	169.0	-202662.0	814.0	-41034.0
23	18	10	46	418	170.0	-228906.0	824.0	-40881.0
23	18	10	46	419	171.0	-247162.0	829.0	-40979.0
23	18	10	46	419	172.0	-255226.0	847.0	-41559.0
23	18	10	46	433	173.0	-255190.0	858.0	-42364.0
23	18	10	46	434	174.0	-251967.0	863.0	-42726.0
23	18	10	46	434	175.0	-244301.0	864.0	-42641.0
23	18	10	46	456	176.0	-231882.0	861.0	-42504.0
23	18	10	46	456	177.0	-214212.0	864.0	-41896.0
23	18	10	46	457	178.0	-194510.0	859.0	-41167.0
23	18	10	46	458	179.0	-178632.0	844.0	-41084.0
23	18	10	46	458	180.0	-170471.0	846.0	-40282.0
23	18	10	46	459	181.0	-169482.0	846.0	-40089.0
23	18	10	46	459	182.0	-173732.0	846.0	-40757.0
23	18	10	46	460	183.0	-180614.0	839.0	-41384.0
23	18	10	46	460	184.0	-188281.0	834.0	-41562.0
23	18	10	46	461	185.0	-196651.0	849.0	-41482.0
23	18	10	46	461	186.0	-205946.0	844.0	-41454.0
23	18	10	46	462	187.0	-215532.0	844.0	-41325.0
23	18	10	46	462	188.0	-222726.0	844.0	-40553.0
23	18	10	46	463	189.0	-225984.0	838.0	-39831.0
23	18	10	46	463	190.0	-225631.0	839.0	-39604.0
23	18	10	46	464	191.0	-223547.0	810.0	-39383.0
23	18	10	46	479	192.0	-220302.0	799.0	-39830.0
23	18	10	46	479	193.0	-216059.0	813.0	-40434.0
23	18	10	46	480	194.0	-212471.0	808.0	-40022.0
23	18	10	46	481	195.0	-209453.0	806.0	-39444.0
23	18	10	46	481	196.0	-205871.0	799.0	-39540.0
23	18	10	46	482	197.0	-202109.0	784.0	-39593.0
23	18	10	46	482	198.0	-198535.0	778.0	-38842.0
23	18	10	46	483	199.0	-195119.0	778.0	-38676.0
23	18	10	46	483	200.0	-191831.0	779.0	-39304.0
23	18	10	46	484	201.0	-188707.0	769.0	-38906.0
23	18	10	46	485	202.0	-185612.0	767.0	-38990.0
23	18	10	46	485	203.0	-182568.0	769.0	-39248.0
23	18	10	46	486	204.0	-180501.0	773.0	-39327.0
23	18	10	46	486	205.0	-179124.0	770.0	-38795.0
23	18	10	46	487	206.0	-179012.0	764.0	-38805.0
23	18	10	46	502	207.0	-180344.0	772.0	-37884.0
23	18	10	46	503	208.0	-182266.0	768.0	-37329.0
23	18	10	46	504	209.0	-185237.0	790.0	-37146.0
23	18	10	46	504	210.0	-188946.0	791.0	-37438.0
23	18	10	46	505	211.0	-192971.0	790.0	-37443.0
23	18	10	46	505	212.0	-196688.0	781.0	-37917.0
23	18	10	46	506	213.0	-200042.0	749.0	-37529.0
23	18	10	46	506	214.0	-202926.0	734.0	-37609.0
23	18	10	46	526	215.0	-206318.0	758.0	-37934.0
23	18	10	46	527	216.0	-209802.0	750.0	-37814.0
23	18	10	46	527	217.0	-212902.0	733.0	-37782.0
23	18	10	46	528	218.0	-215416.0	725.0	-37368.0
23	18	10	46	529	219.0	-217646.0	721.0	-37353.0
23	18	10	46	529	220.0	-219672.0	719.0	-36843.0
23	18	10	46	530	221.0	-221994.0	704.0	-36860.0
23	18	10	46	530	222.0	-224298.0	703.0	-37021.0
23	18	10	46	531	223.0	-226578.0	703.0	-37262.0
23	18	10	46	531	224.0	-228846.0	709.0	-37494.0
23	18	10	46	532	225.0	-231405.0	711.0	-36761.0
23	18	10	46	532	226.0	-234521.0	712.0	-36374.0
23	18	10	46	533	227.0	-238110.0	707.0	-36547.0
23	18	10	46	533	228.0	-241865.0	701.0	-37021.0
23	18	10	46	534	229.0	-245533.0	701.0	-37526.0
23	18	10	46	548	230.0	-249116.0	718.0	-38386.0
23	18	10	46	549	231.0	-252793.0	718.0	-39478.0
23	18	10	46	549	232.0	-256265.0	728.0	-40116.0
23	18	10	46	550	233.0	-259516.0	724.0	-40762.0
23	18	10	46	551	234.0	-262375.0	716.0	-40912.0
23	18	10	46	551	235.0	-264701.0	717.0	-40327.0
23	18	10	46	552	236.0	-266644.0	696.0	-40299.0
23	18	10	46	571	237.0	-267797.0	691.0	-40287.0
23	18	10	46	571	238.0	-268348.0	692.0	-40184.0
23	18	10	46	572	239.0	-268037.0	689.0	-40071.0
23	18	10	46	572	240.0	-267159.0	674.0	-40671.0
23	18	10	46	573	241.0	-266028.0	683.0	-40619.0
23	18	10	46	574	242.0	-264419.0	676.0	-40842.0
23	18	10	46	574	243.0	-262521.0	666.0	-41461.0
23	18	10	46	575	244.0	-260568.0	656.0	-40956.0
23	18	10	46	575	245.0	-258792.0	666.0	-39856.0
23	18	10	46	576	246.0	-256704.0	680.0	-39169.0
23	18	10	46	576	247.0	-254902.0	672.0	-38950.0
23	18	10	46	577	248.0	-253075.0	644.0	-39102.0
23	18	10	46	577	249.0	-250509.0	654.0	-39431.0
23	18	10	46	578	250.0	-247847.0	638.0	-39704.0
23	18	10	46	578	251.0	-245333.0	640.0	-39893.0
23	18	10	46	594	252.0	-243041.0	635.0	-38908.0
23	18	10	46	594	253.0	-240244.0	638.0	-38739.0
23	18	10	46	595	254.0	-237589.0	653.0	-38695.0
23	18	10	46	595	255.0	-234831.0	646.0	-38504.0
23	18	10	46	596	0.0	-232281.0	640.0	-38398.0
23	18	10	46	596	1.0	-229742.0	636.0	-37854.0
23	18	10	46	597	2.0	-227351.0	626.0	-37814.0
23	18	10	46	598	3.0	-225120.0	609.0	-36918.0
23	18	10	46	617	4.0	-223161.0	620.0	-37256.0
23	18	10	46	618	5.0	-221016.0	626.0	-37852.0
23	18	10	46	618	6.0	-218162.0	638.0	-37870.0
23	18	10	46	619	7.0	-215378.0	643.0	-38307.0
23	18	10	46	620	8.0	-213256.0	644.0	-38750.0
23	18	10	46	620	9.0	-211855.0	631.0	-38295.0
23	18	10	46	621	10.0	-210428.0	624.0	-38328.0
23	18	10	46	640	11.0	-209647.0	610.0	-38029.0
23	18	10	46	641	12.0	-209750.0	608.0	-37604.0
23	18	10	46	641	13.0	-209967.0	620.0	-37712.0
23	18	10	46	642	14.0	-210721.0	648.0	-38046.0
23	18	10	46	642	15.0	-211719.0	643.0	-37596.0
23	18	10	46	643	16.0	-213072.0	644.0	-37644.0
23	18	10	46	643	17.0	-214909.0	643.0	-37591.0
23	18	10	46	644	18.0	-217039.0	635.0	-36629.0
23	18	10	46	644	19.0	-219530.0	633.0	-36473.0
23	18	10	46	645	20.0	-221781.0	630.0	-36933.0
23	18	10	46	646	21.0	-223304.0	644.0	-36707.0
23	18	10	46	646	22.0	-224458.0	629.0	-36244.0
23	18	10	46	647	23.0	-224769.0	629.0	-36318.0
23	18	10	46	647	24.0	-224581.0	618.0	-36985.0
23	18	10	46	648	25.0	-224261.0	626.0	-37746.0
23	18	10	46	648	26.0	-223697.0	617.0	-38727.0
23	18	10	46	649	27.0	-222856.0	614.0	-39654.0
23	18	10	46	649	28.0	-221837.0	637.0	-39329.0
23	18	10	46	650	29.0	-221354.0	658.0	-38814.0
23	18	10	46	651	30.0	-221169.0	663.0	-38180.0
23	18	10	46	651	31.0	-221199.0	681.0	-37406.0
23	18	10	46	662	32.0	-221131.0	666.0	-37197.0
23	18	10	46	663	33.0	-220863.0	668.0	-37585.0
23	18	10	46	664	34.0	-220492.0	661.0	-38077.0
23	18	10	46	664	35.0	-220122.0	648.0	-38361.0
23	18	10	46	665	36.0	-219896.0	638.0	-38459.0
23	18	10	46	665	37.0	-220069.0	620.0	-38683.0
23	18	10	46	666	38.0	-220722.0	616.0	-38917.0
23	18	10	46	687	39.0	-221274.0	618.0	-38263.0
23	18	10	46	687	40.0	-221796.0	603.0	-37501.0
23	18	10	46	688	41.0	-222314.0	600.0	-37552.0
23	18	10	46	688	42.0	-222636.0	621.0	-38299.0
23	18	10	46	689	43.0	-222946.0	619.0	-38728.0
23	18	10	46	689	44.0	-223444.0	619.0	-38459.0
23	18	10	46	690	45.0	-223653.0	621.0	-38101.0
23	18	10	46	691	46.0	-223703.0	639.0	-38082.0
23	18	10	46	691	47.0	-223595.0	636.0	-38479.0
23	18	10	46	692	48.0	-223628.0	638.0	-38875.0
23	18	10	46	692	49.0	-223604.0	669.0	-39297.0
23	18	10	46	693	50.0	-223474.0	683.0	-39624.0
23	18	10	46	709	51.0	-223656.0	687.0	-39739.0
23	18	10	46	710	52.0	-224396.0	691.0	-38990.0
23	18	10	46	710	53.0	-225462.0	669.0	-38181.0
23	18	10	46	711	54.0	-226509.0	658.0	-38338.0
23	18	10	46	712	55.0	-227645.0	664.0	-38759.0
23	18	10	46	712	56.0	-229254.0	685.0	-38980.0
23	18	10	46	713	57.0	-230626.0	689.0	-39682.0
23	18	10	46	714	58.0	-232172.0	701.0	-39399.0
23	18	10	46	714	59.0	-233762.0	688.0	-38169.0
23	18	10	46	715	60.0	-234751.0	673.0	-37592.0
23	18	10	46	715	61.0	-234724.0	684.0	-37751.0
23	18	10	46	716	62.0	-233713.0	663.0	-37899.0
23	18	10	46	716	63.0	-232223.0	676.0	-38508.0
23	18	10	46	717	64.0	-230412.0	692.0	-38869.0
23	18	10	46	718	65.0	-228292.0	716.0	-38547.0
23	18	10	46	733	66.0	-226506.0	719.0	-39712.0
23	18	10	46	734	67.0	-224752.0	707.0	-40220.0
23	18	10	46	734	68.0	-222494.0	724.0	-40494.0
23	18	10	46	735	69.0	-220248.0	716.0	-40218.0
23	18	10	46	756	70.0	-218344.0	698.0	-40351.0
23	18	10	46	756	71.0	-216377.0	687.0	-40592.0
23	18	10	46	757	72.0	-214601.0	694.0	-41341.0
23	18	10	46	758	73.0	-212761.0	683.0	-41448.0
23	18	10	46	758	74.0	-210748.0	678.0	-41792.0
23	18	10	46	759	75.0	-209515.0	687.0	-42061.0
23	18	10	46	759	76.0	-208586.0	676.0	-41679.0
23	18	10	46	760	77.0	-207311.0	700.0	-42207.0
23	18	10	46	760	78.0	-206032.0	712.0	-42423.0
23	18	10	46	761	79.0	-205054.0	729.0	-42001.0
23	18	10	46	762	80.0	-204567.0	723.0	-41701.0
23	18	10	46	762	81.0	-204544.0	721.0	-42129.0
23	18	10	46	763	82.0	-204807.0	721.0	-41862.0
23	18	10	46	763	83.0	-205246.0	714.0	-41613.0
23	18	10	46	764	84.0	-205821.0	725.0	-41489.0
23	18	10	46	764	85.0	-206642.0	693.0	-41754.0
23	18	10	46	765	86.0	-207592.0	681.0	-41774.0
23	18	10	46	779	87.0	-208544.0	722.0	-42212.0
23	18	10	46	780	88.0	-209661.0	733.0	-42608.0
23	18	10	46	780	89.0	-210692.0	716.0	-41974.0
23	18	10	46	781	90.0	-211634.0	719.0	-41631.0
23	18	10	46	781	91.0	-212237.0	713.0	-41476.0
23	18	10	46	782	92.0	-212622.0	713.0	-40925.0
23	18	10	46	783	93.0	-212669.0	730.0	-41283.0
23	18	10	46	783	94.0	-212743.0	748.0	-41640.0
23	18	10	46	784	95.0	-212618.0	764.0	-41739.0
23	18	10	46	784	96.0	-211974.0	765.0	-41821.0
23	18	10	46	785	97.0	-211016.0	735.0	-42593.0
23	18	10	46	786	98.0	-210201.0	726.0	-42729.0
23	18	10	46	786	99.0	-209624.0	741.0	-42420.0
23	18	10	46	787	100.0	-208951.0	726.0	-42289.0
23	18	10	46	803	101.0	-208144.0	726.0	-41717.0
23	18	10	46	804	102.0	-207546.0	736.0	-41341.0
23	18	10	46	804	103.0	-207771.0	726.0	-42047.0
23	18	10	46	805	104.0	-208169.0	700.0	-43024.0
23	18	10	46	827	105.0	-208664.0	710.0	-43229.0
23	18	10	46	827	106.0	-209352.0	715.0	-43492.0
23	18	10	46	828	107.0	-209885.0	717.0	-43748.0
23	18	10	46	829	108.0	-210012.0	714.0	-43468.0
23	18	10	46	830	109.0	-209931.0	713.0	-43122.0
23	18	10	46	830	110.0	-210009.0	693.0	-42634.0
23	18	10	46	831	111.0	-210166.0	681.0	-42617.0
23	18	10	46	831	112.0	-210052.0	698.0	-42529.0
23	18	10	46	832	113.0	-209644.0	705.0	-42277.0
23	18	10	46	833	114.0	-209084.0	703.0	-42808.0
23	18	10	46	833	115.0	-208214.0	684.0	-43732.0
23	18	10	46	834	116.0	-207781.0	708.0	-43884.0
23	18	10	46	834	117.0	-207171.0	714.0	-43573.0
23	18	10	46	835	118.0	-206591.0	713.0	-43300.0
23	18	10	46	835	119.0	-206275.0	714.0	-42601.0
23	18	10	46	836	120.0	-205906.0	723.0	-42216.0
23	18	10	46	837	121.0	-205815.0	721.0	-42105.0
23	18	10	46	837	122.0	-206033.0	728.0	-41202.0
23	18	10	46	850	123.0	-206100.0	720.0	-40652.0
23	18	10	46	851	124.0	-205752.0	729.0	-40306.0
23	18	10	46	874	125.0	-205411.0	743.0	-39945.0
23	18	10	46	874	126.0	-205073.0	741.0	-39360.0
23	18	10	46	875	127.0	-204624.0	719.0	-38941.0
23	18	10	46	875	128.0	-204149.0	717.0	-38099.0
23	18	10	46	876	129.0	-203251.0	720.0	-36336.0
23	18	10	46	876	130.0	-202176.0	722.0	-36381.0
23	18	10	46	877	131.0	-201756.0	718.0	-36520.0
23	18	10	46	878	132.0	-201663.0	724.0	-37471.0
23	18	10	46	878	133.0	-201856.0	731.0	-38032.0
23	18	10	46	879	134.0	-202112.0	740.0	-39349.0
23	18	10	46	879	135.0	-202021.0	753.0	-39626.0
23	18	10	46	880	136.0	-201705.0	764.0	-40047.0
23	18	10	46	880	137.0	-201379.0	787.0	-40619.0
23	18	10	46	881	138.0	-201059.0	763.0	-40397.0
23	18	10	46	882	139.0	-200751.0	786.0	-39757.0
23	18	10	46	882	140.0	-200231.0	809.0	-38621.0
23	18	10	46	883	141.0	-199631.0	806.0	-37431.0
23	18	10	46	896	142.0	-199190.0	821.0	-37122.0
23	18	10	46	897	143.0	-198538.0	834.0	-36937.0
23	18	10	46	898	144.0	-197667.0	851.0	-37089.0
23	18	10	46	898	145.0	-196426.0	846.0	-37666.0
23	18	10	46	899	146.0	-195124.0	871.0	-37745.0
23	18	10	46	899	147.0	-193879.0	881.0	-37484.0
23	18	10	46	900	148.0	-192639.0	879.0	-36396.0
23	18	10	46	901	149.0	-191412.0	873.0	-34519.0
23	18	10	46	901	150.0	-190243.0	884.0	-33275.0
23	18	10	46	902	151.0	-189252.0	876.0	-33038.0
23	18	10	46	902	152.0	-188089.0	897.0	-33277.0
23	18	10	46	903	153.0	-186777.0	922.0	-34954.0
23	18	10	46	903	154.0	-185719.0	916.0	-37349.0
23	18	10	46	904	155.0	-185306.0	925.0	-38628.0
23	18	10	46	905	156.0	-185084.0	931.0	-39577.0
23	18	10	46	905	157.0	-184881.0	942.0	-40095.0
23	18	10	46	906	158.0	-184589.0	938.0	-40690.0
23	18	10	46	906	159.0	-184341.0	936.0	-40457.0
23	18	10	46	919	160.0	-184061.0	943.0	-40049.0
23	18	10	46	920	161.0	-183860.0	948.0	-40481.0
23	18	10	46	920	162.0	-183929.0	969.0	-40722.0
23	18	10	46	921	163.0	-184078.0	968.0	-40661.0
23	18	10	46	921	164.0	-183992.0	969.0	-41271.0
23	18	10	46	922	165.0	-184112.0	979.0	-41367.0
23	18	10	46	922	166.0	-184634.0	966.0	-41599.0
23	18	10	46	923	167.0	-185446.0	958.0	-42469.0
23	18	10	46	924	168.0	-186547.0	949.0	-42796.0
23	18	10	46	942	169.0	-187736.0	955.0	-43047.0
23	18	10	46	942	170.0	-188965.0	968.0	-42932.0
23	18	10	46	943	171.0	-190725.0	966.0	-41982.0
23	18	10	46	944	172.0	-193105.0	936.0	-41137.0
23	18	10	46	944	173.0	-195461.0	941.0	-41096.0
23	18	10	46	945	174.0	-198009.0	958.0	-41295.0
23	18	10	46	945	175.0	-200252.0	970.0	-41285.0
23	18	10	46	965	176.0	-202454.0	972.0	-41668.0
23	18	10	46	965	177.0	-204746.0	982.0	-41691.0
23	18	10	46	966	178.0	-206668.0	970.0	-41067.0
23	18	10	46	967	179.0	-208274.0	981.0	-40624.0
23	18	10	46	967	180.0	-209847.0	973.0	-39989.0
23	18	10	46	968	181.0	-211123.0	958.0	-40451.0
23	18	10	46	968	182.0	-212143.0	963.0	-41428.0
23	18	10	46	969	183.0	-212671.0	978.0	-42124.0
23	18	10	46	970	184.0	-212315.0	981.0	-42849.0
23	18	10	46	970	185.0	-211467.0	984.0	-43386.0
23	18	10	46	971	186.0	-210924.0	984.0	-42952.0
23	18	10	46	972	187.0	-210510.0	997.0	-42493.0
23	18	10	46	972	188.0	-209469.0	1014.0	-42662.0
23	18	10	46	973	189.0	-208475.0	986.0	-42106.0
23	18	10	46	973	190.0	-207949.0	982.0	-41167.0
23	18	10	46	974	191.0	-206851.0	1011.0	-40995.0
23	18	10	46	974	192.0	-205506.0	979.0	-41054.0
23	18	10	46	975	193.0	-204178.0	973.0	-40624.0
23	18	10	46	988	194.0	-202924.0	968.0	-41333.0
23	18	10	46	988	195.0	-201216.0	983.0	-42139.0
23	18	10	46	989	196.0	-199169.0	1008.0	-41719.0
23	18	10	47	11	197.0	-197194.0	1006.0	-40806.0
23	18	10	47	11	198.0	-195157.0	1010.0	-39398.0
23	18	10	47	12	199.0	-193356.0	1024.0	-38097.0
23	18	10	47	13	200.0	-191644.0	1016.0	-37396.0
23	18	10	47	13	201.0	-190342.0	1037.0	-36991.0
23	18	10	47	14	202.0	-189354.0	1028.0	-36023.0
23	18	10	47	14	203.0	-188657.0	1010.0	-35416.0
23	18	10	47	15	204.0	-188486.0	1014.0	-36076.0
23	18	10	47	15	205.0	-188671.0	1012.0	-37237.0
23	18	10	47	16	206.0	-189692.0	1026.0	-38364.0
23	18	10	47	17	207.0	-191803.0	1038.0	-40081.0
23	18	10	47	17	208.0	-195073.0	1054.0	-43485.0
23	18	10	47	18	209.0	-199899.0	1038.0	-48091.0
23	18	10	47	18	210.0	-205992.0	1054.0	-52742.0
23	18	10	47	19	211.0	-213261.0	1070.0	-57916.0
23	18	10	47	19	212.0	-221410.0	1068.0	-62150.0
23	18	10	47	35	213.0	-229910.0	1083.0	-66486.0
23	18	10	47	59	214.0	-238792.0	1106.0	-70234.0
23	18	10	47	60	215.0	-246748.0	1113.0	-76422.0
23	18	10	47	60	216.0	-253354.0	1097.0	-82920.0
23	18	10	47	61	217.0	-257410.0	1106.0	-87935.0
23	18	10	47	62	218.0	-258429.0	1124.0	-89169.0
23	18	10	47	62	219.0	-255980.0	1092.0	-84238.0
23	18	10	47	63	220.0	-249682.0	1099.0	-77474.0
23	18	10	47	63	221.0	-239431.0	1100.0	-69931.0
23	18	10	47	64	222.0	-227094.0	1099.0	-62473.0
23	18	10	47	64	223.0	-214979.0	1088.0	-53986.0
23	18	10	47	65	224.0	-205438.0	1082.0	-47752.0
23	18	10	47	66	225.0	-199861.0	1083.0	-44644.0
23	18	10	47	66	226.0	-198442.0	1087.0	-43053.0
23	18	10	47	67	227.0	-200537.0	1071.0	-42055.0
23	18	10	47	67	228.0	-204834.0	1054.0	-41144.0
23	18	10	47	68	229.0	-210408.0	1039.0	-40424.0
23	18	10	47	69	230.0	-216090.0	1031.0	-40017.0
23	18	10	47	69	231.0	-219652.0	1029.0	-39636.0
23	18	10	47	70	232.0	-218678.0	1009.0	-39325.0
23	18	10	47	70	233.0	-212561.0	1010.0	-38789.0
23	18	10	47	71	234.0	-192371.0	1014.0	-38887.0
23	18	10	47	72	235.0	-161536.0	1011.0	-38394.0
23	18	10	47	72	236.0	-142906.0	1001.0	-37997.0
23	18	10	47	73	237.0	-132955.0	977.0	-38817.0
23	18	10	47	73	238.0	-131867.0	959.0	-38542.0
23	18	10	47	74	239.0	-132587.0	949.0	-37951.0
23	18	10	47	74	240.0	-134382.0	944.0	-38122.0
23	18	10	47	75	241.0	-141556.0	938.0	-38834.0
23	18	10	47	76	242.0	-162146.0	941.0	-39059.0
23	18	10	47	76	243.0	-199116.0	941.0	-39556.0
23	18	10	47	84	244.0	-249809.0	940.0	-40657.0
23	18	10	47	84	245.0	-307076.0	937.0	-41389.0
23	18	10	47	85	246.0	-367158.0	916.0	-41939.0
23	18	10	47	86	247.0	-420132.0	899.0	-42182.0
23	18	10	47	86	248.0	-450114.0	902.0	-42469.0
23	18	10	47	87	249.0	-457891.0	894.0	-42539.0
23	18	10	47	109	250.0	-450302.0	878.0	-41982.0
23	18	10	47	109	251.0	-428961.0	879.0	-42013.0
23	18	10	47	110	252.0	-385311.0	873.0	-42082.0
23	18	10	47	110	253.0	-325788.0	870.0	-42361.0
23	18	10	47	111	254.0	-268804.0	859.0	-42762.0
23	18	10	47	112	255.0	-224731.0	854.0	-43113.0
23	18	10	47	112	0.0	-195931.0	851.0	-43241.0
23	18	10	47	113	1.0	-182786.0	854.0	-43217.0
23	18	10	47	113	2.0	-185051.0	870.0	-42658.0
23	18	10	47	114	3.0	-197796.0	882.0	-42512.0
23	18	10	47	115	4.0	-215693.0	871.0	-41637.0
23	18	10	47	115	5.0	-232566.0	871.0	-41353.0
23	18	10	47	116	6.0	-243860.0	863.0	-41468.0
23	18	10	47	116	7.0	-248310.0	855.0	-41695.0
23	18	10	47	117	8.0	-245372.0	859.0	-41742.0
23	18	10	47	117	9.0	-234725.0	866.0	-41759.0
23	18	10	47	135	10.0	-218141.0	869.0	-41604.0
23	18	10	47	135	11.0	-198180.0	870.0	-41464.0
23	18	10	47	136	12.0	-174278.0	870.0	-41504.0
23	18	10	47	136	13.0	-149879.0	896.0	-41462.0
23	18	10	47	137	14.0	-126648.0	931.0	-41486.0
23	18	10	47	137	15.0	-106458.0	917.0	-42169.0
23	18	10	47	158	16.0	-89414.0	895.0	-42250.0
23	18	10	47	159	17.0	-77741.0	891.0	-42134.0
23	18	10	47	159	18.0	-70234.0	899.0	-41560.0
23	18	10	47	160	19.0	-64929.0	886.0	-42174.0
23	18	10	47	161	20.0	-62629.0	881.0	-42839.0
23	18	10	47	161	21.0	-65527.0	879.0	-43257.0
23	18	10	47	162	22.0	-73705.0	891.0	-43512.0
23	18	10	47	162	23.0	-83826.0	889.0	-43612.0
23	18	10	47	163	24.0	-94202.0	876.0	-43866.0
23	18	10	47	163	25.0	-103441.0	886.0	-43552.0
23	18	10	47	164	26.0	-112238.0	881.0	-43585.0
23	18	10	47	164	27.0	-120610.0	874.0	-44221.0
23	18	10	47	165	28.0	-128094.0	865.0	-43832.0
23	18	10	47	165	29.0	-134521.0	872.0	-43251.0
23	18	10	47	166	30.0	-139672.0	872.0	-43504.0
23	18	10	47	166	31.0	-143614.0	859.0	-42934.0
23	18	10	47	182	32.0	-145839.0	839.0	-42848.0
23	18	10	47	182	33.0	-146237.0	830.0	-43026.0
23	18	10	47	205	34.0	-145382.0	824.0	-42749.0
23	18	10	47	205	35.0	-143661.0	797.0	-43087.0
23	18	10	47	206	36.0	-140947.0	786.0	-43471.0
23	18	10	47	206	37.0	-137072.0	784.0	-43837.0
23	18	10	47	207	38.0	-133282.0	791.0	-44009.0
23	18	10	47	207	39.0	-129971.0	814.0	-44502.0
23	18	10	47	208	40.0	-126869.0	803.0	-44592.0
23	18	10	47	209	41.0	-123902.0	767.0	-44855.0
23	18	10	47	209	42.0	-122406.0	746.0	-45307.0
23	18	10	47	210	43.0	-122221.0	754.0	-45088.0
23	18	10	47	210	44.0	-123035.0	742.0	-44502.0
23	18	10	47	211	45.0	-124768.0	737.0	-44124.0
23	18	10	47	211	46.0	-127037.0	715.0	-44100.0
23	18	10	47	212	47.0	-129742.0	719.0	-43477.0
23	18	10	47	212	48.0	-132189.0	741.0	-43938.0
23	18	10	47	213	49.0	-133892.0	731.0	-44469.0
23	18	10	47	213	50.0	-134985.0	724.0	-44307.0
23	18	10	47	214	51.0	-135496.0	732.0	-44640.0
23	18	10	47	214	52.0	-135379.0	736.0	-44118.0
23	18	10	47	228	53.0	-134890.0	732.0	-43537.0
23	18	10	47	229	54.0	-134192.0	733.0	-43332.0
23	18	10	47	229	55.0	-133129.0	729.0	-43911.0
23	18	10	47	230	56.0	-131941.0	733.0	-43945.0
23	18	10	47	230	57.0	-131219.0	714.0	-44097.0
23	18	10	47	231	58.0	-131623.0	706.0	-44129.0
23	18	10	47	232	59.0	-132129.0	699.0	-44579.0
23	18	10	47	232	60.0	-132651.0	704.0	-44159.0
23	18	10	47	233	61.0	-133115.0	692.0	-43632.0
23	18	10	47	233	62.0	-133599.0	676.0	-43462.0
23	18	10	47	234	63.0	-134456.0	676.0	-43123.0
23	18	10	47	234	64.0	-135507.0	676.0	-42931.0
23	18	10	47	235	65.0	-137486.0	684.0	-43113.0
23	18	10	47	235	66.0	-139496.0	684.0	-43571.0
23	18	10	47	236	67.0	-141530.0	659.0	-43704.0
23	18	10	47	236	68.0	-143892.0	638.0	-42847.0
23	18	10	47	252	69.0	-147084.0	633.0	-42355.0
23	18	10	47	275	70.0	-150692.0	659.0	-42456.0
23	18	10	47	276	71.0	-154234.0	661.0	-42213.0
23	18	10	47	276	72.0	-157840.0	658.0	-41551.0
23	18	10	47	277	73.0	-161839.0	657.0	-40817.0
23	18	10	47	277	74.0	-165701.0	657.0	-40135.0
23	18	10	47	278	75.0	-169378.0	646.0	-39788.0
23	18	10	47	278	76.0	-172908.0	651.0	-39941.0
23	18	10	47	279	77.0	-176517.0	651.0	-39786.0
23	18	10	47	279	78.0	-179793.0	649.0	-38881.0
23	18	10	47	280	79.0	-182157.0	634.0	-38730.0
23	18	10	47	281	80.0	-183998.0	633.0	-38314.0
23	18	10	47	281	81.0	-185928.0	631.0	-39026.0
23	18	10	47	282	82.0	-188051.0	625.0	-40049.0
23	18	10	47	282	83.0	-190441.0	621.0	-39936.0
23	18	10	47	283	84.0	-193189.0	611.0	-39121.0
23	18	10	47	283	85.0	-196261.0	622.0	-39046.0
23	18	10	47	284	86.0	-199369.0	630.0	-39106.0
23	18	10	47	284	87.0	-202766.0	622.0	-38938.0
23	18	10	47	285	88.0	-205729.0	644.0	-39019.0
23	18	10	47	286	89.0	-207982.0	653.0	-39351.0
23	18	10	47	299	90.0	-209704.0	633.0	-39484.0
23	18	10	47	299	91.0	-211186.0	646.0	-39281.0
23	18	10	47	300	92.0	-212570.0	658.0	-38762.0
23	18	10	47	300	93.0	-213350.0	654.0	-37828.0
23	18	10	47	301	94.0	-213861.0	650.0	-36792.0
23	18	10	47	302	95.0	-214372.0	649.0	-36732.0
23	18	10	47	302	96.0	-214535.0	666.0	-36574.0
23	18	10	47	303	97.0	-214851.0	651.0	-36425.0
23	18	10	47	303	98.0	-215234.0	665.0	-36429.0
23	18	10	47	304	99.0	-216041.0	658.0	-36579.0
23	18	10	47	304	100.0	-217282.0	663.0	-36394.0
23	18	10	47	322	101.0	-218958.0	676.0	-36412.0
23	18	10	47	323	102.0	-221039.0	704.0	-35831.0
23	18	10	47	324	103.0	-222864.0	694.0	-35740.0
23	18	10	47	324	104.0	-224326.0	680.0	-35994.0
23	18	10	47	325	105.0	-226211.0	673.0	-35218.0
23	18	10	47	345	106.0	-228094.0	688.0	-34933.0
23	18	10	47	346	107.0	-229422.0	702.0	-34261.0
23	18	10	47	346	108.0	-230516.0	683.0	-34168.0
23	18	10	47	347	109.0	-231352.0	681.0	-35680.0
23	18	10	47	347	110.0	-231691.0	674.0	-36943.0
23	18	10	47	348	111.0	-231865.0	685.0	-37032.0
23	18	10	47	348	112.0	-231458.0	680.0	-37026.0
23	18	10	47	349	113.0	-230435.0	693.0	-36484.0
23	18	10	47	349	114.0	-229476.0	702.0	-36091.0
23	18	10	47	350	115.0	-228399.0	713.0	-36426.0
23	18	10	47	351	116.0	-227668.0	699.0	-37169.0
23	18	10	47	351	117.0	-227351.0	687.0	-37962.0
23	18	10	47	352	118.0	-226597.0	720.0	-39301.0
23	18	10	47	352	119.0	-225512.0	726.0	-39934.0
23	18	10	47	353	120.0	-224684.0	718.0	-39710.0
23	18	10	47	353	121.0	-224627.0	723.0	-39206.0
23	18	10	47	354	122.0	-224647.0	747.0	-38592.0
23	18	10	47	354	123.0	-224546.0	778.0	-38207.0
23	18	10	47	355	124.0	-223982.0	783.0	-37684.0
23	18	10	47	369	125.0	-222811.0	798.0	-38484.0
23	18	10	47	370	126.0	-221208.0	819.0	-39192.0
23	18	10	47	370	127.0	-219156.0	816.0	-39536.0
23	18	10	47	371	128.0	-217184.0	833.0	-40031.0
23	18	10	47	371	129.0	-215307.0	838.0	-40724.0
23	18	10	47	372	130.0	-213084.0	853.0	-40955.0
23	18	10	47	373	131.0	-210802.0	856.0	-40557.0
23	18	10	47	373	132.0	-209031.0	870.0	-40272.0
23	18	10	47	374	133.0	-207971.0	874.0	-40168.0
23	18	10	47	374	134.0	-207547.0	886.0	-40172.0
23	18	10	47	375	135.0	-208297.0	884.0	-40398.0
23	18	10	47	375	136.0	-210026.0	878.0	-39945.0
23	18	10	47	376	137.0	-211822.0	888.0	-39542.0
23	18	10	47	377	138.0	-212759.0	898.0	-39940.0
23	18	10	47	393	139.0	-210351.0	902.0	-40122.0
23	18	10	47	394	140.0	-196019.0	906.0	-40234.0
23	18	10	47	394	141.0	-189408.0	914.0	-40082.0
23	18	10	47	395	142.0	-189071.0	907.0	-39812.0
23	18	10	47	415	143.0	-192231.0	906.0	-39731.0
23	18	10	47	416	144.0	-202913.0	921.0	-39277.0
23	18	10	47	417	145.0	-224704.0	930.0	-38881.0
23	18	10	47	417	146.0	-243836.0	926.0	-39413.0
23	18	10	47	418	147.0	-255035.0	929.0	-39554.0
23	18	10	47	418	148.0	-256467.0	947.0	-39406.0
23	18	10	47	419	149.0	-250171.0	943.0	-39482.0
23	18	10	47	419	150.0	-237621.0	942.0	-39819.0
23	18	10	47	420	151.0	-223221.0	944.0	-40054.0
23	18	10	47	420	152.0	-205564.0	949.0	-40365.0
23	18	10	47	421	153.0	-186497.0	946.0	-40314.0
23	18	10	47	422	154.0	-167997.0	951.0	-40881.0
23	18	10	47	422	155.0	-154395.0	952.0	-41219.0
23	18	10	47	423	156.0	-148920.0	944.0	-41971.0
23	18	10	47	423	157.0	-149806.0	946.0	-41931.0
23	18	10	47	424	158.0	-155527.0	951.0	-41318.0
23	18	10	47	439	159.0	-164194.0	947.0	-41929.0
23	18	10	47	440	160.0	-173691.0	956.0	-42399.0
23	18	10	47	440	161.0	-182304.0	934.0	-42381.0
23	18	10	47	462	162.0	-189990.0	963.0	-42246.0
23	18	10	47	462	163.0	-197591.0	953.0	-41753.0
23	18	10	47	463	164.0	-203687.0	953.0	-40709.0
23	18	10	47	463	165.0	-207874.0	944.0	-40274.0
23	18	10	47	464	166.0	-210073.0	964.0	-40026.0
23	18	10	47	464	167.0	-209112.0	970.0	-40636.0
23	18	10	47	465	168.0	-206230.0	973.0	-40809.0
23	18	10	47	466	169.0	-202071.0	984.0	-40932.0
23	18	10	47	466	170.0	-197004.0	1000.0	-41074.0
23	18	10	47	467	171.0	-190742.0	1004.0	-40102.0
23	18	10	47	467	172.0	-180627.0	1007.0	-39266.0
