24	17	31	9	978	83.0	-236326.0	1395.0	19519.0
24	17	31	9	980	84.0	-236244.0	1385.0	19487.0
24	17	31	9	982	85.0	-235656.0	1394.0	19726.0
24	17	31	9	984	86.0	-233894.0	1403.0	19600.0
24	17	31	9	986	87.0	-232161.0	1388.0	19874.0
24	17	31	9	988	88.0	-231329.0	1398.0	20594.0
24	17	31	9	990	89.0	-230242.0	1411.0	20871.0
24	17	31	9	992	90.0	-229587.0	1439.0	20929.0
24	17	31	9	993	91.0	-229429.0	1438.0	20565.0
24	17	31	9	994	92.0	-229375.0	1469.0	20495.0
24	17	31	9	995	93.0	-229616.0	1481.0	20276.0
24	17	31	9	996	94.0	-229212.0	1461.0	20022.0
24	17	31	9	997	95.0	-228772.0	1466.0	19557.0
24	17	31	9	997	96.0	-228092.0	1451.0	19280.0
24	17	31	9	998	97.0	-228582.0	1461.0	19849.0
24	17	31	9	999	98.0	-229132.0	1446.0	20694.0
24	17	31	10	8	99.0	-229713.0	1461.0	21081.0
24	17	31	10	9	100.0	-228643.0	1462.0	20627.0
24	17	31	10	9	101.0	-227672.0	1443.0	19883.0
24	17	31	10	10	102.0	-226654.0	1435.0	19753.0
24	17	31	10	36	103.0	-225984.0	1419.0	19794.0
24	17	31	10	37	104.0	-224302.0	1418.0	19342.0
24	17	31	10	37	105.0	-222189.0	1413.0	18959.0
24	17	31	10	103	106.0	-219988.0	1397.0	19687.0
24	17	31	10	148	107.0	-217661.0	1406.0	20128.0
24	17	31	10	149	108.0	-216070.0	1430.0	20424.0
24	17	31	10	149	109.0	-213733.0	1388.0	20661.0
24	17	31	10	150	110.0	-212002.0	1376.0	20541.0
24	17	31	10	151	111.0	-209917.0	1363.0	20523.0
24	17	31	10	151	112.0	-208302.0	1363.0	20438.0
24	17	31	10	152	113.0	-207336.0	1360.0	20258.0
24	17	31	10	153	114.0	-206472.0	1357.0	19816.0
24	17	31	10	153	115.0	-205730.0	1351.0	19160.0
24	17	31	10	154	116.0	-205976.0	1353.0	19569.0
24	17	31	10	193	117.0	-206485.0	1333.0	20199.0
24	17	31	10	194	118.0	-207967.0	1338.0	20741.0
24	17	31	10	194	119.0	-210225.0	1336.0	20650.0
24	17	31	10	203	120.0	-212546.0	1329.0	20532.0
24	17	31	10	204	151.0	-217916.0	1134.0	21186.0
24	17	31	10	204	173.0	-231673.0	840.0	21390.0
24	17	31	10	205	174.0	-230387.0	828.0	21284.0
24	17	31	10	206	175.0	-228427.0	809.0	21044.0
24	17	31	10	206	176.0	-226288.0	782.0	21500.0
24	17	31	10	207	177.0	-224077.0	787.0	21746.0
24	17	31	10	207	178.0	-221343.0	759.0	21953.0
24	17	31	10	208	179.0	-218919.0	746.0	22222.0
24	17	31	10	208	180.0	-216091.0	747.0	22018.0
24	17	31	10	209	181.0	-214591.0	719.0	22029.0
24	17	31	10	209	182.0	-212690.0	681.0	21655.0
24	17	31	10	210	196.0	-198722.0	337.0	20870.0
24	17	31	10	211	197.0	-198192.0	314.0	21912.0
24	17	31	10	211	198.0	-197431.0	301.0	22183.0
24	17	31	10	212	199.0	-196526.0	300.0	22301.0
24	17	31	10	212	200.0	-195219.0	280.0	21367.0
24	17	31	10	213	201.0	-194572.0	267.0	19623.0
24	17	31	10	238	202.0	-194251.0	251.0	18948.0
24	17	31	10	239	203.0	-194047.0	222.0	17054.0
24	17	31	10	239	204.0	-193805.0	188.0	14953.0
24	17	31	10	240	205.0	-194099.0	156.0	13918.0
24	17	31	10	241	206.0	-194602.0	138.0	13784.0
24	17	31	10	241	207.0	-195201.0	120.0	13971.0
24	17	31	10	242	208.0	-195925.0	101.0	12963.0
24	17	31	10	243	209.0	-196044.0	66.0	11878.0
24	17	31	10	243	210.0	-196100.0	63.0	11181.0
24	17	31	10	245	211.0	-196714.0	41.0	10838.0
24	17	31	10	245	212.0	-196478.0	-2.0	11304.0
24	17	31	10	246	213.0	-195606.0	-27.0	13993.0
24	17	31	10	247	214.0	-194986.0	-72.0	17581.0
24	17	31	10	247	215.0	-194921.0	-129.0	21116.0
24	17	31	10	248	216.0	-195001.0	-137.0	22575.0
24	17	31	10	249	218.0	-193714.0	-216.0	21620.0
24	17	31	10	249	219.0	-193854.0	-229.0	21048.0
24	17	31	10	250	220.0	-195080.0	-229.0	22553.0
24	17	31	10	250	221.0	-196924.0	-257.0	25035.0
24	17	31	10	251	222.0	-199136.0	-285.0	26539.0
24	17	31	10	251	223.0	-201206.0	-300.0	26254.0
24	17	31	10	283	224.0	-202961.0	-297.0	24378.0
24	17	31	10	284	225.0	-203849.0	-316.0	24193.0
24	17	31	10	284	226.0	-203131.0	-352.0	23854.0
24	17	31	10	285	227.0	-201608.0	-400.0	23693.0
24	17	31	10	286	228.0	-199747.0	-415.0	23837.0
24	17	31	10	286	229.0	-196292.0	-438.0	24838.0
24	17	31	10	287	230.0	-187732.0	-462.0	25117.0
24	17	31	10	287	231.0	-175057.0	-512.0	25291.0
24	17	31	10	288	232.0	-161280.0	-538.0	25484.0
24	17	31	10	327	233.0	-145558.0	-576.0	24281.0
24	17	31	10	328	234.0	-131497.0	-593.0	23226.0
24	17	31	10	329	235.0	-123363.0	-612.0	23124.0
24	17	31	10	329	236.0	-123059.0	-633.0	23212.0
24	17	31	10	330	237.0	-130559.0	-657.0	23549.0
24	17	31	10	331	238.0	-144021.0	-702.0	23726.0
24	17	31	10	331	240.0	-187952.0	-757.0	22747.0
24	17	31	10	332	241.0	-213866.0	-787.0	22043.0
24	17	31	10	332	242.0	-236592.0	-791.0	21460.0
24	17	31	10	333	243.0	-252573.0	-802.0	20664.0
24	17	31	10	334	244.0	-260426.0	-819.0	19668.0
24	17	31	10	334	245.0	-259247.0	-836.0	19399.0
24	17	31	10	335	246.0	-249782.0	-869.0	19641.0
24	17	31	10	335	247.0	-232951.0	-903.0	20103.0
24	17	31	10	336	248.0	-213039.0	-922.0	20105.0
24	17	31	10	336	7.0	-218204.0	-1219.0	16708.0
24	17	31	10	337	8.0	-214762.0	-1247.0	16052.0
24	17	31	10	338	9.0	-210181.0	-1230.0	16146.0
24	17	31	10	338	10.0	-205146.0	-1267.0	17198.0
24	17	31	10	339	11.0	-200132.0	-1275.0	18463.0
24	17	31	10	339	12.0	-195686.0	-1265.0	18115.0
24	17	31	10	373	13.0	-192272.0	-1272.0	17638.0
24	17	31	10	374	14.0	-191075.0	-1293.0	17056.0
24	17	31	10	374	15.0	-191667.0	-1291.0	16592.0
24	17	31	10	375	16.0	-192619.0	-1285.0	16170.0
24	17	31	10	375	17.0	-193340.0	-1342.0	15575.0
24	17	31	10	376	18.0	-193826.0	-1367.0	14870.0
24	17	31	10	377	19.0	-194241.0	-1366.0	15694.0
24	17	31	10	377	20.0	-193561.0	-1389.0	16398.0
24	17	31	10	378	21.0	-191897.0	-1387.0	16697.0
24	17	31	10	378	22.0	-189292.0	-1406.0	17319.0
24	17	31	10	379	23.0	-185914.0	-1432.0	17061.0
24	17	31	10	380	24.0	-182396.0	-1456.0	16318.0
24	17	31	10	380	25.0	-179466.0	-1471.0	16024.0
24	17	31	10	381	26.0	-177405.0	-1488.0	15294.0
24	17	31	10	381	27.0	-175502.0	-1501.0	14871.0
24	17	31	10	382	29.0	-173893.0	-1537.0	14723.0
24	17	31	10	382	30.0	-173984.0	-1567.0	15104.0
24	17	31	10	383	31.0	-174981.0	-1572.0	15602.0
24	17	31	10	384	32.0	-177204.0	-1575.0	16193.0
24	17	31	10	384	33.0	-180769.0	-1557.0	15893.0
24	17	31	10	385	34.0	-185164.0	-1565.0	15202.0
24	17	31	10	385	35.0	-189731.0	-1592.0	14743.0
24	17	31	10	418	36.0	-194518.0	-1613.0	14074.0
24	17	31	10	419	37.0	-198942.0	-1587.0	12950.0
24	17	31	10	419	38.0	-202922.0	-1595.0	12972.0
24	17	31	10	420	39.0	-206652.0	-1636.0	13579.0
24	17	31	10	421	40.0	-209779.0	-1661.0	14264.0
24	17	31	10	421	41.0	-211575.0	-1671.0	15247.0
24	17	31	10	422	42.0	-212254.0	-1692.0	15657.0
24	17	31	10	423	43.0	-212350.0	-1707.0	15094.0
24	17	31	10	423	44.0	-211544.0	-1718.0	14216.0
24	17	31	10	424	45.0	-210027.0	-1716.0	13817.0
24	17	31	10	424	46.0	-207808.0	-1726.0	13281.0
24	17	31	10	425	47.0	-205688.0	-1756.0	12206.0
24	17	31	10	426	48.0	-203291.0	-1751.0	12282.0
24	17	31	10	426	49.0	-200821.0	-1782.0	12639.0
24	17	31	10	427	50.0	-198456.0	-1829.0	13168.0
24	17	31	10	427	52.0	-193828.0	-1805.0	14332.0
24	17	31	10	428	53.0	-191677.0	-1829.0	13586.0
24	17	31	10	429	54.0	-190166.0	-1813.0	13366.0
24	17	31	10	429	55.0	-189135.0	-1801.0	12726.0
24	17	31	10	430	56.0	-187637.0	-1804.0	12151.0
24	17	31	10	430	57.0	-185667.0	-1796.0	11239.0
24	17	31	10	462	58.0	-183791.0	-1801.0	10736.0
24	17	31	10	463	59.0	-182174.0	-1779.0	11511.0
24	17	31	10	464	60.0	-180678.0	-1754.0	12471.0
24	17	31	10	464	61.0	-179654.0	-1763.0	13268.0
24	17	31	10	465	62.0	-179072.0	-1751.0	13340.0
24	17	31	10	465	63.0	-178734.0	-1728.0	13178.0
24	17	31	10	466	64.0	-178714.0	-1737.0	12653.0
24	17	31	10	467	65.0	-178846.0	-1709.0	11909.0
24	17	31	10	467	66.0	-178877.0	-1669.0	11841.0
24	17	31	10	484	67.0	-178854.0	-1658.0	11710.0
24	17	31	10	485	68.0	-178412.0	-1647.0	11453.0
24	17	31	10	485	69.0	-177863.0	-1616.0	11769.0
24	17	31	10	486	70.0	-177596.0	-1578.0	12802.0
24	17	31	10	486	71.0	-176584.0	-1545.0	13556.0
24	17	31	10	487	72.0	-174817.0	-1530.0	13784.0
24	17	31	10	487	74.0	-171383.0	-1466.0	14021.0
24	17	31	10	488	75.0	-170224.0	-1407.0	13623.0
24	17	31	10	488	76.0	-169270.0	-1358.0	13571.0
24	17	31	10	489	77.0	-169059.0	-1301.0	13321.0
24	17	31	10	490	78.0	-169241.0	-1272.0	13411.0
24	17	31	10	490	79.0	-169120.0	-1231.0	14147.0
24	17	31	10	491	80.0	-169335.0	-1199.0	15289.0
24	17	31	10	508	81.0	-170287.0	-1143.0	15770.0
24	17	31	10	509	82.0	-171481.0	-1074.0	16157.0
24	17	31	10	510	83.0	-172764.0	-1036.0	15839.0
24	17	31	10	510	84.0	-174342.0	-997.0	15826.0
24	17	31	10	511	85.0	-176514.0	-938.0	16043.0
24	17	31	10	511	86.0	-179220.0	-897.0	15798.0
24	17	31	10	512	87.0	-182028.0	-838.0	15558.0
24	17	31	10	513	88.0	-185069.0	-807.0	15738.0
24	17	31	10	513	89.0	-188675.0	-757.0	16129.0
24	17	31	10	514	90.0	-192131.0	-716.0	16809.0
24	17	31	10	514	91.0	-195384.0	-664.0	17564.0
24	17	31	10	515	92.0	-198687.0	-606.0	18297.0
24	17	31	10	516	93.0	-201988.0	-566.0	17756.0
24	17	31	10	516	94.0	-205226.0	-522.0	17426.0
24	17	31	10	517	95.0	-207976.0	-455.0	17600.0
24	17	31	10	518	97.0	-213976.0	-364.0	16757.0
24	17	31	10	518	98.0	-217383.0	-325.0	16748.0
24	17	31	10	519	99.0	-220461.0	-252.0	17400.0
24	17	31	10	519	100.0	-223046.0	-192.0	17602.0
24	17	31	10	520	101.0	-224854.0	-152.0	18456.0
24	17	31	10	520	102.0	-225231.0	-97.0	18843.0
24	17	31	10	553	103.0	-224635.0	-39.0	18363.0
24	17	31	10	553	104.0	-223682.0	-4.0	17796.0
24	17	31	10	554	105.0	-221931.0	36.0	18039.0
24	17	31	10	555	106.0	-218724.0	74.0	18133.0
24	17	31	10	555	107.0	-214645.0	111.0	17360.0
24	17	31	10	556	108.0	-209911.0	146.0	17345.0
24	17	31	10	556	109.0	-202179.0	199.0	17813.0
24	17	31	10	557	110.0	-189407.0	246.0	17731.0
24	17	31	10	558	111.0	-170562.0	274.0	18783.0
24	17	31	10	558	112.0	-156401.0	300.0	19154.0
24	17	31	10	559	113.0	-156406.0	326.0	18919.0
24	17	31	10	559	114.0	-171347.0	376.0	18508.0
24	17	31	10	560	115.0	-186966.0	404.0	18389.0
24	17	31	10	561	116.0	-207702.0	440.0	18131.0
24	17	31	10	562	117.0	-222907.0	466.0	17691.0
24	17	31	10	562	119.0	-234826.0	483.0	18226.0
24	17	31	10	563	120.0	-232473.0	498.0	18469.0
24	17	31	10	563	121.0	-225518.0	546.0	18924.0
24	17	31	10	564	122.0	-218418.0	575.0	18628.0
24	17	31	10	565	123.0	-210291.0	613.0	17834.0
24	17	31	10	565	124.0	-200772.0	639.0	17699.0
24	17	31	10	598	125.0	-191320.0	681.0	17745.0
24	17	31	10	599	126.0	-182970.0	711.0	17446.0
24	17	31	10	599	127.0	-176082.0	736.0	16971.0
24	17	31	10	600	128.0	-170355.0	749.0	16658.0
24	17	31	10	601	129.0	-166296.0	750.0	16981.0
24	17	31	10	601	130.0	-163544.0	745.0	17813.0
24	17	31	10	602	131.0	-162445.0	774.0	18050.0
24	17	31	10	602	132.0	-162829.0	780.0	17875.0
24	17	31	10	603	133.0	-164703.0	788.0	18201.0
24	17	31	10	604	134.0	-167681.0	800.0	17629.0
24	17	31	10	604	135.0	-169341.0	806.0	17067.0
24	17	31	10	605	136.0	-168811.0	809.0	17132.0
24	17	31	10	606	137.0	-165879.0	819.0	16861.0
24	17	31	10	606	138.0	-160681.0	815.0	16707.0
24	17	31	10	607	139.0	-153188.0	826.0	17143.0
24	17	31	10	607	141.0	-139382.0	852.0	18001.0
24	17	31	10	608	142.0	-141791.0	855.0	18311.0
24	17	31	10	608	143.0	-146535.0	854.0	18245.0
24	17	31	10	609	144.0	-155039.0	867.0	17858.0
24	17	31	10	610	145.0	-164386.0	879.0	17361.0
24	17	31	10	610	146.0	-173595.0	903.0	17481.0
24	17	31	10	611	147.0	-183482.0	919.0	16903.0
24	17	31	10	642	148.0	-192645.0	906.0	16582.0
24	17	31	10	666	149.0	-200212.0	914.0	17346.0
24	17	31	10	667	150.0	-205360.0	937.0	18339.0
24	17	31	10	667	151.0	-207906.0	930.0	18646.0
24	17	31	10	668	152.0	-209474.0	903.0	18693.0
24	17	31	10	669	153.0	-210739.0	913.0	18520.0
24	17	31	10	669	154.0	-211293.0	900.0	17986.0
24	17	31	10	670	155.0	-211436.0	884.0	17928.0
24	17	31	10	670	156.0	-211009.0	901.0	17777.0
24	17	31	10	671	157.0	-210491.0	884.0	17160.0
24	17	31	10	671	158.0	-209974.0	861.0	17323.0
24	17	31	10	672	159.0	-209667.0	866.0	17923.0
24	17	31	10	672	160.0	-209236.0	859.0	18615.0
24	17	31	10	673	161.0	-208946.0	869.0	19003.0
24	17	31	10	674	162.0	-209341.0	861.0	19278.0
24	17	31	10	674	164.0	-211002.0	829.0	18357.0
24	17	31	10	675	165.0	-211501.0	809.0	18697.0
24	17	31	10	675	166.0	-212185.0	815.0	18207.0
24	17	31	10	676	167.0	-213079.0	823.0	17602.0
24	17	31	10	676	168.0	-214220.0	827.0	17455.0
24	17	31	10	677	169.0	-215549.0	819.0	17965.0
24	17	31	10	690	170.0	-216788.0	805.0	18943.0
24	17	31	10	690	171.0	-217531.0	831.0	19128.0
24	17	31	10	691	172.0	-218349.0	829.0	19351.0
24	17	31	10	692	173.0	-219532.0	814.0	18865.0
24	17	31	10	692	174.0	-220107.0	794.0	18849.0
24	17	31	10	693	175.0	-220600.0	793.0	18889.0
24	17	31	10	694	176.0	-220707.0	788.0	18649.0
24	17	31	10	694	177.0	-220591.0	773.0	18074.0
24	17	31	10	695	178.0	-220912.0	746.0	18359.0
24	17	31	10	695	179.0	-221392.0	733.0	19248.0
24	17	31	10	696	180.0	-221799.0	738.0	19306.0
24	17	31	10	697	181.0	-222282.0	721.0	20009.0
24	17	31	10	697	182.0	-222766.0	701.0	20279.0
24	17	31	10	698	183.0	-223084.0	683.0	19568.0
24	17	31	10	699	184.0	-222682.0	662.0	19219.0
24	17	31	10	699	186.0	-220982.0	640.0	18916.0
24	17	31	10	700	187.0	-219799.0	631.0	18200.0
24	17	31	10	700	188.0	-218007.0	626.0	18811.0
24	17	31	10	701	189.0	-215701.0	617.0	19484.0
24	17	31	10	702	190.0	-213473.0	604.0	19740.0
24	17	31	10	702	191.0	-210640.0	590.0	20366.0
24	17	31	10	703	192.0	-207591.0	590.0	20013.0
24	17	31	10	733	193.0	-204842.0	595.0	19951.0
24	17	31	10	733	194.0	-202710.0	591.0	19713.0
24	17	31	10	734	195.0	-201042.0	567.0	19164.0
24	17	31	10	735	196.0	-199770.0	553.0	18746.0
24	17	31	10	735	197.0	-199182.0	528.0	18300.0
24	17	31	10	736	198.0	-199196.0	526.0	18664.0
24	17	31	10	737	199.0	-199371.0	510.0	19102.0
24	17	31	10	737	200.0	-199596.0	514.0	19468.0
24	17	31	10	738	201.0	-200294.0	499.0	19841.0
24	17	31	10	738	202.0	-201041.0	502.0	19765.0
24	17	31	10	739	203.0	-202027.0	486.0	19371.0
24	17	31	10	778	204.0	-202979.0	484.0	19119.0
24	17	31	10	779	205.0	-203691.0	482.0	18911.0
24	17	31	10	780	206.0	-204389.0	478.0	18071.0
24	17	31	10	781	207.0	-205049.0	484.0	17121.0
24	17	31	10	781	209.0	-205721.0	476.0	17676.0
24	17	31	10	782	210.0	-205845.0	484.0	19019.0
24	17	31	10	783	211.0	-205248.0	502.0	19245.0
24	17	31	10	783	212.0	-204282.0	493.0	19353.0
24	17	31	10	784	213.0	-203288.0	497.0	19034.0
24	17	31	10	785	214.0	-201975.0	498.0	19384.0
24	17	31	10	786	215.0	-200779.0	501.0	19130.0
24	17	31	10	788	216.0	-199888.0	518.0	18608.0
24	17	31	10	789	217.0	-198816.0	506.0	18415.0
24	17	31	10	789	218.0	-197897.0	517.0	18687.0
24	17	31	10	790	219.0	-197241.0	506.0	19117.0
24	17	31	10	791	231.0	-195647.0	515.0	20659.0
24	17	31	10	791	232.0	-195316.0	511.0	21164.0
24	17	31	10	792	233.0	-195172.0	523.0	20731.0
24	17	31	10	792	234.0	-194870.0	533.0	20178.0
24	17	31	10	793	235.0	-194140.0	538.0	20171.0
24	17	31	10	794	236.0	-193919.0	543.0	19367.0
24	17	31	10	794	237.0	-193744.0	563.0	18802.0
24	17	31	10	824	238.0	-193597.0	568.0	19594.0
24	17	31	10	825	239.0	-193671.0	564.0	19983.0
24	17	31	10	825	240.0	-193522.0	559.0	20516.0
24	17	31	10	826	241.0	-193303.0	566.0	21070.0
24	17	31	10	827	242.0	-193604.0	575.0	20961.0
24	17	31	10	827	243.0	-193754.0	567.0	20283.0
24	17	31	10	828	244.0	-193561.0	559.0	19973.0
24	17	31	10	828	245.0	-193044.0	564.0	19865.0
24	17	31	10	869	246.0	-192419.0	563.0	19126.0
24	17	31	10	870	247.0	-192122.0	556.0	18099.0
24	17	31	10	870	248.0	-192004.0	533.0	18750.0
24	17	31	10	871	249.0	-191684.0	519.0	19426.0
24	17	31	10	872	250.0	-191354.0	529.0	19466.0
24	17	31	10	872	251.0	-191454.0	527.0	20136.0
24	17	31	10	873	252.0	-192042.0	515.0	20224.0
24	17	31	10	874	254.0	-193801.0	503.0	19371.0
24	17	31	10	874	255.0	-194886.0	481.0	19534.0
24	17	31	10	875	0.0	-196046.0	474.0	18921.0
24	17	31	10	876	1.0	-197460.0	484.0	18232.0
24	17	31	10	876	2.0	-199604.0	489.0	19065.0
24	17	31	10	877	3.0	-202044.0	457.0	19967.0
24	17	31	10	878	4.0	-204349.0	434.0	19987.0
24	17	31	10	878	5.0	-206264.0	438.0	19830.0
24	17	31	10	879	20.0	-221742.0	184.0	5517.0
24	17	31	10	880	21.0	-221535.0	151.0	4830.0
24	17	31	10	880	22.0	-220470.0	143.0	5751.0
24	17	31	10	881	23.0	-218687.0	152.0	9347.0
24	17	31	10	881	24.0	-216290.0	159.0	14190.0
24	17	31	10	882	25.0	-213655.0	136.0	17414.0
24	17	31	10	882	26.0	-210427.0	120.0	18008.0
24	17	31	10	913	27.0	-206981.0	116.0	15913.0
24	17	31	10	914	28.0	-203926.0	122.0	14988.0
24	17	31	10	914	29.0	-202139.0	108.0	14576.0
24	17	31	10	915	30.0	-201619.0	93.0	15772.0
24	17	31	10	916	31.0	-202251.0	56.0	18321.0
24	17	31	10	916	32.0	-203672.0	36.0	21361.0
24	17	31	10	917	33.0	-205572.0	23.0	22515.0
24	17	31	10	917	34.0	-207509.0	3.0	22116.0
24	17	31	10	918	35.0	-209684.0	-15.0	20854.0
24	17	31	10	919	36.0	-212132.0	-47.0	19371.0
24	17	31	10	919	37.0	-213979.0	-86.0	18227.0
24	17	31	10	920	38.0	-214642.0	-91.0	17457.0
24	17	31	10	921	39.0	-213859.0	-94.0	17883.0
24	17	31	10	921	40.0	-210692.0	-130.0	18953.0
24	17	31	10	922	41.0	-203254.0	-158.0	19797.0
24	17	31	10	923	43.0	-173299.0	-184.0	21426.0
24	17	31	10	923	44.0	-155552.0	-210.0	21723.0
24	17	31	10	924	45.0	-139439.0	-222.0	21473.0
24	17	31	10	924	46.0	-129334.0	-232.0	20591.0
24	17	31	10	925	47.0	-127334.0	-232.0	19841.0
24	17	31	10	926	48.0	-135642.0	-254.0	18883.0
24	17	31	10	958	49.0	-152306.0	-274.0	17993.0
24	17	31	10	959	50.0	-171951.0	-276.0	17171.0
24	17	31	10	960	51.0	-193775.0	-286.0	16083.0
24	17	31	10	961	52.0	-219398.0	-304.0	16293.0
24	17	31	10	961	53.0	-245059.0	-328.0	16498.0
24	17	31	10	962	54.0	-265704.0	-340.0	16160.0
24	17	31	10	963	55.0	-278184.0	-362.0	16319.0
24	17	31	10	963	56.0	-282302.0	-382.0	15923.0
24	17	31	10	964	57.0	-278082.0	-409.0	15274.0
24	17	31	10	965	58.0	-268295.0	-449.0	14686.0
24	17	31	10	966	59.0	-255216.0	-456.0	14014.0
24	17	31	10	967	60.0	-240756.0	-487.0	13266.0
24	17	31	10	967	61.0	-226637.0	-511.0	12898.0
24	17	31	10	968	62.0	-214044.0	-514.0	14213.0
24	17	31	10	969	63.0	-202892.0	-539.0	13916.0
24	17	31	10	969	65.0	-186821.0	-562.0	14458.0
24	17	31	10	970	66.0	-182844.0	-582.0	14029.0
24	17	31	10	971	67.0	-180323.0	-577.0	13208.0
24	17	31	10	971	68.0	-177864.0	-606.0	12692.0
24	17	31	10	972	69.0	-174873.0	-619.0	12948.0
24	17	31	10	972	70.0	-171676.0	-614.0	12274.0
24	17	31	11	3	71.0	-169018.0	-634.0	12011.0
24	17	31	11	4	72.0	-167718.0	-645.0	12054.0
24	17	31	11	5	73.0	-167831.0	-652.0	12484.0
24	17	31	11	6	74.0	-168789.0	-677.0	12792.0
24	17	31	11	7	75.0	-169992.0	-699.0	12777.0
24	17	31	11	8	76.0	-171176.0	-711.0	12538.0
24	17	31	11	8	77.0	-172845.0	-716.0	12338.0
24	17	31	11	9	78.0	-175164.0	-749.0	12033.0
24	17	31	11	10	79.0	-178192.0	-785.0	11127.0
24	17	31	11	11	80.0	-182963.0	-782.0	10631.0
24	17	31	11	11	81.0	-189455.0	-801.0	10469.0
24	17	31	11	12	82.0	-196872.0	-855.0	11201.0
24	17	31	11	13	83.0	-204359.0	-875.0	11895.0
24	17	31	11	13	84.0	-211052.0	-862.0	12524.0
24	17	31	11	14	85.0	-216502.0	-882.0	12302.0
24	17	31	11	15	87.0	-222647.0	-913.0	11684.0
24	17	31	11	15	88.0	-222752.0	-937.0	11333.0
24	17	31	11	16	89.0	-221209.0	-954.0	10913.0
24	17	31	11	16	90.0	-218144.0	-957.0	10309.0
24	17	31	11	17	91.0	-214272.0	-972.0	9853.0
24	17	31	11	18	92.0	-210405.0	-992.0	9971.0
24	17	31	11	18	93.0	-206579.0	-986.0	10442.0
24	17	31	11	51	94.0	-202921.0	-1007.0	10937.0
24	17	31	11	52	95.0	-199884.0	-1010.0	10709.0
24	17	31	11	52	96.0	-197664.0	-1030.0	9668.0
24	17	31	11	53	97.0	-196231.0	-1071.0	8994.0
24	17	31	11	53	98.0	-195771.0	-1088.0	8399.0
24	17	31	11	54	99.0	-195966.0	-1101.0	7526.0
24	17	31	11	54	100.0	-196891.0	-1123.0	7266.0
24	17	31	11	55	101.0	-198439.0	-1137.0	7397.0
24	17	31	11	55	102.0	-199849.0	-1157.0	7126.0
24	17	31	11	56	103.0	-201141.0	-1198.0	7984.0
24	17	31	11	57	104.0	-202138.0	-1207.0	9003.0
24	17	31	11	57	105.0	-202966.0	-1225.0	8882.0
24	17	31	11	58	106.0	-203339.0	-1259.0	8023.0
24	17	31	11	58	107.0	-203297.0	-1266.0	7773.0
24	17	31	11	59	108.0	-203089.0	-1284.0	7311.0
24	17	31	11	59	110.0	-201048.0	-1312.0	6280.0
24	17	31	11	60	111.0	-200041.0	-1326.0	6302.0
24	17	31	11	60	112.0	-198912.0	-1314.0	6581.0
24	17	31	11	61	113.0	-197098.0	-1322.0	6881.0
24	17	31	11	61	114.0	-195547.0	-1326.0	6959.0
24	17	31	11	62	115.0	-194295.0	-1334.0	7011.0
24	17	31	11	93	116.0	-193227.0	-1344.0	6468.0
24	17	31	11	93	117.0	-192208.0	-1344.0	6448.0
24	17	31	11	94	118.0	-191141.0	-1357.0	5976.0
24	17	31	11	95	119.0	-189747.0	-1374.0	5652.0
24	17	31	11	95	120.0	-187950.0	-1379.0	4829.0
24	17	31	11	96	121.0	-186031.0	-1386.0	4811.0
24	17	31	11	96	122.0	-184517.0	-1389.0	4949.0
24	17	31	11	97	123.0	-183272.0	-1396.0	5361.0
24	17	31	11	98	124.0	-182051.0	-1406.0	5229.0
24	17	31	11	98	125.0	-180664.0	-1404.0	5064.0
24	17	31	11	99	126.0	-180137.0	-1400.0	4799.0
24	17	31	11	99	127.0	-180272.0	-1404.0	4697.0
24	17	31	11	100	128.0	-180841.0	-1414.0	4794.0
24	17	31	11	101	129.0	-182057.0	-1396.0	4419.0
24	17	31	11	101	130.0	-183389.0	-1391.0	3913.0
24	17	31	11	102	132.0	-186139.0	-1377.0	4889.0
24	17	31	11	102	133.0	-187380.0	-1356.0	5024.0
24	17	31	11	103	134.0	-188479.0	-1351.0	5330.0
24	17	31	11	103	135.0	-189266.0	-1310.0	6046.0
24	17	31	11	104	136.0	-189906.0	-1292.0	5801.0
24	17	31	11	105	137.0	-190244.0	-1276.0	5114.0
24	17	31	11	105	138.0	-189957.0	-1237.0	5001.0
24	17	31	11	138	139.0	-188800.0	-1194.0	4778.0
24	17	31	11	139	140.0	-187671.0	-1161.0	4384.0
24	17	31	11	139	141.0	-186551.0	-1143.0	4648.0
24	17	31	11	140	142.0	-184933.0	-1096.0	5374.0
24	17	31	11	140	143.0	-183082.0	-1057.0	6205.0
24	17	31	11	141	144.0	-181189.0	-999.0	6953.0
24	17	31	11	142	145.0	-179912.0	-979.0	6921.0
24	17	31	11	142	146.0	-179320.0	-955.0	6621.0
24	17	31	11	143	147.0	-178813.0	-907.0	5963.0
24	17	31	11	143	148.0	-178511.0	-894.0	6026.0
24	17	31	11	144	149.0	-178665.0	-853.0	5581.0
24	17	31	11	144	150.0	-178907.0	-791.0	5060.0
24	17	31	11	145	151.0	-178903.0	-762.0	5633.0
24	17	31	11	146	152.0	-179076.0	-709.0	6408.0
24	17	31	11	146	153.0	-179366.0	-667.0	7132.0
24	17	31	11	147	155.0	-181194.0	-559.0	7808.0
24	17	31	11	147	156.0	-182951.0	-533.0	7185.0
24	17	31	11	148	157.0	-185244.0	-467.0	7191.0
24	17	31	11	149	158.0	-187851.0	-418.0	7111.0
24	17	31	11	149	159.0	-190529.0	-351.0	6419.0
24	17	31	11	150	160.0	-193333.0	-308.0	6401.0
24	17	31	11	184	161.0	-196377.0	-244.0	6379.0
24	17	31	11	184	162.0	-199612.0	-183.0	6834.0
24	17	31	11	185	163.0	-202989.0	-134.0	7571.0
24	17	31	11	186	164.0	-206266.0	-96.0	8182.0
24	17	31	11	186	165.0	-209301.0	-59.0	7940.0
24	17	31	11	187	166.0	-211867.0	-12.0	7711.0
24	17	31	11	187	167.0	-214399.0	38.0	7849.0
24	17	31	11	188	168.0	-216252.0	68.0	7808.0
24	17	31	11	189	169.0	-216715.0	117.0	7455.0
24	17	31	11	189	170.0	-216329.0	153.0	6961.0
24	17	31	11	190	171.0	-215758.0	208.0	7272.0
24	17	31	11	190	172.0	-214610.0	243.0	7641.0
24	17	31	11	191	173.0	-212294.0	284.0	8582.0
24	17	31	11	191	174.0	-209075.0	336.0	9429.0
24	17	31	11	192	175.0	-203250.0	375.0	9164.0
24	17	31	11	193	177.0	-171829.0	445.0	9013.0
24	17	31	11	193	178.0	-161143.0	479.0	8393.0
24	17	31	11	194	179.0	-165539.0	521.0	7611.0
24	17	31	11	194	180.0	-181859.0	550.0	7350.0
24	17	31	11	195	181.0	-196881.0	602.0	7298.0
24	17	31	11	195	182.0	-219075.0	630.0	7566.0
24	17	31	11	196	183.0	-233412.0	665.0	7935.0
24	17	31	11	228	184.0	-240661.0	710.0	8206.0
24	17	31	11	228	185.0	-245993.0	749.0	7849.0
24	17	31	11	229	186.0	-242847.0	763.0	8081.0
24	17	31	11	229	187.0	-235827.0	789.0	7925.0
24	17	31	11	230	188.0	-228435.0	833.0	7633.0
24	17	31	11	231	189.0	-219926.0	837.0	6681.0
24	17	31	11	231	190.0	-211500.0	841.0	6306.0
24	17	31	11	232	191.0	-203761.0	871.0	6791.0
24	17	31	11	232	192.0	-197024.0	883.0	7373.0
24	17	31	11	233	193.0	-191644.0	918.0	7994.0
24	17	31	11	233	194.0	-187283.0	914.0	8231.0
24	17	31	11	234	195.0	-184101.0	903.0	8137.0
24	17	31	11	234	196.0	-182274.0	925.0	7373.0
24	17	31	11	235	197.0	-181758.0	948.0	7214.0
24	17	31	11	236	198.0	-181878.0	955.0	7217.0
24	17	31	11	237	200.0	-183961.0	962.0	5674.0
24	17	31	11	238	201.0	-184829.0	967.0	6635.0
24	17	31	11	239	202.0	-183261.0	986.0	7439.0
24	17	31	11	239	203.0	-178496.0	1001.0	7645.0
24	17	31	11	240	204.0	-171040.0	999.0	7897.0
24	17	31	11	240	205.0	-162022.0	1011.0	7836.0
24	17	31	11	273	206.0	-150971.0	1016.0	7022.0
24	17	31	11	273	207.0	-139378.0	1025.0	6069.0
24	17	31	11	274	208.0	-130841.0	1034.0	6280.0
24	17	31	11	274	209.0	-128470.0	1024.0	5893.0
24	17	31	11	275	210.0	-130301.0	1039.0	5536.0
24	17	31	11	276	211.0	-135540.0	1033.0	5792.0
24	17	31	11	276	212.0	-143262.0	1006.0	6689.0
24	17	31	11	277	213.0	-151954.0	993.0	7036.0
24	17	31	11	277	214.0	-161876.0	996.0	6991.0
24	17	31	11	278	215.0	-171339.0	983.0	7012.0
24	17	31	11	278	216.0	-179660.0	981.0	6397.0
24	17	31	11	279	217.0	-186186.0	988.0	6051.0
24	17	31	11	279	218.0	-189983.0	976.0	5754.0
24	17	31	11	280	219.0	-192318.0	954.0	5047.0
24	17	31	11	281	220.0	-192832.0	938.0	5298.0
24	17	31	11	281	222.0	-191079.0	900.0	6118.0
24	17	31	11	282	223.0	-190867.0	903.0	6297.0
24	17	31	11	282	224.0	-191165.0	918.0	6534.0
24	17	31	11	283	225.0	-191753.0	924.0	6330.0
24	17	31	11	320	226.0	-192921.0	919.0	5741.0
24	17	31	11	344	227.0	-194474.0	909.0	5486.0
24	17	31	11	345	228.0	-195604.0	917.0	5026.0
24	17	31	11	346	229.0	-196268.0	906.0	4753.0
24	17	31	11	346	230.0	-197007.0	893.0	4901.0
24	17	31	11	347	231.0	-197987.0	873.0	5333.0
24	17	31	11	347	232.0	-198736.0	862.0	5701.0
24	17	31	11	348	233.0	-199283.0	859.0	6423.0
24	17	31	11	348	234.0	-199748.0	826.0	6838.0
24	17	31	11	349	235.0	-200866.0	806.0	6206.0
24	17	31	11	349	236.0	-202791.0	814.0	5821.0
24	17	31	11	350	237.0	-204674.0	798.0	5814.0
24	17	31	11	351	238.0	-207212.0	772.0	5570.0
24	17	31	11	351	239.0	-210784.0	774.0	4966.0
24	17	31	11	352	240.0	-214753.0	754.0	4789.0
24	17	31	11	352	244.0	-207737.0	665.0	6396.0
24	17	31	11	353	245.0	-205892.0	652.0	5983.0
24	17	31	11	353	246.0	-207972.0	671.0	5966.0
24	17	31	11	354	247.0	-214075.0	648.0	5881.0
24	17	31	11	354	248.0	-221374.0	629.0	5978.0
24	17	31	11	355	249.0	-228113.0	625.0	5554.0
24	17	31	11	355	250.0	-233444.0	609.0	5629.0
24	17	31	11	368	251.0	-237517.0	586.0	6037.0
24	17	31	11	369	252.0	-240441.0	586.0	6308.0
24	17	31	11	369	253.0	-241971.0	578.0	7036.0
24	17	31	11	370	254.0	-242201.0	588.0	7491.0
24	17	31	11	370	255.0	-241035.0	533.0	7501.0
24	17	31	11	371	0.0	-239150.0	513.0	7116.0
24	17	31	11	371	1.0	-236626.0	493.0	6676.0
24	17	31	11	372	2.0	-233356.0	479.0	6613.0
24	17	31	11	373	3.0	-229314.0	451.0	5746.0
24	17	31	11	373	4.0	-224982.0	460.0	5483.0
24	17	31	11	374	5.0	-221177.0	444.0	6558.0
24	17	31	11	374	6.0	-217801.0	410.0	7055.0
24	17	31	11	375	7.0	-214901.0	399.0	7436.0
24	17	31	11	375	8.0	-213065.0	383.0	7226.0
24	17	31	11	376	9.0	-211767.0	369.0	7014.0
24	17	31	11	377	11.0	-210190.0	356.0	6511.0
24	17	31	11	377	12.0	-210780.0	339.0	6278.0
24	17	31	11	378	13.0	-211316.0	339.0	5541.0
24	17	31	11	378	14.0	-211923.0	333.0	4956.0
24	17	31	11	379	15.0	-213169.0	339.0	5870.0
24	17	31	11	379	16.0	-215477.0	330.0	6859.0
24	17	31	11	453	17.0	-218339.0	346.0	7012.0
24	17	31	11	454	18.0	-220684.0	346.0	7215.0
24	17	31	11	455	19.0	-222537.0	335.0	7056.0
24	17	31	11	455	20.0	-224157.0	318.0	6787.0
24	17	31	11	456	21.0	-224770.0	313.0	6688.0
24	17	31	11	456	22.0	-225278.0	295.0	6368.0
24	17	31	11	457	23.0	-225756.0	290.0	5936.0
24	17	31	11	458	24.0	-226268.0	286.0	5330.0
24	17	31	11	458	25.0	-226571.0	265.0	5892.0
24	17	31	11	459	26.0	-226337.0	270.0	6318.0
24	17	31	11	459	27.0	-225761.0	263.0	6176.0
24	17	31	11	460	28.0	-224434.0	271.0	6501.0
24	17	31	11	460	29.0	-222720.0	246.0	5861.0
24	17	31	11	461	30.0	-221116.0	241.0	5682.0
24	17	31	11	462	31.0	-219289.0	226.0	5302.0
24	17	31	11	462	56.0	-162846.0	121.0	6371.0
24	17	31	11	463	57.0	-165347.0	103.0	6603.0
24	17	31	11	463	58.0	-167609.0	116.0	6852.0
24	17	31	11	464	59.0	-169961.0	122.0	6333.0
24	17	31	11	464	60.0	-172384.0	118.0	5826.0
24	17	31	11	465	61.0	-174641.0	93.0	5550.0
24	17	31	11	498	62.0	-176807.0	93.0	5181.0
24	17	31	11	499	63.0	-178787.0	111.0	5097.0
24	17	31	11	499	64.0	-180886.0	96.0	5521.0
24	17	31	11	509	65.0	-183147.0	98.0	5533.0
24	17	31	11	510	66.0	-185347.0	98.0	6187.0
24	17	31	11	510	67.0	-187772.0	70.0	6689.0
24	17	31	11	511	68.0	-190851.0	56.0	7110.0
24	17	31	11	511	69.0	-193457.0	43.0	6701.0
24	17	31	11	512	70.0	-195387.0	24.0	6490.0
24	17	31	11	513	71.0	-197390.0	17.0	6089.0
24	17	31	11	513	72.0	-199132.0	24.0	5618.0
24	17	31	11	514	73.0	-200004.0	-3.0	5592.0
24	17	31	11	514	74.0	-201197.0	-29.0	5258.0
24	17	31	11	543	75.0	-202104.0	-48.0	6033.0
24	17	31	11	543	76.0	-202860.0	-60.0	6850.0
24	17	31	11	544	78.0	-204439.0	-89.0	6726.0
24	17	31	11	545	79.0	-205091.0	-105.0	7028.0
24	17	31	11	545	80.0	-205309.0	-120.0	6527.0
24	17	31	11	546	81.0	-205463.0	-116.0	5986.0
24	17	31	11	547	82.0	-205878.0	-127.0	5503.0
24	17	31	11	547	83.0	-206356.0	-126.0	5194.0
24	17	31	11	548	84.0	-205889.0	-151.0	5024.0
24	17	31	11	548	85.0	-204752.0	-187.0	5738.0
24	17	31	11	549	86.0	-203428.0	-210.0	6101.0
24	17	31	11	550	87.0	-201674.0	-234.0	6480.0
24	17	31	11	550	88.0	-199234.0	-247.0	6700.0
24	17	31	11	551	89.0	-196917.0	-259.0	6323.0
24	17	31	11	552	90.0	-195226.0	-277.0	6378.0
24	17	31	11	552	91.0	-193221.0	-296.0	5839.0
24	17	31	11	553	101.0	-197269.0	-500.0	1307.0
24	17	31	11	554	102.0	-199845.0	-500.0	-613.0
24	17	31	11	554	103.0	-202589.0	-513.0	-1871.0
24	17	31	11	556	104.0	-205363.0	-499.0	-2672.0
24	17	31	11	556	105.0	-207867.0	-496.0	-3206.0
24	17	31	11	557	106.0	-210469.0	-507.0	-3559.0
24	17	31	11	588	107.0	-212337.0	-534.0	-3654.0
24	17	31	11	589	108.0	-213469.0	-550.0	-3995.0
24	17	31	11	589	109.0	-213749.0	-576.0	-5379.0
24	17	31	11	590	110.0	-213163.0	-601.0	-3883.0
24	17	31	11	591	111.0	-212370.0	-622.0	467.0
24	17	31	11	591	112.0	-211473.0	-658.0	3674.0
24	17	31	11	592	113.0	-210406.0	-697.0	6623.0
24	17	31	11	593	114.0	-209361.0	-711.0	7889.0
24	17	31	11	593	115.0	-208593.0	-733.0	7061.0
24	17	31	11	594	116.0	-208799.0	-746.0	7123.0
24	17	31	11	594	117.0	-210480.0	-767.0	8023.0
24	17	31	11	595	118.0	-213639.0	-808.0	11058.0
24	17	31	11	595	119.0	-217855.0	-827.0	12953.0
24	17	31	11	596	120.0	-222550.0	-824.0	14018.0
24	17	31	11	597	121.0	-226736.0	-852.0	13696.0
24	17	31	11	597	123.0	-232852.0	-913.0	11384.0
24	17	31	11	598	124.0	-233922.0	-942.0	10182.0
24	17	31	11	598	125.0	-233109.0	-967.0	9888.0
24	17	31	11	599	126.0	-230243.0	-974.0	10698.0
24	17	31	11	600	127.0	-224164.0	-976.0	12200.0
24	17	31	11	600	128.0	-210194.0	-991.0	12721.0
24	17	31	11	633	129.0	-189999.0	-1022.0	12362.0
24	17	31	11	634	130.0	-167901.0	-1037.0	11989.0
24	17	31	11	635	131.0	-146771.0	-1059.0	11558.0
24	17	31	11	635	132.0	-133798.0	-1092.0	9850.0
24	17	31	11	678	133.0	-131347.0	-1101.0	8858.0
24	17	31	11	679	134.0	-140776.0	-1121.0	8651.0
24	17	31	11	680	135.0	-160206.0	-1145.0	8699.0
24	17	31	11	680	136.0	-186424.0	-1168.0	8464.0
24	17	31	11	681	137.0	-216076.0	-1198.0	8276.0
24	17	31	11	682	138.0	-245256.0	-1218.0	7801.0
24	17	31	11	682	139.0	-269161.0	-1239.0	7098.0
24	17	31	11	683	140.0	-284141.0	-1257.0	6554.0
24	17	31	11	683	141.0	-290757.0	-1289.0	5669.0
24	17	31	11	684	142.0	-288759.0	-1311.0	4553.0
24	17	31	11	685	143.0	-280879.0	-1306.0	3648.0
24	17	31	11	685	146.0	-259984.0	-1383.0	4063.0
24	17	31	11	686	147.0	-254443.0	-1397.0	4036.0
24	17	31	11	686	148.0	-247845.0	-1409.0	3669.0
24	17	31	11	687	149.0	-239554.0	-1426.0	3143.0
24	17	31	11	688	168.0	-194888.0	-1812.0	2058.0
24	17	31	11	689	169.0	-202467.0	-1851.0	1934.0
24	17	31	11	690	170.0	-209249.0	-1879.0	1578.0
24	17	31	11	690	171.0	-214726.0	-1885.0	1461.0
24	17	31	11	691	172.0	-218066.0	-1911.0	826.0
24	17	31	11	691	173.0	-219227.0	-1908.0	542.0
24	17	31	11	724	174.0	-218500.0	-1929.0	994.0
24	17	31	11	741	175.0	-215959.0	-1945.0	1483.0
24	17	31	11	742	176.0	-211928.0	-1956.0	1686.0
24	17	31	11	742	177.0	-206491.0	-1987.0	1791.0
24	17	31	11	743	178.0	-200690.0	-1999.0	1378.0
24	17	31	11	743	179.0	-194930.0	-2010.0	969.0
24	17	31	11	744	180.0	-189267.0	-2037.0	794.0
24	17	31	11	745	181.0	-184239.0	-2061.0	499.0
24	17	31	11	745	182.0	-181129.0	-2086.0	-242.0
24	17	31	11	746	183.0	-179654.0	-2104.0	-716.0
24	17	31	11	746	184.0	-178447.0	-2141.0	-742.0
24	17	31	11	747	185.0	-178297.0	-2163.0	-159.0
24	17	31	11	747	186.0	-179722.0	-2188.0	-636.0
24	17	31	11	748	187.0	-182076.0	-2207.0	-219.0
24	17	31	11	748	188.0	-184574.0	-2232.0	-11.0
24	17	31	11	749	190.0	-191061.0	-2268.0	-882.0
24	17	31	11	750	191.0	-194381.0	-2302.0	-1211.0
24	17	31	11	750	192.0	-197239.0	-2318.0	-1900.0
24	17	31	11	751	193.0	-199158.0	-2322.0	-2162.0
24	17	31	11	751	194.0	-200389.0	-2327.0	-1526.0
24	17	31	11	752	195.0	-200623.0	-2324.0	-1509.0
24	17	31	11	752	196.0	-199911.0	-2352.0	-987.0
24	17	31	11	768	197.0	-198595.0	-2382.0	-525.0
24	17	31	11	768	198.0	-196809.0	-2386.0	-931.0
24	17	31	11	769	199.0	-194284.0	-2397.0	-1650.0
24	17	31	11	770	200.0	-191227.0	-2413.0	-1636.0
24	17	31	11	770	201.0	-188277.0	-2434.0	-2204.0
24	17	31	11	771	202.0	-185529.0	-2456.0	-2632.0
24	17	31	11	813	203.0	-182779.0	-2467.0	-3056.0
24	17	31	11	813	204.0	-180217.0	-2486.0	-2897.0
24	17	31	11	814	205.0	-177679.0	-2499.0	-2646.0
24	17	31	11	815	206.0	-175359.0	-2505.0	-2222.0
24	17	31	11	815	207.0	-173292.0	-2516.0	-2062.0
24	17	31	11	816	208.0	-171155.0	-2535.0	-2201.0
24	17	31	11	817	209.0	-169166.0	-2547.0	-2636.0
24	17	31	11	817	210.0	-167821.0	-2525.0	-2926.0
24	17	31	11	818	211.0	-166933.0	-2533.0	-3183.0
24	17	31	11	818	213.0	-165954.0	-2521.0	-3506.0
24	17	31	11	819	214.0	-166016.0	-2504.0	-2959.0
24	17	31	11	820	215.0	-166286.0	-2487.0	-2468.0
24	17	31	11	820	216.0	-166749.0	-2463.0	-1848.0
24	17	31	11	821	217.0	-167110.0	-2467.0	-1532.0
24	17	31	11	822	218.0	-167684.0	-2447.0	-1785.0
24	17	31	11	823	219.0	-168795.0	-2415.0	-2103.0
24	17	31	11	824	236.0	-184917.0	-1743.0	1276.0
24	17	31	11	825	237.0	-187194.0	-1672.0	1286.0
24	17	31	11	825	238.0	-189458.0	-1618.0	1418.0
24	17	31	11	826	239.0	-191832.0	-1555.0	1305.0
24	17	31	11	826	240.0	-193977.0	-1491.0	738.0
24	17	31	11	827	241.0	-195994.0	-1425.0	1047.0
24	17	31	11	857	242.0	-198062.0	-1364.0	795.0
24	17	31	11	858	243.0	-199600.0	-1286.0	733.0
24	17	31	11	859	244.0	-201459.0	-1218.0	1411.0
24	17	31	11	859	245.0	-203577.0	-1171.0	2278.0
24	17	31	11	860	246.0	-205026.0	-1100.0	2344.0
24	17	31	11	861	247.0	-205881.0	-1041.0	2656.0
24	17	31	11	861	248.0	-207127.0	-987.0	2353.0
24	17	31	11	862	249.0	-208438.0	-929.0	2457.0
24	17	31	11	863	250.0	-209272.0	-881.0	2543.0
24	17	31	11	863	251.0	-209832.0	-812.0	2457.0
24	17	31	11	864	252.0	-211141.0	-777.0	1617.0
24	17	31	11	864	253.0	-212414.0	-730.0	1984.0
24	17	31	11	903	254.0	-213660.0	-664.0	2474.0
24	17	31	11	904	255.0	-214831.0	-596.0	3088.0
24	17	31	11	905	0.0	-215654.0	-556.0	3504.0
24	17	31	11	905	2.0	-216187.0	-450.0	3479.0
24	17	31	11	906	3.0	-215509.0	-414.0	3174.0
24	17	31	11	907	4.0	-214022.0	-334.0	3143.0
24	17	31	11	907	5.0	-211769.0	-274.0	2981.0
24	17	31	11	908	6.0	-208628.0	-237.0	2776.0
24	17	31	11	908	7.0	-204780.0	-159.0	3063.0
24	17	31	11	909	8.0	-200487.0	-111.0	3929.0
24	17	31	11	910	9.0	-193885.0	-92.0	4133.0
24	17	31	11	910	10.0	-180872.0	-36.0	4550.0
24	17	31	11	911	11.0	-164836.0	-2.0	5048.0
24	17	31	11	912	12.0	-156339.0	46.0	4680.0
24	17	31	11	912	13.0	-158640.0	81.0	4137.0
24	17	31	11	913	14.0	-173400.0	123.0	4246.0
24	17	31	11	913	24.0	-210081.0	403.0	3857.0
24	17	31	11	914	25.0	-205212.0	423.0	3498.0
24	17	31	11	915	26.0	-201091.0	457.0	3173.0
24	17	31	11	915	27.0	-197696.0	481.0	3569.0
24	17	31	11	916	28.0	-193544.0	503.0	3844.0
24	17	31	11	916	29.0	-188501.0	529.0	4394.0
24	17	31	11	917	30.0	-182396.0	541.0	4813.0
24	17	31	11	948	31.0	-175046.0	559.0	4843.0
24	17	31	11	949	32.0	-166837.0	577.0	4243.0
24	17	31	11	950	33.0	-159641.0	601.0	3948.0
24	17	31	11	950	34.0	-154969.0	616.0	3566.0
24	17	31	11	951	35.0	-152688.0	621.0	3166.0
24	17	31	11	951	36.0	-154136.0	619.0	3063.0
24	17	31	11	952	37.0	-156709.0	643.0	3174.0
24	17	31	11	953	38.0	-160011.0	644.0	3673.0
24	17	31	11	953	39.0	-163688.0	671.0	4579.0
24	17	31	11	954	40.0	-167561.0	682.0	4673.0
24	17	31	11	955	41.0	-170251.0	681.0	4191.0
24	17	31	11	955	42.0	-172021.0	669.0	4173.0
24	17	31	11	956	43.0	-172836.0	693.0	4276.0
24	17	31	11	957	44.0	-172833.0	709.0	4147.0
24	17	31	11	957	45.0	-172342.0	714.0	3302.0
24	17	31	11	958	47.0	-170913.0	724.0	3009.0
24	17	31	11	958	48.0	-170912.0	726.0	3462.0
24	17	31	11	959	49.0	-171257.0	739.0	4140.0
24	17	31	11	959	50.0	-171882.0	764.0	4176.0
24	17	31	11	960	51.0	-173111.0	784.0	4008.0
24	17	31	11	961	52.0	-174906.0	786.0	3845.0
24	17	31	11	993	53.0	-177176.0	804.0	3726.0
24	17	31	11	994	54.0	-179326.0	837.0	3263.0
24	17	31	11	994	55.0	-181826.0	844.0	3191.0
24	17	31	11	995	56.0	-184490.0	837.0	2551.0
24	17	31	11	996	57.0	-187309.0	813.0	2268.0
24	17	31	11	996	58.0	-190456.0	799.0	2796.0
24	17	31	11	997	59.0	-193946.0	803.0	3461.0
24	17	31	11	998	60.0	-196994.0	798.0	3339.0
24	17	31	11	999	61.0	-199287.0	809.0	3696.0
24	17	31	12	0	62.0	-200761.0	789.0	3108.0
24	17	31	12	0	63.0	-201435.0	781.0	2658.0
24	17	31	12	1	64.0	-201205.0	769.0	2363.0
24	17	31	12	2	65.0	-200510.0	754.0	2287.0
24	17	31	12	2	66.0	-199584.0	733.0	1774.0
24	17	31	12	3	67.0	-198142.0	742.0	1979.0
24	17	31	12	4	69.0	-194933.0	716.0	2911.0
24	17	31	12	4	70.0	-194120.0	708.0	2989.0
24	17	31	12	5	71.0	-193089.0	714.0	2677.0
24	17	31	12	5	72.0	-192011.0	718.0	1991.0
24	17	31	12	6	73.0	-191490.0	724.0	1759.0
24	17	31	12	7	74.0	-191442.0	711.0	2109.0
24	17	31	12	38	75.0	-191207.0	711.0	1691.0
24	17	31	12	83	76.0	-190802.0	688.0	966.0
24	17	31	12	84	77.0	-190928.0	690.0	1578.0
24	17	31	12	85	78.0	-191381.0	662.0	2457.0
24	17	31	12	85	79.0	-191317.0	648.0	2739.0
24	17	31	12	86	80.0	-191349.0	648.0	3160.0
24	17	31	12	86	81.0	-191634.0	643.0	2836.0
24	17	31	12	87	82.0	-191839.0	630.0	2375.0
24	17	31	12	88	83.0	-191750.0	622.0	2133.0
24	17	31	12	88	84.0	-192048.0	609.0	2271.0
24	17	31	12	89	85.0	-193091.0	595.0	1964.0
24	17	31	12	90	86.0	-194319.0	565.0	1254.0
24	17	31	12	90	87.0	-195179.0	559.0	2016.0
24	17	31	12	91	88.0	-195921.0	550.0	2765.0
24	17	31	12	91	89.0	-196364.0	542.0	3139.0
24	17	31	12	92	91.0	-196079.0	522.0	3314.0
24	17	31	12	93	92.0	-195616.0	511.0	2737.0
24	17	31	12	93	114.0	-210234.0	403.0	2390.0
24	17	31	12	94	115.0	-211616.0	385.0	2281.0
24	17	31	12	95	116.0	-212751.0	381.0	2135.0
24	17	31	12	95	117.0	-213333.0	401.0	1883.0
24	17	31	12	96	118.0	-213439.0	413.0	2100.0
24	17	31	12	97	119.0	-213034.0	414.0	2793.0
24	17	31	12	98	120.0	-212362.0	416.0	2798.0
24	17	31	12	129	121.0	-211826.0	434.0	2563.0
24	17	31	12	130	122.0	-211269.0	447.0	2535.0
24	17	31	12	131	123.0	-210354.0	431.0	1949.0
24	17	31	12	131	124.0	-209147.0	424.0	1877.0
24	17	31	12	132	125.0	-208112.0	433.0	1601.0
24	17	31	12	133	126.0	-207369.0	461.0	1396.0
24	17	31	12	134	127.0	-206746.0	463.0	1336.0
24	17	31	12	134	128.0	-206247.0	450.0	1521.0
24	17	31	12	135	129.0	-206026.0	439.0	1697.0
24	17	31	12	135	130.0	-205914.0	453.0	1117.0
24	17	31	12	136	131.0	-205526.0	462.0	775.0
24	17	31	12	137	132.0	-205092.0	458.0	217.0
24	17	31	12	137	133.0	-203980.0	458.0	-251.0
24	17	31	12	138	134.0	-202154.0	458.0	-761.0
24	17	31	12	139	135.0	-200486.0	468.0	-766.0
24	17	31	12	139	136.0	-199044.0	481.0	-1377.0
24	17	31	12	140	137.0	-197270.0	465.0	-1364.0
24	17	31	12	140	138.0	-195564.0	468.0	-642.0
24	17	31	12	141	139.0	-194224.0	479.0	-443.0
24	17	31	12	142	140.0	-193027.0	473.0	-24.0
24	17	31	12	142	141.0	-192041.0	471.0	-235.0
24	17	31	12	143	142.0	-191532.0	469.0	-736.0
24	17	31	12	173	143.0	-191842.0	479.0	-666.0
24	17	31	12	174	144.0	-192219.0	507.0	-622.0
24	17	31	12	175	145.0	-192470.0	525.0	-1005.0
24	17	31	12	175	146.0	-192903.0	518.0	-1382.0
24	17	31	12	176	147.0	-193711.0	491.0	-369.0
24	17	31	12	177	148.0	-194251.0	504.0	462.0
24	17	31	12	177	149.0	-194422.0	494.0	468.0
24	17	31	12	178	150.0	-194619.0	502.0	984.0
24	17	31	12	179	151.0	-194841.0	492.0	764.0
24	17	31	12	179	152.0	-194959.0	484.0	329.0
24	17	31	12	180	153.0	-195231.0	474.0	217.0
24	17	31	12	181	154.0	-196011.0	461.0	291.0
24	17	31	12	181	155.0	-197042.0	456.0	182.0
24	17	31	12	182	156.0	-198121.0	448.0	298.0
24	17	31	12	182	157.0	-198556.0	443.0	578.0
24	17	31	12	183	159.0	-199959.0	417.0	1584.0
24	17	31	12	184	160.0	-201214.0	426.0	1573.0
24	17	31	12	184	161.0	-202724.0	428.0	1484.0
24	17	31	12	185	162.0	-204463.0	421.0	958.0
24	17	31	12	185	163.0	-206813.0	410.0	654.0
24	17	31	12	186	164.0	-209242.0	416.0	835.0
24	17	31	12	218	165.0	-211378.0	430.0	606.0
24	17	31	12	219	166.0	-213232.0	449.0	600.0
24	17	31	12	219	167.0	-214717.0	439.0	1378.0
24	17	31	12	220	168.0	-215404.0	420.0	2291.0
24	17	31	12	221	169.0	-215520.0	414.0	2421.0
24	17	31	12	222	170.0	-215890.0	400.0	2031.0
24	17	31	12	222	171.0	-216387.0	389.0	2148.0
24	17	31	12	223	172.0	-216496.0	361.0	1706.0
24	17	31	12	223	173.0	-216552.0	326.0	1623.0
24	17	31	12	224	174.0	-216357.0	333.0	1514.0
24	17	31	12	225	175.0	-215911.0	313.0	1205.0
24	17	31	12	225	176.0	-215470.0	299.0	1048.0
24	17	31	12	226	177.0	-215312.0	273.0	1311.0
24	17	31	12	227	178.0	-214802.0	262.0	1875.0
24	17	31	12	227	179.0	-214382.0	254.0	2309.0
24	17	31	12	228	181.0	-212979.0	236.0	1938.0
24	17	31	12	229	182.0	-212147.0	226.0	1851.0
24	17	31	12	229	183.0	-211641.0	214.0	1320.0
24	17	31	12	230	184.0	-211167.0	201.0	747.0
24	17	31	12	230	185.0	-210753.0	209.0	244.0
24	17	31	12	231	186.0	-210844.0	187.0	1015.0
24	17	31	12	231	187.0	-210857.0	176.0	1398.0
24	17	31	12	264	188.0	-210822.0	157.0	1748.0
24	17	31	12	265	189.0	-210316.0	146.0	1994.0
24	17	31	12	266	190.0	-210041.0	119.0	1546.0
24	17	31	12	266	191.0	-210278.0	79.0	1669.0
24	17	31	12	267	192.0	-210553.0	66.0	1794.0
24	17	31	12	267	193.0	-211373.0	39.0	1318.0
24	17	31	12	268	194.0	-212674.0	27.0	1346.0
24	17	31	12	269	195.0	-213797.0	-7.0	653.0
24	17	31	12	309	196.0	-214840.0	-22.0	396.0
24	17	31	12	310	197.0	-215623.0	-50.0	1256.0
24	17	31	12	311	198.0	-216646.0	-81.0	1656.0
24	17	31	12	311	199.0	-217553.0	-107.0	1762.0
24	17	31	12	312	200.0	-217761.0	-127.0	977.0
24	17	31	12	313	201.0	-217976.0	-157.0	-351.0
24	17	31	12	313	202.0	-218584.0	-191.0	-2354.0
24	17	31	12	314	204.0	-218969.0	-229.0	-4334.0
24	17	31	12	315	205.0	-218566.0	-254.0	-6019.0
24	17	31	12	315	206.0	-218038.0	-252.0	-6881.0
24	17	31	12	316	207.0	-217051.0	-258.0	-7602.0
24	17	31	12	317	208.0	-216064.0	-292.0	-7627.0
24	17	31	12	317	209.0	-214681.0	-342.0	-7733.0
24	17	31	12	318	210.0	-212497.0	-332.0	-7986.0
24	17	31	12	318	211.0	-209691.0	-371.0	-7140.0
24	17	31	12	319	212.0	-206671.0	-396.0	-3886.0
24	17	31	12	320	226.0	-211461.0	-676.0	5627.0
24	17	31	12	320	227.0	-207686.0	-694.0	6578.0
24	17	31	12	321	228.0	-199791.0	-717.0	7503.0
24	17	31	12	322	229.0	-183399.0	-711.0	8278.0
24	17	31	12	322	230.0	-162446.0	-717.0	8036.0
24	17	31	12	323	231.0	-139392.0	-736.0	6947.0
24	17	31	12	323	232.0	-119377.0	-737.0	5889.0
24	17	31	12	353	233.0	-109506.0	-721.0	4673.0
24	17	31	12	354	234.0	-109859.0	-740.0	3623.0
24	17	31	12	355	235.0	-121112.0	-743.0	2755.0
24	17	31	12	355	236.0	-141514.0	-767.0	2458.0
24	17	31	12	356	237.0	-168459.0	-797.0	2437.0
24	17	31	12	357	238.0	-198033.0	-818.0	2576.0
24	17	31	12	358	239.0	-226369.0	-826.0	2476.0
24	17	31	12	358	240.0	-249864.0	-841.0	2295.0
24	17	31	12	359	241.0	-265002.0	-862.0	1171.0
24	17	31	12	360	242.0	-271546.0	-885.0	552.0
24	17	31	12	360	243.0	-270619.0	-907.0	34.0
24	17	31	12	361	244.0	-263441.0	-925.0	-845.0
24	17	31	12	362	245.0	-253031.0	-947.0	-1743.0
24	17	31	12	362	246.0	-241831.0	-976.0	-1995.0
24	17	31	12	363	247.0	-230762.0	-995.0	-1723.0
24	17	31	12	364	249.0	-220152.0	-1039.0	-800.0
24	17	31	12	364	250.0	-216893.0	-1050.0	-1272.0
24	17	31	12	365	251.0	-213508.0	-1041.0	-1836.0
24	17	31	12	366	252.0	-210004.0	-1033.0	-1961.0
24	17	31	12	366	253.0	-208244.0	-1014.0	-1918.0
24	17	31	12	367	254.0	-207579.0	-1035.0	-2155.0
24	17	31	12	398	255.0	-205719.0	-1055.0	-2274.0
24	17	31	12	399	0.0	-201881.0	-1049.0	-2491.0
24	17	31	12	399	1.0	-196612.0	-1059.0	-2460.0
24	17	31	12	400	2.0	-190706.0	-1072.0	-1504.0
24	17	31	12	400	3.0	-184843.0	-1076.0	-1107.0
24	17	31	12	401	4.0	-179918.0	-1087.0	-1001.0
24	17	31	12	402	5.0	-176448.0	-1114.0	-1411.0
24	17	31	12	402	6.0	-174445.0	-1131.0	-1562.0
24	17	31	12	403	7.0	-173457.0	-1159.0	-2067.0
24	17	31	12	403	8.0	-173371.0	-1147.0	-2493.0
24	17	31	12	404	9.0	-174982.0	-1144.0	-3268.0
24	17	31	12	404	10.0	-178240.0	-1179.0	-2924.0
24	17	31	12	405	11.0	-182350.0	-1199.0	-2774.0
24	17	31	12	406	12.0	-187484.0	-1211.0	-2386.0
24	17	31	12	406	13.0	-193322.0	-1214.0	-2087.0
24	17	31	12	407	15.0	-205312.0	-1238.0	-2714.0
24	17	31	12	408	16.0	-210690.0	-1265.0	-2750.0
24	17	31	12	409	17.0	-214657.0	-1247.0	-3517.0
24	17	31	12	409	18.0	-216749.0	-1261.0	-4051.0
24	17	31	12	410	19.0	-216872.0	-1271.0	-4607.0
24	17	31	12	410	20.0	-215757.0	-1281.0	-4532.0
24	17	31	12	443	21.0	-213459.0	-1285.0	-3982.0
24	17	31	12	443	22.0	-209977.0	-1283.0	-3837.0
24	17	31	12	444	23.0	-205286.0	-1294.0	-3827.0
24	17	31	12	444	24.0	-200124.0	-1312.0	-3684.0
24	17	31	12	445	25.0	-194835.0	-1322.0	-3972.0
24	17	31	12	446	26.0	-189962.0	-1336.0	-4763.0
24	17	31	12	446	27.0	-186421.0	-1376.0	-4846.0
24	17	31	12	447	28.0	-184065.0	-1384.0	-5203.0
24	17	31	12	454	29.0	-183194.0	-1389.0	-5953.0
24	17	31	12	455	30.0	-183905.0	-1399.0	-5716.0
24	17	31	12	456	31.0	-185522.0	-1429.0	-5394.0
24	17	31	12	456	32.0	-187634.0	-1455.0	-4873.0
24	17	31	12	457	33.0	-190545.0	-1467.0	-5152.0
24	17	31	12	457	34.0	-193897.0	-1482.0	-5244.0
24	17	31	12	458	35.0	-197303.0	-1509.0	-5574.0
24	17	31	12	458	37.0	-203452.0	-1532.0	-6333.0
24	17	31	12	459	38.0	-207184.0	-1544.0	-6914.0
24	17	31	12	459	39.0	-210922.0	-1559.0	-7751.0
24	17	31	12	460	40.0	-214382.0	-1549.0	-7052.0
24	17	31	12	460	41.0	-216996.0	-1568.0	-6329.0
24	17	31	12	461	42.0	-218855.0	-1566.0	-5864.0
24	17	31	12	461	43.0	-220309.0	-1574.0	-6142.0
24	17	31	12	489	44.0	-221594.0	-1571.0	-6200.0
24	17	31	12	489	45.0	-222286.0	-1571.0	-6374.0
24	17	31	12	490	46.0	-222636.0	-1604.0	-6593.0
24	17	31	12	491	47.0	-222349.0	-1613.0	-6906.0
24	17	31	12	491	48.0	-221917.0	-1618.0	-7271.0
24	17	31	12	492	49.0	-222102.0	-1644.0	-7992.0
24	17	31	12	492	50.0	-222302.0	-1649.0	-7733.0
24	17	31	12	493	51.0	-222308.0	-1656.0	-7062.0
24	17	31	12	493	52.0	-222396.0	-1657.0	-6197.0
24	17	31	12	494	53.0	-222200.0	-1664.0	-6089.0
24	17	31	12	495	54.0	-221222.0	-1658.0	-6542.0
24	17	31	12	495	55.0	-219862.0	-1661.0	-6739.0
24	17	31	12	496	56.0	-218169.0	-1657.0	-6684.0
24	17	31	12	496	57.0	-215546.0	-1648.0	-7387.0
24	17	31	12	497	58.0	-212931.0	-1646.0	-7577.0
24	17	31	12	497	60.0	-207450.0	-1632.0	-8086.0
24	17	31	12	498	61.0	-204917.0	-1608.0	-7631.0
24	17	31	12	499	62.0	-202424.0	-1584.0	-6974.0
24	17	31	12	499	63.0	-200653.0	-1566.0	-7129.0
24	17	31	12	500	64.0	-199756.0	-1541.0	-7362.0
24	17	31	12	500	65.0	-199545.0	-1522.0	-7994.0
24	17	31	12	533	66.0	-199516.0	-1483.0	-7881.0
24	17	31	12	533	67.0	-199716.0	-1451.0	-8398.0
24	17	31	12	534	68.0	-200044.0	-1416.0	-8667.0
24	17	31	12	535	69.0	-200188.0	-1404.0	-8664.0
24	17	31	12	535	70.0	-199762.0	-1359.0	-8037.0
24	17	31	12	536	71.0	-199085.0	-1341.0	-7092.0
24	17	31	12	536	72.0	-198520.0	-1289.0	-6316.0
24	17	31	12	537	73.0	-197749.0	-1241.0	-6091.0
24	17	31	12	537	74.0	-196727.0	-1204.0	-6446.0
24	17	31	12	538	75.0	-195833.0	-1168.0	-6585.0
24	17	31	12	538	76.0	-195085.0	-1104.0	-6066.0
24	17	31	12	539	77.0	-194668.0	-1056.0	-5984.0
24	17	31	12	540	78.0	-194038.0	-1024.0	-5927.0
24	17	31	12	540	79.0	-193114.0	-969.0	-5792.0
24	17	31	12	541	80.0	-192476.0	-907.0	-5291.0
24	17	31	12	541	82.0	-192091.0	-807.0	-4197.0
24	17	31	12	542	83.0	-192189.0	-761.0	-3886.0
24	17	31	12	542	84.0	-192124.0	-682.0	-3733.0
24	17	31	12	543	85.0	-192584.0	-626.0	-3768.0
24	17	31	12	552	86.0	-193984.0	-572.0	-3677.0
24	17	31	12	552	87.0	-195652.0	-497.0	-4089.0
24	17	31	12	553	88.0	-196974.0	-417.0	-4483.0
24	17	31	12	578	89.0	-198258.0	-339.0	-4422.0
24	17	31	12	579	90.0	-200262.0	-272.0	-3531.0
24	17	31	12	579	91.0	-202981.0	-207.0	-2939.0
24	17	31	12	580	92.0	-205856.0	-146.0	-3011.0
24	17	31	12	581	93.0	-208942.0	-80.0	-2452.0
24	17	31	12	581	94.0	-212037.0	-16.0	-2388.0
24	17	31	12	582	95.0	-214984.0	41.0	-2384.0
24	17	31	12	582	96.0	-217867.0	112.0	-2509.0
24	17	31	12	583	97.0	-221032.0	176.0	-2473.0
24	17	31	12	583	98.0	-224539.0	225.0	-2619.0
24	17	31	12	584	99.0	-227472.0	279.0	-2874.0
24	17	31	12	584	100.0	-229774.0	338.0	-2309.0
24	17	31	12	585	101.0	-231929.0	401.0	-1422.0
24	17	31	12	586	102.0	-233632.0	458.0	-1229.0
24	17	31	12	586	103.0	-234646.0	502.0	-1164.0
24	17	31	12	587	105.0	-234409.0	601.0	-1097.0
24	17	31	12	587	106.0	-233264.0	656.0	-1541.0
24	17	31	12	588	107.0	-231247.0	724.0	-1608.0
24	17	31	12	589	108.0	-228549.0	774.0	-1879.0
24	17	31	12	589	109.0	-225082.0	809.0	-1962.0
24	17	31	12	590	110.0	-220011.0	868.0	-1583.0
24	17	31	12	623	111.0	-210550.0	920.0	-951.0
24	17	31	12	623	112.0	-193239.0	961.0	-488.0
24	17	31	12	624	113.0	-174722.0	988.0	-472.0
24	17	31	12	625	114.0	-170337.0	1021.0	-379.0
24	17	31	12	625	115.0	-183344.0	1066.0	-470.0
24	17	31	12	626	116.0	-197321.0	1089.0	-1098.0
24	17	31	12	626	117.0	-214554.0	1128.0	-1166.0
24	17	31	12	627	118.0	-231361.0	1153.0	-1429.0
24	17	31	12	627	119.0	-238489.0	1183.0	-1589.0
24	17	31	12	628	120.0	-244079.0	1212.0	-1615.0
24	17	31	12	629	121.0	-241877.0	1233.0	-951.0
24	17	31	12	629	122.0	-236505.0	1264.0	-466.0
24	17	31	12	630	123.0	-232022.0	1306.0	-430.0
24	17	31	12	630	124.0	-226286.0	1328.0	-795.0
24	17	31	12	631	125.0	-219356.0	1359.0	-1321.0
24	17	31	12	631	127.0	-207707.0	1410.0	-1766.0
24	17	31	12	632	128.0	-201505.0	1409.0	-2354.0
24	17	31	12	633	129.0	-194727.0	1424.0	-2225.0
24	17	31	12	633	130.0	-187621.0	1466.0	-1977.0
24	17	31	12	634	131.0	-180121.0	1487.0	-1471.0
24	17	31	12	634	132.0	-171527.0	1513.0	-966.0
24	17	31	12	635	133.0	-164326.0	1533.0	-699.0
24	17	31	12	668	134.0	-160744.0	1557.0	-1254.0
24	17	31	12	668	135.0	-161763.0	1565.0	-1251.0
24	17	31	12	669	136.0	-166191.0	1558.0	-1374.0
24	17	31	12	669	137.0	-170859.0	1568.0	-2045.0
24	17	31	12	670	138.0	-175808.0	1600.0	-2199.0
24	17	31	12	671	139.0	-181478.0	1608.0	-2063.0
24	17	31	12	671	140.0	-186199.0	1607.0	-1143.0
24	17	31	12	672	141.0	-189257.0	1601.0	-765.0
24	17	31	12	672	142.0	-190913.0	1604.0	-467.0
24	17	31	12	673	143.0	-191617.0	1621.0	-562.0
24	17	31	12	673	144.0	-191286.0	1627.0	-1137.0
24	17	31	12	674	145.0	-190506.0	1616.0	-884.0
24	17	31	12	675	146.0	-190080.0	1619.0	-714.0
24	17	31	12	675	147.0	-189449.0	1626.0	-999.0
24	17	31	12	676	148.0	-188886.0	1635.0	-1691.0
24	17	31	12	677	150.0	-188546.0	1626.0	-1172.0
24	17	31	12	677	151.0	-188939.0	1603.0	-420.0
24	17	31	12	678	152.0	-189302.0	1629.0	-462.0
24	17	31	12	678	153.0	-190799.0	1653.0	-299.0
24	17	31	12	679	154.0	-192700.0	1657.0	-336.0
24	17	31	12	679	155.0	-194579.0	1658.0	-1054.0
24	17	31	12	717	156.0	-196754.0	1656.0	-1461.0
24	17	31	12	718	157.0	-199510.0	1663.0	-1481.0
24	17	31	12	718	158.0	-202997.0	1659.0	-2522.0
24	17	31	12	719	159.0	-206793.0	1656.0	-2526.0
24	17	31	12	720	160.0	-210447.0	1640.0	-1869.0
24	17	31	12	758	161.0	-214967.0	1626.0	-1177.0
24	17	31	12	759	162.0	-218891.0	1617.0	-1116.0
24	17	31	12	767	163.0	-222439.0	1634.0	-982.0
24	17	31	12	767	164.0	-225721.0	1633.0	-1031.0
24	17	31	12	768	165.0	-228361.0	1615.0	-1439.0
24	17	31	12	768	166.0	-230391.0	1598.0	-2016.0
24	17	31	12	769	167.0	-231402.0	1590.0	-2433.0
24	17	31	12	770	168.0	-231819.0	1571.0	-2817.0
24	17	31	12	770	169.0	-232055.0	1544.0	-2652.0
24	17	31	12	771	170.0	-232399.0	1527.0	-1591.0
24	17	31	12	771	172.0	-230875.0	1512.0	-518.0
24	17	31	12	772	173.0	-229306.0	1497.0	-987.0
24	17	31	12	772	174.0	-227563.0	1486.0	-930.0
24	17	31	12	773	175.0	-226157.0	1488.0	-1119.0
24	17	31	12	773	176.0	-224386.0	1476.0	-1638.0
24	17	31	12	774	194.0	-213634.0	1126.0	-1474.0
24	17	31	12	774	195.0	-214297.0	1128.0	-1651.0
24	17	31	12	775	196.0	-214846.0	1117.0	-1379.0
24	17	31	12	776	197.0	-215987.0	1124.0	-1669.0
24	17	31	12	776	198.0	-216597.0	1122.0	-2573.0
24	17	31	12	777	199.0	-216532.0	1119.0	-2082.0
24	17	31	12	777	200.0	-215868.0	1100.0	-1686.0
24	17	31	12	802	201.0	-215236.0	1092.0	-1273.0
24	17	31	12	803	202.0	-214995.0	1095.0	-1259.0
24	17	31	12	803	203.0	-215186.0	1083.0	-1042.0
24	17	31	12	804	204.0	-215579.0	1053.0	-1526.0
24	17	31	12	805	205.0	-216148.0	1031.0	-1643.0
24	17	31	12	805	206.0	-216279.0	1029.0	-1861.0
24	17	31	12	806	207.0	-216913.0	1020.0	-2181.0
24	17	31	12	807	208.0	-218107.0	1009.0	-2157.0
24	17	31	12	807	209.0	-219685.0	986.0	-1650.0
24	17	31	12	808	210.0	-221607.0	984.0	-1781.0
24	17	31	12	809	211.0	-223169.0	972.0	-1246.0
24	17	31	12	809	212.0	-224682.0	953.0	-706.0
24	17	31	12	810	213.0	-226062.0	935.0	-599.0
24	17	31	12	810	214.0	-227095.0	914.0	-1005.0
24	17	31	12	818	215.0	-228126.0	917.0	-1061.0
24	17	31	12	819	217.0	-230239.0	874.0	-2736.0
24	17	31	12	820	218.0	-231218.0	869.0	-3196.0
24	17	31	12	820	219.0	-232406.0	858.0	-3274.0
24	17	31	12	821	220.0	-233028.0	858.0	-2920.0
24	17	31	12	821	221.0	-233005.0	886.0	-2356.0
24	17	31	12	822	222.0	-232518.0	856.0	-2277.0
24	17	31	12	848	223.0	-231727.0	851.0	-2425.0
24	17	31	12	848	224.0	-230302.0	849.0	-2813.0
24	17	31	12	849	225.0	-227852.0	846.0	-3047.0
24	17	31	12	850	226.0	-225644.0	836.0	-3099.0
24	17	31	12	850	227.0	-223672.0	811.0	-3567.0
24	17	31	12	851	228.0	-221863.0	801.0	-3758.0
24	17	31	12	851	229.0	-219729.0	773.0	-3489.0
24	17	31	12	866	230.0	-218139.0	774.0	-2592.0
24	17	31	12	866	231.0	-217281.0	777.0	-1938.0
24	17	31	12	867	232.0	-216517.0	760.0	-1849.0
24	17	31	12	867	233.0	-215715.0	735.0	-2446.0
24	17	31	12	868	234.0	-214902.0	721.0	-2909.0
24	17	31	12	869	235.0	-214546.0	699.0	-3261.0
24	17	31	12	869	236.0	-214034.0	684.0	-3762.0
24	17	31	12	870	237.0	-213969.0	669.0	-3882.0
24	17	31	12	870	239.0	-213174.0	628.0	-3958.0
24	17	31	12	871	240.0	-212809.0	609.0	-2994.0
24	17	31	12	871	241.0	-211996.0	594.0	-2527.0
24	17	31	12	872	242.0	-211139.0	590.0	-2698.0
24	17	31	12	872	243.0	-209967.0	590.0	-2863.0
24	17	31	12	873	244.0	-209102.0	583.0	-2786.0
24	17	31	12	874	245.0	-209092.0	563.0	-2794.0
24	17	31	12	895	246.0	-209547.0	556.0	-3067.0
24	17	31	12	896	247.0	-210106.0	554.0	-3199.0
24	17	31	12	897	248.0	-211933.0	529.0	-3134.0
24	17	31	12	897	249.0	-213759.0	492.0	-2549.0
24	17	31	12	898	250.0	-215447.0	471.0	-1336.0
24	17	31	12	898	251.0	-217735.0	453.0	-976.0
24	17	31	12	899	252.0	-220292.0	420.0	-731.0
24	17	31	12	900	253.0	-222571.0	413.0	-300.0
24	17	31	12	900	254.0	-224301.0	398.0	-394.0
24	17	31	12	901	255.0	-225104.0	364.0	-490.0
24	17	31	12	901	0.0	-226189.0	322.0	-607.0
24	17	31	12	902	1.0	-227813.0	289.0	-869.0
24	17	31	12	903	2.0	-228811.0	284.0	-1000.0
24	17	31	12	903	3.0	-229606.0	264.0	-677.0
24	17	31	12	904	4.0	-230082.0	236.0	-401.0
24	17	31	12	905	6.0	-230397.0	186.0	771.0
24	17	31	12	905	7.0	-230407.0	144.0	509.0
24	17	31	12	906	8.0	-230221.0	140.0	70.0
24	17	31	12	906	9.0	-230222.0	128.0	131.0
24	17	31	12	907	10.0	-230370.0	89.0	-71.0
24	17	31	12	907	11.0	-230393.0	84.0	-242.0
24	17	31	12	984	12.0	-229803.0	41.0	-651.0
24	17	31	12	985	13.0	-229426.0	32.0	-509.0
24	17	31	12	985	14.0	-228757.0	11.0	353.0
24	17	31	12	986	15.0	-228155.0	-1.0	793.0
24	17	31	12	987	16.0	-227172.0	-20.0	1257.0
24	17	31	12	987	17.0	-225968.0	-59.0	1134.0
24	17	31	12	988	18.0	-224395.0	-103.0	774.0
24	17	31	12	988	19.0	-222461.0	-132.0	931.0
24	17	31	12	989	20.0	-220409.0	-152.0	1058.0
24	17	31	12	990	21.0	-218337.0	-192.0	331.0
24	17	31	12	990	22.0	-216054.0	-256.0	-127.0
24	17	31	12	991	23.0	-213190.0	-289.0	799.0
24	17	31	12	991	24.0	-210254.0	-321.0	1319.0
24	17	31	12	992	25.0	-207812.0	-361.0	1560.0
24	17	31	12	993	26.0	-205342.0	-400.0	2198.0
24	17	31	12	993	51.0	-227057.0	-1262.0	-4096.0
24	17	31	12	994	52.0	-227254.0	-1284.0	-5249.0
24	17	31	12	994	53.0	-227348.0	-1303.0	-6181.0
24	17	31	12	995	54.0	-226882.0	-1331.0	-6257.0
24	17	31	12	995	55.0	-225768.0	-1353.0	-6489.0
24	17	31	12	996	56.0	-224370.0	-1367.0	-7834.0
24	17	31	13	27	57.0	-222829.0	-1400.0	-8771.0
24	17	31	13	28	58.0	-221337.0	-1427.0	-9706.0
24	17	31	13	28	59.0	-219230.0	-1485.0	-10364.0
24	17	31	13	29	60.0	-216261.0	-1500.0	-8718.0
24	17	31	13	30	61.0	-212884.0	-1549.0	-4741.0
24	17	31	13	30	62.0	-209801.0	-1607.0	-1394.0
24	17	31	13	31	63.0	-206587.0	-1652.0	2066.0
24	17	31	13	31	64.0	-203691.0	-1684.0	2451.0
24	17	31	13	32	65.0	-202077.0	-1713.0	975.0
24	17	31	13	33	66.0	-201027.0	-1746.0	141.0
24	17	31	13	33	67.0	-201139.0	-1799.0	508.0
24	17	31	13	34	68.0	-202958.0	-1817.0	3128.0
24	17	31	13	35	69.0	-206337.0	-1851.0	5049.0
24	17	31	13	36	70.0	-209537.0	-1879.0	6299.0
24	17	31	13	37	71.0	-212172.0	-1928.0	5980.0
24	17	31	13	37	73.0	-215700.0	-1978.0	4732.0
24	17	31	13	38	74.0	-216393.0	-2035.0	3951.0
24	17	31	13	38	75.0	-216642.0	-2057.0	3631.0
24	17	31	13	39	76.0	-215961.0	-2099.0	3948.0
24	17	31	13	40	77.0	-210076.0	-2118.0	4204.0
24	17	31	13	40	78.0	-198434.0	-2136.0	5289.0
24	17	31	13	73	79.0	-185457.0	-2176.0	5849.0
24	17	31	13	74	80.0	-170090.0	-2197.0	5421.0
24	17	31	13	75	81.0	-156874.0	-2227.0	4506.0
24	17	31	13	75	82.0	-149242.0	-2246.0	4098.0
24	17	31	13	76	83.0	-148504.0	-2300.0	4101.0
24	17	31	13	76	84.0	-154776.0	-2322.0	3877.0
24	17	31	13	77	85.0	-167215.0	-2333.0	4059.0
24	17	31	13	78	86.0	-185806.0	-2375.0	4228.0
24	17	31	13	78	87.0	-209879.0	-2402.0	3579.0
24	17	31	13	79	88.0	-236066.0	-2439.0	3050.0
24	17	31	13	79	89.0	-260401.0	-2476.0	2948.0
24	17	31	13	80	90.0	-279151.0	-2507.0	2341.0
24	17	31	13	81	91.0	-290134.0	-2537.0	1137.0
24	17	31	13	81	92.0	-291047.0	-2574.0	569.0
24	17	31	13	82	93.0	-282566.0	-2619.0	860.0
24	17	31	13	82	96.0	-231263.0	-2707.0	849.0
24	17	31	13	83	97.0	-219797.0	-2739.0	-32.0
24	17	31	13	84	98.0	-212860.0	-2755.0	-310.0
24	17	31	13	85	99.0	-209183.0	-2767.0	-472.0
24	17	31	13	85	100.0	-209039.0	-2779.0	-1142.0
24	17	31	13	86	101.0	-211611.0	-2782.0	-1686.0
24	17	31	13	119	102.0	-216453.0	-2804.0	-1402.0
24	17	31	13	120	103.0	-222120.0	-2824.0	-689.0
24	17	31	13	120	104.0	-226031.0	-2844.0	-552.0
24	17	31	13	121	105.0	-226832.0	-2868.0	-16.0
24	17	31	13	122	106.0	-226761.0	-2899.0	-196.0
24	17	31	13	122	107.0	-225749.0	-2922.0	-521.0
24	17	31	13	123	108.0	-223836.0	-2947.0	-1071.0
24	17	31	13	124	109.0	-220707.0	-2956.0	-1839.0
24	17	31	13	125	110.0	-217699.0	-2979.0	-2074.0
24	17	31	13	125	111.0	-213903.0	-3034.0	-2420.0
24	17	31	13	126	112.0	-208875.0	-3048.0	-2562.0
24	17	31	13	127	113.0	-203170.0	-3055.0	-2261.0
24	17	31	13	127	114.0	-198057.0	-3070.0	-1616.0
24	17	31	13	128	115.0	-195118.0	-3097.0	-1204.0
24	17	31	13	129	116.0	-193472.0	-3124.0	-1624.0
24	17	31	13	129	118.0	-195630.0	-3184.0	-2694.0
24	17	31	13	130	119.0	-198122.0	-3207.0	-2765.0
24	17	31	13	130	120.0	-200941.0	-3201.0	-3174.0
24	17	31	13	131	121.0	-204135.0	-3222.0	-4027.0
24	17	31	13	131	122.0	-206616.0	-3236.0	-3526.0
24	17	31	13	132	123.0	-207826.0	-3269.0	-3164.0
24	17	31	13	163	124.0	-208169.0	-3257.0	-2766.0
24	17	31	13	164	125.0	-207286.0	-3262.0	-3061.0
24	17	31	13	164	126.0	-206037.0	-3278.0	-3604.0
24	17	31	13	165	127.0	-205042.0	-3301.0	-3989.0
24	17	31	13	166	128.0	-203901.0	-3314.0	-4469.0
24	17	31	13	166	129.0	-202702.0	-3349.0	-4867.0
24	17	31	13	167	130.0	-202460.0	-3366.0	-5176.0
24	17	31	13	167	131.0	-203378.0	-3392.0	-5541.0
24	17	31	13	168	132.0	-204744.0	-3414.0	-5295.0
24	17	31	13	169	133.0	-206371.0	-3431.0	-4927.0
24	17	31	13	169	134.0	-208533.0	-3452.0	-4101.0
24	17	31	13	170	135.0	-210797.0	-3474.0	-3879.0
24	17	31	13	171	136.0	-212608.0	-3492.0	-3932.0
24	17	31	13	171	137.0	-214395.0	-3521.0	-4494.0
24	17	31	13	172	138.0	-216152.0	-3556.0	-4658.0
24	17	31	13	173	140.0	-218764.0	-3607.0	-5767.0
24	17	31	13	174	141.0	-220245.0	-3628.0	-6282.0
24	17	31	13	174	142.0	-221727.0	-3649.0	-6381.0
24	17	31	13	175	143.0	-223112.0	-3657.0	-6061.0
24	17	31	13	175	144.0	-224155.0	-3686.0	-5475.0
24	17	31	13	176	145.0	-224771.0	-3691.0	-5551.0
24	17	31	13	176	146.0	-225326.0	-3714.0	-5454.0
24	17	31	13	208	147.0	-225617.0	-3726.0	-5581.0
24	17	31	13	209	148.0	-225082.0	-3739.0	-5996.0
24	17	31	13	210	149.0	-223930.0	-3747.0	-6042.0
24	17	31	13	210	150.0	-222450.0	-3785.0	-6702.0
24	17	31	13	211	151.0	-220813.0	-3814.0	-7174.0
24	17	31	13	212	152.0	-218362.0	-3831.0	-6699.0
24	17	31	13	212	153.0	-215719.0	-3849.0	-6322.0
24	17	31	13	213	154.0	-212851.0	-3850.0	-5768.0
24	17	31	13	214	155.0	-209869.0	-3885.0	-5686.0
24	17	31	13	214	156.0	-206610.0	-3902.0	-5468.0
24	17	31	13	215	157.0	-203373.0	-3914.0	-5841.0
24	17	31	13	215	158.0	-200851.0	-3932.0	-6062.0
24	17	31	13	216	159.0	-198482.0	-3952.0	-6158.0
24	17	31	13	217	160.0	-196250.0	-3964.0	-6443.0
24	17	31	13	217	161.0	-193431.0	-3967.0	-6764.0
24	17	31	13	218	163.0	-189023.0	-3984.0	-5299.0
24	17	31	13	219	164.0	-187612.0	-3976.0	-5031.0
24	17	31	13	219	165.0	-186453.0	-3969.0	-4732.0
24	17	31	13	220	166.0	-185233.0	-3948.0	-4742.0
24	17	31	13	220	167.0	-184004.0	-3927.0	-4751.0
24	17	31	13	221	168.0	-183308.0	-3914.0	-5086.0
24	17	31	13	253	169.0	-182918.0	-3895.0	-5335.0
24	17	31	13	254	170.0	-182361.0	-3871.0	-5543.0
24	17	31	13	255	171.0	-181814.0	-3835.0	-5675.0
24	17	31	13	256	172.0	-181375.0	-3825.0	-5367.0
24	17	31	13	257	173.0	-181772.0	-3807.0	-5002.0
24	17	31	13	257	174.0	-182204.0	-3784.0	-3876.0
24	17	31	13	258	175.0	-182221.0	-3772.0	-3636.0
24	17	31	13	259	176.0	-181932.0	-3734.0	-4292.0
24	17	31	13	259	177.0	-180891.0	-3697.0	-4364.0
24	17	31	13	260	178.0	-179699.0	-3672.0	-4326.0
24	17	31	13	260	179.0	-179649.0	-3636.0	-4337.0
24	17	31	13	261	180.0	-180079.0	-3597.0	-4581.0
24	17	31	13	262	181.0	-180041.0	-3559.0	-4856.0
24	17	31	13	262	182.0	-180269.0	-3517.0	-4476.0
24	17	31	13	263	183.0	-180745.0	-3472.0	-3659.0
24	17	31	13	263	185.0	-182201.0	-3369.0	-2391.0
24	17	31	13	264	186.0	-183208.0	-3311.0	-2543.0
24	17	31	13	265	187.0	-184606.0	-3267.0	-2736.0
24	17	31	13	265	188.0	-186267.0	-3189.0	-2606.0
24	17	31	13	266	189.0	-187748.0	-3131.0	-3062.0
24	17	31	13	267	190.0	-189602.0	-3064.0	-3421.0
24	17	31	13	267	191.0	-190604.0	-2999.0	-2880.0
24	17	31	13	298	192.0	-191577.0	-2929.0	-2992.0
24	17	31	13	342	193.0	-193256.0	-2876.0	-2672.0
24	17	31	13	343	194.0	-194919.0	-2811.0	-1346.0
24	17	31	13	344	195.0	-196435.0	-2758.0	-686.0
24	17	31	13	345	196.0	-198411.0	-2709.0	-886.0
24	17	31	13	345	197.0	-201235.0	-2661.0	-1135.0
24	17	31	13	346	198.0	-204155.0	-2609.0	-883.0
24	17	31	13	347	199.0	-206747.0	-2561.0	-635.0
24	17	31	13	347	200.0	-209157.0	-2509.0	-1712.0
24	17	31	13	348	201.0	-211530.0	-2469.0	-884.0
24	17	31	13	349	202.0	-213583.0	-2409.0	-375.0
24	17	31	13	349	203.0	-215103.0	-2349.0	189.0
24	17	31	13	350	204.0	-216294.0	-2293.0	791.0
24	17	31	13	351	205.0	-216797.0	-2256.0	878.0
24	17	31	13	351	206.0	-216610.0	-2214.0	986.0
24	17	31	13	352	208.0	-216174.0	-2120.0	390.0
24	17	31	13	353	209.0	-215585.0	-2068.0	282.0
24	17	31	13	353	230.0	-199982.0	-1316.0	-1470.0
24	17	31	13	354	231.0	-193368.0	-1290.0	-2099.0
24	17	31	13	354	232.0	-187502.0	-1261.0	-1745.0
24	17	31	13	355	233.0	-183177.0	-1247.0	-1164.0
24	17	31	13	356	234.0	-180154.0	-1219.0	-703.0
24	17	31	13	356	235.0	-177483.0	-1199.0	-745.0
24	17	31	13	357	236.0	-175834.0	-1183.0	-970.0
24	17	31	13	388	237.0	-175181.0	-1177.0	-1417.0
24	17	31	13	389	238.0	-174885.0	-1177.0	-1797.0
24	17	31	13	390	239.0	-173729.0	-1148.0	-1799.0
24	17	31	13	390	240.0	-171123.0	-1139.0	-2229.0
24	17	31	13	391	241.0	-165969.0	-1144.0	-2389.0
24	17	31	13	392	242.0	-157830.0	-1144.0	-1924.0
24	17	31	13	392	243.0	-147179.0	-1128.0	-1166.0
24	17	31	13	393	244.0	-135627.0	-1123.0	-1060.0
24	17	31	13	394	245.0	-125569.0	-1112.0	-1205.0
24	17	31	13	394	246.0	-121898.0	-1088.0	-964.0
24	17	31	13	395	247.0	-124068.0	-1097.0	-1379.0
24	17	31	13	396	248.0	-129594.0	-1098.0	-1949.0
24	17	31	13	397	249.0	-138844.0	-1110.0	-2159.0
24	17	31	13	397	250.0	-149631.0	-1096.0	-2727.0
24	17	31	13	398	251.0	-160998.0	-1106.0	-2176.0
24	17	31	13	398	253.0	-180588.0	-1116.0	-1107.0
24	17	31	13	399	254.0	-187277.0	-1107.0	-731.0
24	17	31	13	400	255.0	-191220.0	-1089.0	-662.0
24	17	31	13	400	0.0	-192789.0	-1095.0	-916.0
24	17	31	13	401	1.0	-192901.0	-1085.0	-981.0
24	17	31	13	401	2.0	-192421.0	-1081.0	-1813.0
24	17	31	13	434	3.0	-191989.0	-1116.0	-2226.0
24	17	31	13	434	4.0	-191612.0	-1106.0	-2528.0
24	17	31	13	435	5.0	-191582.0	-1102.0	-2195.0
24	17	31	13	436	6.0	-191999.0	-1121.0	-1794.0
24	17	31	13	436	7.0	-192721.0	-1149.0	-1139.0
24	17	31	13	437	8.0	-193669.0	-1147.0	-568.0
24	17	31	13	438	9.0	-195031.0	-1151.0	-841.0
24	17	31	13	438	10.0	-196282.0	-1167.0	-843.0
24	17	31	13	439	11.0	-197270.0	-1198.0	-609.0
24	17	31	13	440	12.0	-198111.0	-1230.0	-1039.0
24	17	31	13	440	13.0	-199112.0	-1243.0	-1596.0
24	17	31	13	441	14.0	-200094.0	-1265.0	-1687.0
24	17	31	13	442	15.0	-200501.0	-1289.0	-1715.0
24	17	31	13	442	16.0	-200860.0	-1289.0	-1711.0
24	17	31	13	443	17.0	-201186.0	-1306.0	-836.0
24	17	31	13	443	19.0	-201371.0	-1342.0	148.0
24	17	31	13	444	20.0	-201577.0	-1385.0	-329.0
24	17	31	13	445	21.0	-201520.0	-1386.0	-500.0
24	17	31	13	445	22.0	-201218.0	-1412.0	-834.0
24	17	31	13	446	23.0	-200700.0	-1407.0	-1112.0
24	17	31	13	446	24.0	-200282.0	-1410.0	-1541.0
24	17	31	13	478	25.0	-200239.0	-1436.0	-1014.0
24	17	31	13	479	26.0	-200590.0	-1451.0	-504.0
24	17	31	13	480	27.0	-200897.0	-1450.0	-194.0
24	17	31	13	480	28.0	-201729.0	-1466.0	148.0
24	17	31	13	481	29.0	-203144.0	-1484.0	35.0
24	17	31	13	482	30.0	-204697.0	-1497.0	-447.0
24	17	31	13	482	31.0	-206574.0	-1542.0	-881.0
24	17	31	13	483	32.0	-207971.0	-1556.0	-1256.0
24	17	31	13	483	33.0	-208711.0	-1565.0	-1324.0
24	17	31	13	484	34.0	-209363.0	-1568.0	-1552.0
24	17	31	13	485	35.0	-209452.0	-1589.0	-1378.0
24	17	31	13	486	36.0	-209118.0	-1612.0	-676.0
24	17	31	13	486	37.0	-208512.0	-1637.0	227.0
24	17	31	13	487	38.0	-208216.0	-1654.0	23.0
24	17	31	13	488	39.0	-208362.0	-1681.0	317.0
24	17	31	13	488	41.0	-208667.0	-1714.0	-94.0
24	17	31	13	489	42.0	-208815.0	-1742.0	-550.0
24	17	31	13	490	43.0	-209267.0	-1742.0	-447.0
24	17	31	13	490	44.0	-209454.0	-1766.0	-1055.0
24	17	31	13	491	45.0	-209380.0	-1782.0	-890.0
24	17	31	13	491	46.0	-209464.0	-1781.0	-223.0
24	17	31	13	492	47.0	-209479.0	-1786.0	187.0
24	17	31	13	523	48.0	-209202.0	-1806.0	504.0
24	17	31	13	524	49.0	-209036.0	-1810.0	764.0
24	17	31	13	525	50.0	-208947.0	-1826.0	545.0
24	17	31	13	526	51.0	-208666.0	-1854.0	-36.0
24	17	31	13	526	52.0	-207955.0	-1868.0	-607.0
24	17	31	13	527	53.0	-206549.0	-1897.0	-640.0
24	17	31	13	528	54.0	-204894.0	-1911.0	-1249.0
24	17	31	13	528	55.0	-203171.0	-1912.0	-629.0
24	17	31	13	529	56.0	-200956.0	-1929.0	-262.0
24	17	31	13	530	57.0	-199057.0	-1955.0	439.0
24	17	31	13	530	58.0	-197809.0	-1943.0	621.0
24	17	31	13	531	59.0	-196149.0	-1951.0	403.0
24	17	31	13	532	60.0	-194026.0	-1944.0	-317.0
24	17	31	13	532	61.0	-192467.0	-1945.0	-742.0
24	17	31	13	533	62.0	-191005.0	-1982.0	-862.0
24	17	31	13	534	64.0	-189497.0	-1972.0	-2463.0
24	17	31	13	534	65.0	-189469.0	-1973.0	-2179.0
24	17	31	13	535	66.0	-189642.0	-1954.0	-1649.0
24	17	31	13	535	67.0	-190427.0	-1960.0	-853.0
24	17	31	13	536	68.0	-191275.0	-1984.0	-37.0
24	17	31	13	536	69.0	-192264.0	-1979.0	158.0
24	17	31	13	568	70.0	-193302.0	-1996.0	-498.0
24	17	31	13	569	71.0	-194464.0	-1990.0	-427.0
24	17	31	13	570	72.0	-195764.0	-1984.0	51.0
24	17	31	13	571	73.0	-197504.0	-1989.0	-102.0
24	17	31	13	571	74.0	-199417.0	-1974.0	-656.0
24	17	31	13	572	75.0	-201626.0	-1999.0	-336.0
24	17	31	13	573	76.0	-203621.0	-2008.0	4.0
24	17	31	13	573	77.0	-205554.0	-1989.0	695.0
24	17	31	13	574	78.0	-207444.0	-1990.0	1201.0
24	17	31	13	575	79.0	-209081.0	-2019.0	866.0
24	17	31	13	575	80.0	-210209.0	-2025.0	708.0
24	17	31	13	576	81.0	-211180.0	-2017.0	1204.0
24	17	31	13	577	82.0	-211850.0	-2034.0	1356.0
24	17	31	13	577	83.0	-212315.0	-2032.0	1151.0
24	17	31	13	578	84.0	-212774.0	-2039.0	844.0
24	17	31	13	579	86.0	-213669.0	-2086.0	1688.0
24	17	31	13	579	87.0	-214210.0	-2059.0	2417.0
24	17	31	13	580	88.0	-214573.0	-2063.0	2813.0
24	17	31	13	581	89.0	-215194.0	-2062.0	2386.0
24	17	31	13	581	90.0	-215696.0	-2062.0	1969.0
24	17	31	13	582	91.0	-215583.0	-2062.0	1834.0
24	17	31	13	582	92.0	-215008.0	-2059.0	1797.0
24	17	31	13	613	93.0	-213706.0	-2064.0	1206.0
24	17	31	13	614	94.0	-212454.0	-2056.0	573.0
24	17	31	13	615	95.0	-211270.0	-2074.0	999.0
24	17	31	13	615	96.0	-209201.0	-2088.0	1650.0
24	17	31	13	616	97.0	-206628.0	-2096.0	2028.0
24	17	31	13	617	98.0	-204734.0	-2113.0	2273.0
24	17	31	13	617	99.0	-203221.0	-2137.0	1881.0
24	17	31	13	618	100.0	-201691.0	-2138.0	1467.0
24	17	31	13	618	101.0	-200592.0	-2162.0	1114.0
24	17	31	13	619	102.0	-200185.0	-2202.0	667.0
24	17	31	13	657	103.0	-199949.0	-2199.0	466.0
24	17	31	13	658	104.0	-199616.0	-2202.0	-157.0
24	17	31	13	659	105.0	-199101.0	-2221.0	403.0
24	17	31	13	660	106.0	-198626.0	-2239.0	876.0
24	17	31	13	660	107.0	-198380.0	-2264.0	1306.0
24	17	31	13	661	109.0	-197176.0	-2309.0	1236.0
24	17	31	13	662	110.0	-196514.0	-2314.0	844.0
24	17	31	13	662	111.0	-195946.0	-2327.0	335.0
24	17	31	13	663	112.0	-195198.0	-2346.0	414.0
24	17	31	13	664	113.0	-194599.0	-2365.0	458.0
24	17	31	13	664	114.0	-193859.0	-2372.0	116.0
24	17	31	13	665	115.0	-193022.0	-2407.0	669.0
24	17	31	13	666	116.0	-192161.0	-2432.0	1601.0
24	17	31	13	666	117.0	-191006.0	-2452.0	2058.0
24	17	31	13	667	118.0	-189820.0	-2479.0	1832.0
24	17	31	13	668	119.0	-188629.0	-2495.0	2126.0
24	17	31	13	668	132.0	-197087.0	-2836.0	-7600.0
24	17	31	13	669	133.0	-195988.0	-2867.0	-9366.0
24	17	31	13	670	134.0	-194624.0	-2888.0	-9282.0
24	17	31	13	670	135.0	-193306.0	-2909.0	-8332.0
24	17	31	13	671	136.0	-191557.0	-2948.0	-5431.0
24	17	31	13	671	137.0	-189722.0	-2958.0	-1205.0
24	17	31	13	703	138.0	-188739.0	-2969.0	2394.0
24	17	31	13	727	139.0	-188339.0	-2979.0	3754.0
24	17	31	13	727	140.0	-187873.0	-3016.0	1197.0
24	17	31	13	728	141.0	-188098.0	-3059.0	668.0
24	17	31	13	729	142.0	-188844.0	-3074.0	206.0
24	17	31	13	729	143.0	-190062.0	-3106.0	1074.0
24	17	31	13	730	144.0	-192762.0	-3145.0	4161.0
24	17	31	13	730	145.0	-195865.0	-3183.0	7104.0
24	17	31	13	731	146.0	-199014.0	-3211.0	7984.0
24	17	31	13	731	147.0	-202329.0	-3243.0	7884.0
24	17	31	13	732	148.0	-206179.0	-3275.0	6767.0
24	17	31	13	732	149.0	-209842.0	-3312.0	5528.0
24	17	31	13	733	150.0	-212406.0	-3344.0	4021.0
24	17	31	13	733	151.0	-214121.0	-3363.0	3504.0
24	17	31	13	734	152.0	-214678.0	-3409.0	3724.0
24	17	31	13	734	154.0	-203829.0	-3498.0	5471.0
24	17	31	13	735	155.0	-190308.0	-3529.0	6254.0
24	17	31	13	735	156.0	-174942.0	-3544.0	6285.0
24	17	31	13	736	157.0	-157959.0	-3562.0	6543.0
24	17	31	13	736	158.0	-144222.0	-3585.0	6589.0
24	17	31	13	737	159.0	-136243.0	-3610.0	5498.0
24	17	31	13	750	160.0	-135897.0	-3652.0	4220.0
24	17	31	13	751	161.0	-143902.0	-3646.0	3755.0
24	17	31	13	752	162.0	-158271.0	-3670.0	3182.0
24	17	31	13	752	163.0	-177196.0	-3696.0	2640.0
24	17	31	13	753	164.0	-198766.0	-3729.0	2334.0
24	17	31	13	753	165.0	-220687.0	-3775.0	2442.0
24	17	31	13	754	166.0	-240399.0	-3814.0	2489.0
24	17	31	13	754	167.0	-256507.0	-3853.0	2715.0
24	17	31	13	755	168.0	-267096.0	-3881.0	2410.0
24	17	31	13	755	169.0	-269235.0	-3936.0	2133.0
24	17	31	13	756	170.0	-264172.0	-3987.0	1664.0
24	17	31	13	757	171.0	-254717.0	-4011.0	1229.0
24	17	31	13	757	172.0	-243496.0	-4047.0	942.0
24	17	31	13	758	173.0	-232521.0	-4081.0	-176.0
24	17	31	13	758	174.0	-222250.0	-4120.0	-732.0
24	17	31	13	759	176.0	-204539.0	-4197.0	436.0
24	17	31	13	759	177.0	-197981.0	-4232.0	427.0
24	17	31	13	760	178.0	-192683.0	-4251.0	519.0
24	17	31	13	760	179.0	-188959.0	-4271.0	629.0
24	17	31	13	761	180.0	-186902.0	-4311.0	338.0
24	17	31	13	762	181.0	-185479.0	-4360.0	-155.0
24	17	31	13	792	182.0	-183866.0	-4386.0	-386.0
24	17	31	13	793	183.0	-182078.0	-4387.0	-784.0
24	17	31	13	794	184.0	-180577.0	-4432.0	-1304.0
24	17	31	13	794	185.0	-179758.0	-4470.0	-877.0
24	17	31	13	795	186.0	-179667.0	-4516.0	-56.0
24	17	31	13	796	187.0	-179832.0	-4569.0	628.0
24	17	31	13	796	188.0	-180099.0	-4602.0	515.0
24	17	31	13	797	189.0	-180750.0	-4629.0	254.0
24	17	31	13	797	190.0	-182203.0	-4655.0	-106.0
24	17	31	13	798	191.0	-184731.0	-4685.0	-546.0
24	17	31	13	798	192.0	-187311.0	-4707.0	-991.0
24	17	31	13	799	193.0	-190751.0	-4766.0	-1761.0
24	17	31	13	800	194.0	-195668.0	-4786.0	-1861.0
24	17	31	13	800	195.0	-200807.0	-4818.0	-1618.0
24	17	31	13	801	196.0	-205726.0	-4857.0	-1304.0
24	17	31	13	802	199.0	-212612.0	-4967.0	-1187.0
24	17	31	13	802	200.0	-211917.0	-4974.0	-1666.0
24	17	31	13	803	201.0	-210047.0	-4980.0	-2262.0
24	17	31	13	804	202.0	-207272.0	-5009.0	-2504.0
24	17	31	13	805	203.0	-203454.0	-5039.0	-3112.0
24	17	31	13	805	204.0	-199151.0	-5065.0	-3272.0
24	17	31	13	838	205.0	-195568.0	-5079.0	-2871.0
24	17	31	13	839	206.0	-192676.0	-5098.0	-2122.0
24	17	31	13	839	207.0	-189977.0	-5112.0	-2078.0
24	17	31	13	840	208.0	-187901.0	-5144.0	-1844.0
24	17	31	13	840	209.0	-186917.0	-5183.0	-2632.0
24	17	31	13	841	210.0	-186752.0	-5224.0	-2882.0
24	17	31	13	842	211.0	-186511.0	-5242.0	-2554.0
24	17	31	13	842	212.0	-186977.0	-5266.0	-2881.0
24	17	31	13	843	213.0	-188467.0	-5297.0	-4079.0
24	17	31	13	843	214.0	-190741.0	-5316.0	-4273.0
24	17	31	13	844	215.0	-193607.0	-5337.0	-3775.0
24	17	31	13	844	216.0	-196584.0	-5364.0	-3844.0
24	17	31	13	845	217.0	-199901.0	-5373.0	-3384.0
24	17	31	13	846	218.0	-202891.0	-5409.0	-3129.0
24	17	31	13	847	219.0	-205186.0	-5452.0	-3717.0
24	17	31	13	847	221.0	-208297.0	-5479.0	-4207.0
24	17	31	13	848	222.0	-209001.0	-5500.0	-3824.0
24	17	31	13	849	223.0	-209164.0	-5516.0	-4191.0
24	17	31	13	849	224.0	-208587.0	-5510.0	-4656.0
24	17	31	13	850	225.0	-207372.0	-5505.0	-4054.0
24	17	31	13	851	226.0	-205827.0	-5535.0	-3897.0
24	17	31	13	882	227.0	-203450.0	-5525.0	-3731.0
24	17	31	13	883	228.0	-201121.0	-5514.0	-3172.0
24	17	31	13	884	229.0	-198915.0	-5556.0	-4228.0
24	17	31	13	884	230.0	-196774.0	-5589.0	-4746.0
24	17	31	13	885	231.0	-193661.0	-5598.0	-5181.0
24	17	31	13	886	232.0	-190312.0	-5611.0	-5232.0
24	17	31	13	887	233.0	-187506.0	-5628.0	-6067.0
24	17	31	13	887	234.0	-184856.0	-5639.0	-6312.0
24	17	31	13	888	235.0	-181553.0	-5645.0	-5871.0
24	17	31	13	889	236.0	-178128.0	-5649.0	-4951.0
24	17	31	13	889	237.0	-174636.0	-5659.0	-4709.0
24	17	31	13	890	238.0	-171641.0	-5682.0	-4737.0
24	17	31	13	890	239.0	-169062.0	-5670.0	-5072.0
24	17	31	13	891	240.0	-167169.0	-5676.0	-5382.0
24	17	31	13	891	241.0	-165544.0	-5672.0	-5837.0
24	17	31	13	892	243.0	-163670.0	-5649.0	-6161.0
24	17	31	13	893	244.0	-163279.0	-5651.0	-5997.0
24	17	31	13	893	245.0	-163415.0	-5622.0	-5939.0
24	17	31	13	894	246.0	-163439.0	-5610.0	-4502.0
24	17	31	13	894	247.0	-164224.0	-5584.0	-3879.0
24	17	31	13	895	248.0	-165351.0	-5532.0	-4399.0
24	17	31	13	895	249.0	-166469.0	-5471.0	-4013.0
24	17	31	13	928	250.0	-167337.0	-5439.0	-4071.0
24	17	31	13	928	251.0	-168456.0	-5410.0	-4537.0
24	17	31	13	929	252.0	-169456.0	-5347.0	-4545.0
24	17	31	13	929	253.0	-170116.0	-5306.0	-4662.0
24	17	31	13	930	254.0	-170540.0	-5276.0	-4692.0
24	17	31	13	931	255.0	-171556.0	-5241.0	-3995.0
24	17	31	13	931	0.0	-172133.0	-5179.0	-2632.0
24	17	31	13	932	1.0	-172607.0	-5131.0	-2574.0
24	17	31	13	932	2.0	-173142.0	-5096.0	-2551.0
24	17	31	13	933	3.0	-173621.0	-5044.0	-2422.0
24	17	31	13	933	4.0	-174161.0	-4976.0	-2800.0
24	17	31	13	934	5.0	-174999.0	-4944.0	-3121.0
24	17	31	13	935	6.0	-176024.0	-4898.0	-2696.0
24	17	31	13	935	7.0	-177547.0	-4843.0	-3405.0
24	17	31	13	936	8.0	-179818.0	-4781.0	-2729.0
24	17	31	13	936	10.0	-184897.0	-4647.0	-673.0
24	17	31	13	937	11.0	-187739.0	-4587.0	-206.0
24	17	31	13	938	12.0	-190501.0	-4521.0	-307.0
24	17	31	13	939	13.0	-193144.0	-4454.0	-499.0
24	17	31	13	940	14.0	-195837.0	-4376.0	-482.0
24	17	31	13	940	15.0	-198658.0	-4300.0	-808.0
24	17	31	13	973	16.0	-201436.0	-4247.0	-1047.0
24	17	31	13	973	17.0	-203899.0	-4177.0	-1690.0
24	17	31	13	974	18.0	-205953.0	-4102.0	-1571.0
24	17	31	13	975	19.0	-208182.0	-4058.0	-664.0
24	17	31	13	975	20.0	-210214.0	-3981.0	123.0
24	17	31	13	976	21.0	-212544.0	-3921.0	414.0
24	17	31	13	976	22.0	-214987.0	-3887.0	729.0
24	17	31	13	977	23.0	-217296.0	-3837.0	656.0
24	17	31	13	977	24.0	-218444.0	-3747.0	643.0
24	17	31	13	978	25.0	-218694.0	-3708.0	843.0
24	17	31	13	979	26.0	-218166.0	-3659.0	861.0
24	17	31	13	979	27.0	-216862.0	-3588.0	427.0
24	17	31	13	980	28.0	-214429.0	-3522.0	834.0
24	17	31	13	980	29.0	-211497.0	-3485.0	1354.0
24	17	31	13	981	30.0	-207289.0	-3437.0	1718.0
24	17	31	13	982	32.0	-188621.0	-3315.0	2508.0
24	17	31	13	982	33.0	-167952.0	-3301.0	2159.0
24	17	31	13	983	34.0	-148700.0	-3225.0	1458.0
24	17	31	13	983	35.0	-145121.0	-3164.0	1748.0
24	17	31	13	984	36.0	-157537.0	-3112.0	1594.0
24	17	31	13	985	37.0	-175013.0	-3052.0	86.0
24	17	31	13	993	38.0	-193572.0	-3012.0	-890.0
24	17	31	14	18	39.0	-214169.0	-2969.0	-1507.0
24	17	31	14	19	40.0	-223734.0	-2924.0	-1612.0
24	17	31	14	20	41.0	-229529.0	-2854.0	-1704.0
24	17	31	14	41	42.0	-229357.0	-2815.0	-1948.0
24	17	31	14	41	43.0	-222787.0	-2796.0	-2642.0
24	17	31	14	42	44.0	-213959.0	-2760.0	-2639.0
24	17	31	14	42	45.0	-205558.0	-2713.0	-2719.0
24	17	31	14	43	46.0	-195909.0	-2676.0	-3092.0
24	17	31	14	43	47.0	-186417.0	-2659.0	-4042.0
24	17	31	14	44	48.0	-178387.0	-2624.0	-3946.0
24	17	31	14	44	49.0	-172084.0	-2590.0	-3405.0
24	17	31	14	45	50.0	-167032.0	-2551.0	-2815.0
24	17	31	14	46	51.0	-163482.0	-2529.0	-2672.0
24	17	31	14	46	52.0	-162648.0	-2496.0	-2574.0
24	17	31	14	47	53.0	-163057.0	-2464.0	-2924.0
24	17	31	14	47	55.0	-166220.0	-2449.0	-3361.0
24	17	31	14	48	56.0	-168233.0	-2412.0	-3720.0
24	17	31	14	48	57.0	-169954.0	-2352.0	-4263.0
24	17	31	14	49	58.0	-170496.0	-2318.0	-4014.0
24	17	31	14	49	59.0	-169032.0	-2309.0	-3084.0
24	17	31	14	50	60.0	-164988.0	-2293.0	-2369.0
24	17	31	14	64	61.0	-157756.0	-2257.0	-2227.0
24	17	31	14	64	62.0	-148536.0	-2224.0	-2547.0
24	17	31	14	65	63.0	-138621.0	-2182.0	-2456.0
24	17	31	14	66	64.0	-128348.0	-2177.0	-2873.0
24	17	31	14	67	65.0	-121837.0	-2176.0	-3789.0
24	17	31	14	67	66.0	-122911.0	-2161.0	-3887.0
24	17	31	14	68	67.0	-127174.0	-2139.0	-4091.0
24	17	31	14	68	68.0	-134847.0	-2135.0	-4115.0
24	17	31	14	69	69.0	-144802.0	-2126.0	-3730.0
24	17	31	14	70	70.0	-155503.0	-2110.0	-2187.0
24	17	31	14	70	71.0	-166552.0	-2095.0	-2232.0
24	17	31	14	71	72.0	-176696.0	-2080.0	-2411.0
24	17	31	14	71	73.0	-184531.0	-2085.0	-2308.0
24	17	31	14	72	74.0	-189677.0	-2096.0	-2708.0
24	17	31	14	73	75.0	-191961.0	-2089.0	-3064.0
24	17	31	14	73	77.0	-191309.0	-2109.0	-3601.0
24	17	31	14	74	78.0	-189453.0	-2109.0	-3348.0
24	17	31	14	74	79.0	-188044.0	-2088.0	-3002.0
24	17	31	14	75	80.0	-187148.0	-2085.0	-2427.0
24	17	31	14	75	81.0	-186908.0	-2066.0	-1886.0
24	17	31	14	76	82.0	-187319.0	-2041.0	-2330.0
24	17	31	14	77	83.0	-188087.0	-2058.0	-2390.0
24	17	31	14	107	84.0	-189142.0	-2070.0	-2435.0
24	17	31	14	108	85.0	-189943.0	-2044.0	-2957.0
24	17	31	14	109	86.0	-190286.0	-2051.0	-3572.0
24	17	31	14	109	87.0	-189545.0	-2079.0	-3897.0
24	17	31	14	110	88.0	-188206.0	-2077.0	-3684.0
24	17	31	14	111	89.0	-186677.0	-2080.0	-2774.0
24	17	31	14	111	90.0	-185045.0	-2086.0	-2239.0
24	17	31	14	112	91.0	-183512.0	-2102.0	-1608.0
24	17	31	14	112	92.0	-182261.0	-2113.0	-1927.0
24	17	31	14	113	93.0	-181134.0	-2114.0	-2216.0
24	17	31	14	113	94.0	-180244.0	-2111.0	-2072.0
24	17	31	14	114	95.0	-180241.0	-2122.0	-1572.0
24	17	31	14	115	96.0	-180896.0	-2139.0	-2430.0
24	17	31	14	115	97.0	-181797.0	-2161.0	-2874.0
24	17	31	14	116	98.0	-183094.0	-2162.0	-2097.0
24	17	31	14	116	100.0	-187939.0	-2176.0	-1431.0
24	17	31	14	117	101.0	-189882.0	-2180.0	-1376.0
24	17	31	14	125	102.0	-191987.0	-2177.0	-1416.0
24	17	31	14	126	103.0	-194303.0	-2191.0	-1719.0
24	17	31	14	126	104.0	-195611.0	-2206.0	-1653.0
24	17	31	14	127	105.0	-196221.0	-2210.0	-1452.0
24	17	31	14	153	106.0	-196282.0	-2207.0	-2184.0
24	17	31	14	199	107.0	-195837.0	-2204.0	-2336.0
24	17	31	14	244	108.0	-194961.0	-2212.0	-1732.0
24	17	31	14	256	109.0	-194052.0	-2256.0	-993.0
24	17	31	14	256	110.0	-193191.0	-2265.0	-431.0
24	17	31	14	257	111.0	-192358.0	-2274.0	193.0
24	17	31	14	258	112.0	-191972.0	-2266.0	194.0
24	17	31	14	258	113.0	-191822.0	-2284.0	-261.0
24	17	31	14	259	114.0	-191806.0	-2299.0	-486.0
24	17	31	14	259	115.0	-192144.0	-2286.0	-444.0
24	17	31	14	260	116.0	-192663.0	-2304.0	-976.0
24	17	31	14	260	117.0	-193585.0	-2334.0	-1017.0
24	17	31	14	261	118.0	-194548.0	-2344.0	-112.0
24	17	31	14	261	119.0	-195931.0	-2349.0	428.0
24	17	31	14	262	120.0	-198035.0	-2356.0	733.0
24	17	31	14	263	122.0	-202678.0	-2394.0	326.0
24	17	31	14	263	144.0	-198231.0	-2352.0	-352.0
24	17	31	14	264	167.0	-213851.0	-2222.0	-1473.0
24	17	31	14	264	168.0	-214464.0	-2226.0	-1027.0
24	17	31	14	265	169.0	-215071.0	-2211.0	-609.0
24	17	31	14	265	170.0	-215690.0	-2201.0	-390.0
24	17	31	14	266	171.0	-216139.0	-2196.0	-172.0
24	17	31	14	266	172.0	-216784.0	-2186.0	72.0
24	17	31	14	333	173.0	-217645.0	-2176.0	65.0
24	17	31	14	334	174.0	-218433.0	-2182.0	-324.0
24	17	31	14	334	175.0	-218612.0	-2176.0	-582.0
24	17	31	14	335	176.0	-218695.0	-2153.0	-1110.0
24	17	31	14	335	177.0	-219198.0	-2182.0	-1246.0
24	17	31	14	336	178.0	-219293.0	-2174.0	-991.0
24	17	31	14	337	179.0	-218715.0	-2182.0	-534.0
24	17	31	14	337	180.0	-218618.0	-2183.0	-381.0
24	17	31	14	338	181.0	-218637.0	-2209.0	193.0
24	17	31	14	338	182.0	-217811.0	-2211.0	-188.0
24	17	31	14	339	183.0	-216612.0	-2210.0	-319.0
24	17	31	14	340	184.0	-215443.0	-2212.0	-254.0
24	17	31	14	340	185.0	-213641.0	-2218.0	-816.0
24	17	31	14	341	186.0	-211642.0	-2225.0	-994.0
24	17	31	14	341	187.0	-209251.0	-2237.0	-951.0
24	17	31	14	342	212.0	-196862.0	-2592.0	-1323.0
24	17	31	14	343	213.0	-198212.0	-2597.0	-1334.0
24	17	31	14	344	214.0	-199601.0	-2604.0	-1907.0
24	17	31	14	345	215.0	-200822.0	-2633.0	-2790.0
24	17	31	14	345	216.0	-202256.0	-2662.0	-3842.0
24	17	31	14	346	217.0	-203620.0	-2649.0	-4786.0
24	17	31	14	423	218.0	-204337.0	-2652.0	-5786.0
24	17	31	14	424	219.0	-204662.0	-2657.0	-6320.0
24	17	31	14	425	220.0	-204908.0	-2674.0	-6877.0
24	17	31	14	425	221.0	-205269.0	-2691.0	-8697.0
24	17	31	14	426	222.0	-205315.0	-2713.0	-9914.0
24	17	31	14	427	223.0	-204941.0	-2747.0	-11506.0
24	17	31	14	427	224.0	-204472.0	-2766.0	-12521.0
24	17	31	14	428	225.0	-204201.0	-2799.0	-13407.0
24	17	31	14	428	226.0	-203471.0	-2829.0	-14493.0
24	17	31	14	429	227.0	-202262.0	-2849.0	-13763.0
24	17	31	14	430	228.0	-200989.0	-2874.0	-9970.0
24	17	31	14	430	229.0	-200417.0	-2904.0	-4803.0
24	17	31	14	431	230.0	-200313.0	-2910.0	-1529.0
24	17	31	14	431	231.0	-200432.0	-2906.0	-67.0
24	17	31	14	432	232.0	-200579.0	-2948.0	-2101.0
24	17	31	14	433	1.0	-255444.0	-3448.0	-3354.0
24	17	31	14	433	2.0	-266722.0	-3471.0	-3403.0
24	17	31	14	434	3.0	-270171.0	-3457.0	-3456.0
24	17	31	14	434	4.0	-268353.0	-3462.0	-2808.0
24	17	31	14	435	5.0	-262828.0	-3506.0	-3615.0
24	17	31	14	436	6.0	-255706.0	-3519.0	-4068.0
24	17	31	14	469	7.0	-249067.0	-3552.0	-4624.0
24	17	31	14	469	8.0	-244236.0	-3554.0	-5589.0
24	17	31	14	470	9.0	-240126.0	-3576.0	-6102.0
24	17	31	14	471	10.0	-234879.0	-3596.0	-6134.0
24	17	31	14	471	11.0	-226850.0	-3618.0	-6126.0
24	17	31	14	472	12.0	-216882.0	-3659.0	-5780.0
24	17	31	14	473	13.0	-207181.0	-3665.0	-5052.0
24	17	31	14	473	14.0	-198691.0	-3681.0	-4842.0
24	17	31	14	474	15.0	-191503.0	-3704.0	-5457.0
24	17	31	14	474	16.0	-185532.0	-3726.0	-5574.0
24	17	31	14	475	17.0	-180777.0	-3727.0	-5644.0
24	17	31	14	476	18.0	-177682.0	-3754.0	-6151.0
24	17	31	14	476	19.0	-176332.0	-3781.0	-6847.0
24	17	31	14	477	20.0	-176899.0	-3809.0	-6742.0
24	17	31	14	477	21.0	-178445.0	-3807.0	-6224.0
24	17	31	14	478	23.0	-180881.0	-3872.0	-5717.0
24	17	31	14	479	24.0	-182424.0	-3908.0	-5024.0
24	17	31	14	479	25.0	-185089.0	-3917.0	-5254.0
24	17	31	14	480	26.0	-189039.0	-3939.0	-5527.0
24	17	31	14	480	27.0	-194564.0	-3931.0	-5847.0
24	17	31	14	481	28.0	-200789.0	-3934.0	-6218.0
24	17	31	14	513	29.0	-207497.0	-3945.0	-6501.0
24	17	31	14	514	30.0	-214054.0	-3969.0	-6669.0
24	17	31	14	514	31.0	-219965.0	-3979.0	-6612.0
24	17	31	14	515	32.0	-224179.0	-4015.0	-6086.0
24	17	31	14	516	33.0	-226495.0	-4027.0	-5751.0
24	17	31	14	516	34.0	-226994.0	-4040.0	-5691.0
24	17	31	14	517	35.0	-225562.0	-4086.0	-5811.0
24	17	31	14	517	36.0	-222012.0	-4126.0	-6013.0
24	17	31	14	573	37.0	-216685.0	-4124.0	-5971.0
24	17	31	14	588	38.0	-210441.0	-4135.0	-6376.0
24	17	31	14	589	39.0	-203445.0	-4168.0	-6882.0
24	17	31	14	589	40.0	-196541.0	-4191.0	-7434.0
24	17	31	14	590	41.0	-190508.0	-4209.0	-7147.0
24	17	31	14	590	42.0	-185706.0	-4209.0	-6078.0
24	17	31	14	591	43.0	-182410.0	-4239.0	-5477.0
24	17	31	14	592	46.0	-182717.0	-4314.0	-6066.0
24	17	31	14	592	47.0	-185427.0	-4336.0	-6718.0
24	17	31	14	593	48.0	-188494.0	-4345.0	-7123.0
24	17	31	14	594	49.0	-191770.0	-4352.0	-7860.0
24	17	31	14	594	50.0	-195261.0	-4369.0	-8789.0
24	17	31	14	595	51.0	-199179.0	-4385.0	-8409.0
24	17	31	14	595	52.0	-203447.0	-4412.0	-7659.0
24	17	31	14	596	53.0	-207500.0	-4442.0	-8121.0
24	17	31	14	597	54.0	-210994.0	-4461.0	-8052.0
24	17	31	14	597	83.0	-185011.0	-4529.0	-9660.0
24	17	31	14	598	84.0	-183974.0	-4502.0	-9322.0
24	17	31	14	598	85.0	-182995.0	-4446.0	-9648.0
24	17	31	14	599	86.0	-181666.0	-4389.0	-9737.0
24	17	31	14	611	87.0	-180550.0	-4338.0	-9348.0
24	17	31	14	612	88.0	-179714.0	-4285.0	-9685.0
24	17	31	14	613	89.0	-179077.0	-4216.0	-10479.0
24	17	31	14	613	90.0	-178929.0	-4154.0	-9686.0
24	17	31	14	634	91.0	-179514.0	-4100.0	-8916.0
24	17	31	14	635	92.0	-180352.0	-4041.0	-8517.0
24	17	31	14	636	93.0	-180879.0	-3973.0	-7604.0
24	17	31	14	636	94.0	-181879.0	-3927.0	-6951.0
24	17	31	14	637	95.0	-183298.0	-3872.0	-7617.0
24	17	31	14	637	96.0	-184669.0	-3832.0	-7362.0
24	17	31	14	638	97.0	-185983.0	-3759.0	-7033.0
24	17	31	14	639	98.0	-187161.0	-3688.0	-7424.0
24	17	31	14	639	99.0	-188286.0	-3620.0	-8087.0
24	17	31	14	640	100.0	-188922.0	-3561.0	-7337.0
24	17	31	14	640	101.0	-189136.0	-3488.0	-6594.0
24	17	31	14	641	102.0	-189519.0	-3416.0	-6385.0
24	17	31	14	641	103.0	-190364.0	-3363.0	-5751.0
24	17	31	14	642	104.0	-191202.0	-3317.0	-5486.0
24	17	31	14	643	105.0	-192459.0	-3258.0	-5568.0
24	17	31	14	643	106.0	-193831.0	-3207.0	-5625.0
24	17	31	14	658	107.0	-195556.0	-3149.0	-5767.0
24	17	31	14	658	108.0	-197901.0	-3075.0	-5484.0
24	17	31	14	659	109.0	-200858.0	-3014.0	-5912.0
24	17	31	14	659	110.0	-203707.0	-2959.0	-6466.0
24	17	31	14	660	111.0	-206429.0	-2889.0	-6386.0
24	17	31	14	661	112.0	-209388.0	-2838.0	-5586.0
24	17	31	14	661	113.0	-212328.0	-2774.0	-5189.0
24	17	31	14	662	114.0	-215233.0	-2700.0	-4874.0
24	17	31	14	662	115.0	-217801.0	-2639.0	-5057.0
24	17	31	14	663	116.0	-220018.0	-2575.0	-5402.0
24	17	31	14	664	117.0	-221582.0	-2530.0	-5436.0
24	17	31	14	664	118.0	-221992.0	-2476.0	-5164.0
24	17	31	14	665	119.0	-221151.0	-2414.0	-5274.0
24	17	31	14	665	120.0	-219116.0	-2352.0	-5801.0
24	17	31	14	666	121.0	-216149.0	-2293.0	-5444.0
24	17	31	14	682	122.0	-211944.0	-2229.0	-4666.0
24	17	31	14	682	123.0	-206817.0	-2179.0	-4186.0
24	17	31	14	683	124.0	-200859.0	-2136.0	-3711.0
24	17	31	14	684	125.0	-192859.0	-2096.0	-3724.0
24	17	31	14	684	126.0	-179774.0	-2045.0	-4263.0
24	17	31	14	685	127.0	-161571.0	-1994.0	-4114.0
24	17	31	14	685	128.0	-148723.0	-1955.0	-4619.0
24	17	31	14	686	129.0	-151241.0	-1906.0	-5478.0
24	17	31	14	707	130.0	-165781.0	-1863.0	-5832.0
24	17	31	14	707	131.0	-180736.0	-1803.0	-5132.0
24	17	31	14	708	132.0	-201099.0	-1761.0	-4913.0
24	17	31	14	709	133.0	-215437.0	-1724.0	-4482.0
24	17	31	14	709	134.0	-222527.0	-1674.0	-4680.0
24	17	31	14	710	135.0	-226225.0	-1632.0	-4424.0
24	17	31	14	711	136.0	-225432.0	-1603.0	-4709.0
24	17	31	14	711	137.0	-221341.0	-1556.0	-5124.0
24	17	31	14	712	138.0	-216697.0	-1524.0	-5401.0
24	17	31	14	712	139.0	-211639.0	-1483.0	-6181.0
24	17	31	14	713	140.0	-205710.0	-1466.0	-5917.0
24	17	31	14	714	141.0	-201150.0	-1420.0	-5545.0
24	17	31	14	714	142.0	-198868.0	-1394.0	-4833.0
24	17	31	14	715	143.0	-197954.0	-1377.0	-4346.0
24	17	31	14	715	144.0	-197221.0	-1370.0	-4186.0
24	17	31	14	730	145.0	-196709.0	-1347.0	-4461.0
24	17	31	14	730	146.0	-196400.0	-1317.0	-4574.0
24	17	31	14	731	147.0	-194932.0	-1299.0	-4637.0
24	17	31	14	732	148.0	-192615.0	-1262.0	-4872.0
24	17	31	14	732	149.0	-189717.0	-1245.0	-5918.0
24	17	31	14	733	150.0	-185831.0	-1260.0	-5819.0
24	17	31	14	733	151.0	-180765.0	-1253.0	-5166.0
24	17	31	14	752	152.0	-173656.0	-1221.0	-4930.0
24	17	31	14	753	153.0	-166001.0	-1206.0	-4242.0
24	17	31	14	754	154.0	-158864.0	-1190.0	-3706.0
24	17	31	14	754	155.0	-153107.0	-1186.0	-4006.0
24	17	31	14	755	156.0	-150319.0	-1181.0	-4122.0
24	17	31	14	756	157.0	-148319.0	-1182.0	-4184.0
24	17	31	14	756	158.0	-147844.0	-1168.0	-5050.0
24	17	31	14	757	159.0	-149435.0	-1150.0	-5626.0
24	17	31	14	757	160.0	-153102.0	-1146.0	-5168.0
24	17	31	14	758	161.0	-157844.0	-1169.0	-4877.0
24	17	31	14	758	162.0	-163497.0	-1176.0	-4416.0
24	17	31	14	759	163.0	-168907.0	-1166.0	-4032.0
24	17	31	14	760	164.0	-173396.0	-1178.0	-3443.0
24	17	31	14	760	165.0	-176400.0	-1192.0	-4048.0
24	17	31	14	761	166.0	-178076.0	-1232.0	-4330.0
24	17	31	14	775	167.0	-178481.0	-1229.0	-4345.0
24	17	31	14	776	168.0	-177825.0	-1221.0	-4421.0
24	17	31	14	776	169.0	-176501.0	-1229.0	-4862.0
24	17	31	14	777	170.0	-175432.0	-1261.0	-4651.0
24	17	31	14	778	171.0	-174903.0	-1264.0	-4300.0
24	17	31	14	778	172.0	-174835.0	-1261.0	-4222.0
24	17	31	14	779	173.0	-175334.0	-1257.0	-3686.0
24	17	31	14	779	174.0	-176052.0	-1262.0	-3671.0
24	17	31	14	799	175.0	-176809.0	-1268.0	-3768.0
24	17	31	14	800	176.0	-177913.0	-1260.0	-4456.0
24	17	31	14	800	177.0	-179611.0	-1287.0	-5122.0
24	17	31	14	801	178.0	-180784.0	-1309.0	-5225.0
24	17	31	14	801	179.0	-182027.0	-1317.0	-5772.0
24	17	31	14	802	180.0	-183036.0	-1333.0	-5732.0
24	17	31	14	803	181.0	-183821.0	-1356.0	-5198.0
24	17	31	14	803	182.0	-184039.0	-1356.0	-4516.0
24	17	31	14	804	183.0	-184074.0	-1348.0	-4909.0
24	17	31	14	804	184.0	-184132.0	-1358.0	-5175.0
24	17	31	14	805	185.0	-184059.0	-1380.0	-5005.0
24	17	31	14	805	186.0	-183723.0	-1414.0	-5343.0
24	17	31	14	806	187.0	-183832.0	-1431.0	-5564.0
24	17	31	14	807	188.0	-183838.0	-1452.0	-6175.0
24	17	31	14	807	189.0	-184232.0	-1472.0	-6380.0
24	17	31	14	823	190.0	-185144.0	-1487.0	-5772.0
24	17	31	14	824	191.0	-186610.0	-1484.0	-5213.0
24	17	31	14	825	192.0	-188379.0	-1494.0	-4252.0
24	17	31	14	826	193.0	-190080.0	-1512.0	-4341.0
24	17	31	14	826	194.0	-192218.0	-1529.0	-4446.0
24	17	31	14	827	195.0	-193885.0	-1554.0	-4736.0
24	17	31	14	828	196.0	-195555.0	-1587.0	-4591.0
24	17	31	14	829	197.0	-197153.0	-1586.0	-5037.0
24	17	31	14	829	198.0	-198277.0	-1581.0	-5164.0
24	17	31	14	830	199.0	-199219.0	-1591.0	-5469.0
24	17	31	14	830	200.0	-199778.0	-1637.0	-5056.0
24	17	31	14	831	201.0	-200316.0	-1669.0	-4181.0
24	17	31	14	832	202.0	-201074.0	-1688.0	-4078.0
24	17	31	14	832	203.0	-201972.0	-1711.0	-3468.0
24	17	31	14	852	204.0	-202519.0	-1726.0	-3697.0
24	17	31	14	853	205.0	-202904.0	-1747.0	-4232.0
24	17	31	14	853	206.0	-203469.0	-1752.0	-4374.0
24	17	31	14	869	207.0	-204137.0	-1792.0	-4847.0
24	17	31	14	869	208.0	-205084.0	-1792.0	-4778.0
24	17	31	14	870	209.0	-206492.0	-1814.0	-5257.0
24	17	31	14	870	210.0	-207709.0	-1825.0	-4692.0
24	17	31	14	871	211.0	-209141.0	-1845.0	-3651.0
24	17	31	14	871	212.0	-211016.0	-1832.0	-3308.0
24	17	31	14	872	213.0	-212863.0	-1832.0	-2882.0
24	17	31	14	873	214.0	-214386.0	-1860.0	-3230.0
24	17	31	14	873	215.0	-215867.0	-1865.0	-4148.0
24	17	31	14	874	216.0	-217165.0	-1876.0	-4516.0
24	17	31	14	874	217.0	-218332.0	-1883.0	-4034.0
24	17	31	14	875	218.0	-218962.0	-1897.0	-4572.0
24	17	31	14	875	219.0	-219391.0	-1900.0	-4922.0
24	17	31	14	876	220.0	-219902.0	-1911.0	-3904.0
24	17	31	14	876	221.0	-220221.0	-1912.0	-3320.0
24	17	31	14	877	222.0	-220284.0	-1914.0	-3114.0
24	17	31	14	877	223.0	-219996.0	-1905.0	-2662.0
24	17	31	14	878	224.0	-219634.0	-1916.0	-2412.0
24	17	31	14	879	225.0	-219144.0	-1930.0	-2742.0
24	17	31	14	891	226.0	-218542.0	-1956.0	-3027.0
24	17	31	14	892	227.0	-217842.0	-1966.0	-3031.0
24	17	31	14	892	228.0	-217090.0	-1955.0	-3501.0
24	17	31	14	893	229.0	-216547.0	-1976.0	-4281.0
24	17	31	14	893	230.0	-216252.0	-1972.0	-3782.0
24	17	31	14	894	231.0	-215934.0	-2000.0	-2951.0
24	17	31	14	895	232.0	-215384.0	-1994.0	-2777.0
24	17	31	14	895	233.0	-214886.0	-1992.0	-2538.0
24	17	31	14	896	234.0	-214362.0	-2008.0	-2341.0
24	17	31	14	915	235.0	-214057.0	-2014.0	-3165.0
24	17	31	14	915	236.0	-213742.0	-2001.0	-3556.0
24	17	31	14	916	237.0	-213196.0	-2009.0	-4124.0
24	17	31	14	917	238.0	-213220.0	-2024.0	-4476.0
24	17	31	14	917	239.0	-213426.0	-2028.0	-5141.0
24	17	31	14	918	240.0	-213353.0	-2050.0	-4933.0
24	17	31	14	918	241.0	-213236.0	-2040.0	-5009.0
24	17	31	14	919	242.0	-212727.0	-2028.0	-4648.0
24	17	31	14	919	243.0	-212176.0	-2017.0	-4017.0
24	17	31	14	920	244.0	-211783.0	-2015.0	-4032.0
24	17	31	14	920	245.0	-210928.0	-2034.0	-4826.0
24	17	31	14	921	246.0	-210101.0	-2044.0	-4854.0
24	17	31	14	921	247.0	-209406.0	-2062.0	-5526.0
24	17	31	14	922	248.0	-208891.0	-2057.0	-6239.0
24	17	31	14	938	249.0	-208454.0	-2067.0	-5938.0
24	17	31	14	939	250.0	-207977.0	-2067.0	-6054.0
24	17	31	14	939	251.0	-207456.0	-2076.0	-5264.0
24	17	31	14	940	252.0	-206835.0	-2099.0	-4028.0
24	17	31	14	940	253.0	-205870.0	-2086.0	-4126.0
24	17	31	14	941	254.0	-204796.0	-2083.0	-4687.0
24	17	31	14	942	255.0	-203612.0	-2128.0	-4811.0
24	17	31	14	962	0.0	-202327.0	-2141.0	-4629.0
24	17	31	14	962	1.0	-201583.0	-2129.0	-5012.0
24	17	31	14	963	2.0	-201537.0	-2126.0	-5361.0
24	17	31	14	964	3.0	-202149.0	-2131.0	-4959.0
24	17	31	14	964	4.0	-202578.0	-2130.0	-4686.0
24	17	31	14	965	5.0	-203196.0	-2141.0	-4326.0
24	17	31	14	965	6.0	-203730.0	-2157.0	-3184.0
24	17	31	14	966	7.0	-204197.0	-2179.0	-2936.0
24	17	31	14	966	8.0	-205165.0	-2177.0	-3370.0
24	17	31	14	967	9.0	-206372.0	-2179.0	-3403.0
24	17	31	14	967	10.0	-206981.0	-2172.0	-2967.0
24	17	31	14	968	11.0	-207454.0	-2179.0	-3252.0
24	17	31	14	969	12.0	-207961.0	-2189.0	-4062.0
24	17	31	14	969	13.0	-208150.0	-2220.0	-4253.0
24	17	31	14	970	14.0	-208057.0	-2228.0	-4465.0
24	17	31	14	985	15.0	-207661.0	-2246.0	-3889.0
24	17	31	14	985	16.0	-206957.0	-2247.0	-3599.0
24	17	31	14	986	17.0	-206251.0	-2274.0	-3514.0
24	17	31	14	986	18.0	-205841.0	-2267.0	-3418.0
24	17	31	14	987	19.0	-205634.0	-2299.0	-3766.0
24	17	31	14	987	20.0	-205310.0	-2313.0	-3497.0
24	17	31	14	988	21.0	-204439.0	-2315.0	-3878.0
24	17	31	14	988	22.0	-203472.0	-2327.0	-4960.0
24	17	31	14	989	23.0	-202448.0	-2336.0	-5048.0
24	17	31	15	7	24.0	-201019.0	-2337.0	-4446.0
24	17	31	15	8	25.0	-199169.0	-2323.0	-4072.0
24	17	31	15	9	26.0	-197726.0	-2333.0	-3609.0
24	17	31	15	9	27.0	-196212.0	-2367.0	-3462.0
24	17	31	15	10	28.0	-194585.0	-2372.0	-3605.0
24	17	31	15	10	29.0	-193232.0	-2387.0	-3804.0
24	17	31	15	11	30.0	-191999.0	-2397.0	-3473.0
24	17	31	15	11	31.0	-191092.0	-2399.0	-3815.0
24	17	31	15	12	32.0	-190015.0	-2401.0	-4107.0
24	17	31	15	13	33.0	-189257.0	-2425.0	-3764.0
24	17	31	15	13	34.0	-188605.0	-2439.0	-2537.0
24	17	31	15	14	35.0	-188019.0	-2466.0	-2032.0
24	17	31	15	14	36.0	-187173.0	-2482.0	-2061.0
24	17	31	15	15	37.0	-186637.0	-2495.0	-1586.0
24	17	31	15	15	38.0	-186447.0	-2489.0	-1757.0
24	17	31	15	30	39.0	-186259.0	-2486.0	-2269.0
24	17	31	15	31	40.0	-186224.0	-2508.0	-2197.0
24	17	31	15	32	41.0	-185806.0	-2538.0	-1976.0
24	17	31	15	32	42.0	-185449.0	-2564.0	-2540.0
24	17	31	15	33	43.0	-185007.0	-2577.0	-2894.0
24	17	31	15	33	44.0	-184532.0	-2603.0	-2266.0
24	17	31	15	55	45.0	-184502.0	-2623.0	-1741.0
24	17	31	15	55	46.0	-184876.0	-2637.0	-1685.0
24	17	31	15	56	47.0	-185954.0	-2639.0	-1047.0
24	17	31	15	57	48.0	-187324.0	-2661.0	-1248.0
24	17	31	15	57	49.0	-189217.0	-2680.0	-1911.0
24	17	31	15	58	50.0	-191557.0	-2691.0	-2260.0
24	17	31	15	58	51.0	-194261.0	-2717.0	-2286.0
24	17	31	15	59	52.0	-197098.0	-2751.0	-3189.0
24	17	31	15	59	53.0	-200416.0	-2773.0	-3776.0
24	17	31	15	60	54.0	-203772.0	-2764.0	-4371.0
24	17	31	15	61	55.0	-207120.0	-2801.0	-5069.0
24	17	31	15	61	56.0	-210502.0	-2837.0	-6012.0
24	17	31	15	62	57.0	-213099.0	-2856.0	-7142.0
24	17	31	15	62	58.0	-215233.0	-2881.0	-8519.0
24	17	31	15	63	59.0	-216343.0	-2916.0	-9500.0
24	17	31	15	63	60.0	-216399.0	-2928.0	-11772.0
24	17	31	15	64	61.0	-215696.0	-2926.0	-12884.0
24	17	31	15	64	62.0	-214494.0	-2931.0	-13539.0
24	17	31	15	78	63.0	-211999.0	-2936.0	-14422.0
24	17	31	15	78	64.0	-209220.0	-2965.0	-15054.0
24	17	31	15	79	65.0	-206412.0	-2996.0	-12447.0
24	17	31	15	79	66.0	-203355.0	-3024.0	-7627.0
24	17	31	15	101	67.0	-200714.0	-3041.0	-4180.0
24	17	31	15	102	68.0	-198519.0	-3047.0	-1923.0
24	17	31	15	102	69.0	-195989.0	-3072.0	-1008.0
24	17	31	15	103	70.0	-194287.0	-3099.0	-2945.0
24	17	31	15	103	71.0	-194161.0	-3132.0	-3533.0
24	17	31	15	104	72.0	-195054.0	-3125.0	-2195.0
24	17	31	15	105	73.0	-197061.0	-3139.0	1116.0
24	17	31	15	105	74.0	-200347.0	-3177.0	3733.0
24	17	31	15	106	75.0	-203728.0	-3212.0	5498.0
24	17	31	15	106	76.0	-206487.0	-3195.0	6201.0
24	17	31	15	107	77.0	-208424.0	-3203.0	5766.0
24	17	31	15	107	78.0	-209259.0	-3246.0	4054.0
24	17	31	15	108	79.0	-209086.0	-3261.0	3028.0
24	17	31	15	108	80.0	-206986.0	-3269.0	2587.0
24	17	31	15	109	81.0	-202972.0	-3286.0	2920.0
24	17	31	15	109	82.0	-195656.0	-3327.0	2634.0
24	17	31	15	125	83.0	-180037.0	-3339.0	2956.0
24	17	31	15	126	84.0	-158433.0	-3321.0	2818.0
24	17	31	15	126	85.0	-134482.0	-3342.0	2971.0
24	17	31	15	127	86.0	-113436.0	-3363.0	2254.0
24	17	31	15	128	87.0	-102781.0	-3382.0	1669.0
24	17	31	15	128	88.0	-102626.0	-3381.0	881.0
24	17	31	15	129	89.0	-114074.0	-3381.0	403.0
24	17	31	15	129	90.0	-134967.0	-3448.0	190.0
24	17	31	15	130	91.0	-162308.0	-3436.0	-694.0
24	17	31	15	130	92.0	-192139.0	-3428.0	-1947.0
24	17	31	15	131	93.0	-221341.0	-3440.0	-2255.0
24	17	31	15	131	94.0	-245572.0	-3464.0	-2267.0
24	17	31	15	132	95.0	-262167.0	-3482.0	-2461.0
24	17	31	15	132	96.0	-270452.0	-3521.0	-2596.0
24	17	31	15	133	97.0	-271166.0	-3541.0	-2474.0
24	17	31	15	150	98.0	-266916.0	-3537.0	-3571.0
24	17	31	15	151	99.0	-261539.0	-3544.0	-4494.0
24	17	31	15	151	100.0	-255074.0	-3555.0	-4963.0
24	17	31	15	152	101.0	-248264.0	-3567.0	-4914.0
24	17	31	15	152	102.0	-244181.0	-3586.0	-6212.0
24	17	31	15	153	103.0	-242017.0	-3611.0	-6011.0
24	17	31	15	154	104.0	-239174.0	-3617.0	-5532.0
24	17	31	15	154	105.0	-234557.0	-3619.0	-5150.0
24	17	31	15	174	106.0	-229057.0	-3621.0	-4721.0
24	17	31	15	174	107.0	-224632.0	-3634.0	-4978.0
24	17	31	15	175	108.0	-221183.0	-3640.0	-4970.0
24	17	31	15	176	109.0	-216821.0	-3652.0	-5374.0
24	17	31	15	176	110.0	-210766.0	-3675.0	-5742.0
24	17	31	15	177	111.0	-202912.0	-3692.0	-5867.0
24	17	31	15	177	112.0	-194184.0	-3707.0	-6431.0
24	17	31	15	178	113.0	-186202.0	-3713.0	-6581.0
24	17	31	15	178	114.0	-179781.0	-3711.0	-6020.0
24	17	31	15	179	115.0	-174439.0	-3737.0	-5528.0
24	17	31	15	179	116.0	-170361.0	-3752.0	-5901.0
24	17	31	15	180	117.0	-167862.0	-3754.0	-5488.0
24	17	31	15	181	118.0	-167050.0	-3767.0	-5971.0
24	17	31	15	181	119.0	-167808.0	-3784.0	-6054.0
24	17	31	15	197	120.0	-170779.0	-3770.0	-6436.0
24	17	31	15	198	121.0	-175470.0	-3764.0	-7159.0
24	17	31	15	199	122.0	-181303.0	-3774.0	-7908.0
24	17	31	15	199	123.0	-187976.0	-3783.0	-7772.0
24	17	31	15	200	124.0	-194868.0	-3787.0	-7669.0
24	17	31	15	200	125.0	-201187.0	-3792.0	-7174.0
24	17	31	15	220	126.0	-206657.0	-3796.0	-6426.0
24	17	31	15	221	127.0	-210663.0	-3790.0	-6632.0
24	17	31	15	222	128.0	-213173.0	-3798.0	-7659.0
24	17	31	15	222	129.0	-214399.0	-3806.0	-8102.0
24	17	31	15	223	130.0	-213217.0	-3801.0	-8262.0
24	17	31	15	223	131.0	-210048.0	-3829.0	-8545.0
24	17	31	15	224	132.0	-205944.0	-3815.0	-8863.0
24	17	31	15	224	133.0	-200698.0	-3818.0	-8557.0
24	17	31	15	225	134.0	-195286.0	-3842.0	-8181.0
24	17	31	15	225	135.0	-190741.0	-3852.0	-7067.0
24	17	31	15	226	136.0	-186420.0	-3844.0	-6876.0
24	17	31	15	227	137.0	-182256.0	-3819.0	-7261.0
24	17	31	15	227	138.0	-179462.0	-3811.0	-7514.0
24	17	31	15	228	139.0	-178344.0	-3821.0	-7809.0
24	17	31	15	228	140.0	-178159.0	-3824.0	-8057.0
24	17	31	15	229	141.0	-179515.0	-3837.0	-8907.0
24	17	31	15	229	142.0	-182646.0	-3814.0	-9604.0
24	17	31	15	243	143.0	-186843.0	-3802.0	-9366.0
24	17	31	15	244	144.0	-191581.0	-3808.0	-9551.0
24	17	31	15	245	145.0	-196591.0	-3809.0	-9061.0
24	17	31	15	245	146.0	-202109.0	-3810.0	-9287.0
24	17	31	15	246	147.0	-207686.0	-3813.0	-9517.0
24	17	31	15	246	148.0	-213062.0	-3817.0	-10347.0
24	17	31	15	247	149.0	-217498.0	-3821.0	-10517.0
24	17	31	15	248	150.0	-221160.0	-3822.0	-10587.0
24	17	31	15	248	151.0	-223443.0	-3817.0	-11277.0
24	17	31	15	249	152.0	-224502.0	-3824.0	-12219.0
24	17	31	15	249	153.0	-224561.0	-3822.0	-11976.0
24	17	31	15	250	154.0	-223776.0	-3828.0	-11927.0
24	17	31	15	250	155.0	-222420.0	-3844.0	-11826.0
24	17	31	15	251	156.0	-220475.0	-3846.0	-11722.0
24	17	31	15	252	157.0	-217926.0	-3852.0	-11966.0
24	17	31	15	267	158.0	-214937.0	-3837.0	-11882.0
24	17	31	15	290	159.0	-211498.0	-3846.0	-12653.0
24	17	31	15	291	160.0	-207673.0	-3831.0	-13513.0
24	17	31	15	291	161.0	-203679.0	-3830.0	-13991.0
24	17	31	15	292	162.0	-199629.0	-3825.0	-14840.0
24	17	31	15	292	163.0	-196088.0	-3831.0	-14791.0
24	17	31	15	293	164.0	-192870.0	-3832.0	-13839.0
24	17	31	15	293	165.0	-189946.0	-3814.0	-13397.0
24	17	31	15	294	166.0	-186946.0	-3786.0	-13326.0
24	17	31	15	295	167.0	-184531.0	-3780.0	-12912.0
24	17	31	15	295	168.0	-182459.0	-3773.0	-13219.0
24	17	31	15	296	169.0	-181019.0	-3757.0	-13653.0
24	17	31	15	296	170.0	-179576.0	-3724.0	-13931.0
24	17	31	15	297	171.0	-177771.0	-3687.0	-14054.0
24	17	31	15	297	172.0	-176470.0	-3684.0	-14384.0
24	17	31	15	298	173.0	-175867.0	-3644.0	-14028.0
24	17	31	15	298	174.0	-175240.0	-3577.0	-13922.0
24	17	31	15	299	175.0	-174599.0	-3536.0	-13269.0
24	17	31	15	299	176.0	-174491.0	-3495.0	-12307.0
24	17	31	15	300	177.0	-175151.0	-3436.0	-12396.0
24	17	31	15	301	178.0	-176054.0	-3388.0	-12791.0
24	17	31	15	313	179.0	-176900.0	-3359.0	-12993.0
24	17	31	15	313	180.0	-178092.0	-3306.0	-12887.0
24	17	31	15	314	181.0	-179429.0	-3267.0	-12490.0
24	17	31	15	314	182.0	-180231.0	-3219.0	-13021.0
24	17	31	15	315	183.0	-181094.0	-3161.0	-12444.0
24	17	31	15	316	184.0	-182229.0	-3090.0	-11934.0
24	17	31	15	316	185.0	-183675.0	-3052.0	-11127.0
24	17	31	15	317	186.0	-184694.0	-3012.0	-10387.0
24	17	31	15	317	187.0	-185645.0	-2946.0	-10164.0
24	17	31	15	336	188.0	-186286.0	-2873.0	-10269.0
24	17	31	15	337	189.0	-187148.0	-2791.0	-9829.0
24	17	31	15	337	190.0	-188025.0	-2715.0	-9177.0
24	17	31	15	338	191.0	-188852.0	-2661.0	-9465.0
24	17	31	15	338	192.0	-189343.0	-2606.0	-9448.0
24	17	31	15	339	193.0	-189585.0	-2552.0	-9023.0
24	17	31	15	340	194.0	-189781.0	-2500.0	-7923.0
24	17	31	15	340	195.0	-189916.0	-2408.0	-7009.0
24	17	31	15	359	196.0	-190393.0	-2315.0	-5678.0
24	17	31	15	359	197.0	-191396.0	-2251.0	-3974.0
24	17	31	15	360	198.0	-192397.0	-2197.0	-3429.0
24	17	31	15	361	199.0	-193330.0	-2132.0	-3420.0
24	17	31	15	361	200.0	-194401.0	-2081.0	-3155.0
24	17	31	15	362	201.0	-195575.0	-2010.0	-3334.0
24	17	31	15	362	202.0	-196456.0	-1934.0	-2906.0
24	17	31	15	363	203.0	-197497.0	-1861.0	-2284.0
24	17	31	15	363	204.0	-198629.0	-1809.0	-2339.0
24	17	31	15	364	205.0	-200158.0	-1749.0	-1862.0
24	17	31	15	364	206.0	-202163.0	-1675.0	-1926.0
24	17	31	15	365	207.0	-204409.0	-1628.0	-2463.0
24	17	31	15	366	208.0	-206941.0	-1566.0	-2352.0
24	17	31	15	366	209.0	-209307.0	-1479.0	-1985.0
24	17	31	15	367	210.0	-210694.0	-1411.0	-2374.0
24	17	31	15	367	211.0	-211402.0	-1343.0	-3011.0
24	17	31	15	368	212.0	-212373.0	-1282.0	-3121.0
24	17	31	15	369	213.0	-212643.0	-1242.0	-2506.0
24	17	31	15	369	214.0	-211709.0	-1182.0	-2263.0
24	17	31	15	370	215.0	-209941.0	-1107.0	-1766.0
24	17	31	15	381	216.0	-207486.0	-1063.0	-1257.0
24	17	31	15	382	217.0	-204432.0	-1001.0	-1494.0
24	17	31	15	383	218.0	-200936.0	-909.0	-1975.0
24	17	31	15	383	219.0	-196335.0	-872.0	-1807.0
24	17	31	15	384	220.0	-187036.0	-814.0	-2547.0
24	17	31	15	385	221.0	-170391.0	-782.0	-3075.0
24	17	31	15	385	222.0	-153667.0	-764.0	-3006.0
24	17	31	15	386	223.0	-148443.0	-716.0	-2407.0
24	17	31	15	405	224.0	-161431.0	-662.0	-1623.0
24	17	31	15	405	225.0	-177992.0	-631.0	-1479.0
24	17	31	15	406	226.0	-198237.0	-581.0	-1040.0
24	17	31	15	406	227.0	-220602.0	-511.0	-999.0
24	17	31	15	407	228.0	-231282.0	-468.0	-1482.0
24	17	31	15	407	229.0	-239280.0	-438.0	-1307.0
24	17	31	15	408	230.0	-242503.0	-413.0	-867.0
24	17	31	15	409	231.0	-240963.0	-381.0	-1321.0
24	17	31	15	428	232.0	-238881.0	-366.0	-1673.0
24	17	31	15	429	233.0	-236153.0	-315.0	-1557.0
24	17	31	15	429	234.0	-231626.0	-274.0	-904.0
24	17	31	15	430	235.0	-227596.0	-246.0	-468.0
24	17	31	15	431	236.0	-223556.0	-242.0	-230.0
24	17	31	15	431	237.0	-218831.0	-216.0	69.0
24	17	31	15	432	238.0	-212756.0	-204.0	-929.0
24	17	31	15	432	239.0	-205307.0	-199.0	-1444.0
24	17	31	15	433	240.0	-196977.0	-171.0	-1507.0
24	17	31	15	433	241.0	-188396.0	-124.0	-2316.0
24	17	31	15	434	242.0	-178817.0	-101.0	-2156.0
24	17	31	15	435	243.0	-171339.0	-84.0	-1819.0
24	17	31	15	435	244.0	-168051.0	-86.0	-950.0
24	17	31	15	436	245.0	-168852.0	-77.0	-772.0
24	17	31	15	436	246.0	-171471.0	-52.0	-482.0
24	17	31	15	437	247.0	-174023.0	-55.0	-479.0
24	17	31	15	452	248.0	-176384.0	-24.0	-662.0
24	17	31	15	452	249.0	-178088.0	4.0	-1298.0
24	17	31	15	453	250.0	-178710.0	1.0	-1462.0
24	17	31	15	454	251.0	-177673.0	-4.0	-1592.0
24	17	31	15	454	252.0	-174941.0	-3.0	-2024.0
24	17	31	15	455	253.0	-171428.0	11.0	-1426.0
24	17	31	15	455	254.0	-168154.0	11.0	-934.0
24	17	31	15	475	255.0	-165361.0	25.0	-637.0
24	17	31	15	476	0.0	-163389.0	19.0	-419.0
24	17	31	15	477	1.0	-162141.0	14.0	-752.0
24	17	31	15	477	2.0	-161971.0	23.0	-1159.0
24	17	31	15	478	3.0	-162289.0	18.0	-1332.0
24	17	31	15	478	4.0	-162867.0	14.0	-1869.0
24	17	31	15	479	5.0	-164079.0	7.0	-2470.0
24	17	31	15	479	6.0	-165997.0	9.0	-2391.0
24	17	31	15	498	7.0	-168025.0	24.0	-1581.0
24	17	31	15	499	8.0	-170312.0	36.0	-931.0
24	17	31	15	521	9.0	-172964.0	37.0	-497.0
24	17	31	15	522	10.0	-175877.0	32.0	-381.0
24	17	31	15	522	11.0	-179400.0	23.0	-757.0
24	17	31	15	523	12.0	-182827.0	7.0	-461.0
24	17	31	15	524	13.0	-186248.0	-9.0	-267.0
24	17	31	15	524	14.0	-189909.0	-5.0	-786.0
24	17	31	15	525	15.0	-193447.0	1.0	-1490.0
24	17	31	15	525	16.0	-195929.0	-4.0	-1232.0
24	17	31	15	526	17.0	-198636.0	-32.0	-474.0
24	17	31	15	526	18.0	-200992.0	-42.0	607.0
24	17	31	15	527	19.0	-202348.0	-44.0	624.0
24	17	31	15	528	20.0	-203184.0	-67.0	771.0
24	17	31	15	528	21.0	-203805.0	-74.0	310.0
24	17	31	15	529	22.0	-204106.0	-87.0	-722.0
24	17	31	15	529	23.0	-204476.0	-119.0	-326.0
24	17	31	15	530	27.0	-207982.0	-190.0	72.0
24	17	31	15	530	28.0	-209232.0	-206.0	624.0
24	17	31	15	531	29.0	-209896.0	-213.0	1266.0
24	17	31	15	532	30.0	-210394.0	-218.0	1894.0
24	17	31	15	532	31.0	-211001.0	-230.0	1088.0
24	17	31	15	533	32.0	-211680.0	-248.0	536.0
24	17	31	15	533	33.0	-212152.0	-249.0	562.0
24	17	31	15	534	34.0	-212760.0	-266.0	-168.0
24	17	31	15	535	35.0	-212951.0	-290.0	-1096.0
24	17	31	15	535	36.0	-212983.0	-306.0	-1327.0
24	17	31	15	536	37.0	-213726.0	-328.0	-847.0
24	17	31	15	536	38.0	-215142.0	-347.0	-462.0
24	17	31	15	537	39.0	-216893.0	-361.0	244.0
24	17	31	15	538	40.0	-218680.0	-381.0	384.0
24	17	31	15	538	41.0	-220361.0	-370.0	120.0
24	17	31	15	539	42.0	-221919.0	-394.0	147.0
24	17	31	15	540	43.0	-223268.0	-441.0	-37.0
24	17	31	15	547	44.0	-224332.0	-441.0	169.0
24	17	31	15	548	45.0	-224310.0	-432.0	-296.0
24	17	31	15	549	46.0	-223631.0	-434.0	-181.0
24	17	31	15	549	47.0	-222694.0	-444.0	221.0
24	17	31	15	550	48.0	-221630.0	-463.0	348.0
24	17	31	15	551	49.0	-220557.0	-471.0	1093.0
24	17	31	15	551	50.0	-219139.0	-489.0	1699.0
24	17	31	15	571	51.0	-217722.0	-497.0	1066.0
24	17	31	15	571	52.0	-216621.0	-483.0	798.0
24	17	31	15	572	53.0	-216061.0	-472.0	518.0
24	17	31	15	573	54.0	-215709.0	-466.0	644.0
24	17	31	15	573	55.0	-214526.0	-491.0	558.0
24	17	31	15	574	56.0	-213399.0	-489.0	451.0
24	17	31	15	574	57.0	-212226.0	-501.0	1188.0
24	17	31	15	575	58.0	-211049.0	-502.0	1764.0
24	17	31	15	594	59.0	-210027.0	-509.0	1974.0
24	17	31	15	595	60.0	-209226.0	-506.0	2134.0
24	17	31	15	595	61.0	-208671.0	-505.0	2061.0
24	17	31	15	596	62.0	-208236.0	-512.0	1639.0
24	17	31	15	597	63.0	-207617.0	-524.0	1163.0
24	17	31	15	597	64.0	-206734.0	-528.0	1115.0
24	17	31	15	598	65.0	-206066.0	-539.0	1106.0
24	17	31	15	598	66.0	-205095.0	-542.0	823.0
24	17	31	15	599	67.0	-203870.0	-537.0	1043.0
24	17	31	15	599	68.0	-203047.0	-529.0	1816.0
24	17	31	15	600	69.0	-202412.0	-531.0	2099.0
24	17	31	15	601	70.0	-201912.0	-527.0	1691.0
24	17	31	15	601	71.0	-201932.0	-518.0	1474.0
24	17	31	15	602	72.0	-202287.0	-542.0	1304.0
24	17	31	15	602	73.0	-203541.0	-527.0	1098.0
24	17	31	15	617	74.0	-204992.0	-522.0	544.0
24	17	31	15	618	75.0	-206508.0	-502.0	-154.0
24	17	31	15	619	76.0	-208024.0	-500.0	266.0
24	17	31	15	619	77.0	-208994.0	-517.0	792.0
24	17	31	15	620	78.0	-210139.0	-518.0	1019.0
24	17	31	15	621	79.0	-211234.0	-506.0	1151.0
24	17	31	15	624	80.0	-211969.0	-511.0	1344.0
24	17	31	15	625	81.0	-212752.0	-504.0	295.0
24	17	31	15	626	82.0	-213669.0	-487.0	-465.0
24	17	31	15	626	83.0	-213658.0	-492.0	-584.0
24	17	31	15	627	84.0	-213092.0	-505.0	-707.0
24	17	31	15	640	85.0	-212474.0	-504.0	-1240.0
24	17	31	15	641	86.0	-211327.0	-505.0	-641.0
24	17	31	15	642	87.0	-210132.0	-501.0	-625.0
24	17	31	15	642	88.0	-209670.0	-510.0	-432.0
24	17	31	15	643	89.0	-209372.0	-496.0	176.0
24	17	31	15	643	90.0	-209061.0	-499.0	920.0
24	17	31	15	644	91.0	-209044.0	-487.0	134.0
24	17	31	15	645	92.0	-209228.0	-501.0	-160.0
24	17	31	15	645	93.0	-209255.0	-509.0	-289.0
24	17	31	15	646	94.0	-208981.0	-506.0	-784.0
24	17	31	15	646	95.0	-208596.0	-526.0	-752.0
24	17	31	15	647	96.0	-208449.0	-517.0	-367.0
24	17	31	15	648	97.0	-208228.0	-484.0	292.0
24	17	31	15	663	98.0	-207954.0	-496.0	878.0
24	17	31	15	664	99.0	-207752.0	-496.0	1251.0
24	17	31	15	664	100.0	-207379.0	-469.0	1356.0
24	17	31	15	665	101.0	-207408.0	-482.0	819.0
24	17	31	15	666	102.0	-207947.0	-502.0	761.0
24	17	31	15	686	103.0	-208716.0	-496.0	763.0
24	17	31	15	687	104.0	-209294.0	-487.0	895.0
24	17	31	15	688	105.0	-209571.0	-500.0	353.0
24	17	31	15	695	106.0	-209643.0	-499.0	899.0
24	17	31	15	698	107.0	-209326.0	-497.0	1581.0
24	17	31	15	699	108.0	-209317.0	-526.0	2343.0
24	17	31	15	699	109.0	-208890.0	-536.0	2501.0
24	17	31	15	700	110.0	-207704.0	-559.0	2793.0
24	17	31	15	700	111.0	-206632.0	-555.0	2243.0
24	17	31	15	701	112.0	-205761.0	-554.0	2068.0
24	17	31	15	702	113.0	-205471.0	-556.0	1849.0
24	17	31	15	702	114.0	-205531.0	-562.0	1617.0
24	17	31	15	703	115.0	-205916.0	-593.0	1316.0
24	17	31	15	703	116.0	-206278.0	-612.0	1359.0
24	17	31	15	704	117.0	-206246.0	-636.0	2142.0
24	17	31	15	713	118.0	-206479.0	-637.0	2659.0
24	17	31	15	714	119.0	-207256.0	-637.0	2669.0
24	17	31	15	714	120.0	-207772.0	-641.0	2125.0
24	17	31	15	715	121.0	-208044.0	-663.0	2174.0
24	17	31	15	715	122.0	-208060.0	-669.0	1860.0
24	17	31	15	716	123.0	-207716.0	-690.0	1776.0
24	17	31	15	717	124.0	-206716.0	-721.0	1693.0
24	17	31	15	717	125.0	-205209.0	-749.0	1413.0
24	17	31	15	718	126.0	-203281.0	-779.0	1351.0
24	17	31	15	718	127.0	-201062.0	-794.0	1853.0
24	17	31	15	719	128.0	-198379.0	-812.0	2703.0
24	17	31	15	719	129.0	-196404.0	-840.0	2943.0
24	17	31	15	720	130.0	-195418.0	-874.0	3034.0
24	17	31	15	721	131.0	-194985.0	-911.0	2821.0
24	17	31	15	721	132.0	-194894.0	-922.0	2293.0
24	17	31	15	722	133.0	-196247.0	-932.0	2186.0
24	17	31	15	722	134.0	-197945.0	-981.0	2325.0
24	17	31	15	723	135.0	-200251.0	-991.0	2349.0
24	17	31	15	723	136.0	-203314.0	-1012.0	2396.0
24	17	31	15	734	137.0	-206982.0	-1043.0	2823.0
24	17	31	15	734	138.0	-209666.0	-1056.0	3534.0
24	17	31	15	735	139.0	-212792.0	-1086.0	3298.0
24	17	31	15	758	140.0	-216661.0	-1127.0	3715.0
24	17	31	15	758	141.0	-219767.0	-1129.0	3608.0
24	17	31	15	759	142.0	-221496.0	-1169.0	3018.0
24	17	31	15	759	143.0	-222556.0	-1217.0	2769.0
24	17	31	15	760	144.0	-223612.0	-1235.0	2255.0
24	17	31	15	761	145.0	-223771.0	-1279.0	2101.0
24	17	31	15	761	146.0	-223860.0	-1304.0	2795.0
24	17	31	15	762	147.0	-223891.0	-1332.0	3458.0
24	17	31	15	762	148.0	-224946.0	-1374.0	3971.0
24	17	31	15	763	149.0	-226085.0	-1386.0	4334.0
24	17	31	15	763	150.0	-227301.0	-1404.0	4461.0
24	17	31	15	764	151.0	-228748.0	-1416.0	3869.0
24	17	31	15	764	152.0	-230252.0	-1468.0	2968.0
24	17	31	15	765	153.0	-231859.0	-1504.0	1381.0
24	17	31	15	765	154.0	-233337.0	-1523.0	-394.0
24	17	31	15	766	155.0	-233937.0	-1566.0	-2168.0
24	17	31	15	781	156.0	-234582.0	-1605.0	-2645.0
24	17	31	15	781	157.0	-235006.0	-1623.0	-3184.0
24	17	31	15	782	158.0	-235744.0	-1627.0	-3854.0
24	17	31	15	782	159.0	-235934.0	-1647.0	-4666.0
24	17	31	15	783	160.0	-235767.0	-1676.0	-5612.0
24	17	31	15	783	161.0	-235559.0	-1720.0	-6616.0
24	17	31	15	784	162.0	-234906.0	-1747.0	-7726.0
24	17	31	15	804	163.0	-233850.0	-1779.0	-7732.0
24	17	31	15	805	164.0	-232187.0	-1801.0	-6259.0
24	17	31	15	805	165.0	-229904.0	-1834.0	-2571.0
24	17	31	15	806	166.0	-226486.0	-1872.0	1951.0
24	17	31	15	806	167.0	-223503.0	-1877.0	5788.0
24	17	31	15	807	168.0	-220798.0	-1905.0	6019.0
24	17	31	15	807	169.0	-217685.0	-1935.0	4401.0
24	17	31	15	808	170.0	-216000.0	-1977.0	4144.0
24	17	31	15	809	171.0	-215164.0	-2007.0	5116.0
24	17	31	15	809	172.0	-215971.0	-2002.0	7759.0
24	17	31	15	810	173.0	-217964.0	-2002.0	9283.0
24	17	31	15	810	174.0	-219315.0	-2049.0	9796.0
24	17	31	15	811	175.0	-220974.0	-2087.0	9628.0
24	17	31	15	811	176.0	-222198.0	-2121.0	9060.0
24	17	31	15	812	177.0	-221626.0	-2133.0	8437.0
24	17	31	15	827	178.0	-219792.0	-2167.0	7534.0
24	17	31	15	828	179.0	-216857.0	-2174.0	7716.0
24	17	31	15	828	180.0	-212544.0	-2190.0	8393.0
24	17	31	15	829	181.0	-203478.0	-2224.0	8904.0
24	17	31	15	829	182.0	-186727.0	-2271.0	8703.0
24	17	31	15	830	183.0	-167379.0	-2315.0	8151.0
24	17	31	15	831	184.0	-146745.0	-2362.0	7382.0
24	17	31	15	831	185.0	-130179.0	-2373.0	6190.0
24	17	31	15	832	186.0	-122159.0	-2409.0	5833.0
24	17	31	15	832	187.0	-122490.0	-2441.0	5687.0
24	17	31	15	833	188.0	-132164.0	-2433.0	5671.0
24	17	31	15	834	189.0	-150114.0	-2456.0	5079.0
24	17	31	15	835	190.0	-173481.0	-2488.0	4826.0
24	17	31	15	835	191.0	-200466.0	-2532.0	4422.0
24	17	31	15	836	192.0	-226863.0	-2569.0	4334.0
24	17	31	15	836	193.0	-250168.0	-2590.0	3793.0
24	17	31	15	850	194.0	-266488.0	-2592.0	3154.0
24	17	31	15	851	195.0	-274785.0	-2611.0	2130.0
24	17	31	15	851	196.0	-275503.0	-2641.0	2581.0
24	17	31	15	852	197.0	-268715.0	-2664.0	2924.0
24	17	31	15	852	198.0	-258922.0	-2701.0	2949.0
24	17	31	15	853	199.0	-248337.0	-2716.0	2491.0
24	17	31	15	853	200.0	-236762.0	-2724.0	2280.0
24	17	31	15	874	201.0	-225569.0	-2718.0	1825.0
24	17	31	15	874	202.0	-215352.0	-2720.0	1703.0
24	17	31	15	875	203.0	-206966.0	-2746.0	1246.0
24	17	31	15	876	204.0	-200924.0	-2781.0	569.0
24	17	31	15	876	205.0	-198959.0	-2812.0	828.0
24	17	31	15	877	206.0	-201351.0	-2825.0	1205.0
24	17	31	15	877	207.0	-204509.0	-2838.0	1751.0
24	17	31	15	878	208.0	-209507.0	-2863.0	1942.0
24	17	31	15	878	209.0	-212979.0	-2886.0	1786.0
24	17	31	15	879	210.0	-213122.0	-2882.0	1266.0
24	17	31	15	880	211.0	-212587.0	-2912.0	886.0
24	17	31	15	880	212.0	-211448.0	-2934.0	612.0
24	17	31	15	881	213.0	-210189.0	-2965.0	442.0
24	17	31	15	881	214.0	-207671.0	-2982.0	5.0
24	17	31	15	882	215.0	-204414.0	-3011.0	-521.0
24	17	31	15	896	216.0	-200904.0	-3015.0	-187.0
24	17	31	15	897	217.0	-198771.0	-3028.0	-177.0
24	17	31	15	897	218.0	-197333.0	-3034.0	-4.0
24	17	31	15	898	219.0	-197470.0	-3040.0	273.0
24	17	31	15	898	220.0	-200279.0	-3063.0	-170.0
24	17	31	15	899	221.0	-203696.0	-3101.0	-707.0
24	17	31	15	899	222.0	-207954.0	-3104.0	-384.0
24	17	31	15	920	223.0	-213444.0	-3096.0	-652.0
24	17	31	15	920	224.0	-219225.0	-3124.0	-1076.0
24	17	31	15	921	225.0	-223951.0	-3131.0	-654.0
24	17	31	15	922	226.0	-227830.0	-3149.0	-4.0
24	17	31	15	922	227.0	-231232.0	-3161.0	53.0
24	17	31	15	923	228.0	-232394.0	-3198.0	8.0
24	17	31	15	923	229.0	-232498.0	-3209.0	493.0
24	17	31	15	924	230.0	-230697.0	-3241.0	156.0
24	17	31	15	925	231.0	-227834.0	-3263.0	-530.0
24	17	31	15	925	232.0	-224047.0	-3271.0	-780.0
24	17	31	15	926	233.0	-220152.0	-3265.0	-900.0
24	17	31	15	926	234.0	-216562.0	-3294.0	-1796.0
24	17	31	15	927	235.0	-211810.0	-3297.0	-1415.0
24	17	31	15	927	236.0	-208481.0	-3326.0	-621.0
24	17	31	15	928	237.0	-206404.0	-3348.0	-146.0
24	17	31	15	943	238.0	-204266.0	-3351.0	73.0
24	17	31	15	944	239.0	-203904.0	-3338.0	396.0
24	17	31	15	945	240.0	-203829.0	-3334.0	-187.0
24	17	31	15	945	241.0	-204419.0	-3371.0	-911.0
24	17	31	15	946	242.0	-205441.0	-3381.0	-1229.0
24	17	31	15	946	243.0	-206199.0	-3407.0	-1531.0
24	17	31	15	947	244.0	-206871.0	-3436.0	-2436.0
24	17	31	15	947	245.0	-208487.0	-3437.0	-2314.0
24	17	31	15	967	246.0	-209591.0	-3444.0	-2011.0
24	17	31	15	968	247.0	-209618.0	-3456.0	-1495.0
24	17	31	15	968	248.0	-209494.0	-3484.0	-1276.0
24	17	31	15	969	249.0	-209639.0	-3514.0	-962.0
24	17	31	15	970	250.0	-209869.0	-3494.0	-1427.0
24	17	31	15	970	251.0	-210412.0	-3540.0	-1756.0
24	17	31	15	971	252.0	-209725.0	-3559.0	-2169.0
24	17	31	15	971	253.0	-209781.0	-3569.0	-2612.0
24	17	31	15	972	254.0	-209522.0	-3597.0	-2963.0
24	17	31	15	972	255.0	-209460.0	-3602.0	-3269.0
24	17	31	15	973	0.0	-209634.0	-3618.0	-2966.0
24	17	31	15	973	1.0	-209139.0	-3654.0	-2264.0
24	17	31	15	974	2.0	-208355.0	-3665.0	-2682.0
24	17	31	15	975	3.0	-207536.0	-3685.0	-3264.0
24	17	31	15	975	4.0	-207435.0	-3711.0	-3675.0
24	17	31	15	990	5.0	-206654.0	-3702.0	-3761.0
24	17	31	15	991	6.0	-205624.0	-3681.0	-4487.0
24	17	31	15	991	7.0	-205092.0	-3696.0	-5292.0
24	17	31	15	992	8.0	-204269.0	-3707.0	-5729.0
24	17	31	15	992	9.0	-202394.0	-3716.0	-5799.0
24	17	31	15	993	10.0	-200877.0	-3727.0	-5312.0
24	17	31	15	993	11.0	-200147.0	-3721.0	-4374.0
24	17	31	16	14	12.0	-199149.0	-3717.0	-4217.0
24	17	31	16	15	13.0	-198737.0	-3682.0	-4500.0
24	17	31	16	15	14.0	-199114.0	-3667.0	-4758.0
24	17	31	16	16	15.0	-198756.0	-3672.0	-4669.0
24	17	31	16	16	16.0	-197375.0	-3642.0	-5223.0
24	17	31	16	17	17.0	-196274.0	-3636.0	-5267.0
24	17	31	16	18	18.0	-195580.0	-3604.0	-5636.0
24	17	31	16	18	19.0	-195092.0	-3594.0	-5312.0
24	17	31	16	19	20.0	-193990.0	-3586.0	-4698.0
24	17	31	16	19	21.0	-192579.0	-3542.0	-4371.0
24	17	31	16	20	22.0	-190342.0	-3506.0	-4199.0
24	17	31	16	20	23.0	-188296.0	-3457.0	-3998.0
24	17	31	16	21	24.0	-186359.0	-3404.0	-4123.0
24	17	31	16	21	25.0	-185118.0	-3362.0	-4006.0
24	17	31	16	22	26.0	-183083.0	-3341.0	-4152.0
24	17	31	16	37	27.0	-181142.0	-3289.0	-4241.0
24	17	31	16	38	28.0	-180052.0	-3239.0	-4428.0
24	17	31	16	38	29.0	-179142.0	-3196.0	-3769.0
24	17	31	16	39	30.0	-178801.0	-3152.0	-2904.0
24	17	31	16	40	31.0	-178844.0	-3094.0	-2392.0
24	17	31	16	40	32.0	-179360.0	-3056.0	-1872.0
24	17	31	16	41	33.0	-179801.0	-3016.0	-1575.0
24	17	31	16	41	34.0	-180190.0	-2960.0	-1687.0
24	17	31	16	42	35.0	-181678.0	-2892.0	-1975.0
24	17	31	16	42	36.0	-184418.0	-2841.0	-2170.0
24	17	31	16	43	37.0	-187068.0	-2762.0	-2248.0
24	17	31	16	44	38.0	-190043.0	-2711.0	-2471.0
24	17	31	16	44	39.0	-193377.0	-2677.0	-1635.0
24	17	31	16	45	40.0	-196480.0	-2607.0	-622.0
24	17	31	16	45	41.0	-199946.0	-2539.0	175.0
24	17	31	16	64	42.0	-202719.0	-2485.0	661.0
24	17	31	16	65	43.0	-206252.0	-2416.0	761.0
24	17	31	16	66	44.0	-209389.0	-2338.0	461.0
24	17	31	16	66	45.0	-212399.0	-2296.0	-187.0
24	17	31	16	67	46.0	-214973.0	-2251.0	46.0
24	17	31	16	67	47.0	-217019.0	-2190.0	-266.0
24	17	31	16	68	48.0	-219352.0	-2142.0	-691.0
24	17	31	16	68	49.0	-221819.0	-2098.0	168.0
24	17	31	16	88	50.0	-224155.0	-2030.0	859.0
24	17	31	16	89	51.0	-226320.0	-1942.0	1281.0
24	17	31	16	90	52.0	-228452.0	-1896.0	1745.0
24	17	31	16	90	53.0	-230759.0	-1863.0	1666.0
24	17	31	16	91	54.0	-232199.0	-1830.0	1587.0
24	17	31	16	91	55.0	-233402.0	-1776.0	1104.0
24	17	31	16	92	56.0	-234172.0	-1736.0	1097.0
24	17	31	16	92	57.0	-233716.0	-1681.0	632.0
24	17	31	16	93	58.0	-232226.0	-1643.0	245.0
24	17	31	16	94	59.0	-229763.0	-1577.0	474.0
24	17	31	16	94	60.0	-225986.0	-1535.0	778.0
24	17	31	16	95	61.0	-219082.0	-1496.0	1659.0
24	17	31	16	95	62.0	-206202.0	-1458.0	1996.0
24	17	31	16	96	63.0	-186854.0	-1422.0	1869.0
24	17	31	16	96	64.0	-171664.0	-1371.0	1668.0
24	17	31	16	118	65.0	-170792.0	-1305.0	1693.0
24	17	31	16	118	66.0	-185561.0	-1259.0	1571.0
24	17	31	16	119	67.0	-199784.0	-1207.0	946.0
24	17	31	16	120	68.0	-218695.0	-1180.0	629.0
24	17	31	16	120	69.0	-234441.0	-1144.0	1413.0
24	17	31	16	121	70.0	-241787.0	-1099.0	1388.0
24	17	31	16	122	71.0	-247414.0	-1054.0	1981.0
24	17	31	16	122	72.0	-246145.0	-1029.0	2598.0
24	17	31	16	123	73.0	-241534.0	-1024.0	2204.0
24	17	31	16	123	74.0	-236411.0	-989.0	1168.0
24	17	31	16	124	75.0	-230645.0	-949.0	1236.0
24	17	31	16	125	76.0	-224144.0	-924.0	1409.0
24	17	31	16	125	77.0	-217363.0	-914.0	1118.0
24	17	31	16	126	78.0	-210244.0	-902.0	966.0
24	17	31	16	126	79.0	-203194.0	-881.0	1616.0
24	17	31	16	127	80.0	-197317.0	-866.0	2262.0
24	17	31	16	127	81.0	-191063.0	-839.0	3583.0
24	17	31	16	128	82.0	-184226.0	-813.0	4079.0
24	17	31	16	142	83.0	-177249.0	-780.0	3422.0
24	17	31	16	142	84.0	-171073.0	-758.0	3399.0
24	17	31	16	143	85.0	-166199.0	-745.0	2656.0
24	17	31	16	165	86.0	-162316.0	-749.0	2728.0
24	17	31	16	166	87.0	-160703.0	-715.0	2357.0
24	17	31	16	167	88.0	-160846.0	-714.0	2258.0
24	17	31	16	167	89.0	-162891.0	-724.0	2324.0
24	17	31	16	168	90.0	-168710.0	-691.0	2398.0
