24	17	20	27	11	39.0	-142014.0	-2560.0	-124657.0
24	17	20	27	13	40.0	-152138.0	-2530.0	-123741.0
24	17	20	27	16	41.0	-158495.0	-2517.0	-122624.0
24	17	20	27	18	42.0	-160953.0	-2519.0	-122122.0
24	17	20	27	20	43.0	-162139.0	-2522.0	-121482.0
24	17	20	27	23	44.0	-165984.0	-2495.0	-120620.0
24	17	20	27	25	45.0	-174712.0	-2484.0	-119937.0
24	17	20	27	27	46.0	-187152.0	-2523.0	-120902.0
24	17	20	27	29	47.0	-200421.0	-2496.0	-122312.0
24	17	20	27	30	48.0	-212332.0	-2476.0	-123997.0
24	17	20	27	31	49.0	-221290.0	-2499.0	-123528.0
24	17	20	27	32	50.0	-227026.0	-2494.0	-121812.0
24	17	20	27	32	51.0	-230417.0	-2470.0	-120792.0
24	17	20	27	33	52.0	-232255.0	-2481.0	-119556.0
24	17	20	27	34	53.0	-233056.0	-2495.0	-118545.0
24	17	20	27	43	54.0	-232164.0	-2487.0	-116511.0
24	17	20	27	43	55.0	-229667.0	-2481.0	-114779.0
24	17	20	27	44	56.0	-226597.0	-2476.0	-116364.0
24	17	20	27	45	57.0	-222925.0	-2493.0	-118330.0
24	17	20	27	72	58.0	-218904.0	-2497.0	-120994.0
24	17	20	27	73	59.0	-215191.0	-2486.0	-121485.0
24	17	20	27	73	60.0	-211687.0	-2477.0	-121023.0
24	17	20	27	74	61.0	-208464.0	-2480.0	-119946.0
24	17	20	27	98	62.0	-204977.0	-2478.0	-118822.0
24	17	20	27	144	63.0	-202194.0	-2458.0	-118207.0
24	17	20	27	145	64.0	-200469.0	-2458.0	-116766.0
24	17	20	27	146	65.0	-198553.0	-2478.0	-115766.0
24	17	20	27	146	66.0	-196274.0	-2473.0	-117180.0
24	17	20	27	147	67.0	-194674.0	-2473.0	-119698.0
24	17	20	27	148	68.0	-193708.0	-2470.0	-121860.0
24	17	20	27	148	69.0	-192499.0	-2465.0	-122056.0
24	17	20	27	149	70.0	-191502.0	-2463.0	-120917.0
24	17	20	27	149	71.0	-191113.0	-2468.0	-120154.0
24	17	20	27	150	72.0	-191137.0	-2486.0	-119751.0
24	17	20	27	150	73.0	-191342.0	-2485.0	-119350.0
24	17	20	27	151	74.0	-192140.0	-2466.0	-117874.0
24	17	20	27	152	75.0	-193900.0	-2453.0	-117012.0
24	17	20	27	152	76.0	-196383.0	-2470.0	-118739.0
24	17	20	27	153	87.0	-230926.0	-2471.0	-121884.0
24	17	20	27	153	110.0	-171833.0	-2364.0	-116077.0
24	17	20	27	154	111.0	-169838.0	-2344.0	-114551.0
24	17	20	27	190	112.0	-168591.0	-2309.0	-112804.0
24	17	20	27	190	113.0	-167324.0	-2294.0	-110956.0
24	17	20	27	191	114.0	-166556.0	-2296.0	-109091.0
24	17	20	27	192	115.0	-165946.0	-2289.0	-108886.0
24	17	20	27	193	116.0	-165526.0	-2289.0	-109971.0
24	17	20	27	193	117.0	-165506.0	-2273.0	-111737.0
24	17	20	27	194	118.0	-165497.0	-2250.0	-112461.0
24	17	20	27	194	119.0	-165254.0	-2242.0	-110817.0
24	17	20	27	195	120.0	-165294.0	-2248.0	-109311.0
24	17	20	27	196	121.0	-165294.0	-2249.0	-108349.0
24	17	20	27	196	122.0	-165250.0	-2231.0	-106874.0
24	17	20	27	197	123.0	-165327.0	-2207.0	-105134.0
24	17	20	27	198	124.0	-165684.0	-2172.0	-102716.0
24	17	20	27	198	125.0	-166172.0	-2183.0	-101667.0
24	17	20	27	199	126.0	-166594.0	-2183.0	-102186.0
24	17	20	27	199	127.0	-167221.0	-2181.0	-103849.0
24	17	20	27	200	132.0	-184213.0	-2117.0	-98375.0
24	17	20	27	201	133.0	-190481.0	-2093.0	-96912.0
24	17	20	27	201	134.0	-197531.0	-2088.0	-94985.0
24	17	20	27	202	135.0	-205656.0	-2054.0	-94795.0
24	17	20	27	202	136.0	-214674.0	-2054.0	-95950.0
24	17	20	27	203	137.0	-223532.0	-2035.0	-98243.0
24	17	20	27	204	138.0	-231894.0	-2032.0	-99273.0
24	17	20	27	235	139.0	-238339.0	-2002.0	-97190.0
24	17	20	27	236	140.0	-242610.0	-1969.0	-95087.0
24	17	20	27	236	141.0	-244568.0	-1941.0	-94034.0
24	17	20	27	237	142.0	-243946.0	-1938.0	-93226.0
24	17	20	27	238	143.0	-240217.0	-1951.0	-92096.0
24	17	20	27	239	144.0	-227631.0	-1932.0	-90984.0
24	17	20	27	239	145.0	-209016.0	-1925.0	-91302.0
24	17	20	27	240	146.0	-195839.0	-1910.0	-93161.0
24	17	20	27	241	147.0	-189654.0	-1908.0	-95060.0
24	17	20	27	241	148.0	-188146.0	-1911.0	-95579.0
24	17	20	27	242	149.0	-191665.0	-1886.0	-93956.0
24	17	20	27	242	150.0	-197276.0	-1893.0	-93031.0
24	17	20	27	243	151.0	-205909.0	-1886.0	-92059.0
24	17	20	27	244	152.0	-209686.0	-1882.0	-91176.0
24	17	20	27	244	153.0	-206040.0	-1881.0	-89896.0
24	17	20	27	245	154.0	-201014.0	-1874.0	-88023.0
24	17	20	27	280	155.0	-198468.0	-1887.0	-88059.0
24	17	20	27	281	156.0	-196218.0	-1858.0	-89051.0
24	17	20	27	282	157.0	-193813.0	-1830.0	-90783.0
24	17	20	27	282	158.0	-190554.0	-1810.0	-91488.0
24	17	20	27	283	159.0	-186133.0	-1804.0	-90660.0
24	17	20	27	284	160.0	-180786.0	-1790.0	-90098.0
24	17	20	27	284	161.0	-173909.0	-1775.0	-89250.0
24	17	20	27	285	162.0	-166256.0	-1746.0	-88381.0
24	17	20	27	286	163.0	-160175.0	-1733.0	-87689.0
24	17	20	27	286	164.0	-157491.0	-1731.0	-85705.0
24	17	20	27	287	165.0	-158763.0	-1735.0	-85513.0
24	17	20	27	287	166.0	-165005.0	-1751.0	-86936.0
24	17	20	27	288	167.0	-174494.0	-1747.0	-88596.0
24	17	20	27	289	168.0	-183386.0	-1742.0	-89130.0
24	17	20	27	289	169.0	-190084.0	-1756.0	-87685.0
24	17	20	27	290	170.0	-194801.0	-1761.0	-86708.0
24	17	20	27	291	177.0	-175330.0	-1807.0	-86426.0
24	17	20	27	291	178.0	-176576.0	-1821.0	-86753.0
24	17	20	27	292	179.0	-177779.0	-1816.0	-85551.0
24	17	20	27	292	180.0	-178882.0	-1809.0	-84894.0
24	17	20	27	293	181.0	-179422.0	-1824.0	-84175.0
24	17	20	27	294	182.0	-179024.0	-1821.0	-82846.0
24	17	20	27	294	183.0	-177315.0	-1812.0	-81939.0
24	17	20	27	324	184.0	-174987.0	-1824.0	-80404.0
24	17	20	27	324	185.0	-173257.0	-1827.0	-80817.0
24	17	20	27	325	186.0	-172181.0	-1827.0	-82161.0
24	17	20	27	326	187.0	-171079.0	-1859.0	-84055.0
24	17	20	27	327	188.0	-170314.0	-1866.0	-83959.0
24	17	20	27	327	189.0	-170125.0	-1867.0	-82507.0
24	17	20	27	328	190.0	-170476.0	-1871.0	-81461.0
24	17	20	27	329	191.0	-171524.0	-1894.0	-79986.0
24	17	20	27	329	192.0	-172974.0	-1897.0	-78530.0
24	17	20	27	330	193.0	-175106.0	-1902.0	-77409.0
24	17	20	27	330	194.0	-177551.0	-1941.0	-76943.0
24	17	20	27	331	195.0	-180103.0	-1938.0	-77937.0
24	17	20	27	332	196.0	-183184.0	-1936.0	-79814.0
24	17	20	27	332	197.0	-186389.0	-1925.0	-82065.0
24	17	20	27	333	198.0	-189182.0	-1957.0	-81306.0
24	17	20	27	334	199.0	-191720.0	-1972.0	-79766.0
24	17	20	27	334	200.0	-194479.0	-1964.0	-78654.0
24	17	20	27	335	201.0	-197463.0	-1952.0	-77738.0
24	17	20	27	335	202.0	-200293.0	-1962.0	-76651.0
24	17	20	27	336	203.0	-203130.0	-1964.0	-75327.0
24	17	20	27	337	204.0	-205629.0	-1977.0	-74404.0
24	17	20	27	337	205.0	-207847.0	-1986.0	-75534.0
24	17	20	27	369	206.0	-209653.0	-1994.0	-77073.0
24	17	20	27	369	207.0	-210526.0	-1974.0	-78233.0
24	17	20	27	370	208.0	-210615.0	-1975.0	-77312.0
24	17	20	27	371	209.0	-210003.0	-1996.0	-75224.0
24	17	20	27	372	210.0	-208551.0	-1987.0	-74202.0
24	17	20	27	372	211.0	-206704.0	-1987.0	-73727.0
24	17	20	27	373	212.0	-204781.0	-2022.0	-73395.0
24	17	20	27	374	213.0	-202826.0	-2020.0	-72249.0
24	17	20	27	374	214.0	-201027.0	-2030.0	-71253.0
24	17	20	27	375	215.0	-199687.0	-2039.0	-72490.0
24	17	20	27	375	216.0	-198827.0	-2039.0	-74313.0
24	17	20	27	376	217.0	-198289.0	-2048.0	-75454.0
24	17	20	27	376	218.0	-198243.0	-2065.0	-74393.0
24	17	20	27	377	219.0	-198534.0	-2076.0	-73208.0
24	17	20	27	414	220.0	-198665.0	-2085.0	-72454.0
24	17	20	27	415	222.0	-199420.0	-2099.0	-71315.0
24	17	20	27	416	223.0	-198961.0	-2098.0	-69686.0
24	17	20	27	416	224.0	-199160.0	-2112.0	-68022.0
24	17	20	27	417	225.0	-199525.0	-2119.0	-68972.0
24	17	20	27	418	226.0	-199996.0	-2094.0	-70621.0
24	17	20	27	418	227.0	-200686.0	-2066.0	-71734.0
24	17	20	27	419	228.0	-201022.0	-2089.0	-71338.0
24	17	20	27	420	229.0	-201547.0	-2098.0	-69999.0
24	17	20	27	420	230.0	-202368.0	-2112.0	-69154.0
24	17	20	27	421	231.0	-203024.0	-2110.0	-68787.0
24	17	20	27	422	232.0	-203651.0	-2105.0	-68569.0
24	17	20	27	422	233.0	-204382.0	-2117.0	-66972.0
24	17	20	27	423	234.0	-204738.0	-2135.0	-65022.0
24	17	20	27	424	235.0	-205356.0	-2136.0	-65265.0
24	17	20	27	424	236.0	-206774.0	-2126.0	-66449.0
24	17	20	27	425	245.0	-224361.0	-2155.0	-63494.0
24	17	20	27	425	246.0	-226032.0	-2156.0	-65029.0
24	17	20	27	426	247.0	-226962.0	-2136.0	-66521.0
24	17	20	27	427	248.0	-227497.0	-2139.0	-65887.0
24	17	20	27	427	249.0	-227837.0	-2122.0	-64177.0
24	17	20	27	428	250.0	-228176.0	-2119.0	-63397.0
24	17	20	27	459	251.0	-228406.0	-2109.0	-62997.0
24	17	20	27	460	252.0	-228719.0	-2112.0	-62714.0
24	17	20	27	460	253.0	-228611.0	-2121.0	-61141.0
24	17	20	27	461	254.0	-227924.0	-2113.0	-59904.0
24	17	20	27	462	255.0	-227710.0	-2108.0	-60973.0
24	17	20	27	462	0.0	-226920.0	-2119.0	-62689.0
24	17	20	27	463	1.0	-225676.0	-2122.0	-64656.0
24	17	20	27	464	2.0	-224700.0	-2121.0	-63998.0
24	17	20	27	464	3.0	-223829.0	-2134.0	-62226.0
24	17	20	27	465	4.0	-222184.0	-2144.0	-61369.0
24	17	20	27	466	5.0	-220122.0	-2142.0	-60905.0
24	17	20	27	466	6.0	-217695.0	-2143.0	-60363.0
24	17	20	27	467	7.0	-215017.0	-2137.0	-58852.0
24	17	20	27	467	8.0	-213001.0	-2145.0	-58200.0
24	17	20	27	468	9.0	-210931.0	-2157.0	-59327.0
24	17	20	27	469	11.0	-207352.0	-2170.0	-63452.0
24	17	20	27	469	12.0	-206134.0	-2142.0	-62426.0
24	17	20	27	470	13.0	-205387.0	-2144.0	-61185.0
24	17	20	27	470	14.0	-204654.0	-2154.0	-60851.0
24	17	20	27	504	15.0	-203636.0	-2134.0	-60704.0
24	17	20	27	505	16.0	-202884.0	-2129.0	-59951.0
24	17	20	27	505	17.0	-202490.0	-2124.0	-58586.0
24	17	20	27	506	18.0	-201852.0	-2125.0	-58389.0
24	17	20	27	507	19.0	-201538.0	-2130.0	-59259.0
24	17	20	27	507	20.0	-201521.0	-2128.0	-60971.0
24	17	20	27	508	21.0	-200846.0	-2116.0	-62630.0
24	17	20	27	509	22.0	-200447.0	-2123.0	-60757.0
24	17	20	27	510	23.0	-200670.0	-2119.0	-59001.0
24	17	20	27	510	24.0	-200964.0	-2122.0	-58420.0
24	17	20	27	511	25.0	-201711.0	-2136.0	-58256.0
24	17	20	27	512	26.0	-202223.0	-2136.0	-57814.0
24	17	20	27	512	27.0	-202862.0	-2117.0	-55533.0
24	17	20	27	513	28.0	-203694.0	-2124.0	-54704.0
24	17	20	27	514	29.0	-204237.0	-2132.0	-55262.0
24	17	20	27	514	30.0	-204643.0	-2136.0	-57007.0
24	17	20	27	515	33.0	-206986.0	-2127.0	-57387.0
24	17	20	27	515	34.0	-207796.0	-2137.0	-56141.0
24	17	20	27	516	35.0	-208421.0	-2141.0	-55287.0
24	17	20	27	517	36.0	-209416.0	-2137.0	-54036.0
24	17	20	27	517	37.0	-210222.0	-2119.0	-52224.0
24	17	20	27	518	38.0	-210596.0	-2112.0	-52023.0
24	17	20	27	518	39.0	-211019.0	-2121.0	-53204.0
24	17	20	27	549	40.0	-210786.0	-2099.0	-54391.0
24	17	20	27	550	41.0	-210021.0	-2083.0	-55017.0
24	17	20	27	551	42.0	-209380.0	-2093.0	-54134.0
24	17	20	27	551	43.0	-209057.0	-2113.0	-52662.0
24	17	20	27	552	44.0	-209158.0	-2114.0	-51342.0
24	17	20	27	553	45.0	-208768.0	-2109.0	-51375.0
24	17	20	27	554	46.0	-208504.0	-2128.0	-49791.0
24	17	20	27	554	47.0	-208747.0	-2121.0	-47726.0
24	17	20	27	555	48.0	-208870.0	-2140.0	-47805.0
24	17	20	27	556	49.0	-209035.0	-2143.0	-49584.0
24	17	20	27	557	50.0	-209629.0	-2130.0	-51701.0
24	17	20	27	557	51.0	-210543.0	-2122.0	-52932.0
24	17	20	27	558	52.0	-211007.0	-2134.0	-51757.0
24	17	20	27	559	53.0	-211701.0	-2136.0	-50620.0
24	17	20	27	559	54.0	-212362.0	-2119.0	-49774.0
24	17	20	27	560	56.0	-213577.0	-2139.0	-47326.0
24	17	20	27	561	57.0	-213997.0	-2146.0	-46194.0
24	17	20	27	561	58.0	-214586.0	-2125.0	-46421.0
24	17	20	27	562	59.0	-215637.0	-2136.0	-47777.0
24	17	20	27	562	60.0	-216517.0	-2146.0	-48842.0
24	17	20	27	563	61.0	-218036.0	-2126.0	-48723.0
24	17	20	27	594	62.0	-220045.0	-2126.0	-47196.0
24	17	20	27	595	63.0	-222206.0	-2133.0	-46403.0
24	17	20	27	596	64.0	-224200.0	-2132.0	-46434.0
24	17	20	27	597	65.0	-225659.0	-2139.0	-46192.0
24	17	20	27	597	66.0	-227409.0	-2154.0	-45394.0
24	17	20	27	598	67.0	-229031.0	-2155.0	-43610.0
24	17	20	27	599	68.0	-229882.0	-2152.0	-43702.0
24	17	20	27	599	69.0	-229946.0	-2159.0	-45349.0
24	17	20	27	600	70.0	-230493.0	-2174.0	-47326.0
24	17	20	27	601	71.0	-230657.0	-2182.0	-48709.0
24	17	20	27	602	72.0	-230407.0	-2157.0	-48269.0
24	17	20	27	602	73.0	-230318.0	-2165.0	-48591.0
24	17	20	27	603	74.0	-229649.0	-2181.0	-49681.0
24	17	20	27	603	75.0	-228617.0	-2174.0	-50872.0
24	17	20	27	604	76.0	-227002.0	-2169.0	-51751.0
24	17	20	27	605	78.0	-222452.0	-2212.0	-52512.0
24	17	20	27	605	79.0	-219514.0	-2212.0	-53734.0
24	17	20	27	606	80.0	-216356.0	-2190.0	-55994.0
24	17	20	27	607	81.0	-212574.0	-2177.0	-57182.0
24	17	20	27	607	82.0	-207833.0	-2164.0	-55532.0
24	17	20	27	608	83.0	-203008.0	-2172.0	-54052.0
24	17	20	27	639	84.0	-198415.0	-2176.0	-51525.0
24	17	20	27	640	85.0	-193891.0	-2160.0	-45871.0
24	17	20	27	640	86.0	-189878.0	-2177.0	-40407.0
24	17	20	27	641	87.0	-187193.0	-2166.0	-34344.0
24	17	20	27	642	88.0	-185618.0	-2162.0	-27097.0
24	17	20	27	642	89.0	-184672.0	-2180.0	-21279.0
24	17	20	27	643	90.0	-184253.0	-2186.0	-19634.0
24	17	20	27	643	91.0	-183761.0	-2174.0	-18587.0
24	17	20	27	644	92.0	-183971.0	-2179.0	-17716.0
24	17	20	27	644	93.0	-185621.0	-2187.0	-17827.0
24	17	20	27	645	94.0	-189446.0	-2167.0	-17762.0
24	17	20	27	645	95.0	-195696.0	-2160.0	-17756.0
24	17	20	27	646	96.0	-203092.0	-2176.0	-17334.0
24	17	20	27	647	97.0	-211493.0	-2194.0	-16767.0
24	17	20	27	647	98.0	-220129.0	-2207.0	-19117.0
24	17	20	27	648	100.0	-236827.0	-2216.0	-27114.0
24	17	20	27	648	101.0	-243202.0	-2214.0	-28991.0
24	17	20	27	649	102.0	-248936.0	-2227.0	-29719.0
24	17	20	27	649	103.0	-255777.0	-2237.0	-30176.0
24	17	20	27	657	104.0	-264521.0	-2219.0	-31936.0
24	17	20	27	658	105.0	-264405.0	-2193.0	-33530.0
24	17	20	27	659	106.0	-247237.0	-2189.0	-34075.0
24	17	20	27	684	107.0	-219797.0	-2177.0	-33747.0
24	17	20	27	684	108.0	-195019.0	-2176.0	-35187.0
24	17	20	27	685	109.0	-176722.0	-2185.0	-37119.0
24	17	20	27	685	110.0	-162022.0	-2167.0	-39379.0
24	17	20	27	686	111.0	-148044.0	-2161.0	-39730.0
24	17	20	27	687	112.0	-140025.0	-2172.0	-39046.0
24	17	20	27	687	113.0	-143015.0	-2150.0	-38354.0
24	17	20	27	688	114.0	-154579.0	-2149.0	-37627.0
24	17	20	27	688	115.0	-167096.0	-2146.0	-37646.0
24	17	20	27	689	116.0	-176649.0	-2141.0	-37061.0
24	17	20	27	689	117.0	-181714.0	-2134.0	-35652.0
24	17	20	27	690	118.0	-181644.0	-2139.0	-37207.0
24	17	20	27	690	119.0	-175571.0	-2161.0	-38667.0
24	17	20	27	691	120.0	-166659.0	-2171.0	-39959.0
24	17	20	27	692	121.0	-159656.0	-2165.0	-39439.0
24	17	20	27	692	123.0	-150643.0	-2184.0	-37995.0
24	17	20	27	693	124.0	-150008.0	-2155.0	-37130.0
24	17	20	27	693	125.0	-154119.0	-2151.0	-36564.0
24	17	20	27	694	126.0	-162294.0	-2140.0	-35870.0
24	17	20	27	707	127.0	-170377.0	-2127.0	-34842.0
24	17	20	27	707	128.0	-176768.0	-2128.0	-36166.0
24	17	20	27	708	129.0	-180491.0	-2122.0	-38324.0
24	17	20	27	731	130.0	-182062.0	-2124.0	-40459.0
24	17	20	27	731	131.0	-185298.0	-2092.0	-40196.0
24	17	20	27	732	132.0	-192476.0	-2099.0	-39276.0
24	17	20	27	732	133.0	-203614.0	-2088.0	-39134.0
24	17	20	27	733	134.0	-216569.0	-2083.0	-38125.0
24	17	20	27	734	135.0	-228179.0	-2084.0	-36929.0
24	17	20	27	734	136.0	-237202.0	-2079.0	-35295.0
24	17	20	27	735	137.0	-242627.0	-2060.0	-33133.0
24	17	20	27	735	138.0	-245046.0	-2074.0	-33516.0
24	17	20	27	736	139.0	-245202.0	-2074.0	-35456.0
24	17	20	27	736	140.0	-244040.0	-2064.0	-37404.0
24	17	20	27	737	141.0	-241550.0	-2062.0	-37189.0
24	17	20	27	738	142.0	-237879.0	-2058.0	-35872.0
24	17	20	27	738	143.0	-234582.0	-2070.0	-34297.0
24	17	20	27	739	144.0	-231071.0	-2061.0	-32841.0
24	17	20	27	740	145.0	-227544.0	-2062.0	-31988.0
24	17	20	27	740	146.0	-223838.0	-2080.0	-30903.0
24	17	20	27	741	147.0	-219647.0	-2064.0	-30515.0
24	17	20	27	741	148.0	-216387.0	-2054.0	-32547.0
24	17	20	27	742	149.0	-213459.0	-2070.0	-34922.0
24	17	20	27	742	150.0	-210071.0	-2056.0	-37511.0
24	17	20	27	743	151.0	-207232.0	-2026.0	-37635.0
24	17	20	27	775	152.0	-204887.0	-2029.0	-36523.0
24	17	20	27	775	153.0	-202295.0	-2032.0	-35861.0
24	17	20	27	776	154.0	-199874.0	-2049.0	-35728.0
24	17	20	27	777	155.0	-198426.0	-2037.0	-35148.0
24	17	20	27	778	156.0	-197474.0	-2050.0	-33583.0
24	17	20	27	778	157.0	-196882.0	-2062.0	-32899.0
24	17	20	27	779	158.0	-196916.0	-2068.0	-34011.0
24	17	20	27	779	159.0	-197527.0	-2069.0	-35247.0
24	17	20	27	780	160.0	-198960.0	-2055.0	-37856.0
24	17	20	27	780	161.0	-200849.0	-2060.0	-38501.0
24	17	20	27	781	162.0	-203283.0	-2058.0	-37319.0
24	17	20	27	782	163.0	-206497.0	-2057.0	-36331.0
24	17	20	27	782	164.0	-209447.0	-2057.0	-35662.0
24	17	20	27	783	165.0	-212176.0	-2056.0	-35635.0
24	17	20	27	783	166.0	-215258.0	-2057.0	-34662.0
24	17	20	27	784	168.0	-220936.0	-2090.0	-35578.0
24	17	20	27	784	169.0	-221836.0	-2082.0	-36176.0
24	17	20	27	785	170.0	-222501.0	-2082.0	-38445.0
24	17	20	27	785	171.0	-222922.0	-2044.0	-38620.0
24	17	20	27	786	172.0	-222351.0	-2025.0	-37686.0
24	17	20	27	786	173.0	-221142.0	-2025.0	-37101.0
24	17	20	27	819	174.0	-218800.0	-2003.0	-36601.0
24	17	20	27	820	175.0	-215676.0	-1997.0	-36407.0
24	17	20	27	820	176.0	-212615.0	-1994.0	-35311.0
24	17	20	27	821	177.0	-209908.0	-1991.0	-34685.0
24	17	20	27	821	178.0	-206579.0	-2020.0	-35824.0
24	17	20	27	822	179.0	-203681.0	-2019.0	-37087.0
24	17	20	27	822	180.0	-200911.0	-2018.0	-38494.0
24	17	20	27	823	181.0	-198065.0	-2023.0	-37739.0
24	17	20	27	824	182.0	-194865.0	-2009.0	-36074.0
24	17	20	27	824	183.0	-190734.0	-2007.0	-34920.0
24	17	20	27	825	184.0	-187302.0	-2006.0	-34364.0
24	17	20	27	825	185.0	-184104.0	-2005.0	-34081.0
24	17	20	27	826	186.0	-180504.0	-2000.0	-32949.0
24	17	20	27	826	187.0	-177721.0	-1977.0	-31967.0
24	17	20	27	827	188.0	-175350.0	-1981.0	-33271.0
24	17	20	27	828	190.0	-172021.0	-1962.0	-36847.0
24	17	20	27	828	191.0	-170683.0	-1954.0	-36239.0
24	17	20	27	829	192.0	-170003.0	-1941.0	-35102.0
24	17	20	27	830	193.0	-168721.0	-1934.0	-33740.0
24	17	20	27	830	194.0	-167557.0	-1915.0	-32560.0
24	17	20	27	831	195.0	-166404.0	-1924.0	-31547.0
24	17	20	27	839	196.0	-166320.0	-1906.0	-29476.0
24	17	20	27	864	197.0	-167431.0	-1901.0	-28399.0
24	17	20	27	864	198.0	-168677.0	-1876.0	-29249.0
24	17	20	27	865	199.0	-170493.0	-1882.0	-30425.0
24	17	20	27	866	200.0	-172052.0	-1863.0	-31035.0
24	17	20	27	866	201.0	-173022.0	-1857.0	-29922.0
24	17	20	27	867	202.0	-173931.0	-1865.0	-28275.0
24	17	20	27	867	203.0	-174830.0	-1856.0	-26892.0
24	17	20	27	868	204.0	-176370.0	-1852.0	-25826.0
24	17	20	27	869	205.0	-178464.0	-1851.0	-24540.0
24	17	20	27	869	206.0	-181101.0	-1847.0	-22231.0
24	17	20	27	870	207.0	-182569.0	-1851.0	-21114.0
24	17	20	27	870	208.0	-183436.0	-1830.0	-22019.0
24	17	20	27	871	209.0	-184137.0	-1829.0	-23274.0
24	17	20	27	871	210.0	-186138.0	-1814.0	-23272.0
24	17	20	27	872	211.0	-186939.0	-1805.0	-21790.0
24	17	20	27	873	213.0	-188392.0	-1770.0	-19297.0
24	17	20	27	873	214.0	-190402.0	-1760.0	-18172.0
24	17	20	27	874	215.0	-193274.0	-1719.0	-17449.0
24	17	20	27	874	216.0	-195735.0	-1689.0	-15866.0
24	17	20	27	875	217.0	-199439.0	-1677.0	-15087.0
24	17	20	27	875	218.0	-204018.0	-1657.0	-15602.0
24	17	20	27	909	219.0	-208044.0	-1632.0	-17088.0
24	17	20	27	955	220.0	-213408.0	-1617.0	-17667.0
24	17	20	27	955	221.0	-219897.0	-1601.0	-16074.0
24	17	20	27	956	222.0	-226616.0	-1567.0	-13768.0
24	17	20	27	957	223.0	-233100.0	-1559.0	-12674.0
24	17	20	27	957	224.0	-239975.0	-1549.0	-11730.0
24	17	20	27	958	225.0	-246006.0	-1531.0	-10661.0
24	17	20	27	958	226.0	-251656.0	-1522.0	-9942.0
24	17	20	27	959	227.0	-255321.0	-1493.0	-10085.0
24	17	20	27	959	228.0	-256024.0	-1494.0	-11399.0
24	17	20	27	960	229.0	-255232.0	-1484.0	-12716.0
24	17	20	27	960	230.0	-250638.0	-1459.0	-13732.0
24	17	20	27	961	231.0	-238681.0	-1422.0	-12436.0
24	17	20	27	962	232.0	-219826.0	-1418.0	-10966.0
24	17	20	27	962	233.0	-203491.0	-1414.0	-10177.0
24	17	20	27	963	235.0	-191072.0	-1364.0	-7883.0
24	17	20	27	963	236.0	-193984.0	-1347.0	-6609.0
24	17	20	27	964	2.0	-230549.0	-1141.0	-1169.0
24	17	20	27	964	3.0	-228410.0	-1131.0	-3032.0
24	17	20	27	965	4.0	-222405.0	-1096.0	-3501.0
24	17	20	27	966	5.0	-215704.0	-1072.0	-1438.0
24	17	20	27	966	6.0	-210991.0	-1069.0	-209.0
24	17	20	27	967	7.0	-208739.0	-1064.0	937.0
24	17	20	27	998	8.0	-206437.0	-1077.0	2208.0
24	17	20	27	999	9.0	-203083.0	-1065.0	3818.0
24	17	20	28	0	10.0	-199051.0	-1052.0	6374.0
24	17	20	28	0	11.0	-192867.0	-1061.0	6449.0
24	17	20	28	1	12.0	-185946.0	-1065.0	4177.0
24	17	20	28	1	13.0	-178786.0	-1069.0	1496.0
24	17	20	28	2	14.0	-171854.0	-1059.0	478.0
24	17	20	28	3	15.0	-165505.0	-1056.0	1235.0
24	17	20	28	3	16.0	-159826.0	-1079.0	1987.0
24	17	20	28	4	17.0	-155789.0	-1058.0	3117.0
24	17	20	28	4	18.0	-152744.0	-1064.0	4148.0
24	17	20	28	5	19.0	-151784.0	-1079.0	5799.0
24	17	20	28	5	20.0	-152951.0	-1069.0	8381.0
24	17	20	28	6	21.0	-156009.0	-1084.0	8126.0
24	17	20	28	7	22.0	-160622.0	-1094.0	6716.0
24	17	20	28	7	24.0	-172818.0	-1076.0	4348.0
24	17	20	28	8	25.0	-180052.0	-1074.0	5790.0
24	17	20	28	8	26.0	-187084.0	-1073.0	5758.0
24	17	20	28	9	27.0	-195060.0	-1069.0	6357.0
24	17	20	28	9	28.0	-202012.0	-1067.0	7359.0
24	17	20	28	10	29.0	-209479.0	-1049.0	8598.0
24	17	20	28	43	30.0	-218259.0	-1030.0	9916.0
24	17	20	28	44	31.0	-226545.0	-1055.0	10094.0
24	17	20	28	45	32.0	-235914.0	-1066.0	9199.0
24	17	20	28	46	33.0	-244644.0	-1080.0	7464.0
24	17	20	28	47	34.0	-251377.0	-1079.0	7138.0
24	17	20	28	47	35.0	-257432.0	-1073.0	8828.0
24	17	20	28	48	36.0	-262391.0	-1078.0	9847.0
24	17	20	28	48	37.0	-264402.0	-1092.0	10703.0
24	17	20	28	49	38.0	-265804.0	-1094.0	11728.0
24	17	20	28	50	39.0	-267549.0	-1113.0	13285.0
24	17	20	28	51	40.0	-266324.0	-1099.0	14809.0
24	17	20	28	52	41.0	-262261.0	-1119.0	14974.0
24	17	20	28	53	42.0	-258736.0	-1136.0	13896.0
24	17	20	28	53	43.0	-254604.0	-1137.0	11563.0
24	17	20	28	54	44.0	-249712.0	-1146.0	11463.0
24	17	20	28	54	46.0	-243914.0	-1132.0	14634.0
24	17	20	28	55	47.0	-240633.0	-1149.0	15094.0
24	17	20	28	56	48.0	-236936.0	-1134.0	15176.0
24	17	20	28	56	49.0	-234014.0	-1133.0	16402.0
24	17	20	28	57	50.0	-231234.0	-1143.0	18274.0
24	17	20	28	57	51.0	-228168.0	-1111.0	17843.0
24	17	20	28	58	52.0	-224825.0	-1123.0	16549.0
24	17	20	28	89	53.0	-222229.0	-1126.0	15543.0
24	17	20	28	89	54.0	-221189.0	-1108.0	16411.0
24	17	20	28	90	55.0	-220340.0	-1099.0	17614.0
24	17	20	28	90	56.0	-218973.0	-1093.0	17932.0
24	17	20	28	91	57.0	-218478.0	-1103.0	18590.0
24	17	20	28	92	58.0	-218737.0	-1104.0	19287.0
24	17	20	28	92	59.0	-218164.0	-1117.0	20829.0
24	17	20	28	93	60.0	-217951.0	-1126.0	22241.0
24	17	20	28	93	61.0	-218154.0	-1134.0	20963.0
24	17	20	28	94	62.0	-218843.0	-1141.0	19566.0
24	17	20	28	95	63.0	-220319.0	-1143.0	18108.0
24	17	20	28	95	64.0	-221831.0	-1154.0	18163.0
24	17	20	28	96	65.0	-222451.0	-1162.0	19338.0
24	17	20	28	97	66.0	-224286.0	-1162.0	20835.0
24	17	20	28	97	67.0	-227084.0	-1170.0	22698.0
24	17	20	28	98	69.0	-230713.0	-1164.0	26561.0
24	17	20	28	99	70.0	-231851.0	-1184.0	29896.0
24	17	20	28	99	71.0	-232996.0	-1182.0	30621.0
24	17	20	28	100	72.0	-232941.0	-1192.0	30199.0
24	17	20	28	100	73.0	-232272.0	-1194.0	28795.0
24	17	20	28	101	74.0	-230809.0	-1187.0	28951.0
24	17	20	28	134	75.0	-228365.0	-1188.0	29430.0
24	17	20	28	135	76.0	-226584.0	-1184.0	29959.0
24	17	20	28	135	77.0	-225012.0	-1180.0	30838.0
24	17	20	28	136	78.0	-222801.0	-1172.0	31103.0
24	17	20	28	137	79.0	-220540.0	-1187.0	32850.0
24	17	20	28	137	80.0	-218958.0	-1205.0	34338.0
24	17	20	28	138	81.0	-217622.0	-1224.0	33625.0
24	17	20	28	138	82.0	-216902.0	-1232.0	32098.0
24	17	20	28	139	83.0	-216214.0	-1231.0	30331.0
24	17	20	28	140	84.0	-214634.0	-1227.0	30504.0
24	17	20	28	140	85.0	-213862.0	-1229.0	31714.0
24	17	20	28	141	86.0	-213745.0	-1239.0	32756.0
24	17	20	28	141	87.0	-213319.0	-1218.0	33864.0
24	17	20	28	142	88.0	-212734.0	-1199.0	34548.0
24	17	20	28	143	89.0	-212247.0	-1214.0	35717.0
24	17	20	28	143	91.0	-211863.0	-1208.0	36983.0
24	17	20	28	144	92.0	-211402.0	-1209.0	35961.0
24	17	20	28	144	93.0	-212097.0	-1208.0	34606.0
24	17	20	28	145	94.0	-212877.0	-1206.0	35267.0
24	17	20	28	146	95.0	-212678.0	-1191.0	36179.0
24	17	20	28	146	96.0	-213204.0	-1159.0	36737.0
24	17	20	28	147	97.0	-213544.0	-1161.0	37726.0
24	17	20	28	179	98.0	-212957.0	-1145.0	38813.0
24	17	20	28	180	99.0	-212801.0	-1143.0	40826.0
24	17	20	28	181	100.0	-213596.0	-1162.0	42974.0
24	17	20	28	182	101.0	-213792.0	-1155.0	43083.0
24	17	20	28	182	102.0	-213731.0	-1142.0	42004.0
24	17	20	28	183	103.0	-214817.0	-1156.0	40452.0
24	17	20	28	183	104.0	-216784.0	-1147.0	41284.0
24	17	20	28	184	105.0	-219146.0	-1151.0	42610.0
24	17	20	28	185	106.0	-221589.0	-1133.0	43691.0
24	17	20	28	185	107.0	-223652.0	-1129.0	44748.0
24	17	20	28	186	108.0	-225288.0	-1127.0	46387.0
24	17	20	28	186	109.0	-226963.0	-1106.0	48635.0
24	17	20	28	187	110.0	-227736.0	-1115.0	50369.0
24	17	20	28	188	111.0	-227277.0	-1131.0	50809.0
24	17	20	28	189	112.0	-227033.0	-1124.0	51431.0
24	17	20	28	189	114.0	-225508.0	-1111.0	53967.0
24	17	20	28	190	115.0	-225282.0	-1097.0	56039.0
24	17	20	28	191	116.0	-224554.0	-1105.0	57631.0
24	17	20	28	191	117.0	-223542.0	-1108.0	59068.0
24	17	20	28	192	118.0	-223581.0	-1077.0	60988.0
24	17	20	28	192	119.0	-224273.0	-1061.0	63707.0
24	17	20	28	225	120.0	-224825.0	-1056.0	65253.0
24	17	20	28	225	121.0	-226588.0	-1054.0	64486.0
24	17	20	28	226	122.0	-228597.0	-1041.0	63304.0
24	17	20	28	227	123.0	-231122.0	-1055.0	62177.0
24	17	20	28	227	124.0	-234319.0	-1061.0	63161.0
24	17	20	28	228	125.0	-236546.0	-1064.0	64961.0
24	17	20	28	228	126.0	-239177.0	-1067.0	66527.0
24	17	20	28	229	127.0	-241130.0	-1054.0	67625.0
24	17	20	28	230	128.0	-241868.0	-1031.0	69067.0
24	17	20	28	230	129.0	-242555.0	-1043.0	71041.0
24	17	20	28	231	130.0	-243285.0	-1062.0	71571.0
24	17	20	28	231	131.0	-244335.0	-1074.0	70771.0
24	17	20	28	232	132.0	-245043.0	-1089.0	70163.0
24	17	20	28	233	133.0	-246104.0	-1086.0	69824.0
24	17	20	28	233	134.0	-247007.0	-1081.0	71037.0
24	17	20	28	234	136.0	-248753.0	-1098.0	73747.0
24	17	20	28	234	137.0	-249079.0	-1094.0	74391.0
24	17	20	28	235	138.0	-248521.0	-1088.0	75418.0
24	17	20	28	236	139.0	-247423.0	-1081.0	77553.0
24	17	20	28	236	140.0	-245794.0	-1087.0	78214.0
24	17	20	28	237	141.0	-243185.0	-1077.0	77111.0
24	17	20	28	237	142.0	-240694.0	-1071.0	76411.0
24	17	20	28	269	143.0	-238101.0	-1062.0	76720.0
24	17	20	28	270	144.0	-234999.0	-1043.0	78769.0
24	17	20	28	270	145.0	-231759.0	-1042.0	80646.0
24	17	20	28	271	146.0	-228969.0	-1039.0	81880.0
24	17	20	28	271	147.0	-226820.0	-1067.0	83246.0
24	17	20	28	272	148.0	-225474.0	-1059.0	84071.0
24	17	20	28	273	149.0	-223982.0	-1047.0	85937.0
24	17	20	28	273	150.0	-222782.0	-1062.0	86761.0
24	17	20	28	274	151.0	-222457.0	-1073.0	86004.0
24	17	20	28	275	152.0	-221897.0	-1074.0	84976.0
24	17	20	28	275	153.0	-220978.0	-1075.0	83416.0
24	17	20	28	276	154.0	-220476.0	-1074.0	84543.0
24	17	20	28	276	155.0	-219748.0	-1092.0	85562.0
24	17	20	28	277	156.0	-219152.0	-1097.0	85836.0
24	17	20	28	277	157.0	-218973.0	-1085.0	85587.0
24	17	20	28	278	159.0	-219727.0	-1098.0	86044.0
24	17	20	28	314	160.0	-219322.0	-1116.0	84708.0
24	17	20	28	315	161.0	-219228.0	-1106.0	80738.0
24	17	20	28	315	162.0	-218727.0	-1100.0	76139.0
24	17	20	28	316	163.0	-217478.0	-1099.0	73553.0
24	17	20	28	317	164.0	-215846.0	-1097.0	74984.0
24	17	20	28	318	165.0	-213312.0	-1080.0	77378.0
24	17	20	28	318	166.0	-209718.0	-1085.0	79796.0
24	17	20	28	319	167.0	-204998.0	-1121.0	82708.0
24	17	20	28	320	168.0	-199297.0	-1117.0	85940.0
24	17	20	28	321	169.0	-193673.0	-1101.0	90359.0
24	17	20	28	322	170.0	-188010.0	-1110.0	94756.0
24	17	20	28	323	171.0	-182006.0	-1129.0	96495.0
24	17	20	28	324	172.0	-176591.0	-1132.0	96877.0
24	17	20	28	325	173.0	-171587.0	-1144.0	100348.0
24	17	20	28	325	174.0	-166079.0	-1152.0	106798.0
24	17	20	28	326	181.0	-158401.0	-1168.0	115017.0
24	17	20	28	327	182.0	-166763.0	-1176.0	113141.0
24	17	20	28	327	183.0	-175548.0	-1141.0	111419.0
24	17	20	28	328	184.0	-184707.0	-1121.0	111571.0
24	17	20	28	328	185.0	-193556.0	-1121.0	111371.0
24	17	20	28	329	186.0	-201625.0	-1126.0	109574.0
24	17	20	28	329	187.0	-209364.0	-1103.0	107791.0
24	17	20	28	359	188.0	-215891.0	-1091.0	107156.0
24	17	20	28	359	189.0	-222136.0	-1085.0	106531.0
24	17	20	28	360	190.0	-226182.0	-1092.0	104876.0
24	17	20	28	361	191.0	-218877.0	-1099.0	102319.0
24	17	20	28	362	192.0	-198029.0	-1085.0	99382.0
24	17	20	28	363	193.0	-169967.0	-1063.0	97465.0
24	17	20	28	363	194.0	-139879.0	-1074.0	97898.0
24	17	20	28	364	195.0	-110537.0	-1085.0	97617.0
24	17	20	28	365	196.0	-85219.0	-1072.0	97069.0
24	17	20	28	366	197.0	-66236.0	-1068.0	97059.0
24	17	20	28	366	198.0	-54179.0	-1071.0	97289.0
24	17	20	28	367	199.0	-50536.0	-1084.0	97180.0
24	17	20	28	368	200.0	-57426.0	-1074.0	95488.0
24	17	20	28	368	201.0	-71566.0	-1065.0	93334.0
24	17	20	28	403	202.0	-86327.0	-1084.0	90929.0
24	17	20	28	404	203.0	-95519.0	-1068.0	89277.0
24	17	20	28	405	204.0	-99847.0	-1063.0	89483.0
24	17	20	28	406	205.0	-106951.0	-1062.0	89381.0
24	17	20	28	406	206.0	-120931.0	-1039.0	89548.0
24	17	20	28	407	207.0	-140271.0	-1030.0	88836.0
24	17	20	28	408	208.0	-161851.0	-1017.0	89008.0
24	17	20	28	409	209.0	-183674.0	-1010.0	89880.0
24	17	20	28	410	210.0	-204117.0	-1001.0	89116.0
24	17	20	28	410	211.0	-221464.0	-1007.0	87877.0
24	17	20	28	411	212.0	-235834.0	-1015.0	86194.0
24	17	20	28	412	213.0	-247493.0	-1013.0	86429.0
24	17	20	28	412	214.0	-258241.0	-1006.0	88365.0
24	17	20	28	413	215.0	-267686.0	-999.0	89256.0
24	17	20	28	414	216.0	-274047.0	-1004.0	90363.0
24	17	20	28	414	217.0	-276412.0	-997.0	92238.0
24	17	20	28	415	226.0	-216025.0	-950.0	94000.0
24	17	20	28	415	227.0	-212767.0	-961.0	94316.0
24	17	20	28	416	228.0	-210939.0	-952.0	94856.0
24	17	20	28	417	229.0	-210060.0	-937.0	96243.0
24	17	20	28	417	230.0	-209694.0	-933.0	95944.0
24	17	20	28	418	231.0	-210767.0	-941.0	94064.0
24	17	20	28	418	232.0	-212825.0	-936.0	92046.0
24	17	20	28	450	233.0	-212724.0	-922.0	92545.0
24	17	20	28	451	234.0	-207357.0	-908.0	93881.0
24	17	20	28	452	235.0	-202664.0	-906.0	94285.0
24	17	20	28	453	236.0	-206365.0	-914.0	94694.0
24	17	20	28	453	237.0	-213210.0	-929.0	95019.0
24	17	20	28	454	238.0	-219933.0	-929.0	95392.0
24	17	20	28	454	239.0	-226831.0	-920.0	96361.0
24	17	20	28	455	240.0	-234764.0	-932.0	96179.0
24	17	20	28	456	241.0	-244572.0	-929.0	94389.0
24	17	20	28	456	242.0	-253514.0	-927.0	92306.0
24	17	20	28	457	243.0	-260007.0	-910.0	92499.0
24	17	20	28	458	244.0	-263695.0	-925.0	94042.0
24	17	20	28	458	245.0	-265128.0	-932.0	94863.0
24	17	20	28	459	246.0	-264524.0	-934.0	95651.0
24	17	20	28	460	247.0	-262603.0	-926.0	96475.0
24	17	20	28	460	248.0	-260662.0	-904.0	97811.0
24	17	20	28	461	249.0	-258770.0	-904.0	99826.0
24	17	20	28	461	250.0	-257294.0	-906.0	101282.0
24	17	20	28	462	251.0	-256189.0	-904.0	105215.0
24	17	20	28	463	252.0	-255174.0	-896.0	107434.0
24	17	20	28	463	253.0	-254398.0	-881.0	110956.0
24	17	20	28	464	254.0	-253901.0	-855.0	115239.0
24	17	20	28	494	255.0	-253252.0	-852.0	118280.0
24	17	20	28	495	0.0	-252461.0	-843.0	120163.0
24	17	20	28	495	1.0	-251291.0	-842.0	121993.0
24	17	20	28	496	2.0	-249336.0	-842.0	124558.0
24	17	20	28	497	3.0	-245984.0	-841.0	127227.0
24	17	20	28	497	4.0	-240237.0	-842.0	127753.0
24	17	20	28	498	5.0	-233244.0	-860.0	128014.0
24	17	20	28	499	6.0	-226464.0	-865.0	127651.0
24	17	20	28	499	7.0	-219134.0	-846.0	128990.0
24	17	20	28	501	8.0	-211212.0	-840.0	131363.0
24	17	20	28	501	9.0	-204302.0	-841.0	133535.0
24	17	20	28	502	10.0	-198719.0	-839.0	135482.0
24	17	20	28	503	11.0	-193007.0	-830.0	137183.0
24	17	20	28	503	12.0	-187579.0	-809.0	139563.0
24	17	20	28	504	13.0	-183721.0	-821.0	140911.0
24	17	20	28	505	15.0	-176706.0	-829.0	139286.0
24	17	20	28	505	16.0	-173507.0	-814.0	138376.0
24	17	20	28	506	17.0	-170022.0	-810.0	139340.0
24	17	20	28	506	18.0	-166844.0	-794.0	140636.0
24	17	20	28	507	19.0	-163460.0	-786.0	142187.0
24	17	20	28	508	20.0	-159781.0	-789.0	144010.0
24	17	20	28	539	21.0	-155189.0	-778.0	144842.0
24	17	20	28	550	22.0	-151077.0	-770.0	146579.0
24	17	20	28	551	23.0	-147409.0	-763.0	148121.0
24	17	20	28	551	24.0	-143697.0	-768.0	147663.0
24	17	20	28	552	25.0	-140807.0	-753.0	147111.0
24	17	20	28	553	26.0	-139977.0	-758.0	146625.0
24	17	20	28	553	27.0	-139757.0	-765.0	147421.0
24	17	20	28	554	28.0	-140023.0	-777.0	148764.0
24	17	20	28	554	29.0	-142042.0	-781.0	150193.0
24	17	20	28	555	30.0	-144864.0	-785.0	151593.0
24	17	20	28	555	31.0	-147797.0	-767.0	152538.0
24	17	20	28	556	32.0	-150104.0	-747.0	154334.0
24	17	20	28	557	33.0	-152037.0	-735.0	156451.0
24	17	20	28	557	34.0	-154551.0	-744.0	156036.0
24	17	20	28	558	35.0	-156913.0	-736.0	155073.0
24	17	20	28	558	37.0	-160199.0	-724.0	155624.0
24	17	20	28	559	38.0	-163089.0	-702.0	157414.0
24	17	20	28	560	39.0	-165749.0	-689.0	159703.0
24	17	20	28	560	40.0	-168430.0	-689.0	161843.0
24	17	20	28	561	41.0	-171660.0	-664.0	163429.0
24	17	20	28	561	42.0	-174998.0	-654.0	165848.0
24	17	20	28	562	43.0	-177737.0	-636.0	167479.0
24	17	20	28	584	44.0	-180360.0	-622.0	167587.0
24	17	20	28	585	45.0	-184159.0	-610.0	166324.0
24	17	20	28	586	46.0	-188524.0	-579.0	165116.0
24	17	20	28	587	47.0	-193433.0	-557.0	166706.0
24	17	20	28	587	48.0	-198650.0	-551.0	169003.0
24	17	20	28	588	49.0	-203316.0	-558.0	170848.0
24	17	20	28	589	50.0	-208261.0	-544.0	172363.0
24	17	20	28	589	51.0	-214361.0	-534.0	173682.0
24	17	20	28	590	52.0	-220248.0	-521.0	175625.0
24	17	20	28	591	53.0	-225781.0	-521.0	177929.0
24	17	20	28	591	54.0	-231211.0	-516.0	178831.0
24	17	20	28	592	55.0	-236066.0	-506.0	178478.0
24	17	20	28	592	56.0	-239188.0	-494.0	178029.0
24	17	20	28	629	57.0	-239555.0	-475.0	179471.0
24	17	20	28	630	58.0	-237577.0	-480.0	181059.0
24	17	20	28	630	60.0	-223295.0	-443.0	182950.0
24	17	20	28	631	61.0	-204963.0	-422.0	184497.0
24	17	20	28	632	62.0	-182926.0	-387.0	186494.0
24	17	20	28	632	63.0	-164184.0	-367.0	187005.0
24	17	20	28	633	64.0	-152324.0	-372.0	186418.0
24	17	20	28	633	65.0	-148028.0	-351.0	185614.0
24	17	20	28	634	66.0	-150479.0	-334.0	184841.0
24	17	20	28	635	67.0	-162524.0	-311.0	185161.0
24	17	20	28	635	68.0	-178905.0	-290.0	186508.0
24	17	20	28	636	69.0	-193137.0	-302.0	187956.0
24	17	20	28	637	70.0	-205841.0	-289.0	189136.0
24	17	20	28	637	71.0	-215469.0	-267.0	189996.0
24	17	20	28	638	72.0	-222084.0	-249.0	191780.0
24	17	20	28	639	82.0	-195201.0	-154.0	199365.0
24	17	20	28	639	83.0	-195460.0	-156.0	200048.0
24	17	20	28	640	84.0	-194591.0	-150.0	198889.0
24	17	20	28	640	85.0	-190893.0	-129.0	197726.0
24	17	20	28	641	86.0	-184539.0	-121.0	197519.0
24	17	20	28	642	87.0	-176222.0	-106.0	198781.0
24	17	20	28	674	88.0	-165964.0	-98.0	200081.0
24	17	20	28	675	89.0	-156281.0	-61.0	200572.0
24	17	20	28	675	90.0	-149324.0	-52.0	201138.0
24	17	20	28	676	91.0	-145880.0	-37.0	202272.0
24	17	20	28	677	92.0	-144082.0	-37.0	204487.0
24	17	20	28	677	93.0	-144353.0	-48.0	204953.0
24	17	20	28	678	94.0	-147837.0	-62.0	204276.0
24	17	20	28	679	95.0	-153069.0	-64.0	202732.0
24	17	20	28	679	96.0	-157958.0	-36.0	201046.0
24	17	20	28	680	97.0	-161890.0	-36.0	201009.0
24	17	20	28	681	98.0	-165759.0	-38.0	201808.0
24	17	20	28	681	99.0	-170177.0	-41.0	202786.0
24	17	20	28	682	100.0	-174564.0	-32.0	203628.0
24	17	20	28	683	101.0	-178781.0	-36.0	204706.0
24	17	20	28	683	102.0	-182119.0	-17.0	206094.0
24	17	20	28	684	105.0	-190257.0	-61.0	203887.0
24	17	20	28	684	106.0	-191294.0	-43.0	203403.0
24	17	20	28	685	107.0	-191514.0	-27.0	204375.0
24	17	20	28	686	108.0	-192109.0	-57.0	205136.0
24	17	20	28	686	109.0	-194136.0	-43.0	205292.0
24	17	20	28	687	110.0	-196197.0	-26.0	205878.0
24	17	20	28	718	111.0	-197821.0	-30.0	206538.0
24	17	20	28	719	112.0	-199217.0	-26.0	207429.0
24	17	20	28	720	113.0	-201314.0	-44.0	208054.0
24	17	20	28	720	114.0	-203892.0	-34.0	207578.0
24	17	20	28	721	115.0	-207479.0	-44.0	205684.0
24	17	20	28	722	116.0	-211852.0	-56.0	205079.0
24	17	20	28	723	117.0	-216212.0	-67.0	206199.0
24	17	20	28	724	118.0	-220914.0	-72.0	207348.0
24	17	20	28	724	119.0	-225565.0	-82.0	208176.0
24	17	20	28	725	120.0	-229207.0	-94.0	209433.0
24	17	20	28	726	121.0	-232106.0	-104.0	210503.0
24	17	20	28	726	122.0	-234802.0	-97.0	212099.0
24	17	20	28	727	123.0	-237202.0	-97.0	212464.0
24	17	20	28	728	124.0	-239562.0	-97.0	212119.0
24	17	20	28	729	125.0	-241525.0	-111.0	210696.0
24	17	20	28	729	127.0	-245427.0	-105.0	212223.0
24	17	20	28	730	128.0	-246407.0	-108.0	213205.0
24	17	20	28	731	129.0	-246553.0	-118.0	213885.0
24	17	20	28	731	130.0	-246104.0	-124.0	215559.0
24	17	20	28	732	131.0	-245576.0	-119.0	217793.0
24	17	20	28	732	132.0	-245387.0	-115.0	220218.0
24	17	20	28	765	133.0	-245297.0	-109.0	221713.0
24	17	20	28	766	134.0	-245788.0	-142.0	222704.0
24	17	20	28	766	135.0	-246617.0	-161.0	222873.0
24	17	20	28	767	136.0	-247368.0	-151.0	224683.0
24	17	20	28	768	137.0	-248330.0	-142.0	228107.0
24	17	20	28	768	138.0	-248909.0	-141.0	231060.0
24	17	20	28	769	139.0	-249548.0	-133.0	234147.0
24	17	20	28	770	140.0	-250686.0	-147.0	237311.0
24	17	20	28	770	141.0	-252049.0	-151.0	240649.0
24	17	20	28	771	142.0	-252921.0	-171.0	244530.0
24	17	20	28	771	143.0	-253361.0	-189.0	246801.0
24	17	20	28	772	144.0	-253998.0	-195.0	248071.0
24	17	20	28	773	145.0	-253728.0	-200.0	249657.0
24	17	20	28	774	146.0	-252838.0	-194.0	250924.0
24	17	20	28	774	147.0	-251978.0	-205.0	253178.0
24	17	20	28	775	149.0	-249326.0	-197.0	256143.0
24	17	20	28	775	150.0	-246395.0	-204.0	257939.0
24	17	20	28	776	151.0	-242240.0	-197.0	260314.0
24	17	20	28	777	152.0	-237932.0	-193.0	262589.0
24	17	20	28	777	153.0	-233409.0	-200.0	264044.0
24	17	20	28	778	154.0	-228081.0	-193.0	265204.0
24	17	20	28	779	155.0	-223069.0	-201.0	265918.0
24	17	20	28	809	156.0	-218900.0	-177.0	267386.0
24	17	20	28	810	157.0	-215159.0	-171.0	269887.0
24	17	20	28	811	158.0	-212042.0	-142.0	272096.0
24	17	20	28	812	159.0	-209056.0	-142.0	273629.0
24	17	20	28	812	160.0	-206081.0	-149.0	275019.0
24	17	20	28	813	161.0	-203571.0	-142.0	277176.0
24	17	20	28	814	162.0	-201760.0	-148.0	280198.0
24	17	20	28	814	163.0	-199711.0	-164.0	280973.0
24	17	20	28	815	164.0	-198404.0	-192.0	280752.0
24	17	20	28	816	165.0	-199227.0	-197.0	280042.0
24	17	20	28	816	166.0	-200708.0	-197.0	280533.0
24	17	20	28	817	167.0	-202842.0	-176.0	281818.0
24	17	20	28	817	168.0	-206104.0	-187.0	283463.0
24	17	20	28	818	169.0	-209337.0	-191.0	285658.0
24	17	20	28	819	170.0	-212588.0	-197.0	288061.0
24	17	20	28	819	172.0	-219926.0	-207.0	293509.0
24	17	20	28	820	173.0	-223107.0	-204.0	294488.0
24	17	20	28	821	174.0	-227324.0	-212.0	294830.0
24	17	20	28	821	175.0	-230553.0	-213.0	295096.0
24	17	20	28	822	176.0	-234191.0	-211.0	296656.0
24	17	20	28	822	177.0	-238382.0	-199.0	299112.0
24	17	20	28	855	178.0	-241577.0	-194.0	300696.0
24	17	20	28	855	179.0	-244212.0	-186.0	302559.0
24	17	20	28	856	180.0	-247419.0	-184.0	305073.0
24	17	20	28	857	181.0	-249463.0	-188.0	307247.0
24	17	20	28	857	182.0	-251072.0	-188.0	309133.0
24	17	20	28	858	183.0	-252917.0	-194.0	309728.0
24	17	20	28	866	184.0	-254510.0	-211.0	309386.0
24	17	20	28	867	185.0	-255392.0	-214.0	309326.0
24	17	20	28	867	186.0	-256399.0	-207.0	311034.0
24	17	20	28	868	187.0	-257540.0	-203.0	313813.0
24	17	20	28	868	188.0	-258182.0	-192.0	317329.0
24	17	20	28	869	189.0	-259339.0	-179.0	323438.0
24	17	20	28	869	190.0	-261226.0	-193.0	329408.0
24	17	20	28	870	191.0	-262650.0	-191.0	335169.0
24	17	20	28	870	192.0	-263810.0	-206.0	340239.0
24	17	20	28	871	194.0	-265554.0	-211.0	345749.0
24	17	20	28	871	195.0	-266191.0	-206.0	346908.0
24	17	20	28	872	196.0	-266247.0	-205.0	350143.0
24	17	20	28	872	197.0	-266081.0	-199.0	353416.0
24	17	20	28	873	198.0	-266061.0	-178.0	357294.0
24	17	20	28	873	199.0	-265669.0	-169.0	361836.0
24	17	20	28	874	200.0	-265018.0	-166.0	366444.0
24	17	20	28	899	201.0	-264210.0	-164.0	372266.0
24	17	20	28	900	202.0	-262727.0	-171.0	377644.0
24	17	20	28	900	203.0	-260511.0	-147.0	381816.0
24	17	20	28	901	204.0	-258061.0	-153.0	385434.0
24	17	20	28	902	205.0	-255316.0	-154.0	388776.0
24	17	20	28	902	206.0	-251631.0	-152.0	394498.0
24	17	20	28	903	207.0	-247306.0	-171.0	401166.0
24	17	20	28	903	208.0	-243582.0	-194.0	406407.0
24	17	20	28	904	209.0	-239171.0	-184.0	410426.0
24	17	20	28	904	210.0	-234732.0	-169.0	414076.0
24	17	20	28	905	211.0	-231212.0	-201.0	418528.0
24	17	20	28	905	212.0	-227933.0	-206.0	421491.0
24	17	20	28	906	213.0	-224992.0	-202.0	422909.0
24	17	20	28	907	214.0	-222647.0	-222.0	424661.0
24	17	20	28	907	215.0	-218637.0	-213.0	426408.0
24	17	20	28	908	217.0	-212725.0	-229.0	430392.0
24	17	20	28	908	218.0	-212806.0	-248.0	431905.0
24	17	20	28	916	219.0	-211637.0	-235.0	432379.0
24	17	20	28	917	220.0	-209860.0	-212.0	432185.0
24	17	20	28	917	221.0	-208041.0	-191.0	433120.0
24	17	20	28	918	222.0	-205444.0	-207.0	435278.0
24	17	20	28	944	223.0	-202887.0	-222.0	436955.0
24	17	20	28	945	224.0	-201157.0	-217.0	438856.0
24	17	20	28	945	225.0	-199153.0	-209.0	441528.0
24	17	20	28	946	226.0	-196048.0	-224.0	445085.0
24	17	20	28	946	227.0	-192486.0	-237.0	449141.0
24	17	20	28	947	228.0	-187977.0	-245.0	455405.0
24	17	20	28	947	229.0	-183078.0	-234.0	462531.0
24	17	20	28	948	230.0	-178343.0	-229.0	468362.0
24	17	20	28	949	231.0	-174527.0	-239.0	474067.0
24	17	20	28	949	232.0	-171956.0	-266.0	480720.0
24	17	20	28	950	233.0	-170041.0	-275.0	486573.0
24	17	20	28	950	234.0	-168826.0	-301.0	490810.0
24	17	20	28	951	235.0	-168771.0	-303.0	492894.0
24	17	20	28	951	236.0	-168023.0	-277.0	495439.0
24	17	20	28	952	237.0	-168944.0	-287.0	497884.0
24	17	20	28	953	239.0	-183848.0	-319.0	500989.0
24	17	20	28	953	240.0	-194354.0	-330.0	502798.0
24	17	20	28	954	241.0	-205084.0	-306.0	506208.0
24	17	20	28	954	242.0	-215373.0	-310.0	508364.0
24	17	20	28	955	243.0	-224328.0	-301.0	508460.0
24	17	20	28	956	244.0	-232370.0	-317.0	506779.0
24	17	20	28	956	245.0	-240617.0	-332.0	504781.0
24	17	20	28	989	246.0	-248517.0	-323.0	503073.0
24	17	20	28	990	247.0	-255556.0	-308.0	501548.0
24	17	20	28	990	248.0	-262704.0	-325.0	500924.0
24	17	20	28	991	249.0	-269096.0	-339.0	500503.0
24	17	20	28	992	250.0	-268294.0	-326.0	500651.0
24	17	20	28	992	251.0	-253647.0	-328.0	501903.0
24	17	20	28	993	252.0	-230409.0	-351.0	502519.0
24	17	20	28	993	253.0	-203993.0	-352.0	501524.0
24	17	20	28	994	254.0	-174835.0	-363.0	500310.0
24	17	20	28	995	255.0	-144937.0	-381.0	499014.0
24	17	20	28	995	0.0	-115163.0	-391.0	499236.0
24	17	20	28	996	1.0	-90095.0	-392.0	500126.0
24	17	20	28	996	2.0	-74473.0	-404.0	501081.0
24	17	20	28	997	3.0	-70717.0	-417.0	501502.0
24	17	20	28	997	4.0	-79856.0	-421.0	502106.0
24	17	20	28	998	6.0	-118060.0	-457.0	503893.0
24	17	20	28	999	7.0	-137090.0	-446.0	503098.0
24	17	20	28	999	8.0	-151910.0	-451.0	501961.0
24	17	20	29	0	9.0	-166359.0	-464.0	500814.0
24	17	20	29	0	10.0	-182146.0	-467.0	500996.0
24	17	20	29	1	11.0	-196453.0	-448.0	502399.0
24	17	20	29	34	12.0	-207436.0	-437.0	503456.0
24	17	20	29	79	13.0	-215247.0	-442.0	504261.0
24	17	20	29	80	14.0	-220807.0	-455.0	505203.0
24	17	20	29	81	15.0	-223701.0	-482.0	506754.0
24	17	20	29	82	16.0	-225077.0	-494.0	507897.0
24	17	20	29	83	17.0	-225317.0	-494.0	507293.0
24	17	20	29	84	18.0	-225144.0	-499.0	506657.0
24	17	20	29	85	19.0	-223811.0	-495.0	506132.0
24	17	20	29	85	20.0	-219486.0	-495.0	507135.0
24	17	20	29	86	21.0	-212452.0	-511.0	508372.0
24	17	20	29	87	22.0	-203615.0	-519.0	509553.0
24	17	20	29	87	23.0	-194208.0	-517.0	510764.0
24	17	20	29	88	24.0	-185982.0	-518.0	512413.0
24	17	20	29	88	25.0	-179684.0	-519.0	516394.0
24	17	20	29	89	26.0	-174919.0	-531.0	519721.0
24	17	20	29	89	28.0	-169967.0	-541.0	523527.0
24	17	20	29	90	29.0	-170401.0	-542.0	524471.0
24	17	20	29	91	51.0	-254904.0	-624.0	567642.0
24	17	20	29	91	52.0	-248632.0	-611.0	569244.0
24	17	20	29	92	53.0	-241650.0	-599.0	571245.0
24	17	20	29	92	54.0	-234780.0	-601.0	573082.0
24	17	20	29	93	55.0	-228578.0	-601.0	575064.0
24	17	20	29	93	56.0	-220075.0	-601.0	576186.0
24	17	20	29	170	57.0	-213476.0	-593.0	576403.0
24	17	20	29	171	58.0	-206962.0	-597.0	576080.0
24	17	20	29	171	59.0	-200764.0	-575.0	576388.0
24	17	20	29	172	60.0	-195645.0	-586.0	577856.0
24	17	20	29	173	61.0	-190471.0	-609.0	579009.0
24	17	20	29	173	62.0	-185547.0	-616.0	580363.0
24	17	20	29	174	63.0	-182939.0	-609.0	581952.0
24	17	20	29	174	64.0	-180931.0	-592.0	583200.0
24	17	20	29	175	65.0	-178696.0	-577.0	584443.0
24	17	20	29	175	66.0	-176881.0	-594.0	585444.0
24	17	20	29	176	67.0	-175015.0	-617.0	586101.0
24	17	20	29	177	68.0	-173714.0	-626.0	585461.0
24	17	20	29	177	69.0	-172748.0	-621.0	585414.0
24	17	20	29	178	70.0	-172052.0	-619.0	586713.0
24	17	20	29	178	71.0	-172219.0	-619.0	588098.0
24	17	20	29	179	73.0	-174581.0	-633.0	591007.0
24	17	20	29	179	96.0	-120872.0	-715.0	630727.0
24	17	20	29	180	97.0	-119822.0	-701.0	630350.0
24	17	20	29	181	98.0	-118784.0	-691.0	629679.0
24	17	20	29	181	99.0	-118472.0	-693.0	629969.0
24	17	20	29	182	100.0	-116928.0	-666.0	632023.0
24	17	20	29	182	101.0	-114971.0	-650.0	633433.0
24	17	20	29	215	102.0	-114186.0	-641.0	634730.0
24	17	20	29	216	103.0	-112802.0	-641.0	635811.0
24	17	20	29	216	104.0	-112041.0	-620.0	636870.0
24	17	20	29	217	105.0	-111812.0	-605.0	638328.0
24	17	20	29	218	106.0	-111657.0	-621.0	638132.0
24	17	20	29	218	107.0	-112857.0	-632.0	637073.0
24	17	20	29	219	108.0	-114563.0	-606.0	636158.0
24	17	20	29	219	109.0	-117613.0	-593.0	636579.0
24	17	20	29	220	110.0	-121483.0	-581.0	637209.0
24	17	20	29	221	111.0	-126137.0	-571.0	638016.0
24	17	20	29	221	112.0	-132055.0	-558.0	639194.0
24	17	20	29	222	113.0	-137584.0	-562.0	639832.0
24	17	20	29	222	114.0	-143421.0	-552.0	640863.0
24	17	20	29	223	115.0	-149030.0	-547.0	642279.0
24	17	20	29	223	116.0	-153749.0	-549.0	642313.0
24	17	20	29	224	118.0	-158921.0	-540.0	639976.0
24	17	20	29	225	119.0	-158189.0	-524.0	640086.0
24	17	20	29	225	120.0	-154293.0	-497.0	640904.0
24	17	20	29	226	121.0	-144384.0	-481.0	641229.0
24	17	20	29	226	122.0	-126102.0	-490.0	641771.0
24	17	20	29	227	123.0	-105013.0	-466.0	642579.0
24	17	20	29	258	124.0	-92398.0	-444.0	643061.0
24	17	20	29	259	125.0	-89926.0	-434.0	643433.0
24	17	20	29	260	126.0	-94701.0	-433.0	643029.0
24	17	20	29	261	127.0	-102768.0	-437.0	641945.0
24	17	20	29	262	128.0	-114254.0	-434.0	640499.0
24	17	20	29	262	129.0	-125397.0	-427.0	640918.0
24	17	20	29	263	130.0	-134226.0	-425.0	641786.0
24	17	20	29	278	131.0	-142795.0	-435.0	641998.0
24	17	20	29	278	132.0	-150468.0	-432.0	641933.0
24	17	20	29	279	133.0	-156557.0	-426.0	642521.0
24	17	20	29	279	134.0	-157905.0	-457.0	642810.0
24	17	20	29	280	135.0	-154627.0	-453.0	642860.0
24	17	20	29	280	136.0	-148519.0	-462.0	642016.0
24	17	20	29	281	137.0	-141969.0	-477.0	641184.0
24	17	20	29	281	138.0	-135474.0	-461.0	639834.0
24	17	20	29	282	140.0	-123448.0	-461.0	639577.0
24	17	20	29	283	141.0	-119436.0	-462.0	639166.0
24	17	20	29	283	142.0	-118507.0	-453.0	639621.0
24	17	20	29	284	143.0	-119859.0	-433.0	639687.0
24	17	20	29	284	144.0	-121011.0	-434.0	640749.0
24	17	20	29	285	145.0	-122560.0	-427.0	641309.0
24	17	20	29	285	146.0	-124069.0	-409.0	640636.0
24	17	20	29	303	147.0	-122949.0	-421.0	638718.0
24	17	20	29	304	148.0	-117933.0	-416.0	636661.0
24	17	20	29	305	149.0	-111676.0	-414.0	636161.0
24	17	20	29	305	150.0	-105515.0	-421.0	636074.0
24	17	20	29	306	151.0	-99437.0	-421.0	636650.0
24	17	20	29	307	152.0	-93502.0	-434.0	636576.0
24	17	20	29	307	153.0	-90196.0	-444.0	635627.0
24	17	20	29	308	154.0	-90557.0	-451.0	636519.0
24	17	20	29	309	155.0	-91350.0	-474.0	637949.0
24	17	20	29	309	156.0	-94832.0	-491.0	637093.0
24	17	20	29	310	157.0	-99091.0	-481.0	636268.0
24	17	20	29	310	158.0	-102964.0	-516.0	635231.0
24	17	20	29	311	159.0	-106752.0	-508.0	635248.0
24	17	20	29	311	160.0	-109519.0	-518.0	634476.0
24	17	20	29	312	161.0	-111027.0	-526.0	633393.0
24	17	20	29	313	163.0	-111092.0	-532.0	632792.0
24	17	20	29	313	164.0	-109539.0	-552.0	633283.0
24	17	20	29	314	165.0	-107249.0	-565.0	634174.0
24	17	20	29	314	166.0	-104455.0	-563.0	633393.0
24	17	20	29	315	167.0	-103131.0	-578.0	631994.0
24	17	20	29	315	168.0	-103150.0	-583.0	630893.0
24	17	20	29	395	169.0	-104064.0	-583.0	630617.0
24	17	20	29	396	170.0	-105794.0	-594.0	630646.0
24	17	20	29	396	171.0	-108624.0	-610.0	631232.0
24	17	20	29	397	172.0	-111681.0	-634.0	631854.0
24	17	20	29	397	173.0	-114653.0	-643.0	631702.0
24	17	20	29	398	174.0	-118045.0	-645.0	632198.0
24	17	20	29	399	175.0	-121526.0	-662.0	632459.0
24	17	20	29	399	176.0	-125034.0	-677.0	631336.0
24	17	20	29	400	177.0	-129015.0	-706.0	629549.0
24	17	20	29	400	178.0	-132735.0	-716.0	628008.0
24	17	20	29	401	179.0	-135322.0	-739.0	628063.0
24	17	20	29	402	180.0	-138138.0	-752.0	628450.0
24	17	20	29	402	181.0	-141061.0	-770.0	628521.0
24	17	20	29	403	182.0	-142867.0	-783.0	628956.0
24	17	20	29	403	183.0	-145006.0	-789.0	629931.0
24	17	20	29	404	185.0	-149098.0	-824.0	630531.0
24	17	20	29	405	208.0	-164296.0	-1233.0	614921.0
24	17	20	29	405	209.0	-166309.0	-1266.0	614589.0
24	17	20	29	406	210.0	-167554.0	-1257.0	615316.0
24	17	20	29	406	211.0	-168376.0	-1256.0	615444.0
24	17	20	29	407	212.0	-167956.0	-1262.0	614893.0
24	17	20	29	407	213.0	-167993.0	-1274.0	614888.0
24	17	20	29	440	214.0	-168164.0	-1277.0	616121.0
24	17	20	29	441	215.0	-167769.0	-1280.0	616066.0
24	17	20	29	442	216.0	-168459.0	-1300.0	614582.0
24	17	20	29	442	217.0	-168415.0	-1302.0	612876.0
24	17	20	29	443	218.0	-168151.0	-1326.0	611461.0
24	17	20	29	444	219.0	-169152.0	-1342.0	610951.0
24	17	20	29	445	220.0	-169439.0	-1361.0	610799.0
24	17	20	29	445	221.0	-169344.0	-1373.0	610809.0
24	17	20	29	446	222.0	-169071.0	-1399.0	610384.0
24	17	20	29	446	223.0	-167502.0	-1404.0	610664.0
24	17	20	29	447	224.0	-165392.0	-1416.0	611274.0
24	17	20	29	448	225.0	-163039.0	-1441.0	610712.0
24	17	20	29	448	226.0	-160049.0	-1458.0	609248.0
24	17	20	29	449	227.0	-156629.0	-1471.0	606963.0
24	17	20	29	449	228.0	-154403.0	-1477.0	605408.0
24	17	20	29	450	230.0	-150730.0	-1510.0	605476.0
24	17	20	29	451	231.0	-150623.0	-1521.0	604605.0
24	17	20	29	451	232.0	-150823.0	-1504.0	603644.0
24	17	20	29	452	233.0	-150765.0	-1528.0	603258.0
24	17	20	29	452	234.0	-151553.0	-1541.0	603598.0
24	17	20	29	453	235.0	-152954.0	-1559.0	602252.0
24	17	20	29	484	236.0	-154581.0	-1587.0	600134.0
24	17	20	29	485	237.0	-156322.0	-1584.0	598068.0
24	17	20	29	486	238.0	-157799.0	-1582.0	596489.0
24	17	20	29	486	239.0	-158342.0	-1593.0	596563.0
24	17	20	29	487	240.0	-157366.0	-1607.0	595954.0
24	17	20	29	487	241.0	-156034.0	-1640.0	595666.0
24	17	20	29	488	242.0	-154782.0	-1649.0	595771.0
24	17	20	29	489	243.0	-152805.0	-1675.0	596027.0
24	17	20	29	489	244.0	-150885.0	-1679.0	596463.0
24	17	20	29	490	245.0	-149271.0	-1707.0	594671.0
24	17	20	29	490	246.0	-147131.0	-1736.0	592658.0
24	17	20	29	491	247.0	-145344.0	-1738.0	590379.0
24	17	20	29	491	248.0	-143867.0	-1738.0	588806.0
24	17	20	29	492	249.0	-142093.0	-1752.0	588859.0
24	17	20	29	493	250.0	-140929.0	-1772.0	589370.0
24	17	20	29	493	252.0	-141118.0	-1788.0	588718.0
24	17	20	29	494	253.0	-141491.0	-1780.0	589449.0
24	17	20	29	494	254.0	-143442.0	-1789.0	589709.0
24	17	20	29	495	255.0	-147870.0	-1820.0	588844.0
24	17	20	29	496	0.0	-152612.0	-1813.0	587201.0
24	17	20	29	496	1.0	-157001.0	-1816.0	584226.0
24	17	20	29	497	2.0	-161372.0	-1809.0	582225.0
24	17	20	29	529	3.0	-165674.0	-1812.0	582148.0
24	17	20	29	530	4.0	-169342.0	-1830.0	582484.0
24	17	20	29	531	5.0	-173114.0	-1830.0	582021.0
24	17	20	29	531	6.0	-177057.0	-1847.0	581250.0
24	17	20	29	532	7.0	-180461.0	-1871.0	581556.0
24	17	20	29	532	8.0	-184579.0	-1865.0	582332.0
24	17	20	29	533	9.0	-188958.0	-1893.0	580798.0
24	17	20	29	534	10.0	-192477.0	-1895.0	579636.0
24	17	20	29	534	11.0	-195622.0	-1908.0	577486.0
24	17	20	29	535	12.0	-198734.0	-1929.0	576352.0
24	17	20	29	535	13.0	-201224.0	-1939.0	576432.0
24	17	20	29	536	14.0	-203116.0	-1976.0	576072.0
24	17	20	29	537	15.0	-204413.0	-2006.0	576099.0
24	17	20	29	537	16.0	-205406.0	-2005.0	575664.0
24	17	20	29	538	17.0	-205737.0	-1996.0	576196.0
24	17	20	29	539	19.0	-205542.0	-2009.0	575980.0
24	17	20	29	539	20.0	-204652.0	-2031.0	574171.0
24	17	20	29	540	21.0	-202855.0	-2040.0	571934.0
24	17	20	29	540	22.0	-201647.0	-2041.0	571006.0
24	17	20	29	541	23.0	-199672.0	-2029.0	571208.0
24	17	20	29	542	24.0	-196709.0	-2046.0	570461.0
24	17	20	29	574	25.0	-194417.0	-2037.0	569421.0
24	17	20	29	620	26.0	-192776.0	-2044.0	568497.0
24	17	20	29	620	27.0	-191195.0	-2054.0	567906.0
24	17	20	29	621	28.0	-189384.0	-2074.0	567944.0
24	17	20	29	622	29.0	-187934.0	-2064.0	567219.0
24	17	20	29	622	30.0	-186325.0	-2068.0	565891.0
24	17	20	29	623	31.0	-184750.0	-2092.0	563242.0
24	17	20	29	623	32.0	-181986.0	-2092.0	562058.0
24	17	20	29	624	33.0	-179467.0	-2110.0	562430.0
24	17	20	29	625	34.0	-177161.0	-2131.0	561613.0
24	17	20	29	625	35.0	-174573.0	-2139.0	560778.0
24	17	20	29	626	36.0	-171674.0	-2139.0	560201.0
24	17	20	29	626	37.0	-168859.0	-2134.0	560459.0
24	17	20	29	627	38.0	-166926.0	-2146.0	559913.0
24	17	20	29	628	39.0	-166384.0	-2165.0	558078.0
24	17	20	29	628	41.0	-167577.0	-2216.0	552031.0
24	17	20	29	629	64.0	-213497.0	-2404.0	557326.0
24	17	20	29	629	65.0	-212597.0	-2387.0	556971.0
24	17	20	29	630	66.0	-211536.0	-2397.0	555687.0
24	17	20	29	631	67.0	-210835.0	-2407.0	553672.0
24	17	20	29	631	68.0	-208997.0	-2418.0	551108.0
24	17	20	29	632	69.0	-208634.0	-2414.0	546937.0
24	17	20	29	665	70.0	-211934.0	-2418.0	542854.0
24	17	20	29	665	71.0	-215833.0	-2424.0	538699.0
24	17	20	29	666	72.0	-207307.0	-2406.0	535833.0
24	17	20	29	667	73.0	-177974.0	-2416.0	533096.0
24	17	20	29	667	74.0	-147356.0	-2438.0	530494.0
24	17	20	29	668	75.0	-124632.0	-2436.0	528804.0
24	17	20	29	669	76.0	-110026.0	-2435.0	527019.0
24	17	20	29	669	77.0	-98081.0	-2455.0	525694.0
24	17	20	29	670	78.0	-84297.0	-2471.0	524702.0
24	17	20	29	670	79.0	-79367.0	-2470.0	522555.0
24	17	20	29	671	80.0	-89647.0	-2494.0	519480.0
24	17	20	29	672	81.0	-111709.0	-2497.0	516049.0
24	17	20	29	672	82.0	-137194.0	-2502.0	514281.0
24	17	20	29	673	83.0	-157951.0	-2509.0	512990.0
24	17	20	29	673	84.0	-169188.0	-2539.0	511468.0
24	17	20	29	674	86.0	-155616.0	-2561.0	507708.0
24	17	20	29	675	87.0	-138387.0	-2566.0	505981.0
24	17	20	29	675	88.0	-121581.0	-2552.0	503794.0
24	17	20	29	676	89.0	-109122.0	-2546.0	500161.0
24	17	20	29	676	90.0	-103407.0	-2565.0	496618.0
24	17	20	29	677	91.0	-105067.0	-2546.0	493395.0
24	17	20	29	678	92.0	-110536.0	-2555.0	491295.0
24	17	20	29	709	93.0	-115868.0	-2551.0	489813.0
24	17	20	29	710	94.0	-119932.0	-2524.0	487944.0
24	17	20	29	711	95.0	-124159.0	-2529.0	485985.0
24	17	20	29	711	96.0	-129496.0	-2554.0	484071.0
24	17	20	29	712	97.0	-137526.0	-2557.0	483193.0
24	17	20	29	713	98.0	-148973.0	-2563.0	481428.0
24	17	20	29	713	99.0	-163541.0	-2587.0	478349.0
24	17	20	29	714	100.0	-179216.0	-2607.0	474353.0
24	17	20	29	715	101.0	-193201.0	-2604.0	470792.0
24	17	20	29	715	102.0	-204636.0	-2599.0	469714.0
24	17	20	29	716	103.0	-213634.0	-2614.0	469407.0
24	17	20	29	716	104.0	-219796.0	-2619.0	468324.0
24	17	20	29	717	105.0	-222502.0	-2634.0	467261.0
24	17	20	29	718	106.0	-222496.0	-2642.0	466386.0
24	17	20	29	718	107.0	-221640.0	-2645.0	465517.0
24	17	20	29	719	109.0	-219809.0	-2695.0	461291.0
24	17	20	29	719	110.0	-219722.0	-2694.0	457802.0
24	17	20	29	720	111.0	-220167.0	-2681.0	454695.0
24	17	20	29	721	112.0	-220363.0	-2689.0	453240.0
24	17	20	29	721	113.0	-219841.0	-2685.0	451948.0
24	17	20	29	722	114.0	-218938.0	-2684.0	450681.0
24	17	20	29	760	115.0	-218339.0	-2684.0	449425.0
24	17	20	29	761	116.0	-217177.0	-2689.0	447811.0
24	17	20	29	762	117.0	-215852.0	-2701.0	447161.0
24	17	20	29	763	118.0	-214523.0	-2718.0	444578.0
24	17	20	29	764	119.0	-212517.0	-2736.0	439885.0
24	17	20	29	765	120.0	-210121.0	-2737.0	434579.0
24	17	20	29	766	121.0	-207621.0	-2747.0	429483.0
24	17	20	29	766	122.0	-205184.0	-2755.0	426376.0
24	17	20	29	767	123.0	-202611.0	-2756.0	422964.0
24	17	20	29	768	124.0	-200669.0	-2751.0	419556.0
24	17	20	29	769	125.0	-199636.0	-2761.0	416129.0
24	17	20	29	770	126.0	-198440.0	-2761.0	412266.0
24	17	20	29	770	127.0	-197390.0	-2778.0	408991.0
24	17	20	29	771	128.0	-197675.0	-2782.0	404489.0
24	17	20	29	771	129.0	-198991.0	-2801.0	398019.0
24	17	20	29	772	131.0	-203746.0	-2815.0	385180.0
24	17	20	29	773	132.0	-206632.0	-2814.0	381128.0
24	17	20	29	773	133.0	-210464.0	-2826.0	376381.0
24	17	20	29	774	134.0	-215101.0	-2829.0	371109.0
24	17	20	29	774	135.0	-220221.0	-2815.0	366746.0
24	17	20	29	775	136.0	-225281.0	-2809.0	362641.0
24	17	20	29	801	137.0	-229776.0	-2812.0	359479.0
24	17	20	29	802	138.0	-234046.0	-2830.0	354999.0
24	17	20	29	803	139.0	-237278.0	-2814.0	349148.0
24	17	20	29	804	140.0	-239256.0	-2822.0	342776.0
24	17	20	29	804	141.0	-240687.0	-2822.0	337769.0
24	17	20	29	805	142.0	-242159.0	-2829.0	334508.0
24	17	20	29	806	143.0	-243425.0	-2845.0	331374.0
24	17	20	29	806	144.0	-244012.0	-2847.0	327991.0
24	17	20	29	807	145.0	-243991.0	-2852.0	324412.0
24	17	20	29	808	146.0	-243740.0	-2859.0	321108.0
24	17	20	29	808	147.0	-242943.0	-2872.0	318664.0
24	17	20	29	809	148.0	-241401.0	-2876.0	314538.0
24	17	20	29	810	149.0	-238879.0	-2889.0	309523.0
24	17	20	29	810	150.0	-235900.0	-2897.0	304258.0
24	17	20	29	811	151.0	-232934.0	-2906.0	299553.0
24	17	20	29	811	154.0	-219552.0	-2924.0	291173.0
24	17	20	29	812	155.0	-214323.0	-2928.0	287894.0
24	17	20	29	812	156.0	-209314.0	-2902.0	285206.0
24	17	20	29	813	157.0	-204323.0	-2901.0	282829.0
24	17	20	29	814	158.0	-199582.0	-2901.0	279085.0
24	17	20	29	814	159.0	-195271.0	-2908.0	274508.0
24	17	20	29	844	160.0	-191187.0	-2908.0	269559.0
24	17	20	29	844	161.0	-187420.0	-2885.0	265089.0
24	17	20	29	845	162.0	-184026.0	-2889.0	262470.0
24	17	20	29	846	163.0	-180462.0	-2883.0	260366.0
24	17	20	29	846	164.0	-176809.0	-2894.0	258060.0
24	17	20	29	847	165.0	-173260.0	-2916.0	255474.0
24	17	20	29	848	166.0	-170607.0	-2906.0	253811.0
24	17	20	29	848	167.0	-169003.0	-2905.0	252687.0
24	17	20	29	849	168.0	-167814.0	-2911.0	249216.0
24	17	20	29	850	169.0	-167191.0	-2921.0	245654.0
24	17	20	29	850	170.0	-167381.0	-2912.0	241915.0
24	17	20	29	851	171.0	-168074.0	-2905.0	239376.0
24	17	20	29	852	172.0	-168532.0	-2895.0	237449.0
24	17	20	29	852	173.0	-168857.0	-2894.0	234393.0
24	17	20	29	853	174.0	-168794.0	-2908.0	231638.0
24	17	20	29	854	176.0	-168014.0	-2899.0	228598.0
24	17	20	29	854	177.0	-167789.0	-2860.0	228652.0
24	17	20	29	855	178.0	-168026.0	-2836.0	226136.0
24	17	20	29	855	179.0	-169069.0	-2829.0	222520.0
24	17	20	29	856	180.0	-170250.0	-2824.0	218648.0
24	17	20	29	857	181.0	-171762.0	-2782.0	215862.0
24	17	20	29	888	182.0	-173157.0	-2767.0	213958.0
24	17	20	29	889	183.0	-174607.0	-2741.0	212096.0
24	17	20	29	889	184.0	-177099.0	-2707.0	209895.0
24	17	20	29	890	185.0	-179391.0	-2721.0	208162.0
24	17	20	29	891	186.0	-181804.0	-2700.0	207111.0
24	17	20	29	891	187.0	-185117.0	-2675.0	206124.0
24	17	20	29	892	188.0	-188569.0	-2666.0	202774.0
24	17	20	29	893	189.0	-191674.0	-2672.0	198461.0
24	17	20	29	893	190.0	-194524.0	-2661.0	193596.0
24	17	20	29	894	191.0	-196854.0	-2640.0	191027.0
24	17	20	29	895	192.0	-199151.0	-2604.0	190101.0
24	17	20	29	896	193.0	-201630.0	-2597.0	188810.0
24	17	20	29	897	194.0	-203612.0	-2570.0	186429.0
24	17	20	29	897	195.0	-205444.0	-2551.0	184234.0
24	17	20	29	898	196.0	-207721.0	-2531.0	182827.0
24	17	20	29	899	198.0	-213738.0	-2534.0	179099.0
24	17	20	29	901	199.0	-216667.0	-2519.0	175477.0
24	17	20	29	902	200.0	-218854.0	-2489.0	171284.0
24	17	20	29	903	201.0	-219799.0	-2441.0	168406.0
24	17	20	29	903	202.0	-219122.0	-2430.0	167224.0
24	17	20	29	904	203.0	-217105.0	-2399.0	165348.0
24	17	20	29	905	204.0	-213862.0	-2371.0	163569.0
24	17	20	29	934	205.0	-207064.0	-2366.0	162198.0
24	17	20	29	957	206.0	-192592.0	-2341.0	161611.0
24	17	20	29	957	207.0	-174606.0	-2342.0	160743.0
24	17	20	29	958	208.0	-164652.0	-2355.0	157479.0
24	17	20	29	959	209.0	-159453.0	-2351.0	153831.0
24	17	20	29	959	210.0	-161338.0	-2342.0	149254.0
24	17	20	29	960	211.0	-164269.0	-2306.0	146601.0
24	17	20	29	960	212.0	-169024.0	-2281.0	146236.0
24	17	20	29	961	213.0	-175766.0	-2286.0	145687.0
24	17	20	29	962	214.0	-177382.0	-2298.0	144321.0
24	17	20	29	962	215.0	-176695.0	-2292.0	142950.0
24	17	20	29	963	216.0	-178784.0	-2279.0	141738.0
24	17	20	29	963	217.0	-184887.0	-2280.0	140515.0
24	17	20	29	964	218.0	-194282.0	-2285.0	137448.0
24	17	20	29	964	219.0	-205109.0	-2286.0	134416.0
24	17	20	29	965	221.0	-220239.0	-2252.0	129276.0
24	17	20	29	966	222.0	-226377.0	-2244.0	128078.0
24	17	20	29	966	223.0	-230986.0	-2226.0	126814.0
24	17	20	29	967	224.0	-233741.0	-2224.0	125689.0
24	17	20	29	967	225.0	-236815.0	-2219.0	124289.0
24	17	20	29	968	226.0	-241767.0	-2196.0	123204.0
24	17	20	29	980	227.0	-248113.0	-2201.0	122485.0
24	17	20	29	980	228.0	-254841.0	-2219.0	119623.0
24	17	20	29	981	229.0	-260581.0	-2227.0	116465.0
24	17	20	29	982	230.0	-263704.0	-2244.0	113195.0
24	17	20	29	982	231.0	-262612.0	-2240.0	111715.0
24	17	20	29	983	232.0	-257079.0	-2239.0	111232.0
24	17	20	29	984	233.0	-247170.0	-2240.0	110446.0
24	17	20	29	984	234.0	-234041.0	-2255.0	109420.0
24	17	20	29	986	235.0	-220181.0	-2256.0	108526.0
24	17	20	29	986	236.0	-207778.0	-2246.0	108101.0
24	17	20	29	987	237.0	-197854.0	-2275.0	107195.0
24	17	20	29	988	238.0	-190271.0	-2279.0	104221.0
24	17	20	29	988	239.0	-185066.0	-2286.0	100882.0
24	17	20	29	989	240.0	-182532.0	-2296.0	97008.0
24	17	20	29	990	241.0	-181343.0	-2284.0	95921.0
24	17	20	29	990	243.0	-181326.0	-2301.0	94595.0
24	17	20	29	991	244.0	-181592.0	-2312.0	93866.0
24	17	20	29	991	245.0	-181742.0	-2305.0	93604.0
24	17	20	29	992	246.0	-180973.0	-2292.0	93824.0
24	17	20	29	993	247.0	-179567.0	-2304.0	92975.0
24	17	20	29	993	248.0	-178182.0	-2322.0	90070.0
24	17	20	29	994	249.0	-176466.0	-2337.0	86782.0
24	17	20	30	24	250.0	-174482.0	-2328.0	83153.0
24	17	20	30	25	251.0	-173151.0	-2317.0	81878.0
24	17	20	30	25	252.0	-172499.0	-2330.0	80715.0
24	17	20	30	26	253.0	-172387.0	-2350.0	80318.0
24	17	20	30	27	254.0	-172282.0	-2351.0	80224.0
24	17	20	30	27	255.0	-171869.0	-2349.0	79274.0
24	17	20	30	28	0.0	-171803.0	-2365.0	78467.0
24	17	20	30	29	1.0	-172566.0	-2393.0	77099.0
24	17	20	30	69	2.0	-173984.0	-2406.0	74551.0
24	17	20	30	70	3.0	-175781.0	-2428.0	71212.0
24	17	20	30	70	4.0	-177677.0	-2428.0	67554.0
24	17	20	30	71	5.0	-179332.0	-2450.0	66430.0
24	17	20	30	72	6.0	-181337.0	-2452.0	66549.0
24	17	20	30	73	7.0	-183866.0	-2437.0	65876.0
24	17	20	30	73	8.0	-186311.0	-2461.0	65172.0
24	17	20	30	74	10.0	-189484.0	-2477.0	63985.0
24	17	20	30	75	11.0	-189678.0	-2490.0	63110.0
24	17	20	30	75	12.0	-189618.0	-2495.0	61204.0
24	17	20	30	76	13.0	-189379.0	-2512.0	59644.0
24	17	20	30	77	14.0	-188607.0	-2522.0	57483.0
24	17	20	30	78	15.0	-187262.0	-2555.0	56856.0
24	17	20	30	78	16.0	-185731.0	-2576.0	56269.0
24	17	20	30	79	17.0	-183630.0	-2580.0	55063.0
24	17	20	30	79	18.0	-180987.0	-2598.0	53756.0
24	17	20	30	80	32.0	-167531.0	-2818.0	36529.0
24	17	20	30	81	33.0	-168215.0	-2851.0	32737.0
24	17	20	30	81	34.0	-169282.0	-2848.0	29877.0
24	17	20	30	82	35.0	-170519.0	-2854.0	28906.0
24	17	20	30	82	36.0	-172100.0	-2875.0	27719.0
24	17	20	30	83	37.0	-173837.0	-2872.0	26764.0
24	17	20	30	84	38.0	-175326.0	-2877.0	26281.0
24	17	20	30	114	39.0	-176629.0	-2878.0	25307.0
24	17	20	30	114	40.0	-177854.0	-2884.0	25196.0
24	17	20	30	115	41.0	-179352.0	-2891.0	23255.0
24	17	20	30	116	42.0	-181309.0	-2914.0	20024.0
24	17	20	30	117	43.0	-182984.0	-2932.0	16113.0
24	17	20	30	117	44.0	-184270.0	-2939.0	12850.0
24	17	20	30	118	45.0	-186356.0	-2935.0	11893.0
24	17	20	30	118	46.0	-189730.0	-2962.0	10663.0
24	17	20	30	119	47.0	-193810.0	-2977.0	9507.0
24	17	20	30	120	48.0	-198524.0	-2989.0	8834.0
24	17	20	30	120	49.0	-204120.0	-2982.0	7622.0
24	17	20	30	121	50.0	-209962.0	-2990.0	6642.0
24	17	20	30	122	51.0	-214896.0	-3019.0	4309.0
24	17	20	30	122	52.0	-219615.0	-3009.0	-335.0
24	17	20	30	123	53.0	-224871.0	-3027.0	-5118.0
24	17	20	30	124	55.0	-234251.0	-3064.0	-8951.0
24	17	20	30	124	56.0	-239808.0	-3070.0	-9502.0
24	17	20	30	125	57.0	-245362.0	-3072.0	-10342.0
24	17	20	30	126	58.0	-250459.0	-3057.0	-11933.0
24	17	20	30	126	59.0	-255324.0	-3059.0	-14378.0
24	17	20	30	127	60.0	-259621.0	-3060.0	-15439.0
24	17	20	30	160	61.0	-263160.0	-3074.0	-17094.0
24	17	20	30	161	62.0	-265918.0	-3082.0	-21204.0
24	17	20	30	162	63.0	-267636.0	-3099.0	-26014.0
24	17	20	30	162	64.0	-268649.0	-3102.0	-28701.0
24	17	20	30	163	65.0	-268931.0	-3120.0	-28732.0
24	17	20	30	164	66.0	-267951.0	-3105.0	-29561.0
24	17	20	30	165	67.0	-266282.0	-3102.0	-31202.0
24	17	20	30	165	68.0	-263972.0	-3114.0	-32373.0
24	17	20	30	166	69.0	-260518.0	-3122.0	-32897.0
24	17	20	30	167	70.0	-256809.0	-3129.0	-33247.0
24	17	20	30	167	71.0	-253262.0	-3156.0	-35754.0
24	17	20	30	168	72.0	-249068.0	-3164.0	-39140.0
24	17	20	30	169	73.0	-244452.0	-3179.0	-43338.0
24	17	20	30	169	74.0	-239264.0	-3190.0	-45919.0
24	17	20	30	170	75.0	-233911.0	-3189.0	-47212.0
24	17	20	30	171	77.0	-225794.0	-3225.0	-49255.0
24	17	20	30	171	78.0	-222119.0	-3209.0	-50345.0
24	17	20	30	172	79.0	-219479.0	-3201.0	-50938.0
24	17	20	30	172	80.0	-217667.0	-3196.0	-50404.0
24	17	20	30	173	81.0	-216280.0	-3220.0	-53101.0
24	17	20	30	174	82.0	-215624.0	-3240.0	-57149.0
24	17	20	30	204	83.0	-215692.0	-3243.0	-61076.0
24	17	20	30	205	84.0	-216446.0	-3227.0	-63331.0
24	17	20	30	205	85.0	-217935.0	-3223.0	-63909.0
24	17	20	30	206	86.0	-219467.0	-3254.0	-64245.0
24	17	20	30	206	87.0	-220728.0	-3269.0	-64624.0
24	17	20	30	207	88.0	-222021.0	-3279.0	-64516.0
24	17	20	30	207	89.0	-223599.0	-3273.0	-64437.0
24	17	20	30	208	90.0	-224803.0	-3286.0	-64004.0
24	17	20	30	208	91.0	-226482.0	-3302.0	-66442.0
24	17	20	30	209	92.0	-228329.0	-3327.0	-69388.0
24	17	20	30	209	93.0	-230329.0	-3346.0	-72981.0
24	17	20	30	210	94.0	-232480.0	-3341.0	-74747.0
24	17	20	30	211	95.0	-233877.0	-3344.0	-74978.0
24	17	20	30	211	96.0	-234887.0	-3358.0	-75056.0
24	17	20	30	212	97.0	-235566.0	-3377.0	-75995.0
24	17	20	30	212	99.0	-235504.0	-3414.0	-77699.0
24	17	20	30	213	100.0	-236024.0	-3410.0	-76861.0
24	17	20	30	213	101.0	-237401.0	-3420.0	-78464.0
24	17	20	30	221	102.0	-238720.0	-3440.0	-81412.0
24	17	20	30	222	103.0	-239984.0	-3461.0	-84737.0
24	17	20	30	222	104.0	-242061.0	-3446.0	-85916.0
24	17	20	30	223	105.0	-244804.0	-3439.0	-86372.0
24	17	20	30	249	106.0	-247246.0	-3456.0	-87230.0
24	17	20	30	249	107.0	-249938.0	-3462.0	-87232.0
24	17	20	30	250	108.0	-252186.0	-3482.0	-86575.0
24	17	20	30	251	109.0	-253274.0	-3484.0	-86060.0
24	17	20	30	251	110.0	-253930.0	-3503.0	-85534.0
24	17	20	30	252	111.0	-254137.0	-3512.0	-87473.0
24	17	20	30	252	112.0	-253851.0	-3517.0	-90706.0
24	17	20	30	253	113.0	-253465.0	-3516.0	-94063.0
24	17	20	30	254	114.0	-253271.0	-3536.0	-94549.0
24	17	20	30	254	115.0	-252494.0	-3555.0	-93807.0
24	17	20	30	255	116.0	-251591.0	-3576.0	-93734.0
24	17	20	30	256	117.0	-250345.0	-3555.0	-93967.0
24	17	20	30	256	118.0	-248417.0	-3561.0	-94547.0
24	17	20	30	257	119.0	-246987.0	-3570.0	-94894.0
24	17	20	30	257	120.0	-244244.0	-3592.0	-94351.0
24	17	20	30	258	122.0	-239628.0	-3611.0	-100212.0
24	17	20	30	258	123.0	-238166.0	-3617.0	-103469.0
24	17	20	30	259	124.0	-236617.0	-3618.0	-104349.0
24	17	20	30	259	125.0	-235242.0	-3614.0	-104295.0
24	17	20	30	260	126.0	-234052.0	-3626.0	-104096.0
24	17	20	30	261	127.0	-232621.0	-3617.0	-104455.0
24	17	20	30	294	128.0	-231257.0	-3611.0	-104128.0
24	17	20	30	295	129.0	-229707.0	-3624.0	-103031.0
24	17	20	30	295	130.0	-228318.0	-3636.0	-102817.0
24	17	20	30	296	131.0	-228049.0	-3669.0	-105168.0
24	17	20	30	297	132.0	-228425.0	-3692.0	-108237.0
24	17	20	30	297	133.0	-228801.0	-3700.0	-112254.0
24	17	20	30	298	134.0	-229460.0	-3696.0	-113690.0
24	17	20	30	298	135.0	-229916.0	-3681.0	-114264.0
24	17	20	30	299	136.0	-229315.0	-3715.0	-116413.0
24	17	20	30	299	137.0	-227609.0	-3710.0	-118681.0
24	17	20	30	300	138.0	-225849.0	-3723.0	-119410.0
24	17	20	30	300	139.0	-224554.0	-3726.0	-119591.0
24	17	20	30	301	140.0	-223359.0	-3729.0	-120064.0
24	17	20	30	302	141.0	-221710.0	-3748.0	-121834.0
24	17	20	30	302	142.0	-220454.0	-3756.0	-125352.0
24	17	20	30	303	144.0	-218171.0	-3764.0	-128677.0
24	17	20	30	303	145.0	-216737.0	-3759.0	-126838.0
24	17	20	30	304	146.0	-215654.0	-3772.0	-123337.0
24	17	20	30	304	147.0	-214422.0	-3774.0	-118620.0
24	17	20	30	305	148.0	-213706.0	-3774.0	-115541.0
24	17	20	30	306	149.0	-214335.0	-3767.0	-110544.0
24	17	20	30	306	150.0	-215447.0	-3762.0	-103044.0
24	17	20	30	339	151.0	-217002.0	-3786.0	-98518.0
24	17	20	30	340	152.0	-219367.0	-3798.0	-97837.0
24	17	20	30	340	153.0	-222585.0	-3810.0	-98844.0
24	17	20	30	341	154.0	-225843.0	-3802.0	-99931.0
24	17	20	30	342	155.0	-229192.0	-3826.0	-100826.0
24	17	20	30	342	156.0	-232814.0	-3837.0	-100967.0
24	17	20	30	343	157.0	-236024.0	-3837.0	-101347.0
24	17	20	30	343	158.0	-239102.0	-3851.0	-102171.0
24	17	20	30	344	159.0	-241847.0	-3867.0	-102893.0
24	17	20	30	345	160.0	-244081.0	-3874.0	-104289.0
24	17	20	30	345	161.0	-246617.0	-3879.0	-108561.0
24	17	20	30	346	162.0	-250723.0	-3917.0	-113741.0
24	17	20	30	346	163.0	-257174.0	-3921.0	-119084.0
24	17	20	30	347	164.0	-259162.0	-3921.0	-121822.0
24	17	20	30	347	165.0	-243022.0	-3916.0	-123117.0
24	17	20	30	348	167.0	-183571.0	-3934.0	-125427.0
24	17	20	30	349	168.0	-163887.0	-3956.0	-126614.0
24	17	20	30	349	169.0	-151654.0	-3950.0	-126614.0
24	17	20	30	357	170.0	-141372.0	-3951.0	-126639.0
24	17	20	30	358	171.0	-135423.0	-3956.0	-129121.0
24	17	20	30	358	172.0	-142795.0	-3949.0	-131804.0
24	17	20	30	384	173.0	-164427.0	-3963.0	-135186.0
24	17	20	30	385	174.0	-193689.0	-3938.0	-136178.0
24	17	20	30	385	175.0	-220389.0	-3929.0	-136324.0
24	17	20	30	386	176.0	-236657.0	-3936.0	-137070.0
24	17	20	30	386	177.0	-240175.0	-3937.0	-137586.0
24	17	20	30	387	178.0	-232009.0	-3951.0	-137959.0
24	17	20	30	387	179.0	-216450.0	-3947.0	-137523.0
24	17	20	30	388	180.0	-196608.0	-3974.0	-137934.0
24	17	20	30	389	181.0	-177594.0	-3994.0	-139892.0
24	17	20	30	389	182.0	-163688.0	-4011.0	-142494.0
24	17	20	30	390	183.0	-155455.0	-4009.0	-145059.0
24	17	20	30	390	184.0	-151152.0	-3994.0	-145417.0
24	17	20	30	391	185.0	-150630.0	-4006.0	-144950.0
24	17	20	30	391	186.0	-153067.0	-4016.0	-144607.0
24	17	20	30	392	187.0	-157171.0	-4004.0	-144472.0
24	17	20	30	393	189.0	-166259.0	-4029.0	-142806.0
24	17	20	30	393	190.0	-169873.0	-4048.0	-143610.0
24	17	20	30	394	191.0	-175032.0	-4044.0	-145913.0
24	17	20	30	394	192.0	-182380.0	-4041.0	-148582.0
24	17	20	30	395	193.0	-191542.0	-4032.0	-151254.0
24	17	20	30	397	194.0	-201656.0	-4017.0	-150677.0
24	17	20	30	397	195.0	-212041.0	-4019.0	-149879.0
24	17	20	30	429	196.0	-221610.0	-4032.0	-149750.0
24	17	20	30	430	197.0	-228947.0	-4049.0	-149519.0
24	17	20	30	431	198.0	-233224.0	-4027.0	-148629.0
24	17	20	30	431	199.0	-234963.0	-4026.0	-147259.0
24	17	20	30	432	200.0	-235430.0	-4022.0	-147626.0
24	17	20	30	433	201.0	-236259.0	-4032.0	-149837.0
24	17	20	30	433	202.0	-237719.0	-4042.0	-152017.0
24	17	20	30	434	203.0	-239364.0	-4054.0	-154333.0
24	17	20	30	434	204.0	-240959.0	-4062.0	-153996.0
24	17	20	30	435	205.0	-242210.0	-4044.0	-153043.0
24	17	20	30	435	206.0	-242996.0	-4046.0	-152932.0
24	17	20	30	436	207.0	-243899.0	-4068.0	-153173.0
24	17	20	30	437	208.0	-244859.0	-4082.0	-153076.0
24	17	20	30	437	209.0	-245802.0	-4090.0	-151972.0
24	17	20	30	438	210.0	-246574.0	-4096.0	-152397.0
24	17	20	30	438	212.0	-245554.0	-4105.0	-156988.0
24	17	20	30	439	213.0	-244708.0	-4096.0	-159672.0
24	17	20	30	439	214.0	-243928.0	-4059.0	-160366.0
24	17	20	30	440	215.0	-243001.0	-4064.0	-160267.0
24	17	20	30	441	216.0	-241616.0	-4083.0	-160170.0
24	17	20	30	441	217.0	-240929.0	-4065.0	-159994.0
24	17	20	30	475	218.0	-240529.0	-4083.0	-159288.0
24	17	20	30	485	219.0	-239771.0	-4074.0	-157897.0
24	17	20	30	486	220.0	-239091.0	-4085.0	-158792.0
24	17	20	30	486	221.0	-238259.0	-4097.0	-161406.0
24	17	20	30	487	222.0	-237284.0	-4119.0	-164339.0
24	17	20	30	488	223.0	-236602.0	-4105.0	-166538.0
24	17	20	30	488	224.0	-235982.0	-4106.0	-166511.0
24	17	20	30	489	225.0	-235642.0	-4117.0	-166002.0
24	17	20	30	489	226.0	-236342.0	-4097.0	-166061.0
24	17	20	30	490	227.0	-237538.0	-4124.0	-165447.0
24	17	20	30	490	228.0	-238672.0	-4137.0	-164189.0
24	17	20	30	491	229.0	-239815.0	-4142.0	-163053.0
24	17	20	30	491	230.0	-241167.0	-4157.0	-164030.0
24	17	20	30	492	231.0	-242333.0	-4150.0	-166877.0
24	17	20	30	493	232.0	-243561.0	-4159.0	-170527.0
24	17	20	30	493	234.0	-244869.0	-4130.0	-172154.0
24	17	20	30	494	235.0	-245734.0	-4136.0	-172007.0
24	17	20	30	494	236.0	-246243.0	-4127.0	-171782.0
24	17	20	30	495	237.0	-246384.0	-4126.0	-171140.0
24	17	20	30	495	238.0	-246386.0	-4120.0	-170032.0
24	17	20	30	496	239.0	-246123.0	-4113.0	-168784.0
24	17	20	30	497	240.0	-245944.0	-4101.0	-168949.0
24	17	20	30	518	241.0	-245907.0	-4106.0	-170895.0
24	17	20	30	519	242.0	-246067.0	-4120.0	-174449.0
24	17	20	30	519	243.0	-245431.0	-4100.0	-176093.0
24	17	20	30	520	244.0	-244238.0	-4089.0	-174994.0
24	17	20	30	521	245.0	-242493.0	-4079.0	-174621.0
24	17	20	30	521	246.0	-240588.0	-4081.0	-174142.0
24	17	20	30	522	247.0	-238992.0	-4069.0	-172879.0
24	17	20	30	522	248.0	-237594.0	-4065.0	-171499.0
24	17	20	30	523	249.0	-236291.0	-4062.0	-169851.0
24	17	20	30	524	250.0	-234879.0	-4068.0	-170575.0
24	17	20	30	524	251.0	-233084.0	-4086.0	-172917.0
24	17	20	30	525	252.0	-230912.0	-4087.0	-176355.0
24	17	20	30	525	253.0	-228617.0	-4063.0	-177616.0
24	17	20	30	526	254.0	-226596.0	-4058.0	-176246.0
24	17	20	30	527	255.0	-224174.0	-4061.0	-175506.0
24	17	20	30	527	1.0	-218511.0	-4051.0	-173387.0
24	17	20	30	528	2.0	-214574.0	-4026.0	-171467.0
24	17	20	30	529	3.0	-210462.0	-4017.0	-169760.0
24	17	20	30	529	4.0	-206492.0	-4011.0	-169656.0
24	17	20	30	530	5.0	-202432.0	-3991.0	-170669.0
24	17	20	30	530	6.0	-197948.0	-3989.0	-172646.0
24	17	20	30	564	7.0	-193166.0	-3959.0	-172997.0
24	17	20	30	565	8.0	-188331.0	-3927.0	-171596.0
24	17	20	30	565	9.0	-184271.0	-3902.0	-170662.0
24	17	20	30	566	10.0	-180549.0	-3893.0	-170030.0
24	17	20	30	567	11.0	-176852.0	-3910.0	-169259.0
24	17	20	30	568	12.0	-173344.0	-3884.0	-167724.0
24	17	20	30	568	13.0	-169735.0	-3867.0	-165686.0
24	17	20	30	569	14.0	-166509.0	-3868.0	-165849.0
24	17	20	30	570	15.0	-164422.0	-3868.0	-167057.0
24	17	20	30	570	16.0	-163265.0	-3853.0	-169238.0
24	17	20	30	571	17.0	-163111.0	-3832.0	-169613.0
24	17	20	30	571	18.0	-164097.0	-3807.0	-168477.0
24	17	20	30	572	19.0	-166010.0	-3784.0	-167274.0
24	17	20	30	573	20.0	-168415.0	-3765.0	-165961.0
24	17	20	30	573	21.0	-171613.0	-3731.0	-164280.0
24	17	20	30	574	23.0	-181268.0	-3686.0	-161001.0
24	17	20	30	574	24.0	-185962.0	-3678.0	-161658.0
24	17	20	30	575	25.0	-190172.0	-3661.0	-163782.0
24	17	20	30	575	26.0	-194847.0	-3636.0	-166156.0
24	17	20	30	576	27.0	-199084.0	-3588.0	-165477.0
24	17	20	30	577	28.0	-203069.0	-3532.0	-164432.0
24	17	20	30	609	29.0	-208044.0	-3509.0	-163494.0
24	17	20	30	610	30.0	-213206.0	-3469.0	-162557.0
24	17	20	30	610	31.0	-218166.0	-3441.0	-162077.0
24	17	20	30	611	32.0	-223448.0	-3411.0	-161264.0
24	17	20	30	611	33.0	-228444.0	-3391.0	-159756.0
24	17	20	30	612	34.0	-232757.0	-3391.0	-160223.0
24	17	20	30	613	35.0	-236344.0	-3364.0	-162229.0
24	17	20	30	613	36.0	-239793.0	-3341.0	-164614.0
24	17	20	30	614	37.0	-242528.0	-3346.0	-163896.0
24	17	20	30	614	38.0	-244016.0	-3311.0	-162385.0
24	17	20	30	615	39.0	-244629.0	-3282.0	-161681.0
24	17	20	30	615	40.0	-244187.0	-3264.0	-160761.0
24	17	20	30	616	41.0	-241284.0	-3254.0	-160259.0
24	17	20	30	617	42.0	-233052.0	-3223.0	-159099.0
24	17	20	30	618	43.0	-217589.0	-3221.0	-157637.0
24	17	20	30	619	45.0	-198789.0	-3172.0	-160885.0
24	17	20	30	619	46.0	-196457.0	-3167.0	-163369.0
24	17	20	30	620	47.0	-199719.0	-3132.0	-163326.0
24	17	20	30	621	48.0	-203382.0	-3108.0	-161807.0
24	17	20	30	621	49.0	-211624.0	-3077.0	-161127.0
24	17	20	30	622	50.0	-217369.0	-3034.0	-160688.0
24	17	20	30	623	51.0	-215694.0	-3022.0	-160349.0
24	17	20	30	653	52.0	-214087.0	-3009.0	-159231.0
24	17	20	30	654	53.0	-214807.0	-2974.0	-157727.0
24	17	20	30	654	54.0	-217519.0	-2990.0	-158567.0
24	17	20	30	655	55.0	-221636.0	-2988.0	-160783.0
24	17	20	30	656	56.0	-225522.0	-2973.0	-163454.0
24	17	20	30	656	57.0	-227165.0	-2969.0	-162716.0
24	17	20	30	657	58.0	-227128.0	-2964.0	-160748.0
24	17	20	30	658	59.0	-225469.0	-2954.0	-159406.0
24	17	20	30	659	60.0	-222516.0	-2945.0	-158599.0
24	17	20	30	659	61.0	-219334.0	-2936.0	-158692.0
24	17	20	30	660	62.0	-218110.0	-2935.0	-158092.0
24	17	20	30	661	63.0	-220032.0	-2935.0	-157241.0
24	17	20	30	661	64.0	-223904.0	-2934.0	-159012.0
24	17	20	30	662	65.0	-228398.0	-2952.0	-161003.0
24	17	20	30	663	66.0	-233089.0	-2946.0	-163097.0
24	17	20	30	663	68.0	-232734.0	-2942.0	-161848.0
24	17	20	30	664	69.0	-225676.0	-2942.0	-160946.0
24	17	20	30	664	70.0	-215699.0	-2961.0	-160079.0
24	17	20	30	665	71.0	-204391.0	-2947.0	-159484.0
24	17	20	30	666	72.0	-193182.0	-2939.0	-158191.0
24	17	20	30	666	73.0	-184184.0	-2951.0	-157228.0
24	17	20	30	699	74.0	-178061.0	-2948.0	-158999.0
24	17	20	30	699	75.0	-174694.0	-2953.0	-161368.0
24	17	20	30	700	76.0	-174428.0	-2953.0	-163484.0
24	17	20	30	701	77.0	-175592.0	-2952.0	-163335.0
24	17	20	30	701	78.0	-177085.0	-2962.0	-161906.0
24	17	20	30	702	79.0	-178348.0	-2990.0	-160452.0
24	17	20	30	703	80.0	-178774.0	-2993.0	-159732.0
24	17	20	30	703	81.0	-178583.0	-3014.0	-159361.0
24	17	20	30	704	82.0	-177682.0	-3019.0	-157595.0
24	17	20	30	705	83.0	-177033.0	-3029.0	-155472.0
24	17	20	30	705	84.0	-176666.0	-3043.0	-156913.0
24	17	20	30	706	85.0	-176929.0	-3047.0	-159809.0
24	17	20	30	706	86.0	-177779.0	-3053.0	-161951.0
24	17	20	30	707	87.0	-178908.0	-3051.0	-161981.0
24	17	20	30	708	88.0	-180493.0	-3078.0	-161651.0
24	17	20	30	708	90.0	-183059.0	-3064.0	-159967.0
24	17	20	30	709	91.0	-185243.0	-3083.0	-159614.0
24	17	20	30	709	92.0	-187737.0	-3097.0	-157987.0
24	17	20	30	710	93.0	-190831.0	-3114.0	-156991.0
24	17	20	30	710	94.0	-193640.0	-3122.0	-158766.0
24	17	20	30	711	95.0	-196613.0	-3126.0	-160547.0
24	17	20	30	712	96.0	-200262.0	-3127.0	-162342.0
24	17	20	30	744	97.0	-203557.0	-3122.0	-161761.0
24	17	20	30	745	98.0	-206541.0	-3104.0	-160374.0
24	17	20	30	745	99.0	-209801.0	-3136.0	-159537.0
24	17	20	30	746	100.0	-212931.0	-3163.0	-158594.0
24	17	20	30	747	101.0	-216349.0	-3180.0	-157778.0
24	17	20	30	747	102.0	-219511.0	-3171.0	-155889.0
24	17	20	30	748	103.0	-222089.0	-3209.0	-154741.0
24	17	20	30	748	104.0	-224571.0	-3239.0	-155859.0
24	17	20	30	749	105.0	-226539.0	-3239.0	-158139.0
24	17	20	30	750	106.0	-227424.0	-3253.0	-159841.0
24	17	20	30	750	107.0	-226796.0	-3259.0	-158776.0
24	17	20	30	751	108.0	-225063.0	-3268.0	-157974.0
24	17	20	30	752	109.0	-222516.0	-3285.0	-157662.0
24	17	20	30	752	110.0	-218865.0	-3299.0	-157513.0
24	17	20	30	753	111.0	-215199.0	-3275.0	-157013.0
24	17	20	30	753	113.0	-207819.0	-3292.0	-154670.0
24	17	20	30	754	114.0	-204652.0	-3328.0	-156282.0
24	17	20	30	755	115.0	-202157.0	-3326.0	-158309.0
24	17	20	30	755	116.0	-199479.0	-3315.0	-159894.0
24	17	20	30	756	117.0	-197297.0	-3317.0	-158724.0
24	17	20	30	756	118.0	-195867.0	-3316.0	-157335.0
24	17	20	30	789	119.0	-194804.0	-3317.0	-156694.0
24	17	20	30	790	120.0	-193571.0	-3315.0	-156010.0
24	17	20	30	790	121.0	-192124.0	-3324.0	-155094.0
24	17	20	30	791	122.0	-190632.0	-3343.0	-152646.0
24	17	20	30	791	123.0	-189335.0	-3362.0	-151362.0
24	17	20	30	792	124.0	-187577.0	-3391.0	-152781.0
24	17	20	30	793	125.0	-185821.0	-3404.0	-155052.0
24	17	20	30	793	126.0	-184297.0	-3411.0	-157154.0
24	17	20	30	794	127.0	-183462.0	-3421.0	-156474.0
24	17	20	30	795	128.0	-183323.0	-3429.0	-154582.0
24	17	20	30	795	129.0	-184207.0	-3441.0	-154077.0
24	17	20	30	796	130.0	-185193.0	-3447.0	-153999.0
24	17	20	30	797	131.0	-186198.0	-3452.0	-152667.0
24	17	20	30	797	132.0	-188283.0	-3466.0	-150666.0
24	17	20	30	798	133.0	-190664.0	-3496.0	-150678.0
24	17	20	30	798	135.0	-196475.0	-3521.0	-155003.0
24	17	20	30	799	136.0	-200241.0	-3541.0	-157094.0
24	17	20	30	800	137.0	-203345.0	-3542.0	-155866.0
24	17	20	30	800	138.0	-206870.0	-3527.0	-154494.0
24	17	20	30	801	139.0	-209996.0	-3522.0	-153760.0
24	17	20	30	801	140.0	-212968.0	-3509.0	-152429.0
24	17	20	30	802	141.0	-216613.0	-3510.0	-150546.0
24	17	20	30	834	142.0	-220714.0	-3517.0	-148944.0
24	17	20	30	850	143.0	-225136.0	-3544.0	-149612.0
24	17	20	30	850	144.0	-230144.0	-3554.0	-151011.0
24	17	20	30	851	145.0	-235431.0	-3566.0	-152630.0
24	17	20	30	852	146.0	-240532.0	-3552.0	-154536.0
24	17	20	30	852	147.0	-245466.0	-3560.0	-154259.0
24	17	20	30	853	148.0	-250073.0	-3546.0	-153855.0
24	17	20	30	853	149.0	-253884.0	-3564.0	-153089.0
24	17	20	30	879	150.0	-256546.0	-3585.0	-152590.0
24	17	20	30	879	151.0	-258356.0	-3579.0	-151344.0
24	17	20	30	880	152.0	-259559.0	-3588.0	-149148.0
24	17	20	30	881	153.0	-260379.0	-3581.0	-149331.0
24	17	20	30	881	154.0	-260922.0	-3591.0	-151603.0
24	17	20	30	882	155.0	-261382.0	-3592.0	-153872.0
24	17	20	30	883	156.0	-261857.0	-3596.0	-154453.0
24	17	20	30	883	158.0	-260656.0	-3599.0	-151052.0
24	17	20	30	884	159.0	-259336.0	-3610.0	-150803.0
24	17	20	30	884	160.0	-257324.0	-3609.0	-150623.0
24	17	20	30	885	161.0	-255199.0	-3608.0	-150261.0
24	17	20	30	886	162.0	-252191.0	-3606.0	-148704.0
24	17	20	30	886	163.0	-247750.0	-3609.0	-149114.0
24	17	20	30	887	164.0	-242837.0	-3612.0	-150767.0
24	17	20	30	888	165.0	-237296.0	-3636.0	-153031.0
24	17	20	30	888	180.0	-196503.0	-3663.0	-148496.0
24	17	20	30	889	181.0	-200359.0	-3672.0	-147641.0
24	17	20	30	890	182.0	-204537.0	-3663.0	-145749.0
24	17	20	30	891	183.0	-208167.0	-3654.0	-146229.0
24	17	20	30	891	184.0	-211610.0	-3672.0	-148165.0
24	17	20	30	892	185.0	-214534.0	-3684.0	-150679.0
24	17	20	30	892	186.0	-216847.0	-3674.0	-151603.0
24	17	20	30	924	187.0	-219092.0	-3660.0	-149876.0
24	17	20	30	949	188.0	-221904.0	-3663.0	-148832.0
24	17	20	30	950	189.0	-224764.0	-3664.0	-148676.0
24	17	20	30	950	190.0	-226267.0	-3669.0	-147767.0
24	17	20	30	951	191.0	-227036.0	-3653.0	-146382.0
24	17	20	30	952	192.0	-227751.0	-3661.0	-144482.0
24	17	20	30	952	193.0	-227685.0	-3671.0	-145346.0
24	17	20	30	953	194.0	-227297.0	-3678.0	-147443.0
24	17	20	30	954	195.0	-226660.0	-3684.0	-148734.0
24	17	20	30	954	196.0	-226236.0	-3675.0	-149312.0
24	17	20	30	955	197.0	-225816.0	-3686.0	-148031.0
24	17	20	30	955	198.0	-225136.0	-3689.0	-147292.0
24	17	20	30	956	199.0	-224317.0	-3676.0	-147395.0
24	17	20	30	956	200.0	-223472.0	-3696.0	-146682.0
24	17	20	30	957	201.0	-222679.0	-3684.0	-145499.0
24	17	20	30	958	203.0	-219619.0	-3735.0	-145766.0
24	17	20	30	958	204.0	-218681.0	-3721.0	-147914.0
24	17	20	30	959	205.0	-217743.0	-3720.0	-150924.0
24	17	20	30	959	206.0	-216392.0	-3714.0	-151531.0
24	17	20	30	960	207.0	-215089.0	-3712.0	-149692.0
24	17	20	30	960	208.0	-213542.0	-3712.0	-148953.0
24	17	20	30	972	209.0	-212072.0	-3707.0	-147887.0
24	17	20	30	973	210.0	-210319.0	-3676.0	-146256.0
24	17	20	30	974	211.0	-207378.0	-3700.0	-144683.0
24	17	20	30	974	212.0	-204601.0	-3706.0	-143146.0
24	17	20	30	975	213.0	-202809.0	-3714.0	-144582.0
24	17	20	30	976	214.0	-201116.0	-3731.0	-147669.0
24	17	20	30	976	215.0	-199558.0	-3719.0	-151052.0
24	17	20	30	977	216.0	-198280.0	-3712.0	-151597.0
24	17	20	30	977	217.0	-197964.0	-3731.0	-149966.0
24	17	20	30	978	218.0	-198234.0	-3724.0	-148897.0
24	17	20	30	979	219.0	-198622.0	-3730.0	-147741.0
24	17	20	30	979	220.0	-199559.0	-3729.0	-147111.0
24	17	20	30	980	221.0	-200277.0	-3727.0	-146023.0
24	17	20	30	980	222.0	-200737.0	-3753.0	-144271.0
24	17	20	30	981	223.0	-201198.0	-3757.0	-144716.0
24	17	20	30	982	225.0	-203878.0	-3776.0	-147938.0
24	17	20	30	982	226.0	-206545.0	-3763.0	-147408.0
24	17	20	30	983	227.0	-209874.0	-3759.0	-146034.0
24	17	20	30	983	228.0	-213733.0	-3741.0	-145317.0
24	17	20	30	984	229.0	-218021.0	-3759.0	-144847.0
24	17	20	30	984	230.0	-222367.0	-3747.0	-143676.0
24	17	20	31	14	231.0	-226547.0	-3722.0	-142391.0
24	17	20	31	15	232.0	-230426.0	-3721.0	-141033.0
24	17	20	31	15	233.0	-233694.0	-3748.0	-141579.0
24	17	20	31	16	234.0	-236461.0	-3769.0	-143444.0
24	17	20	31	17	235.0	-238781.0	-3764.0	-146470.0
24	17	20	31	17	236.0	-240164.0	-3744.0	-146661.0
24	17	20	31	18	237.0	-241262.0	-3729.0	-144962.0
24	17	20	31	19	238.0	-242327.0	-3741.0	-143494.0
24	17	20	31	19	239.0	-243247.0	-3769.0	-142249.0
24	17	20	31	20	240.0	-244467.0	-3788.0	-141222.0
24	17	20	31	20	241.0	-245664.0	-3791.0	-139873.0
24	17	20	31	21	242.0	-246141.0	-3784.0	-138374.0
24	17	20	31	59	243.0	-246455.0	-3792.0	-139127.0
24	17	20	31	60	244.0	-246839.0	-3822.0	-141359.0
24	17	20	31	61	245.0	-246327.0	-3811.0	-143561.0
24	17	20	31	61	247.0	-242616.0	-3819.0	-141347.0
24	17	20	31	62	248.0	-239832.0	-3839.0	-141034.0
24	17	20	31	63	249.0	-236944.0	-3834.0	-140492.0
24	17	20	31	63	250.0	-233396.0	-3834.0	-139225.0
24	17	20	31	64	251.0	-229037.0	-3827.0	-137645.0
24	17	20	31	65	252.0	-224558.0	-3817.0	-136374.0
24	17	20	31	65	253.0	-219815.0	-3817.0	-137251.0
24	17	20	31	66	254.0	-215164.0	-3846.0	-138173.0
24	17	20	31	66	255.0	-210887.0	-3863.0	-139507.0
24	17	20	31	67	0.0	-206910.0	-3866.0	-139566.0
24	17	20	31	68	1.0	-203402.0	-3839.0	-138493.0
24	17	20	31	68	2.0	-200864.0	-3848.0	-137905.0
24	17	20	31	69	3.0	-199260.0	-3867.0	-137881.0
24	17	20	31	70	14.0	-219641.0	-3888.0	-146435.0
24	17	20	31	70	15.0	-222449.0	-3884.0	-145534.0
24	17	20	31	71	16.0	-224836.0	-3881.0	-144601.0
24	17	20	31	71	17.0	-226436.0	-3864.0	-145881.0
24	17	20	31	72	18.0	-227128.0	-3889.0	-147839.0
24	17	20	31	73	19.0	-226639.0	-3891.0	-148741.0
24	17	20	31	73	20.0	-225583.0	-3873.0	-144374.0
24	17	20	31	105	21.0	-224998.0	-3856.0	-139454.0
24	17	20	31	105	22.0	-224887.0	-3869.0	-135062.0
24	17	20	31	106	23.0	-224718.0	-3866.0	-127541.0
24	17	20	31	107	24.0	-223959.0	-3859.0	-118834.0
24	17	20	31	107	25.0	-222471.0	-3874.0	-112941.0
24	17	20	31	108	26.0	-220226.0	-3870.0	-109637.0
24	17	20	31	109	27.0	-217602.0	-3866.0	-111185.0
24	17	20	31	109	28.0	-215351.0	-3871.0	-114584.0
24	17	20	31	110	29.0	-213710.0	-3876.0	-116778.0
24	17	20	31	111	30.0	-212736.0	-3879.0	-116700.0
24	17	20	31	111	31.0	-212684.0	-3899.0	-116724.0
24	17	20	31	112	32.0	-213467.0	-3921.0	-116632.0
24	17	20	31	112	33.0	-214613.0	-3904.0	-117326.0
24	17	20	31	113	34.0	-215694.0	-3913.0	-119032.0
24	17	20	31	114	35.0	-218034.0	-3899.0	-120317.0
24	17	20	31	114	36.0	-223586.0	-3912.0	-121744.0
24	17	20	31	115	37.0	-229773.0	-3927.0	-125287.0
24	17	20	31	116	38.0	-223537.0	-3929.0	-129468.0
24	17	20	31	116	39.0	-196370.0	-3922.0	-133112.0
24	17	20	31	117	40.0	-165333.0	-3920.0	-133512.0
24	17	20	31	117	41.0	-142906.0	-3917.0	-134087.0
24	17	20	31	118	42.0	-129431.0	-3899.0	-134601.0
24	17	20	31	149	43.0	-121540.0	-3886.0	-133774.0
24	17	20	31	150	44.0	-114341.0	-3877.0	-133227.0
24	17	20	31	151	45.0	-115466.0	-3886.0	-132080.0
24	17	20	31	151	46.0	-129471.0	-3901.0	-132067.0
24	17	20	31	152	47.0	-151490.0	-3898.0	-134058.0
24	17	20	31	153	48.0	-173778.0	-3919.0	-136571.0
24	17	20	31	153	49.0	-189341.0	-3910.0	-138014.0
24	17	20	31	154	50.0	-196913.0	-3911.0	-137192.0
24	17	20	31	155	51.0	-194744.0	-3916.0	-136570.0
24	17	20	31	155	52.0	-184319.0	-3922.0	-135799.0
24	17	20	31	156	53.0	-168918.0	-3919.0	-134791.0
24	17	20	31	157	54.0	-152236.0	-3942.0	-134177.0
24	17	20	31	157	55.0	-138502.0	-3921.0	-133028.0
24	17	20	31	158	56.0	-131661.0	-3912.0	-132886.0
24	17	20	31	158	57.0	-133326.0	-3916.0	-134668.0
24	17	20	31	159	59.0	-149040.0	-3913.0	-139023.0
24	17	20	31	160	60.0	-156206.0	-3913.0	-138481.0
24	17	20	31	160	61.0	-160446.0	-3884.0	-137748.0
24	17	20	31	161	62.0	-163580.0	-3854.0	-137188.0
24	17	20	31	162	63.0	-168314.0	-3853.0	-136721.0
24	17	20	31	162	64.0	-175813.0	-3845.0	-135907.0
24	17	20	31	194	65.0	-187082.0	-3852.0	-133866.0
24	17	20	31	240	66.0	-200292.0	-3844.0	-133396.0
24	17	20	31	285	67.0	-211939.0	-3844.0	-135279.0
24	17	20	31	286	68.0	-221021.0	-3860.0	-137722.0
24	17	20	31	286	69.0	-227584.0	-3841.0	-139189.0
24	17	20	31	287	70.0	-232352.0	-3836.0	-138298.0
24	17	20	31	288	71.0	-235751.0	-3842.0	-137247.0
24	17	20	31	293	72.0	-238407.0	-3842.0	-136067.0
24	17	20	31	294	73.0	-240347.0	-3848.0	-135398.0
24	17	20	31	295	74.0	-241196.0	-3861.0	-134713.0
24	17	20	31	296	75.0	-242007.0	-3879.0	-132434.0
24	17	20	31	296	76.0	-243119.0	-3909.0	-132344.0
24	17	20	31	297	77.0	-243640.0	-3900.0	-134186.0
24	17	20	31	298	78.0	-243774.0	-3889.0	-135622.0
24	17	20	31	298	79.0	-243880.0	-3904.0	-135778.0
24	17	20	31	299	81.0	-243497.0	-3902.0	-134644.0
24	17	20	31	299	104.0	-238310.0	-3930.0	-136379.0
24	17	20	31	300	126.0	-168601.0	-3839.0	-134032.0
24	17	20	31	302	127.0	-164831.0	-3856.0	-135582.0
24	17	20	31	303	128.0	-160992.0	-3829.0	-137827.0
24	17	20	31	303	129.0	-157031.0	-3821.0	-137947.0
24	17	20	31	304	130.0	-153192.0	-3789.0	-135652.0
24	17	20	31	304	131.0	-149760.0	-3772.0	-133256.0
24	17	20	31	330	132.0	-147213.0	-3788.0	-132309.0
24	17	20	31	330	133.0	-144726.0	-3782.0	-132204.0
24	17	20	31	331	134.0	-142032.0	-3742.0	-131104.0
24	17	20	31	332	135.0	-140236.0	-3719.0	-129021.0
24	17	20	31	332	136.0	-139292.0	-3749.0	-129526.0
24	17	20	31	333	137.0	-138353.0	-3769.0	-130667.0
24	17	20	31	333	138.0	-137988.0	-3759.0	-132185.0
24	17	20	31	334	139.0	-137995.0	-3742.0	-132292.0
24	17	20	31	334	140.0	-138362.0	-3722.0	-130474.0
24	17	20	31	335	141.0	-139283.0	-3729.0	-129084.0
24	17	20	31	336	142.0	-140289.0	-3707.0	-127815.0
24	17	20	31	336	143.0	-140886.0	-3686.0	-126842.0
24	17	20	31	337	144.0	-141681.0	-3672.0	-124522.0
24	17	20	31	337	145.0	-142799.0	-3656.0	-122372.0
24	17	20	31	338	146.0	-143807.0	-3646.0	-122892.0
24	17	20	31	339	149.0	-149273.0	-3593.0	-126836.0
24	17	20	31	339	150.0	-152448.0	-3579.0	-124787.0
24	17	20	31	340	151.0	-156916.0	-3562.0	-122852.0
24	17	20	31	340	152.0	-162686.0	-3531.0	-121697.0
24	17	20	31	341	153.0	-169251.0	-3490.0	-120624.0
24	17	20	31	341	154.0	-176157.0	-3484.0	-119041.0
24	17	20	31	374	155.0	-183141.0	-3491.0	-117086.0
24	17	20	31	375	156.0	-189497.0	-3439.0	-117869.0
24	17	20	31	375	157.0	-196050.0	-3430.0	-119865.0
24	17	20	31	376	158.0	-202494.0	-3401.0	-122138.0
24	17	20	31	376	159.0	-208612.0	-3385.0	-121717.0
24	17	20	31	377	160.0	-214049.0	-3373.0	-119329.0
24	17	20	31	377	161.0	-219415.0	-3353.0	-117635.0
24	17	20	31	378	162.0	-224382.0	-3340.0	-116432.0
24	17	20	31	378	163.0	-228388.0	-3310.0	-115861.0
24	17	20	31	379	164.0	-231412.0	-3274.0	-114706.0
24	17	20	31	379	165.0	-233352.0	-3266.0	-113412.0
24	17	20	31	380	166.0	-234251.0	-3256.0	-114327.0
24	17	20	31	381	167.0	-233812.0	-3224.0	-115196.0
24	17	20	31	381	168.0	-232385.0	-3204.0	-117348.0
24	17	20	31	382	169.0	-229431.0	-3199.0	-116942.0
24	17	20	31	382	171.0	-206279.0	-3147.0	-114254.0
24	17	20	31	383	172.0	-192574.0	-3115.0	-113397.0
24	17	20	31	383	173.0	-186346.0	-3089.0	-112404.0
24	17	20	31	384	174.0	-182587.0	-3064.0	-110869.0
24	17	20	31	385	175.0	-184206.0	-3029.0	-109809.0
24	17	20	31	385	176.0	-188069.0	-3013.0	-109404.0
24	17	20	31	419	177.0	-195108.0	-2989.0	-109932.0
24	17	20	31	427	178.0	-200634.0	-2971.0	-112674.0
24	17	20	31	428	179.0	-197427.0	-2951.0	-113954.0
24	17	20	31	429	180.0	-193646.0	-2931.0	-113296.0
24	17	20	31	429	181.0	-192511.0	-2899.0	-112979.0
24	17	20	31	430	182.0	-191438.0	-2907.0	-112484.0
24	17	20	31	430	183.0	-191104.0	-2900.0	-111707.0
24	17	20	31	431	184.0	-188261.0	-2857.0	-109811.0
24	17	20	31	431	185.0	-184141.0	-2831.0	-108699.0
24	17	20	31	432	186.0	-180306.0	-2819.0	-109119.0
24	17	20	31	432	187.0	-177187.0	-2831.0	-109826.0
24	17	20	31	433	188.0	-176161.0	-2827.0	-112459.0
24	17	20	31	434	189.0	-178571.0	-2816.0	-112320.0
24	17	20	31	434	190.0	-184783.0	-2787.0	-111359.0
24	17	20	31	435	191.0	-193536.0	-2779.0	-110482.0
24	17	20	31	435	193.0	-212164.0	-2772.0	-109624.0
24	17	20	31	436	194.0	-219030.0	-2766.0	-107864.0
24	17	20	31	436	195.0	-224380.0	-2751.0	-106474.0
24	17	20	31	437	196.0	-226334.0	-2741.0	-107552.0
24	17	20	31	437	197.0	-225360.0	-2736.0	-109366.0
24	17	20	31	438	198.0	-222556.0	-2722.0	-111119.0
24	17	20	31	439	199.0	-217170.0	-2691.0	-110189.0
24	17	20	31	464	200.0	-210822.0	-2683.0	-108527.0
24	17	20	31	465	201.0	-205370.0	-2674.0	-107887.0
24	17	20	31	465	202.0	-200249.0	-2656.0	-107357.0
24	17	20	31	466	203.0	-194564.0	-2644.0	-106239.0
24	17	20	31	466	204.0	-190070.0	-2664.0	-105018.0
24	17	20	31	467	205.0	-187282.0	-2685.0	-104816.0
24	17	20	31	467	206.0	-184333.0	-2686.0	-106168.0
24	17	20	31	468	207.0	-181959.0	-2687.0	-108374.0
24	17	20	31	469	208.0	-180207.0	-2688.0	-110472.0
24	17	20	31	469	209.0	-177886.0	-2676.0	-109736.0
24	17	20	31	470	210.0	-176122.0	-2679.0	-108626.0
24	17	20	31	470	211.0	-174662.0	-2667.0	-107968.0
24	17	20	31	471	212.0	-173383.0	-2658.0	-106914.0
24	17	20	31	472	213.0	-173251.0	-2664.0	-105976.0
24	17	20	31	472	214.0	-174952.0	-2671.0	-104197.0
24	17	20	31	480	216.0	-177571.0	-2668.0	-104067.0
24	17	20	31	480	217.0	-179342.0	-2682.0	-106661.0
24	17	20	31	481	218.0	-182008.0	-2662.0	-108619.0
24	17	20	31	481	219.0	-184596.0	-2657.0	-107440.0
24	17	20	31	482	220.0	-187628.0	-2631.0	-106188.0
24	17	20	31	483	221.0	-192967.0	-2632.0	-105405.0
24	17	20	31	509	222.0	-199964.0	-2636.0	-104196.0
24	17	20	31	509	223.0	-207228.0	-2629.0	-103304.0
24	17	20	31	510	224.0	-216186.0	-2621.0	-101829.0
24	17	20	31	510	225.0	-225422.0	-2641.0	-101482.0
24	17	20	31	511	226.0	-233712.0	-2643.0	-103054.0
24	17	20	31	511	227.0	-242194.0	-2659.0	-105447.0
24	17	20	31	512	228.0	-248361.0	-2686.0	-106688.0
24	17	20	31	513	229.0	-253014.0	-2684.0	-104936.0
24	17	20	31	513	230.0	-257457.0	-2671.0	-103936.0
24	17	20	31	514	231.0	-261125.0	-2671.0	-102901.0
24	17	20	31	514	232.0	-263771.0	-2669.0	-101306.0
24	17	20	31	515	233.0	-266325.0	-2672.0	-99545.0
24	17	20	31	516	234.0	-268744.0	-2657.0	-97459.0
24	17	20	31	516	235.0	-270010.0	-2657.0	-97355.0
24	17	20	31	517	236.0	-270239.0	-2692.0	-98734.0
24	17	20	31	517	238.0	-271563.0	-2704.0	-102769.0
24	17	20	31	518	239.0	-271663.0	-2716.0	-101246.0
24	17	20	31	518	240.0	-270743.0	-2715.0	-99555.0
24	17	20	31	519	241.0	-268948.0	-2699.0	-99638.0
24	17	20	31	520	242.0	-266792.0	-2693.0	-98568.0
24	17	20	31	521	243.0	-264477.0	-2693.0	-97166.0
24	17	20	31	521	244.0	-263067.0	-2699.0	-95824.0
24	17	20	31	554	245.0	-261588.0	-2693.0	-95296.0
24	17	20	31	555	246.0	-258998.0	-2681.0	-96159.0
24	17	20	31	556	247.0	-256629.0	-2690.0	-97842.0
24	17	20	31	557	248.0	-255441.0	-2694.0	-99014.0
24	17	20	31	557	249.0	-251949.0	-2705.0	-97695.0
24	17	20	31	558	250.0	-247751.0	-2707.0	-96848.0
24	17	20	31	558	251.0	-243739.0	-2691.0	-96336.0
24	17	20	31	559	252.0	-239895.0	-2694.0	-95352.0
24	17	20	31	560	253.0	-236140.0	-2710.0	-94499.0
24	17	20	31	560	254.0	-232787.0	-2714.0	-92228.0
24	17	20	31	561	255.0	-230094.0	-2711.0	-91915.0
24	17	20	31	561	0.0	-228066.0	-2714.0	-93379.0
24	17	20	31	562	1.0	-225067.0	-2741.0	-95558.0
24	17	20	31	562	2.0	-222255.0	-2752.0	-96714.0
24	17	20	31	563	3.0	-220206.0	-2746.0	-95309.0
24	17	20	31	564	5.0	-217078.0	-2761.0	-91671.0
24	17	20	31	564	6.0	-216241.0	-2749.0	-90402.0
24	17	20	31	565	7.0	-216020.0	-2758.0	-89204.0
24	17	20	31	565	8.0	-217859.0	-2742.0	-87281.0
24	17	20	31	566	9.0	-221079.0	-2746.0	-87623.0
24	17	20	31	567	10.0	-223849.0	-2739.0	-89415.0
24	17	20	31	615	11.0	-225817.0	-2732.0	-92179.0
24	17	20	31	629	12.0	-228018.0	-2740.0	-93367.0
24	17	20	31	630	13.0	-231024.0	-2726.0	-91917.0
24	17	20	31	631	14.0	-233387.0	-2719.0	-91149.0
24	17	20	31	632	15.0	-236448.0	-2724.0	-90494.0
24	17	20	31	633	16.0	-239462.0	-2726.0	-89124.0
24	17	20	31	633	17.0	-241990.0	-2715.0	-87906.0
24	17	20	31	634	18.0	-244154.0	-2721.0	-86027.0
24	17	20	31	635	19.0	-246647.0	-2751.0	-85870.0
24	17	20	31	635	20.0	-249346.0	-2767.0	-87519.0
24	17	20	31	636	21.0	-251016.0	-2751.0	-89790.0
24	17	20	31	636	22.0	-252431.0	-2747.0	-90441.0
24	17	20	31	637	23.0	-252979.0	-2735.0	-89124.0
24	17	20	31	637	24.0	-253577.0	-2744.0	-88114.0
24	17	20	31	638	25.0	-253691.0	-2731.0	-87636.0
24	17	20	31	639	35.0	-266592.0	-2684.0	-83673.0
24	17	20	31	639	42.0	-247496.0	-2694.0	-82747.0
24	17	20	31	640	43.0	-242709.0	-2701.0	-81273.0
24	17	20	31	640	44.0	-238968.0	-2676.0	-80675.0
24	17	20	31	641	45.0	-235516.0	-2666.0	-80415.0
24	17	20	31	651	46.0	-230694.0	-2647.0	-79586.0
24	17	20	31	651	47.0	-225535.0	-2639.0	-78270.0
24	17	20	31	652	48.0	-221591.0	-2640.0	-76002.0
24	17	20	31	653	49.0	-216691.0	-2634.0	-76519.0
24	17	20	31	653	50.0	-212592.0	-2646.0	-78769.0
24	17	20	31	675	51.0	-210114.0	-2629.0	-80934.0
24	17	20	31	675	52.0	-208081.0	-2609.0	-81744.0
24	17	20	31	676	53.0	-207310.0	-2641.0	-80864.0
24	17	20	31	676	54.0	-208216.0	-2627.0	-79346.0
24	17	20	31	677	55.0	-209002.0	-2599.0	-78376.0
24	17	20	31	678	56.0	-210470.0	-2586.0	-77819.0
24	17	20	31	678	57.0	-212952.0	-2589.0	-76444.0
24	17	20	31	679	58.0	-216567.0	-2581.0	-74757.0
24	17	20	31	679	59.0	-219621.0	-2581.0	-75718.0
24	17	20	31	680	60.0	-223555.0	-2571.0	-77216.0
24	17	20	31	680	61.0	-228061.0	-2584.0	-78821.0
24	17	20	31	681	62.0	-232406.0	-2595.0	-79494.0
24	17	20	31	681	63.0	-237129.0	-2594.0	-78094.0
24	17	20	31	682	64.0	-241017.0	-2587.0	-76924.0
24	17	20	31	683	65.0	-245361.0	-2579.0	-76477.0
24	17	20	31	698	66.0	-248791.0	-2574.0	-75877.0
24	17	20	31	699	67.0	-251814.0	-2546.0	-74201.0
24	17	20	31	699	68.0	-253962.0	-2547.0	-71187.0
24	17	20	31	700	69.0	-255929.0	-2586.0	-70243.0
24	17	20	31	700	70.0	-256687.0	-2584.0	-69366.0
24	17	20	31	701	71.0	-255840.0	-2589.0	-68914.0
24	17	20	31	701	72.0	-254292.0	-2561.0	-67482.0
24	17	20	31	702	73.0	-253245.0	-2544.0	-64202.0
24	17	20	31	721	74.0	-252750.0	-2543.0	-62119.0
24	17	20	31	722	75.0	-251329.0	-2520.0	-60207.0
24	17	20	31	723	76.0	-249128.0	-2524.0	-58432.0
24	17	20	31	723	77.0	-246129.0	-2522.0	-55840.0
24	17	20	31	724	78.0	-242702.0	-2515.0	-52663.0
24	17	20	31	724	79.0	-239173.0	-2510.0	-52792.0
24	17	20	31	725	80.0	-236212.0	-2496.0	-53437.0
24	17	20	31	725	81.0	-234533.0	-2505.0	-54042.0
24	17	20	31	726	82.0	-232357.0	-2477.0	-52322.0
24	17	20	31	727	83.0	-231714.0	-2475.0	-49369.0
24	17	20	31	727	84.0	-231999.0	-2469.0	-47131.0
24	17	20	31	728	85.0	-229929.0	-2452.0	-45130.0
24	17	20	31	728	86.0	-227934.0	-2461.0	-43564.0
24	17	20	31	729	87.0	-225679.0	-2479.0	-41432.0
24	17	20	31	730	88.0	-223024.0	-2481.0	-38421.0
24	17	20	31	746	89.0	-220677.0	-2490.0	-38524.0
24	17	20	31	747	90.0	-218632.0	-2451.0	-39917.0
24	17	20	31	747	91.0	-216857.0	-2434.0	-41463.0
24	17	20	31	748	92.0	-216029.0	-2445.0	-40690.0
24	17	20	31	748	93.0	-214951.0	-2430.0	-38386.0
24	17	20	31	749	94.0	-214448.0	-2414.0	-35779.0
24	17	20	31	750	95.0	-215087.0	-2418.0	-34070.0
24	17	20	31	750	96.0	-215133.0	-2406.0	-32141.0
24	17	20	31	751	97.0	-215180.0	-2401.0	-29306.0
24	17	20	31	751	98.0	-216432.0	-2397.0	-24956.0
24	17	20	31	752	99.0	-218421.0	-2385.0	-21378.0
24	17	20	31	752	100.0	-219877.0	-2377.0	-19316.0
24	17	20	31	753	101.0	-221361.0	-2374.0	-18399.0
24	17	20	31	754	102.0	-224901.0	-2354.0	-14506.0
24	17	20	31	754	103.0	-228889.0	-2363.0	-9956.0
24	17	20	31	769	104.0	-233556.0	-2366.0	-6530.0
24	17	20	31	770	105.0	-238141.0	-2347.0	-3277.0
24	17	20	31	770	106.0	-242184.0	-2340.0	55.0
24	17	20	31	771	107.0	-246529.0	-2344.0	4215.0
24	17	20	31	771	108.0	-250099.0	-2351.0	7596.0
24	17	20	31	772	109.0	-253432.0	-2363.0	8554.0
24	17	20	31	773	110.0	-256753.0	-2365.0	9539.0
24	17	20	31	792	111.0	-260662.0	-2333.0	9707.0
24	17	20	31	793	112.0	-263061.0	-2313.0	11836.0
24	17	20	31	793	113.0	-264555.0	-2313.0	15571.0
24	17	20	31	794	114.0	-265839.0	-2320.0	18578.0
24	17	20	31	794	115.0	-266042.0	-2314.0	20924.0
24	17	20	31	795	116.0	-266522.0	-2315.0	23164.0
24	17	20	31	796	117.0	-265507.0	-2314.0	26000.0
24	17	20	31	796	118.0	-263989.0	-2316.0	28531.0
24	17	20	31	797	119.0	-262829.0	-2306.0	29543.0
24	17	20	31	797	120.0	-261439.0	-2286.0	29946.0
24	17	20	31	798	121.0	-258930.0	-2294.0	28839.0
24	17	20	31	798	122.0	-257033.0	-2271.0	30043.0
24	17	20	31	799	123.0	-254941.0	-2268.0	33366.0
24	17	20	31	799	124.0	-251427.0	-2262.0	35971.0
24	17	20	31	800	125.0	-248115.0	-2275.0	38494.0
24	17	20	31	815	126.0	-246167.0	-2267.0	40381.0
24	17	20	31	816	127.0	-243296.0	-2243.0	43263.0
24	17	20	31	816	128.0	-241077.0	-2244.0	45216.0
24	17	20	31	817	129.0	-239790.0	-2269.0	43959.0
24	17	20	31	817	130.0	-238088.0	-2278.0	43101.0
24	17	20	31	818	131.0	-236429.0	-2276.0	42518.0
24	17	20	31	818	132.0	-234036.0	-2274.0	43543.0
24	17	20	31	819	133.0	-230651.0	-2275.0	45548.0
24	17	20	31	838	134.0	-227826.0	-2257.0	47098.0
24	17	20	31	839	135.0	-224751.0	-2249.0	48533.0
24	17	20	31	840	136.0	-220217.0	-2247.0	49966.0
24	17	20	31	840	137.0	-215710.0	-2242.0	52618.0
24	17	20	31	841	138.0	-212137.0	-2256.0	54087.0
24	17	20	31	842	139.0	-207986.0	-2265.0	53180.0
24	17	20	31	842	140.0	-205061.0	-2257.0	51502.0
24	17	20	31	843	141.0	-203614.0	-2252.0	49754.0
24	17	20	31	843	142.0	-202905.0	-2232.0	50504.0
24	17	20	31	844	143.0	-201866.0	-2221.0	51879.0
24	17	20	31	844	144.0	-201928.0	-2224.0	52516.0
24	17	20	31	845	145.0	-203102.0	-2229.0	53576.0
24	17	20	31	845	146.0	-203771.0	-2241.0	54223.0
24	17	20	31	846	147.0	-204641.0	-2242.0	55433.0
24	17	20	31	846	148.0	-206504.0	-2247.0	55492.0
24	17	20	31	862	149.0	-207763.0	-2242.0	53127.0
24	17	20	31	862	150.0	-208986.0	-2218.0	49629.0
24	17	20	31	863	151.0	-210476.0	-2201.0	45763.0
24	17	20	31	864	152.0	-210536.0	-2204.0	45440.0
24	17	20	31	864	153.0	-209207.0	-2199.0	46534.0
24	17	20	31	865	154.0	-207835.0	-2211.0	48172.0
24	17	20	31	865	155.0	-205057.0	-2213.0	50353.0
24	17	20	31	885	156.0	-201372.0	-2204.0	52639.0
24	17	20	31	886	157.0	-196992.0	-2197.0	55553.0
24	17	20	31	887	158.0	-192099.0	-2201.0	58500.0
24	17	20	31	887	159.0	-187296.0	-2206.0	61061.0
24	17	20	31	888	160.0	-182784.0	-2207.0	62852.0
24	17	20	31	888	161.0	-178287.0	-2188.0	63578.0
24	17	20	31	889	162.0	-173471.0	-2191.0	67256.0
24	17	20	31	890	163.0	-168773.0	-2197.0	72493.0
24	17	20	31	890	164.0	-164008.0	-2190.0	79026.0
24	17	20	31	891	165.0	-160467.0	-2173.0	82608.0
24	17	20	31	891	166.0	-158091.0	-2186.0	85770.0
24	17	20	31	892	167.0	-156299.0	-2179.0	88243.0
24	17	20	31	892	168.0	-156630.0	-2177.0	87880.0
24	17	20	31	893	169.0	-159761.0	-2192.0	85622.0
24	17	20	31	893	170.0	-164652.0	-2194.0	83279.0
24	17	20	31	894	171.0	-172168.0	-2175.0	81352.0
24	17	20	31	909	172.0	-180968.0	-2172.0	82323.0
24	17	20	31	910	173.0	-188955.0	-2164.0	83063.0
24	17	20	31	910	174.0	-197289.0	-2147.0	82614.0
24	17	20	31	911	175.0	-206593.0	-2151.0	81414.0
24	17	20	31	911	176.0	-214581.0	-2141.0	80390.0
24	17	20	31	912	177.0	-222687.0	-2152.0	80032.0
24	17	20	31	932	178.0	-230614.0	-2138.0	78216.0
24	17	20	31	932	179.0	-228741.0	-2146.0	74805.0
24	17	20	31	933	180.0	-209119.0	-2152.0	71150.0
24	17	20	31	933	181.0	-178583.0	-2134.0	67715.0
24	17	20	31	934	182.0	-144759.0	-2123.0	66854.0
24	17	20	31	935	183.0	-113009.0	-2126.0	66585.0
24	17	20	31	935	184.0	-86791.0	-2110.0	66009.0
24	17	20	31	936	185.0	-67574.0	-2095.0	65588.0
24	17	20	31	936	186.0	-58201.0	-2081.0	66181.0
24	17	20	31	937	187.0	-59346.0	-2068.0	67774.0
24	17	20	31	937	188.0	-70416.0	-2074.0	67806.0
24	17	20	31	938	189.0	-89274.0	-2087.0	65905.0
24	17	20	31	938	190.0	-109255.0	-2100.0	63551.0
24	17	20	31	939	191.0	-121811.0	-2091.0	61629.0
24	17	20	31	940	192.0	-123800.0	-2053.0	61776.0
24	17	20	31	940	193.0	-121554.0	-2057.0	62203.0
24	17	20	31	955	194.0	-121904.0	-2061.0	62683.0
24	17	20	31	956	195.0	-129959.0	-2052.0	63256.0
24	17	20	31	956	196.0	-143988.0	-2032.0	63447.0
24	17	20	31	957	197.0	-161547.0	-2021.0	64846.0
24	17	20	31	958	198.0	-181229.0	-2029.0	64820.0
24	17	20	31	958	199.0	-201041.0	-2052.0	63308.0
24	17	20	31	959	200.0	-216584.0	-2036.0	60749.0
24	17	20	31	959	201.0	-227242.0	-2022.0	59068.0
24	17	20	31	960	202.0	-236376.0	-2017.0	60231.0
24	17	20	31	961	203.0	-245806.0	-2015.0	61372.0
24	17	20	31	961	204.0	-253617.0	-2004.0	62411.0
24	17	20	31	962	205.0	-258067.0	-2002.0	63031.0
24	17	20	31	962	206.0	-258641.0	-2010.0	64355.0
24	17	20	31	963	207.0	-255884.0	-2019.0	67298.0
24	17	20	31	963	208.0	-251344.0	-2033.0	68023.0
24	17	20	31	979	209.0	-245956.0	-2025.0	66515.0
24	17	20	31	979	210.0	-239823.0	-2014.0	64113.0
24	17	20	31	980	211.0	-235419.0	-2002.0	62630.0
24	17	20	31	981	212.0	-231121.0	-1989.0	63696.0
24	17	20	31	981	213.0	-226069.0	-1996.0	64311.0
24	17	20	31	982	214.0	-222173.0	-2002.0	64215.0
24	17	20	32	2	215.0	-220690.0	-2006.0	65185.0
24	17	20	32	3	216.0	-219007.0	-2002.0	66134.0
24	17	20	32	4	217.0	-216758.0	-1971.0	67478.0
24	17	20	32	4	218.0	-214710.0	-1969.0	67183.0
24	17	20	32	5	219.0	-213623.0	-1981.0	65270.0
24	17	20	32	6	220.0	-214155.0	-1994.0	62613.0
24	17	20	32	6	221.0	-215484.0	-1996.0	61489.0
24	17	20	32	7	222.0	-216224.0	-1971.0	63217.0
24	17	20	32	7	223.0	-216614.0	-1957.0	64148.0
24	17	20	32	8	224.0	-217071.0	-1954.0	64038.0
24	17	20	32	8	225.0	-217265.0	-1947.0	64304.0
24	17	20	32	9	226.0	-216881.0	-1925.0	65068.0
24	17	20	32	10	227.0	-215984.0	-1921.0	66339.0
24	17	20	32	10	228.0	-215254.0	-1946.0	66218.0
24	17	20	32	11	229.0	-214687.0	-1944.0	64331.0
24	17	20	32	11	230.0	-213900.0	-1931.0	62102.0
24	17	20	32	25	231.0	-212927.0	-1926.0	61062.0
24	17	20	32	26	232.0	-211764.0	-1882.0	61848.0
24	17	20	32	27	233.0	-210387.0	-1906.0	62358.0
24	17	20	32	27	234.0	-208609.0	-1918.0	62343.0
24	17	20	32	28	235.0	-207346.0	-1936.0	63719.0
24	17	20	32	28	236.0	-206909.0	-1947.0	63969.0
24	17	20	32	29	237.0	-206139.0	-1934.0	64688.0
24	17	20	32	49	238.0	-206649.0	-1924.0	63281.0
24	17	20	32	49	239.0	-208097.0	-1916.0	60519.0
24	17	20	32	50	240.0	-210191.0	-1890.0	57311.0
24	17	20	32	51	241.0	-212391.0	-1911.0	55920.0
24	17	20	32	51	242.0	-214566.0	-1909.0	56976.0
24	17	20	32	52	243.0	-216207.0	-1884.0	58316.0
24	17	20	32	52	244.0	-219116.0	-1881.0	58933.0
24	17	20	32	53	245.0	-221343.0	-1888.0	59382.0
24	17	20	32	54	246.0	-222368.0	-1887.0	59871.0
24	17	20	32	54	247.0	-222657.0	-1862.0	60681.0
24	17	20	32	55	248.0	-222510.0	-1854.0	59977.0
24	17	20	32	55	249.0	-219794.0	-1868.0	58146.0
24	17	20	32	56	250.0	-216380.0	-1880.0	55947.0
24	17	20	32	56	251.0	-213158.0	-1864.0	54911.0
24	17	20	32	57	252.0	-208987.0	-1856.0	55578.0
24	17	20	32	72	253.0	-203592.0	-1869.0	56419.0
24	17	20	32	73	254.0	-198111.0	-1841.0	57104.0
24	17	20	32	74	255.0	-191744.0	-1826.0	57758.0
24	17	20	32	74	0.0	-184934.0	-1839.0	59358.0
24	17	20	32	75	1.0	-178489.0	-1816.0	61183.0
24	17	20	32	75	2.0	-172682.0	-1837.0	60522.0
24	17	20	32	76	3.0	-167168.0	-1831.0	58961.0
24	17	20	32	76	4.0	-162524.0	-1812.0	57202.0
24	17	20	32	95	5.0	-157585.0	-1777.0	56781.0
24	17	20	32	96	6.0	-152871.0	-1765.0	57355.0
24	17	20	32	96	7.0	-147901.0	-1749.0	58146.0
24	17	20	32	97	8.0	-143157.0	-1749.0	59783.0
24	17	20	32	98	9.0	-138991.0	-1733.0	60709.0
24	17	20	32	98	10.0	-135771.0	-1727.0	61478.0
24	17	20	32	99	11.0	-132776.0	-1730.0	62326.0
24	17	20	32	99	12.0	-130481.0	-1719.0	61801.0
24	17	20	32	100	13.0	-128966.0	-1699.0	60408.0
24	17	20	32	101	14.0	-128395.0	-1703.0	57914.0
24	17	20	32	101	15.0	-127941.0	-1691.0	57576.0
24	17	20	32	102	16.0	-128584.0	-1704.0	58971.0
24	17	20	32	102	17.0	-129497.0	-1682.0	59891.0
24	17	20	32	103	18.0	-131066.0	-1661.0	61001.0
24	17	20	32	103	19.0	-132596.0	-1652.0	62005.0
24	17	20	32	118	20.0	-134437.0	-1656.0	63552.0
24	17	20	32	119	21.0	-136003.0	-1631.0	65953.0
24	17	20	32	120	22.0	-138119.0	-1617.0	66329.0
24	17	20	32	120	23.0	-141029.0	-1630.0	64881.0
24	17	20	32	121	24.0	-144842.0	-1636.0	62956.0
24	17	20	32	122	25.0	-149312.0	-1602.0	63467.0
24	17	20	32	122	26.0	-153431.0	-1583.0	64901.0
24	17	20	32	123	27.0	-157104.0	-1579.0	66088.0
24	17	20	32	123	28.0	-160522.0	-1572.0	67452.0
24	17	20	32	124	29.0	-163557.0	-1537.0	69179.0
24	17	20	32	125	30.0	-167240.0	-1521.0	71709.0
24	17	20	32	125	31.0	-171139.0	-1518.0	73854.0
24	17	20	32	126	32.0	-174860.0	-1507.0	73538.0
24	17	20	32	127	33.0	-179164.0	-1473.0	72673.0
24	17	20	32	127	34.0	-184364.0	-1469.0	71291.0
24	17	20	32	146	35.0	-189719.0	-1445.0	71866.0
24	17	20	32	147	36.0	-194803.0	-1412.0	72813.0
24	17	20	32	148	37.0	-200134.0	-1387.0	73358.0
24	17	20	32	148	38.0	-205694.0	-1378.0	74419.0
24	17	20	32	149	39.0	-211446.0	-1352.0	75478.0
24	17	20	32	149	40.0	-217091.0	-1326.0	77540.0
24	17	20	32	150	41.0	-222823.0	-1322.0	79471.0
24	17	20	32	173	42.0	-228194.0	-1312.0	78703.0
24	17	20	32	174	43.0	-233181.0	-1270.0	77117.0
24	17	20	32	174	44.0	-236779.0	-1261.0	75619.0
24	17	20	32	175	45.0	-239341.0	-1234.0	75831.0
24	17	20	32	175	46.0	-241724.0	-1204.0	76718.0
24	17	20	32	176	47.0	-244596.0	-1184.0	77578.0
24	17	20	32	176	48.0	-246951.0	-1166.0	78749.0
24	17	20	32	177	49.0	-247781.0	-1127.0	79719.0
24	17	20	32	177	50.0	-245912.0	-1092.0	81998.0
24	17	20	32	178	51.0	-241972.0	-1062.0	83699.0
24	17	20	32	197	52.0	-236114.0	-1039.0	82628.0
24	17	20	32	198	53.0	-226411.0	-1029.0	81621.0
24	17	20	32	199	54.0	-210018.0	-1006.0	80103.0
24	17	20	32	199	55.0	-188006.0	-997.0	80216.0
24	17	20	32	200	56.0	-166590.0	-976.0	80808.0
24	17	20	32	200	57.0	-149406.0	-955.0	81538.0
24	17	20	32	201	58.0	-139412.0	-942.0	83104.0
24	17	20	32	201	59.0	-135739.0	-935.0	83806.0
24	17	20	32	202	60.0	-139216.0	-892.0	85263.0
24	17	20	32	202	61.0	-149571.0	-891.0	86494.0
24	17	20	32	203	62.0	-158936.0	-879.0	84994.0
24	17	20	32	203	63.0	-166918.0	-862.0	83842.0
24	17	20	32	204	64.0	-174139.0	-834.0	82655.0
24	17	20	32	204	65.0	-179167.0	-793.0	83338.0
24	17	20	32	205	66.0	-180874.0	-766.0	83617.0
24	17	20	32	206	67.0	-179346.0	-746.0	83719.0
24	17	20	32	206	68.0	-176706.0	-719.0	84359.0
24	17	20	32	207	69.0	-173886.0	-696.0	84883.0
24	17	20	32	207	70.0	-169759.0	-694.0	86876.0
24	17	20	32	221	71.0	-165069.0	-691.0	88836.0
24	17	20	32	222	72.0	-161800.0	-660.0	87912.0
24	17	20	32	222	73.0	-160592.0	-651.0	86009.0
24	17	20	32	223	74.0	-161684.0	-644.0	84027.0
24	17	20	32	223	75.0	-164577.0	-603.0	84551.0
24	17	20	32	224	76.0	-168131.0	-599.0	85194.0
24	17	20	32	224	77.0	-170970.0	-578.0	86017.0
24	17	20	32	225	78.0	-171362.0	-577.0	87185.0
24	17	20	32	225	79.0	-168801.0	-577.0	88028.0
24	17	20	32	245	80.0	-163144.0	-542.0	89291.0
24	17	20	32	246	81.0	-156827.0	-538.0	90412.0
24	17	20	32	247	82.0	-152835.0	-556.0	89495.0
24	17	20	32	247	83.0	-149883.0	-534.0	87501.0
24	17	20	32	248	84.0	-148712.0	-512.0	85368.0
24	17	20	32	248	85.0	-152142.0	-501.0	86650.0
24	17	20	32	249	86.0	-158171.0	-490.0	87738.0
24	17	20	32	249	87.0	-163861.0	-484.0	88324.0
24	17	20	32	250	88.0	-168436.0	-476.0	88271.0
24	17	20	32	250	89.0	-172536.0	-486.0	88474.0
24	17	20	32	251	90.0	-176372.0	-473.0	90348.0
24	17	20	32	251	91.0	-179963.0	-477.0	91290.0
24	17	20	32	252	92.0	-183671.0	-461.0	89862.0
24	17	20	32	252	93.0	-187862.0	-464.0	88379.0
24	17	20	32	253	94.0	-191406.0	-476.0	86670.0
24	17	20	32	269	95.0	-193088.0	-448.0	87291.0
24	17	20	32	270	96.0	-193571.0	-447.0	88272.0
24	17	20	32	270	97.0	-193501.0	-452.0	89156.0
24	17	20	32	271	98.0	-192749.0	-462.0	89620.0
24	17	20	32	271	99.0	-191536.0	-459.0	91191.0
24	17	20	32	272	100.0	-191452.0	-484.0	93548.0
24	17	20	32	272	101.0	-192106.0	-510.0	93728.0
24	17	20	32	273	102.0	-192397.0	-511.0	91956.0
24	17	20	32	293	103.0	-192602.0	-535.0	89712.0
24	17	20	32	293	104.0	-192897.0	-537.0	88394.0
24	17	20	32	294	105.0	-193813.0	-549.0	89108.0
24	17	20	32	295	106.0	-194996.0	-558.0	89903.0
24	17	20	32	295	107.0	-196259.0	-570.0	90186.0
24	17	20	32	296	108.0	-198247.0	-571.0	91149.0
24	17	20	32	296	109.0	-201422.0	-577.0	91850.0
24	17	20	32	297	110.0	-205674.0	-582.0	93589.0
24	17	20	32	297	111.0	-210252.0	-623.0	94606.0
24	17	20	32	298	112.0	-215033.0	-631.0	93004.0
24	17	20	32	299	113.0	-219026.0	-638.0	91422.0
24	17	20	32	299	114.0	-222401.0	-666.0	90444.0
24	17	20	32	300	115.0	-225780.0	-675.0	91440.0
24	17	20	32	300	116.0	-229029.0	-689.0	92486.0
24	17	20	32	301	117.0	-231624.0	-694.0	93693.0
24	17	20	32	301	118.0	-233884.0	-681.0	95271.0
24	17	20	32	302	119.0	-236401.0	-684.0	95634.0
24	17	20	32	302	120.0	-238424.0	-692.0	96904.0
24	17	20	32	303	121.0	-240054.0	-708.0	96717.0
24	17	20	32	303	122.0	-241882.0	-712.0	94940.0
24	17	20	32	318	123.0	-243277.0	-739.0	92964.0
24	17	20	32	318	124.0	-243137.0	-754.0	91709.0
24	17	20	32	319	125.0	-241627.0	-764.0	93179.0
24	17	20	32	320	126.0	-238984.0	-787.0	94908.0
24	17	20	32	320	127.0	-236317.0	-793.0	96232.0
24	17	20	32	339	128.0	-234112.0	-793.0	97165.0
24	17	20	32	339	129.0	-231615.0	-809.0	98085.0
24	17	20	32	340	130.0	-228816.0	-814.0	99898.0
24	17	20	32	341	131.0	-226767.0	-823.0	99971.0
24	17	20	32	341	132.0	-224861.0	-821.0	98429.0
24	17	20	32	342	133.0	-223047.0	-829.0	95653.0
24	17	20	32	342	134.0	-220808.0	-844.0	94503.0
24	17	20	32	343	135.0	-218540.0	-852.0	96245.0
24	17	20	32	343	136.0	-216170.0	-839.0	97683.0
24	17	20	32	344	137.0	-214456.0	-867.0	98449.0
24	17	20	32	345	138.0	-212490.0	-882.0	99560.0
24	17	20	32	345	139.0	-210221.0	-879.0	101020.0
24	17	20	32	346	140.0	-207689.0	-872.0	102898.0
24	17	20	32	346	141.0	-205022.0	-874.0	103281.0
24	17	20	32	362	142.0	-201987.0	-889.0	102516.0
24	17	20	32	363	143.0	-199170.0	-907.0	100102.0
24	17	20	32	364	144.0	-196475.0	-905.0	97993.0
24	17	20	32	364	145.0	-194219.0	-917.0	98848.0
24	17	20	32	365	146.0	-191577.0	-924.0	100061.0
24	17	20	32	365	147.0	-188811.0	-924.0	100174.0
24	17	20	32	366	148.0	-186185.0	-923.0	101046.0
24	17	20	32	367	149.0	-183850.0	-923.0	101741.0
24	17	20	32	367	150.0	-182537.0	-905.0	104033.0
24	17	20	32	368	151.0	-181913.0	-928.0	103678.0
24	17	20	32	368	152.0	-181871.0	-947.0	102477.0
24	17	20	32	369	153.0	-182624.0	-959.0	100548.0
24	17	20	32	369	154.0	-184265.0	-967.0	99038.0
24	17	20	32	385	155.0	-186782.0	-954.0	100273.0
24	17	20	32	385	156.0	-190014.0	-951.0	101404.0
24	17	20	32	386	157.0	-193767.0	-942.0	101847.0
24	17	20	32	387	158.0	-198089.0	-960.0	102667.0
24	17	20	32	387	159.0	-201904.0	-946.0	104203.0
24	17	20	32	388	160.0	-205762.0	-967.0	106344.0
24	17	20	32	388	161.0	-208890.0	-991.0	105584.0
24	17	20	32	408	162.0	-211929.0	-981.0	103354.0
24	17	20	32	409	163.0	-214532.0	-994.0	101764.0
24	17	20	32	409	164.0	-217017.0	-985.0	101380.0
24	17	20	32	410	165.0	-218676.0	-985.0	102894.0
24	17	20	32	410	166.0	-220454.0	-984.0	104522.0
24	17	20	32	411	167.0	-222977.0	-983.0	105233.0
24	17	20	32	412	168.0	-225394.0	-1007.0	106513.0
24	17	20	32	412	169.0	-227112.0	-997.0	108085.0
24	17	20	32	413	170.0	-228644.0	-982.0	111211.0
24	17	20	32	413	171.0	-229915.0	-991.0	112127.0
24	17	20	32	414	172.0	-229579.0	-997.0	111001.0
24	17	20	32	414	173.0	-229321.0	-1009.0	110224.0
24	17	20	32	415	174.0	-229102.0	-1021.0	111007.0
24	17	20	32	415	175.0	-229532.0	-984.0	113366.0
24	17	20	32	416	176.0	-229714.0	-979.0	116153.0
24	17	20	32	431	177.0	-230076.0	-984.0	118773.0
24	17	20	32	431	178.0	-230194.0	-987.0	121511.0
24	17	20	32	432	179.0	-230914.0	-985.0	123894.0
24	17	20	32	433	180.0	-231809.0	-996.0	126483.0
24	17	20	32	433	181.0	-233356.0	-1010.0	126682.0
24	17	20	32	434	182.0	-234482.0	-1030.0	125836.0
24	17	20	32	434	183.0	-234874.0	-1037.0	124406.0
24	17	20	32	454	184.0	-233974.0	-1017.0	124503.0
24	17	20	32	454	185.0	-232013.0	-994.0	126833.0
24	17	20	32	455	186.0	-229506.0	-986.0	128791.0
24	17	20	32	455	187.0	-226416.0	-1011.0	130813.0
24	17	20	32	456	188.0	-222800.0	-1014.0	132907.0
24	17	20	32	457	189.0	-219017.0	-1007.0	135269.0
24	17	20	32	457	190.0	-215519.0	-1024.0	138219.0
24	17	20	32	458	191.0	-212667.0	-1045.0	138956.0
24	17	20	32	458	192.0	-211369.0	-1053.0	138338.0
24	17	20	32	459	193.0	-210756.0	-1045.0	136903.0
24	17	20	32	459	194.0	-210915.0	-1040.0	137495.0
24	17	20	32	460	195.0	-211121.0	-1024.0	139468.0
24	17	20	32	460	196.0	-212324.0	-1034.0	141032.0
24	17	20	32	461	197.0	-214011.0	-1027.0	143083.0
24	17	20	32	461	198.0	-215716.0	-1037.0	146288.0
24	17	20	32	477	199.0	-217222.0	-1051.0	149618.0
24	17	20	32	477	200.0	-218757.0	-1040.0	152907.0
24	17	20	32	478	201.0	-219873.0	-1055.0	154401.0
24	17	20	32	478	202.0	-221111.0	-1067.0	154838.0
24	17	20	32	479	203.0	-222685.0	-1092.0	154766.0
24	17	20	32	480	204.0	-224050.0	-1076.0	156673.0
24	17	20	32	480	205.0	-225515.0	-1087.0	159942.0
24	17	20	32	481	206.0	-226915.0	-1077.0	162373.0
24	17	20	32	500	207.0	-228588.0	-1067.0	164788.0
24	17	20	32	500	208.0	-230151.0	-1061.0	167929.0
24	17	20	32	501	209.0	-231896.0	-1052.0	171411.0
24	17	20	32	502	210.0	-233546.0	-1057.0	175148.0
24	17	20	32	502	211.0	-235244.0	-1069.0	177753.0
24	17	20	32	503	212.0	-236364.0	-1077.0	180313.0
24	17	20	32	503	213.0	-237744.0	-1077.0	181542.0
24	17	20	32	504	214.0	-238946.0	-1069.0	184274.0
24	17	20	32	504	215.0	-239975.0	-1052.0	189037.0
24	17	20	32	505	216.0	-240516.0	-1047.0	193167.0
24	17	20	32	505	217.0	-241117.0	-1059.0	196746.0
24	17	20	32	506	218.0	-241712.0	-1068.0	200423.0
24	17	20	32	507	219.0	-241817.0	-1068.0	204684.0
24	17	20	32	507	220.0	-241288.0	-1071.0	209446.0
24	17	20	32	508	221.0	-240152.0	-1107.0	211889.0
24	17	20	32	524	222.0	-238461.0	-1131.0	213774.0
24	17	20	32	524	223.0	-236723.0	-1129.0	217161.0
24	17	20	32	525	224.0	-234887.0	-1119.0	221928.0
24	17	20	32	526	225.0	-233038.0	-1120.0	226882.0
24	17	20	32	526	226.0	-231228.0	-1107.0	230629.0
24	17	20	32	527	227.0	-228910.0	-1131.0	234596.0
24	17	20	32	527	228.0	-226155.0	-1136.0	239373.0
24	17	20	32	528	229.0	-223608.0	-1126.0	244449.0
24	17	20	32	529	230.0	-220970.0	-1121.0	249431.0
24	17	20	32	530	231.0	-218377.0	-1132.0	252745.0
24	17	20	32	530	232.0	-215896.0	-1139.0	254456.0
24	17	20	32	531	233.0	-213328.0	-1152.0	255999.0
24	17	20	32	531	234.0	-210637.0	-1164.0	259919.0
24	17	20	32	532	235.0	-207767.0	-1159.0	264466.0
24	17	20	32	532	236.0	-204683.0	-1157.0	268002.0
24	17	20	32	546	237.0	-201016.0	-1153.0	271525.0
24	17	20	32	547	238.0	-197387.0	-1139.0	274699.0
24	17	20	32	548	239.0	-194157.0	-1160.0	278791.0
24	17	20	32	548	240.0	-191480.0	-1167.0	282111.0
24	17	20	32	549	241.0	-189317.0	-1182.0	283691.0
24	17	20	32	549	242.0	-187314.0	-1181.0	283516.0
24	17	20	32	550	243.0	-185680.0	-1197.0	283331.0
24	17	20	32	569	244.0	-184912.0	-1196.0	285145.0
24	17	20	32	570	245.0	-185156.0	-1191.0	287265.0
24	17	20	32	571	246.0	-186031.0	-1185.0	288855.0
24	17	20	32	571	247.0	-186902.0	-1188.0	289651.0
24	17	20	32	572	248.0	-187444.0	-1222.0	290279.0
24	17	20	32	572	249.0	-187766.0	-1220.0	291363.0
24	17	20	32	573	250.0	-188394.0	-1227.0	293952.0
24	17	20	32	574	251.0	-188685.0	-1229.0	296237.0
24	17	20	32	574	252.0	-187995.0	-1226.0	298274.0
24	17	20	32	575	253.0	-186144.0	-1212.0	300329.0
24	17	20	32	575	254.0	-183799.0	-1212.0	304434.0
24	17	20	32	576	255.0	-180473.0	-1212.0	310246.0
24	17	20	32	576	0.0	-176182.0	-1207.0	316399.0
24	17	20	32	577	1.0	-171152.0	-1208.0	322661.0
24	17	20	32	578	2.0	-165910.0	-1215.0	327998.0
24	17	20	32	592	3.0	-160374.0	-1225.0	333080.0
24	17	20	32	593	4.0	-154434.0	-1223.0	339329.0
24	17	20	32	594	5.0	-149737.0	-1224.0	344768.0
24	17	20	32	594	6.0	-146824.0	-1236.0	346766.0
24	17	20	32	595	7.0	-145598.0	-1232.0	347556.0
24	17	20	32	595	8.0	-145577.0	-1222.0	349873.0
24	17	20	32	596	9.0	-148032.0	-1224.0	352057.0
24	17	20	32	596	10.0	-154336.0	-1247.0	353475.0
24	17	20	32	616	11.0	-163057.0	-1241.0	355047.0
24	17	20	32	616	12.0	-171582.0	-1219.0	357184.0
24	17	20	32	617	13.0	-180808.0	-1219.0	360083.0
24	17	20	32	618	14.0	-190456.0	-1245.0	361735.0
24	17	20	32	618	15.0	-199401.0	-1251.0	361174.0
24	17	20	32	619	16.0	-207027.0	-1263.0	359492.0
24	17	20	32	619	17.0	-214231.0	-1262.0	357129.0
24	17	20	32	620	18.0	-220514.0	-1255.0	356292.0
24	17	20	32	621	19.0	-225598.0	-1254.0	355836.0
24	17	20	32	621	20.0	-222857.0	-1243.0	355486.0
24	17	20	32	622	21.0	-206679.0	-1235.0	356148.0
24	17	20	32	622	22.0	-182401.0	-1241.0	355834.0
24	17	20	32	623	23.0	-155947.0	-1244.0	356444.0
24	17	20	32	623	24.0	-128490.0	-1264.0	357244.0
24	17	20	32	624	25.0	-102581.0	-1293.0	356254.0
24	17	20	32	640	26.0	-79406.0	-1296.0	354628.0
24	17	20	32	640	27.0	-60412.0	-1287.0	353216.0
24	17	20	32	641	28.0	-47227.0	-1287.0	354168.0
24	17	20	32	642	29.0	-40588.0	-1282.0	355486.0
24	17	20	32	642	30.0	-44150.0	-1276.0	356513.0
24	17	20	32	643	31.0	-56364.0	-1284.0	356712.0
24	17	20	32	643	32.0	-71160.0	-1296.0	356583.0
24	17	20	32	663	33.0	-85848.0	-1313.0	357740.0
24	17	20	32	663	34.0	-98704.0	-1324.0	357721.0
24	17	20	32	664	35.0	-111303.0	-1314.0	355733.0
24	17	20	32	664	36.0	-123243.0	-1329.0	353975.0
24	17	20	32	665	37.0	-135167.0	-1340.0	352733.0
24	17	20	32	666	38.0	-147697.0	-1326.0	353389.0
24	17	20	32	666	39.0	-158620.0	-1319.0	354276.0
24	17	20	32	667	40.0	-167738.0	-1330.0	355179.0
24	17	20	32	667	41.0	-174701.0	-1317.0	356659.0
24	17	20	32	668	42.0	-178369.0	-1316.0	357820.0
24	17	20	32	668	43.0	-179622.0	-1324.0	359458.0
24	17	20	32	669	44.0	-180896.0	-1331.0	360596.0
24	17	20	32	670	45.0	-182149.0	-1340.0	359790.0
24	17	20	32	670	46.0	-181304.0	-1368.0	358669.0
24	17	20	32	671	47.0	-177240.0	-1397.0	358313.0
24	17	20	32	686	48.0	-171141.0	-1396.0	359861.0
24	17	20	32	687	49.0	-163227.0	-1375.0	361136.0
24	17	20	32	687	50.0	-156244.0	-1398.0	362285.0
24	17	20	32	688	51.0	-149496.0	-1419.0	363498.0
24	17	20	32	688	52.0	-144612.0	-1434.0	363893.0
24	17	20	32	689	53.0	-140482.0	-1432.0	364929.0
24	17	20	32	689	54.0	-136567.0	-1450.0	365194.0
24	17	20	32	690	55.0	-134250.0	-1459.0	363900.0
24	17	20	32	709	56.0	-132984.0	-1490.0	361052.0
24	17	20	32	710	57.0	-134214.0	-1502.0	359652.0
24	17	20	32	711	58.0	-138528.0	-1485.0	359826.0
24	17	20	32	711	59.0	-144224.0	-1493.0	359844.0
24	17	20	32	712	60.0	-150506.0	-1502.0	359816.0
24	17	20	32	712	61.0	-157293.0	-1493.0	359858.0
24	17	20	32	713	62.0	-163638.0	-1500.0	361104.0
24	17	20	32	714	63.0	-169964.0	-1504.0	362447.0
24	17	20	32	714	64.0	-174969.0	-1511.0	361906.0
24	17	20	32	715	65.0	-178300.0	-1523.0	359764.0
24	17	20	32	715	66.0	-179211.0	-1517.0	357681.0
