24	17	9	11	907	115.0	-245272.0	-2660.0	-1630345.0
24	17	9	11	909	116.0	-251594.0	-2568.0	-1628246.0
24	17	9	11	911	117.0	-247081.0	-2517.0	-1625543.0
24	17	9	11	914	118.0	-234301.0	-2463.0	-1623057.0
24	17	9	11	916	119.0	-236782.0	-2391.0	-1623106.0
24	17	9	11	928	120.0	-244097.0	-2303.0	-1625959.0
24	17	9	11	929	121.0	-246080.0	-2236.0	-1626514.0
24	17	9	11	930	122.0	-239946.0	-2190.0	-1623184.0
24	17	9	11	930	123.0	-237974.0	-2116.0	-1617202.0
24	17	9	11	931	124.0	-243352.0	-2047.0	-1610943.0
24	17	9	11	931	125.0	-247869.0	-1987.0	-1605521.0
24	17	9	11	932	126.0	-247208.0	-1945.0	-1602099.0
24	17	9	11	933	127.0	-242559.0	-1879.0	-1599772.0
24	17	9	11	933	128.0	-242508.0	-1819.0	-1598412.0
24	17	9	11	934	129.0	-246443.0	-1766.0	-1598972.0
24	17	9	11	958	130.0	-244910.0	-1674.0	-1602547.0
24	17	9	11	958	131.0	-236548.0	-1601.0	-1604656.0
24	17	9	11	959	132.0	-229427.0	-1510.0	-1602469.0
24	17	9	11	959	133.0	-226409.0	-1427.0	-1597187.0
24	17	9	11	960	134.0	-225390.0	-1342.0	-1590674.0
24	17	9	11	960	135.0	-224414.0	-1269.0	-1585649.0
24	17	9	11	961	136.0	-219669.0	-1177.0	-1582129.0
24	17	9	11	961	137.0	-215412.0	-1091.0	-1579935.0
24	17	9	11	982	138.0	-214364.0	-1014.0	-1580394.0
24	17	9	12	10	139.0	-215850.0	-932.0	-1582906.0
24	17	9	12	10	140.0	-217537.0	-849.0	-1584858.0
24	17	9	12	11	141.0	-219835.0	-764.0	-1584474.0
24	17	9	12	12	142.0	-225719.0	-697.0	-1582637.0
24	17	9	12	12	143.0	-232181.0	-641.0	-1577640.0
24	17	9	12	13	144.0	-237894.0	-570.0	-1572456.0
24	17	9	12	14	145.0	-242726.0	-511.0	-1566797.0
24	17	9	12	14	146.0	-248513.0	-427.0	-1562684.0
24	17	9	12	15	147.0	-254629.0	-359.0	-1560719.0
24	17	9	12	15	148.0	-260136.0	-280.0	-1560398.0
24	17	9	12	16	149.0	-265270.0	-221.0	-1562456.0
24	17	9	12	16	150.0	-271132.0	-147.0	-1564891.0
24	17	9	12	17	151.0	-277780.0	-57.0	-1564337.0
24	17	9	12	18	152.0	-283741.0	15.0	-1560781.0
24	17	9	12	18	153.0	-289640.0	69.0	-1554064.0
24	17	9	12	19	171.0	-308999.0	1340.0	-1447237.0
24	17	9	12	19	172.0	-305773.0	1421.0	-1435623.0
24	17	9	12	20	173.0	-300716.0	1518.0	-1421749.0
24	17	9	12	20	174.0	-295565.0	1610.0	-1408429.0
24	17	9	12	21	175.0	-290834.0	1676.0	-1393579.0
24	17	9	12	21	176.0	-285404.0	1758.0	-1379286.0
24	17	9	12	56	177.0	-279391.0	1822.0	-1364994.0
24	17	9	12	56	178.0	-272391.0	1909.0	-1352771.0
24	17	9	12	57	179.0	-266127.0	1977.0	-1344761.0
24	17	9	12	57	180.0	-259282.0	2061.0	-1342392.0
24	17	9	12	58	181.0	-251437.0	2131.0	-1338905.0
24	17	9	12	58	182.0	-243365.0	2210.0	-1327199.0
24	17	9	12	59	183.0	-233627.0	2297.0	-1306576.0
24	17	9	12	60	184.0	-221556.0	2361.0	-1287149.0
24	17	9	12	60	185.0	-208771.0	2419.0	-1270174.0
24	17	9	12	61	186.0	-196687.0	2481.0	-1253418.0
24	17	9	12	61	187.0	-185144.0	2534.0	-1238506.0
24	17	9	12	62	188.0	-173008.0	2628.0	-1230311.0
24	17	9	12	102	189.0	-160215.0	2701.0	-1229384.0
24	17	9	12	103	190.0	-147717.0	2753.0	-1231612.0
24	17	9	12	104	191.0	-136261.0	2836.0	-1222963.0
24	17	9	12	105	193.0	-119241.0	2948.0	-1133156.0
24	17	9	12	106	194.0	-113230.0	3010.0	-1072042.0
24	17	9	12	106	195.0	-109539.0	3102.0	-1014578.0
24	17	9	12	107	196.0	-107103.0	3163.0	-964453.0
24	17	9	12	107	197.0	-105952.0	3228.0	-923114.0
24	17	9	12	108	198.0	-105761.0	3286.0	-892797.0
24	17	9	12	108	199.0	-105736.0	3341.0	-879793.0
24	17	9	12	109	200.0	-104850.0	3374.0	-874639.0
24	17	9	12	110	201.0	-105741.0	3462.0	-858659.0
24	17	9	12	110	202.0	-108962.0	3509.0	-818717.0
24	17	9	12	111	203.0	-113364.0	3578.0	-754765.0
24	17	9	12	111	204.0	-120916.0	3654.0	-679194.0
24	17	9	12	112	205.0	-127752.0	3699.0	-601653.0
24	17	9	12	112	216.0	-247535.0	4380.0	-210977.0
24	17	9	12	113	217.0	-263905.0	4439.0	-193049.0
24	17	9	12	113	218.0	-279798.0	4514.0	-191017.0
24	17	9	12	114	219.0	-292799.0	4564.0	-218731.0
24	17	9	12	115	220.0	-301790.0	4654.0	-255496.0
24	17	9	12	115	221.0	-306615.0	4747.0	-268509.0
24	17	9	12	116	222.0	-309133.0	4834.0	-242338.0
24	17	9	12	146	223.0	-311656.0	4899.0	-204659.0
24	17	9	12	146	224.0	-314193.0	4973.0	-164857.0
24	17	9	12	147	225.0	-315370.0	5051.0	-116889.0
24	17	9	12	147	226.0	-314796.0	5114.0	-82773.0
24	17	9	12	148	227.0	-314026.0	5187.0	-68751.0
24	17	9	12	149	228.0	-314090.0	5238.0	-132229.0
24	17	9	12	149	229.0	-313222.0	5307.0	-284151.0
24	17	9	12	150	230.0	-306610.0	5388.0	-379356.0
24	17	9	12	150	231.0	-295071.0	5464.0	-420806.0
24	17	9	12	151	232.0	-285282.0	5517.0	-414415.0
24	17	9	12	151	233.0	-272407.0	5579.0	-383829.0
24	17	9	12	152	234.0	-257348.0	5646.0	-361767.0
24	17	9	12	153	235.0	-247191.0	5694.0	-355871.0
24	17	9	12	153	236.0	-234089.0	5738.0	-366522.0
24	17	9	12	154	237.0	-218746.0	5798.0	-397386.0
24	17	9	12	154	238.0	-217861.0	5871.0	-462905.0
24	17	9	12	155	239.0	-215202.0	5897.0	-551719.0
24	17	9	12	155	240.0	-190430.0	5950.0	-625099.0
24	17	9	12	156	241.0	-165671.0	6039.0	-658501.0
24	17	9	12	157	242.0	-175251.0	6125.0	-644354.0
24	17	9	12	157	243.0	-174614.0	6187.0	-611376.0
24	17	9	12	158	244.0	-162206.0	6242.0	-580719.0
24	17	9	12	190	245.0	-133807.0	6306.0	-561318.0
24	17	9	12	191	246.0	-129373.0	6387.0	-556254.0
24	17	9	12	191	247.0	-140837.0	6426.0	-565571.0
24	17	9	12	192	248.0	-138712.0	6454.0	-589339.0
24	17	9	12	193	249.0	-121424.0	6505.0	-637879.0
24	17	9	12	193	250.0	-95549.0	6552.0	-680279.0
24	17	9	12	194	251.0	-103731.0	6585.0	-690097.0
24	17	9	12	194	252.0	-111814.0	6647.0	-666054.0
24	17	9	12	195	253.0	-108859.0	6688.0	-632152.0
24	17	9	12	196	254.0	-88559.0	6721.0	-603649.0
24	17	9	12	196	255.0	-76178.0	6749.0	-589968.0
24	17	9	12	197	0.0	-94846.0	6788.0	-595084.0
24	17	9	12	197	1.0	-105592.0	6823.0	-611992.0
24	17	9	12	198	2.0	-107120.0	6849.0	-638789.0
24	17	9	12	198	3.0	-93034.0	6861.0	-686281.0
24	17	9	12	199	5.0	-128249.0	6978.0	-731905.0
24	17	9	12	200	6.0	-143867.0	6999.0	-704684.0
24	17	9	12	200	7.0	-145988.0	7051.0	-667357.0
24	17	9	12	201	8.0	-137174.0	7087.0	-638239.0
24	17	9	12	201	9.0	-158018.0	7117.0	-621659.0
24	17	9	12	202	10.0	-180377.0	7149.0	-619544.0
24	17	9	12	281	11.0	-189256.0	7183.0	-630769.0
24	17	9	12	282	12.0	-178022.0	7219.0	-653347.0
24	17	9	12	327	13.0	-170444.0	7258.0	-694557.0
24	17	9	12	328	14.0	-190247.0	7297.0	-727435.0
24	17	9	12	328	15.0	-198071.0	7326.0	-730650.0
24	17	9	12	329	16.0	-192198.0	7348.0	-702451.0
24	17	9	12	329	17.0	-167845.0	7365.0	-665816.0
24	17	9	12	330	18.0	-168595.0	7406.0	-636017.0
24	17	9	12	331	19.0	-183069.0	7425.0	-617481.0
24	17	9	12	331	20.0	-184479.0	7447.0	-612629.0
24	17	9	12	332	21.0	-169274.0	7473.0	-619259.0
24	17	9	12	332	22.0	-152498.0	7497.0	-636144.0
24	17	9	12	333	23.0	-169401.0	7544.0	-673491.0
24	17	9	12	334	24.0	-179425.0	7584.0	-701247.0
24	17	9	12	334	25.0	-175471.0	7646.0	-700402.0
24	17	9	12	335	50.0	-291035.0	9132.0	-660864.0
24	17	9	12	335	51.0	-291570.0	9218.0	-674077.0
24	17	9	12	336	52.0	-285212.0	9307.0	-698922.0
24	17	9	12	336	72.0	-192357.0	10636.0	-733757.0
24	17	9	12	337	73.0	-181270.0	10693.0	-768339.0
24	17	9	12	338	74.0	-171574.0	10773.0	-785717.0
24	17	9	12	338	75.0	-163133.0	10840.0	-777389.0
24	17	9	12	339	76.0	-155290.0	10904.0	-750094.0
24	17	9	12	339	77.0	-147591.0	10991.0	-724826.0
24	17	9	12	340	78.0	-140276.0	11082.0	-708341.0
24	17	9	12	370	79.0	-137125.0	11125.0	-703679.0
24	17	9	12	371	80.0	-138264.0	11192.0	-709811.0
24	17	9	12	415	81.0	-142266.0	11243.0	-723293.0
24	17	9	12	416	82.0	-150651.0	11269.0	-750659.0
24	17	9	12	417	83.0	-156275.0	11327.0	-786701.0
24	17	9	12	417	84.0	-159691.0	11371.0	-804576.0
24	17	9	12	418	85.0	-160351.0	11429.0	-797541.0
24	17	9	12	419	86.0	-159180.0	11486.0	-771867.0
24	17	9	12	419	87.0	-168018.0	11503.0	-749408.0
24	17	9	12	420	88.0	-176887.0	11533.0	-734741.0
24	17	9	12	420	89.0	-166921.0	11573.0	-731342.0
24	17	9	12	421	90.0	-159319.0	11586.0	-738441.0
24	17	9	12	422	91.0	-172755.0	11623.0	-753134.0
24	17	9	12	422	92.0	-177354.0	11663.0	-781514.0
24	17	9	12	423	93.0	-167887.0	11699.0	-814760.0
24	17	9	12	423	94.0	-150378.0	11728.0	-827175.0
24	17	9	12	424	95.0	-152627.0	11759.0	-815621.0
24	17	9	12	424	96.0	-166522.0	11797.0	-787557.0
24	17	9	12	425	117.0	-230219.0	11668.0	-745336.0
24	17	9	12	426	118.0	-241812.0	11643.0	-730679.0
24	17	9	12	426	119.0	-251000.0	11604.0	-728293.0
24	17	9	12	427	120.0	-261888.0	11563.0	-735233.0
24	17	9	12	427	121.0	-275017.0	11509.0	-750454.0
24	17	9	12	428	122.0	-287486.0	11484.0	-781220.0
24	17	9	12	429	123.0	-297294.0	11425.0	-813596.0
24	17	9	12	460	124.0	-300584.0	11397.0	-826889.0
24	17	9	12	461	125.0	-301796.0	11376.0	-816837.0
24	17	9	12	462	126.0	-295549.0	11317.0	-794952.0
24	17	9	12	462	127.0	-285306.0	11262.0	-776859.0
24	17	9	12	463	128.0	-276801.0	11190.0	-767227.0
24	17	9	12	463	129.0	-273721.0	11129.0	-767620.0
24	17	9	12	464	130.0	-271738.0	11079.0	-775872.0
24	17	9	12	465	131.0	-268278.0	11019.0	-791301.0
24	17	9	12	465	132.0	-264992.0	10946.0	-820964.0
24	17	9	12	506	133.0	-259810.0	10888.0	-848775.0
24	17	9	12	506	134.0	-254645.0	10848.0	-853637.0
24	17	9	12	507	135.0	-248895.0	10769.0	-835383.0
24	17	9	12	508	136.0	-244148.0	10709.0	-809208.0
24	17	9	12	508	137.0	-239839.0	10644.0	-789002.0
24	17	9	12	509	138.0	-236937.0	10578.0	-776917.0
24	17	9	12	509	139.0	-235277.0	10514.0	-774864.0
24	17	9	12	510	140.0	-233884.0	10444.0	-780962.0
24	17	9	12	511	141.0	-231811.0	10391.0	-793795.0
24	17	9	12	511	142.0	-229731.0	10327.0	-822297.0
24	17	9	12	512	143.0	-228094.0	10276.0	-846980.0
24	17	9	12	512	144.0	-226718.0	10206.0	-850790.0
24	17	9	12	513	145.0	-225918.0	10149.0	-832576.0
24	17	9	12	513	146.0	-227305.0	10076.0	-803627.0
24	17	9	12	514	147.0	-230862.0	10013.0	-779258.0
24	17	9	12	515	148.0	-235270.0	9956.0	-764539.0
24	17	9	12	515	162.0	-326789.0	9023.0	-836724.0
24	17	9	12	516	163.0	-333156.0	8972.0	-864291.0
24	17	9	12	516	164.0	-338523.0	8943.0	-871456.0
24	17	9	12	517	165.0	-343256.0	8889.0	-858501.0
24	17	9	12	518	166.0	-346344.0	8811.0	-842294.0
24	17	9	12	518	167.0	-347796.0	8759.0	-829481.0
24	17	9	12	519	168.0	-348269.0	8708.0	-823945.0
24	17	9	12	550	169.0	-347224.0	8648.0	-828641.0
24	17	9	12	551	170.0	-344983.0	8566.0	-841885.0
24	17	9	12	552	171.0	-340087.0	8494.0	-861662.0
24	17	9	12	553	172.0	-334684.0	8411.0	-893967.0
24	17	9	12	553	173.0	-325359.0	8356.0	-920301.0
24	17	9	12	554	174.0	-315804.0	8284.0	-924499.0
24	17	9	12	555	175.0	-308745.0	8231.0	-907611.0
24	17	9	12	555	176.0	-301079.0	8173.0	-884125.0
24	17	9	12	556	177.0	-291866.0	8079.0	-865617.0
24	17	9	12	556	178.0	-280079.0	8005.0	-857006.0
24	17	9	12	557	179.0	-267722.0	7926.0	-860009.0
24	17	9	12	558	180.0	-255273.0	7843.0	-869019.0
24	17	9	12	558	181.0	-243242.0	7759.0	-884906.0
24	17	9	12	559	182.0	-232307.0	7697.0	-913029.0
24	17	9	12	560	183.0	-222393.0	7630.0	-933469.0
24	17	9	12	560	184.0	-213551.0	7563.0	-934931.0
24	17	9	12	561	185.0	-205141.0	7500.0	-915786.0
24	17	9	12	561	186.0	-197718.0	7444.0	-892042.0
24	17	9	12	562	187.0	-190651.0	7382.0	-874882.0
24	17	9	12	562	188.0	-184692.0	7336.0	-865748.0
24	17	9	12	563	189.0	-179405.0	7268.0	-866446.0
24	17	9	12	564	190.0	-175237.0	7206.0	-875519.0
24	17	9	12	595	191.0	-171577.0	7143.0	-891719.0
24	17	9	12	596	192.0	-169289.0	7093.0	-919263.0
24	17	9	12	597	193.0	-169187.0	7038.0	-939063.0
24	17	9	12	597	194.0	-170796.0	6973.0	-939669.0
24	17	9	12	598	195.0	-173060.0	6935.0	-920831.0
24	17	9	12	599	196.0	-176615.0	6859.0	-899891.0
24	17	9	12	599	197.0	-181357.0	6771.0	-885306.0
24	17	9	12	600	198.0	-187151.0	6719.0	-877014.0
24	17	9	12	601	199.0	-192812.0	6639.0	-876312.0
24	17	9	12	601	200.0	-198719.0	6578.0	-882816.0
24	17	9	12	602	201.0	-205526.0	6497.0	-900039.0
24	17	9	12	602	202.0	-212667.0	6435.0	-930417.0
24	17	9	12	603	203.0	-218161.0	6383.0	-951391.0
24	17	9	12	603	204.0	-222892.0	6311.0	-951275.0
24	17	9	12	604	205.0	-227578.0	6246.0	-930468.0
24	17	9	12	605	207.0	-235508.0	6116.0	-891777.0
24	17	9	12	606	208.0	-238482.0	6024.0	-883655.0
24	17	9	12	606	209.0	-240262.0	5976.0	-883227.0
24	17	9	12	607	210.0	-240899.0	5918.0	-887629.0
24	17	9	12	607	211.0	-240904.0	5856.0	-898798.0
24	17	9	12	608	212.0	-240233.0	5787.0	-921326.0
24	17	9	12	640	213.0	-238667.0	5737.0	-933671.0
24	17	9	12	641	214.0	-236576.0	5699.0	-924213.0
24	17	9	12	642	215.0	-233876.0	5636.0	-895790.0
24	17	9	12	642	216.0	-229691.0	5566.0	-866272.0
24	17	9	12	643	217.0	-224192.0	5526.0	-843688.0
24	17	9	12	644	218.0	-217274.0	5464.0	-829281.0
24	17	9	12	644	219.0	-209437.0	5378.0	-822909.0
24	17	9	12	645	220.0	-200691.0	5317.0	-823603.0
24	17	9	12	646	221.0	-191652.0	5224.0	-832989.0
24	17	9	12	646	222.0	-182427.0	5161.0	-853264.0
24	17	9	12	647	223.0	-173581.0	5104.0	-860851.0
24	17	9	12	647	224.0	-164742.0	5051.0	-847298.0
24	17	9	12	648	225.0	-155812.0	4994.0	-818224.0
24	17	9	12	648	226.0	-148046.0	4936.0	-790164.0
24	17	9	12	649	227.0	-141341.0	4884.0	-768792.0
24	17	9	12	650	229.0	-130134.0	4738.0	-751026.0
24	17	9	12	650	230.0	-125862.0	4683.0	-751674.0
24	17	9	12	651	231.0	-122802.0	4637.0	-762257.0
24	17	9	12	651	232.0	-120293.0	4602.0	-781119.0
24	17	9	12	652	233.0	-118329.0	4549.0	-787345.0
24	17	9	12	653	234.0	-116963.0	4493.0	-775222.0
24	17	9	12	653	235.0	-116609.0	4432.0	-748911.0
24	17	9	12	685	236.0	-116662.0	4385.0	-723013.0
24	17	9	12	686	237.0	-116926.0	4346.0	-703099.0
24	17	9	12	731	238.0	-117235.0	4281.0	-690787.0
24	17	9	12	732	239.0	-117943.0	4244.0	-687380.0
24	17	9	12	733	240.0	-119672.0	4199.0	-691461.0
24	17	9	12	734	241.0	-122584.0	4128.0	-706808.0
24	17	9	12	734	242.0	-126764.0	4058.0	-729791.0
24	17	9	12	735	243.0	-132000.0	4014.0	-741402.0
24	17	9	12	735	244.0	-138328.0	3971.0	-734666.0
24	17	9	12	736	245.0	-144782.0	3891.0	-712634.0
24	17	9	12	737	246.0	-150789.0	3844.0	-688424.0
24	17	9	12	737	247.0	-156158.0	3781.0	-669276.0
24	17	9	12	738	248.0	-160550.0	3726.0	-656820.0
24	17	9	12	739	249.0	-164834.0	3692.0	-651677.0
24	17	9	12	739	250.0	-169542.0	3632.0	-653082.0
24	17	9	12	740	252.0	-178151.0	3519.0	-680206.0
24	17	9	12	741	253.0	-182137.0	3464.0	-682394.0
24	17	9	12	741	254.0	-186326.0	3442.0	-664673.0
24	17	9	12	742	18.0	-119785.0	2421.0	-632692.0
24	17	9	12	743	19.0	-105722.0	2369.0	-606980.0
24	17	9	12	743	20.0	-85054.0	2334.0	-583114.0
24	17	9	12	744	21.0	-59447.0	2294.0	-564079.0
24	17	9	12	745	22.0	-33664.0	2256.0	-555336.0
24	17	9	12	745	23.0	-14697.0	2219.0	-553335.0
24	17	9	12	746	24.0	-6246.0	2183.0	-557146.0
24	17	9	12	776	25.0	-8180.0	2153.0	-572299.0
24	17	9	12	776	26.0	-18627.0	2128.0	-591326.0
24	17	9	12	777	27.0	-35269.0	2096.0	-595816.0
24	17	9	12	778	28.0	-56862.0	2054.0	-583428.0
24	17	9	12	778	29.0	-80605.0	2013.0	-562577.0
24	17	9	12	779	30.0	-103743.0	1963.0	-545083.0
24	17	9	12	779	31.0	-125722.0	1936.0	-532531.0
24	17	9	12	780	32.0	-146846.0	1877.0	-527941.0
24	17	9	12	780	33.0	-165357.0	1841.0	-532154.0
24	17	9	12	781	34.0	-179769.0	1801.0	-542476.0
24	17	9	12	782	35.0	-189046.0	1762.0	-561839.0
24	17	9	12	782	36.0	-195724.0	1703.0	-583220.0
24	17	9	12	783	37.0	-203004.0	1665.0	-591338.0
24	17	9	12	783	38.0	-212317.0	1633.0	-581599.0
24	17	9	12	784	39.0	-223499.0	1608.0	-562017.0
24	17	9	12	784	40.0	-235535.0	1568.0	-546021.0
24	17	9	12	785	41.0	-248763.0	1513.0	-537459.0
24	17	9	12	785	42.0	-264107.0	1487.0	-537201.0
24	17	9	12	786	43.0	-282406.0	1461.0	-543929.0
24	17	9	12	787	44.0	-302296.0	1439.0	-556280.0
24	17	9	12	787	45.0	-321065.0	1403.0	-579179.0
24	17	9	12	788	46.0	-334265.0	1392.0	-602930.0
24	17	9	12	821	47.0	-339228.0	1363.0	-609884.0
24	17	9	12	830	48.0	-336383.0	1350.0	-599453.0
24	17	9	12	831	49.0	-326311.0	1323.0	-579309.0
24	17	9	12	831	50.0	-310796.0	1283.0	-561479.0
24	17	9	12	832	51.0	-291984.0	1219.0	-551324.0
24	17	9	12	833	52.0	-271699.0	1173.0	-548937.0
24	17	9	12	833	53.0	-250992.0	1152.0	-551625.0
24	17	9	12	834	54.0	-230391.0	1131.0	-558476.0
24	17	9	12	834	55.0	-210532.0	1092.0	-575158.0
24	17	9	12	835	56.0	-191988.0	1064.0	-589289.0
24	17	9	12	835	57.0	-173932.0	1019.0	-586735.0
24	17	9	12	836	58.0	-155540.0	998.0	-564906.0
24	17	9	12	836	59.0	-138207.0	959.0	-534796.0
24	17	9	12	837	60.0	-123289.0	914.0	-510509.0
24	17	9	12	837	61.0	-111634.0	891.0	-493519.0
24	17	9	12	838	63.0	-97210.0	806.0	-484847.0
24	17	9	12	839	64.0	-93155.0	743.0	-487818.0
24	17	9	12	839	65.0	-90173.0	702.0	-501083.0
24	17	9	12	840	66.0	-87906.0	683.0	-513756.0
24	17	9	12	840	67.0	-86936.0	662.0	-511817.0
24	17	9	12	841	68.0	-86250.0	625.0	-492524.0
24	17	9	12	866	69.0	-86491.0	614.0	-466107.0
24	17	9	12	866	70.0	-87518.0	588.0	-445024.0
24	17	9	12	867	71.0	-89197.0	565.0	-432156.0
24	17	9	12	868	72.0	-90979.0	511.0	-427828.0
24	17	9	12	868	73.0	-93426.0	484.0	-429729.0
24	17	9	12	869	74.0	-96356.0	427.0	-438734.0
24	17	9	12	869	75.0	-99101.0	383.0	-459642.0
24	17	9	12	870	76.0	-102517.0	369.0	-477335.0
24	17	9	12	870	77.0	-106483.0	322.0	-479490.0
24	17	9	12	871	78.0	-110579.0	295.0	-464796.0
24	17	9	12	871	79.0	-114064.0	286.0	-443597.0
24	17	9	12	872	80.0	-116836.0	238.0	-425904.0
24	17	9	12	873	81.0	-119721.0	201.0	-416521.0
24	17	9	12	873	82.0	-122358.0	167.0	-416040.0
24	17	9	12	874	83.0	-124087.0	136.0	-421070.0
24	17	9	12	874	85.0	-127665.0	91.0	-452676.0
24	17	9	12	875	86.0	-130694.0	59.0	-470239.0
24	17	9	12	883	87.0	-134700.0	59.0	-471383.0
24	17	9	12	883	88.0	-139804.0	14.0	-454512.0
24	17	9	12	884	89.0	-146741.0	1.0	-434527.0
24	17	9	12	884	90.0	-155506.0	-10.0	-419346.0
24	17	9	12	885	91.0	-164761.0	-40.0	-409985.0
24	17	9	12	909	92.0	-174267.0	-39.0	-408731.0
24	17	9	12	910	93.0	-184726.0	-42.0	-414691.0
24	17	9	12	911	94.0	-195071.0	-79.0	-426617.0
24	17	9	12	911	95.0	-204241.0	-76.0	-447876.0
24	17	9	12	912	96.0	-212249.0	-76.0	-465484.0
24	17	9	12	912	97.0	-219194.0	-94.0	-468779.0
24	17	9	12	913	98.0	-224191.0	-96.0	-455204.0
24	17	9	12	914	99.0	-227685.0	-89.0	-436653.0
24	17	9	12	914	100.0	-229936.0	-98.0	-423697.0
24	17	9	12	915	101.0	-231202.0	-97.0	-418834.0
24	17	9	12	915	102.0	-231716.0	-82.0	-420715.0
24	17	9	12	916	103.0	-230662.0	-82.0	-426572.0
24	17	9	12	916	104.0	-228512.0	-69.0	-436274.0
24	17	9	12	917	105.0	-225199.0	-59.0	-457188.0
24	17	9	12	918	106.0	-221734.0	-19.0	-475150.0
24	17	9	12	918	108.0	-213682.0	37.0	-460013.0
24	17	9	12	919	109.0	-209194.0	42.0	-440673.0
24	17	9	12	920	110.0	-205144.0	96.0	-426589.0
24	17	9	12	920	111.0	-201359.0	143.0	-421070.0
24	17	9	12	954	112.0	-198544.0	201.0	-422459.0
24	17	9	12	955	113.0	-197089.0	235.0	-428551.0
24	17	9	13	1	114.0	-197503.0	267.0	-440101.0
24	17	9	13	2	115.0	-199288.0	338.0	-461647.0
24	17	9	13	2	116.0	-201673.0	401.0	-476106.0
24	17	9	13	3	117.0	-203942.0	445.0	-475094.0
24	17	9	13	4	118.0	-206154.0	489.0	-459604.0
24	17	9	13	4	119.0	-208054.0	549.0	-441572.0
24	17	9	13	5	120.0	-209334.0	598.0	-428125.0
24	17	9	13	5	121.0	-209959.0	653.0	-421306.0
24	17	9	13	6	122.0	-210484.0	703.0	-421095.0
24	17	9	13	6	123.0	-210717.0	762.0	-425902.0
24	17	9	13	7	124.0	-210334.0	828.0	-436737.0
24	17	9	13	8	125.0	-208849.0	914.0	-457563.0
24	17	9	13	8	126.0	-206416.0	976.0	-470626.0
24	17	9	13	9	127.0	-203784.0	1031.0	-467340.0
24	17	9	13	9	131.0	-192084.0	1271.0	-404149.0
24	17	9	13	10	153.0	-141593.0	2409.0	-368819.0
24	17	9	13	10	154.0	-136927.0	2419.0	-426121.0
24	17	9	13	11	155.0	-129797.0	2468.0	-475988.0
24	17	9	13	12	156.0	-120637.0	2524.0	-505561.0
24	17	9	13	12	157.0	-109946.0	2563.0	-513987.0
24	17	9	13	13	158.0	-98913.0	2583.0	-506087.0
24	17	9	13	44	159.0	-88562.0	2633.0	-494284.0
24	17	9	13	45	160.0	-80176.0	2664.0	-485108.0
24	17	9	13	46	161.0	-73608.0	2663.0	-482480.0
24	17	9	13	46	162.0	-68744.0	2678.0	-485838.0
24	17	9	13	47	163.0	-65866.0	2679.0	-493236.0
24	17	9	13	47	164.0	-64873.0	2685.0	-508400.0
24	17	9	13	48	165.0	-64851.0	2690.0	-528327.0
24	17	9	13	49	166.0	-66565.0	2700.0	-538653.0
24	17	9	13	62	167.0	-69942.0	2719.0	-532838.0
24	17	9	13	62	168.0	-75129.0	2719.0	-514165.0
24	17	9	13	63	169.0	-81642.0	2743.0	-497921.0
24	17	9	13	63	170.0	-88781.0	2749.0	-488459.0
24	17	9	13	64	171.0	-95821.0	2748.0	-486749.0
24	17	9	13	64	172.0	-102539.0	2738.0	-490596.0
24	17	9	13	65	173.0	-108464.0	2743.0	-498223.0
24	17	9	13	66	175.0	-118991.0	2731.0	-533396.0
24	17	9	13	66	176.0	-122534.0	2726.0	-540869.0
24	17	9	13	67	177.0	-125929.0	2750.0	-533186.0
24	17	9	13	67	178.0	-130176.0	2744.0	-512568.0
24	17	9	13	68	179.0	-135146.0	2748.0	-492797.0
24	17	9	13	68	180.0	-140012.0	2759.0	-480956.0
24	17	9	13	69	181.0	-144576.0	2759.0	-477068.0
24	17	9	13	90	182.0	-148979.0	2758.0	-478929.0
24	17	9	13	91	183.0	-152557.0	2771.0	-483415.0
24	17	9	13	91	184.0	-155025.0	2749.0	-495241.0
24	17	9	13	92	185.0	-156721.0	2735.0	-512268.0
24	17	9	13	93	186.0	-157754.0	2731.0	-520051.0
24	17	9	13	93	187.0	-158519.0	2704.0	-511887.0
24	17	9	13	94	188.0	-160503.0	2690.0	-493357.0
24	17	9	13	94	189.0	-162559.0	2685.0	-476802.0
24	17	9	13	95	190.0	-163332.0	2651.0	-466181.0
24	17	9	13	96	191.0	-163161.0	2625.0	-463297.0
24	17	9	13	96	192.0	-162007.0	2602.0	-464932.0
24	17	9	13	97	193.0	-159972.0	2566.0	-470576.0
24	17	9	13	97	194.0	-157982.0	2553.0	-483979.0
24	17	9	13	98	195.0	-157201.0	2518.0	-501568.0
24	17	9	13	99	196.0	-156038.0	2494.0	-506219.0
24	17	9	13	99	198.0	-154514.0	2438.0	-472645.0
24	17	9	13	100	199.0	-155616.0	2398.0	-457472.0
24	17	9	13	100	200.0	-157474.0	2379.0	-449416.0
24	17	9	13	101	201.0	-159835.0	2373.0	-446501.0
24	17	9	13	102	202.0	-163579.0	2355.0	-449102.0
24	17	9	13	102	203.0	-167087.0	2322.0	-455855.0
24	17	9	13	135	204.0	-170412.0	2301.0	-471826.0
24	17	9	13	136	205.0	-173624.0	2288.0	-489693.0
24	17	9	13	137	206.0	-177719.0	2281.0	-494893.0
24	17	9	13	137	207.0	-181676.0	2236.0	-484935.0
24	17	9	13	138	208.0	-185931.0	2207.0	-467319.0
24	17	9	13	138	209.0	-190558.0	2182.0	-452026.0
24	17	9	13	139	210.0	-194831.0	2152.0	-442673.0
24	17	9	13	140	211.0	-199876.0	2119.0	-440779.0
24	17	9	13	140	212.0	-204484.0	2078.0	-443709.0
24	17	9	13	141	213.0	-209342.0	2056.0	-451192.0
24	17	9	13	141	214.0	-213997.0	2021.0	-468051.0
24	17	9	13	142	215.0	-218698.0	1991.0	-488342.0
24	17	9	13	143	216.0	-222679.0	1958.0	-494936.0
24	17	9	13	143	217.0	-226036.0	1936.0	-485394.0
24	17	9	13	144	218.0	-229321.0	1919.0	-468967.0
24	17	9	13	144	220.0	-235186.0	1861.0	-449544.0
24	17	9	13	145	221.0	-237731.0	1830.0	-448615.0
24	17	9	13	145	222.0	-240287.0	1801.0	-451714.0
24	17	9	13	146	223.0	-242614.0	1780.0	-459454.0
24	17	9	13	147	224.0	-244699.0	1763.0	-476453.0
24	17	9	13	147	225.0	-246596.0	1738.0	-493448.0
24	17	9	13	180	226.0	-247856.0	1728.0	-497220.0
24	17	9	13	194	227.0	-248312.0	1711.0	-486300.0
24	17	9	13	195	228.0	-248449.0	1704.0	-468262.0
24	17	9	13	195	229.0	-247963.0	1701.0	-454311.0
24	17	9	13	196	230.0	-246517.0	1666.0	-446094.0
24	17	9	13	196	231.0	-244522.0	1624.0	-444059.0
24	17	9	13	197	232.0	-242515.0	1618.0	-447198.0
24	17	9	13	197	233.0	-240087.0	1589.0	-454452.0
24	17	9	13	198	234.0	-237619.0	1553.0	-470097.0
24	17	9	13	199	235.0	-234901.0	1537.0	-484049.0
24	17	9	13	199	236.0	-232058.0	1512.0	-485391.0
24	17	9	13	225	237.0	-229922.0	1489.0	-470466.0
24	17	9	13	226	238.0	-227903.0	1497.0	-450987.0
24	17	9	13	226	239.0	-225481.0	1478.0	-432474.0
24	17	9	13	227	240.0	-223797.0	1448.0	-418887.0
24	17	9	13	228	242.0	-221444.0	1399.0	-413867.0
24	17	9	13	228	243.0	-221180.0	1373.0	-418024.0
24	17	9	13	229	244.0	-221696.0	1358.0	-432072.0
24	17	9	13	230	245.0	-222882.0	1356.0	-444427.0
24	17	9	13	231	246.0	-224407.0	1358.0	-441307.0
24	17	9	13	231	247.0	-225857.0	1351.0	-424341.0
24	17	9	13	232	248.0	-227031.0	1330.0	-403883.0
24	17	9	13	232	249.0	-227691.0	1321.0	-387174.0
24	17	9	13	233	250.0	-227931.0	1312.0	-375686.0
24	17	9	13	234	251.0	-228052.0	1292.0	-371409.0
24	17	9	13	234	252.0	-228224.0	1284.0	-372727.0
24	17	9	13	235	253.0	-228706.0	1249.0	-379229.0
24	17	9	13	236	9.0	-214366.0	1082.0	-374306.0
24	17	9	13	236	10.0	-212711.0	1072.0	-371497.0
24	17	9	13	237	11.0	-211150.0	1054.0	-354532.0
24	17	9	13	237	12.0	-209807.0	1040.0	-334046.0
24	17	9	13	238	13.0	-208796.0	1031.0	-319399.0
24	17	9	13	239	14.0	-207979.0	1031.0	-310819.0
24	17	9	13	239	15.0	-207317.0	998.0	-307324.0
24	17	9	13	270	16.0	-206683.0	993.0	-308718.0
24	17	9	13	271	17.0	-206464.0	973.0	-315896.0
24	17	9	13	272	18.0	-206406.0	956.0	-330649.0
24	17	9	13	272	19.0	-206212.0	927.0	-332091.0
24	17	9	13	273	20.0	-206613.0	904.0	-317221.0
24	17	9	13	274	21.0	-207804.0	874.0	-291786.0
24	17	9	13	274	22.0	-209771.0	855.0	-266583.0
24	17	9	13	275	23.0	-212454.0	812.0	-248762.0
24	17	9	13	275	24.0	-215746.0	799.0	-237526.0
24	17	9	13	276	25.0	-220197.0	747.0	-232822.0
24	17	9	13	277	26.0	-225661.0	721.0	-234035.0
24	17	9	13	277	27.0	-232008.0	693.0	-239501.0
24	17	9	13	278	28.0	-239276.0	659.0	-254777.0
24	17	9	13	279	29.0	-246416.0	625.0	-266250.0
24	17	9	13	280	30.0	-253562.0	613.0	-264301.0
24	17	9	13	280	31.0	-261004.0	587.0	-248343.0
24	17	9	13	281	32.0	-268422.0	539.0	-231296.0
24	17	9	13	282	33.0	-275920.0	512.0	-220429.0
24	17	9	13	282	34.0	-283439.0	491.0	-216131.0
24	17	9	13	283	35.0	-290038.0	478.0	-217788.0
24	17	9	13	284	36.0	-295767.0	452.0	-223511.0
24	17	9	13	284	37.0	-300962.0	416.0	-234152.0
24	17	9	13	316	38.0	-304504.0	372.0	-252369.0
24	17	9	13	361	39.0	-306776.0	361.0	-264166.0
24	17	9	13	362	40.0	-308948.0	352.0	-262077.0
24	17	9	13	363	41.0	-309361.0	316.0	-247854.0
24	17	9	13	363	42.0	-307906.0	269.0	-231227.0
24	17	9	13	364	43.0	-304967.0	231.0	-220662.0
24	17	9	13	365	44.0	-300348.0	183.0	-216646.0
24	17	9	13	365	45.0	-294334.0	149.0	-218024.0
24	17	9	13	366	46.0	-286899.0	109.0	-224630.0
24	17	9	13	367	47.0	-278012.0	85.0	-234854.0
24	17	9	13	367	48.0	-268259.0	57.0	-250713.0
24	17	9	13	368	49.0	-258307.0	19.0	-260146.0
24	17	9	13	368	50.0	-248204.0	-18.0	-257014.0
24	17	9	13	369	51.0	-237011.0	-44.0	-242162.0
24	17	9	13	370	52.0	-225137.0	-76.0	-225087.0
24	17	9	13	370	54.0	-201519.0	-146.0	-206354.0
24	17	9	13	371	55.0	-190608.0	-167.0	-206435.0
24	17	9	13	371	77.0	-328805.0	-779.0	-172991.0
24	17	9	13	372	78.0	-337276.0	-792.0	-188081.0
24	17	9	13	373	79.0	-343383.0	-797.0	-193141.0
24	17	9	13	373	80.0	-347399.0	-804.0	-188201.0
24	17	9	13	374	81.0	-349795.0	-824.0	-177577.0
24	17	9	13	374	82.0	-350133.0	-849.0	-171514.0
24	17	9	13	451	83.0	-349227.0	-869.0	-171637.0
24	17	9	13	452	84.0	-347190.0	-883.0	-178956.0
24	17	9	13	453	85.0	-345292.0	-915.0	-189584.0
24	17	9	13	453	86.0	-344157.0	-939.0	-203440.0
24	17	9	13	454	87.0	-344442.0	-987.0	-224314.0
24	17	9	13	455	88.0	-345576.0	-1012.0	-248436.0
24	17	9	13	455	89.0	-346869.0	-1051.0	-262181.0
24	17	9	13	456	90.0	-346397.0	-1077.0	-261680.0
24	17	9	13	456	91.0	-342579.0	-1099.0	-250414.0
24	17	9	13	457	92.0	-334886.0	-1132.0	-241216.0
24	17	9	13	458	93.0	-323442.0	-1160.0	-236615.0
24	17	9	13	458	94.0	-308521.0	-1197.0	-235482.0
24	17	9	13	459	95.0	-291513.0	-1243.0	-238711.0
24	17	9	13	459	96.0	-272962.0	-1276.0	-245284.0
24	17	9	13	460	97.0	-250724.0	-1302.0	-255768.0
24	17	9	13	461	121.0	-311470.0	-1890.0	-240607.0
24	17	9	13	461	122.0	-326724.0	-1916.0	-231743.0
24	17	9	13	462	123.0	-333176.0	-1942.0	-229279.0
24	17	9	13	462	124.0	-330801.0	-1952.0	-232658.0
24	17	9	13	463	125.0	-319331.0	-1974.0	-239426.0
24	17	9	13	464	126.0	-300953.0	-1982.0	-247902.0
24	17	9	13	464	127.0	-278037.0	-1994.0	-262329.0
24	17	9	13	465	128.0	-253156.0	-2010.0	-277746.0
24	17	9	13	496	129.0	-229111.0	-2041.0	-281186.0
24	17	9	13	497	130.0	-207968.0	-2042.0	-271504.0
24	17	9	13	497	131.0	-189034.0	-2067.0	-255436.0
24	17	9	13	498	132.0	-171696.0	-2081.0	-240871.0
24	17	9	13	499	133.0	-155043.0	-2117.0	-231614.0
24	17	9	13	499	134.0	-139469.0	-2143.0	-227438.0
24	17	9	13	500	135.0	-124854.0	-2167.0	-227356.0
24	17	9	13	500	136.0	-111539.0	-2183.0	-230397.0
24	17	9	13	501	137.0	-100537.0	-2208.0	-238795.0
24	17	9	13	502	138.0	-91932.0	-2207.0	-247116.0
24	17	9	13	502	139.0	-86074.0	-2253.0	-246017.0
24	17	9	13	503	140.0	-82758.0	-2266.0	-232951.0
24	17	9	13	504	141.0	-81284.0	-2297.0	-215294.0
24	17	9	13	504	142.0	-80969.0	-2331.0	-201350.0
24	17	9	13	505	143.0	-81358.0	-2346.0	-192555.0
24	17	9	13	505	144.0	-82567.0	-2376.0	-189252.0
24	17	9	13	506	145.0	-84946.0	-2401.0	-191258.0
24	17	9	13	506	146.0	-88347.0	-2394.0	-195785.0
24	17	9	13	507	147.0	-92461.0	-2389.0	-207812.0
24	17	9	13	508	148.0	-97349.0	-2434.0	-219889.0
24	17	9	13	508	149.0	-103054.0	-2430.0	-221609.0
24	17	9	13	541	150.0	-109660.0	-2433.0	-210552.0
24	17	9	13	542	151.0	-117112.0	-2446.0	-195091.0
24	17	9	13	542	152.0	-125413.0	-2473.0	-183886.0
24	17	9	13	543	153.0	-134654.0	-2494.0	-176664.0
24	17	9	13	544	154.0	-144104.0	-2524.0	-174303.0
24	17	9	13	544	155.0	-153517.0	-2530.0	-175834.0
24	17	9	13	545	156.0	-162345.0	-2561.0	-180626.0
24	17	9	13	545	157.0	-169727.0	-2579.0	-193649.0
24	17	9	13	546	158.0	-175842.0	-2592.0	-206478.0
24	17	9	13	547	159.0	-180736.0	-2621.0	-207498.0
24	17	9	13	547	160.0	-184678.0	-2636.0	-196231.0
24	17	9	13	548	161.0	-187816.0	-2652.0	-180606.0
24	17	9	13	549	162.0	-190229.0	-2682.0	-169079.0
24	17	9	13	549	163.0	-191911.0	-2696.0	-163999.0
24	17	9	13	550	164.0	-193132.0	-2724.0	-164406.0
24	17	9	13	551	166.0	-193821.0	-2752.0	-176547.0
24	17	9	13	552	167.0	-193462.0	-2787.0	-190576.0
24	17	9	13	552	168.0	-192268.0	-2794.0	-202747.0
24	17	9	13	553	169.0	-190446.0	-2780.0	-204653.0
24	17	9	13	554	170.0	-188872.0	-2776.0	-193928.0
24	17	9	13	554	171.0	-187544.0	-2779.0	-179355.0
24	17	9	13	585	172.0	-186007.0	-2792.0	-169682.0
24	17	9	13	586	173.0	-184745.0	-2780.0	-165955.0
24	17	9	13	586	174.0	-183891.0	-2787.0	-166402.0
24	17	9	13	587	175.0	-183384.0	-2774.0	-169526.0
24	17	9	13	588	176.0	-183529.0	-2794.0	-177254.0
24	17	9	13	589	177.0	-184150.0	-2776.0	-191426.0
24	17	9	13	589	178.0	-184889.0	-2751.0	-201079.0
24	17	9	13	590	179.0	-186132.0	-2752.0	-200297.0
24	17	9	13	591	180.0	-187801.0	-2731.0	-188950.0
24	17	9	13	591	181.0	-189356.0	-2703.0	-175927.0
24	17	9	13	592	182.0	-190844.0	-2668.0	-166749.0
24	17	9	13	592	183.0	-192289.0	-2654.0	-162449.0
24	17	9	13	593	184.0	-192900.0	-2660.0	-163613.0
24	17	9	13	594	185.0	-192851.0	-2624.0	-168594.0
24	17	9	13	594	186.0	-192847.0	-2564.0	-177789.0
24	17	9	13	595	189.0	-192336.0	-2451.0	-204746.0
24	17	9	13	596	190.0	-192386.0	-2408.0	-194524.0
24	17	9	13	596	191.0	-192876.0	-2338.0	-181542.0
24	17	9	13	597	192.0	-193032.0	-2267.0	-172824.0
24	17	9	13	597	193.0	-192826.0	-2217.0	-169351.0
24	17	9	13	598	194.0	-192586.0	-2146.0	-170256.0
24	17	9	13	630	195.0	-192257.0	-2077.0	-175259.0
24	17	9	13	641	196.0	-191737.0	-2009.0	-184188.0
24	17	9	13	642	197.0	-191099.0	-1950.0	-199651.0
24	17	9	13	643	198.0	-189422.0	-1883.0	-208861.0
24	17	9	13	643	199.0	-186943.0	-1799.0	-206722.0
24	17	9	13	644	200.0	-183920.0	-1746.0	-193668.0
24	17	9	13	675	201.0	-180664.0	-1676.0	-179350.0
24	17	9	13	676	202.0	-177537.0	-1607.0	-169168.0
24	17	9	13	677	203.0	-174444.0	-1553.0	-163499.0
24	17	9	13	678	204.0	-171014.0	-1477.0	-162981.0
24	17	9	13	678	205.0	-167891.0	-1415.0	-166579.0
24	17	9	13	679	206.0	-165173.0	-1342.0	-173209.0
24	17	9	13	679	207.0	-162280.0	-1256.0	-187584.0
24	17	9	13	680	208.0	-159297.0	-1178.0	-194928.0
24	17	9	13	681	209.0	-155939.0	-1119.0	-190799.0
24	17	9	13	681	211.0	-146951.0	-975.0	-162520.0
24	17	9	13	682	212.0	-142021.0	-917.0	-151654.0
24	17	9	13	721	213.0	-136727.0	-831.0	-146608.0
24	17	9	13	722	214.0	-131855.0	-747.0	-146981.0
24	17	9	13	723	215.0	-128274.0	-696.0	-149942.0
24	17	9	13	724	216.0	-126626.0	-622.0	-157054.0
24	17	9	13	725	233.0	-187336.0	178.0	-146952.0
24	17	9	13	726	234.0	-177866.0	208.0	-148234.0
24	17	9	13	726	235.0	-169047.0	258.0	-153089.0
24	17	9	13	727	236.0	-162375.0	301.0	-161542.0
24	17	9	13	727	237.0	-158316.0	323.0	-174282.0
24	17	9	13	728	238.0	-156496.0	349.0	-179578.0
24	17	9	13	729	239.0	-155334.0	379.0	-173394.0
24	17	9	13	729	240.0	-154216.0	396.0	-158454.0
24	17	9	13	730	241.0	-153124.0	411.0	-143807.0
24	17	9	13	731	242.0	-152226.0	426.0	-134301.0
24	17	9	13	731	243.0	-152036.0	446.0	-131703.0
24	17	9	13	732	244.0	-153341.0	443.0	-133748.0
24	17	9	13	732	0.0	-193174.0	465.0	-142996.0
24	17	9	13	733	1.0	-201332.0	469.0	-158176.0
24	17	9	13	734	2.0	-208824.0	491.0	-164679.0
24	17	9	13	734	3.0	-214651.0	495.0	-158015.0
24	17	9	13	735	4.0	-218537.0	500.0	-142959.0
24	17	9	13	735	5.0	-220862.0	477.0	-129371.0
24	17	9	13	736	6.0	-221709.0	448.0	-120229.0
24	17	9	13	767	7.0	-221006.0	469.0	-117078.0
24	17	9	13	767	8.0	-219733.0	463.0	-118717.0
24	17	9	13	768	9.0	-218154.0	430.0	-122296.0
24	17	9	13	769	10.0	-216302.0	406.0	-131538.0
24	17	9	13	769	11.0	-214131.0	395.0	-143764.0
24	17	9	13	770	12.0	-211292.0	385.0	-145416.0
24	17	9	13	771	13.0	-207702.0	360.0	-134466.0
24	17	9	13	771	14.0	-203852.0	332.0	-117128.0
24	17	9	13	772	15.0	-199942.0	309.0	-101774.0
24	17	9	13	773	16.0	-195523.0	295.0	-91284.0
24	17	9	13	773	17.0	-190829.0	263.0	-87421.0
24	17	9	13	774	18.0	-186515.0	243.0	-87585.0
24	17	9	13	775	19.0	-182487.0	218.0	-90974.0
24	17	9	13	775	20.0	-178378.0	184.0	-100449.0
24	17	9	13	776	21.0	-174667.0	164.0	-112840.0
24	17	9	13	777	22.0	-171499.0	171.0	-114790.0
24	17	9	13	777	23.0	-168834.0	143.0	-102895.0
24	17	9	13	778	24.0	-166935.0	122.0	-85027.0
24	17	9	13	778	25.0	-165433.0	103.0	-70960.0
24	17	9	13	779	26.0	-164534.0	96.0	-61843.0
24	17	9	13	780	27.0	-164210.0	91.0	-59301.0
24	17	9	13	780	28.0	-164069.0	105.0	-60709.0
24	17	9	13	811	29.0	-164177.0	72.0	-64307.0
24	17	9	13	812	30.0	-164437.0	57.0	-75177.0
24	17	9	13	813	31.0	-165090.0	33.0	-88779.0
24	17	9	13	813	32.0	-166139.0	14.0	-93641.0
24	17	9	13	814	33.0	-167900.0	-1.0	-87179.0
24	17	9	13	815	34.0	-170790.0	-5.0	-73760.0
24	17	9	13	815	35.0	-175076.0	-2.0	-62324.0
24	17	9	13	816	36.0	-180611.0	-48.0	-56739.0
24	17	9	13	817	37.0	-186801.0	-80.0	-58160.0
24	17	9	13	817	38.0	-193102.0	-76.0	-63979.0
24	17	9	13	818	39.0	-199603.0	-77.0	-72132.0
24	17	9	13	819	40.0	-206501.0	-92.0	-85016.0
24	17	9	13	819	41.0	-213383.0	-120.0	-99401.0
24	17	9	13	820	42.0	-220484.0	-134.0	-103073.0
24	17	9	13	820	43.0	-227824.0	-146.0	-95471.0
24	17	9	13	821	45.0	-241276.0	-173.0	-72526.0
24	17	9	13	822	46.0	-246939.0	-177.0	-69099.0
24	17	9	13	822	47.0	-251802.0	-194.0	-70297.0
24	17	9	13	823	48.0	-255814.0	-201.0	-75360.0
24	17	9	13	823	49.0	-259021.0	-201.0	-82796.0
24	17	9	13	824	50.0	-261261.0	-214.0	-96407.0
24	17	9	13	855	51.0	-262572.0	-204.0	-110779.0
24	17	9	13	856	52.0	-263277.0	-214.0	-114476.0
24	17	9	13	857	53.0	-263033.0	-221.0	-104717.0
24	17	9	13	857	54.0	-261834.0	-241.0	-90487.0
24	17	9	13	858	55.0	-260009.0	-257.0	-79389.0
24	17	9	13	859	56.0	-258144.0	-269.0	-73356.0
24	17	9	13	859	57.0	-255647.0	-289.0	-72844.0
24	17	9	13	860	58.0	-252794.0	-317.0	-76779.0
24	17	9	13	861	59.0	-249717.0	-313.0	-83248.0
24	17	9	13	861	60.0	-246459.0	-321.0	-95519.0
24	17	9	13	862	61.0	-242953.0	-337.0	-106012.0
24	17	9	13	863	62.0	-239196.0	-356.0	-105501.0
24	17	9	13	864	63.0	-234875.0	-382.0	-96165.0
24	17	9	13	865	64.0	-230026.0	-371.0	-83518.0
24	17	9	13	866	65.0	-224515.0	-379.0	-73493.0
24	17	9	13	867	67.0	-211869.0	-387.0	-68274.0
24	17	9	13	867	68.0	-204739.0	-410.0	-71396.0
24	17	9	13	868	69.0	-197412.0	-407.0	-74915.0
24	17	9	13	868	70.0	-189926.0	-416.0	-84716.0
24	17	9	13	869	71.0	-182610.0	-422.0	-93757.0
24	17	9	13	869	72.0	-176191.0	-407.0	-93212.0
24	17	9	13	870	73.0	-170676.0	-412.0	-81974.0
24	17	9	13	900	74.0	-166191.0	-422.0	-67721.0
24	17	9	13	901	75.0	-162668.0	-434.0	-57436.0
24	17	9	13	901	76.0	-159734.0	-456.0	-52007.0
24	17	9	13	902	77.0	-157876.0	-457.0	-51592.0
24	17	9	13	902	78.0	-156471.0	-469.0	-55317.0
24	17	9	13	903	79.0	-155560.0	-472.0	-60206.0
24	17	9	13	946	80.0	-155227.0	-494.0	-72362.0
24	17	9	13	946	81.0	-155192.0	-520.0	-83003.0
24	17	9	13	947	82.0	-155957.0	-539.0	-83347.0
24	17	9	13	948	83.0	-156681.0	-547.0	-72902.0
24	17	9	13	948	84.0	-157191.0	-549.0	-59729.0
24	17	9	13	949	85.0	-158149.0	-569.0	-52179.0
24	17	9	13	950	86.0	-159329.0	-588.0	-49435.0
24	17	9	13	950	87.0	-160216.0	-617.0	-49735.0
24	17	9	13	951	88.0	-161229.0	-636.0	-53617.0
24	17	9	13	952	90.0	-165260.0	-671.0	-73586.0
24	17	9	13	952	91.0	-168531.0	-679.0	-84636.0
24	17	9	13	953	92.0	-172860.0	-683.0	-85442.0
24	17	9	13	954	93.0	-178456.0	-673.0	-76092.0
24	17	9	13	954	94.0	-185632.0	-712.0	-64791.0
24	17	9	13	955	95.0	-194029.0	-739.0	-57786.0
24	17	9	13	956	96.0	-203442.0	-775.0	-55482.0
24	17	9	13	956	112.0	-247476.0	-1103.0	-94221.0
24	17	9	13	957	113.0	-241146.0	-1136.0	-84100.0
24	17	9	13	957	114.0	-234970.0	-1154.0	-72138.0
24	17	9	13	958	115.0	-229153.0	-1166.0	-63056.0
24	17	9	13	959	116.0	-223884.0	-1194.0	-58263.0
24	17	9	13	959	117.0	-219009.0	-1212.0	-58275.0
24	17	9	13	960	118.0	-213916.0	-1232.0	-61146.0
24	17	9	13	990	119.0	-208694.0	-1260.0	-68607.0
24	17	9	13	991	120.0	-203619.0	-1281.0	-80847.0
24	17	9	13	991	121.0	-198996.0	-1294.0	-88033.0
24	17	9	13	992	122.0	-194539.0	-1328.0	-84611.0
24	17	9	13	992	123.0	-190011.0	-1347.0	-72836.0
24	17	9	13	993	124.0	-185646.0	-1361.0	-60468.0
24	17	9	13	994	125.0	-181631.0	-1376.0	-51697.0
24	17	9	13	994	126.0	-178139.0	-1421.0	-47395.0
24	17	9	13	995	127.0	-175522.0	-1452.0	-46529.0
24	17	9	13	995	128.0	-174028.0	-1471.0	-49542.0
24	17	9	13	996	129.0	-173318.0	-1485.0	-55498.0
24	17	9	13	996	130.0	-173922.0	-1511.0	-65867.0
24	17	9	13	997	131.0	-175854.0	-1537.0	-72022.0
24	17	9	13	998	132.0	-178613.0	-1559.0	-69479.0
24	17	9	13	998	133.0	-181671.0	-1599.0	-58117.0
24	17	9	13	999	135.0	-187519.0	-1651.0	-40436.0
24	17	9	14	0	136.0	-190580.0	-1674.0	-39129.0
24	17	9	14	0	137.0	-193532.0	-1671.0	-41402.0
24	17	9	14	1	138.0	-196174.0	-1701.0	-45978.0
24	17	9	14	1	139.0	-198567.0	-1717.0	-55126.0
24	17	9	14	2	140.0	-200344.0	-1739.0	-68051.0
24	17	9	14	35	141.0	-201036.0	-1754.0	-72306.0
24	17	9	14	36	142.0	-201053.0	-1762.0	-67953.0
24	17	9	14	36	143.0	-200591.0	-1807.0	-55799.0
24	17	9	14	37	144.0	-199743.0	-1851.0	-44162.0
24	17	9	14	38	145.0	-198766.0	-1875.0	-37929.0
24	17	9	14	38	146.0	-197679.0	-1903.0	-37667.0
24	17	9	14	39	147.0	-196222.0	-1921.0	-40893.0
24	17	9	14	39	148.0	-194531.0	-1960.0	-48365.0
24	17	9	14	40	149.0	-192897.0	-2000.0	-59188.0
24	17	9	14	40	150.0	-191400.0	-2011.0	-74165.0
24	17	9	14	41	151.0	-190034.0	-2033.0	-83619.0
24	17	9	14	41	152.0	-188859.0	-2049.0	-83353.0
24	17	9	14	42	153.0	-187607.0	-2072.0	-73944.0
24	17	9	14	43	154.0	-186367.0	-2103.0	-61389.0
24	17	9	14	43	155.0	-185387.0	-2126.0	-51756.0
24	17	9	14	44	157.0	-184324.0	-2177.0	-39322.0
24	17	9	14	44	158.0	-184673.0	-2213.0	-37085.0
24	17	9	14	45	159.0	-186006.0	-2227.0	-37690.0
24	17	9	14	46	160.0	-188106.0	-2251.0	-41101.0
24	17	9	14	46	161.0	-191188.0	-2277.0	-39096.0
24	17	9	14	47	162.0	-194042.0	-2291.0	-26881.0
24	17	9	14	80	163.0	-197006.0	-2298.0	-7922.0
24	17	9	14	80	164.0	-200491.0	-2294.0	8896.0
24	17	9	14	81	165.0	-203819.0	-2317.0	19386.0
24	17	9	14	81	166.0	-206547.0	-2364.0	24574.0
24	17	9	14	82	167.0	-208447.0	-2399.0	21474.0
24	17	9	14	83	168.0	-209436.0	-2434.0	10973.0
24	17	9	14	83	169.0	-210184.0	-2467.0	-5298.0
24	17	9	14	84	170.0	-211177.0	-2482.0	-26869.0
24	17	9	14	85	171.0	-213006.0	-2502.0	-39827.0
24	17	9	14	85	172.0	-216258.0	-2514.0	-40226.0
24	17	9	14	86	173.0	-221971.0	-2542.0	-33804.0
24	17	9	14	86	174.0	-229136.0	-2571.0	-28282.0
24	17	9	14	87	175.0	-236662.0	-2601.0	-26710.0
24	17	9	14	87	176.0	-242879.0	-2613.0	-28478.0
24	17	9	14	88	177.0	-246118.0	-2638.0	-31628.0
24	17	9	14	88	179.0	-242339.0	-2684.0	-49746.0
24	17	9	14	89	180.0	-235811.0	-2719.0	-63483.0
24	17	9	14	90	181.0	-227707.0	-2734.0	-66682.0
24	17	9	14	90	182.0	-217829.0	-2736.0	-59639.0
24	17	9	14	91	183.0	-202916.0	-2751.0	-46782.0
24	17	9	14	91	184.0	-181111.0	-2744.0	-35597.0
24	17	9	14	92	185.0	-154960.0	-2754.0	-27519.0
24	17	9	14	126	186.0	-131324.0	-2788.0	-24574.0
24	17	9	14	127	187.0	-117652.0	-2802.0	-26896.0
24	17	9	14	127	188.0	-115024.0	-2802.0	-32330.0
24	17	9	14	128	189.0	-121636.0	-2829.0	-43218.0
24	17	9	14	128	190.0	-133222.0	-2841.0	-57283.0
24	17	9	14	129	191.0	-147309.0	-2858.0	-60527.0
24	17	9	14	129	192.0	-162002.0	-2886.0	-54001.0
24	17	9	14	130	193.0	-172644.0	-2877.0	-40754.0
24	17	9	14	171	194.0	-178814.0	-2900.0	-30060.0
24	17	9	14	172	195.0	-183074.0	-2920.0	-24919.0
24	17	9	14	172	196.0	-187954.0	-2949.0	-24677.0
24	17	9	14	173	197.0	-192788.0	-2946.0	-27612.0
24	17	9	14	174	198.0	-195112.0	-2987.0	-33089.0
24	17	9	14	174	199.0	-196957.0	-3016.0	-44374.0
24	17	9	14	175	200.0	-199615.0	-3031.0	-57844.0
24	17	9	14	175	202.0	-209091.0	-3063.0	-56429.0
24	17	9	14	176	203.0	-217013.0	-3069.0	-45152.0
24	17	9	14	177	204.0	-228526.0	-3076.0	-37137.0
24	17	9	14	177	205.0	-244515.0	-3075.0	-33425.0
24	17	9	14	216	206.0	-263079.0	-3078.0	-34894.0
24	17	9	14	216	207.0	-279808.0	-3104.0	-40380.0
24	17	9	14	217	208.0	-290377.0	-3143.0	-47386.0
24	17	9	14	217	209.0	-292661.0	-3166.0	-60168.0
24	17	9	14	218	224.0	-74706.0	-3457.0	-9396.0
24	17	9	14	219	225.0	-77907.0	-3494.0	-1007.0
24	17	9	14	219	226.0	-84240.0	-3504.0	1688.0
24	17	9	14	220	227.0	-92861.0	-3519.0	2533.0
24	17	9	14	220	228.0	-102454.0	-3534.0	506.0
24	17	9	14	221	229.0	-111987.0	-3533.0	-7526.0
24	17	9	14	222	230.0	-120526.0	-3552.0	-15616.0
24	17	9	14	222	231.0	-127875.0	-3570.0	-15712.0
24	17	9	14	223	232.0	-133724.0	-3594.0	-7831.0
24	17	9	14	223	233.0	-139099.0	-3604.0	2988.0
24	17	9	14	224	234.0	-144304.0	-3617.0	12333.0
24	17	9	14	224	247.0	-221259.0	-3884.0	9497.0
24	17	9	14	225	248.0	-221971.0	-3897.0	6486.0
24	17	9	14	225	249.0	-221713.0	-3899.0	-3522.0
24	17	9	14	226	250.0	-220906.0	-3899.0	-11847.0
24	17	9	14	227	251.0	-219922.0	-3906.0	-11207.0
24	17	9	14	227	252.0	-219322.0	-3904.0	-925.0
24	17	9	14	260	253.0	-218931.0	-3922.0	12761.0
24	17	9	14	261	254.0	-218473.0	-3914.0	21481.0
24	17	9	14	261	255.0	-218564.0	-3944.0	25815.0
24	17	9	14	262	0.0	-219007.0	-3957.0	24509.0
24	17	9	14	263	1.0	-219516.0	-3953.0	19528.0
24	17	9	14	263	2.0	-220330.0	-3940.0	13596.0
24	17	9	14	264	3.0	-221219.0	-3939.0	1471.0
24	17	9	14	264	4.0	-221940.0	-3950.0	-9556.0
24	17	9	14	265	5.0	-222121.0	-3934.0	-10001.0
24	17	9	14	265	6.0	-221556.0	-3915.0	110.0
24	17	9	14	266	7.0	-220659.0	-3913.0	10823.0
24	17	9	14	267	8.0	-219151.0	-3898.0	16747.0
24	17	9	14	267	9.0	-217001.0	-3876.0	19517.0
24	17	9	14	268	10.0	-214431.0	-3853.0	17901.0
24	17	9	14	268	11.0	-211243.0	-3832.0	12799.0
24	17	9	14	269	13.0	-204136.0	-3796.0	-8160.0
24	17	9	14	270	14.0	-200649.0	-3759.0	-17542.0
24	17	9	14	270	15.0	-197251.0	-3731.0	-16411.0
24	17	9	14	271	16.0	-194221.0	-3670.0	-4426.0
24	17	9	14	271	17.0	-191456.0	-3629.0	9063.0
24	17	9	14	272	18.0	-189644.0	-3584.0	17454.0
24	17	9	14	272	19.0	-188352.0	-3526.0	21634.0
24	17	9	14	305	20.0	-187794.0	-3478.0	21180.0
24	17	9	14	306	21.0	-188101.0	-3419.0	17490.0
24	17	9	14	306	22.0	-188589.0	-3364.0	12347.0
24	17	9	14	307	23.0	-189411.0	-3314.0	324.0
24	17	9	14	307	24.0	-190915.0	-3254.0	-8489.0
24	17	9	14	308	25.0	-192517.0	-3199.0	-7180.0
24	17	9	14	309	26.0	-193946.0	-3139.0	3537.0
24	17	9	14	309	27.0	-195326.0	-3077.0	14763.0
24	17	9	14	310	28.0	-196684.0	-3016.0	21192.0
24	17	9	14	310	29.0	-198326.0	-2942.0	22954.0
24	17	9	14	311	30.0	-199939.0	-2874.0	20817.0
24	17	9	14	312	31.0	-200828.0	-2812.0	17559.0
24	17	9	14	312	32.0	-201404.0	-2744.0	10391.0
24	17	9	14	313	33.0	-201329.0	-2646.0	-3692.0
24	17	9	14	313	34.0	-200386.0	-2564.0	-12928.0
24	17	9	14	314	36.0	-196502.0	-2416.0	-954.0
24	17	9	14	314	37.0	-194103.0	-2365.0	10083.0
24	17	9	14	315	38.0	-191171.0	-2259.0	18327.0
24	17	9	14	316	39.0	-187474.0	-2170.0	23124.0
24	17	9	14	316	40.0	-183205.0	-2063.0	23273.0
24	17	9	14	317	41.0	-178649.0	-1987.0	19139.0
24	17	9	14	396	42.0	-174348.0	-1929.0	12705.0
24	17	9	14	441	43.0	-170367.0	-1855.0	858.0
24	17	9	14	442	44.0	-166684.0	-1771.0	-6049.0
24	17	9	14	443	45.0	-164051.0	-1697.0	-1668.0
24	17	9	14	443	46.0	-162705.0	-1621.0	11386.0
24	17	9	14	444	47.0	-162649.0	-1549.0	22961.0
24	17	9	14	445	48.0	-164509.0	-1470.0	30121.0
24	17	9	14	445	49.0	-167562.0	-1408.0	32608.0
24	17	9	14	446	50.0	-170889.0	-1361.0	30989.0
24	17	9	14	446	51.0	-174762.0	-1301.0	25425.0
24	17	9	14	447	52.0	-181426.0	-1239.0	16359.0
24	17	9	14	448	53.0	-188320.0	-1195.0	2561.0
24	17	9	14	448	54.0	-197423.0	-1116.0	-5794.0
24	17	9	14	449	55.0	-214873.0	-1008.0	-4891.0
24	17	9	14	450	56.0	-232603.0	-985.0	5485.0
24	17	9	14	450	81.0	-161482.0	-415.0	15538.0
24	17	9	14	451	103.0	-237081.0	-520.0	-3598.0
24	17	9	14	451	104.0	-240967.0	-542.0	-7196.0
24	17	9	14	452	105.0	-243622.0	-525.0	-1766.0
24	17	9	14	452	106.0	-245462.0	-540.0	10016.0
24	17	9	14	453	107.0	-246621.0	-545.0	20311.0
24	17	9	14	453	108.0	-246459.0	-539.0	26648.0
24	17	9	14	485	109.0	-245562.0	-552.0	28328.0
24	17	9	14	486	110.0	-243979.0	-534.0	27416.0
24	17	9	14	487	111.0	-241706.0	-543.0	22701.0
24	17	9	14	487	112.0	-239391.0	-559.0	13381.0
24	17	9	14	488	113.0	-237097.0	-576.0	2957.0
24	17	9	14	488	114.0	-234538.0	-580.0	205.0
24	17	9	14	489	115.0	-232067.0	-565.0	7238.0
24	17	9	14	490	116.0	-229627.0	-595.0	19939.0
24	17	9	14	490	117.0	-227022.0	-607.0	30879.0
24	17	9	14	491	118.0	-224350.0	-608.0	36550.0
24	17	9	14	491	119.0	-221844.0	-613.0	34739.0
24	17	9	14	492	120.0	-219544.0	-636.0	29516.0
24	17	9	14	493	121.0	-217399.0	-637.0	22593.0
24	17	9	14	493	122.0	-215494.0	-656.0	12463.0
24	17	9	14	495	123.0	-213656.0	-656.0	1213.0
24	17	9	14	496	125.0	-210219.0	-677.0	6566.0
24	17	9	14	497	126.0	-208886.0	-701.0	18703.0
24	17	9	14	497	127.0	-207877.0	-692.0	26993.0
24	17	9	14	498	128.0	-207620.0	-674.0	30865.0
24	17	9	14	498	129.0	-207899.0	-695.0	30566.0
24	17	9	14	499	130.0	-208262.0	-696.0	26390.0
24	17	9	14	499	131.0	-208607.0	-699.0	21031.0
24	17	9	14	530	132.0	-209534.0	-683.0	11304.0
24	17	9	14	551	133.0	-210783.0	-669.0	373.0
24	17	9	14	552	134.0	-211931.0	-656.0	-2609.0
24	17	9	14	552	135.0	-213271.0	-656.0	5095.0
24	17	9	14	553	136.0	-214757.0	-671.0	16059.0
24	17	9	14	554	137.0	-216057.0	-689.0	23157.0
24	17	9	14	554	138.0	-217372.0	-688.0	27545.0
24	17	9	14	555	139.0	-219404.0	-696.0	26104.0
24	17	9	14	555	140.0	-221996.0	-704.0	21860.0
24	17	9	14	556	141.0	-224623.0	-715.0	16529.0
24	17	9	14	556	142.0	-227582.0	-712.0	7666.0
24	17	9	14	557	143.0	-230230.0	-713.0	-561.0
24	17	9	14	558	144.0	-232802.0	-718.0	-1529.0
24	17	9	14	558	145.0	-235486.0	-728.0	5470.0
24	17	9	14	559	146.0	-237867.0	-752.0	15689.0
24	17	9	14	559	148.0	-241170.0	-759.0	28278.0
24	17	9	14	560	149.0	-241813.0	-786.0	29956.0
24	17	9	14	560	150.0	-241551.0	-782.0	28587.0
24	17	9	14	561	151.0	-240316.0	-774.0	24763.0
24	17	9	14	561	152.0	-238411.0	-774.0	16544.0
24	17	9	14	562	153.0	-236148.0	-790.0	7762.0
24	17	9	14	575	154.0	-233047.0	-797.0	6117.0
24	17	9	14	575	155.0	-229289.0	-787.0	14008.0
24	17	9	14	576	156.0	-225399.0	-773.0	24893.0
24	17	9	14	577	157.0	-221491.0	-792.0	31972.0
24	17	9	14	578	158.0	-217239.0	-804.0	34967.0
24	17	9	14	578	159.0	-212956.0	-801.0	34246.0
24	17	9	14	579	160.0	-209074.0	-807.0	30693.0
24	17	9	14	580	161.0	-205522.0	-820.0	26079.0
24	17	9	14	580	162.0	-202436.0	-835.0	18308.0
24	17	9	14	581	163.0	-199560.0	-869.0	11016.0
24	17	9	14	582	164.0	-197341.0	-878.0	10883.0
24	17	9	14	582	165.0	-195196.0	-876.0	18151.0
24	17	9	14	583	166.0	-193346.0	-891.0	26897.0
24	17	9	14	584	167.0	-191791.0	-903.0	33165.0
24	17	9	14	584	168.0	-190564.0	-917.0	37555.0
24	17	9	14	585	170.0	-188732.0	-947.0	32914.0
24	17	9	14	585	171.0	-188224.0	-974.0	27087.0
24	17	9	14	586	172.0	-188261.0	-982.0	18681.0
24	17	9	14	587	173.0	-188509.0	-996.0	11698.0
24	17	9	14	587	174.0	-188925.0	-994.0	11816.0
24	17	9	14	588	175.0	-189934.0	-975.0	19508.0
24	17	9	14	588	176.0	-190866.0	-977.0	28284.0
24	17	9	14	626	177.0	-191758.0	-986.0	34369.0
24	17	9	14	627	178.0	-192592.0	-996.0	38059.0
24	17	9	14	627	179.0	-193619.0	-1022.0	37559.0
24	17	9	14	628	180.0	-194857.0	-1052.0	34336.0
24	17	9	14	629	181.0	-196077.0	-1079.0	32130.0
24	17	9	14	629	182.0	-197257.0	-1079.0	24479.0
24	17	9	14	665	183.0	-198015.0	-1097.0	17774.0
24	17	9	14	665	184.0	-198358.0	-1117.0	18186.0
24	17	9	14	666	185.0	-198324.0	-1126.0	25979.0
24	17	9	14	667	186.0	-198294.0	-1157.0	36195.0
24	17	9	14	667	187.0	-198823.0	-1204.0	44064.0
24	17	9	14	668	188.0	-199713.0	-1232.0	48864.0
24	17	9	14	669	189.0	-200659.0	-1244.0	48514.0
24	17	9	14	669	190.0	-201936.0	-1281.0	44605.0
24	17	9	14	670	191.0	-203396.0	-1296.0	38458.0
24	17	9	14	670	193.0	-205827.0	-1322.0	19346.0
24	17	9	14	671	194.0	-207091.0	-1352.0	20314.0
24	17	9	14	672	195.0	-208369.0	-1349.0	28196.0
24	17	9	14	672	196.0	-209623.0	-1384.0	37846.0
24	17	9	14	673	197.0	-210554.0	-1430.0	45501.0
24	17	9	14	673	198.0	-210929.0	-1447.0	49174.0
24	17	9	14	674	215.0	-199589.0	-1951.0	33296.0
24	17	9	14	675	216.0	-200207.0	-1976.0	40970.0
24	17	9	14	676	217.0	-201163.0	-1997.0	44011.0
24	17	9	14	677	218.0	-202314.0	-2014.0	44499.0
24	17	9	14	677	219.0	-203767.0	-2037.0	41828.0
24	17	9	14	678	220.0	-205503.0	-2074.0	36051.0
24	17	9	14	678	221.0	-207091.0	-2100.0	29712.0
24	17	9	14	712	222.0	-208539.0	-2109.0	20451.0
24	17	9	14	713	223.0	-209518.0	-2127.0	14818.0
24	17	9	14	714	224.0	-210393.0	-2144.0	17658.0
24	17	9	14	715	225.0	-211013.0	-2173.0	27856.0
24	17	9	14	715	226.0	-211074.0	-2202.0	39473.0
24	17	9	14	716	227.0	-211059.0	-2246.0	52477.0
24	17	9	14	717	228.0	-211086.0	-2286.0	61711.0
24	17	9	14	717	229.0	-211129.0	-2304.0	67103.0
24	17	9	14	718	230.0	-211352.0	-2332.0	70951.0
24	17	9	14	718	231.0	-211887.0	-2354.0	72624.0
24	17	9	14	719	232.0	-212636.0	-2387.0	70734.0
24	17	9	14	719	233.0	-213516.0	-2404.0	72301.0
24	17	9	14	720	234.0	-214536.0	-2437.0	80455.0
24	17	9	14	721	235.0	-215626.0	-2441.0	91851.0
24	17	9	14	721	236.0	-216703.0	-2449.0	102437.0
24	17	9	14	722	238.0	-217793.0	-2494.0	115133.0
24	17	9	14	722	239.0	-218367.0	-2523.0	116548.0
24	17	9	14	723	240.0	-218509.0	-2553.0	115344.0
24	17	9	14	724	241.0	-218846.0	-2540.0	110497.0
24	17	9	14	724	242.0	-219176.0	-2572.0	100745.0
24	17	9	14	725	243.0	-218787.0	-2572.0	94472.0
24	17	9	14	756	244.0	-218137.0	-2598.0	95930.0
24	17	9	14	757	245.0	-216857.0	-2589.0	103998.0
24	17	9	14	757	246.0	-215072.0	-2598.0	111773.0
24	17	9	14	758	247.0	-213422.0	-2634.0	116093.0
24	17	9	14	758	248.0	-211532.0	-2656.0	114953.0
24	17	9	14	761	249.0	-208899.0	-2677.0	109497.0
24	17	9	14	761	250.0	-206139.0	-2691.0	103936.0
24	17	9	14	762	251.0	-203292.0	-2709.0	99934.0
24	17	9	14	762	252.0	-200465.0	-2722.0	95426.0
24	17	9	14	763	253.0	-198096.0	-2746.0	98724.0
24	17	9	14	764	254.0	-195485.0	-2788.0	108591.0
24	17	9	14	764	255.0	-193030.0	-2796.0	124189.0
24	17	9	14	765	0.0	-191309.0	-2797.0	140229.0
24	17	9	14	765	1.0	-189896.0	-2824.0	153097.0
24	17	9	14	766	2.0	-189164.0	-2841.0	161399.0
24	17	9	14	767	4.0	-189099.0	-2897.0	171140.0
24	17	9	14	767	5.0	-190223.0	-2916.0	168711.0
24	17	9	14	768	6.0	-191372.0	-2937.0	161396.0
24	17	9	14	768	7.0	-192497.0	-2956.0	157873.0
24	17	9	14	769	8.0	-193804.0	-2946.0	158097.0
24	17	9	14	770	9.0	-194702.0	-2965.0	161749.0
24	17	9	14	800	10.0	-196308.0	-2990.0	161972.0
24	17	9	14	801	11.0	-199354.0	-3007.0	156358.0
24	17	9	14	802	12.0	-204316.0	-2992.0	147231.0
24	17	9	14	802	13.0	-211826.0	-3010.0	135616.0
24	17	9	14	803	14.0	-221251.0	-3057.0	120584.0
24	17	9	14	803	15.0	-231539.0	-3077.0	103988.0
24	17	9	14	804	16.0	-241059.0	-3095.0	87251.0
24	17	9	14	805	17.0	-247317.0	-3136.0	78367.0
24	17	9	14	805	18.0	-250712.0	-3122.0	76961.0
24	17	9	14	806	19.0	-250496.0	-3140.0	81823.0
24	17	9	14	806	20.0	-246112.0	-3161.0	87756.0
24	17	9	14	807	21.0	-239141.0	-3167.0	91623.0
24	17	9	14	808	22.0	-230675.0	-3207.0	91424.0
24	17	9	14	808	23.0	-219510.0	-3253.0	90071.0
24	17	9	14	809	24.0	-202083.0	-3269.0	87323.0
24	17	9	14	809	27.0	-127405.0	-3326.0	64924.0
24	17	9	14	810	28.0	-115374.0	-3336.0	69099.0
24	17	9	14	811	29.0	-115033.0	-3360.0	77468.0
24	17	9	14	811	30.0	-122908.0	-3353.0	84295.0
24	17	9	14	812	31.0	-134664.0	-3347.0	88111.0
24	17	9	14	812	32.0	-148993.0	-3362.0	87321.0
24	17	9	14	845	33.0	-162560.0	-3364.0	83186.0
24	17	9	14	846	34.0	-172402.0	-3369.0	77191.0
24	17	9	14	847	35.0	-177867.0	-3385.0	67180.0
24	17	9	14	847	36.0	-181927.0	-3408.0	56176.0
24	17	9	14	848	37.0	-187352.0	-3419.0	54246.0
24	17	9	14	849	38.0	-192693.0	-3437.0	61306.0
24	17	9	14	849	39.0	-197049.0	-3455.0	72803.0
24	17	9	14	850	40.0	-202272.0	-3491.0	80329.0
24	17	9	14	851	41.0	-209155.0	-3506.0	81166.0
24	17	9	14	851	42.0	-217939.0	-3524.0	77797.0
24	17	9	14	852	43.0	-228401.0	-3532.0	71983.0
24	17	9	14	853	44.0	-241309.0	-3559.0	64931.0
24	17	9	14	891	45.0	-257384.0	-3574.0	54116.0
24	17	9	14	915	46.0	-276868.0	-3576.0	41076.0
24	17	9	14	916	47.0	-298075.0	-3593.0	36886.0
24	17	9	14	916	49.0	-327167.0	-3629.0	45786.0
24	17	9	14	917	50.0	-329602.0	-3644.0	50975.0
24	17	9	14	917	51.0	-323041.0	-3634.0	52409.0
24	17	9	14	939	52.0	-309141.0	-3662.0	51317.0
24	17	9	14	940	53.0	-290626.0	-3675.0	48159.0
24	17	9	14	941	54.0	-268826.0	-3684.0	42680.0
24	17	9	14	941	55.0	-246116.0	-3700.0	32742.0
24	17	9	14	942	56.0	-224177.0	-3732.0	22846.0
24	17	9	14	943	57.0	-203366.0	-3737.0	21988.0
24	17	9	14	943	58.0	-184049.0	-3755.0	30174.0
24	17	9	14	944	59.0	-166636.0	-3789.0	43359.0
24	17	9	14	945	60.0	-150709.0	-3802.0	55786.0
24	17	9	14	945	71.0	-105411.0	-3993.0	86870.0
24	17	9	14	946	72.0	-107556.0	-3991.0	83819.0
24	17	9	14	946	73.0	-110187.0	-3981.0	78159.0
24	17	9	14	947	74.0	-113991.0	-3975.0	72311.0
24	17	9	14	948	75.0	-119390.0	-3992.0	61963.0
24	17	9	14	948	76.0	-126196.0	-4017.0	54326.0
24	17	9	14	949	94.0	-225379.0	-4277.0	53224.0
24	17	9	14	949	95.0	-223808.0	-4288.0	42479.0
24	17	9	14	950	96.0	-222431.0	-4290.0	34479.0
24	17	9	14	950	97.0	-221241.0	-4295.0	33269.0
24	17	9	14	951	98.0	-220482.0	-4283.0	39004.0
24	17	9	14	952	99.0	-219644.0	-4270.0	46473.0
24	17	9	14	980	100.0	-218761.0	-4245.0	52986.0
24	17	9	14	998	101.0	-218160.0	-4239.0	54689.0
24	17	9	14	998	102.0	-217442.0	-4244.0	52840.0
24	17	9	14	999	103.0	-216737.0	-4259.0	49981.0
24	17	9	15	0	104.0	-216060.0	-4245.0	45006.0
24	17	9	15	0	105.0	-214787.0	-4230.0	34119.0
24	17	9	15	1	106.0	-213457.0	-4217.0	25991.0
24	17	9	15	1	107.0	-212363.0	-4189.0	27972.0
24	17	9	15	2	108.0	-211263.0	-4165.0	36263.0
24	17	9	15	3	109.0	-209797.0	-4131.0	45364.0
24	17	9	15	3	110.0	-208059.0	-4096.0	53199.0
24	17	9	15	4	111.0	-205987.0	-4075.0	56413.0
24	17	9	15	4	112.0	-203626.0	-4031.0	54122.0
24	17	9	15	5	113.0	-201401.0	-3985.0	49839.0
24	17	9	15	5	114.0	-199669.0	-3932.0	45589.0
24	17	9	15	6	116.0	-195746.0	-3833.0	29261.0
24	17	9	15	6	117.0	-194511.0	-3805.0	31011.0
24	17	9	15	7	118.0	-193527.0	-3744.0	40370.0
24	17	9	15	8	119.0	-193051.0	-3657.0	48944.0
24	17	9	15	8	120.0	-193302.0	-3573.0	54198.0
24	17	9	15	9	121.0	-193754.0	-3515.0	56366.0
24	17	9	15	9	122.0	-194546.0	-3426.0	55260.0
24	17	9	15	25	123.0	-195772.0	-3347.0	52337.0
24	17	9	15	26	124.0	-196962.0	-3273.0	47971.0
24	17	9	15	26	125.0	-198083.0	-3196.0	40055.0
24	17	9	15	27	126.0	-198916.0	-3118.0	35971.0
24	17	9	15	28	127.0	-199152.0	-3042.0	39144.0
24	17	9	15	28	128.0	-198187.0	-2973.0	49591.0
24	17	9	15	29	129.0	-196054.0	-2916.0	59982.0
24	17	9	15	30	130.0	-193192.0	-2818.0	65377.0
24	17	9	15	30	131.0	-189107.0	-2742.0	67124.0
24	17	9	15	31	132.0	-184154.0	-2672.0	66311.0
24	17	9	15	32	133.0	-178854.0	-2603.0	63001.0
24	17	9	15	32	134.0	-173391.0	-2521.0	57346.0
24	17	9	15	33	135.0	-167794.0	-2437.0	47810.0
24	17	9	15	34	136.0	-162530.0	-2346.0	43580.0
24	17	9	15	34	137.0	-157666.0	-2271.0	47761.0
24	17	9	15	35	139.0	-147966.0	-2130.0	68031.0
24	17	9	15	36	140.0	-143417.0	-2054.0	75617.0
24	17	9	15	36	141.0	-138856.0	-1952.0	78699.0
24	17	9	15	37	142.0	-134939.0	-1886.0	78187.0
24	17	9	15	38	143.0	-132452.0	-1802.0	77038.0
24	17	9	15	38	144.0	-131246.0	-1708.0	72379.0
24	17	9	15	206	145.0	-131824.0	-1632.0	62929.0
24	17	9	15	207	146.0	-135118.0	-1560.0	58978.0
24	17	9	15	207	147.0	-139521.0	-1477.0	63034.0
24	17	9	15	208	148.0	-143681.0	-1426.0	71799.0
24	17	9	15	209	149.0	-149955.0	-1378.0	79749.0
24	17	9	15	251	150.0	-158747.0	-1309.0	83661.0
24	17	9	15	252	151.0	-166320.0	-1256.0	82809.0
24	17	9	15	253	152.0	-176586.0	-1193.0	77367.0
24	17	9	15	253	153.0	-194345.0	-1149.0	70179.0
24	17	9	15	254	154.0	-210071.0	-1089.0	60993.0
24	17	9	15	255	155.0	-219371.0	-1047.0	49728.0
24	17	9	15	256	156.0	-224649.0	-1003.0	44588.0
24	17	9	15	256	157.0	-225068.0	-951.0	46688.0
24	17	9	15	257	158.0	-222963.0	-872.0	54875.0
24	17	9	15	258	159.0	-218379.0	-830.0	62377.0
24	17	9	15	258	229.0	-286337.0	-994.0	51808.0
24	17	9	15	259	230.0	-285652.0	-1005.0	54514.0
24	17	9	15	259	231.0	-284721.0	-1006.0	52877.0
24	17	9	15	260	232.0	-283027.0	-1014.0	48874.0
24	17	9	15	261	233.0	-279917.0	-1024.0	43308.0
24	17	9	15	262	234.0	-275714.0	-1026.0	35628.0
24	17	9	15	262	251.0	-199394.0	-1166.0	80363.0
24	17	9	15	263	252.0	-196452.0	-1160.0	77716.0
24	17	9	15	264	253.0	-194345.0	-1161.0	73363.0
24	17	9	15	264	254.0	-192908.0	-1176.0	63858.0
24	17	9	15	265	255.0	-191727.0	-1168.0	56923.0
24	17	9	15	266	0.0	-191006.0	-1164.0	57322.0
24	17	9	15	266	1.0	-191338.0	-1147.0	63373.0
24	17	9	15	295	2.0	-191771.0	-1155.0	70278.0
24	17	9	15	296	3.0	-193074.0	-1149.0	76011.0
24	17	9	15	296	4.0	-194751.0	-1169.0	77386.0
24	17	9	15	297	5.0	-196583.0	-1177.0	75220.0
24	17	9	15	298	6.0	-198559.0	-1164.0	71509.0
24	17	9	15	298	7.0	-200149.0	-1176.0	67057.0
24	17	9	15	340	8.0	-201083.0	-1188.0	58505.0
24	17	9	15	385	9.0	-202454.0	-1192.0	51574.0
24	17	9	15	386	10.0	-204555.0	-1190.0	51623.0
24	17	9	15	387	11.0	-206179.0	-1192.0	57085.0
24	17	9	15	387	12.0	-208341.0	-1196.0	64878.0
24	17	9	15	388	13.0	-210824.0	-1201.0	70833.0
24	17	9	15	388	14.0	-213399.0	-1199.0	72551.0
24	17	9	15	389	15.0	-216336.0	-1207.0	69713.0
24	17	9	15	389	16.0	-219482.0	-1231.0	64103.0
24	17	9	15	390	17.0	-222559.0	-1228.0	54870.0
24	17	9	15	390	18.0	-226634.0	-1231.0	41905.0
24	17	9	15	391	19.0	-229891.0	-1246.0	33838.0
24	17	9	15	392	20.0	-232811.0	-1241.0	33253.0
24	17	9	15	392	21.0	-235844.0	-1221.0	40365.0
24	17	9	15	393	22.0	-238664.0	-1239.0	48166.0
24	17	9	15	393	23.0	-240830.0	-1261.0	52958.0
24	17	9	15	394	62.0	-204980.0	-2221.0	45731.0
24	17	9	15	394	63.0	-204038.0	-2267.0	50309.0
24	17	9	15	395	64.0	-202758.0	-2294.0	50908.0
24	17	9	15	396	65.0	-201177.0	-2310.0	49046.0
24	17	9	15	396	66.0	-200031.0	-2321.0	44750.0
24	17	9	15	397	67.0	-199172.0	-2327.0	38879.0
24	17	9	15	397	68.0	-198223.0	-2356.0	29049.0
24	17	9	15	430	69.0	-197851.0	-2391.0	25435.0
24	17	9	15	430	70.0	-197857.0	-2397.0	30298.0
24	17	9	15	431	71.0	-197872.0	-2429.0	40712.0
24	17	9	15	431	72.0	-198747.0	-2476.0	51799.0
24	17	9	15	432	73.0	-199952.0	-2492.0	58039.0
24	17	9	15	433	74.0	-201059.0	-2546.0	57788.0
24	17	9	15	433	75.0	-201842.0	-2574.0	55274.0
24	17	9	15	434	76.0	-202919.0	-2579.0	50949.0
24	17	9	15	434	77.0	-203909.0	-2617.0	44268.0
24	17	9	15	435	78.0	-205117.0	-2653.0	34317.0
24	17	9	15	436	79.0	-206742.0	-2667.0	29364.0
24	17	9	15	437	80.0	-208288.0	-2713.0	30741.0
24	17	9	15	437	81.0	-209794.0	-2745.0	39121.0
24	17	9	15	438	82.0	-211299.0	-2781.0	47359.0
24	17	9	15	438	83.0	-212661.0	-2817.0	52674.0
24	17	9	15	439	85.0	-216070.0	-2849.0	52485.0
24	17	9	15	440	86.0	-218292.0	-2879.0	47770.0
24	17	9	15	440	87.0	-220633.0	-2897.0	41457.0
24	17	9	15	441	88.0	-222811.0	-2895.0	31314.0
24	17	9	15	441	89.0	-225142.0	-2929.0	26071.0
24	17	9	15	442	90.0	-227453.0	-2941.0	29438.0
24	17	9	15	475	91.0	-229155.0	-2959.0	38084.0
24	17	9	15	475	92.0	-230336.0	-2964.0	45076.0
24	17	9	15	476	93.0	-230839.0	-2986.0	47228.0
24	17	9	15	477	94.0	-231257.0	-3017.0	45339.0
24	17	9	15	477	95.0	-231584.0	-3040.0	40052.0
24	17	9	15	478	96.0	-231418.0	-3057.0	31631.0
24	17	9	15	478	97.0	-231417.0	-3093.0	21362.0
24	17	9	15	479	98.0	-231558.0	-3112.0	9593.0
24	17	9	15	479	99.0	-231619.0	-3128.0	5033.0
24	17	9	15	480	100.0	-231689.0	-3154.0	11281.0
24	17	9	15	481	101.0	-231473.0	-3183.0	23399.0
24	17	9	15	482	102.0	-231311.0	-3226.0	35333.0
24	17	9	15	483	103.0	-231687.0	-3247.0	45515.0
24	17	9	15	484	104.0	-232401.0	-3249.0	49904.0
24	17	9	15	484	105.0	-233860.0	-3276.0	50998.0
24	17	9	15	485	107.0	-238694.0	-3338.0	52671.0
24	17	9	15	485	108.0	-241704.0	-3357.0	49601.0
24	17	9	15	486	109.0	-244648.0	-3391.0	51996.0
24	17	9	15	487	110.0	-246683.0	-3414.0	61241.0
24	17	9	15	487	111.0	-247556.0	-3409.0	73196.0
24	17	9	15	488	112.0	-247592.0	-3430.0	81047.0
24	17	9	15	488	113.0	-247218.0	-3448.0	82196.0
24	17	9	15	521	114.0	-246164.0	-3456.0	77031.0
24	17	9	15	522	115.0	-244903.0	-3469.0	67605.0
24	17	9	15	522	116.0	-243767.0	-3505.0	54828.0
24	17	9	15	523	117.0	-243869.0	-3531.0	38010.0
24	17	9	15	523	118.0	-245402.0	-3560.0	21574.0
24	17	9	15	524	119.0	-248414.0	-3577.0	11505.0
24	17	9	15	525	120.0	-251522.0	-3591.0	10376.0
24	17	9	15	525	121.0	-254133.0	-3603.0	15743.0
24	17	9	15	526	122.0	-254946.0	-3632.0	20366.0
24	17	9	15	526	123.0	-252384.0	-3671.0	20063.0
24	17	9	15	527	124.0	-246096.0	-3690.0	16829.0
24	17	9	15	528	125.0	-237397.0	-3714.0	12345.0
24	17	9	15	528	126.0	-226038.0	-3748.0	6931.0
24	17	9	15	529	127.0	-213568.0	-3764.0	-877.0
24	17	9	15	529	128.0	-199657.0	-3779.0	-8197.0
24	17	9	15	530	130.0	-153914.0	-3824.0	1456.0
24	17	9	15	530	131.0	-125211.0	-3856.0	12799.0
24	17	9	15	531	132.0	-102217.0	-3841.0	21482.0
24	17	9	15	532	133.0	-90922.0	-3858.0	26103.0
24	17	9	15	532	134.0	-91304.0	-3858.0	25869.0
24	17	9	15	533	135.0	-100539.0	-3868.0	22973.0
24	17	9	15	612	136.0	-115571.0	-3889.0	16539.0
24	17	9	15	656	137.0	-133302.0	-3929.0	7041.0
24	17	9	15	657	138.0	-151667.0	-3957.0	-2175.0
24	17	9	15	658	139.0	-167244.0	-3995.0	-2864.0
24	17	9	15	658	140.0	-177734.0	-4007.0	4683.0
24	17	9	15	659	141.0	-185941.0	-3982.0	14345.0
24	17	9	15	660	142.0	-194117.0	-4012.0	19824.0
24	17	9	15	660	143.0	-201727.0	-4052.0	21858.0
24	17	9	15	661	144.0	-207167.0	-4056.0	19549.0
24	17	9	15	661	145.0	-213029.0	-4066.0	16119.0
24	17	9	15	662	146.0	-221101.0	-4079.0	11336.0
24	17	9	15	663	147.0	-230845.0	-4098.0	2126.0
24	17	9	15	663	148.0	-242252.0	-4115.0	-6211.0
24	17	9	15	664	149.0	-255580.0	-4127.0	-9269.0
24	17	9	15	664	150.0	-271703.0	-4136.0	-5317.0
24	17	9	15	665	152.0	-311521.0	-4194.0	9851.0
24	17	9	15	665	197.0	-258419.0	-4871.0	-60202.0
24	17	9	15	666	198.0	-253725.0	-4887.0	-67731.0
24	17	9	15	667	199.0	-249554.0	-4875.0	-68927.0
24	17	9	15	667	200.0	-245716.0	-4872.0	-63718.0
24	17	9	15	668	201.0	-241911.0	-4878.0	-55337.0
24	17	9	15	668	202.0	-240200.0	-4869.0	-49670.0
24	17	9	15	701	203.0	-239559.0	-4864.0	-49282.0
24	17	9	15	701	204.0	-239662.0	-4865.0	-50906.0
24	17	9	15	702	205.0	-240481.0	-4864.0	-54149.0
24	17	9	15	703	206.0	-241767.0	-4877.0	-60747.0
24	17	9	15	704	207.0	-243139.0	-4870.0	-71290.0
24	17	9	15	704	208.0	-242889.0	-4863.0	-78889.0
24	17	9	15	705	209.0	-240684.0	-4848.0	-79669.0
24	17	9	15	706	210.0	-238372.0	-4825.0	-73754.0
24	17	9	15	706	211.0	-236571.0	-4817.0	-67549.0
24	17	9	15	707	212.0	-234797.0	-4793.0	-64514.0
24	17	9	15	707	213.0	-232841.0	-4770.0	-64409.0
24	17	9	15	708	214.0	-230696.0	-4748.0	-67033.0
24	17	9	15	709	215.0	-227392.0	-4717.0	-71091.0
24	17	9	15	710	216.0	-222576.0	-4695.0	-77117.0
24	17	9	15	710	217.0	-218090.0	-4672.0	-87935.0
24	17	9	15	711	219.0	-207787.0	-4592.0	-93085.0
24	17	9	15	712	220.0	-203172.0	-4526.0	-85922.0
24	17	9	15	713	221.0	-199105.0	-4464.0	-78214.0
24	17	9	15	713	222.0	-194562.0	-4412.0	-71896.0
24	17	9	15	714	223.0	-190390.0	-4359.0	-69417.0
24	17	9	15	714	224.0	-187624.0	-4312.0	-70274.0
24	17	9	15	715	225.0	-185495.0	-4251.0	-72672.0
24	17	9	15	747	226.0	-184232.0	-4155.0	-77581.0
24	17	9	15	747	227.0	-182971.0	-4072.0	-85477.0
24	17	9	15	748	228.0	-181598.0	-3998.0	-88714.0
24	17	9	15	749	229.0	-180536.0	-3922.0	-83071.0
24	17	9	15	749	230.0	-179424.0	-3844.0	-72154.0
24	17	9	15	750	231.0	-177576.0	-3791.0	-59789.0
24	17	9	15	751	232.0	-175046.0	-3732.0	-49012.0
24	17	9	15	751	233.0	-172984.0	-3644.0	-45015.0
24	17	9	15	752	234.0	-170980.0	-3557.0	-45030.0
24	17	9	15	752	235.0	-168146.0	-3487.0	-45169.0
24	17	9	15	753	236.0	-164977.0	-3394.0	-46769.0
24	17	9	15	754	237.0	-162087.0	-3315.0	-51429.0
24	17	9	15	754	238.0	-159057.0	-3236.0	-50972.0
24	17	9	15	755	239.0	-155872.0	-3179.0	-42913.0
24	17	9	15	755	240.0	-156067.0	-3109.0	-29412.0
24	17	9	15	756	242.0	-155703.0	-2962.0	-6497.0
24	17	9	15	756	243.0	-155378.0	-2897.0	-2251.0
24	17	9	15	757	244.0	-155271.0	-2828.0	-264.0
24	17	9	15	758	245.0	-154902.0	-2726.0	-311.0
24	17	9	15	758	246.0	-155067.0	-2665.0	-3262.0
24	17	9	15	759	247.0	-155264.0	-2591.0	-10298.0
24	17	9	15	836	248.0	-154847.0	-2513.0	-12121.0
24	17	9	15	837	249.0	-154464.0	-2477.0	-6624.0
24	17	9	15	838	250.0	-154700.0	-2416.0	3142.0
24	17	9	15	838	251.0	-155869.0	-2367.0	12707.0
24	17	9	15	839	252.0	-158247.0	-2321.0	19933.0
24	17	9	15	839	253.0	-161534.0	-2260.0	21664.0
24	17	9	15	840	254.0	-165998.0	-2216.0	17478.0
24	17	9	15	841	255.0	-170726.0	-2160.0	9764.0
24	17	9	15	841	0.0	-176253.0	-2119.0	-1064.0
24	17	9	15	842	1.0	-183027.0	-2077.0	-14397.0
24	17	9	15	843	2.0	-192769.0	-2016.0	-20988.0
24	17	9	15	843	3.0	-211252.0	-1972.0	-19665.0
24	17	9	15	844	4.0	-230633.0	-1937.0	-13773.0
24	17	9	15	844	5.0	-243392.0	-1907.0	-9560.0
24	17	9	15	845	6.0	-251654.0	-1887.0	-8338.0
24	17	9	15	846	8.0	-255221.0	-1840.0	-17247.0
24	17	9	15	846	31.0	-192538.0	-1439.0	-69678.0
24	17	9	15	847	32.0	-192544.0	-1431.0	-75596.0
24	17	9	15	847	33.0	-197793.0	-1420.0	-75006.0
24	17	9	15	848	34.0	-204322.0	-1422.0	-71214.0
24	17	9	15	848	35.0	-212182.0	-1422.0	-70097.0
24	17	9	15	849	36.0	-219106.0	-1408.0	-73150.0
24	17	9	15	881	37.0	-227054.0	-1412.0	-78639.0
24	17	9	15	882	38.0	-236516.0	-1407.0	-86748.0
24	17	9	15	883	39.0	-246072.0	-1407.0	-98210.0
24	17	9	15	884	40.0	-254301.0	-1418.0	-115128.0
24	17	9	15	885	41.0	-261716.0	-1412.0	-134055.0
24	17	9	15	885	42.0	-269523.0	-1434.0	-146126.0
24	17	9	15	886	43.0	-277468.0	-1454.0	-151027.0
24	17	9	15	886	44.0	-285096.0	-1471.0	-155322.0
24	17	9	15	887	45.0	-292300.0	-1468.0	-166159.0
24	17	9	15	888	46.0	-301694.0	-1484.0	-184000.0
24	17	9	15	888	47.0	-310061.0	-1500.0	-206685.0
24	17	9	15	889	48.0	-317568.0	-1522.0	-230918.0
24	17	9	15	890	49.0	-330252.0	-1530.0	-259325.0
24	17	9	15	890	50.0	-343031.0	-1534.0	-293532.0
24	17	9	15	891	51.0	-354560.0	-1574.0	-327926.0
24	17	9	15	891	53.0	-369869.0	-1606.0	-394514.0
24	17	9	15	892	54.0	-372164.0	-1627.0	-427466.0
24	17	9	15	893	55.0	-372396.0	-1639.0	-473401.0
24	17	9	15	893	56.0	-371270.0	-1648.0	-525219.0
24	17	9	15	894	57.0	-368722.0	-1664.0	-576032.0
24	17	9	15	894	58.0	-367339.0	-1686.0	-629534.0
24	17	9	15	895	59.0	-370717.0	-1694.0	-695802.0
24	17	9	15	926	60.0	-370287.0	-1709.0	-778664.0
24	17	9	15	927	61.0	-369138.0	-1725.0	-846515.0
24	17	9	15	927	62.0	-368829.0	-1769.0	-905414.0
24	17	9	15	928	63.0	-368761.0	-1792.0	-958747.0
24	17	9	15	929	64.0	-366090.0	-1821.0	-1006688.0
24	17	9	15	930	65.0	-364734.0	-1865.0	-1048406.0
24	17	9	15	931	66.0	-365299.0	-1890.0	-1088894.0
24	17	9	15	931	67.0	-368536.0	-1913.0	-1132756.0
24	17	9	15	932	68.0	-372915.0	-1926.0	-1179508.0
24	17	9	15	933	69.0	-380175.0	-1971.0	-1227321.0
24	17	9	15	933	70.0	-389922.0	-2009.0	-1278126.0
24	17	9	15	934	71.0	-400942.0	-2032.0	-1330142.0
24	17	9	15	935	72.0	-415066.0	-2076.0	-1374159.0
24	17	9	15	935	73.0	-430406.0	-2098.0	-1415516.0
24	17	9	15	936	74.0	-448981.0	-2121.0	-1455444.0
24	17	9	15	936	76.0	-491013.0	-2159.0	-1539382.0
24	17	9	15	937	77.0	-511630.0	-2191.0	-1592506.0
24	17	9	15	938	78.0	-533551.0	-2268.0	-1748484.0
24	17	9	15	938	79.0	-557859.0	-2257.0	-1948161.0
24	17	9	15	939	80.0	-584352.0	-2236.0	-2049663.0
24	17	9	15	939	81.0	-610954.0	-2249.0	-2117467.0
24	17	9	15	970	82.0	-638485.0	-2263.0	-2175756.0
24	17	9	15	971	83.0	-664947.0	-2271.0	-2224367.0
24	17	9	15	972	84.0	-682616.0	-2321.0	-2266711.0
24	17	9	15	972	85.0	-686562.0	-2335.0	-2311277.0
24	17	9	15	973	86.0	-685387.0	-2348.0	-2361098.0
24	17	9	15	974	87.0	-677795.0	-2391.0	-2406169.0
24	17	9	15	974	88.0	-663616.0	-2421.0	-2443141.0
24	17	9	15	975	89.0	-646089.0	-2455.0	-2477206.0
24	17	9	15	976	90.0	-626834.0	-2494.0	-2509364.0
24	17	9	15	976	91.0	-605708.0	-2509.0	-2540572.0
24	17	9	15	977	92.0	-582692.0	-2549.0	-2562071.0
24	17	9	15	978	93.0	-556916.0	-2631.0	-2569178.0
24	17	9	15	979	94.0	-527575.0	-2623.0	-2571582.0
24	17	9	15	979	95.0	-486212.0	-2650.0	-2571583.0
24	17	9	15	980	96.0	-476772.0	-2592.0	-2570761.0
24	17	9	15	981	98.0	-428039.0	-2547.0	-2552184.0
24	17	9	15	982	99.0	-402352.0	-2665.0	-2533500.0
24	17	9	15	982	100.0	-373394.0	-2754.0	-2514399.0
24	17	9	15	983	101.0	-346845.0	-2754.0	-2489209.0
24	17	9	15	983	102.0	-321607.0	-2715.0	-2461106.0
24	17	9	15	984	103.0	-299392.0	-2759.0	-2439032.0
24	17	9	15	984	104.0	-279300.0	-2730.0	-2423964.0
24	17	9	16	16	105.0	-260900.0	-2746.0	-2410671.0
24	17	9	16	61	106.0	-243761.0	-2751.0	-2399014.0
24	17	9	16	62	107.0	-227696.0	-2786.0	-2386936.0
24	17	9	16	63	108.0	-213381.0	-2819.0	-2376407.0
24	17	9	16	64	109.0	-200886.0	-2848.0	-2367433.0
24	17	9	16	65	110.0	-189823.0	-2862.0	-2356572.0
24	17	9	16	65	111.0	-180922.0	-2894.0	-2340286.0
24	17	9	16	66	112.0	-173581.0	-2908.0	-2318808.0
24	17	9	16	67	113.0	-167475.0	-2916.0	-2294333.0
24	17	9	16	67	114.0	-162867.0	-2957.0	-2269474.0
24	17	9	16	68	115.0	-158764.0	-2993.0	-2244922.0
24	17	9	16	68	116.0	-155341.0	-3023.0	-2220131.0
24	17	9	16	69	117.0	-152310.0	-3046.0	-2194886.0
24	17	9	16	70	118.0	-149144.0	-3092.0	-2172118.0
24	17	9	16	70	119.0	-145987.0	-3118.0	-2150908.0
24	17	9	16	71	121.0	-138096.0	-3182.0	-2106981.0
24	17	9	16	71	122.0	-133803.0	-3214.0	-2083691.0
24	17	9	16	72	143.0	-80086.0	-4000.0	-1798927.0
24	17	9	16	72	144.0	-78301.0	-4044.0	-1781496.0
24	17	9	16	73	145.0	-78645.0	-4091.0	-1764002.0
24	17	9	16	74	146.0	-82016.0	-4107.0	-1748410.0
24	17	9	16	106	147.0	-86406.0	-4136.0	-1733621.0
24	17	9	16	152	148.0	-91486.0	-4181.0	-1719188.0
24	17	9	16	152	149.0	-97549.0	-4217.0	-1706672.0
24	17	9	16	154	150.0	-105435.0	-4244.0	-1693967.0
24	17	9	16	155	151.0	-115674.0	-4281.0	-1680862.0
24	17	9	16	156	152.0	-126122.0	-4310.0	-1668285.0
24	17	9	16	157	153.0	-133759.0	-4352.0	-1655737.0
24	17	9	16	157	154.0	-144900.0	-4414.0	-1643881.0
24	17	9	16	158	155.0	-154031.0	-4457.0	-1634121.0
24	17	9	16	158	156.0	-163447.0	-4489.0	-1625704.0
24	17	9	16	159	157.0	-171539.0	-4539.0	-1617344.0
24	17	9	16	160	158.0	-178739.0	-4589.0	-1609197.0
24	17	9	16	160	159.0	-183505.0	-4621.0	-1602683.0
24	17	9	16	161	160.0	-187441.0	-4668.0	-1596816.0
24	17	9	16	161	161.0	-190509.0	-4701.0	-1589752.0
24	17	9	16	162	165.0	-177930.0	-4865.0	-1562887.0
24	17	9	16	163	188.0	-183724.0	-5566.0	-1257449.0
24	17	9	16	163	189.0	-183673.0	-5587.0	-1240621.0
24	17	9	16	164	190.0	-182504.0	-5582.0	-1226776.0
24	17	9	16	164	191.0	-180047.0	-5580.0	-1215018.0
24	17	9	16	165	192.0	-176004.0	-5605.0	-1204799.0
24	17	9	16	165	193.0	-170515.0	-5597.0	-1195861.0
24	17	9	16	196	194.0	-164870.0	-5582.0	-1188942.0
24	17	9	16	197	195.0	-159326.0	-5561.0	-1182680.0
24	17	9	16	197	196.0	-153566.0	-5562.0	-1176574.0
24	17	9	16	198	197.0	-147067.0	-5590.0	-1171021.0
24	17	9	16	198	198.0	-140239.0	-5609.0	-1166168.0
24	17	9	16	199	199.0	-133332.0	-5586.0	-1161147.0
24	17	9	16	200	200.0	-126079.0	-5585.0	-1155276.0
24	17	9	16	200	201.0	-118367.0	-5570.0	-1148692.0
24	17	9	16	201	202.0	-110219.0	-5563.0	-1142106.0
24	17	9	16	202	203.0	-100733.0	-5562.0	-1135793.0
24	17	9	16	202	204.0	-91656.0	-5558.0	-1130267.0
24	17	9	16	203	205.0	-82256.0	-5547.0	-1124712.0
24	17	9	16	203	206.0	-71690.0	-5538.0	-1119831.0
24	17	9	16	204	207.0	-61432.0	-5539.0	-1115017.0
24	17	9	16	205	208.0	-51402.0	-5526.0	-1110474.0
24	17	9	16	205	210.0	-22874.0	-5489.0	-1100881.0
24	17	9	16	206	211.0	-12805.0	-5472.0	-1094617.0
24	17	9	16	206	212.0	-4133.0	-5457.0	-1087674.0
24	17	9	16	207	213.0	3256.0	-5423.0	-1080964.0
24	17	9	16	208	214.0	8989.0	-5411.0	-1074762.0
24	17	9	16	208	215.0	13174.0	-5387.0	-1069454.0
24	17	9	16	209	216.0	14899.0	-5349.0	-1065086.0
24	17	9	16	240	217.0	14740.0	-5321.0	-1061920.0
24	17	9	16	241	218.0	11293.0	-5281.0	-1060604.0
24	17	9	16	241	219.0	5618.0	-5258.0	-1060644.0
24	17	9	16	242	220.0	-2251.0	-5246.0	-1061148.0
24	17	9	16	243	221.0	-13096.0	-5223.0	-1063586.0
24	17	9	16	243	222.0	-27208.0	-5227.0	-1065468.0
24	17	9	16	244	223.0	-44555.0	-5192.0	-1066603.0
24	17	9	16	245	224.0	-64758.0	-5161.0	-1069661.0
24	17	9	16	245	225.0	-87385.0	-5139.0	-1074297.0
24	17	9	16	246	226.0	-111401.0	-5119.0	-1080080.0
24	17	9	16	247	227.0	-137144.0	-5089.0	-1085461.0
24	17	9	16	247	228.0	-164279.0	-5082.0	-1089929.0
24	17	9	16	248	229.0	-191911.0	-5065.0	-1094062.0
24	17	9	16	248	230.0	-219871.0	-5046.0	-1095898.0
24	17	9	16	249	231.0	-247045.0	-5027.0	-1093589.0
24	17	9	16	250	233.0	-292736.0	-5024.0	-1079872.0
24	17	9	16	250	234.0	-309552.0	-5013.0	-1069056.0
24	17	9	16	251	235.0	-323267.0	-4975.0	-1056179.0
24	17	9	16	251	236.0	-334831.0	-4976.0	-1047312.0
24	17	9	16	252	237.0	-343326.0	-4956.0	-1043888.0
24	17	9	16	253	238.0	-346494.0	-4944.0	-1042091.0
24	17	9	16	285	239.0	-347355.0	-4917.0	-1041566.0
24	17	9	16	286	240.0	-345272.0	-4906.0	-1040817.0
24	17	9	16	287	241.0	-339622.0	-4876.0	-1040160.0
24	17	9	16	287	242.0	-330982.0	-4847.0	-1039014.0
24	17	9	16	288	243.0	-320551.0	-4852.0	-1037783.0
24	17	9	16	288	244.0	-307853.0	-4852.0	-1037546.0
24	17	9	16	289	245.0	-293216.0	-4851.0	-1037538.0
24	17	9	16	290	246.0	-276841.0	-4851.0	-1037076.0
24	17	9	16	290	247.0	-257046.0	-4867.0	-1037337.0
24	17	9	16	291	248.0	-230444.0	-4865.0	-1037493.0
24	17	9	16	291	249.0	-194398.0	-4876.0	-1037244.0
24	17	9	16	292	250.0	-156586.0	-4861.0	-1035856.0
24	17	9	16	293	251.0	-121621.0	-4869.0	-1033363.0
24	17	9	16	293	252.0	-92635.0	-4866.0	-1030881.0
24	17	9	16	294	253.0	-79809.0	-4874.0	-1028297.0
24	17	9	16	331	255.0	-80303.0	-4863.0	-1023432.0
24	17	9	16	332	0.0	-86025.0	-4883.0	-1020564.0
24	17	9	16	333	1.0	-90865.0	-4894.0	-1017441.0
24	17	9	16	333	2.0	-89528.0	-4894.0	-1014154.0
24	17	9	16	334	3.0	-81646.0	-4885.0	-1011179.0
24	17	9	16	335	4.0	-72186.0	-4882.0	-1006748.0
24	17	9	16	335	5.0	-63235.0	-4884.0	-1001536.0
24	17	9	16	336	6.0	-55459.0	-4908.0	-996494.0
24	17	9	16	337	7.0	-49369.0	-4912.0	-991686.0
24	17	9	16	337	8.0	-48404.0	-4887.0	-987294.0
24	17	9	16	338	9.0	-52686.0	-4912.0	-983681.0
24	17	9	16	339	10.0	-62561.0	-4914.0	-979169.0
24	17	9	16	339	11.0	-76199.0	-4904.0	-974497.0
24	17	9	16	340	12.0	-92106.0	-4931.0	-969959.0
24	17	9	16	341	13.0	-111367.0	-4920.0	-965593.0
24	17	9	16	341	14.0	-134916.0	-4927.0	-960527.0
24	17	9	16	342	22.0	-133561.0	-4929.0	-924274.0
24	17	9	16	342	23.0	-113123.0	-4928.0	-920844.0
24	17	9	16	343	24.0	-96152.0	-4894.0	-915257.0
24	17	9	16	344	25.0	-83421.0	-4883.0	-909732.0
24	17	9	16	344	26.0	-75232.0	-4866.0	-905416.0
24	17	9	16	345	27.0	-70822.0	-4847.0	-901649.0
24	17	9	16	376	28.0	-69185.0	-4841.0	-897590.0
24	17	9	16	377	29.0	-68629.0	-4834.0	-893682.0
24	17	9	16	378	30.0	-69859.0	-4814.0	-890844.0
24	17	9	16	378	31.0	-72653.0	-4812.0	-889361.0
24	17	9	16	379	32.0	-76125.0	-4837.0	-887177.0
24	17	9	16	380	33.0	-82064.0	-4862.0	-884351.0
24	17	9	16	380	34.0	-89125.0	-4850.0	-880531.0
24	17	9	16	381	35.0	-95254.0	-4861.0	-875565.0
24	17	9	16	382	36.0	-99093.0	-4857.0	-869857.0
24	17	9	16	382	37.0	-100469.0	-4864.0	-863848.0
24	17	9	16	383	38.0	-100599.0	-4876.0	-858476.0
24	17	9	16	384	39.0	-99632.0	-4882.0	-854226.0
24	17	9	16	384	40.0	-98050.0	-4905.0	-850723.0
24	17	9	16	385	41.0	-96394.0	-4897.0	-846916.0
24	17	9	16	386	42.0	-95320.0	-4893.0	-841962.0
24	17	9	16	386	44.0	-99601.0	-4896.0	-828427.0
24	17	9	16	387	45.0	-105597.0	-4893.0	-820789.0
24	17	9	16	387	46.0	-114546.0	-4872.0	-812573.0
24	17	9	16	388	47.0	-127082.0	-4871.0	-805427.0
24	17	9	16	389	48.0	-141378.0	-4869.0	-799911.0
24	17	9	16	389	49.0	-156444.0	-4886.0	-795181.0
24	17	9	16	390	50.0	-172351.0	-4896.0	-789972.0
24	17	9	16	420	51.0	-187741.0	-4876.0	-784628.0
24	17	9	16	421	52.0	-202972.0	-4884.0	-778769.0
24	17	9	16	421	53.0	-216799.0	-4911.0	-773499.0
24	17	9	16	422	54.0	-229889.0	-4918.0	-767761.0
24	17	9	16	423	55.0	-241960.0	-4934.0	-762131.0
24	17	9	16	424	56.0	-252032.0	-4919.0	-755260.0
24	17	9	16	424	57.0	-259405.0	-4912.0	-749266.0
24	17	9	16	425	58.0	-265181.0	-4939.0	-745086.0
24	17	9	16	425	59.0	-269301.0	-4932.0	-741155.0
24	17	9	16	426	60.0	-272021.0	-4942.0	-736948.0
24	17	9	16	427	61.0	-273763.0	-4951.0	-733587.0
24	17	9	16	427	62.0	-274506.0	-4975.0	-731082.0
24	17	9	16	428	63.0	-274219.0	-4984.0	-729277.0
24	17	9	16	429	64.0	-272422.0	-4972.0	-725660.0
24	17	9	16	429	65.0	-268702.0	-4950.0	-720154.0
24	17	9	16	430	67.0	-257894.0	-4928.0	-707438.0
24	17	9	16	431	68.0	-251292.0	-4921.0	-702155.0
24	17	9	16	431	69.0	-243264.0	-4909.0	-697722.0
24	17	9	16	432	70.0	-233929.0	-4871.0	-693657.0
24	17	9	16	432	71.0	-224647.0	-4838.0	-689932.0
24	17	9	16	433	72.0	-214803.0	-4797.0	-687499.0
24	17	9	16	481	73.0	-204559.0	-4766.0	-685777.0
24	17	9	16	510	74.0	-194621.0	-4709.0	-682459.0
24	17	9	16	511	75.0	-185728.0	-4663.0	-677022.0
24	17	9	16	512	76.0	-176571.0	-4618.0	-672122.0
24	17	9	16	513	77.0	-167221.0	-4580.0	-668847.0
24	17	9	16	513	78.0	-157506.0	-4535.0	-665305.0
24	17	9	16	514	79.0	-149227.0	-4474.0	-662319.0
24	17	9	16	515	80.0	-142013.0	-4411.0	-659131.0
24	17	9	16	515	81.0	-135434.0	-4342.0	-655209.0
24	17	9	16	516	82.0	-130686.0	-4273.0	-651815.0
24	17	9	16	517	83.0	-128227.0	-4202.0	-648532.0
24	17	9	16	517	84.0	-127942.0	-4138.0	-644343.0
24	17	9	16	518	85.0	-128739.0	-4074.0	-639269.0
24	17	9	16	518	86.0	-131110.0	-4002.0	-634944.0
24	17	9	16	519	87.0	-135313.0	-3913.0	-631045.0
24	17	9	16	520	96.0	-211974.0	-3128.0	-598233.0
24	17	9	16	520	111.0	-116351.0	-1759.0	-556367.0
24	17	9	16	521	112.0	-101655.0	-1685.0	-552459.0
24	17	9	16	522	113.0	-88439.0	-1622.0	-549137.0
24	17	9	16	522	114.0	-78146.0	-1536.0	-545614.0
24	17	9	16	531	115.0	-69965.0	-1428.0	-541280.0
24	17	9	16	531	116.0	-63379.0	-1349.0	-536946.0
24	17	9	16	532	117.0	-57842.0	-1282.0	-533674.0
24	17	9	16	532	118.0	-53027.0	-1216.0	-530292.0
24	17	9	16	533	119.0	-49617.0	-1133.0	-526934.0
24	17	9	16	553	120.0	-47852.0	-1104.0	-523474.0
24	17	9	16	554	121.0	-48613.0	-1045.0	-519911.0
24	17	9	16	555	122.0	-58012.0	-969.0	-516734.0
24	17	9	16	555	123.0	-71359.0	-927.0	-512542.0
24	17	9	16	556	124.0	-79347.0	-879.0	-507329.0
24	17	9	16	557	125.0	-81199.0	-827.0	-502497.0
24	17	9	16	557	126.0	-77567.0	-781.0	-497782.0
24	17	9	16	558	127.0	-70901.0	-743.0	-491707.0
24	17	9	16	558	128.0	-63199.0	-694.0	-485727.0
24	17	9	16	559	129.0	-54911.0	-654.0	-480569.0
24	17	9	16	560	130.0	-47409.0	-599.0	-475892.0
24	17	9	16	560	131.0	-40777.0	-562.0	-472652.0
24	17	9	16	561	132.0	-35131.0	-510.0	-469521.0
24	17	9	16	561	133.0	-32161.0	-467.0	-465307.0
24	17	9	16	562	134.0	-32745.0	-445.0	-460885.0
24	17	9	16	577	135.0	-36508.0	-447.0	-457162.0
24	17	9	16	578	136.0	-42571.0	-413.0	-453009.0
24	17	9	16	579	137.0	-49860.0	-380.0	-448427.0
24	17	9	16	579	138.0	-57589.0	-382.0	-445108.0
24	17	9	16	601	139.0	-64113.0	-361.0	-441734.0
24	17	9	16	601	140.0	-69744.0	-323.0	-437788.0
24	17	9	16	602	141.0	-75050.0	-307.0	-433751.0
24	17	9	16	602	142.0	-80626.0	-285.0	-430349.0
24	17	9	16	603	143.0	-85731.0	-256.0	-426575.0
24	17	9	16	604	144.0	-91590.0	-207.0	-422039.0
24	17	9	16	604	145.0	-97608.0	-195.0	-416792.0
24	17	9	16	605	146.0	-104696.0	-191.0	-412881.0
24	17	9	16	605	147.0	-112510.0	-157.0	-410299.0
24	17	9	16	606	148.0	-120167.0	-167.0	-408349.0
24	17	9	16	606	149.0	-127688.0	-162.0	-406349.0
24	17	9	16	607	150.0	-134887.0	-157.0	-403954.0
24	17	9	16	608	151.0	-142902.0	-159.0	-401716.0
24	17	9	16	608	152.0	-150876.0	-147.0	-399501.0
24	17	9	16	609	153.0	-157386.0	-147.0	-396413.0
24	17	9	16	609	154.0	-163516.0	-124.0	-393271.0
24	17	9	16	610	155.0	-171341.0	-118.0	-390100.0
24	17	9	16	610	156.0	-176827.0	-134.0	-386652.0
24	17	9	16	623	157.0	-180454.0	-156.0	-383534.0
24	17	9	16	624	158.0	-180214.0	-160.0	-380210.0
24	17	9	16	624	159.0	-177271.0	-144.0	-376515.0
24	17	9	16	625	160.0	-173065.0	-170.0	-372654.0
24	17	9	16	625	161.0	-167176.0	-182.0	-368152.0
24	17	9	16	626	162.0	-160996.0	-194.0	-362655.0
24	17	9	16	627	163.0	-155732.0	-209.0	-355900.0
24	17	9	16	627	164.0	-151167.0	-231.0	-348408.0
24	17	9	16	628	165.0	-146505.0	-237.0	-341082.0
24	17	9	16	656	166.0	-142523.0	-248.0	-333942.0
24	17	9	16	657	167.0	-139765.0	-257.0	-326937.0
24	17	9	16	658	168.0	-136377.0	-272.0	-321001.0
24	17	9	16	658	169.0	-133099.0	-286.0	-315582.0
24	17	9	16	659	170.0	-129168.0	-309.0	-310266.0
24	17	9	16	659	171.0	-124621.0	-336.0	-305065.0
24	17	9	16	660	172.0	-120530.0	-386.0	-300207.0
24	17	9	16	661	173.0	-117960.0	-401.0	-295012.0
24	17	9	16	661	174.0	-116321.0	-418.0	-289358.0
24	17	9	16	662	175.0	-115459.0	-449.0	-283441.0
24	17	9	16	662	176.0	-116379.0	-479.0	-278230.0
24	17	9	16	663	177.0	-119346.0	-489.0	-272780.0
24	17	9	16	663	178.0	-124292.0	-483.0	-262821.0
24	17	9	16	664	179.0	-131322.0	-530.0	-254259.0
24	17	9	16	664	180.0	-139624.0	-579.0	-249164.0
24	17	9	16	675	181.0	-148758.0	-594.0	-242936.0
24	17	9	16	675	182.0	-158649.0	-619.0	-236665.0
24	17	9	16	676	183.0	-169314.0	-663.0	-230381.0
24	17	9	16	677	184.0	-180694.0	-687.0	-223706.0
24	17	9	16	677	185.0	-191542.0	-728.0	-217576.0
24	17	9	16	678	186.0	-202455.0	-741.0	-212747.0
24	17	9	16	679	187.0	-213580.0	-751.0	-207862.0
24	17	9	16	680	188.0	-224093.0	-752.0	-201144.0
24	17	9	16	680	189.0	-233746.0	-770.0	-195234.0
24	17	9	16	681	190.0	-242149.0	-800.0	-189157.0
24	17	9	16	681	191.0	-249166.0	-787.0	-182892.0
24	17	9	16	682	192.0	-254267.0	-819.0	-177356.0
24	17	9	16	683	193.0	-258236.0	-838.0	-170947.0
24	17	9	16	683	194.0	-259644.0	-847.0	-163628.0
24	17	9	16	684	195.0	-258969.0	-858.0	-155999.0
24	17	9	16	684	196.0	-257287.0	-856.0	-147351.0
24	17	9	16	685	197.0	-254582.0	-857.0	-138514.0
24	17	9	16	685	198.0	-250811.0	-872.0	-129373.0
24	17	9	16	695	199.0	-245074.0	-893.0	-122131.0
24	17	9	16	696	200.0	-237324.0	-919.0	-116022.0
24	17	9	16	696	201.0	-228773.0	-941.0	-111260.0
24	17	9	16	718	202.0	-219179.0	-1011.0	-107187.0
24	17	9	16	718	203.0	-209409.0	-1034.0	-102769.0
24	17	9	16	719	204.0	-199996.0	-1057.0	-98228.0
24	17	9	16	719	205.0	-190136.0	-1087.0	-93832.0
24	17	9	16	720	206.0	-180270.0	-1104.0	-90036.0
24	17	9	16	721	207.0	-171101.0	-1147.0	-86972.0
24	17	9	16	721	208.0	-163171.0	-1171.0	-83876.0
24	17	9	16	722	209.0	-155120.0	-1206.0	-81300.0
24	17	9	16	722	210.0	-148386.0	-1224.0	-78511.0
24	17	9	16	723	211.0	-142586.0	-1249.0	-75672.0
24	17	9	16	723	212.0	-138324.0	-1278.0	-72730.0
24	17	9	16	724	213.0	-135011.0	-1278.0	-69488.0
24	17	9	16	724	214.0	-131421.0	-1303.0	-64987.0
24	17	9	16	725	215.0	-129037.0	-1320.0	-60060.0
24	17	9	16	725	216.0	-126820.0	-1349.0	-55762.0
24	17	9	16	726	217.0	-124973.0	-1377.0	-51157.0
24	17	9	16	740	218.0	-123811.0	-1387.0	-46406.0
24	17	9	16	741	219.0	-123087.0	-1386.0	-42681.0
24	17	9	16	741	220.0	-123312.0	-1398.0	-39731.0
24	17	9	16	742	221.0	-125556.0	-1417.0	-36437.0
24	17	9	16	742	222.0	-128560.0	-1442.0	-32710.0
24	17	9	16	763	223.0	-132688.0	-1454.0	-28770.0
24	17	9	16	763	224.0	-138486.0	-1471.0	-24359.0
24	17	9	16	764	225.0	-144214.0	-1480.0	-19511.0
24	17	9	16	765	226.0	-149996.0	-1477.0	-14704.0
24	17	9	16	765	227.0	-155925.0	-1485.0	-10566.0
24	17	9	16	766	228.0	-161329.0	-1516.0	-6704.0
24	17	9	16	766	229.0	-166429.0	-1529.0	-3281.0
24	17	9	16	767	230.0	-170941.0	-1553.0	183.0
24	17	9	16	767	231.0	-175118.0	-1562.0	4098.0
24	17	9	16	768	232.0	-177336.0	-1592.0	8791.0
24	17	9	16	769	233.0	-178326.0	-1608.0	15027.0
24	17	9	16	769	234.0	-179414.0	-1603.0	22794.0
24	17	9	16	770	235.0	-178987.0	-1619.0	30096.0
24	17	9	16	770	236.0	-176966.0	-1628.0	36358.0
24	17	9	16	771	237.0	-178259.0	-1646.0	42027.0
24	17	9	16	771	238.0	-178893.0	-1666.0	48269.0
24	17	9	16	772	239.0	-177619.0	-1695.0	55160.0
24	17	9	16	788	240.0	-173816.0	-1713.0	61224.0
24	17	9	16	789	241.0	-168444.0	-1710.0	66574.0
24	17	9	16	789	242.0	-162639.0	-1709.0	72653.0
24	17	9	16	790	243.0	-157342.0	-1753.0	80298.0
24	17	9	16	790	244.0	-152028.0	-1797.0	86176.0
24	17	9	16	791	245.0	-146567.0	-1824.0	90339.0
24	17	9	16	792	246.0	-141556.0	-1845.0	93699.0
24	17	9	16	792	247.0	-137455.0	-1866.0	97281.0
24	17	9	16	811	248.0	-134897.0	-1867.0	101212.0
24	17	9	16	812	249.0	-132994.0	-1897.0	104871.0
24	17	9	16	812	250.0	-130187.0	-1910.0	106831.0
24	17	9	16	813	251.0	-128846.0	-1967.0	108044.0
24	17	9	16	813	252.0	-128292.0	-1993.0	109770.0
24	17	9	16	814	253.0	-128283.0	-1999.0	111533.0
24	17	9	16	814	254.0	-129916.0	-2022.0	114750.0
24	17	9	16	815	255.0	-132531.0	-2052.0	118173.0
24	17	9	16	816	0.0	-135670.0	-2064.0	119457.0
24	17	9	16	816	1.0	-139702.0	-2104.0	120252.0
24	17	9	16	817	2.0	-144234.0	-2139.0	121384.0
24	17	9	16	817	3.0	-149319.0	-2156.0	123454.0
24	17	9	16	818	4.0	-155181.0	-2191.0	126584.0
24	17	9	16	818	5.0	-162454.0	-2221.0	128839.0
24	17	9	16	819	6.0	-170971.0	-2268.0	131439.0
24	17	9	16	834	7.0	-180451.0	-2292.0	133116.0
24	17	9	16	835	8.0	-191826.0	-2311.0	134494.0
24	17	9	16	836	9.0	-204470.0	-2328.0	135868.0
24	17	9	16	836	10.0	-219212.0	-2352.0	136286.0
24	17	9	16	837	11.0	-233794.0	-2400.0	136572.0
24	17	9	16	837	12.0	-247269.0	-2424.0	138400.0
24	17	9	16	838	13.0	-260041.0	-2464.0	140808.0
24	17	9	16	857	14.0	-271066.0	-2497.0	141245.0
24	17	9	16	858	15.0	-280471.0	-2506.0	141507.0
24	17	9	16	859	16.0	-287695.0	-2519.0	142734.0
24	17	9	16	859	17.0	-292761.0	-2561.0	144854.0
24	17	9	16	860	18.0	-295167.0	-2592.0	147379.0
24	17	9	16	860	19.0	-295409.0	-2636.0	149340.0
24	17	9	16	861	20.0	-293562.0	-2681.0	150217.0
24	17	9	16	861	21.0	-289975.0	-2721.0	150568.0
24	17	9	16	862	22.0	-285496.0	-2730.0	151619.0
24	17	9	16	862	23.0	-278311.0	-2750.0	152323.0
24	17	9	16	863	24.0	-270156.0	-2772.0	151828.0
24	17	9	16	864	25.0	-260212.0	-2823.0	151084.0
24	17	9	16	864	26.0	-248395.0	-2858.0	151033.0
24	17	9	16	865	27.0	-235611.0	-2894.0	151173.0
24	17	9	16	865	28.0	-223014.0	-2920.0	151838.0
24	17	9	16	881	29.0	-209530.0	-2928.0	152454.0
24	17	9	16	882	30.0	-195813.0	-2937.0	153423.0
24	17	9	16	882	31.0	-181814.0	-2966.0	154680.0
24	17	9	16	883	32.0	-169180.0	-2997.0	156059.0
24	17	9	16	883	33.0	-157542.0	-3050.0	157786.0
24	17	9	16	884	34.0	-146621.0	-3092.0	159514.0
24	17	9	16	885	35.0	-137348.0	-3102.0	161242.0
24	17	9	16	885	36.0	-129589.0	-3156.0	163482.0
24	17	9	16	905	37.0	-122598.0	-3169.0	164901.0
24	17	9	16	905	38.0	-116437.0	-3182.0	166674.0
24	17	9	16	906	39.0	-110846.0	-3206.0	168551.0
24	17	9	16	906	40.0	-106067.0	-3235.0	170783.0
24	17	9	16	907	41.0	-101867.0	-3266.0	173149.0
24	17	9	16	908	42.0	-97756.0	-3315.0	174696.0
24	17	9	16	908	43.0	-94002.0	-3351.0	175251.0
24	17	9	16	909	44.0	-89024.0	-3374.0	176612.0
24	17	9	16	909	45.0	-85017.0	-3390.0	178005.0
24	17	9	16	910	46.0	-81497.0	-3427.0	179183.0
24	17	9	16	910	47.0	-79243.0	-3467.0	180786.0
24	17	9	16	911	48.0	-78224.0	-3499.0	182788.0
24	17	9	16	912	49.0	-78520.0	-3526.0	184584.0
24	17	9	16	913	50.0	-80254.0	-3561.0	185814.0
24	17	9	16	913	51.0	-83302.0	-3617.0	186597.0
24	17	9	16	914	52.0	-88420.0	-3622.0	187826.0
24	17	9	16	914	53.0	-95898.0	-3656.0	188197.0
24	17	9	16	915	54.0	-104357.0	-3678.0	188636.0
24	17	9	16	915	55.0	-113506.0	-3702.0	188916.0
24	17	9	16	916	56.0	-123236.0	-3724.0	189028.0
24	17	9	16	917	57.0	-133117.0	-3749.0	189406.0
24	17	9	16	930	58.0	-143171.0	-3782.0	189882.0
24	17	9	16	931	59.0	-153117.0	-3804.0	190843.0
24	17	9	16	932	60.0	-163112.0	-3832.0	190961.0
24	17	9	16	932	61.0	-172795.0	-3880.0	191013.0
24	17	9	16	933	62.0	-182496.0	-3917.0	191013.0
24	17	9	16	933	63.0	-191129.0	-3950.0	191609.0
24	17	9	16	934	64.0	-199743.0	-3991.0	192886.0
24	17	9	16	935	65.0	-207171.0	-4025.0	194709.0
24	17	9	16	935	66.0	-213809.0	-4075.0	196709.0
24	17	9	16	951	67.0	-218939.0	-4096.0	198781.0
24	17	9	16	951	68.0	-223401.0	-4131.0	200784.0
24	17	9	16	952	69.0	-226764.0	-4141.0	203104.0
24	17	9	16	953	70.0	-229231.0	-4186.0	205301.0
24	17	9	16	953	71.0	-230771.0	-4225.0	206381.0
24	17	9	16	954	72.0	-230924.0	-4249.0	207203.0
24	17	9	16	954	73.0	-229349.0	-4302.0	207554.0
24	17	9	16	974	74.0	-226312.0	-4336.0	206855.0
24	17	9	16	975	75.0	-223339.0	-4357.0	204832.0
24	17	9	16	975	76.0	-220273.0	-4382.0	201191.0
24	17	9	16	976	77.0	-216512.0	-4401.0	196212.0
24	17	9	16	976	78.0	-212773.0	-4461.0	191918.0
24	17	9	16	977	79.0	-209041.0	-4518.0	188619.0
24	17	9	16	978	80.0	-205591.0	-4527.0	184748.0
24	17	9	16	978	81.0	-202391.0	-4556.0	180023.0
24	17	9	16	997	82.0	-198717.0	-4589.0	175172.0
24	17	9	16	998	83.0	-195299.0	-4616.0	171711.0
24	17	9	16	999	84.0	-192292.0	-4622.0	169270.0
24	17	9	16	999	85.0	-189209.0	-4692.0	167230.0
24	17	9	17	0	86.0	-185571.0	-4734.0	167633.0
24	17	9	17	0	87.0	-180561.0	-4770.0	173436.0
24	17	9	17	1	88.0	-174512.0	-4797.0	182701.0
24	17	9	17	1	89.0	-167439.0	-4826.0	192909.0
24	17	9	17	2	90.0	-159486.0	-4884.0	206063.0
24	17	9	17	2	91.0	-151327.0	-4907.0	221993.0
24	17	9	17	3	92.0	-144256.0	-4939.0	231699.0
24	17	9	17	4	93.0	-139251.0	-4967.0	237188.0
24	17	9	17	4	94.0	-136441.0	-4997.0	241969.0
24	17	9	17	5	95.0	-135494.0	-5032.0	244797.0
24	17	9	17	5	96.0	-135169.0	-5074.0	247623.0
24	17	9	17	6	97.0	-134753.0	-5067.0	250073.0
24	17	9	17	6	98.0	-134116.0	-5089.0	252526.0
24	17	9	17	7	99.0	-133224.0	-5122.0	255226.0
24	17	9	17	8	100.0	-131980.0	-5114.0	258206.0
24	17	9	17	8	101.0	-130989.0	-5127.0	260934.0
24	17	9	17	9	102.0	-130821.0	-5149.0	262912.0
24	17	9	17	21	103.0	-129784.0	-5193.0	264703.0
24	17	9	17	21	104.0	-123777.0	-5207.0	267132.0
24	17	9	17	22	105.0	-111529.0	-5234.0	269225.0
24	17	9	17	22	106.0	-95857.0	-5244.0	270963.0
24	17	9	17	23	107.0	-82908.0	-5269.0	272566.0
24	17	9	17	24	108.0	-77906.0	-5283.0	274544.0
24	17	9	17	24	109.0	-82679.0	-5289.0	276020.0
24	17	9	17	25	110.0	-95507.0	-5336.0	277094.0
24	17	9	17	25	111.0	-113502.0	-5366.0	278021.0
24	17	9	17	44	112.0	-133588.0	-5361.0	278859.0
24	17	9	17	45	113.0	-153965.0	-5391.0	279913.0
24	17	9	17	45	114.0	-171466.0	-5399.0	280947.0
24	17	9	17	46	115.0	-184360.0	-5409.0	282063.0
24	17	9	17	47	116.0	-193576.0	-5425.0	283543.0
24	17	9	17	47	117.0	-202264.0	-5469.0	285235.0
24	17	9	17	48	118.0	-210155.0	-5503.0	287014.0
24	17	9	17	67	119.0	-217849.0	-5509.0	288426.0
24	17	9	17	68	120.0	-225997.0	-5519.0	289425.0
24	17	9	17	69	121.0	-236034.0	-5540.0	289929.0
24	17	9	17	69	122.0	-246769.0	-5570.0	289983.0
24	17	9	17	70	123.0	-259028.0	-5590.0	289996.0
24	17	9	17	70	124.0	-272006.0	-5618.0	289834.0
24	17	9	17	71	125.0	-286357.0	-5646.0	289786.0
24	17	9	17	71	126.0	-301281.0	-5650.0	290681.0
24	17	9	17	72	127.0	-313692.0	-5647.0	291431.0
24	17	9	17	72	128.0	-318444.0	-5694.0	291792.0
24	17	9	17	73	129.0	-313200.0	-5718.0	292322.0
24	17	9	17	91	130.0	-297978.0	-5729.0	293129.0
24	17	9	17	91	131.0	-274257.0	-5767.0	293049.0
24	17	9	17	92	132.0	-246314.0	-5799.0	293445.0
24	17	9	17	93	133.0	-216716.0	-5815.0	294144.0
24	17	9	17	93	134.0	-187706.0	-5840.0	294742.0
24	17	9	17	94	135.0	-160480.0	-5859.0	295288.0
24	17	9	17	94	136.0	-137355.0	-5850.0	296706.0
24	17	9	17	95	137.0	-119208.0	-5861.0	297749.0
24	17	9	17	96	138.0	-105349.0	-5889.0	298836.0
24	17	9	17	96	139.0	-95257.0	-5911.0	299984.0
24	17	9	17	97	140.0	-88051.0	-5932.0	300224.0
24	17	9	17	97	141.0	-82864.0	-5959.0	299887.0
24	17	9	17	98	142.0	-79464.0	-5962.0	300579.0
24	17	9	17	98	143.0	-77187.0	-5989.0	300841.0
24	17	9	17	99	144.0	-76371.0	-5996.0	300629.0
24	17	9	17	99	145.0	-77904.0	-6008.0	300639.0
24	17	9	17	100	146.0	-80865.0	-6033.0	301194.0
24	17	9	17	101	147.0	-84677.0	-6045.0	301521.0
24	17	9	17	114	148.0	-89018.0	-6087.0	301630.0
24	17	9	17	115	149.0	-93416.0	-6092.0	302073.0
24	17	9	17	115	150.0	-98076.0	-6092.0	302788.0
24	17	9	17	116	151.0	-102797.0	-6122.0	302719.0
24	17	9	17	116	152.0	-107829.0	-6149.0	302776.0
24	17	9	17	117	153.0	-113197.0	-6159.0	303469.0
24	17	9	17	117	154.0	-118688.0	-6164.0	303263.0
24	17	9	17	118	155.0	-124419.0	-6197.0	302971.0
24	17	9	17	119	156.0	-130634.0	-6247.0	303376.0
24	17	9	17	140	157.0	-136734.0	-6242.0	303610.0
24	17	9	17	141	158.0	-142387.0	-6262.0	303251.0
24	17	9	17	142	159.0	-147366.0	-6284.0	303173.0
24	17	9	17	142	160.0	-152094.0	-6318.0	303033.0
24	17	9	17	143	161.0	-156998.0	-6337.0	302991.0
24	17	9	17	143	162.0	-162214.0	-6366.0	303267.0
24	17	9	17	144	163.0	-167314.0	-6402.0	303435.0
24	17	9	17	145	164.0	-171597.0	-6396.0	303758.0
24	17	9	17	145	165.0	-175335.0	-6425.0	303865.0
24	17	9	17	146	166.0	-179378.0	-6466.0	304061.0
24	17	9	17	146	167.0	-183347.0	-6483.0	304766.0
24	17	9	17	147	168.0	-187412.0	-6477.0	305177.0
24	17	9	17	148	169.0	-191642.0	-6522.0	305114.0
24	17	9	17	148	170.0	-196839.0	-6537.0	305057.0
24	17	9	17	149	171.0	-202142.0	-6563.0	305375.0
24	17	9	17	150	172.0	-207469.0	-6556.0	305538.0
24	17	9	17	150	173.0	-211624.0	-6555.0	305833.0
24	17	9	17	151	174.0	-215711.0	-6569.0	306392.0
24	17	9	17	161	175.0	-219127.0	-6587.0	306529.0
24	17	9	17	161	176.0	-222173.0	-6588.0	306754.0
24	17	9	17	183	177.0	-224848.0	-6593.0	307529.0
24	17	9	17	184	178.0	-227804.0	-6598.0	307908.0
24	17	9	17	185	179.0	-230227.0	-6601.0	307701.0
24	17	9	17	185	180.0	-233222.0	-6609.0	307564.0
24	17	9	17	186	181.0	-236267.0	-6607.0	307105.0
24	17	9	17	187	182.0	-239623.0	-6614.0	306328.0
24	17	9	17	187	183.0	-242597.0	-6612.0	305712.0
24	17	9	17	188	184.0	-245821.0	-6607.0	305549.0
24	17	9	17	188	185.0	-249424.0	-6605.0	305291.0
24	17	9	17	189	186.0	-252954.0	-6604.0	304973.0
24	17	9	17	189	187.0	-255662.0	-6567.0	304994.0
24	17	9	17	190	188.0	-258689.0	-6539.0	305013.0
24	17	9	17	190	189.0	-260397.0	-6519.0	304645.0
24	17	9	17	191	190.0	-260741.0	-6495.0	304353.0
24	17	9	17	192	191.0	-259431.0	-6473.0	304159.0
24	17	9	17	192	192.0	-257541.0	-6459.0	303104.0
24	17	9	17	216	193.0	-255499.0	-6409.0	302444.0
24	17	9	17	217	194.0	-252273.0	-6344.0	302088.0
24	17	9	17	218	195.0	-247794.0	-6313.0	301411.0
24	17	9	17	218	196.0	-243167.0	-6269.0	301140.0
24	17	9	17	219	197.0	-239176.0	-6226.0	302081.0
24	17	9	17	219	198.0	-234657.0	-6184.0	302743.0
24	17	9	17	231	199.0	-230586.0	-6148.0	302563.0
24	17	9	17	232	200.0	-227106.0	-6090.0	302818.0
24	17	9	17	232	201.0	-224574.0	-6032.0	303167.0
24	17	9	17	233	202.0	-222208.0	-5955.0	303184.0
24	17	9	17	234	203.0	-220239.0	-5902.0	303211.0
24	17	9	17	234	204.0	-218142.0	-5847.0	303570.0
24	17	9	17	235	205.0	-216041.0	-5769.0	304033.0
24	17	9	17	235	206.0	-212532.0	-5699.0	304753.0
24	17	9	17	236	207.0	-208110.0	-5622.0	305763.0
24	17	9	17	237	208.0	-202197.0	-5541.0	306228.0
24	17	9	17	237	209.0	-195238.0	-5456.0	306872.0
24	17	9	17	238	210.0	-187749.0	-5367.0	307364.0
24	17	9	17	239	211.0	-179861.0	-5300.0	307931.0
24	17	9	17	239	212.0	-171601.0	-5256.0	308363.0
24	17	9	17	240	213.0	-162046.0	-5184.0	308491.0
24	17	9	17	240	215.0	-140975.0	-5021.0	310251.0
24	17	9	17	241	216.0	-131112.0	-4929.0	311571.0
24	17	9	17	242	217.0	-121275.0	-4808.0	312376.0
24	17	9	17	242	218.0	-111889.0	-4732.0	313448.0
24	17	9	17	254	219.0	-103995.0	-4658.0	314474.0
24	17	9	17	255	220.0	-96976.0	-4599.0	315404.0
24	17	9	17	255	221.0	-91069.0	-4490.0	316281.0
24	17	9	17	256	222.0	-86409.0	-4390.0	316971.0
24	17	9	17	277	223.0	-81569.0	-4315.0	317324.0
24	17	9	17	278	224.0	-76879.0	-4216.0	317799.0
24	17	9	17	279	225.0	-72576.0	-4129.0	318991.0
24	17	9	17	279	226.0	-69362.0	-4085.0	319589.0
24	17	9	17	280	227.0	-66786.0	-4015.0	320268.0
24	17	9	17	281	228.0	-64351.0	-3959.0	320930.0
24	17	9	17	281	229.0	-61953.0	-3879.0	320998.0
24	17	9	17	282	230.0	-58604.0	-3804.0	320868.0
24	17	9	17	282	231.0	-56145.0	-3727.0	321105.0
24	17	9	17	283	232.0	-56964.0	-3664.0	321463.0
24	17	9	17	283	233.0	-59515.0	-3579.0	320999.0
24	17	9	17	284	234.0	-68199.0	-3506.0	320880.0
24	17	9	17	284	235.0	-85794.0	-3441.0	321687.0
24	17	9	17	285	236.0	-104122.0	-3380.0	322241.0
24	17	9	17	286	237.0	-118325.0	-3362.0	322822.0
24	17	9	17	286	238.0	-130892.0	-3326.0	323874.0
24	17	9	17	301	239.0	-140091.0	-3266.0	324460.0
24	17	9	17	301	240.0	-148059.0	-3199.0	325040.0
24	17	9	17	302	241.0	-154688.0	-3157.0	325702.0
24	17	9	17	303	242.0	-159745.0	-3111.0	326156.0
24	17	9	17	303	243.0	-162954.0	-3077.0	326520.0
24	17	9	17	304	244.0	-164709.0	-3041.0	326821.0
24	17	9	17	335	245.0	-166146.0	-3004.0	327707.0
24	17	9	17	335	246.0	-167555.0	-2992.0	329003.0
24	17	9	17	336	247.0	-170349.0	-2946.0	330279.0
24	17	9	17	337	248.0	-174663.0	-2906.0	331341.0
24	17	9	17	337	249.0	-180294.0	-2885.0	332679.0
24	17	9	17	338	250.0	-185339.0	-2875.0	333704.0
24	17	9	17	339	251.0	-189207.0	-2857.0	334597.0
24	17	9	17	339	252.0	-191571.0	-2844.0	335267.0
24	17	9	17	340	253.0	-191904.0	-2811.0	335709.0
24	17	9	17	340	254.0	-189984.0	-2779.0	336550.0
24	17	9	17	341	255.0	-186176.0	-2761.0	337572.0
24	17	9	17	341	0.0	-179848.0	-2724.0	339053.0
24	17	9	17	342	1.0	-171326.0	-2727.0	341131.0
24	17	9	17	342	2.0	-159867.0	-2749.0	343044.0
24	17	9	17	343	3.0	-146066.0	-2729.0	344626.0
24	17	9	17	344	4.0	-130579.0	-2733.0	345464.0
24	17	9	17	344	5.0	-116379.0	-2724.0	346361.0
24	17	9	17	345	6.0	-104875.0	-2687.0	347774.0
24	17	9	17	345	7.0	-97837.0	-2670.0	349555.0
24	17	9	17	346	8.0	-96092.0	-2665.0	350836.0
24	17	9	17	347	9.0	-99151.0	-2660.0	352581.0
24	17	9	17	347	10.0	-106199.0	-2656.0	354512.0
24	17	9	17	348	11.0	-115678.0	-2669.0	355762.0
24	17	9	17	348	12.0	-126066.0	-2669.0	356737.0
24	17	9	17	349	13.0	-136114.0	-2643.0	357986.0
24	17	9	17	350	14.0	-144835.0	-2628.0	359158.0
24	17	9	17	350	15.0	-152944.0	-2627.0	359308.0
24	17	9	17	351	16.0	-160484.0	-2642.0	360019.0
24	17	9	17	352	17.0	-167081.0	-2652.0	361159.0
24	17	9	17	352	18.0	-172647.0	-2646.0	361929.0
24	17	9	17	353	19.0	-177784.0	-2639.0	363213.0
24	17	9	17	381	20.0	-183276.0	-2646.0	365318.0
24	17	9	17	382	21.0	-188179.0	-2646.0	367389.0
24	17	9	17	383	22.0	-193252.0	-2650.0	369008.0
24	17	9	17	383	23.0	-198013.0	-2672.0	370539.0
24	17	9	17	384	24.0	-202609.0	-2699.0	371486.0
24	17	9	17	385	25.0	-206697.0	-2692.0	372282.0
24	17	9	17	385	26.0	-210586.0	-2685.0	373425.0
24	17	9	17	386	27.0	-214675.0	-2697.0	373857.0
24	17	9	17	387	28.0	-218265.0	-2711.0	373773.0
24	17	9	17	387	29.0	-221753.0	-2725.0	374595.0
24	17	9	17	388	30.0	-224991.0	-2739.0	375780.0
24	17	9	17	388	31.0	-227886.0	-2737.0	376288.0
24	17	9	17	389	32.0	-230569.0	-2770.0	376618.0
24	17	9	17	390	33.0	-233066.0	-2777.0	376830.0
24	17	9	17	390	34.0	-235701.0	-2805.0	377306.0
24	17	9	17	391	35.0	-237506.0	-2812.0	377756.0
24	17	9	17	391	36.0	-238020.0	-2811.0	377842.0
24	17	9	17	392	37.0	-237709.0	-2828.0	377982.0
24	17	9	17	393	38.0	-236524.0	-2825.0	378701.0
24	17	9	17	393	39.0	-234674.0	-2821.0	379207.0
24	17	9	17	394	40.0	-232454.0	-2814.0	379874.0
24	17	9	17	410	41.0	-229871.0	-2831.0	380525.0
24	17	9	17	411	42.0	-227720.0	-2852.0	381266.0
24	17	9	17	411	43.0	-225628.0	-2868.0	381939.0
24	17	9	17	412	44.0	-223459.0	-2859.0	382354.0
24	17	9	17	413	45.0	-221815.0	-2884.0	382683.0
24	17	9	17	413	46.0	-220457.0	-2906.0	382627.0
24	17	9	17	414	47.0	-219806.0	-2927.0	382789.0
24	17	9	17	415	48.0	-218808.0	-2926.0	382967.0
24	17	9	17	415	49.0	-217219.0	-2934.0	383462.0
24	17	9	17	416	50.0	-214746.0	-2951.0	384493.0
24	17	9	17	429	51.0	-211804.0	-2959.0	385622.0
24	17	9	17	430	52.0	-208372.0	-2981.0	385721.0
24	17	9	17	431	53.0	-205061.0	-2997.0	385676.0
24	17	9	17	431	54.0	-201065.0	-3009.0	386041.0
24	17	9	17	432	55.0	-197152.0	-3014.0	385876.0
24	17	9	17	433	56.0	-192834.0	-3034.0	385737.0
24	17	9	17	471	57.0	-188489.0	-3030.0	386105.0
24	17	9	17	472	58.0	-184801.0	-3036.0	386259.0
24	17	9	17	473	59.0	-180901.0	-3049.0	386815.0
24	17	9	17	474	60.0	-178069.0	-3048.0	387502.0
24	17	9	17	474	61.0	-175762.0	-3057.0	387619.0
24	17	9	17	503	62.0	-173683.0	-3062.0	388094.0
24	17	9	17	505	63.0	-171897.0	-3063.0	388679.0
24	17	9	17	506	64.0	-170177.0	-3064.0	389359.0
24	17	9	17	506	65.0	-168307.0	-3053.0	389249.0
24	17	9	17	507	66.0	-166720.0	-3049.0	389033.0
24	17	9	17	507	67.0	-164752.0	-3057.0	390311.0
24	17	9	17	508	68.0	-163279.0	-3051.0	391951.0
24	17	9	17	509	69.0	-161706.0	-3041.0	394530.0
24	17	9	17	509	70.0	-160866.0	-3046.0	397499.0
24	17	9	17	510	71.0	-159924.0	-3031.0	399924.0
24	17	9	17	510	72.0	-159556.0	-3036.0	401093.0
24	17	9	17	511	79.0	-175026.0	-3019.0	407319.0
24	17	9	17	511	80.0	-179226.0	-3005.0	408612.0
24	17	9	17	512	81.0	-183940.0	-2999.0	410069.0
24	17	9	17	512	82.0	-188178.0	-2978.0	411518.0
24	17	9	17	513	83.0	-192248.0	-2959.0	412856.0
24	17	9	17	513	84.0	-195459.0	-2956.0	414166.0
24	17	9	17	514	85.0	-198622.0	-2936.0	414951.0
24	17	9	17	515	86.0	-200862.0	-2923.0	416257.0
24	17	9	17	515	87.0	-202735.0	-2919.0	420244.0
24	17	9	17	516	88.0	-204642.0	-2888.0	423902.0
24	17	9	17	516	89.0	-206891.0	-2871.0	426679.0
24	17	9	17	517	90.0	-208738.0	-2866.0	429585.0
24	17	9	17	517	91.0	-210609.0	-2885.0	432809.0
24	17	9	17	518	92.0	-212255.0	-2903.0	436008.0
24	17	9	17	518	93.0	-213428.0	-2900.0	438825.0
24	17	9	17	519	94.0	-214116.0	-2887.0	440469.0
24	17	9	17	520	95.0	-214930.0	-2877.0	441707.0
24	17	9	17	520	96.0	-216381.0	-2872.0	442579.0
24	17	9	17	521	97.0	-217262.0	-2876.0	442889.0
24	17	9	17	521	98.0	-218144.0	-2888.0	443764.0
24	17	9	17	522	99.0	-219074.0	-2902.0	444631.0
24	17	9	17	530	100.0	-220068.0	-2899.0	444934.0
24	17	9	17	530	101.0	-220456.0	-2899.0	445624.0
24	17	9	17	531	102.0	-220795.0	-2902.0	446477.0
24	17	9	17	553	103.0	-221354.0	-2896.0	448193.0
24	17	9	17	553	104.0	-220878.0	-2927.0	449736.0
24	17	9	17	554	105.0	-219449.0	-2947.0	451596.0
24	17	9	17	554	106.0	-218532.0	-2948.0	453445.0
24	17	9	17	555	107.0	-217517.0	-2949.0	454695.0
24	17	9	17	555	108.0	-216947.0	-2974.0	456326.0
24	17	9	17	556	109.0	-216411.0	-2997.0	457906.0
24	17	9	17	557	110.0	-215687.0	-2980.0	459326.0
24	17	9	17	557	111.0	-214688.0	-2987.0	461783.0
24	17	9	17	558	112.0	-213459.0	-3003.0	463108.0
24	17	9	17	558	113.0	-212336.0	-3025.0	464174.0
24	17	9	17	559	114.0	-210709.0	-3028.0	465941.0
24	17	9	17	559	115.0	-208881.0	-3073.0	466731.0
24	17	9	17	560	116.0	-206386.0	-3095.0	466214.0
24	17	9	17	560	117.0	-203403.0	-3095.0	465517.0
24	17	9	17	561	118.0	-200524.0	-3074.0	465753.0
24	17	9	17	562	119.0	-197664.0	-3084.0	467763.0
24	17	9	17	562	120.0	-194731.0	-3096.0	469591.0
24	17	9	17	563	121.0	-192367.0	-3101.0	471364.0
24	17	9	17	563	122.0	-190949.0	-3106.0	472736.0
24	17	9	17	564	123.0	-189392.0	-3127.0	473616.0
24	17	9	17	576	124.0	-188633.0	-3144.0	474866.0
24	17	9	17	577	125.0	-189587.0	-3152.0	475780.0
24	17	9	17	577	126.0	-191554.0	-3187.0	476198.0
24	17	9	17	578	127.0	-194245.0	-3202.0	476968.0
24	17	9	17	579	128.0	-197462.0	-3224.0	478578.0
24	17	9	17	579	129.0	-201082.0	-3246.0	480249.0
24	17	9	17	580	130.0	-204028.0	-3274.0	482134.0
24	17	9	17	580	131.0	-207376.0	-3300.0	483239.0
24	17	9	17	581	132.0	-211311.0	-3313.0	483684.0
24	17	9	17	600	133.0	-215794.0	-3313.0	484433.0
24	17	9	17	601	134.0	-220608.0	-3342.0	485061.0
24	17	9	17	601	135.0	-225928.0	-3357.0	485975.0
24	17	9	17	602	136.0	-231293.0	-3383.0	486431.0
24	17	9	17	603	137.0	-236669.0	-3419.0	486776.0
24	17	9	17	603	138.0	-241519.0	-3426.0	487769.0
24	17	9	17	604	139.0	-246201.0	-3460.0	489256.0
24	17	9	17	623	140.0	-250090.0	-3471.0	490923.0
24	17	9	17	624	141.0	-253438.0	-3484.0	492009.0
24	17	9	17	625	142.0	-256342.0	-3516.0	492288.0
24	17	9	17	625	143.0	-258534.0	-3558.0	492837.0
24	17	9	17	626	144.0	-260726.0	-3587.0	493184.0
24	17	9	17	626	145.0	-262709.0	-3612.0	492943.0
24	17	9	17	627	146.0	-264577.0	-3642.0	493731.0
24	17	9	17	648	147.0	-266992.0	-3668.0	494066.0
24	17	9	17	648	148.0	-269546.0	-3704.0	494234.0
24	17	9	17	649	149.0	-271421.0	-3728.0	495264.0
24	17	9	17	649	150.0	-272227.0	-3759.0	496614.0
24	17	9	17	650	151.0	-272245.0	-3796.0	497488.0
24	17	9	17	651	152.0	-271421.0	-3817.0	497693.0
24	17	9	17	651	153.0	-269358.0	-3867.0	498562.0
24	17	9	17	652	154.0	-266209.0	-3906.0	499137.0
24	17	9	17	652	155.0	-262785.0	-3915.0	499793.0
24	17	9	17	653	156.0	-258105.0	-3941.0	500555.0
24	17	9	17	653	157.0	-252287.0	-3952.0	501096.0
24	17	9	17	654	158.0	-246499.0	-3998.0	502058.0
24	17	9	17	655	159.0	-240498.0	-4018.0	503238.0
24	17	9	17	655	160.0	-233899.0	-4048.0	504942.0
24	17	9	17	656	161.0	-227374.0	-4079.0	505934.0
24	17	9	17	656	162.0	-221441.0	-4116.0	506053.0
24	17	9	17	657	163.0	-216224.0	-4141.0	506707.0
24	17	9	17	657	164.0	-211118.0	-4172.0	507405.0
24	17	9	17	658	165.0	-206373.0	-4164.0	508101.0
24	17	9	17	658	166.0	-202321.0	-4184.0	509149.0
24	17	9	17	659	167.0	-199012.0	-4228.0	510344.0
24	17	9	17	670	168.0	-196046.0	-4265.0	511486.0
24	17	9	17	671	169.0	-193338.0	-4257.0	513017.0
24	17	9	17	671	170.0	-191420.0	-4291.0	514745.0
24	17	9	17	672	171.0	-189304.0	-4312.0	516649.0
24	17	9	17	672	172.0	-187412.0	-4344.0	518439.0
24	17	9	17	673	173.0	-186123.0	-4360.0	519538.0
24	17	9	17	674	174.0	-185560.0	-4406.0	519769.0
24	17	9	17	674	175.0	-185011.0	-4437.0	519103.0
24	17	9	17	675	176.0	-184955.0	-4479.0	516334.0
24	17	9	17	675	177.0	-185536.0	-4489.0	512450.0
24	17	9	17	694	178.0	-187466.0	-4502.0	507482.0
24	17	9	17	695	179.0	-190606.0	-4510.0	501940.0
24	17	9	17	696	180.0	-195627.0	-4546.0	497038.0
24	17	9	17	696	181.0	-201752.0	-4571.0	491357.0
24	17	9	17	697	182.0	-208486.0	-4582.0	484852.0
24	17	9	17	697	183.0	-215911.0	-4610.0	477116.0
24	17	9	17	698	184.0	-223886.0	-4657.0	470219.0
24	17	9	17	699	185.0	-232395.0	-4659.0	464847.0
24	17	9	17	699	186.0	-240034.0	-4697.0	460500.0
24	17	9	17	700	187.0	-246725.0	-4722.0	457166.0
24	17	9	17	700	188.0	-252306.0	-4750.0	458093.0
24	17	9	17	701	189.0	-256806.0	-4786.0	464040.0
24	17	9	17	701	190.0	-259049.0	-4816.0	471395.0
24	17	9	17	702	191.0	-259787.0	-4848.0	479771.0
24	17	9	17	703	192.0	-259014.0	-4878.0	491984.0
24	17	9	17	703	193.0	-257802.0	-4904.0	502883.0
24	17	9	17	718	194.0	-256183.0	-4921.0	507672.0
24	17	9	17	718	195.0	-254737.0	-4929.0	511413.0
24	17	9	17	719	196.0	-253222.0	-4956.0	512937.0
24	17	9	17	719	197.0	-250959.0	-4985.0	512794.0
24	17	9	17	720	198.0	-248166.0	-5013.0	513129.0
24	17	9	17	740	199.0	-244084.0	-5036.0	513304.0
24	17	9	17	741	200.0	-238552.0	-5043.0	513991.0
24	17	9	17	742	201.0	-231434.0	-5079.0	515121.0
24	17	9	17	742	202.0	-223786.0	-5102.0	515599.0
24	17	9	17	743	203.0	-214859.0	-5126.0	515018.0
24	17	9	17	743	204.0	-204661.0	-5151.0	514854.0
24	17	9	17	744	205.0	-189059.0	-5174.0	515527.0
24	17	9	17	744	206.0	-166710.0	-5192.0	515982.0
24	17	9	17	745	207.0	-140291.0	-5229.0	516532.0
24	17	9	17	746	208.0	-116362.0	-5229.0	517461.0
24	17	9	17	746	209.0	-101112.0	-5231.0	517930.0
24	17	9	17	747	210.0	-96521.0	-5251.0	517895.0
24	17	9	17	747	211.0	-100809.0	-5279.0	518131.0
24	17	9	17	748	212.0	-111182.0	-5301.0	518060.0
24	17	9	17	748	213.0	-126677.0	-5316.0	518388.0
24	17	9	17	749	214.0	-144549.0	-5349.0	518063.0
24	17	9	17	770	215.0	-162141.0	-5366.0	517728.0
24	17	9	17	771	216.0	-176475.0	-5365.0	517000.0
24	17	9	17	771	217.0	-188658.0	-5389.0	516393.0
24	17	9	17	772	218.0	-199959.0	-5432.0	516650.0
24	17	9	17	773	219.0	-210801.0	-5444.0	516924.0
24	17	9	17	773	220.0	-220362.0	-5467.0	516838.0
24	17	9	17	774	221.0	-229913.0	-5496.0	516793.0
24	17	9	17	775	222.0	-240587.0	-5512.0	516402.0
24	17	9	17	775	223.0	-252387.0	-5535.0	515743.0
24	17	9	17	776	224.0	-266201.0	-5559.0	514958.0
24	17	9	17	776	225.0	-281829.0	-5569.0	514328.0
24	17	9	17	777	226.0	-299907.0	-5578.0	514058.0
24	17	9	17	778	227.0	-319903.0	-5601.0	513651.0
24	17	9	17	778	228.0	-339763.0	-5622.0	512863.0
24	17	9	17	779	229.0	-354255.0	-5635.0	512738.0
24	17	9	17	780	230.0	-360352.0	-5641.0	512796.0
24	17	9	17	780	231.0	-356983.0	-5665.0	512549.0
24	17	9	17	781	232.0	-345812.0	-5686.0	512107.0
24	17	9	17	794	233.0	-328902.0	-5701.0	511522.0
24	17	9	17	794	234.0	-308555.0	-5691.0	511073.0
24	17	9	17	795	235.0	-286897.0	-5708.0	510631.0
24	17	9	17	817	236.0	-266161.0	-5739.0	510091.0
24	17	9	17	818	237.0	-248125.0	-5750.0	509587.0
24	17	9	17	819	238.0	-232237.0	-5789.0	509147.0
24	17	9	17	819	239.0	-220162.0	-5813.0	509338.0
24	17	9	17	820	240.0	-210571.0	-5839.0	510053.0
24	17	9	17	820	241.0	-202946.0	-5861.0	509746.0
24	17	9	17	821	242.0	-195819.0	-5877.0	509246.0
24	17	9	17	821	243.0	-189621.0	-5889.0	509120.0
24	17	9	17	822	244.0	-183808.0	-5900.0	509033.0
24	17	9	17	822	245.0	-178489.0	-5897.0	508505.0
24	17	9	17	823	246.0	-172976.0	-5913.0	508151.0
24	17	9	17	823	247.0	-167802.0	-5924.0	508266.0
24	17	9	17	824	248.0	-162673.0	-5947.0	508144.0
24	17	9	17	825	249.0	-156864.0	-5963.0	508218.0
24	17	9	17	825	250.0	-150186.0	-5972.0	508934.0
24	17	9	17	826	251.0	-143072.0	-6010.0	509200.0
24	17	9	17	841	252.0	-137156.0	-6034.0	509088.0
24	17	9	17	842	253.0	-131517.0	-6038.0	509595.0
24	17	9	17	842	254.0	-126380.0	-6053.0	510878.0
24	17	9	17	843	255.0	-122651.0	-6061.0	514385.0
24	17	9	17	843	0.0	-121488.0	-6071.0	520013.0
24	17	9	17	844	1.0	-121927.0	-6102.0	526699.0
24	17	9	17	844	2.0	-123896.0	-6117.0	533546.0
24	17	9	17	845	3.0	-127787.0	-6148.0	539111.0
24	17	9	17	865	4.0	-133141.0	-6152.0	542804.0
24	17	9	17	865	5.0	-139671.0	-6147.0	545711.0
24	17	9	17	866	6.0	-147181.0	-6160.0	548261.0
24	17	9	17	866	7.0	-155712.0	-6185.0	550534.0
24	17	9	17	867	8.0	-164626.0	-6198.0	552293.0
24	17	9	17	887	9.0	-174313.0	-6206.0	552936.0
24	17	9	17	888	10.0	-184458.0	-6209.0	553228.0
24	17	9	17	889	11.0	-195002.0	-6224.0	554481.0
24	17	9	17	889	12.0	-205227.0	-6248.0	555695.0
24	17	9	17	890	13.0	-215307.0	-6242.0	557974.0
24	17	9	17	890	14.0	-225191.0	-6256.0	559888.0
24	17	9	17	891	15.0	-235020.0	-6298.0	561369.0
24	17	9	17	892	16.0	-244616.0	-6297.0	562575.0
24	17	9	17	892	17.0	-253957.0	-6317.0	563957.0
24	17	9	17	893	18.0	-263142.0	-6350.0	564184.0
24	17	9	17	893	19.0	-271838.0	-6302.0	564750.0
24	17	9	17	894	20.0	-279789.0	-6325.0	564868.0
24	17	9	17	894	21.0	-286822.0	-6350.0	565485.0
24	17	9	17	895	22.0	-293052.0	-6372.0	566263.0
24	17	9	17	895	23.0	-299149.0	-6390.0	566889.0
24	17	9	17	896	24.0	-304522.0	-6398.0	567111.0
24	17	9	17	897	25.0	-308811.0	-6392.0	567609.0
24	17	9	17	897	26.0	-312524.0	-6376.0	568251.0
24	17	9	17	898	27.0	-315134.0	-6355.0	567548.0
24	17	9	17	898	28.0	-316456.0	-6345.0	567584.0
24	17	9	17	899	29.0	-316606.0	-6338.0	568006.0
24	17	9	17	899	30.0	-315043.0	-6327.0	567858.0
24	17	9	17	900	31.0	-312195.0	-6304.0	567813.0
24	17	9	17	900	32.0	-308023.0	-6291.0	568906.0
24	17	9	17	910	33.0	-301924.0	-6272.0	569869.0
24	17	9	17	911	34.0	-294204.0	-6221.0	570335.0
24	17	9	17	911	35.0	-284968.0	-6217.0	570894.0
24	17	9	17	912	36.0	-274807.0	-6181.0	571348.0
24	17	9	17	912	37.0	-263988.0	-6151.0	571078.0
24	17	9	17	913	38.0	-253012.0	-6121.0	570984.0
24	17	9	17	913	39.0	-242089.0	-6077.0	570819.0
24	17	9	17	914	40.0	-231401.0	-6054.0	570594.0
24	17	9	17	934	41.0	-221128.0	-6008.0	571233.0
24	17	9	17	934	42.0	-211271.0	-5956.0	572075.0
24	17	9	17	935	43.0	-202465.0	-5909.0	572764.0
24	17	9	17	936	44.0	-193864.0	-5840.0	572506.0
24	17	9	17	936	45.0	-186437.0	-5779.0	572827.0
24	17	9	17	937	46.0	-179609.0	-5726.0	573224.0
24	17	9	17	937	47.0	-173591.0	-5674.0	572756.0
24	17	9	17	938	48.0	-168493.0	-5614.0	572641.0
24	17	9	17	939	49.0	-164199.0	-5526.0	573100.0
24	17	9	17	939	50.0	-160982.0	-5417.0	572715.0
24	17	9	17	940	51.0	-159156.0	-5353.0	572949.0
24	17	9	17	941	52.0	-158403.0	-5283.0	573956.0
24	17	9	17	941	53.0	-158715.0	-5196.0	574998.0
24	17	9	17	942	54.0	-160181.0	-5132.0	575326.0
24	17	9	17	942	55.0	-162266.0	-5094.0	575299.0
24	17	9	17	943	56.0	-165162.0	-5019.0	575558.0
24	17	9	17	943	57.0	-168976.0	-4916.0	575164.0
24	17	9	17	955	58.0	-173539.0	-4821.0	574868.0
24	17	9	17	956	59.0	-178421.0	-4729.0	574843.0
24	17	9	17	956	60.0	-184071.0	-4638.0	574341.0
24	17	9	17	957	61.0	-190435.0	-4566.0	574300.0
24	17	9	17	958	62.0	-197236.0	-4504.0	574790.0
24	17	9	17	978	63.0	-203614.0	-4412.0	575341.0
24	17	9	17	979	64.0	-208921.0	-4324.0	575895.0
24	17	9	17	979	65.0	-213672.0	-4247.0	575758.0
24	17	9	17	980	66.0	-217905.0	-4172.0	575089.0
24	17	9	17	981	67.0	-221714.0	-4092.0	574752.0
24	17	9	17	981	68.0	-224478.0	-4026.0	574433.0
24	17	9	17	982	69.0	-226827.0	-3932.0	574189.0
24	17	9	17	982	70.0	-228274.0	-3851.0	573829.0
24	17	9	17	983	71.0	-228574.0	-3770.0	573506.0
24	17	9	17	984	72.0	-227774.0	-3678.0	573436.0
24	17	9	17	984	73.0	-226483.0	-3599.0	573091.0
24	17	9	17	985	74.0	-224854.0	-3558.0	573049.0
24	17	9	17	985	75.0	-223747.0	-3494.0	572696.0
24	17	9	17	986	76.0	-222648.0	-3429.0	572034.0
24	17	9	17	986	77.0	-220138.0	-3371.0	571610.0
24	17	9	17	987	78.0	-216576.0	-3296.0	571169.0
24	17	9	18	0	79.0	-214439.0	-3203.0	570501.0
24	17	9	18	1	80.0	-214576.0	-3152.0	569970.0
24	17	9	18	2	81.0	-214218.0	-3102.0	569183.0
24	17	9	18	2	82.0	-219551.0	-3054.0	568907.0
24	17	9	18	3	83.0	-230499.0	-3002.0	569041.0
24	17	9	18	4	84.0	-237853.0	-2963.0	569007.0
24	17	9	18	4	85.0	-240803.0	-2908.0	568554.0
24	17	9	18	23	86.0	-240854.0	-2859.0	568555.0
24	17	9	18	24	87.0	-237601.0	-2796.0	568403.0
24	17	9	18	25	88.0	-233226.0	-2738.0	567699.0
24	17	9	18	26	89.0	-228062.0	-2710.0	567234.0
24	17	9	18	26	90.0	-221499.0	-2671.0	567443.0
24	17	9	18	27	91.0	-214332.0	-2639.0	567741.0
24	17	9	18	28	92.0	-206806.0	-2623.0	567839.0
24	17	9	18	28	93.0	-200021.0	-2567.0	567961.0
24	17	9	18	29	94.0	-195292.0	-2543.0	567495.0
24	17	9	18	29	95.0	-193096.0	-2510.0	566454.0
24	17	9	18	30	96.0	-192668.0	-2491.0	565684.0
24	17	9	18	31	97.0	-194023.0	-2481.0	564781.0
24	17	9	18	31	98.0	-196873.0	-2469.0	564093.0
24	17	9	18	32	99.0	-199078.0	-2461.0	562831.0
24	17	9	18	32	100.0	-200767.0	-2457.0	561960.0
24	17	9	18	33	101.0	-202426.0	-2420.0	561703.0
24	17	9	18	34	102.0	-203247.0	-2407.0	561198.0
24	17	9	18	34	103.0	-202902.0	-2394.0	560624.0
24	17	9	18	46	104.0	-201652.0	-2372.0	559936.0
24	17	9	18	46	105.0	-199049.0	-2352.0	559004.0
24	17	9	18	47	106.0	-195079.0	-2351.0	558060.0
24	17	9	18	69	107.0	-190445.0	-2364.0	556510.0
24	17	9	18	69	108.0	-185710.0	-2346.0	554600.0
24	17	9	18	70	109.0	-182080.0	-2337.0	552987.0
24	17	9	18	71	110.0	-180611.0	-2354.0	552091.0
24	17	9	18	71	111.0	-181646.0	-2354.0	551408.0
24	17	9	18	72	112.0	-184802.0	-2349.0	550268.0
24	17	9	18	73	113.0	-189199.0	-2346.0	549743.0
24	17	9	18	73	114.0	-194269.0	-2347.0	549073.0
24	17	9	18	74	115.0	-198837.0	-2357.0	547805.0
24	17	9	18	74	116.0	-202410.0	-2363.0	546686.0
24	17	9	18	75	117.0	-204402.0	-2361.0	545208.0
24	17	9	18	75	118.0	-204600.0	-2360.0	543503.0
24	17	9	18	76	119.0	-203582.0	-2357.0	542123.0
24	17	9	18	76	120.0	-202507.0	-2382.0	541022.0
24	17	9	18	77	121.0	-200843.0	-2387.0	540259.0
24	17	9	18	78	122.0	-199268.0	-2385.0	539540.0
24	17	9	18	91	123.0	-197563.0	-2409.0	538682.0
24	17	9	18	92	124.0	-196532.0	-2410.0	537589.0
24	17	9	18	93	125.0	-196013.0	-2421.0	536777.0
24	17	9	18	93	126.0	-195638.0	-2429.0	535482.0
24	17	9	18	94	127.0	-195398.0	-2453.0	534160.0
24	17	9	18	94	128.0	-195969.0	-2461.0	533158.0
24	17	9	18	95	129.0	-196812.0	-2477.0	532586.0
24	17	9	18	95	130.0	-197404.0	-2492.0	531399.0
24	17	9	18	114	131.0	-198014.0	-2487.0	530456.0
24	17	9	18	115	132.0	-198804.0	-2480.0	530386.0
24	17	9	18	116	133.0	-199527.0	-2487.0	530258.0
24	17	9	18	116	134.0	-199931.0	-2514.0	529511.0
24	17	9	18	117	135.0	-199580.0	-2528.0	528393.0
24	17	9	18	118	136.0	-198527.0	-2551.0	527489.0
24	17	9	18	118	137.0	-197462.0	-2579.0	526656.0
24	17	9	18	119	138.0	-196192.0	-2614.0	526032.0
24	17	9	18	119	139.0	-194652.0	-2610.0	525353.0
24	17	9	18	120	140.0	-193564.0	-2612.0	524335.0
24	17	9	18	121	141.0	-193309.0	-2622.0	524019.0
24	17	9	18	121	142.0	-193876.0	-2651.0	524517.0
24	17	9	18	122	143.0	-195234.0	-2672.0	524249.0
24	17	9	18	122	144.0	-197404.0	-2680.0	523370.0
24	17	9	18	123	145.0	-200395.0	-2716.0	522643.0
24	17	9	18	137	146.0	-203551.0	-2695.0	521729.0
24	17	9	18	138	147.0	-207711.0	-2681.0	520099.0
24	17	9	18	138	148.0	-212205.0	-2695.0	518548.0
24	17	9	18	139	149.0	-217255.0	-2706.0	518188.0
24	17	9	18	140	150.0	-222769.0	-2719.0	517406.0
24	17	9	18	140	151.0	-227665.0	-2741.0	516981.0
24	17	9	18	141	152.0	-232068.0	-2750.0	517428.0
24	17	9	18	162	153.0	-236014.0	-2772.0	517407.0
24	17	9	18	162	154.0	-239791.0	-2773.0	516198.0
24	17	9	18	163	155.0	-243511.0	-2765.0	515679.0
24	17	9	18	163	156.0	-247716.0	-2786.0	515187.0
24	17	9	18	164	157.0	-251514.0	-2805.0	514353.0
24	17	9	18	165	158.0	-255392.0	-2798.0	513403.0
24	17	9	18	165	159.0	-259856.0	-2819.0	512807.0
24	17	9	18	166	160.0	-264396.0	-2831.0	512490.0
24	17	9	18	185	161.0	-268134.0	-2824.0	512354.0
24	17	9	18	186	162.0	-271129.0	-2837.0	512461.0
24	17	9	18	187	163.0	-273322.0	-2849.0	512357.0
24	17	9	18	187	164.0	-273937.0	-2868.0	512504.0
24	17	9	18	188	165.0	-273055.0	-2865.0	512620.0
24	17	9	18	188	166.0	-270912.0	-2859.0	512084.0
24	17	9	18	189	167.0	-267656.0	-2861.0	511244.0
24	17	9	18	190	168.0	-263247.0	-2859.0	510609.0
24	17	9	18	190	169.0	-257807.0	-2861.0	510170.0
24	17	9	18	191	170.0	-251364.0	-2882.0	509519.0
24	17	9	18	191	171.0	-243679.0	-2881.0	509634.0
24	17	9	18	192	172.0	-234919.0	-2879.0	509759.0
24	17	9	18	193	173.0	-225966.0	-2896.0	510027.0
24	17	9	18	193	174.0	-216902.0	-2903.0	510234.0
24	17	9	18	194	175.0	-207315.0	-2899.0	510026.0
24	17	9	18	195	176.0	-198169.0	-2890.0	509590.0
24	17	9	18	195	177.0	-189656.0	-2902.0	509228.0
24	17	9	18	196	178.0	-181807.0	-2900.0	509078.0
24	17	9	18	196	179.0	-174793.0	-2911.0	508238.0
24	17	9	18	197	180.0	-168861.0	-2923.0	507608.0
24	17	9	18	198	181.0	-163990.0	-2908.0	507238.0
24	17	9	18	198	182.0	-159976.0	-2924.0	507018.0
24	17	9	18	199	183.0	-156840.0	-2927.0	506738.0
24	17	9	18	200	184.0	-154598.0	-2922.0	506485.0
24	17	9	18	200	185.0	-153315.0	-2911.0	505563.0
24	17	9	18	201	186.0	-153599.0	-2909.0	504282.0
24	17	9	18	209	187.0	-155476.0	-2904.0	503514.0
24	17	9	18	210	188.0	-158798.0	-2881.0	503148.0
24	17	9	18	232	189.0	-163462.0	-2882.0	502191.0
24	17	9	18	233	190.0	-169255.0	-2888.0	501369.0
24	17	9	18	234	191.0	-175872.0	-2889.0	501058.0
24	17	9	18	234	192.0	-183186.0	-2917.0	501143.0
24	17	9	18	235	193.0	-190166.0	-2915.0	501022.0
24	17	9	18	235	194.0	-196647.0	-2937.0	500951.0
24	17	9	18	236	195.0	-202710.0	-2939.0	500141.0
24	17	9	18	237	196.0	-207954.0	-2949.0	498904.0
24	17	9	18	238	197.0	-212432.0	-2941.0	498653.0
24	17	9	18	238	198.0	-215919.0	-2960.0	497908.0
24	17	9	18	239	199.0	-219024.0	-2961.0	496809.0
24	17	9	18	239	200.0	-221292.0	-2937.0	496371.0
24	17	9	18	240	201.0	-222954.0	-2930.0	496178.0
24	17	9	18	241	202.0	-223842.0	-2954.0	495919.0
24	17	9	18	241	203.0	-224029.0	-2967.0	495350.0
24	17	9	18	265	204.0	-224014.0	-2980.0	494959.0
24	17	9	18	266	205.0	-223924.0	-2996.0	494817.0
24	17	9	18	266	206.0	-223773.0	-2976.0	494669.0
24	17	9	18	267	207.0	-223321.0	-2967.0	494339.0
24	17	9	18	268	208.0	-223192.0	-2992.0	494554.0
24	17	9	18	268	209.0	-223037.0	-3005.0	494073.0
24	17	9	18	269	210.0	-222614.0	-3038.0	493821.0
24	17	9	18	270	211.0	-221319.0	-3065.0	493760.0
24	17	9	18	270	212.0	-219099.0	-3058.0	493868.0
24	17	9	18	271	213.0	-216525.0	-3067.0	493856.0
24	17	9	18	272	214.0	-213259.0	-3101.0	493669.0
24	17	9	18	273	215.0	-209517.0	-3112.0	493382.0
24	17	9	18	273	216.0	-204948.0	-3107.0	493046.0
24	17	9	18	274	217.0	-199374.0	-3130.0	492910.0
24	17	9	18	275	218.0	-193064.0	-3141.0	492412.0
24	17	9	18	275	219.0	-186671.0	-3171.0	491291.0
24	17	9	18	276	220.0	-180282.0	-3201.0	490306.0
24	17	9	18	276	221.0	-174216.0	-3189.0	489779.0
24	17	9	18	277	222.0	-168250.0	-3213.0	489534.0
24	17	9	18	296	223.0	-163123.0	-3241.0	489307.0
24	17	9	18	297	224.0	-159550.0	-3241.0	489044.0
24	17	9	18	297	225.0	-157096.0	-3246.0	488578.0
24	17	9	18	298	226.0	-155919.0	-3240.0	487965.0
24	17	9	18	299	227.0	-156208.0	-3258.0	487581.0
24	17	9	18	299	228.0	-158264.0	-3273.0	487420.0
24	17	9	18	300	229.0	-161141.0	-3267.0	486592.0
24	17	9	18	301	230.0	-164768.0	-3296.0	485898.0
24	17	9	18	302	231.0	-169067.0	-3330.0	485747.0
24	17	9	18	302	232.0	-173655.0	-3347.0	486164.0
24	17	9	18	303	233.0	-178470.0	-3360.0	486006.0
24	17	9	18	303	234.0	-183157.0	-3374.0	484990.0
24	17	9	18	304	235.0	-188633.0	-3391.0	484233.0
24	17	9	18	312	236.0	-195343.0	-3389.0	483934.0
24	17	9	18	313	237.0	-202946.0	-3393.0	483286.0
24	17	9	18	313	238.0	-210202.0	-3424.0	482554.0
24	17	9	18	320	239.0	-217298.0	-3432.0	481872.0
24	17	9	18	322	240.0	-224145.0	-3437.0	481053.0
24	17	9	18	324	241.0	-229910.0	-3464.0	480803.0
24	17	9	18	325	242.0	-233872.0	-3503.0	481393.0
24	17	9	18	325	243.0	-236934.0	-3501.0	481781.0
24	17	9	18	326	244.0	-239334.0	-3514.0	481356.0
24	17	9	18	340	245.0	-241017.0	-3536.0	480490.0
24	17	9	18	341	246.0	-241314.0	-3581.0	480083.0
24	17	9	18	341	247.0	-240774.0	-3589.0	479698.0
24	17	9	18	342	248.0	-239991.0	-3606.0	478449.0
24	17	9	18	342	249.0	-239105.0	-3638.0	477519.0
24	17	9	18	343	250.0	-237496.0	-3659.0	477114.0
24	17	9	18	344	251.0	-235327.0	-3661.0	477480.0
24	17	9	18	344	252.0	-232639.0	-3701.0	477713.0
24	17	9	18	345	253.0	-229251.0	-3715.0	477034.0
24	17	9	18	345	254.0	-224842.0	-3731.0	475892.0
24	17	9	18	346	255.0	-219527.0	-3762.0	475641.0
24	17	9	18	346	0.0	-213950.0	-3790.0	475098.0
24	17	9	18	347	1.0	-208442.0	-3824.0	474252.0
24	17	9	18	347	2.0	-202764.0	-3822.0	473321.0
24	17	9	18	348	3.0	-197349.0	-3844.0	472403.0
24	17	9	18	349	4.0	-192494.0	-3862.0	471821.0
