24	17	6	6	459	40.0	-186857.0	-4337.0	-9321.0
24	17	6	6	461	41.0	-194041.0	-4370.0	-9867.0
24	17	6	6	463	42.0	-187389.0	-4386.0	-10016.0
24	17	6	6	465	43.0	-194697.0	-4414.0	-10149.0
24	17	6	6	467	44.0	-188810.0	-4431.0	-10861.0
24	17	6	6	469	45.0	-194235.0	-4428.0	-11951.0
24	17	6	6	470	46.0	-189661.0	-4437.0	-13118.0
24	17	6	6	472	47.0	-191310.0	-4462.0	-15066.0
24	17	6	6	474	48.0	-190986.0	-4489.0	-16116.0
24	17	6	6	475	49.0	-187246.0	-4497.0	-14602.0
24	17	6	6	475	50.0	-188951.0	-4529.0	-12163.0
24	17	6	6	485	51.0	-179200.0	-4534.0	-8711.0
24	17	6	6	486	52.0	-184966.0	-4554.0	-4601.0
24	17	6	6	487	53.0	-173969.0	-4538.0	-1121.0
24	17	6	6	487	54.0	-182024.0	-4556.0	2714.0
24	17	6	6	488	55.0	-171159.0	-4601.0	7118.0
24	17	6	6	488	56.0	-184132.0	-4604.0	10111.0
24	17	6	6	489	57.0	-176514.0	-4620.0	10618.0
24	17	6	6	490	58.0	-193383.0	-4639.0	8771.0
24	17	6	6	512	59.0	-186945.0	-4634.0	5942.0
24	17	6	6	513	60.0	-205350.0	-4647.0	3431.0
24	17	6	6	514	61.0	-198322.0	-4664.0	1338.0
24	17	6	6	514	62.0	-215406.0	-4689.0	9.0
24	17	6	6	536	63.0	-203908.0	-4713.0	63.0
24	17	6	6	569	64.0	-216297.0	-4701.0	261.0
24	17	6	6	569	65.0	-200891.0	-4708.0	-47.0
24	17	6	6	570	66.0	-199783.0	-4726.0	-94.0
24	17	6	6	571	67.0	-168644.0	-4721.0	174.0
24	17	6	6	571	68.0	-158372.0	-4721.0	-306.0
24	17	6	6	572	69.0	-133568.0	-4717.0	-914.0
24	17	6	6	573	70.0	-133638.0	-4723.0	-881.0
24	17	6	6	573	71.0	-127486.0	-4743.0	-871.0
24	17	6	6	574	72.0	-141014.0	-4741.0	-978.0
24	17	6	6	575	73.0	-158676.0	-4752.0	-966.0
24	17	6	6	575	74.0	-187192.0	-4757.0	-791.0
24	17	6	6	576	75.0	-218744.0	-4770.0	-1196.0
24	17	6	6	577	76.0	-239076.0	-4782.0	-986.0
24	17	6	6	578	77.0	-260988.0	-4782.0	-692.0
24	17	6	6	579	78.0	-258343.0	-4784.0	-846.0
24	17	6	6	580	99.0	-204201.0	-4657.0	-1657.0
24	17	6	6	580	100.0	-207778.0	-4676.0	-1737.0
24	17	6	6	581	101.0	-204724.0	-4655.0	-2022.0
24	17	6	6	581	102.0	-210730.0	-4634.0	-1934.0
24	17	6	6	582	103.0	-200600.0	-4615.0	-1712.0
24	17	6	6	582	104.0	-202847.0	-4590.0	-1861.0
24	17	6	6	583	105.0	-196309.0	-4578.0	-2185.0
24	17	6	6	614	106.0	-190189.0	-4549.0	-2351.0
24	17	6	6	614	107.0	-188427.0	-4529.0	-2294.0
24	17	6	6	615	108.0	-178356.0	-4527.0	-2426.0
24	17	6	6	616	109.0	-182899.0	-4500.0	-2337.0
24	17	6	6	616	110.0	-173824.0	-4496.0	-2599.0
24	17	6	6	617	111.0	-179827.0	-4487.0	-2826.0
24	17	6	6	617	112.0	-174389.0	-4462.0	-2732.0
24	17	6	6	618	113.0	-176265.0	-4450.0	-2606.0
24	17	6	6	619	114.0	-176786.0	-4440.0	-2540.0
24	17	6	6	619	115.0	-171389.0	-4415.0	-2725.0
24	17	6	6	620	116.0	-177687.0	-4407.0	-2893.0
24	17	6	6	620	117.0	-168547.0	-4383.0	-2819.0
24	17	6	6	621	118.0	-176244.0	-4361.0	-2936.0
24	17	6	6	622	119.0	-169153.0	-4337.0	-2887.0
24	17	6	6	623	120.0	-175181.0	-4332.0	-3046.0
24	17	6	6	623	122.0	-176700.0	-4307.0	-3409.0
24	17	6	6	624	123.0	-183862.0	-4272.0	-3154.0
24	17	6	6	625	124.0	-180604.0	-4239.0	-3204.0
24	17	6	6	705	125.0	-192389.0	-4212.0	-3337.0
24	17	6	6	706	126.0	-186439.0	-4177.0	-3616.0
24	17	6	6	706	127.0	-198483.0	-4169.0	-3504.0
24	17	6	6	707	128.0	-196250.0	-4135.0	-3559.0
24	17	6	6	708	129.0	-202245.0	-4107.0	-3564.0
24	17	6	6	708	130.0	-204901.0	-4069.0	-3651.0
24	17	6	6	709	131.0	-204746.0	-4034.0	-4046.0
24	17	6	6	709	132.0	-213977.0	-4038.0	-3861.0
24	17	6	6	710	133.0	-207747.0	-4015.0	-3683.0
24	17	6	6	710	134.0	-218292.0	-3971.0	-4077.0
24	17	6	6	711	135.0	-211427.0	-3932.0	-3837.0
24	17	6	6	711	136.0	-219565.0	-3913.0	-3841.0
24	17	6	6	712	137.0	-217846.0	-3894.0	-4212.0
24	17	6	6	713	138.0	-218851.0	-3864.0	-4269.0
24	17	6	6	713	139.0	-222905.0	-3844.0	-3860.0
24	17	6	6	714	140.0	-216844.0	-3805.0	-4236.0
24	17	6	6	714	167.0	-190532.0	-3113.0	-2092.0
24	17	6	6	715	168.0	-195842.0	-3116.0	-2122.0
24	17	6	6	715	169.0	-192789.0	-3084.0	-2251.0
24	17	6	6	716	170.0	-196616.0	-3061.0	-1968.0
24	17	6	6	716	171.0	-198067.0	-3029.0	-1692.0
24	17	6	6	717	172.0	-196252.0	-3026.0	-1156.0
24	17	6	6	749	173.0	-203317.0	-3001.0	-1166.0
24	17	6	6	749	174.0	-198741.0	-2985.0	-1307.0
24	17	6	6	750	175.0	-206842.0	-2946.0	-1222.0
24	17	6	6	751	176.0	-202447.0	-2929.0	-1045.0
24	17	6	6	751	177.0	-206249.0	-2924.0	-1199.0
24	17	6	6	752	178.0	-205439.0	-2912.0	-1009.0
24	17	6	6	752	179.0	-203337.0	-2894.0	-719.0
24	17	6	6	753	180.0	-207736.0	-2877.0	-562.0
24	17	6	6	753	181.0	-200879.0	-2869.0	-730.0
24	17	6	6	754	182.0	-208132.0	-2854.0	-622.0
24	17	6	6	755	183.0	-198742.0	-2826.0	-806.0
24	17	6	6	767	184.0	-205607.0	-2802.0	-939.0
24	17	6	6	768	185.0	-198549.0	-2787.0	-779.0
24	17	6	6	769	186.0	-200994.0	-2767.0	-851.0
24	17	6	6	769	187.0	-198875.0	-2776.0	-966.0
24	17	6	6	770	189.0	-199535.0	-2760.0	-261.0
24	17	6	6	770	190.0	-192170.0	-2726.0	-690.0
24	17	6	6	771	191.0	-201895.0	-2722.0	-882.0
24	17	6	6	771	192.0	-193119.0	-2723.0	-571.0
24	17	6	6	772	193.0	-204234.0	-2697.0	-231.0
24	17	6	6	772	194.0	-198122.0	-2663.0	-568.0
24	17	6	6	773	195.0	-206684.0	-2637.0	-491.0
24	17	6	6	793	196.0	-206025.0	-2626.0	-271.0
24	17	6	6	794	197.0	-208442.0	-2591.0	-557.0
24	17	6	6	795	198.0	-214189.0	-2561.0	-341.0
24	17	6	6	796	199.0	-209122.0	-2548.0	-235.0
24	17	6	6	796	200.0	-217464.0	-2534.0	-585.0
24	17	6	6	797	201.0	-206576.0	-2515.0	-241.0
24	17	6	6	797	202.0	-213784.0	-2502.0	-99.0
24	17	6	6	798	203.0	-203104.0	-2492.0	-293.0
24	17	6	6	799	204.0	-204712.0	-2471.0	-396.0
24	17	6	6	799	205.0	-193212.0	-2462.0	-367.0
24	17	6	6	800	206.0	-174259.0	-2447.0	-634.0
24	17	6	6	800	207.0	-156116.0	-2417.0	-576.0
24	17	6	6	801	208.0	-150201.0	-2391.0	-436.0
24	17	6	6	802	209.0	-178554.0	-2396.0	-535.0
24	17	6	6	802	210.0	-184866.0	-2391.0	-464.0
24	17	6	6	803	212.0	-218926.0	-2341.0	-197.0
24	17	6	6	803	213.0	-235076.0	-2326.0	-294.0
24	17	6	6	804	214.0	-242125.0	-2294.0	-114.0
24	17	6	6	804	215.0	-238392.0	-2272.0	-67.0
24	17	6	6	805	216.0	-241058.0	-2247.0	-203.0
24	17	6	6	806	217.0	-227581.0	-2245.0	-294.0
24	17	6	6	839	218.0	-229555.0	-2224.0	-281.0
24	17	6	6	840	219.0	-216687.0	-2196.0	-180.0
24	17	6	6	840	220.0	-220559.0	-2171.0	-422.0
24	17	6	6	841	221.0	-214332.0	-2154.0	-397.0
24	17	6	6	842	222.0	-215093.0	-2167.0	-373.0
24	17	6	6	842	223.0	-214216.0	-2144.0	-742.0
24	17	6	6	843	224.0	-208935.0	-2110.0	-807.0
24	17	6	6	843	225.0	-212161.0	-2102.0	-239.0
24	17	6	6	844	226.0	-200527.0	-2086.0	-396.0
24	17	6	6	845	227.0	-204245.0	-2064.0	-556.0
24	17	6	6	845	228.0	-185601.0	-2042.0	-294.0
24	17	6	6	846	229.0	-183830.0	-2042.0	-226.0
24	17	6	6	846	230.0	-163393.0	-2027.0	-287.0
24	17	6	6	847	231.0	-159217.0	-2003.0	-371.0
24	17	6	6	847	232.0	-146116.0	-1979.0	-401.0
24	17	6	6	848	234.0	-142607.0	-1958.0	-646.0
24	17	6	6	849	235.0	-142527.0	-1933.0	-584.0
24	17	6	6	849	236.0	-156116.0	-1925.0	-477.0
24	17	6	6	850	237.0	-155341.0	-1887.0	-609.0
24	17	6	6	850	238.0	-174142.0	-1864.0	-240.0
24	17	6	6	851	239.0	-169744.0	-1822.0	-399.0
24	17	6	6	851	240.0	-188889.0	-1788.0	-277.0
24	17	6	6	931	241.0	-181667.0	-1766.0	-377.0
24	17	6	6	931	242.0	-198106.0	-1729.0	-517.0
24	17	6	6	932	243.0	-190853.0	-1711.0	-279.0
24	17	6	6	932	244.0	-202772.0	-1697.0	-314.0
24	17	6	6	933	245.0	-197392.0	-1679.0	-568.0
24	17	6	6	934	246.0	-202940.0	-1644.0	-330.0
24	17	6	6	934	247.0	-202345.0	-1637.0	-11.0
24	17	6	6	935	248.0	-201711.0	-1601.0	-211.0
24	17	6	6	935	249.0	-205602.0	-1581.0	-601.0
24	17	6	6	936	250.0	-199461.0	-1556.0	-371.0
24	17	6	6	936	251.0	-208949.0	-1523.0	-12.0
24	17	6	6	937	252.0	-198926.0	-1495.0	-231.0
24	17	6	6	938	253.0	-212583.0	-1477.0	-170.0
24	17	6	6	938	254.0	-200628.0	-1464.0	-339.0
24	17	6	6	939	255.0	-216363.0	-1414.0	-465.0
24	17	6	6	939	1.0	-218854.0	-1336.0	-199.0
24	17	6	6	940	23.0	-205240.0	-632.0	-109.0
24	17	6	6	941	24.0	-202336.0	-624.0	290.0
24	17	6	6	941	25.0	-206467.0	-580.0	294.0
24	17	6	6	942	26.0	-199401.0	-524.0	55.0
24	17	6	6	942	27.0	-207165.0	-497.0	379.0
24	17	6	6	943	28.0	-197503.0	-482.0	36.0
24	17	6	6	943	29.0	-207289.0	-449.0	-426.0
24	17	6	6	975	30.0	-197264.0	-401.0	-23.0
24	17	6	6	976	31.0	-207953.0	-367.0	61.0
24	17	6	6	976	32.0	-199086.0	-332.0	3.0
24	17	6	6	977	33.0	-208342.0	-314.0	13.0
24	17	6	6	978	34.0	-200996.0	-304.0	598.0
24	17	6	6	978	35.0	-208527.0	-295.0	832.0
24	17	6	6	979	36.0	-204339.0	-275.0	82.0
24	17	6	6	979	37.0	-207846.0	-245.0	200.0
24	17	6	6	980	38.0	-205010.0	-229.0	671.0
24	17	6	6	981	39.0	-205535.0	-218.0	429.0
24	17	6	6	981	40.0	-205059.0	-207.0	96.0
24	17	6	6	982	41.0	-202474.0	-208.0	156.0
24	17	6	6	982	42.0	-203156.0	-182.0	51.0
24	17	6	6	983	43.0	-200448.0	-145.0	-156.0
24	17	6	6	984	44.0	-201614.0	-147.0	-15.0
24	17	6	6	984	45.0	-199128.0	-131.0	291.0
24	17	6	6	985	46.0	-199469.0	-103.0	-2.0
24	17	6	6	985	47.0	-196946.0	-92.0	70.0
24	17	6	6	986	48.0	-197419.0	-79.0	-116.0
24	17	6	6	986	49.0	-195559.0	-69.0	-381.0
24	17	6	6	987	50.0	-196216.0	-49.0	-656.0
24	17	6	6	987	51.0	-194919.0	-10.0	-749.0
24	17	6	7	20	52.0	-195473.0	-14.0	-1218.0
24	17	6	7	20	53.0	-194730.0	7.0	-1106.0
24	17	6	7	21	54.0	-196092.0	24.0	-789.0
24	17	6	7	22	55.0	-196682.0	47.0	-774.0
24	17	6	7	22	56.0	-198535.0	37.0	-850.0
24	17	6	7	23	57.0	-199324.0	31.0	-903.0
24	17	6	7	23	58.0	-200578.0	39.0	-831.0
24	17	6	7	24	59.0	-201202.0	68.0	-1016.0
24	17	6	7	25	60.0	-202055.0	77.0	-1122.0
24	17	6	7	25	61.0	-202485.0	92.0	-1012.0
24	17	6	7	26	62.0	-202292.0	100.0	-1371.0
24	17	6	7	26	63.0	-201661.0	112.0	-1460.0
24	17	6	7	27	64.0	-200992.0	134.0	-1382.0
24	17	6	7	28	65.0	-199964.0	135.0	-1553.0
24	17	6	7	28	66.0	-199210.0	144.0	-1506.0
24	17	6	7	29	68.0	-197462.0	185.0	-1134.0
24	17	6	7	29	69.0	-196676.0	191.0	-1617.0
24	17	6	7	30	70.0	-196324.0	206.0	-1634.0
24	17	6	7	31	71.0	-195368.0	206.0	-1033.0
24	17	6	7	31	72.0	-194235.0	218.0	-1083.0
24	17	6	7	32	73.0	-193610.0	246.0	-791.0
24	17	6	7	64	74.0	-193444.0	268.0	-426.0
24	17	6	7	65	75.0	-193065.0	294.0	-297.0
24	17	6	7	65	76.0	-192967.0	292.0	-548.0
24	17	6	7	66	77.0	-193307.0	311.0	-333.0
24	17	6	7	67	78.0	-193561.0	293.0	-237.0
24	17	6	7	67	79.0	-193197.0	296.0	-509.0
24	17	6	7	68	80.0	-193052.0	315.0	-477.0
24	17	6	7	68	81.0	-193204.0	317.0	-236.0
24	17	6	7	69	82.0	-193254.0	327.0	-392.0
24	17	6	7	69	83.0	-193453.0	313.0	-494.0
24	17	6	7	70	84.0	-194008.0	326.0	-64.0
24	17	6	7	71	85.0	-194597.0	348.0	94.0
24	17	6	7	71	86.0	-195137.0	347.0	119.0
24	17	6	7	72	87.0	-196134.0	359.0	150.0
24	17	6	7	72	88.0	-197057.0	361.0	-1.0
24	17	6	7	73	90.0	-198517.0	361.0	387.0
24	17	6	7	74	91.0	-198472.0	361.0	426.0
24	17	6	7	74	92.0	-198876.0	374.0	286.0
24	17	6	7	75	93.0	-198971.0	391.0	388.0
24	17	6	7	75	94.0	-199079.0	416.0	538.0
24	17	6	7	84	95.0	-199674.0	416.0	558.0
24	17	6	7	84	96.0	-200297.0	426.0	408.0
24	17	6	7	154	97.0	-200767.0	435.0	468.0
24	17	6	7	155	98.0	-200847.0	446.0	390.0
24	17	6	7	156	99.0	-200644.0	444.0	508.0
24	17	6	7	156	100.0	-200406.0	448.0	497.0
24	17	6	7	158	101.0	-199636.0	464.0	519.0
24	17	6	7	158	102.0	-198889.0	451.0	350.0
24	17	6	7	159	103.0	-198332.0	454.0	514.0
24	17	6	7	159	104.0	-198202.0	477.0	366.0
24	17	6	7	160	105.0	-197414.0	487.0	-78.0
24	17	6	7	161	106.0	-196687.0	491.0	12.0
24	17	6	7	162	107.0	-196394.0	493.0	-232.0
24	17	6	7	163	108.0	-196236.0	495.0	-968.0
24	17	6	7	164	109.0	-196145.0	494.0	-1209.0
24	17	6	7	164	110.0	-195826.0	495.0	-864.0
24	17	6	7	165	111.0	-196052.0	491.0	-734.0
24	17	6	7	165	135.0	-214949.0	554.0	4521.0
24	17	6	7	166	136.0	-217645.0	553.0	2858.0
24	17	6	7	167	137.0	-220176.0	556.0	1273.0
24	17	6	7	168	138.0	-221504.0	561.0	121.0
24	17	6	7	168	139.0	-221855.0	573.0	39.0
24	17	6	7	169	140.0	-220836.0	559.0	294.0
24	17	6	7	169	141.0	-215399.0	569.0	13.0
24	17	6	7	200	142.0	-197854.0	571.0	28.0
24	17	6	7	201	143.0	-171704.0	591.0	-31.0
24	17	6	7	201	144.0	-146487.0	592.0	-596.0
24	17	6	7	202	145.0	-129499.0	575.0	-857.0
24	17	6	7	202	146.0	-124685.0	610.0	-806.0
24	17	6	7	203	147.0	-133434.0	618.0	-739.0
24	17	6	7	204	148.0	-156475.0	607.0	-917.0
24	17	6	7	204	149.0	-189849.0	597.0	-837.0
24	17	6	7	205	150.0	-223115.0	570.0	-664.0
24	17	6	7	205	151.0	-248305.0	586.0	-1016.0
24	17	6	7	206	152.0	-263776.0	589.0	-1054.0
24	17	6	7	207	153.0	-272394.0	602.0	-971.0
24	17	6	7	207	154.0	-275737.0	600.0	-1486.0
24	17	6	7	208	155.0	-273286.0	598.0	-1478.0
24	17	6	7	209	156.0	-264329.0	607.0	-1354.0
24	17	6	7	209	158.0	-231937.0	584.0	-1435.0
24	17	6	7	210	159.0	-214549.0	592.0	-1433.0
24	17	6	7	210	160.0	-201547.0	599.0	-1029.0
24	17	6	7	211	161.0	-194603.0	617.0	-891.0
24	17	6	7	211	162.0	-192157.0	599.0	-1154.0
24	17	6	7	212	163.0	-194377.0	591.0	-1096.0
24	17	6	7	244	164.0	-198701.0	601.0	-1529.0
24	17	6	7	245	165.0	-203186.0	634.0	-1459.0
24	17	6	7	246	166.0	-207001.0	636.0	-1421.0
24	17	6	7	247	167.0	-208825.0	612.0	-1551.0
24	17	6	7	247	168.0	-208287.0	618.0	-1522.0
24	17	6	7	248	169.0	-205077.0	602.0	-1541.0
24	17	6	7	249	170.0	-201184.0	601.0	-1696.0
24	17	6	7	249	171.0	-198945.0	608.0	-1679.0
24	17	6	7	250	172.0	-198438.0	602.0	-1300.0
24	17	6	7	250	173.0	-199002.0	613.0	-1374.0
24	17	6	7	251	174.0	-199937.0	613.0	-1762.0
24	17	6	7	252	175.0	-200982.0	616.0	-1501.0
24	17	6	7	252	176.0	-201733.0	604.0	-1559.0
24	17	6	7	253	177.0	-201159.0	621.0	-1699.0
24	17	6	7	253	178.0	-198725.0	614.0	-1811.0
24	17	6	7	254	180.0	-192606.0	590.0	-1811.0
24	17	6	7	255	181.0	-190419.0	616.0	-2122.0
24	17	6	7	255	182.0	-189495.0	618.0	-1876.0
24	17	6	7	256	183.0	-189832.0	652.0	-1932.0
24	17	6	7	256	184.0	-190772.0	638.0	-2194.0
24	17	6	7	257	185.0	-192041.0	623.0	-2362.0
24	17	6	7	258	186.0	-193206.0	643.0	-2031.0
24	17	6	7	290	187.0	-194088.0	643.0	-2465.0
24	17	6	7	290	188.0	-194492.0	660.0	-2856.0
24	17	6	7	291	189.0	-194702.0	664.0	-2271.0
24	17	6	7	291	190.0	-194927.0	658.0	-2301.0
24	17	6	7	292	191.0	-194984.0	654.0	-2864.0
24	17	6	7	293	192.0	-195356.0	666.0	-2691.0
24	17	6	7	293	193.0	-196142.0	670.0	-2844.0
24	17	6	7	294	194.0	-197451.0	676.0	-3068.0
24	17	6	7	294	195.0	-198347.0	679.0	-3227.0
24	17	6	7	295	196.0	-198682.0	680.0	-3056.0
24	17	6	7	296	197.0	-198909.0	696.0	-3056.0
24	17	6	7	296	198.0	-198944.0	723.0	-3221.0
24	17	6	7	297	199.0	-198739.0	706.0	-3042.0
24	17	6	7	297	200.0	-198799.0	705.0	-3489.0
24	17	6	7	298	201.0	-199129.0	731.0	-3534.0
24	17	6	7	299	203.0	-200611.0	752.0	-3539.0
24	17	6	7	299	204.0	-201921.0	759.0	-3304.0
24	17	6	7	300	205.0	-203112.0	775.0	-3107.0
24	17	6	7	300	206.0	-203920.0	790.0	-2987.0
24	17	6	7	301	207.0	-204634.0	809.0	-3446.0
24	17	6	7	302	208.0	-204902.0	829.0	-3857.0
24	17	6	7	380	209.0	-204773.0	839.0	-3942.0
24	17	6	7	381	210.0	-204668.0	850.0	-3952.0
24	17	6	7	382	211.0	-204734.0	845.0	-3943.0
24	17	6	7	382	212.0	-205381.0	859.0	-3831.0
24	17	6	7	383	213.0	-205873.0	869.0	-3462.0
24	17	6	7	383	214.0	-205952.0	885.0	-3657.0
24	17	6	7	384	215.0	-205889.0	908.0	-3294.0
24	17	6	7	385	216.0	-205452.0	914.0	-3262.0
24	17	6	7	386	217.0	-204865.0	931.0	-3843.0
24	17	6	7	387	218.0	-204313.0	922.0	-3484.0
24	17	6	7	388	219.0	-203847.0	919.0	-3395.0
24	17	6	7	389	220.0	-203204.0	933.0	-3927.0
24	17	6	7	390	221.0	-202904.0	944.0	-3881.0
24	17	6	7	390	222.0	-202841.0	968.0	-3576.0
24	17	6	7	391	223.0	-202894.0	970.0	-3447.0
24	17	6	7	392	247.0	-200712.0	1006.0	-1655.0
24	17	6	7	392	248.0	-201980.0	1005.0	-1468.0
24	17	6	7	393	249.0	-202758.0	991.0	-1402.0
24	17	6	7	393	250.0	-202931.0	988.0	-1844.0
24	17	6	7	394	251.0	-202828.0	994.0	-1503.0
24	17	6	7	394	252.0	-202381.0	1020.0	-975.0
24	17	6	7	395	253.0	-202174.0	1003.0	-1317.0
24	17	6	7	425	254.0	-202028.0	999.0	-874.0
24	17	6	7	426	255.0	-202138.0	1008.0	-670.0
24	17	6	7	426	0.0	-202061.0	1015.0	-1011.0
24	17	6	7	427	1.0	-202034.0	1006.0	-1047.0
24	17	6	7	428	2.0	-201983.0	979.0	-669.0
24	17	6	7	428	3.0	-201957.0	963.0	-875.0
24	17	6	7	429	4.0	-201989.0	971.0	-1049.0
24	17	6	7	430	5.0	-202143.0	951.0	-1037.0
24	17	6	7	430	6.0	-202354.0	942.0	-769.0
24	17	6	7	431	7.0	-202741.0	926.0	-961.0
24	17	6	7	432	8.0	-203090.0	922.0	-960.0
24	17	6	7	432	9.0	-203753.0	900.0	-527.0
24	17	6	7	433	10.0	-204824.0	883.0	-534.0
24	17	6	7	434	11.0	-206101.0	873.0	-993.0
24	17	6	7	434	12.0	-207373.0	859.0	-699.0
24	17	6	7	435	14.0	-210256.0	829.0	-634.0
24	17	6	7	436	15.0	-211843.0	834.0	-759.0
24	17	6	7	436	16.0	-213488.0	823.0	-589.0
24	17	6	7	437	17.0	-215389.0	817.0	-763.0
24	17	6	7	437	18.0	-217134.0	843.0	-645.0
24	17	6	7	438	19.0	-218917.0	841.0	-663.0
24	17	6	7	469	20.0	-220266.0	837.0	-945.0
24	17	6	7	470	21.0	-221097.0	831.0	-908.0
24	17	6	7	470	22.0	-221187.0	829.0	-714.0
24	17	6	7	471	23.0	-220014.0	836.0	-736.0
24	17	6	7	471	24.0	-218082.0	841.0	-790.0
24	17	6	7	472	25.0	-215213.0	837.0	-841.0
24	17	6	7	472	26.0	-211048.0	836.0	-805.0
24	17	6	7	473	27.0	-201109.0	819.0	-573.0
24	17	6	7	481	28.0	-181524.0	826.0	-451.0
24	17	6	7	481	29.0	-155736.0	828.0	-352.0
24	17	6	7	482	30.0	-150090.0	819.0	-501.0
24	17	6	7	482	31.0	-170254.0	814.0	-591.0
24	17	6	7	483	32.0	-186077.0	816.0	-732.0
24	17	6	7	483	33.0	-202458.0	825.0	-774.0
24	17	6	7	484	34.0	-215180.0	824.0	-532.0
24	17	6	7	484	36.0	-225323.0	833.0	-200.0
24	17	6	7	485	37.0	-218888.0	831.0	-586.0
24	17	6	7	486	38.0	-211346.0	846.0	-107.0
24	17	6	7	486	39.0	-202044.0	839.0	-161.0
24	17	6	7	487	40.0	-192085.0	845.0	-757.0
24	17	6	7	487	41.0	-184489.0	843.0	-869.0
24	17	6	7	488	42.0	-178536.0	843.0	-562.0
24	17	6	7	514	43.0	-175899.0	845.0	-767.0
24	17	6	7	514	44.0	-175615.0	863.0	-918.0
24	17	6	7	515	45.0	-178056.0	856.0	-644.0
24	17	6	7	516	46.0	-182196.0	868.0	-759.0
24	17	6	7	516	47.0	-187096.0	877.0	-816.0
24	17	6	7	517	48.0	-190626.0	869.0	-452.0
24	17	6	7	517	49.0	-193017.0	856.0	-249.0
24	17	6	7	518	50.0	-193941.0	859.0	-657.0
24	17	6	7	519	51.0	-193999.0	855.0	-700.0
24	17	6	7	519	52.0	-193359.0	863.0	-642.0
24	17	6	7	520	53.0	-192720.0	856.0	-651.0
24	17	6	7	520	54.0	-192595.0	857.0	-848.0
24	17	6	7	521	55.0	-193011.0	861.0	-809.0
24	17	6	7	522	56.0	-193546.0	882.0	-726.0
24	17	6	7	522	57.0	-194118.0	884.0	-549.0
24	17	6	7	530	59.0	-194411.0	893.0	-424.0
24	17	6	7	530	60.0	-194436.0	894.0	-647.0
24	17	6	7	531	61.0	-194756.0	895.0	-636.0
24	17	6	7	532	62.0	-195019.0	914.0	-664.0
24	17	6	7	532	63.0	-195603.0	923.0	-742.0
24	17	6	7	533	64.0	-196665.0	941.0	-783.0
24	17	6	7	740	65.0	-198119.0	955.0	-600.0
24	17	6	7	742	66.0	-199441.0	984.0	-669.0
24	17	6	7	743	67.0	-201105.0	988.0	-643.0
24	17	6	7	744	68.0	-202793.0	979.0	-457.0
24	17	6	7	745	69.0	-204437.0	997.0	-512.0
24	17	6	7	746	70.0	-206118.0	984.0	-592.0
24	17	6	7	746	71.0	-207772.0	999.0	-442.0
24	17	6	7	747	72.0	-209074.0	1001.0	-510.0
24	17	6	7	747	73.0	-210300.0	1018.0	-760.0
24	17	6	7	748	74.0	-211138.0	1013.0	-646.0
24	17	6	7	749	75.0	-211921.0	1012.0	-611.0
24	17	6	7	750	76.0	-212897.0	1018.0	-946.0
24	17	6	7	750	77.0	-213929.0	1026.0	-952.0
24	17	6	7	751	78.0	-214574.0	1027.0	-612.0
24	17	6	7	751	79.0	-215557.0	1041.0	-624.0
24	17	6	7	752	81.0	-216505.0	1044.0	-919.0
24	17	6	7	752	171.0	-198249.0	1311.0	139.0
24	17	6	7	753	172.0	-198339.0	1323.0	-66.0
24	17	6	7	754	173.0	-198449.0	1331.0	-200.0
24	17	6	7	755	174.0	-198596.0	1333.0	-154.0
24	17	6	7	755	175.0	-198537.0	1343.0	-232.0
24	17	6	7	756	176.0	-198389.0	1363.0	-451.0
24	17	6	7	757	177.0	-197896.0	1366.0	-551.0
24	17	6	7	783	178.0	-197035.0	1376.0	-841.0
24	17	6	7	784	179.0	-195939.0	1381.0	-946.0
24	17	6	7	784	180.0	-194809.0	1393.0	-935.0
24	17	6	7	785	181.0	-193579.0	1389.0	-846.0
24	17	6	7	786	182.0	-192459.0	1368.0	-417.0
24	17	6	7	787	183.0	-192053.0	1359.0	-202.0
24	17	6	7	787	184.0	-191761.0	1383.0	-1344.0
24	17	6	7	788	185.0	-191602.0	1395.0	-2997.0
24	17	6	7	788	186.0	-191807.0	1383.0	-4776.0
24	17	6	7	789	187.0	-192274.0	1383.0	-6432.0
24	17	6	7	797	188.0	-192530.0	1392.0	-7746.0
24	17	6	7	797	189.0	-193001.0	1383.0	-7404.0
24	17	6	7	798	190.0	-193337.0	1379.0	-6907.0
24	17	6	7	798	191.0	-193761.0	1369.0	-7681.0
24	17	6	7	799	192.0	-193821.0	1364.0	-9021.0
24	17	6	7	799	193.0	-193671.0	1380.0	-10135.0
24	17	6	7	800	194.0	-193039.0	1383.0	-13029.0
24	17	6	7	801	195.0	-192684.0	1376.0	-16628.0
24	17	6	7	801	196.0	-193034.0	1385.0	-18247.0
24	17	6	7	802	197.0	-193193.0	1390.0	-17119.0
24	17	6	7	802	198.0	-193883.0	1391.0	-14859.0
24	17	6	7	803	199.0	-194975.0	1398.0	-11066.0
24	17	6	7	828	200.0	-195859.0	1408.0	-6869.0
24	17	6	7	829	201.0	-197015.0	1411.0	-3029.0
24	17	6	7	874	202.0	-198512.0	1403.0	1286.0
24	17	6	7	875	203.0	-200488.0	1402.0	6101.0
24	17	6	7	876	204.0	-202969.0	1418.0	8856.0
24	17	6	7	876	205.0	-206267.0	1398.0	8718.0
24	17	6	7	877	206.0	-210494.0	1374.0	6155.0
24	17	6	7	878	207.0	-214861.0	1398.0	3486.0
24	17	6	7	879	208.0	-218821.0	1400.0	1430.0
24	17	6	7	880	209.0	-221759.0	1388.0	208.0
24	17	6	7	881	210.0	-223177.0	1403.0	-464.0
24	17	6	7	882	211.0	-223422.0	1388.0	-416.0
24	17	6	7	882	212.0	-221653.0	1381.0	-195.0
24	17	6	7	883	213.0	-211894.0	1403.0	-322.0
24	17	6	7	883	214.0	-191088.0	1391.0	-313.0
24	17	6	7	884	216.0	-151347.0	1394.0	-229.0
24	17	6	7	884	217.0	-141870.0	1389.0	-710.0
24	17	6	7	885	218.0	-141070.0	1401.0	-560.0
24	17	6	7	885	239.0	-208585.0	1268.0	-1058.0
24	17	6	7	886	240.0	-211844.0	1271.0	-853.0
24	17	6	7	887	241.0	-212689.0	1279.0	-901.0
24	17	6	7	887	242.0	-211257.0	1273.0	-1152.0
24	17	6	7	888	243.0	-208361.0	1273.0	-1102.0
24	17	6	7	888	244.0	-205682.0	1273.0	-1061.0
24	17	6	7	919	245.0	-204072.0	1273.0	-1187.0
24	17	6	7	920	246.0	-203222.0	1251.0	-1373.0
24	17	6	7	921	247.0	-202576.0	1242.0	-1284.0
24	17	6	7	921	248.0	-201717.0	1229.0	-1201.0
24	17	6	7	922	249.0	-200286.0	1226.0	-1244.0
24	17	6	7	922	250.0	-198466.0	1218.0	-1320.0
24	17	6	7	923	251.0	-196323.0	1205.0	-1411.0
24	17	6	7	924	252.0	-193529.0	1199.0	-1528.0
24	17	6	7	925	253.0	-190571.0	1180.0	-1557.0
24	17	6	7	925	254.0	-187974.0	1173.0	-1629.0
24	17	6	7	926	255.0	-186206.0	1146.0	-1637.0
24	17	6	7	927	0.0	-185225.0	1134.0	-1626.0
24	17	6	7	927	1.0	-184997.0	1125.0	-1667.0
24	17	6	7	928	2.0	-185407.0	1130.0	-1708.0
24	17	6	7	928	3.0	-186180.0	1122.0	-1738.0
24	17	6	7	929	5.0	-188041.0	1095.0	-1727.0
24	17	6	7	929	6.0	-188919.0	1073.0	-1521.0
24	17	6	7	930	7.0	-189754.0	1069.0	-1811.0
24	17	6	7	930	8.0	-190172.0	1059.0	-2259.0
24	17	6	7	931	9.0	-190216.0	1071.0	-1966.0
24	17	6	7	932	10.0	-190298.0	1078.0	-1904.0
24	17	6	7	965	11.0	-190284.0	1081.0	-2366.0
24	17	6	7	966	12.0	-190036.0	1069.0	-2347.0
24	17	6	7	966	13.0	-190045.0	1089.0	-2387.0
24	17	6	7	967	14.0	-190453.0	1070.0	-2923.0
24	17	6	7	967	15.0	-190908.0	1053.0	-2828.0
24	17	6	7	968	16.0	-191667.0	1051.0	-2730.0
24	17	6	7	969	17.0	-192922.0	1044.0	-2746.0
24	17	6	7	969	18.0	-194331.0	1038.0	-2902.0
24	17	6	7	970	19.0	-196029.0	1028.0	-2962.0
24	17	6	7	971	20.0	-198096.0	1036.0	-2990.0
24	17	6	7	971	21.0	-199774.0	1023.0	-3118.0
24	17	6	7	972	22.0	-201039.0	1021.0	-3067.0
24	17	6	7	972	23.0	-202087.0	1019.0	-3042.0
24	17	6	7	973	24.0	-202556.0	1002.0	-3179.0
24	17	6	7	973	25.0	-202672.0	1006.0	-3102.0
24	17	6	7	974	27.0	-202660.0	1003.0	-3243.0
24	17	6	7	975	28.0	-202181.0	990.0	-3564.0
24	17	6	7	975	29.0	-201382.0	970.0	-3427.0
24	17	6	7	976	30.0	-200170.0	984.0	-3474.0
24	17	6	7	976	31.0	-199036.0	983.0	-3219.0
24	17	6	7	977	32.0	-197951.0	982.0	-3360.0
24	17	6	7	977	33.0	-196814.0	976.0	-3195.0
24	17	6	8	9	34.0	-195996.0	974.0	-3267.0
24	17	6	8	10	35.0	-195470.0	955.0	-3126.0
24	17	6	8	10	36.0	-195211.0	934.0	-3045.0
24	17	6	8	11	37.0	-195432.0	933.0	-3202.0
24	17	6	8	11	38.0	-196392.0	936.0	-2871.0
24	17	6	8	12	39.0	-197829.0	926.0	-2636.0
24	17	6	8	13	40.0	-198959.0	911.0	-2877.0
24	17	6	8	13	41.0	-200034.0	893.0	-2826.0
24	17	6	8	14	42.0	-201067.0	871.0	-2577.0
24	17	6	8	14	43.0	-201232.0	858.0	-2790.0
24	17	6	8	15	44.0	-201493.0	848.0	-2864.0
24	17	6	8	15	45.0	-202002.0	845.0	-2686.0
24	17	6	8	16	46.0	-202634.0	823.0	-2324.0
24	17	6	8	17	47.0	-203709.0	807.0	-2515.0
24	17	6	8	17	48.0	-205039.0	799.0	-2562.0
24	17	6	8	18	50.0	-206726.0	776.0	-2406.0
24	17	6	8	18	51.0	-206861.0	760.0	-2156.0
24	17	6	8	19	52.0	-206965.0	741.0	-2011.0
24	17	6	8	19	53.0	-207055.0	744.0	-2182.0
24	17	6	8	20	54.0	-206789.0	725.0	-2236.0
24	17	6	8	21	55.0	-206569.0	684.0	-2011.0
24	17	6	8	54	56.0	-206771.0	678.0	-1901.0
24	17	6	8	55	57.0	-206871.0	666.0	-1926.0
24	17	6	8	99	58.0	-206696.0	628.0	-1865.0
24	17	6	8	99	59.0	-206544.0	604.0	-1709.0
24	17	6	8	100	60.0	-206139.0	569.0	-1576.0
24	17	6	8	101	61.0	-205449.0	543.0	-1496.0
24	17	6	8	101	62.0	-205330.0	503.0	-1166.0
24	17	6	8	102	63.0	-205254.0	483.0	-1364.0
24	17	6	8	102	64.0	-204962.0	469.0	-1547.0
24	17	6	8	103	65.0	-205086.0	443.0	-1161.0
24	17	6	8	104	66.0	-205142.0	425.0	-1089.0
24	17	6	8	104	67.0	-205161.0	398.0	-1299.0
24	17	6	8	105	68.0	-205234.0	376.0	-974.0
24	17	6	8	105	69.0	-205431.0	318.0	-852.0
24	17	6	8	106	70.0	-206247.0	293.0	-754.0
24	17	6	8	107	72.0	-207165.0	264.0	-357.0
24	17	6	8	107	73.0	-207799.0	229.0	-424.0
24	17	6	8	108	74.0	-208369.0	208.0	-384.0
24	17	6	8	108	95.0	-204611.0	-273.0	-587.0
24	17	6	8	109	96.0	-195440.0	-296.0	-603.0
24	17	6	8	110	97.0	-177861.0	-304.0	-496.0
24	17	6	8	110	98.0	-154572.0	-321.0	-365.0
24	17	6	8	111	99.0	-150542.0	-334.0	-479.0
24	17	6	8	111	100.0	-173134.0	-345.0	-542.0
24	17	6	8	144	101.0	-187674.0	-336.0	-270.0
24	17	6	8	145	102.0	-199623.0	-339.0	-381.0
24	17	6	8	146	103.0	-210322.0	-358.0	-512.0
24	17	6	8	146	104.0	-218651.0	-379.0	-582.0
24	17	6	8	147	105.0	-222696.0	-401.0	-702.0
24	17	6	8	147	106.0	-221156.0	-437.0	-709.0
24	17	6	8	148	107.0	-219681.0	-452.0	-825.0
24	17	6	8	149	108.0	-217976.0	-459.0	-797.0
24	17	6	8	149	109.0	-215461.0	-482.0	-904.0
24	17	6	8	150	110.0	-212767.0	-502.0	-860.0
24	17	6	8	150	111.0	-210457.0	-515.0	-544.0
24	17	6	8	151	112.0	-209652.0	-527.0	-574.0
24	17	6	8	151	113.0	-208813.0	-528.0	-467.0
24	17	6	8	152	114.0	-207009.0	-557.0	-369.0
24	17	6	8	153	115.0	-203922.0	-600.0	-452.0
24	17	6	8	153	117.0	-191920.0	-626.0	-628.0
24	17	6	8	154	118.0	-186307.0	-634.0	-530.0
24	17	6	8	154	119.0	-182315.0	-647.0	-832.0
24	17	6	8	155	120.0	-180456.0	-661.0	-1053.0
24	17	6	8	156	121.0	-180526.0	-678.0	-736.0
24	17	6	8	156	122.0	-182422.0	-692.0	-844.0
24	17	6	8	189	123.0	-185291.0	-688.0	-953.0
24	17	6	8	190	124.0	-188194.0	-684.0	-751.0
24	17	6	8	190	125.0	-190391.0	-683.0	-673.0
24	17	6	8	191	126.0	-191634.0	-686.0	-847.0
24	17	6	8	192	127.0	-192499.0	-709.0	-891.0
24	17	6	8	192	128.0	-193003.0	-742.0	-662.0
24	17	6	8	193	129.0	-193827.0	-759.0	-657.0
24	17	6	8	193	130.0	-195123.0	-769.0	-882.0
24	17	6	8	194	131.0	-196519.0	-773.0	-916.0
24	17	6	8	195	132.0	-198034.0	-788.0	-1001.0
24	17	6	8	195	133.0	-199542.0	-807.0	-1100.0
24	17	6	8	196	134.0	-200811.0	-821.0	-894.0
24	17	6	8	196	135.0	-201787.0	-807.0	-937.0
24	17	6	8	197	136.0	-202632.0	-825.0	-1142.0
24	17	6	8	198	137.0	-203374.0	-848.0	-1109.0
24	17	6	8	198	139.0	-204002.0	-851.0	-976.0
24	17	6	8	199	140.0	-204504.0	-839.0	-812.0
24	17	6	8	199	141.0	-205476.0	-843.0	-542.0
24	17	6	8	200	142.0	-206876.0	-858.0	-699.0
24	17	6	8	200	143.0	-208389.0	-876.0	-678.0
24	17	6	8	201	144.0	-209701.0	-857.0	-734.0
24	17	6	8	209	145.0	-211100.0	-852.0	-826.0
24	17	6	8	234	146.0	-212476.0	-846.0	-876.0
24	17	6	8	235	147.0	-213232.0	-844.0	-582.0
24	17	6	8	235	148.0	-213758.0	-854.0	-759.0
24	17	6	8	236	149.0	-214586.0	-846.0	-824.0
24	17	6	8	237	150.0	-214901.0	-849.0	-439.0
24	17	6	8	237	151.0	-215181.0	-882.0	-464.0
24	17	6	8	238	152.0	-215442.0	-882.0	-694.0
24	17	6	8	239	153.0	-214894.0	-866.0	-516.0
24	17	6	8	239	154.0	-213827.0	-871.0	-315.0
24	17	6	8	240	155.0	-213346.0	-894.0	-823.0
24	17	6	8	240	156.0	-212848.0	-882.0	-1099.0
24	17	6	8	241	157.0	-211839.0	-886.0	-466.0
24	17	6	8	257	158.0	-210732.0	-889.0	-498.0
24	17	6	8	257	159.0	-210071.0	-904.0	-806.0
24	17	6	8	258	160.0	-209470.0	-914.0	-487.0
24	17	6	8	258	162.0	-207887.0	-894.0	-356.0
24	17	6	8	259	163.0	-207364.0	-886.0	-237.0
24	17	6	8	260	164.0	-207292.0	-890.0	-114.0
24	17	6	8	260	165.0	-207231.0	-884.0	-104.0
24	17	6	8	261	166.0	-206993.0	-884.0	-371.0
24	17	6	8	261	167.0	-206771.0	-872.0	-272.0
24	17	6	8	280	168.0	-206107.0	-867.0	-202.0
24	17	6	8	280	169.0	-204981.0	-865.0	-427.0
24	17	6	8	370	170.0	-203500.0	-864.0	-335.0
24	17	6	8	370	171.0	-202344.0	-857.0	-109.0
24	17	6	8	371	172.0	-201101.0	-842.0	-321.0
24	17	6	8	372	173.0	-200057.0	-846.0	-324.0
24	17	6	8	372	174.0	-199281.0	-837.0	-299.0
24	17	6	8	373	175.0	-198459.0	-831.0	-334.0
24	17	6	8	374	176.0	-197953.0	-844.0	-382.0
24	17	6	8	374	177.0	-197527.0	-849.0	-341.0
24	17	6	8	375	178.0	-197304.0	-828.0	-342.0
24	17	6	8	375	179.0	-197373.0	-819.0	-386.0
24	17	6	8	377	180.0	-197269.0	-816.0	-232.0
24	17	6	8	378	181.0	-197111.0	-805.0	-273.0
24	17	6	8	378	182.0	-197373.0	-806.0	-466.0
24	17	6	8	379	184.0	-197930.0	-813.0	-319.0
24	17	6	8	379	185.0	-198266.0	-806.0	-834.0
24	17	6	8	380	207.0	-203723.0	-823.0	-1043.0
24	17	6	8	381	230.0	-195617.0	-954.0	1006.0
24	17	6	8	381	231.0	-195826.0	-949.0	609.0
24	17	6	8	382	232.0	-196418.0	-939.0	560.0
24	17	6	8	382	233.0	-196962.0	-932.0	673.0
24	17	6	8	383	234.0	-197147.0	-938.0	379.0
24	17	6	8	383	235.0	-197349.0	-947.0	247.0
24	17	6	8	414	236.0	-197439.0	-942.0	354.0
24	17	6	8	415	237.0	-197744.0	-942.0	646.0
24	17	6	8	415	238.0	-198364.0	-925.0	153.0
24	17	6	8	416	239.0	-198812.0	-942.0	239.0
24	17	6	8	417	240.0	-199064.0	-955.0	753.0
24	17	6	8	417	241.0	-199419.0	-951.0	313.0
24	17	6	8	418	242.0	-199366.0	-956.0	-6.0
24	17	6	8	419	243.0	-199404.0	-959.0	-209.0
24	17	6	8	419	244.0	-199036.0	-970.0	-228.0
24	17	6	8	420	245.0	-198594.0	-970.0	-446.0
24	17	6	8	420	246.0	-198653.0	-964.0	-294.0
24	17	6	8	421	247.0	-198160.0	-967.0	-214.0
24	17	6	8	422	248.0	-198205.0	-958.0	-993.0
24	17	6	8	422	249.0	-198353.0	-964.0	-2649.0
24	17	6	8	423	250.0	-198346.0	-954.0	-4259.0
24	17	6	8	424	252.0	-198622.0	-969.0	-8121.0
24	17	6	8	424	253.0	-198477.0	-990.0	-9386.0
24	17	6	8	425	254.0	-198097.0	-970.0	-9557.0
24	17	6	8	425	255.0	-197796.0	-964.0	-9309.0
24	17	6	8	426	0.0	-197190.0	-951.0	-9836.0
24	17	6	8	426	1.0	-196761.0	-942.0	-11129.0
24	17	6	8	460	2.0	-196150.0	-937.0	-12085.0
24	17	6	8	461	3.0	-195099.0	-946.0	-13706.0
24	17	6	8	462	4.0	-194608.0	-932.0	-16068.0
24	17	6	8	462	5.0	-193789.0	-926.0	-15921.0
24	17	6	8	463	6.0	-192794.0	-922.0	-13534.0
24	17	6	8	464	7.0	-192474.0	-929.0	-10596.0
24	17	6	8	464	8.0	-191787.0	-949.0	-6506.0
24	17	6	8	465	9.0	-190981.0	-932.0	-2608.0
24	17	6	8	466	10.0	-190401.0	-925.0	1490.0
24	17	6	8	466	11.0	-190246.0	-934.0	5780.0
24	17	6	8	467	12.0	-190953.0	-941.0	9426.0
24	17	6	8	467	13.0	-193326.0	-936.0	11421.0
24	17	6	8	468	14.0	-196837.0	-947.0	11011.0
24	17	6	8	469	15.0	-201566.0	-944.0	8491.0
24	17	6	8	469	16.0	-206407.0	-936.0	5259.0
24	17	6	8	470	18.0	-213847.0	-931.0	1237.0
24	17	6	8	470	19.0	-215869.0	-942.0	858.0
24	17	6	8	471	20.0	-216401.0	-946.0	655.0
24	17	6	8	472	21.0	-215446.0	-939.0	256.0
24	17	6	8	472	22.0	-208363.0	-930.0	176.0
24	17	6	8	473	23.0	-191398.0	-940.0	459.0
24	17	6	8	473	24.0	-176355.0	-944.0	624.0
24	17	6	8	504	25.0	-166332.0	-927.0	83.0
24	17	6	8	505	26.0	-161312.0	-921.0	-105.0
24	17	6	8	506	27.0	-160677.0	-912.0	-104.0
24	17	6	8	506	28.0	-163582.0	-918.0	-124.0
24	17	6	8	507	29.0	-172181.0	-942.0	45.0
24	17	6	8	508	30.0	-186511.0	-953.0	-184.0
24	17	6	8	508	31.0	-203224.0	-943.0	-276.0
24	17	6	8	509	32.0	-218549.0	-929.0	-252.0
24	17	6	8	510	33.0	-229327.0	-936.0	-324.0
24	17	6	8	510	34.0	-234962.0	-946.0	-313.0
24	17	6	8	511	35.0	-237329.0	-957.0	-162.0
24	17	6	8	511	36.0	-235934.0	-931.0	-16.0
24	17	6	8	512	37.0	-229067.0	-927.0	-327.0
24	17	6	8	513	38.0	-215762.0	-941.0	-496.0
24	17	6	8	513	39.0	-200712.0	-923.0	-370.0
24	17	6	8	514	41.0	-186779.0	-946.0	-395.0
24	17	6	8	515	42.0	-186447.0	-940.0	-527.0
24	17	6	8	515	43.0	-188082.0	-909.0	-459.0
24	17	6	8	516	44.0	-192599.0	-901.0	-720.0
24	17	6	8	516	45.0	-197823.0	-896.0	-413.0
24	17	6	8	517	46.0	-201834.0	-908.0	-176.0
24	17	6	8	595	47.0	-205791.0	-905.0	-530.0
24	17	6	8	596	48.0	-209989.0	-881.0	-953.0
24	17	6	8	597	49.0	-213458.0	-877.0	-629.0
24	17	6	8	598	50.0	-214095.0	-883.0	-551.0
24	17	6	8	598	51.0	-212341.0	-877.0	-993.0
24	17	6	8	599	52.0	-210121.0	-897.0	-954.0
24	17	6	8	600	53.0	-207218.0	-888.0	-634.0
24	17	6	8	600	54.0	-204132.0	-897.0	-1187.0
24	17	6	8	601	55.0	-201494.0	-877.0	-1410.0
24	17	6	8	602	56.0	-199014.0	-887.0	-1033.0
24	17	6	8	602	57.0	-196657.0	-890.0	-1339.0
24	17	6	8	603	58.0	-194421.0	-878.0	-1617.0
24	17	6	8	604	59.0	-192465.0	-889.0	-1234.0
24	17	6	8	604	60.0	-190736.0	-904.0	-1434.0
24	17	6	8	605	61.0	-189075.0	-876.0	-1455.0
24	17	6	8	605	63.0	-185993.0	-866.0	-1394.0
24	17	6	8	606	86.0	-199319.0	-807.0	-3125.0
24	17	6	8	607	87.0	-200503.0	-799.0	-3476.0
24	17	6	8	607	88.0	-200838.0	-780.0	-3362.0
24	17	6	8	608	89.0	-200401.0	-777.0	-3069.0
24	17	6	8	608	90.0	-200102.0	-781.0	-3535.0
24	17	6	8	609	91.0	-199884.0	-774.0	-3594.0
24	17	6	8	640	92.0	-199170.0	-783.0	-3252.0
24	17	6	8	640	93.0	-198283.0	-772.0	-3269.0
24	17	6	8	641	94.0	-197072.0	-753.0	-3743.0
24	17	6	8	642	95.0	-195772.0	-737.0	-3730.0
24	17	6	8	642	96.0	-194620.0	-753.0	-3754.0
24	17	6	8	643	97.0	-193420.0	-752.0	-3996.0
24	17	6	8	644	98.0	-192591.0	-752.0	-3836.0
24	17	6	8	644	99.0	-192232.0	-741.0	-3671.0
24	17	6	8	645	100.0	-192091.0	-766.0	-3634.0
24	17	6	8	646	101.0	-191706.0	-792.0	-3602.0
24	17	6	8	646	102.0	-191634.0	-791.0	-3381.0
24	17	6	8	647	103.0	-191994.0	-791.0	-3354.0
24	17	6	8	648	104.0	-192416.0	-782.0	-3336.0
24	17	6	8	648	105.0	-192806.0	-790.0	-3231.0
24	17	6	8	649	106.0	-193481.0	-808.0	-3145.0
24	17	6	8	649	108.0	-194116.0	-795.0	-3207.0
24	17	6	8	650	109.0	-194423.0	-809.0	-3186.0
24	17	6	8	651	110.0	-194647.0	-821.0	-3162.0
24	17	6	8	651	111.0	-194776.0	-807.0	-2992.0
24	17	6	8	652	112.0	-195171.0	-800.0	-2704.0
24	17	6	8	652	113.0	-195629.0	-790.0	-2574.0
24	17	6	8	684	114.0	-196494.0	-804.0	-2491.0
24	17	6	8	685	115.0	-197521.0	-802.0	-2375.0
24	17	6	8	686	116.0	-198457.0	-819.0	-2272.0
24	17	6	8	686	117.0	-199386.0	-836.0	-2308.0
24	17	6	8	687	118.0	-200029.0	-866.0	-2429.0
24	17	6	8	688	119.0	-200680.0	-865.0	-2532.0
24	17	6	8	688	120.0	-201113.0	-899.0	-2476.0
24	17	6	8	689	121.0	-201114.0	-915.0	-2079.0
24	17	6	8	690	122.0	-201332.0	-922.0	-1878.0
24	17	6	8	690	123.0	-201721.0	-939.0	-1934.0
24	17	6	8	691	124.0	-202109.0	-968.0	-1964.0
24	17	6	8	692	125.0	-202164.0	-988.0	-1749.0
24	17	6	8	692	126.0	-202081.0	-1002.0	-1803.0
24	17	6	8	693	127.0	-201942.0	-1038.0	-1926.0
24	17	6	8	694	128.0	-201889.0	-1042.0	-1469.0
24	17	6	8	694	130.0	-202713.0	-1084.0	-1799.0
24	17	6	8	695	131.0	-202531.0	-1119.0	-1152.0
24	17	6	8	696	132.0	-202796.0	-1125.0	-1116.0
24	17	6	8	696	133.0	-203751.0	-1140.0	-1299.0
24	17	6	8	697	134.0	-204486.0	-1171.0	-1274.0
24	17	6	8	697	135.0	-205401.0	-1198.0	-1082.0
24	17	6	8	698	136.0	-206359.0	-1227.0	-778.0
24	17	6	8	729	137.0	-206859.0	-1256.0	-837.0
24	17	6	8	730	138.0	-207156.0	-1257.0	-827.0
24	17	6	8	731	139.0	-207486.0	-1257.0	-676.0
24	17	6	8	731	140.0	-207905.0	-1289.0	-952.0
24	17	6	8	732	141.0	-207911.0	-1294.0	-863.0
24	17	6	8	733	142.0	-208230.0	-1324.0	-454.0
24	17	6	8	734	143.0	-208252.0	-1356.0	-549.0
24	17	6	8	734	144.0	-208579.0	-1350.0	-598.0
24	17	6	8	735	145.0	-209522.0	-1377.0	-663.0
24	17	6	8	736	146.0	-210399.0	-1420.0	-535.0
24	17	6	8	736	147.0	-211281.0	-1427.0	-316.0
24	17	6	8	737	148.0	-212665.0	-1449.0	-157.0
24	17	6	8	738	149.0	-213955.0	-1452.0	-217.0
24	17	6	8	738	150.0	-215196.0	-1445.0	-521.0
24	17	6	8	739	151.0	-216454.0	-1489.0	-346.0
24	17	6	8	740	153.0	-217084.0	-1512.0	-188.0
24	17	6	8	741	154.0	-215553.0	-1514.0	3.0
24	17	6	8	742	155.0	-213182.0	-1517.0	-197.0
24	17	6	8	743	156.0	-209880.0	-1530.0	-269.0
24	17	6	8	743	157.0	-205802.0	-1529.0	-184.0
24	17	6	8	744	158.0	-200663.0	-1534.0	-292.0
24	17	6	8	820	159.0	-192367.0	-1547.0	-614.0
24	17	6	8	821	160.0	-175611.0	-1550.0	-482.0
24	17	6	8	822	161.0	-153039.0	-1556.0	-352.0
24	17	6	8	822	162.0	-149967.0	-1548.0	-771.0
24	17	6	8	823	163.0	-174447.0	-1551.0	-784.0
24	17	6	8	823	164.0	-192664.0	-1558.0	-414.0
24	17	6	8	824	165.0	-203897.0	-1567.0	-258.0
24	17	6	8	824	166.0	-213481.0	-1553.0	-472.0
24	17	6	8	825	167.0	-220012.0	-1574.0	-227.0
24	17	6	8	826	168.0	-225039.0	-1580.0	-87.0
24	17	6	8	826	169.0	-225658.0	-1590.0	-387.0
24	17	6	8	827	170.0	-224234.0	-1586.0	-399.0
24	17	6	8	827	171.0	-221609.0	-1591.0	-146.0
24	17	6	8	828	172.0	-218144.0	-1598.0	-6.0
24	17	6	8	829	173.0	-215757.0	-1604.0	-461.0
24	17	6	8	829	198.0	-202602.0	-1671.0	-451.0
24	17	6	8	830	199.0	-204734.0	-1671.0	-384.0
24	17	6	8	830	200.0	-206679.0	-1666.0	-297.0
24	17	6	8	831	201.0	-208024.0	-1636.0	-469.0
24	17	6	8	832	202.0	-209071.0	-1639.0	-393.0
24	17	6	8	832	203.0	-210174.0	-1623.0	-242.0
24	17	6	8	864	204.0	-210921.0	-1602.0	-44.0
24	17	6	8	865	205.0	-211281.0	-1616.0	-177.0
24	17	6	8	866	206.0	-211451.0	-1622.0	-371.0
24	17	6	8	866	207.0	-211897.0	-1627.0	-119.0
24	17	6	8	867	208.0	-212495.0	-1625.0	-249.0
24	17	6	8	867	209.0	-212669.0	-1621.0	-389.0
24	17	6	8	868	210.0	-213414.0	-1618.0	-246.0
24	17	6	8	868	211.0	-214398.0	-1632.0	44.0
24	17	6	8	869	212.0	-214812.0	-1641.0	-32.0
24	17	6	8	869	213.0	-215463.0	-1642.0	-37.0
24	17	6	8	870	214.0	-215987.0	-1636.0	-187.0
24	17	6	8	871	215.0	-216372.0	-1629.0	-381.0
24	17	6	8	871	216.0	-217261.0	-1631.0	-198.0
24	17	6	8	872	217.0	-217476.0	-1632.0	-331.0
24	17	6	8	872	218.0	-217574.0	-1621.0	-303.0
24	17	6	8	873	220.0	-218359.0	-1638.0	-101.0
24	17	6	8	873	221.0	-218762.0	-1625.0	-92.0
24	17	6	8	874	222.0	-219194.0	-1612.0	-195.0
24	17	6	8	875	223.0	-219639.0	-1599.0	-78.0
24	17	6	8	875	224.0	-219574.0	-1592.0	-22.0
24	17	6	8	876	225.0	-218961.0	-1584.0	-64.0
24	17	6	8	876	226.0	-218381.0	-1572.0	45.0
24	17	6	8	909	227.0	-217496.0	-1547.0	181.0
24	17	6	8	910	228.0	-216301.0	-1555.0	-5.0
24	17	6	8	910	229.0	-215372.0	-1555.0	90.0
24	17	6	8	911	230.0	-214284.0	-1573.0	398.0
24	17	6	8	911	231.0	-213219.0	-1542.0	-57.0
24	17	6	8	912	232.0	-212359.0	-1531.0	-59.0
24	17	6	8	912	233.0	-211172.0	-1521.0	299.0
24	17	6	8	913	234.0	-209597.0	-1524.0	93.0
24	17	6	8	914	235.0	-208111.0	-1541.0	-366.0
24	17	6	8	914	236.0	-206419.0	-1536.0	-249.0
24	17	6	8	915	237.0	-205237.0	-1526.0	148.0
24	17	6	8	915	238.0	-204430.0	-1532.0	-186.0
24	17	6	8	916	239.0	-203837.0	-1519.0	-92.0
24	17	6	8	916	240.0	-203465.0	-1492.0	258.0
24	17	6	8	917	241.0	-203325.0	-1493.0	11.0
24	17	6	8	918	243.0	-202794.0	-1492.0	-227.0
24	17	6	8	918	244.0	-202287.0	-1480.0	-94.0
24	17	6	8	919	245.0	-201635.0	-1470.0	-370.0
24	17	6	8	919	246.0	-201446.0	-1453.0	-574.0
24	17	6	8	920	247.0	-201477.0	-1439.0	-759.0
24	17	6	8	920	248.0	-201791.0	-1431.0	-871.0
24	17	6	8	954	249.0	-202116.0	-1414.0	-858.0
24	17	6	8	955	250.0	-202272.0	-1405.0	-886.0
24	17	6	8	955	251.0	-202464.0	-1425.0	-667.0
24	17	6	8	956	252.0	-202601.0	-1419.0	-743.0
24	17	6	8	957	253.0	-202509.0	-1416.0	-1024.0
24	17	6	8	957	254.0	-202289.0	-1383.0	-1272.0
24	17	6	8	958	255.0	-202042.0	-1377.0	-1374.0
24	17	6	8	958	0.0	-201656.0	-1382.0	-1681.0
24	17	6	8	959	1.0	-201384.0	-1385.0	-1606.0
24	17	6	8	959	2.0	-201119.0	-1392.0	-1687.0
24	17	6	8	960	3.0	-201029.0	-1395.0	-1641.0
24	17	6	8	961	4.0	-200819.0	-1405.0	-1551.0
24	17	6	8	961	5.0	-200972.0	-1413.0	-1624.0
24	17	6	8	962	6.0	-201078.0	-1415.0	-1592.0
24	17	6	8	963	7.0	-201042.0	-1412.0	-1435.0
24	17	6	8	964	9.0	-201402.0	-1396.0	-1272.0
24	17	6	8	965	10.0	-201547.0	-1396.0	-1008.0
24	17	6	8	966	11.0	-201556.0	-1402.0	-1104.0
24	17	6	8	966	12.0	-201347.0	-1399.0	-935.0
24	17	6	8	967	13.0	-200744.0	-1393.0	-645.0
24	17	6	8	967	14.0	-200136.0	-1396.0	-754.0
24	17	6	9	0	15.0	-199383.0	-1362.0	-931.0
24	17	6	9	1	16.0	-198881.0	-1382.0	-554.0
24	17	6	9	1	17.0	-198302.0	-1396.0	-496.0
24	17	6	9	2	18.0	-197789.0	-1371.0	-801.0
24	17	6	9	2	19.0	-197127.0	-1351.0	-562.0
24	17	6	9	3	20.0	-196386.0	-1370.0	-207.0
24	17	6	9	3	21.0	-195936.0	-1374.0	-510.0
24	17	6	9	4	22.0	-195202.0	-1372.0	-766.0
24	17	6	9	5	23.0	-194227.0	-1365.0	-561.0
24	17	6	9	5	24.0	-193422.0	-1366.0	-309.0
24	17	6	9	6	25.0	-192545.0	-1359.0	-502.0
24	17	6	9	7	26.0	-191981.0	-1369.0	-246.0
24	17	6	9	7	27.0	-192149.0	-1367.0	13.0
24	17	6	9	8	28.0	-192484.0	-1376.0	-23.0
24	17	6	9	8	29.0	-192140.0	-1359.0	-144.0
24	17	6	9	9	31.0	-191031.0	-1368.0	105.0
24	17	6	9	17	32.0	-190777.0	-1363.0	-62.0
24	17	6	9	18	33.0	-190638.0	-1361.0	54.0
24	17	6	9	19	34.0	-190751.0	-1339.0	349.0
24	17	6	9	19	35.0	-190621.0	-1328.0	121.0
24	17	6	9	20	36.0	-190377.0	-1331.0	112.0
24	17	6	9	43	37.0	-190592.0	-1322.0	393.0
24	17	6	9	44	38.0	-190641.0	-1312.0	293.0
24	17	6	9	45	39.0	-190585.0	-1303.0	230.0
24	17	6	9	46	40.0	-190537.0	-1291.0	204.0
24	17	6	9	46	41.0	-190542.0	-1299.0	34.0
24	17	6	9	47	42.0	-190528.0	-1301.0	-109.0
24	17	6	9	47	43.0	-190728.0	-1298.0	23.0
24	17	6	9	48	44.0	-191316.0	-1286.0	-273.0
24	17	6	9	49	45.0	-192252.0	-1298.0	-327.0
24	17	6	9	49	46.0	-193419.0	-1297.0	-522.0
24	17	6	9	50	47.0	-195374.0	-1303.0	-961.0
24	17	6	9	50	48.0	-196795.0	-1307.0	-915.0
24	17	6	9	51	49.0	-198024.0	-1311.0	-672.0
24	17	6	9	52	50.0	-199565.0	-1299.0	-684.0
24	17	6	9	52	51.0	-200610.0	-1286.0	-1694.0
24	17	6	9	53	52.0	-201442.0	-1281.0	-3365.0
24	17	6	9	53	54.0	-203019.0	-1301.0	-7073.0
24	17	6	9	54	55.0	-203486.0	-1304.0	-8618.0
24	17	6	9	54	56.0	-203832.0	-1304.0	-9027.0
24	17	6	9	55	57.0	-203647.0	-1287.0	-8791.0
24	17	6	9	56	58.0	-203502.0	-1292.0	-8919.0
24	17	6	9	56	59.0	-202728.0	-1279.0	-9394.0
24	17	6	9	57	60.0	-202145.0	-1269.0	-10143.0
24	17	6	9	89	61.0	-202016.0	-1266.0	-11857.0
24	17	6	9	89	62.0	-202033.0	-1264.0	-13961.0
24	17	6	9	90	63.0	-201897.0	-1276.0	-15107.0
24	17	6	9	90	64.0	-201266.0	-1271.0	-13841.0
24	17	6	9	91	65.0	-200476.0	-1266.0	-11720.0
24	17	6	9	92	66.0	-200216.0	-1247.0	-8402.0
24	17	6	9	92	67.0	-199134.0	-1247.0	-4533.0
24	17	6	9	93	68.0	-198027.0	-1238.0	-962.0
24	17	6	9	93	69.0	-196821.0	-1241.0	2718.0
24	17	6	9	94	70.0	-196008.0	-1236.0	7212.0
24	17	6	9	94	71.0	-196422.0	-1233.0	10422.0
24	17	6	9	95	72.0	-198072.0	-1217.0	11113.0
24	17	6	9	96	73.0	-200854.0	-1216.0	9707.0
24	17	6	9	96	74.0	-204225.0	-1222.0	6694.0
24	17	6	9	97	75.0	-207322.0	-1201.0	4109.0
24	17	6	9	97	76.0	-209936.0	-1192.0	2262.0
24	17	6	9	98	77.0	-211833.0	-1187.0	1318.0
24	17	6	9	99	78.0	-212961.0	-1195.0	905.0
24	17	6	9	99	79.0	-213504.0	-1169.0	468.0
24	17	6	9	100	80.0	-210628.0	-1161.0	175.0
24	17	6	9	100	81.0	-198384.0	-1146.0	119.0
24	17	6	9	101	82.0	-178286.0	-1140.0	29.0
24	17	6	9	134	83.0	-157831.0	-1126.0	-135.0
24	17	6	9	135	84.0	-142627.0	-1118.0	-446.0
24	17	6	9	135	85.0	-136526.0	-1111.0	-202.0
24	17	6	9	136	86.0	-140439.0	-1104.0	-227.0
24	17	6	9	137	87.0	-154579.0	-1109.0	-434.0
24	17	6	9	137	88.0	-177029.0	-1117.0	-277.0
24	17	6	9	138	89.0	-202746.0	-1106.0	-207.0
24	17	6	9	138	90.0	-225277.0	-1106.0	-196.0
24	17	6	9	139	91.0	-240993.0	-1123.0	-489.0
24	17	6	9	140	92.0	-248839.0	-1105.0	-482.0
24	17	6	9	140	93.0	-248438.0	-1113.0	-647.0
24	17	6	9	141	94.0	-241874.0	-1106.0	-831.0
24	17	6	9	141	95.0	-230959.0	-1097.0	-624.0
24	17	6	9	142	96.0	-217802.0	-1103.0	-384.0
24	17	6	9	143	97.0	-204863.0	-1077.0	-409.0
24	17	6	9	143	99.0	-189552.0	-1086.0	-733.0
24	17	6	9	144	100.0	-189549.0	-1076.0	-963.0
24	17	6	9	144	101.0	-192705.0	-1056.0	-1122.0
24	17	6	9	145	102.0	-198124.0	-1046.0	-1094.0
24	17	6	9	145	103.0	-204386.0	-1044.0	-1044.0
24	17	6	9	146	104.0	-209512.0	-1022.0	-841.0
24	17	6	9	180	105.0	-212134.0	-1028.0	-806.0
24	17	6	9	181	106.0	-211277.0	-1026.0	-502.0
24	17	6	9	182	107.0	-206972.0	-995.0	-856.0
24	17	6	9	182	108.0	-200521.0	-1009.0	-1358.0
24	17	6	9	183	109.0	-193166.0	-997.0	-1156.0
24	17	6	9	183	110.0	-187259.0	-984.0	-1047.0
24	17	6	9	184	111.0	-183349.0	-978.0	-1254.0
24	17	6	9	185	112.0	-182059.0	-974.0	-1202.0
24	17	6	9	185	113.0	-182825.0	-982.0	-1131.0
24	17	6	9	186	114.0	-184693.0	-981.0	-1283.0
24	17	6	9	186	115.0	-186536.0	-997.0	-1290.0
24	17	6	9	187	116.0	-187702.0	-989.0	-1358.0
24	17	6	9	188	117.0	-188227.0	-975.0	-1204.0
24	17	6	9	188	118.0	-187541.0	-977.0	-1118.0
24	17	6	9	189	119.0	-186228.0	-966.0	-1507.0
24	17	6	9	189	121.0	-183041.0	-953.0	-1528.0
24	17	6	9	190	122.0	-182407.0	-945.0	-1938.0
24	17	6	9	191	123.0	-182676.0	-920.0	-2190.0
24	17	6	9	191	124.0	-183802.0	-913.0	-2052.0
24	17	6	9	192	125.0	-185787.0	-914.0	-1788.0
24	17	6	9	192	126.0	-188204.0	-899.0	-1889.0
24	17	6	9	193	127.0	-190289.0	-890.0	-2069.0
24	17	6	9	224	128.0	-192078.0	-864.0	-2274.0
24	17	6	9	225	129.0	-193790.0	-880.0	-2319.0
24	17	6	9	225	130.0	-194739.0	-872.0	-2275.0
24	17	6	9	226	131.0	-195219.0	-865.0	-2310.0
24	17	6	9	227	132.0	-195041.0	-876.0	-2151.0
24	17	6	9	227	133.0	-194577.0	-855.0	-2610.0
24	17	6	9	228	134.0	-194022.0	-856.0	-2808.0
24	17	6	9	228	135.0	-193266.0	-864.0	-2642.0
24	17	6	9	229	136.0	-192689.0	-856.0	-2684.0
24	17	6	9	230	137.0	-192278.0	-846.0	-3209.0
24	17	6	9	230	138.0	-191913.0	-824.0	-3106.0
24	17	6	9	231	139.0	-192125.0	-821.0	-2880.0
24	17	6	9	232	140.0	-192024.0	-813.0	-3023.0
24	17	6	9	232	141.0	-192176.0	-802.0	-3391.0
24	17	6	9	233	142.0	-192409.0	-804.0	-3417.0
24	17	6	9	233	144.0	-192265.0	-790.0	-3601.0
24	17	6	9	234	145.0	-192656.0	-783.0	-3522.0
24	17	6	9	234	146.0	-193004.0	-746.0	-3559.0
24	17	6	9	235	147.0	-193928.0	-738.0	-3789.0
24	17	6	9	236	148.0	-194987.0	-749.0	-3746.0
24	17	6	9	236	149.0	-195289.0	-740.0	-3914.0
24	17	6	9	316	150.0	-195446.0	-726.0	-3937.0
24	17	6	9	317	151.0	-195765.0	-720.0	-3969.0
24	17	6	9	318	152.0	-195723.0	-711.0	-4057.0
24	17	6	9	319	153.0	-195416.0	-707.0	-3918.0
24	17	6	9	320	154.0	-195352.0	-703.0	-3716.0
24	17	6	9	321	155.0	-194977.0	-702.0	-3755.0
24	17	6	9	322	156.0	-194819.0	-699.0	-3775.0
24	17	6	9	322	157.0	-195075.0	-701.0	-3839.0
24	17	6	9	323	158.0	-195032.0	-700.0	-3798.0
24	17	6	9	324	159.0	-195339.0	-704.0	-3774.0
24	17	6	9	324	160.0	-195898.0	-717.0	-3944.0
24	17	6	9	325	161.0	-196044.0	-721.0	-3527.0
24	17	6	9	326	162.0	-196357.0	-704.0	-3524.0
24	17	6	9	326	163.0	-197169.0	-711.0	-3602.0
24	17	6	9	327	164.0	-197976.0	-721.0	-3437.0
24	17	6	9	327	166.0	-200012.0	-719.0	-3299.0
24	17	6	9	328	189.0	-205975.0	-1059.0	-1401.0
24	17	6	9	328	190.0	-205441.0	-1077.0	-1416.0
24	17	6	9	329	191.0	-205058.0	-1091.0	-1197.0
24	17	6	9	330	192.0	-204629.0	-1099.0	-817.0
24	17	6	9	330	193.0	-204474.0	-1101.0	-837.0
24	17	6	9	331	194.0	-204343.0	-1119.0	-950.0
24	17	6	9	360	195.0	-204360.0	-1126.0	-1064.0
24	17	6	9	360	196.0	-204896.0	-1136.0	-907.0
24	17	6	9	382	197.0	-205489.0	-1149.0	-512.0
24	17	6	9	383	198.0	-206164.0	-1175.0	-564.0
24	17	6	9	383	199.0	-207059.0	-1184.0	-616.0
24	17	6	9	384	200.0	-207930.0	-1218.0	-553.0
24	17	6	9	384	201.0	-208690.0	-1236.0	-268.0
24	17	6	9	385	202.0	-209775.0	-1253.0	-281.0
24	17	6	9	385	203.0	-210815.0	-1272.0	-200.0
24	17	6	9	386	204.0	-211861.0	-1306.0	-151.0
24	17	6	9	387	205.0	-213184.0	-1324.0	-157.0
24	17	6	9	387	206.0	-214779.0	-1330.0	-134.0
24	17	6	9	388	207.0	-216265.0	-1339.0	94.0
24	17	6	9	388	208.0	-217534.0	-1356.0	94.0
24	17	6	9	389	209.0	-218738.0	-1393.0	-161.0
24	17	6	9	389	211.0	-221121.0	-1413.0	171.0
24	17	6	9	390	212.0	-221792.0	-1426.0	-104.0
24	17	6	9	390	213.0	-222339.0	-1461.0	-172.0
24	17	6	9	391	214.0	-222145.0	-1459.0	12.0
24	17	6	9	392	215.0	-220293.0	-1464.0	109.0
24	17	6	9	392	216.0	-217416.0	-1469.0	-504.0
24	17	6	9	405	217.0	-214105.0	-1486.0	-301.0
24	17	6	9	405	218.0	-209966.0	-1502.0	-29.0
24	17	6	9	406	219.0	-203807.0	-1514.0	-181.0
24	17	6	9	409	220.0	-192052.0	-1512.0	-247.0
24	17	6	9	409	221.0	-172407.0	-1527.0	-124.0
24	17	6	9	410	222.0	-156697.0	-1534.0	-104.0
24	17	6	9	411	223.0	-166328.0	-1531.0	-353.0
24	17	6	9	411	224.0	-187469.0	-1552.0	-221.0
24	17	6	9	412	225.0	-200986.0	-1575.0	-233.0
24	17	6	9	412	226.0	-214427.0	-1582.0	-424.0
24	17	6	9	413	227.0	-223211.0	-1586.0	-654.0
24	17	6	9	414	228.0	-230402.0	-1613.0	-647.0
24	17	6	9	414	229.0	-232234.0	-1628.0	-537.0
24	17	6	9	415	230.0	-230892.0	-1617.0	-249.0
24	17	6	9	415	231.0	-229768.0	-1625.0	-532.0
24	17	6	9	416	233.0	-223186.0	-1649.0	-501.0
24	17	6	9	416	234.0	-220316.0	-1657.0	-579.0
24	17	6	9	449	235.0	-217576.0	-1672.0	-721.0
24	17	6	9	450	236.0	-214749.0	-1671.0	-566.0
24	17	6	9	451	237.0	-211602.0	-1671.0	-502.0
24	17	6	9	452	238.0	-208887.0	-1669.0	-670.0
24	17	6	9	452	239.0	-206901.0	-1667.0	-652.0
24	17	6	9	453	240.0	-203564.0	-1686.0	-485.0
24	17	6	9	453	241.0	-197640.0	-1678.0	-634.0
24	17	6	9	454	242.0	-188947.0	-1694.0	-811.0
24	17	6	9	455	243.0	-177520.0	-1690.0	-684.0
24	17	6	9	455	244.0	-166691.0	-1706.0	-526.0
24	17	6	9	456	245.0	-157936.0	-1712.0	-785.0
24	17	6	9	457	246.0	-152962.0	-1709.0	-795.0
24	17	6	9	457	247.0	-151840.0	-1712.0	-370.0
24	17	6	9	458	248.0	-154714.0	-1721.0	-626.0
24	17	6	9	459	249.0	-160128.0	-1719.0	-1029.0
24	17	6	9	459	0.0	-189288.0	-1733.0	-687.0
24	17	6	9	460	1.0	-192148.0	-1738.0	-719.0
24	17	6	9	460	2.0	-194278.0	-1719.0	-711.0
24	17	6	9	461	3.0	-196407.0	-1719.0	-812.0
24	17	6	9	462	4.0	-198112.0	-1716.0	-713.0
24	17	6	9	462	5.0	-198824.0	-1721.0	-565.0
24	17	6	9	541	6.0	-199246.0	-1719.0	-644.0
24	17	6	9	542	7.0	-199607.0	-1696.0	-872.0
24	17	6	9	564	8.0	-199830.0	-1679.0	-799.0
24	17	6	9	564	9.0	-200719.0	-1681.0	-671.0
24	17	6	9	565	10.0	-202914.0	-1707.0	-388.0
24	17	6	9	566	11.0	-205361.0	-1691.0	-552.0
24	17	6	9	566	12.0	-208127.0	-1685.0	-477.0
24	17	6	9	567	13.0	-210924.0	-1699.0	-369.0
24	17	6	9	567	14.0	-213206.0	-1702.0	-362.0
24	17	6	9	568	15.0	-215172.0	-1698.0	-280.0
24	17	6	9	568	16.0	-216204.0	-1685.0	-400.0
24	17	6	9	569	17.0	-216347.0	-1671.0	-261.0
24	17	6	9	570	18.0	-216285.0	-1667.0	-132.0
24	17	6	9	570	19.0	-215746.0	-1691.0	-392.0
24	17	6	9	571	20.0	-214531.0	-1680.0	-447.0
24	17	6	9	571	45.0	-208954.0	-1622.0	-303.0
24	17	6	9	572	46.0	-208846.0	-1634.0	-552.0
24	17	6	9	572	47.0	-208471.0	-1623.0	-572.0
24	17	6	9	573	48.0	-207871.0	-1611.0	-542.0
24	17	6	9	574	49.0	-207186.0	-1611.0	-483.0
24	17	6	9	574	50.0	-206807.0	-1613.0	-571.0
24	17	6	9	586	51.0	-206462.0	-1615.0	-382.0
24	17	6	9	587	52.0	-205900.0	-1606.0	-266.0
24	17	6	9	587	53.0	-205455.0	-1619.0	-422.0
24	17	6	9	588	54.0	-204976.0	-1609.0	-517.0
24	17	6	9	588	55.0	-204804.0	-1602.0	-499.0
24	17	6	9	589	56.0	-204576.0	-1619.0	-552.0
24	17	6	9	590	57.0	-204556.0	-1624.0	-476.0
24	17	6	9	590	58.0	-204209.0	-1636.0	-661.0
24	17	6	9	591	59.0	-203870.0	-1647.0	-351.0
24	17	6	9	591	60.0	-203660.0	-1646.0	-166.0
24	17	6	9	592	61.0	-203626.0	-1638.0	-422.0
24	17	6	9	593	62.0	-203597.0	-1627.0	-600.0
24	17	6	9	593	63.0	-203487.0	-1634.0	-182.0
24	17	6	9	594	64.0	-203447.0	-1661.0	-130.0
24	17	6	9	595	65.0	-203256.0	-1672.0	-544.0
24	17	6	9	595	67.0	-202484.0	-1681.0	-781.0
24	17	6	9	596	68.0	-201914.0	-1684.0	-1452.0
24	17	6	9	596	69.0	-201729.0	-1676.0	-1418.0
24	17	6	9	597	70.0	-201357.0	-1684.0	-1131.0
24	17	6	9	597	71.0	-200726.0	-1680.0	-1441.0
24	17	6	9	598	72.0	-200621.0	-1674.0	-1732.0
24	17	6	9	599	73.0	-200846.0	-1659.0	-1404.0
24	17	6	9	629	74.0	-200974.0	-1668.0	-1351.0
24	17	6	9	646	75.0	-201098.0	-1645.0	-1702.0
24	17	6	9	647	76.0	-200593.0	-1648.0	-1666.0
24	17	6	9	647	77.0	-199699.0	-1656.0	-1613.0
24	17	6	9	648	78.0	-198545.0	-1669.0	-1849.0
24	17	6	9	649	79.0	-197310.0	-1652.0	-2153.0
24	17	6	9	649	80.0	-195927.0	-1665.0	-1958.0
24	17	6	9	650	81.0	-194392.0	-1671.0	-1862.0
24	17	6	9	650	82.0	-193323.0	-1669.0	-2036.0
24	17	6	9	651	83.0	-191943.0	-1676.0	-2067.0
24	17	6	9	651	84.0	-190914.0	-1697.0	-1831.0
24	17	6	9	652	85.0	-189974.0	-1683.0	-1790.0
24	17	6	9	653	86.0	-188846.0	-1687.0	-1805.0
24	17	6	9	653	87.0	-188317.0	-1691.0	-1750.0
24	17	6	9	654	88.0	-188131.0	-1687.0	-1730.0
24	17	6	9	654	90.0	-188039.0	-1708.0	-1257.0
24	17	6	9	655	91.0	-188596.0	-1702.0	-1493.0
24	17	6	9	656	92.0	-189491.0	-1701.0	-1261.0
24	17	6	9	656	93.0	-190669.0	-1683.0	-849.0
24	17	6	9	657	94.0	-191406.0	-1689.0	-1227.0
24	17	6	9	657	95.0	-192383.0	-1699.0	-1400.0
24	17	6	9	673	96.0	-193565.0	-1678.0	-1116.0
24	17	6	9	674	97.0	-194896.0	-1674.0	-721.0
24	17	6	9	675	98.0	-196346.0	-1662.0	-731.0
24	17	6	9	675	99.0	-198023.0	-1679.0	-766.0
24	17	6	9	676	100.0	-199350.0	-1686.0	-668.0
24	17	6	9	676	101.0	-200769.0	-1707.0	-833.0
24	17	6	9	677	102.0	-202538.0	-1704.0	-484.0
24	17	6	9	678	103.0	-203851.0	-1700.0	-291.0
24	17	6	9	678	104.0	-204727.0	-1696.0	-542.0
24	17	6	9	679	105.0	-205482.0	-1699.0	-581.0
24	17	6	9	680	106.0	-206186.0	-1706.0	-164.0
24	17	6	9	680	107.0	-206788.0	-1709.0	-179.0
24	17	6	9	681	108.0	-207187.0	-1701.0	-161.0
24	17	6	9	682	109.0	-207389.0	-1696.0	86.0
24	17	6	9	682	110.0	-207604.0	-1704.0	61.0
24	17	6	9	683	112.0	-206824.0	-1707.0	-622.0
24	17	6	9	684	113.0	-206196.0	-1707.0	-112.0
24	17	6	9	685	114.0	-205439.0	-1687.0	-272.0
24	17	6	9	685	115.0	-204215.0	-1674.0	-750.0
24	17	6	9	686	116.0	-202545.0	-1679.0	-444.0
24	17	6	9	687	117.0	-201015.0	-1676.0	-326.0
24	17	6	9	688	118.0	-199438.0	-1672.0	-481.0
24	17	6	9	764	119.0	-198249.0	-1649.0	-195.0
24	17	6	9	765	120.0	-197082.0	-1661.0	-89.0
24	17	6	9	766	121.0	-195651.0	-1659.0	-210.0
24	17	6	9	766	122.0	-194739.0	-1670.0	-483.0
24	17	6	9	767	123.0	-194084.0	-1661.0	-834.0
24	17	6	9	767	124.0	-193649.0	-1652.0	-1279.0
24	17	6	9	768	125.0	-193281.0	-1657.0	-1636.0
24	17	6	9	769	126.0	-193149.0	-1656.0	-1682.0
24	17	6	9	769	127.0	-192961.0	-1661.0	-1662.0
24	17	6	9	770	128.0	-192687.0	-1671.0	-1891.0
24	17	6	9	771	129.0	-192751.0	-1694.0	-2759.0
24	17	6	9	771	130.0	-193045.0	-1699.0	-4701.0
24	17	6	9	772	131.0	-193676.0	-1687.0	-7022.0
24	17	6	9	773	132.0	-194563.0	-1691.0	-8388.0
24	17	6	9	773	133.0	-194993.0	-1679.0	-8793.0
24	17	6	9	774	157.0	-211227.0	-1681.0	-488.0
24	17	6	9	774	158.0	-194846.0	-1689.0	-417.0
24	17	6	9	775	159.0	-172741.0	-1676.0	-284.0
24	17	6	9	776	160.0	-151959.0	-1663.0	-409.0
24	17	6	9	776	161.0	-138132.0	-1638.0	-831.0
24	17	6	9	777	162.0	-135843.0	-1619.0	-959.0
24	17	6	9	808	163.0	-145347.0	-1622.0	-1003.0
24	17	6	9	809	164.0	-165636.0	-1617.0	-1085.0
24	17	6	9	809	165.0	-192519.0	-1595.0	-835.0
24	17	6	9	810	166.0	-218149.0	-1603.0	-786.0
24	17	6	9	811	167.0	-237127.0	-1601.0	-852.0
24	17	6	9	811	168.0	-248822.0	-1611.0	-935.0
24	17	6	9	812	169.0	-254981.0	-1586.0	-864.0
24	17	6	9	813	170.0	-257702.0	-1576.0	-711.0
24	17	6	9	813	171.0	-256444.0	-1579.0	-1040.0
24	17	6	9	814	172.0	-248891.0	-1596.0	-1059.0
24	17	6	9	814	173.0	-235324.0	-1586.0	-1206.0
24	17	6	9	815	174.0	-216696.0	-1576.0	-1328.0
24	17	6	9	816	175.0	-200184.0	-1567.0	-1290.0
24	17	6	9	816	176.0	-187922.0	-1562.0	-1144.0
24	17	6	9	817	177.0	-181234.0	-1549.0	-1190.0
24	17	6	9	818	179.0	-180302.0	-1555.0	-1226.0
24	17	6	9	818	180.0	-182240.0	-1534.0	-1287.0
24	17	6	9	819	181.0	-185270.0	-1535.0	-1458.0
24	17	6	9	819	182.0	-188610.0	-1526.0	-1405.0
24	17	6	9	820	183.0	-190579.0	-1500.0	-1572.0
24	17	6	9	821	184.0	-190031.0	-1481.0	-1871.0
24	17	6	9	821	185.0	-187961.0	-1486.0	-1691.0
24	17	6	9	853	186.0	-185546.0	-1479.0	-1434.0
24	17	6	9	854	187.0	-182976.0	-1481.0	-1613.0
24	17	6	9	854	188.0	-181414.0	-1485.0	-1511.0
24	17	6	9	855	189.0	-181191.0	-1509.0	-1174.0
24	17	6	9	856	190.0	-182276.0	-1524.0	-1570.0
24	17	6	9	856	191.0	-183657.0	-1539.0	-1987.0
24	17	6	9	857	192.0	-184336.0	-1537.0	-1872.0
24	17	6	9	858	193.0	-184256.0	-1546.0	-1842.0
24	17	6	9	858	194.0	-183747.0	-1523.0	-1811.0
24	17	6	9	859	195.0	-183530.0	-1542.0	-2087.0
24	17	6	9	860	196.0	-184008.0	-1542.0	-2077.0
24	17	6	9	860	197.0	-184926.0	-1541.0	-2269.0
24	17	6	9	861	198.0	-186220.0	-1535.0	-2196.0
24	17	6	9	862	199.0	-187775.0	-1550.0	-2017.0
24	17	6	9	863	200.0	-189647.0	-1560.0	-2238.0
24	17	6	9	863	202.0	-193783.0	-1571.0	-2462.0
24	17	6	9	864	203.0	-195607.0	-1577.0	-2462.0
24	17	6	9	865	204.0	-197689.0	-1548.0	-2282.0
24	17	6	9	865	205.0	-199221.0	-1546.0	-2619.0
24	17	6	9	866	206.0	-200370.0	-1522.0	-2612.0
24	17	6	9	867	207.0	-201306.0	-1527.0	-2629.0
24	17	6	9	900	208.0	-202032.0	-1508.0	-2712.0
24	17	6	9	901	209.0	-202926.0	-1494.0	-2774.0
24	17	6	9	902	210.0	-203481.0	-1494.0	-3034.0
24	17	6	9	902	211.0	-203354.0	-1492.0	-2901.0
24	17	6	9	903	212.0	-203205.0	-1496.0	-3034.0
24	17	6	9	904	213.0	-203257.0	-1506.0	-3650.0
24	17	6	9	904	214.0	-203174.0	-1498.0	-3637.0
24	17	6	9	905	215.0	-203069.0	-1487.0	-3334.0
24	17	6	9	906	216.0	-203621.0	-1493.0	-3565.0
24	17	6	9	906	217.0	-204367.0	-1496.0	-3882.0
24	17	6	9	907	218.0	-205194.0	-1491.0	-3552.0
24	17	6	9	908	219.0	-206349.0	-1467.0	-3786.0
24	17	6	9	909	220.0	-207692.0	-1463.0	-4009.0
24	17	6	9	910	221.0	-209067.0	-1477.0	-3875.0
24	17	6	9	910	222.0	-210162.0	-1466.0	-4171.0
24	17	6	9	911	224.0	-210090.0	-1458.0	-4134.0
24	17	6	9	912	225.0	-209499.0	-1458.0	-4072.0
24	17	6	9	912	226.0	-208278.0	-1457.0	-4527.0
24	17	6	9	913	227.0	-206544.0	-1433.0	-4697.0
24	17	6	9	913	228.0	-205318.0	-1437.0	-4384.0
24	17	6	9	914	229.0	-203629.0	-1419.0	-4759.0
24	17	6	9	915	230.0	-201226.0	-1411.0	-4952.0
24	17	6	10	35	231.0	-199402.0	-1419.0	-4708.0
24	17	6	10	36	232.0	-197661.0	-1411.0	-4766.0
24	17	6	10	37	233.0	-195879.0	-1391.0	-4679.0
24	17	6	10	37	234.0	-194695.0	-1398.0	-4543.0
24	17	6	10	38	235.0	-194081.0	-1419.0	-4589.0
24	17	6	10	38	236.0	-193916.0	-1399.0	-4866.0
24	17	6	10	39	237.0	-194688.0	-1409.0	-5021.0
24	17	6	10	40	238.0	-195825.0	-1401.0	-4872.0
24	17	6	10	41	239.0	-196659.0	-1402.0	-4634.0
24	17	6	10	41	240.0	-197797.0	-1422.0	-4412.0
24	17	6	10	42	241.0	-198292.0	-1424.0	-4637.0
24	17	6	10	43	242.0	-198905.0	-1417.0	-4678.0
24	17	6	10	43	243.0	-199763.0	-1415.0	-4411.0
24	17	6	10	44	244.0	-200399.0	-1427.0	-4392.0
24	17	6	10	44	245.0	-200855.0	-1442.0	-4286.0
24	17	6	10	45	247.0	-202335.0	-1438.0	-3928.0
24	17	6	10	45	36.0	-219412.0	-1936.0	-1496.0
24	17	6	10	46	37.0	-219456.0	-1935.0	-1398.0
24	17	6	10	46	38.0	-218982.0	-1927.0	-1312.0
24	17	6	10	47	39.0	-218487.0	-1936.0	-1302.0
24	17	6	10	47	40.0	-217769.0	-1917.0	-1123.0
24	17	6	10	48	41.0	-216354.0	-1927.0	-748.0
24	17	6	10	80	42.0	-212214.0	-1920.0	-1111.0
24	17	6	10	93	43.0	-201385.0	-1928.0	-1330.0
24	17	6	10	93	44.0	-181040.0	-1932.0	-1106.0
24	17	6	10	94	45.0	-163615.0	-1934.0	-1059.0
24	17	6	10	95	46.0	-172498.0	-1931.0	-1391.0
24	17	6	10	95	47.0	-192813.0	-1939.0	-1491.0
24	17	6	10	96	48.0	-205344.0	-1916.0	-887.0
24	17	6	10	96	49.0	-216629.0	-1936.0	-1004.0
24	17	6	10	97	50.0	-222876.0	-1953.0	-1373.0
24	17	6	10	97	51.0	-227980.0	-1951.0	-1194.0
24	17	6	10	98	52.0	-226588.0	-1947.0	-1242.0
24	17	6	10	98	53.0	-222221.0	-1945.0	-1452.0
24	17	6	10	99	54.0	-219047.0	-1965.0	-1639.0
24	17	6	10	99	55.0	-213339.0	-1965.0	-1399.0
24	17	6	10	100	56.0	-206381.0	-1959.0	-1322.0
24	17	6	10	100	58.0	-186692.0	-1952.0	-1372.0
24	17	6	10	101	59.0	-177193.0	-1936.0	-1026.0
24	17	6	10	101	60.0	-169669.0	-1935.0	-845.0
24	17	6	10	102	61.0	-166451.0	-1922.0	-966.0
24	17	6	10	102	62.0	-167426.0	-1909.0	-1017.0
24	17	6	10	103	63.0	-170487.0	-1922.0	-1262.0
24	17	6	10	104	64.0	-174854.0	-1908.0	-1090.0
24	17	6	10	124	65.0	-179847.0	-1878.0	-1284.0
24	17	6	10	124	66.0	-183052.0	-1858.0	-1389.0
24	17	6	10	125	67.0	-185119.0	-1884.0	-1408.0
24	17	6	10	126	68.0	-186581.0	-1891.0	-1419.0
24	17	6	10	126	69.0	-187614.0	-1862.0	-1427.0
24	17	6	10	127	70.0	-188793.0	-1867.0	-1309.0
24	17	6	10	127	71.0	-189928.0	-1879.0	-1174.0
24	17	6	10	128	72.0	-190821.0	-1874.0	-1411.0
24	17	6	10	128	73.0	-192152.0	-1869.0	-1490.0
24	17	6	10	129	74.0	-193637.0	-1875.0	-1369.0
24	17	6	10	129	75.0	-195061.0	-1884.0	-1421.0
24	17	6	10	130	76.0	-196363.0	-1880.0	-1636.0
24	17	6	10	131	77.0	-197502.0	-1869.0	-1431.0
24	17	6	10	131	78.0	-198517.0	-1864.0	-1503.0
24	17	6	10	132	79.0	-199990.0	-1849.0	-1444.0
24	17	6	10	132	81.0	-202764.0	-1848.0	-1354.0
24	17	6	10	133	82.0	-204790.0	-1829.0	-1636.0
24	17	6	10	134	83.0	-206542.0	-1820.0	-1552.0
24	17	6	10	134	84.0	-208242.0	-1799.0	-1277.0
24	17	6	10	135	85.0	-209695.0	-1802.0	-1085.0
24	17	6	10	143	86.0	-210210.0	-1804.0	-1394.0
24	17	6	10	170	87.0	-210344.0	-1779.0	-1658.0
24	17	6	10	170	88.0	-210818.0	-1764.0	-1718.0
24	17	6	10	171	89.0	-211001.0	-1787.0	-1403.0
24	17	6	10	171	90.0	-211396.0	-1793.0	-1431.0
24	17	6	10	172	91.0	-211934.0	-1769.0	-1289.0
24	17	6	10	173	92.0	-212764.0	-1758.0	-1288.0
24	17	6	10	173	93.0	-213902.0	-1751.0	-1435.0
24	17	6	10	174	94.0	-214858.0	-1728.0	-1372.0
24	17	6	10	174	95.0	-216044.0	-1754.0	-1201.0
24	17	6	10	175	96.0	-217482.0	-1721.0	-1091.0
24	17	6	10	176	97.0	-218614.0	-1731.0	-964.0
24	17	6	10	176	98.0	-219209.0	-1725.0	-1166.0
24	17	6	10	177	99.0	-219086.0	-1707.0	-1003.0
24	17	6	10	177	100.0	-218414.0	-1729.0	-1019.0
24	17	6	10	178	101.0	-217166.0	-1703.0	-1062.0
24	17	6	10	178	103.0	-213749.0	-1682.0	-974.0
24	17	6	10	179	104.0	-211700.0	-1684.0	-1099.0
24	17	6	10	180	105.0	-210083.0	-1670.0	-1241.0
24	17	6	10	180	106.0	-208642.0	-1637.0	-939.0
24	17	6	10	181	107.0	-207466.0	-1629.0	-940.0
24	17	6	10	181	108.0	-206552.0	-1631.0	-1423.0
24	17	6	10	215	109.0	-205796.0	-1612.0	-1311.0
24	17	6	10	259	110.0	-205382.0	-1608.0	-690.0
24	17	6	10	260	111.0	-204817.0	-1586.0	-821.0
24	17	6	10	261	112.0	-204094.0	-1579.0	-954.0
24	17	6	10	262	113.0	-203547.0	-1584.0	-887.0
24	17	6	10	263	114.0	-203081.0	-1579.0	-871.0
24	17	6	10	264	115.0	-202297.0	-1568.0	-1031.0
24	17	6	10	265	116.0	-201659.0	-1568.0	-1075.0
24	17	6	10	266	117.0	-201087.0	-1557.0	-1037.0
24	17	6	10	266	118.0	-200214.0	-1543.0	-1381.0
24	17	6	10	267	119.0	-198896.0	-1544.0	-1361.0
24	17	6	10	268	120.0	-198024.0	-1554.0	-1199.0
24	17	6	10	268	121.0	-197497.0	-1544.0	-978.0
24	17	6	10	269	122.0	-196881.0	-1523.0	-894.0
24	17	6	10	269	123.0	-196442.0	-1546.0	-812.0
24	17	6	10	270	125.0	-196043.0	-1538.0	-976.0
24	17	6	10	270	126.0	-196261.0	-1536.0	-1064.0
24	17	6	10	271	148.0	-193554.0	-1511.0	-961.0
24	17	6	10	304	149.0	-193501.0	-1504.0	-937.0
24	17	6	10	305	150.0	-193294.0	-1516.0	-1030.0
24	17	6	10	305	151.0	-193172.0	-1504.0	-1374.0
24	17	6	10	306	152.0	-193364.0	-1505.0	-1300.0
24	17	6	10	307	153.0	-193662.0	-1514.0	-1422.0
24	17	6	10	307	154.0	-194237.0	-1507.0	-2130.0
24	17	6	10	308	155.0	-194780.0	-1488.0	-2236.0
24	17	6	10	308	156.0	-194982.0	-1484.0	-1985.0
24	17	6	10	309	157.0	-195234.0	-1501.0	-1956.0
24	17	6	10	310	158.0	-195437.0	-1521.0	-1975.0
24	17	6	10	310	159.0	-195151.0	-1516.0	-1983.0
24	17	6	10	311	160.0	-194964.0	-1534.0	-1787.0
24	17	6	10	311	161.0	-194557.0	-1534.0	-1887.0
24	17	6	10	312	162.0	-193598.0	-1524.0	-2329.0
24	17	6	10	313	163.0	-192680.0	-1508.0	-2426.0
24	17	6	10	313	170.0	-186837.0	-1548.0	-2225.0
24	17	6	10	314	171.0	-185839.0	-1551.0	-2279.0
24	17	6	10	314	172.0	-184982.0	-1545.0	-2220.0
24	17	6	10	315	173.0	-184661.0	-1539.0	-2209.0
24	17	6	10	315	174.0	-184674.0	-1526.0	-1894.0
24	17	6	10	316	175.0	-184989.0	-1521.0	-1777.0
24	17	6	10	316	176.0	-185881.0	-1509.0	-1990.0
24	17	6	10	349	177.0	-186536.0	-1515.0	-1887.0
24	17	6	10	349	178.0	-187267.0	-1523.0	-1668.0
24	17	6	10	350	179.0	-187984.0	-1541.0	-1661.0
24	17	6	10	350	180.0	-188839.0	-1537.0	-1462.0
24	17	6	10	351	181.0	-189815.0	-1546.0	-1695.0
24	17	6	10	352	182.0	-190608.0	-1535.0	-1366.0
24	17	6	10	352	183.0	-191351.0	-1536.0	-946.0
24	17	6	10	353	184.0	-192125.0	-1544.0	-1154.0
24	17	6	10	353	185.0	-193067.0	-1534.0	-984.0
24	17	6	10	354	186.0	-194126.0	-1527.0	-854.0
24	17	6	10	355	187.0	-195191.0	-1534.0	-1216.0
24	17	6	10	355	188.0	-196017.0	-1519.0	-1103.0
24	17	6	10	356	189.0	-197018.0	-1524.0	-501.0
24	17	6	10	356	190.0	-197655.0	-1526.0	-866.0
24	17	6	10	357	191.0	-197992.0	-1514.0	-1307.0
24	17	6	10	358	193.0	-199753.0	-1514.0	-668.0
24	17	6	10	358	194.0	-199725.0	-1531.0	-996.0
24	17	6	10	359	195.0	-200045.0	-1533.0	-828.0
24	17	6	10	359	196.0	-200467.0	-1515.0	-586.0
24	17	6	10	360	197.0	-200159.0	-1501.0	-896.0
24	17	6	10	360	198.0	-199841.0	-1479.0	-916.0
24	17	6	10	394	199.0	-199583.0	-1477.0	-834.0
24	17	6	10	394	200.0	-199671.0	-1473.0	-429.0
24	17	6	10	395	201.0	-199969.0	-1479.0	-486.0
24	17	6	10	395	202.0	-199792.0	-1482.0	-520.0
24	17	6	10	396	203.0	-199145.0	-1494.0	-459.0
24	17	6	10	397	204.0	-197780.0	-1497.0	-504.0
24	17	6	10	397	205.0	-196324.0	-1487.0	-816.0
24	17	6	10	398	206.0	-194682.0	-1499.0	-946.0
24	17	6	10	398	207.0	-193028.0	-1506.0	-1317.0
24	17	6	10	399	208.0	-192023.0	-1497.0	-1382.0
24	17	6	10	400	209.0	-191283.0	-1499.0	-1591.0
24	17	6	10	400	210.0	-190826.0	-1506.0	-1874.0
24	17	6	10	401	211.0	-190654.0	-1506.0	-1832.0
24	17	6	10	402	212.0	-190722.0	-1526.0	-1502.0
24	17	6	10	402	213.0	-190692.0	-1529.0	-1644.0
24	17	6	10	403	215.0	-191579.0	-1526.0	-4546.0
24	17	6	10	404	216.0	-192536.0	-1525.0	-6576.0
24	17	6	10	405	217.0	-193831.0	-1516.0	-8223.0
24	17	6	10	405	218.0	-195298.0	-1507.0	-8682.0
24	17	6	10	406	219.0	-196039.0	-1507.0	-8670.0
24	17	6	10	407	220.0	-196227.0	-1482.0	-8094.0
24	17	6	10	407	221.0	-195871.0	-1479.0	-8219.0
24	17	6	10	486	222.0	-195075.0	-1474.0	-8800.0
24	17	6	10	487	223.0	-194406.0	-1466.0	-10063.0
24	17	6	10	487	224.0	-194457.0	-1483.0	-12391.0
24	17	6	10	488	225.0	-194676.0	-1496.0	-14423.0
24	17	6	10	488	226.0	-195921.0	-1494.0	-15352.0
24	17	6	10	489	227.0	-197161.0	-1491.0	-14396.0
24	17	6	10	490	228.0	-199608.0	-1498.0	-11421.0
24	17	6	10	490	229.0	-201967.0	-1509.0	-8016.0
24	17	6	10	491	230.0	-203666.0	-1526.0	-4828.0
24	17	6	10	491	231.0	-204672.0	-1525.0	-1705.0
24	17	6	10	492	232.0	-205869.0	-1511.0	2076.0
24	17	6	10	493	233.0	-207134.0	-1507.0	6714.0
24	17	6	10	493	234.0	-208712.0	-1518.0	9306.0
24	17	6	10	494	235.0	-211546.0	-1531.0	8239.0
24	17	6	10	494	236.0	-215397.0	-1529.0	5433.0
24	17	6	10	495	4.0	-212223.0	-1445.0	-1316.0
24	17	6	10	496	5.0	-199007.0	-1452.0	-1134.0
24	17	6	10	496	6.0	-188673.0	-1440.0	-663.0
24	17	6	10	497	7.0	-183934.0	-1417.0	-898.0
24	17	6	10	497	8.0	-183124.0	-1409.0	-950.0
24	17	6	10	498	9.0	-185108.0	-1398.0	-932.0
24	17	6	10	498	10.0	-188546.0	-1368.0	-1372.0
24	17	6	10	530	11.0	-192167.0	-1361.0	-1487.0
24	17	6	10	531	12.0	-196337.0	-1356.0	-1191.0
24	17	6	10	532	13.0	-200021.0	-1377.0	-1486.0
24	17	6	10	532	14.0	-202098.0	-1379.0	-1446.0
24	17	6	10	533	15.0	-202261.0	-1380.0	-1443.0
24	17	6	10	533	16.0	-202359.0	-1361.0	-1419.0
24	17	6	10	534	17.0	-203690.0	-1359.0	-1281.0
24	17	6	10	535	18.0	-205479.0	-1364.0	-1053.0
24	17	6	10	535	19.0	-207269.0	-1342.0	-982.0
24	17	6	10	536	20.0	-208790.0	-1357.0	-1328.0
24	17	6	10	537	21.0	-209708.0	-1369.0	-1616.0
24	17	6	10	537	22.0	-209168.0	-1357.0	-1471.0
24	17	6	10	538	23.0	-207302.0	-1349.0	-1157.0
24	17	6	10	538	24.0	-203991.0	-1358.0	-1106.0
24	17	6	10	539	25.0	-200388.0	-1370.0	-1357.0
24	17	6	10	539	27.0	-195924.0	-1349.0	-1853.0
24	17	6	10	540	28.0	-194329.0	-1339.0	-1596.0
24	17	6	10	541	29.0	-193409.0	-1323.0	-1913.0
24	17	6	10	541	30.0	-192778.0	-1308.0	-2211.0
24	17	6	10	542	31.0	-192168.0	-1296.0	-2066.0
24	17	6	10	542	32.0	-191469.0	-1287.0	-1957.0
24	17	6	10	574	33.0	-190952.0	-1272.0	-1997.0
24	17	6	10	575	34.0	-190311.0	-1257.0	-2041.0
24	17	6	10	575	35.0	-190091.0	-1244.0	-1996.0
24	17	6	10	576	36.0	-189860.0	-1224.0	-2318.0
24	17	6	10	577	37.0	-189803.0	-1220.0	-2744.0
24	17	6	10	577	38.0	-190342.0	-1222.0	-2526.0
24	17	6	10	578	39.0	-191278.0	-1206.0	-2362.0
24	17	6	10	579	40.0	-192312.0	-1196.0	-2719.0
24	17	6	10	579	41.0	-193181.0	-1191.0	-2748.0
24	17	6	10	580	42.0	-194129.0	-1181.0	-2907.0
24	17	6	10	580	43.0	-195289.0	-1167.0	-2979.0
24	17	6	10	581	44.0	-196667.0	-1145.0	-2794.0
24	17	6	10	582	45.0	-198576.0	-1146.0	-2839.0
24	17	6	10	582	46.0	-201045.0	-1136.0	-3092.0
24	17	6	10	583	47.0	-203755.0	-1122.0	-3387.0
24	17	6	10	584	49.0	-207452.0	-1096.0	-3454.0
24	17	6	10	584	50.0	-208663.0	-1094.0	-3694.0
24	17	6	10	585	51.0	-209685.0	-1083.0	-3717.0
24	17	6	10	585	52.0	-210482.0	-1057.0	-3559.0
24	17	6	10	586	53.0	-211116.0	-1010.0	-4007.0
24	17	6	10	587	54.0	-211590.0	-1004.0	-4094.0
24	17	6	10	619	55.0	-211210.0	-1009.0	-3792.0
24	17	6	10	620	56.0	-210033.0	-968.0	-3617.0
24	17	6	10	620	57.0	-208847.0	-952.0	-4089.0
24	17	6	10	621	58.0	-207465.0	-944.0	-4061.0
24	17	6	10	622	59.0	-206256.0	-926.0	-3682.0
24	17	6	10	622	60.0	-205216.0	-907.0	-4162.0
24	17	6	10	623	61.0	-203399.0	-906.0	-4179.0
24	17	6	10	624	62.0	-201859.0	-890.0	-4029.0
24	17	6	10	624	63.0	-200745.0	-870.0	-4105.0
24	17	6	10	625	64.0	-199267.0	-863.0	-4092.0
24	17	6	10	626	65.0	-197992.0	-846.0	-3834.0
24	17	6	10	627	66.0	-197192.0	-827.0	-3956.0
24	17	6	10	628	67.0	-196076.0	-811.0	-3980.0
24	17	6	10	628	68.0	-195553.0	-812.0	-3894.0
24	17	6	10	629	69.0	-196121.0	-806.0	-3693.0
24	17	6	10	630	71.0	-197604.0	-782.0	-3822.0
24	17	6	10	630	72.0	-198905.0	-774.0	-3485.0
24	17	6	10	631	73.0	-200002.0	-758.0	-3337.0
24	17	6	10	631	74.0	-201106.0	-752.0	-3621.0
24	17	6	10	632	75.0	-202104.0	-726.0	-3820.0
24	17	6	10	633	76.0	-203021.0	-719.0	-3901.0
24	17	6	10	633	77.0	-203518.0	-687.0	-3616.0
24	17	6	10	664	78.0	-204135.0	-671.0	-3401.0
24	17	6	10	665	79.0	-204813.0	-659.0	-3592.0
24	17	6	10	710	80.0	-205097.0	-673.0	-3511.0
24	17	6	10	710	81.0	-205222.0	-683.0	-3104.0
24	17	6	10	711	82.0	-205350.0	-681.0	-3151.0
24	17	6	10	712	83.0	-205241.0	-672.0	-3116.0
24	17	6	10	713	84.0	-205019.0	-677.0	-2699.0
24	17	6	10	713	85.0	-204278.0	-689.0	-2502.0
24	17	6	10	714	86.0	-203187.0	-687.0	-2708.0
24	17	6	10	715	87.0	-202574.0	-679.0	-2603.0
24	17	6	10	715	88.0	-202046.0	-690.0	-2536.0
24	17	6	10	716	89.0	-201661.0	-707.0	-2515.0
24	17	6	10	717	90.0	-201577.0	-721.0	-2741.0
24	17	6	10	717	91.0	-200982.0	-717.0	-2434.0
24	17	6	10	718	92.0	-200375.0	-727.0	-2166.0
24	17	6	10	718	94.0	-199977.0	-734.0	-2230.0
24	17	6	10	719	95.0	-199701.0	-712.0	-2134.0
24	17	6	10	720	117.0	-217384.0	-826.0	-1328.0
24	17	6	10	720	118.0	-218924.0	-812.0	-1334.0
24	17	6	10	721	119.0	-220466.0	-788.0	-1548.0
24	17	6	10	754	120.0	-221180.0	-779.0	-1342.0
24	17	6	10	798	121.0	-221224.0	-773.0	-1314.0
24	17	6	10	799	122.0	-220436.0	-771.0	-1596.0
24	17	6	10	799	123.0	-218322.0	-743.0	-1454.0
24	17	6	10	800	124.0	-215657.0	-728.0	-1210.0
24	17	6	10	800	125.0	-212635.0	-724.0	-1324.0
24	17	6	10	801	126.0	-207988.0	-722.0	-1494.0
24	17	6	10	802	127.0	-198019.0	-710.0	-1289.0
24	17	6	10	802	128.0	-178942.0	-701.0	-1164.0
24	17	6	10	803	129.0	-158840.0	-694.0	-1751.0
24	17	6	10	804	130.0	-162596.0	-669.0	-1811.0
24	17	6	10	804	131.0	-186171.0	-652.0	-1231.0
24	17	6	10	805	132.0	-201261.0	-647.0	-1592.0
24	17	6	10	805	133.0	-215772.0	-629.0	-1708.0
24	17	6	10	806	134.0	-224742.0	-612.0	-1412.0
24	17	6	10	807	139.0	-217792.0	-582.0	-1698.0
24	17	6	10	807	161.0	-190892.0	20.0	-973.0
24	17	6	10	808	162.0	-192134.0	68.0	-1430.0
24	17	6	10	808	163.0	-193414.0	102.0	-1487.0
24	17	6	10	809	164.0	-194967.0	125.0	-1292.0
24	17	6	10	810	165.0	-196860.0	164.0	-1254.0
24	17	6	10	810	166.0	-199011.0	201.0	-1227.0
24	17	6	10	822	167.0	-201327.0	255.0	-1109.0
24	17	6	10	845	168.0	-203252.0	278.0	-1331.0
24	17	6	10	845	169.0	-205178.0	309.0	-1431.0
24	17	6	10	846	170.0	-207186.0	322.0	-1410.0
24	17	6	10	847	171.0	-208427.0	342.0	-1374.0
24	17	6	10	847	172.0	-209949.0	362.0	-1564.0
24	17	6	10	848	173.0	-211470.0	383.0	-1257.0
24	17	6	10	849	174.0	-212577.0	399.0	-915.0
24	17	6	10	849	175.0	-213486.0	425.0	-778.0
24	17	6	10	850	176.0	-214442.0	456.0	-910.0
24	17	6	10	851	177.0	-214980.0	454.0	-996.0
24	17	6	10	851	178.0	-214526.0	471.0	-1058.0
24	17	6	10	852	179.0	-214181.0	498.0	-1317.0
24	17	6	10	852	180.0	-213901.0	497.0	-1293.0
24	17	6	10	853	181.0	-213824.0	531.0	-792.0
24	17	6	10	854	182.0	-213634.0	551.0	-816.0
24	17	6	10	854	184.0	-212285.0	580.0	-1031.0
24	17	6	10	855	185.0	-211564.0	609.0	-991.0
24	17	6	10	855	186.0	-210547.0	650.0	-992.0
24	17	6	10	856	187.0	-209244.0	678.0	-1063.0
24	17	6	10	857	188.0	-207787.0	699.0	-1002.0
24	17	6	10	857	189.0	-206343.0	709.0	-1192.0
24	17	6	10	980	190.0	-205074.0	739.0	-1237.0
24	17	6	10	981	191.0	-204202.0	764.0	-1431.0
24	17	6	10	982	192.0	-203827.0	784.0	-1297.0
24	17	6	10	982	193.0	-203744.0	785.0	-847.0
24	17	6	10	983	194.0	-203920.0	808.0	-917.0
24	17	6	10	984	195.0	-204427.0	821.0	-1091.0
24	17	6	10	984	196.0	-203679.0	850.0	-1134.0
24	17	6	10	985	197.0	-203126.0	868.0	-1127.0
24	17	6	10	985	198.0	-202989.0	861.0	-1394.0
24	17	6	11	25	199.0	-203636.0	863.0	-1439.0
24	17	6	11	26	200.0	-204837.0	894.0	-1168.0
24	17	6	11	26	201.0	-205760.0	924.0	-1304.0
24	17	6	11	27	202.0	-206874.0	913.0	-1016.0
24	17	6	11	28	203.0	-207384.0	921.0	-815.0
24	17	6	11	28	204.0	-207587.0	938.0	-712.0
24	17	6	11	29	206.0	-208904.0	933.0	-1026.0
24	17	6	11	30	251.0	-198810.0	728.0	-3008.0
24	17	6	11	30	252.0	-197914.0	718.0	-2591.0
24	17	6	11	31	253.0	-197630.0	707.0	-2367.0
24	17	6	11	31	254.0	-197318.0	711.0	-2561.0
24	17	6	11	32	255.0	-196597.0	730.0	-2370.0
24	17	6	11	33	0.0	-196067.0	733.0	-1937.0
24	17	6	11	33	1.0	-194883.0	732.0	-1911.0
24	17	6	11	34	2.0	-194047.0	719.0	-2001.0
24	17	6	11	35	3.0	-193291.0	711.0	-1952.0
24	17	6	11	35	18.0	-205109.0	721.0	-769.0
24	17	6	11	36	19.0	-206730.0	736.0	-870.0
24	17	6	11	36	20.0	-207471.0	753.0	-989.0
24	17	6	11	37	21.0	-207556.0	780.0	-1132.0
24	17	6	11	37	22.0	-206998.0	781.0	-719.0
24	17	6	11	38	23.0	-206470.0	799.0	-782.0
24	17	6	11	69	24.0	-206517.0	813.0	-1249.0
24	17	6	11	70	25.0	-207349.0	825.0	-1187.0
24	17	6	11	70	26.0	-207457.0	828.0	-752.0
24	17	6	11	71	27.0	-206531.0	823.0	-699.0
24	17	6	11	71	28.0	-206022.0	839.0	-1007.0
24	17	6	11	72	29.0	-206297.0	836.0	-929.0
24	17	6	11	73	30.0	-206036.0	850.0	-767.0
24	17	6	11	73	31.0	-205010.0	857.0	-1021.0
24	17	6	11	74	32.0	-203169.0	866.0	-1159.0
24	17	6	11	75	33.0	-200797.0	872.0	-692.0
24	17	6	11	76	34.0	-198566.0	875.0	-840.0
24	17	6	11	76	35.0	-196262.0	877.0	-939.0
24	17	6	11	77	36.0	-194479.0	903.0	-836.0
24	17	6	11	78	37.0	-192861.0	908.0	-875.0
24	17	6	11	78	38.0	-191364.0	923.0	-1620.0
24	17	6	11	79	40.0	-191159.0	924.0	-1293.0
24	17	6	11	80	41.0	-191156.0	914.0	-732.0
24	17	6	11	80	42.0	-191299.0	942.0	-1637.0
24	17	6	11	81	43.0	-191476.0	964.0	-3174.0
24	17	6	11	82	44.0	-191876.0	986.0	-5002.0
24	17	6	11	82	45.0	-192457.0	1001.0	-6645.0
24	17	6	11	130	46.0	-193256.0	1004.0	-7845.0
24	17	6	11	160	47.0	-194231.0	1009.0	-8650.0
24	17	6	11	161	48.0	-195007.0	1024.0	-8430.0
24	17	6	11	162	49.0	-195898.0	1021.0	-8482.0
24	17	6	11	162	50.0	-196349.0	1031.0	-9294.0
24	17	6	11	163	51.0	-196353.0	1048.0	-10789.0
24	17	6	11	163	52.0	-196404.0	1069.0	-13044.0
24	17	6	11	164	53.0	-195742.0	1071.0	-16064.0
24	17	6	11	165	54.0	-194772.0	1081.0	-18700.0
24	17	6	11	165	55.0	-194236.0	1078.0	-18082.0
24	17	6	11	166	56.0	-193744.0	1083.0	-15771.0
24	17	6	11	167	57.0	-193091.0	1123.0	-12469.0
24	17	6	11	168	58.0	-192362.0	1139.0	-8256.0
24	17	6	11	168	59.0	-191616.0	1154.0	-3952.0
24	17	6	11	169	60.0	-190867.0	1171.0	-289.0
24	17	6	11	170	70.0	-217378.0	1288.0	-974.0
24	17	6	11	170	85.0	-249051.0	1619.0	-1086.0
24	17	6	11	171	86.0	-243441.0	1631.0	-1036.0
24	17	6	11	171	87.0	-233235.0	1657.0	-1256.0
24	17	6	11	172	88.0	-221084.0	1713.0	-947.0
24	17	6	11	180	89.0	-208157.0	1745.0	-1290.0
24	17	6	11	181	90.0	-195464.0	1786.0	-1446.0
24	17	6	11	182	91.0	-185315.0	1814.0	-1317.0
24	17	6	11	182	92.0	-180146.0	1833.0	-1494.0
24	17	6	11	203	93.0	-180059.0	1838.0	-1351.0
24	17	6	11	203	94.0	-182281.0	1871.0	-1474.0
24	17	6	11	204	95.0	-186359.0	1936.0	-1406.0
24	17	6	11	214	96.0	-192926.0	1966.0	-1366.0
24	17	6	11	216	97.0	-199365.0	1993.0	-1652.0
24	17	6	11	216	98.0	-202925.0	2015.0	-1394.0
24	17	6	11	217	99.0	-203794.0	2034.0	-1141.0
24	17	6	11	217	100.0	-203577.0	2044.0	-1192.0
24	17	6	11	218	101.0	-203057.0	2076.0	-1277.0
24	17	6	11	219	102.0	-202106.0	2126.0	-1099.0
24	17	6	11	219	103.0	-201777.0	2157.0	-1247.0
24	17	6	11	220	104.0	-201796.0	2192.0	-1539.0
24	17	6	11	220	105.0	-202021.0	2233.0	-1407.0
24	17	6	11	221	106.0	-201264.0	2243.0	-1673.0
24	17	6	11	221	107.0	-199180.0	2279.0	-1874.0
24	17	6	11	222	108.0	-196171.0	2290.0	-1844.0
24	17	6	11	223	109.0	-193269.0	2309.0	-1861.0
24	17	6	11	234	110.0	-190310.0	2350.0	-2007.0
24	17	6	11	235	111.0	-187795.0	2378.0	-1980.0
24	17	6	11	235	112.0	-185809.0	2394.0	-2092.0
24	17	6	11	236	113.0	-184459.0	2424.0	-2107.0
24	17	6	11	237	114.0	-183462.0	2456.0	-2131.0
24	17	6	11	237	115.0	-183432.0	2459.0	-2139.0
24	17	6	11	238	116.0	-184409.0	2484.0	-2216.0
24	17	6	11	238	117.0	-185483.0	2557.0	-2351.0
24	17	6	11	239	118.0	-186185.0	2560.0	-2228.0
24	17	6	11	239	119.0	-186704.0	2571.0	-2396.0
24	17	6	11	240	120.0	-187299.0	2599.0	-2270.0
24	17	6	11	240	121.0	-187609.0	2624.0	-2517.0
24	17	6	11	241	122.0	-187748.0	2657.0	-2786.0
24	17	6	11	242	123.0	-188105.0	2666.0	-2632.0
24	17	6	11	242	124.0	-188733.0	2701.0	-2748.0
24	17	6	11	243	125.0	-189581.0	2735.0	-2855.0
24	17	6	11	243	126.0	-190606.0	2793.0	-3032.0
24	17	6	11	254	127.0	-191910.0	2833.0	-3110.0
24	17	6	11	254	128.0	-193233.0	2860.0	-3222.0
24	17	6	11	255	129.0	-194292.0	2881.0	-3498.0
24	17	6	11	277	130.0	-195106.0	2899.0	-3846.0
24	17	6	11	277	131.0	-196164.0	2941.0	-3756.0
24	17	6	11	278	132.0	-197167.0	2975.0	-3829.0
24	17	6	11	278	133.0	-198288.0	3002.0	-3988.0
24	17	6	11	279	134.0	-200017.0	3026.0	-3753.0
24	17	6	11	279	135.0	-201701.0	3053.0	-3644.0
24	17	6	11	280	136.0	-203001.0	3085.0	-4043.0
24	17	6	11	280	137.0	-204145.0	3112.0	-4140.0
24	17	6	11	281	138.0	-204941.0	3151.0	-3996.0
24	17	6	11	282	139.0	-205375.0	3192.0	-4158.0
24	17	6	11	282	140.0	-205333.0	3243.0	-4179.0
24	17	6	11	283	141.0	-204473.0	3284.0	-4287.0
24	17	6	11	283	142.0	-203526.0	3324.0	-4364.0
24	17	6	11	284	143.0	-202835.0	3334.0	-4489.0
24	17	6	11	284	144.0	-201662.0	3369.0	-4334.0
24	17	6	11	285	145.0	-200598.0	3403.0	-4054.0
24	17	6	11	301	146.0	-200084.0	3428.0	-4422.0
24	17	6	11	301	147.0	-199234.0	3481.0	-4652.0
24	17	6	11	302	148.0	-197696.0	3520.0	-4367.0
24	17	6	11	302	149.0	-196363.0	3554.0	-4176.0
24	17	6	11	324	150.0	-194866.0	3607.0	-4646.0
24	17	6	11	324	151.0	-193449.0	3625.0	-4581.0
24	17	6	11	325	152.0	-192374.0	3649.0	-4332.0
24	17	6	11	326	153.0	-191221.0	3653.0	-4296.0
24	17	6	11	326	154.0	-189569.0	3688.0	-4177.0
24	17	6	11	327	155.0	-188825.0	3742.0	-3954.0
24	17	6	11	327	156.0	-188704.0	3759.0	-4064.0
24	17	6	11	328	157.0	-188966.0	3777.0	-3879.0
24	17	6	11	329	158.0	-190123.0	3814.0	-3724.0
24	17	6	11	329	159.0	-191764.0	3841.0	-3832.0
24	17	6	11	330	160.0	-193649.0	3853.0	-3901.0
24	17	6	11	330	161.0	-196104.0	3874.0	-3771.0
24	17	6	11	331	162.0	-198544.0	3921.0	-3539.0
24	17	6	11	331	163.0	-200153.0	3943.0	-3447.0
24	17	6	11	332	164.0	-201886.0	3940.0	-3423.0
24	17	6	11	332	165.0	-203457.0	3961.0	-3404.0
24	17	6	11	333	167.0	-205066.0	3976.0	-3629.0
24	17	6	11	334	168.0	-205222.0	3981.0	-3486.0
24	17	6	11	334	169.0	-205356.0	4004.0	-3464.0
24	17	6	11	347	170.0	-205158.0	4029.0	-3278.0
24	17	6	11	347	171.0	-204661.0	4040.0	-3406.0
24	17	6	11	348	172.0	-203673.0	4053.0	-3434.0
24	17	6	11	349	173.0	-204042.0	4054.0	-3151.0
24	17	6	11	349	174.0	-206189.0	4079.0	-2751.0
24	17	6	11	350	175.0	-206761.0	4077.0	-2809.0
24	17	6	11	370	176.0	-205632.0	4066.0	-2681.0
24	17	6	11	371	177.0	-204789.0	4074.0	-2630.0
24	17	6	11	371	178.0	-204460.0	4089.0	-2536.0
24	17	6	11	372	179.0	-205102.0	4092.0	-2741.0
24	17	6	11	372	180.0	-206377.0	4059.0	-2577.0
24	17	6	11	373	181.0	-206814.0	4070.0	-2342.0
24	17	6	11	373	182.0	-207259.0	4083.0	-2646.0
24	17	6	11	374	183.0	-207036.0	4088.0	-2641.0
24	17	6	11	375	184.0	-206476.0	4067.0	-2640.0
24	17	6	11	375	185.0	-206017.0	4047.0	-2512.0
24	17	6	11	376	186.0	-205327.0	4059.0	-2491.0
24	17	6	11	376	187.0	-204274.0	4066.0	-2224.0
24	17	6	11	377	188.0	-203561.0	4066.0	-2007.0
24	17	6	11	377	189.0	-203220.0	4043.0	-2120.0
24	17	6	11	378	190.0	-203787.0	4038.0	-2231.0
24	17	6	11	393	191.0	-204350.0	4028.0	-2059.0
24	17	6	11	417	192.0	-205372.0	4024.0	-1986.0
24	17	6	11	417	193.0	-206417.0	4039.0	-1849.0
24	17	6	11	418	194.0	-207784.0	4033.0	-1886.0
24	17	6	11	418	195.0	-209032.0	4037.0	-2007.0
24	17	6	11	419	196.0	-210644.0	4054.0	-2059.0
24	17	6	11	419	197.0	-212059.0	4040.0	-2157.0
24	17	6	11	420	198.0	-214289.0	4041.0	-1976.0
24	17	6	11	420	199.0	-216007.0	4074.0	-1959.0
24	17	6	11	421	200.0	-218152.0	4062.0	-1929.0
24	17	6	11	422	201.0	-219561.0	4064.0	-1802.0
24	17	6	11	422	202.0	-220442.0	4071.0	-1913.0
24	17	6	11	423	203.0	-220137.0	4069.0	-1882.0
24	17	6	11	423	204.0	-218957.0	4071.0	-1676.0
24	17	6	11	424	205.0	-216332.0	4098.0	-1804.0
24	17	6	11	424	206.0	-212644.0	4115.0	-1860.0
24	17	6	11	425	207.0	-208012.0	4121.0	-1707.0
24	17	6	11	425	208.0	-202094.0	4146.0	-1848.0
24	17	6	11	426	209.0	-191699.0	4152.0	-2001.0
24	17	6	11	426	210.0	-172009.0	4162.0	-1824.0
24	17	6	11	427	211.0	-153600.0	4159.0	-1649.0
24	17	6	11	428	212.0	-161526.0	4174.0	-1811.0
24	17	6	11	428	213.0	-183031.0	4197.0	-1893.0
24	17	6	11	429	214.0	-192487.0	4233.0	-1399.0
24	17	6	11	429	215.0	-204337.0	4219.0	-1646.0
24	17	6	11	439	216.0	-214742.0	4242.0	-1760.0
24	17	6	11	440	217.0	-223566.0	4271.0	-1740.0
24	17	6	11	440	218.0	-225427.0	4286.0	-1807.0
24	17	6	11	441	219.0	-222474.0	4291.0	-2014.0
24	17	6	11	441	220.0	-221259.0	4309.0	-1896.0
24	17	6	11	442	221.0	-219429.0	4321.0	-1891.0
24	17	6	11	462	222.0	-216481.0	4353.0	-2058.0
24	17	6	11	463	223.0	-214594.0	4371.0	-2349.0
24	17	6	11	463	224.0	-212988.0	4381.0	-2155.0
24	17	6	11	464	225.0	-211202.0	4406.0	-2342.0
24	17	6	11	464	226.0	-209574.0	4411.0	-2438.0
24	17	6	11	465	227.0	-209045.0	4431.0	-2337.0
24	17	6	11	466	228.0	-207387.0	4448.0	-2281.0
24	17	6	11	466	229.0	-203776.0	4478.0	-2601.0
24	17	6	11	485	230.0	-198392.0	4491.0	-2317.0
24	17	6	11	485	231.0	-191710.0	4501.0	-2200.0
24	17	6	11	486	232.0	-185747.0	4530.0	-2337.0
24	17	6	11	486	233.0	-181181.0	4535.0	-2316.0
24	17	6	11	487	234.0	-178232.0	4536.0	-1994.0
24	17	6	11	487	235.0	-176169.0	4546.0	-1950.0
24	17	6	11	488	236.0	-175867.0	4568.0	-1854.0
24	17	6	11	489	237.0	-177520.0	4613.0	-2042.0
24	17	6	11	489	238.0	-179888.0	4623.0	-2012.0
24	17	6	11	490	239.0	-182284.0	4633.0	-1787.0
24	17	6	11	490	240.0	-184269.0	4659.0	-2036.0
24	17	6	11	491	241.0	-186024.0	4684.0	-2145.0
24	17	6	11	491	242.0	-188411.0	4698.0	-2256.0
24	17	6	11	492	243.0	-190571.0	4726.0	-2351.0
24	17	6	11	492	244.0	-192561.0	4766.0	-2256.0
24	17	6	11	493	245.0	-194534.0	4819.0	-2236.0
24	17	6	11	493	246.0	-195955.0	4849.0	-2203.0
24	17	6	11	494	247.0	-197261.0	4883.0	-2084.0
24	17	6	11	495	248.0	-198766.0	4909.0	-2166.0
24	17	6	11	495	249.0	-199902.0	4916.0	-2032.0
24	17	6	11	507	250.0	-200734.0	4946.0	-2114.0
24	17	6	11	508	251.0	-201592.0	4992.0	-2317.0
24	17	6	11	508	252.0	-202341.0	5009.0	-2169.0
24	17	6	11	509	253.0	-203007.0	5024.0	-1789.0
24	17	6	11	509	254.0	-204414.0	5046.0	-1956.0
24	17	6	11	510	255.0	-205744.0	5052.0	-1963.0
24	17	6	11	511	0.0	-207084.0	5074.0	-1684.0
24	17	6	11	511	1.0	-209152.0	5081.0	-1800.0
24	17	6	11	512	2.0	-211211.0	5119.0	-1984.0
24	17	6	11	530	3.0	-212928.0	5173.0	-2074.0
24	17	6	11	531	4.0	-214149.0	5181.0	-1870.0
24	17	6	11	532	5.0	-215073.0	5218.0	-2052.0
24	17	6	11	532	6.0	-215908.0	5254.0	-2254.0
24	17	6	11	533	7.0	-216476.0	5274.0	-1962.0
24	17	6	11	533	8.0	-216861.0	5286.0	-1925.0
24	17	6	11	534	9.0	-216200.0	5334.0	-2003.0
24	17	6	11	534	10.0	-213825.0	5391.0	-2046.0
24	17	6	11	554	11.0	-212268.0	5431.0	-1662.0
24	17	6	11	554	12.0	-212255.0	5469.0	-1832.0
24	17	6	11	555	13.0	-212998.0	5502.0	-2132.0
24	17	6	11	556	14.0	-213351.0	5559.0	-1929.0
24	17	6	11	556	15.0	-212978.0	5579.0	-1669.0
24	17	6	11	557	16.0	-211576.0	5627.0	-1931.0
24	17	6	11	557	17.0	-209277.0	5681.0	-1864.0
24	17	6	11	558	18.0	-206149.0	5737.0	-1836.0
24	17	6	11	558	19.0	-203041.0	5779.0	-1951.0
24	17	6	11	559	20.0	-201265.0	5843.0	-1934.0
24	17	6	11	559	21.0	-203249.0	5894.0	-2090.0
24	17	6	11	560	22.0	-205183.0	5941.0	-2068.0
24	17	6	11	561	23.0	-203139.0	6001.0	-1865.0
24	17	6	11	561	24.0	-200447.0	6044.0	-2061.0
24	17	6	11	562	25.0	-198223.0	6116.0	-2050.0
24	17	6	11	562	26.0	-196699.0	6166.0	-2127.0
24	17	6	11	563	27.0	-196484.0	6248.0	-1937.0
24	17	6	11	563	28.0	-196469.0	6333.0	-2049.0
24	17	6	11	564	29.0	-195597.0	6433.0	-2249.0
24	17	6	11	565	30.0	-194750.0	6513.0	-1984.0
24	17	6	11	578	31.0	-195364.0	6563.0	-1955.0
24	17	6	11	579	32.0	-196077.0	6636.0	-2369.0
24	17	6	11	579	33.0	-198967.0	6730.0	-2175.0
24	17	6	11	580	34.0	-204717.0	6818.0	-2103.0
24	17	6	11	580	35.0	-195511.0	6856.0	-1936.0
24	17	6	11	581	36.0	-191548.0	6937.0	-1933.0
24	17	6	11	582	37.0	-190578.0	7009.0	-1788.0
24	17	6	11	582	38.0	-192132.0	7074.0	-1901.0
24	17	6	11	583	39.0	-194635.0	7125.0	-1982.0
24	17	6	11	599	40.0	-196868.0	7192.0	-1723.0
24	17	6	11	600	41.0	-197946.0	7279.0	-1809.0
24	17	6	11	600	42.0	-198409.0	7351.0	-2256.0
24	17	6	11	601	43.0	-198867.0	7404.0	-2367.0
24	17	6	11	601	44.0	-198438.0	7461.0	-1932.0
24	17	6	11	602	45.0	-198023.0	7532.0	-2157.0
24	17	6	11	602	46.0	-198267.0	7599.0	-2148.0
24	17	6	11	622	47.0	-199417.0	7676.0	-1907.0
24	17	6	11	623	48.0	-199861.0	7739.0	-1930.0
24	17	6	11	624	49.0	-200117.0	7812.0	-2159.0
24	17	6	11	624	50.0	-199944.0	7877.0	-2371.0
24	17	6	11	625	51.0	-197486.0	7923.0	-2419.0
24	17	6	11	625	52.0	-200143.0	7999.0	-2595.0
24	17	6	11	626	53.0	-199922.0	8074.0	-2348.0
24	17	6	11	626	54.0	-197544.0	8141.0	-2535.0
24	17	6	11	645	55.0	-196660.0	8220.0	-2558.0
24	17	6	11	646	56.0	-196699.0	8306.0	-2442.0
24	17	6	11	647	57.0	-200613.0	8435.0	-2318.0
24	17	6	11	647	58.0	-188706.0	8673.0	-2391.0
24	17	6	11	648	59.0	-199839.0	8932.0	-2514.0
24	17	6	11	649	60.0	-199911.0	9148.0	-2696.0
24	17	6	11	649	61.0	-197632.0	9378.0	-2996.0
24	17	6	11	650	62.0	-193271.0	9595.0	-3108.0
24	17	6	11	650	63.0	-189042.0	9825.0	-3126.0
24	17	6	11	651	64.0	-187451.0	10046.0	-3440.0
24	17	6	11	651	65.0	-186593.0	10252.0	-3225.0
24	17	6	11	652	66.0	-190626.0	10461.0	-2869.0
24	17	6	11	652	67.0	-204350.0	10713.0	-2936.0
24	17	6	11	653	68.0	-176805.0	11040.0	-3197.0
24	17	6	11	654	69.0	-184842.0	11414.0	-3009.0
24	17	6	11	654	70.0	-190991.0	11791.0	-2847.0
24	17	6	11	655	71.0	-194695.0	12174.0	-2568.0
24	17	6	11	655	72.0	-195378.0	12604.0	-2674.0
24	17	6	11	656	73.0	-194005.0	13060.0	-2653.0
24	17	6	11	657	74.0	-196710.0	13524.0	-2662.0
24	17	6	11	657	75.0	-200271.0	14004.0	-2595.0
24	17	6	11	668	76.0	-200009.0	14475.0	-2307.0
24	17	6	11	669	77.0	-197272.0	14936.0	-1971.0
24	17	6	11	670	78.0	-197686.0	15448.0	-1983.0
24	17	6	11	670	79.0	-199827.0	15935.0	-1940.0
24	17	6	11	671	80.0	-198612.0	16433.0	-1799.0
24	17	6	11	671	81.0	-199853.0	16956.0	-2069.0
24	17	6	11	672	82.0	-197615.0	17493.0	-2426.0
24	17	6	11	673	83.0	-195024.0	18038.0	-1915.0
24	17	6	11	673	84.0	-192058.0	18596.0	-1978.0
24	17	6	11	691	85.0	-189326.0	19185.0	-2152.0
24	17	6	11	691	86.0	-188044.0	19779.0	-1764.0
24	17	6	11	692	87.0	-191805.0	20387.0	-1720.0
24	17	6	11	692	88.0	-193176.0	20978.0	-2057.0
24	17	6	11	693	89.0	-192507.0	21594.0	-1731.0
24	17	6	11	693	90.0	-192102.0	22219.0	-1430.0
24	17	6	11	694	91.0	-192377.0	22855.0	-1241.0
24	17	6	11	714	92.0	-193671.0	23513.0	-1554.0
24	17	6	11	715	93.0	-195005.0	24178.0	-1504.0
24	17	6	11	715	94.0	-193521.0	24859.0	-1451.0
24	17	6	11	716	95.0	-192994.0	25531.0	-1450.0
24	17	6	11	717	96.0	-194137.0	26216.0	-1238.0
24	17	6	11	717	97.0	-196409.0	26927.0	-1175.0
24	17	6	11	718	98.0	-197858.0	27653.0	-1271.0
24	17	6	11	718	99.0	-195189.0	28365.0	-1301.0
24	17	6	11	719	100.0	-198752.0	29123.0	-1433.0
24	17	6	11	720	101.0	-200906.0	29884.0	-969.0
24	17	6	11	720	102.0	-200037.0	30662.0	-1193.0
24	17	6	11	721	103.0	-197564.0	31451.0	-1537.0
24	17	6	11	721	104.0	-195254.0	32264.0	-1422.0
24	17	6	11	722	105.0	-198141.0	33081.0	-1469.0
24	17	6	11	723	106.0	-199379.0	33916.0	-1902.0
24	17	6	11	723	107.0	-205365.0	34788.0	-2016.0
24	17	6	11	724	108.0	-217664.0	35706.0	-1984.0
24	17	6	11	724	109.0	-281429.0	36788.0	-1677.0
24	17	6	11	725	110.0	-262672.0	38233.0	-1683.0
24	17	6	11	737	111.0	-205452.0	40114.0	-2306.0
24	17	6	11	738	112.0	-215674.0	42288.0	-3349.0
24	17	6	11	761	113.0	-187501.0	44663.0	-5139.0
24	17	6	11	762	114.0	-173607.0	47236.0	-7259.0
24	17	6	11	762	115.0	-158328.0	49986.0	-9183.0
24	17	6	11	763	116.0	-156063.0	52840.0	-10843.0
24	17	6	11	764	117.0	-154159.0	55810.0	-11977.0
24	17	6	11	764	118.0	-163376.0	58886.0	-12187.0
24	17	6	11	765	119.0	-166296.0	62032.0	-12051.0
24	17	6	11	765	120.0	-173046.0	65303.0	-12857.0
24	17	6	11	766	121.0	-177739.0	68675.0	-14300.0
24	17	6	11	766	122.0	-181546.0	72186.0	-15389.0
24	17	6	11	767	123.0	-186355.0	75815.0	-17340.0
24	17	6	11	768	124.0	-196096.0	79553.0	-18234.0
24	17	6	11	768	125.0	-203435.0	83422.0	-16519.0
24	17	6	11	769	126.0	-200659.0	87381.0	-13763.0
24	17	6	11	769	127.0	-208644.0	91498.0	-10030.0
24	17	6	11	770	128.0	-208280.0	95823.0	-5905.0
24	17	6	11	770	129.0	-196972.0	100342.0	-2161.0
24	17	6	11	783	130.0	-195468.0	105016.0	2337.0
24	17	6	11	783	131.0	-198289.0	109765.0	6255.0
24	17	6	11	806	132.0	-199104.0	114580.0	8761.0
24	17	6	11	807	133.0	-209466.0	119440.0	9237.0
24	17	6	11	807	134.0	-205169.0	124311.0	7946.0
24	17	6	11	808	135.0	-200384.0	129191.0	5024.0
24	17	6	11	808	136.0	-208116.0	134082.0	2781.0
24	17	6	11	809	137.0	-215556.0	138985.0	796.0
24	17	6	11	810	138.0	-221561.0	143889.0	-406.0
24	17	6	11	830	139.0	-224204.0	148771.0	-851.0
24	17	6	11	831	140.0	-223882.0	153634.0	-1332.0
24	17	6	11	831	141.0	-223252.0	158456.0	-1342.0
24	17	6	11	832	142.0	-218424.0	163226.0	-1092.0
24	17	6	11	833	143.0	-203344.0	167943.0	-1151.0
24	17	6	11	833	144.0	-194048.0	172583.0	-1230.0
24	17	6	11	834	145.0	-185732.0	177200.0	-1257.0
24	17	6	11	834	146.0	-183819.0	181785.0	-1649.0
24	17	6	11	835	147.0	-184631.0	186323.0	-1787.0
24	17	6	11	836	148.0	-185299.0	190816.0	-1816.0
24	17	6	11	836	149.0	-190641.0	195241.0	-1786.0
24	17	6	11	837	150.0	-198836.0	199615.0	-1911.0
24	17	6	11	837	151.0	-215477.0	203973.0	-2009.0
24	17	6	11	838	152.0	-230302.0	208265.0	-1689.0
24	17	6	11	838	153.0	-237902.0	212502.0	-1846.0
24	17	6	11	839	158.0	-213107.0	233004.0	-1964.0
24	17	6	11	840	159.0	-202675.0	236917.0	-1956.0
24	17	6	11	840	160.0	-197117.0	240823.0	-2306.0
24	17	6	11	841	161.0	-194671.0	244673.0	-2363.0
24	17	6	11	841	162.0	-193149.0	248495.0	-2113.0
24	17	6	11	842	163.0	-195407.0	252297.0	-2104.0
24	17	6	11	842	164.0	-204277.0	256051.0	-2537.0
24	17	6	11	843	165.0	-211271.0	259789.0	-2447.0
24	17	6	11	852	166.0	-216874.0	263468.0	-2124.0
24	17	6	11	853	167.0	-221217.0	267141.0	-2104.0
24	17	6	11	854	168.0	-223478.0	270806.0	-2161.0
24	17	6	11	854	169.0	-224184.0	274441.0	-2087.0
24	17	6	11	855	170.0	-223771.0	278049.0	-2252.0
24	17	6	11	875	171.0	-218277.0	281633.0	-2384.0
24	17	6	11	876	172.0	-212982.0	285194.0	-2447.0
24	17	6	11	898	173.0	-207247.0	288732.0	-2590.0
24	17	6	11	899	174.0	-202910.0	292263.0	-2809.0
24	17	6	11	899	175.0	-196352.0	295779.0	-2671.0
24	17	6	11	900	176.0	-190728.0	299265.0	-2606.0
24	17	6	11	900	177.0	-192447.0	302754.0	-2575.0
24	17	6	11	901	178.0	-193156.0	306199.0	-2534.0
24	17	6	11	902	179.0	-194386.0	309668.0	-2747.0
24	17	6	11	902	180.0	-192952.0	313144.0	-2922.0
24	17	6	11	903	181.0	-190457.0	316657.0	-2998.0
24	17	6	11	903	182.0	-190803.0	320207.0	-3126.0
24	17	6	11	904	183.0	-191869.0	323788.0	-3147.0
24	17	6	11	904	184.0	-189781.0	327429.0	-3251.0
24	17	6	11	905	185.0	-188557.0	331128.0	-3492.0
24	17	6	11	906	186.0	-162530.0	334879.0	-3441.0
24	17	6	11	906	187.0	-155001.0	338635.0	-3472.0
24	17	6	11	907	188.0	-156467.0	342341.0	-3482.0
24	17	6	11	907	189.0	-156102.0	346015.0	-3677.0
24	17	6	11	908	190.0	-160741.0	349648.0	-3712.0
24	17	6	11	909	191.0	-166884.0	353243.0	-3438.0
24	17	6	11	910	192.0	-183351.0	356806.0	-3546.0
24	17	6	11	911	193.0	-194271.0	360329.0	-3899.0
24	17	6	11	911	194.0	-196099.0	363866.0	-3846.0
24	17	6	11	912	195.0	-211925.0	367384.0	-3873.0
24	17	6	11	913	196.0	-209586.0	370912.0	-4048.0
24	17	6	11	913	197.0	-216134.0	374449.0	-4146.0
24	17	6	11	914	198.0	-217346.0	377979.0	-3879.0
24	17	6	11	914	199.0	-204092.0	381514.0	-3919.0
24	17	6	11	915	200.0	-182130.0	385021.0	-4387.0
24	17	6	11	916	201.0	-186821.0	388466.0	-4553.0
24	17	6	11	916	202.0	-172988.0	391847.0	-4354.0
24	17	6	11	917	203.0	-165977.0	395167.0	-4560.0
24	17	6	11	918	204.0	-170246.0	398419.0	-4715.0
24	17	6	11	926	205.0	-176827.0	401609.0	-4602.0
24	17	6	11	927	206.0	-178221.0	404708.0	-4512.0
24	17	6	11	928	207.0	-188879.0	407756.0	-4705.0
24	17	6	11	928	208.0	-198476.0	410706.0	-4851.0
24	17	6	11	929	209.0	-209357.0	413567.0	-4854.0
24	17	6	11	930	210.0	-210917.0	416381.0	-5222.0
24	17	6	11	930	211.0	-215991.0	419125.0	-5113.0
24	17	6	11	952	212.0	-217887.0	421783.0	-4881.0
24	17	6	11	952	213.0	-219761.0	424389.0	-5207.0
24	17	6	11	953	214.0	-217123.0	426908.0	-5221.0
24	17	6	11	953	215.0	-217321.0	429347.0	-5077.0
24	17	6	11	954	216.0	-221099.0	431706.0	-5346.0
24	17	6	11	954	217.0	-222313.0	433999.0	-5192.0
24	17	6	11	955	218.0	-221371.0	436206.0	-4992.0
24	17	6	11	956	219.0	-213087.0	438349.0	-4947.0
24	17	6	11	956	220.0	-206065.0	440458.0	-5109.0
24	17	6	11	957	221.0	-197767.0	442482.0	-4974.0
24	17	6	11	957	222.0	-196812.0	444451.0	-5147.0
24	17	6	11	958	223.0	-187569.0	446351.0	-5132.0
24	17	6	11	958	224.0	-183394.0	448202.0	-4769.0
24	17	6	11	959	225.0	-177771.0	449991.0	-5017.0
24	17	6	11	959	226.0	-182559.0	451729.0	-5095.0
24	17	6	11	974	227.0	-174796.0	453408.0	-4459.0
24	17	6	11	975	228.0	-167557.0	455044.0	-4321.0
24	17	6	11	975	229.0	-172194.0	456619.0	-4599.0
24	17	6	11	976	230.0	-174680.0	458143.0	-4737.0
24	17	6	11	976	231.0	-175689.0	459635.0	-4425.0
24	17	6	11	977	232.0	-178793.0	461103.0	-4501.0
24	17	6	11	977	233.0	-183431.0	462509.0	-4560.0
24	17	6	11	978	234.0	-183450.0	463883.0	-4184.0
24	17	6	11	999	235.0	-186617.0	465244.0	-3789.0
24	17	6	11	999	236.0	-191948.0	466566.0	-3989.0
24	17	6	12	0	237.0	-205807.0	467862.0	-3919.0
24	17	6	12	0	238.0	-216167.0	469138.0	-3796.0
24	17	6	12	1	239.0	-221786.0	470400.0	-3574.0
24	17	6	12	2	240.0	-227325.0	471658.0	-3417.0
24	17	6	12	2	241.0	-222274.0	472895.0	-3522.0
24	17	6	12	3	242.0	-212842.0	474120.0	-3487.0
24	17	6	12	3	243.0	-204431.0	475347.0	-3521.0
24	17	6	12	4	244.0	-215886.0	476551.0	-3322.0
24	17	6	12	4	245.0	-208362.0	477716.0	-3151.0
24	17	6	12	5	246.0	-208811.0	478862.0	-3326.0
24	17	6	12	5	247.0	-211464.0	480004.0	-3245.0
24	17	6	12	6	248.0	-218314.0	481111.0	-2634.0
24	17	6	12	6	249.0	-226301.0	482228.0	-2737.0
24	17	6	12	28	250.0	-235692.0	483287.0	-2826.0
24	17	6	12	29	251.0	-234664.0	484329.0	-2632.0
24	17	6	12	29	252.0	-241472.0	485361.0	-2587.0
24	17	6	12	30	253.0	-242674.0	486366.0	-2755.0
24	17	6	12	30	254.0	-241631.0	487356.0	-2523.0
24	17	6	12	31	255.0	-243667.0	488296.0	-2295.0
24	17	6	12	31	0.0	-237996.0	489228.0	-2307.0
24	17	6	12	32	1.0	-233091.0	490154.0	-2082.0
24	17	6	12	33	2.0	-233891.0	491029.0	-2131.0
24	17	6	12	33	3.0	-235065.0	491913.0	-2116.0
24	17	6	12	34	4.0	-232151.0	492754.0	-1771.0
24	17	6	12	34	5.0	-227496.0	493579.0	-1718.0
24	17	6	12	45	6.0	-233912.0	494358.0	-2260.0
24	17	6	12	46	7.0	-236586.0	495130.0	-2194.0
24	17	6	12	46	8.0	-242298.0	495875.0	-1765.0
24	17	6	12	47	9.0	-247477.0	496618.0	-1822.0
24	17	6	12	47	10.0	-249472.0	497294.0	-1906.0
24	17	6	12	48	11.0	-254951.0	497949.0	-1636.0
24	17	6	12	48	12.0	-254050.0	498597.0	-1694.0
24	17	6	12	49	13.0	-240892.0	499222.0	-1882.0
24	17	6	12	67	14.0	-255599.0	499826.0	-1512.0
24	17	6	12	68	15.0	-291489.0	500375.0	-1397.0
24	17	6	12	68	16.0	-307182.0	500906.0	-1909.0
24	17	6	12	69	17.0	-299186.0	501436.0	-1699.0
24	17	6	12	69	18.0	-169935.0	501916.0	-1556.0
24	17	6	12	70	19.0	-162535.0	502419.0	-1574.0
24	17	6	12	71	20.0	-166372.0	502869.0	-1829.0
24	17	6	12	71	21.0	-124947.0	503324.0	-1594.0
24	17	6	12	72	22.0	-114891.0	503731.0	-1608.0
24	17	6	12	72	23.0	-102207.0	504117.0	-1772.0
24	17	6	12	73	24.0	-106389.0	504476.0	-1907.0
24	17	6	12	74	25.0	-129442.0	504808.0	-1658.0
24	17	6	12	74	26.0	-153697.0	505098.0	-1705.0
24	17	6	12	75	27.0	-174417.0	505372.0	-2029.0
24	17	6	12	76	28.0	-197510.0	505637.0	-1979.0
24	17	6	12	76	29.0	-216327.0	505853.0	-1891.0
24	17	6	12	104	30.0	-208850.0	506034.0	-2037.0
24	17	6	12	105	31.0	-227522.0	506229.0	-2094.0
24	17	6	12	106	32.0	-223237.0	506369.0	-1747.0
24	17	6	12	107	33.0	-225698.0	506491.0	-1635.0
24	17	6	12	107	34.0	-224616.0	506588.0	-2192.0
24	17	6	12	108	35.0	-225234.0	506685.0	-2209.0
24	17	6	12	108	36.0	-222716.0	506745.0	-2134.0
24	17	6	12	109	37.0	-218676.0	506771.0	-2023.0
24	17	6	12	109	38.0	-212746.0	506768.0	-2012.0
24	17	6	12	110	39.0	-206215.0	506751.0	-2114.0
24	17	6	12	111	40.0	-200124.0	506698.0	-2116.0
24	17	6	12	111	41.0	-195537.0	506662.0	-2092.0
24	17	6	12	128	42.0	-193089.0	506592.0	-2539.0
24	17	6	12	129	43.0	-190671.0	506483.0	-2229.0
24	17	6	12	129	44.0	-189875.0	506363.0	-1761.0
24	17	6	12	130	45.0	-188532.0	506221.0	-1859.0
24	17	6	12	130	46.0	-183246.0	506072.0	-2092.0
24	17	6	12	131	47.0	-175846.0	505883.0	-1825.0
24	17	6	12	131	48.0	-167294.0	505696.0	-1954.0
24	17	6	12	132	49.0	-156432.0	505486.0	-2359.0
24	17	6	12	132	50.0	-144259.0	505259.0	-2445.0
24	17	6	12	133	51.0	-132659.0	504996.0	-2236.0
24	17	6	12	134	52.0	-124623.0	504711.0	-2446.0
24	17	6	12	134	53.0	-119289.0	504413.0	-2071.0
24	17	6	12	135	54.0	-116216.0	504119.0	-1902.0
24	17	6	12	135	55.0	-113848.0	503805.0	-2156.0
24	17	6	12	136	56.0	-112610.0	503473.0	-2367.0
24	17	6	12	136	57.0	-115519.0	503132.0	-2319.0
24	17	6	12	137	58.0	-120551.0	502769.0	-1995.0
24	17	6	12	137	59.0	-126446.0	502394.0	-2189.0
24	17	6	12	151	60.0	-129988.0	501996.0	-2217.0
24	17	6	12	151	61.0	-134085.0	501587.0	-2137.0
24	17	6	12	152	62.0	-139329.0	501173.0	-2250.0
24	17	6	12	152	63.0	-144053.0	500733.0	-2263.0
24	17	6	12	153	64.0	-148585.0	500293.0	-2232.0
24	17	6	12	154	65.0	-153307.0	499824.0	-1935.0
24	17	6	12	154	66.0	-156539.0	499369.0	-2032.0
24	17	6	12	155	67.0	-160826.0	498882.0	-2323.0
24	17	6	12	155	68.0	-164142.0	498379.0	-2187.0
24	17	6	12	195	69.0	-166286.0	497886.0	-1952.0
24	17	6	12	196	70.0	-167714.0	497386.0	-1840.0
24	17	6	12	197	71.0	-170556.0	496838.0	-1807.0
24	17	6	12	197	72.0	-173917.0	496301.0	-1647.0
24	17	6	12	198	73.0	-175274.0	495752.0	-1694.0
24	17	6	12	198	74.0	-176914.0	495189.0	-1936.0
24	17	6	12	199	75.0	-178934.0	494632.0	-2393.0
24	17	6	12	200	76.0	-181670.0	494059.0	-2160.0
24	17	6	12	200	77.0	-183827.0	493487.0	-1779.0
24	17	6	12	201	78.0	-184626.0	492888.0	-1906.0
24	17	6	12	201	79.0	-184244.0	492289.0	-1935.0
24	17	6	12	202	80.0	-182071.0	491666.0	-1617.0
24	17	6	12	202	81.0	-178684.0	491043.0	-1698.0
24	17	6	12	203	82.0	-173829.0	490418.0	-1845.0
24	17	6	12	203	83.0	-171891.0	489769.0	-1739.0
24	17	6	12	204	84.0	-172248.0	489126.0	-1863.0
24	17	6	12	205	89.0	-199158.0	485756.0	-1864.0
24	17	6	12	205	90.0	-207247.0	485045.0	-1392.0
24	17	6	12	206	91.0	-214390.0	484346.0	-1294.0
24	17	6	12	214	92.0	-223396.0	484162.0	-1582.0
24	17	6	12	215	93.0	-230431.0	483344.0	-1726.0
24	17	6	12	215	94.0	-239649.0	482444.0	-1531.0
24	17	6	12	216	95.0	-246677.0	481923.0	-1784.0
24	17	6	12	216	96.0	-252354.0	480679.0	-1910.0
24	17	6	12	217	97.0	-253651.0	479874.0	-1564.0
24	17	6	12	237	98.0	-256560.0	479011.0	-1444.0
24	17	6	12	238	99.0	-259700.0	478261.0	-1577.0
24	17	6	12	238	100.0	-260635.0	477336.0	-1339.0
24	17	6	12	239	101.0	-262344.0	476296.0	-1229.0
24	17	6	12	239	102.0	-263803.0	474382.0	-1534.0
24	17	6	12	240	103.0	-262439.0	473661.0	-1688.0
24	17	6	12	241	104.0	-261505.0	473636.0	-1496.0
24	17	6	12	241	105.0	-261197.0	473918.0	-1371.0
24	17	6	12	242	106.0	-260121.0	472099.0	-1363.0
24	17	6	12	242	107.0	-258949.0	471828.0	-1507.0
24	17	6	12	243	108.0	-256498.0	471238.0	-1924.0
24	17	6	12	243	109.0	-260896.0	470517.0	-2129.0
24	17	6	12	244	110.0	-269156.0	469316.0	-2116.0
24	17	6	12	244	111.0	-283539.0	468579.0	-2166.0
24	17	6	12	245	112.0	-298464.0	467659.0	-2387.0
24	17	6	12	269	113.0	-310744.0	466978.0	-2235.0
24	17	6	12	270	114.0	-318881.0	466197.0	-2016.0
24	17	6	12	271	115.0	-319728.0	465302.0	-2198.0
24	17	6	12	271	116.0	-309717.0	464261.0	-2347.0
24	17	6	12	272	117.0	-293927.0	462901.0	-2469.0
24	17	6	12	294	118.0	-271629.0	462253.0	-2929.0
24	17	6	12	294	119.0	-249029.0	461398.0	-3035.0
24	17	6	12	295	120.0	-232366.0	460717.0	-3007.0
24	17	6	12	295	121.0	-222707.0	459588.0	-3152.0
24	17	6	12	296	122.0	-221287.0	458898.0	-3296.0
24	17	6	12	297	123.0	-224329.0	458073.0	-3111.0
24	17	6	12	297	124.0	-229047.0	457133.0	-2865.0
24	17	6	12	298	125.0	-235549.0	456313.0	-2872.0
24	17	6	12	298	126.0	-239979.0	455442.0	-2593.0
24	17	6	12	299	127.0	-239711.0	454314.0	-2515.0
24	17	6	12	299	128.0	-238091.0	453095.0	-2557.0
24	17	6	12	300	129.0	-236421.0	452613.0	-2381.0
24	17	6	12	301	130.0	-233834.0	451936.0	-2266.0
24	17	6	12	301	131.0	-233584.0	451062.0	-2343.0
24	17	6	12	302	132.0	-231403.0	450266.0	-2495.0
24	17	6	12	302	133.0	-229099.0	449279.0	-2214.0
24	17	6	12	303	134.0	-228016.0	448408.0	-2048.0
24	17	6	12	304	135.0	-226890.0	447684.0	-2332.0
24	17	6	12	305	136.0	-225639.0	446676.0	-2398.0
24	17	6	12	305	137.0	-224211.0	445573.0	-2216.0
24	17	6	12	306	138.0	-221870.0	444748.0	-2309.0
24	17	6	12	306	139.0	-219467.0	443808.0	-2505.0
24	17	6	12	307	140.0	-216223.0	443028.0	-1917.0
24	17	6	12	307	141.0	-210546.0	442367.0	-1704.0
24	17	6	12	308	142.0	-200402.0	441636.0	-2140.0
24	17	6	12	309	143.0	-188381.0	440381.0	-1907.0
24	17	6	12	316	144.0	-177246.0	439203.0	-1934.0
24	17	6	12	317	145.0	-163682.0	437907.0	-1952.0
24	17	6	12	317	146.0	-153361.0	437444.0	-1833.0
24	17	6	12	318	147.0	-145790.0	436850.0	-1961.0
24	17	6	12	318	148.0	-142615.0	436234.0	-1994.0
24	17	6	12	319	149.0	-144243.0	435006.0	-1914.0
24	17	6	12	343	150.0	-146248.0	434277.0	-1771.0
24	17	6	12	344	151.0	-151082.0	432953.0	-1639.0
24	17	6	12	344	152.0	-157333.0	431933.0	-1698.0
24	17	6	12	345	153.0	-161799.0	430769.0	-1529.0
24	17	6	12	346	154.0	-164257.0	429781.0	-1415.0
24	17	6	12	346	155.0	-165108.0	429309.0	-1460.0
24	17	6	12	347	156.0	-165467.0	427317.0	-1493.0
24	17	6	12	347	157.0	-164627.0	428336.0	-1647.0
24	17	6	12	348	158.0	-163060.0	426998.0	-1477.0
24	17	6	12	348	159.0	-161436.0	426437.0	-1591.0
24	17	6	12	349	160.0	-159822.0	425498.0	-1412.0
24	17	6	12	350	161.0	-158579.0	424234.0	-1662.0
24	17	6	12	350	162.0	-158634.0	424116.0	-1796.0
24	17	6	12	351	163.0	-163361.0	423019.0	-2274.0
24	17	6	12	352	164.0	-169037.0	422053.0	-2802.0
24	17	6	12	353	165.0	-173027.0	421251.0	-2877.0
24	17	6	12	353	166.0	-174171.0	420495.0	-2716.0
24	17	6	12	354	167.0	-171391.0	419768.0	-2887.0
24	17	6	12	355	168.0	-169540.0	418723.0	-3182.0
24	17	6	12	364	169.0	-169229.0	417984.0	-4043.0
24	17	6	12	365	170.0	-172066.0	416908.0	-5685.0
24	17	6	12	365	171.0	-177198.0	416182.0	-7871.0
24	17	6	12	387	172.0	-184746.0	415281.0	-9635.0
24	17	6	12	387	173.0	-194361.0	414295.0	-11629.0
24	17	6	12	388	174.0	-203854.0	413354.0	-12541.0
24	17	6	12	389	175.0	-212358.0	412970.0	-12334.0
24	17	6	12	389	176.0	-219414.0	411973.0	-11676.0
24	17	6	12	390	177.0	-224220.0	411002.0	-12372.0
24	17	6	12	390	178.0	-227371.0	410281.0	-13607.0
24	17	6	12	391	179.0	-229425.0	408996.0	-14732.0
24	17	6	12	392	180.0	-231500.0	408074.0	-16321.0
24	17	6	12	392	181.0	-233288.0	407276.0	-17527.0
24	17	6	12	393	182.0	-231666.0	407427.0	-16449.0
24	17	6	12	393	183.0	-232062.0	406709.0	-14179.0
24	17	6	12	394	184.0	-232507.0	405062.0	-11029.0
24	17	6	12	394	185.0	-238495.0	404499.0	-7011.0
24	17	6	12	395	186.0	-242548.0	403489.0	-3664.0
24	17	6	12	396	187.0	-245852.0	402690.0	48.0
24	17	6	12	465	188.0	-245456.0	402046.0	4865.0
24	17	6	12	466	189.0	-242974.0	401208.0	8028.0
24	17	6	12	466	190.0	-238742.0	400362.0	8788.0
24	17	6	12	467	191.0	-231731.0	399524.0	7743.0
24	17	6	12	467	192.0	-223914.0	398714.0	5288.0
24	17	6	12	468	193.0	-215939.0	397874.0	2278.0
24	17	6	12	469	194.0	-210638.0	397060.0	78.0
24	17	6	12	469	195.0	-206242.0	396239.0	-907.0
24	17	6	12	470	196.0	-202909.0	395409.0	-1478.0
24	17	6	12	470	197.0	-203572.0	394579.0	-1819.0
24	17	6	12	471	198.0	-204553.0	393782.0	-2121.0
24	17	6	12	472	199.0	-201839.0	392966.0	-2316.0
24	17	6	12	472	200.0	-193314.0	392145.0	-2734.0
24	17	6	12	473	201.0	-185386.0	391313.0	-2698.0
24	17	6	12	473	202.0	-181817.0	390503.0	-2514.0
24	17	6	12	474	203.0	-186122.0	389664.0	-2990.0
24	17	6	12	475	224.0	-214913.0	372753.0	-3431.0
24	17	6	12	475	225.0	-211367.0	371990.0	-3317.0
24	17	6	12	476	226.0	-205425.0	371194.0	-3542.0
24	17	6	12	484	227.0	-197939.0	370413.0	-3666.0
24	17	6	12	485	228.0	-189226.0	369625.0	-3489.0
24	17	6	12	485	229.0	-181397.0	368831.0	-3691.0
24	17	6	12	486	230.0	-175701.0	368069.0	-3827.0
24	17	6	12	486	231.0	-172469.0	367269.0	-3468.0
24	17	6	12	509	232.0	-171478.0	366413.0	-3426.0
24	17	6	12	510	233.0	-172420.0	365738.0	-3709.0
24	17	6	12	510	234.0	-173128.0	364964.0	-4024.0
24	17	6	12	511	235.0	-171496.0	364165.0	-4164.0
24	17	6	12	512	236.0	-167049.0	363385.0	-4137.0
24	17	6	12	512	237.0	-160297.0	362618.0	-4257.0
24	17	6	12	513	238.0	-152287.0	361858.0	-4244.0
24	17	6	12	513	239.0	-145285.0	361096.0	-4364.0
24	17	6	12	514	240.0	-140568.0	360335.0	-4380.0
24	17	6	12	515	241.0	-138827.0	359573.0	-4138.0
24	17	6	12	515	242.0	-139158.0	358812.0	-4156.0
24	17	6	12	516	243.0	-141025.0	358054.0	-4669.0
24	17	6	12	516	244.0	-142133.0	357312.0	-5004.0
24	17	6	12	517	245.0	-141933.0	356549.0	-4815.0
24	17	6	12	518	246.0	-140731.0	355798.0	-4818.0
24	17	6	12	518	247.0	-139413.0	355063.0	-4808.0
24	17	6	12	519	248.0	-138395.0	354321.0	-4696.0
24	17	6	12	519	249.0	-138829.0	353554.0	-4756.0
24	17	6	12	530	250.0	-139157.0	352805.0	-5032.0
24	17	6	12	531	251.0	-141088.0	352082.0	-5282.0
24	17	6	12	532	252.0	-146036.0	351348.0	-5241.0
24	17	6	12	532	253.0	-152333.0	350594.0	-5392.0
24	17	6	12	533	254.0	-160939.0	349864.0	-5371.0
24	17	6	12	555	255.0	-170136.0	349127.0	-5418.0
24	17	6	12	556	0.0	-179657.0	348402.0	-5690.0
24	17	6	12	556	1.0	-187423.0	347665.0	-5841.0
24	17	6	12	557	2.0	-192609.0	346930.0	-6047.0
24	17	6	12	557	3.0	-195767.0	346222.0	-5787.0
24	17	6	12	558	4.0	-199144.0	345507.0	-5857.0
24	17	6	12	559	5.0	-201217.0	344753.0	-5983.0
24	17	6	12	559	6.0	-203926.0	344031.0	-5944.0
24	17	6	12	560	7.0	-208140.0	343314.0	-5995.0
24	17	6	12	560	8.0	-212180.0	342596.0	-6078.0
24	17	6	12	561	9.0	-211352.0	341882.0	-5911.0
24	17	6	12	561	10.0	-205214.0	341159.0	-6144.0
24	17	6	12	562	11.0	-194254.0	340454.0	-6121.0
24	17	6	12	562	12.0	-184225.0	339726.0	-6113.0
24	17	6	12	563	13.0	-175330.0	339010.0	-6451.0
24	17	6	12	585	14.0	-169531.0	338306.0	-6287.0
24	17	6	12	585	15.0	-166126.0	337588.0	-5989.0
24	17	6	12	586	16.0	-165066.0	336881.0	-6164.0
24	17	6	12	587	17.0	-165826.0	336185.0	-6153.0
24	17	6	12	587	18.0	-169319.0	335486.0	-5746.0
24	17	6	12	588	19.0	-175785.0	334770.0	-6210.0
24	17	6	12	588	20.0	-183490.0	334056.0	-6591.0
24	17	6	12	589	21.0	-191532.0	333359.0	-6272.0
24	17	6	12	590	22.0	-198474.0	332655.0	-5976.0
24	17	6	12	590	23.0	-207241.0	331954.0	-5958.0
24	17	6	12	591	24.0	-214004.0	331261.0	-5787.0
24	17	6	12	592	25.0	-219152.0	330581.0	-5594.0
24	17	6	12	592	26.0	-224594.0	329881.0	-5792.0
24	17	6	12	593	27.0	-228036.0	329194.0	-5764.0
24	17	6	12	594	28.0	-233592.0	328517.0	-5647.0
24	17	6	12	594	29.0	-240964.0	327787.0	-5788.0
24	17	6	12	595	30.0	-250312.0	327118.0	-6051.0
24	17	6	12	595	31.0	-260114.0	326434.0	-5715.0
24	17	6	12	596	32.0	-267421.0	325743.0	-5428.0
24	17	6	12	608	33.0	-273903.0	325071.0	-5474.0
24	17	6	12	609	34.0	-279244.0	324384.0	-5594.0
24	17	6	12	631	35.0	-286139.0	323696.0	-5246.0
24	17	6	12	631	36.0	-290112.0	323023.0	-5203.0
24	17	6	12	632	37.0	-292487.0	322337.0	-5544.0
24	17	6	12	633	38.0	-297354.0	321658.0	-5161.0
24	17	6	12	633	39.0	-309227.0	320981.0	-5344.0
24	17	6	12	634	40.0	-314293.0	320291.0	-5668.0
24	17	6	12	634	41.0	-312237.0	319623.0	-5352.0
24	17	6	12	635	42.0	-324143.0	318977.0	-5132.0
24	17	6	12	636	43.0	-352047.0	318307.0	-4966.0
24	17	6	12	636	44.0	-371826.0	317623.0	-4849.0
24	17	6	12	637	45.0	-378333.0	316965.0	-4637.0
24	17	6	12	637	46.0	-375579.0	316282.0	-4853.0
24	17	6	12	638	47.0	-385073.0	315636.0	-4943.0
24	17	6	12	638	48.0	-386196.0	314972.0	-5002.0
24	17	6	12	639	49.0	-381851.0	314308.0	-4972.0
24	17	6	12	639	50.0	-395567.0	313661.0	-5203.0
24	17	6	12	640	51.0	-406827.0	313006.0	-4809.0
24	17	6	12	654	52.0	-391084.0	312344.0	-4764.0
24	17	6	12	679	53.0	-384461.0	311688.0	-4935.0
24	17	6	12	680	54.0	-397874.0	311064.0	-4745.0
24	17	6	12	680	55.0	-412168.0	310444.0	-4606.0
24	17	6	12	681	56.0	-410626.0	309781.0	-4748.0
24	17	6	12	681	57.0	-408444.0	309136.0	-4496.0
24	17	6	12	682	58.0	-418311.0	308485.0	-4605.0
24	17	6	12	682	59.0	-416782.0	307854.0	-4966.0
24	17	6	12	683	60.0	-417417.0	307216.0	-5056.0
24	17	6	12	684	61.0	-413112.0	306590.0	-4739.0
24	17	6	12	684	62.0	-400853.0	305958.0	-4522.0
24	17	6	12	685	63.0	-393149.0	305323.0	-4730.0
24	17	6	12	685	64.0	-383042.0	304693.0	-4570.0
24	17	6	12	686	65.0	-371774.0	304071.0	-4488.0
24	17	6	12	686	66.0	-357237.0	303423.0	-4518.0
24	17	6	12	687	67.0	-351754.0	302824.0	-4427.0
24	17	6	12	688	68.0	-363447.0	302199.0	-4297.0
24	17	6	12	688	69.0	-357317.0	301573.0	-4726.0
24	17	6	12	689	70.0	-348706.0	300968.0	-5083.0
24	17	6	12	690	71.0	-338629.0	300353.0	-4990.0
24	17	6	12	690	72.0	-329008.0	299724.0	-4934.0
24	17	6	12	691	73.0	-320115.0	299102.0	-5143.0
24	17	6	12	692	74.0	-311298.0	298509.0	-5287.0
24	17	6	12	692	75.0	-314957.0	297897.0	-5465.0
24	17	6	12	693	76.0	-307969.0	297284.0	-5949.0
24	17	6	12	694	77.0	-286160.0	296673.0	-6093.0
24	17	6	12	694	78.0	-281342.0	296068.0	-6023.0
24	17	6	12	695	79.0	-279166.0	295486.0	-6092.0
24	17	6	12	696	80.0	-285892.0	294891.0	-6523.0
24	17	6	12	697	81.0	-281486.0	294271.0	-6610.0
24	17	6	12	704	82.0	-250923.0	293674.0	-6346.0
24	17	6	12	705	83.0	-227663.0	293060.0	-6382.0
24	17	6	12	706	84.0	-239781.0	292498.0	-6555.0
24	17	6	12	706	85.0	-257014.0	291896.0	-6535.0
24	17	6	12	707	86.0	-267131.0	291309.0	-6331.0
24	17	6	12	708	87.0	-272438.0	290719.0	-6768.0
24	17	6	12	708	88.0	-273267.0	290127.0	-7401.0
24	17	6	12	727	89.0	-271400.0	289548.0	-7862.0
24	17	6	12	728	90.0	-258326.0	288976.0	-8070.0
24	17	6	12	728	91.0	-246517.0	288410.0	-8291.0
24	17	6	12	729	92.0	-237931.0	287818.0	-8792.0
24	17	6	12	729	93.0	-225936.0	287242.0	-8872.0
24	17	6	12	730	94.0	-214999.0	286669.0	-8724.0
24	17	6	12	730	95.0	-206032.0	286094.0	-9062.0
24	17	6	12	731	96.0	-203071.0	285511.0	-9342.0
24	17	6	12	753	97.0	-203226.0	284946.0	-9469.0
24	17	6	12	754	98.0	-199161.0	284379.0	-9461.0
24	17	6	12	754	99.0	-191185.0	283813.0	-9814.0
24	17	6	12	755	100.0	-185512.0	283246.0	-10189.0
24	17	6	12	755	101.0	-174734.0	282686.0	-10254.0
24	17	6	12	756	102.0	-161064.0	282093.0	-10591.0
24	17	6	12	756	103.0	-145576.0	281536.0	-10448.0
24	17	6	12	757	104.0	-129691.0	280983.0	-10154.0
24	17	6	12	757	105.0	-116422.0	280436.0	-10128.0
24	17	6	12	758	106.0	-106966.0	279871.0	-10256.0
24	17	6	12	759	107.0	-95451.0	279311.0	-9981.0
24	17	6	12	759	108.0	-83064.0	278758.0	-10002.0
24	17	6	12	760	109.0	-76185.0	278193.0	-10251.0
24	17	6	12	760	110.0	-72537.0	277630.0	-10292.0
24	17	6	12	776	111.0	-69636.0	277091.0	-10019.0
24	17	6	12	777	112.0	-67385.0	276538.0	-10205.0
24	17	6	12	777	113.0	-66571.0	275998.0	-10287.0
24	17	6	12	778	114.0	-68531.0	275446.0	-9922.0
24	17	6	12	779	115.0	-70941.0	274896.0	-9912.0
24	17	6	12	779	116.0	-74924.0	274360.0	-10151.0
24	17	6	12	780	117.0	-80029.0	273825.0	-10389.0
24	17	6	12	780	118.0	-86013.0	273267.0	-10362.0
24	17	6	12	781	119.0	-94386.0	272717.0	-10229.0
24	17	6	12	781	120.0	-109272.0	272173.0	-10188.0
24	17	6	12	782	121.0	-125039.0	271654.0	-10047.0
24	17	6	12	782	122.0	-136496.0	271109.0	-10026.0
24	17	6	12	783	123.0	-141266.0	270554.0	-9819.0
24	17	6	12	784	124.0	-143932.0	270006.0	-9792.0
24	17	6	12	784	125.0	-144182.0	269484.0	-9782.0
24	17	6	12	799	126.0	-139187.0	268965.0	-9826.0
24	17	6	12	799	127.0	-130600.0	268439.0	-9902.0
24	17	6	12	800	128.0	-122111.0	267903.0	-10112.0
24	17	6	12	801	129.0	-115400.0	267389.0	-10076.0
24	17	6	12	801	130.0	-112034.0	266848.0	-9996.0
24	17	6	12	802	131.0	-112329.0	266316.0	-10041.0
24	17	6	12	802	132.0	-115336.0	265786.0	-10094.0
24	17	6	12	803	133.0	-121776.0	265263.0	-9866.0
24	17	6	12	822	134.0	-126829.0	264742.0	-9967.0
24	17	6	12	823	135.0	-128563.0	264228.0	-10246.0
24	17	6	12	823	136.0	-126834.0	263701.0	-10244.0
24	17	6	12	824	137.0	-124871.0	263191.0	-10286.0
24	17	6	12	825	138.0	-124586.0	262656.0	-10566.0
24	17	6	12	825	139.0	-127256.0	262131.0	-10717.0
24	17	6	12	826	140.0	-134475.0	261613.0	-10487.0
24	17	6	12	826	141.0	-142847.0	261099.0	-10699.0
24	17	6	12	827	142.0	-155889.0	260586.0	-11099.0
24	17	6	12	827	143.0	-171364.0	260071.0	-10871.0
24	17	6	12	828	144.0	-184909.0	259556.0	-10714.0
24	17	6	12	828	145.0	-187996.0	259017.0	-10776.0
24	17	6	12	829	146.0	-209623.0	258509.0	-11017.0
24	17	6	12	830	147.0	-223999.0	258016.0	-11165.0
24	17	6	12	830	148.0	-234002.0	257493.0	-11489.0
24	17	6	12	845	149.0	-243279.0	256973.0	-11842.0
24	17	6	12	845	150.0	-236738.0	256464.0	-12210.0
24	17	6	12	846	151.0	-234333.0	255967.0	-12257.0
24	17	6	12	847	152.0	-231909.0	255456.0	-12631.0
24	17	6	12	847	153.0	-238984.0	254933.0	-12627.0
24	17	6	12	848	154.0	-247962.0	254429.0	-12557.0
24	17	6	12	848	155.0	-257694.0	253900.0	-13175.0
24	17	6	12	849	156.0	-270432.0	253396.0	-14061.0
24	17	6	12	869	157.0	-280016.0	252893.0	-14614.0
24	17	6	12	869	158.0	-290676.0	252401.0	-14879.0
24	17	6	12	870	159.0	-299441.0	251873.0	-15037.0
24	17	6	12	870	160.0	-305721.0	251359.0	-15916.0
24	17	6	12	871	161.0	-314666.0	250832.0	-16416.0
24	17	6	12	871	162.0	-324567.0	250324.0	-16671.0
24	17	6	12	872	163.0	-333833.0	249828.0	-16681.0
24	17	6	12	873	164.0	-340195.0	249319.0	-16659.0
24	17	6	12	873	165.0	-342512.0	248805.0	-16988.0
24	17	6	12	874	166.0	-342022.0	248276.0	-17238.0
24	17	6	12	874	167.0	-343474.0	247760.0	-17579.0
24	17	6	12	875	168.0	-354839.0	247219.0	-18157.0
24	17	6	12	875	169.0	-351647.0	246731.0	-18892.0
24	17	6	12	876	170.0	-362354.0	246218.0	-19205.0
24	17	6	12	876	171.0	-370525.0	245691.0	-19775.0
24	17	6	12	899	172.0	-381351.0	245188.0	-19900.0
24	17	6	12	899	173.0	-385038.0	244666.0	-20052.0
24	17	6	12	900	174.0	-398349.0	244161.0	-20761.0
24	17	6	12	901	175.0	-420157.0	243647.0	-21006.0
24	17	6	12	901	176.0	-399927.0	243111.0	-20982.0
24	17	6	12	902	177.0	-382527.0	242597.0	-21497.0
24	17	6	12	922	178.0	-383166.0	242084.0	-22473.0
24	17	6	12	922	179.0	-374036.0	241556.0	-22636.0
24	17	6	12	923	180.0	-343103.0	241023.0	-22410.0
24	17	6	12	924	181.0	-262305.0	240514.0	-22912.0
24	17	6	12	924	182.0	-149174.0	240014.0	-23602.0
24	17	6	12	925	183.0	-143903.0	239523.0	-23531.0
24	17	6	12	925	184.0	-141807.0	239028.0	-23583.0
24	17	6	12	926	185.0	-163785.0	238541.0	-23635.0
24	17	6	12	926	186.0	-212230.0	238054.0	-23944.0
24	17	6	12	927	187.0	-237472.0	237575.0	-24241.0
24	17	6	12	927	188.0	-248897.0	237084.0	-24227.0
24	17	6	12	928	189.0	-272814.0	236596.0	-24109.0
24	17	6	12	929	190.0	-257631.0	236113.0	-23749.0
24	17	6	12	929	191.0	-260077.0	235648.0	-23874.0
24	17	6	12	930	192.0	-263525.0	235171.0	-24065.0
24	17	6	12	930	193.0	-266489.0	234704.0	-23806.0
24	17	6	12	931	194.0	-260017.0	234231.0	-23592.0
24	17	6	12	931	195.0	-250550.0	233746.0	-23663.0
24	17	6	12	932	196.0	-240056.0	233258.0	-23715.0
24	17	6	12	932	197.0	-227672.0	232789.0	-23544.0
24	17	6	12	933	198.0	-216752.0	232315.0	-23287.0
24	17	6	12	934	199.0	-199354.0	231859.0	-23562.0
24	17	6	12	934	200.0	-172608.0	231385.0	-23336.0
24	17	6	12	935	201.0	-191059.0	230919.0	-23181.0
24	17	6	12	945	202.0	-160695.0	230453.0	-22982.0
24	17	6	12	946	203.0	-137975.0	229999.0	-22917.0
24	17	6	12	946	204.0	-128659.0	229539.0	-22991.0
24	17	6	12	947	205.0	-120248.0	229053.0	-23072.0
24	17	6	12	947	206.0	-112128.0	228593.0	-22788.0
24	17	6	12	948	207.0	-104271.0	228139.0	-22874.0
24	17	6	12	948	208.0	-100045.0	227674.0	-22839.0
24	17	6	12	968	209.0	-93402.0	227224.0	-22764.0
24	17	6	12	994	210.0	-85944.0	226764.0	-22885.0
24	17	6	12	994	211.0	-79313.0	226316.0	-23043.0
24	17	6	12	995	212.0	-73493.0	225867.0	-22958.0
24	17	6	12	996	213.0	-66902.0	225394.0	-22579.0
24	17	6	12	996	214.0	-60741.0	224955.0	-22692.0
24	17	6	12	997	215.0	-58422.0	224497.0	-23006.0
24	17	6	12	998	216.0	-57659.0	224032.0	-22921.0
24	17	6	12	998	217.0	-58875.0	223574.0	-23158.0
24	17	6	12	999	218.0	-62440.0	223113.0	-23429.0
24	17	6	13	0	219.0	-66407.0	222667.0	-23054.0
24	17	6	13	0	220.0	-70214.0	222208.0	-22495.0
24	17	6	13	1	221.0	-76167.0	221752.0	-22774.0
24	17	6	13	1	222.0	-83514.0	221304.0	-22763.0
24	17	6	13	2	223.0	-92259.0	220839.0	-22593.0
24	17	6	13	3	224.0	-102252.0	220417.0	-22762.0
24	17	6	13	4	225.0	-111172.0	219975.0	-22786.0
24	17	6	13	4	230.0	-123243.0	217717.0	-23465.0
24	17	6	13	5	231.0	-125219.0	217268.0	-23720.0
24	17	6	13	5	232.0	-123877.0	216825.0	-23441.0
24	17	6	13	6	233.0	-124019.0	216366.0	-23313.0
24	17	6	13	7	234.0	-122931.0	215937.0	-23676.0
24	17	6	13	7	235.0	-120039.0	215513.0	-24880.0
24	17	6	13	8	236.0	-114274.0	215064.0	-26329.0
24	17	6	13	8	237.0	-104669.0	214633.0	-28082.0
24	17	6	13	18	238.0	-90502.0	214199.0	-29576.0
24	17	6	13	18	239.0	-73241.0	213751.0	-30250.0
24	17	6	13	19	240.0	-56429.0	213293.0	-29807.0
24	17	6	13	20	241.0	-41801.0	212871.0	-29287.0
24	17	6	13	20	242.0	-31539.0	212432.0	-29892.0
24	17	6	13	21	243.0	-24019.0	212009.0	-30677.0
24	17	6	13	21	244.0	-20612.0	211574.0	-32282.0
24	17	6	13	22	245.0	-22601.0	211151.0	-34961.0
24	17	6	13	22	246.0	-21397.0	210708.0	-37574.0
24	17	6	13	41	247.0	-20532.0	210283.0	-38253.0
24	17	6	13	42	248.0	-27625.0	209824.0	-36260.0
24	17	6	13	42	249.0	-37220.0	209405.0	-33099.0
24	17	6	13	43	250.0	-51041.0	208977.0	-29686.0
24	17	6	13	44	251.0	-66061.0	208545.0	-25779.0
24	17	6	13	44	252.0	-79948.0	208121.0	-21964.0
24	17	6	13	45	253.0	-92442.0	207703.0	-17779.0
24	17	6	13	64	254.0	-105934.0	207276.0	-13520.0
24	17	6	13	65	255.0	-120192.0	206849.0	-11527.0
24	17	6	13	66	0.0	-134678.0	206423.0	-12476.0
24	17	6	13	66	1.0	-150732.0	205993.0	-16091.0
24	17	6	13	67	2.0	-166669.0	205589.0	-18826.0
24	17	6	13	68	3.0	-183082.0	205189.0	-20483.0
24	17	6	13	68	4.0	-193165.0	204759.0	-21715.0
24	17	6	13	69	5.0	-195941.0	204341.0	-21992.0
24	17	6	13	70	6.0	-196717.0	203904.0	-21905.0
24	17	6	13	70	7.0	-187419.0	203480.0	-21949.0
24	17	6	13	71	8.0	-163081.0	203075.0	-22179.0
24	17	6	13	71	9.0	-125552.0	202669.0	-21963.0
24	17	6	13	72	10.0	-85091.0	202263.0	-21885.0
24	17	6	13	73	11.0	-52668.0	201855.0	-22309.0
24	17	6	13	73	12.0	-35576.0	201457.0	-22277.0
24	17	6	13	74	13.0	-33705.0	201035.0	-22357.0
24	17	6	13	74	14.0	-43061.0	200638.0	-21961.0
24	17	6	13	75	15.0	-60269.0	200259.0	-21781.0
24	17	6	13	87	16.0	-77639.0	199844.0	-21554.0
24	17	6	13	88	17.0	-94117.0	199444.0	-21296.0
24	17	6	13	89	18.0	-104413.0	199044.0	-21219.0
24	17	6	13	110	19.0	-108404.0	198648.0	-21006.0
24	17	6	13	111	20.0	-109811.0	198253.0	-20860.0
24	17	6	13	111	21.0	-105039.0	197850.0	-20772.0
24	17	6	13	112	22.0	-92466.0	197463.0	-20786.0
24	17	6	13	112	23.0	-69848.0	197069.0	-20811.0
24	17	6	13	113	24.0	-45202.0	196664.0	-20422.0
24	17	6	13	113	25.0	-25949.0	196258.0	-19839.0
24	17	6	13	114	26.0	-11912.0	195862.0	-19451.0
24	17	6	13	115	27.0	-4849.0	195492.0	-19332.0
24	17	6	13	115	28.0	-316.0	195111.0	-19146.0
24	17	6	13	116	29.0	997.0	194696.0	-18962.0
24	17	6	13	116	30.0	-3757.0	194318.0	-18791.0
24	17	6	13	117	31.0	-10751.0	193924.0	-18789.0
24	17	6	13	117	32.0	-14888.0	193526.0	-17983.0
24	17	6	13	118	33.0	-18940.0	193134.0	-17934.0
24	17	6	13	119	34.0	-20733.0	192752.0	-18144.0
24	17	6	13	133	35.0	-15883.0	192368.0	-17992.0
24	17	6	13	155	36.0	-9292.0	191974.0	-17727.0
24	17	6	13	155	37.0	-4119.0	191591.0	-17719.0
24	17	6	13	156	38.0	-1253.0	191201.0	-17791.0
24	17	6	13	157	39.0	-527.0	190788.0	-17131.0
24	17	6	13	157	40.0	-3162.0	190417.0	-16946.0
24	17	6	13	158	41.0	-8262.0	190016.0	-16947.0
24	17	6	13	158	42.0	-17537.0	189624.0	-16908.0
24	17	6	13	159	43.0	-29938.0	189249.0	-16402.0
24	17	6	13	159	44.0	-42106.0	188848.0	-16357.0
24	17	6	13	160	45.0	-52806.0	188449.0	-16361.0
24	17	6	13	161	46.0	-62981.0	188054.0	-16044.0
24	17	6	13	161	47.0	-73503.0	187656.0	-15996.0
24	17	6	13	162	48.0	-85473.0	187254.0	-16014.0
24	17	6	13	162	49.0	-99853.0	186844.0	-15839.0
24	17	6	13	163	50.0	-112639.0	186434.0	-15843.0
24	17	6	13	163	51.0	-126487.0	186053.0	-15772.0
24	17	6	13	164	52.0	-141811.0	185662.0	-15756.0
24	17	6	13	164	53.0	-161958.0	185231.0	-15864.0
24	17	6	13	165	54.0	-171489.0	184822.0	-16139.0
24	17	6	13	166	55.0	-177377.0	184426.0	-15930.0
24	17	6	13	177	56.0	-181862.0	184018.0	-15716.0
24	17	6	13	178	57.0	-178747.0	183603.0	-15647.0
24	17	6	13	178	58.0	-175389.0	183195.0	-15686.0
24	17	6	13	179	59.0	-172796.0	182765.0	-15562.0
24	17	6	13	179	60.0	-167007.0	182346.0	-15646.0
24	17	6	13	180	61.0	-163871.0	181924.0	-15711.0
24	17	6	13	181	62.0	-160506.0	181491.0	-16023.0
24	17	6	13	181	63.0	-170484.0	181084.0	-16356.0
24	17	6	13	182	64.0	-217792.0	180628.0	-16217.0
24	17	6	13	182	65.0	-297361.0	180193.0	-16204.0
24	17	6	13	199	66.0	-408104.0	179748.0	-16316.0
24	17	6	13	200	67.0	-517278.0	179298.0	-16702.0
24	17	6	13	200	68.0	-573493.0	178834.0	-16955.0
24	17	6	13	201	69.0	-564432.0	178360.0	-16889.0
24	17	6	13	202	70.0	-525477.0	177902.0	-16920.0
24	17	6	13	202	71.0	-484510.0	177449.0	-17016.0
24	17	6	13	203	72.0	-451316.0	177008.0	-17002.0
24	17	6	13	203	73.0	-418860.0	176543.0	-17252.0
24	17	6	13	223	74.0	-385531.0	176093.0	-17490.0
24	17	6	13	223	75.0	-359725.0	175643.0	-17261.0
24	17	6	13	224	76.0	-343135.0	175193.0	-17122.0
24	17	6	13	224	77.0	-330751.0	174757.0	-17585.0
24	17	6	13	225	78.0	-321017.0	174329.0	-17666.0
