24	17	11	58	949	229.0	-224495.0	-2410.0	6590.0
24	17	11	58	952	230.0	-223769.0	-2456.0	6382.0
24	17	11	58	955	231.0	-223087.0	-2487.0	4887.0
24	17	11	58	957	232.0	-221933.0	-2531.0	940.0
24	17	11	58	959	233.0	-220120.0	-2569.0	-4386.0
24	17	11	58	962	234.0	-217398.0	-2612.0	-10636.0
24	17	11	58	963	235.0	-213908.0	-2632.0	-17082.0
24	17	11	58	965	236.0	-210110.0	-2673.0	-23148.0
24	17	11	58	967	237.0	-205917.0	-2712.0	-28947.0
24	17	11	58	969	238.0	-201777.0	-2729.0	-35634.0
24	17	11	58	970	239.0	-197461.0	-2775.0	-42792.0
24	17	11	58	971	240.0	-192671.0	-2810.0	-48707.0
24	17	11	58	972	241.0	-187801.0	-2859.0	-52297.0
24	17	11	58	972	242.0	-182701.0	-2864.0	-54625.0
24	17	11	58	973	243.0	-177562.0	-2888.0	-55502.0
24	17	11	59	52	244.0	-172285.0	-2922.0	-52130.0
24	17	11	59	53	245.0	-166484.0	-2961.0	-44669.0
24	17	11	59	53	246.0	-159314.0	-2974.0	-37261.0
24	17	11	59	54	247.0	-152152.0	-3019.0	-28631.0
24	17	11	59	55	248.0	-145582.0	-3061.0	-16077.0
24	17	11	59	55	249.0	-140064.0	-3086.0	-7914.0
24	17	11	59	56	250.0	-136392.0	-3132.0	-4781.0
24	17	11	59	56	251.0	-134396.0	-3176.0	-1961.0
24	17	11	59	57	252.0	-133905.0	-3199.0	-1486.0
24	17	11	59	96	253.0	-134716.0	-3229.0	-1671.0
24	17	11	59	97	254.0	-137252.0	-3279.0	-1570.0
24	17	11	59	97	255.0	-140869.0	-3313.0	-1599.0
24	17	11	59	98	0.0	-145137.0	-3338.0	-1638.0
24	17	11	59	98	1.0	-150071.0	-3367.0	-1306.0
24	17	11	59	99	2.0	-155170.0	-3394.0	-1373.0
24	17	11	59	99	6.0	-121906.0	-3488.0	-678.0
24	17	11	59	100	29.0	-230090.0	-4050.0	911.0
24	17	11	59	101	30.0	-215282.0	-4067.0	878.0
24	17	11	59	101	31.0	-202573.0	-4068.0	279.0
24	17	11	59	102	32.0	-192812.0	-4101.0	8.0
24	17	11	59	102	33.0	-185170.0	-4106.0	81.0
24	17	11	59	103	34.0	-179784.0	-4106.0	240.0
24	17	11	59	103	35.0	-176337.0	-4147.0	264.0
24	17	11	59	104	36.0	-174257.0	-4166.0	148.0
24	17	11	59	105	37.0	-173793.0	-4190.0	35.0
24	17	11	59	105	51.0	-153879.0	-4515.0	-1219.0
24	17	11	59	106	52.0	-153164.0	-4555.0	-1597.0
24	17	11	59	106	53.0	-153082.0	-4557.0	-1481.0
24	17	11	59	107	54.0	-153656.0	-4558.0	-1676.0
24	17	11	59	107	55.0	-155074.0	-4591.0	-2587.0
24	17	11	59	108	56.0	-157681.0	-4607.0	-2829.0
24	17	11	59	108	57.0	-161517.0	-4604.0	-2278.0
24	17	11	59	140	58.0	-166968.0	-4616.0	-1909.0
24	17	11	59	141	59.0	-173816.0	-4630.0	-2414.0
24	17	11	59	142	60.0	-181771.0	-4647.0	-2555.0
24	17	11	59	142	61.0	-190455.0	-4676.0	-2768.0
24	17	11	59	143	62.0	-198892.0	-4692.0	-3119.0
24	17	11	59	143	63.0	-206947.0	-4717.0	-3531.0
24	17	11	59	144	64.0	-214404.0	-4752.0	-3831.0
24	17	11	59	144	65.0	-220813.0	-4774.0	-3748.0
24	17	11	59	145	66.0	-226583.0	-4799.0	-3775.0
24	17	11	59	146	67.0	-232379.0	-4804.0	-3983.0
24	17	11	59	146	68.0	-237912.0	-4834.0	-4263.0
24	17	11	59	147	69.0	-243534.0	-4867.0	-4158.0
24	17	11	59	147	70.0	-248761.0	-4907.0	-3894.0
24	17	11	59	148	71.0	-253546.0	-4931.0	-4571.0
24	17	11	59	148	72.0	-257512.0	-4964.0	-5112.0
24	17	11	59	149	74.0	-261461.0	-4976.0	-5622.0
24	17	11	59	150	75.0	-261455.0	-4996.0	-5391.0
24	17	11	59	150	76.0	-259586.0	-5011.0	-5202.0
24	17	11	59	151	77.0	-256741.0	-5042.0	-5387.0
24	17	11	59	151	78.0	-253117.0	-5055.0	-6258.0
24	17	11	59	152	79.0	-248862.0	-5042.0	-6478.0
24	17	11	59	186	80.0	-243847.0	-5045.0	-6629.0
24	17	11	59	187	81.0	-238520.0	-5047.0	-6902.0
24	17	11	59	187	82.0	-232768.0	-5057.0	-6977.0
24	17	11	59	188	83.0	-226704.0	-5075.0	-7044.0
24	17	11	59	189	84.0	-220954.0	-5071.0	-7016.0
24	17	11	59	189	85.0	-214612.0	-5057.0	-6876.0
24	17	11	59	190	86.0	-208061.0	-5060.0	-6986.0
24	17	11	59	190	87.0	-201636.0	-5051.0	-7154.0
24	17	11	59	191	88.0	-195242.0	-5027.0	-7883.0
24	17	11	59	191	89.0	-189150.0	-4989.0	-8469.0
24	17	11	59	192	90.0	-183128.0	-4955.0	-8458.0
24	17	11	59	192	91.0	-177026.0	-4892.0	-8694.0
24	17	11	59	193	92.0	-171117.0	-4849.0	-8544.0
24	17	11	59	194	93.0	-165237.0	-4805.0	-9025.0
24	17	11	59	194	94.0	-159616.0	-4726.0	-9115.0
24	17	11	59	195	96.0	-149439.0	-4599.0	-9892.0
24	17	11	59	195	97.0	-145804.0	-4515.0	-10176.0
24	17	11	59	196	98.0	-143335.0	-4396.0	-10281.0
24	17	11	59	196	99.0	-142332.0	-4312.0	-10632.0
24	17	11	59	197	100.0	-142874.0	-4226.0	-10672.0
24	17	11	59	197	101.0	-144376.0	-4105.0	-10274.0
24	17	11	59	229	102.0	-146670.0	-3994.0	-10013.0
24	17	11	59	276	103.0	-150279.0	-3891.0	-9371.0
24	17	11	59	277	104.0	-155330.0	-3789.0	-9017.0
24	17	11	59	277	105.0	-160929.0	-3675.0	-8359.0
24	17	11	59	278	106.0	-167239.0	-3534.0	-8026.0
24	17	11	59	279	107.0	-174211.0	-3429.0	-7587.0
24	17	11	59	279	108.0	-181256.0	-3324.0	-7116.0
24	17	11	59	280	109.0	-188008.0	-3205.0	-7019.0
24	17	11	59	280	110.0	-193781.0	-3062.0	-7070.0
24	17	11	59	281	111.0	-199266.0	-2926.0	-6694.0
24	17	11	59	282	112.0	-204246.0	-2794.0	-6302.0
24	17	11	59	282	113.0	-208352.0	-2669.0	-5986.0
24	17	11	59	283	114.0	-211762.0	-2555.0	-5594.0
24	17	11	59	283	115.0	-213990.0	-2426.0	-5364.0
24	17	11	59	284	116.0	-215592.0	-2288.0	-5424.0
24	17	11	59	284	118.0	-216496.0	-2026.0	-4513.0
24	17	11	59	285	119.0	-216047.0	-1904.0	-4341.0
24	17	11	59	286	141.0	-157191.0	164.0	-8568.0
24	17	11	59	286	142.0	-167240.0	213.0	-8134.0
24	17	11	59	287	143.0	-178352.0	270.0	-7726.0
24	17	11	59	287	144.0	-185064.0	337.0	-7226.0
24	17	11	59	288	145.0	-189002.0	400.0	-6997.0
24	17	11	59	289	146.0	-191984.0	479.0	-7355.0
24	17	11	59	289	147.0	-195216.0	518.0	-7374.0
24	17	11	59	412	148.0	-197960.0	573.0	-7231.0
24	17	11	59	412	149.0	-199517.0	617.0	-7657.0
24	17	11	59	413	150.0	-198761.0	638.0	-7360.0
24	17	11	59	414	151.0	-195796.0	664.0	-7357.0
24	17	11	59	414	152.0	-191345.0	710.0	-7427.0
24	17	11	59	415	153.0	-186998.0	733.0	-7916.0
24	17	11	59	415	154.0	-184870.0	754.0	-7767.0
24	17	11	59	416	155.0	-185139.0	801.0	-7437.0
24	17	11	59	416	156.0	-186693.0	814.0	-7754.0
24	17	11	59	456	157.0	-188847.0	817.0	-7993.0
24	17	11	59	457	158.0	-190915.0	844.0	-8101.0
24	17	11	59	457	159.0	-192284.0	862.0	-7787.0
24	17	11	59	458	160.0	-192277.0	870.0	-7529.0
24	17	11	59	459	161.0	-190223.0	881.0	-7879.0
24	17	11	59	459	162.0	-185949.0	894.0	-7926.0
24	17	11	59	460	163.0	-179838.0	893.0	-7962.0
24	17	11	59	460	209.0	-155673.0	129.0	-9316.0
24	17	11	59	461	210.0	-164994.0	119.0	-9559.0
24	17	11	59	461	211.0	-175804.0	133.0	-9592.0
24	17	11	59	462	212.0	-187189.0	106.0	-9353.0
24	17	11	59	463	213.0	-198611.0	106.0	-8821.0
24	17	11	59	464	214.0	-209999.0	75.0	-8539.0
24	17	11	59	465	215.0	-221214.0	53.0	-8594.0
24	17	11	59	465	216.0	-232029.0	21.0	-8137.0
24	17	11	59	466	217.0	-241747.0	-12.0	-8513.0
24	17	11	59	467	231.0	-270138.0	-204.0	-8245.0
24	17	11	59	467	232.0	-265757.0	-212.0	-7925.0
24	17	11	59	468	233.0	-261147.0	-197.0	-7868.0
24	17	11	59	468	234.0	-256170.0	-204.0	-7818.0
24	17	11	59	469	235.0	-250631.0	-217.0	-7580.0
24	17	11	59	500	236.0	-244552.0	-201.0	-7391.0
24	17	11	59	501	237.0	-237990.0	-177.0	-7467.0
24	17	11	59	502	238.0	-230946.0	-194.0	-7602.0
24	17	11	59	502	239.0	-224037.0	-193.0	-7750.0
24	17	11	59	503	240.0	-217568.0	-203.0	-8199.0
24	17	11	59	503	241.0	-211692.0	-203.0	-8384.0
24	17	11	59	504	242.0	-205800.0	-198.0	-8441.0
24	17	11	59	505	243.0	-199758.0	-207.0	-8195.0
24	17	11	59	505	244.0	-193897.0	-208.0	-8101.0
24	17	11	59	506	245.0	-188789.0	-210.0	-7976.0
24	17	11	59	506	246.0	-183975.0	-228.0	-7987.0
24	17	11	59	507	247.0	-179170.0	-224.0	-8097.0
24	17	11	59	507	248.0	-174690.0	-242.0	-7827.0
24	17	11	59	508	249.0	-170271.0	-231.0	-7657.0
24	17	11	59	509	250.0	-166219.0	-239.0	-7635.0
24	17	11	59	509	253.0	-157940.0	-261.0	-8216.0
24	17	11	59	510	254.0	-156045.0	-256.0	-8651.0
24	17	11	59	510	255.0	-155014.0	-244.0	-7983.0
24	17	11	59	511	0.0	-155060.0	-250.0	-8079.0
24	17	11	59	512	1.0	-156214.0	-243.0	-8379.0
24	17	11	59	512	2.0	-158414.0	-244.0	-8114.0
24	17	11	59	513	3.0	-162136.0	-249.0	-8499.0
24	17	11	59	545	4.0	-166549.0	-257.0	-8754.0
24	17	11	59	545	5.0	-171754.0	-256.0	-8567.0
24	17	11	59	546	6.0	-177822.0	-279.0	-8121.0
24	17	11	59	547	7.0	-184199.0	-300.0	-8456.0
24	17	11	59	547	8.0	-190683.0	-324.0	-8701.0
24	17	11	59	548	9.0	-197086.0	-332.0	-8298.0
24	17	11	59	548	10.0	-203800.0	-357.0	-8631.0
24	17	11	59	549	11.0	-210184.0	-380.0	-9206.0
24	17	11	59	550	12.0	-215784.0	-398.0	-9786.0
24	17	11	59	550	13.0	-221027.0	-422.0	-9894.0
24	17	11	59	551	14.0	-225387.0	-437.0	-9816.0
24	17	11	59	551	15.0	-229614.0	-469.0	-9761.0
24	17	11	59	552	16.0	-233428.0	-499.0	-9984.0
24	17	11	59	553	17.0	-236599.0	-519.0	-10319.0
24	17	11	59	553	18.0	-239461.0	-529.0	-10292.0
24	17	11	59	554	20.0	-243618.0	-582.0	-10054.0
24	17	11	59	554	21.0	-244486.0	-605.0	-9798.0
24	17	11	59	555	22.0	-244688.0	-613.0	-9906.0
24	17	11	59	555	23.0	-244729.0	-639.0	-10416.0
24	17	11	59	556	24.0	-244167.0	-652.0	-10255.0
24	17	11	59	557	25.0	-242902.0	-669.0	-10071.0
24	17	11	59	591	26.0	-241852.0	-689.0	-10294.0
24	17	11	59	591	27.0	-241976.0	-697.0	-10254.0
24	17	11	59	592	28.0	-241856.0	-727.0	-9988.0
24	17	11	59	593	29.0	-240779.0	-776.0	-10122.0
24	17	11	59	593	30.0	-238465.0	-807.0	-10115.0
24	17	11	59	594	31.0	-234952.0	-829.0	-9556.0
24	17	11	59	594	32.0	-229996.0	-861.0	-9414.0
24	17	11	59	595	33.0	-224327.0	-883.0	-9565.0
24	17	11	59	595	34.0	-218319.0	-937.0	-9556.0
24	17	11	59	596	35.0	-211381.0	-974.0	-9542.0
24	17	11	59	597	36.0	-203927.0	-989.0	-9622.0
24	17	11	59	597	37.0	-196264.0	-1026.0	-9571.0
24	17	11	59	598	38.0	-188646.0	-1067.0	-9669.0
24	17	11	59	598	39.0	-181472.0	-1103.0	-9661.0
24	17	11	59	599	40.0	-174686.0	-1155.0	-9813.0
24	17	11	59	600	42.0	-160992.0	-1238.0	-10207.0
24	17	11	59	600	43.0	-154932.0	-1267.0	-10196.0
24	17	11	59	601	44.0	-149833.0	-1267.0	-10122.0
24	17	11	59	601	45.0	-145834.0	-1288.0	-9771.0
24	17	11	59	602	46.0	-142800.0	-1313.0	-9749.0
24	17	11	59	602	47.0	-141095.0	-1347.0	-9809.0
24	17	11	59	635	48.0	-140475.0	-1376.0	-9796.0
24	17	11	59	680	49.0	-140517.0	-1411.0	-9967.0
24	17	11	59	726	50.0	-141459.0	-1461.0	-10133.0
24	17	11	59	726	51.0	-143332.0	-1538.0	-9928.0
24	17	11	59	727	52.0	-146099.0	-1572.0	-9852.0
24	17	11	59	727	53.0	-149337.0	-1605.0	-10092.0
24	17	11	59	728	54.0	-153236.0	-1641.0	-9862.0
24	17	11	59	729	55.0	-157499.0	-1667.0	-9559.0
24	17	11	59	730	56.0	-161971.0	-1724.0	-9797.0
24	17	11	59	731	57.0	-166701.0	-1764.0	-9489.0
24	17	11	59	731	58.0	-171523.0	-1791.0	-9836.0
24	17	11	59	732	59.0	-176382.0	-1838.0	-10231.0
24	17	11	59	732	60.0	-181799.0	-1883.0	-10295.0
24	17	11	59	733	61.0	-187177.0	-1922.0	-10339.0
24	17	11	59	734	62.0	-192141.0	-1956.0	-10895.0
24	17	11	59	734	64.0	-202401.0	-2042.0	-10956.0
24	17	11	59	735	87.0	-175474.0	-2951.0	-63193.0
24	17	11	59	735	109.0	-114484.0	-3720.0	-12546.0
24	17	11	59	736	110.0	-106065.0	-3724.0	-12211.0
24	17	11	59	737	111.0	-108811.0	-3733.0	-12437.0
24	17	11	59	737	112.0	-120691.0	-3759.0	-12554.0
24	17	11	59	738	113.0	-138592.0	-3786.0	-12523.0
24	17	11	59	738	114.0	-161102.0	-3812.0	-12130.0
24	17	11	59	739	115.0	-185734.0	-3820.0	-12017.0
24	17	11	59	739	116.0	-207812.0	-3827.0	-11947.0
24	17	11	59	770	117.0	-224006.0	-3878.0	-11822.0
24	17	11	59	771	118.0	-234510.0	-3888.0	-11936.0
24	17	11	59	772	119.0	-239959.0	-3877.0	-11920.0
24	17	11	59	772	120.0	-240074.0	-3912.0	-11888.0
24	17	11	59	773	121.0	-234848.0	-3926.0	-11516.0
24	17	11	59	774	122.0	-227992.0	-3958.0	-11549.0
24	17	11	59	774	123.0	-222943.0	-3992.0	-11499.0
24	17	11	59	775	124.0	-220227.0	-4016.0	-11507.0
24	17	11	59	775	125.0	-218731.0	-4034.0	-11204.0
24	17	11	59	776	126.0	-217415.0	-4047.0	-11211.0
24	17	11	59	777	127.0	-216111.0	-4076.0	-11343.0
24	17	11	59	777	128.0	-215197.0	-4086.0	-10947.0
24	17	11	59	778	129.0	-214369.0	-4112.0	-10685.0
24	17	11	59	778	130.0	-211717.0	-4136.0	-10946.0
24	17	11	59	779	131.0	-203793.0	-4148.0	-10918.0
24	17	11	59	779	132.0	-189393.0	-4184.0	-10578.0
24	17	11	59	815	133.0	-171697.0	-4210.0	-10391.0
24	17	11	59	816	134.0	-154879.0	-4214.0	-10676.0
24	17	11	59	817	135.0	-141980.0	-4206.0	-10741.0
24	17	11	59	817	136.0	-133925.0	-4209.0	-10376.0
24	17	11	59	818	137.0	-130352.0	-4246.0	-10522.0
24	17	11	59	818	138.0	-130021.0	-4259.0	-10521.0
24	17	11	59	819	139.0	-131862.0	-4272.0	-10637.0
24	17	11	59	820	140.0	-135222.0	-4296.0	-11168.0
24	17	11	59	821	141.0	-139696.0	-4309.0	-11440.0
24	17	11	59	821	142.0	-144672.0	-4342.0	-11284.0
24	17	11	59	822	143.0	-149859.0	-4362.0	-11426.0
24	17	11	59	823	144.0	-155424.0	-4389.0	-11495.0
24	17	11	59	824	145.0	-160274.0	-4406.0	-11227.0
24	17	11	59	825	146.0	-164051.0	-4422.0	-11101.0
24	17	11	59	826	147.0	-167214.0	-4444.0	-10919.0
24	17	11	59	826	154.0	-197295.0	-4594.0	-11686.0
24	17	11	59	827	155.0	-201662.0	-4601.0	-11781.0
24	17	11	59	827	156.0	-205467.0	-4624.0	-11333.0
24	17	11	59	828	157.0	-208862.0	-4621.0	-11307.0
24	17	11	59	828	158.0	-212189.0	-4637.0	-11279.0
24	17	11	59	829	159.0	-215453.0	-4654.0	-11379.0
24	17	11	59	830	160.0	-218971.0	-4663.0	-11781.0
24	17	11	59	860	161.0	-222109.0	-4687.0	-11257.0
24	17	11	59	861	162.0	-224191.0	-4714.0	-11272.0
24	17	11	59	861	163.0	-225817.0	-4736.0	-11552.0
24	17	11	59	863	164.0	-227138.0	-4761.0	-11409.0
24	17	11	59	863	165.0	-228697.0	-4759.0	-11544.0
24	17	11	59	864	166.0	-229899.0	-4780.0	-11745.0
24	17	11	59	865	167.0	-230671.0	-4815.0	-11806.0
24	17	11	59	865	168.0	-230747.0	-4836.0	-11441.0
24	17	11	59	866	169.0	-230600.0	-4865.0	-11379.0
24	17	11	59	867	170.0	-230517.0	-4865.0	-11792.0
24	17	11	59	867	171.0	-230016.0	-4895.0	-11801.0
24	17	11	59	868	172.0	-229276.0	-4921.0	-12234.0
24	17	11	59	868	173.0	-227977.0	-4941.0	-12839.0
24	17	11	59	869	174.0	-225976.0	-4974.0	-12532.0
24	17	11	59	870	175.0	-223107.0	-5014.0	-11961.0
24	17	11	59	870	177.0	-216924.0	-5031.0	-12408.0
24	17	11	59	871	178.0	-214607.0	-5073.0	-12671.0
24	17	11	59	871	179.0	-212667.0	-5067.0	-12781.0
24	17	11	59	872	180.0	-211006.0	-5082.0	-13266.0
24	17	11	59	873	181.0	-210074.0	-5072.0	-13604.0
24	17	11	59	873	182.0	-210001.0	-5062.0	-14240.0
24	17	11	59	905	183.0	-211776.0	-5072.0	-14733.0
24	17	11	59	906	184.0	-215014.0	-5067.0	-14801.0
24	17	11	59	907	185.0	-218527.0	-5049.0	-14686.0
24	17	11	59	908	186.0	-222099.0	-5047.0	-14629.0
24	17	11	59	908	187.0	-225771.0	-5034.0	-14821.0
24	17	11	59	909	188.0	-229093.0	-5031.0	-15013.0
24	17	11	59	909	189.0	-231880.0	-5012.0	-15307.0
24	17	11	59	910	190.0	-233959.0	-4996.0	-15338.0
24	17	11	59	911	191.0	-234777.0	-4964.0	-15662.0
24	17	11	59	911	192.0	-234503.0	-4921.0	-16159.0
24	17	11	59	912	193.0	-233439.0	-4869.0	-16348.0
24	17	11	59	912	194.0	-231515.0	-4824.0	-16489.0
24	17	11	59	913	195.0	-229187.0	-4754.0	-16744.0
24	17	11	59	914	196.0	-226975.0	-4676.0	-16921.0
24	17	11	59	914	197.0	-224606.0	-4630.0	-16478.0
24	17	11	59	915	199.0	-218947.0	-4479.0	-16255.0
24	17	11	59	915	200.0	-216501.0	-4413.0	-16017.0
24	17	11	59	916	201.0	-214474.0	-4311.0	-16154.0
24	17	11	59	917	202.0	-212792.0	-4187.0	-16414.0
24	17	11	59	917	203.0	-211551.0	-4076.0	-16224.0
24	17	11	59	918	204.0	-210605.0	-3959.0	-16034.0
24	17	11	59	949	205.0	-209496.0	-3838.0	-16004.0
24	17	11	59	950	206.0	-208691.0	-3713.0	-15724.0
24	17	11	59	951	207.0	-207996.0	-3585.0	-15365.0
24	17	11	59	951	208.0	-207116.0	-3472.0	-15101.0
24	17	11	59	952	209.0	-206301.0	-3349.0	-14577.0
24	17	11	59	953	210.0	-205411.0	-3232.0	-14252.0
24	17	11	59	953	211.0	-204412.0	-3111.0	-14161.0
24	17	11	59	954	212.0	-202846.0	-2969.0	-13934.0
24	17	11	59	954	213.0	-200716.0	-2831.0	-13460.0
24	17	11	59	955	214.0	-198133.0	-2711.0	-13014.0
24	17	11	59	956	215.0	-194572.0	-2584.0	-12580.0
24	17	11	59	956	216.0	-190235.0	-2439.0	-12185.0
24	17	11	59	957	217.0	-185424.0	-2314.0	-11821.0
24	17	11	59	958	218.0	-180811.0	-2188.0	-11437.0
24	17	11	59	959	219.0	-176580.0	-2062.0	-11109.0
24	17	11	59	960	222.0	-163222.0	-1659.0	-11132.0
24	17	11	59	961	223.0	-157992.0	-1539.0	-11247.0
24	17	11	59	961	224.0	-152616.0	-1392.0	-10713.0
24	17	11	59	962	225.0	-147361.0	-1257.0	-10182.0
24	17	11	59	962	226.0	-142217.0	-1127.0	-9649.0
24	17	11	59	963	227.0	-137726.0	-993.0	-9391.0
24	17	12	0	86	228.0	-133782.0	-861.0	-8924.0
24	17	12	0	87	229.0	-131064.0	-754.0	-8867.0
24	17	12	0	87	230.0	-129686.0	-629.0	-8988.0
24	17	12	0	88	231.0	-128864.0	-544.0	-9248.0
24	17	12	0	89	232.0	-129311.0	-445.0	-9208.0
24	17	12	0	89	233.0	-131356.0	-353.0	-9162.0
24	17	12	0	90	234.0	-135236.0	-279.0	-9005.0
24	17	12	0	91	235.0	-140301.0	-176.0	-8879.0
24	17	12	0	91	236.0	-146517.0	-84.0	-8336.0
24	17	12	0	92	237.0	-153235.0	9.0	-8214.0
24	17	12	0	92	238.0	-159604.0	88.0	-7937.0
24	17	12	0	130	239.0	-165812.0	169.0	-7666.0
24	17	12	0	130	240.0	-171961.0	227.0	-6904.0
24	17	12	0	131	241.0	-176106.0	286.0	-6485.0
24	17	12	0	132	242.0	-176874.0	378.0	-6571.0
24	17	12	0	132	10.0	-222649.0	1161.0	-6259.0
24	17	12	0	133	33.0	-134568.0	1054.0	-6487.0
24	17	12	0	133	34.0	-134856.0	1044.0	-6501.0
24	17	12	0	134	35.0	-135501.0	1028.0	-6553.0
24	17	12	0	151	36.0	-136679.0	1013.0	-6966.0
24	17	12	0	151	37.0	-138712.0	1013.0	-7243.0
24	17	12	0	152	38.0	-142435.0	1009.0	-6944.0
24	17	12	0	152	39.0	-147156.0	971.0	-6529.0
24	17	12	0	153	40.0	-152466.0	963.0	-6612.0
24	17	12	0	153	41.0	-158463.0	929.0	-6482.0
24	17	12	0	154	42.0	-164791.0	888.0	-6775.0
24	17	12	0	154	55.0	-246144.0	584.0	-6181.0
24	17	12	0	155	56.0	-251141.0	544.0	-6528.0
24	17	12	0	156	57.0	-256051.0	546.0	-6604.0
24	17	12	0	156	58.0	-260764.0	530.0	-6674.0
24	17	12	0	157	59.0	-265095.0	524.0	-6847.0
24	17	12	0	157	60.0	-269543.0	513.0	-6644.0
24	17	12	0	158	61.0	-273214.0	496.0	-6608.0
24	17	12	0	175	62.0	-275267.0	489.0	-6754.0
24	17	12	0	175	63.0	-276052.0	477.0	-7166.0
24	17	12	0	176	64.0	-275929.0	458.0	-7104.0
24	17	12	0	176	65.0	-274696.0	422.0	-6836.0
24	17	12	0	177	66.0	-272568.0	430.0	-7129.0
24	17	12	0	178	67.0	-269779.0	423.0	-6857.0
24	17	12	0	178	68.0	-266170.0	393.0	-6987.0
24	17	12	0	179	69.0	-261252.0	378.0	-6639.0
24	17	12	0	179	70.0	-255295.0	373.0	-6562.0
24	17	12	0	180	71.0	-248734.0	348.0	-6544.0
24	17	12	0	180	72.0	-241644.0	344.0	-6473.0
24	17	12	0	181	73.0	-234641.0	319.0	-6202.0
24	17	12	0	182	74.0	-228101.0	319.0	-5983.0
24	17	12	0	182	75.0	-221766.0	303.0	-5784.0
24	17	12	0	183	76.0	-215699.0	270.0	-5867.0
24	17	12	0	183	78.0	-204414.0	252.0	-6419.0
24	17	12	0	184	79.0	-198546.0	232.0	-6986.0
24	17	12	0	184	80.0	-192989.0	244.0	-7238.0
24	17	12	0	185	81.0	-187811.0	238.0	-7531.0
24	17	12	0	185	82.0	-182604.0	236.0	-7824.0
24	17	12	0	197	83.0	-177243.0	233.0	-7896.0
24	17	12	0	220	84.0	-172466.0	241.0	-8273.0
24	17	12	0	221	85.0	-168044.0	248.0	-8719.0
24	17	12	0	222	86.0	-163931.0	239.0	-8915.0
24	17	12	0	222	87.0	-160727.0	217.0	-8523.0
24	17	12	0	223	88.0	-158521.0	226.0	-8792.0
24	17	12	0	223	89.0	-157136.0	224.0	-8889.0
24	17	12	0	224	90.0	-156402.0	213.0	-9007.0
24	17	12	0	224	91.0	-156242.0	212.0	-8999.0
24	17	12	0	225	92.0	-157089.0	213.0	-9466.0
24	17	12	0	226	93.0	-159219.0	204.0	-9529.0
24	17	12	0	227	94.0	-162480.0	198.0	-9322.0
24	17	12	0	227	95.0	-166558.0	182.0	-9568.0
24	17	12	0	228	96.0	-171044.0	167.0	-9792.0
24	17	12	0	228	97.0	-175621.0	164.0	-9757.0
24	17	12	0	229	98.0	-179908.0	153.0	-9701.0
24	17	12	0	229	100.0	-188643.0	119.0	-9084.0
24	17	12	0	230	101.0	-193491.0	110.0	-9316.0
24	17	12	0	230	102.0	-197866.0	114.0	-9329.0
24	17	12	0	231	103.0	-202482.0	122.0	-9194.0
24	17	12	0	231	104.0	-207076.0	109.0	-9204.0
24	17	12	0	232	105.0	-210910.0	99.0	-9490.0
24	17	12	0	265	106.0	-213907.0	80.0	-9732.0
24	17	12	0	266	107.0	-216917.0	64.0	-9652.0
24	17	12	0	267	108.0	-219647.0	47.0	-9186.0
24	17	12	0	283	109.0	-222242.0	35.0	-8752.0
24	17	12	0	284	110.0	-224448.0	3.0	-8677.0
24	17	12	0	284	111.0	-225312.0	-22.0	-8610.0
24	17	12	0	285	112.0	-224530.0	-37.0	-9024.0
24	17	12	0	285	113.0	-222664.0	-77.0	-9192.0
24	17	12	0	286	114.0	-220249.0	-101.0	-9071.0
24	17	12	0	286	115.0	-217762.0	-117.0	-9365.0
24	17	12	0	287	116.0	-215013.0	-157.0	-9564.0
24	17	12	0	287	117.0	-212084.0	-181.0	-9806.0
24	17	12	0	288	118.0	-209422.0	-204.0	-9624.0
24	17	12	0	288	119.0	-207171.0	-243.0	-9209.0
24	17	12	0	289	120.0	-205142.0	-262.0	-8764.0
24	17	12	0	289	121.0	-203225.0	-290.0	-8760.0
24	17	12	0	290	123.0	-200358.0	-342.0	-8196.0
24	17	12	0	291	124.0	-198852.0	-355.0	-8129.0
24	17	12	0	291	125.0	-197479.0	-377.0	-9012.0
24	17	12	0	292	126.0	-196779.0	-396.0	-9437.0
24	17	12	0	292	127.0	-196842.0	-441.0	-9251.0
24	17	12	0	293	128.0	-197294.0	-469.0	-9373.0
24	17	12	0	356	129.0	-197767.0	-478.0	-9288.0
24	17	12	0	401	130.0	-198431.0	-504.0	-9095.0
24	17	12	0	401	131.0	-199124.0	-541.0	-9533.0
24	17	12	0	402	132.0	-199939.0	-581.0	-9924.0
24	17	12	0	403	133.0	-200912.0	-645.0	-9694.0
24	17	12	0	404	134.0	-201457.0	-674.0	-10007.0
24	17	12	0	405	135.0	-201514.0	-707.0	-9933.0
24	17	12	0	405	136.0	-201760.0	-754.0	-9778.0
24	17	12	0	406	137.0	-202563.0	-799.0	-10138.0
24	17	12	0	407	138.0	-203431.0	-845.0	-10026.0
24	17	12	0	407	139.0	-204144.0	-894.0	-9594.0
24	17	12	0	408	140.0	-204899.0	-933.0	-9752.0
24	17	12	0	408	141.0	-206050.0	-1001.0	-10012.0
24	17	12	0	409	142.0	-207409.0	-1034.0	-9702.0
24	17	12	0	409	143.0	-208469.0	-1081.0	-9950.0
24	17	12	0	410	168.0	-178310.0	-2202.0	-9534.0
24	17	12	0	410	169.0	-174847.0	-2239.0	-9235.0
24	17	12	0	411	190.0	-260609.0	-3144.0	-6497.0
24	17	12	0	411	191.0	-267510.0	-3184.0	-4923.0
24	17	12	0	412	192.0	-273616.0	-3199.0	-3611.0
24	17	12	0	413	193.0	-279469.0	-3221.0	-3324.0
24	17	12	0	413	194.0	-284249.0	-3283.0	-2825.0
24	17	12	0	414	195.0	-287804.0	-3297.0	-3601.0
24	17	12	0	414	196.0	-290134.0	-3337.0	-6550.0
24	17	12	0	446	197.0	-290920.0	-3364.0	-10632.0
24	17	12	0	447	198.0	-290161.0	-3396.0	-15744.0
24	17	12	0	448	199.0	-287502.0	-3431.0	-22398.0
24	17	12	0	448	200.0	-283336.0	-3474.0	-28610.0
24	17	12	0	449	201.0	-278122.0	-3509.0	-34184.0
24	17	12	0	449	202.0	-271689.0	-3539.0	-40614.0
24	17	12	0	450	203.0	-264092.0	-3580.0	-48425.0
24	17	12	0	451	204.0	-255172.0	-3609.0	-56112.0
24	17	12	0	451	205.0	-244980.0	-3657.0	-62459.0
24	17	12	0	452	206.0	-234204.0	-3702.0	-67334.0
24	17	12	0	452	207.0	-223047.0	-3726.0	-70395.0
24	17	12	0	453	208.0	-210883.0	-3752.0	-72081.0
24	17	12	0	453	209.0	-198049.0	-3789.0	-69141.0
24	17	12	0	454	210.0	-185692.0	-3821.0	-61659.0
24	17	12	0	455	211.0	-174352.0	-3836.0	-54291.0
24	17	12	0	455	212.0	-163522.0	-3880.0	-44413.0
24	17	12	0	456	213.0	-153302.0	-3902.0	-30892.0
24	17	12	0	457	214.0	-144157.0	-3914.0	-20516.0
24	17	12	0	457	215.0	-136060.0	-3941.0	-16399.0
24	17	12	0	458	216.0	-129440.0	-3946.0	-13957.0
24	17	12	0	458	217.0	-124327.0	-3968.0	-12828.0
24	17	12	0	459	218.0	-120934.0	-3996.0	-13297.0
24	17	12	0	489	219.0	-119187.0	-3999.0	-13740.0
24	17	12	0	490	220.0	-118719.0	-3998.0	-12881.0
24	17	12	0	491	221.0	-120266.0	-4029.0	-12596.0
24	17	12	0	492	222.0	-122722.0	-4081.0	-12493.0
24	17	12	0	492	223.0	-119954.0	-4108.0	-12146.0
24	17	12	0	493	224.0	-108044.0	-4123.0	-11551.0
24	17	12	0	493	225.0	-89429.0	-4146.0	-11566.0
24	17	12	0	494	226.0	-68062.0	-4172.0	-11182.0
24	17	12	0	495	227.0	-54825.0	-4204.0	-10612.0
24	17	12	0	495	228.0	-55386.0	-4236.0	-10387.0
24	17	12	0	496	229.0	-68629.0	-4248.0	-10117.0
24	17	12	0	496	230.0	-91326.0	-4280.0	-10078.0
24	17	12	0	497	231.0	-120724.0	-4327.0	-10021.0
24	17	12	0	497	232.0	-155726.0	-4351.0	-10378.0
24	17	12	0	498	233.0	-192109.0	-4383.0	-10493.0
24	17	12	0	499	235.0	-252343.0	-4422.0	-10461.0
24	17	12	0	507	236.0	-271907.0	-4439.0	-10044.0
24	17	12	0	507	237.0	-283622.0	-4437.0	-9860.0
24	17	12	0	508	238.0	-287577.0	-4466.0	-9546.0
24	17	12	0	509	239.0	-286588.0	-4519.0	-9435.0
24	17	12	0	509	240.0	-285780.0	-4504.0	-9341.0
24	17	12	0	510	241.0	-288204.0	-4522.0	-9802.0
24	17	12	0	535	242.0	-292999.0	-4542.0	-9788.0
24	17	12	0	535	243.0	-297674.0	-4552.0	-10009.0
24	17	12	0	536	244.0	-299316.0	-4581.0	-10262.0
24	17	12	0	536	245.0	-296617.0	-4614.0	-9939.0
24	17	12	0	537	246.0	-292460.0	-4632.0	-9861.0
24	17	12	0	538	247.0	-290834.0	-4673.0	-10147.0
24	17	12	0	538	248.0	-291570.0	-4699.0	-10362.0
24	17	12	0	539	249.0	-290256.0	-4711.0	-10075.0
24	17	12	0	539	250.0	-282206.0	-4752.0	-9823.0
24	17	12	0	540	251.0	-266142.0	-4782.0	-10341.0
24	17	12	0	540	252.0	-244135.0	-4803.0	-10387.0
24	17	12	0	541	253.0	-220241.0	-4831.0	-10089.0
24	17	12	0	553	254.0	-197702.0	-4839.0	-10314.0
24	17	12	0	553	255.0	-178513.0	-4858.0	-10887.0
24	17	12	0	554	0.0	-163720.0	-4881.0	-10526.0
24	17	12	0	554	1.0	-152798.0	-4897.0	-10434.0
24	17	12	0	555	2.0	-144951.0	-4919.0	-10446.0
24	17	12	0	556	3.0	-139705.0	-4941.0	-10032.0
24	17	12	0	556	4.0	-135988.0	-4966.0	-9994.0
24	17	12	0	557	5.0	-133239.0	-4962.0	-10608.0
24	17	12	0	557	6.0	-131071.0	-4972.0	-10573.0
24	17	12	0	558	7.0	-129899.0	-4993.0	-10638.0
24	17	12	0	579	8.0	-128904.0	-4994.0	-10579.0
24	17	12	0	580	9.0	-127867.0	-5002.0	-10866.0
24	17	12	0	581	10.0	-126649.0	-5031.0	-10860.0
24	17	12	0	581	11.0	-125612.0	-5066.0	-10882.0
24	17	12	0	583	12.0	-125022.0	-5061.0	-11052.0
24	17	12	0	583	13.0	-125209.0	-5089.0	-10878.0
24	17	12	0	584	14.0	-127261.0	-5114.0	-10761.0
24	17	12	0	585	15.0	-131249.0	-5135.0	-10887.0
24	17	12	0	585	16.0	-137461.0	-5143.0	-10959.0
24	17	12	0	586	17.0	-145703.0	-5163.0	-11031.0
24	17	12	0	586	18.0	-155980.0	-5184.0	-11212.0
24	17	12	0	587	19.0	-167742.0	-5204.0	-11554.0
24	17	12	0	587	20.0	-180730.0	-5234.0	-11871.0
24	17	12	0	588	21.0	-194349.0	-5267.0	-11857.0
24	17	12	0	589	22.0	-207762.0	-5286.0	-11739.0
24	17	12	0	589	24.0	-231302.0	-5328.0	-11954.0
24	17	12	0	590	25.0	-241542.0	-5357.0	-12054.0
24	17	12	0	590	26.0	-250276.0	-5367.0	-12252.0
24	17	12	0	591	27.0	-257894.0	-5383.0	-11894.0
24	17	12	0	602	28.0	-264041.0	-5400.0	-11947.0
24	17	12	0	602	29.0	-268951.0	-5417.0	-12146.0
24	17	12	0	624	30.0	-272358.0	-5440.0	-12221.0
24	17	12	0	625	31.0	-274727.0	-5466.0	-12116.0
24	17	12	0	626	32.0	-276040.0	-5486.0	-12267.0
24	17	12	0	626	33.0	-276152.0	-5520.0	-11802.0
24	17	12	0	627	34.0	-275228.0	-5556.0	-12309.0
24	17	12	0	627	35.0	-273546.0	-5574.0	-12357.0
24	17	12	0	628	36.0	-271007.0	-5602.0	-12494.0
24	17	12	0	629	37.0	-267154.0	-5626.0	-13105.0
24	17	12	0	629	38.0	-262306.0	-5661.0	-13211.0
24	17	12	0	630	39.0	-256889.0	-5684.0	-13091.0
24	17	12	0	631	40.0	-251170.0	-5715.0	-13321.0
24	17	12	0	631	41.0	-246040.0	-5724.0	-13674.0
24	17	12	0	632	42.0	-241521.0	-5736.0	-13314.0
24	17	12	0	633	43.0	-237186.0	-5761.0	-13493.0
24	17	12	0	633	44.0	-232891.0	-5767.0	-13792.0
24	17	12	0	634	46.0	-225654.0	-5761.0	-14131.0
24	17	12	0	634	47.0	-221924.0	-5769.0	-14574.0
24	17	12	0	635	48.0	-217687.0	-5729.0	-14866.0
24	17	12	0	635	49.0	-213992.0	-5685.0	-14629.0
24	17	12	0	636	50.0	-210689.0	-5651.0	-14727.0
24	17	12	0	637	51.0	-207833.0	-5601.0	-15161.0
24	17	12	0	637	52.0	-205629.0	-5530.0	-15320.0
24	17	12	0	670	53.0	-203345.0	-5486.0	-15467.0
24	17	12	0	716	54.0	-201282.0	-5416.0	-15501.0
24	17	12	0	716	55.0	-199566.0	-5351.0	-15633.0
24	17	12	0	717	56.0	-198671.0	-5288.0	-16123.0
24	17	12	0	717	57.0	-198554.0	-5207.0	-16290.0
24	17	12	0	760	58.0	-199237.0	-5113.0	-16586.0
24	17	12	0	761	59.0	-200059.0	-5032.0	-16896.0
24	17	12	0	762	60.0	-201094.0	-4939.0	-16807.0
24	17	12	0	762	61.0	-203032.0	-4845.0	-16592.0
24	17	12	0	763	62.0	-205712.0	-4730.0	-16421.0
24	17	12	0	763	63.0	-209260.0	-4608.0	-15753.0
24	17	12	0	764	64.0	-213111.0	-4516.0	-15051.0
24	17	12	0	765	65.0	-217505.0	-4389.0	-14649.0
24	17	12	0	765	66.0	-222359.0	-4281.0	-15082.0
24	17	12	0	766	67.0	-226799.0	-4152.0	-14838.0
24	17	12	0	766	69.0	-233633.0	-3902.0	-14916.0
24	17	12	0	767	70.0	-236277.0	-3782.0	-14755.0
24	17	12	0	768	91.0	-139413.0	-914.0	-7914.0
24	17	12	0	768	92.0	-136538.0	-798.0	-7672.0
24	17	12	0	769	93.0	-135497.0	-677.0	-7444.0
24	17	12	0	769	94.0	-135716.0	-557.0	-7245.0
24	17	12	0	770	114.0	-256977.0	819.0	-6022.0
24	17	12	0	770	115.0	-258789.0	866.0	-6630.0
24	17	12	0	771	116.0	-257784.0	909.0	-6969.0
24	17	12	0	772	117.0	-253558.0	947.0	-6572.0
24	17	12	0	772	118.0	-246695.0	990.0	-6449.0
24	17	12	0	773	119.0	-238574.0	1034.0	-5955.0
24	17	12	0	805	120.0	-231894.0	1051.0	-5434.0
24	17	12	0	805	121.0	-228107.0	1072.0	-4981.0
24	17	12	0	806	122.0	-226762.0	1103.0	-4630.0
24	17	12	0	807	123.0	-226549.0	1104.0	-4818.0
24	17	12	0	807	124.0	-227043.0	1113.0	-4886.0
24	17	12	0	808	125.0	-227826.0	1121.0	-5101.0
24	17	12	0	809	126.0	-227449.0	1110.0	-5432.0
24	17	12	0	810	127.0	-225501.0	1136.0	-5937.0
24	17	12	0	810	128.0	-221298.0	1118.0	-6483.0
24	17	12	0	811	129.0	-214009.0	1131.0	-6463.0
24	17	12	0	812	130.0	-203195.0	1139.0	-6436.0
24	17	12	0	813	131.0	-189876.0	1140.0	-6737.0
24	17	12	0	814	132.0	-175342.0	1134.0	-6841.0
24	17	12	0	814	133.0	-161024.0	1160.0	-6571.0
24	17	12	0	815	134.0	-148521.0	1133.0	-6838.0
24	17	12	0	815	136.0	-131661.0	1146.0	-6893.0
24	17	12	0	816	137.0	-128736.0	1133.0	-7257.0
24	17	12	0	816	138.0	-128919.0	1140.0	-7919.0
24	17	12	0	817	139.0	-131300.0	1138.0	-8431.0
24	17	12	0	818	140.0	-135418.0	1141.0	-7932.0
24	17	12	0	818	141.0	-140401.0	1148.0	-7995.0
24	17	12	0	851	142.0	-144946.0	1151.0	-8459.0
24	17	12	0	851	143.0	-149074.0	1161.0	-8557.0
24	17	12	0	862	144.0	-153475.0	1144.0	-8724.0
24	17	12	0	863	145.0	-158547.0	1123.0	-9105.0
24	17	12	0	864	146.0	-163927.0	1119.0	-8552.0
24	17	12	0	864	147.0	-169151.0	1123.0	-8693.0
24	17	12	0	865	148.0	-174017.0	1117.0	-8992.0
24	17	12	0	865	149.0	-178599.0	1083.0	-9001.0
24	17	12	0	866	150.0	-182306.0	1073.0	-8994.0
24	17	12	0	867	151.0	-185230.0	1076.0	-8656.0
24	17	12	0	867	152.0	-187874.0	1056.0	-8697.0
24	17	12	0	868	153.0	-190875.0	1037.0	-8598.0
24	17	12	0	868	154.0	-194190.0	1028.0	-8547.0
24	17	12	0	869	155.0	-197129.0	1002.0	-8604.0
24	17	12	0	869	156.0	-199504.0	977.0	-8849.0
24	17	12	0	870	158.0	-202825.0	950.0	-8709.0
24	17	12	0	870	159.0	-203299.0	921.0	-8462.0
24	17	12	0	871	160.0	-203259.0	894.0	-8576.0
24	17	12	0	871	161.0	-202934.0	876.0	-8329.0
24	17	12	0	872	162.0	-202697.0	861.0	-7952.0
24	17	12	0	873	163.0	-202982.0	858.0	-7617.0
24	17	12	0	873	164.0	-203572.0	852.0	-7714.0
24	17	12	0	896	165.0	-204095.0	831.0	-7696.0
24	17	12	0	897	166.0	-204749.0	813.0	-7415.0
24	17	12	0	897	167.0	-205511.0	805.0	-7976.0
24	17	12	0	898	168.0	-206597.0	778.0	-7827.0
24	17	12	0	898	169.0	-207351.0	758.0	-8035.0
24	17	12	0	899	170.0	-208861.0	733.0	-8412.0
24	17	12	0	900	171.0	-211221.0	714.0	-8422.0
24	17	12	0	900	172.0	-213577.0	687.0	-7891.0
24	17	12	0	901	173.0	-215294.0	664.0	-7316.0
24	17	12	0	902	174.0	-216524.0	656.0	-7142.0
24	17	12	0	902	175.0	-216747.0	626.0	-6820.0
24	17	12	0	903	176.0	-215904.0	608.0	-6713.0
24	17	12	0	904	177.0	-214359.0	582.0	-7326.0
24	17	12	0	904	178.0	-212194.0	564.0	-7424.0
24	17	12	0	905	179.0	-209872.0	539.0	-7329.0
24	17	12	0	905	181.0	-204302.0	482.0	-6902.0
24	17	12	0	906	182.0	-200640.0	447.0	-6629.0
24	17	12	0	907	183.0	-196841.0	447.0	-6411.0
24	17	12	0	907	184.0	-192940.0	436.0	-6663.0
24	17	12	0	908	185.0	-189171.0	435.0	-6818.0
24	17	12	0	908	186.0	-185757.0	415.0	-7086.0
24	17	12	0	940	187.0	-182676.0	395.0	-7691.0
24	17	12	0	941	188.0	-179973.0	381.0	-8347.0
24	17	12	0	942	189.0	-177991.0	378.0	-8747.0
24	17	12	0	942	190.0	-176862.0	363.0	-8386.0
24	17	12	0	943	191.0	-177340.0	347.0	-7642.0
24	17	12	0	944	192.0	-179154.0	335.0	-7559.0
24	17	12	0	945	193.0	-182166.0	315.0	-7590.0
24	17	12	0	945	194.0	-186357.0	282.0	-7660.0
24	17	12	0	946	195.0	-191591.0	286.0	-7913.0
24	17	12	0	946	196.0	-197811.0	281.0	-8261.0
24	17	12	0	947	197.0	-204848.0	272.0	-8336.0
24	17	12	0	947	198.0	-212981.0	273.0	-8155.0
24	17	12	0	985	199.0	-221801.0	264.0	-8698.0
24	17	12	1	31	200.0	-230131.0	238.0	-8728.0
24	17	12	1	32	201.0	-238082.0	238.0	-8306.0
24	17	12	1	32	203.0	-251511.0	224.0	-8683.0
24	17	12	1	33	204.0	-256398.0	208.0	-8455.0
24	17	12	1	34	205.0	-259688.0	199.0	-8377.0
24	17	12	1	34	206.0	-262035.0	201.0	-9191.0
24	17	12	1	35	207.0	-263755.0	209.0	-9375.0
24	17	12	1	35	208.0	-264993.0	202.0	-9287.0
24	17	12	1	36	209.0	-265973.0	174.0	-9207.0
24	17	12	1	36	210.0	-266510.0	181.0	-9134.0
24	17	12	1	37	211.0	-266575.0	194.0	-9014.0
24	17	12	1	37	212.0	-266176.0	177.0	-8666.0
24	17	12	1	75	213.0	-265012.0	164.0	-8865.0
24	17	12	1	76	214.0	-263082.0	159.0	-8861.0
24	17	12	1	76	226.0	-192872.0	37.0	-9140.0
24	17	12	1	77	227.0	-186823.0	33.0	-9519.0
24	17	12	1	77	248.0	-234504.0	-501.0	-10741.0
24	17	12	1	78	249.0	-243443.0	-531.0	-11018.0
24	17	12	1	79	250.0	-252864.0	-541.0	-10908.0
24	17	12	1	79	251.0	-262362.0	-560.0	-10857.0
24	17	12	1	80	252.0	-270900.0	-576.0	-10774.0
24	17	12	1	80	253.0	-278137.0	-607.0	-10825.0
24	17	12	1	81	254.0	-283538.0	-665.0	-10872.0
24	17	12	1	82	255.0	-287640.0	-695.0	-11088.0
24	17	12	1	82	0.0	-290054.0	-744.0	-11389.0
24	17	12	1	83	1.0	-290250.0	-786.0	-11507.0
24	17	12	1	84	2.0	-289687.0	-811.0	-11567.0
24	17	12	1	85	3.0	-288464.0	-839.0	-11402.0
24	17	12	1	85	15.0	-236394.0	-1303.0	-12741.0
24	17	12	1	86	16.0	-233688.0	-1341.0	-12137.0
24	17	12	1	87	17.0	-231468.0	-1373.0	-12029.0
24	17	12	1	87	18.0	-229491.0	-1396.0	-12690.0
24	17	12	1	88	19.0	-227511.0	-1426.0	-13062.0
24	17	12	1	88	20.0	-225759.0	-1466.0	-12938.0
24	17	12	1	121	21.0	-223974.0	-1508.0	-13082.0
24	17	12	1	122	22.0	-222335.0	-1542.0	-13299.0
24	17	12	1	123	23.0	-220975.0	-1567.0	-13340.0
24	17	12	1	123	24.0	-219116.0	-1615.0	-13656.0
24	17	12	1	124	25.0	-217136.0	-1670.0	-13564.0
24	17	12	1	125	26.0	-215015.0	-1716.0	-13522.0
24	17	12	1	125	27.0	-212950.0	-1761.0	-13186.0
24	17	12	1	126	28.0	-210750.0	-1811.0	-13265.0
24	17	12	1	126	29.0	-208499.0	-1835.0	-13142.0
24	17	12	1	127	30.0	-206015.0	-1889.0	-12875.0
24	17	12	1	128	31.0	-203906.0	-1920.0	-12962.0
24	17	12	1	129	32.0	-202747.0	-1961.0	-13166.0
24	17	12	1	129	33.0	-201936.0	-2014.0	-12940.0
24	17	12	1	130	34.0	-201616.0	-2066.0	-12624.0
24	17	12	1	131	35.0	-202234.0	-2101.0	-12761.0
24	17	12	1	131	37.0	-204467.0	-2208.0	-12926.0
24	17	12	1	132	38.0	-205324.0	-2251.0	-12679.0
24	17	12	1	133	39.0	-206184.0	-2281.0	-12761.0
24	17	12	1	133	40.0	-207439.0	-2317.0	-12953.0
24	17	12	1	134	41.0	-208637.0	-2350.0	-12972.0
24	17	12	1	134	42.0	-210145.0	-2386.0	-13089.0
24	17	12	1	167	43.0	-212127.0	-2419.0	-12840.0
24	17	12	1	167	44.0	-215009.0	-2443.0	-12796.0
24	17	12	1	168	45.0	-218952.0	-2483.0	-12482.0
24	17	12	1	168	46.0	-222737.0	-2522.0	-12247.0
24	17	12	1	169	47.0	-226229.0	-2572.0	-12397.0
24	17	12	1	169	48.0	-230152.0	-2608.0	-12656.0
24	17	12	1	170	49.0	-234360.0	-2656.0	-12123.0
24	17	12	1	170	50.0	-238662.0	-2704.0	-12200.0
24	17	12	1	171	51.0	-243418.0	-2739.0	-12481.0
24	17	12	1	172	52.0	-248456.0	-2774.0	-12584.0
24	17	12	1	172	53.0	-253111.0	-2812.0	-12421.0
24	17	12	1	173	54.0	-257061.0	-2846.0	-12851.0
24	17	12	1	173	55.0	-260587.0	-2884.0	-12673.0
24	17	12	1	174	56.0	-263203.0	-2943.0	-12407.0
24	17	12	1	174	57.0	-264847.0	-2991.0	-12667.0
24	17	12	1	175	59.0	-265063.0	-3051.0	-12809.0
24	17	12	1	175	60.0	-263571.0	-3105.0	-12586.0
24	17	12	1	176	61.0	-261112.0	-3168.0	-12397.0
24	17	12	1	176	62.0	-258296.0	-3198.0	-12662.0
24	17	12	1	177	63.0	-254589.0	-3197.0	-12982.0
24	17	12	1	178	64.0	-249632.0	-3224.0	-12624.0
24	17	12	1	178	65.0	-243694.0	-3254.0	-12501.0
24	17	12	1	210	66.0	-238235.0	-3286.0	-12246.0
24	17	12	1	211	67.0	-232445.0	-3314.0	-11599.0
24	17	12	1	212	68.0	-226349.0	-3322.0	-11173.0
24	17	12	1	212	69.0	-220692.0	-3352.0	-10271.0
24	17	12	1	213	70.0	-215026.0	-3413.0	-9371.0
24	17	12	1	213	71.0	-209309.0	-3447.0	-9046.0
24	17	12	1	214	72.0	-204602.0	-3457.0	-8611.0
24	17	12	1	214	73.0	-200542.0	-3489.0	-9027.0
24	17	12	1	215	74.0	-196597.0	-3525.0	-10590.0
24	17	12	1	216	75.0	-193201.0	-3557.0	-14435.0
24	17	12	1	216	76.0	-189977.0	-3566.0	-19391.0
24	17	12	1	217	77.0	-187142.0	-3589.0	-26038.0
24	17	12	1	217	78.0	-185066.0	-3625.0	-33027.0
24	17	12	1	218	79.0	-183172.0	-3658.0	-38685.0
24	17	12	1	218	80.0	-181979.0	-3695.0	-44793.0
24	17	12	1	219	82.0	-180518.0	-3746.0	-59359.0
24	17	12	1	219	83.0	-180374.0	-3791.0	-66268.0
24	17	12	1	220	84.0	-180097.0	-3816.0	-71140.0
24	17	12	1	221	85.0	-179971.0	-3827.0	-74816.0
24	17	12	1	221	86.0	-179941.0	-3846.0	-77171.0
24	17	12	1	222	87.0	-180139.0	-3878.0	-75091.0
24	17	12	1	255	88.0	-180316.0	-3902.0	-67900.0
24	17	12	1	256	89.0	-181086.0	-3916.0	-60189.0
24	17	12	1	256	90.0	-183017.0	-3917.0	-51561.0
24	17	12	1	257	91.0	-185579.0	-3954.0	-38574.0
24	17	12	1	258	92.0	-188583.0	-4004.0	-27021.0
24	17	12	1	258	93.0	-192176.0	-4054.0	-23002.0
24	17	12	1	259	94.0	-197078.0	-4057.0	-19694.0
24	17	12	1	259	95.0	-203323.0	-4087.0	-18246.0
24	17	12	1	260	96.0	-210755.0	-4124.0	-18269.0
24	17	12	1	260	97.0	-218797.0	-4143.0	-18590.0
24	17	12	1	261	98.0	-226251.0	-4161.0	-18751.0
24	17	12	1	261	99.0	-233499.0	-4194.0	-18720.0
24	17	12	1	262	100.0	-239856.0	-4231.0	-18580.0
24	17	12	1	263	101.0	-240905.0	-4269.0	-18755.0
24	17	12	1	263	102.0	-231787.0	-4295.0	-18431.0
24	17	12	1	264	104.0	-193466.0	-4344.0	-17967.0
24	17	12	1	264	105.0	-175246.0	-4380.0	-17634.0
24	17	12	1	265	106.0	-166376.0	-4387.0	-16908.0
24	17	12	1	265	107.0	-168084.0	-4399.0	-16361.0
24	17	12	1	266	108.0	-176909.0	-4411.0	-16336.0
24	17	12	1	266	109.0	-190057.0	-4444.0	-16536.0
24	17	12	1	267	110.0	-206747.0	-4469.0	-16414.0
24	17	12	1	299	111.0	-224779.0	-4475.0	-16831.0
24	17	12	1	300	112.0	-239960.0	-4494.0	-16521.0
24	17	12	1	300	113.0	-248989.0	-4529.0	-16034.0
24	17	12	1	301	114.0	-250086.0	-4559.0	-15464.0
24	17	12	1	301	115.0	-243991.0	-4578.0	-15451.0
24	17	12	1	302	116.0	-232911.0	-4621.0	-15516.0
24	17	12	1	391	117.0	-219459.0	-4632.0	-15319.0
24	17	12	1	392	118.0	-207228.0	-4674.0	-15322.0
24	17	12	1	393	119.0	-200249.0	-4696.0	-15693.0
24	17	12	1	393	120.0	-199361.0	-4718.0	-15909.0
24	17	12	1	394	121.0	-199386.0	-4734.0	-15797.0
24	17	12	1	394	122.0	-196971.0	-4776.0	-16075.0
24	17	12	1	395	123.0	-192176.0	-4821.0	-16258.0
24	17	12	1	395	124.0	-188722.0	-4842.0	-15925.0
24	17	12	1	396	125.0	-190779.0	-4854.0	-15429.0
24	17	12	1	397	127.0	-202539.0	-4912.0	-15652.0
24	17	12	1	397	128.0	-201440.0	-4948.0	-15639.0
24	17	12	1	398	129.0	-193081.0	-4961.0	-15817.0
24	17	12	1	434	130.0	-180301.0	-4954.0	-16134.0
24	17	12	1	435	131.0	-169068.0	-4974.0	-15989.0
24	17	12	1	435	132.0	-162229.0	-5010.0	-15961.0
24	17	12	1	458	172.0	-212479.0	-6069.0	-20766.0
24	17	12	1	459	173.0	-208881.0	-6092.0	-20499.0
24	17	12	1	459	174.0	-205431.0	-6115.0	-20533.0
24	17	12	1	460	175.0	-202604.0	-6116.0	-21159.0
24	17	12	1	461	176.0	-199432.0	-6132.0	-21404.0
24	17	12	1	461	177.0	-196518.0	-6138.0	-21403.0
24	17	12	1	462	178.0	-194157.0	-6164.0	-21809.0
24	17	12	1	462	179.0	-192543.0	-6166.0	-22149.0
24	17	12	1	463	180.0	-192171.0	-6186.0	-21998.0
24	17	12	1	463	181.0	-192277.0	-6191.0	-22182.0
24	17	12	1	464	182.0	-193171.0	-6171.0	-22327.0
24	17	12	1	465	183.0	-194462.0	-6141.0	-22495.0
24	17	12	1	465	184.0	-195481.0	-6126.0	-22654.0
24	17	12	1	466	194.0	-218250.0	-5520.0	-22156.0
24	17	12	1	466	195.0	-219722.0	-5420.0	-21899.0
24	17	12	1	467	196.0	-220691.0	-5311.0	-22244.0
24	17	12	1	467	197.0	-221493.0	-5202.0	-22308.0
24	17	12	1	468	198.0	-222012.0	-5081.0	-22207.0
24	17	12	1	468	199.0	-222550.0	-4957.0	-21926.0
24	17	12	1	469	200.0	-223666.0	-4841.0	-22513.0
24	17	12	1	483	201.0	-225120.0	-4702.0	-22517.0
24	17	12	1	483	202.0	-226747.0	-4570.0	-22054.0
24	17	12	1	526	203.0	-228173.0	-4431.0	-21892.0
24	17	12	1	526	204.0	-229333.0	-4308.0	-21756.0
24	17	12	1	527	205.0	-230471.0	-4191.0	-21289.0
24	17	12	1	528	206.0	-231097.0	-4053.0	-21284.0
24	17	12	1	528	207.0	-230939.0	-3921.0	-20843.0
24	17	12	1	529	208.0	-229927.0	-3781.0	-20935.0
24	17	12	1	529	209.0	-227777.0	-3634.0	-21081.0
24	17	12	1	530	210.0	-224409.0	-3498.0	-20547.0
24	17	12	1	530	211.0	-219322.0	-3371.0	-20290.0
24	17	12	1	531	212.0	-213157.0	-3229.0	-20445.0
24	17	12	1	532	213.0	-206397.0	-3097.0	-20326.0
24	17	12	1	532	214.0	-198777.0	-2930.0	-20331.0
24	17	12	1	533	215.0	-191154.0	-2804.0	-20582.0
24	17	12	1	534	217.0	-175427.0	-2535.0	-20819.0
24	17	12	1	534	218.0	-167719.0	-2378.0	-20699.0
24	17	12	1	535	219.0	-160619.0	-2241.0	-20896.0
24	17	12	1	535	239.0	-190640.0	-185.0	-17532.0
24	17	12	1	536	240.0	-205222.0	-145.0	-17937.0
24	17	12	1	536	241.0	-223688.0	-70.0	-17712.0
24	17	12	1	537	242.0	-238351.0	20.0	-17649.0
24	17	12	1	537	243.0	-246587.0	91.0	-17588.0
24	17	12	1	538	244.0	-251197.0	152.0	-17767.0
24	17	12	1	539	245.0	-253552.0	202.0	-17822.0
24	17	12	1	570	246.0	-255642.0	238.0	-17834.0
24	17	12	1	571	247.0	-256597.0	286.0	-18156.0
24	17	12	1	571	248.0	-254267.0	321.0	-18008.0
24	17	12	1	572	249.0	-248652.0	368.0	-18127.0
24	17	12	1	573	250.0	-240685.0	391.0	-18697.0
24	17	12	1	573	251.0	-231992.0	426.0	-18881.0
24	17	12	1	574	252.0	-224657.0	462.0	-19066.0
24	17	12	1	574	253.0	-219506.0	484.0	-18813.0
24	17	12	1	575	254.0	-215099.0	484.0	-18702.0
24	17	12	1	576	255.0	-210672.0	497.0	-19134.0
24	17	12	1	576	0.0	-205150.0	518.0	-18942.0
24	17	12	1	577	1.0	-198061.0	508.0	-18816.0
24	17	12	1	577	2.0	-188721.0	534.0	-19057.0
24	17	12	1	578	3.0	-177087.0	563.0	-19251.0
24	17	12	1	578	4.0	-164337.0	579.0	-19036.0
24	17	12	1	579	5.0	-151673.0	586.0	-18894.0
24	17	12	1	580	6.0	-139742.0	593.0	-19128.0
24	17	12	1	580	7.0	-129176.0	600.0	-18370.0
24	17	12	1	581	8.0	-118846.0	608.0	-18315.0
24	17	12	1	581	9.0	-108980.0	603.0	-18589.0
24	17	12	1	582	10.0	-100248.0	603.0	-18504.0
24	17	12	1	583	11.0	-93532.0	631.0	-18126.0
24	17	12	1	615	12.0	-89646.0	649.0	-18329.0
24	17	12	1	615	13.0	-87978.0	656.0	-19053.0
24	17	12	1	616	14.0	-88342.0	640.0	-19273.0
24	17	12	1	617	15.0	-90787.0	624.0	-19091.0
24	17	12	1	617	16.0	-94512.0	635.0	-18791.0
24	17	12	1	618	17.0	-99017.0	630.0	-18285.0
24	17	12	1	618	18.0	-105454.0	633.0	-18272.0
24	17	12	1	619	19.0	-113878.0	617.0	-17968.0
24	17	12	1	619	20.0	-123741.0	630.0	-18131.0
24	17	12	1	620	21.0	-134289.0	620.0	-17979.0
24	17	12	1	621	22.0	-145407.0	597.0	-18660.0
24	17	12	1	621	23.0	-157195.0	590.0	-18629.0
24	17	12	1	622	24.0	-169202.0	595.0	-18663.0
24	17	12	1	622	25.0	-181209.0	568.0	-19071.0
24	17	12	1	623	26.0	-193011.0	567.0	-18630.0
24	17	12	1	623	28.0	-215437.0	546.0	-18789.0
24	17	12	1	624	29.0	-225830.0	526.0	-18685.0
24	17	12	1	625	30.0	-234976.0	545.0	-18333.0
24	17	12	1	625	31.0	-242588.0	533.0	-18112.0
24	17	12	1	626	32.0	-249084.0	504.0	-18289.0
24	17	12	1	626	33.0	-254204.0	491.0	-18147.0
24	17	12	1	751	34.0	-258406.0	493.0	-17937.0
24	17	12	1	752	35.0	-261238.0	488.0	-18204.0
24	17	12	1	752	36.0	-262800.0	480.0	-17963.0
24	17	12	1	753	37.0	-263172.0	471.0	-17578.0
24	17	12	1	754	38.0	-262193.0	441.0	-17923.0
24	17	12	1	754	39.0	-260433.0	424.0	-17402.0
24	17	12	1	795	40.0	-257721.0	389.0	-17212.0
24	17	12	1	796	41.0	-253834.0	373.0	-17776.0
24	17	12	1	796	42.0	-248937.0	353.0	-18427.0
24	17	12	1	797	43.0	-243202.0	320.0	-18204.0
24	17	12	1	798	44.0	-237157.0	298.0	-18000.0
24	17	12	1	798	45.0	-230614.0	269.0	-17966.0
24	17	12	1	799	46.0	-224027.0	253.0	-17666.0
24	17	12	1	799	47.0	-217767.0	236.0	-17471.0
24	17	12	1	807	48.0	-211861.0	229.0	-16956.0
24	17	12	1	808	95.0	-188429.0	-226.0	-18525.0
24	17	12	1	808	96.0	-183962.0	-212.0	-18774.0
24	17	12	1	809	97.0	-180756.0	-199.0	-18302.0
24	17	12	1	809	98.0	-179157.0	-206.0	-18357.0
24	17	12	1	810	99.0	-178319.0	-197.0	-18504.0
24	17	12	1	810	100.0	-178009.0	-213.0	-18409.0
24	17	12	1	811	101.0	-178507.0	-222.0	-18187.0
24	17	12	1	811	118.0	-192366.0	-486.0	-18694.0
24	17	12	1	812	119.0	-196594.0	-499.0	-18846.0
24	17	12	1	813	120.0	-200151.0	-519.0	-19252.0
24	17	12	1	813	121.0	-203874.0	-546.0	-19179.0
24	17	12	1	814	122.0	-207703.0	-541.0	-18722.0
24	17	12	1	814	123.0	-210990.0	-568.0	-18914.0
24	17	12	1	815	124.0	-213447.0	-580.0	-18997.0
24	17	12	1	839	125.0	-214514.0	-605.0	-18659.0
24	17	12	1	840	126.0	-215051.0	-623.0	-18553.0
24	17	12	1	841	127.0	-215295.0	-651.0	-18466.0
24	17	12	1	842	128.0	-216148.0	-708.0	-18607.0
24	17	12	1	842	129.0	-216687.0	-746.0	-18809.0
24	17	12	1	843	130.0	-217245.0	-765.0	-18756.0
24	17	12	1	843	131.0	-217337.0	-804.0	-19302.0
24	17	12	1	844	132.0	-216224.0	-832.0	-19969.0
24	17	12	1	845	133.0	-214884.0	-874.0	-20187.0
24	17	12	1	845	134.0	-213128.0	-908.0	-19586.0
24	17	12	1	846	135.0	-210482.0	-939.0	-19680.0
24	17	12	1	847	136.0	-207421.0	-971.0	-19900.0
24	17	12	1	847	137.0	-204019.0	-1018.0	-19455.0
24	17	12	1	848	138.0	-200074.0	-1065.0	-19496.0
24	17	12	1	849	139.0	-196794.0	-1105.0	-19932.0
24	17	12	1	849	140.0	-193329.0	-1121.0	-19490.0
24	17	12	1	850	141.0	-189885.0	-1155.0	-19472.0
24	17	12	1	851	142.0	-186556.0	-1186.0	-19390.0
24	17	12	1	851	143.0	-183436.0	-1217.0	-19710.0
24	17	12	1	852	144.0	-180287.0	-1246.0	-19179.0
24	17	12	1	852	145.0	-177636.0	-1289.0	-18855.0
24	17	12	1	853	146.0	-176289.0	-1324.0	-19151.0
24	17	12	1	884	147.0	-175710.0	-1341.0	-19168.0
24	17	12	1	886	148.0	-175329.0	-1383.0	-19013.0
24	17	12	1	886	149.0	-176388.0	-1423.0	-19334.0
24	17	12	1	887	150.0	-177938.0	-1482.0	-19086.0
24	17	12	1	888	151.0	-180513.0	-1513.0	-18421.0
24	17	12	1	888	152.0	-183574.0	-1556.0	-18617.0
24	17	12	1	889	153.0	-187701.0	-1607.0	-19174.0
24	17	12	1	890	154.0	-192626.0	-1659.0	-18863.0
24	17	12	1	891	155.0	-198301.0	-1673.0	-18544.0
24	17	12	1	891	156.0	-204474.0	-1722.0	-18541.0
24	17	12	1	892	157.0	-210292.0	-1768.0	-18562.0
24	17	12	1	893	158.0	-215672.0	-1797.0	-18590.0
24	17	12	1	894	159.0	-220686.0	-1832.0	-18204.0
24	17	12	1	894	160.0	-224674.0	-1861.0	-18411.0
24	17	12	1	895	161.0	-228228.0	-1901.0	-18564.0
24	17	12	1	895	163.0	-232122.0	-1997.0	-18491.0
24	17	12	1	896	164.0	-233414.0	-2010.0	-18254.0
24	17	12	1	896	165.0	-233807.0	-2042.0	-18653.0
24	17	12	1	897	166.0	-233497.0	-2089.0	-18119.0
24	17	12	1	898	167.0	-232243.0	-2136.0	-18019.0
24	17	12	1	898	168.0	-230351.0	-2170.0	-18177.0
24	17	12	1	930	169.0	-227691.0	-2207.0	-17799.0
24	17	12	1	931	170.0	-224637.0	-2216.0	-17974.0
24	17	12	1	955	171.0	-220669.0	-2252.0	-18575.0
24	17	12	1	956	172.0	-216172.0	-2313.0	-18623.0
24	17	12	1	957	173.0	-211158.0	-2362.0	-18884.0
24	17	12	1	958	174.0	-205809.0	-2402.0	-18558.0
24	17	12	1	958	175.0	-200247.0	-2452.0	-18691.0
24	17	12	1	959	176.0	-194783.0	-2484.0	-18282.0
24	17	12	1	959	177.0	-189296.0	-2517.0	-17668.0
24	17	12	1	960	178.0	-183690.0	-2559.0	-17044.0
24	17	12	1	960	179.0	-178856.0	-2611.0	-16757.0
24	17	12	1	961	180.0	-175421.0	-2650.0	-16005.0
24	17	12	1	962	181.0	-172231.0	-2677.0	-15899.0
24	17	12	1	962	182.0	-168806.0	-2732.0	-15137.0
24	17	12	1	963	183.0	-166090.0	-2758.0	-13844.0
24	17	12	1	963	185.0	-160501.0	-2824.0	-13659.0
24	17	12	1	964	186.0	-157807.0	-2862.0	-14877.0
24	17	12	1	964	187.0	-155274.0	-2888.0	-17890.0
24	17	12	1	965	188.0	-152665.0	-2919.0	-22822.0
24	17	12	1	965	189.0	-150114.0	-2936.0	-28972.0
24	17	12	1	966	190.0	-147626.0	-2976.0	-35961.0
24	17	12	2	157	191.0	-145002.0	-3009.0	-41782.0
24	17	12	2	157	192.0	-142603.0	-3042.0	-47022.0
24	17	12	2	158	193.0	-140254.0	-3056.0	-53440.0
24	17	12	2	159	194.0	-137917.0	-3091.0	-60911.0
24	17	12	2	159	195.0	-134892.0	-3147.0	-66812.0
24	17	12	2	160	196.0	-132164.0	-3187.0	-71316.0
24	17	12	2	160	197.0	-129098.0	-3211.0	-74140.0
24	17	12	2	161	198.0	-125784.0	-3247.0	-76012.0
24	17	12	2	162	199.0	-123715.0	-3280.0	-74632.0
24	17	12	2	162	200.0	-121667.0	-3336.0	-68373.0
24	17	12	2	163	201.0	-120121.0	-3367.0	-61051.0
24	17	12	2	163	202.0	-118699.0	-3395.0	-53101.0
24	17	12	2	164	203.0	-117494.0	-3447.0	-41211.0
24	17	12	2	165	204.0	-118147.0	-3479.0	-30995.0
24	17	12	2	165	205.0	-119459.0	-3496.0	-26881.0
24	17	12	2	166	41.0	-200002.0	-5391.0	-24442.0
24	17	12	2	166	42.0	-198326.0	-5367.0	-25117.0
24	17	12	2	167	43.0	-197651.0	-5309.0	-24815.0
24	17	12	2	168	44.0	-197668.0	-5261.0	-25419.0
24	17	12	2	168	45.0	-198689.0	-5221.0	-25913.0
24	17	12	2	169	46.0	-200752.0	-5177.0	-25997.0
24	17	12	2	169	47.0	-203318.0	-5116.0	-25941.0
24	17	12	2	200	48.0	-205954.0	-5048.0	-25746.0
24	17	12	2	200	49.0	-208240.0	-4956.0	-25534.0
24	17	12	2	201	50.0	-210117.0	-4879.0	-25161.0
24	17	12	2	202	51.0	-211484.0	-4807.0	-24902.0
24	17	12	2	203	52.0	-212277.0	-4711.0	-24380.0
24	17	12	2	203	53.0	-212900.0	-4649.0	-23292.0
24	17	12	2	204	54.0	-214001.0	-4562.0	-22966.0
24	17	12	2	204	55.0	-215033.0	-4457.0	-23089.0
24	17	12	2	205	56.0	-215888.0	-4342.0	-22745.0
24	17	12	2	206	57.0	-216517.0	-4238.0	-22379.0
24	17	12	2	206	58.0	-216745.0	-4142.0	-22692.0
24	17	12	2	207	59.0	-217023.0	-4031.0	-22683.0
24	17	12	2	207	60.0	-216642.0	-3917.0	-22569.0
24	17	12	2	208	61.0	-215676.0	-3791.0	-22146.0
24	17	12	2	245	62.0	-214353.0	-3679.0	-21536.0
24	17	12	2	246	64.0	-209607.0	-3437.0	-21379.0
24	17	12	2	246	65.0	-206241.0	-3301.0	-21448.0
24	17	12	2	247	66.0	-202472.0	-3166.0	-21193.0
24	17	12	2	248	67.0	-198352.0	-3035.0	-20419.0
24	17	12	2	248	68.0	-193604.0	-2889.0	-20034.0
24	17	12	2	249	69.0	-188171.0	-2752.0	-19373.0
24	17	12	2	249	70.0	-182176.0	-2629.0	-19156.0
24	17	12	2	250	71.0	-176144.0	-2539.0	-19041.0
24	17	12	2	251	72.0	-170856.0	-2399.0	-18716.0
24	17	12	2	251	73.0	-165414.0	-2265.0	-18192.0
24	17	12	2	252	74.0	-159855.0	-2148.0	-18146.0
24	17	12	2	252	75.0	-154961.0	-2014.0	-17709.0
24	17	12	2	253	76.0	-151366.0	-1908.0	-17395.0
24	17	12	2	254	77.0	-148433.0	-1781.0	-17625.0
24	17	12	2	254	86.0	-156321.0	-814.0	-16640.0
24	17	12	2	255	87.0	-159396.0	-711.0	-16601.0
24	17	12	2	255	88.0	-163206.0	-631.0	-16267.0
24	17	12	2	256	89.0	-166626.0	-536.0	-15785.0
24	17	12	2	257	90.0	-169554.0	-454.0	-15649.0
24	17	12	2	257	91.0	-171195.0	-371.0	-15941.0
24	17	12	2	293	92.0	-171532.0	-267.0	-15681.0
24	17	12	2	294	93.0	-173301.0	-208.0	-15594.0
24	17	12	2	295	94.0	-179699.0	-144.0	-15769.0
24	17	12	2	295	95.0	-189752.0	-66.0	-15776.0
24	17	12	2	296	96.0	-206296.0	6.0	-15711.0
24	17	12	2	297	97.0	-226009.0	66.0	-16007.0
24	17	12	2	297	98.0	-242769.0	128.0	-16212.0
24	17	12	2	298	99.0	-254264.0	167.0	-16134.0
24	17	12	2	298	100.0	-262060.0	231.0	-16311.0
24	17	12	2	299	101.0	-267446.0	268.0	-15854.0
24	17	12	2	300	102.0	-272009.0	318.0	-15356.0
24	17	12	2	300	103.0	-274151.0	356.0	-15389.0
24	17	12	2	301	104.0	-272939.0	384.0	-15169.0
24	17	12	2	302	105.0	-269195.0	402.0	-15261.0
24	17	12	2	302	106.0	-263026.0	445.0	-15581.0
24	17	12	2	303	109.0	-248113.0	533.0	-15337.0
24	17	12	2	303	110.0	-246979.0	567.0	-15432.0
24	17	12	2	304	111.0	-245666.0	587.0	-15128.0
24	17	12	2	305	112.0	-242721.0	614.0	-15157.0
24	17	12	2	305	113.0	-236959.0	638.0	-15334.0
24	17	12	2	306	114.0	-228760.0	656.0	-15299.0
24	17	12	2	382	115.0	-216802.0	689.0	-15188.0
24	17	12	2	383	116.0	-201072.0	704.0	-15507.0
24	17	12	2	383	117.0	-182972.0	701.0	-15564.0
24	17	12	2	384	118.0	-163008.0	721.0	-15359.0
24	17	12	2	385	119.0	-141704.0	732.0	-15307.0
24	17	12	2	385	120.0	-121095.0	730.0	-15705.0
24	17	12	2	386	121.0	-104057.0	745.0	-15499.0
24	17	12	2	426	122.0	-91651.0	739.0	-15395.0
24	17	12	2	427	123.0	-84354.0	738.0	-15335.0
24	17	12	2	427	124.0	-83332.0	738.0	-15107.0
24	17	12	2	428	125.0	-86946.0	721.0	-14946.0
24	17	12	2	429	126.0	-92622.0	723.0	-14963.0
24	17	12	2	430	127.0	-98948.0	723.0	-15283.0
24	17	12	2	430	128.0	-105012.0	719.0	-14736.0
24	17	12	2	431	129.0	-110244.0	736.0	-14729.0
24	17	12	2	432	153.0	-242332.0	254.0	-13410.0
24	17	12	2	432	154.0	-243027.0	212.0	-12971.0
24	17	12	2	433	155.0	-244031.0	186.0	-13216.0
24	17	12	2	434	156.0	-244989.0	169.0	-13322.0
24	17	12	2	434	157.0	-245385.0	157.0	-12852.0
24	17	12	2	435	158.0	-245501.0	134.0	-12394.0
24	17	12	2	436	159.0	-245386.0	113.0	-12375.0
24	17	12	2	436	160.0	-245011.0	85.0	-12199.0
24	17	12	2	437	176.0	-212134.0	-266.0	-12229.0
24	17	12	2	438	177.0	-211309.0	-251.0	-12036.0
24	17	12	2	438	178.0	-210798.0	-259.0	-12330.0
24	17	12	2	439	179.0	-211191.0	-276.0	-12041.0
24	17	12	2	440	180.0	-211936.0	-269.0	-11646.0
24	17	12	2	440	181.0	-213414.0	-291.0	-11532.0
24	17	12	2	441	182.0	-215458.0	-279.0	-11756.0
24	17	12	2	471	183.0	-217685.0	-286.0	-11632.0
24	17	12	2	471	184.0	-219489.0	-287.0	-12165.0
24	17	12	2	472	185.0	-221109.0	-309.0	-12670.0
24	17	12	2	473	186.0	-222476.0	-309.0	-11582.0
24	17	12	2	474	187.0	-223332.0	-342.0	-11162.0
24	17	12	2	474	188.0	-224034.0	-340.0	-11219.0
24	17	12	2	475	189.0	-224211.0	-346.0	-10735.0
24	17	12	2	476	190.0	-224140.0	-355.0	-10357.0
24	17	12	2	477	191.0	-223688.0	-376.0	-10590.0
24	17	12	2	477	192.0	-222721.0	-364.0	-10844.0
24	17	12	2	478	193.0	-221269.0	-379.0	-11189.0
24	17	12	2	479	194.0	-219419.0	-389.0	-11470.0
24	17	12	2	479	195.0	-217646.0	-394.0	-12075.0
24	17	12	2	480	196.0	-215751.0	-399.0	-12254.0
24	17	12	2	480	197.0	-213725.0	-401.0	-11872.0
24	17	12	2	481	198.0	-211494.0	-406.0	-11936.0
24	17	12	2	482	199.0	-209000.0	-394.0	-11871.0
24	17	12	2	482	200.0	-206556.0	-386.0	-11436.0
24	17	12	2	483	201.0	-204454.0	-362.0	-12297.0
24	17	12	2	484	202.0	-202708.0	-375.0	-12783.0
24	17	12	2	484	203.0	-201916.0	-362.0	-12719.0
24	17	12	2	485	204.0	-201213.0	-376.0	-12621.0
24	17	12	2	515	205.0	-201383.0	-376.0	-12496.0
24	17	12	2	517	206.0	-201241.0	-362.0	-12445.0
24	17	12	2	517	207.0	-201591.0	-375.0	-13153.0
24	17	12	2	518	208.0	-202709.0	-397.0	-12851.0
24	17	12	2	519	209.0	-203798.0	-427.0	-12622.0
24	17	12	2	519	210.0	-205769.0	-429.0	-12766.0
24	17	12	2	520	211.0	-209117.0	-433.0	-12851.0
24	17	12	2	521	212.0	-213414.0	-456.0	-12274.0
24	17	12	2	521	213.0	-218121.0	-457.0	-11892.0
24	17	12	2	522	214.0	-223171.0	-484.0	-11516.0
24	17	12	2	523	215.0	-227804.0	-504.0	-11844.0
24	17	12	2	523	216.0	-231789.0	-511.0	-11871.0
24	17	12	2	524	217.0	-235477.0	-523.0	-12116.0
24	17	12	2	525	218.0	-237621.0	-544.0	-11848.0
24	17	12	2	525	219.0	-238627.0	-554.0	-11851.0
24	17	12	2	526	221.0	-237216.0	-584.0	-11891.0
24	17	12	2	527	222.0	-235329.0	-605.0	-11541.0
24	17	12	2	527	223.0	-232989.0	-618.0	-11294.0
24	17	12	2	528	224.0	-230482.0	-637.0	-11526.0
24	17	12	2	528	225.0	-227604.0	-655.0	-11579.0
24	17	12	2	529	226.0	-225455.0	-671.0	-11402.0
24	17	12	2	560	227.0	-223111.0	-679.0	-11527.0
24	17	12	2	561	228.0	-221034.0	-686.0	-11298.0
24	17	12	2	561	229.0	-219655.0	-709.0	-11016.0
24	17	12	2	562	230.0	-219139.0	-755.0	-11316.0
24	17	12	2	562	231.0	-219430.0	-789.0	-11551.0
24	17	12	2	563	232.0	-219379.0	-821.0	-11280.0
24	17	12	2	563	233.0	-220212.0	-849.0	-11679.0
24	17	12	2	564	234.0	-221175.0	-876.0	-12335.0
24	17	12	2	564	235.0	-222929.0	-893.0	-12174.0
24	17	12	2	565	236.0	-224814.0	-920.0	-12031.0
24	17	12	2	565	237.0	-226606.0	-938.0	-12265.0
24	17	12	2	566	238.0	-229367.0	-977.0	-12377.0
24	17	12	2	567	239.0	-230952.0	-1000.0	-12773.0
24	17	12	2	567	240.0	-231665.0	-1031.0	-12607.0
24	17	12	2	568	241.0	-232388.0	-1097.0	-12147.0
24	17	12	2	568	243.0	-232138.0	-1127.0	-12500.0
24	17	12	2	569	244.0	-231339.0	-1180.0	-12504.0
24	17	12	2	570	245.0	-230161.0	-1207.0	-12504.0
24	17	12	2	570	246.0	-229003.0	-1216.0	-12108.0
24	17	12	2	571	247.0	-227462.0	-1266.0	-11504.0
24	17	12	2	571	248.0	-225822.0	-1317.0	-11280.0
24	17	12	2	572	249.0	-223981.0	-1342.0	-11191.0
24	17	12	2	605	250.0	-221757.0	-1346.0	-11153.0
24	17	12	2	605	251.0	-219100.0	-1364.0	-10911.0
24	17	12	2	606	252.0	-215366.0	-1416.0	-11571.0
24	17	12	2	607	253.0	-210862.0	-1461.0	-11526.0
24	17	12	2	607	254.0	-207264.0	-1484.0	-11209.0
24	17	12	2	608	255.0	-202722.0	-1522.0	-10594.0
24	17	12	2	608	0.0	-197811.0	-1566.0	-10566.0
24	17	12	2	609	1.0	-192922.0	-1601.0	-10922.0
24	17	12	2	609	2.0	-188141.0	-1632.0	-11039.0
24	17	12	2	610	3.0	-183237.0	-1661.0	-10794.0
24	17	12	2	611	4.0	-178071.0	-1706.0	-10379.0
24	17	12	2	611	5.0	-172838.0	-1766.0	-10429.0
24	17	12	2	612	6.0	-168371.0	-1813.0	-10041.0
24	17	12	2	613	7.0	-164410.0	-1846.0	-10419.0
24	17	12	2	613	8.0	-160436.0	-1894.0	-10450.0
24	17	12	2	614	10.0	-152673.0	-1992.0	-9897.0
24	17	12	2	614	11.0	-149694.0	-2036.0	-10164.0
24	17	12	2	615	12.0	-147551.0	-2051.0	-9694.0
24	17	12	2	615	13.0	-146410.0	-2094.0	-9721.0
24	17	12	2	616	14.0	-146243.0	-2114.0	-10086.0
24	17	12	2	617	15.0	-146564.0	-2153.0	-10269.0
24	17	12	2	832	16.0	-146972.0	-2186.0	-10274.0
24	17	12	2	833	17.0	-147943.0	-2232.0	-10495.0
24	17	12	2	833	18.0	-148891.0	-2265.0	-10341.0
24	17	12	2	834	19.0	-149991.0	-2304.0	-10542.0
24	17	12	2	836	20.0	-150781.0	-2358.0	-10584.0
24	17	12	2	837	21.0	-151649.0	-2409.0	-10690.0
24	17	12	2	837	22.0	-153255.0	-2453.0	-10494.0
24	17	12	2	838	23.0	-156033.0	-2491.0	-10321.0
24	17	12	2	839	24.0	-159967.0	-2531.0	-10191.0
24	17	12	2	839	25.0	-165008.0	-2576.0	-9850.0
24	17	12	2	840	26.0	-170484.0	-2617.0	-9577.0
24	17	12	2	840	27.0	-176366.0	-2652.0	-8738.0
24	17	12	2	841	28.0	-181960.0	-2714.0	-8084.0
24	17	12	2	841	29.0	-187887.0	-2764.0	-7869.0
24	17	12	2	842	30.0	-195039.0	-2802.0	-7456.0
24	17	12	2	842	122.0	-246390.0	-5322.0	-10767.0
24	17	12	2	843	123.0	-248729.0	-5328.0	-11124.0
24	17	12	2	843	124.0	-251391.0	-5319.0	-11543.0
24	17	12	2	844	125.0	-255167.0	-5335.0	-11539.0
24	17	12	2	845	126.0	-257734.0	-5346.0	-11820.0
24	17	12	2	845	127.0	-260616.0	-5376.0	-12269.0
24	17	12	2	876	128.0	-262954.0	-5406.0	-12257.0
24	17	12	2	876	129.0	-264883.0	-5414.0	-12264.0
24	17	12	2	877	130.0	-266597.0	-5428.0	-12467.0
24	17	12	2	878	131.0	-267151.0	-5451.0	-12512.0
24	17	12	2	878	132.0	-267157.0	-5482.0	-12352.0
24	17	12	2	879	133.0	-266226.0	-5502.0	-12484.0
24	17	12	2	879	134.0	-263917.0	-5512.0	-12391.0
24	17	12	2	880	135.0	-260447.0	-5519.0	-12461.0
24	17	12	2	880	136.0	-255873.0	-5537.0	-12792.0
24	17	12	2	881	137.0	-250472.0	-5542.0	-12940.0
24	17	12	2	881	138.0	-244733.0	-5554.0	-13088.0
24	17	12	2	882	139.0	-238889.0	-5560.0	-12989.0
24	17	12	2	883	140.0	-232362.0	-5558.0	-13388.0
24	17	12	2	883	141.0	-225313.0	-5552.0	-13603.0
24	17	12	2	884	142.0	-217894.0	-5540.0	-13870.0
24	17	12	2	885	144.0	-200619.0	-5504.0	-14075.0
24	17	12	2	885	145.0	-192136.0	-5479.0	-14445.0
24	17	12	2	886	146.0	-185137.0	-5443.0	-14641.0
24	17	12	2	886	147.0	-178829.0	-5410.0	-14954.0
24	17	12	2	887	148.0	-172935.0	-5341.0	-15259.0
24	17	12	2	888	149.0	-167529.0	-5310.0	-15474.0
24	17	12	2	888	150.0	-163826.0	-5270.0	-15574.0
24	17	12	2	921	151.0	-161229.0	-5192.0	-15303.0
24	17	12	2	921	152.0	-160055.0	-5091.0	-15355.0
24	17	12	2	922	153.0	-159746.0	-5001.0	-15646.0
24	17	12	2	922	154.0	-160437.0	-4912.0	-15279.0
24	17	12	2	923	155.0	-161582.0	-4847.0	-14974.0
24	17	12	2	923	156.0	-164218.0	-4776.0	-15269.0
24	17	12	2	924	157.0	-167029.0	-4689.0	-14746.0
24	17	12	2	925	158.0	-169490.0	-4604.0	-14493.0
24	17	12	2	925	159.0	-172574.0	-4499.0	-15127.0
24	17	12	2	926	160.0	-174767.0	-4394.0	-15433.0
24	17	12	2	926	161.0	-176296.0	-4264.0	-14685.0
24	17	12	2	927	162.0	-177925.0	-4176.0	-14708.0
24	17	12	2	927	163.0	-179528.0	-4050.0	-14984.0
24	17	12	2	928	164.0	-180264.0	-3931.0	-15091.0
24	17	12	2	929	165.0	-181136.0	-3827.0	-15474.0
24	17	12	2	929	167.0	-182126.0	-3583.0	-14827.0
24	17	12	2	930	168.0	-181975.0	-3444.0	-14632.0
24	17	12	2	930	169.0	-181988.0	-3307.0	-14734.0
24	17	12	2	931	170.0	-182242.0	-3166.0	-13941.0
24	17	12	2	931	171.0	-182092.0	-3022.0	-13163.0
24	17	12	2	932	172.0	-182344.0	-2882.0	-12689.0
24	17	12	2	965	173.0	-183976.0	-2749.0	-12306.0
24	17	12	2	966	174.0	-185911.0	-2609.0	-11781.0
24	17	12	2	966	175.0	-187120.0	-2468.0	-11547.0
24	17	12	2	967	176.0	-187912.0	-2324.0	-11991.0
24	17	12	3	56	177.0	-188284.0	-2179.0	-11796.0
24	17	12	3	57	178.0	-188151.0	-2057.0	-11204.0
24	17	12	3	58	179.0	-187344.0	-1927.0	-10891.0
24	17	12	3	58	180.0	-186826.0	-1811.0	-10984.0
24	17	12	3	59	181.0	-186575.0	-1674.0	-10594.0
24	17	12	3	59	182.0	-186338.0	-1556.0	-10202.0
24	17	12	3	60	183.0	-186394.0	-1425.0	-10445.0
24	17	12	3	61	184.0	-187382.0	-1320.0	-10152.0
24	17	12	3	61	185.0	-189212.0	-1215.0	-9732.0
24	17	12	3	62	186.0	-191359.0	-1110.0	-9917.0
24	17	12	3	62	187.0	-193311.0	-1001.0	-9953.0
24	17	12	3	63	189.0	-197222.0	-774.0	-9439.0
24	17	12	3	63	190.0	-199136.0	-677.0	-9446.0
24	17	12	3	64	191.0	-201694.0	-579.0	-9365.0
24	17	12	3	65	192.0	-205364.0	-477.0	-9473.0
24	17	12	3	65	193.0	-209251.0	-386.0	-9077.0
24	17	12	3	80	234.0	-145416.0	978.0	-389.0
24	17	12	3	105	235.0	-154165.0	976.0	-147.0
24	17	12	3	105	236.0	-162252.0	984.0	-195.0
24	17	12	3	145	237.0	-170282.0	998.0	-497.0
24	17	12	3	146	238.0	-178423.0	991.0	-799.0
24	17	12	3	146	239.0	-185812.0	988.0	-149.0
24	17	12	3	147	240.0	-192493.0	984.0	-98.0
24	17	12	3	148	241.0	-198092.0	966.0	-216.0
24	17	12	3	148	242.0	-202699.0	981.0	-324.0
24	17	12	3	149	243.0	-206367.0	973.0	-176.0
24	17	12	3	149	244.0	-209146.0	938.0	-601.0
24	17	12	3	150	245.0	-211673.0	916.0	-349.0
24	17	12	3	151	246.0	-213386.0	891.0	-452.0
24	17	12	3	151	247.0	-214384.0	888.0	-779.0
24	17	12	3	152	248.0	-214957.0	878.0	-1077.0
24	17	12	3	152	249.0	-215840.0	859.0	-727.0
24	17	12	3	153	250.0	-216768.0	838.0	-435.0
24	17	12	3	153	1.0	-217407.0	655.0	-1127.0
24	17	12	3	154	23.0	-206852.0	216.0	-2381.0
24	17	12	3	155	24.0	-206714.0	212.0	-2076.0
24	17	12	3	155	25.0	-205946.0	214.0	-1693.0
24	17	12	3	156	26.0	-204451.0	209.0	-1376.0
24	17	12	3	156	27.0	-202576.0	209.0	-1951.0
24	17	12	3	157	28.0	-200733.0	206.0	-1866.0
24	17	12	3	190	29.0	-198937.0	195.0	-1614.0
24	17	12	3	191	30.0	-196841.0	201.0	-1879.0
24	17	12	3	191	31.0	-194714.0	195.0	-2119.0
24	17	12	3	192	32.0	-193288.0	158.0	-1904.0
24	17	12	3	192	33.0	-192117.0	139.0	-1955.0
24	17	12	3	193	34.0	-191029.0	146.0	-1806.0
24	17	12	3	193	35.0	-190150.0	145.0	-1819.0
24	17	12	3	194	36.0	-189821.0	130.0	-1774.0
24	17	12	3	195	37.0	-190243.0	103.0	-1427.0
24	17	12	3	196	38.0	-191206.0	88.0	-1416.0
24	17	12	3	197	39.0	-192699.0	93.0	-2243.0
24	17	12	3	197	40.0	-194500.0	88.0	-2474.0
24	17	12	3	198	41.0	-196496.0	88.0	-2082.0
24	17	12	3	198	42.0	-198368.0	73.0	-2119.0
24	17	12	3	199	43.0	-199894.0	51.0	-2340.0
24	17	12	3	199	45.0	-202829.0	58.0	-1949.0
24	17	12	3	200	46.0	-204966.0	26.0	-2134.0
24	17	12	3	201	47.0	-207640.0	9.0	-2368.0
24	17	12	3	201	48.0	-210175.0	18.0	-2144.0
24	17	12	3	202	49.0	-213153.0	19.0	-2697.0
24	17	12	3	203	50.0	-216187.0	42.0	-3006.0
24	17	12	3	203	51.0	-218806.0	36.0	-2932.0
24	17	12	3	234	52.0	-221339.0	33.0	-2522.0
24	17	12	3	235	53.0	-223699.0	36.0	-2438.0
24	17	12	3	236	54.0	-225180.0	22.0	-2084.0
24	17	12	3	236	55.0	-225594.0	8.0	-2050.0
24	17	12	3	237	56.0	-224687.0	9.0	-2024.0
24	17	12	3	237	57.0	-223811.0	5.0	-2067.0
24	17	12	3	238	58.0	-223836.0	-27.0	-1777.0
24	17	12	3	239	59.0	-223961.0	-35.0	-1602.0
24	17	12	3	239	60.0	-223920.0	-44.0	-2197.0
24	17	12	3	240	61.0	-223137.0	-41.0	-2321.0
24	17	12	3	240	62.0	-222326.0	-45.0	-2136.0
24	17	12	3	241	63.0	-221398.0	-59.0	-2867.0
24	17	12	3	241	64.0	-220291.0	-80.0	-2865.0
24	17	12	3	242	65.0	-219051.0	-89.0	-2154.0
24	17	12	3	243	66.0	-217584.0	-106.0	-1977.0
24	17	12	3	243	68.0	-214035.0	-120.0	-1852.0
24	17	12	3	244	69.0	-212057.0	-144.0	-1959.0
24	17	12	3	244	70.0	-210079.0	-142.0	-1783.0
24	17	12	3	245	71.0	-208412.0	-149.0	-1868.0
24	17	12	3	245	72.0	-207534.0	-162.0	-2453.0
24	17	12	3	254	73.0	-207352.0	-164.0	-2451.0
24	17	12	3	279	74.0	-208106.0	-182.0	-2253.0
24	17	12	3	280	75.0	-208638.0	-191.0	-2431.0
24	17	12	3	281	76.0	-208867.0	-205.0	-2674.0
24	17	12	3	281	77.0	-208857.0	-231.0	-2551.0
24	17	12	3	282	78.0	-208329.0	-253.0	-2850.0
24	17	12	3	283	79.0	-207294.0	-263.0	-3179.0
24	17	12	3	283	80.0	-206141.0	-300.0	-3104.0
24	17	12	3	284	81.0	-204691.0	-336.0	-2945.0
24	17	12	3	284	82.0	-202226.0	-359.0	-3453.0
24	17	12	3	285	83.0	-199004.0	-385.0	-3620.0
24	17	12	3	286	84.0	-195507.0	-412.0	-3479.0
24	17	12	3	286	85.0	-192229.0	-446.0	-4219.0
24	17	12	3	287	86.0	-189849.0	-476.0	-5205.0
24	17	12	3	287	87.0	-187191.0	-519.0	-5508.0
24	17	12	3	288	88.0	-183772.0	-537.0	-6104.0
24	17	12	3	289	90.0	-179917.0	-621.0	-6505.0
24	17	12	3	289	91.0	-179143.0	-662.0	-6564.0
24	17	12	3	290	92.0	-178482.0	-674.0	-7216.0
24	17	12	3	291	93.0	-177772.0	-706.0	-7306.0
24	17	12	3	291	94.0	-177693.0	-747.0	-6861.0
24	17	12	3	292	95.0	-178505.0	-762.0	-6530.0
24	17	12	3	292	96.0	-179402.0	-780.0	-6849.0
24	17	12	3	417	97.0	-180661.0	-818.0	-7018.0
24	17	12	3	418	98.0	-181391.0	-836.0	-7575.0
24	17	12	3	418	99.0	-181774.0	-856.0	-7982.0
24	17	12	3	420	100.0	-182041.0	-902.0	-7939.0
24	17	12	3	421	101.0	-181725.0	-951.0	-8144.0
24	17	12	3	421	102.0	-181066.0	-991.0	-8212.0
24	17	12	3	422	103.0	-180913.0	-1023.0	-8096.0
24	17	12	3	422	104.0	-181619.0	-1068.0	-7561.0
24	17	12	3	423	105.0	-182459.0	-1107.0	-6993.0
24	17	12	3	424	106.0	-183815.0	-1142.0	-6927.0
24	17	12	3	424	107.0	-185799.0	-1183.0	-7000.0
24	17	12	3	425	108.0	-187992.0	-1223.0	-7261.0
24	17	12	3	425	109.0	-190031.0	-1266.0	-6912.0
24	17	12	3	426	110.0	-192044.0	-1308.0	-7003.0
24	17	12	3	426	111.0	-194376.0	-1352.0	-7019.0
24	17	12	3	427	158.0	-227339.0	-3204.0	-21308.0
24	17	12	3	428	159.0	-232143.0	-3227.0	-25990.0
24	17	12	3	428	160.0	-236369.0	-3234.0	-32473.0
24	17	12	3	429	161.0	-239466.0	-3262.0	-39753.0
24	17	12	3	429	162.0	-241037.0	-3294.0	-47361.0
24	17	12	3	430	163.0	-240498.0	-3306.0	-54351.0
24	17	12	3	476	164.0	-238083.0	-3316.0	-60007.0
24	17	12	3	494	165.0	-234081.0	-3349.0	-63677.0
24	17	12	3	495	166.0	-228752.0	-3382.0	-66314.0
24	17	12	3	495	167.0	-222319.0	-3437.0	-65237.0
24	17	12	3	496	168.0	-214762.0	-3485.0	-59201.0
24	17	12	3	497	169.0	-205791.0	-3506.0	-51291.0
24	17	12	3	497	170.0	-196583.0	-3526.0	-42410.0
24	17	12	3	498	171.0	-187556.0	-3574.0	-30555.0
24	17	12	3	498	172.0	-178809.0	-3594.0	-17847.0
24	17	12	3	499	173.0	-171229.0	-3631.0	-12386.0
24	17	12	3	500	174.0	-165287.0	-3679.0	-9217.0
24	17	12	3	500	175.0	-160989.0	-3692.0	-7684.0
24	17	12	3	501	176.0	-157982.0	-3737.0	-7881.0
24	17	12	3	501	177.0	-156301.0	-3769.0	-8066.0
24	17	12	3	502	178.0	-155940.0	-3780.0	-7745.0
24	17	12	3	503	188.0	-101395.0	-4081.0	-4622.0
24	17	12	3	503	195.0	-263060.0	-4247.0	-2319.0
24	17	12	3	504	196.0	-266277.0	-4281.0	-2697.0
24	17	12	3	504	197.0	-263389.0	-4284.0	-2634.0
24	17	12	3	505	198.0	-258784.0	-4304.0	-2622.0
24	17	12	3	506	199.0	-256716.0	-4326.0	-2887.0
24	17	12	3	506	200.0	-258596.0	-4329.0	-3187.0
24	17	12	3	507	201.0	-262001.0	-4327.0	-3354.0
24	17	12	3	507	202.0	-263794.0	-4346.0	-3468.0
24	17	12	3	520	203.0	-262533.0	-4382.0	-3450.0
24	17	12	3	520	204.0	-259822.0	-4386.0	-2869.0
24	17	12	3	521	205.0	-259418.0	-4406.0	-3046.0
24	17	12	3	522	206.0	-263973.0	-4424.0	-2971.0
24	17	12	3	522	207.0	-269740.0	-4442.0	-2906.0
24	17	12	3	523	208.0	-271084.0	-4472.0	-3679.0
24	17	12	3	524	209.0	-265071.0	-4486.0	-3338.0
24	17	12	3	524	210.0	-252211.0	-4506.0	-2486.0
24	17	12	3	525	211.0	-235054.0	-4534.0	-2762.0
24	17	12	3	526	212.0	-217054.0	-4529.0	-3051.0
24	17	12	3	565	213.0	-200836.0	-4540.0	-2732.0
24	17	12	3	566	214.0	-187041.0	-4567.0	-2669.0
24	17	12	3	566	215.0	-175575.0	-4568.0	-3202.0
24	17	12	3	567	216.0	-166050.0	-4576.0	-3153.0
24	17	12	3	580	217.0	-158062.0	-4602.0	-3154.0
24	17	12	3	581	218.0	-151426.0	-4640.0	-3562.0
24	17	12	3	582	219.0	-145868.0	-4673.0	-3299.0
24	17	12	3	582	220.0	-141402.0	-4698.0	-3056.0
24	17	12	3	583	221.0	-137315.0	-4700.0	-3350.0
24	17	12	3	584	222.0	-133380.0	-4732.0	-3658.0
24	17	12	3	584	223.0	-129499.0	-4766.0	-3286.0
24	17	12	3	585	224.0	-126230.0	-4789.0	-2689.0
24	17	12	3	586	225.0	-123456.0	-4827.0	-2827.0
24	17	12	3	586	226.0	-120857.0	-4830.0	-2835.0
24	17	12	3	587	227.0	-119266.0	-4854.0	-2824.0
24	17	12	3	587	232.0	-134947.0	-4996.0	-3875.0
24	17	12	3	588	233.0	-143443.0	-5011.0	-4011.0
24	17	12	3	589	234.0	-153644.0	-5036.0	-3706.0
24	17	12	3	589	235.0	-164940.0	-5030.0	-3654.0
24	17	12	3	590	236.0	-176816.0	-5078.0	-3845.0
24	17	12	3	591	240.0	-217186.0	-5192.0	-4172.0
24	17	12	3	591	241.0	-225197.0	-5201.0	-4402.0
24	17	12	3	592	242.0	-232163.0	-5205.0	-3960.0
24	17	12	3	600	243.0	-238006.0	-5249.0	-3741.0
24	17	12	3	601	244.0	-243064.0	-5282.0	-3705.0
24	17	12	3	601	245.0	-246829.0	-5294.0	-3987.0
24	17	12	3	602	246.0	-249040.0	-5321.0	-3847.0
24	17	12	3	603	247.0	-249797.0	-5357.0	-3541.0
24	17	12	3	603	248.0	-249531.0	-5383.0	-3685.0
24	17	12	3	623	249.0	-248272.0	-5388.0	-3949.0
24	17	12	3	624	250.0	-246555.0	-5414.0	-4540.0
24	17	12	3	625	251.0	-244805.0	-5450.0	-4987.0
24	17	12	3	626	252.0	-243051.0	-5484.0	-4956.0
24	17	12	3	626	253.0	-241518.0	-5502.0	-4764.0
24	17	12	3	627	254.0	-240765.0	-5506.0	-4837.0
24	17	12	3	627	255.0	-240682.0	-5520.0	-5205.0
24	17	12	3	628	0.0	-241277.0	-5554.0	-5195.0
24	17	12	3	648	1.0	-242619.0	-5534.0	-5102.0
24	17	12	3	649	2.0	-244599.0	-5532.0	-5454.0
24	17	12	3	649	3.0	-246969.0	-5529.0	-5676.0
24	17	12	3	650	4.0	-250099.0	-5509.0	-5682.0
24	17	12	3	651	5.0	-254472.0	-5505.0	-5840.0
24	17	12	3	652	6.0	-260754.0	-5483.0	-6070.0
24	17	12	3	653	7.0	-265977.0	-5475.0	-6246.0
24	17	12	3	653	8.0	-270972.0	-5440.0	-6619.0
24	17	12	3	654	9.0	-277990.0	-5409.0	-6793.0
24	17	12	3	654	10.0	-284508.0	-5351.0	-7331.0
24	17	12	3	655	11.0	-289543.0	-5299.0	-7408.0
24	17	12	3	655	12.0	-292346.0	-5250.0	-7303.0
24	17	12	3	656	13.0	-293546.0	-5182.0	-7426.0
24	17	12	3	657	14.0	-293662.0	-5112.0	-7524.0
24	17	12	3	657	15.0	-292457.0	-5021.0	-6931.0
24	17	12	3	658	16.0	-288992.0	-4911.0	-6605.0
24	17	12	3	658	17.0	-283071.0	-4816.0	-7088.0
24	17	12	3	659	18.0	-276419.0	-4727.0	-7247.0
24	17	12	3	659	19.0	-269451.0	-4629.0	-7046.0
24	17	12	3	671	20.0	-260977.0	-4532.0	-6785.0
24	17	12	3	671	21.0	-251701.0	-4424.0	-7150.0
24	17	12	3	672	22.0	-242837.0	-4311.0	-6834.0
24	17	12	3	673	23.0	-234388.0	-4193.0	-6750.0
24	17	12	3	674	24.0	-226079.0	-4084.0	-7084.0
24	17	12	3	674	25.0	-218170.0	-3944.0	-7164.0
24	17	12	3	675	26.0	-210657.0	-3831.0	-6910.0
24	17	12	3	676	27.0	-203906.0	-3703.0	-6585.0
24	17	12	3	677	28.0	-197894.0	-3560.0	-6221.0
24	17	12	3	677	29.0	-192406.0	-3433.0	-5947.0
24	17	12	3	696	30.0	-187326.0	-3286.0	-5734.0
24	17	12	3	697	31.0	-182123.0	-3142.0	-5594.0
24	17	12	3	697	32.0	-177196.0	-2989.0	-5204.0
24	17	12	3	698	33.0	-172196.0	-2843.0	-4745.0
24	17	12	3	699	34.0	-167701.0	-2699.0	-4765.0
24	17	12	3	699	35.0	-163502.0	-2561.0	-4532.0
24	17	12	3	700	36.0	-158967.0	-2436.0	-3698.0
24	17	12	3	701	37.0	-154504.0	-2302.0	-3038.0
24	17	12	3	702	38.0	-150840.0	-2146.0	-2816.0
24	17	12	3	702	39.0	-148229.0	-1997.0	-2452.0
24	17	12	3	703	40.0	-146641.0	-1862.0	-2107.0
24	17	12	3	704	41.0	-146045.0	-1738.0	-1921.0
24	17	12	3	704	42.0	-145972.0	-1600.0	-1299.0
24	17	12	3	705	43.0	-146501.0	-1479.0	-1415.0
24	17	12	3	705	44.0	-147482.0	-1360.0	-1371.0
24	17	12	3	706	45.0	-148937.0	-1261.0	-943.0
24	17	12	3	719	46.0	-150489.0	-1108.0	-371.0
24	17	12	3	719	47.0	-152404.0	-971.0	-1.0
24	17	12	3	720	48.0	-155087.0	-833.0	-6.0
24	17	12	3	721	49.0	-157879.0	-719.0	136.0
24	17	12	3	722	50.0	-160689.0	-604.0	28.0
24	17	12	3	722	51.0	-163955.0	-500.0	490.0
24	17	12	3	723	52.0	-167299.0	-399.0	903.0
24	17	12	3	741	53.0	-170700.0	-284.0	482.0
24	17	12	3	742	54.0	-173400.0	-177.0	137.0
24	17	12	3	743	55.0	-175474.0	-55.0	516.0
24	17	12	3	743	56.0	-177776.0	37.0	633.0
24	17	12	3	744	57.0	-180529.0	126.0	820.0
24	17	12	3	745	58.0	-182840.0	220.0	1060.0
24	17	12	3	746	59.0	-184658.0	296.0	1096.0
24	17	12	3	746	60.0	-185079.0	375.0	368.0
24	17	12	3	747	61.0	-182155.0	462.0	950.0
24	17	12	3	747	62.0	-174323.0	560.0	1273.0
24	17	12	3	748	63.0	-165072.0	612.0	959.0
24	17	12	3	749	64.0	-162576.0	679.0	920.0
24	17	12	3	749	65.0	-165199.0	769.0	1191.0
24	17	12	3	750	66.0	-174086.0	833.0	1186.0
24	17	12	3	751	67.0	-185362.0	883.0	963.0
24	17	12	3	764	68.0	-193036.0	942.0	1122.0
24	17	12	3	789	69.0	-197387.0	1004.0	1078.0
24	17	12	3	789	70.0	-199501.0	1063.0	1006.0
24	17	12	3	790	71.0	-201434.0	1106.0	1226.0
24	17	12	3	811	72.0	-204332.0	1140.0	921.0
24	17	12	3	812	73.0	-206354.0	1189.0	616.0
24	17	12	3	812	74.0	-206546.0	1230.0	1063.0
24	17	12	3	813	75.0	-203687.0	1249.0	1578.0
24	17	12	3	813	76.0	-197990.0	1281.0	1433.0
24	17	12	3	814	77.0	-191136.0	1323.0	1308.0
24	17	12	3	814	78.0	-184996.0	1347.0	1434.0
24	17	12	3	815	79.0	-182088.0	1358.0	1384.0
24	17	12	3	815	80.0	-183478.0	1373.0	1297.0
24	17	12	3	816	81.0	-187852.0	1401.0	958.0
24	17	12	3	816	82.0	-193631.0	1394.0	626.0
24	17	12	3	817	83.0	-200792.0	1429.0	484.0
24	17	12	3	817	84.0	-208545.0	1431.0	643.0
24	17	12	3	818	89.0	-221521.0	1481.0	1408.0
24	17	12	3	818	90.0	-216359.0	1474.0	1218.0
24	17	12	3	819	91.0	-209428.0	1493.0	1220.0
24	17	12	3	820	92.0	-202252.0	1506.0	955.0
24	17	12	3	820	93.0	-196174.0	1531.0	1090.0
24	17	12	3	821	94.0	-192045.0	1527.0	1467.0
24	17	12	3	821	95.0	-189706.0	1545.0	1137.0
24	17	12	3	822	96.0	-189086.0	1534.0	1091.0
24	17	12	3	822	97.0	-189380.0	1533.0	1495.0
24	17	12	3	823	98.0	-189402.0	1556.0	1650.0
24	17	12	3	823	99.0	-188970.0	1564.0	1328.0
24	17	12	3	824	100.0	-188304.0	1530.0	1414.0
24	17	12	3	825	101.0	-187198.0	1513.0	1600.0
24	17	12	3	825	102.0	-185558.0	1527.0	1481.0
24	17	12	3	826	103.0	-183994.0	1508.0	1115.0
24	17	12	3	826	104.0	-182826.0	1481.0	1196.0
24	17	12	3	827	105.0	-181977.0	1471.0	1100.0
24	17	12	3	834	106.0	-181507.0	1468.0	961.0
24	17	12	3	835	107.0	-180860.0	1463.0	883.0
24	17	12	3	836	108.0	-179803.0	1448.0	1431.0
24	17	12	3	836	109.0	-178586.0	1439.0	1269.0
24	17	12	3	837	110.0	-177705.0	1437.0	1334.0
24	17	12	3	837	111.0	-176752.0	1417.0	1166.0
24	17	12	3	838	112.0	-175864.0	1406.0	1497.0
24	17	12	3	857	113.0	-175571.0	1411.0	1523.0
24	17	12	3	858	114.0	-175911.0	1401.0	1207.0
24	17	12	3	858	115.0	-176908.0	1397.0	1436.0
24	17	12	3	859	116.0	-178507.0	1360.0	1794.0
24	17	12	3	859	117.0	-180656.0	1344.0	1751.0
24	17	12	3	860	118.0	-183469.0	1309.0	1634.0
24	17	12	3	861	119.0	-186496.0	1283.0	1783.0
24	17	12	3	881	120.0	-189241.0	1260.0	1748.0
24	17	12	3	881	121.0	-191656.0	1270.0	1283.0
24	17	12	3	882	122.0	-194626.0	1269.0	1472.0
24	17	12	3	882	123.0	-198624.0	1242.0	1735.0
24	17	12	3	883	124.0	-202687.0	1237.0	1783.0
24	17	12	3	883	125.0	-206209.0	1209.0	1707.0
24	17	12	3	884	126.0	-209752.0	1193.0	1674.0
24	17	12	3	884	127.0	-213226.0	1163.0	2038.0
24	17	12	3	885	128.0	-217839.0	1143.0	1801.0
24	17	12	3	886	129.0	-223160.0	1127.0	2374.0
24	17	12	3	903	130.0	-228190.0	1093.0	2746.0
24	17	12	3	904	131.0	-232327.0	1074.0	2406.0
24	17	12	3	904	132.0	-235535.0	1066.0	2425.0
24	17	12	3	905	133.0	-237811.0	1026.0	2958.0
24	17	12	3	905	134.0	-239286.0	1014.0	2954.0
24	17	12	3	906	135.0	-240025.0	1013.0	2732.0
24	17	12	3	927	136.0	-240180.0	993.0	3111.0
24	17	12	3	928	137.0	-239447.0	990.0	3116.0
24	17	12	3	928	138.0	-238076.0	990.0	3193.0
24	17	12	3	929	139.0	-236050.0	971.0	3692.0
24	17	12	3	929	140.0	-233556.0	938.0	3925.0
24	17	12	3	930	141.0	-230346.0	931.0	3796.0
24	17	12	3	930	142.0	-226874.0	903.0	3383.0
24	17	12	3	931	143.0	-224124.0	899.0	3116.0
24	17	12	3	931	144.0	-221981.0	882.0	3095.0
24	17	12	3	932	145.0	-220661.0	865.0	3123.0
24	17	12	3	933	146.0	-219344.0	854.0	3454.0
24	17	12	3	933	147.0	-218172.0	841.0	3618.0
24	17	12	3	934	148.0	-216721.0	833.0	3514.0
24	17	12	3	934	149.0	-215300.0	810.0	3314.0
24	17	12	3	935	150.0	-213018.0	778.0	3568.0
24	17	12	3	935	151.0	-209634.0	771.0	3500.0
24	17	12	3	936	152.0	-205867.0	784.0	3461.0
24	17	12	3	936	153.0	-201479.0	782.0	3596.0
24	17	12	3	937	154.0	-197269.0	770.0	3613.0
24	17	12	3	937	155.0	-193386.0	771.0	4122.0
24	17	12	3	950	156.0	-190485.0	753.0	4067.0
24	17	12	3	950	157.0	-187924.0	727.0	3859.0
24	17	12	3	951	158.0	-185626.0	740.0	4039.0
24	17	12	3	951	159.0	-183256.0	716.0	4168.0
24	17	12	3	952	160.0	-180328.0	696.0	3626.0
24	17	12	3	953	161.0	-177739.0	684.0	3610.0
24	17	12	3	953	162.0	-175876.0	662.0	3953.0
24	17	12	3	954	163.0	-174494.0	657.0	3178.0
24	17	12	3	954	164.0	-173406.0	633.0	2863.0
24	17	12	3	955	165.0	-173062.0	606.0	3368.0
24	17	12	3	955	166.0	-173540.0	622.0	4090.0
24	17	12	3	956	167.0	-174474.0	626.0	4083.0
24	17	12	3	956	168.0	-175542.0	606.0	4057.0
24	17	12	3	957	169.0	-176916.0	576.0	4188.0
24	17	12	3	958	170.0	-178669.0	595.0	4163.0
24	17	12	3	958	171.0	-181028.0	573.0	3750.0
24	17	12	3	976	172.0	-184027.0	561.0	3910.0
24	17	12	3	977	173.0	-187176.0	562.0	3534.0
24	17	12	3	978	174.0	-190551.0	554.0	3524.0
24	17	12	3	978	175.0	-194310.0	532.0	3772.0
24	17	12	3	979	176.0	-198244.0	536.0	3839.0
24	17	12	3	979	177.0	-202138.0	537.0	4013.0
24	17	12	3	980	178.0	-205994.0	539.0	3736.0
24	17	12	3	980	179.0	-210044.0	502.0	4199.0
24	17	12	3	981	180.0	-214789.0	488.0	3894.0
24	17	12	3	999	181.0	-219456.0	492.0	3882.0
24	17	12	4	22	182.0	-223962.0	504.0	4296.0
24	17	12	4	23	183.0	-227912.0	493.0	4052.0
24	17	12	4	23	184.0	-231324.0	473.0	3920.0
24	17	12	4	24	185.0	-234748.0	456.0	4106.0
24	17	12	4	24	186.0	-237276.0	451.0	3887.0
24	17	12	4	25	187.0	-238553.0	423.0	4071.0
24	17	12	4	26	188.0	-239041.0	419.0	4468.0
24	17	12	4	26	189.0	-239202.0	397.0	4350.0
24	17	12	4	27	190.0	-238419.0	378.0	4366.0
24	17	12	4	27	191.0	-236204.0	364.0	4593.0
24	17	12	4	28	192.0	-233336.0	338.0	4307.0
24	17	12	4	28	193.0	-230172.0	317.0	3701.0
24	17	12	4	29	194.0	-226659.0	305.0	3783.0
24	17	12	4	30	195.0	-222071.0	293.0	3479.0
24	17	12	4	30	196.0	-217034.0	266.0	3197.0
24	17	12	4	31	197.0	-212064.0	256.0	3151.0
24	17	12	4	31	201.0	-193769.0	122.0	3117.0
24	17	12	4	32	202.0	-190506.0	94.0	2877.0
24	17	12	4	32	203.0	-187546.0	84.0	2118.0
24	17	12	4	33	204.0	-185130.0	61.0	2053.0
24	17	12	4	33	205.0	-183167.0	41.0	2347.0
24	17	12	4	34	206.0	-180914.0	15.0	2280.0
24	17	12	4	35	207.0	-178592.0	-20.0	2190.0
24	17	12	4	35	208.0	-176521.0	-43.0	2433.0
24	17	12	4	36	209.0	-174841.0	-99.0	2228.0
24	17	12	4	45	210.0	-173404.0	-111.0	2371.0
24	17	12	4	45	211.0	-172641.0	-121.0	2552.0
24	17	12	4	46	212.0	-172970.0	-156.0	2605.0
24	17	12	4	46	213.0	-173591.0	-192.0	2305.0
24	17	12	4	47	214.0	-174887.0	-225.0	2476.0
24	17	12	4	47	215.0	-176487.0	-267.0	2893.0
24	17	12	4	48	216.0	-178392.0	-295.0	2943.0
24	17	12	4	49	217.0	-180573.0	-345.0	2988.0
24	17	12	4	67	218.0	-183421.0	-369.0	2872.0
24	17	12	4	68	219.0	-186756.0	-369.0	2749.0
24	17	12	4	68	220.0	-190292.0	-416.0	2821.0
24	17	12	4	69	221.0	-194446.0	-466.0	2844.0
24	17	12	4	69	222.0	-198827.0	-504.0	2818.0
24	17	12	4	70	223.0	-203549.0	-546.0	2983.0
24	17	12	4	71	224.0	-208218.0	-589.0	3200.0
24	17	12	4	93	225.0	-212778.0	-616.0	3159.0
24	17	12	4	93	226.0	-216925.0	-641.0	3045.0
24	17	12	4	94	227.0	-220932.0	-671.0	3281.0
24	17	12	4	94	228.0	-224653.0	-717.0	3275.0
24	17	12	4	95	229.0	-227529.0	-750.0	3137.0
24	17	12	4	96	230.0	-229564.0	-807.0	2931.0
24	17	12	4	96	231.0	-230850.0	-844.0	3033.0
24	17	12	4	97	232.0	-231476.0	-874.0	2706.0
24	17	12	4	97	233.0	-231250.0	-903.0	3149.0
24	17	12	4	116	234.0	-230002.0	-949.0	3219.0
24	17	12	4	138	235.0	-228251.0	-977.0	2900.0
24	17	12	4	139	236.0	-226166.0	-1026.0	3078.0
24	17	12	4	140	237.0	-223902.0	-1068.0	3084.0
24	17	12	4	140	238.0	-221636.0	-1117.0	2946.0
24	17	12	4	141	239.0	-218840.0	-1181.0	2980.0
24	17	12	4	141	240.0	-215346.0	-1209.0	2924.0
24	17	12	4	142	241.0	-211409.0	-1255.0	2456.0
24	17	12	4	142	242.0	-207950.0	-1282.0	2314.0
24	17	12	4	143	243.0	-204865.0	-1331.0	2801.0
24	17	12	4	144	244.0	-201753.0	-1383.0	3373.0
24	17	12	4	144	245.0	-198987.0	-1427.0	3326.0
24	17	12	4	145	246.0	-196988.0	-1469.0	3848.0
24	17	12	4	145	247.0	-195750.0	-1517.0	4368.0
24	17	12	4	146	248.0	-195169.0	-1554.0	4249.0
24	17	12	4	146	249.0	-194849.0	-1599.0	3896.0
24	17	12	4	147	250.0	-194601.0	-1651.0	3826.0
24	17	12	4	147	254.0	-193611.0	-1813.0	4073.0
24	17	12	4	148	255.0	-194480.0	-1842.0	4213.0
24	17	12	4	148	0.0	-196337.0	-1856.0	4205.0
24	17	12	4	149	1.0	-199341.0	-1878.0	4277.0
24	17	12	4	150	2.0	-202831.0	-1916.0	4061.0
24	17	12	4	150	3.0	-205958.0	-1937.0	4283.0
24	17	12	4	151	4.0	-208619.0	-1967.0	4423.0
24	17	12	4	151	5.0	-210566.0	-2006.0	4228.0
24	17	12	4	152	6.0	-212027.0	-2049.0	4216.0
24	17	12	4	153	7.0	-213979.0	-2072.0	4204.0
24	17	12	4	153	8.0	-215466.0	-2097.0	4056.0
24	17	12	4	154	9.0	-216739.0	-2149.0	4334.0
24	17	12	4	154	10.0	-218463.0	-2175.0	4586.0
24	17	12	4	155	11.0	-219819.0	-2228.0	4423.0
24	17	12	4	156	12.0	-220659.0	-2263.0	4528.0
24	17	12	4	156	13.0	-221054.0	-2307.0	4739.0
24	17	12	4	164	14.0	-221702.0	-2321.0	4681.0
24	17	12	4	165	15.0	-223011.0	-2332.0	4376.0
24	17	12	4	165	16.0	-224267.0	-2369.0	4435.0
24	17	12	4	166	17.0	-225296.0	-2419.0	4260.0
24	17	12	4	166	18.0	-226537.0	-2436.0	4164.0
24	17	12	4	167	19.0	-228039.0	-2456.0	3918.0
24	17	12	4	168	20.0	-230334.0	-2504.0	4251.0
24	17	12	4	168	21.0	-232573.0	-2561.0	4485.0
24	17	12	4	187	22.0	-233962.0	-2579.0	4503.0
24	17	12	4	188	23.0	-234444.0	-2598.0	4658.0
24	17	12	4	188	24.0	-233561.0	-2642.0	4836.0
24	17	12	4	189	25.0	-231592.0	-2681.0	5208.0
24	17	12	4	189	26.0	-228905.0	-2699.0	5276.0
24	17	12	4	190	27.0	-225970.0	-2717.0	5788.0
24	17	12	4	191	28.0	-223184.0	-2762.0	6611.0
24	17	12	4	210	29.0	-220717.0	-2786.0	7953.0
24	17	12	4	211	30.0	-217558.0	-2806.0	9217.0
24	17	12	4	211	31.0	-213895.0	-2847.0	9449.0
24	17	12	4	212	32.0	-210396.0	-2881.0	9233.0
24	17	12	4	213	33.0	-206742.0	-2929.0	7288.0
24	17	12	4	213	34.0	-203651.0	-2940.0	3364.0
24	17	12	4	214	35.0	-200564.0	-2947.0	-1785.0
24	17	12	4	214	36.0	-197543.0	-2969.0	-8482.0
24	17	12	4	233	37.0	-194729.0	-2998.0	-15243.0
24	17	12	4	234	38.0	-192029.0	-3015.0	-20691.0
24	17	12	4	234	39.0	-188992.0	-3042.0	-26526.0
24	17	12	4	235	40.0	-185436.0	-3091.0	-34082.0
24	17	12	4	235	41.0	-181102.0	-3124.0	-42142.0
24	17	12	4	236	42.0	-176210.0	-3146.0	-49193.0
24	17	12	4	236	43.0	-171777.0	-3152.0	-54747.0
24	17	12	4	237	44.0	-168149.0	-3185.0	-59210.0
24	17	12	4	237	45.0	-164669.0	-3216.0	-61592.0
24	17	12	4	238	46.0	-161009.0	-3246.0	-60095.0
24	17	12	4	239	47.0	-156322.0	-3276.0	-53989.0
24	17	12	4	239	48.0	-152599.0	-3308.0	-45857.0
24	17	12	4	240	49.0	-150001.0	-3341.0	-35906.0
24	17	12	4	240	50.0	-148441.0	-3377.0	-23109.0
24	17	12	4	241	51.0	-147766.0	-3384.0	-10894.0
24	17	12	4	241	52.0	-147797.0	-3399.0	-5531.0
24	17	12	4	242	53.0	-150141.0	-3427.0	-2134.0
24	17	12	4	243	54.0	-154980.0	-3429.0	-604.0
24	17	12	4	243	55.0	-161296.0	-3439.0	-117.0
24	17	12	4	244	56.0	-168207.0	-3461.0	-259.0
24	17	12	4	255	57.0	-175533.0	-3471.0	-441.0
24	17	12	4	256	58.0	-183702.0	-3520.0	43.0
24	17	12	4	257	59.0	-192196.0	-3562.0	436.0
24	17	12	4	257	60.0	-196538.0	-3582.0	629.0
24	17	12	4	258	61.0	-190696.0	-3604.0	597.0
24	17	12	4	259	62.0	-177512.0	-3640.0	926.0
24	17	12	4	259	63.0	-159789.0	-3681.0	1143.0
24	17	12	4	260	64.0	-146742.0	-3672.0	1163.0
24	17	12	4	260	65.0	-145877.0	-3706.0	1713.0
24	17	12	4	261	66.0	-157213.0	-3726.0	2596.0
24	17	12	4	279	67.0	-177336.0	-3742.0	3316.0
24	17	12	4	302	68.0	-202928.0	-3751.0	3251.0
24	17	12	4	302	69.0	-232048.0	-3786.0	3186.0
24	17	12	4	303	70.0	-262202.0	-3832.0	3353.0
24	17	12	4	303	71.0	-288794.0	-3849.0	3874.0
24	17	12	4	304	72.0	-309023.0	-3859.0	4235.0
24	17	12	4	304	73.0	-322174.0	-3887.0	4311.0
24	17	12	4	305	74.0	-327489.0	-3907.0	4515.0
24	17	12	4	306	75.0	-323998.0	-3905.0	4008.0
24	17	12	4	306	76.0	-313637.0	-3936.0	3491.0
24	17	12	4	307	77.0	-301547.0	-3960.0	3904.0
24	17	12	4	307	78.0	-292082.0	-3983.0	4341.0
24	17	12	4	308	79.0	-286358.0	-4010.0	4589.0
24	17	12	4	308	80.0	-282616.0	-4021.0	4975.0
24	17	12	4	309	81.0	-277693.0	-4031.0	4985.0
24	17	12	4	309	82.0	-269821.0	-4042.0	4894.0
24	17	12	4	310	83.0	-260296.0	-4061.0	4604.0
24	17	12	4	311	84.0	-253062.0	-4087.0	4639.0
24	17	12	4	311	85.0	-250638.0	-4096.0	4554.0
24	17	12	4	312	86.0	-250557.0	-4109.0	4610.0
24	17	12	4	312	87.0	-247516.0	-4143.0	4735.0
24	17	12	4	325	88.0	-237864.0	-4169.0	5319.0
24	17	12	4	325	89.0	-220379.0	-4180.0	5576.0
24	17	12	4	326	90.0	-197803.0	-4218.0	5084.0
24	17	12	4	327	91.0	-175005.0	-4243.0	5036.0
24	17	12	4	327	92.0	-155836.0	-4257.0	5278.0
24	17	12	4	328	93.0	-140449.0	-4284.0	4937.0
24	17	12	4	328	94.0	-128516.0	-4294.0	4649.0
24	17	12	4	329	95.0	-120297.0	-4311.0	4760.0
24	17	12	4	347	96.0	-114992.0	-4331.0	4599.0
24	17	12	4	348	97.0	-111374.0	-4336.0	4438.0
24	17	12	4	348	98.0	-109061.0	-4354.0	4740.0
24	17	12	4	349	99.0	-108144.0	-4377.0	4449.0
24	17	12	4	350	100.0	-107489.0	-4410.0	4146.0
24	17	12	4	350	101.0	-107262.0	-4454.0	4004.0
24	17	12	4	351	102.0	-107764.0	-4497.0	3842.0
24	17	12	4	352	103.0	-109512.0	-4518.0	4084.0
24	17	12	4	352	104.0	-112442.0	-4515.0	4523.0
24	17	12	4	353	105.0	-116008.0	-4544.0	4465.0
24	17	12	4	353	106.0	-121146.0	-4573.0	3931.0
24	17	12	4	354	107.0	-126590.0	-4599.0	3869.0
24	17	12	4	355	108.0	-132324.0	-4612.0	4114.0
24	17	12	4	355	109.0	-139249.0	-4630.0	4258.0
24	17	12	4	356	110.0	-147676.0	-4654.0	4576.0
24	17	12	4	356	111.0	-157369.0	-4676.0	4611.0
24	17	12	4	357	112.0	-167076.0	-4693.0	4161.0
24	17	12	4	357	113.0	-177321.0	-4711.0	4113.0
24	17	12	4	358	114.0	-188112.0	-4719.0	4533.0
24	17	12	4	359	115.0	-199509.0	-4745.0	4292.0
24	17	12	4	359	116.0	-211233.0	-4765.0	3876.0
24	17	12	4	375	117.0	-223096.0	-4794.0	4257.0
24	17	12	4	376	118.0	-234964.0	-4832.0	4164.0
24	17	12	4	376	119.0	-246174.0	-4851.0	3858.0
24	17	12	4	377	120.0	-255946.0	-4872.0	4489.0
24	17	12	4	378	121.0	-264744.0	-4912.0	4126.0
24	17	12	4	378	122.0	-272621.0	-4934.0	3536.0
24	17	12	4	379	123.0	-278551.0	-4964.0	3696.0
24	17	12	4	379	124.0	-282059.0	-5004.0	3706.0
24	17	12	4	380	125.0	-283544.0	-5024.0	3846.0
24	17	12	4	381	126.0	-283839.0	-5038.0	3429.0
24	17	12	4	392	127.0	-282934.0	-5062.0	3419.0
24	17	12	4	393	128.0	-281507.0	-5082.0	3714.0
24	17	12	4	393	129.0	-280314.0	-5094.0	3766.0
24	17	12	4	415	130.0	-278998.0	-5126.0	4035.0
24	17	12	4	416	131.0	-277629.0	-5155.0	3978.0
24	17	12	4	416	132.0	-276366.0	-5187.0	3468.0
24	17	12	4	417	133.0	-274396.0	-5211.0	2621.0
24	17	12	4	417	134.0	-271906.0	-5228.0	2454.0
24	17	12	4	418	135.0	-268799.0	-5222.0	2463.0
24	17	12	4	419	136.0	-264915.0	-5227.0	2251.0
24	17	12	4	419	137.0	-260545.0	-5242.0	2153.0
24	17	12	4	420	138.0	-255174.0	-5262.0	2143.0
24	17	12	4	420	139.0	-248771.0	-5252.0	2211.0
24	17	12	4	421	140.0	-242141.0	-5232.0	2458.0
24	17	12	4	422	141.0	-235984.0	-5195.0	2424.0
24	17	12	4	422	142.0	-229865.0	-5157.0	2548.0
24	17	12	4	423	143.0	-223104.0	-5122.0	2679.0
24	17	12	4	423	144.0	-216458.0	-5063.0	2176.0
24	17	12	4	424	145.0	-210270.0	-5013.0	1716.0
24	17	12	4	424	146.0	-203544.0	-4969.0	1582.0
24	17	12	4	425	147.0	-196867.0	-4932.0	1824.0
24	17	12	4	439	148.0	-190988.0	-4874.0	1784.0
24	17	12	4	462	149.0	-186479.0	-4774.0	2208.0
24	17	12	4	463	150.0	-182441.0	-4677.0	2312.0
24	17	12	4	463	151.0	-178396.0	-4616.0	1760.0
24	17	12	4	464	152.0	-174621.0	-4546.0	2086.0
24	17	12	4	465	153.0	-172244.0	-4445.0	2348.0
24	17	12	4	465	154.0	-170931.0	-4356.0	2274.0
24	17	12	4	466	155.0	-170161.0	-4268.0	1701.0
24	17	12	4	466	156.0	-169683.0	-4152.0	1795.0
24	17	12	4	467	157.0	-169978.0	-4060.0	2071.0
24	17	12	4	467	158.0	-170131.0	-3954.0	1643.0
24	17	12	4	468	159.0	-170627.0	-3837.0	1884.0
24	17	12	4	469	160.0	-171947.0	-3708.0	3220.0
24	17	12	4	469	161.0	-173657.0	-3577.0	3191.0
24	17	12	4	470	162.0	-175374.0	-3445.0	3330.0
24	17	12	4	470	163.0	-178222.0	-3294.0	3919.0
24	17	12	4	471	164.0	-181824.0	-3133.0	3893.0
24	17	12	4	471	165.0	-185105.0	-3001.0	4041.0
24	17	12	4	472	166.0	-188154.0	-2856.0	4389.0
24	17	12	4	473	167.0	-191207.0	-2717.0	4829.0
24	17	12	4	473	168.0	-193793.0	-2566.0	5356.0
24	17	12	4	474	169.0	-195897.0	-2401.0	5702.0
24	17	12	4	488	170.0	-197394.0	-2263.0	5876.0
24	17	12	4	491	171.0	-198664.0	-2108.0	6218.0
24	17	12	4	492	172.0	-200927.0	-1974.0	6355.0
24	17	12	4	492	173.0	-203344.0	-1837.0	6417.0
24	17	12	4	493	174.0	-205474.0	-1717.0	6757.0
24	17	12	4	494	175.0	-206448.0	-1598.0	7231.0
24	17	12	4	496	176.0	-206757.0	-1449.0	7596.0
24	17	12	4	497	177.0	-206626.0	-1325.0	7379.0
24	17	12	4	497	178.0	-205868.0	-1175.0	7894.0
24	17	12	4	498	179.0	-205092.0	-1031.0	8868.0
24	17	12	4	498	180.0	-204225.0	-893.0	9244.0
24	17	12	4	499	181.0	-203442.0	-781.0	9152.0
24	17	12	4	499	182.0	-202444.0	-687.0	9626.0
24	17	12	4	500	183.0	-201419.0	-564.0	9634.0
24	17	12	4	501	184.0	-200347.0	-458.0	9198.0
24	17	12	4	501	185.0	-199930.0	-369.0	9688.0
24	17	12	4	517	186.0	-199616.0	-254.0	10042.0
24	17	12	4	518	187.0	-199795.0	-136.0	10226.0
24	17	12	4	518	188.0	-200360.0	-16.0	10383.0
24	17	12	4	519	189.0	-201646.0	62.0	10638.0
24	17	12	4	519	190.0	-203282.0	141.0	10634.0
24	17	12	4	520	191.0	-205066.0	234.0	10473.0
24	17	12	4	521	192.0	-207943.0	317.0	10761.0
24	17	12	4	521	193.0	-211065.0	374.0	10544.0
24	17	12	4	541	194.0	-213780.0	476.0	10096.0
24	17	12	4	542	195.0	-214396.0	554.0	10085.0
24	17	12	4	543	196.0	-211616.0	631.0	10305.0
24	17	12	4	543	197.0	-207111.0	700.0	10576.0
24	17	12	4	544	198.0	-204241.0	755.0	10866.0
24	17	12	4	544	199.0	-202534.0	818.0	10983.0
24	17	12	4	545	200.0	-207161.0	876.0	10713.0
24	17	12	4	545	201.0	-218755.0	944.0	10828.0
24	17	12	4	546	202.0	-227901.0	998.0	11342.0
24	17	12	4	546	203.0	-232171.0	1052.0	11206.0
24	17	12	4	565	204.0	-234662.0	1098.0	10959.0
24	17	12	4	566	205.0	-235428.0	1121.0	10713.0
24	17	12	4	566	206.0	-236185.0	1146.0	10901.0
24	17	12	4	567	207.0	-237148.0	1181.0	10858.0
24	17	12	4	567	208.0	-236490.0	1218.0	11019.0
24	17	12	4	568	209.0	-233713.0	1268.0	10431.0
24	17	12	4	568	210.0	-227329.0	1308.0	10629.0
24	17	12	4	569	211.0	-219667.0	1325.0	10975.0
24	17	12	4	569	212.0	-213501.0	1338.0	10737.0
24	17	12	4	570	213.0	-209216.0	1378.0	10558.0
24	17	12	4	571	214.0	-207621.0	1398.0	10460.0
24	17	12	4	587	215.0	-208702.0	1421.0	10826.0
24	17	12	4	588	216.0	-211141.0	1443.0	10731.0
24	17	12	4	589	217.0	-213929.0	1446.0	10613.0
24	17	12	4	589	218.0	-217366.0	1459.0	11338.0
24	17	12	4	590	219.0	-220406.0	1472.0	11268.0
24	17	12	4	590	220.0	-222162.0	1488.0	11101.0
24	17	12	4	591	221.0	-222282.0	1494.0	11409.0
24	17	12	4	592	222.0	-221001.0	1481.0	11404.0
24	17	12	4	592	223.0	-217466.0	1490.0	11042.0
24	17	12	4	593	224.0	-211424.0	1510.0	10896.0
24	17	12	4	593	225.0	-203474.0	1507.0	10979.0
24	17	12	4	594	226.0	-194601.0	1498.0	11111.0
24	17	12	4	594	227.0	-186758.0	1496.0	11139.0
24	17	12	4	595	228.0	-180499.0	1491.0	11558.0
24	17	12	4	595	229.0	-176022.0	1493.0	11710.0
24	17	12	4	596	230.0	-174063.0	1481.0	11552.0
24	17	12	4	597	231.0	-174262.0	1474.0	11293.0
24	17	12	4	597	232.0	-174418.0	1479.0	11472.0
24	17	12	4	598	233.0	-174046.0	1473.0	11894.0
24	17	12	4	615	234.0	-173748.0	1462.0	11909.0
24	17	12	4	615	235.0	-173681.0	1453.0	11588.0
24	17	12	4	616	236.0	-173357.0	1469.0	11669.0
24	17	12	4	617	237.0	-172502.0	1452.0	11831.0
24	17	12	4	617	238.0	-171364.0	1431.0	12150.0
24	17	12	4	618	239.0	-170617.0	1416.0	12104.0
24	17	12	4	618	240.0	-170261.0	1375.0	12004.0
24	17	12	4	619	241.0	-170591.0	1350.0	12143.0
24	17	12	4	619	242.0	-171711.0	1332.0	11961.0
24	17	12	4	620	243.0	-174215.0	1315.0	12016.0
24	17	12	4	621	244.0	-177432.0	1297.0	12478.0
24	17	12	4	621	245.0	-181342.0	1282.0	12510.0
24	17	12	4	622	246.0	-185439.0	1276.0	12674.0
24	17	12	4	622	247.0	-189446.0	1271.0	12785.0
24	17	12	4	635	248.0	-192741.0	1242.0	12845.0
24	17	12	4	635	249.0	-195587.0	1233.0	12687.0
24	17	12	4	636	250.0	-199001.0	1218.0	13037.0
24	17	12	4	636	251.0	-202858.0	1188.0	12859.0
24	17	12	4	658	252.0	-206581.0	1164.0	12629.0
24	17	12	4	659	253.0	-210302.0	1179.0	12908.0
24	17	12	4	660	254.0	-214564.0	1153.0	12416.0
24	17	12	4	660	255.0	-219208.0	1136.0	12264.0
24	17	12	4	661	0.0	-224256.0	1106.0	12142.0
24	17	12	4	661	1.0	-229819.0	1068.0	12439.0
24	17	12	4	662	2.0	-235062.0	1051.0	12929.0
24	17	12	4	663	3.0	-239448.0	1049.0	12744.0
24	17	12	4	663	4.0	-243417.0	1011.0	12988.0
24	17	12	4	664	5.0	-246890.0	1000.0	12993.0
24	17	12	4	664	6.0	-249640.0	994.0	12682.0
24	17	12	4	665	7.0	-252489.0	983.0	12688.0
24	17	12	4	665	8.0	-254812.0	975.0	12753.0
24	17	12	4	666	9.0	-256574.0	947.0	12736.0
24	17	12	4	666	10.0	-258231.0	941.0	12701.0
24	17	12	4	667	11.0	-259489.0	894.0	13095.0
24	17	12	4	690	12.0	-260744.0	875.0	13599.0
24	17	12	4	691	13.0	-262031.0	886.0	13344.0
24	17	12	4	691	14.0	-262307.0	886.0	13661.0
24	17	12	4	692	15.0	-261688.0	859.0	13799.0
24	17	12	4	692	16.0	-260623.0	825.0	13525.0
24	17	12	4	693	17.0	-258841.0	811.0	13138.0
24	17	12	4	694	18.0	-256151.0	781.0	12808.0
24	17	12	4	694	19.0	-252379.0	770.0	12752.0
24	17	12	4	695	20.0	-248749.0	768.0	12801.0
24	17	12	4	696	21.0	-244766.0	742.0	13184.0
24	17	12	4	696	22.0	-240475.0	744.0	13010.0
24	17	12	4	697	23.0	-236115.0	733.0	13164.0
24	17	12	4	698	24.0	-231829.0	705.0	12966.0
24	17	12	4	699	25.0	-227947.0	664.0	12748.0
24	17	12	4	699	26.0	-224727.0	654.0	13133.0
24	17	12	4	700	27.0	-221457.0	659.0	13644.0
24	17	12	4	700	28.0	-218237.0	666.0	13258.0
24	17	12	4	701	29.0	-214716.0	663.0	13013.0
24	17	12	4	702	30.0	-210774.0	671.0	13499.0
24	17	12	4	709	31.0	-206442.0	655.0	14038.0
24	17	12	4	710	32.0	-201910.0	644.0	14079.0
24	17	12	4	734	33.0	-197158.0	637.0	13924.0
24	17	12	4	734	34.0	-192026.0	628.0	13841.0
24	17	12	4	735	35.0	-187204.0	611.0	13718.0
24	17	12	4	735	36.0	-183561.0	624.0	13640.0
24	17	12	4	736	37.0	-180467.0	610.0	14175.0
24	17	12	4	737	38.0	-178253.0	584.0	14350.0
24	17	12	4	737	39.0	-175845.0	566.0	13918.0
24	17	12	4	738	40.0	-173122.0	555.0	13873.0
24	17	12	4	738	41.0	-171566.0	556.0	14111.0
24	17	12	4	739	42.0	-171132.0	551.0	14064.0
24	17	12	4	739	43.0	-171637.0	560.0	14658.0
24	17	12	4	740	44.0	-173099.0	555.0	14937.0
24	17	12	4	740	45.0	-175358.0	545.0	14576.0
24	17	12	4	741	46.0	-178858.0	522.0	14581.0
24	17	12	4	742	47.0	-184048.0	507.0	14185.0
24	17	12	4	742	48.0	-190074.0	486.0	14009.0
24	17	12	4	743	49.0	-197289.0	474.0	14234.0
24	17	12	4	756	50.0	-205860.0	492.0	14472.0
24	17	12	4	757	51.0	-215551.0	505.0	14840.0
24	17	12	4	757	52.0	-226124.0	480.0	15442.0
24	17	12	4	758	53.0	-237690.0	476.0	15318.0
24	17	12	4	759	54.0	-248963.0	461.0	15096.0
24	17	12	4	759	55.0	-259049.0	440.0	15005.0
24	17	12	4	760	56.0	-267292.0	404.0	14892.0
24	17	12	4	826	57.0	-274421.0	396.0	14590.0
24	17	12	4	826	58.0	-280766.0	389.0	14623.0
24	17	12	4	827	59.0	-285590.0	380.0	14501.0
24	17	12	4	827	60.0	-288600.0	354.0	13902.0
24	17	12	4	828	61.0	-290346.0	324.0	13806.0
24	17	12	4	829	62.0	-291314.0	304.0	14189.0
24	17	12	4	830	63.0	-291467.0	290.0	14362.0
24	17	12	4	831	64.0	-290839.0	281.0	14384.0
24	17	12	4	832	65.0	-289379.0	260.0	14490.0
24	17	12	4	833	66.0	-286463.0	259.0	14517.0
24	17	12	4	833	67.0	-282643.0	245.0	14540.0
24	17	12	4	834	68.0	-278634.0	223.0	14479.0
24	17	12	4	835	69.0	-274126.0	203.0	14646.0
24	17	12	4	835	70.0	-270206.0	169.0	14629.0
24	17	12	4	836	71.0	-266119.0	141.0	14070.0
24	17	12	4	836	93.0	-172002.0	-517.0	13803.0
24	17	12	4	837	94.0	-174037.0	-562.0	13834.0
24	17	12	4	837	95.0	-177688.0	-587.0	14167.0
24	17	12	4	838	96.0	-183006.0	-599.0	13729.0
24	17	12	4	839	97.0	-188542.0	-640.0	13452.0
24	17	12	4	839	98.0	-193927.0	-659.0	13763.0
24	17	12	4	840	99.0	-199953.0	-691.0	14042.0
24	17	12	4	840	100.0	-206004.0	-725.0	13621.0
24	17	12	4	856	101.0	-212116.0	-779.0	13667.0
24	17	12	4	856	102.0	-218340.0	-806.0	13673.0
24	17	12	4	857	103.0	-224586.0	-826.0	13630.0
24	17	12	4	858	104.0	-230501.0	-852.0	13591.0
24	17	12	4	858	105.0	-234832.0	-867.0	13591.0
24	17	12	4	859	106.0	-237361.0	-907.0	13641.0
24	17	12	4	859	107.0	-238618.0	-932.0	13306.0
24	17	12	4	860	108.0	-238486.0	-990.0	13724.0
24	17	12	4	860	109.0	-237147.0	-1037.0	13815.0
24	17	12	4	873	110.0	-235177.0	-1073.0	13469.0
24	17	12	4	900	111.0	-232499.0	-1099.0	13426.0
24	17	12	4	901	112.0	-230446.0	-1116.0	13574.0
24	17	12	4	902	113.0	-228294.0	-1172.0	13714.0
24	17	12	4	902	114.0	-226391.0	-1209.0	13929.0
24	17	12	4	903	115.0	-224366.0	-1241.0	14147.0
24	17	12	4	903	116.0	-222437.0	-1276.0	14009.0
24	17	12	4	904	117.0	-221091.0	-1306.0	13753.0
24	17	12	4	905	118.0	-219881.0	-1361.0	12923.0
24	17	12	4	905	119.0	-219049.0	-1410.0	12481.0
24	17	12	4	906	120.0	-218614.0	-1436.0	12222.0
24	17	12	4	906	121.0	-218257.0	-1471.0	12087.0
24	17	12	4	907	122.0	-218234.0	-1516.0	12441.0
24	17	12	4	908	123.0	-217302.0	-1545.0	12531.0
24	17	12	4	908	124.0	-215849.0	-1573.0	12829.0
24	17	12	4	909	125.0	-214058.0	-1614.0	12931.0
24	17	12	4	909	126.0	-211837.0	-1647.0	12584.0
24	17	12	4	910	131.0	-195502.0	-1867.0	13464.0
24	17	12	4	910	132.0	-192952.0	-1894.0	13292.0
24	17	12	4	911	133.0	-190780.0	-1910.0	13296.0
24	17	12	4	922	134.0	-188655.0	-1951.0	13193.0
24	17	12	4	922	135.0	-186719.0	-1995.0	13183.0
24	17	12	4	923	136.0	-185281.0	-2016.0	13073.0
24	17	12	4	924	137.0	-185097.0	-2041.0	13252.0
24	17	12	4	924	138.0	-185922.0	-2084.0	13223.0
24	17	12	4	945	139.0	-186991.0	-2134.0	13354.0
24	17	12	4	946	140.0	-188043.0	-2167.0	13550.0
24	17	12	4	946	141.0	-189595.0	-2181.0	13510.0
24	17	12	4	947	142.0	-191646.0	-2207.0	13444.0
24	17	12	4	948	143.0	-193247.0	-2249.0	13673.0
24	17	12	4	948	144.0	-194847.0	-2294.0	13926.0
24	17	12	4	949	145.0	-197231.0	-2336.0	13749.0
24	17	12	4	949	146.0	-199595.0	-2345.0	13461.0
24	17	12	4	950	147.0	-201513.0	-2370.0	13456.0
24	17	12	4	951	148.0	-203361.0	-2410.0	13363.0
24	17	12	4	951	149.0	-205322.0	-2437.0	13532.0
24	17	12	4	952	150.0	-207747.0	-2458.0	13899.0
24	17	12	4	952	151.0	-209953.0	-2496.0	14522.0
24	17	12	4	953	152.0	-211637.0	-2525.0	14288.0
24	17	12	4	953	153.0	-213727.0	-2572.0	14288.0
24	17	12	4	954	154.0	-216070.0	-2624.0	13972.0
24	17	12	4	970	155.0	-217727.0	-2654.0	13484.0
24	17	12	4	971	156.0	-218329.0	-2667.0	13690.0
24	17	12	4	971	157.0	-219056.0	-2692.0	13451.0
24	17	12	4	972	158.0	-219539.0	-2749.0	13089.0
24	17	12	4	972	159.0	-219029.0	-2767.0	13199.0
24	17	12	4	973	160.0	-217619.0	-2801.0	13279.0
24	17	12	4	974	161.0	-215231.0	-2834.0	13549.0
24	17	12	4	974	162.0	-212243.0	-2848.0	13606.0
24	17	12	4	975	163.0	-208550.0	-2865.0	13661.0
24	17	12	4	976	164.0	-204169.0	-2898.0	13609.0
24	17	12	4	992	165.0	-199911.0	-2935.0	13674.0
24	17	12	4	993	166.0	-195836.0	-2953.0	14311.0
24	17	12	4	994	167.0	-192300.0	-2977.0	14658.0
24	17	12	4	994	168.0	-189194.0	-3019.0	14821.0
24	17	12	4	995	169.0	-186091.0	-3055.0	16058.0
24	17	12	5	15	170.0	-182916.0	-3056.0	17079.0
24	17	12	5	16	171.0	-179562.0	-3073.0	17864.0
24	17	12	5	17	172.0	-175999.0	-3126.0	18410.0
24	17	12	5	17	173.0	-172358.0	-3146.0	18011.0
24	17	12	5	18	174.0	-169041.0	-3159.0	15418.0
24	17	12	5	18	175.0	-165816.0	-3201.0	10489.0
24	17	12	5	19	176.0	-162761.0	-3247.0	4385.0
24	17	12	5	20	177.0	-160224.0	-3257.0	-2786.0
24	17	12	5	20	178.0	-157884.0	-3258.0	-9222.0
24	17	12	5	21	179.0	-155384.0	-3286.0	-14764.0
24	17	12	5	22	180.0	-153201.0	-3314.0	-20857.0
24	17	12	5	22	181.0	-151738.0	-3333.0	-28226.0
24	17	12	5	23	182.0	-151009.0	-3369.0	-35470.0
24	17	12	5	24	183.0	-150567.0	-3374.0	-41156.0
24	17	12	5	24	184.0	-150569.0	-3379.0	-45422.0
24	17	12	5	25	185.0	-150412.0	-3388.0	-48584.0
24	17	12	5	26	186.0	-150572.0	-3405.0	-48636.0
24	17	12	5	37	187.0	-151806.0	-3456.0	-44173.0
24	17	12	5	38	188.0	-153287.0	-3470.0	-36467.0
24	17	12	5	38	189.0	-153949.0	-3497.0	-28827.0
24	17	12	5	39	190.0	-154353.0	-3512.0	-18636.0
24	17	12	5	40	191.0	-155102.0	-3542.0	-5336.0
24	17	12	5	40	192.0	-155930.0	-3573.0	2125.0
24	17	12	5	41	193.0	-157117.0	-3555.0	5013.0
24	17	12	5	42	194.0	-159899.0	-3573.0	6282.0
24	17	12	5	42	195.0	-164482.0	-3589.0	6476.0
24	17	12	5	43	196.0	-170565.0	-3591.0	6441.0
24	17	12	5	43	197.0	-177651.0	-3618.0	6039.0
24	17	12	5	44	198.0	-184632.0	-3656.0	6178.0
24	17	12	5	59	199.0	-191650.0	-3667.0	6636.0
24	17	12	5	60	200.0	-198721.0	-3691.0	6803.0
24	17	12	5	61	201.0	-203416.0	-3721.0	7263.0
24	17	12	5	61	202.0	-201136.0	-3748.0	8761.0
24	17	12	5	62	203.0	-191104.0	-3793.0	9176.0
24	17	12	5	63	204.0	-176847.0	-3807.0	9184.0
24	17	12	5	63	205.0	-162531.0	-3820.0	9787.0
24	17	12	5	64	206.0	-154398.0	-3831.0	10274.0
24	17	12	5	65	207.0	-155274.0	-3859.0	10466.0
24	17	12	5	65	208.0	-163894.0	-3869.0	10317.0
24	17	12	5	66	209.0	-178345.0	-3887.0	10615.0
24	17	12	5	67	210.0	-196173.0	-3909.0	11085.0
24	17	12	5	67	211.0	-214435.0	-3923.0	11003.0
24	17	12	5	68	212.0	-229051.0	-3936.0	11290.0
24	17	12	5	68	213.0	-238271.0	-3987.0	11683.0
24	17	12	5	82	214.0	-241807.0	-4009.0	11644.0
24	17	12	5	83	215.0	-241790.0	-4012.0	11692.0
24	17	12	5	83	216.0	-240011.0	-4039.0	11746.0
24	17	12	5	84	217.0	-237474.0	-4084.0	11558.0
24	17	12	5	85	218.0	-235391.0	-4088.0	11206.0
24	17	12	5	85	219.0	-235834.0	-4114.0	11326.0
24	17	12	5	86	220.0	-238309.0	-4139.0	11339.0
24	17	12	5	86	221.0	-239328.0	-4156.0	11619.0
24	17	12	5	105	222.0	-238019.0	-4151.0	11844.0
24	17	12	5	106	223.0	-235482.0	-4144.0	11491.0
24	17	12	5	107	224.0	-234678.0	-4161.0	11629.0
24	17	12	5	108	225.0	-235425.0	-4202.0	11779.0
24	17	12	5	108	226.0	-233739.0	-4226.0	11453.0
24	17	12	5	109	227.0	-225962.0	-4239.0	11169.0
24	17	12	5	110	228.0	-211287.0	-4268.0	11150.0
24	17	12	5	110	229.0	-193104.0	-4273.0	11231.0
24	17	12	5	111	230.0	-175903.0	-4280.0	11120.0
24	17	12	5	128	231.0	-161872.0	-4279.0	11078.0
24	17	12	5	129	232.0	-151187.0	-4318.0	11009.0
24	17	12	5	129	233.0	-143355.0	-4360.0	10900.0
24	17	12	5	130	234.0	-137390.0	-4383.0	10553.0
24	17	12	5	131	235.0	-134500.0	-4402.0	10121.0
24	17	12	5	131	236.0	-134626.0	-4421.0	9664.0
24	17	12	5	132	237.0	-137216.0	-4436.0	9116.0
24	17	12	5	133	238.0	-141146.0	-4460.0	8929.0
24	17	12	5	133	239.0	-145739.0	-4482.0	9148.0
24	17	12	5	134	240.0	-150683.0	-4477.0	9033.0
24	17	12	5	134	241.0	-156087.0	-4502.0	9199.0
24	17	12	5	135	242.0	-161189.0	-4550.0	9470.0
24	17	12	5	135	243.0	-166763.0	-4552.0	9199.0
24	17	12	5	151	244.0	-172874.0	-4565.0	9117.0
24	17	12	5	152	245.0	-178764.0	-4591.0	9531.0
24	17	12	5	153	246.0	-184311.0	-4582.0	9267.0
24	17	12	5	153	247.0	-189234.0	-4596.0	9213.0
24	17	12	5	154	248.0	-193411.0	-4620.0	9421.0
24	17	12	5	155	249.0	-197434.0	-4649.0	9882.0
24	17	12	5	155	250.0	-201554.0	-4672.0	9996.0
24	17	12	5	156	251.0	-205692.0	-4702.0	9983.0
24	17	12	5	157	252.0	-209701.0	-4689.0	10049.0
24	17	12	5	158	253.0	-213234.0	-4701.0	9588.0
24	17	12	5	158	254.0	-215898.0	-4736.0	9808.0
24	17	12	5	159	255.0	-218121.0	-4769.0	9729.0
24	17	12	5	159	0.0	-219772.0	-4820.0	9599.0
24	17	12	5	160	1.0	-221184.0	-4850.0	9411.0
24	17	12	5	161	2.0	-223248.0	-4858.0	9602.0
24	17	12	5	173	3.0	-224974.0	-4880.0	9406.0
24	17	12	5	174	4.0	-225709.0	-4905.0	9456.0
24	17	12	5	175	5.0	-226134.0	-4932.0	9984.0
24	17	12	5	175	6.0	-226196.0	-4974.0	9743.0
24	17	12	5	176	7.0	-225681.0	-4992.0	9414.0
24	17	12	5	177	8.0	-224646.0	-5026.0	9457.0
24	17	12	5	177	9.0	-223372.0	-5064.0	9335.0
24	17	12	5	178	10.0	-222114.0	-5077.0	8966.0
24	17	12	5	197	11.0	-220204.0	-5069.0	9078.0
24	17	12	5	198	12.0	-217394.0	-5084.0	8814.0
24	17	12	5	199	13.0	-214071.0	-5120.0	8558.0
24	17	12	5	199	14.0	-210427.0	-5158.0	8698.0
24	17	12	5	200	15.0	-206042.0	-5190.0	8508.0
24	17	12	5	201	16.0	-201598.0	-5204.0	8156.0
24	17	12	5	201	17.0	-197916.0	-5242.0	7743.0
24	17	12	5	202	18.0	-194207.0	-5267.0	7767.0
24	17	12	5	203	19.0	-190411.0	-5300.0	7661.0
24	17	12	5	203	20.0	-187126.0	-5326.0	7200.0
24	17	12	5	204	21.0	-184439.0	-5364.0	7161.0
24	17	12	5	205	22.0	-181791.0	-5356.0	7047.0
24	17	12	5	205	23.0	-179448.0	-5366.0	6641.0
24	17	12	5	206	24.0	-177741.0	-5366.0	6911.0
24	17	12	5	206	25.0	-176574.0	-5368.0	6906.0
24	17	12	5	219	26.0	-175784.0	-5361.0	6694.0
24	17	12	5	220	27.0	-175503.0	-5339.0	6366.0
24	17	12	5	221	28.0	-176104.0	-5313.0	5934.0
24	17	12	5	221	29.0	-177742.0	-5299.0	5723.0
24	17	12	5	222	30.0	-180278.0	-5266.0	5770.0
24	17	12	5	242	31.0	-184284.0	-5241.0	5384.0
24	17	12	5	243	32.0	-188811.0	-5216.0	5091.0
24	17	12	5	244	33.0	-193561.0	-5149.0	4949.0
24	17	12	5	245	34.0	-198854.0	-5075.0	5283.0
24	17	12	5	245	35.0	-204400.0	-5040.0	5279.0
24	17	12	5	246	36.0	-210116.0	-4983.0	5441.0
24	17	12	5	247	37.0	-215717.0	-4928.0	5784.0
24	17	12	5	247	38.0	-220959.0	-4844.0	5413.0
24	17	12	5	248	39.0	-225599.0	-4774.0	5277.0
24	17	12	5	249	40.0	-229432.0	-4705.0	5340.0
24	17	12	5	249	41.0	-232267.0	-4605.0	5243.0
24	17	12	5	250	42.0	-234770.0	-4494.0	4723.0
24	17	12	5	250	43.0	-236792.0	-4377.0	4621.0
24	17	12	5	251	44.0	-237949.0	-4269.0	4792.0
24	17	12	5	252	45.0	-238340.0	-4156.0	5095.0
24	17	12	5	252	46.0	-238522.0	-4046.0	5370.0
24	17	12	5	253	47.0	-238553.0	-3948.0	6102.0
24	17	12	5	264	48.0	-237865.0	-3839.0	6634.0
24	17	12	5	265	49.0	-236683.0	-3693.0	6607.0
24	17	12	5	266	50.0	-235351.0	-3542.0	6834.0
24	17	12	5	266	51.0	-233280.0	-3429.0	7343.0
24	17	12	5	267	52.0	-230125.0	-3309.0	7769.0
24	17	12	5	268	53.0	-225961.0	-3184.0	7953.0
24	17	12	5	268	54.0	-221058.0	-3052.0	8393.0
24	17	12	5	269	55.0	-215669.0	-2921.0	8279.0
24	17	12	5	287	56.0	-209550.0	-2766.0	8481.0
24	17	12	5	288	57.0	-202852.0	-2628.0	9235.0
24	17	12	5	289	58.0	-195569.0	-2489.0	9776.0
24	17	12	5	290	59.0	-187889.0	-2364.0	9574.0
24	17	12	5	291	60.0	-180750.0	-2252.0	9769.0
24	17	12	5	292	61.0	-174227.0	-2112.0	10709.0
24	17	12	5	292	62.0	-168227.0	-1981.0	10967.0
24	17	12	5	293	63.0	-163076.0	-1849.0	11175.0
24	17	12	5	294	64.0	-158770.0	-1705.0	11414.0
24	17	12	5	294	65.0	-155644.0	-1589.0	11561.0
24	17	12	5	295	66.0	-153849.0	-1484.0	11490.0
24	17	12	5	296	67.0	-153234.0	-1359.0	11312.0
24	17	12	5	296	68.0	-153641.0	-1232.0	11179.0
24	17	12	5	297	69.0	-155494.0	-1114.0	11549.0
24	17	12	5	298	70.0	-158813.0	-1012.0	11686.0
24	17	12	5	312	71.0	-162640.0	-890.0	11659.0
24	17	12	5	313	72.0	-166254.0	-758.0	11534.0
24	17	12	5	314	73.0	-169139.0	-658.0	11717.0
24	17	12	5	314	74.0	-171627.0	-576.0	12051.0
24	17	12	5	315	75.0	-173844.0	-487.0	12012.0
24	17	12	5	315	76.0	-175119.0	-383.0	12048.0
24	17	12	5	316	77.0	-176042.0	-306.0	11771.0
24	17	12	5	335	78.0	-175174.0	-221.0	11828.0
24	17	12	5	336	79.0	-172561.0	-133.0	12354.0
24	17	12	5	336	80.0	-169074.0	-62.0	11923.0
24	17	12	5	337	81.0	-168817.0	-5.0	11221.0
24	17	12	5	358	82.0	-171367.0	61.0	11261.0
24	17	12	5	359	83.0	-180579.0	123.0	11449.0
24	17	12	5	360	84.0	-196379.0	195.0	11448.0
24	17	12	5	361	85.0	-211176.0	251.0	11019.0
24	17	12	5	361	86.0	-221464.0	311.0	11636.0
24	17	12	5	362	87.0	-228410.0	357.0	11563.0
24	17	12	5	362	88.0	-232467.0	394.0	11483.0
24	17	12	5	363	89.0	-235271.0	436.0	11779.0
24	17	12	5	363	90.0	-236566.0	493.0	11594.0
24	17	12	5	364	91.0	-235451.0	516.0	11056.0
24	17	12	5	365	92.0	-232527.0	556.0	11107.0
24	17	12	5	365	93.0	-228224.0	622.0	11381.0
24	17	12	5	366	94.0	-223331.0	686.0	11647.0
24	17	12	5	366	95.0	-220606.0	696.0	11603.0
24	17	12	5	367	96.0	-220876.0	694.0	11986.0
24	17	12	5	367	97.0	-223502.0	704.0	11982.0
24	17	12	5	368	99.0	-230384.0	760.0	11241.0
24	17	12	5	368	100.0	-231499.0	758.0	10890.0
24	17	12	5	369	101.0	-230129.0	781.0	10659.0
24	17	12	5	369	102.0	-225782.0	798.0	10481.0
24	17	12	5	370	103.0	-218125.0	812.0	10447.0
24	17	12	5	370	104.0	-207657.0	834.0	10484.0
24	17	12	5	371	105.0	-194951.0	846.0	10794.0
24	17	12	5	371	106.0	-180245.0	877.0	11200.0
24	17	12	5	381	107.0	-166592.0	868.0	11073.0
24	17	12	5	382	108.0	-156122.0	878.0	11279.0
24	17	12	5	383	109.0	-150725.0	904.0	11169.0
24	17	12	5	383	110.0	-151851.0	899.0	10249.0
24	17	12	5	384	111.0	-158757.0	899.0	10426.0
24	17	12	5	384	112.0	-168127.0	895.0	10649.0
24	17	12	5	385	113.0	-177173.0	903.0	10503.0
24	17	12	5	385	114.0	-184926.0	892.0	10522.0
24	17	12	5	386	115.0	-190416.0	895.0	10979.0
24	17	12	5	405	116.0	-193696.0	888.0	11288.0
24	17	12	5	406	117.0	-195712.0	910.0	11011.0
24	17	12	5	406	118.0	-196413.0	908.0	11021.0
24	17	12	5	407	119.0	-195602.0	897.0	11323.0
24	17	12	5	407	120.0	-194071.0	888.0	11139.0
24	17	12	5	408	121.0	-192806.0	874.0	11041.0
24	17	12	5	408	122.0	-191248.0	858.0	11181.0
24	17	12	5	428	123.0	-189428.0	854.0	10966.0
24	17	12	5	429	124.0	-188981.0	851.0	11043.0
24	17	12	5	430	125.0	-189746.0	831.0	11072.0
24	17	12	5	430	126.0	-190764.0	804.0	11313.0
24	17	12	5	431	127.0	-191669.0	793.0	11159.0
24	17	12	5	431	128.0	-192606.0	766.0	11291.0
24	17	12	5	432	129.0	-193826.0	741.0	10864.0
24	17	12	5	432	130.0	-195417.0	744.0	10738.0
24	17	12	5	433	131.0	-198086.0	721.0	11176.0
24	17	12	5	433	132.0	-201530.0	708.0	10976.0
24	17	12	5	434	133.0	-204772.0	679.0	11253.0
24	17	12	5	434	134.0	-206602.0	669.0	11429.0
24	17	12	5	435	135.0	-208017.0	654.0	11597.0
24	17	12	5	435	136.0	-209966.0	647.0	11360.0
24	17	12	5	436	137.0	-212108.0	632.0	11041.0
24	17	12	5	454	138.0	-213624.0	606.0	11126.0
24	17	12	5	479	139.0	-214231.0	599.0	10901.0
24	17	12	5	479	140.0	-214419.0	580.0	10977.0
24	17	12	5	480	141.0	-214243.0	549.0	11343.0
24	17	12	5	480	142.0	-213656.0	498.0	10894.0
24	17	12	5	481	143.0	-213521.0	461.0	10861.0
24	17	12	5	481	144.0	-213707.0	444.0	11299.0
24	17	12	5	482	145.0	-213782.0	431.0	11468.0
24	17	12	5	482	146.0	-214004.0	405.0	10833.0
24	17	12	5	483	147.0	-214374.0	386.0	10707.0
24	17	12	5	483	148.0	-214592.0	369.0	10930.0
24	17	12	5	484	149.0	-214661.0	330.0	10999.0
24	17	12	5	485	150.0	-214267.0	313.0	11013.0
24	17	12	5	485	151.0	-213939.0	296.0	10946.0
24	17	12	5	486	152.0	-213972.0	269.0	10698.0
24	17	12	5	486	153.0	-214538.0	259.0	11050.0
24	17	12	5	487	154.0	-215367.0	246.0	11601.0
24	17	12	5	488	155.0	-216351.0	244.0	11979.0
24	17	12	5	488	156.0	-216959.0	231.0	11508.0
24	17	12	5	489	157.0	-217510.0	213.0	11023.0
24	17	12	5	489	158.0	-218307.0	221.0	11028.0
24	17	12	5	490	159.0	-219164.0	195.0	11203.0
24	17	12	5	490	160.0	-219829.0	184.0	11802.0
24	17	12	5	491	161.0	-220109.0	178.0	11957.0
24	17	12	5	491	162.0	-220476.0	181.0	11674.0
24	17	12	5	492	163.0	-221048.0	145.0	12186.0
24	17	12	5	493	164.0	-221862.0	112.0	12326.0
24	17	12	5	493	165.0	-222850.0	107.0	12278.0
24	17	12	5	494	166.0	-223861.0	80.0	12179.0
24	17	12	5	494	167.0	-224970.0	64.0	11861.0
24	17	12	5	495	168.0	-226719.0	83.0	11698.0
24	17	12	5	502	169.0	-228579.0	91.0	11498.0
24	17	12	5	503	170.0	-230452.0	74.0	11209.0
24	17	12	5	503	171.0	-232592.0	63.0	10719.0
24	17	12	5	504	172.0	-234312.0	69.0	10729.0
24	17	12	5	504	173.0	-235386.0	74.0	11286.0
24	17	12	5	505	174.0	-235926.0	41.0	11594.0
24	17	12	5	525	175.0	-236025.0	18.0	11358.0
24	17	12	5	526	176.0	-235852.0	30.0	11709.0
24	17	12	5	526	177.0	-235081.0	29.0	11624.0
24	17	12	5	527	178.0	-234457.0	11.0	11134.0
24	17	12	5	527	179.0	-233943.0	-15.0	11074.0
24	17	12	5	528	180.0	-232611.0	9.0	11293.0
24	17	12	5	529	181.0	-230775.0	-6.0	10753.0
24	17	12	5	529	182.0	-228729.0	-5.0	10513.0
24	17	12	5	530	183.0	-226556.0	16.0	10683.0
24	17	12	5	530	184.0	-224932.0	19.0	11066.0
24	17	12	5	531	185.0	-223857.0	4.0	10649.0
24	17	12	5	531	186.0	-223104.0	-11.0	11037.0
24	17	12	5	532	187.0	-222217.0	-6.0	11427.0
24	17	12	5	533	188.0	-221038.0	-6.0	11309.0
24	17	12	5	533	189.0	-220151.0	-2.0	10925.0
24	17	12	5	559	190.0	-220119.0	-5.0	10908.0
24	17	12	5	560	191.0	-220876.0	1.0	11093.0
24	17	12	5	561	192.0	-221904.0	-7.0	11308.0
24	17	12	5	561	193.0	-223411.0	-10.0	11160.0
24	17	12	5	578	194.0	-224629.0	-16.0	11356.0
24	17	12	5	578	195.0	-224843.0	-26.0	11279.0
24	17	12	5	579	196.0	-224797.0	-40.0	11077.0
24	17	12	5	579	197.0	-224332.0	-44.0	11149.0
24	17	12	5	580	198.0	-222461.0	-42.0	10853.0
24	17	12	5	581	199.0	-220112.0	-44.0	10546.0
24	17	12	5	581	200.0	-217591.0	-64.0	10398.0
24	17	12	5	582	201.0	-214660.0	-78.0	10469.0
24	17	12	5	582	202.0	-211813.0	-99.0	10418.0
24	17	12	5	601	203.0	-208937.0	-106.0	10566.0
24	17	12	5	602	204.0	-206245.0	-112.0	10444.0
24	17	12	5	602	205.0	-204489.0	-126.0	10385.0
24	17	12	5	603	206.0	-202892.0	-142.0	10613.0
24	17	12	5	603	207.0	-201141.0	-144.0	10379.0
24	17	12	5	604	208.0	-199334.0	-137.0	10008.0
24	17	12	5	605	209.0	-197772.0	-165.0	10163.0
24	17	12	5	605	210.0	-196389.0	-177.0	9758.0
24	17	12	5	606	211.0	-194913.0	-207.0	9421.0
24	17	12	5	606	212.0	-193249.0	-234.0	9132.0
24	17	12	5	607	213.0	-191399.0	-249.0	9724.0
24	17	12	5	607	214.0	-189342.0	-276.0	9714.0
24	17	12	5	608	215.0	-186860.0	-301.0	9866.0
24	17	12	5	609	216.0	-184887.0	-314.0	9815.0
24	17	12	5	609	217.0	-183133.0	-347.0	9241.0
24	17	12	5	610	218.0	-181792.0	-376.0	8636.0
24	17	12	5	610	219.0	-181089.0	-422.0	8389.0
24	17	12	5	611	220.0	-180687.0	-442.0	8474.0
24	17	12	5	611	221.0	-180750.0	-463.0	8654.0
24	17	12	5	612	222.0	-180729.0	-464.0	9040.0
24	17	12	5	612	223.0	-180790.0	-482.0	9667.0
24	17	12	5	613	224.0	-181218.0	-510.0	9316.0
24	17	12	5	614	225.0	-182267.0	-546.0	8684.0
24	17	12	5	614	226.0	-183540.0	-571.0	8833.0
24	17	12	5	623	227.0	-185088.0	-612.0	8585.0
24	17	12	5	624	228.0	-187228.0	-624.0	8196.0
24	17	12	5	625	229.0	-189969.0	-664.0	7973.0
24	17	12	5	625	230.0	-193434.0	-700.0	8434.0
24	17	12	5	626	231.0	-196862.0	-745.0	8679.0
24	17	12	5	626	232.0	-200079.0	-785.0	8819.0
24	17	12	5	627	233.0	-204007.0	-814.0	9066.0
24	17	12	5	627	234.0	-207764.0	-857.0	9143.0
24	17	12	5	628	235.0	-211901.0	-886.0	9104.0
24	17	12	5	646	236.0	-216324.0	-915.0	9159.0
24	17	12	5	647	237.0	-220531.0	-957.0	9499.0
24	17	12	5	648	238.0	-225154.0	-1014.0	9446.0
24	17	12	5	648	239.0	-229451.0	-1044.0	9384.0
24	17	12	5	649	240.0	-232898.0	-1084.0	9696.0
24	17	12	5	649	241.0	-235407.0	-1128.0	10006.0
24	17	12	5	695	242.0	-236750.0	-1165.0	10299.0
24	17	12	5	695	243.0	-236906.0	-1172.0	9841.0
24	17	12	5	696	244.0	-236142.0	-1206.0	9498.0
24	17	12	5	697	245.0	-233888.0	-1271.0	10103.0
24	17	12	5	697	246.0	-231166.0	-1291.0	10215.0
24	17	12	5	698	247.0	-228127.0	-1312.0	10169.0
24	17	12	5	698	248.0	-224832.0	-1387.0	10206.0
24	17	12	5	699	249.0	-222287.0	-1437.0	10192.0
24	17	12	5	699	250.0	-220335.0	-1466.0	9736.0
24	17	12	5	700	251.0	-217974.0	-1512.0	9685.0
24	17	12	5	701	252.0	-215440.0	-1554.0	10315.0
24	17	12	5	701	253.0	-212794.0	-1594.0	10414.0
24	17	12	5	702	254.0	-210182.0	-1626.0	10719.0
24	17	12	5	702	255.0	-207897.0	-1670.0	10868.0
24	17	12	5	703	0.0	-204913.0	-1719.0	10775.0
24	17	12	5	703	15.0	-151475.0	-2327.0	9470.0
24	17	12	5	704	16.0	-149961.0	-2369.0	9482.0
24	17	12	5	705	17.0	-149279.0	-2398.0	10000.0
24	17	12	5	712	18.0	-149636.0	-2434.0	10704.0
24	17	12	5	713	19.0	-150774.0	-2455.0	10968.0
24	17	12	5	714	20.0	-153201.0	-2493.0	11467.0
24	17	12	5	714	21.0	-156345.0	-2521.0	12224.0
24	17	12	5	715	22.0	-159932.0	-2554.0	12566.0
24	17	12	5	736	23.0	-164255.0	-2629.0	12914.0
24	17	12	5	737	24.0	-169749.0	-2684.0	13857.0
24	17	12	5	738	25.0	-175980.0	-2681.0	13427.0
24	17	12	5	738	26.0	-182300.0	-2732.0	10890.0
24	17	12	5	739	27.0	-189090.0	-2767.0	6839.0
24	17	12	5	739	28.0	-195685.0	-2815.0	1524.0
24	17	12	5	740	29.0	-201792.0	-2866.0	-5346.0
24	17	12	5	741	30.0	-207497.0	-2904.0	-12017.0
24	17	12	5	741	31.0	-212229.0	-2927.0	-17326.0
24	17	12	5	742	32.0	-215744.0	-2958.0	-23124.0
24	17	12	5	742	33.0	-218041.0	-2984.0	-30414.0
24	17	12	5	743	34.0	-219167.0	-3027.0	-37591.0
24	17	12	5	743	35.0	-219072.0	-3074.0	-42942.0
24	17	12	5	744	36.0	-217270.0	-3109.0	-46554.0
24	17	12	5	745	37.0	-214250.0	-3142.0	-48731.0
24	17	12	5	745	38.0	-210152.0	-3181.0	-48114.0
24	17	12	5	785	39.0	-205266.0	-3207.0	-43110.0
24	17	12	5	785	40.0	-200249.0	-3213.0	-35676.0
24	17	12	5	786	41.0	-194844.0	-3259.0	-28205.0
24	17	12	5	787	42.0	-188480.0	-3283.0	-17624.0
24	17	12	5	787	43.0	-181892.0	-3296.0	-5166.0
24	17	12	5	788	44.0	-176121.0	-3320.0	640.0
24	17	12	5	788	45.0	-171749.0	-3370.0	3514.0
24	17	12	5	789	46.0	-168689.0	-3404.0	5625.0
24	17	12	5	790	47.0	-167129.0	-3444.0	5646.0
24	17	12	5	790	48.0	-166640.0	-3482.0	5253.0
24	17	12	5	791	49.0	-166652.0	-3473.0	5021.0
24	17	12	5	791	50.0	-167361.0	-3518.0	5692.0
24	17	12	5	792	51.0	-168258.0	-3556.0	6045.0
24	17	12	5	793	52.0	-169048.0	-3588.0	6014.0
24	17	12	5	793	53.0	-169284.0	-3596.0	5907.0
24	17	12	5	794	54.0	-165588.0	-3632.0	6176.0
24	17	12	5	794	60.0	-101252.0	-3768.0	7469.0
24	17	12	5	795	61.0	-112991.0	-3786.0	7871.0
24	17	12	5	796	62.0	-129365.0	-3811.0	7779.0
24	17	12	5	809	63.0	-148045.0	-3810.0	7623.0
24	17	12	5	810	64.0	-166892.0	-3827.0	8261.0
24	17	12	5	810	65.0	-184014.0	-3832.0	8351.0
24	17	12	5	811	66.0	-198156.0	-3842.0	8341.0
24	17	12	5	812	67.0	-208626.0	-3873.0	8423.0
24	17	12	5	812	68.0	-216026.0	-3898.0	8716.0
24	17	12	5	832	69.0	-220859.0	-3902.0	8671.0
24	17	12	5	832	70.0	-224379.0	-3912.0	8890.0
24	17	12	5	833	71.0	-227932.0	-3950.0	9186.0
24	17	12	5	834	72.0	-232977.0	-3974.0	8808.0
24	17	12	5	834	73.0	-240538.0	-3983.0	8406.0
24	17	12	5	835	74.0	-249712.0	-4002.0	8391.0
24	17	12	5	835	75.0	-259343.0	-4047.0	8417.0
24	17	12	5	836	76.0	-266479.0	-4069.0	8238.0
24	17	12	5	836	77.0	-268384.0	-4072.0	8093.0
24	17	12	5	837	78.0	-264079.0	-4088.0	8198.0
24	17	12	5	837	79.0	-253414.0	-4114.0	8285.0
24	17	12	5	838	80.0	-238428.0	-4136.0	8004.0
24	17	12	5	839	81.0	-222257.0	-4166.0	7936.0
24	17	12	5	839	82.0	-207086.0	-4191.0	7743.0
24	17	12	5	840	83.0	-194007.0	-4195.0	7328.0
24	17	12	5	855	84.0	-183173.0	-4207.0	7281.0
24	17	12	5	856	85.0	-174109.0	-4200.0	7866.0
24	17	12	5	856	86.0	-167277.0	-4221.0	7982.0
24	17	12	5	857	87.0	-162964.0	-4261.0	8073.0
24	17	12	5	857	88.0	-160860.0	-4286.0	8326.0
24	17	12	5	858	89.0	-160002.0	-4299.0	8156.0
24	17	12	5	859	90.0	-159812.0	-4337.0	7924.0
24	17	12	5	859	91.0	-159916.0	-4376.0	7804.0
24	17	12	5	860	92.0	-159707.0	-4374.0	7974.0
24	17	12	5	860	93.0	-159903.0	-4391.0	7787.0
24	17	12	5	861	94.0	-160808.0	-4434.0	7503.0
24	17	12	5	862	95.0	-162092.0	-4439.0	7421.0
24	17	12	5	862	96.0	-163374.0	-4454.0	7588.0
24	17	12	5	863	97.0	-164747.0	-4485.0	7576.0
24	17	12	5	863	98.0	-165540.0	-4522.0	7243.0
24	17	12	5	891	99.0	-165764.0	-4531.0	7198.0
24	17	12	5	892	100.0	-165936.0	-4540.0	7131.0
24	17	12	5	893	101.0	-165636.0	-4527.0	6595.0
24	17	12	5	893	102.0	-165511.0	-4559.0	6563.0
24	17	12	5	894	103.0	-165739.0	-4594.0	6839.0
24	17	12	5	909	104.0	-166411.0	-4617.0	6760.0
24	17	12	5	909	105.0	-167459.0	-4624.0	6779.0
24	17	12	5	910	106.0	-169016.0	-4650.0	6955.0
24	17	12	5	911	107.0	-171157.0	-4674.0	6879.0
24	17	12	5	911	108.0	-174271.0	-4684.0	6761.0
24	17	12	5	912	109.0	-179016.0	-4718.0	6791.0
24	17	12	5	912	110.0	-185100.0	-4760.0	6826.0
24	17	12	5	913	111.0	-192204.0	-4781.0	6044.0
24	17	12	5	914	112.0	-199539.0	-4797.0	5846.0
24	17	12	5	914	113.0	-206614.0	-4831.0	5711.0
24	17	12	5	915	114.0	-213252.0	-4830.0	5416.0
24	17	12	5	915	115.0	-219592.0	-4847.0	5440.0
24	17	12	5	916	116.0	-225169.0	-4867.0	5600.0
24	17	12	5	917	117.0	-229746.0	-4890.0	5854.0
24	17	12	5	917	118.0	-233654.0	-4906.0	5781.0
24	17	12	5	918	119.0	-237126.0	-4945.0	5989.0
24	17	12	5	918	120.0	-240178.0	-4966.0	5552.0
24	17	12	5	919	121.0	-242537.0	-4986.0	5294.0
24	17	12	5	920	122.0	-244354.0	-4999.0	4789.0
24	17	12	5	920	123.0	-245793.0	-5009.0	4784.0
24	17	12	5	921	124.0	-247067.0	-5006.0	4654.0
24	17	12	5	922	125.0	-247944.0	-5037.0	4632.0
24	17	12	5	922	126.0	-247778.0	-5064.0	4357.0
24	17	12	5	923	127.0	-246677.0	-5066.0	4074.0
24	17	12	5	935	128.0	-245514.0	-5071.0	4059.0
24	17	12	5	936	129.0	-244594.0	-5091.0	4243.0
24	17	12	5	936	130.0	-243668.0	-5096.0	3818.0
24	17	12	5	937	131.0	-242514.0	-5115.0	3406.0
24	17	12	5	938	132.0	-241071.0	-5131.0	3258.0
24	17	12	5	938	133.0	-239741.0	-5131.0	2855.0
24	17	12	5	939	134.0	-238332.0	-5121.0	2579.0
24	17	12	5	939	135.0	-236965.0	-5131.0	2823.0
24	17	12	5	940	136.0	-235528.0	-5119.0	2881.0
24	17	12	5	958	137.0	-233372.0	-5092.0	2563.0
24	17	12	5	958	138.0	-230471.0	-5066.0	2364.0
24	17	12	5	959	139.0	-226949.0	-5046.0	2718.0
24	17	12	5	959	140.0	-222901.0	-5022.0	2450.0
24	17	12	5	960	141.0	-218087.0	-4994.0	2661.0
24	17	12	5	961	142.0	-212702.0	-4934.0	2354.0
24	17	12	5	982	143.0	-207107.0	-4889.0	1430.0
24	17	12	5	983	144.0	-201404.0	-4819.0	1185.0
24	17	12	5	984	145.0	-195346.0	-4756.0	1247.0
24	17	12	5	984	146.0	-189339.0	-4701.0	1911.0
24	17	12	5	985	147.0	-183942.0	-4646.0	1471.0
24	17	12	5	985	148.0	-179384.0	-4575.0	1276.0
24	17	12	5	986	149.0	-175544.0	-4487.0	1388.0
24	17	12	5	987	150.0	-171800.0	-4417.0	1464.0
24	17	12	5	987	151.0	-168367.0	-4331.0	1521.0
24	17	12	6	9	152.0	-164591.0	-4206.0	1608.0
24	17	12	6	10	153.0	-161291.0	-4112.0	1465.0
24	17	12	6	28	154.0	-158579.0	-4007.0	1874.0
24	17	12	6	29	155.0	-156036.0	-3894.0	2532.0
24	17	12	6	29	156.0	-153502.0	-3793.0	2681.0
24	17	12	6	30	157.0	-151009.0	-3696.0	2817.0
24	17	12	6	31	158.0	-148739.0	-3574.0	3126.0
24	17	12	6	31	159.0	-147504.0	-3463.0	3432.0
24	17	12	6	32	160.0	-147351.0	-3345.0	3543.0
24	17	12	6	32	161.0	-147826.0	-3236.0	4286.0
24	17	12	6	33	162.0	-148958.0	-3127.0	4753.0
24	17	12	6	34	163.0	-150649.0	-3022.0	5055.0
24	17	12	6	34	164.0	-152462.0	-2905.0	5516.0
24	17	12	6	35	165.0	-154624.0	-2757.0	6226.0
24	17	12	6	35	166.0	-157282.0	-2633.0	6749.0
24	17	12	6	36	167.0	-160314.0	-2524.0	7064.0
24	17	12	6	37	172.0	-175045.0	-1942.0	7500.0
24	17	12	6	37	173.0	-178456.0	-1832.0	7281.0
24	17	12	6	38	180.0	-209211.0	-1090.0	8496.0
24	17	12	6	38	181.0	-214564.0	-984.0	8862.0
24	17	12	6	39	182.0	-219237.0	-893.0	8516.0
24	17	12	6	40	183.0	-223175.0	-802.0	8521.0
24	17	12	6	40	184.0	-226502.0	-711.0	8495.0
24	17	12	6	41	185.0	-228630.0	-605.0	8588.0
24	17	12	6	41	186.0	-229783.0	-509.0	8878.0
24	17	12	6	42	187.0	-229133.0	-458.0	8569.0
24	17	12	6	54	188.0	-225269.0	-398.0	8440.0
24	17	12	6	55	189.0	-219178.0	-317.0	8356.0
24	17	12	6	56	190.0	-214821.0	-244.0	8519.0
24	17	12	6	56	191.0	-213489.0	-174.0	8463.0
24	17	12	6	57	192.0	-215653.0	-111.0	8723.0
24	17	12	6	57	193.0	-225117.0	-53.0	8671.0
24	17	12	6	58	194.0	-236918.0	-1.0	8641.0
24	17	12	6	74	195.0	-244532.0	45.0	8756.0
24	17	12	6	75	196.0	-248366.0	79.0	8876.0
24	17	12	6	75	197.0	-249774.0	123.0	9384.0
24	17	12	6	76	198.0	-250171.0	203.0	9113.0
24	17	12	6	76	199.0	-251139.0	233.0	8544.0
24	17	12	6	77	200.0	-252006.0	263.0	9096.0
24	17	12	6	78	201.0	-250840.0	304.0	9304.0
24	17	12	6	78	202.0	-246776.0	341.0	8783.0
24	17	12	6	79	203.0	-240105.0	359.0	8829.0
