24	16	59	32	237	182.0	-218477.0	-1283.0	-263387.0
24	16	59	32	240	183.0	-216281.0	-1309.0	-263351.0
24	16	59	32	242	184.0	-213423.0	-1331.0	-263692.0
24	16	59	32	244	185.0	-210125.0	-1343.0	-263322.0
24	16	59	32	246	186.0	-206974.0	-1365.0	-262857.0
24	16	59	32	248	187.0	-203698.0	-1367.0	-263082.0
24	16	59	32	250	188.0	-200562.0	-1361.0	-263013.0
24	16	59	32	252	189.0	-197872.0	-1389.0	-262351.0
24	16	59	32	253	190.0	-195477.0	-1429.0	-261945.0
24	16	59	32	254	191.0	-193271.0	-1427.0	-262474.0
24	16	59	32	256	192.0	-190709.0	-1433.0	-262661.0
24	16	59	32	257	193.0	-187951.0	-1456.0	-262652.0
24	16	59	32	258	194.0	-184762.0	-1449.0	-262489.0
24	16	59	32	259	195.0	-181521.0	-1465.0	-262177.0
24	16	59	32	260	196.0	-178639.0	-1474.0	-262291.0
24	16	59	32	269	197.0	-176622.0	-1489.0	-262262.0
24	16	59	32	269	198.0	-174694.0	-1508.0	-261967.0
24	16	59	32	270	199.0	-173009.0	-1505.0	-262210.0
24	16	59	32	270	200.0	-171559.0	-1534.0	-262349.0
24	16	59	32	297	201.0	-170859.0	-1553.0	-262079.0
24	16	59	32	297	202.0	-171556.0	-1556.0	-261947.0
24	16	59	32	298	203.0	-173385.0	-1571.0	-261776.0
24	16	59	32	298	204.0	-176756.0	-1594.0	-261289.0
24	16	59	32	324	205.0	-181117.0	-1607.0	-261742.0
24	16	59	32	370	206.0	-185784.0	-1629.0	-261808.0
24	16	59	32	371	207.0	-190721.0	-1633.0	-261379.0
24	16	59	32	371	208.0	-195057.0	-1644.0	-260790.0
24	16	59	32	372	209.0	-198914.0	-1661.0	-260817.0
24	16	59	32	372	210.0	-203086.0	-1658.0	-260549.0
24	16	59	32	373	211.0	-206697.0	-1682.0	-260408.0
24	16	59	32	374	212.0	-209569.0	-1705.0	-260202.0
24	16	59	32	374	213.0	-212117.0	-1717.0	-259978.0
24	16	59	32	375	214.0	-214762.0	-1724.0	-259804.0
24	16	59	32	375	215.0	-217938.0	-1759.0	-260181.0
24	16	59	32	376	216.0	-220877.0	-1769.0	-259643.0
24	16	59	32	377	217.0	-222538.0	-1794.0	-259234.0
24	16	59	32	377	218.0	-222943.0	-1822.0	-259592.0
24	16	59	32	378	219.0	-222770.0	-1827.0	-259892.0
24	16	59	32	378	230.0	-209223.0	-2071.0	-259144.0
24	16	59	32	379	253.0	-242558.0	-2524.0	-250851.0
24	16	59	32	379	254.0	-244000.0	-2547.0	-251856.0
24	16	59	32	380	255.0	-245712.0	-2547.0	-252529.0
24	16	59	32	381	0.0	-246361.0	-2561.0	-252684.0
24	16	59	32	381	1.0	-244517.0	-2589.0	-252739.0
24	16	59	32	382	2.0	-232372.0	-2610.0	-253737.0
24	16	59	32	414	3.0	-219129.0	-2614.0	-254646.0
24	16	59	32	432	4.0	-210911.0	-2624.0	-255193.0
24	16	59	32	432	5.0	-208799.0	-2651.0	-255369.0
24	16	59	32	433	6.0	-213511.0	-2681.0	-255756.0
24	16	59	32	433	7.0	-221144.0	-2705.0	-256221.0
24	16	59	32	434	8.0	-230315.0	-2727.0	-256168.0
24	16	59	32	434	9.0	-238287.0	-2738.0	-255756.0
24	16	59	32	435	10.0	-242118.0	-2764.0	-254912.0
24	16	59	32	436	11.0	-241506.0	-2779.0	-254320.0
24	16	59	32	436	12.0	-239329.0	-2809.0	-253562.0
24	16	59	32	437	13.0	-238158.0	-2824.0	-253012.0
24	16	59	32	437	14.0	-236981.0	-2842.0	-252814.0
24	16	59	32	438	15.0	-234247.0	-2867.0	-252732.0
24	16	59	32	438	16.0	-230606.0	-2873.0	-251789.0
24	16	59	32	439	17.0	-226177.0	-2889.0	-250998.0
24	16	59	32	439	19.0	-222162.0	-2942.0	-249934.0
24	16	59	32	440	20.0	-220216.0	-2957.0	-250070.0
24	16	59	32	440	21.0	-217202.0	-2983.0	-249878.0
24	16	59	32	441	22.0	-213396.0	-2986.0	-248971.0
24	16	59	32	442	23.0	-210196.0	-2982.0	-249630.0
24	16	59	32	442	24.0	-208081.0	-3003.0	-249312.0
24	16	59	32	443	25.0	-205821.0	-3002.0	-248878.0
24	16	59	32	459	26.0	-203252.0	-3020.0	-248724.0
24	16	59	32	460	27.0	-199893.0	-3045.0	-248627.0
24	16	59	32	461	28.0	-196831.0	-3032.0	-248787.0
24	16	59	32	462	29.0	-194069.0	-3056.0	-248994.0
24	16	59	32	462	30.0	-191707.0	-3086.0	-248971.0
24	16	59	32	463	31.0	-191316.0	-3106.0	-248832.0
24	16	59	32	464	32.0	-191377.0	-3142.0	-248585.0
24	16	59	32	464	33.0	-190876.0	-3160.0	-248550.0
24	16	59	32	465	34.0	-189752.0	-3187.0	-248227.0
24	16	59	32	465	35.0	-187911.0	-3192.0	-248446.0
24	16	59	32	466	36.0	-185171.0	-3214.0	-248252.0
24	16	59	32	466	37.0	-182222.0	-3237.0	-247726.0
24	16	59	32	467	38.0	-179354.0	-3253.0	-247782.0
24	16	59	32	468	39.0	-176901.0	-3266.0	-247771.0
24	16	59	32	468	40.0	-174617.0	-3286.0	-247607.0
24	16	59	32	469	42.0	-175052.0	-3347.0	-247831.0
24	16	59	32	470	43.0	-177902.0	-3372.0	-247112.0
24	16	59	32	470	44.0	-180650.0	-3394.0	-247212.0
24	16	59	32	471	45.0	-183185.0	-3404.0	-247609.0
24	16	59	32	471	46.0	-185202.0	-3422.0	-247627.0
24	16	59	32	472	47.0	-186515.0	-3433.0	-247902.0
24	16	59	32	504	48.0	-187782.0	-3456.0	-247614.0
24	16	59	32	505	49.0	-189440.0	-3468.0	-246656.0
24	16	59	32	506	50.0	-190344.0	-3466.0	-246520.0
24	16	59	32	506	51.0	-190823.0	-3486.0	-246890.0
24	16	59	32	507	52.0	-191358.0	-3499.0	-246757.0
24	16	59	32	508	53.0	-192785.0	-3530.0	-246691.0
24	16	59	32	508	54.0	-193108.0	-3556.0	-246959.0
24	16	59	32	509	55.0	-193282.0	-3576.0	-247433.0
24	16	59	32	509	56.0	-193917.0	-3592.0	-246921.0
24	16	59	32	510	57.0	-193734.0	-3625.0	-246434.0
24	16	59	32	510	58.0	-193671.0	-3644.0	-246591.0
24	16	59	32	511	59.0	-193490.0	-3651.0	-246312.0
24	16	59	32	511	60.0	-193503.0	-3683.0	-245799.0
24	16	59	32	512	61.0	-194197.0	-3716.0	-245243.0
24	16	59	32	513	62.0	-195360.0	-3727.0	-245097.0
24	16	59	32	513	64.0	-197187.0	-3755.0	-245151.0
24	16	59	32	514	65.0	-198158.0	-3752.0	-245727.0
24	16	59	32	514	66.0	-198607.0	-3774.0	-246931.0
24	16	59	32	515	67.0	-198529.0	-3795.0	-246742.0
24	16	59	32	515	68.0	-199478.0	-3806.0	-246911.0
24	16	59	32	516	69.0	-201634.0	-3821.0	-246727.0
24	16	59	32	517	70.0	-204039.0	-3806.0	-246606.0
24	16	59	32	549	71.0	-205923.0	-3824.0	-245635.0
24	16	59	32	550	72.0	-208001.0	-3842.0	-245302.0
24	16	59	32	551	73.0	-210299.0	-3859.0	-245529.0
24	16	59	32	551	74.0	-212396.0	-3869.0	-245406.0
24	16	59	32	552	75.0	-214549.0	-3876.0	-244531.0
24	16	59	32	552	76.0	-217226.0	-3881.0	-244905.0
24	16	59	32	553	77.0	-219957.0	-3871.0	-245487.0
24	16	59	32	554	78.0	-222454.0	-3868.0	-245100.0
24	16	59	32	554	79.0	-224848.0	-3852.0	-244904.0
24	16	59	32	555	80.0	-226923.0	-3844.0	-244736.0
24	16	59	32	555	81.0	-227862.0	-3841.0	-244128.0
24	16	59	32	556	82.0	-228690.0	-3827.0	-243160.0
24	16	59	32	556	83.0	-228964.0	-3801.0	-242741.0
24	16	59	32	557	84.0	-228684.0	-3796.0	-243461.0
24	16	59	32	558	85.0	-228470.0	-3786.0	-242750.0
24	16	59	32	559	87.0	-227262.0	-3724.0	-242876.0
24	16	59	32	560	88.0	-227342.0	-3693.0	-243056.0
24	16	59	32	560	89.0	-227034.0	-3653.0	-242569.0
24	16	59	32	561	90.0	-227189.0	-3604.0	-242574.0
24	16	59	32	562	91.0	-228119.0	-3562.0	-243076.0
24	16	59	32	562	92.0	-229442.0	-3494.0	-242630.0
24	16	59	32	595	93.0	-231362.0	-3458.0	-242514.0
24	16	59	32	595	94.0	-231822.0	-3404.0	-242694.0
24	16	59	32	596	95.0	-232107.0	-3351.0	-242003.0
24	16	59	32	597	96.0	-232147.0	-3295.0	-241416.0
24	16	59	32	597	97.0	-234204.0	-3246.0	-241395.0
24	16	59	32	598	98.0	-235628.0	-3196.0	-240853.0
24	16	59	32	598	99.0	-237266.0	-3136.0	-240499.0
24	16	59	32	599	100.0	-240367.0	-3070.0	-240117.0
24	16	59	32	600	101.0	-242646.0	-3001.0	-239792.0
24	16	59	32	600	102.0	-244959.0	-2926.0	-239588.0
24	16	59	32	601	103.0	-246425.0	-2884.0	-239626.0
24	16	59	32	601	104.0	-246493.0	-2827.0	-239350.0
24	16	59	32	602	105.0	-246113.0	-2759.0	-239180.0
24	16	59	32	602	106.0	-245629.0	-2705.0	-239064.0
24	16	59	32	603	107.0	-245274.0	-2648.0	-238766.0
24	16	59	32	603	109.0	-242913.0	-2509.0	-237943.0
24	16	59	32	614	110.0	-240554.0	-2470.0	-237014.0
24	16	59	32	615	111.0	-239621.0	-2400.0	-236716.0
24	16	59	32	615	112.0	-238962.0	-2346.0	-237153.0
24	16	59	32	616	113.0	-238127.0	-2266.0	-237381.0
24	16	59	32	616	114.0	-236943.0	-2196.0	-236755.0
24	16	59	32	617	115.0	-236439.0	-2141.0	-236553.0
24	16	59	32	640	116.0	-236569.0	-2087.0	-236384.0
24	16	59	32	640	117.0	-236907.0	-2022.0	-236122.0
24	16	59	32	641	118.0	-238082.0	-1987.0	-235642.0
24	16	59	32	642	119.0	-240464.0	-1948.0	-234897.0
24	16	59	32	642	120.0	-241481.0	-1901.0	-234736.0
24	16	59	32	643	121.0	-242552.0	-1836.0	-234375.0
24	16	59	32	644	122.0	-243564.0	-1798.0	-235011.0
24	16	59	32	644	123.0	-243597.0	-1758.0	-235111.0
24	16	59	32	645	124.0	-243025.0	-1706.0	-234574.0
24	16	59	32	645	125.0	-241359.0	-1664.0	-233949.0
24	16	59	32	646	126.0	-239237.0	-1635.0	-233549.0
24	16	59	32	647	127.0	-234492.0	-1607.0	-234041.0
24	16	59	32	647	128.0	-226600.0	-1577.0	-233846.0
24	16	59	32	648	129.0	-214132.0	-1545.0	-233434.0
24	16	59	32	648	130.0	-198218.0	-1511.0	-233697.0
24	16	59	32	649	132.0	-196946.0	-1422.0	-233687.0
24	16	59	32	650	133.0	-207700.0	-1384.0	-233751.0
24	16	59	32	650	134.0	-214674.0	-1333.0	-233697.0
24	16	59	32	651	135.0	-213449.0	-1321.0	-233775.0
24	16	59	32	651	136.0	-212208.0	-1302.0	-233966.0
24	16	59	32	652	137.0	-210243.0	-1275.0	-233478.0
24	16	59	32	685	138.0	-208297.0	-1229.0	-232763.0
24	16	59	32	686	139.0	-209587.0	-1204.0	-232108.0
24	16	59	32	686	140.0	-208849.0	-1189.0	-231791.0
24	16	59	32	687	141.0	-206485.0	-1176.0	-231852.0
24	16	59	32	687	142.0	-201627.0	-1134.0	-231651.0
24	16	59	32	688	143.0	-196927.0	-1115.0	-231777.0
24	16	59	32	689	144.0	-193563.0	-1111.0	-231761.0
24	16	59	32	689	145.0	-192170.0	-1094.0	-231376.0
24	16	59	32	690	146.0	-194061.0	-1076.0	-231337.0
24	16	59	32	691	147.0	-195721.0	-1081.0	-231266.0
24	16	59	32	691	148.0	-196896.0	-1066.0	-231029.0
24	16	59	32	692	149.0	-197948.0	-1041.0	-230951.0
24	16	59	32	693	150.0	-200002.0	-1037.0	-230940.0
24	16	59	32	693	151.0	-201801.0	-1027.0	-230941.0
24	16	59	32	694	152.0	-203520.0	-1011.0	-230562.0
24	16	59	32	695	154.0	-204667.0	-1005.0	-230598.0
24	16	59	32	695	155.0	-205744.0	-996.0	-230485.0
24	16	59	32	696	156.0	-206287.0	-970.0	-230423.0
24	16	59	32	696	157.0	-207544.0	-946.0	-230465.0
24	16	59	32	697	158.0	-208304.0	-926.0	-230402.0
24	16	59	32	698	159.0	-209402.0	-921.0	-230031.0
24	16	59	32	729	160.0	-210119.0	-899.0	-229425.0
24	16	59	32	730	161.0	-210376.0	-901.0	-229529.0
24	16	59	32	730	162.0	-210797.0	-904.0	-229981.0
24	16	59	32	731	163.0	-210311.0	-896.0	-229487.0
24	16	59	32	732	164.0	-209102.0	-900.0	-229479.0
24	16	59	32	732	165.0	-206644.0	-891.0	-229551.0
24	16	59	32	733	166.0	-204433.0	-886.0	-229329.0
24	16	59	32	733	167.0	-202701.0	-884.0	-228944.0
24	16	59	32	734	168.0	-201799.0	-900.0	-228596.0
24	16	59	32	735	169.0	-200949.0	-918.0	-228406.0
24	16	59	32	735	170.0	-200342.0	-909.0	-228810.0
24	16	59	32	736	171.0	-199667.0	-915.0	-228796.0
24	16	59	32	736	172.0	-199064.0	-924.0	-229115.0
24	16	59	32	737	173.0	-199536.0	-938.0	-229042.0
24	16	59	32	738	174.0	-200484.0	-951.0	-228269.0
24	16	59	32	738	177.0	-200252.0	-995.0	-228612.0
24	16	59	32	739	178.0	-199361.0	-997.0	-228529.0
24	16	59	32	739	179.0	-198824.0	-985.0	-229456.0
24	16	59	32	740	180.0	-198921.0	-1020.0	-231024.0
24	16	59	32	748	181.0	-198500.0	-1046.0	-230812.0
24	16	59	32	749	182.0	-197939.0	-1041.0	-229082.0
24	16	59	32	774	183.0	-197156.0	-1047.0	-228666.0
24	16	59	32	775	184.0	-196111.0	-1064.0	-227737.0
24	16	59	32	776	185.0	-194917.0	-1078.0	-225997.0
24	16	59	32	776	186.0	-193487.0	-1105.0	-227477.0
24	16	59	32	777	187.0	-191726.0	-1131.0	-228516.0
24	16	59	32	778	188.0	-189910.0	-1147.0	-228037.0
24	16	59	32	778	189.0	-188377.0	-1173.0	-227695.0
24	16	59	32	779	190.0	-188277.0	-1177.0	-227771.0
24	16	59	32	779	191.0	-188954.0	-1197.0	-228505.0
24	16	59	32	780	192.0	-191717.0	-1224.0	-227801.0
24	16	59	32	781	193.0	-194537.0	-1262.0	-227789.0
24	16	59	32	781	194.0	-197198.0	-1284.0	-227379.0
24	16	59	32	782	195.0	-198667.0	-1284.0	-228709.0
24	16	59	32	783	196.0	-198968.0	-1311.0	-228884.0
24	16	59	32	783	197.0	-198966.0	-1330.0	-226971.0
24	16	59	32	784	199.0	-197236.0	-1357.0	-227234.0
24	16	59	32	784	200.0	-195980.0	-1385.0	-227180.0
24	16	59	32	785	201.0	-194349.0	-1404.0	-227297.0
24	16	59	32	786	202.0	-193412.0	-1404.0	-227288.0
24	16	59	32	786	203.0	-192783.0	-1415.0	-227022.0
24	16	59	32	787	204.0	-192670.0	-1431.0	-225976.0
24	16	59	32	820	205.0	-192592.0	-1444.0	-225642.0
24	16	59	32	821	206.0	-192542.0	-1436.0	-224929.0
24	16	59	32	821	207.0	-192469.0	-1455.0	-225572.0
24	16	59	32	822	208.0	-191854.0	-1479.0	-226044.0
24	16	59	32	823	209.0	-191024.0	-1496.0	-224727.0
24	16	59	32	823	210.0	-190094.0	-1513.0	-225324.0
24	16	59	32	824	211.0	-189890.0	-1524.0	-225291.0
24	16	59	32	825	212.0	-190509.0	-1534.0	-226139.0
24	16	59	32	825	213.0	-191542.0	-1537.0	-227302.0
24	16	59	32	826	214.0	-193071.0	-1548.0	-226222.0
24	16	59	32	827	215.0	-194441.0	-1567.0	-226391.0
24	16	59	32	827	216.0	-195644.0	-1576.0	-225838.0
24	16	59	32	828	217.0	-196613.0	-1600.0	-225346.0
24	16	59	32	828	218.0	-197392.0	-1607.0	-225818.0
24	16	59	32	829	219.0	-198476.0	-1624.0	-225176.0
24	16	59	32	830	221.0	-199507.0	-1640.0	-224185.0
24	16	59	32	830	222.0	-200067.0	-1661.0	-224079.0
24	16	59	32	831	223.0	-200986.0	-1666.0	-223818.0
24	16	59	32	831	224.0	-202421.0	-1679.0	-223483.0
24	16	59	32	832	225.0	-204058.0	-1679.0	-223952.0
24	16	59	32	832	226.0	-205411.0	-1677.0	-223729.0
24	16	59	32	833	227.0	-206622.0	-1687.0	-223952.0
24	16	59	32	866	228.0	-208131.0	-1711.0	-223742.0
24	16	59	32	877	229.0	-210073.0	-1692.0	-223547.0
24	16	59	32	878	230.0	-211682.0	-1696.0	-223809.0
24	16	59	32	879	231.0	-212849.0	-1706.0	-224347.0
24	16	59	32	879	232.0	-213895.0	-1729.0	-223680.0
24	16	59	32	880	233.0	-214440.0	-1736.0	-222707.0
24	16	59	32	880	234.0	-214679.0	-1728.0	-222517.0
24	16	59	32	881	235.0	-214327.0	-1759.0	-222269.0
24	16	59	32	881	236.0	-213547.0	-1774.0	-222283.0
24	16	59	32	882	237.0	-213105.0	-1782.0	-222067.0
24	16	59	32	883	238.0	-212699.0	-1775.0	-222643.0
24	16	59	32	883	239.0	-211593.0	-1797.0	-222994.0
24	16	59	32	884	240.0	-210541.0	-1806.0	-223199.0
24	16	59	32	884	241.0	-209944.0	-1825.0	-223379.0
24	16	59	32	885	242.0	-208977.0	-1842.0	-223342.0
24	16	59	32	885	244.0	-206449.0	-1861.0	-223858.0
24	16	59	32	886	245.0	-205044.0	-1866.0	-223692.0
24	16	59	32	887	246.0	-203322.0	-1872.0	-224479.0
24	16	59	32	887	247.0	-201139.0	-1889.0	-224021.0
24	16	59	32	888	248.0	-198952.0	-1902.0	-223829.0
24	16	59	32	888	249.0	-196979.0	-1915.0	-224006.0
24	16	59	32	910	250.0	-195077.0	-1920.0	-224040.0
24	16	59	32	911	251.0	-193726.0	-1919.0	-224327.0
24	16	59	32	911	252.0	-192563.0	-1936.0	-224391.0
24	16	59	32	912	253.0	-191102.0	-1979.0	-225205.0
24	16	59	32	912	254.0	-189171.0	-1972.0	-226116.0
24	16	59	32	913	255.0	-187379.0	-1983.0	-226895.0
24	16	59	32	914	0.0	-186188.0	-1995.0	-228600.0
24	16	59	32	914	1.0	-186047.0	-2039.0	-230446.0
24	16	59	32	915	2.0	-186549.0	-2045.0	-231882.0
24	16	59	32	916	3.0	-187484.0	-2061.0	-233426.0
24	16	59	32	916	4.0	-188441.0	-2092.0	-236577.0
24	16	59	32	917	5.0	-189047.0	-2113.0	-238654.0
24	16	59	32	918	6.0	-189124.0	-2131.0	-239425.0
24	16	59	32	918	7.0	-189134.0	-2142.0	-239372.0
24	16	59	32	919	8.0	-189272.0	-2161.0	-237647.0
24	16	59	32	920	10.0	-189496.0	-2191.0	-234801.0
24	16	59	32	920	11.0	-189891.0	-2204.0	-233481.0
24	16	59	32	921	12.0	-190292.0	-2225.0	-232431.0
24	16	59	32	921	13.0	-190958.0	-2247.0	-230309.0
24	16	59	32	954	14.0	-191994.0	-2237.0	-225844.0
24	16	59	32	955	15.0	-193081.0	-2269.0	-219468.0
24	16	59	32	956	16.0	-194272.0	-2296.0	-215232.0
24	16	59	32	956	17.0	-194864.0	-2304.0	-213882.0
24	16	59	32	957	18.0	-195276.0	-2321.0	-214581.0
24	16	59	32	957	19.0	-195584.0	-2343.0	-217025.0
24	16	59	32	958	20.0	-196383.0	-2360.0	-218815.0
24	16	59	32	959	21.0	-196806.0	-2380.0	-220107.0
24	16	59	32	959	22.0	-196913.0	-2406.0	-221146.0
24	16	59	32	960	23.0	-196972.0	-2419.0	-221910.0
24	16	59	32	960	24.0	-197342.0	-2416.0	-222376.0
24	16	59	32	961	25.0	-195415.0	-2436.0	-223090.0
24	16	59	32	962	26.0	-182516.0	-2456.0	-224476.0
24	16	59	32	962	27.0	-168164.0	-2482.0	-224912.0
24	16	59	32	963	28.0	-158415.0	-2508.0	-224861.0
24	16	59	32	964	29.0	-154266.0	-2531.0	-225608.0
24	16	59	32	964	33.0	-174566.0	-2598.0	-225790.0
24	16	59	32	965	34.0	-180000.0	-2593.0	-220547.0
24	16	59	32	965	35.0	-182477.0	-2610.0	-215603.0
24	16	59	32	966	36.0	-184161.0	-2620.0	-214941.0
24	16	59	32	967	37.0	-188337.0	-2639.0	-213577.0
24	16	59	32	967	38.0	-191861.0	-2658.0	-211680.0
24	16	59	32	968	39.0	-194552.0	-2668.0	-211584.0
24	16	59	33	0	40.0	-196654.0	-2688.0	-212453.0
24	16	59	33	1	41.0	-198266.0	-2702.0	-213270.0
24	16	59	33	1	42.0	-200698.0	-2714.0	-214264.0
24	16	59	33	2	43.0	-203831.0	-2719.0	-215119.0
24	16	59	33	3	44.0	-206541.0	-2739.0	-215278.0
24	16	59	33	4	45.0	-207809.0	-2766.0	-215280.0
24	16	59	33	4	46.0	-208186.0	-2784.0	-215679.0
24	16	59	33	5	47.0	-208345.0	-2806.0	-216247.0
24	16	59	33	6	48.0	-207899.0	-2835.0	-216151.0
24	16	59	33	6	49.0	-206819.0	-2860.0	-215890.0
24	16	59	33	7	50.0	-205839.0	-2870.0	-216226.0
24	16	59	33	7	51.0	-205671.0	-2896.0	-216696.0
24	16	59	33	8	52.0	-206447.0	-2908.0	-216586.0
24	16	59	33	9	53.0	-208227.0	-2927.0	-216849.0
24	16	59	33	9	54.0	-210190.0	-2939.0	-217047.0
24	16	59	33	10	55.0	-211349.0	-2952.0	-217274.0
24	16	59	33	11	56.0	-210968.0	-2981.0	-216179.0
24	16	59	33	11	57.0	-208130.0	-2999.0	-215888.0
24	16	59	33	12	58.0	-203874.0	-3006.0	-215904.0
24	16	59	33	12	59.0	-199413.0	-3033.0	-215787.0
24	16	59	33	13	60.0	-194269.0	-3021.0	-215981.0
24	16	59	33	14	61.0	-188307.0	-3039.0	-216466.0
24	16	59	33	45	62.0	-182338.0	-3059.0	-216539.0
24	16	59	33	46	63.0	-176246.0	-3081.0	-216665.0
24	16	59	33	46	64.0	-171088.0	-3116.0	-217077.0
24	16	59	33	47	65.0	-166949.0	-3121.0	-217324.0
24	16	59	33	48	66.0	-163952.0	-3129.0	-217001.0
24	16	59	33	48	67.0	-162081.0	-3169.0	-217141.0
24	16	59	33	49	68.0	-161031.0	-3193.0	-216905.0
24	16	59	33	50	69.0	-160116.0	-3207.0	-216442.0
24	16	59	33	50	70.0	-159111.0	-3234.0	-216216.0
24	16	59	33	51	71.0	-158329.0	-3245.0	-216512.0
24	16	59	33	51	72.0	-157752.0	-3274.0	-215473.0
24	16	59	33	52	73.0	-157360.0	-3308.0	-214723.0
24	16	59	33	53	74.0	-157361.0	-3331.0	-213965.0
24	16	59	33	53	75.0	-157736.0	-3353.0	-213639.0
24	16	59	33	54	76.0	-158917.0	-3352.0	-213307.0
24	16	59	33	55	78.0	-163681.0	-3404.0	-213065.0
24	16	59	33	55	79.0	-167057.0	-3434.0	-212905.0
24	16	59	33	56	80.0	-170281.0	-3441.0	-212837.0
24	16	59	33	56	81.0	-172677.0	-3429.0	-213547.0
24	16	59	33	57	82.0	-174416.0	-3440.0	-213156.0
24	16	59	33	58	83.0	-175812.0	-3450.0	-214024.0
24	16	59	33	91	84.0	-177046.0	-3481.0	-213986.0
24	16	59	33	91	85.0	-178677.0	-3507.0	-213818.0
24	16	59	33	92	86.0	-180632.0	-3521.0	-213895.0
24	16	59	33	93	87.0	-182404.0	-3544.0	-214149.0
24	16	59	33	93	88.0	-183255.0	-3559.0	-214585.0
24	16	59	33	94	89.0	-183988.0	-3564.0	-214546.0
24	16	59	33	95	90.0	-185608.0	-3593.0	-215034.0
24	16	59	33	95	91.0	-187126.0	-3610.0	-214652.0
24	16	59	33	96	92.0	-187941.0	-3621.0	-214785.0
24	16	59	33	97	93.0	-188467.0	-3623.0	-214979.0
24	16	59	33	97	94.0	-188722.0	-3634.0	-214453.0
24	16	59	33	98	95.0	-188758.0	-3653.0	-214223.0
24	16	59	33	98	96.0	-188450.0	-3675.0	-213955.0
24	16	59	33	99	97.0	-188021.0	-3683.0	-214356.0
24	16	59	33	100	98.0	-187167.0	-3691.0	-213855.0
24	16	59	33	100	100.0	-185211.0	-3681.0	-214203.0
24	16	59	33	101	101.0	-184141.0	-3696.0	-213545.0
24	16	59	33	102	102.0	-183086.0	-3686.0	-213891.0
24	16	59	33	102	103.0	-181513.0	-3668.0	-214059.0
24	16	59	33	103	104.0	-179880.0	-3662.0	-213953.0
24	16	59	33	103	105.0	-178198.0	-3665.0	-214343.0
24	16	59	33	104	106.0	-176317.0	-3653.0	-214753.0
24	16	59	33	136	107.0	-174244.0	-3613.0	-215177.0
24	16	59	33	137	108.0	-172247.0	-3591.0	-215039.0
24	16	59	33	137	109.0	-170335.0	-3577.0	-214884.0
24	16	59	33	138	110.0	-169101.0	-3554.0	-215546.0
24	16	59	33	139	111.0	-168692.0	-3526.0	-215612.0
24	16	59	33	139	112.0	-168979.0	-3483.0	-215506.0
24	16	59	33	140	113.0	-169862.0	-3434.0	-215616.0
24	16	59	33	141	114.0	-170934.0	-3396.0	-216039.0
24	16	59	33	141	115.0	-171624.0	-3360.0	-216339.0
24	16	59	33	142	116.0	-172552.0	-3326.0	-215944.0
24	16	59	33	143	117.0	-173534.0	-3282.0	-215531.0
24	16	59	33	143	118.0	-174403.0	-3239.0	-215426.0
24	16	59	33	144	119.0	-175329.0	-3204.0	-216289.0
24	16	59	33	144	120.0	-176887.0	-3142.0	-216869.0
24	16	59	33	145	121.0	-178854.0	-3071.0	-216941.0
24	16	59	33	146	123.0	-183847.0	-2974.0	-216679.0
24	16	59	33	146	124.0	-185966.0	-2917.0	-216896.0
24	16	59	33	147	125.0	-187681.0	-2853.0	-216986.0
24	16	59	33	148	126.0	-189843.0	-2784.0	-216974.0
24	16	59	33	148	127.0	-191901.0	-2692.0	-216643.0
24	16	59	33	149	128.0	-193674.0	-2636.0	-216511.0
24	16	59	33	181	129.0	-195732.0	-2592.0	-216098.0
24	16	59	33	182	130.0	-197562.0	-2517.0	-215527.0
24	16	59	33	182	131.0	-199014.0	-2459.0	-214951.0
24	16	59	33	184	132.0	-200203.0	-2389.0	-214003.0
24	16	59	33	185	133.0	-201254.0	-2339.0	-213386.0
24	16	59	33	185	134.0	-201897.0	-2284.0	-213177.0
24	16	59	33	186	135.0	-201543.0	-2215.0	-212952.0
24	16	59	33	187	136.0	-200621.0	-2166.0	-212799.0
24	16	59	33	187	137.0	-199528.0	-2097.0	-211991.0
24	16	59	33	188	138.0	-198376.0	-2041.0	-211381.0
24	16	59	33	189	139.0	-197541.0	-1999.0	-210913.0
24	16	59	33	189	140.0	-196352.0	-1956.0	-209844.0
24	16	59	33	190	141.0	-195436.0	-1918.0	-209634.0
24	16	59	33	190	142.0	-194170.0	-1858.0	-208933.0
24	16	59	33	191	143.0	-191941.0	-1797.0	-208767.0
24	16	59	33	192	145.0	-186527.0	-1709.0	-208292.0
24	16	59	33	192	146.0	-184408.0	-1681.0	-208397.0
24	16	59	33	193	147.0	-182497.0	-1626.0	-208299.0
24	16	59	33	193	148.0	-180327.0	-1590.0	-208050.0
24	16	59	33	194	149.0	-177434.0	-1542.0	-207860.0
24	16	59	33	195	150.0	-172853.0	-1504.0	-207733.0
24	16	59	33	226	151.0	-165320.0	-1456.0	-207031.0
24	16	59	33	227	152.0	-154522.0	-1417.0	-206462.0
24	16	59	33	227	153.0	-140188.0	-1367.0	-205858.0
24	16	59	33	228	154.0	-133763.0	-1346.0	-205721.0
24	16	59	33	229	155.0	-143217.0	-1307.0	-205509.0
24	16	59	33	229	156.0	-156707.0	-1269.0	-205614.0
24	16	59	33	230	157.0	-170514.0	-1241.0	-205146.0
24	16	59	33	231	158.0	-174692.0	-1204.0	-204092.0
24	16	59	33	231	159.0	-178162.0	-1182.0	-203518.0
24	16	59	33	232	160.0	-180017.0	-1187.0	-203690.0
24	16	59	33	233	161.0	-181995.0	-1144.0	-202888.0
24	16	59	33	233	162.0	-186359.0	-1108.0	-202604.0
24	16	59	33	234	163.0	-189216.0	-1084.0	-202424.0
24	16	59	33	235	164.0	-189427.0	-1074.0	-202642.0
24	16	59	33	235	165.0	-188183.0	-1044.0	-202816.0
24	16	59	33	236	167.0	-184607.0	-1011.0	-202909.0
24	16	59	33	236	168.0	-184453.0	-1000.0	-202678.0
24	16	59	33	237	169.0	-185972.0	-987.0	-203053.0
24	16	59	33	238	170.0	-187443.0	-976.0	-203052.0
24	16	59	33	238	171.0	-188636.0	-958.0	-201722.0
24	16	59	33	239	172.0	-188789.0	-941.0	-200961.0
24	16	59	33	239	173.0	-191444.0	-931.0	-200838.0
24	16	59	33	270	174.0	-194464.0	-919.0	-200343.0
24	16	59	33	270	175.0	-194609.0	-892.0	-199763.0
24	16	59	33	271	176.0	-194114.0	-861.0	-199512.0
24	16	59	33	272	177.0	-192836.0	-873.0	-199467.0
24	16	59	33	272	178.0	-192244.0	-874.0	-198764.0
24	16	59	33	273	179.0	-191714.0	-860.0	-198951.0
24	16	59	33	274	180.0	-191784.0	-844.0	-198609.0
24	16	59	33	274	181.0	-191744.0	-848.0	-197326.0
24	16	59	33	275	182.0	-191402.0	-844.0	-196906.0
24	16	59	33	276	183.0	-190859.0	-821.0	-196055.0
24	16	59	33	276	184.0	-190249.0	-842.0	-195750.0
24	16	59	33	277	185.0	-189565.0	-845.0	-195501.0
24	16	59	33	278	186.0	-188797.0	-833.0	-195312.0
24	16	59	33	278	187.0	-187723.0	-815.0	-195028.0
24	16	59	33	279	188.0	-186177.0	-830.0	-195222.0
24	16	59	33	280	190.0	-183470.0	-865.0	-194731.0
24	16	59	33	280	191.0	-182845.0	-861.0	-194242.0
24	16	59	33	281	192.0	-182537.0	-867.0	-193696.0
24	16	59	33	282	193.0	-182321.0	-866.0	-192669.0
24	16	59	33	282	194.0	-182501.0	-860.0	-192914.0
24	16	59	33	283	195.0	-183204.0	-856.0	-192597.0
24	16	59	33	315	196.0	-184371.0	-864.0	-192378.0
24	16	59	33	316	197.0	-185216.0	-872.0	-192432.0
24	16	59	33	317	198.0	-185607.0	-866.0	-192537.0
24	16	59	33	317	199.0	-185646.0	-869.0	-192044.0
24	16	59	33	318	200.0	-185569.0	-897.0	-191049.0
24	16	59	33	319	201.0	-187842.0	-909.0	-190736.0
24	16	59	33	319	202.0	-191018.0	-927.0	-190452.0
24	16	59	33	320	203.0	-193554.0	-944.0	-189903.0
24	16	59	33	321	204.0	-195897.0	-971.0	-189996.0
24	16	59	33	321	205.0	-197816.0	-987.0	-189710.0
24	16	59	33	322	206.0	-199937.0	-1014.0	-189293.0
24	16	59	33	323	207.0	-201506.0	-1049.0	-188575.0
24	16	59	33	323	208.0	-202604.0	-1047.0	-188247.0
24	16	59	33	324	209.0	-203394.0	-1051.0	-188281.0
24	16	59	33	325	210.0	-203740.0	-1066.0	-187883.0
24	16	59	33	325	212.0	-203913.0	-1127.0	-187173.0
24	16	59	33	326	213.0	-203931.0	-1128.0	-186867.0
24	16	59	33	326	214.0	-204366.0	-1137.0	-187220.0
24	16	59	33	327	215.0	-205076.0	-1161.0	-186992.0
24	16	59	33	328	216.0	-206137.0	-1168.0	-187315.0
24	16	59	33	328	217.0	-207668.0	-1187.0	-187259.0
24	16	59	33	329	218.0	-208682.0	-1206.0	-186835.0
24	16	59	33	360	219.0	-208813.0	-1217.0	-187129.0
24	16	59	33	361	220.0	-208573.0	-1231.0	-186821.0
24	16	59	33	362	221.0	-208141.0	-1255.0	-186362.0
24	16	59	33	362	222.0	-207829.0	-1265.0	-185881.0
24	16	59	33	363	223.0	-207235.0	-1287.0	-185517.0
24	16	59	33	364	224.0	-206311.0	-1319.0	-185787.0
24	16	59	33	364	225.0	-205200.0	-1336.0	-185557.0
24	16	59	33	365	226.0	-204132.0	-1344.0	-185689.0
24	16	59	33	366	227.0	-202703.0	-1351.0	-186007.0
24	16	59	33	366	228.0	-201105.0	-1367.0	-186109.0
24	16	59	33	367	229.0	-199261.0	-1392.0	-186328.0
24	16	59	33	368	230.0	-197567.0	-1412.0	-186892.0
24	16	59	33	368	231.0	-196125.0	-1431.0	-186632.0
24	16	59	33	369	232.0	-194846.0	-1436.0	-186722.0
24	16	59	33	369	233.0	-193681.0	-1442.0	-187715.0
24	16	59	33	370	235.0	-192650.0	-1459.0	-187079.0
24	16	59	33	371	236.0	-192176.0	-1466.0	-186432.0
24	16	59	33	371	237.0	-191547.0	-1467.0	-186684.0
24	16	59	33	372	238.0	-191121.0	-1479.0	-187016.0
24	16	59	33	372	239.0	-190829.0	-1490.0	-186599.0
24	16	59	33	373	240.0	-190449.0	-1504.0	-185926.0
24	16	59	33	406	241.0	-190517.0	-1524.0	-185309.0
24	16	59	33	407	242.0	-191543.0	-1501.0	-185032.0
24	16	59	33	408	243.0	-193651.0	-1502.0	-184890.0
24	16	59	33	408	244.0	-196337.0	-1524.0	-184488.0
24	16	59	33	409	245.0	-199442.0	-1544.0	-184537.0
24	16	59	33	409	246.0	-202825.0	-1562.0	-184103.0
24	16	59	33	410	247.0	-205774.0	-1559.0	-184159.0
24	16	59	33	410	248.0	-208062.0	-1558.0	-183516.0
24	16	59	33	411	249.0	-209791.0	-1572.0	-183209.0
24	16	59	33	412	250.0	-211084.0	-1596.0	-183316.0
24	16	59	33	412	251.0	-212054.0	-1599.0	-182924.0
24	16	59	33	413	252.0	-213156.0	-1605.0	-183200.0
24	16	59	33	413	253.0	-214550.0	-1597.0	-183176.0
24	16	59	33	414	254.0	-216024.0	-1617.0	-182482.0
24	16	59	33	414	255.0	-217629.0	-1644.0	-181577.0
24	16	59	33	415	1.0	-220087.0	-1655.0	-180597.0
24	16	59	33	416	2.0	-220886.0	-1657.0	-180302.0
24	16	59	33	416	3.0	-221195.0	-1654.0	-180606.0
24	16	59	33	417	4.0	-221438.0	-1677.0	-180756.0
24	16	59	33	417	5.0	-221807.0	-1676.0	-180631.0
24	16	59	33	418	6.0	-221946.0	-1684.0	-180321.0
24	16	59	33	418	7.0	-221301.0	-1688.0	-180326.0
24	16	59	33	450	8.0	-220242.0	-1703.0	-180754.0
24	16	59	33	451	9.0	-218914.0	-1700.0	-180945.0
24	16	59	33	451	10.0	-217394.0	-1705.0	-181529.0
24	16	59	33	452	11.0	-215624.0	-1723.0	-180791.0
24	16	59	33	453	12.0	-214117.0	-1735.0	-180806.0
24	16	59	33	453	13.0	-212571.0	-1742.0	-182021.0
24	16	59	33	454	14.0	-210937.0	-1770.0	-182167.0
24	16	59	33	454	15.0	-208852.0	-1768.0	-181633.0
24	16	59	33	455	16.0	-205924.0	-1787.0	-181757.0
24	16	59	33	455	17.0	-202777.0	-1820.0	-181884.0
24	16	59	33	456	18.0	-199804.0	-1827.0	-182227.0
24	16	59	33	456	19.0	-196850.0	-1821.0	-183005.0
24	16	59	33	457	20.0	-194147.0	-1832.0	-183322.0
24	16	59	33	458	21.0	-191747.0	-1851.0	-184411.0
24	16	59	33	458	22.0	-189612.0	-1856.0	-186281.0
24	16	59	33	459	24.0	-186276.0	-1891.0	-191226.0
24	16	59	33	459	25.0	-185312.0	-1909.0	-193683.0
24	16	59	33	460	26.0	-184827.0	-1900.0	-195140.0
24	16	59	33	460	27.0	-184874.0	-1909.0	-196091.0
24	16	59	33	461	28.0	-185312.0	-1906.0	-195476.0
24	16	59	33	462	29.0	-185915.0	-1921.0	-193736.0
24	16	59	33	495	30.0	-186919.0	-1946.0	-191620.0
24	16	59	33	506	31.0	-187981.0	-1972.0	-190504.0
24	16	59	33	506	32.0	-189441.0	-1986.0	-189387.0
24	16	59	33	507	33.0	-191679.0	-2011.0	-188041.0
24	16	59	33	507	34.0	-195149.0	-2025.0	-184592.0
24	16	59	33	508	35.0	-199350.0	-2040.0	-179429.0
24	16	59	33	508	36.0	-203783.0	-2081.0	-173118.0
24	16	59	33	509	37.0	-208166.0	-2094.0	-169166.0
24	16	59	33	510	38.0	-212484.0	-2097.0	-168425.0
24	16	59	33	510	39.0	-216826.0	-2129.0	-168741.0
24	16	59	33	511	40.0	-220748.0	-2162.0	-171017.0
24	16	59	33	511	41.0	-224019.0	-2158.0	-173001.0
24	16	59	33	540	42.0	-226447.0	-2176.0	-173436.0
24	16	59	33	541	43.0	-228871.0	-2188.0	-174139.0
24	16	59	33	541	44.0	-231256.0	-2195.0	-174082.0
24	16	59	33	542	46.0	-226274.0	-2258.0	-175825.0
24	16	59	33	542	47.0	-211675.0	-2273.0	-176252.0
24	16	59	33	543	48.0	-199456.0	-2287.0	-176382.0
24	16	59	33	544	49.0	-190162.0	-2317.0	-176717.0
24	16	59	33	544	50.0	-187703.0	-2340.0	-176883.0
24	16	59	33	545	51.0	-189554.0	-2338.0	-177408.0
24	16	59	33	545	52.0	-194272.0	-2367.0	-177361.0
24	16	59	33	546	53.0	-199917.0	-2392.0	-176739.0
24	16	59	33	547	54.0	-204293.0	-2413.0	-176654.0
24	16	59	33	547	55.0	-206134.0	-2424.0	-176655.0
24	16	59	33	548	56.0	-205735.0	-2438.0	-176403.0
24	16	59	33	549	57.0	-204943.0	-2476.0	-176394.0
24	16	59	33	549	69.0	-192376.0	-2700.0	-179434.0
24	16	59	33	557	70.0	-189956.0	-2714.0	-179567.0
24	16	59	33	558	71.0	-188587.0	-2739.0	-179636.0
24	16	59	33	558	72.0	-188807.0	-2759.0	-179867.0
24	16	59	33	559	73.0	-190899.0	-2750.0	-180771.0
24	16	59	33	559	74.0	-194268.0	-2772.0	-180502.0
24	16	59	33	585	75.0	-197807.0	-2777.0	-180361.0
24	16	59	33	586	76.0	-200022.0	-2799.0	-180846.0
24	16	59	33	586	77.0	-199993.0	-2823.0	-181809.0
24	16	59	33	587	78.0	-198827.0	-2836.0	-182039.0
24	16	59	33	587	79.0	-197147.0	-2856.0	-181742.0
24	16	59	33	588	80.0	-195125.0	-2885.0	-181866.0
24	16	59	33	588	81.0	-192867.0	-2889.0	-182321.0
24	16	59	33	589	82.0	-190781.0	-2923.0	-182477.0
24	16	59	33	590	83.0	-189399.0	-2946.0	-183163.0
24	16	59	33	590	84.0	-188530.0	-2951.0	-183291.0
24	16	59	33	591	85.0	-188181.0	-2974.0	-183141.0
24	16	59	33	591	86.0	-188570.0	-3010.0	-183086.0
24	16	59	33	592	87.0	-189393.0	-3027.0	-183600.0
24	16	59	33	593	88.0	-189906.0	-3056.0	-183797.0
24	16	59	33	593	89.0	-190268.0	-3059.0	-184415.0
24	16	59	33	594	91.0	-189671.0	-3117.0	-184136.0
24	16	59	33	594	92.0	-188593.0	-3151.0	-184421.0
24	16	59	33	595	93.0	-187144.0	-3154.0	-184211.0
24	16	59	33	596	94.0	-185358.0	-3151.0	-184266.0
24	16	59	33	596	95.0	-183590.0	-3196.0	-184777.0
24	16	59	33	597	96.0	-181859.0	-3205.0	-184722.0
24	16	59	33	597	97.0	-180506.0	-3194.0	-184904.0
24	16	59	33	629	98.0	-179770.0	-3198.0	-184854.0
24	16	59	33	630	99.0	-179353.0	-3221.0	-185482.0
24	16	59	33	631	100.0	-179081.0	-3248.0	-185573.0
24	16	59	33	631	101.0	-178584.0	-3269.0	-185906.0
24	16	59	33	632	102.0	-178538.0	-3285.0	-186487.0
24	16	59	33	632	103.0	-179192.0	-3286.0	-186564.0
24	16	59	33	633	104.0	-180542.0	-3306.0	-185737.0
24	16	59	33	634	105.0	-182134.0	-3341.0	-185791.0
24	16	59	33	634	106.0	-183272.0	-3364.0	-185727.0
24	16	59	33	635	107.0	-184267.0	-3389.0	-185919.0
24	16	59	33	635	108.0	-185720.0	-3399.0	-186483.0
24	16	59	33	636	109.0	-187256.0	-3406.0	-186436.0
24	16	59	33	636	110.0	-188712.0	-3415.0	-186441.0
24	16	59	33	637	111.0	-189979.0	-3456.0	-186673.0
24	16	59	33	638	112.0	-190686.0	-3476.0	-186934.0
24	16	59	33	676	114.0	-191251.0	-3506.0	-186201.0
24	16	59	33	676	115.0	-191889.0	-3527.0	-186763.0
24	16	59	33	677	116.0	-193021.0	-3533.0	-186321.0
24	16	59	33	678	117.0	-194642.0	-3534.0	-185884.0
24	16	59	33	678	118.0	-196344.0	-3554.0	-185978.0
24	16	59	33	679	119.0	-198237.0	-3556.0	-186216.0
24	16	59	33	679	120.0	-199739.0	-3564.0	-186183.0
24	16	59	33	680	121.0	-200761.0	-3570.0	-185119.0
24	16	59	33	681	122.0	-201419.0	-3571.0	-185077.0
24	16	59	33	681	123.0	-202734.0	-3562.0	-185080.0
24	16	59	33	682	124.0	-204356.0	-3570.0	-184161.0
24	16	59	33	682	125.0	-206367.0	-3566.0	-183689.0
24	16	59	33	683	126.0	-208729.0	-3567.0	-184084.0
24	16	59	33	684	127.0	-210431.0	-3551.0	-183403.0
24	16	59	33	685	128.0	-210802.0	-3523.0	-183063.0
24	16	59	33	686	136.0	-208627.0	-3271.0	-181157.0
24	16	59	33	686	137.0	-209001.0	-3220.0	-181163.0
24	16	59	33	687	138.0	-208921.0	-3173.0	-181307.0
24	16	59	33	687	139.0	-208781.0	-3121.0	-180967.0
24	16	59	33	688	140.0	-208350.0	-3067.0	-181291.0
24	16	59	33	688	141.0	-207679.0	-3000.0	-181386.0
24	16	59	33	720	142.0	-207130.0	-2928.0	-181143.0
24	16	59	33	721	143.0	-206890.0	-2869.0	-181435.0
24	16	59	33	722	144.0	-206937.0	-2805.0	-180557.0
24	16	59	33	723	145.0	-206719.0	-2752.0	-180160.0
24	16	59	33	723	146.0	-206642.0	-2686.0	-179289.0
24	16	59	33	724	147.0	-205650.0	-2631.0	-179627.0
24	16	59	33	725	148.0	-204686.0	-2576.0	-179514.0
24	16	59	33	725	149.0	-203306.0	-2519.0	-179063.0
24	16	59	33	726	150.0	-201680.0	-2461.0	-179117.0
24	16	59	33	726	151.0	-199866.0	-2407.0	-179604.0
24	16	59	33	727	152.0	-198409.0	-2334.0	-179532.0
24	16	59	33	727	153.0	-197225.0	-2251.0	-179902.0
24	16	59	33	728	154.0	-196175.0	-2202.0	-179652.0
24	16	59	33	729	155.0	-195296.0	-2161.0	-178949.0
24	16	59	33	729	156.0	-194576.0	-2122.0	-179097.0
24	16	59	33	730	158.0	-192975.0	-2001.0	-178825.0
24	16	59	33	730	159.0	-192002.0	-1960.0	-178532.0
24	16	59	33	731	160.0	-190606.0	-1877.0	-178726.0
24	16	59	33	732	161.0	-189426.0	-1816.0	-178746.0
24	16	59	33	732	162.0	-188636.0	-1740.0	-178438.0
24	16	59	33	733	163.0	-188096.0	-1709.0	-178511.0
24	16	59	33	733	164.0	-187675.0	-1656.0	-178211.0
24	16	59	33	765	165.0	-187576.0	-1592.0	-178349.0
24	16	59	33	766	166.0	-187506.0	-1528.0	-178757.0
24	16	59	33	766	167.0	-187526.0	-1487.0	-178997.0
24	16	59	33	767	168.0	-187707.0	-1456.0	-178644.0
24	16	59	33	767	169.0	-187684.0	-1403.0	-178789.0
24	16	59	33	768	170.0	-187440.0	-1369.0	-179097.0
24	16	59	33	769	171.0	-186303.0	-1336.0	-178379.0
24	16	59	33	769	172.0	-182375.0	-1303.0	-177827.0
24	16	59	33	770	173.0	-175311.0	-1274.0	-177859.0
24	16	59	33	770	174.0	-165361.0	-1224.0	-177373.0
24	16	59	33	771	175.0	-155181.0	-1173.0	-177397.0
24	16	59	33	771	176.0	-160708.0	-1161.0	-178228.0
24	16	59	33	772	177.0	-174246.0	-1130.0	-178584.0
24	16	59	33	773	178.0	-187237.0	-1069.0	-178332.0
24	16	59	33	773	179.0	-192756.0	-1042.0	-178053.0
24	16	59	33	774	181.0	-194907.0	-997.0	-177427.0
24	16	59	33	774	182.0	-195707.0	-969.0	-177844.0
24	16	59	33	775	183.0	-198269.0	-939.0	-177842.0
24	16	59	33	775	184.0	-201509.0	-926.0	-177216.0
24	16	59	33	776	185.0	-202479.0	-875.0	-177293.0
24	16	59	33	777	186.0	-201388.0	-836.0	-178127.0
24	16	59	33	811	187.0	-198836.0	-821.0	-177688.0
24	16	59	33	811	188.0	-196043.0	-816.0	-177221.0
24	16	59	33	812	189.0	-195080.0	-809.0	-177447.0
24	16	59	33	813	190.0	-196639.0	-796.0	-176586.0
24	16	59	33	813	191.0	-197528.0	-782.0	-176577.0
24	16	59	33	814	192.0	-198801.0	-769.0	-177104.0
24	16	59	33	815	193.0	-203256.0	-750.0	-176904.0
24	16	59	33	815	194.0	-206042.0	-741.0	-176353.0
24	16	59	33	816	195.0	-207251.0	-731.0	-176614.0
24	16	59	33	816	196.0	-207100.0	-729.0	-176794.0
24	16	59	33	817	197.0	-206054.0	-719.0	-176966.0
24	16	59	33	818	198.0	-204707.0	-689.0	-176808.0
24	16	59	33	818	199.0	-203586.0	-691.0	-176996.0
24	16	59	33	819	200.0	-202375.0	-698.0	-177417.0
24	16	59	33	819	201.0	-201667.0	-683.0	-177568.0
24	16	59	33	820	203.0	-201425.0	-689.0	-178224.0
24	16	59	33	820	204.0	-200989.0	-684.0	-179326.0
24	16	59	33	821	205.0	-200199.0	-676.0	-179545.0
24	16	59	33	822	206.0	-199435.0	-672.0	-179355.0
24	16	59	33	822	207.0	-198506.0	-654.0	-179588.0
24	16	59	33	823	208.0	-197641.0	-641.0	-179376.0
24	16	59	33	823	209.0	-196745.0	-649.0	-179419.0
24	16	59	33	855	210.0	-195612.0	-646.0	-180011.0
24	16	59	33	856	211.0	-194520.0	-646.0	-181924.0
24	16	59	33	856	212.0	-194229.0	-669.0	-180862.0
24	16	59	33	857	213.0	-194474.0	-657.0	-179144.0
24	16	59	33	858	214.0	-195020.0	-656.0	-179676.0
24	16	59	33	858	215.0	-195517.0	-671.0	-179673.0
24	16	59	33	859	216.0	-195881.0	-676.0	-179627.0
24	16	59	33	859	217.0	-196269.0	-684.0	-179927.0
24	16	59	33	860	218.0	-196526.0	-698.0	-179905.0
24	16	59	33	861	219.0	-196699.0	-722.0	-178607.0
24	16	59	33	861	220.0	-196776.0	-717.0	-178403.0
24	16	59	33	862	221.0	-196684.0	-751.0	-178633.0
24	16	59	33	862	222.0	-196758.0	-764.0	-178582.0
24	16	59	33	863	223.0	-197200.0	-757.0	-178319.0
24	16	59	33	864	224.0	-197831.0	-767.0	-178269.0
24	16	59	33	864	226.0	-199102.0	-792.0	-178777.0
24	16	59	33	865	227.0	-200004.0	-821.0	-177977.0
24	16	59	33	865	228.0	-200591.0	-819.0	-178218.0
24	16	59	33	866	229.0	-201254.0	-848.0	-177954.0
24	16	59	33	866	230.0	-202704.0	-861.0	-177822.0
24	16	59	33	867	231.0	-204052.0	-893.0	-177873.0
24	16	59	33	900	232.0	-205047.0	-921.0	-177547.0
24	16	59	33	901	233.0	-206022.0	-939.0	-176747.0
24	16	59	33	901	234.0	-206907.0	-956.0	-177076.0
24	16	59	33	902	235.0	-207555.0	-984.0	-177617.0
24	16	59	33	902	236.0	-206981.0	-1003.0	-177515.0
24	16	59	33	903	237.0	-206557.0	-1007.0	-177544.0
24	16	59	33	904	238.0	-206520.0	-1042.0	-177461.0
24	16	59	33	904	239.0	-206581.0	-1071.0	-177649.0
24	16	59	33	905	240.0	-206586.0	-1089.0	-177546.0
24	16	59	33	905	241.0	-206222.0	-1109.0	-178041.0
24	16	59	33	906	242.0	-205729.0	-1134.0	-178211.0
24	16	59	33	907	243.0	-204946.0	-1147.0	-177556.0
24	16	59	33	907	244.0	-204079.0	-1162.0	-176837.0
24	16	59	33	908	245.0	-203394.0	-1172.0	-177011.0
24	16	59	33	909	246.0	-202689.0	-1188.0	-177801.0
24	16	59	33	909	248.0	-200815.0	-1244.0	-177286.0
24	16	59	33	910	249.0	-200148.0	-1242.0	-177417.0
24	16	59	33	911	250.0	-200011.0	-1265.0	-177386.0
24	16	59	33	911	251.0	-200389.0	-1295.0	-177146.0
24	16	59	33	912	252.0	-201247.0	-1306.0	-177891.0
24	16	59	33	913	253.0	-201897.0	-1296.0	-177831.0
24	16	59	33	913	254.0	-202526.0	-1304.0	-177286.0
24	16	59	33	945	255.0	-203042.0	-1301.0	-177029.0
24	16	59	33	946	0.0	-203366.0	-1298.0	-177681.0
24	16	59	33	946	1.0	-203091.0	-1327.0	-177451.0
24	16	59	33	947	2.0	-202643.0	-1332.0	-177368.0
24	16	59	33	947	3.0	-202305.0	-1312.0	-177137.0
24	16	59	33	948	4.0	-201890.0	-1346.0	-177081.0
24	16	59	33	948	5.0	-201044.0	-1379.0	-177047.0
24	16	59	33	949	6.0	-200037.0	-1392.0	-177912.0
24	16	59	33	950	7.0	-198889.0	-1380.0	-177948.0
24	16	59	33	950	8.0	-197627.0	-1392.0	-178255.0
24	16	59	33	951	9.0	-196557.0	-1406.0	-177612.0
24	16	59	33	952	10.0	-195972.0	-1424.0	-177286.0
24	16	59	33	952	11.0	-196098.0	-1454.0	-177348.0
24	16	59	33	953	12.0	-196503.0	-1465.0	-176891.0
24	16	59	33	953	13.0	-197204.0	-1465.0	-176551.0
24	16	59	33	954	15.0	-198774.0	-1462.0	-176943.0
24	16	59	33	955	16.0	-199368.0	-1471.0	-177132.0
24	16	59	33	955	17.0	-200091.0	-1477.0	-176461.0
24	16	59	33	956	18.0	-201372.0	-1499.0	-176683.0
24	16	59	33	956	19.0	-203155.0	-1496.0	-176501.0
24	16	59	33	957	20.0	-205326.0	-1518.0	-176562.0
24	16	59	33	990	21.0	-207573.0	-1526.0	-177059.0
24	16	59	33	991	22.0	-209317.0	-1514.0	-177082.0
24	16	59	33	992	23.0	-210907.0	-1524.0	-176578.0
24	16	59	33	992	24.0	-212154.0	-1552.0	-176554.0
24	16	59	33	993	25.0	-212907.0	-1538.0	-177322.0
24	16	59	33	994	26.0	-213572.0	-1546.0	-177405.0
24	16	59	33	994	27.0	-214682.0	-1567.0	-176471.0
24	16	59	33	995	28.0	-215704.0	-1578.0	-176082.0
24	16	59	33	995	29.0	-216296.0	-1573.0	-176879.0
24	16	59	33	996	30.0	-217022.0	-1600.0	-176883.0
24	16	59	33	997	31.0	-217961.0	-1620.0	-176335.0
24	16	59	33	998	32.0	-218754.0	-1628.0	-176604.0
24	16	59	33	998	33.0	-219274.0	-1633.0	-176640.0
24	16	59	33	999	34.0	-219177.0	-1650.0	-176644.0
24	16	59	34	0	35.0	-218815.0	-1661.0	-177355.0
24	16	59	34	1	37.0	-216979.0	-1706.0	-177383.0
24	16	59	34	1	38.0	-215674.0	-1729.0	-177801.0
24	16	59	34	2	39.0	-214241.0	-1717.0	-177655.0
24	16	59	34	3	40.0	-212383.0	-1717.0	-177846.0
24	16	59	34	3	41.0	-209714.0	-1741.0	-178327.0
24	16	59	34	4	42.0	-207247.0	-1739.0	-179276.0
24	16	59	34	4	43.0	-205133.0	-1749.0	-180700.0
24	16	59	34	35	44.0	-203354.0	-1765.0	-183082.0
24	16	59	34	35	45.0	-201911.0	-1767.0	-185051.0
24	16	59	34	36	46.0	-200382.0	-1793.0	-187057.0
24	16	59	34	37	47.0	-198783.0	-1808.0	-189295.0
24	16	59	34	37	48.0	-197571.0	-1822.0	-190427.0
24	16	59	34	38	49.0	-196308.0	-1834.0	-190719.0
24	16	59	34	39	50.0	-194482.0	-1869.0	-189882.0
24	16	59	34	39	51.0	-192601.0	-1888.0	-187458.0
24	16	59	34	40	52.0	-190821.0	-1904.0	-184945.0
24	16	59	34	40	53.0	-189566.0	-1921.0	-183604.0
24	16	59	34	41	54.0	-189172.0	-1945.0	-183015.0
24	16	59	34	42	55.0	-188868.0	-1985.0	-182105.0
24	16	59	34	43	56.0	-188774.0	-1997.0	-180296.0
24	16	59	34	43	57.0	-188689.0	-2006.0	-176404.0
24	16	59	34	44	58.0	-188601.0	-2021.0	-170497.0
24	16	59	34	45	60.0	-189289.0	-2069.0	-164139.0
24	16	59	34	46	61.0	-190068.0	-2087.0	-165421.0
24	16	59	34	46	62.0	-190832.0	-2087.0	-167396.0
24	16	59	34	47	63.0	-192102.0	-2107.0	-169176.0
24	16	59	34	47	64.0	-194297.0	-2134.0	-170262.0
24	16	59	34	48	65.0	-196609.0	-2137.0	-170683.0
24	16	59	34	81	66.0	-199829.0	-2156.0	-171451.0
24	16	59	34	82	67.0	-202259.0	-2169.0	-172642.0
24	16	59	34	82	68.0	-198502.0	-2174.0	-173227.0
24	16	59	34	83	69.0	-186382.0	-2187.0	-173674.0
24	16	59	34	84	70.0	-175964.0	-2209.0	-174659.0
24	16	59	34	84	71.0	-169341.0	-2233.0	-175235.0
24	16	59	34	85	72.0	-170521.0	-2258.0	-174639.0
24	16	59	34	85	73.0	-177130.0	-2269.0	-174356.0
24	16	59	34	86	74.0	-187267.0	-2308.0	-174342.0
24	16	59	34	87	75.0	-198306.0	-2347.0	-174819.0
24	16	59	34	87	76.0	-207534.0	-2360.0	-174612.0
24	16	59	34	88	77.0	-213301.0	-2367.0	-174911.0
24	16	59	34	88	78.0	-216364.0	-2369.0	-174962.0
24	16	59	34	89	79.0	-218868.0	-2383.0	-175089.0
24	16	59	34	90	80.0	-220644.0	-2415.0	-175491.0
24	16	59	34	90	82.0	-218709.0	-2439.0	-175376.0
24	16	59	34	91	83.0	-216766.0	-2454.0	-175456.0
24	16	59	34	92	84.0	-215813.0	-2459.0	-175132.0
24	16	59	34	92	85.0	-215914.0	-2464.0	-175089.0
24	16	59	34	93	86.0	-216016.0	-2496.0	-175252.0
24	16	59	34	93	87.0	-215221.0	-2516.0	-175187.0
24	16	59	34	94	88.0	-214664.0	-2537.0	-174828.0
24	16	59	34	125	89.0	-214567.0	-2543.0	-175149.0
24	16	59	34	126	90.0	-215128.0	-2540.0	-175033.0
24	16	59	34	126	91.0	-215951.0	-2585.0	-175222.0
24	16	59	34	127	92.0	-216901.0	-2609.0	-175502.0
24	16	59	34	128	93.0	-217691.0	-2603.0	-173795.0
24	16	59	34	136	94.0	-218116.0	-2614.0	-172537.0
24	16	59	34	137	95.0	-217969.0	-2633.0	-172132.0
24	16	59	34	137	96.0	-217965.0	-2664.0	-171901.0
24	16	59	34	138	97.0	-218249.0	-2671.0	-171284.0
24	16	59	34	139	98.0	-217904.0	-2689.0	-171166.0
24	16	59	34	139	99.0	-216787.0	-2699.0	-171909.0
24	16	59	34	140	100.0	-215046.0	-2716.0	-172474.0
24	16	59	34	140	101.0	-213127.0	-2744.0	-171969.0
24	16	59	34	141	102.0	-211235.0	-2774.0	-172782.0
24	16	59	34	141	103.0	-210090.0	-2791.0	-173411.0
24	16	59	34	142	105.0	-206606.0	-2786.0	-174042.0
24	16	59	34	142	106.0	-204736.0	-2809.0	-174159.0
24	16	59	34	143	107.0	-202859.0	-2841.0	-173974.0
24	16	59	34	144	108.0	-201451.0	-2839.0	-174061.0
24	16	59	34	144	109.0	-201217.0	-2851.0	-174194.0
24	16	59	34	145	110.0	-201388.0	-2869.0	-174758.0
24	16	59	34	170	111.0	-200934.0	-2889.0	-175059.0
24	16	59	34	171	112.0	-200414.0	-2900.0	-175258.0
24	16	59	34	172	113.0	-199007.0	-2912.0	-175132.0
24	16	59	34	172	114.0	-196955.0	-2932.0	-175342.0
24	16	59	34	173	115.0	-195214.0	-2966.0	-176269.0
24	16	59	34	174	116.0	-193404.0	-2972.0	-176136.0
24	16	59	34	174	117.0	-191494.0	-2989.0	-175451.0
24	16	59	34	175	118.0	-189834.0	-3014.0	-175334.0
24	16	59	34	176	119.0	-188454.0	-3036.0	-175108.0
24	16	59	34	176	120.0	-187576.0	-3057.0	-175168.0
24	16	59	34	177	121.0	-187256.0	-3075.0	-175796.0
24	16	59	34	178	122.0	-186701.0	-3116.0	-175949.0
24	16	59	34	178	123.0	-185524.0	-3121.0	-175600.0
24	16	59	34	179	124.0	-183691.0	-3122.0	-175967.0
24	16	59	34	180	125.0	-182534.0	-3161.0	-176051.0
24	16	59	34	180	127.0	-180227.0	-3190.0	-175752.0
24	16	59	34	181	128.0	-179912.0	-3222.0	-175906.0
24	16	59	34	182	129.0	-180893.0	-3241.0	-175715.0
24	16	59	34	182	130.0	-182450.0	-3234.0	-175132.0
24	16	59	34	183	131.0	-184359.0	-3243.0	-174866.0
24	16	59	34	183	132.0	-186517.0	-3264.0	-174773.0
24	16	59	34	215	133.0	-188515.0	-3266.0	-174405.0
24	16	59	34	216	134.0	-190952.0	-3281.0	-173789.0
24	16	59	34	217	135.0	-193679.0	-3298.0	-173918.0
24	16	59	34	218	136.0	-196324.0	-3348.0	-173654.0
24	16	59	34	218	137.0	-197907.0	-3358.0	-173362.0
24	16	59	34	219	138.0	-200084.0	-3369.0	-173031.0
24	16	59	34	220	139.0	-202317.0	-3372.0	-172622.0
24	16	59	34	220	140.0	-204212.0	-3360.0	-172974.0
24	16	59	34	221	141.0	-207016.0	-3399.0	-173157.0
24	16	59	34	222	142.0	-209792.0	-3419.0	-172647.0
24	16	59	34	222	143.0	-211832.0	-3408.0	-172271.0
24	16	59	34	223	144.0	-213004.0	-3401.0	-172521.0
24	16	59	34	223	145.0	-213722.0	-3381.0	-172044.0
24	16	59	34	224	146.0	-214011.0	-3371.0	-171619.0
24	16	59	34	225	147.0	-214352.0	-3382.0	-171752.0
24	16	59	34	225	149.0	-215462.0	-3336.0	-171216.0
24	16	59	34	226	150.0	-216522.0	-3322.0	-171286.0
24	16	59	34	226	151.0	-217699.0	-3309.0	-171094.0
24	16	59	34	227	152.0	-218449.0	-3288.0	-171511.0
24	16	59	34	228	153.0	-218296.0	-3244.0	-171395.0
24	16	59	34	228	154.0	-216982.0	-3198.0	-171388.0
24	16	59	34	229	155.0	-215909.0	-3176.0	-171127.0
24	16	59	34	260	156.0	-214929.0	-3119.0	-171267.0
24	16	59	34	260	157.0	-214090.0	-3069.0	-170877.0
24	16	59	34	261	158.0	-213298.0	-3016.0	-170393.0
24	16	59	34	285	159.0	-212169.0	-2969.0	-170677.0
24	16	59	34	285	160.0	-210820.0	-2944.0	-170814.0
24	16	59	34	286	161.0	-209483.0	-2891.0	-170788.0
24	16	59	34	287	162.0	-208731.0	-2827.0	-170916.0
24	16	59	34	287	163.0	-207835.0	-2764.0	-170769.0
24	16	59	34	288	164.0	-206849.0	-2709.0	-170518.0
24	16	59	34	288	165.0	-206111.0	-2641.0	-170569.0
24	16	59	34	289	166.0	-204972.0	-2582.0	-169977.0
24	16	59	34	290	167.0	-203849.0	-2517.0	-169640.0
24	16	59	34	290	168.0	-202362.0	-2450.0	-169519.0
24	16	59	34	291	169.0	-201262.0	-2389.0	-169282.0
24	16	59	34	291	170.0	-200292.0	-2318.0	-169010.0
24	16	59	34	292	172.0	-199874.0	-2193.0	-168814.0
24	16	59	34	292	173.0	-200023.0	-2124.0	-168444.0
24	16	59	34	293	174.0	-199797.0	-2069.0	-168415.0
24	16	59	34	293	175.0	-199154.0	-1987.0	-168261.0
24	16	59	34	294	176.0	-197936.0	-1925.0	-167593.0
24	16	59	34	295	177.0	-196363.0	-1855.0	-167092.0
24	16	59	34	308	178.0	-194509.0	-1780.0	-167086.0
24	16	59	34	309	179.0	-193059.0	-1708.0	-166551.0
24	16	59	34	309	180.0	-191469.0	-1644.0	-166439.0
24	16	59	34	310	181.0	-190789.0	-1608.0	-166454.0
24	16	59	34	311	182.0	-190966.0	-1549.0	-166044.0
24	16	59	34	311	183.0	-191489.0	-1484.0	-165231.0
24	16	59	34	312	184.0	-192909.0	-1422.0	-165252.0
24	16	59	34	313	185.0	-195342.0	-1375.0	-165715.0
24	16	59	34	313	186.0	-198035.0	-1318.0	-164914.0
24	16	59	34	314	187.0	-199914.0	-1270.0	-165158.0
24	16	59	34	315	188.0	-201071.0	-1237.0	-164812.0
24	16	59	34	315	189.0	-201801.0	-1184.0	-164458.0
24	16	59	34	316	190.0	-202164.0	-1136.0	-164321.0
24	16	59	34	316	191.0	-201946.0	-1131.0	-164396.0
24	16	59	34	317	192.0	-201257.0	-1078.0	-164291.0
24	16	59	34	318	194.0	-199627.0	-991.0	-163187.0
24	16	59	34	318	195.0	-195991.0	-942.0	-163521.0
24	16	59	34	319	196.0	-188711.0	-914.0	-163477.0
24	16	59	34	319	197.0	-177884.0	-877.0	-163731.0
24	16	59	34	320	198.0	-169541.0	-837.0	-163660.0
24	16	59	34	321	199.0	-178294.0	-792.0	-163901.0
24	16	59	34	321	200.0	-192225.0	-760.0	-164593.0
24	16	59	34	351	201.0	-205338.0	-721.0	-164947.0
24	16	59	34	351	202.0	-209651.0	-674.0	-165228.0
24	16	59	34	352	203.0	-209818.0	-634.0	-164547.0
24	16	59	34	353	204.0	-208903.0	-619.0	-165117.0
24	16	59	34	354	205.0	-207994.0	-604.0	-165593.0
24	16	59	34	354	206.0	-209045.0	-589.0	-165360.0
24	16	59	34	355	207.0	-210526.0	-554.0	-165099.0
24	16	59	34	355	208.0	-209492.0	-526.0	-165056.0
24	16	59	34	356	209.0	-207321.0	-521.0	-165054.0
24	16	59	34	356	210.0	-204242.0	-512.0	-165216.0
24	16	59	34	395	211.0	-201392.0	-472.0	-165532.0
24	16	59	34	396	212.0	-199654.0	-434.0	-165063.0
24	16	59	34	397	213.0	-198952.0	-422.0	-164894.0
24	16	59	34	398	214.0	-199938.0	-415.0	-164705.0
24	16	59	34	398	215.0	-202041.0	-401.0	-164527.0
24	16	59	34	399	217.0	-205811.0	-388.0	-164664.0
24	16	59	34	400	218.0	-207018.0	-372.0	-163947.0
24	16	59	34	400	219.0	-207454.0	-363.0	-164510.0
24	16	59	34	401	220.0	-206966.0	-339.0	-164197.0
24	16	59	34	402	221.0	-205301.0	-307.0	-164247.0
24	16	59	34	402	222.0	-202699.0	-276.0	-164457.0
24	16	59	34	403	223.0	-199621.0	-272.0	-164764.0
24	16	59	34	403	224.0	-196791.0	-276.0	-164397.0
24	16	59	34	404	225.0	-194554.0	-272.0	-163490.0
24	16	59	34	405	226.0	-192753.0	-274.0	-163393.0
24	16	59	34	405	227.0	-191484.0	-254.0	-164122.0
24	16	59	34	406	240.0	-190061.0	-294.0	-164647.0
24	16	59	34	407	241.0	-192412.0	-314.0	-164369.0
24	16	59	34	407	242.0	-194061.0	-316.0	-164299.0
24	16	59	34	408	243.0	-194512.0	-326.0	-164448.0
24	16	59	34	408	244.0	-194236.0	-340.0	-164564.0
24	16	59	34	409	245.0	-194491.0	-329.0	-164177.0
24	16	59	34	441	246.0	-195528.0	-329.0	-164059.0
24	16	59	34	441	247.0	-197482.0	-357.0	-164155.0
24	16	59	34	442	248.0	-199797.0	-380.0	-164029.0
24	16	59	34	443	249.0	-201822.0	-405.0	-163551.0
24	16	59	34	443	250.0	-203444.0	-428.0	-163397.0
24	16	59	34	444	251.0	-204799.0	-444.0	-163204.0
24	16	59	34	445	252.0	-205623.0	-471.0	-162883.0
24	16	59	34	445	253.0	-205867.0	-494.0	-162571.0
24	16	59	34	446	254.0	-206295.0	-513.0	-162831.0
24	16	59	34	447	255.0	-206295.0	-549.0	-162656.0
24	16	59	34	447	0.0	-205688.0	-571.0	-162224.0
24	16	59	34	448	1.0	-204847.0	-587.0	-161357.0
24	16	59	34	449	2.0	-203995.0	-596.0	-161606.0
24	16	59	34	449	3.0	-203085.0	-623.0	-162136.0
24	16	59	34	450	4.0	-202007.0	-661.0	-161786.0
24	16	59	34	451	6.0	-199335.0	-682.0	-161733.0
24	16	59	34	451	7.0	-198084.0	-683.0	-161660.0
24	16	59	34	452	8.0	-197007.0	-710.0	-162155.0
24	16	59	34	452	9.0	-195967.0	-726.0	-162631.0
24	16	59	34	453	10.0	-195256.0	-731.0	-161934.0
24	16	59	34	454	11.0	-194281.0	-727.0	-161650.0
24	16	59	34	485	12.0	-193059.0	-738.0	-161724.0
24	16	59	34	486	13.0	-192188.0	-766.0	-161682.0
24	16	59	34	486	14.0	-191600.0	-770.0	-161766.0
24	16	59	34	487	15.0	-191027.0	-793.0	-161859.0
24	16	59	34	488	16.0	-190469.0	-804.0	-162009.0
24	16	59	34	488	17.0	-190776.0	-803.0	-161829.0
24	16	59	34	489	18.0	-191734.0	-838.0	-161885.0
24	16	59	34	490	19.0	-192219.0	-849.0	-161437.0
24	16	59	34	490	20.0	-192552.0	-837.0	-161133.0
24	16	59	34	491	21.0	-192876.0	-857.0	-161357.0
24	16	59	34	492	22.0	-193291.0	-875.0	-161672.0
24	16	59	34	492	23.0	-194146.0	-883.0	-161891.0
24	16	59	34	493	24.0	-195564.0	-892.0	-162098.0
24	16	59	34	494	25.0	-197203.0	-909.0	-161885.0
24	16	59	34	494	26.0	-198547.0	-926.0	-161361.0
24	16	59	34	495	28.0	-201947.0	-942.0	-160977.0
24	16	59	34	495	29.0	-203281.0	-959.0	-159848.0
24	16	59	34	496	30.0	-204274.0	-966.0	-159434.0
24	16	59	34	497	31.0	-205291.0	-968.0	-159428.0
24	16	59	34	497	32.0	-206007.0	-977.0	-159742.0
24	16	59	34	498	33.0	-206801.0	-994.0	-159806.0
24	16	59	34	499	34.0	-208136.0	-1004.0	-159977.0
24	16	59	34	529	35.0	-209476.0	-1008.0	-160360.0
24	16	59	34	551	36.0	-210598.0	-1017.0	-159873.0
24	16	59	34	552	37.0	-211847.0	-1033.0	-159799.0
24	16	59	34	552	38.0	-213000.0	-1054.0	-159311.0
24	16	59	34	553	39.0	-213886.0	-1057.0	-158417.0
24	16	59	34	553	40.0	-214471.0	-1079.0	-157914.0
24	16	59	34	554	41.0	-214827.0	-1091.0	-158083.0
24	16	59	34	555	42.0	-215086.0	-1124.0	-157662.0
24	16	59	34	555	43.0	-215415.0	-1144.0	-157908.0
24	16	59	34	556	44.0	-215841.0	-1150.0	-158008.0
24	16	59	34	556	45.0	-215899.0	-1158.0	-157835.0
24	16	59	34	557	46.0	-215763.0	-1157.0	-157177.0
24	16	59	34	557	47.0	-215700.0	-1173.0	-157176.0
24	16	59	34	558	48.0	-215186.0	-1194.0	-156950.0
24	16	59	34	561	49.0	-214296.0	-1202.0	-156538.0
24	16	59	34	562	51.0	-211841.0	-1243.0	-156635.0
24	16	59	34	563	52.0	-210687.0	-1256.0	-156226.0
24	16	59	34	563	53.0	-209776.0	-1239.0	-156515.0
24	16	59	34	564	54.0	-208714.0	-1246.0	-156688.0
24	16	59	34	565	55.0	-207907.0	-1252.0	-156778.0
24	16	59	34	565	56.0	-207538.0	-1266.0	-156491.0
24	16	59	34	620	57.0	-207332.0	-1261.0	-156616.0
24	16	59	34	621	58.0	-207426.0	-1266.0	-156942.0
24	16	59	34	623	59.0	-207162.0	-1291.0	-156897.0
24	16	59	34	624	60.0	-205734.0	-1322.0	-157027.0
24	16	59	34	625	61.0	-204169.0	-1332.0	-156927.0
24	16	59	34	626	62.0	-202612.0	-1349.0	-157619.0
24	16	59	34	627	63.0	-200817.0	-1362.0	-157512.0
24	16	59	34	628	64.0	-199466.0	-1371.0	-157127.0
24	16	59	34	629	65.0	-197892.0	-1392.0	-157326.0
24	16	59	34	630	66.0	-196214.0	-1417.0	-158526.0
24	16	59	34	631	67.0	-195076.0	-1427.0	-159439.0
24	16	59	34	631	68.0	-194881.0	-1442.0	-160469.0
24	16	59	34	632	69.0	-195443.0	-1456.0	-162583.0
24	16	59	34	632	70.0	-196662.0	-1474.0	-164171.0
24	16	59	34	633	71.0	-197743.0	-1508.0	-166087.0
24	16	59	34	634	73.0	-197969.0	-1557.0	-169089.0
24	16	59	34	634	96.0	-172545.0	-2008.0	-155255.0
24	16	59	34	635	97.0	-173772.0	-2026.0	-155697.0
24	16	59	34	635	98.0	-180509.0	-2047.0	-155997.0
24	16	59	34	636	99.0	-190287.0	-2077.0	-155464.0
24	16	59	34	636	100.0	-199101.0	-2096.0	-155487.0
24	16	59	34	637	101.0	-204641.0	-2117.0	-155666.0
24	16	59	34	666	102.0	-205597.0	-2134.0	-155634.0
24	16	59	34	667	103.0	-204032.0	-2141.0	-155381.0
24	16	59	34	668	104.0	-202762.0	-2147.0	-155506.0
24	16	59	34	669	105.0	-202674.0	-2151.0	-155415.0
24	16	59	34	669	106.0	-200732.0	-2196.0	-155485.0
24	16	59	34	670	107.0	-197061.0	-2218.0	-156119.0
24	16	59	34	671	108.0	-192763.0	-2237.0	-156326.0
24	16	59	34	671	109.0	-189244.0	-2269.0	-155422.0
24	16	59	34	672	110.0	-187429.0	-2278.0	-155457.0
24	16	59	34	673	111.0	-186216.0	-2294.0	-155675.0
24	16	59	34	674	112.0	-185281.0	-2309.0	-155641.0
24	16	59	34	674	113.0	-186014.0	-2327.0	-155739.0
24	16	59	34	675	114.0	-187033.0	-2348.0	-156012.0
24	16	59	34	676	115.0	-187022.0	-2396.0	-156723.0
24	16	59	34	677	116.0	-187264.0	-2404.0	-156519.0
24	16	59	34	677	118.0	-188013.0	-2423.0	-156618.0
24	16	59	34	678	119.0	-188022.0	-2464.0	-156017.0
24	16	59	34	678	120.0	-188805.0	-2474.0	-155969.0
24	16	59	34	679	121.0	-191036.0	-2484.0	-156151.0
24	16	59	34	680	122.0	-193829.0	-2529.0	-156317.0
24	16	59	34	680	123.0	-196612.0	-2534.0	-156002.0
24	16	59	34	710	124.0	-197864.0	-2532.0	-155625.0
24	16	59	34	711	125.0	-198007.0	-2540.0	-155470.0
24	16	59	34	712	126.0	-197702.0	-2547.0	-155880.0
24	16	59	34	713	127.0	-197201.0	-2577.0	-156431.0
24	16	59	34	713	128.0	-196682.0	-2611.0	-156071.0
24	16	59	34	714	129.0	-196411.0	-2645.0	-156081.0
24	16	59	34	715	130.0	-196397.0	-2666.0	-156382.0
24	16	59	34	715	131.0	-196306.0	-2687.0	-155852.0
24	16	59	34	716	132.0	-197241.0	-2717.0	-156036.0
24	16	59	34	717	133.0	-198485.0	-2742.0	-156446.0
24	16	59	34	717	134.0	-199356.0	-2767.0	-156609.0
24	16	59	34	718	135.0	-200974.0	-2781.0	-156128.0
24	16	59	34	718	136.0	-202706.0	-2810.0	-155628.0
24	16	59	34	719	137.0	-204046.0	-2834.0	-155743.0
24	16	59	34	720	138.0	-204203.0	-2842.0	-156637.0
24	16	59	34	720	140.0	-204436.0	-2892.0	-156751.0
24	16	59	34	721	141.0	-203942.0	-2934.0	-156186.0
24	16	59	34	722	142.0	-203329.0	-2949.0	-155644.0
24	16	59	34	722	143.0	-202559.0	-2969.0	-154941.0
24	16	59	34	723	144.0	-200797.0	-2971.0	-153379.0
24	16	59	34	723	145.0	-198811.0	-2984.0	-152578.0
24	16	59	34	724	146.0	-196861.0	-2998.0	-151627.0
24	16	59	34	755	147.0	-194696.0	-3011.0	-151609.0
24	16	59	34	756	148.0	-192921.0	-3036.0	-151005.0
24	16	59	34	757	149.0	-191254.0	-3053.0	-150998.0
24	16	59	34	758	150.0	-189874.0	-3074.0	-151307.0
24	16	59	34	758	151.0	-189300.0	-3068.0	-151229.0
24	16	59	34	759	152.0	-189116.0	-3085.0	-151570.0
24	16	59	34	760	153.0	-188870.0	-3121.0	-151771.0
24	16	59	34	760	154.0	-188785.0	-3164.0	-151859.0
24	16	59	34	761	155.0	-188138.0	-3177.0	-152496.0
24	16	59	34	762	156.0	-188121.0	-3203.0	-152727.0
24	16	59	34	763	157.0	-188322.0	-3211.0	-152930.0
24	16	59	34	764	158.0	-188927.0	-3225.0	-152269.0
24	16	59	34	764	159.0	-190446.0	-3253.0	-152096.0
24	16	59	34	765	160.0	-193243.0	-3263.0	-151651.0
24	16	59	34	766	161.0	-196354.0	-3274.0	-151816.0
24	16	59	34	767	163.0	-201377.0	-3296.0	-153139.0
24	16	59	34	767	164.0	-202862.0	-3322.0	-153407.0
24	16	59	34	768	165.0	-204061.0	-3332.0	-153912.0
24	16	59	34	768	166.0	-205191.0	-3347.0	-154147.0
24	16	59	34	769	167.0	-206110.0	-3346.0	-153820.0
24	16	59	34	769	168.0	-207141.0	-3322.0	-153381.0
24	16	59	34	800	169.0	-208795.0	-3322.0	-153090.0
24	16	59	34	801	170.0	-210279.0	-3332.0	-152051.0
24	16	59	34	802	171.0	-211916.0	-3302.0	-152146.0
24	16	59	34	803	172.0	-212917.0	-3273.0	-152279.0
24	16	59	34	803	173.0	-213469.0	-3279.0	-151916.0
24	16	59	34	804	174.0	-213471.0	-3264.0	-150983.0
24	16	59	34	805	175.0	-213281.0	-3241.0	-151314.0
24	16	59	34	805	176.0	-213090.0	-3219.0	-150925.0
24	16	59	34	806	177.0	-212673.0	-3192.0	-150410.0
24	16	59	34	807	178.0	-212352.0	-3167.0	-149864.0
24	16	59	34	807	179.0	-212317.0	-3118.0	-149194.0
24	16	59	34	808	180.0	-211944.0	-3084.0	-147805.0
24	16	59	34	809	181.0	-211874.0	-3044.0	-147036.0
24	16	59	34	810	182.0	-211714.0	-2979.0	-147149.0
24	16	59	34	810	183.0	-211386.0	-2944.0	-147189.0
24	16	59	34	811	185.0	-209630.0	-2850.0	-149176.0
24	16	59	34	811	186.0	-208500.0	-2801.0	-149634.0
24	16	59	34	812	187.0	-207015.0	-2736.0	-149812.0
24	16	59	34	813	188.0	-205322.0	-2664.0	-150451.0
24	16	59	34	813	189.0	-203441.0	-2599.0	-150565.0
24	16	59	34	814	190.0	-201725.0	-2546.0	-150366.0
24	16	59	34	814	191.0	-200071.0	-2484.0	-150972.0
24	16	59	34	845	192.0	-198734.0	-2425.0	-150734.0
24	16	59	34	846	193.0	-197599.0	-2341.0	-150317.0
24	16	59	34	847	194.0	-196764.0	-2279.0	-149975.0
24	16	59	34	848	195.0	-196302.0	-2215.0	-149996.0
24	16	59	34	848	196.0	-195877.0	-2140.0	-149677.0
24	16	59	34	849	197.0	-195082.0	-2104.0	-149574.0
24	16	59	34	850	198.0	-193917.0	-2043.0	-149631.0
24	16	59	34	850	199.0	-192802.0	-1967.0	-149769.0
24	16	59	34	851	200.0	-191586.0	-1914.0	-149544.0
24	16	59	34	852	201.0	-190800.0	-1869.0	-149895.0
24	16	59	34	852	202.0	-189935.0	-1803.0	-150015.0
24	16	59	34	853	203.0	-189568.0	-1731.0	-149931.0
24	16	59	34	854	204.0	-189932.0	-1656.0	-150099.0
24	16	59	34	854	205.0	-190017.0	-1595.0	-149891.0
24	16	59	34	855	206.0	-190029.0	-1551.0	-149761.0
24	16	59	34	855	208.0	-190168.0	-1454.0	-149477.0
24	16	59	34	856	209.0	-190646.0	-1419.0	-149196.0
24	16	59	34	857	210.0	-192014.0	-1351.0	-149099.0
24	16	59	34	857	211.0	-193387.0	-1286.0	-149129.0
24	16	59	34	858	212.0	-194976.0	-1230.0	-149606.0
24	16	59	34	858	213.0	-196710.0	-1182.0	-149814.0
24	16	59	34	890	214.0	-198891.0	-1147.0	-149954.0
24	16	59	34	890	215.0	-201256.0	-1085.0	-149917.0
24	16	59	34	891	216.0	-203119.0	-1034.0	-149547.0
24	16	59	34	892	217.0	-205090.0	-1016.0	-149678.0
24	16	59	34	893	218.0	-207202.0	-969.0	-149297.0
24	16	59	34	893	219.0	-207957.0	-946.0	-148535.0
24	16	59	34	894	220.0	-205407.0	-907.0	-148510.0
24	16	59	34	895	221.0	-198756.0	-886.0	-148559.0
24	16	59	34	896	222.0	-187715.0	-861.0	-149126.0
24	16	59	34	896	223.0	-179115.0	-824.0	-148557.0
24	16	59	34	897	224.0	-188388.0	-786.0	-147686.0
24	16	59	34	898	225.0	-202629.0	-764.0	-147407.0
24	16	59	34	899	226.0	-215086.0	-743.0	-147559.0
24	16	59	34	899	227.0	-217756.0	-706.0	-147829.0
24	16	59	34	900	228.0	-216539.0	-682.0	-147672.0
24	16	59	34	900	230.0	-212501.0	-640.0	-147817.0
24	16	59	34	901	231.0	-212155.0	-613.0	-147990.0
24	16	59	34	902	232.0	-212017.0	-591.0	-148271.0
24	16	59	34	902	233.0	-208701.0	-557.0	-148374.0
24	16	59	34	903	234.0	-204820.0	-529.0	-148166.0
24	16	59	34	903	235.0	-200064.0	-519.0	-147797.0
24	16	59	34	904	236.0	-194901.0	-504.0	-148281.0
24	16	59	34	935	237.0	-192004.0	-482.0	-148094.0
24	16	59	34	936	238.0	-192651.0	-454.0	-148190.0
24	16	59	34	936	239.0	-192863.0	-429.0	-147986.0
24	16	59	34	937	240.0	-192586.0	-427.0	-148311.0
24	16	59	34	937	241.0	-192921.0	-417.0	-148391.0
24	16	59	34	938	242.0	-193477.0	-397.0	-148109.0
24	16	59	34	939	243.0	-194142.0	-394.0	-148282.0
24	16	59	34	939	244.0	-194389.0	-371.0	-148170.0
24	16	59	34	940	245.0	-194497.0	-384.0	-148593.0
24	16	59	34	940	246.0	-194024.0	-381.0	-148793.0
24	16	59	34	941	247.0	-193398.0	-352.0	-148652.0
24	16	59	34	941	248.0	-192917.0	-357.0	-148809.0
24	16	59	34	942	249.0	-193021.0	-359.0	-148644.0
24	16	59	34	943	250.0	-194256.0	-333.0	-148767.0
24	16	59	34	943	251.0	-196261.0	-334.0	-148277.0
24	16	59	34	944	253.0	-199714.0	-331.0	-146939.0
24	16	59	34	944	254.0	-200227.0	-340.0	-146742.0
24	16	59	34	945	255.0	-200525.0	-331.0	-146732.0
24	16	59	34	946	0.0	-200477.0	-307.0	-147097.0
24	16	59	34	946	1.0	-200512.0	-311.0	-147542.0
24	16	59	34	947	2.0	-201206.0	-311.0	-147337.0
24	16	59	34	985	3.0	-202284.0	-311.0	-147099.0
24	16	59	34	985	4.0	-203603.0	-314.0	-146881.0
24	16	59	34	986	5.0	-205292.0	-310.0	-147232.0
24	16	59	34	986	6.0	-206851.0	-328.0	-147269.0
24	16	59	34	987	7.0	-208398.0	-326.0	-147126.0
24	16	59	34	988	8.0	-210052.0	-329.0	-146470.0
24	16	59	34	988	9.0	-211663.0	-345.0	-146535.0
24	16	59	34	989	10.0	-212524.0	-334.0	-147182.0
24	16	59	34	990	11.0	-212584.0	-371.0	-147424.0
24	16	59	34	991	12.0	-212162.0	-382.0	-146865.0
24	16	59	34	991	13.0	-211481.0	-382.0	-146699.0
24	16	59	34	992	14.0	-210631.0	-384.0	-147205.0
24	16	59	34	993	15.0	-209693.0	-402.0	-147095.0
24	16	59	34	994	16.0	-208627.0	-430.0	-146711.0
24	16	59	34	994	17.0	-207674.0	-436.0	-146582.0
24	16	59	34	995	19.0	-205467.0	-484.0	-146648.0
24	16	59	34	995	20.0	-204637.0	-506.0	-147051.0
24	16	59	34	996	21.0	-204115.0	-514.0	-147606.0
24	16	59	34	996	22.0	-203369.0	-527.0	-148254.0
24	16	59	34	997	23.0	-202426.0	-541.0	-147070.0
24	16	59	34	997	24.0	-201445.0	-552.0	-145897.0
24	16	59	34	998	25.0	-199950.0	-559.0	-145731.0
24	16	59	35	25	26.0	-198118.0	-574.0	-145327.0
24	16	59	35	26	27.0	-196095.0	-578.0	-145471.0
24	16	59	35	27	28.0	-194703.0	-621.0	-146002.0
24	16	59	35	27	29.0	-193788.0	-649.0	-145881.0
24	16	59	35	28	30.0	-193654.0	-652.0	-146717.0
24	16	59	35	28	31.0	-194196.0	-672.0	-148398.0
24	16	59	35	29	32.0	-194844.0	-710.0	-146460.0
24	16	59	35	30	33.0	-195242.0	-725.0	-145337.0
24	16	59	35	30	34.0	-196162.0	-751.0	-145406.0
24	16	59	35	31	35.0	-197441.0	-755.0	-145671.0
24	16	59	35	31	36.0	-199144.0	-773.0	-146081.0
24	16	59	35	32	37.0	-202042.0	-790.0	-146516.0
24	16	59	35	33	38.0	-205325.0	-793.0	-146462.0
24	16	59	35	33	39.0	-208389.0	-822.0	-146417.0
24	16	59	35	34	40.0	-210601.0	-847.0	-146579.0
24	16	59	35	34	42.0	-213706.0	-844.0	-146249.0
24	16	59	35	35	43.0	-214809.0	-851.0	-146124.0
24	16	59	35	35	44.0	-215964.0	-866.0	-146666.0
24	16	59	35	36	45.0	-216867.0	-886.0	-147349.0
24	16	59	35	37	46.0	-217512.0	-890.0	-148016.0
24	16	59	35	37	47.0	-218146.0	-901.0	-148261.0
24	16	59	35	70	48.0	-218132.0	-910.0	-148103.0
24	16	59	35	71	49.0	-217314.0	-908.0	-148221.0
24	16	59	35	72	50.0	-216219.0	-910.0	-148342.0
24	16	59	35	72	51.0	-215265.0	-942.0	-148244.0
24	16	59	35	73	52.0	-214524.0	-974.0	-147914.0
24	16	59	35	73	53.0	-214248.0	-981.0	-148556.0
24	16	59	35	74	54.0	-214236.0	-997.0	-149209.0
24	16	59	35	74	55.0	-213855.0	-1001.0	-148531.0
24	16	59	35	75	56.0	-213381.0	-1016.0	-147710.0
24	16	59	35	76	57.0	-212622.0	-1039.0	-147259.0
24	16	59	35	76	58.0	-210614.0	-1062.0	-146599.0
24	16	59	35	77	59.0	-208975.0	-1079.0	-146242.0
24	16	59	35	77	60.0	-207807.0	-1097.0	-146382.0
24	16	59	35	78	61.0	-206724.0	-1105.0	-146359.0
24	16	59	35	78	62.0	-205992.0	-1108.0	-145609.0
24	16	59	35	79	64.0	-205597.0	-1122.0	-145472.0
24	16	59	35	80	65.0	-206121.0	-1142.0	-145659.0
24	16	59	35	80	66.0	-206859.0	-1130.0	-145747.0
24	16	59	35	81	67.0	-207867.0	-1157.0	-145614.0
24	16	59	35	81	68.0	-209097.0	-1167.0	-145748.0
24	16	59	35	82	69.0	-209949.0	-1171.0	-145977.0
24	16	59	35	82	70.0	-210225.0	-1186.0	-147264.0
24	16	59	35	114	71.0	-210447.0	-1194.0	-146502.0
24	16	59	35	115	72.0	-210649.0	-1190.0	-145922.0
24	16	59	35	116	73.0	-210821.0	-1207.0	-145306.0
24	16	59	35	116	74.0	-210829.0	-1222.0	-144765.0
24	16	59	35	117	75.0	-210554.0	-1222.0	-145090.0
24	16	59	35	117	76.0	-209861.0	-1244.0	-145108.0
24	16	59	35	118	77.0	-208949.0	-1268.0	-145137.0
24	16	59	35	119	78.0	-208175.0	-1289.0	-145471.0
24	16	59	35	119	79.0	-207362.0	-1321.0	-145632.0
24	16	59	35	120	80.0	-206514.0	-1340.0	-145579.0
24	16	59	35	120	81.0	-206314.0	-1346.0	-145214.0
24	16	59	35	121	82.0	-206247.0	-1372.0	-145060.0
24	16	59	35	121	83.0	-205944.0	-1379.0	-144437.0
24	16	59	35	129	84.0	-205826.0	-1404.0	-144950.0
24	16	59	35	130	85.0	-205267.0	-1425.0	-145776.0
24	16	59	35	130	87.0	-203572.0	-1447.0	-145054.0
24	16	59	35	131	88.0	-202730.0	-1460.0	-144587.0
24	16	59	35	132	89.0	-202057.0	-1486.0	-145026.0
24	16	59	35	132	90.0	-201891.0	-1502.0	-145677.0
24	16	59	35	133	91.0	-201692.0	-1531.0	-147455.0
24	16	59	35	133	92.0	-201320.0	-1534.0	-149139.0
24	16	59	35	160	93.0	-200773.0	-1554.0	-150244.0
24	16	59	35	161	94.0	-199866.0	-1564.0	-151400.0
24	16	59	35	162	95.0	-198927.0	-1572.0	-154410.0
24	16	59	35	162	96.0	-198384.0	-1601.0	-156361.0
24	16	59	35	163	97.0	-198317.0	-1637.0	-156785.0
24	16	59	35	164	98.0	-198408.0	-1654.0	-156737.0
24	16	59	35	164	99.0	-198625.0	-1676.0	-155415.0
24	16	59	35	165	100.0	-198648.0	-1695.0	-153148.0
24	16	59	35	166	101.0	-198337.0	-1716.0	-150655.0
24	16	59	35	166	102.0	-197507.0	-1726.0	-150064.0
24	16	59	35	167	103.0	-196392.0	-1753.0	-148984.0
24	16	59	35	168	104.0	-195171.0	-1767.0	-148541.0
24	16	59	35	168	105.0	-194375.0	-1798.0	-146986.0
24	16	59	35	169	106.0	-193568.0	-1832.0	-143124.0
24	16	59	35	170	107.0	-193814.0	-1871.0	-137155.0
24	16	59	35	170	109.0	-196827.0	-1920.0	-132666.0
24	16	59	35	171	110.0	-199040.0	-1955.0	-134246.0
24	16	59	35	171	111.0	-201091.0	-1957.0	-136390.0
24	16	59	35	172	112.0	-202797.0	-1978.0	-138242.0
24	16	59	35	173	113.0	-203892.0	-2000.0	-139092.0
24	16	59	35	173	114.0	-204422.0	-2012.0	-140033.0
24	16	59	35	206	115.0	-204721.0	-2038.0	-140836.0
24	16	59	35	206	116.0	-203664.0	-2055.0	-141179.0
24	16	59	35	207	117.0	-193914.0	-2092.0	-141605.0
24	16	59	35	207	118.0	-176735.0	-2111.0	-142315.0
24	16	59	35	251	119.0	-163431.0	-2128.0	-143269.0
24	16	59	35	251	120.0	-155090.0	-2162.0	-143916.0
24	16	59	35	252	121.0	-157311.0	-2188.0	-143797.0
24	16	59	35	253	122.0	-164999.0	-2204.0	-143401.0
24	16	59	35	253	123.0	-176243.0	-2241.0	-143612.0
24	16	59	35	261	124.0	-186894.0	-2284.0	-144611.0
24	16	59	35	261	125.0	-194356.0	-2306.0	-144839.0
24	16	59	35	262	126.0	-196292.0	-2326.0	-144522.0
24	16	59	35	262	127.0	-195352.0	-2344.0	-144826.0
24	16	59	35	263	128.0	-195071.0	-2361.0	-144474.0
24	16	59	35	263	129.0	-195538.0	-2399.0	-144364.0
24	16	59	35	264	131.0	-194901.0	-2452.0	-144662.0
24	16	59	35	265	132.0	-192646.0	-2463.0	-144286.0
24	16	59	35	265	133.0	-192034.0	-2475.0	-144637.0
24	16	59	35	266	134.0	-193873.0	-2494.0	-145101.0
24	16	59	35	266	154.0	-211221.0	-2974.0	-144068.0
24	16	59	35	267	155.0	-210031.0	-3006.0	-144238.0
24	16	59	35	267	156.0	-209524.0	-3026.0	-144246.0
24	16	59	35	268	157.0	-209400.0	-3024.0	-144019.0
24	16	59	35	268	158.0	-209564.0	-3056.0	-143861.0
24	16	59	35	269	159.0	-210112.0	-3074.0	-143785.0
24	16	59	35	295	160.0	-210782.0	-3093.0	-143405.0
24	16	59	35	296	161.0	-211096.0	-3112.0	-142800.0
24	16	59	35	297	162.0	-210772.0	-3129.0	-143642.0
24	16	59	35	297	163.0	-210088.0	-3136.0	-143729.0
24	16	59	35	298	164.0	-208813.0	-3155.0	-143621.0
24	16	59	35	298	165.0	-207681.0	-3162.0	-143146.0
24	16	59	35	299	166.0	-206363.0	-3179.0	-142607.0
24	16	59	35	300	167.0	-205022.0	-3197.0	-142620.0
24	16	59	35	301	168.0	-203744.0	-3227.0	-142342.0
24	16	59	35	301	169.0	-202845.0	-3245.0	-142578.0
24	16	59	35	303	170.0	-202383.0	-3252.0	-142919.0
24	16	59	35	304	171.0	-201749.0	-3284.0	-142905.0
24	16	59	35	305	172.0	-200490.0	-3311.0	-142824.0
24	16	59	35	305	173.0	-199297.0	-3341.0	-142973.0
24	16	59	35	306	174.0	-198701.0	-3353.0	-142897.0
24	16	59	35	306	176.0	-200102.0	-3397.0	-143458.0
24	16	59	35	307	177.0	-201224.0	-3406.0	-143974.0
24	16	59	35	308	178.0	-201526.0	-3411.0	-143989.0
24	16	59	35	308	179.0	-201380.0	-3429.0	-144204.0
24	16	59	35	309	180.0	-201360.0	-3428.0	-143777.0
24	16	59	35	309	181.0	-201562.0	-3443.0	-143619.0
24	16	59	35	310	182.0	-201848.0	-3467.0	-143698.0
24	16	59	35	339	183.0	-202559.0	-3450.0	-143877.0
24	16	59	35	360	184.0	-203634.0	-3452.0	-144379.0
24	16	59	35	360	185.0	-204586.0	-3482.0	-144204.0
24	16	59	35	361	186.0	-205481.0	-3498.0	-143914.0
24	16	59	35	362	187.0	-206331.0	-3502.0	-144042.0
24	16	59	35	362	188.0	-206748.0	-3522.0	-144272.0
24	16	59	35	363	189.0	-206705.0	-3535.0	-143618.0
24	16	59	35	364	190.0	-206254.0	-3551.0	-143495.0
24	16	59	35	364	191.0	-205615.0	-3554.0	-143594.0
24	16	59	35	365	192.0	-205007.0	-3556.0	-142774.0
24	16	59	35	365	193.0	-204462.0	-3544.0	-141716.0
24	16	59	35	366	194.0	-204081.0	-3555.0	-141332.0
24	16	59	35	366	195.0	-204076.0	-3533.0	-140832.0
24	16	59	35	367	196.0	-204576.0	-3527.0	-140422.0
24	16	59	35	368	197.0	-204788.0	-3516.0	-141014.0
24	16	59	35	368	199.0	-204546.0	-3476.0	-139013.0
24	16	59	35	369	200.0	-203876.0	-3442.0	-138180.0
24	16	59	35	369	201.0	-203076.0	-3427.0	-138214.0
24	16	59	35	370	202.0	-202542.0	-3412.0	-139261.0
24	16	59	35	370	203.0	-202039.0	-3357.0	-140334.0
24	16	59	35	371	204.0	-201581.0	-3324.0	-141651.0
24	16	59	35	384	205.0	-200816.0	-3277.0	-141966.0
24	16	59	35	385	206.0	-200312.0	-3244.0	-142394.0
24	16	59	35	386	207.0	-199894.0	-3192.0	-142206.0
24	16	59	35	386	208.0	-199009.0	-3151.0	-141818.0
24	16	59	35	387	209.0	-198546.0	-3097.0	-141891.0
24	16	59	35	388	210.0	-198203.0	-3049.0	-141604.0
24	16	59	35	388	211.0	-197068.0	-3007.0	-141277.0
24	16	59	35	389	212.0	-195921.0	-2965.0	-141492.0
24	16	59	35	390	213.0	-195267.0	-2921.0	-140965.0
24	16	59	35	390	214.0	-194892.0	-2856.0	-140024.0
24	16	59	35	391	215.0	-194615.0	-2804.0	-139517.0
24	16	59	35	391	216.0	-194652.0	-2741.0	-139445.0
24	16	59	35	392	217.0	-195068.0	-2666.0	-137734.0
24	16	59	35	393	218.0	-195686.0	-2631.0	-136779.0
24	16	59	35	393	219.0	-195911.0	-2579.0	-137673.0
24	16	59	35	394	221.0	-195252.0	-2457.0	-136336.0
24	16	59	35	395	222.0	-194244.0	-2416.0	-136187.0
24	16	59	35	395	223.0	-193464.0	-2332.0	-136900.0
24	16	59	35	396	224.0	-193186.0	-2255.0	-136809.0
24	16	59	35	396	225.0	-193760.0	-2189.0	-136365.0
24	16	59	35	397	226.0	-195420.0	-2133.0	-136789.0
24	16	59	35	398	227.0	-197391.0	-2072.0	-136619.0
24	16	59	35	429	228.0	-199412.0	-2014.0	-136225.0
24	16	59	35	430	229.0	-201712.0	-1967.0	-136572.0
24	16	59	35	431	230.0	-203777.0	-1912.0	-136446.0
24	16	59	35	431	231.0	-205266.0	-1864.0	-135646.0
24	16	59	35	432	232.0	-206342.0	-1802.0	-134929.0
24	16	59	35	433	233.0	-207164.0	-1754.0	-135524.0
24	16	59	35	433	234.0	-208149.0	-1715.0	-135172.0
24	16	59	35	434	235.0	-209161.0	-1677.0	-134755.0
24	16	59	35	435	236.0	-210642.0	-1636.0	-135691.0
24	16	59	35	435	237.0	-212190.0	-1587.0	-136147.0
24	16	59	35	436	238.0	-213501.0	-1546.0	-135261.0
24	16	59	35	436	239.0	-214861.0	-1521.0	-134997.0
24	16	59	35	437	240.0	-215969.0	-1473.0	-135226.0
24	16	59	35	438	241.0	-216034.0	-1429.0	-135230.0
24	16	59	35	438	242.0	-215599.0	-1414.0	-134269.0
24	16	59	35	439	244.0	-211046.0	-1336.0	-134056.0
24	16	59	35	439	245.0	-203453.0	-1311.0	-133712.0
24	16	59	35	440	246.0	-191922.0	-1254.0	-133028.0
24	16	59	35	441	247.0	-178578.0	-1204.0	-132904.0
24	16	59	35	441	248.0	-182766.0	-1164.0	-132976.0
24	16	59	35	442	249.0	-194159.0	-1146.0	-133032.0
24	16	59	35	521	250.0	-205899.0	-1136.0	-133361.0
24	16	59	35	522	251.0	-207806.0	-1072.0	-133464.0
24	16	59	35	523	252.0	-204097.0	-1064.0	-133608.0
24	16	59	35	523	253.0	-200155.0	-1041.0	-133273.0
24	16	59	35	525	254.0	-195411.0	-1026.0	-133409.0
24	16	59	35	525	255.0	-192971.0	-1001.0	-133776.0
24	16	59	35	526	0.0	-191716.0	-975.0	-133414.0
24	16	59	35	527	1.0	-188031.0	-966.0	-133056.0
24	16	59	35	527	2.0	-183657.0	-954.0	-133536.0
24	16	59	35	528	3.0	-179028.0	-957.0	-133214.0
24	16	59	35	529	4.0	-175091.0	-950.0	-133131.0
24	16	59	35	530	5.0	-173950.0	-927.0	-133950.0
24	16	59	35	530	6.0	-175513.0	-913.0	-134345.0
24	16	59	35	531	7.0	-175677.0	-874.0	-134488.0
24	16	59	35	531	8.0	-176246.0	-870.0	-134353.0
24	16	59	35	532	33.0	-207006.0	-795.0	-133162.0
24	16	59	35	533	34.0	-206573.0	-800.0	-132937.0
24	16	59	35	533	35.0	-206876.0	-803.0	-132178.0
24	16	59	35	534	36.0	-207047.0	-827.0	-131744.0
24	16	59	35	534	37.0	-207020.0	-826.0	-132197.0
24	16	59	35	535	38.0	-206368.0	-826.0	-132607.0
24	16	59	35	565	39.0	-205838.0	-859.0	-132871.0
24	16	59	35	566	40.0	-204957.0	-881.0	-132727.0
24	16	59	35	566	41.0	-204039.0	-900.0	-132202.0
24	16	59	35	567	42.0	-203564.0	-918.0	-131939.0
24	16	59	35	568	43.0	-203317.0	-928.0	-131962.0
24	16	59	35	568	44.0	-202694.0	-946.0	-132166.0
24	16	59	35	569	45.0	-201749.0	-967.0	-131993.0
24	16	59	35	570	46.0	-200610.0	-999.0	-131380.0
24	16	59	35	570	47.0	-199768.0	-1004.0	-129744.0
24	16	59	35	571	48.0	-198927.0	-1014.0	-128973.0
24	16	59	35	572	49.0	-198384.0	-1039.0	-129186.0
24	16	59	35	572	50.0	-198414.0	-1044.0	-129510.0
24	16	59	35	573	51.0	-199017.0	-1073.0	-130196.0
24	16	59	35	574	52.0	-200084.0	-1089.0	-131730.0
24	16	59	35	574	53.0	-201997.0	-1117.0	-133018.0
24	16	59	35	575	55.0	-206651.0	-1154.0	-136140.0
24	16	59	35	576	56.0	-208468.0	-1179.0	-136566.0
24	16	59	35	576	57.0	-210021.0	-1201.0	-137134.0
24	16	59	35	577	58.0	-211422.0	-1201.0	-137194.0
24	16	59	35	577	59.0	-211929.0	-1230.0	-137999.0
24	16	59	35	578	60.0	-212314.0	-1231.0	-138289.0
24	16	59	35	610	61.0	-212341.0	-1245.0	-138210.0
24	16	59	35	611	62.0	-212638.0	-1272.0	-138640.0
24	16	59	35	612	63.0	-212866.0	-1297.0	-138784.0
24	16	59	35	612	64.0	-213211.0	-1317.0	-137686.0
24	16	59	35	613	65.0	-213278.0	-1321.0	-137411.0
24	16	59	35	614	66.0	-213964.0	-1322.0	-137271.0
24	16	59	35	614	67.0	-214895.0	-1355.0	-137029.0
24	16	59	35	615	68.0	-215800.0	-1365.0	-137554.0
24	16	59	35	615	69.0	-216280.0	-1386.0	-138540.0
24	16	59	35	616	70.0	-216137.0	-1398.0	-138867.0
24	16	59	35	617	71.0	-215786.0	-1435.0	-138676.0
24	16	59	35	617	72.0	-215316.0	-1437.0	-138306.0
24	16	59	35	618	73.0	-215102.0	-1444.0	-137388.0
24	16	59	35	619	74.0	-214766.0	-1464.0	-136223.0
24	16	59	35	619	75.0	-213874.0	-1479.0	-135169.0
24	16	59	35	620	77.0	-211072.0	-1496.0	-134306.0
24	16	59	35	620	78.0	-209633.0	-1501.0	-133776.0
24	16	59	35	621	79.0	-208258.0	-1514.0	-132942.0
24	16	59	35	622	80.0	-207146.0	-1519.0	-131994.0
24	16	59	35	622	81.0	-205966.0	-1514.0	-131518.0
24	16	59	35	623	82.0	-205426.0	-1517.0	-131746.0
24	16	59	35	623	83.0	-204978.0	-1548.0	-130959.0
24	16	59	35	655	84.0	-204534.0	-1548.0	-130502.0
24	16	59	35	656	85.0	-203736.0	-1552.0	-130479.0
24	16	59	35	656	86.0	-203203.0	-1556.0	-129951.0
24	16	59	35	657	87.0	-202512.0	-1553.0	-129984.0
24	16	59	35	658	88.0	-201528.0	-1579.0	-129820.0
24	16	59	35	658	89.0	-200140.0	-1587.0	-129904.0
24	16	59	35	659	90.0	-198335.0	-1608.0	-129644.0
24	16	59	35	660	91.0	-196533.0	-1627.0	-129489.0
24	16	59	35	660	92.0	-194957.0	-1647.0	-130030.0
24	16	59	35	661	93.0	-193726.0	-1666.0	-129227.0
24	16	59	35	661	94.0	-193074.0	-1679.0	-129007.0
24	16	59	35	662	95.0	-193023.0	-1677.0	-129694.0
24	16	59	35	663	96.0	-193592.0	-1692.0	-129701.0
24	16	59	35	663	97.0	-194411.0	-1716.0	-129924.0
24	16	59	35	664	98.0	-195046.0	-1744.0	-129804.0
24	16	59	35	665	100.0	-195236.0	-1772.0	-129107.0
24	16	59	35	665	101.0	-194534.0	-1812.0	-128973.0
24	16	59	35	666	102.0	-193367.0	-1809.0	-128964.0
24	16	59	35	666	103.0	-192458.0	-1813.0	-129004.0
24	16	59	35	667	104.0	-192386.0	-1836.0	-128917.0
24	16	59	35	667	105.0	-193097.0	-1876.0	-128819.0
24	16	59	35	701	106.0	-193874.0	-1879.0	-127867.0
24	16	59	35	702	107.0	-195034.0	-1887.0	-128116.0
24	16	59	35	702	108.0	-195929.0	-1899.0	-128535.0
24	16	59	35	703	109.0	-196836.0	-1914.0	-128466.0
24	16	59	35	703	110.0	-198103.0	-1921.0	-129212.0
24	16	59	35	704	111.0	-199474.0	-1930.0	-129978.0
24	16	59	35	705	112.0	-200992.0	-1954.0	-129151.0
24	16	59	35	705	113.0	-202233.0	-1986.0	-129206.0
24	16	59	35	706	114.0	-202893.0	-2024.0	-130374.0
24	16	59	35	707	115.0	-203183.0	-2047.0	-130743.0
24	16	59	35	707	116.0	-203560.0	-2064.0	-132199.0
24	16	59	35	708	117.0	-203841.0	-2073.0	-134067.0
24	16	59	35	709	118.0	-204258.0	-2080.0	-135724.0
24	16	59	35	709	119.0	-205126.0	-2097.0	-137987.0
24	16	59	35	710	120.0	-206465.0	-2120.0	-140262.0
24	16	59	35	710	122.0	-210795.0	-2171.0	-144065.0
24	16	59	35	711	123.0	-212753.0	-2216.0	-144295.0
24	16	59	35	712	124.0	-214394.0	-2241.0	-142467.0
24	16	59	35	712	125.0	-214846.0	-2237.0	-139916.0
24	16	59	35	713	126.0	-214482.0	-2257.0	-138572.0
24	16	59	35	713	127.0	-213014.0	-2300.0	-136928.0
24	16	59	35	714	128.0	-211540.0	-2309.0	-137195.0
24	16	59	35	745	129.0	-209919.0	-2326.0	-137482.0
24	16	59	35	746	130.0	-209067.0	-2341.0	-135926.0
24	16	59	35	747	131.0	-208903.0	-2352.0	-130627.0
24	16	59	35	747	132.0	-209359.0	-2405.0	-124258.0
24	16	59	35	748	133.0	-209997.0	-2438.0	-121083.0
24	16	59	35	749	134.0	-211637.0	-2464.0	-120271.0
24	16	59	35	749	135.0	-212287.0	-2496.0	-121774.0
24	16	59	35	750	136.0	-212566.0	-2524.0	-122241.0
24	16	59	35	751	137.0	-212821.0	-2542.0	-122957.0
24	16	59	35	751	138.0	-213377.0	-2561.0	-122326.0
24	16	59	35	752	139.0	-214094.0	-2586.0	-122699.0
24	16	59	35	753	140.0	-215044.0	-2611.0	-123651.0
24	16	59	35	753	141.0	-214426.0	-2639.0	-124441.0
24	16	59	35	754	142.0	-204532.0	-2664.0	-125064.0
24	16	59	35	755	143.0	-185376.0	-2689.0	-125426.0
24	16	59	35	755	145.0	-162694.0	-2752.0	-126347.0
24	16	59	35	756	146.0	-165548.0	-2758.0	-126736.0
24	16	59	35	756	147.0	-174111.0	-2761.0	-127080.0
24	16	59	35	757	148.0	-186565.0	-2776.0	-128185.0
24	16	59	35	758	149.0	-197447.0	-2812.0	-128604.0
24	16	59	35	758	150.0	-204145.0	-2836.0	-128577.0
24	16	59	35	790	151.0	-205326.0	-2869.0	-128834.0
24	16	59	35	791	152.0	-203178.0	-2866.0	-128949.0
24	16	59	35	792	153.0	-201383.0	-2877.0	-128852.0
24	16	59	35	792	154.0	-200876.0	-2919.0	-128154.0
24	16	59	35	793	155.0	-200092.0	-2929.0	-128314.0
24	16	59	35	793	156.0	-199289.0	-2941.0	-128312.0
24	16	59	35	794	157.0	-198156.0	-2982.0	-128631.0
24	16	59	35	795	158.0	-198103.0	-3012.0	-128596.0
24	16	59	35	795	159.0	-200375.0	-3031.0	-128063.0
24	16	59	35	796	160.0	-203085.0	-3043.0	-126816.0
24	16	59	35	797	161.0	-204344.0	-3066.0	-126416.0
24	16	59	35	797	162.0	-205631.0	-3087.0	-125174.0
24	16	59	35	798	163.0	-206801.0	-3097.0	-123421.0
24	16	59	35	799	164.0	-207303.0	-3119.0	-122891.0
24	16	59	35	800	165.0	-207162.0	-3130.0	-123367.0
24	16	59	35	801	167.0	-206219.0	-3164.0	-122631.0
24	16	59	35	801	168.0	-205636.0	-3161.0	-122559.0
24	16	59	35	802	169.0	-205127.0	-3180.0	-122879.0
24	16	59	35	803	170.0	-205339.0	-3211.0	-122614.0
24	16	59	35	803	171.0	-206560.0	-3237.0	-122443.0
24	16	59	35	804	172.0	-207995.0	-3242.0	-122147.0
24	16	59	35	804	173.0	-208427.0	-3258.0	-121493.0
24	16	59	35	835	174.0	-207460.0	-3272.0	-122232.0
24	16	59	35	836	175.0	-205286.0	-3287.0	-121851.0
24	16	59	35	837	176.0	-202007.0	-3303.0	-122003.0
24	16	59	35	837	177.0	-199037.0	-3332.0	-122363.0
24	16	59	35	838	178.0	-196713.0	-3358.0	-123041.0
24	16	59	35	839	179.0	-194776.0	-3383.0	-123227.0
24	16	59	35	839	180.0	-193267.0	-3416.0	-123663.0
24	16	59	35	840	181.0	-192349.0	-3420.0	-123834.0
24	16	59	35	841	182.0	-192093.0	-3442.0	-124570.0
24	16	59	35	841	183.0	-191779.0	-3462.0	-124467.0
24	16	59	35	842	184.0	-191589.0	-3479.0	-124599.0
24	16	59	35	843	185.0	-191107.0	-3498.0	-124201.0
24	16	59	35	844	186.0	-190199.0	-3520.0	-123895.0
24	16	59	35	845	187.0	-188597.0	-3549.0	-123920.0
24	16	59	35	845	188.0	-186628.0	-3561.0	-124265.0
24	16	59	35	846	190.0	-182649.0	-3621.0	-125046.0
24	16	59	35	847	191.0	-181356.0	-3622.0	-125508.0
24	16	59	35	847	192.0	-181107.0	-3601.0	-126006.0
24	16	59	35	848	193.0	-181378.0	-3638.0	-126076.0
24	16	59	35	848	194.0	-181841.0	-3659.0	-127092.0
24	16	59	35	849	195.0	-182463.0	-3655.0	-127401.0
24	16	59	35	880	196.0	-183731.0	-3678.0	-127974.0
24	16	59	35	881	197.0	-185247.0	-3696.0	-128406.0
24	16	59	35	882	198.0	-186845.0	-3696.0	-128662.0
24	16	59	35	882	199.0	-188901.0	-3734.0	-128591.0
24	16	59	35	883	200.0	-191351.0	-3771.0	-128340.0
24	16	59	35	884	201.0	-193864.0	-3784.0	-128474.0
24	16	59	35	884	202.0	-196916.0	-3810.0	-128327.0
24	16	59	35	885	203.0	-200078.0	-3819.0	-128744.0
24	16	59	35	886	204.0	-203316.0	-3827.0	-129024.0
24	16	59	35	886	205.0	-206448.0	-3854.0	-128746.0
24	16	59	35	887	206.0	-209888.0	-3873.0	-129656.0
24	16	59	35	888	207.0	-213409.0	-3891.0	-129992.0
24	16	59	35	888	208.0	-216284.0	-3899.0	-129714.0
24	16	59	35	889	209.0	-218579.0	-3913.0	-130297.0
24	16	59	35	890	210.0	-219793.0	-3928.0	-130753.0
24	16	59	35	890	212.0	-220450.0	-3943.0	-130789.0
24	16	59	35	891	213.0	-220251.0	-3938.0	-130575.0
24	16	59	35	891	214.0	-219933.0	-3931.0	-130468.0
24	16	59	35	892	215.0	-219816.0	-3926.0	-130432.0
24	16	59	35	893	216.0	-219773.0	-3912.0	-131336.0
24	16	59	35	893	217.0	-219402.0	-3904.0	-131491.0
24	16	59	35	894	218.0	-218454.0	-3900.0	-131479.0
24	16	59	35	925	219.0	-216562.0	-3869.0	-130722.0
24	16	59	35	926	220.0	-214450.0	-3866.0	-131111.0
24	16	59	35	927	221.0	-212274.0	-3848.0	-131214.0
24	16	59	35	928	222.0	-209941.0	-3845.0	-131436.0
24	16	59	35	928	223.0	-207804.0	-3851.0	-131119.0
24	16	59	35	929	224.0	-205742.0	-3825.0	-131109.0
24	16	59	35	930	225.0	-203137.0	-3803.0	-131404.0
24	16	59	35	930	226.0	-199888.0	-3774.0	-130879.0
24	16	59	35	931	227.0	-196264.0	-3744.0	-130969.0
24	16	59	35	932	228.0	-192415.0	-3726.0	-130957.0
24	16	59	35	932	229.0	-188283.0	-3697.0	-131211.0
24	16	59	35	934	230.0	-184522.0	-3636.0	-130765.0
24	16	59	35	934	231.0	-181002.0	-3598.0	-130431.0
24	16	59	35	935	232.0	-177882.0	-3561.0	-130479.0
24	16	59	35	936	233.0	-174686.0	-3519.0	-130425.0
24	16	59	35	936	235.0	-169975.0	-3436.0	-129751.0
24	16	59	35	937	236.0	-168688.0	-3356.0	-129693.0
24	16	59	35	938	237.0	-167818.0	-3293.0	-129639.0
24	16	59	35	938	238.0	-168396.0	-3240.0	-129734.0
24	16	59	35	939	239.0	-169603.0	-3184.0	-129601.0
24	16	59	35	940	240.0	-171638.0	-3119.0	-129064.0
24	16	59	35	970	241.0	-174648.0	-3069.0	-128940.0
24	16	59	35	971	242.0	-178140.0	-3013.0	-128842.0
24	16	59	35	971	243.0	-180946.0	-2967.0	-127987.0
24	16	59	35	972	244.0	-183375.0	-2922.0	-127774.0
24	16	59	35	973	245.0	-185637.0	-2847.0	-127899.0
24	16	59	35	974	246.0	-188044.0	-2794.0	-127877.0
24	16	59	35	974	247.0	-190566.0	-2732.0	-127797.0
24	16	59	35	975	248.0	-192372.0	-2680.0	-127516.0
24	16	59	35	975	249.0	-193852.0	-2645.0	-127874.0
24	16	59	35	976	250.0	-195862.0	-2578.0	-127264.0
24	16	59	35	977	251.0	-198764.0	-2526.0	-127312.0
24	16	59	35	977	252.0	-202154.0	-2491.0	-127514.0
24	16	59	35	978	253.0	-205247.0	-2421.0	-127139.0
24	16	59	35	979	254.0	-207968.0	-2356.0	-126943.0
24	16	59	35	979	255.0	-210418.0	-2322.0	-126624.0
24	16	59	35	980	1.0	-214941.0	-2212.0	-126752.0
24	16	59	35	981	2.0	-216549.0	-2157.0	-126657.0
24	16	59	35	982	3.0	-217492.0	-2119.0	-126077.0
24	16	59	35	982	4.0	-218182.0	-2050.0	-125276.0
24	16	59	35	983	5.0	-218966.0	-1993.0	-126319.0
24	16	59	35	984	6.0	-219899.0	-1951.0	-126304.0
24	16	59	35	984	7.0	-220541.0	-1906.0	-126544.0
24	16	59	36	15	8.0	-220686.0	-1860.0	-127200.0
24	16	59	36	16	9.0	-219899.0	-1810.0	-127898.0
24	16	59	36	16	10.0	-218565.0	-1782.0	-127477.0
24	16	59	36	17	11.0	-216611.0	-1757.0	-126950.0
24	16	59	36	18	12.0	-213723.0	-1730.0	-124849.0
24	16	59	36	18	13.0	-207756.0	-1696.0	-124012.0
24	16	59	36	19	14.0	-198200.0	-1650.0	-124676.0
24	16	59	36	20	15.0	-185138.0	-1609.0	-124935.0
24	16	59	36	20	16.0	-172605.0	-1599.0	-124693.0
24	16	59	36	21	17.0	-179662.0	-1572.0	-125001.0
24	16	59	36	22	18.0	-192744.0	-1547.0	-125480.0
24	16	59	36	23	19.0	-203229.0	-1517.0	-125430.0
24	16	59	36	23	20.0	-203231.0	-1492.0	-125586.0
24	16	59	36	24	21.0	-198948.0	-1456.0	-126529.0
24	16	59	36	25	22.0	-193657.0	-1446.0	-127110.0
24	16	59	36	25	24.0	-186076.0	-1417.0	-125504.0
24	16	59	36	26	25.0	-185309.0	-1395.0	-125657.0
24	16	59	36	26	26.0	-182631.0	-1376.0	-124796.0
24	16	59	36	27	27.0	-180429.0	-1352.0	-125002.0
24	16	59	36	28	28.0	-178484.0	-1321.0	-125955.0
24	16	59	36	28	29.0	-177214.0	-1288.0	-127117.0
24	16	59	36	61	30.0	-178934.0	-1271.0	-125698.0
24	16	59	36	62	31.0	-182354.0	-1245.0	-125132.0
24	16	59	36	63	32.0	-184747.0	-1230.0	-125742.0
24	16	59	36	63	33.0	-187076.0	-1217.0	-126398.0
24	16	59	36	64	34.0	-189969.0	-1192.0	-126474.0
24	16	59	36	65	35.0	-193189.0	-1176.0	-127009.0
24	16	59	36	65	36.0	-196319.0	-1158.0	-127251.0
24	16	59	36	66	37.0	-198787.0	-1152.0	-126686.0
24	16	59	36	67	38.0	-201126.0	-1139.0	-126059.0
24	16	59	36	67	39.0	-202187.0	-1126.0	-126168.0
24	16	59	36	68	40.0	-202666.0	-1124.0	-126652.0
24	16	59	36	69	41.0	-203101.0	-1113.0	-126783.0
24	16	59	36	69	42.0	-203692.0	-1124.0	-126874.0
24	16	59	36	70	43.0	-203861.0	-1119.0	-126576.0
24	16	59	36	70	44.0	-204126.0	-1105.0	-126423.0
24	16	59	36	71	46.0	-204902.0	-1106.0	-126060.0
24	16	59	36	72	47.0	-205735.0	-1099.0	-125723.0
24	16	59	36	72	48.0	-206940.0	-1078.0	-125477.0
24	16	59	36	73	49.0	-207361.0	-1067.0	-126019.0
24	16	59	36	73	50.0	-207188.0	-1081.0	-126352.0
24	16	59	36	74	51.0	-206134.0	-1082.0	-125934.0
24	16	59	36	105	52.0	-204765.0	-1067.0	-125360.0
24	16	59	36	106	53.0	-203229.0	-1076.0	-125489.0
24	16	59	36	106	54.0	-201787.0	-1062.0	-125381.0
24	16	59	36	107	55.0	-200591.0	-1077.0	-125492.0
24	16	59	36	107	56.0	-199773.0	-1106.0	-125662.0
24	16	59	36	108	57.0	-199385.0	-1126.0	-125371.0
24	16	59	36	108	58.0	-199390.0	-1131.0	-124854.0
24	16	59	36	109	59.0	-200052.0	-1137.0	-124871.0
24	16	59	36	110	60.0	-200931.0	-1164.0	-125418.0
24	16	59	36	110	61.0	-201991.0	-1191.0	-124688.0
24	16	59	36	111	62.0	-202584.0	-1191.0	-124407.0
24	16	59	36	111	63.0	-202527.0	-1196.0	-124751.0
24	16	59	36	112	64.0	-201998.0	-1226.0	-124577.0
24	16	59	36	112	65.0	-201007.0	-1245.0	-124520.0
24	16	59	36	113	66.0	-200224.0	-1252.0	-124739.0
24	16	59	36	114	68.0	-198068.0	-1297.0	-124546.0
24	16	59	36	114	69.0	-197596.0	-1309.0	-124439.0
24	16	59	36	115	70.0	-197553.0	-1326.0	-124331.0
24	16	59	36	115	71.0	-197364.0	-1330.0	-125302.0
24	16	59	36	116	72.0	-197302.0	-1351.0	-125156.0
24	16	59	36	116	73.0	-197256.0	-1370.0	-124727.0
24	16	59	36	117	74.0	-196915.0	-1382.0	-124856.0
24	16	59	36	149	75.0	-197266.0	-1397.0	-125147.0
24	16	59	36	150	76.0	-198610.0	-1406.0	-124956.0
24	16	59	36	151	77.0	-200115.0	-1416.0	-124609.0
24	16	59	36	151	78.0	-201891.0	-1453.0	-124457.0
24	16	59	36	152	79.0	-203910.0	-1472.0	-124761.0
24	16	59	36	152	80.0	-205764.0	-1479.0	-125038.0
24	16	59	36	153	81.0	-207166.0	-1518.0	-125158.0
24	16	59	36	154	82.0	-208443.0	-1532.0	-125586.0
24	16	59	36	154	83.0	-209211.0	-1559.0	-125834.0
24	16	59	36	155	84.0	-209336.0	-1582.0	-125614.0
24	16	59	36	155	85.0	-209140.0	-1602.0	-126081.0
24	16	59	36	156	86.0	-208641.0	-1634.0	-125179.0
24	16	59	36	156	87.0	-208529.0	-1660.0	-124315.0
24	16	59	36	157	88.0	-209049.0	-1674.0	-125359.0
24	16	59	36	158	89.0	-209396.0	-1680.0	-125210.0
24	16	59	36	158	91.0	-210153.0	-1712.0	-125969.0
24	16	59	36	159	92.0	-210646.0	-1750.0	-126764.0
24	16	59	36	159	93.0	-211438.0	-1750.0	-125559.0
24	16	59	36	160	94.0	-212627.0	-1773.0	-125405.0
24	16	59	36	160	95.0	-213709.0	-1776.0	-125532.0
24	16	59	36	161	96.0	-214398.0	-1766.0	-125571.0
24	16	59	36	195	97.0	-214312.0	-1794.0	-125164.0
24	16	59	36	196	98.0	-214467.0	-1815.0	-125397.0
24	16	59	36	196	99.0	-214016.0	-1812.0	-125621.0
24	16	59	36	197	100.0	-213269.0	-1826.0	-125280.0
24	16	59	36	197	101.0	-212177.0	-1836.0	-125091.0
24	16	59	36	198	102.0	-211579.0	-1854.0	-125037.0
24	16	59	36	199	103.0	-210427.0	-1881.0	-125385.0
24	16	59	36	199	104.0	-209223.0	-1903.0	-125228.0
24	16	59	36	200	105.0	-208265.0	-1905.0	-124736.0
24	16	59	36	200	106.0	-208435.0	-1936.0	-124219.0
24	16	59	36	201	107.0	-208674.0	-1939.0	-124257.0
24	16	59	36	201	108.0	-208716.0	-1937.0	-124431.0
24	16	59	36	202	109.0	-208525.0	-1958.0	-124517.0
24	16	59	36	203	110.0	-208363.0	-1978.0	-124611.0
24	16	59	36	203	111.0	-207872.0	-1987.0	-124299.0
24	16	59	36	204	113.0	-205365.0	-2026.0	-123966.0
24	16	59	36	204	114.0	-204219.0	-2051.0	-124285.0
24	16	59	36	205	115.0	-203307.0	-2062.0	-123812.0
24	16	59	36	205	116.0	-202332.0	-2077.0	-124448.0
24	16	59	36	206	117.0	-201572.0	-2065.0	-124071.0
24	16	59	36	206	118.0	-200513.0	-2068.0	-123926.0
24	16	59	36	207	119.0	-199840.0	-2093.0	-124293.0
24	16	59	36	240	120.0	-199151.0	-2086.0	-123859.0
24	16	59	36	241	121.0	-198689.0	-2105.0	-124002.0
24	16	59	36	241	122.0	-198266.0	-2136.0	-123581.0
24	16	59	36	242	123.0	-198141.0	-2132.0	-123578.0
24	16	59	36	243	124.0	-198272.0	-2125.0	-123706.0
24	16	59	36	243	125.0	-198699.0	-2153.0	-123294.0
24	16	59	36	244	126.0	-199312.0	-2175.0	-123736.0
24	16	59	36	245	127.0	-199820.0	-2184.0	-124279.0
24	16	59	36	245	128.0	-200177.0	-2205.0	-123623.0
24	16	59	36	246	129.0	-200991.0	-2206.0	-123495.0
24	16	59	36	246	130.0	-202550.0	-2221.0	-123951.0
24	16	59	36	247	131.0	-205176.0	-2227.0	-123926.0
24	16	59	36	248	132.0	-207895.0	-2261.0	-123227.0
24	16	59	36	248	133.0	-210229.0	-2277.0	-123334.0
24	16	59	36	249	134.0	-212024.0	-2289.0	-124629.0
24	16	59	36	249	136.0	-212601.0	-2340.0	-125118.0
24	16	59	36	250	137.0	-212186.0	-2380.0	-125937.0
24	16	59	36	250	138.0	-212260.0	-2365.0	-126981.0
24	16	59	36	251	139.0	-212811.0	-2392.0	-129207.0
24	16	59	36	251	140.0	-213811.0	-2404.0	-131215.0
24	16	59	36	252	141.0	-214582.0	-2414.0	-131620.0
24	16	59	36	285	142.0	-215279.0	-2424.0	-131762.0
24	16	59	36	286	143.0	-215569.0	-2446.0	-132950.0
24	16	59	36	287	144.0	-215342.0	-2456.0	-134975.0
24	16	59	36	287	145.0	-214319.0	-2473.0	-137209.0
24	16	59	36	288	146.0	-213929.0	-2501.0	-139007.0
24	16	59	36	288	147.0	-212872.0	-2524.0	-140556.0
24	16	59	36	289	148.0	-211641.0	-2547.0	-141581.0
24	16	59	36	289	149.0	-209828.0	-2570.0	-140888.0
24	16	59	36	290	150.0	-207912.0	-2595.0	-138691.0
24	16	59	36	291	151.0	-205785.0	-2618.0	-135661.0
24	16	59	36	291	152.0	-204079.0	-2636.0	-133699.0
24	16	59	36	292	153.0	-202526.0	-2652.0	-133264.0
24	16	59	36	292	154.0	-201252.0	-2675.0	-133701.0
24	16	59	36	293	155.0	-199589.0	-2679.0	-133831.0
24	16	59	36	293	156.0	-197662.0	-2692.0	-134029.0
24	16	59	36	294	158.0	-194947.0	-2739.0	-130945.0
24	16	59	36	295	159.0	-193631.0	-2777.0	-128837.0
24	16	59	36	295	160.0	-192782.0	-2804.0	-128166.0
24	16	59	36	296	161.0	-191616.0	-2812.0	-129211.0
24	16	59	36	296	162.0	-190183.0	-2809.0	-131331.0
24	16	59	36	297	163.0	-189179.0	-2840.0	-132460.0
24	16	59	36	297	164.0	-188684.0	-2863.0	-133093.0
24	16	59	36	329	165.0	-188480.0	-2871.0	-134044.0
24	16	59	36	330	166.0	-188387.0	-2895.0	-134232.0
24	16	59	36	330	167.0	-185951.0	-2918.0	-134352.0
24	16	59	36	331	168.0	-174447.0	-2935.0	-135437.0
24	16	59	36	331	169.0	-160849.0	-2964.0	-136802.0
24	16	59	36	332	170.0	-152424.0	-2982.0	-136882.0
24	16	59	36	333	171.0	-151964.0	-3007.0	-136747.0
24	16	59	36	333	172.0	-160452.0	-3018.0	-136705.0
24	16	59	36	334	173.0	-173029.0	-3045.0	-136780.0
24	16	59	36	352	174.0	-187311.0	-3057.0	-137819.0
24	16	59	36	353	175.0	-198686.0	-3072.0	-138115.0
24	16	59	36	354	176.0	-205203.0	-3079.0	-138236.0
24	16	59	36	354	177.0	-207250.0	-3119.0	-138391.0
24	16	59	36	355	178.0	-207629.0	-3127.0	-137668.0
24	16	59	36	355	179.0	-209328.0	-3161.0	-137523.0
24	16	59	36	356	181.0	-211779.0	-3218.0	-137507.0
24	16	59	36	356	182.0	-210572.0	-3216.0	-136559.0
24	16	59	36	357	183.0	-208611.0	-3212.0	-136668.0
24	16	59	36	357	184.0	-208092.0	-3244.0	-137522.0
24	16	59	36	358	185.0	-209769.0	-3265.0	-137617.0
24	16	59	36	358	186.0	-211542.0	-3276.0	-137711.0
24	16	59	36	376	187.0	-213101.0	-3289.0	-137538.0
24	16	59	36	377	188.0	-214777.0	-3294.0	-137325.0
24	16	59	36	377	189.0	-215614.0	-3308.0	-136561.0
24	16	59	36	378	190.0	-215347.0	-3351.0	-135686.0
24	16	59	36	379	191.0	-214447.0	-3378.0	-135500.0
24	16	59	36	379	192.0	-213381.0	-3401.0	-135761.0
24	16	59	36	380	193.0	-211462.0	-3422.0	-135862.0
24	16	59	36	380	194.0	-210055.0	-3440.0	-136364.0
24	16	59	36	381	195.0	-209658.0	-3472.0	-135935.0
24	16	59	36	381	196.0	-209126.0	-3466.0	-136034.0
24	16	59	36	382	197.0	-208281.0	-3487.0	-135958.0
24	16	59	36	383	198.0	-206723.0	-3511.0	-135709.0
24	16	59	36	383	199.0	-203958.0	-3542.0	-135831.0
24	16	59	36	384	200.0	-200071.0	-3567.0	-135601.0
24	16	59	36	384	201.0	-196535.0	-3609.0	-135644.0
24	16	59	36	385	203.0	-190801.0	-3647.0	-134906.0
24	16	59	36	386	204.0	-188193.0	-3655.0	-135014.0
24	16	59	36	386	205.0	-185532.0	-3662.0	-135154.0
24	16	59	36	387	206.0	-183256.0	-3675.0	-134574.0
24	16	59	36	387	207.0	-181639.0	-3683.0	-134856.0
24	16	59	36	388	208.0	-181146.0	-3719.0	-135507.0
24	16	59	36	388	209.0	-182294.0	-3732.0	-135881.0
24	16	59	36	420	210.0	-183798.0	-3736.0	-136522.0
24	16	59	36	466	211.0	-184897.0	-3745.0	-136438.0
24	16	59	36	511	212.0	-186151.0	-3772.0	-136022.0
24	16	59	36	512	213.0	-187067.0	-3772.0	-136739.0
24	16	59	36	512	214.0	-187842.0	-3782.0	-137138.0
24	16	59	36	513	215.0	-188641.0	-3820.0	-136811.0
24	16	59	36	514	216.0	-189309.0	-3849.0	-137071.0
24	16	59	36	514	217.0	-189757.0	-3858.0	-136863.0
24	16	59	36	515	218.0	-190331.0	-3881.0	-137217.0
24	16	59	36	515	219.0	-191341.0	-3916.0	-137041.0
24	16	59	36	516	220.0	-192397.0	-3937.0	-136559.0
24	16	59	36	517	221.0	-193745.0	-3961.0	-136346.0
24	16	59	36	517	222.0	-195018.0	-3976.0	-136730.0
24	16	59	36	518	223.0	-195967.0	-3997.0	-136971.0
24	16	59	36	518	224.0	-196769.0	-4019.0	-136664.0
24	16	59	36	519	226.0	-197980.0	-4046.0	-136102.0
24	16	59	36	520	248.0	-212197.0	-4200.0	-127344.0
24	16	59	36	520	15.0	-188605.0	-3216.0	-125569.0
24	16	59	36	521	16.0	-186817.0	-3154.0	-125677.0
24	16	59	36	521	17.0	-185333.0	-3066.0	-125691.0
24	16	59	36	522	18.0	-184349.0	-3007.0	-125316.0
24	16	59	36	523	19.0	-183947.0	-2938.0	-125619.0
24	16	59	36	524	20.0	-183601.0	-2882.0	-125636.0
24	16	59	36	555	21.0	-183252.0	-2841.0	-125026.0
24	16	59	36	556	22.0	-183302.0	-2782.0	-125117.0
24	16	59	36	557	23.0	-183271.0	-2722.0	-124658.0
24	16	59	36	567	24.0	-183112.0	-2660.0	-124518.0
24	16	59	36	568	25.0	-183782.0	-2597.0	-123802.0
24	16	59	36	568	26.0	-185408.0	-2544.0	-123297.0
24	16	59	36	569	27.0	-187642.0	-2522.0	-124100.0
24	16	59	36	570	28.0	-190257.0	-2477.0	-124307.0
24	16	59	36	570	29.0	-193467.0	-2425.0	-123948.0
24	16	59	36	571	30.0	-196665.0	-2390.0	-123994.0
24	16	59	36	571	31.0	-199724.0	-2338.0	-124397.0
24	16	59	36	572	32.0	-202942.0	-2307.0	-124804.0
24	16	59	36	573	33.0	-205769.0	-2269.0	-125147.0
24	16	59	36	573	34.0	-208305.0	-2221.0	-124909.0
24	16	59	36	574	35.0	-210534.0	-2179.0	-124991.0
24	16	59	36	574	37.0	-214871.0	-2116.0	-124497.0
24	16	59	36	575	38.0	-214131.0	-2094.0	-124586.0
24	16	59	36	575	39.0	-208292.0	-2061.0	-124719.0
24	16	59	36	576	40.0	-198041.0	-2024.0	-124818.0
24	16	59	36	576	41.0	-185751.0	-1987.0	-124257.0
24	16	59	36	577	42.0	-189143.0	-1954.0	-123771.0
24	16	59	36	600	43.0	-204337.0	-1934.0	-124080.0
24	16	59	36	601	44.0	-217824.0	-1877.0	-124161.0
24	16	59	36	601	45.0	-223077.0	-1855.0	-124211.0
24	16	59	36	602	46.0	-220906.0	-1857.0	-124667.0
24	16	59	36	603	47.0	-217881.0	-1842.0	-124977.0
24	16	59	36	603	48.0	-213576.0	-1824.0	-124783.0
24	16	59	36	604	49.0	-211004.0	-1801.0	-124350.0
24	16	59	36	604	50.0	-209431.0	-1769.0	-124676.0
24	16	59	36	605	51.0	-205739.0	-1751.0	-124994.0
24	16	59	36	606	52.0	-201512.0	-1719.0	-124762.0
24	16	59	36	606	53.0	-197726.0	-1711.0	-124832.0
24	16	59	36	607	54.0	-194342.0	-1705.0	-124574.0
24	16	59	36	608	55.0	-192789.0	-1677.0	-124497.0
24	16	59	36	608	56.0	-193147.0	-1656.0	-124737.0
24	16	59	36	609	57.0	-192893.0	-1646.0	-124837.0
24	16	59	36	610	59.0	-192302.0	-1612.0	-125153.0
24	16	59	36	610	60.0	-192620.0	-1616.0	-124837.0
24	16	59	36	611	61.0	-193175.0	-1614.0	-125571.0
24	16	59	36	611	62.0	-193592.0	-1601.0	-125468.0
24	16	59	36	612	63.0	-193579.0	-1585.0	-125549.0
24	16	59	36	613	64.0	-192161.0	-1565.0	-125339.0
24	16	59	36	613	65.0	-189514.0	-1543.0	-125330.0
24	16	59	36	645	66.0	-186603.0	-1516.0	-125274.0
24	16	59	36	646	67.0	-185267.0	-1509.0	-125230.0
24	16	59	36	646	68.0	-185761.0	-1499.0	-124749.0
24	16	59	36	647	69.0	-187306.0	-1496.0	-124630.0
24	16	59	36	647	70.0	-189612.0	-1490.0	-124316.0
24	16	59	36	648	71.0	-192229.0	-1492.0	-124497.0
24	16	59	36	649	72.0	-195882.0	-1469.0	-124754.0
24	16	59	36	649	73.0	-199296.0	-1464.0	-124797.0
24	16	59	36	650	74.0	-202496.0	-1463.0	-124777.0
24	16	59	36	650	75.0	-204987.0	-1470.0	-125567.0
24	16	59	36	651	76.0	-206636.0	-1466.0	-125707.0
24	16	59	36	652	77.0	-207721.0	-1481.0	-125807.0
24	16	59	36	652	78.0	-208661.0	-1465.0	-125529.0
24	16	59	36	653	79.0	-209928.0	-1460.0	-125753.0
24	16	59	36	653	80.0	-210401.0	-1475.0	-125526.0
24	16	59	36	654	82.0	-211358.0	-1501.0	-125335.0
24	16	59	36	655	83.0	-212724.0	-1517.0	-126097.0
24	16	59	36	655	84.0	-214042.0	-1532.0	-125919.0
24	16	59	36	656	85.0	-215654.0	-1531.0	-125987.0
24	16	59	36	656	86.0	-216780.0	-1536.0	-126056.0
24	16	59	36	657	87.0	-217408.0	-1532.0	-125894.0
24	16	59	36	691	88.0	-217991.0	-1554.0	-126053.0
24	16	59	36	692	89.0	-218614.0	-1566.0	-126136.0
24	16	59	36	692	90.0	-218901.0	-1574.0	-126247.0
24	16	59	36	693	91.0	-218540.0	-1600.0	-126362.0
24	16	59	36	694	92.0	-218184.0	-1614.0	-125994.0
24	16	59	36	694	93.0	-217676.0	-1617.0	-126146.0
24	16	59	36	695	94.0	-215956.0	-1632.0	-126244.0
24	16	59	36	695	95.0	-214046.0	-1647.0	-126183.0
24	16	59	36	696	96.0	-212249.0	-1664.0	-126037.0
24	16	59	36	697	97.0	-210599.0	-1684.0	-125832.0
24	16	59	36	697	98.0	-209944.0	-1704.0	-125926.0
24	16	59	36	698	99.0	-209474.0	-1723.0	-125954.0
24	16	59	36	698	100.0	-208887.0	-1746.0	-124734.0
24	16	59	36	699	101.0	-207504.0	-1764.0	-124964.0
24	16	59	36	700	102.0	-205306.0	-1793.0	-124245.0
24	16	59	36	700	104.0	-201372.0	-1843.0	-124262.0
24	16	59	36	701	105.0	-200311.0	-1868.0	-124435.0
24	16	59	36	701	106.0	-199446.0	-1882.0	-124662.0
24	16	59	36	702	107.0	-198890.0	-1908.0	-125103.0
24	16	59	36	703	108.0	-198342.0	-1924.0	-125227.0
24	16	59	36	703	109.0	-197534.0	-1915.0	-124909.0
24	16	59	36	704	110.0	-196940.0	-1926.0	-124573.0
24	16	59	36	735	111.0	-196524.0	-1942.0	-124414.0
24	16	59	36	735	112.0	-196089.0	-1963.0	-123664.0
24	16	59	36	736	113.0	-196276.0	-1972.0	-123607.0
24	16	59	36	737	114.0	-196644.0	-1977.0	-123459.0
24	16	59	36	737	115.0	-196876.0	-1991.0	-123269.0
24	16	59	36	738	116.0	-196756.0	-2023.0	-123530.0
24	16	59	36	739	117.0	-197186.0	-2038.0	-123879.0
24	16	59	36	739	118.0	-197886.0	-2042.0	-123306.0
24	16	59	36	740	119.0	-199045.0	-2064.0	-123113.0
24	16	59	36	740	120.0	-199966.0	-2068.0	-123426.0
24	16	59	36	741	121.0	-200979.0	-2077.0	-123749.0
24	16	59	36	742	122.0	-201503.0	-2098.0	-123997.0
24	16	59	36	742	123.0	-202238.0	-2125.0	-125446.0
24	16	59	36	751	124.0	-203395.0	-2141.0	-126461.0
24	16	59	36	751	125.0	-204353.0	-2146.0	-127689.0
24	16	59	36	752	127.0	-206658.0	-2181.0	-127177.0
24	16	59	36	752	128.0	-207676.0	-2190.0	-126484.0
24	16	59	36	753	129.0	-208281.0	-2186.0	-126053.0
24	16	59	36	754	130.0	-208558.0	-2197.0	-125232.0
24	16	59	36	754	131.0	-208624.0	-2191.0	-124185.0
24	16	59	36	755	132.0	-208762.0	-2187.0	-124683.0
24	16	59	36	780	133.0	-208557.0	-2214.0	-124815.0
24	16	59	36	781	134.0	-208434.0	-2230.0	-124301.0
24	16	59	36	782	135.0	-207631.0	-2222.0	-124253.0
24	16	59	36	782	136.0	-206510.0	-2248.0	-124609.0
24	16	59	36	783	137.0	-205594.0	-2234.0	-124384.0
24	16	59	36	784	138.0	-205202.0	-2264.0	-123512.0
24	16	59	36	784	139.0	-205082.0	-2268.0	-123262.0
24	16	59	36	785	140.0	-204999.0	-2277.0	-123245.0
24	16	59	36	786	141.0	-204751.0	-2281.0	-123794.0
24	16	59	36	786	142.0	-204502.0	-2286.0	-123883.0
24	16	59	36	787	143.0	-204502.0	-2300.0	-124400.0
24	16	59	36	787	144.0	-204681.0	-2312.0	-124073.0
24	16	59	36	788	145.0	-204758.0	-2327.0	-123624.0
24	16	59	36	789	146.0	-204487.0	-2344.0	-123499.0
24	16	59	36	789	147.0	-203783.0	-2340.0	-122787.0
24	16	59	36	790	149.0	-201815.0	-2377.0	-122233.0
24	16	59	36	791	150.0	-201016.0	-2387.0	-121910.0
24	16	59	36	791	151.0	-200074.0	-2402.0	-121865.0
24	16	59	36	792	152.0	-199204.0	-2410.0	-121181.0
24	16	59	36	793	153.0	-198876.0	-2427.0	-120421.0
24	16	59	36	793	154.0	-198129.0	-2438.0	-120436.0
24	16	59	36	794	155.0	-197094.0	-2449.0	-120430.0
24	16	59	36	841	156.0	-196600.0	-2452.0	-120326.0
24	16	59	36	865	157.0	-196675.0	-2467.0	-119699.0
24	16	59	36	866	158.0	-196507.0	-2480.0	-119306.0
24	16	59	36	866	159.0	-196092.0	-2486.0	-119161.0
24	16	59	36	867	160.0	-195980.0	-2496.0	-119926.0
24	16	59	36	868	161.0	-195989.0	-2503.0	-120472.0
24	16	59	36	868	162.0	-196255.0	-2522.0	-121083.0
24	16	59	36	869	163.0	-196708.0	-2549.0	-121569.0
24	16	59	36	870	164.0	-197221.0	-2572.0	-121909.0
24	16	59	36	870	165.0	-197414.0	-2572.0	-121426.0
24	16	59	36	871	166.0	-197821.0	-2586.0	-120924.0
24	16	59	36	871	167.0	-198424.0	-2621.0	-121145.0
24	16	59	36	872	168.0	-199117.0	-2636.0	-121345.0
24	16	59	36	872	169.0	-199751.0	-2644.0	-121771.0
24	16	59	36	873	170.0	-201202.0	-2668.0	-122886.0
24	16	59	36	874	179.0	-205816.0	-2822.0	-127541.0
24	16	59	36	874	187.0	-207970.0	-2975.0	-110314.0
24	16	59	36	875	188.0	-209607.0	-2981.0	-111049.0
24	16	59	36	875	189.0	-210814.0	-2994.0	-113532.0
24	16	59	36	876	190.0	-212002.0	-2999.0	-115337.0
24	16	59	36	876	191.0	-212979.0	-2994.0	-116106.0
24	16	59	36	877	192.0	-214227.0	-3008.0	-116547.0
24	16	59	36	878	193.0	-215521.0	-3021.0	-117074.0
24	16	59	36	878	194.0	-216766.0	-3037.0	-117834.0
24	16	59	36	888	195.0	-217004.0	-3074.0	-118362.0
24	16	59	36	888	196.0	-207487.0	-3084.0	-119167.0
24	16	59	36	889	197.0	-191077.0	-3089.0	-119687.0
24	16	59	36	889	198.0	-179587.0	-3127.0	-119902.0
24	16	59	36	890	199.0	-173097.0	-3126.0	-120497.0
24	16	59	36	891	200.0	-176834.0	-3132.0	-121816.0
24	16	59	36	891	201.0	-185246.0	-3167.0	-122104.0
24	16	59	36	892	202.0	-196453.0	-3209.0	-122074.0
24	16	59	36	892	203.0	-205686.0	-3234.0	-122623.0
24	16	59	36	910	204.0	-209627.0	-3222.0	-122081.0
24	16	59	36	911	205.0	-207486.0	-3212.0	-121754.0
24	16	59	36	912	206.0	-203362.0	-3230.0	-122008.0
24	16	59	36	912	207.0	-201264.0	-3251.0	-122344.0
24	16	59	36	913	208.0	-200003.0	-3272.0	-121848.0
24	16	59	36	914	209.0	-197797.0	-3289.0	-122021.0
24	16	59	36	914	210.0	-194909.0	-3309.0	-122229.0
24	16	59	36	915	211.0	-191607.0	-3324.0	-122274.0
24	16	59	36	916	212.0	-189477.0	-3336.0	-121788.0
24	16	59	36	916	213.0	-189625.0	-3344.0	-122457.0
24	16	59	36	917	214.0	-190698.0	-3359.0	-122759.0
24	16	59	36	917	215.0	-191692.0	-3394.0	-122552.0
24	16	59	36	918	216.0	-193109.0	-3425.0	-122934.0
24	16	59	36	919	217.0	-194661.0	-3437.0	-122559.0
24	16	59	36	919	218.0	-195639.0	-3451.0	-122004.0
24	16	59	36	935	219.0	-195906.0	-3466.0	-122316.0
24	16	59	36	936	220.0	-196474.0	-3487.0	-122705.0
24	16	59	36	936	221.0	-197672.0	-3510.0	-122624.0
24	16	59	36	937	222.0	-199694.0	-3532.0	-122849.0
24	16	59	36	938	223.0	-202454.0	-3553.0	-122979.0
24	16	59	36	938	224.0	-205750.0	-3574.0	-123009.0
24	16	59	36	939	225.0	-208432.0	-3603.0	-122909.0
24	16	59	36	959	226.0	-209465.0	-3606.0	-122900.0
24	16	59	36	959	227.0	-209612.0	-3619.0	-122952.0
24	16	59	36	960	228.0	-208743.0	-3652.0	-122856.0
24	16	59	36	961	229.0	-207115.0	-3662.0	-123388.0
24	16	59	36	961	230.0	-204682.0	-3689.0	-123852.0
24	16	59	36	962	231.0	-202670.0	-3701.0	-123878.0
24	16	59	36	963	232.0	-200657.0	-3699.0	-123789.0
24	16	59	36	963	233.0	-198491.0	-3721.0	-122999.0
24	16	59	36	964	234.0	-196256.0	-3743.0	-122057.0
24	16	59	36	964	235.0	-194104.0	-3759.0	-121954.0
24	16	59	36	965	236.0	-192499.0	-3768.0	-121746.0
24	16	59	36	965	237.0	-191731.0	-3778.0	-121456.0
24	16	59	36	966	238.0	-191789.0	-3783.0	-121957.0
24	16	59	36	967	239.0	-192648.0	-3806.0	-122069.0
24	16	59	36	967	240.0	-193569.0	-3835.0	-122614.0
24	16	59	36	981	241.0	-194133.0	-3861.0	-123596.0
24	16	59	36	982	242.0	-194176.0	-3871.0	-124431.0
24	16	59	36	983	243.0	-193239.0	-3866.0	-123759.0
24	16	59	36	983	244.0	-191717.0	-3884.0	-123412.0
24	16	59	36	984	245.0	-189726.0	-3920.0	-124112.0
24	16	59	36	984	246.0	-187493.0	-3934.0	-124625.0
24	16	59	36	985	247.0	-184778.0	-3956.0	-124336.0
24	16	59	37	4	248.0	-182207.0	-3970.0	-124138.0
24	16	59	37	5	249.0	-180654.0	-3970.0	-124032.0
24	16	59	37	6	250.0	-180596.0	-4001.0	-123544.0
24	16	59	37	6	251.0	-181089.0	-4019.0	-123847.0
24	16	59	37	7	252.0	-181843.0	-4029.0	-123703.0
24	16	59	37	7	253.0	-182706.0	-4052.0	-122327.0
24	16	59	37	8	254.0	-183311.0	-4071.0	-122178.0
24	16	59	37	8	255.0	-183913.0	-4079.0	-122927.0
24	16	59	37	9	0.0	-184742.0	-4089.0	-123096.0
24	16	59	37	10	1.0	-185856.0	-4106.0	-123202.0
24	16	59	37	10	2.0	-187577.0	-4103.0	-123054.0
24	16	59	37	11	3.0	-189733.0	-4126.0	-123404.0
24	16	59	37	11	4.0	-191966.0	-4146.0	-123647.0
24	16	59	37	12	5.0	-194119.0	-4149.0	-123946.0
24	16	59	37	13	6.0	-196153.0	-4166.0	-123947.0
24	16	59	37	27	7.0	-198409.0	-4177.0	-123972.0
24	16	59	37	28	8.0	-200852.0	-4187.0	-124290.0
24	16	59	37	28	9.0	-202926.0	-4189.0	-124266.0
24	16	59	37	29	10.0	-205266.0	-4195.0	-123674.0
24	16	59	37	29	11.0	-207326.0	-4197.0	-123008.0
24	16	59	37	30	12.0	-208475.0	-4201.0	-122169.0
24	16	59	37	31	13.0	-209316.0	-4207.0	-122092.0
24	16	59	37	31	14.0	-210200.0	-4222.0	-122078.0
24	16	59	37	51	15.0	-210815.0	-4226.0	-121516.0
24	16	59	37	52	16.0	-210667.0	-4222.0	-120905.0
24	16	59	37	52	17.0	-210296.0	-4207.0	-120559.0
24	16	59	37	53	18.0	-209816.0	-4209.0	-120661.0
24	16	59	37	54	19.0	-209367.0	-4202.0	-120640.0
24	16	59	37	54	20.0	-208786.0	-4182.0	-120865.0
24	16	59	37	55	21.0	-208197.0	-4156.0	-121351.0
24	16	59	37	55	22.0	-207275.0	-4109.0	-121501.0
24	16	59	37	56	23.0	-205962.0	-4087.0	-121877.0
24	16	59	37	57	24.0	-205095.0	-4061.0	-122315.0
24	16	59	37	57	25.0	-204287.0	-4037.0	-122546.0
24	16	59	37	58	26.0	-202764.0	-4011.0	-122056.0
24	16	59	37	58	27.0	-201479.0	-3982.0	-122216.0
24	16	59	37	59	28.0	-199709.0	-3977.0	-122201.0
24	16	59	37	60	29.0	-197825.0	-3937.0	-121813.0
24	16	59	37	75	30.0	-195639.0	-3873.0	-122086.0
24	16	59	37	76	31.0	-193663.0	-3823.0	-121958.0
24	16	59	37	76	32.0	-192250.0	-3779.0	-121691.0
24	16	59	37	77	33.0	-191276.0	-3742.0	-120872.0
24	16	59	37	78	34.0	-190394.0	-3681.0	-120846.0
24	16	59	37	78	35.0	-189822.0	-3629.0	-120879.0
24	16	59	37	79	36.0	-189617.0	-3605.0	-120806.0
24	16	59	37	80	37.0	-189537.0	-3541.0	-120814.0
24	16	59	37	80	38.0	-189459.0	-3473.0	-121151.0
24	16	59	37	81	39.0	-189535.0	-3417.0	-120781.0
24	16	59	37	82	40.0	-190146.0	-3354.0	-120761.0
24	16	59	37	82	41.0	-191500.0	-3291.0	-120421.0
24	16	59	37	83	42.0	-192869.0	-3231.0	-119630.0
24	16	59	37	83	43.0	-193431.0	-3183.0	-119307.0
24	16	59	37	84	44.0	-193777.0	-3124.0	-119138.0
24	16	59	37	98	45.0	-194257.0	-3067.0	-119206.0
24	16	59	37	99	46.0	-194822.0	-2992.0	-118809.0
24	16	59	37	99	47.0	-195426.0	-2940.0	-118439.0
24	16	59	37	100	48.0	-195850.0	-2906.0	-118316.0
24	16	59	37	100	49.0	-196480.0	-2851.0	-118740.0
24	16	59	37	101	50.0	-197564.0	-2790.0	-118371.0
24	16	59	37	102	51.0	-199056.0	-2739.0	-118311.0
24	16	59	37	121	52.0	-201085.0	-2682.0	-117754.0
24	16	59	37	122	53.0	-203231.0	-2635.0	-117456.0
24	16	59	37	123	54.0	-205071.0	-2574.0	-116909.0
24	16	59	37	123	55.0	-206287.0	-2526.0	-116324.0
24	16	59	37	124	56.0	-207549.0	-2474.0	-116254.0
24	16	59	37	125	57.0	-208692.0	-2422.0	-116117.0
24	16	59	37	125	58.0	-210282.0	-2380.0	-115677.0
24	16	59	37	126	59.0	-211669.0	-2338.0	-114816.0
24	16	59	37	153	60.0	-212620.0	-2292.0	-114249.0
24	16	59	37	155	61.0	-212972.0	-2238.0	-113770.0
24	16	59	37	155	62.0	-212858.0	-2177.0	-113937.0
24	16	59	37	156	63.0	-212496.0	-2140.0	-113992.0
24	16	59	37	156	64.0	-212185.0	-2088.0	-114582.0
24	16	59	37	157	65.0	-210968.0	-2054.0	-115386.0
24	16	59	37	157	66.0	-206566.0	-2019.0	-115646.0
24	16	59	37	158	67.0	-198021.0	-1991.0	-115515.0
24	16	59	37	159	68.0	-186109.0	-1940.0	-115666.0
24	16	59	37	159	69.0	-173801.0	-1904.0	-115796.0
24	16	59	37	160	70.0	-179477.0	-1883.0	-116236.0
24	16	59	37	161	71.0	-191683.0	-1844.0	-116222.0
24	16	59	37	161	72.0	-203612.0	-1813.0	-115612.0
24	16	59	37	162	73.0	-204093.0	-1790.0	-115636.0
24	16	59	37	162	74.0	-199991.0	-1759.0	-116079.0
24	16	59	37	163	75.0	-196268.0	-1724.0	-116208.0
24	16	59	37	163	76.0	-192396.0	-1687.0	-116368.0
24	16	59	37	164	77.0	-190411.0	-1654.0	-116154.0
24	16	59	37	164	78.0	-190114.0	-1621.0	-116597.0
24	16	59	37	165	79.0	-187408.0	-1583.0	-116854.0
24	16	59	37	166	80.0	-183993.0	-1553.0	-116453.0
24	16	59	37	173	81.0	-180638.0	-1556.0	-116352.0
24	16	59	37	174	82.0	-178084.0	-1536.0	-116146.0
24	16	59	37	175	83.0	-177465.0	-1494.0	-115716.0
24	16	59	37	175	84.0	-179087.0	-1476.0	-115846.0
24	16	59	37	176	85.0	-181064.0	-1466.0	-115984.0
24	16	59	37	176	86.0	-182031.0	-1442.0	-115409.0
24	16	59	37	177	87.0	-182352.0	-1418.0	-115632.0
24	16	59	37	177	88.0	-182782.0	-1417.0	-115982.0
24	16	59	37	178	89.0	-184078.0	-1394.0	-116129.0
24	16	59	37	197	90.0	-185831.0	-1377.0	-116054.0
24	16	59	37	198	91.0	-187509.0	-1370.0	-115774.0
24	16	59	37	198	92.0	-188880.0	-1351.0	-115667.0
24	16	59	37	199	93.0	-189830.0	-1318.0	-114482.0
24	16	59	37	199	94.0	-190569.0	-1316.0	-114301.0
24	16	59	37	200	95.0	-191476.0	-1314.0	-114577.0
24	16	59	37	200	96.0	-193041.0	-1328.0	-114903.0
24	16	59	37	201	97.0	-194712.0	-1312.0	-114411.0
24	16	59	37	202	98.0	-196437.0	-1288.0	-114611.0
24	16	59	37	202	99.0	-198556.0	-1295.0	-114581.0
24	16	59	37	203	100.0	-200857.0	-1298.0	-114541.0
24	16	59	37	203	101.0	-203201.0	-1276.0	-114205.0
24	16	59	37	204	102.0	-205434.0	-1264.0	-113384.0
24	16	59	37	204	103.0	-207736.0	-1281.0	-113777.0
24	16	59	37	205	104.0	-209517.0	-1289.0	-113793.0
24	16	59	37	220	105.0	-210621.0	-1276.0	-113588.0
24	16	59	37	221	106.0	-211267.0	-1257.0	-113587.0
24	16	59	37	222	107.0	-211663.0	-1254.0	-114182.0
24	16	59	37	222	108.0	-211981.0	-1269.0	-113774.0
24	16	59	37	223	109.0	-212062.0	-1271.0	-113968.0
24	16	59	37	223	110.0	-211923.0	-1272.0	-113318.0
24	16	59	37	224	111.0	-211719.0	-1268.0	-112767.0
24	16	59	37	243	112.0	-211294.0	-1267.0	-112968.0
24	16	59	37	244	113.0	-210547.0	-1269.0	-113497.0
24	16	59	37	244	114.0	-209749.0	-1291.0	-113351.0
24	16	59	37	245	115.0	-208856.0	-1295.0	-113122.0
24	16	59	37	246	116.0	-207873.0	-1297.0	-113076.0
24	16	59	37	246	117.0	-206801.0	-1332.0	-113219.0
24	16	59	37	247	118.0	-205943.0	-1343.0	-113185.0
24	16	59	37	247	119.0	-205092.0	-1377.0	-113310.0
24	16	59	37	248	120.0	-204055.0	-1382.0	-113684.0
24	16	59	37	248	121.0	-202945.0	-1391.0	-113553.0
24	16	59	37	249	122.0	-201574.0	-1418.0	-112682.0
24	16	59	37	249	123.0	-200056.0	-1432.0	-112265.0
24	16	59	37	250	124.0	-198639.0	-1433.0	-112421.0
24	16	59	37	250	125.0	-197642.0	-1452.0	-112477.0
24	16	59	37	251	126.0	-197251.0	-1459.0	-112131.0
24	16	59	37	267	127.0	-197567.0	-1483.0	-112039.0
24	16	59	37	267	128.0	-198411.0	-1494.0	-112172.0
24	16	59	37	268	129.0	-199316.0	-1512.0	-112294.0
24	16	59	37	268	130.0	-200337.0	-1522.0	-111537.0
24	16	59	37	269	131.0	-201566.0	-1523.0	-111431.0
24	16	59	37	269	132.0	-202972.0	-1556.0	-111455.0
24	16	59	37	270	133.0	-204530.0	-1589.0	-111737.0
24	16	59	37	271	134.0	-206101.0	-1612.0	-111393.0
24	16	59	37	290	135.0	-207242.0	-1614.0	-110924.0
24	16	59	37	291	136.0	-207833.0	-1600.0	-111023.0
24	16	59	37	291	137.0	-207788.0	-1636.0	-111156.0
24	16	59	37	292	138.0	-207399.0	-1666.0	-110776.0
24	16	59	37	293	139.0	-206971.0	-1679.0	-110171.0
24	16	59	37	293	140.0	-206651.0	-1701.0	-110319.0
24	16	59	37	294	141.0	-206707.0	-1739.0	-110086.0
24	16	59	37	294	142.0	-207641.0	-1749.0	-110462.0
24	16	59	37	295	143.0	-208924.0	-1741.0	-111231.0
24	16	59	37	295	144.0	-210367.0	-1748.0	-111866.0
24	16	59	37	296	145.0	-211809.0	-1777.0	-111701.0
24	16	59	37	296	146.0	-212301.0	-1800.0	-111270.0
24	16	59	37	297	147.0	-212234.0	-1809.0	-111790.0
24	16	59	37	297	148.0	-211685.0	-1830.0	-112006.0
24	16	59	37	298	149.0	-211120.0	-1852.0	-112124.0
24	16	59	37	316	150.0	-211064.0	-1856.0	-111733.0
24	16	59	37	316	151.0	-211332.0	-1852.0	-111749.0
24	16	59	37	317	152.0	-211775.0	-1866.0	-111393.0
24	16	59	37	318	153.0	-212247.0	-1874.0	-110850.0
24	16	59	37	318	154.0	-212510.0	-1872.0	-110936.0
24	16	59	37	319	155.0	-212270.0	-1897.0	-111458.0
24	16	59	37	319	156.0	-211721.0	-1886.0	-111689.0
24	16	59	37	320	157.0	-210759.0	-1884.0	-111324.0
24	16	59	37	321	158.0	-210011.0	-1907.0	-112034.0
24	16	59	37	321	159.0	-209405.0	-1941.0	-112466.0
24	16	59	37	322	160.0	-208374.0	-1957.0	-111441.0
24	16	59	37	322	161.0	-206992.0	-1965.0	-111379.0
24	16	59	37	323	162.0	-205775.0	-1969.0	-111081.0
24	16	59	37	324	163.0	-204907.0	-1972.0	-111189.0
24	16	59	37	324	164.0	-203979.0	-2006.0	-111150.0
24	16	59	37	338	165.0	-203498.0	-1995.0	-111179.0
24	16	59	37	339	166.0	-203432.0	-1976.0	-110994.0
24	16	59	37	340	167.0	-203658.0	-2002.0	-110956.0
24	16	59	37	340	168.0	-203606.0	-2006.0	-111036.0
24	16	59	37	341	169.0	-203246.0	-2012.0	-110791.0
24	16	59	37	341	170.0	-202649.0	-2045.0	-110245.0
24	16	59	37	342	171.0	-202473.0	-2051.0	-110140.0
24	16	59	37	361	172.0	-201738.0	-2044.0	-110179.0
24	16	59	37	362	173.0	-201011.0	-2052.0	-109862.0
24	16	59	37	362	174.0	-200773.0	-2051.0	-109579.0
24	16	59	37	363	175.0	-200503.0	-2069.0	-109562.0
24	16	59	37	364	176.0	-199714.0	-2074.0	-109352.0
24	16	59	37	364	177.0	-198824.0	-2092.0	-109752.0
24	16	59	37	365	178.0	-198466.0	-2107.0	-109716.0
24	16	59	37	365	179.0	-198932.0	-2109.0	-109781.0
24	16	59	37	366	180.0	-199724.0	-2114.0	-108937.0
24	16	59	37	366	181.0	-201171.0	-2131.0	-108995.0
24	16	59	37	367	182.0	-203174.0	-2142.0	-109186.0
24	16	59	37	367	183.0	-205148.0	-2151.0	-108876.0
24	16	59	37	368	184.0	-206392.0	-2167.0	-108843.0
24	16	59	37	369	185.0	-207226.0	-2181.0	-108338.0
24	16	59	37	369	186.0	-207568.0	-2214.0	-108289.0
24	16	59	37	384	187.0	-207285.0	-2210.0	-108384.0
24	16	59	37	384	188.0	-206682.0	-2202.0	-108785.0
24	16	59	37	385	189.0	-206259.0	-2221.0	-108452.0
24	16	59	37	385	190.0	-205837.0	-2242.0	-108229.0
24	16	59	37	386	191.0	-205135.0	-2261.0	-108191.0
24	16	59	37	386	192.0	-204634.0	-2289.0	-107779.0
24	16	59	37	387	193.0	-204329.0	-2297.0	-106877.0
24	16	59	37	388	194.0	-204012.0	-2311.0	-107298.0
24	16	59	37	406	195.0	-203626.0	-2316.0	-107470.0
24	16	59	37	407	196.0	-202767.0	-2325.0	-108361.0
24	16	59	37	408	197.0	-201744.0	-2326.0	-108900.0
24	16	59	37	408	198.0	-200817.0	-2326.0	-108613.0
24	16	59	37	409	199.0	-200542.0	-2361.0	-108795.0
24	16	59	37	409	200.0	-200935.0	-2389.0	-109196.0
24	16	59	37	410	201.0	-201596.0	-2417.0	-109140.0
24	16	59	37	411	202.0	-202226.0	-2416.0	-109627.0
24	16	59	37	411	203.0	-202990.0	-2418.0	-111606.0
24	16	59	37	412	204.0	-203876.0	-2459.0	-113630.0
24	16	59	37	412	205.0	-204645.0	-2477.0	-115148.0
24	16	59	37	413	206.0	-204961.0	-2496.0	-117140.0
24	16	59	37	413	207.0	-204719.0	-2521.0	-118809.0
24	16	59	37	414	208.0	-203954.0	-2529.0	-119903.0
24	16	59	37	433	209.0	-202886.0	-2544.0	-119794.0
24	16	59	37	433	210.0	-201784.0	-2563.0	-118377.0
24	16	59	37	434	211.0	-201224.0	-2576.0	-115862.0
24	16	59	37	434	212.0	-201116.0	-2626.0	-113211.0
24	16	59	37	435	213.0	-201026.0	-2633.0	-111668.0
24	16	59	37	435	214.0	-200750.0	-2652.0	-110769.0
24	16	59	37	436	215.0	-200226.0	-2664.0	-110597.0
24	16	59	37	437	216.0	-199105.0	-2693.0	-109522.0
24	16	59	37	455	217.0	-197845.0	-2698.0	-105502.0
24	16	59	37	456	218.0	-196902.0	-2710.0	-99722.0
24	16	59	37	457	219.0	-196682.0	-2721.0	-95867.0
24	16	59	37	457	220.0	-197116.0	-2747.0	-94769.0
24	16	59	37	458	221.0	-198348.0	-2764.0	-96196.0
24	16	59	37	458	222.0	-200319.0	-2775.0	-98764.0
24	16	59	37	459	223.0	-202731.0	-2790.0	-100834.0
24	16	59	37	459	224.0	-205217.0	-2812.0	-101339.0
24	16	59	37	460	225.0	-207279.0	-2826.0	-102242.0
24	16	59	37	460	226.0	-209081.0	-2831.0	-102620.0
24	16	59	37	461	227.0	-210263.0	-2867.0	-103461.0
24	16	59	37	462	228.0	-208104.0	-2892.0	-104971.0
24	16	59	37	462	229.0	-194285.0	-2913.0	-106351.0
24	16	59	37	463	230.0	-177102.0	-2940.0	-106549.0
24	16	59	37	463	231.0	-165675.0	-2963.0	-106411.0
24	16	59	37	478	232.0	-162611.0	-2955.0	-107061.0
24	16	59	37	479	233.0	-169085.0	-2981.0	-107339.0
24	16	59	37	480	234.0	-179243.0	-2989.0	-107104.0
24	16	59	37	480	235.0	-191121.0	-3016.0	-107483.0
24	16	59	37	481	236.0	-200654.0	-3038.0	-107631.0
24	16	59	37	481	237.0	-205682.0	-3061.0	-107493.0
24	16	59	37	482	238.0	-205052.0	-3081.0	-107578.0
24	16	59	37	502	239.0	-203924.0	-3077.0	-108241.0
24	16	59	37	502	240.0	-203924.0	-3104.0	-108406.0
24	16	59	37	503	241.0	-203556.0	-3112.0	-108454.0
24	16	59	37	503	242.0	-201556.0	-3127.0	-108781.0
24	16	59	37	504	243.0	-198429.0	-3149.0	-108745.0
24	16	59	37	504	244.0	-194722.0	-3157.0	-109580.0
24	16	59	37	505	245.0	-193061.0	-3170.0	-110171.0
24	16	59	37	506	246.0	-193715.0	-3208.0	-109617.0
24	16	59	37	506	247.0	-194965.0	-3227.0	-109703.0
24	16	59	37	507	248.0	-196171.0	-3242.0	-109621.0
24	16	59	37	507	249.0	-198011.0	-3255.0	-109469.0
24	16	59	37	508	250.0	-198520.0	-3266.0	-109552.0
24	16	59	37	508	251.0	-197973.0	-3304.0	-110265.0
24	16	59	37	509	252.0	-196669.0	-3324.0	-110637.0
24	16	59	37	509	253.0	-194779.0	-3327.0	-111376.0
24	16	59	37	524	254.0	-192334.0	-3355.0	-111707.0
24	16	59	37	525	255.0	-190538.0	-3364.0	-111974.0
24	16	59	37	526	0.0	-189711.0	-3379.0	-112408.0
24	16	59	37	526	1.0	-189834.0	-3419.0	-112719.0
24	16	59	37	527	2.0	-191101.0	-3436.0	-112662.0
24	16	59	37	527	3.0	-192297.0	-3431.0	-112197.0
24	16	59	37	528	4.0	-193296.0	-3470.0	-111737.0
24	16	59	37	528	5.0	-193538.0	-3490.0	-111744.0
24	16	59	37	529	6.0	-192862.0	-3501.0	-111448.0
24	16	59	37	530	7.0	-191586.0	-3522.0	-111584.0
24	16	59	37	530	8.0	-190127.0	-3526.0	-111601.0
24	16	59	37	531	9.0	-188306.0	-3575.0	-111357.0
24	16	59	37	531	10.0	-186696.0	-3604.0	-110834.0
24	16	59	37	532	11.0	-185706.0	-3602.0	-111247.0
24	16	59	37	533	12.0	-185856.0	-3605.0	-110934.0
24	16	59	37	547	13.0	-186821.0	-3617.0	-110689.0
24	16	59	37	548	14.0	-188312.0	-3639.0	-111004.0
24	16	59	37	549	15.0	-190228.0	-3658.0	-111330.0
24	16	59	37	549	16.0	-192683.0	-3686.0	-111324.0
24	16	59	37	550	17.0	-194737.0	-3702.0	-111825.0
24	16	59	37	550	18.0	-196059.0	-3720.0	-112176.0
24	16	59	37	551	19.0	-196829.0	-3738.0	-112107.0
24	16	59	37	551	20.0	-197181.0	-3750.0	-111863.0
24	16	59	37	571	21.0	-197471.0	-3749.0	-112433.0
24	16	59	37	571	22.0	-197431.0	-3759.0	-112903.0
24	16	59	37	572	23.0	-197146.0	-3777.0	-112601.0
24	16	59	37	572	24.0	-196837.0	-3789.0	-112434.0
24	16	59	37	573	25.0	-196786.0	-3815.0	-112410.0
24	16	59	37	574	26.0	-196958.0	-3833.0	-112665.0
24	16	59	37	574	27.0	-197241.0	-3859.0	-113169.0
24	16	59	37	575	28.0	-197621.0	-3877.0	-113536.0
24	16	59	37	575	29.0	-198166.0	-3865.0	-113652.0
24	16	59	37	576	30.0	-199196.0	-3864.0	-113832.0
24	16	59	37	577	31.0	-200302.0	-3890.0	-114443.0
24	16	59	37	577	32.0	-201307.0	-3897.0	-114754.0
24	16	59	37	578	33.0	-202254.0	-3906.0	-114768.0
24	16	59	37	578	34.0	-203175.0	-3943.0	-114918.0
24	16	59	37	579	35.0	-204122.0	-3944.0	-114486.0
24	16	59	37	593	36.0	-204907.0	-3951.0	-114436.0
24	16	59	37	594	37.0	-205317.0	-3962.0	-114317.0
24	16	59	37	594	38.0	-205481.0	-3976.0	-114179.0
24	16	59	37	595	39.0	-205610.0	-3979.0	-114422.0
24	16	59	37	596	40.0	-205666.0	-3996.0	-114249.0
24	16	59	37	596	41.0	-205583.0	-4026.0	-114107.0
24	16	59	37	597	42.0	-204769.0	-4058.0	-113641.0
24	16	59	37	617	43.0	-204175.0	-4047.0	-113684.0
24	16	59	37	618	44.0	-203111.0	-4030.0	-113378.0
24	16	59	37	618	45.0	-202223.0	-4021.0	-112707.0
24	16	59	37	619	46.0	-201264.0	-4027.0	-112544.0
24	16	59	37	620	47.0	-200371.0	-4031.0	-112452.0
24	16	59	37	620	48.0	-199553.0	-4029.0	-111878.0
24	16	59	37	621	49.0	-198346.0	-4040.0	-111678.0
24	16	59	37	621	50.0	-196937.0	-4037.0	-111606.0
24	16	59	37	622	51.0	-195664.0	-4015.0	-110736.0
24	16	59	37	623	52.0	-194869.0	-3992.0	-109473.0
24	16	59	37	623	53.0	-194575.0	-3979.0	-108803.0
24	16	59	37	624	54.0	-194139.0	-3962.0	-108401.0
24	16	59	37	624	55.0	-193521.0	-3946.0	-107673.0
24	16	59	37	625	56.0	-193211.0	-3914.0	-107489.0
24	16	59	37	625	57.0	-192941.0	-3895.0	-107484.0
24	16	59	37	640	58.0	-192682.0	-3846.0	-106996.0
24	16	59	37	640	59.0	-192221.0	-3808.0	-106721.0
24	16	59	37	641	60.0	-191525.0	-3777.0	-107206.0
24	16	59	37	642	61.0	-191196.0	-3744.0	-107186.0
24	16	59	37	642	62.0	-191757.0	-3704.0	-107181.0
24	16	59	37	643	63.0	-192437.0	-3665.0	-106655.0
24	16	59	37	644	64.0	-192767.0	-3625.0	-106066.0
24	16	59	37	644	65.0	-192632.0	-3589.0	-106013.0
24	16	59	37	661	66.0	-192708.0	-3540.0	-105522.0
24	16	59	37	662	67.0	-193468.0	-3477.0	-105712.0
24	16	59	37	663	68.0	-194196.0	-3422.0	-106267.0
24	16	59	37	663	69.0	-194932.0	-3364.0	-106102.0
24	16	59	37	664	70.0	-195496.0	-3307.0	-105881.0
24	16	59	37	665	71.0	-196291.0	-3272.0	-105595.0
24	16	59	37	665	72.0	-197362.0	-3217.0	-106052.0
24	16	59	37	666	73.0	-198362.0	-3129.0	-105412.0
24	16	59	37	666	74.0	-199255.0	-3055.0	-105040.0
