25	17	1	39	103	32.0	-231964.0	-1925.0	-47846.0
25	17	1	39	106	33.0	-232881.0	-1922.0	-52149.0
25	17	1	39	108	34.0	-232947.0	-1927.0	-58034.0
25	17	1	39	111	35.0	-231823.0	-1932.0	-63217.0
25	17	1	39	113	36.0	-229630.0	-1951.0	-64297.0
25	17	1	39	115	37.0	-226054.0	-1939.0	-66404.0
25	17	1	39	118	38.0	-221230.0	-1900.0	-68666.0
25	17	1	39	119	39.0	-215034.0	-1873.0	-68582.0
25	17	1	39	121	40.0	-207562.0	-1861.0	-66163.0
25	17	1	39	123	41.0	-199371.0	-1869.0	-63929.0
25	17	1	39	124	42.0	-191111.0	-1882.0	-61221.0
25	17	1	39	125	43.0	-183368.0	-1894.0	-56172.0
25	17	1	39	126	44.0	-176627.0	-1907.0	-50474.0
25	17	1	39	135	45.0	-171372.0	-1924.0	-44794.0
25	17	1	39	136	46.0	-167884.0	-1932.0	-39878.0
25	17	1	39	137	47.0	-166221.0	-1936.0	-38239.0
25	17	1	39	137	48.0	-166411.0	-1947.0	-38501.0
25	17	1	39	138	49.0	-167629.0	-1959.0	-38156.0
25	17	1	39	138	50.0	-167285.0	-1956.0	-38027.0
25	17	1	39	139	51.0	-160650.0	-1993.0	-38173.0
25	17	1	39	140	52.0	-146153.0	-2024.0	-38094.0
25	17	1	39	140	53.0	-128746.0	-2039.0	-38048.0
25	17	1	39	141	54.0	-113429.0	-2077.0	-37661.0
25	17	1	39	189	55.0	-105487.0	-2118.0	-36307.0
25	17	1	39	236	56.0	-104587.0	-2154.0	-34949.0
25	17	1	39	236	57.0	-108344.0	-2177.0	-33006.0
25	17	1	39	237	58.0	-113305.0	-2209.0	-30429.0
25	17	1	39	238	59.0	-118146.0	-2227.0	-29997.0
25	17	1	39	239	60.0	-124743.0	-2256.0	-30550.0
25	17	1	39	240	61.0	-137370.0	-2290.0	-31090.0
25	17	1	39	240	62.0	-157792.0	-2346.0	-31566.0
25	17	1	39	241	63.0	-185821.0	-2377.0	-32034.0
25	17	1	39	242	64.0	-219941.0	-2403.0	-32641.0
25	17	1	39	242	65.0	-252609.0	-2414.0	-32974.0
25	17	1	39	243	66.0	-275256.0	-2424.0	-33232.0
25	17	1	39	243	67.0	-283739.0	-2461.0	-33131.0
25	17	1	39	244	68.0	-281447.0	-2481.0	-32809.0
25	17	1	39	245	69.0	-275534.0	-2507.0	-32887.0
25	17	1	39	245	80.0	-243282.0	-2334.0	-37977.0
25	17	1	39	246	103.0	-168031.0	-2098.0	-34193.0
25	17	1	39	246	104.0	-173579.0	-2104.0	-34386.0
25	17	1	39	247	105.0	-179773.0	-2139.0	-34725.0
25	17	1	39	248	106.0	-185747.0	-2138.0	-34494.0
25	17	1	39	248	107.0	-191575.0	-2134.0	-34524.0
25	17	1	39	249	108.0	-197000.0	-2139.0	-34804.0
25	17	1	39	281	109.0	-202029.0	-2137.0	-34397.0
25	17	1	39	282	110.0	-206632.0	-2140.0	-34179.0
25	17	1	39	283	111.0	-210732.0	-2139.0	-34281.0
25	17	1	39	283	112.0	-214872.0	-2142.0	-33823.0
25	17	1	39	284	113.0	-218615.0	-2128.0	-32697.0
25	17	1	39	284	114.0	-221789.0	-2132.0	-32819.0
25	17	1	39	285	115.0	-224456.0	-2150.0	-33414.0
25	17	1	39	286	116.0	-226509.0	-2175.0	-34663.0
25	17	1	39	286	117.0	-228919.0	-2203.0	-35744.0
25	17	1	39	287	118.0	-230892.0	-2214.0	-35535.0
25	17	1	39	287	119.0	-231787.0	-2207.0	-35894.0
25	17	1	39	288	120.0	-232001.0	-2211.0	-35907.0
25	17	1	39	289	121.0	-231947.0	-2204.0	-35922.0
25	17	1	39	289	122.0	-231107.0	-2208.0	-36350.0
25	17	1	39	290	123.0	-229746.0	-2215.0	-36091.0
25	17	1	39	290	125.0	-226417.0	-2275.0	-35508.0
25	17	1	39	291	126.0	-224292.0	-2287.0	-35082.0
25	17	1	39	292	127.0	-222256.0	-2308.0	-34776.0
25	17	1	39	292	128.0	-220794.0	-2329.0	-35217.0
25	17	1	39	293	129.0	-219184.0	-2367.0	-35272.0
25	17	1	39	293	130.0	-217575.0	-2394.0	-34932.0
25	17	1	39	294	131.0	-215931.0	-2426.0	-35092.0
25	17	1	39	325	132.0	-214117.0	-2471.0	-35231.0
25	17	1	39	325	133.0	-212399.0	-2500.0	-34825.0
25	17	1	39	326	134.0	-210466.0	-2522.0	-35023.0
25	17	1	39	327	135.0	-207813.0	-2557.0	-35342.0
25	17	1	39	327	136.0	-204412.0	-2569.0	-35166.0
25	17	1	39	328	137.0	-200793.0	-2576.0	-34791.0
25	17	1	39	329	138.0	-196786.0	-2617.0	-35127.0
25	17	1	39	329	139.0	-192627.0	-2603.0	-35442.0
25	17	1	39	330	140.0	-188481.0	-2624.0	-35410.0
25	17	1	39	330	141.0	-184797.0	-2644.0	-35459.0
25	17	1	39	331	142.0	-181453.0	-2656.0	-35309.0
25	17	1	39	332	143.0	-178492.0	-2655.0	-34972.0
25	17	1	39	332	144.0	-176312.0	-2647.0	-35230.0
25	17	1	39	333	145.0	-174615.0	-2631.0	-34940.0
25	17	1	39	333	146.0	-173396.0	-2620.0	-34304.0
25	17	1	39	334	148.0	-172767.0	-2552.0	-34454.0
25	17	1	39	334	149.0	-173719.0	-2538.0	-34097.0
25	17	1	39	335	150.0	-175546.0	-2496.0	-34264.0
25	17	1	39	336	151.0	-177871.0	-2459.0	-34257.0
25	17	1	39	336	152.0	-180629.0	-2434.0	-34120.0
25	17	1	39	337	153.0	-183382.0	-2416.0	-34021.0
25	17	1	39	370	154.0	-186289.0	-2387.0	-33704.0
25	17	1	39	371	155.0	-188925.0	-2352.0	-33747.0
25	17	1	39	372	156.0	-190769.0	-2316.0	-33966.0
25	17	1	39	372	157.0	-192189.0	-2283.0	-34406.0
25	17	1	39	373	158.0	-193249.0	-2269.0	-34341.0
25	17	1	39	374	159.0	-193935.0	-2256.0	-33821.0
25	17	1	39	374	160.0	-194559.0	-2197.0	-32158.0
25	17	1	39	375	161.0	-195056.0	-2147.0	-31094.0
25	17	1	39	376	162.0	-194911.0	-2111.0	-31361.0
25	17	1	39	394	163.0	-194087.0	-2069.0	-31619.0
25	17	1	39	394	164.0	-193035.0	-2039.0	-32259.0
25	17	1	39	395	165.0	-191719.0	-2009.0	-32809.0
25	17	1	39	396	166.0	-190567.0	-1979.0	-33213.0
25	17	1	39	396	167.0	-189877.0	-1932.0	-33337.0
25	17	1	39	397	168.0	-189616.0	-1924.0	-33162.0
25	17	1	39	397	170.0	-189284.0	-1840.0	-33385.0
25	17	1	39	398	171.0	-189746.0	-1814.0	-33986.0
25	17	1	39	398	172.0	-190326.0	-1783.0	-34824.0
25	17	1	39	399	173.0	-190901.0	-1730.0	-35198.0
25	17	1	39	399	174.0	-191956.0	-1674.0	-35478.0
25	17	1	39	400	175.0	-193535.0	-1627.0	-35856.0
25	17	1	39	401	176.0	-195671.0	-1597.0	-35886.0
25	17	1	39	418	177.0	-198542.0	-1569.0	-35464.0
25	17	1	39	418	178.0	-202234.0	-1550.0	-35544.0
25	17	1	39	419	179.0	-206149.0	-1526.0	-35957.0
25	17	1	39	420	180.0	-210383.0	-1480.0	-35882.0
25	17	1	39	420	181.0	-214096.0	-1450.0	-35462.0
25	17	1	39	421	182.0	-217299.0	-1415.0	-35812.0
25	17	1	39	421	183.0	-220164.0	-1377.0	-35664.0
25	17	1	39	422	184.0	-222485.0	-1378.0	-35329.0
25	17	1	39	422	185.0	-224047.0	-1379.0	-35612.0
25	17	1	39	423	186.0	-224426.0	-1349.0	-35376.0
25	17	1	39	424	187.0	-223352.0	-1332.0	-34902.0
25	17	1	39	424	188.0	-220421.0	-1317.0	-34931.0
25	17	1	39	425	189.0	-214784.0	-1283.0	-34854.0
25	17	1	39	425	190.0	-205203.0	-1267.0	-34421.0
25	17	1	39	426	191.0	-193366.0	-1249.0	-34464.0
25	17	1	39	426	193.0	-171263.0	-1196.0	-34997.0
25	17	1	39	427	194.0	-165694.0	-1202.0	-35145.0
25	17	1	39	428	195.0	-161429.0	-1189.0	-35378.0
25	17	1	39	428	196.0	-161487.0	-1161.0	-34900.0
25	17	1	39	429	197.0	-167499.0	-1150.0	-34248.0
25	17	1	39	429	198.0	-178411.0	-1141.0	-34417.0
25	17	1	39	460	199.0	-190051.0	-1119.0	-34356.0
25	17	1	39	462	200.0	-198449.0	-1097.0	-33588.0
25	17	1	39	463	201.0	-203231.0	-1084.0	-33684.0
25	17	1	39	463	202.0	-205291.0	-1081.0	-33995.0
25	17	1	39	464	203.0	-205768.0	-1069.0	-34052.0
25	17	1	39	465	204.0	-205694.0	-1046.0	-34126.0
25	17	1	39	465	205.0	-206094.0	-1026.0	-34022.0
25	17	1	39	466	206.0	-206939.0	-997.0	-33555.0
25	17	1	39	466	207.0	-207886.0	-969.0	-33817.0
25	17	1	39	467	208.0	-208251.0	-944.0	-33783.0
25	17	1	39	467	209.0	-207605.0	-946.0	-33796.0
25	17	1	39	468	210.0	-205771.0	-936.0	-33666.0
25	17	1	39	469	211.0	-203606.0	-924.0	-33326.0
25	17	1	39	469	212.0	-201427.0	-919.0	-33142.0
25	17	1	39	470	213.0	-199271.0	-891.0	-32963.0
25	17	1	39	470	215.0	-195507.0	-894.0	-32676.0
25	17	1	39	471	216.0	-193541.0	-906.0	-32993.0
25	17	1	39	471	217.0	-191336.0	-900.0	-33292.0
25	17	1	39	472	218.0	-189222.0	-892.0	-33196.0
25	17	1	39	473	219.0	-186971.0	-858.0	-33044.0
25	17	1	39	473	220.0	-185428.0	-837.0	-33084.0
25	17	1	39	474	221.0	-184679.0	-829.0	-33039.0
25	17	1	39	552	222.0	-184960.0	-797.0	-33161.0
25	17	1	39	552	223.0	-185637.0	-769.0	-32926.0
25	17	1	39	553	224.0	-186169.0	-757.0	-32955.0
25	17	1	39	553	225.0	-186712.0	-738.0	-32929.0
25	17	1	39	554	226.0	-187097.0	-691.0	-32936.0
25	17	1	39	554	227.0	-187414.0	-648.0	-32765.0
25	17	1	39	555	228.0	-187482.0	-626.0	-32589.0
25	17	1	39	556	229.0	-187539.0	-614.0	-33073.0
25	17	1	39	595	230.0	-187996.0	-579.0	-33087.0
25	17	1	39	596	231.0	-188833.0	-557.0	-32571.0
25	17	1	39	596	232.0	-190077.0	-539.0	-32171.0
25	17	1	39	597	233.0	-191713.0	-512.0	-32627.0
25	17	1	39	598	234.0	-193367.0	-509.0	-32424.0
25	17	1	39	599	235.0	-194628.0	-497.0	-31846.0
25	17	1	39	600	236.0	-195176.0	-501.0	-32000.0
25	17	1	39	600	238.0	-194184.0	-456.0	-32053.0
25	17	1	39	641	4.0	-235456.0	-499.0	-30852.0
25	17	1	39	642	5.0	-236296.0	-504.0	-31082.0
25	17	1	39	642	6.0	-236831.0	-491.0	-31127.0
25	17	1	39	643	7.0	-236951.0	-490.0	-31072.0
25	17	1	39	643	8.0	-236324.0	-484.0	-31003.0
25	17	1	39	644	9.0	-235283.0	-521.0	-30784.0
25	17	1	39	645	10.0	-234264.0	-549.0	-30203.0
25	17	1	39	646	26.0	-192934.0	-631.0	-30168.0
25	17	1	39	646	27.0	-190094.0	-631.0	-30166.0
25	17	1	39	647	28.0	-187916.0	-630.0	-29907.0
25	17	1	39	648	29.0	-185997.0	-634.0	-29171.0
25	17	1	39	649	30.0	-184107.0	-634.0	-29269.0
25	17	1	39	649	31.0	-182652.0	-619.0	-29624.0
25	17	1	39	650	32.0	-181573.0	-628.0	-29580.0
25	17	1	39	650	33.0	-180934.0	-642.0	-29191.0
25	17	1	39	651	34.0	-180840.0	-652.0	-28877.0
25	17	1	39	652	49.0	-203432.0	-645.0	-27186.0
25	17	1	39	652	50.0	-204786.0	-648.0	-26932.0
25	17	1	39	653	51.0	-205676.0	-622.0	-26889.0
25	17	1	39	653	52.0	-206360.0	-626.0	-27049.0
25	17	1	39	654	53.0	-206926.0	-612.0	-27256.0
25	17	1	39	654	54.0	-207138.0	-593.0	-26947.0
25	17	1	39	655	55.0	-207143.0	-596.0	-27051.0
25	17	1	39	686	56.0	-207426.0	-594.0	-27358.0
25	17	1	39	687	57.0	-207773.0	-575.0	-27409.0
25	17	1	39	687	58.0	-207951.0	-618.0	-27090.0
25	17	1	39	688	59.0	-207831.0	-637.0	-27299.0
25	17	1	39	689	60.0	-207604.0	-635.0	-27034.0
25	17	1	39	689	61.0	-207042.0	-658.0	-25997.0
25	17	1	39	690	62.0	-205871.0	-669.0	-26146.0
25	17	1	39	690	63.0	-204303.0	-690.0	-26187.0
25	17	1	39	691	64.0	-202783.0	-709.0	-25726.0
25	17	1	39	691	65.0	-201119.0	-706.0	-25680.0
25	17	1	39	692	66.0	-199252.0	-684.0	-26081.0
25	17	1	39	693	67.0	-197504.0	-683.0	-26369.0
25	17	1	39	693	68.0	-196218.0	-667.0	-26076.0
25	17	1	39	694	69.0	-195537.0	-661.0	-26158.0
25	17	1	39	694	70.0	-194941.0	-666.0	-26274.0
25	17	1	39	695	71.0	-194223.0	-672.0	-26231.0
25	17	1	39	695	72.0	-193572.0	-691.0	-25594.0
25	17	1	39	696	73.0	-193276.0	-683.0	-25242.0
25	17	1	39	697	74.0	-193105.0	-657.0	-25199.0
25	17	1	39	697	75.0	-193129.0	-649.0	-25524.0
25	17	1	39	698	76.0	-193092.0	-639.0	-25936.0
25	17	1	39	698	77.0	-192682.0	-664.0	-25364.0
25	17	1	39	730	78.0	-192009.0	-662.0	-24934.0
25	17	1	39	731	79.0	-191247.0	-632.0	-24812.0
25	17	1	39	732	80.0	-190826.0	-657.0	-24709.0
25	17	1	39	776	81.0	-190749.0	-667.0	-24522.0
25	17	1	39	777	82.0	-190859.0	-674.0	-24786.0
25	17	1	39	777	83.0	-191121.0	-686.0	-24725.0
25	17	1	39	778	84.0	-191387.0	-681.0	-24799.0
25	17	1	39	779	85.0	-191949.0	-673.0	-24785.0
25	17	1	39	779	86.0	-192649.0	-668.0	-24599.0
25	17	1	39	780	87.0	-193645.0	-663.0	-24698.0
25	17	1	39	780	88.0	-194761.0	-651.0	-24269.0
25	17	1	39	781	89.0	-195844.0	-646.0	-24026.0
25	17	1	39	782	90.0	-196719.0	-634.0	-24064.0
25	17	1	39	782	91.0	-197149.0	-611.0	-24257.0
25	17	1	39	783	92.0	-197676.0	-609.0	-24019.0
25	17	1	39	783	94.0	-198063.0	-622.0	-24195.0
25	17	1	39	784	95.0	-197997.0	-619.0	-24547.0
25	17	1	39	785	96.0	-197094.0	-572.0	-24635.0
25	17	1	39	786	97.0	-196088.0	-581.0	-24472.0
25	17	1	39	787	117.0	-200138.0	-669.0	-24629.0
25	17	1	39	788	118.0	-201369.0	-679.0	-24492.0
25	17	1	39	789	119.0	-202528.0	-707.0	-24398.0
25	17	1	39	789	120.0	-204044.0	-710.0	-24118.0
25	17	1	39	790	121.0	-205536.0	-739.0	-23776.0
25	17	1	39	790	122.0	-207307.0	-739.0	-23392.0
25	17	1	39	820	123.0	-209211.0	-757.0	-22857.0
25	17	1	39	831	124.0	-211190.0	-762.0	-22456.0
25	17	1	39	832	125.0	-213039.0	-781.0	-22793.0
25	17	1	39	832	126.0	-214849.0	-811.0	-23024.0
25	17	1	39	833	127.0	-216644.0	-828.0	-23051.0
25	17	1	39	833	128.0	-218869.0	-840.0	-23138.0
25	17	1	39	834	129.0	-220837.0	-852.0	-22989.0
25	17	1	39	834	130.0	-222501.0	-877.0	-22899.0
25	17	1	39	835	131.0	-223896.0	-889.0	-22837.0
25	17	1	39	836	132.0	-224551.0	-911.0	-22802.0
25	17	1	39	836	133.0	-224726.0	-917.0	-22622.0
25	17	1	39	837	134.0	-224500.0	-952.0	-23041.0
25	17	1	39	837	135.0	-223731.0	-962.0	-23434.0
25	17	1	39	838	136.0	-222469.0	-977.0	-23672.0
25	17	1	39	838	137.0	-220822.0	-982.0	-23680.0
25	17	1	39	839	139.0	-217357.0	-1017.0	-23549.0
25	17	1	39	840	140.0	-215594.0	-1021.0	-23453.0
25	17	1	39	840	141.0	-213856.0	-1037.0	-23331.0
25	17	1	39	841	142.0	-212243.0	-1074.0	-23338.0
25	17	1	39	841	143.0	-211209.0	-1104.0	-23381.0
25	17	1	39	842	144.0	-210703.0	-1132.0	-23259.0
25	17	1	39	864	145.0	-209827.0	-1176.0	-23816.0
25	17	1	39	865	146.0	-208588.0	-1241.0	-24045.0
25	17	1	39	866	147.0	-206900.0	-1285.0	-23563.0
25	17	1	39	867	148.0	-204531.0	-1342.0	-23777.0
25	17	1	39	867	149.0	-201531.0	-1384.0	-23847.0
25	17	1	39	868	150.0	-198865.0	-1436.0	-23383.0
25	17	1	39	869	151.0	-196857.0	-1492.0	-23682.0
25	17	1	39	869	152.0	-194907.0	-1561.0	-23743.0
25	17	1	39	870	153.0	-192664.0	-1598.0	-23436.0
25	17	1	39	871	154.0	-190383.0	-1654.0	-23944.0
25	17	1	39	871	155.0	-188483.0	-1719.0	-24662.0
25	17	1	39	872	156.0	-187191.0	-1779.0	-24438.0
25	17	1	39	873	157.0	-186388.0	-1796.0	-24177.0
25	17	1	39	873	158.0	-185777.0	-1831.0	-24064.0
25	17	1	39	874	159.0	-185124.0	-1882.0	-24154.0
25	17	1	39	874	161.0	-184565.0	-1964.0	-23082.0
25	17	1	39	875	162.0	-184124.0	-2002.0	-23084.0
25	17	1	39	884	163.0	-183292.0	-2036.0	-22834.0
25	17	1	39	884	164.0	-182614.0	-2067.0	-23138.0
25	17	1	39	885	165.0	-181954.0	-2081.0	-23717.0
25	17	1	39	886	166.0	-181021.0	-2088.0	-23896.0
25	17	1	39	910	167.0	-180421.0	-2130.0	-23771.0
25	17	1	39	910	168.0	-180246.0	-2149.0	-23697.0
25	17	1	39	911	169.0	-180682.0	-2173.0	-23225.0
25	17	1	39	912	170.0	-181219.0	-2209.0	-23184.0
25	17	1	39	913	171.0	-181922.0	-2244.0	-23379.0
25	17	1	39	913	172.0	-182769.0	-2279.0	-23405.0
25	17	1	39	914	173.0	-183536.0	-2310.0	-22884.0
25	17	1	39	914	174.0	-184061.0	-2324.0	-23010.0
25	17	1	39	915	175.0	-184508.0	-2353.0	-23135.0
25	17	1	39	916	176.0	-185626.0	-2354.0	-23056.0
25	17	1	39	916	177.0	-187209.0	-2372.0	-22482.0
25	17	1	39	917	178.0	-189187.0	-2392.0	-22311.0
25	17	1	39	918	179.0	-191068.0	-2436.0	-22272.0
25	17	1	39	931	180.0	-192351.0	-2442.0	-22086.0
25	17	1	39	932	181.0	-193857.0	-2453.0	-22345.0
25	17	1	39	933	183.0	-197558.0	-2481.0	-22663.0
25	17	1	39	933	184.0	-199405.0	-2491.0	-22421.0
25	17	1	39	934	185.0	-201325.0	-2517.0	-22252.0
25	17	1	39	935	186.0	-203071.0	-2533.0	-22070.0
25	17	1	39	935	187.0	-204274.0	-2536.0	-22259.0
25	17	1	39	936	188.0	-205599.0	-2525.0	-21738.0
25	17	1	39	936	189.0	-207309.0	-2543.0	-21533.0
25	17	1	40	0	190.0	-208841.0	-2559.0	-21787.0
25	17	1	40	1	191.0	-210375.0	-2559.0	-21281.0
25	17	1	40	2	192.0	-212077.0	-2579.0	-21141.0
25	17	1	40	2	193.0	-213413.0	-2610.0	-21502.0
25	17	1	40	3	194.0	-214332.0	-2646.0	-21316.0
25	17	1	40	4	195.0	-215101.0	-2681.0	-21001.0
25	17	1	40	4	196.0	-215904.0	-2709.0	-21177.0
25	17	1	40	5	197.0	-216972.0	-2711.0	-21121.0
25	17	1	40	5	198.0	-218136.0	-2719.0	-20774.0
25	17	1	40	6	199.0	-219088.0	-2720.0	-20816.0
25	17	1	40	7	200.0	-219870.0	-2722.0	-20799.0
25	17	1	40	7	201.0	-220387.0	-2741.0	-20333.0
25	17	1	40	8	202.0	-220728.0	-2751.0	-20544.0
25	17	1	40	9	203.0	-220717.0	-2748.0	-21078.0
25	17	1	40	9	204.0	-220758.0	-2761.0	-21217.0
25	17	1	40	10	228.0	-172691.0	-2622.0	-18584.0
25	17	1	40	10	229.0	-172292.0	-2587.0	-17638.0
25	17	1	40	11	230.0	-172258.0	-2565.0	-17324.0
25	17	1	40	12	231.0	-172834.0	-2543.0	-17024.0
25	17	1	40	12	232.0	-173792.0	-2502.0	-16822.0
25	17	1	40	13	233.0	-175218.0	-2478.0	-16982.0
25	17	1	40	13	234.0	-176919.0	-2469.0	-17454.0
25	17	1	40	46	235.0	-179036.0	-2444.0	-17066.0
25	17	1	40	47	236.0	-181398.0	-2407.0	-17259.0
25	17	1	40	48	237.0	-184592.0	-2391.0	-18197.0
25	17	1	40	48	238.0	-188142.0	-2369.0	-18811.0
25	17	1	40	49	239.0	-192172.0	-2339.0	-19899.0
25	17	1	40	50	240.0	-196979.0	-2317.0	-21912.0
25	17	1	40	50	241.0	-202224.0	-2302.0	-25164.0
25	17	1	40	51	242.0	-207881.0	-2276.0	-29134.0
25	17	1	40	52	243.0	-213826.0	-2229.0	-33579.0
25	17	1	40	52	244.0	-218977.0	-2219.0	-39173.0
25	17	1	40	53	245.0	-222821.0	-2212.0	-43199.0
25	17	1	40	54	246.0	-225304.0	-2216.0	-45079.0
25	17	1	40	54	247.0	-226640.0	-2222.0	-47012.0
25	17	1	40	55	248.0	-227132.0	-2216.0	-49176.0
25	17	1	40	55	249.0	-226553.0	-2212.0	-49489.0
25	17	1	40	56	251.0	-222177.0	-2197.0	-45177.0
25	17	1	40	57	252.0	-218881.0	-2180.0	-43250.0
25	17	1	40	57	253.0	-214781.0	-2154.0	-39667.0
25	17	1	40	58	254.0	-210515.0	-2150.0	-34759.0
25	17	1	40	58	255.0	-206692.0	-2151.0	-29590.0
25	17	1	40	59	0.0	-204296.0	-2143.0	-24186.0
25	17	1	40	90	1.0	-203549.0	-2138.0	-21209.0
25	17	1	40	90	2.0	-204116.0	-2130.0	-20707.0
25	17	1	40	91	3.0	-205458.0	-2120.0	-20479.0
25	17	1	40	92	4.0	-206446.0	-2136.0	-20426.0
25	17	1	40	93	5.0	-205294.0	-2136.0	-19887.0
25	17	1	40	93	6.0	-198272.0	-2136.0	-19254.0
25	17	1	40	94	7.0	-183450.0	-2129.0	-19300.0
25	17	1	40	94	8.0	-165614.0	-2127.0	-19371.0
25	17	1	40	135	9.0	-151301.0	-2113.0	-18694.0
25	17	1	40	136	10.0	-144486.0	-2107.0	-17593.0
25	17	1	40	137	11.0	-143240.0	-2093.0	-17298.0
25	17	1	40	137	12.0	-144044.0	-2113.0	-16530.0
25	17	1	40	138	13.0	-142935.0	-2121.0	-15743.0
25	17	1	40	139	14.0	-139321.0	-2132.0	-15567.0
25	17	1	40	139	15.0	-135474.0	-2100.0	-15332.0
25	17	1	40	140	17.0	-146647.0	-2071.0	-15027.0
25	17	1	40	141	18.0	-166251.0	-2040.0	-14536.0
25	17	1	40	141	19.0	-193989.0	-2013.0	-14611.0
25	17	1	40	142	20.0	-223127.0	-1976.0	-14177.0
25	17	1	40	143	21.0	-245317.0	-1927.0	-13554.0
25	17	1	40	143	22.0	-257923.0	-1919.0	-13231.0
25	17	1	40	144	23.0	-259373.0	-1881.0	-13143.0
25	17	1	40	145	24.0	-250689.0	-1854.0	-12756.0
25	17	1	40	145	40.0	-214976.0	-1749.0	-8929.0
25	17	1	40	146	41.0	-209316.0	-1744.0	-8329.0
25	17	1	40	146	42.0	-204588.0	-1729.0	-8486.0
25	17	1	40	147	43.0	-199594.0	-1736.0	-8934.0
25	17	1	40	148	44.0	-193364.0	-1721.0	-8774.0
25	17	1	40	148	45.0	-186004.0	-1712.0	-8795.0
25	17	1	40	224	46.0	-177852.0	-1725.0	-8740.0
25	17	1	40	246	47.0	-170170.0	-1727.0	-8282.0
25	17	1	40	247	48.0	-164000.0	-1719.0	-8387.0
25	17	1	40	248	49.0	-159909.0	-1755.0	-8219.0
25	17	1	40	249	50.0	-158335.0	-1777.0	-7893.0
25	17	1	40	249	51.0	-159396.0	-1771.0	-7763.0
25	17	1	40	250	52.0	-162122.0	-1742.0	-7797.0
25	17	1	40	251	53.0	-166498.0	-1726.0	-7518.0
25	17	1	40	251	54.0	-172101.0	-1718.0	-7371.0
25	17	1	40	252	55.0	-177962.0	-1736.0	-7172.0
25	17	1	40	252	56.0	-183752.0	-1757.0	-6753.0
25	17	1	40	253	57.0	-189244.0	-1766.0	-6984.0
25	17	1	40	253	58.0	-194177.0	-1764.0	-6961.0
25	17	1	40	254	59.0	-198613.0	-1745.0	-7259.0
25	17	1	40	255	60.0	-202577.0	-1744.0	-7599.0
25	17	1	40	255	85.0	-201559.0	-2009.0	-5399.0
25	17	1	40	256	86.0	-201097.0	-2018.0	-5278.0
25	17	1	40	256	87.0	-200117.0	-2024.0	-4741.0
25	17	1	40	257	88.0	-198770.0	-2052.0	-4903.0
25	17	1	40	257	89.0	-197279.0	-2052.0	-5232.0
25	17	1	40	258	90.0	-195536.0	-2051.0	-5024.0
25	17	1	40	271	91.0	-193557.0	-2070.0	-4799.0
25	17	1	40	272	92.0	-191421.0	-2084.0	-4691.0
25	17	1	40	272	93.0	-189024.0	-2092.0	-4797.0
25	17	1	40	273	94.0	-186544.0	-2093.0	-4802.0
25	17	1	40	274	95.0	-183876.0	-2093.0	-4924.0
25	17	1	40	274	96.0	-181982.0	-2089.0	-4815.0
25	17	1	40	275	97.0	-180829.0	-2078.0	-4717.0
25	17	1	40	276	98.0	-179750.0	-2077.0	-4656.0
25	17	1	40	276	99.0	-178779.0	-2071.0	-4536.0
25	17	1	40	277	100.0	-178207.0	-2075.0	-4846.0
25	17	1	40	277	101.0	-178166.0	-2045.0	-5128.0
25	17	1	40	278	102.0	-178771.0	-2041.0	-4901.0
25	17	1	40	279	103.0	-179347.0	-2034.0	-4427.0
25	17	1	40	315	104.0	-180145.0	-2016.0	-4222.0
25	17	1	40	316	105.0	-181009.0	-1994.0	-3698.0
25	17	1	40	361	107.0	-182378.0	-1979.0	-3002.0
25	17	1	40	362	108.0	-182916.0	-1986.0	-3489.0
25	17	1	40	363	109.0	-183392.0	-1950.0	-4239.0
25	17	1	40	364	110.0	-183398.0	-1927.0	-3997.0
25	17	1	40	364	111.0	-182887.0	-1902.0	-3834.0
25	17	1	40	365	112.0	-182157.0	-1870.0	-4161.0
25	17	1	40	366	113.0	-181847.0	-1835.0	-3781.0
25	17	1	40	367	114.0	-182172.0	-1824.0	-3194.0
25	17	1	40	368	115.0	-182731.0	-1810.0	-3551.0
25	17	1	40	369	116.0	-183608.0	-1811.0	-3847.0
25	17	1	40	369	117.0	-184926.0	-1824.0	-3921.0
25	17	1	40	370	118.0	-186465.0	-1789.0	-3804.0
25	17	1	40	372	119.0	-187937.0	-1746.0	-4174.0
25	17	1	40	372	120.0	-188841.0	-1727.0	-3562.0
25	17	1	40	373	130.0	-202581.0	-1393.0	-3082.0
25	17	1	40	373	152.0	-188779.0	-253.0	-1284.0
25	17	1	40	374	153.0	-203538.0	-226.0	-1368.0
25	17	1	40	375	154.0	-214257.0	-171.0	-2391.0
25	17	1	40	375	155.0	-219439.0	-130.0	-2771.0
25	17	1	40	376	156.0	-220077.0	-73.0	-2866.0
25	17	1	40	377	157.0	-218741.0	-39.0	-2865.0
25	17	1	40	407	158.0	-217322.0	-2.0	-3211.0
25	17	1	40	408	159.0	-215561.0	58.0	-3132.0
25	17	1	40	408	160.0	-212896.0	86.0	-2557.0
25	17	1	40	409	161.0	-209990.0	106.0	-2722.0
25	17	1	40	410	162.0	-206831.0	151.0	-2674.0
25	17	1	40	410	163.0	-202878.0	208.0	-2049.0
25	17	1	40	411	164.0	-197867.0	241.0	-2137.0
25	17	1	40	412	165.0	-192425.0	266.0	-2321.0
25	17	1	40	413	166.0	-187291.0	266.0	-1922.0
25	17	1	40	413	167.0	-182845.0	290.0	-1936.0
25	17	1	40	414	168.0	-179643.0	308.0	-2210.0
25	17	1	40	414	169.0	-178059.0	329.0	-2182.0
25	17	1	40	415	170.0	-177767.0	348.0	-1927.0
25	17	1	40	416	171.0	-178358.0	363.0	-1599.0
25	17	1	40	416	172.0	-179309.0	376.0	-1541.0
25	17	1	40	417	174.0	-180057.0	379.0	-1680.0
25	17	1	40	418	175.0	-178946.0	382.0	-1649.0
25	17	1	40	418	176.0	-175821.0	378.0	-1541.0
25	17	1	40	419	177.0	-170445.0	379.0	-1407.0
25	17	1	40	420	178.0	-163971.0	394.0	-949.0
25	17	1	40	420	179.0	-157627.0	381.0	-12.0
25	17	1	40	421	180.0	-152351.0	388.0	34.0
25	17	1	40	450	181.0	-148919.0	398.0	21.0
25	17	1	40	451	182.0	-147576.0	399.0	-179.0
25	17	1	40	452	183.0	-147809.0	426.0	-300.0
25	17	1	40	453	184.0	-149233.0	419.0	-336.0
25	17	1	40	453	185.0	-151979.0	400.0	-396.0
25	17	1	40	454	186.0	-155514.0	409.0	-613.0
25	17	1	40	455	187.0	-159549.0	419.0	-1182.0
25	17	1	40	456	188.0	-164186.0	442.0	-1666.0
25	17	1	40	457	189.0	-168974.0	439.0	-1547.0
25	17	1	40	457	190.0	-174284.0	456.0	-1554.0
25	17	1	40	458	191.0	-180366.0	454.0	-1286.0
25	17	1	40	459	192.0	-186826.0	477.0	-777.0
25	17	1	40	459	193.0	-193129.0	499.0	-215.0
25	17	1	40	460	194.0	-199201.0	524.0	-96.0
25	17	1	40	461	195.0	-204402.0	528.0	-522.0
25	17	1	40	461	197.0	-211186.0	516.0	-667.0
25	17	1	40	462	198.0	-213432.0	509.0	-699.0
25	17	1	40	462	199.0	-214853.0	499.0	-604.0
25	17	1	40	463	200.0	-215871.0	479.0	-761.0
25	17	1	40	464	201.0	-216889.0	471.0	-1127.0
25	17	1	40	464	202.0	-218336.0	448.0	-929.0
25	17	1	40	495	203.0	-220334.0	444.0	-251.0
25	17	1	40	496	204.0	-222769.0	457.0	-394.0
25	17	1	40	497	205.0	-225329.0	427.0	-516.0
25	17	1	40	541	206.0	-227753.0	396.0	-456.0
25	17	1	40	542	207.0	-230019.0	409.0	-709.0
25	17	1	40	543	208.0	-231922.0	400.0	-1175.0
25	17	1	40	543	209.0	-233331.0	388.0	-888.0
25	17	1	40	544	210.0	-234486.0	367.0	-628.0
25	17	1	40	545	211.0	-235181.0	346.0	-834.0
25	17	1	40	545	212.0	-235338.0	351.0	-438.0
25	17	1	40	546	213.0	-235057.0	343.0	141.0
25	17	1	40	547	214.0	-234539.0	330.0	-353.0
25	17	1	40	547	215.0	-233624.0	314.0	-619.0
25	17	1	40	549	216.0	-232199.0	284.0	-942.0
25	17	1	40	550	217.0	-230412.0	251.0	-1292.0
25	17	1	40	551	219.0	-226501.0	200.0	-1386.0
25	17	1	40	552	220.0	-224161.0	181.0	-1369.0
25	17	1	40	552	221.0	-221629.0	168.0	-822.0
25	17	1	40	553	222.0	-219603.0	134.0	-274.0
25	17	1	40	554	242.0	-195268.0	-552.0	-404.0
25	17	1	40	554	243.0	-195842.0	-559.0	-603.0
25	17	1	40	555	244.0	-196385.0	-575.0	-623.0
25	17	1	40	556	245.0	-196690.0	-601.0	-747.0
25	17	1	40	556	246.0	-196889.0	-627.0	-449.0
25	17	1	40	557	247.0	-197388.0	-634.0	-185.0
25	17	1	40	587	248.0	-198079.0	-655.0	-122.0
25	17	1	40	588	249.0	-198931.0	-682.0	238.0
25	17	1	40	589	250.0	-199591.0	-699.0	754.0
25	17	1	40	590	251.0	-200326.0	-716.0	896.0
25	17	1	40	590	252.0	-201285.0	-716.0	802.0
25	17	1	40	591	253.0	-202394.0	-756.0	1093.0
25	17	1	40	592	254.0	-203256.0	-774.0	1143.0
25	17	1	40	677	255.0	-203964.0	-801.0	1225.0
25	17	1	40	678	0.0	-204629.0	-814.0	1258.0
25	17	1	40	679	1.0	-205391.0	-828.0	276.0
25	17	1	40	680	2.0	-206334.0	-845.0	-203.0
25	17	1	40	680	3.0	-207299.0	-843.0	490.0
25	17	1	40	681	4.0	-208483.0	-882.0	888.0
25	17	1	40	682	5.0	-209960.0	-907.0	876.0
25	17	1	40	682	6.0	-211406.0	-932.0	1088.0
25	17	1	40	683	8.0	-213272.0	-984.0	1133.0
25	17	1	40	684	9.0	-213702.0	-991.0	1254.0
25	17	1	40	685	10.0	-213922.0	-974.0	819.0
25	17	1	40	685	11.0	-214122.0	-962.0	818.0
25	17	1	40	686	12.0	-214032.0	-958.0	1064.0
25	17	1	40	687	13.0	-213971.0	-980.0	1272.0
25	17	1	40	687	14.0	-213917.0	-1001.0	1544.0
25	17	1	40	688	15.0	-213666.0	-1037.0	1759.0
25	17	1	40	688	53.0	-203874.0	-1094.0	3493.0
25	17	1	40	689	54.0	-205649.0	-1096.0	3649.0
25	17	1	40	690	55.0	-207469.0	-1087.0	3898.0
25	17	1	40	690	56.0	-209303.0	-1079.0	4363.0
25	17	1	40	691	57.0	-211151.0	-1065.0	4244.0
25	17	1	40	691	58.0	-212937.0	-1049.0	4233.0
25	17	1	40	692	59.0	-215030.0	-1046.0	4244.0
25	17	1	40	766	60.0	-217144.0	-1025.0	3888.0
25	17	1	40	767	61.0	-218958.0	-1022.0	4033.0
25	17	1	40	768	62.0	-220596.0	-1051.0	4327.0
25	17	1	40	768	63.0	-221844.0	-1063.0	4518.0
25	17	1	40	769	64.0	-222747.0	-1097.0	4873.0
25	17	1	40	770	65.0	-223240.0	-1101.0	5084.0
25	17	1	40	771	66.0	-223165.0	-1098.0	5341.0
25	17	1	40	771	67.0	-222839.0	-1114.0	5413.0
25	17	1	40	772	68.0	-222531.0	-1127.0	4522.0
25	17	1	40	773	69.0	-222000.0	-1118.0	3668.0
25	17	1	40	773	70.0	-221218.0	-1154.0	3961.0
25	17	1	40	774	71.0	-220116.0	-1169.0	4078.0
25	17	1	40	775	72.0	-218678.0	-1196.0	4243.0
25	17	1	40	775	73.0	-216961.0	-1213.0	4621.0
25	17	1	40	776	74.0	-214829.0	-1227.0	4969.0
25	17	1	40	777	98.0	-179969.0	-1518.0	7624.0
25	17	1	40	777	99.0	-180669.0	-1533.0	7627.0
25	17	1	40	778	100.0	-181686.0	-1524.0	7707.0
25	17	1	40	778	101.0	-182637.0	-1531.0	7802.0
25	17	1	40	779	102.0	-183981.0	-1546.0	7970.0
25	17	1	40	780	103.0	-185471.0	-1551.0	7960.0
25	17	1	40	813	104.0	-187057.0	-1526.0	7883.0
25	17	1	40	814	105.0	-188933.0	-1519.0	7893.0
25	17	1	40	815	106.0	-190839.0	-1534.0	8046.0
25	17	1	40	816	107.0	-192800.0	-1549.0	8249.0
25	17	1	40	856	108.0	-194888.0	-1542.0	8023.0
25	17	1	40	857	109.0	-197360.0	-1541.0	7704.0
25	17	1	40	858	110.0	-199862.0	-1546.0	7687.0
25	17	1	40	858	111.0	-202039.0	-1552.0	6584.0
25	17	1	40	859	112.0	-203869.0	-1566.0	6179.0
25	17	1	40	860	113.0	-205346.0	-1571.0	6826.0
25	17	1	40	860	114.0	-206586.0	-1581.0	7516.0
25	17	1	40	901	115.0	-207376.0	-1590.0	7309.0
25	17	1	40	946	116.0	-207204.0	-1636.0	7400.0
25	17	1	40	947	117.0	-206353.0	-1672.0	7518.0
25	17	1	40	948	118.0	-205240.0	-1687.0	7649.0
25	17	1	40	948	120.0	-203452.0	-1759.0	7261.0
25	17	1	40	949	121.0	-202136.0	-1775.0	7391.0
25	17	1	40	992	122.0	-200347.0	-1811.0	7830.0
25	17	1	40	993	123.0	-198269.0	-1822.0	8458.0
25	17	1	40	993	143.0	-198731.0	-2138.0	11598.0
25	17	1	40	994	144.0	-199404.0	-2140.0	11916.0
25	17	1	40	995	145.0	-200074.0	-2145.0	11446.0
25	17	1	40	996	146.0	-200504.0	-2157.0	10793.0
25	17	1	40	996	147.0	-200422.0	-2149.0	10973.0
25	17	1	40	997	148.0	-199856.0	-2186.0	11493.0
25	17	1	40	998	149.0	-198799.0	-2174.0	11091.0
25	17	1	40	999	150.0	-197025.0	-2163.0	11315.0
25	17	1	40	999	165.0	-193745.0	-2147.0	13935.0
25	17	1	41	1	188.0	-201345.0	-2348.0	-16797.0
25	17	1	41	2	189.0	-196182.0	-2323.0	-13967.0
25	17	1	41	3	190.0	-190556.0	-2296.0	-10531.0
25	17	1	41	4	191.0	-184884.0	-2316.0	-6419.0
25	17	1	41	5	192.0	-180044.0	-2319.0	-1148.0
25	17	1	41	5	210.0	-157450.0	-2182.0	8183.0
25	17	1	41	6	211.0	-171819.0	-2182.0	8056.0
25	17	1	41	6	212.0	-194057.0	-2162.0	8595.0
25	17	1	41	7	213.0	-223682.0	-2157.0	9001.0
25	17	1	41	8	214.0	-257282.0	-2164.0	8847.0
25	17	1	41	8	215.0	-286136.0	-2166.0	8807.0
25	17	1	41	9	216.0	-300454.0	-2174.0	9163.0
25	17	1	41	37	217.0	-297782.0	-2171.0	8556.0
25	17	1	41	38	218.0	-285138.0	-2161.0	8191.0
25	17	1	41	38	219.0	-271019.0	-2167.0	8656.0
25	17	1	41	39	220.0	-258377.0	-2173.0	8519.0
25	17	1	41	40	221.0	-249580.0	-2172.0	8231.0
25	17	1	41	41	222.0	-245501.0	-2192.0	8731.0
25	17	1	41	42	223.0	-244287.0	-2209.0	9134.0
25	17	1	41	42	224.0	-243167.0	-2228.0	9198.0
25	17	1	41	43	225.0	-241799.0	-2241.0	9139.0
25	17	1	41	44	226.0	-241294.0	-2231.0	9164.0
25	17	1	41	44	227.0	-241351.0	-2224.0	8789.0
25	17	1	41	45	228.0	-240916.0	-2228.0	8803.0
25	17	1	41	46	229.0	-238132.0	-2234.0	9078.0
25	17	1	41	46	230.0	-232032.0	-2242.0	8788.0
25	17	1	41	47	231.0	-222741.0	-2253.0	9273.0
25	17	1	41	48	232.0	-212114.0	-2251.0	9714.0
25	17	1	41	48	233.0	-202328.0	-2279.0	9684.0
25	17	1	41	49	234.0	-193884.0	-2306.0	9231.0
25	17	1	41	50	235.0	-186332.0	-2297.0	9213.0
25	17	1	41	50	236.0	-178482.0	-2308.0	9006.0
25	17	1	41	51	237.0	-169830.0	-2304.0	8414.0
25	17	1	41	51	238.0	-160395.0	-2299.0	8169.0
25	17	1	41	81	239.0	-150736.0	-2311.0	8133.0
25	17	1	41	82	240.0	-141929.0	-2313.0	8279.0
25	17	1	41	83	241.0	-134274.0	-2327.0	8491.0
25	17	1	41	83	242.0	-128374.0	-2356.0	8691.0
25	17	1	41	84	243.0	-124477.0	-2355.0	8647.0
25	17	1	41	85	244.0	-122782.0	-2362.0	8786.0
25	17	1	41	86	245.0	-123303.0	-2379.0	9219.0
25	17	1	41	86	246.0	-125817.0	-2397.0	9392.0
25	17	1	41	87	247.0	-129596.0	-2424.0	9144.0
25	17	1	41	88	248.0	-134499.0	-2459.0	9194.0
25	17	1	41	89	249.0	-141000.0	-2449.0	9383.0
25	17	1	41	89	250.0	-148489.0	-2471.0	9871.0
25	17	1	41	90	251.0	-156673.0	-2467.0	9968.0
25	17	1	41	91	252.0	-165353.0	-2459.0	9806.0
25	17	1	41	92	253.0	-173850.0	-2482.0	9558.0
25	17	1	41	93	255.0	-189777.0	-2507.0	10394.0
25	17	1	41	93	0.0	-196477.0	-2519.0	10584.0
25	17	1	41	94	1.0	-201577.0	-2525.0	10659.0
25	17	1	41	94	2.0	-205287.0	-2539.0	10711.0
25	17	1	41	95	3.0	-208111.0	-2566.0	10601.0
25	17	1	41	96	4.0	-210870.0	-2585.0	10319.0
25	17	1	41	127	5.0	-213401.0	-2594.0	10126.0
25	17	1	41	128	6.0	-215662.0	-2607.0	9584.0
25	17	1	41	128	7.0	-217429.0	-2627.0	9337.0
25	17	1	41	129	8.0	-218494.0	-2673.0	9383.0
25	17	1	41	130	9.0	-219867.0	-2690.0	10790.0
25	17	1	41	131	10.0	-221420.0	-2696.0	11140.0
25	17	1	41	131	11.0	-222922.0	-2714.0	10693.0
25	17	1	41	132	12.0	-224611.0	-2759.0	10141.0
25	17	1	41	133	13.0	-226538.0	-2803.0	9865.0
25	17	1	41	133	14.0	-228190.0	-2822.0	9509.0
25	17	1	41	134	15.0	-229836.0	-2827.0	9371.0
25	17	1	41	135	16.0	-231710.0	-2874.0	9023.0
25	17	1	41	135	17.0	-233472.0	-2936.0	8596.0
25	17	1	41	136	18.0	-234987.0	-2952.0	8561.0
25	17	1	41	137	19.0	-236031.0	-3011.0	8377.0
25	17	1	41	137	21.0	-237483.0	-3063.0	7630.0
25	17	1	41	138	22.0	-237442.0	-3094.0	7156.0
25	17	1	41	139	23.0	-236673.0	-3120.0	7498.0
25	17	1	41	139	24.0	-234937.0	-3119.0	7245.0
25	17	1	41	140	25.0	-232686.0	-3127.0	7115.0
25	17	1	41	140	26.0	-230252.0	-3153.0	7708.0
25	17	1	41	141	27.0	-227791.0	-3167.0	7744.0
25	17	1	41	171	28.0	-225087.0	-3196.0	7499.0
25	17	1	41	172	29.0	-222336.0	-3197.0	7472.0
25	17	1	41	172	30.0	-219729.0	-3219.0	7678.0
25	17	1	41	173	31.0	-217003.0	-3234.0	7542.0
25	17	1	41	174	32.0	-214179.0	-3220.0	7923.0
25	17	1	41	174	33.0	-211131.0	-3208.0	7913.0
25	17	1	41	175	34.0	-208051.0	-3177.0	7659.0
25	17	1	41	176	35.0	-204739.0	-3179.0	7602.0
25	17	1	41	176	36.0	-201248.0	-3176.0	7882.0
25	17	1	41	177	37.0	-197857.0	-3157.0	7944.0
25	17	1	41	215	38.0	-194705.0	-3166.0	7894.0
25	17	1	41	216	39.0	-192127.0	-3152.0	8235.0
25	17	1	41	216	40.0	-190041.0	-3144.0	8178.0
25	17	1	41	217	41.0	-188244.0	-3116.0	7713.0
25	17	1	41	218	42.0	-186775.0	-3101.0	8134.0
25	17	1	41	219	44.0	-185470.0	-3081.0	8072.0
25	17	1	41	219	45.0	-184699.0	-3048.0	7993.0
25	17	1	41	220	46.0	-183690.0	-3006.0	8100.0
25	17	1	41	221	47.0	-182818.0	-2971.0	7933.0
25	17	1	41	221	48.0	-181816.0	-2925.0	8074.0
25	17	1	41	222	49.0	-180845.0	-2902.0	8095.0
25	17	1	41	223	50.0	-180021.0	-2859.0	7720.0
25	17	1	41	224	51.0	-179452.0	-2825.0	7561.0
25	17	1	41	224	52.0	-178772.0	-2794.0	7469.0
25	17	1	41	225	53.0	-178132.0	-2756.0	7454.0
25	17	1	41	226	54.0	-177982.0	-2715.0	7601.0
25	17	1	41	226	67.0	-201512.0	-2076.0	7424.0
25	17	1	41	227	68.0	-203639.0	-2032.0	7516.0
25	17	1	41	227	69.0	-206042.0	-1976.0	7371.0
25	17	1	41	228	70.0	-208556.0	-1925.0	7521.0
25	17	1	41	229	71.0	-211301.0	-1886.0	7258.0
25	17	1	41	229	72.0	-214449.0	-1842.0	7371.0
25	17	1	41	261	73.0	-217802.0	-1796.0	7840.0
25	17	1	41	261	74.0	-221036.0	-1736.0	8056.0
25	17	1	41	262	75.0	-223864.0	-1694.0	7859.0
25	17	1	41	263	76.0	-226329.0	-1657.0	8315.0
25	17	1	41	264	77.0	-228239.0	-1599.0	8231.0
25	17	1	41	264	78.0	-229616.0	-1569.0	8340.0
25	17	1	41	265	79.0	-230485.0	-1532.0	8755.0
25	17	1	41	306	80.0	-230408.0	-1461.0	8457.0
25	17	1	41	307	81.0	-229649.0	-1391.0	8426.0
25	17	1	41	308	82.0	-227402.0	-1334.0	9007.0
25	17	1	41	309	83.0	-223598.0	-1296.0	9133.0
25	17	1	41	310	84.0	-216852.0	-1249.0	8503.0
25	17	1	41	311	85.0	-206625.0	-1232.0	8674.0
25	17	1	41	312	86.0	-194298.0	-1184.0	9399.0
25	17	1	41	313	87.0	-182167.0	-1138.0	9483.0
25	17	1	41	314	89.0	-167801.0	-1034.0	9252.0
25	17	1	41	316	90.0	-163882.0	-982.0	9298.0
25	17	1	41	317	91.0	-164497.0	-940.0	9533.0
25	17	1	41	317	92.0	-170834.0	-887.0	9720.0
25	17	1	41	324	93.0	-181367.0	-835.0	9589.0
25	17	1	41	325	94.0	-191014.0	-807.0	9177.0
25	17	1	41	326	95.0	-196897.0	-789.0	9762.0
25	17	1	41	327	96.0	-199317.0	-762.0	10291.0
25	17	1	41	327	111.0	-192280.0	-544.0	9839.0
25	17	1	41	328	112.0	-193471.0	-530.0	9497.0
25	17	1	41	329	113.0	-193733.0	-493.0	9644.0
25	17	1	41	329	114.0	-192061.0	-473.0	9743.0
25	17	1	41	330	115.0	-189229.0	-445.0	9816.0
25	17	1	41	330	116.0	-186144.0	-437.0	9771.0
25	17	1	41	331	117.0	-183437.0	-419.0	10127.0
25	17	1	41	350	118.0	-181656.0	-412.0	10208.0
25	17	1	41	350	119.0	-181030.0	-424.0	10339.0
25	17	1	41	351	120.0	-181572.0	-416.0	10288.0
25	17	1	41	352	121.0	-182759.0	-402.0	10010.0
25	17	1	41	352	122.0	-184403.0	-400.0	10283.0
25	17	1	41	353	123.0	-186206.0	-384.0	10298.0
25	17	1	41	354	124.0	-187774.0	-376.0	9602.0
25	17	1	41	354	125.0	-189354.0	-386.0	9586.0
25	17	1	41	355	126.0	-190464.0	-380.0	10493.0
25	17	1	41	355	127.0	-191566.0	-366.0	10762.0
25	17	1	41	356	128.0	-193042.0	-359.0	10604.0
25	17	1	41	357	129.0	-194848.0	-371.0	10824.0
25	17	1	41	357	130.0	-196704.0	-389.0	10979.0
25	17	1	41	358	131.0	-198483.0	-397.0	10808.0
25	17	1	41	358	132.0	-199872.0	-431.0	11158.0
25	17	1	41	359	134.0	-200609.0	-466.0	10671.0
25	17	1	41	360	135.0	-199562.0	-496.0	10897.0
25	17	1	41	360	136.0	-197836.0	-505.0	11523.0
25	17	1	41	361	137.0	-196204.0	-514.0	11739.0
25	17	1	41	361	138.0	-195089.0	-522.0	11667.0
25	17	1	41	362	139.0	-194660.0	-528.0	11360.0
25	17	1	41	441	140.0	-195025.0	-514.0	11177.0
25	17	1	41	442	141.0	-196062.0	-499.0	10949.0
25	17	1	41	443	142.0	-197428.0	-492.0	11182.0
25	17	1	41	443	143.0	-199053.0	-483.0	10836.0
25	17	1	41	444	144.0	-200809.0	-489.0	10891.0
25	17	1	41	444	145.0	-202802.0	-476.0	11244.0
25	17	1	41	445	146.0	-204729.0	-490.0	11170.0
25	17	1	41	445	147.0	-206322.0	-484.0	10936.0
25	17	1	41	486	148.0	-207876.0	-480.0	11320.0
25	17	1	41	487	149.0	-209537.0	-463.0	11481.0
25	17	1	41	488	150.0	-211258.0	-471.0	11391.0
25	17	1	41	489	151.0	-213081.0	-474.0	11186.0
25	17	1	41	489	152.0	-214836.0	-460.0	11112.0
25	17	1	41	490	153.0	-216631.0	-461.0	11074.0
25	17	1	41	490	154.0	-218738.0	-467.0	11454.0
25	17	1	41	491	178.0	-204691.0	-532.0	13086.0
25	17	1	41	492	179.0	-200053.0	-538.0	13517.0
25	17	1	41	492	180.0	-195523.0	-561.0	13224.0
25	17	1	41	493	181.0	-191734.0	-557.0	12831.0
25	17	1	41	493	182.0	-188204.0	-569.0	13085.0
25	17	1	41	494	183.0	-184503.0	-591.0	13423.0
25	17	1	41	495	184.0	-180955.0	-593.0	13623.0
25	17	1	41	496	185.0	-177581.0	-598.0	13753.0
25	17	1	41	497	201.0	-159852.0	-571.0	16627.0
25	17	1	41	497	202.0	-162428.0	-563.0	16564.0
25	17	1	41	498	203.0	-165166.0	-541.0	16716.0
25	17	1	41	498	204.0	-168289.0	-513.0	17244.0
25	17	1	41	499	205.0	-171839.0	-477.0	17271.0
25	17	1	41	500	206.0	-175149.0	-457.0	17099.0
25	17	1	41	530	207.0	-178372.0	-417.0	17294.0
25	17	1	41	530	208.0	-181387.0	-392.0	17784.0
25	17	1	41	531	209.0	-184237.0	-359.0	17506.0
25	17	1	41	532	210.0	-187004.0	-337.0	17105.0
25	17	1	41	532	211.0	-189676.0	-300.0	16859.0
25	17	1	41	533	212.0	-191782.0	-287.0	16238.0
25	17	1	41	533	213.0	-193276.0	-255.0	16373.0
25	17	1	41	534	214.0	-194851.0	-251.0	16618.0
25	17	1	41	535	215.0	-196629.0	-226.0	16386.0
25	17	1	41	535	216.0	-198221.0	-193.0	16526.0
25	17	1	41	536	217.0	-199786.0	-170.0	16713.0
25	17	1	41	536	218.0	-201127.0	-138.0	16568.0
25	17	1	41	537	219.0	-202279.0	-134.0	16681.0
25	17	1	41	538	220.0	-203224.0	-119.0	16889.0
25	17	1	41	538	221.0	-204234.0	-86.0	17309.0
25	17	1	41	539	223.0	-206199.0	-54.0	16846.0
25	17	1	41	539	224.0	-206777.0	-48.0	17758.0
25	17	1	41	540	225.0	-207984.0	-49.0	18008.0
25	17	1	41	541	226.0	-207682.0	-38.0	17794.0
25	17	1	41	541	227.0	-207086.0	-39.0	17821.0
25	17	1	41	542	228.0	-207476.0	-36.0	17727.0
25	17	1	41	542	229.0	-205791.0	-12.0	17526.0
25	17	1	41	575	230.0	-205516.0	18.0	17109.0
25	17	1	41	576	231.0	-205160.0	43.0	15667.0
25	17	1	41	577	232.0	-204964.0	58.0	15058.0
25	17	1	41	577	233.0	-205242.0	75.0	14554.0
25	17	1	41	578	234.0	-205744.0	79.0	14057.0
25	17	1	41	579	235.0	-206223.0	88.0	13504.0
25	17	1	41	579	236.0	-206769.0	93.0	13432.0
25	17	1	41	580	237.0	-207834.0	71.0	13158.0
25	17	1	41	580	238.0	-209137.0	59.0	13066.0
25	17	1	41	581	239.0	-210319.0	63.0	12569.0
25	17	1	41	582	240.0	-211896.0	34.0	12511.0
25	17	1	41	582	241.0	-214263.0	26.0	12669.0
25	17	1	41	583	242.0	-216441.0	24.0	12369.0
25	17	1	41	583	243.0	-218835.0	1.0	11718.0
25	17	1	41	584	244.0	-220769.0	1.0	11426.0
25	17	1	41	585	246.0	-224297.0	3.0	11747.0
25	17	1	41	585	247.0	-225594.0	3.0	12105.0
25	17	1	41	586	248.0	-226836.0	15.0	12535.0
25	17	1	41	586	249.0	-227439.0	30.0	12714.0
25	17	1	41	587	250.0	-228196.0	53.0	12432.0
25	17	1	41	587	251.0	-228283.0	73.0	12169.0
25	17	1	41	666	252.0	-228312.0	82.0	12401.0
25	17	1	41	667	253.0	-228700.0	87.0	12819.0
25	17	1	41	667	254.0	-229056.0	85.0	12538.0
25	17	1	41	668	255.0	-229006.0	90.0	13345.0
25	17	1	41	668	0.0	-229363.0	116.0	14336.0
25	17	1	41	669	1.0	-230196.0	104.0	15213.0
25	17	1	41	670	2.0	-230089.0	95.0	15700.0
25	17	1	41	670	3.0	-230117.0	88.0	15879.0
25	17	1	41	671	4.0	-231117.0	91.0	15816.0
25	17	1	41	671	5.0	-231547.0	93.0	15942.0
25	17	1	41	672	6.0	-232007.0	104.0	16457.0
25	17	1	41	673	7.0	-232253.0	103.0	16624.0
25	17	1	41	673	8.0	-231842.0	119.0	16456.0
25	17	1	41	674	9.0	-231090.0	126.0	16505.0
25	17	1	41	674	10.0	-230159.0	132.0	16999.0
25	17	1	41	675	12.0	-227149.0	130.0	17144.0
25	17	1	41	676	35.0	-170331.0	-205.0	20458.0
25	17	1	41	676	36.0	-169971.0	-223.0	21031.0
25	17	1	41	677	37.0	-169932.0	-261.0	21550.0
25	17	1	41	677	38.0	-170575.0	-274.0	22963.0
25	17	1	41	678	39.0	-171946.0	-280.0	23678.0
25	17	1	41	678	40.0	-173968.0	-289.0	24103.0
25	17	1	41	711	41.0	-176435.0	-317.0	25231.0
25	17	1	41	712	42.0	-179107.0	-349.0	25851.0
25	17	1	41	712	43.0	-181885.0	-359.0	26006.0
25	17	1	41	713	44.0	-184882.0	-386.0	26820.0
25	17	1	41	714	45.0	-187901.0	-396.0	27556.0
25	17	1	41	714	46.0	-191021.0	-431.0	27853.0
25	17	1	41	715	47.0	-194061.0	-451.0	28422.0
25	17	1	41	715	48.0	-196626.0	-457.0	28884.0
25	17	1	41	716	49.0	-199015.0	-472.0	29422.0
25	17	1	41	717	50.0	-201680.0	-513.0	29927.0
25	17	1	41	717	51.0	-204534.0	-547.0	30443.0
25	17	1	41	718	52.0	-207339.0	-576.0	30551.0
25	17	1	41	718	53.0	-210231.0	-597.0	30920.0
25	17	1	41	719	54.0	-213341.0	-626.0	32017.0
25	17	1	41	720	55.0	-216151.0	-664.0	32641.0
25	17	1	41	720	57.0	-221899.0	-714.0	35946.0
25	17	1	41	721	58.0	-224014.0	-754.0	37353.0
25	17	1	41	721	59.0	-225900.0	-794.0	38360.0
25	17	1	41	722	60.0	-227686.0	-833.0	39228.0
25	17	1	41	722	61.0	-228436.0	-865.0	39849.0
25	17	1	41	723	62.0	-228218.0	-877.0	39913.0
25	17	1	41	724	63.0	-228265.0	-894.0	40250.0
25	17	1	41	756	64.0	-227973.0	-916.0	40563.0
25	17	1	41	756	65.0	-227741.0	-932.0	40309.0
25	17	1	41	757	66.0	-226890.0	-952.0	39667.0
25	17	1	41	758	67.0	-226196.0	-992.0	38342.0
25	17	1	41	758	68.0	-225148.0	-1041.0	37099.0
25	17	1	41	759	69.0	-223601.0	-1093.0	36732.0
25	17	1	41	759	70.0	-221963.0	-1122.0	36279.0
25	17	1	41	802	71.0	-220389.0	-1154.0	36089.0
25	17	1	41	802	72.0	-218527.0	-1194.0	35862.0
25	17	1	41	803	73.0	-216532.0	-1249.0	36023.0
25	17	1	41	804	74.0	-214334.0	-1287.0	36138.0
25	17	1	41	804	75.0	-211750.0	-1342.0	36191.0
25	17	1	41	805	76.0	-209432.0	-1387.0	36036.0
25	17	1	41	806	77.0	-207344.0	-1424.0	35902.0
25	17	1	41	806	78.0	-205369.0	-1455.0	36337.0
25	17	1	41	807	79.0	-203512.0	-1494.0	36810.0
25	17	1	41	807	80.0	-201644.0	-1536.0	36942.0
25	17	1	41	808	81.0	-199851.0	-1581.0	36943.0
25	17	1	41	809	82.0	-197991.0	-1615.0	36724.0
25	17	1	41	809	83.0	-196136.0	-1670.0	36549.0
25	17	1	41	810	84.0	-194496.0	-1722.0	36162.0
25	17	1	41	810	85.0	-192649.0	-1753.0	35854.0
25	17	1	41	811	102.0	-186934.0	-2054.0	35952.0
25	17	1	41	812	103.0	-187491.0	-2044.0	35773.0
25	17	1	41	812	104.0	-187929.0	-2026.0	35670.0
25	17	1	41	813	105.0	-188339.0	-2024.0	35474.0
25	17	1	41	813	106.0	-188765.0	-2028.0	35244.0
25	17	1	41	814	107.0	-189344.0	-2009.0	35614.0
25	17	1	41	891	108.0	-190182.0	-1979.0	36353.0
25	17	1	41	892	109.0	-191411.0	-1975.0	36762.0
25	17	1	41	893	110.0	-193017.0	-1983.0	36898.0
25	17	1	41	894	111.0	-194803.0	-1980.0	37141.0
25	17	1	41	895	112.0	-196979.0	-1977.0	37696.0
25	17	1	41	896	113.0	-199571.0	-1995.0	38627.0
25	17	1	41	897	114.0	-202476.0	-2001.0	38643.0
25	17	1	41	898	115.0	-205497.0	-2012.0	38439.0
25	17	1	41	898	116.0	-208860.0	-2032.0	38409.0
25	17	1	41	899	117.0	-211852.0	-2044.0	38163.0
25	17	1	41	900	118.0	-214419.0	-2072.0	38310.0
25	17	1	41	900	119.0	-216953.0	-2091.0	39078.0
25	17	1	41	901	120.0	-219509.0	-2114.0	38817.0
25	17	1	41	901	121.0	-221786.0	-2136.0	38016.0
25	17	1	41	902	122.0	-224137.0	-2152.0	37948.0
25	17	1	41	902	124.0	-228920.0	-2141.0	34533.0
25	17	1	41	903	147.0	-171219.0	-2363.0	30780.0
25	17	1	41	904	148.0	-156413.0	-2366.0	31761.0
25	17	1	41	904	149.0	-142169.0	-2361.0	32500.0
25	17	1	41	905	150.0	-132599.0	-2368.0	32701.0
25	17	1	41	905	151.0	-128645.0	-2334.0	32939.0
25	17	1	41	906	152.0	-128736.0	-2308.0	33274.0
25	17	1	41	936	153.0	-130663.0	-2279.0	34021.0
25	17	1	41	937	154.0	-132440.0	-2259.0	34644.0
25	17	1	41	938	155.0	-134760.0	-2244.0	34776.0
25	17	1	41	938	156.0	-140566.0	-2251.0	34911.0
25	17	1	41	939	157.0	-152171.0	-2244.0	35394.0
25	17	1	41	939	158.0	-169601.0	-2241.0	36140.0
25	17	1	41	940	159.0	-192496.0	-2235.0	36293.0
25	17	1	41	941	160.0	-217814.0	-2247.0	36069.0
25	17	1	41	941	161.0	-238997.0	-2254.0	36538.0
25	17	1	41	942	162.0	-251269.0	-2254.0	36636.0
25	17	1	41	942	163.0	-253968.0	-2257.0	36319.0
25	17	1	41	943	164.0	-250696.0	-2251.0	36128.0
25	17	1	41	944	165.0	-244187.0	-2261.0	35871.0
25	17	1	41	944	166.0	-235019.0	-2267.0	35901.0
25	17	1	41	945	167.0	-226656.0	-2262.0	36260.0
25	17	1	41	946	169.0	-221584.0	-2296.0	36864.0
25	17	1	41	946	170.0	-222299.0	-2316.0	37009.0
25	17	1	41	947	171.0	-224769.0	-2307.0	36970.0
25	17	1	41	947	172.0	-227877.0	-2299.0	36900.0
25	17	1	41	948	173.0	-230891.0	-2287.0	36749.0
25	17	1	41	949	174.0	-233572.0	-2255.0	36541.0
25	17	1	41	949	175.0	-235099.0	-2257.0	36369.0
25	17	1	41	950	176.0	-235601.0	-2251.0	36904.0
25	17	1	41	981	177.0	-234983.0	-2258.0	37006.0
25	17	1	41	981	178.0	-232852.0	-2261.0	36736.0
25	17	1	41	982	179.0	-229227.0	-2260.0	37066.0
25	17	1	41	983	180.0	-224222.0	-2266.0	37252.0
25	17	1	41	983	181.0	-218151.0	-2262.0	37198.0
25	17	1	41	984	182.0	-212276.0	-2277.0	37065.0
25	17	1	41	985	183.0	-207381.0	-2295.0	36739.0
25	17	1	41	985	184.0	-202872.0	-2309.0	36807.0
25	17	1	41	986	185.0	-198013.0	-2321.0	36968.0
25	17	1	41	987	186.0	-192590.0	-2339.0	36453.0
25	17	1	41	987	187.0	-186322.0	-2366.0	36274.0
25	17	1	41	988	188.0	-179458.0	-2398.0	36959.0
25	17	1	41	989	189.0	-172347.0	-2421.0	37866.0
25	17	1	41	989	190.0	-164972.0	-2447.0	37713.0
25	17	1	41	990	191.0	-158161.0	-2459.0	37234.0
25	17	1	41	990	192.0	-152749.0	-2458.0	37183.0
25	17	1	41	991	193.0	-149166.0	-2457.0	36743.0
25	17	1	41	992	194.0	-148014.0	-2436.0	36759.0
25	17	1	41	992	195.0	-148479.0	-2439.0	36619.0
25	17	1	42	1	196.0	-150197.0	-2462.0	36704.0
25	17	1	42	2	197.0	-153179.0	-2455.0	36583.0
25	17	1	42	26	198.0	-156934.0	-2419.0	36889.0
25	17	1	42	26	199.0	-161407.0	-2402.0	37093.0
25	17	1	42	27	200.0	-166267.0	-2404.0	36939.0
25	17	1	42	28	201.0	-170914.0	-2386.0	36892.0
25	17	1	42	29	202.0	-175023.0	-2394.0	37071.0
25	17	1	42	30	203.0	-178656.0	-2388.0	36826.0
25	17	1	42	30	204.0	-181460.0	-2382.0	36874.0
25	17	1	42	31	205.0	-183693.0	-2376.0	37192.0
25	17	1	42	32	206.0	-185609.0	-2396.0	37274.0
25	17	1	42	32	207.0	-187261.0	-2416.0	36874.0
25	17	1	42	33	208.0	-188768.0	-2412.0	36793.0
25	17	1	42	33	209.0	-190301.0	-2422.0	36656.0
25	17	1	42	34	210.0	-191991.0	-2436.0	36691.0
25	17	1	42	35	211.0	-194411.0	-2450.0	36779.0
25	17	1	42	35	212.0	-197511.0	-2460.0	36891.0
25	17	1	42	36	214.0	-205416.0	-2504.0	36529.0
25	17	1	42	37	215.0	-209988.0	-2517.0	36026.0
25	17	1	42	37	216.0	-214814.0	-2505.0	36293.0
25	17	1	42	38	217.0	-219596.0	-2521.0	36163.0
25	17	1	42	38	218.0	-223912.0	-2529.0	36339.0
25	17	1	42	39	219.0	-227642.0	-2561.0	36474.0
25	17	1	42	70	220.0	-230859.0	-2571.0	36716.0
25	17	1	42	70	221.0	-233602.0	-2571.0	36804.0
25	17	1	42	71	222.0	-235833.0	-2581.0	36694.0
25	17	1	42	72	223.0	-237414.0	-2596.0	36105.0
25	17	1	42	73	224.0	-238459.0	-2585.0	36033.0
25	17	1	42	74	225.0	-239125.0	-2607.0	35999.0
25	17	1	42	75	226.0	-239209.0	-2642.0	36063.0
25	17	1	42	76	227.0	-238791.0	-2653.0	36533.0
25	17	1	42	76	228.0	-237892.0	-2659.0	36628.0
25	17	1	42	77	229.0	-236382.0	-2669.0	36974.0
25	17	1	42	78	230.0	-234156.0	-2672.0	36967.0
25	17	1	42	78	231.0	-231388.0	-2664.0	36578.0
25	17	1	42	79	232.0	-228564.0	-2637.0	36199.0
25	17	1	42	80	233.0	-225222.0	-2622.0	36444.0
25	17	1	42	80	234.0	-221163.0	-2617.0	35989.0
25	17	1	42	81	237.0	-207191.0	-2635.0	35218.0
25	17	1	42	81	238.0	-202047.0	-2663.0	34933.0
25	17	1	42	82	239.0	-197195.0	-2658.0	35209.0
25	17	1	42	82	240.0	-192401.0	-2644.0	35291.0
25	17	1	42	83	241.0	-187793.0	-2641.0	35264.0
25	17	1	42	84	242.0	-183109.0	-2624.0	35361.0
25	17	1	42	115	243.0	-179002.0	-2616.0	35379.0
25	17	1	42	116	244.0	-175516.0	-2622.0	35059.0
25	17	1	42	116	245.0	-172407.0	-2627.0	34794.0
25	17	1	42	117	246.0	-169960.0	-2621.0	35084.0
25	17	1	42	118	247.0	-168087.0	-2601.0	35092.0
25	17	1	42	118	248.0	-166856.0	-2576.0	34938.0
25	17	1	42	119	249.0	-165981.0	-2561.0	34796.0
25	17	1	42	120	250.0	-165126.0	-2539.0	34834.0
25	17	1	42	120	251.0	-164250.0	-2527.0	34604.0
25	17	1	42	121	252.0	-163521.0	-2506.0	34529.0
25	17	1	42	122	253.0	-163021.0	-2472.0	35082.0
25	17	1	42	122	254.0	-162798.0	-2422.0	34806.0
25	17	1	42	123	255.0	-163075.0	-2393.0	34138.0
25	17	1	42	124	0.0	-163464.0	-2351.0	34155.0
25	17	1	42	124	1.0	-164181.0	-2313.0	34361.0
25	17	1	42	125	3.0	-167176.0	-2241.0	34303.0
25	17	1	42	126	4.0	-169138.0	-2197.0	34095.0
25	17	1	42	126	5.0	-171376.0	-2147.0	34049.0
25	17	1	42	127	6.0	-174251.0	-2111.0	33816.0
25	17	1	42	127	7.0	-177824.0	-2060.0	33568.0
25	17	1	42	128	8.0	-181872.0	-1998.0	33727.0
25	17	1	42	161	9.0	-185927.0	-1946.0	34076.0
25	17	1	42	206	10.0	-189844.0	-1883.0	33301.0
25	17	1	42	207	11.0	-193609.0	-1883.0	32098.0
25	17	1	42	207	12.0	-197224.0	-1847.0	32026.0
25	17	1	42	208	13.0	-200644.0	-1802.0	31970.0
25	17	1	42	209	14.0	-204279.0	-1782.0	32158.0
25	17	1	42	209	15.0	-207763.0	-1759.0	32817.0
25	17	1	42	210	16.0	-210941.0	-1732.0	33138.0
25	17	1	42	211	17.0	-214041.0	-1711.0	33066.0
25	17	1	42	211	18.0	-216754.0	-1679.0	33390.0
25	17	1	42	212	19.0	-218956.0	-1646.0	33637.0
25	17	1	42	212	20.0	-220814.0	-1602.0	33488.0
25	17	1	42	213	21.0	-222261.0	-1570.0	33875.0
25	17	1	42	251	22.0	-223465.0	-1554.0	34221.0
25	17	1	42	252	23.0	-224573.0	-1521.0	33996.0
25	17	1	42	252	25.0	-226580.0	-1438.0	34539.0
25	17	1	42	253	26.0	-227371.0	-1409.0	34484.0
25	17	1	42	254	48.0	-193255.0	-678.0	34686.0
25	17	1	42	254	49.0	-193639.0	-667.0	34791.0
25	17	1	42	255	50.0	-194510.0	-624.0	34884.0
25	17	1	42	256	51.0	-195353.0	-600.0	34958.0
25	17	1	42	256	52.0	-195571.0	-591.0	35294.0
25	17	1	42	257	53.0	-195010.0	-591.0	35164.0
25	17	1	42	258	54.0	-193518.0	-612.0	34453.0
25	17	1	42	258	55.0	-191581.0	-610.0	34299.0
25	17	1	42	259	56.0	-189370.0	-586.0	34621.0
25	17	1	42	260	57.0	-186620.0	-574.0	34632.0
25	17	1	42	260	58.0	-183942.0	-557.0	34623.0
25	17	1	42	261	59.0	-181929.0	-557.0	34633.0
25	17	1	42	262	71.0	-212380.0	-524.0	34116.0
25	17	1	42	262	72.0	-213213.0	-524.0	35024.0
25	17	1	42	263	73.0	-213974.0	-534.0	35293.0
25	17	1	42	263	74.0	-214786.0	-537.0	34633.0
25	17	1	42	264	75.0	-215266.0	-566.0	34247.0
25	17	1	42	265	76.0	-215329.0	-589.0	34143.0
25	17	1	42	295	77.0	-215106.0	-609.0	33704.0
25	17	1	42	296	78.0	-214613.0	-620.0	33567.0
25	17	1	42	297	79.0	-213727.0	-624.0	33659.0
25	17	1	42	298	80.0	-212647.0	-629.0	33485.0
25	17	1	42	298	81.0	-211062.0	-647.0	33864.0
25	17	1	42	299	82.0	-209324.0	-664.0	34229.0
25	17	1	42	300	83.0	-207923.0	-683.0	34316.0
25	17	1	42	300	84.0	-206863.0	-712.0	34491.0
25	17	1	42	301	85.0	-205818.0	-701.0	34400.0
25	17	1	42	302	86.0	-204814.0	-715.0	34326.0
25	17	1	42	302	87.0	-203750.0	-703.0	34294.0
25	17	1	42	303	88.0	-202789.0	-681.0	34479.0
25	17	1	42	304	89.0	-202092.0	-689.0	34793.0
25	17	1	42	304	90.0	-201329.0	-699.0	34602.0
25	17	1	42	305	91.0	-200716.0	-699.0	34728.0
25	17	1	42	306	93.0	-198852.0	-687.0	35339.0
25	17	1	42	306	94.0	-198127.0	-694.0	35489.0
25	17	1	42	307	95.0	-197443.0	-690.0	35495.0
25	17	1	42	308	96.0	-196975.0	-676.0	35438.0
25	17	1	42	308	97.0	-196690.0	-664.0	36523.0
25	17	1	42	309	98.0	-196331.0	-642.0	36568.0
25	17	1	42	339	99.0	-196025.0	-622.0	36743.0
25	17	1	42	340	100.0	-195676.0	-649.0	36419.0
25	17	1	42	341	101.0	-195383.0	-666.0	36111.0
25	17	1	42	342	102.0	-195470.0	-662.0	35536.0
25	17	1	42	342	103.0	-195836.0	-683.0	35224.0
25	17	1	42	343	104.0	-196466.0	-706.0	34956.0
25	17	1	42	344	105.0	-197184.0	-732.0	35152.0
25	17	1	42	345	106.0	-198288.0	-764.0	34883.0
25	17	1	42	345	107.0	-199739.0	-811.0	34589.0
25	17	1	42	346	108.0	-201507.0	-840.0	34347.0
25	17	1	42	347	109.0	-203329.0	-876.0	34059.0
25	17	1	42	347	110.0	-205397.0	-909.0	33988.0
25	17	1	42	348	111.0	-207887.0	-934.0	33885.0
25	17	1	42	349	112.0	-210299.0	-943.0	33833.0
25	17	1	42	349	113.0	-212388.0	-954.0	33838.0
25	17	1	42	350	115.0	-215733.0	-991.0	32871.0
25	17	1	42	351	116.0	-216758.0	-993.0	33339.0
25	17	1	42	351	117.0	-217512.0	-997.0	33338.0
25	17	1	42	352	118.0	-218206.0	-989.0	32736.0
25	17	1	42	353	119.0	-218781.0	-1009.0	32617.0
25	17	1	42	353	120.0	-218724.0	-1030.0	33217.0
25	17	1	42	354	121.0	-218257.0	-1034.0	33082.0
25	17	1	42	432	122.0	-217637.0	-1043.0	33044.0
25	17	1	42	432	123.0	-217254.0	-1037.0	33186.0
25	17	1	42	433	124.0	-217184.0	-1032.0	32969.0
25	17	1	42	434	125.0	-216866.0	-1037.0	32647.0
25	17	1	42	435	126.0	-216430.0	-1044.0	32661.0
25	17	1	42	435	127.0	-216049.0	-1062.0	32473.0
25	17	1	42	436	128.0	-215763.0	-1080.0	32031.0
25	17	1	42	437	129.0	-215186.0	-1097.0	32126.0
25	17	1	42	437	130.0	-214245.0	-1119.0	32286.0
25	17	1	42	438	131.0	-212761.0	-1149.0	32837.0
25	17	1	42	439	132.0	-210708.0	-1151.0	32954.0
25	17	1	42	439	133.0	-208631.0	-1160.0	33034.0
25	17	1	42	440	134.0	-206624.0	-1182.0	32381.0
25	17	1	42	441	135.0	-204734.0	-1201.0	31901.0
25	17	1	42	442	136.0	-202774.0	-1216.0	31834.0
25	17	1	42	443	160.0	-195022.0	-1254.0	31268.0
25	17	1	42	444	161.0	-198089.0	-1244.0	31538.0
25	17	1	42	444	162.0	-200981.0	-1246.0	31421.0
25	17	1	42	445	163.0	-203668.0	-1222.0	30942.0
25	17	1	42	446	164.0	-206014.0	-1226.0	31005.0
25	17	1	42	446	165.0	-207954.0	-1217.0	31163.0
25	17	1	42	476	166.0	-209577.0	-1220.0	31006.0
25	17	1	42	477	167.0	-211281.0	-1202.0	30829.0
25	17	1	42	478	168.0	-213175.0	-1189.0	31313.0
25	17	1	42	479	169.0	-215006.0	-1199.0	31381.0
25	17	1	42	479	170.0	-216649.0	-1188.0	31273.0
25	17	1	42	480	171.0	-218050.0	-1190.0	31358.0
25	17	1	42	481	172.0	-219501.0	-1209.0	31258.0
25	17	1	42	482	173.0	-220676.0	-1216.0	30851.0
25	17	1	42	482	174.0	-221711.0	-1241.0	30643.0
25	17	1	42	483	175.0	-222624.0	-1219.0	30396.0
25	17	1	42	484	176.0	-223355.0	-1216.0	30085.0
25	17	1	42	484	177.0	-223972.0	-1193.0	30383.0
25	17	1	42	485	178.0	-224061.0	-1176.0	30661.0
25	17	1	42	486	179.0	-223556.0	-1164.0	30424.0
25	17	1	42	486	180.0	-222472.0	-1133.0	30254.0
25	17	1	42	487	182.0	-219132.0	-1147.0	30368.0
25	17	1	42	488	183.0	-217619.0	-1161.0	30350.0
25	17	1	42	488	184.0	-216286.0	-1153.0	30744.0
25	17	1	42	489	185.0	-214717.0	-1130.0	30835.0
25	17	1	42	489	186.0	-212875.0	-1139.0	30463.0
25	17	1	42	490	187.0	-211442.0	-1151.0	29963.0
25	17	1	42	491	188.0	-210045.0	-1141.0	29739.0
25	17	1	42	566	189.0	-208736.0	-1152.0	29728.0
25	17	1	42	567	190.0	-207695.0	-1166.0	29979.0
25	17	1	42	568	191.0	-206425.0	-1173.0	30366.0
25	17	1	42	569	192.0	-204664.0	-1172.0	30684.0
25	17	1	42	570	193.0	-202513.0	-1156.0	30708.0
25	17	1	42	570	194.0	-199870.0	-1152.0	30662.0
25	17	1	42	571	195.0	-197147.0	-1153.0	30359.0
25	17	1	42	572	196.0	-194534.0	-1169.0	30604.0
25	17	1	42	573	197.0	-192190.0	-1177.0	30399.0
25	17	1	42	573	198.0	-190256.0	-1165.0	30191.0
25	17	1	42	574	199.0	-188704.0	-1164.0	30109.0
25	17	1	42	575	200.0	-187617.0	-1173.0	30096.0
25	17	1	42	575	201.0	-186602.0	-1165.0	30138.0
25	17	1	42	576	202.0	-185526.0	-1169.0	30139.0
25	17	1	42	577	203.0	-184543.0	-1169.0	30328.0
25	17	1	42	577	227.0	-205158.0	-1332.0	28747.0
25	17	1	42	578	228.0	-205697.0	-1307.0	28641.0
25	17	1	42	578	229.0	-205658.0	-1319.0	28811.0
25	17	1	42	579	230.0	-205497.0	-1321.0	29359.0
25	17	1	42	580	231.0	-205450.0	-1322.0	29373.0
25	17	1	42	580	232.0	-205519.0	-1306.0	29549.0
25	17	1	42	581	233.0	-205642.0	-1294.0	29600.0
25	17	1	42	656	234.0	-205861.0	-1272.0	29159.0
25	17	1	42	657	235.0	-205998.0	-1278.0	28998.0
25	17	1	42	658	236.0	-206155.0	-1269.0	28800.0
25	17	1	42	659	237.0	-206243.0	-1276.0	28869.0
25	17	1	42	660	238.0	-206284.0	-1266.0	28598.0
25	17	1	42	660	239.0	-206201.0	-1257.0	28619.0
25	17	1	42	661	240.0	-206060.0	-1266.0	28753.0
25	17	1	42	662	241.0	-206173.0	-1262.0	28781.0
25	17	1	42	662	242.0	-206442.0	-1249.0	28578.0
25	17	1	42	663	243.0	-206772.0	-1258.0	28927.0
25	17	1	42	664	244.0	-207165.0	-1272.0	29103.0
25	17	1	42	665	245.0	-207506.0	-1276.0	29041.0
25	17	1	42	665	246.0	-207932.0	-1297.0	28718.0
25	17	1	42	666	247.0	-208074.0	-1301.0	28269.0
25	17	1	42	666	248.0	-207689.0	-1304.0	28059.0
25	17	1	42	667	16.0	-188986.0	-1535.0	28259.0
25	17	1	42	668	17.0	-189422.0	-1544.0	28297.0
25	17	1	42	668	18.0	-189934.0	-1559.0	28049.0
25	17	1	42	669	19.0	-190634.0	-1560.0	28260.0
25	17	1	42	670	20.0	-191210.0	-1552.0	28489.0
25	17	1	42	670	21.0	-192000.0	-1558.0	28989.0
25	17	1	42	671	22.0	-193025.0	-1564.0	28501.0
25	17	1	42	701	23.0	-194170.0	-1572.0	28094.0
25	17	1	42	702	24.0	-195428.0	-1559.0	28064.0
25	17	1	42	703	25.0	-197020.0	-1562.0	28078.0
25	17	1	42	703	26.0	-198695.0	-1582.0	28011.0
25	17	1	42	704	27.0	-200487.0	-1585.0	27986.0
25	17	1	42	705	28.0	-202377.0	-1591.0	27896.0
25	17	1	42	706	29.0	-204179.0	-1614.0	27924.0
25	17	1	42	706	30.0	-205604.0	-1618.0	27749.0
25	17	1	42	707	31.0	-206851.0	-1641.0	27396.0
25	17	1	42	708	32.0	-208064.0	-1656.0	27478.0
25	17	1	42	708	33.0	-209364.0	-1689.0	27516.0
25	17	1	42	709	34.0	-210752.0	-1714.0	27398.0
25	17	1	42	710	35.0	-212129.0	-1727.0	27566.0
25	17	1	42	710	36.0	-213159.0	-1744.0	27462.0
25	17	1	42	711	37.0	-213590.0	-1771.0	27470.0
25	17	1	42	712	39.0	-212437.0	-1854.0	27161.0
25	17	1	42	712	40.0	-211276.0	-1869.0	27534.0
25	17	1	42	713	41.0	-209916.0	-1854.0	27803.0
25	17	1	42	713	42.0	-208889.0	-1839.0	27504.0
25	17	1	42	714	43.0	-207982.0	-1844.0	27507.0
25	17	1	42	715	44.0	-206873.0	-1834.0	27806.0
25	17	1	42	746	45.0	-205574.0	-1824.0	27746.0
25	17	1	42	760	46.0	-204065.0	-1842.0	27506.0
25	17	1	42	761	47.0	-202452.0	-1861.0	27427.0
25	17	1	42	761	48.0	-201022.0	-1855.0	27545.0
25	17	1	42	762	49.0	-199546.0	-1861.0	27263.0
25	17	1	42	763	50.0	-197714.0	-1869.0	27245.0
25	17	1	42	763	51.0	-195552.0	-1878.0	27426.0
25	17	1	42	764	52.0	-193116.0	-1878.0	27351.0
25	17	1	42	764	53.0	-190597.0	-1887.0	27456.0
25	17	1	42	765	54.0	-188216.0	-1889.0	27925.0
25	17	1	42	766	55.0	-185732.0	-1895.0	28445.0
25	17	1	42	766	56.0	-183519.0	-1887.0	28958.0
25	17	1	42	767	57.0	-181709.0	-1872.0	29689.0
25	17	1	42	767	58.0	-180002.0	-1865.0	29769.0
25	17	1	42	768	59.0	-178634.0	-1862.0	29533.0
25	17	1	42	768	61.0	-177630.0	-1861.0	29441.0
25	17	1	42	769	62.0	-177651.0	-1880.0	29341.0
25	17	1	42	770	63.0	-178415.0	-1915.0	29198.0
25	17	1	42	770	64.0	-179932.0	-1886.0	28861.0
25	17	1	42	771	65.0	-181977.0	-1859.0	27864.0
25	17	1	42	771	66.0	-184567.0	-1848.0	26889.0
25	17	1	42	790	67.0	-187703.0	-1851.0	25247.0
25	17	1	42	791	68.0	-190796.0	-1827.0	22615.0
25	17	1	42	792	69.0	-193977.0	-1808.0	18515.0
25	17	1	42	793	70.0	-197592.0	-1795.0	15068.0
25	17	1	42	794	71.0	-201505.0	-1785.0	10633.0
25	17	1	42	795	72.0	-204903.0	-1779.0	5336.0
25	17	1	42	795	73.0	-207666.0	-1768.0	1629.0
25	17	1	42	796	74.0	-209970.0	-1757.0	-261.0
25	17	1	42	797	75.0	-211444.0	-1742.0	-2509.0
25	17	1	42	798	76.0	-211669.0	-1715.0	-4865.0
25	17	1	42	798	77.0	-211014.0	-1726.0	-4732.0
25	17	1	42	799	78.0	-210026.0	-1724.0	-2443.0
25	17	1	42	800	79.0	-208662.0	-1727.0	-473.0
25	17	1	42	801	80.0	-207101.0	-1734.0	1971.0
25	17	1	42	802	81.0	-205741.0	-1736.0	5998.0
25	17	1	42	802	84.0	-205148.0	-1737.0	20166.0
25	17	1	42	803	85.0	-207179.0	-1728.0	22261.0
25	17	1	42	804	86.0	-210437.0	-1696.0	22495.0
25	17	1	42	804	87.0	-214401.0	-1677.0	22501.0
25	17	1	42	805	88.0	-218431.0	-1659.0	22233.0
25	17	1	42	806	89.0	-222049.0	-1649.0	22324.0
25	17	1	42	882	90.0	-223516.0	-1634.0	21738.0
25	17	1	42	883	91.0	-219189.0	-1629.0	21688.0
25	17	1	42	883	92.0	-209484.0	-1599.0	22196.0
25	17	1	42	884	93.0	-199154.0	-1600.0	22779.0
25	17	1	42	885	94.0	-191636.0	-1574.0	23007.0
25	17	1	42	885	95.0	-188601.0	-1550.0	23724.0
25	17	1	42	886	96.0	-188025.0	-1536.0	24018.0
25	17	1	42	887	97.0	-186227.0	-1514.0	24038.0
25	17	1	42	888	98.0	-181098.0	-1494.0	24254.0
25	17	1	42	888	99.0	-172830.0	-1471.0	24298.0
25	17	1	42	889	100.0	-164727.0	-1434.0	24207.0
25	17	1	42	890	101.0	-161603.0	-1420.0	24544.0
25	17	1	42	890	102.0	-166651.0	-1409.0	24969.0
25	17	1	42	891	103.0	-180639.0	-1407.0	25301.0
25	17	1	42	892	104.0	-201988.0	-1398.0	25053.0
25	17	1	42	892	128.0	-187372.0	-1316.0	25975.0
25	17	1	42	893	129.0	-182848.0	-1344.0	25428.0
25	17	1	42	893	130.0	-177424.0	-1341.0	25533.0
25	17	1	42	894	131.0	-172764.0	-1324.0	25688.0
25	17	1	42	895	132.0	-169404.0	-1324.0	25737.0
25	17	1	42	895	133.0	-167716.0	-1341.0	26172.0
25	17	1	42	896	134.0	-167695.0	-1341.0	26406.0
25	17	1	42	927	135.0	-169217.0	-1349.0	26404.0
25	17	1	42	928	136.0	-172182.0	-1340.0	26161.0
25	17	1	42	929	137.0	-176126.0	-1334.0	26077.0
25	17	1	42	970	138.0	-180914.0	-1342.0	26169.0
25	17	1	42	971	139.0	-186184.0	-1352.0	25934.0
25	17	1	42	972	140.0	-191887.0	-1371.0	25359.0
25	17	1	42	973	141.0	-197551.0	-1358.0	25107.0
25	17	1	42	974	142.0	-202919.0	-1391.0	24803.0
25	17	1	42	975	143.0	-207575.0	-1408.0	24725.0
25	17	1	42	976	144.0	-210779.0	-1434.0	24622.0
25	17	1	42	976	145.0	-212419.0	-1464.0	23995.0
25	17	1	42	978	146.0	-212592.0	-1511.0	23656.0
25	17	1	42	979	147.0	-211447.0	-1529.0	23654.0
25	17	1	42	980	148.0	-209207.0	-1560.0	22722.0
25	17	1	42	981	149.0	-206045.0	-1595.0	21968.0
25	17	1	42	981	151.0	-198546.0	-1646.0	21443.0
25	17	1	42	982	152.0	-195424.0	-1655.0	21099.0
25	17	1	43	15	153.0	-192892.0	-1669.0	20788.0
25	17	1	43	16	173.0	-205132.0	-2107.0	12701.0
25	17	1	43	17	174.0	-207109.0	-2099.0	12577.0
25	17	1	43	18	175.0	-209132.0	-2098.0	12648.0
25	17	1	43	18	176.0	-211037.0	-2113.0	12251.0
25	17	1	43	19	177.0	-212603.0	-2121.0	11984.0
25	17	1	43	20	178.0	-213988.0	-2112.0	11906.0
25	17	1	43	21	179.0	-214966.0	-2102.0	11494.0
25	17	1	43	21	180.0	-215718.0	-2102.0	11077.0
25	17	1	43	22	181.0	-216224.0	-2108.0	11704.0
25	17	1	43	23	182.0	-215816.0	-2104.0	12176.0
25	17	1	43	23	183.0	-214913.0	-2114.0	11978.0
25	17	1	43	24	184.0	-213834.0	-2074.0	11818.0
25	17	1	43	25	185.0	-212913.0	-2072.0	11748.0
25	17	1	43	25	186.0	-212087.0	-2084.0	11381.0
25	17	1	43	26	196.0	-195926.0	-1952.0	7216.0
25	17	1	43	27	197.0	-193829.0	-1955.0	6851.0
25	17	1	43	27	198.0	-192206.0	-1942.0	7006.0
25	17	1	43	28	199.0	-190786.0	-1919.0	6644.0
25	17	1	43	28	200.0	-189737.0	-1880.0	6346.0
25	17	1	43	29	201.0	-189131.0	-1841.0	6259.0
25	17	1	43	106	202.0	-189146.0	-1852.0	6388.0
25	17	1	43	107	203.0	-189546.0	-1851.0	6648.0
25	17	1	43	108	204.0	-190076.0	-1814.0	6718.0
25	17	1	43	109	205.0	-190669.0	-1816.0	6601.0
25	17	1	43	109	206.0	-190874.0	-1819.0	6243.0
25	17	1	43	110	207.0	-190727.0	-1800.0	5835.0
25	17	1	43	110	208.0	-190312.0	-1790.0	5353.0
25	17	1	43	111	209.0	-189851.0	-1802.0	5033.0
25	17	1	43	112	210.0	-189419.0	-1792.0	5029.0
25	17	1	43	112	211.0	-187913.0	-1756.0	5254.0
25	17	1	43	113	212.0	-186632.0	-1736.0	5164.0
25	17	1	43	114	213.0	-185769.0	-1720.0	5567.0
25	17	1	43	115	214.0	-185149.0	-1714.0	5995.0
25	17	1	43	116	215.0	-184980.0	-1694.0	5546.0
25	17	1	43	117	216.0	-185282.0	-1677.0	5229.0
25	17	1	43	117	218.0	-186589.0	-1647.0	4681.0
25	17	1	43	118	241.0	-220137.0	-1119.0	4019.0
25	17	1	43	119	242.0	-221368.0	-1124.0	4641.0
25	17	1	43	119	243.0	-220384.0	-1106.0	4248.0
25	17	1	43	120	244.0	-218464.0	-1091.0	3887.0
25	17	1	43	121	245.0	-215696.0	-1108.0	3807.0
25	17	1	43	121	246.0	-212756.0	-1111.0	3667.0
25	17	1	43	151	247.0	-210289.0	-1096.0	3428.0
25	17	1	43	152	248.0	-207874.0	-1084.0	3286.0
25	17	1	43	153	249.0	-204988.0	-1090.0	3356.0
25	17	1	43	154	250.0	-200892.0	-1097.0	3452.0
25	17	1	43	154	251.0	-195807.0	-1109.0	3625.0
25	17	1	43	155	252.0	-190489.0	-1108.0	3708.0
25	17	1	43	156	253.0	-185735.0	-1097.0	3466.0
25	17	1	43	157	254.0	-182074.0	-1085.0	3657.0
25	17	1	43	157	255.0	-179847.0	-1053.0	3903.0
25	17	1	43	158	0.0	-179095.0	-1031.0	3873.0
25	17	1	43	159	1.0	-179624.0	-1025.0	3761.0
25	17	1	43	159	2.0	-180571.0	-1012.0	3769.0
25	17	1	43	160	3.0	-181140.0	-990.0	3694.0
25	17	1	43	161	4.0	-180937.0	-966.0	3451.0
25	17	1	43	161	5.0	-179797.0	-940.0	3262.0
25	17	1	43	162	7.0	-173591.0	-924.0	3401.0
25	17	1	43	163	8.0	-167730.0	-936.0	3438.0
25	17	1	43	163	9.0	-161084.0	-914.0	3482.0
25	17	1	43	164	10.0	-154823.0	-869.0	3734.0
25	17	1	43	164	11.0	-149947.0	-864.0	3273.0
25	17	1	43	165	12.0	-146969.0	-827.0	2988.0
25	17	1	43	197	13.0	-145991.0	-784.0	3145.0
25	17	1	43	198	14.0	-147274.0	-766.0	3284.0
25	17	1	43	199	15.0	-150373.0	-732.0	3380.0
25	17	1	43	200	16.0	-154632.0	-716.0	3956.0
25	17	1	43	200	17.0	-159696.0	-707.0	4155.0
25	17	1	43	201	18.0	-165140.0	-702.0	3679.0
25	17	1	43	202	19.0	-170829.0	-682.0	3994.0
25	17	1	43	202	20.0	-176696.0	-673.0	4129.0
25	17	1	43	203	21.0	-182672.0	-656.0	4113.0
25	17	1	43	204	22.0	-188695.0	-655.0	4324.0
25	17	1	43	204	23.0	-194841.0	-650.0	4378.0
25	17	1	43	205	24.0	-201062.0	-651.0	3863.0
25	17	1	43	206	25.0	-206956.0	-629.0	3986.0
25	17	1	43	206	26.0	-212155.0	-635.0	4509.0
25	17	1	43	207	27.0	-216252.0	-656.0	4399.0
25	17	1	43	208	29.0	-221149.0	-677.0	4012.0
25	17	1	43	208	30.0	-222405.0	-675.0	4002.0
25	17	1	43	209	31.0	-223504.0	-684.0	3623.0
25	17	1	43	210	32.0	-224541.0	-689.0	3775.0
25	17	1	43	210	33.0	-225611.0	-697.0	4078.0
25	17	1	43	211	34.0	-226325.0	-689.0	3969.0
25	17	1	43	211	35.0	-226974.0	-663.0	4032.0
25	17	1	43	212	36.0	-227740.0	-645.0	4833.0
25	17	1	43	241	37.0	-228671.0	-626.0	4911.0
25	17	1	43	242	38.0	-229009.0	-591.0	4700.0
25	17	1	43	242	39.0	-228530.0	-580.0	4580.0
25	17	1	43	243	40.0	-227481.0	-585.0	4699.0
25	17	1	43	244	41.0	-225791.0	-582.0	4371.0
25	17	1	43	245	42.0	-223406.0	-579.0	4381.0
25	17	1	43	245	43.0	-220569.0	-590.0	3971.0
25	17	1	43	246	44.0	-217644.0	-597.0	3594.0
25	17	1	43	247	45.0	-214689.0	-605.0	3897.0
25	17	1	43	247	46.0	-212022.0	-625.0	4535.0
25	17	1	43	248	47.0	-209606.0	-601.0	4707.0
25	17	1	43	249	48.0	-207672.0	-629.0	4301.0
25	17	1	43	333	49.0	-206101.0	-608.0	4246.0
25	17	1	43	377	50.0	-204466.0	-620.0	4344.0
25	17	1	43	377	52.0	-201001.0	-637.0	4447.0
25	17	1	43	378	53.0	-199441.0	-664.0	4656.0
25	17	1	43	379	54.0	-197959.0	-667.0	4726.0
25	17	1	43	380	55.0	-196294.0	-699.0	4774.0
25	17	1	43	381	56.0	-194227.0	-714.0	5116.0
25	17	1	43	381	57.0	-192069.0	-739.0	5194.0
25	17	1	43	382	58.0	-190269.0	-792.0	4916.0
25	17	1	43	383	59.0	-188777.0	-824.0	4615.0
25	17	1	43	383	60.0	-187519.0	-866.0	5016.0
25	17	1	43	385	61.0	-186799.0	-899.0	5169.0
25	17	1	43	386	62.0	-186391.0	-932.0	4986.0
25	17	1	43	387	63.0	-185957.0	-942.0	5238.0
25	17	1	43	387	64.0	-185548.0	-960.0	4987.0
25	17	1	43	393	97.0	-212159.0	-1281.0	4242.0
25	17	1	43	394	119.0	-175482.0	-1086.0	4983.0
25	17	1	43	395	120.0	-175105.0	-1117.0	5731.0
25	17	1	43	396	121.0	-175073.0	-1134.0	6653.0
25	17	1	43	396	122.0	-175490.0	-1151.0	6928.0
25	17	1	43	397	123.0	-176090.0	-1172.0	7668.0
25	17	1	43	397	124.0	-176962.0	-1188.0	8641.0
25	17	1	43	398	125.0	-178251.0	-1205.0	9127.0
25	17	1	43	421	126.0	-179847.0	-1244.0	9563.0
25	17	1	43	422	127.0	-181504.0	-1263.0	9224.0
25	17	1	43	422	128.0	-183168.0	-1250.0	8971.0
25	17	1	43	423	129.0	-184762.0	-1273.0	9750.0
25	17	1	43	423	130.0	-186407.0	-1325.0	10672.0
25	17	1	43	424	131.0	-188152.0	-1361.0	10953.0
25	17	1	43	425	132.0	-190239.0	-1387.0	10969.0
25	17	1	43	425	133.0	-193034.0	-1401.0	11336.0
25	17	1	43	426	134.0	-196218.0	-1414.0	11971.0
25	17	1	43	426	135.0	-199640.0	-1434.0	12383.0
25	17	1	43	427	136.0	-203081.0	-1468.0	12576.0
25	17	1	43	427	137.0	-206554.0	-1477.0	12643.0
25	17	1	43	428	138.0	-210031.0	-1504.0	12646.0
25	17	1	43	428	139.0	-213427.0	-1516.0	12428.0
25	17	1	43	429	140.0	-216625.0	-1549.0	12399.0
25	17	1	43	430	142.0	-222312.0	-1588.0	13320.0
25	17	1	43	430	143.0	-224224.0	-1588.0	13208.0
25	17	1	43	431	144.0	-226001.0	-1601.0	13141.0
25	17	1	43	431	145.0	-227407.0	-1601.0	13358.0
25	17	1	43	432	146.0	-228199.0	-1612.0	13614.0
25	17	1	43	432	147.0	-228236.0	-1638.0	13487.0
25	17	1	43	465	148.0	-227751.0	-1654.0	13478.0
25	17	1	43	466	149.0	-226591.0	-1667.0	13217.0
25	17	1	43	466	150.0	-225204.0	-1656.0	13052.0
25	17	1	43	467	151.0	-223747.0	-1668.0	13598.0
25	17	1	43	467	152.0	-222349.0	-1691.0	13835.0
25	17	1	43	468	153.0	-220521.0	-1712.0	13667.0
25	17	1	43	469	154.0	-218231.0	-1723.0	13414.0
25	17	1	43	469	155.0	-215506.0	-1743.0	13502.0
25	17	1	43	470	156.0	-212477.0	-1742.0	13552.0
25	17	1	43	470	157.0	-209523.0	-1762.0	13549.0
25	17	1	43	471	158.0	-206946.0	-1762.0	13823.0
25	17	1	43	471	159.0	-204436.0	-1747.0	13696.0
25	17	1	43	472	160.0	-202146.0	-1771.0	13527.0
25	17	1	43	472	161.0	-199762.0	-1791.0	13719.0
25	17	1	43	473	162.0	-197594.0	-1809.0	13853.0
25	17	1	43	474	164.0	-193226.0	-1831.0	13886.0
25	17	1	43	474	165.0	-190763.0	-1837.0	14253.0
25	17	1	43	475	166.0	-188381.0	-1846.0	14024.0
25	17	1	43	475	167.0	-186031.0	-1839.0	14235.0
25	17	1	43	476	168.0	-183728.0	-1827.0	14459.0
25	17	1	43	476	169.0	-181557.0	-1823.0	14023.0
25	17	1	43	477	170.0	-179420.0	-1815.0	13573.0
25	17	1	43	510	171.0	-177428.0	-1821.0	13855.0
25	17	1	43	511	172.0	-175769.0	-1827.0	14099.0
25	17	1	43	511	173.0	-174593.0	-1859.0	14111.0
25	17	1	43	512	174.0	-173862.0	-1859.0	14175.0
25	17	1	43	512	175.0	-173717.0	-1863.0	14878.0
25	17	1	43	513	176.0	-174229.0	-1872.0	15302.0
25	17	1	43	513	177.0	-175222.0	-1886.0	15477.0
25	17	1	43	514	178.0	-176904.0	-1922.0	15195.0
25	17	1	43	515	179.0	-179151.0	-1941.0	14664.0
25	17	1	43	515	180.0	-181487.0	-1976.0	14763.0
25	17	1	43	516	181.0	-184092.0	-2017.0	14838.0
25	17	1	43	516	182.0	-187036.0	-2041.0	14602.0
25	17	1	43	517	183.0	-189891.0	-2035.0	14552.0
25	17	1	43	518	184.0	-192456.0	-2045.0	14574.0
25	17	1	43	518	185.0	-195501.0	-2052.0	14906.0
25	17	1	43	519	187.0	-201441.0	-2079.0	15706.0
25	17	1	43	519	188.0	-204239.0	-2104.0	15617.0
25	17	1	43	520	189.0	-207116.0	-2122.0	15396.0
25	17	1	43	520	190.0	-209181.0	-2149.0	15593.0
25	17	1	43	521	191.0	-210875.0	-2161.0	15720.0
25	17	1	43	521	192.0	-212403.0	-2162.0	15904.0
25	17	1	43	556	193.0	-213924.0	-2176.0	15941.0
25	17	1	43	556	194.0	-215514.0	-2178.0	15874.0
25	17	1	43	557	195.0	-217011.0	-2181.0	16461.0
25	17	1	43	558	196.0	-218121.0	-2201.0	16429.0
25	17	1	43	558	197.0	-219007.0	-2208.0	16311.0
25	17	1	43	559	198.0	-219627.0	-2201.0	16056.0
25	17	1	43	559	199.0	-219516.0	-2213.0	16366.0
25	17	1	43	560	200.0	-218735.0	-2221.0	16373.0
25	17	1	43	560	201.0	-217729.0	-2228.0	15949.0
25	17	1	43	561	202.0	-216972.0	-2224.0	16131.0
25	17	1	43	562	203.0	-216212.0	-2224.0	16223.0
25	17	1	43	563	204.0	-215237.0	-2226.0	16005.0
25	17	1	43	563	205.0	-214086.0	-2237.0	16516.0
25	17	1	43	564	206.0	-212537.0	-2236.0	16436.0
25	17	1	43	564	207.0	-210807.0	-2231.0	16295.0
25	17	1	43	565	209.0	-207345.0	-2226.0	16091.0
25	17	1	43	566	210.0	-205132.0	-2234.0	15583.0
25	17	1	43	566	211.0	-202465.0	-2239.0	16148.0
25	17	1	43	567	212.0	-199784.0	-2256.0	16606.0
25	17	1	43	567	213.0	-197432.0	-2242.0	16258.0
25	17	1	43	568	214.0	-195247.0	-2249.0	16303.0
25	17	1	43	600	215.0	-193061.0	-2259.0	16519.0
25	17	1	43	601	216.0	-191130.0	-2256.0	16452.0
25	17	1	43	602	217.0	-189384.0	-2243.0	16299.0
25	17	1	43	602	218.0	-187827.0	-2255.0	16563.0
25	17	1	43	603	219.0	-186469.0	-2248.0	16568.0
25	17	1	43	619	220.0	-185349.0	-2228.0	16439.0
25	17	1	43	620	221.0	-184555.0	-2242.0	16079.0
25	17	1	43	621	222.0	-183822.0	-2253.0	15925.0
25	17	1	43	621	223.0	-183524.0	-2266.0	15314.0
25	17	1	43	622	224.0	-183527.0	-2271.0	15751.0
25	17	1	43	622	225.0	-183372.0	-2286.0	16164.0
25	17	1	43	623	226.0	-183155.0	-2277.0	16230.0
25	17	1	43	623	227.0	-182922.0	-2280.0	16296.0
25	17	1	43	624	228.0	-182923.0	-2282.0	16849.0
25	17	1	43	624	229.0	-183141.0	-2260.0	17169.0
25	17	1	43	625	231.0	-183837.0	-2226.0	18234.0
25	17	1	43	625	232.0	-184069.0	-2229.0	18876.0
25	17	1	43	626	233.0	-184474.0	-2206.0	18978.0
25	17	1	43	627	234.0	-185267.0	-2201.0	18972.0
25	17	1	43	627	235.0	-186324.0	-2201.0	19146.0
25	17	1	43	660	236.0	-187558.0	-2184.0	18915.0
25	17	1	43	675	237.0	-189551.0	-2166.0	18208.0
25	17	1	43	676	238.0	-191872.0	-2157.0	17342.0
25	17	1	43	676	239.0	-194501.0	-2148.0	16126.0
25	17	1	43	677	240.0	-197252.0	-2147.0	13804.0
25	17	1	43	677	241.0	-200381.0	-2167.0	10297.0
25	17	1	43	678	242.0	-203693.0	-2172.0	6814.0
25	17	1	43	679	243.0	-206842.0	-2168.0	3860.0
25	17	1	43	679	244.0	-209494.0	-2161.0	-597.0
25	17	1	43	680	245.0	-211482.0	-2173.0	-4439.0
25	17	1	43	680	246.0	-212863.0	-2178.0	-6477.0
25	17	1	43	682	247.0	-213162.0	-2197.0	-8309.0
25	17	1	43	682	248.0	-212613.0	-2179.0	-11131.0
25	17	1	43	683	249.0	-211551.0	-2187.0	-12990.0
25	17	1	43	683	250.0	-210057.0	-2212.0	-12229.0
25	17	1	43	684	251.0	-207775.0	-2219.0	-10148.0
25	17	1	43	685	13.0	-164050.0	-2176.0	20568.0
25	17	1	43	685	14.0	-166024.0	-2178.0	20491.0
25	17	1	43	686	15.0	-166669.0	-2172.0	20836.0
25	17	1	43	686	16.0	-167350.0	-2169.0	21131.0
25	17	1	43	694	17.0	-171169.0	-2181.0	21430.0
25	17	1	43	695	18.0	-180116.0	-2166.0	21849.0
25	17	1	43	696	19.0	-194545.0	-2152.0	22026.0
25	17	1	43	696	20.0	-215084.0	-2147.0	22663.0
25	17	1	43	718	21.0	-240337.0	-2157.0	23259.0
25	17	1	43	719	22.0	-263639.0	-2184.0	23188.0
25	17	1	43	719	23.0	-277343.0	-2194.0	22965.0
25	17	1	43	720	24.0	-278107.0	-2219.0	23031.0
25	17	1	43	721	25.0	-270469.0	-2229.0	23397.0
25	17	1	43	721	26.0	-259436.0	-2259.0	23711.0
25	17	1	43	722	27.0	-247681.0	-2307.0	24297.0
25	17	1	43	722	28.0	-237739.0	-2350.0	24836.0
25	17	1	43	723	29.0	-230932.0	-2366.0	24770.0
25	17	1	43	724	30.0	-225806.0	-2410.0	24815.0
25	17	1	43	724	31.0	-221114.0	-2428.0	24865.0
25	17	1	43	725	32.0	-217346.0	-2465.0	24769.0
25	17	1	43	725	33.0	-215468.0	-2485.0	24058.0
25	17	1	43	726	34.0	-215731.0	-2498.0	23893.0
25	17	1	43	726	35.0	-216950.0	-2549.0	23622.0
25	17	1	43	727	36.0	-217072.0	-2591.0	23524.0
25	17	1	43	741	37.0	-214812.0	-2614.0	23927.0
25	17	1	43	742	38.0	-210059.0	-2613.0	24278.0
25	17	1	43	742	39.0	-204142.0	-2626.0	24104.0
25	17	1	43	743	40.0	-198924.0	-2654.0	24479.0
25	17	1	43	743	41.0	-195555.0	-2676.0	24702.0
25	17	1	43	744	42.0	-193605.0	-2712.0	24458.0
25	17	1	43	744	43.0	-192105.0	-2736.0	24061.0
25	17	1	43	745	44.0	-190017.0	-2740.0	24026.0
25	17	1	43	765	45.0	-186882.0	-2762.0	24249.0
25	17	1	43	765	46.0	-183114.0	-2767.0	23969.0
25	17	1	43	766	47.0	-178799.0	-2785.0	24126.0
25	17	1	43	767	48.0	-174127.0	-2820.0	24303.0
25	17	1	43	767	49.0	-169667.0	-2844.0	24191.0
25	17	1	43	768	50.0	-166027.0	-2872.0	24285.0
25	17	1	43	769	51.0	-163877.0	-2917.0	24730.0
25	17	1	43	769	52.0	-162357.0	-2950.0	23889.0
25	17	1	43	770	53.0	-160847.0	-2989.0	23846.0
25	17	1	43	770	54.0	-160991.0	-3014.0	24512.0
25	17	1	43	771	55.0	-162169.0	-3061.0	24576.0
25	17	1	43	772	56.0	-164354.0	-3124.0	24504.0
25	17	1	43	772	57.0	-167842.0	-3154.0	24872.0
25	17	1	43	773	58.0	-171993.0	-3160.0	25006.0
25	17	1	43	773	59.0	-176411.0	-3176.0	25162.0
25	17	1	43	774	60.0	-180599.0	-3214.0	24809.0
25	17	1	43	775	61.0	-184245.0	-3252.0	25113.0
25	17	1	43	775	62.0	-187411.0	-3270.0	24718.0
25	17	1	43	787	63.0	-189989.0	-3300.0	24534.0
25	17	1	43	787	64.0	-191954.0	-3338.0	25273.0
25	17	1	43	811	65.0	-193292.0	-3384.0	25972.0
25	17	1	43	811	66.0	-193893.0	-3401.0	26124.0
25	17	1	43	812	67.0	-194402.0	-3406.0	26446.0
25	17	1	43	812	68.0	-195103.0	-3431.0	26831.0
25	17	1	43	813	69.0	-196228.0	-3468.0	26871.0
25	17	1	43	814	70.0	-197906.0	-3485.0	27322.0
25	17	1	43	814	71.0	-200012.0	-3494.0	27572.0
25	17	1	43	815	72.0	-202718.0	-3521.0	27414.0
25	17	1	43	815	73.0	-205466.0	-3546.0	27424.0
25	17	1	43	816	74.0	-207913.0	-3579.0	27333.0
25	17	1	43	816	75.0	-210278.0	-3623.0	27295.0
25	17	1	43	817	76.0	-212400.0	-3641.0	27052.0
25	17	1	43	817	77.0	-214706.0	-3663.0	26943.0
25	17	1	43	818	78.0	-217616.0	-3692.0	26913.0
25	17	1	43	819	79.0	-220747.0	-3709.0	27130.0
25	17	1	43	819	80.0	-223832.0	-3716.0	27233.0
25	17	1	43	834	81.0	-227006.0	-3739.0	27164.0
25	17	1	43	835	82.0	-229829.0	-3733.0	27074.0
25	17	1	43	835	83.0	-231849.0	-3744.0	26821.0
25	17	1	43	836	84.0	-232727.0	-3751.0	26712.0
25	17	1	43	837	85.0	-233134.0	-3751.0	26994.0
25	17	1	43	837	86.0	-233134.0	-3761.0	27381.0
25	17	1	43	838	87.0	-232741.0	-3762.0	27067.0
25	17	1	43	838	88.0	-232184.0	-3746.0	26983.0
25	17	1	43	839	89.0	-231364.0	-3751.0	27459.0
25	17	1	43	839	90.0	-230307.0	-3749.0	27523.0
25	17	1	43	840	91.0	-228764.0	-3736.0	27501.0
25	17	1	43	841	92.0	-226923.0	-3736.0	27467.0
25	17	1	43	841	93.0	-224768.0	-3715.0	26893.0
25	17	1	43	842	94.0	-222568.0	-3709.0	27063.0
25	17	1	43	842	95.0	-220380.0	-3719.0	27378.0
25	17	1	43	843	96.0	-218115.0	-3701.0	27403.0
25	17	1	43	858	97.0	-216070.0	-3674.0	27480.0
25	17	1	43	859	98.0	-214022.0	-3658.0	27678.0
25	17	1	43	859	99.0	-211836.0	-3632.0	27494.0
25	17	1	43	860	100.0	-209667.0	-3631.0	27374.0
25	17	1	43	860	101.0	-207535.0	-3616.0	27664.0
25	17	1	43	861	102.0	-205308.0	-3588.0	27847.0
25	17	1	43	861	103.0	-203165.0	-3579.0	27307.0
25	17	1	43	881	104.0	-201404.0	-3560.0	26716.0
25	17	1	43	882	105.0	-200156.0	-3548.0	26912.0
25	17	1	43	882	106.0	-198952.0	-3517.0	27034.0
25	17	1	43	883	107.0	-198099.0	-3495.0	26801.0
25	17	1	43	883	108.0	-197298.0	-3461.0	27143.0
25	17	1	43	884	109.0	-196137.0	-3442.0	27624.0
25	17	1	43	884	110.0	-194741.0	-3441.0	27274.0
25	17	1	43	885	111.0	-193502.0	-3416.0	26824.0
25	17	1	43	886	112.0	-192199.0	-3389.0	26834.0
25	17	1	43	886	113.0	-190823.0	-3371.0	26839.0
25	17	1	43	887	114.0	-189380.0	-3324.0	26706.0
25	17	1	43	887	115.0	-188164.0	-3331.0	26614.0
25	17	1	43	888	116.0	-187508.0	-3318.0	26409.0
25	17	1	43	889	117.0	-187336.0	-3296.0	26531.0
25	17	1	43	889	118.0	-187491.0	-3268.0	26717.0
25	17	1	43	904	119.0	-187387.0	-3241.0	26686.0
25	17	1	43	905	120.0	-187216.0	-3204.0	26417.0
25	17	1	43	905	121.0	-186768.0	-3137.0	26304.0
25	17	1	43	906	122.0	-185984.0	-3088.0	25833.0
25	17	1	43	906	123.0	-185141.0	-3069.0	25881.0
25	17	1	43	907	124.0	-184688.0	-3070.0	25703.0
25	17	1	43	908	125.0	-184638.0	-3031.0	25492.0
25	17	1	43	908	126.0	-184638.0	-2992.0	24958.0
25	17	1	43	909	127.0	-184770.0	-2921.0	24804.0
25	17	1	43	928	128.0	-185074.0	-2866.0	24826.0
25	17	1	43	928	129.0	-185787.0	-2835.0	24788.0
25	17	1	43	929	130.0	-187051.0	-2809.0	25047.0
25	17	1	43	929	131.0	-188314.0	-2759.0	24676.0
25	17	1	43	930	132.0	-189724.0	-2731.0	23876.0
25	17	1	43	931	133.0	-191495.0	-2700.0	23862.0
25	17	1	43	931	134.0	-193489.0	-2674.0	23893.0
25	17	1	43	932	135.0	-195333.0	-2630.0	23834.0
25	17	1	43	933	136.0	-197009.0	-2610.0	24103.0
25	17	1	43	933	137.0	-198511.0	-2619.0	24238.0
25	17	1	43	934	138.0	-199712.0	-2610.0	24063.0
25	17	1	43	934	139.0	-201002.0	-2590.0	23976.0
25	17	1	43	935	140.0	-202496.0	-2565.0	23748.0
25	17	1	43	935	141.0	-204185.0	-2529.0	23429.0
25	17	1	43	960	142.0	-205852.0	-2502.0	23403.0
25	17	1	43	961	143.0	-207271.0	-2467.0	23624.0
25	17	1	43	961	144.0	-208837.0	-2444.0	23449.0
25	17	1	43	962	145.0	-210537.0	-2419.0	23190.0
25	17	1	43	963	146.0	-212087.0	-2387.0	23569.0
25	17	1	43	964	147.0	-213296.0	-2377.0	23859.0
25	17	1	43	964	148.0	-213617.0	-2350.0	23269.0
25	17	1	43	965	149.0	-212716.0	-2331.0	22948.0
25	17	1	43	966	150.0	-209330.0	-2299.0	23174.0
25	17	1	43	966	151.0	-201976.0	-2283.0	23162.0
25	17	1	43	967	152.0	-192702.0	-2259.0	23434.0
25	17	1	43	968	153.0	-183291.0	-2219.0	23492.0
25	17	1	43	968	154.0	-177409.0	-2147.0	22575.0
25	17	1	43	969	155.0	-172248.0	-2106.0	22039.0
25	17	1	43	969	156.0	-169277.0	-2074.0	22224.0
25	17	1	43	970	157.0	-170517.0	-2036.0	22619.0
25	17	1	43	970	158.0	-176402.0	-1997.0	22469.0
25	17	1	43	971	159.0	-185531.0	-1926.0	22176.0
25	17	1	43	983	160.0	-194563.0	-1893.0	21875.0
25	17	1	43	984	161.0	-201662.0	-1860.0	21792.0
25	17	1	43	985	162.0	-205859.0	-1809.0	22030.0
25	17	1	44	6	163.0	-207526.0	-1786.0	21933.0
25	17	1	44	7	164.0	-207748.0	-1745.0	21384.0
25	17	1	44	8	165.0	-207190.0	-1708.0	21736.0
25	17	1	44	8	166.0	-206308.0	-1667.0	21906.0
25	17	1	44	9	167.0	-205470.0	-1629.0	22035.0
25	17	1	44	9	168.0	-204664.0	-1611.0	21770.0
25	17	1	44	10	169.0	-203651.0	-1565.0	21664.0
25	17	1	44	10	170.0	-202373.0	-1530.0	21101.0
25	17	1	44	11	171.0	-200839.0	-1496.0	20960.0
25	17	1	44	11	172.0	-199287.0	-1435.0	21208.0
25	17	1	44	12	173.0	-198342.0	-1416.0	21261.0
25	17	1	44	13	174.0	-197983.0	-1390.0	21009.0
25	17	1	44	13	175.0	-197877.0	-1361.0	20864.0
25	17	1	44	14	176.0	-197698.0	-1339.0	20858.0
25	17	1	44	14	177.0	-197042.0	-1320.0	20978.0
25	17	1	44	15	178.0	-196031.0	-1293.0	21189.0
25	17	1	44	29	179.0	-195162.0	-1251.0	21324.0
25	17	1	44	30	180.0	-194829.0	-1230.0	21108.0
25	17	1	44	31	181.0	-195066.0	-1204.0	20937.0
25	17	1	44	31	182.0	-195722.0	-1177.0	21149.0
25	17	1	44	32	183.0	-196537.0	-1149.0	20740.0
25	17	1	44	32	184.0	-197099.0	-1117.0	20110.0
25	17	1	44	33	185.0	-197615.0	-1108.0	20286.0
25	17	1	44	34	186.0	-198057.0	-1096.0	21134.0
25	17	1	44	34	187.0	-198356.0	-1071.0	21340.0
25	17	1	44	35	188.0	-198487.0	-1035.0	21293.0
25	17	1	44	36	189.0	-198345.0	-1012.0	21139.0
25	17	1	44	36	190.0	-197817.0	-989.0	20806.0
25	17	1	44	37	191.0	-197179.0	-971.0	20593.0
25	17	1	44	37	192.0	-196602.0	-971.0	20487.0
25	17	1	44	38	193.0	-196207.0	-976.0	20301.0
25	17	1	44	54	194.0	-195612.0	-978.0	19742.0
25	17	1	44	54	195.0	-194844.0	-981.0	20041.0
25	17	1	44	55	196.0	-194064.0	-993.0	20008.0
25	17	1	44	55	197.0	-193280.0	-983.0	19776.0
25	17	1	44	56	198.0	-192191.0	-963.0	19816.0
25	17	1	44	56	199.0	-190935.0	-955.0	20563.0
25	17	1	44	57	200.0	-189526.0	-954.0	20676.0
25	17	1	44	58	201.0	-188207.0	-946.0	20203.0
25	17	1	44	77	202.0	-187267.0	-937.0	20049.0
25	17	1	44	78	203.0	-186826.0	-920.0	19626.0
25	17	1	44	78	204.0	-186702.0	-913.0	19283.0
25	17	1	44	79	205.0	-186915.0	-914.0	19279.0
25	17	1	44	80	206.0	-187391.0	-921.0	19278.0
25	17	1	44	80	207.0	-187938.0	-904.0	19108.0
25	17	1	44	81	208.0	-188641.0	-939.0	19286.0
25	17	1	44	81	209.0	-189291.0	-930.0	19491.0
25	17	1	44	82	210.0	-190308.0	-937.0	19868.0
25	17	1	44	83	211.0	-191564.0	-978.0	19691.0
25	17	1	44	83	212.0	-193086.0	-1012.0	19134.0
25	17	1	44	100	213.0	-195057.0	-1024.0	18762.0
25	17	1	44	101	214.0	-197531.0	-1035.0	19231.0
25	17	1	44	101	215.0	-200644.0	-1027.0	19648.0
25	17	1	44	102	216.0	-203806.0	-1043.0	19589.0
25	17	1	44	102	217.0	-207025.0	-1034.0	19697.0
25	17	1	44	103	218.0	-210103.0	-1075.0	20038.0
25	17	1	44	104	219.0	-212780.0	-1073.0	20486.0
25	17	1	44	104	220.0	-214924.0	-1080.0	20341.0
25	17	1	44	105	221.0	-216713.0	-1095.0	19819.0
25	17	1	44	105	222.0	-218131.0	-1104.0	19408.0
25	17	1	44	106	223.0	-219370.0	-1117.0	18682.0
25	17	1	44	106	224.0	-220346.0	-1124.0	18732.0
25	17	1	44	107	225.0	-221329.0	-1124.0	18886.0
25	17	1	44	125	226.0	-222454.0	-1126.0	19688.0
25	17	1	44	126	227.0	-223915.0	-1127.0	20291.0
25	17	1	44	127	228.0	-225216.0	-1121.0	20418.0
25	17	1	44	127	229.0	-226132.0	-1154.0	20045.0
25	17	1	44	128	230.0	-226824.0	-1180.0	19757.0
25	17	1	44	129	231.0	-227451.0	-1181.0	19781.0
25	17	1	44	129	232.0	-227930.0	-1181.0	19484.0
25	17	1	44	130	233.0	-227709.0	-1174.0	19238.0
25	17	1	44	131	234.0	-227009.0	-1192.0	19601.0
25	17	1	44	131	235.0	-225907.0	-1217.0	19906.0
25	17	1	44	132	236.0	-224559.0	-1244.0	19803.0
25	17	1	44	132	237.0	-223198.0	-1272.0	19696.0
25	17	1	44	133	238.0	-222137.0	-1294.0	19791.0
25	17	1	44	148	239.0	-220811.0	-1309.0	19685.0
25	17	1	44	149	240.0	-218801.0	-1299.0	19404.0
25	17	1	44	149	241.0	-216782.0	-1309.0	19268.0
25	17	1	44	150	242.0	-214504.0	-1316.0	18629.0
25	17	1	44	151	243.0	-211854.0	-1314.0	18839.0
25	17	1	44	151	244.0	-209371.0	-1316.0	19250.0
25	17	1	44	152	245.0	-207376.0	-1328.0	18978.0
25	17	1	44	152	246.0	-205154.0	-1341.0	18791.0
25	17	1	44	172	247.0	-202843.0	-1342.0	18931.0
25	17	1	44	172	248.0	-200780.0	-1319.0	19036.0
25	17	1	44	173	249.0	-198691.0	-1301.0	19121.0
25	17	1	44	174	250.0	-196234.0	-1299.0	18782.0
25	17	1	44	174	251.0	-193936.0	-1322.0	18994.0
25	17	1	44	175	252.0	-191546.0	-1341.0	18867.0
25	17	1	44	175	253.0	-189077.0	-1336.0	17975.0
25	17	1	44	176	254.0	-186897.0	-1329.0	18131.0
25	17	1	44	177	255.0	-185250.0	-1332.0	18528.0
25	17	1	44	177	0.0	-183606.0	-1324.0	18539.0
25	17	1	44	178	1.0	-181868.0	-1301.0	18972.0
25	17	1	44	179	2.0	-180271.0	-1291.0	19347.0
25	17	1	44	179	3.0	-178602.0	-1278.0	19079.0
25	17	1	44	180	4.0	-177082.0	-1275.0	18992.0
25	17	1	44	180	5.0	-175547.0	-1282.0	18693.0
25	17	1	44	181	6.0	-173809.0	-1267.0	18311.0
25	17	1	44	182	7.0	-172352.0	-1256.0	18166.0
25	17	1	44	182	8.0	-171231.0	-1242.0	18339.0
25	17	1	44	195	9.0	-170729.0	-1236.0	18394.0
25	17	1	44	196	10.0	-170922.0	-1236.0	18719.0
25	17	1	44	218	11.0	-171648.0	-1231.0	19383.0
25	17	1	44	218	12.0	-172873.0	-1238.0	19573.0
25	17	1	44	219	13.0	-174686.0	-1222.0	18811.0
25	17	1	44	220	14.0	-176915.0	-1241.0	18299.0
25	17	1	44	220	15.0	-179470.0	-1238.0	18464.0
25	17	1	44	221	16.0	-182660.0	-1252.0	18712.0
25	17	1	44	221	17.0	-186095.0	-1264.0	18649.0
25	17	1	44	222	18.0	-189274.0	-1282.0	18773.0
25	17	1	44	223	19.0	-192299.0	-1301.0	18765.0
25	17	1	44	223	20.0	-195392.0	-1309.0	19168.0
25	17	1	44	224	21.0	-198254.0	-1311.0	19308.0
25	17	1	44	224	22.0	-201296.0	-1313.0	19419.0
25	17	1	44	225	23.0	-204432.0	-1331.0	19575.0
25	17	1	44	241	24.0	-207794.0	-1346.0	19568.0
25	17	1	44	242	25.0	-211309.0	-1362.0	19129.0
25	17	1	44	242	26.0	-214762.0	-1346.0	19156.0
25	17	1	44	243	27.0	-217917.0	-1331.0	19486.0
25	17	1	44	244	28.0	-221001.0	-1322.0	18966.0
25	17	1	44	244	29.0	-223809.0	-1334.0	18566.0
25	17	1	44	245	30.0	-225930.0	-1351.0	19216.0
25	17	1	44	245	31.0	-227384.0	-1369.0	19071.0
25	17	1	44	246	32.0	-228484.0	-1388.0	18694.0
25	17	1	44	246	33.0	-229206.0	-1366.0	18944.0
25	17	1	44	247	34.0	-229601.0	-1374.0	19053.0
25	17	1	44	248	35.0	-229656.0	-1406.0	18707.0
25	17	1	44	248	36.0	-229200.0	-1381.0	19080.0
25	17	1	44	249	37.0	-228308.0	-1362.0	19253.0
25	17	1	44	249	38.0	-226933.0	-1361.0	18956.0
25	17	1	44	250	39.0	-225250.0	-1367.0	18975.0
25	17	1	44	251	40.0	-223337.0	-1351.0	19278.0
25	17	1	44	251	41.0	-221417.0	-1348.0	19020.0
25	17	1	44	265	42.0	-219201.0	-1363.0	18808.0
25	17	1	44	265	43.0	-216420.0	-1365.0	18994.0
25	17	1	44	266	44.0	-213459.0	-1342.0	18893.0
25	17	1	44	266	45.0	-210752.0	-1336.0	18654.0
25	17	1	44	267	46.0	-208029.0	-1331.0	18347.0
25	17	1	44	268	47.0	-205402.0	-1351.0	18626.0
25	17	1	44	268	48.0	-202727.0	-1347.0	18929.0
25	17	1	44	269	49.0	-199899.0	-1351.0	19551.0
25	17	1	44	269	50.0	-197114.0	-1353.0	19820.0
25	17	1	44	289	51.0	-195092.0	-1363.0	19312.0
25	17	1	44	290	52.0	-193554.0	-1354.0	18662.0
25	17	1	44	291	53.0	-192461.0	-1359.0	18751.0
25	17	1	44	291	54.0	-191642.0	-1391.0	18799.0
25	17	1	44	292	55.0	-190675.0	-1389.0	18404.0
25	17	1	44	293	56.0	-189484.0	-1376.0	18307.0
25	17	1	44	293	57.0	-188069.0	-1400.0	18239.0
25	17	1	44	294	58.0	-186646.0	-1399.0	18449.0
25	17	1	44	312	59.0	-185171.0	-1409.0	18529.0
25	17	1	44	312	60.0	-183887.0	-1420.0	18359.0
25	17	1	44	313	61.0	-182729.0	-1426.0	18200.0
25	17	1	44	314	62.0	-181620.0	-1451.0	18140.0
25	17	1	44	314	63.0	-180877.0	-1466.0	18469.0
25	17	1	44	315	64.0	-180503.0	-1477.0	18451.0
25	17	1	44	316	65.0	-180709.0	-1466.0	18168.0
25	17	1	44	316	66.0	-181211.0	-1457.0	17584.0
25	17	1	44	317	67.0	-181713.0	-1482.0	17779.0
25	17	1	44	317	68.0	-182454.0	-1508.0	17932.0
25	17	1	44	318	69.0	-183942.0	-1545.0	18208.0
25	17	1	44	319	70.0	-185780.0	-1552.0	18469.0
25	17	1	44	319	71.0	-187761.0	-1561.0	18208.0
25	17	1	44	320	72.0	-190076.0	-1596.0	18362.0
25	17	1	44	320	73.0	-192312.0	-1596.0	18438.0
25	17	1	44	321	74.0	-194110.0	-1598.0	18208.0
25	17	1	44	321	75.0	-195620.0	-1605.0	18014.0
25	17	1	44	334	76.0	-196971.0	-1632.0	17603.0
25	17	1	44	335	77.0	-198024.0	-1673.0	17164.0
25	17	1	44	336	78.0	-198767.0	-1714.0	17562.0
25	17	1	44	336	79.0	-199168.0	-1718.0	18284.0
25	17	1	44	337	80.0	-199347.0	-1731.0	18128.0
25	17	1	44	338	81.0	-199291.0	-1741.0	18144.0
25	17	1	44	338	82.0	-199261.0	-1750.0	18256.0
25	17	1	44	339	83.0	-199052.0	-1750.0	17955.0
25	17	1	44	340	84.0	-198829.0	-1769.0	17406.0
25	17	1	44	341	85.0	-198710.0	-1798.0	17266.0
25	17	1	44	341	86.0	-198671.0	-1827.0	17158.0
25	17	1	44	342	87.0	-198884.0	-1824.0	17037.0
25	17	1	44	342	88.0	-199227.0	-1832.0	17269.0
25	17	1	44	343	89.0	-199644.0	-1841.0	17681.0
25	17	1	44	365	90.0	-200126.0	-1855.0	17588.0
25	17	1	44	366	91.0	-200531.0	-1857.0	17548.0
25	17	1	44	367	92.0	-200669.0	-1857.0	17961.0
25	17	1	44	368	93.0	-200559.0	-1874.0	17944.0
25	17	1	44	368	94.0	-200461.0	-1890.0	17928.0
25	17	1	44	369	95.0	-200239.0	-1906.0	18205.0
25	17	1	44	370	96.0	-200197.0	-1931.0	18275.0
25	17	1	44	370	97.0	-200434.0	-1952.0	17720.0
25	17	1	44	371	98.0	-200725.0	-1999.0	17694.0
25	17	1	44	372	99.0	-201032.0	-2026.0	17646.0
25	17	1	44	372	100.0	-201206.0	-2015.0	17733.0
25	17	1	44	373	101.0	-201281.0	-2043.0	17863.0
25	17	1	44	374	102.0	-201334.0	-2073.0	17629.0
25	17	1	44	374	103.0	-201642.0	-2064.0	17311.0
25	17	1	44	375	104.0	-201643.0	-2035.0	17356.0
25	17	1	44	383	105.0	-201246.0	-2022.0	17340.0
25	17	1	44	384	106.0	-200591.0	-2037.0	16768.0
25	17	1	44	385	107.0	-199714.0	-2052.0	17248.0
25	17	1	44	385	108.0	-198592.0	-2047.0	17269.0
25	17	1	44	407	109.0	-197566.0	-2031.0	17578.0
25	17	1	44	408	110.0	-196770.0	-2025.0	17958.0
25	17	1	44	409	111.0	-196338.0	-2028.0	18081.0
25	17	1	44	409	112.0	-196337.0	-2021.0	18107.0
25	17	1	44	410	113.0	-196862.0	-2015.0	17927.0
25	17	1	44	411	114.0	-197795.0	-2016.0	17731.0
25	17	1	44	411	115.0	-198881.0	-2021.0	17364.0
25	17	1	44	412	116.0	-200029.0	-2007.0	17428.0
25	17	1	44	413	117.0	-201100.0	-2007.0	17876.0
25	17	1	44	413	118.0	-202079.0	-1989.0	17704.0
25	17	1	44	414	119.0	-203266.0	-1982.0	17862.0
25	17	1	44	414	120.0	-204402.0	-1962.0	17758.0
25	17	1	44	415	121.0	-204962.0	-1943.0	18164.0
25	17	1	44	416	122.0	-205102.0	-1913.0	17996.0
25	17	1	44	416	123.0	-204768.0	-1899.0	17924.0
25	17	1	44	417	124.0	-204156.0	-1879.0	17808.0
25	17	1	44	431	125.0	-203389.0	-1870.0	17478.0
25	17	1	44	432	126.0	-202450.0	-1869.0	17414.0
25	17	1	44	432	127.0	-201338.0	-1872.0	17625.0
25	17	1	44	433	128.0	-200122.0	-1887.0	17806.0
25	17	1	44	454	129.0	-199067.0	-1876.0	17874.0
25	17	1	44	455	130.0	-198231.0	-1874.0	18197.0
25	17	1	44	456	131.0	-197875.0	-1894.0	18301.0
25	17	1	44	456	132.0	-197652.0	-1913.0	18192.0
25	17	1	44	457	133.0	-197209.0	-1904.0	18042.0
25	17	1	44	457	134.0	-196832.0	-1906.0	17798.0
25	17	1	44	458	135.0	-196642.0	-1926.0	17779.0
25	17	1	44	459	136.0	-196376.0	-1943.0	17570.0
25	17	1	44	459	137.0	-196169.0	-1957.0	17701.0
25	17	1	44	460	138.0	-196184.0	-1961.0	17628.0
25	17	1	44	460	139.0	-196327.0	-1971.0	17866.0
25	17	1	44	461	140.0	-196658.0	-1971.0	18346.0
25	17	1	44	462	141.0	-196947.0	-1971.0	18951.0
25	17	1	44	462	142.0	-197104.0	-1971.0	18934.0
25	17	1	44	463	143.0	-197191.0	-1982.0	18934.0
25	17	1	44	463	144.0	-197366.0	-1987.0	18854.0
25	17	1	44	464	145.0	-197451.0	-1999.0	18358.0
25	17	1	44	464	146.0	-197478.0	-2013.0	18048.0
25	17	1	44	478	147.0	-197667.0	-2019.0	17828.0
25	17	1	44	479	148.0	-197934.0	-2012.0	17796.0
25	17	1	44	501	149.0	-198272.0	-2004.0	17458.0
25	17	1	44	502	150.0	-198767.0	-1999.0	17506.0
25	17	1	44	502	151.0	-199222.0	-2020.0	17880.0
25	17	1	44	503	152.0	-199734.0	-2030.0	17601.0
25	17	1	44	503	153.0	-200077.0	-2030.0	17588.0
25	17	1	44	504	154.0	-200196.0	-2027.0	17678.0
25	17	1	44	505	155.0	-200289.0	-2010.0	17583.0
25	17	1	44	505	156.0	-200257.0	-2031.0	17463.0
25	17	1	44	506	157.0	-199914.0	-2044.0	17694.0
25	17	1	44	506	158.0	-199879.0	-2051.0	17479.0
25	17	1	44	507	159.0	-200043.0	-2054.0	17534.0
25	17	1	44	508	160.0	-200471.0	-2071.0	18124.0
25	17	1	44	508	161.0	-201424.0	-2053.0	18048.0
25	17	1	44	509	162.0	-202633.0	-2044.0	18023.0
25	17	1	44	509	163.0	-203871.0	-2036.0	17891.0
25	17	1	44	510	164.0	-204716.0	-2026.0	18011.0
25	17	1	44	523	165.0	-205484.0	-2040.0	18386.0
25	17	1	44	524	166.0	-206557.0	-2033.0	18696.0
25	17	1	44	525	167.0	-207694.0	-2015.0	18450.0
25	17	1	44	525	168.0	-208766.0	-2005.0	18174.0
25	17	1	44	526	169.0	-209489.0	-2017.0	17874.0
25	17	1	44	526	170.0	-210074.0	-2026.0	17838.0
25	17	1	44	527	171.0	-210479.0	-2027.0	18499.0
25	17	1	44	528	172.0	-210627.0	-2026.0	19344.0
25	17	1	44	528	173.0	-210689.0	-2017.0	19847.0
25	17	1	44	529	174.0	-210432.0	-2028.0	19915.0
25	17	1	44	530	175.0	-209902.0	-2033.0	20151.0
25	17	1	44	530	176.0	-208832.0	-2023.0	20253.0
25	17	1	44	531	177.0	-207516.0	-2009.0	20099.0
25	17	1	44	531	178.0	-206167.0	-2007.0	20469.0
25	17	1	44	532	179.0	-204976.0	-2017.0	21068.0
25	17	1	44	532	180.0	-204454.0	-2006.0	20472.0
25	17	1	44	533	181.0	-204137.0	-1991.0	19684.0
25	17	1	44	534	182.0	-204007.0	-1991.0	19239.0
25	17	1	44	534	183.0	-204111.0	-2008.0	17653.0
25	17	1	44	556	184.0	-204609.0	-2037.0	14515.0
25	17	1	44	556	185.0	-205506.0	-2057.0	10993.0
25	17	1	44	557	186.0	-206827.0	-2054.0	7184.0
25	17	1	44	558	187.0	-208210.0	-2053.0	2961.0
25	17	1	44	558	188.0	-209107.0	-2081.0	-1170.0
25	17	1	44	559	189.0	-209739.0	-2102.0	-3653.0
25	17	1	44	559	190.0	-209759.0	-2125.0	-5809.0
25	17	1	44	560	191.0	-208787.0	-2131.0	-8230.0
25	17	1	44	560	192.0	-206879.0	-2140.0	-11341.0
25	17	1	44	561	193.0	-204056.0	-2156.0	-13246.0
25	17	1	44	561	194.0	-200331.0	-2154.0	-12374.0
25	17	1	44	562	195.0	-196139.0	-2192.0	-9930.0
25	17	1	44	562	196.0	-191467.0	-2219.0	-7839.0
25	17	1	44	563	197.0	-186662.0	-2247.0	-4339.0
25	17	1	44	564	198.0	-182575.0	-2267.0	1466.0
25	17	1	44	564	199.0	-179577.0	-2313.0	7366.0
25	17	1	44	578	200.0	-178055.0	-2329.0	12337.0
25	17	1	44	601	201.0	-178186.0	-2330.0	14333.0
25	17	1	44	602	202.0	-179491.0	-2337.0	14197.0
25	17	1	44	602	203.0	-181657.0	-2371.0	13396.0
25	17	1	44	603	204.0	-184306.0	-2372.0	13103.0
25	17	1	44	604	205.0	-185539.0	-2386.0	12768.0
25	17	1	44	604	206.0	-181491.0	-2407.0	12591.0
25	17	1	44	605	207.0	-171502.0	-2401.0	12763.0
25	17	1	44	605	208.0	-159865.0	-2422.0	13474.0
25	17	1	44	606	209.0	-150322.0	-2420.0	14533.0
25	17	1	44	606	210.0	-146433.0	-2424.0	15365.0
25	17	1	44	607	211.0	-147806.0	-2427.0	15982.0
25	17	1	44	607	212.0	-152216.0	-2457.0	16156.0
25	17	1	44	608	213.0	-157059.0	-2489.0	16383.0
25	17	1	44	608	214.0	-161307.0	-2496.0	16379.0
25	17	1	44	609	215.0	-166381.0	-2475.0	16303.0
25	17	1	44	609	216.0	-175346.0	-2486.0	16396.0
25	17	1	44	610	217.0	-189703.0	-2516.0	16769.0
25	17	1	44	611	218.0	-209959.0	-2514.0	17167.0
25	17	1	44	611	219.0	-235593.0	-2503.0	17406.0
25	17	1	44	612	220.0	-262058.0	-2496.0	18115.0
25	17	1	44	624	221.0	-282597.0	-2504.0	18479.0
25	17	1	44	625	222.0	-293117.0	-2516.0	18451.0
25	17	1	44	626	223.0	-293694.0	-2528.0	18550.0
25	17	1	44	650	224.0	-288569.0	-2521.0	18400.0
25	17	1	44	650	225.0	-279835.0	-2529.0	17453.0
25	17	1	44	651	226.0	-267679.0	-2537.0	17184.0
25	17	1	44	651	227.0	-256220.0	-2529.0	17708.0
25	17	1	44	652	228.0	-247564.0	-2542.0	17748.0
25	17	1	44	653	229.0	-239806.0	-2544.0	17748.0
25	17	1	44	653	230.0	-233059.0	-2547.0	18042.0
25	17	1	44	654	231.0	-227787.0	-2578.0	17899.0
25	17	1	44	654	232.0	-223639.0	-2603.0	17643.0
25	17	1	44	655	233.0	-220677.0	-2626.0	17681.0
25	17	1	44	655	234.0	-218306.0	-2644.0	17714.0
25	17	1	44	656	235.0	-215628.0	-2680.0	17566.0
25	17	1	44	656	236.0	-211816.0	-2701.0	17705.0
25	17	1	44	657	237.0	-206655.0	-2716.0	17649.0
25	17	1	44	657	238.0	-199996.0	-2721.0	17880.0
25	17	1	44	658	239.0	-192347.0	-2702.0	17958.0
25	17	1	44	659	240.0	-183982.0	-2705.0	18068.0
25	17	1	44	659	241.0	-176252.0	-2728.0	17618.0
25	17	1	44	660	242.0	-170314.0	-2734.0	17308.0
25	17	1	44	673	243.0	-166099.0	-2757.0	17472.0
25	17	1	44	674	244.0	-162781.0	-2762.0	17713.0
25	17	1	44	674	245.0	-159681.0	-2751.0	17381.0
25	17	1	44	675	246.0	-156275.0	-2759.0	17028.0
25	17	1	44	676	247.0	-152094.0	-2776.0	17274.0
25	17	1	44	676	248.0	-147484.0	-2792.0	17402.0
25	17	1	44	677	249.0	-142946.0	-2803.0	17639.0
25	17	1	44	677	250.0	-139003.0	-2822.0	17910.0
25	17	1	44	697	251.0	-136226.0	-2826.0	17931.0
25	17	1	44	698	252.0	-135318.0	-2818.0	17921.0
25	17	1	44	698	253.0	-136380.0	-2820.0	17794.0
25	17	1	44	699	254.0	-139282.0	-2824.0	17712.0
25	17	1	44	700	255.0	-144476.0	-2842.0	17473.0
25	17	1	44	700	0.0	-151166.0	-2852.0	17673.0
25	17	1	44	701	1.0	-158619.0	-2863.0	17981.0
25	17	1	44	701	2.0	-166477.0	-2873.0	18202.0
25	17	1	44	702	3.0	-174516.0	-2884.0	18018.0
25	17	1	44	703	4.0	-182403.0	-2892.0	18358.0
25	17	1	44	703	5.0	-189595.0	-2898.0	18149.0
25	17	1	44	704	6.0	-196073.0	-2901.0	18102.0
25	17	1	44	704	7.0	-202391.0	-2911.0	17971.0
25	17	1	44	705	8.0	-207793.0	-2946.0	17578.0
25	17	1	44	705	9.0	-212045.0	-2949.0	17445.0
25	17	1	44	706	10.0	-215408.0	-2967.0	17381.0
25	17	1	44	706	11.0	-217669.0	-2969.0	17651.0
25	17	1	44	707	12.0	-219286.0	-2953.0	18294.0
25	17	1	44	707	13.0	-220572.0	-2950.0	18492.0
25	17	1	44	721	14.0	-221423.0	-2951.0	17813.0
25	17	1	44	721	15.0	-222094.0	-2952.0	17569.0
25	17	1	44	722	16.0	-222492.0	-2954.0	17440.0
25	17	1	44	722	17.0	-222786.0	-2991.0	17124.0
25	17	1	44	744	18.0	-222907.0	-2961.0	17289.0
25	17	1	44	745	19.0	-223196.0	-2911.0	17739.0
25	17	1	44	746	20.0	-223388.0	-2884.0	17336.0
25	17	1	44	746	21.0	-223322.0	-2872.0	17456.0
25	17	1	44	747	22.0	-223157.0	-2857.0	18002.0
25	17	1	44	747	23.0	-223162.0	-2842.0	17929.0
25	17	1	44	748	24.0	-223078.0	-2830.0	17499.0
25	17	1	44	748	25.0	-222707.0	-2841.0	17278.0
25	17	1	44	749	26.0	-221948.0	-2814.0	17179.0
25	17	1	44	750	27.0	-220893.0	-2792.0	17086.0
25	17	1	44	750	28.0	-219531.0	-2786.0	17136.0
25	17	1	44	751	29.0	-218066.0	-2758.0	17258.0
25	17	1	44	751	30.0	-216574.0	-2746.0	17288.0
25	17	1	44	752	31.0	-214995.0	-2749.0	17679.0
25	17	1	44	752	32.0	-212945.0	-2721.0	18254.0
25	17	1	44	768	33.0	-210411.0	-2694.0	18276.0
25	17	1	44	769	34.0	-207926.0	-2699.0	18052.0
25	17	1	44	770	35.0	-205500.0	-2702.0	17717.0
25	17	1	44	770	36.0	-203269.0	-2692.0	17437.0
25	17	1	44	771	37.0	-201366.0	-2680.0	17303.0
25	17	1	44	771	38.0	-199466.0	-2692.0	17446.0
25	17	1	44	772	39.0	-197372.0	-2686.0	17181.0
25	17	1	44	773	40.0	-195371.0	-2660.0	16864.0
25	17	1	44	773	41.0	-193971.0	-2626.0	17298.0
25	17	1	44	774	42.0	-193091.0	-2602.0	17891.0
25	17	1	44	774	43.0	-192411.0	-2584.0	17929.0
25	17	1	44	775	44.0	-192032.0	-2532.0	18091.0
25	17	1	44	775	45.0	-191878.0	-2510.0	18383.0
25	17	1	44	776	46.0	-191907.0	-2506.0	18314.0
25	17	1	44	776	47.0	-191727.0	-2511.0	17791.0
25	17	1	44	791	48.0	-191091.0	-2493.0	17376.0
25	17	1	44	792	49.0	-190649.0	-2466.0	17194.0
25	17	1	44	793	50.0	-190259.0	-2465.0	17254.0
25	17	1	44	793	51.0	-189641.0	-2455.0	17509.0
25	17	1	44	794	52.0	-188872.0	-2457.0	17663.0
25	17	1	44	794	53.0	-187916.0	-2464.0	17769.0
25	17	1	44	795	54.0	-187037.0	-2459.0	17881.0
25	17	1	44	795	55.0	-186402.0	-2453.0	18147.0
25	17	1	44	796	56.0	-185743.0	-2417.0	17933.0
25	17	1	44	815	57.0	-185436.0	-2384.0	17678.0
25	17	1	44	815	58.0	-185432.0	-2346.0	17340.0
25	17	1	44	816	59.0	-185578.0	-2351.0	17464.0
25	17	1	44	817	60.0	-185816.0	-2347.0	17513.0
25	17	1	44	817	61.0	-186541.0	-2346.0	17668.0
25	17	1	44	818	62.0	-187399.0	-2325.0	17893.0
25	17	1	44	818	63.0	-187918.0	-2299.0	18151.0
25	17	1	44	819	64.0	-188300.0	-2269.0	18277.0
25	17	1	44	820	65.0	-188457.0	-2254.0	17903.0
25	17	1	44	820	66.0	-188541.0	-2245.0	17866.0
25	17	1	44	821	67.0	-188899.0	-2227.0	18259.0
25	17	1	44	821	68.0	-189925.0	-2228.0	18505.0
25	17	1	44	838	69.0	-191093.0	-2202.0	18704.0
25	17	1	44	839	70.0	-192248.0	-2184.0	18389.0
25	17	1	44	839	71.0	-193226.0	-2172.0	18001.0
25	17	1	44	840	72.0	-194092.0	-2131.0	18291.0
25	17	1	44	840	73.0	-194894.0	-2089.0	18610.0
25	17	1	44	841	74.0	-195540.0	-2063.0	18543.0
25	17	1	44	842	75.0	-195823.0	-2021.0	18022.0
25	17	1	44	842	76.0	-196116.0	-1974.0	18211.0
25	17	1	44	861	77.0	-196771.0	-1939.0	18450.0
25	17	1	44	862	78.0	-197466.0	-1919.0	18271.0
25	17	1	44	862	79.0	-198068.0	-1865.0	18261.0
25	17	1	44	863	80.0	-198555.0	-1822.0	18646.0
25	17	1	44	863	81.0	-199167.0	-1792.0	18913.0
25	17	1	44	864	82.0	-199914.0	-1775.0	19466.0
25	17	1	44	864	83.0	-201029.0	-1729.0	19566.0
25	17	1	44	865	84.0	-202389.0	-1681.0	19278.0
25	17	1	44	866	85.0	-203958.0	-1677.0	19353.0
25	17	1	44	866	86.0	-205522.0	-1630.0	19328.0
25	17	1	44	867	87.0	-207000.0	-1607.0	19178.0
25	17	1	44	867	88.0	-208271.0	-1557.0	18716.0
25	17	1	44	868	89.0	-209468.0	-1514.0	19100.0
25	17	1	44	868	90.0	-210983.0	-1485.0	19509.0
25	17	1	44	869	91.0	-212089.0	-1446.0	19553.0
25	17	1	44	869	92.0	-212068.0	-1421.0	19727.0
25	17	1	44	885	93.0	-210828.0	-1386.0	19815.0
25	17	1	44	886	94.0	-207178.0	-1346.0	19596.0
25	17	1	44	886	95.0	-200361.0	-1307.0	19841.0
25	17	1	44	887	96.0	-191574.0	-1271.0	19871.0
25	17	1	44	887	97.0	-180472.0	-1271.0	19646.0
25	17	1	44	888	98.0	-174336.0	-1257.0	19210.0
25	17	1	44	889	99.0	-170100.0	-1233.0	19049.0
25	17	1	44	889	100.0	-166740.0	-1194.0	19019.0
25	17	1	44	890	101.0	-167094.0	-1169.0	19300.0
25	17	1	44	890	102.0	-172246.0	-1141.0	19682.0
25	17	1	44	891	103.0	-181139.0	-1119.0	19995.0
25	17	1	44	892	104.0	-190922.0	-1112.0	19639.0
25	17	1	44	892	105.0	-198296.0	-1076.0	19683.0
25	17	1	44	893	106.0	-203128.0	-1072.0	19318.0
25	17	1	44	893	107.0	-205995.0	-1086.0	19205.0
25	17	1	44	894	108.0	-207238.0	-1066.0	19268.0
25	17	1	44	908	109.0	-207400.0	-1065.0	19041.0
25	17	1	44	932	110.0	-207071.0	-1054.0	18896.0
25	17	1	44	932	111.0	-207329.0	-1029.0	19085.0
25	17	1	44	933	112.0	-208074.0	-1025.0	19219.0
25	17	1	44	933	113.0	-208371.0	-1017.0	18995.0
25	17	1	44	934	114.0	-208139.0	-1013.0	19093.0
25	17	1	44	935	115.0	-207314.0	-992.0	19164.0
25	17	1	44	935	116.0	-206252.0	-951.0	19439.0
25	17	1	44	936	117.0	-204819.0	-943.0	20391.0
25	17	1	44	936	118.0	-202631.0	-964.0	20420.0
25	17	1	44	937	119.0	-200471.0	-957.0	19629.0
25	17	1	44	938	120.0	-199095.0	-949.0	19288.0
25	17	1	44	938	121.0	-198754.0	-937.0	19518.0
25	17	1	44	939	122.0	-199364.0	-928.0	19617.0
25	17	1	44	939	123.0	-200599.0	-901.0	19346.0
25	17	1	44	940	124.0	-202314.0	-875.0	19532.0
25	17	1	44	954	125.0	-204201.0	-859.0	19551.0
25	17	1	44	955	126.0	-205742.0	-860.0	19247.0
25	17	1	44	956	127.0	-206731.0	-872.0	19216.0
25	17	1	44	956	128.0	-206831.0	-871.0	19093.0
25	17	1	44	957	129.0	-206036.0	-872.0	18850.0
25	17	1	44	957	130.0	-204806.0	-885.0	19260.0
25	17	1	44	958	131.0	-202954.0	-878.0	19762.0
25	17	1	44	958	132.0	-200851.0	-886.0	19601.0
25	17	1	44	959	133.0	-198892.0	-894.0	19508.0
25	17	1	44	960	134.0	-197103.0	-878.0	19362.0
25	17	1	44	960	135.0	-195555.0	-859.0	19418.0
25	17	1	44	961	136.0	-194492.0	-846.0	19504.0
25	17	1	44	981	137.0	-193631.0	-867.0	19501.0
25	17	1	44	982	138.0	-192810.0	-891.0	19713.0
25	17	1	44	983	139.0	-191746.0	-892.0	19919.0
25	17	1	44	983	140.0	-190441.0	-893.0	20109.0
25	17	1	44	984	141.0	-188950.0	-882.0	19888.0
25	17	1	44	984	142.0	-187411.0	-906.0	19614.0
25	17	1	44	985	143.0	-186226.0	-906.0	19587.0
25	17	1	44	985	144.0	-185620.0	-912.0	19245.0
25	17	1	44	986	145.0	-185476.0	-902.0	19317.0
25	17	1	44	987	146.0	-185444.0	-890.0	19246.0
25	17	1	44	987	147.0	-185673.0	-899.0	19304.0
25	17	1	44	988	148.0	-185947.0	-907.0	19106.0
25	17	1	44	988	149.0	-186048.0	-930.0	19066.0
25	17	1	44	989	150.0	-186191.0	-954.0	19266.0
25	17	1	44	989	151.0	-186559.0	-952.0	19899.0
25	17	1	44	990	152.0	-187232.0	-975.0	20293.0
25	17	1	45	5	153.0	-188472.0	-1019.0	19856.0
25	17	1	45	6	154.0	-190324.0	-1016.0	19431.0
25	17	1	45	7	155.0	-192683.0	-1037.0	19374.0
25	17	1	45	7	156.0	-195404.0	-1065.0	19599.0
25	17	1	45	8	157.0	-198263.0	-1067.0	19569.0
25	17	1	45	8	158.0	-201511.0	-1069.0	19556.0
25	17	1	45	9	159.0	-204924.0	-1042.0	19648.0
25	17	1	45	9	160.0	-208050.0	-1039.0	19911.0
25	17	1	45	10	161.0	-211322.0	-1042.0	19922.0
25	17	1	45	11	162.0	-214627.0	-1034.0	19983.0
25	17	1	45	11	163.0	-217468.0	-1026.0	19872.0
25	17	1	45	12	164.0	-219816.0	-1037.0	19487.0
25	17	1	45	12	165.0	-222207.0	-1063.0	19491.0
25	17	1	45	13	166.0	-224627.0	-1097.0	19633.0
25	17	1	45	14	167.0	-226986.0	-1108.0	19668.0
25	17	1	45	28	168.0	-229207.0	-1146.0	20074.0
25	17	1	45	29	169.0	-231089.0	-1161.0	19803.0
25	17	1	45	30	170.0	-232844.0	-1157.0	19289.0
25	17	1	45	30	171.0	-234409.0	-1172.0	19463.0
25	17	1	45	31	172.0	-235442.0	-1191.0	19464.0
25	17	1	45	31	173.0	-236061.0	-1194.0	18973.0
25	17	1	45	32	174.0	-236212.0	-1209.0	18777.0
25	17	1	45	32	175.0	-235847.0	-1217.0	19365.0
25	17	1	45	52	176.0	-235104.0	-1192.0	19354.0
25	17	1	45	52	177.0	-234332.0	-1195.0	18866.0
25	17	1	45	53	178.0	-233377.0	-1201.0	18806.0
25	17	1	45	54	179.0	-232076.0	-1214.0	19049.0
25	17	1	45	54	180.0	-230268.0	-1226.0	19304.0
25	17	1	45	55	181.0	-227849.0	-1249.0	19098.0
25	17	1	45	55	182.0	-224829.0	-1274.0	19024.0
25	17	1	45	56	183.0	-221480.0	-1272.0	18794.0
25	17	1	45	57	184.0	-217818.0	-1241.0	18874.0
25	17	1	45	57	185.0	-213732.0	-1244.0	18775.0
25	17	1	45	58	186.0	-209326.0	-1277.0	18778.0
25	17	1	45	58	187.0	-204822.0	-1291.0	18614.0
25	17	1	45	59	188.0	-200490.0	-1277.0	18646.0
25	17	1	45	60	189.0	-196222.0	-1267.0	18689.0
25	17	1	45	60	190.0	-191823.0	-1266.0	18883.0
25	17	1	45	75	191.0	-187485.0	-1244.0	19070.0
25	17	1	45	76	192.0	-183170.0	-1202.0	18972.0
25	17	1	45	77	193.0	-178854.0	-1176.0	18844.0
25	17	1	45	77	194.0	-175152.0	-1156.0	19153.0
25	17	1	45	78	195.0	-172015.0	-1134.0	19157.0
25	17	1	45	78	196.0	-169368.0	-1120.0	19095.0
25	17	1	45	79	197.0	-166889.0	-1116.0	18953.0
25	17	1	45	99	198.0	-165091.0	-1089.0	18700.0
25	17	1	45	99	199.0	-163743.0	-1064.0	18891.0
25	17	1	45	100	200.0	-162983.0	-1021.0	19146.0
25	17	1	45	101	201.0	-162764.0	-1011.0	18727.0
25	17	1	45	101	202.0	-162697.0	-1026.0	18479.0
25	17	1	45	102	203.0	-162815.0	-1012.0	18761.0
25	17	1	45	102	204.0	-163225.0	-1001.0	18694.0
25	17	1	45	103	205.0	-163857.0	-1012.0	18273.0
25	17	1	45	104	206.0	-164851.0	-986.0	18100.0
25	17	1	45	104	207.0	-166022.0	-994.0	18167.0
25	17	1	45	105	208.0	-167447.0	-999.0	17896.0
25	17	1	45	105	209.0	-169235.0	-987.0	18016.0
25	17	1	45	106	210.0	-172175.0	-983.0	18528.0
25	17	1	45	106	211.0	-175729.0	-1004.0	19032.0
25	17	1	45	107	212.0	-179816.0	-1002.0	18818.0
25	17	1	45	121	213.0	-184471.0	-996.0	18940.0
25	17	1	45	122	214.0	-189619.0	-984.0	19443.0
25	17	1	45	123	215.0	-195051.0	-977.0	19124.0
25	17	1	45	123	216.0	-200640.0	-998.0	19086.0
25	17	1	45	124	217.0	-206151.0	-1002.0	19099.0
25	17	1	45	124	218.0	-211647.0	-995.0	19186.0
25	17	1	45	125	219.0	-217049.0	-998.0	19639.0
25	17	1	45	126	220.0	-222192.0	-979.0	19627.0
25	17	1	45	144	221.0	-227007.0	-946.0	18830.0
25	17	1	45	145	222.0	-231608.0	-947.0	18253.0
25	17	1	45	146	223.0	-235692.0	-958.0	18769.0
25	17	1	45	146	224.0	-239016.0	-961.0	18881.0
25	17	1	45	147	225.0	-241636.0	-971.0	18504.0
25	17	1	45	148	226.0	-243324.0	-978.0	19020.0
25	17	1	45	148	227.0	-244338.0	-977.0	19101.0
25	17	1	45	149	228.0	-244921.0	-974.0	18843.0
25	17	1	45	149	229.0	-245219.0	-957.0	19414.0
25	17	1	45	150	230.0	-245374.0	-959.0	19616.0
25	17	1	45	150	231.0	-245041.0	-949.0	19191.0
25	17	1	45	151	232.0	-244117.0	-973.0	19179.0
25	17	1	45	152	233.0	-242972.0	-981.0	19224.0
25	17	1	45	152	234.0	-241182.0	-994.0	19224.0
25	17	1	45	153	235.0	-238687.0	-996.0	18588.0
25	17	1	45	166	236.0	-235419.0	-976.0	18470.0
25	17	1	45	167	237.0	-231332.0	-954.0	18146.0
25	17	1	45	168	238.0	-226737.0	-936.0	18093.0
25	17	1	45	168	239.0	-221646.0	-937.0	18168.0
25	17	1	45	169	240.0	-216059.0	-922.0	18219.0
25	17	1	45	169	241.0	-210191.0	-941.0	18354.0
25	17	1	45	170	242.0	-204334.0	-939.0	18657.0
25	17	1	45	191	243.0	-198710.0	-922.0	19234.0
25	17	1	45	192	244.0	-193171.0	-920.0	19283.0
25	17	1	45	192	245.0	-187840.0	-894.0	19173.0
25	17	1	45	193	246.0	-182874.0	-883.0	19003.0
25	17	1	45	193	247.0	-178209.0	-888.0	19017.0
25	17	1	45	194	248.0	-174068.0	-877.0	19129.0
25	17	1	45	195	249.0	-170312.0	-864.0	19259.0
25	17	1	45	195	250.0	-167007.0	-857.0	19596.0
25	17	1	45	196	251.0	-164331.0	-841.0	19953.0
25	17	1	45	196	252.0	-161901.0	-822.0	19843.0
25	17	1	45	197	253.0	-160012.0	-814.0	19433.0
25	17	1	45	198	254.0	-158706.0	-815.0	19377.0
25	17	1	45	215	255.0	-158204.0	-808.0	19476.0
25	17	1	45	215	0.0	-158096.0	-809.0	19026.0
25	17	1	45	216	1.0	-158537.0	-826.0	18661.0
25	17	1	45	217	2.0	-159711.0	-811.0	19321.0
25	17	1	45	218	3.0	-161648.0	-814.0	19376.0
25	17	1	45	218	4.0	-164104.0	-807.0	19399.0
25	17	1	45	219	5.0	-166817.0	-805.0	19843.0
25	17	1	45	220	6.0	-169959.0	-797.0	19993.0
25	17	1	45	220	7.0	-173452.0	-784.0	19706.0
25	17	1	45	221	8.0	-177354.0	-789.0	20464.0
25	17	1	45	221	9.0	-181864.0	-802.0	20486.0
25	17	1	45	222	10.0	-186716.0	-793.0	19848.0
25	17	1	45	223	11.0	-191679.0	-783.0	19469.0
25	17	1	45	223	12.0	-197219.0	-750.0	19699.0
25	17	1	45	224	13.0	-203006.0	-735.0	19781.0
25	17	1	45	224	14.0	-208541.0	-746.0	19704.0
25	17	1	45	225	15.0	-213977.0	-741.0	19794.0
25	17	1	45	237	16.0	-219308.0	-780.0	19431.0
25	17	1	45	238	17.0	-223859.0	-783.0	19347.0
25	17	1	45	239	18.0	-227782.0	-798.0	19684.0
25	17	1	45	239	19.0	-231097.0	-810.0	19648.0
25	17	1	45	240	20.0	-233593.0	-824.0	19433.0
25	17	1	45	241	21.0	-234907.0	-839.0	19728.0
25	17	1	45	241	22.0	-235275.0	-834.0	20159.0
25	17	1	45	242	23.0	-234952.0	-830.0	20128.0
25	17	1	45	242	24.0	-233977.0	-821.0	20296.0
25	17	1	45	262	25.0	-232464.0	-812.0	20274.0
25	17	1	45	263	26.0	-230149.0	-802.0	20118.0
25	17	1	45	263	27.0	-227284.0	-794.0	20109.0
25	17	1	45	264	28.0	-224174.0	-792.0	20078.0
25	17	1	45	265	29.0	-221570.0	-797.0	19853.0
25	17	1	45	265	30.0	-219003.0	-798.0	19936.0
25	17	1	45	266	31.0	-216193.0	-791.0	19941.0
25	17	1	45	266	32.0	-212891.0	-781.0	19794.0
25	17	1	45	267	33.0	-209265.0	-762.0	19973.0
25	17	1	45	268	34.0	-205386.0	-744.0	19963.0
25	17	1	45	268	35.0	-201096.0	-744.0	19954.0
25	17	1	45	269	36.0	-196647.0	-759.0	20226.0
25	17	1	45	269	37.0	-192281.0	-777.0	20338.0
25	17	1	45	270	38.0	-187829.0	-781.0	20123.0
25	17	1	45	271	39.0	-183544.0	-796.0	19931.0
25	17	1	45	284	40.0	-179512.0	-781.0	19769.0
25	17	1	45	285	41.0	-175863.0	-756.0	19418.0
25	17	1	45	286	42.0	-172629.0	-772.0	19583.0
25	17	1	45	286	43.0	-169943.0	-752.0	19848.0
25	17	1	45	287	44.0	-167962.0	-765.0	19793.0
25	17	1	45	288	45.0	-166513.0	-771.0	19607.0
25	17	1	45	288	46.0	-165399.0	-764.0	19895.0
25	17	1	45	308	47.0	-164544.0	-744.0	19667.0
25	17	1	45	309	48.0	-163935.0	-701.0	19419.0
25	17	1	45	309	49.0	-164127.0	-706.0	19414.0
25	17	1	45	310	50.0	-165354.0	-706.0	19357.0
25	17	1	45	310	51.0	-167211.0	-706.0	18809.0
25	17	1	45	311	52.0	-169408.0	-715.0	19039.0
25	17	1	45	312	53.0	-171980.0	-722.0	19560.0
25	17	1	45	312	54.0	-175109.0	-714.0	19673.0
25	17	1	45	313	55.0	-178492.0	-696.0	19636.0
25	17	1	45	314	56.0	-181854.0	-689.0	20412.0
25	17	1	45	314	57.0	-184941.0	-701.0	20802.0
25	17	1	45	315	58.0	-187949.0	-717.0	19745.0
25	17	1	45	315	59.0	-190895.0	-696.0	18938.0
25	17	1	45	316	60.0	-193699.0	-687.0	18551.0
25	17	1	45	317	61.0	-196624.0	-671.0	18303.0
25	17	1	45	330	62.0	-199803.0	-656.0	18499.0
25	17	1	45	331	63.0	-203248.0	-661.0	18635.0
25	17	1	45	332	64.0	-206819.0	-659.0	18376.0
25	17	1	45	332	65.0	-210347.0	-656.0	18504.0
25	17	1	45	333	66.0	-213698.0	-634.0	18709.0
25	17	1	45	333	67.0	-216490.0	-625.0	18669.0
25	17	1	45	334	68.0	-219109.0	-623.0	18328.0
25	17	1	45	354	69.0	-221802.0	-629.0	17964.0
25	17	1	45	355	70.0	-224112.0	-618.0	17825.0
25	17	1	45	355	71.0	-225666.0	-616.0	17811.0
25	17	1	45	356	72.0	-226574.0	-597.0	18390.0
25	17	1	45	357	73.0	-227019.0	-612.0	18631.0
25	17	1	45	358	74.0	-226964.0	-617.0	18581.0
25	17	1	45	358	75.0	-226321.0	-616.0	18968.0
25	17	1	45	359	76.0	-225004.0	-627.0	18816.0
25	17	1	45	359	77.0	-222826.0	-634.0	18518.0
25	17	1	45	360	78.0	-220066.0	-636.0	17994.0
25	17	1	45	361	79.0	-216631.0	-624.0	17451.0
25	17	1	45	361	80.0	-212907.0	-609.0	17150.0
25	17	1	45	362	81.0	-209293.0	-634.0	17211.0
25	17	1	45	362	82.0	-206037.0	-634.0	17462.0
25	17	1	45	363	83.0	-203148.0	-649.0	17548.0
25	17	1	45	364	84.0	-200511.0	-671.0	17318.0
25	17	1	45	364	85.0	-198167.0	-660.0	17476.0
25	17	1	45	378	86.0	-196238.0	-661.0	17653.0
25	17	1	45	378	87.0	-194551.0	-672.0	17456.0
25	17	1	45	379	88.0	-192999.0	-676.0	17158.0
25	17	1	45	380	89.0	-191423.0	-709.0	17155.0
25	17	1	45	380	90.0	-190015.0	-741.0	17274.0
25	17	1	45	401	91.0	-188820.0	-791.0	17291.0
25	17	1	45	402	92.0	-187692.0	-820.0	17543.0
25	17	1	45	402	93.0	-186753.0	-859.0	17798.0
25	17	1	45	403	94.0	-186025.0	-895.0	17853.0
25	17	1	45	404	95.0	-185461.0	-911.0	17718.0
25	17	1	45	404	96.0	-185234.0	-933.0	17554.0
25	17	1	45	405	97.0	-185326.0	-953.0	17413.0
25	17	1	45	405	98.0	-185521.0	-979.0	17193.0
25	17	1	45	406	99.0	-185990.0	-987.0	17064.0
25	17	1	45	407	100.0	-187066.0	-991.0	17411.0
25	17	1	45	407	101.0	-188396.0	-1031.0	18269.0
25	17	1	45	408	102.0	-189089.0	-1035.0	17937.0
25	17	1	45	408	103.0	-189427.0	-1057.0	17749.0
25	17	1	45	409	104.0	-189874.0	-1079.0	17974.0
25	17	1	45	409	105.0	-190749.0	-1089.0	18054.0
25	17	1	45	410	106.0	-191882.0	-1099.0	18016.0
25	17	1	45	424	107.0	-193431.0	-1097.0	18263.0
25	17	1	45	425	108.0	-195393.0	-1085.0	18153.0
25	17	1	45	426	109.0	-197644.0	-1089.0	17733.0
25	17	1	45	426	110.0	-199801.0	-1124.0	17774.0
25	17	1	45	427	111.0	-201706.0	-1121.0	18033.0
25	17	1	45	427	112.0	-203218.0	-1128.0	18109.0
25	17	1	45	428	113.0	-204554.0	-1153.0	18411.0
25	17	1	45	447	114.0	-205723.0	-1147.0	18321.0
25	17	1	45	448	115.0	-206589.0	-1134.0	17983.0
25	17	1	45	449	116.0	-207466.0	-1147.0	18112.0
25	17	1	45	449	117.0	-208382.0	-1184.0	18276.0
25	17	1	45	450	118.0	-208989.0	-1191.0	17884.0
25	17	1	45	450	119.0	-209322.0	-1182.0	17393.0
25	17	1	45	451	120.0	-209447.0	-1192.0	17427.0
25	17	1	45	452	121.0	-209576.0	-1203.0	17682.0
25	17	1	45	452	122.0	-209932.0	-1188.0	17881.0
25	17	1	45	453	123.0	-210386.0	-1184.0	18184.0
25	17	1	45	453	124.0	-210995.0	-1182.0	18414.0
25	17	1	45	454	125.0	-211768.0	-1183.0	18492.0
25	17	1	45	455	126.0	-212341.0	-1181.0	18728.0
25	17	1	45	455	127.0	-212628.0	-1202.0	18331.0
25	17	1	45	456	128.0	-212736.0	-1213.0	18015.0
25	17	1	45	470	129.0	-212704.0	-1199.0	18233.0
25	17	1	45	471	130.0	-212546.0	-1216.0	18768.0
25	17	1	45	471	131.0	-212106.0	-1209.0	19185.0
25	17	1	45	472	132.0	-211511.0	-1209.0	19605.0
25	17	1	45	472	133.0	-210594.0	-1234.0	20358.0
25	17	1	45	473	134.0	-209429.0	-1242.0	20384.0
25	17	1	45	474	135.0	-208316.0	-1264.0	20161.0
25	17	1	45	474	136.0	-207074.0	-1293.0	20325.0
25	17	1	45	475	137.0	-205484.0	-1313.0	20713.0
25	17	1	45	476	138.0	-203869.0	-1320.0	19978.0
25	17	1	45	476	139.0	-202571.0	-1334.0	19272.0
25	17	1	45	477	140.0	-201930.0	-1342.0	18546.0
25	17	1	45	478	141.0	-201924.0	-1374.0	17131.0
25	17	1	45	478	142.0	-202244.0	-1369.0	13959.0
25	17	1	45	479	143.0	-202794.0	-1384.0	10686.0
25	17	1	45	493	144.0	-203520.0	-1401.0	6834.0
25	17	1	45	494	145.0	-204338.0	-1411.0	2688.0
25	17	1	45	495	146.0	-205187.0	-1424.0	-1664.0
25	17	1	45	495	147.0	-205494.0	-1449.0	-4711.0
25	17	1	45	496	148.0	-205180.0	-1465.0	-6715.0
25	17	1	45	496	149.0	-204087.0	-1472.0	-9687.0
25	17	1	45	497	150.0	-202184.0	-1478.0	-13044.0
25	17	1	45	498	151.0	-199614.0	-1487.0	-13976.0
25	17	1	45	517	152.0	-196526.0	-1507.0	-12196.0
25	17	1	45	518	153.0	-192886.0	-1512.0	-10163.0
25	17	1	45	518	154.0	-189025.0	-1512.0	-8457.0
25	17	1	45	519	155.0	-185602.0	-1538.0	-4574.0
25	17	1	45	520	156.0	-182856.0	-1573.0	1196.0
25	17	1	45	520	157.0	-181214.0	-1609.0	6494.0
25	17	1	45	521	158.0	-180847.0	-1647.0	11211.0
25	17	1	45	522	159.0	-181469.0	-1669.0	12996.0
25	17	1	45	522	160.0	-183161.0	-1687.0	12858.0
25	17	1	45	523	161.0	-185323.0	-1722.0	12381.0
25	17	1	45	524	162.0	-187439.0	-1763.0	12473.0
25	17	1	45	524	163.0	-188098.0	-1797.0	12371.0
25	17	1	45	525	164.0	-184174.0	-1827.0	12506.0
25	17	1	45	525	165.0	-174306.0	-1863.0	12799.0
25	17	1	45	526	166.0	-161686.0	-1882.0	13003.0
25	17	1	45	540	167.0	-150041.0	-1894.0	13602.0
25	17	1	45	540	168.0	-143640.0	-1906.0	14139.0
25	17	1	45	541	169.0	-142826.0	-1935.0	14273.0
25	17	1	45	541	170.0	-145699.0	-1959.0	14336.0
25	17	1	45	542	171.0	-149399.0	-1981.0	15061.0
25	17	1	45	543	172.0	-152458.0	-2002.0	15597.0
25	17	1	45	543	173.0	-155759.0	-2027.0	16013.0
25	17	1	45	565	174.0	-162670.0	-2026.0	16273.0
25	17	1	45	566	175.0	-174707.0	-2047.0	16769.0
25	17	1	45	566	176.0	-192000.0	-2061.0	16464.0
25	17	1	45	567	177.0	-214802.0	-2072.0	16058.0
25	17	1	45	568	178.0	-239265.0	-2069.0	15766.0
25	17	1	45	569	179.0	-258784.0	-2072.0	15754.0
25	17	1	45	569	180.0	-269135.0	-2074.0	15826.0
25	17	1	45	570	181.0	-270675.0	-2082.0	16028.0
25	17	1	45	570	182.0	-266649.0	-2082.0	16599.0
25	17	1	45	571	183.0	-257761.0	-2087.0	17200.0
25	17	1	45	572	184.0	-245089.0	-2095.0	17176.0
25	17	1	45	573	185.0	-233391.0	-2106.0	17357.0
25	17	1	45	573	186.0	-224148.0	-2100.0	17054.0
25	17	1	45	574	187.0	-216339.0	-2084.0	16849.0
25	17	1	45	574	188.0	-210078.0	-2092.0	16747.0
25	17	1	45	575	189.0	-206211.0	-2083.0	16802.0
25	17	1	45	576	190.0	-204873.0	-2077.0	16791.0
25	17	1	45	576	191.0	-205427.0	-2078.0	16978.0
25	17	1	45	577	192.0	-206881.0	-2067.0	17338.0
25	17	1	45	592	193.0	-208469.0	-2065.0	17509.0
25	17	1	45	600	194.0	-209459.0	-2065.0	17159.0
25	17	1	45	603	195.0	-209257.0	-2053.0	17313.0
25	17	1	45	604	196.0	-207089.0	-2057.0	17511.0
25	17	1	45	604	197.0	-203631.0	-2062.0	17651.0
25	17	1	45	605	198.0	-199731.0	-2064.0	17547.0
25	17	1	45	606	199.0	-197020.0	-2056.0	17102.0
25	17	1	45	606	200.0	-196002.0	-2068.0	16578.0
25	17	1	45	607	201.0	-196134.0	-2090.0	16628.0
25	17	1	45	608	202.0	-196206.0	-2114.0	16974.0
25	17	1	45	608	203.0	-195395.0	-2122.0	17094.0
25	17	1	45	609	204.0	-193814.0	-2131.0	16696.0
25	17	1	45	609	205.0	-191221.0	-2142.0	17071.0
25	17	1	45	610	206.0	-188109.0	-2167.0	17595.0
25	17	1	45	611	207.0	-185051.0	-2189.0	17549.0
25	17	1	45	611	208.0	-181906.0	-2230.0	17185.0
25	17	1	45	612	209.0	-179303.0	-2274.0	17225.0
25	17	1	45	612	210.0	-177743.0	-2289.0	17444.0
25	17	1	45	625	211.0	-177572.0	-2306.0	17479.0
25	17	1	45	626	212.0	-179091.0	-2321.0	17209.0
25	17	1	45	626	213.0	-181897.0	-2336.0	17376.0
25	17	1	45	627	214.0	-185700.0	-2373.0	17244.0
25	17	1	45	628	215.0	-190024.0	-2418.0	17388.0
25	17	1	45	628	216.0	-194754.0	-2416.0	17256.0
25	17	1	45	629	217.0	-199169.0	-2416.0	17055.0
25	17	1	45	629	218.0	-202786.0	-2465.0	16861.0
25	17	1	45	643	219.0	-205646.0	-2496.0	16818.0
25	17	1	45	644	220.0	-208009.0	-2519.0	16689.0
25	17	1	45	645	221.0	-209636.0	-2556.0	16482.0
25	17	1	45	645	222.0	-210681.0	-2601.0	16656.0
25	17	1	45	646	223.0	-211404.0	-2619.0	16669.0
25	17	1	45	646	224.0	-211384.0	-2662.0	16744.0
25	17	1	45	647	225.0	-210887.0	-2696.0	16759.0
25	17	1	45	667	226.0	-209923.0	-2735.0	17011.0
25	17	1	45	667	227.0	-208644.0	-2756.0	17136.0
25	17	1	45	668	228.0	-207276.0	-2765.0	16951.0
25	17	1	45	668	229.0	-205761.0	-2772.0	16579.0
25	17	1	45	669	230.0	-204393.0	-2801.0	17108.0
25	17	1	45	670	231.0	-203203.0	-2826.0	16952.0
25	17	1	45	670	232.0	-202302.0	-2852.0	16783.0
25	17	1	45	671	233.0	-201844.0	-2886.0	16714.0
25	17	1	45	671	234.0	-202074.0	-2902.0	17158.0
25	17	1	45	672	235.0	-202884.0	-2919.0	17012.0
25	17	1	45	672	236.0	-203788.0	-2922.0	17072.0
25	17	1	45	699	237.0	-204746.0	-2949.0	17212.0
25	17	1	45	700	238.0	-205707.0	-2980.0	17619.0
25	17	1	45	701	239.0	-206540.0	-2999.0	17273.0
25	17	1	45	701	240.0	-207132.0	-3034.0	16759.0
25	17	1	45	702	241.0	-207659.0	-3039.0	16908.0
25	17	1	45	702	242.0	-208152.0	-3027.0	17020.0
25	17	1	45	703	243.0	-208467.0	-3041.0	17378.0
25	17	1	45	704	244.0	-209186.0	-3048.0	17493.0
25	17	1	45	704	245.0	-209918.0	-3066.0	17336.0
25	17	1	45	705	246.0	-209984.0	-3069.0	17351.0
25	17	1	45	705	247.0	-209462.0	-3070.0	17124.0
25	17	1	45	706	248.0	-208346.0	-3052.0	16956.0
25	17	1	45	706	249.0	-206992.0	-3051.0	17036.0
25	17	1	45	707	250.0	-205804.0	-3092.0	16982.0
25	17	1	45	708	251.0	-205177.0	-3090.0	16641.0
25	17	1	45	708	252.0	-204967.0	-3089.0	16363.0
25	17	1	45	709	255.0	-204427.0	-3023.0	16326.0
25	17	1	45	709	0.0	-203919.0	-3013.0	16188.0
25	17	1	45	710	1.0	-203046.0	-2995.0	16061.0
25	17	1	45	724	2.0	-201962.0	-2982.0	15771.0
25	17	1	45	725	3.0	-200399.0	-2945.0	15774.0
25	17	1	45	725	4.0	-198624.0	-2934.0	16019.0
25	17	1	45	726	5.0	-197010.0	-2907.0	16313.0
25	17	1	45	726	6.0	-195478.0	-2867.0	16680.0
25	17	1	45	744	7.0	-193942.0	-2834.0	16330.0
25	17	1	45	745	8.0	-192389.0	-2838.0	15838.0
25	17	1	45	745	9.0	-191187.0	-2819.0	16014.0
25	17	1	45	746	10.0	-190349.0	-2811.0	15996.0
25	17	1	45	746	11.0	-189248.0	-2788.0	15909.0
25	17	1	45	747	12.0	-188296.0	-2774.0	15724.0
25	17	1	45	748	13.0	-187249.0	-2770.0	15968.0
25	17	1	45	748	14.0	-186324.0	-2722.0	16428.0
25	17	1	45	749	15.0	-185294.0	-2662.0	16641.0
25	17	1	45	749	16.0	-184380.0	-2614.0	16757.0
25	17	1	45	750	17.0	-183674.0	-2558.0	16531.0
25	17	1	45	750	18.0	-183226.0	-2505.0	16183.0
25	17	1	45	751	19.0	-183204.0	-2437.0	16054.0
25	17	1	45	752	20.0	-183536.0	-2406.0	15781.0
25	17	1	45	752	21.0	-184088.0	-2368.0	15657.0
25	17	1	45	753	22.0	-184573.0	-2319.0	15486.0
25	17	1	45	775	23.0	-185210.0	-2239.0	15184.0
25	17	1	45	775	24.0	-185816.0	-2168.0	15354.0
25	17	1	45	776	25.0	-186017.0	-2112.0	15886.0
25	17	1	45	776	26.0	-186249.0	-2036.0	16411.0
25	17	1	45	777	27.0	-186668.0	-1994.0	16693.0
25	17	1	45	778	28.0	-187196.0	-1947.0	16704.0
25	17	1	45	778	29.0	-187618.0	-1908.0	15961.0
25	17	1	45	779	30.0	-188467.0	-1867.0	15553.0
25	17	1	45	779	31.0	-189707.0	-1814.0	15867.0
25	17	1	45	780	32.0	-190646.0	-1774.0	15967.0
25	17	1	45	780	33.0	-191582.0	-1714.0	15432.0
25	17	1	45	781	34.0	-192205.0	-1656.0	15666.0
25	17	1	45	782	35.0	-192567.0	-1590.0	16241.0
25	17	1	45	782	36.0	-192926.0	-1576.0	16633.0
25	17	1	45	783	37.0	-193761.0	-1543.0	16788.0
25	17	1	45	784	38.0	-194784.0	-1483.0	16719.0
25	17	1	45	784	39.0	-195654.0	-1466.0	16429.0
25	17	1	45	785	40.0	-196576.0	-1430.0	16714.0
25	17	1	45	792	41.0	-197488.0	-1369.0	16611.0
25	17	1	45	793	42.0	-198402.0	-1324.0	16385.0
25	17	1	45	793	43.0	-199197.0	-1271.0	16834.0
25	17	1	45	813	44.0	-199671.0	-1224.0	17404.0
25	17	1	45	814	45.0	-200234.0	-1181.0	17211.0
25	17	1	45	815	46.0	-200779.0	-1127.0	17241.0
25	17	1	45	815	47.0	-201399.0	-1106.0	17272.0
25	17	1	45	816	48.0	-201878.0	-1087.0	17053.0
25	17	1	45	816	49.0	-202076.0	-1060.0	16611.0
25	17	1	45	817	50.0	-202109.0	-1022.0	16243.0
25	17	1	45	817	51.0	-201452.0	-963.0	16538.0
25	17	1	45	818	52.0	-199117.0	-932.0	16378.0
25	17	1	45	819	53.0	-194271.0	-879.0	16494.0
25	17	1	45	819	54.0	-187246.0	-849.0	17061.0
25	17	1	45	820	55.0	-178575.0	-821.0	17132.0
25	17	1	45	820	56.0	-174214.0	-796.0	17109.0
25	17	1	45	821	57.0	-172531.0	-764.0	17089.0
25	17	1	45	822	58.0	-172034.0	-729.0	17028.0
25	17	1	45	836	59.0	-175156.0	-727.0	16828.0
25	17	1	45	836	60.0	-183067.0	-694.0	17239.0
25	17	1	45	837	61.0	-194934.0	-671.0	16909.0
25	17	1	45	837	62.0	-207496.0	-643.0	16659.0
25	17	1	45	838	63.0	-217140.0	-624.0	16769.0
25	17	1	45	839	64.0	-223204.0	-607.0	17142.0
25	17	1	45	839	65.0	-226354.0	-587.0	16922.0
25	17	1	45	840	66.0	-227764.0	-595.0	16944.0
25	17	1	45	840	67.0	-227948.0	-582.0	16544.0
25	17	1	45	858	68.0	-227376.0	-590.0	16309.0
25	17	1	45	858	69.0	-226588.0	-596.0	15781.0
