25	16	55	48	690	148.0	-206116.0	2832.0	-237624.0
25	16	55	48	692	149.0	-207227.0	2823.0	-237244.0
25	16	55	48	694	150.0	-208267.0	2826.0	-237073.0
25	16	55	48	697	151.0	-209201.0	2828.0	-237201.0
25	16	55	48	699	152.0	-210267.0	2811.0	-237207.0
25	16	55	48	701	153.0	-211357.0	2819.0	-237229.0
25	16	55	48	703	154.0	-212569.0	2813.0	-237427.0
25	16	55	48	705	155.0	-213481.0	2817.0	-237853.0
25	16	55	48	707	156.0	-213727.0	2800.0	-237619.0
25	16	55	48	709	157.0	-213138.0	2769.0	-237646.0
25	16	55	48	710	158.0	-211609.0	2764.0	-237451.0
25	16	55	48	711	159.0	-209547.0	2765.0	-237422.0
25	16	55	48	712	160.0	-207088.0	2737.0	-237098.0
25	16	55	48	712	161.0	-204017.0	2700.0	-237207.0
25	16	55	48	713	162.0	-200181.0	2709.0	-237077.0
25	16	55	48	714	163.0	-195659.0	2707.0	-237103.0
25	16	55	48	724	164.0	-191030.0	2687.0	-237842.0
25	16	55	48	724	165.0	-186932.0	2657.0	-238178.0
25	16	55	48	725	166.0	-183657.0	2637.0	-238327.0
25	16	55	48	726	167.0	-181322.0	2626.0	-238362.0
25	16	55	48	726	168.0	-180041.0	2607.0	-237895.0
25	16	55	48	727	169.0	-179561.0	2588.0	-237299.0
25	16	55	48	776	170.0	-180118.0	2536.0	-237054.0
25	16	55	48	822	171.0	-181550.0	2494.0	-236974.0
25	16	55	48	822	172.0	-184210.0	2436.0	-236701.0
25	16	55	48	823	173.0	-187312.0	2393.0	-236126.0
25	16	55	48	824	174.0	-190029.0	2363.0	-236207.0
25	16	55	48	824	175.0	-192205.0	2299.0	-236651.0
25	16	55	48	825	176.0	-194057.0	2249.0	-236303.0
25	16	55	48	826	177.0	-195428.0	2215.0	-236143.0
25	16	55	48	826	178.0	-196231.0	2183.0	-235946.0
25	16	55	48	827	179.0	-196692.0	2149.0	-235377.0
25	16	55	48	828	180.0	-197307.0	2098.0	-235245.0
25	16	55	48	828	181.0	-198222.0	2034.0	-235401.0
25	16	55	48	829	182.0	-199321.0	1966.0	-235516.0
25	16	55	48	830	183.0	-200557.0	1881.0	-235422.0
25	16	55	48	831	184.0	-202100.0	1832.0	-235420.0
25	16	55	48	831	185.0	-203420.0	1813.0	-235242.0
25	16	55	48	832	219.0	-216562.0	766.0	-232028.0
25	16	55	48	833	220.0	-215476.0	744.0	-231643.0
25	16	55	48	834	221.0	-214248.0	724.0	-231713.0
25	16	55	48	834	222.0	-213409.0	704.0	-232261.0
25	16	55	48	835	223.0	-212951.0	673.0	-233252.0
25	16	55	48	835	224.0	-211991.0	635.0	-234812.0
25	16	55	48	836	225.0	-210566.0	610.0	-238218.0
25	16	55	48	868	226.0	-209034.0	603.0	-242680.0
25	16	55	48	868	227.0	-207122.0	600.0	-246492.0
25	16	55	48	869	228.0	-205234.0	564.0	-248622.0
25	16	55	48	870	229.0	-203644.0	529.0	-248636.0
25	16	55	48	870	230.0	-202540.0	508.0	-247002.0
25	16	55	48	871	231.0	-200779.0	490.0	-247117.0
25	16	55	48	872	232.0	-197927.0	503.0	-248017.0
25	16	55	48	872	233.0	-194452.0	480.0	-247184.0
25	16	55	48	873	234.0	-191298.0	486.0	-246131.0
25	16	55	48	873	235.0	-188899.0	478.0	-245167.0
25	16	55	48	874	236.0	-187446.0	465.0	-242776.0
25	16	55	48	875	237.0	-187452.0	446.0	-239079.0
25	16	55	48	875	238.0	-189411.0	411.0	-235629.0
25	16	55	48	876	239.0	-193180.0	356.0	-232631.0
25	16	55	48	877	240.0	-197996.0	328.0	-228902.0
25	16	55	48	877	242.0	-209144.0	291.0	-219111.0
25	16	55	48	878	243.0	-214135.0	266.0	-216752.0
25	16	55	48	878	244.0	-219396.0	219.0	-217895.0
25	16	55	48	879	245.0	-225489.0	211.0	-220472.0
25	16	55	48	880	246.0	-232164.0	189.0	-222419.0
25	16	55	48	880	247.0	-239391.0	157.0	-223836.0
25	16	55	48	911	248.0	-247521.0	148.0	-224302.0
25	16	55	48	929	249.0	-256506.0	145.0	-225378.0
25	16	55	48	930	250.0	-264261.0	97.0	-227559.0
25	16	55	48	930	251.0	-267796.0	29.0	-229251.0
25	16	55	48	931	252.0	-264381.0	6.0	-230441.0
25	16	55	48	932	253.0	-253974.0	-22.0	-231287.0
25	16	55	48	932	254.0	-238287.0	-55.0	-232098.0
25	16	55	48	933	255.0	-218047.0	-86.0	-232537.0
25	16	55	48	934	0.0	-195020.0	-109.0	-232736.0
25	16	55	48	934	1.0	-171101.0	-124.0	-232830.0
25	16	55	48	935	2.0	-148210.0	-161.0	-232699.0
25	16	55	48	935	3.0	-129926.0	-176.0	-232144.0
25	16	55	48	936	4.0	-119922.0	-214.0	-231942.0
25	16	55	48	937	5.0	-120453.0	-231.0	-232146.0
25	16	55	48	937	6.0	-132721.0	-254.0	-232399.0
25	16	55	48	938	8.0	-188286.0	-308.0	-232614.0
25	16	55	48	938	9.0	-219686.0	-327.0	-232799.0
25	16	55	48	939	10.0	-242316.0	-356.0	-232638.0
25	16	55	48	939	11.0	-251514.0	-385.0	-232911.0
25	16	55	48	940	12.0	-245022.0	-400.0	-232480.0
25	16	55	48	941	13.0	-224599.0	-442.0	-232587.0
25	16	55	48	941	14.0	-195637.0	-469.0	-232822.0
25	16	55	48	956	15.0	-164921.0	-469.0	-232428.0
25	16	55	48	957	16.0	-139381.0	-483.0	-232328.0
25	16	55	48	957	17.0	-123709.0	-502.0	-232533.0
25	16	55	48	958	18.0	-118863.0	-546.0	-232266.0
25	16	55	48	959	19.0	-122886.0	-580.0	-232277.0
25	16	55	48	959	20.0	-134187.0	-624.0	-232622.0
25	16	55	48	960	21.0	-150985.0	-671.0	-232706.0
25	16	55	48	960	22.0	-171012.0	-704.0	-232247.0
25	16	55	48	961	23.0	-192957.0	-716.0	-231841.0
25	16	55	48	962	24.0	-215615.0	-731.0	-231607.0
25	16	55	48	962	25.0	-237583.0	-762.0	-231561.0
25	16	55	48	963	26.0	-256854.0	-794.0	-231917.0
25	16	55	48	964	27.0	-271064.0	-828.0	-232099.0
25	16	55	48	964	28.0	-279402.0	-873.0	-231709.0
25	16	55	48	965	29.0	-280659.0	-893.0	-231835.0
25	16	55	48	966	31.0	-265497.0	-966.0	-231886.0
25	16	55	48	966	32.0	-250735.0	-991.0	-231256.0
25	16	55	48	967	33.0	-232967.0	-991.0	-231489.0
25	16	55	48	968	34.0	-213207.0	-1031.0	-231523.0
25	16	55	48	968	35.0	-191843.0	-1073.0	-231118.0
25	16	55	48	969	36.0	-170425.0	-1112.0	-231022.0
25	16	55	49	1	37.0	-150647.0	-1151.0	-231627.0
25	16	55	49	2	38.0	-133896.0	-1180.0	-231926.0
25	16	55	49	2	39.0	-121652.0	-1222.0	-232019.0
25	16	55	49	3	40.0	-113452.0	-1262.0	-232087.0
25	16	55	49	3	41.0	-107451.0	-1324.0	-232154.0
25	16	55	49	4	42.0	-104397.0	-1361.0	-231459.0
25	16	55	49	5	43.0	-104157.0	-1397.0	-231474.0
25	16	55	49	5	44.0	-106681.0	-1444.0	-231758.0
25	16	55	49	6	45.0	-112326.0	-1480.0	-231506.0
25	16	55	49	7	46.0	-120253.0	-1514.0	-231506.0
25	16	55	49	8	47.0	-131089.0	-1554.0	-232047.0
25	16	55	49	8	48.0	-143174.0	-1578.0	-232011.0
25	16	55	49	9	49.0	-157121.0	-1599.0	-231965.0
25	16	55	49	10	50.0	-171539.0	-1632.0	-232101.0
25	16	55	49	11	51.0	-186551.0	-1631.0	-231864.0
25	16	55	49	11	53.0	-213506.0	-1679.0	-231275.0
25	16	55	49	12	54.0	-225488.0	-1721.0	-230851.0
25	16	55	49	13	55.0	-236744.0	-1714.0	-231112.0
25	16	55	49	13	56.0	-247017.0	-1720.0	-231299.0
25	16	55	49	14	57.0	-256417.0	-1747.0	-231362.0
25	16	55	49	15	58.0	-263887.0	-1742.0	-231802.0
25	16	55	49	15	59.0	-269491.0	-1731.0	-231914.0
25	16	55	49	47	60.0	-272981.0	-1758.0	-231499.0
25	16	55	49	62	61.0	-273972.0	-1771.0	-231217.0
25	16	55	49	62	62.0	-272368.0	-1787.0	-231584.0
25	16	55	49	63	63.0	-268620.0	-1824.0	-231241.0
25	16	55	49	63	64.0	-263088.0	-1856.0	-231006.0
25	16	55	49	64	65.0	-256396.0	-1869.0	-231397.0
25	16	55	49	65	66.0	-248357.0	-1876.0	-232044.0
25	16	55	49	65	67.0	-239546.0	-1907.0	-231785.0
25	16	55	49	66	68.0	-230921.0	-1929.0	-231882.0
25	16	55	49	66	69.0	-221604.0	-1960.0	-232737.0
25	16	55	49	67	70.0	-213072.0	-1981.0	-233075.0
25	16	55	49	67	71.0	-205412.0	-2003.0	-232668.0
25	16	55	49	68	72.0	-198148.0	-2019.0	-232802.0
25	16	55	49	69	73.0	-191603.0	-2057.0	-232552.0
25	16	55	49	69	74.0	-186345.0	-2081.0	-232155.0
25	16	55	49	70	76.0	-180728.0	-2076.0	-232280.0
25	16	55	49	70	77.0	-180938.0	-2081.0	-232436.0
25	16	55	49	71	78.0	-182361.0	-2070.0	-233055.0
25	16	55	49	72	79.0	-184367.0	-2096.0	-233848.0
25	16	55	49	72	80.0	-186304.0	-2103.0	-233957.0
25	16	55	49	73	81.0	-188095.0	-2108.0	-233757.0
25	16	55	49	98	82.0	-189294.0	-2109.0	-234082.0
25	16	55	49	99	83.0	-190601.0	-2097.0	-234203.0
25	16	55	49	99	84.0	-193217.0	-2099.0	-234281.0
25	16	55	49	100	85.0	-196026.0	-2093.0	-234180.0
25	16	55	49	101	86.0	-199004.0	-2097.0	-234539.0
25	16	55	49	102	87.0	-201886.0	-2121.0	-235082.0
25	16	55	49	102	88.0	-204067.0	-2103.0	-235031.0
25	16	55	49	103	89.0	-205512.0	-2079.0	-234967.0
25	16	55	49	104	90.0	-205995.0	-2062.0	-235165.0
25	16	55	49	104	91.0	-206182.0	-2041.0	-235412.0
25	16	55	49	105	92.0	-206569.0	-1999.0	-235020.0
25	16	55	49	105	93.0	-206934.0	-1939.0	-234905.0
25	16	55	49	106	94.0	-206542.0	-1899.0	-235289.0
25	16	55	49	106	95.0	-207324.0	-1835.0	-235151.0
25	16	55	49	107	96.0	-207167.0	-1799.0	-235243.0
25	16	55	49	108	98.0	-205757.0	-1678.0	-235152.0
25	16	55	49	108	99.0	-202557.0	-1620.0	-234941.0
25	16	55	49	109	100.0	-198862.0	-1578.0	-235155.0
25	16	55	49	109	101.0	-194892.0	-1542.0	-235006.0
25	16	55	49	110	102.0	-190037.0	-1456.0	-235103.0
25	16	55	49	110	103.0	-184258.0	-1394.0	-234411.0
25	16	55	49	138	104.0	-177976.0	-1337.0	-233994.0
25	16	55	49	138	105.0	-173029.0	-1268.0	-233724.0
25	16	55	49	139	106.0	-169720.0	-1226.0	-233561.0
25	16	55	49	140	107.0	-167349.0	-1184.0	-233451.0
25	16	55	49	140	108.0	-167678.0	-1144.0	-233448.0
25	16	55	49	141	109.0	-170332.0	-1109.0	-232692.0
25	16	55	49	141	110.0	-174197.0	-1066.0	-231977.0
25	16	55	49	142	111.0	-179673.0	-1026.0	-231497.0
25	16	55	49	143	112.0	-185456.0	-999.0	-230339.0
25	16	55	49	143	113.0	-190276.0	-936.0	-229379.0
25	16	55	49	144	114.0	-194253.0	-883.0	-228756.0
25	16	55	49	144	115.0	-197346.0	-839.0	-228045.0
25	16	55	49	145	116.0	-200123.0	-786.0	-227227.0
25	16	55	49	146	117.0	-203365.0	-747.0	-226739.0
25	16	55	49	146	118.0	-207312.0	-698.0	-226272.0
25	16	55	49	147	120.0	-215709.0	-617.0	-225034.0
25	16	55	49	147	121.0	-218933.0	-540.0	-223967.0
25	16	55	49	148	122.0	-221014.0	-460.0	-223362.0
25	16	55	49	148	123.0	-221434.0	-375.0	-222422.0
25	16	55	49	149	124.0	-220144.0	-294.0	-221577.0
25	16	55	49	150	125.0	-216827.0	-227.0	-220928.0
25	16	55	49	150	126.0	-212217.0	-167.0	-220789.0
25	16	55	49	181	127.0	-207100.0	-106.0	-220676.0
25	16	55	49	182	128.0	-201489.0	-11.0	-220089.0
25	16	55	49	183	129.0	-195678.0	76.0	-219459.0
25	16	55	49	194	130.0	-190140.0	152.0	-218965.0
25	16	55	49	195	131.0	-185688.0	229.0	-218011.0
25	16	55	49	195	132.0	-182693.0	323.0	-217525.0
25	16	55	49	196	133.0	-180536.0	402.0	-217406.0
25	16	55	49	196	134.0	-179114.0	461.0	-216997.0
25	16	55	49	197	135.0	-178484.0	533.0	-216335.0
25	16	55	49	198	136.0	-177897.0	631.0	-216224.0
25	16	55	49	198	137.0	-176600.0	686.0	-216551.0
25	16	55	49	199	138.0	-173354.0	736.0	-216310.0
25	16	55	49	199	139.0	-168207.0	786.0	-216529.0
25	16	55	49	200	140.0	-164604.0	866.0	-216417.0
25	16	55	49	200	141.0	-162337.0	917.0	-215794.0
25	16	55	49	201	143.0	-156886.0	1024.0	-215171.0
25	16	55	49	202	144.0	-153511.0	1093.0	-214762.0
25	16	55	49	202	145.0	-149718.0	1174.0	-214740.0
25	16	55	49	203	146.0	-148150.0	1248.0	-214972.0
25	16	55	49	203	147.0	-149438.0	1333.0	-215087.0
25	16	55	49	204	148.0	-158641.0	1363.0	-215006.0
25	16	55	49	227	149.0	-174762.0	1416.0	-215263.0
25	16	55	49	228	150.0	-195574.0	1469.0	-215202.0
25	16	55	49	228	151.0	-222800.0	1499.0	-215274.0
25	16	55	49	229	152.0	-253471.0	1541.0	-215386.0
25	16	55	49	229	153.0	-281165.0	1561.0	-215444.0
25	16	55	49	230	154.0	-303810.0	1580.0	-215022.0
25	16	55	49	231	155.0	-320004.0	1613.0	-215040.0
25	16	55	49	231	156.0	-327296.0	1630.0	-214872.0
25	16	55	49	232	157.0	-324172.0	1636.0	-214813.0
25	16	55	49	233	158.0	-311253.0	1663.0	-214942.0
25	16	55	49	233	159.0	-291441.0	1664.0	-215157.0
25	16	55	49	234	160.0	-269806.0	1673.0	-214654.0
25	16	55	49	235	161.0	-248484.0	1689.0	-214533.0
25	16	55	49	235	162.0	-227913.0	1687.0	-214460.0
25	16	55	49	236	163.0	-209481.0	1701.0	-214213.0
25	16	55	49	236	165.0	-178211.0	1778.0	-214130.0
25	16	55	49	237	166.0	-164289.0	1822.0	-214105.0
25	16	55	49	238	167.0	-151454.0	1837.0	-213713.0
25	16	55	49	238	168.0	-139155.0	1836.0	-214293.0
25	16	55	49	239	169.0	-127978.0	1840.0	-214589.0
25	16	55	49	239	170.0	-117662.0	1849.0	-214244.0
25	16	55	49	240	171.0	-109635.0	1878.0	-213759.0
25	16	55	49	272	172.0	-104167.0	1902.0	-213749.0
25	16	55	49	273	173.0	-102592.0	1928.0	-213351.0
25	16	55	49	273	174.0	-105454.0	1974.0	-212900.0
25	16	55	49	274	175.0	-111488.0	2006.0	-213011.0
25	16	55	49	274	176.0	-119980.0	2015.0	-213036.0
25	16	55	49	275	177.0	-130048.0	2039.0	-213093.0
25	16	55	49	276	178.0	-140692.0	2056.0	-213138.0
25	16	55	49	276	179.0	-151200.0	2052.0	-213195.0
25	16	55	49	277	180.0	-160571.0	2058.0	-212835.0
25	16	55	49	277	181.0	-169506.0	2074.0	-213067.0
25	16	55	49	278	182.0	-178129.0	2069.0	-212800.0
25	16	55	49	279	183.0	-185846.0	2089.0	-212347.0
25	16	55	49	279	184.0	-192396.0	2089.0	-212325.0
25	16	55	49	280	185.0	-197689.0	2085.0	-212006.0
25	16	55	49	280	186.0	-204794.0	2102.0	-212024.0
25	16	55	49	281	188.0	-225126.0	2114.0	-212153.0
25	16	55	49	282	189.0	-236288.0	2129.0	-211961.0
25	16	55	49	283	190.0	-246751.0	2156.0	-212225.0
25	16	55	49	284	191.0	-255608.0	2169.0	-212310.0
25	16	55	49	284	192.0	-261961.0	2167.0	-211792.0
25	16	55	49	285	193.0	-265691.0	2166.0	-211526.0
25	16	55	49	318	194.0	-267767.0	2173.0	-211065.0
25	16	55	49	318	195.0	-267277.0	2178.0	-210836.0
25	16	55	49	343	196.0	-264829.0	2167.0	-210949.0
25	16	55	49	344	197.0	-261436.0	2182.0	-211087.0
25	16	55	49	344	198.0	-256732.0	2175.0	-210747.0
25	16	55	49	345	199.0	-251564.0	2160.0	-210218.0
25	16	55	49	345	200.0	-245441.0	2133.0	-210711.0
25	16	55	49	346	201.0	-239219.0	2148.0	-210301.0
25	16	55	49	346	202.0	-233376.0	2136.0	-209507.0
25	16	55	49	347	203.0	-228049.0	2127.0	-209185.0
25	16	55	49	348	204.0	-224079.0	2116.0	-209342.0
25	16	55	49	348	205.0	-222017.0	2103.0	-209479.0
25	16	55	49	349	206.0	-220641.0	2096.0	-209197.0
25	16	55	49	349	207.0	-218762.0	2073.0	-209449.0
25	16	55	49	350	208.0	-215637.0	2061.0	-209507.0
25	16	55	49	350	210.0	-206997.0	2041.0	-209016.0
25	16	55	49	351	211.0	-203194.0	2023.0	-208807.0
25	16	55	49	352	212.0	-199313.0	1989.0	-208815.0
25	16	55	49	352	213.0	-193469.0	1973.0	-208481.0
25	16	55	49	353	214.0	-186461.0	1951.0	-208572.0
25	16	55	49	353	215.0	-179759.0	1908.0	-208728.0
25	16	55	49	354	216.0	-173042.0	1874.0	-208616.0
25	16	55	49	366	217.0	-167476.0	1856.0	-208345.0
25	16	55	49	367	218.0	-162831.0	1836.0	-208313.0
25	16	55	49	368	219.0	-158311.0	1843.0	-208675.0
25	16	55	49	368	220.0	-154236.0	1864.0	-208592.0
25	16	55	49	369	221.0	-150449.0	1868.0	-208066.0
25	16	55	49	370	222.0	-149542.0	1847.0	-207877.0
25	16	55	49	370	223.0	-148786.0	1852.0	-208101.0
25	16	55	49	371	224.0	-147594.0	1864.0	-207991.0
25	16	55	49	371	225.0	-148147.0	1889.0	-207902.0
25	16	55	49	372	226.0	-150499.0	1884.0	-208267.0
25	16	55	49	373	227.0	-155222.0	1884.0	-208645.0
25	16	55	49	373	228.0	-159829.0	1887.0	-208271.0
25	16	55	49	374	229.0	-164711.0	1879.0	-208402.0
25	16	55	49	374	230.0	-169173.0	1859.0	-208388.0
25	16	55	49	375	231.0	-173892.0	1862.0	-208347.0
25	16	55	49	375	233.0	-186072.0	1876.0	-207882.0
25	16	55	49	376	234.0	-191573.0	1880.0	-207496.0
25	16	55	49	377	235.0	-197053.0	1851.0	-207083.0
25	16	55	49	377	236.0	-202369.0	1831.0	-207747.0
25	16	55	49	378	237.0	-207460.0	1806.0	-207651.0
25	16	55	49	378	238.0	-211889.0	1779.0	-207584.0
25	16	55	49	407	239.0	-216084.0	1761.0	-207686.0
25	16	55	49	408	240.0	-216596.0	1760.0	-207184.0
25	16	55	49	409	241.0	-215222.0	1736.0	-206668.0
25	16	55	49	409	242.0	-215306.0	1710.0	-206266.0
25	16	55	49	410	243.0	-214762.0	1729.0	-206191.0
25	16	55	49	410	244.0	-213101.0	1726.0	-206449.0
25	16	55	49	411	245.0	-211988.0	1713.0	-206819.0
25	16	55	49	412	246.0	-213754.0	1731.0	-206685.0
25	16	55	49	412	247.0	-218653.0	1707.0	-206620.0
25	16	55	49	413	248.0	-224726.0	1693.0	-207112.0
25	16	55	49	414	249.0	-231592.0	1678.0	-206432.0
25	16	55	49	414	250.0	-237304.0	1657.0	-205716.0
25	16	55	49	415	251.0	-240464.0	1650.0	-205617.0
25	16	55	49	415	252.0	-240891.0	1631.0	-205623.0
25	16	55	49	416	253.0	-238935.0	1596.0	-205729.0
25	16	55	49	417	255.0	-228522.0	1541.0	-205708.0
25	16	55	49	417	0.0	-227258.0	1503.0	-205883.0
25	16	55	49	418	1.0	-224019.0	1462.0	-205961.0
25	16	55	49	418	2.0	-219506.0	1421.0	-206066.0
25	16	55	49	419	3.0	-214832.0	1388.0	-205688.0
25	16	55	49	419	4.0	-209198.0	1363.0	-205059.0
25	16	55	49	451	5.0	-201982.0	1354.0	-205307.0
25	16	55	49	452	6.0	-192537.0	1346.0	-205219.0
25	16	55	49	453	7.0	-187004.0	1328.0	-205215.0
25	16	55	49	453	8.0	-182593.0	1298.0	-205193.0
25	16	55	49	454	9.0	-176866.0	1269.0	-205443.0
25	16	55	49	454	10.0	-175378.0	1258.0	-205195.0
25	16	55	49	455	11.0	-175040.0	1250.0	-204994.0
25	16	55	49	456	12.0	-176636.0	1241.0	-205566.0
25	16	55	49	456	13.0	-178227.0	1264.0	-205687.0
25	16	55	49	457	14.0	-177347.0	1256.0	-205381.0
25	16	55	49	458	15.0	-176115.0	1254.0	-205382.0
25	16	55	49	458	16.0	-172602.0	1269.0	-205682.0
25	16	55	49	459	17.0	-170497.0	1271.0	-205482.0
25	16	55	49	459	18.0	-168626.0	1276.0	-205179.0
25	16	55	49	460	19.0	-165867.0	1283.0	-204814.0
25	16	55	49	461	21.0	-167145.0	1284.0	-205131.0
25	16	55	49	461	22.0	-169980.0	1274.0	-205101.0
25	16	55	49	462	23.0	-174511.0	1276.0	-205177.0
25	16	55	49	462	24.0	-178625.0	1293.0	-205180.0
25	16	55	49	463	25.0	-181349.0	1306.0	-205169.0
25	16	55	49	464	26.0	-181741.0	1309.0	-204751.0
25	16	55	49	464	27.0	-181158.0	1321.0	-204373.0
25	16	55	49	496	28.0	-180044.0	1356.0	-204717.0
25	16	55	49	497	29.0	-176623.0	1370.0	-204421.0
25	16	55	49	498	30.0	-172676.0	1377.0	-204806.0
25	16	55	49	499	31.0	-168733.0	1388.0	-205217.0
25	16	55	49	499	32.0	-166066.0	1384.0	-204686.0
25	16	55	49	500	33.0	-164882.0	1374.0	-204686.0
25	16	55	49	501	34.0	-164668.0	1369.0	-204760.0
25	16	55	49	501	35.0	-165372.0	1353.0	-204688.0
25	16	55	49	502	36.0	-167462.0	1361.0	-203960.0
25	16	55	49	503	37.0	-170864.0	1359.0	-203886.0
25	16	55	49	503	38.0	-174821.0	1338.0	-203929.0
25	16	55	49	504	39.0	-179084.0	1321.0	-203685.0
25	16	55	49	505	40.0	-183181.0	1319.0	-203856.0
25	16	55	49	505	41.0	-187046.0	1312.0	-203731.0
25	16	55	49	506	42.0	-190963.0	1295.0	-203401.0
25	16	55	49	506	44.0	-198376.0	1223.0	-203076.0
25	16	55	49	507	45.0	-202357.0	1186.0	-202747.0
25	16	55	49	508	46.0	-207102.0	1165.0	-202449.0
25	16	55	49	508	47.0	-212629.0	1154.0	-202369.0
25	16	55	49	509	48.0	-218744.0	1136.0	-202125.0
25	16	55	49	509	49.0	-225511.0	1111.0	-202079.0
25	16	55	49	542	50.0	-232602.0	1113.0	-202526.0
25	16	55	49	543	51.0	-240077.0	1088.0	-202456.0
25	16	55	49	543	52.0	-247190.0	1079.0	-202315.0
25	16	55	49	544	53.0	-253739.0	1049.0	-202603.0
25	16	55	49	545	54.0	-258833.0	1023.0	-202560.0
25	16	55	49	545	55.0	-262037.0	1011.0	-202577.0
25	16	55	49	546	56.0	-262469.0	1008.0	-202706.0
25	16	55	49	547	57.0	-259999.0	998.0	-202763.0
25	16	55	49	547	58.0	-255079.0	958.0	-202377.0
25	16	55	49	548	59.0	-248537.0	928.0	-202273.0
25	16	55	49	549	60.0	-240591.0	914.0	-202607.0
25	16	55	49	549	61.0	-231552.0	888.0	-202559.0
25	16	55	49	550	62.0	-222272.0	886.0	-202484.0
25	16	55	49	550	63.0	-213419.0	844.0	-203007.0
25	16	55	49	551	64.0	-204827.0	803.0	-202296.0
25	16	55	49	552	66.0	-191594.0	771.0	-202234.0
25	16	55	49	552	67.0	-189317.0	739.0	-201974.0
25	16	55	49	553	68.0	-188224.0	717.0	-201649.0
25	16	55	49	553	69.0	-188711.0	723.0	-201529.0
25	16	55	49	554	70.0	-189776.0	704.0	-201722.0
25	16	55	49	555	71.0	-193665.0	674.0	-201367.0
25	16	55	49	555	72.0	-197783.0	651.0	-201541.0
25	16	55	49	586	73.0	-200566.0	637.0	-201957.0
25	16	55	49	587	74.0	-202220.0	618.0	-202620.0
25	16	55	49	588	75.0	-203469.0	578.0	-203724.0
25	16	55	49	589	76.0	-204859.0	559.0	-206003.0
25	16	55	49	590	77.0	-204012.0	531.0	-209189.0
25	16	55	49	591	78.0	-201596.0	495.0	-213791.0
25	16	55	49	592	79.0	-197721.0	456.0	-218131.0
25	16	55	49	592	80.0	-191941.0	443.0	-221186.0
25	16	55	49	593	81.0	-187514.0	451.0	-220745.0
25	16	55	49	594	82.0	-185624.0	429.0	-220323.0
25	16	55	49	594	83.0	-184618.0	385.0	-222868.0
25	16	55	49	595	84.0	-184685.0	344.0	-223295.0
25	16	55	49	596	85.0	-185484.0	329.0	-221680.0
25	16	55	49	596	86.0	-186409.0	293.0	-220532.0
25	16	55	49	597	87.0	-189913.0	257.0	-218158.0
25	16	55	49	598	89.0	-197944.0	228.0	-210940.0
25	16	55	49	598	90.0	-201777.0	204.0	-208303.0
25	16	55	49	599	91.0	-205353.0	172.0	-204684.0
25	16	55	49	599	92.0	-208111.0	149.0	-199609.0
25	16	55	49	600	93.0	-210821.0	111.0	-193091.0
25	16	55	49	601	94.0	-214524.0	69.0	-189769.0
25	16	55	49	633	95.0	-219716.0	41.0	-190234.0
25	16	55	49	634	96.0	-227321.0	14.0	-191772.0
25	16	55	49	635	97.0	-236992.0	3.0	-193517.0
25	16	55	49	635	98.0	-248328.0	-22.0	-195257.0
25	16	55	49	636	99.0	-260660.0	-43.0	-195692.0
25	16	55	49	637	100.0	-272424.0	-69.0	-195580.0
25	16	55	49	638	101.0	-281759.0	-103.0	-196027.0
25	16	55	49	638	102.0	-286852.0	-126.0	-197504.0
25	16	55	49	639	103.0	-285945.0	-146.0	-199050.0
25	16	55	49	639	104.0	-277573.0	-194.0	-200165.0
25	16	55	49	640	105.0	-260747.0	-250.0	-201136.0
25	16	55	49	641	106.0	-237949.0	-291.0	-201672.0
25	16	55	49	641	107.0	-211666.0	-334.0	-202155.0
25	16	55	49	642	108.0	-184186.0	-389.0	-202451.0
25	16	55	49	643	109.0	-158471.0	-441.0	-202400.0
25	16	55	49	643	111.0	-119124.0	-575.0	-202837.0
25	16	55	49	644	112.0	-109062.0	-626.0	-203051.0
25	16	55	49	644	113.0	-107045.0	-644.0	-203104.0
25	16	55	49	645	114.0	-113517.0	-661.0	-202755.0
25	16	55	49	646	115.0	-127957.0	-700.0	-202502.0
25	16	55	49	646	116.0	-149286.0	-730.0	-202829.0
25	16	55	49	647	117.0	-173075.0	-754.0	-202907.0
25	16	55	49	677	118.0	-193822.0	-803.0	-203014.0
25	16	55	49	678	119.0	-207184.0	-826.0	-203089.0
25	16	55	49	679	120.0	-210377.0	-870.0	-203491.0
25	16	55	49	679	121.0	-204777.0	-905.0	-203741.0
25	16	55	49	680	122.0	-193827.0	-941.0	-203672.0
25	16	55	49	681	123.0	-181190.0	-992.0	-203316.0
25	16	55	49	681	124.0	-170167.0	-1062.0	-203878.0
25	16	55	49	682	125.0	-163157.0	-1120.0	-203892.0
25	16	55	49	683	126.0	-161362.0	-1172.0	-203279.0
25	16	55	49	683	127.0	-165037.0	-1188.0	-203399.0
25	16	55	49	684	128.0	-173833.0	-1237.0	-203754.0
25	16	55	49	685	129.0	-186572.0	-1292.0	-203920.0
25	16	55	49	686	130.0	-202515.0	-1335.0	-204314.0
25	16	55	49	686	131.0	-220247.0	-1402.0	-204858.0
25	16	55	49	687	132.0	-238059.0	-1467.0	-204941.0
25	16	55	49	687	134.0	-265451.0	-1559.0	-205160.0
25	16	55	49	688	135.0	-270962.0	-1612.0	-204619.0
25	16	55	49	689	136.0	-269847.0	-1648.0	-204378.0
25	16	55	49	690	137.0	-262874.0	-1674.0	-204575.0
25	16	55	49	690	138.0	-252976.0	-1699.0	-204730.0
25	16	55	49	691	139.0	-242336.0	-1741.0	-204770.0
25	16	55	49	722	140.0	-232542.0	-1781.0	-205198.0
25	16	55	49	723	141.0	-224747.0	-1811.0	-205604.0
25	16	55	49	724	142.0	-219356.0	-1854.0	-205813.0
25	16	55	49	724	143.0	-216209.0	-1887.0	-206155.0
25	16	55	49	725	144.0	-214718.0	-1924.0	-206390.0
25	16	55	49	726	145.0	-214308.0	-1937.0	-206382.0
25	16	55	49	727	146.0	-214624.0	-1977.0	-206304.0
25	16	55	49	727	147.0	-214647.0	-2006.0	-206305.0
25	16	55	49	728	148.0	-213146.0	-2051.0	-206317.0
25	16	55	49	729	149.0	-210116.0	-2086.0	-206522.0
25	16	55	49	729	150.0	-205649.0	-2133.0	-206696.0
25	16	55	49	730	151.0	-199646.0	-2172.0	-206689.0
25	16	55	49	731	152.0	-192537.0	-2224.0	-206936.0
25	16	55	49	731	153.0	-185334.0	-2255.0	-207444.0
25	16	55	49	732	154.0	-178307.0	-2277.0	-207364.0
25	16	55	49	733	156.0	-161205.0	-2407.0	-207376.0
25	16	55	49	733	157.0	-158191.0	-2452.0	-207377.0
25	16	55	49	734	158.0	-155068.0	-2487.0	-207172.0
25	16	55	49	734	159.0	-152816.0	-2518.0	-207509.0
25	16	55	49	735	160.0	-153384.0	-2567.0	-208194.0
25	16	55	49	736	161.0	-158611.0	-2576.0	-208054.0
25	16	55	49	736	162.0	-165936.0	-2637.0	-207797.0
25	16	55	49	766	163.0	-174231.0	-2684.0	-208261.0
25	16	55	49	767	164.0	-182619.0	-2733.0	-208238.0
25	16	55	49	767	165.0	-194351.0	-2771.0	-208146.0
25	16	55	49	768	166.0	-206129.0	-2811.0	-208236.0
25	16	55	49	769	167.0	-216632.0	-2864.0	-208697.0
25	16	55	49	770	168.0	-225565.0	-2912.0	-209090.0
25	16	55	49	770	169.0	-229946.0	-2971.0	-209299.0
25	16	55	49	771	170.0	-231114.0	-3014.0	-209924.0
25	16	55	49	772	171.0	-233457.0	-3026.0	-210303.0
25	16	55	49	773	172.0	-232839.0	-3049.0	-210511.0
25	16	55	49	774	173.0	-230352.0	-3067.0	-210559.0
25	16	55	49	774	174.0	-226277.0	-3134.0	-210579.0
25	16	55	49	775	175.0	-218538.0	-3166.0	-210072.0
25	16	55	49	775	176.0	-211599.0	-3184.0	-210538.0
25	16	55	49	776	177.0	-205718.0	-3224.0	-210879.0
25	16	55	49	777	179.0	-191345.0	-3279.0	-212320.0
25	16	55	49	778	180.0	-184891.0	-3321.0	-212675.0
25	16	55	49	778	181.0	-179328.0	-3341.0	-212614.0
25	16	55	49	779	182.0	-175049.0	-3366.0	-213371.0
25	16	55	49	779	183.0	-172349.0	-3377.0	-213404.0
25	16	55	49	780	184.0	-171120.0	-3397.0	-213327.0
25	16	55	49	812	185.0	-170733.0	-3392.0	-213483.0
25	16	55	49	813	186.0	-170171.0	-3364.0	-213495.0
25	16	55	49	813	187.0	-169808.0	-3368.0	-213994.0
25	16	55	49	814	188.0	-169999.0	-3375.0	-214363.0
25	16	55	49	815	189.0	-171461.0	-3401.0	-214818.0
25	16	55	49	815	190.0	-174638.0	-3419.0	-214781.0
25	16	55	49	816	191.0	-179166.0	-3427.0	-215005.0
25	16	55	49	817	192.0	-184212.0	-3458.0	-215571.0
25	16	55	49	818	193.0	-189459.0	-3455.0	-215404.0
25	16	55	49	818	194.0	-194668.0	-3471.0	-214983.0
25	16	55	49	819	195.0	-199329.0	-3484.0	-215361.0
25	16	55	49	820	196.0	-202561.0	-3487.0	-215644.0
25	16	55	49	821	197.0	-204249.0	-3492.0	-215545.0
25	16	55	49	822	198.0	-204305.0	-3503.0	-216602.0
25	16	55	49	822	199.0	-203448.0	-3502.0	-217191.0
25	16	55	49	823	201.0	-202016.0	-3466.0	-217608.0
25	16	55	49	824	202.0	-201799.0	-3425.0	-217877.0
25	16	55	49	824	203.0	-202743.0	-3366.0	-217789.0
25	16	55	49	825	204.0	-204491.0	-3345.0	-217093.0
25	16	55	49	825	205.0	-206909.0	-3335.0	-217154.0
25	16	55	49	826	206.0	-209734.0	-3310.0	-217059.0
25	16	55	49	857	207.0	-211792.0	-3278.0	-216686.0
25	16	55	49	858	208.0	-213147.0	-3256.0	-216791.0
25	16	55	49	859	209.0	-213546.0	-3189.0	-216991.0
25	16	55	49	860	210.0	-213174.0	-3141.0	-217158.0
25	16	55	49	861	211.0	-212296.0	-3094.0	-217210.0
25	16	55	49	862	212.0	-211115.0	-3059.0	-217428.0
25	16	55	49	862	213.0	-209989.0	-3014.0	-217140.0
25	16	55	49	863	214.0	-208343.0	-2972.0	-216604.0
25	16	55	49	864	215.0	-206327.0	-2938.0	-216109.0
25	16	55	49	865	216.0	-204892.0	-2921.0	-215505.0
25	16	55	49	865	217.0	-203234.0	-2871.0	-215017.0
25	16	55	49	866	218.0	-201221.0	-2827.0	-214659.0
25	16	55	49	867	219.0	-199532.0	-2781.0	-214095.0
25	16	55	49	868	220.0	-197761.0	-2726.0	-214081.0
25	16	55	49	869	221.0	-195379.0	-2683.0	-213886.0
25	16	55	49	870	223.0	-194318.0	-2600.0	-212051.0
25	16	55	49	870	224.0	-195547.0	-2541.0	-211032.0
25	16	55	49	871	225.0	-197769.0	-2498.0	-210107.0
25	16	55	49	872	226.0	-200751.0	-2434.0	-209210.0
25	16	55	49	872	227.0	-203944.0	-2406.0	-208998.0
25	16	55	49	873	228.0	-207208.0	-2364.0	-208701.0
25	16	55	49	874	229.0	-210693.0	-2323.0	-208049.0
25	16	55	49	902	230.0	-213350.0	-2258.0	-207599.0
25	16	55	49	903	231.0	-214963.0	-2203.0	-207380.0
25	16	55	49	904	232.0	-215329.0	-2147.0	-206594.0
25	16	55	49	905	233.0	-214367.0	-2088.0	-206006.0
25	16	55	49	906	234.0	-212352.0	-2052.0	-205329.0
25	16	55	49	906	235.0	-208910.0	-1983.0	-204635.0
25	16	55	49	907	236.0	-203959.0	-1934.0	-203904.0
25	16	55	49	908	237.0	-197886.0	-1871.0	-203914.0
25	16	55	49	909	238.0	-191429.0	-1802.0	-203778.0
25	16	55	49	909	239.0	-185237.0	-1723.0	-203479.0
25	16	55	49	910	240.0	-179162.0	-1669.0	-203588.0
25	16	55	49	911	241.0	-173929.0	-1612.0	-203150.0
25	16	55	49	912	242.0	-170025.0	-1566.0	-202618.0
25	16	55	49	912	243.0	-166056.0	-1494.0	-202276.0
25	16	55	49	913	244.0	-162544.0	-1449.0	-201931.0
25	16	55	49	914	246.0	-154843.0	-1361.0	-201647.0
25	16	55	49	914	247.0	-149295.0	-1304.0	-201661.0
25	16	55	49	915	248.0	-143723.0	-1250.0	-201246.0
25	16	55	49	916	249.0	-137429.0	-1194.0	-201349.0
25	16	55	49	916	250.0	-130356.0	-1148.0	-201448.0
25	16	55	49	917	251.0	-122810.0	-1095.0	-201672.0
25	16	55	49	947	252.0	-117789.0	-1037.0	-201812.0
25	16	55	50	32	253.0	-116192.0	-980.0	-201540.0
25	16	55	50	33	254.0	-123451.0	-935.0	-201156.0
25	16	55	50	34	255.0	-138994.0	-902.0	-201136.0
25	16	55	50	35	0.0	-161714.0	-867.0	-201784.0
25	16	55	50	36	1.0	-191846.0	-822.0	-201562.0
25	16	55	50	36	2.0	-224757.0	-782.0	-201107.0
25	16	55	50	37	3.0	-254754.0	-754.0	-201824.0
25	16	55	50	38	4.0	-278503.0	-724.0	-201859.0
25	16	55	50	39	5.0	-293506.0	-684.0	-201532.0
25	16	55	50	40	6.0	-298527.0	-659.0	-201235.0
25	16	55	50	40	7.0	-292676.0	-621.0	-201456.0
25	16	55	50	41	8.0	-278346.0	-582.0	-201483.0
25	16	55	50	42	9.0	-260943.0	-547.0	-201383.0
25	16	55	50	43	10.0	-243717.0	-498.0	-201424.0
25	16	55	50	43	12.0	-218016.0	-456.0	-202292.0
25	16	55	50	44	13.0	-212995.0	-441.0	-202610.0
25	16	55	50	45	35.0	-185436.0	-242.0	-201826.0
25	16	55	50	46	36.0	-184045.0	-234.0	-201509.0
25	16	55	50	47	37.0	-182551.0	-226.0	-201763.0
25	16	55	50	47	38.0	-181851.0	-222.0	-201321.0
25	16	55	50	48	39.0	-181602.0	-206.0	-201559.0
25	16	55	50	49	40.0	-181977.0	-206.0	-201195.0
25	16	55	50	50	41.0	-184659.0	-198.0	-200701.0
25	16	55	50	50	42.0	-188791.0	-196.0	-200882.0
25	16	55	50	51	43.0	-194677.0	-189.0	-201093.0
25	16	55	50	52	44.0	-201628.0	-196.0	-200782.0
25	16	55	50	52	45.0	-209269.0	-232.0	-200491.0
25	16	55	50	53	46.0	-216629.0	-247.0	-200178.0
25	16	55	50	54	47.0	-223127.0	-265.0	-199741.0
25	16	55	50	54	48.0	-228091.0	-301.0	-199659.0
25	16	55	50	55	49.0	-231736.0	-317.0	-199352.0
25	16	55	50	56	50.0	-233357.0	-341.0	-198884.0
25	16	55	50	56	51.0	-233263.0	-350.0	-198608.0
25	16	55	50	57	52.0	-231701.0	-384.0	-198826.0
25	16	55	50	58	53.0	-229088.0	-432.0	-198732.0
25	16	55	50	58	54.0	-224846.0	-418.0	-199221.0
25	16	55	50	59	55.0	-219907.0	-432.0	-199362.0
25	16	55	50	59	57.0	-208190.0	-479.0	-199122.0
25	16	55	50	60	58.0	-200941.0	-496.0	-198849.0
25	16	55	50	61	59.0	-193406.0	-523.0	-198406.0
25	16	55	50	61	60.0	-186071.0	-516.0	-198563.0
25	16	55	50	62	61.0	-178209.0	-537.0	-198921.0
25	16	55	50	62	62.0	-170842.0	-553.0	-198799.0
25	16	55	50	63	63.0	-164131.0	-584.0	-198556.0
25	16	55	50	82	64.0	-157467.0	-611.0	-198841.0
25	16	55	50	83	65.0	-151491.0	-618.0	-198944.0
25	16	55	50	83	66.0	-146632.0	-650.0	-198342.0
25	16	55	50	84	67.0	-143124.0	-725.0	-198458.0
25	16	55	50	85	68.0	-140957.0	-764.0	-198072.0
25	16	55	50	86	69.0	-139863.0	-791.0	-197911.0
25	16	55	50	87	70.0	-140829.0	-841.0	-198252.0
25	16	55	50	88	71.0	-143333.0	-883.0	-198494.0
25	16	55	50	88	72.0	-147918.0	-911.0	-198051.0
25	16	55	50	89	73.0	-154324.0	-949.0	-197762.0
25	16	55	50	90	74.0	-162129.0	-981.0	-198222.0
25	16	55	50	91	75.0	-171927.0	-1014.0	-198187.0
25	16	55	50	92	76.0	-183926.0	-1054.0	-197921.0
25	16	55	50	93	77.0	-197594.0	-1085.0	-198287.0
25	16	55	50	93	78.0	-211531.0	-1093.0	-198352.0
25	16	55	50	94	80.0	-235319.0	-1109.0	-198244.0
25	16	55	50	95	81.0	-244189.0	-1093.0	-198584.0
25	16	55	50	95	82.0	-250827.0	-1082.0	-198729.0
25	16	55	50	96	83.0	-255457.0	-1080.0	-198282.0
25	16	55	50	97	84.0	-258189.0	-1091.0	-198327.0
25	16	55	50	97	85.0	-258889.0	-1104.0	-198156.0
25	16	55	50	127	86.0	-258296.0	-1122.0	-197667.0
25	16	55	50	128	87.0	-256297.0	-1152.0	-197376.0
25	16	55	50	129	88.0	-253956.0	-1172.0	-197151.0
25	16	55	50	130	89.0	-251262.0	-1205.0	-197577.0
25	16	55	50	139	90.0	-248002.0	-1247.0	-197636.0
25	16	55	50	140	91.0	-244131.0	-1282.0	-197687.0
25	16	55	50	141	92.0	-239963.0	-1294.0	-197801.0
25	16	55	50	141	93.0	-235832.0	-1351.0	-197873.0
25	16	55	50	142	94.0	-231596.0	-1372.0	-198139.0
25	16	55	50	143	95.0	-226154.0	-1430.0	-198520.0
25	16	55	50	143	96.0	-220965.0	-1459.0	-198404.0
25	16	55	50	144	97.0	-216021.0	-1491.0	-198262.0
25	16	55	50	145	98.0	-210404.0	-1524.0	-197564.0
25	16	55	50	145	99.0	-204821.0	-1544.0	-197003.0
25	16	55	50	146	100.0	-198900.0	-1581.0	-197888.0
25	16	55	50	146	102.0	-186387.0	-1622.0	-198104.0
25	16	55	50	147	103.0	-178955.0	-1657.0	-198603.0
25	16	55	50	148	104.0	-171826.0	-1702.0	-198367.0
25	16	55	50	148	105.0	-165194.0	-1744.0	-198278.0
25	16	55	50	149	106.0	-159149.0	-1768.0	-198053.0
25	16	55	50	150	107.0	-154336.0	-1791.0	-198188.0
25	16	55	50	172	108.0	-151356.0	-1806.0	-197837.0
25	16	55	50	173	109.0	-151229.0	-1814.0	-197504.0
25	16	55	50	174	110.0	-152734.0	-1804.0	-197587.0
25	16	55	50	175	111.0	-155056.0	-1827.0	-197676.0
25	16	55	50	175	112.0	-158234.0	-1830.0	-197262.0
25	16	55	50	176	113.0	-161762.0	-1838.0	-197587.0
25	16	55	50	177	114.0	-165404.0	-1845.0	-197560.0
25	16	55	50	178	115.0	-170004.0	-1850.0	-197628.0
25	16	55	50	178	116.0	-175736.0	-1855.0	-197380.0
25	16	55	50	179	117.0	-183383.0	-1893.0	-197400.0
25	16	55	50	180	118.0	-192694.0	-1919.0	-197179.0
25	16	55	50	181	119.0	-202458.0	-1944.0	-197154.0
25	16	55	50	181	120.0	-212208.0	-1946.0	-197301.0
25	16	55	50	182	121.0	-222241.0	-1949.0	-197135.0
25	16	55	50	183	122.0	-231718.0	-1942.0	-197026.0
25	16	55	50	184	124.0	-247554.0	-1931.0	-197384.0
25	16	55	50	184	125.0	-252914.0	-1954.0	-197077.0
25	16	55	50	185	126.0	-256444.0	-1969.0	-196773.0
25	16	55	50	186	127.0	-258026.0	-1985.0	-196406.0
25	16	55	50	186	128.0	-257654.0	-2019.0	-195945.0
25	16	55	50	187	129.0	-254757.0	-2030.0	-196091.0
25	16	55	50	188	130.0	-249009.0	-2049.0	-195736.0
25	16	55	50	188	131.0	-240239.0	-2076.0	-196085.0
25	16	55	50	219	132.0	-228649.0	-2084.0	-196238.0
25	16	55	50	220	133.0	-214953.0	-2077.0	-195991.0
25	16	55	50	221	134.0	-200339.0	-2096.0	-195708.0
25	16	55	50	221	135.0	-185506.0	-2129.0	-195787.0
25	16	55	50	222	136.0	-170844.0	-2149.0	-195844.0
25	16	55	50	223	137.0	-157811.0	-2133.0	-195239.0
25	16	55	50	223	138.0	-147316.0	-2147.0	-195341.0
25	16	55	50	224	139.0	-138604.0	-2133.0	-195644.0
25	16	55	50	225	140.0	-131569.0	-2156.0	-195519.0
25	16	55	50	226	141.0	-126371.0	-2191.0	-195382.0
25	16	55	50	226	142.0	-122764.0	-2184.0	-195590.0
25	16	55	50	227	143.0	-120291.0	-2186.0	-195791.0
25	16	55	50	228	144.0	-119292.0	-2191.0	-195767.0
25	16	55	50	228	145.0	-119646.0	-2189.0	-195330.0
25	16	55	50	229	146.0	-121987.0	-2206.0	-195211.0
25	16	55	50	229	147.0	-126869.0	-2197.0	-194596.0
25	16	55	50	230	148.0	-133988.0	-2188.0	-194646.0
25	16	55	50	231	149.0	-142859.0	-2162.0	-195124.0
25	16	55	50	231	150.0	-154206.0	-2155.0	-195106.0
25	16	55	50	232	151.0	-167746.0	-2176.0	-194672.0
25	16	55	50	233	152.0	-183537.0	-2169.0	-194802.0
25	16	55	50	262	153.0	-201157.0	-2167.0	-195209.0
25	16	55	50	263	154.0	-219872.0	-2157.0	-194934.0
25	16	55	50	264	155.0	-239051.0	-2148.0	-194697.0
25	16	55	50	265	156.0	-257745.0	-2136.0	-194500.0
25	16	55	50	266	157.0	-275344.0	-2144.0	-194396.0
25	16	55	50	266	158.0	-291269.0	-2161.0	-194322.0
25	16	55	50	267	159.0	-304131.0	-2163.0	-194502.0
25	16	55	50	268	160.0	-313713.0	-2187.0	-195197.0
25	16	55	50	269	161.0	-320147.0	-2210.0	-196561.0
25	16	55	50	270	162.0	-322922.0	-2254.0	-198169.0
25	16	55	50	270	163.0	-322134.0	-2295.0	-200603.0
25	16	55	50	271	164.0	-317431.0	-2357.0	-204914.0
25	16	55	50	272	165.0	-308828.0	-2384.0	-209257.0
25	16	55	50	273	166.0	-296894.0	-2411.0	-212847.0
25	16	55	50	273	167.0	-282115.0	-2442.0	-214147.0
25	16	55	50	274	169.0	-244871.0	-2477.0	-212493.0
25	16	55	50	275	170.0	-223851.0	-2483.0	-214251.0
25	16	55	50	275	171.0	-203521.0	-2518.0	-213704.0
25	16	55	50	276	172.0	-184656.0	-2556.0	-212420.0
25	16	55	50	276	173.0	-167937.0	-2573.0	-211849.0
25	16	55	50	277	174.0	-153354.0	-2589.0	-208761.0
25	16	55	50	278	175.0	-140644.0	-2614.0	-204717.0
25	16	55	50	306	176.0	-130095.0	-2627.0	-200917.0
25	16	55	50	307	177.0	-122031.0	-2642.0	-197746.0
25	16	55	50	308	178.0	-116162.0	-2665.0	-193807.0
25	16	55	50	309	179.0	-112000.0	-2714.0	-188026.0
25	16	55	50	310	180.0	-109999.0	-2739.0	-181904.0
25	16	55	50	310	181.0	-110457.0	-2766.0	-180724.0
25	16	55	50	311	182.0	-113615.0	-2818.0	-181810.0
25	16	55	50	312	183.0	-120236.0	-2843.0	-183465.0
25	16	55	50	312	184.0	-129716.0	-2880.0	-185781.0
25	16	55	50	313	185.0	-142039.0	-2918.0	-186570.0
25	16	55	50	314	186.0	-157400.0	-2973.0	-186587.0
25	16	55	50	315	187.0	-175489.0	-3029.0	-186402.0
25	16	55	50	330	188.0	-195946.0	-3074.0	-187326.0
25	16	55	50	331	189.0	-216467.0	-3132.0	-188868.0
25	16	55	50	332	190.0	-234413.0	-3195.0	-190588.0
25	16	55	50	332	192.0	-251764.0	-3281.0	-192767.0
25	16	55	50	333	193.0	-248893.0	-3302.0	-193831.0
25	16	55	50	334	194.0	-238884.0	-3322.0	-194279.0
25	16	55	50	334	195.0	-224322.0	-3341.0	-194311.0
25	16	55	50	335	196.0	-208853.0	-3377.0	-194016.0
25	16	55	50	335	197.0	-196157.0	-3396.0	-194139.0
25	16	55	50	351	198.0	-188986.0	-3414.0	-194299.0
25	16	55	50	352	199.0	-189433.0	-3427.0	-194074.0
25	16	55	50	353	200.0	-198728.0	-3421.0	-194517.0
25	16	55	50	353	201.0	-216212.0	-3450.0	-194723.0
25	16	55	50	354	202.0	-241799.0	-3466.0	-194476.0
25	16	55	50	355	203.0	-271214.0	-3500.0	-194551.0
25	16	55	50	355	204.0	-296511.0	-3527.0	-194709.0
25	16	55	50	356	205.0	-311997.0	-3562.0	-194334.0
25	16	55	50	357	206.0	-313744.0	-3590.0	-194009.0
25	16	55	50	357	207.0	-300834.0	-3622.0	-193863.0
25	16	55	50	358	208.0	-277074.0	-3621.0	-193254.0
25	16	55	50	359	209.0	-247950.0	-3654.0	-193067.0
25	16	55	50	359	210.0	-217976.0	-3659.0	-193582.0
25	16	55	50	360	211.0	-191563.0	-3671.0	-193726.0
25	16	55	50	361	212.0	-171337.0	-3687.0	-192950.0
25	16	55	50	361	214.0	-151422.0	-3721.0	-193480.0
25	16	55	50	362	215.0	-150900.0	-3752.0	-193052.0
25	16	55	50	362	216.0	-155481.0	-3767.0	-193188.0
25	16	55	50	363	217.0	-164207.0	-3800.0	-193276.0
25	16	55	50	364	218.0	-175004.0	-3843.0	-193372.0
25	16	55	50	364	219.0	-185558.0	-3868.0	-193355.0
25	16	55	50	365	220.0	-193479.0	-3891.0	-193324.0
25	16	55	50	398	221.0	-197383.0	-3917.0	-193632.0
25	16	55	50	398	222.0	-195600.0	-3929.0	-193761.0
25	16	55	50	399	223.0	-188331.0	-3966.0	-193752.0
25	16	55	50	400	224.0	-177662.0	-3991.0	-193791.0
25	16	55	50	400	225.0	-166184.0	-4020.0	-193818.0
25	16	55	50	401	226.0	-156016.0	-4051.0	-193851.0
25	16	55	50	402	227.0	-148114.0	-4083.0	-193761.0
25	16	55	50	402	228.0	-143218.0	-4114.0	-193751.0
25	16	55	50	403	229.0	-140982.0	-4141.0	-193737.0
25	16	55	50	403	230.0	-141182.0	-4184.0	-193807.0
25	16	55	50	404	231.0	-142918.0	-4230.0	-194156.0
25	16	55	50	405	232.0	-145071.0	-4284.0	-194562.0
25	16	55	50	405	233.0	-147818.0	-4328.0	-194372.0
25	16	55	50	406	234.0	-150647.0	-4344.0	-194576.0
25	16	55	50	407	235.0	-153092.0	-4368.0	-194706.0
25	16	55	50	407	237.0	-157827.0	-4401.0	-193828.0
25	16	55	50	408	238.0	-161741.0	-4417.0	-194172.0
25	16	55	50	408	239.0	-166695.0	-4469.0	-194054.0
25	16	55	50	409	240.0	-172757.0	-4483.0	-194094.0
25	16	55	50	410	241.0	-179975.0	-4510.0	-194567.0
25	16	55	50	410	242.0	-188131.0	-4549.0	-194865.0
25	16	55	50	441	243.0	-197248.0	-4560.0	-194844.0
25	16	55	50	441	244.0	-206751.0	-4571.0	-195071.0
25	16	55	50	442	245.0	-216638.0	-4609.0	-195206.0
25	16	55	50	443	246.0	-226269.0	-4667.0	-195105.0
25	16	55	50	443	247.0	-235194.0	-4717.0	-195144.0
25	16	55	50	444	248.0	-243586.0	-4751.0	-194951.0
25	16	55	50	444	249.0	-251486.0	-4782.0	-194964.0
25	16	55	50	445	250.0	-258147.0	-4837.0	-195059.0
25	16	55	50	446	251.0	-263151.0	-4875.0	-195417.0
25	16	55	50	446	252.0	-265853.0	-4904.0	-195709.0
25	16	55	50	447	253.0	-266099.0	-4920.0	-195944.0
25	16	55	50	448	254.0	-264659.0	-4946.0	-196236.0
25	16	55	50	448	255.0	-262180.0	-4983.0	-196108.0
25	16	55	50	449	0.0	-259374.0	-5000.0	-196046.0
25	16	55	50	449	1.0	-256467.0	-5024.0	-196105.0
25	16	55	50	450	3.0	-251644.0	-5091.0	-195966.0
25	16	55	50	451	4.0	-249346.0	-5138.0	-196305.0
25	16	55	50	451	5.0	-246184.0	-5165.0	-197079.0
25	16	55	50	452	6.0	-241606.0	-5195.0	-197332.0
25	16	55	50	452	7.0	-235591.0	-5233.0	-197559.0
25	16	55	50	453	8.0	-228809.0	-5283.0	-197859.0
25	16	55	50	486	9.0	-221402.0	-5304.0	-197824.0
25	16	55	50	487	10.0	-213703.0	-5334.0	-197889.0
25	16	55	50	488	11.0	-205536.0	-5374.0	-198150.0
25	16	55	50	488	12.0	-195954.0	-5416.0	-198494.0
25	16	55	50	489	13.0	-186306.0	-5438.0	-198402.0
25	16	55	50	490	14.0	-177892.0	-5454.0	-198772.0
25	16	55	50	490	15.0	-170563.0	-5477.0	-199129.0
25	16	55	50	491	16.0	-164086.0	-5499.0	-199627.0
25	16	55	50	492	17.0	-159172.0	-5518.0	-200201.0
25	16	55	50	492	18.0	-156067.0	-5547.0	-200347.0
25	16	55	50	493	19.0	-154524.0	-5560.0	-200256.0
25	16	55	50	494	20.0	-154056.0	-5579.0	-200239.0
25	16	55	50	494	21.0	-153762.0	-5602.0	-200218.0
25	16	55	50	495	22.0	-153033.0	-5626.0	-200579.0
25	16	55	50	495	23.0	-151706.0	-5646.0	-201059.0
25	16	55	50	496	26.0	-146254.0	-5687.0	-201517.0
25	16	55	50	497	27.0	-145562.0	-5678.0	-201451.0
25	16	55	50	497	28.0	-145739.0	-5677.0	-201565.0
25	16	55	50	498	29.0	-147409.0	-5663.0	-201341.0
25	16	55	50	499	30.0	-151349.0	-5639.0	-201000.0
25	16	55	50	499	31.0	-158051.0	-5610.0	-200757.0
25	16	55	50	531	32.0	-166591.0	-5594.0	-201005.0
25	16	55	50	532	33.0	-176005.0	-5575.0	-200902.0
25	16	55	50	533	34.0	-186087.0	-5544.0	-201122.0
25	16	55	50	533	35.0	-196189.0	-5538.0	-201219.0
25	16	55	50	534	36.0	-206457.0	-5512.0	-201446.0
25	16	55	50	535	37.0	-216891.0	-5473.0	-201419.0
25	16	55	50	535	38.0	-226251.0	-5427.0	-201370.0
25	16	55	50	536	39.0	-233873.0	-5368.0	-200865.0
25	16	55	50	537	40.0	-239864.0	-5329.0	-200278.0
25	16	55	50	538	41.0	-243542.0	-5282.0	-199381.0
25	16	55	50	538	42.0	-244956.0	-5216.0	-199035.0
25	16	55	50	539	43.0	-245279.0	-5153.0	-198811.0
25	16	55	50	540	44.0	-245498.0	-5097.0	-198757.0
25	16	55	50	540	45.0	-245192.0	-5046.0	-198208.0
25	16	55	50	541	46.0	-244581.0	-5002.0	-198171.0
25	16	55	50	542	48.0	-244975.0	-4891.0	-196758.0
25	16	55	50	542	49.0	-245047.0	-4821.0	-195894.0
25	16	55	50	543	50.0	-244127.0	-4721.0	-195275.0
25	16	55	50	543	51.0	-241846.0	-4631.0	-194477.0
25	16	55	50	544	52.0	-238417.0	-4545.0	-193306.0
25	16	55	50	545	53.0	-233708.0	-4470.0	-192716.0
25	16	55	50	578	54.0	-227317.0	-4392.0	-192261.0
25	16	55	50	578	55.0	-219636.0	-4319.0	-191206.0
25	16	55	50	579	56.0	-211651.0	-4287.0	-190289.0
25	16	55	50	580	57.0	-204122.0	-4248.0	-189627.0
25	16	55	50	581	58.0	-197520.0	-4157.0	-188602.0
25	16	55	50	581	59.0	-191979.0	-4102.0	-187644.0
25	16	55	50	582	60.0	-187949.0	-4045.0	-186966.0
25	16	55	50	583	61.0	-184654.0	-3958.0	-186152.0
25	16	55	50	583	62.0	-181239.0	-3902.0	-185567.0
25	16	55	50	584	63.0	-177160.0	-3844.0	-185756.0
25	16	55	50	585	64.0	-172611.0	-3778.0	-185310.0
25	16	55	50	586	65.0	-167652.0	-3699.0	-184947.0
25	16	55	50	586	66.0	-161721.0	-3662.0	-184837.0
25	16	55	50	587	67.0	-155066.0	-3607.0	-184610.0
25	16	55	50	587	68.0	-148508.0	-3539.0	-183980.0
25	16	55	50	588	70.0	-137612.0	-3498.0	-183371.0
25	16	55	50	589	71.0	-133576.0	-3413.0	-183353.0
25	16	55	50	589	72.0	-130745.0	-3353.0	-183286.0
25	16	55	50	590	73.0	-128554.0	-3287.0	-183286.0
25	16	55	50	591	74.0	-127361.0	-3236.0	-183178.0
25	16	55	50	591	75.0	-127210.0	-3194.0	-183320.0
25	16	55	50	592	76.0	-128331.0	-3124.0	-183227.0
25	16	55	50	622	77.0	-130747.0	-3077.0	-182713.0
25	16	55	50	623	78.0	-134085.0	-3058.0	-182161.0
25	16	55	50	623	79.0	-137797.0	-3021.0	-181701.0
25	16	55	50	624	80.0	-142214.0	-2971.0	-181511.0
25	16	55	50	625	81.0	-146357.0	-2925.0	-180956.0
25	16	55	50	625	82.0	-150142.0	-2901.0	-181036.0
25	16	55	50	626	83.0	-154801.0	-2847.0	-180872.0
25	16	55	50	627	84.0	-161387.0	-2794.0	-180593.0
25	16	55	50	627	85.0	-170777.0	-2759.0	-180661.0
25	16	55	50	628	86.0	-188151.0	-2729.0	-181334.0
25	16	55	50	629	87.0	-211131.0	-2702.0	-181201.0
25	16	55	50	629	88.0	-240842.0	-2631.0	-180696.0
25	16	55	50	630	89.0	-277597.0	-2563.0	-181061.0
25	16	55	50	631	90.0	-313954.0	-2536.0	-180782.0
25	16	55	50	631	91.0	-343429.0	-2497.0	-180472.0
25	16	55	50	632	93.0	-372684.0	-2421.0	-180759.0
25	16	55	50	633	94.0	-369839.0	-2383.0	-180652.0
25	16	55	50	633	95.0	-355796.0	-2353.0	-180846.0
25	16	55	50	634	96.0	-335332.0	-2300.0	-181380.0
25	16	55	50	635	97.0	-314244.0	-2242.0	-181686.0
25	16	55	50	635	98.0	-295137.0	-2192.0	-181602.0
25	16	55	50	666	99.0	-280262.0	-2157.0	-181636.0
25	16	55	50	667	100.0	-271097.0	-2094.0	-181320.0
25	16	55	50	668	101.0	-264991.0	-2017.0	-180849.0
25	16	55	50	669	102.0	-258236.0	-1959.0	-180514.0
25	16	55	50	670	103.0	-248082.0	-1896.0	-180658.0
25	16	55	50	670	104.0	-234149.0	-1847.0	-180395.0
25	16	55	50	671	105.0	-217484.0	-1845.0	-180826.0
25	16	55	50	672	106.0	-200257.0	-1822.0	-180900.0
25	16	55	50	672	107.0	-183384.0	-1769.0	-180749.0
25	16	55	50	673	108.0	-167702.0	-1723.0	-180785.0
25	16	55	50	674	109.0	-153896.0	-1662.0	-180936.0
25	16	55	50	675	110.0	-142607.0	-1622.0	-180603.0
25	16	55	50	676	111.0	-134467.0	-1566.0	-181031.0
25	16	55	50	677	112.0	-129721.0	-1537.0	-180569.0
25	16	55	50	677	113.0	-127979.0	-1487.0	-179973.0
25	16	55	50	678	115.0	-129307.0	-1387.0	-180299.0
25	16	55	50	679	116.0	-130923.0	-1375.0	-180260.0
25	16	55	50	679	117.0	-132054.0	-1363.0	-180534.0
25	16	55	50	680	118.0	-131841.0	-1331.0	-180464.0
25	16	55	50	681	119.0	-130281.0	-1306.0	-180261.0
25	16	55	50	681	120.0	-128265.0	-1261.0	-180045.0
25	16	55	50	682	121.0	-126312.0	-1214.0	-180085.0
25	16	55	50	713	122.0	-124697.0	-1192.0	-180034.0
25	16	55	50	713	123.0	-125048.0	-1176.0	-179788.0
25	16	55	50	714	124.0	-127977.0	-1124.0	-179748.0
25	16	55	50	715	125.0	-133623.0	-1111.0	-179817.0
25	16	55	50	715	126.0	-141251.0	-1086.0	-179891.0
25	16	55	50	716	127.0	-150895.0	-1088.0	-179788.0
25	16	55	50	717	128.0	-162214.0	-1082.0	-179847.0
25	16	55	50	718	129.0	-174445.0	-1052.0	-179321.0
25	16	55	50	718	130.0	-187057.0	-1042.0	-179347.0
25	16	55	50	719	131.0	-199290.0	-1043.0	-179184.0
25	16	55	50	720	132.0	-211092.0	-1043.0	-179024.0
25	16	55	50	720	133.0	-222047.0	-1068.0	-179056.0
25	16	55	50	721	134.0	-231711.0	-1054.0	-179207.0
25	16	55	50	721	135.0	-239752.0	-1036.0	-179331.0
25	16	55	50	722	136.0	-246231.0	-1045.0	-179291.0
25	16	55	50	723	138.0	-254821.0	-1052.0	-178822.0
25	16	55	50	723	139.0	-256836.0	-1094.0	-178222.0
25	16	55	50	757	140.0	-257913.0	-1104.0	-178059.0
25	16	55	50	758	141.0	-258119.0	-1123.0	-178145.0
25	16	55	50	759	142.0	-257407.0	-1136.0	-177900.0
25	16	55	50	759	143.0	-256097.0	-1152.0	-178014.0
25	16	55	50	760	144.0	-254335.0	-1167.0	-177957.0
25	16	55	50	761	145.0	-252307.0	-1172.0	-177703.0
25	16	55	50	761	146.0	-249837.0	-1203.0	-178049.0
25	16	55	50	762	147.0	-246171.0	-1190.0	-178291.0
25	16	55	50	763	148.0	-241542.0	-1185.0	-177769.0
25	16	55	50	763	149.0	-235635.0	-1191.0	-176961.0
25	16	55	50	764	150.0	-227922.0	-1189.0	-176803.0
25	16	55	50	765	151.0	-219304.0	-1226.0	-176776.0
25	16	55	50	766	152.0	-210284.0	-1247.0	-176627.0
25	16	55	50	766	153.0	-201406.0	-1255.0	-176418.0
25	16	55	50	767	154.0	-193178.0	-1266.0	-176702.0
25	16	55	50	767	160.0	-150925.0	-1465.0	-175243.0
25	16	55	50	768	161.0	-144332.0	-1507.0	-175201.0
25	16	55	50	769	162.0	-138144.0	-1531.0	-175262.0
25	16	55	50	769	163.0	-132506.0	-1534.0	-175146.0
25	16	55	50	770	164.0	-127384.0	-1560.0	-174934.0
25	16	55	50	771	165.0	-122924.0	-1579.0	-174642.0
25	16	55	50	771	166.0	-119782.0	-1592.0	-174489.0
25	16	55	50	802	167.0	-117952.0	-1610.0	-174314.0
25	16	55	50	803	168.0	-117304.0	-1619.0	-174193.0
25	16	55	50	803	169.0	-117948.0	-1644.0	-173812.0
25	16	55	50	804	170.0	-119480.0	-1692.0	-173729.0
25	16	55	50	805	171.0	-121492.0	-1713.0	-174022.0
25	16	55	50	806	172.0	-124466.0	-1728.0	-173884.0
25	16	55	50	806	173.0	-128577.0	-1788.0	-173472.0
25	16	55	50	807	174.0	-134199.0	-1822.0	-173634.0
25	16	55	50	808	175.0	-140784.0	-1862.0	-173729.0
25	16	55	50	809	176.0	-147345.0	-1896.0	-173951.0
25	16	55	50	809	177.0	-154192.0	-1951.0	-173721.0
25	16	55	50	810	178.0	-161416.0	-1996.0	-173124.0
25	16	55	50	811	179.0	-168818.0	-2031.0	-172851.0
25	16	55	50	812	180.0	-176239.0	-2072.0	-172657.0
25	16	55	50	813	181.0	-184223.0	-2113.0	-172880.0
25	16	55	50	813	183.0	-202312.0	-2171.0	-173205.0
25	16	55	50	814	184.0	-212259.0	-2202.0	-172976.0
25	16	55	50	814	185.0	-222246.0	-2219.0	-173289.0
25	16	55	50	815	186.0	-232224.0	-2252.0	-173142.0
25	16	55	50	816	187.0	-241877.0	-2279.0	-172416.0
25	16	55	50	816	188.0	-251084.0	-2298.0	-172552.0
25	16	55	50	847	189.0	-259665.0	-2330.0	-172376.0
25	16	55	50	848	190.0	-267276.0	-2349.0	-171941.0
25	16	55	50	849	191.0	-273853.0	-2385.0	-171637.0
25	16	55	50	849	192.0	-279497.0	-2411.0	-171919.0
25	16	55	50	850	193.0	-283462.0	-2432.0	-172091.0
25	16	55	50	851	194.0	-284800.0	-2476.0	-172195.0
25	16	55	50	851	195.0	-283137.0	-2501.0	-172009.0
25	16	55	50	852	196.0	-278987.0	-2529.0	-172111.0
25	16	55	50	853	197.0	-273229.0	-2567.0	-171804.0
25	16	55	50	853	198.0	-266177.0	-2587.0	-171300.0
25	16	55	50	854	199.0	-257739.0	-2597.0	-171058.0
25	16	55	50	855	200.0	-248128.0	-2622.0	-171253.0
25	16	55	50	855	201.0	-237997.0	-2639.0	-171714.0
25	16	55	50	856	202.0	-227427.0	-2658.0	-172087.0
25	16	55	50	857	203.0	-216752.0	-2678.0	-172437.0
25	16	55	50	857	205.0	-196729.0	-2747.0	-173531.0
25	16	55	50	858	206.0	-188187.0	-2783.0	-173097.0
25	16	55	50	859	207.0	-180514.0	-2787.0	-172855.0
25	16	55	50	859	208.0	-174129.0	-2789.0	-172537.0
25	16	55	50	860	209.0	-169482.0	-2805.0	-172178.0
25	16	55	50	861	210.0	-166444.0	-2816.0	-171915.0
25	16	55	50	892	211.0	-164566.0	-2821.0	-171770.0
25	16	55	50	893	212.0	-163318.0	-2829.0	-171798.0
25	16	55	50	893	213.0	-162769.0	-2869.0	-171862.0
25	16	55	50	894	214.0	-163281.0	-2883.0	-171714.0
25	16	55	50	895	215.0	-164924.0	-2901.0	-171762.0
25	16	55	50	896	216.0	-167472.0	-2912.0	-171671.0
25	16	55	50	896	217.0	-170640.0	-2939.0	-171313.0
25	16	55	50	897	218.0	-174507.0	-2979.0	-171220.0
25	16	55	50	898	219.0	-178929.0	-3007.0	-170684.0
25	16	55	50	899	220.0	-183454.0	-3033.0	-170707.0
25	16	55	50	900	221.0	-187513.0	-3067.0	-171199.0
25	16	55	50	901	222.0	-191149.0	-3094.0	-171470.0
25	16	55	50	901	223.0	-194822.0	-3129.0	-171244.0
25	16	55	50	902	224.0	-198065.0	-3166.0	-171529.0
25	16	55	50	903	225.0	-200480.0	-3189.0	-171509.0
25	16	55	50	903	227.0	-203808.0	-3274.0	-171239.0
25	16	55	50	904	228.0	-206009.0	-3305.0	-171162.0
25	16	55	50	905	229.0	-209682.0	-3342.0	-170709.0
25	16	55	50	905	230.0	-215121.0	-3377.0	-169949.0
25	16	55	50	906	231.0	-221596.0	-3405.0	-169875.0
25	16	55	50	906	232.0	-228448.0	-3445.0	-169919.0
25	16	55	50	907	233.0	-235294.0	-3465.0	-170222.0
25	16	55	50	938	234.0	-241188.0	-3507.0	-170163.0
25	16	55	50	948	235.0	-245932.0	-3541.0	-169913.0
25	16	55	50	949	236.0	-249164.0	-3541.0	-170046.0
25	16	55	50	949	237.0	-250866.0	-3553.0	-169937.0
25	16	55	50	950	238.0	-251336.0	-3552.0	-169435.0
25	16	55	50	951	239.0	-251025.0	-3562.0	-169326.0
25	16	55	50	951	240.0	-249394.0	-3577.0	-169378.0
25	16	55	50	952	241.0	-245855.0	-3575.0	-169296.0
25	16	55	50	952	242.0	-240815.0	-3604.0	-168949.0
25	16	55	50	953	243.0	-234718.0	-3646.0	-169102.0
25	16	55	50	954	244.0	-228522.0	-3662.0	-168979.0
25	16	55	50	954	245.0	-223249.0	-3670.0	-168680.0
25	16	55	50	955	246.0	-219850.0	-3675.0	-168952.0
25	16	55	50	955	247.0	-218805.0	-3689.0	-168885.0
25	16	55	50	956	248.0	-220049.0	-3703.0	-168555.0
25	16	55	50	957	250.0	-225321.0	-3748.0	-168808.0
25	16	55	50	957	251.0	-227748.0	-3777.0	-168629.0
25	16	55	50	958	252.0	-229338.0	-3759.0	-167992.0
25	16	55	50	959	253.0	-230217.0	-3766.0	-167919.0
25	16	55	50	959	254.0	-229861.0	-3771.0	-168301.0
25	16	55	50	960	255.0	-228543.0	-3776.0	-167991.0
25	16	55	50	982	0.0	-226009.0	-3794.0	-167939.0
25	16	55	50	983	1.0	-221776.0	-3809.0	-167497.0
25	16	55	50	983	2.0	-215799.0	-3804.0	-166949.0
25	16	55	50	984	3.0	-208629.0	-3828.0	-166958.0
25	16	55	50	985	4.0	-200826.0	-3871.0	-166873.0
25	16	55	50	986	5.0	-192619.0	-3889.0	-167364.0
25	16	55	50	987	6.0	-184451.0	-3924.0	-168288.0
25	16	55	50	987	7.0	-176157.0	-3955.0	-170492.0
25	16	55	50	988	8.0	-168380.0	-3999.0	-173659.0
25	16	55	50	989	9.0	-161068.0	-4044.0	-177974.0
25	16	55	50	990	10.0	-154231.0	-4088.0	-182551.0
25	16	55	50	990	11.0	-148042.0	-4119.0	-186014.0
25	16	55	50	991	12.0	-142654.0	-4156.0	-186491.0
25	16	55	50	992	13.0	-138320.0	-4199.0	-184724.0
25	16	55	50	993	14.0	-135764.0	-4208.0	-184621.0
25	16	55	50	994	16.0	-135025.0	-4259.0	-185651.0
25	16	55	50	994	17.0	-136524.0	-4271.0	-184739.0
25	16	55	50	995	18.0	-139287.0	-4311.0	-184123.0
25	16	55	50	996	19.0	-143291.0	-4335.0	-181097.0
25	16	55	50	996	20.0	-148247.0	-4327.0	-177319.0
25	16	55	50	997	21.0	-154344.0	-4342.0	-173963.0
25	16	55	50	997	22.0	-162302.0	-4372.0	-170426.0
25	16	55	51	29	23.0	-171751.0	-4417.0	-166597.0
25	16	55	51	29	24.0	-182909.0	-4465.0	-161164.0
25	16	55	51	30	25.0	-196277.0	-4478.0	-155096.0
25	16	55	51	31	26.0	-212326.0	-4499.0	-153522.0
25	16	55	51	32	27.0	-230762.0	-4503.0	-154602.0
25	16	55	51	32	28.0	-250784.0	-4523.0	-156057.0
25	16	55	51	33	29.0	-272006.0	-4544.0	-157994.0
25	16	55	51	34	30.0	-293764.0	-4581.0	-159604.0
25	16	55	51	34	31.0	-314885.0	-4584.0	-159967.0
25	16	55	51	35	32.0	-333967.0	-4612.0	-160561.0
25	16	55	51	36	33.0	-349337.0	-4671.0	-161764.0
25	16	55	51	37	34.0	-359595.0	-4719.0	-163322.0
25	16	55	51	37	35.0	-361734.0	-4751.0	-164307.0
25	16	55	51	38	36.0	-354246.0	-4801.0	-165872.0
25	16	55	51	39	37.0	-337661.0	-4845.0	-167184.0
25	16	55	51	39	39.0	-278271.0	-4911.0	-168106.0
25	16	55	51	40	40.0	-240406.0	-4932.0	-168408.0
25	16	55	51	41	41.0	-201156.0	-4967.0	-168100.0
25	16	55	51	41	42.0	-165742.0	-4977.0	-167772.0
25	16	55	51	42	43.0	-139054.0	-4982.0	-167831.0
25	16	55	51	43	44.0	-123816.0	-5001.0	-167970.0
25	16	55	51	72	45.0	-119915.0	-5024.0	-168148.0
25	16	55	51	73	46.0	-125903.0	-5036.0	-168177.0
25	16	55	51	74	47.0	-139400.0	-5061.0	-168226.0
25	16	55	51	75	48.0	-154696.0	-5086.0	-168319.0
25	16	55	51	75	49.0	-162850.0	-5124.0	-168502.0
25	16	55	51	76	50.0	-159156.0	-5163.0	-168324.0
25	16	55	51	77	51.0	-143462.0	-5181.0	-168212.0
25	16	55	51	78	52.0	-118391.0	-5219.0	-168441.0
25	16	55	51	78	53.0	-89524.0	-5254.0	-168002.0
25	16	55	51	79	54.0	-62842.0	-5274.0	-168310.0
25	16	55	51	80	55.0	-43113.0	-5287.0	-168422.0
25	16	55	51	81	56.0	-32631.0	-5291.0	-168517.0
25	16	55	51	81	57.0	-32104.0	-5320.0	-168577.0
25	16	55	51	82	58.0	-40482.0	-5358.0	-168902.0
25	16	55	51	83	59.0	-57409.0	-5376.0	-169162.0
25	16	55	51	83	61.0	-113925.0	-5437.0	-168947.0
25	16	55	51	84	62.0	-150671.0	-5451.0	-169020.0
25	16	55	51	85	63.0	-189625.0	-5462.0	-168642.0
25	16	55	51	85	64.0	-227244.0	-5469.0	-168519.0
25	16	55	51	86	65.0	-260659.0	-5496.0	-168799.0
25	16	55	51	87	66.0	-287512.0	-5517.0	-168456.0
25	16	55	51	87	67.0	-306820.0	-5530.0	-168214.0
25	16	55	51	118	68.0	-318448.0	-5534.0	-168389.0
25	16	55	51	119	69.0	-323096.0	-5552.0	-168706.0
25	16	55	51	119	70.0	-321981.0	-5564.0	-168176.0
25	16	55	51	120	71.0	-316454.0	-5580.0	-167955.0
25	16	55	51	121	72.0	-307849.0	-5607.0	-168242.0
25	16	55	51	122	73.0	-296526.0	-5628.0	-168078.0
25	16	55	51	122	74.0	-283419.0	-5658.0	-167771.0
25	16	55	51	123	75.0	-269028.0	-5672.0	-167922.0
25	16	55	51	124	76.0	-253621.0	-5677.0	-168276.0
25	16	55	51	124	77.0	-237634.0	-5711.0	-168290.0
25	16	55	51	125	78.0	-221229.0	-5726.0	-168565.0
25	16	55	51	126	79.0	-204329.0	-5737.0	-169012.0
25	16	55	51	126	80.0	-187044.0	-5754.0	-168952.0
25	16	55	51	127	81.0	-170457.0	-5792.0	-168829.0
25	16	55	51	128	82.0	-154424.0	-5782.0	-168744.0
25	16	55	51	129	84.0	-125577.0	-5815.0	-168789.0
25	16	55	51	129	85.0	-113395.0	-5824.0	-169183.0
25	16	55	51	130	86.0	-102685.0	-5847.0	-169237.0
25	16	55	51	131	87.0	-93841.0	-5877.0	-169377.0
25	16	55	51	131	88.0	-86956.0	-5916.0	-169413.0
25	16	55	51	132	89.0	-81822.0	-5937.0	-169264.0
25	16	55	51	162	90.0	-78697.0	-5955.0	-169521.0
25	16	55	51	163	91.0	-77139.0	-5966.0	-169814.0
25	16	55	51	164	92.0	-76570.0	-5999.0	-169465.0
25	16	55	51	165	93.0	-77040.0	-6015.0	-169089.0
25	16	55	51	165	94.0	-78180.0	-6034.0	-169165.0
25	16	55	51	166	95.0	-80194.0	-6042.0	-169561.0
25	16	55	51	167	96.0	-83673.0	-6064.0	-169967.0
25	16	55	51	167	97.0	-88841.0	-6081.0	-170494.0
25	16	55	51	168	98.0	-96137.0	-6096.0	-170887.0
25	16	55	51	169	99.0	-106016.0	-6100.0	-170857.0
25	16	55	51	169	100.0	-118906.0	-6139.0	-171209.0
25	16	55	51	170	101.0	-134796.0	-6157.0	-171201.0
25	16	55	51	171	102.0	-153539.0	-6173.0	-170724.0
25	16	55	51	171	103.0	-174746.0	-6194.0	-170979.0
25	16	55	51	172	104.0	-197399.0	-6200.0	-171284.0
25	16	55	51	173	106.0	-244429.0	-6216.0	-171197.0
25	16	55	51	173	107.0	-268271.0	-6227.0	-171789.0
25	16	55	51	174	108.0	-292116.0	-6237.0	-172072.0
25	16	55	51	174	109.0	-316246.0	-6238.0	-171971.0
25	16	55	51	175	110.0	-339793.0	-6245.0	-172042.0
25	16	55	51	176	111.0	-361338.0	-6244.0	-172356.0
25	16	55	51	207	112.0	-380101.0	-6224.0	-172619.0
25	16	55	51	208	113.0	-395169.0	-6215.0	-172914.0
25	16	55	51	209	114.0	-405757.0	-6197.0	-173067.0
25	16	55	51	209	115.0	-410434.0	-6211.0	-173278.0
25	16	55	51	210	116.0	-408326.0	-6179.0	-173981.0
25	16	55	51	211	117.0	-399366.0	-6153.0	-174214.0
25	16	55	51	211	118.0	-383491.0	-6126.0	-174710.0
25	16	55	51	212	119.0	-361591.0	-6096.0	-175284.0
25	16	55	51	213	120.0	-334934.0	-6067.0	-175477.0
25	16	55	51	214	121.0	-304766.0	-6017.0	-175431.0
25	16	55	51	214	122.0	-273216.0	-5974.0	-175386.0
25	16	55	51	215	123.0	-242016.0	-5916.0	-175274.0
25	16	55	51	216	124.0	-212291.0	-5861.0	-175493.0
25	16	55	51	216	125.0	-184653.0	-5822.0	-175514.0
25	16	55	51	217	126.0	-159510.0	-5777.0	-176172.0
25	16	55	51	218	129.0	-101981.0	-5617.0	-176675.0
25	16	55	51	218	130.0	-88025.0	-5531.0	-176829.0
25	16	55	51	219	131.0	-76597.0	-5472.0	-176571.0
25	16	55	51	220	132.0	-67422.0	-5396.0	-176143.0
25	16	55	51	220	133.0	-60651.0	-5302.0	-175995.0
25	16	55	51	221	134.0	-56997.0	-5205.0	-176058.0
25	16	55	51	251	135.0	-56544.0	-5111.0	-176536.0
25	16	55	51	252	136.0	-59981.0	-5019.0	-176846.0
25	16	55	51	253	137.0	-68034.0	-4935.0	-177177.0
25	16	55	51	254	138.0	-80461.0	-4851.0	-177138.0
25	16	55	51	254	139.0	-96708.0	-4768.0	-177529.0
25	16	55	51	255	140.0	-116872.0	-4706.0	-177728.0
25	16	55	51	256	141.0	-140359.0	-4609.0	-177281.0
25	16	55	51	256	142.0	-165849.0	-4496.0	-176624.0
25	16	55	51	257	143.0	-192247.0	-4379.0	-176462.0
25	16	55	51	258	144.0	-217888.0	-4263.0	-176301.0
25	16	55	51	258	145.0	-242346.0	-4166.0	-176101.0
25	16	55	51	259	146.0	-264666.0	-4049.0	-175587.0
25	16	55	51	260	147.0	-283796.0	-3941.0	-175514.0
25	16	55	51	260	148.0	-299804.0	-3831.0	-174964.0
25	16	55	51	261	149.0	-312540.0	-3732.0	-174779.0
25	16	55	51	262	151.0	-329187.0	-3525.0	-172601.0
25	16	55	51	262	152.0	-334332.0	-3415.0	-171919.0
25	16	55	51	263	153.0	-336704.0	-3308.0	-171126.0
25	16	55	51	264	154.0	-336019.0	-3211.0	-170357.0
25	16	55	51	264	155.0	-332299.0	-3120.0	-169894.0
25	16	55	51	265	156.0	-325755.0	-3014.0	-169429.0
25	16	55	51	297	157.0	-316227.0	-2921.0	-168614.0
25	16	55	51	298	158.0	-303835.0	-2814.0	-168348.0
25	16	55	51	299	159.0	-288353.0	-2699.0	-168047.0
25	16	55	51	300	160.0	-270539.0	-2607.0	-166559.0
25	16	55	51	300	161.0	-251331.0	-2541.0	-166030.0
25	16	55	51	301	162.0	-231812.0	-2479.0	-165446.0
25	16	55	51	302	163.0	-213033.0	-2380.0	-164486.0
25	16	55	51	303	164.0	-195274.0	-2268.0	-163954.0
25	16	55	51	304	165.0	-178515.0	-2180.0	-163850.0
25	16	55	51	304	166.0	-162789.0	-2107.0	-163204.0
25	16	55	51	305	167.0	-148222.0	-2020.0	-162702.0
25	16	55	51	306	168.0	-134502.0	-1910.0	-162513.0
25	16	55	51	307	169.0	-121408.0	-1836.0	-161972.0
25	16	55	51	308	170.0	-109051.0	-1763.0	-161212.0
25	16	55	51	308	171.0	-98034.0	-1674.0	-160950.0
25	16	55	51	309	173.0	-81540.0	-1481.0	-160136.0
25	16	55	51	310	174.0	-77201.0	-1404.0	-159570.0
25	16	55	51	310	175.0	-75302.0	-1314.0	-159201.0
25	16	55	51	311	176.0	-76221.0	-1215.0	-159179.0
25	16	55	51	311	177.0	-79867.0	-1119.0	-158990.0
25	16	55	51	312	178.0	-86633.0	-1036.0	-158976.0
25	16	55	51	313	179.0	-96518.0	-936.0	-158785.0
25	16	55	51	342	180.0	-108796.0	-836.0	-158684.0
25	16	55	51	343	181.0	-122996.0	-740.0	-158246.0
25	16	55	51	344	182.0	-139045.0	-651.0	-158075.0
25	16	55	51	345	183.0	-153737.0	-578.0	-157889.0
25	16	55	51	345	184.0	-167391.0	-482.0	-158215.0
25	16	55	51	346	185.0	-179381.0	-402.0	-158327.0
25	16	55	51	347	186.0	-189136.0	-329.0	-158444.0
25	16	55	51	348	187.0	-196609.0	-234.0	-158674.0
25	16	55	51	349	188.0	-209792.0	-184.0	-158717.0
25	16	55	51	349	189.0	-226463.0	-117.0	-158724.0
25	16	55	51	350	190.0	-247373.0	-64.0	-158796.0
25	16	55	51	351	191.0	-275064.0	20.0	-158672.0
25	16	55	51	352	192.0	-302524.0	81.0	-158449.0
25	16	55	51	352	193.0	-323955.0	162.0	-158572.0
25	16	55	51	353	194.0	-338924.0	235.0	-158677.0
25	16	55	51	354	196.0	-345543.0	376.0	-158187.0
25	16	55	51	355	197.0	-333457.0	437.0	-158347.0
25	16	55	51	355	198.0	-315879.0	489.0	-158372.0
25	16	55	51	356	199.0	-296120.0	558.0	-158372.0
25	16	55	51	356	200.0	-275775.0	617.0	-158520.0
25	16	55	51	357	201.0	-254797.0	698.0	-158140.0
25	16	55	51	387	202.0	-234428.0	778.0	-157631.0
25	16	55	51	388	203.0	-216264.0	825.0	-157579.0
25	16	55	51	389	204.0	-200859.0	883.0	-157739.0
25	16	55	51	390	205.0	-187897.0	947.0	-157344.0
25	16	55	51	390	206.0	-176801.0	1006.0	-157349.0
25	16	55	51	391	207.0	-166061.0	1060.0	-157855.0
25	16	55	51	392	208.0	-154706.0	1112.0	-158287.0
25	16	55	51	392	209.0	-142751.0	1163.0	-158152.0
25	16	55	51	393	210.0	-131662.0	1216.0	-158113.0
25	16	55	51	394	211.0	-123139.0	1276.0	-157882.0
25	16	55	51	395	212.0	-118546.0	1342.0	-157854.0
25	16	55	51	395	213.0	-118709.0	1386.0	-158277.0
25	16	55	51	396	214.0	-123430.0	1429.0	-158210.0
25	16	55	51	397	215.0	-132472.0	1473.0	-157854.0
25	16	55	51	397	216.0	-144293.0	1502.0	-158402.0
25	16	55	51	398	218.0	-169009.0	1556.0	-158560.0
25	16	55	51	399	219.0	-179239.0	1586.0	-158121.0
25	16	55	51	399	220.0	-186961.0	1589.0	-158051.0
25	16	55	51	400	221.0	-192137.0	1610.0	-157609.0
25	16	55	51	401	222.0	-194876.0	1651.0	-157349.0
25	16	55	51	401	223.0	-196314.0	1681.0	-157509.0
25	16	55	51	402	224.0	-197384.0	1696.0	-157231.0
25	16	55	51	432	225.0	-198242.0	1711.0	-156747.0
25	16	55	51	433	226.0	-199166.0	1747.0	-156991.0
25	16	55	51	434	227.0	-200416.0	1770.0	-157172.0
25	16	55	51	435	228.0	-202202.0	1770.0	-156488.0
25	16	55	51	436	229.0	-204661.0	1769.0	-156612.0
25	16	55	51	436	230.0	-207539.0	1778.0	-156044.0
25	16	55	51	437	231.0	-210687.0	1776.0	-155957.0
25	16	55	51	438	232.0	-213940.0	1769.0	-155880.0
25	16	55	51	439	233.0	-216908.0	1784.0	-155796.0
25	16	55	51	440	234.0	-219397.0	1804.0	-155578.0
25	16	55	51	440	235.0	-221101.0	1813.0	-155514.0
25	16	55	51	441	236.0	-221603.0	1800.0	-155711.0
25	16	55	51	442	237.0	-221069.0	1809.0	-155929.0
25	16	55	51	442	238.0	-219522.0	1837.0	-155834.0
25	16	55	51	443	239.0	-217329.0	1838.0	-155553.0
25	16	55	51	444	241.0	-211493.0	1841.0	-155226.0
25	16	55	51	445	242.0	-208044.0	1826.0	-154837.0
25	16	55	51	445	243.0	-204056.0	1843.0	-154791.0
25	16	55	51	446	244.0	-199986.0	1843.0	-154660.0
25	16	55	51	447	245.0	-195930.0	1836.0	-154622.0
25	16	55	51	447	246.0	-191534.0	1844.0	-154504.0
25	16	55	51	477	247.0	-186664.0	1853.0	-154462.0
25	16	55	51	478	248.0	-181244.0	1871.0	-154554.0
25	16	55	51	479	249.0	-175100.0	1865.0	-154235.0
25	16	55	51	480	250.0	-168258.0	1854.0	-153832.0
25	16	55	51	480	251.0	-160839.0	1843.0	-153319.0
25	16	55	51	481	252.0	-152407.0	1834.0	-153080.0
25	16	55	51	482	253.0	-142941.0	1839.0	-153036.0
25	16	55	51	483	254.0	-132799.0	1845.0	-153122.0
25	16	55	51	484	255.0	-123016.0	1843.0	-153366.0
25	16	55	51	485	0.0	-114882.0	1867.0	-153552.0
25	16	55	51	486	1.0	-108777.0	1888.0	-153316.0
25	16	55	51	486	2.0	-105108.0	1921.0	-153515.0
25	16	55	51	487	3.0	-104295.0	1943.0	-153823.0
25	16	55	51	488	4.0	-106455.0	1962.0	-153501.0
25	16	55	51	489	5.0	-111299.0	1986.0	-153712.0
25	16	55	51	489	7.0	-125976.0	2022.0	-153116.0
25	16	55	51	490	8.0	-135374.0	2029.0	-153677.0
25	16	55	51	490	9.0	-145410.0	2051.0	-154209.0
25	16	55	51	491	10.0	-155432.0	2079.0	-153993.0
25	16	55	51	492	11.0	-165887.0	2093.0	-153790.0
25	16	55	51	492	12.0	-176907.0	2115.0	-154407.0
25	16	55	51	493	13.0	-188836.0	2133.0	-154071.0
25	16	55	51	522	14.0	-201777.0	2141.0	-153693.0
25	16	55	51	523	15.0	-214489.0	2148.0	-153691.0
25	16	55	51	524	16.0	-227856.0	2131.0	-153601.0
25	16	55	51	525	17.0	-241471.0	2141.0	-153569.0
25	16	55	51	526	18.0	-255018.0	2163.0	-153642.0
25	16	55	51	527	19.0	-268297.0	2159.0	-154060.0
25	16	55	51	528	20.0	-280926.0	2163.0	-154246.0
25	16	55	51	528	21.0	-292344.0	2164.0	-153907.0
25	16	55	51	529	22.0	-302172.0	2179.0	-153806.0
25	16	55	51	530	23.0	-309811.0	2188.0	-153430.0
25	16	55	51	531	24.0	-315240.0	2206.0	-153640.0
25	16	55	51	531	25.0	-318629.0	2253.0	-153484.0
25	16	55	51	532	26.0	-320160.0	2270.0	-153366.0
25	16	55	51	533	27.0	-319877.0	2260.0	-153384.0
25	16	55	51	534	28.0	-318074.0	2280.0	-153437.0
25	16	55	51	534	30.0	-310289.0	2293.0	-153343.0
25	16	55	51	535	31.0	-304634.0	2309.0	-153786.0
25	16	55	51	536	32.0	-297796.0	2319.0	-153904.0
25	16	55	51	536	33.0	-289524.0	2318.0	-153526.0
25	16	55	51	537	34.0	-279953.0	2342.0	-153205.0
25	16	55	51	538	35.0	-268817.0	2340.0	-152960.0
25	16	55	51	566	36.0	-255626.0	2324.0	-153126.0
25	16	55	51	567	37.0	-240813.0	2319.0	-153430.0
25	16	55	51	568	38.0	-224456.0	2334.0	-153839.0
25	16	55	51	569	39.0	-206676.0	2319.0	-153692.0
25	16	55	51	570	40.0	-188232.0	2307.0	-153928.0
25	16	55	51	571	41.0	-170451.0	2273.0	-154382.0
25	16	55	51	571	42.0	-154354.0	2229.0	-153819.0
25	16	55	51	572	43.0	-138490.0	2211.0	-153538.0
25	16	55	51	573	44.0	-123799.0	2194.0	-153351.0
25	16	55	51	574	45.0	-110539.0	2168.0	-152859.0
25	16	55	51	574	46.0	-98532.0	2156.0	-152599.0
25	16	55	51	575	47.0	-88876.0	2148.0	-152551.0
25	16	55	51	576	48.0	-81879.0	2125.0	-152611.0
25	16	55	51	577	49.0	-77835.0	2105.0	-152854.0
25	16	55	51	577	50.0	-77646.0	2087.0	-153141.0
25	16	55	51	578	52.0	-89363.0	2065.0	-152927.0
25	16	55	51	579	53.0	-101642.0	2076.0	-152788.0
25	16	55	51	579	54.0	-117344.0	2091.0	-152772.0
25	16	55	51	580	55.0	-134587.0	2082.0	-152512.0
25	16	55	51	580	56.0	-152287.0	2074.0	-152306.0
25	16	55	51	581	57.0	-170533.0	2053.0	-152359.0
25	16	55	51	612	58.0	-188446.0	2042.0	-152355.0
25	16	55	51	613	59.0	-205774.0	2030.0	-152214.0
25	16	55	51	613	60.0	-222260.0	1986.0	-152579.0
25	16	55	51	614	61.0	-237131.0	1966.0	-152546.0
25	16	55	51	614	62.0	-249812.0	1941.0	-152284.0
25	16	55	51	615	63.0	-260497.0	1905.0	-152403.0
25	16	55	51	616	64.0	-269042.0	1871.0	-152179.0
25	16	55	51	616	65.0	-275714.0	1826.0	-151832.0
25	16	55	51	617	66.0	-280271.0	1798.0	-151609.0
25	16	55	51	618	67.0	-283004.0	1756.0	-151164.0
25	16	55	51	618	68.0	-284822.0	1726.0	-151362.0
25	16	55	51	619	69.0	-285291.0	1678.0	-151520.0
25	16	55	51	619	70.0	-284471.0	1638.0	-151641.0
25	16	55	51	620	71.0	-282026.0	1608.0	-151474.0
25	16	55	51	621	72.0	-278169.0	1574.0	-151256.0
25	16	55	51	621	74.0	-266910.0	1471.0	-151194.0
25	16	55	51	622	75.0	-260011.0	1423.0	-150653.0
25	16	55	51	623	76.0	-252516.0	1383.0	-150827.0
25	16	55	51	623	77.0	-245086.0	1344.0	-151112.0
25	16	55	51	624	78.0	-237207.0	1309.0	-150861.0
25	16	55	51	624	79.0	-228818.0	1272.0	-150382.0
25	16	55	51	625	80.0	-220659.0	1244.0	-150609.0
25	16	55	51	656	81.0	-213114.0	1223.0	-150217.0
25	16	55	51	657	82.0	-206886.0	1187.0	-150025.0
25	16	55	51	658	83.0	-201495.0	1142.0	-149721.0
25	16	55	51	658	84.0	-197059.0	1121.0	-149626.0
25	16	55	51	659	85.0	-193673.0	1066.0	-149249.0
25	16	55	51	660	86.0	-190918.0	1048.0	-149219.0
25	16	55	51	660	87.0	-188566.0	1009.0	-149779.0
25	16	55	51	661	88.0	-185821.0	968.0	-149983.0
25	16	55	51	661	89.0	-182603.0	927.0	-150343.0
25	16	55	51	662	90.0	-179241.0	905.0	-150932.0
25	16	55	51	663	91.0	-176364.0	873.0	-150881.0
25	16	55	51	663	92.0	-174217.0	863.0	-150551.0
25	16	55	51	664	93.0	-172744.0	831.0	-149982.0
25	16	55	51	665	94.0	-172525.0	791.0	-149729.0
25	16	55	51	665	95.0	-173724.0	751.0	-149170.0
25	16	55	51	666	97.0	-180381.0	714.0	-148877.0
25	16	55	51	666	98.0	-185509.0	694.0	-148834.0
25	16	55	51	667	99.0	-191463.0	683.0	-148926.0
25	16	55	51	668	100.0	-197053.0	672.0	-148721.0
25	16	55	51	668	101.0	-201703.0	647.0	-148551.0
25	16	55	51	669	102.0	-205257.0	646.0	-148552.0
25	16	55	51	702	103.0	-207775.0	641.0	-148277.0
25	16	55	51	702	104.0	-208794.0	630.0	-148062.0
25	16	55	51	703	105.0	-208344.0	618.0	-147787.0
25	16	55	51	704	106.0	-206762.0	568.0	-147740.0
25	16	55	51	704	107.0	-203624.0	553.0	-147847.0
25	16	55	51	705	108.0	-199092.0	526.0	-147921.0
25	16	55	51	706	109.0	-193456.0	513.0	-148004.0
25	16	55	51	706	110.0	-187271.0	518.0	-147681.0
25	16	55	51	707	111.0	-180564.0	511.0	-147202.0
25	16	55	51	708	112.0	-173139.0	481.0	-147430.0
25	16	55	51	708	113.0	-165400.0	474.0	-147269.0
25	16	55	51	709	114.0	-158003.0	461.0	-146915.0
25	16	55	51	709	115.0	-151431.0	451.0	-146456.0
25	16	55	51	710	116.0	-145714.0	444.0	-146634.0
25	16	55	51	711	117.0	-140827.0	435.0	-146059.0
25	16	55	51	711	119.0	-134929.0	418.0	-146234.0
25	16	55	51	712	120.0	-133828.0	409.0	-146372.0
25	16	55	51	713	121.0	-134101.0	382.0	-145993.0
25	16	55	51	713	122.0	-136021.0	387.0	-145677.0
25	16	55	51	714	123.0	-139941.0	378.0	-145417.0
25	16	55	51	714	124.0	-145509.0	379.0	-145027.0
25	16	55	51	715	125.0	-152965.0	373.0	-144733.0
25	16	55	51	747	126.0	-162706.0	356.0	-144536.0
25	16	55	51	748	127.0	-174217.0	359.0	-144515.0
25	16	55	51	749	128.0	-186671.0	358.0	-144994.0
25	16	55	51	749	129.0	-199822.0	369.0	-145456.0
25	16	55	51	750	130.0	-213299.0	360.0	-145142.0
25	16	55	51	751	131.0	-226353.0	350.0	-145358.0
25	16	55	51	751	132.0	-238568.0	360.0	-145387.0
25	16	55	51	752	133.0	-249112.0	358.0	-144931.0
25	16	55	51	752	134.0	-257637.0	329.0	-144959.0
25	16	55	51	753	135.0	-264133.0	318.0	-144901.0
25	16	55	51	754	136.0	-268956.0	311.0	-144536.0
25	16	55	51	754	137.0	-272365.0	288.0	-144813.0
25	16	55	51	755	138.0	-273982.0	268.0	-144529.0
25	16	55	51	755	139.0	-273764.0	223.0	-144562.0
25	16	55	51	756	140.0	-272352.0	200.0	-144187.0
25	16	55	51	757	142.0	-267761.0	200.0	-144071.0
25	16	55	51	757	143.0	-265037.0	176.0	-143904.0
25	16	55	51	758	144.0	-260958.0	155.0	-144268.0
25	16	55	51	759	145.0	-255701.0	156.0	-144560.0
25	16	55	51	759	146.0	-249122.0	178.0	-144492.0
25	16	55	51	760	147.0	-240979.0	158.0	-145052.0
25	16	55	51	793	148.0	-231680.0	151.0	-146874.0
25	16	55	51	793	149.0	-220963.0	129.0	-149123.0
25	16	55	51	794	150.0	-208307.0	124.0	-152749.0
25	16	55	51	794	151.0	-194041.0	127.0	-157247.0
25	16	55	51	795	152.0	-179684.0	139.0	-161078.0
25	16	55	51	796	153.0	-164647.0	135.0	-162982.0
25	16	55	51	796	154.0	-149030.0	119.0	-162584.0
25	16	55	51	797	155.0	-132834.0	116.0	-161754.0
25	16	55	51	797	156.0	-117610.0	104.0	-162404.0
25	16	55	51	798	157.0	-104256.0	85.0	-162811.0
25	16	55	51	799	158.0	-93769.0	73.0	-162581.0
25	16	55	51	799	159.0	-86838.0	83.0	-161774.0
25	16	55	51	800	160.0	-84169.0	68.0	-160007.0
25	16	55	51	800	161.0	-86125.0	54.0	-156229.0
25	16	55	51	801	162.0	-93028.0	30.0	-152219.0
25	16	55	51	802	164.0	-122498.0	-4.0	-146542.0
25	16	55	51	802	165.0	-145209.0	-6.0	-142722.0
25	16	55	51	803	166.0	-169854.0	-26.0	-137376.0
25	16	55	51	803	167.0	-194989.0	-46.0	-132661.0
25	16	55	51	804	168.0	-219709.0	-41.0	-132646.0
25	16	55	51	805	169.0	-244471.0	-29.0	-134192.0
25	16	55	51	805	170.0	-269065.0	-36.0	-136345.0
25	16	55	51	836	171.0	-293082.0	-46.0	-138231.0
25	16	55	51	837	172.0	-316011.0	-42.0	-139016.0
25	16	55	51	839	173.0	-336917.0	-67.0	-139752.0
25	16	55	51	839	174.0	-354801.0	-78.0	-140001.0
25	16	55	51	840	175.0	-367726.0	-75.0	-141205.0
25	16	55	51	841	176.0	-373706.0	-109.0	-142856.0
25	16	55	51	841	177.0	-370705.0	-125.0	-144032.0
25	16	55	51	842	178.0	-358927.0	-151.0	-144182.0
25	16	55	51	842	179.0	-337811.0	-177.0	-144782.0
25	16	55	51	843	180.0	-308745.0	-191.0	-145475.0
25	16	55	51	844	181.0	-274654.0	-237.0	-145836.0
25	16	55	51	844	182.0	-238685.0	-255.0	-144812.0
25	16	55	51	845	183.0	-205229.0	-255.0	-144698.0
25	16	55	51	845	184.0	-179348.0	-252.0	-144646.0
25	16	55	51	846	185.0	-165067.0	-260.0	-144206.0
25	16	55	51	847	187.0	-173896.0	-229.0	-144049.0
25	16	55	51	847	188.0	-194285.0	-220.0	-144399.0
25	16	55	51	848	189.0	-218184.0	-206.0	-144057.0
25	16	55	51	848	190.0	-235487.0	-183.0	-144194.0
25	16	55	51	849	191.0	-239357.0	-158.0	-144342.0
25	16	55	51	850	192.0	-227469.0	-166.0	-143961.0
25	16	55	51	881	193.0	-202356.0	-158.0	-143836.0
25	16	55	51	882	194.0	-170395.0	-148.0	-143599.0
25	16	55	51	883	195.0	-137840.0	-157.0	-143427.0
25	16	55	51	891	196.0	-108691.0	-186.0	-143452.0
25	16	55	51	892	197.0	-86178.0	-192.0	-142984.0
25	16	55	51	892	198.0	-72052.0	-202.0	-142931.0
25	16	55	51	893	199.0	-67084.0	-189.0	-143591.0
25	16	55	51	894	200.0	-71275.0	-194.0	-143665.0
25	16	55	51	894	201.0	-84231.0	-206.0	-143543.0
25	16	55	51	895	202.0	-105469.0	-199.0	-143392.0
25	16	55	51	895	203.0	-133005.0	-191.0	-143245.0
25	16	55	51	896	204.0	-163154.0	-183.0	-142971.0
25	16	55	51	897	205.0	-191191.0	-189.0	-142716.0
25	16	55	51	897	206.0	-212884.0	-194.0	-142835.0
25	16	55	51	898	207.0	-226299.0	-214.0	-142897.0
25	16	55	51	898	209.0	-226421.0	-226.0	-143098.0
25	16	55	51	899	210.0	-215992.0	-216.0	-143264.0
25	16	55	51	899	211.0	-201322.0	-242.0	-143146.0
25	16	55	51	900	212.0	-184909.0	-267.0	-143438.0
25	16	55	51	901	213.0	-168392.0	-282.0	-143530.0
25	16	55	51	901	214.0	-153064.0	-314.0	-142973.0
25	16	55	51	927	215.0	-139795.0	-319.0	-143220.0
25	16	55	51	928	216.0	-129521.0	-328.0	-143887.0
25	16	55	51	928	217.0	-122157.0	-337.0	-143745.0
25	16	55	51	929	218.0	-117626.0	-342.0	-143466.0
25	16	55	51	930	219.0	-116276.0	-350.0	-143825.0
25	16	55	51	930	220.0	-117507.0	-381.0	-143863.0
25	16	55	51	931	221.0	-121176.0	-407.0	-143737.0
25	16	55	51	932	222.0	-127097.0	-419.0	-143610.0
25	16	55	51	932	223.0	-135206.0	-430.0	-143710.0
25	16	55	51	933	224.0	-145536.0	-434.0	-143437.0
25	16	55	51	934	225.0	-157611.0	-454.0	-143662.0
25	16	55	51	934	226.0	-171254.0	-462.0	-143627.0
25	16	55	51	935	227.0	-185974.0	-473.0	-143453.0
25	16	55	51	935	228.0	-201603.0	-485.0	-143851.0
25	16	55	51	936	229.0	-217787.0	-519.0	-143721.0
25	16	55	51	937	232.0	-265339.0	-606.0	-143638.0
25	16	55	51	937	233.0	-278526.0	-624.0	-143667.0
25	16	55	51	938	234.0	-289472.0	-627.0	-143811.0
25	16	55	51	939	235.0	-297712.0	-633.0	-144058.0
25	16	55	51	939	236.0	-302989.0	-648.0	-144485.0
25	16	55	51	940	237.0	-305221.0	-650.0	-144541.0
25	16	55	51	972	238.0	-305219.0	-653.0	-144950.0
25	16	55	51	973	239.0	-303476.0	-667.0	-144889.0
25	16	55	51	974	240.0	-300336.0	-668.0	-144745.0
25	16	55	51	974	241.0	-296029.0	-666.0	-145302.0
25	16	55	51	975	242.0	-290633.0	-691.0	-145396.0
25	16	55	51	976	243.0	-284644.0	-722.0	-145401.0
25	16	55	51	976	244.0	-277669.0	-732.0	-145527.0
25	16	55	51	977	245.0	-269566.0	-739.0	-145799.0
25	16	55	51	977	246.0	-259809.0	-749.0	-145765.0
25	16	55	51	978	247.0	-248946.0	-752.0	-146100.0
25	16	55	51	979	248.0	-237228.0	-762.0	-146445.0
25	16	55	51	979	249.0	-224859.0	-744.0	-146261.0
25	16	55	51	980	250.0	-212050.0	-771.0	-146371.0
25	16	55	51	981	251.0	-199517.0	-827.0	-147026.0
25	16	55	51	981	252.0	-188057.0	-824.0	-147510.0
25	16	55	51	982	254.0	-169268.0	-829.0	-146973.0
25	16	55	51	983	255.0	-161157.0	-825.0	-147208.0
25	16	55	51	983	0.0	-153322.0	-835.0	-147709.0
25	16	55	51	984	1.0	-145882.0	-853.0	-148213.0
25	16	55	51	984	2.0	-138362.0	-852.0	-148874.0
25	16	55	51	985	3.0	-130644.0	-885.0	-149161.0
25	16	55	52	18	4.0	-122740.0	-901.0	-149336.0
25	16	55	52	18	5.0	-114989.0	-887.0	-149892.0
25	16	55	52	19	6.0	-107764.0	-907.0	-150318.0
25	16	55	52	20	7.0	-101201.0	-916.0	-150226.0
25	16	55	52	20	8.0	-96291.0	-922.0	-150164.0
25	16	55	52	21	9.0	-93714.0	-931.0	-150392.0
25	16	55	52	21	10.0	-93578.0	-924.0	-150754.0
25	16	55	52	22	11.0	-95944.0	-917.0	-151132.0
25	16	55	52	23	12.0	-101018.0	-937.0	-151953.0
25	16	55	52	23	13.0	-108777.0	-931.0	-152223.0
25	16	55	52	24	14.0	-118411.0	-906.0	-152471.0
25	16	55	52	25	15.0	-129401.0	-866.0	-152775.0
25	16	55	52	25	16.0	-141704.0	-836.0	-152641.0
25	16	55	52	26	17.0	-155237.0	-806.0	-153084.0
25	16	55	52	27	18.0	-170369.0	-758.0	-153059.0
25	16	55	52	27	20.0	-205348.0	-676.0	-153089.0
25	16	55	52	28	21.0	-224219.0	-606.0	-153393.0
25	16	55	52	29	22.0	-243012.0	-547.0	-153658.0
25	16	55	52	29	23.0	-260455.0	-487.0	-153385.0
25	16	55	52	30	24.0	-276149.0	-422.0	-153778.0
25	16	55	52	31	25.0	-289275.0	-329.0	-153491.0
25	16	55	52	31	26.0	-299262.0	-261.0	-152935.0
25	16	55	52	62	27.0	-306412.0	-179.0	-153189.0
25	16	55	52	63	28.0	-309709.0	-71.0	-152902.0
25	16	55	52	63	29.0	-309343.0	2.0	-151906.0
25	16	55	52	73	30.0	-307071.0	55.0	-151672.0
25	16	55	52	74	31.0	-303371.0	128.0	-151381.0
25	16	55	52	74	32.0	-298258.0	187.0	-150973.0
25	16	55	52	75	33.0	-291277.0	246.0	-150709.0
25	16	55	52	75	34.0	-282015.0	311.0	-150445.0
25	16	55	52	76	35.0	-270604.0	381.0	-150462.0
25	16	55	52	77	36.0	-257369.0	445.0	-149696.0
25	16	55	52	77	37.0	-242960.0	515.0	-149289.0
25	16	55	52	78	38.0	-228435.0	586.0	-148696.0
25	16	55	52	78	39.0	-214793.0	670.0	-147812.0
25	16	55	52	79	40.0	-202507.0	716.0	-146882.0
25	16	55	52	80	41.0	-191645.0	781.0	-146556.0
25	16	55	52	80	43.0	-174951.0	916.0	-145756.0
25	16	55	52	81	44.0	-169522.0	983.0	-145086.0
25	16	55	52	81	45.0	-166457.0	1058.0	-144338.0
25	16	55	52	82	46.0	-165444.0	1149.0	-143474.0
25	16	55	52	82	47.0	-165942.0	1237.0	-142631.0
25	16	55	52	83	48.0	-168072.0	1303.0	-142026.0
25	16	55	52	108	49.0	-170806.0	1377.0	-141633.0
25	16	55	52	122	50.0	-172756.0	1479.0	-141030.0
25	16	55	52	123	51.0	-173012.0	1564.0	-140404.0
25	16	55	52	123	52.0	-171199.0	1636.0	-139861.0
25	16	55	52	124	53.0	-167200.0	1681.0	-139427.0
25	16	55	52	125	54.0	-162041.0	1733.0	-139001.0
25	16	55	52	125	55.0	-156872.0	1785.0	-138668.0
25	16	55	52	126	56.0	-151807.0	1834.0	-138326.0
25	16	55	52	126	57.0	-147534.0	1898.0	-138112.0
25	16	55	52	127	58.0	-144727.0	1956.0	-137296.0
25	16	55	52	127	59.0	-142767.0	2013.0	-136822.0
25	16	55	52	128	60.0	-141582.0	2085.0	-136436.0
25	16	55	52	129	61.0	-141461.0	2146.0	-135065.0
25	16	55	52	129	62.0	-142578.0	2188.0	-134694.0
25	16	55	52	130	63.0	-145217.0	2213.0	-134452.0
25	16	55	52	130	65.0	-154790.0	2321.0	-132936.0
25	16	55	52	131	66.0	-161185.0	2362.0	-132812.0
25	16	55	52	132	67.0	-167451.0	2416.0	-132434.0
25	16	55	52	132	68.0	-173756.0	2486.0	-131829.0
25	16	55	52	133	69.0	-180099.0	2539.0	-131134.0
25	16	55	52	133	70.0	-184269.0	2591.0	-131014.0
25	16	55	52	134	71.0	-188370.0	2650.0	-130267.0
25	16	55	52	152	72.0	-194947.0	2709.0	-130179.0
25	16	55	52	152	73.0	-201453.0	2713.0	-129964.0
25	16	55	52	153	74.0	-212816.0	2736.0	-129389.0
25	16	55	52	154	75.0	-232369.0	2755.0	-128949.0
25	16	55	52	154	76.0	-255577.0	2804.0	-128919.0
25	16	55	52	155	77.0	-283732.0	2853.0	-128657.0
25	16	55	52	156	78.0	-314851.0	2908.0	-128869.0
25	16	55	52	156	79.0	-341406.0	2951.0	-128959.0
25	16	55	52	157	80.0	-361211.0	2978.0	-128911.0
25	16	55	52	158	81.0	-370649.0	2999.0	-129255.0
25	16	55	52	158	82.0	-368728.0	3062.0	-129594.0
25	16	55	52	159	83.0	-356216.0	3111.0	-129456.0
25	16	55	52	160	84.0	-334445.0	3140.0	-129125.0
25	16	55	52	161	85.0	-306791.0	3201.0	-128641.0
25	16	55	52	161	86.0	-275886.0	3234.0	-128627.0
25	16	55	52	162	88.0	-219898.0	3276.0	-128167.0
25	16	55	52	163	89.0	-199249.0	3304.0	-128443.0
25	16	55	52	163	90.0	-183116.0	3334.0	-128447.0
25	16	55	52	164	91.0	-169442.0	3368.0	-128651.0
25	16	55	52	164	92.0	-156496.0	3381.0	-129216.0
25	16	55	52	165	93.0	-142771.0	3408.0	-129032.0
25	16	55	52	197	94.0	-127645.0	3429.0	-129135.0
25	16	55	52	198	95.0	-112283.0	3436.0	-129826.0
25	16	55	52	199	96.0	-98318.0	3463.0	-129591.0
25	16	55	52	199	97.0	-87616.0	3497.0	-128878.0
25	16	55	52	200	98.0	-81120.0	3531.0	-128875.0
25	16	55	52	201	99.0	-79599.0	3542.0	-129611.0
25	16	55	52	201	100.0	-83537.0	3541.0	-129426.0
25	16	55	52	202	101.0	-93307.0	3570.0	-129737.0
25	16	55	52	202	102.0	-108415.0	3600.0	-130200.0
25	16	55	52	203	103.0	-126518.0	3608.0	-130195.0
25	16	55	52	204	104.0	-145269.0	3611.0	-130453.0
25	16	55	52	204	105.0	-163521.0	3626.0	-130603.0
25	16	55	52	205	106.0	-179689.0	3636.0	-130388.0
25	16	55	52	206	107.0	-193195.0	3629.0	-130227.0
25	16	55	52	206	108.0	-204143.0	3618.0	-130919.0
25	16	55	52	207	110.0	-218096.0	3618.0	-131689.0
25	16	55	52	208	111.0	-222237.0	3614.0	-132101.0
25	16	55	52	208	112.0	-225496.0	3606.0	-132655.0
25	16	55	52	209	113.0	-227729.0	3593.0	-132787.0
25	16	55	52	209	114.0	-229405.0	3607.0	-133158.0
25	16	55	52	210	115.0	-229966.0	3599.0	-132994.0
25	16	55	52	211	116.0	-228689.0	3576.0	-133212.0
25	16	55	52	242	117.0	-226159.0	3554.0	-133198.0
25	16	55	52	243	118.0	-223011.0	3561.0	-133431.0
25	16	55	52	244	119.0	-219389.0	3575.0	-133385.0
25	16	55	52	245	120.0	-215394.0	3586.0	-133739.0
25	16	55	52	246	121.0	-211877.0	3570.0	-134101.0
25	16	55	52	246	122.0	-209336.0	3566.0	-134313.0
25	16	55	52	247	123.0	-207304.0	3559.0	-134122.0
25	16	55	52	248	124.0	-205221.0	3544.0	-133489.0
25	16	55	52	249	125.0	-203227.0	3531.0	-132942.0
25	16	55	52	249	126.0	-201341.0	3523.0	-132526.0
25	16	55	52	250	127.0	-198986.0	3511.0	-131804.0
25	16	55	52	251	128.0	-196492.0	3521.0	-130985.0
25	16	55	52	251	129.0	-194072.0	3538.0	-130453.0
25	16	55	52	252	130.0	-192222.0	3531.0	-130389.0
25	16	55	52	253	131.0	-191058.0	3504.0	-130642.0
25	16	55	52	253	133.0	-190076.0	3526.0	-130850.0
25	16	55	52	254	134.0	-191264.0	3506.0	-130979.0
25	16	55	52	254	135.0	-193774.0	3470.0	-130776.0
25	16	55	52	255	136.0	-197636.0	3465.0	-130271.0
25	16	55	52	256	137.0	-202213.0	3473.0	-129586.0
25	16	55	52	256	138.0	-206960.0	3484.0	-129631.0
25	16	55	52	287	139.0	-211189.0	3501.0	-129758.0
25	16	55	52	287	140.0	-214609.0	3514.0	-129625.0
25	16	55	52	289	141.0	-216820.0	3502.0	-130163.0
25	16	55	52	290	142.0	-217532.0	3490.0	-130122.0
25	16	55	52	290	143.0	-216633.0	3488.0	-129929.0
25	16	55	52	291	144.0	-214511.0	3478.0	-130045.0
25	16	55	52	292	145.0	-212036.0	3454.0	-129847.0
25	16	55	52	292	146.0	-209735.0	3475.0	-129552.0
25	16	55	52	293	147.0	-207206.0	3479.0	-129467.0
25	16	55	52	294	148.0	-203982.0	3470.0	-129250.0
25	16	55	52	295	149.0	-198710.0	3466.0	-129187.0
25	16	55	52	295	150.0	-191605.0	3456.0	-128859.0
25	16	55	52	296	151.0	-183777.0	3421.0	-128719.0
25	16	55	52	296	152.0	-176216.0	3424.0	-128989.0
25	16	55	52	297	153.0	-169981.0	3395.0	-129245.0
25	16	55	52	298	155.0	-160396.0	3361.0	-128821.0
25	16	55	52	298	156.0	-157096.0	3383.0	-129177.0
25	16	55	52	299	157.0	-154976.0	3383.0	-128806.0
25	16	55	52	300	158.0	-154242.0	3388.0	-128598.0
25	16	55	52	300	159.0	-154263.0	3406.0	-129034.0
25	16	55	52	301	160.0	-154997.0	3409.0	-129335.0
25	16	55	52	333	161.0	-156347.0	3394.0	-128914.0
25	16	55	52	334	162.0	-158301.0	3386.0	-128909.0
25	16	55	52	334	163.0	-160969.0	3367.0	-129551.0
25	16	55	52	335	164.0	-164077.0	3358.0	-129676.0
25	16	55	52	336	165.0	-168069.0	3349.0	-129321.0
25	16	55	52	336	166.0	-172884.0	3341.0	-129521.0
25	16	55	52	337	167.0	-178024.0	3320.0	-129777.0
25	16	55	52	338	168.0	-183257.0	3299.0	-129498.0
25	16	55	52	338	169.0	-188121.0	3261.0	-129574.0
25	16	55	52	339	170.0	-192679.0	3235.0	-129971.0
25	16	55	52	340	171.0	-196907.0	3224.0	-129872.0
25	16	55	52	340	172.0	-200872.0	3204.0	-129905.0
25	16	55	52	341	173.0	-205226.0	3168.0	-130214.0
25	16	55	52	342	174.0	-210480.0	3167.0	-130186.0
25	16	55	52	342	175.0	-216835.0	3136.0	-129956.0
25	16	55	52	343	177.0	-233196.0	3090.0	-129720.0
25	16	55	52	343	178.0	-241293.0	3064.0	-129349.0
25	16	55	52	344	179.0	-248074.0	3044.0	-129283.0
25	16	55	52	345	180.0	-252947.0	3006.0	-129332.0
25	16	55	52	378	181.0	-255130.0	2982.0	-129732.0
25	16	55	52	378	182.0	-254758.0	2961.0	-130144.0
25	16	55	52	379	183.0	-252277.0	2940.0	-130267.0
25	16	55	52	380	184.0	-248267.0	2938.0	-130343.0
25	16	55	52	381	185.0	-243117.0	2891.0	-130511.0
25	16	55	52	381	186.0	-237152.0	2843.0	-130214.0
25	16	55	52	382	187.0	-230551.0	2836.0	-129761.0
25	16	55	52	383	188.0	-223905.0	2804.0	-129978.0
25	16	55	52	383	189.0	-217166.0	2765.0	-130053.0
25	16	55	52	384	190.0	-210279.0	2739.0	-130087.0
25	16	55	52	385	191.0	-203880.0	2707.0	-130617.0
25	16	55	52	385	192.0	-197584.0	2670.0	-131139.0
25	16	55	52	386	193.0	-191216.0	2647.0	-130964.0
25	16	55	52	387	194.0	-184929.0	2613.0	-130947.0
25	16	55	52	387	195.0	-178988.0	2570.0	-131127.0
25	16	55	52	388	196.0	-174058.0	2511.0	-130884.0
25	16	55	52	389	200.0	-160296.0	2323.0	-130727.0
25	16	55	52	389	201.0	-158189.0	2298.0	-130972.0
25	16	55	52	390	202.0	-156817.0	2266.0	-131479.0
25	16	55	52	391	203.0	-156108.0	2256.0	-131570.0
25	16	55	52	391	204.0	-156783.0	2229.0	-131334.0
25	16	55	52	392	205.0	-159016.0	2229.0	-131309.0
25	16	55	52	392	206.0	-163066.0	2203.0	-131146.0
25	16	55	52	423	207.0	-168589.0	2174.0	-130625.0
25	16	55	52	424	208.0	-175121.0	2155.0	-130706.0
25	16	55	52	425	209.0	-182524.0	2108.0	-130679.0
25	16	55	52	425	210.0	-190028.0	2072.0	-130682.0
25	16	55	52	426	211.0	-197233.0	2031.0	-130487.0
25	16	55	52	427	212.0	-203896.0	2004.0	-131052.0
25	16	55	52	427	213.0	-210064.0	1992.0	-130989.0
25	16	55	52	428	214.0	-215907.0	1968.0	-131142.0
25	16	55	52	429	215.0	-221004.0	1952.0	-131244.0
25	16	55	52	430	216.0	-225791.0	1945.0	-131057.0
25	16	55	52	430	217.0	-230655.0	1939.0	-131316.0
25	16	55	52	431	218.0	-235913.0	1932.0	-131446.0
25	16	55	52	432	219.0	-240947.0	1902.0	-131309.0
25	16	55	52	432	220.0	-245443.0	1893.0	-131360.0
25	16	55	52	433	221.0	-249046.0	1888.0	-131710.0
25	16	55	52	433	222.0	-251301.0	1893.0	-131531.0
25	16	55	52	434	223.0	-252012.0	1856.0	-131728.0
25	16	55	52	435	224.0	-251211.0	1841.0	-132162.0
25	16	55	52	435	225.0	-249427.0	1855.0	-132146.0
25	16	55	52	436	226.0	-246764.0	1844.0	-131553.0
25	16	55	52	437	227.0	-242209.0	1837.0	-131398.0
25	16	55	52	437	228.0	-235777.0	1856.0	-131582.0
25	16	55	52	466	229.0	-228104.0	1846.0	-131725.0
25	16	55	52	467	230.0	-219245.0	1811.0	-131519.0
25	16	55	52	468	231.0	-209792.0	1793.0	-131909.0
25	16	55	52	469	232.0	-200684.0	1771.0	-132081.0
25	16	55	52	469	233.0	-192582.0	1748.0	-131975.0
25	16	55	52	470	234.0	-185126.0	1725.0	-131946.0
25	16	55	52	471	235.0	-178254.0	1686.0	-131366.0
25	16	55	52	472	236.0	-172067.0	1673.0	-130944.0
25	16	55	52	472	237.0	-166878.0	1634.0	-131147.0
25	16	55	52	473	238.0	-162511.0	1606.0	-131032.0
25	16	55	52	474	239.0	-158540.0	1602.0	-131139.0
25	16	55	52	474	240.0	-155138.0	1569.0	-131800.0
25	16	55	52	475	241.0	-152186.0	1538.0	-132203.0
25	16	55	52	476	242.0	-149378.0	1535.0	-132205.0
25	16	55	52	477	243.0	-146838.0	1495.0	-132154.0
25	16	55	52	477	245.0	-142479.0	1416.0	-132616.0
25	16	55	52	478	246.0	-141457.0	1367.0	-132373.0
25	16	55	52	479	247.0	-141806.0	1359.0	-132219.0
25	16	55	52	480	248.0	-143832.0	1329.0	-132206.0
25	16	55	52	480	249.0	-147321.0	1328.0	-132072.0
25	16	55	52	481	250.0	-151961.0	1323.0	-131971.0
25	16	55	52	512	251.0	-157882.0	1297.0	-131843.0
25	16	55	52	513	252.0	-164410.0	1273.0	-131910.0
25	16	55	52	514	253.0	-171257.0	1243.0	-131924.0
25	16	55	52	515	254.0	-178772.0	1229.0	-131824.0
25	16	55	52	515	255.0	-186654.0	1211.0	-131330.0
25	16	55	52	516	0.0	-194645.0	1180.0	-131206.0
25	16	55	52	517	1.0	-203314.0	1162.0	-130997.0
25	16	55	52	518	2.0	-212672.0	1153.0	-130372.0
25	16	55	52	519	3.0	-222430.0	1130.0	-130807.0
25	16	55	52	519	4.0	-231600.0	1117.0	-130863.0
25	16	55	52	520	5.0	-239587.0	1088.0	-130570.0
25	16	55	52	521	6.0	-245827.0	1084.0	-130721.0
25	16	55	52	522	7.0	-250228.0	1069.0	-131060.0
25	16	55	52	522	8.0	-252029.0	1036.0	-130769.0
25	16	55	52	523	9.0	-252091.0	1016.0	-130764.0
25	16	55	52	524	11.0	-248838.0	967.0	-130659.0
25	16	55	52	524	12.0	-245012.0	928.0	-130406.0
25	16	55	52	525	13.0	-239916.0	913.0	-130515.0
25	16	55	52	526	14.0	-234214.0	894.0	-130273.0
25	16	55	52	526	15.0	-227608.0	864.0	-130385.0
25	16	55	52	527	16.0	-220347.0	838.0	-130603.0
25	16	55	52	527	17.0	-212937.0	834.0	-130892.0
25	16	55	52	557	18.0	-205577.0	818.0	-130394.0
25	16	55	52	558	19.0	-198425.0	791.0	-129745.0
25	16	55	52	558	20.0	-191497.0	773.0	-129609.0
25	16	55	52	559	21.0	-184384.0	756.0	-129516.0
25	16	55	52	560	22.0	-177091.0	733.0	-129356.0
25	16	55	52	561	23.0	-170091.0	696.0	-129594.0
25	16	55	52	561	24.0	-163743.0	668.0	-129732.0
25	16	55	52	562	25.0	-158000.0	651.0	-129871.0
25	16	55	52	563	26.0	-152530.0	629.0	-129121.0
25	16	55	52	564	27.0	-147457.0	628.0	-129003.0
25	16	55	52	565	28.0	-143098.0	617.0	-129028.0
25	16	55	52	565	29.0	-140189.0	621.0	-128940.0
25	16	55	52	566	30.0	-139617.0	616.0	-128932.0
25	16	55	52	567	31.0	-141743.0	603.0	-128835.0
25	16	55	52	567	32.0	-145589.0	561.0	-128912.0
25	16	55	52	568	34.0	-154300.0	539.0	-129310.0
25	16	55	52	569	35.0	-158437.0	534.0	-129456.0
25	16	55	52	569	36.0	-162622.0	506.0	-129516.0
25	16	55	52	570	37.0	-167204.0	490.0	-129452.0
25	16	55	52	571	38.0	-171615.0	488.0	-129504.0
25	16	55	52	571	39.0	-175712.0	469.0	-129407.0
25	16	55	52	602	40.0	-180001.0	457.0	-129606.0
25	16	55	52	603	41.0	-184932.0	478.0	-129616.0
25	16	55	52	604	42.0	-190533.0	473.0	-129616.0
25	16	55	52	605	43.0	-197123.0	449.0	-129863.0
25	16	55	52	605	44.0	-204461.0	423.0	-130305.0
25	16	55	52	606	45.0	-211818.0	397.0	-130971.0
25	16	55	52	607	46.0	-219154.0	380.0	-132724.0
25	16	55	52	607	47.0	-226386.0	363.0	-135147.0
25	16	55	52	608	48.0	-232874.0	344.0	-138566.0
25	16	55	52	609	49.0	-238450.0	324.0	-142931.0
25	16	55	52	610	50.0	-242957.0	302.0	-146336.0
25	16	55	52	610	51.0	-246279.0	300.0	-147546.0
25	16	55	52	611	52.0	-248318.0	291.0	-146766.0
25	16	55	52	612	53.0	-249183.0	268.0	-146116.0
25	16	55	52	612	54.0	-248786.0	236.0	-146837.0
25	16	55	52	613	56.0	-244954.0	141.0	-146107.0
25	16	55	52	614	57.0	-241500.0	109.0	-145037.0
25	16	55	52	614	58.0	-237806.0	92.0	-142579.0
25	16	55	52	615	59.0	-234018.0	78.0	-138860.0
25	16	55	52	616	60.0	-230086.0	52.0	-135499.0
25	16	55	52	616	61.0	-226554.0	29.0	-132797.0
25	16	55	52	647	62.0	-223296.0	-26.0	-129826.0
25	16	55	52	648	63.0	-220404.0	-54.0	-125677.0
25	16	55	52	649	64.0	-218285.0	-72.0	-119867.0
25	16	55	52	650	65.0	-216594.0	-116.0	-116324.0
25	16	55	52	650	66.0	-214947.0	-132.0	-117049.0
25	16	55	52	651	67.0	-213435.0	-156.0	-118676.0
25	16	55	52	652	68.0	-211844.0	-186.0	-120874.0
25	16	55	52	652	69.0	-209901.0	-220.0	-122304.0
25	16	55	52	653	70.0	-208207.0	-262.0	-123173.0
25	16	55	52	654	71.0	-207087.0	-272.0	-124012.0
25	16	55	52	655	72.0	-205732.0	-294.0	-125364.0
25	16	55	52	655	73.0	-202677.0	-327.0	-126794.0
25	16	55	52	656	74.0	-196012.0	-363.0	-128699.0
25	16	55	52	657	75.0	-183996.0	-392.0	-129498.0
25	16	55	52	657	76.0	-167405.0	-435.0	-130309.0
25	16	55	52	658	79.0	-100840.0	-504.0	-132017.0
25	16	55	52	659	80.0	-82257.0	-517.0	-131551.0
25	16	55	52	659	81.0	-70165.0	-551.0	-131830.0
25	16	55	52	660	82.0	-67851.0	-575.0	-132123.0
25	16	55	52	660	83.0	-77252.0	-595.0	-131631.0
25	16	55	52	661	84.0	-99476.0	-620.0	-132051.0
25	16	55	52	693	85.0	-133264.0	-658.0	-132187.0
25	16	55	52	694	86.0	-173885.0	-723.0	-131994.0
25	16	55	52	694	87.0	-213954.0	-761.0	-131724.0
25	16	55	52	695	88.0	-246217.0	-799.0	-131672.0
25	16	55	52	696	89.0	-263849.0	-840.0	-131579.0
25	16	55	52	697	90.0	-264232.0	-890.0	-131367.0
25	16	55	52	697	91.0	-250279.0	-920.0	-131317.0
25	16	55	52	698	92.0	-227997.0	-957.0	-132042.0
25	16	55	52	699	93.0	-204771.0	-1012.0	-132048.0
25	16	55	52	699	94.0	-186516.0	-1051.0	-131961.0
25	16	55	52	700	95.0	-175641.0	-1086.0	-132204.0
25	16	55	52	701	96.0	-173147.0	-1151.0	-132428.0
25	16	55	52	702	97.0	-179110.0	-1200.0	-132316.0
25	16	55	52	702	98.0	-192404.0	-1237.0	-131704.0
25	16	55	52	703	99.0	-211274.0	-1274.0	-131881.0
25	16	55	52	703	101.0	-260952.0	-1364.0	-131606.0
25	16	55	52	704	102.0	-286316.0	-1407.0	-131556.0
25	16	55	52	705	103.0	-306507.0	-1447.0	-131512.0
25	16	55	52	705	104.0	-318175.0	-1477.0	-132084.0
25	16	55	52	706	105.0	-319761.0	-1523.0	-132482.0
25	16	55	52	706	106.0	-311024.0	-1549.0	-132839.0
25	16	55	52	738	107.0	-292993.0	-1564.0	-133047.0
25	16	55	52	739	108.0	-268187.0	-1599.0	-132901.0
25	16	55	52	739	109.0	-239229.0	-1622.0	-132619.0
25	16	55	52	740	110.0	-208749.0	-1659.0	-132921.0
25	16	55	52	741	111.0	-179344.0	-1716.0	-132631.0
25	16	55	52	741	112.0	-151689.0	-1738.0	-132766.0
25	16	55	52	742	113.0	-126448.0	-1754.0	-133146.0
25	16	55	52	743	114.0	-103927.0	-1790.0	-133567.0
25	16	55	52	744	115.0	-84762.0	-1834.0	-133632.0
25	16	55	52	744	116.0	-69422.0	-1844.0	-133673.0
25	16	55	52	745	117.0	-58022.0	-1871.0	-133742.0
25	16	55	52	746	118.0	-50691.0	-1899.0	-133659.0
25	16	55	52	746	119.0	-47272.0	-1911.0	-133050.0
25	16	55	52	747	120.0	-47994.0	-1913.0	-133021.0
25	16	55	52	748	121.0	-53116.0	-1922.0	-132787.0
25	16	55	52	748	123.0	-76877.0	-1962.0	-133525.0
25	16	55	52	749	124.0	-94120.0	-1976.0	-133602.0
25	16	55	52	750	125.0	-113735.0	-2013.0	-133711.0
25	16	55	52	750	126.0	-135551.0	-2022.0	-133980.0
25	16	55	52	751	127.0	-158499.0	-2026.0	-134113.0
25	16	55	52	751	128.0	-182314.0	-2059.0	-134164.0
25	16	55	52	752	129.0	-206049.0	-2086.0	-134129.0
25	16	55	52	783	130.0	-229026.0	-2126.0	-134441.0
25	16	55	52	783	131.0	-250965.0	-2173.0	-134566.0
25	16	55	52	784	132.0	-270613.0	-2249.0	-134916.0
25	16	55	52	785	133.0	-287433.0	-2287.0	-135125.0
25	16	55	52	786	134.0	-301443.0	-2306.0	-135326.0
25	16	55	52	786	135.0	-312134.0	-2327.0	-135906.0
25	16	55	52	787	136.0	-319168.0	-2369.0	-136175.0
25	16	55	52	788	137.0	-323179.0	-2394.0	-136127.0
25	16	55	52	789	138.0	-324703.0	-2419.0	-135891.0
25	16	55	52	789	139.0	-323389.0	-2462.0	-135647.0
25	16	55	52	790	140.0	-319297.0	-2495.0	-135663.0
25	16	55	52	791	141.0	-312189.0	-2513.0	-136057.0
25	16	55	52	791	142.0	-302315.0	-2567.0	-136296.0
25	16	55	52	792	143.0	-290472.0	-2608.0	-136367.0
25	16	55	52	793	144.0	-276797.0	-2632.0	-136434.0
25	16	55	52	793	146.0	-245967.0	-2679.0	-137604.0
25	16	55	52	794	147.0	-230439.0	-2715.0	-137360.0
25	16	55	52	794	148.0	-216146.0	-2751.0	-137169.0
25	16	55	52	795	149.0	-203158.0	-2751.0	-137456.0
25	16	55	52	796	150.0	-191227.0	-2756.0	-137923.0
25	16	55	52	797	151.0	-180639.0	-2757.0	-137844.0
25	16	55	52	828	152.0	-171451.0	-2770.0	-137996.0
25	16	55	52	828	153.0	-163432.0	-2792.0	-138302.0
25	16	55	52	829	154.0	-156686.0	-2825.0	-138594.0
25	16	55	52	830	155.0	-151284.0	-2837.0	-139818.0
25	16	55	52	831	156.0	-146954.0	-2872.0	-140426.0
25	16	55	52	831	157.0	-143247.0	-2877.0	-140135.0
25	16	55	52	832	158.0	-140900.0	-2891.0	-140261.0
25	16	55	52	833	159.0	-140484.0	-2924.0	-140604.0
25	16	55	52	834	160.0	-142319.0	-2926.0	-140514.0
25	16	55	52	835	161.0	-146224.0	-2936.0	-141025.0
25	16	55	52	835	162.0	-151395.0	-2962.0	-141545.0
25	16	55	52	836	163.0	-157444.0	-2986.0	-141744.0
25	16	55	52	837	164.0	-164271.0	-3002.0	-142124.0
25	16	55	52	838	165.0	-171311.0	-3000.0	-142295.0
25	16	55	52	839	166.0	-178059.0	-2993.0	-142644.0
25	16	55	52	840	168.0	-190161.0	-2958.0	-142831.0
25	16	55	52	841	169.0	-194877.0	-2949.0	-142488.0
25	16	55	52	846	170.0	-197969.0	-2915.0	-143060.0
25	16	55	52	848	171.0	-199931.0	-2872.0	-143364.0
25	16	55	52	848	172.0	-201135.0	-2822.0	-143367.0
25	16	55	52	849	173.0	-201846.0	-2766.0	-143287.0
25	16	55	52	850	174.0	-202434.0	-2687.0	-143451.0
25	16	55	52	872	175.0	-203204.0	-2621.0	-144081.0
25	16	55	52	873	176.0	-204456.0	-2567.0	-143799.0
25	16	55	52	874	177.0	-206707.0	-2511.0	-143907.0
25	16	55	52	874	178.0	-209719.0	-2454.0	-143774.0
25	16	55	52	875	179.0	-213692.0	-2391.0	-143337.0
25	16	55	52	875	180.0	-218075.0	-2332.0	-142749.0
25	16	55	52	876	181.0	-222072.0	-2267.0	-142618.0
25	16	55	52	877	182.0	-226144.0	-2207.0	-142554.0
25	16	55	52	877	183.0	-231244.0	-2151.0	-142108.0
25	16	55	52	878	184.0	-237157.0	-2091.0	-142126.0
25	16	55	52	878	185.0	-243115.0	-2009.0	-142042.0
25	16	55	52	879	186.0	-247966.0	-1936.0	-141884.0
25	16	55	52	879	187.0	-251377.0	-1860.0	-141816.0
25	16	55	52	880	188.0	-253553.0	-1773.0	-141113.0
25	16	55	52	881	191.0	-251027.0	-1594.0	-139721.0
25	16	55	52	881	192.0	-249035.0	-1517.0	-139077.0
25	16	55	52	917	193.0	-247389.0	-1463.0	-138130.0
25	16	55	52	963	194.0	-245977.0	-1404.0	-137693.0
25	16	55	52	963	195.0	-244514.0	-1333.0	-136921.0
25	16	55	52	964	196.0	-242490.0	-1303.0	-136123.0
25	16	55	52	964	197.0	-240029.0	-1244.0	-135242.0
25	16	55	52	965	198.0	-236861.0	-1186.0	-134550.0
25	16	55	52	966	199.0	-232197.0	-1158.0	-133756.0
25	16	55	52	966	200.0	-226131.0	-1103.0	-133245.0
25	16	55	52	967	201.0	-218742.0	-1073.0	-132337.0
25	16	55	52	967	202.0	-209925.0	-1047.0	-131671.0
25	16	55	52	968	203.0	-200164.0	-1007.0	-131534.0
25	16	55	52	969	204.0	-189691.0	-948.0	-131050.0
25	16	55	52	969	205.0	-177994.0	-907.0	-130658.0
25	16	55	52	970	206.0	-165329.0	-846.0	-130441.0
25	16	55	52	970	207.0	-152494.0	-813.0	-129886.0
25	16	55	52	971	213.0	-97697.0	-477.0	-127226.0
25	16	55	52	972	236.0	-376019.0	566.0	-125865.0
25	16	55	52	972	237.0	-380713.0	594.0	-125527.0
25	16	55	52	973	238.0	-376709.0	631.0	-125487.0
25	16	55	52	973	239.0	-364564.0	656.0	-125894.0
25	16	55	52	974	240.0	-347305.0	703.0	-125461.0
25	16	55	52	974	241.0	-327736.0	741.0	-125147.0
25	16	55	53	7	242.0	-309572.0	766.0	-125266.0
25	16	55	53	7	243.0	-294096.0	793.0	-125602.0
25	16	55	53	8	244.0	-281374.0	845.0	-125439.0
25	16	55	53	9	245.0	-270634.0	899.0	-126054.0
25	16	55	53	9	246.0	-260295.0	931.0	-126234.0
25	16	55	53	10	247.0	-249202.0	961.0	-125542.0
25	16	55	53	11	248.0	-236527.0	1011.0	-125631.0
25	16	55	53	11	249.0	-221876.0	1039.0	-125589.0
25	16	55	53	12	250.0	-206060.0	1060.0	-125197.0
25	16	55	53	12	251.0	-190191.0	1088.0	-124812.0
25	16	55	53	13	252.0	-174476.0	1088.0	-124976.0
25	16	55	53	14	253.0	-159949.0	1098.0	-125401.0
25	16	55	53	14	254.0	-147666.0	1108.0	-124958.0
25	16	55	53	15	255.0	-137741.0	1128.0	-125260.0
25	16	55	53	15	0.0	-130824.0	1148.0	-125188.0
25	16	55	53	16	2.0	-125549.0	1152.0	-124776.0
25	16	55	53	17	3.0	-125522.0	1161.0	-124981.0
25	16	55	53	17	4.0	-126159.0	1182.0	-124847.0
25	16	55	53	18	5.0	-127097.0	1208.0	-124679.0
25	16	55	53	18	6.0	-128372.0	1229.0	-125004.0
25	16	55	53	19	7.0	-129837.0	1262.0	-125197.0
25	16	55	53	52	8.0	-131682.0	1286.0	-125204.0
25	16	55	53	52	9.0	-134395.0	1299.0	-125524.0
25	16	55	53	53	10.0	-138149.0	1316.0	-125241.0
25	16	55	53	54	11.0	-142694.0	1313.0	-124987.0
25	16	55	53	54	12.0	-147710.0	1323.0	-124590.0
25	16	55	53	55	13.0	-152962.0	1329.0	-124159.0
25	16	55	53	55	14.0	-158083.0	1351.0	-124196.0
25	16	55	53	56	15.0	-162939.0	1346.0	-124407.0
25	16	55	53	57	16.0	-167307.0	1369.0	-124820.0
25	16	55	53	57	17.0	-171361.0	1381.0	-124560.0
25	16	55	53	58	18.0	-175663.0	1352.0	-124754.0
25	16	55	53	58	19.0	-180912.0	1345.0	-125007.0
25	16	55	53	59	20.0	-187327.0	1318.0	-124722.0
25	16	55	53	60	21.0	-195595.0	1303.0	-124566.0
25	16	55	53	60	22.0	-205496.0	1308.0	-124709.0
25	16	55	53	61	24.0	-230004.0	1333.0	-124024.0
25	16	55	53	61	25.0	-243177.0	1286.0	-124422.0
25	16	55	53	62	26.0	-255649.0	1266.0	-124197.0
25	16	55	53	63	27.0	-266597.0	1272.0	-124286.0
25	16	55	53	63	28.0	-275359.0	1267.0	-124626.0
25	16	55	53	64	29.0	-281544.0	1254.0	-124732.0
25	16	55	53	64	30.0	-284979.0	1252.0	-124085.0
25	16	55	53	96	31.0	-285156.0	1251.0	-123245.0
25	16	55	53	96	32.0	-282686.0	1228.0	-122644.0
25	16	55	53	97	33.0	-277121.0	1213.0	-121812.0
25	16	55	53	98	34.0	-268936.0	1211.0	-121015.0
25	16	55	53	98	35.0	-259198.0	1194.0	-120817.0
25	16	55	53	99	36.0	-248339.0	1179.0	-120806.0
25	16	55	53	99	37.0	-236950.0	1181.0	-120270.0
25	16	55	53	100	38.0	-225396.0	1167.0	-119983.0
25	16	55	53	101	39.0	-213602.0	1151.0	-120005.0
25	16	55	53	101	40.0	-201503.0	1134.0	-119591.0
25	16	55	53	102	41.0	-189157.0	1120.0	-118530.0
25	16	55	53	103	42.0	-177083.0	1126.0	-118391.0
25	16	55	53	103	43.0	-165458.0	1128.0	-118066.0
25	16	55	53	104	44.0	-154324.0	1124.0	-117927.0
25	16	55	53	105	45.0	-143434.0	1126.0	-117963.0
25	16	55	53	106	47.0	-123621.0	1107.0	-117862.0
25	16	55	53	106	48.0	-115406.0	1102.0	-117721.0
25	16	55	53	107	49.0	-108195.0	1105.0	-118146.0
25	16	55	53	107	50.0	-102341.0	1133.0	-118069.0
25	16	55	53	116	51.0	-98321.0	1146.0	-118031.0
25	16	55	53	116	52.0	-96594.0	1138.0	-117928.0
25	16	55	53	141	53.0	-97458.0	1118.0	-117994.0
25	16	55	53	142	54.0	-102094.0	1109.0	-117885.0
25	16	55	53	143	55.0	-110722.0	1101.0	-117747.0
25	16	55	53	143	56.0	-122866.0	1110.0	-118006.0
25	16	55	53	144	57.0	-136966.0	1102.0	-118444.0
25	16	55	53	145	58.0	-152437.0	1103.0	-118527.0
25	16	55	53	145	59.0	-169410.0	1088.0	-117914.0
25	16	55	53	146	60.0	-186897.0	1074.0	-118579.0
25	16	55	53	147	61.0	-203941.0	1083.0	-118484.0
25	16	55	53	147	62.0	-219382.0	1074.0	-117888.0
25	16	55	53	148	63.0	-233107.0	1043.0	-118176.0
25	16	55	53	148	64.0	-245144.0	1041.0	-118247.0
25	16	55	53	149	65.0	-255532.0	1029.0	-118109.0
25	16	55	53	150	66.0	-265135.0	1039.0	-118167.0
25	16	55	53	150	67.0	-272887.0	1019.0	-118409.0
25	16	55	53	151	69.0	-284326.0	985.0	-118504.0
25	16	55	53	151	70.0	-288311.0	963.0	-118872.0
25	16	55	53	152	71.0	-290929.0	940.0	-118555.0
25	16	55	53	153	72.0	-291951.0	926.0	-117524.0
25	16	55	53	153	73.0	-290926.0	883.0	-117184.0
25	16	55	53	154	74.0	-287180.0	859.0	-116896.0
25	16	55	53	154	75.0	-281012.0	826.0	-116675.0
25	16	55	53	187	76.0	-272994.0	801.0	-117034.0
25	16	55	53	198	77.0	-263315.0	799.0	-116902.0
25	16	55	53	198	78.0	-251759.0	770.0	-116736.0
25	16	55	53	199	79.0	-238534.0	728.0	-116552.0
25	16	55	53	199	80.0	-224183.0	713.0	-116704.0
25	16	55	53	200	81.0	-209420.0	709.0	-116439.0
25	16	55	53	201	82.0	-194672.0	689.0	-116146.0
25	16	55	53	201	83.0	-180917.0	676.0	-116456.0
25	16	55	53	202	84.0	-168723.0	660.0	-116530.0
25	16	55	53	202	85.0	-158017.0	675.0	-116811.0
25	16	55	53	203	86.0	-149327.0	655.0	-117111.0
25	16	55	53	203	87.0	-142723.0	638.0	-117267.0
25	16	55	53	204	88.0	-138176.0	629.0	-116799.0
25	16	55	53	205	89.0	-135632.0	627.0	-116916.0
25	16	55	53	205	90.0	-135243.0	624.0	-117011.0
25	16	55	53	206	92.0	-141222.0	578.0	-116214.0
25	16	55	53	206	93.0	-147407.0	578.0	-116523.0
25	16	55	53	207	94.0	-155043.0	581.0	-116243.0
25	16	55	53	207	95.0	-164157.0	574.0	-116087.0
25	16	55	53	208	96.0	-174376.0	582.0	-116781.0
25	16	55	53	209	97.0	-185116.0	599.0	-117286.0
25	16	55	53	233	98.0	-196022.0	618.0	-116602.0
25	16	55	53	247	99.0	-206137.0	571.0	-116686.0
25	16	55	53	247	100.0	-215197.0	535.0	-116634.0
25	16	55	53	248	101.0	-223511.0	527.0	-115869.0
25	16	55	53	248	102.0	-230701.0	523.0	-115901.0
25	16	55	53	249	103.0	-236957.0	500.0	-116027.0
25	16	55	53	250	104.0	-242407.0	461.0	-115724.0
25	16	55	53	250	105.0	-246925.0	436.0	-115981.0
25	16	55	53	251	106.0	-249860.0	404.0	-116496.0
25	16	55	53	251	107.0	-250809.0	381.0	-116338.0
25	16	55	53	252	108.0	-250249.0	377.0	-116310.0
25	16	55	53	252	109.0	-248335.0	345.0	-116640.0
25	16	55	53	253	110.0	-245497.0	334.0	-116594.0
25	16	55	53	253	111.0	-242122.0	306.0	-116444.0
25	16	55	53	254	112.0	-238851.0	269.0	-116108.0
25	16	55	53	255	114.0	-231830.0	234.0	-115874.0
25	16	55	53	255	115.0	-228159.0	196.0	-115974.0
25	16	55	53	256	116.0	-224777.0	183.0	-116385.0
25	16	55	53	256	117.0	-221294.0	174.0	-116749.0
25	16	55	53	257	118.0	-217676.0	148.0	-116831.0
25	16	55	53	258	119.0	-213861.0	141.0	-116354.0
25	16	55	53	258	120.0	-209577.0	133.0	-116062.0
25	16	55	53	293	121.0	-204719.0	114.0	-115997.0
25	16	55	53	314	122.0	-198897.0	111.0	-115869.0
25	16	55	53	315	123.0	-192218.0	92.0	-115776.0
25	16	55	53	315	124.0	-184735.0	75.0	-115717.0
25	16	55	53	316	125.0	-176584.0	63.0	-116144.0
25	16	55	53	316	126.0	-168179.0	58.0	-116069.0
25	16	55	53	317	127.0	-160089.0	41.0	-115859.0
25	16	55	53	318	128.0	-152844.0	18.0	-116349.0
25	16	55	53	318	129.0	-146799.0	-19.0	-116644.0
25	16	55	53	319	130.0	-142715.0	-71.0	-116485.0
25	16	55	53	319	131.0	-140741.0	-94.0	-116592.0
25	16	55	53	320	132.0	-140377.0	-110.0	-117028.0
25	16	55	53	321	133.0	-141673.0	-137.0	-116819.0
25	16	55	53	321	134.0	-144328.0	-176.0	-116291.0
25	16	55	53	322	135.0	-147811.0	-208.0	-116507.0
25	16	55	53	322	144.0	-208096.0	-349.0	-114907.0
25	16	55	53	323	152.0	-232668.0	-635.0	-114704.0
25	16	55	53	324	153.0	-235052.0	-664.0	-114710.0
25	16	55	53	324	154.0	-237732.0	-704.0	-115009.0
25	16	55	53	325	155.0	-240921.0	-748.0	-115028.0
25	16	55	53	325	156.0	-244696.0	-781.0	-115248.0
25	16	55	53	326	157.0	-245424.0	-774.0	-115655.0
25	16	55	53	326	158.0	-243849.0	-792.0	-115695.0
25	16	55	53	327	159.0	-240503.0	-830.0	-115234.0
25	16	55	53	338	160.0	-235632.0	-859.0	-115236.0
25	16	55	53	338	161.0	-229674.0	-886.0	-114912.0
25	16	55	53	339	162.0	-223186.0	-901.0	-114493.0
25	16	55	53	339	163.0	-216057.0	-913.0	-114209.0
25	16	55	53	340	164.0	-208265.0	-937.0	-114300.0
25	16	55	53	341	165.0	-199705.0	-974.0	-114241.0
25	16	55	53	341	166.0	-189878.0	-1024.0	-114259.0
25	16	55	53	342	167.0	-179248.0	-1061.0	-114709.0
25	16	55	53	342	168.0	-169026.0	-1106.0	-114793.0
25	16	55	53	361	169.0	-159681.0	-1143.0	-114436.0
25	16	55	53	362	170.0	-151576.0	-1182.0	-114316.0
25	16	55	53	362	171.0	-145187.0	-1217.0	-114259.0
25	16	55	53	363	172.0	-140440.0	-1262.0	-113802.0
25	16	55	53	364	173.0	-136668.0	-1293.0	-113646.0
25	16	55	53	364	174.0	-133634.0	-1334.0	-114184.0
25	16	55	53	365	175.0	-131406.0	-1391.0	-114411.0
25	16	55	53	365	176.0	-129501.0	-1426.0	-114399.0
25	16	55	53	366	177.0	-128218.0	-1461.0	-114773.0
25	16	55	53	367	178.0	-127565.0	-1488.0	-115321.0
25	16	55	53	367	179.0	-127357.0	-1544.0	-114461.0
25	16	55	53	368	180.0	-128218.0	-1586.0	-113921.0
25	16	55	53	368	181.0	-130192.0	-1627.0	-113630.0
25	16	55	53	369	182.0	-133134.0	-1667.0	-113871.0
25	16	55	53	384	183.0	-137121.0	-1676.0	-114062.0
25	16	55	53	384	184.0	-142174.0	-1708.0	-114297.0
25	16	55	53	385	185.0	-147896.0	-1758.0	-114414.0
25	16	55	53	386	186.0	-154159.0	-1798.0	-114407.0
25	16	55	53	386	187.0	-161603.0	-1841.0	-114957.0
25	16	55	53	406	188.0	-169874.0	-1882.0	-115190.0
25	16	55	53	407	189.0	-178757.0	-1921.0	-115861.0
25	16	55	53	408	190.0	-187794.0	-1932.0	-117029.0
25	16	55	53	408	191.0	-196006.0	-1951.0	-118617.0
25	16	55	53	409	192.0	-203189.0	-1991.0	-121846.0
25	16	55	53	410	193.0	-209337.0	-2043.0	-126326.0
25	16	55	53	410	194.0	-214681.0	-2089.0	-129869.0
25	16	55	53	411	195.0	-219702.0	-2117.0	-132216.0
25	16	55	53	411	196.0	-223744.0	-2167.0	-132474.0
25	16	55	53	412	197.0	-226407.0	-2184.0	-131252.0
25	16	55	53	413	198.0	-227962.0	-2205.0	-131804.0
25	16	55	53	413	199.0	-228129.0	-2246.0	-132229.0
25	16	55	53	414	200.0	-227321.0	-2287.0	-131592.0
25	16	55	53	414	201.0	-226182.0	-2299.0	-130630.0
25	16	55	53	415	202.0	-226035.0	-2350.0	-129086.0
25	16	55	53	416	203.0	-226554.0	-2402.0	-125880.0
25	16	55	53	416	204.0	-227586.0	-2437.0	-122216.0
25	16	55	53	434	205.0	-230052.0	-2456.0	-119187.0
25	16	55	53	435	206.0	-234001.0	-2472.0	-117001.0
25	16	55	53	435	207.0	-238458.0	-2494.0	-113481.0
25	16	55	53	436	208.0	-242365.0	-2533.0	-108100.0
25	16	55	53	436	209.0	-245390.0	-2571.0	-103077.0
25	16	55	53	437	210.0	-247925.0	-2588.0	-101934.0
25	16	55	53	438	211.0	-250266.0	-2602.0	-102901.0
25	16	55	53	438	212.0	-252579.0	-2627.0	-104579.0
25	16	55	53	439	213.0	-254952.0	-2631.0	-106513.0
25	16	55	53	457	214.0	-257877.0	-2662.0	-107519.0
25	16	55	53	458	215.0	-261707.0	-2685.0	-108816.0
25	16	55	53	458	216.0	-265885.0	-2716.0	-110188.0
25	16	55	53	459	217.0	-269145.0	-2724.0	-112573.0
25	16	55	53	460	218.0	-270047.0	-2746.0	-114262.0
25	16	55	53	460	219.0	-266929.0	-2757.0	-115631.0
25	16	55	53	461	220.0	-259186.0	-2771.0	-116276.0
25	16	55	53	461	221.0	-246929.0	-2794.0	-116531.0
25	16	55	53	462	222.0	-230392.0	-2831.0	-117366.0
25	16	55	53	463	223.0	-210699.0	-2859.0	-117975.0
25	16	55	53	463	224.0	-189075.0	-2907.0	-118017.0
25	16	55	53	464	225.0	-168997.0	-2924.0	-118448.0
25	16	55	53	464	226.0	-154408.0	-2947.0	-118626.0
25	16	55	53	465	227.0	-149053.0	-2978.0	-118654.0
25	16	55	53	466	228.0	-155814.0	-3021.0	-118734.0
25	16	55	53	508	229.0	-174088.0	-3023.0	-118414.0
25	16	55	53	509	230.0	-200679.0	-3062.0	-118476.0
25	16	55	53	509	231.0	-230821.0	-3079.0	-118628.0
25	16	55	53	510	232.0	-259389.0	-3109.0	-118599.0
25	16	55	53	510	233.0	-278780.0	-3144.0	-118261.0
25	16	55	53	511	234.0	-283004.0	-3176.0	-118056.0
25	16	55	53	512	235.0	-271321.0	-3178.0	-118158.0
25	16	55	53	512	236.0	-247550.0	-3235.0	-118547.0
25	16	55	53	513	237.0	-218559.0	-3287.0	-118761.0
25	16	55	53	513	238.0	-191226.0	-3331.0	-118599.0
25	16	55	53	514	239.0	-169782.0	-3362.0	-118748.0
25	16	55	53	515	240.0	-156205.0	-3391.0	-118437.0
25	16	55	53	515	241.0	-150805.0	-3431.0	-118437.0
25	16	55	53	516	242.0	-153011.0	-3439.0	-119165.0
25	16	55	53	517	243.0	-161379.0	-3412.0	-118952.0
25	16	55	53	518	244.0	-174742.0	-3421.0	-118658.0
25	16	55	53	519	245.0	-192862.0	-3442.0	-118977.0
25	16	55	53	520	246.0	-214954.0	-3468.0	-119152.0
25	16	55	53	520	247.0	-238895.0	-3463.0	-118908.0
25	16	55	53	521	248.0	-261015.0	-3478.0	-118919.0
25	16	55	53	522	249.0	-277708.0	-3503.0	-119057.0
25	16	55	53	522	250.0	-286822.0	-3537.0	-119132.0
25	16	55	53	523	251.0	-287883.0	-3544.0	-118981.0
25	16	55	53	523	252.0	-280997.0	-3560.0	-118778.0
25	16	55	53	524	253.0	-266785.0	-3586.0	-118554.0
25	16	55	53	525	254.0	-246249.0	-3606.0	-118761.0
25	16	55	53	525	255.0	-221286.0	-3624.0	-119011.0
25	16	55	53	526	0.0	-193982.0	-3639.0	-119063.0
25	16	55	53	527	1.0	-165957.0	-3649.0	-119195.0
25	16	55	53	527	2.0	-139063.0	-3669.0	-119225.0
25	16	55	53	536	3.0	-114327.0	-3691.0	-119160.0
25	16	55	53	537	4.0	-93259.0	-3699.0	-119272.0
25	16	55	53	538	5.0	-77363.0	-3727.0	-119421.0
25	16	55	53	538	6.0	-67243.0	-3781.0	-119205.0
25	16	55	53	539	7.0	-62735.0	-3832.0	-119149.0
25	16	55	53	540	8.0	-62884.0	-3860.0	-119353.0
25	16	55	53	559	9.0	-66357.0	-3885.0	-119517.0
25	16	55	53	560	10.0	-72990.0	-3915.0	-119914.0
25	16	55	53	561	11.0	-82267.0	-3937.0	-120244.0
25	16	55	53	562	12.0	-93502.0	-3964.0	-120319.0
25	16	55	53	562	13.0	-106881.0	-3978.0	-119847.0
25	16	55	53	563	14.0	-122183.0	-3989.0	-119679.0
25	16	55	53	563	15.0	-139521.0	-4014.0	-119896.0
25	16	55	53	564	16.0	-158866.0	-4053.0	-119991.0
25	16	55	53	565	17.0	-180037.0	-4072.0	-120182.0
25	16	55	53	565	18.0	-202852.0	-4083.0	-120484.0
25	16	55	53	566	19.0	-225578.0	-4090.0	-120357.0
25	16	55	53	566	20.0	-248114.0	-4106.0	-120204.0
25	16	55	53	567	21.0	-270401.0	-4131.0	-120703.0
25	16	55	53	568	22.0	-291184.0	-4180.0	-121184.0
25	16	55	53	568	23.0	-309886.0	-4201.0	-120637.0
25	16	55	53	569	24.0	-325309.0	-4207.0	-120476.0
25	16	55	53	582	25.0	-336702.0	-4230.0	-120804.0
25	16	55	53	583	26.0	-343705.0	-4228.0	-120925.0
25	16	55	53	583	27.0	-346010.0	-4260.0	-120764.0
25	16	55	53	584	28.0	-344277.0	-4297.0	-121108.0
25	16	55	53	585	29.0	-338894.0	-4340.0	-121554.0
25	16	55	53	585	30.0	-330137.0	-4352.0	-121982.0
25	16	55	53	586	31.0	-318609.0	-4359.0	-122221.0
25	16	55	53	605	32.0	-304967.0	-4369.0	-122449.0
25	16	55	53	606	33.0	-289801.0	-4383.0	-122611.0
25	16	55	53	606	34.0	-273761.0	-4381.0	-122362.0
25	16	55	53	607	35.0	-256421.0	-4380.0	-122562.0
25	16	55	53	608	36.0	-236517.0	-4376.0	-122806.0
25	16	55	53	608	37.0	-213776.0	-4397.0	-123003.0
25	16	55	53	609	38.0	-189889.0	-4412.0	-123497.0
25	16	55	53	609	39.0	-167397.0	-4391.0	-123673.0
25	16	55	53	610	40.0	-147094.0	-4394.0	-123770.0
25	16	55	53	611	41.0	-128495.0	-4397.0	-124257.0
25	16	55	53	611	42.0	-111721.0	-4411.0	-124878.0
25	16	55	53	612	43.0	-97144.0	-4402.0	-125102.0
25	16	55	53	613	44.0	-84991.0	-4386.0	-124818.0
25	16	55	53	613	45.0	-76232.0	-4398.0	-124954.0
25	16	55	53	614	46.0	-71003.0	-4396.0	-125526.0
25	16	55	53	633	47.0	-69444.0	-4387.0	-126457.0
25	16	55	53	634	48.0	-70859.0	-4370.0	-126571.0
25	16	55	53	634	49.0	-74524.0	-4381.0	-127031.0
25	16	55	53	635	50.0	-80723.0	-4357.0	-127324.0
25	16	55	53	636	51.0	-88752.0	-4348.0	-127832.0
25	16	55	53	636	52.0	-97681.0	-4321.0	-127619.0
25	16	55	53	637	53.0	-107341.0	-4312.0	-127895.0
25	16	55	53	638	54.0	-118138.0	-4306.0	-128179.0
25	16	55	53	638	55.0	-129817.0	-4271.0	-128044.0
25	16	55	53	639	56.0	-141997.0	-4262.0	-127912.0
25	16	55	53	640	57.0	-154756.0	-4257.0	-128296.0
25	16	55	53	640	58.0	-168715.0	-4247.0	-128345.0
25	16	55	53	641	59.0	-184200.0	-4225.0	-128423.0
25	16	55	53	641	60.0	-200821.0	-4211.0	-128806.0
25	16	55	53	642	61.0	-218325.0	-4175.0	-129203.0
25	16	55	53	655	62.0	-236542.0	-4128.0	-129191.0
25	16	55	53	656	63.0	-254245.0	-4077.0	-128667.0
25	16	55	53	657	64.0	-270489.0	-4045.0	-128459.0
25	16	55	53	657	65.0	-284516.0	-3992.0	-128380.0
25	16	55	53	658	66.0	-295238.0	-3921.0	-128547.0
25	16	55	53	658	67.0	-302014.0	-3863.0	-128600.0
25	16	55	53	659	68.0	-304948.0	-3835.0	-128332.0
25	16	55	53	677	69.0	-304666.0	-3795.0	-128667.0
25	16	55	53	678	70.0	-301336.0	-3732.0	-128571.0
25	16	55	53	679	71.0	-295719.0	-3669.0	-128696.0
25	16	55	53	680	72.0	-288582.0	-3605.0	-128177.0
25	16	55	53	680	73.0	-279891.0	-3534.0	-128297.0
25	16	55	53	681	74.0	-269747.0	-3474.0	-127734.0
25	16	55	53	682	75.0	-258517.0	-3417.0	-126995.0
25	16	55	53	682	76.0	-246172.0	-3361.0	-127149.0
25	16	55	53	683	77.0	-232687.0	-3323.0	-126486.0
25	16	55	53	684	78.0	-217872.0	-3259.0	-126126.0
25	16	55	53	684	79.0	-201737.0	-3187.0	-126182.0
25	16	55	53	685	80.0	-184733.0	-3129.0	-125259.0
25	16	55	53	685	81.0	-167947.0	-3080.0	-124102.0
25	16	55	53	686	82.0	-151889.0	-3033.0	-123533.0
25	16	55	53	687	83.0	-136423.0	-2959.0	-122839.0
25	16	55	53	700	84.0	-122023.0	-2917.0	-121448.0
25	16	55	53	700	85.0	-109290.0	-2849.0	-120776.0
25	16	55	53	701	86.0	-98059.0	-2802.0	-120169.0
25	16	55	53	702	87.0	-88751.0	-2764.0	-119353.0
25	16	55	53	703	88.0	-81611.0	-2703.0	-118682.0
25	16	55	53	703	89.0	-76736.0	-2647.0	-118571.0
25	16	55	53	704	90.0	-74017.0	-2608.0	-117858.0
25	16	55	53	704	91.0	-73197.0	-2554.0	-116963.0
25	16	55	53	722	92.0	-74350.0	-2499.0	-116572.0
25	16	55	53	723	93.0	-77191.0	-2419.0	-116488.0
25	16	55	53	724	94.0	-82706.0	-2364.0	-115355.0
25	16	55	53	724	95.0	-91045.0	-2323.0	-114992.0
25	16	55	53	725	96.0	-100631.0	-2265.0	-114784.0
25	16	55	53	726	97.0	-111192.0	-2207.0	-114357.0
25	16	55	53	726	98.0	-123257.0	-2164.0	-114265.0
25	16	55	53	727	99.0	-136525.0	-2111.0	-114424.0
25	16	55	53	728	100.0	-150591.0	-2064.0	-114279.0
25	16	55	53	728	101.0	-164836.0	-2019.0	-113780.0
25	16	55	53	729	102.0	-178976.0	-1971.0	-113401.0
25	16	55	53	730	103.0	-192178.0	-1943.0	-112697.0
25	16	55	53	730	104.0	-204676.0	-1897.0	-112304.0
25	16	55	53	731	105.0	-216107.0	-1847.0	-112384.0
25	16	55	53	731	106.0	-225207.0	-1776.0	-112419.0
25	16	55	53	749	107.0	-231729.0	-1721.0	-112498.0
25	16	55	53	749	108.0	-238409.0	-1658.0	-112551.0
25	16	55	53	750	109.0	-238216.0	-1614.0	-112523.0
25	16	55	53	751	110.0	-237217.0	-1584.0	-112434.0
25	16	55	53	751	111.0	-232306.0	-1550.0	-112988.0
25	16	55	53	752	112.0	-226848.0	-1516.0	-112856.0
25	16	55	53	752	113.0	-220903.0	-1471.0	-112740.0
25	16	55	53	772	114.0	-213472.0	-1424.0	-112679.0
25	16	55	53	773	115.0	-206410.0	-1401.0	-112938.0
25	16	55	53	773	116.0	-199311.0	-1357.0	-112736.0
25	16	55	53	774	117.0	-193204.0	-1302.0	-112759.0
25	16	55	53	775	118.0	-196543.0	-1279.0	-113054.0
25	16	55	53	775	119.0	-204592.0	-1256.0	-112956.0
25	16	55	53	776	120.0	-217237.0	-1216.0	-112682.0
25	16	55	53	777	121.0	-239126.0	-1199.0	-112724.0
25	16	55	53	777	122.0	-264092.0	-1162.0	-112687.0
25	16	55	53	778	123.0	-285766.0	-1128.0	-112352.0
25	16	55	53	778	124.0	-303734.0	-1077.0	-112687.0
25	16	55	53	779	125.0	-317571.0	-1031.0	-113228.0
25	16	55	53	780	126.0	-324229.0	-1009.0	-113419.0
25	16	55	53	780	127.0	-321058.0	-989.0	-113351.0
25	16	55	53	781	128.0	-308569.0	-956.0	-113481.0
25	16	55	53	798	129.0	-289827.0	-942.0	-113479.0
25	16	55	53	799	130.0	-270074.0	-883.0	-113858.0
25	16	55	53	799	131.0	-252109.0	-848.0	-113786.0
25	16	55	53	800	132.0	-237221.0	-835.0	-113615.0
25	16	55	53	801	133.0	-227129.0	-817.0	-113066.0
25	16	55	53	802	134.0	-221112.0	-773.0	-112732.0
25	16	55	53	802	135.0	-216462.0	-720.0	-113077.0
25	16	55	53	803	136.0	-212194.0	-688.0	-113269.0
25	16	55	53	803	137.0	-207666.0	-649.0	-113137.0
25	16	55	53	804	138.0	-203254.0	-581.0	-113608.0
25	16	55	53	805	139.0	-199861.0	-522.0	-113765.0
25	16	55	53	805	140.0	-197579.0	-502.0	-114024.0
25	16	55	53	806	141.0	-197253.0	-477.0	-114132.0
25	16	55	53	807	142.0	-199249.0	-443.0	-113792.0
25	16	55	53	807	143.0	-203476.0	-403.0	-114150.0
25	16	55	53	820	144.0	-209644.0	-379.0	-113917.0
25	16	55	53	821	145.0	-217584.0	-363.0	-113847.0
25	16	55	53	821	146.0	-226767.0	-339.0	-113857.0
25	16	55	53	822	147.0	-236324.0	-330.0	-113886.0
25	16	55	53	823	148.0	-245609.0	-300.0	-113631.0
25	16	55	53	823	149.0	-253791.0	-307.0	-113897.0
25	16	55	53	824	150.0	-259931.0	-313.0	-114201.0
25	16	55	53	825	151.0	-263651.0	-300.0	-114112.0
25	16	55	53	847	152.0	-264811.0	-291.0	-113606.0
25	16	55	53	848	153.0	-263054.0	-306.0	-113544.0
25	16	55	53	849	154.0	-258391.0	-330.0	-113719.0
25	16	55	53	849	155.0	-251222.0	-316.0	-113553.0
25	16	55	53	850	156.0	-242319.0	-294.0	-113445.0
25	16	55	53	851	157.0	-231929.0	-316.0	-113455.0
25	16	55	53	851	158.0	-219936.0	-319.0	-113157.0
25	16	55	53	852	159.0	-207256.0	-319.0	-113122.0
25	16	55	53	853	160.0	-193702.0	-306.0	-113423.0
25	16	55	53	853	161.0	-179416.0	-296.0	-113294.0
25	16	55	53	854	162.0	-165385.0	-321.0	-112607.0
25	16	55	53	855	163.0	-151890.0	-312.0	-112164.0
25	16	55	53	855	164.0	-139074.0	-304.0	-112212.0
25	16	55	53	856	165.0	-127427.0	-303.0	-112203.0
25	16	55	53	857	166.0	-117696.0	-292.0	-111912.0
25	16	55	53	870	167.0	-110705.0	-297.0	-112363.0
25	16	55	53	878	168.0	-106400.0	-292.0	-112759.0
25	16	55	53	879	169.0	-104918.0	-299.0	-112383.0
25	16	55	53	879	170.0	-107236.0	-296.0	-112671.0
25	16	55	53	880	171.0	-113181.0	-296.0	-112644.0
25	16	55	53	881	172.0	-122157.0	-336.0	-112022.0
25	16	55	53	881	173.0	-133357.0	-394.0	-111772.0
25	16	55	53	882	174.0	-145836.0	-429.0	-111676.0
25	16	55	53	882	175.0	-158778.0	-464.0	-111415.0
25	16	55	53	883	176.0	-171051.0	-499.0	-111387.0
25	16	55	53	883	177.0	-181810.0	-522.0	-111251.0
25	16	55	53	884	178.0	-191205.0	-538.0	-111807.0
25	16	55	53	885	179.0	-199494.0	-556.0	-111879.0
25	16	55	53	885	180.0	-206777.0	-582.0	-112197.0
25	16	55	53	886	181.0	-213087.0	-586.0	-111869.0
25	16	55	53	894	182.0	-219160.0	-607.0	-112146.0
25	16	55	53	894	183.0	-225280.0	-624.0	-112309.0
25	16	55	53	895	184.0	-230729.0	-644.0	-111970.0
25	16	55	53	896	185.0	-235316.0	-664.0	-111526.0
25	16	55	53	896	186.0	-239093.0	-703.0	-111721.0
25	16	55	53	897	187.0	-242130.0	-746.0	-111493.0
25	16	55	53	897	188.0	-244747.0	-761.0	-111743.0
25	16	55	53	917	189.0	-247248.0	-775.0	-111976.0
25	16	55	53	918	190.0	-249252.0	-820.0	-111832.0
25	16	55	53	919	191.0	-250570.0	-851.0	-111619.0
25	16	55	53	919	192.0	-251537.0	-917.0	-111372.0
25	16	55	53	920	193.0	-251789.0	-969.0	-111335.0
25	16	55	53	921	194.0	-250964.0	-1034.0	-111083.0
25	16	55	53	921	195.0	-249301.0	-1092.0	-110829.0
25	16	55	53	922	196.0	-247095.0	-1136.0	-111229.0
25	16	55	53	922	197.0	-244368.0	-1179.0	-111038.0
25	16	55	53	923	198.0	-241748.0	-1231.0	-111227.0
25	16	55	53	924	199.0	-239862.0	-1279.0	-111375.0
25	16	55	53	924	200.0	-238402.0	-1330.0	-111252.0
25	16	55	53	925	201.0	-236926.0	-1347.0	-111344.0
25	16	55	53	925	202.0	-235327.0	-1384.0	-111262.0
25	16	55	53	926	203.0	-232511.0	-1404.0	-110790.0
25	16	55	53	942	204.0	-228267.0	-1408.0	-110749.0
25	16	55	53	942	205.0	-222647.0	-1406.0	-110968.0
25	16	55	53	943	206.0	-215536.0	-1416.0	-111164.0
25	16	55	53	944	207.0	-206917.0	-1442.0	-110976.0
25	16	55	53	944	208.0	-196741.0	-1466.0	-111165.0
25	16	55	53	945	209.0	-185294.0	-1487.0	-111209.0
25	16	55	53	945	210.0	-173597.0	-1484.0	-111322.0
25	16	55	53	946	211.0	-162238.0	-1512.0	-111576.0
25	16	55	53	966	212.0	-151538.0	-1522.0	-111151.0
25	16	55	53	966	213.0	-142272.0	-1536.0	-110955.0
25	16	55	53	967	214.0	-134902.0	-1553.0	-111017.0
25	16	55	53	968	215.0	-129609.0	-1571.0	-110977.0
25	16	55	53	968	216.0	-126140.0	-1592.0	-111123.0
25	16	55	53	969	217.0	-124877.0	-1629.0	-111500.0
25	16	55	53	969	218.0	-125755.0	-1671.0	-112394.0
25	16	55	53	970	219.0	-128446.0	-1699.0	-112297.0
25	16	55	53	971	220.0	-132392.0	-1727.0	-111987.0
25	16	55	53	971	221.0	-137355.0	-1739.0	-112095.0
25	16	55	53	972	222.0	-143335.0	-1758.0	-111493.0
25	16	55	53	972	223.0	-149906.0	-1797.0	-110881.0
25	16	55	53	973	224.0	-157379.0	-1791.0	-111204.0
25	16	55	53	973	225.0	-166227.0	-1784.0	-111491.0
25	16	55	53	974	226.0	-175637.0	-1808.0	-111228.0
25	16	55	53	988	227.0	-185706.0	-1835.0	-110951.0
25	16	55	53	989	228.0	-196054.0	-1845.0	-111311.0
25	16	55	53	990	229.0	-206250.0	-1845.0	-111203.0
25	16	55	53	990	230.0	-216903.0	-1861.0	-111019.0
25	16	55	53	991	231.0	-227804.0	-1877.0	-110772.0
25	16	55	53	991	232.0	-239085.0	-1882.0	-110598.0
25	16	55	53	992	233.0	-250900.0	-1879.0	-110358.0
25	16	55	54	12	234.0	-263159.0	-1896.0	-110500.0
25	16	55	54	13	235.0	-275022.0	-1907.0	-110242.0
25	16	55	54	14	236.0	-285916.0	-1945.0	-110254.0
25	16	55	54	14	237.0	-295255.0	-1954.0	-110348.0
25	16	55	54	15	238.0	-302254.0	-1954.0	-110560.0
25	16	55	54	15	239.0	-306901.0	-1986.0	-110232.0
25	16	55	54	16	240.0	-309570.0	-1971.0	-110336.0
25	16	55	54	16	241.0	-309796.0	-1987.0	-110344.0
25	16	55	54	17	242.0	-307206.0	-1992.0	-110270.0
25	16	55	54	18	243.0	-301744.0	-1995.0	-110266.0
25	16	55	54	18	244.0	-293934.0	-2017.0	-110021.0
25	16	55	54	19	245.0	-284214.0	-2041.0	-109991.0
25	16	55	54	19	246.0	-273307.0	-2035.0	-109914.0
25	16	55	54	20	247.0	-261887.0	-2037.0	-110236.0
25	16	55	54	21	248.0	-249689.0	-2076.0	-110315.0
