25	16	16	12	51	204.0	-201455.0	-1721.0	-108692.0
25	16	16	12	53	205.0	-203664.0	-1731.0	-109022.0
25	16	16	12	56	206.0	-205791.0	-1736.0	-108039.0
25	16	16	12	59	207.0	-208077.0	-1737.0	-107673.0
25	16	16	12	61	208.0	-210953.0	-1754.0	-108067.0
25	16	16	12	63	209.0	-213741.0	-1733.0	-108733.0
25	16	16	12	65	210.0	-214022.0	-1721.0	-107927.0
25	16	16	12	67	211.0	-211064.0	-1747.0	-107757.0
25	16	16	12	70	212.0	-205976.0	-1756.0	-108497.0
25	16	16	12	71	213.0	-200797.0	-1741.0	-108610.0
25	16	16	12	71	214.0	-195987.0	-1745.0	-108766.0
25	16	16	12	72	215.0	-192637.0	-1752.0	-108606.0
25	16	16	12	72	216.0	-190624.0	-1749.0	-107798.0
25	16	16	12	73	217.0	-189846.0	-1727.0	-107424.0
25	16	16	12	79	218.0	-189981.0	-1732.0	-107716.0
25	16	16	12	80	219.0	-190194.0	-1739.0	-108684.0
25	16	16	12	80	220.0	-189862.0	-1725.0	-108103.0
25	16	16	12	81	221.0	-189935.0	-1733.0	-108210.0
25	16	16	12	82	222.0	-190661.0	-1720.0	-108999.0
25	16	16	12	89	223.0	-191294.0	-1697.0	-108554.0
25	16	16	12	90	224.0	-192551.0	-1686.0	-107619.0
25	16	16	12	90	225.0	-193887.0	-1701.0	-107656.0
25	16	16	12	91	226.0	-195087.0	-1716.0	-107585.0
25	16	16	12	119	227.0	-195543.0	-1723.0	-107304.0
25	16	16	12	153	228.0	-195510.0	-1722.0	-106771.0
25	16	16	12	154	229.0	-195460.0	-1706.0	-106569.0
25	16	16	12	154	230.0	-195974.0	-1707.0	-106029.0
25	16	16	12	155	231.0	-196371.0	-1725.0	-106419.0
25	16	16	12	155	232.0	-196757.0	-1712.0	-106522.0
25	16	16	12	156	233.0	-196797.0	-1723.0	-106886.0
25	16	16	12	157	234.0	-196724.0	-1734.0	-107310.0
25	16	16	12	157	235.0	-197113.0	-1729.0	-106013.0
25	16	16	12	158	236.0	-197644.0	-1719.0	-105892.0
25	16	16	12	158	237.0	-199066.0	-1724.0	-105855.0
25	16	16	12	159	238.0	-200724.0	-1731.0	-106684.0
25	16	16	12	159	239.0	-201911.0	-1729.0	-106665.0
25	16	16	12	160	240.0	-202482.0	-1746.0	-106839.0
25	16	16	12	160	241.0	-202767.0	-1771.0	-106649.0
25	16	16	12	161	242.0	-202753.0	-1770.0	-106757.0
25	16	16	12	161	4.0	-200045.0	-1785.0	-108674.0
25	16	16	12	162	5.0	-198969.0	-1804.0	-108141.0
25	16	16	12	163	6.0	-198337.0	-1802.0	-108336.0
25	16	16	12	163	7.0	-197851.0	-1795.0	-107831.0
25	16	16	12	164	8.0	-197256.0	-1796.0	-107482.0
25	16	16	12	164	9.0	-196536.0	-1788.0	-107434.0
25	16	16	12	165	10.0	-195847.0	-1784.0	-107804.0
25	16	16	12	197	11.0	-195304.0	-1781.0	-107622.0
25	16	16	12	197	12.0	-194521.0	-1785.0	-107466.0
25	16	16	12	198	13.0	-193886.0	-1781.0	-106847.0
25	16	16	12	198	14.0	-193011.0	-1791.0	-107042.0
25	16	16	12	199	15.0	-192684.0	-1807.0	-106362.0
25	16	16	12	199	16.0	-192412.0	-1814.0	-105960.0
25	16	16	12	200	17.0	-192349.0	-1823.0	-106315.0
25	16	16	12	200	18.0	-192819.0	-1828.0	-107163.0
25	16	16	12	201	19.0	-193738.0	-1842.0	-107116.0
25	16	16	12	201	20.0	-194954.0	-1851.0	-106035.0
25	16	16	12	202	21.0	-195982.0	-1849.0	-105432.0
25	16	16	12	219	22.0	-196873.0	-1857.0	-105059.0
25	16	16	12	220	23.0	-198102.0	-1864.0	-105068.0
25	16	16	12	220	24.0	-199904.0	-1866.0	-104849.0
25	16	16	12	221	25.0	-201801.0	-1863.0	-104561.0
25	16	16	12	221	26.0	-203752.0	-1881.0	-103452.0
25	16	16	12	222	27.0	-205524.0	-1889.0	-104239.0
25	16	16	12	222	28.0	-207454.0	-1884.0	-104409.0
25	16	16	12	223	29.0	-209251.0	-1859.0	-103980.0
25	16	16	12	223	30.0	-210827.0	-1855.0	-103559.0
25	16	16	12	224	31.0	-212100.0	-1857.0	-103200.0
25	16	16	12	224	32.0	-213511.0	-1861.0	-101798.0
25	16	16	12	242	33.0	-214764.0	-1852.0	-100687.0
25	16	16	12	242	34.0	-215560.0	-1832.0	-100869.0
25	16	16	12	243	35.0	-215491.0	-1829.0	-101123.0
25	16	16	12	244	36.0	-214988.0	-1837.0	-101677.0
25	16	16	12	244	37.0	-214412.0	-1843.0	-101440.0
25	16	16	12	245	38.0	-213850.0	-1828.0	-100447.0
25	16	16	12	245	39.0	-213179.0	-1812.0	-100011.0
25	16	16	12	246	40.0	-212637.0	-1806.0	-99721.0
25	16	16	12	246	41.0	-211952.0	-1827.0	-99767.0
25	16	16	12	247	42.0	-211395.0	-1836.0	-100234.0
25	16	16	12	247	43.0	-210942.0	-1843.0	-99697.0
25	16	16	12	248	44.0	-210388.0	-1846.0	-99612.0
25	16	16	12	248	45.0	-209467.0	-1836.0	-99051.0
25	16	16	12	249	46.0	-208647.0	-1837.0	-98642.0
25	16	16	12	249	47.0	-207582.0	-1820.0	-99321.0
25	16	16	12	250	49.0	-204550.0	-1824.0	-98921.0
25	16	16	12	251	50.0	-203031.0	-1840.0	-98579.0
25	16	16	12	251	51.0	-201652.0	-1824.0	-97731.0
25	16	16	12	252	52.0	-200702.0	-1812.0	-97702.0
25	16	16	12	252	53.0	-200490.0	-1799.0	-97776.0
25	16	16	12	253	54.0	-200037.0	-1781.0	-97389.0
25	16	16	12	287	55.0	-199328.0	-1766.0	-96465.0
25	16	16	12	288	56.0	-198303.0	-1752.0	-96694.0
25	16	16	12	289	57.0	-197142.0	-1749.0	-97353.0
25	16	16	12	289	58.0	-195789.0	-1732.0	-97339.0
25	16	16	12	290	59.0	-194639.0	-1737.0	-97182.0
25	16	16	12	291	60.0	-193701.0	-1751.0	-97677.0
25	16	16	12	291	61.0	-193181.0	-1761.0	-100314.0
25	16	16	12	292	62.0	-193129.0	-1758.0	-106167.0
25	16	16	12	292	63.0	-193174.0	-1736.0	-110619.0
25	16	16	12	300	64.0	-190794.0	-1732.0	-112482.0
25	16	16	12	301	65.0	-183202.0	-1722.0	-113307.0
25	16	16	12	302	66.0	-174292.0	-1722.0	-113437.0
25	16	16	12	302	67.0	-174745.0	-1724.0	-113757.0
25	16	16	12	303	68.0	-186774.0	-1719.0	-113838.0
25	16	16	12	303	69.0	-194451.0	-1701.0	-113614.0
25	16	16	12	304	71.0	-202897.0	-1722.0	-114065.0
25	16	16	12	304	72.0	-207009.0	-1709.0	-114835.0
25	16	16	12	305	73.0	-210956.0	-1716.0	-115252.0
25	16	16	12	305	74.0	-211597.0	-1708.0	-114822.0
25	16	16	12	306	75.0	-211075.0	-1704.0	-114544.0
25	16	16	12	306	76.0	-208997.0	-1704.0	-114131.0
25	16	16	12	307	77.0	-204615.0	-1709.0	-113810.0
25	16	16	12	332	78.0	-200559.0	-1720.0	-113847.0
25	16	16	12	333	79.0	-198079.0	-1707.0	-114109.0
25	16	16	12	333	80.0	-198592.0	-1714.0	-114544.0
25	16	16	12	334	81.0	-200264.0	-1707.0	-114596.0
25	16	16	12	335	82.0	-200626.0	-1722.0	-114291.0
25	16	16	12	335	83.0	-200820.0	-1724.0	-113086.0
25	16	16	12	336	84.0	-201973.0	-1715.0	-113098.0
25	16	16	12	336	85.0	-204052.0	-1708.0	-113119.0
25	16	16	12	337	86.0	-206006.0	-1719.0	-113457.0
25	16	16	12	337	87.0	-207486.0	-1721.0	-112980.0
25	16	16	12	338	88.0	-209048.0	-1719.0	-113159.0
25	16	16	12	338	89.0	-211019.0	-1707.0	-113251.0
25	16	16	12	339	90.0	-212183.0	-1729.0	-114290.0
25	16	16	12	340	91.0	-212334.0	-1716.0	-114386.0
25	16	16	12	340	92.0	-211479.0	-1709.0	-114366.0
25	16	16	12	341	94.0	-207570.0	-1727.0	-113781.0
25	16	16	12	341	95.0	-206067.0	-1725.0	-113582.0
25	16	16	12	342	96.0	-204690.0	-1703.0	-114281.0
25	16	16	12	342	97.0	-203664.0	-1706.0	-113455.0
25	16	16	12	343	98.0	-203219.0	-1704.0	-114319.0
25	16	16	12	344	99.0	-203192.0	-1695.0	-114750.0
25	16	16	12	376	100.0	-203031.0	-1699.0	-114261.0
25	16	16	12	377	101.0	-202754.0	-1697.0	-114596.0
25	16	16	12	378	102.0	-202114.0	-1686.0	-115308.0
25	16	16	12	379	103.0	-200993.0	-1710.0	-115304.0
25	16	16	12	379	104.0	-199747.0	-1706.0	-115949.0
25	16	16	12	380	105.0	-198064.0	-1679.0	-116156.0
25	16	16	12	380	106.0	-196288.0	-1695.0	-116005.0
25	16	16	12	381	107.0	-194739.0	-1704.0	-115978.0
25	16	16	12	381	108.0	-193696.0	-1703.0	-115726.0
25	16	16	12	382	109.0	-193252.0	-1688.0	-115672.0
25	16	16	12	382	110.0	-193153.0	-1680.0	-115097.0
25	16	16	12	401	111.0	-193589.0	-1692.0	-114223.0
25	16	16	12	401	112.0	-194337.0	-1698.0	-114690.0
25	16	16	12	402	113.0	-194815.0	-1706.0	-114704.0
25	16	16	12	402	114.0	-195601.0	-1708.0	-114801.0
25	16	16	12	403	116.0	-197193.0	-1688.0	-114939.0
25	16	16	12	403	117.0	-197792.0	-1707.0	-115342.0
25	16	16	12	404	118.0	-198339.0	-1706.0	-115751.0
25	16	16	12	405	119.0	-198944.0	-1699.0	-116028.0
25	16	16	12	405	120.0	-199794.0	-1715.0	-115083.0
25	16	16	12	406	121.0	-200624.0	-1711.0	-115352.0
25	16	16	12	406	122.0	-201484.0	-1721.0	-115819.0
25	16	16	12	425	123.0	-202746.0	-1693.0	-116332.0
25	16	16	12	425	124.0	-204027.0	-1679.0	-116940.0
25	16	16	12	426	125.0	-205030.0	-1682.0	-116088.0
25	16	16	12	426	126.0	-205813.0	-1679.0	-116424.0
25	16	16	12	427	127.0	-206411.0	-1690.0	-116852.0
25	16	16	12	427	128.0	-206755.0	-1698.0	-117357.0
25	16	16	12	428	129.0	-207151.0	-1689.0	-116949.0
25	16	16	12	429	130.0	-207597.0	-1709.0	-115813.0
25	16	16	12	429	131.0	-207719.0	-1732.0	-116608.0
25	16	16	12	430	132.0	-207821.0	-1726.0	-116745.0
25	16	16	12	430	133.0	-208386.0	-1724.0	-116114.0
25	16	16	12	431	134.0	-208720.0	-1732.0	-115643.0
25	16	16	12	431	135.0	-208586.0	-1748.0	-115527.0
25	16	16	12	432	136.0	-208307.0	-1775.0	-115606.0
25	16	16	12	432	137.0	-208244.0	-1776.0	-116544.0
25	16	16	12	433	139.0	-206162.0	-1793.0	-116277.0
25	16	16	12	433	140.0	-204577.0	-1796.0	-115459.0
25	16	16	12	434	141.0	-203109.0	-1790.0	-115736.0
25	16	16	12	435	142.0	-201908.0	-1797.0	-116348.0
25	16	16	12	435	143.0	-201021.0	-1793.0	-116243.0
25	16	16	12	436	144.0	-200096.0	-1787.0	-116388.0
25	16	16	12	467	145.0	-199566.0	-1806.0	-116722.0
25	16	16	12	468	146.0	-199552.0	-1815.0	-116847.0
25	16	16	12	469	147.0	-199489.0	-1832.0	-116635.0
25	16	16	12	469	148.0	-199281.0	-1846.0	-116125.0
25	16	16	12	470	149.0	-198846.0	-1849.0	-117021.0
25	16	16	12	470	150.0	-198147.0	-1857.0	-117963.0
25	16	16	12	471	151.0	-196694.0	-1866.0	-117883.0
25	16	16	12	472	152.0	-195039.0	-1883.0	-118094.0
25	16	16	12	472	153.0	-193815.0	-1902.0	-118011.0
25	16	16	12	473	154.0	-193405.0	-1887.0	-117734.0
25	16	16	12	473	155.0	-193684.0	-1881.0	-117402.0
25	16	16	12	474	156.0	-194390.0	-1876.0	-117419.0
25	16	16	12	474	157.0	-195214.0	-1897.0	-117943.0
25	16	16	12	475	158.0	-196141.0	-1901.0	-118719.0
25	16	16	12	476	159.0	-197021.0	-1889.0	-118473.0
25	16	16	12	476	161.0	-198221.0	-1917.0	-118329.0
25	16	16	12	477	162.0	-198385.0	-1921.0	-118559.0
25	16	16	12	477	163.0	-198624.0	-1912.0	-118294.0
25	16	16	12	478	164.0	-198959.0	-1916.0	-118088.0
25	16	16	12	478	165.0	-199451.0	-1921.0	-117374.0
25	16	16	12	479	166.0	-199724.0	-1906.0	-118618.0
25	16	16	12	512	167.0	-199784.0	-1914.0	-118712.0
25	16	16	12	513	168.0	-199986.0	-1923.0	-118310.0
25	16	16	12	514	169.0	-200240.0	-1907.0	-119227.0
25	16	16	12	514	170.0	-200442.0	-1911.0	-119956.0
25	16	16	12	515	171.0	-200607.0	-1901.0	-120145.0
25	16	16	12	515	172.0	-200760.0	-1916.0	-118985.0
25	16	16	12	516	173.0	-200814.0	-1919.0	-119479.0
25	16	16	12	517	174.0	-200889.0	-1892.0	-120086.0
25	16	16	12	517	175.0	-200843.0	-1902.0	-119219.0
25	16	16	12	518	176.0	-201032.0	-1915.0	-119456.0
25	16	16	12	518	177.0	-201214.0	-1921.0	-120028.0
25	16	16	12	519	178.0	-201729.0	-1917.0	-119755.0
25	16	16	12	519	179.0	-202428.0	-1920.0	-119577.0
25	16	16	12	520	180.0	-203423.0	-1928.0	-119656.0
25	16	16	12	521	181.0	-204137.0	-1941.0	-119234.0
25	16	16	12	521	184.0	-205552.0	-1946.0	-119612.0
25	16	16	12	522	185.0	-205854.0	-1934.0	-119782.0
25	16	16	12	522	186.0	-205485.0	-1931.0	-119137.0
25	16	16	12	523	187.0	-204879.0	-1917.0	-118692.0
25	16	16	12	523	188.0	-204209.0	-1911.0	-119193.0
25	16	16	12	524	189.0	-203308.0	-1914.0	-119581.0
25	16	16	12	557	190.0	-201961.0	-1902.0	-118949.0
25	16	16	12	558	191.0	-200372.0	-1904.0	-118789.0
25	16	16	12	603	192.0	-199377.0	-1911.0	-118489.0
25	16	16	12	604	193.0	-198713.0	-1921.0	-118390.0
25	16	16	12	604	194.0	-198041.0	-1927.0	-118196.0
25	16	16	12	605	195.0	-196985.0	-1919.0	-118090.0
25	16	16	12	605	196.0	-195683.0	-1916.0	-118814.0
25	16	16	12	606	197.0	-194311.0	-1924.0	-120079.0
25	16	16	12	606	198.0	-193234.0	-1945.0	-120076.0
25	16	16	12	607	199.0	-192421.0	-1940.0	-120303.0
25	16	16	12	607	200.0	-191832.0	-1947.0	-119945.0
25	16	16	12	608	201.0	-191663.0	-1969.0	-119635.0
25	16	16	12	609	202.0	-191848.0	-1964.0	-120421.0
25	16	16	12	609	203.0	-192182.0	-1963.0	-123459.0
25	16	16	12	610	204.0	-192370.0	-1955.0	-126017.0
25	16	16	12	610	206.0	-192151.0	-1976.0	-130182.0
25	16	16	12	611	207.0	-192005.0	-1992.0	-132526.0
25	16	16	12	611	228.0	-189835.0	-2009.0	-119016.0
25	16	16	12	612	229.0	-173013.0	-2015.0	-119443.0
25	16	16	12	613	230.0	-159637.0	-2017.0	-120766.0
25	16	16	12	613	231.0	-152842.0	-1991.0	-120895.0
25	16	16	12	614	232.0	-154425.0	-2009.0	-121319.0
25	16	16	12	614	233.0	-163343.0	-1992.0	-121568.0
25	16	16	12	615	234.0	-179166.0	-1974.0	-121398.0
25	16	16	12	646	235.0	-199117.0	-2000.0	-121809.0
25	16	16	12	647	236.0	-217654.0	-2011.0	-121122.0
25	16	16	12	648	237.0	-230066.0	-2034.0	-121704.0
25	16	16	12	648	238.0	-235148.0	-2031.0	-121201.0
25	16	16	12	649	239.0	-235144.0	-2024.0	-120514.0
25	16	16	12	650	240.0	-230599.0	-2059.0	-119744.0
25	16	16	12	650	241.0	-222339.0	-2061.0	-119386.0
25	16	16	12	666	242.0	-211121.0	-2056.0	-120069.0
25	16	16	12	666	243.0	-198706.0	-2046.0	-120728.0
25	16	16	12	667	244.0	-190619.0	-2061.0	-120730.0
25	16	16	12	667	245.0	-188556.0	-2089.0	-119970.0
25	16	16	12	668	246.0	-191011.0	-2080.0	-119281.0
25	16	16	12	668	247.0	-194081.0	-2077.0	-118890.0
25	16	16	12	669	248.0	-198326.0	-2086.0	-118967.0
25	16	16	12	669	249.0	-204359.0	-2089.0	-118654.0
25	16	16	12	692	251.0	-215172.0	-2072.0	-118421.0
25	16	16	12	693	252.0	-217902.0	-2080.0	-117697.0
25	16	16	12	694	253.0	-217840.0	-2059.0	-118144.0
25	16	16	12	694	254.0	-215366.0	-2072.0	-118811.0
25	16	16	12	695	255.0	-211308.0	-2076.0	-118573.0
25	16	16	12	695	0.0	-206534.0	-2074.0	-119435.0
25	16	16	12	696	1.0	-201696.0	-2069.0	-119032.0
25	16	16	12	697	2.0	-197355.0	-2076.0	-119434.0
25	16	16	12	697	3.0	-193754.0	-2077.0	-119721.0
25	16	16	12	698	4.0	-191065.0	-2114.0	-119989.0
25	16	16	12	699	5.0	-189144.0	-2101.0	-120382.0
25	16	16	12	699	6.0	-187547.0	-2090.0	-120449.0
25	16	16	12	700	7.0	-186464.0	-2097.0	-120137.0
25	16	16	12	701	8.0	-186194.0	-2101.0	-120486.0
25	16	16	12	701	9.0	-186854.0	-2087.0	-121002.0
25	16	16	12	702	10.0	-187890.0	-2086.0	-120887.0
25	16	16	12	702	18.0	-197359.0	-2116.0	-120924.0
25	16	16	12	703	19.0	-197218.0	-2104.0	-121459.0
25	16	16	12	704	20.0	-197091.0	-2120.0	-121411.0
25	16	16	12	704	21.0	-197579.0	-2112.0	-121094.0
25	16	16	12	705	22.0	-198395.0	-2104.0	-121899.0
25	16	16	12	705	23.0	-199322.0	-2106.0	-122550.0
25	16	16	12	736	24.0	-199876.0	-2123.0	-121861.0
25	16	16	12	737	25.0	-200127.0	-2109.0	-122247.0
25	16	16	12	738	26.0	-199963.0	-2122.0	-122653.0
25	16	16	12	738	27.0	-199909.0	-2142.0	-122464.0
25	16	16	12	739	28.0	-199765.0	-2141.0	-122076.0
25	16	16	12	740	29.0	-199502.0	-2129.0	-121743.0
25	16	16	12	740	30.0	-198665.0	-2133.0	-121818.0
25	16	16	12	741	31.0	-197505.0	-2140.0	-121939.0
25	16	16	12	742	32.0	-196251.0	-2146.0	-122320.0
25	16	16	12	742	33.0	-195566.0	-2164.0	-122277.0
25	16	16	12	743	34.0	-195080.0	-2164.0	-121916.0
25	16	16	12	744	35.0	-194755.0	-2152.0	-121471.0
25	16	16	12	744	36.0	-194457.0	-2144.0	-120939.0
25	16	16	12	745	37.0	-194465.0	-2149.0	-120876.0
25	16	16	12	745	38.0	-194327.0	-2154.0	-120751.0
25	16	16	12	746	40.0	-193712.0	-2154.0	-120686.0
25	16	16	12	747	41.0	-193632.0	-2150.0	-121717.0
25	16	16	12	748	42.0	-193676.0	-2158.0	-120923.0
25	16	16	12	748	43.0	-193905.0	-2176.0	-121279.0
25	16	16	12	749	44.0	-194174.0	-2161.0	-121540.0
25	16	16	12	750	45.0	-194791.0	-2167.0	-121991.0
25	16	16	12	781	46.0	-195402.0	-2135.0	-122679.0
25	16	16	12	782	47.0	-196224.0	-2149.0	-122859.0
25	16	16	12	782	48.0	-197245.0	-2149.0	-122826.0
25	16	16	12	783	49.0	-198494.0	-2132.0	-122698.0
25	16	16	12	783	50.0	-199967.0	-2139.0	-122079.0
25	16	16	12	784	51.0	-201574.0	-2155.0	-121483.0
25	16	16	12	785	52.0	-202694.0	-2154.0	-121482.0
25	16	16	12	785	53.0	-203574.0	-2162.0	-122299.0
25	16	16	12	786	54.0	-204129.0	-2159.0	-122453.0
25	16	16	12	798	55.0	-204514.0	-2135.0	-122571.0
25	16	16	12	799	56.0	-205077.0	-2122.0	-122476.0
25	16	16	12	799	57.0	-205601.0	-2126.0	-121783.0
25	16	16	12	800	58.0	-205950.0	-2152.0	-121984.0
25	16	16	12	800	59.0	-206538.0	-2173.0	-122489.0
25	16	16	12	801	60.0	-206788.0	-2168.0	-122274.0
25	16	16	12	802	62.0	-206099.0	-2176.0	-120734.0
25	16	16	12	802	63.0	-205469.0	-2166.0	-121275.0
25	16	16	12	803	64.0	-204586.0	-2162.0	-120521.0
25	16	16	12	803	65.0	-203865.0	-2162.0	-119654.0
25	16	16	12	804	66.0	-202984.0	-2191.0	-119037.0
25	16	16	12	804	67.0	-202294.0	-2189.0	-119327.0
25	16	16	12	805	68.0	-201704.0	-2169.0	-120201.0
25	16	16	12	827	69.0	-201312.0	-2162.0	-120986.0
25	16	16	12	828	70.0	-201232.0	-2141.0	-120778.0
25	16	16	12	828	71.0	-201384.0	-2124.0	-119251.0
25	16	16	12	829	72.0	-201418.0	-2142.0	-119706.0
25	16	16	12	830	73.0	-201529.0	-2142.0	-120187.0
25	16	16	12	830	74.0	-201389.0	-2141.0	-120462.0
25	16	16	12	831	75.0	-201220.0	-2139.0	-120232.0
25	16	16	12	832	76.0	-201314.0	-2119.0	-119719.0
25	16	16	12	832	77.0	-201630.0	-2122.0	-118623.0
25	16	16	12	833	78.0	-202268.0	-2115.0	-118476.0
25	16	16	12	834	79.0	-203445.0	-2109.0	-118892.0
25	16	16	12	834	80.0	-204688.0	-2111.0	-119660.0
25	16	16	12	835	81.0	-205850.0	-2091.0	-119929.0
25	16	16	12	835	82.0	-206969.0	-2081.0	-120418.0
25	16	16	12	836	83.0	-208015.0	-2066.0	-119716.0
25	16	16	12	837	85.0	-209747.0	-2051.0	-118421.0
25	16	16	12	838	86.0	-209914.0	-2049.0	-118423.0
25	16	16	12	838	87.0	-209709.0	-2031.0	-119817.0
25	16	16	12	839	88.0	-209306.0	-2022.0	-120366.0
25	16	16	12	839	89.0	-208852.0	-1998.0	-120331.0
25	16	16	12	840	90.0	-208237.0	-1976.0	-121445.0
25	16	16	12	872	91.0	-207613.0	-1952.0	-121008.0
25	16	16	12	873	92.0	-207046.0	-1957.0	-120354.0
25	16	16	12	874	93.0	-206209.0	-1964.0	-120535.0
25	16	16	12	875	94.0	-205594.0	-1939.0	-120766.0
25	16	16	12	875	95.0	-204705.0	-1929.0	-121082.0
25	16	16	12	876	96.0	-203467.0	-1924.0	-122004.0
25	16	16	12	877	97.0	-202399.0	-1908.0	-121517.0
25	16	16	12	877	98.0	-201034.0	-1885.0	-121209.0
25	16	16	12	878	99.0	-199616.0	-1859.0	-121007.0
25	16	16	12	879	100.0	-198106.0	-1858.0	-121370.0
25	16	16	12	879	101.0	-196829.0	-1862.0	-121302.0
25	16	16	12	880	102.0	-195713.0	-1831.0	-120227.0
25	16	16	12	880	103.0	-193524.0	-1814.0	-120958.0
25	16	16	12	881	104.0	-188101.0	-1815.0	-121041.0
25	16	16	12	882	105.0	-178521.0	-1791.0	-121041.0
25	16	16	12	882	107.0	-181355.0	-1798.0	-120572.0
25	16	16	12	883	108.0	-190981.0	-1780.0	-121496.0
25	16	16	12	883	109.0	-195380.0	-1747.0	-122561.0
25	16	16	12	884	110.0	-200142.0	-1731.0	-122554.0
25	16	16	12	885	111.0	-206198.0	-1729.0	-121801.0
25	16	16	12	885	112.0	-212921.0	-1709.0	-122351.0
25	16	16	12	917	113.0	-214759.0	-1689.0	-122781.0
25	16	16	12	930	114.0	-214523.0	-1669.0	-122794.0
25	16	16	12	931	115.0	-213461.0	-1659.0	-123399.0
25	16	16	12	932	116.0	-210125.0	-1662.0	-123311.0
25	16	16	12	933	117.0	-206493.0	-1644.0	-122677.0
25	16	16	12	933	118.0	-203246.0	-1619.0	-122431.0
25	16	16	12	934	119.0	-200882.0	-1611.0	-122737.0
25	16	16	12	934	120.0	-198465.0	-1602.0	-122844.0
25	16	16	12	962	121.0	-196386.0	-1587.0	-122319.0
25	16	16	12	963	122.0	-195465.0	-1612.0	-121975.0
25	16	16	12	963	123.0	-194847.0	-1586.0	-122826.0
25	16	16	12	964	124.0	-195657.0	-1566.0	-122894.0
25	16	16	12	965	125.0	-197441.0	-1575.0	-123001.0
25	16	16	12	965	126.0	-199172.0	-1571.0	-122844.0
25	16	16	12	966	127.0	-199376.0	-1550.0	-122589.0
25	16	16	12	967	130.0	-199951.0	-1538.0	-122477.0
25	16	16	12	967	131.0	-200249.0	-1529.0	-122487.0
25	16	16	12	968	132.0	-200834.0	-1531.0	-122682.0
25	16	16	12	969	133.0	-202169.0	-1532.0	-122879.0
25	16	16	13	9	134.0	-203998.0	-1527.0	-122678.0
25	16	16	13	9	135.0	-205271.0	-1509.0	-122386.0
25	16	16	13	10	136.0	-205698.0	-1491.0	-121781.0
25	16	16	13	11	137.0	-205602.0	-1485.0	-122262.0
25	16	16	13	12	138.0	-205137.0	-1464.0	-122677.0
25	16	16	13	12	152.0	-200756.0	-1441.0	-125352.0
25	16	16	13	13	153.0	-200527.0	-1454.0	-126146.0
25	16	16	13	14	154.0	-200035.0	-1429.0	-126787.0
25	16	16	13	14	155.0	-199557.0	-1427.0	-126987.0
25	16	16	13	15	156.0	-199453.0	-1408.0	-127086.0
25	16	16	13	16	157.0	-199118.0	-1412.0	-126359.0
25	16	16	13	16	158.0	-198733.0	-1436.0	-126934.0
25	16	16	13	17	159.0	-198574.0	-1415.0	-127806.0
25	16	16	13	18	160.0	-198757.0	-1403.0	-128506.0
25	16	16	13	18	161.0	-198644.0	-1404.0	-129226.0
25	16	16	13	19	174.0	-198999.0	-1441.0	-129626.0
25	16	16	13	20	175.0	-198962.0	-1421.0	-130041.0
25	16	16	13	20	176.0	-199114.0	-1404.0	-129797.0
25	16	16	13	21	177.0	-199195.0	-1404.0	-130058.0
25	16	16	13	21	178.0	-199289.0	-1414.0	-130534.0
25	16	16	13	22	179.0	-199827.0	-1397.0	-130018.0
25	16	16	13	22	180.0	-200392.0	-1403.0	-130364.0
25	16	16	13	53	181.0	-200872.0	-1394.0	-130916.0
25	16	16	13	53	182.0	-201362.0	-1385.0	-131395.0
25	16	16	13	54	183.0	-202074.0	-1395.0	-131504.0
25	16	16	13	55	184.0	-202782.0	-1381.0	-131552.0
25	16	16	13	55	185.0	-202556.0	-1388.0	-131997.0
25	16	16	13	56	186.0	-202117.0	-1381.0	-132381.0
25	16	16	13	57	187.0	-201933.0	-1393.0	-132086.0
25	16	16	13	57	188.0	-201716.0	-1396.0	-132353.0
25	16	16	13	58	189.0	-201481.0	-1408.0	-132586.0
25	16	16	13	59	190.0	-201596.0	-1416.0	-132372.0
25	16	16	13	59	191.0	-201266.0	-1416.0	-131967.0
25	16	16	13	60	192.0	-201166.0	-1411.0	-131592.0
25	16	16	13	61	193.0	-201491.0	-1396.0	-131694.0
25	16	16	13	62	194.0	-201342.0	-1404.0	-132319.0
25	16	16	13	62	195.0	-201287.0	-1412.0	-132139.0
25	16	16	13	63	197.0	-202297.0	-1428.0	-130819.0
25	16	16	13	63	198.0	-202734.0	-1439.0	-131024.0
25	16	16	13	64	199.0	-203131.0	-1435.0	-130694.0
25	16	16	13	65	200.0	-203496.0	-1432.0	-131042.0
25	16	16	13	65	201.0	-203316.0	-1436.0	-130596.0
25	16	16	13	66	202.0	-203307.0	-1447.0	-130340.0
25	16	16	13	97	203.0	-203284.0	-1441.0	-130413.0
25	16	16	13	98	204.0	-202949.0	-1418.0	-130345.0
25	16	16	13	98	205.0	-202644.0	-1434.0	-130546.0
25	16	16	13	99	206.0	-202441.0	-1459.0	-130401.0
25	16	16	13	100	207.0	-201941.0	-1454.0	-130004.0
25	16	16	13	100	208.0	-201721.0	-1459.0	-130173.0
25	16	16	13	101	209.0	-201258.0	-1465.0	-129956.0
25	16	16	13	102	210.0	-200347.0	-1454.0	-130408.0
25	16	16	13	103	211.0	-199980.0	-1447.0	-130139.0
25	16	16	13	103	212.0	-199730.0	-1457.0	-129804.0
25	16	16	13	104	213.0	-199673.0	-1453.0	-129779.0
25	16	16	13	105	214.0	-199867.0	-1438.0	-129711.0
25	16	16	13	105	215.0	-200017.0	-1456.0	-129091.0
25	16	16	13	106	216.0	-200166.0	-1463.0	-129100.0
25	16	16	13	107	217.0	-200345.0	-1460.0	-128819.0
25	16	16	13	107	219.0	-200956.0	-1488.0	-127202.0
25	16	16	13	108	220.0	-200871.0	-1479.0	-126264.0
25	16	16	13	109	221.0	-200081.0	-1476.0	-127699.0
25	16	16	13	109	222.0	-198427.0	-1464.0	-126993.0
25	16	16	13	110	223.0	-196182.0	-1475.0	-125527.0
25	16	16	13	110	224.0	-194156.0	-1460.0	-125113.0
25	16	16	13	111	225.0	-192433.0	-1458.0	-126152.0
25	16	16	13	142	226.0	-191083.0	-1472.0	-126796.0
25	16	16	13	143	227.0	-190643.0	-1484.0	-126674.0
25	16	16	13	144	228.0	-190219.0	-1472.0	-127292.0
25	16	16	13	145	229.0	-189758.0	-1492.0	-127458.0
25	16	16	13	145	230.0	-189602.0	-1491.0	-127309.0
25	16	16	13	146	231.0	-189379.0	-1504.0	-127102.0
25	16	16	13	147	232.0	-189139.0	-1499.0	-127516.0
25	16	16	13	147	233.0	-189196.0	-1493.0	-127803.0
25	16	16	13	188	234.0	-189394.0	-1502.0	-128224.0
25	16	16	13	189	235.0	-190021.0	-1512.0	-127694.0
25	16	16	13	190	236.0	-191352.0	-1540.0	-128457.0
25	16	16	13	190	237.0	-192497.0	-1553.0	-128394.0
25	16	16	13	191	238.0	-193665.0	-1541.0	-127634.0
25	16	16	13	192	239.0	-194991.0	-1547.0	-127697.0
25	16	16	13	232	240.0	-196368.0	-1556.0	-128537.0
25	16	16	13	233	242.0	-199369.0	-1567.0	-127964.0
25	16	16	13	234	243.0	-200917.0	-1575.0	-129755.0
25	16	16	13	234	244.0	-202601.0	-1590.0	-132169.0
25	16	16	13	235	245.0	-204864.0	-1583.0	-134222.0
25	16	16	13	235	246.0	-206781.0	-1608.0	-136787.0
25	16	16	13	236	247.0	-207722.0	-1620.0	-139212.0
25	16	16	13	237	248.0	-207667.0	-1603.0	-141277.0
25	16	16	13	238	249.0	-207004.0	-1625.0	-143283.0
25	16	16	13	238	250.0	-206221.0	-1634.0	-145422.0
25	16	16	13	239	9.0	-200176.0	-1694.0	-116810.0
25	16	16	13	239	10.0	-200341.0	-1697.0	-118762.0
25	16	16	13	240	11.0	-200010.0	-1705.0	-120442.0
25	16	16	13	241	12.0	-198627.0	-1696.0	-122819.0
25	16	16	13	241	13.0	-191907.0	-1694.0	-124305.0
25	16	16	13	242	31.0	-186711.0	-1721.0	-128410.0
25	16	16	13	243	32.0	-190726.0	-1724.0	-129284.0
25	16	16	13	243	33.0	-196368.0	-1724.0	-128966.0
25	16	16	13	244	34.0	-203855.0	-1714.0	-128056.0
25	16	16	13	244	35.0	-211756.0	-1711.0	-128801.0
25	16	16	13	245	36.0	-218108.0	-1722.0	-128818.0
25	16	16	13	277	37.0	-222502.0	-1709.0	-128810.0
25	16	16	13	277	38.0	-224038.0	-1716.0	-128888.0
25	16	16	13	278	39.0	-221806.0	-1724.0	-129039.0
25	16	16	13	279	40.0	-216927.0	-1714.0	-129293.0
25	16	16	13	280	41.0	-211260.0	-1708.0	-129869.0
25	16	16	13	280	42.0	-205452.0	-1717.0	-129018.0
25	16	16	13	281	43.0	-199814.0	-1722.0	-128652.0
25	16	16	13	282	44.0	-194673.0	-1720.0	-128110.0
25	16	16	13	282	45.0	-190627.0	-1731.0	-127856.0
25	16	16	13	283	46.0	-187134.0	-1732.0	-127885.0
25	16	16	13	284	47.0	-184682.0	-1734.0	-127857.0
25	16	16	13	285	48.0	-183549.0	-1745.0	-128685.0
25	16	16	13	285	49.0	-183221.0	-1748.0	-128331.0
25	16	16	13	286	50.0	-183302.0	-1722.0	-128525.0
25	16	16	13	287	51.0	-183735.0	-1707.0	-127989.0
25	16	16	13	287	53.0	-186358.0	-1723.0	-128398.0
25	16	16	13	288	54.0	-187798.0	-1739.0	-128075.0
25	16	16	13	299	55.0	-189021.0	-1721.0	-127393.0
25	16	16	13	300	56.0	-190069.0	-1694.0	-126778.0
25	16	16	13	301	57.0	-190951.0	-1698.0	-126060.0
25	16	16	13	302	58.0	-191592.0	-1716.0	-125473.0
25	16	16	13	321	59.0	-192303.0	-1705.0	-124999.0
25	16	16	13	322	60.0	-193323.0	-1697.0	-124975.0
25	16	16	13	322	61.0	-194345.0	-1686.0	-124932.0
25	16	16	13	323	62.0	-195199.0	-1690.0	-124968.0
25	16	16	13	323	63.0	-195616.0	-1715.0	-125098.0
25	16	16	13	324	64.0	-195999.0	-1711.0	-125556.0
25	16	16	13	325	65.0	-196538.0	-1717.0	-125656.0
25	16	16	13	325	66.0	-197002.0	-1722.0	-125679.0
25	16	16	13	326	67.0	-197542.0	-1711.0	-126192.0
25	16	16	13	326	68.0	-198051.0	-1699.0	-125919.0
25	16	16	13	327	69.0	-198494.0	-1705.0	-125842.0
25	16	16	13	327	70.0	-198727.0	-1712.0	-124347.0
25	16	16	13	328	71.0	-198562.0	-1730.0	-124194.0
25	16	16	13	328	72.0	-198111.0	-1716.0	-123882.0
25	16	16	13	329	73.0	-197828.0	-1725.0	-122882.0
25	16	16	13	330	76.0	-196598.0	-1749.0	-124584.0
25	16	16	13	330	77.0	-195912.0	-1757.0	-123935.0
25	16	16	13	331	78.0	-195332.0	-1732.0	-123693.0
25	16	16	13	331	79.0	-195184.0	-1740.0	-123525.0
25	16	16	13	332	80.0	-194797.0	-1743.0	-123488.0
25	16	16	13	343	81.0	-194329.0	-1730.0	-123933.0
25	16	16	13	367	82.0	-193861.0	-1731.0	-123489.0
25	16	16	13	367	83.0	-193066.0	-1736.0	-122725.0
25	16	16	13	368	84.0	-192274.0	-1742.0	-123005.0
25	16	16	13	369	85.0	-191206.0	-1744.0	-122852.0
25	16	16	13	369	86.0	-190266.0	-1764.0	-122514.0
25	16	16	13	370	87.0	-189629.0	-1771.0	-122654.0
25	16	16	13	370	88.0	-189889.0	-1763.0	-122721.0
25	16	16	13	371	89.0	-190984.0	-1762.0	-121983.0
25	16	16	13	371	90.0	-192333.0	-1779.0	-121267.0
25	16	16	13	372	91.0	-193973.0	-1799.0	-121786.0
25	16	16	13	373	92.0	-195738.0	-1791.0	-122159.0
25	16	16	13	373	93.0	-197259.0	-1797.0	-120757.0
25	16	16	13	374	94.0	-198692.0	-1799.0	-120966.0
25	16	16	13	374	95.0	-200373.0	-1813.0	-121808.0
25	16	16	13	375	96.0	-201923.0	-1811.0	-121982.0
25	16	16	13	375	98.0	-204397.0	-1817.0	-121286.0
25	16	16	13	376	99.0	-205647.0	-1836.0	-121052.0
25	16	16	13	377	100.0	-206674.0	-1822.0	-121583.0
25	16	16	13	377	101.0	-207466.0	-1829.0	-122531.0
25	16	16	13	378	102.0	-207880.0	-1826.0	-122902.0
25	16	16	13	390	103.0	-208394.0	-1818.0	-123149.0
25	16	16	13	414	104.0	-209007.0	-1812.0	-124499.0
25	16	16	13	415	105.0	-209484.0	-1814.0	-126301.0
25	16	16	13	415	106.0	-209334.0	-1814.0	-126292.0
25	16	16	13	458	107.0	-208906.0	-1826.0	-125258.0
25	16	16	13	459	108.0	-208646.0	-1854.0	-125382.0
25	16	16	13	459	109.0	-208523.0	-1847.0	-125871.0
25	16	16	13	460	110.0	-208615.0	-1867.0	-125808.0
25	16	16	13	460	111.0	-208591.0	-1858.0	-126275.0
25	16	16	13	461	112.0	-208414.0	-1851.0	-126114.0
25	16	16	13	461	113.0	-208356.0	-1844.0	-126272.0
25	16	16	13	462	114.0	-208322.0	-1835.0	-126181.0
25	16	16	13	463	115.0	-207988.0	-1831.0	-126221.0
25	16	16	13	463	116.0	-207668.0	-1837.0	-126347.0
25	16	16	13	464	117.0	-207557.0	-1829.0	-126611.0
25	16	16	13	464	118.0	-207131.0	-1827.0	-126322.0
25	16	16	13	465	120.0	-204936.0	-1840.0	-126962.0
25	16	16	13	465	121.0	-203836.0	-1829.0	-126469.0
25	16	16	13	466	122.0	-202949.0	-1822.0	-126366.0
25	16	16	13	467	123.0	-202002.0	-1814.0	-126064.0
25	16	16	13	467	143.0	-187559.0	-1734.0	-128052.0
25	16	16	13	468	144.0	-185283.0	-1722.0	-128345.0
25	16	16	13	468	145.0	-178700.0	-1711.0	-127965.0
25	16	16	13	469	146.0	-171969.0	-1702.0	-128826.0
25	16	16	13	469	147.0	-174093.0	-1689.0	-128763.0
25	16	16	13	470	148.0	-186267.0	-1677.0	-129372.0
25	16	16	13	470	149.0	-193117.0	-1664.0	-129892.0
25	16	16	13	502	150.0	-198223.0	-1661.0	-129477.0
25	16	16	13	503	151.0	-204106.0	-1654.0	-128542.0
25	16	16	13	504	152.0	-210680.0	-1666.0	-128600.0
25	16	16	13	504	153.0	-216472.0	-1660.0	-129609.0
25	16	16	13	505	154.0	-218062.0	-1642.0	-129454.0
25	16	16	13	505	155.0	-216740.0	-1636.0	-128441.0
25	16	16	13	506	156.0	-213900.0	-1630.0	-127371.0
25	16	16	13	507	157.0	-209842.0	-1644.0	-126846.0
25	16	16	13	507	158.0	-206817.0	-1642.0	-128248.0
25	16	16	13	508	159.0	-204465.0	-1624.0	-128515.0
25	16	16	13	508	160.0	-203023.0	-1605.0	-128247.0
25	16	16	13	509	161.0	-202149.0	-1603.0	-127662.0
25	16	16	13	509	162.0	-202259.0	-1585.0	-127472.0
25	16	16	13	510	163.0	-202967.0	-1564.0	-128137.0
25	16	16	13	510	164.0	-203577.0	-1564.0	-128151.0
25	16	16	13	511	165.0	-203513.0	-1574.0	-127019.0
25	16	16	13	512	166.0	-202895.0	-1574.0	-127793.0
25	16	16	13	512	167.0	-201351.0	-1559.0	-127545.0
25	16	16	13	513	168.0	-199866.0	-1541.0	-126940.0
25	16	16	13	513	169.0	-197853.0	-1543.0	-127157.0
25	16	16	13	514	170.0	-195802.0	-1558.0	-127064.0
25	16	16	13	514	171.0	-194102.0	-1564.0	-127726.0
25	16	16	13	592	172.0	-193321.0	-1554.0	-127394.0
25	16	16	13	593	173.0	-192950.0	-1530.0	-127602.0
25	16	16	13	594	174.0	-193383.0	-1524.0	-127899.0
25	16	16	13	594	175.0	-194952.0	-1532.0	-128267.0
25	16	16	13	595	176.0	-197181.0	-1544.0	-128017.0
25	16	16	13	595	177.0	-199303.0	-1549.0	-127589.0
25	16	16	13	596	178.0	-201531.0	-1557.0	-127317.0
25	16	16	13	596	179.0	-203544.0	-1547.0	-127637.0
25	16	16	13	598	180.0	-204819.0	-1544.0	-128316.0
25	16	16	13	599	181.0	-204396.0	-1541.0	-127862.0
25	16	16	13	600	182.0	-202682.0	-1546.0	-127717.0
25	16	16	13	601	183.0	-200409.0	-1542.0	-126129.0
25	16	16	13	601	184.0	-198544.0	-1539.0	-125196.0
25	16	16	13	602	185.0	-197082.0	-1536.0	-125623.0
25	16	16	13	638	186.0	-196583.0	-1536.0	-125220.0
25	16	16	13	639	210.0	-201840.0	-1606.0	-127272.0
25	16	16	13	640	211.0	-201799.0	-1612.0	-127689.0
25	16	16	13	640	212.0	-201746.0	-1611.0	-127682.0
25	16	16	13	641	213.0	-201251.0	-1604.0	-128109.0
25	16	16	13	642	214.0	-200595.0	-1607.0	-129003.0
25	16	16	13	642	215.0	-199932.0	-1587.0	-128965.0
25	16	16	13	643	216.0	-199482.0	-1602.0	-128599.0
25	16	16	13	643	217.0	-199124.0	-1626.0	-129116.0
25	16	16	13	644	218.0	-198971.0	-1618.0	-129008.0
25	16	16	13	645	219.0	-199010.0	-1617.0	-128547.0
25	16	16	13	645	220.0	-199183.0	-1624.0	-129450.0
25	16	16	13	646	221.0	-199509.0	-1643.0	-129937.0
25	16	16	13	646	222.0	-199982.0	-1652.0	-129670.0
25	16	16	13	647	223.0	-200329.0	-1656.0	-129385.0
25	16	16	13	648	233.0	-200904.0	-1722.0	-130266.0
25	16	16	13	648	234.0	-201457.0	-1718.0	-130843.0
25	16	16	13	649	235.0	-202328.0	-1737.0	-131729.0
25	16	16	13	649	236.0	-203447.0	-1740.0	-132517.0
25	16	16	13	650	237.0	-204568.0	-1746.0	-131484.0
25	16	16	13	650	238.0	-205401.0	-1746.0	-131556.0
25	16	16	13	682	239.0	-205775.0	-1777.0	-130971.0
25	16	16	13	683	240.0	-205536.0	-1767.0	-130029.0
25	16	16	13	683	241.0	-204823.0	-1762.0	-130348.0
25	16	16	13	684	242.0	-203964.0	-1779.0	-130862.0
25	16	16	13	685	243.0	-203550.0	-1790.0	-130807.0
25	16	16	13	685	244.0	-203337.0	-1803.0	-130518.0
25	16	16	13	686	245.0	-203149.0	-1806.0	-130316.0
25	16	16	13	686	246.0	-202902.0	-1811.0	-130694.0
25	16	16	13	687	247.0	-202847.0	-1816.0	-130816.0
25	16	16	13	687	248.0	-202684.0	-1837.0	-129569.0
25	16	16	13	688	249.0	-202730.0	-1842.0	-129281.0
25	16	16	13	689	250.0	-203130.0	-1844.0	-129660.0
25	16	16	13	689	251.0	-203752.0	-1839.0	-129956.0
25	16	16	13	690	252.0	-204064.0	-1851.0	-130395.0
25	16	16	13	690	253.0	-204080.0	-1864.0	-130012.0
25	16	16	13	691	255.0	-202751.0	-1869.0	-129148.0
25	16	16	13	692	0.0	-201080.0	-1884.0	-129569.0
25	16	16	13	692	1.0	-199250.0	-1869.0	-129936.0
25	16	16	13	693	2.0	-197574.0	-1857.0	-129306.0
25	16	16	13	693	3.0	-196564.0	-1854.0	-129494.0
25	16	16	13	694	4.0	-195857.0	-1868.0	-129283.0
25	16	16	13	727	5.0	-195463.0	-1876.0	-128657.0
25	16	16	13	727	6.0	-194979.0	-1849.0	-129007.0
25	16	16	13	728	7.0	-194608.0	-1854.0	-129450.0
25	16	16	13	729	8.0	-194018.0	-1852.0	-128466.0
25	16	16	13	730	9.0	-193477.0	-1831.0	-128580.0
25	16	16	13	730	10.0	-192958.0	-1833.0	-130277.0
25	16	16	13	731	11.0	-192929.0	-1842.0	-130812.0
25	16	16	13	731	12.0	-192841.0	-1862.0	-131184.0
25	16	16	13	732	13.0	-192740.0	-1850.0	-130977.0
25	16	16	13	733	14.0	-192591.0	-1845.0	-130754.0
25	16	16	13	733	15.0	-192695.0	-1846.0	-130877.0
25	16	16	13	734	16.0	-193051.0	-1854.0	-131632.0
25	16	16	13	734	17.0	-193767.0	-1840.0	-132984.0
25	16	16	13	735	18.0	-194543.0	-1831.0	-134053.0
25	16	16	13	736	19.0	-195870.0	-1831.0	-135810.0
25	16	16	13	736	22.0	-199759.0	-1859.0	-143790.0
25	16	16	13	737	23.0	-200651.0	-1842.0	-145607.0
25	16	16	13	737	24.0	-201207.0	-1829.0	-147332.0
25	16	16	13	738	25.0	-201975.0	-1837.0	-149697.0
25	16	16	13	738	26.0	-202604.0	-1842.0	-151917.0
25	16	16	13	739	27.0	-203392.0	-1831.0	-153722.0
25	16	16	13	772	28.0	-204184.0	-1838.0	-155197.0
25	16	16	13	773	29.0	-204816.0	-1839.0	-155452.0
25	16	16	13	773	30.0	-204803.0	-1837.0	-153970.0
25	16	16	13	774	31.0	-204800.0	-1851.0	-152198.0
25	16	16	13	775	32.0	-203976.0	-1847.0	-149789.0
25	16	16	13	775	33.0	-203172.0	-1846.0	-147073.0
25	16	16	13	776	34.0	-202337.0	-1833.0	-143051.0
25	16	16	13	777	35.0	-202417.0	-1852.0	-137694.0
25	16	16	13	777	36.0	-203185.0	-1866.0	-130818.0
25	16	16	13	778	37.0	-204686.0	-1867.0	-126013.0
25	16	16	13	778	38.0	-206021.0	-1867.0	-122591.0
25	16	16	13	779	39.0	-207159.0	-1871.0	-121380.0
25	16	16	13	780	40.0	-207129.0	-1861.0	-123386.0
25	16	16	13	781	41.0	-206092.0	-1874.0	-126002.0
25	16	16	13	782	42.0	-204050.0	-1883.0	-128197.0
25	16	16	13	783	44.0	-192694.0	-1879.0	-131675.0
25	16	16	13	783	45.0	-179460.0	-1871.0	-132032.0
25	16	16	13	784	46.0	-166377.0	-1867.0	-133086.0
25	16	16	13	784	47.0	-156544.0	-1867.0	-133959.0
25	16	16	13	785	48.0	-153118.0	-1869.0	-133706.0
25	16	16	13	785	49.0	-155912.0	-1874.0	-133489.0
25	16	16	13	817	50.0	-163539.0	-1844.0	-134324.0
25	16	16	13	818	51.0	-177328.0	-1838.0	-134773.0
25	16	16	13	819	52.0	-194936.0	-1859.0	-134829.0
25	16	16	13	819	53.0	-210427.0	-1863.0	-135084.0
25	16	16	13	820	54.0	-219499.0	-1866.0	-135375.0
25	16	16	13	820	55.0	-221744.0	-1862.0	-135758.0
25	16	16	13	821	56.0	-216997.0	-1854.0	-135829.0
25	16	16	13	821	57.0	-210141.0	-1870.0	-135724.0
25	16	16	13	822	58.0	-202541.0	-1869.0	-136586.0
25	16	16	13	842	59.0	-196457.0	-1870.0	-137450.0
25	16	16	13	842	60.0	-194279.0	-1859.0	-138022.0
25	16	16	13	843	61.0	-196646.0	-1873.0	-137727.0
25	16	16	13	843	62.0	-201716.0	-1881.0	-138097.0
25	16	16	13	844	63.0	-208067.0	-1877.0	-138476.0
25	16	16	13	845	64.0	-214081.0	-1876.0	-138526.0
25	16	16	13	845	66.0	-221021.0	-1878.0	-138403.0
25	16	16	13	846	67.0	-220073.0	-1886.0	-138646.0
25	16	16	13	846	68.0	-216567.0	-1882.0	-138556.0
25	16	16	13	847	69.0	-211874.0	-1869.0	-138823.0
25	16	16	13	847	70.0	-206839.0	-1877.0	-138956.0
25	16	16	13	848	71.0	-202105.0	-1884.0	-139637.0
25	16	16	13	865	72.0	-198267.0	-1869.0	-139995.0
25	16	16	13	866	73.0	-195544.0	-1864.0	-139256.0
25	16	16	13	867	74.0	-193754.0	-1857.0	-139032.0
25	16	16	13	867	75.0	-192536.0	-1869.0	-138479.0
25	16	16	13	868	76.0	-191420.0	-1880.0	-138334.0
25	16	16	13	869	77.0	-190443.0	-1874.0	-138552.0
25	16	16	13	869	78.0	-189541.0	-1861.0	-138893.0
25	16	16	13	870	79.0	-188676.0	-1857.0	-139188.0
25	16	16	13	870	80.0	-187939.0	-1857.0	-138986.0
25	16	16	13	871	81.0	-187652.0	-1879.0	-138763.0
25	16	16	13	872	82.0	-187970.0	-1874.0	-139591.0
25	16	16	13	872	83.0	-188482.0	-1889.0	-140799.0
25	16	16	13	873	84.0	-188859.0	-1884.0	-139918.0
25	16	16	13	873	85.0	-189526.0	-1909.0	-140036.0
25	16	16	13	874	86.0	-190694.0	-1911.0	-140971.0
25	16	16	13	875	87.0	-192216.0	-1902.0	-140626.0
25	16	16	13	875	89.0	-195093.0	-1894.0	-140713.0
25	16	16	13	876	90.0	-196031.0	-1904.0	-140538.0
25	16	16	13	876	91.0	-196594.0	-1919.0	-140614.0
25	16	16	13	877	92.0	-196621.0	-1907.0	-140865.0
25	16	16	13	877	93.0	-196057.0	-1907.0	-141378.0
25	16	16	13	878	94.0	-195694.0	-1911.0	-141204.0
25	16	16	13	879	95.0	-195558.0	-1916.0	-141644.0
25	16	16	13	907	96.0	-195754.0	-1916.0	-142037.0
25	16	16	13	907	97.0	-195998.0	-1907.0	-141537.0
25	16	16	13	908	98.0	-196299.0	-1891.0	-141861.0
25	16	16	13	909	99.0	-196216.0	-1893.0	-142479.0
25	16	16	13	910	100.0	-196046.0	-1911.0	-143447.0
25	16	16	13	923	101.0	-195802.0	-1928.0	-143929.0
25	16	16	13	923	102.0	-195859.0	-1934.0	-143869.0
25	16	16	13	924	103.0	-196177.0	-1931.0	-142643.0
25	16	16	13	924	104.0	-196579.0	-1929.0	-142755.0
25	16	16	13	925	105.0	-196606.0	-1921.0	-142912.0
25	16	16	13	925	106.0	-196866.0	-1924.0	-142404.0
25	16	16	13	926	107.0	-197193.0	-1929.0	-142789.0
25	16	16	13	927	108.0	-197615.0	-1929.0	-143623.0
25	16	16	13	927	109.0	-197835.0	-1921.0	-144907.0
25	16	16	13	928	110.0	-197698.0	-1944.0	-144616.0
25	16	16	13	928	111.0	-197183.0	-1944.0	-144957.0
25	16	16	13	929	112.0	-196488.0	-1946.0	-144966.0
25	16	16	13	929	113.0	-195715.0	-1946.0	-143884.0
25	16	16	13	930	114.0	-195106.0	-1954.0	-144057.0
25	16	16	13	930	115.0	-194452.0	-1944.0	-144831.0
25	16	16	13	931	116.0	-194256.0	-1952.0	-144999.0
25	16	16	13	931	117.0	-194498.0	-1937.0	-145242.0
25	16	16	13	952	118.0	-195119.0	-1930.0	-146197.0
25	16	16	13	952	119.0	-195657.0	-1927.0	-146038.0
25	16	16	13	953	120.0	-196026.0	-1949.0	-145166.0
25	16	16	13	953	121.0	-196384.0	-1971.0	-145266.0
25	16	16	13	954	122.0	-197075.0	-1976.0	-145689.0
25	16	16	13	996	123.0	-197936.0	-1980.0	-145436.0
25	16	16	13	997	124.0	-198847.0	-1976.0	-145658.0
25	16	16	13	997	125.0	-199485.0	-1986.0	-145766.0
25	16	16	13	998	126.0	-200213.0	-1998.0	-145140.0
25	16	16	13	998	127.0	-200988.0	-2011.0	-144729.0
25	16	16	13	999	128.0	-201964.0	-2002.0	-145064.0
25	16	16	14	0	129.0	-202982.0	-1987.0	-145433.0
25	16	16	14	0	130.0	-204311.0	-1994.0	-144104.0
25	16	16	14	1	131.0	-205372.0	-1988.0	-144472.0
25	16	16	14	1	132.0	-206464.0	-2002.0	-143996.0
25	16	16	14	2	134.0	-208194.0	-2027.0	-145446.0
25	16	16	14	3	135.0	-208603.0	-2007.0	-145586.0
25	16	16	14	11	136.0	-208556.0	-2009.0	-145927.0
25	16	16	14	11	137.0	-207857.0	-2012.0	-145714.0
25	16	16	14	12	138.0	-207224.0	-2017.0	-145043.0
25	16	16	14	13	156.0	-203799.0	-1988.0	-148383.0
25	16	16	14	13	157.0	-203437.0	-1996.0	-148929.0
25	16	16	14	14	158.0	-202717.0	-1992.0	-149245.0
25	16	16	14	14	159.0	-202032.0	-1991.0	-149886.0
25	16	16	14	15	160.0	-201721.0	-1962.0	-150197.0
25	16	16	14	15	161.0	-201625.0	-1960.0	-150436.0
25	16	16	14	16	162.0	-201829.0	-1945.0	-150767.0
25	16	16	14	42	163.0	-202004.0	-1935.0	-151314.0
25	16	16	14	43	164.0	-202154.0	-1920.0	-151234.0
25	16	16	14	43	165.0	-201774.0	-1911.0	-151459.0
25	16	16	14	44	166.0	-201067.0	-1893.0	-152359.0
25	16	16	14	45	167.0	-199875.0	-1886.0	-152824.0
25	16	16	14	45	168.0	-198326.0	-1887.0	-152974.0
25	16	16	14	46	169.0	-196712.0	-1887.0	-153424.0
25	16	16	14	46	170.0	-195173.0	-1872.0	-153592.0
25	16	16	14	47	171.0	-193412.0	-1880.0	-152798.0
25	16	16	14	48	172.0	-191911.0	-1873.0	-153211.0
25	16	16	14	50	173.0	-190448.0	-1858.0	-153549.0
25	16	16	14	51	174.0	-188631.0	-1859.0	-153896.0
25	16	16	14	52	175.0	-184519.0	-1852.0	-153787.0
25	16	16	14	53	176.0	-177150.0	-1849.0	-153800.0
25	16	16	14	53	177.0	-172075.0	-1827.0	-153210.0
25	16	16	14	54	179.0	-189715.0	-1826.0	-152946.0
25	16	16	14	54	180.0	-195326.0	-1819.0	-153171.0
25	16	16	14	55	181.0	-199596.0	-1827.0	-152294.0
25	16	16	14	55	182.0	-203456.0	-1799.0	-152811.0
25	16	16	14	56	183.0	-209021.0	-1795.0	-153544.0
25	16	16	14	57	184.0	-214676.0	-1786.0	-153446.0
25	16	16	14	87	185.0	-216406.0	-1770.0	-153354.0
25	16	16	14	105	186.0	-216616.0	-1754.0	-154017.0
25	16	16	14	106	187.0	-216694.0	-1766.0	-154844.0
25	16	16	14	106	188.0	-216216.0	-1751.0	-153273.0
25	16	16	14	107	189.0	-215619.0	-1764.0	-152983.0
25	16	16	14	107	190.0	-214294.0	-1767.0	-153474.0
25	16	16	14	108	191.0	-212489.0	-1737.0	-154015.0
25	16	16	14	109	192.0	-210385.0	-1731.0	-154677.0
25	16	16	14	109	193.0	-208271.0	-1731.0	-154746.0
25	16	16	14	110	194.0	-206806.0	-1712.0	-154460.0
25	16	16	14	110	195.0	-206104.0	-1712.0	-153743.0
25	16	16	14	111	196.0	-206079.0	-1716.0	-154162.0
25	16	16	14	222	197.0	-205925.0	-1707.0	-153756.0
25	16	16	14	223	198.0	-204893.0	-1697.0	-152964.0
25	16	16	14	223	199.0	-202661.0	-1712.0	-152911.0
25	16	16	14	224	201.0	-197731.0	-1721.0	-152864.0
25	16	16	14	225	202.0	-196968.0	-1725.0	-152862.0
25	16	16	14	267	203.0	-196887.0	-1687.0	-153238.0
25	16	16	14	268	204.0	-196652.0	-1695.0	-153966.0
25	16	16	14	268	205.0	-196691.0	-1677.0	-153526.0
25	16	16	14	269	206.0	-197417.0	-1666.0	-153032.0
25	16	16	14	270	207.0	-198104.0	-1683.0	-152222.0
25	16	16	14	271	208.0	-198707.0	-1687.0	-152261.0
25	16	16	14	273	209.0	-199982.0	-1671.0	-151469.0
25	16	16	14	273	210.0	-202060.0	-1658.0	-150747.0
25	16	16	14	274	211.0	-204441.0	-1647.0	-150788.0
25	16	16	14	275	212.0	-206416.0	-1637.0	-150827.0
25	16	16	14	275	246.0	-197888.0	-1693.0	-144821.0
25	16	16	14	276	13.0	-206500.0	-1766.0	-140307.0
25	16	16	14	277	14.0	-206061.0	-1777.0	-139706.0
25	16	16	14	277	15.0	-205751.0	-1746.0	-139462.0
25	16	16	14	278	16.0	-205436.0	-1749.0	-139855.0
25	16	16	14	279	17.0	-205181.0	-1766.0	-139882.0
25	16	16	14	279	35.0	-194430.0	-1867.0	-133319.0
25	16	16	14	280	36.0	-193504.0	-1877.0	-132033.0
25	16	16	14	280	37.0	-192494.0	-1865.0	-132201.0
25	16	16	14	281	38.0	-191625.0	-1868.0	-132494.0
25	16	16	14	282	39.0	-191174.0	-1847.0	-130871.0
25	16	16	14	312	40.0	-191232.0	-1842.0	-129608.0
25	16	16	14	313	41.0	-192052.0	-1839.0	-129928.0
25	16	16	14	313	42.0	-193194.0	-1835.0	-130208.0
25	16	16	14	314	43.0	-194139.0	-1825.0	-129502.0
25	16	16	14	315	44.0	-194872.0	-1842.0	-128646.0
25	16	16	14	315	45.0	-195224.0	-1845.0	-128096.0
25	16	16	14	316	46.0	-195213.0	-1844.0	-127479.0
25	16	16	14	317	47.0	-195436.0	-1849.0	-127229.0
25	16	16	14	317	48.0	-195884.0	-1842.0	-127458.0
25	16	16	14	318	49.0	-196462.0	-1847.0	-127066.0
25	16	16	14	318	50.0	-197014.0	-1854.0	-127717.0
25	16	16	14	319	51.0	-197702.0	-1847.0	-127788.0
25	16	16	14	320	52.0	-198557.0	-1863.0	-127793.0
25	16	16	14	321	53.0	-199531.0	-1856.0	-127201.0
25	16	16	14	322	54.0	-200599.0	-1852.0	-127970.0
25	16	16	14	322	55.0	-201630.0	-1874.0	-128781.0
25	16	16	14	323	58.0	-203762.0	-1888.0	-128704.0
25	16	16	14	324	59.0	-204452.0	-1897.0	-130123.0
25	16	16	14	324	60.0	-204921.0	-1878.0	-132085.0
25	16	16	14	325	61.0	-205124.0	-1858.0	-134632.0
25	16	16	14	325	62.0	-204957.0	-1876.0	-137508.0
25	16	16	14	326	63.0	-204434.0	-1867.0	-140133.0
25	16	16	14	358	64.0	-203621.0	-1864.0	-141476.0
25	16	16	14	358	65.0	-202551.0	-1846.0	-142867.0
25	16	16	14	359	66.0	-201396.0	-1856.0	-145216.0
25	16	16	14	360	67.0	-200601.0	-1869.0	-147041.0
25	16	16	14	360	68.0	-200295.0	-1876.0	-149105.0
25	16	16	14	361	69.0	-200359.0	-1884.0	-151020.0
25	16	16	14	403	70.0	-200692.0	-1884.0	-152229.0
25	16	16	14	404	71.0	-201007.0	-1875.0	-153066.0
25	16	16	14	405	72.0	-200974.0	-1873.0	-152491.0
25	16	16	14	405	73.0	-201035.0	-1883.0	-149835.0
25	16	16	14	406	74.0	-200916.0	-1888.0	-147456.0
25	16	16	14	407	75.0	-200522.0	-1894.0	-144932.0
25	16	16	14	407	76.0	-199992.0	-1898.0	-141772.0
25	16	16	14	408	77.0	-199624.0	-1902.0	-138927.0
25	16	16	14	409	78.0	-199510.0	-1925.0	-133814.0
25	16	16	14	409	80.0	-200294.0	-1928.0	-124880.0
25	16	16	14	410	81.0	-200961.0	-1945.0	-122806.0
25	16	16	14	411	82.0	-201550.0	-1927.0	-123432.0
25	16	16	14	412	83.0	-202078.0	-1913.0	-125258.0
25	16	16	14	413	84.0	-201597.0	-1933.0	-127656.0
25	16	16	14	413	85.0	-198736.0	-1936.0	-129722.0
25	16	16	14	414	102.0	-204006.0	-1956.0	-134047.0
25	16	16	14	415	103.0	-204527.0	-1964.0	-133595.0
25	16	16	14	415	104.0	-206767.0	-1953.0	-133386.0
25	16	16	14	416	105.0	-210662.0	-1944.0	-133842.0
25	16	16	14	417	106.0	-214246.0	-1964.0	-133688.0
25	16	16	14	418	107.0	-215238.0	-1968.0	-133212.0
25	16	16	14	418	108.0	-214153.0	-1960.0	-133649.0
25	16	16	14	447	109.0	-211366.0	-1972.0	-133774.0
25	16	16	14	448	110.0	-206976.0	-1974.0	-132204.0
25	16	16	14	449	111.0	-201125.0	-1989.0	-131379.0
25	16	16	14	449	112.0	-195074.0	-1989.0	-131581.0
25	16	16	14	450	113.0	-190526.0	-1986.0	-131594.0
25	16	16	14	451	114.0	-187428.0	-1985.0	-131892.0
25	16	16	14	451	115.0	-185596.0	-1967.0	-131952.0
25	16	16	14	452	116.0	-185057.0	-1969.0	-131824.0
25	16	16	14	453	117.0	-185473.0	-2001.0	-132102.0
25	16	16	14	453	118.0	-186159.0	-1992.0	-131908.0
25	16	16	14	454	119.0	-186399.0	-1994.0	-131937.0
25	16	16	14	455	120.0	-186212.0	-1991.0	-131371.0
25	16	16	14	456	121.0	-186151.0	-2019.0	-130992.0
25	16	16	14	457	122.0	-186714.0	-2016.0	-130628.0
25	16	16	14	457	123.0	-188327.0	-2000.0	-130276.0
25	16	16	14	458	125.0	-194529.0	-2041.0	-131185.0
25	16	16	14	458	126.0	-197723.0	-2031.0	-131063.0
25	16	16	14	459	127.0	-200051.0	-2032.0	-131387.0
25	16	16	14	460	128.0	-201266.0	-2036.0	-132381.0
25	16	16	14	460	129.0	-201547.0	-2041.0	-133767.0
25	16	16	14	461	130.0	-201254.0	-2029.0	-134144.0
25	16	16	14	492	131.0	-200973.0	-2034.0	-133322.0
25	16	16	14	493	132.0	-200696.0	-2046.0	-133649.0
25	16	16	14	494	133.0	-200187.0	-2042.0	-133050.0
25	16	16	14	494	134.0	-199846.0	-2049.0	-132929.0
25	16	16	14	495	135.0	-199576.0	-2049.0	-133324.0
25	16	16	14	496	136.0	-199291.0	-2041.0	-133457.0
25	16	16	14	496	137.0	-199115.0	-2054.0	-133336.0
25	16	16	14	497	138.0	-199089.0	-2070.0	-133544.0
25	16	16	14	498	139.0	-198925.0	-2075.0	-133834.0
25	16	16	14	498	140.0	-198686.0	-2086.0	-133958.0
25	16	16	14	499	141.0	-198152.0	-2079.0	-133672.0
25	16	16	14	500	142.0	-197311.0	-2082.0	-134188.0
25	16	16	14	500	143.0	-196242.0	-2088.0	-134149.0
25	16	16	14	501	144.0	-195217.0	-2096.0	-133711.0
25	16	16	14	501	145.0	-194255.0	-2097.0	-133037.0
25	16	16	14	502	147.0	-192869.0	-2079.0	-133981.0
25	16	16	14	503	148.0	-192746.0	-2102.0	-134373.0
25	16	16	14	503	149.0	-192543.0	-2112.0	-134386.0
25	16	16	14	504	150.0	-192279.0	-2104.0	-134582.0
25	16	16	14	505	151.0	-192266.0	-2094.0	-135644.0
25	16	16	14	505	152.0	-192536.0	-2086.0	-136052.0
25	16	16	14	506	153.0	-193185.0	-2082.0	-135826.0
25	16	16	14	537	154.0	-194189.0	-2089.0	-136534.0
25	16	16	14	538	155.0	-195539.0	-2081.0	-137070.0
25	16	16	14	539	156.0	-196816.0	-2094.0	-136917.0
25	16	16	14	539	157.0	-197859.0	-2112.0	-136896.0
25	16	16	14	540	158.0	-198608.0	-2119.0	-136863.0
25	16	16	14	541	159.0	-199159.0	-2132.0	-136866.0
25	16	16	14	541	160.0	-199365.0	-2128.0	-137772.0
25	16	16	14	542	161.0	-199420.0	-2133.0	-137734.0
25	16	16	14	543	162.0	-199772.0	-2147.0	-136331.0
25	16	16	14	543	163.0	-200092.0	-2156.0	-136454.0
25	16	16	14	544	164.0	-200284.0	-2137.0	-136856.0
25	16	16	14	582	165.0	-200806.0	-2146.0	-136483.0
25	16	16	14	583	166.0	-201577.0	-2166.0	-136606.0
25	16	16	14	584	167.0	-202316.0	-2171.0	-135882.0
25	16	16	14	584	168.0	-202869.0	-2160.0	-135939.0
25	16	16	14	585	170.0	-203968.0	-2177.0	-136777.0
25	16	16	14	627	171.0	-204417.0	-2197.0	-136481.0
25	16	16	14	628	172.0	-204792.0	-2196.0	-135536.0
25	16	16	14	629	173.0	-204713.0	-2192.0	-135106.0
25	16	16	14	630	174.0	-204307.0	-2196.0	-135171.0
25	16	16	14	630	175.0	-204219.0	-2219.0	-134759.0
25	16	16	14	631	176.0	-204657.0	-2226.0	-134863.0
25	16	16	14	632	177.0	-205153.0	-2209.0	-135021.0
25	16	16	14	632	178.0	-205364.0	-2220.0	-135172.0
25	16	16	14	633	179.0	-205114.0	-2235.0	-135327.0
25	16	16	14	634	180.0	-204898.0	-2215.0	-134742.0
25	16	16	14	634	181.0	-204611.0	-2208.0	-135334.0
25	16	16	14	635	192.0	-205414.0	-2221.0	-128204.0
25	16	16	14	635	193.0	-204934.0	-2213.0	-127953.0
25	16	16	14	636	194.0	-204388.0	-2205.0	-128041.0
25	16	16	14	637	195.0	-203872.0	-2194.0	-127089.0
25	16	16	14	637	214.0	-194727.0	-2114.0	-126666.0
25	16	16	14	638	215.0	-194887.0	-2105.0	-126651.0
25	16	16	14	639	216.0	-195095.0	-2095.0	-127001.0
25	16	16	14	639	217.0	-195440.0	-2088.0	-126998.0
25	16	16	14	640	218.0	-195959.0	-2080.0	-126590.0
25	16	16	14	640	219.0	-196246.0	-2077.0	-126194.0
25	16	16	14	641	220.0	-195828.0	-2078.0	-126508.0
25	16	16	14	673	221.0	-192894.0	-2063.0	-126497.0
25	16	16	14	674	222.0	-185301.0	-2047.0	-125299.0
25	16	16	14	675	223.0	-178723.0	-2032.0	-126301.0
25	16	16	14	675	224.0	-183288.0	-2024.0	-127527.0
25	16	16	14	676	225.0	-195267.0	-2024.0	-126689.0
25	16	16	14	676	226.0	-200383.0	-2021.0	-127231.0
25	16	16	14	677	227.0	-204679.0	-2018.0	-126985.0
25	16	16	14	677	228.0	-207434.0	-1997.0	-126472.0
25	16	16	14	678	229.0	-211603.0	-1996.0	-126616.0
25	16	16	14	679	230.0	-216029.0	-2006.0	-126164.0
25	16	16	14	679	231.0	-217913.0	-1992.0	-126121.0
25	16	16	14	680	232.0	-219401.0	-2000.0	-127163.0
25	16	16	14	680	233.0	-218799.0	-2010.0	-127007.0
25	16	16	14	681	234.0	-215726.0	-2013.0	-127491.0
25	16	16	14	681	235.0	-211518.0	-2005.0	-128024.0
25	16	16	14	682	237.0	-203864.0	-2002.0	-128201.0
25	16	16	14	682	238.0	-202634.0	-1997.0	-128180.0
25	16	16	14	683	239.0	-201224.0	-1996.0	-128592.0
25	16	16	14	684	240.0	-199084.0	-1998.0	-128506.0
25	16	16	14	684	241.0	-197715.0	-2000.0	-127877.0
25	16	16	14	685	242.0	-197711.0	-1984.0	-128399.0
25	16	16	14	716	243.0	-198174.0	-1984.0	-128516.0
25	16	16	14	717	244.0	-198771.0	-1973.0	-127764.0
25	16	16	14	718	245.0	-200456.0	-1979.0	-127616.0
25	16	16	14	718	246.0	-203268.0	-1980.0	-127605.0
25	16	16	14	719	247.0	-206114.0	-1976.0	-126833.0
25	16	16	14	719	248.0	-208282.0	-1971.0	-126922.0
25	16	16	14	720	249.0	-208870.0	-1954.0	-127210.0
25	16	16	14	720	250.0	-208010.0	-1967.0	-127010.0
25	16	16	14	721	251.0	-206389.0	-1989.0	-127242.0
25	16	16	14	721	252.0	-204188.0	-1983.0	-127939.0
25	16	16	14	722	253.0	-202184.0	-1987.0	-127701.0
25	16	16	14	733	254.0	-201072.0	-2003.0	-127938.0
25	16	16	14	734	255.0	-200791.0	-1985.0	-128696.0
25	16	16	14	734	0.0	-201181.0	-1984.0	-128494.0
25	16	16	14	735	1.0	-202236.0	-1997.0	-128436.0
25	16	16	14	735	3.0	-203705.0	-2009.0	-128556.0
25	16	16	14	736	4.0	-203662.0	-2016.0	-128242.0
25	16	16	14	736	5.0	-202739.0	-2016.0	-128461.0
25	16	16	14	737	6.0	-201376.0	-2012.0	-128660.0
25	16	16	14	738	7.0	-199580.0	-2007.0	-129717.0
25	16	16	14	738	8.0	-197783.0	-2001.0	-130263.0
25	16	16	14	739	9.0	-195962.0	-2001.0	-130312.0
25	16	16	14	786	10.0	-194491.0	-2006.0	-130744.0
25	16	16	14	787	11.0	-193526.0	-2007.0	-131230.0
25	16	16	14	787	12.0	-193339.0	-2017.0	-131272.0
25	16	16	14	788	13.0	-193749.0	-2003.0	-131413.0
25	16	16	14	788	14.0	-194619.0	-2006.0	-131486.0
25	16	16	14	789	15.0	-195757.0	-2011.0	-131030.0
25	16	16	14	789	16.0	-196804.0	-2003.0	-130889.0
25	16	16	14	790	17.0	-197717.0	-2007.0	-130333.0
25	16	16	14	790	18.0	-198567.0	-2026.0	-130740.0
25	16	16	14	791	19.0	-199445.0	-2015.0	-131283.0
25	16	16	14	791	20.0	-200307.0	-2030.0	-131607.0
25	16	16	14	792	21.0	-201049.0	-2046.0	-131419.0
25	16	16	14	793	22.0	-201429.0	-2032.0	-130676.0
25	16	16	14	793	23.0	-201541.0	-2023.0	-130012.0
25	16	16	14	794	24.0	-201777.0	-2028.0	-129524.0
25	16	16	14	807	26.0	-202119.0	-2052.0	-129829.0
25	16	16	14	808	27.0	-202370.0	-2056.0	-130057.0
25	16	16	14	809	28.0	-202523.0	-2039.0	-129915.0
25	16	16	14	809	29.0	-202711.0	-2037.0	-130481.0
25	16	16	14	811	30.0	-202784.0	-2038.0	-131002.0
25	16	16	14	811	31.0	-202604.0	-2040.0	-131709.0
25	16	16	14	812	32.0	-202328.0	-2040.0	-132329.0
25	16	16	14	813	33.0	-201917.0	-2029.0	-131919.0
25	16	16	14	813	34.0	-201460.0	-2039.0	-131379.0
25	16	16	14	814	35.0	-200967.0	-2037.0	-131807.0
25	16	16	14	814	36.0	-200228.0	-2036.0	-132017.0
25	16	16	14	815	37.0	-199369.0	-2046.0	-131041.0
25	16	16	14	815	38.0	-198366.0	-2046.0	-130102.0
25	16	16	14	816	39.0	-197017.0	-2071.0	-129216.0
25	16	16	14	817	40.0	-195724.0	-2068.0	-128878.0
25	16	16	14	817	48.0	-196507.0	-2059.0	-127046.0
25	16	16	14	818	49.0	-197192.0	-2072.0	-126907.0
25	16	16	14	818	50.0	-198037.0	-2069.0	-126944.0
25	16	16	14	819	51.0	-198784.0	-2060.0	-126839.0
25	16	16	14	819	52.0	-199429.0	-2054.0	-126103.0
25	16	16	14	820	53.0	-200309.0	-2040.0	-125497.0
25	16	16	14	821	54.0	-201164.0	-2032.0	-126816.0
25	16	16	14	852	55.0	-202004.0	-2031.0	-127699.0
25	16	16	14	852	56.0	-202709.0	-2026.0	-127803.0
25	16	16	14	853	57.0	-203371.0	-2037.0	-127794.0
25	16	16	14	854	58.0	-204064.0	-2051.0	-127633.0
25	16	16	14	854	59.0	-204836.0	-2054.0	-127290.0
25	16	16	14	855	60.0	-205447.0	-2054.0	-127736.0
25	16	16	14	855	61.0	-205852.0	-2057.0	-127653.0
25	16	16	14	856	62.0	-206174.0	-2059.0	-127588.0
25	16	16	14	857	63.0	-206576.0	-2053.0	-127435.0
25	16	16	14	857	64.0	-207012.0	-2068.0	-127056.0
25	16	16	14	858	65.0	-207262.0	-2083.0	-127566.0
25	16	16	14	858	66.0	-207435.0	-2088.0	-127766.0
25	16	16	14	859	67.0	-207816.0	-2082.0	-127716.0
25	16	16	14	859	68.0	-208077.0	-2086.0	-126839.0
25	16	16	14	860	69.0	-208338.0	-2097.0	-125955.0
25	16	16	14	861	71.0	-208119.0	-2108.0	-126512.0
25	16	16	14	861	72.0	-207446.0	-2118.0	-126892.0
25	16	16	14	862	73.0	-206279.0	-2114.0	-125864.0
25	16	16	14	862	74.0	-204759.0	-2143.0	-126371.0
25	16	16	14	863	75.0	-203127.0	-2157.0	-126389.0
25	16	16	14	863	76.0	-201621.0	-2146.0	-125596.0
25	16	16	14	896	77.0	-200507.0	-2132.0	-126086.0
25	16	16	14	897	78.0	-199564.0	-2144.0	-126487.0
25	16	16	14	898	79.0	-198299.0	-2148.0	-125753.0
25	16	16	14	899	80.0	-197110.0	-2159.0	-125176.0
25	16	16	14	899	81.0	-195977.0	-2171.0	-125300.0
25	16	16	14	900	82.0	-194721.0	-2187.0	-125501.0
25	16	16	14	901	83.0	-193545.0	-2187.0	-125506.0
25	16	16	14	901	84.0	-192788.0	-2168.0	-125877.0
25	16	16	14	902	85.0	-192171.0	-2182.0	-126291.0
25	16	16	14	902	86.0	-191774.0	-2187.0	-125944.0
25	16	16	14	903	87.0	-191408.0	-2194.0	-125227.0
25	16	16	14	903	88.0	-190875.0	-2192.0	-125060.0
25	16	16	14	904	89.0	-190187.0	-2220.0	-124616.0
25	16	16	14	905	90.0	-189534.0	-2235.0	-124693.0
25	16	16	14	905	91.0	-189029.0	-2246.0	-124364.0
25	16	16	14	906	93.0	-188879.0	-2228.0	-124197.0
25	16	16	14	906	94.0	-189348.0	-2237.0	-124481.0
25	16	16	14	907	95.0	-189776.0	-2231.0	-124468.0
25	16	16	14	907	96.0	-190420.0	-2231.0	-124128.0
25	16	16	14	908	97.0	-191801.0	-2221.0	-124364.0
25	16	16	14	909	98.0	-193393.0	-2231.0	-123811.0
25	16	16	14	943	99.0	-194771.0	-2239.0	-124222.0
25	16	16	14	944	100.0	-196062.0	-2221.0	-124674.0
25	16	16	14	944	101.0	-197084.0	-2209.0	-125004.0
25	16	16	14	945	102.0	-197659.0	-2220.0	-124739.0
25	16	16	14	945	103.0	-198070.0	-2219.0	-125734.0
25	16	16	14	946	104.0	-198622.0	-2232.0	-128501.0
25	16	16	14	947	105.0	-199541.0	-2241.0	-129927.0
25	16	16	14	987	106.0	-200721.0	-2265.0	-131794.0
25	16	16	14	988	107.0	-201982.0	-2270.0	-134641.0
25	16	16	14	989	108.0	-203099.0	-2258.0	-135506.0
25	16	16	14	989	109.0	-203777.0	-2249.0	-136161.0
25	16	16	14	990	110.0	-204062.0	-2258.0	-138809.0
25	16	16	14	990	111.0	-204028.0	-2262.0	-141004.0
25	16	16	14	991	112.0	-203821.0	-2271.0	-142669.0
25	16	16	14	991	113.0	-203855.0	-2280.0	-143932.0
25	16	16	14	992	116.0	-205389.0	-2289.0	-143181.0
25	16	16	14	992	117.0	-205778.0	-2292.0	-140474.0
25	16	16	14	993	118.0	-205864.0	-2294.0	-137434.0
25	16	16	14	994	119.0	-205607.0	-2279.0	-133552.0
25	16	16	14	994	120.0	-205449.0	-2287.0	-129003.0
25	16	16	14	995	121.0	-205910.0	-2289.0	-123584.0
25	16	16	14	995	122.0	-206805.0	-2293.0	-116820.0
25	16	16	15	31	123.0	-208004.0	-2276.0	-112752.0
25	16	16	15	33	138.0	-207749.0	-2299.0	-121240.0
25	16	16	15	33	139.0	-218025.0	-2297.0	-121576.0
25	16	16	15	34	140.0	-224331.0	-2279.0	-122444.0
25	16	16	15	35	141.0	-226551.0	-2260.0	-122893.0
25	16	16	15	35	142.0	-223816.0	-2259.0	-122678.0
25	16	16	15	36	143.0	-217068.0	-2270.0	-122691.0
25	16	16	15	36	144.0	-208174.0	-2251.0	-122571.0
25	16	16	15	37	145.0	-199682.0	-2241.0	-122486.0
25	16	16	15	38	146.0	-196411.0	-2252.0	-122667.0
25	16	16	15	38	147.0	-197299.0	-2254.0	-123204.0
25	16	16	15	39	148.0	-199687.0	-2257.0	-123826.0
25	16	16	15	39	149.0	-202764.0	-2276.0	-123977.0
25	16	16	15	40	150.0	-204614.0	-2278.0	-124237.0
25	16	16	15	41	151.0	-205169.0	-2262.0	-123839.0
25	16	16	15	42	160.0	-183636.0	-2339.0	-122827.0
25	16	16	15	43	161.0	-180830.0	-2326.0	-122891.0
25	16	16	15	43	162.0	-179248.0	-2348.0	-122731.0
25	16	16	15	44	163.0	-178692.0	-2348.0	-123074.0
25	16	16	15	44	164.0	-179296.0	-2331.0	-123377.0
25	16	16	15	45	165.0	-180899.0	-2325.0	-124607.0
25	16	16	15	46	166.0	-182732.0	-2327.0	-124489.0
25	16	16	15	78	167.0	-184819.0	-2320.0	-123841.0
25	16	16	15	79	168.0	-187253.0	-2321.0	-123782.0
25	16	16	15	79	169.0	-189917.0	-2310.0	-123519.0
25	16	16	15	80	170.0	-192656.0	-2322.0	-123664.0
25	16	16	15	80	171.0	-195147.0	-2305.0	-123369.0
25	16	16	15	81	172.0	-197351.0	-2300.0	-123395.0
25	16	16	15	82	173.0	-198992.0	-2310.0	-122291.0
25	16	16	15	82	174.0	-200319.0	-2311.0	-122026.0
25	16	16	15	83	175.0	-201206.0	-2314.0	-122917.0
25	16	16	15	83	176.0	-201618.0	-2323.0	-123357.0
25	16	16	15	84	177.0	-202066.0	-2316.0	-123223.0
25	16	16	15	85	178.0	-202561.0	-2311.0	-123308.0
25	16	16	15	85	179.0	-203044.0	-2296.0	-123489.0
25	16	16	15	86	180.0	-203414.0	-2309.0	-123310.0
25	16	16	15	86	181.0	-203734.0	-2327.0	-123721.0
25	16	16	15	87	183.0	-203331.0	-2328.0	-123941.0
25	16	16	15	87	184.0	-202709.0	-2338.0	-122908.0
25	16	16	15	88	185.0	-202021.0	-2338.0	-123097.0
25	16	16	15	89	186.0	-201477.0	-2321.0	-124222.0
25	16	16	15	89	187.0	-200553.0	-2319.0	-123061.0
25	16	16	15	90	188.0	-199460.0	-2312.0	-122465.0
25	16	16	15	122	189.0	-198165.0	-2303.0	-123142.0
25	16	16	15	122	190.0	-197014.0	-2337.0	-123601.0
25	16	16	15	123	191.0	-195801.0	-2351.0	-124092.0
25	16	16	15	124	192.0	-195056.0	-2344.0	-124347.0
25	16	16	15	131	193.0	-195046.0	-2332.0	-124601.0
25	16	16	15	132	194.0	-195327.0	-2356.0	-125131.0
25	16	16	15	132	195.0	-195689.0	-2356.0	-124914.0
25	16	16	15	133	196.0	-196180.0	-2359.0	-125051.0
25	16	16	15	134	197.0	-196648.0	-2346.0	-124803.0
25	16	16	15	134	198.0	-196759.0	-2358.0	-124958.0
25	16	16	15	135	199.0	-196792.0	-2363.0	-125156.0
25	16	16	15	135	200.0	-196682.0	-2344.0	-124082.0
25	16	16	15	136	201.0	-196289.0	-2342.0	-124111.0
25	16	16	15	136	202.0	-195901.0	-2342.0	-124251.0
25	16	16	15	137	203.0	-195484.0	-2351.0	-124422.0
25	16	16	15	167	205.0	-195161.0	-2342.0	-124965.0
25	16	16	15	168	206.0	-195807.0	-2372.0	-124021.0
25	16	16	15	168	207.0	-196552.0	-2366.0	-124514.0
25	16	16	15	169	208.0	-197481.0	-2347.0	-125069.0
25	16	16	15	170	209.0	-198494.0	-2349.0	-124643.0
25	16	16	15	170	210.0	-199469.0	-2347.0	-124970.0
25	16	16	15	171	211.0	-199844.0	-2342.0	-124372.0
25	16	16	15	171	212.0	-200379.0	-2331.0	-124342.0
25	16	16	15	172	213.0	-200815.0	-2364.0	-124337.0
25	16	16	15	173	214.0	-201548.0	-2351.0	-124287.0
25	16	16	15	174	215.0	-202406.0	-2359.0	-124951.0
25	16	16	15	174	216.0	-203405.0	-2369.0	-125031.0
25	16	16	15	175	217.0	-204401.0	-2384.0	-124198.0
25	16	16	15	176	218.0	-205196.0	-2384.0	-124168.0
25	16	16	15	177	219.0	-205825.0	-2379.0	-124065.0
25	16	16	15	177	228.0	-209443.0	-2391.0	-122679.0
25	16	16	15	178	229.0	-208945.0	-2409.0	-122044.0
25	16	16	15	178	230.0	-208361.0	-2409.0	-121764.0
25	16	16	15	179	231.0	-207642.0	-2414.0	-121696.0
25	16	16	15	179	232.0	-207089.0	-2417.0	-121224.0
25	16	16	15	180	233.0	-206559.0	-2397.0	-121394.0
25	16	16	15	212	234.0	-205891.0	-2388.0	-121336.0
25	16	16	15	213	235.0	-205296.0	-2375.0	-120637.0
25	16	16	15	214	236.0	-204707.0	-2372.0	-120417.0
25	16	16	15	214	237.0	-204081.0	-2382.0	-120975.0
25	16	16	15	215	238.0	-203347.0	-2384.0	-121171.0
25	16	16	15	215	239.0	-202726.0	-2365.0	-120849.0
25	16	16	15	216	240.0	-202014.0	-2359.0	-120328.0
25	16	16	15	217	241.0	-201402.0	-2357.0	-120363.0
25	16	16	15	217	242.0	-201017.0	-2338.0	-119989.0
25	16	16	15	218	243.0	-200895.0	-2348.0	-120219.0
25	16	16	15	219	244.0	-201024.0	-2342.0	-119941.0
25	16	16	15	219	245.0	-201225.0	-2347.0	-119435.0
25	16	16	15	220	246.0	-201225.0	-2341.0	-119159.0
25	16	16	15	220	247.0	-201292.0	-2337.0	-119043.0
25	16	16	15	221	248.0	-201572.0	-2348.0	-119291.0
25	16	16	15	222	250.0	-202053.0	-2348.0	-118626.0
25	16	16	15	222	251.0	-202438.0	-2352.0	-118711.0
25	16	16	15	223	252.0	-202805.0	-2328.0	-119192.0
25	16	16	15	224	253.0	-203024.0	-2314.0	-118230.0
25	16	16	15	224	254.0	-202806.0	-2302.0	-118331.0
25	16	16	15	225	255.0	-202307.0	-2265.0	-117833.0
25	16	16	15	226	0.0	-202039.0	-2254.0	-117811.0
25	16	16	15	257	1.0	-201705.0	-2259.0	-117510.0
25	16	16	15	258	2.0	-200964.0	-2248.0	-117972.0
25	16	16	15	259	3.0	-200002.0	-2249.0	-117847.0
25	16	16	15	260	4.0	-198776.0	-2250.0	-117826.0
25	16	16	15	261	5.0	-197591.0	-2244.0	-117371.0
25	16	16	15	261	6.0	-196238.0	-2246.0	-116876.0
25	16	16	15	262	7.0	-193221.0	-2251.0	-116821.0
25	16	16	15	262	8.0	-186651.0	-2241.0	-118077.0
25	16	16	15	263	9.0	-178073.0	-2221.0	-118422.0
25	16	16	15	264	10.0	-177766.0	-2239.0	-118032.0
25	16	16	15	264	11.0	-188445.0	-2209.0	-117693.0
25	16	16	15	265	12.0	-195679.0	-2231.0	-117958.0
25	16	16	15	265	13.0	-199374.0	-2233.0	-117619.0
25	16	16	15	266	14.0	-202114.0	-2225.0	-118084.0
25	16	16	15	267	15.0	-204796.0	-2227.0	-117835.0
25	16	16	15	267	17.0	-210379.0	-2226.0	-117429.0
25	16	16	15	268	18.0	-210127.0	-2227.0	-117544.0
25	16	16	15	268	19.0	-209019.0	-2200.0	-117002.0
25	16	16	15	269	20.0	-205827.0	-2191.0	-116739.0
25	16	16	15	269	21.0	-203227.0	-2167.0	-117741.0
25	16	16	15	270	22.0	-201617.0	-2169.0	-117474.0
25	16	16	15	302	23.0	-200153.0	-2169.0	-117490.0
25	16	16	15	303	24.0	-197453.0	-2161.0	-117732.0
25	16	16	15	303	25.0	-191962.0	-2143.0	-118007.0
25	16	16	15	304	26.0	-193047.0	-2131.0	-117224.0
25	16	16	15	305	27.0	-191969.0	-2122.0	-117941.0
25	16	16	15	305	28.0	-193073.0	-2127.0	-117607.0
25	16	16	15	306	29.0	-192161.0	-2118.0	-116403.0
25	16	16	15	307	30.0	-196046.0	-2108.0	-117716.0
25	16	16	15	307	31.0	-196965.0	-2106.0	-117964.0
25	16	16	15	308	32.0	-199609.0	-2102.0	-117306.0
25	16	16	15	308	33.0	-200872.0	-2096.0	-118176.0
25	16	16	15	309	34.0	-205448.0	-2101.0	-118579.0
25	16	16	15	310	35.0	-204689.0	-2098.0	-118441.0
25	16	16	15	310	36.0	-203387.0	-2097.0	-118714.0
25	16	16	15	311	37.0	-199962.0	-2096.0	-119429.0
25	16	16	15	311	39.0	-198697.0	-2081.0	-117741.0
25	16	16	15	312	40.0	-197744.0	-2084.0	-118054.0
25	16	16	15	313	41.0	-197459.0	-2068.0	-118607.0
25	16	16	15	313	42.0	-196981.0	-2060.0	-118149.0
25	16	16	15	314	43.0	-198581.0	-2054.0	-116967.0
25	16	16	15	314	44.0	-196977.0	-2046.0	-116439.0
25	16	16	15	348	45.0	-199088.0	-2042.0	-116720.0
25	16	16	15	348	46.0	-196520.0	-2026.0	-116464.0
25	16	16	15	349	47.0	-199473.0	-2025.0	-115772.0
25	16	16	15	350	48.0	-195774.0	-2048.0	-115980.0
25	16	16	15	351	49.0	-199288.0	-2044.0	-115494.0
25	16	16	15	351	50.0	-195072.0	-2029.0	-115795.0
25	16	16	15	352	51.0	-199217.0	-2017.0	-116144.0
25	16	16	15	353	52.0	-195003.0	-2014.0	-115309.0
25	16	16	15	353	53.0	-200328.0	-2021.0	-114809.0
25	16	16	15	354	54.0	-196254.0	-2023.0	-114584.0
25	16	16	15	354	55.0	-201495.0	-2029.0	-114516.0
25	16	16	15	355	56.0	-197150.0	-2048.0	-114426.0
25	16	16	15	356	57.0	-202618.0	-2037.0	-114130.0
25	16	16	15	356	58.0	-198882.0	-2024.0	-113400.0
25	16	16	15	357	59.0	-204552.0	-2037.0	-112852.0
25	16	16	15	358	62.0	-202454.0	-2022.0	-112891.0
25	16	16	15	358	63.0	-206047.0	-2019.0	-111943.0
25	16	16	15	359	64.0	-202232.0	-2014.0	-111297.0
25	16	16	15	359	65.0	-204304.0	-2028.0	-112464.0
25	16	16	15	360	66.0	-200351.0	-2018.0	-113394.0
25	16	16	15	360	67.0	-201416.0	-2014.0	-113404.0
25	16	16	15	392	68.0	-197773.0	-2017.0	-113484.0
25	16	16	15	393	69.0	-199009.0	-2012.0	-113732.0
25	16	16	15	394	70.0	-195385.0	-2014.0	-113294.0
25	16	16	15	394	71.0	-196032.0	-2028.0	-113529.0
25	16	16	15	395	72.0	-193096.0	-2017.0	-113587.0
25	16	16	15	396	73.0	-194326.0	-2014.0	-113115.0
25	16	16	15	397	74.0	-192122.0	-2030.0	-112954.0
25	16	16	15	398	75.0	-193052.0	-2020.0	-111559.0
25	16	16	15	398	76.0	-191272.0	-2027.0	-110611.0
25	16	16	15	399	77.0	-192661.0	-2062.0	-110913.0
25	16	16	15	400	78.0	-191824.0	-2063.0	-111490.0
25	16	16	15	400	79.0	-193302.0	-2054.0	-112832.0
25	16	16	15	401	80.0	-193032.0	-2049.0	-113134.0
25	16	16	15	402	81.0	-194281.0	-2059.0	-112938.0
25	16	16	15	402	82.0	-194938.0	-2073.0	-112782.0
25	16	16	15	403	84.0	-197269.0	-2070.0	-112769.0
25	16	16	15	403	85.0	-198543.0	-2077.0	-113256.0
25	16	16	15	404	86.0	-200001.0	-2044.0	-113909.0
25	16	16	15	404	87.0	-201527.0	-2042.0	-113701.0
25	16	16	15	405	88.0	-202801.0	-2039.0	-113466.0
25	16	16	15	406	89.0	-203837.0	-2045.0	-112701.0
25	16	16	15	438	90.0	-204664.0	-2051.0	-113014.0
25	16	16	15	438	91.0	-205304.0	-2045.0	-112739.0
25	16	16	15	439	92.0	-205674.0	-2047.0	-111626.0
25	16	16	15	440	93.0	-205935.0	-2046.0	-111826.0
25	16	16	15	440	94.0	-206092.0	-2052.0	-112556.0
25	16	16	15	441	95.0	-205624.0	-2072.0	-112706.0
25	16	16	15	442	96.0	-203798.0	-2057.0	-111471.0
25	16	16	15	442	97.0	-202450.0	-2052.0	-111705.0
25	16	16	15	443	98.0	-201856.0	-2059.0	-113375.0
25	16	16	15	443	99.0	-201543.0	-2078.0	-113188.0
25	16	16	15	444	100.0	-202469.0	-2078.0	-112540.0
25	16	16	15	445	101.0	-203311.0	-2089.0	-112937.0
25	16	16	15	445	102.0	-203682.0	-2064.0	-112926.0
25	16	16	15	446	103.0	-204134.0	-2076.0	-112382.0
25	16	16	15	447	104.0	-205052.0	-2099.0	-111621.0
25	16	16	15	447	106.0	-207872.0	-2112.0	-112261.0
25	16	16	15	448	107.0	-209131.0	-2087.0	-112323.0
25	16	16	15	449	108.0	-211315.0	-2081.0	-113089.0
25	16	16	15	450	109.0	-209167.0	-2076.0	-113470.0
25	16	16	15	450	110.0	-209812.0	-2085.0	-112869.0
25	16	16	15	451	111.0	-208460.0	-2092.0	-112720.0
25	16	16	15	451	112.0	-207524.0	-2092.0	-112489.0
25	16	16	15	483	113.0	-205849.0	-2097.0	-112210.0
25	16	16	15	483	114.0	-204038.0	-2088.0	-111279.0
25	16	16	15	484	115.0	-203859.0	-2077.0	-111725.0
25	16	16	15	485	116.0	-201040.0	-2093.0	-111834.0
25	16	16	15	485	117.0	-201906.0	-2096.0	-111951.0
25	16	16	15	486	118.0	-199004.0	-2097.0	-110932.0
25	16	16	15	487	119.0	-201481.0	-2103.0	-111048.0
25	16	16	15	487	120.0	-198311.0	-2111.0	-112193.0
25	16	16	15	488	121.0	-200740.0	-2096.0	-111866.0
25	16	16	15	489	122.0	-196636.0	-2104.0	-111631.0
25	16	16	15	489	123.0	-199260.0	-2129.0	-111680.0
25	16	16	15	490	124.0	-194625.0	-2129.0	-111943.0
25	16	16	15	490	125.0	-197477.0	-2111.0	-112421.0
25	16	16	15	491	126.0	-192967.0	-2098.0	-112304.0
25	16	16	15	527	127.0	-196256.0	-2099.0	-112605.0
25	16	16	15	528	129.0	-195934.0	-2092.0	-110757.0
25	16	16	15	529	130.0	-192239.0	-2091.0	-110529.0
25	16	16	15	530	131.0	-195911.0	-2089.0	-110219.0
25	16	16	15	530	132.0	-192262.0	-2093.0	-110776.0
25	16	16	15	531	133.0	-195574.0	-2089.0	-111713.0
25	16	16	15	532	134.0	-192422.0	-2062.0	-112501.0
25	16	16	15	532	135.0	-193069.0	-2079.0	-110858.0
25	16	16	15	533	136.0	-191154.0	-2098.0	-109573.0
25	16	16	15	534	137.0	-192247.0	-2104.0	-108554.0
25	16	16	15	534	138.0	-191559.0	-2112.0	-108820.0
25	16	16	15	535	139.0	-191426.0	-2106.0	-109257.0
25	16	16	15	536	140.0	-192960.0	-2111.0	-109474.0
25	16	16	15	537	141.0	-192341.0	-2102.0	-108959.0
25	16	16	15	537	142.0	-194133.0	-2103.0	-109462.0
25	16	16	15	538	151.0	-205387.0	-2091.0	-118129.0
25	16	16	15	539	152.0	-206165.0	-2106.0	-120397.0
25	16	16	15	539	153.0	-207764.0	-2082.0	-123138.0
25	16	16	15	540	154.0	-208458.0	-2077.0	-124521.0
25	16	16	15	540	155.0	-209798.0	-2077.0	-126201.0
25	16	16	15	541	156.0	-209567.0	-2075.0	-128072.0
25	16	16	15	542	157.0	-209981.0	-2057.0	-130797.0
25	16	16	15	572	158.0	-208516.0	-2032.0	-132571.0
25	16	16	15	573	159.0	-208296.0	-2022.0	-133735.0
25	16	16	15	574	160.0	-206362.0	-2020.0	-135307.0
25	16	16	15	575	161.0	-206379.0	-2020.0	-136497.0
25	16	16	15	575	162.0	-204952.0	-2001.0	-136332.0
25	16	16	15	576	163.0	-204852.0	-2001.0	-133457.0
25	16	16	15	577	164.0	-204097.0	-1986.0	-130186.0
25	16	16	15	577	165.0	-204347.0	-2000.0	-127069.0
25	16	16	15	578	166.0	-201071.0	-2012.0	-122918.0
25	16	16	15	578	167.0	-202984.0	-2026.0	-119244.0
25	16	16	15	579	168.0	-198466.0	-2007.0	-113588.0
25	16	16	15	580	169.0	-203469.0	-2000.0	-107374.0
25	16	16	15	580	170.0	-200755.0	-2015.0	-103349.0
25	16	16	15	581	171.0	-205564.0	-2006.0	-102914.0
25	16	16	15	582	172.0	-205433.0	-1996.0	-104501.0
25	16	16	15	582	174.0	-208717.0	-2016.0	-108507.0
25	16	16	15	583	175.0	-205221.0	-2017.0	-110225.0
25	16	16	15	584	176.0	-207347.0	-1986.0	-111465.0
25	16	16	15	584	177.0	-195377.0	-1994.0	-111592.0
25	16	16	15	585	178.0	-181727.0	-1992.0	-110485.0
25	16	16	15	585	179.0	-168316.0	-1989.0	-110911.0
25	16	16	15	665	180.0	-154332.0	-1985.0	-111091.0
25	16	16	15	665	181.0	-154061.0	-1971.0	-110594.0
25	16	16	15	666	182.0	-154916.0	-1969.0	-110719.0
25	16	16	15	667	183.0	-166658.0	-1975.0	-111531.0
25	16	16	15	669	184.0	-182219.0	-1969.0	-114344.0
25	16	16	15	669	185.0	-194607.0	-1966.0	-116322.0
25	16	16	15	670	186.0	-211282.0	-1961.0	-117374.0
25	16	16	15	671	187.0	-220131.0	-1951.0	-117826.0
25	16	16	15	671	188.0	-224927.0	-1971.0	-118354.0
25	16	16	15	672	189.0	-229184.0	-1971.0	-119776.0
25	16	16	15	673	190.0	-221282.0	-1948.0	-119831.0
25	16	16	15	673	191.0	-213394.0	-1944.0	-119873.0
25	16	16	15	674	192.0	-204063.0	-1971.0	-119830.0
25	16	16	15	675	193.0	-193800.0	-1972.0	-119626.0
25	16	16	15	675	194.0	-193524.0	-1968.0	-120176.0
25	16	16	15	676	219.0	-193799.0	-1910.0	-116266.0
25	16	16	15	676	220.0	-201697.0	-1920.0	-116436.0
25	16	16	15	677	221.0	-201432.0	-1923.0	-116131.0
25	16	16	15	677	222.0	-200373.0	-1909.0	-115770.0
25	16	16	15	678	223.0	-199522.0	-1899.0	-116606.0
25	16	16	15	679	224.0	-203539.0	-1893.0	-116859.0
25	16	16	15	844	225.0	-204279.0	-1889.0	-116257.0
25	16	16	15	845	226.0	-211213.0	-1886.0	-116797.0
25	16	16	15	845	227.0	-209248.0	-1898.0	-117038.0
25	16	16	15	846	228.0	-205926.0	-1902.0	-116591.0
25	16	16	15	847	229.0	-201107.0	-1881.0	-116453.0
25	16	16	15	847	230.0	-201907.0	-1866.0	-116681.0
25	16	16	15	848	231.0	-201852.0	-1874.0	-116627.0
25	16	16	15	887	232.0	-207569.0	-1889.0	-116782.0
25	16	16	15	888	233.0	-204224.0	-1902.0	-116827.0
25	16	16	15	889	234.0	-199702.0	-1898.0	-116540.0
25	16	16	15	889	235.0	-195819.0	-1907.0	-116176.0
25	16	16	15	890	236.0	-194913.0	-1904.0	-116312.0
25	16	16	15	891	237.0	-194199.0	-1904.0	-116687.0
25	16	16	15	891	238.0	-194460.0	-1914.0	-116645.0
25	16	16	15	892	239.0	-194371.0	-1927.0	-116152.0
25	16	16	15	893	52.0	-189633.0	-1910.0	-121157.0
25	16	16	15	893	53.0	-182514.0	-1882.0	-121700.0
25	16	16	15	894	54.0	-176584.0	-1881.0	-121902.0
25	16	16	15	895	55.0	-175690.0	-1872.0	-121264.0
25	16	16	15	895	56.0	-188596.0	-1871.0	-120303.0
25	16	16	15	896	57.0	-190457.0	-1847.0	-120651.0
25	16	16	15	897	58.0	-196355.0	-1850.0	-121089.0
25	16	16	15	897	59.0	-198441.0	-1813.0	-121921.0
25	16	16	15	898	75.0	-197849.0	-1725.0	-119931.0
25	16	16	15	899	76.0	-196998.0	-1717.0	-120164.0
25	16	16	15	932	77.0	-198424.0	-1702.0	-119964.0
25	16	16	15	933	78.0	-200645.0	-1699.0	-119344.0
25	16	16	15	934	79.0	-206779.0	-1701.0	-118653.0
25	16	16	15	934	80.0	-204960.0	-1691.0	-118327.0
25	16	16	15	935	81.0	-208053.0	-1663.0	-118459.0
25	16	16	15	936	82.0	-203744.0	-1657.0	-117841.0
25	16	16	15	936	83.0	-205508.0	-1656.0	-118070.0
25	16	16	15	937	84.0	-203521.0	-1662.0	-118021.0
25	16	16	15	938	85.0	-201240.0	-1664.0	-117028.0
25	16	16	15	938	86.0	-201148.0	-1664.0	-116704.0
25	16	16	15	939	87.0	-203466.0	-1664.0	-116525.0
25	16	16	15	940	88.0	-208320.0	-1672.0	-117209.0
25	16	16	15	940	89.0	-205224.0	-1660.0	-117404.0
25	16	16	15	941	90.0	-207012.0	-1655.0	-117125.0
25	16	16	15	942	91.0	-205479.0	-1651.0	-116960.0
25	16	16	15	943	92.0	-211686.0	-1666.0	-115980.0
25	16	16	15	944	98.0	-202605.0	-1672.0	-114365.0
25	16	16	15	945	99.0	-202533.0	-1674.0	-113327.0
25	16	16	15	946	100.0	-200164.0	-1687.0	-112962.0
25	16	16	15	946	101.0	-204416.0	-1669.0	-113197.0
25	16	16	15	947	102.0	-199823.0	-1667.0	-112961.0
25	16	16	15	947	103.0	-200946.0	-1672.0	-113012.0
25	16	16	15	977	104.0	-198251.0	-1671.0	-112338.0
25	16	16	15	978	105.0	-203958.0	-1664.0	-111829.0
25	16	16	15	978	106.0	-201683.0	-1662.0	-110739.0
25	16	16	15	979	107.0	-199869.0	-1655.0	-110366.0
25	16	16	15	980	108.0	-198742.0	-1661.0	-109856.0
25	16	16	15	981	109.0	-199902.0	-1670.0	-109774.0
25	16	16	15	982	110.0	-202421.0	-1679.0	-110056.0
25	16	16	15	982	111.0	-197219.0	-1680.0	-110111.0
25	16	16	15	983	112.0	-197690.0	-1689.0	-110761.0
25	16	16	15	984	113.0	-194870.0	-1691.0	-111553.0
25	16	16	15	984	114.0	-201250.0	-1695.0	-111090.0
25	16	16	15	985	115.0	-196434.0	-1700.0	-109319.0
25	16	16	15	986	116.0	-197152.0	-1700.0	-109517.0
25	16	16	15	986	117.0	-193972.0	-1694.0	-109389.0
25	16	16	15	987	118.0	-198617.0	-1700.0	-108927.0
25	16	16	15	988	120.0	-194852.0	-1687.0	-108453.0
25	16	16	15	988	121.0	-194056.0	-1694.0	-108292.0
25	16	16	15	989	122.0	-194662.0	-1679.0	-108431.0
25	16	16	15	990	123.0	-198666.0	-1684.0	-107461.0
25	16	16	15	990	124.0	-194334.0	-1679.0	-108014.0
25	16	16	15	991	125.0	-196254.0	-1674.0	-107985.0
25	16	16	16	22	126.0	-193816.0	-1681.0	-107632.0
25	16	16	16	23	127.0	-200177.0	-1669.0	-107119.0
25	16	16	16	24	128.0	-195843.0	-1689.0	-107147.0
25	16	16	16	24	129.0	-197724.0	-1699.0	-106952.0
25	16	16	16	25	130.0	-195371.0	-1707.0	-106482.0
25	16	16	16	26	131.0	-200798.0	-1711.0	-108324.0
25	16	16	16	26	132.0	-199150.0	-1712.0	-109400.0
25	16	16	16	27	133.0	-198952.0	-1711.0	-108870.0
25	16	16	16	28	134.0	-198860.0	-1722.0	-108175.0
25	16	16	16	28	135.0	-201596.0	-1737.0	-108774.0
25	16	16	16	29	136.0	-204277.0	-1745.0	-108673.0
25	16	16	16	30	137.0	-203081.0	-1767.0	-108347.0
25	16	16	16	30	138.0	-204651.0	-1755.0	-107872.0
25	16	16	16	31	139.0	-203649.0	-1754.0	-106950.0
25	16	16	16	31	140.0	-206952.0	-1743.0	-106251.0
25	16	16	16	32	142.0	-206209.0	-1747.0	-106704.0
25	16	16	16	68	143.0	-204996.0	-1737.0	-106212.0
25	16	16	16	69	144.0	-207244.0	-1732.0	-106419.0
25	16	16	16	70	145.0	-208391.0	-1716.0	-106887.0
25	16	16	16	70	146.0	-210097.0	-1725.0	-107291.0
25	16	16	16	71	147.0	-210987.0	-1713.0	-107751.0
25	16	16	16	72	148.0	-211422.0	-1702.0	-107303.0
25	16	16	16	72	149.0	-211956.0	-1704.0	-106504.0
25	16	16	16	73	150.0	-212278.0	-1699.0	-106623.0
25	16	16	16	74	151.0	-212239.0	-1693.0	-107027.0
25	16	16	16	74	152.0	-211766.0	-1689.0	-106908.0
25	16	16	16	75	153.0	-210708.0	-1685.0	-106688.0
25	16	16	16	75	154.0	-209438.0	-1697.0	-106824.0
25	16	16	16	76	155.0	-208058.0	-1711.0	-106308.0
25	16	16	16	77	156.0	-206640.0	-1697.0	-107147.0
25	16	16	16	77	157.0	-205181.0	-1698.0	-106827.0
25	16	16	16	78	158.0	-203644.0	-1697.0	-105747.0
25	16	16	16	79	165.0	-194855.0	-1687.0	-104821.0
25	16	16	16	79	166.0	-194310.0	-1683.0	-104788.0
25	16	16	16	80	167.0	-193629.0	-1694.0	-105022.0
25	16	16	16	81	168.0	-193031.0	-1691.0	-105287.0
25	16	16	16	81	169.0	-192434.0	-1700.0	-105451.0
25	16	16	16	82	170.0	-191809.0	-1687.0	-105450.0
25	16	16	16	113	171.0	-189821.0	-1688.0	-105935.0
25	16	16	16	113	172.0	-187880.0	-1655.0	-105129.0
25	16	16	16	114	173.0	-189436.0	-1661.0	-104227.0
25	16	16	16	115	174.0	-190933.0	-1681.0	-104767.0
25	16	16	16	115	175.0	-191292.0	-1662.0	-104247.0
25	16	16	16	116	176.0	-191442.0	-1657.0	-103429.0
25	16	16	16	117	177.0	-191750.0	-1654.0	-103232.0
25	16	16	16	117	178.0	-191594.0	-1645.0	-103272.0
25	16	16	16	118	179.0	-192312.0	-1643.0	-102403.0
25	16	16	16	118	180.0	-193240.0	-1644.0	-102226.0
25	16	16	16	119	181.0	-194294.0	-1649.0	-101789.0
25	16	16	16	119	182.0	-195392.0	-1657.0	-101586.0
25	16	16	16	120	183.0	-196141.0	-1658.0	-101419.0
25	16	16	16	121	184.0	-196626.0	-1652.0	-101598.0
25	16	16	16	121	185.0	-196816.0	-1644.0	-101548.0
25	16	16	16	122	187.0	-197310.0	-1652.0	-101333.0
25	16	16	16	122	188.0	-198824.0	-1649.0	-102907.0
25	16	16	16	123	189.0	-198926.0	-1633.0	-103295.0
25	16	16	16	123	190.0	-202745.0	-1631.0	-102406.0
25	16	16	16	124	191.0	-201859.0	-1619.0	-102899.0
25	16	16	16	125	192.0	-202553.0	-1615.0	-104225.0
25	16	16	16	157	193.0	-202781.0	-1602.0	-105536.0
25	16	16	16	158	194.0	-202216.0	-1589.0	-104372.0
25	16	16	16	158	195.0	-205050.0	-1585.0	-103697.0
25	16	16	16	159	196.0	-201909.0	-1589.0	-104973.0
25	16	16	16	201	197.0	-205742.0	-1606.0	-107164.0
25	16	16	16	202	198.0	-202974.0	-1611.0	-108022.0
25	16	16	16	203	199.0	-208114.0	-1618.0	-110479.0
25	16	16	16	203	200.0	-206182.0	-1597.0	-112949.0
25	16	16	16	204	201.0	-204446.0	-1573.0	-114126.0
25	16	16	16	247	202.0	-203185.0	-1586.0	-114701.0
25	16	16	16	247	203.0	-202182.0	-1594.0	-116724.0
25	16	16	16	248	204.0	-204577.0	-1573.0	-118989.0
25	16	16	16	249	205.0	-198824.0	-1563.0	-121118.0
25	16	16	16	249	206.0	-200438.0	-1556.0	-122756.0
25	16	16	16	250	207.0	-196303.0	-1566.0	-123715.0
25	16	16	16	250	210.0	-198868.0	-1569.0	-117919.0
25	16	16	16	251	211.0	-200030.0	-1557.0	-113396.0
25	16	16	16	259	212.0	-198661.0	-1546.0	-108332.0
25	16	16	16	259	213.0	-202717.0	-1527.0	-104115.0
25	16	16	16	260	232.0	-202417.0	-1537.0	-90526.0
25	16	16	16	260	233.0	-212614.0	-1561.0	-90696.0
25	16	16	16	261	234.0	-225134.0	-1553.0	-90246.0
25	16	16	16	261	235.0	-225353.0	-1546.0	-90051.0
25	16	16	16	291	254.0	-201096.0	-1449.0	-85051.0
25	16	16	16	337	255.0	-196468.0	-1457.0	-85007.0
25	16	16	16	337	0.0	-194255.0	-1468.0	-84822.0
25	16	16	16	338	1.0	-191857.0	-1460.0	-84576.0
25	16	16	16	339	2.0	-193179.0	-1449.0	-85312.0
25	16	16	16	339	3.0	-187577.0	-1441.0	-85892.0
25	16	16	16	340	4.0	-187683.0	-1420.0	-85092.0
25	16	16	16	340	5.0	-183361.0	-1430.0	-84787.0
25	16	16	16	341	6.0	-186894.0	-1437.0	-84478.0
25	16	16	16	341	7.0	-183831.0	-1433.0	-84446.0
25	16	16	16	342	8.0	-186211.0	-1445.0	-84562.0
25	16	16	16	343	9.0	-185774.0	-1451.0	-84861.0
25	16	16	16	343	10.0	-192562.0	-1440.0	-84955.0
25	16	16	16	344	11.0	-193345.0	-1435.0	-84836.0
25	16	16	16	344	12.0	-197452.0	-1452.0	-84630.0
25	16	16	16	345	21.0	-204087.0	-1430.0	-85905.0
25	16	16	16	346	43.0	-194704.0	-1404.0	-82726.0
25	16	16	16	346	44.0	-196817.0	-1408.0	-82356.0
25	16	16	16	347	45.0	-196177.0	-1419.0	-82510.0
25	16	16	16	347	46.0	-197567.0	-1404.0	-82948.0
25	16	16	16	348	47.0	-198072.0	-1374.0	-82349.0
25	16	16	16	349	48.0	-201752.0	-1366.0	-81559.0
25	16	16	16	349	49.0	-200434.0	-1386.0	-82372.0
25	16	16	16	380	50.0	-202391.0	-1392.0	-83386.0
25	16	16	16	381	51.0	-201611.0	-1374.0	-84129.0
25	16	16	16	427	52.0	-205307.0	-1376.0	-85445.0
25	16	16	16	428	53.0	-203484.0	-1390.0	-85383.0
25	16	16	16	428	54.0	-205677.0	-1398.0	-84833.0
25	16	16	16	429	55.0	-204274.0	-1397.0	-85515.0
25	16	16	16	430	56.0	-208319.0	-1404.0	-86387.0
25	16	16	16	430	57.0	-206014.0	-1412.0	-86662.0
25	16	16	16	431	58.0	-207280.0	-1408.0	-86584.0
25	16	16	16	431	59.0	-205136.0	-1408.0	-85944.0
25	16	16	16	432	60.0	-208129.0	-1406.0	-84446.0
25	16	16	16	432	61.0	-206074.0	-1415.0	-84360.0
25	16	16	16	433	62.0	-206946.0	-1403.0	-84261.0
25	16	16	16	434	63.0	-204866.0	-1414.0	-83661.0
25	16	16	16	434	64.0	-207362.0	-1412.0	-82692.0
25	16	16	16	435	66.0	-205968.0	-1417.0	-81877.0
25	16	16	16	436	67.0	-204048.0	-1428.0	-81281.0
25	16	16	16	437	88.0	-204757.0	-1356.0	-73082.0
25	16	16	16	437	89.0	-202519.0	-1342.0	-72816.0
25	16	16	16	438	90.0	-202491.0	-1335.0	-72479.0
25	16	16	16	438	91.0	-199201.0	-1324.0	-72493.0
25	16	16	16	439	92.0	-198879.0	-1296.0	-71927.0
25	16	16	16	440	93.0	-195137.0	-1289.0	-71089.0
25	16	16	16	440	94.0	-194250.0	-1265.0	-71517.0
25	16	16	16	471	95.0	-189417.0	-1258.0	-71598.0
25	16	16	16	472	96.0	-184812.0	-1232.0	-70716.0
25	16	16	16	473	97.0	-173464.0	-1225.0	-70537.0
25	16	16	16	473	98.0	-170404.0	-1211.0	-70505.0
25	16	16	16	474	99.0	-175849.0	-1197.0	-70252.0
25	16	16	16	475	100.0	-186776.0	-1196.0	-69861.0
25	16	16	16	475	101.0	-190514.0	-1179.0	-69955.0
25	16	16	16	476	102.0	-196097.0	-1179.0	-69819.0
25	16	16	16	476	103.0	-199088.0	-1165.0	-70420.0
25	16	16	16	477	104.0	-205349.0	-1157.0	-70218.0
25	16	16	16	478	105.0	-207507.0	-1159.0	-69807.0
25	16	16	16	478	106.0	-208541.0	-1157.0	-69729.0
25	16	16	16	479	107.0	-208025.0	-1140.0	-69982.0
25	16	16	16	479	108.0	-208746.0	-1128.0	-70318.0
25	16	16	16	480	109.0	-208603.0	-1126.0	-70326.0
25	16	16	16	480	111.0	-208162.0	-1111.0	-71520.0
25	16	16	16	481	112.0	-206901.0	-1092.0	-70791.0
25	16	16	16	482	113.0	-204941.0	-1066.0	-70479.0
25	16	16	16	482	114.0	-203772.0	-1059.0	-71244.0
25	16	16	16	483	115.0	-202986.0	-1051.0	-71729.0
25	16	16	16	483	116.0	-203480.0	-1032.0	-70997.0
25	16	16	16	516	117.0	-205349.0	-1021.0	-70347.0
25	16	16	16	516	118.0	-207072.0	-1010.0	-70624.0
25	16	16	16	517	119.0	-207746.0	-1002.0	-70809.0
25	16	16	16	518	120.0	-208222.0	-984.0	-71483.0
25	16	16	16	518	121.0	-208847.0	-975.0	-71581.0
25	16	16	16	519	122.0	-209544.0	-968.0	-71540.0
25	16	16	16	519	123.0	-210029.0	-941.0	-71479.0
25	16	16	16	562	124.0	-210519.0	-949.0	-71196.0
25	16	16	16	563	125.0	-210975.0	-933.0	-71646.0
25	16	16	16	563	126.0	-211286.0	-933.0	-71292.0
25	16	16	16	564	127.0	-211055.0	-938.0	-70715.0
25	16	16	16	565	128.0	-209793.0	-932.0	-71276.0
25	16	16	16	566	129.0	-208143.0	-930.0	-71483.0
25	16	16	16	566	130.0	-206607.0	-919.0	-70834.0
25	16	16	16	567	131.0	-205301.0	-908.0	-70577.0
25	16	16	16	567	133.0	-203689.0	-916.0	-70006.0
25	16	16	16	568	134.0	-202960.0	-909.0	-70509.0
25	16	16	16	569	135.0	-202430.0	-904.0	-70055.0
25	16	16	16	608	136.0	-202260.0	-886.0	-69832.0
25	16	16	16	609	137.0	-202397.0	-877.0	-70266.0
25	16	16	16	609	138.0	-203030.0	-887.0	-70115.0
25	16	16	16	610	139.0	-203674.0	-891.0	-69162.0
25	16	16	16	610	140.0	-204478.0	-859.0	-68837.0
25	16	16	16	611	156.0	-206557.0	-825.0	-69639.0
25	16	16	16	611	157.0	-207456.0	-823.0	-69454.0
25	16	16	16	612	158.0	-208239.0	-817.0	-68772.0
25	16	16	16	613	159.0	-208159.0	-792.0	-69306.0
25	16	16	16	613	160.0	-207241.0	-789.0	-68529.0
25	16	16	16	614	161.0	-205699.0	-774.0	-68884.0
25	16	16	16	614	162.0	-203963.0	-769.0	-68757.0
25	16	16	16	615	163.0	-202406.0	-761.0	-69789.0
25	16	16	16	616	164.0	-201164.0	-776.0	-70254.0
25	16	16	16	616	165.0	-200285.0	-769.0	-69522.0
25	16	16	16	617	178.0	-187254.0	-722.0	-69655.0
25	16	16	16	617	179.0	-187401.0	-720.0	-69865.0
25	16	16	16	618	180.0	-187782.0	-711.0	-70096.0
25	16	16	16	619	181.0	-188519.0	-701.0	-69556.0
25	16	16	16	619	182.0	-189787.0	-697.0	-70316.0
25	16	16	16	620	183.0	-191237.0	-695.0	-69742.0
25	16	16	16	668	184.0	-192429.0	-692.0	-69278.0
25	16	16	16	686	185.0	-193793.0	-686.0	-70031.0
25	16	16	16	686	186.0	-195016.0	-676.0	-70312.0
25	16	16	16	687	187.0	-196093.0	-668.0	-69534.0
25	16	16	16	687	188.0	-197451.0	-658.0	-70257.0
25	16	16	16	688	189.0	-199046.0	-666.0	-71282.0
25	16	16	16	689	190.0	-200369.0	-662.0	-71452.0
25	16	16	16	689	191.0	-201685.0	-655.0	-70985.0
25	16	16	16	690	192.0	-203225.0	-664.0	-70895.0
25	16	16	16	690	193.0	-204802.0	-644.0	-70754.0
25	16	16	16	691	194.0	-205660.0	-660.0	-70872.0
25	16	16	16	691	195.0	-206329.0	-649.0	-71136.0
25	16	16	16	692	196.0	-206914.0	-639.0	-70753.0
25	16	16	16	692	197.0	-207973.0	-624.0	-71177.0
25	16	16	16	710	198.0	-208792.0	-636.0	-71198.0
25	16	16	16	710	208.0	-202923.0	-637.0	-69561.0
25	16	16	16	711	215.0	-195963.0	-609.0	-68881.0
25	16	16	16	711	216.0	-195983.0	-604.0	-70043.0
25	16	16	16	712	217.0	-196216.0	-616.0	-69766.0
25	16	16	16	713	218.0	-196517.0	-616.0	-69371.0
25	16	16	16	713	219.0	-196515.0	-603.0	-69641.0
25	16	16	16	714	220.0	-196609.0	-591.0	-70803.0
25	16	16	16	714	221.0	-196614.0	-579.0	-70634.0
25	16	16	16	715	222.0	-196339.0	-588.0	-70770.0
25	16	16	16	715	223.0	-195969.0	-586.0	-70981.0
25	16	16	16	716	224.0	-195621.0	-571.0	-70543.0
25	16	16	16	716	225.0	-195417.0	-567.0	-70157.0
25	16	16	16	717	226.0	-195464.0	-553.0	-70237.0
25	16	16	16	717	227.0	-195547.0	-557.0	-70330.0
25	16	16	16	732	228.0	-195308.0	-569.0	-71032.0
25	16	16	16	733	229.0	-194816.0	-571.0	-70697.0
25	16	16	16	734	230.0	-194557.0	-571.0	-70257.0
25	16	16	16	734	231.0	-194446.0	-569.0	-70679.0
25	16	16	16	735	232.0	-194541.0	-569.0	-71074.0
25	16	16	16	735	233.0	-194716.0	-554.0	-71284.0
25	16	16	16	736	234.0	-194866.0	-562.0	-71072.0
25	16	16	16	736	235.0	-195414.0	-561.0	-70242.0
25	16	16	16	737	236.0	-196142.0	-564.0	-69668.0
25	16	16	16	737	237.0	-196944.0	-562.0	-70576.0
25	16	16	16	738	238.0	-197671.0	-576.0	-72573.0
25	16	16	16	739	239.0	-198424.0	-547.0	-74996.0
25	16	16	16	739	240.0	-199616.0	-544.0	-77720.0
25	16	16	16	740	241.0	-200783.0	-566.0	-80582.0
25	16	16	16	740	242.0	-201741.0	-566.0	-82472.0
25	16	16	16	741	243.0	-202480.0	-540.0	-84092.0
25	16	16	16	742	244.0	-202901.0	-535.0	-85744.0
25	16	16	16	742	245.0	-203050.0	-544.0	-87406.0
25	16	16	16	757	246.0	-203332.0	-537.0	-90112.0
25	16	16	16	757	247.0	-203582.0	-524.0	-92894.0
25	16	16	16	758	248.0	-203720.0	-519.0	-94806.0
25	16	16	16	759	249.0	-203692.0	-536.0	-95960.0
25	16	16	16	759	250.0	-203885.0	-536.0	-96419.0
25	16	16	16	760	251.0	-204028.0	-537.0	-94777.0
25	16	16	16	760	252.0	-203852.0	-536.0	-92041.0
25	16	16	16	761	253.0	-203439.0	-542.0	-87951.0
25	16	16	16	761	254.0	-202871.0	-549.0	-82406.0
25	16	16	16	780	255.0	-202537.0	-543.0	-77394.0
25	16	16	16	781	0.0	-202824.0	-541.0	-71424.0
25	16	16	16	781	1.0	-203913.0	-540.0	-65670.0
25	16	16	16	782	2.0	-205609.0	-522.0	-62057.0
25	16	16	16	782	3.0	-207459.0	-527.0	-60932.0
25	16	16	16	783	4.0	-208692.0	-536.0	-63154.0
25	16	16	16	784	5.0	-208907.0	-546.0	-65941.0
25	16	16	16	805	6.0	-207601.0	-531.0	-68286.0
25	16	16	16	806	7.0	-205247.0	-522.0	-69584.0
25	16	16	16	807	8.0	-201753.0	-521.0	-69576.0
25	16	16	16	807	9.0	-195387.0	-521.0	-69621.0
25	16	16	16	808	10.0	-182277.0	-526.0	-69968.0
25	16	16	16	808	11.0	-168869.0	-522.0	-69754.0
25	16	16	16	809	12.0	-159453.0	-519.0	-68694.0
25	16	16	16	809	13.0	-155504.0	-541.0	-69049.0
25	16	16	16	810	14.0	-158378.0	-517.0	-69731.0
25	16	16	16	810	15.0	-166937.0	-496.0	-70004.0
25	16	16	16	811	16.0	-181088.0	-489.0	-69004.0
25	16	16	16	811	17.0	-199271.0	-499.0	-68447.0
25	16	16	16	812	18.0	-215304.0	-503.0	-69556.0
25	16	16	16	813	19.0	-224556.0	-501.0	-70122.0
25	16	16	16	813	20.0	-226289.0	-529.0	-71572.0
25	16	16	16	829	21.0	-222627.0	-509.0	-71405.0
25	16	16	16	829	22.0	-216022.0	-497.0	-71778.0
25	16	16	16	830	23.0	-207222.0	-486.0	-72356.0
25	16	16	16	830	24.0	-195375.0	-493.0	-73272.0
25	16	16	16	831	25.0	-183946.0	-494.0	-72657.0
25	16	16	16	831	26.0	-177512.0	-494.0	-72216.0
25	16	16	16	832	27.0	-177653.0	-500.0	-72212.0
25	16	16	16	833	28.0	-182656.0	-491.0	-72940.0
25	16	16	16	851	29.0	-189306.0	-487.0	-72693.0
25	16	16	16	852	30.0	-197114.0	-477.0	-71916.0
25	16	16	16	853	31.0	-205715.0	-474.0	-72773.0
25	16	16	16	853	32.0	-213449.0	-490.0	-73246.0
25	16	16	16	854	33.0	-219202.0	-494.0	-73067.0
25	16	16	16	855	34.0	-222344.0	-492.0	-72571.0
25	16	16	16	855	35.0	-222328.0	-482.0	-71962.0
25	16	16	16	856	36.0	-219119.0	-485.0	-72045.0
25	16	16	16	856	37.0	-214160.0	-492.0	-71630.0
25	16	16	16	857	38.0	-208251.0	-487.0	-71449.0
25	16	16	16	857	39.0	-201877.0	-508.0	-72034.0
25	16	16	16	858	40.0	-195841.0	-497.0	-72799.0
25	16	16	16	859	41.0	-190712.0	-489.0	-72381.0
25	16	16	16	859	42.0	-186987.0	-477.0	-72227.0
25	16	16	16	860	43.0	-184683.0	-482.0	-71942.0
25	16	16	16	860	44.0	-183187.0	-462.0	-71007.0
25	16	16	16	861	45.0	-182189.0	-445.0	-71150.0
25	16	16	16	861	46.0	-181358.0	-445.0	-71687.0
25	16	16	16	862	47.0	-180901.0	-464.0	-71732.0
25	16	16	16	863	48.0	-180967.0	-452.0	-71517.0
25	16	16	16	877	49.0	-181780.0	-444.0	-71984.0
25	16	16	16	877	50.0	-183093.0	-432.0	-72497.0
25	16	16	16	878	51.0	-184636.0	-440.0	-71752.0
25	16	16	16	879	52.0	-186125.0	-450.0	-71340.0
25	16	16	16	879	53.0	-187717.0	-455.0	-71233.0
25	16	16	16	880	54.0	-189150.0	-454.0	-70751.0
25	16	16	16	880	55.0	-190897.0	-454.0	-70253.0
25	16	16	16	881	56.0	-192626.0	-444.0	-71482.0
25	16	16	16	882	57.0	-193871.0	-466.0	-72745.0
25	16	16	16	883	58.0	-194922.0	-469.0	-73876.0
25	16	16	16	900	59.0	-195782.0	-462.0	-73935.0
25	16	16	16	901	60.0	-196272.0	-457.0	-73796.0
25	16	16	16	901	61.0	-196317.0	-442.0	-73047.0
25	16	16	16	902	62.0	-196292.0	-444.0	-71728.0
25	16	16	16	902	63.0	-196732.0	-435.0	-71672.0
25	16	16	16	903	64.0	-197369.0	-443.0	-72394.0
25	16	16	16	903	65.0	-197930.0	-439.0	-72549.0
25	16	16	16	923	66.0	-198177.0	-430.0	-71889.0
25	16	16	16	924	67.0	-197934.0	-434.0	-71211.0
25	16	16	16	925	68.0	-197738.0	-426.0	-71269.0
25	16	16	16	925	69.0	-197360.0	-426.0	-71501.0
25	16	16	16	926	70.0	-196589.0	-434.0	-71541.0
25	16	16	16	927	71.0	-195777.0	-429.0	-71171.0
25	16	16	16	927	72.0	-195086.0	-441.0	-70901.0
25	16	16	16	928	73.0	-194531.0	-439.0	-70830.0
25	16	16	16	929	74.0	-194281.0	-428.0	-70067.0
25	16	16	16	929	75.0	-194009.0	-422.0	-69069.0
25	16	16	16	930	76.0	-193827.0	-431.0	-69581.0
25	16	16	16	930	77.0	-193853.0	-415.0	-69972.0
25	16	16	16	931	78.0	-194356.0	-417.0	-69933.0
25	16	16	16	931	79.0	-195009.0	-427.0	-69947.0
25	16	16	16	932	80.0	-195221.0	-435.0	-69669.0
25	16	16	16	933	81.0	-195320.0	-420.0	-69170.0
25	16	16	16	933	82.0	-195531.0	-404.0	-68328.0
25	16	16	16	934	83.0	-195780.0	-394.0	-67689.0
25	16	16	16	934	84.0	-196034.0	-387.0	-67952.0
25	16	16	16	946	85.0	-196062.0	-382.0	-68532.0
25	16	16	16	947	86.0	-196309.0	-400.0	-68309.0
25	16	16	16	972	87.0	-196847.0	-391.0	-67887.0
25	16	16	16	973	88.0	-197881.0	-395.0	-67819.0
25	16	16	16	973	89.0	-198834.0	-412.0	-67637.0
25	16	16	16	995	90.0	-199589.0	-417.0	-66894.0
25	16	16	16	996	91.0	-200303.0	-405.0	-66774.0
25	16	16	16	996	92.0	-200922.0	-386.0	-66359.0
25	16	16	16	997	93.0	-201275.0	-402.0	-65797.0
25	16	16	16	997	94.0	-201332.0	-412.0	-65844.0
25	16	16	16	998	95.0	-201321.0	-401.0	-65326.0
25	16	16	16	999	96.0	-201226.0	-372.0	-64596.0
25	16	16	16	999	97.0	-201146.0	-404.0	-63622.0
25	16	16	17	0	98.0	-201098.0	-429.0	-63346.0
25	16	16	17	1	99.0	-201156.0	-434.0	-63722.0
25	16	16	17	1	100.0	-201152.0	-442.0	-63319.0
25	16	16	17	2	101.0	-201235.0	-458.0	-62189.0
25	16	16	17	2	102.0	-201783.0	-464.0	-61482.0
25	16	16	17	3	103.0	-202417.0	-459.0	-61651.0
25	16	16	17	4	104.0	-203204.0	-478.0	-61051.0
25	16	16	17	4	105.0	-203650.0	-490.0	-60781.0
25	16	16	17	5	109.0	-202437.0	-499.0	-60221.0
25	16	16	17	6	110.0	-201759.0	-511.0	-59817.0
25	16	16	17	6	111.0	-201587.0	-481.0	-59051.0
25	16	16	17	7	112.0	-201911.0	-492.0	-58722.0
25	16	16	17	7	113.0	-202005.0	-479.0	-58902.0
25	16	16	17	8	114.0	-201913.0	-477.0	-57544.0
25	16	16	17	8	115.0	-201334.0	-497.0	-57995.0
25	16	16	17	9	116.0	-200330.0	-499.0	-58025.0
25	16	16	17	10	117.0	-199197.0	-512.0	-57966.0
25	16	16	17	17	118.0	-198131.0	-491.0	-57358.0
25	16	16	17	18	119.0	-197515.0	-474.0	-56275.0
25	16	16	17	18	120.0	-197435.0	-454.0	-56069.0
25	16	16	17	19	121.0	-197888.0	-454.0	-55849.0
25	16	16	17	20	122.0	-199186.0	-456.0	-56008.0
25	16	16	17	20	123.0	-200821.0	-454.0	-55835.0
25	16	16	17	21	124.0	-202929.0	-462.0	-55891.0
25	16	16	17	21	125.0	-205081.0	-465.0	-55647.0
25	16	16	17	41	126.0	-207050.0	-445.0	-55319.0
25	16	16	17	41	127.0	-208453.0	-449.0	-55924.0
25	16	16	17	42	128.0	-209372.0	-433.0	-55397.0
25	16	16	17	42	129.0	-209755.0	-441.0	-54591.0
25	16	16	17	43	130.0	-209767.0	-431.0	-54402.0
25	16	16	17	44	131.0	-209164.0	-424.0	-54652.0
25	16	16	17	44	132.0	-208329.0	-419.0	-54670.0
25	16	16	17	45	133.0	-206981.0	-397.0	-54172.0
25	16	16	17	63	134.0	-205166.0	-394.0	-53707.0
25	16	16	17	64	135.0	-202645.0	-389.0	-53599.0
25	16	16	17	65	136.0	-198235.0	-384.0	-53575.0
25	16	16	17	65	137.0	-189266.0	-389.0	-52956.0
25	16	16	17	66	138.0	-181529.0	-387.0	-52798.0
25	16	16	17	66	139.0	-183870.0	-385.0	-52454.0
25	16	16	17	67	140.0	-195916.0	-346.0	-51984.0
25	16	16	17	67	141.0	-202650.0	-330.0	-52204.0
25	16	16	17	68	142.0	-206858.0	-346.0	-51852.0
25	16	16	17	69	143.0	-211120.0	-339.0	-50698.0
25	16	16	17	69	144.0	-216099.0	-347.0	-50210.0
25	16	16	17	70	145.0	-218368.0	-342.0	-50056.0
25	16	16	17	70	146.0	-215732.0	-323.0	-49231.0
25	16	16	17	71	147.0	-211373.0	-316.0	-48875.0
25	16	16	17	72	148.0	-206617.0	-329.0	-49017.0
25	16	16	17	72	149.0	-201439.0	-310.0	-48584.0
25	16	16	17	73	150.0	-197443.0	-302.0	-48213.0
25	16	16	17	73	151.0	-195054.0	-284.0	-48875.0
25	16	16	17	74	152.0	-194138.0	-254.0	-49343.0
25	16	16	17	74	153.0	-194052.0	-242.0	-48655.0
25	16	16	17	87	154.0	-194420.0	-247.0	-48612.0
25	16	16	17	87	155.0	-194835.0	-242.0	-47966.0
25	16	16	17	88	156.0	-195468.0	-235.0	-47755.0
25	16	16	17	89	157.0	-195724.0	-239.0	-47507.0
25	16	16	17	89	158.0	-195416.0	-234.0	-47955.0
25	16	16	17	90	159.0	-194529.0	-239.0	-48229.0
25	16	16	17	90	160.0	-193532.0	-229.0	-47346.0
25	16	16	17	91	161.0	-192464.0	-222.0	-47296.0
25	16	16	17	92	162.0	-192402.0	-206.0	-47565.0
25	16	16	17	92	163.0	-193932.0	-189.0	-46564.0
25	16	16	17	110	164.0	-195556.0	-176.0	-45924.0
25	16	16	17	110	165.0	-196194.0	-145.0	-45054.0
25	16	16	17	111	166.0	-196994.0	-153.0	-44279.0
25	16	16	17	111	167.0	-199217.0	-147.0	-45216.0
25	16	16	17	112	168.0	-202480.0	-135.0	-45341.0
25	16	16	17	113	169.0	-206041.0	-130.0	-44760.0
25	16	16	17	132	170.0	-209750.0	-121.0	-44641.0
25	16	16	17	133	171.0	-213405.0	-111.0	-43873.0
25	16	16	17	133	172.0	-216010.0	-76.0	-43824.0
25	16	16	17	134	173.0	-217428.0	-71.0	-40094.0
25	16	16	17	135	174.0	-217941.0	-60.0	-39862.0
25	16	16	17	135	175.0	-217511.0	-64.0	-42580.0
25	16	16	17	136	176.0	-216402.0	-47.0	-43322.0
25	16	16	17	136	177.0	-214910.0	-17.0	-43516.0
25	16	16	17	137	178.0	-213454.0	18.0	-43764.0
25	16	16	17	155	179.0	-212072.0	39.0	-44289.0
25	16	16	17	155	180.0	-210946.0	59.0	-42971.0
25	16	16	17	156	181.0	-210047.0	51.0	-42206.0
25	16	16	17	156	182.0	-209634.0	65.0	-42277.0
25	16	16	17	157	183.0	-209439.0	75.0	-41608.0
25	16	16	17	158	184.0	-209072.0	95.0	-41468.0
25	16	16	17	158	185.0	-208410.0	115.0	-41114.0
25	16	16	17	159	186.0	-207732.0	119.0	-40784.0
25	16	16	17	159	187.0	-206579.0	119.0	-40932.0
25	16	16	17	160	188.0	-205273.0	127.0	-40314.0
25	16	16	17	161	189.0	-204082.0	151.0	-40345.0
25	16	16	17	161	190.0	-202800.0	164.0	-40384.0
25	16	16	17	162	191.0	-201439.0	158.0	-39878.0
25	16	16	17	162	192.0	-199931.0	169.0	-39421.0
25	16	16	17	163	193.0	-198417.0	183.0	-39787.0
25	16	16	17	164	194.0	-197188.0	201.0	-40399.0
25	16	16	17	164	195.0	-196696.0	207.0	-39910.0
25	16	16	17	165	196.0	-196490.0	213.0	-39669.0
25	16	16	17	165	197.0	-196537.0	230.0	-39354.0
25	16	16	17	166	198.0	-196852.0	241.0	-38270.0
25	16	16	17	178	199.0	-197185.0	246.0	-38369.0
25	16	16	17	178	200.0	-197570.0	251.0	-39288.0
25	16	16	17	179	201.0	-198196.0	259.0	-38800.0
25	16	16	17	180	202.0	-198786.0	268.0	-38259.0
25	16	16	17	180	203.0	-199381.0	260.0	-38149.0
25	16	16	17	181	204.0	-200038.0	283.0	-38033.0
25	16	16	17	182	205.0	-200564.0	299.0	-38506.0
25	16	16	17	182	206.0	-200810.0	303.0	-39571.0
25	16	16	17	183	207.0	-200624.0	314.0	-40019.0
25	16	16	17	184	208.0	-200318.0	321.0	-39989.0
25	16	16	17	207	209.0	-199892.0	344.0	-40502.0
25	16	16	17	208	210.0	-199028.0	352.0	-41274.0
25	16	16	17	208	211.0	-198319.0	364.0	-39857.0
25	16	16	17	209	212.0	-198059.0	384.0	-39244.0
25	16	16	17	209	213.0	-198186.0	401.0	-40549.0
25	16	16	17	210	214.0	-198917.0	410.0	-40541.0
25	16	16	17	211	215.0	-199869.0	417.0	-40744.0
25	16	16	17	211	216.0	-200745.0	439.0	-41588.0
25	16	16	17	212	217.0	-201601.0	466.0	-42644.0
25	16	16	17	212	218.0	-202017.0	478.0	-41825.0
25	16	16	17	213	219.0	-201971.0	490.0	-41402.0
25	16	16	17	213	220.0	-201952.0	498.0	-42033.0
25	16	16	17	214	221.0	-201882.0	518.0	-42874.0
25	16	16	17	215	222.0	-201851.0	524.0	-43307.0
25	16	16	17	230	223.0	-201918.0	550.0	-43269.0
25	16	16	17	231	224.0	-202097.0	574.0	-43622.0
25	16	16	17	231	225.0	-202747.0	581.0	-44340.0
25	16	16	17	232	226.0	-203845.0	597.0	-44745.0
25	16	16	17	233	227.0	-204782.0	611.0	-44321.0
25	16	16	17	233	228.0	-205434.0	623.0	-44719.0
25	16	16	17	234	229.0	-205882.0	633.0	-45125.0
25	16	16	17	234	230.0	-206162.0	653.0	-45176.0
25	16	16	17	253	231.0	-206039.0	669.0	-44185.0
25	16	16	17	254	232.0	-205134.0	703.0	-44433.0
25	16	16	17	254	233.0	-203936.0	710.0	-44358.0
25	16	16	17	255	234.0	-202691.0	734.0	-44866.0
25	16	16	17	255	235.0	-201616.0	752.0	-44979.0
25	16	16	17	256	236.0	-200784.0	781.0	-45333.0
25	16	16	17	257	237.0	-200446.0	799.0	-45601.0
25	16	16	17	257	238.0	-200331.0	822.0	-44773.0
25	16	16	17	258	239.0	-200852.0	853.0	-44116.0
25	16	16	17	258	240.0	-200734.0	890.0	-44739.0
25	16	16	17	259	241.0	-200102.0	928.0	-45300.0
25	16	16	17	259	242.0	-199769.0	949.0	-45779.0
25	16	16	17	260	243.0	-199772.0	969.0	-45681.0
25	16	16	17	260	244.0	-201626.0	1006.0	-45614.0
25	16	16	17	261	245.0	-201502.0	1065.0	-45907.0
25	16	16	17	277	246.0	-195127.0	1118.0	-45431.0
25	16	16	17	278	247.0	-200300.0	1192.0	-44483.0
25	16	16	17	278	248.0	-200086.0	1238.0	-43707.0
25	16	16	17	300	249.0	-199744.0	1307.0	-43081.0
25	16	16	17	301	250.0	-199929.0	1393.0	-42395.0
25	16	16	17	301	251.0	-199717.0	1456.0	-41607.0
25	16	16	17	302	252.0	-200205.0	1524.0	-42192.0
25	16	16	17	303	253.0	-198511.0	1637.0	-42496.0
25	16	16	17	303	254.0	-197075.0	1736.0	-41949.0
25	16	16	17	304	255.0	-197638.0	1844.0	-41696.0
25	16	16	17	304	0.0	-197486.0	1946.0	-41985.0
25	16	16	17	305	1.0	-197812.0	2060.0	-42813.0
25	16	16	17	305	2.0	-199052.0	2200.0	-42631.0
25	16	16	17	306	3.0	-201350.0	2341.0	-41855.0
25	16	16	17	306	4.0	-200959.0	2487.0	-41871.0
25	16	16	17	307	5.0	-199117.0	2663.0	-42286.0
25	16	16	17	323	6.0	-197854.0	2831.0	-42021.0
25	16	16	17	323	7.0	-198577.0	3003.0	-41479.0
25	16	16	17	324	8.0	-199030.0	3186.0	-42444.0
25	16	16	17	325	9.0	-200293.0	3369.0	-43444.0
25	16	16	17	325	10.0	-201155.0	3551.0	-43331.0
25	16	16	17	326	11.0	-201240.0	3736.0	-43054.0
25	16	16	17	326	12.0	-200839.0	3937.0	-42413.0
25	16	16	17	327	13.0	-199410.0	4153.0	-42861.0
25	16	16	17	327	14.0	-197312.0	4343.0	-43147.0
25	16	16	17	328	15.0	-194346.0	4566.0	-43935.0
25	16	16	17	328	16.0	-189677.0	4805.0	-43064.0
25	16	16	17	329	17.0	-188279.0	5016.0	-43164.0
25	16	16	17	330	18.0	-189062.0	5251.0	-44165.0
25	16	16	17	330	19.0	-188212.0	5489.0	-46441.0
25	16	16	17	331	20.0	-183717.0	5759.0	-49564.0
25	16	16	17	331	21.0	-181379.0	6054.0	-51941.0
25	16	16	17	332	22.0	-187051.0	6321.0	-54389.0
25	16	16	17	332	23.0	-190984.0	6591.0	-56064.0
25	16	16	17	333	24.0	-192014.0	6851.0	-57391.0
25	16	16	17	333	25.0	-186789.0	7142.0	-59535.0
25	16	16	17	357	26.0	-182056.0	7434.0	-61801.0
25	16	16	17	358	27.0	-190804.0	7740.0	-63404.0
25	16	16	17	359	28.0	-192679.0	8054.0	-64877.0
25	16	16	17	359	29.0	-197362.0	8360.0	-67306.0
25	16	16	17	360	30.0	-202779.0	8660.0	-69938.0
25	16	16	17	361	31.0	-193853.0	8999.0	-69918.0
25	16	16	17	361	32.0	-199226.0	9349.0	-68147.0
25	16	16	17	362	33.0	-202109.0	9661.0	-65042.0
25	16	16	17	362	34.0	-201985.0	9972.0	-60813.0
25	16	16	17	363	35.0	-204333.0	10286.0	-56278.0
25	16	16	17	364	36.0	-208902.0	10608.0	-51208.0
25	16	16	17	365	37.0	-212374.0	10921.0	-45213.0
25	16	16	17	365	38.0	-203029.0	11244.0	-38936.0
25	16	16	17	366	39.0	-202387.0	11583.0	-35364.0
25	16	16	17	366	40.0	-209859.0	11918.0	-34171.0
25	16	16	17	367	41.0	-205862.0	12236.0	-34936.0
25	16	16	17	367	42.0	-204267.0	12565.0	-37241.0
25	16	16	17	368	43.0	-211474.0	12888.0	-40472.0
25	16	16	17	369	44.0	-206312.0	13237.0	-41413.0
25	16	16	17	381	45.0	-218346.0	13565.0	-41386.0
25	16	16	17	381	46.0	-211096.0	13886.0	-41726.0
25	16	16	17	382	47.0	-198770.0	14188.0	-42871.0
25	16	16	17	403	48.0	-182292.0	14489.0	-43267.0
25	16	16	17	404	49.0	-169749.0	14791.0	-43358.0
25	16	16	17	404	50.0	-160897.0	15109.0	-42977.0
25	16	16	17	405	51.0	-159746.0	15410.0	-43449.0
25	16	16	17	406	52.0	-164978.0	15687.0	-43972.0
25	16	16	17	406	53.0	-171992.0	15959.0	-44452.0
25	16	16	17	407	54.0	-183362.0	16235.0	-44616.0
25	16	16	17	407	55.0	-198936.0	16508.0	-44817.0
25	16	16	17	408	56.0	-210994.0	16748.0	-44660.0
25	16	16	17	408	57.0	-216084.0	17011.0	-44834.0
25	16	16	17	409	58.0	-217937.0	17276.0	-45969.0
25	16	16	17	410	59.0	-216533.0	17523.0	-46011.0
25	16	16	17	410	60.0	-210543.0	17765.0	-46414.0
25	16	16	17	411	61.0	-200208.0	17993.0	-47569.0
25	16	16	17	411	62.0	-189954.0	18227.0	-47647.0
25	16	16	17	412	63.0	-184992.0	18445.0	-46982.0
25	16	16	17	426	64.0	-185440.0	18662.0	-47498.0
25	16	16	17	426	65.0	-189928.0	18883.0	-47796.0
25	16	16	17	427	66.0	-197028.0	19099.0	-47904.0
25	16	16	17	428	67.0	-205361.0	19293.0	-49124.0
25	16	16	17	428	68.0	-214389.0	19489.0	-49839.0
25	16	16	17	429	69.0	-221581.0	19669.0	-49909.0
25	16	16	17	429	70.0	-226144.0	19867.0	-49482.0
25	16	16	17	430	71.0	-226819.0	20070.0	-49444.0
25	16	16	17	452	72.0	-222283.0	20236.0	-49737.0
25	16	16	17	453	73.0	-215734.0	20403.0	-49136.0
25	16	16	17	454	74.0	-212726.0	20593.0	-48456.0
25	16	16	17	454	75.0	-210372.0	20756.0	-48866.0
25	16	16	17	455	76.0	-210764.0	20928.0	-49249.0
25	16	16	17	475	77.0	-191571.0	21082.0	-47941.0
25	16	16	17	476	78.0	-180022.0	21222.0	-47395.0
25	16	16	17	476	79.0	-182320.0	21364.0	-47762.0
25	16	16	17	477	80.0	-176070.0	21514.0	-47376.0
25	16	16	17	477	81.0	-177223.0	21653.0	-46981.0
25	16	16	17	478	82.0	-179227.0	21812.0	-46958.0
25	16	16	17	479	83.0	-179262.0	21936.0	-47571.0
25	16	16	17	479	84.0	-180386.0	22068.0	-48594.0
25	16	16	17	480	85.0	-180767.0	22217.0	-49131.0
25	16	16	17	480	86.0	-182519.0	22356.0	-49372.0
25	16	16	17	481	87.0	-186559.0	22492.0	-49249.0
25	16	16	17	482	88.0	-193275.0	22609.0	-49504.0
25	16	16	17	482	89.0	-199538.0	22738.0	-50311.0
25	16	16	17	483	90.0	-205418.0	22858.0	-50660.0
25	16	16	17	483	91.0	-206041.0	22943.0	-49991.0
25	16	16	17	484	92.0	-170529.0	23036.0	-49445.0
25	16	16	17	485	93.0	-185987.0	23126.0	-49563.0
25	16	16	17	485	94.0	-177356.0	23221.0	-50034.0
25	16	16	17	486	95.0	-177469.0	23328.0	-50149.0
25	16	16	17	486	96.0	-184640.0	23458.0	-50247.0
25	16	16	17	487	97.0	-192902.0	23536.0	-51162.0
25	16	16	17	488	98.0	-204312.0	23604.0	-50247.0
25	16	16	17	488	99.0	-216431.0	23677.0	-50618.0
25	16	16	17	489	100.0	-189617.0	23748.0	-51195.0
25	16	16	17	489	101.0	-199775.0	23810.0	-51951.0
25	16	16	17	490	102.0	-205719.0	23891.0	-51828.0
25	16	16	17	491	103.0	-198374.0	23989.0	-51431.0
25	16	16	17	491	104.0	-198656.0	24063.0	-52146.0
25	16	16	17	499	105.0	-201016.0	24146.0	-52472.0
25	16	16	17	500	106.0	-205676.0	24235.0	-52281.0
25	16	16	17	522	107.0	-210509.0	24324.0	-51572.0
25	16	16	17	522	108.0	-181855.0	24388.0	-51791.0
25	16	16	17	523	109.0	-184514.0	24446.0	-52127.0
25	16	16	17	524	110.0	-189137.0	24518.0	-52622.0
25	16	16	17	524	111.0	-185241.0	24612.0	-52189.0
25	16	16	17	525	112.0	-189225.0	24689.0	-52263.0
25	16	16	17	525	113.0	-195479.0	24763.0	-52172.0
25	16	16	17	526	114.0	-199018.0	24838.0	-52051.0
25	16	16	17	526	115.0	-200257.0	24923.0	-52253.0
25	16	16	17	527	116.0	-198546.0	25014.0	-53380.0
25	16	16	17	527	117.0	-195869.0	25088.0	-53635.0
25	16	16	17	528	118.0	-192856.0	25174.0	-53223.0
25	16	16	17	529	119.0	-190748.0	25268.0	-53617.0
25	16	16	17	529	120.0	-199336.0	25344.0	-53912.0
25	16	16	17	530	121.0	-209133.0	25393.0	-53362.0
25	16	16	17	530	122.0	-168711.0	25451.0	-53472.0
25	16	16	17	531	123.0	-187682.0	25517.0	-53625.0
25	16	16	17	546	124.0	-199830.0	25603.0	-52777.0
25	16	16	17	546	125.0	-206122.0	25699.0	-51797.0
25	16	16	17	547	126.0	-192049.0	25803.0	-52132.0
25	16	16	17	548	127.0	-186277.0	25913.0	-52483.0
25	16	16	17	548	128.0	-198150.0	26020.0	-52453.0
25	16	16	17	549	129.0	-202329.0	26138.0	-53047.0
25	16	16	17	549	130.0	-203321.0	26274.0	-53366.0
25	16	16	17	550	131.0	-208496.0	26426.0	-54291.0
25	16	16	17	568	132.0	-211271.0	26579.0	-55156.0
25	16	16	17	569	133.0	-213222.0	26716.0	-54754.0
25	16	16	17	570	134.0	-214016.0	26862.0	-53566.0
25	16	16	17	570	135.0	-215067.0	27005.0	-53039.0
25	16	16	17	571	136.0	-224722.0	27160.0	-53754.0
25	16	16	17	571	137.0	-222962.0	27308.0	-53736.0
25	16	16	17	572	138.0	-196714.0	27495.0	-54009.0
25	16	16	17	572	139.0	-202730.0	27690.0	-55140.0
25	16	16	17	573	140.0	-206834.0	27875.0	-55772.0
25	16	16	17	573	141.0	-207331.0	28064.0	-56694.0
25	16	16	17	574	142.0	-210819.0	28250.0	-56818.0
25	16	16	17	575	143.0	-212267.0	28413.0	-57419.0
25	16	16	17	575	144.0	-211559.0	28592.0	-57657.0
25	16	16	17	576	145.0	-209984.0	28766.0	-57667.0
25	16	16	17	576	146.0	-207339.0	28952.0	-58204.0
25	16	16	17	591	147.0	-204599.0	29135.0	-59233.0
25	16	16	17	592	148.0	-202461.0	29293.0	-58657.0
25	16	16	17	592	149.0	-200492.0	29478.0	-57515.0
25	16	16	17	593	150.0	-199297.0	29658.0	-58035.0
25	16	16	17	593	151.0	-198076.0	29798.0	-58462.0
25	16	16	17	594	152.0	-196994.0	29943.0	-57992.0
25	16	16	17	595	153.0	-196342.0	30114.0	-56978.0
25	16	16	17	614	154.0	-195822.0	30274.0	-56904.0
25	16	16	17	614	155.0	-195204.0	30434.0	-56604.0
25	16	16	17	615	156.0	-194322.0	30577.0	-57676.0
25	16	16	17	616	157.0	-193664.0	30703.0	-58142.0
25	16	16	17	616	158.0	-194076.0	30822.0	-57379.0
25	16	16	17	617	159.0	-192748.0	30949.0	-56630.0
25	16	16	17	617	160.0	-191264.0	31076.0	-56145.0
25	16	16	17	618	161.0	-191269.0	31205.0	-56354.0
25	16	16	17	619	162.0	-192084.0	31326.0	-56857.0
25	16	16	17	619	163.0	-192797.0	31430.0	-56730.0
25	16	16	17	620	164.0	-194067.0	31534.0	-56007.0
25	16	16	17	620	165.0	-195713.0	31654.0	-55684.0
25	16	16	17	621	166.0	-198821.0	31772.0	-55863.0
25	16	16	17	622	167.0	-201747.0	31871.0	-55117.0
25	16	16	17	622	168.0	-201074.0	31971.0	-54729.0
25	16	16	17	623	169.0	-199594.0	32085.0	-54603.0
25	16	16	17	623	170.0	-197704.0	32186.0	-54687.0
25	16	16	17	624	171.0	-196622.0	32277.0	-54966.0
25	16	16	17	637	172.0	-195475.0	32390.0	-54849.0
25	16	16	17	638	173.0	-193184.0	32500.0	-54342.0
25	16	16	17	638	174.0	-185871.0	32609.0	-52486.0
25	16	16	17	659	175.0	-178381.0	32690.0	-52160.0
25	16	16	17	660	176.0	-180694.0	32798.0	-52297.0
25	16	16	17	660	177.0	-193893.0	32909.0	-52785.0
25	16	16	17	661	178.0	-203511.0	33004.0	-53124.0
25	16	16	17	662	179.0	-210038.0	33079.0	-53992.0
25	16	16	17	662	180.0	-216681.0	33173.0	-53114.0
25	16	16	17	663	181.0	-223279.0	33284.0	-52883.0
25	16	16	17	663	182.0	-228569.0	33388.0	-53052.0
25	16	16	17	664	183.0	-229122.0	33475.0	-53242.0
25	16	16	17	665	184.0	-225902.0	33566.0	-52708.0
25	16	16	17	665	185.0	-220635.0	33643.0	-52345.0
25	16	16	17	666	186.0	-214202.0	33743.0	-52244.0
25	16	16	17	666	187.0	-208839.0	33826.0	-53177.0
25	16	16	17	667	188.0	-204265.0	33912.0	-53984.0
25	16	16	17	667	189.0	-200499.0	33994.0	-53319.0
25	16	16	17	668	190.0	-197568.0	34080.0	-52404.0
25	16	16	17	669	191.0	-195457.0	34153.0	-51887.0
25	16	16	17	669	192.0	-195337.0	34233.0	-53132.0
25	16	16	17	670	193.0	-197461.0	34314.0	-53371.0
25	16	16	17	672	194.0	-196077.0	34406.0	-54556.0
25	16	16	17	673	195.0	-193875.0	34479.0	-54675.0
25	16	16	17	674	196.0	-195846.0	34569.0	-54929.0
25	16	16	17	675	197.0	-198052.0	34644.0	-55667.0
25	16	16	17	687	198.0	-195009.0	34707.0	-56095.0
25	16	16	17	688	199.0	-191354.0	34784.0	-56122.0
25	16	16	17	711	200.0	-190667.0	34842.0	-55986.0
25	16	16	17	712	201.0	-189807.0	34904.0	-56364.0
25	16	16	17	713	202.0	-188481.0	34961.0	-56809.0
25	16	16	17	713	203.0	-188178.0	35025.0	-56921.0
25	16	16	17	714	204.0	-188941.0	35082.0	-56224.0
25	16	16	17	715	205.0	-190472.0	35140.0	-55771.0
25	16	16	17	715	206.0	-193050.0	35171.0	-55441.0
25	16	16	17	716	207.0	-197021.0	35232.0	-55166.0
25	16	16	17	717	208.0	-201362.0	35278.0	-54905.0
25	16	16	17	717	209.0	-204879.0	35328.0	-56271.0
25	16	16	17	718	210.0	-208022.0	35369.0	-57612.0
25	16	16	17	718	211.0	-210899.0	35408.0	-56597.0
25	16	16	17	719	212.0	-213082.0	35428.0	-56267.0
25	16	16	17	720	213.0	-213826.0	35452.0	-56392.0
25	16	16	17	720	214.0	-213029.0	35483.0	-57021.0
25	16	16	17	721	215.0	-211106.0	35520.0	-57425.0
25	16	16	17	721	216.0	-209306.0	35563.0	-57554.0
25	16	16	17	722	217.0	-208232.0	35567.0	-57234.0
25	16	16	17	722	218.0	-208941.0	35591.0	-57363.0
25	16	16	17	723	219.0	-209884.0	35609.0	-57819.0
25	16	16	17	724	220.0	-207372.0	35619.0	-58676.0
25	16	16	17	733	221.0	-206658.0	35644.0	-59464.0
25	16	16	17	734	222.0	-208442.0	35674.0	-59571.0
25	16	16	17	735	223.0	-209585.0	35696.0	-58502.0
25	16	16	17	736	224.0	-209917.0	35712.0	-58444.0
25	16	16	17	736	225.0	-209740.0	35724.0	-58593.0
25	16	16	17	737	226.0	-209104.0	35729.0	-58700.0
25	16	16	17	737	227.0	-208254.0	35743.0	-59541.0
25	16	16	17	738	228.0	-206828.0	35754.0	-59167.0
25	16	16	17	739	229.0	-205687.0	35758.0	-59049.0
25	16	16	17	756	230.0	-204725.0	35764.0	-59254.0
25	16	16	17	757	231.0	-203732.0	35752.0	-59474.0
25	16	16	17	757	232.0	-202916.0	35753.0	-59260.0
25	16	16	17	758	233.0	-202131.0	35740.0	-58997.0
25	16	16	17	779	234.0	-201674.0	35743.0	-59187.0
25	16	16	17	779	235.0	-201437.0	35745.0	-59655.0
25	16	16	17	780	236.0	-201087.0	35723.0	-59491.0
25	16	16	17	780	237.0	-200553.0	35740.0	-59860.0
25	16	16	17	781	238.0	-199774.0	35723.0	-59946.0
25	16	16	17	782	239.0	-198639.0	35706.0	-60684.0
25	16	16	17	782	240.0	-197771.0	35690.0	-61596.0
25	16	16	17	783	241.0	-197364.0	35663.0	-62420.0
25	16	16	17	783	242.0	-196796.0	35651.0	-62388.0
25	16	16	17	784	243.0	-196461.0	35639.0	-61252.0
25	16	16	17	784	244.0	-196174.0	35611.0	-60656.0
25	16	16	17	785	245.0	-195721.0	35601.0	-59951.0
25	16	16	17	786	246.0	-195269.0	35606.0	-59169.0
25	16	16	17	786	247.0	-194920.0	35580.0	-59702.0
25	16	16	17	787	248.0	-194656.0	35551.0	-58844.0
25	16	16	17	787	249.0	-194636.0	35531.0	-58493.0
25	16	16	17	788	250.0	-194648.0	35494.0	-58842.0
25	16	16	17	802	251.0	-194894.0	35461.0	-58808.0
25	16	16	17	802	252.0	-195317.0	35446.0	-58236.0
25	16	16	17	803	253.0	-195739.0	35433.0	-58043.0
25	16	16	17	804	254.0	-196207.0	35397.0	-58718.0
25	16	16	17	804	255.0	-196456.0	35388.0	-57277.0
25	16	16	17	805	0.0	-196338.0	35378.0	-57254.0
25	16	16	17	805	1.0	-196135.0	35368.0	-57796.0
25	16	16	17	806	2.0	-196108.0	35355.0	-56780.0
25	16	16	17	807	3.0	-195309.0	35329.0	-56515.0
25	16	16	17	807	4.0	-196106.0	35296.0	-56182.0
25	16	16	17	808	5.0	-198547.0	35286.0	-56250.0
25	16	16	17	808	6.0	-197691.0	35281.0	-55747.0
25	16	16	17	825	7.0	-196762.0	35264.0	-55584.0
25	16	16	17	826	8.0	-197214.0	35263.0	-55644.0
25	16	16	17	826	9.0	-198354.0	35249.0	-55151.0
25	16	16	17	847	10.0	-199892.0	35225.0	-55566.0
25	16	16	17	848	11.0	-201122.0	35204.0	-56119.0
25	16	16	17	848	12.0	-201337.0	35190.0	-56239.0
25	16	16	17	849	13.0	-201062.0	35176.0	-54749.0
25	16	16	17	849	14.0	-200978.0	35139.0	-54234.0
25	16	16	17	850	15.0	-201801.0	35119.0	-53926.0
25	16	16	17	851	16.0	-201757.0	35109.0	-54082.0
25	16	16	17	851	17.0	-198846.0	35093.0	-53794.0
25	16	16	17	852	18.0	-197809.0	35090.0	-54312.0
25	16	16	17	852	19.0	-200026.0	35071.0	-55130.0
25	16	16	17	853	20.0	-202583.0	35043.0	-54654.0
25	16	16	17	854	21.0	-203999.0	35031.0	-53423.0
25	16	16	17	854	22.0	-204148.0	35018.0	-52451.0
25	16	16	17	855	23.0	-204101.0	35013.0	-52508.0
25	16	16	17	855	24.0	-204295.0	34978.0	-53149.0
25	16	16	17	856	25.0	-204806.0	34959.0	-52232.0
25	16	16	17	857	26.0	-205273.0	34946.0	-51762.0
25	16	16	17	857	27.0	-205177.0	34929.0	-51656.0
25	16	16	17	858	28.0	-204864.0	34911.0	-51536.0
25	16	16	17	858	29.0	-203898.0	34910.0	-52004.0
25	16	16	17	859	30.0	-202807.0	34898.0	-52489.0
25	16	16	17	859	31.0	-201627.0	34876.0	-52263.0
25	16	16	17	869	32.0	-200387.0	34858.0	-51587.0
25	16	16	17	870	33.0	-199384.0	34856.0	-51432.0
25	16	16	17	871	34.0	-198356.0	34838.0	-51983.0
25	16	16	17	871	35.0	-196746.0	34822.0	-51276.0
25	16	16	17	872	36.0	-194856.0	34794.0	-50203.0
25	16	16	17	872	37.0	-192997.0	34777.0	-49496.0
25	16	16	17	873	38.0	-191030.0	34771.0	-49427.0
25	16	16	17	874	39.0	-188939.0	34746.0	-48875.0
25	16	16	17	874	40.0	-187394.0	34736.0	-48732.0
25	16	16	17	893	41.0	-185949.0	34709.0	-47888.0
25	16	16	17	894	42.0	-185242.0	34698.0	-47615.0
25	16	16	17	894	43.0	-185225.0	34679.0	-48449.0
25	16	16	17	895	44.0	-185328.0	34672.0	-48664.0
25	16	16	17	895	45.0	-185450.0	34644.0	-49541.0
25	16	16	17	896	46.0	-186012.0	34623.0	-50445.0
25	16	16	17	897	47.0	-187402.0	34598.0	-50704.0
25	16	16	17	897	48.0	-188944.0	34604.0	-51674.0
25	16	16	17	898	49.0	-190435.0	34608.0	-53014.0
25	16	16	17	899	50.0	-191922.0	34591.0	-54522.0
25	16	16	17	899	51.0	-193179.0	34562.0	-58151.0
25	16	16	17	900	52.0	-194387.0	34544.0	-61325.0
25	16	16	17	900	53.0	-195823.0	34530.0	-63043.0
25	16	16	17	901	54.0	-197665.0	34515.0	-65472.0
25	16	16	17	902	55.0	-199452.0	34503.0	-68476.0
25	16	16	17	927	56.0	-200775.0	34522.0	-72671.0
25	16	16	17	927	57.0	-201431.0	34506.0	-75458.0
25	16	16	17	928	58.0	-201431.0	34501.0	-76998.0
25	16	16	17	929	59.0	-200664.0	34500.0	-78586.0
25	16	16	17	929	60.0	-200003.0	34489.0	-78338.0
25	16	16	17	930	61.0	-199981.0	34474.0	-75832.0
25	16	16	17	931	62.0	-200348.0	34470.0	-73156.0
25	16	16	17	931	63.0	-199949.0	34465.0	-70783.0
25	16	16	17	932	64.0	-198840.0	34471.0	-66906.0
25	16	16	17	933	65.0	-198006.0	34489.0	-62291.0
25	16	16	17	934	66.0	-197704.0	34478.0	-56473.0
25	16	16	17	934	67.0	-198564.0	34471.0	-50202.0
25	16	16	17	935	68.0	-200889.0	34473.0	-45741.0
25	16	16	17	935	69.0	-203772.0	34489.0	-43285.0
25	16	16	17	936	70.0	-206421.0	34480.0	-41906.0
25	16	16	17	937	71.0	-208226.0	34479.0	-43077.0
25	16	16	17	937	72.0	-209101.0	34503.0	-45036.0
25	16	16	17	945	73.0	-208887.0	34505.0	-47311.0
25	16	16	17	946	74.0	-208314.0	34516.0	-49737.0
25	16	16	17	947	75.0	-205742.0	34513.0	-51397.0
25	16	16	17	969	76.0	-194937.0	34490.0	-52167.0
25	16	16	17	970	77.0	-181791.0	34507.0	-53021.0
25	16	16	17	970	78.0	-171162.0	34530.0	-54305.0
25	16	16	17	971	79.0	-163289.0	34523.0	-55196.0
25	16	16	17	972	80.0	-160831.0	34511.0	-55429.0
25	16	16	17	972	81.0	-162041.0	34513.0	-55664.0
25	16	16	17	973	82.0	-166482.0	34493.0	-55674.0
25	16	16	17	974	83.0	-177338.0	34486.0	-56034.0
25	16	16	17	974	84.0	-192807.0	34468.0	-56252.0
25	16	16	17	975	85.0	-204161.0	34462.0	-56839.0
25	16	16	17	975	86.0	-210114.0	34454.0	-56474.0
25	16	16	17	976	87.0	-210976.0	34434.0	-57111.0
25	16	16	17	977	88.0	-206697.0	34432.0	-57325.0
25	16	16	17	977	89.0	-198089.0	34405.0	-57640.0
25	16	16	17	978	90.0	-189232.0	34366.0	-58029.0
25	16	16	17	978	91.0	-183057.0	34341.0	-58172.0
25	16	16	18	3	92.0	-182880.0	34314.0	-58234.0
25	16	16	18	4	93.0	-186702.0	34313.0	-58270.0
25	16	16	18	4	94.0	-192936.0	34271.0	-59134.0
25	16	16	18	5	95.0	-202011.0	34246.0	-59651.0
25	16	16	18	6	96.0	-211368.0	34230.0	-59194.0
25	16	16	18	6	97.0	-219090.0	34203.0	-59012.0
25	16	16	18	7	98.0	-225292.0	34159.0	-59330.0
25	16	16	18	8	99.0	-227448.0	34113.0	-59867.0
25	16	16	18	9	100.0	-226178.0	34102.0	-59382.0
25	16	16	18	9	101.0	-222926.0	34067.0	-59127.0
25	16	16	18	10	102.0	-218247.0	34040.0	-58218.0
25	16	16	18	11	103.0	-211989.0	33989.0	-58689.0
25	16	16	18	11	104.0	-205426.0	33951.0	-59022.0
25	16	16	18	12	105.0	-200135.0	33908.0	-59700.0
25	16	16	18	12	106.0	-196281.0	33873.0	-59087.0
25	16	16	18	13	107.0	-193194.0	33836.0	-59764.0
25	16	16	18	14	108.0	-190604.0	33819.0	-59530.0
25	16	16	18	14	109.0	-188745.0	33770.0	-59405.0
25	16	16	18	15	110.0	-187483.0	33727.0	-59153.0
25	16	16	18	26	111.0	-186914.0	33691.0	-59398.0
25	16	16	18	27	112.0	-186402.0	33643.0	-58976.0
25	16	16	18	27	113.0	-185834.0	33578.0	-58502.0
25	16	16	18	49	114.0	-185499.0	33531.0	-58431.0
25	16	16	18	50	115.0	-185374.0	33468.0	-48943.0
25	16	16	18	50	116.0	-185742.0	33429.0	-9120.0
25	16	16	18	51	117.0	-186664.0	33369.0	3254.0
25	16	16	18	52	118.0	-188070.0	33309.0	-1505.0
25	16	16	18	52	119.0	-190069.0	33258.0	-4791.0
25	16	16	18	53	120.0	-192325.0	33190.0	-6570.0
25	16	16	18	53	121.0	-194251.0	33138.0	-8369.0
25	16	16	18	54	122.0	-195751.0	33097.0	-9104.0
25	16	16	18	55	123.0	-196569.0	33054.0	-9909.0
25	16	16	18	55	124.0	-197422.0	32991.0	-10072.0
25	16	16	18	56	125.0	-198857.0	32926.0	-9775.0
25	16	16	18	56	126.0	-200579.0	32871.0	-9679.0
25	16	16	18	57	127.0	-202208.0	32811.0	-10816.0
25	16	16	18	57	128.0	-203409.0	32753.0	-11833.0
25	16	16	18	58	129.0	-203724.0	32693.0	-11906.0
25	16	16	18	72	130.0	-203280.0	32635.0	-12554.0
25	16	16	18	72	131.0	-202476.0	32581.0	-13778.0
25	16	16	18	73	132.0	-201234.0	32515.0	-14330.0
25	16	16	18	74	133.0	-200267.0	32430.0	-14376.0
25	16	16	18	74	134.0	-200371.0	32367.0	-15048.0
25	16	16	18	75	135.0	-201182.0	32297.0	-14416.0
25	16	16	18	75	136.0	-201362.0	32220.0	-13966.0
25	16	16	18	76	137.0	-200737.0	32148.0	-14998.0
25	16	16	18	77	138.0	-199921.0	32094.0	-14991.0
25	16	16	18	77	139.0	-198712.0	32037.0	-14699.0
25	16	16	18	78	140.0	-197492.0	31959.0	-15203.0
25	16	16	18	79	141.0	-196506.0	31878.0	-15769.0
25	16	16	18	79	142.0	-195926.0	31800.0	-16072.0
25	16	16	18	80	143.0	-195445.0	31738.0	-15324.0
25	16	16	18	81	144.0	-195141.0	31662.0	-15433.0
25	16	16	18	96	145.0	-195165.0	31588.0	-15224.0
25	16	16	18	103	146.0	-195537.0	31515.0	-14489.0
25	16	16	18	106	147.0	-196136.0	31429.0	-13531.0
25	16	16	18	108	148.0	-196661.0	31355.0	-14061.0
25	16	16	18	109	149.0	-197546.0	31277.0	-14356.0
25	16	16	18	109	150.0	-198917.0	31184.0	-14286.0
25	16	16	18	110	151.0	-200625.0	31129.0	-14302.0
25	16	16	18	110	152.0	-202272.0	31057.0	-14519.0
25	16	16	18	111	153.0	-204112.0	30971.0	-14075.0
25	16	16	18	112	154.0	-206346.0	30897.0	-15094.0
25	16	16	18	112	155.0	-208561.0	30829.0	-15799.0
25	16	16	18	113	156.0	-210617.0	30749.0	-15162.0
25	16	16	18	113	157.0	-212223.0	30671.0	-14788.0
25	16	16	18	114	158.0	-213147.0	30607.0	-14861.0
25	16	16	18	115	159.0	-213172.0	30532.0	-15204.0
25	16	16	18	122	160.0	-212098.0	30443.0	-15911.0
25	16	16	18	122	161.0	-210112.0	30363.0	-17082.0
25	16	16	18	123	162.0	-208314.0	30288.0	-18244.0
25	16	16	18	123	163.0	-208619.0	30218.0	-19042.0
25	16	16	18	124	164.0	-210276.0	30134.0	-20972.0
25	16	16	18	125	165.0	-211814.0	30050.0	-21619.0
25	16	16	18	125	166.0	-212364.0	29952.0	-21124.0
25	16	16	18	144	167.0	-212127.0	29890.0	-21532.0
25	16	16	18	145	168.0	-211234.0	29823.0	-21517.0
25	16	16	18	145	169.0	-209377.0	29764.0	-21398.0
25	16	16	18	146	170.0	-207034.0	29680.0	-21446.0
25	16	16	18	146	171.0	-204911.0	29571.0	-20186.0
25	16	16	18	147	172.0	-203015.0	29494.0	-19666.0
25	16	16	18	147	173.0	-201112.0	29419.0	-20779.0
25	16	16	18	148	174.0	-199258.0	29338.0	-21593.0
25	16	16	18	167	175.0	-197728.0	29283.0	-20420.0
25	16	16	18	168	176.0	-196581.0	29206.0	-20462.0
25	16	16	18	168	177.0	-195535.0	29133.0	-20906.0
25	16	16	18	169	178.0	-194487.0	29058.0	-20826.0
25	16	16	18	169	179.0	-193764.0	28972.0	-20280.0
25	16	16	18	170	180.0	-193457.0	28909.0	-20246.0
25	16	16	18	171	181.0	-192931.0	28854.0	-19995.0
25	16	16	18	171	182.0	-192486.0	28791.0	-19444.0
25	16	16	18	172	183.0	-192492.0	28714.0	-19415.0
25	16	16	18	172	184.0	-193040.0	28633.0	-18706.0
25	16	16	18	173	185.0	-194064.0	28556.0	-18244.0
25	16	16	18	173	186.0	-195269.0	28486.0	-18151.0
25	16	16	18	174	187.0	-196649.0	28432.0	-18531.0
25	16	16	18	174	188.0	-198221.0	28359.0	-18364.0
25	16	16	18	175	189.0	-199960.0	28262.0	-18181.0
25	16	16	18	176	190.0	-201841.0	28216.0	-18619.0
25	16	16	18	176	191.0	-203882.0	28151.0	-18276.0
25	16	16	18	177	192.0	-206159.0	28073.0	-18778.0
25	16	16	18	191	193.0	-208367.0	28021.0	-19193.0
25	16	16	18	191	194.0	-207641.0	27959.0	-19289.0
25	16	16	18	192	195.0	-206342.0	27896.0	-19586.0
25	16	16	18	214	196.0	-206994.0	27833.0	-18462.0
25	16	16	18	215	197.0	-207889.0	27779.0	-18307.0
25	16	16	18	215	198.0	-207719.0	27700.0	-18437.0
25	16	16	18	216	199.0	-206521.0	27626.0	-18082.0
25	16	16	18	216	200.0	-204718.0	27564.0	-17726.0
25	16	16	18	217	201.0	-202408.0	27514.0	-17961.0
25	16	16	18	217	202.0	-199678.0	27440.0	-18000.0
25	16	16	18	218	203.0	-196099.0	27399.0	-18892.0
25	16	16	18	218	204.0	-189005.0	27331.0	-18147.0
25	16	16	18	219	205.0	-181210.0	27278.0	-17954.0
25	16	16	18	219	206.0	-181919.0	27232.0	-17522.0
25	16	16	18	220	207.0	-193792.0	27178.0	-17652.0
25	16	16	18	221	208.0	-202386.0	27126.0	-17774.0
25	16	16	18	221	209.0	-205939.0	27067.0	-16914.0
25	16	16	18	222	210.0	-210442.0	27002.0	-16936.0
25	16	16	18	222	211.0	-214821.0	26941.0	-16570.0
25	16	16	18	238	212.0	-219392.0	26883.0	-16427.0
25	16	16	18	238	213.0	-220793.0	26828.0	-16112.0
25	16	16	18	239	214.0	-218779.0	26785.0	-15527.0
25	16	16	18	240	215.0	-215928.0	26721.0	-15348.0
25	16	16	18	240	216.0	-211811.0	26675.0	-15934.0
25	16	16	18	241	217.0	-207422.0	26603.0	-15944.0
25	16	16	18	241	218.0	-203037.0	26547.0	-15828.0
25	16	16	18	242	219.0	-199392.0	26507.0	-15356.0
25	16	16	18	242	220.0	-197098.0	26449.0	-14034.0
25	16	16	18	243	221.0	-196412.0	26401.0	-14005.0
25	16	16	18	244	222.0	-197334.0	26368.0	-14432.0
25	16	16	18	244	223.0	-198924.0	26303.0	-15532.0
25	16	16	18	245	224.0	-200536.0	26243.0	-15040.0
25	16	16	18	245	225.0	-201852.0	26181.0	-14858.0
25	16	16	18	246	226.0	-202819.0	26120.0	-15236.0
25	16	16	18	272	227.0	-203394.0	26066.0	-15471.0
25	16	16	18	273	228.0	-203531.0	26012.0	-14869.0
