25	16	53	43	729	110.0	-186430.0	-4905.0	-90709.0
25	16	53	43	731	111.0	-187302.0	-4875.0	-90581.0
25	16	53	43	733	112.0	-187399.0	-4813.0	-91053.0
25	16	53	43	735	113.0	-187332.0	-4778.0	-91301.0
25	16	53	43	737	114.0	-187476.0	-4750.0	-91629.0
25	16	53	43	739	115.0	-188609.0	-4699.0	-91588.0
25	16	53	43	741	116.0	-190034.0	-4642.0	-92007.0
25	16	53	43	743	117.0	-191524.0	-4586.0	-91829.0
25	16	53	43	745	118.0	-193405.0	-4528.0	-91727.0
25	16	53	43	746	119.0	-195406.0	-4482.0	-91728.0
25	16	53	43	747	120.0	-197357.0	-4441.0	-91419.0
25	16	53	43	748	121.0	-198099.0	-4391.0	-91393.0
25	16	53	43	749	122.0	-197234.0	-4315.0	-91596.0
25	16	53	43	749	123.0	-195568.0	-4254.0	-91898.0
25	16	53	43	750	124.0	-193482.0	-4197.0	-92230.0
25	16	53	43	759	125.0	-190894.0	-4166.0	-92436.0
25	16	53	43	759	126.0	-187709.0	-4128.0	-92809.0
25	16	53	43	760	127.0	-184244.0	-4082.0	-92536.0
25	16	53	43	761	128.0	-180976.0	-4022.0	-92104.0
25	16	53	43	788	129.0	-178566.0	-3976.0	-91839.0
25	16	53	43	788	130.0	-177246.0	-3906.0	-91886.0
25	16	53	43	789	131.0	-176910.0	-3846.0	-91249.0
25	16	53	43	790	132.0	-177499.0	-3796.0	-91284.0
25	16	53	43	813	133.0	-179279.0	-3754.0	-90859.0
25	16	53	43	861	134.0	-182857.0	-3668.0	-90446.0
25	16	53	43	862	135.0	-188327.0	-3611.0	-90385.0
25	16	53	43	862	136.0	-195018.0	-3546.0	-90394.0
25	16	53	43	863	137.0	-202321.0	-3482.0	-90264.0
25	16	53	43	863	138.0	-209845.0	-3428.0	-89631.0
25	16	53	43	864	139.0	-217242.0	-3381.0	-88953.0
25	16	53	43	864	140.0	-224459.0	-3341.0	-88597.0
25	16	53	43	865	141.0	-230674.0	-3306.0	-88077.0
25	16	53	43	866	142.0	-235991.0	-3262.0	-87154.0
25	16	53	43	866	143.0	-239496.0	-3219.0	-86934.0
25	16	53	43	867	144.0	-240816.0	-3138.0	-87157.0
25	16	53	43	868	145.0	-240288.0	-3090.0	-87307.0
25	16	53	43	868	146.0	-237792.0	-3034.0	-86962.0
25	16	53	43	869	147.0	-234009.0	-2955.0	-86373.0
25	16	53	43	869	158.0	-169357.0	-2384.0	-84067.0
25	16	53	43	870	181.0	-217655.0	-1876.0	-84179.0
25	16	53	43	870	182.0	-221975.0	-1868.0	-84286.0
25	16	53	43	871	183.0	-234399.0	-1862.0	-84789.0
25	16	53	43	872	184.0	-251402.0	-1861.0	-84906.0
25	16	53	43	872	185.0	-267450.0	-1839.0	-84852.0
25	16	53	43	873	186.0	-274760.0	-1816.0	-84450.0
25	16	53	43	904	187.0	-273543.0	-1803.0	-84535.0
25	16	53	43	905	188.0	-265331.0	-1809.0	-84347.0
25	16	53	43	905	189.0	-255019.0	-1788.0	-84016.0
25	16	53	43	906	190.0	-246258.0	-1763.0	-84179.0
25	16	53	43	906	191.0	-240762.0	-1750.0	-84257.0
25	16	53	43	907	192.0	-237636.0	-1730.0	-84474.0
25	16	53	43	907	193.0	-235169.0	-1694.0	-84776.0
25	16	53	43	908	194.0	-232426.0	-1667.0	-84844.0
25	16	53	43	909	195.0	-229268.0	-1638.0	-85552.0
25	16	53	43	909	196.0	-225674.0	-1636.0	-85196.0
25	16	53	43	910	197.0	-221802.0	-1640.0	-85164.0
25	16	53	43	910	198.0	-216866.0	-1636.0	-84767.0
25	16	53	43	911	199.0	-210164.0	-1619.0	-84409.0
25	16	53	43	912	200.0	-202340.0	-1600.0	-84417.0
25	16	53	43	912	201.0	-193884.0	-1589.0	-83955.0
25	16	53	43	913	203.0	-176831.0	-1571.0	-84263.0
25	16	53	43	913	204.0	-168859.0	-1557.0	-84483.0
25	16	53	43	914	205.0	-161102.0	-1539.0	-84637.0
25	16	53	43	915	206.0	-153961.0	-1546.0	-84669.0
25	16	53	43	915	207.0	-148128.0	-1552.0	-84539.0
25	16	53	43	916	208.0	-143234.0	-1561.0	-84422.0
25	16	53	43	949	209.0	-139380.0	-1573.0	-84169.0
25	16	53	43	949	210.0	-137119.0	-1572.0	-84469.0
25	16	53	43	950	211.0	-136256.0	-1602.0	-84538.0
25	16	53	43	950	212.0	-136835.0	-1627.0	-84540.0
25	16	53	43	951	213.0	-138742.0	-1652.0	-84708.0
25	16	53	43	952	214.0	-142179.0	-1705.0	-84859.0
25	16	53	43	952	215.0	-146204.0	-1757.0	-85025.0
25	16	53	43	953	216.0	-150756.0	-1807.0	-84519.0
25	16	53	43	953	217.0	-156015.0	-1829.0	-84546.0
25	16	53	43	954	218.0	-162057.0	-1852.0	-84151.0
25	16	53	43	954	219.0	-168396.0	-1904.0	-83479.0
25	16	53	43	955	220.0	-174680.0	-1965.0	-83366.0
25	16	53	43	956	221.0	-181041.0	-2022.0	-83710.0
25	16	53	43	956	222.0	-187295.0	-2071.0	-83462.0
25	16	53	43	957	223.0	-193152.0	-2112.0	-83722.0
25	16	53	43	965	226.0	-207849.0	-2179.0	-84206.0
25	16	53	43	966	227.0	-212377.0	-2211.0	-84067.0
25	16	53	43	966	228.0	-216299.0	-2237.0	-83960.0
25	16	53	43	967	229.0	-219789.0	-2253.0	-83656.0
25	16	53	43	968	230.0	-222442.0	-2287.0	-83390.0
25	16	53	43	968	231.0	-224449.0	-2341.0	-83163.0
25	16	53	43	994	232.0	-225986.0	-2349.0	-83130.0
25	16	53	43	994	233.0	-227217.0	-2344.0	-83573.0
25	16	53	43	995	234.0	-227832.0	-2362.0	-83770.0
25	16	53	43	996	235.0	-227951.0	-2397.0	-84220.0
25	16	53	43	996	236.0	-227714.0	-2422.0	-84197.0
25	16	53	43	997	237.0	-226924.0	-2446.0	-84356.0
25	16	53	43	999	238.0	-225495.0	-2491.0	-84113.0
25	16	53	43	999	239.0	-224171.0	-2515.0	-83693.0
25	16	53	44	0	240.0	-223379.0	-2567.0	-83304.0
25	16	53	44	1	241.0	-223544.0	-2613.0	-83369.0
25	16	53	44	1	242.0	-223689.0	-2628.0	-83874.0
25	16	53	44	2	243.0	-223414.0	-2632.0	-84122.0
25	16	53	44	2	244.0	-223293.0	-2661.0	-84047.0
25	16	53	44	3	245.0	-222826.0	-2681.0	-84187.0
25	16	53	44	4	246.0	-221292.0	-2722.0	-84465.0
25	16	53	44	4	248.0	-215677.0	-2841.0	-84439.0
25	16	53	44	5	249.0	-212103.0	-2870.0	-84246.0
25	16	53	44	6	250.0	-208014.0	-2925.0	-84769.0
25	16	53	44	6	251.0	-203088.0	-2952.0	-84672.0
25	16	53	44	7	252.0	-198816.0	-2956.0	-84583.0
25	16	53	44	7	253.0	-194777.0	-2997.0	-85521.0
25	16	53	44	40	254.0	-191389.0	-3040.0	-85481.0
25	16	53	44	40	255.0	-188503.0	-3076.0	-85571.0
25	16	53	44	41	0.0	-186844.0	-3094.0	-85790.0
25	16	53	44	42	1.0	-185785.0	-3119.0	-85430.0
25	16	53	44	42	2.0	-185411.0	-3151.0	-84835.0
25	16	53	44	43	3.0	-185947.0	-3188.0	-84679.0
25	16	53	44	43	4.0	-186819.0	-3243.0	-85451.0
25	16	53	44	44	5.0	-187671.0	-3306.0	-85812.0
25	16	53	44	45	6.0	-189104.0	-3331.0	-85610.0
25	16	53	44	45	7.0	-190681.0	-3362.0	-85804.0
25	16	53	44	46	8.0	-192303.0	-3419.0	-86338.0
25	16	53	44	47	9.0	-193979.0	-3474.0	-87157.0
25	16	53	44	47	10.0	-195849.0	-3532.0	-87231.0
25	16	53	44	48	11.0	-197849.0	-3545.0	-87386.0
25	16	53	44	49	12.0	-199346.0	-3581.0	-86851.0
25	16	53	44	49	14.0	-201964.0	-3627.0	-86654.0
25	16	53	44	50	15.0	-203019.0	-3656.0	-86774.0
25	16	53	44	51	16.0	-203267.0	-3656.0	-86443.0
25	16	53	44	51	17.0	-203362.0	-3658.0	-85865.0
25	16	53	44	52	18.0	-203282.0	-3642.0	-85985.0
25	16	53	44	52	19.0	-203339.0	-3641.0	-86731.0
25	16	53	44	53	20.0	-203299.0	-3660.0	-86451.0
25	16	53	44	84	21.0	-203220.0	-3667.0	-85804.0
25	16	53	44	85	22.0	-203739.0	-3712.0	-85466.0
25	16	53	44	86	23.0	-204677.0	-3742.0	-85545.0
25	16	53	44	87	24.0	-206012.0	-3762.0	-85473.0
25	16	53	44	87	25.0	-207722.0	-3756.0	-85434.0
25	16	53	44	88	26.0	-209379.0	-3766.0	-86083.0
25	16	53	44	89	27.0	-210992.0	-3842.0	-86604.0
25	16	53	44	89	28.0	-212399.0	-3881.0	-86767.0
25	16	53	44	90	29.0	-213637.0	-3877.0	-87695.0
25	16	53	44	91	30.0	-214846.0	-3861.0	-87821.0
25	16	53	44	91	31.0	-215367.0	-3848.0	-87420.0
25	16	53	44	92	32.0	-214866.0	-3850.0	-86447.0
25	16	53	44	93	33.0	-214072.0	-3846.0	-87157.0
25	16	53	44	93	34.0	-213153.0	-3839.0	-87090.0
25	16	53	44	94	35.0	-211767.0	-3841.0	-86952.0
25	16	53	44	94	37.0	-207808.0	-3889.0	-87356.0
25	16	53	44	95	38.0	-206194.0	-3887.0	-86965.0
25	16	53	44	96	39.0	-204218.0	-3899.0	-87186.0
25	16	53	44	96	40.0	-202212.0	-3889.0	-87683.0
25	16	53	44	97	41.0	-200227.0	-3876.0	-87286.0
25	16	53	44	97	42.0	-198353.0	-3877.0	-86659.0
25	16	53	44	130	43.0	-196154.0	-3892.0	-86257.0
25	16	53	44	131	44.0	-194132.0	-3887.0	-86009.0
25	16	53	44	132	45.0	-192171.0	-3873.0	-86096.0
25	16	53	44	133	46.0	-189941.0	-3857.0	-85939.0
25	16	53	44	134	47.0	-187136.0	-3857.0	-85985.0
25	16	53	44	134	48.0	-184194.0	-3864.0	-86064.0
25	16	53	44	135	49.0	-181221.0	-3866.0	-86425.0
25	16	53	44	135	50.0	-178225.0	-3855.0	-86296.0
25	16	53	44	136	51.0	-175398.0	-3831.0	-86182.0
25	16	53	44	137	52.0	-172812.0	-3814.0	-85436.0
25	16	53	44	137	53.0	-171244.0	-3809.0	-85509.0
25	16	53	44	138	54.0	-170609.0	-3794.0	-85579.0
25	16	53	44	139	55.0	-171175.0	-3789.0	-85294.0
25	16	53	44	139	56.0	-173447.0	-3749.0	-85892.0
25	16	53	44	140	57.0	-176766.0	-3726.0	-86083.0
25	16	53	44	141	59.0	-186188.0	-3701.0	-86202.0
25	16	53	44	141	60.0	-191811.0	-3699.0	-85872.0
25	16	53	44	142	61.0	-197364.0	-3668.0	-85462.0
25	16	53	44	142	62.0	-202442.0	-3629.0	-84850.0
25	16	53	44	143	63.0	-207096.0	-3599.0	-85023.0
25	16	53	44	144	64.0	-211214.0	-3584.0	-85144.0
25	16	53	44	144	65.0	-215132.0	-3550.0	-84870.0
25	16	53	44	173	66.0	-218514.0	-3522.0	-85667.0
25	16	53	44	174	67.0	-221364.0	-3498.0	-86306.0
25	16	53	44	175	68.0	-222893.0	-3517.0	-85747.0
25	16	53	44	175	69.0	-223334.0	-3526.0	-85693.0
25	16	53	44	176	70.0	-223351.0	-3517.0	-87067.0
25	16	53	44	177	71.0	-222957.0	-3526.0	-88280.0
25	16	53	44	177	72.0	-221896.0	-3536.0	-90522.0
25	16	53	44	178	73.0	-220094.0	-3531.0	-94729.0
25	16	53	44	179	74.0	-218034.0	-3537.0	-98428.0
25	16	53	44	179	75.0	-215921.0	-3549.0	-100754.0
25	16	53	44	180	76.0	-213170.0	-3556.0	-99806.0
25	16	53	44	181	77.0	-209887.0	-3563.0	-98551.0
25	16	53	44	181	78.0	-206184.0	-3590.0	-99793.0
25	16	53	44	182	79.0	-202666.0	-3616.0	-99326.0
25	16	53	44	183	80.0	-198985.0	-3633.0	-97624.0
25	16	53	44	183	82.0	-191486.0	-3676.0	-94126.0
25	16	53	44	184	83.0	-188084.0	-3680.0	-89322.0
25	16	53	44	185	84.0	-185204.0	-3662.0	-86743.0
25	16	53	44	185	85.0	-183491.0	-3660.0	-84283.0
25	16	53	44	186	86.0	-183673.0	-3666.0	-81204.0
25	16	53	44	186	87.0	-185721.0	-3643.0	-78602.0
25	16	53	44	220	88.0	-189839.0	-3637.0	-77626.0
25	16	53	44	221	89.0	-195956.0	-3609.0	-76273.0
25	16	53	44	221	90.0	-204067.0	-3601.0	-75674.0
25	16	53	44	222	91.0	-214172.0	-3603.0	-76253.0
25	16	53	44	223	92.0	-225214.0	-3605.0	-77248.0
25	16	53	44	223	93.0	-236922.0	-3592.0	-78839.0
25	16	53	44	224	94.0	-248943.0	-3586.0	-79172.0
25	16	53	44	225	95.0	-260648.0	-3567.0	-78944.0
25	16	53	44	225	96.0	-270812.0	-3554.0	-79532.0
25	16	53	44	226	97.0	-277787.0	-3551.0	-81094.0
25	16	53	44	227	98.0	-280847.0	-3551.0	-82895.0
25	16	53	44	227	99.0	-280449.0	-3582.0	-84472.0
25	16	53	44	228	100.0	-278281.0	-3595.0	-85987.0
25	16	53	44	229	101.0	-274597.0	-3597.0	-86328.0
25	16	53	44	229	102.0	-271218.0	-3615.0	-86770.0
25	16	53	44	230	104.0	-263132.0	-3594.0	-87387.0
25	16	53	44	231	105.0	-255484.0	-3602.0	-87218.0
25	16	53	44	231	106.0	-244910.0	-3600.0	-87336.0
25	16	53	44	232	107.0	-233834.0	-3606.0	-87994.0
25	16	53	44	232	108.0	-225165.0	-3611.0	-88593.0
25	16	53	44	233	109.0	-223817.0	-3613.0	-88744.0
25	16	53	44	234	110.0	-229636.0	-3634.0	-89300.0
25	16	53	44	266	111.0	-237508.0	-3634.0	-88806.0
25	16	53	44	266	112.0	-240865.0	-3612.0	-88391.0
25	16	53	44	267	113.0	-235639.0	-3629.0	-88763.0
25	16	53	44	268	114.0	-221129.0	-3635.0	-88977.0
25	16	53	44	269	115.0	-199863.0	-3609.0	-88832.0
25	16	53	44	269	116.0	-176409.0	-3602.0	-88801.0
25	16	53	44	270	117.0	-154852.0	-3608.0	-89285.0
25	16	53	44	271	118.0	-136410.0	-3626.0	-89167.0
25	16	53	44	271	119.0	-120961.0	-3613.0	-86719.0
25	16	53	44	272	120.0	-108369.0	-3606.0	-86723.0
25	16	53	44	273	121.0	-99348.0	-3603.0	-87182.0
25	16	53	44	274	122.0	-95211.0	-3589.0	-87026.0
25	16	53	44	274	123.0	-96917.0	-3587.0	-86921.0
25	16	53	44	275	124.0	-104162.0	-3572.0	-87193.0
25	16	53	44	275	125.0	-115587.0	-3576.0	-87192.0
25	16	53	44	276	127.0	-144272.0	-3600.0	-87832.0
25	16	53	44	277	128.0	-158470.0	-3617.0	-88564.0
25	16	53	44	277	129.0	-170574.0	-3609.0	-88211.0
25	16	53	44	278	130.0	-179959.0	-3599.0	-88134.0
25	16	53	44	278	131.0	-187239.0	-3598.0	-88000.0
25	16	53	44	279	132.0	-193392.0	-3597.0	-88315.0
25	16	53	44	310	133.0	-198991.0	-3609.0	-88649.0
25	16	53	44	310	134.0	-203193.0	-3613.0	-88690.0
25	16	53	44	311	135.0	-205217.0	-3620.0	-88651.0
25	16	53	44	312	136.0	-205024.0	-3624.0	-88837.0
25	16	53	44	313	137.0	-202232.0	-3634.0	-88570.0
25	16	53	44	313	138.0	-196477.0	-3654.0	-89082.0
25	16	53	44	314	139.0	-188077.0	-3667.0	-89374.0
25	16	53	44	315	140.0	-178586.0	-3663.0	-89834.0
25	16	53	44	315	141.0	-169177.0	-3671.0	-89241.0
25	16	53	44	316	142.0	-160287.0	-3687.0	-89160.0
25	16	53	44	317	143.0	-151791.0	-3722.0	-89129.0
25	16	53	44	318	144.0	-144282.0	-3739.0	-89214.0
25	16	53	44	318	145.0	-138311.0	-3754.0	-89583.0
25	16	53	44	319	146.0	-134232.0	-3779.0	-90113.0
25	16	53	44	320	147.0	-132214.0	-3782.0	-90424.0
25	16	53	44	320	149.0	-133116.0	-3855.0	-90282.0
25	16	53	44	321	150.0	-137254.0	-3846.0	-89871.0
25	16	53	44	322	151.0	-143971.0	-3832.0	-89394.0
25	16	53	44	322	152.0	-153017.0	-3773.0	-89798.0
25	16	53	44	323	153.0	-164191.0	-3749.0	-89867.0
25	16	53	44	323	154.0	-176431.0	-3768.0	-90149.0
25	16	53	44	354	155.0	-188442.0	-3737.0	-90420.0
25	16	53	44	355	156.0	-198849.0	-3707.0	-91026.0
25	16	53	44	356	157.0	-207752.0	-3690.0	-91587.0
25	16	53	44	357	158.0	-215766.0	-3696.0	-91571.0
25	16	53	44	357	159.0	-222355.0	-3678.0	-91779.0
25	16	53	44	358	160.0	-226962.0	-3661.0	-91967.0
25	16	53	44	359	161.0	-229584.0	-3647.0	-91807.0
25	16	53	44	359	162.0	-231321.0	-3649.0	-92161.0
25	16	53	44	360	163.0	-232671.0	-3631.0	-92491.0
25	16	53	44	361	164.0	-233531.0	-3620.0	-92777.0
25	16	53	44	362	165.0	-234209.0	-3587.0	-92809.0
25	16	53	44	362	166.0	-234959.0	-3587.0	-93341.0
25	16	53	44	363	167.0	-235450.0	-3584.0	-93711.0
25	16	53	44	364	168.0	-235263.0	-3564.0	-94176.0
25	16	53	44	364	169.0	-234625.0	-3557.0	-94282.0
25	16	53	44	365	171.0	-232886.0	-3579.0	-94130.0
25	16	53	44	366	172.0	-230764.0	-3559.0	-94506.0
25	16	53	44	366	173.0	-227896.0	-3544.0	-94563.0
25	16	53	44	367	174.0	-225095.0	-3510.0	-94912.0
25	16	53	44	367	175.0	-221641.0	-3467.0	-95435.0
25	16	53	44	368	176.0	-216597.0	-3433.0	-96255.0
25	16	53	44	369	177.0	-210338.0	-3404.0	-96522.0
25	16	53	44	400	178.0	-203647.0	-3386.0	-96997.0
25	16	53	44	401	179.0	-196864.0	-3383.0	-96888.0
25	16	53	44	402	180.0	-189622.0	-3352.0	-97021.0
25	16	53	44	403	181.0	-182121.0	-3322.0	-96691.0
25	16	53	44	403	182.0	-175199.0	-3304.0	-97067.0
25	16	53	44	404	183.0	-169537.0	-3279.0	-97116.0
25	16	53	44	405	184.0	-164862.0	-3233.0	-97219.0
25	16	53	44	405	185.0	-161964.0	-3202.0	-97342.0
25	16	53	44	406	186.0	-160527.0	-3164.0	-97726.0
25	16	53	44	407	187.0	-160411.0	-3113.0	-97605.0
25	16	53	44	408	188.0	-162109.0	-3081.0	-98392.0
25	16	53	44	408	189.0	-165599.0	-3058.0	-98732.0
25	16	53	44	409	190.0	-170412.0	-3011.0	-99109.0
25	16	53	44	410	191.0	-176056.0	-2959.0	-98659.0
25	16	53	44	410	192.0	-182779.0	-2917.0	-98329.0
25	16	53	44	411	194.0	-197412.0	-2802.0	-98181.0
25	16	53	44	412	195.0	-205379.0	-2746.0	-98757.0
25	16	53	44	412	196.0	-212573.0	-2662.0	-99472.0
25	16	53	44	413	197.0	-219155.0	-2607.0	-99931.0
25	16	53	44	413	198.0	-225867.0	-2558.0	-100282.0
25	16	53	44	414	199.0	-233201.0	-2492.0	-100356.0
25	16	53	44	445	200.0	-239972.0	-2447.0	-100215.0
25	16	53	44	446	201.0	-245696.0	-2422.0	-99759.0
25	16	53	44	447	202.0	-250144.0	-2361.0	-99452.0
25	16	53	44	448	203.0	-253279.0	-2322.0	-99373.0
25	16	53	44	449	204.0	-255611.0	-2279.0	-99871.0
25	16	53	44	449	205.0	-256897.0	-2259.0	-100036.0
25	16	53	44	450	206.0	-257096.0	-2239.0	-100224.0
25	16	53	44	451	207.0	-256211.0	-2209.0	-100623.0
25	16	53	44	451	208.0	-254494.0	-2176.0	-100717.0
25	16	53	44	452	209.0	-252095.0	-2133.0	-100028.0
25	16	53	44	453	210.0	-248391.0	-2090.0	-99466.0
25	16	53	44	454	211.0	-243762.0	-2062.0	-98614.0
25	16	53	44	455	212.0	-238297.0	-2036.0	-98336.0
25	16	53	44	455	213.0	-231642.0	-2011.0	-98113.0
25	16	53	44	456	214.0	-223701.0	-1966.0	-97952.0
25	16	53	44	457	216.0	-207186.0	-1911.0	-97652.0
25	16	53	44	458	217.0	-199112.0	-1886.0	-96491.0
25	16	53	44	458	218.0	-191311.0	-1830.0	-96389.0
25	16	53	44	459	219.0	-184579.0	-1761.0	-96534.0
25	16	53	44	459	220.0	-179561.0	-1719.0	-95676.0
25	16	53	44	460	221.0	-176092.0	-1679.0	-94608.0
25	16	53	44	461	222.0	-174556.0	-1641.0	-93887.0
25	16	53	44	489	223.0	-174856.0	-1609.0	-93171.0
25	16	53	44	489	224.0	-177161.0	-1533.0	-92841.0
25	16	53	44	490	225.0	-180807.0	-1479.0	-93123.0
25	16	53	44	491	226.0	-185441.0	-1438.0	-92477.0
25	16	53	44	491	227.0	-190506.0	-1389.0	-91699.0
25	16	53	44	492	228.0	-195872.0	-1332.0	-92193.0
25	16	53	44	492	229.0	-200722.0	-1262.0	-92251.0
25	16	53	44	493	230.0	-204972.0	-1220.0	-91689.0
25	16	53	44	493	231.0	-208252.0	-1159.0	-91533.0
25	16	53	44	494	232.0	-210957.0	-1091.0	-91315.0
25	16	53	44	494	233.0	-212895.0	-1031.0	-91077.0
25	16	53	44	495	234.0	-214663.0	-1001.0	-90328.0
25	16	53	44	496	235.0	-215917.0	-956.0	-90316.0
25	16	53	44	496	236.0	-216222.0	-908.0	-90839.0
25	16	53	44	497	237.0	-216250.0	-859.0	-90616.0
25	16	53	44	497	239.0	-210657.0	-768.0	-90481.0
25	16	53	44	498	240.0	-204227.0	-722.0	-89933.0
25	16	53	44	499	241.0	-192296.0	-656.0	-89789.0
25	16	53	44	499	242.0	-174343.0	-611.0	-89523.0
25	16	53	44	500	243.0	-156794.0	-563.0	-89424.0
25	16	53	44	500	244.0	-142054.0	-509.0	-89094.0
25	16	53	44	534	245.0	-127108.0	-464.0	-89472.0
25	16	53	44	535	246.0	-125451.0	-431.0	-90011.0
25	16	53	44	536	247.0	-128876.0	-404.0	-90358.0
25	16	53	44	536	248.0	-136411.0	-380.0	-90356.0
25	16	53	44	537	249.0	-151672.0	-347.0	-90025.0
25	16	53	44	537	250.0	-168766.0	-322.0	-88981.0
25	16	53	44	538	251.0	-181674.0	-284.0	-88073.0
25	16	53	44	539	252.0	-190909.0	-277.0	-88159.0
25	16	53	44	539	253.0	-197945.0	-264.0	-88204.0
25	16	53	44	540	254.0	-201651.0	-237.0	-87784.0
25	16	53	44	540	255.0	-200504.0	-207.0	-88030.0
25	16	53	44	541	0.0	-197385.0	-226.0	-88523.0
25	16	53	44	541	1.0	-194305.0	-199.0	-88792.0
25	16	53	44	542	2.0	-175847.0	-197.0	-88739.0
25	16	53	44	543	3.0	-155831.0	-192.0	-88644.0
25	16	53	44	543	5.0	-167397.0	-160.0	-88368.0
25	16	53	44	544	6.0	-195551.0	-166.0	-88625.0
25	16	53	44	544	7.0	-226238.0	-129.0	-88621.0
25	16	53	44	545	8.0	-249031.0	-115.0	-88452.0
25	16	53	44	545	9.0	-257067.0	-86.0	-88935.0
25	16	53	44	546	10.0	-254236.0	-53.0	-89277.0
25	16	53	44	547	11.0	-246221.0	-37.0	-89804.0
25	16	53	44	579	12.0	-238152.0	-14.0	-89753.0
25	16	53	44	580	13.0	-233400.0	4.0	-89971.0
25	16	53	44	580	14.0	-231660.0	0.0	-89631.0
25	16	53	44	581	15.0	-231382.0	0.0	-88893.0
25	16	53	44	582	16.0	-231221.0	-2.0	-89054.0
25	16	53	44	582	17.0	-230037.0	-28.0	-89270.0
25	16	53	44	583	18.0	-226751.0	-46.0	-88851.0
25	16	53	44	583	19.0	-221481.0	-64.0	-89087.0
25	16	53	44	584	20.0	-214755.0	-47.0	-89852.0
25	16	53	44	585	21.0	-207782.0	-45.0	-90689.0
25	16	53	44	585	22.0	-201444.0	-57.0	-90194.0
25	16	53	44	586	23.0	-195587.0	-52.0	-90058.0
25	16	53	44	586	24.0	-190704.0	-57.0	-89457.0
25	16	53	44	587	25.0	-186629.0	-56.0	-88546.0
25	16	53	44	587	26.0	-183729.0	-60.0	-88518.0
25	16	53	44	588	28.0	-180227.0	-104.0	-88895.0
25	16	53	44	589	29.0	-178509.0	-102.0	-88532.0
25	16	53	44	589	30.0	-176679.0	-112.0	-88429.0
25	16	53	44	590	31.0	-174849.0	-104.0	-88669.0
25	16	53	44	590	32.0	-173807.0	-103.0	-88374.0
25	16	53	44	591	33.0	-173334.0	-108.0	-88699.0
25	16	53	44	624	34.0	-173694.0	-119.0	-88573.0
25	16	53	44	625	35.0	-175342.0	-103.0	-88779.0
25	16	53	44	625	36.0	-178399.0	-109.0	-88770.0
25	16	53	44	626	37.0	-182726.0	-131.0	-88893.0
25	16	53	44	627	38.0	-188104.0	-116.0	-88846.0
25	16	53	44	627	39.0	-194126.0	-132.0	-88575.0
25	16	53	44	628	40.0	-200632.0	-151.0	-89124.0
25	16	53	44	628	41.0	-207602.0	-164.0	-89920.0
25	16	53	44	629	42.0	-214679.0	-169.0	-89731.0
25	16	53	44	630	43.0	-221542.0	-200.0	-88662.0
25	16	53	44	630	44.0	-227954.0	-217.0	-88273.0
25	16	53	44	631	45.0	-233969.0	-217.0	-88103.0
25	16	53	44	631	46.0	-239702.0	-227.0	-87790.0
25	16	53	44	632	47.0	-244515.0	-262.0	-87757.0
25	16	53	44	632	48.0	-248310.0	-274.0	-87969.0
25	16	53	44	633	50.0	-252785.0	-309.0	-88189.0
25	16	53	44	634	51.0	-253524.0	-329.0	-88828.0
25	16	53	44	634	52.0	-253134.0	-349.0	-88915.0
25	16	53	44	635	53.0	-251970.0	-382.0	-88877.0
25	16	53	44	635	54.0	-249966.0	-384.0	-88396.0
25	16	53	44	636	55.0	-247377.0	-416.0	-87707.0
25	16	53	44	637	56.0	-244246.0	-424.0	-87237.0
25	16	53	44	669	57.0	-240733.0	-441.0	-86931.0
25	16	53	44	670	58.0	-236861.0	-461.0	-86583.0
25	16	53	44	670	59.0	-232873.0	-489.0	-86594.0
25	16	53	44	671	60.0	-228804.0	-509.0	-86577.0
25	16	53	44	672	61.0	-224257.0	-546.0	-86655.0
25	16	53	44	672	62.0	-219191.0	-552.0	-86144.0
25	16	53	44	673	63.0	-214197.0	-572.0	-86613.0
25	16	53	44	674	64.0	-209217.0	-596.0	-86062.0
25	16	53	44	674	65.0	-204031.0	-618.0	-85965.0
25	16	53	44	675	66.0	-198221.0	-615.0	-86035.0
25	16	53	44	675	67.0	-192109.0	-611.0	-86204.0
25	16	53	44	676	68.0	-186045.0	-624.0	-86129.0
25	16	53	44	677	69.0	-179914.0	-627.0	-86291.0
25	16	53	44	677	70.0	-173715.0	-623.0	-86404.0
25	16	53	44	678	71.0	-167942.0	-628.0	-86653.0
25	16	53	44	679	73.0	-158907.0	-683.0	-85979.0
25	16	53	44	680	74.0	-156042.0	-697.0	-85713.0
25	16	53	44	681	75.0	-154584.0	-699.0	-85409.0
25	16	53	44	681	76.0	-153886.0	-710.0	-85085.0
25	16	53	44	682	77.0	-154340.0	-751.0	-85383.0
25	16	53	44	682	78.0	-155800.0	-769.0	-84919.0
25	16	53	44	714	79.0	-157862.0	-795.0	-84956.0
25	16	53	44	715	80.0	-161059.0	-810.0	-85116.0
25	16	53	44	715	81.0	-165671.0	-834.0	-85474.0
25	16	53	44	716	82.0	-171133.0	-886.0	-85438.0
25	16	53	44	717	83.0	-177417.0	-918.0	-84881.0
25	16	53	44	717	84.0	-184387.0	-956.0	-84469.0
25	16	53	44	718	85.0	-192866.0	-967.0	-84973.0
25	16	53	44	718	86.0	-202374.0	-985.0	-84348.0
25	16	53	44	719	87.0	-212136.0	-996.0	-84058.0
25	16	53	44	720	88.0	-221457.0	-1019.0	-83996.0
25	16	53	44	720	89.0	-230107.0	-1070.0	-84097.0
25	16	53	44	721	90.0	-237753.0	-1104.0	-84072.0
25	16	53	44	721	91.0	-244226.0	-1156.0	-84098.0
25	16	53	44	722	92.0	-249121.0	-1180.0	-84041.0
25	16	53	44	723	93.0	-252096.0	-1227.0	-83692.0
25	16	53	44	723	95.0	-252176.0	-1289.0	-83227.0
25	16	53	44	724	96.0	-249802.0	-1299.0	-82987.0
25	16	53	44	724	97.0	-245892.0	-1314.0	-82974.0
25	16	53	44	725	98.0	-241047.0	-1346.0	-83230.0
25	16	53	44	725	99.0	-235341.0	-1399.0	-83437.0
25	16	53	44	726	100.0	-229042.0	-1422.0	-83499.0
25	16	53	44	759	101.0	-222107.0	-1437.0	-83659.0
25	16	53	44	759	102.0	-214791.0	-1452.0	-83833.0
25	16	53	44	760	103.0	-207276.0	-1483.0	-83852.0
25	16	53	44	761	104.0	-199504.0	-1520.0	-83450.0
25	16	53	44	761	105.0	-191164.0	-1525.0	-83479.0
25	16	53	44	762	106.0	-182802.0	-1551.0	-83646.0
25	16	53	44	763	107.0	-175262.0	-1560.0	-83467.0
25	16	53	44	763	108.0	-168480.0	-1572.0	-83494.0
25	16	53	44	764	109.0	-162022.0	-1590.0	-83994.0
25	16	53	44	764	110.0	-156134.0	-1609.0	-84134.0
25	16	53	44	765	111.0	-150852.0	-1633.0	-84429.0
25	16	53	44	766	112.0	-146839.0	-1654.0	-84583.0
25	16	53	44	766	113.0	-144456.0	-1652.0	-83996.0
25	16	53	44	767	114.0	-143171.0	-1668.0	-83580.0
25	16	53	44	767	115.0	-142844.0	-1679.0	-83875.0
25	16	53	44	768	117.0	-146334.0	-1700.0	-83839.0
25	16	53	44	769	118.0	-150892.0	-1734.0	-84397.0
25	16	53	44	769	119.0	-157566.0	-1740.0	-85069.0
25	16	53	44	770	120.0	-165402.0	-1744.0	-84952.0
25	16	53	44	770	121.0	-173916.0	-1790.0	-85532.0
25	16	53	44	771	122.0	-183337.0	-1799.0	-85557.0
25	16	53	44	772	123.0	-193604.0	-1816.0	-84667.0
25	16	53	44	804	124.0	-204346.0	-1806.0	-84191.0
25	16	53	44	804	125.0	-215286.0	-1793.0	-84212.0
25	16	53	44	805	126.0	-225865.0	-1806.0	-83570.0
25	16	53	44	806	127.0	-235261.0	-1839.0	-83231.0
25	16	53	44	806	128.0	-243492.0	-1857.0	-83595.0
25	16	53	44	807	129.0	-250921.0	-1878.0	-84206.0
25	16	53	44	807	130.0	-257626.0	-1886.0	-83924.0
25	16	53	44	808	131.0	-262926.0	-1919.0	-83762.0
25	16	53	44	809	132.0	-266531.0	-1961.0	-83954.0
25	16	53	44	809	133.0	-268349.0	-1991.0	-83787.0
25	16	53	44	810	134.0	-268393.0	-1994.0	-83296.0
25	16	53	44	811	135.0	-266925.0	-2012.0	-82877.0
25	16	53	44	811	136.0	-264104.0	-2047.0	-82988.0
25	16	53	44	812	137.0	-259805.0	-2087.0	-82830.0
25	16	53	44	813	138.0	-254346.0	-2111.0	-82602.0
25	16	53	44	813	140.0	-240755.0	-2164.0	-82652.0
25	16	53	44	814	141.0	-232857.0	-2176.0	-83397.0
25	16	53	44	814	142.0	-224752.0	-2215.0	-83865.0
25	16	53	44	815	143.0	-216394.0	-2202.0	-84014.0
25	16	53	44	815	144.0	-207572.0	-2198.0	-83202.0
25	16	53	44	816	145.0	-198665.0	-2216.0	-82450.0
25	16	53	44	850	146.0	-190001.0	-2225.0	-82655.0
25	16	53	44	850	147.0	-182022.0	-2232.0	-81943.0
25	16	53	44	851	148.0	-174436.0	-2256.0	-81906.0
25	16	53	44	852	149.0	-167160.0	-2281.0	-81981.0
25	16	53	44	852	150.0	-160464.0	-2289.0	-82119.0
25	16	53	44	853	151.0	-154638.0	-2318.0	-82247.0
25	16	53	44	854	152.0	-149927.0	-2331.0	-82392.0
25	16	53	44	854	153.0	-145901.0	-2335.0	-81791.0
25	16	53	44	855	154.0	-142294.0	-2346.0	-81186.0
25	16	53	44	855	155.0	-139242.0	-2353.0	-80984.0
25	16	53	44	856	156.0	-137114.0	-2349.0	-80813.0
25	16	53	44	857	157.0	-135885.0	-2334.0	-80836.0
25	16	53	44	857	158.0	-135493.0	-2344.0	-80786.0
25	16	53	44	858	159.0	-136261.0	-2337.0	-80851.0
25	16	53	44	859	160.0	-137971.0	-2361.0	-81349.0
25	16	53	44	860	162.0	-143262.0	-2390.0	-81456.0
25	16	53	44	861	163.0	-147037.0	-2420.0	-81255.0
25	16	53	44	861	164.0	-151801.0	-2399.0	-80783.0
25	16	53	44	862	165.0	-158064.0	-2391.0	-80659.0
25	16	53	44	862	166.0	-165807.0	-2386.0	-80534.0
25	16	53	44	863	167.0	-174647.0	-2389.0	-80866.0
25	16	53	44	864	168.0	-184249.0	-2410.0	-80812.0
25	16	53	44	894	169.0	-194255.0	-2431.0	-81165.0
25	16	53	44	895	170.0	-204047.0	-2412.0	-81686.0
25	16	53	44	896	171.0	-213457.0	-2427.0	-81534.0
25	16	53	44	906	172.0	-222413.0	-2447.0	-81949.0
25	16	53	44	907	173.0	-230436.0	-2474.0	-81392.0
25	16	53	44	908	174.0	-237283.0	-2478.0	-81071.0
25	16	53	44	908	175.0	-242946.0	-2472.0	-81315.0
25	16	53	44	909	176.0	-247316.0	-2494.0	-81766.0
25	16	53	44	909	177.0	-250267.0	-2500.0	-82063.0
25	16	53	44	910	178.0	-251892.0	-2522.0	-83534.0
25	16	53	44	910	179.0	-252060.0	-2532.0	-87174.0
25	16	53	44	911	180.0	-251187.0	-2563.0	-91478.0
25	16	53	44	911	181.0	-249014.0	-2581.0	-95819.0
25	16	53	44	912	182.0	-245374.0	-2593.0	-97837.0
25	16	53	44	913	183.0	-240943.0	-2624.0	-97211.0
25	16	53	44	913	185.0	-230332.0	-2663.0	-93566.0
25	16	53	44	914	186.0	-224254.0	-2684.0	-92206.0
25	16	53	44	914	187.0	-217772.0	-2697.0	-88836.0
25	16	53	44	915	188.0	-211128.0	-2714.0	-86616.0
25	16	53	44	915	189.0	-204331.0	-2723.0	-85029.0
25	16	53	44	916	190.0	-197719.0	-2760.0	-84511.0
25	16	53	44	939	191.0	-191646.0	-2777.0	-81030.0
25	16	53	44	940	192.0	-186607.0	-2796.0	-77745.0
25	16	53	44	941	193.0	-182656.0	-2810.0	-75667.0
25	16	53	44	941	194.0	-179889.0	-2822.0	-74327.0
25	16	53	44	942	195.0	-178122.0	-2848.0	-73031.0
25	16	53	44	943	196.0	-177946.0	-2867.0	-71549.0
25	16	53	44	943	197.0	-180301.0	-2865.0	-70738.0
25	16	53	44	944	198.0	-185081.0	-2862.0	-70746.0
25	16	53	44	945	199.0	-192305.0	-2889.0	-71979.0
25	16	53	44	945	200.0	-201930.0	-2894.0	-73422.0
25	16	53	44	946	201.0	-213619.0	-2912.0	-74362.0
25	16	53	44	946	202.0	-225126.0	-2939.0	-75615.0
25	16	53	44	947	203.0	-234437.0	-2936.0	-77066.0
25	16	53	44	948	204.0	-238672.0	-2921.0	-78626.0
25	16	53	44	949	205.0	-237618.0	-2912.0	-80294.0
25	16	53	44	949	207.0	-226820.0	-2934.0	-83083.0
25	16	53	44	950	208.0	-219351.0	-2927.0	-84987.0
25	16	53	44	951	209.0	-212649.0	-2940.0	-86117.0
25	16	53	44	951	210.0	-206381.0	-2936.0	-86326.0
25	16	53	44	952	211.0	-201321.0	-2940.0	-86791.0
25	16	53	44	952	212.0	-199002.0	-2952.0	-86711.0
25	16	53	44	953	213.0	-199239.0	-2960.0	-85522.0
25	16	53	44	984	214.0	-201529.0	-2964.0	-85166.0
25	16	53	44	985	215.0	-207205.0	-2995.0	-85099.0
25	16	53	44	985	216.0	-215634.0	-3016.0	-85029.0
25	16	53	44	986	217.0	-225692.0	-3039.0	-84818.0
25	16	53	44	987	218.0	-237797.0	-3056.0	-85223.0
25	16	53	44	987	219.0	-247047.0	-3077.0	-85709.0
25	16	53	44	988	220.0	-249419.0	-3096.0	-86200.0
25	16	53	44	988	221.0	-243084.0	-3114.0	-85985.0
25	16	53	44	989	222.0	-226641.0	-3121.0	-85601.0
25	16	53	44	990	223.0	-201609.0	-3127.0	-85512.0
25	16	53	44	990	224.0	-170707.0	-3134.0	-85581.0
25	16	53	44	991	225.0	-140442.0	-3155.0	-85510.0
25	16	53	44	991	226.0	-117171.0	-3149.0	-85524.0
25	16	53	44	992	227.0	-104205.0	-3150.0	-85844.0
25	16	53	44	993	228.0	-101182.0	-3162.0	-85724.0
25	16	53	44	993	230.0	-110254.0	-3137.0	-86892.0
25	16	53	44	994	231.0	-119314.0	-3137.0	-87369.0
25	16	53	44	994	232.0	-133812.0	-3147.0	-86666.0
25	16	53	44	995	233.0	-154559.0	-3158.0	-85598.0
25	16	53	44	996	234.0	-179505.0	-3137.0	-85281.0
25	16	53	44	996	235.0	-204519.0	-3113.0	-85315.0
25	16	53	45	29	236.0	-224972.0	-3103.0	-85466.0
25	16	53	45	30	237.0	-239180.0	-3107.0	-85266.0
25	16	53	45	30	238.0	-248032.0	-3077.0	-85697.0
25	16	53	45	31	239.0	-252204.0	-3079.0	-85964.0
25	16	53	45	32	240.0	-251841.0	-3064.0	-86527.0
25	16	53	45	32	241.0	-246735.0	-3060.0	-86598.0
25	16	53	45	33	242.0	-237664.0	-3053.0	-86333.0
25	16	53	45	34	243.0	-225466.0	-3050.0	-85877.0
25	16	53	45	34	244.0	-211071.0	-3023.0	-85977.0
25	16	53	45	35	245.0	-195422.0	-3012.0	-86007.0
25	16	53	45	35	246.0	-179529.0	-3004.0	-85447.0
25	16	53	45	36	247.0	-164059.0	-2992.0	-85648.0
25	16	53	45	37	248.0	-149226.0	-2992.0	-86055.0
25	16	53	45	37	249.0	-135286.0	-2969.0	-85914.0
25	16	53	45	38	250.0	-122596.0	-2951.0	-86012.0
25	16	53	45	39	252.0	-104792.0	-2953.0	-86301.0
25	16	53	45	39	253.0	-100495.0	-2956.0	-85641.0
25	16	53	45	40	254.0	-99476.0	-2959.0	-85378.0
25	16	53	45	41	255.0	-101646.0	-2959.0	-85747.0
25	16	53	45	41	0.0	-106760.0	-2946.0	-86072.0
25	16	53	45	42	1.0	-115181.0	-2946.0	-86036.0
25	16	53	45	75	2.0	-126712.0	-2931.0	-86717.0
25	16	53	45	76	3.0	-140561.0	-2922.0	-86805.0
25	16	53	45	76	4.0	-156309.0	-2928.0	-87147.0
25	16	53	45	77	5.0	-173226.0	-2932.0	-87571.0
25	16	53	45	77	6.0	-190286.0	-2929.0	-87320.0
25	16	53	45	78	7.0	-206846.0	-2966.0	-86764.0
25	16	53	45	79	8.0	-222516.0	-2969.0	-87144.0
25	16	53	45	79	9.0	-236521.0	-2968.0	-87879.0
25	16	53	45	80	10.0	-248099.0	-2978.0	-88072.0
25	16	53	45	81	11.0	-256827.0	-3006.0	-88074.0
25	16	53	45	81	12.0	-262960.0	-3037.0	-88829.0
25	16	53	45	82	13.0	-266706.0	-3046.0	-88745.0
25	16	53	45	83	14.0	-268436.0	-3036.0	-89100.0
25	16	53	45	83	15.0	-267699.0	-3048.0	-89757.0
25	16	53	45	84	16.0	-264806.0	-3075.0	-89642.0
25	16	53	45	85	18.0	-252559.0	-3109.0	-89211.0
25	16	53	45	85	19.0	-243866.0	-3129.0	-89718.0
25	16	53	45	86	20.0	-233897.0	-3125.0	-90074.0
25	16	53	45	86	21.0	-223406.0	-3114.0	-90237.0
25	16	53	45	87	22.0	-212714.0	-3136.0	-90359.0
25	16	53	45	87	23.0	-201658.0	-3112.0	-90692.0
25	16	53	45	88	24.0	-190750.0	-3105.0	-91242.0
25	16	53	45	120	25.0	-180764.0	-3112.0	-91415.0
25	16	53	45	121	26.0	-171980.0	-3136.0	-91408.0
25	16	53	45	121	27.0	-164392.0	-3130.0	-91169.0
25	16	53	45	122	28.0	-158348.0	-3132.0	-91386.0
25	16	53	45	123	29.0	-153555.0	-3137.0	-91337.0
25	16	53	45	123	30.0	-149912.0	-3129.0	-91888.0
25	16	53	45	124	31.0	-147697.0	-3108.0	-92151.0
25	16	53	45	125	32.0	-147334.0	-3102.0	-92861.0
25	16	53	45	125	33.0	-148616.0	-3073.0	-92989.0
25	16	53	45	126	34.0	-150816.0	-3046.0	-93378.0
25	16	53	45	126	35.0	-153386.0	-3019.0	-93353.0
25	16	53	45	127	36.0	-156449.0	-2998.0	-93026.0
25	16	53	45	128	37.0	-160406.0	-2966.0	-92789.0
25	16	53	45	128	38.0	-165038.0	-2964.0	-93166.0
25	16	53	45	129	39.0	-169871.0	-2947.0	-93734.0
25	16	53	45	129	41.0	-179631.0	-2906.0	-93520.0
25	16	53	45	130	42.0	-184812.0	-2899.0	-93881.0
25	16	53	45	131	43.0	-190476.0	-2856.0	-94574.0
25	16	53	45	131	44.0	-196419.0	-2807.0	-94751.0
25	16	53	45	132	45.0	-202649.0	-2782.0	-94686.0
25	16	53	45	132	46.0	-209481.0	-2738.0	-94839.0
25	16	53	45	165	47.0	-216274.0	-2686.0	-94754.0
25	16	53	45	165	48.0	-222233.0	-2614.0	-94240.0
25	16	53	45	166	49.0	-227749.0	-2562.0	-94784.0
25	16	53	45	167	50.0	-232342.0	-2529.0	-94612.0
25	16	53	45	167	51.0	-235971.0	-2490.0	-94833.0
25	16	53	45	168	52.0	-238399.0	-2458.0	-95011.0
25	16	53	45	169	53.0	-239677.0	-2416.0	-95421.0
25	16	53	45	169	54.0	-240208.0	-2382.0	-94972.0
25	16	53	45	170	55.0	-240423.0	-2339.0	-94431.0
25	16	53	45	170	56.0	-240585.0	-2292.0	-94409.0
25	16	53	45	171	57.0	-240142.0	-2226.0	-93866.0
25	16	53	45	172	58.0	-238766.0	-2191.0	-93255.0
25	16	53	45	172	59.0	-236186.0	-2166.0	-92854.0
25	16	53	45	173	60.0	-232685.0	-2111.0	-92118.0
25	16	53	45	173	61.0	-228049.0	-2062.0	-91984.0
25	16	53	45	174	63.0	-216994.0	-1979.0	-91691.0
25	16	53	45	175	64.0	-211214.0	-1931.0	-91109.0
25	16	53	45	175	65.0	-205218.0	-1881.0	-90609.0
25	16	53	45	176	66.0	-199582.0	-1821.0	-89441.0
25	16	53	45	176	67.0	-194597.0	-1739.0	-88066.0
25	16	53	45	177	68.0	-190112.0	-1669.0	-87162.0
25	16	53	45	178	69.0	-186000.0	-1622.0	-86797.0
25	16	53	45	255	70.0	-182366.0	-1550.0	-86003.0
25	16	53	45	256	71.0	-179467.0	-1496.0	-85377.0
25	16	53	45	257	72.0	-177248.0	-1434.0	-84922.0
25	16	53	45	258	73.0	-175841.0	-1372.0	-84385.0
25	16	53	45	258	74.0	-174716.0	-1307.0	-83651.0
25	16	53	45	259	75.0	-173803.0	-1263.0	-82949.0
25	16	53	45	260	76.0	-173231.0	-1201.0	-82615.0
25	16	53	45	260	77.0	-172723.0	-1112.0	-81872.0
25	16	53	45	261	78.0	-172291.0	-1060.0	-81483.0
25	16	53	45	261	79.0	-172370.0	-1004.0	-80979.0
25	16	53	45	262	80.0	-172844.0	-928.0	-80014.0
25	16	53	45	263	81.0	-173928.0	-857.0	-79794.0
25	16	53	45	264	82.0	-175891.0	-797.0	-79839.0
25	16	53	45	265	83.0	-178440.0	-740.0	-79857.0
25	16	53	45	265	84.0	-181987.0	-683.0	-78876.0
25	16	53	45	266	108.0	-287878.0	180.0	-75668.0
25	16	53	45	267	109.0	-279675.0	192.0	-75569.0
25	16	53	45	267	110.0	-269572.0	206.0	-75867.0
25	16	53	45	268	111.0	-257007.0	241.0	-76180.0
25	16	53	45	269	112.0	-243047.0	277.0	-76279.0
25	16	53	45	270	113.0	-229783.0	298.0	-76796.0
25	16	53	45	270	114.0	-218444.0	339.0	-76705.0
25	16	53	45	300	115.0	-209870.0	373.0	-76699.0
25	16	53	45	300	116.0	-203274.0	384.0	-76528.0
25	16	53	45	301	117.0	-198122.0	389.0	-76697.0
25	16	53	45	302	118.0	-194144.0	377.0	-76399.0
25	16	53	45	302	119.0	-190674.0	384.0	-76737.0
25	16	53	45	303	120.0	-187569.0	398.0	-77006.0
25	16	53	45	304	121.0	-184628.0	393.0	-77102.0
25	16	53	45	304	122.0	-181181.0	386.0	-77192.0
25	16	53	45	305	123.0	-177704.0	377.0	-77749.0
25	16	53	45	306	124.0	-174335.0	378.0	-77546.0
25	16	53	45	306	125.0	-170929.0	367.0	-77474.0
25	16	53	45	307	126.0	-167723.0	367.0	-77117.0
25	16	53	45	307	127.0	-165015.0	390.0	-76856.0
25	16	53	45	308	128.0	-162738.0	399.0	-77262.0
25	16	53	45	309	129.0	-161105.0	385.0	-77438.0
25	16	53	45	309	131.0	-159898.0	354.0	-78006.0
25	16	53	45	310	132.0	-159986.0	328.0	-77887.0
25	16	53	45	311	133.0	-161278.0	322.0	-78104.0
25	16	53	45	311	134.0	-163786.0	290.0	-78115.0
25	16	53	45	312	135.0	-166844.0	268.0	-77586.0
25	16	53	45	312	136.0	-170050.0	265.0	-77404.0
25	16	53	45	345	137.0	-173069.0	241.0	-77627.0
25	16	53	45	346	138.0	-175604.0	224.0	-77091.0
25	16	53	45	347	139.0	-177571.0	216.0	-77431.0
25	16	53	45	347	140.0	-178833.0	181.0	-77762.0
25	16	53	45	348	141.0	-179921.0	159.0	-77793.0
25	16	53	45	349	142.0	-181097.0	141.0	-77426.0
25	16	53	45	349	143.0	-182491.0	118.0	-77868.0
25	16	53	45	350	144.0	-184856.0	90.0	-77913.0
25	16	53	45	351	145.0	-188088.0	63.0	-77393.0
25	16	53	45	351	146.0	-192153.0	54.0	-76713.0
25	16	53	45	353	147.0	-196824.0	54.0	-76279.0
25	16	53	45	353	148.0	-201637.0	43.0	-75562.0
25	16	53	45	354	149.0	-207092.0	39.0	-75143.0
25	16	53	45	354	150.0	-213094.0	-4.0	-75275.0
25	16	53	45	355	151.0	-219748.0	-20.0	-75827.0
25	16	53	45	356	153.0	-231933.0	-44.0	-75541.0
25	16	53	45	356	154.0	-237922.0	-71.0	-75634.0
25	16	53	45	357	155.0	-243776.0	-86.0	-75622.0
25	16	53	45	357	156.0	-249219.0	-76.0	-75152.0
25	16	53	45	358	157.0	-253969.0	-71.0	-74773.0
25	16	53	45	359	158.0	-257731.0	-71.0	-75020.0
25	16	53	45	359	159.0	-260949.0	-76.0	-74797.0
25	16	53	45	390	160.0	-264033.0	-111.0	-74644.0
25	16	53	45	391	161.0	-266532.0	-113.0	-74715.0
25	16	53	45	391	162.0	-268324.0	-137.0	-74753.0
25	16	53	45	392	163.0	-269483.0	-171.0	-75192.0
25	16	53	45	393	164.0	-270262.0	-181.0	-75269.0
25	16	53	45	393	165.0	-270866.0	-214.0	-75344.0
25	16	53	45	394	166.0	-270328.0	-229.0	-74698.0
25	16	53	45	394	167.0	-268460.0	-236.0	-74661.0
25	16	53	45	395	168.0	-265839.0	-271.0	-74729.0
25	16	53	45	396	169.0	-262004.0	-289.0	-74479.0
25	16	53	45	396	170.0	-257357.0	-289.0	-74411.0
25	16	53	45	397	171.0	-252079.0	-304.0	-74947.0
25	16	53	45	398	172.0	-245909.0	-317.0	-75116.0
25	16	53	45	398	173.0	-238519.0	-327.0	-75084.0
25	16	53	45	399	174.0	-229926.0	-307.0	-75052.0
25	16	53	45	400	176.0	-210781.0	-320.0	-75010.0
25	16	53	45	400	177.0	-200521.0	-319.0	-75348.0
25	16	53	45	401	178.0	-190294.0	-339.0	-75482.0
25	16	53	45	401	179.0	-180549.0	-346.0	-75166.0
25	16	53	45	402	180.0	-171319.0	-359.0	-75386.0
25	16	53	45	403	181.0	-162495.0	-384.0	-75633.0
25	16	53	45	435	182.0	-154602.0	-394.0	-75450.0
25	16	53	45	436	183.0	-147571.0	-396.0	-75442.0
25	16	53	45	437	184.0	-141259.0	-436.0	-75719.0
25	16	53	45	437	185.0	-136368.0	-474.0	-75179.0
25	16	53	45	438	186.0	-132879.0	-508.0	-74889.0
25	16	53	45	439	187.0	-130887.0	-554.0	-74881.0
25	16	53	45	439	188.0	-129956.0	-584.0	-74737.0
25	16	53	45	440	189.0	-130192.0	-628.0	-74618.0
25	16	53	45	441	190.0	-131692.0	-655.0	-74869.0
25	16	53	45	441	191.0	-134406.0	-684.0	-75357.0
25	16	53	45	442	192.0	-138149.0	-728.0	-74960.0
25	16	53	45	443	193.0	-143305.0	-781.0	-75382.0
25	16	53	45	443	194.0	-149699.0	-806.0	-75598.0
25	16	53	45	444	195.0	-157097.0	-807.0	-74925.0
25	16	53	45	445	196.0	-165630.0	-817.0	-74306.0
25	16	53	45	445	198.0	-185126.0	-864.0	-74402.0
25	16	53	45	446	199.0	-196412.0	-886.0	-74187.0
25	16	53	45	446	200.0	-208143.0	-932.0	-74417.0
25	16	53	45	447	201.0	-220027.0	-970.0	-74920.0
25	16	53	45	447	202.0	-231775.0	-1007.0	-75251.0
25	16	53	45	448	203.0	-243161.0	-1037.0	-75209.0
25	16	53	45	479	204.0	-253699.0	-1050.0	-75136.0
25	16	53	45	480	205.0	-262807.0	-1069.0	-75058.0
25	16	53	45	481	206.0	-270487.0	-1094.0	-74302.0
25	16	53	45	482	207.0	-276241.0	-1129.0	-73896.0
25	16	53	45	482	208.0	-279803.0	-1166.0	-74061.0
25	16	53	45	483	209.0	-281121.0	-1177.0	-74499.0
25	16	53	45	484	210.0	-280346.0	-1194.0	-74782.0
25	16	53	45	484	211.0	-278177.0	-1214.0	-75029.0
25	16	53	45	485	212.0	-274563.0	-1232.0	-75415.0
25	16	53	45	486	213.0	-269209.0	-1258.0	-75156.0
25	16	53	45	486	214.0	-262121.0	-1294.0	-74749.0
25	16	53	45	487	215.0	-254434.0	-1327.0	-74741.0
25	16	53	45	488	216.0	-246706.0	-1357.0	-74618.0
25	16	53	45	488	217.0	-238761.0	-1364.0	-74432.0
25	16	53	45	489	218.0	-230718.0	-1389.0	-74516.0
25	16	53	45	490	220.0	-214234.0	-1462.0	-74683.0
25	16	53	45	490	221.0	-206433.0	-1487.0	-74374.0
25	16	53	45	491	222.0	-198724.0	-1529.0	-74423.0
25	16	53	45	491	223.0	-191467.0	-1559.0	-75115.0
25	16	53	45	492	224.0	-184729.0	-1593.0	-75061.0
25	16	53	45	493	225.0	-178902.0	-1605.0	-74507.0
25	16	53	45	493	226.0	-173606.0	-1607.0	-74107.0
25	16	53	45	524	227.0	-168812.0	-1616.0	-74153.0
25	16	53	45	526	228.0	-165175.0	-1628.0	-74994.0
25	16	53	45	526	229.0	-162374.0	-1631.0	-75106.0
25	16	53	45	527	230.0	-161072.0	-1613.0	-75480.0
25	16	53	45	528	231.0	-161177.0	-1602.0	-75282.0
25	16	53	45	528	232.0	-162529.0	-1607.0	-76098.0
25	16	53	45	529	233.0	-165429.0	-1611.0	-76220.0
25	16	53	45	530	234.0	-170026.0	-1633.0	-75587.0
25	16	53	45	530	235.0	-175531.0	-1641.0	-75521.0
25	16	53	45	531	236.0	-182249.0	-1651.0	-75056.0
25	16	53	45	532	237.0	-189769.0	-1680.0	-75329.0
25	16	53	45	532	238.0	-196847.0	-1727.0	-75813.0
25	16	53	45	533	239.0	-203775.0	-1749.0	-76055.0
25	16	53	45	534	240.0	-209921.0	-1758.0	-76276.0
25	16	53	45	534	241.0	-214804.0	-1789.0	-76467.0
25	16	53	45	535	243.0	-221364.0	-1829.0	-77462.0
25	16	53	45	535	244.0	-223427.0	-1864.0	-77800.0
25	16	53	45	536	245.0	-225199.0	-1886.0	-77627.0
25	16	53	45	537	246.0	-226011.0	-1869.0	-76956.0
25	16	53	45	537	247.0	-225782.0	-1861.0	-76964.0
25	16	53	45	538	248.0	-224964.0	-1875.0	-77441.0
25	16	53	45	570	249.0	-223259.0	-1887.0	-77577.0
25	16	53	45	570	250.0	-220481.0	-1884.0	-77614.0
25	16	53	45	571	251.0	-217102.0	-1886.0	-77477.0
25	16	53	45	572	252.0	-213372.0	-1906.0	-78058.0
25	16	53	45	573	253.0	-209526.0	-1916.0	-78532.0
25	16	53	45	573	254.0	-205965.0	-1957.0	-77512.0
25	16	53	45	574	255.0	-202866.0	-1979.0	-76677.0
25	16	53	45	575	0.0	-200547.0	-2009.0	-76599.0
25	16	53	45	575	1.0	-198840.0	-2051.0	-76433.0
25	16	53	45	576	2.0	-197259.0	-2077.0	-76246.0
25	16	53	45	576	3.0	-196192.0	-2099.0	-76871.0
25	16	53	45	577	4.0	-195912.0	-2132.0	-77174.0
25	16	53	45	578	5.0	-195643.0	-2171.0	-76741.0
25	16	53	45	578	6.0	-194429.0	-2192.0	-76665.0
25	16	53	45	579	7.0	-192798.0	-2216.0	-76157.0
25	16	53	45	580	9.0	-188404.0	-2274.0	-75152.0
25	16	53	45	580	10.0	-186296.0	-2297.0	-75040.0
25	16	53	45	581	11.0	-184122.0	-2312.0	-74907.0
25	16	53	45	582	12.0	-182847.0	-2341.0	-74896.0
25	16	53	45	582	13.0	-182516.0	-2351.0	-74857.0
25	16	53	45	583	14.0	-182340.0	-2377.0	-75062.0
25	16	53	45	583	15.0	-182601.0	-2397.0	-74940.0
25	16	53	45	614	16.0	-182793.0	-2411.0	-75216.0
25	16	53	45	615	17.0	-182562.0	-2420.0	-75679.0
25	16	53	45	615	18.0	-182398.0	-2439.0	-75655.0
25	16	53	45	616	19.0	-182382.0	-2459.0	-75310.0
25	16	53	45	617	20.0	-181900.0	-2487.0	-74995.0
25	16	53	45	618	21.0	-181135.0	-2509.0	-75177.0
25	16	53	45	618	22.0	-179927.0	-2503.0	-75494.0
25	16	53	45	619	23.0	-177221.0	-2492.0	-75184.0
25	16	53	45	620	24.0	-174126.0	-2502.0	-75497.0
25	16	53	45	620	25.0	-170612.0	-2528.0	-75275.0
25	16	53	45	621	26.0	-166504.0	-2560.0	-76157.0
25	16	53	45	622	27.0	-163013.0	-2578.0	-76339.0
25	16	53	45	622	28.0	-159877.0	-2625.0	-76671.0
25	16	53	45	623	29.0	-157802.0	-2637.0	-76239.0
25	16	53	45	624	30.0	-156718.0	-2652.0	-76037.0
25	16	53	45	624	32.0	-154391.0	-2712.0	-76512.0
25	16	53	45	625	33.0	-154541.0	-2739.0	-76568.0
25	16	53	45	626	34.0	-155210.0	-2742.0	-77456.0
25	16	53	45	626	35.0	-155486.0	-2767.0	-77736.0
25	16	53	45	627	36.0	-156912.0	-2811.0	-78356.0
25	16	53	45	627	37.0	-159145.0	-2807.0	-78686.0
25	16	53	45	659	38.0	-161521.0	-2804.0	-78428.0
25	16	53	45	659	39.0	-165339.0	-2801.0	-78031.0
25	16	53	45	660	40.0	-169907.0	-2791.0	-77904.0
25	16	53	45	661	41.0	-174807.0	-2774.0	-78081.0
25	16	53	45	662	42.0	-180736.0	-2799.0	-78317.0
25	16	53	45	662	43.0	-187752.0	-2806.0	-78787.0
25	16	53	45	663	44.0	-195634.0	-2778.0	-79530.0
25	16	53	45	663	45.0	-204531.0	-2766.0	-80021.0
25	16	53	45	664	46.0	-213467.0	-2771.0	-81542.0
25	16	53	45	665	47.0	-222154.0	-2786.0	-84104.0
25	16	53	45	665	48.0	-230899.0	-2776.0	-87329.0
25	16	53	45	666	49.0	-238669.0	-2772.0	-90629.0
25	16	53	45	667	50.0	-245764.0	-2798.0	-94182.0
25	16	53	45	667	51.0	-252102.0	-2821.0	-95211.0
25	16	53	45	668	52.0	-257553.0	-2836.0	-94018.0
25	16	53	45	668	54.0	-265262.0	-2879.0	-94871.0
25	16	53	45	669	55.0	-267807.0	-2889.0	-92439.0
25	16	53	45	670	56.0	-270144.0	-2902.0	-90451.0
25	16	53	45	671	57.0	-271041.0	-2911.0	-88807.0
25	16	53	45	671	58.0	-270585.0	-2909.0	-87135.0
25	16	53	45	672	59.0	-269087.0	-2937.0	-82678.0
25	16	53	45	673	60.0	-266917.0	-2934.0	-79719.0
25	16	53	45	704	61.0	-264324.0	-2967.0	-78156.0
25	16	53	45	705	62.0	-260351.0	-2988.0	-75364.0
25	16	53	45	705	63.0	-255844.0	-3004.0	-72535.0
25	16	53	45	706	64.0	-250660.0	-3015.0	-71627.0
25	16	53	45	706	65.0	-245214.0	-3021.0	-71042.0
25	16	53	45	707	66.0	-239476.0	-3036.0	-71164.0
25	16	53	45	708	67.0	-234116.0	-3062.0	-72369.0
25	16	53	45	708	68.0	-229440.0	-3072.0	-74267.0
25	16	53	45	709	69.0	-226969.0	-3115.0	-74611.0
25	16	53	45	709	70.0	-226530.0	-3159.0	-74839.0
25	16	53	45	710	71.0	-227474.0	-3208.0	-75410.0
25	16	53	45	711	72.0	-228202.0	-3223.0	-76766.0
25	16	53	45	711	73.0	-227122.0	-3258.0	-78987.0
25	16	53	45	712	74.0	-223144.0	-3281.0	-81079.0
25	16	53	45	713	75.0	-217287.0	-3307.0	-82126.0
25	16	53	45	713	77.0	-199616.0	-3358.0	-84544.0
25	16	53	45	714	78.0	-188176.0	-3396.0	-85127.0
25	16	53	45	714	79.0	-174123.0	-3389.0	-84541.0
25	16	53	45	715	80.0	-158121.0	-3418.0	-84420.0
25	16	53	45	716	81.0	-142082.0	-3452.0	-84225.0
25	16	53	45	716	82.0	-129351.0	-3472.0	-83930.0
25	16	53	45	749	83.0	-124977.0	-3506.0	-83499.0
25	16	53	45	750	84.0	-130559.0	-3539.0	-84107.0
25	16	53	45	750	85.0	-145172.0	-3558.0	-84259.0
25	16	53	45	751	86.0	-166843.0	-3574.0	-84750.0
25	16	53	45	751	87.0	-189390.0	-3602.0	-84896.0
25	16	53	45	752	88.0	-206180.0	-3612.0	-84762.0
25	16	53	45	753	89.0	-213496.0	-3626.0	-83994.0
25	16	53	45	753	90.0	-209644.0	-3652.0	-83677.0
25	16	53	45	754	91.0	-196841.0	-3680.0	-83807.0
25	16	53	45	754	92.0	-180498.0	-3700.0	-83470.0
25	16	53	45	755	93.0	-166241.0	-3719.0	-83576.0
25	16	53	45	755	94.0	-155924.0	-3742.0	-84321.0
25	16	53	45	756	95.0	-149491.0	-3769.0	-84969.0
25	16	53	45	756	96.0	-148283.0	-3810.0	-84989.0
25	16	53	45	757	97.0	-151661.0	-3846.0	-85066.0
25	16	53	45	758	99.0	-174434.0	-3929.0	-84419.0
25	16	53	45	758	100.0	-196561.0	-3994.0	-83955.0
25	16	53	45	759	101.0	-225126.0	-4024.0	-84011.0
25	16	53	45	759	102.0	-256676.0	-4062.0	-84151.0
25	16	53	45	760	103.0	-286880.0	-4102.0	-84128.0
25	16	53	45	761	104.0	-310611.0	-4146.0	-84482.0
25	16	53	45	795	105.0	-325721.0	-4173.0	-85012.0
25	16	53	45	796	106.0	-331841.0	-4197.0	-84874.0
25	16	53	45	796	107.0	-329970.0	-4237.0	-84788.0
25	16	53	45	797	108.0	-321311.0	-4281.0	-85101.0
25	16	53	45	798	109.0	-306704.0	-4302.0	-85246.0
25	16	53	45	798	110.0	-286971.0	-4324.0	-84364.0
25	16	53	45	799	111.0	-262064.0	-4352.0	-83644.0
25	16	53	45	799	112.0	-233266.0	-4389.0	-83612.0
25	16	53	45	800	113.0	-202442.0	-4406.0	-83891.0
25	16	53	45	800	114.0	-170792.0	-4429.0	-83714.0
25	16	53	45	801	115.0	-139925.0	-4437.0	-83976.0
25	16	53	45	802	116.0	-111006.0	-4436.0	-83941.0
25	16	53	45	802	117.0	-85084.0	-4450.0	-84201.0
25	16	53	45	803	118.0	-63336.0	-4466.0	-84491.0
25	16	53	45	803	119.0	-45286.0	-4474.0	-84742.0
25	16	53	45	804	122.0	-18796.0	-4547.0	-83955.0
25	16	53	45	804	123.0	-19179.0	-4564.0	-83997.0
25	16	53	45	805	124.0	-24178.0	-4591.0	-84429.0
25	16	53	45	806	125.0	-32824.0	-4629.0	-84756.0
25	16	53	45	806	126.0	-44334.0	-4660.0	-84780.0
25	16	53	45	807	127.0	-58216.0	-4693.0	-85164.0
25	16	53	45	840	128.0	-73842.0	-4744.0	-84907.0
25	16	53	45	840	129.0	-90644.0	-4769.0	-84221.0
25	16	53	45	841	130.0	-109028.0	-4818.0	-84051.0
25	16	53	45	842	131.0	-128447.0	-4847.0	-84316.0
25	16	53	45	843	132.0	-148526.0	-4869.0	-84773.0
25	16	53	45	843	133.0	-169005.0	-4902.0	-85429.0
25	16	53	45	844	134.0	-189219.0	-4922.0	-85741.0
25	16	53	45	844	135.0	-208535.0	-4958.0	-85958.0
25	16	53	45	845	136.0	-226487.0	-5001.0	-85764.0
25	16	53	45	846	137.0	-242680.0	-5036.0	-86255.0
25	16	53	45	847	138.0	-257901.0	-5086.0	-86497.0
25	16	53	45	847	139.0	-271926.0	-5105.0	-86384.0
25	16	53	45	848	140.0	-284657.0	-5126.0	-86422.0
25	16	53	45	849	141.0	-295552.0	-5161.0	-86858.0
25	16	53	45	849	142.0	-303908.0	-5188.0	-87131.0
25	16	53	45	850	144.0	-312226.0	-5237.0	-87836.0
25	16	53	45	850	145.0	-312690.0	-5250.0	-88374.0
25	16	53	45	851	146.0	-310649.0	-5266.0	-88204.0
25	16	53	45	851	147.0	-306094.0	-5256.0	-88155.0
25	16	53	45	852	148.0	-299191.0	-5261.0	-88532.0
25	16	53	45	852	149.0	-290394.0	-5284.0	-88532.0
25	16	53	45	884	150.0	-279389.0	-5291.0	-87966.0
25	16	53	45	885	151.0	-266439.0	-5294.0	-88362.0
25	16	53	45	885	152.0	-252481.0	-5284.0	-89482.0
25	16	53	45	886	153.0	-238363.0	-5288.0	-89367.0
25	16	53	45	887	154.0	-223995.0	-5275.0	-90764.0
25	16	53	45	887	155.0	-209517.0	-5262.0	-91733.0
25	16	53	45	888	156.0	-196424.0	-5216.0	-90350.0
25	16	53	45	888	157.0	-185159.0	-5182.0	-90169.0
25	16	53	45	889	158.0	-176588.0	-5156.0	-90084.0
25	16	53	45	889	159.0	-170807.0	-5101.0	-90354.0
25	16	53	45	890	160.0	-166536.0	-5037.0	-89559.0
25	16	53	45	891	161.0	-163154.0	-5018.0	-89904.0
25	16	53	45	891	162.0	-160902.0	-4966.0	-90409.0
25	16	53	45	892	163.0	-160222.0	-4928.0	-90479.0
25	16	53	45	892	164.0	-161118.0	-4907.0	-90537.0
25	16	53	45	893	166.0	-163541.0	-4832.0	-91399.0
25	16	53	45	894	167.0	-164818.0	-4781.0	-90999.0
25	16	53	45	894	168.0	-166314.0	-4728.0	-90113.0
25	16	53	45	895	169.0	-167487.0	-4659.0	-89718.0
25	16	53	45	895	170.0	-169064.0	-4584.0	-89644.0
25	16	53	45	896	171.0	-171692.0	-4527.0	-89748.0
25	16	53	45	897	172.0	-174731.0	-4473.0	-89877.0
25	16	53	45	929	173.0	-177580.0	-4392.0	-89881.0
25	16	53	45	930	174.0	-181269.0	-4348.0	-89749.0
25	16	53	45	930	175.0	-185528.0	-4287.0	-90591.0
25	16	53	45	931	176.0	-190733.0	-4220.0	-90487.0
25	16	53	45	931	177.0	-196957.0	-4178.0	-90469.0
25	16	53	45	932	178.0	-203430.0	-4130.0	-90028.0
25	16	53	45	933	179.0	-210235.0	-4074.0	-89062.0
25	16	53	45	933	180.0	-216747.0	-4014.0	-88662.0
25	16	53	45	934	181.0	-222705.0	-3954.0	-88963.0
25	16	53	45	935	182.0	-228988.0	-3892.0	-89034.0
25	16	53	45	935	183.0	-234947.0	-3846.0	-88504.0
25	16	53	45	936	184.0	-239860.0	-3791.0	-88927.0
25	16	53	45	937	185.0	-243538.0	-3731.0	-89250.0
25	16	53	45	937	186.0	-246236.0	-3682.0	-88712.0
25	16	53	45	938	187.0	-248761.0	-3637.0	-87935.0
25	16	53	45	938	189.0	-250406.0	-3492.0	-86530.0
25	16	53	45	939	190.0	-251076.0	-3421.0	-85439.0
25	16	53	45	939	191.0	-251242.0	-3326.0	-84542.0
25	16	53	45	940	192.0	-250837.0	-3228.0	-83564.0
25	16	53	45	941	193.0	-250030.0	-3159.0	-83474.0
25	16	53	45	941	194.0	-248501.0	-3101.0	-83162.0
25	16	53	45	974	195.0	-246179.0	-3017.0	-82603.0
25	16	53	45	975	196.0	-243604.0	-2932.0	-82150.0
25	16	53	45	976	197.0	-239873.0	-2855.0	-81841.0
25	16	53	45	976	198.0	-236179.0	-2779.0	-80717.0
25	16	53	45	977	199.0	-232817.0	-2716.0	-79121.0
25	16	53	45	978	200.0	-229241.0	-2666.0	-78876.0
25	16	53	45	978	201.0	-225911.0	-2585.0	-78369.0
25	16	53	45	979	202.0	-223118.0	-2529.0	-78809.0
25	16	53	45	979	203.0	-219876.0	-2472.0	-78637.0
25	16	53	45	980	204.0	-216164.0	-2439.0	-78053.0
25	16	53	45	980	205.0	-212152.0	-2389.0	-77448.0
25	16	53	45	981	206.0	-207481.0	-2339.0	-77305.0
25	16	53	45	982	207.0	-202447.0	-2306.0	-77022.0
25	16	53	45	982	208.0	-197531.0	-2266.0	-75969.0
25	16	53	45	983	209.0	-192530.0	-2199.0	-75437.0
25	16	53	45	983	211.0	-179979.0	-2116.0	-75350.0
25	16	53	45	984	212.0	-173029.0	-2058.0	-73649.0
25	16	53	45	984	213.0	-165419.0	-2021.0	-73889.0
25	16	53	45	985	214.0	-157494.0	-1993.0	-74973.0
25	16	53	45	986	215.0	-148572.0	-1951.0	-74821.0
25	16	53	45	986	216.0	-139327.0	-1896.0	-74387.0
25	16	53	45	987	217.0	-130149.0	-1856.0	-74268.0
25	16	53	46	20	218.0	-117147.0	-1833.0	-73891.0
25	16	53	46	21	219.0	-104195.0	-1796.0	-73160.0
25	16	53	46	22	220.0	-94972.0	-1753.0	-73272.0
25	16	53	46	22	221.0	-86542.0	-1699.0	-73289.0
25	16	53	46	23	222.0	-87005.0	-1679.0	-73118.0
25	16	53	46	23	223.0	-95794.0	-1660.0	-72999.0
25	16	53	46	24	224.0	-103914.0	-1622.0	-72717.0
25	16	53	46	25	225.0	-115861.0	-1598.0	-73291.0
25	16	53	46	25	226.0	-133084.0	-1572.0	-72787.0
25	16	53	46	26	227.0	-151455.0	-1561.0	-72866.0
25	16	53	46	26	228.0	-169817.0	-1561.0	-72506.0
25	16	53	46	27	229.0	-189604.0	-1511.0	-72205.0
25	16	53	46	28	230.0	-208334.0	-1467.0	-72404.0
25	16	53	46	28	231.0	-227095.0	-1442.0	-72961.0
25	16	53	46	29	232.0	-248434.0	-1417.0	-72981.0
25	16	53	46	29	234.0	-285482.0	-1353.0	-72902.0
25	16	53	46	30	235.0	-295521.0	-1309.0	-73765.0
25	16	53	46	31	236.0	-298984.0	-1244.0	-73789.0
25	16	53	46	31	237.0	-297782.0	-1189.0	-73684.0
25	16	53	46	32	238.0	-294371.0	-1142.0	-72999.0
25	16	53	46	32	239.0	-291611.0	-1102.0	-72913.0
25	16	53	46	66	240.0	-290284.0	-1060.0	-72721.0
25	16	53	46	66	241.0	-287891.0	-1026.0	-73220.0
25	16	53	46	67	242.0	-282259.0	-991.0	-73374.0
25	16	53	46	67	243.0	-274209.0	-998.0	-73565.0
25	16	53	46	68	244.0	-264808.0	-978.0	-73506.0
25	16	53	46	69	245.0	-255236.0	-915.0	-72762.0
25	16	53	46	69	246.0	-245756.0	-881.0	-73408.0
25	16	53	46	70	247.0	-236544.0	-847.0	-73999.0
25	16	53	46	70	248.0	-227192.0	-826.0	-73775.0
25	16	53	46	71	249.0	-218652.0	-806.0	-73523.0
25	16	53	46	72	250.0	-210597.0	-767.0	-74322.0
25	16	53	46	72	251.0	-202976.0	-722.0	-74129.0
25	16	53	46	73	252.0	-195814.0	-686.0	-73622.0
25	16	53	46	73	253.0	-189372.0	-652.0	-73767.0
25	16	53	46	74	254.0	-183804.0	-594.0	-74302.0
25	16	53	46	74	0.0	-173664.0	-530.0	-74091.0
25	16	53	46	75	1.0	-169243.0	-493.0	-74082.0
25	16	53	46	75	2.0	-165071.0	-467.0	-73829.0
25	16	53	46	76	3.0	-160813.0	-429.0	-73477.0
25	16	53	46	77	4.0	-156443.0	-401.0	-73134.0
25	16	53	46	77	5.0	-152483.0	-359.0	-73241.0
25	16	53	46	78	6.0	-149681.0	-336.0	-72602.0
25	16	53	46	110	7.0	-148314.0	-321.0	-72513.0
25	16	53	46	110	8.0	-148511.0	-293.0	-72460.0
25	16	53	46	111	9.0	-150341.0	-302.0	-72166.0
25	16	53	46	112	10.0	-153892.0	-307.0	-71367.0
25	16	53	46	112	11.0	-158821.0	-321.0	-71067.0
25	16	53	46	113	12.0	-164671.0	-299.0	-71153.0
25	16	53	46	113	13.0	-171001.0	-306.0	-70554.0
25	16	53	46	114	14.0	-177592.0	-321.0	-70050.0
25	16	53	46	115	15.0	-184096.0	-311.0	-70252.0
25	16	53	46	115	16.0	-190453.0	-301.0	-70066.0
25	16	53	46	116	17.0	-196607.0	-327.0	-70067.0
25	16	53	46	116	18.0	-202006.0	-337.0	-70889.0
25	16	53	46	117	19.0	-206934.0	-324.0	-70971.0
25	16	53	46	118	20.0	-211215.0	-344.0	-70282.0
25	16	53	46	118	21.0	-214453.0	-376.0	-69346.0
25	16	53	46	119	23.0	-218855.0	-403.0	-68837.0
25	16	53	46	119	24.0	-220318.0	-429.0	-69192.0
25	16	53	46	120	25.0	-221162.0	-429.0	-69395.0
25	16	53	46	121	26.0	-221654.0	-429.0	-69591.0
25	16	53	46	121	27.0	-221868.0	-430.0	-69461.0
25	16	53	46	122	28.0	-221891.0	-417.0	-69710.0
25	16	53	46	154	29.0	-221734.0	-413.0	-69882.0
25	16	53	46	155	30.0	-220316.0	-386.0	-69640.0
25	16	53	46	155	31.0	-218062.0	-370.0	-69694.0
25	16	53	46	156	32.0	-215164.0	-359.0	-68861.0
25	16	53	46	157	33.0	-211489.0	-362.0	-68765.0
25	16	53	46	157	34.0	-207433.0	-351.0	-68918.0
25	16	53	46	158	35.0	-203201.0	-344.0	-68806.0
25	16	53	46	159	36.0	-199269.0	-338.0	-69372.0
25	16	53	46	159	37.0	-195866.0	-336.0	-68918.0
25	16	53	46	160	38.0	-192906.0	-351.0	-69095.0
25	16	53	46	161	39.0	-190128.0	-339.0	-68910.0
25	16	53	46	161	40.0	-187633.0	-328.0	-68286.0
25	16	53	46	162	41.0	-185654.0	-336.0	-67956.0
25	16	53	46	162	42.0	-184175.0	-338.0	-67715.0
25	16	53	46	163	43.0	-183229.0	-347.0	-67913.0
25	16	53	46	164	45.0	-183280.0	-378.0	-67829.0
25	16	53	46	164	46.0	-184037.0	-379.0	-68299.0
25	16	53	46	165	47.0	-184746.0	-390.0	-68150.0
25	16	53	46	165	48.0	-185313.0	-394.0	-68472.0
25	16	53	46	166	49.0	-185456.0	-410.0	-68614.0
25	16	53	46	167	50.0	-184951.0	-429.0	-68208.0
25	16	53	46	198	51.0	-184216.0	-417.0	-67927.0
25	16	53	46	199	52.0	-183537.0	-405.0	-67912.0
25	16	53	46	214	53.0	-182144.0	-419.0	-68003.0
25	16	53	46	215	54.0	-180464.0	-427.0	-68302.0
25	16	53	46	215	55.0	-179023.0	-436.0	-67966.0
25	16	53	46	216	56.0	-177704.0	-449.0	-68017.0
25	16	53	46	216	57.0	-176429.0	-454.0	-68306.0
25	16	53	46	217	58.0	-175594.0	-479.0	-68281.0
25	16	53	46	217	59.0	-175524.0	-520.0	-68272.0
25	16	53	46	218	60.0	-176411.0	-526.0	-68062.0
25	16	53	46	219	61.0	-178076.0	-519.0	-67517.0
25	16	53	46	219	62.0	-180442.0	-543.0	-66886.0
25	16	53	46	220	63.0	-183070.0	-532.0	-66444.0
25	16	53	46	220	64.0	-185754.0	-531.0	-65970.0
25	16	53	46	221	65.0	-188912.0	-530.0	-65967.0
25	16	53	46	221	67.0	-197224.0	-521.0	-66852.0
25	16	53	46	222	68.0	-201990.0	-547.0	-67574.0
25	16	53	46	223	69.0	-206717.0	-531.0	-67374.0
25	16	53	46	223	70.0	-210946.0	-511.0	-66937.0
25	16	53	46	224	71.0	-213762.0	-502.0	-66449.0
25	16	53	46	224	72.0	-214441.0	-497.0	-65916.0
25	16	53	46	225	73.0	-213412.0	-501.0	-65516.0
25	16	53	46	244	74.0	-211788.0	-487.0	-65790.0
25	16	53	46	245	75.0	-210857.0	-478.0	-65556.0
25	16	53	46	245	76.0	-210944.0	-463.0	-66670.0
25	16	53	46	246	77.0	-211797.0	-479.0	-66386.0
25	16	53	46	247	78.0	-212890.0	-471.0	-66122.0
25	16	53	46	247	79.0	-213849.0	-479.0	-65782.0
25	16	53	46	248	80.0	-214616.0	-486.0	-65443.0
25	16	53	46	249	81.0	-214739.0	-481.0	-64904.0
25	16	53	46	249	82.0	-214274.0	-483.0	-65646.0
25	16	53	46	250	83.0	-213408.0	-486.0	-65821.0
25	16	53	46	250	84.0	-211996.0	-516.0	-65805.0
25	16	53	46	251	85.0	-210004.0	-544.0	-65377.0
25	16	53	46	252	86.0	-207496.0	-571.0	-65592.0
25	16	53	46	252	87.0	-204292.0	-586.0	-65132.0
25	16	53	46	253	88.0	-200350.0	-614.0	-65312.0
25	16	53	46	254	90.0	-191228.0	-617.0	-64907.0
25	16	53	46	254	91.0	-186347.0	-661.0	-64237.0
25	16	53	46	255	92.0	-181693.0	-679.0	-64191.0
25	16	53	46	256	93.0	-177886.0	-694.0	-64100.0
25	16	53	46	256	94.0	-175107.0	-721.0	-64094.0
25	16	53	46	257	95.0	-173139.0	-743.0	-63869.0
25	16	53	46	288	96.0	-171673.0	-754.0	-64285.0
25	16	53	46	290	97.0	-170671.0	-759.0	-63809.0
25	16	53	46	291	98.0	-169727.0	-764.0	-63911.0
25	16	53	46	292	99.0	-168402.0	-759.0	-63826.0
25	16	53	46	293	100.0	-167099.0	-784.0	-64221.0
25	16	53	46	294	101.0	-165922.0	-826.0	-63790.0
25	16	53	46	294	102.0	-164964.0	-842.0	-63911.0
25	16	53	46	295	103.0	-164403.0	-836.0	-63925.0
25	16	53	46	296	104.0	-164286.0	-824.0	-63948.0
25	16	53	46	296	105.0	-165194.0	-829.0	-63680.0
25	16	53	46	297	106.0	-167290.0	-832.0	-63640.0
25	16	53	46	297	107.0	-170051.0	-840.0	-63706.0
25	16	53	46	298	108.0	-173072.0	-872.0	-63261.0
25	16	53	46	299	109.0	-176491.0	-877.0	-62877.0
25	16	53	46	299	110.0	-180104.0	-877.0	-62614.0
25	16	53	46	300	112.0	-186526.0	-926.0	-61912.0
25	16	53	46	301	113.0	-189502.0	-911.0	-62023.0
25	16	53	46	301	114.0	-191781.0	-933.0	-61987.0
25	16	53	46	302	115.0	-193774.0	-955.0	-61499.0
25	16	53	46	302	116.0	-195891.0	-956.0	-61333.0
25	16	53	46	303	117.0	-198089.0	-962.0	-61326.0
25	16	53	46	304	118.0	-199907.0	-991.0	-61843.0
25	16	53	46	335	119.0	-201159.0	-1017.0	-61375.0
25	16	53	46	336	120.0	-201706.0	-1047.0	-61156.0
25	16	53	46	337	121.0	-201096.0	-1062.0	-60474.0
25	16	53	46	337	122.0	-199200.0	-1098.0	-60289.0
25	16	53	46	338	123.0	-196137.0	-1137.0	-60907.0
25	16	53	46	339	124.0	-192389.0	-1160.0	-61092.0
25	16	53	46	339	125.0	-187781.0	-1171.0	-60729.0
25	16	53	46	340	126.0	-182498.0	-1181.0	-60601.0
25	16	53	46	341	127.0	-177225.0	-1187.0	-60889.0
25	16	53	46	341	128.0	-172803.0	-1209.0	-60804.0
25	16	53	46	342	129.0	-169233.0	-1232.0	-60302.0
25	16	53	46	342	130.0	-166421.0	-1258.0	-59956.0
25	16	53	46	343	131.0	-164584.0	-1258.0	-59833.0
25	16	53	46	344	132.0	-163877.0	-1271.0	-59756.0
25	16	53	46	344	133.0	-163854.0	-1311.0	-59840.0
25	16	53	46	345	135.0	-165312.0	-1355.0	-60024.0
25	16	53	46	346	136.0	-167709.0	-1368.0	-60254.0
25	16	53	46	347	137.0	-171374.0	-1386.0	-59681.0
25	16	53	46	347	138.0	-176632.0	-1411.0	-59812.0
25	16	53	46	348	139.0	-183866.0	-1457.0	-59761.0
25	16	53	46	349	140.0	-192465.0	-1450.0	-59979.0
25	16	53	46	379	141.0	-201452.0	-1464.0	-59966.0
25	16	53	46	380	142.0	-210470.0	-1503.0	-59574.0
25	16	53	46	381	143.0	-218992.0	-1558.0	-60360.0
25	16	53	46	381	144.0	-226444.0	-1582.0	-62434.0
25	16	53	46	382	145.0	-232506.0	-1612.0	-64199.0
25	16	53	46	383	146.0	-237104.0	-1652.0	-67790.0
25	16	53	46	383	147.0	-240168.0	-1701.0	-71879.0
25	16	53	46	384	148.0	-241317.0	-1722.0	-75357.0
25	16	53	46	384	149.0	-240945.0	-1747.0	-75341.0
25	16	53	46	385	150.0	-239342.0	-1792.0	-74001.0
25	16	53	46	386	151.0	-236512.0	-1817.0	-75453.0
25	16	53	46	386	152.0	-232280.0	-1826.0	-75828.0
25	16	53	46	387	153.0	-226731.0	-1874.0	-73491.0
25	16	53	46	388	154.0	-220217.0	-1917.0	-71561.0
25	16	53	46	388	155.0	-213640.0	-1931.0	-70772.0
25	16	53	46	389	157.0	-200704.0	-1983.0	-63381.0
25	16	53	46	389	158.0	-194841.0	-2012.0	-61211.0
25	16	53	46	390	159.0	-189891.0	-2026.0	-58376.0
25	16	53	46	391	160.0	-185956.0	-2047.0	-55020.0
25	16	53	46	391	161.0	-183598.0	-2085.0	-52198.0
25	16	53	46	392	162.0	-183239.0	-2070.0	-49346.0
25	16	53	46	392	163.0	-184667.0	-2089.0	-48326.0
25	16	53	46	424	164.0	-188147.0	-2089.0	-49204.0
25	16	53	46	425	165.0	-193662.0	-2101.0	-50294.0
25	16	53	46	425	166.0	-201739.0	-2119.0	-50446.0
25	16	53	46	426	167.0	-211686.0	-2146.0	-51491.0
25	16	53	46	427	168.0	-222989.0	-2184.0	-51750.0
25	16	53	46	427	169.0	-234306.0	-2232.0	-51941.0
25	16	53	46	428	170.0	-244322.0	-2271.0	-51894.0
25	16	53	46	429	171.0	-252084.0	-2312.0	-52864.0
25	16	53	46	429	172.0	-254887.0	-2349.0	-54610.0
25	16	53	46	430	173.0	-253296.0	-2397.0	-55749.0
25	16	53	46	431	174.0	-249419.0	-2459.0	-56602.0
25	16	53	46	431	175.0	-244374.0	-2514.0	-56871.0
25	16	53	46	432	176.0	-238819.0	-2581.0	-57551.0
25	16	53	46	433	177.0	-231077.0	-2635.0	-58084.0
25	16	53	46	433	178.0	-221121.0	-2686.0	-58511.0
25	16	53	46	434	180.0	-201564.0	-2777.0	-58004.0
25	16	53	46	434	181.0	-198312.0	-2830.0	-57567.0
25	16	53	46	435	182.0	-202229.0	-2857.0	-57706.0
25	16	53	46	436	183.0	-212622.0	-2899.0	-57288.0
25	16	53	46	436	184.0	-224990.0	-2910.0	-56924.0
25	16	53	46	437	185.0	-233582.0	-2939.0	-56854.0
25	16	53	46	469	186.0	-235946.0	-2972.0	-57756.0
25	16	53	46	470	187.0	-232864.0	-3029.0	-57867.0
25	16	53	46	471	188.0	-225049.0	-3078.0	-57307.0
25	16	53	46	472	189.0	-213146.0	-3112.0	-57041.0
25	16	53	46	472	190.0	-198547.0	-3135.0	-56832.0
25	16	53	46	473	191.0	-182860.0	-3182.0	-56685.0
25	16	53	46	474	192.0	-167108.0	-3214.0	-56325.0
25	16	53	46	474	193.0	-151754.0	-3233.0	-56182.0
25	16	53	46	475	194.0	-136991.0	-3278.0	-56472.0
25	16	53	46	475	195.0	-125196.0	-3291.0	-56629.0
25	16	53	46	476	196.0	-119170.0	-3321.0	-57367.0
25	16	53	46	477	197.0	-119950.0	-3349.0	-57697.0
25	16	53	46	477	198.0	-126762.0	-3367.0	-57671.0
25	16	53	46	478	199.0	-137052.0	-3416.0	-57336.0
25	16	53	46	479	200.0	-148874.0	-3482.0	-56759.0
25	16	53	46	479	202.0	-169154.0	-3581.0	-56991.0
25	16	53	46	480	203.0	-175787.0	-3616.0	-56479.0
25	16	53	46	481	204.0	-180788.0	-3647.0	-56124.0
25	16	53	46	481	205.0	-185379.0	-3718.0	-56444.0
25	16	53	46	482	206.0	-189552.0	-3798.0	-56563.0
25	16	53	46	483	207.0	-192612.0	-3839.0	-57231.0
25	16	53	46	483	208.0	-194119.0	-3876.0	-57353.0
25	16	53	46	514	209.0	-193501.0	-3929.0	-57077.0
25	16	53	46	515	210.0	-190426.0	-3969.0	-56892.0
25	16	53	46	516	211.0	-184829.0	-4014.0	-56779.0
25	16	53	46	517	212.0	-177484.0	-4067.0	-56845.0
25	16	53	46	518	213.0	-169428.0	-4111.0	-57068.0
25	16	53	46	518	214.0	-161025.0	-4163.0	-56665.0
25	16	53	46	519	215.0	-152806.0	-4232.0	-56698.0
25	16	53	46	519	216.0	-145385.0	-4262.0	-56669.0
25	16	53	46	521	217.0	-139662.0	-4290.0	-56455.0
25	16	53	46	522	218.0	-135846.0	-4334.0	-56631.0
25	16	53	46	523	219.0	-134139.0	-4393.0	-56827.0
25	16	53	46	523	220.0	-134612.0	-4437.0	-56333.0
25	16	53	46	524	221.0	-137841.0	-4502.0	-56491.0
25	16	53	46	525	222.0	-143320.0	-4554.0	-56522.0
25	16	53	46	525	223.0	-150672.0	-4618.0	-57130.0
25	16	53	46	526	225.0	-170749.0	-4718.0	-57049.0
25	16	53	46	526	226.0	-182433.0	-4749.0	-57200.0
25	16	53	46	527	227.0	-193631.0	-4805.0	-58091.0
25	16	53	46	528	228.0	-204778.0	-4839.0	-57715.0
25	16	53	46	528	229.0	-215578.0	-4877.0	-57317.0
25	16	53	46	529	230.0	-225261.0	-4914.0	-57022.0
25	16	53	46	560	231.0	-233881.0	-4959.0	-56736.0
25	16	53	46	560	232.0	-240892.0	-5005.0	-56393.0
25	16	53	46	561	233.0	-246892.0	-5057.0	-56686.0
25	16	53	46	562	234.0	-252159.0	-5096.0	-57095.0
25	16	53	46	563	235.0	-256067.0	-5170.0	-57140.0
25	16	53	46	563	236.0	-258176.0	-5212.0	-56619.0
25	16	53	46	564	237.0	-259368.0	-5265.0	-56501.0
25	16	53	46	565	238.0	-259659.0	-5327.0	-56301.0
25	16	53	46	565	239.0	-258268.0	-5400.0	-56296.0
25	16	53	46	566	240.0	-255281.0	-5460.0	-56351.0
25	16	53	46	567	241.0	-251361.0	-5522.0	-56617.0
25	16	53	46	567	242.0	-245985.0	-5574.0	-56481.0
25	16	53	46	568	243.0	-238774.0	-5624.0	-57031.0
25	16	53	46	568	244.0	-230471.0	-5672.0	-56568.0
25	16	53	46	569	245.0	-220775.0	-5709.0	-56499.0
25	16	53	46	570	247.0	-197502.0	-5798.0	-57446.0
25	16	53	46	570	248.0	-185148.0	-5837.0	-57474.0
25	16	53	46	571	249.0	-173474.0	-5867.0	-57458.0
25	16	53	46	571	250.0	-162887.0	-5902.0	-57090.0
25	16	53	46	572	251.0	-153445.0	-5957.0	-56901.0
25	16	53	46	573	252.0	-145491.0	-5996.0	-56927.0
25	16	53	46	605	253.0	-139564.0	-5998.0	-57359.0
25	16	53	46	606	254.0	-135859.0	-6006.0	-57329.0
25	16	53	46	606	255.0	-133942.0	-6027.0	-57865.0
25	16	53	46	608	0.0	-133742.0	-6033.0	-58429.0
25	16	53	46	609	1.0	-135631.0	-6041.0	-58955.0
25	16	53	46	609	2.0	-138512.0	-6034.0	-58528.0
25	16	53	46	610	3.0	-143208.0	-6032.0	-57824.0
25	16	53	46	610	4.0	-149537.0	-6032.0	-57970.0
25	16	53	46	611	5.0	-156288.0	-6034.0	-57857.0
25	16	53	46	612	6.0	-163051.0	-6024.0	-57594.0
25	16	53	46	612	7.0	-170199.0	-6029.0	-58075.0
25	16	53	46	613	8.0	-177947.0	-6028.0	-58505.0
25	16	53	46	614	9.0	-186350.0	-6008.0	-58577.0
25	16	53	46	614	10.0	-195008.0	-5986.0	-58720.0
25	16	53	46	615	11.0	-203728.0	-5966.0	-58813.0
25	16	53	46	616	13.0	-220241.0	-5889.0	-58309.0
25	16	53	46	616	14.0	-227242.0	-5831.0	-57807.0
25	16	53	46	617	15.0	-233004.0	-5774.0	-57904.0
25	16	53	46	617	16.0	-237427.0	-5719.0	-57769.0
25	16	53	46	618	17.0	-240395.0	-5642.0	-58061.0
25	16	53	46	618	18.0	-242012.0	-5563.0	-58234.0
25	16	53	46	619	19.0	-243009.0	-5495.0	-58011.0
25	16	53	46	650	20.0	-243202.0	-5435.0	-57627.0
25	16	53	46	651	21.0	-241689.0	-5366.0	-58084.0
25	16	53	46	652	22.0	-238945.0	-5281.0	-57567.0
25	16	53	46	652	23.0	-235547.0	-5224.0	-56879.0
25	16	53	46	653	24.0	-230284.0	-5149.0	-56749.0
25	16	53	46	654	25.0	-223563.0	-5092.0	-56601.0
25	16	53	46	654	26.0	-217222.0	-5021.0	-55891.0
25	16	53	46	655	27.0	-211448.0	-4957.0	-55602.0
25	16	53	46	656	28.0	-205887.0	-4891.0	-54861.0
25	16	53	46	656	29.0	-200547.0	-4798.0	-54592.0
25	16	53	46	657	30.0	-195931.0	-4716.0	-54846.0
25	16	53	46	658	31.0	-192637.0	-4631.0	-54742.0
25	16	53	46	658	32.0	-190691.0	-4535.0	-54286.0
25	16	53	46	659	33.0	-189724.0	-4457.0	-53384.0
25	16	53	46	660	34.0	-189475.0	-4371.0	-52414.0
25	16	53	46	660	36.0	-190077.0	-4197.0	-52464.0
25	16	53	46	661	37.0	-189691.0	-4110.0	-52057.0
25	16	53	46	661	38.0	-188711.0	-4021.0	-51325.0
25	16	53	46	662	39.0	-187942.0	-3947.0	-51756.0
25	16	53	46	662	40.0	-188263.0	-3872.0	-51403.0
25	16	53	46	663	41.0	-189327.0	-3817.0	-50607.0
25	16	53	46	695	42.0	-190881.0	-3742.0	-50055.0
25	16	53	46	695	43.0	-191978.0	-3667.0	-48941.0
25	16	53	46	696	44.0	-192498.0	-3586.0	-48077.0
25	16	53	46	697	45.0	-192616.0	-3516.0	-47815.0
25	16	53	46	698	46.0	-192615.0	-3464.0	-47604.0
25	16	53	46	698	47.0	-192964.0	-3410.0	-47500.0
25	16	53	46	699	48.0	-193779.0	-3342.0	-47281.0
25	16	53	46	699	49.0	-194709.0	-3271.0	-47469.0
25	16	53	46	700	50.0	-195787.0	-3205.0	-46976.0
25	16	53	46	701	51.0	-197122.0	-3126.0	-46556.0
25	16	53	46	701	52.0	-197772.0	-3059.0	-46352.0
25	16	53	46	702	53.0	-197446.0	-3004.0	-45925.0
25	16	53	46	703	54.0	-195925.0	-2949.0	-44945.0
25	16	53	46	703	55.0	-193157.0	-2895.0	-45072.0
25	16	53	46	704	56.0	-188491.0	-2823.0	-44986.0
25	16	53	46	705	58.0	-175494.0	-2692.0	-44557.0
25	16	53	46	705	59.0	-164003.0	-2626.0	-44452.0
25	16	53	46	706	60.0	-151202.0	-2555.0	-44120.0
25	16	53	46	706	61.0	-141249.0	-2482.0	-44143.0
25	16	53	46	707	62.0	-133205.0	-2427.0	-44096.0
25	16	53	46	708	63.0	-134669.0	-2367.0	-43604.0
25	16	53	46	708	64.0	-144920.0	-2277.0	-43043.0
25	16	53	46	740	65.0	-156897.0	-2215.0	-43294.0
25	16	53	46	740	66.0	-175757.0	-2158.0	-42882.0
25	16	53	46	741	67.0	-199402.0	-2093.0	-42401.0
25	16	53	46	742	68.0	-222621.0	-2039.0	-42802.0
25	16	53	46	742	69.0	-244002.0	-2009.0	-43147.0
25	16	53	46	743	70.0	-262664.0	-1991.0	-43403.0
25	16	53	46	744	71.0	-277367.0	-1959.0	-43949.0
25	16	53	46	744	72.0	-284602.0	-1924.0	-43886.0
25	16	53	46	745	73.0	-283526.0	-1874.0	-43896.0
25	16	53	46	746	74.0	-276677.0	-1850.0	-43507.0
25	16	53	46	746	75.0	-265737.0	-1821.0	-43327.0
25	16	53	46	747	76.0	-253614.0	-1784.0	-44015.0
25	16	53	46	748	77.0	-242496.0	-1739.0	-44612.0
25	16	53	46	748	78.0	-234307.0	-1707.0	-44244.0
25	16	53	46	749	79.0	-235042.0	-1669.0	-44175.0
25	16	53	46	750	81.0	-258564.0	-1608.0	-44847.0
25	16	53	46	750	82.0	-268436.0	-1566.0	-44938.0
25	16	53	46	751	83.0	-274923.0	-1501.0	-44501.0
25	16	53	46	751	84.0	-275501.0	-1494.0	-44023.0
25	16	53	46	752	85.0	-268993.0	-1457.0	-43602.0
25	16	53	46	753	86.0	-257526.0	-1444.0	-44461.0
25	16	53	46	785	87.0	-246387.0	-1437.0	-44688.0
25	16	53	46	786	88.0	-239315.0	-1431.0	-44806.0
25	16	53	46	786	89.0	-236169.0	-1441.0	-44513.0
25	16	53	46	787	90.0	-234591.0	-1409.0	-45006.0
25	16	53	46	788	91.0	-234031.0	-1373.0	-45503.0
25	16	53	46	788	92.0	-234474.0	-1330.0	-44710.0
25	16	53	46	789	93.0	-234598.0	-1316.0	-44578.0
25	16	53	46	790	94.0	-233767.0	-1283.0	-44769.0
25	16	53	46	790	95.0	-231700.0	-1227.0	-44689.0
25	16	53	46	791	96.0	-228529.0	-1199.0	-44961.0
25	16	53	46	792	97.0	-225375.0	-1167.0	-45028.0
25	16	53	46	792	98.0	-222501.0	-1163.0	-45722.0
25	16	53	46	793	99.0	-219564.0	-1140.0	-45937.0
25	16	53	46	794	100.0	-216497.0	-1116.0	-46181.0
25	16	53	46	794	101.0	-213556.0	-1087.0	-45806.0
25	16	53	46	795	103.0	-208821.0	-1050.0	-45419.0
25	16	53	46	796	104.0	-207035.0	-1051.0	-44918.0
25	16	53	46	796	105.0	-204242.0	-1019.0	-44720.0
25	16	53	46	797	106.0	-200324.0	-1016.0	-44836.0
25	16	53	46	798	107.0	-195534.0	-972.0	-44217.0
25	16	53	46	798	108.0	-190463.0	-932.0	-43714.0
25	16	53	46	799	109.0	-185349.0	-904.0	-44594.0
25	16	53	46	830	110.0	-180647.0	-872.0	-45026.0
25	16	53	46	831	111.0	-176716.0	-814.0	-44679.0
25	16	53	46	842	112.0	-173643.0	-813.0	-44694.0
25	16	53	46	843	113.0	-171827.0	-826.0	-44219.0
25	16	53	46	843	114.0	-171019.0	-856.0	-44096.0
25	16	53	46	844	115.0	-170943.0	-846.0	-44074.0
25	16	53	46	844	116.0	-171699.0	-859.0	-44178.0
25	16	53	46	845	117.0	-172444.0	-869.0	-43532.0
25	16	53	46	845	118.0	-172984.0	-893.0	-43407.0
25	16	53	46	846	119.0	-173766.0	-886.0	-43540.0
25	16	53	46	846	120.0	-174384.0	-874.0	-44082.0
25	16	53	46	847	121.0	-174672.0	-877.0	-43892.0
25	16	53	46	847	122.0	-174887.0	-898.0	-43157.0
25	16	53	46	848	123.0	-175367.0	-921.0	-42126.0
25	16	53	46	848	124.0	-175683.0	-932.0	-41589.0
25	16	53	46	849	126.0	-176780.0	-954.0	-40906.0
25	16	53	46	849	127.0	-178424.0	-956.0	-41058.0
25	16	53	46	850	128.0	-180632.0	-987.0	-40951.0
25	16	53	46	851	129.0	-183189.0	-994.0	-40868.0
25	16	53	46	851	130.0	-186307.0	-1010.0	-41321.0
25	16	53	46	852	131.0	-190247.0	-1025.0	-41144.0
25	16	53	46	874	132.0	-194787.0	-1053.0	-41161.0
25	16	53	46	875	133.0	-199442.0	-1076.0	-40540.0
25	16	53	46	876	134.0	-203963.0	-1084.0	-40326.0
25	16	53	46	876	135.0	-207624.0	-1103.0	-39757.0
25	16	53	46	877	136.0	-210836.0	-1123.0	-39958.0
25	16	53	46	878	137.0	-213667.0	-1141.0	-40877.0
25	16	53	46	878	138.0	-216674.0	-1170.0	-40969.0
25	16	53	46	879	139.0	-219646.0	-1206.0	-40638.0
25	16	53	46	879	140.0	-222457.0	-1230.0	-40770.0
25	16	53	46	880	141.0	-225502.0	-1237.0	-40568.0
25	16	53	46	880	142.0	-229040.0	-1251.0	-40390.0
25	16	53	46	881	143.0	-232549.0	-1249.0	-40003.0
25	16	53	46	882	144.0	-238619.0	-1257.0	-39626.0
25	16	53	46	882	145.0	-244638.0	-1252.0	-40099.0
25	16	53	46	883	146.0	-249442.0	-1252.0	-40384.0
25	16	53	46	883	148.0	-257695.0	-1253.0	-39882.0
25	16	53	46	884	149.0	-259972.0	-1239.0	-39075.0
25	16	53	46	885	150.0	-260490.0	-1234.0	-38827.0
25	16	53	46	885	151.0	-259472.0	-1237.0	-39164.0
25	16	53	46	886	152.0	-257077.0	-1227.0	-39059.0
25	16	53	46	886	153.0	-253819.0	-1195.0	-39389.0
25	16	53	46	919	154.0	-249793.0	-1196.0	-38769.0
25	16	53	46	919	155.0	-244582.0	-1185.0	-38672.0
25	16	53	46	920	156.0	-238021.0	-1196.0	-38869.0
25	16	53	46	921	157.0	-230666.0	-1204.0	-38128.0
25	16	53	46	921	158.0	-222876.0	-1202.0	-37948.0
25	16	53	46	922	159.0	-214486.0	-1186.0	-37989.0
25	16	53	46	922	160.0	-205916.0	-1174.0	-37871.0
25	16	53	46	923	161.0	-197071.0	-1163.0	-37723.0
25	16	53	46	924	162.0	-187729.0	-1144.0	-37931.0
25	16	53	46	924	163.0	-178072.0	-1149.0	-38262.0
25	16	53	46	925	164.0	-168665.0	-1136.0	-38724.0
25	16	53	46	925	165.0	-159616.0	-1121.0	-37954.0
25	16	53	46	926	166.0	-151216.0	-1094.0	-38178.0
25	16	53	46	926	167.0	-143501.0	-1073.0	-38237.0
25	16	53	46	927	168.0	-136887.0	-1057.0	-37014.0
25	16	53	46	927	171.0	-123397.0	-989.0	-38750.0
25	16	53	46	928	172.0	-121625.0	-959.0	-38598.0
25	16	53	46	929	173.0	-121628.0	-964.0	-37989.0
25	16	53	46	929	174.0	-123441.0	-974.0	-38309.0
25	16	53	46	930	175.0	-127522.0	-954.0	-38478.0
25	16	53	46	942	176.0	-134309.0	-937.0	-38479.0
25	16	53	46	965	177.0	-143233.0	-942.0	-38354.0
25	16	53	46	966	178.0	-153662.0	-918.0	-38268.0
25	16	53	46	967	179.0	-165361.0	-912.0	-38121.0
25	16	53	46	967	180.0	-177549.0	-922.0	-38061.0
25	16	53	46	968	181.0	-189742.0	-916.0	-38219.0
25	16	53	46	969	182.0	-201826.0	-911.0	-38329.0
25	16	53	46	969	183.0	-213871.0	-914.0	-37477.0
25	16	53	46	970	184.0	-224820.0	-894.0	-38431.0
25	16	53	46	970	185.0	-234398.0	-892.0	-39275.0
25	16	53	46	971	186.0	-242497.0	-871.0	-39373.0
25	16	53	46	972	187.0	-249067.0	-860.0	-39308.0
25	16	53	46	972	188.0	-253216.0	-842.0	-39902.0
25	16	53	46	973	189.0	-254881.0	-824.0	-38919.0
25	16	53	46	973	190.0	-254029.0	-817.0	-38541.0
25	16	53	46	974	191.0	-250769.0	-814.0	-37975.0
25	16	53	46	975	193.0	-237844.0	-764.0	-36849.0
25	16	53	46	975	194.0	-229295.0	-771.0	-37446.0
25	16	53	46	976	195.0	-220149.0	-751.0	-37619.0
25	16	53	46	976	196.0	-210162.0	-748.0	-37699.0
25	16	53	46	977	197.0	-199982.0	-746.0	-37332.0
25	16	53	46	977	198.0	-190006.0	-746.0	-37259.0
25	16	53	47	9	199.0	-180897.0	-734.0	-37867.0
25	16	53	47	10	200.0	-172616.0	-702.0	-37596.0
25	16	53	47	10	201.0	-165419.0	-707.0	-37002.0
25	16	53	47	11	202.0	-159721.0	-720.0	-36707.0
25	16	53	47	11	203.0	-155944.0	-714.0	-36030.0
25	16	53	47	12	204.0	-154534.0	-697.0	-35896.0
25	16	53	47	13	205.0	-154998.0	-683.0	-35967.0
25	16	53	47	13	206.0	-156862.0	-664.0	-36322.0
25	16	53	47	14	207.0	-160342.0	-661.0	-36348.0
25	16	53	47	14	208.0	-164670.0	-625.0	-36594.0
25	16	53	47	15	209.0	-170043.0	-627.0	-36567.0
25	16	53	47	16	210.0	-176059.0	-636.0	-36964.0
25	16	53	47	16	211.0	-182066.0	-661.0	-36812.0
25	16	53	47	17	212.0	-187721.0	-692.0	-36584.0
25	16	53	47	17	213.0	-192926.0	-702.0	-36280.0
25	16	53	47	26	215.0	-199994.0	-736.0	-36858.0
25	16	53	47	26	216.0	-200721.0	-738.0	-36280.0
25	16	53	47	27	217.0	-199512.0	-773.0	-35981.0
25	16	53	47	28	218.0	-196454.0	-766.0	-36366.0
25	16	53	47	28	219.0	-192247.0	-752.0	-36371.0
25	16	53	47	29	220.0	-187866.0	-769.0	-36982.0
25	16	53	47	29	221.0	-183681.0	-784.0	-36417.0
25	16	53	47	78	222.0	-180083.0	-797.0	-36491.0
25	16	53	47	79	223.0	-177022.0	-799.0	-35794.0
25	16	53	47	80	224.0	-174464.0	-804.0	-35472.0
25	16	53	47	80	225.0	-172413.0	-806.0	-35661.0
25	16	53	47	81	226.0	-171294.0	-815.0	-35824.0
25	16	53	47	81	227.0	-170201.0	-812.0	-35486.0
25	16	53	47	82	228.0	-168946.0	-841.0	-35534.0
25	16	53	47	82	229.0	-167752.0	-851.0	-36070.0
25	16	53	47	83	230.0	-166512.0	-862.0	-35779.0
25	16	53	47	84	231.0	-165197.0	-873.0	-35406.0
25	16	53	47	84	232.0	-164732.0	-881.0	-34774.0
25	16	53	47	85	233.0	-165524.0	-896.0	-34531.0
25	16	53	47	85	234.0	-167854.0	-898.0	-34184.0
25	16	53	47	86	235.0	-171518.0	-906.0	-34616.0
25	16	53	47	86	236.0	-177380.0	-914.0	-34890.0
25	16	53	47	87	238.0	-193789.0	-912.0	-35077.0
25	16	53	47	87	239.0	-203911.0	-916.0	-35279.0
25	16	53	47	88	240.0	-214400.0	-931.0	-35353.0
25	16	53	47	89	241.0	-224755.0	-932.0	-34804.0
25	16	53	47	89	242.0	-234271.0	-951.0	-34768.0
25	16	53	47	90	243.0	-242228.0	-954.0	-35112.0
25	16	53	47	99	244.0	-247976.0	-974.0	-35805.0
25	16	53	47	100	245.0	-251532.0	-1022.0	-37327.0
25	16	53	47	101	246.0	-252857.0	-1078.0	-40044.0
25	16	53	47	123	247.0	-252319.0	-1115.0	-43941.0
25	16	53	47	124	248.0	-250181.0	-1173.0	-47550.0
25	16	53	47	125	249.0	-246640.0	-1212.0	-50874.0
25	16	53	47	125	250.0	-242058.0	-1271.0	-51442.0
25	16	53	47	126	251.0	-236983.0	-1336.0	-49787.0
25	16	53	47	126	252.0	-231240.0	-1375.0	-48565.0
25	16	53	47	127	253.0	-224963.0	-1422.0	-48252.0
25	16	53	47	127	254.0	-218232.0	-1479.0	-45562.0
25	16	53	47	128	255.0	-211127.0	-1534.0	-42782.0
25	16	53	47	128	0.0	-203909.0	-1584.0	-42377.0
25	16	53	47	129	1.0	-196811.0	-1639.0	-40379.0
25	16	53	47	130	2.0	-189836.0	-1678.0	-35587.0
25	16	53	47	130	4.0	-177978.0	-1741.0	-31385.0
25	16	53	47	131	5.0	-173849.0	-1767.0	-29276.0
25	16	53	47	131	6.0	-171774.0	-1798.0	-26176.0
25	16	53	47	132	7.0	-172872.0	-1821.0	-24378.0
25	16	53	47	132	8.0	-177686.0	-1829.0	-23509.0
25	16	53	47	133	9.0	-185969.0	-1840.0	-23566.0
25	16	53	47	133	10.0	-197462.0	-1870.0	-24511.0
25	16	53	47	146	11.0	-211930.0	-1866.0	-26091.0
25	16	53	47	147	12.0	-228874.0	-1888.0	-27530.0
25	16	53	47	147	13.0	-246925.0	-1920.0	-27594.0
25	16	53	47	148	14.0	-264559.0	-1947.0	-27907.0
25	16	53	47	148	15.0	-279873.0	-1972.0	-29367.0
25	16	53	47	149	16.0	-290918.0	-2004.0	-30045.0
25	16	53	47	150	17.0	-296486.0	-2022.0	-29221.0
25	16	53	47	150	18.0	-297091.0	-2059.0	-33441.0
25	16	53	47	151	19.0	-292255.0	-2078.0	-34562.0
25	16	53	47	151	20.0	-283047.0	-2107.0	-35204.0
25	16	53	47	152	21.0	-270036.0	-2159.0	-35662.0
25	16	53	47	153	22.0	-253878.0	-2186.0	-35231.0
25	16	53	47	153	23.0	-236870.0	-2195.0	-35531.0
25	16	53	47	154	24.0	-221224.0	-2223.0	-36343.0
25	16	53	47	154	25.0	-205891.0	-2251.0	-36061.0
25	16	53	47	155	27.0	-188384.0	-2292.0	-36360.0
25	16	53	47	156	28.0	-194862.0	-2299.0	-36739.0
25	16	53	47	156	29.0	-209627.0	-2322.0	-36657.0
25	16	53	47	157	30.0	-226249.0	-2342.0	-35752.0
25	16	53	47	157	31.0	-237018.0	-2338.0	-36021.0
25	16	53	47	158	32.0	-234131.0	-2361.0	-36235.0
25	16	53	47	189	33.0	-215740.0	-2383.0	-36389.0
25	16	53	47	190	34.0	-187327.0	-2383.0	-36091.0
25	16	53	47	191	35.0	-156989.0	-2405.0	-36004.0
25	16	53	47	191	36.0	-130494.0	-2462.0	-35080.0
25	16	53	47	192	37.0	-110729.0	-2482.0	-35207.0
25	16	53	47	192	38.0	-97652.0	-2496.0	-35044.0
25	16	53	47	193	39.0	-90094.0	-2549.0	-35156.0
25	16	53	47	194	40.0	-87537.0	-2591.0	-35056.0
25	16	53	47	194	41.0	-90955.0	-2646.0	-35264.0
25	16	53	47	195	42.0	-102081.0	-2677.0	-35048.0
25	16	53	47	195	43.0	-121695.0	-2693.0	-35031.0
25	16	53	47	196	44.0	-147971.0	-2731.0	-35051.0
25	16	53	47	197	45.0	-175371.0	-2779.0	-35191.0
25	16	53	47	197	46.0	-199832.0	-2812.0	-34950.0
25	16	53	47	198	47.0	-219067.0	-2851.0	-34733.0
25	16	53	47	199	49.0	-238541.0	-2931.0	-34314.0
25	16	53	47	199	50.0	-239974.0	-2972.0	-34686.0
25	16	53	47	200	51.0	-236867.0	-3018.0	-34558.0
25	16	53	47	208	52.0	-229664.0	-3055.0	-34299.0
25	16	53	47	209	53.0	-219189.0	-3102.0	-34667.0
25	16	53	47	210	54.0	-206295.0	-3147.0	-34459.0
25	16	53	47	211	55.0	-191851.0	-3184.0	-35057.0
25	16	53	47	234	56.0	-176824.0	-3199.0	-34788.0
25	16	53	47	235	57.0	-161907.0	-3252.0	-35126.0
25	16	53	47	235	58.0	-147229.0	-3308.0	-35284.0
25	16	53	47	236	59.0	-132767.0	-3361.0	-35352.0
25	16	53	47	237	60.0	-119714.0	-3439.0	-35057.0
25	16	53	47	237	61.0	-108354.0	-3496.0	-34629.0
25	16	53	47	238	62.0	-99197.0	-3557.0	-34016.0
25	16	53	47	238	63.0	-92807.0	-3626.0	-33969.0
25	16	53	47	239	64.0	-89157.0	-3688.0	-34474.0
25	16	53	47	239	65.0	-88871.0	-3750.0	-34191.0
25	16	53	47	240	66.0	-91987.0	-3797.0	-33659.0
25	16	53	47	241	67.0	-98819.0	-3844.0	-33492.0
25	16	53	47	241	68.0	-108790.0	-3907.0	-34131.0
25	16	53	47	242	69.0	-121099.0	-3961.0	-34157.0
25	16	53	47	243	70.0	-135027.0	-4011.0	-34332.0
25	16	53	47	243	72.0	-167086.0	-4091.0	-33954.0
25	16	53	47	244	73.0	-184576.0	-4136.0	-33684.0
25	16	53	47	244	74.0	-201985.0	-4144.0	-33311.0
25	16	53	47	245	75.0	-218056.0	-4182.0	-34300.0
25	16	53	47	246	76.0	-232053.0	-4211.0	-32942.0
25	16	53	47	246	77.0	-243442.0	-4254.0	-33521.0
25	16	53	47	279	78.0	-252769.0	-4300.0	-33818.0
25	16	53	47	280	79.0	-260140.0	-4338.0	-33156.0
25	16	53	47	281	80.0	-265378.0	-4367.0	-32829.0
25	16	53	47	281	81.0	-269036.0	-4411.0	-32966.0
25	16	53	47	282	82.0	-271341.0	-4445.0	-33181.0
25	16	53	47	283	83.0	-272079.0	-4483.0	-33419.0
25	16	53	47	283	84.0	-271600.0	-4496.0	-33092.0
25	16	53	47	284	85.0	-269331.0	-4514.0	-32591.0
25	16	53	47	284	86.0	-264906.0	-4541.0	-32449.0
25	16	53	47	285	87.0	-259709.0	-4556.0	-32765.0
25	16	53	47	286	88.0	-253924.0	-4574.0	-32642.0
25	16	53	47	286	89.0	-247694.0	-4606.0	-33295.0
25	16	53	47	287	90.0	-240717.0	-4622.0	-33582.0
25	16	53	47	288	91.0	-233089.0	-4651.0	-33614.0
25	16	53	47	288	92.0	-224646.0	-4677.0	-33832.0
25	16	53	47	289	94.0	-208059.0	-4733.0	-34516.0
25	16	53	47	289	95.0	-200892.0	-4757.0	-34607.0
25	16	53	47	290	96.0	-194297.0	-4779.0	-34642.0
25	16	53	47	291	97.0	-188642.0	-4804.0	-34696.0
25	16	53	47	291	98.0	-184346.0	-4819.0	-34623.0
25	16	53	47	292	99.0	-181890.0	-4835.0	-34795.0
25	16	53	47	324	100.0	-181223.0	-4835.0	-35569.0
25	16	53	47	325	101.0	-182518.0	-4855.0	-35977.0
25	16	53	47	325	102.0	-186187.0	-4879.0	-35682.0
25	16	53	47	326	103.0	-190706.0	-4869.0	-35767.0
25	16	53	47	327	104.0	-195117.0	-4868.0	-35841.0
25	16	53	47	327	105.0	-199557.0	-4886.0	-35884.0
25	16	53	47	328	106.0	-203622.0	-4883.0	-35349.0
25	16	53	47	328	107.0	-207074.0	-4878.0	-35627.0
25	16	53	47	329	108.0	-209949.0	-4852.0	-35739.0
25	16	53	47	370	109.0	-211889.0	-4832.0	-36111.0
25	16	53	47	371	110.0	-212897.0	-4839.0	-36001.0
25	16	53	47	371	111.0	-213066.0	-4816.0	-35712.0
25	16	53	47	372	112.0	-212307.0	-4808.0	-36349.0
25	16	53	47	373	113.0	-211075.0	-4804.0	-35787.0
25	16	53	47	374	114.0	-209776.0	-4782.0	-35833.0
25	16	53	47	375	116.0	-206778.0	-4791.0	-35897.0
25	16	53	47	376	117.0	-204635.0	-4779.0	-35656.0
25	16	53	47	377	118.0	-202169.0	-4790.0	-36138.0
25	16	53	47	377	119.0	-199354.0	-4779.0	-36174.0
25	16	53	47	378	120.0	-196796.0	-4756.0	-36482.0
25	16	53	47	378	121.0	-194427.0	-4733.0	-36372.0
25	16	53	47	379	122.0	-192620.0	-4724.0	-36634.0
25	16	53	47	380	123.0	-191481.0	-4717.0	-36514.0
25	16	53	47	380	124.0	-190732.0	-4688.0	-36114.0
25	16	53	47	381	139.0	-207117.0	-4222.0	-27591.0
25	16	53	47	381	140.0	-208437.0	-4201.0	-27372.0
25	16	53	47	382	141.0	-209217.0	-4155.0	-27226.0
25	16	53	47	383	142.0	-209473.0	-4075.0	-26442.0
25	16	53	47	383	143.0	-209419.0	-4007.0	-25688.0
25	16	53	47	384	144.0	-209027.0	-3938.0	-25454.0
25	16	53	47	413	145.0	-208016.0	-3882.0	-23826.0
25	16	53	47	438	146.0	-206076.0	-3821.0	-23137.0
25	16	53	47	439	147.0	-202832.0	-3762.0	-23788.0
25	16	53	47	439	148.0	-198742.0	-3705.0	-23044.0
25	16	53	47	440	149.0	-193570.0	-3626.0	-22136.0
25	16	53	47	440	150.0	-187488.0	-3566.0	-22155.0
25	16	53	47	441	151.0	-181208.0	-3496.0	-22079.0
25	16	53	47	441	152.0	-174690.0	-3471.0	-22139.0
25	16	53	47	442	153.0	-168262.0	-3407.0	-21192.0
25	16	53	47	443	154.0	-162614.0	-3343.0	-21078.0
25	16	53	47	443	155.0	-158558.0	-3309.0	-19948.0
25	16	53	47	444	156.0	-156199.0	-3263.0	-19759.0
25	16	53	47	444	157.0	-155729.0	-3212.0	-19714.0
25	16	53	47	445	158.0	-157266.0	-3176.0	-19397.0
25	16	53	47	445	159.0	-160526.0	-3141.0	-18786.0
25	16	53	47	446	161.0	-167212.0	-3076.0	-18527.0
25	16	53	47	447	162.0	-170512.0	-3020.0	-19142.0
25	16	53	47	447	163.0	-170121.0	-2995.0	-19519.0
25	16	53	47	448	164.0	-165742.0	-2965.0	-19279.0
25	16	53	47	448	165.0	-163390.0	-2922.0	-18753.0
25	16	53	47	449	166.0	-158760.0	-2879.0	-18829.0
25	16	53	47	449	167.0	-155714.0	-2853.0	-18941.0
25	16	53	47	462	168.0	-163591.0	-2807.0	-18919.0
25	16	53	47	462	169.0	-172101.0	-2756.0	-19050.0
25	16	53	47	463	170.0	-183865.0	-2745.0	-18862.0
25	16	53	47	464	171.0	-200310.0	-2724.0	-18908.0
25	16	53	47	465	172.0	-215525.0	-2703.0	-18857.0
25	16	53	47	465	173.0	-226158.0	-2658.0	-18516.0
25	16	53	47	466	174.0	-239527.0	-2614.0	-18521.0
25	16	53	47	466	175.0	-260586.0	-2576.0	-18286.0
25	16	53	47	467	176.0	-281736.0	-2523.0	-17897.0
25	16	53	47	468	177.0	-292822.0	-2486.0	-18023.0
25	16	53	47	468	178.0	-292521.0	-2453.0	-17980.0
25	16	53	47	469	179.0	-285283.0	-2404.0	-18093.0
25	16	53	47	470	180.0	-272355.0	-2350.0	-17674.0
25	16	53	47	470	181.0	-256577.0	-2326.0	-17417.0
25	16	53	47	471	182.0	-240475.0	-2306.0	-17857.0
25	16	53	47	471	184.0	-220376.0	-2243.0	-17744.0
25	16	53	47	472	185.0	-216694.0	-2188.0	-17438.0
25	16	53	47	473	186.0	-214908.0	-2143.0	-17028.0
25	16	53	47	473	187.0	-213370.0	-2102.0	-17311.0
25	16	53	47	474	188.0	-212394.0	-2074.0	-18006.0
25	16	53	47	474	189.0	-212049.0	-2043.0	-18147.0
25	16	53	47	505	190.0	-210796.0	-2039.0	-18079.0
25	16	53	47	506	191.0	-208402.0	-2007.0	-17417.0
25	16	53	47	507	192.0	-205480.0	-1979.0	-18341.0
25	16	53	47	507	193.0	-202679.0	-1970.0	-18808.0
25	16	53	47	508	194.0	-201151.0	-1952.0	-18553.0
25	16	53	47	509	195.0	-201229.0	-1952.0	-17798.0
25	16	53	47	509	196.0	-203447.0	-1944.0	-17097.0
25	16	53	47	510	197.0	-207399.0	-1928.0	-16890.0
25	16	53	47	511	198.0	-212297.0	-1920.0	-17871.0
25	16	53	47	511	199.0	-217314.0	-1897.0	-17593.0
25	16	53	47	512	200.0	-221931.0	-1859.0	-16284.0
25	16	53	47	512	201.0	-225494.0	-1857.0	-16986.0
25	16	53	47	513	202.0	-227311.0	-1857.0	-17644.0
25	16	53	47	514	203.0	-227107.0	-1829.0	-16724.0
25	16	53	47	514	204.0	-224696.0	-1833.0	-16653.0
25	16	53	47	515	206.0	-214278.0	-1820.0	-16076.0
25	16	53	47	515	207.0	-207187.0	-1813.0	-15172.0
25	16	53	47	516	208.0	-199863.0	-1782.0	-14969.0
25	16	53	47	517	209.0	-192822.0	-1746.0	-15206.0
25	16	53	47	517	210.0	-186657.0	-1718.0	-15225.0
25	16	53	47	518	211.0	-181104.0	-1699.0	-14896.0
25	16	53	47	518	212.0	-175608.0	-1677.0	-14994.0
25	16	53	47	550	213.0	-170583.0	-1664.0	-14692.0
25	16	53	47	550	214.0	-166524.0	-1642.0	-14142.0
25	16	53	47	551	215.0	-163747.0	-1653.0	-13469.0
25	16	53	47	552	216.0	-162046.0	-1656.0	-14204.0
25	16	53	47	552	217.0	-161742.0	-1666.0	-14164.0
25	16	53	47	553	218.0	-162266.0	-1680.0	-13933.0
25	16	53	47	554	219.0	-163541.0	-1686.0	-14280.0
25	16	53	47	554	220.0	-164723.0	-1681.0	-14315.0
25	16	53	47	555	221.0	-165794.0	-1677.0	-14353.0
25	16	53	47	555	222.0	-167034.0	-1691.0	-14640.0
25	16	53	47	556	223.0	-168458.0	-1694.0	-14378.0
25	16	53	47	557	224.0	-169826.0	-1691.0	-14257.0
25	16	53	47	557	225.0	-171011.0	-1690.0	-14067.0
25	16	53	47	558	226.0	-172210.0	-1690.0	-14134.0
25	16	53	47	558	227.0	-174267.0	-1677.0	-13802.0
25	16	53	47	559	229.0	-179824.0	-1707.0	-13564.0
25	16	53	47	560	230.0	-183819.0	-1696.0	-13579.0
25	16	53	47	560	231.0	-188909.0	-1675.0	-13036.0
25	16	53	47	561	232.0	-194990.0	-1684.0	-14052.0
25	16	53	47	561	233.0	-201573.0	-1663.0	-13489.0
25	16	53	47	562	234.0	-208111.0	-1667.0	-13566.0
25	16	53	47	594	235.0	-214249.0	-1686.0	-13528.0
25	16	53	47	595	236.0	-219961.0	-1682.0	-13489.0
25	16	53	47	596	237.0	-225435.0	-1678.0	-12657.0
25	16	53	47	596	238.0	-230221.0	-1681.0	-12877.0
25	16	53	47	597	239.0	-233211.0	-1681.0	-13510.0
25	16	53	47	598	240.0	-234457.0	-1710.0	-12792.0
25	16	53	47	598	241.0	-234362.0	-1747.0	-12469.0
25	16	53	47	599	242.0	-233556.0	-1757.0	-13690.0
25	16	53	47	600	243.0	-231821.0	-1762.0	-13592.0
25	16	53	47	601	244.0	-228509.0	-1760.0	-12804.0
25	16	53	47	601	245.0	-224170.0	-1772.0	-12152.0
25	16	53	47	602	246.0	-219418.0	-1793.0	-12441.0
25	16	53	47	603	247.0	-214927.0	-1806.0	-12420.0
25	16	53	47	604	248.0	-210511.0	-1825.0	-12614.0
25	16	53	47	604	249.0	-205812.0	-1860.0	-12558.0
25	16	53	47	605	251.0	-195729.0	-1862.0	-11982.0
25	16	53	47	606	252.0	-190217.0	-1857.0	-12551.0
25	16	53	47	606	253.0	-184831.0	-1860.0	-12758.0
25	16	53	47	607	254.0	-179721.0	-1881.0	-12142.0
25	16	53	47	608	255.0	-174739.0	-1877.0	-11940.0
25	16	53	47	608	0.0	-170759.0	-1842.0	-12447.0
25	16	53	47	639	1.0	-167525.0	-1837.0	-12186.0
25	16	53	47	654	2.0	-165049.0	-1846.0	-11632.0
25	16	53	47	654	3.0	-163307.0	-1847.0	-11625.0
25	16	53	47	655	4.0	-162190.0	-1841.0	-11342.0
25	16	53	47	655	5.0	-161954.0	-1843.0	-11446.0
25	16	53	47	656	6.0	-162453.0	-1863.0	-11739.0
25	16	53	47	657	7.0	-163819.0	-1865.0	-11933.0
25	16	53	47	657	8.0	-165717.0	-1860.0	-11686.0
25	16	53	47	658	9.0	-167772.0	-1877.0	-11433.0
25	16	53	47	658	10.0	-169869.0	-1907.0	-11843.0
25	16	53	47	659	11.0	-171593.0	-1929.0	-12248.0
25	16	53	47	659	12.0	-173241.0	-1931.0	-11547.0
25	16	53	47	660	13.0	-174759.0	-1979.0	-10962.0
25	16	53	47	660	14.0	-175499.0	-1984.0	-11387.0
25	16	53	47	661	15.0	-175189.0	-1995.0	-11363.0
25	16	53	47	662	18.0	-167462.0	-2042.0	-10869.0
25	16	53	47	662	19.0	-164275.0	-2036.0	-10321.0
25	16	53	47	663	20.0	-161571.0	-2043.0	-10006.0
25	16	53	47	663	21.0	-159307.0	-2056.0	-10036.0
25	16	53	47	664	22.0	-157316.0	-2046.0	-10584.0
25	16	53	47	664	23.0	-155824.0	-2058.0	-10444.0
25	16	53	47	685	24.0	-155486.0	-2084.0	-11141.0
25	16	53	47	686	25.0	-156701.0	-2089.0	-10898.0
25	16	53	47	686	26.0	-159304.0	-2110.0	-10664.0
25	16	53	47	687	27.0	-162992.0	-2139.0	-9796.0
25	16	53	47	688	28.0	-167766.0	-2157.0	-9762.0
25	16	53	47	689	29.0	-173366.0	-2172.0	-9828.0
25	16	53	47	689	30.0	-179350.0	-2174.0	-9671.0
25	16	53	47	690	31.0	-185574.0	-2202.0	-9363.0
25	16	53	47	690	32.0	-192034.0	-2230.0	-9288.0
25	16	53	47	691	33.0	-198400.0	-2231.0	-9822.0
25	16	53	47	692	34.0	-204767.0	-2241.0	-10060.0
25	16	53	47	692	35.0	-211021.0	-2248.0	-9767.0
25	16	53	47	693	36.0	-217072.0	-2252.0	-9309.0
25	16	53	47	694	37.0	-223195.0	-2237.0	-9786.0
25	16	53	47	695	38.0	-229389.0	-2257.0	-9373.0
25	16	53	47	695	40.0	-241236.0	-2288.0	-9472.0
25	16	53	47	696	41.0	-246798.0	-2302.0	-10084.0
25	16	53	47	697	42.0	-252286.0	-2297.0	-9557.0
25	16	53	47	697	43.0	-257316.0	-2308.0	-9468.0
25	16	53	47	698	44.0	-261712.0	-2315.0	-9834.0
25	16	53	47	698	45.0	-265283.0	-2317.0	-9436.0
25	16	53	47	730	46.0	-268604.0	-2331.0	-9120.0
25	16	53	47	730	47.0	-271792.0	-2327.0	-9481.0
25	16	53	47	731	48.0	-274567.0	-2321.0	-9681.0
25	16	53	47	732	49.0	-277357.0	-2319.0	-8481.0
25	16	53	47	733	50.0	-279767.0	-2319.0	-8987.0
25	16	53	47	733	51.0	-281729.0	-2331.0	-9792.0
25	16	53	47	734	52.0	-283102.0	-2326.0	-9824.0
25	16	53	47	734	53.0	-283744.0	-2320.0	-9804.0
25	16	53	47	735	54.0	-283466.0	-2332.0	-10106.0
25	16	53	47	736	55.0	-281904.0	-2321.0	-9711.0
25	16	53	47	736	56.0	-279197.0	-2306.0	-9676.0
25	16	53	47	737	57.0	-275449.0	-2324.0	-9285.0
25	16	53	47	738	58.0	-270507.0	-2344.0	-8900.0
25	16	53	47	738	59.0	-263699.0	-2350.0	-8593.0
25	16	53	47	739	60.0	-255427.0	-2332.0	-8004.0
25	16	53	47	740	62.0	-236662.0	-2307.0	-9234.0
25	16	53	47	740	63.0	-226591.0	-2285.0	-9382.0
25	16	53	47	741	64.0	-216524.0	-2285.0	-9227.0
25	16	53	47	742	65.0	-206334.0	-2257.0	-9911.0
25	16	53	47	742	66.0	-196191.0	-2265.0	-10238.0
25	16	53	47	743	67.0	-186432.0	-2268.0	-9883.0
25	16	53	47	743	68.0	-177512.0	-2258.0	-9917.0
25	16	53	47	775	69.0	-169941.0	-2267.0	-10026.0
25	16	53	47	775	70.0	-163284.0	-2280.0	-9367.0
25	16	53	47	776	71.0	-157913.0	-2291.0	-9074.0
25	16	53	47	777	72.0	-154186.0	-2299.0	-9136.0
25	16	53	47	777	73.0	-152594.0	-2329.0	-8807.0
25	16	53	47	778	74.0	-152965.0	-2359.0	-9212.0
25	16	53	47	779	75.0	-154113.0	-2368.0	-9369.0
25	16	53	47	779	76.0	-155936.0	-2386.0	-8441.0
25	16	53	47	780	77.0	-159234.0	-2440.0	-8479.0
25	16	53	47	781	78.0	-163911.0	-2471.0	-8338.0
25	16	53	47	781	79.0	-169022.0	-2498.0	-8252.0
25	16	53	47	782	80.0	-174301.0	-2492.0	-8933.0
25	16	53	47	782	81.0	-180126.0	-2525.0	-9281.0
25	16	53	47	783	82.0	-186113.0	-2566.0	-8652.0
25	16	53	47	784	83.0	-191932.0	-2600.0	-7806.0
25	16	53	47	784	85.0	-203660.0	-2624.0	-7770.0
25	16	53	47	785	86.0	-209933.0	-2662.0	-7583.0
25	16	53	47	786	87.0	-216083.0	-2702.0	-7775.0
25	16	53	47	786	88.0	-221851.0	-2726.0	-7428.0
25	16	53	47	787	89.0	-227721.0	-2734.0	-6954.0
25	16	53	47	787	90.0	-233196.0	-2764.0	-6612.0
25	16	53	47	820	91.0	-237995.0	-2791.0	-6561.0
25	16	53	47	821	92.0	-241526.0	-2814.0	-7507.0
25	16	53	47	821	93.0	-243587.0	-2829.0	-7525.0
25	16	53	47	822	94.0	-244411.0	-2856.0	-7583.0
25	16	53	47	823	95.0	-244582.0	-2886.0	-7523.0
25	16	53	47	823	96.0	-244108.0	-2905.0	-8102.0
25	16	53	47	824	97.0	-242493.0	-2920.0	-8537.0
25	16	53	47	825	98.0	-239810.0	-2938.0	-8105.0
25	16	53	47	825	99.0	-236866.0	-2961.0	-6942.0
25	16	53	47	826	100.0	-233638.0	-2973.0	-6013.0
25	16	53	47	827	101.0	-229771.0	-3014.0	-6051.0
25	16	53	47	827	102.0	-225526.0	-3054.0	-6154.0
25	16	53	47	828	103.0	-221000.0	-3087.0	-5582.0
25	16	53	47	829	104.0	-215919.0	-3112.0	-5477.0
25	16	53	47	829	105.0	-210147.0	-3167.0	-6122.0
25	16	53	47	830	107.0	-196219.0	-3210.0	-6304.0
25	16	53	47	831	108.0	-188612.0	-3238.0	-6192.0
25	16	53	47	831	109.0	-180279.0	-3252.0	-6380.0
25	16	53	47	832	110.0	-171188.0	-3262.0	-6421.0
25	16	53	47	833	111.0	-162135.0	-3279.0	-6608.0
25	16	53	47	833	112.0	-153934.0	-3279.0	-6734.0
25	16	53	47	834	113.0	-146711.0	-3324.0	-6417.0
25	16	53	47	864	114.0	-140435.0	-3341.0	-5786.0
25	16	53	47	865	115.0	-135761.0	-3351.0	-6081.0
25	16	53	47	866	116.0	-133338.0	-3377.0	-6479.0
25	16	53	47	867	117.0	-133617.0	-3409.0	-6431.0
25	16	53	47	867	118.0	-136242.0	-3459.0	-5275.0
25	16	53	47	868	119.0	-140637.0	-3499.0	-5429.0
25	16	53	47	869	120.0	-146296.0	-3541.0	-5622.0
25	16	53	47	870	121.0	-153259.0	-3559.0	-5327.0
25	16	53	47	870	122.0	-161337.0	-3560.0	-4884.0
25	16	53	47	872	123.0	-170657.0	-3574.0	-5305.0
25	16	53	47	873	124.0	-181054.0	-3583.0	-5008.0
25	16	53	47	874	125.0	-191713.0	-3593.0	-5732.0
25	16	53	47	879	126.0	-202169.0	-3594.0	-6986.0
25	16	53	47	881	127.0	-211809.0	-3584.0	-8908.0
25	16	53	47	881	128.0	-220191.0	-3582.0	-12375.0
25	16	53	47	882	130.0	-231492.0	-3571.0	-20584.0
25	16	53	47	882	131.0	-233544.0	-3562.0	-21657.0
25	16	53	47	883	132.0	-233699.0	-3564.0	-20324.0
25	16	53	47	884	133.0	-232209.0	-3566.0	-18739.0
25	16	53	47	884	134.0	-229972.0	-3565.0	-18296.0
25	16	53	47	885	135.0	-227517.0	-3596.0	-16194.0
25	16	53	47	910	136.0	-224146.0	-3591.0	-12720.0
25	16	53	47	955	137.0	-220392.0	-3562.0	-10212.0
25	16	53	47	999	138.0	-216089.0	-3584.0	-9017.0
25	16	53	48	0	139.0	-211607.0	-3587.0	-7058.0
25	16	53	48	1	140.0	-206884.0	-3616.0	-3674.0
25	16	53	48	1	141.0	-202266.0	-3620.0	-1391.0
25	16	53	48	2	142.0	-197880.0	-3629.0	381.0
25	16	53	48	2	143.0	-193361.0	-3634.0	1366.0
25	16	53	48	3	144.0	-189329.0	-3632.0	3029.0
25	16	53	48	3	145.0	-186450.0	-3639.0	4552.0
25	16	53	48	4	146.0	-185521.0	-3667.0	5794.0
25	16	53	48	5	147.0	-187213.0	-3703.0	4997.0
25	16	53	48	5	148.0	-191373.0	-3726.0	3424.0
25	16	53	48	6	149.0	-197832.0	-3737.0	1576.0
25	16	53	48	6	150.0	-205941.0	-3755.0	668.0
25	16	53	48	7	152.0	-221754.0	-3810.0	-1776.0
25	16	53	48	7	175.0	-126429.0	-4222.0	-8280.0
25	16	53	48	8	197.0	-142921.0	-4492.0	-10016.0
25	16	53	48	8	198.0	-136249.0	-4494.0	-9207.0
25	16	53	48	9	199.0	-131383.0	-4481.0	-9716.0
25	16	53	48	10	200.0	-129062.0	-4477.0	-10185.0
25	16	53	48	10	201.0	-130096.0	-4497.0	-10271.0
25	16	53	48	18	202.0	-135024.0	-4518.0	-10532.0
25	16	53	48	44	203.0	-143486.0	-4518.0	-11077.0
25	16	53	48	45	204.0	-155048.0	-4510.0	-10928.0
25	16	53	48	45	205.0	-169402.0	-4514.0	-10877.0
25	16	53	48	46	206.0	-186507.0	-4531.0	-11036.0
25	16	53	48	46	207.0	-204074.0	-4535.0	-11592.0
25	16	53	48	47	208.0	-221650.0	-4552.0	-11331.0
25	16	53	48	47	209.0	-238064.0	-4562.0	-11199.0
25	16	53	48	48	210.0	-252079.0	-4554.0	-11189.0
25	16	53	48	49	211.0	-262421.0	-4566.0	-11832.0
25	16	53	48	49	212.0	-268760.0	-4568.0	-11949.0
25	16	53	48	50	213.0	-270800.0	-4570.0	-11729.0
25	16	53	48	50	214.0	-268103.0	-4573.0	-11930.0
25	16	53	48	51	215.0	-261143.0	-4571.0	-12280.0
25	16	53	48	51	216.0	-250983.0	-4584.0	-11619.0
25	16	53	48	52	217.0	-239119.0	-4578.0	-11607.0
25	16	53	48	52	219.0	-213199.0	-4624.0	-11934.0
25	16	53	48	53	220.0	-200659.0	-4641.0	-12346.0
25	16	53	48	54	221.0	-189534.0	-4673.0	-12847.0
25	16	53	48	54	222.0	-180448.0	-4714.0	-12487.0
25	16	53	48	55	223.0	-172554.0	-4746.0	-12448.0
25	16	53	48	55	224.0	-165959.0	-4794.0	-12741.0
25	16	53	48	56	225.0	-160992.0	-4811.0	-12630.0
25	16	53	48	89	226.0	-157589.0	-4826.0	-12827.0
25	16	53	48	90	227.0	-155679.0	-4847.0	-12876.0
25	16	53	48	91	228.0	-154272.0	-4853.0	-13072.0
25	16	53	48	91	229.0	-153574.0	-4858.0	-13145.0
25	16	53	48	134	230.0	-153309.0	-4860.0	-13541.0
25	16	53	48	135	231.0	-152641.0	-4889.0	-13772.0
25	16	53	48	136	232.0	-152077.0	-4906.0	-14292.0
25	16	53	48	136	233.0	-152003.0	-4935.0	-14643.0
25	16	53	48	137	234.0	-152504.0	-4961.0	-14889.0
25	16	53	48	137	235.0	-153515.0	-4994.0	-14550.0
25	16	53	48	138	236.0	-154990.0	-5013.0	-14684.0
25	16	53	48	138	237.0	-157562.0	-5064.0	-14579.0
25	16	53	48	139	238.0	-161066.0	-5077.0	-14444.0
25	16	53	48	139	239.0	-165211.0	-5072.0	-14922.0
25	16	53	48	140	240.0	-169992.0	-5077.0	-15478.0
25	16	53	48	141	242.0	-181118.0	-5062.0	-15497.0
25	16	53	48	141	243.0	-186743.0	-5031.0	-15189.0
25	16	53	48	142	244.0	-191336.0	-5006.0	-16104.0
25	16	53	48	142	245.0	-194867.0	-4974.0	-16677.0
25	16	53	48	143	246.0	-198146.0	-4951.0	-16909.0
25	16	53	48	143	9.0	-254102.0	-3706.0	-15826.0
25	16	53	48	144	10.0	-253520.0	-3617.0	-15166.0
25	16	53	48	152	11.0	-244577.0	-3502.0	-14392.0
25	16	53	48	153	12.0	-227157.0	-3387.0	-14124.0
25	16	53	48	153	13.0	-209796.0	-3311.0	-13726.0
25	16	53	48	154	14.0	-189467.0	-3222.0	-12759.0
25	16	53	48	179	15.0	-171347.0	-3136.0	-12323.0
25	16	53	48	180	16.0	-158278.0	-3027.0	-12452.0
25	16	53	48	180	17.0	-153217.0	-2918.0	-11850.0
25	16	53	48	181	18.0	-151139.0	-2831.0	-11324.0
25	16	53	48	181	19.0	-149414.0	-2724.0	-10519.0
25	16	53	48	182	20.0	-150669.0	-2648.0	-10031.0
25	16	53	48	183	21.0	-154386.0	-2571.0	-9619.0
25	16	53	48	183	22.0	-160017.0	-2499.0	-9093.0
25	16	53	48	184	23.0	-165756.0	-2410.0	-8631.0
25	16	53	48	184	24.0	-171706.0	-2337.0	-8196.0
25	16	53	48	185	25.0	-177511.0	-2250.0	-6994.0
25	16	53	48	185	26.0	-181705.0	-2182.0	-6494.0
25	16	53	48	186	27.0	-184357.0	-2119.0	-6196.0
25	16	53	48	187	28.0	-187011.0	-2046.0	-5666.0
25	16	53	48	187	29.0	-188246.0	-1992.0	-5128.0
25	16	53	48	188	31.0	-189476.0	-1877.0	-4981.0
25	16	53	48	188	32.0	-190964.0	-1819.0	-4983.0
25	16	53	48	189	33.0	-193316.0	-1746.0	-5011.0
25	16	53	48	189	34.0	-196339.0	-1662.0	-4406.0
25	16	53	48	190	35.0	-199377.0	-1579.0	-4252.0
25	16	53	48	191	36.0	-201420.0	-1519.0	-3917.0
25	16	53	48	223	37.0	-201407.0	-1460.0	-3181.0
25	16	53	48	224	38.0	-200789.0	-1379.0	-3516.0
25	16	53	48	224	39.0	-200112.0	-1307.0	-3431.0
25	16	53	48	225	40.0	-199286.0	-1249.0	-3151.0
25	16	53	48	226	41.0	-198390.0	-1169.0	-1869.0
25	16	53	48	226	42.0	-197711.0	-1107.0	-2153.0
25	16	53	48	227	43.0	-197264.0	-1048.0	-2527.0
25	16	53	48	227	44.0	-196074.0	-1001.0	-2164.0
25	16	53	48	228	45.0	-195567.0	-939.0	-1763.0
25	16	53	48	228	46.0	-191177.0	-895.0	-1833.0
25	16	53	48	229	47.0	-185481.0	-829.0	-2151.0
25	16	53	48	230	48.0	-182214.0	-764.0	-1794.0
25	16	53	48	230	49.0	-180044.0	-705.0	-1467.0
25	16	53	48	231	50.0	-177492.0	-662.0	-1527.0
25	16	53	48	231	51.0	-195096.0	-607.0	-1047.0
25	16	53	48	232	53.0	-259507.0	-464.0	-1229.0
25	16	53	48	232	54.0	-295855.0	-401.0	-1302.0
25	16	53	48	233	55.0	-323303.0	-315.0	-1463.0
25	16	53	48	234	56.0	-337441.0	-252.0	-2274.0
25	16	53	48	234	57.0	-341453.0	-189.0	-1801.0
25	16	53	48	235	58.0	-336063.0	-130.0	-1536.0
25	16	53	48	236	59.0	-322281.0	-59.0	-2240.0
25	16	53	48	269	60.0	-301241.0	8.0	-2295.0
25	16	53	48	270	61.0	-277485.0	69.0	-1379.0
25	16	53	48	271	62.0	-252781.0	133.0	-918.0
25	16	53	48	271	63.0	-228550.0	180.0	-1583.0
25	16	53	48	272	64.0	-207845.0	234.0	-2032.0
25	16	53	48	272	65.0	-191981.0	301.0	-1628.0
25	16	53	48	273	66.0	-180707.0	368.0	-1837.0
25	16	53	48	274	67.0	-172700.0	419.0	-2119.0
25	16	53	48	275	68.0	-166068.0	474.0	-2034.0
25	16	53	48	275	69.0	-159817.0	528.0	-1429.0
25	16	53	48	276	70.0	-153299.0	583.0	-1461.0
25	16	53	48	277	71.0	-147412.0	652.0	-1207.0
25	16	53	48	277	72.0	-143186.0	692.0	-517.0
25	16	53	48	278	73.0	-140829.0	723.0	-832.0
25	16	53	48	279	74.0	-140500.0	776.0	-1659.0
25	16	53	48	279	76.0	-144356.0	884.0	-1735.0
25	16	53	48	280	77.0	-147576.0	944.0	-1670.0
25	16	53	48	280	78.0	-151672.0	1014.0	-2108.0
25	16	53	48	281	79.0	-156137.0	1091.0	-1540.0
25	16	53	48	282	80.0	-161444.0	1156.0	-1020.0
25	16	53	48	283	81.0	-167791.0	1218.0	-903.0
25	16	53	48	330	82.0	-174389.0	1287.0	-767.0
25	16	53	48	348	83.0	-181069.0	1353.0	-648.0
25	16	53	48	349	84.0	-187524.0	1376.0	-651.0
25	16	53	48	349	85.0	-193757.0	1391.0	-690.0
25	16	53	48	350	86.0	-199156.0	1406.0	-296.0
25	16	53	48	350	87.0	-203057.0	1426.0	-541.0
25	16	53	48	351	88.0	-205792.0	1446.0	-495.0
25	16	53	48	352	89.0	-207812.0	1492.0	-341.0
25	16	53	48	352	90.0	-209517.0	1544.0	280.0
25	16	53	48	353	91.0	-211020.0	1575.0	749.0
25	16	53	48	353	92.0	-212319.0	1612.0	424.0
25	16	53	48	354	93.0	-213694.0	1631.0	249.0
25	16	53	48	355	94.0	-215136.0	1664.0	495.0
25	16	53	48	355	95.0	-216605.0	1690.0	695.0
25	16	53	48	356	96.0	-217382.0	1726.0	309.0
25	16	53	48	356	106.0	-199272.0	1911.0	918.0
25	16	53	48	357	113.0	-188052.0	1938.0	1918.0
25	16	53	48	357	114.0	-184889.0	1960.0	1646.0
25	16	53	48	358	115.0	-181981.0	1978.0	1623.0
25	16	53	48	359	116.0	-179457.0	1992.0	1898.0
25	16	53	48	359	117.0	-177369.0	2010.0	1514.0
25	16	53	48	360	118.0	-175822.0	2035.0	1657.0
25	16	53	48	360	119.0	-175039.0	2054.0	2476.0
25	16	53	48	361	120.0	-175434.0	2064.0	2837.0
25	16	53	48	374	121.0	-177304.0	2072.0	2666.0
25	16	53	48	375	122.0	-180416.0	2077.0	2874.0
25	16	53	48	376	123.0	-184712.0	2074.0	2358.0
25	16	53	48	376	124.0	-190087.0	2065.0	2404.0
25	16	53	48	377	125.0	-195859.0	2056.0	2667.0
25	16	53	48	377	126.0	-202309.0	2053.0	3004.0
25	16	53	48	378	127.0	-209296.0	2036.0	2778.0
25	16	53	48	379	128.0	-215798.0	2046.0	2346.0
25	16	53	48	379	129.0	-221546.0	2032.0	2409.0
25	16	53	48	380	130.0	-226177.0	2034.0	3157.0
25	16	53	48	397	131.0	-230077.0	2059.0	3345.0
25	16	53	48	397	132.0	-232916.0	2104.0	3038.0
25	16	53	48	398	133.0	-234498.0	2113.0	2944.0
25	16	53	48	399	134.0	-235222.0	2133.0	3350.0
25	16	53	48	399	135.0	-235792.0	2168.0	3038.0
25	16	53	48	400	136.0	-236116.0	2186.0	3021.0
25	16	53	48	421	137.0	-235228.0	2188.0	3374.0
25	16	53	48	421	138.0	-233324.0	2199.0	3068.0
25	16	53	48	422	139.0	-229874.0	2199.0	3073.0
25	16	53	48	422	140.0	-225088.0	2205.0	3795.0
25	16	53	48	423	141.0	-219627.0	2214.0	3721.0
25	16	53	48	423	142.0	-213517.0	2216.0	3481.0
25	16	53	48	424	143.0	-206862.0	2218.0	3936.0
25	16	53	48	425	144.0	-199351.0	2238.0	3015.0
25	16	53	48	425	145.0	-190986.0	2228.0	3148.0
25	16	53	48	426	146.0	-182001.0	2241.0	3580.0
25	16	53	48	426	147.0	-173014.0	2247.0	2961.0
25	16	53	48	427	148.0	-165161.0	2238.0	3113.0
25	16	53	48	427	149.0	-158446.0	2226.0	3389.0
25	16	53	48	428	150.0	-153402.0	2219.0	3779.0
25	16	53	48	428	151.0	-150499.0	2220.0	4028.0
25	16	53	48	444	152.0	-150281.0	2211.0	4579.0
25	16	53	48	444	153.0	-152478.0	2199.0	4318.0
25	16	53	48	445	154.0	-156547.0	2197.0	3368.0
25	16	53	48	446	155.0	-162689.0	2195.0	3493.0
25	16	53	48	446	156.0	-170103.0	2172.0	3561.0
25	16	53	48	447	157.0	-178261.0	2168.0	2974.0
25	16	53	48	447	158.0	-187014.0	2169.0	2736.0
25	16	53	48	448	159.0	-195540.0	2162.0	3674.0
25	16	53	48	449	160.0	-203187.0	2176.0	3997.0
25	16	53	48	449	161.0	-209886.0	2212.0	3965.0
25	16	53	48	450	162.0	-215968.0	2239.0	4018.0
25	16	53	48	450	163.0	-221514.0	2262.0	4055.0
25	16	53	48	451	164.0	-226704.0	2285.0	4093.0
25	16	53	48	467	165.0	-231794.0	2304.0	3419.0
25	16	53	48	468	166.0	-236646.0	2333.0	3093.0
25	16	53	48	469	167.0	-241161.0	2334.0	3473.0
25	16	53	48	469	168.0	-245575.0	2356.0	3711.0
25	16	53	48	470	169.0	-250467.0	2371.0	4048.0
25	16	53	48	470	170.0	-255736.0	2360.0	4838.0
25	16	53	48	471	171.0	-260910.0	2364.0	4959.0
25	16	53	48	471	172.0	-265803.0	2353.0	4685.0
25	16	53	48	472	173.0	-270079.0	2343.0	5104.0
25	16	53	48	473	174.0	-274241.0	2336.0	5048.0
25	16	53	48	491	175.0	-278544.0	2329.0	4242.0
25	16	53	48	491	176.0	-281707.0	2331.0	3943.0
25	16	53	48	492	177.0	-283968.0	2308.0	4589.0
25	16	53	48	493	178.0	-285268.0	2297.0	4680.0
25	16	53	48	493	179.0	-285779.0	2269.0	4441.0
25	16	53	48	494	180.0	-285811.0	2276.0	5219.0
25	16	53	48	494	181.0	-285482.0	2264.0	5665.0
25	16	53	48	495	182.0	-284506.0	2234.0	5478.0
25	16	53	48	496	183.0	-283530.0	2210.0	5193.0
25	16	53	48	496	184.0	-281850.0	2174.0	4884.0
25	16	53	48	497	185.0	-278811.0	2126.0	4813.0
25	16	53	48	497	186.0	-274893.0	2084.0	4720.0
25	16	53	48	498	187.0	-269442.0	2053.0	3884.0
25	16	53	48	498	188.0	-262992.0	2009.0	4336.0
25	16	53	48	499	189.0	-257353.0	1967.0	4726.0
25	16	53	48	514	190.0	-253315.0	1974.0	5021.0
25	16	53	48	515	191.0	-248584.0	1954.0	4826.0
25	16	53	48	516	192.0	-243951.0	1918.0	4869.0
25	16	53	48	516	193.0	-239786.0	1867.0	4453.0
25	16	53	48	517	194.0	-235432.0	1849.0	4129.0
25	16	53	48	517	195.0	-230809.0	1809.0	4096.0
25	16	53	48	518	196.0	-225467.0	1782.0	4267.0
25	16	53	48	537	197.0	-219486.0	1759.0	4403.0
25	16	53	48	538	198.0	-212667.0	1735.0	4294.0
25	16	53	48	539	199.0	-204814.0	1700.0	4697.0
25	16	53	48	539	200.0	-196734.0	1663.0	5519.0
25	16	53	48	540	201.0	-188439.0	1639.0	5893.0
25	16	53	48	541	202.0	-179788.0	1604.0	5219.0
25	16	53	48	541	203.0	-172105.0	1551.0	4316.0
25	16	53	48	542	204.0	-164749.0	1543.0	4276.0
25	16	53	48	542	205.0	-157786.0	1519.0	3985.0
25	16	53	48	543	206.0	-151867.0	1502.0	4620.0
25	16	53	48	543	207.0	-146882.0	1457.0	4813.0
25	16	53	48	544	208.0	-142650.0	1432.0	4288.0
25	16	53	48	544	209.0	-138774.0	1403.0	3590.0
25	16	53	48	545	210.0	-134688.0	1399.0	3749.0
25	16	53	48	546	211.0	-132687.0	1372.0	3783.0
25	16	53	48	561	212.0	-132072.0	1354.0	3617.0
25	16	53	48	561	213.0	-133539.0	1349.0	3063.0
25	16	53	48	562	214.0	-136508.0	1357.0	2874.0
25	16	53	48	562	215.0	-140266.0	1337.0	3251.0
25	16	53	48	563	216.0	-145205.0	1333.0	3259.0
25	16	53	48	563	217.0	-151517.0	1291.0	3249.0
25	16	53	48	564	218.0	-159783.0	1259.0	3793.0
25	16	53	48	583	219.0	-169832.0	1236.0	4201.0
25	16	53	48	584	220.0	-182083.0	1221.0	4249.0
25	16	53	48	584	221.0	-196514.0	1214.0	4417.0
25	16	53	48	585	222.0	-212103.0	1189.0	3973.0
25	16	53	48	585	223.0	-228253.0	1180.0	4113.0
25	16	53	48	586	224.0	-243674.0	1158.0	4399.0
25	16	53	48	587	225.0	-257521.0	1142.0	4451.0
25	16	53	48	587	226.0	-268649.0	1116.0	4035.0
25	16	53	48	588	227.0	-277006.0	1104.0	4311.0
25	16	53	48	588	228.0	-283076.0	1109.0	5042.0
25	16	53	48	589	229.0	-286571.0	1110.0	5081.0
25	16	53	48	590	230.0	-286962.0	1106.0	5393.0
25	16	53	48	590	231.0	-284149.0	1088.0	5722.0
25	16	53	48	591	232.0	-276977.0	1050.0	5888.0
25	16	53	48	591	233.0	-263837.0	1013.0	5704.0
25	16	53	48	592	234.0	-247998.0	981.0	5804.0
25	16	53	48	605	235.0	-230665.0	951.0	5552.0
25	16	53	48	606	236.0	-211002.0	911.0	5581.0
25	16	53	48	606	237.0	-191910.0	873.0	5126.0
25	16	53	48	607	238.0	-176356.0	839.0	5237.0
25	16	53	48	608	239.0	-164356.0	824.0	6348.0
25	16	53	48	608	240.0	-154821.0	799.0	6624.0
25	16	53	48	609	241.0	-147511.0	774.0	6332.0
25	16	53	48	629	242.0	-141375.0	754.0	6223.0
25	16	53	48	630	243.0	-135982.0	722.0	5623.0
25	16	53	48	630	244.0	-131809.0	702.0	5664.0
25	16	53	48	631	245.0	-128187.0	644.0	5858.0
25	16	53	48	631	246.0	-125602.0	605.0	6109.0
25	16	53	48	632	247.0	-125107.0	581.0	5934.0
25	16	53	48	633	248.0	-126257.0	555.0	5918.0
25	16	53	48	633	249.0	-128544.0	529.0	6020.0
25	16	53	48	634	250.0	-130673.0	502.0	6190.0
25	16	53	48	634	251.0	-130994.0	469.0	6466.0
25	16	53	48	635	252.0	-130986.0	438.0	6876.0
25	16	53	48	635	253.0	-135403.0	419.0	7204.0
25	16	53	48	636	254.0	-140606.0	398.0	6874.0
25	16	53	48	637	255.0	-145627.0	373.0	6486.0
25	16	53	48	637	0.0	-148335.0	336.0	5999.0
25	16	53	48	652	1.0	-148682.0	329.0	5883.0
25	16	53	48	652	2.0	-149389.0	309.0	6349.0
25	16	53	48	653	3.0	-149721.0	294.0	6383.0
25	16	53	48	653	4.0	-149866.0	279.0	6302.0
25	16	53	48	654	5.0	-150962.0	256.0	5054.0
25	16	53	48	655	6.0	-152232.0	248.0	3079.0
25	16	53	48	655	7.0	-154677.0	209.0	-41.0
25	16	53	48	656	8.0	-156966.0	190.0	-3358.0
25	16	53	48	674	9.0	-158913.0	171.0	-6844.0
25	16	53	48	675	10.0	-160968.0	144.0	-9246.0
25	16	53	48	675	11.0	-162752.0	129.0	-8921.0
25	16	53	48	676	12.0	-164594.0	95.0	-7687.0
25	16	53	48	677	13.0	-165720.0	46.0	-7737.0
25	16	53	48	677	14.0	-166207.0	33.0	-6099.0
25	16	53	48	678	15.0	-166596.0	6.0	-2950.0
25	16	53	48	678	16.0	-167277.0	-14.0	-879.0
25	16	53	48	679	17.0	-168292.0	-32.0	-242.0
25	16	53	48	680	18.0	-170330.0	-70.0	2503.0
25	16	53	48	680	19.0	-173387.0	-77.0	6128.0
25	16	53	48	681	20.0	-176864.0	-79.0	8274.0
25	16	53	48	681	21.0	-180629.0	-97.0	9464.0
25	16	53	48	682	22.0	-184687.0	-116.0	12346.0
25	16	53	48	682	23.0	-188959.0	-127.0	15086.0
25	16	53	48	697	24.0	-193728.0	-156.0	16592.0
25	16	53	48	698	25.0	-199754.0	-172.0	17264.0
25	16	53	48	698	26.0	-206051.0	-191.0	16748.0
25	16	53	48	699	27.0	-213469.0	-236.0	15333.0
25	16	53	48	699	28.0	-221427.0	-251.0	13328.0
25	16	53	48	700	29.0	-229972.0	-263.0	12528.0
25	16	53	48	701	30.0	-238659.0	-271.0	12621.0
25	16	53	48	720	31.0	-245881.0	-273.0	11576.0
25	16	53	48	721	32.0	-250176.0	-281.0	10179.0
25	16	53	48	722	33.0	-250017.0	-287.0	8713.0
25	16	53	48	722	34.0	-244759.0	-312.0	7835.0
25	16	53	48	723	35.0	-235084.0	-332.0	6718.0
25	16	53	48	724	36.0	-221199.0	-367.0	5551.0
25	16	53	48	724	37.0	-204673.0	-381.0	4653.0
25	16	53	48	725	38.0	-185682.0	-389.0	4231.0
25	16	53	48	725	39.0	-165331.0	-398.0	3888.0
25	16	53	48	726	40.0	-145403.0	-434.0	3371.0
25	16	53	48	726	41.0	-129379.0	-486.0	3402.0
25	16	53	48	727	42.0	-120936.0	-531.0	4050.0
25	16	53	48	728	43.0	-126167.0	-571.0	4041.0
25	16	53	48	728	44.0	-147525.0	-607.0	4239.0
25	16	53	48	729	45.0	-181422.0	-616.0	4825.0
25	16	53	48	744	46.0	-221502.0	-652.0	4023.0
25	16	53	48	745	47.0	-260568.0	-694.0	3819.0
25	16	53	48	746	48.0	-291432.0	-699.0	3688.0
25	16	53	48	746	49.0	-308509.0	-699.0	3538.0
25	16	53	48	747	50.0	-308282.0	-711.0	3273.0
25	16	53	48	747	51.0	-291774.0	-736.0	3566.0
25	16	53	48	748	52.0	-266309.0	-769.0	3417.0
25	16	53	48	749	53.0	-238596.0	-785.0	3693.0
25	16	53	48	749	54.0	-212164.0	-772.0	3995.0
25	16	53	48	750	55.0	-188986.0	-781.0	3586.0
25	16	53	48	750	56.0	-170870.0	-787.0	3551.0
25	16	53	48	751	57.0	-159741.0	-812.0	3252.0
25	16	53	48	752	58.0	-157682.0	-826.0	2495.0
25	16	53	48	752	59.0	-165327.0	-846.0	2235.0
25	16	53	48	753	60.0	-180834.0	-847.0	2204.0
25	16	53	48	767	61.0	-202209.0	-861.0	2154.0
25	16	53	48	767	62.0	-225720.0	-873.0	1834.0
25	16	53	48	768	63.0	-247254.0	-856.0	2204.0
25	16	53	48	769	64.0	-262943.0	-862.0	2176.0
25	16	53	48	769	65.0	-270370.0	-872.0	1987.0
25	16	53	48	770	66.0	-268872.0	-887.0	1829.0
25	16	53	48	770	67.0	-259327.0	-911.0	1663.0
25	16	53	48	790	68.0	-244644.0	-910.0	1682.0
25	16	53	48	790	69.0	-227042.0	-928.0	1588.0
25	16	53	48	791	70.0	-207112.0	-926.0	1073.0
25	16	53	48	792	71.0	-186029.0	-945.0	952.0
25	16	53	48	792	72.0	-165122.0	-978.0	936.0
25	16	53	48	793	73.0	-145799.0	-988.0	1618.0
25	16	53	48	794	74.0	-128189.0	-992.0	1372.0
25	16	53	48	794	75.0	-113726.0	-1012.0	1133.0
25	16	53	48	795	76.0	-103156.0	-1012.0	1253.0
25	16	53	48	795	77.0	-97007.0	-1012.0	1523.0
25	16	53	48	796	78.0	-95279.0	-1048.0	1159.0
25	16	53	48	797	79.0	-96488.0	-1066.0	605.0
25	16	53	48	797	80.0	-100804.0	-1058.0	341.0
25	16	53	48	798	81.0	-107957.0	-1079.0	104.0
25	16	53	48	798	82.0	-117979.0	-1077.0	181.0
25	16	53	48	812	83.0	-129636.0	-1103.0	331.0
25	16	53	48	813	84.0	-142704.0	-1104.0	714.0
25	16	53	48	814	85.0	-157731.0	-1129.0	731.0
25	16	53	48	814	86.0	-174637.0	-1177.0	214.0
25	16	53	48	815	87.0	-191777.0	-1207.0	333.0
25	16	53	48	815	88.0	-209404.0	-1233.0	359.0
25	16	53	48	816	89.0	-226285.0	-1247.0	119.0
25	16	53	48	816	90.0	-242630.0	-1249.0	-258.0
25	16	53	48	836	91.0	-258792.0	-1256.0	16.0
25	16	53	48	837	92.0	-273556.0	-1264.0	-204.0
25	16	53	48	837	93.0	-286294.0	-1260.0	-547.0
25	16	53	48	838	94.0	-297171.0	-1288.0	-998.0
25	16	53	48	839	95.0	-307294.0	-1303.0	-498.0
25	16	53	48	839	96.0	-316004.0	-1343.0	-279.0
25	16	53	48	840	97.0	-321452.0	-1364.0	-785.0
25	16	53	48	841	98.0	-324531.0	-1385.0	-1600.0
25	16	53	48	841	99.0	-324111.0	-1400.0	-1653.0
25	16	53	48	842	100.0	-320507.0	-1420.0	-1473.0
25	16	53	48	842	101.0	-315397.0	-1473.0	-1420.0
25	16	53	48	843	102.0	-308568.0	-1494.0	-1979.0
25	16	53	48	844	103.0	-299888.0	-1520.0	-1436.0
25	16	53	48	844	104.0	-289969.0	-1538.0	-1246.0
25	16	53	48	845	105.0	-278166.0	-1542.0	-1380.0
25	16	53	48	870	106.0	-264619.0	-1554.0	-2229.0
25	16	53	48	872	107.0	-249904.0	-1536.0	-2810.0
25	16	53	48	873	108.0	-234226.0	-1551.0	-3113.0
25	16	53	48	873	109.0	-218279.0	-1589.0	-3712.0
25	16	53	48	874	110.0	-201662.0	-1600.0	-4029.0
25	16	53	48	875	111.0	-184914.0	-1599.0	-4282.0
25	16	53	48	875	112.0	-168094.0	-1624.0	-4536.0
25	16	53	48	876	113.0	-151836.0	-1621.0	-4318.0
25	16	53	48	876	114.0	-136749.0	-1625.0	-4527.0
25	16	53	48	877	115.0	-123658.0	-1640.0	-4685.0
25	16	53	48	877	116.0	-113016.0	-1648.0	-5801.0
25	16	53	48	878	117.0	-104602.0	-1642.0	-5744.0
25	16	53	48	878	118.0	-98110.0	-1627.0	-5504.0
25	16	53	48	879	119.0	-93409.0	-1597.0	-5946.0
25	16	53	48	879	120.0	-91257.0	-1608.0	-6531.0
25	16	53	48	893	121.0	-92017.0	-1596.0	-6342.0
25	16	53	48	893	122.0	-95014.0	-1566.0	-6297.0
25	16	53	48	894	123.0	-99805.0	-1558.0	-6814.0
25	16	53	48	894	124.0	-106482.0	-1548.0	-6911.0
25	16	53	48	895	125.0	-115870.0	-1528.0	-7201.0
25	16	53	48	896	126.0	-126431.0	-1488.0	-7924.0
25	16	53	48	896	127.0	-137672.0	-1469.0	-7877.0
25	16	53	48	915	128.0	-147686.0	-1430.0	-8674.0
25	16	53	48	916	129.0	-155109.0	-1381.0	-9651.0
25	16	53	48	917	130.0	-161652.0	-1333.0	-9960.0
25	16	53	48	917	131.0	-168674.0	-1294.0	-9965.0
25	16	53	48	918	132.0	-175833.0	-1257.0	-10265.0
25	16	53	48	918	133.0	-184088.0	-1216.0	-9947.0
25	16	53	48	919	134.0	-192765.0	-1188.0	-9981.0
25	16	53	48	919	135.0	-202122.0	-1146.0	-9789.0
25	16	53	48	920	136.0	-211298.0	-1089.0	-10290.0
25	16	53	48	920	137.0	-219899.0	-1052.0	-10016.0
25	16	53	48	921	138.0	-228392.0	-1017.0	-10531.0
25	16	53	48	921	139.0	-236372.0	-982.0	-10771.0
25	16	53	48	922	140.0	-243449.0	-919.0	-10758.0
25	16	53	48	922	141.0	-248946.0	-863.0	-11099.0
25	16	53	48	923	142.0	-253125.0	-828.0	-11259.0
25	16	53	48	938	143.0	-256537.0	-766.0	-11141.0
25	16	53	48	938	144.0	-258666.0	-701.0	-11011.0
25	16	53	48	939	145.0	-259067.0	-649.0	-10674.0
25	16	53	48	939	146.0	-258135.0	-586.0	-10839.0
25	16	53	48	940	147.0	-259090.0	-507.0	-10170.0
25	16	53	48	941	148.0	-260792.0	-451.0	-9692.0
25	16	53	48	941	149.0	-261898.0	-391.0	-9829.0
25	16	53	48	942	150.0	-262645.0	-309.0	-9242.0
25	16	53	48	964	151.0	-260899.0	-259.0	-8734.0
25	16	53	48	965	152.0	-257516.0	-186.0	-8159.0
25	16	53	48	965	153.0	-257935.0	-109.0	-7416.0
25	16	53	48	966	154.0	-253421.0	-49.0	-6767.0
25	16	53	48	966	155.0	-249840.0	6.0	-5562.0
25	16	53	48	967	156.0	-246998.0	71.0	-5131.0
25	16	53	48	968	157.0	-241882.0	144.0	-4568.0
25	16	53	48	968	158.0	-236006.0	230.0	-5037.0
25	16	53	48	969	159.0	-229092.0	292.0	-4516.0
25	16	53	48	969	160.0	-221709.0	363.0	-3831.0
25	16	53	48	970	161.0	-214649.0	436.0	-3164.0
25	16	53	48	970	162.0	-207445.0	504.0	-3050.0
25	16	53	48	971	163.0	-200547.0	566.0	-2847.0
25	16	53	48	971	164.0	-194327.0	629.0	-2327.0
25	16	53	48	972	165.0	-187451.0	674.0	-2047.0
25	16	53	48	989	166.0	-180503.0	748.0	-1951.0
25	16	53	48	990	167.0	-173679.0	798.0	-2192.0
25	16	53	48	990	168.0	-166174.0	853.0	-1671.0
25	16	53	48	991	169.0	-158418.0	919.0	-1736.0
25	16	53	48	992	170.0	-149119.0	974.0	-1821.0
25	16	53	48	992	171.0	-138286.0	1013.0	-849.0
25	16	53	48	993	172.0	-127146.0	1061.0	-434.0
25	16	53	48	993	173.0	-116194.0	1120.0	-404.0
25	16	53	48	994	174.0	-106186.0	1182.0	-587.0
25	16	53	48	994	175.0	-97206.0	1226.0	-62.0
25	16	53	48	995	176.0	-89097.0	1279.0	-337.0
25	16	53	48	995	177.0	-82319.0	1331.0	-182.0
25	16	53	48	996	178.0	-76604.0	1394.0	284.0
25	16	53	48	997	179.0	-72041.0	1448.0	160.0
25	16	53	48	997	180.0	-68712.0	1487.0	251.0
25	16	53	49	12	181.0	-64799.0	1565.0	284.0
25	16	53	49	12	182.0	-60933.0	1633.0	1204.0
25	16	53	49	13	183.0	-60046.0	1676.0	1624.0
25	16	53	49	13	184.0	-59908.0	1701.0	1409.0
25	16	53	49	14	185.0	-69906.0	1734.0	1615.0
25	16	53	49	14	186.0	-85356.0	1756.0	1298.0
25	16	53	49	15	187.0	-102853.0	1781.0	862.0
25	16	53	49	35	188.0	-126906.0	1859.0	908.0
25	16	53	49	35	189.0	-154732.0	1923.0	1189.0
25	16	53	49	36	190.0	-184683.0	1976.0	1702.0
25	16	53	49	37	191.0	-215386.0	2023.0	1765.0
25	16	53	49	37	192.0	-241574.0	2076.0	1842.0
25	16	53	49	38	193.0	-268712.0	2129.0	1943.0
25	16	53	49	38	194.0	-295702.0	2166.0	1938.0
25	16	53	49	39	195.0	-318597.0	2186.0	1771.0
25	16	53	49	39	196.0	-336249.0	2221.0	1543.0
25	16	53	49	40	197.0	-343886.0	2259.0	2046.0
25	16	53	49	40	198.0	-341049.0	2294.0	1820.0
25	16	53	49	41	199.0	-331646.0	2309.0	2086.0
25	16	53	49	41	200.0	-320164.0	2361.0	2554.0
25	16	53	49	42	201.0	-309826.0	2392.0	2154.0
25	16	53	49	43	202.0	-300740.0	2389.0	2686.0
25	16	53	49	59	203.0	-290992.0	2425.0	3163.0
25	16	53	49	59	204.0	-279155.0	2464.0	3331.0
25	16	53	49	60	205.0	-265716.0	2495.0	3039.0
25	16	53	49	60	206.0	-252051.0	2543.0	2698.0
25	16	53	49	61	207.0	-238940.0	2554.0	3179.0
25	16	53	49	61	208.0	-227258.0	2573.0	3026.0
25	16	53	49	62	209.0	-216896.0	2588.0	3535.0
25	16	53	49	62	210.0	-207346.0	2606.0	3277.0
25	16	53	49	63	211.0	-198652.0	2635.0	3063.0
25	16	53	49	64	212.0	-190896.0	2648.0	3584.0
25	16	53	49	64	213.0	-183597.0	2648.0	3570.0
25	16	53	49	65	214.0	-176624.0	2659.0	2429.0
25	16	53	49	66	215.0	-170601.0	2668.0	2197.0
25	16	53	49	66	216.0	-165516.0	2671.0	2260.0
25	16	53	49	67	217.0	-160844.0	2673.0	1931.0
25	16	53	49	82	218.0	-157159.0	2655.0	1320.0
25	16	53	49	82	219.0	-153845.0	2664.0	1293.0
25	16	53	49	83	220.0	-151002.0	2661.0	1167.0
25	16	53	49	83	221.0	-149972.0	2666.0	1588.0
25	16	53	49	84	222.0	-150954.0	2675.0	2215.0
25	16	53	49	84	223.0	-153609.0	2683.0	2193.0
25	16	53	49	85	224.0	-157516.0	2664.0	1329.0
25	16	53	49	105	225.0	-162492.0	2663.0	1589.0
25	16	53	49	105	226.0	-167757.0	2686.0	2228.0
25	16	53	49	106	227.0	-172679.0	2731.0	2059.0
25	16	53	49	107	228.0	-177027.0	2732.0	883.0
25	16	53	49	108	229.0	-181240.0	2668.0	529.0
25	16	53	49	108	230.0	-185657.0	2655.0	1246.0
25	16	53	49	109	231.0	-190603.0	2660.0	1119.0
25	16	53	49	109	232.0	-195922.0	2653.0	1563.0
25	16	53	49	110	233.0	-201751.0	2673.0	1896.0
25	16	53	49	110	234.0	-208410.0	2653.0	2103.0
25	16	53	49	111	235.0	-215882.0	2653.0	1809.0
25	16	53	49	112	236.0	-224144.0	2634.0	1816.0
25	16	53	49	112	237.0	-232447.0	2619.0	1768.0
25	16	53	49	113	238.0	-240495.0	2603.0	1387.0
25	16	53	49	113	239.0	-247324.0	2591.0	1153.0
25	16	53	49	129	240.0	-252996.0	2551.0	1805.0
25	16	53	49	130	241.0	-257663.0	2509.0	2056.0
25	16	53	49	131	242.0	-260777.0	2493.0	1941.0
25	16	53	49	131	243.0	-262421.0	2487.0	2649.0
25	16	53	49	132	244.0	-262655.0	2463.0	3016.0
25	16	53	49	132	245.0	-261768.0	2480.0	3083.0
25	16	53	49	133	246.0	-259637.0	2466.0	3219.0
25	16	53	49	133	247.0	-256339.0	2451.0	3336.0
25	16	53	49	153	248.0	-252174.0	2426.0	3393.0
25	16	53	49	154	249.0	-247137.0	2411.0	3598.0
25	16	53	49	154	250.0	-241269.0	2371.0	4719.0
25	16	53	49	155	251.0	-234377.0	2334.0	4243.0
25	16	53	49	155	252.0	-226500.0	2323.0	4041.0
25	16	53	49	156	253.0	-218518.0	2311.0	3741.0
25	16	53	49	157	254.0	-210969.0	2276.0	4010.0
25	16	53	49	157	255.0	-203809.0	2254.0	4168.0
25	16	53	49	158	0.0	-197360.0	2231.0	3567.0
25	16	53	49	158	1.0	-191915.0	2188.0	3577.0
25	16	53	49	159	2.0	-186940.0	2165.0	4022.0
25	16	53	49	159	3.0	-182156.0	2144.0	4203.0
25	16	53	49	160	4.0	-177555.0	2124.0	4279.0
25	16	53	49	160	5.0	-173223.0	2060.0	3931.0
25	16	53	49	161	6.0	-168802.0	2029.0	3767.0
25	16	53	49	176	7.0	-164363.0	2011.0	3978.0
25	16	53	49	177	8.0	-160470.0	1982.0	4584.0
25	16	53	49	177	9.0	-157806.0	1953.0	4240.0
25	16	53	49	178	10.0	-156635.0	1913.0	4181.0
25	16	53	49	179	11.0	-157226.0	1876.0	4071.0
25	16	53	49	179	12.0	-159233.0	1843.0	3808.0
25	16	53	49	180	13.0	-161551.0	1830.0	3903.0
25	16	53	49	199	14.0	-164121.0	1819.0	4394.0
25	16	53	49	200	15.0	-167044.0	1837.0	4635.0
25	16	53	49	200	16.0	-170222.0	1832.0	4875.0
25	16	53	49	201	17.0	-173371.0	1828.0	5146.0
25	16	53	49	201	18.0	-176576.0	1819.0	4922.0
25	16	53	49	202	19.0	-180302.0	1797.0	4908.0
25	16	53	49	203	20.0	-184109.0	1781.0	4988.0
25	16	53	49	203	21.0	-187209.0	1730.0	5251.0
25	16	53	49	204	22.0	-190146.0	1726.0	4987.0
25	16	53	49	205	23.0	-193114.0	1728.0	4160.0
25	16	53	49	205	24.0	-195923.0	1711.0	4771.0
25	16	53	49	206	25.0	-198707.0	1686.0	5035.0
25	16	53	49	206	26.0	-201177.0	1679.0	4702.0
25	16	53	49	207	27.0	-203014.0	1659.0	4839.0
25	16	53	49	207	28.0	-203897.0	1656.0	4824.0
25	16	53	49	222	29.0	-204138.0	1658.0	4207.0
25	16	53	49	222	30.0	-204012.0	1644.0	3762.0
25	16	53	49	223	31.0	-203510.0	1638.0	3765.0
25	16	53	49	223	32.0	-203039.0	1614.0	3346.0
25	16	53	49	224	33.0	-202761.0	1596.0	3262.0
25	16	53	49	224	34.0	-202326.0	1595.0	3841.0
25	16	53	49	225	35.0	-202487.0	1576.0	4668.0
25	16	53	49	226	36.0	-202954.0	1564.0	4475.0
25	16	53	49	244	37.0	-203393.0	1561.0	4145.0
25	16	53	49	245	38.0	-204027.0	1548.0	4663.0
25	16	53	49	246	39.0	-204508.0	1541.0	5020.0
25	16	53	49	246	40.0	-204792.0	1511.0	5043.0
25	16	53	49	247	41.0	-204886.0	1501.0	4958.0
25	16	53	49	247	42.0	-204376.0	1501.0	4801.0
25	16	53	49	248	43.0	-203428.0	1494.0	5088.0
25	16	53	49	249	44.0	-202507.0	1463.0	4974.0
25	16	53	49	249	45.0	-201864.0	1467.0	5523.0
25	16	53	49	250	46.0	-201739.0	1469.0	6261.0
25	16	53	49	250	47.0	-202197.0	1463.0	6031.0
25	16	53	49	251	48.0	-203812.0	1434.0	6135.0
25	16	53	49	251	49.0	-205819.0	1424.0	5949.0
25	16	53	49	252	50.0	-207344.0	1418.0	5736.0
25	16	53	49	252	51.0	-207858.0	1411.0	5773.0
25	16	53	49	267	52.0	-207223.0	1401.0	5953.0
25	16	53	49	268	53.0	-205847.0	1408.0	5921.0
25	16	53	49	269	54.0	-203886.0	1387.0	5533.0
