26	15	19	8	375	235.0	-200350.0	-29196.0	12428.0
26	15	19	8	377	236.0	-200285.0	-29016.0	18707.0
26	15	19	8	379	237.0	-200258.0	-28803.0	30938.0
26	15	19	8	381	238.0	-200213.0	-28604.0	45229.0
26	15	19	8	383	239.0	-200357.0	-28406.0	52802.0
26	15	19	8	385	240.0	-200280.0	-28197.0	51449.0
26	15	19	8	387	241.0	-200107.0	-27977.0	40735.0
26	15	19	8	389	242.0	-199951.0	-27736.0	26081.0
26	15	19	8	391	243.0	-199831.0	-27516.0	14756.0
26	15	19	8	391	244.0	-199758.0	-27266.0	10097.0
26	15	19	8	392	245.0	-199737.0	-27029.0	10906.0
26	15	19	8	393	246.0	-199656.0	-26814.0	18739.0
26	15	19	8	395	247.0	-199595.0	-26601.0	32192.0
26	15	19	8	396	248.0	-199717.0	-26357.0	47214.0
26	15	19	8	396	249.0	-199811.0	-26118.0	55646.0
26	15	19	8	397	250.0	-199919.0	-25879.0	55954.0
26	15	19	8	406	251.0	-199959.0	-25665.0	45451.0
26	15	19	8	407	252.0	-200060.0	-25420.0	30593.0
26	15	19	8	407	253.0	-200169.0	-25162.0	19525.0
26	15	19	8	434	254.0	-200111.0	-24925.0	14146.0
26	15	19	8	435	255.0	-200176.0	-24674.0	14908.0
26	15	19	8	436	0.0	-200041.0	-24427.0	22031.0
26	15	19	8	436	1.0	-199959.0	-24182.0	34086.0
26	15	19	8	457	2.0	-199972.0	-23933.0	48188.0
26	15	19	8	493	3.0	-199923.0	-23697.0	55927.0
26	15	19	8	494	4.0	-199897.0	-23465.0	55075.0
26	15	19	8	495	5.0	-199945.0	-23259.0	45071.0
26	15	19	8	495	6.0	-199967.0	-23016.0	29833.0
26	15	19	8	496	7.0	-199916.0	-22793.0	17284.0
26	15	19	8	497	8.0	-199825.0	-22521.0	10097.0
26	15	19	8	497	9.0	-199706.0	-22269.0	8351.0
26	15	19	8	498	10.0	-199561.0	-22056.0	14853.0
26	15	19	8	499	11.0	-199373.0	-21841.0	28484.0
26	15	19	8	499	12.0	-199331.0	-21608.0	43386.0
26	15	19	8	500	13.0	-199272.0	-21379.0	52666.0
26	15	19	8	501	14.0	-199235.0	-21164.0	53922.0
26	15	19	8	501	15.0	-199246.0	-20963.0	44321.0
26	15	19	8	502	16.0	-199395.0	-20718.0	28868.0
26	15	19	8	503	20.0	-199803.0	-19841.0	17674.0
26	15	19	8	503	43.0	-199836.0	-15581.0	62651.0
26	15	19	8	504	44.0	-199912.0	-15435.0	61947.0
26	15	19	8	505	45.0	-199820.0	-15280.0	50338.0
26	15	19	8	505	46.0	-199699.0	-15109.0	34108.0
26	15	19	8	506	47.0	-199685.0	-14934.0	22825.0
26	15	19	8	506	48.0	-199669.0	-14762.0	17521.0
26	15	19	8	537	49.0	-199638.0	-14599.0	19023.0
26	15	19	8	538	50.0	-199564.0	-14428.0	29297.0
26	15	19	8	539	51.0	-199624.0	-14287.0	41313.0
26	15	19	8	539	52.0	-199798.0	-14173.0	54714.0
26	15	19	8	540	53.0	-199776.0	-14055.0	62206.0
26	15	19	8	540	54.0	-199797.0	-13934.0	60353.0
26	15	19	8	541	55.0	-199794.0	-13829.0	48335.0
26	15	19	8	542	56.0	-199779.0	-13707.0	33976.0
26	15	19	8	542	57.0	-199844.0	-13576.0	23619.0
26	15	19	8	543	58.0	-199974.0	-13461.0	17720.0
26	15	19	8	543	59.0	-200087.0	-13329.0	19494.0
26	15	19	8	544	60.0	-200158.0	-13216.0	28660.0
26	15	19	8	545	61.0	-200195.0	-13094.0	42621.0
26	15	19	8	545	62.0	-200374.0	-12983.0	57696.0
26	15	19	8	546	63.0	-200517.0	-12885.0	65928.0
26	15	19	8	546	65.0	-200784.0	-12684.0	55751.0
26	15	19	8	547	66.0	-200731.0	-12571.0	40168.0
26	15	19	8	548	67.0	-200731.0	-12442.0	26263.0
26	15	19	8	548	68.0	-200759.0	-12330.0	18726.0
26	15	19	8	549	69.0	-200849.0	-12227.0	18448.0
26	15	19	8	549	70.0	-200959.0	-12088.0	24027.0
26	15	19	8	550	71.0	-201031.0	-11981.0	36376.0
26	15	19	8	583	72.0	-201056.0	-11881.0	50191.0
26	15	19	8	583	73.0	-201026.0	-11774.0	58446.0
26	15	19	8	584	74.0	-201099.0	-11702.0	57966.0
26	15	19	8	585	75.0	-201129.0	-11639.0	46560.0
26	15	19	8	585	76.0	-201119.0	-11556.0	33251.0
26	15	19	8	586	77.0	-201039.0	-11459.0	22019.0
26	15	19	8	587	78.0	-201016.0	-11370.0	15480.0
26	15	19	8	587	79.0	-200969.0	-11284.0	15034.0
26	15	19	8	588	80.0	-200889.0	-11187.0	20846.0
26	15	19	8	588	81.0	-200794.0	-11127.0	33370.0
26	15	19	8	589	82.0	-200674.0	-11049.0	47932.0
26	15	19	8	590	83.0	-200671.0	-10965.0	55193.0
26	15	19	8	590	84.0	-200714.0	-10928.0	54185.0
26	15	19	8	591	85.0	-200653.0	-10860.0	43778.0
26	15	19	8	591	86.0	-200599.0	-10776.0	28332.0
26	15	19	8	592	88.0	-200680.0	-10616.0	10936.0
26	15	19	8	593	89.0	-200776.0	-10545.0	9709.0
26	15	19	8	593	90.0	-200794.0	-10471.0	15836.0
26	15	19	8	594	91.0	-200694.0	-10376.0	29587.0
26	15	19	8	594	92.0	-200613.0	-10282.0	45593.0
26	15	19	8	595	93.0	-200558.0	-10201.0	54158.0
26	15	19	8	628	94.0	-200489.0	-10134.0	53863.0
26	15	19	8	628	95.0	-200476.0	-10055.0	43630.0
26	15	19	8	629	96.0	-200509.0	-10001.0	27211.0
26	15	19	8	630	97.0	-200539.0	-9931.0	15339.0
26	15	19	8	631	98.0	-200577.0	-9859.0	8491.0
26	15	19	8	631	99.0	-200570.0	-9798.0	9491.0
26	15	19	8	632	100.0	-200329.0	-9729.0	18917.0
26	15	19	8	632	101.0	-200353.0	-9679.0	32962.0
26	15	19	8	633	102.0	-200434.0	-9634.0	47053.0
26	15	19	8	634	103.0	-200379.0	-9585.0	55924.0
26	15	19	8	634	104.0	-200429.0	-9525.0	55664.0
26	15	19	8	635	105.0	-200436.0	-9487.0	44436.0
26	15	19	8	636	106.0	-200462.0	-9427.0	30846.0
26	15	19	8	636	107.0	-200409.0	-9372.0	18859.0
26	15	19	8	637	108.0	-200390.0	-9311.0	11807.0
26	15	19	8	638	110.0	-200399.0	-9176.0	16950.0
26	15	19	8	638	111.0	-200254.0	-9131.0	28879.0
26	15	19	8	639	112.0	-200287.0	-9079.0	40980.0
26	15	19	8	639	113.0	-200309.0	-9006.0	48532.0
26	15	19	8	640	114.0	-200289.0	-8943.0	46773.0
26	15	19	8	640	115.0	-200316.0	-8890.0	35806.0
26	15	19	8	673	116.0	-200324.0	-8817.0	22306.0
26	15	19	8	674	117.0	-200334.0	-8724.0	12583.0
26	15	19	8	674	118.0	-200234.0	-8656.0	7628.0
26	15	19	8	675	119.0	-200221.0	-8602.0	9204.0
26	15	19	8	676	120.0	-200242.0	-8563.0	17556.0
26	15	19	8	676	121.0	-200317.0	-8519.0	30874.0
26	15	19	8	677	122.0	-200193.0	-8466.0	46443.0
26	15	19	8	678	123.0	-200102.0	-8433.0	55256.0
26	15	19	8	679	124.0	-200133.0	-8394.0	54111.0
26	15	19	8	679	125.0	-200302.0	-8350.0	41033.0
26	15	19	8	680	126.0	-200327.0	-8319.0	25304.0
26	15	19	8	680	127.0	-200365.0	-8276.0	12605.0
26	15	19	8	681	128.0	-200531.0	-8209.0	5911.0
26	15	19	8	682	129.0	-200609.0	-8141.0	7759.0
26	15	19	8	682	130.0	-200678.0	-8082.0	17688.0
26	15	19	8	683	132.0	-200729.0	-8000.0	44671.0
26	15	19	8	684	133.0	-200744.0	-7959.0	51396.0
26	15	19	8	684	134.0	-200699.0	-7917.0	49404.0
26	15	19	8	685	135.0	-200742.0	-7870.0	38117.0
26	15	19	8	685	136.0	-200740.0	-7806.0	22515.0
26	15	19	8	686	137.0	-200669.0	-7745.0	9741.0
26	15	19	8	687	138.0	-200609.0	-7664.0	2454.0
26	15	19	8	763	139.0	-200550.0	-7591.0	3244.0
26	15	19	8	764	140.0	-200529.0	-7538.0	11560.0
26	15	19	8	765	141.0	-200615.0	-7487.0	24198.0
26	15	19	8	765	142.0	-200605.0	-7449.0	38048.0
26	15	19	8	766	143.0	-200619.0	-7426.0	45436.0
26	15	19	8	767	144.0	-200628.0	-7407.0	43989.0
26	15	19	8	767	145.0	-200771.0	-7381.0	33366.0
26	15	19	8	768	146.0	-200849.0	-7339.0	19306.0
26	15	19	8	769	147.0	-200787.0	-7298.0	8885.0
26	15	19	8	769	148.0	-200822.0	-7264.0	3851.0
26	15	19	8	770	149.0	-200704.0	-7208.0	4996.0
26	15	19	8	771	150.0	-200719.0	-7169.0	12949.0
26	15	19	8	772	151.0	-200681.0	-7136.0	26241.0
26	15	19	8	774	152.0	-200618.0	-7101.0	41838.0
26	15	19	8	775	153.0	-200634.0	-7067.0	49538.0
26	15	19	8	775	177.0	-199896.0	-6232.0	15228.0
26	15	19	8	776	178.0	-199881.0	-6190.0	11029.0
26	15	19	8	776	179.0	-199913.0	-6127.0	13419.0
26	15	19	8	777	180.0	-200018.0	-6081.0	23187.0
26	15	19	8	778	181.0	-200062.0	-6024.0	37392.0
26	15	19	8	778	182.0	-200122.0	-5986.0	52161.0
26	15	19	8	779	183.0	-200167.0	-5951.0	60581.0
26	15	19	8	808	184.0	-200297.0	-5899.0	59019.0
26	15	19	8	809	185.0	-200303.0	-5879.0	49251.0
26	15	19	8	810	186.0	-200339.0	-5829.0	36725.0
26	15	19	8	811	187.0	-200377.0	-5793.0	26680.0
26	15	19	8	811	188.0	-200464.0	-5765.0	22138.0
26	15	19	8	812	189.0	-200441.0	-5731.0	23498.0
26	15	19	8	813	190.0	-200372.0	-5704.0	30606.0
26	15	19	8	813	191.0	-200366.0	-5671.0	42266.0
26	15	19	8	814	192.0	-200479.0	-5635.0	56861.0
26	15	19	8	815	193.0	-200416.0	-5614.0	65082.0
26	15	19	8	815	194.0	-200419.0	-5606.0	63354.0
26	15	19	8	816	195.0	-200405.0	-5576.0	51570.0
26	15	19	8	817	196.0	-200411.0	-5550.0	34229.0
26	15	19	8	817	197.0	-200464.0	-5529.0	21695.0
26	15	19	8	818	198.0	-200454.0	-5496.0	15838.0
26	15	19	8	818	200.0	-200349.0	-5426.0	23547.0
26	15	19	8	819	201.0	-200409.0	-5391.0	35981.0
26	15	19	8	819	202.0	-200516.0	-5355.0	52366.0
26	15	19	8	820	203.0	-200547.0	-5317.0	62838.0
26	15	19	8	821	204.0	-200591.0	-5274.0	61917.0
26	15	19	8	821	205.0	-200722.0	-5251.0	49490.0
26	15	19	8	853	206.0	-200669.0	-5223.0	33616.0
26	15	19	8	854	207.0	-200604.0	-5156.0	21920.0
26	15	19	8	854	208.0	-200609.0	-5109.0	17329.0
26	15	19	8	855	209.0	-200703.0	-5081.0	18758.0
26	15	19	8	856	210.0	-200742.0	-5066.0	27154.0
26	15	19	8	856	211.0	-200693.0	-5051.0	41621.0
26	15	19	8	857	212.0	-200662.0	-5030.0	56098.0
26	15	19	8	858	213.0	-200729.0	-5020.0	64133.0
26	15	19	8	858	214.0	-200814.0	-5019.0	62693.0
26	15	19	8	859	215.0	-200820.0	-5001.0	50883.0
26	15	19	8	860	216.0	-200668.0	-4970.0	37463.0
26	15	19	8	860	217.0	-200697.0	-4954.0	25792.0
26	15	19	8	861	218.0	-200637.0	-4938.0	18759.0
26	15	19	8	861	219.0	-200612.0	-4882.0	20800.0
26	15	19	8	862	220.0	-200607.0	-4854.0	28230.0
26	15	19	8	863	222.0	-200474.0	-4824.0	55195.0
26	15	19	8	863	223.0	-200457.0	-4807.0	61756.0
26	15	19	8	864	224.0	-200454.0	-4804.0	58944.0
26	15	19	8	865	225.0	-200449.0	-4772.0	46529.0
26	15	19	8	865	226.0	-200528.0	-4719.0	30578.0
26	15	19	8	866	227.0	-200559.0	-4667.0	19108.0
26	15	19	8	866	228.0	-200469.0	-4626.0	13993.0
26	15	19	8	899	229.0	-200349.0	-4592.0	15798.0
26	15	19	8	900	230.0	-200319.0	-4566.0	24556.0
26	15	19	8	900	231.0	-200375.0	-4528.0	37640.0
26	15	19	8	901	232.0	-200471.0	-4509.0	51931.0
26	15	19	8	902	233.0	-200452.0	-4506.0	60307.0
26	15	19	8	902	234.0	-200465.0	-4515.0	57909.0
26	15	19	8	903	235.0	-200489.0	-4482.0	45074.0
26	15	19	8	903	236.0	-200488.0	-4460.0	30276.0
26	15	19	8	904	237.0	-200437.0	-4424.0	19783.0
26	15	19	8	905	238.0	-200490.0	-4396.0	14248.0
26	15	19	8	905	239.0	-200559.0	-4364.0	13796.0
26	15	19	8	906	240.0	-200632.0	-4332.0	21683.0
26	15	19	8	907	241.0	-200480.0	-4299.0	36219.0
26	15	19	8	907	242.0	-200359.0	-4296.0	51823.0
26	15	19	8	908	243.0	-200281.0	-4266.0	58166.0
26	15	19	8	909	245.0	-200009.0	-4234.0	45369.0
26	15	19	8	909	246.0	-200123.0	-4202.0	29508.0
26	15	19	8	910	247.0	-199974.0	-4131.0	18544.0
26	15	19	8	910	248.0	-199794.0	-4074.0	12710.0
26	15	19	8	911	249.0	-199756.0	-4012.0	13213.0
26	15	19	8	911	250.0	-199765.0	-3946.0	21208.0
26	15	19	8	943	251.0	-199714.0	-3882.0	35204.0
26	15	19	8	944	252.0	-199804.0	-3849.0	49144.0
26	15	19	8	945	253.0	-199935.0	-3825.0	54988.0
26	15	19	8	945	254.0	-199927.0	-3800.0	53144.0
26	15	19	8	946	255.0	-199957.0	-3791.0	42623.0
26	15	19	8	947	0.0	-199921.0	-3764.0	28801.0
26	15	19	8	948	1.0	-199946.0	-3722.0	19063.0
26	15	19	8	948	2.0	-199904.0	-3689.0	16457.0
26	15	19	8	949	3.0	-199954.0	-3644.0	18960.0
26	15	19	8	950	4.0	-199919.0	-3606.0	27744.0
26	15	19	8	951	5.0	-199919.0	-3560.0	40922.0
26	15	19	8	951	6.0	-199889.0	-3519.0	56899.0
26	15	19	8	952	7.0	-200026.0	-3512.0	64855.0
26	15	19	8	953	8.0	-200082.0	-3489.0	61618.0
26	15	19	8	953	9.0	-200044.0	-3457.0	49662.0
26	15	19	8	954	11.0	-200062.0	-3408.0	25586.0
26	15	19	8	955	12.0	-200114.0	-3334.0	20479.0
26	15	19	8	955	13.0	-200222.0	-3275.0	21501.0
26	15	19	8	956	14.0	-200257.0	-3226.0	28720.0
26	15	19	8	956	15.0	-200252.0	-3188.0	40897.0
26	15	19	8	957	16.0	-200259.0	-3133.0	53996.0
26	15	19	8	988	17.0	-200252.0	-3091.0	61528.0
26	15	19	8	988	18.0	-200195.0	-3064.0	60033.0
26	15	19	8	989	19.0	-200191.0	-3034.0	46878.0
26	15	19	8	990	20.0	-200258.0	-2996.0	30330.0
26	15	19	8	991	21.0	-200202.0	-2968.0	18595.0
26	15	19	8	991	22.0	-200261.0	-2930.0	12393.0
26	15	19	8	992	23.0	-200340.0	-2898.0	13148.0
26	15	19	8	993	24.0	-200397.0	-2852.0	20594.0
26	15	19	8	993	25.0	-200279.0	-2819.0	32759.0
26	15	19	8	994	26.0	-200321.0	-2793.0	47573.0
26	15	19	8	995	27.0	-200452.0	-2769.0	55039.0
26	15	19	8	995	28.0	-200382.0	-2751.0	53052.0
26	15	19	8	996	29.0	-200395.0	-2726.0	41431.0
26	15	19	8	997	30.0	-200450.0	-2695.0	26458.0
26	15	19	8	997	31.0	-200379.0	-2662.0	15148.0
26	15	19	9	33	34.0	-200454.0	-2512.0	18464.0
26	15	19	9	34	35.0	-200565.0	-2470.0	31008.0
26	15	19	9	34	36.0	-200513.0	-2425.0	45051.0
26	15	19	9	35	37.0	-200508.0	-2372.0	52132.0
26	15	19	9	36	38.0	-200525.0	-2328.0	50521.0
26	15	19	9	37	39.0	-200522.0	-2291.0	39474.0
26	15	19	9	37	40.0	-200516.0	-2227.0	24539.0
26	15	19	9	38	41.0	-200534.0	-2176.0	14064.0
26	15	19	9	39	42.0	-200515.0	-2136.0	9816.0
26	15	19	9	39	43.0	-200512.0	-2098.0	13579.0
26	15	19	9	40	44.0	-200439.0	-2056.0	21696.0
26	15	19	9	40	45.0	-200295.0	-2012.0	34233.0
26	15	19	9	41	46.0	-200147.0	-1971.0	49048.0
26	15	19	9	42	47.0	-200186.0	-1947.0	57553.0
26	15	19	9	42	48.0	-200181.0	-1937.0	56089.0
26	15	19	9	43	49.0	-200102.0	-1897.0	43915.0
26	15	19	9	44	56.0	-199963.0	-1556.0	59687.0
26	15	19	9	44	57.0	-199987.0	-1525.0	67824.0
26	15	19	9	45	58.0	-199887.0	-1477.0	66397.0
26	15	19	9	46	59.0	-199874.0	-1436.0	55346.0
26	15	19	9	46	60.0	-199975.0	-1368.0	40798.0
26	15	19	9	47	61.0	-199973.0	-1304.0	29863.0
26	15	19	9	47	62.0	-200030.0	-1239.0	24444.0
26	15	19	9	79	63.0	-200047.0	-1170.0	25708.0
26	15	19	9	80	64.0	-200147.0	-1119.0	33489.0
26	15	19	9	81	65.0	-200189.0	-1074.0	46051.0
26	15	19	9	81	66.0	-200221.0	-1036.0	60174.0
26	15	19	9	82	67.0	-200252.0	-1022.0	67458.0
26	15	19	9	83	68.0	-200236.0	-989.0	64743.0
26	15	19	9	84	69.0	-200215.0	-952.0	51484.0
26	15	19	9	84	70.0	-200184.0	-929.0	36953.0
26	15	19	9	85	71.0	-200221.0	-886.0	26216.0
26	15	19	9	86	72.0	-200328.0	-824.0	18199.0
26	15	19	9	87	73.0	-200396.0	-781.0	17593.0
26	15	19	9	87	74.0	-200452.0	-759.0	27219.0
26	15	19	9	88	75.0	-200429.0	-716.0	40099.0
26	15	19	9	89	76.0	-200405.0	-673.0	53316.0
26	15	19	9	89	77.0	-200397.0	-671.0	59138.0
26	15	19	9	90	78.0	-200400.0	-666.0	55271.0
26	15	19	9	91	79.0	-200371.0	-631.0	41885.0
26	15	19	9	91	80.0	-200383.0	-587.0	28138.0
26	15	19	9	92	81.0	-200339.0	-528.0	19232.0
26	15	19	9	92	82.0	-200232.0	-473.0	13938.0
26	15	19	9	93	83.0	-200367.0	-414.0	14523.0
26	15	19	9	94	84.0	-200400.0	-363.0	23499.0
26	15	19	9	124	85.0	-200385.0	-331.0	36854.0
26	15	19	9	125	86.0	-200364.0	-291.0	50541.0
26	15	19	9	125	87.0	-200417.0	-275.0	57266.0
26	15	19	9	126	88.0	-200309.0	-275.0	53315.0
26	15	19	9	127	89.0	-200313.0	-277.0	40157.0
26	15	19	9	128	90.0	-200311.0	-237.0	23206.0
26	15	19	9	128	91.0	-200247.0	-217.0	12688.0
26	15	19	9	129	92.0	-200183.0	-188.0	7401.0
26	15	19	9	130	93.0	-200169.0	-146.0	9815.0
26	15	19	9	130	94.0	-200087.0	-122.0	20934.0
26	15	19	9	131	95.0	-200073.0	-112.0	36183.0
26	15	19	9	132	96.0	-200063.0	-113.0	51340.0
26	15	19	9	132	97.0	-200029.0	-94.0	59331.0
26	15	19	9	133	98.0	-199999.0	-87.0	56649.0
26	15	19	9	134	99.0	-199981.0	-79.0	44006.0
26	15	19	9	134	101.0	-200045.0	-23.0	16724.0
26	15	19	9	135	102.0	-199954.0	0.0	9248.0
26	15	19	9	136	103.0	-199857.0	28.0	10806.0
26	15	19	9	136	104.0	-199865.0	72.0	20771.0
26	15	19	9	137	105.0	-199945.0	109.0	35125.0
26	15	19	9	137	106.0	-200031.0	119.0	49772.0
26	15	19	9	169	107.0	-200009.0	133.0	57890.0
26	15	19	9	169	108.0	-199955.0	157.0	56475.0
26	15	19	9	170	109.0	-199849.0	173.0	45279.0
26	15	19	9	171	110.0	-199839.0	168.0	31929.0
26	15	19	9	172	111.0	-199931.0	191.0	21589.0
26	15	19	9	172	112.0	-200089.0	204.0	16413.0
26	15	19	9	173	113.0	-200169.0	204.0	18264.0
26	15	19	9	174	114.0	-200096.0	224.0	26069.0
26	15	19	9	175	115.0	-199990.0	223.0	38334.0
26	15	19	9	176	116.0	-200006.0	217.0	51116.0
26	15	19	9	177	117.0	-200019.0	231.0	56025.0
26	15	19	9	178	118.0	-200050.0	234.0	52486.0
26	15	19	9	179	119.0	-200042.0	204.0	39661.0
26	15	19	9	179	120.0	-200095.0	225.0	23624.0
26	15	19	9	180	121.0	-200224.0	243.0	12968.0
26	15	19	9	181	123.0	-200449.0	265.0	8529.0
26	15	19	9	181	124.0	-200512.0	284.0	15651.0
26	15	19	9	182	125.0	-200377.0	306.0	29689.0
26	15	19	9	183	126.0	-200363.0	306.0	43984.0
26	15	19	9	183	127.0	-200336.0	332.0	52270.0
26	15	19	9	184	128.0	-200206.0	344.0	50536.0
26	15	19	9	184	129.0	-200215.0	354.0	38071.0
26	15	19	9	213	130.0	-200275.0	382.0	23776.0
26	15	19	9	214	131.0	-200208.0	423.0	13929.0
26	15	19	9	215	132.0	-200223.0	431.0	9696.0
26	15	19	9	215	133.0	-200337.0	416.0	13287.0
26	15	19	9	216	134.0	-200336.0	429.0	23473.0
26	15	19	9	217	135.0	-200347.0	431.0	37515.0
26	15	19	9	218	136.0	-200308.0	436.0	50841.0
26	15	19	9	219	137.0	-200381.0	416.0	57991.0
26	15	19	9	220	138.0	-200302.0	414.0	56698.0
26	15	19	9	220	139.0	-200174.0	401.0	46136.0
26	15	19	9	221	140.0	-200086.0	398.0	34001.0
26	15	19	9	222	141.0	-200129.0	418.0	25648.0
26	15	19	9	222	142.0	-200097.0	422.0	20891.0
26	15	19	9	223	143.0	-199921.0	442.0	21704.0
26	15	19	9	224	144.0	-199824.0	456.0	27904.0
26	15	19	9	224	146.0	-199757.0	444.0	54135.0
26	15	19	9	225	147.0	-199728.0	451.0	59338.0
26	15	19	9	226	148.0	-199792.0	441.0	55247.0
26	15	19	9	226	149.0	-199824.0	448.0	43073.0
26	15	19	9	227	150.0	-199817.0	475.0	30056.0
26	15	19	9	227	151.0	-199799.0	503.0	20404.0
26	15	19	9	258	152.0	-199823.0	527.0	15770.0
26	15	19	9	259	153.0	-199859.0	546.0	18803.0
26	15	19	9	260	154.0	-199934.0	558.0	26431.0
26	15	19	9	260	155.0	-199924.0	559.0	38583.0
26	15	19	9	261	156.0	-199902.0	546.0	53198.0
26	15	19	9	262	157.0	-199978.0	538.0	60398.0
26	15	19	9	262	158.0	-199934.0	513.0	58173.0
26	15	19	9	263	159.0	-199830.0	519.0	48091.0
26	15	19	9	264	160.0	-199885.0	519.0	34131.0
26	15	19	9	265	161.0	-199934.0	519.0	22713.0
26	15	19	9	266	162.0	-200015.0	523.0	17295.0
26	15	19	9	267	163.0	-200107.0	525.0	19513.0
26	15	19	9	267	164.0	-200123.0	539.0	25261.0
26	15	19	9	268	165.0	-200071.0	532.0	37453.0
26	15	19	9	269	166.0	-200091.0	520.0	49723.0
26	15	19	9	270	168.0	-200051.0	486.0	51263.0
26	15	19	9	270	169.0	-200068.0	469.0	37429.0
26	15	19	9	271	170.0	-200041.0	479.0	22472.0
26	15	19	9	271	171.0	-200085.0	516.0	12694.0
26	15	19	9	272	172.0	-200022.0	528.0	8068.0
26	15	19	9	273	173.0	-200034.0	536.0	11042.0
26	15	19	9	273	174.0	-200091.0	571.0	18616.0
26	15	19	9	304	175.0	-200104.0	586.0	30466.0
26	15	19	9	305	176.0	-200126.0	577.0	43774.0
26	15	19	9	305	177.0	-200245.0	567.0	51483.0
26	15	19	9	306	178.0	-200226.0	559.0	48666.0
26	15	19	9	307	179.0	-200199.0	553.0	35281.0
26	15	19	9	308	180.0	-200196.0	547.0	20448.0
26	15	19	9	308	181.0	-200254.0	563.0	11167.0
26	15	19	9	309	182.0	-200357.0	564.0	6143.0
26	15	19	9	310	183.0	-200363.0	555.0	6908.0
26	15	19	9	311	184.0	-200399.0	573.0	15436.0
26	15	19	9	311	185.0	-200481.0	574.0	27689.0
26	15	19	9	312	186.0	-200506.0	569.0	39658.0
26	15	19	9	313	187.0	-200549.0	546.0	45312.0
26	15	19	9	314	188.0	-200582.0	541.0	43282.0
26	15	19	9	314	189.0	-200551.0	514.0	31968.0
26	15	19	9	315	191.0	-200449.0	518.0	7200.0
26	15	19	9	316	192.0	-200279.0	522.0	984.0
26	15	19	9	316	193.0	-200135.0	569.0	3615.0
26	15	19	9	317	194.0	-200046.0	603.0	14033.0
26	15	19	9	317	195.0	-199976.0	610.0	29313.0
26	15	19	9	318	196.0	-199904.0	620.0	42994.0
26	15	19	9	348	197.0	-199980.0	623.0	49377.0
26	15	19	9	348	198.0	-200082.0	626.0	48051.0
26	15	19	9	349	199.0	-200392.0	622.0	35646.0
26	15	19	9	350	200.0	-200592.0	621.0	20419.0
26	15	19	9	351	201.0	-200697.0	636.0	10274.0
26	15	19	9	352	202.0	-200597.0	674.0	5714.0
26	15	19	9	352	203.0	-200469.0	690.0	6897.0
26	15	19	9	353	204.0	-200396.0	700.0	15351.0
26	15	19	9	354	205.0	-200396.0	704.0	28939.0
26	15	19	9	355	206.0	-200490.0	698.0	43074.0
26	15	19	9	355	207.0	-200524.0	688.0	50320.0
26	15	19	9	356	208.0	-200607.0	684.0	47192.0
26	15	19	9	357	209.0	-200701.0	684.0	33989.0
26	15	19	9	357	210.0	-200696.0	703.0	19501.0
26	15	19	9	358	211.0	-200731.0	699.0	10484.0
26	15	19	9	359	213.0	-200669.0	739.0	7860.0
26	15	19	9	359	214.0	-200663.0	765.0	14669.0
26	15	19	9	360	215.0	-200826.0	804.0	26182.0
26	15	19	9	361	216.0	-200844.0	811.0	38599.0
26	15	19	9	361	217.0	-200761.0	836.0	46111.0
26	15	19	9	362	218.0	-200709.0	838.0	43618.0
26	15	19	9	393	219.0	-200772.0	863.0	31071.0
26	15	19	9	394	220.0	-200677.0	886.0	16807.0
26	15	19	9	396	221.0	-200541.0	921.0	7339.0
26	15	19	9	397	222.0	-200319.0	933.0	3676.0
26	15	19	9	397	223.0	-200227.0	936.0	7518.0
26	15	19	9	398	224.0	-200101.0	954.0	16695.0
26	15	19	9	399	225.0	-200067.0	956.0	32097.0
26	15	19	9	400	226.0	-200053.0	963.0	45879.0
26	15	19	9	400	227.0	-200186.0	961.0	52411.0
26	15	19	9	401	228.0	-200244.0	958.0	48494.0
26	15	19	9	402	229.0	-200182.0	969.0	34689.0
26	15	19	9	403	230.0	-200159.0	989.0	20331.0
26	15	19	9	403	231.0	-200137.0	999.0	11159.0
26	15	19	9	404	232.0	-200244.0	1008.0	7620.0
26	15	19	9	405	233.0	-200255.0	1028.0	10008.0
26	15	19	9	405	235.0	-200085.0	1068.0	30321.0
26	15	19	9	406	236.0	-199920.0	1064.0	43661.0
26	15	19	9	407	237.0	-199954.0	1078.0	49553.0
26	15	19	9	407	238.0	-200076.0	1103.0	45303.0
26	15	19	9	408	239.0	-199963.0	1130.0	32840.0
26	15	19	9	409	240.0	-199889.0	1161.0	18198.0
26	15	19	9	409	241.0	-199781.0	1199.0	7243.0
26	15	19	9	439	242.0	-199716.0	1236.0	2243.0
26	15	19	9	440	243.0	-199786.0	1276.0	5538.0
26	15	19	9	441	244.0	-199809.0	1293.0	15304.0
26	15	19	9	442	245.0	-199808.0	1304.0	29442.0
26	15	19	9	442	246.0	-199824.0	1298.0	45116.0
26	15	19	9	443	247.0	-199851.0	1301.0	53113.0
26	15	19	9	444	248.0	-199817.0	1296.0	50061.0
26	15	19	9	444	249.0	-199763.0	1289.0	38044.0
26	15	19	9	445	250.0	-199976.0	1301.0	26215.0
26	15	19	9	446	251.0	-200100.0	1306.0	19002.0
26	15	19	9	447	252.0	-200028.0	1331.0	12848.0
26	15	19	9	447	253.0	-200084.0	1363.0	13014.0
26	15	19	9	448	254.0	-200007.0	1387.0	19845.0
26	15	19	9	449	255.0	-199912.0	1388.0	32672.0
26	15	19	9	449	0.0	-199787.0	1379.0	45749.0
26	15	19	9	450	2.0	-199796.0	1385.0	47157.0
26	15	19	9	450	3.0	-199837.0	1395.0	34999.0
26	15	19	9	451	4.0	-199869.0	1419.0	19921.0
26	15	19	9	452	5.0	-199908.0	1459.0	9914.0
26	15	19	9	452	6.0	-199952.0	1491.0	6339.0
26	15	19	9	453	7.0	-199864.0	1538.0	9855.0
26	15	19	9	483	8.0	-199884.0	1569.0	18611.0
26	15	19	9	484	9.0	-199901.0	1579.0	32419.0
26	15	19	9	484	10.0	-199987.0	1596.0	47137.0
26	15	19	9	485	11.0	-200036.0	1602.0	55378.0
26	15	19	9	486	12.0	-200014.0	1601.0	51952.0
26	15	19	9	487	13.0	-200060.0	1614.0	38180.0
26	15	19	9	487	14.0	-200130.0	1628.0	23124.0
26	15	19	9	488	15.0	-200075.0	1638.0	13326.0
26	15	19	9	489	16.0	-200051.0	1652.0	10463.0
26	15	19	9	489	17.0	-200143.0	1684.0	16946.0
26	15	19	9	490	18.0	-200163.0	1676.0	28326.0
26	15	19	9	491	19.0	-200234.0	1693.0	41750.0
26	15	19	9	491	20.0	-200364.0	1701.0	54191.0
26	15	19	9	492	21.0	-200364.0	1698.0	59467.0
26	15	19	9	493	22.0	-200331.0	1689.0	55682.0
26	15	19	9	494	24.0	-200461.0	1709.0	28256.0
26	15	19	9	494	25.0	-200497.0	1730.0	18854.0
26	15	19	9	495	26.0	-200406.0	1738.0	14223.0
26	15	19	9	495	27.0	-200452.0	1791.0	16454.0
26	15	19	9	496	28.0	-200387.0	1809.0	24119.0
26	15	19	9	497	29.0	-200275.0	1814.0	37194.0
26	15	19	9	497	30.0	-200276.0	1843.0	51765.0
26	15	19	9	528	31.0	-200241.0	1871.0	59789.0
26	15	19	9	530	32.0	-200360.0	1873.0	59110.0
26	15	19	9	530	33.0	-200479.0	1883.0	48514.0
26	15	19	9	531	34.0	-200647.0	1903.0	35089.0
26	15	19	9	532	35.0	-200702.0	1916.0	24229.0
26	15	19	9	533	36.0	-200701.0	1929.0	19065.0
26	15	19	9	533	37.0	-200862.0	1939.0	21256.0
26	15	19	9	534	38.0	-200852.0	1945.0	29883.0
26	15	19	9	535	39.0	-200742.0	1952.0	42438.0
26	15	19	9	536	40.0	-200581.0	1960.0	55909.0
26	15	19	9	536	41.0	-200586.0	1958.0	61121.0
26	15	19	9	537	42.0	-200644.0	1934.0	55521.0
26	15	19	9	537	43.0	-200664.0	1946.0	41634.0
26	15	19	9	538	44.0	-200757.0	1963.0	27247.0
26	15	19	9	539	45.0	-200667.0	1964.0	16638.0
26	15	19	9	540	47.0	-200661.0	1983.0	16634.0
26	15	19	9	541	48.0	-200642.0	2008.0	24849.0
26	15	19	9	542	49.0	-200672.0	2023.0	37702.0
26	15	19	9	542	50.0	-200744.0	2026.0	49090.0
26	15	19	9	543	51.0	-200902.0	2058.0	53533.0
26	15	19	9	544	52.0	-200984.0	2078.0	49476.0
26	15	19	9	573	53.0	-200871.0	2068.0	37350.0
26	15	19	9	574	54.0	-200795.0	2093.0	22604.0
26	15	19	9	575	55.0	-200745.0	2127.0	11341.0
26	15	19	9	576	56.0	-200764.0	2128.0	4416.0
26	15	19	9	576	57.0	-200701.0	2133.0	6188.0
26	15	19	9	577	58.0	-200608.0	2137.0	16099.0
26	15	19	9	578	59.0	-200514.0	2143.0	30721.0
26	15	19	9	579	60.0	-200444.0	2152.0	45111.0
26	15	19	9	579	61.0	-200406.0	2138.0	51100.0
26	15	19	9	580	62.0	-200277.0	2120.0	45947.0
26	15	19	9	581	63.0	-200324.0	2112.0	31564.0
26	15	19	9	581	64.0	-200304.0	2128.0	17863.0
26	15	19	9	582	65.0	-200291.0	2129.0	10155.0
26	15	19	9	583	66.0	-200421.0	2140.0	9101.0
26	15	19	9	583	67.0	-200353.0	2141.0	13980.0
26	15	19	9	584	69.0	-200350.0	2128.0	36075.0
26	15	19	9	585	70.0	-200336.0	2141.0	49374.0
26	15	19	9	585	71.0	-200322.0	2171.0	55697.0
26	15	19	9	586	72.0	-200311.0	2164.0	52671.0
26	15	19	9	587	73.0	-200228.0	2159.0	40929.0
26	15	19	9	587	74.0	-200216.0	2188.0	27290.0
26	15	19	9	588	75.0	-200192.0	2208.0	16865.0
26	15	19	9	619	76.0	-200143.0	2229.0	11921.0
26	15	19	9	620	77.0	-200068.0	2259.0	15016.0
26	15	19	9	621	78.0	-200062.0	2256.0	24682.0
26	15	19	9	622	79.0	-200121.0	2253.0	38491.0
26	15	19	9	623	80.0	-200199.0	2246.0	52350.0
26	15	19	9	623	81.0	-200269.0	2243.0	58608.0
26	15	19	9	624	82.0	-200151.0	2232.0	54359.0
26	15	19	9	625	83.0	-200091.0	2216.0	39552.0
26	15	19	9	625	84.0	-200286.0	2216.0	22623.0
26	15	19	9	626	85.0	-200436.0	2219.0	10947.0
26	15	19	9	627	86.0	-200482.0	2234.0	5859.0
26	15	19	9	627	87.0	-200572.0	2249.0	9656.0
26	15	19	9	628	88.0	-200540.0	2265.0	20631.0
26	15	19	9	629	89.0	-200432.0	2263.0	34189.0
26	15	19	9	629	90.0	-200368.0	2258.0	46243.0
26	15	19	9	630	92.0	-200234.0	2257.0	45844.0
26	15	19	9	631	93.0	-200150.0	2261.0	31624.0
26	15	19	9	631	94.0	-200077.0	2298.0	16467.0
26	15	19	9	632	95.0	-199959.0	2335.0	5901.0
26	15	19	9	632	96.0	-199917.0	2373.0	328.0
26	15	19	9	633	97.0	-199853.0	2434.0	3578.0
26	15	19	9	663	98.0	-199871.0	2481.0	12764.0
26	15	19	9	664	99.0	-199797.0	2501.0	26284.0
26	15	19	9	665	100.0	-199892.0	2525.0	40814.0
26	15	19	9	666	101.0	-199956.0	2520.0	47726.0
26	15	19	9	667	102.0	-199856.0	2513.0	43016.0
26	15	19	9	667	103.0	-199795.0	2517.0	30464.0
26	15	19	9	668	104.0	-199801.0	2549.0	19058.0
26	15	19	9	668	105.0	-199730.0	2576.0	11192.0
26	15	19	9	669	106.0	-199756.0	2612.0	6344.0
26	15	19	9	670	107.0	-199671.0	2663.0	10603.0
26	15	19	9	671	108.0	-199555.0	2689.0	22522.0
26	15	19	9	671	109.0	-199498.0	2701.0	37934.0
26	15	19	9	672	110.0	-199619.0	2713.0	50427.0
26	15	19	9	673	111.0	-199601.0	2737.0	55898.0
26	15	19	9	673	112.0	-199666.0	2772.0	50563.0
26	15	19	9	674	114.0	-199959.0	2800.0	20260.0
26	15	19	9	675	115.0	-200063.0	2856.0	9253.0
26	15	19	9	675	116.0	-200081.0	2908.0	5261.0
26	15	19	9	676	117.0	-200057.0	2959.0	7549.0
26	15	19	9	676	118.0	-200250.0	3031.0	16288.0
26	15	19	9	677	119.0	-200324.0	3069.0	32405.0
26	15	19	9	678	120.0	-200562.0	3109.0	46939.0
26	15	19	9	709	121.0	-200694.0	3143.0	53242.0
26	15	19	9	709	122.0	-200686.0	3178.0	50225.0
26	15	19	9	710	123.0	-200826.0	3224.0	37026.0
26	15	19	9	711	124.0	-200837.0	3246.0	23987.0
26	15	19	9	712	125.0	-200782.0	3289.0	15053.0
26	15	19	9	712	126.0	-200670.0	3339.0	12084.0
26	15	19	9	713	127.0	-200581.0	3363.0	17199.0
26	15	19	9	714	128.0	-200312.0	3405.0	27254.0
26	15	19	9	715	129.0	-200335.0	3421.0	42682.0
26	15	19	9	715	130.0	-200391.0	3451.0	55678.0
26	15	19	9	716	131.0	-200376.0	3478.0	60377.0
26	15	19	9	717	132.0	-200301.0	3509.0	54620.0
26	15	19	9	717	133.0	-200282.0	3516.0	41513.0
26	15	19	9	718	134.0	-200248.0	3536.0	27064.0
26	15	19	9	719	135.0	-200329.0	3576.0	17092.0
26	15	19	9	719	137.0	-200452.0	3668.0	16729.0
26	15	19	9	720	138.0	-200305.0	3701.0	27034.0
26	15	19	9	720	139.0	-200383.0	3749.0	39784.0
26	15	19	9	721	140.0	-200526.0	3777.0	50999.0
26	15	19	9	722	141.0	-200587.0	3808.0	55293.0
26	15	19	9	722	142.0	-200468.0	3849.0	49991.0
26	15	19	9	753	143.0	-200179.0	3886.0	35542.0
26	15	19	9	754	144.0	-199837.0	3939.0	21714.0
26	15	19	9	755	145.0	-199629.0	3991.0	11736.0
26	15	19	9	755	146.0	-199638.0	4026.0	7269.0
26	15	19	9	756	147.0	-199705.0	4044.0	11648.0
26	15	19	9	757	148.0	-199922.0	4067.0	21578.0
26	15	19	9	757	149.0	-200107.0	4076.0	34711.0
26	15	19	9	758	150.0	-200058.0	4101.0	47069.0
26	15	19	9	759	151.0	-200050.0	4129.0	51349.0
26	15	19	9	759	152.0	-200007.0	4148.0	46816.0
26	15	19	9	760	153.0	-199979.0	4146.0	35273.0
26	15	19	9	761	154.0	-199932.0	4183.0	22830.0
26	15	19	9	761	155.0	-199938.0	4211.0	13762.0
26	15	19	9	762	156.0	-199892.0	4242.0	10559.0
26	15	19	9	763	157.0	-199744.0	4284.0	13418.0
26	15	19	9	763	159.0	-199765.0	4329.0	35116.0
26	15	19	9	764	160.0	-199838.0	4339.0	47833.0
26	15	19	9	764	161.0	-200014.0	4366.0	54898.0
26	15	19	9	765	162.0	-199986.0	4396.0	49746.0
26	15	19	9	766	163.0	-200109.0	4432.0	34880.0
26	15	19	9	766	164.0	-200130.0	4465.0	20003.0
26	15	19	9	798	165.0	-200185.0	4528.0	11374.0
26	15	19	9	799	166.0	-200207.0	4579.0	9071.0
26	15	19	9	815	167.0	-200040.0	4602.0	12396.0
26	15	19	9	816	168.0	-199855.0	4634.0	21901.0
26	15	19	9	816	169.0	-199764.0	4640.0	35974.0
26	15	19	9	817	170.0	-199782.0	4647.0	48688.0
26	15	19	9	818	171.0	-199986.0	4662.0	54368.0
26	15	19	9	818	172.0	-200237.0	4657.0	49689.0
26	15	19	9	819	173.0	-200209.0	4639.0	35994.0
26	15	19	9	819	174.0	-200177.0	4664.0	21244.0
26	15	19	9	820	175.0	-200202.0	4683.0	12233.0
26	15	19	9	820	176.0	-200198.0	4704.0	8588.0
26	15	19	9	821	177.0	-200355.0	4742.0	12253.0
26	15	19	9	822	178.0	-200431.0	4753.0	22111.0
26	15	19	9	822	179.0	-200408.0	4772.0	36614.0
26	15	19	9	823	181.0	-200211.0	4771.0	57219.0
26	15	19	9	823	182.0	-200056.0	4764.0	51836.0
26	15	19	9	824	183.0	-199986.0	4793.0	36788.0
26	15	19	9	824	184.0	-199876.0	4845.0	22675.0
26	15	19	9	825	185.0	-199837.0	4879.0	12691.0
26	15	19	9	826	186.0	-199870.0	4899.0	9074.0
26	15	19	9	826	187.0	-199947.0	4943.0	12670.0
26	15	19	9	843	188.0	-200077.0	4971.0	21741.0
26	15	19	9	843	189.0	-200099.0	4992.0	35739.0
26	15	19	9	844	190.0	-200153.0	5008.0	50160.0
26	15	19	9	845	191.0	-200151.0	5018.0	55962.0
26	15	19	9	846	192.0	-200196.0	5021.0	50281.0
26	15	19	9	846	193.0	-200191.0	5008.0	35964.0
26	15	19	9	847	194.0	-200221.0	5014.0	20889.0
26	15	19	9	847	195.0	-200071.0	5028.0	10107.0
26	15	19	9	848	196.0	-200078.0	5049.0	7043.0
26	15	19	9	849	197.0	-200072.0	5073.0	11538.0
26	15	19	9	849	198.0	-200004.0	5091.0	21438.0
26	15	19	9	850	199.0	-199711.0	5086.0	35953.0
26	15	19	9	851	200.0	-199269.0	5087.0	49948.0
26	15	19	9	852	201.0	-199187.0	5080.0	55223.0
26	15	19	9	852	202.0	-199459.0	5069.0	50180.0
26	15	19	9	853	204.0	-199709.0	5080.0	22376.0
26	15	19	9	854	205.0	-199672.0	5102.0	14228.0
26	15	19	9	854	206.0	-199631.0	5150.0	11859.0
26	15	19	9	855	207.0	-199415.0	5169.0	15333.0
26	15	19	9	855	208.0	-199327.0	5164.0	25016.0
26	15	19	9	856	209.0	-199576.0	5196.0	39254.0
26	15	19	9	888	210.0	-199784.0	5224.0	51049.0
26	15	19	9	889	211.0	-199981.0	5223.0	56046.0
26	15	19	9	889	212.0	-200130.0	5218.0	51075.0
26	15	19	9	890	213.0	-200169.0	5216.0	36717.0
26	15	19	9	891	214.0	-200130.0	5221.0	23149.0
26	15	19	9	891	215.0	-199896.0	5243.0	15451.0
26	15	19	9	892	216.0	-199756.0	5254.0	11605.0
26	15	19	9	893	217.0	-199711.0	5249.0	15199.0
26	15	19	9	893	218.0	-199819.0	5236.0	24331.0
26	15	19	9	894	219.0	-200023.0	5242.0	36794.0
26	15	19	9	895	220.0	-200112.0	5243.0	46635.0
26	15	19	9	895	221.0	-200038.0	5223.0	50133.0
26	15	19	9	896	222.0	-199976.0	5208.0	44997.0
26	15	19	9	897	223.0	-199816.0	5216.0	31521.0
26	15	19	9	897	224.0	-199642.0	5215.0	17289.0
26	15	19	9	898	226.0	-199501.0	5223.0	4089.0
26	15	19	9	899	227.0	-199641.0	5244.0	8064.0
26	15	19	9	899	228.0	-199973.0	5242.0	17308.0
26	15	19	9	900	229.0	-200168.0	5249.0	30672.0
26	15	19	9	900	230.0	-200202.0	5294.0	42571.0
26	15	19	9	901	231.0	-200184.0	5303.0	49219.0
26	15	19	9	902	232.0	-200062.0	5292.0	46069.0
26	15	19	9	933	233.0	-200006.0	5300.0	32266.0
26	15	19	9	934	234.0	-200001.0	5307.0	19569.0
26	15	19	9	935	235.0	-200014.0	5324.0	12310.0
26	15	19	9	936	236.0	-200182.0	5345.0	9566.0
26	15	19	9	936	237.0	-200243.0	5355.0	13144.0
26	15	19	9	937	238.0	-200401.0	5351.0	22279.0
26	15	19	9	938	239.0	-200382.0	5348.0	36560.0
26	15	19	9	938	240.0	-200438.0	5350.0	50356.0
26	15	19	9	939	241.0	-200449.0	5339.0	55697.0
26	15	19	9	940	242.0	-200432.0	5315.0	50232.0
26	15	19	9	940	243.0	-200294.0	5318.0	36026.0
26	15	19	9	941	244.0	-200301.0	5331.0	22793.0
26	15	19	9	942	245.0	-200279.0	5326.0	14181.0
26	15	19	9	942	246.0	-200379.0	5319.0	10122.0
26	15	19	9	943	247.0	-200406.0	5329.0	15599.0
26	15	19	9	944	249.0	-200236.0	5348.0	38075.0
26	15	19	9	944	250.0	-200242.0	5336.0	49872.0
26	15	19	9	945	251.0	-200354.0	5337.0	54605.0
26	15	19	9	945	252.0	-200447.0	5353.0	47434.0
26	15	19	9	946	253.0	-200504.0	5358.0	32483.0
26	15	19	9	946	254.0	-200544.0	5392.0	18054.0
26	15	19	9	978	255.0	-200582.0	5416.0	8469.0
26	15	19	9	979	0.0	-200536.0	5439.0	5801.0
26	15	19	9	979	1.0	-200325.0	5444.0	8884.0
26	15	19	9	980	2.0	-199964.0	5448.0	17459.0
26	15	19	9	981	3.0	-199816.0	5464.0	30278.0
26	15	19	9	981	4.0	-199771.0	5425.0	41393.0
26	15	19	9	982	5.0	-199958.0	5433.0	44607.0
26	15	19	9	983	6.0	-200195.0	5426.0	38569.0
26	15	19	9	983	7.0	-200434.0	5423.0	26371.0
26	15	19	9	984	8.0	-200643.0	5428.0	14513.0
26	15	19	9	985	9.0	-200674.0	5437.0	6011.0
26	15	19	9	986	10.0	-200686.0	5441.0	1740.0
26	15	19	9	986	11.0	-200544.0	5444.0	6171.0
26	15	19	9	987	12.0	-200305.0	5459.0	18015.0
26	15	19	9	987	13.0	-200152.0	5453.0	34443.0
26	15	19	9	988	15.0	-200039.0	5468.0	50256.0
26	15	19	9	989	16.0	-200327.0	5425.0	43431.0
26	15	19	9	989	17.0	-200559.0	5439.0	28846.0
26	15	19	9	990	18.0	-200667.0	5473.0	14305.0
26	15	19	9	991	19.0	-200710.0	5507.0	4940.0
26	15	19	9	991	20.0	-200718.0	5531.0	1163.0
26	15	19	9	992	21.0	-200560.0	5559.0	4919.0
26	15	19	10	22	22.0	-200398.0	5583.0	16345.0
26	15	19	10	23	23.0	-200232.0	5617.0	31786.0
26	15	19	10	24	24.0	-200036.0	5595.0	44091.0
26	15	19	10	25	25.0	-200024.0	5571.0	48633.0
26	15	19	10	25	26.0	-200071.0	5556.0	43191.0
26	15	19	10	26	27.0	-200094.0	5562.0	28571.0
26	15	19	10	27	28.0	-200180.0	5571.0	13817.0
26	15	19	10	27	29.0	-200256.0	5581.0	3984.0
26	15	19	10	28	30.0	-200193.0	5583.0	334.0
26	15	19	10	29	31.0	-200325.0	5604.0	4975.0
26	15	19	10	29	32.0	-200452.0	5609.0	16595.0
26	15	19	10	30	33.0	-200500.0	5603.0	31765.0
26	15	19	10	31	34.0	-200362.0	5597.0	44494.0
26	15	19	10	31	35.0	-200252.0	5592.0	49366.0
26	15	19	10	32	36.0	-200196.0	5586.0	44293.0
26	15	19	10	33	38.0	-200325.0	5600.0	15610.0
26	15	19	10	33	39.0	-200554.0	5608.0	6818.0
26	15	19	10	34	40.0	-200599.0	5651.0	3275.0
26	15	19	10	34	41.0	-200332.0	5674.0	4930.0
26	15	19	10	35	42.0	-200057.0	5690.0	13335.0
26	15	19	10	36	43.0	-199917.0	5694.0	25338.0
26	15	19	10	68	44.0	-199963.0	5706.0	35046.0
26	15	19	10	68	45.0	-200120.0	5711.0	37586.0
26	15	19	10	69	46.0	-200239.0	5689.0	29750.0
26	15	19	10	70	47.0	-200345.0	5674.0	14709.0
26	15	19	10	70	48.0	-200387.0	5702.0	1798.0
26	15	19	10	71	49.0	-200376.0	5718.0	-6018.0
26	15	19	10	72	50.0	-200329.0	5718.0	-9022.0
26	15	19	10	72	51.0	-200318.0	5729.0	-3243.0
26	15	19	10	73	52.0	-200256.0	5727.0	9884.0
26	15	19	10	73	53.0	-200236.0	5710.0	25699.0
26	15	19	10	74	54.0	-200351.0	5698.0	38061.0
26	15	19	10	75	55.0	-200392.0	5676.0	41928.0
26	15	19	10	75	56.0	-200427.0	5663.0	35548.0
26	15	19	10	76	57.0	-200353.0	5646.0	21856.0
26	15	19	10	76	58.0	-200129.0	5644.0	8674.0
26	15	19	10	77	60.0	-199870.0	5663.0	-419.0
26	15	19	10	78	61.0	-199864.0	5655.0	5423.0
26	15	19	10	78	62.0	-200119.0	5676.0	17998.0
26	15	19	10	79	63.0	-200212.0	5687.0	33954.0
26	15	19	10	79	64.0	-200364.0	5681.0	46171.0
26	15	19	10	80	65.0	-200472.0	5684.0	50328.0
26	15	19	10	113	66.0	-200448.0	5700.0	45020.0
26	15	19	10	113	67.0	-200286.0	5703.0	32110.0
26	15	19	10	114	68.0	-200147.0	5708.0	20752.0
26	15	19	10	115	69.0	-199976.0	5698.0	11753.0
26	15	19	10	115	70.0	-199794.0	5706.0	7678.0
26	15	19	10	116	71.0	-199649.0	5699.0	12567.0
26	15	19	10	116	72.0	-199657.0	5684.0	23891.0
26	15	19	10	117	73.0	-199834.0	5686.0	39243.0
26	15	19	10	118	74.0	-199987.0	5666.0	52261.0
26	15	19	10	118	75.0	-200086.0	5656.0	55491.0
26	15	19	10	119	76.0	-200191.0	5636.0	48427.0
26	15	19	10	119	77.0	-200259.0	5619.0	34992.0
26	15	19	10	120	78.0	-200372.0	5624.0	21532.0
26	15	19	10	121	79.0	-200319.0	5629.0	11678.0
26	15	19	10	121	80.0	-200218.0	5631.0	8622.0
26	15	19	10	122	83.0	-200212.0	5600.0	35816.0
26	15	19	10	122	84.0	-200314.0	5585.0	45543.0
26	15	19	10	123	85.0	-200435.0	5591.0	49640.0
26	15	19	10	123	86.0	-200359.0	5606.0	45439.0
26	15	19	10	132	87.0	-200413.0	5623.0	30659.0
26	15	19	10	133	88.0	-200497.0	5621.0	17559.0
26	15	19	10	158	89.0	-200572.0	5631.0	11101.0
26	15	19	10	159	90.0	-200564.0	5641.0	9621.0
26	15	19	10	160	91.0	-200466.0	5651.0	12983.0
26	15	19	10	160	92.0	-200293.0	5654.0	20959.0
26	15	19	10	161	93.0	-200248.0	5614.0	36264.0
26	15	19	10	162	94.0	-200126.0	5602.0	49332.0
26	15	19	10	162	95.0	-200044.0	5598.0	53008.0
26	15	19	10	163	96.0	-199996.0	5553.0	45899.0
26	15	19	10	163	97.0	-200095.0	5543.0	31438.0
26	15	19	10	164	98.0	-200161.0	5524.0	17695.0
26	15	19	10	165	99.0	-200225.0	5526.0	9871.0
26	15	19	10	165	100.0	-200340.0	5532.0	6951.0
26	15	19	10	166	101.0	-200404.0	5523.0	9411.0
26	15	19	10	166	102.0	-200393.0	5503.0	17292.0
26	15	19	10	167	103.0	-200394.0	5487.0	29959.0
26	15	19	10	168	105.0	-200578.0	5460.0	43461.0
26	15	19	10	168	106.0	-200599.0	5453.0	36633.0
26	15	19	10	169	107.0	-200607.0	5453.0	23126.0
26	15	19	10	169	108.0	-200617.0	5449.0	9110.0
26	15	19	10	170	109.0	-200722.0	5458.0	1295.0
26	15	19	10	171	110.0	-200787.0	5477.0	418.0
26	15	19	10	202	111.0	-200817.0	5501.0	5651.0
26	15	19	10	204	112.0	-200856.0	5509.0	16472.0
26	15	19	10	205	113.0	-200889.0	5508.0	30728.0
26	15	19	10	206	114.0	-200856.0	5469.0	43526.0
26	15	19	10	207	115.0	-200862.0	5439.0	49186.0
26	15	19	10	207	116.0	-200786.0	5421.0	43401.0
26	15	19	10	208	117.0	-200579.0	5395.0	28682.0
26	15	19	10	208	118.0	-200506.0	5381.0	14948.0
26	15	19	10	209	119.0	-200476.0	5376.0	6733.0
26	15	19	10	210	120.0	-200417.0	5367.0	4169.0
26	15	19	10	210	121.0	-200403.0	5363.0	8926.0
26	15	19	10	211	122.0	-200429.0	5342.0	19191.0
26	15	19	10	212	123.0	-200649.0	5313.0	33135.0
26	15	19	10	213	124.0	-200910.0	5280.0	44733.0
26	15	19	10	214	125.0	-201104.0	5264.0	46831.0
26	15	19	10	214	127.0	-201356.0	5211.0	24403.0
26	15	19	10	215	128.0	-201355.0	5193.0	11893.0
26	15	19	10	216	129.0	-201219.0	5206.0	3285.0
26	15	19	10	216	130.0	-201059.0	5221.0	1443.0
26	15	19	10	217	131.0	-200830.0	5235.0	5734.0
26	15	19	10	217	132.0	-200537.0	5220.0	16521.0
26	15	19	10	218	133.0	-200219.0	5216.0	31428.0
26	15	19	10	294	134.0	-200086.0	5224.0	44486.0
26	15	19	10	295	135.0	-200007.0	5196.0	48577.0
26	15	19	10	296	136.0	-199867.0	5164.0	42454.0
26	15	19	10	297	137.0	-199774.0	5140.0	28559.0
26	15	19	10	298	138.0	-199729.0	5107.0	15172.0
26	15	19	10	299	139.0	-199701.0	5116.0	7694.0
26	15	19	10	300	140.0	-199544.0	5126.0	6366.0
26	15	19	10	300	141.0	-199599.0	5096.0	12383.0
26	15	19	10	301	142.0	-199592.0	5079.0	24099.0
26	15	19	10	301	143.0	-199498.0	5061.0	38571.0
26	15	19	10	302	144.0	-199389.0	5052.0	50536.0
26	15	19	10	303	145.0	-199471.0	5021.0	53924.0
26	15	19	10	303	146.0	-199518.0	4991.0	45729.0
26	15	19	10	304	147.0	-199536.0	4961.0	31352.0
26	15	19	10	304	148.0	-199720.0	4945.0	18081.0
26	15	19	10	305	172.0	-200576.0	4823.0	19927.0
26	15	19	10	306	173.0	-200446.0	4829.0	34829.0
26	15	19	10	306	174.0	-200309.0	4850.0	44829.0
26	15	19	10	307	175.0	-200279.0	4875.0	48253.0
26	15	19	10	307	176.0	-200097.0	4905.0	42989.0
26	15	19	10	308	177.0	-199832.0	4916.0	29284.0
26	15	19	10	308	178.0	-199591.0	4949.0	16853.0
26	15	19	10	338	179.0	-199537.0	4993.0	8956.0
26	15	19	10	339	180.0	-199412.0	5031.0	4823.0
26	15	19	10	340	181.0	-199271.0	5073.0	8933.0
26	15	19	10	340	182.0	-199211.0	5088.0	20258.0
26	15	19	10	341	183.0	-199267.0	5103.0	34368.0
26	15	19	10	342	184.0	-199320.0	5126.0	45210.0
26	15	19	10	342	185.0	-199506.0	5140.0	48847.0
26	15	19	10	343	186.0	-199524.0	5142.0	41547.0
26	15	19	10	344	187.0	-199531.0	5164.0	26732.0
26	15	19	10	344	188.0	-199674.0	5191.0	12064.0
26	15	19	10	345	189.0	-199690.0	5213.0	2404.0
26	15	19	10	345	190.0	-199669.0	5263.0	329.0
26	15	19	10	346	191.0	-199740.0	5283.0	5408.0
26	15	19	10	347	192.0	-199747.0	5321.0	16860.0
26	15	19	10	347	193.0	-199759.0	5339.0	32196.0
26	15	19	10	348	195.0	-199977.0	5361.0	45169.0
26	15	19	10	349	196.0	-199762.0	5378.0	37478.0
26	15	19	10	349	197.0	-199756.0	5431.0	22421.0
26	15	19	10	350	198.0	-199872.0	5473.0	9508.0
26	15	19	10	350	199.0	-200099.0	5525.0	819.0
26	15	19	10	351	200.0	-200236.0	5594.0	-1972.0
26	15	19	10	429	201.0	-200046.0	5638.0	2924.0
26	15	19	10	430	202.0	-199866.0	5666.0	14448.0
26	15	19	10	431	203.0	-199824.0	5697.0	30009.0
26	15	19	10	431	204.0	-199977.0	5717.0	41393.0
26	15	19	10	432	205.0	-200277.0	5723.0	44989.0
26	15	19	10	432	206.0	-200286.0	5725.0	40705.0
26	15	19	10	433	207.0	-200289.0	5756.0	28226.0
26	15	19	10	434	208.0	-200320.0	5789.0	16619.0
26	15	19	10	434	209.0	-200225.0	5836.0	8074.0
26	15	19	10	435	210.0	-200182.0	5858.0	6066.0
26	15	19	10	435	211.0	-200156.0	5881.0	10843.0
26	15	19	10	436	212.0	-200073.0	5902.0	20839.0
26	15	19	10	437	213.0	-200113.0	5911.0	36158.0
26	15	19	10	437	214.0	-200176.0	5930.0	47686.0
26	15	19	10	438	215.0	-200200.0	5938.0	50088.0
26	15	19	10	438	217.0	-200206.0	5958.0	29051.0
26	15	19	10	439	240.0	-199291.0	6306.0	2268.0
26	15	19	10	440	241.0	-199095.0	6333.0	6484.0
26	15	19	10	440	242.0	-199049.0	6358.0	17236.0
26	15	19	10	441	243.0	-198865.0	6374.0	31830.0
26	15	19	10	441	244.0	-198699.0	6385.0	42166.0
26	15	19	10	442	245.0	-198662.0	6400.0	44973.0
26	15	19	10	473	246.0	-198612.0	6422.0	38022.0
26	15	19	10	474	247.0	-198834.0	6436.0	22855.0
26	15	19	10	475	248.0	-199048.0	6456.0	9341.0
26	15	19	10	475	249.0	-199255.0	6484.0	2856.0
26	15	19	10	476	250.0	-199446.0	6491.0	2005.0
26	15	19	10	476	251.0	-199629.0	6516.0	5458.0
26	15	19	10	477	252.0	-199826.0	6519.0	15487.0
26	15	19	10	478	253.0	-199921.0	6506.0	31134.0
26	15	19	10	478	254.0	-199904.0	6494.0	42373.0
26	15	19	10	479	255.0	-199777.0	6491.0	45017.0
26	15	19	10	480	0.0	-199931.0	6494.0	38071.0
26	15	19	10	480	1.0	-199941.0	6509.0	25364.0
26	15	19	10	481	2.0	-199868.0	6514.0	12398.0
26	15	19	10	481	3.0	-199826.0	6517.0	3748.0
26	15	19	10	482	4.0	-199900.0	6523.0	1610.0
26	15	19	10	483	6.0	-199929.0	6556.0	15511.0
26	15	19	10	483	7.0	-199930.0	6551.0	28557.0
26	15	19	10	484	8.0	-199866.0	6563.0	39044.0
26	15	19	10	485	9.0	-200026.0	6573.0	41962.0
26	15	19	10	485	10.0	-200242.0	6591.0	35102.0
26	15	19	10	486	11.0	-200259.0	6614.0	21079.0
26	15	19	10	518	12.0	-200181.0	6614.0	7787.0
26	15	19	10	519	13.0	-200090.0	6650.0	-901.0
26	15	19	10	519	14.0	-199982.0	6675.0	-2391.0
26	15	19	10	520	15.0	-199884.0	6680.0	4019.0
26	15	19	10	521	16.0	-199837.0	6687.0	16214.0
26	15	19	10	521	17.0	-199891.0	6662.0	32401.0
26	15	19	10	563	18.0	-199812.0	6644.0	45296.0
26	15	19	10	564	19.0	-199801.0	6633.0	49351.0
26	15	19	10	565	20.0	-199829.0	6624.0	41613.0
26	15	19	10	565	21.0	-200000.0	6612.0	27331.0
26	15	19	10	566	22.0	-200072.0	6609.0	15105.0
26	15	19	10	567	23.0	-200151.0	6638.0	6877.0
26	15	19	10	567	24.0	-200179.0	6641.0	3093.0
26	15	19	10	568	25.0	-200296.0	6640.0	5456.0
26	15	19	10	569	26.0	-200387.0	6652.0	15326.0
26	15	19	10	569	28.0	-200411.0	6627.0	41491.0
26	15	19	10	570	29.0	-200362.0	6603.0	45910.0
26	15	19	10	571	30.0	-200363.0	6584.0	38653.0
26	15	19	10	571	31.0	-200502.0	6606.0	23612.0
26	15	19	10	572	32.0	-200474.0	6629.0	10499.0
26	15	19	10	572	33.0	-200471.0	6632.0	1840.0
26	15	19	10	573	51.0	-200941.0	6512.0	16169.0
26	15	19	10	574	52.0	-200914.0	6518.0	3613.0
26	15	19	10	574	53.0	-200896.0	6533.0	-3753.0
26	15	19	10	575	54.0	-201066.0	6548.0	-4405.0
26	15	19	10	576	55.0	-201119.0	6579.0	1407.0
26	15	19	10	576	56.0	-201020.0	6589.0	12520.0
26	15	19	10	608	57.0	-200894.0	6594.0	28748.0
26	15	19	10	609	58.0	-200861.0	6592.0	39691.0
26	15	19	10	610	59.0	-200810.0	6575.0	40166.0
26	15	19	10	610	60.0	-200699.0	6573.0	32248.0
26	15	19	10	611	61.0	-200706.0	6571.0	16633.0
26	15	19	10	612	62.0	-200631.0	6566.0	3206.0
26	15	19	10	612	63.0	-200652.0	6559.0	-2646.0
26	15	19	10	613	64.0	-200651.0	6560.0	-3259.0
26	15	19	10	614	65.0	-200703.0	6559.0	2361.0
26	15	19	10	614	66.0	-200594.0	6556.0	14033.0
26	15	19	10	615	67.0	-200666.0	6538.0	29800.0
26	15	19	10	616	68.0	-200654.0	6524.0	41568.0
26	15	19	10	616	69.0	-200505.0	6511.0	44783.0
26	15	19	10	617	70.0	-200417.0	6508.0	35850.0
26	15	19	10	617	71.0	-200339.0	6488.0	21786.0
26	15	19	10	618	73.0	-200231.0	6485.0	1299.0
26	15	19	10	619	74.0	-200194.0	6508.0	-879.0
26	15	19	10	619	75.0	-200097.0	6521.0	3023.0
26	15	19	10	620	76.0	-200092.0	6541.0	15401.0
26	15	19	10	621	77.0	-199962.0	6549.0	32025.0
26	15	19	10	621	78.0	-199891.0	6562.0	44484.0
26	15	19	10	622	79.0	-199836.0	6583.0	46790.0
26	15	19	10	653	80.0	-199877.0	6574.0	38629.0
26	15	19	10	699	81.0	-199912.0	6571.0	25858.0
26	15	19	10	700	82.0	-200001.0	6573.0	15138.0
26	15	19	10	700	83.0	-200024.0	6554.0	6732.0
26	15	19	10	701	84.0	-200102.0	6575.0	5069.0
26	15	19	10	702	85.0	-200072.0	6569.0	10352.0
26	15	19	10	702	86.0	-199994.0	6558.0	20895.0
26	15	19	10	703	87.0	-199975.0	6553.0	35286.0
26	15	19	10	704	88.0	-199902.0	6556.0	46838.0
26	15	19	10	704	89.0	-199879.0	6527.0	48975.0
26	15	19	10	705	90.0	-199969.0	6501.0	41535.0
26	15	19	10	705	91.0	-200009.0	6510.0	28731.0
26	15	19	10	706	92.0	-200070.0	6501.0	16490.0
26	15	19	10	707	93.0	-200214.0	6486.0	9443.0
26	15	19	10	707	94.0	-200288.0	6507.0	8146.0
26	15	19	10	708	96.0	-200275.0	6497.0	23699.0
26	15	19	10	709	97.0	-200197.0	6482.0	39429.0
26	15	19	10	709	119.0	-200225.0	6369.0	54446.0
26	15	19	10	710	120.0	-200346.0	6358.0	46793.0
26	15	19	10	710	121.0	-200391.0	6355.0	32724.0
26	15	19	10	711	122.0	-200452.0	6371.0	19438.0
26	15	19	10	711	123.0	-200456.0	6378.0	10821.0
26	15	19	10	712	124.0	-200484.0	6393.0	9884.0
26	15	19	10	743	125.0	-200366.0	6417.0	15016.0
26	15	19	10	744	126.0	-200241.0	6417.0	25468.0
26	15	19	10	744	127.0	-200169.0	6428.0	39626.0
26	15	19	10	745	128.0	-200022.0	6409.0	49831.0
26	15	19	10	746	129.0	-199884.0	6381.0	52889.0
26	15	19	10	746	130.0	-199798.0	6364.0	45813.0
26	15	19	10	747	131.0	-199794.0	6349.0	30729.0
26	15	19	10	748	132.0	-199758.0	6361.0	18504.0
26	15	19	10	748	133.0	-199830.0	6349.0	10384.0
26	15	19	10	749	134.0	-199834.0	6334.0	8053.0
26	15	19	10	749	135.0	-199914.0	6339.0	12898.0
26	15	19	10	750	136.0	-199944.0	6333.0	24892.0
26	15	19	10	751	137.0	-199934.0	6313.0	39419.0
26	15	19	10	751	138.0	-199907.0	6271.0	49798.0
26	15	19	10	752	139.0	-199875.0	6260.0	51504.0
26	15	19	10	752	141.0	-199644.0	6233.0	28821.0
26	15	19	10	753	142.0	-199494.0	6230.0	16407.0
26	15	19	10	754	143.0	-199426.0	6249.0	9703.0
26	15	19	10	754	144.0	-199386.0	6266.0	8812.0
26	15	19	10	755	145.0	-199339.0	6272.0	14287.0
26	15	19	10	755	146.0	-199337.0	6285.0	24596.0
26	15	19	10	787	147.0	-199227.0	6294.0	38969.0
26	15	19	10	788	148.0	-199129.0	6285.0	48303.0
26	15	19	10	789	149.0	-199222.0	6258.0	49005.0
26	15	19	10	790	150.0	-199332.0	6228.0	40601.0
26	15	19	10	790	151.0	-199367.0	6229.0	25353.0
26	15	19	10	791	152.0	-199416.0	6213.0	12819.0
26	15	19	10	792	153.0	-199587.0	6205.0	6608.0
26	15	19	10	792	154.0	-199755.0	6194.0	4808.0
26	15	19	10	793	155.0	-199889.0	6189.0	10208.0
26	15	19	10	793	156.0	-200013.0	6171.0	23428.0
26	15	19	10	794	157.0	-200174.0	6143.0	38765.0
26	15	19	10	795	158.0	-200319.0	6118.0	49501.0
26	15	19	10	795	159.0	-200389.0	6092.0	51926.0
26	15	19	10	796	160.0	-200471.0	6068.0	44500.0
26	15	19	10	796	161.0	-200583.0	6064.0	31314.0
26	15	19	10	797	163.0	-200529.0	6044.0	9513.0
26	15	19	10	798	164.0	-200478.0	6030.0	8344.0
26	15	19	10	798	165.0	-200419.0	6045.0	12647.0
26	15	19	10	799	166.0	-200371.0	6060.0	22934.0
26	15	19	10	800	167.0	-200385.0	6058.0	37281.0
26	15	19	10	800	168.0	-200241.0	6056.0	47468.0
26	15	19	10	801	169.0	-200301.0	6036.0	48190.0
26	15	19	10	834	170.0	-200427.0	6021.0	40160.0
26	15	19	10	835	171.0	-200334.0	6030.0	26270.0
26	15	19	10	836	172.0	-200432.0	6027.0	14031.0
26	15	19	10	836	173.0	-200464.0	6004.0	6816.0
26	15	19	10	837	174.0	-200411.0	5993.0	6513.0
26	15	19	10	838	175.0	-200461.0	5991.0	12327.0
26	15	19	10	838	176.0	-200487.0	5989.0	24384.0
26	15	19	10	839	177.0	-200492.0	5941.0	41817.0
26	15	19	10	839	178.0	-200552.0	5913.0	52727.0
26	15	19	10	840	179.0	-200612.0	5890.0	52833.0
26	15	19	10	841	180.0	-200596.0	5878.0	43938.0
26	15	19	10	841	181.0	-200601.0	5859.0	30389.0
26	15	19	10	842	182.0	-200541.0	5834.0	19342.0
26	15	19	10	843	183.0	-200606.0	5837.0	11796.0
26	15	19	10	843	184.0	-200610.0	5826.0	8810.0
26	15	19	10	844	186.0	-200622.0	5801.0	23569.0
26	15	19	10	844	187.0	-200671.0	5798.0	37603.0
26	15	19	10	845	188.0	-200579.0	5794.0	46629.0
26	15	19	10	845	189.0	-200489.0	5778.0	46174.0
26	15	19	10	846	190.0	-200386.0	5761.0	36632.0
26	15	19	10	847	191.0	-200431.0	5766.0	21621.0
26	15	19	10	878	192.0	-200496.0	5780.0	9954.0
26	15	19	10	879	193.0	-200364.0	5781.0	2946.0
26	15	19	10	880	194.0	-200264.0	5764.0	974.0
26	15	19	10	880	195.0	-200199.0	5758.0	7545.0
26	15	19	10	881	196.0	-200251.0	5725.0	19144.0
26	15	19	10	882	197.0	-200221.0	5703.0	32661.0
26	15	19	10	882	198.0	-200292.0	5684.0	41399.0
26	15	19	10	883	199.0	-200333.0	5654.0	43553.0
26	15	19	10	884	200.0	-200362.0	5630.0	36004.0
26	15	19	10	884	201.0	-200281.0	5602.0	22406.0
26	15	19	10	885	202.0	-200216.0	5584.0	12040.0
26	15	19	10	886	203.0	-200150.0	5584.0	4568.0
26	15	19	10	886	204.0	-200287.0	5574.0	1111.0
26	15	19	10	887	205.0	-200371.0	5554.0	6386.0
26	15	19	10	888	206.0	-200399.0	5536.0	17993.0
26	15	19	10	888	208.0	-200471.0	5480.0	43573.0
26	15	19	10	889	209.0	-200387.0	5466.0	44864.0
26	15	19	10	889	210.0	-200456.0	5466.0	36096.0
26	15	19	10	890	211.0	-200370.0	5468.0	20836.0
26	15	19	10	891	212.0	-200409.0	5483.0	6856.0
26	15	19	10	891	213.0	-200447.0	5474.0	-999.0
26	15	19	10	923	214.0	-200511.0	5483.0	-3784.0
26	15	19	10	924	215.0	-200542.0	5482.0	803.0
26	15	19	10	925	216.0	-200511.0	5458.0	10693.0
26	15	19	10	925	217.0	-200430.0	5454.0	24435.0
26	15	19	10	926	218.0	-200359.0	5423.0	35034.0
26	15	19	10	927	219.0	-200340.0	5381.0	36726.0
26	15	19	10	927	220.0	-200339.0	5364.0	27983.0
26	15	19	10	928	221.0	-200457.0	5342.0	12569.0
26	15	19	10	928	222.0	-200451.0	5331.0	-228.0
26	15	19	10	929	223.0	-200532.0	5313.0	-9022.0
26	15	19	10	930	224.0	-200450.0	5303.0	-9971.0
26	15	19	10	931	225.0	-200421.0	5294.0	-3298.0
26	15	19	10	931	226.0	-200482.0	5283.0	9795.0
26	15	19	10	932	227.0	-200534.0	5271.0	23894.0
26	15	19	10	933	228.0	-200356.0	5246.0	35247.0
26	15	19	10	933	230.0	-200370.0	5192.0	30137.0
26	15	19	10	934	231.0	-200346.0	5161.0	15909.0
26	15	19	10	935	232.0	-200261.0	5180.0	2810.0
26	15	19	10	935	233.0	-200206.0	5211.0	-5137.0
26	15	19	10	936	234.0	-200158.0	5233.0	-8186.0
26	15	19	10	936	235.0	-200248.0	5247.0	-2756.0
26	15	19	10	937	236.0	-200382.0	5263.0	10299.0
26	15	19	10	968	237.0	-200551.0	5274.0	25374.0
26	15	19	10	968	238.0	-200515.0	5266.0	35253.0
26	15	19	10	969	239.0	-200513.0	5257.0	34988.0
26	15	19	10	970	240.0	-200564.0	5252.0	25223.0
26	15	19	10	970	241.0	-200499.0	5250.0	10712.0
26	15	19	10	971	242.0	-200559.0	5253.0	-1041.0
26	15	19	10	972	243.0	-200502.0	5248.0	-8034.0
26	15	19	10	972	244.0	-200594.0	5260.0	-8082.0
26	15	19	10	973	245.0	-200547.0	5291.0	-2949.0
26	15	19	10	974	246.0	-200499.0	5288.0	7551.0
26	15	19	10	975	247.0	-200447.0	5292.0	23337.0
26	15	19	10	975	248.0	-200442.0	5276.0	35567.0
26	15	19	10	976	249.0	-200351.0	5290.0	38495.0
26	15	19	10	977	250.0	-200329.0	5296.0	31199.0
26	15	19	10	978	251.0	-200194.0	5294.0	17480.0
26	15	19	10	979	253.0	-200201.0	5338.0	-1684.0
26	15	19	10	979	254.0	-200168.0	5358.0	-3248.0
26	15	19	10	980	255.0	-200212.0	5416.0	2944.0
26	15	19	10	980	0.0	-200256.0	5443.0	14024.0
26	15	19	10	981	1.0	-200159.0	5464.0	27161.0
26	15	19	10	982	2.0	-200142.0	5493.0	37164.0
26	15	19	11	13	3.0	-200194.0	5531.0	40014.0
26	15	19	11	14	4.0	-200306.0	5561.0	31831.0
26	15	19	11	15	5.0	-200306.0	5567.0	17380.0
26	15	19	11	16	6.0	-200362.0	5601.0	6902.0
26	15	19	11	16	7.0	-200360.0	5661.0	-190.0
26	15	19	11	17	8.0	-200294.0	5678.0	-594.0
26	15	19	11	18	9.0	-200281.0	5702.0	5784.0
26	15	19	11	18	10.0	-200236.0	5718.0	17047.0
26	15	19	11	19	11.0	-200235.0	5722.0	31538.0
26	15	19	11	20	12.0	-200189.0	5742.0	42817.0
26	15	19	11	20	13.0	-200193.0	5760.0	44829.0
26	15	19	11	21	14.0	-200200.0	5760.0	36466.0
26	15	19	11	22	15.0	-200246.0	5794.0	21592.0
26	15	19	11	22	16.0	-200233.0	5830.0	9835.0
26	15	19	11	23	17.0	-200173.0	5850.0	2421.0
26	15	19	11	24	19.0	-200330.0	5911.0	6438.0
26	15	19	11	24	20.0	-200276.0	5927.0	18036.0
26	15	19	11	25	21.0	-200227.0	5962.0	31803.0
26	15	19	11	25	22.0	-200127.0	6004.0	42273.0
26	15	19	11	26	23.0	-200064.0	6028.0	43120.0
26	15	19	11	27	24.0	-199964.0	6061.0	33237.0
26	15	19	11	27	25.0	-199889.0	6104.0	21541.0
26	15	19	11	58	26.0	-199943.0	6146.0	10104.0
26	15	19	11	59	27.0	-199871.0	6181.0	2241.0
26	15	19	11	60	28.0	-199894.0	6231.0	2197.0
26	15	19	11	60	29.0	-199910.0	6265.0	7350.0
26	15	19	11	61	30.0	-200027.0	6276.0	16836.0
26	15	19	11	62	31.0	-200087.0	6258.0	30725.0
26	15	19	11	63	32.0	-200101.0	6266.0	42193.0
26	15	19	11	63	33.0	-200177.0	6278.0	44420.0
26	15	19	11	64	34.0	-200329.0	6297.0	35022.0
26	15	19	11	65	35.0	-200385.0	6317.0	21218.0
26	15	19	11	66	36.0	-200374.0	6341.0	10425.0
26	15	19	11	66	37.0	-200306.0	6372.0	3720.0
26	15	19	11	67	38.0	-200307.0	6387.0	3022.0
26	15	19	11	68	39.0	-200182.0	6395.0	7966.0
26	15	19	11	68	40.0	-200134.0	6399.0	18591.0
26	15	19	11	69	42.0	-200143.0	6418.0	42711.0
26	15	19	11	70	43.0	-200174.0	6424.0	42776.0
26	15	19	11	70	44.0	-200114.0	6456.0	31751.0
26	15	19	11	71	45.0	-200102.0	6477.0	15581.0
26	15	19	11	71	46.0	-200186.0	6509.0	2821.0
26	15	19	11	72	47.0	-200207.0	6561.0	-3757.0
26	15	19	11	109	48.0	-200136.0	6589.0	-3399.0
26	15	19	11	110	49.0	-200154.0	6616.0	3018.0
26	15	19	11	111	50.0	-200132.0	6628.0	12566.0
26	15	19	11	112	51.0	-200144.0	6636.0	26001.0
26	15	19	11	113	52.0	-200264.0	6632.0	34931.0
26	15	19	11	114	53.0	-200234.0	6624.0	34976.0
26	15	19	11	115	54.0	-200252.0	6633.0	26479.0
26	15	19	11	116	55.0	-200300.0	6641.0	12414.0
26	15	19	11	116	56.0	-200333.0	6646.0	-142.0
26	15	19	11	117	57.0	-200388.0	6664.0	-6967.0
26	15	19	11	118	58.0	-200534.0	6670.0	-5825.0
26	15	19	11	118	59.0	-200471.0	6683.0	737.0
26	15	19	11	119	60.0	-200484.0	6679.0	11969.0
26	15	19	11	119	61.0	-200502.0	6669.0	24564.0
26	15	19	11	120	62.0	-200434.0	6673.0	32875.0
26	15	19	11	121	64.0	-200346.0	6683.0	25789.0
26	15	19	11	121	65.0	-200378.0	6690.0	13109.0
26	15	19	11	122	66.0	-200399.0	6707.0	2409.0
26	15	19	11	122	67.0	-200442.0	6733.0	-3707.0
26	15	19	11	123	68.0	-200596.0	6763.0	-3629.0
26	15	19	11	124	69.0	-200606.0	6810.0	2569.0
26	15	19	11	124	70.0	-200589.0	6817.0	13732.0
26	15	19	11	150	71.0	-200652.0	6841.0	27321.0
26	15	19	11	151	72.0	-200699.0	6846.0	34654.0
26	15	19	11	152	73.0	-200751.0	6842.0	34973.0
26	15	19	11	152	74.0	-200696.0	6831.0	27185.0
26	15	19	11	153	75.0	-200658.0	6819.0	13793.0
26	15	19	11	154	76.0	-200723.0	6839.0	3051.0
26	15	19	11	155	77.0	-200688.0	6834.0	-2062.0
26	15	19	11	155	78.0	-200727.0	6834.0	-1888.0
26	15	19	11	156	79.0	-200702.0	6840.0	4319.0
26	15	19	11	157	80.0	-200668.0	6850.0	16371.0
26	15	19	11	157	81.0	-200665.0	6860.0	30963.0
26	15	19	11	158	82.0	-200551.0	6839.0	41358.0
26	15	19	11	158	83.0	-200509.0	6823.0	43374.0
26	15	19	11	159	84.0	-200565.0	6804.0	34860.0
26	15	19	11	160	85.0	-200530.0	6799.0	20008.0
26	15	19	11	160	87.0	-200378.0	6815.0	1233.0
26	15	19	11	161	88.0	-200338.0	6839.0	1572.0
26	15	19	11	161	89.0	-200326.0	6861.0	7341.0
26	15	19	11	162	90.0	-200262.0	6871.0	19080.0
26	15	19	11	163	91.0	-200250.0	6891.0	32916.0
26	15	19	11	163	92.0	-200243.0	6899.0	41669.0
26	15	19	11	193	93.0	-200242.0	6901.0	40374.0
26	15	19	11	194	94.0	-200263.0	6897.0	29294.0
26	15	19	11	195	95.0	-200244.0	6899.0	16263.0
26	15	19	11	196	96.0	-200160.0	6901.0	6093.0
26	15	19	11	196	97.0	-200255.0	6901.0	2628.0
26	15	19	11	197	98.0	-200249.0	6908.0	3852.0
26	15	19	11	198	99.0	-200194.0	6921.0	10783.0
26	15	19	11	198	100.0	-200135.0	6918.0	22134.0
26	15	19	11	199	101.0	-200166.0	6892.0	37404.0
26	15	19	11	200	102.0	-200159.0	6856.0	47253.0
26	15	19	11	201	103.0	-200124.0	6836.0	48627.0
26	15	19	11	202	104.0	-200119.0	6818.0	42621.0
26	15	19	11	203	105.0	-200197.0	6829.0	31663.0
26	15	19	11	203	106.0	-200222.0	6814.0	22163.0
26	15	19	11	204	107.0	-200176.0	6803.0	15243.0
26	15	19	11	205	109.0	-200360.0	6821.0	23400.0
26	15	19	11	205	110.0	-200371.0	6812.0	35936.0
26	15	19	11	206	111.0	-200460.0	6816.0	51341.0
26	15	19	11	206	112.0	-200511.0	6810.0	62206.0
26	15	19	11	207	113.0	-200453.0	6791.0	63586.0
26	15	19	11	207	114.0	-200437.0	6796.0	55497.0
26	15	19	11	238	115.0	-200469.0	6800.0	43905.0
26	15	19	11	239	116.0	-200537.0	6829.0	35429.0
26	15	19	11	240	117.0	-200649.0	6833.0	31134.0
26	15	19	11	241	118.0	-200630.0	6834.0	33231.0
26	15	19	11	241	119.0	-200579.0	6826.0	39198.0
26	15	19	11	242	120.0	-200478.0	6809.0	50808.0
26	15	19	11	243	121.0	-200356.0	6805.0	66009.0
26	15	19	11	243	122.0	-200230.0	6780.0	75088.0
26	15	19	11	244	123.0	-200227.0	6771.0	76443.0
26	15	19	11	245	124.0	-200224.0	6761.0	70588.0
26	15	19	11	245	125.0	-200328.0	6747.0	61536.0
26	15	19	11	246	126.0	-200226.0	6746.0	54019.0
26	15	19	11	247	127.0	-200053.0	6738.0	47831.0
26	15	19	11	248	128.0	-199922.0	6748.0	46970.0
26	15	19	11	248	129.0	-199951.0	6754.0	51693.0
26	15	19	11	249	131.0	-199903.0	6724.0	75668.0
26	15	19	11	250	132.0	-199773.0	6690.0	83624.0
26	15	19	11	250	133.0	-199775.0	6684.0	83786.0
26	15	19	11	251	134.0	-199839.0	6696.0	76843.0
26	15	19	11	251	135.0	-199710.0	6722.0	67589.0
26	15	19	11	252	136.0	-199667.0	6724.0	60683.0
26	15	19	11	252	137.0	-199731.0	6749.0	56010.0
26	15	19	11	282	138.0	-199706.0	6755.0	55335.0
26	15	19	11	282	139.0	-199836.0	6749.0	61468.0
26	15	19	11	283	140.0	-199820.0	6771.0	72457.0
26	15	19	11	284	141.0	-199837.0	6743.0	83124.0
26	15	19	11	285	142.0	-199790.0	6727.0	89348.0
26	15	19	11	286	143.0	-199846.0	6713.0	89581.0
26	15	19	11	287	144.0	-199896.0	6695.0	82502.0
26	15	19	11	287	145.0	-199901.0	6686.0	72708.0
26	15	19	11	288	146.0	-199989.0	6680.0	66016.0
26	15	19	11	289	147.0	-200092.0	6679.0	62249.0
26	15	19	11	289	148.0	-199962.0	6679.0	61964.0
26	15	19	11	290	149.0	-199916.0	6668.0	66538.0
26	15	19	11	291	150.0	-199911.0	6668.0	75929.0
26	15	19	11	292	151.0	-200032.0	6645.0	86691.0
26	15	19	11	292	152.0	-200109.0	6628.0	94663.0
26	15	19	11	293	154.0	-200108.0	6601.0	89266.0
26	15	19	11	294	155.0	-200048.0	6583.0	80321.0
26	15	19	11	294	156.0	-200134.0	6609.0	75525.0
26	15	19	11	295	157.0	-200317.0	6631.0	72789.0
26	15	19	11	295	158.0	-200351.0	6659.0	72479.0
26	15	19	11	296	159.0	-200426.0	6666.0	74653.0
26	15	19	11	297	160.0	-200381.0	6681.0	80341.0
26	15	19	11	328	161.0	-200232.0	6686.0	88690.0
26	15	19	11	329	162.0	-200109.0	6714.0	94647.0
26	15	19	11	330	163.0	-200169.0	6684.0	95883.0
26	15	19	11	330	164.0	-200263.0	6660.0	90527.0
26	15	19	11	331	165.0	-200243.0	6647.0	81973.0
26	15	19	11	332	166.0	-200222.0	6634.0	76172.0
26	15	19	11	332	167.0	-200141.0	6635.0	72346.0
26	15	19	11	333	168.0	-200183.0	6649.0	71002.0
26	15	19	11	334	169.0	-200329.0	6624.0	73118.0
26	15	19	11	334	170.0	-200269.0	6630.0	77329.0
26	15	19	11	335	171.0	-200169.0	6632.0	83636.0
26	15	19	11	336	172.0	-199985.0	6593.0	89400.0
26	15	19	11	336	173.0	-199980.0	6583.0	90261.0
26	15	19	11	337	174.0	-200047.0	6557.0	85435.0
26	15	19	11	338	175.0	-199967.0	6546.0	79772.0
26	15	19	11	338	176.0	-199681.0	6554.0	74056.0
26	15	19	11	339	177.0	-199334.0	6562.0	69236.0
26	15	19	11	340	178.0	-199097.0	6571.0	68002.0
26	15	19	11	340	179.0	-199014.0	6588.0	69009.0
26	15	19	11	341	180.0	-198749.0	6599.0	72654.0
26	15	19	11	341	181.0	-198779.0	6597.0	80135.0
26	15	19	11	342	182.0	-199066.0	6594.0	84703.0
26	15	19	11	373	183.0	-199272.0	6591.0	86302.0
26	15	19	11	373	184.0	-199389.0	6584.0	82812.0
26	15	19	11	374	185.0	-199372.0	6556.0	76271.0
26	15	19	11	375	186.0	-198902.0	6566.0	71138.0
26	15	19	11	375	187.0	-198657.0	6563.0	68956.0
26	15	19	11	376	188.0	-198790.0	6560.0	68103.0
26	15	19	11	377	189.0	-199006.0	6549.0	69627.0
26	15	19	11	378	190.0	-199333.0	6541.0	74948.0
26	15	19	11	378	191.0	-199619.0	6520.0	81876.0
26	15	19	11	379	192.0	-199714.0	6506.0	86059.0
26	15	19	11	380	193.0	-199580.0	6493.0	88137.0
26	15	19	11	380	194.0	-199670.0	6478.0	86444.0
26	15	19	11	381	195.0	-199692.0	6458.0	82835.0
26	15	19	11	382	196.0	-199737.0	6452.0	79641.0
26	15	19	11	382	197.0	-199750.0	6454.0	76891.0
26	15	19	11	383	199.0	-199772.0	6440.0	75383.0
26	15	19	11	384	200.0	-200015.0	6437.0	77862.0
26	15	19	11	384	201.0	-200109.0	6420.0	81954.0
26	15	19	11	385	202.0	-200122.0	6428.0	85034.0
26	15	19	11	385	203.0	-200055.0	6439.0	86329.0
26	15	19	11	386	204.0	-199892.0	6431.0	84934.0
26	15	19	11	418	205.0	-199865.0	6417.0	81346.0
26	15	19	11	419	206.0	-200016.0	6438.0	75958.0
26	15	19	11	419	207.0	-200059.0	6437.0	70711.0
26	15	19	11	420	208.0	-200052.0	6420.0	69370.0
26	15	19	11	420	209.0	-200136.0	6408.0	70699.0
26	15	19	11	421	210.0	-200202.0	6403.0	72839.0
26	15	19	11	422	211.0	-200286.0	6373.0	76277.0
26	15	19	11	463	212.0	-200364.0	6351.0	78706.0
26	15	19	11	464	213.0	-200346.0	6323.0	78367.0
26	15	19	11	464	214.0	-200301.0	6305.0	75686.0
26	15	19	11	465	215.0	-200237.0	6293.0	71504.0
26	15	19	11	486	216.0	-200232.0	6285.0	67493.0
26	15	19	11	487	217.0	-200222.0	6264.0	64793.0
26	15	19	11	487	218.0	-200256.0	6250.0	62085.0
26	15	19	11	488	219.0	-200242.0	6250.0	59866.0
26	15	19	11	488	221.0	-200259.0	6226.0	61565.0
26	15	19	11	489	222.0	-200243.0	6221.0	63828.0
26	15	19	11	489	223.0	-200157.0	6210.0	64585.0
26	15	19	11	490	224.0	-200173.0	6198.0	62798.0
26	15	19	11	490	225.0	-200180.0	6190.0	60112.0
26	15	19	11	491	226.0	-200049.0	6189.0	60018.0
26	15	19	11	491	227.0	-200017.0	6183.0	60159.0
26	15	19	11	492	228.0	-200151.0	6169.0	58976.0
26	15	19	11	492	244.0	-200442.0	5854.0	64616.0
26	15	19	11	493	245.0	-200328.0	5845.0	64671.0
26	15	19	11	494	246.0	-200249.0	5833.0	63838.0
26	15	19	11	494	247.0	-200217.0	5829.0	62532.0
26	15	19	11	495	248.0	-200187.0	5851.0	61270.0
26	15	19	11	495	249.0	-200278.0	5863.0	58133.0
26	15	19	11	509	250.0	-200234.0	5865.0	55651.0
26	15	19	11	510	251.0	-200217.0	5861.0	57439.0
26	15	19	11	511	252.0	-200210.0	5840.0	58557.0
26	15	19	11	511	253.0	-200217.0	5823.0	58136.0
26	15	19	11	512	254.0	-200252.0	5790.0	57077.0
26	15	19	11	513	255.0	-200389.0	5771.0	57137.0
26	15	19	11	513	0.0	-200360.0	5750.0	56799.0
26	15	19	11	514	1.0	-200350.0	5748.0	55022.0
26	15	19	11	514	2.0	-200397.0	5748.0	52278.0
26	15	19	11	515	3.0	-200538.0	5738.0	48520.0
26	15	19	11	516	4.0	-200444.0	5712.0	46537.0
26	15	19	11	516	5.0	-200431.0	5704.0	46553.0
26	15	19	11	517	6.0	-200321.0	5678.0	46096.0
26	15	19	11	518	7.0	-200197.0	5651.0	47116.0
26	15	19	11	518	8.0	-200134.0	5621.0	47249.0
26	15	19	11	519	10.0	-200474.0	5575.0	48038.0
26	15	19	11	519	11.0	-200625.0	5558.0	47045.0
26	15	19	11	520	12.0	-200789.0	5553.0	42591.0
26	15	19	11	520	13.0	-200962.0	5558.0	35911.0
26	15	19	11	521	14.0	-201047.0	5575.0	30853.0
26	15	19	11	521	15.0	-201028.0	5568.0	29583.0
26	15	19	11	522	16.0	-201031.0	5545.0	30419.0
26	15	19	11	554	17.0	-201050.0	5549.0	33175.0
26	15	19	11	555	18.0	-201159.0	5544.0	34804.0
26	15	19	11	555	19.0	-201072.0	5524.0	36002.0
26	15	19	11	556	20.0	-201031.0	5515.0	37726.0
26	15	19	11	557	21.0	-200908.0	5488.0	36518.0
26	15	19	11	557	22.0	-200812.0	5477.0	31061.0
26	15	19	11	558	23.0	-200722.0	5482.0	25006.0
26	15	19	11	558	24.0	-200678.0	5445.0	21446.0
26	15	19	11	559	25.0	-200645.0	5416.0	19439.0
26	15	19	11	560	26.0	-200621.0	5404.0	17850.0
26	15	19	11	560	27.0	-200652.0	5368.0	18257.0
26	15	19	11	561	28.0	-200593.0	5348.0	19343.0
26	15	19	11	561	29.0	-200557.0	5328.0	22285.0
26	15	19	11	562	30.0	-200621.0	5316.0	23825.0
26	15	19	11	563	31.0	-200691.0	5311.0	21674.0
26	15	19	11	563	33.0	-200719.0	5285.0	7010.0
26	15	19	11	564	34.0	-200589.0	5266.0	-1456.0
26	15	19	11	564	35.0	-200526.0	5251.0	-7054.0
26	15	19	11	565	36.0	-200517.0	5241.0	-10319.0
26	15	19	11	565	37.0	-200392.0	5207.0	-11836.0
26	15	19	11	566	38.0	-200319.0	5212.0	-11877.0
26	15	19	11	597	39.0	-200313.0	5219.0	-10646.0
26	15	19	11	598	40.0	-200281.0	5216.0	-10428.0
26	15	19	11	598	41.0	-200138.0	5221.0	-12193.0
26	15	19	11	599	42.0	-200101.0	5207.0	-18445.0
26	15	19	11	600	43.0	-200091.0	5175.0	-29224.0
26	15	19	11	600	44.0	-199998.0	5149.0	-39334.0
26	15	19	11	601	45.0	-199938.0	5122.0	-43414.0
26	15	19	11	601	46.0	-199922.0	5123.0	-44295.0
26	15	19	11	602	47.0	-199832.0	5089.0	-44812.0
26	15	19	11	603	48.0	-199683.0	5068.0	-42588.0
26	15	19	11	603	49.0	-199572.0	5066.0	-37117.0
26	15	19	11	604	50.0	-199586.0	5057.0	-33791.0
26	15	19	11	604	51.0	-199606.0	5038.0	-34149.0
26	15	19	11	605	52.0	-199584.0	5015.0	-39475.0
26	15	19	11	606	53.0	-199408.0	4989.0	-48532.0
26	15	19	11	606	55.0	-199544.0	4963.0	-58088.0
26	15	19	11	607	56.0	-199542.0	4966.0	-58197.0
26	15	19	11	607	57.0	-199654.0	4954.0	-56909.0
26	15	19	11	608	58.0	-199674.0	4951.0	-53044.0
26	15	19	11	609	59.0	-199634.0	4979.0	-47394.0
26	15	19	11	609	60.0	-199703.0	5009.0	-40421.0
26	15	19	11	643	61.0	-199779.0	5016.0	-36124.0
26	15	19	11	644	62.0	-199873.0	5039.0	-35916.0
26	15	19	11	644	63.0	-199859.0	5064.0	-41963.0
26	15	19	11	645	64.0	-199904.0	5059.0	-49242.0
26	15	19	11	646	65.0	-199911.0	5036.0	-52473.0
26	15	19	11	646	66.0	-199991.0	5036.0	-50582.0
26	15	19	11	647	67.0	-199979.0	5041.0	-44382.0
26	15	19	11	647	68.0	-199953.0	5049.0	-36759.0
26	15	19	11	648	69.0	-200027.0	5058.0	-26882.0
26	15	19	11	649	70.0	-199909.0	5066.0	-16849.0
26	15	19	11	649	71.0	-199753.0	5059.0	-11132.0
26	15	19	11	650	72.0	-199718.0	5081.0	-11865.0
26	15	19	11	650	73.0	-199731.0	5114.0	-17006.0
26	15	19	11	651	74.0	-199850.0	5123.0	-21844.0
26	15	19	11	652	75.0	-200006.0	5126.0	-23191.0
26	15	19	11	652	77.0	-200080.0	5141.0	-15574.0
26	15	19	11	653	78.0	-200161.0	5149.0	-5580.0
26	15	19	11	653	79.0	-200161.0	5174.0	3504.0
26	15	19	11	657	80.0	-200168.0	5221.0	12788.0
26	15	19	11	658	81.0	-200170.0	5272.0	16604.0
26	15	19	11	658	82.0	-200242.0	5308.0	15433.0
26	15	19	11	659	83.0	-200228.0	5343.0	11751.0
26	15	19	11	692	84.0	-200179.0	5376.0	6678.0
26	15	19	11	693	85.0	-200188.0	5396.0	4146.0
26	15	19	11	693	86.0	-200256.0	5443.0	5619.0
26	15	19	11	694	87.0	-200310.0	5454.0	12523.0
26	15	19	11	695	88.0	-200239.0	5456.0	23718.0
26	15	19	11	695	89.0	-200272.0	5483.0	37284.0
26	15	19	11	696	90.0	-200199.0	5497.0	47646.0
26	15	19	11	696	91.0	-200084.0	5521.0	53696.0
26	15	19	11	697	92.0	-200016.0	5561.0	53155.0
26	15	19	11	698	93.0	-199927.0	5590.0	47735.0
26	15	19	11	698	94.0	-199808.0	5618.0	41889.0
26	15	19	11	699	95.0	-199775.0	5622.0	38383.0
26	15	19	11	699	96.0	-199744.0	5636.0	39426.0
26	15	19	11	700	97.0	-199664.0	5634.0	42653.0
26	15	19	11	701	98.0	-199531.0	5656.0	49774.0
26	15	19	11	701	100.0	-199572.0	5703.0	68792.0
26	15	19	11	702	101.0	-199682.0	5736.0	72428.0
26	15	19	11	702	102.0	-199632.0	5761.0	70448.0
26	15	19	11	703	103.0	-199621.0	5799.0	61286.0
26	15	19	11	703	104.0	-199687.0	5850.0	50730.0
26	15	19	11	704	105.0	-199775.0	5869.0	44771.0
26	15	19	11	733	106.0	-199842.0	5893.0	45237.0
26	15	19	11	733	107.0	-199880.0	5918.0	49948.0
26	15	19	11	734	108.0	-199854.0	5941.0	58745.0
26	15	19	11	735	109.0	-199859.0	5971.0	68816.0
26	15	19	11	735	110.0	-199934.0	5973.0	76389.0
26	15	19	11	736	111.0	-200042.0	5990.0	80255.0
26	15	19	11	737	112.0	-200180.0	6028.0	78069.0
26	15	19	11	737	113.0	-200209.0	6046.0	68232.0
26	15	19	11	738	114.0	-200184.0	6034.0	58205.0
26	15	19	11	738	115.0	-200247.0	6047.0	51784.0
26	15	19	11	739	116.0	-200280.0	6051.0	51153.0
26	15	19	11	740	117.0	-200430.0	6033.0	56694.0
26	15	19	11	740	118.0	-200637.0	6046.0	66868.0
26	15	19	11	741	119.0	-200688.0	6055.0	78054.0
26	15	19	11	741	120.0	-200626.0	6073.0	87624.0
26	15	19	11	742	122.0	-200136.0	6093.0	90575.0
26	15	19	11	743	123.0	-199979.0	6104.0	84461.0
26	15	19	11	743	124.0	-199889.0	6128.0	77218.0
26	15	19	11	744	125.0	-199830.0	6158.0	73164.0
26	15	19	11	745	126.0	-199766.0	6162.0	73496.0
26	15	19	11	745	127.0	-199751.0	6170.0	78050.0
26	15	19	11	746	128.0	-199672.0	6208.0	87683.0
26	15	19	11	777	129.0	-199669.0	6237.0	98543.0
26	15	19	11	778	130.0	-199722.0	6248.0	108761.0
26	15	19	11	779	131.0	-199724.0	6274.0	112568.0
26	15	19	11	779	132.0	-199809.0	6274.0	108603.0
26	15	19	11	780	133.0	-199900.0	6277.0	98901.0
26	15	19	11	781	134.0	-199858.0	6275.0	87778.0
26	15	19	11	781	135.0	-199891.0	6278.0	80719.0
26	15	19	11	782	136.0	-199934.0	6270.0	78019.0
26	15	19	11	783	137.0	-200093.0	6261.0	80147.0
26	15	19	11	783	138.0	-200234.0	6269.0	85590.0
26	15	19	11	784	139.0	-200444.0	6266.0	91392.0
26	15	19	11	785	140.0	-200434.0	6272.0	96298.0
26	15	19	11	785	141.0	-200407.0	6274.0	94978.0
26	15	19	11	786	142.0	-200356.0	6282.0	87606.0
26	15	19	11	787	143.0	-200263.0	6282.0	74992.0
26	15	19	11	787	145.0	-200128.0	6261.0	53340.0
26	15	19	11	788	146.0	-200238.0	6273.0	47853.0
26	15	19	11	789	147.0	-200308.0	6284.0	49449.0
26	15	19	11	789	148.0	-200201.0	6292.0	57612.0
26	15	19	11	790	149.0	-200212.0	6310.0	67844.0
26	15	19	11	790	150.0	-200232.0	6331.0	74670.0
26	15	19	11	823	151.0	-200336.0	6356.0	74939.0
26	15	19	11	823	152.0	-200312.0	6384.0	68684.0
26	15	19	11	824	153.0	-200302.0	6373.0	56175.0
26	15	19	11	825	154.0	-200145.0	6372.0	43633.0
26	15	19	11	825	155.0	-200107.0	6383.0	35411.0
26	15	19	11	826	156.0	-200031.0	6360.0	32118.0
26	15	19	11	827	157.0	-200113.0	6354.0	33298.0
26	15	19	11	827	158.0	-200271.0	6333.0	39433.0
26	15	19	11	828	159.0	-200390.0	6331.0	46370.0
26	15	19	11	828	160.0	-200419.0	6329.0	51874.0
26	15	19	11	829	161.0	-200363.0	6339.0	53820.0
26	15	19	11	830	162.0	-200252.0	6336.0	49611.0
26	15	19	11	830	163.0	-200207.0	6334.0	38810.0
26	15	19	11	831	164.0	-200226.0	6337.0	27479.0
26	15	19	11	832	165.0	-200141.0	6319.0	20046.0
26	15	19	11	832	167.0	-199952.0	6286.0	23643.0
26	15	19	11	833	168.0	-199888.0	6269.0	33574.0
26	15	19	11	833	169.0	-199807.0	6278.0	45075.0
26	15	19	11	834	170.0	-199840.0	6305.0	54054.0
26	15	19	11	835	171.0	-199857.0	6322.0	56796.0
26	15	19	11	835	172.0	-199999.0	6349.0	53201.0
26	15	19	11	836	173.0	-200124.0	6356.0	43170.0
26	15	19	11	868	174.0	-200162.0	6367.0	31768.0
26	15	19	11	868	175.0	-200124.0	6374.0	24839.0
26	15	19	11	869	176.0	-200147.0	6360.0	21878.0
26	15	19	11	870	177.0	-200156.0	6328.0	24107.0
26	15	19	11	871	178.0	-200274.0	6309.0	31764.0
26	15	19	11	871	179.0	-200272.0	6288.0	40697.0
26	15	19	11	872	180.0	-200269.0	6274.0	48888.0
26	15	19	11	872	181.0	-200151.0	6295.0	53224.0
26	15	19	11	873	182.0	-200136.0	6298.0	47497.0
26	15	19	11	874	183.0	-200109.0	6285.0	34335.0
26	15	19	11	874	184.0	-200052.0	6264.0	21026.0
26	15	19	11	875	185.0	-200098.0	6253.0	12661.0
26	15	19	11	876	186.0	-200186.0	6239.0	12026.0
26	15	19	11	876	187.0	-200279.0	6226.0	16888.0
26	15	19	11	877	188.0	-200311.0	6201.0	25949.0
26	15	19	11	877	190.0	-200142.0	6174.0	45976.0
26	15	19	11	878	191.0	-200184.0	6184.0	46982.0
26	15	19	11	879	192.0	-200216.0	6196.0	41131.0
26	15	19	11	879	193.0	-200124.0	6208.0	29834.0
26	15	19	11	880	194.0	-199964.0	6205.0	19264.0
26	15	19	11	880	195.0	-199893.0	6196.0	13673.0
26	15	19	11	912	196.0	-199850.0	6201.0	11093.0
26	15	19	11	913	197.0	-199868.0	6200.0	16041.0
26	15	19	11	913	198.0	-199879.0	6185.0	25307.0
26	15	19	11	914	199.0	-199805.0	6164.0	35236.0
26	15	19	11	915	200.0	-199872.0	6170.0	43112.0
26	15	19	11	916	201.0	-199942.0	6158.0	46064.0
26	15	19	11	916	202.0	-200107.0	6152.0	39914.0
26	15	19	11	917	203.0	-200222.0	6167.0	28218.0
26	15	19	11	918	204.0	-200362.0	6153.0	16331.0
26	15	19	11	958	205.0	-200365.0	6126.0	7248.0
26	15	19	11	958	206.0	-200364.0	6090.0	4333.0
26	15	19	11	959	207.0	-200430.0	6068.0	7224.0
26	15	19	11	960	208.0	-200431.0	6067.0	15053.0
26	15	19	11	960	209.0	-200414.0	6052.0	25189.0
26	15	19	11	961	210.0	-200402.0	6059.0	35620.0
26	15	19	11	962	212.0	-200341.0	6040.0	35788.0
26	15	19	11	962	213.0	-200328.0	6038.0	25541.0
26	15	19	11	963	214.0	-200334.0	6063.0	15202.0
26	15	19	11	964	215.0	-200350.0	6065.0	8458.0
26	15	19	11	965	216.0	-200270.0	6061.0	6824.0
26	15	19	11	965	217.0	-200263.0	6045.0	9468.0
26	15	19	11	966	218.0	-200268.0	6027.0	16983.0
26	15	19	11	967	219.0	-200207.0	6011.0	27474.0
26	15	19	11	967	220.0	-200310.0	6001.0	34731.0
26	15	19	11	968	221.0	-200221.0	6002.0	34592.0
26	15	19	11	969	235.0	-200221.0	5889.0	6314.0
26	15	19	11	969	236.0	-200287.0	5896.0	5893.0
26	15	19	11	970	237.0	-200294.0	5906.0	11596.0
26	15	19	11	971	238.0	-200419.0	5910.0	21727.0
26	15	19	11	971	239.0	-200465.0	5911.0	31812.0
26	15	19	11	972	240.0	-200236.0	5931.0	40461.0
26	15	19	12	3	241.0	-200071.0	5953.0	42262.0
26	15	19	12	4	242.0	-199830.0	5963.0	36563.0
26	15	19	12	4	243.0	-199611.0	5959.0	24622.0
26	15	19	12	5	244.0	-199605.0	5958.0	12243.0
26	15	19	12	6	245.0	-199797.0	5937.0	4744.0
26	15	19	12	6	246.0	-200169.0	5919.0	2408.0
26	15	19	12	7	247.0	-200291.0	5891.0	5329.0
26	15	19	12	8	248.0	-200493.0	5872.0	13486.0
26	15	19	12	8	249.0	-200516.0	5882.0	23865.0
26	15	19	12	9	250.0	-200399.0	5872.0	31962.0
26	15	19	12	10	251.0	-200326.0	5865.0	33294.0
26	15	19	12	10	252.0	-200269.0	5866.0	28938.0
26	15	19	12	11	253.0	-200211.0	5858.0	18043.0
26	15	19	12	12	254.0	-200055.0	5842.0	6201.0
26	15	19	12	12	255.0	-199925.0	5829.0	-1675.0
26	15	19	12	13	1.0	-200132.0	5792.0	-1033.0
26	15	19	12	13	2.0	-200110.0	5778.0	7898.0
26	15	19	12	14	3.0	-199997.0	5791.0	16994.0
26	15	19	12	15	4.0	-199818.0	5821.0	23958.0
26	15	19	12	15	5.0	-199836.0	5835.0	25082.0
26	15	19	12	16	6.0	-199987.0	5840.0	19008.0
26	15	19	12	48	7.0	-200036.0	5845.0	6765.0
26	15	19	12	94	8.0	-200151.0	5843.0	-5889.0
26	15	19	12	94	9.0	-200367.0	5848.0	-14229.0
26	15	19	12	95	10.0	-200548.0	5831.0	-15866.0
26	15	19	12	96	11.0	-200619.0	5799.0	-10834.0
26	15	19	12	96	12.0	-200430.0	5806.0	21.0
26	15	19	12	97	13.0	-200400.0	5796.0	12262.0
26	15	19	12	98	14.0	-200332.0	5779.0	20910.0
26	15	19	12	99	15.0	-200261.0	5771.0	23301.0
26	15	19	12	99	16.0	-200374.0	5761.0	19580.0
26	15	19	12	100	17.0	-200402.0	5746.0	8136.0
26	15	19	12	100	18.0	-200384.0	5738.0	-3439.0
26	15	19	12	101	19.0	-200407.0	5720.0	-11049.0
26	15	19	12	102	20.0	-200438.0	5689.0	-13763.0
26	15	19	12	102	21.0	-200551.0	5672.0	-9527.0
26	15	19	12	103	23.0	-200813.0	5655.0	12117.0
26	15	19	12	104	24.0	-200802.0	5636.0	22454.0
26	15	19	12	105	46.0	-199997.0	5364.0	13136.0
26	15	19	12	106	47.0	-199919.0	5334.0	2206.0
26	15	19	12	107	48.0	-199957.0	5345.0	-9648.0
26	15	19	12	108	49.0	-200107.0	5341.0	-17661.0
26	15	19	12	108	50.0	-200191.0	5337.0	-21050.0
26	15	19	12	109	51.0	-200107.0	5326.0	-17553.0
26	15	19	12	109	52.0	-199914.0	5323.0	-8566.0
26	15	19	12	138	53.0	-199794.0	5314.0	1411.0
26	15	19	12	139	54.0	-199744.0	5326.0	7998.0
26	15	19	12	140	55.0	-199755.0	5332.0	9495.0
26	15	19	12	140	56.0	-199889.0	5318.0	4643.0
26	15	19	12	141	57.0	-200051.0	5304.0	-6445.0
26	15	19	12	142	58.0	-200096.0	5281.0	-18566.0
26	15	19	12	142	59.0	-200057.0	5259.0	-25966.0
26	15	19	12	143	60.0	-200032.0	5244.0	-28179.0
26	15	19	12	144	61.0	-199987.0	5203.0	-24310.0
26	15	19	12	144	62.0	-199941.0	5189.0	-15141.0
26	15	19	12	145	63.0	-199962.0	5166.0	-2636.0
26	15	19	12	146	64.0	-199991.0	5140.0	8964.0
26	15	19	12	147	65.0	-199917.0	5121.0	13196.0
26	15	19	12	147	66.0	-199792.0	5109.0	8498.0
26	15	19	12	148	67.0	-199735.0	5106.0	-2171.0
26	15	19	12	149	68.0	-199714.0	5084.0	-11169.0
26	15	19	12	149	69.0	-199629.0	5066.0	-17089.0
26	15	19	12	150	70.0	-199559.0	5058.0	-17619.0
26	15	19	12	150	71.0	-199381.0	5049.0	-11532.0
26	15	19	12	151	72.0	-199457.0	5059.0	-905.0
26	15	19	12	152	73.0	-199691.0	5040.0	10086.0
26	15	19	12	152	74.0	-199816.0	5031.0	19429.0
26	15	19	12	183	75.0	-199907.0	5043.0	22738.0
26	15	19	12	228	76.0	-200036.0	5061.0	17679.0
26	15	19	12	229	77.0	-200005.0	5040.0	6964.0
26	15	19	12	230	78.0	-200118.0	5022.0	-3890.0
26	15	19	12	231	79.0	-200096.0	4998.0	-11024.0
26	15	19	12	231	80.0	-200079.0	4978.0	-13341.0
26	15	19	12	232	81.0	-200078.0	4941.0	-8059.0
26	15	19	12	233	82.0	-199992.0	4934.0	1681.0
26	15	19	12	233	83.0	-199966.0	4921.0	10952.0
26	15	19	12	234	84.0	-199983.0	4902.0	17094.0
26	15	19	12	235	85.0	-199789.0	4880.0	17351.0
26	15	19	12	235	86.0	-199779.0	4859.0	10618.0
26	15	19	12	236	87.0	-199902.0	4836.0	-899.0
26	15	19	12	237	88.0	-199839.0	4812.0	-12474.0
26	15	19	12	237	89.0	-199734.0	4808.0	-19921.0
26	15	19	12	238	91.0	-199846.0	4777.0	-18496.0
26	15	19	12	239	92.0	-199739.0	4758.0	-9780.0
26	15	19	12	240	113.0	-200361.0	4485.0	863.0
26	15	19	12	241	114.0	-200404.0	4482.0	8572.0
26	15	19	12	242	115.0	-200414.0	4509.0	10231.0
26	15	19	12	242	116.0	-200516.0	4529.0	3249.0
26	15	19	12	243	117.0	-200579.0	4536.0	-9482.0
26	15	19	12	244	118.0	-200712.0	4551.0	-21996.0
26	15	19	12	244	119.0	-200942.0	4570.0	-27824.0
26	15	19	12	274	120.0	-201081.0	4588.0	-29044.0
26	15	19	12	275	121.0	-200907.0	4599.0	-23508.0
26	15	19	12	276	122.0	-200749.0	4595.0	-12629.0
26	15	19	12	276	123.0	-200579.0	4608.0	-1202.0
26	15	19	12	277	124.0	-200492.0	4618.0	7590.0
26	15	19	12	278	125.0	-200519.0	4640.0	10922.0
26	15	19	12	279	126.0	-200653.0	4653.0	6218.0
26	15	19	12	279	127.0	-200622.0	4659.0	-4701.0
26	15	19	12	280	128.0	-200585.0	4669.0	-16167.0
26	15	19	12	281	129.0	-200574.0	4673.0	-23489.0
26	15	19	12	282	130.0	-200612.0	4676.0	-24105.0
26	15	19	12	283	131.0	-200542.0	4679.0	-19651.0
26	15	19	12	283	132.0	-200452.0	4680.0	-11271.0
26	15	19	12	284	133.0	-200446.0	4702.0	29.0
26	15	19	12	284	134.0	-200471.0	4723.0	8581.0
26	15	19	12	285	136.0	-200457.0	4772.0	4000.0
26	15	19	12	286	137.0	-200501.0	4802.0	-7138.0
26	15	19	12	286	138.0	-200594.0	4851.0	-18132.0
26	15	19	12	287	139.0	-200784.0	4881.0	-23787.0
26	15	19	12	287	140.0	-200853.0	4913.0	-24356.0
26	15	19	12	288	141.0	-200642.0	4936.0	-19398.0
26	15	19	12	318	142.0	-200478.0	4961.0	-9836.0
26	15	19	12	319	143.0	-200595.0	4994.0	264.0
26	15	19	12	319	144.0	-200570.0	5026.0	6530.0
26	15	19	12	320	145.0	-200085.0	5051.0	6263.0
26	15	19	12	321	146.0	-199956.0	5073.0	-329.0
26	15	19	12	322	147.0	-200403.0	5094.0	-11153.0
26	15	19	12	322	148.0	-200632.0	5098.0	-21532.0
26	15	19	12	323	149.0	-200873.0	5118.0	-29934.0
26	15	19	12	324	150.0	-201048.0	5139.0	-32187.0
26	15	19	12	324	151.0	-201056.0	5140.0	-27016.0
26	15	19	12	325	152.0	-201095.0	5151.0	-17567.0
26	15	19	12	326	153.0	-201059.0	5175.0	-6419.0
26	15	19	12	327	154.0	-201131.0	5179.0	1051.0
26	15	19	12	327	155.0	-201280.0	5208.0	2715.0
26	15	19	12	328	156.0	-201508.0	5229.0	-3730.0
26	15	19	12	328	158.0	-201589.0	5268.0	-28644.0
26	15	19	12	329	159.0	-201576.0	5283.0	-37645.0
26	15	19	12	330	160.0	-201647.0	5319.0	-42309.0
26	15	19	12	330	161.0	-201772.0	5338.0	-39764.0
26	15	19	12	331	162.0	-201930.0	5341.0	-32726.0
26	15	19	12	331	163.0	-201851.0	5378.0	-24635.0
26	15	19	12	363	164.0	-201818.0	5404.0	-18729.0
26	15	19	12	364	165.0	-201800.0	5444.0	-19039.0
26	15	19	12	365	166.0	-201656.0	5467.0	-28331.0
26	15	19	12	365	167.0	-201429.0	5484.0	-42690.0
26	15	19	12	366	168.0	-201322.0	5488.0	-54738.0
26	15	19	12	367	169.0	-201318.0	5491.0	-62512.0
26	15	19	12	368	170.0	-201296.0	5487.0	-65575.0
26	15	19	12	368	171.0	-201191.0	5494.0	-61769.0
26	15	19	12	369	172.0	-201134.0	5505.0	-52279.0
26	15	19	12	370	173.0	-201100.0	5502.0	-41381.0
26	15	19	12	370	174.0	-200971.0	5508.0	-33962.0
26	15	19	12	371	175.0	-200774.0	5518.0	-34872.0
26	15	19	12	372	176.0	-200746.0	5534.0	-42611.0
26	15	19	12	372	177.0	-200792.0	5541.0	-54406.0
26	15	19	12	373	178.0	-200839.0	5538.0	-64637.0
26	15	19	12	374	180.0	-200771.0	5520.0	-71522.0
26	15	19	12	374	181.0	-200755.0	5523.0	-66466.0
26	15	19	12	375	182.0	-200669.0	5529.0	-55657.0
26	15	19	12	376	183.0	-200471.0	5565.0	-43333.0
26	15	19	12	376	184.0	-200111.0	5606.0	-33637.0
26	15	19	12	377	185.0	-200050.0	5636.0	-29944.0
26	15	19	12	377	186.0	-200068.0	5643.0	-33611.0
26	15	19	12	408	187.0	-199886.0	5661.0	-42324.0
26	15	19	12	409	188.0	-199612.0	5679.0	-50721.0
26	15	19	12	409	189.0	-199750.0	5688.0	-54035.0
26	15	19	12	410	190.0	-200193.0	5679.0	-51389.0
26	15	19	12	411	191.0	-200422.0	5669.0	-44832.0
26	15	19	12	412	192.0	-200052.0	5663.0	-34585.0
26	15	19	12	412	193.0	-199703.0	5664.0	-22772.0
26	15	19	12	413	194.0	-199679.0	5656.0	-12608.0
26	15	19	12	414	195.0	-199905.0	5657.0	-9476.0
26	15	19	12	415	196.0	-200022.0	5656.0	-13852.0
26	15	19	12	415	197.0	-199821.0	5676.0	-23184.0
26	15	19	12	416	198.0	-199861.0	5678.0	-30967.0
26	15	19	12	417	199.0	-199972.0	5655.0	-33366.0
26	15	19	12	417	200.0	-200027.0	5639.0	-29311.0
26	15	19	12	418	201.0	-199822.0	5632.0	-20345.0
26	15	19	12	419	203.0	-199636.0	5604.0	3278.0
26	15	19	12	419	204.0	-199599.0	5621.0	12746.0
26	15	19	12	420	205.0	-199664.0	5644.0	15603.0
26	15	19	12	421	206.0	-199665.0	5654.0	12604.0
26	15	19	12	421	207.0	-199776.0	5666.0	1898.0
26	15	19	12	422	208.0	-199925.0	5683.0	-8384.0
26	15	19	12	454	209.0	-200026.0	5684.0	-13067.0
26	15	19	12	455	210.0	-200041.0	5674.0	-13016.0
26	15	19	12	455	211.0	-199831.0	5658.0	-7537.0
26	15	19	12	456	212.0	-199924.0	5659.0	1223.0
26	15	19	12	457	213.0	-200123.0	5663.0	12271.0
26	15	19	12	458	214.0	-200089.0	5669.0	21334.0
26	15	19	12	458	215.0	-199927.0	5654.0	21792.0
26	15	19	12	459	216.0	-199743.0	5662.0	15781.0
26	15	19	12	460	217.0	-199619.0	5644.0	5685.0
26	15	19	12	461	218.0	-199455.0	5629.0	-5244.0
26	15	19	12	461	219.0	-199426.0	5616.0	-11299.0
26	15	19	12	462	220.0	-199386.0	5611.0	-11002.0
26	15	19	12	463	221.0	-199459.0	5588.0	-4506.0
26	15	19	12	464	222.0	-199677.0	5567.0	6488.0
26	15	19	12	464	223.0	-199967.0	5569.0	17583.0
26	15	19	12	465	225.0	-199787.0	5553.0	25501.0
26	15	19	12	465	226.0	-199677.0	5545.0	19949.0
26	15	19	12	466	227.0	-199552.0	5544.0	9048.0
26	15	19	12	467	228.0	-199366.0	5534.0	-2231.0
26	15	19	12	467	229.0	-199263.0	5531.0	-11131.0
26	15	19	12	468	230.0	-199266.0	5538.0	-14387.0
26	15	19	12	469	231.0	-199481.0	5544.0	-11246.0
26	15	19	12	497	232.0	-199614.0	5546.0	-2546.0
26	15	19	12	498	233.0	-199893.0	5553.0	8193.0
26	15	19	12	499	234.0	-199957.0	5553.0	15009.0
26	15	19	12	500	235.0	-199906.0	5550.0	13912.0
26	15	19	12	501	236.0	-199814.0	5522.0	6493.0
26	15	19	12	501	237.0	-199777.0	5501.0	-6506.0
26	15	19	12	502	238.0	-199657.0	5478.0	-17971.0
26	15	19	12	503	239.0	-199630.0	5465.0	-24452.0
26	15	19	12	503	240.0	-199748.0	5458.0	-25472.0
26	15	19	12	504	241.0	-199789.0	5441.0	-21200.0
26	15	19	12	505	242.0	-199818.0	5436.0	-13050.0
26	15	19	12	506	243.0	-199868.0	5408.0	-2312.0
26	15	19	12	506	244.0	-199713.0	5389.0	6738.0
26	15	19	12	507	245.0	-199532.0	5391.0	8430.0
26	15	19	12	508	246.0	-199639.0	5386.0	2076.0
26	15	19	12	508	248.0	-199876.0	5357.0	-22351.0
26	15	19	12	509	249.0	-199986.0	5351.0	-31198.0
26	15	19	12	510	250.0	-200104.0	5333.0	-32939.0
26	15	19	12	510	251.0	-200037.0	5339.0	-30063.0
26	15	19	12	511	252.0	-199961.0	5326.0	-23366.0
26	15	19	12	512	253.0	-199782.0	5343.0	-13414.0
26	15	19	12	512	254.0	-199741.0	5356.0	-5842.0
26	15	19	12	542	255.0	-199829.0	5354.0	-5232.0
26	15	19	12	587	0.0	-199882.0	5362.0	-11214.0
26	15	19	12	632	1.0	-199996.0	5338.0	-23531.0
26	15	19	12	633	2.0	-200003.0	5325.0	-35427.0
26	15	19	12	634	3.0	-199861.0	5311.0	-42119.0
26	15	19	12	635	4.0	-199644.0	5282.0	-43403.0
26	15	19	12	635	5.0	-199633.0	5267.0	-38292.0
26	15	19	12	636	6.0	-199804.0	5236.0	-28927.0
26	15	19	12	637	7.0	-199906.0	5246.0	-17146.0
26	15	19	12	638	8.0	-200247.0	5240.0	-9884.0
26	15	19	12	638	9.0	-200286.0	5220.0	-9057.0
26	15	19	12	639	10.0	-200273.0	5208.0	-14536.0
26	15	19	12	640	11.0	-200432.0	5198.0	-25149.0
26	15	19	12	641	12.0	-200290.0	5196.0	-34702.0
26	15	19	12	641	13.0	-200126.0	5190.0	-40490.0
26	15	19	12	642	14.0	-200063.0	5152.0	-40043.0
26	15	19	12	643	37.0	-199610.0	4939.0	6616.0
26	15	19	12	644	59.0	-200627.0	4774.0	35082.0
26	15	19	12	644	60.0	-200551.0	4765.0	29416.0
26	15	19	12	645	61.0	-200665.0	4761.0	18229.0
26	15	19	12	646	62.0	-200639.0	4759.0	7850.0
26	15	19	12	647	63.0	-200754.0	4749.0	2234.0
26	15	19	12	647	64.0	-200590.0	4756.0	2015.0
26	15	19	12	648	65.0	-200555.0	4765.0	10385.0
26	15	19	12	678	66.0	-200370.0	4766.0	21329.0
26	15	19	12	679	67.0	-200242.0	4771.0	31780.0
26	15	19	12	679	68.0	-200171.0	4770.0	40456.0
26	15	19	12	680	69.0	-200307.0	4771.0	43271.0
26	15	19	12	681	70.0	-200406.0	4749.0	38753.0
26	15	19	12	723	71.0	-200514.0	4734.0	27244.0
26	15	19	12	723	72.0	-200636.0	4723.0	16266.0
26	15	19	12	724	73.0	-200726.0	4701.0	9698.0
26	15	19	12	725	74.0	-200461.0	4683.0	9837.0
26	15	19	12	726	75.0	-200349.0	4649.0	15630.0
26	15	19	12	727	76.0	-200254.0	4644.0	25634.0
26	15	19	12	728	77.0	-200089.0	4616.0	37197.0
26	15	19	12	728	78.0	-200057.0	4596.0	44314.0
26	15	19	12	729	79.0	-200078.0	4592.0	45368.0
26	15	19	12	730	80.0	-200226.0	4590.0	41118.0
26	15	19	12	730	82.0	-200512.0	4581.0	21094.0
26	15	19	12	731	83.0	-200579.0	4564.0	17265.0
26	15	19	12	732	84.0	-200454.0	4541.0	17276.0
26	15	19	12	732	85.0	-200375.0	4529.0	21811.0
26	15	19	12	733	86.0	-200346.0	4528.0	30851.0
26	15	19	12	734	87.0	-200290.0	4519.0	41576.0
26	15	19	12	734	104.0	-200024.0	4273.0	11357.0
26	15	19	12	735	105.0	-199899.0	4260.0	17616.0
26	15	19	12	736	106.0	-199811.0	4244.0	26927.0
26	15	19	12	736	107.0	-199916.0	4271.0	36919.0
26	15	19	12	737	108.0	-199954.0	4274.0	44368.0
26	15	19	12	737	109.0	-199943.0	4290.0	46231.0
26	15	19	12	768	110.0	-200050.0	4293.0	40028.0
26	15	19	12	769	111.0	-200104.0	4294.0	30493.0
26	15	19	12	770	112.0	-200150.0	4301.0	20803.0
26	15	19	12	771	113.0	-200107.0	4280.0	12923.0
26	15	19	12	771	114.0	-200112.0	4249.0	9233.0
26	15	19	12	772	115.0	-200164.0	4224.0	11436.0
26	15	19	12	773	116.0	-200191.0	4195.0	19553.0
26	15	19	12	774	117.0	-200197.0	4203.0	27942.0
26	15	19	12	775	118.0	-200194.0	4178.0	32039.0
26	15	19	12	776	119.0	-200252.0	4161.0	30649.0
26	15	19	12	777	120.0	-200203.0	4136.0	24254.0
26	15	19	12	778	121.0	-200171.0	4124.0	14085.0
26	15	19	12	779	122.0	-200161.0	4124.0	7202.0
26	15	19	12	779	123.0	-200213.0	4103.0	4044.0
26	15	19	12	780	124.0	-200253.0	4082.0	4459.0
26	15	19	12	781	125.0	-200172.0	4048.0	8708.0
26	15	19	12	781	127.0	-200169.0	3990.0	27659.0
26	15	19	12	782	128.0	-200222.0	3978.0	34406.0
26	15	19	12	782	129.0	-200376.0	4008.0	36577.0
26	15	19	12	783	130.0	-200400.0	4021.0	32684.0
26	15	19	12	783	131.0	-200395.0	3993.0	22179.0
26	15	19	12	784	132.0	-200348.0	3996.0	12667.0
26	15	19	12	858	133.0	-200330.0	3988.0	8382.0
26	15	19	12	859	134.0	-200253.0	3966.0	8269.0
26	15	19	12	859	135.0	-200189.0	3954.0	13476.0
26	15	19	12	860	136.0	-200256.0	3926.0	22261.0
26	15	19	12	861	137.0	-200226.0	3904.0	31408.0
26	15	19	12	861	138.0	-200112.0	3884.0	36865.0
26	15	19	12	862	139.0	-199985.0	3854.0	35052.0
26	15	19	12	862	140.0	-200002.0	3821.0	28072.0
26	15	19	12	863	141.0	-200056.0	3798.0	18209.0
26	15	19	12	863	142.0	-200064.0	3768.0	9709.0
26	15	19	12	864	143.0	-200158.0	3754.0	4691.0
26	15	19	12	865	144.0	-200206.0	3726.0	4466.0
26	15	19	12	865	145.0	-200284.0	3670.0	7738.0
26	15	19	12	866	146.0	-200434.0	3654.0	13786.0
26	15	19	12	866	147.0	-200457.0	3631.0	22382.0
26	15	19	12	867	171.0	-200086.0	2860.0	36131.0
26	15	19	12	868	172.0	-200020.0	2834.0	29421.0
26	15	19	12	868	173.0	-200121.0	2811.0	27022.0
26	15	19	12	869	174.0	-200201.0	2819.0	30408.0
26	15	19	12	869	175.0	-200205.0	2816.0	36759.0
26	15	19	12	870	176.0	-200197.0	2819.0	45051.0
26	15	19	12	871	177.0	-200168.0	2820.0	53543.0
26	15	19	12	903	178.0	-200021.0	2823.0	60759.0
26	15	19	12	904	179.0	-199891.0	2833.0	64148.0
26	15	19	12	905	180.0	-199979.0	2823.0	61144.0
26	15	19	12	905	181.0	-200019.0	2819.0	53101.0
26	15	19	12	906	182.0	-199979.0	2805.0	44544.0
26	15	19	12	907	183.0	-199926.0	2804.0	41321.0
26	15	19	12	907	184.0	-200114.0	2772.0	42183.0
26	15	19	12	908	185.0	-200251.0	2753.0	48003.0
26	15	19	12	909	186.0	-200424.0	2744.0	55528.0
26	15	19	12	909	187.0	-200631.0	2736.0	63779.0
26	15	19	12	910	188.0	-200847.0	2761.0	69787.0
26	15	19	12	910	189.0	-200846.0	2780.0	69846.0
26	15	19	12	911	190.0	-200595.0	2799.0	63662.0
26	15	19	12	912	191.0	-200533.0	2803.0	54134.0
26	15	19	12	913	192.0	-201012.0	2805.0	45231.0
26	15	19	12	913	194.0	-202611.0	2824.0	38161.0
26	15	19	12	914	195.0	-203407.0	2841.0	40603.0
26	15	19	12	915	196.0	-203840.0	2884.0	45701.0
26	15	19	12	915	197.0	-203830.0	2938.0	52941.0
26	15	19	12	916	198.0	-203691.0	2972.0	56791.0
26	15	19	12	916	199.0	-203341.0	3017.0	54359.0
26	15	19	12	963	200.0	-202810.0	3065.0	46639.0
26	15	19	12	978	201.0	-202229.0	3126.0	35141.0
26	15	19	12	979	202.0	-201779.0	3161.0	25717.0
26	15	19	12	980	203.0	-201401.0	3158.0	20834.0
26	15	19	12	980	204.0	-201073.0	3186.0	18978.0
26	15	19	12	981	205.0	-200791.0	3188.0	20426.0
26	15	19	12	981	206.0	-200431.0	3202.0	25567.0
26	15	19	12	982	207.0	-200073.0	3240.0	32483.0
26	15	19	12	983	208.0	-199939.0	3268.0	35348.0
26	15	19	12	983	209.0	-199866.0	3291.0	32720.0
26	15	19	12	984	210.0	-199802.0	3312.0	26273.0
26	15	19	12	985	211.0	-199757.0	3315.0	15843.0
26	15	19	12	985	212.0	-199807.0	3324.0	6299.0
26	15	19	12	986	213.0	-199788.0	3353.0	2374.0
26	15	19	12	986	214.0	-199726.0	3369.0	2189.0
26	15	19	12	987	224.0	-200341.0	3409.0	9803.0
26	15	19	12	988	231.0	-200244.0	3434.0	20718.0
26	15	19	12	988	232.0	-200210.0	3433.0	14798.0
26	15	19	12	989	233.0	-200033.0	3423.0	11956.0
26	15	19	12	989	234.0	-199933.0	3418.0	12734.0
26	15	19	13	0	235.0	-199801.0	3428.0	17151.0
26	15	19	13	0	236.0	-199754.0	3451.0	23239.0
26	15	19	13	1	237.0	-199741.0	3473.0	29399.0
26	15	19	13	2	238.0	-199822.0	3482.0	33941.0
26	15	19	13	2	239.0	-199712.0	3481.0	35071.0
26	15	19	13	22	240.0	-199614.0	3487.0	32371.0
26	15	19	13	23	241.0	-199630.0	3503.0	25563.0
26	15	19	13	24	242.0	-199694.0	3516.0	20308.0
26	15	19	13	24	243.0	-199787.0	3494.0	18186.0
26	15	19	13	25	244.0	-199935.0	3486.0	19164.0
26	15	19	13	26	245.0	-199995.0	3469.0	24118.0
26	15	19	13	26	246.0	-199958.0	3457.0	31558.0
26	15	19	13	27	247.0	-200210.0	3449.0	39607.0
26	15	19	13	27	248.0	-200362.0	3462.0	43261.0
26	15	19	13	28	249.0	-200401.0	3489.0	44100.0
26	15	19	13	28	250.0	-200471.0	3501.0	39229.0
26	15	19	13	29	251.0	-200569.0	3484.0	32392.0
26	15	19	13	30	252.0	-200559.0	3476.0	28493.0
26	15	19	13	30	253.0	-200551.0	3440.0	26011.0
26	15	19	13	31	254.0	-200506.0	3439.0	27127.0
26	15	19	13	45	255.0	-200362.0	3436.0	31779.0
26	15	19	13	46	0.0	-200261.0	3438.0	35053.0
26	15	19	13	46	1.0	-200192.0	3451.0	38125.0
26	15	19	13	47	2.0	-200287.0	3438.0	41043.0
26	15	19	13	48	3.0	-200394.0	3438.0	39193.0
26	15	19	13	48	4.0	-200422.0	3441.0	32154.0
26	15	19	13	49	5.0	-200410.0	3423.0	22463.0
26	15	19	13	49	6.0	-200476.0	3418.0	16005.0
26	15	19	13	68	7.0	-200446.0	3415.0	11879.0
26	15	19	13	69	8.0	-200490.0	3403.0	12526.0
26	15	19	13	69	9.0	-200672.0	3396.0	15119.0
26	15	19	13	70	10.0	-200817.0	3378.0	18477.0
26	15	19	13	71	11.0	-200775.0	3384.0	23531.0
26	15	19	13	71	12.0	-200852.0	3388.0	25495.0
26	15	19	13	72	13.0	-200917.0	3366.0	23840.0
26	15	19	13	72	14.0	-201037.0	3383.0	17871.0
26	15	19	13	73	15.0	-201239.0	3388.0	9005.0
26	15	19	13	74	16.0	-201345.0	3371.0	2503.0
26	15	19	13	74	17.0	-201456.0	3363.0	796.0
26	15	19	13	75	18.0	-201337.0	3349.0	1994.0
26	15	19	13	75	19.0	-201180.0	3301.0	4216.0
26	15	19	13	76	20.0	-200979.0	3287.0	5968.0
26	15	19	13	77	21.0	-200759.0	3274.0	8636.0
26	15	19	13	94	22.0	-200624.0	3271.0	9023.0
26	15	19	13	95	23.0	-200466.0	3279.0	7650.0
26	15	19	13	95	24.0	-200326.0	3280.0	3010.0
26	15	19	13	96	25.0	-200264.0	3259.0	-4312.0
26	15	19	13	97	26.0	-199999.0	3243.0	-9067.0
26	15	19	13	97	27.0	-199881.0	3220.0	-9965.0
26	15	19	13	98	28.0	-199821.0	3199.0	-7949.0
26	15	19	13	99	29.0	-199774.0	3184.0	-7066.0
26	15	19	13	99	30.0	-199731.0	3190.0	-4431.0
26	15	19	13	100	31.0	-199718.0	3176.0	428.0
26	15	19	13	100	32.0	-199706.0	3168.0	2973.0
26	15	19	13	101	33.0	-199651.0	3169.0	1849.0
26	15	19	13	102	34.0	-199577.0	3145.0	-2671.0
26	15	19	13	102	35.0	-199636.0	3105.0	-11205.0
26	15	19	13	103	36.0	-199706.0	3089.0	-15559.0
26	15	19	13	116	37.0	-199867.0	3072.0	-16004.0
26	15	19	13	116	38.0	-199996.0	3062.0	-15246.0
26	15	19	13	117	39.0	-199990.0	3043.0	-12773.0
26	15	19	13	118	40.0	-200001.0	3022.0	-11547.0
26	15	19	13	118	41.0	-200052.0	3007.0	-9149.0
26	15	19	13	119	42.0	-200222.0	3008.0	-8195.0
26	15	19	13	119	43.0	-200407.0	2994.0	-10644.0
26	15	19	13	138	44.0	-200580.0	2986.0	-14759.0
26	15	19	13	139	45.0	-200551.0	2985.0	-20887.0
26	15	19	13	139	46.0	-200438.0	2979.0	-25486.0
26	15	19	13	140	47.0	-200400.0	2956.0	-27455.0
26	15	19	13	140	48.0	-200394.0	2931.0	-26932.0
26	15	19	13	141	49.0	-200368.0	2909.0	-24366.0
26	15	19	13	142	50.0	-200402.0	2883.0	-21693.0
26	15	19	13	142	51.0	-200416.0	2873.0	-18531.0
26	15	19	13	143	52.0	-200614.0	2873.0	-15257.0
26	15	19	13	144	53.0	-200652.0	2882.0	-13749.0
26	15	19	13	144	54.0	-200539.0	2887.0	-19260.0
26	15	19	13	145	55.0	-200435.0	2860.0	-26992.0
26	15	19	13	145	56.0	-200404.0	2836.0	-31970.0
26	15	19	13	146	57.0	-200331.0	2798.0	-31878.0
26	15	19	13	147	58.0	-200391.0	2773.0	-30024.0
26	15	19	13	160	59.0	-200511.0	2768.0	-27917.0
26	15	19	13	161	60.0	-200449.0	2745.0	-25349.0
26	15	19	13	161	61.0	-200388.0	2748.0	-20531.0
26	15	19	13	162	62.0	-200291.0	2757.0	-17421.0
26	15	19	13	162	63.0	-200189.0	2734.0	-18314.0
26	15	19	13	163	64.0	-200109.0	2721.0	-23717.0
26	15	19	13	164	65.0	-200098.0	2688.0	-29847.0
26	15	19	13	184	66.0	-200034.0	2674.0	-34073.0
26	15	19	13	185	67.0	-200113.0	2663.0	-35236.0
26	15	19	13	185	68.0	-200277.0	2633.0	-35098.0
26	15	19	13	208	69.0	-200383.0	2601.0	-33261.0
26	15	19	13	208	70.0	-200389.0	2576.0	-30877.0
26	15	19	13	209	71.0	-200266.0	2563.0	-26502.0
26	15	19	13	209	72.0	-200039.0	2552.0	-21691.0
26	15	19	13	210	73.0	-199934.0	2525.0	-21604.0
26	15	19	13	211	74.0	-199761.0	2523.0	-24938.0
26	15	19	13	211	75.0	-199527.0	2517.0	-28918.0
26	15	19	13	212	76.0	-199546.0	2489.0	-30564.0
26	15	19	13	212	77.0	-199809.0	2447.0	-30112.0
26	15	19	13	213	78.0	-200111.0	2435.0	-29106.0
26	15	19	13	213	79.0	-200321.0	2392.0	-27029.0
26	15	19	13	214	80.0	-200409.0	2371.0	-22044.0
26	15	19	13	214	81.0	-200298.0	2358.0	-14233.0
26	15	19	13	215	82.0	-200201.0	2351.0	-7800.0
26	15	19	13	216	83.0	-200137.0	2346.0	-4593.0
26	15	19	13	216	84.0	-200004.0	2350.0	-8529.0
26	15	19	13	217	85.0	-199970.0	2341.0	-14156.0
26	15	19	13	217	86.0	-200034.0	2309.0	-17591.0
26	15	19	13	218	87.0	-199983.0	2289.0	-17057.0
26	15	19	13	219	88.0	-199851.0	2258.0	-13968.0
26	15	19	13	219	89.0	-200002.0	2235.0	-11701.0
26	15	19	13	233	90.0	-200225.0	2235.0	-7489.0
26	15	19	13	234	91.0	-200360.0	2197.0	998.0
26	15	19	13	234	92.0	-200436.0	2174.0	6925.0
26	15	19	13	235	93.0	-200349.0	2145.0	6987.0
26	15	19	13	236	94.0	-200267.0	2128.0	2224.0
26	15	19	13	237	95.0	-200129.0	2096.0	-4467.0
26	15	19	13	237	96.0	-199996.0	2088.0	-8842.0
26	15	19	13	238	97.0	-200039.0	2062.0	-9132.0
26	15	19	13	239	98.0	-200152.0	2019.0	-7646.0
26	15	19	13	239	99.0	-200264.0	2006.0	-2726.0
26	15	19	13	240	100.0	-200231.0	1958.0	2791.0
26	15	19	13	241	101.0	-199935.0	1960.0	7832.0
26	15	19	13	241	102.0	-199769.0	1932.0	11172.0
26	15	19	13	242	103.0	-199743.0	1911.0	12538.0
26	15	19	13	242	104.0	-199842.0	1884.0	7765.0
26	15	19	13	243	105.0	-199861.0	1882.0	107.0
26	15	19	13	244	106.0	-199878.0	1887.0	-3554.0
26	15	19	13	256	107.0	-199911.0	1864.0	-4141.0
26	15	19	13	256	108.0	-199754.0	1865.0	-3695.0
26	15	19	13	257	109.0	-199669.0	1848.0	298.0
26	15	19	13	279	110.0	-199634.0	1809.0	8149.0
26	15	19	13	280	111.0	-199762.0	1804.0	16959.0
26	15	19	13	280	112.0	-199862.0	1794.0	22227.0
26	15	19	13	281	113.0	-199911.0	1764.0	23193.0
26	15	19	13	282	114.0	-199845.0	1741.0	19948.0
26	15	19	13	282	115.0	-199913.0	1721.0	11603.0
26	15	19	13	283	116.0	-199832.0	1702.0	5354.0
26	15	19	13	284	117.0	-199784.0	1664.0	3264.0
26	15	19	13	284	118.0	-199679.0	1619.0	4801.0
26	15	19	13	285	119.0	-199696.0	1588.0	8674.0
26	15	19	13	285	120.0	-199650.0	1562.0	14881.0
26	15	19	13	286	121.0	-199606.0	1539.0	22848.0
26	15	19	13	287	122.0	-199594.0	1539.0	27628.0
26	15	19	13	287	123.0	-199670.0	1504.0	29668.0
26	15	19	13	288	124.0	-199532.0	1478.0	25703.0
26	15	19	13	288	125.0	-199243.0	1465.0	18798.0
26	15	19	13	289	126.0	-199018.0	1448.0	12993.0
26	15	19	13	290	127.0	-199239.0	1433.0	10498.0
26	15	19	13	290	128.0	-199569.0	1418.0	11548.0
26	15	19	13	291	129.0	-199646.0	1393.0	16627.0
26	15	19	13	291	130.0	-199312.0	1375.0	23406.0
26	15	19	13	292	131.0	-198709.0	1367.0	31130.0
26	15	19	13	293	132.0	-198149.0	1364.0	37656.0
26	15	19	13	307	133.0	-197718.0	1318.0	40574.0
26	15	19	13	325	134.0	-197546.0	1316.0	37944.0
26	15	19	13	326	135.0	-197506.0	1286.0	30659.0
26	15	19	13	327	136.0	-197824.0	1239.0	25039.0
26	15	19	13	327	137.0	-198042.0	1216.0	22076.0
26	15	19	13	328	138.0	-197984.0	1201.0	22098.0
26	15	19	13	329	139.0	-198052.0	1154.0	26136.0
26	15	19	13	329	140.0	-198310.0	1099.0	31203.0
26	15	19	13	330	141.0	-198581.0	1076.0	40911.0
26	15	19	13	331	142.0	-198734.0	1057.0	46703.0
26	15	19	13	331	143.0	-198692.0	1031.0	46559.0
26	15	19	13	332	144.0	-198583.0	1002.0	41696.0
26	15	19	13	332	145.0	-198612.0	974.0	32141.0
26	15	19	13	333	146.0	-198762.0	934.0	22688.0
26	15	19	13	334	147.0	-198900.0	915.0	16525.0
26	15	19	13	334	148.0	-199146.0	876.0	16717.0
26	15	19	13	335	149.0	-199349.0	841.0	22600.0
26	15	19	13	335	150.0	-199549.0	839.0	29726.0
26	15	19	13	336	151.0	-199731.0	809.0	38413.0
26	15	19	13	337	152.0	-199822.0	793.0	44021.0
26	15	19	13	337	153.0	-199794.0	766.0	43647.0
26	15	19	13	338	154.0	-199747.0	743.0	36491.0
26	15	19	13	352	155.0	-199959.0	722.0	25197.0
26	15	19	13	353	156.0	-200044.0	684.0	16946.0
26	15	19	13	353	157.0	-200069.0	645.0	12782.0
26	15	19	13	372	158.0	-200019.0	611.0	13044.0
26	15	19	13	373	159.0	-200167.0	566.0	17198.0
26	15	19	13	373	160.0	-200292.0	522.0	24217.0
26	15	19	13	374	161.0	-200369.0	478.0	33498.0
26	15	19	13	375	162.0	-200266.0	440.0	40458.0
26	15	19	13	375	163.0	-200182.0	395.0	40401.0
26	15	19	13	376	164.0	-200162.0	381.0	34126.0
26	15	19	13	376	165.0	-200265.0	343.0	23659.0
26	15	19	13	377	166.0	-200477.0	298.0	13174.0
26	15	19	13	378	167.0	-200584.0	239.0	7429.0
26	15	19	13	378	168.0	-200651.0	194.0	7694.0
26	15	19	13	379	169.0	-200705.0	158.0	13000.0
26	15	19	13	379	170.0	-200764.0	121.0	19944.0
26	15	19	13	380	171.0	-200691.0	86.0	28279.0
26	15	19	13	381	172.0	-200734.0	73.0	34534.0
26	15	19	13	381	173.0	-200674.0	49.0	35645.0
26	15	19	13	395	174.0	-200766.0	20.0	28183.0
26	15	19	13	396	175.0	-200706.0	-15.0	16374.0
26	15	19	13	397	176.0	-200549.0	-30.0	8413.0
26	15	19	13	397	177.0	-200649.0	-66.0	3594.0
26	15	19	13	398	178.0	-201037.0	-126.0	1475.0
26	15	19	13	399	179.0	-201101.0	-168.0	4744.0
26	15	19	13	400	180.0	-201151.0	-196.0	12951.0
26	15	19	13	400	181.0	-201087.0	-249.0	21524.0
26	15	19	13	401	182.0	-201132.0	-287.0	27697.0
26	15	19	13	401	183.0	-201145.0	-337.0	30053.0
26	15	19	13	402	184.0	-201089.0	-402.0	23804.0
26	15	19	13	403	185.0	-201007.0	-449.0	13669.0
26	15	19	13	403	186.0	-200989.0	-461.0	5416.0
26	15	19	13	418	187.0	-200748.0	-501.0	-935.0
26	15	19	13	419	188.0	-200489.0	-543.0	-1707.0
26	15	19	13	419	189.0	-200354.0	-587.0	3022.0
26	15	19	13	420	190.0	-200394.0	-638.0	9804.0
26	15	19	13	420	191.0	-200486.0	-682.0	18461.0
26	15	19	13	421	192.0	-200394.0	-720.0	26343.0
26	15	19	13	422	193.0	-200294.0	-777.0	26801.0
26	15	19	13	441	194.0	-200323.0	-805.0	17837.0
26	15	19	13	442	195.0	-200316.0	-824.0	5793.0
26	15	19	13	442	196.0	-200367.0	-862.0	-4287.0
26	15	19	13	443	197.0	-200489.0	-917.0	-9869.0
26	15	19	13	444	198.0	-200378.0	-978.0	-9879.0
26	15	19	13	444	199.0	-200250.0	-1029.0	-6242.0
26	15	19	13	445	200.0	-200230.0	-1062.0	1183.0
26	15	19	13	445	201.0	-200289.0	-1114.0	10545.0
26	15	19	13	446	202.0	-200296.0	-1147.0	14351.0
26	15	19	13	447	203.0	-200184.0	-1179.0	12507.0
26	15	19	13	447	204.0	-200069.0	-1241.0	5025.0
26	15	19	13	448	205.0	-200085.0	-1289.0	-6391.0
26	15	19	13	448	206.0	-200086.0	-1334.0	-14974.0
26	15	19	13	449	207.0	-199974.0	-1380.0	-20097.0
26	15	19	13	450	208.0	-199984.0	-1422.0	-20352.0
26	15	19	13	464	209.0	-200045.0	-1468.0	-15701.0
26	15	19	13	464	210.0	-200123.0	-1493.0	-6540.0
26	15	19	13	465	211.0	-200185.0	-1535.0	4776.0
26	15	19	13	465	212.0	-200394.0	-1589.0	9821.0
26	15	19	13	466	213.0	-200511.0	-1646.0	9224.0
26	15	19	13	467	214.0	-200689.0	-1704.0	2803.0
26	15	19	13	467	215.0	-200601.0	-1738.0	-7525.0
26	15	19	13	487	216.0	-200632.0	-1760.0	-15351.0
26	15	19	13	488	217.0	-200845.0	-1792.0	-17391.0
26	15	19	13	489	218.0	-201056.0	-1838.0	-17928.0
26	15	19	13	489	219.0	-201088.0	-1889.0	-13826.0
26	15	19	13	490	220.0	-201117.0	-1947.0	-5507.0
26	15	19	13	491	221.0	-200971.0	-1998.0	4340.0
26	15	19	13	491	222.0	-200794.0	-2040.0	11485.0
26	15	19	13	492	223.0	-200616.0	-2080.0	12431.0
26	15	19	13	492	224.0	-200582.0	-2121.0	6408.0
26	15	19	13	493	225.0	-200602.0	-2141.0	-3739.0
26	15	19	13	493	226.0	-200474.0	-2169.0	-10639.0
26	15	19	13	494	227.0	-200180.0	-2219.0	-13772.0
26	15	19	13	495	228.0	-200119.0	-2277.0	-15525.0
26	15	19	13	495	229.0	-200067.0	-2341.0	-14196.0
26	15	19	13	496	230.0	-199929.0	-2385.0	-9885.0
26	15	19	13	510	231.0	-199726.0	-2419.0	-1911.0
26	15	19	13	511	232.0	-199657.0	-2446.0	2923.0
26	15	19	13	511	233.0	-199580.0	-2481.0	2816.0
26	15	19	13	512	234.0	-199432.0	-2518.0	-4335.0
26	15	19	13	513	235.0	-199427.0	-2554.0	-15996.0
26	15	19	13	513	236.0	-199408.0	-2607.0	-21809.0
26	15	19	13	514	237.0	-199458.0	-2652.0	-24144.0
26	15	19	13	514	238.0	-199431.0	-2687.0	-25872.0
26	15	19	13	533	239.0	-199487.0	-2716.0	-24059.0
26	15	19	13	533	240.0	-199416.0	-2733.0	-18369.0
26	15	19	13	534	241.0	-199152.0	-2776.0	-10292.0
26	15	19	13	535	242.0	-199010.0	-2821.0	-5386.0
26	15	19	13	535	243.0	-198991.0	-2873.0	-5744.0
26	15	19	13	536	244.0	-198849.0	-2912.0	-11856.0
26	15	19	13	536	245.0	-198788.0	-2934.0	-20835.0
26	15	19	13	537	246.0	-198906.0	-2962.0	-26047.0
26	15	19	13	537	247.0	-199000.0	-2987.0	-27465.0
26	15	19	13	538	248.0	-199204.0	-2989.0	-28364.0
26	15	19	13	539	249.0	-199311.0	-3025.0	-25081.0
26	15	19	13	539	250.0	-199283.0	-3059.0	-18442.0
26	15	19	13	540	251.0	-199382.0	-3080.0	-11850.0
26	15	19	13	540	252.0	-199387.0	-3097.0	-6627.0
26	15	19	13	556	253.0	-199411.0	-3134.0	-5410.0
26	15	19	13	557	254.0	-199466.0	-3142.0	-11192.0
26	15	19	13	557	255.0	-199518.0	-3132.0	-19726.0
26	15	19	13	558	0.0	-199719.0	-3156.0	-26652.0
26	15	19	13	559	1.0	-199882.0	-3172.0	-30134.0
26	15	19	13	559	2.0	-200146.0	-3191.0	-29821.0
26	15	19	13	560	3.0	-200351.0	-3211.0	-27125.0
26	15	19	13	560	4.0	-200417.0	-3234.0	-25474.0
26	15	19	13	561	5.0	-200437.0	-3238.0	-20426.0
26	15	19	13	579	6.0	-200501.0	-3231.0	-15971.0
26	15	19	13	580	7.0	-200466.0	-3234.0	-16291.0
26	15	19	13	581	8.0	-200502.0	-3244.0	-22441.0
26	15	19	13	581	9.0	-200552.0	-3262.0	-30771.0
26	15	19	13	582	10.0	-200736.0	-3274.0	-36244.0
26	15	19	13	583	11.0	-200652.0	-3266.0	-39547.0
26	15	19	13	583	12.0	-200367.0	-3266.0	-41724.0
26	15	19	13	584	13.0	-200239.0	-3264.0	-42536.0
26	15	19	13	584	14.0	-200134.0	-3285.0	-42942.0
26	15	19	13	585	15.0	-200031.0	-3282.0	-39277.0
26	15	19	13	586	16.0	-200032.0	-3279.0	-36518.0
26	15	19	13	586	17.0	-200057.0	-3281.0	-38607.0
26	15	19	13	587	18.0	-199977.0	-3294.0	-44962.0
26	15	19	13	587	19.0	-199934.0	-3311.0	-53412.0
26	15	19	13	588	20.0	-199817.0	-3313.0	-58972.0
26	15	19	13	604	21.0	-199791.0	-3302.0	-61947.0
26	15	19	13	605	22.0	-199665.0	-3287.0	-63227.0
26	15	19	13	605	23.0	-199746.0	-3289.0	-65088.0
26	15	19	13	606	24.0	-199836.0	-3294.0	-65964.0
26	15	19	13	607	25.0	-199916.0	-3297.0	-64752.0
26	15	19	13	607	26.0	-199864.0	-3309.0	-65046.0
26	15	19	13	608	27.0	-199929.0	-3314.0	-67376.0
26	15	19	13	609	28.0	-200109.0	-3312.0	-71144.0
26	15	19	13	609	29.0	-200393.0	-3312.0	-76182.0
26	15	19	13	610	30.0	-200461.0	-3326.0	-78052.0
26	15	19	13	611	31.0	-200522.0	-3326.0	-79112.0
26	15	19	13	611	32.0	-200767.0	-3340.0	-79598.0
26	15	19	13	612	33.0	-200921.0	-3361.0	-81696.0
26	15	19	13	627	34.0	-200862.0	-3362.0	-83772.0
26	15	19	13	628	35.0	-200998.0	-3362.0	-83218.0
26	15	19	13	628	36.0	-200976.0	-3347.0	-83707.0
26	15	19	13	629	37.0	-200939.0	-3344.0	-87201.0
26	15	19	13	630	38.0	-200981.0	-3369.0	-92261.0
26	15	19	13	630	39.0	-201019.0	-3399.0	-95337.0
26	15	19	13	631	40.0	-201035.0	-3409.0	-94245.0
26	15	19	13	631	41.0	-200914.0	-3421.0	-92548.0
26	15	19	13	632	42.0	-200964.0	-3452.0	-91723.0
26	15	19	13	650	43.0	-201034.0	-3446.0	-95080.0
26	15	19	13	651	44.0	-201114.0	-3449.0	-101879.0
26	15	19	13	652	45.0	-201064.0	-3453.0	-103552.0
26	15	19	13	652	46.0	-201173.0	-3483.0	-102196.0
26	15	19	13	653	47.0	-201164.0	-3494.0	-101888.0
26	15	19	13	654	48.0	-201097.0	-3514.0	-100294.0
26	15	19	13	654	49.0	-201130.0	-3543.0	-99635.0
26	15	19	13	655	50.0	-201261.0	-3552.0	-95055.0
26	15	19	13	656	51.0	-201337.0	-3548.0	-89485.0
26	15	19	13	656	52.0	-201236.0	-3571.0	-88731.0
26	15	19	13	657	53.0	-201016.0	-3604.0	-93396.0
26	15	19	13	657	54.0	-200966.0	-3634.0	-100147.0
26	15	19	13	658	55.0	-200797.0	-3667.0	-102621.0
26	15	19	13	659	56.0	-200683.0	-3701.0	-105595.0
26	15	19	13	659	57.0	-200865.0	-3721.0	-109152.0
26	15	19	13	684	58.0	-200890.0	-3737.0	-109464.0
26	15	19	13	684	59.0	-200802.0	-3758.0	-107768.0
26	15	19	13	685	60.0	-200502.0	-3784.0	-101349.0
26	15	19	13	686	61.0	-200413.0	-3826.0	-96443.0
26	15	19	13	687	62.0	-200479.0	-3883.0	-95118.0
26	15	19	13	687	63.0	-200586.0	-3917.0	-99578.0
26	15	19	13	688	64.0	-200606.0	-3948.0	-106292.0
26	15	19	13	689	65.0	-200667.0	-3985.0	-109707.0
26	15	19	13	689	66.0	-200700.0	-4027.0	-111868.0
26	15	19	13	690	67.0	-200786.0	-4074.0	-112774.0
26	15	19	13	691	68.0	-200821.0	-4094.0	-110022.0
26	15	19	13	692	69.0	-200826.0	-4142.0	-103441.0
26	15	19	13	692	70.0	-200945.0	-4199.0	-94506.0
26	15	19	13	693	71.0	-200750.0	-4249.0	-87046.0
26	15	19	13	693	72.0	-200564.0	-4275.0	-85888.0
26	15	19	13	694	73.0	-200584.0	-4286.0	-92652.0
26	15	19	13	695	74.0	-200554.0	-4317.0	-102361.0
26	15	19	13	695	75.0	-200534.0	-4344.0	-109701.0
26	15	19	13	696	76.0	-200511.0	-4363.0	-113255.0
26	15	19	13	697	77.0	-200453.0	-4389.0	-112479.0
26	15	19	13	714	78.0	-200468.0	-4426.0	-109077.0
26	15	19	13	716	79.0	-200347.0	-4458.0	-102111.0
26	15	19	13	716	80.0	-200301.0	-4489.0	-90163.0
26	15	19	13	717	81.0	-200402.0	-4540.0	-81282.0
26	15	19	13	718	82.0	-200531.0	-4586.0	-79557.0
26	15	19	13	718	83.0	-200622.0	-4630.0	-87369.0
26	15	19	13	719	84.0	-200682.0	-4669.0	-99800.0
26	15	19	13	720	85.0	-200752.0	-4688.0	-108952.0
26	15	19	13	720	86.0	-200753.0	-4741.0	-114083.0
26	15	19	13	721	87.0	-200627.0	-4767.0	-113669.0
26	15	19	13	721	88.0	-200478.0	-4793.0	-108439.0
26	15	19	13	737	89.0	-200317.0	-4807.0	-97189.0
26	15	19	13	738	90.0	-200206.0	-4840.0	-82612.0
26	15	19	13	739	91.0	-200124.0	-4889.0	-72172.0
26	15	19	13	740	92.0	-200187.0	-4944.0	-71769.0
26	15	19	13	748	93.0	-200248.0	-4977.0	-81336.0
26	15	19	13	750	94.0	-200251.0	-5018.0	-96169.0
26	15	19	13	753	95.0	-200256.0	-5053.0	-106857.0
26	15	19	13	754	96.0	-200186.0	-5082.0	-110725.0
26	15	19	13	755	97.0	-200186.0	-5126.0	-109380.0
26	15	19	13	756	98.0	-200236.0	-5160.0	-102839.0
26	15	19	13	757	99.0	-200250.0	-5216.0	-88726.0
26	15	19	13	757	100.0	-200400.0	-5264.0	-70866.0
26	15	19	13	758	101.0	-200531.0	-5322.0	-59812.0
26	15	19	13	758	102.0	-200637.0	-5345.0	-60092.0
26	15	19	13	759	103.0	-200707.0	-5386.0	-71489.0
26	15	19	13	760	104.0	-200710.0	-5422.0	-88345.0
26	15	19	13	760	105.0	-200822.0	-5457.0	-102314.0
26	15	19	13	761	106.0	-200889.0	-5487.0	-108619.0
26	15	19	13	761	107.0	-200797.0	-5526.0	-107517.0
26	15	19	13	762	108.0	-200631.0	-5577.0	-98029.0
26	15	19	13	762	109.0	-200679.0	-5620.0	-81726.0
26	15	19	13	772	110.0	-200736.0	-5652.0	-62099.0
26	15	19	13	773	111.0	-200771.0	-5692.0	-48472.0
26	15	19	13	774	112.0	-200688.0	-5728.0	-45623.0
26	15	19	13	774	113.0	-200579.0	-5791.0	-56306.0
26	15	19	13	775	114.0	-200552.0	-5835.0	-74057.0
26	15	19	13	775	115.0	-200517.0	-5864.0	-86148.0
26	15	19	13	776	116.0	-200507.0	-5884.0	-90291.0
26	15	19	13	794	117.0	-200426.0	-5903.0	-88750.0
26	15	19	13	794	118.0	-200269.0	-5927.0	-79187.0
26	15	19	13	795	119.0	-200148.0	-5964.0	-62716.0
26	15	19	13	796	120.0	-200091.0	-5997.0	-42716.0
26	15	19	13	796	121.0	-199984.0	-6059.0	-31406.0
26	15	19	13	797	122.0	-200068.0	-6124.0	-29816.0
26	15	19	13	797	123.0	-200036.0	-6170.0	-41425.0
26	15	19	13	798	124.0	-200048.0	-6204.0	-60665.0
26	15	19	13	818	125.0	-200089.0	-6219.0	-74754.0
26	15	19	13	819	126.0	-200171.0	-6235.0	-81577.0
26	15	19	13	819	127.0	-200320.0	-6260.0	-81575.0
26	15	19	13	820	128.0	-200417.0	-6286.0	-71453.0
26	15	19	13	820	129.0	-200493.0	-6316.0	-53753.0
26	15	19	13	821	130.0	-200518.0	-6369.0	-32109.0
26	15	19	13	821	131.0	-200464.0	-6414.0	-18249.0
26	15	19	13	822	132.0	-200327.0	-6447.0	-20064.0
26	15	19	13	822	133.0	-200198.0	-6470.0	-37811.0
26	15	19	13	823	134.0	-200097.0	-6497.0	-60873.0
26	15	19	13	824	135.0	-200010.0	-6527.0	-76873.0
26	15	19	13	824	136.0	-199954.0	-6567.0	-83939.0
26	15	19	13	825	137.0	-200133.0	-6594.0	-81892.0
26	15	19	13	825	138.0	-200153.0	-6622.0	-70567.0
26	15	19	13	826	139.0	-200184.0	-6666.0	-51912.0
26	15	19	13	842	140.0	-200357.0	-6691.0	-29681.0
26	15	19	13	842	141.0	-200280.0	-6695.0	-15101.0
26	15	19	13	843	142.0	-200378.0	-6749.0	-14839.0
26	15	19	13	844	143.0	-200346.0	-6807.0	-28830.0
26	15	19	13	844	144.0	-200221.0	-6834.0	-50921.0
26	15	19	13	845	145.0	-200116.0	-6844.0	-68777.0
26	15	19	13	845	146.0	-200083.0	-6877.0	-76392.0
26	15	19	13	865	147.0	-200271.0	-6901.0	-73279.0
26	15	19	13	865	148.0	-200278.0	-6912.0	-59909.0
26	15	19	13	866	149.0	-200387.0	-6934.0	-39323.0
26	15	19	13	866	150.0	-200522.0	-6956.0	-15379.0
26	15	19	13	867	151.0	-200467.0	-6992.0	-1501.0
26	15	19	13	868	152.0	-200605.0	-7043.0	-1955.0
26	15	19	13	868	153.0	-200677.0	-7091.0	-18508.0
26	15	19	13	869	154.0	-200594.0	-7103.0	-43655.0
26	15	19	13	869	155.0	-200491.0	-7127.0	-63017.0
26	15	19	13	870	156.0	-200527.0	-7134.0	-71487.0
26	15	19	13	870	157.0	-200557.0	-7168.0	-69112.0
26	15	19	13	871	158.0	-200566.0	-7181.0	-54017.0
26	15	19	13	871	159.0	-200607.0	-7211.0	-30294.0
26	15	19	13	872	160.0	-200481.0	-7257.0	-6272.0
26	15	19	13	872	161.0	-200385.0	-7279.0	5720.0
26	15	19	13	889	162.0	-200342.0	-7297.0	3364.0
26	15	19	13	889	163.0	-200227.0	-7314.0	-15705.0
26	15	19	13	890	164.0	-200301.0	-7346.0	-42381.0
26	15	19	13	891	165.0	-200312.0	-7371.0	-63584.0
26	15	19	13	891	166.0	-200312.0	-7387.0	-76390.0
26	15	19	13	892	167.0	-200265.0	-7420.0	-75256.0
26	15	19	13	892	168.0	-200209.0	-7431.0	-60236.0
26	15	19	13	893	169.0	-200175.0	-7458.0	-37829.0
26	15	19	13	894	170.0	-200244.0	-7467.0	-12444.0
26	15	19	13	894	171.0	-200357.0	-7484.0	2260.0
26	15	19	13	895	172.0	-200615.0	-7524.0	-353.0
26	15	19	13	896	173.0	-200642.0	-7532.0	-20581.0
26	15	19	13	896	174.0	-200593.0	-7570.0	-48888.0
26	15	19	13	897	175.0	-200536.0	-7612.0	-72032.0
26	15	19	13	897	176.0	-200549.0	-7626.0	-84651.0
26	15	19	13	911	177.0	-200529.0	-7630.0	-83819.0
26	15	19	13	912	178.0	-200416.0	-7625.0	-69772.0
26	15	19	13	912	179.0	-200453.0	-7636.0	-46693.0
26	15	19	13	913	180.0	-200524.0	-7697.0	-21300.0
26	15	19	13	913	181.0	-200524.0	-7737.0	-5374.0
26	15	19	13	914	182.0	-200472.0	-7750.0	-3504.0
26	15	19	13	914	183.0	-200385.0	-7785.0	-21406.0
26	15	19	13	915	184.0	-200328.0	-7820.0	-50599.0
26	15	19	13	934	185.0	-200299.0	-7818.0	-75215.0
26	15	19	13	935	186.0	-200354.0	-7835.0	-89227.0
26	15	19	13	936	187.0	-200177.0	-7843.0	-88119.0
26	15	19	13	936	188.0	-199949.0	-7867.0	-71323.0
26	15	19	13	937	189.0	-199804.0	-7884.0	-46997.0
26	15	19	13	937	190.0	-199877.0	-7906.0	-20414.0
26	15	19	13	938	191.0	-199802.0	-7956.0	-5002.0
26	15	19	13	939	192.0	-199767.0	-7980.0	-5653.0
26	15	19	13	939	193.0	-199828.0	-7996.0	-26552.0
26	15	19	13	940	194.0	-199872.0	-8004.0	-57756.0
26	15	19	13	940	195.0	-199846.0	-8031.0	-82050.0
26	15	19	13	941	196.0	-199811.0	-8052.0	-95982.0
26	15	19	13	941	197.0	-199835.0	-8086.0	-95939.0
26	15	19	13	942	198.0	-199857.0	-8114.0	-80397.0
26	15	19	13	942	199.0	-199842.0	-8131.0	-56121.0
26	15	19	13	957	200.0	-199791.0	-8153.0	-28354.0
26	15	19	13	957	201.0	-199859.0	-8169.0	-11903.0
26	15	19	13	958	202.0	-199939.0	-8212.0	-13273.0
26	15	19	13	958	203.0	-199982.0	-8244.0	-35861.0
26	15	19	13	959	204.0	-200061.0	-8287.0	-67889.0
26	15	19	13	959	205.0	-199990.0	-8297.0	-92973.0
26	15	19	13	960	206.0	-200004.0	-8309.0	-106512.0
26	15	19	13	980	207.0	-200019.0	-8321.0	-105226.0
26	15	19	13	980	208.0	-200016.0	-8336.0	-87512.0
26	15	19	13	981	209.0	-200122.0	-8364.0	-59346.0
26	15	19	13	982	210.0	-200113.0	-8387.0	-29621.0
26	15	19	13	982	211.0	-199835.0	-8423.0	-13126.0
26	15	19	13	983	212.0	-199761.0	-8476.0	-13823.0
26	15	19	13	983	213.0	-199923.0	-8505.0	-33913.0
26	15	19	13	984	214.0	-200170.0	-8521.0	-64387.0
26	15	19	13	985	215.0	-200321.0	-8549.0	-89597.0
26	15	19	13	985	216.0	-200336.0	-8550.0	-101847.0
26	15	19	13	986	217.0	-200525.0	-8571.0	-98570.0
26	15	19	13	986	218.0	-200555.0	-8589.0	-77530.0
26	15	19	13	987	219.0	-200485.0	-8627.0	-48138.0
26	15	19	13	987	220.0	-200442.0	-8656.0	-16368.0
26	15	19	13	988	221.0	-200465.0	-8716.0	1984.0
26	15	19	14	3	222.0	-200527.0	-8759.0	2901.0
26	15	19	14	4	223.0	-200488.0	-8778.0	-17526.0
26	15	19	14	4	224.0	-200451.0	-8814.0	-49245.0
26	15	19	14	5	225.0	-200395.0	-8844.0	-74344.0
26	15	19	14	5	226.0	-200312.0	-8868.0	-86757.0
26	15	19	14	6	227.0	-200206.0	-8877.0	-84517.0
26	15	19	14	6	228.0	-200130.0	-8931.0	-66627.0
26	15	19	14	7	229.0	-200102.0	-8964.0	-39144.0
26	15	19	14	26	230.0	-199996.0	-8978.0	-6884.0
26	15	19	14	27	231.0	-200126.0	-8998.0	12321.0
26	15	19	14	28	232.0	-200051.0	-9032.0	11216.0
26	15	19	14	28	233.0	-199964.0	-9084.0	-9953.0
26	15	19	14	29	234.0	-200005.0	-9120.0	-40937.0
26	15	19	14	29	235.0	-199986.0	-9166.0	-66052.0
26	15	19	14	30	236.0	-199952.0	-9187.0	-78448.0
26	15	19	14	31	237.0	-200015.0	-9181.0	-76842.0
26	15	19	14	31	238.0	-200204.0	-9192.0	-58374.0
26	15	19	14	32	239.0	-200374.0	-9208.0	-27603.0
26	15	19	14	32	240.0	-200486.0	-9276.0	4474.0
26	15	19	14	33	241.0	-200582.0	-9319.0	22048.0
26	15	19	14	33	242.0	-200639.0	-9352.0	21069.0
26	15	19	14	34	243.0	-200667.0	-9399.0	11.0
26	15	19	14	34	244.0	-200558.0	-9437.0	-30151.0
26	15	19	14	50	245.0	-200523.0	-9453.0	-52551.0
26	15	19	14	50	246.0	-200332.0	-9457.0	-62671.0
26	15	19	14	51	247.0	-200266.0	-9459.0	-58265.0
26	15	19	14	51	248.0	-200280.0	-9490.0	-37179.0
26	15	19	14	52	249.0	-200249.0	-9524.0	-7831.0
26	15	19	14	53	250.0	-200274.0	-9575.0	21901.0
26	15	19	14	53	251.0	-200221.0	-9607.0	39084.0
26	15	19	14	73	252.0	-200169.0	-9653.0	39237.0
26	15	19	14	74	253.0	-199874.0	-9665.0	18716.0
26	15	19	14	74	254.0	-199681.0	-9683.0	-13363.0
26	15	19	14	75	255.0	-199538.0	-9707.0	-38506.0
26	15	19	14	75	0.0	-199612.0	-9736.0	-50019.0
26	15	19	14	76	1.0	-199676.0	-9771.0	-47203.0
26	15	19	14	76	2.0	-199614.0	-9791.0	-28311.0
26	15	19	14	77	3.0	-199624.0	-9801.0	830.0
26	15	19	14	96	4.0	-199592.0	-9812.0	31262.0
26	15	19	14	96	5.0	-199626.0	-9851.0	50084.0
26	15	19	14	97	6.0	-199596.0	-9873.0	49325.0
26	15	19	14	97	7.0	-199744.0	-9931.0	28552.0
26	15	19	14	98	8.0	-199923.0	-9969.0	-2047.0
26	15	19	14	99	9.0	-200196.0	-9988.0	-26958.0
26	15	19	14	99	10.0	-200330.0	-10019.0	-37918.0
26	15	19	14	100	11.0	-200364.0	-10026.0	-35590.0
26	15	19	14	100	12.0	-200280.0	-10059.0	-17514.0
26	15	19	14	101	13.0	-200241.0	-10084.0	10639.0
26	15	19	14	101	14.0	-200127.0	-10118.0	41139.0
26	15	19	14	102	15.0	-200139.0	-10159.0	57189.0
26	15	19	14	103	16.0	-200121.0	-10204.0	54663.0
26	15	19	14	103	17.0	-200019.0	-10231.0	32089.0
26	15	19	14	104	18.0	-200037.0	-10246.0	524.0
26	15	19	14	104	19.0	-199978.0	-10249.0	-26119.0
26	15	19	14	105	20.0	-199871.0	-10276.0	-38506.0
26	15	19	14	105	21.0	-199734.0	-10273.0	-34516.0
26	15	19	14	106	22.0	-199743.0	-10269.0	-14176.0
26	15	19	14	106	23.0	-199755.0	-10282.0	13673.0
26	15	19	14	120	24.0	-199729.0	-10324.0	42576.0
26	15	19	14	120	25.0	-199799.0	-10351.0	59063.0
26	15	19	14	121	26.0	-199870.0	-10367.0	59751.0
26	15	19	14	121	27.0	-199977.0	-10411.0	40100.0
26	15	19	14	122	28.0	-200014.0	-10454.0	10454.0
26	15	19	14	123	29.0	-199859.0	-10471.0	-12792.0
26	15	19	14	123	30.0	-199772.0	-10489.0	-24386.0
26	15	19	14	124	31.0	-199626.0	-10514.0	-21149.0
26	15	19	14	124	32.0	-199665.0	-10539.0	-2929.0
26	15	19	14	125	33.0	-199727.0	-10550.0	25020.0
26	15	19	14	143	34.0	-199696.0	-10539.0	54468.0
26	15	19	14	144	35.0	-199753.0	-10570.0	73670.0
26	15	19	14	144	36.0	-199968.0	-10604.0	74629.0
26	15	19	14	145	37.0	-200132.0	-10642.0	52874.0
26	15	19	14	145	38.0	-200117.0	-10673.0	21963.0
26	15	19	14	146	39.0	-199947.0	-10692.0	-2257.0
26	15	19	14	147	40.0	-199712.0	-10715.0	-14985.0
26	15	19	14	147	41.0	-199656.0	-10684.0	-12790.0
26	15	19	14	148	42.0	-199605.0	-10692.0	4638.0
26	15	19	14	148	43.0	-199646.0	-10711.0	33489.0
26	15	19	14	149	44.0	-199762.0	-10731.0	63271.0
26	15	19	14	150	45.0	-199812.0	-10749.0	78888.0
26	15	19	14	150	46.0	-199886.0	-10789.0	77186.0
26	15	19	14	151	47.0	-199849.0	-10825.0	56018.0
26	15	19	14	166	48.0	-199906.0	-10832.0	25576.0
26	15	19	14	167	49.0	-200143.0	-10802.0	768.0
26	15	19	14	167	50.0	-200256.0	-10799.0	-10807.0
26	15	19	14	168	51.0	-200186.0	-10800.0	-6637.0
26	15	19	14	168	52.0	-200121.0	-10807.0	12486.0
26	15	19	14	169	53.0	-200193.0	-10819.0	40831.0
26	15	19	14	170	54.0	-200199.0	-10814.0	69943.0
26	15	19	14	170	55.0	-200350.0	-10814.0	87292.0
26	15	19	14	192	56.0	-200423.0	-10805.0	86462.0
26	15	19	14	193	57.0	-200533.0	-10772.0	64153.0
26	15	19	14	193	58.0	-200549.0	-10757.0	33436.0
26	15	19	14	194	59.0	-200606.0	-10757.0	9651.0
26	15	19	14	195	60.0	-200612.0	-10739.0	-2796.0
26	15	19	14	196	61.0	-200600.0	-10714.0	396.0
26	15	19	14	196	62.0	-200526.0	-10678.0	19969.0
26	15	19	14	197	63.0	-200526.0	-10646.0	50246.0
26	15	19	14	198	64.0	-200452.0	-10628.0	81151.0
26	15	19	14	198	65.0	-200396.0	-10627.0	98458.0
26	15	19	14	199	66.0	-200437.0	-10604.0	96626.0
26	15	19	14	199	67.0	-200371.0	-10577.0	73964.0
26	15	19	14	200	68.0	-200296.0	-10560.0	43164.0
26	15	19	14	201	69.0	-200444.0	-10516.0	19933.0
26	15	19	14	201	70.0	-200624.0	-10455.0	9119.0
26	15	19	14	202	71.0	-200544.0	-10392.0	12408.0
26	15	19	14	202	72.0	-200486.0	-10331.0	31384.0
26	15	19	14	203	73.0	-200641.0	-10271.0	59144.0
26	15	19	14	215	74.0	-200602.0	-10233.0	88284.0
26	15	19	14	216	75.0	-200674.0	-10166.0	103984.0
26	15	19	14	216	76.0	-200632.0	-10111.0	100949.0
26	15	19	14	238	77.0	-200457.0	-10083.0	78423.0
26	15	19	14	239	78.0	-200242.0	-10014.0	47451.0
26	15	19	14	240	79.0	-200320.0	-9949.0	23941.0
26	15	19	14	240	80.0	-200108.0	-9912.0	12423.0
26	15	19	14	241	81.0	-200042.0	-9849.0	15350.0
26	15	19	14	241	82.0	-200005.0	-9787.0	34671.0
26	15	19	14	242	83.0	-200099.0	-9749.0	62138.0
26	15	19	14	243	84.0	-200248.0	-9695.0	90088.0
26	15	19	14	243	85.0	-199808.0	-9650.0	103864.0
26	15	19	14	244	86.0	-199475.0	-9592.0	100842.0
26	15	19	14	244	87.0	-199471.0	-9548.0	78632.0
26	15	19	14	245	88.0	-199507.0	-9470.0	47526.0
26	15	19	14	245	89.0	-199411.0	-9394.0	24801.0
26	15	19	14	246	90.0	-199269.0	-9356.0	14751.0
26	15	19	14	246	91.0	-199354.0	-9289.0	16646.0
26	15	19	14	247	92.0	-199414.0	-9237.0	33245.0
26	15	19	14	262	93.0	-199211.0	-9164.0	59910.0
26	15	19	14	263	94.0	-199450.0	-9101.0	88043.0
26	15	19	14	263	95.0	-199521.0	-9064.0	103322.0
26	15	19	14	264	96.0	-199704.0	-9026.0	100186.0
26	15	19	14	264	97.0	-199494.0	-8963.0	77231.0
26	15	19	14	265	98.0	-199372.0	-8912.0	45554.0
26	15	19	14	266	99.0	-199591.0	-8856.0	21546.0
26	15	19	14	266	100.0	-200064.0	-8797.0	8408.0
26	15	19	14	267	101.0	-199895.0	-8717.0	9477.0
26	15	19	14	268	102.0	-199958.0	-8668.0	26844.0
26	15	19	14	268	103.0	-200123.0	-8613.0	55388.0
26	15	19	14	269	104.0	-200181.0	-8588.0	84757.0
26	15	19	14	269	105.0	-200030.0	-8556.0	100697.0
26	15	19	14	270	106.0	-199952.0	-8507.0	99118.0
26	15	19	14	271	107.0	-200169.0	-8484.0	77001.0
26	15	19	14	287	108.0	-200303.0	-8430.0	44991.0
26	15	19	14	287	109.0	-200158.0	-8374.0	20156.0
26	15	19	14	288	110.0	-200134.0	-8314.0	8448.0
26	15	19	14	288	111.0	-200430.0	-8267.0	11868.0
26	15	19	14	289	112.0	-200496.0	-8229.0	30419.0
26	15	19	14	289	113.0	-200209.0	-8204.0	57328.0
26	15	19	14	290	114.0	-200228.0	-8171.0	85221.0
26	15	19	14	291	115.0	-200286.0	-8136.0	100799.0
26	15	19	14	309	116.0	-200084.0	-8102.0	97401.0
26	15	19	14	310	117.0	-199952.0	-8053.0	76911.0
26	15	19	14	311	118.0	-200057.0	-8015.0	49073.0
26	15	19	14	312	119.0	-200339.0	-7986.0	25828.0
26	15	19	14	312	120.0	-200054.0	-7961.0	15494.0
26	15	19	14	313	121.0	-200051.0	-7934.0	19766.0
26	15	19	14	313	122.0	-200311.0	-7888.0	37629.0
26	15	19	14	314	123.0	-200384.0	-7846.0	63674.0
26	15	19	14	315	124.0	-200124.0	-7812.0	92918.0
