26	14	59	12	45	134.0	-89816.0	-861.0	9945.0
26	14	59	12	48	135.0	-88292.0	-879.0	10038.0
26	14	59	12	50	136.0	-85922.0	-877.0	9882.0
26	14	59	12	52	137.0	-84897.0	-869.0	9844.0
26	14	59	12	54	138.0	-80781.0	-874.0	10161.0
26	14	59	12	56	139.0	-80120.0	-880.0	10924.0
26	14	59	12	58	140.0	-83886.0	-857.0	10927.0
26	14	59	12	60	141.0	-86767.0	-838.0	10769.0
26	14	59	12	61	142.0	-93346.0	-827.0	10949.0
26	14	59	12	63	143.0	-98304.0	-801.0	10673.0
26	14	59	12	64	144.0	-97951.0	-794.0	10831.0
26	14	59	12	65	145.0	-100092.0	-775.0	11438.0
26	14	59	12	66	146.0	-103640.0	-760.0	11233.0
26	14	59	12	67	147.0	-108689.0	-734.0	10803.0
26	14	59	12	67	148.0	-111295.0	-697.0	10646.0
26	14	59	12	68	149.0	-116154.0	-649.0	10830.0
26	14	59	12	77	150.0	-116385.0	-604.0	10907.0
26	14	59	12	78	151.0	-117146.0	-582.0	10688.0
26	14	59	12	78	152.0	-119928.0	-549.0	10618.0
26	14	59	12	79	153.0	-122853.0	-515.0	10677.0
26	14	59	12	80	154.0	-124977.0	-469.0	10515.0
26	14	59	12	80	155.0	-128099.0	-421.0	10451.0
26	14	59	12	81	156.0	-127006.0	-380.0	10286.0
26	14	59	12	131	157.0	-125645.0	-321.0	10095.0
26	14	59	12	178	158.0	-124917.0	-257.0	10214.0
26	14	59	12	179	159.0	-124631.0	-206.0	10201.0
26	14	59	12	180	160.0	-125501.0	-164.0	10279.0
26	14	59	12	180	161.0	-123807.0	-89.0	10279.0
26	14	59	12	181	162.0	-124809.0	-56.0	10203.0
26	14	59	12	182	163.0	-127179.0	1.0	10179.0
26	14	59	12	183	164.0	-128751.0	50.0	10268.0
26	14	59	12	183	165.0	-129724.0	108.0	10063.0
26	14	59	12	184	166.0	-130675.0	154.0	10010.0
26	14	59	12	185	167.0	-132386.0	211.0	9960.0
26	14	59	12	185	168.0	-134306.0	272.0	10065.0
26	14	59	12	186	169.0	-137432.0	334.0	10334.0
26	14	59	12	187	170.0	-139352.0	396.0	10367.0
26	14	59	12	187	171.0	-140569.0	465.0	10661.0
26	14	59	12	188	183.0	-161878.0	1080.0	5853.0
26	14	59	12	188	205.0	-139903.0	1854.0	6916.0
26	14	59	12	189	206.0	-139334.0	1884.0	7087.0
26	14	59	12	189	207.0	-136456.0	1909.0	7238.0
26	14	59	12	190	208.0	-132674.0	1936.0	7859.0
26	14	59	12	191	209.0	-127307.0	1969.0	8649.0
26	14	59	12	191	210.0	-122833.0	2004.0	8856.0
26	14	59	12	192	211.0	-118937.0	2037.0	8971.0
26	14	59	12	222	212.0	-119239.0	2071.0	9096.0
26	14	59	12	223	213.0	-120790.0	2100.0	9423.0
26	14	59	12	223	214.0	-123304.0	2112.0	9773.0
26	14	59	12	224	215.0	-125744.0	2139.0	9723.0
26	14	59	12	224	216.0	-126720.0	2150.0	9608.0
26	14	59	12	225	217.0	-126112.0	2144.0	9499.0
26	14	59	12	226	218.0	-124704.0	2151.0	9566.0
26	14	59	12	226	219.0	-124012.0	2169.0	9429.0
26	14	59	12	227	220.0	-123717.0	2165.0	9625.0
26	14	59	12	227	221.0	-122245.0	2164.0	9559.0
26	14	59	12	228	222.0	-122472.0	2176.0	9260.0
26	14	59	12	229	223.0	-122402.0	2193.0	9561.0
26	14	59	12	229	224.0	-124439.0	2168.0	9457.0
26	14	59	12	230	225.0	-126871.0	2182.0	9318.0
26	14	59	12	231	226.0	-130253.0	2173.0	9559.0
26	14	59	12	232	228.0	-132196.0	2174.0	9296.0
26	14	59	12	232	229.0	-136066.0	2198.0	9169.0
26	14	59	12	233	230.0	-139570.0	2212.0	9201.0
26	14	59	12	234	231.0	-144327.0	2223.0	9320.0
26	14	59	12	235	232.0	-148187.0	2234.0	9640.0
26	14	59	12	235	233.0	-152412.0	2252.0	9660.0
26	14	59	12	267	234.0	-153224.0	2251.0	9694.0
26	14	59	12	267	235.0	-154968.0	2252.0	9844.0
26	14	59	12	279	236.0	-155294.0	2270.0	9702.0
26	14	59	12	279	237.0	-155656.0	2273.0	9252.0
26	14	59	12	280	238.0	-156885.0	2261.0	8911.0
26	14	59	12	281	239.0	-155758.0	2235.0	9422.0
26	14	59	12	281	240.0	-154792.0	2227.0	9674.0
26	14	59	12	282	241.0	-155942.0	2211.0	9486.0
26	14	59	12	282	242.0	-157797.0	2199.0	9521.0
26	14	59	12	283	243.0	-161778.0	2186.0	9769.0
26	14	59	12	283	244.0	-163346.0	2181.0	9584.0
26	14	59	12	284	245.0	-165299.0	2162.0	9999.0
26	14	59	12	284	246.0	-166552.0	2144.0	10317.0
26	14	59	12	285	247.0	-168056.0	2132.0	9939.0
26	14	59	12	286	248.0	-168134.0	2122.0	9489.0
26	14	59	12	286	250.0	-167336.0	2086.0	9779.0
26	14	59	12	287	251.0	-171163.0	2075.0	9869.0
26	14	59	12	287	252.0	-166893.0	2055.0	9851.0
26	14	59	12	288	253.0	-166411.0	2073.0	9969.0
26	14	59	12	288	254.0	-165384.0	2059.0	9727.0
26	14	59	12	289	255.0	-160450.0	2046.0	9423.0
26	14	59	12	289	0.0	-156506.0	2049.0	9541.0
26	14	59	12	312	1.0	-155521.0	2059.0	9849.0
26	14	59	12	313	2.0	-154486.0	2064.0	9959.0
26	14	59	12	314	3.0	-155459.0	2064.0	9945.0
26	14	59	12	314	4.0	-153042.0	2023.0	10066.0
26	14	59	12	315	5.0	-151309.0	2002.0	9701.0
26	14	59	12	316	6.0	-150841.0	1987.0	9390.0
26	14	59	12	316	7.0	-149886.0	1965.0	9316.0
26	14	59	12	317	8.0	-150653.0	1958.0	9398.0
26	14	59	12	317	9.0	-151287.0	1937.0	9331.0
26	14	59	12	318	10.0	-151181.0	1920.0	9458.0
26	14	59	12	319	11.0	-152515.0	1898.0	8967.0
26	14	59	12	319	12.0	-152156.0	1889.0	8893.0
26	14	59	12	320	13.0	-153644.0	1864.0	8721.0
26	14	59	12	321	14.0	-155492.0	1837.0	8590.0
26	14	59	12	321	15.0	-158486.0	1831.0	8448.0
26	14	59	12	322	17.0	-164097.0	1816.0	8520.0
26	14	59	12	323	18.0	-163484.0	1791.0	8381.0
26	14	59	12	323	19.0	-162397.0	1810.0	8084.0
26	14	59	12	324	20.0	-162896.0	1801.0	8266.0
26	14	59	12	324	21.0	-164287.0	1813.0	8129.0
26	14	59	12	325	22.0	-167239.0	1817.0	7892.0
26	14	59	12	356	23.0	-165953.0	1821.0	7983.0
26	14	59	12	357	24.0	-163634.0	1825.0	7919.0
26	14	59	12	358	25.0	-160217.0	1825.0	7689.0
26	14	59	12	358	26.0	-158067.0	1783.0	7853.0
26	14	59	12	359	27.0	-157797.0	1766.0	7641.0
26	14	59	12	360	28.0	-157812.0	1776.0	7465.0
26	14	59	12	360	29.0	-156428.0	1762.0	7460.0
26	14	59	12	361	30.0	-156404.0	1750.0	7513.0
26	14	59	12	361	31.0	-155771.0	1738.0	7526.0
26	14	59	12	362	32.0	-155304.0	1727.0	7561.0
26	14	59	12	363	33.0	-156399.0	1701.0	7538.0
26	14	59	12	363	34.0	-159639.0	1716.0	7692.0
26	14	59	12	402	35.0	-162429.0	1702.0	7945.0
26	14	59	12	403	36.0	-165536.0	1694.0	7816.0
26	14	59	12	403	37.0	-167866.0	1703.0	8178.0
26	14	59	12	404	39.0	-171865.0	1678.0	8228.0
26	14	59	12	405	40.0	-172471.0	1677.0	8023.0
26	14	59	12	405	41.0	-171627.0	1678.0	8118.0
26	14	59	12	406	42.0	-170392.0	1706.0	8490.0
26	14	59	12	406	43.0	-169174.0	1713.0	8622.0
26	14	59	12	407	44.0	-170442.0	1711.0	8612.0
26	14	59	12	408	45.0	-170803.0	1700.0	8187.0
26	14	59	12	408	46.0	-171701.0	1683.0	8053.0
26	14	59	12	409	47.0	-172922.0	1683.0	8283.0
26	14	59	12	409	48.0	-174315.0	1656.0	7801.0
26	14	59	12	410	49.0	-175337.0	1647.0	8063.0
26	14	59	12	411	50.0	-176229.0	1661.0	8511.0
26	14	59	12	411	62.0	-185676.0	1562.0	7798.0
26	14	59	12	412	63.0	-184201.0	1550.0	7834.0
26	14	59	12	412	64.0	-184124.0	1565.0	7873.0
26	14	59	12	413	65.0	-182085.0	1564.0	7992.0
26	14	59	12	414	66.0	-181567.0	1574.0	7792.0
26	14	59	12	414	67.0	-178453.0	1569.0	7601.0
26	14	59	12	446	68.0	-177354.0	1572.0	7413.0
26	14	59	12	447	69.0	-175726.0	1570.0	7439.0
26	14	59	12	448	70.0	-174082.0	1579.0	7343.0
26	14	59	12	448	71.0	-172171.0	1568.0	7123.0
26	14	59	12	449	72.0	-171022.0	1549.0	7176.0
26	14	59	12	449	73.0	-171046.0	1513.0	7311.0
26	14	59	12	450	74.0	-168328.0	1502.0	6188.0
26	14	59	12	451	75.0	-167784.0	1484.0	5437.0
26	14	59	12	451	76.0	-165477.0	1480.0	4502.0
26	14	59	12	452	77.0	-163794.0	1463.0	3586.0
26	14	59	12	452	78.0	-162109.0	1427.0	2589.0
26	14	59	12	453	79.0	-159622.0	1419.0	1999.0
26	14	59	12	454	80.0	-158790.0	1403.0	1419.0
26	14	59	12	454	81.0	-158630.0	1394.0	623.0
26	14	59	12	455	82.0	-159336.0	1368.0	214.0
26	14	59	12	456	84.0	-154352.0	1323.0	3198.0
26	14	59	12	456	85.0	-152786.0	1321.0	6613.0
26	14	59	12	457	86.0	-151909.0	1305.0	11434.0
26	14	59	12	457	87.0	-152699.0	1292.0	15892.0
26	14	59	12	458	88.0	-150641.0	1284.0	19376.0
26	14	59	12	459	89.0	-147621.0	1278.0	21951.0
26	14	59	12	459	90.0	-143765.0	1278.0	24130.0
26	14	59	12	492	91.0	-141396.0	1269.0	24796.0
26	14	59	12	492	92.0	-140666.0	1270.0	24669.0
26	14	59	12	493	93.0	-139364.0	1238.0	24637.0
26	14	59	12	493	94.0	-138574.0	1209.0	24906.0
26	14	59	12	494	95.0	-141662.0	1179.0	25365.0
26	14	59	12	495	96.0	-143188.0	1153.0	25661.0
26	14	59	12	496	97.0	-146737.0	1130.0	24156.0
26	14	59	12	496	98.0	-144169.0	1108.0	21142.0
26	14	59	12	497	99.0	-150637.0	1060.0	17614.0
26	14	59	12	497	100.0	-146443.0	1021.0	14480.0
26	14	59	12	498	101.0	-156873.0	1014.0	12199.0
26	14	59	12	499	102.0	-152406.0	993.0	10866.0
26	14	59	12	499	103.0	-165236.0	958.0	10044.0
26	14	59	12	500	104.0	-156367.0	929.0	9526.0
26	14	59	12	501	105.0	-168712.0	916.0	9106.0
26	14	59	12	501	107.0	-153945.0	849.0	7632.0
26	14	59	12	502	108.0	-118539.0	824.0	6652.0
26	14	59	12	503	109.0	-113939.0	805.0	6345.0
26	14	59	12	503	110.0	-97720.0	816.0	6347.0
26	14	59	12	504	111.0	-116287.0	815.0	5777.0
26	14	59	12	504	112.0	-112117.0	784.0	5726.0
26	14	59	12	583	113.0	-136118.0	764.0	5895.0
26	14	59	12	584	114.0	-136121.0	761.0	5446.0
26	14	59	12	585	115.0	-155743.0	726.0	4966.0
26	14	59	12	585	116.0	-155830.0	696.0	4973.0
26	14	59	12	586	117.0	-167675.0	675.0	4731.0
26	14	59	12	586	118.0	-167837.0	641.0	4599.0
26	14	59	12	587	119.0	-169294.0	621.0	5109.0
26	14	59	12	588	120.0	-169099.0	601.0	5246.0
26	14	59	12	588	121.0	-153304.0	559.0	4091.0
26	14	59	12	589	122.0	-145825.0	513.0	2809.0
26	14	59	12	589	123.0	-134694.0	502.0	2054.0
26	14	59	12	590	124.0	-143361.0	484.0	1339.0
26	14	59	12	592	125.0	-151976.0	456.0	-2754.0
26	14	59	12	593	126.0	-170059.0	419.0	-7797.0
26	14	59	12	594	127.0	-189518.0	393.0	-9536.0
26	14	59	12	595	151.0	-132512.0	-259.0	-5992.0
26	14	59	12	595	152.0	-133071.0	-287.0	-5922.0
26	14	59	12	596	153.0	-134186.0	-302.0	-5165.0
26	14	59	12	597	154.0	-135865.0	-334.0	-4629.0
26	14	59	12	597	155.0	-138446.0	-353.0	-4676.0
26	14	59	12	598	156.0	-140058.0	-348.0	-4416.0
26	14	59	12	598	157.0	-141551.0	-366.0	-4036.0
26	14	59	12	628	158.0	-144373.0	-371.0	-3711.0
26	14	59	12	629	159.0	-147584.0	-373.0	-3984.0
26	14	59	12	629	160.0	-151336.0	-402.0	-3611.0
26	14	59	12	630	161.0	-156058.0	-439.0	-3407.0
26	14	59	12	631	162.0	-157837.0	-449.0	-3448.0
26	14	59	12	631	163.0	-160259.0	-481.0	-3122.0
26	14	59	12	632	164.0	-161472.0	-519.0	-3101.0
26	14	59	12	633	165.0	-168015.0	-551.0	-2787.0
26	14	59	12	633	166.0	-167094.0	-569.0	-2783.0
26	14	59	12	634	167.0	-174454.0	-614.0	-2652.0
26	14	59	12	634	168.0	-170854.0	-638.0	-2267.0
26	14	59	12	635	169.0	-180229.0	-647.0	-2117.0
26	14	59	12	672	170.0	-172997.0	-679.0	-1684.0
26	14	59	12	673	171.0	-178468.0	-712.0	-1590.0
26	14	59	12	674	172.0	-173954.0	-746.0	-1402.0
26	14	59	12	674	174.0	-172533.0	-800.0	-741.0
26	14	59	12	675	175.0	-162679.0	-811.0	-748.0
26	14	59	12	676	176.0	-171685.0	-824.0	-514.0
26	14	59	12	676	177.0	-165555.0	-839.0	69.0
26	14	59	12	677	178.0	-173209.0	-842.0	-64.0
26	14	59	12	677	179.0	-176754.0	-862.0	-217.0
26	14	59	12	678	180.0	-176909.0	-867.0	153.0
26	14	59	12	679	181.0	-185785.0	-867.0	158.0
26	14	59	12	679	182.0	-183702.0	-884.0	150.0
26	14	59	12	680	183.0	-189993.0	-921.0	611.0
26	14	59	12	681	184.0	-192013.0	-929.0	703.0
26	14	59	12	682	185.0	-192336.0	-956.0	474.0
26	14	59	12	683	186.0	-196592.0	-958.0	794.0
26	14	59	12	684	197.0	-160009.0	-959.0	-749.0
26	14	59	12	684	198.0	-156556.0	-909.0	-841.0
26	14	59	12	685	199.0	-152724.0	-877.0	-735.0
26	14	59	12	685	200.0	-148644.0	-836.0	-739.0
26	14	59	12	686	201.0	-144837.0	-817.0	-875.0
26	14	59	12	687	202.0	-141145.0	-781.0	-961.0
26	14	59	12	718	203.0	-137077.0	-742.0	-707.0
26	14	59	12	718	204.0	-132735.0	-699.0	-1192.0
26	14	59	12	719	205.0	-129190.0	-660.0	-1800.0
26	14	59	12	720	206.0	-127439.0	-648.0	-2201.0
26	14	59	12	721	207.0	-126032.0	-609.0	-2438.0
26	14	59	12	721	208.0	-125761.0	-576.0	-2588.0
26	14	59	12	722	209.0	-127350.0	-539.0	-2646.0
26	14	59	12	723	210.0	-129166.0	-513.0	-2389.0
26	14	59	12	723	211.0	-131144.0	-490.0	-2451.0
26	14	59	12	724	212.0	-133354.0	-461.0	-2533.0
26	14	59	12	725	213.0	-135522.0	-427.0	-2314.0
26	14	59	12	725	214.0	-137892.0	-412.0	-2246.0
26	14	59	12	726	215.0	-140646.0	-376.0	-2798.0
26	14	59	12	727	216.0	-144130.0	-333.0	-2949.0
26	14	59	12	727	217.0	-146657.0	-314.0	-2721.0
26	14	59	12	728	219.0	-151628.0	-239.0	-3297.0
26	14	59	12	728	220.0	-154102.0	-199.0	-3228.0
26	14	59	12	729	221.0	-157062.0	-147.0	-2994.0
26	14	59	12	730	222.0	-160064.0	-116.0	-3205.0
26	14	59	12	730	223.0	-163517.0	-75.0	-3090.0
26	14	59	12	731	224.0	-167455.0	-38.0	-2560.0
26	14	59	12	763	225.0	-171354.0	3.0	-2684.0
26	14	59	12	764	226.0	-174815.0	58.0	-2855.0
26	14	59	12	764	227.0	-177244.0	58.0	-2516.0
26	14	59	12	765	228.0	-179279.0	69.0	-2249.0
26	14	59	12	766	229.0	-181008.0	88.0	-2119.0
26	14	59	12	766	230.0	-181994.0	126.0	-1932.0
26	14	59	12	767	231.0	-181550.0	124.0	-2186.0
26	14	59	12	768	232.0	-180079.0	132.0	-2206.0
26	14	59	12	768	233.0	-178034.0	150.0	-2189.0
26	14	59	12	769	234.0	-174880.0	168.0	-2294.0
26	14	59	12	770	235.0	-170789.0	196.0	-2149.0
26	14	59	12	770	236.0	-163508.0	188.0	-1813.0
26	14	59	12	771	237.0	-150359.0	201.0	-1522.0
26	14	59	12	772	238.0	-138603.0	210.0	-1791.0
26	14	59	12	772	239.0	-137572.0	219.0	-1950.0
26	14	59	12	773	241.0	-155135.0	235.0	-1845.0
26	14	59	12	774	242.0	-159784.0	229.0	-1551.0
26	14	59	12	775	243.0	-162272.0	224.0	-1527.0
26	14	59	12	775	244.0	-164789.0	244.0	-1179.0
26	14	59	12	776	245.0	-162509.0	263.0	-1029.0
26	14	59	12	776	246.0	-157679.0	263.0	-456.0
26	14	59	12	777	247.0	-153728.0	278.0	-139.0
26	14	59	12	806	248.0	-147855.0	299.0	-96.0
26	14	59	12	807	249.0	-143317.0	299.0	133.0
26	14	59	12	807	250.0	-141109.0	314.0	798.0
26	14	59	12	808	251.0	-141012.0	303.0	1070.0
26	14	59	12	809	252.0	-141744.0	294.0	755.0
26	14	59	12	825	253.0	-143984.0	266.0	753.0
26	14	59	12	826	254.0	-145597.0	264.0	976.0
26	14	59	12	827	255.0	-145346.0	246.0	800.0
26	14	59	12	828	0.0	-143149.0	218.0	716.0
26	14	59	12	828	1.0	-150816.0	206.0	649.0
26	14	59	12	829	2.0	-151315.0	188.0	818.0
26	14	59	12	830	3.0	-148914.0	161.0	758.0
26	14	59	12	830	4.0	-150295.0	127.0	757.0
26	14	59	12	831	5.0	-151737.0	114.0	522.0
26	14	59	12	831	6.0	-156232.0	90.0	414.0
26	14	59	12	832	8.0	-164767.0	31.0	402.0
26	14	59	12	833	9.0	-167659.0	-11.0	580.0
26	14	59	12	833	10.0	-169707.0	-34.0	459.0
26	14	59	12	834	11.0	-169719.0	-36.0	219.0
26	14	59	12	834	12.0	-169856.0	-51.0	-245.0
26	14	59	12	835	13.0	-168971.0	-67.0	-224.0
26	14	59	12	853	14.0	-168073.0	-91.0	40.0
26	14	59	12	853	15.0	-167522.0	-91.0	55.0
26	14	59	12	854	16.0	-167919.0	-117.0	-40.0
26	14	59	12	855	17.0	-167627.0	-162.0	383.0
26	14	59	12	855	18.0	-166901.0	-207.0	654.0
26	14	59	12	856	19.0	-166399.0	-246.0	273.0
26	14	59	12	857	20.0	-166736.0	-276.0	19.0
26	14	59	12	857	21.0	-166470.0	-289.0	21.0
26	14	59	12	858	22.0	-167298.0	-324.0	-141.0
26	14	59	12	897	23.0	-168647.0	-364.0	-282.0
26	14	59	12	898	24.0	-169835.0	-394.0	-161.0
26	14	59	12	899	25.0	-170582.0	-442.0	-298.0
26	14	59	12	899	26.0	-170945.0	-482.0	-732.0
26	14	59	12	900	27.0	-171421.0	-530.0	-1021.0
26	14	59	12	901	28.0	-171205.0	-564.0	-1176.0
26	14	59	12	901	30.0	-172307.0	-613.0	-1377.0
26	14	59	12	903	31.0	-172064.0	-646.0	-1320.0
26	14	59	12	903	32.0	-171473.0	-675.0	-1580.0
26	14	59	12	904	33.0	-170818.0	-704.0	-2175.0
26	14	59	12	905	34.0	-169893.0	-720.0	-2149.0
26	14	59	12	906	35.0	-169257.0	-742.0	-2087.0
26	14	59	12	906	36.0	-168672.0	-791.0	-2107.0
26	14	59	12	907	37.0	-167996.0	-831.0	-2095.0
26	14	59	12	908	38.0	-167007.0	-861.0	-2074.0
26	14	59	12	909	39.0	-166439.0	-902.0	-2236.0
26	14	59	12	910	53.0	-185908.0	-1408.0	-2409.0
26	14	59	12	911	54.0	-187817.0	-1445.0	-2271.0
26	14	59	12	911	55.0	-188364.0	-1453.0	-2076.0
26	14	59	12	912	56.0	-189376.0	-1478.0	-2433.0
26	14	59	12	913	57.0	-189766.0	-1512.0	-2332.0
26	14	59	12	913	58.0	-190604.0	-1514.0	-2576.0
26	14	59	12	943	59.0	-190378.0	-1517.0	-3279.0
26	14	59	12	944	60.0	-190382.0	-1551.0	-3494.0
26	14	59	12	944	61.0	-188611.0	-1591.0	-3140.0
26	14	59	12	945	62.0	-186584.0	-1610.0	-3498.0
26	14	59	12	946	63.0	-185744.0	-1632.0	-3842.0
26	14	59	12	947	64.0	-184459.0	-1667.0	-3939.0
26	14	59	12	947	65.0	-182917.0	-1712.0	-3739.0
26	14	59	12	948	66.0	-180421.0	-1752.0	-3906.0
26	14	59	12	949	67.0	-177014.0	-1785.0	-3911.0
26	14	59	12	949	68.0	-175797.0	-1815.0	-3866.0
26	14	59	12	950	69.0	-175009.0	-1842.0	-3928.0
26	14	59	12	951	70.0	-173119.0	-1869.0	-4021.0
26	14	59	12	951	71.0	-172284.0	-1906.0	-3956.0
26	14	59	12	952	72.0	-170238.0	-1946.0	-4022.0
26	14	59	12	953	73.0	-169649.0	-1957.0	-3951.0
26	14	59	12	953	75.0	-167709.0	-1996.0	-4072.0
26	14	59	12	954	76.0	-167736.0	-2020.0	-3699.0
26	14	59	12	954	77.0	-169541.0	-2038.0	-3765.0
26	14	59	12	955	78.0	-169481.0	-2059.0	-3634.0
26	14	59	12	956	79.0	-169101.0	-2065.0	-3492.0
26	14	59	12	956	80.0	-168466.0	-2074.0	-3692.0
26	14	59	12	987	81.0	-166514.0	-2087.0	-3578.0
26	14	59	12	988	82.0	-165242.0	-2096.0	-3551.0
26	14	59	12	988	83.0	-165420.0	-2110.0	-3163.0
26	14	59	12	989	84.0	-165657.0	-2131.0	-3031.0
26	14	59	12	990	85.0	-164307.0	-2171.0	-3116.0
26	14	59	12	991	86.0	-162649.0	-2200.0	-3264.0
26	14	59	12	992	87.0	-160091.0	-2227.0	-2869.0
26	14	59	12	992	88.0	-159387.0	-2241.0	-2579.0
26	14	59	12	993	89.0	-160056.0	-2276.0	-2722.0
26	14	59	12	994	90.0	-160816.0	-2322.0	-2981.0
26	14	59	12	995	91.0	-160639.0	-2337.0	-2515.0
26	14	59	12	995	92.0	-160875.0	-2344.0	-2572.0
26	14	59	12	996	93.0	-160346.0	-2376.0	-2779.0
26	14	59	12	997	94.0	-160116.0	-2416.0	-2684.0
26	14	59	12	997	95.0	-160959.0	-2425.0	-2748.0
26	14	59	12	998	97.0	-161034.0	-2461.0	-2664.0
26	14	59	12	999	98.0	-160547.0	-2481.0	-2316.0
26	14	59	12	999	99.0	-159746.0	-2507.0	-2221.0
26	14	59	13	0	100.0	-159421.0	-2504.0	-2291.0
26	14	59	13	0	101.0	-159773.0	-2497.0	-2241.0
26	14	59	13	1	102.0	-159017.0	-2506.0	-2256.0
26	14	59	13	2	103.0	-159457.0	-2510.0	-2157.0
26	14	59	13	32	104.0	-159362.0	-2519.0	-2332.0
26	14	59	13	33	105.0	-158944.0	-2533.0	-1965.0
26	14	59	13	34	106.0	-159388.0	-2551.0	-2103.0
26	14	59	13	35	107.0	-161187.0	-2582.0	-2089.0
26	14	59	13	35	108.0	-162392.0	-2621.0	-1934.0
26	14	59	13	36	109.0	-162841.0	-2638.0	-1966.0
26	14	59	13	37	110.0	-161828.0	-2657.0	-1657.0
26	14	59	13	38	111.0	-161855.0	-2695.0	-1576.0
26	14	59	13	38	112.0	-161667.0	-2725.0	-1491.0
26	14	59	13	39	113.0	-161452.0	-2752.0	-1614.0
26	14	59	13	40	114.0	-160634.0	-2750.0	-1316.0
26	14	59	13	40	115.0	-160793.0	-2769.0	-2137.0
26	14	59	13	41	116.0	-160201.0	-2809.0	-3044.0
26	14	59	13	42	117.0	-162789.0	-2854.0	-3477.0
26	14	59	13	42	118.0	-161732.0	-2881.0	-4776.0
26	14	59	13	43	120.0	-162280.0	-2932.0	-6307.0
26	14	59	13	44	121.0	-161248.0	-2947.0	-6748.0
26	14	59	13	44	122.0	-161108.0	-2952.0	-7326.0
26	14	59	13	45	123.0	-163602.0	-2952.0	-7929.0
26	14	59	13	45	124.0	-169194.0	-2962.0	-7706.0
26	14	59	13	46	125.0	-172422.0	-2967.0	-6750.0
26	14	59	13	78	126.0	-174963.0	-2999.0	-4354.0
26	14	59	13	79	127.0	-175609.0	-3002.0	-322.0
26	14	59	13	80	128.0	-175571.0	-3014.0	4293.0
26	14	59	13	80	129.0	-176739.0	-3052.0	8496.0
26	14	59	13	81	130.0	-178689.0	-3083.0	12206.0
26	14	59	13	82	131.0	-179172.0	-3112.0	14566.0
26	14	59	13	82	132.0	-178802.0	-3139.0	16161.0
26	14	59	13	123	133.0	-179012.0	-3166.0	16838.0
26	14	59	13	123	134.0	-175741.0	-3187.0	16845.0
26	14	59	13	124	135.0	-171118.0	-3210.0	16654.0
26	14	59	13	125	136.0	-166484.0	-3247.0	17154.0
26	14	59	13	126	137.0	-166899.0	-3279.0	17308.0
26	14	59	13	126	138.0	-164911.0	-3321.0	17059.0
26	14	59	13	127	139.0	-168619.0	-3364.0	15386.0
26	14	59	13	128	140.0	-169898.0	-3382.0	12406.0
26	14	59	13	128	142.0	-166136.0	-3444.0	5234.0
26	14	59	13	129	143.0	-165864.0	-3467.0	3704.0
26	14	59	13	167	144.0	-166204.0	-3480.0	3258.0
26	14	59	13	168	145.0	-167948.0	-3484.0	3234.0
26	14	59	13	169	146.0	-167686.0	-3517.0	3183.0
26	14	59	13	169	147.0	-168828.0	-3555.0	3346.0
26	14	59	13	170	148.0	-168021.0	-3571.0	3027.0
26	14	59	13	171	165.0	-106543.0	-4079.0	91.0
26	14	59	13	171	166.0	-106801.0	-4099.0	-310.0
26	14	59	13	172	167.0	-114894.0	-4104.0	-524.0
26	14	59	13	173	168.0	-127394.0	-4117.0	-597.0
26	14	59	13	174	169.0	-143447.0	-4142.0	-632.0
26	14	59	13	174	170.0	-163527.0	-4172.0	-451.0
26	14	59	13	175	171.0	-180482.0	-4178.0	-652.0
26	14	59	13	176	172.0	-198902.0	-4186.0	-421.0
26	14	59	13	176	173.0	-211187.0	-4222.0	79.0
26	14	59	13	177	174.0	-216386.0	-4262.0	426.0
26	14	59	13	178	175.0	-214901.0	-4292.0	549.0
26	14	59	13	178	188.0	-163310.0	-4639.0	666.0
26	14	59	13	179	189.0	-158860.0	-4655.0	561.0
26	14	59	13	180	190.0	-156398.0	-4669.0	393.0
26	14	59	13	180	191.0	-150222.0	-4672.0	321.0
26	14	59	13	181	192.0	-149037.0	-4677.0	343.0
26	14	59	13	181	193.0	-148593.0	-4690.0	310.0
26	14	59	13	212	194.0	-149837.0	-4702.0	128.0
26	14	59	13	212	195.0	-149397.0	-4712.0	208.0
26	14	59	13	213	196.0	-146105.0	-4744.0	19.0
26	14	59	13	214	197.0	-144818.0	-4778.0	49.0
26	14	59	13	215	198.0	-145166.0	-4805.0	291.0
26	14	59	13	215	199.0	-145804.0	-4827.0	-90.0
26	14	59	13	216	200.0	-143744.0	-4869.0	-334.0
26	14	59	13	217	201.0	-143009.0	-4895.0	-479.0
26	14	59	13	218	202.0	-143311.0	-4922.0	-609.0
26	14	59	13	218	203.0	-145426.0	-4941.0	-517.0
26	14	59	13	219	204.0	-145210.0	-4959.0	-372.0
26	14	59	13	220	205.0	-150846.0	-5003.0	-270.0
26	14	59	13	220	206.0	-151722.0	-5027.0	64.0
26	14	59	13	221	207.0	-154797.0	-5049.0	798.0
26	14	59	13	222	208.0	-153799.0	-5066.0	1251.0
26	14	59	13	223	210.0	-154286.0	-5130.0	1757.0
26	14	59	13	223	211.0	-157952.0	-5141.0	1751.0
26	14	59	13	224	212.0	-160239.0	-5140.0	1434.0
26	14	59	13	224	213.0	-159130.0	-5150.0	1288.0
26	14	59	13	225	214.0	-159884.0	-5158.0	1656.0
26	14	59	13	226	215.0	-161282.0	-5166.0	1878.0
26	14	59	13	257	216.0	-160400.0	-5177.0	2484.0
26	14	59	13	258	217.0	-161677.0	-5182.0	2714.0
26	14	59	13	259	218.0	-163341.0	-5197.0	2589.0
26	14	59	13	259	219.0	-162730.0	-5229.0	2441.0
26	14	59	13	260	220.0	-163775.0	-5259.0	2265.0
26	14	59	13	261	221.0	-164190.0	-5284.0	2089.0
26	14	59	13	261	222.0	-165967.0	-5316.0	2117.0
26	14	59	13	262	223.0	-166771.0	-5324.0	2243.0
26	14	59	13	263	224.0	-167361.0	-5351.0	2231.0
26	14	59	13	264	225.0	-168193.0	-5391.0	1866.0
26	14	59	13	264	226.0	-164910.0	-5402.0	1832.0
26	14	59	13	265	227.0	-162472.0	-5405.0	1988.0
26	14	59	13	266	228.0	-163586.0	-5430.0	1896.0
26	14	59	13	266	229.0	-164500.0	-5451.0	1882.0
26	14	59	13	267	230.0	-165650.0	-5473.0	1861.0
26	14	59	13	268	232.0	-165396.0	-5499.0	1834.0
26	14	59	13	268	233.0	-163752.0	-5501.0	2073.0
26	14	59	13	269	234.0	-165485.0	-5479.0	1941.0
26	14	59	13	269	235.0	-166921.0	-5467.0	2040.0
26	14	59	13	270	236.0	-167581.0	-5489.0	2383.0
26	14	59	13	271	237.0	-168977.0	-5461.0	2346.0
26	14	59	13	271	238.0	-169836.0	-5444.0	2181.0
26	14	59	13	303	239.0	-170826.0	-5422.0	2154.0
26	14	59	13	304	240.0	-169086.0	-5415.0	2131.0
26	14	59	13	304	241.0	-169469.0	-5401.0	2040.0
26	14	59	13	305	242.0	-171317.0	-5406.0	1710.0
26	14	59	13	306	243.0	-172861.0	-5381.0	1126.0
26	14	59	13	306	244.0	-172972.0	-5386.0	1178.0
26	14	59	13	307	245.0	-173775.0	-5357.0	1220.0
26	14	59	13	307	246.0	-172930.0	-5337.0	1213.0
26	14	59	13	308	247.0	-175196.0	-5337.0	1520.0
26	14	59	13	309	248.0	-177782.0	-5322.0	1328.0
26	14	59	13	309	249.0	-175935.0	-5297.0	1213.0
26	14	59	13	348	250.0	-174231.0	-5276.0	1651.0
26	14	59	13	349	251.0	-172281.0	-5246.0	1841.0
26	14	59	13	350	252.0	-174149.0	-5223.0	1483.0
26	14	59	13	350	253.0	-173271.0	-5207.0	1353.0
26	14	59	13	351	255.0	-177850.0	-5143.0	1044.0
26	14	59	13	352	0.0	-174771.0	-5097.0	671.0
26	14	59	13	352	1.0	-172784.0	-5056.0	748.0
26	14	59	13	353	2.0	-173266.0	-4989.0	728.0
26	14	59	13	354	3.0	-175602.0	-4942.0	721.0
26	14	59	13	355	4.0	-176849.0	-4907.0	518.0
26	14	59	13	355	5.0	-176237.0	-4864.0	632.0
26	14	59	13	356	6.0	-176696.0	-4829.0	662.0
26	14	59	13	357	7.0	-176536.0	-4792.0	260.0
26	14	59	13	357	8.0	-177382.0	-4761.0	256.0
26	14	59	13	358	9.0	-181245.0	-4731.0	337.0
26	14	59	13	359	10.0	-182419.0	-4707.0	715.0
26	14	59	13	359	21.0	-168145.0	-4353.0	979.0
26	14	59	13	360	22.0	-154166.0	-4327.0	758.0
26	14	59	13	360	23.0	-147462.0	-4272.0	766.0
26	14	59	13	361	24.0	-156691.0	-4222.0	772.0
26	14	59	13	362	25.0	-168647.0	-4186.0	984.0
26	14	59	13	362	26.0	-184206.0	-4155.0	923.0
26	14	59	13	363	27.0	-194607.0	-4109.0	853.0
26	14	59	13	393	28.0	-205129.0	-4067.0	1541.0
26	14	59	13	394	29.0	-206167.0	-4032.0	1551.0
26	14	59	13	394	30.0	-202281.0	-4021.0	1081.0
26	14	59	13	395	31.0	-198879.0	-4010.0	1439.0
26	14	59	13	396	32.0	-192777.0	-3992.0	1659.0
26	14	59	13	396	33.0	-187415.0	-3977.0	1531.0
26	14	59	13	397	34.0	-182414.0	-3956.0	1406.0
26	14	59	13	398	35.0	-178577.0	-3936.0	1356.0
26	14	59	13	399	36.0	-177025.0	-3921.0	1051.0
26	14	59	13	400	37.0	-175835.0	-3919.0	862.0
26	14	59	13	400	38.0	-175259.0	-3921.0	703.0
26	14	59	13	401	39.0	-174747.0	-3904.0	814.0
26	14	59	13	402	40.0	-174848.0	-3916.0	774.0
26	14	59	13	402	41.0	-172739.0	-3906.0	944.0
26	14	59	13	403	42.0	-168934.0	-3889.0	1101.0
26	14	59	13	404	43.0	-163261.0	-3894.0	683.0
26	14	59	13	404	44.0	-158548.0	-3876.0	334.0
26	14	59	13	405	45.0	-154931.0	-3856.0	164.0
26	14	59	13	405	46.0	-154320.0	-3851.0	119.0
26	14	59	13	406	47.0	-155746.0	-3826.0	279.0
26	14	59	13	407	48.0	-157982.0	-3832.0	307.0
26	14	59	13	407	49.0	-160271.0	-3835.0	433.0
26	14	59	13	437	50.0	-160755.0	-3816.0	787.0
26	14	59	13	438	51.0	-161261.0	-3799.0	822.0
26	14	59	13	439	52.0	-160280.0	-3797.0	844.0
26	14	59	13	439	53.0	-158467.0	-3802.0	799.0
26	14	59	13	440	54.0	-156838.0	-3806.0	904.0
26	14	59	13	441	55.0	-154105.0	-3830.0	871.0
26	14	59	13	442	56.0	-152795.0	-3824.0	144.0
26	14	59	13	442	57.0	-151417.0	-3844.0	-404.0
26	14	59	13	443	58.0	-150512.0	-3849.0	-1379.0
26	14	59	13	444	59.0	-150915.0	-3856.0	-2919.0
26	14	59	13	445	60.0	-151397.0	-3888.0	-4276.0
26	14	59	13	446	61.0	-152937.0	-3879.0	-5108.0
26	14	59	13	447	62.0	-154201.0	-3871.0	-5591.0
26	14	59	13	447	63.0	-155924.0	-3882.0	-6034.0
26	14	59	13	448	64.0	-158414.0	-3892.0	-6387.0
26	14	59	13	449	66.0	-159732.0	-3929.0	-6346.0
26	14	59	13	449	67.0	-160071.0	-3929.0	-6352.0
26	14	59	13	450	68.0	-161961.0	-3922.0	-5757.0
26	14	59	13	450	69.0	-164522.0	-3936.0	-5332.0
26	14	59	13	451	70.0	-165351.0	-3924.0	-5527.0
26	14	59	13	451	71.0	-166274.0	-3941.0	-5404.0
26	14	59	13	481	72.0	-167076.0	-3937.0	-5205.0
26	14	59	13	482	73.0	-167185.0	-3917.0	-4841.0
26	14	59	13	528	74.0	-167694.0	-3922.0	-5014.0
26	14	59	13	528	75.0	-168839.0	-3946.0	-4990.0
26	14	59	13	529	76.0	-169475.0	-3959.0	-5041.0
26	14	59	13	530	77.0	-170163.0	-3986.0	-5075.0
26	14	59	13	531	78.0	-171044.0	-4004.0	-5015.0
26	14	59	13	532	79.0	-171054.0	-4039.0	-5171.0
26	14	59	13	532	80.0	-171740.0	-4041.0	-5391.0
26	14	59	13	533	81.0	-172115.0	-4052.0	-5256.0
26	14	59	13	534	82.0	-171796.0	-4075.0	-5365.0
26	14	59	13	534	83.0	-170939.0	-4097.0	-5321.0
26	14	59	13	535	84.0	-169196.0	-4111.0	-5392.0
26	14	59	13	536	85.0	-167619.0	-4128.0	-5211.0
26	14	59	13	536	86.0	-166894.0	-4146.0	-5576.0
26	14	59	13	537	88.0	-165150.0	-4185.0	-4968.0
26	14	59	13	538	89.0	-162914.0	-4201.0	-4770.0
26	14	59	13	538	90.0	-161637.0	-4197.0	-4366.0
26	14	59	13	539	111.0	-160469.0	-4519.0	-2881.0
26	14	59	13	540	112.0	-162545.0	-4517.0	-3064.0
26	14	59	13	540	113.0	-163281.0	-4514.0	-3321.0
26	14	59	13	541	114.0	-164207.0	-4500.0	-3268.0
26	14	59	13	541	115.0	-164870.0	-4491.0	-3383.0
26	14	59	13	542	116.0	-165982.0	-4484.0	-3429.0
26	14	59	13	543	117.0	-167174.0	-4481.0	-3223.0
26	14	59	13	618	118.0	-168495.0	-4482.0	-3363.0
26	14	59	13	619	119.0	-169524.0	-4473.0	-3459.0
26	14	59	13	620	120.0	-170578.0	-4476.0	-3544.0
26	14	59	13	621	121.0	-171476.0	-4486.0	-3193.0
26	14	59	13	621	122.0	-172695.0	-4501.0	-2855.0
26	14	59	13	622	123.0	-174107.0	-4515.0	-2966.0
26	14	59	13	623	124.0	-174776.0	-4519.0	-2686.0
26	14	59	13	623	125.0	-175604.0	-4522.0	-2273.0
26	14	59	13	624	126.0	-176436.0	-4517.0	-2171.0
26	14	59	13	663	127.0	-177789.0	-4542.0	-2295.0
26	14	59	13	664	128.0	-178742.0	-4550.0	-1984.0
26	14	59	13	665	129.0	-180390.0	-4560.0	-1559.0
26	14	59	13	665	130.0	-180184.0	-4565.0	-1669.0
26	14	59	13	666	131.0	-180648.0	-4575.0	-1606.0
26	14	59	13	667	132.0	-180739.0	-4589.0	-1427.0
26	14	59	13	668	133.0	-181636.0	-4590.0	-1491.0
26	14	59	13	668	156.0	-160944.0	-4734.0	-7056.0
26	14	59	13	669	157.0	-159110.0	-4743.0	-7487.0
26	14	59	13	670	158.0	-157398.0	-4749.0	-7764.0
26	14	59	13	670	159.0	-156639.0	-4729.0	-8166.0
26	14	59	13	671	160.0	-156662.0	-4725.0	-8453.0
26	14	59	13	672	161.0	-156676.0	-4737.0	-7660.0
26	14	59	13	672	162.0	-156332.0	-4739.0	-6238.0
26	14	59	13	673	163.0	-156391.0	-4761.0	-3666.0
26	14	59	13	673	178.0	-140642.0	-4985.0	11124.0
26	14	59	13	674	179.0	-143297.0	-4981.0	8533.0
26	14	59	13	675	180.0	-146888.0	-4977.0	7569.0
26	14	59	13	675	181.0	-150491.0	-4994.0	7508.0
26	14	59	13	676	182.0	-153634.0	-4983.0	7091.0
26	14	59	13	676	183.0	-155747.0	-4976.0	6640.0
26	14	59	13	677	184.0	-154754.0	-4979.0	6763.0
26	14	59	13	708	185.0	-146704.0	-4967.0	6483.0
26	14	59	13	709	186.0	-127797.0	-4973.0	5898.0
26	14	59	13	710	187.0	-106059.0	-4991.0	5746.0
26	14	59	13	710	188.0	-88187.0	-5007.0	5994.0
26	14	59	13	711	189.0	-80132.0	-5042.0	5781.0
26	14	59	13	712	190.0	-82055.0	-5066.0	5867.0
26	14	59	13	713	191.0	-93487.0	-5070.0	6009.0
26	14	59	13	713	192.0	-113892.0	-5092.0	5915.0
26	14	59	13	714	193.0	-137164.0	-5108.0	6066.0
26	14	59	13	715	194.0	-153970.0	-5125.0	6113.0
26	14	59	13	715	195.0	-161754.0	-5147.0	6328.0
26	14	59	13	716	196.0	-163304.0	-5154.0	6576.0
26	14	59	13	717	197.0	-160912.0	-5173.0	6789.0
26	14	59	13	717	198.0	-153831.0	-5204.0	7131.0
26	14	59	13	718	199.0	-142096.0	-5222.0	7898.0
26	14	59	13	718	201.0	-124976.0	-5270.0	7863.0
26	14	59	13	719	202.0	-126216.0	-5279.0	8203.0
26	14	59	13	720	203.0	-134398.0	-5272.0	8379.0
26	14	59	13	720	204.0	-146659.0	-5263.0	8354.0
26	14	59	13	721	205.0	-160133.0	-5274.0	8816.0
26	14	59	13	721	206.0	-174699.0	-5275.0	8799.0
26	14	59	13	752	207.0	-187369.0	-5265.0	9094.0
26	14	59	13	753	208.0	-195433.0	-5285.0	9428.0
26	14	59	13	754	209.0	-198772.0	-5297.0	9674.0
26	14	59	13	755	210.0	-197056.0	-5316.0	10238.0
26	14	59	13	755	211.0	-192398.0	-5349.0	10801.0
26	14	59	13	756	212.0	-186227.0	-5363.0	11182.0
26	14	59	13	757	213.0	-179620.0	-5365.0	11198.0
26	14	59	13	757	214.0	-175414.0	-5390.0	11336.0
26	14	59	13	758	215.0	-171871.0	-5417.0	11643.0
26	14	59	13	759	216.0	-169704.0	-5440.0	11552.0
26	14	59	13	759	217.0	-167454.0	-5460.0	11995.0
26	14	59	13	760	218.0	-165024.0	-5469.0	12289.0
26	14	59	13	761	219.0	-161692.0	-5488.0	12561.0
26	14	59	13	762	220.0	-158774.0	-5512.0	13142.0
26	14	59	13	762	221.0	-155867.0	-5528.0	13919.0
26	14	59	13	763	223.0	-150362.0	-5568.0	14708.0
26	14	59	13	763	224.0	-147613.0	-5576.0	14953.0
26	14	59	13	764	225.0	-145785.0	-5580.0	15101.0
26	14	59	13	765	226.0	-144515.0	-5599.0	15223.0
26	14	59	13	765	227.0	-145287.0	-5610.0	15408.0
26	14	59	13	766	228.0	-147142.0	-5609.0	15908.0
26	14	59	13	797	229.0	-148327.0	-5605.0	16350.0
26	14	59	13	842	230.0	-149367.0	-5599.0	16653.0
26	14	59	13	844	231.0	-149929.0	-5620.0	17070.0
26	14	59	13	845	232.0	-151191.0	-5642.0	17094.0
26	14	59	13	846	233.0	-151892.0	-5667.0	17261.0
26	14	59	13	847	234.0	-152748.0	-5679.0	17690.0
26	14	59	13	847	235.0	-153207.0	-5694.0	18079.0
26	14	59	13	848	236.0	-153968.0	-5718.0	18253.0
26	14	59	13	849	237.0	-154305.0	-5751.0	18451.0
26	14	59	13	849	238.0	-154603.0	-5776.0	19025.0
26	14	59	13	850	239.0	-154757.0	-5796.0	19636.0
26	14	59	13	851	240.0	-154861.0	-5809.0	20017.0
26	14	59	13	851	241.0	-154516.0	-5845.0	20382.0
26	14	59	13	852	242.0	-153696.0	-5856.0	20535.0
26	14	59	13	853	243.0	-152716.0	-5853.0	20692.0
26	14	59	13	853	245.0	-150024.0	-5892.0	21806.0
26	14	59	13	854	246.0	-148265.0	-5930.0	22618.0
26	14	59	13	855	12.0	-143059.0	-6277.0	31194.0
26	14	59	13	855	13.0	-144311.0	-6271.0	31608.0
26	14	59	13	856	14.0	-145937.0	-6252.0	31716.0
26	14	59	13	857	15.0	-147244.0	-6247.0	32194.0
26	14	59	13	857	16.0	-149243.0	-6246.0	32623.0
26	14	59	13	858	17.0	-150727.0	-6217.0	33003.0
26	14	59	13	858	18.0	-152451.0	-6183.0	32881.0
26	14	59	13	887	19.0	-153602.0	-6151.0	33371.0
26	14	59	13	888	20.0	-154792.0	-6136.0	33819.0
26	14	59	13	889	21.0	-156045.0	-6127.0	33781.0
26	14	59	13	890	22.0	-157679.0	-6108.0	34089.0
26	14	59	13	891	23.0	-159168.0	-6077.0	34209.0
26	14	59	13	892	24.0	-160948.0	-6063.0	34547.0
26	14	59	13	892	25.0	-162635.0	-6046.0	34806.0
26	14	59	13	893	26.0	-164219.0	-6019.0	35136.0
26	14	59	13	894	27.0	-165417.0	-6000.0	35338.0
26	14	59	13	895	28.0	-166422.0	-5959.0	35992.0
26	14	59	13	895	29.0	-167196.0	-5932.0	36686.0
26	14	59	13	896	30.0	-167824.0	-5922.0	36844.0
26	14	59	13	896	31.0	-168472.0	-5884.0	37301.0
26	14	59	13	897	32.0	-168661.0	-5831.0	37708.0
26	14	59	13	898	33.0	-168722.0	-5807.0	37999.0
26	14	59	13	898	34.0	-168613.0	-5771.0	37975.0
26	14	59	13	899	35.0	-168569.0	-5731.0	37636.0
26	14	59	13	900	36.0	-168382.0	-5659.0	37638.0
26	14	59	13	900	37.0	-168251.0	-5589.0	37603.0
26	14	59	13	901	38.0	-168284.0	-5544.0	37420.0
26	14	59	13	901	39.0	-168141.0	-5497.0	37583.0
26	14	59	13	902	40.0	-168106.0	-5437.0	38072.0
26	14	59	13	931	41.0	-167331.0	-5364.0	38128.0
26	14	59	13	932	42.0	-166828.0	-5334.0	38201.0
26	14	59	13	933	43.0	-166471.0	-5270.0	38016.0
26	14	59	13	933	44.0	-166614.0	-5216.0	38137.0
26	14	59	13	934	45.0	-166756.0	-5174.0	38166.0
26	14	59	13	935	46.0	-167176.0	-5122.0	38129.0
26	14	59	13	936	47.0	-167549.0	-5077.0	38284.0
26	14	59	13	937	48.0	-167845.0	-5034.0	38576.0
26	14	59	13	937	49.0	-168637.0	-5004.0	38761.0
26	14	59	13	938	50.0	-169996.0	-4953.0	38721.0
26	14	59	13	939	51.0	-171522.0	-4918.0	38983.0
26	14	59	13	939	52.0	-172099.0	-4869.0	39022.0
26	14	59	13	940	53.0	-171911.0	-4841.0	39094.0
26	14	59	13	941	54.0	-171666.0	-4797.0	38995.0
26	14	59	13	941	55.0	-171286.0	-4758.0	39489.0
26	14	59	13	942	57.0	-168766.0	-4676.0	39459.0
26	14	59	13	943	58.0	-167327.0	-4635.0	39521.0
26	14	59	13	943	59.0	-164496.0	-4565.0	39566.0
26	14	59	13	944	60.0	-158121.0	-4490.0	39184.0
26	14	59	13	945	61.0	-147562.0	-4460.0	39309.0
26	14	59	13	945	62.0	-137574.0	-4418.0	39537.0
26	14	59	13	977	63.0	-140501.0	-4374.0	39898.0
26	14	59	13	978	64.0	-152993.0	-4320.0	39763.0
26	14	59	13	979	65.0	-164122.0	-4279.0	39908.0
26	14	59	13	980	66.0	-177927.0	-4259.0	40181.0
26	14	59	13	980	67.0	-186317.0	-4217.0	39844.0
26	14	59	13	981	68.0	-191876.0	-4190.0	39584.0
26	14	59	13	982	69.0	-190168.0	-4179.0	39924.0
26	14	59	13	982	70.0	-187820.0	-4147.0	39871.0
26	14	59	13	983	71.0	-184806.0	-4126.0	39843.0
26	14	59	13	984	72.0	-180137.0	-4101.0	39978.0
26	14	59	13	984	73.0	-175926.0	-4090.0	39756.0
26	14	59	13	985	74.0	-172649.0	-4054.0	39626.0
26	14	59	13	986	75.0	-170644.0	-4037.0	39862.0
26	14	59	13	986	76.0	-169609.0	-4017.0	39838.0
26	14	59	13	987	77.0	-169868.0	-4002.0	39948.0
26	14	59	13	988	79.0	-170751.0	-3973.0	39415.0
26	14	59	13	988	80.0	-170146.0	-3959.0	39324.0
26	14	59	13	989	81.0	-168289.0	-3917.0	39636.0
26	14	59	13	989	82.0	-164941.0	-3888.0	39606.0
26	14	59	13	990	83.0	-159927.0	-3864.0	39336.0
26	14	59	13	991	84.0	-153359.0	-3867.0	39244.0
26	14	59	13	991	85.0	-147781.0	-3818.0	39234.0
26	14	59	14	23	86.0	-143810.0	-3779.0	38942.0
26	14	59	14	24	87.0	-142307.0	-3752.0	38485.0
26	14	59	14	24	88.0	-142963.0	-3745.0	38538.0
26	14	59	14	25	89.0	-144727.0	-3740.0	38406.0
26	14	59	14	26	90.0	-146968.0	-3746.0	37611.0
26	14	59	14	26	91.0	-149254.0	-3746.0	37352.0
26	14	59	14	27	92.0	-150509.0	-3734.0	37347.0
26	14	59	14	27	93.0	-150883.0	-3731.0	36774.0
26	14	59	14	28	94.0	-149704.0	-3730.0	36156.0
26	14	59	14	29	95.0	-147763.0	-3729.0	36101.0
26	14	59	14	29	96.0	-145471.0	-3723.0	36289.0
26	14	59	14	30	97.0	-143832.0	-3729.0	35951.0
26	14	59	14	30	98.0	-141999.0	-3714.0	35274.0
26	14	59	14	66	99.0	-140728.0	-3721.0	35074.0
26	14	59	14	67	100.0	-139869.0	-3744.0	35454.0
26	14	59	14	68	102.0	-141820.0	-3719.0	36158.0
26	14	59	14	69	103.0	-144112.0	-3714.0	36687.0
26	14	59	14	69	104.0	-146564.0	-3695.0	36589.0
26	14	59	14	70	105.0	-149011.0	-3668.0	36406.0
26	14	59	14	71	106.0	-151406.0	-3672.0	36459.0
26	14	59	14	71	107.0	-153382.0	-3658.0	36443.0
26	14	59	14	73	108.0	-155263.0	-3645.0	36413.0
26	14	59	14	74	109.0	-157044.0	-3629.0	36328.0
26	14	59	14	75	110.0	-158669.0	-3639.0	35960.0
26	14	59	14	75	111.0	-159632.0	-3647.0	35913.0
26	14	59	14	76	112.0	-160892.0	-3660.0	35633.0
26	14	59	14	77	113.0	-161578.0	-3660.0	35578.0
26	14	59	14	78	114.0	-162689.0	-3666.0	35258.0
26	14	59	14	79	115.0	-163527.0	-3666.0	34784.0
26	14	59	14	79	124.0	-167376.0	-3744.0	33245.0
26	14	59	14	80	125.0	-167934.0	-3749.0	32878.0
26	14	59	14	80	126.0	-168270.0	-3717.0	32383.0
26	14	59	14	81	127.0	-168086.0	-3729.0	32139.0
26	14	59	14	82	128.0	-167676.0	-3713.0	31966.0
26	14	59	14	82	129.0	-167652.0	-3682.0	31748.0
26	14	59	14	83	130.0	-167335.0	-3672.0	31686.0
26	14	59	14	113	131.0	-166567.0	-3681.0	31481.0
26	14	59	14	114	132.0	-165772.0	-3675.0	31384.0
26	14	59	14	115	133.0	-164537.0	-3665.0	31357.0
26	14	59	14	116	134.0	-163443.0	-3675.0	30961.0
26	14	59	14	116	135.0	-162599.0	-3687.0	30569.0
26	14	59	14	117	136.0	-161757.0	-3701.0	30430.0
26	14	59	14	118	137.0	-160839.0	-3724.0	30148.0
26	14	59	14	118	138.0	-159832.0	-3710.0	30036.0
26	14	59	14	119	139.0	-159272.0	-3711.0	30124.0
26	14	59	14	120	140.0	-159265.0	-3734.0	30039.0
26	14	59	14	120	141.0	-159321.0	-3755.0	30049.0
26	14	59	14	121	142.0	-159590.0	-3757.0	29864.0
26	14	59	14	122	143.0	-160141.0	-3764.0	29981.0
26	14	59	14	122	144.0	-160303.0	-3776.0	29694.0
26	14	59	14	123	145.0	-160717.0	-3777.0	29073.0
26	14	59	14	123	147.0	-160245.0	-3782.0	28196.0
26	14	59	14	124	148.0	-159921.0	-3782.0	28039.0
26	14	59	14	125	149.0	-159452.0	-3765.0	28070.0
26	14	59	14	125	150.0	-159044.0	-3744.0	27123.0
26	14	59	14	126	151.0	-159062.0	-3733.0	27162.0
26	14	59	14	126	152.0	-159120.0	-3719.0	27611.0
26	14	59	14	158	153.0	-158724.0	-3722.0	27646.0
26	14	59	14	158	154.0	-158839.0	-3718.0	27531.0
26	14	59	14	159	155.0	-158791.0	-3716.0	27547.0
26	14	59	14	160	156.0	-159745.0	-3703.0	26914.0
26	14	59	14	161	157.0	-160797.0	-3701.0	26662.0
26	14	59	14	161	158.0	-162039.0	-3704.0	26678.0
26	14	59	14	162	159.0	-162905.0	-3707.0	26201.0
26	14	59	14	163	160.0	-163752.0	-3700.0	26068.0
26	14	59	14	163	161.0	-164229.0	-3707.0	26215.0
26	14	59	14	164	162.0	-165137.0	-3722.0	26400.0
26	14	59	14	164	163.0	-165711.0	-3724.0	26329.0
26	14	59	14	165	164.0	-166369.0	-3717.0	26115.0
26	14	59	14	166	165.0	-167236.0	-3706.0	25919.0
26	14	59	14	166	166.0	-168359.0	-3704.0	26089.0
26	14	59	14	167	167.0	-169947.0	-3721.0	26152.0
26	14	59	14	168	169.0	-173399.0	-3736.0	25263.0
26	14	59	14	168	170.0	-174708.0	-3736.0	25414.0
26	14	59	14	169	171.0	-175893.0	-3708.0	25400.0
26	14	59	14	169	172.0	-175661.0	-3687.0	25375.0
26	14	59	14	170	173.0	-175060.0	-3661.0	25387.0
26	14	59	14	171	174.0	-173963.0	-3642.0	25234.0
26	14	59	14	203	175.0	-173500.0	-3636.0	25154.0
26	14	59	14	204	176.0	-172757.0	-3612.0	25214.0
26	14	59	14	205	177.0	-171811.0	-3598.0	25238.0
26	14	59	14	205	178.0	-170692.0	-3601.0	25301.0
26	14	59	14	206	179.0	-169244.0	-3586.0	25153.0
26	14	59	14	207	180.0	-168311.0	-3607.0	24755.0
26	14	59	14	207	181.0	-167824.0	-3615.0	24809.0
26	14	59	14	208	182.0	-167288.0	-3601.0	24859.0
26	14	59	14	209	183.0	-166933.0	-3594.0	24783.0
26	14	59	14	209	184.0	-166582.0	-3606.0	24761.0
26	14	59	14	210	185.0	-166341.0	-3603.0	24719.0
26	14	59	14	210	186.0	-166122.0	-3600.0	24798.0
26	14	59	14	211	187.0	-165623.0	-3602.0	24519.0
26	14	59	14	212	188.0	-164762.0	-3600.0	23953.0
26	14	59	14	212	189.0	-164086.0	-3606.0	22774.0
26	14	59	14	213	191.0	-161971.0	-3619.0	19548.0
26	14	59	14	247	192.0	-160846.0	-3607.0	19152.0
26	14	59	14	248	193.0	-159592.0	-3587.0	18451.0
26	14	59	14	248	194.0	-159551.0	-3570.0	17147.0
26	14	59	14	249	195.0	-159679.0	-3571.0	16326.0
26	14	59	14	250	196.0	-159859.0	-3544.0	16326.0
26	14	59	14	250	197.0	-160355.0	-3523.0	16891.0
26	14	59	14	251	198.0	-161184.0	-3522.0	18168.0
26	14	59	14	252	199.0	-162129.0	-3522.0	21228.0
26	14	59	14	253	200.0	-163698.0	-3529.0	25363.0
26	14	59	14	253	201.0	-164870.0	-3531.0	30057.0
26	14	59	14	254	202.0	-165760.0	-3537.0	35010.0
26	14	59	14	255	203.0	-166153.0	-3567.0	38663.0
26	14	59	14	255	204.0	-166518.0	-3564.0	40588.0
26	14	59	14	256	205.0	-167410.0	-3564.0	42486.0
26	14	59	14	257	206.0	-168497.0	-3575.0	43843.0
26	14	59	14	257	214.0	-167858.0	-3628.0	33677.0
26	14	59	14	258	215.0	-169077.0	-3636.0	30995.0
26	14	59	14	259	216.0	-170787.0	-3611.0	28784.0
26	14	59	14	259	217.0	-172844.0	-3593.0	27688.0
26	14	59	14	260	218.0	-175394.0	-3587.0	26721.0
26	14	59	14	338	219.0	-176985.0	-3572.0	23395.0
26	14	59	14	339	220.0	-175766.0	-3578.0	20582.0
26	14	59	14	340	221.0	-167167.0	-3566.0	19411.0
26	14	59	14	340	222.0	-147903.0	-3559.0	18771.0
26	14	59	14	341	223.0	-118790.0	-3590.0	17764.0
26	14	59	14	341	224.0	-91623.0	-3587.0	17106.0
26	14	59	14	342	225.0	-77006.0	-3598.0	16784.0
26	14	59	14	342	226.0	-80212.0	-3607.0	16425.0
26	14	59	14	343	227.0	-99897.0	-3609.0	15995.0
26	14	59	14	344	228.0	-132721.0	-3611.0	15966.0
26	14	59	14	344	229.0	-165364.0	-3634.0	15611.0
26	14	59	14	345	230.0	-184992.0	-3651.0	15299.0
26	14	59	14	345	231.0	-191527.0	-3667.0	14786.0
26	14	59	14	346	232.0	-191459.0	-3676.0	14656.0
26	14	59	14	346	233.0	-188398.0	-3694.0	14888.0
26	14	59	14	347	234.0	-180853.0	-3703.0	14386.0
26	14	59	14	348	3.0	-151584.0	-3946.0	12754.0
26	14	59	14	348	4.0	-149849.0	-3969.0	12481.0
26	14	59	14	349	5.0	-149041.0	-3961.0	11978.0
26	14	59	14	349	6.0	-148431.0	-3954.0	11848.0
26	14	59	14	350	7.0	-148791.0	-3935.0	11997.0
26	14	59	14	350	8.0	-149298.0	-3932.0	11727.0
26	14	59	14	351	9.0	-149548.0	-3936.0	11461.0
26	14	59	14	382	10.0	-149576.0	-3928.0	11567.0
26	14	59	14	383	11.0	-149107.0	-3926.0	11958.0
26	14	59	14	384	12.0	-148547.0	-3951.0	12117.0
26	14	59	14	384	13.0	-148088.0	-3977.0	12334.0
26	14	59	14	385	14.0	-149143.0	-3978.0	12269.0
26	14	59	14	385	15.0	-149814.0	-3991.0	11916.0
26	14	59	14	386	16.0	-150440.0	-4002.0	11950.0
26	14	59	14	387	17.0	-150984.0	-4009.0	11853.0
26	14	59	14	387	18.0	-151755.0	-4016.0	11949.0
26	14	59	14	388	19.0	-152617.0	-4031.0	12084.0
26	14	59	14	388	20.0	-153642.0	-4043.0	12220.0
26	14	59	14	389	21.0	-154895.0	-4068.0	12253.0
26	14	59	14	389	22.0	-155572.0	-4070.0	12256.0
26	14	59	14	390	23.0	-155640.0	-4070.0	12481.0
26	14	59	14	391	24.0	-155614.0	-4093.0	12136.0
26	14	59	14	391	25.0	-155450.0	-4108.0	12068.0
26	14	59	14	392	26.0	-155781.0	-4125.0	11854.0
26	14	59	14	392	27.0	-155926.0	-4124.0	11790.0
26	14	59	14	393	28.0	-155425.0	-4109.0	12153.0
26	14	59	14	394	29.0	-154312.0	-4092.0	12015.0
26	14	59	14	394	30.0	-153322.0	-4089.0	11775.0
26	14	59	14	395	31.0	-153095.0	-4096.0	11673.0
26	14	59	14	426	32.0	-153177.0	-4096.0	11870.0
26	14	59	14	427	33.0	-153587.0	-4092.0	11619.0
26	14	59	14	428	34.0	-153828.0	-4097.0	11326.0
26	14	59	14	428	35.0	-153739.0	-4099.0	10962.0
26	14	59	14	429	36.0	-153769.0	-4114.0	11366.0
26	14	59	14	430	37.0	-153492.0	-4137.0	11282.0
26	14	59	14	430	38.0	-153616.0	-4136.0	10853.0
26	14	59	14	431	39.0	-153601.0	-4141.0	10949.0
26	14	59	14	431	40.0	-153290.0	-4145.0	10993.0
26	14	59	14	432	41.0	-153234.0	-4152.0	10403.0
26	14	59	14	432	42.0	-153525.0	-4168.0	9986.0
26	14	59	14	433	43.0	-153695.0	-4166.0	9851.0
26	14	59	14	434	44.0	-153559.0	-4157.0	9800.0
26	14	59	14	434	45.0	-153568.0	-4150.0	9811.0
26	14	59	14	435	46.0	-154399.0	-4158.0	9807.0
26	14	59	14	435	48.0	-157216.0	-4155.0	9623.0
26	14	59	14	436	49.0	-159005.0	-4136.0	9573.0
26	14	59	14	437	50.0	-160609.0	-4100.0	9341.0
26	14	59	14	437	51.0	-161724.0	-4066.0	8926.0
26	14	59	14	438	52.0	-162602.0	-4019.0	8825.0
26	14	59	14	438	53.0	-163576.0	-3973.0	8842.0
26	14	59	14	472	54.0	-164532.0	-3964.0	8793.0
26	14	59	14	473	55.0	-165164.0	-3922.0	8601.0
26	14	59	14	473	56.0	-165458.0	-3880.0	9001.0
26	14	59	14	474	57.0	-165585.0	-3863.0	8551.0
26	14	59	14	475	58.0	-166246.0	-3834.0	8315.0
26	14	59	14	475	59.0	-166863.0	-3792.0	8413.0
26	14	59	14	476	60.0	-167317.0	-3761.0	8454.0
26	14	59	14	476	61.0	-167577.0	-3716.0	7973.0
26	14	59	14	477	62.0	-168002.0	-3640.0	8469.0
26	14	59	14	477	63.0	-168546.0	-3607.0	8651.0
26	14	59	14	478	64.0	-170387.0	-3563.0	8485.0
26	14	59	14	479	65.0	-172860.0	-3534.0	8250.0
26	14	59	14	479	66.0	-171786.0	-3476.0	8437.0
26	14	59	14	480	67.0	-168542.0	-3406.0	8707.0
26	14	59	14	563	68.0	-165802.0	-3346.0	8564.0
26	14	59	14	564	70.0	-165156.0	-3257.0	8274.0
26	14	59	14	564	71.0	-165902.0	-3191.0	7947.0
26	14	59	14	565	72.0	-166016.0	-3114.0	7754.0
26	14	59	14	565	73.0	-165380.0	-3058.0	7567.0
26	14	59	14	566	74.0	-164403.0	-2968.0	7633.0
26	14	59	14	567	75.0	-162754.0	-2881.0	7488.0
26	14	59	14	567	76.0	-161117.0	-2788.0	7703.0
26	14	59	14	568	77.0	-160134.0	-2726.0	7474.0
26	14	59	14	568	78.0	-159438.0	-2649.0	7716.0
26	14	59	14	569	79.0	-159230.0	-2577.0	7575.0
26	14	59	14	570	80.0	-159261.0	-2512.0	7265.0
26	14	59	14	570	81.0	-159530.0	-2446.0	7239.0
26	14	59	14	571	82.0	-159873.0	-2391.0	7420.0
26	14	59	14	572	83.0	-160447.0	-2327.0	7178.0
26	14	59	14	572	84.0	-161354.0	-2256.0	7060.0
26	14	59	14	573	115.0	-150976.0	-682.0	2597.0
26	14	59	14	573	116.0	-149908.0	-647.0	2702.0
26	14	59	14	574	117.0	-151551.0	-597.0	2287.0
26	14	59	14	575	118.0	-153809.0	-544.0	1896.0
26	14	59	14	575	119.0	-155938.0	-479.0	1642.0
26	14	59	14	576	120.0	-157626.0	-442.0	1528.0
26	14	59	14	576	121.0	-158332.0	-388.0	1498.0
26	14	59	14	607	122.0	-157875.0	-369.0	1660.0
26	14	59	14	608	123.0	-156211.0	-333.0	1373.0
26	14	59	14	609	124.0	-153631.0	-299.0	1363.0
26	14	59	14	609	125.0	-150831.0	-282.0	1488.0
26	14	59	14	610	126.0	-148062.0	-258.0	1533.0
26	14	59	14	611	127.0	-146293.0	-235.0	1201.0
26	14	59	14	611	128.0	-145072.0	-200.0	1088.0
26	14	59	14	612	129.0	-144319.0	-190.0	1480.0
26	14	59	14	613	130.0	-144291.0	-175.0	1286.0
26	14	59	14	613	131.0	-144415.0	-151.0	913.0
26	14	59	14	614	132.0	-144992.0	-141.0	829.0
26	14	59	14	615	133.0	-145597.0	-116.0	1024.0
26	14	59	14	615	134.0	-146299.0	-94.0	626.0
26	14	59	14	616	135.0	-146914.0	-89.0	256.0
26	14	59	14	617	136.0	-147506.0	-72.0	151.0
26	14	59	14	617	137.0	-148205.0	-56.0	186.0
26	14	59	14	618	138.0	-149397.0	-26.0	-178.0
26	14	59	14	619	139.0	-151104.0	5.0	-13.0
26	14	59	14	619	140.0	-153461.0	36.0	253.0
26	14	59	14	620	141.0	-155771.0	58.0	194.0
26	14	59	14	621	142.0	-158027.0	88.0	-231.0
26	14	59	14	621	143.0	-160074.0	121.0	-903.0
26	14	59	14	652	144.0	-161931.0	131.0	-3324.0
26	14	59	14	653	145.0	-163777.0	169.0	-4600.0
26	14	59	14	654	146.0	-165122.0	196.0	-5291.0
26	14	59	14	654	147.0	-166142.0	198.0	-5896.0
26	14	59	14	655	148.0	-166998.0	214.0	-5886.0
26	14	59	14	656	149.0	-167616.0	221.0	-6167.0
26	14	59	14	656	150.0	-168101.0	236.0	-6326.0
26	14	59	14	657	151.0	-168597.0	248.0	-6060.0
26	14	59	14	657	152.0	-168751.0	243.0	-6011.0
26	14	59	14	658	153.0	-168748.0	239.0	-6451.0
26	14	59	14	659	154.0	-168582.0	243.0	-6679.0
26	14	59	14	659	155.0	-168091.0	254.0	-6756.0
26	14	59	14	660	156.0	-167619.0	259.0	-7039.0
26	14	59	14	660	157.0	-167632.0	271.0	-7740.0
26	14	59	14	661	158.0	-167379.0	276.0	-7574.0
26	14	59	14	662	160.0	-167119.0	285.0	-7024.0
26	14	59	14	662	161.0	-166917.0	281.0	-7366.0
26	14	59	14	663	162.0	-166438.0	292.0	-7493.0
26	14	59	14	663	163.0	-166026.0	329.0	-7381.0
26	14	59	14	664	164.0	-165578.0	335.0	-7672.0
26	14	59	14	664	165.0	-165296.0	352.0	-7840.0
26	14	59	14	696	166.0	-165292.0	368.0	-7787.0
26	14	59	14	697	167.0	-164881.0	373.0	-8117.0
26	14	59	14	697	168.0	-164639.0	390.0	-8710.0
26	14	59	14	698	169.0	-164711.0	400.0	-9366.0
26	14	59	14	699	170.0	-164945.0	371.0	-9476.0
26	14	59	14	699	171.0	-165111.0	379.0	-9436.0
26	14	59	14	700	172.0	-164895.0	382.0	-9309.0
26	14	59	14	701	173.0	-164714.0	376.0	-9441.0
26	14	59	14	701	174.0	-165049.0	370.0	-9802.0
26	14	59	14	702	175.0	-165552.0	384.0	-9960.0
26	14	59	14	703	176.0	-166091.0	382.0	-10127.0
26	14	59	14	703	177.0	-166236.0	378.0	-10603.0
26	14	59	14	704	178.0	-165974.0	381.0	-10821.0
26	14	59	14	704	179.0	-165421.0	387.0	-10821.0
26	14	59	14	705	180.0	-164689.0	380.0	-11131.0
26	14	59	14	706	182.0	-164282.0	362.0	-12234.0
26	14	59	14	706	183.0	-165256.0	361.0	-12887.0
26	14	59	14	707	184.0	-166044.0	376.0	-13220.0
26	14	59	14	707	185.0	-166503.0	395.0	-13849.0
26	14	59	14	708	186.0	-166678.0	410.0	-14041.0
26	14	59	14	709	187.0	-166944.0	423.0	-14372.0
26	14	59	14	709	188.0	-166840.0	435.0	-14279.0
26	14	59	14	741	189.0	-166616.0	447.0	-13976.0
26	14	59	14	742	190.0	-166357.0	471.0	-14109.0
26	14	59	14	792	191.0	-166138.0	481.0	-14367.0
26	14	59	14	792	192.0	-166075.0	479.0	-14664.0
26	14	59	14	793	193.0	-166546.0	474.0	-14936.0
26	14	59	14	794	194.0	-166962.0	479.0	-15206.0
26	14	59	14	794	195.0	-167536.0	486.0	-15080.0
26	14	59	14	795	196.0	-168184.0	476.0	-15055.0
26	14	59	14	796	197.0	-169417.0	468.0	-15671.0
26	14	59	14	796	198.0	-170666.0	496.0	-15872.0
26	14	59	14	797	199.0	-172188.0	494.0	-16253.0
26	14	59	14	797	200.0	-173350.0	481.0	-16521.0
26	14	59	14	798	201.0	-174316.0	486.0	-17116.0
26	14	59	14	799	202.0	-174507.0	476.0	-17234.0
26	14	59	14	799	203.0	-174326.0	471.0	-17338.0
26	14	59	14	800	205.0	-173552.0	478.0	-18137.0
26	14	59	14	800	206.0	-172836.0	491.0	-18215.0
26	14	59	14	801	207.0	-171944.0	514.0	-18644.0
26	14	59	14	801	228.0	-149904.0	562.0	-30892.0
26	14	59	14	802	229.0	-149504.0	591.0	-31059.0
26	14	59	14	803	230.0	-149094.0	600.0	-31178.0
26	14	59	14	803	231.0	-148951.0	623.0	-32511.0
26	14	59	14	804	232.0	-149387.0	634.0	-33726.0
26	14	59	14	804	233.0	-149791.0	658.0	-35452.0
26	14	59	14	832	234.0	-150553.0	678.0	-36722.0
26	14	59	14	833	235.0	-151333.0	681.0	-37614.0
26	14	59	14	833	236.0	-152296.0	670.0	-38643.0
26	14	59	14	834	237.0	-153994.0	662.0	-39656.0
26	14	59	14	835	238.0	-156472.0	658.0	-40536.0
26	14	59	14	835	239.0	-158946.0	669.0	-40861.0
26	14	59	14	836	240.0	-161079.0	664.0	-40794.0
26	14	59	14	836	241.0	-163291.0	660.0	-38985.0
26	14	59	14	837	242.0	-164860.0	651.0	-35290.0
26	14	59	14	838	243.0	-166265.0	642.0	-31167.0
26	14	59	14	838	244.0	-167388.0	636.0	-26602.0
26	14	59	14	839	245.0	-168162.0	622.0	-21842.0
26	14	59	14	840	246.0	-168436.0	600.0	-18643.0
26	14	59	14	840	247.0	-169070.0	606.0	-17092.0
26	14	59	14	841	248.0	-169947.0	596.0	-15926.0
26	14	59	14	842	250.0	-172444.0	586.0	-16109.0
26	14	59	14	842	251.0	-174029.0	587.0	-16541.0
26	14	59	14	843	252.0	-174971.0	599.0	-16022.0
26	14	59	14	843	253.0	-174779.0	614.0	-16019.0
26	14	59	14	844	254.0	-174319.0	627.0	-17355.0
26	14	59	14	845	255.0	-173519.0	622.0	-20214.0
26	14	59	14	876	0.0	-172489.0	633.0	-23765.0
26	14	59	14	877	1.0	-171420.0	636.0	-27903.0
26	14	59	14	878	2.0	-170759.0	641.0	-31965.0
26	14	59	14	878	3.0	-169133.0	631.0	-34683.0
26	14	59	14	879	4.0	-168867.0	620.0	-35112.0
26	14	59	14	880	5.0	-170378.0	611.0	-35863.0
26	14	59	14	880	6.0	-171666.0	589.0	-36541.0
26	14	59	14	881	7.0	-165084.0	584.0	-37499.0
26	14	59	14	881	8.0	-141878.0	576.0	-38675.0
26	14	59	14	882	9.0	-111192.0	557.0	-39244.0
26	14	59	14	883	10.0	-82811.0	546.0	-40064.0
26	14	59	14	883	11.0	-64657.0	537.0	-40543.0
26	14	59	14	884	12.0	-60644.0	528.0	-41026.0
26	14	59	14	885	13.0	-71074.0	506.0	-41756.0
26	14	59	14	885	14.0	-96308.0	496.0	-42572.0
26	14	59	14	886	16.0	-157151.0	477.0	-43028.0
26	14	59	14	894	17.0	-176792.0	459.0	-42872.0
26	14	59	14	895	18.0	-186490.0	465.0	-43054.0
26	14	59	14	896	19.0	-188831.0	455.0	-43216.0
26	14	59	14	896	20.0	-182091.0	471.0	-43417.0
26	14	59	14	897	21.0	-166539.0	484.0	-43631.0
26	14	59	14	897	22.0	-147906.0	468.0	-43507.0
26	14	59	14	922	23.0	-132533.0	481.0	-43729.0
26	14	59	14	922	24.0	-124775.0	490.0	-44224.0
26	14	59	14	923	25.0	-126500.0	479.0	-44538.0
26	14	59	14	924	26.0	-135381.0	466.0	-44590.0
26	14	59	14	942	27.0	-146009.0	438.0	-45408.0
26	14	59	14	943	28.0	-159143.0	431.0	-46119.0
26	14	59	14	943	29.0	-171873.0	414.0	-46026.0
26	14	59	14	944	30.0	-182917.0	395.0	-46001.0
26	14	59	14	944	31.0	-192209.0	378.0	-46214.0
26	14	59	14	945	32.0	-199246.0	354.0	-46148.0
26	14	59	14	945	33.0	-202602.0	343.0	-46190.0
26	14	59	14	946	34.0	-201067.0	331.0	-46661.0
26	14	59	14	947	35.0	-196293.0	311.0	-47365.0
26	14	59	14	947	36.0	-189767.0	295.0	-47689.0
26	14	59	14	948	37.0	-182158.0	252.0	-47807.0
26	14	59	14	948	39.0	-167836.0	224.0	-48260.0
26	14	59	14	949	40.0	-162184.0	218.0	-48182.0
26	14	59	14	949	41.0	-157216.0	214.0	-48108.0
26	14	59	14	950	42.0	-152981.0	216.0	-48580.0
26	14	59	14	951	43.0	-149422.0	208.0	-48421.0
26	14	59	14	951	44.0	-147447.0	214.0	-48268.0
26	14	59	14	968	45.0	-146231.0	222.0	-48319.0
26	14	59	14	969	46.0	-144834.0	201.0	-48425.0
26	14	59	14	969	47.0	-142673.0	191.0	-48127.0
26	14	59	14	970	48.0	-140106.0	187.0	-48263.0
26	14	59	14	971	49.0	-137351.0	166.0	-47912.0
26	14	59	14	971	50.0	-135408.0	131.0	-48170.0
26	14	59	14	972	51.0	-134429.0	113.0	-47953.0
26	14	59	14	973	52.0	-133846.0	88.0	-47714.0
26	14	59	14	973	53.0	-133764.0	75.0	-47792.0
26	14	59	14	974	54.0	-133700.0	65.0	-48155.0
26	14	59	14	975	55.0	-133459.0	41.0	-48054.0
26	14	59	14	975	56.0	-133442.0	20.0	-48021.0
26	14	59	14	976	57.0	-133639.0	-6.0	-48272.0
26	14	59	14	977	58.0	-134219.0	-16.0	-48537.0
26	14	59	14	977	59.0	-135093.0	-15.0	-48008.0
26	14	59	14	978	61.0	-136622.0	-70.0	-46968.0
26	14	59	14	979	62.0	-137507.0	-83.0	-46824.0
26	14	59	14	979	63.0	-138231.0	-77.0	-46791.0
26	14	59	14	980	64.0	-139101.0	-87.0	-46734.0
26	14	59	14	980	65.0	-139975.0	-84.0	-46051.0
26	14	59	14	981	66.0	-140411.0	-99.0	-45111.0
26	14	59	15	12	67.0	-141127.0	-95.0	-44821.0
26	14	59	15	12	68.0	-141166.0	-96.0	-44809.0
26	14	59	15	13	69.0	-141036.0	-109.0	-44515.0
26	14	59	15	14	70.0	-141272.0	-127.0	-44625.0
26	14	59	15	57	71.0	-141909.0	-139.0	-44672.0
26	14	59	15	58	72.0	-142932.0	-149.0	-44547.0
26	14	59	15	58	73.0	-143915.0	-176.0	-44649.0
26	14	59	15	59	74.0	-144711.0	-217.0	-45605.0
26	14	59	15	60	75.0	-145514.0	-229.0	-46051.0
26	14	59	15	60	76.0	-146469.0	-262.0	-46227.0
26	14	59	15	61	77.0	-147827.0	-286.0	-46694.0
26	14	59	15	61	78.0	-149012.0	-279.0	-47135.0
26	14	59	15	62	79.0	-149996.0	-306.0	-47191.0
26	14	59	15	63	80.0	-151065.0	-326.0	-47258.0
26	14	59	15	64	81.0	-151833.0	-327.0	-47349.0
26	14	59	15	64	83.0	-152904.0	-362.0	-47222.0
26	14	59	15	65	84.0	-152989.0	-379.0	-47940.0
26	14	59	15	65	85.0	-153367.0	-366.0	-47847.0
26	14	59	15	66	86.0	-153339.0	-353.0	-47635.0
26	14	59	15	67	87.0	-152833.0	-361.0	-47482.0
26	14	59	15	67	106.0	-152472.0	-35.0	-47419.0
26	14	59	15	68	107.0	-153597.0	10.0	-47289.0
26	14	59	15	69	108.0	-154085.0	74.0	-47081.0
26	14	59	15	69	109.0	-154715.0	143.0	-47093.0
26	14	59	15	78	110.0	-155182.0	230.0	-47477.0
26	14	59	15	78	111.0	-155697.0	269.0	-47637.0
26	14	59	15	79	112.0	-156649.0	353.0	-47889.0
26	14	59	15	102	113.0	-157500.0	415.0	-48153.0
26	14	59	15	103	114.0	-158167.0	515.0	-48321.0
26	14	59	15	104	115.0	-158014.0	572.0	-48318.0
26	14	59	15	104	116.0	-158348.0	605.0	-48433.0
26	14	59	15	105	117.0	-158559.0	643.0	-48626.0
26	14	59	15	106	118.0	-158671.0	701.0	-48702.0
26	14	59	15	106	119.0	-158556.0	764.0	-48471.0
26	14	59	15	107	120.0	-158107.0	823.0	-48817.0
26	14	59	15	108	121.0	-157809.0	867.0	-49119.0
26	14	59	15	108	122.0	-157304.0	943.0	-49107.0
26	14	59	15	109	123.0	-156709.0	1000.0	-49234.0
26	14	59	15	110	124.0	-155934.0	1057.0	-49530.0
26	14	59	15	110	125.0	-155234.0	1118.0	-49680.0
26	14	59	15	111	126.0	-154811.0	1162.0	-48907.0
26	14	59	15	112	127.0	-155209.0	1227.0	-48080.0
26	14	59	15	112	128.0	-155444.0	1295.0	-47521.0
26	14	59	15	113	129.0	-156025.0	1343.0	-47242.0
26	14	59	15	113	130.0	-156201.0	1409.0	-46965.0
26	14	59	15	114	131.0	-156750.0	1489.0	-46962.0
26	14	59	15	115	132.0	-156801.0	1545.0	-47212.0
26	14	59	15	115	133.0	-157531.0	1599.0	-47286.0
26	14	59	15	116	134.0	-157701.0	1666.0	-47306.0
26	14	59	15	147	135.0	-158190.0	1724.0	-47304.0
26	14	59	15	147	136.0	-157536.0	1786.0	-47080.0
26	14	59	15	148	137.0	-158321.0	1843.0	-47279.0
26	14	59	15	149	138.0	-159281.0	1876.0	-47164.0
26	14	59	15	150	139.0	-159224.0	1901.0	-47388.0
26	14	59	15	150	140.0	-152912.0	1951.0	-47204.0
26	14	59	15	151	141.0	-140881.0	1970.0	-46997.0
26	14	59	15	152	142.0	-125571.0	1989.0	-46527.0
26	14	59	15	152	143.0	-120374.0	2024.0	-46351.0
26	14	59	15	153	144.0	-133002.0	2060.0	-46052.0
26	14	59	15	154	145.0	-145956.0	2069.0	-46165.0
26	14	59	15	154	146.0	-162217.0	2105.0	-46229.0
26	14	59	15	155	147.0	-174658.0	2126.0	-46356.0
26	14	59	15	156	148.0	-184274.0	2132.0	-46139.0
26	14	59	15	156	149.0	-184277.0	2156.0	-45818.0
26	14	59	15	157	151.0	-177584.0	2188.0	-45422.0
26	14	59	15	158	152.0	-171314.0	2196.0	-44954.0
26	14	59	15	158	153.0	-164957.0	2236.0	-44707.0
26	14	59	15	159	154.0	-159617.0	2274.0	-44881.0
26	14	59	15	159	155.0	-154967.0	2309.0	-44727.0
26	14	59	15	160	156.0	-153224.0	2341.0	-44647.0
26	14	59	15	192	157.0	-154094.0	2358.0	-44757.0
26	14	59	15	193	158.0	-157447.0	2383.0	-45017.0
26	14	59	15	194	159.0	-161696.0	2396.0	-45006.0
26	14	59	15	194	160.0	-166054.0	2401.0	-44857.0
26	14	59	15	195	161.0	-169641.0	2419.0	-44884.0
26	14	59	15	196	162.0	-171861.0	2429.0	-45078.0
26	14	59	15	196	163.0	-172924.0	2425.0	-45161.0
26	14	59	15	197	164.0	-173106.0	2435.0	-45155.0
26	14	59	15	283	165.0	-172746.0	2427.0	-45046.0
26	14	59	15	284	166.0	-172079.0	2413.0	-44622.0
26	14	59	15	285	167.0	-170842.0	2406.0	-44670.0
26	14	59	15	285	168.0	-169429.0	2422.0	-45192.0
26	14	59	15	286	169.0	-168026.0	2423.0	-45096.0
26	14	59	15	287	170.0	-166763.0	2428.0	-44880.0
26	14	59	15	287	171.0	-165992.0	2423.0	-44465.0
26	14	59	15	288	173.0	-165119.0	2419.0	-44066.0
26	14	59	15	289	174.0	-164876.0	2402.0	-43688.0
26	14	59	15	289	175.0	-164121.0	2396.0	-43196.0
26	14	59	15	290	176.0	-163167.0	2406.0	-43415.0
26	14	59	15	291	177.0	-162714.0	2414.0	-43778.0
26	14	59	15	291	178.0	-162344.0	2407.0	-43524.0
26	14	59	15	292	179.0	-161789.0	2400.0	-43104.0
26	14	59	15	293	180.0	-161397.0	2400.0	-42856.0
26	14	59	15	293	218.0	-154906.0	1868.0	-35751.0
26	14	59	15	294	219.0	-155061.0	1853.0	-35552.0
26	14	59	15	295	220.0	-155199.0	1852.0	-35424.0
26	14	59	15	295	221.0	-155654.0	1843.0	-35356.0
26	14	59	15	296	222.0	-155817.0	1845.0	-35244.0
26	14	59	15	296	223.0	-155846.0	1852.0	-35331.0
26	14	59	15	297	224.0	-155680.0	1853.0	-35498.0
26	14	59	15	327	225.0	-155721.0	1846.0	-35522.0
26	14	59	15	328	226.0	-155986.0	1850.0	-35456.0
26	14	59	15	329	227.0	-156576.0	1825.0	-35652.0
26	14	59	15	330	228.0	-157142.0	1803.0	-35419.0
26	14	59	15	330	229.0	-157790.0	1786.0	-35126.0
26	14	59	15	331	230.0	-158535.0	1770.0	-35082.0
26	14	59	15	332	231.0	-158686.0	1759.0	-34837.0
26	14	59	15	332	232.0	-158344.0	1739.0	-34774.0
26	14	59	15	333	233.0	-158646.0	1719.0	-34837.0
26	14	59	15	334	234.0	-159093.0	1694.0	-34958.0
26	14	59	15	335	235.0	-159504.0	1692.0	-34751.0
26	14	59	15	335	236.0	-160134.0	1668.0	-34856.0
26	14	59	15	336	237.0	-161157.0	1636.0	-35318.0
26	14	59	15	337	238.0	-162201.0	1636.0	-35241.0
26	14	59	15	337	239.0	-163914.0	1641.0	-35174.0
26	14	59	15	338	241.0	-166650.0	1608.0	-34507.0
26	14	59	15	338	242.0	-167273.0	1622.0	-34478.0
26	14	59	15	339	243.0	-168092.0	1604.0	-33919.0
26	14	59	15	340	244.0	-169470.0	1608.0	-33831.0
26	14	59	15	340	245.0	-170646.0	1636.0	-33516.0
26	14	59	15	341	246.0	-171802.0	1639.0	-33431.0
26	14	59	15	372	247.0	-172871.0	1632.0	-33415.0
26	14	59	15	372	248.0	-174089.0	1616.0	-33193.0
26	14	59	15	373	249.0	-175210.0	1615.0	-32418.0
26	14	59	15	374	250.0	-176737.0	1618.0	-31884.0
26	14	59	15	375	251.0	-178016.0	1612.0	-31697.0
26	14	59	15	375	252.0	-179211.0	1606.0	-31372.0
26	14	59	15	376	253.0	-180391.0	1590.0	-31381.0
26	14	59	15	377	254.0	-181526.0	1588.0	-30977.0
26	14	59	15	377	255.0	-182194.0	1561.0	-30884.0
26	14	59	15	378	0.0	-182831.0	1540.0	-30754.0
26	14	59	15	379	1.0	-183826.0	1540.0	-30935.0
26	14	59	15	379	2.0	-184419.0	1541.0	-30574.0
26	14	59	15	380	3.0	-185646.0	1514.0	-30003.0
26	14	59	15	381	4.0	-186121.0	1518.0	-29286.0
26	14	59	15	382	5.0	-186250.0	1498.0	-28894.0
26	14	59	15	382	7.0	-186327.0	1493.0	-28457.0
26	14	59	15	383	8.0	-185951.0	1486.0	-28352.0
26	14	59	15	384	9.0	-184624.0	1480.0	-28016.0
26	14	59	15	384	10.0	-183556.0	1479.0	-27626.0
26	14	59	15	385	11.0	-181994.0	1481.0	-27339.0
26	14	59	15	385	12.0	-180712.0	1487.0	-27205.0
26	14	59	15	417	13.0	-179652.0	1492.0	-26969.0
26	14	59	15	418	14.0	-178651.0	1511.0	-26928.0
26	14	59	15	419	15.0	-177797.0	1506.0	-26651.0
26	14	59	15	420	16.0	-176771.0	1486.0	-26267.0
26	14	59	15	420	17.0	-175096.0	1471.0	-25969.0
26	14	59	15	421	18.0	-173453.0	1456.0	-25741.0
26	14	59	15	422	19.0	-172021.0	1454.0	-25498.0
26	14	59	15	423	20.0	-170008.0	1432.0	-25431.0
26	14	59	15	423	21.0	-166601.0	1414.0	-25430.0
26	14	59	15	424	22.0	-163684.0	1398.0	-25191.0
26	14	59	15	425	23.0	-161911.0	1394.0	-25284.0
26	14	59	15	425	24.0	-160726.0	1391.0	-25293.0
26	14	59	15	426	25.0	-157594.0	1375.0	-24956.0
26	14	59	15	427	26.0	-156135.0	1361.0	-24741.0
26	14	59	15	427	27.0	-156343.0	1344.0	-25032.0
26	14	59	15	428	29.0	-155711.0	1304.0	-25507.0
26	14	59	15	429	30.0	-155731.0	1288.0	-26506.0
26	14	59	15	429	31.0	-155882.0	1287.0	-27596.0
26	14	59	15	430	32.0	-156187.0	1300.0	-28298.0
26	14	59	15	430	33.0	-157056.0	1296.0	-28525.0
26	14	59	15	431	34.0	-158138.0	1285.0	-29011.0
26	14	59	15	432	35.0	-158852.0	1300.0	-29587.0
26	14	59	15	462	36.0	-159474.0	1292.0	-30028.0
26	14	59	15	472	37.0	-160289.0	1286.0	-29629.0
26	14	59	15	473	38.0	-161130.0	1279.0	-28691.0
26	14	59	15	473	39.0	-161859.0	1246.0	-26448.0
26	14	59	15	474	40.0	-162516.0	1223.0	-22968.0
26	14	59	15	475	41.0	-162315.0	1213.0	-18107.0
26	14	59	15	475	42.0	-162771.0	1188.0	-13122.0
26	14	59	15	476	43.0	-163244.0	1162.0	-8520.0
26	14	59	15	476	44.0	-163402.0	1148.0	-6306.0
26	14	59	15	477	45.0	-164414.0	1114.0	-5083.0
26	14	59	15	478	46.0	-165267.0	1091.0	-4659.0
26	14	59	15	478	47.0	-166802.0	1073.0	-4860.0
26	14	59	15	479	48.0	-169177.0	1055.0	-5124.0
26	14	59	15	479	49.0	-172381.0	1025.0	-5101.0
26	14	59	15	480	50.0	-175728.0	1001.0	-4247.0
26	14	59	15	481	52.0	-180195.0	949.0	-4959.0
26	14	59	15	481	53.0	-181461.0	925.0	-7942.0
26	14	59	15	482	54.0	-181497.0	926.0	-11920.0
26	14	59	15	482	55.0	-180902.0	939.0	-15417.0
26	14	59	15	483	56.0	-180579.0	936.0	-17726.0
26	14	59	15	507	57.0	-181136.0	919.0	-19407.0
26	14	59	15	508	58.0	-182851.0	916.0	-19917.0
26	14	59	15	509	59.0	-185255.0	902.0	-19806.0
26	14	59	15	510	60.0	-187797.0	903.0	-20104.0
26	14	59	15	511	61.0	-186921.0	865.0	-20673.0
26	14	59	15	512	62.0	-168886.0	824.0	-21494.0
26	14	59	15	512	63.0	-139079.0	799.0	-21829.0
26	14	59	15	515	64.0	-108845.0	789.0	-22314.0
26	14	59	15	516	65.0	-85717.0	779.0	-22104.0
26	14	59	15	517	66.0	-77693.0	756.0	-21731.0
26	14	59	15	517	67.0	-82043.0	729.0	-21692.0
26	14	59	15	518	68.0	-101785.0	686.0	-22014.0
26	14	59	15	519	69.0	-132245.0	666.0	-22067.0
26	14	59	15	520	70.0	-163364.0	649.0	-21712.0
26	14	59	15	520	71.0	-188063.0	628.0	-21702.0
26	14	59	15	521	72.0	-202667.0	590.0	-21585.0
26	14	59	15	521	75.0	-184278.0	547.0	-20842.0
26	14	59	15	522	76.0	-161597.0	532.0	-20584.0
26	14	59	15	522	77.0	-138946.0	519.0	-20332.0
26	14	59	15	523	78.0	-125122.0	514.0	-19491.0
26	14	59	15	524	79.0	-122327.0	491.0	-19081.0
26	14	59	15	524	80.0	-129367.0	489.0	-19326.0
26	14	59	15	553	81.0	-141307.0	487.0	-19307.0
26	14	59	15	554	82.0	-153832.0	483.0	-19497.0
26	14	59	15	555	83.0	-169112.0	462.0	-19512.0
26	14	59	15	555	84.0	-182919.0	443.0	-19472.0
26	14	59	15	556	85.0	-195352.0	431.0	-18997.0
26	14	59	15	557	86.0	-205403.0	403.0	-18513.0
26	14	59	15	558	87.0	-210569.0	391.0	-18234.0
26	14	59	15	559	88.0	-210266.0	356.0	-18004.0
26	14	59	15	559	89.0	-205014.0	321.0	-17880.0
26	14	59	15	560	90.0	-197336.0	299.0	-17636.0
26	14	59	15	561	91.0	-188440.0	282.0	-17902.0
26	14	59	15	562	92.0	-179442.0	261.0	-18055.0
26	14	59	15	562	93.0	-170854.0	223.0	-17800.0
26	14	59	15	563	94.0	-163527.0	201.0	-18012.0
26	14	59	15	564	95.0	-158531.0	181.0	-17708.0
26	14	59	15	564	97.0	-150945.0	159.0	-17872.0
26	14	59	15	565	98.0	-148763.0	119.0	-17937.0
26	14	59	15	565	99.0	-148616.0	108.0	-17907.0
26	14	59	15	566	100.0	-148757.0	117.0	-17736.0
26	14	59	15	567	101.0	-149093.0	120.0	-17523.0
26	14	59	15	567	102.0	-148182.0	112.0	-17809.0
26	14	59	15	597	103.0	-147249.0	98.0	-18167.0
26	14	59	15	598	104.0	-147082.0	103.0	-17919.0
26	14	59	15	599	105.0	-147727.0	84.0	-17594.0
26	14	59	15	600	106.0	-148125.0	53.0	-17492.0
26	14	59	15	600	107.0	-148862.0	13.0	-17287.0
26	14	59	15	601	108.0	-149523.0	-12.0	-17040.0
26	14	59	15	602	109.0	-149862.0	-34.0	-17264.0
26	14	59	15	603	110.0	-149867.0	-68.0	-17061.0
26	14	59	15	604	111.0	-149223.0	-85.0	-16434.0
26	14	59	15	604	112.0	-148408.0	-104.0	-16232.0
26	14	59	15	605	113.0	-147658.0	-137.0	-16429.0
26	14	59	15	606	114.0	-146797.0	-152.0	-16315.0
26	14	59	15	606	115.0	-146337.0	-153.0	-15921.0
26	14	59	15	607	116.0	-145764.0	-187.0	-16019.0
26	14	59	15	608	117.0	-145363.0	-221.0	-16034.0
26	14	59	15	609	119.0	-144573.0	-294.0	-15719.0
26	14	59	15	609	120.0	-143930.0	-311.0	-15802.0
26	14	59	15	610	121.0	-143264.0	-306.0	-15598.0
26	14	59	15	611	122.0	-142462.0	-293.0	-15403.0
26	14	59	15	611	123.0	-141801.0	-293.0	-15167.0
26	14	59	15	612	124.0	-140828.0	-315.0	-15009.0
26	14	59	15	612	125.0	-139771.0	-344.0	-14472.0
26	14	59	15	642	126.0	-138703.0	-340.0	-14700.0
26	14	59	15	644	127.0	-137402.0	-355.0	-14644.0
26	14	59	15	644	128.0	-136603.0	-367.0	-14469.0
26	14	59	15	645	129.0	-135716.0	-397.0	-13911.0
26	14	59	15	646	130.0	-134911.0	-431.0	-13397.0
26	14	59	15	646	131.0	-134211.0	-450.0	-13492.0
26	14	59	15	647	132.0	-133637.0	-488.0	-13332.0
26	14	59	15	647	133.0	-133552.0	-526.0	-13424.0
26	14	59	15	648	134.0	-133949.0	-528.0	-13289.0
26	14	59	15	649	135.0	-134439.0	-554.0	-13096.0
26	14	59	15	649	136.0	-135494.0	-568.0	-13456.0
26	14	59	15	650	137.0	-136827.0	-601.0	-15212.0
26	14	59	15	650	138.0	-137849.0	-616.0	-16189.0
26	14	59	15	651	139.0	-138959.0	-637.0	-16051.0
26	14	59	15	652	140.0	-140046.0	-661.0	-15780.0
26	14	59	15	652	142.0	-143105.0	-692.0	-14036.0
26	14	59	15	653	143.0	-144262.0	-678.0	-13779.0
26	14	59	15	653	144.0	-145871.0	-677.0	-13574.0
26	14	59	15	654	145.0	-147744.0	-664.0	-13147.0
26	14	59	15	654	146.0	-149277.0	-651.0	-12922.0
26	14	59	15	655	147.0	-150668.0	-627.0	-12684.0
26	14	59	15	687	148.0	-152071.0	-607.0	-12347.0
26	14	59	15	688	149.0	-153326.0	-590.0	-11748.0
26	14	59	15	689	150.0	-154566.0	-587.0	-12026.0
26	14	59	15	689	151.0	-155473.0	-596.0	-11965.0
26	14	59	15	690	152.0	-156530.0	-575.0	-11192.0
26	14	59	15	691	153.0	-157623.0	-559.0	-11396.0
26	14	59	15	691	154.0	-158479.0	-549.0	-12608.0
26	14	59	15	692	155.0	-159541.0	-526.0	-13353.0
26	14	59	15	692	156.0	-160347.0	-501.0	-13359.0
26	14	59	15	693	157.0	-161062.0	-494.0	-13217.0
26	14	59	15	694	158.0	-161742.0	-457.0	-13614.0
26	14	59	15	694	159.0	-162494.0	-427.0	-13614.0
26	14	59	15	695	160.0	-163137.0	-400.0	-13179.0
26	14	59	15	695	161.0	-163676.0	-352.0	-13411.0
26	14	59	15	696	162.0	-163881.0	-298.0	-13491.0
26	14	59	15	697	164.0	-164752.0	-235.0	-13618.0
26	14	59	15	697	165.0	-165027.0	-189.0	-13514.0
26	14	59	15	698	166.0	-165297.0	-141.0	-13389.0
26	14	59	15	698	167.0	-164546.0	-88.0	-13680.0
26	14	59	15	699	168.0	-164486.0	-12.0	-13636.0
26	14	59	15	700	169.0	-165219.0	54.0	-13506.0
26	14	59	15	732	170.0	-166316.0	96.0	-13579.0
26	14	59	15	732	171.0	-167126.0	169.0	-13738.0
26	14	59	15	733	172.0	-168215.0	262.0	-13791.0
26	14	59	15	733	173.0	-168950.0	324.0	-14052.0
26	14	59	15	734	174.0	-169211.0	383.0	-14149.0
26	14	59	15	735	175.0	-169431.0	415.0	-13749.0
26	14	59	15	735	176.0	-170005.0	474.0	-13685.0
26	14	59	15	736	177.0	-170587.0	518.0	-14248.0
26	14	59	15	737	178.0	-170677.0	565.0	-14071.0
26	14	59	15	737	179.0	-170441.0	630.0	-13837.0
26	14	59	15	738	180.0	-170659.0	665.0	-14110.0
26	14	59	15	738	181.0	-171231.0	691.0	-14124.0
26	14	59	15	739	182.0	-172037.0	748.0	-13978.0
26	14	59	15	739	183.0	-173292.0	794.0	-14012.0
26	14	59	15	740	184.0	-175317.0	850.0	-13420.0
26	14	59	15	741	185.0	-176636.0	890.0	-13100.0
26	14	59	15	741	187.0	-178089.0	1006.0	-10659.0
26	14	59	15	742	188.0	-177961.0	1047.0	-8399.0
26	14	59	15	742	189.0	-177177.0	1095.0	-5786.0
26	14	59	15	743	190.0	-176631.0	1141.0	-2645.0
26	14	59	15	744	191.0	-175287.0	1215.0	1319.0
26	14	59	15	744	192.0	-170769.0	1271.0	5689.0
26	14	59	15	777	193.0	-160707.0	1309.0	9155.0
26	14	59	15	778	194.0	-145786.0	1378.0	11429.0
26	14	59	15	778	195.0	-138837.0	1429.0	13191.0
26	14	59	15	779	196.0	-148739.0	1451.0	13842.0
26	14	59	15	780	197.0	-159824.0	1479.0	13538.0
26	14	59	15	780	198.0	-174150.0	1511.0	13584.0
26	14	59	15	781	199.0	-185830.0	1544.0	13644.0
26	14	59	15	781	200.0	-196454.0	1577.0	13439.0
26	14	59	15	782	201.0	-199147.0	1593.0	13781.0
26	14	59	15	783	202.0	-196562.0	1626.0	14633.0
26	14	59	15	783	203.0	-192049.0	1653.0	15011.0
26	14	59	15	784	204.0	-185215.0	1663.0	15211.0
26	14	59	15	784	205.0	-178194.0	1682.0	13934.0
26	14	59	15	785	206.0	-172709.0	1704.0	12314.0
26	14	59	15	786	207.0	-168756.0	1715.0	11291.0
26	14	59	15	786	209.0	-166282.0	1751.0	10341.0
26	14	59	15	787	210.0	-165784.0	1763.0	10623.0
26	14	59	15	787	211.0	-163967.0	1784.0	10745.0
26	14	59	15	788	212.0	-162549.0	1818.0	9709.0
26	14	59	15	789	213.0	-161873.0	1861.0	10599.0
26	14	59	15	789	214.0	-162178.0	1901.0	11408.0
26	14	59	15	821	215.0	-162403.0	1901.0	11888.0
26	14	59	15	822	216.0	-162429.0	1929.0	12103.0
26	14	59	15	823	217.0	-162041.0	1972.0	12086.0
26	14	59	15	824	218.0	-161555.0	1978.0	12253.0
26	14	59	15	824	219.0	-160934.0	1957.0	12465.0
26	14	59	15	825	220.0	-160376.0	1979.0	12386.0
26	14	59	15	825	221.0	-159190.0	1973.0	12273.0
26	14	59	15	826	222.0	-157671.0	1971.0	12273.0
26	14	59	15	826	223.0	-155611.0	1983.0	12169.0
26	14	59	15	827	224.0	-153416.0	1978.0	12039.0
26	14	59	15	828	225.0	-151372.0	1978.0	11781.0
26	14	59	15	828	226.0	-149734.0	1971.0	11454.0
26	14	59	15	836	227.0	-148634.0	1971.0	10824.0
26	14	59	15	837	228.0	-148042.0	1974.0	10084.0
26	14	59	15	838	229.0	-147953.0	1965.0	9546.0
26	14	59	15	838	231.0	-148564.0	1959.0	7803.0
26	14	59	15	839	232.0	-148842.0	1943.0	6397.0
26	14	59	15	839	233.0	-149402.0	1962.0	5637.0
26	14	59	15	840	234.0	-150442.0	1988.0	5423.0
26	14	59	15	840	235.0	-151684.0	1983.0	4895.0
26	14	59	15	841	236.0	-152994.0	1990.0	3783.0
26	14	59	15	841	237.0	-154381.0	2005.0	2664.0
26	14	59	15	867	238.0	-155691.0	2013.0	2316.0
26	14	59	15	867	239.0	-156912.0	2019.0	2208.0
26	14	59	15	868	240.0	-157963.0	2011.0	1844.0
26	14	59	15	869	241.0	-159005.0	2001.0	1301.0
26	14	59	15	869	242.0	-160244.0	1981.0	657.0
26	14	59	15	870	243.0	-161503.0	1976.0	194.0
26	14	59	15	871	244.0	-162662.0	1972.0	42.0
26	14	59	15	871	245.0	-163616.0	1944.0	-150.0
26	14	59	15	872	246.0	-164757.0	1938.0	-499.0
26	14	59	15	872	247.0	-165647.0	1936.0	-1366.0
26	14	59	15	873	248.0	-166071.0	1914.0	-1913.0
26	14	59	15	874	249.0	-166632.0	1903.0	-2594.0
26	14	59	15	874	250.0	-167097.0	1906.0	-3471.0
26	14	59	15	875	251.0	-167643.0	1885.0	-4227.0
26	14	59	15	876	252.0	-168130.0	1873.0	-4481.0
26	14	59	15	876	254.0	-168826.0	1844.0	-5179.0
26	14	59	15	877	255.0	-169075.0	1847.0	-5394.0
26	14	59	15	878	0.0	-169394.0	1847.0	-5287.0
26	14	59	15	878	1.0	-169933.0	1837.0	-5557.0
26	14	59	15	879	2.0	-170589.0	1832.0	-5662.0
26	14	59	15	879	3.0	-171165.0	1854.0	-6267.0
26	14	59	15	913	4.0	-171379.0	1857.0	-6271.0
26	14	59	15	913	5.0	-171371.0	1861.0	-6456.0
26	14	59	15	914	6.0	-171242.0	1834.0	-7337.0
26	14	59	15	915	7.0	-171406.0	1798.0	-9189.0
26	14	59	15	915	8.0	-172018.0	1781.0	-10413.0
26	14	59	15	916	9.0	-172644.0	1768.0	-11247.0
26	14	59	15	916	10.0	-172855.0	1740.0	-11015.0
26	14	59	15	917	11.0	-172804.0	1722.0	-8651.0
26	14	59	15	918	12.0	-172894.0	1709.0	-9565.0
26	14	59	15	918	13.0	-173212.0	1703.0	-10453.0
26	14	59	15	919	14.0	-173000.0	1690.0	-11291.0
26	14	59	15	920	15.0	-172832.0	1662.0	-11722.0
26	14	59	15	920	16.0	-172822.0	1639.0	-12353.0
26	14	59	15	921	17.0	-172790.0	1626.0	-12836.0
26	14	59	15	921	18.0	-172659.0	1619.0	-13029.0
26	14	59	15	922	20.0	-172726.0	1569.0	-13348.0
26	14	59	15	923	21.0	-172866.0	1573.0	-13952.0
26	14	59	15	923	22.0	-172646.0	1567.0	-13492.0
26	14	59	15	924	23.0	-172242.0	1555.0	-13229.0
26	14	59	15	958	24.0	-172085.0	1576.0	-13269.0
26	14	59	15	958	25.0	-171863.0	1589.0	-13026.0
26	14	59	15	959	26.0	-172512.0	1569.0	-12796.0
26	14	59	15	960	27.0	-172669.0	1571.0	-12682.0
26	14	59	15	960	28.0	-172614.0	1565.0	-12156.0
26	14	59	15	961	29.0	-172005.0	1557.0	-11411.0
26	14	59	15	962	30.0	-170936.0	1555.0	-11309.0
26	14	59	15	962	31.0	-169668.0	1535.0	-11434.0
26	14	59	15	963	32.0	-169320.0	1502.0	-11353.0
26	14	59	15	964	33.0	-169150.0	1506.0	-11218.0
26	14	59	15	964	34.0	-169319.0	1494.0	-10936.0
26	14	59	15	965	35.0	-168946.0	1483.0	-10575.0
26	14	59	15	965	36.0	-168582.0	1464.0	-10719.0
26	14	59	15	966	37.0	-168189.0	1458.0	-10412.0
26	14	59	15	967	38.0	-167824.0	1439.0	-10450.0
26	14	59	15	967	43.0	-165705.0	1404.0	-10711.0
26	14	59	15	968	44.0	-165012.0	1408.0	-10503.0
26	14	59	15	968	45.0	-165653.0	1406.0	-10362.0
26	14	59	15	969	46.0	-165272.0	1421.0	-10722.0
26	14	59	15	970	47.0	-165352.0	1439.0	-11452.0
26	14	59	15	970	48.0	-165439.0	1439.0	-11302.0
26	14	59	16	2	49.0	-165561.0	1449.0	-11172.0
26	14	59	16	2	50.0	-165926.0	1455.0	-11353.0
26	14	59	16	3	51.0	-166559.0	1451.0	-11200.0
26	14	59	16	4	52.0	-166919.0	1443.0	-10792.0
26	14	59	16	4	53.0	-167473.0	1436.0	-11078.0
26	14	59	16	5	54.0	-167936.0	1420.0	-11107.0
26	14	59	16	5	55.0	-168337.0	1417.0	-10829.0
26	14	59	16	6	56.0	-168563.0	1418.0	-10831.0
26	14	59	16	7	57.0	-168678.0	1414.0	-11282.0
26	14	59	16	8	58.0	-168451.0	1391.0	-10983.0
26	14	59	16	9	59.0	-168484.0	1388.0	-10707.0
26	14	59	16	9	60.0	-169474.0	1383.0	-10576.0
26	14	59	16	10	61.0	-169764.0	1361.0	-10832.0
26	14	59	16	11	62.0	-170697.0	1352.0	-11051.0
26	14	59	16	12	63.0	-170546.0	1363.0	-11425.0
26	14	59	16	12	65.0	-168212.0	1327.0	-13787.0
26	14	59	16	13	66.0	-166916.0	1327.0	-15206.0
26	14	59	16	14	67.0	-165680.0	1331.0	-16492.0
26	14	59	16	14	68.0	-164637.0	1346.0	-17227.0
26	14	59	16	15	69.0	-163696.0	1343.0	-18232.0
26	14	59	16	16	70.0	-162561.0	1348.0	-19533.0
26	14	59	16	16	71.0	-161184.0	1349.0	-19659.0
26	14	59	16	48	72.0	-161018.0	1343.0	-19327.0
26	14	59	16	48	73.0	-161125.0	1346.0	-18392.0
26	14	59	16	49	74.0	-161129.0	1342.0	-15867.0
26	14	59	16	50	75.0	-160685.0	1332.0	-12127.0
26	14	59	16	50	76.0	-160366.0	1329.0	-7939.0
26	14	59	16	51	77.0	-159649.0	1329.0	-3234.0
26	14	59	16	52	78.0	-159109.0	1309.0	436.0
26	14	59	16	53	79.0	-158595.0	1290.0	2924.0
26	14	59	16	53	80.0	-158040.0	1285.0	4554.0
26	14	59	16	54	81.0	-158075.0	1258.0	5399.0
26	14	59	16	55	82.0	-158877.0	1254.0	5924.0
26	14	59	16	55	83.0	-160188.0	1234.0	5518.0
26	14	59	16	56	84.0	-162027.0	1221.0	5960.0
26	14	59	16	57	85.0	-164316.0	1205.0	7254.0
26	14	59	16	57	86.0	-166311.0	1191.0	8064.0
26	14	59	16	58	88.0	-168719.0	1161.0	3246.0
26	14	59	16	58	89.0	-169055.0	1145.0	-289.0
26	14	59	16	59	90.0	-169847.0	1127.0	-3829.0
26	14	59	16	60	91.0	-171246.0	1144.0	-5901.0
26	14	59	16	60	92.0	-173644.0	1144.0	-6837.0
26	14	59	16	61	93.0	-176620.0	1138.0	-7167.0
26	14	59	16	92	94.0	-180522.0	1155.0	-7674.0
26	14	59	16	93	95.0	-183676.0	1155.0	-8221.0
26	14	59	16	94	96.0	-181810.0	1136.0	-8717.0
26	14	59	16	94	97.0	-168722.0	1114.0	-9172.0
26	14	59	16	95	98.0	-143118.0	1084.0	-9384.0
26	14	59	16	96	99.0	-113704.0	1069.0	-9399.0
26	14	59	16	96	100.0	-90433.0	1038.0	-9907.0
26	14	59	16	97	101.0	-79017.0	1036.0	-9782.0
26	14	59	16	98	102.0	-80295.0	1014.0	-9704.0
26	14	59	16	98	103.0	-94079.0	997.0	-10572.0
26	14	59	16	99	104.0	-120034.0	984.0	-11237.0
26	14	59	16	100	105.0	-150226.0	953.0	-11384.0
26	14	59	16	100	106.0	-175236.0	938.0	-11808.0
26	14	59	16	101	107.0	-190326.0	931.0	-12553.0
26	14	59	16	101	108.0	-197187.0	911.0	-12778.0
26	14	59	16	102	110.0	-187232.0	874.0	-12656.0
26	14	59	16	103	111.0	-168361.0	844.0	-12155.0
26	14	59	16	103	112.0	-147159.0	835.0	-12336.0
26	14	59	16	104	113.0	-130677.0	826.0	-12527.0
26	14	59	16	105	114.0	-123949.0	826.0	-12347.0
26	14	59	16	105	115.0	-126231.0	836.0	-12026.0
26	14	59	16	106	116.0	-135649.0	813.0	-12378.0
26	14	59	16	138	117.0	-150316.0	806.0	-12689.0
26	14	59	16	139	118.0	-167080.0	796.0	-12559.0
26	14	59	16	139	119.0	-183086.0	784.0	-12502.0
26	14	59	16	140	120.0	-195362.0	769.0	-12684.0
26	14	59	16	141	121.0	-203557.0	743.0	-12805.0
26	14	59	16	141	122.0	-207553.0	705.0	-12442.0
26	14	59	16	142	123.0	-207426.0	668.0	-12154.0
26	14	59	16	143	124.0	-203104.0	664.0	-12176.0
26	14	59	16	143	125.0	-196259.0	653.0	-11726.0
26	14	59	16	144	126.0	-188574.0	633.0	-11736.0
26	14	59	16	144	127.0	-180559.0	609.0	-11886.0
26	14	59	16	145	128.0	-172692.0	596.0	-11939.0
26	14	59	16	146	129.0	-165420.0	569.0	-12094.0
26	14	59	16	146	130.0	-158523.0	546.0	-12469.0
26	14	59	16	147	131.0	-152482.0	519.0	-12543.0
26	14	59	16	148	133.0	-144872.0	494.0	-12427.0
26	14	59	16	148	134.0	-142417.0	476.0	-12404.0
26	14	59	16	149	135.0	-139581.0	483.0	-12109.0
26	14	59	16	149	136.0	-137682.0	464.0	-11968.0
26	14	59	16	150	137.0	-137872.0	469.0	-11955.0
26	14	59	16	151	138.0	-137220.0	461.0	-11862.0
26	14	59	16	183	139.0	-137493.0	451.0	-11857.0
26	14	59	16	183	140.0	-138088.0	447.0	-12068.0
26	14	59	16	184	141.0	-138609.0	431.0	-11716.0
26	14	59	16	185	142.0	-139101.0	398.0	-11331.0
26	14	59	16	185	143.0	-139611.0	386.0	-10827.0
26	14	59	16	186	144.0	-141274.0	357.0	-10653.0
26	14	59	16	228	145.0	-142835.0	334.0	-9926.0
26	14	59	16	229	146.0	-144363.0	328.0	-9621.0
26	14	59	16	229	147.0	-144900.0	301.0	-9676.0
26	14	59	16	230	148.0	-145796.0	258.0	-9403.0
26	14	59	16	231	149.0	-146977.0	248.0	-8866.0
26	14	59	16	231	150.0	-148527.0	224.0	-8638.0
26	14	59	16	232	151.0	-150135.0	198.0	-8607.0
26	14	59	16	233	152.0	-151774.0	167.0	-8758.0
26	14	59	16	233	153.0	-153182.0	146.0	-8452.0
26	14	59	16	234	155.0	-155843.0	118.0	-8277.0
26	14	59	16	235	156.0	-156287.0	104.0	-7910.0
26	14	59	16	235	157.0	-156759.0	97.0	-7991.0
26	14	59	16	236	158.0	-156773.0	65.0	-7968.0
26	14	59	16	236	159.0	-157071.0	56.0	-7587.0
26	14	59	16	237	160.0	-157166.0	34.0	-7399.0
26	14	59	16	238	161.0	-157039.0	18.0	-7220.0
26	14	59	16	238	178.0	-157949.0	-311.0	-5091.0
26	14	59	16	239	179.0	-157134.0	-296.0	-5637.0
26	14	59	16	239	180.0	-155930.0	-286.0	-5711.0
26	14	59	16	240	181.0	-155032.0	-284.0	-5314.0
26	14	59	16	273	182.0	-154850.0	-267.0	-5224.0
26	14	59	16	318	183.0	-154789.0	-252.0	-5601.0
26	14	59	16	319	184.0	-154660.0	-234.0	-5425.0
26	14	59	16	319	185.0	-154874.0	-215.0	-5293.0
26	14	59	16	320	186.0	-155562.0	-192.0	-5239.0
26	14	59	16	321	187.0	-156586.0	-199.0	-5354.0
26	14	59	16	321	188.0	-157167.0	-192.0	-5397.0
26	14	59	16	322	189.0	-157819.0	-184.0	-5281.0
26	14	59	16	323	190.0	-158446.0	-157.0	-5463.0
26	14	59	16	323	191.0	-158527.0	-142.0	-5614.0
26	14	59	16	324	192.0	-158947.0	-125.0	-5519.0
26	14	59	16	325	193.0	-159501.0	-117.0	-5547.0
26	14	59	16	325	194.0	-160442.0	-101.0	-6076.0
26	14	59	16	326	195.0	-161316.0	-86.0	-6194.0
26	14	59	16	327	196.0	-162107.0	-69.0	-6392.0
26	14	59	16	327	200.0	-165627.0	62.0	-7278.0
26	14	59	16	328	222.0	-172428.0	1048.0	-10403.0
26	14	59	16	328	223.0	-170884.0	1080.0	-11193.0
26	14	59	16	329	224.0	-169699.0	1139.0	-11266.0
26	14	59	16	330	225.0	-167491.0	1200.0	-11380.0
26	14	59	16	330	226.0	-160189.0	1262.0	-11814.0
26	14	59	16	331	227.0	-146766.0	1319.0	-12037.0
26	14	59	16	331	228.0	-132920.0	1363.0	-11671.0
26	14	59	16	363	229.0	-133190.0	1413.0	-11616.0
26	14	59	16	363	230.0	-146207.0	1451.0	-11847.0
26	14	59	16	364	231.0	-157662.0	1482.0	-11713.0
26	14	59	16	365	232.0	-170708.0	1509.0	-11399.0
26	14	59	16	365	233.0	-180272.0	1551.0	-11432.0
26	14	59	16	366	234.0	-187391.0	1570.0	-11352.0
26	14	59	16	367	235.0	-185855.0	1597.0	-11482.0
26	14	59	16	367	236.0	-183364.0	1626.0	-12206.0
26	14	59	16	368	237.0	-179169.0	1651.0	-12304.0
26	14	59	16	369	238.0	-173436.0	1672.0	-12237.0
26	14	59	16	369	239.0	-168704.0	1707.0	-12042.0
26	14	59	16	370	240.0	-165183.0	1703.0	-12104.0
26	14	59	16	371	241.0	-163326.0	1709.0	-12131.0
26	14	59	16	371	242.0	-162123.0	1721.0	-12179.0
26	14	59	16	372	243.0	-162454.0	1737.0	-12367.0
26	14	59	16	372	245.0	-161095.0	1791.0	-12654.0
26	14	59	16	373	246.0	-160037.0	1799.0	-13716.0
26	14	59	16	374	247.0	-159281.0	1824.0	-14343.0
26	14	59	16	374	248.0	-159334.0	1836.0	-14069.0
26	14	59	16	375	249.0	-160676.0	1876.0	-14002.0
26	14	59	16	375	250.0	-162417.0	1888.0	-14114.0
26	14	59	16	408	251.0	-164933.0	1907.0	-14215.0
26	14	59	16	408	252.0	-166470.0	1946.0	-13710.0
26	14	59	16	409	253.0	-167756.0	1971.0	-13552.0
26	14	59	16	410	254.0	-167997.0	1971.0	-13677.0
26	14	59	16	411	255.0	-167462.0	1958.0	-13589.0
26	14	59	16	411	0.0	-166414.0	1968.0	-13445.0
26	14	59	16	412	1.0	-165194.0	1962.0	-13851.0
26	14	59	16	413	2.0	-163562.0	1970.0	-13494.0
26	14	59	16	413	3.0	-162279.0	1969.0	-13184.0
26	14	59	16	414	4.0	-160827.0	1941.0	-13148.0
26	14	59	16	415	5.0	-159561.0	1956.0	-12859.0
26	14	59	16	415	6.0	-158981.0	1956.0	-12694.0
26	14	59	16	416	7.0	-158437.0	1951.0	-12719.0
26	14	59	16	417	8.0	-158272.0	1940.0	-12449.0
26	14	59	16	417	9.0	-158441.0	1958.0	-12897.0
26	14	59	16	418	11.0	-159031.0	1943.0	-13266.0
26	14	59	16	419	12.0	-159185.0	1920.0	-13231.0
26	14	59	16	419	13.0	-159191.0	1965.0	-13511.0
26	14	59	16	420	14.0	-159819.0	1956.0	-13699.0
26	14	59	16	420	15.0	-161066.0	1951.0	-14023.0
26	14	59	16	421	16.0	-162014.0	1969.0	-14013.0
26	14	59	16	422	17.0	-163715.0	1967.0	-14262.0
26	14	59	16	452	18.0	-165713.0	1973.0	-14328.0
26	14	59	16	453	19.0	-167839.0	1978.0	-14370.0
26	14	59	16	454	20.0	-169686.0	1966.0	-14413.0
26	14	59	16	455	21.0	-171336.0	1948.0	-14363.0
26	14	59	16	455	22.0	-172451.0	1928.0	-14179.0
26	14	59	16	456	23.0	-173159.0	1907.0	-14611.0
26	14	59	16	457	24.0	-173765.0	1901.0	-15286.0
26	14	59	16	457	25.0	-174449.0	1875.0	-15356.0
26	14	59	16	458	26.0	-174836.0	1863.0	-15646.0
26	14	59	16	459	27.0	-174592.0	1856.0	-16953.0
26	14	59	16	459	28.0	-173687.0	1831.0	-16685.0
26	14	59	16	460	29.0	-174526.0	1825.0	-16163.0
26	14	59	16	461	30.0	-173634.0	1808.0	-16456.0
26	14	59	16	461	31.0	-174108.0	1795.0	-16648.0
26	14	59	16	462	32.0	-173763.0	1768.0	-16642.0
26	14	59	16	463	34.0	-175688.0	1744.0	-16478.0
26	14	59	16	463	35.0	-175596.0	1727.0	-16863.0
26	14	59	16	464	36.0	-175229.0	1729.0	-17172.0
26	14	59	16	465	37.0	-174763.0	1729.0	-17115.0
26	14	59	16	465	38.0	-173746.0	1728.0	-17269.0
26	14	59	16	466	39.0	-172455.0	1741.0	-17697.0
26	14	59	16	497	40.0	-171549.0	1723.0	-18444.0
26	14	59	16	498	41.0	-169595.0	1706.0	-18871.0
26	14	59	16	499	42.0	-168457.0	1706.0	-18831.0
26	14	59	16	500	43.0	-167771.0	1686.0	-19165.0
26	14	59	16	500	44.0	-167605.0	1664.0	-18994.0
26	14	59	16	501	45.0	-167375.0	1638.0	-19015.0
26	14	59	16	502	46.0	-167070.0	1626.0	-18992.0
26	14	59	16	503	47.0	-167012.0	1606.0	-18719.0
26	14	59	16	504	48.0	-166991.0	1604.0	-18259.0
26	14	59	16	505	49.0	-167296.0	1581.0	-17882.0
26	14	59	16	506	50.0	-167969.0	1573.0	-17677.0
26	14	59	16	507	51.0	-168840.0	1573.0	-17366.0
26	14	59	16	507	52.0	-169174.0	1535.0	-16981.0
26	14	59	16	508	53.0	-169224.0	1516.0	-16574.0
26	14	59	16	509	54.0	-169531.0	1491.0	-16552.0
26	14	59	16	509	56.0	-169668.0	1468.0	-14919.0
26	14	59	16	510	57.0	-169739.0	1453.0	-14655.0
26	14	59	16	510	58.0	-169208.0	1445.0	-14767.0
26	14	59	16	511	59.0	-168442.0	1461.0	-14691.0
26	14	59	16	512	60.0	-168014.0	1453.0	-14008.0
26	14	59	16	512	61.0	-168093.0	1458.0	-13157.0
26	14	59	16	513	62.0	-167964.0	1468.0	-12866.0
26	14	59	16	543	63.0	-167874.0	1463.0	-12489.0
26	14	59	16	544	64.0	-167487.0	1463.0	-12256.0
26	14	59	16	544	65.0	-167008.0	1468.0	-11829.0
26	14	59	16	545	66.0	-166184.0	1464.0	-11799.0
26	14	59	16	546	67.0	-165716.0	1449.0	-11642.0
26	14	59	16	547	68.0	-166902.0	1425.0	-11711.0
26	14	59	16	547	69.0	-167418.0	1417.0	-11673.0
26	14	59	16	548	70.0	-167975.0	1400.0	-11316.0
26	14	59	16	549	71.0	-167705.0	1394.0	-10841.0
26	14	59	16	549	72.0	-168144.0	1386.0	-10846.0
26	14	59	16	550	73.0	-168119.0	1373.0	-11174.0
26	14	59	16	551	74.0	-168135.0	1355.0	-11301.0
26	14	59	16	551	75.0	-167746.0	1339.0	-10895.0
26	14	59	16	552	76.0	-168486.0	1333.0	-10775.0
26	14	59	16	553	77.0	-168486.0	1329.0	-10872.0
26	14	59	16	553	79.0	-169371.0	1318.0	-11079.0
26	14	59	16	554	80.0	-170372.0	1303.0	-11044.0
26	14	59	16	555	81.0	-170366.0	1324.0	-10737.0
26	14	59	16	555	82.0	-171182.0	1334.0	-10350.0
26	14	59	16	556	83.0	-171333.0	1341.0	-10454.0
26	14	59	16	556	84.0	-172422.0	1341.0	-10346.0
26	14	59	16	588	85.0	-172520.0	1356.0	-9897.0
26	14	59	16	588	86.0	-172629.0	1353.0	-9543.0
26	14	59	16	589	87.0	-172586.0	1353.0	-9424.0
26	14	59	16	590	88.0	-173182.0	1355.0	-9408.0
26	14	59	16	591	89.0	-173181.0	1340.0	-9206.0
26	14	59	16	591	90.0	-173241.0	1321.0	-9009.0
26	14	59	16	592	91.0	-172995.0	1323.0	-8942.0
26	14	59	16	593	92.0	-172101.0	1328.0	-8908.0
26	14	59	16	593	93.0	-171164.0	1304.0	-8845.0
26	14	59	16	594	94.0	-170095.0	1293.0	-9086.0
26	14	59	16	595	95.0	-169236.0	1299.0	-9716.0
26	14	59	16	596	96.0	-168621.0	1276.0	-10487.0
26	14	59	16	596	97.0	-167628.0	1248.0	-11322.0
26	14	59	16	597	98.0	-166736.0	1258.0	-12503.0
26	14	59	16	598	99.0	-165051.0	1269.0	-13612.0
26	14	59	16	599	101.0	-162164.0	1252.0	-14563.0
26	14	59	16	599	102.0	-161436.0	1244.0	-15208.0
26	14	59	16	600	103.0	-161436.0	1251.0	-15846.0
26	14	59	16	601	104.0	-161438.0	1253.0	-15965.0
26	14	59	16	601	105.0	-161809.0	1253.0	-15435.0
26	14	59	16	602	106.0	-162105.0	1259.0	-14225.0
26	14	59	16	648	107.0	-162492.0	1273.0	-11897.0
26	14	59	16	665	108.0	-162474.0	1277.0	-8139.0
26	14	59	16	666	109.0	-162729.0	1276.0	-3587.0
26	14	59	16	667	110.0	-162822.0	1281.0	530.0
26	14	59	16	668	111.0	-163373.0	1276.0	4009.0
26	14	59	16	668	112.0	-163267.0	1259.0	6324.0
26	14	59	16	669	113.0	-163379.0	1225.0	7907.0
26	14	59	16	670	114.0	-163582.0	1221.0	8353.0
26	14	59	16	670	115.0	-163530.0	1210.0	8984.0
26	14	59	16	671	116.0	-163263.0	1190.0	9778.0
26	14	59	16	672	117.0	-162927.0	1192.0	10206.0
26	14	59	16	672	118.0	-162401.0	1167.0	10972.0
26	14	59	16	673	119.0	-161356.0	1159.0	9544.0
26	14	59	16	673	120.0	-160678.0	1143.0	6464.0
26	14	59	16	674	121.0	-161139.0	1121.0	2976.0
26	14	59	16	675	131.0	-126424.0	979.0	-4951.0
26	14	59	16	675	138.0	-172121.0	895.0	-11347.0
26	14	59	16	676	139.0	-183977.0	883.0	-11507.0
26	14	59	16	677	140.0	-189607.0	874.0	-11233.0
26	14	59	16	677	141.0	-188913.0	872.0	-10866.0
26	14	59	16	678	142.0	-180847.0	880.0	-10676.0
26	14	59	16	679	143.0	-166022.0	879.0	-10459.0
26	14	59	16	679	144.0	-148282.0	870.0	-10377.0
26	14	59	16	680	145.0	-133517.0	872.0	-10599.0
26	14	59	16	680	146.0	-128516.0	861.0	-10816.0
26	14	59	16	691	147.0	-131069.0	831.0	-10454.0
26	14	59	16	692	148.0	-137405.0	845.0	-9475.0
26	14	59	16	693	149.0	-147207.0	839.0	-9314.0
26	14	59	16	693	150.0	-158836.0	811.0	-9704.0
26	14	59	16	694	151.0	-171098.0	805.0	-9503.0
26	14	59	16	695	152.0	-181304.0	760.0	-9079.0
26	14	59	16	695	153.0	-189333.0	729.0	-9223.0
26	14	59	16	696	154.0	-194329.0	728.0	-9573.0
26	14	59	16	697	155.0	-195229.0	711.0	-9624.0
26	14	59	16	713	156.0	-191902.0	724.0	-9474.0
26	14	59	16	714	157.0	-186887.0	732.0	-9187.0
26	14	59	16	715	158.0	-181961.0	727.0	-9137.0
26	14	59	16	715	159.0	-176346.0	698.0	-9021.0
26	14	59	16	716	160.0	-170129.0	668.0	-9056.0
26	14	59	16	717	161.0	-163164.0	656.0	-8901.0
26	14	59	16	737	162.0	-156630.0	641.0	-8564.0
26	14	59	16	738	163.0	-150841.0	613.0	-8882.0
26	14	59	16	739	164.0	-146226.0	596.0	-8730.0
26	14	59	16	739	165.0	-142468.0	575.0	-9027.0
26	14	59	16	740	166.0	-139378.0	573.0	-10014.0
26	14	59	16	740	167.0	-136965.0	538.0	-10622.0
26	14	59	16	741	168.0	-135396.0	521.0	-10412.0
26	14	59	16	742	169.0	-133863.0	510.0	-9500.0
26	14	59	16	742	170.0	-132701.0	500.0	-9372.0
26	14	59	16	743	171.0	-131745.0	497.0	-9346.0
26	14	59	16	743	172.0	-131232.0	468.0	-9297.0
26	14	59	16	744	173.0	-131558.0	458.0	-9211.0
26	14	59	16	745	174.0	-132196.0	459.0	-8459.0
26	14	59	16	745	175.0	-133306.0	438.0	-7476.0
26	14	59	16	746	176.0	-134503.0	419.0	-6839.0
26	14	59	16	760	177.0	-135724.0	407.0	-6341.0
26	14	59	16	761	178.0	-136477.0	388.0	-6322.0
26	14	59	16	762	179.0	-137177.0	372.0	-5993.0
26	14	59	16	762	180.0	-138206.0	342.0	-5638.0
26	14	59	16	763	181.0	-139329.0	315.0	-5019.0
26	14	59	16	763	182.0	-140396.0	289.0	-4267.0
26	14	59	16	764	183.0	-141764.0	280.0	-3840.0
26	14	59	16	765	184.0	-143614.0	255.0	-3040.0
26	14	59	16	765	185.0	-146056.0	246.0	-1711.0
26	14	59	16	783	186.0	-147854.0	241.0	-560.0
26	14	59	16	784	187.0	-149070.0	238.0	-57.0
26	14	59	16	784	188.0	-149905.0	216.0	691.0
26	14	59	16	785	189.0	-150398.0	183.0	1513.0
26	14	59	16	786	190.0	-150686.0	174.0	1906.0
26	14	59	16	786	191.0	-151092.0	128.0	2373.0
26	14	59	16	787	192.0	-151209.0	106.0	2940.0
26	14	59	16	788	193.0	-151446.0	111.0	3582.0
26	14	59	16	788	194.0	-152162.0	107.0	4434.0
26	14	59	16	789	195.0	-152575.0	69.0	5774.0
26	14	59	16	789	196.0	-152294.0	39.0	6698.0
26	14	59	16	790	197.0	-151551.0	6.0	7479.0
26	14	59	16	791	198.0	-150146.0	-6.0	8277.0
26	14	59	16	791	199.0	-148812.0	-28.0	9421.0
26	14	59	16	806	200.0	-147627.0	-36.0	10379.0
26	14	59	16	806	201.0	-147013.0	-47.0	11183.0
26	14	59	16	807	202.0	-146717.0	-68.0	12161.0
26	14	59	16	808	203.0	-146480.0	-97.0	13032.0
26	14	59	16	808	204.0	-146016.0	-144.0	14067.0
26	14	59	16	809	205.0	-145416.0	-166.0	14703.0
26	14	59	16	809	206.0	-145546.0	-172.0	15146.0
26	14	59	16	810	207.0	-145827.0	-195.0	16144.0
26	14	59	16	811	208.0	-146623.0	-198.0	16679.0
26	14	59	16	812	209.0	-147579.0	-216.0	17486.0
26	14	59	16	813	210.0	-148502.0	-234.0	18283.0
26	14	59	16	813	211.0	-149421.0	-254.0	19371.0
26	14	59	16	814	212.0	-150886.0	-267.0	20590.0
26	14	59	16	815	213.0	-152352.0	-272.0	21604.0
26	14	59	16	815	214.0	-154068.0	-275.0	22210.0
26	14	59	16	837	215.0	-155312.0	-282.0	22781.0
26	14	59	16	838	216.0	-156114.0	-274.0	22531.0
26	14	59	16	838	217.0	-156243.0	-276.0	23149.0
26	14	59	16	839	218.0	-156145.0	-281.0	23994.0
26	14	59	16	839	219.0	-156009.0	-296.0	24248.0
26	14	59	16	840	220.0	-156012.0	-289.0	24931.0
26	14	59	16	841	221.0	-156214.0	-275.0	25739.0
26	14	59	16	842	222.0	-156401.0	-272.0	26188.0
26	14	59	16	842	223.0	-156191.0	-250.0	26239.0
26	14	59	16	843	224.0	-155896.0	-205.0	26713.0
26	14	59	16	843	225.0	-155484.0	-192.0	27013.0
26	14	59	16	844	226.0	-154713.0	-186.0	27231.0
26	14	59	16	844	227.0	-154285.0	-179.0	27779.0
26	14	59	16	845	228.0	-153914.0	-157.0	27893.0
26	14	59	16	846	229.0	-153832.0	-133.0	27778.0
26	14	59	16	861	230.0	-153987.0	-97.0	27721.0
26	14	59	16	862	231.0	-154277.0	-49.0	28201.0
26	14	59	16	863	232.0	-154244.0	-21.0	28466.0
26	14	59	16	863	233.0	-154547.0	-4.0	28772.0
26	14	59	16	864	234.0	-154990.0	3.0	29063.0
26	14	59	16	864	235.0	-155673.0	33.0	29085.0
26	14	59	16	865	236.0	-156513.0	91.0	28969.0
26	14	59	16	865	237.0	-157856.0	116.0	29021.0
26	14	59	16	887	238.0	-159367.0	171.0	29038.0
26	14	59	16	887	239.0	-160638.0	222.0	28557.0
26	14	59	16	888	240.0	-161744.0	265.0	28860.0
26	14	59	16	889	241.0	-162771.0	291.0	29199.0
26	14	59	16	889	242.0	-164406.0	320.0	29354.0
26	14	59	16	890	243.0	-165916.0	369.0	29251.0
26	14	59	16	890	244.0	-167336.0	411.0	29656.0
26	14	59	16	891	245.0	-168554.0	438.0	30053.0
26	14	59	16	892	246.0	-169792.0	469.0	30484.0
26	14	59	16	892	247.0	-170567.0	503.0	30649.0
26	14	59	16	893	248.0	-170775.0	523.0	30740.0
26	14	59	16	893	249.0	-170743.0	584.0	31144.0
26	14	59	16	894	250.0	-169659.0	623.0	31114.0
26	14	59	16	894	251.0	-167422.0	656.0	31240.0
26	14	59	16	895	252.0	-164752.0	698.0	31074.0
26	14	59	16	896	253.0	-161969.0	740.0	30869.0
26	14	59	16	896	254.0	-159283.0	788.0	31274.0
26	14	59	16	897	255.0	-156116.0	834.0	31610.0
26	14	59	16	909	0.0	-150142.0	889.0	31561.0
26	14	59	16	909	1.0	-138101.0	940.0	31420.0
26	14	59	16	932	2.0	-123641.0	971.0	31363.0
26	14	59	16	932	3.0	-119084.0	1005.0	31628.0
26	14	59	16	933	4.0	-130539.0	1036.0	31799.0
26	14	59	16	933	5.0	-142926.0	1049.0	31805.0
26	14	59	16	934	6.0	-159154.0	1069.0	31429.0
26	14	59	16	935	7.0	-171641.0	1091.0	31295.0
26	14	59	16	935	8.0	-181452.0	1104.0	31170.0
26	14	59	16	936	9.0	-183766.0	1137.0	31166.0
26	14	59	16	936	10.0	-181257.0	1153.0	30885.0
26	14	59	16	937	11.0	-177766.0	1173.0	30854.0
26	14	59	16	937	12.0	-172589.0	1207.0	30731.0
26	14	59	16	938	13.0	-167244.0	1234.0	30966.0
26	14	59	16	939	14.0	-162811.0	1251.0	31066.0
26	14	59	16	939	15.0	-159922.0	1266.0	30873.0
26	14	59	16	940	16.0	-158772.0	1258.0	30544.0
26	14	59	16	940	17.0	-159786.0	1284.0	30248.0
26	14	59	16	941	18.0	-161922.0	1295.0	30063.0
26	14	59	16	955	19.0	-164258.0	1313.0	30238.0
26	14	59	16	956	20.0	-165961.0	1343.0	30194.0
26	14	59	16	957	21.0	-166529.0	1356.0	29966.0
26	14	59	16	957	22.0	-166064.0	1350.0	29776.0
26	14	59	16	958	23.0	-164433.0	1344.0	29678.0
26	14	59	16	958	24.0	-161492.0	1351.0	29274.0
26	14	59	16	959	25.0	-157231.0	1336.0	29193.0
26	14	59	16	979	26.0	-151314.0	1342.0	29345.0
26	14	59	16	979	27.0	-145267.0	1379.0	29045.0
26	14	59	16	980	28.0	-140832.0	1383.0	29068.0
26	14	59	16	980	29.0	-138424.0	1369.0	29362.0
26	14	59	16	981	30.0	-138171.0	1349.0	28949.0
26	14	59	16	981	31.0	-139699.0	1363.0	28049.0
26	14	59	16	982	32.0	-142668.0	1367.0	27694.0
26	14	59	16	983	33.0	-146521.0	1370.0	27036.0
26	14	59	16	983	34.0	-149602.0	1364.0	26351.0
26	14	59	16	984	35.0	-151710.0	1379.0	26025.0
26	14	59	16	984	36.0	-152346.0	1385.0	25166.0
26	14	59	16	985	37.0	-151794.0	1366.0	24641.0
26	14	59	16	985	38.0	-150302.0	1351.0	24271.0
26	14	59	16	986	39.0	-148443.0	1356.0	23757.0
26	14	59	16	986	40.0	-146869.0	1339.0	22818.0
26	14	59	17	3	41.0	-145835.0	1346.0	22394.0
26	14	59	17	3	42.0	-145285.0	1357.0	22041.0
26	14	59	17	4	43.0	-144994.0	1351.0	21411.0
26	14	59	17	5	44.0	-145129.0	1334.0	20581.0
26	14	59	17	5	45.0	-145647.0	1323.0	20038.0
26	14	59	17	6	46.0	-147059.0	1300.0	19391.0
26	14	59	17	6	47.0	-148718.0	1278.0	19066.0
26	14	59	17	7	48.0	-150433.0	1269.0	18637.0
26	14	59	17	8	49.0	-152203.0	1288.0	18204.0
26	14	59	17	8	50.0	-153801.0	1283.0	17521.0
26	14	59	17	9	51.0	-155132.0	1267.0	17253.0
26	14	59	17	10	52.0	-156294.0	1248.0	17162.0
26	14	59	17	10	53.0	-157616.0	1233.0	16468.0
26	14	59	17	11	54.0	-158167.0	1211.0	15774.0
26	14	59	17	11	55.0	-158429.0	1201.0	15679.0
26	14	59	17	27	56.0	-158099.0	1178.0	15835.0
26	14	59	17	28	57.0	-158357.0	1191.0	15009.0
26	14	59	17	28	58.0	-158495.0	1184.0	14871.0
26	14	59	17	29	59.0	-159089.0	1154.0	14795.0
26	14	59	17	29	60.0	-159483.0	1129.0	14687.0
26	14	59	17	30	61.0	-159344.0	1134.0	14487.0
26	14	59	17	30	62.0	-159549.0	1106.0	14496.0
26	14	59	17	31	63.0	-159888.0	1085.0	14484.0
26	14	59	17	51	64.0	-160309.0	1085.0	14318.0
26	14	59	17	52	65.0	-160603.0	1077.0	14010.0
26	14	59	17	52	66.0	-161323.0	1073.0	13647.0
26	14	59	17	53	67.0	-161917.0	1045.0	13312.0
26	14	59	17	53	68.0	-162999.0	1018.0	12819.0
26	14	59	17	54	69.0	-163765.0	993.0	12847.0
26	14	59	17	55	70.0	-164006.0	993.0	12797.0
26	14	59	17	55	71.0	-164122.0	983.0	12521.0
26	14	59	17	56	72.0	-164262.0	980.0	12385.0
26	14	59	17	56	73.0	-164434.0	961.0	12301.0
26	14	59	17	57	74.0	-164467.0	942.0	12203.0
26	14	59	17	57	75.0	-164472.0	921.0	12069.0
26	14	59	17	58	76.0	-164222.0	909.0	11875.0
26	14	59	17	59	77.0	-163733.0	879.0	11539.0
26	14	59	17	59	78.0	-163274.0	847.0	11416.0
26	14	59	17	74	79.0	-162981.0	847.0	10761.0
26	14	59	17	74	80.0	-162133.0	851.0	9881.0
26	14	59	17	75	81.0	-161757.0	842.0	9824.0
26	14	59	17	75	82.0	-161434.0	815.0	9849.0
26	14	59	17	76	83.0	-161735.0	778.0	10329.0
26	14	59	17	77	84.0	-161959.0	762.0	10700.0
26	14	59	17	77	85.0	-162949.0	768.0	10949.0
26	14	59	17	97	86.0	-163596.0	748.0	10906.0
26	14	59	17	98	87.0	-164562.0	716.0	10558.0
26	14	59	17	98	88.0	-164727.0	733.0	9956.0
26	14	59	17	99	89.0	-165037.0	705.0	9936.0
26	14	59	17	100	90.0	-164551.0	677.0	9522.0
26	14	59	17	100	91.0	-164633.0	683.0	9468.0
26	14	59	17	101	92.0	-164707.0	677.0	9469.0
26	14	59	17	101	93.0	-165644.0	652.0	9226.0
26	14	59	17	102	94.0	-165928.0	651.0	9348.0
26	14	59	17	102	95.0	-166014.0	661.0	9265.0
26	14	59	17	103	96.0	-165270.0	651.0	9098.0
26	14	59	17	104	97.0	-164807.0	621.0	8582.0
26	14	59	17	104	98.0	-163963.0	628.0	8488.0
26	14	59	17	105	99.0	-164014.0	612.0	8446.0
26	14	59	17	105	100.0	-163780.0	589.0	8504.0
26	14	59	17	120	101.0	-164059.0	588.0	8391.0
26	14	59	17	121	102.0	-164010.0	596.0	8505.0
26	14	59	17	122	103.0	-164386.0	605.0	8123.0
26	14	59	17	122	104.0	-164374.0	580.0	7809.0
26	14	59	17	123	105.0	-165077.0	566.0	7687.0
26	14	59	17	123	106.0	-165656.0	541.0	7406.0
26	14	59	17	124	107.0	-165926.0	538.0	7214.0
26	14	59	17	124	108.0	-165901.0	525.0	6987.0
26	14	59	17	143	109.0	-166139.0	536.0	6876.0
26	14	59	17	144	110.0	-166315.0	539.0	6759.0
26	14	59	17	144	111.0	-166466.0	544.0	6368.0
26	14	59	17	145	112.0	-165832.0	516.0	5762.0
26	14	59	17	145	113.0	-165047.0	518.0	5437.0
26	14	59	17	146	114.0	-164687.0	515.0	5438.0
26	14	59	17	147	115.0	-164277.0	503.0	5600.0
26	14	59	17	147	116.0	-164117.0	512.0	5146.0
26	14	59	17	148	117.0	-163427.0	510.0	4861.0
26	14	59	17	148	118.0	-163254.0	516.0	4717.0
26	14	59	17	149	119.0	-162719.0	510.0	4195.0
26	14	59	17	149	120.0	-162595.0	508.0	3913.0
26	14	59	17	150	121.0	-162367.0	494.0	4284.0
26	14	59	17	151	122.0	-162234.0	478.0	4397.0
26	14	59	17	151	123.0	-161884.0	479.0	3927.0
26	14	59	17	167	124.0	-161617.0	489.0	3998.0
26	14	59	17	167	125.0	-161620.0	490.0	4326.0
26	14	59	17	168	126.0	-161821.0	486.0	4255.0
26	14	59	17	168	127.0	-162129.0	481.0	4031.0
26	14	59	17	169	128.0	-162427.0	471.0	4198.0
26	14	59	17	170	129.0	-162192.0	456.0	4283.0
26	14	59	17	170	130.0	-161957.0	430.0	4115.0
26	14	59	17	171	131.0	-161543.0	434.0	3993.0
26	14	59	17	172	132.0	-161544.0	451.0	3584.0
26	14	59	17	172	133.0	-161621.0	443.0	3200.0
26	14	59	17	173	134.0	-161577.0	443.0	2858.0
26	14	59	17	173	135.0	-161604.0	433.0	2516.0
26	14	59	17	174	136.0	-161109.0	407.0	1535.0
26	14	59	17	175	137.0	-160857.0	406.0	132.0
26	14	59	17	175	138.0	-160038.0	398.0	-1186.0
26	14	59	17	189	139.0	-159674.0	381.0	-2183.0
26	14	59	17	189	140.0	-159460.0	370.0	-3357.0
26	14	59	17	190	141.0	-159438.0	371.0	-3866.0
26	14	59	17	191	142.0	-159575.0	368.0	-4907.0
26	14	59	17	191	143.0	-159958.0	354.0	-5382.0
26	14	59	17	192	144.0	-160524.0	345.0	-5367.0
26	14	59	17	192	145.0	-160872.0	325.0	-4292.0
26	14	59	17	213	146.0	-160964.0	316.0	-2154.0
26	14	59	17	213	147.0	-161232.0	321.0	1992.0
26	14	59	17	214	148.0	-161179.0	313.0	6900.0
26	14	59	17	215	149.0	-160828.0	296.0	11528.0
26	14	59	17	215	150.0	-160553.0	291.0	15494.0
26	14	59	17	216	151.0	-160094.0	281.0	17930.0
26	14	59	17	216	152.0	-159991.0	266.0	19376.0
26	14	59	17	217	153.0	-159939.0	256.0	19969.0
26	14	59	17	218	154.0	-159986.0	239.0	20017.0
26	14	59	17	218	155.0	-160477.0	239.0	19884.0
26	14	59	17	219	156.0	-161524.0	216.0	20345.0
26	14	59	17	220	157.0	-162548.0	203.0	20592.0
26	14	59	17	220	158.0	-163489.0	185.0	20423.0
26	14	59	17	235	159.0	-164154.0	164.0	18176.0
26	14	59	17	236	160.0	-164832.0	151.0	14672.0
26	14	59	17	236	161.0	-165926.0	136.0	10876.0
26	14	59	17	237	162.0	-167419.0	164.0	8102.0
26	14	59	17	237	163.0	-169223.0	146.0	6572.0
26	14	59	17	238	164.0	-171116.0	121.0	5673.0
26	14	59	17	239	165.0	-173786.0	97.0	5181.0
26	14	59	17	239	166.0	-176992.0	84.0	4458.0
26	14	59	17	240	167.0	-179359.0	74.0	3701.0
26	14	59	17	240	168.0	-176881.0	58.0	2937.0
26	14	59	17	241	169.0	-159277.0	50.0	1989.0
26	14	59	17	259	170.0	-131352.0	41.0	1218.0
26	14	59	17	260	171.0	-104016.0	47.0	771.0
26	14	59	17	260	172.0	-84351.0	43.0	-68.0
26	14	59	17	261	173.0	-77880.0	30.0	-623.0
26	14	59	17	261	174.0	-83965.0	18.0	-435.0
26	14	59	17	262	175.0	-103497.0	8.0	-757.0
26	14	59	17	263	176.0	-130488.0	3.0	-1351.0
26	14	59	17	263	177.0	-155754.0	-29.0	-978.0
26	14	59	17	264	178.0	-173571.0	-50.0	-1165.0
26	14	59	17	265	179.0	-183636.0	-62.0	-1653.0
26	14	59	17	265	180.0	-186380.0	-74.0	-1906.0
26	14	59	17	266	181.0	-180217.0	-89.0	-1821.0
26	14	59	17	267	182.0	-164457.0	-114.0	-1882.0
26	14	59	17	267	183.0	-145766.0	-147.0	-2056.0
26	14	59	17	281	184.0	-132398.0	-134.0	-2067.0
26	14	59	17	282	185.0	-127539.0	-149.0	-2475.0
26	14	59	17	283	186.0	-132297.0	-160.0	-2849.0
26	14	59	17	283	187.0	-145031.0	-181.0	-3101.0
26	14	59	17	284	188.0	-161146.0	-198.0	-2879.0
26	14	59	17	284	189.0	-176622.0	-216.0	-2653.0
26	14	59	17	285	190.0	-188923.0	-239.0	-3192.0
26	14	59	17	304	191.0	-196049.0	-254.0	-3181.0
26	14	59	17	305	192.0	-198947.0	-254.0	-2732.0
26	14	59	17	306	193.0	-198240.0	-262.0	-2717.0
26	14	59	17	306	194.0	-195191.0	-272.0	-2811.0
26	14	59	17	307	195.0	-189898.0	-283.0	-2763.0
26	14	59	17	308	196.0	-183417.0	-313.0	-2614.0
26	14	59	17	308	197.0	-175993.0	-344.0	-2670.0
26	14	59	17	309	198.0	-168653.0	-342.0	-3545.0
26	14	59	17	309	199.0	-161682.0	-365.0	-4254.0
26	14	59	17	310	200.0	-155357.0	-372.0	-5211.0
26	14	59	17	311	201.0	-150082.0	-378.0	-5546.0
26	14	59	17	311	202.0	-145812.0	-409.0	-5673.0
26	14	59	17	312	203.0	-142587.0	-434.0	-5709.0
26	14	59	17	312	204.0	-140157.0	-464.0	-6056.0
26	14	59	17	313	205.0	-138371.0	-476.0	-6331.0
26	14	59	17	329	206.0	-136957.0	-477.0	-6477.0
26	14	59	17	329	207.0	-135650.0	-496.0	-6301.0
26	14	59	17	330	208.0	-135041.0	-511.0	-6290.0
26	14	59	17	331	209.0	-134948.0	-546.0	-6502.0
26	14	59	17	331	210.0	-135392.0	-554.0	-6722.0
26	14	59	17	332	211.0	-136520.0	-572.0	-6849.0
26	14	59	17	332	212.0	-137824.0	-599.0	-7337.0
26	14	59	17	352	213.0	-139206.0	-614.0	-7522.0
26	14	59	17	353	214.0	-140902.0	-612.0	-6979.0
26	14	59	17	353	215.0	-142256.0	-636.0	-6824.0
26	14	59	17	354	216.0	-142868.0	-649.0	-6929.0
26	14	59	17	355	217.0	-143441.0	-662.0	-7291.0
26	14	59	17	355	218.0	-144524.0	-693.0	-7014.0
26	14	59	17	356	219.0	-146004.0	-719.0	-7362.0
26	14	59	17	356	220.0	-147916.0	-744.0	-7811.0
26	14	59	17	357	221.0	-150054.0	-753.0	-7342.0
26	14	59	17	358	222.0	-152094.0	-752.0	-7221.0
26	14	59	17	358	223.0	-153573.0	-753.0	-7369.0
26	14	59	17	359	224.0	-154381.0	-777.0	-7411.0
26	14	59	17	359	225.0	-154891.0	-805.0	-7477.0
26	14	59	17	360	226.0	-155421.0	-832.0	-7406.0
26	14	59	17	361	227.0	-156546.0	-852.0	-7954.0
26	14	59	17	375	228.0	-157234.0	-872.0	-7969.0
26	14	59	17	376	229.0	-157881.0	-887.0	-8041.0
26	14	59	17	376	230.0	-157761.0	-904.0	-8328.0
26	14	59	17	377	231.0	-157452.0	-909.0	-8398.0
26	14	59	17	377	232.0	-156802.0	-932.0	-8537.0
26	14	59	17	378	233.0	-156671.0	-954.0	-8771.0
26	14	59	17	378	234.0	-156953.0	-981.0	-8926.0
26	14	59	17	379	235.0	-157329.0	-999.0	-9505.0
26	14	59	17	397	236.0	-157723.0	-1003.0	-9939.0
26	14	59	17	398	237.0	-157764.0	-1004.0	-10166.0
26	14	59	17	399	238.0	-157334.0	-1015.0	-10612.0
26	14	59	17	400	239.0	-156479.0	-1038.0	-11460.0
26	14	59	17	400	240.0	-155448.0	-1057.0	-11867.0
26	14	59	17	401	241.0	-154887.0	-1074.0	-11975.0
26	14	59	17	401	242.0	-154562.0	-1097.0	-12462.0
26	14	59	17	402	243.0	-153692.0	-1112.0	-12879.0
26	14	59	17	402	244.0	-153055.0	-1115.0	-13302.0
26	14	59	17	403	245.0	-152584.0	-1131.0	-13149.0
26	14	59	17	404	246.0	-151623.0	-1153.0	-14026.0
26	14	59	17	404	247.0	-150571.0	-1162.0	-13890.0
26	14	59	17	405	248.0	-149615.0	-1178.0	-14022.0
26	14	59	17	405	249.0	-148438.0	-1189.0	-14328.0
26	14	59	17	406	250.0	-147504.0	-1189.0	-15007.0
26	14	59	17	420	251.0	-146697.0	-1196.0	-15424.0
26	14	59	17	421	252.0	-146061.0	-1201.0	-15894.0
26	14	59	17	422	253.0	-145661.0	-1191.0	-16266.0
26	14	59	17	422	254.0	-145755.0	-1182.0	-16657.0
26	14	59	17	423	255.0	-145892.0	-1179.0	-17063.0
26	14	59	17	424	0.0	-146304.0	-1212.0	-17092.0
26	14	59	17	424	1.0	-146641.0	-1206.0	-17179.0
26	14	59	17	444	2.0	-147169.0	-1180.0	-17562.0
26	14	59	17	445	3.0	-147902.0	-1152.0	-17664.0
26	14	59	17	445	4.0	-149043.0	-1126.0	-18192.0
26	14	59	17	446	5.0	-150751.0	-1102.0	-18357.0
26	14	59	17	447	6.0	-152304.0	-1097.0	-18496.0
26	14	59	17	447	7.0	-154057.0	-1091.0	-18973.0
26	14	59	17	448	8.0	-155439.0	-1054.0	-18968.0
26	14	59	17	448	9.0	-157096.0	-1044.0	-18956.0
26	14	59	17	449	10.0	-158939.0	-1024.0	-19394.0
26	14	59	17	449	11.0	-160734.0	-972.0	-19584.0
26	14	59	17	450	12.0	-162077.0	-921.0	-20324.0
26	14	59	17	451	13.0	-163204.0	-882.0	-20565.0
26	14	59	17	451	14.0	-164284.0	-849.0	-20446.0
26	14	59	17	452	15.0	-164951.0	-840.0	-20396.0
26	14	59	17	452	16.0	-165506.0	-788.0	-20681.0
26	14	59	17	467	17.0	-166496.0	-744.0	-21146.0
26	14	59	17	468	18.0	-166354.0	-699.0	-21059.0
26	14	59	17	468	19.0	-166786.0	-645.0	-21354.0
26	14	59	17	469	20.0	-166639.0	-590.0	-21651.0
26	14	59	17	470	21.0	-166822.0	-568.0	-21680.0
26	14	59	17	470	22.0	-166721.0	-526.0	-21434.0
26	14	59	17	471	23.0	-166647.0	-491.0	-21297.0
26	14	59	17	472	24.0	-166501.0	-424.0	-21213.0
26	14	59	17	472	25.0	-166709.0	-370.0	-21469.0
26	14	59	17	473	26.0	-167169.0	-323.0	-21548.0
26	14	59	17	474	27.0	-167647.0	-270.0	-21618.0
26	14	59	17	474	28.0	-168481.0	-219.0	-21510.0
26	14	59	17	475	29.0	-169686.0	-186.0	-21664.0
26	14	59	17	475	30.0	-170890.0	-156.0	-21921.0
26	14	59	17	476	31.0	-171902.0	-94.0	-22187.0
26	14	59	17	490	32.0	-172634.0	-41.0	-21856.0
26	14	59	17	491	33.0	-173135.0	13.0	-21915.0
26	14	59	17	492	34.0	-173259.0	74.0	-22172.0
26	14	59	17	492	35.0	-172589.0	118.0	-22630.0
26	14	59	17	493	36.0	-171916.0	149.0	-22467.0
26	14	59	17	493	37.0	-171501.0	181.0	-22255.0
26	14	59	17	494	38.0	-170049.0	214.0	-22656.0
26	14	59	17	495	39.0	-168134.0	261.0	-22587.0
26	14	59	17	514	40.0	-166373.0	308.0	-22614.0
26	14	59	17	515	41.0	-163966.0	353.0	-22847.0
26	14	59	17	516	42.0	-157851.0	391.0	-23242.0
26	14	59	17	516	43.0	-146399.0	418.0	-23657.0
26	14	59	17	517	44.0	-133261.0	463.0	-24052.0
26	14	59	17	518	45.0	-130031.0	481.0	-24291.0
26	14	59	17	518	46.0	-140702.0	518.0	-24634.0
26	14	59	17	519	47.0	-150796.0	554.0	-24506.0
26	14	59	17	520	48.0	-165321.0	593.0	-24322.0
26	14	59	17	520	49.0	-177369.0	633.0	-24189.0
26	14	59	17	521	50.0	-187607.0	640.0	-24118.0
26	14	59	17	522	51.0	-189071.0	643.0	-23642.0
26	14	59	17	522	52.0	-187487.0	663.0	-23659.0
26	14	59	17	523	53.0	-183282.0	668.0	-24431.0
26	14	59	17	523	54.0	-176753.0	707.0	-25021.0
26	14	59	17	538	55.0	-169921.0	749.0	-24979.0
26	14	59	17	539	56.0	-164435.0	768.0	-25224.0
26	14	59	17	539	57.0	-160394.0	781.0	-25561.0
26	14	59	17	540	58.0	-157976.0	793.0	-25332.0
26	14	59	17	541	59.0	-156566.0	793.0	-25443.0
26	14	59	17	541	60.0	-156370.0	809.0	-25442.0
26	14	59	17	542	61.0	-155484.0	818.0	-25355.0
26	14	59	17	560	62.0	-153038.0	859.0	-25416.0
26	14	59	17	561	63.0	-150246.0	875.0	-25492.0
26	14	59	17	562	64.0	-148159.0	865.0	-25553.0
26	14	59	17	563	65.0	-146698.0	885.0	-25722.0
26	14	59	17	563	66.0	-146938.0	884.0	-25919.0
26	14	59	17	564	67.0	-148189.0	875.0	-26242.0
26	14	59	17	565	68.0	-149941.0	863.0	-26375.0
26	14	59	17	565	69.0	-151757.0	865.0	-26242.0
26	14	59	17	566	70.0	-153704.0	890.0	-26424.0
26	14	59	17	566	71.0	-155340.0	923.0	-26571.0
26	14	59	17	567	72.0	-155912.0	917.0	-26610.0
26	14	59	17	568	73.0	-156251.0	888.0	-26757.0
26	14	59	17	568	74.0	-156803.0	894.0	-26479.0
26	14	59	17	569	75.0	-156194.0	907.0	-26370.0
26	14	59	17	569	76.0	-155464.0	895.0	-26624.0
26	14	59	17	583	77.0	-154179.0	896.0	-26743.0
26	14	59	17	584	78.0	-153497.0	916.0	-26684.0
26	14	59	17	584	79.0	-153059.0	909.0	-26558.0
26	14	59	17	585	80.0	-153066.0	895.0	-26453.0
26	14	59	17	586	81.0	-152958.0	882.0	-26046.0
26	14	59	17	586	82.0	-152595.0	846.0	-26311.0
26	14	59	17	587	83.0	-152260.0	846.0	-26680.0
26	14	59	17	588	84.0	-152227.0	846.0	-26460.0
26	14	59	17	607	85.0	-152294.0	842.0	-24526.0
26	14	59	17	607	86.0	-152585.0	843.0	-21097.0
26	14	59	17	608	87.0	-153483.0	830.0	-19242.0
26	14	59	17	609	88.0	-154562.0	824.0	-18232.0
26	14	59	17	609	89.0	-155840.0	815.0	-17477.0
26	14	59	17	610	90.0	-156969.0	812.0	-17388.0
26	14	59	17	611	91.0	-157892.0	798.0	-17009.0
26	14	59	17	611	92.0	-158772.0	776.0	-16732.0
26	14	59	17	612	93.0	-159570.0	792.0	-17019.0
26	14	59	17	612	94.0	-160482.0	773.0	-16877.0
26	14	59	17	613	95.0	-161180.0	746.0	-16641.0
26	14	59	17	614	96.0	-161902.0	732.0	-17320.0
26	14	59	17	614	97.0	-162527.0	705.0	-18332.0
26	14	59	17	615	98.0	-163426.0	698.0	-19442.0
26	14	59	17	615	99.0	-164219.0	686.0	-20092.0
26	14	59	17	629	100.0	-165271.0	693.0	-20561.0
26	14	59	17	630	101.0	-166631.0	683.0	-20928.0
26	14	59	17	631	102.0	-167459.0	656.0	-21330.0
26	14	59	17	631	103.0	-168379.0	646.0	-21664.0
26	14	59	17	632	104.0	-169206.0	620.0	-21934.0
26	14	59	17	633	105.0	-170231.0	602.0	-22444.0
26	14	59	17	633	106.0	-171011.0	584.0	-22475.0
26	14	59	17	653	107.0	-171604.0	564.0	-22248.0
26	14	59	17	653	108.0	-171577.0	578.0	-22647.0
26	14	59	17	654	109.0	-171643.0	571.0	-23139.0
26	14	59	17	655	110.0	-171937.0	539.0	-23184.0
26	14	59	17	655	111.0	-172906.0	499.0	-22824.0
26	14	59	17	656	112.0	-173876.0	479.0	-23316.0
26	14	59	17	656	113.0	-174101.0	456.0	-23408.0
26	14	59	17	657	114.0	-174337.0	446.0	-23119.0
26	14	59	17	658	115.0	-174332.0	439.0	-22977.0
26	14	59	17	658	116.0	-174462.0	430.0	-23898.0
26	14	59	17	659	117.0	-174166.0	413.0	-24086.0
26	14	59	17	659	118.0	-173901.0	376.0	-24141.0
26	14	59	17	660	119.0	-173002.0	336.0	-24647.0
26	14	59	17	661	120.0	-172142.0	318.0	-24768.0
26	14	59	17	661	121.0	-171325.0	309.0	-24702.0
26	14	59	17	677	122.0	-170898.0	295.0	-24582.0
26	14	59	17	677	123.0	-170551.0	299.0	-24686.0
26	14	59	17	678	124.0	-170424.0	299.0	-24761.0
26	14	59	17	679	125.0	-170291.0	275.0	-24813.0
26	14	59	17	679	126.0	-169936.0	229.0	-24903.0
26	14	59	17	680	127.0	-169552.0	217.0	-25079.0
26	14	59	17	681	128.0	-168842.0	196.0	-25101.0
26	14	59	17	682	129.0	-168324.0	184.0	-25409.0
26	14	59	17	683	130.0	-167424.0	196.0	-26029.0
26	14	59	17	684	131.0	-166805.0	190.0	-26304.0
26	14	59	17	684	132.0	-166020.0	163.0	-26873.0
26	14	59	17	685	133.0	-165506.0	136.0	-27054.0
26	14	59	17	686	134.0	-164892.0	126.0	-27229.0
26	14	59	17	686	135.0	-164731.0	119.0	-27457.0
26	14	59	17	687	136.0	-164615.0	71.0	-27859.0
26	14	59	17	699	137.0	-165219.0	59.0	-28137.0
26	14	59	17	700	138.0	-166036.0	73.0	-28401.0
26	14	59	17	700	139.0	-167008.0	67.0	-28736.0
26	14	59	17	701	140.0	-168212.0	44.0	-28752.0
26	14	59	17	702	141.0	-169384.0	39.0	-28517.0
26	14	59	17	702	142.0	-170494.0	19.0	-28881.0
26	14	59	17	703	143.0	-171416.0	1.0	-29109.0
26	14	59	17	703	144.0	-172376.0	-1.0	-28844.0
26	14	59	17	725	145.0	-172936.0	4.0	-28958.0
26	14	59	17	734	146.0	-173282.0	2.0	-29199.0
26	14	59	17	737	147.0	-173138.0	-20.0	-29114.0
26	14	59	17	739	148.0	-172892.0	-32.0	-29067.0
26	14	59	17	739	149.0	-172123.0	-64.0	-29181.0
26	14	59	17	740	150.0	-172069.0	-75.0	-29000.0
26	14	59	17	741	151.0	-172037.0	-91.0	-28756.0
26	14	59	17	742	152.0	-172807.0	-104.0	-28950.0
26	14	59	17	742	153.0	-173029.0	-101.0	-29044.0
26	14	59	17	743	154.0	-173527.0	-106.0	-28736.0
26	14	59	17	743	155.0	-172864.0	-101.0	-28625.0
26	14	59	17	744	156.0	-172583.0	-116.0	-28887.0
26	14	59	17	744	157.0	-171205.0	-126.0	-29292.0
26	14	59	17	745	158.0	-170851.0	-151.0	-29338.0
26	14	59	17	746	159.0	-169882.0	-157.0	-29413.0
26	14	59	17	746	160.0	-169455.0	-142.0	-29454.0
26	14	59	17	747	161.0	-168161.0	-149.0	-29347.0
26	14	59	17	747	162.0	-167581.0	-157.0	-29308.0
26	14	59	17	748	163.0	-166736.0	-160.0	-29596.0
26	14	59	17	748	164.0	-166592.0	-176.0	-29977.0
26	14	59	17	749	165.0	-165626.0	-199.0	-29889.0
26	14	59	17	749	166.0	-164837.0	-193.0	-30183.0
26	14	59	17	757	167.0	-163841.0	-208.0	-30493.0
26	14	59	17	758	168.0	-162908.0	-194.0	-30597.0
26	14	59	17	759	169.0	-162590.0	-202.0	-30546.0
26	14	59	17	759	170.0	-162143.0	-227.0	-30337.0
26	14	59	17	760	171.0	-161969.0	-232.0	-30737.0
26	14	59	17	760	172.0	-161156.0	-221.0	-30811.0
26	14	59	17	761	173.0	-161045.0	-246.0	-30977.0
26	14	59	17	781	174.0	-160437.0	-263.0	-30789.0
26	14	59	17	782	175.0	-160885.0	-243.0	-31099.0
26	14	59	17	783	176.0	-160877.0	-256.0	-31363.0
26	14	59	17	783	177.0	-162294.0	-276.0	-31451.0
26	14	59	17	784	178.0	-162648.0	-276.0	-31401.0
26	14	59	17	784	179.0	-163553.0	-292.0	-32099.0
26	14	59	17	785	180.0	-163500.0	-323.0	-31966.0
26	14	59	17	786	181.0	-164229.0	-329.0	-31646.0
26	14	59	17	786	182.0	-163912.0	-318.0	-31876.0
26	14	59	17	787	183.0	-164395.0	-315.0	-32247.0
26	14	59	17	787	184.0	-164164.0	-331.0	-32247.0
26	14	59	17	788	185.0	-164286.0	-361.0	-32244.0
26	14	59	17	789	186.0	-164190.0	-369.0	-32346.0
26	14	59	17	789	187.0	-164637.0	-385.0	-32554.0
26	14	59	17	790	188.0	-164736.0	-402.0	-32554.0
26	14	59	17	804	189.0	-165128.0	-410.0	-32715.0
26	14	59	17	805	190.0	-165289.0	-405.0	-32719.0
26	14	59	17	806	191.0	-165524.0	-410.0	-32904.0
26	14	59	17	806	192.0	-165580.0	-441.0	-33098.0
26	14	59	17	807	193.0	-165714.0	-454.0	-33735.0
26	14	59	17	807	194.0	-166156.0	-472.0	-34954.0
26	14	59	17	808	195.0	-166383.0	-493.0	-36321.0
26	14	59	17	808	196.0	-166782.0	-527.0	-37516.0
26	14	59	17	827	197.0	-166759.0	-534.0	-38395.0
26	14	59	17	828	198.0	-166946.0	-537.0	-38925.0
26	14	59	17	829	199.0	-167103.0	-521.0	-39597.0
26	14	59	17	830	200.0	-167586.0	-566.0	-39964.0
26	14	59	17	830	201.0	-167549.0	-567.0	-39989.0
26	14	59	17	831	202.0	-168352.0	-593.0	-38896.0
26	14	59	17	832	203.0	-168579.0	-621.0	-36221.0
26	14	59	17	832	204.0	-169855.0	-637.0	-32693.0
26	14	59	17	833	205.0	-170339.0	-646.0	-28238.0
26	14	59	17	834	206.0	-171204.0	-654.0	-23554.0
26	14	59	17	834	207.0	-171054.0	-665.0	-18992.0
26	14	59	17	835	208.0	-171675.0	-686.0	-16441.0
26	14	59	17	835	209.0	-171147.0	-707.0	-15297.0
26	14	59	17	836	210.0	-171472.0	-745.0	-14413.0
26	14	59	17	836	211.0	-171326.0	-761.0	-14052.0
26	14	59	17	851	212.0	-172996.0	-749.0	-14536.0
26	14	59	17	851	213.0	-174379.0	-754.0	-14409.0
26	14	59	17	852	214.0	-176694.0	-767.0	-13697.0
26	14	59	17	852	215.0	-177712.0	-814.0	-14022.0
26	14	59	17	853	216.0	-178402.0	-854.0	-16671.0
26	14	59	17	854	217.0	-177646.0	-864.0	-19907.0
26	14	59	17	854	218.0	-177306.0	-886.0	-23961.0
26	14	59	17	875	219.0	-176158.0	-898.0	-28134.0
26	14	59	17	875	220.0	-176349.0	-897.0	-30755.0
26	14	59	17	876	221.0	-176786.0	-911.0	-31412.0
26	14	59	17	877	222.0	-178574.0	-936.0	-31557.0
26	14	59	17	877	223.0	-180984.0	-949.0	-32571.0
26	14	59	17	878	224.0	-182700.0	-996.0	-33060.0
26	14	59	17	878	225.0	-174718.0	-1006.0	-33039.0
26	14	59	17	879	226.0	-150337.0	-1014.0	-33597.0
26	14	59	17	880	227.0	-119593.0	-1034.0	-34205.0
26	14	59	17	880	228.0	-91993.0	-1036.0	-34813.0
26	14	59	17	881	229.0	-74988.0	-1044.0	-35525.0
26	14	59	17	881	230.0	-72035.0	-1083.0	-35879.0
26	14	59	17	882	231.0	-84197.0	-1097.0	-36226.0
26	14	59	17	882	232.0	-111641.0	-1135.0	-36291.0
26	14	59	17	883	233.0	-145029.0	-1166.0	-36566.0
26	14	59	17	898	234.0	-174112.0	-1192.0	-36737.0
26	14	59	17	899	235.0	-192467.0	-1179.0	-37207.0
26	14	59	17	899	236.0	-201007.0	-1199.0	-37206.0
26	14	59	17	900	237.0	-199639.0	-1236.0	-37230.0
26	14	59	17	900	238.0	-188420.0	-1263.0	-37452.0
26	14	59	17	901	239.0	-168565.0	-1285.0	-37922.0
26	14	59	17	901	240.0	-148064.0	-1299.0	-37997.0
26	14	59	17	902	241.0	-133918.0	-1324.0	-38243.0
26	14	59	17	921	242.0	-129578.0	-1333.0	-38574.0
26	14	59	17	921	243.0	-134899.0	-1335.0	-38848.0
26	14	59	17	922	244.0	-145251.0	-1356.0	-39152.0
26	14	59	17	923	245.0	-155842.0	-1385.0	-39516.0
26	14	59	17	923	246.0	-167259.0	-1402.0	-39694.0
26	14	59	17	924	247.0	-178761.0	-1429.0	-39051.0
26	14	59	17	924	248.0	-190240.0	-1459.0	-38916.0
26	14	59	17	925	249.0	-199354.0	-1460.0	-39299.0
26	14	59	17	926	250.0	-205302.0	-1473.0	-39296.0
26	14	59	17	926	251.0	-206738.0	-1490.0	-39156.0
26	14	59	17	927	252.0	-203614.0	-1511.0	-39296.0
26	14	59	17	927	253.0	-196564.0	-1534.0	-39379.0
26	14	59	17	928	254.0	-187684.0	-1573.0	-39584.0
26	14	59	17	928	255.0	-178102.0	-1591.0	-39879.0
26	14	59	17	929	0.0	-169180.0	-1607.0	-40139.0
26	14	59	17	944	1.0	-161767.0	-1616.0	-40372.0
26	14	59	17	945	2.0	-156348.0	-1621.0	-40612.0
26	14	59	17	945	3.0	-153179.0	-1624.0	-40511.0
26	14	59	17	946	4.0	-150226.0	-1655.0	-40639.0
26	14	59	17	946	5.0	-148468.0	-1677.0	-41121.0
26	14	59	17	947	6.0	-147354.0	-1686.0	-41636.0
26	14	59	17	948	7.0	-146559.0	-1709.0	-41725.0
26	14	59	17	968	8.0	-145689.0	-1724.0	-41750.0
26	14	59	17	968	9.0	-144579.0	-1749.0	-42089.0
26	14	59	17	969	10.0	-143181.0	-1767.0	-42092.0
26	14	59	17	969	11.0	-141837.0	-1781.0	-41915.0
26	14	59	17	970	12.0	-141172.0	-1796.0	-42058.0
26	14	59	17	971	13.0	-141394.0	-1828.0	-42022.0
26	14	59	17	971	14.0	-142176.0	-1849.0	-41520.0
26	14	59	17	972	15.0	-143357.0	-1859.0	-41707.0
26	14	59	17	972	16.0	-144127.0	-1857.0	-42476.0
26	14	59	17	973	17.0	-145252.0	-1886.0	-42470.0
26	14	59	17	973	18.0	-146156.0	-1896.0	-42379.0
26	14	59	17	974	19.0	-146871.0	-1921.0	-42724.0
26	14	59	17	975	20.0	-147988.0	-1967.0	-42696.0
26	14	59	17	975	21.0	-149527.0	-1992.0	-42529.0
26	14	59	17	976	22.0	-151009.0	-2019.0	-42755.0
26	14	59	17	991	23.0	-152319.0	-2024.0	-43252.0
26	14	59	17	992	24.0	-153769.0	-2021.0	-43045.0
26	14	59	17	992	25.0	-154571.0	-2026.0	-42579.0
26	14	59	17	993	26.0	-155788.0	-2062.0	-42921.0
26	14	59	17	994	27.0	-156285.0	-2095.0	-43084.0
26	14	59	17	994	28.0	-156836.0	-2118.0	-42911.0
26	14	59	17	995	29.0	-156575.0	-2131.0	-43144.0
26	14	59	17	995	30.0	-156086.0	-2132.0	-43130.0
26	14	59	18	14	31.0	-155532.0	-2147.0	-42954.0
26	14	59	18	15	32.0	-155064.0	-2158.0	-42390.0
26	14	59	18	16	33.0	-154787.0	-2196.0	-42060.0
26	14	59	18	16	34.0	-154160.0	-2217.0	-42167.0
26	14	59	18	17	35.0	-153918.0	-2239.0	-42392.0
26	14	59	18	18	36.0	-153572.0	-2263.0	-42309.0
26	14	59	18	18	37.0	-153489.0	-2284.0	-42251.0
26	14	59	18	19	38.0	-153384.0	-2294.0	-42291.0
26	14	59	18	20	39.0	-153208.0	-2314.0	-42732.0
26	14	59	18	20	40.0	-153087.0	-2337.0	-42938.0
26	14	59	18	21	41.0	-152795.0	-2365.0	-43306.0
26	14	59	18	21	42.0	-153229.0	-2377.0	-43683.0
26	14	59	18	22	43.0	-153187.0	-2397.0	-43907.0
26	14	59	18	22	44.0	-153051.0	-2416.0	-43505.0
26	14	59	18	23	45.0	-152564.0	-2434.0	-43476.0
26	14	59	18	24	46.0	-152217.0	-2437.0	-43600.0
26	14	59	18	24	47.0	-151806.0	-2412.0	-43468.0
26	14	59	18	25	48.0	-151315.0	-2396.0	-43667.0
26	14	59	18	26	49.0	-151259.0	-2402.0	-43952.0
26	14	59	18	26	50.0	-151431.0	-2412.0	-44043.0
26	14	59	18	27	51.0	-151941.0	-2402.0	-43893.0
26	14	59	18	42	52.0	-152239.0	-2416.0	-43787.0
26	14	59	18	43	53.0	-152447.0	-2407.0	-44156.0
26	14	59	18	43	54.0	-152786.0	-2410.0	-44005.0
26	14	59	18	44	55.0	-153412.0	-2403.0	-44029.0
26	14	59	18	45	56.0	-154587.0	-2402.0	-44307.0
26	14	59	18	45	57.0	-156121.0	-2399.0	-44386.0
26	14	59	18	46	58.0	-157608.0	-2402.0	-43876.0
26	14	59	18	46	59.0	-158227.0	-2407.0	-43821.0
26	14	59	18	47	60.0	-159107.0	-2364.0	-43808.0
26	14	59	18	59	61.0	-159786.0	-2324.0	-43819.0
26	14	59	18	60	62.0	-160462.0	-2302.0	-43871.0
26	14	59	18	60	63.0	-160824.0	-2274.0	-44332.0
26	14	59	18	61	64.0	-160937.0	-2262.0	-44599.0
26	14	59	18	62	65.0	-161243.0	-2227.0	-44587.0
26	14	59	18	62	66.0	-161484.0	-2198.0	-44781.0
26	14	59	18	63	67.0	-162025.0	-2163.0	-45015.0
26	14	59	18	83	68.0	-162032.0	-2120.0	-45198.0
26	14	59	18	83	69.0	-162542.0	-2084.0	-45581.0
26	14	59	18	84	70.0	-162593.0	-2056.0	-45787.0
26	14	59	18	84	71.0	-162662.0	-2017.0	-45917.0
26	14	59	18	85	72.0	-162395.0	-1954.0	-46197.0
26	14	59	18	86	73.0	-162598.0	-1938.0	-46249.0
26	14	59	18	86	74.0	-162631.0	-1907.0	-46442.0
26	14	59	18	87	75.0	-163152.0	-1853.0	-46995.0
26	14	59	18	88	76.0	-163637.0	-1782.0	-47090.0
26	14	59	18	88	77.0	-164481.0	-1714.0	-47187.0
26	14	59	18	89	78.0	-165612.0	-1678.0	-47312.0
26	14	59	18	89	79.0	-166662.0	-1637.0	-47467.0
26	14	59	18	90	80.0	-167820.0	-1586.0	-47164.0
26	14	59	18	91	81.0	-168667.0	-1548.0	-47520.0
26	14	59	18	91	82.0	-169797.0	-1511.0	-48032.0
26	14	59	18	108	83.0	-171106.0	-1444.0	-48033.0
26	14	59	18	108	84.0	-172485.0	-1376.0	-47481.0
26	14	59	18	109	85.0	-173322.0	-1330.0	-47257.0
26	14	59	18	110	86.0	-174216.0	-1279.0	-47521.0
26	14	59	18	110	87.0	-175162.0	-1234.0	-47758.0
26	14	59	18	111	88.0	-176245.0	-1199.0	-47562.0
26	14	59	18	111	89.0	-177423.0	-1131.0	-47739.0
26	14	59	18	112	90.0	-179219.0	-1092.0	-47412.0
26	14	59	18	131	91.0	-180611.0	-1027.0	-47108.0
26	14	59	18	132	92.0	-181009.0	-971.0	-46954.0
26	14	59	18	132	93.0	-180324.0	-954.0	-46531.0
26	14	59	18	133	94.0	-179396.0	-907.0	-46412.0
26	14	59	18	134	95.0	-178547.0	-847.0	-46276.0
26	14	59	18	134	96.0	-177459.0	-809.0	-46572.0
26	14	59	18	135	97.0	-176791.0	-789.0	-46522.0
26	14	59	18	135	98.0	-175758.0	-733.0	-46379.0
26	14	59	18	136	99.0	-173196.0	-673.0	-46159.0
26	14	59	18	137	100.0	-164487.0	-636.0	-45777.0
26	14	59	18	137	101.0	-149907.0	-616.0	-45707.0
26	14	59	18	138	102.0	-134586.0	-589.0	-46054.0
26	14	59	18	138	103.0	-132633.0	-541.0	-46177.0
26	14	59	18	139	104.0	-142392.0	-524.0	-45956.0
26	14	59	18	155	105.0	-152834.0	-499.0	-45694.0
26	14	59	18	156	106.0	-166293.0	-442.0	-45561.0
26	14	59	18	157	107.0	-177246.0	-412.0	-45162.0
26	14	59	18	157	108.0	-185786.0	-412.0	-44911.0
26	14	59	18	158	109.0	-185354.0	-383.0	-44597.0
26	14	59	18	158	110.0	-181574.0	-354.0	-44422.0
26	14	59	18	159	111.0	-176660.0	-336.0	-44285.0
26	14	59	18	160	112.0	-170539.0	-334.0	-44444.0
26	14	59	18	178	113.0	-165381.0	-294.0	-44617.0
