28	18	15	44	550	37.0	-181852.0	-987.0	5207.0
28	18	15	44	552	38.0	-187518.0	-982.0	5465.0
28	18	15	44	554	39.0	-192353.0	-976.0	5589.0
28	18	15	44	555	40.0	-197601.0	-979.0	5388.0
28	18	15	44	557	41.0	-203782.0	-969.0	5214.0
28	18	15	44	559	42.0	-209726.0	-971.0	5017.0
28	18	15	44	561	43.0	-216892.0	-947.0	4772.0
28	18	15	44	563	44.0	-225226.0	-942.0	4571.0
28	18	15	44	564	45.0	-235277.0	-959.0	4301.0
28	18	15	44	564	46.0	-246662.0	-950.0	4451.0
28	18	15	44	565	47.0	-259160.0	-964.0	5190.0
28	18	15	44	566	48.0	-272435.0	-957.0	5520.0
28	18	15	44	576	49.0	-285719.0	-966.0	5378.0
28	18	15	44	576	50.0	-298715.0	-956.0	5288.0
28	18	15	44	577	51.0	-310596.0	-946.0	5196.0
28	18	15	44	578	52.0	-320609.0	-971.0	4727.0
28	18	15	44	578	53.0	-328098.0	-981.0	4206.0
28	18	15	44	579	54.0	-333261.0	-993.0	4463.0
28	18	15	44	580	55.0	-335469.0	-1007.0	4299.0
28	18	15	44	580	56.0	-334344.0	-1047.0	3536.0
28	18	15	44	604	57.0	-330871.0	-1056.0	3693.0
28	18	15	44	605	58.0	-324874.0	-1037.0	4484.0
28	18	15	44	605	59.0	-316673.0	-1018.0	5065.0
28	18	15	44	637	60.0	-306188.0	-1012.0	5979.0
28	18	15	44	681	61.0	-294029.0	-992.0	6660.0
28	18	15	44	682	62.0	-280019.0	-977.0	6091.0
28	18	15	44	682	63.0	-264328.0	-996.0	5609.0
28	18	15	44	683	64.0	-247185.0	-1005.0	5005.0
28	18	15	44	684	65.0	-228683.0	-979.0	4850.0
28	18	15	44	684	66.0	-209139.0	-978.0	5201.0
28	18	15	44	685	67.0	-188214.0	-974.0	5738.0
28	18	15	44	686	68.0	-166994.0	-937.0	5912.0
28	18	15	44	686	69.0	-146108.0	-900.0	6287.0
28	18	15	44	687	70.0	-125806.0	-880.0	6052.0
28	18	15	44	688	71.0	-107054.0	-841.0	5664.0
28	18	15	44	688	72.0	-90514.0	-816.0	5308.0
28	18	15	44	689	73.0	-76521.0	-816.0	5243.0
28	18	15	44	690	74.0	-66363.0	-806.0	5026.0
28	18	15	44	691	86.0	-126157.0	-767.0	5192.0
28	18	15	44	691	108.0	-306702.0	-1003.0	6006.0
28	18	15	44	692	109.0	-306092.0	-996.0	6231.0
28	18	15	44	692	110.0	-305304.0	-991.0	6129.0
28	18	15	44	693	111.0	-303944.0	-993.0	6063.0
28	18	15	44	694	112.0	-302068.0	-978.0	5736.0
28	18	15	44	694	113.0	-299792.0	-994.0	5359.0
28	18	15	44	727	114.0	-296042.0	-964.0	4997.0
28	18	15	44	728	115.0	-291058.0	-943.0	4434.0
28	18	15	44	728	116.0	-284716.0	-935.0	4639.0
28	18	15	44	729	117.0	-277086.0	-941.0	4654.0
28	18	15	44	729	118.0	-269457.0	-944.0	5125.0
28	18	15	44	730	119.0	-261149.0	-929.0	5824.0
28	18	15	44	731	120.0	-251556.0	-904.0	6126.0
28	18	15	44	731	121.0	-241618.0	-877.0	6356.0
28	18	15	44	732	122.0	-230366.0	-862.0	6486.0
28	18	15	44	733	123.0	-218207.0	-861.0	6252.0
28	18	15	44	733	124.0	-206119.0	-825.0	5928.0
28	18	15	44	734	125.0	-193947.0	-804.0	5434.0
28	18	15	44	734	126.0	-182172.0	-795.0	6108.0
28	18	15	44	735	127.0	-171431.0	-783.0	6381.0
28	18	15	44	736	128.0	-161734.0	-778.0	6117.0
28	18	15	44	736	130.0	-144806.0	-744.0	6049.0
28	18	15	44	737	131.0	-137504.0	-730.0	5754.0
28	18	15	44	737	132.0	-130414.0	-727.0	5598.0
28	18	15	44	738	133.0	-123629.0	-732.0	5391.0
28	18	15	44	738	134.0	-117116.0	-722.0	5026.0
28	18	15	44	739	135.0	-111072.0	-712.0	5094.0
28	18	15	44	740	136.0	-105459.0	-709.0	5356.0
28	18	15	44	772	137.0	-100945.0	-711.0	5683.0
28	18	15	44	773	138.0	-98109.0	-701.0	6396.0
28	18	15	44	773	139.0	-97977.0	-681.0	6417.0
28	18	15	44	774	140.0	-100981.0	-670.0	6336.0
28	18	15	44	774	141.0	-108364.0	-661.0	5916.0
28	18	15	44	775	142.0	-118741.0	-638.0	5501.0
28	18	15	44	776	143.0	-132282.0	-634.0	5219.0
28	18	15	44	776	144.0	-148582.0	-651.0	5436.0
28	18	15	44	777	145.0	-167248.0	-664.0	7075.0
28	18	15	44	777	146.0	-187711.0	-693.0	9094.0
28	18	15	44	778	147.0	-209206.0	-702.0	9857.0
28	18	15	44	779	148.0	-230609.0	-701.0	10037.0
28	18	15	44	779	149.0	-251637.0	-716.0	10532.0
28	18	15	44	780	150.0	-272214.0	-719.0	10268.0
28	18	15	44	781	151.0	-292206.0	-731.0	10138.0
28	18	15	44	781	153.0	-328358.0	-749.0	9859.0
28	18	15	44	782	154.0	-343240.0	-781.0	9937.0
28	18	15	44	782	155.0	-355428.0	-782.0	9669.0
28	18	15	44	783	156.0	-363948.0	-792.0	9468.0
28	18	15	44	784	157.0	-367177.0	-804.0	9578.0
28	18	15	44	784	158.0	-365783.0	-796.0	9893.0
28	18	15	44	785	159.0	-359311.0	-779.0	9590.0
28	18	15	44	817	160.0	-348652.0	-774.0	9663.0
28	18	15	44	818	161.0	-333827.0	-751.0	10132.0
28	18	15	44	819	162.0	-316112.0	-747.0	10006.0
28	18	15	44	819	163.0	-295534.0	-768.0	10172.0
28	18	15	44	820	164.0	-273615.0	-787.0	10714.0
28	18	15	44	821	165.0	-251619.0	-822.0	10714.0
28	18	15	44	821	166.0	-229569.0	-856.0	10829.0
28	18	15	44	822	167.0	-208421.0	-874.0	11521.0
28	18	15	44	822	168.0	-189171.0	-889.0	12633.0
28	18	15	44	823	169.0	-172071.0	-904.0	12803.0
28	18	15	44	824	170.0	-157901.0	-916.0	13453.0
28	18	15	44	824	171.0	-146607.0	-944.0	14239.0
28	18	15	44	825	172.0	-138340.0	-949.0	14271.0
28	18	15	44	825	173.0	-132864.0	-981.0	14368.0
28	18	15	44	826	174.0	-129709.0	-996.0	14424.0
28	18	15	44	827	175.0	-129234.0	-983.0	14599.0
28	18	15	44	827	176.0	-131354.0	-983.0	15079.0
28	18	15	44	828	177.0	-136041.0	-1005.0	16387.0
28	18	15	44	828	178.0	-143456.0	-1006.0	17612.0
28	18	15	44	829	179.0	-152711.0	-992.0	17784.0
28	18	15	44	829	180.0	-163306.0	-994.0	17916.0
28	18	15	44	830	181.0	-174864.0	-1002.0	17745.0
28	18	15	44	862	182.0	-186091.0	-1016.0	17426.0
28	18	15	44	862	183.0	-196577.0	-1010.0	17182.0
28	18	15	44	863	184.0	-206331.0	-1021.0	16764.0
28	18	15	44	864	185.0	-215180.0	-1092.0	16813.0
28	18	15	44	864	186.0	-223044.0	-1191.0	17153.0
28	18	15	44	865	187.0	-229209.0	-1237.0	17789.0
28	18	15	44	865	188.0	-233881.0	-1274.0	19035.0
28	18	15	44	866	189.0	-236537.0	-1299.0	19431.0
28	18	15	44	867	190.0	-236513.0	-1337.0	19554.0
28	18	15	44	867	191.0	-234293.0	-1351.0	19201.0
28	18	15	44	868	192.0	-229130.0	-1367.0	19041.0
28	18	15	44	868	193.0	-220649.0	-1393.0	18727.0
28	18	15	44	869	194.0	-209838.0	-1427.0	18241.0
28	18	15	44	869	195.0	-196531.0	-1458.0	18133.0
28	18	15	44	870	196.0	-181436.0	-1487.0	18746.0
28	18	15	44	871	198.0	-148522.0	-1535.0	19881.0
28	18	15	44	871	199.0	-132624.0	-1531.0	20728.0
28	18	15	44	872	200.0	-117829.0	-1537.0	20748.0
28	18	15	44	872	201.0	-104936.0	-1526.0	20813.0
28	18	15	44	873	202.0	-93714.0	-1540.0	21471.0
28	18	15	44	873	203.0	-84199.0	-1534.0	21423.0
28	18	15	44	907	204.0	-77208.0	-1531.0	21156.0
28	18	15	44	907	205.0	-72496.0	-1541.0	21466.0
28	18	15	44	908	206.0	-70270.0	-1561.0	22470.0
28	18	15	44	909	207.0	-70615.0	-1586.0	24351.0
28	18	15	44	909	208.0	-72371.0	-1609.0	27039.0
28	18	15	44	910	209.0	-76496.0	-1606.0	29861.0
28	18	15	44	911	210.0	-82977.0	-1606.0	32399.0
28	18	15	44	911	211.0	-90302.0	-1615.0	34266.0
28	18	15	44	912	212.0	-99056.0	-1615.0	35578.0
28	18	15	44	912	213.0	-109727.0	-1624.0	37183.0
28	18	15	44	913	214.0	-120694.0	-1634.0	38256.0
28	18	15	44	913	215.0	-131897.0	-1677.0	38341.0
28	18	15	44	914	216.0	-143275.0	-1711.0	41161.0
28	18	15	44	915	217.0	-153346.0	-1761.0	45506.0
28	18	15	44	915	218.0	-161791.0	-1771.0	50829.0
28	18	15	44	916	220.0	-173308.0	-1791.0	56714.0
28	18	15	44	916	221.0	-176452.0	-1801.0	54973.0
28	18	15	44	917	222.0	-179201.0	-1797.0	51703.0
28	18	15	44	918	223.0	-181902.0	-1791.0	48089.0
28	18	15	44	918	224.0	-185836.0	-1774.0	46588.0
28	18	15	44	919	225.0	-192380.0	-1755.0	44738.0
28	18	15	44	919	226.0	-202944.0	-1769.0	41602.0
28	18	15	44	953	227.0	-219706.0	-1775.0	41938.0
28	18	15	44	953	228.0	-242678.0	-1779.0	46537.0
28	18	15	44	954	229.0	-270161.0	-1769.0	50316.0
28	18	15	44	955	230.0	-300776.0	-1760.0	51113.0
28	18	15	44	955	231.0	-332047.0	-1741.0	49796.0
28	18	15	44	956	232.0	-361677.0	-1747.0	47746.0
28	18	15	44	956	233.0	-387546.0	-1744.0	45663.0
28	18	15	44	957	234.0	-408436.0	-1757.0	43948.0
28	18	15	44	958	235.0	-423767.0	-1777.0	42632.0
28	18	15	44	958	236.0	-433006.0	-1771.0	41947.0
28	18	15	44	959	237.0	-432669.0	-1751.0	41086.0
28	18	15	44	959	238.0	-419602.0	-1741.0	40307.0
28	18	15	44	960	239.0	-388142.0	-1744.0	39972.0
28	18	15	44	961	240.0	-338479.0	-1761.0	39644.0
28	18	15	44	961	241.0	-278166.0	-1771.0	38744.0
28	18	15	44	962	243.0	-164395.0	-1735.0	38403.0
28	18	15	44	962	244.0	-128762.0	-1769.0	37640.0
28	18	15	44	963	245.0	-113271.0	-1756.0	36935.0
28	18	15	44	964	246.0	-110701.0	-1737.0	37397.0
28	18	15	44	964	247.0	-108969.0	-1716.0	37691.0
28	18	15	44	965	248.0	-104422.0	-1704.0	37383.0
28	18	15	44	997	249.0	-100408.0	-1666.0	37433.0
28	18	15	44	998	250.0	-99959.0	-1659.0	37497.0
28	18	15	44	999	251.0	-103725.0	-1667.0	37359.0
28	18	15	44	999	252.0	-102552.0	-1677.0	37066.0
28	18	15	45	0	253.0	-92323.0	-1651.0	37021.0
28	18	15	45	0	254.0	-83066.0	-1656.0	36812.0
28	18	15	45	1	255.0	-81235.0	-1647.0	36650.0
28	18	15	45	2	0.0	-84592.0	-1662.0	36808.0
28	18	15	45	2	1.0	-91277.0	-1664.0	36355.0
28	18	15	45	3	2.0	-104599.0	-1659.0	36301.0
28	18	15	45	3	3.0	-124340.0	-1656.0	35797.0
28	18	15	45	4	4.0	-147007.0	-1652.0	34715.0
28	18	15	45	5	5.0	-166908.0	-1657.0	33092.0
28	18	15	45	5	6.0	-181819.0	-1653.0	31186.0
28	18	15	45	6	7.0	-190551.0	-1676.0	28953.0
28	18	15	45	6	9.0	-181789.0	-1701.0	23876.0
28	18	15	45	7	10.0	-164854.0	-1731.0	21233.0
28	18	15	45	8	11.0	-143801.0	-1738.0	18571.0
28	18	15	45	8	12.0	-124110.0	-1734.0	16530.0
28	18	15	45	9	13.0	-110762.0	-1725.0	14505.0
28	18	15	45	9	14.0	-104815.0	-1703.0	12651.0
28	18	15	45	41	15.0	-106016.0	-1703.0	10984.0
28	18	15	45	42	16.0	-112829.0	-1734.0	8975.0
28	18	15	45	43	17.0	-123301.0	-1729.0	7083.0
28	18	15	45	44	18.0	-137058.0	-1752.0	6018.0
28	18	15	45	44	19.0	-155017.0	-1772.0	4553.0
28	18	15	45	45	20.0	-175986.0	-1802.0	3667.0
28	18	15	45	45	21.0	-200177.0	-1839.0	3070.0
28	18	15	45	46	22.0	-224859.0	-1859.0	2785.0
28	18	15	45	47	23.0	-249305.0	-1908.0	1985.0
28	18	15	45	47	24.0	-273063.0	-1929.0	1044.0
28	18	15	45	48	25.0	-294472.0	-1969.0	714.0
28	18	15	45	48	26.0	-313536.0	-2007.0	185.0
28	18	15	45	49	27.0	-329692.0	-2024.0	-1079.0
28	18	15	45	50	28.0	-342330.0	-2036.0	-1699.0
28	18	15	45	50	29.0	-351745.0	-2076.0	-2509.0
28	18	15	45	51	32.0	-354051.0	-2197.0	-2633.0
28	18	15	45	52	33.0	-345981.0	-2266.0	-3041.0
28	18	15	45	52	34.0	-335142.0	-2269.0	-3586.0
28	18	15	45	53	35.0	-321448.0	-2286.0	-4434.0
28	18	15	45	53	36.0	-306038.0	-2294.0	-5366.0
28	18	15	45	54	37.0	-288366.0	-2299.0	-6065.0
28	18	15	45	87	38.0	-268847.0	-2302.0	-6394.0
28	18	15	45	88	39.0	-248249.0	-2313.0	-6941.0
28	18	15	45	88	40.0	-226589.0	-2321.0	-7184.0
28	18	15	45	89	41.0	-204722.0	-2332.0	-6990.0
28	18	15	45	89	42.0	-182982.0	-2348.0	-6711.0
28	18	15	45	90	43.0	-161737.0	-2372.0	-6613.0
28	18	15	45	91	44.0	-142296.0	-2391.0	-6885.0
28	18	15	45	91	45.0	-125602.0	-2407.0	-7367.0
28	18	15	45	92	46.0	-111455.0	-2420.0	-7339.0
28	18	15	45	93	47.0	-100361.0	-2444.0	-7886.0
28	18	15	45	93	48.0	-92542.0	-2481.0	-8377.0
28	18	15	45	94	49.0	-86830.0	-2498.0	-9091.0
28	18	15	45	95	50.0	-83624.0	-2517.0	-9296.0
28	18	15	45	95	51.0	-82634.0	-2539.0	-9519.0
28	18	15	45	96	52.0	-83618.0	-2536.0	-9416.0
28	18	15	45	96	54.0	-93025.0	-2547.0	-9297.0
28	18	15	45	97	55.0	-98911.0	-2563.0	-9857.0
28	18	15	45	98	56.0	-107916.0	-2551.0	-9982.0
28	18	15	45	98	57.0	-117674.0	-2547.0	-10775.0
28	18	15	45	99	58.0	-128180.0	-2566.0	-11751.0
28	18	15	45	99	59.0	-139050.0	-2592.0	-11751.0
28	18	15	45	132	60.0	-149871.0	-2615.0	-11548.0
28	18	15	45	133	61.0	-159995.0	-2593.0	-11426.0
28	18	15	45	134	62.0	-169322.0	-2578.0	-10346.0
28	18	15	45	134	63.0	-177976.0	-2623.0	-9746.0
28	18	15	45	135	64.0	-185644.0	-2646.0	-10197.0
28	18	15	45	136	65.0	-194075.0	-2649.0	-10514.0
28	18	15	45	136	66.0	-201955.0	-2651.0	-10551.0
28	18	15	45	137	67.0	-209222.0	-2653.0	-11394.0
28	18	15	45	138	68.0	-216081.0	-2663.0	-11709.0
28	18	15	45	138	69.0	-222194.0	-2686.0	-11729.0
28	18	15	45	139	70.0	-227790.0	-2682.0	-11437.0
28	18	15	45	139	71.0	-232532.0	-2680.0	-11924.0
28	18	15	45	140	72.0	-236003.0	-2674.0	-11530.0
28	18	15	45	141	73.0	-237814.0	-2667.0	-11181.0
28	18	15	45	141	74.0	-239479.0	-2685.0	-11262.0
28	18	15	45	142	76.0	-237285.0	-2712.0	-11014.0
28	18	15	45	143	77.0	-233531.0	-2718.0	-11611.0
28	18	15	45	143	78.0	-227581.0	-2713.0	-11950.0
28	18	15	45	144	79.0	-220445.0	-2707.0	-12244.0
28	18	15	45	144	80.0	-213341.0	-2721.0	-12147.0
28	18	15	45	145	81.0	-208392.0	-2704.0	-11809.0
28	18	15	45	146	82.0	-205621.0	-2702.0	-11387.0
28	18	15	45	146	83.0	-204989.0	-2707.0	-11189.0
28	18	15	45	176	84.0	-206062.0	-2702.0	-11257.0
28	18	15	45	177	85.0	-208639.0	-2685.0	-11904.0
28	18	15	45	178	86.0	-213234.0	-2675.0	-12143.0
28	18	15	45	179	87.0	-217511.0	-2674.0	-12262.0
28	18	15	45	179	88.0	-221654.0	-2649.0	-12296.0
28	18	15	45	180	89.0	-224048.0	-2639.0	-12517.0
28	18	15	45	181	90.0	-225246.0	-2620.0	-12072.0
28	18	15	45	181	91.0	-226377.0	-2619.0	-11336.0
28	18	15	45	182	92.0	-227948.0	-2621.0	-11259.0
28	18	15	45	182	93.0	-229955.0	-2578.0	-10806.0
28	18	15	45	183	94.0	-231882.0	-2553.0	-10242.0
28	18	15	45	184	95.0	-233721.0	-2556.0	-10551.0
28	18	15	45	184	96.0	-235335.0	-2521.0	-10814.0
28	18	15	45	185	97.0	-237244.0	-2509.0	-10826.0
28	18	15	45	186	98.0	-239599.0	-2494.0	-10994.0
28	18	15	45	186	99.0	-243180.0	-2502.0	-11428.0
28	18	15	45	187	100.0	-245992.0	-2476.0	-10681.0
28	18	15	45	187	101.0	-247932.0	-2426.0	-9992.0
28	18	15	45	188	102.0	-249293.0	-2441.0	-9827.0
28	18	15	45	189	103.0	-248986.0	-2425.0	-8717.0
28	18	15	45	189	104.0	-247053.0	-2379.0	-8088.0
28	18	15	45	222	105.0	-243763.0	-2356.0	-8438.0
28	18	15	45	223	106.0	-238720.0	-2317.0	-8984.0
28	18	15	45	224	107.0	-230616.0	-2291.0	-9105.0
28	18	15	45	224	108.0	-221476.0	-2261.0	-9217.0
28	18	15	45	225	109.0	-212009.0	-2246.0	-9242.0
28	18	15	45	226	110.0	-202644.0	-2236.0	-8752.0
28	18	15	45	226	111.0	-193467.0	-2221.0	-7806.0
28	18	15	45	227	112.0	-184551.0	-2196.0	-7137.0
28	18	15	45	228	113.0	-175141.0	-2173.0	-6976.0
28	18	15	45	228	114.0	-165014.0	-2171.0	-6902.0
28	18	15	45	229	115.0	-152389.0	-2172.0	-7240.0
28	18	15	45	230	116.0	-132699.0	-2159.0	-7199.0
28	18	15	45	230	117.0	-97684.0	-2164.0	-7653.0
28	18	15	45	231	118.0	-52475.0	-2161.0	-7715.0
28	18	15	45	232	119.0	-35806.0	-2142.0	-7867.0
28	18	15	45	232	121.0	-77736.0	-2111.0	-7381.0
28	18	15	45	233	122.0	-97962.0	-2096.0	-7144.0
28	18	15	45	233	123.0	-112458.0	-2069.0	-7146.0
28	18	15	45	234	124.0	-118492.0	-2031.0	-7252.0
28	18	15	45	235	125.0	-121805.0	-2028.0	-7421.0
28	18	15	45	235	126.0	-129020.0	-1977.0	-7694.0
28	18	15	45	236	127.0	-138518.0	-1926.0	-7722.0
28	18	15	45	266	128.0	-147618.0	-1907.0	-7739.0
28	18	15	45	267	129.0	-157255.0	-1890.0	-8034.0
28	18	15	45	268	130.0	-168806.0	-1913.0	-7839.0
28	18	15	45	269	131.0	-182406.0	-1977.0	-7738.0
28	18	15	45	277	132.0	-197576.0	-1975.0	-7572.0
28	18	15	45	278	133.0	-213872.0	-1951.0	-7581.0
28	18	15	45	278	134.0	-229114.0	-1959.0	-7512.0
28	18	15	45	279	135.0	-242491.0	-1944.0	-7401.0
28	18	15	45	280	136.0	-254228.0	-1930.0	-7964.0
28	18	15	45	280	137.0	-264153.0	-1939.0	-8611.0
28	18	15	45	281	138.0	-272282.0	-1912.0	-8857.0
28	18	15	45	282	139.0	-279439.0	-1916.0	-8924.0
28	18	15	45	282	140.0	-285618.0	-1917.0	-9298.0
28	18	15	45	283	141.0	-290572.0	-1923.0	-8864.0
28	18	15	45	283	142.0	-293574.0	-1909.0	-8309.0
28	18	15	45	284	144.0	-291854.0	-1894.0	-7845.0
28	18	15	45	284	145.0	-288972.0	-1870.0	-7353.0
28	18	15	45	285	146.0	-284998.0	-1830.0	-7643.0
28	18	15	45	286	147.0	-280947.0	-1776.0	-8111.0
28	18	15	45	286	148.0	-276361.0	-1756.0	-8362.0
28	18	15	45	287	149.0	-270948.0	-1758.0	-8733.0
28	18	15	45	312	150.0	-265166.0	-1718.0	-8684.0
28	18	15	45	313	151.0	-258847.0	-1704.0	-8452.0
28	18	15	45	313	152.0	-251346.0	-1685.0	-7931.0
28	18	15	45	314	153.0	-243197.0	-1669.0	-7838.0
28	18	15	45	315	154.0	-234607.0	-1666.0	-7899.0
28	18	15	45	316	155.0	-225705.0	-1688.0	-8000.0
28	18	15	45	316	156.0	-216581.0	-1707.0	-8110.0
28	18	15	45	317	157.0	-207400.0	-1722.0	-7912.0
28	18	15	45	318	158.0	-198681.0	-1738.0	-7969.0
28	18	15	45	319	159.0	-189983.0	-1736.0	-8179.0
28	18	15	45	319	160.0	-181309.0	-1737.0	-8399.0
28	18	15	45	320	161.0	-172093.0	-1736.0	-8384.0
28	18	15	45	321	162.0	-162542.0	-1744.0	-7983.0
28	18	15	45	321	163.0	-154224.0	-1731.0	-7576.0
28	18	15	45	322	164.0	-147396.0	-1719.0	-7489.0
28	18	15	45	323	166.0	-136241.0	-1735.0	-7589.0
28	18	15	45	323	167.0	-131906.0	-1721.0	-7796.0
28	18	15	45	324	168.0	-128851.0	-1696.0	-8144.0
28	18	15	45	325	169.0	-126898.0	-1692.0	-8242.0
28	18	15	45	325	170.0	-126169.0	-1691.0	-7948.0
28	18	15	45	326	171.0	-126327.0	-1678.0	-8336.0
28	18	15	45	326	172.0	-127472.0	-1665.0	-7672.0
28	18	15	45	357	173.0	-129999.0	-1636.0	-6932.0
28	18	15	45	357	174.0	-134706.0	-1609.0	-7288.0
28	18	15	45	358	175.0	-141337.0	-1572.0	-7327.0
28	18	15	45	359	176.0	-148989.0	-1553.0	-7396.0
28	18	15	45	360	177.0	-156492.0	-1551.0	-7842.0
28	18	15	45	360	178.0	-164360.0	-1547.0	-8199.0
28	18	15	45	361	179.0	-172187.0	-1512.0	-8236.0
28	18	15	45	362	180.0	-179147.0	-1506.0	-8169.0
28	18	15	45	362	181.0	-185054.0	-1502.0	-8082.0
28	18	15	45	363	182.0	-189664.0	-1458.0	-7632.0
28	18	15	45	364	183.0	-193091.0	-1435.0	-7161.0
28	18	15	45	364	184.0	-196327.0	-1408.0	-7197.0
28	18	15	45	365	185.0	-199920.0	-1380.0	-7543.0
28	18	15	45	366	186.0	-204656.0	-1387.0	-7684.0
28	18	15	45	366	187.0	-210949.0	-1367.0	-7768.0
28	18	15	45	367	189.0	-228215.0	-1343.0	-7741.0
28	18	15	45	368	190.0	-239788.0	-1332.0	-7747.0
28	18	15	45	368	191.0	-252821.0	-1310.0	-7563.0
28	18	15	45	369	192.0	-266042.0	-1276.0	-7308.0
28	18	15	45	370	193.0	-278230.0	-1274.0	-6797.0
28	18	15	45	370	194.0	-289792.0	-1245.0	-6558.0
28	18	15	45	403	195.0	-299226.0	-1223.0	-6891.0
28	18	15	45	404	196.0	-305875.0	-1229.0	-7215.0
28	18	15	45	404	197.0	-310162.0	-1227.0	-7320.0
28	18	15	45	405	198.0	-311684.0	-1234.0	-7564.0
28	18	15	45	406	199.0	-310874.0	-1220.0	-7807.0
28	18	15	45	406	200.0	-309084.0	-1221.0	-7853.0
28	18	15	45	407	201.0	-305381.0	-1224.0	-7381.0
28	18	15	45	408	202.0	-299584.0	-1196.0	-7250.0
28	18	15	45	409	203.0	-291957.0	-1186.0	-6452.0
28	18	15	45	409	204.0	-282038.0	-1190.0	-6222.0
28	18	15	45	410	205.0	-270316.0	-1174.0	-6471.0
28	18	15	45	411	206.0	-256801.0	-1161.0	-6910.0
28	18	15	45	411	207.0	-241303.0	-1149.0	-6851.0
28	18	15	45	412	208.0	-224576.0	-1151.0	-7012.0
28	18	15	45	413	209.0	-206723.0	-1199.0	-7644.0
28	18	15	45	413	211.0	-167156.0	-1258.0	-7143.0
28	18	15	45	414	212.0	-146664.0	-1288.0	-7482.0
28	18	15	45	414	213.0	-127174.0	-1283.0	-7239.0
28	18	15	45	415	214.0	-109737.0	-1302.0	-7036.0
28	18	15	45	416	215.0	-95007.0	-1307.0	-7086.0
28	18	15	45	416	216.0	-83242.0	-1311.0	-7106.0
28	18	15	45	448	217.0	-74926.0	-1319.0	-6367.0
28	18	15	45	449	218.0	-70398.0	-1324.0	-6212.0
28	18	15	45	449	219.0	-69516.0	-1352.0	-7153.0
28	18	15	45	450	220.0	-72789.0	-1392.0	-6755.0
28	18	15	45	451	221.0	-79363.0	-1404.0	-6252.0
28	18	15	45	452	222.0	-88700.0	-1424.0	-6204.0
28	18	15	45	452	223.0	-100905.0	-1441.0	-5864.0
28	18	15	45	453	224.0	-114391.0	-1463.0	-5972.0
28	18	15	45	454	225.0	-128293.0	-1484.0	-6162.0
28	18	15	45	454	226.0	-142263.0	-1501.0	-6396.0
28	18	15	45	455	227.0	-156489.0	-1518.0	-6564.0
28	18	15	45	456	228.0	-171201.0	-1553.0	-6880.0
28	18	15	45	456	229.0	-186947.0	-1580.0	-7069.0
28	18	15	45	457	230.0	-204511.0	-1626.0	-7163.0
28	18	15	45	457	231.0	-224024.0	-1658.0	-7388.0
28	18	15	45	458	233.0	-264921.0	-1732.0	-6664.0
28	18	15	45	459	234.0	-283966.0	-1774.0	-6952.0
28	18	15	45	459	235.0	-299857.0	-1797.0	-7124.0
28	18	15	45	492	236.0	-312811.0	-1781.0	-7397.0
28	18	15	45	493	237.0	-322494.0	-1799.0	-7814.0
28	18	15	45	494	238.0	-328463.0	-1814.0	-7784.0
28	18	15	45	494	239.0	-330321.0	-1831.0	-7996.0
28	18	15	45	495	240.0	-328301.0	-1843.0	-8141.0
28	18	15	45	496	241.0	-322974.0	-1835.0	-7847.0
28	18	15	45	497	242.0	-314924.0	-1838.0	-7248.0
28	18	15	45	497	243.0	-304512.0	-1842.0	-7284.0
28	18	15	45	499	244.0	-292319.0	-1833.0	-7299.0
28	18	15	45	499	245.0	-278657.0	-1842.0	-6918.0
28	18	15	45	500	246.0	-263617.0	-1838.0	-7220.0
28	18	15	45	501	247.0	-248483.0	-1838.0	-7380.0
28	18	15	45	502	248.0	-233583.0	-1847.0	-7343.0
28	18	15	45	503	249.0	-218861.0	-1831.0	-7898.0
28	18	15	45	504	250.0	-205609.0	-1830.0	-8184.0
28	18	15	45	504	0.0	-147181.0	-1779.0	-6174.0
28	18	15	45	505	1.0	-140907.0	-1785.0	-6624.0
28	18	15	45	506	2.0	-136721.0	-1799.0	-6848.0
28	18	15	45	506	3.0	-134776.0	-1796.0	-7281.0
28	18	15	45	507	4.0	-133987.0	-1798.0	-7361.0
28	18	15	45	507	5.0	-134085.0	-1807.0	-7141.0
28	18	15	45	537	6.0	-134391.0	-1806.0	-7382.0
28	18	15	45	538	7.0	-135034.0	-1815.0	-7234.0
28	18	15	45	539	8.0	-135801.0	-1807.0	-6969.0
28	18	15	45	540	9.0	-136542.0	-1812.0	-7106.0
28	18	15	45	541	10.0	-137109.0	-1834.0	-7042.0
28	18	15	45	541	11.0	-138034.0	-1838.0	-6791.0
28	18	15	45	542	12.0	-139309.0	-1864.0	-6649.0
28	18	15	45	543	13.0	-141717.0	-1894.0	-7513.0
28	18	15	45	544	14.0	-145044.0	-1880.0	-7509.0
28	18	15	45	544	15.0	-149027.0	-1871.0	-7512.0
28	18	15	45	545	16.0	-154091.0	-1877.0	-6869.0
28	18	15	45	546	17.0	-161021.0	-1884.0	-6326.0
28	18	15	45	546	18.0	-170572.0	-1882.0	-6411.0
28	18	15	45	547	19.0	-182411.0	-1879.0	-6779.0
28	18	15	45	548	20.0	-195876.0	-1873.0	-6882.0
28	18	15	45	548	22.0	-222436.0	-1869.0	-8093.0
28	18	15	45	549	23.0	-233988.0	-1869.0	-7823.0
28	18	15	45	550	24.0	-243667.0	-1847.0	-7619.0
28	18	15	45	550	25.0	-250451.0	-1817.0	-7773.0
28	18	15	45	551	26.0	-254323.0	-1809.0	-7477.0
28	18	15	45	552	27.0	-256086.0	-1796.0	-7131.0
28	18	15	45	552	28.0	-255849.0	-1789.0	-7523.0
28	18	15	45	582	29.0	-253949.0	-1786.0	-7354.0
28	18	15	45	583	30.0	-251086.0	-1796.0	-7209.0
28	18	15	45	584	31.0	-247185.0	-1790.0	-7929.0
28	18	15	45	585	32.0	-242984.0	-1795.0	-8613.0
28	18	15	45	586	33.0	-238430.0	-1804.0	-8559.0
28	18	15	45	586	34.0	-233179.0	-1812.0	-7988.0
28	18	15	45	587	35.0	-226690.0	-1844.0	-8110.0
28	18	15	45	588	36.0	-219376.0	-1899.0	-7484.0
28	18	15	45	589	37.0	-211385.0	-1906.0	-6575.0
28	18	15	45	589	38.0	-202766.0	-1896.0	-6602.0
28	18	15	45	590	39.0	-193267.0	-1904.0	-6947.0
28	18	15	45	591	40.0	-182876.0	-1923.0	-6967.0
28	18	15	45	592	41.0	-171921.0	-1941.0	-7436.0
28	18	15	45	592	42.0	-160593.0	-1934.0	-8142.0
28	18	15	45	593	43.0	-150043.0	-1941.0	-8521.0
28	18	15	45	594	45.0	-132566.0	-1916.0	-8334.0
28	18	15	45	594	46.0	-126517.0	-1914.0	-7514.0
28	18	15	45	595	47.0	-123164.0	-1859.0	-7097.0
28	18	15	45	596	48.0	-123207.0	-1836.0	-6666.0
28	18	15	45	596	49.0	-126759.0	-1816.0	-6589.0
28	18	15	45	597	50.0	-133076.0	-1788.0	-6763.0
28	18	15	45	597	51.0	-141441.0	-1781.0	-7561.0
28	18	15	45	628	52.0	-151875.0	-1782.0	-7993.0
28	18	15	45	628	53.0	-163901.0	-1767.0	-8425.0
28	18	15	45	629	54.0	-177273.0	-1773.0	-8577.0
28	18	15	45	630	55.0	-191133.0	-1786.0	-8370.0
28	18	15	45	631	56.0	-206021.0	-1807.0	-7607.0
28	18	15	45	632	57.0	-221342.0	-1829.0	-6584.0
28	18	15	45	632	58.0	-235996.0	-1813.0	-5714.0
28	18	15	45	633	59.0	-248922.0	-1844.0	-5786.0
28	18	15	45	634	60.0	-259631.0	-1879.0	-6239.0
28	18	15	45	634	61.0	-268260.0	-1883.0	-6206.0
28	18	15	45	635	62.0	-275481.0	-1913.0	-6771.0
28	18	15	45	636	63.0	-281386.0	-1943.0	-7147.0
28	18	15	45	637	64.0	-286354.0	-1967.0	-6878.0
28	18	15	45	637	65.0	-290270.0	-1972.0	-6575.0
28	18	15	45	638	66.0	-291834.0	-1960.0	-6827.0
28	18	15	45	639	67.0	-290832.0	-1976.0	-6518.0
28	18	15	45	639	68.0	-287864.0	-1986.0	-6558.0
28	18	15	45	640	69.0	-282991.0	-1976.0	-6984.0
28	18	15	45	641	70.0	-276259.0	-1947.0	-6831.0
28	18	15	45	641	71.0	-267665.0	-1947.0	-6872.0
28	18	15	45	642	72.0	-257084.0	-1945.0	-7271.0
28	18	15	45	642	73.0	-244974.0	-1954.0	-7577.0
28	18	15	45	672	74.0	-232438.0	-1955.0	-7621.0
28	18	15	45	673	75.0	-219867.0	-1961.0	-7316.0
28	18	15	45	673	76.0	-207424.0	-1941.0	-7049.0
28	18	15	45	674	77.0	-195465.0	-1952.0	-6978.0
28	18	15	45	675	78.0	-183889.0	-1967.0	-6527.0
28	18	15	45	676	79.0	-172852.0	-1957.0	-6684.0
28	18	15	45	676	80.0	-163415.0	-1953.0	-7069.0
28	18	15	45	677	81.0	-156032.0	-1951.0	-7559.0
28	18	15	45	678	82.0	-151249.0	-1951.0	-7859.0
28	18	15	45	679	83.0	-149517.0	-1976.0	-8204.0
28	18	15	45	679	84.0	-150849.0	-1982.0	-7801.0
28	18	15	45	680	85.0	-154259.0	-1972.0	-7747.0
28	18	15	45	681	86.0	-159704.0	-1968.0	-7640.0
28	18	15	45	682	87.0	-167047.0	-1977.0	-7756.0
28	18	15	45	683	88.0	-175481.0	-1983.0	-8868.0
28	18	15	45	683	90.0	-194023.0	-1948.0	-11409.0
28	18	15	45	684	91.0	-203817.0	-1970.0	-11745.0
28	18	15	45	684	92.0	-214514.0	-1984.0	-11550.0
28	18	15	45	685	93.0	-225194.0	-1981.0	-11031.0
28	18	15	45	686	94.0	-235874.0	-1969.0	-10482.0
28	18	15	45	686	95.0	-247008.0	-1957.0	-9723.0
28	18	15	45	717	96.0	-258451.0	-1941.0	-8268.0
28	18	15	45	718	97.0	-269479.0	-1920.0	-6636.0
28	18	15	45	719	98.0	-278204.0	-1907.0	-6282.0
28	18	15	45	720	99.0	-283269.0	-1915.0	-5387.0
28	18	15	45	721	100.0	-282974.0	-1912.0	-1241.0
28	18	15	45	721	101.0	-277373.0	-1925.0	3291.0
28	18	15	45	722	102.0	-265582.0	-1932.0	8527.0
28	18	15	45	723	103.0	-247662.0	-1934.0	10913.0
28	18	15	45	724	104.0	-223444.0	-1954.0	10063.0
28	18	15	45	724	105.0	-194161.0	-1977.0	9108.0
28	18	15	45	725	106.0	-160427.0	-1981.0	6951.0
28	18	15	45	726	107.0	-123661.0	-1987.0	3148.0
28	18	15	45	726	108.0	-86446.0	-1985.0	1815.0
28	18	15	45	727	109.0	-51092.0	-1982.0	460.0
28	18	15	45	728	110.0	-19779.0	-1985.0	-3604.0
28	18	15	45	728	112.0	23014.0	-2007.0	-4153.0
28	18	15	45	729	113.0	32373.0	-1980.0	-1775.0
28	18	15	45	730	114.0	35686.0	-1952.0	-1202.0
28	18	15	45	730	115.0	34300.0	-1940.0	-1681.0
28	18	15	45	731	116.0	28402.0	-1948.0	-3054.0
28	18	15	45	732	117.0	16926.0	-1990.0	-4086.0
28	18	15	45	732	118.0	-1050.0	-1971.0	-4976.0
28	18	15	45	763	119.0	-23249.0	-1942.0	-6013.0
28	18	15	45	764	120.0	-48729.0	-1924.0	-7302.0
28	18	15	45	764	121.0	-72694.0	-1929.0	-8267.0
28	18	15	45	765	122.0	-85894.0	-1957.0	-9182.0
28	18	15	45	766	123.0	-87757.0	-1949.0	-10119.0
28	18	15	45	767	124.0	-89191.0	-1948.0	-10489.0
28	18	15	45	768	125.0	-101063.0	-1967.0	-10897.0
28	18	15	45	768	126.0	-130882.0	-1967.0	-11099.0
28	18	15	45	769	127.0	-184648.0	-1967.0	-11011.0
28	18	15	45	770	128.0	-253558.0	-1955.0	-11473.0
28	18	15	45	770	129.0	-322821.0	-1968.0	-11739.0
28	18	15	45	771	130.0	-379214.0	-1967.0	-11971.0
28	18	15	45	772	131.0	-420940.0	-1958.0	-12390.0
28	18	15	45	772	132.0	-454811.0	-1971.0	-12977.0
28	18	15	45	773	133.0	-486420.0	-1985.0	-12784.0
28	18	15	45	774	135.0	-529921.0	-2008.0	-12447.0
28	18	15	45	774	136.0	-535119.0	-2012.0	-12137.0
28	18	15	45	775	137.0	-528596.0	-2007.0	-11809.0
28	18	15	45	776	138.0	-501657.0	-2026.0	-12207.0
28	18	15	45	776	139.0	-463264.0	-2002.0	-12774.0
28	18	15	45	777	140.0	-421159.0	-1978.0	-12662.0
28	18	15	45	807	141.0	-378945.0	-2001.0	-12884.0
28	18	15	45	808	142.0	-340372.0	-2014.0	-13099.0
28	18	15	45	809	143.0	-303921.0	-2041.0	-12922.0
28	18	15	45	810	144.0	-268751.0	-2074.0	-12674.0
28	18	15	45	811	145.0	-234790.0	-2091.0	-12487.0
28	18	15	45	811	146.0	-202927.0	-2121.0	-11870.0
28	18	15	45	853	147.0	-171474.0	-2123.0	-11250.0
28	18	15	45	853	148.0	-137197.0	-2132.0	-11351.0
28	18	15	45	854	149.0	-101799.0	-2172.0	-11337.0
28	18	15	45	855	150.0	-66154.0	-2187.0	-11089.0
28	18	15	45	856	151.0	-32757.0	-2224.0	-11711.0
28	18	15	45	857	152.0	-4441.0	-2238.0	-11896.0
28	18	15	45	857	153.0	16941.0	-2255.0	-12087.0
28	18	15	45	858	154.0	31068.0	-2294.0	-12397.0
28	18	15	45	859	155.0	38504.0	-2309.0	-12313.0
28	18	15	45	859	157.0	34816.0	-2318.0	-11595.0
28	18	15	45	860	158.0	23465.0	-2312.0	-11441.0
28	18	15	45	861	159.0	4996.0	-2284.0	-11346.0
28	18	15	45	861	160.0	-19174.0	-2266.0	-11737.0
28	18	15	45	862	161.0	-47801.0	-2268.0	-12605.0
28	18	15	45	863	162.0	-80826.0	-2250.0	-13264.0
28	18	15	45	863	163.0	-116092.0	-2240.0	-13659.0
28	18	15	45	864	180.0	-394809.0	-2215.0	-14272.0
28	18	15	45	865	181.0	-372932.0	-2198.0	-14392.0
28	18	15	45	865	182.0	-346561.0	-2193.0	-15109.0
28	18	15	45	866	183.0	-316537.0	-2170.0	-15614.0
28	18	15	45	866	184.0	-283270.0	-2182.0	-15424.0
28	18	15	45	867	185.0	-247701.0	-2159.0	-15776.0
28	18	15	45	897	186.0	-210773.0	-2147.0	-15799.0
28	18	15	45	898	187.0	-173537.0	-2137.0	-15370.0
28	18	15	45	899	188.0	-136829.0	-2133.0	-15275.0
28	18	15	45	900	189.0	-101684.0	-2134.0	-15626.0
28	18	15	45	901	190.0	-69609.0	-2152.0	-15677.0
28	18	15	45	901	191.0	-40847.0	-2166.0	-15504.0
28	18	15	45	902	192.0	-17462.0	-2191.0	-16216.0
28	18	15	45	903	193.0	-77.0	-2228.0	-16386.0
28	18	15	45	904	194.0	11339.0	-2247.0	-15967.0
28	18	15	45	904	195.0	14779.0	-2244.0	-15713.0
28	18	15	45	905	196.0	10978.0	-2226.0	-15591.0
28	18	15	45	906	197.0	142.0	-2200.0	-15700.0
28	18	15	45	906	198.0	-18169.0	-2178.0	-16052.0
28	18	15	45	907	199.0	-42182.0	-2163.0	-16258.0
28	18	15	45	908	200.0	-70367.0	-2147.0	-16432.0
28	18	15	45	908	202.0	-137282.0	-2112.0	-16856.0
28	18	15	45	909	203.0	-173971.0	-2093.0	-17009.0
28	18	15	45	910	204.0	-212040.0	-2065.0	-17249.0
28	18	15	45	910	205.0	-250893.0	-2036.0	-17257.0
28	18	15	45	911	206.0	-288621.0	-2031.0	-16137.0
28	18	15	45	911	207.0	-324551.0	-2023.0	-15551.0
28	18	15	45	943	208.0	-356992.0	-1995.0	-15960.0
28	18	15	45	944	209.0	-384447.0	-1964.0	-16082.0
28	18	15	45	945	210.0	-406533.0	-1941.0	-16377.0
28	18	15	45	946	211.0	-422360.0	-1916.0	-16978.0
28	18	15	45	987	212.0	-431900.0	-1917.0	-17274.0
28	18	15	45	988	213.0	-435492.0	-1891.0	-17587.0
28	18	15	45	989	214.0	-433614.0	-1857.0	-17484.0
28	18	15	45	989	215.0	-426056.0	-1834.0	-16909.0
28	18	15	45	990	216.0	-412719.0	-1793.0	-16387.0
28	18	15	45	991	217.0	-394881.0	-1782.0	-16527.0
28	18	15	45	992	218.0	-372384.0	-1771.0	-16252.0
28	18	15	45	992	219.0	-346732.0	-1719.0	-16124.0
28	18	15	45	993	220.0	-318236.0	-1687.0	-16058.0
28	18	15	45	994	221.0	-287743.0	-1671.0	-16524.0
28	18	15	45	995	222.0	-257529.0	-1647.0	-16345.0
28	18	15	45	995	224.0	-198146.0	-1618.0	-16427.0
28	18	15	45	996	225.0	-171249.0	-1599.0	-15921.0
28	18	15	45	997	226.0	-146519.0	-1549.0	-15221.0
28	18	15	45	997	227.0	-123474.0	-1512.0	-14721.0
28	18	15	45	998	228.0	-101855.0	-1498.0	-14626.0
28	18	15	45	999	247.0	-65908.0	-1213.0	-10624.0
28	18	15	45	999	248.0	-83897.0	-1220.0	-10814.0
28	18	15	46	0	249.0	-104293.0	-1191.0	-10882.0
28	18	15	46	1	250.0	-125751.0	-1162.0	-10746.0
28	18	15	46	1	251.0	-147301.0	-1130.0	-11081.0
28	18	15	46	2	252.0	-167716.0	-1086.0	-11652.0
28	18	15	46	3	253.0	-186142.0	-1064.0	-11224.0
28	18	15	46	33	254.0	-202692.0	-1062.0	-10817.0
28	18	15	46	34	255.0	-216213.0	-1049.0	-10747.0
28	18	15	46	35	0.0	-227185.0	-1013.0	-10531.0
28	18	15	46	35	1.0	-234516.0	-1002.0	-10023.0
28	18	15	46	36	2.0	-232783.0	-961.0	-10181.0
28	18	15	46	37	3.0	-214244.0	-931.0	-10433.0
28	18	15	46	37	4.0	-196926.0	-919.0	-10335.0
28	18	15	46	38	5.0	-209471.0	-922.0	-10455.0
28	18	15	46	39	6.0	-241427.0	-902.0	-11009.0
28	18	15	46	40	7.0	-273198.0	-903.0	-11324.0
28	18	15	46	40	8.0	-300537.0	-896.0	-11405.0
28	18	15	46	41	9.0	-321360.0	-886.0	-11261.0
28	18	15	46	41	10.0	-331551.0	-881.0	-10956.0
28	18	15	46	42	11.0	-337369.0	-864.0	-10367.0
28	18	15	46	78	12.0	-340130.0	-854.0	-10440.0
28	18	15	46	79	13.0	-338546.0	-850.0	-10472.0
28	18	15	46	80	14.0	-331868.0	-850.0	-10232.0
28	18	15	46	81	15.0	-322694.0	-848.0	-10961.0
28	18	15	46	81	16.0	-312215.0	-836.0	-11549.0
28	18	15	46	82	17.0	-300767.0	-814.0	-12147.0
28	18	15	46	83	18.0	-288541.0	-834.0	-11766.0
28	18	15	46	83	19.0	-275296.0	-837.0	-11291.0
28	18	15	46	84	20.0	-260878.0	-840.0	-11095.0
28	18	15	46	168	21.0	-246461.0	-842.0	-11085.0
28	18	15	46	169	22.0	-231957.0	-852.0	-10754.0
28	18	15	46	170	23.0	-217490.0	-848.0	-10939.0
28	18	15	46	171	24.0	-203084.0	-849.0	-10939.0
28	18	15	46	171	25.0	-190282.0	-847.0	-10942.0
28	18	15	46	172	26.0	-179889.0	-804.0	-11021.0
28	18	15	46	173	27.0	-171226.0	-804.0	-11271.0
28	18	15	46	174	36.0	-103336.0	-947.0	-10103.0
28	18	15	46	174	37.0	-97066.0	-966.0	-10697.0
28	18	15	46	175	38.0	-93404.0	-958.0	-10622.0
28	18	15	46	176	39.0	-92634.0	-969.0	-10236.0
28	18	15	46	177	40.0	-95462.0	-962.0	-10179.0
28	18	15	46	177	41.0	-100537.0	-965.0	-9722.0
28	18	15	46	178	42.0	-108441.0	-989.0	-9096.0
28	18	15	46	179	43.0	-119143.0	-996.0	-9336.0
28	18	15	46	179	44.0	-131594.0	-1012.0	-9795.0
28	18	15	46	180	81.0	-146432.0	-1332.0	-8505.0
28	18	15	46	180	82.0	-129906.0	-1327.0	-8382.0
28	18	15	46	181	83.0	-113496.0	-1315.0	-8356.0
28	18	15	46	182	84.0	-98233.0	-1283.0	-8358.0
28	18	15	46	182	85.0	-85695.0	-1244.0	-8249.0
28	18	15	46	183	86.0	-76214.0	-1213.0	-8461.0
28	18	15	46	212	87.0	-70422.0	-1176.0	-9046.0
28	18	15	46	213	88.0	-68674.0	-1171.0	-8997.0
28	18	15	46	214	89.0	-70426.0	-1191.0	-8751.0
28	18	15	46	215	90.0	-75552.0	-1218.0	-8290.0
28	18	15	46	215	91.0	-83366.0	-1209.0	-7991.0
28	18	15	46	216	92.0	-92664.0	-1209.0	-8167.0
28	18	15	46	217	93.0	-103219.0	-1202.0	-8659.0
28	18	15	46	218	94.0	-113772.0	-1201.0	-8697.0
28	18	15	46	218	95.0	-123551.0	-1181.0	-8419.0
28	18	15	46	219	96.0	-133019.0	-1172.0	-8611.0
28	18	15	46	220	97.0	-141884.0	-1179.0	-8752.0
28	18	15	46	221	98.0	-149669.0	-1184.0	-8615.0
28	18	15	46	221	99.0	-156621.0	-1203.0	-8641.0
28	18	15	46	222	100.0	-162811.0	-1247.0	-8819.0
28	18	15	46	222	101.0	-170025.0	-1257.0	-8439.0
28	18	15	46	223	103.0	-185246.0	-1257.0	-8526.0
28	18	15	46	224	104.0	-193471.0	-1262.0	-7972.0
28	18	15	46	224	105.0	-201949.0	-1229.0	-7976.0
28	18	15	46	225	106.0	-211214.0	-1203.0	-8277.0
28	18	15	46	225	107.0	-220601.0	-1204.0	-8481.0
28	18	15	46	226	108.0	-230281.0	-1171.0	-7946.0
28	18	15	46	258	109.0	-238047.0	-1146.0	-7794.0
28	18	15	46	259	110.0	-242196.0	-1116.0	-7539.0
28	18	15	46	260	111.0	-244017.0	-1080.0	-7251.0
28	18	15	46	261	112.0	-242757.0	-1063.0	-7426.0
28	18	15	46	261	113.0	-238642.0	-1039.0	-7868.0
28	18	15	46	262	114.0	-232103.0	-1038.0	-7679.0
28	18	15	46	263	115.0	-224198.0	-1055.0	-7827.0
28	18	15	46	264	116.0	-215624.0	-1057.0	-8026.0
28	18	15	46	264	117.0	-208220.0	-1039.0	-8164.0
28	18	15	46	265	118.0	-203280.0	-1002.0	-8166.0
28	18	15	46	266	119.0	-200489.0	-999.0	-8432.0
28	18	15	46	266	120.0	-199624.0	-983.0	-7892.0
28	18	15	46	267	121.0	-200952.0	-968.0	-7069.0
28	18	15	46	268	122.0	-206367.0	-984.0	-7222.0
28	18	15	46	268	123.0	-214846.0	-1029.0	-7278.0
28	18	15	46	269	125.0	-238640.0	-1035.0	-7786.0
28	18	15	46	270	126.0	-252587.0	-1034.0	-7992.0
28	18	15	46	270	127.0	-266305.0	-1025.0	-8472.0
28	18	15	46	271	128.0	-278846.0	-999.0	-8577.0
28	18	15	46	271	129.0	-289026.0	-992.0	-8149.0
28	18	15	46	272	130.0	-296064.0	-961.0	-7897.0
28	18	15	46	273	131.0	-298542.0	-959.0	-7663.0
28	18	15	46	302	132.0	-297190.0	-958.0	-7507.0
28	18	15	46	303	133.0	-292726.0	-962.0	-7915.0
28	18	15	46	304	134.0	-285542.0	-963.0	-8157.0
28	18	15	46	305	135.0	-277088.0	-959.0	-8268.0
28	18	15	46	305	136.0	-267962.0	-974.0	-8340.0
28	18	15	46	306	137.0	-257968.0	-981.0	-8727.0
28	18	15	46	307	138.0	-247058.0	-977.0	-8786.0
28	18	15	46	308	139.0	-235384.0	-963.0	-8039.0
28	18	15	46	308	140.0	-223211.0	-961.0	-7976.0
28	18	15	46	309	141.0	-210112.0	-952.0	-7452.0
28	18	15	46	310	142.0	-196249.0	-969.0	-7064.0
28	18	15	46	310	143.0	-182143.0	-996.0	-7503.0
28	18	15	46	311	144.0	-166572.0	-1012.0	-7554.0
28	18	15	46	312	145.0	-149794.0	-1011.0	-7440.0
28	18	15	46	313	146.0	-132906.0	-1011.0	-7541.0
28	18	15	46	313	148.0	-104406.0	-1011.0	-8139.0
28	18	15	46	314	149.0	-94717.0	-1016.0	-8059.0
28	18	15	46	315	150.0	-88996.0	-986.0	-7881.0
28	18	15	46	315	151.0	-87727.0	-942.0	-7081.0
28	18	15	46	316	152.0	-91267.0	-944.0	-6569.0
28	18	15	46	316	153.0	-98461.0	-944.0	-6776.0
28	18	15	46	317	154.0	-108746.0	-922.0	-6265.0
28	18	15	46	347	155.0	-121293.0	-904.0	-6629.0
28	18	15	46	348	156.0	-135277.0	-897.0	-7349.0
28	18	15	46	349	157.0	-149756.0	-895.0	-7601.0
28	18	15	46	350	158.0	-164471.0	-883.0	-7541.0
28	18	15	46	351	159.0	-178824.0	-875.0	-7704.0
28	18	15	46	351	160.0	-191591.0	-880.0	-7394.0
28	18	15	46	352	161.0	-201981.0	-868.0	-6862.0
28	18	15	46	353	162.0	-210137.0	-833.0	-6902.0
28	18	15	46	354	163.0	-215882.0	-839.0	-7379.0
28	18	15	46	354	164.0	-220607.0	-861.0	-7363.0
28	18	15	46	355	165.0	-224802.0	-865.0	-7392.0
28	18	15	46	356	166.0	-229518.0	-834.0	-7755.0
28	18	15	46	356	167.0	-235882.0	-822.0	-7884.0
28	18	15	46	357	168.0	-243379.0	-831.0	-8309.0
28	18	15	46	358	169.0	-251757.0	-834.0	-8290.0
28	18	15	46	358	170.0	-260227.0	-830.0	-7964.0
28	18	15	46	359	171.0	-269418.0	-819.0	-7756.0
28	18	15	46	360	172.0	-279182.0	-811.0	-7921.0
28	18	15	46	360	173.0	-289086.0	-783.0	-7756.0
28	18	15	46	361	174.0	-298343.0	-747.0	-7861.0
28	18	15	46	392	175.0	-305961.0	-744.0	-8294.0
28	18	15	46	392	176.0	-311084.0	-739.0	-8162.0
28	18	15	46	437	177.0	-313282.0	-746.0	-7993.0
28	18	15	46	438	178.0	-312034.0	-733.0	-7812.0
28	18	15	46	439	179.0	-306744.0	-718.0	-7969.0
28	18	15	46	439	180.0	-297238.0	-708.0	-7559.0
28	18	15	46	440	181.0	-283913.0	-704.0	-7390.0
28	18	15	46	440	182.0	-268356.0	-711.0	-7374.0
28	18	15	46	441	183.0	-251237.0	-706.0	-7599.0
28	18	15	46	441	184.0	-232544.0	-717.0	-7984.0
28	18	15	46	442	185.0	-212603.0	-744.0	-8264.0
28	18	15	46	443	186.0	-192966.0	-748.0	-8157.0
28	18	15	46	443	187.0	-173247.0	-741.0	-8079.0
28	18	15	46	444	188.0	-154153.0	-726.0	-8286.0
28	18	15	46	444	189.0	-135819.0	-719.0	-8109.0
28	18	15	46	445	190.0	-118282.0	-724.0	-7619.0
28	18	15	46	446	193.0	-71177.0	-689.0	-7510.0
28	18	15	46	446	194.0	-57972.0	-697.0	-7577.0
28	18	15	46	447	215.0	-364796.0	-887.0	-6739.0
28	18	15	46	447	216.0	-375525.0	-922.0	-7003.0
28	18	15	46	448	217.0	-383384.0	-925.0	-7002.0
28	18	15	46	448	218.0	-387960.0	-955.0	-6661.0
28	18	15	46	449	219.0	-388657.0	-971.0	-6487.0
28	18	15	46	450	220.0	-384815.0	-961.0	-6157.0
28	18	15	46	450	221.0	-375964.0	-956.0	-5526.0
28	18	15	46	482	222.0	-362241.0	-950.0	-5885.0
28	18	15	46	482	223.0	-344301.0	-955.0	-6159.0
28	18	15	46	483	224.0	-321816.0	-966.0	-6197.0
28	18	15	46	527	225.0	-295852.0	-997.0	-6224.0
28	18	15	46	527	226.0	-267440.0	-1023.0	-6765.0
28	18	15	46	528	227.0	-237841.0	-1031.0	-6778.0
28	18	15	46	529	228.0	-208686.0	-1037.0	-7168.0
28	18	15	46	529	229.0	-180754.0	-1051.0	-7868.0
28	18	15	46	530	230.0	-155335.0	-1064.0	-8432.0
28	18	15	46	531	231.0	-132984.0	-1083.0	-8235.0
28	18	15	46	531	232.0	-115513.0	-1112.0	-8162.0
28	18	15	46	532	233.0	-103696.0	-1133.0	-8347.0
28	18	15	46	532	234.0	-97041.0	-1145.0	-7732.0
28	18	15	46	533	235.0	-96094.0	-1149.0	-7442.0
28	18	15	46	533	236.0	-99256.0	-1188.0	-7296.0
28	18	15	46	534	238.0	-116461.0	-1226.0	-6580.0
28	18	15	46	535	239.0	-127251.0	-1295.0	-5062.0
28	18	15	46	535	240.0	-138752.0	-1300.0	-3694.0
28	18	15	46	536	241.0	-149356.0	-1297.0	605.0
28	18	15	46	536	4.0	-283144.0	-1368.0	-2202.0
28	18	15	46	537	5.0	-278109.0	-1390.0	-2306.0
28	18	15	46	538	6.0	-267587.0	-1367.0	-2957.0
28	18	15	46	538	7.0	-245278.0	-1364.0	-4388.0
28	18	15	46	539	8.0	-206914.0	-1392.0	-5136.0
28	18	15	46	539	9.0	-156175.0	-1399.0	-5302.0
28	18	15	46	540	10.0	-110449.0	-1400.0	-5502.0
28	18	15	46	572	11.0	-80282.0	-1393.0	-6284.0
28	18	15	46	572	12.0	-75122.0	-1400.0	-6597.0
28	18	15	46	573	13.0	-96676.0	-1404.0	-6039.0
28	18	15	46	574	14.0	-133612.0	-1438.0	-5648.0
28	18	15	46	575	15.0	-169699.0	-1449.0	-4817.0
28	18	15	46	575	16.0	-196051.0	-1493.0	-4286.0
28	18	15	46	576	17.0	-215758.0	-1531.0	-4749.0
28	18	15	46	577	18.0	-234892.0	-1545.0	-5127.0
28	18	15	46	577	19.0	-256699.0	-1576.0	-5789.0
28	18	15	46	578	20.0	-279551.0	-1608.0	-6138.0
28	18	15	46	578	21.0	-296933.0	-1607.0	-5964.0
28	18	15	46	579	22.0	-301682.0	-1622.0	-5904.0
28	18	15	46	580	23.0	-295435.0	-1634.0	-5439.0
28	18	15	46	580	24.0	-285545.0	-1635.0	-4214.0
28	18	15	46	581	25.0	-268732.0	-1662.0	-3444.0
28	18	15	46	581	26.0	-248646.0	-1657.0	-3633.0
28	18	15	46	582	27.0	-233182.0	-1665.0	-3756.0
28	18	15	46	582	28.0	-216412.0	-1657.0	-3872.0
28	18	15	46	583	29.0	-201375.0	-1681.0	-4349.0
28	18	15	46	584	30.0	-190514.0	-1694.0	-4592.0
28	18	15	46	584	31.0	-182785.0	-1729.0	-4601.0
28	18	15	46	585	32.0	-177641.0	-1746.0	-4826.0
28	18	15	46	617	33.0	-173485.0	-1762.0	-5064.0
28	18	15	46	618	34.0	-165977.0	-1787.0	-3891.0
28	18	15	46	618	35.0	-152232.0	-1805.0	-3364.0
28	18	15	46	619	36.0	-136310.0	-1821.0	-3365.0
28	18	15	46	620	37.0	-120434.0	-1829.0	-3169.0
28	18	15	46	620	38.0	-106111.0	-1883.0	-3367.0
28	18	15	46	621	39.0	-95026.0	-1891.0	-3284.0
28	18	15	46	621	40.0	-85664.0	-1923.0	-3111.0
28	18	15	46	622	41.0	-77660.0	-1957.0	-3598.0
28	18	15	46	623	42.0	-71271.0	-1984.0	-3739.0
28	18	15	46	623	43.0	-67767.0	-2013.0	-3597.0
28	18	15	46	624	44.0	-67934.0	-2029.0	-3204.0
28	18	15	46	625	45.0	-72551.0	-2036.0	-3237.0
28	18	15	46	625	46.0	-81597.0	-2057.0	-3395.0
28	18	15	46	626	47.0	-94294.0	-2073.0	-3556.0
28	18	15	46	626	49.0	-126840.0	-2102.0	-3859.0
28	18	15	46	635	50.0	-145719.0	-2170.0	-3819.0
28	18	15	46	635	51.0	-167339.0	-2182.0	-4119.0
28	18	15	46	636	52.0	-191523.0	-2175.0	-4221.0
28	18	15	46	637	53.0	-216148.0	-2174.0	-4076.0
28	18	15	46	637	54.0	-242495.0	-2152.0	-3722.0
28	18	15	46	661	55.0	-267902.0	-2144.0	-3452.0
28	18	15	46	662	56.0	-291754.0	-2134.0	-3657.0
28	18	15	46	662	57.0	-313726.0	-2131.0	-3824.0
28	18	15	46	663	58.0	-332319.0	-2136.0	-4126.0
28	18	15	46	664	59.0	-346608.0	-2141.0	-4201.0
28	18	15	46	664	60.0	-356064.0	-2157.0	-4566.0
28	18	15	46	665	61.0	-359779.0	-2188.0	-4665.0
28	18	15	46	665	62.0	-359357.0	-2197.0	-4456.0
28	18	15	46	666	63.0	-355347.0	-2223.0	-4434.0
28	18	15	46	667	64.0	-346988.0	-2234.0	-4462.0
28	18	15	46	667	65.0	-335215.0	-2237.0	-3554.0
28	18	15	46	668	66.0	-320563.0	-2263.0	-3414.0
28	18	15	46	669	67.0	-303061.0	-2277.0	-3705.0
28	18	15	46	669	68.0	-282081.0	-2294.0	-3209.0
28	18	15	46	670	69.0	-258947.0	-2307.0	-3069.0
28	18	15	46	671	71.0	-207894.0	-2337.0	-4432.0
28	18	15	46	671	72.0	-182269.0	-2347.0	-4428.0
28	18	15	46	672	73.0	-157449.0	-2333.0	-4717.0
28	18	15	46	673	74.0	-134917.0	-2334.0	-4729.0
28	18	15	46	673	75.0	-113764.0	-2333.0	-4632.0
28	18	15	46	674	76.0	-95304.0	-2320.0	-4757.0
28	18	15	46	675	77.0	-81036.0	-2278.0	-5257.0
28	18	15	46	707	78.0	-69420.0	-2271.0	-5454.0
28	18	15	46	710	79.0	-60739.0	-2275.0	-5569.0
28	18	15	46	711	80.0	-55999.0	-2281.0	-6309.0
28	18	15	46	712	81.0	-54701.0	-2279.0	-6652.0
28	18	15	46	712	82.0	-57869.0	-2289.0	-6496.0
28	18	15	46	713	83.0	-64576.0	-2309.0	-6371.0
28	18	15	46	713	84.0	-74350.0	-2329.0	-5571.0
28	18	15	46	714	85.0	-87021.0	-2348.0	-4926.0
28	18	15	46	715	86.0	-103614.0	-2371.0	-5171.0
28	18	15	46	715	87.0	-124469.0	-2366.0	-5222.0
28	18	15	46	716	88.0	-148409.0	-2379.0	-4934.0
28	18	15	46	717	89.0	-174551.0	-2382.0	-4896.0
28	18	15	46	752	90.0	-203053.0	-2372.0	-5471.0
28	18	15	46	753	91.0	-231202.0	-2384.0	-5685.0
28	18	15	46	754	92.0	-259586.0	-2416.0	-5854.0
28	18	15	46	754	94.0	-314375.0	-2473.0	-5597.0
28	18	15	46	755	95.0	-337054.0	-2476.0	-5041.0
28	18	15	46	756	96.0	-356592.0	-2460.0	-4799.0
28	18	15	46	756	97.0	-373588.0	-2431.0	-5083.0
28	18	15	46	757	98.0	-385495.0	-2439.0	-5352.0
28	18	15	46	758	99.0	-393029.0	-2437.0	-4822.0
28	18	15	46	758	100.0	-395479.0	-2436.0	-4301.0
28	18	15	46	759	101.0	-391964.0	-2461.0	-4488.0
28	18	15	46	759	102.0	-382471.0	-2474.0	-4006.0
28	18	15	46	760	103.0	-367254.0	-2491.0	-2986.0
28	18	15	46	761	104.0	-346279.0	-2494.0	-2776.0
28	18	15	46	761	105.0	-320729.0	-2486.0	-2569.0
28	18	15	46	762	116.0	-15990.0	-2392.0	1751.0
28	18	15	46	763	117.0	-8952.0	-2402.0	1978.0
28	18	15	46	763	118.0	-6265.0	-2383.0	1578.0
28	18	15	46	764	119.0	-7664.0	-2367.0	1624.0
28	18	15	46	764	120.0	-13384.0	-2355.0	1522.0
28	18	15	46	765	121.0	-22029.0	-2315.0	1280.0
28	18	15	46	766	122.0	-34393.0	-2295.0	1315.0
28	18	15	46	799	123.0	-49047.0	-2245.0	1614.0
28	18	15	46	799	124.0	-65256.0	-2231.0	1828.0
28	18	15	46	800	125.0	-82940.0	-2216.0	2488.0
28	18	15	46	801	126.0	-102762.0	-2190.0	3258.0
28	18	15	46	801	127.0	-124919.0	-2178.0	3412.0
28	18	15	46	802	128.0	-148154.0	-2147.0	3074.0
28	18	15	46	803	129.0	-171426.0	-2137.0	2938.0
28	18	15	46	803	130.0	-194738.0	-2153.0	2807.0
28	18	15	46	804	131.0	-219250.0	-2146.0	3102.0
28	18	15	46	805	132.0	-244118.0	-2118.0	3613.0
28	18	15	46	805	133.0	-268621.0	-2083.0	4120.0
28	18	15	46	806	134.0	-290614.0	-2054.0	4983.0
28	18	15	46	807	135.0	-309309.0	-2032.0	5220.0
28	18	15	46	807	136.0	-325203.0	-2016.0	4997.0
28	18	15	46	808	137.0	-335965.0	-1985.0	4993.0
28	18	15	46	808	139.0	-342929.0	-1919.0	4829.0
28	18	15	46	809	140.0	-338687.0	-1886.0	4569.0
28	18	15	46	810	141.0	-329186.0	-1860.0	4522.0
28	18	15	46	810	142.0	-314600.0	-1809.0	4371.0
28	18	15	46	811	143.0	-288814.0	-1776.0	4703.0
28	18	15	46	812	144.0	-244977.0	-1742.0	5630.0
28	18	15	46	843	145.0	-204357.0	-1712.0	6219.0
28	18	15	46	844	146.0	-197536.0	-1668.0	5931.0
28	18	15	46	844	147.0	-213397.0	-1632.0	6020.0
28	18	15	46	845	148.0	-230467.0	-1659.0	5971.0
28	18	15	46	846	149.0	-244531.0	-1686.0	5817.0
28	18	15	46	846	150.0	-252642.0	-1670.0	5806.0
28	18	15	46	847	151.0	-251944.0	-1649.0	5631.0
28	18	15	46	848	152.0	-247274.0	-1639.0	5296.0
28	18	15	46	848	153.0	-242796.0	-1614.0	5756.0
28	18	15	46	849	154.0	-236045.0	-1613.0	6457.0
28	18	15	46	849	155.0	-223207.0	-1601.0	7403.0
28	18	15	46	850	156.0	-209119.0	-1602.0	8341.0
28	18	15	46	851	157.0	-195477.0	-1574.0	8564.0
28	18	15	46	851	158.0	-182541.0	-1551.0	8259.0
28	18	15	46	852	159.0	-171091.0	-1537.0	8164.0
28	18	15	46	853	161.0	-152440.0	-1489.0	8434.0
28	18	15	46	853	162.0	-144960.0	-1484.0	8563.0
28	18	15	46	854	163.0	-140753.0	-1449.0	9103.0
28	18	15	46	854	164.0	-141106.0	-1429.0	9368.0
28	18	15	46	855	165.0	-144693.0	-1392.0	9313.0
28	18	15	46	856	166.0	-151182.0	-1361.0	9633.0
28	18	15	46	856	167.0	-160162.0	-1317.0	9569.0
28	18	15	46	887	168.0	-169760.0	-1281.0	9516.0
28	18	15	46	888	169.0	-180148.0	-1251.0	9335.0
28	18	15	46	932	170.0	-190429.0	-1244.0	9369.0
28	18	15	46	934	171.0	-198777.0	-1239.0	9869.0
28	18	15	46	935	172.0	-204814.0	-1245.0	10500.0
28	18	15	46	936	173.0	-209583.0	-1247.0	10738.0
28	18	15	46	936	174.0	-212489.0	-1228.0	10993.0
28	18	15	46	937	175.0	-214229.0	-1222.0	11597.0
28	18	15	46	938	176.0	-216136.0	-1213.0	11677.0
28	18	15	46	938	177.0	-217940.0	-1192.0	11619.0
28	18	15	46	939	178.0	-219289.0	-1151.0	11779.0
28	18	15	46	939	179.0	-219286.0	-1136.0	12290.0
28	18	15	46	940	180.0	-217609.0	-1129.0	11724.0
28	18	15	46	941	181.0	-214718.0	-1131.0	11731.0
28	18	15	46	941	182.0	-211692.0	-1130.0	12693.0
28	18	15	46	942	184.0	-204358.0	-1129.0	13948.0
28	18	15	46	943	185.0	-201797.0	-1116.0	14649.0
28	18	15	46	943	186.0	-200763.0	-1086.0	14841.0
28	18	15	46	944	206.0	-193329.0	-1011.0	23080.0
28	18	15	46	944	207.0	-185287.0	-997.0	23643.0
28	18	15	46	945	208.0	-177298.0	-976.0	24271.0
28	18	15	46	946	209.0	-169994.0	-949.0	23884.0
28	18	15	46	946	210.0	-164418.0	-933.0	24066.0
28	18	15	46	947	211.0	-160618.0	-897.0	24023.0
28	18	15	46	947	212.0	-159170.0	-881.0	23771.0
28	18	15	46	977	213.0	-160439.0	-860.0	24098.0
28	18	15	46	978	214.0	-164535.0	-827.0	24476.0
28	18	15	46	979	215.0	-171090.0	-828.0	25336.0
28	18	15	46	979	216.0	-178969.0	-818.0	26032.0
28	18	15	46	980	217.0	-187720.0	-812.0	26197.0
28	18	15	46	981	218.0	-196367.0	-806.0	26073.0
28	18	15	46	982	219.0	-203494.0	-791.0	26626.0
28	18	15	46	982	220.0	-209276.0	-781.0	27102.0
28	18	15	46	983	221.0	-214154.0	-801.0	26753.0
28	18	15	46	984	222.0	-217136.0	-792.0	26821.0
28	18	15	46	984	223.0	-218345.0	-776.0	27676.0
28	18	15	46	985	224.0	-218319.0	-772.0	28161.0
28	18	15	46	985	225.0	-216981.0	-772.0	28188.0
28	18	15	46	986	226.0	-213883.0	-756.0	28576.0
28	18	15	46	987	227.0	-209475.0	-743.0	28678.0
28	18	15	46	987	228.0	-203694.0	-737.0	28671.0
28	18	15	46	988	229.0	-197228.0	-715.0	28843.0
28	18	15	46	989	230.0	-190828.0	-679.0	29264.0
28	18	15	46	989	231.0	-185554.0	-665.0	29208.0
28	18	15	46	990	232.0	-181409.0	-691.0	29220.0
28	18	15	46	990	233.0	-178299.0	-681.0	29554.0
28	18	15	46	991	234.0	-175459.0	-666.0	29852.0
28	18	15	47	21	235.0	-173787.0	-637.0	30399.0
28	18	15	47	22	236.0	-173028.0	-600.0	30654.0
28	18	15	47	30	237.0	-172382.0	-603.0	30983.0
28	18	15	47	31	238.0	-171124.0	-608.0	31309.0
28	18	15	47	31	239.0	-160594.0	-609.0	31067.0
28	18	15	47	32	240.0	-136321.0	-626.0	30854.0
28	18	15	47	33	241.0	-186327.0	-649.0	30865.0
28	18	15	47	33	242.0	-162391.0	-690.0	30688.0
28	18	15	47	34	243.0	-156138.0	-712.0	31248.0
28	18	15	47	34	244.0	-142562.0	-743.0	31974.0
28	18	15	47	35	245.0	-134956.0	-761.0	32688.0
28	18	15	47	35	246.0	-128396.0	-778.0	32614.0
28	18	15	47	36	247.0	-124361.0	-808.0	32198.0
28	18	15	47	37	248.0	-124256.0	-809.0	32221.0
28	18	15	47	37	249.0	-127057.0	-835.0	31824.0
28	18	15	47	38	251.0	-137511.0	-916.0	31548.0
28	18	15	47	38	252.0	-146353.0	-912.0	31565.0
28	18	15	47	39	253.0	-157453.0	-920.0	32068.0
28	18	15	47	39	254.0	-170777.0	-922.0	33108.0
28	18	15	47	40	255.0	-184981.0	-903.0	34098.0
28	18	15	47	41	0.0	-199743.0	-918.0	34538.0
28	18	15	47	67	1.0	-213997.0	-923.0	34817.0
28	18	15	47	68	2.0	-226626.0	-934.0	34877.0
28	18	15	47	68	3.0	-238190.0	-940.0	34810.0
28	18	15	47	69	4.0	-248281.0	-964.0	35218.0
28	18	15	47	70	5.0	-256498.0	-972.0	35887.0
28	18	15	47	70	6.0	-262921.0	-991.0	35552.0
28	18	15	47	71	7.0	-267979.0	-1017.0	35497.0
28	18	15	47	72	8.0	-272110.0	-1024.0	36270.0
28	18	15	47	73	9.0	-275118.0	-1031.0	36664.0
28	18	15	47	74	10.0	-277112.0	-1049.0	36601.0
28	18	15	47	75	11.0	-278394.0	-1055.0	36794.0
28	18	15	47	76	12.0	-277892.0	-1075.0	37206.0
28	18	15	47	76	13.0	-274768.0	-1091.0	37599.0
28	18	15	47	77	14.0	-269416.0	-1112.0	37479.0
28	18	15	47	77	15.0	-261910.0	-1132.0	37571.0
28	18	15	47	78	17.0	-239104.0	-1163.0	38541.0
28	18	15	47	79	18.0	-224496.0	-1176.0	39048.0
28	18	15	47	79	19.0	-207082.0	-1151.0	38933.0
28	18	15	47	80	20.0	-187961.0	-1126.0	39138.0
28	18	15	47	80	21.0	-168362.0	-1097.0	39483.0
28	18	15	47	81	22.0	-149301.0	-1059.0	39526.0
28	18	15	47	81	23.0	-132626.0	-1049.0	39653.0
28	18	15	47	111	24.0	-119206.0	-1041.0	39804.0
28	18	15	47	112	25.0	-109195.0	-1039.0	39587.0
28	18	15	47	112	26.0	-103656.0	-1028.0	39711.0
28	18	15	47	113	27.0	-102346.0	-1011.0	39879.0
28	18	15	47	114	28.0	-104577.0	-1025.0	40431.0
28	18	15	47	114	29.0	-110411.0	-1006.0	41051.0
28	18	15	47	115	30.0	-119174.0	-1018.0	41454.0
28	18	15	47	116	31.0	-130986.0	-1025.0	41436.0
28	18	15	47	116	32.0	-145852.0	-1032.0	41479.0
28	18	15	47	117	33.0	-162483.0	-1097.0	41662.0
28	18	15	47	117	34.0	-179777.0	-1144.0	40979.0
28	18	15	47	118	35.0	-197541.0	-1150.0	40762.0
28	18	15	47	119	36.0	-215304.0	-1174.0	41072.0
28	18	15	47	119	37.0	-232952.0	-1183.0	41239.0
28	18	15	47	120	38.0	-249183.0	-1201.0	41406.0
28	18	15	47	121	40.0	-276534.0	-1242.0	42348.0
28	18	15	47	121	41.0	-286662.0	-1254.0	42039.0
28	18	15	47	122	42.0	-294767.0	-1241.0	42115.0
28	18	15	47	122	43.0	-300611.0	-1248.0	42094.0
28	18	15	47	123	44.0	-304066.0	-1257.0	41287.0
28	18	15	47	124	45.0	-305346.0	-1294.0	41047.0
28	18	15	47	157	46.0	-304219.0	-1321.0	41367.0
28	18	15	47	158	47.0	-300242.0	-1334.0	41654.0
28	18	15	47	158	48.0	-293653.0	-1351.0	42504.0
28	18	15	47	159	49.0	-283917.0	-1369.0	44009.0
28	18	15	47	160	50.0	-271667.0	-1374.0	43829.0
28	18	15	47	160	51.0	-256922.0	-1387.0	43181.0
28	18	15	47	161	52.0	-239376.0	-1424.0	43161.0
28	18	15	47	162	53.0	-219372.0	-1432.0	43306.0
28	18	15	47	162	54.0	-196915.0	-1455.0	43469.0
28	18	15	47	163	55.0	-172424.0	-1462.0	43599.0
28	18	15	47	164	56.0	-146158.0	-1487.0	43736.0
28	18	15	47	164	57.0	-120119.0	-1511.0	43501.0
28	18	15	47	165	58.0	-94980.0	-1539.0	43633.0
28	18	15	47	165	59.0	-72039.0	-1523.0	44025.0
28	18	15	47	166	60.0	-53269.0	-1546.0	44535.0
28	18	15	47	167	62.0	-31658.0	-1597.0	44761.0
28	18	15	47	167	63.0	-29653.0	-1622.0	44684.0
28	18	15	47	168	64.0	-33052.0	-1610.0	44461.0
28	18	15	47	169	65.0	-42252.0	-1607.0	44198.0
28	18	15	47	169	66.0	-56065.0	-1615.0	44066.0
28	18	15	47	170	67.0	-74265.0	-1632.0	44867.0
28	18	15	47	170	68.0	-96727.0	-1632.0	45298.0
28	18	15	47	202	69.0	-122424.0	-1607.0	45722.0
28	18	15	47	203	70.0	-150302.0	-1584.0	46182.0
28	18	15	47	204	71.0	-179356.0	-1595.0	46214.0
28	18	15	47	204	72.0	-207619.0	-1590.0	45624.0
28	18	15	47	205	73.0	-234118.0	-1596.0	45413.0
28	18	15	47	206	74.0	-257857.0	-1602.0	45841.0
28	18	15	47	206	75.0	-278887.0	-1622.0	45643.0
28	18	15	47	207	76.0	-297349.0	-1639.0	45439.0
28	18	15	47	208	77.0	-313746.0	-1641.0	45861.0
28	18	15	47	208	78.0	-327569.0	-1661.0	46475.0
28	18	15	47	209	79.0	-338592.0	-1693.0	46801.0
28	18	15	47	209	80.0	-347157.0	-1702.0	47381.0
28	18	15	47	210	81.0	-352912.0	-1702.0	47358.0
28	18	15	47	211	82.0	-355406.0	-1712.0	46997.0
28	18	15	47	211	83.0	-353887.0	-1712.0	47132.0
28	18	15	47	212	85.0	-337621.0	-1736.0	47508.0
28	18	15	47	213	86.0	-324152.0	-1777.0	47685.0
28	18	15	47	213	87.0	-308159.0	-1778.0	48556.0
28	18	15	47	214	88.0	-290774.0	-1789.0	48894.0
28	18	15	47	214	89.0	-271989.0	-1781.0	49318.0
28	18	15	47	215	90.0	-253314.0	-1800.0	49415.0
28	18	15	47	247	91.0	-234720.0	-1781.0	49353.0
28	18	15	47	293	92.0	-216598.0	-1751.0	49199.0
28	18	15	47	294	93.0	-200061.0	-1752.0	49221.0
28	18	15	47	295	94.0	-184993.0	-1786.0	49604.0
28	18	15	47	295	95.0	-171732.0	-1822.0	49741.0
28	18	15	47	296	96.0	-159768.0	-1862.0	49604.0
28	18	15	47	297	97.0	-148916.0	-1903.0	49683.0
28	18	15	47	298	98.0	-139581.0	-1904.0	49881.0
28	18	15	47	298	99.0	-131106.0	-1911.0	50241.0
28	18	15	47	299	100.0	-123796.0	-1987.0	50409.0
28	18	15	47	299	101.0	-118196.0	-2039.0	50565.0
28	18	15	47	300	102.0	-113570.0	-2065.0	50903.0
28	18	15	47	301	103.0	-109659.0	-2104.0	51400.0
28	18	15	47	301	104.0	-106373.0	-2109.0	51195.0
28	18	15	47	302	105.0	-104444.0	-2118.0	50825.0
28	18	15	47	302	107.0	-105299.0	-2166.0	50485.0
28	18	15	47	303	108.0	-107619.0	-2178.0	50229.0
28	18	15	47	304	130.0	-105625.0	-2718.0	52137.0
28	18	15	47	304	131.0	-115572.0	-2717.0	50204.0
28	18	15	47	305	132.0	-131802.0	-2736.0	52474.0
28	18	15	47	305	133.0	-153144.0	-2747.0	56975.0
28	18	15	47	306	134.0	-177324.0	-2769.0	59090.0
28	18	15	47	307	135.0	-202171.0	-2812.0	58546.0
28	18	15	47	337	136.0	-226060.0	-2844.0	56630.0
28	18	15	47	340	137.0	-247395.0	-2837.0	54860.0
28	18	15	47	340	138.0	-267034.0	-2864.0	53646.0
28	18	15	47	341	139.0	-285422.0	-2887.0	53116.0
28	18	15	47	342	140.0	-302521.0	-2898.0	52447.0
28	18	15	47	342	141.0	-317229.0	-2915.0	51791.0
28	18	15	47	343	142.0	-327040.0	-2920.0	51144.0
28	18	15	47	344	143.0	-326309.0	-2932.0	50881.0
28	18	15	47	344	144.0	-312712.0	-2941.0	49736.0
28	18	15	47	345	145.0	-291008.0	-2971.0	48916.0
28	18	15	47	346	146.0	-265910.0	-2982.0	49138.0
28	18	15	47	346	147.0	-245812.0	-2987.0	49578.0
28	18	15	47	347	148.0	-236862.0	-2984.0	49191.0
28	18	15	47	347	149.0	-244102.0	-2972.0	49549.0
28	18	15	47	348	150.0	-263463.0	-2976.0	49497.0
28	18	15	47	349	152.0	-304284.0	-2987.0	48552.0
28	18	15	47	349	153.0	-320009.0	-2981.0	48744.0
28	18	15	47	350	154.0	-335701.0	-2994.0	48540.0
28	18	15	47	350	155.0	-349693.0	-2973.0	48693.0
28	18	15	47	351	156.0	-357361.0	-2967.0	49394.0
28	18	15	47	351	157.0	-353247.0	-2959.0	49598.0
28	18	15	47	382	158.0	-338076.0	-2962.0	49443.0
28	18	15	47	383	159.0	-318548.0	-2981.0	49824.0
28	18	15	47	384	160.0	-301329.0	-2948.0	49836.0
28	18	15	47	384	161.0	-287523.0	-2953.0	49778.0
28	18	15	47	385	162.0	-272131.0	-2991.0	49376.0
28	18	15	47	386	163.0	-256911.0	-3017.0	49136.0
28	18	15	47	386	164.0	-243524.0	-3019.0	49398.0
28	18	15	47	387	165.0	-232911.0	-3031.0	49045.0
28	18	15	47	388	166.0	-221956.0	-3070.0	49443.0
28	18	15	47	389	167.0	-207751.0	-3093.0	49700.0
28	18	15	47	390	168.0	-190524.0	-3128.0	49743.0
28	18	15	47	391	169.0	-168935.0	-3144.0	49843.0
28	18	15	47	391	170.0	-142621.0	-3177.0	49727.0
28	18	15	47	392	171.0	-113441.0	-3238.0	49456.0
28	18	15	47	393	172.0	-84765.0	-3291.0	49406.0
28	18	15	47	394	174.0	-45424.0	-3347.0	49061.0
28	18	15	47	395	175.0	-38412.0	-3377.0	48659.0
28	18	15	47	395	176.0	-39642.0	-3406.0	48271.0
28	18	15	47	396	177.0	-48337.0	-3380.0	48374.0
28	18	15	47	397	178.0	-62306.0	-3403.0	48452.0
28	18	15	47	397	179.0	-81144.0	-3417.0	48196.0
28	18	15	47	398	180.0	-103426.0	-3441.0	48113.0
28	18	15	47	427	181.0	-128172.0	-3434.0	48059.0
28	18	15	47	428	182.0	-154622.0	-3438.0	47777.0
28	18	15	47	428	183.0	-182001.0	-3465.0	47524.0
28	18	15	47	429	184.0	-209496.0	-3484.0	47254.0
28	18	15	47	430	185.0	-236390.0	-3501.0	47129.0
28	18	15	47	444	186.0	-262297.0	-3526.0	46616.0
28	18	15	47	445	187.0	-286359.0	-3526.0	46523.0
28	18	15	47	446	188.0	-307837.0	-3536.0	46704.0
28	18	15	47	446	189.0	-325443.0	-3562.0	46328.0
28	18	15	47	447	190.0	-337496.0	-3572.0	46295.0
28	18	15	47	447	191.0	-343264.0	-3601.0	46076.0
28	18	15	47	448	192.0	-342291.0	-3591.0	45498.0
28	18	15	47	448	193.0	-334341.0	-3625.0	45163.0
28	18	15	47	449	194.0	-319547.0	-3669.0	45056.0
28	18	15	47	450	195.0	-299389.0	-3681.0	44850.0
28	18	15	47	450	197.0	-246433.0	-3697.0	45573.0
28	18	15	47	451	198.0	-216278.0	-3696.0	45753.0
28	18	15	47	451	199.0	-185453.0	-3709.0	45672.0
28	18	15	47	452	200.0	-155379.0	-3737.0	45934.0
28	18	15	47	452	201.0	-127621.0	-3719.0	45893.0
28	18	15	47	453	202.0	-103379.0	-3679.0	45575.0
28	18	15	47	471	203.0	-83661.0	-3661.0	45200.0
28	18	15	47	472	204.0	-68551.0	-3641.0	45011.0
28	18	15	47	473	205.0	-58997.0	-3634.0	44640.0
28	18	15	47	493	206.0	-54107.0	-3648.0	44638.0
28	18	15	47	494	207.0	-53686.0	-3637.0	44489.0
28	18	15	47	495	208.0	-56909.0	-3612.0	44516.0
28	18	15	47	495	209.0	-62834.0	-3606.0	44875.0
28	18	15	47	496	210.0	-72287.0	-3604.0	44744.0
28	18	15	47	496	211.0	-85327.0	-3579.0	44365.0
28	18	15	47	497	212.0	-101480.0	-3577.0	44483.0
28	18	15	47	497	213.0	-121122.0	-3569.0	44146.0
28	18	15	47	498	214.0	-143774.0	-3569.0	44191.0
28	18	15	47	499	215.0	-167631.0	-3580.0	44561.0
28	18	15	47	499	216.0	-192149.0	-3594.0	44264.0
28	18	15	47	500	217.0	-216387.0	-3597.0	44271.0
28	18	15	47	500	219.0	-261588.0	-3566.0	45393.0
28	18	15	47	501	220.0	-280319.0	-3553.0	45426.0
28	18	15	47	501	221.0	-295547.0	-3525.0	45055.0
28	18	15	47	502	222.0	-306881.0	-3507.0	44789.0
28	18	15	47	503	223.0	-313785.0	-3465.0	44427.0
28	18	15	47	503	224.0	-317503.0	-3464.0	44199.0
28	18	15	47	504	225.0	-317490.0	-3438.0	44288.0
28	18	15	47	517	226.0	-314757.0	-3431.0	44380.0
28	18	15	47	517	227.0	-310136.0	-3418.0	44224.0
28	18	15	47	518	228.0	-304419.0	-3397.0	44416.0
28	18	15	47	519	229.0	-298957.0	-3392.0	44747.0
28	18	15	47	520	230.0	-294508.0	-3379.0	44918.0
28	18	15	47	520	231.0	-291799.0	-3352.0	44956.0
28	18	15	47	521	232.0	-290854.0	-3311.0	45098.0
28	18	15	47	522	233.0	-290922.0	-3296.0	44902.0
28	18	15	47	539	234.0	-291309.0	-3272.0	44806.0
28	18	15	47	540	235.0	-291717.0	-3231.0	44938.0
28	18	15	47	540	236.0	-291593.0	-3239.0	45188.0
28	18	15	47	541	237.0	-289917.0	-3209.0	45414.0
28	18	15	47	566	238.0	-286324.0	-3176.0	45841.0
28	18	15	47	567	239.0	-279506.0	-3156.0	46732.0
28	18	15	47	568	240.0	-269185.0	-3171.0	46994.0
28	18	15	47	568	242.0	-238640.0	-3113.0	47001.0
28	18	15	47	569	243.0	-218778.0	-3066.0	46854.0
28	18	15	47	570	244.0	-197681.0	-2996.0	46779.0
28	18	15	47	571	245.0	-175452.0	-2950.0	46533.0
28	18	15	47	571	246.0	-152435.0	-2897.0	47069.0
28	18	15	47	572	247.0	-129748.0	-2854.0	47683.0
28	18	15	47	573	248.0	-107937.0	-2818.0	48391.0
28	18	15	47	573	249.0	-87001.0	-2783.0	49371.0
28	18	15	47	574	250.0	-68384.0	-2736.0	49586.0
28	18	15	47	574	251.0	-52204.0	-2726.0	49592.0
28	18	15	47	575	252.0	-38970.0	-2693.0	49291.0
28	18	15	47	576	253.0	-29536.0	-2667.0	48948.0
28	18	15	47	576	254.0	-23065.0	-2652.0	48666.0
28	18	15	47	577	8.0	-114127.0	-2287.0	50098.0
28	18	15	47	577	9.0	-134968.0	-2252.0	50344.0
28	18	15	47	578	10.0	-157327.0	-2209.0	51359.0
28	18	15	47	578	11.0	-179689.0	-2149.0	51650.0
28	18	15	47	579	12.0	-201990.0	-2108.0	51830.0
28	18	15	47	580	13.0	-223979.0	-2072.0	52346.0
28	18	15	47	580	14.0	-244516.0	-2015.0	52954.0
28	18	15	47	606	15.0	-264192.0	-1992.0	52629.0
28	18	15	47	607	16.0	-282257.0	-1959.0	52194.0
28	18	15	47	608	17.0	-296759.0	-1907.0	52592.0
28	18	15	47	652	18.0	-306542.0	-1883.0	52788.0
28	18	15	47	653	19.0	-309767.0	-1881.0	52918.0
28	18	15	47	654	20.0	-300742.0	-1868.0	53279.0
28	18	15	47	654	21.0	-270632.0	-1821.0	53532.0
28	18	15	47	655	22.0	-237234.0	-1775.0	53936.0
28	18	15	47	656	23.0	-237417.0	-1779.0	54502.0
28	18	15	47	656	24.0	-265007.0	-1780.0	54921.0
28	18	15	47	657	25.0	-297826.0	-1740.0	55787.0
28	18	15	47	658	26.0	-321380.0	-1707.0	56089.0
28	18	15	47	658	27.0	-334547.0	-1673.0	56374.0
28	18	15	47	659	28.0	-335285.0	-1637.0	56705.0
28	18	15	47	660	29.0	-333319.0	-1614.0	57106.0
28	18	15	47	660	31.0	-334492.0	-1586.0	57570.0
28	18	15	47	661	32.0	-330078.0	-1543.0	58336.0
28	18	15	47	662	33.0	-321571.0	-1484.0	58646.0
28	18	15	47	662	34.0	-310474.0	-1470.0	58579.0
28	18	15	47	663	53.0	-46462.0	-1137.0	60364.0
28	18	15	47	663	54.0	-49957.0	-1111.0	60783.0
28	18	15	47	664	55.0	-59248.0	-1081.0	60578.0
28	18	15	47	665	56.0	-72761.0	-1057.0	59941.0
28	18	15	47	665	57.0	-89901.0	-1037.0	59700.0
28	18	15	47	666	58.0	-109429.0	-1021.0	59638.0
28	18	15	47	666	59.0	-130163.0	-996.0	59545.0
28	18	15	47	698	60.0	-152242.0	-1017.0	59562.0
28	18	15	47	699	61.0	-175541.0	-1051.0	59706.0
28	18	15	47	700	62.0	-199254.0	-1061.0	59584.0
28	18	15	47	700	63.0	-222696.0	-1049.0	60222.0
28	18	15	47	701	64.0	-244819.0	-1052.0	60389.0
28	18	15	47	702	65.0	-264357.0	-1049.0	60141.0
28	18	15	47	702	66.0	-280424.0	-1026.0	60137.0
28	18	15	47	703	67.0	-292018.0	-1029.0	59747.0
28	18	15	47	704	68.0	-299001.0	-1039.0	59454.0
28	18	15	47	704	69.0	-301362.0	-1031.0	59433.0
28	18	15	47	705	70.0	-299029.0	-1025.0	59611.0
28	18	15	47	706	71.0	-292461.0	-1026.0	59620.0
28	18	15	47	706	72.0	-282931.0	-1036.0	59811.0
28	18	15	47	707	73.0	-271208.0	-1056.0	60240.0
28	18	15	47	708	74.0	-258354.0	-1043.0	60508.0
28	18	15	47	708	75.0	-244279.0	-1045.0	60146.0
28	18	15	47	709	76.0	-229427.0	-1031.0	60036.0
28	18	15	47	710	77.0	-213667.0	-1018.0	60254.0
28	18	15	47	710	78.0	-197803.0	-991.0	59756.0
28	18	15	47	711	79.0	-182627.0	-974.0	59894.0
28	18	15	47	711	80.0	-168533.0	-977.0	60178.0
28	18	15	47	712	81.0	-155009.0	-977.0	60222.0
28	18	15	47	743	82.0	-142144.0	-978.0	60331.0
28	18	15	47	743	83.0	-130507.0	-945.0	61045.0
28	18	15	47	744	84.0	-119995.0	-936.0	61304.0
28	18	15	47	745	85.0	-110686.0	-982.0	60881.0
28	18	15	47	746	86.0	-102593.0	-983.0	60939.0
28	18	15	47	746	87.0	-95784.0	-982.0	60419.0
28	18	15	47	747	88.0	-90890.0	-993.0	59828.0
28	18	15	47	747	89.0	-88216.0	-1011.0	59681.0
28	18	15	47	748	90.0	-87816.0	-1031.0	59440.0
28	18	15	47	787	91.0	-90722.0	-1037.0	59525.0
28	18	15	47	788	92.0	-95959.0	-1033.0	60080.0
28	18	15	47	788	93.0	-104162.0	-1049.0	60963.0
28	18	15	47	789	94.0	-114947.0	-1076.0	61542.0
28	18	15	47	790	95.0	-129667.0	-1093.0	61216.0
28	18	15	47	790	96.0	-143137.0	-1113.0	60986.0
28	18	15	47	791	98.0	-162170.0	-1126.0	59799.0
28	18	15	47	792	99.0	-174384.0	-1147.0	59536.0
28	18	15	47	792	100.0	-189859.0	-1166.0	59937.0
28	18	15	47	793	101.0	-207369.0	-1152.0	60861.0
28	18	15	47	793	102.0	-225077.0	-1133.0	61282.0
28	18	15	47	794	103.0	-241627.0	-1148.0	61216.0
28	18	15	47	832	104.0	-257667.0	-1178.0	61301.0
28	18	15	47	833	105.0	-273136.0	-1187.0	60849.0
28	18	15	47	834	106.0	-287724.0	-1204.0	60304.0
28	18	15	47	835	107.0	-301980.0	-1222.0	60205.0
28	18	15	47	836	121.0	-337984.0	-1436.0	57394.0
28	18	15	47	836	122.0	-321434.0	-1439.0	56953.0
28	18	15	47	837	123.0	-302330.0	-1431.0	57091.0
28	18	15	47	837	124.0	-281256.0	-1440.0	57079.0
28	18	15	47	838	125.0	-258164.0	-1469.0	56900.0
28	18	15	47	839	126.0	-233472.0	-1489.0	56388.0
28	18	15	47	840	127.0	-207863.0	-1491.0	56234.0
28	18	15	47	840	128.0	-181911.0	-1520.0	55871.0
28	18	15	47	841	129.0	-157039.0	-1548.0	55203.0
28	18	15	47	842	130.0	-133259.0	-1567.0	54841.0
28	18	15	47	842	131.0	-111243.0	-1592.0	54808.0
28	18	15	47	843	143.0	-23417.0	-1772.0	54289.0
28	18	15	47	843	144.0	-32620.0	-1776.0	54088.0
28	18	15	47	844	145.0	-45375.0	-1747.0	53199.0
28	18	15	47	845	146.0	-61456.0	-1739.0	52815.0
28	18	15	47	845	147.0	-80562.0	-1721.0	52445.0
28	18	15	47	846	148.0	-101325.0	-1734.0	52179.0
28	18	15	47	878	149.0	-123457.0	-1731.0	52498.0
28	18	15	47	878	150.0	-146373.0	-1729.0	52801.0
28	18	15	47	879	151.0	-169411.0	-1733.0	52652.0
28	18	15	47	880	152.0	-191916.0	-1749.0	52716.0
28	18	15	47	881	153.0	-213857.0	-1754.0	52914.0
28	18	15	47	881	154.0	-235014.0	-1770.0	52759.0
28	18	15	47	882	155.0	-254774.0	-1775.0	52651.0
28	18	15	47	883	156.0	-273361.0	-1781.0	52138.0
28	18	15	47	883	157.0	-290623.0	-1792.0	51887.0
28	18	15	47	884	158.0	-306502.0	-1790.0	51747.0
28	18	15	47	885	159.0	-320713.0	-1803.0	51461.0
28	18	15	47	885	160.0	-333034.0	-1816.0	51529.0
28	18	15	47	886	161.0	-342846.0	-1835.0	51626.0
28	18	15	47	887	162.0	-349823.0	-1836.0	51715.0
28	18	15	47	887	163.0	-354087.0	-1877.0	52085.0
28	18	15	47	888	165.0	-353318.0	-1883.0	51956.0
28	18	15	47	889	166.0	-348467.0	-1892.0	51794.0
28	18	15	47	889	167.0	-341012.0	-1891.0	51256.0
28	18	15	47	890	168.0	-331101.0	-1874.0	51066.0
28	18	15	47	891	169.0	-318698.0	-1869.0	50873.0
28	18	15	47	891	170.0	-304814.0	-1852.0	50642.0
28	18	15	47	892	171.0	-290207.0	-1852.0	51083.0
28	18	15	47	922	172.0	-275694.0	-1853.0	51247.0
28	18	15	47	922	173.0	-261634.0	-1860.0	51464.0
28	18	15	47	923	174.0	-248007.0	-1900.0	51494.0
28	18	15	47	924	175.0	-235105.0	-1916.0	51366.0
28	18	15	47	925	176.0	-223560.0	-1902.0	51661.0
28	18	15	47	925	177.0	-213416.0	-1888.0	51726.0
28	18	15	47	926	178.0	-204386.0	-1902.0	51119.0
28	18	15	47	927	179.0	-197296.0	-1921.0	50956.0
28	18	15	47	927	180.0	-191751.0	-1916.0	51312.0
28	18	15	47	928	181.0	-187321.0	-1940.0	51633.0
28	18	15	47	929	182.0	-183342.0	-1964.0	51814.0
28	18	15	47	929	183.0	-179092.0	-1977.0	52403.0
28	18	15	47	930	184.0	-174804.0	-1984.0	52336.0
28	18	15	47	931	185.0	-170642.0	-1993.0	51923.0
28	18	15	47	931	186.0	-167277.0	-2009.0	51855.0
28	18	15	47	932	188.0	-162209.0	-2058.0	52221.0
28	18	15	47	932	189.0	-160539.0	-2052.0	52623.0
28	18	15	47	933	190.0	-159660.0	-2049.0	52228.0
28	18	15	47	934	191.0	-159179.0	-2069.0	51689.0
28	18	15	47	934	192.0	-158223.0	-2092.0	51500.0
28	18	15	47	935	193.0	-156607.0	-2096.0	52145.0
28	18	15	47	968	194.0	-154469.0	-2081.0	51903.0
28	18	15	47	968	195.0	-152174.0	-2043.0	51555.0
28	18	15	47	969	196.0	-149123.0	-2057.0	51519.0
28	18	15	47	970	197.0	-145267.0	-2064.0	51596.0
28	18	15	47	971	198.0	-140375.0	-2080.0	51460.0
28	18	15	47	971	199.0	-134757.0	-2112.0	51423.0
28	18	15	47	972	200.0	-128177.0	-2109.0	51576.0
28	18	15	47	973	201.0	-120869.0	-2111.0	51423.0
28	18	15	47	973	202.0	-113746.0	-2131.0	51666.0
28	18	15	47	974	203.0	-107786.0	-2160.0	51985.0
28	18	15	47	975	204.0	-104156.0	-2171.0	51954.0
28	18	15	47	975	205.0	-103795.0	-2177.0	51661.0
28	18	15	47	976	206.0	-106420.0	-2184.0	51329.0
28	18	15	47	976	207.0	-111884.0	-2196.0	50800.0
28	18	15	47	977	208.0	-119981.0	-2210.0	50508.0
28	18	15	47	978	210.0	-140312.0	-2214.0	50656.0
28	18	15	47	978	211.0	-151146.0	-2234.0	51091.0
28	18	15	47	979	212.0	-161706.0	-2235.0	51430.0
28	18	15	47	979	213.0	-172331.0	-2232.0	51706.0
28	18	15	47	980	214.0	-183436.0	-2211.0	51511.0
28	18	15	47	981	215.0	-194737.0	-2183.0	51152.0
28	18	15	47	981	216.0	-206168.0	-2182.0	50542.0
28	18	15	48	12	217.0	-217766.0	-2244.0	50556.0
28	18	15	48	13	218.0	-229981.0	-2287.0	50433.0
28	18	15	48	23	219.0	-242724.0	-2292.0	50010.0
28	18	15	48	24	220.0	-256343.0	-2286.0	49792.0
28	18	15	48	24	221.0	-270734.0	-2290.0	49934.0
28	18	15	48	25	222.0	-285491.0	-2278.0	49998.0
28	18	15	48	25	223.0	-300067.0	-2259.0	50039.0
28	18	15	48	26	224.0	-314021.0	-2256.0	50772.0
28	18	15	48	26	225.0	-326734.0	-2268.0	51290.0
28	18	15	48	27	226.0	-337662.0	-2252.0	51028.0
28	18	15	48	27	227.0	-345063.0	-2242.0	51319.0
28	18	15	48	28	228.0	-348091.0	-2261.0	50993.0
28	18	15	48	29	229.0	-346859.0	-2289.0	50101.0
28	18	15	48	29	230.0	-341756.0	-2297.0	49806.0
28	18	15	48	30	231.0	-333336.0	-2305.0	49531.0
28	18	15	48	30	233.0	-311405.0	-2330.0	49129.0
28	18	15	48	31	234.0	-299311.0	-2325.0	49768.0
28	18	15	48	31	235.0	-287075.0	-2290.0	49805.0
28	18	15	48	32	236.0	-274424.0	-2280.0	49333.0
28	18	15	48	57	237.0	-262166.0	-2285.0	48933.0
28	18	15	48	58	238.0	-250786.0	-2277.0	48169.0
28	18	15	48	58	239.0	-240692.0	-2252.0	46615.0
28	18	15	48	59	240.0	-231869.0	-2267.0	45401.0
28	18	15	48	59	241.0	-224044.0	-2303.0	45387.0
28	18	15	48	60	242.0	-217386.0	-2318.0	45528.0
28	18	15	48	60	243.0	-211681.0	-2331.0	46457.0
28	18	15	48	61	244.0	-206064.0	-2373.0	47659.0
28	18	15	48	62	245.0	-200346.0	-2432.0	47978.0
28	18	15	48	62	246.0	-193873.0	-2429.0	47587.0
28	18	15	48	63	247.0	-187195.0	-2432.0	47798.0
28	18	15	48	64	248.0	-179118.0	-2458.0	48231.0
28	18	15	48	64	249.0	-169503.0	-2488.0	47525.0
28	18	15	48	65	250.0	-157852.0	-2522.0	47564.0
28	18	15	48	65	251.0	-144567.0	-2554.0	51723.0
28	18	15	48	66	255.0	-76086.0	-2575.0	63951.0
28	18	15	48	67	0.0	-57681.0	-2589.0	60457.0
28	18	15	48	67	1.0	-40939.0	-2603.0	55521.0
28	18	15	48	68	2.0	-27479.0	-2617.0	53071.0
28	18	15	48	68	3.0	-19412.0	-2632.0	52554.0
28	18	15	48	69	4.0	-19664.0	-2647.0	49591.0
28	18	15	48	101	5.0	-29565.0	-2657.0	47183.0
28	18	15	48	101	6.0	-48209.0	-2664.0	49878.0
28	18	15	48	102	7.0	-74843.0	-2664.0	55094.0
28	18	15	48	103	8.0	-106840.0	-2691.0	57806.0
28	18	15	48	103	9.0	-140488.0	-2703.0	57741.0
28	18	15	48	104	10.0	-172371.0	-2720.0	55618.0
28	18	15	48	104	11.0	-200544.0	-2726.0	52491.0
28	18	15	48	105	12.0	-225109.0	-2751.0	49994.0
28	18	15	48	106	13.0	-246504.0	-2797.0	48982.0
28	18	15	48	106	14.0	-262991.0	-2825.0	48051.0
28	18	15	48	107	15.0	-272334.0	-2864.0	47608.0
28	18	15	48	107	16.0	-272292.0	-2889.0	47593.0
28	18	15	48	108	17.0	-255280.0	-2915.0	47289.0
28	18	15	48	109	18.0	-223707.0	-2928.0	46387.0
28	18	15	48	109	19.0	-184026.0	-2952.0	45784.0
28	18	15	48	110	21.0	-115166.0	-2985.0	44651.0
28	18	15	48	110	22.0	-104364.0	-2993.0	44568.0
28	18	15	48	111	23.0	-113452.0	-3005.0	43885.0
28	18	15	48	112	24.0	-135366.0	-3014.0	43278.0
28	18	15	48	112	25.0	-156806.0	-3027.0	43567.0
28	18	15	48	113	26.0	-171841.0	-3051.0	43769.0
28	18	15	48	113	27.0	-185892.0	-3059.0	44607.0
28	18	15	48	147	28.0	-204194.0	-3057.0	45001.0
28	18	15	48	148	29.0	-221334.0	-3048.0	44173.0
28	18	15	48	149	30.0	-227551.0	-3048.0	43823.0
28	18	15	48	150	31.0	-225594.0	-3067.0	43736.0
28	18	15	48	150	32.0	-221471.0	-3062.0	43312.0
28	18	15	48	151	33.0	-219003.0	-3072.0	42962.0
28	18	15	48	152	34.0	-217536.0	-3076.0	42766.0
28	18	15	48	152	35.0	-218949.0	-3092.0	42613.0
28	18	15	48	153	36.0	-226179.0	-3132.0	42141.0
28	18	15	48	154	37.0	-239557.0	-3147.0	42399.0
28	18	15	48	155	38.0	-253378.0	-3136.0	42327.0
28	18	15	48	155	39.0	-263079.0	-3172.0	42067.0
28	18	15	48	156	40.0	-267902.0	-3264.0	41864.0
28	18	15	48	156	41.0	-267386.0	-3309.0	41592.0
28	18	15	48	157	42.0	-260287.0	-3309.0	41141.0
28	18	15	48	158	44.0	-221522.0	-3336.0	41022.0
28	18	15	48	158	45.0	-195117.0	-3368.0	40630.0
28	18	15	48	159	46.0	-168176.0	-3357.0	40122.0
28	18	15	48	159	47.0	-144191.0	-3347.0	40190.0
28	18	15	48	160	48.0	-124350.0	-3334.0	39846.0
28	18	15	48	160	49.0	-108544.0	-3341.0	39313.0
28	18	15	48	192	50.0	-96074.0	-3344.0	39121.0
28	18	15	48	193	51.0	-86447.0	-3344.0	38910.0
28	18	15	48	193	52.0	-80312.0	-3350.0	38249.0
28	18	15	48	194	53.0	-77591.0	-3362.0	37706.0
28	18	15	48	195	54.0	-78496.0	-3394.0	37149.0
28	18	15	48	195	55.0	-82536.0	-3421.0	36813.0
28	18	15	48	196	56.0	-89390.0	-3444.0	36398.0
28	18	15	48	197	57.0	-99071.0	-3461.0	36211.0
28	18	15	48	197	58.0	-112287.0	-3480.0	35660.0
28	18	15	48	198	59.0	-129262.0	-3491.0	35063.0
28	18	15	48	199	60.0	-149397.0	-3516.0	34189.0
28	18	15	48	199	61.0	-172164.0	-3543.0	33580.0
28	18	15	48	200	62.0	-197186.0	-3569.0	32787.0
28	18	15	48	200	63.0	-224066.0	-3586.0	32783.0
28	18	15	48	201	64.0	-251529.0	-3616.0	32255.0
28	18	15	48	202	66.0	-303814.0	-3672.0	31790.0
28	18	15	48	202	67.0	-326479.0	-3694.0	31571.0
28	18	15	48	203	68.0	-346106.0	-3691.0	31111.0
28	18	15	48	203	69.0	-362557.0	-3681.0	30723.0
28	18	15	48	204	70.0	-375364.0	-3703.0	30664.0
28	18	15	48	204	71.0	-384279.0	-3717.0	30941.0
28	18	15	48	205	72.0	-388248.0	-3741.0	31264.0
28	18	15	48	237	73.0	-387970.0	-3752.0	30454.0
28	18	15	48	237	74.0	-383635.0	-3751.0	29624.0
28	18	15	48	238	75.0	-375758.0	-3761.0	29823.0
28	18	15	48	239	76.0	-363647.0	-3782.0	29899.0
28	18	15	48	239	77.0	-348257.0	-3822.0	29678.0
28	18	15	48	240	78.0	-330327.0	-3889.0	29853.0
28	18	15	48	241	79.0	-309829.0	-3907.0	29376.0
28	18	15	48	241	80.0	-286887.0	-3924.0	28497.0
28	18	15	48	242	81.0	-261604.0	-3909.0	28311.0
28	18	15	48	242	82.0	-234570.0	-3904.0	28114.0
28	18	15	48	243	83.0	-206331.0	-3911.0	27739.0
28	18	15	48	244	84.0	-177476.0	-3927.0	27403.0
28	18	15	48	244	85.0	-147716.0	-3951.0	27538.0
28	18	15	48	245	86.0	-118142.0	-3951.0	27455.0
28	18	15	48	246	87.0	-89873.0	-3958.0	27174.0
28	18	15	48	246	89.0	-38485.0	-3951.0	26364.0
28	18	15	48	247	90.0	-16484.0	-3940.0	25654.0
28	18	15	48	247	91.0	2207.0	-3911.0	25801.0
28	18	15	48	248	92.0	16919.0	-3902.0	25924.0
28	18	15	48	249	93.0	27335.0	-3879.0	25732.0
28	18	15	48	249	94.0	32707.0	-3879.0	25702.0
28	18	15	48	282	95.0	32216.0	-3884.0	26318.0
28	18	15	48	283	96.0	24784.0	-3859.0	26016.0
28	18	15	48	283	97.0	9457.0	-3845.0	26071.0
28	18	15	48	284	98.0	-14432.0	-3854.0	26151.0
28	18	15	48	285	99.0	-45186.0	-3848.0	25806.0
28	18	15	48	285	100.0	-81056.0	-3864.0	25103.0
28	18	15	48	286	101.0	-120411.0	-3866.0	25079.0
28	18	15	48	287	102.0	-161095.0	-3858.0	25188.0
28	18	15	48	287	103.0	-201613.0	-3877.0	25010.0
28	18	15	48	288	104.0	-241140.0	-3909.0	24588.0
28	18	15	48	288	105.0	-278534.0	-3901.0	24630.0
28	18	15	48	289	106.0	-312802.0	-3891.0	24708.0
28	18	15	48	290	107.0	-342902.0	-3897.0	24971.0
28	18	15	48	290	108.0	-367993.0	-3885.0	24919.0
28	18	15	48	291	109.0	-387852.0	-3877.0	24952.0
28	18	15	48	291	111.0	-409303.0	-3846.0	24245.0
28	18	15	48	292	112.0	-411053.0	-3855.0	23673.0
28	18	15	48	293	113.0	-407673.0	-3824.0	23523.0
28	18	15	48	293	114.0	-398943.0	-3805.0	23244.0
28	18	15	48	294	115.0	-386571.0	-3779.0	23275.0
28	18	15	48	294	116.0	-371479.0	-3737.0	23923.0
28	18	15	48	295	117.0	-353518.0	-3699.0	25038.0
28	18	15	48	328	118.0	-333584.0	-3662.0	25416.0
28	18	15	48	329	119.0	-310994.0	-3609.0	25316.0
28	18	15	48	329	120.0	-286852.0	-3591.0	24995.0
28	18	15	48	330	121.0	-260818.0	-3586.0	24410.0
28	18	15	48	330	122.0	-234338.0	-3571.0	24344.0
28	18	15	48	331	123.0	-208357.0	-3576.0	24461.0
28	18	15	48	332	124.0	-184200.0	-3554.0	24169.0
28	18	15	48	332	125.0	-163396.0	-3517.0	24319.0
28	18	15	48	333	126.0	-146345.0	-3491.0	24956.0
28	18	15	48	334	127.0	-133379.0	-3511.0	25298.0
28	18	15	48	335	128.0	-124662.0	-3502.0	25341.0
28	18	15	48	335	129.0	-119776.0	-3457.0	25751.0
28	18	15	48	336	130.0	-118176.0	-3423.0	25683.0
28	18	15	48	337	131.0	-119675.0	-3367.0	25060.0
28	18	15	48	338	132.0	-124022.0	-3319.0	24963.0
28	18	15	48	339	134.0	-142086.0	-3239.0	25466.0
28	18	15	48	340	135.0	-154370.0	-3198.0	25818.0
28	18	15	48	340	136.0	-167267.0	-3137.0	26426.0
28	18	15	48	341	137.0	-180005.0	-3076.0	27476.0
28	18	15	48	341	138.0	-192011.0	-3035.0	28251.0
28	18	15	48	342	139.0	-202237.0	-2974.0	28409.0
28	18	15	48	372	140.0	-210169.0	-2916.0	28043.0
28	18	15	48	373	141.0	-215232.0	-2864.0	27946.0
28	18	15	48	373	142.0	-217193.0	-2832.0	27821.0
28	18	15	48	374	143.0	-216889.0	-2792.0	27658.0
28	18	15	48	375	144.0	-214046.0	-2747.0	27927.0
28	18	15	48	375	145.0	-208789.0	-2729.0	28129.0
28	18	15	48	376	146.0	-200959.0	-2717.0	28153.0
28	18	15	48	377	147.0	-191368.0	-2681.0	28617.0
28	18	15	48	377	148.0	-180388.0	-2654.0	28964.0
28	18	15	48	378	149.0	-167916.0	-2613.0	28496.0
28	18	15	48	379	150.0	-152774.0	-2574.0	28526.0
28	18	15	48	380	151.0	-132486.0	-2541.0	28609.0
28	18	15	48	380	152.0	-102975.0	-2514.0	28156.0
28	18	15	48	381	153.0	-59940.0	-2487.0	28081.0
28	18	15	48	381	154.0	-31701.0	-2458.0	28217.0
28	18	15	48	382	156.0	-64116.0	-2424.0	28516.0
28	18	15	48	383	157.0	-91512.0	-2409.0	28862.0
28	18	15	48	383	158.0	-116882.0	-2351.0	28566.0
28	18	15	48	384	159.0	-135461.0	-2274.0	28329.0
28	18	15	48	384	160.0	-147004.0	-2228.0	28225.0
28	18	15	48	385	161.0	-159080.0	-2181.0	28083.0
28	18	15	48	386	162.0	-174060.0	-2162.0	27644.0
28	18	15	48	417	163.0	-190549.0	-2122.0	27443.0
28	18	15	48	417	164.0	-206204.0	-2069.0	28238.0
28	18	15	48	418	165.0	-223702.0	-2047.0	28916.0
28	18	15	48	419	166.0	-243471.0	-2056.0	28961.0
28	18	15	48	420	167.0	-264108.0	-2039.0	29142.0
28	18	15	48	420	168.0	-285079.0	-2039.0	29228.0
28	18	15	48	421	169.0	-304749.0	-2021.0	29108.0
28	18	15	48	422	170.0	-322084.0	-1997.0	28709.0
28	18	15	48	423	171.0	-336797.0	-1970.0	28650.0
28	18	15	48	423	172.0	-349572.0	-1964.0	28201.0
28	18	15	48	424	173.0	-359594.0	-1970.0	28418.0
28	18	15	48	424	174.0	-366306.0	-1968.0	28221.0
28	18	15	48	425	175.0	-369713.0	-1959.0	27916.0
28	18	15	48	426	176.0	-368032.0	-1947.0	27640.0
28	18	15	48	426	177.0	-361786.0	-1929.0	27566.0
28	18	15	48	427	179.0	-340487.0	-1861.0	28166.0
28	18	15	48	428	180.0	-326575.0	-1817.0	28375.0
28	18	15	48	428	181.0	-309926.0	-1824.0	28433.0
28	18	15	48	429	182.0	-290383.0	-1841.0	28264.0
28	18	15	48	429	183.0	-269562.0	-1806.0	27585.0
28	18	15	48	430	184.0	-247937.0	-1807.0	26986.0
28	18	15	48	462	185.0	-224454.0	-1807.0	27176.0
28	18	15	48	463	186.0	-199842.0	-1796.0	27110.0
28	18	15	48	464	187.0	-174564.0	-1786.0	27033.0
28	18	15	48	464	188.0	-149281.0	-1786.0	27131.0
28	18	15	48	465	189.0	-124494.0	-1766.0	26667.0
28	18	15	48	466	190.0	-100676.0	-1765.0	26614.0
28	18	15	48	466	191.0	-78579.0	-1793.0	26636.0
28	18	15	48	467	192.0	-58242.0	-1795.0	26428.0
28	18	15	48	468	193.0	-39774.0	-1782.0	25909.0
28	18	15	48	468	194.0	-24109.0	-1769.0	25795.0
28	18	15	48	469	195.0	-11613.0	-1758.0	26316.0
28	18	15	48	470	196.0	-2661.0	-1761.0	26259.0
28	18	15	48	470	197.0	2719.0	-1769.0	26338.0
28	18	15	48	471	198.0	4643.0	-1763.0	27078.0
28	18	15	48	472	199.0	3161.0	-1759.0	27127.0
28	18	15	48	472	201.0	-8771.0	-1757.0	27007.0
28	18	15	48	473	202.0	-18984.0	-1743.0	26839.0
28	18	15	48	474	203.0	-32898.0	-1731.0	26556.0
28	18	15	48	508	204.0	-50910.0	-1721.0	26375.0
28	18	15	48	509	205.0	-72360.0	-1712.0	26862.0
28	18	15	48	509	206.0	-96557.0	-1707.0	26866.0
28	18	15	48	510	207.0	-123292.0	-1713.0	27051.0
28	18	15	48	511	208.0	-151971.0	-1709.0	27168.0
28	18	15	48	511	209.0	-181592.0	-1729.0	26729.0
28	18	15	48	512	210.0	-211004.0	-1741.0	26345.0
28	18	15	48	513	211.0	-239357.0	-1771.0	26167.0
28	18	15	48	513	212.0	-266326.0	-1806.0	26078.0
28	18	15	48	514	213.0	-291315.0	-1811.0	26518.0
28	18	15	48	515	214.0	-313547.0	-1803.0	27191.0
28	18	15	48	515	215.0	-332006.0	-1811.0	27276.0
28	18	15	48	516	216.0	-346340.0	-1831.0	27281.0
28	18	15	48	517	217.0	-356350.0	-1827.0	27398.0
28	18	15	48	517	218.0	-362430.0	-1849.0	27245.0
28	18	15	48	518	219.0	-365282.0	-1873.0	27157.0
28	18	15	48	519	224.0	-335229.0	-1947.0	26339.0
28	18	15	48	519	225.0	-321640.0	-1953.0	26247.0
28	18	15	48	520	226.0	-306736.0	-1947.0	26434.0
28	18	15	48	520	227.0	-291087.0	-1961.0	26883.0
28	18	15	48	521	228.0	-274882.0	-1955.0	27171.0
28	18	15	48	521	229.0	-258539.0	-1961.0	27724.0
28	18	15	48	552	230.0	-241245.0	-1982.0	27846.0
28	18	15	48	553	231.0	-222742.0	-1975.0	27448.0
28	18	15	48	553	232.0	-203209.0	-1981.0	27380.0
28	18	15	48	554	233.0	-182723.0	-1987.0	27894.0
28	18	15	48	555	234.0	-161861.0	-2013.0	27846.0
28	18	15	48	556	235.0	-141956.0	-2039.0	27783.0
28	18	15	48	556	236.0	-123787.0	-2057.0	28276.0
28	18	15	48	557	237.0	-108486.0	-2077.0	28910.0
28	18	15	48	558	238.0	-97021.0	-2088.0	28768.0
28	18	15	48	558	239.0	-89359.0	-2111.0	28533.0
28	18	15	48	559	240.0	-85142.0	-2103.0	28260.0
28	18	15	48	560	241.0	-83730.0	-2111.0	28138.0
28	18	15	48	561	242.0	-85222.0	-2114.0	28006.0
28	18	15	48	561	243.0	-90084.0	-2149.0	28222.0
28	18	15	48	562	244.0	-97951.0	-2238.0	28100.0
28	18	15	48	563	246.0	-121969.0	-2255.0	28329.0
28	18	15	48	564	247.0	-137432.0	-2256.0	28186.0
28	18	15	48	564	248.0	-153954.0	-2234.0	28458.0
28	18	15	48	565	249.0	-170170.0	-2234.0	28318.0
28	18	15	48	566	250.0	-184944.0	-2222.0	27936.0
28	18	15	48	566	251.0	-198097.0	-2226.0	27895.0
28	18	15	48	596	252.0	-209987.0	-2224.0	27643.0
28	18	15	48	597	253.0	-220829.0	-2228.0	27326.0
28	18	15	48	598	254.0	-230376.0	-2230.0	27138.0
28	18	15	48	599	255.0	-239089.0	-2263.0	26590.0
28	18	15	48	599	0.0	-246822.0	-2277.0	26450.0
28	18	15	48	600	1.0	-253362.0	-2304.0	26802.0
28	18	15	48	601	2.0	-258756.0	-2327.0	26812.0
28	18	15	48	601	3.0	-263046.0	-2356.0	26677.0
28	18	15	48	602	4.0	-266902.0	-2379.0	27222.0
28	18	15	48	603	5.0	-269708.0	-2382.0	27559.0
28	18	15	48	603	6.0	-271658.0	-2415.0	26837.0
28	18	15	48	604	7.0	-273582.0	-2443.0	26328.0
28	18	15	48	605	8.0	-275307.0	-2484.0	26129.0
28	18	15	48	605	9.0	-276624.0	-2491.0	25676.0
28	18	15	48	606	10.0	-277130.0	-2522.0	25756.0
28	18	15	48	606	12.0	-273708.0	-2542.0	26666.0
28	18	15	48	607	13.0	-269151.0	-2564.0	26160.0
28	18	15	48	608	14.0	-262391.0	-2572.0	26268.0
28	18	15	48	608	15.0	-253499.0	-2574.0	26797.0
28	18	15	48	609	16.0	-243016.0	-2599.0	26589.0
28	18	15	48	609	17.0	-230957.0	-2652.0	25956.0
28	18	15	48	610	18.0	-217684.0	-2697.0	25874.0
28	18	15	48	642	19.0	-203271.0	-2689.0	25857.0
28	18	15	48	643	20.0	-187562.0	-2661.0	25980.0
28	18	15	48	643	21.0	-171108.0	-2663.0	26532.0
28	18	15	48	644	22.0	-155436.0	-2667.0	26368.0
28	18	15	48	645	23.0	-140449.0	-2661.0	26153.0
28	18	15	48	645	24.0	-127236.0	-2683.0	25771.0
28	18	15	48	646	25.0	-117072.0	-2700.0	25554.0
28	18	15	48	647	26.0	-110133.0	-2704.0	25350.0
28	18	15	48	648	27.0	-106109.0	-2697.0	25211.0
28	18	15	48	648	28.0	-105097.0	-2712.0	25311.0
28	18	15	48	649	29.0	-107291.0	-2734.0	25272.0
28	18	15	48	650	30.0	-113274.0	-2736.0	25314.0
28	18	15	48	650	31.0	-122467.0	-2727.0	25793.0
28	18	15	48	651	32.0	-134241.0	-2739.0	25694.0
28	18	15	48	652	33.0	-148366.0	-2752.0	25513.0
28	18	15	48	652	35.0	-181952.0	-2775.0	24681.0
28	18	15	48	653	36.0	-200233.0	-2808.0	24446.0
28	18	15	48	653	37.0	-218512.0	-2800.0	24004.0
28	18	15	48	654	38.0	-235959.0	-2817.0	23693.0
28	18	15	48	655	39.0	-251487.0	-2811.0	23859.0
28	18	15	48	655	40.0	-264559.0	-2804.0	23850.0
28	18	15	48	687	41.0	-274762.0	-2793.0	23996.0
28	18	15	48	687	42.0	-282286.0	-2801.0	24153.0
28	18	15	48	688	43.0	-286941.0	-2791.0	24036.0
28	18	15	48	689	44.0	-288703.0	-2816.0	23357.0
28	18	15	48	690	45.0	-287751.0	-2833.0	23484.0
28	18	15	48	690	46.0	-284134.0	-2834.0	23473.0
28	18	15	48	691	47.0	-278477.0	-2849.0	22813.0
28	18	15	48	692	48.0	-270749.0	-2868.0	22426.0
28	18	15	48	692	49.0	-261109.0	-2869.0	23151.0
28	18	15	48	693	50.0	-249937.0	-2876.0	23504.0
28	18	15	48	694	51.0	-238240.0	-2881.0	24019.0
28	18	15	48	694	52.0	-226522.0	-2881.0	24608.0
28	18	15	48	695	53.0	-215071.0	-2903.0	24381.0
28	18	15	48	696	54.0	-203790.0	-2941.0	23363.0
28	18	15	48	697	55.0	-192173.0	-2953.0	23129.0
28	18	15	48	697	57.0	-168874.0	-3022.0	22768.0
28	18	15	48	698	58.0	-157174.0	-3039.0	22488.0
28	18	15	48	699	59.0	-145854.0	-3063.0	23005.0
28	18	15	48	700	60.0	-136719.0	-3132.0	23588.0
28	18	15	48	700	61.0	-130354.0	-3165.0	23909.0
28	18	15	48	701	62.0	-127071.0	-3172.0	24209.0
28	18	15	48	702	63.0	-127701.0	-3184.0	24029.0
28	18	15	48	732	64.0	-132298.0	-3169.0	23832.0
28	18	15	48	733	65.0	-139974.0	-3176.0	23671.0
28	18	15	48	734	66.0	-149041.0	-3197.0	23131.0
28	18	15	48	735	67.0	-158437.0	-3243.0	22549.0
28	18	15	48	736	68.0	-167582.0	-3280.0	22447.0
28	18	15	48	736	69.0	-175799.0	-3330.0	22558.0
28	18	15	48	737	70.0	-182337.0	-3352.0	22706.0
28	18	15	48	738	71.0	-187502.0	-3386.0	23038.0
28	18	15	48	738	72.0	-191437.0	-3411.0	23203.0
28	18	15	48	739	73.0	-194744.0	-3424.0	22743.0
28	18	15	48	740	74.0	-197509.0	-3445.0	22679.0
28	18	15	48	740	75.0	-199680.0	-3469.0	22414.0
28	18	15	48	741	76.0	-201867.0	-3490.0	22001.0
28	18	15	48	742	77.0	-204257.0	-3507.0	21950.0
28	18	15	48	742	78.0	-206194.0	-3506.0	21755.0
28	18	15	48	743	80.0	-207389.0	-3561.0	21448.0
28	18	15	48	744	81.0	-206046.0	-3570.0	21739.0
28	18	15	48	744	82.0	-203181.0	-3570.0	21478.0
28	18	15	48	777	83.0	-199397.0	-3559.0	21506.0
28	18	15	48	822	84.0	-195364.0	-3527.0	21661.0
28	18	15	48	834	85.0	-190944.0	-3507.0	21866.0
28	18	15	48	834	86.0	-186116.0	-3492.0	21582.0
28	18	15	48	835	87.0	-180396.0	-3497.0	21454.0
28	18	15	48	836	88.0	-174314.0	-3516.0	20941.0
28	18	15	48	836	89.0	-168234.0	-3517.0	21181.0
28	18	15	48	837	90.0	-162962.0	-3527.0	21774.0
28	18	15	48	838	91.0	-158532.0	-3527.0	21988.0
28	18	15	48	839	92.0	-155767.0	-3549.0	22173.0
28	18	15	48	839	93.0	-154853.0	-3564.0	22720.0
28	18	15	48	840	94.0	-155541.0	-3569.0	22561.0
28	18	15	48	841	95.0	-158729.0	-3592.0	21462.0
28	18	15	48	841	96.0	-164126.0	-3624.0	20683.0
28	18	15	48	842	97.0	-171206.0	-3632.0	20436.0
28	18	15	48	843	102.0	-240054.0	-3717.0	23016.0
28	18	15	48	843	125.0	-90424.0	-3858.0	19016.0
28	18	15	48	844	126.0	-68210.0	-3844.0	17774.0
28	18	15	48	845	127.0	-47527.0	-3824.0	16059.0
28	18	15	48	845	128.0	-29981.0	-3811.0	15291.0
28	18	15	48	846	129.0	-16186.0	-3817.0	15503.0
28	18	15	48	847	130.0	-5889.0	-3827.0	15688.0
28	18	15	48	866	131.0	884.0	-3807.0	16684.0
28	18	15	48	883	132.0	3018.0	-3825.0	17948.0
28	18	15	48	884	133.0	265.0	-3812.0	17929.0
28	18	15	48	884	134.0	-7175.0	-3810.0	17769.0
28	18	15	48	885	135.0	-19305.0	-3814.0	17734.0
28	18	15	48	886	136.0	-35859.0	-3786.0	17814.0
28	18	15	48	887	137.0	-55699.0	-3811.0	18044.0
28	18	15	48	887	138.0	-77985.0	-3823.0	19915.0
28	18	15	48	888	139.0	-100881.0	-3820.0	24809.0
28	18	15	48	889	140.0	-122686.0	-3822.0	29453.0
28	18	15	48	889	141.0	-142841.0	-3806.0	34398.0
28	18	15	48	890	142.0	-160853.0	-3792.0	35913.0
28	18	15	48	891	143.0	-176585.0	-3807.0	34869.0
28	18	15	48	891	144.0	-189934.0	-3825.0	33963.0
28	18	15	48	892	145.0	-201559.0	-3834.0	29278.0
28	18	15	48	892	147.0	-224017.0	-3859.0	23873.0
28	18	15	48	893	148.0	-237574.0	-3905.0	21663.0
28	18	15	48	894	149.0	-255090.0	-3901.0	18778.0
28	18	15	48	894	150.0	-277445.0	-3915.0	18658.0
28	18	15	48	895	151.0	-304504.0	-3929.0	22068.0
28	18	15	48	896	152.0	-334180.0	-3906.0	23164.0
28	18	15	48	910	153.0	-364070.0	-3885.0	21624.0
28	18	15	48	912	154.0	-392577.0	-3891.0	19654.0
28	18	15	48	912	155.0	-416049.0	-3863.0	17997.0
28	18	15	48	913	156.0	-434889.0	-3871.0	16280.0
28	18	15	48	914	157.0	-448886.0	-3881.0	14659.0
28	18	15	48	915	158.0	-456371.0	-3928.0	13479.0
28	18	15	48	915	159.0	-455185.0	-3943.0	13360.0
28	18	15	48	916	160.0	-435737.0	-3936.0	12869.0
28	18	15	48	917	161.0	-391999.0	-3931.0	12109.0
28	18	15	48	918	162.0	-332602.0	-3922.0	12113.0
28	18	15	48	918	163.0	-271827.0	-3917.0	11968.0
28	18	15	48	919	164.0	-223952.0	-3919.0	11122.0
28	18	15	48	920	165.0	-200235.0	-3904.0	10989.0
28	18	15	48	921	166.0	-201475.0	-3898.0	10992.0
28	18	15	48	922	167.0	-216566.0	-3908.0	10533.0
28	18	15	48	922	169.0	-230169.0	-3887.0	10039.0
28	18	15	48	923	170.0	-222011.0	-3869.0	10575.0
28	18	15	48	924	171.0	-211717.0	-3827.0	10394.0
28	18	15	48	925	172.0	-206117.0	-3799.0	10623.0
28	18	15	48	925	173.0	-201921.0	-3774.0	10876.0
28	18	15	48	926	174.0	-192381.0	-3765.0	10665.0
28	18	15	48	927	175.0	-178317.0	-3761.0	10554.0
28	18	15	48	956	176.0	-159406.0	-3764.0	9933.0
28	18	15	48	957	177.0	-129586.0	-3736.0	9474.0
28	18	15	48	958	178.0	-100939.0	-3760.0	9116.0
28	18	15	48	958	179.0	-79224.0	-3782.0	9138.0
28	18	15	48	959	180.0	-63554.0	-3782.0	9268.0
28	18	15	48	960	181.0	-55974.0	-3794.0	9885.0
28	18	15	48	961	182.0	-53737.0	-3799.0	9959.0
28	18	15	48	961	183.0	-54850.0	-3802.0	9734.0
28	18	15	48	962	184.0	-57438.0	-3794.0	9573.0
28	18	15	48	963	185.0	-59922.0	-3792.0	9341.0
28	18	15	48	963	186.0	-60467.0	-3798.0	8844.0
28	18	15	48	964	187.0	-56049.0	-3799.0	9194.0
28	18	15	48	965	188.0	-47099.0	-3796.0	9552.0
28	18	15	48	966	189.0	-37119.0	-3806.0	9995.0
28	18	15	48	966	190.0	-29067.0	-3847.0	10070.0
28	18	15	48	967	192.0	-26689.0	-3895.0	10424.0
28	18	15	48	968	193.0	-32849.0	-3929.0	10373.0
28	18	15	48	968	194.0	-42567.0	-3922.0	10158.0
28	18	15	48	969	195.0	-56372.0	-3909.0	9498.0
28	18	15	48	970	196.0	-75266.0	-3907.0	9439.0
28	18	15	48	970	197.0	-98751.0	-3897.0	9337.0
28	18	15	49	0	198.0	-125516.0	-3897.0	8858.0
28	18	15	49	1	199.0	-153944.0	-3890.0	8448.0
28	18	15	49	2	200.0	-181399.0	-3921.0	8442.0
28	18	15	49	3	201.0	-206180.0	-3936.0	8848.0
28	18	15	49	4	202.0	-228843.0	-3930.0	8529.0
28	18	15	49	4	203.0	-250189.0	-3925.0	8221.0
28	18	15	49	5	204.0	-270829.0	-3939.0	8228.0
28	18	15	49	6	205.0	-290516.0	-3957.0	7524.0
28	18	15	49	7	206.0	-308461.0	-3984.0	7039.0
28	18	15	49	7	207.0	-324562.0	-3981.0	6740.0
28	18	15	49	8	208.0	-339002.0	-4002.0	6356.0
28	18	15	49	9	209.0	-351834.0	-4016.0	6119.0
28	18	15	49	10	210.0	-363098.0	-4007.0	6248.0
28	18	15	49	11	211.0	-372888.0	-4002.0	5854.0
28	18	15	49	12	212.0	-380354.0	-4006.0	5873.0
28	18	15	49	12	214.0	-387150.0	-4016.0	5407.0
28	18	15	49	13	215.0	-385158.0	-4026.0	5026.0
28	18	15	49	14	216.0	-378532.0	-4025.0	4423.0
28	18	15	49	15	217.0	-368299.0	-4007.0	4598.0
28	18	15	49	15	218.0	-354941.0	-3976.0	4411.0
28	18	15	49	16	219.0	-339485.0	-3949.0	4602.0
28	18	15	49	17	220.0	-323399.0	-3935.0	4413.0
28	18	15	49	46	221.0	-306936.0	-3921.0	4687.0
28	18	15	49	93	222.0	-291482.0	-3896.0	4795.0
28	18	15	49	94	223.0	-277926.0	-3897.0	4456.0
28	18	15	49	94	224.0	-266258.0	-3891.0	3964.0
28	18	15	49	95	225.0	-255292.0	-3904.0	3846.0
28	18	15	49	96	226.0	-245066.0	-3899.0	3328.0
28	18	15	49	97	227.0	-235925.0	-3878.0	2816.0
28	18	15	49	97	228.0	-227611.0	-3867.0	2596.0
28	18	15	49	98	229.0	-220094.0	-3866.0	2521.0
28	18	15	49	99	230.0	-212679.0	-3885.0	2536.0
28	18	15	49	100	231.0	-204580.0	-3899.0	3385.0
28	18	15	49	101	232.0	-195763.0	-3877.0	3644.0
28	18	15	49	101	233.0	-184966.0	-3893.0	3263.0
28	18	15	49	102	234.0	-172534.0	-3912.0	2869.0
28	18	15	49	103	235.0	-157975.0	-3926.0	3013.0
28	18	15	49	104	237.0	-123571.0	-3959.0	2143.0
28	18	15	49	104	238.0	-104901.0	-4025.0	2522.0
28	18	15	49	105	3.0	-272916.0	-3721.0	2400.0
28	18	15	49	106	4.0	-285275.0	-3684.0	2856.0
28	18	15	49	106	5.0	-295246.0	-3640.0	3497.0
28	18	15	49	107	6.0	-303367.0	-3614.0	3712.0
28	18	15	49	108	7.0	-309507.0	-3566.0	3459.0
28	18	15	49	108	8.0	-313203.0	-3534.0	3206.0
28	18	15	49	109	9.0	-314721.0	-3482.0	3359.0
28	18	15	49	152	10.0	-314564.0	-3441.0	3269.0
28	18	15	49	167	11.0	-312852.0	-3395.0	3384.0
28	18	15	49	190	12.0	-310124.0	-3343.0	2901.0
28	18	15	49	190	13.0	-305341.0	-3322.0	3368.0
28	18	15	49	191	14.0	-299103.0	-3294.0	3988.0
28	18	15	49	192	15.0	-291395.0	-3243.0	4119.0
28	18	15	49	192	16.0	-281800.0	-3196.0	4168.0
28	18	15	49	193	17.0	-270111.0	-3172.0	4700.0
28	18	15	49	193	18.0	-256569.0	-3133.0	4169.0
28	18	15	49	194	19.0	-241088.0	-3117.0	4441.0
28	18	15	49	195	20.0	-223651.0	-3099.0	4848.0
28	18	15	49	195	21.0	-205157.0	-3045.0	4896.0
28	18	15	49	196	22.0	-185519.0	-3006.0	4842.0
28	18	15	49	197	23.0	-165296.0	-2974.0	5343.0
28	18	15	49	197	24.0	-144859.0	-2944.0	5445.0
28	18	15	49	198	33.0	-95017.0	-2567.0	7638.0
28	18	15	49	199	41.0	-198705.0	-2307.0	8210.0
28	18	15	49	199	48.0	-310912.0	-2144.0	8856.0
28	18	15	49	200	49.0	-331077.0	-2116.0	9035.0
28	18	15	49	200	50.0	-339585.0	-2071.0	8681.0
28	18	15	49	201	51.0	-343402.0	-2094.0	8990.0
28	18	15	49	202	52.0	-344969.0	-2083.0	8969.0
28	18	15	49	202	53.0	-341186.0	-2055.0	8511.0
28	18	15	49	203	54.0	-331537.0	-2024.0	8886.0
28	18	15	49	203	55.0	-318106.0	-1989.0	8976.0
28	18	15	49	213	56.0	-302565.0	-1968.0	8610.0
28	18	15	49	213	57.0	-286241.0	-1914.0	8559.0
28	18	15	49	214	58.0	-268888.0	-1857.0	8895.0
28	18	15	49	215	59.0	-249081.0	-1827.0	8434.0
28	18	15	49	216	60.0	-227614.0	-1815.0	8043.0
28	18	15	49	216	61.0	-205341.0	-1814.0	8425.0
28	18	15	49	217	62.0	-182744.0	-1820.0	8601.0
28	18	15	49	218	63.0	-161461.0	-1798.0	8696.0
28	18	15	49	218	64.0	-140791.0	-1775.0	9373.0
28	18	15	49	219	65.0	-120899.0	-1749.0	9421.0
28	18	15	49	235	66.0	-102688.0	-1701.0	9503.0
28	18	15	49	236	67.0	-86507.0	-1645.0	9489.0
28	18	15	49	237	68.0	-72062.0	-1645.0	9506.0
28	18	15	49	238	69.0	-59961.0	-1626.0	9411.0
28	18	15	49	238	70.0	-51197.0	-1617.0	9127.0
28	18	15	49	240	71.0	-46502.0	-1612.0	8779.0
28	18	15	49	240	72.0	-46259.0	-1602.0	8553.0
28	18	15	49	241	73.0	-50411.0	-1590.0	8519.0
28	18	15	49	242	74.0	-58957.0	-1587.0	8825.0
28	18	15	49	242	75.0	-70110.0	-1584.0	9572.0
28	18	15	49	243	76.0	-83969.0	-1586.0	10071.0
28	18	15	49	244	77.0	-99774.0	-1582.0	9905.0
28	18	15	49	245	78.0	-116853.0	-1589.0	9631.0
28	18	15	49	245	79.0	-135636.0	-1611.0	9481.0
28	18	15	49	258	80.0	-154782.0	-1586.0	9483.0
28	18	15	49	259	81.0	-173612.0	-1574.0	9159.0
28	18	15	49	260	82.0	-192116.0	-1547.0	9073.0
28	18	15	49	261	83.0	-209100.0	-1558.0	8874.0
28	18	15	49	261	84.0	-223012.0	-1561.0	8828.0
28	18	15	49	262	85.0	-234094.0	-1580.0	9454.0
28	18	15	49	263	86.0	-242936.0	-1566.0	9729.0
28	18	15	49	285	87.0	-249486.0	-1539.0	9646.0
28	18	15	49	285	88.0	-253960.0	-1516.0	9744.0
28	18	15	49	286	89.0	-256797.0	-1519.0	10086.0
28	18	15	49	287	90.0	-257875.0	-1529.0	9871.0
28	18	15	49	288	91.0	-257857.0	-1531.0	9304.0
28	18	15	49	289	92.0	-256806.0	-1507.0	9376.0
28	18	15	49	289	93.0	-253879.0	-1514.0	9616.0
28	18	15	49	290	94.0	-249470.0	-1508.0	9836.0
28	18	15	49	291	95.0	-243859.0	-1504.0	10179.0
28	18	15	49	291	96.0	-236536.0	-1513.0	9898.0
28	18	15	49	292	97.0	-228256.0	-1523.0	9732.0
28	18	15	49	293	98.0	-221114.0	-1539.0	9693.0
28	18	15	49	293	99.0	-216655.0	-1541.0	9947.0
28	18	15	49	294	100.0	-215306.0	-1562.0	9551.0
28	18	15	49	294	101.0	-217581.0	-1561.0	9326.0
28	18	15	49	307	102.0	-222539.0	-1554.0	9942.0
28	18	15	49	308	103.0	-229662.0	-1519.0	10404.0
28	18	15	49	309	104.0	-238155.0	-1497.0	10253.0
28	18	15	49	309	105.0	-246558.0	-1504.0	10583.0
28	18	15	49	310	106.0	-254722.0	-1484.0	10823.0
28	18	15	49	311	107.0	-262316.0	-1476.0	10491.0
28	18	15	49	311	108.0	-268984.0	-1464.0	10521.0
28	18	15	49	312	109.0	-274676.0	-1462.0	10514.0
28	18	15	49	330	110.0	-278931.0	-1438.0	10284.0
28	18	15	49	331	111.0	-281225.0	-1401.0	9981.0
28	18	15	49	332	112.0	-281419.0	-1405.0	10147.0
28	18	15	49	333	113.0	-279449.0	-1399.0	10591.0
28	18	15	49	334	114.0	-274943.0	-1396.0	11023.0
28	18	15	49	334	115.0	-267926.0	-1368.0	10664.0
28	18	15	49	335	116.0	-258333.0	-1379.0	10274.0
28	18	15	49	336	117.0	-247234.0	-1344.0	10074.0
28	18	15	49	336	118.0	-234461.0	-1309.0	10131.0
28	18	15	49	337	119.0	-220493.0	-1276.0	10122.0
28	18	15	49	337	120.0	-205774.0	-1263.0	10718.0
28	18	15	49	338	121.0	-190214.0	-1288.0	10831.0
28	18	15	49	339	122.0	-174013.0	-1301.0	10173.0
28	18	15	49	339	123.0	-157121.0	-1298.0	10474.0
28	18	15	49	340	124.0	-138974.0	-1325.0	10403.0
28	18	15	49	353	125.0	-120347.0	-1313.0	10445.0
28	18	15	49	353	126.0	-101942.0	-1357.0	10613.0
28	18	15	49	354	127.0	-84382.0	-1416.0	10774.0
28	18	15	49	355	128.0	-68762.0	-1441.0	10499.0
28	18	15	49	356	129.0	-55264.0	-1475.0	10749.0
28	18	15	49	356	130.0	-45021.0	-1499.0	10721.0
28	18	15	49	357	131.0	-39550.0	-1513.0	10133.0
28	18	15	49	376	132.0	-39682.0	-1514.0	9850.0
28	18	15	49	377	133.0	-45201.0	-1519.0	10340.0
28	18	15	49	377	134.0	-56559.0	-1527.0	10476.0
28	18	15	49	378	135.0	-73005.0	-1570.0	10638.0
28	18	15	49	379	136.0	-93400.0	-1606.0	10756.0
28	18	15	49	380	137.0	-116544.0	-1611.0	11123.0
28	18	15	49	380	138.0	-141012.0	-1606.0	10609.0
28	18	15	49	381	139.0	-165949.0	-1607.0	10546.0
28	18	15	49	381	140.0	-190252.0	-1581.0	10313.0
28	18	15	49	382	141.0	-213640.0	-1536.0	9724.0
28	18	15	49	383	142.0	-236087.0	-1534.0	9206.0
28	18	15	49	383	143.0	-256936.0	-1519.0	9590.0
28	18	15	49	384	144.0	-275126.0	-1531.0	9709.0
28	18	15	49	384	145.0	-290796.0	-1552.0	10098.0
28	18	15	49	385	146.0	-304905.0	-1537.0	10419.0
28	18	15	49	400	147.0	-318002.0	-1517.0	10708.0
28	18	15	49	401	148.0	-330714.0	-1522.0	10531.0
28	18	15	49	401	149.0	-342601.0	-1524.0	10371.0
28	18	15	49	402	150.0	-354225.0	-1533.0	10149.0
28	18	15	49	403	151.0	-365542.0	-1554.0	9986.0
28	18	15	49	403	152.0	-375205.0	-1586.0	9802.0
28	18	15	49	404	153.0	-381769.0	-1621.0	10054.0
28	18	15	49	405	154.0	-384452.0	-1651.0	9918.0
28	18	15	49	406	155.0	-384008.0	-1658.0	9867.0
28	18	15	49	407	156.0	-380317.0	-1641.0	9948.0
28	18	15	49	407	157.0	-373131.0	-1653.0	10083.0
28	18	15	49	408	158.0	-362966.0	-1661.0	10203.0
28	18	15	49	409	159.0	-350440.0	-1661.0	10198.0
28	18	15	49	410	160.0	-335294.0	-1699.0	10008.0
28	18	15	49	410	161.0	-317843.0	-1718.0	10209.0
28	18	15	49	429	162.0	-297929.0	-1700.0	9865.0
28	18	15	49	431	163.0	-275386.0	-1695.0	9503.0
28	18	15	49	432	164.0	-251230.0	-1685.0	10079.0
28	18	15	49	433	165.0	-226499.0	-1682.0	10857.0
28	18	15	49	434	166.0	-201576.0	-1685.0	10513.0
28	18	15	49	434	167.0	-177199.0	-1666.0	10409.0
28	18	15	49	435	168.0	-154172.0	-1677.0	10301.0
28	18	15	49	435	169.0	-132710.0	-1679.0	9998.0
28	18	15	49	436	170.0	-112446.0	-1664.0	9780.0
28	18	15	49	437	171.0	-93550.0	-1678.0	9713.0
28	18	15	49	437	172.0	-75633.0	-1661.0	9592.0
28	18	15	49	438	173.0	-59297.0	-1662.0	9717.0
28	18	15	49	438	174.0	-45071.0	-1659.0	10276.0
28	18	15	49	439	175.0	-32776.0	-1653.0	10391.0
28	18	15	49	440	176.0	-22829.0	-1660.0	10489.0
28	18	15	49	452	177.0	-15612.0	-1639.0	10476.0
28	18	15	49	452	178.0	-10396.0	-1639.0	10497.0
28	18	15	49	453	179.0	-7197.0	-1647.0	10131.0
28	18	15	49	454	180.0	-6612.0	-1650.0	9804.0
28	18	15	49	454	181.0	-9076.0	-1642.0	9763.0
28	18	15	49	455	182.0	-14624.0	-1651.0	8923.0
28	18	15	49	455	183.0	-23029.0	-1642.0	9289.0
28	18	15	49	456	184.0	-33629.0	-1654.0	9981.0
28	18	15	49	471	185.0	-46711.0	-1646.0	10679.0
28	18	15	49	472	186.0	-62132.0	-1637.0	10539.0
28	18	15	49	472	187.0	-78997.0	-1638.0	10389.0
28	18	15	49	473	188.0	-97654.0	-1657.0	10152.0
28	18	15	49	473	189.0	-117555.0	-1641.0	10138.0
28	18	15	49	474	190.0	-137766.0	-1643.0	9813.0
28	18	15	49	474	191.0	-157722.0	-1642.0	9679.0
28	18	15	49	494	192.0	-176943.0	-1612.0	9599.0
28	18	15	49	494	193.0	-195802.0	-1591.0	9804.0
28	18	15	49	495	194.0	-214448.0	-1562.0	10063.0
28	18	15	49	496	195.0	-232997.0	-1548.0	10433.0
28	18	15	49	496	196.0	-252328.0	-1539.0	10361.0
28	18	15	49	497	197.0	-271762.0	-1526.0	10322.0
28	18	15	49	497	198.0	-290957.0	-1518.0	9816.0
28	18	15	49	498	199.0	-309044.0	-1504.0	9523.0
28	18	15	49	499	200.0	-325101.0	-1469.0	8766.0
28	18	15	49	499	201.0	-338467.0	-1437.0	8399.0
28	18	15	49	500	202.0	-349934.0	-1444.0	8388.0
28	18	15	49	500	203.0	-359737.0	-1457.0	8904.0
28	18	15	49	501	204.0	-367169.0	-1447.0	9444.0
28	18	15	49	501	205.0	-372515.0	-1430.0	10603.0
28	18	15	49	502	206.0	-375846.0	-1422.0	10803.0
28	18	15	49	516	207.0	-377086.0	-1382.0	10320.0
28	18	15	49	517	208.0	-376049.0	-1362.0	10164.0
28	18	15	49	518	209.0	-372467.0	-1368.0	10449.0
28	18	15	49	518	210.0	-366129.0	-1367.0	10095.0
28	18	15	49	519	211.0	-356866.0	-1374.0	9704.0
28	18	15	49	520	212.0	-345747.0	-1417.0	10031.0
28	18	15	49	520	213.0	-332823.0	-1407.0	10076.0
28	18	15	49	540	214.0	-318037.0	-1391.0	9972.0
28	18	15	49	541	215.0	-301766.0	-1368.0	10426.0
28	18	15	49	541	216.0	-283656.0	-1319.0	10456.0
28	18	15	49	542	217.0	-264078.0	-1287.0	9983.0
28	18	15	49	543	218.0	-242964.0	-1273.0	9966.0
28	18	15	49	543	219.0	-220919.0	-1267.0	9726.0
28	18	15	49	544	220.0	-198721.0	-1246.0	9102.0
28	18	15	49	544	221.0	-177132.0	-1242.0	8871.0
28	18	15	49	545	222.0	-156595.0	-1219.0	8867.0
28	18	15	49	546	223.0	-137634.0	-1219.0	8946.0
28	18	15	49	546	224.0	-120505.0	-1197.0	9331.0
28	18	15	49	547	225.0	-105547.0	-1207.0	9706.0
28	18	15	49	547	226.0	-92776.0	-1206.0	9844.0
28	18	15	49	548	227.0	-81224.0	-1201.0	9973.0
28	18	15	49	548	228.0	-71621.0	-1220.0	9966.0
28	18	15	49	563	229.0	-63766.0	-1222.0	9854.0
28	18	15	49	564	230.0	-57033.0	-1200.0	9629.0
28	18	15	49	564	231.0	-52069.0	-1204.0	9449.0
28	18	15	49	565	232.0	-49405.0	-1200.0	8978.0
28	18	15	49	565	233.0	-48514.0	-1181.0	9047.0
28	18	15	49	566	234.0	-48876.0	-1181.0	8752.0
28	18	15	49	567	235.0	-51376.0	-1186.0	8946.0
28	18	15	49	567	236.0	-55910.0	-1186.0	9131.0
28	18	15	49	586	237.0	-62434.0	-1159.0	9373.0
28	18	15	49	586	238.0	-71224.0	-1139.0	8940.0
28	18	15	49	587	239.0	-82401.0	-1121.0	8931.0
28	18	15	49	587	240.0	-96690.0	-1115.0	9168.0
28	18	15	49	588	241.0	-114836.0	-1106.0	9206.0
28	18	15	49	589	242.0	-136410.0	-1108.0	8851.0
28	18	15	49	589	243.0	-160374.0	-1104.0	9276.0
28	18	15	49	590	244.0	-185019.0	-1075.0	9249.0
28	18	15	49	590	245.0	-209757.0	-1055.0	9065.0
28	18	15	49	591	246.0	-232946.0	-1029.0	8724.0
28	18	15	49	592	247.0	-254062.0	-1047.0	8676.0
28	18	15	49	592	248.0	-273019.0	-1052.0	8416.0
28	18	15	49	593	249.0	-289978.0	-1038.0	8778.0
28	18	15	49	593	250.0	-305827.0	-1030.0	9282.0
28	18	15	49	594	251.0	-320406.0	-1047.0	9194.0
28	18	15	49	607	252.0	-332069.0	-1040.0	9101.0
28	18	15	49	608	253.0	-340126.0	-1009.0	9591.0
28	18	15	49	608	254.0	-345195.0	-1004.0	9693.0
28	18	15	49	609	255.0	-346947.0	-1016.0	10048.0
28	18	15	49	610	0.0	-345091.0	-1067.0	10334.0
28	18	15	49	610	1.0	-339969.0	-1087.0	10277.0
28	18	15	49	611	2.0	-332156.0	-1089.0	9810.0
28	18	15	49	631	3.0	-321725.0	-1076.0	9426.0
28	18	15	49	631	4.0	-309644.0	-1066.0	9146.0
28	18	15	49	632	5.0	-296313.0	-1071.0	8843.0
28	18	15	49	633	6.0	-281826.0	-1124.0	8740.0
28	18	15	49	633	7.0	-266669.0	-1141.0	9058.0
28	18	15	49	634	8.0	-250602.0	-1151.0	9206.0
28	18	15	49	634	9.0	-233702.0	-1175.0	9818.0
28	18	15	49	635	10.0	-216644.0	-1210.0	10053.0
28	18	15	49	635	11.0	-200160.0	-1217.0	10431.0
28	18	15	49	636	12.0	-183466.0	-1206.0	10062.0
28	18	15	49	636	13.0	-166297.0	-1228.0	9489.0
28	18	15	49	637	14.0	-149083.0	-1266.0	8846.0
28	18	15	49	637	15.0	-131822.0	-1262.0	8655.0
28	18	15	49	638	16.0	-114961.0	-1267.0	8728.0
28	18	15	49	639	17.0	-99026.0	-1292.0	9071.0
28	18	15	49	653	18.0	-84566.0	-1305.0	9286.0
28	18	15	49	654	19.0	-72189.0	-1294.0	9383.0
28	18	15	49	655	20.0	-62334.0	-1303.0	9060.0
28	18	15	49	655	21.0	-55760.0	-1323.0	8779.0
28	18	15	49	656	22.0	-52744.0	-1346.0	8804.0
28	18	15	49	656	23.0	-54079.0	-1361.0	8741.0
28	18	15	49	657	24.0	-60153.0	-1384.0	8770.0
28	18	15	49	657	25.0	-70497.0	-1385.0	9161.0
28	18	15	49	677	26.0	-83657.0	-1421.0	8608.0
28	18	15	49	678	27.0	-98579.0	-1449.0	8289.0
28	18	15	49	678	28.0	-115133.0	-1454.0	8694.0
28	18	15	49	679	29.0	-132560.0	-1462.0	9074.0
28	18	15	49	679	30.0	-149474.0	-1441.0	8739.0
28	18	15	49	680	31.0	-166154.0	-1426.0	8656.0
28	18	15	49	681	32.0	-181856.0	-1417.0	8626.0
28	18	15	49	681	33.0	-196599.0	-1421.0	8250.0
28	18	15	49	682	34.0	-210201.0	-1392.0	7693.0
28	18	15	49	682	35.0	-222741.0	-1384.0	6605.0
28	18	15	49	683	36.0	-234426.0	-1386.0	4798.0
28	18	15	49	683	37.0	-245372.0	-1391.0	3928.0
28	18	15	49	684	38.0	-255286.0	-1384.0	4613.0
28	18	15	49	684	39.0	-263983.0	-1362.0	5079.0
28	18	15	49	685	40.0	-272171.0	-1347.0	5800.0
28	18	15	49	700	41.0	-280006.0	-1350.0	6910.0
28	18	15	49	700	42.0	-286977.0	-1328.0	6686.0
28	18	15	49	701	43.0	-293014.0	-1351.0	6433.0
28	18	15	49	702	44.0	-297057.0	-1352.0	6994.0
28	18	15	49	702	45.0	-298883.0	-1354.0	7219.0
28	18	15	49	703	46.0	-297956.0	-1388.0	7984.0
28	18	15	49	703	47.0	-293032.0	-1421.0	12121.0
28	18	15	49	723	48.0	-282541.0	-1425.0	17789.0
28	18	15	49	724	49.0	-266942.0	-1416.0	22883.0
28	18	15	49	724	50.0	-246219.0	-1402.0	25914.0
28	18	15	49	725	51.0	-220540.0	-1422.0	25346.0
28	18	15	49	725	52.0	-191276.0	-1441.0	24342.0
28	18	15	49	726	53.0	-160826.0	-1430.0	23065.0
28	18	15	49	726	54.0	-131053.0	-1434.0	18686.0
28	18	15	49	727	55.0	-104634.0	-1446.0	16064.0
28	18	15	49	728	56.0	-83648.0	-1437.0	15341.0
28	18	15	49	728	57.0	-71306.0	-1439.0	13786.0
28	18	15	49	729	58.0	-68748.0	-1482.0	10675.0
28	18	15	49	729	59.0	-74870.0	-1534.0	12033.0
28	18	15	49	730	60.0	-89015.0	-1542.0	15190.0
28	18	15	49	730	61.0	-108934.0	-1570.0	15508.0
28	18	15	49	731	62.0	-132002.0	-1579.0	14656.0
28	18	15	49	747	63.0	-156386.0	-1555.0	13536.0
28	18	15	49	748	64.0	-180428.0	-1532.0	12133.0
28	18	15	49	748	65.0	-203697.0	-1545.0	10598.0
28	18	15	49	749	66.0	-226696.0	-1576.0	9786.0
28	18	15	49	749	67.0	-246582.0	-1611.0	9421.0
28	18	15	49	750	68.0	-259179.0	-1652.0	8616.0
28	18	15	49	750	69.0	-254596.0	-1669.0	8208.0
28	18	15	49	751	70.0	-229734.0	-1674.0	7809.0
28	18	15	49	751	71.0	-192346.0	-1655.0	7108.0
28	18	15	49	770	72.0	-158329.0	-1652.0	6942.0
28	18	15	49	770	73.0	-137847.0	-1664.0	7120.0
28	18	15	49	771	74.0	-141559.0	-1679.0	6642.0
28	18	15	49	772	75.0	-168433.0	-1679.0	6408.0
28	18	15	49	772	76.0	-205641.0	-1706.0	6458.0
28	18	15	49	773	77.0	-234355.0	-1727.0	6366.0
28	18	15	49	773	78.0	-249685.0	-1718.0	6571.0
28	18	15	49	774	79.0	-256505.0	-1729.0	6669.0
28	18	15	49	775	80.0	-262541.0	-1758.0	6453.0
28	18	15	49	775	81.0	-270709.0	-1771.0	5996.0
28	18	15	49	776	82.0	-277923.0	-1761.0	5716.0
28	18	15	49	776	83.0	-279262.0	-1764.0	5676.0
28	18	15	49	777	84.0	-269432.0	-1757.0	5660.0
28	18	15	49	777	85.0	-250978.0	-1744.0	6285.0
28	18	15	49	778	86.0	-233006.0	-1726.0	6707.0
28	18	15	49	778	87.0	-216429.0	-1709.0	6683.0
28	18	15	49	779	88.0	-201152.0	-1682.0	6724.0
28	18	15	49	780	89.0	-194206.0	-1674.0	6768.0
28	18	15	49	780	90.0	-188612.0	-1666.0	6882.0
28	18	15	49	793	91.0	-184735.0	-1650.0	6836.0
28	18	15	49	816	92.0	-187261.0	-1647.0	6481.0
28	18	15	49	817	93.0	-194582.0	-1632.0	6446.0
28	18	15	49	818	94.0	-204901.0	-1647.0	6611.0
28	18	15	49	818	95.0	-213866.0	-1642.0	6568.0
28	18	15	49	819	96.0	-220832.0	-1641.0	5624.0
28	18	15	49	819	97.0	-226009.0	-1642.0	5994.0
28	18	15	49	820	98.0	-230924.0	-1630.0	6304.0
28	18	15	49	820	99.0	-236447.0	-1607.0	6025.0
28	18	15	49	821	100.0	-241875.0	-1582.0	5952.0
28	18	15	49	841	101.0	-245782.0	-1547.0	6204.0
28	18	15	49	841	102.0	-247021.0	-1518.0	5829.0
28	18	15	49	842	103.0	-246126.0	-1514.0	5976.0
28	18	15	49	843	104.0	-243961.0	-1504.0	6543.0
28	18	15	49	843	105.0	-241346.0	-1483.0	6413.0
28	18	15	49	844	106.0	-237625.0	-1492.0	6147.0
28	18	15	49	844	107.0	-235767.0	-1509.0	6467.0
28	18	15	49	845	108.0	-232832.0	-1538.0	6498.0
28	18	15	49	845	109.0	-228206.0	-1547.0	6513.0
28	18	15	49	846	110.0	-221826.0	-1550.0	6922.0
28	18	15	49	847	111.0	-211376.0	-1554.0	6866.0
28	18	15	49	847	112.0	-198809.0	-1560.0	6139.0
28	18	15	49	848	113.0	-184835.0	-1559.0	6053.0
28	18	15	49	848	114.0	-170171.0	-1552.0	6000.0
28	18	15	49	849	115.0	-156106.0	-1567.0	5658.0
28	18	15	49	849	116.0	-142094.0	-1555.0	5408.0
28	18	15	49	850	117.0	-129103.0	-1552.0	5708.0
28	18	15	49	850	118.0	-118812.0	-1539.0	5649.0
28	18	15	49	851	119.0	-111744.0	-1514.0	5908.0
28	18	15	49	852	120.0	-107858.0	-1524.0	5496.0
28	18	15	49	863	121.0	-107090.0	-1547.0	5316.0
28	18	15	49	864	122.0	-109207.0	-1553.0	5133.0
28	18	15	49	865	123.0	-114936.0	-1566.0	4843.0
28	18	15	49	865	124.0	-123696.0	-1597.0	4288.0
28	18	15	49	866	125.0	-135194.0	-1622.0	4182.0
28	18	15	49	866	126.0	-148617.0	-1624.0	4029.0
28	18	15	49	867	127.0	-163672.0	-1637.0	4566.0
28	18	15	49	867	128.0	-179614.0	-1647.0	4934.0
28	18	15	49	868	129.0	-194966.0	-1665.0	4918.0
28	18	15	49	869	130.0	-208926.0	-1676.0	4756.0
28	18	15	49	869	131.0	-222245.0	-1658.0	5145.0
28	18	15	49	886	132.0	-234920.0	-1671.0	5361.0
28	18	15	49	887	133.0	-246400.0	-1676.0	5078.0
28	18	15	49	888	134.0	-256678.0	-1681.0	4425.0
28	18	15	49	888	135.0	-264698.0	-1692.0	4216.0
28	18	15	49	889	136.0	-270480.0	-1739.0	3989.0
28	18	15	49	890	137.0	-275239.0	-1754.0	3818.0
28	18	15	49	890	138.0	-277960.0	-1777.0	4433.0
28	18	15	49	891	139.0	-279446.0	-1797.0	5008.0
28	18	15	49	909	140.0	-279877.0	-1812.0	5103.0
28	18	15	49	910	141.0	-278098.0	-1812.0	5543.0
28	18	15	49	910	142.0	-275521.0	-1826.0	5633.0
28	18	15	49	911	143.0	-270679.0	-1814.0	5389.0
28	18	15	49	911	144.0	-264032.0	-1812.0	4936.0
28	18	15	49	912	145.0	-256412.0	-1809.0	5363.0
28	18	15	49	913	146.0	-247446.0	-1774.0	5296.0
28	18	15	49	913	147.0	-235927.0	-1748.0	5484.0
28	18	15	49	914	148.0	-223592.0	-1737.0	6364.0
28	18	15	49	914	149.0	-210174.0	-1720.0	7194.0
28	18	15	49	915	150.0	-195842.0	-1674.0	7421.0
28	18	15	49	915	151.0	-181682.0	-1670.0	7381.0
28	18	15	49	916	152.0	-167667.0	-1672.0	7497.0
28	18	15	49	917	153.0	-154448.0	-1658.0	7858.0
28	18	15	49	917	154.0	-142479.0	-1626.0	7443.0
28	18	15	49	918	155.0	-131643.0	-1634.0	7389.0
28	18	15	49	919	156.0	-122837.0	-1637.0	6976.0
28	18	15	49	919	157.0	-115871.0	-1647.0	7308.0
28	18	15	49	920	158.0	-111154.0	-1640.0	7676.0
28	18	15	49	920	159.0	-109167.0	-1618.0	8257.0
28	18	15	49	932	160.0	-109502.0	-1580.0	9091.0
28	18	15	49	933	161.0	-112986.0	-1537.0	9439.0
28	18	15	49	933	162.0	-120546.0	-1512.0	9400.0
28	18	15	49	934	163.0	-130526.0	-1484.0	9469.0
28	18	15	49	935	164.0	-143701.0	-1461.0	9571.0
28	18	15	49	935	165.0	-159535.0	-1434.0	9809.0
28	18	15	49	936	166.0	-176329.0	-1442.0	9809.0
28	18	15	49	936	167.0	-193196.0	-1446.0	10034.0
28	18	15	49	961	168.0	-208194.0	-1407.0	10110.0
28	18	15	49	962	169.0	-222872.0	-1361.0	10229.0
28	18	15	49	963	170.0	-236394.0	-1351.0	10561.0
28	18	15	49	963	171.0	-248394.0	-1309.0	10454.0
28	18	15	49	964	172.0	-258585.0	-1276.0	10523.0
28	18	15	49	965	173.0	-267648.0	-1261.0	11325.0
28	18	15	49	965	174.0	-273737.0	-1244.0	11707.0
28	18	15	49	966	175.0	-277089.0	-1223.0	12186.0
28	18	15	49	967	176.0	-278439.0	-1205.0	11972.0
28	18	15	49	967	177.0	-276947.0	-1218.0	11821.0
28	18	15	49	968	178.0	-272733.0	-1209.0	11717.0
28	18	15	49	969	179.0	-265619.0	-1171.0	12290.0
28	18	15	49	969	180.0	-256957.0	-1121.0	12809.0
28	18	15	49	970	181.0	-246191.0	-1086.0	13058.0
28	18	15	49	971	182.0	-234179.0	-1047.0	13283.0
28	18	15	49	971	183.0	-221416.0	-996.0	13725.0
28	18	15	49	972	184.0	-206927.0	-936.0	13921.0
28	18	15	49	972	185.0	-191419.0	-881.0	13654.0
28	18	15	49	980	186.0	-175055.0	-846.0	13739.0
28	18	15	49	981	187.0	-160161.0	-787.0	14799.0
28	18	15	49	981	188.0	-146875.0	-732.0	15119.0
28	18	15	50	3	189.0	-135701.0	-699.0	16003.0
28	18	15	50	4	190.0	-128426.0	-639.0	16392.0
28	18	15	50	5	191.0	-125028.0	-578.0	16469.0
28	18	15	50	5	192.0	-124821.0	-559.0	16476.0
28	18	15	50	6	193.0	-128314.0	-541.0	16558.0
28	18	15	50	7	194.0	-133846.0	-515.0	15281.0
28	18	15	50	7	195.0	-142637.0	-491.0	13387.0
28	18	15	50	8	196.0	-153964.0	-484.0	12321.0
28	18	15	50	8	197.0	-166854.0	-459.0	11933.0
28	18	15	50	9	198.0	-180711.0	-436.0	11912.0
28	18	15	50	10	199.0	-195196.0	-405.0	12069.0
28	18	15	50	10	200.0	-208756.0	-390.0	11997.0
28	18	15	50	11	201.0	-221562.0	-432.0	12144.0
28	18	15	50	11	202.0	-232268.0	-396.0	12119.0
28	18	15	50	12	203.0	-239583.0	-359.0	11978.0
28	18	15	50	12	204.0	-244041.0	-356.0	12251.0
28	18	15	50	26	205.0	-243021.0	-329.0	11862.0
28	18	15	50	27	206.0	-231767.0	-305.0	11919.0
28	18	15	50	27	207.0	-206345.0	-261.0	12126.0
28	18	15	50	28	208.0	-195578.0	-244.0	12278.0
28	18	15	50	28	209.0	-216807.0	-234.0	12433.0
28	18	15	50	29	210.0	-250380.0	-214.0	12928.0
28	18	15	50	30	211.0	-277039.0	-199.0	13262.0
28	18	15	50	30	212.0	-298382.0	-189.0	12887.0
28	18	15	50	49	213.0	-310303.0	-170.0	12858.0
28	18	15	50	50	214.0	-312643.0	-139.0	13304.0
28	18	15	50	51	215.0	-312672.0	-104.0	13518.0
28	18	15	50	51	216.0	-311819.0	-87.0	14003.0
28	18	15	50	52	217.0	-306430.0	-89.0	14874.0
28	18	15	50	53	218.0	-295287.0	-71.0	14911.0
28	18	15	50	53	219.0	-281069.0	-68.0	15257.0
28	18	15	50	54	220.0	-265419.0	-54.0	15941.0
28	18	15	50	54	221.0	-248029.0	-11.0	16324.0
28	18	15	50	55	222.0	-228567.0	19.0	16547.0
28	18	15	50	56	223.0	-206849.0	16.0	16732.0
28	18	15	50	56	224.0	-182355.0	3.0	17251.0
28	18	15	50	57	225.0	-156763.0	12.0	17047.0
28	18	15	50	57	226.0	-131742.0	26.0	16659.0
28	18	15	50	58	227.0	-109582.0	46.0	17116.0
28	18	15	50	72	228.0	-91900.0	87.0	17454.0
28	18	15	50	73	229.0	-77116.0	123.0	17694.0
28	18	15	50	73	230.0	-67049.0	151.0	18048.0
28	18	15	50	74	231.0	-63063.0	169.0	17736.0
28	18	15	50	74	232.0	-62852.0	183.0	17356.0
28	18	15	50	75	233.0	-66417.0	215.0	17333.0
28	18	15	50	75	234.0	-71853.0	206.0	17260.0
28	18	15	50	95	235.0	-78720.0	213.0	17613.0
28	18	15	50	96	236.0	-87856.0	253.0	17575.0
28	18	15	50	96	237.0	-98096.0	265.0	18024.0
28	18	15	50	97	238.0	-109579.0	256.0	18607.0
28	18	15	50	98	239.0	-122274.0	286.0	19115.0
28	18	15	50	98	240.0	-136301.0	288.0	19083.0
28	18	15	50	99	241.0	-151122.0	306.0	19013.0
28	18	15	50	99	242.0	-166379.0	329.0	18969.0
28	18	15	50	100	243.0	-181237.0	365.0	19109.0
28	18	15	50	101	244.0	-196312.0	371.0	18954.0
28	18	15	50	101	245.0	-211401.0	393.0	18830.0
28	18	15	50	102	246.0	-226217.0	386.0	18522.0
28	18	15	50	102	247.0	-241803.0	388.0	18260.0
28	18	15	50	103	248.0	-257861.0	379.0	18527.0
28	18	15	50	103	249.0	-274201.0	375.0	18971.0
28	18	15	50	117	250.0	-288942.0	376.0	19572.0
28	18	15	50	118	251.0	-301732.0	413.0	19734.0
28	18	15	50	118	252.0	-311024.0	437.0	20128.0
28	18	15	50	119	253.0	-316028.0	424.0	20156.0
28	18	15	50	119	254.0	-317361.0	424.0	20236.0
28	18	15	50	120	255.0	-314562.0	388.0	20381.0
28	18	15	50	121	0.0	-307802.0	386.0	20358.0
28	18	15	50	121	1.0	-298444.0	385.0	20681.0
28	18	15	50	141	2.0	-286206.0	389.0	21211.0
28	18	15	50	141	3.0	-271483.0	416.0	21738.0
28	18	15	50	142	4.0	-254932.0	425.0	21723.0
28	18	15	50	143	5.0	-236627.0	419.0	21718.0
28	18	15	50	143	6.0	-217622.0	425.0	21791.0
28	18	15	50	144	7.0	-198289.0	426.0	21433.0
28	18	15	50	144	8.0	-179489.0	423.0	21136.0
28	18	15	50	164	9.0	-162504.0	387.0	21399.0
28	18	15	50	165	10.0	-148251.0	326.0	21765.0
28	18	15	50	165	11.0	-137097.0	276.0	22483.0
28	18	15	50	166	12.0	-129033.0	260.0	22891.0
28	18	15	50	167	13.0	-125214.0	249.0	22886.0
28	18	15	50	167	14.0	-125082.0	229.0	22953.0
28	18	15	50	168	15.0	-129124.0	204.0	22772.0
28	18	15	50	169	16.0	-136146.0	199.0	22888.0
28	18	15	50	169	17.0	-145957.0	198.0	22808.0
28	18	15	50	170	18.0	-158455.0	181.0	22508.0
28	18	15	50	170	19.0	-173054.0	166.0	22368.0
28	18	15	50	171	20.0	-189075.0	133.0	22531.0
28	18	15	50	172	21.0	-206015.0	94.0	22813.0
28	18	15	50	172	22.0	-223152.0	63.0	22608.0
28	18	15	50	173	23.0	-239239.0	19.0	22851.0
28	18	15	50	173	24.0	-253426.0	4.0	23186.0
28	18	15	50	174	25.0	-265731.0	-21.0	22951.0
28	18	15	50	174	26.0	-275814.0	-44.0	22630.0
28	18	15	50	175	27.0	-284177.0	-61.0	23084.0
28	18	15	50	176	28.0	-290882.0	-83.0	22766.0
28	18	15	50	176	29.0	-296725.0	-96.0	22328.0
28	18	15	50	186	30.0	-300644.0	-136.0	22232.0
28	18	15	50	187	31.0	-301902.0	-139.0	22692.0
28	18	15	50	188	32.0	-299681.0	-156.0	22843.0
28	18	15	50	189	33.0	-293949.0	-187.0	23253.0
28	18	15	50	189	34.0	-284163.0	-203.0	23609.0
28	18	15	50	190	35.0	-270631.0	-228.0	23406.0
28	18	15	50	191	36.0	-254053.0	-236.0	23173.0
28	18	15	50	191	37.0	-234879.0	-262.0	23354.0
28	18	15	50	192	38.0	-212964.0	-272.0	23411.0
28	18	15	50	192	39.0	-188680.0	-272.0	23004.0
28	18	15	50	211	40.0	-163596.0	-290.0	23073.0
28	18	15	50	212	41.0	-138527.0	-301.0	23047.0
28	18	15	50	212	42.0	-114884.0	-324.0	22814.0
28	18	15	50	213	43.0	-94032.0	-342.0	23255.0
28	18	15	50	213	44.0	-76521.0	-369.0	23727.0
28	18	15	50	214	45.0	-62884.0	-382.0	23372.0
28	18	15	50	234	46.0	-51351.0	-379.0	22979.0
28	18	15	50	235	47.0	-41807.0	-365.0	23376.0
28	18	15	50	235	48.0	-34254.0	-356.0	23440.0
28	18	15	50	236	49.0	-28286.0	-389.0	23181.0
28	18	15	50	237	50.0	-24585.0	-412.0	23153.0
28	18	15	50	237	51.0	-23617.0	-421.0	23348.0
28	18	15	50	238	52.0	-24648.0	-441.0	23713.0
28	18	15	50	238	53.0	-27882.0	-482.0	23830.0
28	18	15	50	239	54.0	-33769.0	-462.0	23471.0
28	18	15	50	240	55.0	-42099.0	-457.0	22834.0
28	18	15	50	240	56.0	-53721.0	-457.0	22538.0
28	18	15	50	241	57.0	-68456.0	-478.0	22501.0
28	18	15	50	241	58.0	-86849.0	-524.0	22363.0
28	18	15	50	242	59.0	-109422.0	-614.0	22606.0
28	18	15	50	242	60.0	-135627.0	-661.0	22759.0
28	18	15	50	243	61.0	-163974.0	-708.0	22541.0
28	18	15	50	257	62.0	-193363.0	-712.0	22649.0
28	18	15	50	258	63.0	-223269.0	-721.0	22737.0
28	18	15	50	258	64.0	-252598.0	-733.0	22738.0
28	18	15	50	259	65.0	-279758.0	-754.0	22634.0
28	18	15	50	260	66.0	-303462.0	-756.0	22588.0
28	18	15	50	261	67.0	-323736.0	-764.0	22378.0
28	18	15	50	262	68.0	-339418.0	-782.0	22529.0
28	18	15	50	262	69.0	-350572.0	-760.0	22598.0
28	18	15	50	263	70.0	-357985.0	-761.0	22117.0
28	18	15	50	264	71.0	-362129.0	-762.0	22458.0
28	18	15	50	264	72.0	-362475.0	-788.0	22501.0
28	18	15	50	265	73.0	-359197.0	-796.0	22301.0
28	18	15	50	265	74.0	-353377.0	-817.0	22548.0
28	18	15	50	266	75.0	-345676.0	-824.0	22713.0
28	18	15	50	267	76.0	-336999.0	-817.0	22228.0
28	18	15	50	279	77.0	-327716.0	-831.0	21928.0
28	18	15	50	280	78.0	-318798.0	-849.0	22346.0
28	18	15	50	280	79.0	-310070.0	-877.0	22443.0
28	18	15	50	281	80.0	-301774.0	-889.0	21619.0
28	18	15	50	281	81.0	-293694.0	-902.0	21808.0
28	18	15	50	282	82.0	-285693.0	-920.0	21911.0
28	18	15	50	283	83.0	-276769.0	-941.0	21926.0
28	18	15	50	302	84.0	-266591.0	-959.0	22478.0
28	18	15	50	303	85.0	-254854.0	-934.0	22665.0
28	18	15	50	303	86.0	-241446.0	-924.0	22573.0
28	18	15	50	304	87.0	-226337.0	-939.0	22649.0
28	18	15	50	305	88.0	-210129.0	-937.0	22352.0
28	18	15	50	305	89.0	-193959.0	-951.0	21846.0
28	18	15	50	306	90.0	-178969.0	-960.0	21134.0
28	18	15	50	307	91.0	-165707.0	-973.0	21114.0
28	18	15	50	307	92.0	-154923.0	-958.0	21209.0
28	18	15	50	308	93.0	-146294.0	-959.0	21923.0
28	18	15	50	309	94.0	-139361.0	-966.0	22353.0
28	18	15	50	309	95.0	-134296.0	-965.0	22522.0
28	18	15	50	310	96.0	-130712.0	-987.0	22371.0
28	18	15	50	311	97.0	-128469.0	-1022.0	22220.0
28	18	15	50	311	98.0	-127327.0	-1061.0	22266.0
28	18	15	50	326	99.0	-126144.0	-1083.0	22026.0
28	18	15	50	327	100.0	-125280.0	-1098.0	21886.0
28	18	15	50	327	101.0	-124032.0	-1109.0	21931.0
28	18	15	50	328	102.0	-121602.0	-1109.0	22023.0
28	18	15	50	329	103.0	-117951.0	-1134.0	22046.0
28	18	15	50	329	104.0	-113336.0	-1147.0	22026.0
28	18	15	50	330	105.0	-107991.0	-1156.0	21872.0
28	18	15	50	350	106.0	-102894.0	-1141.0	21929.0
28	18	15	50	350	107.0	-98484.0	-1130.0	22104.0
28	18	15	50	351	108.0	-95681.0	-1136.0	22290.0
28	18	15	50	352	109.0	-96064.0	-1165.0	22599.0
28	18	15	50	353	110.0	-99270.0	-1159.0	21991.0
28	18	15	50	353	111.0	-104476.0	-1171.0	21962.0
28	18	15	50	354	112.0	-112316.0	-1189.0	22181.0
28	18	15	50	354	113.0	-120857.0	-1194.0	22631.0
28	18	15	50	355	114.0	-130510.0	-1142.0	22134.0
28	18	15	50	356	115.0	-140689.0	-1120.0	21951.0
28	18	15	50	356	116.0	-151996.0	-1123.0	22041.0
28	18	15	50	357	117.0	-164690.0	-1140.0	21949.0
28	18	15	50	357	118.0	-178827.0	-1157.0	21584.0
28	18	15	50	358	119.0	-194439.0	-1181.0	21641.0
28	18	15	50	359	120.0	-210717.0	-1211.0	20782.0
28	18	15	50	373	121.0	-226410.0	-1231.0	20570.0
28	18	15	50	373	122.0	-241028.0	-1232.0	21126.0
28	18	15	50	374	123.0	-253711.0	-1249.0	21741.0
28	18	15	50	374	124.0	-264301.0	-1259.0	21636.0
28	18	15	50	375	125.0	-273212.0	-1252.0	21811.0
28	18	15	50	376	126.0	-280686.0	-1263.0	21478.0
28	18	15	50	376	127.0	-286652.0	-1291.0	21148.0
28	18	15	50	377	128.0	-290663.0	-1305.0	20607.0
28	18	15	50	396	129.0	-293030.0	-1298.0	20748.0
28	18	15	50	396	130.0	-294509.0	-1284.0	20598.0
28	18	15	50	397	131.0	-294251.0	-1276.0	20371.0
28	18	15	50	398	132.0	-291949.0	-1306.0	20856.0
28	18	15	50	399	133.0	-287509.0	-1309.0	21193.0
28	18	15	50	399	134.0	-281977.0	-1291.0	21066.0
28	18	15	50	400	135.0	-275931.0	-1307.0	20856.0
28	18	15	50	400	136.0	-269919.0	-1294.0	19984.0
28	18	15	50	401	137.0	-264543.0	-1269.0	20109.0
28	18	15	50	402	138.0	-260676.0	-1277.0	20365.0
28	18	15	50	402	139.0	-258629.0	-1271.0	20050.0
28	18	15	50	403	140.0	-258182.0	-1273.0	20403.0
28	18	15	50	403	141.0	-259134.0	-1307.0	20604.0
28	18	15	50	404	142.0	-261326.0	-1378.0	20342.0
28	18	15	50	404	143.0	-264314.0	-1391.0	20725.0
28	18	15	50	427	144.0	-268191.0	-1384.0	21260.0
28	18	15	50	428	145.0	-272667.0	-1379.0	21407.0
28	18	15	50	429	146.0	-277726.0	-1364.0	21128.0
28	18	15	50	429	147.0	-282800.0	-1397.0	21238.0
28	18	15	50	430	148.0	-287920.0	-1417.0	20643.0
28	18	15	50	431	149.0	-292367.0	-1451.0	19874.0
28	18	15	50	431	150.0	-295877.0	-1468.0	19596.0
28	18	15	50	432	151.0	-297896.0	-1482.0	19872.0
28	18	15	50	433	152.0	-297682.0	-1519.0	19812.0
28	18	15	50	433	153.0	-295270.0	-1541.0	20691.0
28	18	15	50	434	154.0	-290934.0	-1554.0	21766.0
28	18	15	50	435	155.0	-284624.0	-1542.0	21471.0
28	18	15	50	436	156.0	-275787.0	-1559.0	21531.0
28	18	15	50	436	157.0	-264601.0	-1564.0	21547.0
28	18	15	50	437	158.0	-250821.0	-1568.0	20834.0
28	18	15	50	437	159.0	-234569.0	-1543.0	20323.0
28	18	15	50	438	160.0	-216220.0	-1541.0	20038.0
28	18	15	50	439	161.0	-196069.0	-1534.0	19626.0
28	18	15	50	449	162.0	-174617.0	-1524.0	19013.0
28	18	15	50	450	163.0	-152736.0	-1504.0	19470.0
28	18	15	50	450	164.0	-130465.0	-1514.0	19611.0
28	18	15	50	473	165.0	-108171.0	-1502.0	19578.0
28	18	15	50	473	166.0	-86134.0	-1491.0	19636.0
28	18	15	50	474	167.0	-64346.0	-1502.0	19678.0
28	18	15	50	474	168.0	-44249.0	-1488.0	19568.0
28	18	15	50	475	169.0	-26319.0	-1471.0	19584.0
28	18	15	50	475	170.0	-11737.0	-1485.0	19288.0
28	18	15	50	476	171.0	-869.0	-1486.0	19340.0
28	18	15	50	477	172.0	5434.0	-1493.0	19056.0
28	18	15	50	477	173.0	6845.0	-1519.0	19313.0
28	18	15	50	478	174.0	3102.0	-1523.0	19400.0
28	18	15	50	478	175.0	-5536.0	-1531.0	19141.0
28	18	15	50	479	176.0	-18399.0	-1524.0	18610.0
