28	18	6	5	413	4.0	-207044.0	-284642.0	-201855.0
28	18	6	5	415	5.0	-207950.0	-285486.0	-204198.0
28	18	6	5	416	6.0	-208659.0	-285934.0	-210023.0
28	18	6	5	418	7.0	-209666.0	-286265.0	-213992.0
28	18	6	5	420	8.0	-210035.0	-286360.0	-216127.0
28	18	6	5	422	9.0	-210195.0	-281767.0	-220937.0
28	18	6	5	423	10.0	-210247.0	-276705.0	-226261.0
28	18	6	5	425	11.0	-210220.0	-276183.0	-223435.0
28	18	6	5	427	12.0	-210483.0	-276671.0	-216989.0
28	18	6	5	428	13.0	-210569.0	-277646.0	-211728.0
28	18	6	5	429	14.0	-210666.0	-279156.0	-210468.0
28	18	6	5	429	15.0	-210962.0	-280151.0	-211920.0
28	18	6	5	439	16.0	-211463.0	-280819.0	-217067.0
28	18	6	5	440	17.0	-211256.0	-281143.0	-221387.0
28	18	6	5	440	18.0	-210869.0	-281522.0	-225922.0
28	18	6	5	441	19.0	-210706.0	-282378.0	-231689.0
28	18	6	5	441	20.0	-210191.0	-283914.0	-236569.0
28	18	6	5	442	21.0	-209815.0	-288002.0	-233347.0
28	18	6	5	443	22.0	-209494.0	-289681.0	-226369.0
28	18	6	5	467	23.0	-209582.0	-290452.0	-218760.0
28	18	6	5	467	24.0	-208884.0	-291002.0	-215306.0
28	18	6	5	468	25.0	-208077.0	-289838.0	-217033.0
28	18	6	5	469	26.0	-207470.0	-286611.0	-223236.0
28	18	6	5	491	27.0	-207027.0	-274492.0	-228296.0
28	18	6	5	537	28.0	-206540.0	-267692.0	-231551.0
28	18	6	5	537	29.0	-205616.0	-268207.0	-237452.0
28	18	6	5	539	30.0	-204353.0	-269672.0	-242452.0
28	18	6	5	539	31.0	-202875.0	-271442.0	-238095.0
28	18	6	5	540	32.0	-201591.0	-273061.0	-231673.0
28	18	6	5	540	33.0	-199729.0	-274042.0	-225049.0
28	18	6	5	541	34.0	-198204.0	-274936.0	-221349.0
28	18	6	5	542	35.0	-196759.0	-275697.0	-221962.0
28	18	6	5	542	36.0	-195505.0	-275947.0	-226479.0
28	18	6	5	543	37.0	-194445.0	-275997.0	-230270.0
28	18	6	5	543	38.0	-192998.0	-275887.0	-233747.0
28	18	6	5	544	39.0	-191304.0	-276456.0	-238839.0
28	18	6	5	545	40.0	-189244.0	-285962.0	-242334.0
28	18	6	5	545	41.0	-188241.0	-294100.0	-238027.0
28	18	6	5	546	49.0	-189423.0	-296412.0	-237905.0
28	18	6	5	546	71.0	-194321.0	-305656.0	-246740.0
28	18	6	5	547	72.0	-196336.0	-304931.0	-243761.0
28	18	6	5	548	73.0	-198143.0	-294079.0	-243217.0
28	18	6	5	548	74.0	-199804.0	-289452.0	-244454.0
28	18	6	5	549	75.0	-201121.0	-289868.0	-248823.0
28	18	6	5	549	76.0	-202507.0	-290005.0	-255194.0
28	18	6	5	550	77.0	-203483.0	-290436.0	-262459.0
28	18	6	5	582	78.0	-203401.0	-290716.0	-269800.0
28	18	6	5	583	79.0	-202652.0	-290260.0	-278255.0
28	18	6	5	584	80.0	-201791.0	-290641.0	-282204.0
28	18	6	5	584	81.0	-200504.0	-291002.0	-279233.0
28	18	6	5	585	82.0	-199234.0	-291520.0	-274654.0
28	18	6	5	585	83.0	-197238.0	-292209.0	-270370.0
28	18	6	5	586	84.0	-195052.0	-292406.0	-268420.0
28	18	6	5	587	85.0	-192716.0	-293034.0	-271461.0
28	18	6	5	587	86.0	-190081.0	-295434.0	-276193.0
28	18	6	5	588	87.0	-187176.0	-298601.0	-280466.0
28	18	6	5	588	88.0	-183822.0	-299811.0	-284183.0
28	18	6	5	589	89.0	-180724.0	-300432.0	-290460.0
28	18	6	5	590	90.0	-178229.0	-300207.0	-294989.0
28	18	6	5	590	91.0	-175575.0	-300605.0	-291917.0
28	18	6	5	591	92.0	-173047.0	-302621.0	-285661.0
28	18	6	5	591	94.0	-170551.0	-303219.0	-280579.0
28	18	6	5	592	95.0	-171129.0	-302896.0	-283736.0
28	18	6	5	592	96.0	-172451.0	-303263.0	-286675.0
28	18	6	5	593	97.0	-174238.0	-303339.0	-288959.0
28	18	6	5	593	98.0	-175154.0	-302506.0	-293127.0
28	18	6	5	594	99.0	-176034.0	-301524.0	-301070.0
28	18	6	5	627	100.0	-176416.0	-300522.0	-302185.0
28	18	6	5	628	101.0	-177102.0	-297364.0	-296361.0
28	18	6	5	652	102.0	-179009.0	-284006.0	-288496.0
28	18	6	5	653	103.0	-181696.0	-280602.0	-282676.0
28	18	6	5	653	104.0	-183939.0	-282131.0	-281153.0
28	18	6	5	654	105.0	-185862.0	-283130.0	-283502.0
28	18	6	5	655	106.0	-187619.0	-283694.0	-286777.0
28	18	6	5	655	107.0	-188542.0	-284912.0	-290146.0
28	18	6	5	656	108.0	-190336.0	-287947.0	-293597.0
28	18	6	5	656	109.0	-192038.0	-299829.0	-299633.0
28	18	6	5	657	110.0	-193857.0	-302846.0	-301769.0
28	18	6	5	657	111.0	-196127.0	-302434.0	-296491.0
28	18	6	5	658	112.0	-198507.0	-301899.0	-289244.0
28	18	6	5	658	113.0	-200340.0	-301055.0	-282967.0
28	18	6	5	659	114.0	-201779.0	-298611.0	-281484.0
28	18	6	5	659	116.0	-202875.0	-297862.0	-291042.0
28	18	6	5	660	117.0	-202747.0	-298594.0	-294519.0
28	18	6	5	660	118.0	-202397.0	-308410.0	-297372.0
28	18	6	5	661	119.0	-201609.0	-315724.0	-300886.0
28	18	6	5	661	120.0	-200363.0	-313867.0	-301974.0
28	18	6	5	662	121.0	-198754.0	-313666.0	-298306.0
28	18	6	5	663	122.0	-197537.0	-314407.0	-291643.0
28	18	6	5	675	123.0	-196731.0	-313887.0	-286694.0
28	18	6	5	676	124.0	-196214.0	-314153.0	-285177.0
28	18	6	5	677	125.0	-195941.0	-314847.0	-287385.0
28	18	6	5	677	126.0	-196327.0	-314432.0	-291118.0
28	18	6	5	678	127.0	-196757.0	-313641.0	-294800.0
28	18	6	5	679	128.0	-196180.0	-313582.0	-298326.0
28	18	6	5	679	129.0	-195183.0	-313414.0	-303732.0
28	18	6	5	680	130.0	-193893.0	-312758.0	-304772.0
28	18	6	5	680	131.0	-192588.0	-312503.0	-298946.0
28	18	6	5	681	132.0	-191728.0	-311944.0	-290674.0
28	18	6	5	682	133.0	-191238.0	-308243.0	-284095.0
28	18	6	5	682	134.0	-189786.0	-306110.0	-283948.0
28	18	6	5	683	135.0	-188794.0	-306172.0	-288341.0
28	18	6	5	683	136.0	-189048.0	-306067.0	-292297.0
28	18	6	5	684	137.0	-189756.0	-305919.0	-295712.0
28	18	6	5	685	139.0	-191239.0	-306217.0	-305406.0
28	18	6	5	685	140.0	-190892.0	-306257.0	-307939.0
28	18	6	5	686	141.0	-190939.0	-305601.0	-302485.0
28	18	6	5	686	142.0	-191136.0	-306309.0	-294732.0
28	18	6	5	687	143.0	-191230.0	-307708.0	-290302.0
28	18	6	5	687	144.0	-192387.0	-308959.0	-289257.0
28	18	6	5	718	145.0	-194636.0	-310291.0	-293911.0
28	18	6	5	719	146.0	-197101.0	-314721.0	-298102.0
28	18	6	5	720	147.0	-199213.0	-322672.0	-302772.0
28	18	6	5	720	148.0	-201383.0	-321862.0	-309581.0
28	18	6	5	721	149.0	-203553.0	-319490.0	-319347.0
28	18	6	5	721	150.0	-204692.0	-317977.0	-324367.0
28	18	6	5	722	151.0	-205786.0	-317302.0	-326259.0
28	18	6	5	723	152.0	-206770.0	-317463.0	-326769.0
28	18	6	5	723	153.0	-207336.0	-318625.0	-328658.0
28	18	6	5	724	154.0	-207985.0	-320917.0	-334329.0
28	18	6	5	724	155.0	-207465.0	-329913.0	-343326.0
28	18	6	5	725	156.0	-206310.0	-340829.0	-352821.0
28	18	6	5	725	157.0	-204432.0	-341979.0	-360872.0
28	18	6	5	726	158.0	-201725.0	-342767.0	-368039.0
28	18	6	5	727	159.0	-198829.0	-343870.0	-375355.0
28	18	6	5	727	161.0	-192632.0	-347234.0	-364452.0
28	18	6	5	728	162.0	-190083.0	-349251.0	-348942.0
28	18	6	5	728	163.0	-187956.0	-351199.0	-337292.0
28	18	6	5	729	164.0	-186301.0	-352776.0	-330061.0
28	18	6	5	730	165.0	-184436.0	-352424.0	-326027.0
28	18	6	5	730	166.0	-182986.0	-352821.0	-321439.0
28	18	6	5	731	167.0	-182499.0	-353824.0	-316960.0
28	18	6	5	762	168.0	-182326.0	-353341.0	-318041.0
28	18	6	5	762	169.0	-182012.0	-351414.0	-325236.0
28	18	6	5	763	170.0	-181406.0	-356146.0	-326621.0
28	18	6	5	764	171.0	-181070.0	-369732.0	-322596.0
28	18	6	5	764	172.0	-180425.0	-375367.0	-316517.0
28	18	6	5	765	173.0	-178004.0	-377617.0	-312004.0
28	18	6	5	765	174.0	-173571.0	-379602.0	-310949.0
28	18	6	5	766	175.0	-165929.0	-381624.0	-315116.0
28	18	6	5	767	176.0	-155656.0	-383235.0	-319711.0
28	18	6	5	767	177.0	-145741.0	-380872.0	-324377.0
28	18	6	5	768	178.0	-140231.0	-371454.0	-330868.0
28	18	6	5	768	179.0	-141565.0	-371513.0	-337584.0
28	18	6	5	769	180.0	-146165.0	-373522.0	-334543.0
28	18	6	5	770	181.0	-151096.0	-379336.0	-325695.0
28	18	6	5	770	182.0	-156387.0	-385665.0	-316577.0
28	18	6	5	771	184.0	-169707.0	-393997.0	-311320.0
28	18	6	5	771	185.0	-176020.0	-398225.0	-314191.0
28	18	6	5	772	186.0	-180671.0	-402661.0	-316935.0
28	18	6	5	773	187.0	-183169.0	-405608.0	-320212.0
28	18	6	5	773	188.0	-184700.0	-407954.0	-324514.0
28	18	6	5	774	189.0	-186521.0	-410794.0	-330538.0
28	18	6	5	807	190.0	-188959.0	-412611.0	-328962.0
28	18	6	5	807	191.0	-192293.0	-404299.0	-322084.0
28	18	6	5	808	192.0	-196532.0	-402834.0	-314569.0
28	18	6	5	809	193.0	-200968.0	-406767.0	-310683.0
28	18	6	5	810	194.0	-204915.0	-410867.0	-310632.0
28	18	6	5	811	195.0	-206424.0	-414891.0	-313717.0
28	18	6	5	811	196.0	-205219.0	-419091.0	-318306.0
28	18	6	5	812	197.0	-203077.0	-423272.0	-322252.0
28	18	6	5	812	198.0	-200464.0	-427181.0	-325565.0
28	18	6	5	813	199.0	-198113.0	-431609.0	-330069.0
28	18	6	5	813	200.0	-195987.0	-435227.0	-327471.0
28	18	6	5	814	201.0	-193339.0	-438774.0	-319569.0
28	18	6	5	815	202.0	-190937.0	-442839.0	-311464.0
28	18	6	5	853	203.0	-188521.0	-446667.0	-307502.0
28	18	6	5	854	204.0	-185842.0	-451712.0	-309139.0
28	18	6	5	855	206.0	-179527.0	-474027.0	-316465.0
28	18	6	5	855	207.0	-175533.0	-478129.0	-319561.0
28	18	6	5	856	208.0	-172215.0	-481993.0	-324474.0
28	18	6	5	857	209.0	-168898.0	-483547.0	-329401.0
28	18	6	5	857	210.0	-166247.0	-474468.0	-325995.0
28	18	6	5	858	211.0	-164445.0	-474807.0	-319339.0
28	18	6	5	858	212.0	-162996.0	-481009.0	-312107.0
28	18	6	5	859	213.0	-161606.0	-486810.0	-308637.0
28	18	6	5	860	214.0	-160191.0	-490606.0	-309234.0
28	18	6	5	860	215.0	-159302.0	-494279.0	-312218.0
28	18	6	5	861	216.0	-159111.0	-497513.0	-314320.0
28	18	6	5	861	217.0	-158771.0	-497613.0	-316068.0
28	18	6	5	862	218.0	-158203.0	-489171.0	-320378.0
28	18	6	5	863	219.0	-158279.0	-489884.0	-324771.0
28	18	6	5	863	229.0	-184932.0	-550165.0	-332311.0
28	18	6	5	864	230.0	-187564.0	-553740.0	-330118.0
28	18	6	5	864	231.0	-189766.0	-558656.0	-324384.0
28	18	6	5	865	232.0	-192061.0	-563087.0	-317935.0
28	18	6	5	865	233.0	-193706.0	-566797.0	-313834.0
28	18	6	5	866	234.0	-195346.0	-570453.0	-315042.0
28	18	6	5	898	235.0	-196334.0	-577221.0	-319384.0
28	18	6	5	898	236.0	-196935.0	-576782.0	-322036.0
28	18	6	5	899	237.0	-197602.0	-570740.0	-325758.0
28	18	6	5	900	238.0	-198143.0	-573191.0	-331451.0
28	18	6	5	900	239.0	-197929.0	-576851.0	-337032.0
28	18	6	5	901	240.0	-197409.0	-580535.0	-333646.0
28	18	6	5	902	241.0	-195967.0	-585099.0	-326926.0
28	18	6	5	902	242.0	-194691.0	-589641.0	-320381.0
28	18	6	5	903	243.0	-193721.0	-592957.0	-316326.0
28	18	6	5	904	244.0	-192862.0	-596518.0	-316607.0
28	18	6	5	904	245.0	-192614.0	-599617.0	-320739.0
28	18	6	5	905	246.0	-193084.0	-603016.0	-325217.0
28	18	6	5	905	247.0	-193805.0	-605729.0	-328438.0
28	18	6	5	906	248.0	-193406.0	-607922.0	-332687.0
28	18	6	5	907	249.0	-193142.0	-610606.0	-336102.0
28	18	6	5	907	251.0	-191900.0	-616896.0	-325732.0
28	18	6	5	908	252.0	-190885.0	-619588.0	-318936.0
28	18	6	5	909	253.0	-190058.0	-622355.0	-316321.0
28	18	6	5	909	254.0	-188411.0	-624802.0	-318698.0
28	18	6	5	910	255.0	-187527.0	-627746.0	-323617.0
28	18	6	5	911	0.0	-187099.0	-640006.0	-328437.0
28	18	6	5	942	1.0	-187622.0	-653701.0	-331062.0
28	18	6	5	943	2.0	-187844.0	-656540.0	-335593.0
28	18	6	5	944	3.0	-188053.0	-658880.0	-338329.0
28	18	6	5	944	4.0	-187794.0	-661254.0	-333159.0
28	18	6	5	945	5.0	-187984.0	-663396.0	-325995.0
28	18	6	5	946	6.0	-187752.0	-665794.0	-319498.0
28	18	6	5	946	7.0	-187313.0	-668131.0	-317043.0
28	18	6	5	947	8.0	-186384.0	-670711.0	-318068.0
28	18	6	5	948	9.0	-185748.0	-673887.0	-319859.0
28	18	6	5	949	10.0	-183968.0	-677909.0	-321401.0
28	18	6	5	950	11.0	-182226.0	-681148.0	-323868.0
28	18	6	5	950	12.0	-180362.0	-683547.0	-329295.0
28	18	6	5	951	13.0	-179044.0	-684769.0	-331779.0
28	18	6	5	952	14.0	-177439.0	-684101.0	-327629.0
28	18	6	5	952	15.0	-175973.0	-686396.0	-320480.0
28	18	6	5	953	17.0	-173963.0	-693365.0	-311804.0
28	18	6	5	953	18.0	-173134.0	-698031.0	-314497.0
28	18	6	5	954	19.0	-172184.0	-704572.0	-317922.0
28	18	6	5	955	20.0	-171405.0	-721059.0	-321557.0
28	18	6	5	955	21.0	-170071.0	-726829.0	-325742.0
28	18	6	5	956	22.0	-169250.0	-730004.0	-331252.0
28	18	6	5	956	23.0	-168872.0	-734398.0	-332213.0
28	18	6	5	989	24.0	-169094.0	-737062.0	-325587.0
28	18	6	5	990	25.0	-169557.0	-739308.0	-318505.0
28	18	6	5	991	26.0	-170296.0	-742143.0	-312418.0
28	18	6	5	991	27.0	-170952.0	-744688.0	-309810.0
28	18	6	5	992	28.0	-171752.0	-747233.0	-310906.0
28	18	6	5	993	29.0	-172479.0	-749931.0	-314221.0
28	18	6	5	993	30.0	-173189.0	-752786.0	-316226.0
28	18	6	5	994	31.0	-174000.0	-749586.0	-317871.0
28	18	6	5	994	32.0	-174135.0	-748434.0	-322315.0
28	18	6	5	995	33.0	-174587.0	-750547.0	-324261.0
28	18	6	5	996	34.0	-174867.0	-751798.0	-319332.0
28	18	6	5	996	35.0	-175016.0	-754384.0	-312416.0
28	18	6	5	997	36.0	-174823.0	-756995.0	-306596.0
28	18	6	5	998	37.0	-175274.0	-759823.0	-304277.0
28	18	6	5	998	38.0	-176056.0	-762509.0	-307919.0
28	18	6	5	999	40.0	-179077.0	-784580.0	-311220.0
28	18	6	5	999	41.0	-181879.0	-789533.0	-313577.0
28	18	6	6	0	42.0	-185113.0	-791776.0	-317805.0
28	18	6	6	0	43.0	-188202.0	-793429.0	-318221.0
28	18	6	6	1	44.0	-191256.0	-794779.0	-312642.0
28	18	6	6	2	45.0	-194141.0	-796932.0	-304914.0
28	18	6	6	32	46.0	-197093.0	-799060.0	-299456.0
28	18	6	6	33	47.0	-199715.0	-801060.0	-298221.0
28	18	6	6	33	48.0	-202094.0	-802820.0	-302049.0
28	18	6	6	34	49.0	-204007.0	-803679.0	-306457.0
28	18	6	6	35	50.0	-205224.0	-804675.0	-310021.0
28	18	6	6	35	51.0	-206447.0	-806562.0	-312670.0
28	18	6	6	36	52.0	-207100.0	-807809.0	-318301.0
28	18	6	6	37	53.0	-207707.0	-809809.0	-318986.0
28	18	6	6	37	54.0	-207836.0	-812897.0	-313379.0
28	18	6	6	38	55.0	-208293.0	-817616.0	-305675.0
28	18	6	6	38	56.0	-208545.0	-821196.0	-300232.0
28	18	6	6	39	57.0	-208969.0	-823843.0	-297871.0
28	18	6	6	40	58.0	-209431.0	-826110.0	-299711.0
28	18	6	6	40	59.0	-210006.0	-828507.0	-302965.0
28	18	6	6	41	60.0	-210867.0	-830806.0	-305986.0
28	18	6	6	42	62.0	-212359.0	-835928.0	-314461.0
28	18	6	6	42	63.0	-212409.0	-838352.0	-315636.0
28	18	6	6	43	64.0	-211975.0	-840635.0	-311498.0
28	18	6	6	43	65.0	-210061.0	-842927.0	-304644.0
28	18	6	6	44	66.0	-205547.0	-845874.0	-298509.0
28	18	6	6	45	67.0	-197681.0	-849495.0	-295602.0
28	18	6	6	45	68.0	-188957.0	-852767.0	-295187.0
28	18	6	6	77	69.0	-186130.0	-856289.0	-295622.0
28	18	6	6	78	70.0	-189302.0	-860204.0	-295907.0
28	18	6	6	79	71.0	-195889.0	-864728.0	-296507.0
28	18	6	6	80	72.0	-200449.0	-866857.0	-299742.0
28	18	6	6	80	73.0	-204372.0	-868924.0	-296649.0
28	18	6	6	81	74.0	-204807.0	-871359.0	-286127.0
28	18	6	6	81	75.0	-203036.0	-873362.0	-276189.0
28	18	6	6	82	76.0	-202290.0	-875979.0	-268357.0
28	18	6	6	83	77.0	-200047.0	-878022.0	-264496.0
28	18	6	6	83	78.0	-199302.0	-879877.0	-267168.0
28	18	6	6	84	79.0	-198939.0	-881149.0	-269126.0
28	18	6	6	85	80.0	-197884.0	-882178.0	-267990.0
28	18	6	6	85	81.0	-196580.0	-884907.0	-269160.0
28	18	6	6	86	82.0	-195507.0	-887514.0	-273775.0
28	18	6	6	87	83.0	-194357.0	-891739.0	-272406.0
28	18	6	6	87	85.0	-195176.0	-898877.0	-256347.0
28	18	6	6	88	86.0	-196537.0	-901452.0	-251535.0
28	18	6	6	88	87.0	-197168.0	-903649.0	-251105.0
28	18	6	6	89	88.0	-196697.0	-905369.0	-255745.0
28	18	6	6	90	89.0	-195912.0	-907531.0	-258835.0
28	18	6	6	90	90.0	-194327.0	-901616.0	-260656.0
28	18	6	6	123	91.0	-192149.0	-893448.0	-263891.0
28	18	6	6	123	92.0	-190002.0	-894746.0	-271090.0
28	18	6	6	124	93.0	-189417.0	-892880.0	-273016.0
28	18	6	6	125	94.0	-190225.0	-893085.0	-268021.0
28	18	6	6	126	95.0	-191169.0	-896408.0	-260749.0
28	18	6	6	126	96.0	-192724.0	-899794.0	-256688.0
28	18	6	6	127	97.0	-194347.0	-902167.0	-256441.0
28	18	6	6	128	98.0	-196109.0	-904305.0	-259889.0
28	18	6	6	128	99.0	-196414.0	-906541.0	-262974.0
28	18	6	6	129	100.0	-195320.0	-909911.0	-265572.0
28	18	6	6	130	101.0	-193465.0	-912605.0	-271322.0
28	18	6	6	130	102.0	-191219.0	-915694.0	-279215.0
28	18	6	6	131	103.0	-188549.0	-922484.0	-278712.0
28	18	6	6	131	104.0	-185612.0	-937699.0	-275164.0
28	18	6	6	132	105.0	-182495.0	-942621.0	-271211.0
28	18	6	6	133	107.0	-177070.0	-947444.0	-269692.0
28	18	6	6	133	108.0	-174438.0	-950060.0	-275659.0
28	18	6	6	134	109.0	-172576.0	-955363.0	-280898.0
28	18	6	6	135	110.0	-171106.0	-959288.0	-286220.0
28	18	6	6	135	111.0	-169769.0	-962022.0	-292827.0
28	18	6	6	136	112.0	-168599.0	-963937.0	-299425.0
28	18	6	6	136	113.0	-167447.0	-965474.0	-299917.0
28	18	6	6	167	114.0	-166110.0	-968104.0	-295735.0
28	18	6	6	168	115.0	-164804.0	-972736.0	-289502.0
28	18	6	6	168	116.0	-163269.0	-977998.0	-285688.0
28	18	6	6	170	117.0	-162558.0	-980814.0	-287015.0
28	18	6	6	171	118.0	-162155.0	-983096.0	-292851.0
28	18	6	6	171	119.0	-162526.0	-984824.0	-296285.0
28	18	6	6	172	120.0	-163406.0	-986652.0	-299382.0
28	18	6	6	173	121.0	-164825.0	-988531.0	-305195.0
28	18	6	6	173	122.0	-165954.0	-990334.0	-313308.0
28	18	6	6	174	123.0	-166752.0	-991869.0	-313387.0
28	18	6	6	175	124.0	-167246.0	-987384.0	-308395.0
28	18	6	6	175	125.0	-168141.0	-982424.0	-302897.0
28	18	6	6	176	126.0	-169290.0	-983972.0	-300577.0
28	18	6	6	177	127.0	-170867.0	-985285.0	-301119.0
28	18	6	6	177	128.0	-172216.0	-986053.0	-305934.0
28	18	6	6	178	130.0	-174704.0	-992468.0	-312470.0
28	18	6	6	178	131.0	-175991.0	-993623.0	-318637.0
28	18	6	6	179	132.0	-178014.0	-994345.0	-324218.0
28	18	6	6	180	133.0	-179726.0	-995324.0	-322279.0
28	18	6	6	180	134.0	-181634.0	-996792.0	-317519.0
28	18	6	6	181	135.0	-183232.0	-998527.0	-310114.0
28	18	6	6	212	136.0	-184901.0	-1000975.0	-306354.0
28	18	6	6	213	137.0	-186764.0	-1002583.0	-308579.0
28	18	6	6	214	138.0	-188645.0	-1003862.0	-313076.0
28	18	6	6	214	139.0	-189808.0	-1002919.0	-315648.0
28	18	6	6	215	140.0	-190473.0	-1001117.0	-320185.0
28	18	6	6	216	141.0	-191379.0	-1003142.0	-324337.0
28	18	6	6	216	142.0	-192550.0	-1004922.0	-329330.0
28	18	6	6	217	143.0	-193951.0	-1007614.0	-326517.0
28	18	6	6	218	144.0	-195253.0	-1010490.0	-320800.0
28	18	6	6	218	145.0	-196027.0	-1015390.0	-314410.0
28	18	6	6	219	146.0	-196621.0	-1019548.0	-311389.0
28	18	6	6	220	147.0	-197007.0	-1022004.0	-313593.0
28	18	6	6	220	148.0	-197904.0	-1023635.0	-319497.0
28	18	6	6	221	149.0	-199221.0	-1025651.0	-323607.0
28	18	6	6	221	150.0	-200715.0	-1027746.0	-328347.0
28	18	6	6	222	152.0	-203148.0	-1030609.0	-338547.0
28	18	6	6	223	153.0	-203868.0	-1032066.0	-336778.0
28	18	6	6	223	154.0	-204399.0	-1033665.0	-330410.0
28	18	6	6	224	155.0	-205121.0	-1036362.0	-322815.0
28	18	6	6	225	156.0	-206517.0	-1038767.0	-321167.0
28	18	6	6	225	157.0	-207295.0	-1040334.0	-322646.0
28	18	6	6	257	158.0	-208025.0	-1041684.0	-325561.0
28	18	6	6	258	159.0	-209059.0	-1042922.0	-326921.0
28	18	6	6	259	160.0	-210755.0	-1034226.0	-328758.0
28	18	6	6	260	161.0	-212257.0	-1030879.0	-332963.0
28	18	6	6	260	162.0	-212637.0	-1036713.0	-336880.0
28	18	6	6	261	163.0	-212859.0	-1040472.0	-332619.0
28	18	6	6	262	164.0	-212537.0	-1042763.0	-324426.0
28	18	6	6	262	165.0	-212064.0	-1045237.0	-317288.0
28	18	6	6	263	166.0	-211350.0	-1047984.0	-313429.0
28	18	6	6	264	167.0	-210889.0	-1051852.0	-315517.0
28	18	6	6	264	168.0	-211239.0	-1055054.0	-319333.0
28	18	6	6	265	169.0	-211294.0	-1056559.0	-322111.0
28	18	6	6	266	170.0	-211040.0	-1058543.0	-326171.0
28	18	6	6	266	171.0	-211081.0	-1060253.0	-331212.0
28	18	6	6	267	172.0	-211356.0	-1062102.0	-335756.0
28	18	6	6	268	174.0	-210989.0	-1066729.0	-327837.0
28	18	6	6	268	175.0	-210541.0	-1068815.0	-319907.0
28	18	6	6	269	176.0	-210437.0	-1070512.0	-314958.0
28	18	6	6	270	177.0	-210869.0	-1072162.0	-316597.0
28	18	6	6	270	178.0	-211364.0	-1074264.0	-320358.0
28	18	6	6	271	179.0	-211839.0	-1076004.0	-323677.0
28	18	6	6	271	180.0	-212196.0	-1078010.0	-327714.0
28	18	6	6	302	181.0	-213073.0	-1079614.0	-335362.0
28	18	6	6	303	182.0	-214051.0	-1084678.0	-341521.0
28	18	6	6	304	183.0	-214819.0	-1100241.0	-338614.0
28	18	6	6	347	184.0	-215775.0	-1105043.0	-332599.0
28	18	6	6	348	185.0	-216371.0	-1106784.0	-325255.0
28	18	6	6	348	186.0	-216978.0	-1108719.0	-319741.0
28	18	6	6	349	187.0	-217509.0	-1109772.0	-321580.0
28	18	6	6	350	188.0	-217789.0	-1110734.0	-326834.0
28	18	6	6	351	189.0	-217379.0	-1111856.0	-330464.0
28	18	6	6	351	190.0	-216836.0	-1113084.0	-333341.0
28	18	6	6	352	191.0	-216536.0	-1112265.0	-338971.0
28	18	6	6	353	192.0	-215489.0	-1110021.0	-342122.0
28	18	6	6	353	193.0	-214370.0	-1109537.0	-337637.0
28	18	6	6	354	194.0	-212869.0	-1109188.0	-332091.0
28	18	6	6	355	195.0	-211758.0	-1110152.0	-325583.0
28	18	6	6	355	197.0	-210104.0	-1110228.0	-327286.0
28	18	6	6	356	198.0	-209956.0	-1111332.0	-334188.0
28	18	6	6	357	199.0	-210322.0	-1114974.0	-338580.0
28	18	6	6	357	200.0	-210321.0	-1118149.0	-342212.0
28	18	6	6	358	220.0	-194881.0	-1146156.0	-346486.0
28	18	6	6	359	221.0	-193271.0	-1143877.0	-350649.0
28	18	6	6	359	222.0	-192473.0	-1144207.0	-350024.0
28	18	6	6	360	223.0	-191348.0	-1145736.0	-342720.0
28	18	6	6	361	224.0	-190265.0	-1146321.0	-334556.0
28	18	6	6	361	225.0	-189513.0	-1146856.0	-326800.0
28	18	6	6	393	226.0	-188644.0	-1147369.0	-322760.0
28	18	6	6	394	227.0	-187268.0	-1147995.0	-324669.0
28	18	6	6	394	228.0	-185473.0	-1148157.0	-329010.0
28	18	6	6	395	229.0	-184047.0	-1147409.0	-332071.0
28	18	6	6	396	230.0	-182189.0	-1149012.0	-335734.0
28	18	6	6	397	231.0	-180330.0	-1156576.0	-342343.0
28	18	6	6	397	232.0	-178584.0	-1158031.0	-344188.0
28	18	6	6	398	233.0	-177221.0	-1157663.0	-339407.0
28	18	6	6	399	234.0	-175781.0	-1157260.0	-332918.0
28	18	6	6	399	235.0	-175237.0	-1157164.0	-328386.0
28	18	6	6	400	236.0	-175472.0	-1157577.0	-327882.0
28	18	6	6	401	237.0	-176006.0	-1157501.0	-331696.0
28	18	6	6	401	238.0	-176417.0	-1157765.0	-336384.0
28	18	6	6	402	239.0	-176659.0	-1157764.0	-340683.0
28	18	6	6	403	240.0	-177128.0	-1158734.0	-344727.0
28	18	6	6	403	242.0	-178367.0	-1159936.0	-353767.0
28	18	6	6	404	243.0	-179317.0	-1160484.0	-347921.0
28	18	6	6	405	244.0	-180349.0	-1161016.0	-340041.0
28	18	6	6	405	245.0	-181695.0	-1161290.0	-332280.0
28	18	6	6	406	246.0	-182718.0	-1161297.0	-327876.0
28	18	6	6	406	247.0	-183453.0	-1161284.0	-329166.0
28	18	6	6	438	248.0	-183864.0	-1161084.0	-333464.0
28	18	6	6	439	249.0	-184429.0	-1160495.0	-337195.0
28	18	6	6	440	250.0	-185075.0	-1161058.0	-339821.0
28	18	6	6	441	251.0	-186270.0	-1160271.0	-344567.0
28	18	6	6	441	252.0	-187469.0	-1160306.0	-346787.0
28	18	6	6	442	253.0	-188262.0	-1160277.0	-342703.0
28	18	6	6	443	254.0	-189586.0	-1160011.0	-337867.0
28	18	6	6	443	255.0	-190617.0	-1156639.0	-335849.0
28	18	6	6	444	0.0	-191904.0	-1155140.0	-340711.0
28	18	6	6	445	1.0	-193254.0	-1155319.0	-349955.0
28	18	6	6	445	2.0	-193834.0	-1155956.0	-357731.0
28	18	6	6	446	3.0	-194015.0	-1156942.0	-363926.0
28	18	6	6	447	4.0	-193207.0	-1157582.0	-371756.0
28	18	6	6	447	5.0	-192289.0	-1158059.0	-380745.0
28	18	6	6	448	6.0	-191226.0	-1160921.0	-384928.0
28	18	6	6	449	8.0	-188599.0	-1163221.0	-375492.0
28	18	6	6	449	9.0	-187304.0	-1163836.0	-369471.0
28	18	6	6	450	10.0	-185385.0	-1164490.0	-364264.0
28	18	6	6	451	11.0	-182640.0	-1164959.0	-361612.0
28	18	6	6	451	12.0	-180340.0	-1165754.0	-357759.0
28	18	6	6	452	13.0	-178176.0	-1167834.0	-351207.0
28	18	6	6	452	14.0	-176412.0	-1168739.0	-345545.0
28	18	6	6	483	15.0	-174729.0	-1168412.0	-340306.0
28	18	6	6	483	16.0	-173605.0	-1168512.0	-330598.0
28	18	6	6	485	17.0	-173197.0	-1168876.0	-322265.0
28	18	6	6	486	18.0	-173864.0	-1169561.0	-316191.0
28	18	6	6	487	19.0	-175461.0	-1170257.0	-311692.0
28	18	6	6	487	20.0	-177066.0	-1169303.0	-309386.0
28	18	6	6	488	21.0	-178151.0	-1167837.0	-311207.0
28	18	6	6	489	22.0	-177233.0	-1167173.0	-313035.0
28	18	6	6	490	23.0	-173672.0	-1167132.0	-313832.0
28	18	6	6	490	24.0	-167168.0	-1167113.0	-315754.0
28	18	6	6	491	25.0	-155856.0	-1168276.0	-320174.0
28	18	6	6	492	26.0	-143343.0	-1168282.0	-319349.0
28	18	6	6	492	27.0	-134298.0	-1166993.0	-311631.0
28	18	6	6	493	28.0	-134266.0	-1166304.0	-300923.0
28	18	6	6	494	29.0	-140071.0	-1165947.0	-294570.0
28	18	6	6	494	31.0	-149626.0	-1165907.0	-294692.0
28	18	6	6	495	32.0	-151796.0	-1165180.0	-295428.0
28	18	6	6	496	33.0	-155575.0	-1164370.0	-295951.0
28	18	6	6	496	34.0	-158883.0	-1162926.0	-297319.0
28	18	6	6	497	35.0	-160525.0	-1154436.0	-301100.0
28	18	6	6	498	36.0	-157057.0	-1142251.0	-299483.0
28	18	6	6	527	37.0	-149858.0	-1141398.0	-293162.0
28	18	6	6	528	38.0	-142466.0	-1140652.0	-285977.0
28	18	6	6	529	39.0	-138212.0	-1139070.0	-279463.0
28	18	6	6	529	40.0	-138394.0	-1138034.0	-276716.0
28	18	6	6	530	41.0	-142458.0	-1137364.0	-279632.0
28	18	6	6	531	42.0	-148527.0	-1138199.0	-281662.0
28	18	6	6	531	43.0	-153004.0	-1140828.0	-283032.0
28	18	6	6	532	44.0	-154142.0	-1140616.0	-285155.0
28	18	6	6	533	45.0	-153781.0	-1138555.0	-289802.0
28	18	6	6	533	46.0	-154715.0	-1136719.0	-289161.0
28	18	6	6	534	47.0	-155641.0	-1134585.0	-283317.0
28	18	6	6	535	48.0	-153096.0	-1132563.0	-274272.0
28	18	6	6	535	49.0	-148446.0	-1131762.0	-268187.0
28	18	6	6	536	50.0	-146228.0	-1130937.0	-267301.0
28	18	6	6	537	51.0	-146737.0	-1129867.0	-270346.0
28	18	6	6	537	53.0	-153564.0	-1125290.0	-274479.0
28	18	6	6	538	54.0	-157596.0	-1122972.0	-276861.0
28	18	6	6	538	55.0	-160317.0	-1119966.0	-281961.0
28	18	6	6	539	56.0	-162215.0	-1118090.0	-280062.0
28	18	6	6	540	57.0	-164082.0	-1115917.0	-271957.0
28	18	6	6	540	58.0	-167316.0	-1113422.0	-262337.0
28	18	6	6	541	59.0	-172055.0	-1110667.0	-255884.0
28	18	6	6	573	60.0	-177868.0	-1107952.0	-254662.0
28	18	6	6	574	61.0	-184483.0	-1104977.0	-258219.0
28	18	6	6	574	62.0	-191062.0	-1103198.0	-258141.0
28	18	6	6	575	63.0	-196344.0	-1102005.0	-255329.0
28	18	6	6	576	64.0	-199784.0	-1100477.0	-256112.0
28	18	6	6	577	65.0	-200684.0	-1099611.0	-260057.0
28	18	6	6	577	66.0	-201421.0	-1098608.0	-255696.0
28	18	6	6	578	67.0	-203176.0	-1099189.0	-246558.0
28	18	6	6	579	68.0	-205460.0	-1099848.0	-236985.0
28	18	6	6	579	69.0	-208012.0	-1100667.0	-230880.0
28	18	6	6	580	70.0	-210270.0	-1101608.0	-227654.0
28	18	6	6	581	71.0	-212624.0	-1100865.0	-228545.0
28	18	6	6	581	72.0	-214565.0	-1100331.0	-229844.0
28	18	6	6	582	73.0	-216029.0	-1099710.0	-232517.0
28	18	6	6	583	74.0	-217547.0	-1097895.0	-236946.0
28	18	6	6	584	76.0	-218512.0	-1091641.0	-237267.0
28	18	6	6	585	77.0	-217376.0	-1090559.0	-229274.0
28	18	6	6	585	78.0	-215161.0	-1091654.0	-221561.0
28	18	6	6	586	79.0	-212840.0	-1091935.0	-217753.0
28	18	6	6	587	80.0	-210456.0	-1088298.0	-219006.0
28	18	6	6	587	81.0	-208620.0	-1085233.0	-225004.0
28	18	6	6	618	82.0	-207605.0	-1085154.0	-229909.0
28	18	6	6	627	83.0	-207216.0	-1085603.0	-232618.0
28	18	6	6	628	84.0	-207069.0	-1084949.0	-236305.0
28	18	6	6	628	85.0	-207195.0	-1084233.0	-240227.0
28	18	6	6	629	86.0	-207198.0	-1083927.0	-237970.0
28	18	6	6	629	87.0	-207773.0	-1084059.0	-232124.0
28	18	6	6	630	88.0	-208696.0	-1085253.0	-223807.0
28	18	6	6	630	89.0	-209426.0	-1087754.0	-219357.0
28	18	6	6	631	90.0	-210756.0	-1088919.0	-218881.0
28	18	6	6	631	91.0	-212307.0	-1089160.0	-221599.0
28	18	6	6	632	92.0	-213681.0	-1090153.0	-224226.0
28	18	6	6	662	93.0	-214237.0	-1090904.0	-224680.0
28	18	6	6	662	94.0	-214541.0	-1092238.0	-225407.0
28	18	6	6	663	95.0	-214980.0	-1092957.0	-227633.0
28	18	6	6	664	96.0	-215310.0	-1093476.0	-223329.0
28	18	6	6	664	98.0	-216241.0	-1092562.0	-206928.0
28	18	6	6	665	99.0	-216569.0	-1092435.0	-199381.0
28	18	6	6	665	100.0	-216826.0	-1103207.0	-197486.0
28	18	6	6	666	101.0	-217414.0	-1109976.0	-200419.0
28	18	6	6	667	102.0	-218677.0	-1109886.0	-203299.0
28	18	6	6	668	103.0	-219918.0	-1110601.0	-206683.0
28	18	6	6	668	104.0	-221382.0	-1111272.0	-210649.0
28	18	6	6	669	105.0	-222151.0	-1110984.0	-212378.0
28	18	6	6	670	106.0	-223145.0	-1109516.0	-207493.0
28	18	6	6	670	107.0	-224019.0	-1106766.0	-199566.0
28	18	6	6	671	108.0	-224973.0	-1106189.0	-192200.0
28	18	6	6	672	109.0	-225242.0	-1106269.0	-188665.0
28	18	6	6	672	121.0	-211898.0	-1089298.0	-189876.0
28	18	6	6	680	122.0	-208951.0	-1089194.0	-193252.0
28	18	6	6	681	123.0	-205192.0	-1088466.0	-197122.0
28	18	6	6	681	124.0	-201554.0	-1088117.0	-202739.0
28	18	6	6	682	125.0	-198734.0	-1087806.0	-210586.0
28	18	6	6	683	126.0	-196989.0	-1087869.0	-213096.0
28	18	6	6	707	127.0	-195169.0	-1088294.0	-211899.0
28	18	6	6	707	128.0	-193524.0	-1088695.0	-211082.0
28	18	6	6	708	129.0	-191746.0	-1089706.0	-222018.0
28	18	6	6	708	130.0	-190098.0	-1090660.0	-246071.0
28	18	6	6	709	131.0	-187336.0	-1090311.0	-267419.0
28	18	6	6	710	132.0	-184807.0	-1089836.0	-281899.0
28	18	6	6	710	133.0	-182904.0	-1089814.0	-293781.0
28	18	6	6	711	134.0	-181965.0	-1089832.0	-305359.0
28	18	6	6	711	135.0	-181052.0	-1089329.0	-313140.0
28	18	6	6	712	136.0	-181066.0	-1089399.0	-310184.0
28	18	6	6	713	137.0	-180732.0	-1090324.0	-302982.0
28	18	6	6	713	138.0	-181362.0	-1090979.0	-295372.0
28	18	6	6	714	139.0	-181732.0	-1090966.0	-292406.0
28	18	6	6	714	140.0	-182731.0	-1092699.0	-294821.0
28	18	6	6	715	141.0	-184251.0	-1093816.0	-299852.0
28	18	6	6	716	143.0	-188355.0	-1093932.0	-306243.0
28	18	6	6	716	144.0	-190466.0	-1093114.0	-311998.0
28	18	6	6	717	145.0	-192229.0	-1092367.0	-315399.0
28	18	6	6	717	146.0	-194337.0	-1091972.0	-311519.0
28	18	6	6	718	147.0	-196524.0	-1091989.0	-303976.0
28	18	6	6	719	148.0	-198961.0	-1091457.0	-296838.0
28	18	6	6	752	149.0	-201123.0	-1090732.0	-292965.0
28	18	6	6	752	150.0	-203128.0	-1090419.0	-293294.0
28	18	6	6	753	151.0	-204866.0	-1085252.0	-296380.0
28	18	6	6	753	152.0	-207064.0	-1070617.0	-298957.0
28	18	6	6	754	153.0	-209227.0	-1068181.0	-301517.0
28	18	6	6	755	154.0	-211474.0	-1068198.0	-306088.0
28	18	6	6	755	155.0	-213527.0	-1067911.0	-310297.0
28	18	6	6	756	156.0	-215248.0	-1067388.0	-307822.0
28	18	6	6	756	157.0	-216679.0	-1066377.0	-300714.0
28	18	6	6	757	158.0	-218006.0	-1066131.0	-292854.0
28	18	6	6	758	159.0	-219449.0	-1065376.0	-289629.0
28	18	6	6	758	160.0	-220359.0	-1064409.0	-289379.0
28	18	6	6	759	161.0	-220999.0	-1064386.0	-290354.0
28	18	6	6	759	162.0	-221102.0	-1063437.0	-293252.0
28	18	6	6	760	163.0	-221769.0	-1062127.0	-296486.0
28	18	6	6	761	165.0	-223312.0	-1042497.0	-303901.0
28	18	6	6	761	166.0	-223744.0	-1041786.0	-298626.0
28	18	6	6	762	167.0	-223874.0	-1041547.0	-289672.0
28	18	6	6	762	168.0	-223847.0	-1041429.0	-281304.0
28	18	6	6	763	169.0	-223847.0	-1042614.0	-275407.0
28	18	6	6	764	170.0	-223540.0	-1042509.0	-276419.0
28	18	6	6	764	171.0	-222537.0	-1040932.0	-280230.0
28	18	6	6	798	172.0	-219373.0	-1039411.0	-283287.0
28	18	6	6	799	173.0	-213629.0	-1038384.0	-285952.0
28	18	6	6	799	174.0	-205823.0	-1038469.0	-289899.0
28	18	6	6	800	175.0	-200989.0	-1038037.0	-291069.0
28	18	6	6	801	176.0	-202937.0	-1036744.0	-285001.0
28	18	6	6	801	177.0	-208976.0	-1035647.0	-275457.0
28	18	6	6	802	178.0	-213506.0	-1033641.0	-267832.0
28	18	6	6	803	179.0	-214999.0	-1029151.0	-265420.0
28	18	6	6	803	180.0	-213659.0	-1027133.0	-266794.0
28	18	6	6	804	181.0	-210489.0	-1026472.0	-269291.0
28	18	6	6	804	182.0	-208580.0	-1025396.0	-271919.0
28	18	6	6	805	183.0	-207378.0	-1024587.0	-275212.0
28	18	6	6	805	184.0	-206096.0	-1024022.0	-280047.0
28	18	6	6	806	185.0	-205901.0	-1023128.0	-281170.0
28	18	6	6	807	186.0	-205177.0	-1022737.0	-276597.0
28	18	6	6	807	188.0	-206334.0	-1022561.0	-265483.0
28	18	6	6	808	189.0	-208246.0	-1022177.0	-263141.0
28	18	6	6	808	190.0	-210374.0	-1021053.0	-262829.0
28	18	6	6	809	191.0	-214372.0	-1020836.0	-263461.0
28	18	6	6	810	192.0	-218109.0	-1019264.0	-264780.0
28	18	6	6	810	193.0	-222013.0	-1017633.0	-265476.0
28	18	6	6	841	194.0	-224412.0	-1017591.0	-268660.0
28	18	6	6	842	195.0	-226571.0	-1017509.0	-268563.0
28	18	6	6	843	196.0	-227318.0	-1017117.0	-262140.0
28	18	6	6	843	197.0	-226781.0	-1016827.0	-252857.0
28	18	6	6	844	198.0	-224766.0	-1017492.0	-244779.0
28	18	6	6	845	199.0	-222919.0	-1022394.0	-240878.0
28	18	6	6	845	200.0	-220860.0	-1024611.0	-240776.0
28	18	6	6	846	201.0	-219569.0	-1023555.0	-242747.0
28	18	6	6	847	202.0	-219154.0	-1024342.0	-246455.0
28	18	6	6	847	203.0	-219472.0	-1025161.0	-250455.0
28	18	6	6	848	204.0	-219804.0	-1025601.0	-256957.0
28	18	6	6	848	205.0	-219922.0	-1026644.0	-258172.0
28	18	6	6	849	206.0	-219814.0	-1027446.0	-252187.0
28	18	6	6	850	207.0	-219786.0	-1027437.0	-243578.0
28	18	6	6	850	208.0	-219879.0	-1026561.0	-237269.0
28	18	6	6	851	210.0	-219641.0	-1023057.0	-238402.0
28	18	6	6	851	211.0	-219072.0	-1021543.0	-241066.0
28	18	6	6	852	212.0	-218455.0	-1018723.0	-242624.0
28	18	6	6	853	213.0	-217319.0	-1015180.0	-245909.0
28	18	6	6	861	214.0	-215917.0	-1014161.0	-253211.0
28	18	6	6	862	215.0	-214806.0	-1008100.0	-254799.0
28	18	6	6	863	216.0	-214407.0	-1002246.0	-250026.0
28	18	6	6	888	217.0	-213909.0	-1001277.0	-242940.0
28	18	6	6	888	218.0	-214639.0	-1000262.0	-236579.0
28	18	6	6	889	219.0	-215519.0	-999372.0	-234077.0
28	18	6	6	890	220.0	-216501.0	-998909.0	-237869.0
28	18	6	6	890	221.0	-216307.0	-998089.0	-242982.0
28	18	6	6	891	222.0	-216140.0	-996484.0	-246204.0
28	18	6	6	892	223.0	-215175.0	-995813.0	-248815.0
28	18	6	6	892	224.0	-214456.0	-995494.0	-254492.0
28	18	6	6	893	225.0	-213387.0	-995524.0	-255511.0
28	18	6	6	894	226.0	-212904.0	-995747.0	-251506.0
28	18	6	6	894	227.0	-212153.0	-995907.0	-246126.0
28	18	6	6	895	228.0	-211617.0	-998385.0	-241099.0
28	18	6	6	895	229.0	-211127.0	-998822.0	-239677.0
28	18	6	6	896	230.0	-211830.0	-997772.0	-243559.0
28	18	6	6	897	231.0	-211507.0	-996242.0	-248658.0
28	18	6	6	897	233.0	-211979.0	-995128.0	-253649.0
28	18	6	6	898	234.0	-212769.0	-994225.0	-256916.0
28	18	6	6	898	235.0	-213694.0	-992858.0	-255689.0
28	18	6	6	899	236.0	-215623.0	-991923.0	-249687.0
28	18	6	6	900	237.0	-217567.0	-991947.0	-244158.0
28	18	6	6	900	238.0	-219939.0	-1001446.0	-241241.0
28	18	6	6	932	239.0	-221811.0	-1011486.0	-240892.0
28	18	6	6	932	240.0	-223501.0	-1011523.0	-243368.0
28	18	6	6	933	241.0	-224556.0	-1010959.0	-245921.0
28	18	6	6	933	242.0	-225691.0	-1010476.0	-248119.0
28	18	6	6	934	243.0	-226291.0	-1010071.0	-251153.0
28	18	6	6	935	244.0	-226548.0	-1008697.0	-256900.0
28	18	6	6	935	245.0	-226059.0	-1007220.0	-256439.0
28	18	6	6	936	246.0	-225286.0	-1003466.0	-251215.0
28	18	6	6	937	247.0	-224542.0	-997718.0	-242598.0
28	18	6	6	937	248.0	-224072.0	-996507.0	-236937.0
28	18	6	6	938	249.0	-223702.0	-996010.0	-236386.0
28	18	6	6	938	250.0	-222906.0	-996054.0	-240705.0
28	18	6	6	939	251.0	-222104.0	-995711.0	-243819.0
28	18	6	6	940	252.0	-221001.0	-994874.0	-245618.0
28	18	6	6	940	253.0	-219510.0	-993886.0	-248412.0
28	18	6	6	941	255.0	-217056.0	-992994.0	-251087.0
28	18	6	6	941	0.0	-215579.0	-992867.0	-246324.0
28	18	6	6	942	1.0	-213576.0	-992101.0	-240092.0
28	18	6	6	943	2.0	-211761.0	-991677.0	-235769.0
28	18	6	6	943	3.0	-210646.0	-991814.0	-236082.0
28	18	6	6	944	4.0	-209938.0	-990831.0	-239531.0
28	18	6	6	977	5.0	-209574.0	-989693.0	-241513.0
28	18	6	6	978	6.0	-209047.0	-988121.0	-244476.0
28	18	6	6	978	7.0	-209128.0	-986989.0	-248378.0
28	18	6	6	979	8.0	-208815.0	-985919.0	-254809.0
28	18	6	6	980	9.0	-208859.0	-984507.0	-253813.0
28	18	6	6	980	10.0	-207896.0	-982697.0	-246809.0
28	18	6	6	981	11.0	-207169.0	-979982.0	-238530.0
28	18	6	6	982	12.0	-205779.0	-973655.0	-233039.0
28	18	6	6	983	13.0	-204767.0	-970891.0	-231597.0
28	18	6	6	983	14.0	-203222.0	-969646.0	-234888.0
28	18	6	6	984	15.0	-201596.0	-969262.0	-235995.0
28	18	6	6	984	16.0	-199615.0	-969261.0	-237162.0
28	18	6	6	985	17.0	-198067.0	-969651.0	-242054.0
28	18	6	6	986	18.0	-196419.0	-968756.0	-247720.0
28	18	6	6	986	19.0	-194623.0	-967552.0	-246002.0
28	18	6	6	987	22.0	-191861.0	-952860.0	-226232.0
28	18	6	6	988	23.0	-192463.0	-947473.0	-228118.0
28	18	6	6	988	24.0	-192698.0	-946696.0	-233449.0
28	18	6	6	989	25.0	-192985.0	-946189.0	-236002.0
28	18	6	6	989	26.0	-192957.0	-944413.0	-239077.0
28	18	6	6	990	27.0	-193233.0	-943087.0	-242979.0
28	18	6	7	20	28.0	-193731.0	-943148.0	-246905.0
28	18	6	7	21	29.0	-194124.0	-943018.0	-244094.0
28	18	6	7	22	30.0	-194352.0	-943284.0	-235625.0
28	18	6	7	23	31.0	-194451.0	-944329.0	-228169.0
28	18	6	7	23	32.0	-194644.0	-944938.0	-222991.0
28	18	6	7	24	33.0	-194911.0	-945105.0	-221931.0
28	18	6	7	24	34.0	-195394.0	-945690.0	-225421.0
28	18	6	7	25	35.0	-196050.0	-946866.0	-228599.0
28	18	6	7	26	36.0	-196979.0	-946904.0	-229954.0
28	18	6	7	26	37.0	-197737.0	-949237.0	-231874.0
28	18	6	7	27	38.0	-197621.0	-952986.0	-235337.0
28	18	6	7	28	39.0	-197207.0	-953604.0	-231621.0
28	18	6	7	28	40.0	-196704.0	-954729.0	-223262.0
28	18	6	7	29	41.0	-196261.0	-956104.0	-213906.0
28	18	6	7	29	42.0	-195919.0	-957071.0	-209358.0
28	18	6	7	30	44.0	-195366.0	-958663.0	-212741.0
28	18	6	7	31	45.0	-194826.0	-958350.0	-215651.0
28	18	6	7	31	46.0	-194124.0	-957081.0	-219583.0
28	18	6	7	42	47.0	-193056.0	-956821.0	-222463.0
28	18	6	7	42	48.0	-192233.0	-955269.0	-221885.0
28	18	6	7	43	49.0	-191676.0	-953507.0	-215629.0
28	18	6	7	44	50.0	-191509.0	-954596.0	-205297.0
28	18	6	7	66	51.0	-191595.0	-954390.0	-195351.0
28	18	6	7	67	52.0	-192203.0	-952987.0	-189167.0
28	18	6	7	68	53.0	-193356.0	-956655.0	-185872.0
28	18	6	7	68	54.0	-194902.0	-959321.0	-185350.0
28	18	6	7	69	55.0	-196269.0	-959659.0	-185567.0
28	18	6	7	70	56.0	-197892.0	-958084.0	-185212.0
28	18	6	7	70	57.0	-199386.0	-952822.0	-184154.0
28	18	6	7	71	58.0	-201073.0	-951027.0	-183688.0
28	18	6	7	71	59.0	-202652.0	-950794.0	-175992.0
28	18	6	7	72	60.0	-204409.0	-951565.0	-164848.0
28	18	6	7	73	61.0	-206022.0	-952434.0	-154479.0
28	18	6	7	73	62.0	-207797.0	-951225.0	-147591.0
28	18	6	7	74	63.0	-209718.0	-950049.0	-147096.0
28	18	6	7	75	64.0	-211639.0	-951429.0	-148336.0
28	18	6	7	75	65.0	-213612.0	-952612.0	-147438.0
28	18	6	7	76	66.0	-215557.0	-952744.0	-148328.0
28	18	6	7	77	67.0	-217239.0	-953086.0	-151756.0
28	18	6	7	77	68.0	-219079.0	-952578.0	-156074.0
28	18	6	7	78	69.0	-220405.0	-952617.0	-153392.0
28	18	6	7	79	70.0	-221642.0	-953800.0	-145763.0
28	18	6	7	79	71.0	-222479.0	-958559.0	-137177.0
28	18	6	7	80	72.0	-223226.0	-960625.0	-132927.0
28	18	6	7	111	73.0	-223564.0	-960857.0	-134566.0
28	18	6	7	112	74.0	-223830.0	-962262.0	-140456.0
28	18	6	7	113	75.0	-223750.0	-961707.0	-145379.0
28	18	6	7	113	76.0	-223158.0	-948923.0	-148458.0
28	18	6	7	114	77.0	-222701.0	-943572.0	-152075.0
28	18	6	7	115	78.0	-222476.0	-944026.0	-155016.0
28	18	6	7	115	79.0	-221991.0	-944875.0	-148955.0
28	18	6	7	116	80.0	-221595.0	-946397.0	-139812.0
28	18	6	7	117	81.0	-220744.0	-947354.0	-133830.0
28	18	6	7	117	82.0	-219806.0	-947280.0	-130263.0
28	18	6	7	118	83.0	-218897.0	-946176.0	-130221.0
28	18	6	7	119	84.0	-217466.0	-944671.0	-134025.0
28	18	6	7	119	85.0	-215718.0	-943481.0	-137771.0
28	18	6	7	120	86.0	-214155.0	-943002.0	-140407.0
28	18	6	7	120	87.0	-213027.0	-942013.0	-146029.0
28	18	6	7	121	89.0	-211606.0	-941149.0	-145989.0
28	18	6	7	122	90.0	-210876.0	-941156.0	-139679.0
28	18	6	7	122	91.0	-210316.0	-940639.0	-134895.0
28	18	6	7	123	92.0	-209571.0	-941284.0	-132721.0
28	18	6	7	124	93.0	-208524.0	-942991.0	-135522.0
28	18	6	7	124	94.0	-207546.0	-944276.0	-140570.0
28	18	6	7	157	95.0	-206755.0	-944456.0	-144277.0
28	18	6	7	158	96.0	-205857.0	-947264.0	-147647.0
28	18	6	7	158	97.0	-204771.0	-951274.0	-154632.0
28	18	6	7	159	98.0	-204204.0	-950974.0	-158916.0
28	18	6	7	160	99.0	-203934.0	-950576.0	-152929.0
28	18	6	7	160	100.0	-203552.0	-949677.0	-145015.0
28	18	6	7	161	101.0	-203595.0	-948771.0	-140457.0
28	18	6	7	162	102.0	-204249.0	-944160.0	-142549.0
28	18	6	7	162	103.0	-205166.0	-941409.0	-150379.0
28	18	6	7	163	104.0	-205929.0	-940529.0	-160621.0
28	18	6	7	164	105.0	-207476.0	-939809.0	-170631.0
28	18	6	7	164	106.0	-209639.0	-939179.0	-178083.0
28	18	6	7	165	107.0	-212166.0	-938516.0	-186508.0
28	18	6	7	165	108.0	-214319.0	-937794.0	-192257.0
28	18	6	7	166	109.0	-216694.0	-936389.0	-191227.0
28	18	6	7	167	111.0	-221094.0	-933987.0	-183671.0
28	18	6	7	167	112.0	-223694.0	-932937.0	-180941.0
28	18	6	7	168	113.0	-225917.0	-930589.0	-181476.0
28	18	6	7	169	114.0	-227295.0	-928749.0	-182534.0
28	18	6	7	169	115.0	-227932.0	-927529.0	-181329.0
28	18	6	7	170	116.0	-228742.0	-925314.0	-177901.0
28	18	6	7	170	117.0	-229702.0	-924062.0	-175128.0
28	18	6	7	202	118.0	-231124.0	-923008.0	-168452.0
28	18	6	7	203	119.0	-233126.0	-921617.0	-154685.0
28	18	6	7	204	120.0	-235362.0	-920564.0	-137082.0
28	18	6	7	204	121.0	-237725.0	-918801.0	-124393.0
28	18	6	7	205	122.0	-239766.0	-917367.0	-119819.0
28	18	6	7	206	123.0	-241639.0	-916760.0	-122019.0
28	18	6	7	207	124.0	-243149.0	-916487.0	-126618.0
28	18	6	7	207	125.0	-244111.0	-915564.0	-129494.0
28	18	6	7	247	126.0	-243597.0	-915588.0	-132089.0
28	18	6	7	248	127.0	-241084.0	-915774.0	-138274.0
28	18	6	7	248	128.0	-236124.0	-914694.0	-140384.0
28	18	6	7	249	129.0	-225857.0	-911363.0	-134652.0
28	18	6	7	250	130.0	-213072.0	-900707.0	-126896.0
28	18	6	7	251	131.0	-202666.0	-897715.0	-121516.0
28	18	6	7	251	132.0	-199230.0	-897349.0	-120297.0
28	18	6	7	252	134.0	-211713.0	-894741.0	-127299.0
28	18	6	7	252	135.0	-217876.0	-893194.0	-129716.0
28	18	6	7	253	136.0	-219854.0	-892058.0	-131224.0
28	18	6	7	254	137.0	-219129.0	-890816.0	-134487.0
28	18	6	7	254	138.0	-217027.0	-889992.0	-132946.0
28	18	6	7	255	139.0	-214869.0	-889819.0	-123043.0
28	18	6	7	256	140.0	-213794.0	-889023.0	-112024.0
28	18	6	7	256	141.0	-212301.0	-888284.0	-102163.0
28	18	6	7	257	142.0	-209762.0	-878320.0	-95400.0
28	18	6	7	258	156.0	-232262.0	-860247.0	-71270.0
28	18	6	7	258	157.0	-231575.0	-859351.0	-75583.0
28	18	6	7	259	158.0	-231061.0	-858621.0	-73887.0
28	18	6	7	260	159.0	-230354.0	-857692.0	-64797.0
28	18	6	7	260	160.0	-229188.0	-857121.0	-55384.0
28	18	6	7	261	161.0	-227796.0	-857082.0	-48639.0
28	18	6	7	261	162.0	-226331.0	-854774.0	-45370.0
28	18	6	7	292	163.0	-225594.0	-851466.0	-48937.0
28	18	6	7	293	164.0	-225923.0	-850512.0	-52664.0
28	18	6	7	294	165.0	-227153.0	-849808.0	-55130.0
28	18	6	7	295	166.0	-227837.0	-848322.0	-58630.0
28	18	6	7	295	167.0	-227167.0	-846729.0	-64862.0
28	18	6	7	296	168.0	-225328.0	-844662.0	-65149.0
28	18	6	7	297	169.0	-222938.0	-839435.0	-58591.0
28	18	6	7	298	170.0	-220671.0	-836429.0	-49302.0
28	18	6	7	298	171.0	-217528.0	-835579.0	-42671.0
28	18	6	7	299	172.0	-214552.0	-835937.0	-40966.0
28	18	6	7	300	173.0	-212394.0	-835611.0	-45019.0
28	18	6	7	300	174.0	-210859.0	-832908.0	-48214.0
28	18	6	7	301	175.0	-209108.0	-830294.0	-51359.0
28	18	6	7	302	176.0	-206807.0	-828877.0	-54755.0
28	18	6	7	302	177.0	-204517.0	-827402.0	-61839.0
28	18	6	7	303	179.0	-200420.0	-824425.0	-56829.0
28	18	6	7	303	180.0	-198198.0	-823081.0	-50043.0
28	18	6	7	304	181.0	-195560.0	-821714.0	-44524.0
28	18	6	7	305	182.0	-192596.0	-820198.0	-43020.0
28	18	6	7	305	183.0	-189570.0	-818681.0	-46644.0
28	18	6	7	306	184.0	-186410.0	-817737.0	-50432.0
28	18	6	7	338	185.0	-183312.0	-820990.0	-53082.0
28	18	6	7	338	186.0	-180427.0	-828866.0	-56807.0
28	18	6	7	339	187.0	-178254.0	-828769.0	-63379.0
28	18	6	7	340	188.0	-177147.0	-828062.0	-63524.0
28	18	6	7	341	189.0	-176507.0	-826860.0	-58635.0
28	18	6	7	342	190.0	-175719.0	-825434.0	-51407.0
28	18	6	7	342	191.0	-175364.0	-824858.0	-46554.0
28	18	6	7	343	192.0	-175000.0	-823640.0	-46683.0
28	18	6	7	344	193.0	-175699.0	-814184.0	-52314.0
28	18	6	7	344	194.0	-177116.0	-807046.0	-58171.0
28	18	6	7	345	195.0	-179059.0	-806296.0	-63651.0
28	18	6	7	346	196.0	-181457.0	-806205.0	-66942.0
28	18	6	7	346	197.0	-184247.0	-805408.0	-71837.0
28	18	6	7	347	198.0	-187748.0	-804668.0	-70865.0
28	18	6	7	348	199.0	-190666.0	-804232.0	-66337.0
28	18	6	7	348	201.0	-195366.0	-804024.0	-53225.0
28	18	6	7	349	202.0	-197445.0	-802995.0	-51746.0
28	18	6	7	349	203.0	-199305.0	-801617.0	-55115.0
28	18	6	7	350	204.0	-201445.0	-802017.0	-58172.0
28	18	6	7	351	205.0	-203930.0	-811717.0	-60794.0
28	18	6	7	351	206.0	-206249.0	-822067.0	-65491.0
28	18	6	7	382	207.0	-208347.0	-821988.0	-72480.0
28	18	6	7	383	208.0	-209946.0	-823068.0	-72641.0
28	18	6	7	384	209.0	-212232.0	-823495.0	-68066.0
28	18	6	7	385	210.0	-213257.0	-822637.0	-59779.0
28	18	6	7	385	211.0	-213794.0	-823329.0	-54497.0
28	18	6	7	386	212.0	-214126.0	-824474.0	-53830.0
28	18	6	7	387	213.0	-213471.0	-825006.0	-57714.0
28	18	6	7	387	214.0	-213459.0	-825716.0	-61769.0
28	18	6	7	388	215.0	-213336.0	-825798.0	-65722.0
28	18	6	7	389	216.0	-213073.0	-825734.0	-70471.0
28	18	6	7	389	217.0	-213004.0	-825464.0	-75337.0
28	18	6	7	390	218.0	-212900.0	-825213.0	-74703.0
28	18	6	7	391	219.0	-212756.0	-824990.0	-68884.0
28	18	6	7	391	220.0	-211965.0	-824974.0	-60409.0
28	18	6	7	392	221.0	-210571.0	-824279.0	-55271.0
28	18	6	7	393	223.0	-208201.0	-824062.0	-60514.0
28	18	6	7	393	224.0	-207908.0	-823579.0	-64747.0
28	18	6	7	394	225.0	-206667.0	-822601.0	-68706.0
28	18	6	7	395	226.0	-205872.0	-822177.0	-72464.0
28	18	6	7	395	227.0	-205278.0	-822281.0	-77262.0
28	18	6	7	396	228.0	-204169.0	-822806.0	-75124.0
28	18	6	7	396	229.0	-203346.0	-822942.0	-69819.0
28	18	6	7	427	230.0	-201900.0	-822808.0	-62027.0
28	18	6	7	428	231.0	-201148.0	-831894.0	-57415.0
28	18	6	7	428	232.0	-201287.0	-839224.0	-57616.0
28	18	6	7	429	233.0	-201201.0	-830810.0	-60704.0
28	18	6	7	430	234.0	-200807.0	-821038.0	-61202.0
28	18	6	7	431	235.0	-200089.0	-820234.0	-62615.0
28	18	6	7	431	236.0	-199302.0	-819461.0	-65286.0
28	18	6	7	432	237.0	-198292.0	-817875.0	-72325.0
28	18	6	7	433	238.0	-197407.0	-816915.0	-73280.0
28	18	6	7	433	239.0	-196317.0	-816125.0	-69383.0
28	18	6	7	434	240.0	-195104.0	-815498.0	-64915.0
28	18	6	7	435	241.0	-193857.0	-815384.0	-63692.0
28	18	6	7	435	242.0	-192997.0	-815396.0	-65895.0
28	18	6	7	436	243.0	-191691.0	-814429.0	-71226.0
28	18	6	7	437	244.0	-189514.0	-815706.0	-74047.0
28	18	6	7	437	246.0	-186499.0	-813693.0	-79881.0
28	18	6	7	438	247.0	-184955.0	-810584.0	-84818.0
28	18	6	7	439	248.0	-183913.0	-808509.0	-81951.0
28	18	6	7	439	249.0	-182564.0	-806926.0	-76291.0
28	18	6	7	440	250.0	-181149.0	-804943.0	-71219.0
28	18	6	7	440	251.0	-179935.0	-805745.0	-68524.0
28	18	6	7	473	252.0	-178480.0	-811447.0	-69656.0
28	18	6	7	473	253.0	-175682.0	-810141.0	-75398.0
28	18	6	7	474	254.0	-172455.0	-809284.0	-80932.0
28	18	6	7	475	255.0	-170729.0	-808717.0	-86768.0
28	18	6	7	476	0.0	-169567.0	-806252.0	-94559.0
28	18	6	7	476	1.0	-164549.0	-802340.0	-99501.0
28	18	6	7	477	2.0	-155471.0	-798884.0	-95066.0
28	18	6	7	478	3.0	-146721.0	-796314.0	-87411.0
28	18	6	7	479	4.0	-141529.0	-793102.0	-80866.0
28	18	6	7	479	5.0	-139056.0	-789839.0	-80761.0
28	18	6	7	480	6.0	-139159.0	-786553.0	-85703.0
28	18	6	7	481	7.0	-139666.0	-782808.0	-90291.0
28	18	6	7	481	8.0	-140196.0	-780218.0	-93662.0
28	18	6	7	482	9.0	-141258.0	-777889.0	-96509.0
28	18	6	7	483	10.0	-142534.0	-775932.0	-101385.0
28	18	6	7	483	12.0	-150556.0	-773754.0	-104392.0
28	18	6	7	484	13.0	-156128.0	-773334.0	-97546.0
28	18	6	7	485	14.0	-160173.0	-773021.0	-90164.0
28	18	6	7	485	15.0	-161802.0	-772350.0	-86985.0
28	18	6	7	486	16.0	-163388.0	-772187.0	-88254.0
28	18	6	7	486	17.0	-167878.0	-772972.0	-90977.0
28	18	6	7	487	18.0	-172654.0	-774064.0	-93481.0
28	18	6	7	518	19.0	-179491.0	-774197.0	-95799.0
28	18	6	7	519	20.0	-184937.0	-774117.0	-100556.0
28	18	6	7	519	21.0	-186939.0	-774199.0	-105173.0
28	18	6	7	520	22.0	-187263.0	-774143.0	-100824.0
28	18	6	7	521	23.0	-188807.0	-774659.0	-94366.0
28	18	6	7	522	24.0	-197178.0	-774692.0	-88393.0
28	18	6	7	522	25.0	-210726.0	-773134.0	-84268.0
28	18	6	7	523	26.0	-222679.0	-772655.0	-86681.0
28	18	6	7	524	27.0	-231656.0	-771744.0	-91966.0
28	18	6	7	524	28.0	-237871.0	-770856.0	-93989.0
28	18	6	7	525	29.0	-240361.0	-769094.0	-96250.0
28	18	6	7	526	30.0	-242529.0	-761314.0	-102470.0
28	18	6	7	526	31.0	-244267.0	-757250.0	-106469.0
28	18	6	7	527	32.0	-246542.0	-757099.0	-103349.0
28	18	6	7	528	33.0	-248660.0	-757746.0	-98061.0
28	18	6	7	528	35.0	-254274.0	-756777.0	-89020.0
28	18	6	7	529	36.0	-257387.0	-755272.0	-91211.0
28	18	6	7	530	37.0	-260552.0	-753451.0	-95419.0
28	18	6	7	530	38.0	-265427.0	-750562.0	-98146.0
28	18	6	7	531	39.0	-270061.0	-747781.0	-101598.0
28	18	6	7	532	40.0	-275153.0	-745350.0	-105935.0
28	18	6	7	562	41.0	-279203.0	-743379.0	-108711.0
28	18	6	7	563	42.0	-283101.0	-742446.0	-105633.0
28	18	6	7	564	43.0	-285092.0	-742420.0	-99401.0
28	18	6	7	565	44.0	-286176.0	-743046.0	-93775.0
28	18	6	7	567	45.0	-285536.0	-743245.0	-92769.0
28	18	6	7	567	46.0	-284986.0	-743051.0	-95976.0
28	18	6	7	568	47.0	-284166.0	-742330.0	-97876.0
28	18	6	7	569	48.0	-282913.0	-741377.0	-98141.0
28	18	6	7	570	49.0	-281436.0	-735116.0	-101022.0
28	18	6	7	570	50.0	-280038.0	-732362.0	-108881.0
28	18	6	7	571	51.0	-278912.0	-732250.0	-113487.0
28	18	6	7	572	52.0	-277259.0	-732119.0	-108082.0
28	18	6	7	572	53.0	-275111.0	-733084.0	-100485.0
28	18	6	7	573	54.0	-271812.0	-739880.0	-92754.0
28	18	6	7	574	55.0	-269066.0	-745420.0	-90199.0
28	18	6	7	574	57.0	-262680.0	-741286.0	-95934.0
28	18	6	7	575	58.0	-259301.0	-735351.0	-100115.0
28	18	6	7	575	59.0	-255973.0	-732941.0	-105422.0
28	18	6	7	576	60.0	-252516.0	-737742.0	-112207.0
28	18	6	7	577	61.0	-249482.0	-751117.0	-116427.0
28	18	6	7	577	62.0	-246601.0	-753558.0	-114147.0
28	18	6	7	578	63.0	-244089.0	-754554.0	-108325.0
28	18	6	7	607	64.0	-242957.0	-755950.0	-103640.0
28	18	6	7	608	65.0	-242537.0	-756025.0	-102032.0
28	18	6	7	608	66.0	-241655.0	-755645.0	-105587.0
28	18	6	7	609	67.0	-240821.0	-755777.0	-109881.0
28	18	6	7	609	68.0	-240372.0	-755037.0	-114106.0
28	18	6	7	610	69.0	-239933.0	-753161.0	-119175.0
28	18	6	7	611	70.0	-239740.0	-751704.0	-127272.0
28	18	6	7	611	71.0	-239197.0	-751321.0	-130296.0
28	18	6	7	612	72.0	-239294.0	-750922.0	-127551.0
28	18	6	7	612	73.0	-239298.0	-751241.0	-122324.0
28	18	6	7	613	74.0	-238467.0	-751242.0	-116792.0
28	18	6	7	613	75.0	-237996.0	-750279.0	-114924.0
28	18	6	7	614	76.0	-237331.0	-748642.0	-118126.0
28	18	6	7	614	77.0	-237043.0	-747191.0	-122125.0
28	18	6	7	615	78.0	-237326.0	-745492.0	-125504.0
28	18	6	7	615	80.0	-238097.0	-741457.0	-135903.0
28	18	6	7	616	81.0	-239053.0	-741275.0	-139447.0
28	18	6	7	617	82.0	-239789.0	-740252.0	-138303.0
28	18	6	7	617	83.0	-240553.0	-739731.0	-134932.0
28	18	6	7	618	84.0	-241291.0	-739825.0	-130852.0
28	18	6	7	618	85.0	-242214.0	-739976.0	-130693.0
28	18	6	7	652	86.0	-242104.0	-739847.0	-136514.0
28	18	6	7	653	87.0	-242172.0	-739861.0	-142162.0
28	18	6	7	653	88.0	-242302.0	-741321.0	-146749.0
28	18	6	7	654	89.0	-242384.0	-747042.0	-148624.0
28	18	6	7	654	90.0	-242316.0	-745172.0	-153869.0
28	18	6	7	655	91.0	-242312.0	-741931.0	-157513.0
28	18	6	7	656	92.0	-241989.0	-738922.0	-154869.0
28	18	6	7	657	93.0	-241382.0	-736312.0	-148081.0
28	18	6	7	658	94.0	-240272.0	-734614.0	-144300.0
28	18	6	7	659	95.0	-238471.0	-733676.0	-143317.0
28	18	6	7	659	96.0	-236057.0	-731914.0	-147462.0
28	18	6	7	660	97.0	-233462.0	-727970.0	-152823.0
28	18	6	7	660	98.0	-230094.0	-719811.0	-156154.0
28	18	6	7	661	99.0	-228043.0	-716974.0	-161756.0
28	18	6	7	661	100.0	-225067.0	-715778.0	-168561.0
28	18	6	7	662	102.0	-220802.0	-711636.0	-169756.0
28	18	6	7	663	103.0	-218518.0	-708476.0	-166164.0
28	18	6	7	663	104.0	-216634.0	-706332.0	-163034.0
28	18	6	7	664	105.0	-214809.0	-704236.0	-163172.0
28	18	6	7	664	106.0	-212224.0	-700824.0	-167150.0
28	18	6	7	665	107.0	-210431.0	-697563.0	-170987.0
28	18	6	7	665	108.0	-208268.0	-695626.0	-175483.0
28	18	6	7	697	109.0	-205828.0	-693326.0	-180441.0
28	18	6	7	698	110.0	-203442.0	-691237.0	-186992.0
28	18	6	7	698	111.0	-200904.0	-684714.0	-189326.0
28	18	6	7	699	112.0	-197512.0	-673486.0	-187349.0
28	18	6	7	699	113.0	-194385.0	-671067.0	-182834.0
28	18	6	7	700	114.0	-191017.0	-669421.0	-179976.0
28	18	6	7	720	115.0	-187815.0	-668044.0	-182047.0
28	18	6	7	720	116.0	-184513.0	-666310.0	-187202.0
28	18	6	7	721	117.0	-181032.0	-664927.0	-190241.0
28	18	6	7	722	118.0	-177751.0	-663584.0	-194029.0
28	18	6	7	722	119.0	-173632.0	-662769.0	-198956.0
28	18	6	7	723	120.0	-169619.0	-661546.0	-206239.0
28	18	6	7	723	121.0	-165963.0	-659962.0	-208197.0
28	18	6	7	724	122.0	-161757.0	-658715.0	-204902.0
28	18	6	7	724	123.0	-158049.0	-657293.0	-201426.0
28	18	6	7	725	125.0	-151822.0	-654886.0	-200758.0
28	18	6	7	725	126.0	-148656.0	-651463.0	-205965.0
28	18	6	7	726	127.0	-145466.0	-647646.0	-210425.0
28	18	6	7	727	128.0	-142474.0	-645017.0	-215478.0
28	18	6	7	727	129.0	-139776.0	-643381.0	-220110.0
28	18	6	7	728	130.0	-137686.0	-641732.0	-226816.0
28	18	6	7	744	131.0	-136779.0	-641264.0	-228342.0
28	18	6	7	744	132.0	-137121.0	-641084.0	-226237.0
28	18	6	7	745	133.0	-138157.0	-640905.0	-222638.0
28	18	6	7	746	134.0	-139346.0	-640158.0	-220664.0
28	18	6	7	746	135.0	-140932.0	-639377.0	-221496.0
28	18	6	7	747	136.0	-142592.0	-638110.0	-226151.0
28	18	6	7	747	137.0	-144444.0	-637384.0	-230480.0
28	18	6	7	748	138.0	-146874.0	-638217.0	-234045.0
28	18	6	7	749	139.0	-150049.0	-637622.0	-238318.0
28	18	6	7	749	140.0	-154099.0	-637851.0	-242507.0
28	18	6	7	750	141.0	-158007.0	-636944.0	-240493.0
28	18	6	7	750	142.0	-161526.0	-635669.0	-235040.0
28	18	6	7	751	143.0	-165936.0	-635032.0	-228132.0
28	18	6	7	752	144.0	-170703.0	-635266.0	-223214.0
28	18	6	7	752	145.0	-174689.0	-635849.0	-222312.0
28	18	6	7	753	147.0	-181697.0	-635504.0	-228182.0
28	18	6	7	753	148.0	-184897.0	-634835.0	-231522.0
28	18	6	7	754	149.0	-187720.0	-633887.0	-236490.0
28	18	6	7	755	150.0	-190166.0	-634076.0	-240641.0
28	18	6	7	755	151.0	-192012.0	-633374.0	-238695.0
28	18	6	7	756	152.0	-193237.0	-632786.0	-233121.0
28	18	6	7	787	153.0	-193741.0	-631917.0	-225994.0
28	18	6	7	788	154.0	-194126.0	-630844.0	-222053.0
28	18	6	7	789	155.0	-194552.0	-630362.0	-221638.0
28	18	6	7	789	156.0	-194687.0	-630102.0	-226218.0
28	18	6	7	790	157.0	-195501.0	-629537.0	-230846.0
28	18	6	7	791	158.0	-196204.0	-628193.0	-234647.0
28	18	6	7	791	159.0	-196782.0	-627227.0	-240022.0
28	18	6	7	792	160.0	-196537.0	-626047.0	-247506.0
28	18	6	7	793	161.0	-196142.0	-625891.0	-247729.0
28	18	6	7	793	162.0	-196460.0	-629933.0	-242693.0
28	18	6	7	794	163.0	-195564.0	-631124.0	-236069.0
28	18	6	7	795	164.0	-194384.0	-630246.0	-232174.0
28	18	6	7	795	165.0	-192809.0	-629137.0	-231741.0
28	18	6	7	796	166.0	-189762.0	-628014.0	-235437.0
28	18	6	7	796	167.0	-185781.0	-627164.0	-238591.0
28	18	6	7	797	169.0	-179673.0	-625852.0	-245031.0
28	18	6	7	798	170.0	-175853.0	-624972.0	-248204.0
28	18	6	7	798	171.0	-172349.0	-629612.0	-245909.0
28	18	6	7	799	172.0	-168397.0	-633827.0	-241012.0
28	18	6	7	799	173.0	-164057.0	-633504.0	-234550.0
28	18	6	7	800	174.0	-160762.0	-633859.0	-231311.0
28	18	6	7	800	175.0	-158068.0	-633667.0	-231608.0
28	18	6	7	833	176.0	-155476.0	-632953.0	-236294.0
28	18	6	7	833	177.0	-152537.0	-632933.0	-241336.0
28	18	6	7	834	178.0	-150086.0	-632587.0	-244427.0
28	18	6	7	835	179.0	-148060.0	-631248.0	-247722.0
28	18	6	7	835	180.0	-146676.0	-628862.0	-252202.0
28	18	6	7	836	181.0	-145902.0	-623428.0	-250495.0
28	18	6	7	837	182.0	-146069.0	-620771.0	-245010.0
28	18	6	7	837	183.0	-145491.0	-620252.0	-238909.0
28	18	6	7	838	184.0	-145848.0	-620273.0	-234844.0
28	18	6	7	838	185.0	-146475.0	-620001.0	-236743.0
28	18	6	7	839	186.0	-146776.0	-619726.0	-241247.0
28	18	6	7	840	187.0	-147086.0	-618656.0	-244784.0
28	18	6	7	840	188.0	-148041.0	-618284.0	-248748.0
28	18	6	7	841	189.0	-149359.0	-615597.0	-254214.0
28	18	6	7	841	190.0	-150882.0	-602135.0	-259809.0
28	18	6	7	842	192.0	-153676.0	-599698.0	-263379.0
28	18	6	7	843	193.0	-154542.0	-598925.0	-263654.0
28	18	6	7	843	194.0	-155072.0	-598789.0	-264541.0
28	18	6	7	844	195.0	-155459.0	-599090.0	-269191.0
28	18	6	7	844	196.0	-155741.0	-597894.0	-275942.0
28	18	6	7	845	197.0	-156337.0	-593412.0	-282122.0
28	18	6	7	877	198.0	-157188.0	-593199.0	-288159.0
28	18	6	7	878	199.0	-157906.0	-593559.0	-294717.0
28	18	6	7	878	200.0	-158334.0	-593065.0	-299619.0
28	18	6	7	879	201.0	-158339.0	-593856.0	-296297.0
28	18	6	7	880	202.0	-157982.0	-595511.0	-286926.0
28	18	6	7	880	203.0	-157501.0	-596629.0	-276197.0
28	18	6	7	881	204.0	-157106.0	-597351.0	-266203.0
28	18	6	7	881	205.0	-157268.0	-598581.0	-260032.0
28	18	6	7	882	206.0	-158132.0	-599373.0	-256172.0
28	18	6	7	883	207.0	-159592.0	-599696.0	-249369.0
28	18	6	7	883	208.0	-162114.0	-600657.0	-243309.0
28	18	6	7	884	209.0	-164826.0	-602249.0	-245302.0
28	18	6	7	884	210.0	-167326.0	-604589.0	-249508.0
28	18	6	7	885	211.0	-169478.0	-606677.0	-246717.0
28	18	6	7	886	212.0	-170946.0	-608739.0	-240706.0
28	18	6	7	886	214.0	-171421.0	-611771.0	-235362.0
28	18	6	7	887	215.0	-169719.0	-613329.0	-236896.0
28	18	6	7	887	216.0	-165141.0	-616141.0	-239263.0
28	18	6	7	888	217.0	-155215.0	-620559.0	-241292.0
28	18	6	7	889	218.0	-143237.0	-622109.0	-242546.0
28	18	6	7	889	219.0	-132878.0	-622966.0	-245734.0
28	18	6	7	890	220.0	-126947.0	-624067.0	-248764.0
28	18	6	7	923	221.0	-128326.0	-625359.0	-246317.0
28	18	6	7	923	222.0	-130627.0	-627150.0	-240487.0
28	18	6	7	924	223.0	-133719.0	-628961.0	-233682.0
28	18	6	7	924	224.0	-138042.0	-630299.0	-230204.0
28	18	6	7	925	225.0	-144422.0	-632229.0	-229877.0
28	18	6	7	926	226.0	-150367.0	-638186.0	-231632.0
28	18	6	7	926	227.0	-154984.0	-642776.0	-232517.0
28	18	6	7	927	228.0	-158354.0	-643530.0	-234763.0
28	18	6	7	928	229.0	-160481.0	-645009.0	-239171.0
28	18	6	7	928	230.0	-162724.0	-646967.0	-241500.0
28	18	6	7	929	231.0	-165525.0	-649946.0	-236923.0
28	18	6	7	929	232.0	-168559.0	-654399.0	-230546.0
28	18	6	7	930	233.0	-171276.0	-658452.0	-224119.0
28	18	6	7	930	234.0	-174607.0	-661675.0	-220373.0
28	18	6	7	931	235.0	-178160.0	-664526.0	-221087.0
28	18	6	7	932	237.0	-180822.0	-672537.0	-229398.0
28	18	6	7	932	238.0	-179136.0	-675885.0	-232507.0
28	18	6	7	933	239.0	-176608.0	-678586.0	-237645.0
28	18	6	7	933	240.0	-173886.0	-680076.0	-242247.0
28	18	6	7	934	241.0	-171213.0	-683276.0	-238276.0
28	18	6	7	934	242.0	-167123.0	-687674.0	-231129.0
28	18	6	7	967	243.0	-162843.0	-693054.0	-225316.0
28	18	6	7	968	244.0	-152376.0	-696871.0	-223266.0
28	18	6	7	969	245.0	-135051.0	-698859.0	-224780.0
28	18	6	7	969	246.0	-147716.0	-701145.0	-228981.0
28	18	6	7	970	247.0	-142406.0	-703654.0	-231165.0
28	18	6	7	971	248.0	-144516.0	-706542.0	-232739.0
28	18	6	7	971	249.0	-139469.0	-709826.0	-237882.0
28	18	6	7	972	250.0	-141361.0	-712590.0	-240278.0
28	18	6	7	972	251.0	-142201.0	-714169.0	-234604.0
28	18	6	7	973	252.0	-144076.0	-715861.0	-226850.0
28	18	6	7	974	253.0	-144824.0	-718980.0	-220054.0
28	18	6	7	974	254.0	-144004.0	-722577.0	-217136.0
28	18	6	7	975	255.0	-142380.0	-725239.0	-218598.0
28	18	6	7	975	0.0	-140616.0	-728427.0	-221356.0
28	18	6	7	976	1.0	-139755.0	-731163.0	-225036.0
28	18	6	7	977	3.0	-140152.0	-734705.0	-232812.0
28	18	6	7	977	4.0	-139724.0	-736388.0	-234201.0
28	18	6	7	978	5.0	-139542.0	-737979.0	-230365.0
28	18	6	7	986	6.0	-140031.0	-740814.0	-223422.0
28	18	6	7	987	7.0	-141502.0	-743758.0	-217571.0
28	18	6	7	987	8.0	-143380.0	-746602.0	-216575.0
28	18	6	7	988	9.0	-144984.0	-750812.0	-219200.0
28	18	6	8	12	10.0	-146246.0	-755607.0	-221274.0
28	18	6	8	12	11.0	-145933.0	-756163.0	-222761.0
28	18	6	8	13	12.0	-145277.0	-756100.0	-224829.0
28	18	6	8	14	13.0	-143511.0	-756712.0	-229697.0
28	18	6	8	14	14.0	-139387.0	-760909.0	-232387.0
28	18	6	8	15	15.0	-133184.0	-756517.0	-229642.0
28	18	6	8	15	16.0	-128301.0	-753781.0	-223319.0
28	18	6	8	16	17.0	-126407.0	-750584.0	-217517.0
28	18	6	8	17	18.0	-127391.0	-744509.0	-215228.0
28	18	6	8	17	19.0	-128312.0	-739828.0	-218536.0
28	18	6	8	18	20.0	-114256.0	-739209.0	-222247.0
28	18	6	8	18	21.0	-113146.0	-739542.0	-223186.0
28	18	6	8	19	22.0	-129952.0	-741282.0	-225199.0
28	18	6	8	20	23.0	-126312.0	-742041.0	-229291.0
28	18	6	8	20	24.0	-134307.0	-740932.0	-230262.0
28	18	6	8	21	26.0	-143284.0	-743420.0	-217351.0
28	18	6	8	21	27.0	-150237.0	-745489.0	-209405.0
28	18	6	8	22	28.0	-156256.0	-747616.0	-204646.0
28	18	6	8	23	29.0	-157355.0	-748919.0	-206499.0
28	18	6	8	23	30.0	-157629.0	-748449.0	-209107.0
28	18	6	8	24	31.0	-159428.0	-745352.0	-211744.0
28	18	6	8	57	32.0	-163064.0	-740509.0	-213191.0
28	18	6	8	58	33.0	-168237.0	-734116.0	-215934.0
28	18	6	8	58	34.0	-174657.0	-732246.0	-216864.0
28	18	6	8	59	35.0	-180432.0	-730466.0	-211561.0
28	18	6	8	60	36.0	-185462.0	-731416.0	-203129.0
28	18	6	8	60	37.0	-190695.0	-733151.0	-197120.0
28	18	6	8	61	38.0	-195248.0	-734564.0	-193989.0
28	18	6	8	62	39.0	-200330.0	-735889.0	-194184.0
28	18	6	8	63	40.0	-205330.0	-738031.0	-195697.0
28	18	6	8	63	41.0	-211111.0	-740921.0	-196920.0
28	18	6	8	64	42.0	-216645.0	-743832.0	-199446.0
28	18	6	8	64	43.0	-219948.0	-746278.0	-202724.0
28	18	6	8	65	44.0	-220770.0	-748990.0	-202251.0
28	18	6	8	66	45.0	-220692.0	-749394.0	-196126.0
28	18	6	8	66	46.0	-221799.0	-746976.0	-187643.0
28	18	6	8	67	48.0	-229419.0	-749111.0	-180606.0
28	18	6	8	67	49.0	-232449.0	-750542.0	-182729.0
28	18	6	8	68	50.0	-234991.0	-752047.0	-183966.0
28	18	6	8	69	51.0	-237394.0	-754554.0	-183967.0
28	18	6	8	69	52.0	-239850.0	-762410.0	-186226.0
28	18	6	8	70	53.0	-241420.0	-771469.0	-190384.0
28	18	6	8	70	54.0	-242932.0	-772846.0	-187662.0
28	18	6	8	102	55.0	-243754.0	-774099.0	-181774.0
28	18	6	8	103	56.0	-243739.0	-776350.0	-175140.0
28	18	6	8	104	57.0	-244051.0	-777553.0	-170491.0
28	18	6	8	104	58.0	-244191.0	-776554.0	-168964.0
28	18	6	8	105	59.0	-244129.0	-776192.0	-170949.0
28	18	6	8	106	60.0	-244039.0	-772994.0	-173373.0
28	18	6	8	106	61.0	-243569.0	-771595.0	-175232.0
28	18	6	8	107	62.0	-242044.0	-773430.0	-176900.0
28	18	6	8	108	63.0	-239831.0	-775499.0	-180446.0
28	18	6	8	108	64.0	-237114.0	-777621.0	-181247.0
28	18	6	8	109	65.0	-234191.0	-780190.0	-177167.0
28	18	6	8	110	66.0	-231209.0	-782801.0	-172921.0
28	18	6	8	111	67.0	-228570.0	-785357.0	-170224.0
28	18	6	8	111	68.0	-225802.0	-787991.0	-169431.0
28	18	6	8	112	69.0	-222437.0	-790763.0	-171523.0
28	18	6	8	112	71.0	-215057.0	-796226.0	-174483.0
28	18	6	8	113	72.0	-210542.0	-798261.0	-175634.0
28	18	6	8	153	73.0	-206237.0	-799011.0	-178449.0
28	18	6	8	154	74.0	-203071.0	-801119.0	-177471.0
28	18	6	8	154	75.0	-200249.0	-803465.0	-172641.0
28	18	6	8	155	76.0	-193813.0	-805904.0	-165044.0
28	18	6	8	156	77.0	-192671.0	-808809.0	-160314.0
28	18	6	8	156	78.0	-190927.0	-812613.0	-159355.0
28	18	6	8	157	79.0	-188439.0	-816333.0	-160464.0
28	18	6	8	158	80.0	-189089.0	-817712.0	-162192.0
28	18	6	8	159	81.0	-186728.0	-820616.0	-165688.0
28	18	6	8	160	82.0	-185816.0	-836030.0	-168423.0
28	18	6	8	160	83.0	-181709.0	-843342.0	-172599.0
28	18	6	8	161	84.0	-157004.0	-844587.0	-171356.0
28	18	6	8	161	85.0	-159351.0	-846036.0	-165842.0
28	18	6	8	162	86.0	-166852.0	-847489.0	-157780.0
28	18	6	8	163	87.0	-164817.0	-848721.0	-153207.0
28	18	6	8	163	88.0	-172467.0	-850219.0	-152706.0
28	18	6	8	164	93.0	-189786.0	-856387.0	-170918.0
28	18	6	8	164	94.0	-191849.0	-857516.0	-169781.0
28	18	6	8	165	95.0	-192692.0	-856396.0	-164532.0
28	18	6	8	166	96.0	-193961.0	-854739.0	-157758.0
28	18	6	8	166	97.0	-195199.0	-856281.0	-151779.0
28	18	6	8	167	98.0	-198441.0	-857785.0	-150649.0
28	18	6	8	167	99.0	-201737.0	-858340.0	-154621.0
28	18	6	8	193	100.0	-205414.0	-859979.0	-156964.0
28	18	6	8	194	101.0	-209676.0	-861591.0	-159949.0
28	18	6	8	195	102.0	-213572.0	-863179.0	-163864.0
28	18	6	8	195	103.0	-217896.0	-864234.0	-169057.0
28	18	6	8	196	104.0	-220887.0	-865611.0	-166284.0
28	18	6	8	197	105.0	-223318.0	-867341.0	-158734.0
28	18	6	8	197	106.0	-224295.0	-868832.0	-151049.0
28	18	6	8	198	107.0	-222749.0	-868591.0	-146232.0
28	18	6	8	199	108.0	-218296.0	-869564.0	-144367.0
28	18	6	8	199	109.0	-214972.0	-871714.0	-146081.0
28	18	6	8	200	110.0	-220266.0	-873216.0	-149115.0
28	18	6	8	201	111.0	-229550.0	-874556.0	-152155.0
28	18	6	8	201	112.0	-236832.0	-875559.0	-155982.0
28	18	6	8	202	113.0	-245984.0	-876754.0	-160607.0
28	18	6	8	203	114.0	-249064.0	-878096.0	-158864.0
28	18	6	8	203	115.0	-247507.0	-879683.0	-152974.0
28	18	6	8	204	116.0	-244177.0	-881812.0	-146861.0
28	18	6	8	204	117.0	-240772.0	-883329.0	-142767.0
28	18	6	8	205	118.0	-235976.0	-884051.0	-142773.0
28	18	6	8	206	119.0	-233096.0	-882189.0	-146171.0
28	18	6	8	206	120.0	-229416.0	-881946.0	-147605.0
28	18	6	8	207	121.0	-225614.0	-883761.0	-150417.0
28	18	6	8	237	122.0	-221511.0	-885446.0	-154878.0
28	18	6	8	237	123.0	-218425.0	-886537.0	-160292.0
28	18	6	8	238	124.0	-217177.0	-888446.0	-157806.0
28	18	6	8	240	125.0	-216407.0	-890954.0	-152824.0
28	18	6	8	240	126.0	-215962.0	-894382.0	-148870.0
28	18	6	8	241	127.0	-216084.0	-897576.0	-146126.0
28	18	6	8	242	128.0	-215389.0	-898519.0	-147397.0
28	18	6	8	242	129.0	-213926.0	-899966.0	-150807.0
28	18	6	8	243	130.0	-212189.0	-903037.0	-152426.0
28	18	6	8	244	131.0	-210166.0	-908561.0	-156294.0
28	18	6	8	244	132.0	-207720.0	-921664.0	-161258.0
28	18	6	8	245	133.0	-205327.0	-925471.0	-165435.0
28	18	6	8	245	134.0	-203404.0	-926269.0	-162706.0
28	18	6	8	246	135.0	-202240.0	-928047.0	-157314.0
28	18	6	8	247	136.0	-202037.0	-930596.0	-152367.0
28	18	6	8	247	138.0	-203339.0	-932539.0	-151281.0
28	18	6	8	248	139.0	-204261.0	-933987.0	-155181.0
28	18	6	8	249	140.0	-205021.0	-936626.0	-157289.0
28	18	6	8	249	141.0	-205697.0	-938813.0	-158715.0
28	18	6	8	250	142.0	-206042.0	-940553.0	-161469.0
28	18	6	8	250	143.0	-206261.0	-942130.0	-164633.0
28	18	6	8	282	144.0	-205676.0	-943132.0	-162345.0
28	18	6	8	283	145.0	-204672.0	-944632.0	-158422.0
28	18	6	8	284	146.0	-204239.0	-946689.0	-152877.0
28	18	6	8	285	147.0	-204337.0	-948436.0	-149738.0
28	18	6	8	285	148.0	-204464.0	-950263.0	-151151.0
28	18	6	8	286	149.0	-204535.0	-950799.0	-156251.0
28	18	6	8	287	150.0	-204819.0	-951387.0	-159569.0
28	18	6	8	287	151.0	-205944.0	-952267.0	-162895.0
28	18	6	8	288	152.0	-207195.0	-958264.0	-168722.0
28	18	6	8	289	153.0	-208694.0	-973670.0	-173052.0
28	18	6	8	289	154.0	-209888.0	-976562.0	-169957.0
28	18	6	8	290	155.0	-209900.0	-977099.0	-164921.0
28	18	6	8	291	156.0	-209206.0	-978447.0	-159160.0
28	18	6	8	292	157.0	-208433.0	-979169.0	-154744.0
28	18	6	8	293	158.0	-208662.0	-982159.0	-155162.0
28	18	6	8	294	160.0	-211055.0	-986167.0	-160579.0
28	18	6	8	294	161.0	-212184.0	-986330.0	-163247.0
28	18	6	8	295	162.0	-213186.0	-984369.0	-168531.0
28	18	6	8	296	163.0	-214570.0	-983526.0	-172046.0
28	18	6	8	296	164.0	-216358.0	-983979.0	-168021.0
28	18	6	8	297	165.0	-218314.0	-984594.0	-162701.0
28	18	6	8	297	166.0	-219962.0	-985598.0	-157615.0
28	18	6	8	327	167.0	-221882.0	-986199.0	-154651.0
28	18	6	8	348	168.0	-223877.0	-986780.0	-155450.0
28	18	6	8	349	169.0	-225498.0	-987354.0	-157545.0
28	18	6	8	350	170.0	-227059.0	-987878.0	-160204.0
28	18	6	8	351	171.0	-228947.0	-988442.0	-162434.0
28	18	6	8	351	172.0	-229471.0	-989967.0	-166616.0
28	18	6	8	352	173.0	-229439.0	-991493.0	-169458.0
28	18	6	8	352	174.0	-229069.0	-992196.0	-166192.0
28	18	6	8	353	175.0	-228812.0	-992359.0	-159106.0
28	18	6	8	354	176.0	-228722.0	-992679.0	-151041.0
28	18	6	8	354	177.0	-228701.0	-992999.0	-147429.0
28	18	6	8	355	178.0	-228606.0	-993136.0	-150257.0
28	18	6	8	355	179.0	-228571.0	-993818.0	-155639.0
28	18	6	8	356	180.0	-228559.0	-994357.0	-158894.0
28	18	6	8	356	181.0	-229000.0	-995226.0	-161861.0
28	18	6	8	357	183.0	-228762.0	-995180.0	-167083.0
28	18	6	8	358	184.0	-227616.0	-995540.0	-163385.0
28	18	6	8	358	185.0	-225344.0	-996914.0	-158345.0
28	18	6	8	359	186.0	-223251.0	-998538.0	-152028.0
28	18	6	8	359	187.0	-221303.0	-997864.0	-149882.0
28	18	6	8	360	188.0	-220428.0	-995779.0	-152481.0
28	18	6	8	371	189.0	-219981.0	-996801.0	-157084.0
28	18	6	8	372	190.0	-220146.0	-998077.0	-161677.0
28	18	6	8	373	191.0	-220647.0	-998863.0	-165561.0
28	18	6	8	374	192.0	-222426.0	-999824.0	-171034.0
28	18	6	8	393	193.0	-224517.0	-1001309.0	-174782.0
28	18	6	8	394	194.0	-226232.0	-1002386.0	-171990.0
28	18	6	8	395	195.0	-228704.0	-1003421.0	-166731.0
28	18	6	8	396	196.0	-231164.0	-1004381.0	-161337.0
28	18	6	8	396	197.0	-231551.0	-1004878.0	-160522.0
28	18	6	8	397	198.0	-231189.0	-1005487.0	-163062.0
28	18	6	8	398	199.0	-230441.0	-1006532.0	-165429.0
28	18	6	8	398	200.0	-229452.0	-1007759.0	-167885.0
28	18	6	8	399	201.0	-228145.0	-1008435.0	-172441.0
28	18	6	8	399	202.0	-223769.0	-1009141.0	-178991.0
28	18	6	8	400	203.0	-198841.0	-1009674.0	-183284.0
28	18	6	8	401	205.0	-206601.0	-1011524.0	-174319.0
28	18	6	8	401	206.0	-199684.0	-1019570.0	-169289.0
28	18	6	8	402	207.0	-198777.0	-1027550.0	-167837.0
28	18	6	8	402	208.0	-193506.0	-1028530.0	-169311.0
28	18	6	8	403	209.0	-198764.0	-1029469.0	-173222.0
28	18	6	8	404	210.0	-199224.0	-1029363.0	-177676.0
28	18	6	8	404	211.0	-205467.0	-1028967.0	-179763.0
28	18	6	8	420	212.0	-203508.0	-1028696.0	-185343.0
28	18	6	8	421	213.0	-203313.0	-1028719.0	-188408.0
28	18	6	8	422	214.0	-200508.0	-1029377.0	-183954.0
28	18	6	8	423	215.0	-199704.0	-1030106.0	-178132.0
28	18	6	8	424	216.0	-198487.0	-1030795.0	-174090.0
28	18	6	8	424	217.0	-198731.0	-1031224.0	-172111.0
28	18	6	8	425	218.0	-199481.0	-1030865.0	-176105.0
28	18	6	8	426	219.0	-200271.0	-1030808.0	-180416.0
28	18	6	8	426	220.0	-201604.0	-1032293.0	-184004.0
28	18	6	8	427	221.0	-203632.0	-1032879.0	-187674.0
28	18	6	8	428	222.0	-205718.0	-1033225.0	-193565.0
28	18	6	8	428	223.0	-207187.0	-1041153.0	-194938.0
28	18	6	8	429	224.0	-208545.0	-1049860.0	-190564.0
28	18	6	8	430	225.0	-209397.0	-1050871.0	-185035.0
28	18	6	8	430	226.0	-210816.0	-1052027.0	-180212.0
28	18	6	8	431	228.0	-215031.0	-1051141.0	-180495.0
28	18	6	8	431	229.0	-216738.0	-1048500.0	-182595.0
28	18	6	8	432	230.0	-219917.0	-1048414.0	-183944.0
28	18	6	8	433	231.0	-222527.0	-1049163.0	-187547.0
28	18	6	8	433	232.0	-222569.0	-1048711.0	-193797.0
28	18	6	8	434	233.0	-222648.0	-1048424.0	-196942.0
28	18	6	8	464	234.0	-224186.0	-1048499.0	-191384.0
28	18	6	8	464	235.0	-225409.0	-1048843.0	-184615.0
28	18	6	8	465	236.0	-226927.0	-1049774.0	-178089.0
28	18	6	8	466	237.0	-227861.0	-1050720.0	-175657.0
28	18	6	8	467	238.0	-229224.0	-1051838.0	-177919.0
28	18	6	8	468	239.0	-229017.0	-1054537.0	-180553.0
28	18	6	8	468	240.0	-228594.0	-1060503.0	-182929.0
28	18	6	8	469	241.0	-227454.0	-1066876.0	-184967.0
28	18	6	8	470	242.0	-215833.0	-1067220.0	-190247.0
28	18	6	8	470	243.0	-200813.0	-1066766.0	-192284.0
28	18	6	8	471	244.0	-214091.0	-1064199.0	-187546.0
28	18	6	8	472	245.0	-208586.0	-1064247.0	-181843.0
28	18	6	8	472	246.0	-213849.0	-1065035.0	-177126.0
28	18	6	8	473	247.0	-206035.0	-1066009.0	-174916.0
28	18	6	8	474	248.0	-206426.0	-1067171.0	-177203.0
28	18	6	8	474	250.0	-206965.0	-1066549.0	-182807.0
28	18	6	8	475	251.0	-206971.0	-1066724.0	-184672.0
28	18	6	8	476	252.0	-204377.0	-1067170.0	-189106.0
28	18	6	8	476	253.0	-200239.0	-1067155.0	-191949.0
28	18	6	8	477	254.0	-196138.0	-1067114.0	-188525.0
28	18	6	8	477	255.0	-192569.0	-1067306.0	-180604.0
28	18	6	8	478	0.0	-189038.0	-1067556.0	-174978.0
28	18	6	8	509	1.0	-188287.0	-1068156.0	-175137.0
28	18	6	8	510	2.0	-187225.0	-1068267.0	-179402.0
28	18	6	8	511	3.0	-186407.0	-1068386.0	-182547.0
28	18	6	8	512	4.0	-185009.0	-1068165.0	-185066.0
28	18	6	8	513	5.0	-182889.0	-1066684.0	-187977.0
28	18	6	8	513	6.0	-180353.0	-1065002.0	-191689.0
28	18	6	8	514	7.0	-179976.0	-1064518.0	-191196.0
28	18	6	8	515	8.0	-179519.0	-1064741.0	-187424.0
28	18	6	8	516	9.0	-178826.0	-1065931.0	-181892.0
28	18	6	8	517	10.0	-179012.0	-1066298.0	-178981.0
28	18	6	8	517	11.0	-179516.0	-1066073.0	-179677.0
28	18	6	8	518	12.0	-180117.0	-1065093.0	-183776.0
28	18	6	8	519	13.0	-181766.0	-1065075.0	-187139.0
28	18	6	8	520	14.0	-183466.0	-1065981.0	-188917.0
28	18	6	8	520	15.0	-185970.0	-1066765.0	-191042.0
28	18	6	8	521	17.0	-189128.0	-1067587.0	-196401.0
28	18	6	8	521	18.0	-190414.0	-1067916.0	-190452.0
28	18	6	8	522	19.0	-193891.0	-1070067.0	-183916.0
28	18	6	8	523	20.0	-196972.0	-1075173.0	-180148.0
28	18	6	8	523	21.0	-200188.0	-1087051.0	-177651.0
28	18	6	8	524	22.0	-202467.0	-1089749.0	-179519.0
28	18	6	8	552	23.0	-203742.0	-1090679.0	-182544.0
28	18	6	8	596	24.0	-205361.0	-1093011.0	-187019.0
28	18	6	8	597	25.0	-206988.0	-1095013.0	-193472.0
28	18	6	8	613	26.0	-207935.0	-1095709.0	-202128.0
28	18	6	8	613	27.0	-208512.0	-1096117.0	-208262.0
28	18	6	8	614	28.0	-207851.0	-1097475.0	-209279.0
28	18	6	8	614	29.0	-208976.0	-1104026.0	-207681.0
28	18	6	8	615	30.0	-210181.0	-1112021.0	-206791.0
28	18	6	8	615	31.0	-209898.0	-1112733.0	-208722.0
28	18	6	8	616	32.0	-209232.0	-1112824.0	-216144.0
28	18	6	8	617	33.0	-207286.0	-1113076.0	-224060.0
28	18	6	8	617	34.0	-206475.0	-1113468.0	-229625.0
28	18	6	8	618	35.0	-206614.0	-1114317.0	-232763.0
28	18	6	8	618	36.0	-206837.0	-1115297.0	-237451.0
28	18	6	8	619	37.0	-206928.0	-1116161.0	-235864.0
28	18	6	8	619	39.0	-206185.0	-1135996.0	-217357.0
28	18	6	8	620	40.0	-207021.0	-1135984.0	-205575.0
28	18	6	8	620	62.0	-183798.0	-1154821.0	-177317.0
28	18	6	8	621	63.0	-182181.0	-1154323.0	-180111.0
28	18	6	8	621	64.0	-176469.0	-1154041.0	-182899.0
28	18	6	8	622	65.0	-173904.0	-1153759.0	-185224.0
28	18	6	8	623	66.0	-172156.0	-1152688.0	-187484.0
28	18	6	8	623	67.0	-172943.0	-1141072.0	-183767.0
28	18	6	8	641	68.0	-177078.0	-1134164.0	-178111.0
28	18	6	8	642	69.0	-186186.0	-1135764.0	-171185.0
28	18	6	8	643	70.0	-185125.0	-1140266.0	-167727.0
28	18	6	8	643	71.0	-182109.0	-1142701.0	-168432.0
28	18	6	8	644	72.0	-183665.0	-1143081.0	-172818.0
28	18	6	8	645	73.0	-179019.0	-1144037.0	-175382.0
28	18	6	8	645	74.0	-174971.0	-1145322.0	-176788.0
28	18	6	8	646	75.0	-167959.0	-1146476.0	-180623.0
28	18	6	8	646	76.0	-132047.0	-1147864.0	-186881.0
28	18	6	8	647	77.0	-141057.0	-1149221.0	-185294.0
28	18	6	8	648	78.0	-151106.0	-1150189.0	-179474.0
28	18	6	8	648	79.0	-154897.0	-1152032.0	-172334.0
28	18	6	8	649	80.0	-157616.0	-1154139.0	-168612.0
28	18	6	8	649	81.0	-153598.0	-1156379.0	-168903.0
28	18	6	8	650	82.0	-155265.0	-1157631.0	-171392.0
28	18	6	8	651	84.0	-154341.0	-1161636.0	-175386.0
28	18	6	8	651	85.0	-151066.0	-1164116.0	-178677.0
28	18	6	8	652	86.0	-153267.0	-1166556.0	-181612.0
28	18	6	8	652	87.0	-154986.0	-1170778.0	-177359.0
28	18	6	8	653	88.0	-161785.0	-1174384.0	-168443.0
28	18	6	8	654	89.0	-163392.0	-1177646.0	-158796.0
28	18	6	8	686	90.0	-164663.0	-1184946.0	-151900.0
28	18	6	8	687	91.0	-167771.0	-1190062.0	-150080.0
28	18	6	8	687	92.0	-173676.0	-1196938.0	-151296.0
28	18	6	8	688	93.0	-175141.0	-1213077.0	-151981.0
28	18	6	8	689	94.0	-176342.0	-1218552.0	-153325.0
28	18	6	8	689	95.0	-178659.0	-1221556.0	-155748.0
28	18	6	8	690	96.0	-168859.0	-1224296.0	-157619.0
28	18	6	8	690	97.0	-162302.0	-1227378.0	-152042.0
28	18	6	8	691	98.0	-170082.0	-1232228.0	-143509.0
28	18	6	8	692	99.0	-176827.0	-1236421.0	-135322.0
28	18	6	8	692	100.0	-179860.0	-1239900.0	-130012.0
28	18	6	8	693	101.0	-174576.0	-1243143.0	-129133.0
28	18	6	8	694	102.0	-184674.0	-1246432.0	-130214.0
28	18	6	8	695	103.0	-184842.0	-1249392.0	-129138.0
28	18	6	8	696	104.0	-190778.0	-1252252.0	-128256.0
28	18	6	8	696	106.0	-184721.0	-1256351.0	-132176.0
28	18	6	8	697	107.0	-207414.0	-1258251.0	-128526.0
28	18	6	8	697	108.0	-191771.0	-1260372.0	-121636.0
28	18	6	8	698	109.0	-190683.0	-1263331.0	-112806.0
28	18	6	8	698	110.0	-168591.0	-1266782.0	-105824.0
28	18	6	8	699	111.0	-175104.0	-1270092.0	-104600.0
28	18	6	8	700	112.0	-173350.0	-1273073.0	-106545.0
28	18	6	8	731	113.0	-163975.0	-1275897.0	-107244.0
28	18	6	8	732	114.0	-163350.0	-1278364.0	-107969.0
28	18	6	8	732	115.0	-171846.0	-1281781.0	-109627.0
28	18	6	8	733	116.0	-176474.0	-1285417.0	-111083.0
28	18	6	8	734	117.0	-188819.0	-1296624.0	-105511.0
28	18	6	8	734	118.0	-190076.0	-1304032.0	-97601.0
28	18	6	8	735	119.0	-179106.0	-1307539.0	-88946.0
28	18	6	8	736	120.0	-197054.0	-1308496.0	-83486.0
28	18	6	8	736	121.0	-187654.0	-1306729.0	-79992.0
28	18	6	8	737	122.0	-186964.0	-1308042.0	-80322.0
28	18	6	8	737	123.0	-194524.0	-1309801.0	-80760.0
28	18	6	8	738	124.0	-197572.0	-1311233.0	-81786.0
28	18	6	8	739	125.0	-200484.0	-1312504.0	-84100.0
28	18	6	8	739	126.0	-200115.0	-1314155.0	-84015.0
28	18	6	8	740	127.0	-185472.0	-1315935.0	-78433.0
28	18	6	8	741	129.0	-179926.0	-1326922.0	-64105.0
28	18	6	8	741	130.0	-173127.0	-1341662.0	-58177.0
28	18	6	8	742	131.0	-189819.0	-1345061.0	-56260.0
28	18	6	8	742	132.0	-186141.0	-1348031.0	-55514.0
28	18	6	8	743	133.0	-183114.0	-1351625.0	-55682.0
28	18	6	8	744	134.0	-189676.0	-1353976.0	-55157.0
28	18	6	8	776	135.0	-173111.0	-1355782.0	-57339.0
28	18	6	8	777	136.0	-172967.0	-1358006.0	-60824.0
28	18	6	8	778	137.0	-176798.0	-1360349.0	-55679.0
28	18	6	8	778	138.0	-174043.0	-1362106.0	-46784.0
28	18	6	8	779	139.0	-190530.0	-1364105.0	-38217.0
28	18	6	8	780	140.0	-207851.0	-1366219.0	-32777.0
28	18	6	8	780	141.0	-201710.0	-1367987.0	-33662.0
28	18	6	8	781	142.0	-211771.0	-1368966.0	-34357.0
28	18	6	8	782	143.0	-210513.0	-1369205.0	-34636.0
28	18	6	8	782	144.0	-217676.0	-1370447.0	-35826.0
28	18	6	8	783	145.0	-228882.0	-1371594.0	-39922.0
28	18	6	8	784	146.0	-218916.0	-1371523.0	-42927.0
28	18	6	8	784	147.0	-216128.0	-1372202.0	-36446.0
28	18	6	8	785	148.0	-218169.0	-1373712.0	-27166.0
28	18	6	8	785	149.0	-216064.0	-1375321.0	-18227.0
28	18	6	8	786	151.0	-241984.0	-1378932.0	-12928.0
28	18	6	8	787	152.0	-253620.0	-1380867.0	-15119.0
28	18	6	8	787	153.0	-244005.0	-1382231.0	-15395.0
28	18	6	8	788	154.0	-241966.0	-1383454.0	-16838.0
28	18	6	8	789	155.0	-248741.0	-1382546.0	-21739.0
28	18	6	8	789	156.0	-249394.0	-1379888.0	-22509.0
28	18	6	8	790	157.0	-248793.0	-1380143.0	-14324.0
28	18	6	8	822	158.0	-245326.0	-1381125.0	-5533.0
28	18	6	8	823	159.0	-244636.0	-1382013.0	871.0
28	18	6	8	824	160.0	-234751.0	-1384179.0	4412.0
28	18	6	8	824	161.0	-238798.0	-1385295.0	2901.0
28	18	6	8	825	162.0	-239476.0	-1387032.0	2442.0
28	18	6	8	826	163.0	-242056.0	-1390155.0	3414.0
28	18	6	8	826	164.0	-244648.0	-1393365.0	2938.0
28	18	6	8	827	165.0	-246627.0	-1395284.0	-754.0
28	18	6	8	827	166.0	-249350.0	-1397360.0	-1843.0
28	18	6	8	828	167.0	-253503.0	-1399646.0	3579.0
28	18	6	8	829	168.0	-256555.0	-1401570.0	12038.0
28	18	6	8	829	169.0	-258146.0	-1403181.0	20679.0
28	18	6	8	830	170.0	-260496.0	-1403451.0	24620.0
28	18	6	8	831	171.0	-261656.0	-1403539.0	22625.0
28	18	6	8	831	172.0	-260175.0	-1405256.0	20591.0
28	18	6	8	832	174.0	-258021.0	-1408083.0	17031.0
28	18	6	8	832	175.0	-255461.0	-1409327.0	11856.0
28	18	6	8	833	176.0	-251474.0	-1411427.0	8474.0
28	18	6	8	834	177.0	-247866.0	-1413337.0	12303.0
28	18	6	8	834	178.0	-245368.0	-1414655.0	19935.0
28	18	6	8	835	179.0	-244326.0	-1416339.0	25828.0
28	18	6	8	867	180.0	-243152.0	-1417704.0	29941.0
28	18	6	8	868	181.0	-241766.0	-1418533.0	28251.0
28	18	6	8	869	182.0	-240503.0	-1418384.0	26825.0
28	18	6	8	869	183.0	-238897.0	-1423817.0	26365.0
28	18	6	8	870	184.0	-235538.0	-1432291.0	25693.0
28	18	6	8	871	185.0	-230307.0	-1433651.0	21709.0
28	18	6	8	871	186.0	-226516.0	-1435112.0	21235.0
28	18	6	8	872	187.0	-226811.0	-1437410.0	26141.0
28	18	6	8	873	188.0	-228312.0	-1439809.0	31601.0
28	18	6	8	873	189.0	-230625.0	-1442261.0	35349.0
28	18	6	8	874	190.0	-228552.0	-1444367.0	35548.0
28	18	6	8	875	191.0	-224302.0	-1446387.0	30599.0
28	18	6	8	875	192.0	-219392.0	-1448955.0	26690.0
28	18	6	8	876	193.0	-215637.0	-1451318.0	24715.0
28	18	6	8	876	194.0	-212946.0	-1452425.0	23319.0
28	18	6	8	877	196.0	-212178.0	-1443371.0	18993.0
28	18	6	8	878	197.0	-212484.0	-1437149.0	26379.0
28	18	6	8	878	198.0	-212572.0	-1439275.0	33843.0
28	18	6	8	879	199.0	-211891.0	-1442077.0	37978.0
28	18	6	8	879	200.0	-211162.0	-1443522.0	39793.0
28	18	6	8	880	201.0	-209001.0	-1445188.0	37989.0
28	18	6	8	911	202.0	-205289.0	-1447455.0	34759.0
28	18	6	8	912	203.0	-200979.0	-1449374.0	32320.0
28	18	6	8	913	204.0	-197656.0	-1451296.0	29587.0
28	18	6	8	913	205.0	-200139.0	-1453071.0	25885.0
28	18	6	8	914	206.0	-205948.0	-1455119.0	26677.0
28	18	6	8	915	207.0	-210064.0	-1457499.0	33406.0
28	18	6	8	915	208.0	-213878.0	-1459864.0	40802.0
28	18	6	8	916	209.0	-215886.0	-1462300.0	45951.0
28	18	6	8	917	210.0	-214806.0	-1465019.0	46700.0
28	18	6	8	917	211.0	-214849.0	-1467627.0	43250.0
28	18	6	8	918	212.0	-213935.0	-1470229.0	39886.0
28	18	6	8	918	213.0	-213291.0	-1477689.0	36713.0
28	18	6	8	919	214.0	-213165.0	-1484521.0	34393.0
28	18	6	8	920	215.0	-212859.0	-1486597.0	28500.0
28	18	6	8	920	216.0	-212176.0	-1488871.0	26848.0
28	18	6	8	921	219.0	-217510.0	-1494824.0	42486.0
28	18	6	8	922	220.0	-221773.0	-1497034.0	42750.0
28	18	6	8	922	221.0	-225514.0	-1500616.0	39766.0
28	18	6	8	923	222.0	-228909.0	-1504632.0	37994.0
28	18	6	8	923	223.0	-231139.0	-1507616.0	35985.0
28	18	6	8	924	224.0	-231776.0	-1510236.0	33346.0
28	18	6	8	957	225.0	-231336.0	-1512479.0	28054.0
28	18	6	8	958	226.0	-230689.0	-1514948.0	27650.0
28	18	6	8	959	227.0	-230566.0	-1519715.0	33891.0
28	18	6	8	959	228.0	-230144.0	-1521403.0	42393.0
28	18	6	8	960	229.0	-227554.0	-1521152.0	47952.0
28	18	6	8	961	230.0	-203019.0	-1521980.0	47708.0
28	18	6	8	961	231.0	-96499.0	-1522752.0	41616.0
28	18	6	8	962	232.0	-81839.0	-1523765.0	37197.0
28	18	6	8	963	233.0	-183592.0	-1525456.0	35082.0
28	18	6	8	963	234.0	-211889.0	-1527771.0	32036.0
28	18	6	8	964	235.0	-258736.0	-1530082.0	26853.0
28	18	6	8	965	236.0	-250434.0	-1531296.0	27113.0
28	18	6	8	965	237.0	-268282.0	-1533562.0	31276.0
28	18	6	8	966	238.0	-276625.0	-1537471.0	36552.0
28	18	6	8	966	239.0	-233232.0	-1541453.0	39218.0
28	18	6	8	967	241.0	-201831.0	-1547039.0	37201.0
28	18	6	8	968	242.0	-182074.0	-1549081.0	34372.0
28	18	6	8	968	243.0	-161491.0	-1551569.0	29657.0
28	18	6	8	969	244.0	-200862.0	-1554591.0	25218.0
28	18	6	8	969	245.0	-209792.0	-1556922.0	18141.0
28	18	6	8	970	246.0	-241575.0	-1559854.0	17701.0
28	18	6	9	2	247.0	-268866.0	-1566781.0	22793.0
28	18	6	9	3	248.0	-276266.0	-1571157.0	29200.0
28	18	6	9	4	249.0	-274438.0	-1574700.0	32928.0
28	18	6	9	4	250.0	-276056.0	-1577541.0	33215.0
28	18	6	9	5	251.0	-248949.0	-1580952.0	29490.0
28	18	6	9	6	252.0	-213641.0	-1583900.0	24929.0
28	18	6	9	6	253.0	-229671.0	-1584861.0	19664.0
28	18	6	9	7	254.0	-234214.0	-1587461.0	13983.0
28	18	6	9	8	255.0	-251611.0	-1589948.0	6457.0
28	18	6	9	8	0.0	-278882.0	-1592121.0	5467.0
28	18	6	9	9	1.0	-278812.0	-1594677.0	11777.0
28	18	6	9	10	2.0	-310748.0	-1597850.0	17565.0
28	18	6	9	10	3.0	-270242.0	-1601262.0	19533.0
28	18	6	9	11	4.0	-244946.0	-1604864.0	18663.0
28	18	6	9	12	5.0	-172496.0	-1608244.0	12895.0
28	18	6	9	12	7.0	-242232.0	-1613796.0	3852.0
28	18	6	9	13	8.0	-208566.0	-1616622.0	-973.0
28	18	6	9	13	9.0	-296942.0	-1623130.0	-7967.0
28	18	6	9	14	10.0	-272226.0	-1639698.0	-7827.0
28	18	6	9	15	11.0	-276622.0	-1647471.0	-3152.0
28	18	6	9	15	12.0	-227024.0	-1650234.0	3029.0
28	18	6	9	16	13.0	-208197.0	-1654609.0	5493.0
28	18	6	9	48	14.0	-219950.0	-1658144.0	1614.0
28	18	6	9	49	15.0	-231435.0	-1661392.0	-5885.0
28	18	6	9	49	16.0	-233641.0	-1664642.0	-11116.0
28	18	6	9	50	17.0	-235691.0	-1666754.0	-15591.0
28	18	6	9	51	18.0	-239030.0	-1669125.0	-20967.0
28	18	6	9	52	19.0	-229336.0	-1673477.0	-27964.0
28	18	6	9	52	20.0	-223201.0	-1678439.0	-27082.0
28	18	6	9	53	21.0	-215924.0	-1681470.0	-21974.0
28	18	6	9	53	22.0	-205702.0	-1683523.0	-16836.0
28	18	6	9	54	23.0	-191190.0	-1679234.0	-13711.0
28	18	6	9	55	24.0	-214623.0	-1679442.0	-15811.0
28	18	6	9	55	25.0	-240940.0	-1682085.0	-20674.0
28	18	6	9	56	26.0	-246304.0	-1683951.0	-24474.0
28	18	6	9	57	27.0	-240971.0	-1685663.0	-27036.0
28	18	6	9	57	28.0	-225501.0	-1687996.0	-31927.0
28	18	6	9	58	30.0	-215503.0	-1693198.0	-35501.0
28	18	6	9	58	31.0	-220182.0	-1696135.0	-29657.0
28	18	6	9	59	32.0	-214431.0	-1699100.0	-23626.0
28	18	6	9	60	33.0	-218529.0	-1701767.0	-20416.0
28	18	6	9	60	34.0	-225359.0	-1703745.0	-20416.0
28	18	6	9	61	35.0	-217184.0	-1708724.0	-24604.0
28	18	6	9	92	36.0	-218371.0	-1724011.0	-29442.0
28	18	6	9	93	37.0	-221841.0	-1730019.0	-33915.0
28	18	6	9	93	38.0	-220017.0	-1728920.0	-39989.0
28	18	6	9	94	39.0	-222910.0	-1726569.0	-46059.0
28	18	6	9	95	40.0	-216821.0	-1728452.0	-44113.0
28	18	6	9	95	41.0	-210965.0	-1730712.0	-39407.0
28	18	6	9	96	42.0	-209668.0	-1732801.0	-34748.0
28	18	6	9	97	43.0	-209801.0	-1734070.0	-33671.0
28	18	6	9	98	44.0	-212126.0	-1735402.0	-37455.0
28	18	6	9	98	45.0	-215772.0	-1735905.0	-42182.0
28	18	6	9	99	46.0	-218897.0	-1734997.0	-45087.0
28	18	6	9	99	47.0	-217887.0	-1736521.0	-47116.0
28	18	6	9	100	48.0	-214977.0	-1738529.0	-51871.0
28	18	6	9	101	49.0	-211571.0	-1740593.0	-57792.0
28	18	6	9	101	50.0	-207135.0	-1742701.0	-57554.0
28	18	6	9	102	52.0	-199176.0	-1747076.0	-51076.0
28	18	6	9	103	53.0	-196796.0	-1748667.0	-46582.0
28	18	6	9	103	54.0	-202061.0	-1750227.0	-46486.0
28	18	6	9	104	55.0	-191962.0	-1750684.0	-51456.0
28	18	6	9	104	56.0	-186692.0	-1750505.0	-55364.0
28	18	6	9	105	57.0	-195799.0	-1751792.0	-58552.0
28	18	6	9	106	58.0	-198225.0	-1753301.0	-64422.0
28	18	6	9	138	59.0	-196738.0	-1754541.0	-69416.0
28	18	6	9	138	60.0	-193989.0	-1755587.0	-66682.0
28	18	6	9	139	61.0	-190321.0	-1757481.0	-61451.0
28	18	6	9	140	62.0	-189464.0	-1759427.0	-57366.0
28	18	6	9	140	63.0	-188043.0	-1759649.0	-56101.0
28	18	6	9	141	64.0	-187324.0	-1761495.0	-57006.0
28	18	6	9	142	65.0	-186008.0	-1763819.0	-60976.0
28	18	6	9	142	66.0	-186906.0	-1765359.0	-63829.0
28	18	6	9	143	67.0	-187937.0	-1767292.0	-68027.0
28	18	6	9	144	68.0	-189117.0	-1769184.0	-74763.0
28	18	6	9	144	69.0	-190912.0	-1770474.0	-81952.0
28	18	6	9	145	70.0	-191707.0	-1771634.0	-80954.0
28	18	6	9	146	71.0	-192184.0	-1772859.0	-76462.0
28	18	6	9	146	72.0	-192800.0	-1775299.0	-70687.0
28	18	6	9	147	73.0	-192901.0	-1777516.0	-67928.0
28	18	6	9	147	75.0	-195486.0	-1781316.0	-75103.0
28	18	6	9	148	76.0	-197692.0	-1783005.0	-80234.0
28	18	6	9	149	77.0	-198048.0	-1784896.0	-84283.0
28	18	6	9	149	78.0	-198354.0	-1786300.0	-89369.0
28	18	6	9	150	79.0	-197742.0	-1787902.0	-90581.0
28	18	6	9	150	80.0	-197576.0	-1790277.0	-86674.0
28	18	6	9	181	81.0	-196809.0	-1796631.0	-81574.0
28	18	6	9	182	82.0	-198506.0	-1809807.0	-76571.0
28	18	6	9	183	83.0	-194533.0	-1816891.0	-73921.0
28	18	6	9	184	84.0	-193052.0	-1827776.0	-73372.0
28	18	6	9	184	85.0	-194519.0	-1832442.0	-75921.0
28	18	6	9	185	86.0	-195771.0	-1834391.0	-78855.0
28	18	6	9	186	87.0	-202726.0	-1835994.0	-82511.0
28	18	6	9	186	88.0	-200862.0	-1838008.0	-87904.0
28	18	6	9	187	89.0	-200126.0	-1838984.0	-90750.0
28	18	6	9	188	90.0	-200734.0	-1839887.0	-88086.0
28	18	6	9	189	91.0	-201420.0	-1841438.0	-81537.0
28	18	6	9	189	92.0	-201198.0	-1841921.0	-78097.0
28	18	6	9	190	93.0	-201837.0	-1840556.0	-78858.0
28	18	6	9	191	94.0	-201819.0	-1841399.0	-82791.0
28	18	6	9	191	95.0	-200947.0	-1842835.0	-87285.0
28	18	6	9	192	97.0	-198772.0	-1848404.0	-96232.0
28	18	6	9	193	98.0	-198617.0	-1850231.0	-101800.0
28	18	6	9	193	99.0	-199087.0	-1852109.0	-105284.0
28	18	6	9	194	100.0	-199717.0	-1853372.0	-101557.0
28	18	6	9	194	101.0	-200166.0	-1854924.0	-94791.0
28	18	6	9	195	102.0	-201389.0	-1856506.0	-88437.0
28	18	6	9	196	103.0	-202354.0	-1860221.0	-85593.0
28	18	6	9	227	104.0	-202871.0	-1871082.0	-88249.0
28	18	6	9	228	105.0	-204483.0	-1874633.0	-94061.0
28	18	6	9	228	106.0	-206443.0	-1883895.0	-99167.0
28	18	6	9	229	107.0	-208024.0	-1893496.0	-103104.0
28	18	6	9	230	108.0	-207856.0	-1895001.0	-110134.0
28	18	6	9	231	109.0	-207191.0	-1895651.0	-115716.0
28	18	6	9	231	110.0	-207158.0	-1897387.0	-108351.0
28	18	6	9	232	111.0	-206277.0	-1899160.0	-96904.0
28	18	6	9	232	112.0	-205919.0	-1900484.0	-86491.0
28	18	6	9	233	113.0	-207370.0	-1901512.0	-78735.0
28	18	6	9	234	114.0	-209019.0	-1903162.0	-78881.0
28	18	6	9	234	115.0	-208125.0	-1905226.0	-83854.0
28	18	6	9	235	116.0	-207662.0	-1906884.0	-85334.0
28	18	6	9	236	117.0	-208406.0	-1908282.0	-73244.0
28	18	6	9	236	118.0	-208037.0	-1910851.0	-68229.0
28	18	6	9	237	120.0	-206701.0	-1922850.0	-76726.0
28	18	6	9	238	121.0	-206993.0	-1924173.0	-73430.0
28	18	6	9	239	122.0	-207410.0	-1925458.0	-71344.0
28	18	6	9	240	123.0	-206967.0	-1927551.0	-71651.0
28	18	6	9	240	124.0	-206533.0	-1931159.0	-74988.0
28	18	6	9	241	125.0	-206779.0	-1933420.0	-73390.0
28	18	6	9	272	126.0	-206541.0	-1934999.0	-71411.0
28	18	6	9	273	127.0	-205805.0	-1936844.0	-76407.0
28	18	6	9	274	128.0	-205349.0	-1938635.0	-85087.0
28	18	6	9	275	129.0	-204419.0	-1940329.0	-82526.0
28	18	6	9	275	130.0	-202466.0	-1942529.0	-69571.0
28	18	6	9	276	131.0	-200251.0	-1946181.0	-65495.0
28	18	6	9	277	132.0	-198861.0	-1949861.0	-66382.0
28	18	6	9	277	133.0	-197384.0	-1954351.0	-72427.0
28	18	6	9	278	134.0	-195992.0	-1956522.0	-82417.0
28	18	6	9	279	135.0	-195882.0	-1958357.0	-93116.0
28	18	6	9	279	136.0	-196004.0	-1960556.0	-103553.0
28	18	6	9	280	137.0	-194763.0	-1962748.0	-103365.0
28	18	6	9	281	138.0	-193588.0	-1963481.0	-90455.0
28	18	6	9	281	139.0	-192720.0	-1964356.0	-85856.0
28	18	6	9	282	140.0	-191559.0	-1966589.0	-78532.0
28	18	6	9	283	142.0	-190494.0	-1967864.0	-54622.0
28	18	6	9	283	143.0	-190379.0	-1968916.0	-46684.0
28	18	6	9	284	144.0	-191594.0	-1969896.0	-46996.0
28	18	6	9	285	145.0	-192624.0	-1970914.0	-49232.0
28	18	6	9	285	146.0	-193619.0	-1969801.0	-50360.0
28	18	6	9	286	147.0	-195469.0	-1970038.0	-54747.0
28	18	6	9	317	148.0	-195591.0	-1972037.0	-62422.0
28	18	6	9	318	149.0	-196660.0	-1972689.0	-66727.0
28	18	6	9	319	150.0	-197028.0	-1973828.0	-65907.0
28	18	6	9	319	151.0	-195787.0	-1976261.0	-61942.0
28	18	6	9	320	152.0	-192664.0	-1978611.0	-56386.0
28	18	6	9	321	153.0	-187702.0	-1979599.0	-52449.0
28	18	6	9	322	154.0	-177614.0	-1979557.0	-48236.0
28	18	6	9	322	155.0	-164131.0	-1977454.0	-37804.0
28	18	6	9	323	156.0	-153913.0	-1977237.0	-3642.0
28	18	6	9	324	157.0	-146993.0	-1978082.0	49118.0
28	18	6	9	324	158.0	-148886.0	-1982428.0	66789.0
28	18	6	9	325	159.0	-153199.0	-1989613.0	79891.0
28	18	6	9	326	160.0	-156919.0	-1991512.0	97243.0
28	18	6	9	326	161.0	-160644.0	-1992368.0	115541.0
28	18	6	9	327	162.0	-164892.0	-1990252.0	130573.0
28	18	6	9	328	164.0	-171386.0	-1992190.0	132861.0
28	18	6	9	328	165.0	-174967.0	-1993269.0	130768.0
28	18	6	9	329	166.0	-179831.0	-1994231.0	129453.0
28	18	6	9	329	167.0	-183032.0	-1996297.0	125886.0
28	18	6	9	330	168.0	-185181.0	-1998841.0	120831.0
28	18	6	9	331	169.0	-185701.0	-2003019.0	119600.0
28	18	6	9	331	170.0	-187756.0	-2004561.0	123245.0
28	18	6	9	363	171.0	-193444.0	-2005285.0	129308.0
28	18	6	9	364	172.0	-199632.0	-2007350.0	133788.0
28	18	6	9	364	173.0	-202597.0	-2009700.0	132986.0
28	18	6	9	365	174.0	-201988.0	-2012142.0	128613.0
28	18	6	9	366	175.0	-200724.0	-2014188.0	126298.0
28	18	6	9	367	176.0	-198966.0	-2016056.0	126968.0
28	18	6	9	367	177.0	-196270.0	-2017806.0	125210.0
28	18	6	9	368	178.0	-193369.0	-2019391.0	119760.0
28	18	6	9	369	179.0	-191931.0	-2021566.0	119879.0
28	18	6	9	369	180.0	-189991.0	-2023663.0	126399.0
28	18	6	9	370	181.0	-188296.0	-2025286.0	138734.0
28	18	6	9	371	182.0	-185946.0	-2027516.0	150588.0
28	18	6	9	371	183.0	-182012.0	-2030805.0	158199.0
28	18	6	9	372	184.0	-178347.0	-2032589.0	158981.0
28	18	6	9	372	185.0	-175916.0	-2033597.0	158806.0
28	18	6	9	373	187.0	-165011.0	-2034221.0	162643.0
28	18	6	9	374	188.0	-160087.0	-2035305.0	166441.0
28	18	6	9	374	189.0	-157667.0	-2037174.0	176214.0
28	18	6	9	375	190.0	-158245.0	-2038240.0	187066.0
28	18	6	9	375	191.0	-160397.0	-2040261.0	194343.0
28	18	6	9	376	192.0	-163611.0	-2042307.0	198015.0
28	18	6	9	407	193.0	-166412.0	-2044017.0	199277.0
28	18	6	9	408	194.0	-168638.0	-2046121.0	198103.0
28	18	6	9	409	195.0	-170271.0	-2048334.0	197649.0
28	18	6	9	409	196.0	-171254.0	-2049986.0	199069.0
28	18	6	9	410	197.0	-171633.0	-2050872.0	201791.0
28	18	6	9	411	198.0	-172398.0	-2051981.0	196456.0
28	18	6	9	411	199.0	-173242.0	-2053586.0	195609.0
28	18	6	9	412	200.0	-173616.0	-2054939.0	200846.0
28	18	6	9	413	201.0	-174536.0	-2056394.0	207953.0
28	18	6	9	413	202.0	-175465.0	-2058380.0	212645.0
28	18	6	9	414	203.0	-175879.0	-2065144.0	214927.0
28	18	6	9	415	204.0	-175689.0	-2072754.0	215140.0
28	18	6	9	416	205.0	-176118.0	-2081197.0	217498.0
28	18	6	9	416	206.0	-176012.0	-2085752.0	218390.0
28	18	6	9	417	207.0	-175047.0	-2087314.0	214194.0
28	18	6	9	417	209.0	-173328.0	-2088956.0	205778.0
28	18	6	9	418	210.0	-173364.0	-2090931.0	207028.0
28	18	6	9	419	211.0	-173326.0	-2093467.0	209896.0
28	18	6	9	419	212.0	-173362.0	-2094686.0	212218.0
28	18	6	9	420	213.0	-173504.0	-2096546.0	214416.0
28	18	6	9	421	214.0	-173375.0	-2098479.0	214614.0
28	18	6	9	421	215.0	-174269.0	-2099439.0	218131.0
28	18	6	9	453	216.0	-175896.0	-2093379.0	220604.0
28	18	6	9	454	217.0	-178579.0	-2088959.0	221132.0
28	18	6	9	454	218.0	-181190.0	-2090445.0	219789.0
28	18	6	9	455	219.0	-182869.0	-2091762.0	224027.0
28	18	6	9	456	220.0	-184679.0	-2093993.0	231443.0
28	18	6	9	457	221.0	-186418.0	-2096781.0	240171.0
28	18	6	9	457	222.0	-188826.0	-2098272.0	248702.0
28	18	6	9	458	223.0	-191799.0	-2099706.0	255316.0
28	18	6	9	459	224.0	-194696.0	-2101174.0	257841.0
28	18	6	9	459	225.0	-197220.0	-2102827.0	257554.0
28	18	6	9	460	226.0	-199182.0	-2104648.0	256430.0
28	18	6	9	461	227.0	-200610.0	-2106114.0	258434.0
28	18	6	9	461	228.0	-201707.0	-2107153.0	260564.0
28	18	6	9	462	229.0	-203118.0	-2108112.0	268250.0
28	18	6	9	463	230.0	-205202.0	-2115197.0	277591.0
28	18	6	9	463	232.0	-210542.0	-2134036.0	294600.0
28	18	6	9	464	233.0	-211811.0	-2134633.0	296940.0
28	18	6	9	465	234.0	-211993.0	-2134236.0	296107.0
28	18	6	9	465	235.0	-211977.0	-2124722.0	293653.0
28	18	6	9	466	236.0	-211923.0	-2118937.0	290721.0
28	18	6	9	466	237.0	-211717.0	-2120342.0	288904.0
28	18	6	9	497	238.0	-212114.0	-2120681.0	285341.0
28	18	6	9	498	239.0	-212616.0	-2121872.0	287004.0
28	18	6	9	499	240.0	-213274.0	-2123759.0	292386.0
28	18	6	9	499	241.0	-214391.0	-2124846.0	299871.0
28	18	6	9	500	242.0	-215043.0	-2126929.0	305116.0
28	18	6	9	501	243.0	-215445.0	-2129563.0	305501.0
28	18	6	9	501	244.0	-216115.0	-2142871.0	299786.0
28	18	6	9	502	245.0	-216859.0	-2152631.0	296108.0
28	18	6	9	503	246.0	-217267.0	-2154077.0	294339.0
28	18	6	9	504	247.0	-217134.0	-2154999.0	289257.0
28	18	6	9	504	248.0	-216323.0	-2156006.0	284257.0
28	18	6	9	505	249.0	-214507.0	-2157902.0	287713.0
28	18	6	9	506	250.0	-212119.0	-2161223.0	294078.0
28	18	6	9	506	251.0	-209254.0	-2163831.0	301461.0
28	18	6	9	507	252.0	-206403.0	-2166148.0	305678.0
28	18	6	9	508	254.0	-201944.0	-2170687.0	305011.0
28	18	6	9	508	255.0	-198673.0	-2172617.0	302240.0
28	18	6	9	509	0.0	-195381.0	-2174371.0	300123.0
28	18	6	9	510	1.0	-192343.0	-2176158.0	297371.0
28	18	6	9	510	2.0	-189713.0	-2177725.0	292838.0
28	18	6	9	511	3.0	-187192.0	-2179597.0	293933.0
28	18	6	9	512	4.0	-183214.0	-2182097.0	298499.0
28	18	6	9	512	5.0	-178673.0	-2184444.0	302644.0
28	18	6	9	542	6.0	-175064.0	-2186244.0	301294.0
28	18	6	9	543	7.0	-172762.0	-2188111.0	298738.0
28	18	6	9	544	8.0	-170322.0	-2190031.0	296694.0
28	18	6	9	544	9.0	-167439.0	-2184286.0	293701.0
28	18	6	9	545	10.0	-164239.0	-2173622.0	288726.0
28	18	6	9	546	11.0	-160973.0	-2174961.0	285237.0
28	18	6	9	547	12.0	-157919.0	-2177081.0	280833.0
28	18	6	9	547	13.0	-155083.0	-2179028.0	281983.0
28	18	6	9	548	14.0	-153331.0	-2181119.0	286954.0
28	18	6	9	549	15.0	-153389.0	-2183946.0	293922.0
28	18	6	9	550	16.0	-154870.0	-2186139.0	296318.0
28	18	6	9	551	17.0	-155280.0	-2186773.0	294826.0
28	18	6	9	551	18.0	-153759.0	-2187432.0	291424.0
28	18	6	9	552	19.0	-151456.0	-2189760.0	288674.0
28	18	6	9	553	20.0	-148839.0	-2191460.0	287848.0
28	18	6	9	553	21.0	-147290.0	-2192827.0	285935.0
28	18	6	9	554	22.0	-145580.0	-2194008.0	287556.0
28	18	6	9	555	23.0	-145219.0	-2195694.0	300068.0
28	18	6	9	555	24.0	-146360.0	-2196970.0	316984.0
28	18	6	9	556	25.0	-148264.0	-2198109.0	331448.0
28	18	6	9	556	26.0	-150254.0	-2199554.0	343132.0
28	18	6	9	587	27.0	-151914.0	-2201113.0	348409.0
28	18	6	9	588	28.0	-152451.0	-2209805.0	351114.0
28	18	6	9	588	29.0	-152100.0	-2219239.0	354021.0
28	18	6	9	589	30.0	-151765.0	-2221157.0	355516.0
28	18	6	9	590	31.0	-151237.0	-2222344.0	355322.0
28	18	6	9	590	32.0	-151539.0	-2223563.0	356046.0
28	18	6	9	591	33.0	-152341.0	-2225562.0	362556.0
28	18	6	9	592	34.0	-154092.0	-2227393.0	369370.0
28	18	6	9	592	35.0	-156598.0	-2227702.0	375753.0
28	18	6	9	593	36.0	-159132.0	-2230300.0	380474.0
28	18	6	9	593	37.0	-160766.0	-2232204.0	382375.0
28	18	6	9	594	38.0	-162943.0	-2233811.0	384894.0
28	18	6	9	595	39.0	-164826.0	-2235409.0	397506.0
28	18	6	9	595	40.0	-165665.0	-2236511.0	410648.0
28	18	6	9	596	43.0	-174157.0	-2241472.0	419016.0
28	18	6	9	597	44.0	-171835.0	-2242544.0	424849.0
28	18	6	9	597	45.0	-168889.0	-2244301.0	438587.0
28	18	6	9	632	46.0	-180178.0	-2246711.0	458147.0
28	18	6	9	678	47.0	-180761.0	-2249952.0	463573.0
28	18	6	9	678	48.0	-166874.0	-2258221.0	464077.0
28	18	6	9	679	49.0	-162246.0	-2262590.0	465418.0
28	18	6	9	680	50.0	-171645.0	-2264551.0	464513.0
28	18	6	9	680	51.0	-174648.0	-2266872.0	462011.0
28	18	6	9	681	52.0	-170770.0	-2268454.0	462999.0
28	18	6	9	682	53.0	-180841.0	-2270336.0	466273.0
28	18	6	9	682	54.0	-208056.0	-2272887.0	471166.0
28	18	6	9	683	55.0	-214530.0	-2275526.0	478143.0
28	18	6	9	683	56.0	-214421.0	-2277857.0	480389.0
28	18	6	9	684	57.0	-201418.0	-2279499.0	476876.0
28	18	6	9	684	58.0	-214097.0	-2281422.0	469918.0
28	18	6	9	685	59.0	-224524.0	-2283389.0	463845.0
28	18	6	9	686	60.0	-217025.0	-2284588.0	457146.0
28	18	6	9	686	66.0	-206423.0	-2294372.0	467086.0
28	18	6	9	687	88.0	-172000.0	-2334367.0	497389.0
28	18	6	9	687	89.0	-171672.0	-2329750.0	502904.0
28	18	6	9	688	90.0	-170696.0	-2326404.0	505138.0
28	18	6	9	688	91.0	-170838.0	-2327509.0	503743.0
28	18	6	9	689	92.0	-170726.0	-2328264.0	505595.0
28	18	6	9	690	93.0	-172851.0	-2329569.0	512107.0
28	18	6	9	722	94.0	-174196.0	-2331873.0	518508.0
28	18	6	9	722	95.0	-176239.0	-2334312.0	522940.0
28	18	6	9	723	96.0	-178182.0	-2337118.0	523026.0
28	18	6	9	724	97.0	-180872.0	-2338863.0	520952.0
28	18	6	9	724	98.0	-183647.0	-2340389.0	519845.0
28	18	6	9	725	99.0	-186966.0	-2342224.0	517918.0
28	18	6	9	725	100.0	-190772.0	-2343782.0	515339.0
28	18	6	9	726	101.0	-193976.0	-2345374.0	511858.0
28	18	6	9	726	102.0	-196922.0	-2346767.0	515188.0
28	18	6	9	727	103.0	-201054.0	-2348352.0	525616.0
28	18	6	9	728	104.0	-205509.0	-2350204.0	535479.0
28	18	6	9	728	105.0	-209253.0	-2352063.0	544823.0
28	18	6	9	729	106.0	-213242.0	-2354181.0	547661.0
28	18	6	9	730	107.0	-216691.0	-2355635.0	545419.0
28	18	6	9	730	108.0	-219398.0	-2351642.0	546118.0
28	18	6	9	731	110.0	-224511.0	-2351801.0	544860.0
28	18	6	9	732	111.0	-227337.0	-2353561.0	540009.0
28	18	6	9	732	112.0	-230445.0	-2355311.0	540363.0
28	18	6	9	733	113.0	-232076.0	-2357114.0	545978.0
28	18	6	9	733	114.0	-232596.0	-2358886.0	551246.0
28	18	6	9	734	115.0	-241291.0	-2357827.0	555119.0
28	18	6	9	734	116.0	-250006.0	-2358286.0	559592.0
28	18	6	9	767	117.0	-234966.0	-2360569.0	557918.0
28	18	6	9	768	118.0	-231252.0	-2363012.0	553245.0
28	18	6	9	769	119.0	-245424.0	-2365719.0	549256.0
28	18	6	9	769	120.0	-243136.0	-2369584.0	544800.0
28	18	6	9	770	121.0	-236101.0	-2372654.0	538306.0
28	18	6	9	770	122.0	-227459.0	-2374587.0	537039.0
28	18	6	9	771	123.0	-245054.0	-2376299.0	542077.0
28	18	6	9	771	124.0	-246307.0	-2377039.0	546630.0
28	18	6	9	772	125.0	-239723.0	-2378282.0	546433.0
28	18	6	9	773	126.0	-228521.0	-2380954.0	543416.0
28	18	6	9	773	127.0	-238578.0	-2392551.0	539421.0
28	18	6	9	774	128.0	-245481.0	-2403526.0	535438.0
28	18	6	9	774	129.0	-233936.0	-2405351.0	533688.0
28	18	6	9	775	130.0	-225669.0	-2407115.0	532108.0
28	18	6	9	776	131.0	-222037.0	-2408147.0	526056.0
28	18	6	9	777	133.0	-226051.0	-2407776.0	528615.0
28	18	6	9	778	134.0	-223595.0	-2409499.0	535448.0
28	18	6	9	778	135.0	-211778.0	-2410607.0	537464.0
28	18	6	9	779	136.0	-233951.0	-2412630.0	536259.0
28	18	6	9	780	137.0	-224234.0	-2414431.0	532493.0
28	18	6	9	780	138.0	-220947.0	-2415881.0	528061.0
28	18	6	9	858	139.0	-206445.0	-2417185.0	523292.0
28	18	6	9	859	140.0	-221679.0	-2422401.0	518171.0
28	18	6	9	859	141.0	-222844.0	-2431680.0	511252.0
28	18	6	9	860	142.0	-214546.0	-2441318.0	511918.0
28	18	6	9	861	143.0	-205619.0	-2455807.0	517563.0
28	18	6	9	862	144.0	-209194.0	-2458747.0	523989.0
28	18	6	9	863	145.0	-223139.0	-2460491.0	528675.0
28	18	6	9	863	146.0	-209159.0	-2462211.0	530202.0
28	18	6	9	864	147.0	-204826.0	-2464799.0	526208.0
28	18	6	9	865	148.0	-197579.0	-2469310.0	523101.0
28	18	6	9	865	149.0	-216879.0	-2472694.0	520931.0
28	18	6	9	866	150.0	-203311.0	-2474440.0	518936.0
28	18	6	9	866	151.0	-199557.0	-2468910.0	513538.0
28	18	6	9	867	152.0	-188519.0	-2458629.0	514120.0
28	18	6	9	868	153.0	-205282.0	-2459887.0	517871.0
28	18	6	9	868	178.0	-223332.0	-2529184.0	506492.0
28	18	6	9	869	179.0	-209470.0	-2529941.0	501704.0
28	18	6	9	869	180.0	-200297.0	-2531763.0	497361.0
28	18	6	9	870	181.0	-212338.0	-2534591.0	493466.0
28	18	6	9	870	182.0	-225574.0	-2537021.0	496651.0
28	18	6	9	871	183.0	-211978.0	-2538237.0	502989.0
28	18	6	9	902	184.0	-203622.0	-2540052.0	508324.0
28	18	6	9	903	185.0	-217060.0	-2542694.0	511756.0
28	18	6	9	904	186.0	-229420.0	-2545539.0	510744.0
28	18	6	9	904	187.0	-214954.0	-2547684.0	506136.0
28	18	6	9	905	188.0	-205698.0	-2549391.0	503879.0
28	18	6	9	906	189.0	-219767.0	-2550738.0	501993.0
28	18	6	9	906	190.0	-229986.0	-2552797.0	497681.0
28	18	6	9	907	191.0	-214354.0	-2555425.0	491768.0
28	18	6	9	907	192.0	-204957.0	-2557895.0	492666.0
28	18	6	9	908	193.0	-220352.0	-2560565.0	496729.0
28	18	6	9	909	194.0	-228862.0	-2564197.0	503344.0
28	18	6	9	909	195.0	-213606.0	-2567522.0	507434.0
28	18	6	9	910	196.0	-204594.0	-2569926.0	506394.0
28	18	6	9	910	197.0	-220876.0	-2572154.0	500734.0
28	18	6	9	911	198.0	-227549.0	-2574374.0	495846.0
28	18	6	9	912	200.0	-204011.0	-2577452.0	489007.0
28	18	6	9	912	201.0	-220799.0	-2579263.0	485369.0
28	18	6	9	913	202.0	-227758.0	-2580951.0	488532.0
28	18	6	9	913	203.0	-213946.0	-2582146.0	491436.0
28	18	6	9	914	204.0	-206759.0	-2583786.0	496908.0
28	18	6	9	915	205.0	-220026.0	-2586072.0	501954.0
28	18	6	9	916	206.0	-229038.0	-2588495.0	504881.0
28	18	6	9	947	207.0	-217234.0	-2590978.0	501750.0
28	18	6	9	948	208.0	-213172.0	-2592725.0	496380.0
28	18	6	9	949	209.0	-219416.0	-2594349.0	491476.0
28	18	6	9	949	210.0	-232205.0	-2596578.0	487114.0
28	18	6	9	950	211.0	-221918.0	-2598890.0	481889.0
28	18	6	9	951	212.0	-217859.0	-2601612.0	484736.0
28	18	6	9	952	213.0	-218702.0	-2604595.0	490593.0
28	18	6	9	952	214.0	-233851.0	-2607342.0	496252.0
28	18	6	9	953	215.0	-225708.0	-2609586.0	496963.0
28	18	6	9	953	216.0	-218639.0	-2612146.0	493233.0
28	18	6	9	954	217.0	-212868.0	-2614216.0	487389.0
28	18	6	9	955	218.0	-226684.0	-2616861.0	483116.0
28	18	6	9	955	219.0	-222896.0	-2618741.0	477994.0
28	18	6	9	956	220.0	-212041.0	-2620099.0	471654.0
28	18	6	9	956	221.0	-201111.0	-2621040.0	464014.0
28	18	6	9	957	223.0	-215987.0	-2623809.0	469228.0
28	18	6	9	957	224.0	-202756.0	-2626147.0	473731.0
28	18	6	9	958	225.0	-192469.0	-2628394.0	473800.0
28	18	6	9	959	226.0	-187823.0	-2628139.0	470648.0
28	18	6	9	959	227.0	-206407.0	-2629958.0	466018.0
28	18	6	9	960	228.0	-196144.0	-2632969.0	461433.0
28	18	6	10	8	229.0	-189638.0	-2635249.0	460036.0
28	18	6	10	22	230.0	-173356.0	-2637343.0	458898.0
28	18	6	10	23	231.0	-185836.0	-2639667.0	457079.0
28	18	6	10	24	232.0	-191262.0	-2642032.0	460713.0
28	18	6	10	24	233.0	-181287.0	-2644817.0	466691.0
28	18	6	10	25	234.0	-173214.0	-2647197.0	473207.0
28	18	6	10	26	235.0	-164262.0	-2647010.0	475837.0
28	18	6	10	26	236.0	-183722.0	-2648141.0	472887.0
28	18	6	10	27	237.0	-178562.0	-2649738.0	468293.0
28	18	6	10	27	238.0	-175845.0	-2651838.0	463943.0
28	18	6	10	28	239.0	-163490.0	-2653549.0	459456.0
28	18	6	10	29	240.0	-163139.0	-2655611.0	454211.0
28	18	6	10	29	241.0	-179522.0	-2658020.0	446831.0
28	18	6	10	30	242.0	-173323.0	-2661571.0	443458.0
28	18	6	10	31	243.0	-172834.0	-2667098.0	441463.0
28	18	6	10	31	253.0	-177059.0	-2723062.0	409902.0
28	18	6	10	32	4.0	-187080.0	-2740141.0	456100.0
28	18	6	10	32	5.0	-203733.0	-2742499.0	450821.0
28	18	6	10	33	6.0	-203562.0	-2745037.0	452890.0
28	18	6	10	33	7.0	-206841.0	-2748170.0	459268.0
28	18	6	10	43	8.0	-194786.0	-2750919.0	464651.0
28	18	6	10	44	9.0	-198049.0	-2753601.0	464513.0
28	18	6	10	44	10.0	-208874.0	-2747661.0	461258.0
28	18	6	10	45	11.0	-198229.0	-2738652.0	457419.0
28	18	6	10	46	12.0	-187239.0	-2739658.0	452825.0
28	18	6	10	67	13.0	-162668.0	-2736312.0	448310.0
28	18	6	10	67	14.0	-158703.0	-2737076.0	442216.0
28	18	6	10	68	15.0	-173001.0	-2739559.0	438388.0
28	18	6	10	69	16.0	-174847.0	-2742363.0	442816.0
28	18	6	10	69	17.0	-181110.0	-2745438.0	449854.0
28	18	6	10	70	18.0	-173907.0	-2747929.0	455711.0
28	18	6	10	70	19.0	-183407.0	-2750589.0	456876.0
28	18	6	10	71	20.0	-202466.0	-2752882.0	454667.0
28	18	6	10	72	21.0	-204116.0	-2754637.0	450345.0
28	18	6	10	72	22.0	-207451.0	-2756394.0	446450.0
28	18	6	10	73	23.0	-197315.0	-2758931.0	442606.0
28	18	6	10	73	24.0	-202062.0	-2761297.0	437599.0
28	18	6	10	74	25.0	-214537.0	-2764066.0	436392.0
28	18	6	10	74	26.0	-212579.0	-2767245.0	439651.0
28	18	6	10	75	27.0	-214957.0	-2769453.0	444999.0
28	18	6	10	89	28.0	-210383.0	-2771977.0	449912.0
28	18	6	10	90	29.0	-221022.0	-2776864.0	450783.0
28	18	6	10	91	30.0	-235430.0	-2782464.0	447748.0
28	18	6	10	91	31.0	-231187.0	-2785186.0	444523.0
28	18	6	10	92	32.0	-224982.0	-2787333.0	442551.0
28	18	6	10	92	33.0	-211510.0	-2790314.0	441163.0
28	18	6	10	93	34.0	-213914.0	-2792855.0	436623.0
28	18	6	10	94	35.0	-221116.0	-2795417.0	434126.0
28	18	6	10	113	36.0	-214776.0	-2797932.0	438898.0
28	18	6	10	114	37.0	-208494.0	-2805456.0	445443.0
28	18	6	10	115	38.0	-199583.0	-2814633.0	450608.0
28	18	6	10	115	39.0	-205552.0	-2818181.0	453679.0
28	18	6	10	116	40.0	-213731.0	-2820788.0	450824.0
28	18	6	10	116	41.0	-210497.0	-2823572.0	447418.0
28	18	6	10	117	42.0	-208199.0	-2826114.0	443501.0
28	18	6	10	118	43.0	-203170.0	-2828152.0	438028.0
28	18	6	10	118	44.0	-209179.0	-2830269.0	432112.0
28	18	6	10	119	45.0	-214691.0	-2832629.0	430673.0
28	18	6	10	119	46.0	-214049.0	-2834002.0	433352.0
28	18	6	10	120	47.0	-217367.0	-2835302.0	437570.0
28	18	6	10	120	48.0	-219049.0	-2838617.0	440875.0
28	18	6	10	121	49.0	-225750.0	-2840846.0	440913.0
28	18	6	10	122	50.0	-231191.0	-2842862.0	435914.0
28	18	6	10	142	51.0	-230451.0	-2845411.0	431708.0
28	18	6	10	143	52.0	-228594.0	-2848286.0	428095.0
28	18	6	10	144	53.0	-227103.0	-2851918.0	424028.0
28	18	6	10	144	54.0	-227454.0	-2856104.0	418823.0
28	18	6	10	145	55.0	-228353.0	-2858940.0	417350.0
28	18	6	10	146	56.0	-227951.0	-2862149.0	420436.0
28	18	6	10	146	57.0	-225317.0	-2865292.0	426168.0
28	18	6	10	147	58.0	-220991.0	-2868188.0	430812.0
28	18	6	10	148	59.0	-215905.0	-2866672.0	431749.0
28	18	6	10	148	60.0	-212118.0	-2865759.0	427725.0
28	18	6	10	149	61.0	-208873.0	-2867834.0	423351.0
28	18	6	10	150	62.0	-205182.0	-2870621.0	419811.0
28	18	6	10	150	63.0	-201161.0	-2872820.0	415843.0
28	18	6	10	151	64.0	-197188.0	-2866179.0	407617.0
28	18	6	10	152	65.0	-193476.0	-2858902.0	403905.0
28	18	6	10	152	66.0	-189762.0	-2861550.0	406038.0
28	18	6	10	153	67.0	-186632.0	-2865212.0	410080.0
28	18	6	10	154	68.0	-183831.0	-2868326.0	413286.0
28	18	6	10	162	69.0	-181358.0	-2870757.0	412689.0
28	18	6	10	162	70.0	-179763.0	-2870587.0	406438.0
28	18	6	10	163	71.0	-179294.0	-2872192.0	402462.0
28	18	6	10	184	72.0	-179753.0	-2875361.0	399539.0
28	18	6	10	185	73.0	-180383.0	-2878125.0	396078.0
28	18	6	10	186	74.0	-181159.0	-2879848.0	391749.0
28	18	6	10	187	75.0	-181782.0	-2881925.0	390984.0
28	18	6	10	187	76.0	-182366.0	-2884594.0	394839.0
28	18	6	10	188	77.0	-183312.0	-2886491.0	401244.0
28	18	6	10	189	78.0	-185226.0	-2886517.0	405882.0
28	18	6	10	189	79.0	-187442.0	-2888728.0	405229.0
28	18	6	10	190	80.0	-189709.0	-2891606.0	399220.0
28	18	6	10	191	81.0	-192672.0	-2894352.0	395456.0
28	18	6	10	191	82.0	-196106.0	-2895979.0	392776.0
28	18	6	10	192	83.0	-198887.0	-2891919.0	390681.0
28	18	6	10	193	84.0	-201377.0	-2890961.0	386286.0
28	18	6	10	193	85.0	-204002.0	-2894052.0	385488.0
28	18	6	10	194	86.0	-206716.0	-2900020.0	391068.0
28	18	6	10	194	87.0	-209127.0	-2910879.0	397588.0
28	18	6	10	195	88.0	-211367.0	-2915169.0	401953.0
28	18	6	10	207	89.0	-213335.0	-2918504.0	403384.0
28	18	6	10	208	90.0	-214460.0	-2921466.0	399375.0
28	18	6	10	209	91.0	-215375.0	-2924887.0	396291.0
28	18	6	10	210	92.0	-215386.0	-2928624.0	393563.0
28	18	6	10	210	93.0	-215476.0	-2933041.0	391229.0
28	18	6	10	211	94.0	-215907.0	-2936617.0	386868.0
28	18	6	10	230	95.0	-216456.0	-2930051.0	386115.0
28	18	6	10	231	96.0	-216910.0	-2921718.0	393213.0
28	18	6	10	231	97.0	-217269.0	-2922931.0	401427.0
28	18	6	10	232	98.0	-216922.0	-2923122.0	407331.0
28	18	6	10	233	99.0	-215816.0	-2925433.0	408376.0
28	18	6	10	233	100.0	-214222.0	-2928348.0	404267.0
28	18	6	10	234	101.0	-212350.0	-2931377.0	400951.0
28	18	6	10	234	102.0	-209939.0	-2934942.0	397971.0
28	18	6	10	235	103.0	-207578.0	-2937399.0	395499.0
28	18	6	10	236	104.0	-205799.0	-2939651.0	390788.0
28	18	6	10	236	105.0	-204349.0	-2942887.0	392474.0
28	18	6	10	237	106.0	-203494.0	-2947297.0	397769.0
28	18	6	10	237	107.0	-202338.0	-2950711.0	403657.0
28	18	6	10	238	108.0	-201386.0	-2953997.0	407113.0
28	18	6	10	239	109.0	-200981.0	-2957446.0	406883.0
28	18	6	10	255	110.0	-200542.0	-2959667.0	402701.0
28	18	6	10	256	111.0	-200511.0	-2962512.0	399963.0
28	18	6	10	256	112.0	-200326.0	-2966327.0	396730.0
28	18	6	10	257	113.0	-199692.0	-2969473.0	391082.0
28	18	6	10	258	114.0	-199460.0	-2972871.0	383494.0
28	18	6	10	258	115.0	-199478.0	-2976842.0	382714.0
28	18	6	10	259	116.0	-199989.0	-2981051.0	388479.0
28	18	6	10	259	117.0	-201162.0	-2985052.0	394268.0
28	18	6	10	260	118.0	-202255.0	-2988834.0	398276.0
28	18	6	10	261	119.0	-202626.0	-2992581.0	397518.0
28	18	6	10	262	120.0	-202907.0	-2995931.0	391202.0
28	18	6	10	262	121.0	-202020.0	-2999433.0	388217.0
28	18	6	10	263	122.0	-200929.0	-3005268.0	386563.0
28	18	6	10	264	123.0	-201489.0	-3020417.0	382198.0
28	18	6	10	264	124.0	-203133.0	-3026828.0	374581.0
28	18	6	10	277	125.0	-203617.0	-3029192.0	374919.0
28	18	6	10	277	126.0	-202044.0	-3031883.0	380384.0
28	18	6	10	278	127.0	-202569.0	-3027541.0	385997.0
28	18	6	10	279	128.0	-208718.0	-3020182.0	388176.0
28	18	6	10	279	129.0	-212874.0	-3022991.0	386529.0
28	18	6	10	280	130.0	-208038.0	-3026678.0	380871.0
28	18	6	10	281	131.0	-203122.0	-3029264.0	376029.0
28	18	6	10	281	132.0	-211609.0	-3031607.0	373175.0
28	18	6	10	282	133.0	-223100.0	-3031647.0	369996.0
28	18	6	10	303	134.0	-212656.0	-3031152.0	365704.0
28	18	6	10	304	135.0	-205131.0	-3034026.0	367354.0
28	18	6	10	304	136.0	-214697.0	-3037657.0	371814.0
28	18	6	10	305	137.0	-233027.0	-3041151.0	377254.0
28	18	6	10	306	138.0	-230157.0	-3042919.0	380702.0
28	18	6	10	306	139.0	-222682.0	-3044116.0	380236.0
28	18	6	10	307	140.0	-226145.0	-3045752.0	375533.0
28	18	6	10	307	141.0	-250238.0	-3048502.0	370435.0
28	18	6	10	308	142.0	-253840.0	-3051141.0	365641.0
28	18	6	10	309	143.0	-247731.0	-3052601.0	360684.0
28	18	6	10	309	144.0	-244022.0	-3053715.0	353610.0
28	18	6	10	310	145.0	-262352.0	-3054662.0	352906.0
28	18	6	10	310	146.0	-272215.0	-3055853.0	357756.0
28	18	6	10	311	147.0	-261505.0	-3057638.0	362915.0
28	18	6	10	325	148.0	-254601.0	-3064675.0	362434.0
28	18	6	10	326	149.0	-260421.0	-3070721.0	359319.0
28	18	6	10	327	150.0	-286072.0	-3073094.0	354821.0
28	18	6	10	347	151.0	-279064.0	-3074462.0	351265.0
28	18	6	10	348	152.0	-274541.0	-3076018.0	346986.0
28	18	6	10	349	153.0	-267728.0	-3077934.0	339458.0
28	18	6	10	349	154.0	-293787.0	-3079457.0	332731.0
28	18	6	10	350	155.0	-298979.0	-3080509.0	333863.0
28	18	6	10	350	156.0	-290736.0	-3082403.0	339938.0
28	18	6	10	351	157.0	-279870.0	-3083806.0	345979.0
28	18	6	10	352	158.0	-287094.0	-3086609.0	347480.0
28	18	6	10	352	159.0	-304717.0	-3088737.0	343888.0
28	18	6	10	353	160.0	-286486.0	-3090811.0	338567.0
28	18	6	10	353	161.0	-269929.0	-3092579.0	335396.0
28	18	6	10	354	162.0	-249243.0	-3094931.0	330966.0
28	18	6	10	355	163.0	-269827.0	-3098094.0	324936.0
28	18	6	10	355	164.0	-261874.0	-3101202.0	318329.0
28	18	6	10	356	165.0	-257360.0	-3104691.0	318844.0
28	18	6	10	356	166.0	-247300.0	-3108324.0	321933.0
28	18	6	10	357	167.0	-264357.0	-3112440.0	326896.0
28	18	6	10	357	168.0	-278369.0	-3116657.0	329543.0
28	18	6	10	358	169.0	-259816.0	-3121274.0	328169.0
28	18	6	10	369	170.0	-247227.0	-3125685.0	322461.0
28	18	6	10	369	171.0	-236988.0	-3128825.0	315551.0
28	18	6	10	370	172.0	-260249.0	-3132187.0	308785.0
28	18	6	10	371	173.0	-245196.0	-3134859.0	301341.0
28	18	6	10	371	174.0	-235082.0	-3137989.0	294929.0
28	18	6	10	372	175.0	-217142.0	-3141034.0	293776.0
28	18	6	10	372	176.0	-233529.0	-3143859.0	296574.0
28	18	6	10	373	177.0	-230552.0	-3144957.0	299794.0
28	18	6	10	391	178.0	-226966.0	-3143243.0	299404.0
28	18	6	10	391	179.0	-229237.0	-3146573.0	292546.0
28	18	6	10	392	180.0	-229318.0	-3147782.0	283811.0
28	18	6	10	392	181.0	-258314.0	-3147465.0	277258.0
28	18	6	10	393	182.0	-248127.0	-3150505.0	271156.0
28	18	6	10	394	183.0	-245237.0	-3153911.0	263976.0
28	18	6	10	394	184.0	-226519.0	-3158155.0	256718.0
28	18	6	10	395	185.0	-238050.0	-3159478.0	255790.0
28	18	6	10	414	186.0	-250987.0	-3160523.0	257443.0
28	18	6	10	415	187.0	-230041.0	-3161900.0	262437.0
28	18	6	10	416	188.0	-202645.0	-3162862.0	264286.0
28	18	6	10	416	189.0	-199477.0	-3163416.0	262301.0
28	18	6	10	417	190.0	-225995.0	-3163905.0	257669.0
28	18	6	10	417	191.0	-229281.0	-3162071.0	253159.0
28	18	6	10	418	192.0	-224070.0	-3160204.0	247789.0
28	18	6	10	419	193.0	-208679.0	-3157902.0	242581.0
28	18	6	10	419	194.0	-202035.0	-3155515.0	237828.0
28	18	6	10	420	195.0	-224324.0	-3152292.0	240127.0
28	18	6	10	420	196.0	-212023.0	-3148807.0	244742.0
28	18	6	10	421	197.0	-201262.0	-3142492.0	250300.0
28	18	6	10	422	198.0	-160339.0	-3139212.0	253579.0
28	18	6	10	422	199.0	-166857.0	-3134447.0	250479.0
28	18	6	10	436	200.0	-189947.0	-3133990.0	245748.0
28	18	6	10	437	201.0	-174403.0	-3135273.0	242381.0
28	18	6	10	438	202.0	-169784.0	-3137052.0	239791.0
28	18	6	10	438	203.0	-142395.0	-3138559.0	235230.0
28	18	6	10	439	204.0	-151036.0	-3139204.0	231881.0
28	18	6	10	439	205.0	-162419.0	-3139027.0	236507.0
28	18	6	10	440	206.0	-151200.0	-3135981.0	242531.0
28	18	6	10	442	207.0	-146829.0	-3131272.0	248562.0
28	18	6	10	459	208.0	-118293.0	-3132532.0	251562.0
28	18	6	10	459	209.0	-109224.0	-3135592.0	247266.0
28	18	6	10	460	210.0	-136559.0	-3138269.0	242666.0
28	18	6	10	461	211.0	-128997.0	-3141455.0	237438.0
28	18	6	10	461	212.0	-132422.0	-3144633.0	233483.0
28	18	6	10	462	213.0	-117271.0	-3147350.0	227389.0
28	18	6	10	462	214.0	-131494.0	-3149711.0	224006.0
28	18	6	10	463	215.0	-145172.0	-3151855.0	227474.0
28	18	6	10	464	216.0	-137880.0	-3154683.0	231656.0
28	18	6	10	464	217.0	-139797.0	-3157756.0	235177.0
28	18	6	10	465	218.0	-120288.0	-3161271.0	236016.0
28	18	6	10	465	219.0	-136842.0	-3163571.0	230154.0
28	18	6	10	466	220.0	-152176.0	-3160554.0	223301.0
28	18	6	10	466	221.0	-143947.0	-3163759.0	219014.0
28	18	6	10	467	222.0	-141421.0	-3180110.0	217119.0
28	18	6	10	468	223.0	-117376.0	-3187172.0	211198.0
28	18	6	10	482	224.0	-124942.0	-3191006.0	206218.0
28	18	6	10	483	225.0	-141135.0	-3196775.0	209563.0
28	18	6	10	483	226.0	-136616.0	-3201556.0	216088.0
28	18	6	10	484	227.0	-140858.0	-3206107.0	220978.0
28	18	6	10	485	228.0	-125401.0	-3209429.0	221468.0
28	18	6	10	485	229.0	-130136.0	-3212151.0	216963.0
28	18	6	10	506	230.0	-152895.0	-3215407.0	211065.0
28	18	6	10	516	231.0	-148347.0	-3219815.0	205214.0
28	18	6	10	519	232.0	-153191.0	-3223904.0	201182.0
28	18	6	10	521	233.0	-139312.0	-3227182.0	196136.0
28	18	6	10	523	234.0	-132948.0	-3230676.0	191898.0
28	18	6	10	523	235.0	-151721.0	-3235084.0	194999.0
28	18	6	10	524	236.0	-143960.0	-3238982.0	201181.0
28	18	6	10	524	237.0	-145263.0	-3241085.0	205481.0
28	18	6	10	525	238.0	-133224.0	-3243496.0	206571.0
28	18	6	10	525	239.0	-118713.0	-3247119.0	201942.0
28	18	6	10	526	240.0	-139594.0	-3250682.0	196297.0
28	18	6	10	527	241.0	-143621.0	-3254691.0	192367.0
28	18	6	10	527	242.0	-141886.0	-3258789.0	188392.0
28	18	6	10	528	243.0	-136339.0	-3263953.0	182229.0
28	18	6	10	528	244.0	-115724.0	-3269138.0	179651.0
28	18	6	10	529	245.0	-127327.0	-3272988.0	184084.0
28	18	6	10	529	246.0	-137321.0	-3276897.0	190554.0
28	18	6	10	530	247.0	-132521.0	-3280551.0	196028.0
28	18	6	10	530	248.0	-134354.0	-3286165.0	197397.0
28	18	6	10	531	249.0	-116012.0	-3290431.0	195376.0
28	18	6	10	531	250.0	-120013.0	-3294196.0	190772.0
28	18	6	10	532	251.0	-115127.0	-3296337.0	186471.0
28	18	6	10	533	252.0	-121567.0	-3296277.0	182495.0
28	18	6	10	533	253.0	-150081.0	-3299140.0	176187.0
28	18	6	10	534	254.0	-140967.0	-3302829.0	174770.0
28	18	6	10	534	255.0	-144854.0	-3306543.0	180947.0
28	18	6	10	535	0.0	-167619.0	-3313640.0	189394.0
28	18	6	10	535	1.0	-175542.0	-3322265.0	197216.0
28	18	6	10	536	2.0	-184664.0	-3326253.0	199322.0
28	18	6	10	536	3.0	-186851.0	-3330262.0	195829.0
28	18	6	10	546	4.0	-183532.0	-3334184.0	192702.0
28	18	6	10	547	5.0	-208507.0	-3339133.0	189947.0
28	18	6	10	548	6.0	-217684.0	-3343741.0	185899.0
28	18	6	10	548	7.0	-218557.0	-3346199.0	178194.0
28	18	6	10	549	8.0	-220452.0	-3350196.0	175288.0
28	18	6	10	549	9.0	-204597.0	-3355008.0	179551.0
28	18	6	10	550	10.0	-217132.0	-3359086.0	187252.0
28	18	6	10	551	11.0	-230382.0	-3362116.0	192741.0
28	18	6	10	568	12.0	-224082.0	-3365309.0	193898.0
28	18	6	10	569	13.0	-224451.0	-3368722.0	189984.0
28	18	6	10	569	14.0	-204487.0	-3372464.0	185791.0
28	18	6	10	570	15.0	-204269.0	-3375255.0	182966.0
28	18	6	10	570	16.0	-220961.0	-3378210.0	180778.0
28	18	6	10	571	17.0	-212860.0	-3381817.0	173384.0
28	18	6	10	572	18.0	-211192.0	-3385019.0	169678.0
28	18	6	10	591	19.0	-193013.0	-3390647.0	173448.0
28	18	6	10	592	20.0	-180122.0	-3397661.0	179139.0
28	18	6	10	592	21.0	-196049.0	-3402621.0	182879.0
28	18	6	10	593	22.0	-192348.0	-3406384.0	184864.0
28	18	6	10	594	23.0	-188559.0	-3410305.0	182669.0
28	18	6	10	594	24.0	-176819.0	-3415313.0	178242.0
28	18	6	10	595	25.0	-158943.0	-3420191.0	172432.0
28	18	6	10	595	26.0	-172959.0	-3424226.0	166559.0
28	18	6	10	596	27.0	-176441.0	-3427366.0	160110.0
28	18	6	10	596	28.0	-170946.0	-3431057.0	158592.0
28	18	6	10	597	29.0	-167104.0	-3434924.0	163857.0
28	18	6	10	598	30.0	-147818.0	-3438643.0	172223.0
28	18	6	10	598	31.0	-156474.0	-3442471.0	177053.0
28	18	6	10	599	32.0	-170157.0	-3446537.0	177951.0
28	18	6	10	599	33.0	-166697.0	-3451201.0	172971.0
28	18	6	10	614	34.0	-170509.0	-3456527.0	167690.0
28	18	6	10	615	35.0	-156591.0	-3461278.0	163216.0
28	18	6	10	616	36.0	-161415.0	-3465265.0	159272.0
28	18	6	10	616	37.0	-182149.0	-3467808.0	152718.0
28	18	6	10	617	38.0	-181284.0	-3460849.0	152553.0
28	18	6	10	617	39.0	-187122.0	-3455859.0	156072.0
28	18	6	10	618	40.0	-177120.0	-3453274.0	161769.0
28	18	6	10	619	41.0	-173434.0	-3454879.0	168443.0
28	18	6	10	637	42.0	-195996.0	-3459170.0	170918.0
28	18	6	10	638	43.0	-199016.0	-3463227.0	166168.0
28	18	6	10	638	44.0	-203435.0	-3467976.0	161779.0
28	18	6	10	639	45.0	-200479.0	-3473528.0	160433.0
28	18	6	10	640	46.0	-192312.0	-3477429.0	155981.0
28	18	6	10	640	47.0	-213592.0	-3481104.0	147957.0
28	18	6	10	641	48.0	-221562.0	-3484499.0	147454.0
28	18	6	10	641	49.0	-221435.0	-3488442.0	152786.0
28	18	6	10	642	50.0	-219991.0	-3494145.0	159796.0
28	18	6	10	643	51.0	-204696.0	-3500021.0	165913.0
28	18	6	10	643	52.0	-216788.0	-3505156.0	167196.0
28	18	6	10	644	53.0	-227966.0	-3509479.0	163071.0
28	18	6	10	644	54.0	-222326.0	-3513597.0	159234.0
28	18	6	10	645	55.0	-221254.0	-3517901.0	155723.0
28	18	6	10	645	56.0	-201898.0	-3521450.0	148993.0
28	18	6	10	659	57.0	-205451.0	-3523202.0	140851.0
28	18	6	10	660	58.0	-220565.0	-3526482.0	139108.0
28	18	6	10	660	59.0	-217031.0	-3529751.0	144244.0
28	18	6	10	661	60.0	-215309.0	-3533474.0	151438.0
28	18	6	10	662	61.0	-196181.0	-3538034.0	155902.0
28	18	6	10	662	62.0	-187822.0	-3542246.0	154209.0
28	18	6	10	663	63.0	-200891.0	-3545949.0	148544.0
28	18	6	10	684	64.0	-195613.0	-3549664.0	143499.0
28	18	6	10	685	65.0	-191017.0	-3553289.0	138884.0
28	18	6	10	686	66.0	-175892.0	-3556729.0	132499.0
28	18	6	10	686	67.0	-161675.0	-3560879.0	125753.0
28	18	6	10	687	68.0	-173924.0	-3564803.0	125251.0
28	18	6	10	688	69.0	-174332.0	-3569632.0	127953.0
28	18	6	10	688	70.0	-168824.0	-3574756.0	132091.0
28	18	6	10	689	71.0	-160177.0	-3579471.0	134887.0
28	18	6	10	689	72.0	-143571.0	-3584191.0	134321.0
28	18	6	10	690	73.0	-154220.0	-3588806.0	130261.0
28	18	6	10	691	74.0	-161895.0	-3593723.0	128345.0
28	18	6	10	691	75.0	-154376.0	-3598961.0	124913.0
28	18	6	10	692	76.0	-147497.0	-3603921.0	119761.0
28	18	6	10	692	77.0	-128156.0	-3608369.0	114616.0
28	18	6	10	693	78.0	-131951.0	-3611822.0	115548.0
28	18	6	10	693	79.0	-144602.0	-3612192.0	121339.0
28	18	6	10	694	80.0	-139839.0	-3615670.0	129955.0
28	18	6	10	694	81.0	-138755.0	-3620404.0	137507.0
28	18	6	10	713	82.0	-125376.0	-3624432.0	137723.0
28	18	6	10	713	83.0	-128661.0	-3629076.0	131561.0
28	18	6	10	714	84.0	-147813.0	-3633647.0	127771.0
28	18	6	10	715	85.0	-150899.0	-3638206.0	124556.0
28	18	6	10	715	86.0	-151526.0	-3642046.0	119183.0
28	18	6	10	716	87.0	-142970.0	-3646596.0	113679.0
28	18	6	10	717	88.0	-137174.0	-3653482.0	117149.0
28	18	6	10	717	89.0	-155080.0	-3661067.0	125128.0
28	18	6	10	718	90.0	-162902.0	-3667080.0	132864.0
28	18	6	10	718	91.0	-164114.0	-3671753.0	135678.0
28	18	6	10	719	92.0	-161501.0	-3674136.0	132690.0
28	18	6	10	719	93.0	-152357.0	-3676539.0	125740.0
28	18	6	10	720	94.0	-166254.0	-3669836.0	119746.0
28	18	6	10	721	95.0	-179153.0	-3667902.0	114964.0
28	18	6	10	734	96.0	-176775.0	-3672172.0	108526.0
28	18	6	10	735	97.0	-175492.0	-3674852.0	98035.0
28	18	6	10	736	98.0	-165287.0	-3679009.0	93467.0
28	18	6	10	736	99.0	-175668.0	-3684945.0	93589.0
28	18	6	10	737	100.0	-195853.0	-3690131.0	95761.0
28	18	6	10	756	101.0	-201371.0	-3695274.0	95263.0
28	18	6	10	757	102.0	-228743.0	-3700442.0	91481.0
28	18	6	10	758	103.0	-229109.0	-3705450.0	84216.0
28	18	6	10	758	104.0	-213732.0	-3710299.0	77876.0
28	18	6	10	759	105.0	-233469.0	-3715264.0	71716.0
28	18	6	10	760	106.0	-226295.0	-3719533.0	65841.0
28	18	6	10	760	107.0	-226343.0	-3720938.0	60284.0
28	18	6	10	761	108.0	-211994.0	-3723227.0	64213.0
28	18	6	10	761	109.0	-207127.0	-3727806.0	75206.0
28	18	6	10	762	110.0	-212349.0	-3733619.0	90310.0
28	18	6	10	763	111.0	-209332.0	-3740074.0	103229.0
28	18	6	10	763	112.0	-200584.0	-3746102.0	110513.0
28	18	6	10	764	113.0	-188987.0	-3752014.0	113816.0
28	18	6	10	764	114.0	-182038.0	-3757296.0	119010.0
28	18	6	10	765	115.0	-187918.0	-3762382.0	124409.0
28	18	6	10	765	116.0	-185550.0	-3767258.0	122983.0
