28	18	16	35	987	87.0	-139739.0	-3162.0	-1356.0
28	18	16	35	988	88.0	-124935.0	-3163.0	-1654.0
28	18	16	35	990	89.0	-109042.0	-3177.0	-1762.0
28	18	16	35	992	90.0	-92759.0	-3217.0	-1523.0
28	18	16	35	994	91.0	-76602.0	-3244.0	-1747.0
28	18	16	36	11	92.0	-60740.0	-3240.0	-2576.0
28	18	16	36	12	93.0	-46426.0	-3225.0	-3489.0
28	18	16	36	13	94.0	-35665.0	-3243.0	-3867.0
28	18	16	36	14	95.0	-29414.0	-3239.0	-3769.0
28	18	16	36	15	96.0	-27664.0	-3214.0	-2904.0
28	18	16	36	15	97.0	-31129.0	-3239.0	-1388.0
28	18	16	36	16	98.0	-40323.0	-3246.0	361.0
28	18	16	36	17	99.0	-54514.0	-3237.0	1229.0
28	18	16	36	17	100.0	-73648.0	-3226.0	1453.0
28	18	16	36	18	101.0	-95249.0	-3207.0	1536.0
28	18	16	36	18	102.0	-117956.0	-3193.0	2237.0
28	18	16	36	19	103.0	-141144.0	-3195.0	2469.0
28	18	16	36	20	104.0	-163296.0	-3201.0	4639.0
28	18	16	36	20	105.0	-183006.0	-3202.0	10296.0
28	18	16	36	21	106.0	-200205.0	-3246.0	16078.0
28	18	16	36	21	107.0	-213974.0	-3230.0	21451.0
28	18	16	36	22	108.0	-223661.0	-3219.0	22154.0
28	18	16	36	22	109.0	-229796.0	-3241.0	21055.0
28	18	16	36	71	110.0	-233741.0	-3257.0	18705.0
28	18	16	36	116	111.0	-236144.0	-3249.0	15031.0
28	18	16	36	117	112.0	-238003.0	-3235.0	13849.0
28	18	16	36	117	113.0	-241290.0	-3226.0	12554.0
28	18	16	36	118	114.0	-248667.0	-3207.0	7655.0
28	18	16	36	120	115.0	-261054.0	-3191.0	6209.0
28	18	16	36	121	116.0	-278486.0	-3161.0	8728.0
28	18	16	36	121	117.0	-299862.0	-3153.0	12365.0
28	18	16	36	122	118.0	-322196.0	-3147.0	13721.0
28	18	16	36	122	119.0	-342445.0	-3152.0	12519.0
28	18	16	36	123	120.0	-358363.0	-3141.0	9816.0
28	18	16	36	124	121.0	-367291.0	-3094.0	8476.0
28	18	16	36	124	122.0	-369211.0	-3087.0	7383.0
28	18	16	36	125	123.0	-364999.0	-3073.0	5903.0
28	18	16	36	125	124.0	-354845.0	-3063.0	4999.0
28	18	16	36	126	135.0	-47354.0	-3039.0	1422.0
28	18	16	36	127	158.0	-246921.0	-3117.0	-163.0
28	18	16	36	127	159.0	-246006.0	-3117.0	-5.0
28	18	16	36	128	160.0	-246032.0	-3102.0	97.0
28	18	16	36	128	161.0	-246732.0	-3087.0	-118.0
28	18	16	36	129	162.0	-247916.0	-3070.0	467.0
28	18	16	36	129	163.0	-249374.0	-3074.0	1312.0
28	18	16	36	160	164.0	-251721.0	-3058.0	1306.0
28	18	16	36	161	165.0	-254691.0	-3037.0	1223.0
28	18	16	36	162	166.0	-257551.0	-3013.0	974.0
28	18	16	36	162	167.0	-259959.0	-3002.0	-500.0
28	18	16	36	163	168.0	-262217.0	-3008.0	-1275.0
28	18	16	36	164	169.0	-264729.0	-2986.0	-787.0
28	18	16	36	164	170.0	-267469.0	-2991.0	-238.0
28	18	16	36	165	171.0	-269689.0	-2995.0	123.0
28	18	16	36	165	172.0	-270744.0	-2996.0	458.0
28	18	16	36	166	173.0	-269935.0	-2998.0	797.0
28	18	16	36	166	174.0	-266422.0	-3007.0	89.0
28	18	16	36	167	175.0	-259984.0	-3011.0	-206.0
28	18	16	36	168	176.0	-250130.0	-3024.0	-309.0
28	18	16	36	168	177.0	-236981.0	-3033.0	-630.0
28	18	16	36	169	178.0	-221219.0	-3034.0	-1169.0
28	18	16	36	169	180.0	-184842.0	-3057.0	-1434.0
28	18	16	36	170	181.0	-164826.0	-3052.0	-1459.0
28	18	16	36	171	182.0	-144542.0	-3053.0	-1654.0
28	18	16	36	171	183.0	-124795.0	-3053.0	-1865.0
28	18	16	36	172	184.0	-106806.0	-3027.0	-2155.0
28	18	16	36	173	185.0	-91976.0	-3019.0	-2680.0
28	18	16	36	173	186.0	-79700.0	-3024.0	-3414.0
28	18	16	36	206	187.0	-70231.0	-3019.0	-3583.0
28	18	16	36	206	188.0	-63896.0	-2999.0	-3377.0
28	18	16	36	207	189.0	-60000.0	-2975.0	-3166.0
28	18	16	36	207	190.0	-58479.0	-2962.0	-3006.0
28	18	16	36	208	191.0	-58835.0	-2943.0	-2843.0
28	18	16	36	209	192.0	-60848.0	-2926.0	-3011.0
28	18	16	36	209	193.0	-64779.0	-2896.0	-3246.0
28	18	16	36	210	194.0	-71301.0	-2888.0	-3405.0
28	18	16	36	210	195.0	-80415.0	-2895.0	-3619.0
28	18	16	36	211	196.0	-92011.0	-2886.0	-4106.0
28	18	16	36	212	197.0	-107665.0	-2886.0	-4233.0
28	18	16	36	212	198.0	-127487.0	-2918.0	-4531.0
28	18	16	36	220	199.0	-150369.0	-2939.0	-4792.0
28	18	16	36	221	200.0	-176167.0	-2943.0	-4777.0
28	18	16	36	222	201.0	-204157.0	-2936.0	-4210.0
28	18	16	36	222	203.0	-261201.0	-2974.0	-5516.0
28	18	16	36	223	204.0	-287420.0	-2996.0	-5317.0
28	18	16	36	224	205.0	-311146.0	-2991.0	-5379.0
28	18	16	36	224	206.0	-331127.0	-2996.0	-5974.0
28	18	16	36	225	207.0	-346624.0	-3001.0	-6332.0
28	18	16	36	225	208.0	-357537.0	-2998.0	-6177.0
28	18	16	36	296	209.0	-364552.0	-3022.0	-5896.0
28	18	16	36	297	210.0	-368174.0	-3037.0	-5670.0
28	18	16	36	297	211.0	-368405.0	-3039.0	-5491.0
28	18	16	36	298	212.0	-365878.0	-3053.0	-6391.0
28	18	16	36	299	213.0	-360796.0	-3064.0	-7548.0
28	18	16	36	299	214.0	-353989.0	-3089.0	-7452.0
28	18	16	36	300	215.0	-345692.0	-3119.0	-6659.0
28	18	16	36	320	216.0	-336194.0	-3125.0	-6069.0
28	18	16	36	320	217.0	-325675.0	-3128.0	-5050.0
28	18	16	36	345	218.0	-314059.0	-3138.0	-4581.0
28	18	16	36	345	219.0	-301551.0	-3129.0	-5031.0
28	18	16	36	346	220.0	-288162.0	-3142.0	-5244.0
28	18	16	36	347	221.0	-274337.0	-3141.0	-5233.0
28	18	16	36	347	222.0	-259974.0	-3134.0	-4935.0
28	18	16	36	348	223.0	-244309.0	-3106.0	-4932.0
28	18	16	36	348	225.0	-210377.0	-3075.0	-5229.0
28	18	16	36	349	248.0	-190201.0	-2448.0	-3968.0
28	18	16	36	350	249.0	-190702.0	-2410.0	-3278.0
28	18	16	36	350	250.0	-189653.0	-2374.0	-2570.0
28	18	16	36	351	251.0	-186129.0	-2325.0	-2376.0
28	18	16	36	351	252.0	-180126.0	-2294.0	-2386.0
28	18	16	36	352	253.0	-172704.0	-2256.0	-2168.0
28	18	16	36	352	254.0	-163591.0	-2210.0	-2062.0
28	18	16	36	353	255.0	-153041.0	-2163.0	-2015.0
28	18	16	36	354	14.0	-236189.0	-1795.0	-1791.0
28	18	16	36	354	15.0	-249316.0	-1791.0	-472.0
28	18	16	36	355	16.0	-260465.0	-1761.0	-876.0
28	18	16	36	355	17.0	-270631.0	-1736.0	-1365.0
28	18	16	36	356	18.0	-281741.0	-1713.0	-1869.0
28	18	16	36	356	19.0	-293880.0	-1681.0	-2506.0
28	18	16	36	357	20.0	-305662.0	-1659.0	-2932.0
28	18	16	36	386	21.0	-315909.0	-1631.0	-2635.0
28	18	16	36	387	22.0	-323583.0	-1612.0	-2836.0
28	18	16	36	388	23.0	-327729.0	-1605.0	-3186.0
28	18	16	36	388	24.0	-327549.0	-1598.0	-2556.0
28	18	16	36	389	25.0	-323599.0	-1579.0	-2137.0
28	18	16	36	390	26.0	-316779.0	-1574.0	-2346.0
28	18	16	36	390	27.0	-307649.0	-1572.0	-2238.0
28	18	16	36	391	28.0	-297132.0	-1537.0	-2106.0
28	18	16	36	392	29.0	-285753.0	-1498.0	-2395.0
28	18	16	36	392	30.0	-274119.0	-1487.0	-2401.0
28	18	16	36	393	31.0	-263127.0	-1508.0	-2439.0
28	18	16	36	394	32.0	-252464.0	-1503.0	-2569.0
28	18	16	36	395	33.0	-242937.0	-1511.0	-3149.0
28	18	16	36	395	34.0	-233904.0	-1503.0	-2791.0
28	18	16	36	396	35.0	-225918.0	-1454.0	-2943.0
28	18	16	36	396	36.0	-219027.0	-1446.0	-2864.0
28	18	16	36	397	37.0	-213288.0	-1446.0	-2692.0
28	18	16	36	397	38.0	-209361.0	-1412.0	-2466.0
28	18	16	36	398	39.0	-206461.0	-1354.0	-2729.0
28	18	16	36	399	40.0	-203782.0	-1328.0	-2982.0
28	18	16	36	399	41.0	-200669.0	-1280.0	-3314.0
28	18	16	36	400	42.0	-197475.0	-1221.0	-3582.0
28	18	16	36	431	43.0	-194007.0	-1190.0	-3348.0
28	18	16	36	432	44.0	-190182.0	-1172.0	-3094.0
28	18	16	36	432	45.0	-186423.0	-1144.0	-2783.0
28	18	16	36	433	46.0	-182941.0	-1144.0	-2834.0
28	18	16	36	433	47.0	-179306.0	-1144.0	-2609.0
28	18	16	36	434	48.0	-176017.0	-1147.0	-2382.0
28	18	16	36	435	49.0	-172465.0	-1124.0	-1762.0
28	18	16	36	435	50.0	-168259.0	-1116.0	-1399.0
28	18	16	36	436	51.0	-163469.0	-1110.0	-2129.0
28	18	16	36	436	52.0	-158507.0	-1109.0	-2251.0
28	18	16	36	437	53.0	-153631.0	-1092.0	-2109.0
28	18	16	36	438	54.0	-148524.0	-1102.0	-2041.0
28	18	16	36	438	55.0	-142884.0	-1121.0	-1761.0
28	18	16	36	439	56.0	-136014.0	-1131.0	-1330.0
28	18	16	36	439	57.0	-129471.0	-1122.0	-1744.0
28	18	16	36	440	59.0	-118419.0	-1141.0	-2379.0
28	18	16	36	441	60.0	-115239.0	-1138.0	-2396.0
28	18	16	36	441	61.0	-113870.0	-1130.0	-3171.0
28	18	16	36	442	62.0	-113889.0	-1131.0	-3281.0
28	18	16	36	442	63.0	-115493.0	-1123.0	-3136.0
28	18	16	36	443	64.0	-119005.0	-1118.0	-3061.0
28	18	16	36	476	65.0	-124296.0	-1123.0	-2719.0
28	18	16	36	477	66.0	-131288.0	-1146.0	-1839.0
28	18	16	36	478	67.0	-139301.0	-1178.0	-2140.0
28	18	16	36	478	68.0	-148001.0	-1206.0	-3869.0
28	18	16	36	479	69.0	-156834.0	-1244.0	-4613.0
28	18	16	36	479	70.0	-164961.0	-1258.0	-4766.0
28	18	16	36	480	71.0	-172230.0	-1292.0	-5492.0
28	18	16	36	481	72.0	-179790.0	-1343.0	-4735.0
28	18	16	36	481	73.0	-187747.0	-1372.0	-3799.0
28	18	16	36	482	74.0	-197405.0	-1397.0	-3743.0
28	18	16	36	483	75.0	-208956.0	-1414.0	-3136.0
28	18	16	36	483	76.0	-222402.0	-1433.0	-2885.0
28	18	16	36	484	77.0	-236763.0	-1464.0	-3141.0
28	18	16	36	485	78.0	-251064.0	-1490.0	-3310.0
28	18	16	36	486	79.0	-264382.0	-1502.0	-3385.0
28	18	16	36	487	81.0	-285812.0	-1581.0	-3248.0
28	18	16	36	488	82.0	-294465.0	-1616.0	-3095.0
28	18	16	36	488	83.0	-301905.0	-1622.0	-2882.0
28	18	16	36	489	84.0	-306739.0	-1629.0	-2616.0
28	18	16	36	489	85.0	-309114.0	-1659.0	-2586.0
28	18	16	36	490	86.0	-309020.0	-1669.0	-2617.0
28	18	16	36	491	87.0	-307032.0	-1687.0	-2679.0
28	18	16	36	523	88.0	-303585.0	-1707.0	-2811.0
28	18	16	36	523	89.0	-298799.0	-1733.0	-3579.0
28	18	16	36	524	90.0	-292328.0	-1759.0	-3838.0
28	18	16	36	525	91.0	-284837.0	-1776.0	-3576.0
28	18	16	36	525	92.0	-276544.0	-1800.0	-3566.0
28	18	16	36	526	93.0	-266334.0	-1834.0	-2889.0
28	18	16	36	527	94.0	-254158.0	-1855.0	-1871.0
28	18	16	36	527	95.0	-240178.0	-1872.0	-1609.0
28	18	16	36	528	96.0	-224656.0	-1877.0	-2248.0
28	18	16	36	528	97.0	-207861.0	-1876.0	-2392.0
28	18	16	36	529	98.0	-190059.0	-1903.0	-3030.0
28	18	16	36	530	99.0	-171591.0	-1927.0	-3862.0
28	18	16	36	530	100.0	-153584.0	-1924.0	-3739.0
28	18	16	36	531	101.0	-135942.0	-1935.0	-3485.0
28	18	16	36	531	102.0	-118887.0	-1969.0	-3104.0
28	18	16	36	532	104.0	-89881.0	-2004.0	-1367.0
28	18	16	36	533	105.0	-78047.0	-2000.0	-2217.0
28	18	16	36	533	106.0	-68463.0	-1981.0	-2577.0
28	18	16	36	534	107.0	-61929.0	-1971.0	-2358.0
28	18	16	36	534	108.0	-58040.0	-1964.0	-2477.0
28	18	16	36	535	109.0	-57742.0	-1966.0	-3085.0
28	18	16	36	535	110.0	-61506.0	-1963.0	-3029.0
28	18	16	36	567	111.0	-68994.0	-1990.0	-3162.0
28	18	16	36	567	112.0	-80444.0	-2000.0	-2777.0
28	18	16	36	568	113.0	-94759.0	-2030.0	-2868.0
28	18	16	36	569	114.0	-110898.0	-2060.0	-3164.0
28	18	16	36	569	115.0	-128566.0	-2069.0	-3001.0
28	18	16	36	570	116.0	-147776.0	-2090.0	-2970.0
28	18	16	36	571	117.0	-168105.0	-2109.0	-3001.0
28	18	16	36	571	118.0	-188465.0	-2137.0	-3466.0
28	18	16	36	572	119.0	-209364.0	-2139.0	-3343.0
28	18	16	36	572	120.0	-231186.0	-2166.0	-2602.0
28	18	16	36	573	121.0	-252096.0	-2176.0	-3407.0
28	18	16	36	574	122.0	-272212.0	-2172.0	-3458.0
28	18	16	36	574	123.0	-290711.0	-2189.0	-3440.0
28	18	16	36	575	124.0	-307314.0	-2206.0	-3183.0
28	18	16	36	576	125.0	-321911.0	-2217.0	-3019.0
28	18	16	36	576	126.0	-334087.0	-2231.0	-2999.0
28	18	16	36	577	127.0	-343013.0	-2247.0	-3727.0
28	18	16	36	577	128.0	-348827.0	-2256.0	-4012.0
28	18	16	36	578	129.0	-352329.0	-2267.0	-3476.0
28	18	16	36	579	130.0	-353820.0	-2281.0	-3339.0
28	18	16	36	579	131.0	-352877.0	-2292.0	-3839.0
28	18	16	36	580	132.0	-349246.0	-2306.0	-3557.0
28	18	16	36	613	133.0	-343744.0	-2292.0	-3979.0
28	18	16	36	613	134.0	-336607.0	-2294.0	-3624.0
28	18	16	36	614	135.0	-328102.0	-2296.0	-2548.0
28	18	16	36	615	136.0	-318123.0	-2297.0	-2177.0
28	18	16	36	616	137.0	-307832.0	-2307.0	-2432.0
28	18	16	36	616	138.0	-297676.0	-2322.0	-2898.0
28	18	16	36	617	139.0	-286693.0	-2319.0	-3379.0
28	18	16	36	617	140.0	-275056.0	-2331.0	-3380.0
28	18	16	36	618	141.0	-262086.0	-2346.0	-3664.0
28	18	16	36	619	142.0	-248397.0	-2344.0	-3308.0
28	18	16	36	619	143.0	-232729.0	-2371.0	-3476.0
28	18	16	36	620	144.0	-216362.0	-2368.0	-3375.0
28	18	16	36	621	145.0	-199679.0	-2386.0	-3039.0
28	18	16	36	621	146.0	-182644.0	-2407.0	-3004.0
28	18	16	36	622	147.0	-164489.0	-2406.0	-3346.0
28	18	16	36	623	149.0	-128857.0	-2416.0	-3662.0
28	18	16	36	623	150.0	-113484.0	-2409.0	-4053.0
28	18	16	36	624	151.0	-100856.0	-2414.0	-4261.0
28	18	16	36	624	152.0	-91434.0	-2404.0	-3957.0
28	18	16	36	625	153.0	-84031.0	-2376.0	-3642.0
28	18	16	36	626	154.0	-78240.0	-2359.0	-3186.0
28	18	16	36	656	155.0	-73721.0	-2342.0	-3256.0
28	18	16	36	657	156.0	-70447.0	-2310.0	-3531.0
28	18	16	36	658	157.0	-68619.0	-2281.0	-3891.0
28	18	16	36	658	158.0	-68710.0	-2264.0	-4409.0
28	18	16	36	659	159.0	-71119.0	-2261.0	-4937.0
28	18	16	36	660	160.0	-76980.0	-2242.0	-4717.0
28	18	16	36	660	161.0	-85551.0	-2243.0	-5018.0
28	18	16	36	702	162.0	-96514.0	-2260.0	-4859.0
28	18	16	36	703	163.0	-109355.0	-2265.0	-4051.0
28	18	16	36	704	164.0	-124219.0	-2250.0	-3176.0
28	18	16	36	705	165.0	-140981.0	-2254.0	-3250.0
28	18	16	36	705	166.0	-158952.0	-2254.0	-3354.0
28	18	16	36	706	167.0	-177336.0	-2231.0	-3332.0
28	18	16	36	707	168.0	-196944.0	-2224.0	-3809.0
28	18	16	36	707	169.0	-217574.0	-2221.0	-4471.0
28	18	16	36	708	171.0	-258911.0	-2225.0	-4589.0
28	18	16	36	709	172.0	-277745.0	-2221.0	-4652.0
28	18	16	36	709	173.0	-293796.0	-2221.0	-4937.0
28	18	16	36	710	174.0	-306688.0	-2202.0	-5053.0
28	18	16	36	710	175.0	-315999.0	-2155.0	-5377.0
28	18	16	36	711	176.0	-321739.0	-2126.0	-5638.0
28	18	16	36	712	177.0	-324207.0	-2121.0	-5791.0
28	18	16	36	712	178.0	-323556.0	-2122.0	-5806.0
28	18	16	36	713	194.0	-112819.0	-1985.0	-3849.0
28	18	16	36	714	195.0	-102622.0	-1971.0	-3768.0
28	18	16	36	714	196.0	-93592.0	-1961.0	-3399.0
28	18	16	36	715	197.0	-87177.0	-1962.0	-3517.0
28	18	16	36	715	198.0	-84171.0	-1962.0	-3079.0
28	18	16	36	716	199.0	-84606.0	-1965.0	-3407.0
28	18	16	36	717	200.0	-88856.0	-1956.0	-3675.0
28	18	16	36	746	201.0	-97207.0	-1931.0	-3919.0
28	18	16	36	747	202.0	-110176.0	-1929.0	-3816.0
28	18	16	36	748	203.0	-127361.0	-1947.0	-3931.0
28	18	16	36	748	204.0	-148144.0	-1957.0	-3363.0
28	18	16	36	749	205.0	-171452.0	-1956.0	-2956.0
28	18	16	36	792	206.0	-195707.0	-1958.0	-3861.0
28	18	16	36	792	207.0	-219602.0	-1976.0	-4648.0
28	18	16	36	793	208.0	-241946.0	-1985.0	-5144.0
28	18	16	36	794	209.0	-261779.0	-1994.0	-5581.0
28	18	16	36	795	210.0	-278526.0	-1994.0	-5474.0
28	18	16	36	795	211.0	-291442.0	-2005.0	-4820.0
28	18	16	36	796	212.0	-300570.0	-2004.0	-3953.0
28	18	16	36	796	213.0	-307013.0	-1979.0	-3543.0
28	18	16	36	797	214.0	-310834.0	-1972.0	-3487.0
28	18	16	36	798	215.0	-312737.0	-1967.0	-3566.0
28	18	16	36	798	216.0	-312526.0	-1970.0	-3436.0
28	18	16	36	799	217.0	-309777.0	-1961.0	-4055.0
28	18	16	36	800	218.0	-304456.0	-1955.0	-4581.0
28	18	16	36	800	219.0	-296391.0	-1981.0	-6503.0
28	18	16	36	801	220.0	-286484.0	-1996.0	-7574.0
28	18	16	36	802	221.0	-274133.0	-2002.0	-7738.0
28	18	16	36	802	239.0	-54815.0	-2228.0	5468.0
28	18	16	36	803	240.0	-70662.0	-2228.0	1852.0
28	18	16	36	803	241.0	-94876.0	-2199.0	-1102.0
28	18	16	36	804	242.0	-126514.0	-2174.0	484.0
28	18	16	36	805	243.0	-163454.0	-2151.0	3317.0
28	18	16	36	805	244.0	-202540.0	-2154.0	4305.0
28	18	16	36	837	245.0	-240307.0	-2132.0	3185.0
28	18	16	36	838	246.0	-274938.0	-2126.0	1518.0
28	18	16	36	839	247.0	-306359.0	-2107.0	-44.0
28	18	16	36	839	248.0	-335739.0	-2097.0	-2228.0
28	18	16	36	840	249.0	-361792.0	-2116.0	-4144.0
28	18	16	36	841	250.0	-384501.0	-2137.0	-5014.0
28	18	16	36	841	251.0	-403016.0	-2164.0	-6093.0
28	18	16	36	842	252.0	-410410.0	-2191.0	-6222.0
28	18	16	36	843	253.0	-396861.0	-2198.0	-5346.0
28	18	16	36	843	254.0	-362617.0	-2209.0	-4422.0
28	18	16	36	844	255.0	-316862.0	-2212.0	-4307.0
28	18	16	36	845	0.0	-274542.0	-2226.0	-4862.0
28	18	16	36	845	1.0	-243561.0	-2256.0	-5202.0
28	18	16	36	846	2.0	-231932.0	-2278.0	-5597.0
28	18	16	36	847	3.0	-234564.0	-2295.0	-5652.0
28	18	16	36	847	5.0	-231332.0	-2317.0	-6618.0
28	18	16	36	848	6.0	-212599.0	-2324.0	-6290.0
28	18	16	36	848	7.0	-190694.0	-2327.0	-6074.0
28	18	16	36	849	8.0	-171641.0	-2312.0	-6019.0
28	18	16	36	850	9.0	-157005.0	-2327.0	-6243.0
28	18	16	36	850	10.0	-145542.0	-2328.0	-6280.0
28	18	16	36	882	11.0	-135719.0	-2327.0	-6700.0
28	18	16	36	883	12.0	-124682.0	-2316.0	-7597.0
28	18	16	36	883	13.0	-111686.0	-2307.0	-8024.0
28	18	16	36	884	14.0	-92126.0	-2317.0	-7919.0
28	18	16	36	885	15.0	-71708.0	-2315.0	-7791.0
28	18	16	36	886	16.0	-56673.0	-2297.0	-6691.0
28	18	16	36	886	17.0	-47946.0	-2276.0	-6048.0
28	18	16	36	887	18.0	-45769.0	-2255.0	-5232.0
28	18	16	36	888	19.0	-47541.0	-2252.0	-4754.0
28	18	16	36	888	20.0	-54775.0	-2242.0	-5374.0
28	18	16	36	889	21.0	-66487.0	-2236.0	-5882.0
28	18	16	36	890	22.0	-79611.0	-2240.0	-6054.0
28	18	16	36	890	23.0	-90813.0	-2259.0	-6185.0
28	18	16	36	891	24.0	-99493.0	-2281.0	-6641.0
28	18	16	36	891	25.0	-106569.0	-2269.0	-6449.0
28	18	16	36	892	27.0	-119468.0	-2282.0	-5944.0
28	18	16	36	893	28.0	-128120.0	-2290.0	-5302.0
28	18	16	36	893	29.0	-139314.0	-2277.0	-5270.0
28	18	16	36	894	30.0	-151530.0	-2257.0	-6142.0
28	18	16	36	895	31.0	-164381.0	-2239.0	-6751.0
28	18	16	36	895	32.0	-178031.0	-2217.0	-6939.0
28	18	16	36	896	33.0	-193076.0	-2206.0	-7612.0
28	18	16	36	927	34.0	-208846.0	-2205.0	-7415.0
28	18	16	36	927	35.0	-225259.0	-2199.0	-6996.0
28	18	16	36	928	36.0	-242180.0	-2201.0	-6513.0
28	18	16	36	929	37.0	-258877.0	-2209.0	-6048.0
28	18	16	36	929	38.0	-274442.0	-2222.0	-6092.0
28	18	16	36	930	39.0	-288485.0	-2224.0	-5751.0
28	18	16	36	931	40.0	-300204.0	-2202.0	-6231.0
28	18	16	36	932	41.0	-310217.0	-2221.0	-6757.0
28	18	16	36	932	42.0	-319342.0	-2219.0	-6723.0
28	18	16	36	933	43.0	-326926.0	-2221.0	-6946.0
28	18	16	36	934	44.0	-331823.0	-2205.0	-7288.0
28	18	16	36	935	45.0	-334312.0	-2194.0	-7696.0
28	18	16	36	935	46.0	-334885.0	-2206.0	-7497.0
28	18	16	36	936	47.0	-333399.0	-2207.0	-7307.0
28	18	16	36	937	48.0	-329857.0	-2205.0	-7291.0
28	18	16	36	937	50.0	-317244.0	-2172.0	-7968.0
28	18	16	36	938	51.0	-308446.0	-2147.0	-8115.0
28	18	16	36	939	52.0	-297555.0	-2114.0	-8173.0
28	18	16	36	939	53.0	-284504.0	-2103.0	-8191.0
28	18	16	36	940	54.0	-269179.0	-2082.0	-8374.0
28	18	16	36	973	55.0	-252558.0	-2062.0	-8824.0
28	18	16	36	973	56.0	-234499.0	-2047.0	-8195.0
28	18	16	36	974	57.0	-216035.0	-2055.0	-7735.0
28	18	16	36	975	58.0	-197197.0	-2067.0	-7785.0
28	18	16	36	976	59.0	-178449.0	-2101.0	-7697.0
28	18	16	36	976	60.0	-160252.0	-2102.0	-7755.0
28	18	16	36	977	61.0	-143332.0	-2107.0	-8180.0
28	18	16	36	978	62.0	-129821.0	-2115.0	-8783.0
28	18	16	36	978	63.0	-120356.0	-2117.0	-8716.0
28	18	16	36	979	64.0	-114692.0	-2132.0	-8854.0
28	18	16	36	980	65.0	-112847.0	-2139.0	-9526.0
28	18	16	36	980	66.0	-113877.0	-2142.0	-9370.0
28	18	16	36	981	67.0	-117070.0	-2155.0	-8899.0
28	18	16	36	982	68.0	-121387.0	-2177.0	-9097.0
28	18	16	37	64	69.0	-126967.0	-2183.0	-9052.0
28	18	16	37	65	70.0	-134232.0	-2189.0	-8519.0
28	18	16	37	66	73.0	-160831.0	-2181.0	-9454.0
28	18	16	37	67	74.0	-169744.0	-2176.0	-9242.0
28	18	16	37	67	75.0	-179129.0	-2161.0	-8966.0
28	18	16	37	68	76.0	-187217.0	-2124.0	-8336.0
28	18	16	37	69	77.0	-194504.0	-2092.0	-8327.0
28	18	16	37	69	78.0	-201066.0	-2038.0	-8817.0
28	18	16	37	70	79.0	-205816.0	-2006.0	-8837.0
28	18	16	37	71	80.0	-209161.0	-1991.0	-9357.0
28	18	16	37	71	81.0	-211761.0	-1982.0	-9503.0
28	18	16	37	72	82.0	-214199.0	-1969.0	-9806.0
28	18	16	37	73	83.0	-216401.0	-1969.0	-10169.0
28	18	16	37	73	84.0	-217353.0	-1959.0	-10141.0
28	18	16	37	74	85.0	-219522.0	-1963.0	-9333.0
28	18	16	37	74	86.0	-221026.0	-1963.0	-8797.0
28	18	16	37	75	117.0	-227497.0	-1386.0	-5001.0
28	18	16	37	76	118.0	-221625.0	-1329.0	-4416.0
28	18	16	37	76	119.0	-216080.0	-1259.0	-4462.0
28	18	16	37	77	120.0	-211556.0	-1209.0	-4884.0
28	18	16	37	77	121.0	-208618.0	-1138.0	-4635.0
28	18	16	37	78	122.0	-207571.0	-1095.0	-4502.0
28	18	16	37	79	123.0	-208333.0	-1031.0	-4281.0
28	18	16	37	106	124.0	-209051.0	-992.0	-3803.0
28	18	16	37	107	125.0	-208381.0	-975.0	-3546.0
28	18	16	37	107	126.0	-205239.0	-931.0	-3507.0
28	18	16	37	108	127.0	-200956.0	-911.0	-3496.0
28	18	16	37	108	128.0	-194331.0	-911.0	-3378.0
28	18	16	37	109	129.0	-183007.0	-896.0	-2885.0
28	18	16	37	109	130.0	-166520.0	-894.0	-2684.0
28	18	16	37	110	131.0	-137017.0	-882.0	-2689.0
28	18	16	37	111	132.0	-100325.0	-844.0	-2684.0
28	18	16	37	111	133.0	-91009.0	-827.0	-2773.0
28	18	16	37	112	134.0	-113219.0	-836.0	-3238.0
28	18	16	37	112	135.0	-145292.0	-831.0	-3579.0
28	18	16	37	113	136.0	-169089.0	-829.0	-4214.0
28	18	16	37	113	137.0	-188207.0	-842.0	-5296.0
28	18	16	37	114	138.0	-200220.0	-845.0	-5719.0
28	18	16	37	115	139.0	-207792.0	-837.0	-4868.0
28	18	16	37	115	140.0	-217943.0	-837.0	-3497.0
28	18	16	37	116	141.0	-230642.0	-827.0	-1940.0
28	18	16	37	116	142.0	-242678.0	-812.0	-423.0
28	18	16	37	117	143.0	-253096.0	-796.0	91.0
28	18	16	37	117	144.0	-263749.0	-756.0	-688.0
28	18	16	37	118	145.0	-274763.0	-745.0	-1326.0
28	18	16	37	197	146.0	-284382.0	-738.0	-1023.0
28	18	16	37	198	147.0	-292229.0	-711.0	-1152.0
28	18	16	37	198	148.0	-298781.0	-691.0	-977.0
28	18	16	37	199	149.0	-301556.0	-716.0	-998.0
28	18	16	37	199	150.0	-302239.0	-718.0	-1687.0
28	18	16	37	200	151.0	-302120.0	-697.0	-2494.0
28	18	16	37	201	152.0	-300512.0	-695.0	-2622.0
28	18	16	37	201	153.0	-297710.0	-696.0	-2946.0
28	18	16	37	202	154.0	-292084.0	-691.0	-3359.0
28	18	16	37	202	155.0	-284007.0	-672.0	-3723.0
28	18	16	37	203	156.0	-274021.0	-652.0	-3641.0
28	18	16	37	203	157.0	-260496.0	-606.0	-3437.0
28	18	16	37	204	158.0	-245156.0	-575.0	-3358.0
28	18	16	37	205	159.0	-229654.0	-541.0	-3152.0
28	18	16	37	205	160.0	-214386.0	-547.0	-3202.0
28	18	16	37	206	162.0	-184902.0	-501.0	-3479.0
28	18	16	37	207	185.0	-180254.0	-249.0	-2127.0
28	18	16	37	208	186.0	-196294.0	-236.0	-2807.0
28	18	16	37	208	187.0	-212958.0	-213.0	-2517.0
28	18	16	37	209	188.0	-230039.0	-222.0	-2619.0
28	18	16	37	209	189.0	-245881.0	-206.0	-3079.0
28	18	16	37	210	190.0	-260512.0	-206.0	-2827.0
28	18	16	37	242	191.0	-273539.0	-179.0	-2497.0
28	18	16	37	242	192.0	-284327.0	-168.0	-2374.0
28	18	16	37	243	193.0	-292320.0	-181.0	-2883.0
28	18	16	37	243	194.0	-297102.0	-186.0	-2988.0
28	18	16	37	244	195.0	-298294.0	-216.0	-2997.0
28	18	16	37	245	196.0	-297371.0	-244.0	-2874.0
28	18	16	37	245	197.0	-294118.0	-248.0	-2304.0
28	18	16	37	246	198.0	-289076.0	-250.0	-2632.0
28	18	16	37	246	199.0	-282336.0	-226.0	-2557.0
28	18	16	37	247	200.0	-274572.0	-217.0	-2539.0
28	18	16	37	248	201.0	-265743.0	-232.0	-2834.0
28	18	16	37	248	202.0	-256827.0	-229.0	-3170.0
28	18	16	37	249	203.0	-247148.0	-229.0	-3284.0
28	18	16	37	249	204.0	-236719.0	-232.0	-3462.0
28	18	16	37	250	205.0	-225715.0	-222.0	-3458.0
28	18	16	37	250	207.0	-201780.0	-227.0	-3233.0
28	18	16	37	251	208.0	-189034.0	-228.0	-2873.0
28	18	16	37	252	209.0	-176689.0	-205.0	-2324.0
28	18	16	37	252	210.0	-164912.0	-202.0	-2501.0
28	18	16	37	253	211.0	-154004.0	-198.0	-2498.0
28	18	16	37	253	212.0	-144649.0	-211.0	-2439.0
28	18	16	37	286	213.0	-137129.0	-211.0	-2614.0
28	18	16	37	287	214.0	-131941.0	-204.0	-3306.0
28	18	16	37	288	215.0	-128271.0	-210.0	-3441.0
28	18	16	37	288	216.0	-126831.0	-249.0	-3080.0
28	18	16	37	289	217.0	-128704.0	-278.0	-2861.0
28	18	16	37	289	218.0	-133272.0	-302.0	-2403.0
28	18	16	37	290	219.0	-139993.0	-325.0	-1954.0
28	18	16	37	291	220.0	-149276.0	-344.0	-2359.0
28	18	16	37	291	221.0	-159710.0	-340.0	-2571.0
28	18	16	37	292	222.0	-170376.0	-344.0	-2995.0
28	18	16	37	292	223.0	-180779.0	-374.0	-3569.0
28	18	16	37	293	224.0	-191057.0	-379.0	-4295.0
28	18	16	37	294	225.0	-200822.0	-394.0	-4101.0
28	18	16	37	294	226.0	-209255.0	-397.0	-3297.0
28	18	16	37	295	227.0	-217050.0	-412.0	-2310.0
28	18	16	37	295	229.0	-231463.0	-429.0	-2226.0
28	18	16	37	296	230.0	-236585.0	-438.0	-2426.0
28	18	16	37	296	231.0	-241127.0	-428.0	-2111.0
28	18	16	37	297	232.0	-244729.0	-401.0	-1628.0
28	18	16	37	298	233.0	-246871.0	-388.0	-1377.0
28	18	16	37	298	234.0	-248035.0	-384.0	-1570.0
28	18	16	37	299	235.0	-247892.0	-376.0	-1921.0
28	18	16	37	332	236.0	-246027.0	-364.0	-1859.0
28	18	16	37	333	237.0	-242824.0	-347.0	-1367.0
28	18	16	37	333	238.0	-237279.0	-374.0	-1309.0
28	18	16	37	334	239.0	-230052.0	-397.0	-1634.0
28	18	16	37	335	240.0	-221025.0	-423.0	-1897.0
28	18	16	37	335	241.0	-209237.0	-449.0	-1998.0
28	18	16	37	336	242.0	-195394.0	-447.0	-2445.0
28	18	16	37	337	243.0	-178852.0	-447.0	-2445.0
28	18	16	37	337	244.0	-161064.0	-459.0	-1625.0
28	18	16	37	338	245.0	-142080.0	-477.0	-1299.0
28	18	16	37	338	246.0	-123376.0	-476.0	-1571.0
28	18	16	37	339	247.0	-105335.0	-469.0	-1163.0
28	18	16	37	340	248.0	-87981.0	-462.0	-1054.0
28	18	16	37	340	249.0	-72600.0	-448.0	-929.0
28	18	16	37	341	250.0	-60211.0	-443.0	-1103.0
28	18	16	37	341	252.0	-46339.0	-429.0	-2172.0
28	18	16	37	342	253.0	-46799.0	-401.0	-1722.0
28	18	16	37	343	254.0	-52033.0	-364.0	-1639.0
28	18	16	37	343	255.0	-62244.0	-339.0	-1896.0
28	18	16	37	344	0.0	-76739.0	-319.0	-1785.0
28	18	16	37	344	1.0	-94641.0	-299.0	-1098.0
28	18	16	37	376	2.0	-116745.0	-271.0	-814.0
28	18	16	37	377	3.0	-139147.0	-271.0	-961.0
28	18	16	37	377	4.0	-164247.0	-260.0	-741.0
28	18	16	37	378	5.0	-188292.0	-251.0	-552.0
28	18	16	37	379	6.0	-211785.0	-248.0	-946.0
28	18	16	37	379	7.0	-234616.0	-256.0	-677.0
28	18	16	37	380	8.0	-255504.0	-277.0	-239.0
28	18	16	37	380	9.0	-276568.0	-304.0	-176.0
28	18	16	37	381	10.0	-298247.0	-323.0	8.0
28	18	16	37	382	11.0	-319774.0	-336.0	834.0
28	18	16	37	382	12.0	-340715.0	-355.0	946.0
28	18	16	37	383	13.0	-360754.0	-373.0	921.0
28	18	16	37	384	14.0	-379496.0	-374.0	1031.0
28	18	16	37	384	15.0	-396515.0	-403.0	847.0
28	18	16	37	385	16.0	-411444.0	-418.0	849.0
28	18	16	37	385	18.0	-432284.0	-432.0	428.0
28	18	16	37	386	19.0	-437097.0	-448.0	94.0
28	18	16	37	387	20.0	-437955.0	-447.0	-171.0
28	18	16	37	387	21.0	-433660.0	-451.0	107.0
28	18	16	37	388	22.0	-423832.0	-451.0	673.0
28	18	16	37	389	23.0	-408241.0	-472.0	650.0
28	18	16	37	389	24.0	-387477.0	-500.0	489.0
28	18	16	37	421	25.0	-361136.0	-510.0	647.0
28	18	16	37	422	26.0	-329825.0	-512.0	655.0
28	18	16	37	423	27.0	-294327.0	-547.0	774.0
28	18	16	37	423	28.0	-255899.0	-582.0	841.0
28	18	16	37	424	29.0	-215210.0	-599.0	1433.0
28	18	16	37	425	30.0	-173621.0	-617.0	1938.0
28	18	16	37	425	31.0	-131807.0	-636.0	2558.0
28	18	16	37	426	32.0	-90794.0	-648.0	3494.0
28	18	16	37	426	33.0	-51764.0	-661.0	3644.0
28	18	16	37	427	34.0	-15999.0	-649.0	3286.0
28	18	16	37	428	35.0	16008.0	-617.0	3536.0
28	18	16	37	428	36.0	42916.0	-616.0	3972.0
28	18	16	37	429	37.0	64298.0	-620.0	3874.0
28	18	16	37	429	38.0	79823.0	-633.0	4306.0
28	18	16	37	430	39.0	87695.0	-624.0	5485.0
28	18	16	37	431	41.0	79996.0	-674.0	4922.0
28	18	16	37	431	42.0	66330.0	-679.0	5748.0
28	18	16	37	432	43.0	47541.0	-703.0	5743.0
28	18	16	37	432	44.0	25038.0	-698.0	5774.0
28	18	16	37	433	45.0	-715.0	-686.0	5887.0
28	18	16	37	433	46.0	-28369.0	-693.0	5786.0
28	18	16	37	466	47.0	-57316.0	-671.0	5686.0
28	18	16	37	512	48.0	-87712.0	-681.0	5806.0
28	18	16	37	513	49.0	-119052.0	-694.0	5952.0
28	18	16	37	514	50.0	-151292.0	-716.0	6114.0
28	18	16	37	514	51.0	-183747.0	-720.0	6754.0
28	18	16	37	515	52.0	-215175.0	-737.0	7382.0
28	18	16	37	516	53.0	-245634.0	-735.0	7263.0
28	18	16	37	516	54.0	-273994.0	-764.0	7041.0
28	18	16	37	517	55.0	-299114.0	-752.0	7351.0
28	18	16	37	519	56.0	-320696.0	-759.0	7800.0
28	18	16	37	519	57.0	-338990.0	-767.0	8184.0
28	18	16	37	520	58.0	-352993.0	-771.0	8144.0
28	18	16	37	521	59.0	-362254.0	-801.0	8329.0
28	18	16	37	521	60.0	-365930.0	-802.0	8673.0
28	18	16	37	522	61.0	-363878.0	-821.0	9063.0
28	18	16	37	522	63.0	-345377.0	-839.0	9354.0
28	18	16	37	523	85.0	-196081.0	-1208.0	1469.0
28	18	16	37	523	86.0	-205151.0	-1214.0	1087.0
28	18	16	37	524	87.0	-215081.0	-1208.0	870.0
28	18	16	37	525	88.0	-225342.0	-1222.0	70.0
28	18	16	37	557	89.0	-235522.0	-1236.0	-273.0
28	18	16	37	557	90.0	-244889.0	-1214.0	-733.0
28	18	16	37	558	91.0	-252926.0	-1201.0	-400.0
28	18	16	37	559	92.0	-258802.0	-1168.0	1022.0
28	18	16	37	559	93.0	-262144.0	-1165.0	1559.0
28	18	16	37	560	94.0	-263230.0	-1175.0	854.0
28	18	16	37	561	95.0	-262039.0	-1206.0	881.0
28	18	16	37	561	96.0	-259228.0	-1226.0	1865.0
28	18	16	37	562	97.0	-253479.0	-1247.0	1602.0
28	18	16	37	562	98.0	-244201.0	-1271.0	2315.0
28	18	16	37	563	99.0	-231457.0	-1306.0	6419.0
28	18	16	37	564	100.0	-214957.0	-1331.0	10940.0
28	18	16	37	564	101.0	-195582.0	-1356.0	16629.0
28	18	16	37	565	102.0	-173154.0	-1400.0	19636.0
28	18	16	37	565	103.0	-147693.0	-1435.0	18508.0
28	18	16	37	566	104.0	-119961.0	-1466.0	15368.0
28	18	16	37	567	108.0	-12769.0	-1585.0	4456.0
28	18	16	37	567	109.0	1549.0	-1596.0	2734.0
28	18	16	37	568	110.0	6532.0	-1604.0	5663.0
28	18	16	37	568	111.0	2811.0	-1592.0	10462.0
28	18	16	37	569	112.0	-8210.0	-1587.0	12252.0
28	18	16	37	569	113.0	-25259.0	-1580.0	11766.0
28	18	16	37	570	114.0	-46842.0	-1573.0	9531.0
28	18	16	37	601	115.0	-71516.0	-1573.0	7768.0
28	18	16	37	602	116.0	-98449.0	-1551.0	5724.0
28	18	16	37	603	117.0	-127372.0	-1531.0	4469.0
28	18	16	37	604	118.0	-158649.0	-1547.0	3701.0
28	18	16	37	604	119.0	-190700.0	-1547.0	3266.0
28	18	16	37	605	120.0	-221064.0	-1589.0	2628.0
28	18	16	37	606	121.0	-245269.0	-1586.0	2837.0
28	18	16	37	606	122.0	-256262.0	-1582.0	2324.0
28	18	16	37	607	123.0	-256039.0	-1590.0	1564.0
28	18	16	37	607	124.0	-250899.0	-1621.0	1459.0
28	18	16	37	608	125.0	-243622.0	-1621.0	1316.0
28	18	16	37	608	126.0	-242846.0	-1622.0	1146.0
28	18	16	37	647	127.0	-253156.0	-1655.0	1050.0
28	18	16	37	659	128.0	-275895.0	-1678.0	909.0
28	18	16	37	659	129.0	-304749.0	-1692.0	1161.0
28	18	16	37	660	130.0	-330341.0	-1721.0	1303.0
28	18	16	37	660	131.0	-347405.0	-1745.0	1932.0
28	18	16	37	661	132.0	-358418.0	-1754.0	2384.0
28	18	16	37	662	133.0	-365856.0	-1757.0	2092.0
28	18	16	37	662	134.0	-369500.0	-1775.0	1701.0
28	18	16	37	663	135.0	-367127.0	-1776.0	1077.0
28	18	16	37	663	136.0	-353516.0	-1810.0	1277.0
28	18	16	37	664	137.0	-334564.0	-1851.0	1694.0
28	18	16	37	665	138.0	-318139.0	-1881.0	1636.0
28	18	16	37	665	139.0	-306644.0	-1906.0	1683.0
28	18	16	37	666	140.0	-297137.0	-1940.0	1956.0
28	18	16	37	666	141.0	-290357.0	-1949.0	1907.0
28	18	16	37	667	142.0	-288779.0	-1988.0	1824.0
28	18	16	37	667	153.0	-164319.0	-2221.0	4011.0
28	18	16	37	668	154.0	-158431.0	-2226.0	4014.0
28	18	16	37	668	155.0	-157022.0	-2241.0	4463.0
28	18	16	37	669	156.0	-158096.0	-2237.0	5186.0
28	18	16	37	670	157.0	-160176.0	-2231.0	5501.0
28	18	16	37	670	158.0	-163111.0	-2223.0	5621.0
28	18	16	37	671	159.0	-166021.0	-2229.0	5913.0
28	18	16	37	691	160.0	-168998.0	-2212.0	5793.0
28	18	16	37	692	161.0	-171272.0	-2207.0	5589.0
28	18	16	37	692	162.0	-172066.0	-2208.0	5588.0
28	18	16	37	693	163.0	-171929.0	-2253.0	4901.0
28	18	16	37	694	164.0	-170538.0	-2275.0	3964.0
28	18	16	37	694	165.0	-168436.0	-2292.0	3246.0
28	18	16	37	695	166.0	-165947.0	-2317.0	3381.0
28	18	16	37	696	167.0	-162684.0	-2317.0	3345.0
28	18	16	37	696	168.0	-160347.0	-2327.0	3306.0
28	18	16	37	697	169.0	-159533.0	-2320.0	3502.0
28	18	16	37	698	170.0	-159614.0	-2292.0	3628.0
28	18	16	37	698	171.0	-160981.0	-2276.0	3503.0
28	18	16	37	699	172.0	-163107.0	-2272.0	3284.0
28	18	16	37	700	173.0	-164127.0	-2252.0	3363.0
28	18	16	37	700	174.0	-164021.0	-2219.0	2806.0
28	18	16	37	701	175.0	-163389.0	-2216.0	2478.0
28	18	16	37	702	176.0	-162004.0	-2217.0	2306.0
28	18	16	37	702	177.0	-160939.0	-2191.0	1780.0
28	18	16	37	703	178.0	-161899.0	-2137.0	1757.0
28	18	16	37	703	179.0	-165057.0	-2104.0	1692.0
28	18	16	37	704	180.0	-170852.0	-2094.0	1817.0
28	18	16	37	705	181.0	-179697.0	-2049.0	2018.0
28	18	16	37	735	182.0	-190499.0	-2049.0	1610.0
28	18	16	37	736	183.0	-202876.0	-2022.0	1301.0
28	18	16	37	737	184.0	-216951.0	-1996.0	1311.0
28	18	16	37	738	185.0	-231537.0	-1979.0	479.0
28	18	16	37	738	186.0	-245849.0	-1969.0	346.0
28	18	16	37	739	187.0	-258990.0	-1965.0	539.0
28	18	16	37	740	188.0	-270287.0	-1969.0	565.0
28	18	16	37	740	189.0	-278777.0	-1954.0	651.0
28	18	16	37	741	190.0	-283816.0	-1955.0	1261.0
28	18	16	37	741	191.0	-285647.0	-1965.0	1998.0
28	18	16	37	742	192.0	-284381.0	-1990.0	1705.0
28	18	16	37	743	193.0	-280884.0	-1993.0	1069.0
28	18	16	37	743	194.0	-275497.0	-2006.0	1098.0
28	18	16	37	744	195.0	-268366.0	-2004.0	627.0
28	18	16	37	745	196.0	-259581.0	-2018.0	-93.0
28	18	16	37	745	198.0	-242293.0	-2035.0	-141.0
28	18	16	37	746	199.0	-233211.0	-2033.0	-261.0
28	18	16	37	747	200.0	-224632.0	-2041.0	178.0
28	18	16	37	747	201.0	-216401.0	-2062.0	666.0
28	18	16	37	748	202.0	-208262.0	-2042.0	859.0
28	18	16	37	748	203.0	-200709.0	-2029.0	769.0
28	18	16	37	781	204.0	-193272.0	-2008.0	-172.0
28	18	16	37	782	205.0	-186143.0	-2010.0	-739.0
28	18	16	37	782	206.0	-179738.0	-2031.0	-111.0
28	18	16	37	783	207.0	-173694.0	-2043.0	541.0
28	18	16	37	784	208.0	-168160.0	-2059.0	802.0
28	18	16	37	784	209.0	-162877.0	-2078.0	1400.0
28	18	16	37	785	210.0	-156892.0	-2094.0	1851.0
28	18	16	37	786	211.0	-150596.0	-2109.0	1804.0
28	18	16	37	786	212.0	-144135.0	-2097.0	1593.0
28	18	16	37	787	213.0	-138557.0	-2081.0	1067.0
28	18	16	37	788	214.0	-134245.0	-2088.0	853.0
28	18	16	37	788	215.0	-131126.0	-2068.0	774.0
28	18	16	37	789	216.0	-128665.0	-2072.0	901.0
28	18	16	37	789	217.0	-127469.0	-2072.0	884.0
28	18	16	37	790	218.0	-127819.0	-2061.0	972.0
28	18	16	37	791	220.0	-130053.0	-2070.0	1614.0
28	18	16	37	791	221.0	-131433.0	-2070.0	1749.0
28	18	16	37	792	222.0	-132369.0	-2061.0	2090.0
28	18	16	37	793	223.0	-133007.0	-2060.0	1544.0
28	18	16	37	793	224.0	-133571.0	-2056.0	1088.0
28	18	16	37	794	225.0	-133860.0	-2033.0	1101.0
28	18	16	37	794	226.0	-133787.0	-2006.0	1165.0
28	18	16	37	826	227.0	-133607.0	-2011.0	876.0
28	18	16	37	827	228.0	-132959.0	-1989.0	1094.0
28	18	16	37	828	229.0	-131987.0	-1977.0	1586.0
28	18	16	37	828	230.0	-130534.0	-1982.0	1811.0
28	18	16	37	829	231.0	-128762.0	-1971.0	2101.0
28	18	16	37	830	232.0	-127384.0	-1946.0	2445.0
28	18	16	37	830	233.0	-126176.0	-1909.0	2527.0
28	18	16	37	831	234.0	-126407.0	-1874.0	1845.0
28	18	16	37	832	235.0	-128141.0	-1852.0	1749.0
28	18	16	37	832	236.0	-131559.0	-1835.0	2138.0
28	18	16	37	833	237.0	-136542.0	-1813.0	2137.0
28	18	16	37	834	238.0	-142459.0	-1799.0	2808.0
28	18	16	37	834	239.0	-149472.0	-1782.0	3564.0
28	18	16	37	835	240.0	-158560.0	-1762.0	3776.0
28	18	16	37	836	241.0	-169445.0	-1756.0	4082.0
28	18	16	37	836	243.0	-195496.0	-1784.0	4226.0
28	18	16	37	837	244.0	-209901.0	-1779.0	3891.0
28	18	16	37	837	245.0	-223296.0	-1764.0	3934.0
28	18	16	37	838	246.0	-234589.0	-1736.0	4014.0
28	18	16	37	839	247.0	-242809.0	-1742.0	4370.0
28	18	16	37	839	248.0	-246086.0	-1698.0	4208.0
28	18	16	37	871	249.0	-245073.0	-1667.0	4143.0
28	18	16	37	872	250.0	-239283.0	-1626.0	4779.0
28	18	16	37	873	251.0	-227514.0	-1584.0	4907.0
28	18	16	37	873	252.0	-208201.0	-1566.0	4958.0
28	18	16	37	874	253.0	-175589.0	-1536.0	4998.0
28	18	16	37	875	254.0	-124949.0	-1530.0	4973.0
28	18	16	37	875	255.0	-86862.0	-1502.0	4697.0
28	18	16	37	876	0.0	-83120.0	-1489.0	4346.0
28	18	16	37	877	1.0	-105167.0	-1472.0	4434.0
28	18	16	37	877	2.0	-131928.0	-1447.0	4294.0
28	18	16	37	878	3.0	-152197.0	-1448.0	4299.0
28	18	16	37	879	4.0	-166799.0	-1443.0	4809.0
28	18	16	37	879	5.0	-174046.0	-1414.0	4723.0
28	18	16	37	880	6.0	-181798.0	-1400.0	4660.0
28	18	16	37	881	7.0	-193174.0	-1400.0	4441.0
28	18	16	37	881	9.0	-215689.0	-1379.0	3930.0
28	18	16	37	882	10.0	-224444.0	-1369.0	3919.0
28	18	16	37	883	11.0	-232972.0	-1322.0	4086.0
28	18	16	37	883	12.0	-241854.0	-1294.0	3832.0
28	18	16	37	884	13.0	-251459.0	-1267.0	3573.0
28	18	16	37	884	14.0	-261238.0	-1268.0	4096.0
28	18	16	37	885	15.0	-269596.0	-1236.0	4311.0
28	18	16	37	917	16.0	-275607.0	-1206.0	3959.0
28	18	16	37	918	17.0	-279162.0	-1180.0	4076.0
28	18	16	37	919	18.0	-281247.0	-1174.0	4149.0
28	18	16	37	919	19.0	-281324.0	-1167.0	3583.0
28	18	16	37	920	20.0	-279765.0	-1169.0	3334.0
28	18	16	37	921	21.0	-276993.0	-1152.0	3341.0
28	18	16	37	921	22.0	-272906.0	-1141.0	3294.0
28	18	16	37	922	23.0	-267645.0	-1122.0	3439.0
28	18	16	37	923	24.0	-260866.0	-1116.0	3989.0
28	18	16	37	923	25.0	-252372.0	-1108.0	4347.0
28	18	16	37	924	26.0	-243544.0	-1103.0	4345.0
28	18	16	37	924	27.0	-235821.0	-1071.0	3470.0
28	18	16	37	963	28.0	-229901.0	-1085.0	2883.0
28	18	16	38	7	29.0	-224751.0	-1097.0	2545.0
28	18	16	38	8	30.0	-220627.0	-1084.0	2549.0
28	18	16	38	9	31.0	-218701.0	-1076.0	2900.0
28	18	16	38	9	32.0	-219069.0	-1077.0	3539.0
28	18	16	38	10	33.0	-222141.0	-1061.0	4333.0
28	18	16	38	11	34.0	-227434.0	-1044.0	4651.0
28	18	16	38	12	35.0	-234422.0	-1023.0	4274.0
28	18	16	38	12	36.0	-241876.0	-998.0	4258.0
28	18	16	38	13	37.0	-249181.0	-1009.0	3873.0
28	18	16	38	13	38.0	-256157.0	-1031.0	3645.0
28	18	16	38	14	39.0	-261341.0	-1052.0	3393.0
28	18	16	38	15	40.0	-263696.0	-1055.0	3242.0
28	18	16	38	15	41.0	-262919.0	-1059.0	3167.0
28	18	16	38	16	42.0	-258847.0	-1054.0	3387.0
28	18	16	38	17	43.0	-252338.0	-1059.0	3559.0
28	18	16	38	17	55.0	-89956.0	-1124.0	3968.0
28	18	16	38	18	77.0	-291077.0	-1552.0	4179.0
28	18	16	38	19	78.0	-305698.0	-1584.0	3849.0
28	18	16	38	19	79.0	-319375.0	-1562.0	3229.0
28	18	16	38	20	80.0	-332131.0	-1566.0	3556.0
28	18	16	38	21	81.0	-342641.0	-1580.0	3749.0
28	18	16	38	21	82.0	-350870.0	-1616.0	3987.0
28	18	16	38	51	83.0	-356674.0	-1627.0	4225.0
28	18	16	38	97	84.0	-358844.0	-1652.0	4353.0
28	18	16	38	98	85.0	-358596.0	-1694.0	3968.0
28	18	16	38	98	86.0	-356117.0	-1742.0	3780.0
28	18	16	38	99	87.0	-351048.0	-1804.0	4009.0
28	18	16	38	100	88.0	-344370.0	-1840.0	3469.0
28	18	16	38	101	89.0	-335774.0	-1878.0	3311.0
28	18	16	38	101	90.0	-325109.0	-1896.0	3783.0
28	18	16	38	102	91.0	-312217.0	-1931.0	3768.0
28	18	16	38	103	92.0	-297641.0	-1967.0	3954.0
28	18	16	38	103	93.0	-282817.0	-2007.0	4254.0
28	18	16	38	104	94.0	-267531.0	-2024.0	4983.0
28	18	16	38	105	95.0	-252551.0	-2004.0	5084.0
28	18	16	38	105	96.0	-237499.0	-2010.0	5344.0
28	18	16	38	106	97.0	-222397.0	-2039.0	5446.0
28	18	16	38	107	99.0	-193382.0	-2040.0	6139.0
28	18	16	38	107	100.0	-180072.0	-2042.0	6558.0
28	18	16	38	108	122.0	-143879.0	-1917.0	8883.0
28	18	16	38	109	123.0	-153103.0	-1899.0	9208.0
28	18	16	38	109	124.0	-162119.0	-1890.0	9722.0
28	18	16	38	110	125.0	-170191.0	-1860.0	9950.0
28	18	16	38	111	126.0	-177407.0	-1825.0	9270.0
28	18	16	38	111	127.0	-183969.0	-1807.0	8788.0
28	18	16	38	142	128.0	-190672.0	-1791.0	8910.0
28	18	16	38	143	129.0	-197989.0	-1762.0	8508.0
28	18	16	38	143	130.0	-205397.0	-1761.0	8290.0
28	18	16	38	144	131.0	-212295.0	-1767.0	8341.0
28	18	16	38	145	132.0	-218287.0	-1782.0	9048.0
28	18	16	38	146	133.0	-223986.0	-1784.0	9041.0
28	18	16	38	146	134.0	-229041.0	-1788.0	9077.0
28	18	16	38	147	135.0	-233610.0	-1776.0	9196.0
28	18	16	38	148	136.0	-238552.0	-1743.0	9458.0
28	18	16	38	149	137.0	-244204.0	-1740.0	9064.0
28	18	16	38	149	138.0	-250165.0	-1737.0	8933.0
28	18	16	38	150	139.0	-256692.0	-1731.0	8799.0
28	18	16	38	151	140.0	-262770.0	-1737.0	9096.0
28	18	16	38	151	141.0	-267806.0	-1750.0	9759.0
28	18	16	38	152	142.0	-270949.0	-1769.0	10591.0
28	18	16	38	153	144.0	-271026.0	-1796.0	10286.0
28	18	16	38	153	145.0	-270236.0	-1789.0	10196.0
28	18	16	38	154	146.0	-269724.0	-1780.0	9734.0
28	18	16	38	155	147.0	-270197.0	-1770.0	9682.0
28	18	16	38	155	148.0	-271431.0	-1782.0	9639.0
28	18	16	38	156	149.0	-272947.0	-1766.0	9596.0
28	18	16	38	186	150.0	-273782.0	-1747.0	9940.0
28	18	16	38	187	151.0	-272959.0	-1751.0	9704.0
28	18	16	38	188	152.0	-270097.0	-1755.0	9458.0
28	18	16	38	189	153.0	-264232.0	-1784.0	9811.0
28	18	16	38	189	154.0	-255941.0	-1822.0	9952.0
28	18	16	38	190	155.0	-245349.0	-1839.0	9309.0
28	18	16	38	191	156.0	-233228.0	-1852.0	8816.0
28	18	16	38	192	157.0	-220522.0	-1846.0	8530.0
28	18	16	38	192	158.0	-208626.0	-1872.0	8339.0
28	18	16	38	193	159.0	-197181.0	-1901.0	8323.0
28	18	16	38	194	160.0	-185541.0	-1912.0	8651.0
28	18	16	38	194	161.0	-173254.0	-1945.0	9128.0
28	18	16	38	195	162.0	-160739.0	-1961.0	8943.0
28	18	16	38	195	163.0	-147910.0	-1962.0	9164.0
28	18	16	38	196	164.0	-134597.0	-1958.0	9261.0
28	18	16	38	231	166.0	-107532.0	-1957.0	9426.0
28	18	16	38	232	167.0	-95347.0	-1966.0	9372.0
28	18	16	38	233	168.0	-84842.0	-1977.0	8988.0
28	18	16	38	234	169.0	-76889.0	-1973.0	9050.0
28	18	16	38	234	170.0	-71344.0	-1969.0	9079.0
28	18	16	38	235	171.0	-67970.0	-1991.0	8804.0
28	18	16	38	236	172.0	-66417.0	-1986.0	8688.0
28	18	16	38	236	173.0	-66416.0	-1981.0	8761.0
28	18	16	38	237	174.0	-68901.0	-1996.0	9318.0
28	18	16	38	238	175.0	-74814.0	-1979.0	9314.0
28	18	16	38	238	176.0	-84304.0	-1980.0	9659.0
28	18	16	38	239	177.0	-97117.0	-1976.0	9771.0
28	18	16	38	240	178.0	-112014.0	-1974.0	9218.0
28	18	16	38	275	179.0	-128479.0	-1992.0	8550.0
28	18	16	38	276	180.0	-146900.0	-1985.0	8426.0
28	18	16	38	277	181.0	-166804.0	-1988.0	8558.0
28	18	16	38	278	189.0	-310680.0	-2027.0	9538.0
28	18	16	38	279	190.0	-318843.0	-2031.0	9123.0
28	18	16	38	279	191.0	-323470.0	-2028.0	9111.0
28	18	16	38	280	192.0	-324943.0	-2024.0	9439.0
28	18	16	38	281	193.0	-323934.0	-2026.0	9213.0
28	18	16	38	282	194.0	-320829.0	-2024.0	9654.0
28	18	16	38	283	195.0	-314786.0	-2047.0	9853.0
28	18	16	38	283	196.0	-306255.0	-2074.0	9274.0
28	18	16	38	284	197.0	-295354.0	-2092.0	8988.0
28	18	16	38	285	198.0	-281900.0	-2111.0	8494.0
28	18	16	38	285	199.0	-265827.0	-2141.0	7772.0
28	18	16	38	286	200.0	-247451.0	-2177.0	7566.0
28	18	16	38	287	201.0	-227597.0	-2182.0	8191.0
28	18	16	38	287	211.0	-70082.0	-2240.0	8473.0
28	18	16	38	288	212.0	-71262.0	-2247.0	9297.0
28	18	16	38	289	213.0	-75955.0	-2241.0	10123.0
28	18	16	38	289	214.0	-83536.0	-2238.0	10458.0
28	18	16	38	290	215.0	-92001.0	-2243.0	12671.0
28	18	16	38	291	216.0	-101970.0	-2242.0	17508.0
28	18	16	38	291	217.0	-112941.0	-2248.0	22121.0
28	18	16	38	321	218.0	-124779.0	-2245.0	27163.0
28	18	16	38	322	219.0	-135536.0	-2257.0	28232.0
28	18	16	38	323	220.0	-144986.0	-2254.0	26968.0
28	18	16	38	324	221.0	-152436.0	-2289.0	24611.0
28	18	16	38	324	222.0	-158581.0	-2309.0	20970.0
28	18	16	38	325	223.0	-163846.0	-2315.0	19737.0
28	18	16	38	326	224.0	-169159.0	-2335.0	18791.0
28	18	16	38	327	225.0	-176311.0	-2351.0	14934.0
28	18	16	38	327	226.0	-187254.0	-2365.0	12163.0
28	18	16	38	328	227.0	-202823.0	-2377.0	13863.0
28	18	16	38	329	228.0	-222592.0	-2370.0	17344.0
28	18	16	38	329	229.0	-244710.0	-2392.0	18319.0
28	18	16	38	330	230.0	-267174.0	-2396.0	17598.0
28	18	16	38	331	231.0	-288314.0	-2404.0	14768.0
28	18	16	38	331	232.0	-306599.0	-2420.0	13298.0
28	18	16	38	332	233.0	-321407.0	-2414.0	12908.0
28	18	16	38	333	234.0	-332256.0	-2419.0	12641.0
28	18	16	38	333	235.0	-338916.0	-2426.0	12508.0
28	18	16	38	334	236.0	-339414.0	-2419.0	11846.0
28	18	16	38	335	237.0	-331458.0	-2438.0	10344.0
28	18	16	38	335	238.0	-309534.0	-2466.0	9156.0
28	18	16	38	336	239.0	-270675.0	-2469.0	8334.0
28	18	16	38	367	240.0	-222171.0	-2466.0	8096.0
28	18	16	38	368	241.0	-176762.0	-2487.0	7443.0
28	18	16	38	368	242.0	-143169.0	-2517.0	6824.0
28	18	16	38	369	243.0	-130419.0	-2550.0	6273.0
28	18	16	38	370	244.0	-137674.0	-2576.0	6339.0
28	18	16	38	371	245.0	-154771.0	-2591.0	6844.0
28	18	16	38	371	246.0	-170556.0	-2613.0	7758.0
28	18	16	38	372	247.0	-178411.0	-2634.0	8161.0
28	18	16	38	373	248.0	-183858.0	-2676.0	8652.0
28	18	16	38	373	249.0	-192277.0	-2689.0	8503.0
28	18	16	38	374	250.0	-203104.0	-2721.0	8127.0
28	18	16	38	375	251.0	-215261.0	-2764.0	7140.0
28	18	16	38	375	252.0	-224704.0	-2787.0	7744.0
28	18	16	38	376	253.0	-226454.0	-2809.0	8050.0
28	18	16	38	377	254.0	-222784.0	-2822.0	8124.0
28	18	16	38	377	0.0	-205262.0	-2861.0	8291.0
28	18	16	38	378	1.0	-202702.0	-2869.0	8222.0
28	18	16	38	379	2.0	-207953.0	-2879.0	8099.0
28	18	16	38	379	3.0	-219042.0	-2874.0	7434.0
28	18	16	38	380	4.0	-231926.0	-2887.0	7328.0
28	18	16	38	381	5.0	-242814.0	-2889.0	7403.0
28	18	16	38	381	6.0	-250786.0	-2896.0	7345.0
28	18	16	38	412	7.0	-256261.0	-2899.0	7455.0
28	18	16	38	413	8.0	-257145.0	-2866.0	8358.0
28	18	16	38	414	9.0	-252352.0	-2868.0	8565.0
28	18	16	38	458	10.0	-243374.0	-2886.0	8520.0
28	18	16	38	459	11.0	-232761.0	-2920.0	8054.0
28	18	16	38	459	12.0	-224337.0	-2937.0	7909.0
28	18	16	38	460	13.0	-220069.0	-2935.0	7109.0
28	18	16	38	461	14.0	-220235.0	-2953.0	6908.0
28	18	16	38	462	15.0	-224547.0	-2940.0	6764.0
28	18	16	38	463	16.0	-232066.0	-2932.0	6498.0
28	18	16	38	463	17.0	-241174.0	-2921.0	6651.0
28	18	16	38	464	18.0	-251066.0	-2921.0	7286.0
28	18	16	38	465	19.0	-261669.0	-2935.0	6851.0
28	18	16	38	465	20.0	-271537.0	-2934.0	6272.0
28	18	16	38	466	21.0	-277911.0	-2934.0	5573.0
28	18	16	38	467	22.0	-281554.0	-2917.0	5144.0
28	18	16	38	468	23.0	-281574.0	-2909.0	4578.0
28	18	16	38	468	24.0	-277618.0	-2889.0	4386.0
28	18	16	38	469	25.0	-269082.0	-2893.0	4271.0
28	18	16	38	469	45.0	-104204.0	-2974.0	3262.0
28	18	16	38	470	46.0	-109832.0	-2968.0	3540.0
28	18	16	38	471	47.0	-116668.0	-2939.0	3196.0
28	18	16	38	471	48.0	-125606.0	-2937.0	3238.0
28	18	16	38	472	49.0	-136914.0	-2952.0	3395.0
28	18	16	38	472	50.0	-151442.0	-2935.0	2831.0
28	18	16	38	501	51.0	-168921.0	-2907.0	1958.0
28	18	16	38	502	52.0	-189887.0	-2892.0	1405.0
28	18	16	38	503	53.0	-212752.0	-2899.0	1366.0
28	18	16	38	504	54.0	-237252.0	-2923.0	1288.0
28	18	16	38	504	55.0	-261749.0	-2921.0	1646.0
28	18	16	38	505	56.0	-285033.0	-2921.0	2871.0
28	18	16	38	506	57.0	-306147.0	-2935.0	3783.0
28	18	16	38	507	58.0	-324239.0	-2947.0	3906.0
28	18	16	38	507	59.0	-338966.0	-2971.0	3794.0
28	18	16	38	508	60.0	-349673.0	-2966.0	3461.0
28	18	16	38	509	61.0	-357244.0	-2969.0	3670.0
28	18	16	38	509	62.0	-362259.0	-2952.0	3302.0
28	18	16	38	510	63.0	-364017.0	-2952.0	2835.0
28	18	16	38	511	64.0	-362572.0	-2972.0	2386.0
28	18	16	38	511	65.0	-358464.0	-2973.0	2380.0
28	18	16	38	512	67.0	-341041.0	-3035.0	2816.0
28	18	16	38	513	68.0	-328197.0	-3045.0	2679.0
28	18	16	38	513	69.0	-312751.0	-3047.0	2914.0
28	18	16	38	514	70.0	-294655.0	-3050.0	3241.0
28	18	16	38	515	71.0	-274516.0	-3067.0	3071.0
28	18	16	38	515	72.0	-254119.0	-3064.0	2853.0
28	18	16	38	516	73.0	-232569.0	-3052.0	2263.0
28	18	16	38	546	74.0	-209454.0	-3046.0	1855.0
28	18	16	38	547	75.0	-185294.0	-3062.0	1946.0
28	18	16	38	548	76.0	-161072.0	-3073.0	2530.0
28	18	16	38	638	77.0	-138790.0	-3085.0	2911.0
28	18	16	38	638	78.0	-119492.0	-3092.0	3782.0
28	18	16	38	639	79.0	-104207.0	-3086.0	3569.0
28	18	16	38	640	80.0	-93121.0	-3109.0	3279.0
28	18	16	38	641	81.0	-86571.0	-3127.0	3171.0
28	18	16	38	642	82.0	-84469.0	-3134.0	2973.0
28	18	16	38	643	83.0	-85814.0	-3109.0	2714.0
28	18	16	38	644	84.0	-90057.0	-3102.0	2626.0
28	18	16	38	644	85.0	-96172.0	-3110.0	2066.0
28	18	16	38	645	86.0	-104054.0	-3118.0	1881.0
28	18	16	38	645	87.0	-113554.0	-3103.0	2725.0
28	18	16	38	646	88.0	-125051.0	-3092.0	3654.0
28	18	16	38	646	90.0	-154281.0	-3042.0	4566.0
28	18	16	38	647	91.0	-171279.0	-3034.0	4548.0
28	18	16	38	648	92.0	-188485.0	-2992.0	4226.0
28	18	16	38	648	93.0	-204847.0	-2980.0	3891.0
28	18	16	38	649	135.0	-221420.0	-2474.0	9352.0
28	18	16	38	649	136.0	-214520.0	-2502.0	9553.0
28	18	16	38	650	137.0	-206462.0	-2505.0	9631.0
28	18	16	38	650	138.0	-198454.0	-2531.0	9528.0
28	18	16	38	651	139.0	-190467.0	-2535.0	9911.0
28	18	16	38	651	140.0	-183055.0	-2508.0	9677.0
28	18	16	38	682	141.0	-175811.0	-2484.0	9573.0
28	18	16	38	683	142.0	-168697.0	-2453.0	9876.0
28	18	16	38	684	143.0	-163821.0	-2444.0	9565.0
28	18	16	38	684	144.0	-161302.0	-2439.0	9029.0
28	18	16	38	685	145.0	-160912.0	-2426.0	9439.0
28	18	16	38	685	146.0	-162071.0	-2393.0	9594.0
28	18	16	38	686	147.0	-164137.0	-2378.0	9713.0
28	18	16	38	687	148.0	-167207.0	-2402.0	10171.0
28	18	16	38	687	149.0	-171148.0	-2397.0	10226.0
28	18	16	38	688	150.0	-174957.0	-2364.0	10052.0
28	18	16	38	689	151.0	-179072.0	-2364.0	9759.0
28	18	16	38	689	152.0	-182910.0	-2340.0	9321.0
28	18	16	38	690	153.0	-187556.0	-2333.0	8946.0
28	18	16	38	691	154.0	-193162.0	-2329.0	8400.0
28	18	16	38	691	155.0	-199586.0	-2319.0	8206.0
28	18	16	38	692	157.0	-212019.0	-2332.0	9569.0
28	18	16	38	692	158.0	-216097.0	-2327.0	10264.0
28	18	16	38	693	159.0	-218197.0	-2272.0	11189.0
28	18	16	38	693	160.0	-218144.0	-2229.0	10171.0
28	18	16	38	694	161.0	-215344.0	-2182.0	9214.0
28	18	16	38	695	162.0	-210826.0	-2155.0	8934.0
28	18	16	38	734	163.0	-204694.0	-2147.0	9051.0
28	18	16	38	735	164.0	-197424.0	-2122.0	8969.0
28	18	16	38	735	165.0	-189241.0	-2130.0	9114.0
28	18	16	38	736	166.0	-179782.0	-2150.0	9549.0
28	18	16	38	736	167.0	-169644.0	-2134.0	9611.0
28	18	16	38	737	168.0	-160477.0	-2128.0	9848.0
28	18	16	38	737	169.0	-152286.0	-2116.0	10028.0
28	18	16	38	738	170.0	-145173.0	-2113.0	10235.0
28	18	16	38	739	171.0	-139852.0	-2114.0	10894.0
28	18	16	38	739	172.0	-135703.0	-2092.0	10953.0
28	18	16	38	740	173.0	-132165.0	-2091.0	10583.0
28	18	16	38	740	174.0	-129126.0	-2082.0	10351.0
28	18	16	38	741	175.0	-126490.0	-2074.0	9900.0
28	18	16	38	772	176.0	-124357.0	-2115.0	10073.0
28	18	16	38	773	177.0	-123226.0	-2119.0	10463.0
28	18	16	38	773	179.0	-127087.0	-2120.0	10831.0
28	18	16	38	774	180.0	-132219.0	-2123.0	11379.0
28	18	16	38	774	181.0	-139915.0	-2120.0	11606.0
28	18	16	38	775	182.0	-150099.0	-2128.0	11086.0
28	18	16	38	776	183.0	-161664.0	-2084.0	10821.0
28	18	16	38	776	184.0	-173818.0	-2057.0	10686.0
28	18	16	38	777	185.0	-185412.0	-2044.0	10424.0
28	18	16	38	777	186.0	-196337.0	-2044.0	10598.0
28	18	16	38	778	187.0	-206929.0	-2039.0	11059.0
28	18	16	38	778	188.0	-217258.0	-2019.0	11329.0
28	18	16	38	779	189.0	-227091.0	-2005.0	11508.0
28	18	16	38	779	190.0	-236056.0	-1994.0	11383.0
28	18	16	38	780	191.0	-243396.0	-1972.0	11154.0
28	18	16	38	781	202.0	-216218.0	-2094.0	11336.0
28	18	16	38	781	203.0	-213369.0	-2111.0	10523.0
28	18	16	38	782	204.0	-210917.0	-2127.0	10402.0
28	18	16	38	782	205.0	-209113.0	-2136.0	10632.0
28	18	16	38	783	206.0	-207785.0	-2141.0	10689.0
28	18	16	38	783	207.0	-206352.0	-2142.0	10840.0
28	18	16	38	815	208.0	-204398.0	-2141.0	11419.0
28	18	16	38	816	209.0	-201831.0	-2146.0	11406.0
28	18	16	38	816	210.0	-197526.0	-2174.0	11108.0
28	18	16	38	817	211.0	-191786.0	-2204.0	10870.0
28	18	16	38	818	212.0	-185143.0	-2236.0	10754.0
28	18	16	38	818	213.0	-178136.0	-2257.0	10105.0
28	18	16	38	819	214.0	-171463.0	-2289.0	10179.0
28	18	16	38	819	215.0	-166614.0	-2318.0	10147.0
28	18	16	38	820	216.0	-164836.0	-2327.0	9869.0
28	18	16	38	821	217.0	-166022.0	-2347.0	9643.0
28	18	16	38	821	218.0	-169929.0	-2334.0	9664.0
28	18	16	38	822	219.0	-176192.0	-2316.0	9483.0
28	18	16	38	822	220.0	-184215.0	-2300.0	9304.0
28	18	16	38	862	221.0	-192794.0	-2303.0	10053.0
28	18	16	38	863	222.0	-200981.0	-2315.0	11184.0
28	18	16	38	864	224.0	-212565.0	-2319.0	10614.0
28	18	16	38	864	225.0	-214594.0	-2324.0	10362.0
28	18	16	38	865	226.0	-214009.0	-2331.0	10583.0
28	18	16	38	865	227.0	-210614.0	-2325.0	10791.0
28	18	16	38	866	228.0	-204089.0	-2347.0	11157.0
28	18	16	38	867	229.0	-194736.0	-2343.0	11126.0
28	18	16	38	867	230.0	-183392.0	-2359.0	11169.0
28	18	16	38	868	231.0	-171807.0	-2405.0	10964.0
28	18	16	38	868	232.0	-162397.0	-2451.0	10793.0
28	18	16	38	869	233.0	-155974.0	-2496.0	10252.0
28	18	16	38	870	234.0	-153590.0	-2523.0	9703.0
28	18	16	38	870	235.0	-155264.0	-2568.0	9516.0
28	18	16	38	871	236.0	-159981.0	-2614.0	10070.0
28	18	16	38	871	237.0	-167352.0	-2651.0	10733.0
28	18	16	38	872	247.0	-230043.0	-2965.0	10966.0
28	18	16	38	873	248.0	-232478.0	-3006.0	10373.0
28	18	16	38	873	249.0	-234327.0	-3024.0	10273.0
28	18	16	38	874	250.0	-236008.0	-3044.0	10895.0
28	18	16	38	874	251.0	-237084.0	-3044.0	10710.0
28	18	16	38	875	252.0	-237264.0	-3066.0	10276.0
28	18	16	38	906	253.0	-235631.0	-3072.0	10649.0
28	18	16	38	907	254.0	-232423.0	-3092.0	10404.0
28	18	16	38	907	255.0	-227552.0	-3092.0	10366.0
28	18	16	38	952	0.0	-220281.0	-3109.0	10774.0
28	18	16	38	953	1.0	-211142.0	-3129.0	10735.0
28	18	16	38	953	2.0	-200933.0	-3114.0	10738.0
28	18	16	38	954	3.0	-190025.0	-3107.0	11219.0
28	18	16	38	954	4.0	-180422.0	-3118.0	11140.0
28	18	16	38	955	5.0	-173673.0	-3099.0	10869.0
28	18	16	38	956	6.0	-170947.0	-3087.0	10663.0
28	18	16	38	956	7.0	-172627.0	-3064.0	10488.0
28	18	16	38	997	8.0	-178437.0	-3077.0	9669.0
28	18	16	38	998	9.0	-186345.0	-3080.0	9153.0
28	18	16	38	999	10.0	-195464.0	-3089.0	8837.0
28	18	16	39	0	11.0	-205246.0	-3088.0	8988.0
28	18	16	39	0	13.0	-224088.0	-3051.0	10921.0
28	18	16	39	1	14.0	-232781.0	-3036.0	11428.0
28	18	16	39	1	15.0	-241194.0	-3021.0	11746.0
28	18	16	39	2	16.0	-248534.0	-2999.0	10966.0
28	18	16	39	3	36.0	-167044.0	-2854.0	10815.0
28	18	16	39	3	37.0	-151683.0	-2840.0	10197.0
28	18	16	39	4	38.0	-137226.0	-2824.0	10195.0
28	18	16	39	4	39.0	-123853.0	-2819.0	10558.0
28	18	16	39	5	40.0	-112530.0	-2821.0	10404.0
28	18	16	39	6	41.0	-103462.0	-2826.0	10603.0
28	18	16	39	6	42.0	-96102.0	-2824.0	10798.0
28	18	16	39	7	43.0	-90223.0	-2815.0	10591.0
28	18	16	39	7	58.0	-121646.0	-2945.0	7176.0
28	18	16	39	8	59.0	-130672.0	-2956.0	6749.0
28	18	16	39	8	60.0	-140136.0	-2953.0	7968.0
28	18	16	39	9	61.0	-151067.0	-2931.0	9533.0
28	18	16	39	10	62.0	-164486.0	-2902.0	10435.0
28	18	16	39	10	63.0	-179666.0	-2874.0	11077.0
28	18	16	39	11	64.0	-200761.0	-2849.0	10696.0
28	18	16	39	43	65.0	-224804.0	-2842.0	9569.0
28	18	16	39	43	66.0	-251232.0	-2813.0	9196.0
28	18	16	39	44	67.0	-280646.0	-2811.0	8428.0
28	18	16	39	45	68.0	-309783.0	-2828.0	6973.0
28	18	16	39	45	69.0	-338229.0	-2829.0	6269.0
28	18	16	39	46	70.0	-364755.0	-2844.0	6538.0
28	18	16	39	46	71.0	-389558.0	-2854.0	7057.0
28	18	16	39	47	72.0	-411620.0	-2849.0	7734.0
28	18	16	39	48	73.0	-431286.0	-2857.0	8329.0
28	18	16	39	48	74.0	-447757.0	-2887.0	8333.0
28	18	16	39	49	75.0	-461274.0	-2923.0	8354.0
28	18	16	39	50	76.0	-471679.0	-2956.0	8771.0
28	18	16	39	50	77.0	-478367.0	-2992.0	9072.0
28	18	16	39	51	78.0	-479822.0	-3014.0	9573.0
28	18	16	39	51	79.0	-476419.0	-3027.0	14388.0
28	18	16	39	52	80.0	-468386.0	-3055.0	19116.0
28	18	16	39	53	81.0	-453489.0	-3081.0	23689.0
28	18	16	39	53	82.0	-431967.0	-3064.0	24587.0
28	18	16	39	54	83.0	-403513.0	-3054.0	23574.0
28	18	16	39	54	84.0	-369413.0	-3061.0	22418.0
28	18	16	39	55	85.0	-329959.0	-3049.0	19019.0
28	18	16	39	55	86.0	-286990.0	-3044.0	15614.0
28	18	16	39	86	87.0	-242029.0	-3031.0	14564.0
28	18	16	39	87	88.0	-197607.0	-3026.0	12254.0
28	18	16	39	88	89.0	-156847.0	-3047.0	9649.0
28	18	16	39	88	90.0	-120691.0	-3042.0	9143.0
28	18	16	39	89	91.0	-88623.0	-3027.0	12085.0
28	18	16	39	90	92.0	-60280.0	-3036.0	13899.0
28	18	16	39	90	93.0	-34457.0	-3047.0	13399.0
28	18	16	39	91	94.0	-9137.0	-3066.0	11856.0
28	18	16	39	92	95.0	15740.0	-3082.0	10144.0
28	18	16	39	92	96.0	40061.0	-3094.0	8934.0
28	18	16	39	93	97.0	62428.0	-3107.0	7824.0
28	18	16	39	93	98.0	79891.0	-3120.0	6639.0
28	18	16	39	94	99.0	91284.0	-3134.0	5679.0
28	18	16	39	95	100.0	98913.0	-3144.0	4763.0
28	18	16	39	95	101.0	108946.0	-3142.0	4179.0
28	18	16	39	96	103.0	143178.0	-3130.0	2201.0
28	18	16	39	96	104.0	149231.0	-3141.0	1729.0
28	18	16	39	97	105.0	135746.0	-3124.0	2247.0
28	18	16	39	98	106.0	94664.0	-3143.0	2303.0
28	18	16	39	98	107.0	27261.0	-3110.0	3126.0
28	18	16	39	99	108.0	-54906.0	-3131.0	4168.0
28	18	16	39	132	109.0	-133158.0	-3140.0	3979.0
28	18	16	39	176	110.0	-194914.0	-3146.0	3453.0
28	18	16	39	177	111.0	-245186.0	-3167.0	4673.0
28	18	16	39	177	112.0	-289721.0	-3182.0	4743.0
28	18	16	39	178	113.0	-330057.0	-3185.0	3744.0
28	18	16	39	179	114.0	-366685.0	-3194.0	3998.0
28	18	16	39	179	115.0	-398504.0	-3222.0	4753.0
28	18	16	39	180	116.0	-421720.0	-3239.0	4374.0
28	18	16	39	181	117.0	-435417.0	-3238.0	4095.0
28	18	16	39	181	118.0	-442691.0	-3266.0	4061.0
28	18	16	39	182	119.0	-442137.0	-3274.0	3826.0
28	18	16	39	183	120.0	-435603.0	-3264.0	3644.0
28	18	16	39	183	121.0	-429866.0	-3280.0	3951.0
28	18	16	39	184	122.0	-420103.0	-3297.0	4009.0
28	18	16	39	184	123.0	-410112.0	-3314.0	3999.0
28	18	16	39	185	125.0	-388420.0	-3347.0	3746.0
28	18	16	39	186	126.0	-377954.0	-3341.0	3431.0
28	18	16	39	186	148.0	-106794.0	-3226.0	620.0
28	18	16	39	187	149.0	-108260.0	-3218.0	511.0
28	18	16	39	187	150.0	-110829.0	-3216.0	154.0
28	18	16	39	188	151.0	-114778.0	-3203.0	-15.0
28	18	16	39	189	152.0	-120963.0	-3187.0	587.0
28	18	16	39	189	153.0	-128040.0	-3164.0	1298.0
28	18	16	39	221	154.0	-136276.0	-3161.0	663.0
28	18	16	39	223	155.0	-145599.0	-3135.0	216.0
28	18	16	39	224	156.0	-155844.0	-3122.0	471.0
28	18	16	39	224	157.0	-167504.0	-3104.0	122.0
28	18	16	39	225	158.0	-179572.0	-3099.0	-22.0
28	18	16	39	226	159.0	-191695.0	-3104.0	382.0
28	18	16	39	226	160.0	-203137.0	-3087.0	274.0
28	18	16	39	227	161.0	-213794.0	-3064.0	504.0
28	18	16	39	228	162.0	-223610.0	-3056.0	336.0
28	18	16	39	228	163.0	-232454.0	-3040.0	106.0
28	18	16	39	229	164.0	-241016.0	-3034.0	-275.0
28	18	16	39	230	165.0	-248187.0	-3034.0	-781.0
28	18	16	39	230	166.0	-253430.0	-3037.0	-1237.0
28	18	16	39	231	167.0	-257993.0	-3029.0	-1359.0
28	18	16	39	232	168.0	-261214.0	-3047.0	-1924.0
28	18	16	39	232	170.0	-264026.0	-3052.0	-1927.0
28	18	16	39	233	171.0	-262896.0	-3041.0	-1504.0
28	18	16	39	233	172.0	-259479.0	-3046.0	-1247.0
28	18	16	39	234	173.0	-253916.0	-3032.0	-1412.0
28	18	16	39	235	174.0	-244656.0	-3019.0	-1486.0
28	18	16	39	235	175.0	-232924.0	-3005.0	-1526.0
28	18	16	39	236	176.0	-219831.0	-2991.0	-1686.0
28	18	16	39	267	177.0	-203922.0	-2986.0	-1223.0
28	18	16	39	268	178.0	-187035.0	-2972.0	-502.0
28	18	16	39	269	179.0	-170842.0	-2974.0	-60.0
28	18	16	39	270	180.0	-154492.0	-2979.0	931.0
28	18	16	39	270	181.0	-139061.0	-2976.0	1644.0
28	18	16	39	271	182.0	-125909.0	-2957.0	1644.0
28	18	16	39	272	183.0	-114393.0	-2967.0	1824.0
28	18	16	39	272	184.0	-105912.0	-2981.0	1865.0
28	18	16	39	273	185.0	-101389.0	-2957.0	1781.0
28	18	16	39	274	186.0	-100136.0	-2965.0	1634.0
28	18	16	39	274	187.0	-102829.0	-2977.0	2191.0
28	18	16	39	275	188.0	-109009.0	-2973.0	1882.0
28	18	16	39	276	189.0	-118534.0	-2961.0	2033.0
28	18	16	39	276	190.0	-131286.0	-2951.0	2614.0
28	18	16	39	277	191.0	-145730.0	-2950.0	3216.0
28	18	16	39	277	193.0	-174527.0	-2927.0	4059.0
28	18	16	39	278	194.0	-187066.0	-2917.0	4356.0
28	18	16	39	279	195.0	-197690.0	-2882.0	3844.0
28	18	16	39	279	196.0	-206337.0	-2859.0	2905.0
28	18	16	39	280	197.0	-213210.0	-2829.0	2946.0
28	18	16	39	280	198.0	-218984.0	-2784.0	3383.0
28	18	16	39	311	199.0	-224179.0	-2746.0	4649.0
28	18	16	39	312	200.0	-229361.0	-2693.0	6726.0
28	18	16	39	312	201.0	-233359.0	-2659.0	8177.0
28	18	16	39	313	202.0	-237116.0	-2632.0	7129.0
28	18	16	39	314	203.0	-239742.0	-2594.0	7038.0
28	18	16	39	315	204.0	-242459.0	-2561.0	7643.0
28	18	16	39	315	205.0	-244003.0	-2529.0	7841.0
28	18	16	39	316	206.0	-244591.0	-2502.0	8544.0
28	18	16	39	316	207.0	-244205.0	-2477.0	8481.0
28	18	16	39	317	208.0	-243261.0	-2406.0	8354.0
28	18	16	39	318	209.0	-242677.0	-2354.0	8707.0
28	18	16	39	318	210.0	-241586.0	-2304.0	9264.0
28	18	16	39	319	211.0	-239257.0	-2258.0	10083.0
28	18	16	39	320	212.0	-236131.0	-2205.0	10984.0
28	18	16	39	320	213.0	-232909.0	-2161.0	11152.0
28	18	16	39	321	215.0	-227659.0	-2031.0	12194.0
28	18	16	39	321	216.0	-225991.0	-1991.0	12290.0
28	18	16	39	322	217.0	-223999.0	-1934.0	12329.0
28	18	16	39	323	218.0	-221909.0	-1869.0	12836.0
28	18	16	39	323	219.0	-220254.0	-1820.0	13496.0
28	18	16	39	332	220.0	-218677.0	-1766.0	14087.0
28	18	16	39	402	221.0	-217427.0	-1716.0	14968.0
28	18	16	39	403	222.0	-216356.0	-1667.0	16034.0
28	18	16	39	404	223.0	-214851.0	-1636.0	15959.0
28	18	16	39	405	224.0	-215337.0	-1623.0	16067.0
28	18	16	39	405	225.0	-216174.0	-1615.0	16563.0
28	18	16	39	406	226.0	-216758.0	-1591.0	16718.0
28	18	16	39	407	227.0	-217607.0	-1552.0	16858.0
28	18	16	39	409	228.0	-218671.0	-1542.0	17239.0
28	18	16	39	410	229.0	-219101.0	-1507.0	17764.0
28	18	16	39	411	230.0	-219399.0	-1459.0	18051.0
28	18	16	39	411	231.0	-219839.0	-1419.0	18653.0
28	18	16	39	412	232.0	-218812.0	-1382.0	19244.0
28	18	16	39	413	233.0	-216396.0	-1350.0	19394.0
28	18	16	39	413	234.0	-210971.0	-1327.0	19719.0
28	18	16	39	414	235.0	-198554.0	-1298.0	20252.0
28	18	16	39	415	4.0	-202940.0	-1027.0	29942.0
28	18	16	39	415	5.0	-197553.0	-1022.0	30467.0
28	18	16	39	416	6.0	-190317.0	-983.0	30525.0
28	18	16	39	416	7.0	-181285.0	-955.0	30977.0
28	18	16	39	417	8.0	-171488.0	-937.0	31549.0
28	18	16	39	418	9.0	-162249.0	-920.0	31986.0
28	18	16	39	447	10.0	-154344.0	-897.0	32897.0
28	18	16	39	448	11.0	-147257.0	-872.0	32946.0
28	18	16	39	449	12.0	-140982.0	-871.0	33096.0
28	18	16	39	450	13.0	-134685.0	-877.0	33761.0
28	18	16	39	450	14.0	-128681.0	-831.0	33963.0
28	18	16	39	451	15.0	-122950.0	-805.0	34714.0
28	18	16	39	452	16.0	-116994.0	-812.0	35008.0
28	18	16	39	452	17.0	-111447.0	-804.0	35283.0
28	18	16	39	453	18.0	-106783.0	-772.0	35613.0
28	18	16	39	454	19.0	-103357.0	-757.0	35907.0
28	18	16	39	454	20.0	-101732.0	-760.0	36228.0
28	18	16	39	455	21.0	-101888.0	-773.0	36269.0
28	18	16	39	456	22.0	-103669.0	-773.0	36458.0
28	18	16	39	456	23.0	-107090.0	-776.0	37013.0
28	18	16	39	457	24.0	-112384.0	-777.0	37116.0
28	18	16	39	457	26.0	-130388.0	-772.0	36871.0
28	18	16	39	458	27.0	-143620.0	-763.0	37105.0
28	18	16	39	459	28.0	-159171.0	-732.0	37972.0
28	18	16	39	459	29.0	-175677.0	-722.0	39123.0
28	18	16	39	460	30.0	-193121.0	-699.0	39439.0
28	18	16	39	460	31.0	-210219.0	-716.0	39327.0
28	18	16	39	461	32.0	-225984.0	-709.0	38603.0
28	18	16	39	492	33.0	-240744.0	-707.0	38193.0
28	18	16	39	492	34.0	-254125.0	-689.0	38792.0
28	18	16	39	493	35.0	-265357.0	-676.0	39720.0
28	18	16	39	494	36.0	-275092.0	-674.0	41223.0
28	18	16	39	495	37.0	-282644.0	-676.0	41825.0
28	18	16	39	495	38.0	-288544.0	-681.0	41674.0
28	18	16	39	496	39.0	-293128.0	-699.0	41606.0
28	18	16	39	497	40.0	-295657.0	-719.0	41269.0
28	18	16	39	497	41.0	-295802.0	-699.0	41287.0
28	18	16	39	498	42.0	-294046.0	-707.0	41601.0
28	18	16	39	499	43.0	-290984.0	-722.0	41800.0
28	18	16	39	499	44.0	-286532.0	-717.0	41741.0
28	18	16	39	500	45.0	-280779.0	-714.0	42618.0
28	18	16	39	501	46.0	-273462.0	-704.0	42661.0
28	18	16	39	501	47.0	-264354.0	-694.0	42370.0
28	18	16	39	502	49.0	-241551.0	-681.0	43016.0
28	18	16	39	503	50.0	-228170.0	-677.0	43205.0
28	18	16	39	503	51.0	-212806.0	-677.0	43466.0
28	18	16	39	504	52.0	-195754.0	-687.0	43712.0
28	18	16	39	505	53.0	-177302.0	-669.0	43966.0
28	18	16	39	505	54.0	-157810.0	-689.0	44469.0
28	18	16	39	537	55.0	-138022.0	-682.0	45084.0
28	18	16	39	537	56.0	-119292.0	-676.0	45110.0
28	18	16	39	538	57.0	-102354.0	-674.0	45147.0
28	18	16	39	539	58.0	-88120.0	-697.0	45246.0
28	18	16	39	540	59.0	-77122.0	-712.0	45418.0
28	18	16	39	540	60.0	-69922.0	-726.0	45424.0
28	18	16	39	541	61.0	-66929.0	-732.0	44984.0
28	18	16	39	541	62.0	-68563.0	-735.0	44326.0
28	18	16	39	542	63.0	-74634.0	-734.0	44494.0
28	18	16	39	543	64.0	-84988.0	-714.0	44946.0
28	18	16	39	544	65.0	-98908.0	-711.0	45871.0
28	18	16	39	544	66.0	-115941.0	-702.0	46334.0
28	18	16	39	545	67.0	-135151.0	-690.0	46749.0
28	18	16	39	545	68.0	-156107.0	-694.0	46728.0
28	18	16	39	546	69.0	-177710.0	-682.0	45897.0
28	18	16	39	547	71.0	-218510.0	-710.0	45636.0
28	18	16	39	547	72.0	-236137.0	-724.0	45726.0
28	18	16	39	548	73.0	-251813.0	-704.0	46053.0
28	18	16	39	549	74.0	-264644.0	-702.0	46583.0
28	18	16	39	549	75.0	-274694.0	-702.0	46429.0
28	18	16	39	550	76.0	-281870.0	-721.0	46748.0
28	18	16	39	550	77.0	-286606.0	-751.0	47380.0
28	18	16	39	582	78.0	-289287.0	-763.0	47284.0
28	18	16	39	583	79.0	-289962.0	-741.0	47406.0
28	18	16	39	584	80.0	-288802.0	-744.0	47509.0
28	18	16	39	584	81.0	-285538.0	-758.0	46733.0
28	18	16	39	585	82.0	-280621.0	-789.0	46376.0
28	18	16	39	586	83.0	-274665.0	-793.0	46800.0
28	18	16	39	587	84.0	-268562.0	-806.0	47059.0
28	18	16	39	587	85.0	-262635.0	-835.0	47053.0
28	18	16	39	588	86.0	-255700.0	-846.0	47438.0
28	18	16	39	588	87.0	-247927.0	-835.0	47550.0
28	18	16	39	589	88.0	-239167.0	-826.0	47444.0
28	18	16	39	590	89.0	-229731.0	-835.0	47946.0
28	18	16	39	590	90.0	-219066.0	-833.0	48766.0
28	18	16	39	591	91.0	-208011.0	-827.0	49081.0
28	18	16	39	591	92.0	-197354.0	-827.0	49252.0
28	18	16	39	592	94.0	-177240.0	-836.0	49698.0
28	18	16	39	627	95.0	-167907.0	-809.0	49862.0
28	18	16	39	628	96.0	-158744.0	-787.0	49803.0
28	18	16	39	629	97.0	-149557.0	-789.0	49436.0
28	18	16	39	630	98.0	-140863.0	-796.0	49098.0
28	18	16	39	630	99.0	-133106.0	-803.0	49398.0
28	18	16	39	631	100.0	-126375.0	-779.0	49211.0
28	18	16	39	632	101.0	-120441.0	-769.0	49033.0
28	18	16	39	633	102.0	-115890.0	-801.0	49329.0
28	18	16	39	633	103.0	-113954.0	-799.0	49799.0
28	18	16	39	634	104.0	-113839.0	-799.0	49738.0
28	18	16	39	635	105.0	-115256.0	-789.0	49494.0
28	18	16	39	635	106.0	-118628.0	-776.0	49528.0
28	18	16	39	636	107.0	-124186.0	-791.0	49569.0
28	18	16	39	636	108.0	-132362.0	-774.0	49759.0
28	18	16	39	637	109.0	-142525.0	-772.0	50233.0
28	18	16	39	638	110.0	-153948.0	-789.0	50741.0
28	18	16	39	638	116.0	-248426.0	-864.0	50791.0
28	18	16	39	639	117.0	-265352.0	-891.0	50634.0
28	18	16	39	640	118.0	-280402.0	-899.0	50976.0
28	18	16	39	640	119.0	-292966.0	-931.0	50871.0
28	18	16	39	641	120.0	-301689.0	-954.0	50503.0
28	18	16	39	642	121.0	-307124.0	-964.0	50663.0
28	18	16	39	642	122.0	-308898.0	-969.0	50686.0
28	18	16	39	643	123.0	-307677.0	-960.0	50471.0
28	18	16	39	672	124.0	-302514.0	-946.0	50853.0
28	18	16	39	673	125.0	-294350.0	-932.0	51551.0
28	18	16	39	674	126.0	-283297.0	-927.0	51835.0
28	18	16	39	675	127.0	-269619.0	-961.0	51886.0
28	18	16	39	716	128.0	-254447.0	-989.0	52138.0
28	18	16	39	727	129.0	-238997.0	-1018.0	52302.0
28	18	16	39	728	130.0	-223113.0	-1014.0	51843.0
28	18	16	39	729	131.0	-206939.0	-1021.0	52264.0
28	18	16	39	729	132.0	-190402.0	-1014.0	52578.0
28	18	16	39	730	133.0	-174090.0	-1001.0	51897.0
28	18	16	39	731	134.0	-157466.0	-987.0	52029.0
28	18	16	39	731	135.0	-140842.0	-1001.0	51843.0
28	18	16	39	732	136.0	-124927.0	-1006.0	51623.0
28	18	16	39	732	137.0	-109569.0	-979.0	51446.0
28	18	16	39	733	138.0	-94460.0	-993.0	51530.0
28	18	16	39	733	139.0	-79551.0	-992.0	52064.0
28	18	16	39	734	140.0	-65706.0	-981.0	52104.0
28	18	16	39	735	141.0	-54112.0	-965.0	51564.0
28	18	16	39	735	142.0	-45831.0	-957.0	51432.0
28	18	16	39	736	143.0	-41746.0	-959.0	51986.0
28	18	16	39	736	161.0	-306140.0	-939.0	56163.0
28	18	16	39	737	162.0	-311811.0	-929.0	56217.0
28	18	16	39	738	163.0	-315817.0	-907.0	56889.0
28	18	16	39	738	164.0	-317991.0	-914.0	57293.0
28	18	16	39	739	165.0	-318401.0	-896.0	57569.0
28	18	16	39	739	166.0	-316606.0	-870.0	58408.0
28	18	16	39	740	167.0	-312031.0	-857.0	58117.0
28	18	16	39	761	168.0	-304827.0	-832.0	57274.0
28	18	16	39	762	169.0	-295625.0	-822.0	57244.0
28	18	16	39	763	170.0	-285024.0	-829.0	57644.0
28	18	16	39	763	171.0	-272861.0	-837.0	57898.0
28	18	16	39	764	172.0	-259766.0	-863.0	58644.0
28	18	16	39	764	173.0	-246818.0	-891.0	58969.0
28	18	16	39	765	174.0	-233579.0	-901.0	59210.0
28	18	16	39	765	175.0	-220164.0	-909.0	59776.0
28	18	16	39	766	176.0	-206092.0	-930.0	60026.0
28	18	16	39	767	177.0	-191265.0	-956.0	59763.0
28	18	16	39	767	178.0	-176358.0	-973.0	60364.0
28	18	16	39	768	179.0	-161790.0	-977.0	60847.0
28	18	16	39	769	180.0	-148398.0	-1004.0	60942.0
28	18	16	39	769	181.0	-136707.0	-1039.0	60817.0
28	18	16	39	770	182.0	-127307.0	-1042.0	60656.0
28	18	16	39	770	183.0	-121759.0	-1030.0	59268.0
28	18	16	39	771	184.0	-119269.0	-1043.0	58569.0
28	18	16	39	771	185.0	-120426.0	-1041.0	58296.0
28	18	16	39	772	186.0	-124261.0	-1021.0	58821.0
28	18	16	39	773	187.0	-130734.0	-1038.0	60076.0
28	18	16	39	773	188.0	-139016.0	-1055.0	61828.0
28	18	16	39	774	189.0	-148802.0	-1051.0	62959.0
28	18	16	39	806	190.0	-160375.0	-1044.0	62858.0
28	18	16	39	807	191.0	-172898.0	-1032.0	62868.0
28	18	16	39	808	192.0	-185987.0	-1039.0	63230.0
28	18	16	39	808	193.0	-199191.0	-1051.0	63298.0
28	18	16	39	809	194.0	-211546.0	-1052.0	63770.0
28	18	16	39	809	195.0	-221512.0	-1052.0	67469.0
28	18	16	39	810	196.0	-228068.0	-1038.0	72902.0
28	18	16	39	811	197.0	-230643.0	-1042.0	78439.0
28	18	16	39	811	198.0	-228500.0	-1038.0	82629.0
28	18	16	39	812	199.0	-222040.0	-1039.0	83168.0
28	18	16	39	812	200.0	-211806.0	-1043.0	81593.0
28	18	16	39	813	201.0	-199029.0	-1044.0	78248.0
28	18	16	39	814	202.0	-184965.0	-1051.0	76568.0
28	18	16	39	814	203.0	-170639.0	-1067.0	76368.0
28	18	16	39	815	204.0	-158440.0	-1067.0	74151.0
28	18	16	39	816	206.0	-150099.0	-1037.0	73612.0
28	18	16	39	816	207.0	-155528.0	-1056.0	78438.0
28	18	16	39	817	208.0	-167093.0	-1054.0	80945.0
28	18	16	39	817	209.0	-182413.0	-1036.0	81163.0
28	18	16	39	818	210.0	-199320.0	-1028.0	79485.0
28	18	16	39	819	211.0	-216381.0	-1028.0	77499.0
28	18	16	39	852	212.0	-232714.0	-1029.0	75984.0
28	18	16	39	853	213.0	-248162.0	-1031.0	74987.0
28	18	16	39	853	214.0	-261311.0	-1007.0	74763.0
28	18	16	39	854	215.0	-270911.0	-1021.0	74583.0
28	18	16	39	855	216.0	-274429.0	-1004.0	74126.0
28	18	16	39	855	217.0	-266590.0	-1001.0	74088.0
28	18	16	39	856	218.0	-245762.0	-1015.0	73860.0
28	18	16	39	856	219.0	-218442.0	-1033.0	73906.0
28	18	16	39	857	220.0	-187742.0	-1036.0	74242.0
28	18	16	39	857	221.0	-160937.0	-1039.0	73979.0
28	18	16	39	858	222.0	-146137.0	-1052.0	73943.0
28	18	16	39	859	223.0	-148114.0	-1061.0	74624.0
28	18	16	39	859	224.0	-166204.0	-1062.0	75026.0
28	18	16	39	860	225.0	-190852.0	-1077.0	75590.0
28	18	16	39	860	226.0	-213959.0	-1084.0	75914.0
28	18	16	39	861	228.0	-259522.0	-1104.0	75898.0
28	18	16	39	862	229.0	-283008.0	-1111.0	76291.0
28	18	16	39	862	230.0	-301116.0	-1114.0	76415.0
28	18	16	39	863	231.0	-309981.0	-1132.0	76306.0
28	18	16	39	863	232.0	-310971.0	-1143.0	76436.0
28	18	16	39	864	233.0	-309831.0	-1139.0	76708.0
28	18	16	39	864	234.0	-309306.0	-1128.0	76771.0
28	18	16	39	897	235.0	-311428.0	-1114.0	77209.0
28	18	16	39	898	236.0	-314805.0	-1087.0	77651.0
28	18	16	39	899	237.0	-319184.0	-1089.0	77607.0
28	18	16	39	899	238.0	-324440.0	-1122.0	78360.0
28	18	16	39	900	239.0	-328645.0	-1141.0	79224.0
28	18	16	39	901	240.0	-328467.0	-1160.0	79478.0
28	18	16	39	901	241.0	-323011.0	-1192.0	79024.0
28	18	16	39	902	242.0	-311476.0	-1236.0	79068.0
28	18	16	39	903	243.0	-292769.0	-1246.0	79423.0
28	18	16	39	903	244.0	-265462.0	-1276.0	79284.0
28	18	16	39	904	245.0	-230552.0	-1304.0	79246.0
28	18	16	39	904	246.0	-190912.0	-1327.0	78849.0
28	18	16	39	905	247.0	-150644.0	-1356.0	77918.0
28	18	16	39	905	248.0	-113707.0	-1371.0	77325.0
28	18	16	39	906	249.0	-82246.0	-1369.0	77326.0
28	18	16	39	907	251.0	-35866.0	-1397.0	77583.0
28	18	16	39	907	252.0	-20176.0	-1394.0	77896.0
28	18	16	39	908	253.0	-9485.0	-1402.0	77518.0
28	18	16	39	908	254.0	-3777.0	-1385.0	77553.0
28	18	16	39	909	255.0	-1044.0	-1365.0	77073.0
28	18	16	39	909	0.0	-1226.0	-1339.0	76677.0
28	18	16	39	942	1.0	-5031.0	-1316.0	76647.0
28	18	16	39	943	2.0	-11379.0	-1302.0	76612.0
28	18	16	39	944	3.0	-20364.0	-1273.0	75908.0
28	18	16	39	945	4.0	-31284.0	-1293.0	75571.0
28	18	16	39	945	5.0	-44803.0	-1291.0	75211.0
28	18	16	39	946	6.0	-61511.0	-1284.0	74949.0
28	18	16	39	947	7.0	-80779.0	-1282.0	74393.0
28	18	16	39	947	8.0	-103057.0	-1306.0	74754.0
28	18	16	39	948	9.0	-126956.0	-1309.0	74609.0
28	18	16	39	948	10.0	-150131.0	-1314.0	74629.0
28	18	16	39	949	11.0	-171882.0	-1320.0	74725.0
28	18	16	39	949	12.0	-191624.0	-1334.0	74664.0
28	18	16	39	950	13.0	-208550.0	-1344.0	74458.0
28	18	16	39	951	14.0	-223257.0	-1378.0	74198.0
28	18	16	39	951	15.0	-235618.0	-1396.0	74149.0
28	18	16	39	952	17.0	-253992.0	-1371.0	74163.0
28	18	16	39	952	18.0	-260981.0	-1349.0	74746.0
28	18	16	39	953	19.0	-266541.0	-1342.0	75033.0
28	18	16	39	953	20.0	-271058.0	-1322.0	75164.0
28	18	16	39	954	21.0	-275344.0	-1296.0	75299.0
28	18	16	39	955	22.0	-279135.0	-1287.0	75276.0
28	18	16	39	955	23.0	-282874.0	-1282.0	75126.0
28	18	16	39	986	24.0	-285894.0	-1272.0	75241.0
28	18	16	39	987	25.0	-288191.0	-1249.0	75049.0
28	18	16	39	988	26.0	-289743.0	-1238.0	74935.0
28	18	16	39	988	27.0	-290565.0	-1264.0	74589.0
28	18	16	39	989	28.0	-290453.0	-1267.0	74569.0
28	18	16	39	990	29.0	-289176.0	-1256.0	74374.0
28	18	16	39	990	30.0	-286551.0	-1245.0	74417.0
28	18	16	39	991	31.0	-282605.0	-1256.0	74744.0
28	18	16	39	991	32.0	-277855.0	-1269.0	75306.0
28	18	16	39	992	33.0	-271512.0	-1269.0	75746.0
28	18	16	39	992	34.0	-262896.0	-1257.0	75876.0
28	18	16	39	993	35.0	-251574.0	-1267.0	75801.0
28	18	16	39	994	36.0	-238274.0	-1258.0	75773.0
28	18	16	39	995	37.0	-223422.0	-1251.0	75884.0
28	18	16	39	995	38.0	-206887.0	-1257.0	75758.0
28	18	16	39	996	40.0	-172596.0	-1277.0	75854.0
28	18	16	39	997	41.0	-157201.0	-1272.0	76131.0
28	18	16	39	997	42.0	-144411.0	-1253.0	76298.0
28	18	16	39	998	43.0	-134554.0	-1243.0	76995.0
28	18	16	39	998	44.0	-127114.0	-1241.0	77141.0
28	18	16	39	999	45.0	-121439.0	-1231.0	76462.0
28	18	16	40	77	46.0	-117532.0	-1211.0	76694.0
28	18	16	40	78	47.0	-115816.0	-1207.0	77329.0
28	18	16	40	79	48.0	-116644.0	-1196.0	78084.0
28	18	16	40	79	49.0	-119970.0	-1219.0	79557.0
28	18	16	40	80	50.0	-125029.0	-1235.0	80346.0
28	18	16	40	82	51.0	-131869.0	-1243.0	79971.0
28	18	16	40	83	52.0	-140934.0	-1236.0	80050.0
28	18	16	40	83	53.0	-151931.0	-1256.0	80204.0
28	18	16	40	84	54.0	-164971.0	-1249.0	80476.0
28	18	16	40	84	55.0	-180140.0	-1234.0	80659.0
28	18	16	40	85	56.0	-197421.0	-1240.0	81775.0
28	18	16	40	86	57.0	-216463.0	-1231.0	82121.0
28	18	16	40	86	58.0	-236604.0	-1212.0	82416.0
28	18	16	40	87	59.0	-256920.0	-1212.0	83113.0
28	18	16	40	87	60.0	-275267.0	-1196.0	83469.0
28	18	16	40	88	62.0	-302520.0	-1134.0	83889.0
28	18	16	40	89	85.0	-167691.0	-467.0	86379.0
28	18	16	40	89	86.0	-172328.0	-436.0	84682.0
28	18	16	40	90	87.0	-177673.0	-406.0	84141.0
28	18	16	40	91	88.0	-184008.0	-371.0	84268.0
28	18	16	40	91	89.0	-190659.0	-328.0	84030.0
28	18	16	40	92	90.0	-196711.0	-293.0	84362.0
28	18	16	40	92	91.0	-201090.0	-259.0	84233.0
28	18	16	40	121	92.0	-202862.0	-229.0	84164.0
28	18	16	40	122	93.0	-198018.0	-192.0	84233.0
28	18	16	40	141	94.0	-179492.0	-151.0	84457.0
28	18	16	40	142	95.0	-147705.0	-122.0	84603.0
28	18	16	40	143	96.0	-135034.0	-109.0	84258.0
28	18	16	40	143	97.0	-155007.0	-97.0	83501.0
28	18	16	40	144	98.0	-191761.0	-69.0	83941.0
28	18	16	40	144	99.0	-228171.0	-61.0	84199.0
28	18	16	40	145	100.0	-260391.0	-19.0	84960.0
28	18	16	40	145	101.0	-279730.0	8.0	85844.0
28	18	16	40	146	102.0	-288919.0	24.0	86120.0
28	18	16	40	147	103.0	-296501.0	36.0	85990.0
28	18	16	40	147	104.0	-301443.0	49.0	85817.0
28	18	16	40	148	105.0	-300789.0	74.0	85848.0
28	18	16	40	148	106.0	-294526.0	59.0	85968.0
28	18	16	40	149	107.0	-286281.0	69.0	85942.0
28	18	16	40	149	108.0	-276252.0	91.0	85968.0
28	18	16	40	150	109.0	-265555.0	91.0	86306.0
28	18	16	40	150	110.0	-255191.0	127.0	86203.0
28	18	16	40	151	111.0	-245607.0	149.0	85809.0
28	18	16	40	151	112.0	-237766.0	174.0	85746.0
28	18	16	40	166	113.0	-232712.0	210.0	85666.0
28	18	16	40	167	114.0	-228881.0	220.0	85457.0
28	18	16	40	168	115.0	-225064.0	216.0	85324.0
28	18	16	40	168	116.0	-220193.0	211.0	85320.0
28	18	16	40	169	117.0	-214105.0	238.0	85313.0
28	18	16	40	170	118.0	-206109.0	258.0	85549.0
28	18	16	40	170	119.0	-195555.0	238.0	85910.0
28	18	16	40	171	120.0	-182792.0	223.0	85953.0
28	18	16	40	172	121.0	-168758.0	230.0	85991.0
28	18	16	40	172	122.0	-154515.0	239.0	86444.0
28	18	16	40	173	123.0	-140549.0	255.0	86136.0
28	18	16	40	173	124.0	-128511.0	252.0	85918.0
28	18	16	40	211	125.0	-119772.0	251.0	85968.0
28	18	16	40	257	126.0	-113859.0	244.0	86288.0
28	18	16	40	257	129.0	-121762.0	242.0	86069.0
28	18	16	40	258	130.0	-131767.0	248.0	85803.0
28	18	16	40	259	131.0	-142802.0	276.0	85107.0
28	18	16	40	259	132.0	-154944.0	304.0	85268.0
28	18	16	40	260	133.0	-167940.0	318.0	85658.0
28	18	16	40	261	134.0	-180540.0	325.0	85648.0
28	18	16	40	261	135.0	-191739.0	352.0	85948.0
28	18	16	40	262	136.0	-201081.0	368.0	86439.0
28	18	16	40	262	137.0	-209376.0	376.0	86672.0
28	18	16	40	263	138.0	-216051.0	393.0	86527.0
28	18	16	40	264	139.0	-219576.0	404.0	86026.0
28	18	16	40	264	140.0	-220243.0	414.0	85912.0
28	18	16	40	265	141.0	-218084.0	404.0	85679.0
28	18	16	40	265	152.0	-143774.0	581.0	86465.0
28	18	16	40	266	174.0	-332339.0	453.0	84572.0
28	18	16	40	267	175.0	-327561.0	423.0	84151.0
28	18	16	40	267	176.0	-319709.0	414.0	84642.0
28	18	16	40	268	177.0	-308888.0	431.0	85427.0
28	18	16	40	268	178.0	-294838.0	458.0	86309.0
28	18	16	40	269	179.0	-277825.0	448.0	86490.0
28	18	16	40	270	180.0	-258621.0	457.0	85431.0
28	18	16	40	302	181.0	-237640.0	462.0	84949.0
28	18	16	40	302	182.0	-215712.0	441.0	84898.0
28	18	16	40	303	183.0	-192639.0	461.0	84737.0
28	18	16	40	304	184.0	-167851.0	435.0	84697.0
28	18	16	40	304	185.0	-142125.0	397.0	84627.0
28	18	16	40	305	186.0	-115935.0	357.0	84999.0
28	18	16	40	306	187.0	-89264.0	334.0	84889.0
28	18	16	40	307	188.0	-62853.0	318.0	84953.0
28	18	16	40	307	189.0	-38079.0	314.0	85278.0
28	18	16	40	308	190.0	-16617.0	282.0	84741.0
28	18	16	40	309	191.0	1116.0	272.0	84347.0
28	18	16	40	309	192.0	13153.0	267.0	84271.0
28	18	16	40	310	193.0	19483.0	232.0	84059.0
28	18	16	40	311	194.0	19267.0	208.0	84034.0
28	18	16	40	311	195.0	12499.0	182.0	84562.0
28	18	16	40	312	197.0	-17419.0	110.0	84225.0
28	18	16	40	312	198.0	-40640.0	73.0	84107.0
28	18	16	40	313	199.0	-68659.0	71.0	84097.0
28	18	16	40	314	200.0	-100649.0	83.0	83629.0
28	18	16	40	315	201.0	-136564.0	88.0	83498.0
28	18	16	40	315	202.0	-174454.0	91.0	83180.0
28	18	16	40	347	203.0	-213555.0	89.0	82529.0
28	18	16	40	347	204.0	-252453.0	89.0	82161.0
28	18	16	40	348	205.0	-289779.0	82.0	82070.0
28	18	16	40	356	206.0	-324017.0	87.0	82083.0
28	18	16	40	357	207.0	-354365.0	86.0	81892.0
28	18	16	40	358	208.0	-379138.0	54.0	81889.0
28	18	16	40	359	209.0	-398559.0	36.0	81530.0
28	18	16	40	359	210.0	-413620.0	40.0	80576.0
28	18	16	40	360	211.0	-424228.0	44.0	80338.0
28	18	16	40	360	212.0	-429987.0	39.0	80173.0
28	18	16	40	361	213.0	-431135.0	21.0	80565.0
28	18	16	40	361	214.0	-427202.0	1.0	80763.0
28	18	16	40	362	215.0	-416847.0	-17.0	81079.0
28	18	16	40	363	216.0	-400774.0	-11.0	80858.0
28	18	16	40	363	217.0	-380869.0	-6.0	81136.0
28	18	16	40	364	219.0	-332075.0	-17.0	81260.0
28	18	16	40	364	220.0	-305868.0	-21.0	80968.0
28	18	16	40	365	221.0	-278590.0	-9.0	80680.0
28	18	16	40	365	222.0	-250929.0	1.0	80374.0
28	18	16	40	366	223.0	-224144.0	8.0	80374.0
28	18	16	40	367	224.0	-197391.0	11.0	80286.0
28	18	16	40	367	225.0	-171979.0	36.0	79773.0
28	18	16	40	391	226.0	-148941.0	41.0	79765.0
28	18	16	40	392	227.0	-128679.0	42.0	80132.0
28	18	16	40	393	228.0	-111990.0	52.0	80424.0
28	18	16	40	394	229.0	-99406.0	36.0	80389.0
28	18	16	40	394	230.0	-90063.0	15.0	80454.0
28	18	16	40	395	231.0	-84474.0	13.0	80172.0
28	18	16	40	396	232.0	-84091.0	24.0	79299.0
28	18	16	40	397	233.0	-88658.0	54.0	78904.0
28	18	16	40	397	234.0	-97106.0	75.0	78401.0
28	18	16	40	398	235.0	-109891.0	78.0	78391.0
28	18	16	40	399	236.0	-125788.0	108.0	78186.0
28	18	16	40	399	237.0	-143213.0	117.0	79063.0
28	18	16	40	400	238.0	-161237.0	121.0	79766.0
28	18	16	40	401	239.0	-178259.0	134.0	79717.0
28	18	16	40	401	240.0	-192861.0	146.0	79428.0
28	18	16	40	402	242.0	-213560.0	131.0	78896.0
28	18	16	40	402	243.0	-220475.0	144.0	78824.0
28	18	16	40	403	244.0	-224513.0	156.0	78610.0
28	18	16	40	404	245.0	-226860.0	176.0	78828.0
28	18	16	40	404	246.0	-227981.0	197.0	79419.0
28	18	16	40	405	247.0	-228584.0	216.0	79889.0
28	18	16	40	436	248.0	-229095.0	239.0	79030.0
28	18	16	40	437	249.0	-229419.0	260.0	78259.0
28	18	16	40	438	250.0	-229546.0	289.0	77974.0
28	18	16	40	439	251.0	-229957.0	271.0	78289.0
28	18	16	40	439	252.0	-229814.0	249.0	78228.0
28	18	16	40	440	253.0	-228839.0	258.0	77940.0
28	18	16	40	441	254.0	-226825.0	251.0	77952.0
28	18	16	40	442	255.0	-223916.0	224.0	78360.0
28	18	16	40	442	0.0	-219654.0	210.0	78353.0
28	18	16	40	443	1.0	-213672.0	208.0	78749.0
28	18	16	40	444	2.0	-206115.0	210.0	79401.0
28	18	16	40	444	3.0	-196469.0	199.0	79866.0
28	18	16	40	445	4.0	-185448.0	169.0	79761.0
28	18	16	40	446	5.0	-173885.0	136.0	79864.0
28	18	16	40	446	6.0	-161707.0	110.0	80107.0
28	18	16	40	447	8.0	-140068.0	112.0	79826.0
28	18	16	40	447	9.0	-131081.0	99.0	80566.0
28	18	16	40	448	10.0	-124272.0	96.0	80485.0
28	18	16	40	449	11.0	-118626.0	69.0	80599.0
28	18	16	40	449	12.0	-114872.0	54.0	81041.0
28	18	16	40	450	13.0	-112811.0	54.0	80891.0
28	18	16	40	481	14.0	-112333.0	30.0	80613.0
28	18	16	40	482	15.0	-114066.0	6.0	80789.0
28	18	16	40	483	16.0	-118541.0	-8.0	80848.0
28	18	16	40	484	17.0	-126011.0	-30.0	80679.0
28	18	16	40	484	18.0	-135589.0	-46.0	80249.0
28	18	16	40	485	19.0	-146722.0	-61.0	80363.0
28	18	16	40	486	20.0	-159374.0	-69.0	80221.0
28	18	16	40	486	21.0	-173016.0	-94.0	80297.0
28	18	16	40	487	22.0	-187607.0	-107.0	80492.0
28	18	16	40	488	23.0	-201960.0	-111.0	80296.0
28	18	16	40	488	24.0	-215471.0	-120.0	79184.0
28	18	16	40	489	25.0	-228313.0	-119.0	79149.0
28	18	16	40	490	26.0	-239406.0	-122.0	79181.0
28	18	16	40	490	27.0	-248077.0	-117.0	78563.0
28	18	16	40	491	28.0	-253859.0	-126.0	78978.0
28	18	16	40	491	31.0	-253437.0	-126.0	79363.0
28	18	16	40	492	32.0	-248603.0	-119.0	79360.0
28	18	16	40	493	33.0	-242061.0	-107.0	79140.0
28	18	16	40	493	34.0	-233694.0	-100.0	79023.0
28	18	16	40	494	35.0	-224256.0	-105.0	79483.0
28	18	16	40	494	36.0	-214112.0	-100.0	79417.0
28	18	16	40	527	37.0	-203129.0	-104.0	79005.0
28	18	16	40	528	38.0	-190857.0	-94.0	78826.0
28	18	16	40	528	39.0	-178955.0	-114.0	79516.0
28	18	16	40	529	40.0	-168031.0	-143.0	79625.0
28	18	16	40	530	41.0	-157001.0	-139.0	78812.0
28	18	16	40	531	42.0	-145960.0	-141.0	78879.0
28	18	16	40	531	43.0	-134996.0	-146.0	78055.0
28	18	16	40	532	44.0	-124192.0	-151.0	76323.0
28	18	16	40	533	45.0	-114057.0	-152.0	75055.0
28	18	16	40	533	46.0	-104706.0	-146.0	74520.0
28	18	16	40	534	47.0	-96642.0	-125.0	74606.0
28	18	16	40	535	48.0	-90501.0	-117.0	74918.0
28	18	16	40	535	49.0	-87661.0	-127.0	75175.0
28	18	16	40	536	50.0	-88564.0	-121.0	75912.0
28	18	16	40	536	51.0	-92984.0	-147.0	75652.0
28	18	16	40	537	53.0	-111673.0	-103.0	75937.0
28	18	16	40	538	54.0	-124212.0	-124.0	74753.0
28	18	16	40	539	55.0	-137149.0	-119.0	74552.0
28	18	16	40	539	56.0	-148842.0	-92.0	78273.0
28	18	16	40	540	57.0	-159259.0	-72.0	82801.0
28	18	16	40	541	58.0	-167903.0	-69.0	88291.0
28	18	16	40	587	59.0	-173979.0	-57.0	90895.0
28	18	16	40	605	60.0	-177659.0	-44.0	90143.0
28	18	16	40	605	61.0	-179192.0	-24.0	87477.0
28	18	16	40	606	62.0	-179484.0	-23.0	83159.0
28	18	16	40	607	63.0	-178193.0	-29.0	81659.0
28	18	16	40	608	64.0	-178233.0	-36.0	81679.0
28	18	16	40	608	65.0	-181528.0	-48.0	78188.0
28	18	16	40	609	66.0	-191233.0	-72.0	76242.0
28	18	16	40	610	67.0	-206593.0	-88.0	79367.0
28	18	16	40	610	68.0	-225924.0	-96.0	83244.0
28	18	16	40	611	69.0	-247946.0	-115.0	84054.0
28	18	16	40	612	70.0	-269983.0	-104.0	82652.0
28	18	16	40	612	71.0	-289415.0	-102.0	80198.0
28	18	16	40	613	72.0	-304872.0	-104.0	78269.0
28	18	16	40	614	73.0	-315612.0	-102.0	76733.0
28	18	16	40	614	83.0	-143222.0	-140.0	71010.0
28	18	16	40	615	90.0	-317072.0	-189.0	70486.0
28	18	16	40	616	91.0	-323484.0	-194.0	70402.0
28	18	16	40	616	92.0	-320497.0	-190.0	70383.0
28	18	16	40	617	93.0	-314976.0	-189.0	70144.0
28	18	16	40	617	94.0	-310687.0	-187.0	69657.0
28	18	16	40	618	95.0	-305295.0	-169.0	69818.0
28	18	16	40	619	96.0	-299287.0	-149.0	69709.0
28	18	16	40	619	97.0	-296824.0	-152.0	69218.0
28	18	16	40	620	98.0	-298032.0	-149.0	69303.0
28	18	16	40	631	99.0	-297654.0	-166.0	69628.0
28	18	16	40	632	100.0	-291576.0	-163.0	69144.0
28	18	16	40	632	101.0	-279482.0	-145.0	69285.0
28	18	16	40	633	102.0	-261236.0	-135.0	69433.0
28	18	16	40	634	103.0	-234832.0	-136.0	69822.0
28	18	16	40	634	104.0	-200045.0	-117.0	70105.0
28	18	16	40	635	105.0	-159016.0	-138.0	69525.0
28	18	16	40	636	106.0	-115743.0	-139.0	69073.0
28	18	16	40	636	107.0	-74536.0	-109.0	68753.0
28	18	16	40	653	108.0	-38591.0	-92.0	68443.0
28	18	16	40	654	109.0	-10178.0	-102.0	68000.0
28	18	16	40	654	110.0	9916.0	-99.0	67936.0
28	18	16	40	655	111.0	21584.0	-95.0	68133.0
28	18	16	40	656	112.0	25553.0	-115.0	67059.0
28	18	16	40	656	113.0	22874.0	-136.0	66765.0
28	18	16	40	676	114.0	13388.0	-152.0	67390.0
28	18	16	40	677	115.0	-2302.0	-169.0	67912.0
28	18	16	40	678	116.0	-22670.0	-187.0	67264.0
28	18	16	40	678	117.0	-46066.0	-219.0	65878.0
28	18	16	40	679	118.0	-72033.0	-256.0	64373.0
28	18	16	40	679	119.0	-100173.0	-293.0	63595.0
28	18	16	40	680	120.0	-130207.0	-321.0	63523.0
28	18	16	40	680	121.0	-161029.0	-341.0	63883.0
28	18	16	40	681	122.0	-191863.0	-364.0	64270.0
28	18	16	40	682	123.0	-222434.0	-393.0	64374.0
28	18	16	40	682	124.0	-251224.0	-405.0	64202.0
28	18	16	40	683	125.0	-277624.0	-422.0	63731.0
28	18	16	40	683	126.0	-300540.0	-431.0	63126.0
28	18	16	40	684	127.0	-319107.0	-456.0	62751.0
28	18	16	40	684	128.0	-332929.0	-478.0	61978.0
28	18	16	40	699	129.0	-341708.0	-491.0	62001.0
28	18	16	40	700	130.0	-346157.0	-509.0	62206.0
28	18	16	40	700	131.0	-346394.0	-502.0	61813.0
28	18	16	40	701	132.0	-342541.0	-524.0	61597.0
28	18	16	40	701	133.0	-335883.0	-549.0	61516.0
28	18	16	40	702	134.0	-326447.0	-562.0	61398.0
28	18	16	40	703	135.0	-314781.0	-591.0	61131.0
28	18	16	40	703	136.0	-301697.0	-647.0	60788.0
28	18	16	40	723	137.0	-287396.0	-657.0	60476.0
28	18	16	40	723	138.0	-272568.0	-646.0	59656.0
28	18	16	40	724	139.0	-257496.0	-660.0	59698.0
28	18	16	40	724	140.0	-243705.0	-681.0	59863.0
28	18	16	40	725	141.0	-230939.0	-716.0	59479.0
28	18	16	40	726	142.0	-220215.0	-741.0	58926.0
28	18	16	40	726	143.0	-212059.0	-769.0	58880.0
28	18	16	40	727	144.0	-205067.0	-790.0	58806.0
28	18	16	40	727	145.0	-199546.0	-809.0	58637.0
28	18	16	40	728	146.0	-195255.0	-832.0	58383.0
28	18	16	40	728	147.0	-192092.0	-875.0	58893.0
28	18	16	40	729	148.0	-189659.0	-928.0	58742.0
28	18	16	40	729	149.0	-188864.0	-956.0	58279.0
28	18	16	40	730	150.0	-190171.0	-971.0	57644.0
28	18	16	40	731	151.0	-192032.0	-985.0	57776.0
28	18	16	40	747	152.0	-194107.0	-1005.0	57411.0
28	18	16	40	747	153.0	-197075.0	-1008.0	57132.0
28	18	16	40	748	154.0	-200161.0	-1013.0	57053.0
28	18	16	40	748	155.0	-203827.0	-1023.0	56706.0
28	18	16	40	749	156.0	-207189.0	-1037.0	56505.0
28	18	16	40	750	157.0	-210507.0	-1057.0	56614.0
28	18	16	40	750	158.0	-212739.0	-1094.0	57487.0
28	18	16	40	751	159.0	-213995.0	-1120.0	57347.0
28	18	16	40	752	160.0	-214286.0	-1137.0	56794.0
28	18	16	40	753	161.0	-212900.0	-1137.0	57189.0
28	18	16	40	753	162.0	-211589.0	-1129.0	57195.0
28	18	16	40	754	163.0	-210492.0	-1131.0	56873.0
28	18	16	40	755	164.0	-209731.0	-1148.0	56598.0
28	18	16	40	755	165.0	-208149.0	-1158.0	56549.0
28	18	16	40	756	166.0	-205700.0	-1169.0	56027.0
28	18	16	40	779	167.0	-202418.0	-1149.0	55818.0
28	18	16	40	779	168.0	-198372.0	-1148.0	56040.0
28	18	16	40	780	169.0	-193725.0	-1154.0	55813.0
28	18	16	40	780	170.0	-189031.0	-1161.0	55996.0
28	18	16	40	781	171.0	-184322.0	-1176.0	56561.0
28	18	16	40	782	172.0	-178772.0	-1174.0	56686.0
28	18	16	40	782	173.0	-172384.0	-1173.0	56285.0
28	18	16	40	783	174.0	-164631.0	-1180.0	56321.0
28	18	16	40	783	175.0	-156160.0	-1154.0	56676.0
28	18	16	40	784	176.0	-147029.0	-1141.0	56451.0
28	18	16	40	785	177.0	-137922.0	-1126.0	56352.0
28	18	16	40	785	178.0	-129748.0	-1107.0	56354.0
28	18	16	40	786	179.0	-122724.0	-1121.0	56103.0
28	18	16	40	786	180.0	-118171.0	-1101.0	55949.0
28	18	16	40	787	181.0	-116011.0	-1092.0	56633.0
28	18	16	40	803	182.0	-115914.0	-1069.0	56762.0
28	18	16	40	804	183.0	-117619.0	-1049.0	57343.0
28	18	16	40	804	184.0	-121720.0	-1037.0	58364.0
28	18	16	40	805	185.0	-128608.0	-1014.0	59440.0
28	18	16	40	805	186.0	-136684.0	-1000.0	59831.0
28	18	16	40	806	187.0	-146552.0	-977.0	59643.0
28	18	16	40	806	188.0	-157077.0	-958.0	59786.0
28	18	16	40	807	189.0	-167860.0	-922.0	60175.0
28	18	16	40	827	190.0	-178137.0	-866.0	60293.0
28	18	16	40	828	191.0	-186957.0	-842.0	60576.0
28	18	16	40	828	192.0	-195239.0	-807.0	60809.0
28	18	16	40	829	193.0	-203126.0	-782.0	61376.0
28	18	16	40	829	194.0	-211169.0	-764.0	60940.0
28	18	16	40	830	195.0	-218625.0	-756.0	60423.0
28	18	16	40	830	196.0	-226114.0	-758.0	60549.0
28	18	16	40	831	197.0	-234024.0	-728.0	61414.0
28	18	16	40	831	198.0	-242518.0	-704.0	62416.0
28	18	16	40	832	199.0	-250638.0	-681.0	63873.0
28	18	16	40	832	200.0	-258468.0	-670.0	64865.0
28	18	16	40	833	201.0	-266393.0	-666.0	65671.0
28	18	16	40	834	202.0	-273037.0	-638.0	65785.0
28	18	16	40	834	203.0	-277737.0	-616.0	66033.0
28	18	16	40	851	204.0	-280650.0	-587.0	65879.0
28	18	16	40	852	205.0	-281446.0	-517.0	66291.0
28	18	16	40	852	206.0	-279932.0	-473.0	66642.0
28	18	16	40	853	207.0	-276027.0	-458.0	66811.0
28	18	16	40	853	208.0	-268919.0	-425.0	66266.0
28	18	16	40	854	209.0	-258038.0	-397.0	66714.0
28	18	16	40	854	210.0	-242311.0	-371.0	67186.0
28	18	16	40	855	211.0	-218711.0	-347.0	67480.0
28	18	16	40	856	212.0	-179485.0	-311.0	67734.0
28	18	16	40	856	213.0	-129353.0	-259.0	67988.0
28	18	16	40	857	214.0	-106112.0	-214.0	67644.0
28	18	16	40	857	215.0	-116708.0	-226.0	67367.0
28	18	16	40	858	216.0	-143194.0	-203.0	67096.0
28	18	16	40	858	217.0	-169523.0	-167.0	67139.0
28	18	16	40	859	218.0	-191892.0	-194.0	67384.0
28	18	16	40	874	219.0	-204646.0	-194.0	67733.0
28	18	16	40	875	220.0	-213547.0	-165.0	68678.0
28	18	16	40	875	221.0	-224601.0	-149.0	69022.0
28	18	16	40	876	222.0	-236220.0	-167.0	68453.0
28	18	16	40	876	223.0	-244949.0	-172.0	67984.0
28	18	16	40	877	224.0	-250036.0	-186.0	68278.0
28	18	16	40	877	225.0	-253070.0	-176.0	67922.0
28	18	16	40	878	226.0	-253581.0	-182.0	67416.0
28	18	16	40	897	227.0	-251120.0	-165.0	67394.0
28	18	16	40	898	228.0	-245206.0	-146.0	67129.0
28	18	16	40	899	229.0	-236339.0	-156.0	67062.0
28	18	16	40	899	230.0	-225585.0	-169.0	67384.0
28	18	16	40	900	231.0	-213626.0	-174.0	67525.0
28	18	16	40	901	232.0	-201754.0	-165.0	67474.0
28	18	16	40	901	233.0	-190495.0	-157.0	67164.0
28	18	16	40	902	234.0	-180062.0	-162.0	66419.0
28	18	16	40	902	235.0	-168724.0	-146.0	66201.0
28	18	16	40	903	236.0	-157031.0	-130.0	66214.0
28	18	16	40	903	237.0	-145627.0	-141.0	66058.0
28	18	16	40	904	238.0	-134479.0	-164.0	66479.0
28	18	16	40	905	239.0	-124073.0	-156.0	66586.0
28	18	16	40	905	240.0	-114917.0	-156.0	66554.0
28	18	16	40	906	241.0	-107219.0	-146.0	66696.0
28	18	16	40	921	242.0	-102544.0	-111.0	66231.0
28	18	16	40	921	243.0	-101054.0	-99.0	65946.0
28	18	16	40	922	244.0	-102751.0	-79.0	66255.0
28	18	16	40	923	245.0	-108077.0	-84.0	66546.0
28	18	16	40	923	246.0	-117158.0	-112.0	66698.0
28	18	16	40	924	247.0	-127478.0	-107.0	66942.0
28	18	16	40	924	248.0	-138001.0	-106.0	66541.0
28	18	16	40	944	249.0	-148944.0	-99.0	66304.0
28	18	16	40	945	250.0	-159421.0	-77.0	66351.0
28	18	16	40	946	251.0	-168129.0	-70.0	66509.0
28	18	16	40	946	252.0	-174264.0	-57.0	66396.0
28	18	16	40	947	253.0	-178591.0	-79.0	65688.0
28	18	16	40	947	254.0	-181416.0	-85.0	65939.0
28	18	16	40	948	255.0	-183648.0	-80.0	66095.0
28	18	16	40	948	0.0	-185376.0	-84.0	66341.0
28	18	16	40	949	1.0	-187607.0	-72.0	66998.0
28	18	16	40	950	2.0	-190243.0	-43.0	66628.0
28	18	16	40	950	3.0	-193717.0	-39.0	65834.0
28	18	16	40	951	4.0	-198714.0	-15.0	66120.0
28	18	16	40	951	5.0	-204987.0	-32.0	66339.0
28	18	16	40	952	6.0	-211204.0	-26.0	66251.0
28	18	16	40	952	7.0	-216593.0	-9.0	66480.0
28	18	16	40	967	8.0	-221483.0	26.0	66388.0
28	18	16	40	968	9.0	-225560.0	62.0	66004.0
28	18	16	40	968	10.0	-229073.0	95.0	66084.0
28	18	16	40	969	11.0	-232760.0	106.0	65573.0
28	18	16	40	969	12.0	-236776.0	114.0	65195.0
28	18	16	40	970	13.0	-240864.0	96.0	65314.0
28	18	16	40	970	14.0	-246455.0	107.0	65243.0
28	18	16	40	971	15.0	-253173.0	128.0	65221.0
28	18	16	40	990	16.0	-261353.0	135.0	64934.0
28	18	16	40	991	17.0	-269659.0	158.0	64773.0
28	18	16	40	991	18.0	-277840.0	130.0	64690.0
28	18	16	40	992	19.0	-285333.0	131.0	64257.0
28	18	16	40	993	20.0	-291599.0	126.0	63971.0
28	18	16	40	993	21.0	-296559.0	124.0	63452.0
28	18	16	40	994	22.0	-299391.0	115.0	62931.0
28	18	16	40	995	23.0	-300413.0	115.0	63661.0
28	18	16	40	995	24.0	-299546.0	83.0	64216.0
28	18	16	40	996	25.0	-296472.0	69.0	64356.0
28	18	16	40	996	26.0	-290528.0	59.0	64536.0
28	18	16	40	997	27.0	-282002.0	39.0	64558.0
28	18	16	40	998	28.0	-272123.0	23.0	63832.0
28	18	16	40	998	29.0	-261507.0	29.0	63491.0
28	18	16	40	999	30.0	-250389.0	9.0	63112.0
28	18	16	40	999	31.0	-239959.0	-4.0	62178.0
28	18	16	41	0	32.0	-230702.0	-17.0	62010.0
28	18	16	41	0	33.0	-222605.0	-59.0	62635.0
28	18	16	41	13	34.0	-215267.0	-58.0	63150.0
28	18	16	41	14	35.0	-208144.0	-37.0	63915.0
28	18	16	41	14	36.0	-200922.0	-54.0	64387.0
28	18	16	41	37	37.0	-193959.0	-100.0	64045.0
28	18	16	41	38	38.0	-188132.0	-134.0	63603.0
28	18	16	41	38	39.0	-183195.0	-153.0	63208.0
28	18	16	41	39	40.0	-178679.0	-187.0	62785.0
28	18	16	41	39	41.0	-175018.0	-226.0	62454.0
28	18	16	41	40	42.0	-172104.0	-265.0	61841.0
28	18	16	41	41	43.0	-169744.0	-292.0	61659.0
28	18	16	41	41	44.0	-167126.0	-326.0	61300.0
28	18	16	41	42	45.0	-164257.0	-342.0	61614.0
28	18	16	41	42	46.0	-161687.0	-377.0	61299.0
28	18	16	41	43	47.0	-159616.0	-399.0	60709.0
28	18	16	41	43	48.0	-157734.0	-432.0	60429.0
28	18	16	41	44	49.0	-156538.0	-466.0	60099.0
28	18	16	41	44	50.0	-156332.0	-504.0	59554.0
28	18	16	41	45	51.0	-156306.0	-532.0	58946.0
28	18	16	41	46	52.0	-155522.0	-552.0	58458.0
28	18	16	41	60	53.0	-154389.0	-581.0	57917.0
28	18	16	41	61	54.0	-152399.0	-624.0	58004.0
28	18	16	41	62	55.0	-149474.0	-679.0	58005.0
28	18	16	41	62	56.0	-145339.0	-729.0	57340.0
28	18	16	41	63	57.0	-140611.0	-778.0	57064.0
28	18	16	41	63	58.0	-135848.0	-822.0	57121.0
28	18	16	41	64	59.0	-131662.0	-854.0	56491.0
28	18	16	41	64	60.0	-127646.0	-887.0	56196.0
28	18	16	41	65	61.0	-124893.0	-927.0	55838.0
28	18	16	41	66	62.0	-123424.0	-958.0	54862.0
28	18	16	41	66	63.0	-123837.0	-985.0	53873.0
28	18	16	41	67	64.0	-126805.0	-996.0	53496.0
28	18	16	41	68	65.0	-131484.0	-1015.0	53313.0
28	18	16	41	68	66.0	-137769.0	-1068.0	53116.0
28	18	16	41	69	67.0	-145396.0	-1112.0	53133.0
28	18	16	41	83	68.0	-153332.0	-1138.0	53248.0
28	18	16	41	83	69.0	-161297.0	-1151.0	52410.0
28	18	16	41	84	70.0	-169531.0	-1161.0	51584.0
28	18	16	41	85	71.0	-177449.0	-1194.0	50559.0
28	18	16	41	86	72.0	-184536.0	-1209.0	49753.0
28	18	16	41	86	73.0	-190461.0	-1226.0	49453.0
28	18	16	41	87	74.0	-195513.0	-1249.0	49734.0
28	18	16	41	87	75.0	-199250.0	-1254.0	49646.0
28	18	16	41	88	76.0	-203024.0	-1261.0	49394.0
28	18	16	41	107	77.0	-207613.0	-1274.0	49605.0
28	18	16	41	107	78.0	-212556.0	-1279.0	49273.0
28	18	16	41	108	79.0	-219454.0	-1307.0	48338.0
28	18	16	41	108	80.0	-228180.0	-1340.0	48181.0
28	18	16	41	109	81.0	-237274.0	-1377.0	48006.0
28	18	16	41	129	82.0	-249149.0	-1401.0	47587.0
28	18	16	41	130	83.0	-265710.0	-1399.0	46973.0
28	18	16	41	131	84.0	-272384.0	-1401.0	46300.0
28	18	16	41	131	85.0	-262939.0	-1423.0	46266.0
28	18	16	41	132	86.0	-258481.0	-1462.0	46244.0
28	18	16	41	132	87.0	-263787.0	-1507.0	45730.0
28	18	16	41	133	88.0	-272911.0	-1544.0	45049.0
28	18	16	41	134	89.0	-284937.0	-1590.0	44563.0
28	18	16	41	134	90.0	-292728.0	-1624.0	44299.0
28	18	16	41	135	91.0	-295922.0	-1663.0	43869.0
28	18	16	41	135	92.0	-294396.0	-1729.0	43805.0
28	18	16	41	136	93.0	-289578.0	-1784.0	43528.0
28	18	16	41	137	94.0	-281379.0	-1839.0	43163.0
28	18	16	41	137	95.0	-269564.0	-1884.0	43180.0
28	18	16	41	138	96.0	-255834.0	-1928.0	43521.0
28	18	16	41	138	97.0	-242733.0	-1977.0	42698.0
28	18	16	41	139	98.0	-231207.0	-1972.0	42151.0
28	18	16	41	139	99.0	-220729.0	-1996.0	42136.0
28	18	16	41	140	100.0	-210856.0	-2024.0	41294.0
28	18	16	41	141	101.0	-201705.0	-2050.0	40312.0
28	18	16	41	141	102.0	-193037.0	-2067.0	39878.0
28	18	16	41	142	103.0	-184812.0	-2102.0	39315.0
28	18	16	41	171	104.0	-177266.0	-2147.0	39167.0
28	18	16	41	172	105.0	-170857.0	-2180.0	39524.0
28	18	16	41	173	106.0	-164904.0	-2204.0	39419.0
28	18	16	41	174	107.0	-159033.0	-2269.0	38863.0
28	18	16	41	174	108.0	-153385.0	-2316.0	38487.0
28	18	16	41	175	109.0	-147779.0	-2376.0	38842.0
28	18	16	41	176	110.0	-142631.0	-2442.0	39285.0
28	18	16	41	176	111.0	-138047.0	-2491.0	38864.0
28	18	16	41	177	112.0	-133656.0	-2528.0	37971.0
28	18	16	41	178	113.0	-129627.0	-2574.0	37443.0
28	18	16	41	178	114.0	-127778.0	-2602.0	37341.0
28	18	16	41	179	115.0	-128404.0	-2637.0	37043.0
28	18	16	41	179	116.0	-130037.0	-2674.0	36465.0
28	18	16	41	180	117.0	-132169.0	-2701.0	36096.0
28	18	16	41	181	118.0	-135436.0	-2716.0	35301.0
28	18	16	41	181	119.0	-139974.0	-2727.0	34511.0
28	18	16	41	182	120.0	-144971.0	-2740.0	33933.0
28	18	16	41	182	121.0	-150496.0	-2769.0	33463.0
28	18	16	41	183	122.0	-156185.0	-2813.0	33251.0
28	18	16	41	191	123.0	-162324.0	-2819.0	33426.0
28	18	16	41	192	124.0	-168886.0	-2819.0	32680.0
28	18	16	41	193	125.0	-175173.0	-2825.0	32189.0
28	18	16	41	193	126.0	-181484.0	-2819.0	31098.0
28	18	16	41	215	127.0	-187145.0	-2850.0	30478.0
28	18	16	41	216	128.0	-192536.0	-2894.0	29717.0
28	18	16	41	217	129.0	-197417.0	-2939.0	28772.0
28	18	16	41	217	130.0	-201291.0	-2968.0	28112.0
28	18	16	41	218	131.0	-203939.0	-2982.0	27213.0
28	18	16	41	218	132.0	-206073.0	-2998.0	26396.0
28	18	16	41	219	133.0	-208158.0	-3032.0	25828.0
28	18	16	41	220	134.0	-209514.0	-3083.0	26181.0
28	18	16	41	220	135.0	-211787.0	-3099.0	26046.0
28	18	16	41	221	136.0	-215121.0	-3109.0	25435.0
28	18	16	41	221	137.0	-218786.0	-3146.0	25997.0
28	18	16	41	222	138.0	-223141.0	-3191.0	25542.0
28	18	16	41	223	139.0	-228084.0	-3234.0	24774.0
28	18	16	41	223	140.0	-232252.0	-3272.0	24599.0
28	18	16	41	224	141.0	-235592.0	-3331.0	24695.0
28	18	16	41	224	142.0	-239137.0	-3371.0	24096.0
28	18	16	41	238	143.0	-242594.0	-3389.0	23974.0
28	18	16	41	239	144.0	-246381.0	-3409.0	24120.0
28	18	16	41	240	145.0	-252018.0	-3453.0	24011.0
28	18	16	41	240	146.0	-259140.0	-3482.0	23926.0
28	18	16	41	241	147.0	-265449.0	-3512.0	24202.0
28	18	16	41	242	148.0	-271204.0	-3552.0	24169.0
28	18	16	41	242	149.0	-276883.0	-3606.0	23969.0
28	18	16	41	262	150.0	-281379.0	-3641.0	23906.0
28	18	16	41	262	151.0	-283401.0	-3673.0	23790.0
28	18	16	41	263	152.0	-283591.0	-3719.0	23464.0
28	18	16	41	264	153.0	-281691.0	-3781.0	23409.0
28	18	16	41	264	154.0	-277390.0	-3821.0	23736.0
28	18	16	41	265	155.0	-271832.0	-3838.0	24015.0
28	18	16	41	266	156.0	-265222.0	-3876.0	23995.0
28	18	16	41	266	157.0	-257904.0	-3918.0	23149.0
28	18	16	41	267	158.0	-250925.0	-3943.0	22060.0
28	18	16	41	267	159.0	-244081.0	-3967.0	21295.0
28	18	16	41	268	160.0	-237344.0	-3998.0	20838.0
28	18	16	41	268	161.0	-229969.0	-4047.0	19969.0
28	18	16	41	269	162.0	-222953.0	-4092.0	20017.0
28	18	16	41	270	163.0	-216190.0	-4142.0	19741.0
28	18	16	41	270	164.0	-209011.0	-4202.0	19571.0
28	18	16	41	286	165.0	-201194.0	-4248.0	19925.0
28	18	16	41	287	166.0	-192126.0	-4249.0	19671.0
28	18	16	41	287	167.0	-182307.0	-4281.0	18905.0
28	18	16	41	288	168.0	-171117.0	-4342.0	18573.0
28	18	16	41	289	169.0	-158078.0	-4389.0	18232.0
28	18	16	41	289	170.0	-143486.0	-4441.0	16969.0
28	18	16	41	290	171.0	-128266.0	-4479.0	16192.0
28	18	16	41	290	172.0	-112396.0	-4514.0	16041.0
28	18	16	41	291	173.0	-96653.0	-4537.0	15216.0
28	18	16	41	292	174.0	-82144.0	-4544.0	14751.0
28	18	16	41	292	175.0	-69630.0	-4538.0	14763.0
28	18	16	41	308	176.0	-60162.0	-4577.0	13915.0
28	18	16	41	309	177.0	-55239.0	-4616.0	11772.0
28	18	16	41	310	178.0	-55457.0	-4660.0	10654.0
28	18	16	41	310	179.0	-59723.0	-4685.0	10389.0
28	18	16	41	311	180.0	-68576.0	-4664.0	10024.0
28	18	16	41	312	181.0	-80950.0	-4667.0	9865.0
28	18	16	41	312	182.0	-95384.0	-4699.0	10329.0
28	18	16	41	313	183.0	-111858.0	-4733.0	9879.0
28	18	16	41	314	184.0	-129965.0	-4753.0	9336.0
28	18	16	41	314	185.0	-148652.0	-4755.0	9376.0
28	18	16	41	315	186.0	-167029.0	-4736.0	9314.0
28	18	16	41	331	187.0	-184975.0	-4748.0	9005.0
28	18	16	41	332	188.0	-201374.0	-4763.0	11419.0
28	18	16	41	333	189.0	-214271.0	-4753.0	16689.0
28	18	16	41	333	190.0	-223221.0	-4746.0	21871.0
28	18	16	41	334	191.0	-227357.0	-4760.0	26560.0
28	18	16	41	335	192.0	-226756.0	-4784.0	27577.0
28	18	16	41	335	193.0	-223563.0	-4789.0	26181.0
28	18	16	41	336	194.0	-219201.0	-4800.0	24569.0
28	18	16	41	336	195.0	-213577.0	-4820.0	20721.0
28	18	16	41	337	196.0	-208915.0	-4821.0	19738.0
28	18	16	41	338	197.0	-207022.0	-4837.0	19389.0
28	18	16	41	338	198.0	-209051.0	-4841.0	16104.0
28	18	16	41	339	199.0	-215201.0	-4841.0	12794.0
28	18	16	41	339	200.0	-225662.0	-4835.0	14629.0
28	18	16	41	340	201.0	-238765.0	-4875.0	17989.0
28	18	16	41	354	202.0	-253666.0	-4874.0	18085.0
28	18	16	41	355	203.0	-268523.0	-4869.0	16721.0
28	18	16	41	355	204.0	-281564.0	-4889.0	14633.0
28	18	16	41	356	205.0	-291421.0	-4928.0	12147.0
28	18	16	41	357	206.0	-297756.0	-4936.0	10820.0
28	18	16	41	357	207.0	-300334.0	-4964.0	9828.0
28	18	16	41	358	208.0	-298219.0	-5003.0	8515.0
28	18	16	41	358	209.0	-289416.0	-5015.0	7525.0
28	18	16	41	359	210.0	-265612.0	-5022.0	6773.0
28	18	16	41	377	211.0	-226388.0	-5018.0	5546.0
28	18	16	41	378	212.0	-179753.0	-5002.0	4343.0
28	18	16	41	401	213.0	-136926.0	-4975.0	4464.0
28	18	16	41	402	214.0	-110629.0	-4964.0	5328.0
28	18	16	41	403	215.0	-110106.0	-4947.0	5378.0
28	18	16	41	403	216.0	-132972.0	-4954.0	5948.0
28	18	16	41	404	217.0	-167526.0	-4955.0	5909.0
28	18	16	41	405	218.0	-199679.0	-4935.0	4953.0
28	18	16	41	405	219.0	-222701.0	-4949.0	4338.0
28	18	16	41	406	220.0	-241788.0	-4960.0	4274.0
28	18	16	41	407	221.0	-261990.0	-4940.0	3936.0
28	18	16	41	407	222.0	-281411.0	-4962.0	3688.0
28	18	16	41	408	223.0	-296680.0	-4990.0	3774.0
28	18	16	41	408	224.0	-304329.0	-5026.0	3343.0
28	18	16	41	409	225.0	-302919.0	-5010.0	3568.0
28	18	16	41	410	226.0	-296182.0	-5011.0	3456.0
28	18	16	41	410	227.0	-286365.0	-5034.0	3053.0
28	18	16	41	411	228.0	-279047.0	-5035.0	3136.0
28	18	16	41	411	229.0	-276231.0	-5041.0	3796.0
28	18	16	41	412	230.0	-279534.0	-5082.0	4078.0
28	18	16	41	413	231.0	-285309.0	-5098.0	3693.0
28	18	16	41	413	232.0	-289154.0	-5121.0	3916.0
28	18	16	41	414	233.0	-287489.0	-5131.0	4032.0
28	18	16	41	415	234.0	-279482.0	-5136.0	3622.0
28	18	16	41	415	235.0	-264884.0	-5142.0	3605.0
28	18	16	41	416	236.0	-242546.0	-5131.0	4050.0
28	18	16	41	416	237.0	-212987.0	-5146.0	4123.0
28	18	16	41	417	238.0	-179419.0	-5147.0	4672.0
28	18	16	41	418	239.0	-146541.0	-5138.0	5326.0
28	18	16	41	419	240.0	-117606.0	-5146.0	4551.0
28	18	16	41	426	241.0	-93574.0	-5115.0	4165.0
28	18	16	41	427	242.0	-73876.0	-5098.0	4134.0
28	18	16	41	428	243.0	-59194.0	-5081.0	3788.0
28	18	16	41	428	244.0	-49392.0	-5072.0	4015.0
28	18	16	41	429	245.0	-45071.0	-5080.0	3951.0
28	18	16	41	430	246.0	-47327.0	-5071.0	3507.0
28	18	16	41	449	247.0	-54004.0	-5041.0	3237.0
28	18	16	41	450	248.0	-64544.0	-5000.0	3179.0
28	18	16	41	451	249.0	-77606.0	-4975.0	2874.0
28	18	16	41	452	250.0	-92204.0	-4947.0	2356.0
28	18	16	41	452	251.0	-107321.0	-4936.0	1993.0
28	18	16	41	453	252.0	-122176.0	-4927.0	1700.0
28	18	16	41	453	253.0	-136941.0	-4906.0	1126.0
28	18	16	41	454	254.0	-151932.0	-4914.0	1303.0
28	18	16	41	455	255.0	-165531.0	-4896.0	1468.0
28	18	16	41	455	0.0	-177894.0	-4896.0	1139.0
28	18	16	41	456	1.0	-189540.0	-4866.0	563.0
28	18	16	41	457	2.0	-199243.0	-4867.0	609.0
28	18	16	41	458	3.0	-207852.0	-4895.0	611.0
28	18	16	41	458	4.0	-215406.0	-4913.0	498.0
28	18	16	41	459	5.0	-221665.0	-4921.0	682.0
28	18	16	41	472	6.0	-227281.0	-4928.0	1165.0
28	18	16	41	473	7.0	-232270.0	-4930.0	772.0
28	18	16	41	474	8.0	-236262.0	-4910.0	653.0
28	18	16	41	474	9.0	-240210.0	-4901.0	-34.0
28	18	16	41	475	10.0	-243615.0	-4893.0	-698.0
28	18	16	41	476	11.0	-246580.0	-4907.0	-1359.0
28	18	16	41	476	12.0	-249935.0	-4928.0	-2371.0
28	18	16	41	477	13.0	-253781.0	-4956.0	-2402.0
28	18	16	41	496	14.0	-258533.0	-4971.0	-1892.0
28	18	16	41	497	15.0	-264630.0	-4998.0	-1793.0
28	18	16	41	498	16.0	-271715.0	-5014.0	-1053.0
28	18	16	41	499	17.0	-279577.0	-5025.0	-585.0
28	18	16	41	499	18.0	-288438.0	-5038.0	-1320.0
28	18	16	41	500	19.0	-298239.0	-5039.0	-2090.0
28	18	16	41	501	20.0	-308087.0	-5046.0	-2233.0
28	18	16	41	501	21.0	-317146.0	-5072.0	-2925.0
28	18	16	41	502	22.0	-325156.0	-5082.0	-3218.0
28	18	16	41	503	23.0	-331037.0	-5104.0	-3291.0
28	18	16	41	503	24.0	-333627.0	-5109.0	-3372.0
28	18	16	41	504	25.0	-333078.0	-5143.0	-4016.0
28	18	16	41	505	26.0	-328278.0	-5179.0	-3766.0
28	18	16	41	505	27.0	-320847.0	-5192.0	-3291.0
28	18	16	41	506	28.0	-310723.0	-5189.0	-3483.0
28	18	16	41	519	29.0	-298002.0	-5178.0	-3761.0
28	18	16	41	520	30.0	-283199.0	-5160.0	-3385.0
28	18	16	41	521	31.0	-266743.0	-5164.0	-3857.0
28	18	16	41	522	32.0	-248909.0	-5189.0	-4499.0
28	18	16	41	522	33.0	-229884.0	-5196.0	-4551.0
28	18	16	41	523	34.0	-209496.0	-5176.0	-4481.0
28	18	16	41	524	35.0	-188748.0	-5192.0	-5022.0
28	18	16	41	524	36.0	-168047.0	-5209.0	-5046.0
28	18	16	41	546	37.0	-147857.0	-5200.0	-5058.0
28	18	16	41	546	38.0	-128713.0	-5194.0	-5127.0
28	18	16	41	547	39.0	-109842.0	-5180.0	-5382.0
28	18	16	41	547	40.0	-92319.0	-5219.0	-5046.0
28	18	16	41	548	41.0	-77405.0	-5209.0	-5312.0
28	18	16	41	548	42.0	-65267.0	-5207.0	-5936.0
28	18	16	41	549	43.0	-56077.0	-5213.0	-6089.0
28	18	16	41	550	44.0	-50844.0	-5200.0	-6169.0
28	18	16	41	551	45.0	-49076.0	-5172.0	-6748.0
28	18	16	41	551	46.0	-50767.0	-5174.0	-6482.0
28	18	16	41	552	47.0	-55771.0	-5174.0	-6755.0
28	18	16	41	552	48.0	-62662.0	-5169.0	-6941.0
28	18	16	41	553	49.0	-71278.0	-5173.0	-6294.0
28	18	16	41	553	50.0	-81846.0	-5157.0	-6116.0
28	18	16	41	554	51.0	-93424.0	-5159.0	-6275.0
28	18	16	41	566	52.0	-106023.0	-5168.0	-6169.0
28	18	16	41	566	53.0	-120139.0	-5167.0	-6007.0
28	18	16	41	567	54.0	-134723.0	-5187.0	-6181.0
28	18	16	41	568	55.0	-149203.0	-5220.0	-6670.0
28	18	16	41	568	56.0	-164108.0	-5239.0	-6914.0
28	18	16	41	569	57.0	-179384.0	-5241.0	-6958.0
28	18	16	41	569	58.0	-195057.0	-5219.0	-5739.0
28	18	16	41	590	59.0	-210979.0	-5184.0	-5496.0
28	18	16	41	591	60.0	-226567.0	-5162.0	-5331.0
28	18	16	41	591	61.0	-241577.0	-5141.0	-4307.0
28	18	16	41	592	62.0	-256297.0	-5139.0	-4884.0
28	18	16	41	593	63.0	-269886.0	-5116.0	-5507.0
28	18	16	41	593	64.0	-282019.0	-5103.0	-5298.0
28	18	16	41	594	65.0	-293341.0	-5071.0	-4645.0
28	18	16	41	594	66.0	-303697.0	-5041.0	-4482.0
28	18	16	41	595	67.0	-312538.0	-4992.0	-4456.0
28	18	16	41	595	68.0	-319041.0	-4939.0	-3861.0
28	18	16	41	596	69.0	-323046.0	-4901.0	-3556.0
28	18	16	41	596	70.0	-324616.0	-4876.0	-3727.0
28	18	16	41	597	71.0	-323062.0	-4862.0	-3274.0
28	18	16	41	598	72.0	-318401.0	-4834.0	-3307.0
28	18	16	41	598	73.0	-310841.0	-4786.0	-3159.0
28	18	16	41	612	74.0	-300279.0	-4761.0	-2534.0
28	18	16	41	612	75.0	-287410.0	-4735.0	-2286.0
28	18	16	41	613	76.0	-273057.0	-4702.0	-1826.0
28	18	16	41	614	77.0	-257919.0	-4671.0	-1487.0
28	18	16	41	614	78.0	-243537.0	-4626.0	-1022.0
28	18	16	41	615	79.0	-230186.0	-4594.0	-639.0
28	18	16	41	615	80.0	-217341.0	-4573.0	-477.0
28	18	16	41	635	81.0	-205369.0	-4558.0	-514.0
28	18	16	41	635	82.0	-194260.0	-4497.0	-324.0
28	18	16	41	636	83.0	-182937.0	-4437.0	-197.0
28	18	16	41	637	84.0	-170864.0	-4406.0	-329.0
28	18	16	41	637	85.0	-157366.0	-4356.0	-734.0
28	18	16	41	638	86.0	-141654.0	-4336.0	-257.0
28	18	16	41	638	87.0	-124664.0	-4292.0	-119.0
28	18	16	41	639	88.0	-106366.0	-4244.0	116.0
28	18	16	41	639	89.0	-86181.0	-4185.0	429.0
28	18	16	41	640	90.0	-61737.0	-4146.0	562.0
28	18	16	41	641	91.0	-30919.0	-4118.0	-140.0
28	18	16	41	641	92.0	6552.0	-4094.0	-422.0
28	18	16	41	642	93.0	19759.0	-4057.0	159.0
28	18	16	41	642	94.0	218.0	-4044.0	-490.0
28	18	16	41	643	95.0	-33197.0	-4016.0	-1454.0
28	18	16	41	657	96.0	-69694.0	-3951.0	-839.0
28	18	16	41	658	97.0	-105016.0	-3876.0	-304.0
28	18	16	41	658	98.0	-132767.0	-3826.0	-268.0
28	18	16	41	659	99.0	-155620.0	-3779.0	154.0
28	18	16	41	660	100.0	-178715.0	-3709.0	1463.0
28	18	16	41	660	101.0	-203419.0	-3648.0	1084.0
28	18	16	41	661	102.0	-226917.0	-3617.0	-262.0
28	18	16	41	661	103.0	-248332.0	-3579.0	98.0
28	18	16	41	679	104.0	-268442.0	-3517.0	130.0
28	18	16	41	680	105.0	-286490.0	-3497.0	-742.0
28	18	16	41	680	106.0	-302572.0	-3461.0	-181.0
28	18	16	41	681	107.0	-315727.0	-3445.0	-165.0
28	18	16	41	682	108.0	-323859.0	-3429.0	-239.0
28	18	16	41	682	109.0	-326442.0	-3381.0	-174.0
28	18	16	41	683	110.0	-323982.0	-3354.0	-146.0
28	18	16	41	683	111.0	-316781.0	-3329.0	-640.0
28	18	16	41	684	112.0	-305682.0	-3300.0	-906.0
28	18	16	41	684	113.0	-291688.0	-3296.0	-922.0
28	18	16	41	685	114.0	-275134.0	-3314.0	-982.0
28	18	16	41	686	115.0	-257326.0	-3323.0	-1196.0
28	18	16	41	686	116.0	-239696.0	-3341.0	-886.0
28	18	16	41	687	117.0	-223743.0	-3340.0	-707.0
28	18	16	41	687	118.0	-210122.0	-3354.0	-648.0
28	18	16	41	701	119.0	-198429.0	-3352.0	-312.0
28	18	16	41	702	120.0	-188160.0	-3365.0	-387.0
28	18	16	41	702	121.0	-178052.0	-3377.0	-346.0
28	18	16	41	703	122.0	-169087.0	-3387.0	-292.0
28	18	16	41	703	123.0	-160922.0	-3398.0	-579.0
28	18	16	41	704	124.0	-153059.0	-3420.0	-747.0
28	18	16	41	705	125.0	-145917.0	-3441.0	-961.0
28	18	16	41	724	126.0	-139881.0	-3447.0	-1004.0
28	18	16	41	725	127.0	-134844.0	-3426.0	-899.0
28	18	16	41	725	128.0	-130146.0	-3410.0	-548.0
28	18	16	41	726	129.0	-125959.0	-3406.0	-690.0
28	18	16	41	727	130.0	-123559.0	-3404.0	-1132.0
28	18	16	41	727	131.0	-123555.0	-3406.0	-841.0
28	18	16	41	728	132.0	-125767.0	-3407.0	-958.0
28	18	16	41	728	133.0	-130391.0	-3383.0	-1217.0
28	18	16	41	729	134.0	-136981.0	-3364.0	-1358.0
28	18	16	41	730	135.0	-145277.0	-3358.0	-1536.0
28	18	16	41	730	136.0	-154521.0	-3353.0	-1995.0
28	18	16	41	731	137.0	-163870.0	-3372.0	-2146.0
28	18	16	41	731	138.0	-173347.0	-3389.0	-1824.0
28	18	16	41	732	139.0	-182376.0	-3389.0	-1695.0
28	18	16	41	732	140.0	-190343.0	-3412.0	-869.0
28	18	16	41	746	141.0	-197769.0	-3413.0	214.0
28	18	16	41	747	142.0	-204827.0	-3407.0	989.0
28	18	16	41	747	143.0	-212329.0	-3391.0	959.0
28	18	16	41	748	144.0	-220523.0	-3413.0	321.0
28	18	16	41	748	145.0	-228622.0	-3466.0	-114.0
28	18	16	41	749	146.0	-237370.0	-3486.0	-182.0
28	18	16	41	750	147.0	-246801.0	-3487.0	336.0
28	18	16	41	750	148.0	-256639.0	-3503.0	501.0
28	18	16	41	768	149.0	-266232.0	-3521.0	589.0
28	18	16	41	768	150.0	-273404.0	-3539.0	387.0
28	18	16	41	769	151.0	-278320.0	-3586.0	-11.0
28	18	16	41	770	152.0	-280739.0	-3616.0	-162.0
28	18	16	41	770	153.0	-280226.0	-3624.0	-625.0
28	18	16	41	771	154.0	-276524.0	-3630.0	-606.0
28	18	16	41	771	155.0	-269840.0	-3646.0	-221.0
28	18	16	41	772	156.0	-260605.0	-3666.0	202.0
28	18	16	41	772	157.0	-248966.0	-3683.0	152.0
28	18	16	41	773	158.0	-235346.0	-3714.0	34.0
28	18	16	41	774	159.0	-219744.0	-3746.0	358.0
28	18	16	41	774	160.0	-203242.0	-3777.0	144.0
28	18	16	41	775	161.0	-186884.0	-3817.0	-288.0
28	18	16	41	775	162.0	-171149.0	-3851.0	414.0
28	18	16	41	776	163.0	-155860.0	-3884.0	267.0
28	18	16	41	790	164.0	-141926.0	-3902.0	-246.0
28	18	16	41	790	165.0	-129994.0	-3906.0	-242.0
28	18	16	41	791	166.0	-119464.0	-3911.0	-49.0
28	18	16	41	792	167.0	-110334.0	-3943.0	-7.0
28	18	16	41	792	168.0	-102720.0	-3966.0	331.0
28	18	16	41	793	169.0	-96777.0	-3971.0	970.0
28	18	16	41	793	170.0	-92441.0	-3981.0	1068.0
28	18	16	41	812	171.0	-90129.0	-3992.0	845.0
28	18	16	41	812	172.0	-90673.0	-4009.0	868.0
28	18	16	41	813	173.0	-94534.0	-4014.0	396.0
28	18	16	41	814	174.0	-101717.0	-4029.0	-12.0
28	18	16	41	814	175.0	-111680.0	-4037.0	-471.0
28	18	16	41	815	176.0	-123568.0	-4065.0	-605.0
28	18	16	41	816	177.0	-137631.0	-4082.0	-519.0
28	18	16	41	816	178.0	-153014.0	-4094.0	-386.0
28	18	16	41	817	179.0	-168463.0	-4066.0	-451.0
28	18	16	41	817	180.0	-183151.0	-4062.0	-749.0
28	18	16	41	818	181.0	-197679.0	-4075.0	-73.0
28	18	16	41	819	182.0	-212245.0	-4086.0	223.0
28	18	16	41	819	183.0	-226376.0	-4104.0	-96.0
28	18	16	41	820	184.0	-239385.0	-4119.0	-529.0
28	18	16	41	821	185.0	-250391.0	-4139.0	-190.0
28	18	16	41	832	186.0	-259466.0	-4151.0	-95.0
28	18	16	41	833	187.0	-266334.0	-4132.0	238.0
28	18	16	41	834	188.0	-271096.0	-4121.0	1411.0
28	18	16	41	834	189.0	-274332.0	-4147.0	2175.0
28	18	16	41	835	190.0	-276841.0	-4149.0	1986.0
28	18	16	41	836	191.0	-278194.0	-4142.0	1311.0
28	18	16	41	836	192.0	-278412.0	-4136.0	636.0
28	18	16	41	837	193.0	-277232.0	-4159.0	549.0
28	18	16	41	855	194.0	-273991.0	-4131.0	471.0
28	18	16	41	855	195.0	-268035.0	-4101.0	519.0
28	18	16	41	856	196.0	-259310.0	-4102.0	439.0
28	18	16	41	857	197.0	-248956.0	-4080.0	522.0
28	18	16	41	857	198.0	-237337.0	-4081.0	809.0
28	18	16	41	858	199.0	-224842.0	-4077.0	472.0
28	18	16	41	858	200.0	-213029.0	-4086.0	299.0
28	18	16	41	859	201.0	-201886.0	-4073.0	831.0
28	18	16	41	860	202.0	-191561.0	-4055.0	646.0
28	18	16	41	861	203.0	-182165.0	-4047.0	-80.0
28	18	16	41	861	204.0	-174593.0	-4061.0	-191.0
28	18	16	41	862	205.0	-168404.0	-4050.0	-463.0
28	18	16	41	863	206.0	-164028.0	-4041.0	-384.0
28	18	16	41	863	207.0	-161993.0	-4043.0	-188.0
28	18	16	41	864	208.0	-161962.0	-4029.0	275.0
28	18	16	41	879	209.0	-163466.0	-3990.0	235.0
28	18	16	41	879	210.0	-166045.0	-3978.0	423.0
28	18	16	41	880	211.0	-169083.0	-3987.0	551.0
28	18	16	41	881	212.0	-172828.0	-3992.0	-201.0
28	18	16	41	881	213.0	-176814.0	-3982.0	-1007.0
28	18	16	41	882	214.0	-180602.0	-3964.0	-1239.0
28	18	16	41	882	215.0	-185780.0	-3971.0	-1871.0
28	18	16	41	902	216.0	-192305.0	-3981.0	-1701.0
28	18	16	41	902	217.0	-200286.0	-3954.0	-273.0
28	18	16	41	903	218.0	-209792.0	-3947.0	456.0
28	18	16	41	904	219.0	-219369.0	-3971.0	792.0
28	18	16	41	904	220.0	-228424.0	-3979.0	1243.0
28	18	16	41	905	221.0	-236106.0	-3981.0	658.0
28	18	16	41	906	222.0	-241652.0	-3996.0	21.0
28	18	16	41	906	223.0	-245177.0	-3983.0	84.0
28	18	16	41	907	224.0	-247476.0	-3984.0	-237.0
28	18	16	41	908	225.0	-248642.0	-3961.0	-326.0
28	18	16	41	908	226.0	-248064.0	-3961.0	-242.0
28	18	16	41	909	227.0	-245611.0	-3953.0	-294.0
28	18	16	41	909	228.0	-240901.0	-3954.0	-317.0
28	18	16	41	910	229.0	-233725.0	-3938.0	-555.0
28	18	16	41	910	230.0	-224386.0	-3911.0	-484.0
28	18	16	41	925	231.0	-213044.0	-3887.0	-639.0
28	18	16	41	926	232.0	-200408.0	-3859.0	-410.0
28	18	16	41	926	233.0	-187801.0	-3827.0	-10.0
28	18	16	41	927	234.0	-176364.0	-3837.0	77.0
28	18	16	41	928	235.0	-166666.0	-3837.0	-210.0
28	18	16	41	928	236.0	-158812.0	-3837.0	-412.0
28	18	16	41	929	237.0	-151686.0	-3861.0	14.0
28	18	16	41	929	238.0	-145068.0	-3884.0	704.0
28	18	16	41	949	239.0	-140087.0	-3884.0	686.0
28	18	16	41	950	240.0	-136746.0	-3896.0	193.0
28	18	16	41	950	241.0	-134983.0	-3935.0	196.0
28	18	16	41	951	242.0	-134853.0	-3977.0	61.0
28	18	16	41	952	243.0	-136984.0	-4013.0	-376.0
28	18	16	41	952	244.0	-140572.0	-4067.0	-581.0
28	18	16	41	953	245.0	-144777.0	-4100.0	-441.0
28	18	16	41	954	246.0	-149001.0	-4099.0	-206.0
28	18	16	41	954	247.0	-155004.0	-4082.0	-235.0
28	18	16	41	955	248.0	-163106.0	-4096.0	-301.0
28	18	16	41	955	249.0	-171858.0	-4110.0	-182.0
28	18	16	41	956	250.0	-181456.0	-4123.0	-1004.0
28	18	16	41	957	251.0	-192312.0	-4121.0	-1141.0
28	18	16	41	957	252.0	-204339.0	-4091.0	-1006.0
28	18	16	41	972	253.0	-216881.0	-4074.0	-1649.0
28	18	16	41	973	254.0	-230383.0	-4069.0	-1679.0
28	18	16	41	973	255.0	-245594.0	-4080.0	-403.0
28	18	16	41	974	0.0	-262111.0	-4130.0	351.0
28	18	16	41	975	1.0	-278678.0	-4161.0	-224.0
28	18	16	41	975	2.0	-293908.0	-4212.0	1.0
28	18	16	41	976	3.0	-307129.0	-4247.0	73.0
28	18	16	41	976	4.0	-317630.0	-4282.0	159.0
28	18	16	41	998	5.0	-324766.0	-4316.0	-241.0
28	18	16	41	998	6.0	-328316.0	-4334.0	-459.0
28	18	16	41	999	7.0	-329146.0	-4381.0	-401.0
28	18	16	42	0	8.0	-326609.0	-4436.0	-396.0
28	18	16	42	0	9.0	-321359.0	-4480.0	-846.0
28	18	16	42	1	10.0	-312846.0	-4524.0	-882.0
28	18	16	42	1	11.0	-301324.0	-4558.0	-512.0
28	18	16	42	2	12.0	-286862.0	-4583.0	-722.0
28	18	16	42	3	13.0	-269051.0	-4583.0	-675.0
28	18	16	42	3	14.0	-248436.0	-4594.0	-580.0
28	18	16	42	4	15.0	-226652.0	-4617.0	-675.0
28	18	16	42	4	16.0	-204379.0	-4629.0	-1081.0
28	18	16	42	5	17.0	-181462.0	-4666.0	-1212.0
28	18	16	42	5	18.0	-158767.0	-4696.0	-869.0
28	18	16	42	6	19.0	-137490.0	-4732.0	-1103.0
28	18	16	42	21	20.0	-118744.0	-4752.0	-714.0
28	18	16	42	22	21.0	-103236.0	-4727.0	46.0
28	18	16	42	23	22.0	-91791.0	-4720.0	94.0
28	18	16	42	23	23.0	-84889.0	-4745.0	61.0
28	18	16	42	24	24.0	-82426.0	-4767.0	-35.0
28	18	16	42	25	25.0	-83508.0	-4778.0	-246.0
28	18	16	42	25	26.0	-87347.0	-4802.0	-576.0
28	18	16	42	26	27.0	-93510.0	-4804.0	-587.0
28	18	16	42	27	28.0	-101094.0	-4793.0	-837.0
28	18	16	42	27	29.0	-109201.0	-4787.0	-1050.0
28	18	16	42	47	30.0	-117402.0	-4778.0	-857.0
28	18	16	42	48	31.0	-125974.0	-4776.0	-537.0
28	18	16	42	48	32.0	-134924.0	-4777.0	-563.0
28	18	16	42	49	33.0	-144136.0	-4794.0	-319.0
28	18	16	42	49	34.0	-153111.0	-4790.0	-11.0
28	18	16	42	50	35.0	-161784.0	-4756.0	234.0
28	18	16	42	51	36.0	-170270.0	-4786.0	273.0
28	18	16	42	51	37.0	-179092.0	-4806.0	157.0
28	18	16	42	52	38.0	-188795.0	-4828.0	-530.0
28	18	16	42	52	39.0	-199496.0	-4845.0	-667.0
28	18	16	42	53	40.0	-210157.0	-4861.0	-571.0
28	18	16	42	54	41.0	-220445.0	-4881.0	-216.0
28	18	16	42	54	42.0	-229990.0	-4874.0	-203.0
28	18	16	42	55	43.0	-238547.0	-4885.0	69.0
28	18	16	42	56	44.0	-245521.0	-4901.0	-279.0
28	18	16	42	56	45.0	-250514.0	-4884.0	-449.0
28	18	16	42	57	46.0	-254186.0	-4891.0	-510.0
28	18	16	42	57	47.0	-256877.0	-4915.0	-1001.0
28	18	16	42	58	48.0	-258722.0	-4944.0	-1566.0
28	18	16	42	71	49.0	-260237.0	-4972.0	-1712.0
28	18	16	42	72	50.0	-261427.0	-4966.0	-1549.0
28	18	16	42	73	51.0	-262366.0	-4981.0	-1436.0
28	18	16	42	73	52.0	-262176.0	-5001.0	-1276.0
28	18	16	42	74	53.0	-259477.0	-5025.0	-1235.0
28	18	16	42	75	54.0	-254321.0	-5044.0	-1393.0
28	18	16	42	75	55.0	-247667.0	-5056.0	-1511.0
28	18	16	42	76	56.0	-239916.0	-5059.0	-1467.0
28	18	16	42	76	57.0	-231754.0	-5064.0	-2474.0
28	18	16	42	92	58.0	-223450.0	-5073.0	-4146.0
28	18	16	42	93	59.0	-215445.0	-5086.0	-4904.0
28	18	16	42	94	60.0	-207456.0	-5100.0	-5132.0
28	18	16	42	94	61.0	-199324.0	-5122.0	-4722.0
28	18	16	42	95	62.0	-191546.0	-5136.0	-4397.0
28	18	16	42	96	63.0	-185269.0	-5146.0	-3475.0
28	18	16	42	116	64.0	-180440.0	-5169.0	-2822.0
28	18	16	42	117	65.0	-176991.0	-5149.0	-2416.0
28	18	16	42	118	66.0	-175082.0	-5155.0	-2027.0
28	18	16	42	118	67.0	-174611.0	-5165.0	-2065.0
28	18	16	42	119	68.0	-174267.0	-5186.0	-2222.0
28	18	16	42	120	69.0	-172669.0	-5204.0	-527.0
28	18	16	42	120	70.0	-169584.0	-5205.0	4268.0
28	18	16	42	121	71.0	-164983.0	-5216.0	10224.0
28	18	16	42	121	72.0	-159065.0	-5205.0	15756.0
28	18	16	42	122	73.0	-151861.0	-5196.0	17821.0
28	18	16	42	122	74.0	-144546.0	-5182.0	18163.0
28	18	16	42	123	75.0	-139111.0	-5186.0	17936.0
28	18	16	42	124	76.0	-136607.0	-5170.0	13824.0
28	18	16	42	124	77.0	-138181.0	-5143.0	9384.0
28	18	16	42	125	78.0	-144817.0	-5121.0	8199.0
28	18	16	42	139	79.0	-157040.0	-5107.0	7363.0
28	18	16	42	140	80.0	-175897.0	-5086.0	4928.0
28	18	16	42	141	81.0	-200433.0	-5061.0	5043.0
28	18	16	42	142	82.0	-228687.0	-5058.0	7806.0
28	18	16	42	142	83.0	-258182.0	-5071.0	8833.0
28	18	16	42	143	84.0	-286444.0	-5042.0	7341.0
28	18	16	42	143	85.0	-310145.0	-5039.0	5345.0
28	18	16	42	144	86.0	-326624.0	-5034.0	2800.0
28	18	16	42	145	87.0	-334981.0	-5031.0	1161.0
28	18	16	42	161	88.0	-334370.0	-5030.0	-214.0
28	18	16	42	162	89.0	-325308.0	-5029.0	-1402.0
28	18	16	42	163	90.0	-307577.0	-5042.0	-1821.0
28	18	16	42	164	91.0	-274417.0	-5061.0	-2446.0
28	18	16	42	164	92.0	-219545.0	-5081.0	-2818.0
28	18	16	42	165	93.0	-146939.0	-5076.0	-2504.0
28	18	16	42	166	94.0	-76247.0	-5088.0	-2544.0
28	18	16	42	167	95.0	-23032.0	-5099.0	-3124.0
28	18	16	42	167	96.0	684.0	-5122.0	-3704.0
28	18	16	42	168	97.0	-7205.0	-5141.0	-3762.0
28	18	16	42	168	98.0	-34787.0	-5162.0	-4345.0
28	18	16	42	169	99.0	-62527.0	-5183.0	-4483.0
28	18	16	42	170	100.0	-78671.0	-5194.0	-3912.0
28	18	16	42	170	101.0	-84714.0	-5211.0	-3797.0
28	18	16	42	171	102.0	-87951.0	-5214.0	-4156.0
28	18	16	42	184	103.0	-96631.0	-5207.0	-4237.0
28	18	16	42	185	104.0	-113019.0	-5210.0	-4871.0
28	18	16	42	186	105.0	-131432.0	-5237.0	-4950.0
28	18	16	42	187	106.0	-145464.0	-5276.0	-4326.0
28	18	16	42	187	107.0	-153372.0	-5299.0	-3567.0
28	18	16	42	188	108.0	-159482.0	-5316.0	-3726.0
28	18	16	42	209	109.0	-162654.0	-5319.0	-4072.0
28	18	16	42	209	110.0	-162721.0	-5317.0	-4660.0
28	18	16	42	210	111.0	-168959.0	-5331.0	-4474.0
28	18	16	42	211	112.0	-176549.0	-5335.0	-3442.0
28	18	16	42	211	113.0	-184421.0	-5337.0	-3113.0
28	18	16	42	212	114.0	-197374.0	-5326.0	-3560.0
28	18	16	42	213	115.0	-215232.0	-5322.0	-4089.0
28	18	16	42	213	116.0	-234206.0	-5320.0	-4482.0
28	18	16	42	214	117.0	-250698.0	-5304.0	-4649.0
28	18	16	42	214	118.0	-262779.0	-5279.0	-5247.0
28	18	16	42	215	119.0	-270137.0	-5262.0	-4976.0
28	18	16	42	216	120.0	-275515.0	-5272.0	-4529.0
28	18	16	42	216	121.0	-281657.0	-5262.0	-4064.0
28	18	16	42	217	122.0	-289774.0	-5263.0	-3871.0
28	18	16	42	217	123.0	-299825.0	-5251.0	-4214.0
28	18	16	42	218	124.0	-311391.0	-5265.0	-4349.0
28	18	16	42	231	125.0	-322246.0	-5261.0	-4540.0
28	18	16	42	232	126.0	-331099.0	-5271.0	-4932.0
28	18	16	42	233	127.0	-337757.0	-5285.0	-5017.0
28	18	16	42	234	128.0	-342263.0	-5312.0	-5136.0
28	18	16	42	234	129.0	-344387.0	-5317.0	-5393.0
28	18	16	42	235	130.0	-344203.0	-5329.0	-5596.0
28	18	16	42	236	131.0	-341848.0	-5351.0	-5639.0
28	18	16	42	236	132.0	-337506.0	-5339.0	-5724.0
28	18	16	42	237	133.0	-331341.0	-5314.0	-5994.0
28	18	16	42	238	134.0	-323750.0	-5332.0	-6376.0
28	18	16	42	238	135.0	-315011.0	-5344.0	-6297.0
28	18	16	42	239	136.0	-304886.0	-5356.0	-7387.0
28	18	16	42	240	137.0	-291874.0	-5382.0	-10724.0
28	18	16	42	240	138.0	-275107.0	-5394.0	-15352.0
28	18	16	42	241	139.0	-254826.0	-5411.0	-18319.0
28	18	16	42	253	140.0	-231931.0	-5437.0	-20769.0
28	18	16	42	254	141.0	-207026.0	-5407.0	-22281.0
28	18	16	42	255	142.0	-180132.0	-5423.0	-23371.0
28	18	16	42	256	143.0	-151205.0	-5451.0	-24901.0
28	18	16	42	256	144.0	-120604.0	-5491.0	-25713.0
28	18	16	42	257	145.0	-89552.0	-5509.0	-26576.0
28	18	16	42	258	146.0	-59368.0	-5512.0	-28221.0
28	18	16	42	277	147.0	-31446.0	-5506.0	-28677.0
28	18	16	42	278	148.0	-7247.0	-5494.0	-28866.0
28	18	16	42	278	149.0	11964.0	-5504.0	-29738.0
28	18	16	42	279	150.0	24829.0	-5524.0	-31518.0
28	18	16	42	280	151.0	31411.0	-5525.0	-32336.0
28	18	16	42	281	152.0	31808.0	-5517.0	-32987.0
