28	17	52	20	494	138.0	-262837.0	-4871.0	7403807.0
28	17	52	20	496	139.0	-268978.0	-4909.0	7395584.0
28	17	52	20	499	140.0	-273562.0	-4951.0	7387048.0
28	17	52	20	501	141.0	-277302.0	-4952.0	7379153.0
28	17	52	20	503	142.0	-279232.0	-4962.0	7372427.0
28	17	52	20	505	143.0	-279610.0	-5010.0	7364904.0
28	17	52	20	507	144.0	-278679.0	-5026.0	7357229.0
28	17	52	20	509	145.0	-276877.0	-5031.0	7349661.0
28	17	52	20	511	146.0	-274330.0	-5042.0	7343053.0
28	17	52	20	513	147.0	-270797.0	-5038.0	7335018.0
28	17	52	20	514	148.0	-266716.0	-5071.0	7327027.0
28	17	52	20	515	149.0	-261912.0	-5101.0	7318561.0
28	17	52	20	515	150.0	-257004.0	-5130.0	7311453.0
28	17	52	20	516	151.0	-252466.0	-5146.0	7303889.0
28	17	52	20	517	152.0	-248038.0	-5191.0	7295443.0
28	17	52	20	526	153.0	-244502.0	-5242.0	7287471.0
28	17	52	20	527	154.0	-242201.0	-5285.0	7280331.0
28	17	52	20	528	155.0	-240544.0	-5287.0	7272188.0
28	17	52	20	528	156.0	-239994.0	-5327.0	7264072.0
28	17	52	20	529	157.0	-240566.0	-5348.0	7256876.0
28	17	52	20	529	158.0	-242166.0	-5352.0	7249503.0
28	17	52	20	556	159.0	-245096.0	-5348.0	7243044.0
28	17	52	20	557	160.0	-248315.0	-5385.0	7235983.0
28	17	52	20	580	161.0	-251011.0	-5392.0	7228624.0
28	17	52	20	606	162.0	-253636.0	-5401.0	7220200.0
28	17	52	20	606	163.0	-255864.0	-5432.0	7212486.0
28	17	52	20	607	164.0	-257291.0	-5466.0	7205451.0
28	17	52	20	608	165.0	-258444.0	-5462.0	7199133.0
28	17	52	20	608	166.0	-259258.0	-5452.0	7192852.0
28	17	52	20	609	167.0	-259226.0	-5457.0	7186263.0
28	17	52	20	610	168.0	-258637.0	-5457.0	7178856.0
28	17	52	20	611	169.0	-257730.0	-5462.0	7171202.0
28	17	52	20	611	170.0	-256587.0	-5473.0	7164826.0
28	17	52	20	612	171.0	-255477.0	-5497.0	7157374.0
28	17	52	20	613	172.0	-254499.0	-5502.0	7150534.0
28	17	52	20	613	173.0	-254206.0	-5502.0	7143489.0
28	17	52	20	614	174.0	-254370.0	-5507.0	7136803.0
28	17	52	20	614	175.0	-254949.0	-5511.0	7129739.0
28	17	52	20	652	176.0	-255929.0	-5492.0	7122896.0
28	17	52	20	653	197.0	-242196.0	-5617.0	6954753.0
28	17	52	20	653	198.0	-237476.0	-5604.0	6943399.0
28	17	52	20	654	199.0	-233353.0	-5596.0	6935026.0
28	17	52	20	655	200.0	-229015.0	-5598.0	6928208.0
28	17	52	20	655	201.0	-224089.0	-5599.0	6920598.0
28	17	52	20	656	202.0	-218014.0	-5600.0	6910063.0
28	17	52	20	657	203.0	-211726.0	-5609.0	6900420.0
28	17	52	20	657	204.0	-205546.0	-5604.0	6891804.0
28	17	52	20	658	205.0	-199256.0	-5627.0	6884451.0
28	17	52	20	658	206.0	-193024.0	-5639.0	6876214.0
28	17	52	20	659	207.0	-187348.0	-5663.0	6866981.0
28	17	52	20	660	208.0	-182135.0	-5659.0	6859529.0
28	17	52	20	660	209.0	-177981.0	-5659.0	6851549.0
28	17	52	20	661	210.0	-174747.0	-5683.0	6843286.0
28	17	52	20	662	211.0	-172689.0	-5678.0	6836778.0
28	17	52	20	662	220.0	-163026.0	-5881.0	6737459.0
28	17	52	20	663	221.0	-159484.0	-5895.0	6731899.0
28	17	52	20	663	222.0	-155580.0	-5897.0	6728644.0
28	17	52	20	664	223.0	-152182.0	-5910.0	6727745.0
28	17	52	20	665	224.0	-148738.0	-5912.0	6725829.0
28	17	52	20	665	225.0	-145176.0	-5902.0	6725798.0
28	17	52	20	666	226.0	-141870.0	-5919.0	6733775.0
28	17	52	20	696	227.0	-138230.0	-5919.0	6742366.0
28	17	52	20	696	228.0	-135627.0	-5904.0	6742565.0
28	17	52	20	697	229.0	-134833.0	-5927.0	6734493.0
28	17	52	20	698	230.0	-136168.0	-5929.0	6724411.0
28	17	52	20	698	231.0	-140567.0	-5929.0	6715240.0
28	17	52	20	699	232.0	-148461.0	-5928.0	6706987.0
28	17	52	20	699	233.0	-158902.0	-5929.0	6696975.0
28	17	52	20	700	234.0	-169866.0	-5929.0	6687678.0
28	17	52	20	701	235.0	-179197.0	-5920.0	6678908.0
28	17	52	20	701	236.0	-185791.0	-5907.0	6668408.0
28	17	52	20	702	237.0	-189973.0	-5913.0	6658386.0
28	17	52	20	702	238.0	-191769.0	-5916.0	6650923.0
28	17	52	20	703	239.0	-191903.0	-5894.0	6642901.0
28	17	52	20	704	240.0	-191142.0	-5892.0	6634566.0
28	17	52	20	704	241.0	-190206.0	-5891.0	6625811.0
28	17	52	20	705	242.0	-189731.0	-5895.0	6617449.0
28	17	52	20	705	243.0	-186660.0	-5897.0	6610249.0
28	17	52	20	706	244.0	-177406.0	-5891.0	6603394.0
28	17	52	20	706	245.0	-160929.0	-5869.0	6596827.0
28	17	52	20	707	246.0	-137300.0	-5842.0	6590776.0
28	17	52	20	715	247.0	-109634.0	-5840.0	6584340.0
28	17	52	20	716	248.0	-83529.0	-5837.0	6577244.0
28	17	52	20	739	249.0	-66440.0	-5833.0	6569962.0
28	17	52	20	740	250.0	-63349.0	-5818.0	6562496.0
28	17	52	20	741	251.0	-72077.0	-5828.0	6555256.0
28	17	52	20	741	252.0	-88813.0	-5826.0	6548180.0
28	17	52	20	742	253.0	-113319.0	-5806.0	6541414.0
28	17	52	20	742	254.0	-141849.0	-5781.0	6535054.0
28	17	52	20	743	255.0	-168355.0	-5766.0	6525029.0
28	17	52	20	785	0.0	-190936.0	-5761.0	6513221.0
28	17	52	20	785	1.0	-199843.0	-5767.0	6502335.0
28	17	52	20	786	2.0	-202361.0	-5771.0	6492746.0
28	17	52	20	787	3.0	-208586.0	-5770.0	6483869.0
28	17	52	20	787	4.0	-214350.0	-5763.0	6476313.0
28	17	52	20	788	5.0	-219557.0	-5754.0	6468394.0
28	17	52	20	789	6.0	-224139.0	-5744.0	6458223.0
28	17	52	20	789	7.0	-228624.0	-5751.0	6447950.0
28	17	52	20	790	9.0	-235932.0	-5747.0	6431324.0
28	17	52	20	790	10.0	-233956.0	-5746.0	6423388.0
28	17	52	20	791	11.0	-227385.0	-5746.0	6415400.0
28	17	52	20	792	12.0	-217736.0	-5742.0	6406653.0
28	17	52	20	792	13.0	-206550.0	-5730.0	6397745.0
28	17	52	20	793	14.0	-194722.0	-5735.0	6387674.0
28	17	52	20	793	15.0	-182721.0	-5721.0	6379375.0
28	17	52	20	794	16.0	-170724.0	-5717.0	6370777.0
28	17	52	20	795	31.0	-159934.0	-5852.0	6261859.0
28	17	52	20	795	32.0	-166229.0	-5857.0	6254809.0
28	17	52	20	796	33.0	-171617.0	-5860.0	6247227.0
28	17	52	20	796	34.0	-176231.0	-5862.0	6241114.0
28	17	52	20	797	35.0	-180523.0	-5843.0	6235322.0
28	17	52	20	797	36.0	-183475.0	-5862.0	6228895.0
28	17	52	20	798	37.0	-184938.0	-5875.0	6221779.0
28	17	52	20	831	38.0	-185812.0	-5886.0	6215486.0
28	17	52	20	832	39.0	-185619.0	-5899.0	6208846.0
28	17	52	20	832	40.0	-184488.0	-5901.0	6201586.0
28	17	52	20	833	41.0	-182742.0	-5910.0	6195508.0
28	17	52	20	834	42.0	-180547.0	-5929.0	6188983.0
28	17	52	20	834	43.0	-178281.0	-5969.0	6182679.0
28	17	52	20	835	44.0	-175416.0	-6005.0	6176688.0
28	17	52	20	836	45.0	-171843.0	-6017.0	6170476.0
28	17	52	20	836	46.0	-168145.0	-6025.0	6164209.0
28	17	52	20	837	47.0	-164292.0	-6056.0	6157433.0
28	17	52	20	838	48.0	-160681.0	-6086.0	6151073.0
28	17	52	20	838	49.0	-157456.0	-6106.0	6144848.0
28	17	52	20	839	50.0	-155074.0	-6126.0	6137911.0
28	17	52	20	839	51.0	-153062.0	-6141.0	6131111.0
28	17	52	20	840	52.0	-151641.0	-6149.0	6124043.0
28	17	52	20	841	54.0	-150439.0	-6163.0	6111183.0
28	17	52	20	841	55.0	-150521.0	-6178.0	6105486.0
28	17	52	20	842	56.0	-151264.0	-6201.0	6098710.0
28	17	52	20	843	57.0	-152416.0	-6183.0	6092725.0
28	17	52	20	844	58.0	-153700.0	-6190.0	6086154.0
28	17	52	20	844	59.0	-155523.0	-6198.0	6079183.0
28	17	52	20	875	60.0	-158057.0	-6197.0	6072248.0
28	17	52	20	966	61.0	-161557.0	-6186.0	6065909.0
28	17	52	20	966	62.0	-165346.0	-6183.0	6060031.0
28	17	52	20	967	63.0	-169471.0	-6200.0	6053343.0
28	17	52	20	968	64.0	-173736.0	-6214.0	6046309.0
28	17	52	20	970	65.0	-177097.0	-6236.0	6041021.0
28	17	52	20	971	66.0	-180467.0	-6234.0	6034573.0
28	17	52	20	972	67.0	-183614.0	-6233.0	6027606.0
28	17	52	20	973	68.0	-186484.0	-6229.0	6022374.0
28	17	52	20	974	69.0	-188459.0	-6247.0	6016475.0
28	17	52	20	975	70.0	-189151.0	-6259.0	6009823.0
28	17	52	20	977	71.0	-189217.0	-6255.0	6003524.0
28	17	52	20	977	72.0	-188401.0	-6251.0	5997585.0
28	17	52	20	978	73.0	-187261.0	-6252.0	5990976.0
28	17	52	20	978	74.0	-186201.0	-6255.0	5984970.0
28	17	52	20	979	76.0	-183424.0	-6262.0	5972863.0
28	17	52	20	979	98.0	-154542.0	-5959.0	5833565.0
28	17	52	20	980	121.0	-162297.0	-4906.0	5689804.0
28	17	52	20	981	122.0	-186421.0	-4854.0	5682810.0
28	17	52	20	981	123.0	-208718.0	-4792.0	5676950.0
28	17	52	20	982	124.0	-228209.0	-4751.0	5671609.0
28	17	52	20	982	125.0	-242631.0	-4696.0	5665599.0
28	17	52	20	983	126.0	-253582.0	-4654.0	5660149.0
28	17	52	20	983	127.0	-267473.0	-4593.0	5653726.0
28	17	52	21	11	128.0	-277920.0	-4542.0	5647635.0
28	17	52	21	12	129.0	-283534.0	-4503.0	5641291.0
28	17	52	21	12	130.0	-286426.0	-4441.0	5635286.0
28	17	52	21	13	131.0	-285102.0	-4393.0	5629076.0
28	17	52	21	14	132.0	-280362.0	-4332.0	5621951.0
28	17	52	21	14	133.0	-274682.0	-4307.0	5615294.0
28	17	52	21	15	134.0	-269142.0	-4257.0	5609102.0
28	17	52	21	16	135.0	-264270.0	-4236.0	5602846.0
28	17	52	21	16	136.0	-261000.0	-4190.0	5597571.0
28	17	52	21	17	137.0	-258977.0	-4146.0	5592411.0
28	17	52	21	17	138.0	-256751.0	-4144.0	5586972.0
28	17	52	21	18	139.0	-254222.0	-4108.0	5580138.0
28	17	52	21	19	140.0	-251089.0	-4090.0	5574251.0
28	17	52	21	19	141.0	-244559.0	-4073.0	5567992.0
28	17	52	21	20	142.0	-234929.0	-4052.0	5562566.0
28	17	52	21	21	143.0	-223871.0	-4057.0	5557137.0
28	17	52	21	21	144.0	-213727.0	-4043.0	5550108.0
28	17	52	21	22	145.0	-206134.0	-4020.0	5543971.0
28	17	52	21	22	146.0	-203338.0	-4009.0	5538391.0
28	17	52	21	23	147.0	-206248.0	-3979.0	5532597.0
28	17	52	21	23	148.0	-214200.0	-3948.0	5526065.0
28	17	52	21	24	149.0	-225669.0	-3946.0	5519884.0
28	17	52	21	55	150.0	-239011.0	-3909.0	5513343.0
28	17	52	21	55	151.0	-251212.0	-3883.0	5506066.0
28	17	52	21	56	152.0	-260959.0	-3861.0	5499835.0
28	17	52	21	57	153.0	-268257.0	-3846.0	5495183.0
28	17	52	21	57	154.0	-273485.0	-3830.0	5489835.0
28	17	52	21	147	155.0	-276846.0	-3791.0	5481265.0
28	17	52	21	147	156.0	-278675.0	-3763.0	5473923.0
28	17	52	21	148	157.0	-280487.0	-3740.0	5467381.0
28	17	52	21	149	158.0	-281944.0	-3717.0	5462131.0
28	17	52	21	150	159.0	-282399.0	-3709.0	5455709.0
28	17	52	21	150	160.0	-281478.0	-3692.0	5451418.0
28	17	52	21	151	161.0	-278900.0	-3669.0	5455434.0
28	17	52	21	151	162.0	-274655.0	-3642.0	5455929.0
28	17	52	21	152	163.0	-268787.0	-3632.0	5453358.0
28	17	52	21	153	164.0	-261807.0	-3636.0	5448528.0
28	17	52	21	153	166.0	-246602.0	-3599.0	5439628.0
28	17	52	21	154	167.0	-239206.0	-3581.0	5435398.0
28	17	52	21	155	168.0	-233061.0	-3581.0	5434651.0
28	17	52	21	155	169.0	-227894.0	-3572.0	5434509.0
28	17	52	21	156	170.0	-223003.0	-3566.0	5420776.0
28	17	52	21	157	171.0	-218004.0	-3576.0	5404072.0
28	17	52	21	157	211.0	-243969.0	-3645.0	5336798.0
28	17	52	21	158	212.0	-240786.0	-3658.0	5329813.0
28	17	52	21	158	213.0	-238001.0	-3652.0	5322449.0
28	17	52	21	159	214.0	-235442.0	-3639.0	5314280.0
28	17	52	21	159	215.0	-232608.0	-3634.0	5306287.0
28	17	52	21	160	216.0	-229218.0	-3631.0	5297116.0
28	17	52	21	191	217.0	-226021.0	-3612.0	5286479.0
28	17	52	21	192	218.0	-223447.0	-3600.0	5275704.0
28	17	52	21	193	219.0	-220642.0	-3591.0	5264830.0
28	17	52	21	194	220.0	-218559.0	-3593.0	5255864.0
28	17	52	21	194	221.0	-216534.0	-3610.0	5248153.0
28	17	52	21	195	222.0	-214909.0	-3622.0	5240615.0
28	17	52	21	195	223.0	-213612.0	-3612.0	5234172.0
28	17	52	21	196	224.0	-213078.0	-3628.0	5227064.0
28	17	52	21	197	225.0	-212709.0	-3652.0	5219102.0
28	17	52	21	197	226.0	-212241.0	-3659.0	5211610.0
28	17	52	21	198	227.0	-212279.0	-3657.0	5204703.0
28	17	52	21	199	228.0	-213015.0	-3683.0	5198309.0
28	17	52	21	199	229.0	-214404.0	-3697.0	5193190.0
28	17	52	21	200	230.0	-216076.0	-3718.0	5187219.0
28	17	52	21	200	231.0	-218194.0	-3732.0	5182093.0
28	17	52	21	201	233.0	-222933.0	-3776.0	5148343.0
28	17	52	21	202	234.0	-225623.0	-3804.0	5134596.0
28	17	52	21	202	235.0	-228787.0	-3827.0	5126802.0
28	17	52	21	203	236.0	-232322.0	-3824.0	5119659.0
28	17	52	21	203	237.0	-235826.0	-3824.0	5112861.0
28	17	52	21	204	238.0	-239205.0	-3829.0	5106538.0
28	17	52	21	205	239.0	-242250.0	-3822.0	5100906.0
28	17	52	21	235	240.0	-244355.0	-3832.0	5096366.0
28	17	52	21	236	241.0	-245796.0	-3836.0	5091210.0
28	17	52	21	236	242.0	-246466.0	-3821.0	5085718.0
28	17	52	21	237	243.0	-245718.0	-3859.0	5080789.0
28	17	52	21	238	244.0	-243610.0	-3884.0	5075339.0
28	17	52	21	239	245.0	-240282.0	-3885.0	5069297.0
28	17	52	21	239	246.0	-236116.0	-3879.0	5063901.0
28	17	52	21	240	247.0	-231076.0	-3877.0	5058125.0
28	17	52	21	241	248.0	-225319.0	-3882.0	5051849.0
28	17	52	21	241	249.0	-218984.0	-3886.0	5046088.0
28	17	52	21	242	250.0	-211914.0	-3873.0	5039359.0
28	17	52	21	242	251.0	-204126.0	-3885.0	5033632.0
28	17	52	21	243	252.0	-195864.0	-3895.0	5027734.0
28	17	52	21	244	253.0	-187822.0	-3906.0	5021503.0
28	17	52	21	244	254.0	-180099.0	-3908.0	5015020.0
28	17	52	21	245	0.0	-165597.0	-3884.0	5002462.0
28	17	52	21	246	1.0	-159138.0	-3871.0	4996411.0
28	17	52	21	246	2.0	-153167.0	-3874.0	4989993.0
28	17	52	21	247	3.0	-147621.0	-3880.0	4981149.0
28	17	52	21	247	4.0	-143179.0	-3857.0	4974034.0
28	17	52	21	248	5.0	-139565.0	-3864.0	4968001.0
28	17	52	21	280	6.0	-136710.0	-3869.0	4961879.0
28	17	52	21	281	7.0	-134787.0	-3854.0	4954809.0
28	17	52	21	282	8.0	-134061.0	-3858.0	4949151.0
28	17	52	21	282	9.0	-133476.0	-3887.0	4943341.0
28	17	52	21	283	10.0	-133042.0	-3905.0	4937070.0
28	17	52	21	284	11.0	-133210.0	-3901.0	4930548.0
28	17	52	21	284	12.0	-134054.0	-3889.0	4923499.0
28	17	52	21	285	13.0	-134793.0	-3886.0	4917331.0
28	17	52	21	286	14.0	-136138.0	-3897.0	4912336.0
28	17	52	21	287	15.0	-137763.0	-3899.0	4905343.0
28	17	52	21	287	16.0	-139488.0	-3906.0	4898699.0
28	17	52	21	288	17.0	-141327.0	-3907.0	4892029.0
28	17	52	21	289	18.0	-143678.0	-3916.0	4884469.0
28	17	52	21	289	19.0	-146639.0	-3947.0	4877177.0
28	17	52	21	290	20.0	-149768.0	-3952.0	4869136.0
28	17	52	21	291	22.0	-157078.0	-3965.0	4849729.0
28	17	52	21	291	23.0	-161153.0	-3980.0	4838918.0
28	17	52	21	292	24.0	-164515.0	-3980.0	4826464.0
28	17	52	21	292	25.0	-167715.0	-3967.0	4812203.0
28	17	52	21	293	26.0	-170885.0	-3974.0	4799508.0
28	17	52	21	294	27.0	-173240.0	-3986.0	4790491.0
28	17	52	21	371	28.0	-174786.0	-3971.0	4783880.0
28	17	52	21	372	29.0	-176661.0	-3962.0	4778600.0
28	17	52	21	372	30.0	-177926.0	-3989.0	4776197.0
28	17	52	21	373	31.0	-178739.0	-4018.0	4773181.0
28	17	52	21	374	32.0	-179654.0	-4026.0	4772894.0
28	17	52	21	374	33.0	-179621.0	-4043.0	4785289.0
28	17	52	21	375	34.0	-178925.0	-4084.0	4801631.0
28	17	52	21	375	35.0	-177902.0	-4104.0	4807963.0
28	17	52	21	376	36.0	-177125.0	-4109.0	4802098.0
28	17	52	21	377	37.0	-178145.0	-4124.0	4793377.0
28	17	52	21	377	38.0	-181204.0	-4152.0	4784422.0
28	17	52	21	378	39.0	-186400.0	-4161.0	4776433.0
28	17	52	21	379	40.0	-193375.0	-4176.0	4769120.0
28	17	52	21	379	41.0	-200462.0	-4178.0	4761142.0
28	17	52	21	380	42.0	-206892.0	-4185.0	4752531.0
28	17	52	21	380	45.0	-217821.0	-4177.0	4723656.0
28	17	52	21	381	67.0	-184576.0	-4086.0	4505962.0
28	17	52	21	382	68.0	-182299.0	-4114.0	4496352.0
28	17	52	21	382	69.0	-181724.0	-4109.0	4489755.0
28	17	52	21	383	70.0	-180927.0	-4129.0	4482662.0
28	17	52	21	383	71.0	-179996.0	-4134.0	4476110.0
28	17	52	21	392	72.0	-178514.0	-4130.0	4469833.0
28	17	52	21	393	73.0	-174895.0	-4132.0	4463864.0
28	17	52	21	418	74.0	-169681.0	-4123.0	4457316.0
28	17	52	21	419	75.0	-163938.0	-4134.0	4451813.0
28	17	52	21	419	76.0	-157476.0	-4128.0	4446947.0
28	17	52	21	420	77.0	-153026.0	-4157.0	4441898.0
28	17	52	21	421	78.0	-151643.0	-4185.0	4436292.0
28	17	52	21	421	79.0	-151132.0	-4204.0	4430845.0
28	17	52	21	422	80.0	-151280.0	-4228.0	4424978.0
28	17	52	21	423	81.0	-152152.0	-4247.0	4419196.0
28	17	52	21	423	82.0	-152948.0	-4263.0	4414256.0
28	17	52	21	424	83.0	-153896.0	-4264.0	4409736.0
28	17	52	21	425	84.0	-155468.0	-4266.0	4404372.0
28	17	52	21	425	85.0	-158057.0	-4291.0	4396368.0
28	17	52	21	426	86.0	-160603.0	-4296.0	4387448.0
28	17	52	21	427	87.0	-162539.0	-4334.0	4380034.0
28	17	52	21	427	88.0	-164451.0	-4344.0	4373880.0
28	17	52	21	428	89.0	-166812.0	-4355.0	4367617.0
28	17	52	21	428	90.0	-169639.0	-4365.0	4360744.0
28	17	52	21	429	91.0	-172107.0	-4374.0	4355041.0
28	17	52	21	430	92.0	-174307.0	-4356.0	4349431.0
28	17	52	21	430	93.0	-175742.0	-4340.0	4343118.0
28	17	52	21	431	94.0	-176027.0	-4336.0	4336409.0
28	17	52	21	431	95.0	-175570.0	-4341.0	4331405.0
28	17	52	21	460	96.0	-174693.0	-4324.0	4326491.0
28	17	52	21	461	97.0	-174153.0	-4326.0	4320972.0
28	17	52	21	462	98.0	-173339.0	-4317.0	4315938.0
28	17	52	21	463	99.0	-172802.0	-4339.0	4311990.0
28	17	52	21	464	100.0	-174162.0	-4364.0	4307972.0
28	17	52	21	464	101.0	-176356.0	-4356.0	4303313.0
28	17	52	21	465	102.0	-179426.0	-4371.0	4298100.0
28	17	52	21	466	103.0	-183197.0	-4382.0	4293252.0
28	17	52	21	467	104.0	-187008.0	-4386.0	4287566.0
28	17	52	21	467	105.0	-190877.0	-4393.0	4280941.0
28	17	52	21	468	106.0	-194872.0	-4381.0	4274366.0
28	17	52	21	469	107.0	-199214.0	-4386.0	4268063.0
28	17	52	21	469	108.0	-204019.0	-4386.0	4263043.0
28	17	52	21	470	109.0	-208978.0	-4356.0	4257836.0
28	17	52	21	471	110.0	-213301.0	-4352.0	4252612.0
28	17	52	21	471	112.0	-220385.0	-4366.0	4243273.0
28	17	52	21	472	113.0	-222960.0	-4362.0	4242172.0
28	17	52	21	472	114.0	-225036.0	-4356.0	4240098.0
28	17	52	21	473	115.0	-226754.0	-4321.0	4235070.0
28	17	52	21	474	116.0	-227877.0	-4299.0	4229909.0
28	17	52	21	474	117.0	-228249.0	-4276.0	4223742.0
28	17	52	21	505	118.0	-228380.0	-4266.0	4219319.0
28	17	52	21	506	119.0	-227254.0	-4244.0	4214481.0
28	17	52	21	507	120.0	-225194.0	-4232.0	4208843.0
28	17	52	21	507	121.0	-223056.0	-4214.0	4203793.0
28	17	52	21	508	122.0	-220633.0	-4208.0	4198999.0
28	17	52	21	509	123.0	-218167.0	-4195.0	4193853.0
28	17	52	21	510	124.0	-215871.0	-4197.0	4189759.0
28	17	52	21	510	125.0	-214415.0	-4199.0	4185305.0
28	17	52	21	511	126.0	-213574.0	-4193.0	4181211.0
28	17	52	21	512	127.0	-213068.0	-4205.0	4175431.0
28	17	52	21	512	128.0	-213659.0	-4189.0	4170778.0
28	17	52	21	513	129.0	-215236.0	-4179.0	4166274.0
28	17	52	21	514	130.0	-216640.0	-4153.0	4162130.0
28	17	52	21	514	131.0	-218779.0	-4146.0	4158088.0
28	17	52	21	515	132.0	-222049.0	-4142.0	4153127.0
28	17	52	21	516	134.0	-227454.0	-4111.0	4144846.0
28	17	52	21	516	135.0	-230542.0	-4096.0	4140931.0
28	17	52	21	517	136.0	-233357.0	-4066.0	4136786.0
28	17	52	21	518	137.0	-236195.0	-4024.0	4133121.0
28	17	52	21	518	138.0	-239863.0	-3971.0	4129100.0
28	17	52	21	519	139.0	-243914.0	-3931.0	4124859.0
28	17	52	21	520	140.0	-248383.0	-3895.0	4121033.0
28	17	52	21	550	141.0	-253659.0	-3846.0	4117078.0
28	17	52	21	551	142.0	-258890.0	-3811.0	4113354.0
28	17	52	21	551	143.0	-263162.0	-3782.0	4109014.0
28	17	52	21	552	144.0	-266758.0	-3772.0	4104828.0
28	17	52	21	553	145.0	-269515.0	-3764.0	4100327.0
28	17	52	21	554	146.0	-272289.0	-3747.0	4095743.0
28	17	52	21	554	147.0	-273594.0	-3729.0	4091897.0
28	17	52	21	596	148.0	-273692.0	-3706.0	4087584.0
28	17	52	21	640	149.0	-272891.0	-3666.0	4083937.0
28	17	52	21	641	150.0	-272183.0	-3646.0	4077779.0
28	17	52	21	642	151.0	-271409.0	-3626.0	4067142.0
28	17	52	21	642	152.0	-269616.0	-3602.0	4058541.0
28	17	52	21	643	153.0	-266899.0	-3581.0	4053709.0
28	17	52	21	644	154.0	-263597.0	-3556.0	4049288.0
28	17	52	21	645	155.0	-259936.0	-3551.0	4045523.0
28	17	52	21	646	157.0	-251278.0	-3494.0	4037859.0
28	17	52	21	647	158.0	-246371.0	-3484.0	4038439.0
28	17	52	21	647	159.0	-240414.0	-3445.0	4039419.0
28	17	52	21	648	160.0	-235017.0	-3404.0	4036868.0
28	17	52	21	649	161.0	-230086.0	-3366.0	4033661.0
28	17	52	21	650	162.0	-225688.0	-3327.0	4030402.0
28	17	52	21	650	163.0	-222017.0	-3300.0	4027384.0
28	17	52	21	651	164.0	-219795.0	-3292.0	4023124.0
28	17	52	21	652	180.0	-187761.0	-2741.0	3956452.0
28	17	52	21	652	202.0	-190676.0	-2262.0	3861668.0
28	17	52	21	653	203.0	-189722.0	-2247.0	3857770.0
28	17	52	21	653	204.0	-189509.0	-2204.0	3853639.0
28	17	52	21	654	205.0	-189050.0	-2174.0	3848999.0
28	17	52	21	655	206.0	-188248.0	-2139.0	3845091.0
28	17	52	21	656	207.0	-187756.0	-2127.0	3840551.0
28	17	52	21	685	208.0	-187220.0	-2102.0	3835949.0
28	17	52	21	686	209.0	-186252.0	-2060.0	3831418.0
28	17	52	21	687	210.0	-185217.0	-2044.0	3828087.0
28	17	52	21	687	211.0	-183822.0	-2062.0	3827329.0
28	17	52	21	688	212.0	-182308.0	-2067.0	3825859.0
28	17	52	21	689	213.0	-181554.0	-2050.0	3822158.0
28	17	52	21	690	214.0	-181484.0	-2047.0	3817234.0
28	17	52	21	690	215.0	-182290.0	-2052.0	3813864.0
28	17	52	21	691	216.0	-183683.0	-2043.0	3809388.0
28	17	52	21	692	217.0	-185769.0	-2039.0	3804664.0
28	17	52	21	692	218.0	-188042.0	-2043.0	3800826.0
28	17	52	21	693	219.0	-190292.0	-2026.0	3796675.0
28	17	52	21	694	220.0	-192510.0	-1992.0	3792117.0
28	17	52	21	695	221.0	-194962.0	-1982.0	3787306.0
28	17	52	21	695	222.0	-196977.0	-1972.0	3783263.0
28	17	52	21	696	224.0	-199102.0	-1954.0	3772910.0
28	17	52	21	697	225.0	-199078.0	-1943.0	3769263.0
28	17	52	21	697	226.0	-198155.0	-1921.0	3765793.0
28	17	52	21	698	227.0	-196864.0	-1907.0	3761318.0
28	17	52	21	698	228.0	-195442.0	-1889.0	3757254.0
28	17	52	21	699	229.0	-194026.0	-1877.0	3753112.0
28	17	52	21	700	230.0	-192530.0	-1887.0	3748782.0
28	17	52	21	730	231.0	-191686.0	-1895.0	3744751.0
28	17	52	21	731	232.0	-191506.0	-1889.0	3741743.0
28	17	52	21	732	233.0	-191712.0	-1899.0	3738329.0
28	17	52	21	733	234.0	-192977.0	-1913.0	3733671.0
28	17	52	21	734	235.0	-195442.0	-1918.0	3729985.0
28	17	52	21	734	236.0	-198761.0	-1962.0	3726173.0
28	17	52	21	735	237.0	-201926.0	-1974.0	3721534.0
28	17	52	21	736	238.0	-205065.0	-1991.0	3717406.0
28	17	52	21	736	239.0	-208074.0	-2036.0	3713552.0
28	17	52	21	737	240.0	-210611.0	-2058.0	3709810.0
28	17	52	21	738	241.0	-212420.0	-2076.0	3705827.0
28	17	52	21	738	242.0	-213982.0	-2104.0	3701493.0
28	17	52	21	739	243.0	-215101.0	-2159.0	3697416.0
28	17	52	21	740	244.0	-216256.0	-2199.0	3692041.0
28	17	52	21	741	245.0	-216701.0	-2232.0	3687801.0
28	17	52	21	741	247.0	-216361.0	-2302.0	3679985.0
28	17	52	21	742	248.0	-214891.0	-2324.0	3676288.0
28	17	52	21	742	249.0	-213019.0	-2328.0	3672499.0
28	17	52	21	743	250.0	-210316.0	-2342.0	3668169.0
28	17	52	21	744	251.0	-206873.0	-2379.0	3664371.0
28	17	52	21	744	252.0	-202924.0	-2383.0	3659928.0
28	17	52	21	775	253.0	-199069.0	-2389.0	3655410.0
28	17	52	21	775	254.0	-195782.0	-2402.0	3651836.0
28	17	52	21	776	255.0	-193115.0	-2416.0	3647513.0
28	17	52	21	777	0.0	-191147.0	-2447.0	3642499.0
28	17	52	21	777	1.0	-190126.0	-2487.0	3638085.0
28	17	52	21	778	2.0	-190238.0	-2499.0	3634291.0
28	17	52	21	778	3.0	-191610.0	-2493.0	3630070.0
28	17	52	21	779	4.0	-195134.0	-2509.0	3626731.0
28	17	52	21	780	5.0	-200359.0	-2530.0	3621614.0
28	17	52	21	780	6.0	-206096.0	-2552.0	3616487.0
28	17	52	21	781	7.0	-211882.0	-2569.0	3611872.0
28	17	52	21	781	8.0	-218421.0	-2552.0	3608218.0
28	17	52	21	782	9.0	-224378.0	-2571.0	3603469.0
28	17	52	21	783	10.0	-229366.0	-2589.0	3597834.0
28	17	52	21	783	11.0	-233929.0	-2598.0	3594272.0
28	17	52	21	784	13.0	-241314.0	-2619.0	3587181.0
28	17	52	21	784	14.0	-244162.0	-2616.0	3583161.0
28	17	52	21	785	15.0	-246553.0	-2596.0	3578593.0
28	17	52	21	786	16.0	-247851.0	-2596.0	3573144.0
28	17	52	21	786	17.0	-247715.0	-2595.0	3568746.0
28	17	52	21	787	18.0	-246557.0	-2590.0	3560760.0
28	17	52	21	819	19.0	-244691.0	-2603.0	3551562.0
28	17	52	21	865	20.0	-241702.0	-2599.0	3544801.0
28	17	52	21	866	21.0	-238596.0	-2594.0	3540881.0
28	17	52	21	866	22.0	-235421.0	-2605.0	3536551.0
28	17	52	21	867	23.0	-231359.0	-2614.0	3533247.0
28	17	52	21	868	24.0	-226649.0	-2633.0	3534436.0
28	17	52	21	868	25.0	-222061.0	-2637.0	3533151.0
28	17	52	21	869	26.0	-218031.0	-2642.0	3531118.0
28	17	52	21	870	27.0	-214426.0	-2644.0	3527674.0
28	17	52	21	870	28.0	-211764.0	-2644.0	3523313.0
28	17	52	21	871	29.0	-210029.0	-2624.0	3518868.0
28	17	52	21	871	30.0	-207945.0	-2623.0	3514333.0
28	17	52	21	872	31.0	-206183.0	-2620.0	3510382.0
28	17	52	21	872	32.0	-206052.0	-2616.0	3506144.0
28	17	52	21	873	33.0	-206239.0	-2602.0	3502297.0
28	17	52	21	873	35.0	-206947.0	-2546.0	3495316.0
28	17	52	21	874	36.0	-207176.0	-2555.0	3490948.0
28	17	52	21	874	58.0	-218579.0	-2306.0	3404821.0
28	17	52	21	875	59.0	-220193.0	-2284.0	3401303.0
28	17	52	21	876	60.0	-222062.0	-2256.0	3397201.0
28	17	52	21	876	61.0	-223153.0	-2216.0	3392357.0
28	17	52	21	877	62.0	-223374.0	-2196.0	3388829.0
28	17	52	21	877	63.0	-223792.0	-2179.0	3384748.0
28	17	52	21	878	64.0	-223769.0	-2172.0	3380724.0
28	17	52	21	910	65.0	-222826.0	-2183.0	3376308.0
28	17	52	21	910	66.0	-221854.0	-2167.0	3372858.0
28	17	52	21	911	67.0	-220533.0	-2174.0	3369264.0
28	17	52	21	912	68.0	-218439.0	-2177.0	3364981.0
28	17	52	21	912	69.0	-216342.0	-2201.0	3361456.0
28	17	52	21	913	70.0	-214205.0	-2225.0	3357219.0
28	17	52	21	913	71.0	-211353.0	-2234.0	3352558.0
28	17	52	21	914	72.0	-208942.0	-2247.0	3349006.0
28	17	52	21	915	73.0	-207823.0	-2261.0	3345438.0
28	17	52	21	916	74.0	-207203.0	-2272.0	3341649.0
28	17	52	21	916	75.0	-206411.0	-2288.0	3337507.0
28	17	52	21	917	76.0	-205542.0	-2306.0	3334440.0
28	17	52	21	918	77.0	-204382.0	-2316.0	3331435.0
28	17	52	21	918	78.0	-202364.0	-2310.0	3327459.0
28	17	52	21	919	79.0	-198981.0	-2314.0	3323257.0
28	17	52	21	919	80.0	-195075.0	-2324.0	3319128.0
28	17	52	21	920	81.0	-191664.0	-2315.0	3315543.0
28	17	52	21	921	82.0	-189244.0	-2326.0	3311548.0
28	17	52	21	921	83.0	-188192.0	-2324.0	3308403.0
28	17	52	21	922	84.0	-188527.0	-2351.0	3305169.0
28	17	52	21	922	85.0	-189376.0	-2367.0	3301484.0
28	17	52	21	923	86.0	-190849.0	-2373.0	3298295.0
28	17	52	21	954	87.0	-193631.0	-2385.0	3294305.0
28	17	52	21	955	88.0	-196639.0	-2384.0	3290773.0
28	17	52	21	956	89.0	-200113.0	-2412.0	3287341.0
28	17	52	21	956	90.0	-204181.0	-2454.0	3281508.0
28	17	52	21	957	91.0	-208079.0	-2459.0	3274555.0
28	17	52	21	958	92.0	-212121.0	-2462.0	3266621.0
28	17	52	21	958	93.0	-215677.0	-2459.0	3257620.0
28	17	52	21	959	94.0	-218464.0	-2480.0	3247023.0
28	17	52	21	959	95.0	-220295.0	-2486.0	3235507.0
28	17	52	21	960	96.0	-220680.0	-2493.0	3224358.0
28	17	52	21	961	97.0	-220267.0	-2523.0	3215321.0
28	17	52	21	961	98.0	-219607.0	-2537.0	3206822.0
28	17	52	21	962	99.0	-217916.0	-2526.0	3199896.0
28	17	52	21	962	100.0	-216182.0	-2522.0	3196056.0
28	17	52	21	963	101.0	-214926.0	-2531.0	3192273.0
28	17	52	21	963	103.0	-212262.0	-2577.0	3208469.0
28	17	52	21	964	104.0	-210845.0	-2567.0	3230544.0
28	17	52	21	965	105.0	-210971.0	-2562.0	3242443.0
28	17	52	21	965	106.0	-213189.0	-2572.0	3240314.0
28	17	52	21	966	107.0	-217814.0	-2566.0	3233408.0
28	17	52	21	999	108.0	-224979.0	-2551.0	3225765.0
28	17	52	22	0	109.0	-233721.0	-2541.0	3219576.0
28	17	52	22	1	110.0	-242890.0	-2562.0	3213319.0
28	17	52	22	1	111.0	-251300.0	-2570.0	3206270.0
28	17	52	22	2	112.0	-257581.0	-2560.0	3199821.0
28	17	52	22	3	113.0	-261452.0	-2562.0	3194283.0
28	17	52	22	3	114.0	-262864.0	-2588.0	3189975.0
28	17	52	22	4	115.0	-261985.0	-2618.0	3184977.0
28	17	52	22	4	116.0	-261052.0	-2632.0	3181226.0
28	17	52	22	5	117.0	-260084.0	-2661.0	3177708.0
28	17	52	22	6	118.0	-250901.0	-2685.0	3173637.0
28	17	52	22	6	119.0	-233684.0	-2697.0	3169748.0
28	17	52	22	7	120.0	-202987.0	-2717.0	3165234.0
28	17	52	22	7	121.0	-164976.0	-2733.0	3161549.0
28	17	52	22	8	122.0	-132995.0	-2735.0	3158196.0
28	17	52	22	9	123.0	-110268.0	-2739.0	3154658.0
28	17	52	22	9	126.0	-125574.0	-2770.0	3143638.0
28	17	52	22	10	127.0	-149719.0	-2755.0	3139772.0
28	17	52	22	10	128.0	-175920.0	-2742.0	3136808.0
28	17	52	22	11	129.0	-197175.0	-2756.0	3133164.0
28	17	52	22	11	130.0	-211080.0	-2767.0	3128784.0
28	17	52	22	12	131.0	-220612.0	-2790.0	3124255.0
28	17	52	22	45	132.0	-230658.0	-2825.0	3121281.0
28	17	52	22	46	133.0	-242677.0	-2852.0	3117133.0
28	17	52	22	46	134.0	-249199.0	-2876.0	3112847.0
28	17	52	22	47	135.0	-240817.0	-2899.0	3109406.0
28	17	52	22	48	136.0	-223992.0	-2936.0	3106096.0
28	17	52	22	48	137.0	-202657.0	-2944.0	3103276.0
28	17	52	22	49	138.0	-179960.0	-2966.0	3099096.0
28	17	52	22	49	139.0	-163203.0	-2971.0	3094462.0
28	17	52	22	50	140.0	-154511.0	-2991.0	3090497.0
28	17	52	22	51	141.0	-151331.0	-3011.0	3086978.0
28	17	52	22	51	142.0	-149153.0	-3008.0	3084172.0
28	17	52	22	52	143.0	-144829.0	-3039.0	3081549.0
28	17	52	22	52	144.0	-137176.0	-3054.0	3078096.0
28	17	52	22	53	145.0	-127825.0	-3053.0	3073361.0
28	17	52	22	54	146.0	-118879.0	-3066.0	3069219.0
28	17	52	22	54	148.0	-109812.0	-3120.0	3063179.0
28	17	52	22	55	149.0	-111683.0	-3133.0	3060125.0
28	17	52	22	55	150.0	-117255.0	-3140.0	3056353.0
28	17	52	22	56	151.0	-123959.0	-3152.0	3052148.0
28	17	52	22	90	152.0	-130764.0	-3164.0	3048372.0
28	17	52	22	90	153.0	-138151.0	-3171.0	3043991.0
28	17	52	22	91	154.0	-146709.0	-3167.0	3040644.0
28	17	52	22	92	155.0	-156534.0	-3194.0	3036919.0
28	17	52	22	92	156.0	-167317.0	-3222.0	3033443.0
28	17	52	22	93	157.0	-179259.0	-3252.0	3029341.0
28	17	52	22	93	158.0	-190669.0	-3268.0	3024674.0
28	17	52	22	94	159.0	-201222.0	-3291.0	3020498.0
28	17	52	22	95	160.0	-211699.0	-3323.0	3016899.0
28	17	52	22	95	161.0	-221943.0	-3334.0	3013477.0
28	17	52	22	96	162.0	-232227.0	-3327.0	3008945.0
28	17	52	22	96	163.0	-242562.0	-3343.0	3004503.0
28	17	52	22	97	164.0	-252330.0	-3366.0	3001796.0
28	17	52	22	98	165.0	-260280.0	-3425.0	2998149.0
28	17	52	22	99	166.0	-265781.0	-3442.0	2993944.0
28	17	52	22	100	167.0	-269407.0	-3469.0	2990379.0
28	17	52	22	101	170.0	-266709.0	-3547.0	2979534.0
28	17	52	22	101	171.0	-262391.0	-3548.0	2975529.0
28	17	52	22	102	172.0	-256851.0	-3543.0	2971288.0
28	17	52	22	103	173.0	-250940.0	-3572.0	2967769.0
28	17	52	22	103	174.0	-245379.0	-3594.0	2964619.0
28	17	52	22	104	175.0	-240040.0	-3604.0	2960968.0
28	17	52	22	104	176.0	-233531.0	-3606.0	2956750.0
28	17	52	22	135	177.0	-226864.0	-3616.0	2953017.0
28	17	52	22	136	178.0	-221369.0	-3621.0	2948996.0
28	17	52	22	136	179.0	-216485.0	-3629.0	2945104.0
28	17	52	22	138	180.0	-212789.0	-3660.0	2940965.0
28	17	52	22	139	181.0	-210527.0	-3702.0	2936741.0
28	17	52	22	139	182.0	-209915.0	-3717.0	2933961.0
28	17	52	22	140	183.0	-210027.0	-3725.0	2929947.0
28	17	52	22	141	184.0	-211622.0	-3724.0	2925804.0
28	17	52	22	141	185.0	-214154.0	-3732.0	2922561.0
28	17	52	22	142	186.0	-216976.0	-3770.0	2919008.0
28	17	52	22	143	187.0	-220269.0	-3771.0	2916202.0
28	17	52	22	143	188.0	-224056.0	-3774.0	2912546.0
28	17	52	22	144	189.0	-228730.0	-3806.0	2908431.0
28	17	52	22	144	190.0	-234033.0	-3819.0	2904969.0
28	17	52	22	145	191.0	-239004.0	-3849.0	2901641.0
28	17	52	22	146	193.0	-248250.0	-3890.0	2894654.0
28	17	52	22	146	194.0	-252688.0	-3889.0	2891533.0
28	17	52	22	147	195.0	-256986.0	-3906.0	2888226.0
28	17	52	22	147	196.0	-261669.0	-3926.0	2885298.0
28	17	52	22	148	197.0	-266519.0	-3954.0	2881328.0
28	17	52	22	148	198.0	-271401.0	-3972.0	2877841.0
28	17	52	22	180	199.0	-276563.0	-3980.0	2873278.0
28	17	52	22	181	200.0	-282020.0	-3997.0	2870224.0
28	17	52	22	182	201.0	-287441.0	-4026.0	2867398.0
28	17	52	22	182	202.0	-292350.0	-4071.0	2863863.0
28	17	52	22	183	203.0	-296811.0	-4102.0	2859345.0
28	17	52	22	184	204.0	-300532.0	-4123.0	2855734.0
28	17	52	22	184	205.0	-302864.0	-4144.0	2853593.0
28	17	52	22	185	206.0	-304692.0	-4177.0	2850219.0
28	17	52	22	186	207.0	-305799.0	-4196.0	2846531.0
28	17	52	22	186	208.0	-305826.0	-4212.0	2842641.0
28	17	52	22	187	209.0	-305175.0	-4216.0	2839356.0
28	17	52	22	188	210.0	-303918.0	-4224.0	2835179.0
28	17	52	22	188	211.0	-301226.0	-4255.0	2831259.0
28	17	52	22	189	212.0	-297122.0	-4266.0	2828702.0
28	17	52	22	189	213.0	-291796.0	-4279.0	2825553.0
28	17	52	22	190	215.0	-279576.0	-4309.0	2819979.0
28	17	52	22	191	216.0	-272824.0	-4320.0	2816988.0
28	17	52	22	191	217.0	-267979.0	-4316.0	2813878.0
28	17	52	22	192	218.0	-264405.0	-4275.0	2811469.0
28	17	52	22	192	219.0	-255087.0	-4244.0	2807903.0
28	17	52	22	193	220.0	-249127.0	-4237.0	2803716.0
28	17	52	22	225	221.0	-243819.0	-4251.0	2799743.0
28	17	52	22	226	222.0	-236422.0	-4237.0	2796971.0
28	17	52	22	226	223.0	-229301.0	-4241.0	2793799.0
28	17	52	22	227	224.0	-224905.0	-4254.0	2790923.0
28	17	52	22	228	225.0	-219856.0	-4236.0	2788696.0
28	17	52	22	229	226.0	-215509.0	-4214.0	2784704.0
28	17	52	22	229	227.0	-212051.0	-4197.0	2780998.0
28	17	52	22	230	228.0	-207938.0	-4188.0	2779048.0
28	17	52	22	230	229.0	-203897.0	-4173.0	2775206.0
28	17	52	22	231	230.0	-200696.0	-4135.0	2772173.0
28	17	52	22	232	231.0	-197504.0	-4094.0	2769511.0
28	17	52	22	232	232.0	-194193.0	-4076.0	2766046.0
28	17	52	22	233	233.0	-191344.0	-4047.0	2762506.0
28	17	52	22	233	234.0	-189182.0	-4011.0	2758709.0
28	17	52	22	234	235.0	-188386.0	-3959.0	2755278.0
28	17	52	22	235	238.0	-191554.0	-3851.0	2744828.0
28	17	52	22	235	239.0	-194517.0	-3817.0	2741040.0
28	17	52	22	236	240.0	-197726.0	-3758.0	2737313.0
28	17	52	22	237	241.0	-201055.0	-3714.0	2733354.0
28	17	52	22	237	242.0	-204803.0	-3662.0	2728933.0
28	17	52	22	238	243.0	-207564.0	-3599.0	2724456.0
28	17	52	22	271	244.0	-208934.0	-3535.0	2721627.0
28	17	52	22	271	245.0	-209656.0	-3479.0	2718846.0
28	17	52	22	272	246.0	-208797.0	-3458.0	2715572.0
28	17	52	22	273	247.0	-206292.0	-3408.0	2711486.0
28	17	52	22	315	248.0	-201320.0	-3369.0	2707859.0
28	17	52	22	316	249.0	-188227.0	-3314.0	2703793.0
28	17	52	22	317	250.0	-160084.0	-3290.0	2700216.0
28	17	52	22	318	251.0	-127634.0	-3266.0	2696784.0
28	17	52	22	318	252.0	-103434.0	-3237.0	2693856.0
28	17	52	22	319	253.0	-111352.0	-3207.0	2689659.0
28	17	52	22	320	254.0	-135089.0	-3169.0	2686143.0
28	17	52	22	320	255.0	-160081.0	-3127.0	2682663.0
28	17	52	22	321	0.0	-178436.0	-3077.0	2679096.0
28	17	52	22	321	1.0	-188712.0	-3035.0	2675380.0
28	17	52	22	322	2.0	-191699.0	-3002.0	2672848.0
28	17	52	22	323	4.0	-198881.0	-2889.0	2666899.0
28	17	52	22	323	5.0	-199935.0	-2853.0	2663523.0
28	17	52	22	324	6.0	-201271.0	-2794.0	2659781.0
28	17	52	22	325	7.0	-200748.0	-2741.0	2657203.0
28	17	52	22	325	8.0	-198179.0	-2722.0	2653199.0
28	17	52	22	326	27.0	-137384.0	-2364.0	2591447.0
28	17	52	22	326	28.0	-134217.0	-2342.0	2588047.0
28	17	52	22	327	29.0	-131582.0	-2303.0	2584372.0
28	17	52	22	327	30.0	-130762.0	-2276.0	2581126.0
28	17	52	22	328	31.0	-130866.0	-2242.0	2577243.0
28	17	52	22	360	32.0	-131351.0	-2203.0	2573480.0
28	17	52	22	361	33.0	-133147.0	-2178.0	2570579.0
28	17	52	22	361	34.0	-135750.0	-2145.0	2567500.0
28	17	52	22	362	35.0	-139239.0	-2127.0	2564285.0
28	17	52	22	362	36.0	-143937.0	-2127.0	2561425.0
28	17	52	22	363	37.0	-150177.0	-2129.0	2558129.0
28	17	52	22	364	38.0	-156794.0	-2100.0	2554733.0
28	17	52	22	364	39.0	-163437.0	-2079.0	2551778.0
28	17	52	22	365	40.0	-170128.0	-2062.0	2548908.0
28	17	52	22	366	41.0	-176627.0	-2052.0	2545648.0
28	17	52	22	367	42.0	-182174.0	-2046.0	2542863.0
28	17	52	22	368	43.0	-186421.0	-2027.0	2538723.0
28	17	52	22	369	44.0	-189872.0	-2012.0	2535448.0
28	17	52	22	370	45.0	-192492.0	-1993.0	2532358.0
28	17	52	22	370	46.0	-193964.0	-1976.0	2528906.0
28	17	52	22	371	47.0	-195247.0	-1971.0	2525842.0
28	17	52	22	372	49.0	-197442.0	-1976.0	2521340.0
28	17	52	22	372	50.0	-197516.0	-1976.0	2520117.0
28	17	52	22	373	51.0	-197369.0	-1970.0	2518483.0
28	17	52	22	373	52.0	-196818.0	-1956.0	2516056.0
28	17	52	22	374	53.0	-196244.0	-1968.0	2511586.0
28	17	52	22	375	54.0	-194712.0	-1985.0	2507884.0
28	17	52	22	375	55.0	-192479.0	-1971.0	2505377.0
28	17	52	22	405	56.0	-190001.0	-1967.0	2502418.0
28	17	52	22	406	57.0	-186347.0	-1966.0	2498858.0
28	17	52	22	407	58.0	-182523.0	-1967.0	2495673.0
28	17	52	22	407	59.0	-179092.0	-2005.0	2493478.0
28	17	52	22	408	60.0	-175527.0	-2012.0	2491364.0
28	17	52	22	409	61.0	-172396.0	-1999.0	2488249.0
28	17	52	22	410	62.0	-169899.0	-2008.0	2485678.0
28	17	52	22	410	63.0	-168119.0	-2032.0	2482241.0
28	17	52	22	411	64.0	-166416.0	-2069.0	2479223.0
28	17	52	22	412	65.0	-164267.0	-2085.0	2475071.0
28	17	52	22	412	66.0	-162489.0	-2090.0	2470694.0
28	17	52	22	413	67.0	-161067.0	-2102.0	2467059.0
28	17	52	22	414	68.0	-160467.0	-2131.0	2464479.0
28	17	52	22	414	69.0	-160249.0	-2147.0	2461821.0
28	17	52	22	415	70.0	-160121.0	-2159.0	2459103.0
28	17	52	22	415	71.0	-160917.0	-2181.0	2456381.0
28	17	52	22	416	72.0	-162651.0	-2206.0	2452879.0
28	17	52	22	417	73.0	-166003.0	-2224.0	2449011.0
28	17	52	22	417	74.0	-170661.0	-2256.0	2444692.0
28	17	52	22	418	75.0	-175794.0	-2272.0	2441655.0
28	17	52	22	419	76.0	-180720.0	-2292.0	2438822.0
28	17	52	22	419	77.0	-185682.0	-2311.0	2435150.0
28	17	52	22	449	78.0	-190443.0	-2328.0	2433076.0
28	17	52	22	449	79.0	-194912.0	-2351.0	2430177.0
28	17	52	22	450	80.0	-198951.0	-2374.0	2426588.0
28	17	52	22	451	81.0	-202529.0	-2401.0	2423702.0
28	17	52	22	452	82.0	-205014.0	-2409.0	2421206.0
28	17	52	22	452	83.0	-206199.0	-2426.0	2417208.0
28	17	52	22	453	84.0	-206729.0	-2469.0	2414556.0
28	17	52	22	454	85.0	-207007.0	-2514.0	2411654.0
28	17	52	22	454	86.0	-207110.0	-2548.0	2408635.0
28	17	52	22	455	87.0	-206741.0	-2557.0	2406060.0
28	17	52	22	455	88.0	-207466.0	-2577.0	2402903.0
28	17	52	22	456	89.0	-209010.0	-2577.0	2399969.0
28	17	52	22	457	90.0	-210002.0	-2614.0	2396564.0
28	17	52	22	457	91.0	-210931.0	-2652.0	2393678.0
28	17	52	22	458	92.0	-212306.0	-2693.0	2391314.0
28	17	52	22	467	94.0	-214522.0	-2776.0	2386819.0
28	17	52	22	467	95.0	-217294.0	-2803.0	2383028.0
28	17	52	22	468	96.0	-219918.0	-2812.0	2379355.0
28	17	52	22	469	97.0	-222280.0	-2848.0	2376288.0
28	17	52	22	469	98.0	-223961.0	-2882.0	2373489.0
28	17	52	22	470	99.0	-224673.0	-2891.0	2370156.0
28	17	52	22	495	100.0	-224954.0	-2903.0	2368066.0
28	17	52	22	496	101.0	-224116.0	-2906.0	2366030.0
28	17	52	22	496	102.0	-223641.0	-2911.0	2362134.0
28	17	52	22	497	103.0	-221232.0	-2904.0	2359021.0
28	17	52	22	498	104.0	-217832.0	-2911.0	2356058.0
28	17	52	22	499	105.0	-214626.0	-2911.0	2352230.0
28	17	52	22	499	106.0	-210231.0	-2914.0	2349116.0
28	17	52	22	500	107.0	-205166.0	-2917.0	2346879.0
28	17	52	22	501	108.0	-201049.0	-2930.0	2344938.0
28	17	52	22	501	109.0	-197632.0	-2913.0	2341256.0
28	17	52	22	502	110.0	-195624.0	-2907.0	2338120.0
28	17	52	22	503	111.0	-194581.0	-2896.0	2335671.0
28	17	52	22	504	112.0	-191770.0	-2901.0	2333314.0
28	17	52	22	504	113.0	-191579.0	-2892.0	2331145.0
28	17	52	22	505	114.0	-194222.0	-2883.0	2329208.0
28	17	52	22	506	116.0	-200261.0	-2851.0	2324997.0
28	17	52	22	506	117.0	-203445.0	-2846.0	2324111.0
28	17	52	22	507	118.0	-205812.0	-2849.0	2322859.0
28	17	52	22	508	119.0	-207872.0	-2855.0	2320569.0
28	17	52	22	508	120.0	-210545.0	-2856.0	2318432.0
28	17	52	22	509	121.0	-213581.0	-2864.0	2315101.0
28	17	52	22	510	122.0	-216126.0	-2862.0	2310879.0
28	17	52	22	539	123.0	-218714.0	-2841.0	2305371.0
28	17	52	22	540	124.0	-221306.0	-2829.0	2300698.0
28	17	52	22	541	125.0	-223499.0	-2836.0	2299100.0
28	17	52	22	542	126.0	-227139.0	-2829.0	2297909.0
28	17	52	22	542	127.0	-230040.0	-2815.0	2297124.0
28	17	52	22	543	128.0	-232124.0	-2846.0	2298654.0
28	17	52	22	544	129.0	-234347.0	-2841.0	2297209.0
28	17	52	22	545	130.0	-236533.0	-2814.0	2296107.0
28	17	52	22	545	131.0	-238622.0	-2813.0	2296079.0
28	17	52	22	546	132.0	-239826.0	-2817.0	2300894.0
28	17	52	22	547	133.0	-240886.0	-2820.0	2304339.0
28	17	52	22	547	134.0	-242159.0	-2799.0	2306008.0
28	17	52	22	548	135.0	-242206.0	-2784.0	2308088.0
28	17	52	22	549	136.0	-242624.0	-2776.0	2307418.0
28	17	52	22	550	137.0	-243446.0	-2783.0	2301849.0
28	17	52	22	550	139.0	-240119.0	-2750.0	2297586.0
28	17	52	22	551	140.0	-237364.0	-2724.0	2294423.0
28	17	52	22	552	141.0	-233584.0	-2705.0	2282914.0
28	17	52	22	553	142.0	-229638.0	-2695.0	2277865.0
28	17	52	22	553	143.0	-224968.0	-2659.0	2275349.0
28	17	52	22	554	144.0	-219731.0	-2644.0	2267394.0
28	17	52	22	585	145.0	-214974.0	-2619.0	2282151.0
28	17	52	22	586	146.0	-209721.0	-2591.0	2313459.0
28	17	52	22	587	147.0	-204666.0	-2578.0	2329972.0
28	17	52	22	587	148.0	-199752.0	-2566.0	2339029.0
28	17	52	22	588	149.0	-195136.0	-2551.0	2343949.0
28	17	52	22	589	150.0	-190719.0	-2547.0	2350166.0
28	17	52	22	589	151.0	-185773.0	-2556.0	2351084.0
28	17	52	22	590	152.0	-181601.0	-2559.0	2362724.0
28	17	52	22	591	153.0	-177323.0	-2559.0	2444674.0
28	17	52	22	592	154.0	-173927.0	-2545.0	2502731.0
28	17	52	22	592	155.0	-170169.0	-2522.0	2515494.0
28	17	52	22	593	156.0	-166905.0	-2516.0	2516971.0
28	17	52	22	594	157.0	-164166.0	-2522.0	2520635.0
28	17	52	22	594	158.0	-161692.0	-2522.0	2525653.0
28	17	52	22	595	159.0	-160331.0	-2541.0	2527287.0
28	17	52	22	595	161.0	-160235.0	-2534.0	2524651.0
28	17	52	22	596	162.0	-161876.0	-2522.0	2520175.0
28	17	52	22	597	163.0	-164924.0	-2499.0	2513133.0
28	17	52	22	597	164.0	-167418.0	-2486.0	2505215.0
28	17	52	22	598	165.0	-170360.0	-2449.0	2494527.0
28	17	52	22	599	166.0	-173181.0	-2428.0	2483665.0
28	17	52	22	599	167.0	-175421.0	-2419.0	2475164.0
28	17	52	22	629	168.0	-177996.0	-2361.0	2467064.0
28	17	52	22	630	169.0	-179408.0	-2345.0	2458694.0
28	17	52	22	631	170.0	-180681.0	-2356.0	2455273.0
28	17	52	22	631	171.0	-181626.0	-2351.0	2454284.0
28	17	52	22	632	172.0	-182314.0	-2352.0	2457946.0
28	17	52	22	633	173.0	-182909.0	-2363.0	2476185.0
28	17	52	22	634	174.0	-183732.0	-2374.0	2502018.0
28	17	52	22	634	175.0	-184432.0	-2377.0	2518621.0
28	17	52	22	635	176.0	-186143.0	-2377.0	2519771.0
28	17	52	22	636	177.0	-190980.0	-2394.0	2516301.0
28	17	52	22	637	178.0	-200179.0	-2396.0	2511829.0
28	17	52	22	637	179.0	-209663.0	-2394.0	2508111.0
28	17	52	22	638	180.0	-223161.0	-2402.0	2504423.0
28	17	52	22	639	181.0	-237979.0	-2406.0	2500839.0
28	17	52	22	640	182.0	-249867.0	-2416.0	2496573.0
28	17	52	22	640	184.0	-263202.0	-2406.0	2491961.0
28	17	52	22	641	185.0	-261922.0	-2397.0	2490577.0
28	17	52	22	641	186.0	-255261.0	-2389.0	2490434.0
28	17	52	22	642	187.0	-246319.0	-2374.0	2489649.0
28	17	52	22	643	188.0	-236090.0	-2347.0	2488026.0
28	17	52	22	643	189.0	-217490.0	-2355.0	2486676.0
28	17	52	22	675	190.0	-191564.0	-2370.0	2485552.0
28	17	52	22	676	191.0	-155270.0	-2347.0	2482553.0
28	17	52	22	676	192.0	-113873.0	-2367.0	2480376.0
28	17	52	22	677	193.0	-78717.0	-2372.0	2479614.0
28	17	52	22	678	194.0	-54002.0	-2370.0	2477666.0
28	17	52	22	678	195.0	-47970.0	-2338.0	2476159.0
28	17	52	22	679	196.0	-61414.0	-2327.0	2475278.0
28	17	52	22	680	197.0	-88214.0	-2329.0	2474977.0
28	17	52	22	681	198.0	-125057.0	-2331.0	2475741.0
28	17	52	22	681	199.0	-167471.0	-2315.0	2478764.0
28	17	52	22	682	200.0	-208301.0	-2317.0	2482814.0
28	17	52	22	683	201.0	-241687.0	-2321.0	2483573.0
28	17	52	22	683	202.0	-264204.0	-2327.0	2483684.0
28	17	52	22	684	203.0	-272566.0	-2333.0	2482480.0
28	17	52	22	685	204.0	-272800.0	-2311.0	2476079.0
28	17	52	22	685	206.0	-260290.0	-2312.0	2462689.0
28	17	52	22	686	207.0	-237716.0	-2306.0	2458041.0
28	17	52	22	687	208.0	-208314.0	-2286.0	2457271.0
28	17	52	22	687	209.0	-179489.0	-2275.0	2458079.0
28	17	52	22	688	210.0	-151281.0	-2272.0	2462701.0
28	17	52	22	688	211.0	-128099.0	-2262.0	2469593.0
28	17	52	22	720	212.0	-111724.0	-2247.0	2469900.0
28	17	52	22	721	213.0	-108460.0	-2232.0	2471267.0
28	17	52	22	721	214.0	-118587.0	-2221.0	2480762.0
28	17	52	22	722	215.0	-131440.0	-2242.0	2491143.0
28	17	52	22	723	216.0	-139090.0	-2241.0	2496207.0
28	17	52	22	724	217.0	-142446.0	-2238.0	2499078.0
28	17	52	22	724	218.0	-143988.0	-2248.0	2504671.0
28	17	52	22	725	219.0	-145096.0	-2242.0	2510268.0
28	17	52	22	726	220.0	-148830.0	-2236.0	2511589.0
28	17	52	22	727	221.0	-155849.0	-2259.0	2515286.0
28	17	52	22	727	222.0	-165403.0	-2264.0	2520598.0
28	17	52	22	728	223.0	-172590.0	-2271.0	2521709.0
28	17	52	22	729	224.0	-176794.0	-2271.0	2521301.0
28	17	52	22	729	225.0	-179455.0	-2275.0	2518679.0
28	17	52	22	730	226.0	-181092.0	-2284.0	2517608.0
28	17	52	22	731	228.0	-185079.0	-2289.0	2518907.0
28	17	52	22	731	229.0	-189496.0	-2299.0	2517809.0
28	17	52	22	732	230.0	-193617.0	-2301.0	2516755.0
28	17	52	22	733	231.0	-196159.0	-2311.0	2515093.0
28	17	52	22	734	232.0	-198281.0	-2309.0	2513413.0
28	17	52	22	734	233.0	-200176.0	-2319.0	2512456.0
28	17	52	22	735	234.0	-202256.0	-2331.0	2510378.0
28	17	52	22	765	235.0	-203569.0	-2336.0	2507821.0
28	17	52	22	765	236.0	-205758.0	-2314.0	2506331.0
28	17	52	22	766	237.0	-206141.0	-2313.0	2503941.0
28	17	52	22	767	238.0	-205927.0	-2327.0	2500837.0
28	17	52	22	768	239.0	-205703.0	-2344.0	2498613.0
28	17	52	22	768	240.0	-202669.0	-2363.0	2497092.0
28	17	52	22	769	241.0	-199791.0	-2375.0	2494765.0
28	17	52	22	770	242.0	-196611.0	-2384.0	2493514.0
28	17	52	22	771	243.0	-193407.0	-2384.0	2491904.0
28	17	52	22	771	244.0	-188221.0	-2398.0	2490178.0
28	17	52	22	772	245.0	-182306.0	-2409.0	2488040.0
28	17	52	22	773	246.0	-175545.0	-2428.0	2485817.0
28	17	52	22	773	247.0	-168419.0	-2445.0	2482094.0
28	17	52	22	774	248.0	-160480.0	-2441.0	2479037.0
28	17	52	22	775	249.0	-153014.0	-2469.0	2476198.0
28	17	52	22	776	251.0	-142514.0	-2515.0	2472128.0
28	17	52	22	776	252.0	-139839.0	-2551.0	2468718.0
28	17	52	22	777	253.0	-139087.0	-2544.0	2464636.0
28	17	52	22	778	254.0	-139869.0	-2542.0	2460395.0
28	17	52	22	778	255.0	-142040.0	-2535.0	2457262.0
28	17	52	22	779	0.0	-145276.0	-2518.0	2453541.0
28	17	52	22	810	1.0	-151477.0	-2538.0	2449800.0
28	17	52	22	811	2.0	-157484.0	-2526.0	2447106.0
28	17	52	22	812	3.0	-164526.0	-2520.0	2445489.0
28	17	52	22	813	4.0	-172664.0	-2541.0	2443179.0
28	17	52	22	813	5.0	-180229.0	-2560.0	2440616.0
28	17	52	22	814	6.0	-189342.0	-2562.0	2438504.0
28	17	52	22	815	7.0	-197532.0	-2560.0	2435972.0
28	17	52	22	816	8.0	-205966.0	-2578.0	2433889.0
28	17	52	22	816	9.0	-215994.0	-2597.0	2459900.0
28	17	52	22	817	10.0	-223673.0	-2592.0	2524113.0
28	17	52	22	818	11.0	-231038.0	-2594.0	2567773.0
28	17	52	22	818	12.0	-236939.0	-2609.0	2583093.0
28	17	52	22	819	13.0	-241231.0	-2609.0	2592711.0
28	17	52	22	820	14.0	-245447.0	-2616.0	2602974.0
28	17	52	22	821	15.0	-249324.0	-2649.0	2611561.0
28	17	52	22	821	17.0	-252084.0	-2673.0	2632535.0
28	17	52	22	822	18.0	-251887.0	-2702.0	2635531.0
28	17	52	22	822	19.0	-251254.0	-2712.0	2639113.0
28	17	52	22	823	20.0	-249392.0	-2706.0	2643855.0
28	17	52	22	824	21.0	-245942.0	-2702.0	2648556.0
28	17	52	22	824	22.0	-241339.0	-2708.0	2651964.0
28	17	52	22	825	23.0	-236047.0	-2724.0	2650760.0
28	17	52	22	855	24.0	-229699.0	-2738.0	2646291.0
28	17	52	22	856	25.0	-224675.0	-2726.0	2651100.0
28	17	52	22	857	26.0	-218155.0	-2724.0	2658863.0
28	17	52	22	858	27.0	-211666.0	-2728.0	2659161.0
28	17	52	22	858	28.0	-205911.0	-2719.0	2634240.0
28	17	52	22	859	29.0	-199337.0	-2726.0	2603359.0
28	17	52	22	860	30.0	-193569.0	-2720.0	2583198.0
28	17	52	22	861	31.0	-187191.0	-2707.0	2575583.0
28	17	52	22	861	32.0	-181324.0	-2707.0	2580351.0
28	17	52	22	862	33.0	-176424.0	-2667.0	2591518.0
28	17	52	22	863	34.0	-172622.0	-2651.0	2598548.0
28	17	52	22	863	35.0	-169114.0	-2644.0	2602560.0
28	17	52	22	864	36.0	-167879.0	-2618.0	2603565.0
28	17	52	22	865	37.0	-166372.0	-2614.0	2607946.0
28	17	52	22	865	38.0	-163874.0	-2601.0	2608708.0
28	17	52	22	866	40.0	-163972.0	-2559.0	2611983.0
28	17	52	22	867	41.0	-164469.0	-2531.0	2618398.0
28	17	52	22	867	42.0	-164162.0	-2500.0	2628648.0
28	17	52	22	868	43.0	-165567.0	-2477.0	2650524.0
28	17	52	22	868	44.0	-167097.0	-2449.0	2674964.0
28	17	52	22	869	45.0	-168889.0	-2399.0	2685334.0
28	17	52	22	900	46.0	-169974.0	-2378.0	2696428.0
28	17	52	22	902	47.0	-170934.0	-2347.0	2707053.0
28	17	52	22	903	48.0	-173693.0	-2284.0	2713121.0
28	17	52	22	903	49.0	-177989.0	-2237.0	2715121.0
28	17	52	22	904	50.0	-180746.0	-2209.0	2711993.0
28	17	52	22	905	51.0	-184804.0	-2169.0	2708283.0
28	17	52	22	906	52.0	-190627.0	-2126.0	2704298.0
28	17	52	22	907	53.0	-196740.0	-2079.0	2698136.0
28	17	52	22	908	54.0	-203063.0	-2044.0	2686795.0
28	17	52	22	909	55.0	-209352.0	-2015.0	2667034.0
28	17	52	22	910	56.0	-215701.0	-1974.0	2655536.0
28	17	52	22	916	57.0	-219957.0	-1912.0	2647055.0
28	17	52	22	917	58.0	-222487.0	-1867.0	2643422.0
28	17	52	22	918	59.0	-222148.0	-1838.0	2641291.0
28	17	52	22	919	60.0	-220129.0	-1787.0	2640469.0
28	17	52	22	919	62.0	-196474.0	-1672.0	2637688.0
28	17	52	22	920	63.0	-167198.0	-1627.0	2634463.0
28	17	52	22	921	64.0	-130075.0	-1559.0	2632313.0
28	17	52	22	921	65.0	-102757.0	-1508.0	2629159.0
28	17	52	22	922	66.0	-99843.0	-1443.0	2627399.0
28	17	52	22	922	67.0	-115662.0	-1381.0	2625535.0
28	17	52	22	923	68.0	-137647.0	-1331.0	2624279.0
28	17	52	22	945	69.0	-157111.0	-1290.0	2622714.0
28	17	52	22	945	70.0	-169289.0	-1226.0	2620714.0
28	17	52	22	946	71.0	-175158.0	-1157.0	2618201.0
28	17	52	22	947	72.0	-181917.0	-1094.0	2614331.0
28	17	52	22	948	73.0	-185764.0	-1047.0	2611868.0
28	17	52	22	948	74.0	-185309.0	-980.0	2608649.0
28	17	52	22	949	75.0	-181108.0	-887.0	2605487.0
28	17	52	22	950	76.0	-174739.0	-816.0	2602305.0
28	17	52	22	950	77.0	-165130.0	-767.0	2599103.0
28	17	52	22	951	78.0	-155661.0	-737.0	2595999.0
28	17	52	22	951	79.0	-146162.0	-690.0	2594624.0
28	17	52	22	952	80.0	-139569.0	-628.0	2592858.0
28	17	52	22	953	81.0	-138366.0	-569.0	2590884.0
28	17	52	22	953	82.0	-145713.0	-535.0	2589836.0
28	17	52	22	954	83.0	-157678.0	-518.0	2588767.0
28	17	52	22	954	85.0	-186089.0	-460.0	2586602.0
28	17	52	22	955	86.0	-198674.0	-436.0	2585180.0
28	17	52	22	956	87.0	-209424.0	-400.0	2586891.0
28	17	52	22	956	88.0	-216577.0	-352.0	2591674.0
28	17	52	22	957	89.0	-219975.0	-289.0	2596549.0
28	17	52	22	957	90.0	-222679.0	-252.0	2597911.0
28	17	52	22	988	91.0	-224443.0	-222.0	2598682.0
28	17	52	22	989	92.0	-226329.0	-174.0	2600725.0
28	17	52	23	11	93.0	-228572.0	-134.0	2601553.0
28	17	52	23	11	94.0	-231209.0	-115.0	2603886.0
28	17	52	23	12	95.0	-234499.0	-86.0	2607019.0
28	17	52	23	12	96.0	-236769.0	-71.0	2612064.0
28	17	52	23	13	97.0	-238670.0	-43.0	2631337.0
28	17	52	23	14	98.0	-239019.0	-7.0	2671725.0
28	17	52	23	14	99.0	-237811.0	10.0	2702430.0
28	17	52	23	15	100.0	-236684.0	20.0	2715085.0
28	17	52	23	15	101.0	-234410.0	46.0	2727160.0
28	17	52	23	16	102.0	-231144.0	60.0	2741216.0
28	17	52	23	16	103.0	-227737.0	84.0	2742369.0
28	17	52	23	17	104.0	-224293.0	71.0	2770389.0
28	17	52	23	17	105.0	-222328.0	75.0	2906253.0
28	17	52	23	18	107.0	-219202.0	141.0	3038716.0
28	17	52	23	19	108.0	-217625.0	173.0	3055641.0
28	17	52	23	19	109.0	-215724.0	188.0	3057226.0
28	17	52	23	20	110.0	-214756.0	205.0	3055006.0
28	17	52	23	20	111.0	-213796.0	249.0	3059551.0
28	17	52	23	21	112.0	-212579.0	258.0	3063044.0
28	17	52	23	21	113.0	-210684.0	291.0	3063653.0
28	17	52	23	33	114.0	-208202.0	293.0	3064548.0
28	17	52	23	34	115.0	-205793.0	288.0	3065186.0
28	17	52	23	34	116.0	-204357.0	305.0	3064951.0
28	17	52	23	35	117.0	-202400.0	296.0	3066299.0
28	17	52	23	36	118.0	-200571.0	271.0	3070021.0
28	17	52	23	36	119.0	-199689.0	272.0	3072667.0
28	17	52	23	37	120.0	-197819.0	281.0	3075179.0
28	17	52	23	37	121.0	-196570.0	274.0	3077043.0
28	17	52	23	38	122.0	-196080.0	278.0	3077105.0
28	17	52	23	55	123.0	-195398.0	278.0	3078332.0
28	17	52	23	55	124.0	-195991.0	257.0	3083726.0
28	17	52	23	56	125.0	-196424.0	228.0	3089018.0
28	17	52	23	57	126.0	-197494.0	235.0	3092047.0
28	17	52	23	57	127.0	-198922.0	239.0	3093651.0
28	17	52	23	58	128.0	-200184.0	215.0	3093017.0
28	17	52	23	58	130.0	-205142.0	228.0	3091945.0
28	17	52	23	59	131.0	-206629.0	240.0	3090321.0
28	17	52	23	60	132.0	-209341.0	260.0	3089701.0
28	17	52	23	60	133.0	-211300.0	253.0	3087845.0
28	17	52	23	61	134.0	-212704.0	236.0	3084586.0
28	17	52	23	61	135.0	-214637.0	245.0	3081429.0
28	17	52	23	78	136.0	-216922.0	243.0	3079251.0
28	17	52	23	79	137.0	-217992.0	239.0	3076613.0
28	17	52	23	80	138.0	-218623.0	218.0	3073687.0
28	17	52	23	80	139.0	-218355.0	211.0	3071043.0
28	17	52	23	81	140.0	-217278.0	211.0	3068861.0
28	17	52	23	82	141.0	-215057.0	186.0	3065912.0
28	17	52	23	98	142.0	-214229.0	191.0	3062265.0
28	17	52	23	99	143.0	-213466.0	203.0	3062431.0
28	17	52	23	99	144.0	-211686.0	199.0	3065434.0
28	17	52	23	100	145.0	-209857.0	206.0	3062604.0
28	17	52	23	101	146.0	-207016.0	209.0	3057148.0
28	17	52	23	101	147.0	-204571.0	210.0	3051452.0
28	17	52	23	102	148.0	-202754.0	208.0	3047215.0
28	17	52	23	102	149.0	-200269.0	218.0	3044538.0
28	17	52	23	103	150.0	-195984.0	236.0	3041229.0
28	17	52	23	104	152.0	-187676.0	239.0	3034884.0
28	17	52	23	104	153.0	-182334.0	222.0	3032763.0
28	17	52	23	105	154.0	-178777.0	249.0	3030162.0
28	17	52	23	105	155.0	-176632.0	267.0	3028212.0
28	17	52	23	106	156.0	-175745.0	272.0	3025382.0
28	17	52	23	107	157.0	-173644.0	265.0	3021069.0
28	17	52	23	125	158.0	-170932.0	286.0	3016674.0
28	17	52	23	127	159.0	-169116.0	306.0	3012881.0
28	17	52	23	129	160.0	-167341.0	318.0	3011799.0
28	17	52	23	131	161.0	-167481.0	315.0	3014855.0
28	17	52	23	132	162.0	-167501.0	321.0	3015024.0
28	17	52	23	134	163.0	-167982.0	317.0	3012530.0
28	17	52	23	136	164.0	-169739.0	320.0	3009249.0
28	17	52	23	139	165.0	-171768.0	316.0	3005505.0
28	17	52	23	140	166.0	-174597.0	333.0	3002099.0
28	17	52	23	141	167.0	-179948.0	350.0	2999699.0
28	17	52	23	142	168.0	-184896.0	382.0	2996302.0
28	17	52	23	142	169.0	-189119.0	379.0	2993983.0
28	17	52	23	143	170.0	-193591.0	380.0	2991349.0
28	17	52	23	143	171.0	-197041.0	393.0	2988961.0
28	17	52	23	144	172.0	-199841.0	403.0	2987197.0
28	17	52	23	145	175.0	-212362.0	410.0	2978840.0
28	17	52	23	145	176.0	-214982.0	413.0	2976390.0
28	17	52	23	146	177.0	-217154.0	423.0	2974530.0
28	17	52	23	146	178.0	-218512.0	454.0	2971649.0
28	17	52	23	147	179.0	-219607.0	456.0	2969363.0
28	17	52	23	148	180.0	-220784.0	434.0	2967438.0
28	17	52	23	170	181.0	-220672.0	443.0	2964384.0
28	17	52	23	173	182.0	-219867.0	446.0	2961048.0
28	17	52	23	174	183.0	-220336.0	444.0	2957934.0
28	17	52	23	177	184.0	-220358.0	452.0	2953823.0
28	17	52	23	179	185.0	-220664.0	433.0	2950510.0
28	17	52	23	180	186.0	-221905.0	435.0	2948565.0
28	17	52	23	181	187.0	-221114.0	438.0	2946074.0
28	17	52	23	182	188.0	-221561.0	451.0	2943096.0
28	17	52	23	182	189.0	-221448.0	466.0	2939387.0
28	17	52	23	183	190.0	-220479.0	466.0	2937359.0
28	17	52	23	183	191.0	-219571.0	487.0	2938004.0
28	17	52	23	184	192.0	-218966.0	473.0	2938600.0
28	17	52	23	185	193.0	-218349.0	479.0	2936524.0
28	17	52	23	185	194.0	-215986.0	468.0	2933824.0
28	17	52	23	186	195.0	-214083.0	471.0	2931796.0
28	17	52	23	187	197.0	-208756.0	443.0	2927338.0
28	17	52	23	187	198.0	-206276.0	454.0	2937635.0
28	17	52	23	188	199.0	-202752.0	461.0	2946469.0
28	17	52	23	188	200.0	-198574.0	463.0	2946271.0
28	17	52	23	189	201.0	-194764.0	446.0	2943453.0
28	17	52	23	190	202.0	-192443.0	444.0	2939936.0
28	17	52	23	227	203.0	-189189.0	437.0	2935810.0
28	17	52	23	228	204.0	-186419.0	447.0	2933536.0
28	17	52	23	228	205.0	-186036.0	448.0	2931101.0
28	17	52	23	229	206.0	-186167.0	420.0	2928793.0
28	17	52	23	229	207.0	-188637.0	409.0	2926267.0
28	17	52	23	230	208.0	-191516.0	398.0	2922286.0
28	17	52	23	231	209.0	-193929.0	365.0	2918530.0
28	17	52	23	231	210.0	-196521.0	337.0	2915672.0
28	17	52	23	232	211.0	-198486.0	336.0	2911776.0
28	17	52	23	232	212.0	-200329.0	340.0	2906618.0
28	17	52	23	233	213.0	-203952.0	313.0	2900308.0
28	17	52	23	233	214.0	-205860.0	293.0	2891853.0
28	17	52	23	234	215.0	-206611.0	285.0	2883249.0
28	17	52	23	235	216.0	-207225.0	268.0	2873446.0
28	17	52	23	235	217.0	-206976.0	255.0	2863981.0
28	17	52	23	236	219.0	-201790.0	233.0	2854977.0
28	17	52	23	236	220.0	-197841.0	186.0	2854901.0
28	17	52	23	237	221.0	-192344.0	167.0	2855618.0
28	17	52	23	238	222.0	-188387.0	181.0	2857992.0
28	17	52	23	238	223.0	-184295.0	168.0	2859639.0
28	17	52	23	239	224.0	-179773.0	145.0	2867638.0
28	17	52	23	239	225.0	-176274.0	119.0	2882344.0
28	17	52	23	260	226.0	-172471.0	107.0	2894643.0
28	17	52	23	260	227.0	-169623.0	98.0	2896690.0
28	17	52	23	261	228.0	-169293.0	85.0	2891384.0
28	17	52	23	262	229.0	-170822.0	48.0	2885274.0
28	17	52	23	262	230.0	-173611.0	23.0	2880897.0
28	17	52	23	263	231.0	-180662.0	11.0	2876109.0
28	17	52	23	264	232.0	-190347.0	-24.0	2870289.0
28	17	52	23	264	233.0	-200248.0	-48.0	2865622.0
28	17	52	23	265	234.0	-209545.0	-64.0	2861017.0
28	17	52	23	266	235.0	-218076.0	-59.0	2855568.0
28	17	52	23	266	236.0	-223009.0	-92.0	2849539.0
28	17	52	23	267	237.0	-226208.0	-104.0	2845803.0
28	17	52	23	267	238.0	-227167.0	-136.0	2841978.0
28	17	52	23	268	239.0	-226291.0	-132.0	2837204.0
28	17	52	23	269	240.0	-226694.0	-146.0	2834838.0
28	17	52	23	269	242.0	-218668.0	-191.0	2827146.0
28	17	52	23	270	243.0	-205387.0	-179.0	2823850.0
28	17	52	23	271	244.0	-185372.0	-166.0	2819496.0
28	17	52	23	271	245.0	-158918.0	-171.0	2815673.0
28	17	52	23	272	246.0	-131268.0	-146.0	2812481.0
28	17	52	23	273	247.0	-111931.0	-146.0	2809236.0
28	17	52	23	304	248.0	-104512.0	-142.0	2804986.0
28	17	52	23	305	249.0	-108179.0	-144.0	2802126.0
28	17	52	23	306	250.0	-125352.0	-142.0	2798446.0
28	17	52	23	306	251.0	-153092.0	-151.0	2794434.0
28	17	52	23	307	252.0	-184320.0	-162.0	2791473.0
28	17	52	23	307	253.0	-214876.0	-202.0	2789014.0
28	17	52	23	308	254.0	-238640.0	-247.0	2786918.0
28	17	52	23	309	255.0	-256546.0	-266.0	2784494.0
28	17	52	23	309	0.0	-268889.0	-289.0	2781622.0
28	17	52	23	310	1.0	-270278.0	-295.0	2778165.0
28	17	52	23	311	2.0	-264757.0	-286.0	2773819.0
28	17	52	23	311	3.0	-259047.0	-303.0	2770945.0
28	17	52	23	312	4.0	-255310.0	-313.0	2769360.0
28	17	52	23	313	5.0	-254382.0	-327.0	2767468.0
28	17	52	23	313	6.0	-256446.0	-353.0	2764571.0
28	17	52	23	314	8.0	-257473.0	-390.0	2758216.0
28	17	52	23	314	9.0	-255647.0	-410.0	2755461.0
28	17	52	23	315	10.0	-252381.0	-435.0	2752966.0
28	17	52	23	316	11.0	-246715.0	-450.0	2749205.0
28	17	52	23	316	12.0	-236106.0	-448.0	2742613.0
28	17	52	23	317	13.0	-223241.0	-493.0	2736286.0
28	17	52	23	317	14.0	-210469.0	-524.0	2732775.0
28	17	52	23	349	15.0	-196347.0	-526.0	2730901.0
28	17	52	23	351	16.0	-182227.0	-537.0	2729499.0
28	17	52	23	351	17.0	-169402.0	-556.0	2727104.0
28	17	52	23	352	18.0	-157651.0	-576.0	2724931.0
28	17	52	23	353	19.0	-147726.0	-592.0	2722193.0
28	17	52	23	353	20.0	-141490.0	-636.0	2718328.0
28	17	52	23	354	21.0	-138532.0	-657.0	2715811.0
28	17	52	23	355	22.0	-137987.0	-669.0	2712409.0
28	17	52	23	355	23.0	-139511.0	-702.0	2708517.0
28	17	52	23	356	24.0	-141711.0	-744.0	2704184.0
28	17	52	23	357	25.0	-143832.0	-777.0	2700623.0
28	17	52	23	357	26.0	-146244.0	-796.0	2697846.0
28	17	52	23	358	27.0	-148476.0	-834.0	2694299.0
28	17	52	23	359	28.0	-150554.0	-850.0	2691709.0
28	17	52	23	359	29.0	-152742.0	-868.0	2690087.0
28	17	52	23	360	31.0	-156536.0	-910.0	2682932.0
28	17	52	23	360	32.0	-158112.0	-924.0	2679954.0
28	17	52	23	361	33.0	-159401.0	-903.0	2676264.0
28	17	52	23	362	34.0	-160411.0	-901.0	2672476.0
28	17	52	23	362	35.0	-161039.0	-874.0	2669676.0
28	17	52	23	363	36.0	-161748.0	-874.0	2666483.0
28	17	52	23	395	37.0	-162562.0	-868.0	2664498.0
28	17	52	23	396	38.0	-163158.0	-859.0	2661901.0
28	17	52	23	397	39.0	-163681.0	-864.0	2658710.0
28	17	52	23	398	40.0	-163830.0	-889.0	2655383.0
28	17	52	23	398	41.0	-164005.0	-905.0	2651742.0
28	17	52	23	399	42.0	-164891.0	-906.0	2647694.0
28	17	52	23	400	43.0	-165343.0	-915.0	2644387.0
28	17	52	23	401	44.0	-165204.0	-939.0	2640272.0
28	17	52	23	401	45.0	-165716.0	-945.0	2636209.0
28	17	52	23	402	46.0	-166437.0	-956.0	2632278.0
28	17	52	23	402	47.0	-166972.0	-962.0	2628573.0
28	17	52	23	403	48.0	-168049.0	-982.0	2624684.0
28	17	52	23	404	49.0	-169149.0	-994.0	2620286.0
28	17	52	23	404	50.0	-171027.0	-1039.0	2615305.0
28	17	52	23	405	51.0	-173551.0	-1066.0	2612251.0
28	17	52	23	406	53.0	-177284.0	-1123.0	2605076.0
28	17	52	23	406	54.0	-179536.0	-1161.0	2600258.0
28	17	52	23	407	55.0	-182222.0	-1204.0	2596629.0
28	17	52	23	407	56.0	-185472.0	-1216.0	2594143.0
28	17	52	23	408	57.0	-188622.0	-1231.0	2590926.0
28	17	52	23	409	58.0	-191097.0	-1261.0	2587547.0
28	17	52	23	409	59.0	-193116.0	-1286.0	2583963.0
28	17	52	23	440	60.0	-195019.0	-1302.0	2581769.0
28	17	52	23	441	61.0	-196714.0	-1289.0	2579867.0
28	17	52	23	441	62.0	-197879.0	-1324.0	2577607.0
28	17	52	23	442	63.0	-199672.0	-1353.0	2574274.0
28	17	52	23	443	64.0	-202082.0	-1379.0	2570435.0
28	17	52	23	443	65.0	-203806.0	-1411.0	2566872.0
28	17	52	23	444	66.0	-204842.0	-1428.0	2565374.0
28	17	52	23	445	67.0	-205394.0	-1450.0	2563286.0
28	17	52	23	445	68.0	-205365.0	-1468.0	2560549.0
28	17	52	23	446	69.0	-204229.0	-1472.0	2556864.0
28	17	52	23	446	70.0	-202239.0	-1468.0	2553959.0
28	17	52	23	447	71.0	-199671.0	-1482.0	2551311.0
28	17	52	23	448	72.0	-195699.0	-1500.0	2549641.0
28	17	52	23	448	73.0	-191783.0	-1502.0	2548268.0
28	17	52	23	449	74.0	-188254.0	-1504.0	2546596.0
28	17	52	23	450	76.0	-183176.0	-1518.0	2541022.0
28	17	52	23	451	77.0	-182251.0	-1492.0	2539411.0
28	17	52	23	451	78.0	-181846.0	-1493.0	2536049.0
28	17	52	23	452	79.0	-181952.0	-1487.0	2532892.0
28	17	52	23	453	80.0	-183238.0	-1474.0	2530983.0
28	17	52	23	454	81.0	-184606.0	-1465.0	2529232.0
28	17	52	23	486	82.0	-185672.0	-1448.0	2526343.0
28	17	52	23	487	83.0	-187462.0	-1439.0	2524081.0
28	17	52	23	487	84.0	-188956.0	-1451.0	2521815.0
28	17	52	23	488	85.0	-189581.0	-1480.0	2519138.0
28	17	52	23	489	86.0	-189375.0	-1462.0	2516139.0
28	17	52	23	489	87.0	-188831.0	-1454.0	2512708.0
28	17	52	23	490	88.0	-187664.0	-1454.0	2509435.0
28	17	52	23	491	89.0	-186227.0	-1429.0	2506418.0
28	17	52	23	491	90.0	-185016.0	-1414.0	2503841.0
28	17	52	23	492	91.0	-183802.0	-1404.0	2500711.0
28	17	52	23	493	92.0	-182657.0	-1393.0	2497292.0
28	17	52	23	493	93.0	-181581.0	-1375.0	2494089.0
28	17	52	23	494	94.0	-181686.0	-1361.0	2492273.0
28	17	52	23	495	95.0	-182820.0	-1319.0	2490673.0
28	17	52	23	495	96.0	-184567.0	-1301.0	2488057.0
28	17	52	23	496	98.0	-190017.0	-1281.0	2482528.0
28	17	52	23	497	99.0	-193524.0	-1252.0	2480510.0
28	17	52	23	497	100.0	-197908.0	-1234.0	2478697.0
28	17	52	23	498	101.0	-202571.0	-1204.0	2476567.0
28	17	52	23	498	102.0	-207200.0	-1174.0	2473929.0
28	17	52	23	499	103.0	-211923.0	-1117.0	2472143.0
28	17	52	23	499	104.0	-216591.0	-1062.0	2469873.0
28	17	52	23	530	105.0	-221399.0	-1005.0	2467969.0
28	17	52	23	530	106.0	-226016.0	-966.0	2465019.0
28	17	52	23	531	107.0	-230000.0	-919.0	2462362.0
28	17	52	23	532	108.0	-232827.0	-859.0	2459492.0
28	17	52	23	532	109.0	-233744.0	-803.0	2457603.0
28	17	52	23	533	110.0	-233083.0	-757.0	2454987.0
28	17	52	23	534	111.0	-230262.0	-725.0	2451709.0
28	17	52	23	534	112.0	-224398.0	-697.0	2449446.0
28	17	52	23	535	113.0	-214317.0	-624.0	2447141.0
28	17	52	23	536	114.0	-196349.0	-566.0	2444095.0
28	17	52	23	536	115.0	-166384.0	-531.0	2440763.0
28	17	52	23	537	116.0	-136321.0	-494.0	2438405.0
28	17	52	23	538	117.0	-119432.0	-432.0	2435054.0
28	17	52	23	538	118.0	-123379.0	-382.0	2432746.0
28	17	52	23	539	119.0	-139564.0	-312.0	2430138.0
28	17	52	23	540	121.0	-186754.0	-198.0	2424363.0
28	17	52	23	540	122.0	-206596.0	-138.0	2420814.0
28	17	52	23	541	123.0	-224447.0	-86.0	2417654.0
28	17	52	23	541	124.0	-241005.0	-17.0	2414349.0
28	17	52	23	575	125.0	-249879.0	47.0	2411147.0
28	17	52	23	575	126.0	-251932.0	94.0	2408240.0
28	17	52	23	576	127.0	-247937.0	171.0	2405527.0
28	17	52	23	577	128.0	-238544.0	213.0	2404221.0
28	17	52	23	577	129.0	-227923.0	269.0	2401981.0
28	17	52	23	578	130.0	-217996.0	309.0	2399484.0
28	17	52	23	579	131.0	-209319.0	348.0	2397734.0
28	17	52	23	579	132.0	-203394.0	378.0	2395274.0
28	17	52	23	580	133.0	-200773.0	404.0	2393032.0
28	17	52	23	581	134.0	-199121.0	437.0	2392539.0
28	17	52	23	581	135.0	-196826.0	463.0	2396014.0
28	17	52	23	582	136.0	-193668.0	487.0	2398203.0
28	17	52	23	583	137.0	-187294.0	534.0	2397876.0
28	17	52	23	583	138.0	-175976.0	543.0	2395770.0
28	17	52	23	584	139.0	-160947.0	558.0	2392246.0
28	17	52	23	585	140.0	-148075.0	568.0	2389527.0
28	17	52	23	585	143.0	-144201.0	604.0	2382462.0
28	17	52	23	586	144.0	-156238.0	619.0	2397180.0
28	17	52	23	587	145.0	-174333.0	614.0	2432311.0
28	17	52	23	587	146.0	-193839.0	631.0	2456641.0
28	17	52	23	588	147.0	-211425.0	674.0	2467368.0
28	17	52	23	588	148.0	-226494.0	698.0	2474263.0
28	17	52	23	589	149.0	-238111.0	704.0	2477645.0
28	17	52	23	620	150.0	-245534.0	711.0	2480908.0
28	17	52	23	621	151.0	-248621.0	723.0	2482145.0
28	17	52	23	622	152.0	-248163.0	752.0	2481226.0
28	17	52	23	623	153.0	-245293.0	766.0	2480581.0
28	17	52	23	623	154.0	-239861.0	782.0	2481474.0
28	17	52	23	624	155.0	-231963.0	794.0	2480685.0
28	17	52	23	625	156.0	-223392.0	786.0	2477954.0
28	17	52	23	625	157.0	-214983.0	792.0	2477302.0
28	17	52	23	626	158.0	-207074.0	811.0	2476821.0
28	17	52	23	627	159.0	-200206.0	809.0	2476568.0
28	17	52	23	628	160.0	-194787.0	801.0	2476439.0
28	17	52	23	628	161.0	-191272.0	793.0	2475781.0
28	17	52	23	629	162.0	-189628.0	806.0	2473993.0
28	17	52	23	630	163.0	-190906.0	825.0	2472858.0
28	17	52	23	631	164.0	-194187.0	823.0	2471438.0
28	17	52	23	631	165.0	-198056.0	831.0	2469104.0
28	17	52	23	632	166.0	-202991.0	819.0	2467163.0
28	17	52	23	632	167.0	-208406.0	821.0	2465241.0
28	17	52	23	633	168.0	-213560.0	814.0	2463611.0
28	17	52	23	634	169.0	-218149.0	824.0	2462286.0
28	17	52	23	634	170.0	-222525.0	817.0	2460239.0
28	17	52	23	635	171.0	-226213.0	813.0	2459606.0
28	17	52	23	665	172.0	-228531.0	811.0	2459785.0
28	17	52	23	666	173.0	-229558.0	802.0	2460262.0
28	17	52	23	667	174.0	-229248.0	781.0	2460243.0
28	17	52	23	667	175.0	-227965.0	749.0	2459951.0
28	17	52	23	668	176.0	-226451.0	746.0	2460593.0
28	17	52	23	669	177.0	-224241.0	729.0	2460652.0
28	17	52	23	669	178.0	-221217.0	706.0	2461215.0
28	17	52	23	670	179.0	-218266.0	678.0	2464173.0
28	17	52	23	671	180.0	-215956.0	661.0	2478788.0
28	17	52	23	671	181.0	-213972.0	665.0	2501029.0
28	17	52	23	672	182.0	-212291.0	633.0	2522901.0
28	17	52	23	673	183.0	-210766.0	606.0	2546595.0
28	17	52	23	673	184.0	-209691.0	562.0	2568638.0
28	17	52	23	674	185.0	-209149.0	527.0	2584519.0
28	17	52	23	675	186.0	-209379.0	484.0	2595857.0
28	17	52	23	675	188.0	-211368.0	422.0	2612243.0
28	17	52	23	676	189.0	-212625.0	396.0	2622079.0
28	17	52	23	677	190.0	-213676.0	364.0	2627959.0
28	17	52	23	678	191.0	-213746.0	359.0	2631495.0
28	17	52	23	678	192.0	-213312.0	351.0	2635923.0
28	17	52	23	679	193.0	-213764.0	349.0	2641528.0
28	17	52	23	711	194.0	-214097.0	336.0	2644212.0
28	17	52	23	712	195.0	-213707.0	320.0	2645385.0
28	17	52	23	713	196.0	-213289.0	300.0	2644509.0
28	17	52	23	714	197.0	-213141.0	291.0	2642844.0
28	17	52	23	715	198.0	-213321.0	264.0	2642649.0
28	17	52	23	715	199.0	-213602.0	249.0	2643019.0
28	17	52	23	716	200.0	-213375.0	212.0	2642996.0
28	17	52	23	717	201.0	-212811.0	173.0	2641011.0
28	17	52	23	717	202.0	-212949.0	138.0	2639029.0
28	17	52	23	718	203.0	-213271.0	114.0	2637168.0
28	17	52	23	719	204.0	-213474.0	77.0	2634265.0
28	17	52	23	719	205.0	-213647.0	9.0	2631839.0
28	17	52	23	720	206.0	-214394.0	-29.0	2628561.0
28	17	52	23	721	207.0	-215634.0	-72.0	2624876.0
28	17	52	23	721	208.0	-216317.0	-92.0	2623379.0
28	17	52	23	722	210.0	-217516.0	-130.0	2618428.0
28	17	52	23	755	211.0	-218762.0	-169.0	2614986.0
28	17	52	23	756	212.0	-220127.0	-207.0	2612804.0
28	17	52	23	757	213.0	-221319.0	-236.0	2611209.0
28	17	52	23	757	214.0	-222660.0	-261.0	2609512.0
28	17	52	23	758	215.0	-224151.0	-298.0	2606614.0
28	17	52	23	759	216.0	-225171.0	-314.0	2603043.0
28	17	52	23	759	217.0	-226091.0	-325.0	2600536.0
28	17	52	23	760	218.0	-226666.0	-359.0	2598434.0
28	17	52	23	761	219.0	-227600.0	-390.0	2600636.0
28	17	52	23	761	220.0	-228473.0	-404.0	2606511.0
28	17	52	23	762	221.0	-229019.0	-436.0	2605937.0
28	17	52	23	763	222.0	-229274.0	-467.0	2602875.0
28	17	52	23	763	223.0	-229119.0	-503.0	2601000.0
28	17	52	23	764	224.0	-228649.0	-529.0	2599681.0
28	17	52	23	764	225.0	-227264.0	-546.0	2598579.0
28	17	52	23	800	226.0	-225183.0	-557.0	2596676.0
28	17	52	23	801	233.0	-203379.0	-655.0	2581984.0
28	17	52	23	802	234.0	-199341.0	-691.0	2580728.0
28	17	52	23	802	235.0	-195018.0	-696.0	2578143.0
28	17	52	23	803	236.0	-190921.0	-689.0	2575719.0
28	17	52	23	804	237.0	-187653.0	-694.0	2572984.0
28	17	52	23	805	238.0	-184674.0	-702.0	2569602.0
28	17	52	23	805	239.0	-181852.0	-699.0	2566881.0
28	17	52	23	806	240.0	-179696.0	-719.0	2563639.0
28	17	52	23	807	241.0	-177803.0	-754.0	2561358.0
28	17	52	23	807	242.0	-176156.0	-779.0	2559786.0
28	17	52	23	808	243.0	-175754.0	-792.0	2558666.0
28	17	52	23	809	244.0	-176171.0	-812.0	2556621.0
28	17	52	23	809	245.0	-176757.0	-847.0	2554997.0
28	17	52	23	810	246.0	-177862.0	-865.0	2553557.0
28	17	52	23	811	255.0	-201892.0	-916.0	2524029.0
28	17	52	23	811	0.0	-204045.0	-904.0	2517879.0
28	17	52	23	812	1.0	-206162.0	-896.0	2513467.0
28	17	52	23	812	2.0	-208489.0	-877.0	2508121.0
28	17	52	23	813	3.0	-210167.0	-860.0	2502171.0
28	17	52	23	814	4.0	-210763.0	-882.0	2494610.0
28	17	52	23	814	5.0	-210663.0	-879.0	2484486.0
28	17	52	23	846	6.0	-209309.0	-876.0	2472753.0
28	17	52	23	846	7.0	-206892.0	-879.0	2465776.0
28	17	52	23	847	8.0	-203723.0	-886.0	2466770.0
28	17	52	23	848	9.0	-199464.0	-901.0	2473775.0
28	17	52	23	849	10.0	-194545.0	-922.0	2480263.0
28	17	52	23	850	11.0	-188867.0	-931.0	2485974.0
28	17	52	23	850	12.0	-183336.0	-926.0	2489138.0
28	17	52	23	851	13.0	-178904.0	-948.0	2498321.0
28	17	52	23	852	14.0	-175018.0	-966.0	2510918.0
28	17	52	23	852	15.0	-172064.0	-968.0	2518998.0
28	17	52	23	853	16.0	-169863.0	-984.0	2519002.0
28	17	52	23	854	17.0	-168766.0	-1017.0	2515616.0
28	17	52	23	854	18.0	-170332.0	-1045.0	2511381.0
28	17	52	23	855	19.0	-174966.0	-1078.0	2508324.0
28	17	52	23	856	20.0	-181367.0	-1098.0	2504454.0
28	17	52	23	856	22.0	-195466.0	-1135.0	2497256.0
28	17	52	23	857	23.0	-202324.0	-1127.0	2492666.0
28	17	52	23	858	24.0	-207295.0	-1114.0	2488518.0
28	17	52	23	858	25.0	-210573.0	-1126.0	2486206.0
28	17	52	23	859	26.0	-212739.0	-1129.0	2484588.0
28	17	52	23	859	27.0	-214704.0	-1127.0	2481601.0
28	17	52	23	890	28.0	-216481.0	-1155.0	2480229.0
28	17	52	23	891	29.0	-216842.0	-1152.0	2479631.0
28	17	52	23	891	30.0	-212872.0	-1164.0	2478188.0
28	17	52	23	892	31.0	-202867.0	-1175.0	2476463.0
28	17	52	23	893	32.0	-185116.0	-1209.0	2473956.0
28	17	52	23	894	33.0	-160752.0	-1231.0	2471514.0
28	17	52	23	894	34.0	-135325.0	-1242.0	2468947.0
28	17	52	23	895	35.0	-117341.0	-1260.0	2466800.0
28	17	52	23	896	36.0	-110797.0	-1286.0	2464674.0
28	17	52	23	897	37.0	-115170.0	-1312.0	2462830.0
28	17	52	23	897	38.0	-125594.0	-1323.0	2460587.0
28	17	52	23	898	39.0	-143527.0	-1328.0	2458056.0
28	17	52	23	899	40.0	-169584.0	-1344.0	2455881.0
28	17	52	23	899	41.0	-197384.0	-1354.0	2455279.0
28	17	52	23	900	42.0	-220656.0	-1356.0	2454869.0
28	17	52	23	901	44.0	-253231.0	-1426.0	2452465.0
28	17	52	23	902	45.0	-265546.0	-1441.0	2452163.0
28	17	52	23	902	46.0	-275191.0	-1445.0	2451382.0
28	17	52	23	903	47.0	-281782.0	-1454.0	2451553.0
28	17	52	23	903	48.0	-285251.0	-1458.0	2450961.0
28	17	52	23	904	49.0	-284657.0	-1457.0	2450033.0
28	17	52	23	905	50.0	-279706.0	-1466.0	2448919.0
28	17	52	23	935	51.0	-270882.0	-1472.0	2449786.0
28	17	52	23	936	52.0	-257744.0	-1501.0	2452549.0
28	17	52	23	937	53.0	-241740.0	-1522.0	2452240.0
28	17	52	23	937	54.0	-225711.0	-1551.0	2449385.0
28	17	52	23	938	55.0	-211063.0	-1575.0	2446775.0
28	17	52	23	939	56.0	-198599.0	-1609.0	2444058.0
28	17	52	23	940	57.0	-187425.0	-1640.0	2441956.0
28	17	52	23	940	58.0	-176381.0	-1651.0	2441138.0
28	17	52	23	941	59.0	-164532.0	-1669.0	2440407.0
28	17	52	23	942	60.0	-152407.0	-1676.0	2439116.0
28	17	52	23	942	61.0	-142688.0	-1707.0	2438369.0
28	17	52	23	943	62.0	-136391.0	-1723.0	2436689.0
28	17	52	23	944	63.0	-133722.0	-1736.0	2434608.0
28	17	52	23	945	64.0	-134421.0	-1753.0	2432545.0
28	17	52	23	945	65.0	-137864.0	-1764.0	2430506.0
28	17	52	23	946	67.0	-149912.0	-1744.0	2428112.0
28	17	52	23	947	68.0	-157780.0	-1746.0	2426649.0
28	17	52	23	947	69.0	-165956.0	-1749.0	2424489.0
28	17	52	23	948	70.0	-174212.0	-1750.0	2422771.0
28	17	52	23	949	71.0	-181986.0	-1734.0	2421287.0
28	17	52	23	950	72.0	-188787.0	-1736.0	2419131.0
28	17	52	23	981	73.0	-194182.0	-1742.0	2416349.0
28	17	52	23	981	74.0	-197938.0	-1730.0	2414659.0
28	17	52	23	982	75.0	-200755.0	-1749.0	2412788.0
28	17	52	23	982	76.0	-202426.0	-1779.0	2411179.0
28	17	52	23	983	77.0	-202786.0	-1771.0	2410015.0
28	17	52	23	984	78.0	-201924.0	-1793.0	2406798.0
28	17	52	23	984	79.0	-199902.0	-1806.0	2402752.0
28	17	52	23	985	80.0	-197712.0	-1801.0	2398546.0
28	17	52	23	985	81.0	-197372.0	-1825.0	2394814.0
28	17	52	23	986	82.0	-195007.0	-1856.0	2390968.0
28	17	52	23	987	83.0	-190058.0	-1874.0	2387754.0
28	17	52	23	987	84.0	-188372.0	-1899.0	2384356.0
28	17	52	23	988	85.0	-186038.0	-1918.0	2380551.0
28	17	52	23	988	86.0	-184064.0	-1954.0	2377428.0
28	17	52	23	989	87.0	-182567.0	-1986.0	2375190.0
28	17	52	23	990	89.0	-180623.0	-2032.0	2372518.0
28	17	52	23	990	90.0	-179313.0	-2049.0	2369922.0
28	17	52	23	991	91.0	-178232.0	-2064.0	2367021.0
28	17	52	23	991	92.0	-177490.0	-2067.0	2364791.0
28	17	52	23	992	93.0	-177188.0	-2069.0	2362397.0
28	17	52	23	992	94.0	-177397.0	-2069.0	2359549.0
28	17	52	23	993	95.0	-178077.0	-2076.0	2357278.0
28	17	52	24	25	96.0	-179370.0	-2082.0	2355859.0
28	17	52	24	26	97.0	-181297.0	-2091.0	2353573.0
28	17	52	24	26	98.0	-183562.0	-2080.0	2351761.0
28	17	52	24	27	99.0	-186243.0	-2100.0	2349504.0
28	17	52	24	27	100.0	-189047.0	-2106.0	2346344.0
28	17	52	24	28	101.0	-191208.0	-2106.0	2343189.0
28	17	52	24	29	102.0	-191836.0	-2110.0	2341041.0
28	17	52	24	29	103.0	-191344.0	-2122.0	2338041.0
28	17	52	24	30	104.0	-190647.0	-2144.0	2334885.0
28	17	52	24	30	105.0	-188819.0	-2147.0	2332913.0
28	17	52	24	31	106.0	-186331.0	-2153.0	2330816.0
28	17	52	24	31	107.0	-183911.0	-2157.0	2328393.0
28	17	52	24	32	108.0	-181130.0	-2162.0	2326300.0
28	17	52	24	33	109.0	-179231.0	-2171.0	2323658.0
28	17	52	24	33	110.0	-178248.0	-2170.0	2320444.0
28	17	52	24	34	112.0	-176828.0	-2212.0	2315747.0
28	17	52	24	34	113.0	-177107.0	-2204.0	2312699.0
28	17	52	24	35	114.0	-178164.0	-2222.0	2309571.0
28	17	52	24	35	115.0	-179909.0	-2228.0	2307029.0
28	17	52	24	36	116.0	-181582.0	-2245.0	2305003.0
28	17	52	24	36	117.0	-183276.0	-2238.0	2301783.0
28	17	52	24	70	118.0	-185288.0	-2249.0	2299577.0
28	17	52	24	70	119.0	-187854.0	-2255.0	2297976.0
28	17	52	24	71	120.0	-189631.0	-2268.0	2295635.0
28	17	52	24	72	121.0	-190882.0	-2296.0	2293084.0
28	17	52	24	72	122.0	-191737.0	-2312.0	2290426.0
28	17	52	24	73	123.0	-190876.0	-2324.0	2288625.0
28	17	52	24	74	124.0	-189631.0	-2345.0	2286136.0
28	17	52	24	74	125.0	-187929.0	-2348.0	2283840.0
28	17	52	24	75	126.0	-185664.0	-2354.0	2281514.0
28	17	52	24	76	127.0	-183788.0	-2346.0	2279389.0
28	17	52	24	76	128.0	-181189.0	-2346.0	2277444.0
28	17	52	24	77	129.0	-178747.0	-2340.0	2274875.0
28	17	52	24	78	130.0	-176999.0	-2324.0	2272616.0
28	17	52	24	78	131.0	-175490.0	-2327.0	2271401.0
28	17	52	24	79	132.0	-174418.0	-2312.0	2269403.0
28	17	52	24	79	134.0	-172815.0	-2304.0	2264073.0
28	17	52	24	80	135.0	-172158.0	-2293.0	2261629.0
28	17	52	24	88	136.0	-171730.0	-2271.0	2260159.0
28	17	52	24	89	137.0	-171983.0	-2271.0	2258409.0
28	17	52	24	89	138.0	-172771.0	-2265.0	2256988.0
28	17	52	24	90	139.0	-174323.0	-2263.0	2254739.0
28	17	52	24	115	140.0	-176787.0	-2255.0	2251338.0
28	17	52	24	115	141.0	-179786.0	-2242.0	2247978.0
28	17	52	24	116	142.0	-183274.0	-2240.0	2244411.0
28	17	52	24	117	143.0	-187019.0	-2224.0	2241445.0
28	17	52	24	117	144.0	-190822.0	-2219.0	2238559.0
28	17	52	24	118	145.0	-194224.0	-2206.0	2235473.0
28	17	52	24	118	146.0	-197070.0	-2176.0	2231929.0
28	17	52	24	119	147.0	-200402.0	-2147.0	2228644.0
28	17	52	24	120	148.0	-204511.0	-2126.0	2225558.0
28	17	52	24	120	149.0	-208072.0	-2100.0	2222463.0
28	17	52	24	121	150.0	-211571.0	-2084.0	2218949.0
28	17	52	24	121	151.0	-215724.0	-2069.0	2215703.0
28	17	52	24	122	152.0	-219406.0	-2059.0	2212849.0
28	17	52	24	123	153.0	-222007.0	-2033.0	2210575.0
28	17	52	24	123	154.0	-224101.0	-2017.0	2207816.0
28	17	52	24	124	156.0	-222743.0	-1958.0	2202541.0
28	17	52	24	124	157.0	-216281.0	-1937.0	2200216.0
28	17	52	24	125	158.0	-201227.0	-1904.0	2196766.0
28	17	52	24	126	159.0	-176286.0	-1852.0	2193561.0
28	17	52	24	126	160.0	-150216.0	-1814.0	2190444.0
28	17	52	24	127	161.0	-133501.0	-1776.0	2187401.0
28	17	52	24	127	162.0	-135809.0	-1741.0	2184398.0
28	17	52	24	160	163.0	-150694.0	-1672.0	2182550.0
28	17	52	24	161	164.0	-170162.0	-1615.0	2181020.0
28	17	52	24	161	165.0	-192137.0	-1547.0	2179666.0
28	17	52	24	162	166.0	-209706.0	-1492.0	2178147.0
28	17	52	24	162	167.0	-226743.0	-1450.0	2176473.0
28	17	52	24	163	168.0	-246202.0	-1427.0	2174671.0
28	17	52	24	164	169.0	-260967.0	-1403.0	2173612.0
28	17	52	24	164	170.0	-269889.0	-1371.0	2171829.0
28	17	52	24	165	171.0	-272836.0	-1334.0	2169990.0
28	17	52	24	165	172.0	-269994.0	-1313.0	2167746.0
28	17	52	24	166	173.0	-264251.0	-1268.0	2166083.0
28	17	52	24	167	174.0	-257701.0	-1239.0	2164174.0
28	17	52	24	167	175.0	-251088.0	-1219.0	2163047.0
28	17	52	24	168	176.0	-245945.0	-1182.0	2162802.0
28	17	52	24	168	177.0	-243475.0	-1153.0	2162382.0
28	17	52	24	169	179.0	-239847.0	-1105.0	2159949.0
28	17	52	24	170	180.0	-237424.0	-1095.0	2158807.0
28	17	52	24	170	181.0	-231247.0	-1051.0	2156872.0
28	17	52	24	171	182.0	-219239.0	-1005.0	2155200.0
28	17	52	24	171	183.0	-205664.0	-962.0	2154848.0
28	17	52	24	172	184.0	-193381.0	-944.0	2153652.0
28	17	52	24	205	185.0	-185678.0	-923.0	2152018.0
28	17	52	24	206	186.0	-183436.0	-908.0	2150201.0
28	17	52	24	206	187.0	-187812.0	-866.0	2149191.0
28	17	52	24	207	188.0	-199598.0	-853.0	2148198.0
28	17	52	24	208	189.0	-215840.0	-839.0	2147535.0
28	17	52	24	208	190.0	-233273.0	-820.0	2145876.0
28	17	52	24	209	191.0	-248699.0	-822.0	2143712.0
28	17	52	24	209	192.0	-260345.0	-792.0	2142891.0
28	17	52	24	210	193.0	-267323.0	-759.0	2141542.0
28	17	52	24	211	194.0	-269046.0	-754.0	2140103.0
28	17	52	24	211	195.0	-266636.0	-765.0	2138503.0
28	17	52	24	212	196.0	-260329.0	-744.0	2136693.0
28	17	52	24	212	197.0	-251287.0	-724.0	2134489.0
28	17	52	24	213	198.0	-241384.0	-702.0	2132142.0
28	17	52	24	213	199.0	-230231.0	-683.0	2129511.0
28	17	52	24	214	201.0	-209404.0	-661.0	2125489.0
28	17	52	24	215	202.0	-199976.0	-662.0	2123148.0
28	17	52	24	215	203.0	-192374.0	-641.0	2122687.0
28	17	52	24	216	204.0	-186561.0	-628.0	2121509.0
28	17	52	24	216	205.0	-183453.0	-614.0	2119684.0
28	17	52	24	217	206.0	-182698.0	-591.0	2117098.0
28	17	52	24	218	207.0	-183561.0	-581.0	2114286.0
28	17	52	24	249	208.0	-185696.0	-581.0	2111724.0
28	17	52	24	250	209.0	-188120.0	-566.0	2109919.0
28	17	52	24	250	210.0	-190632.0	-558.0	2108731.0
28	17	52	24	251	211.0	-193008.0	-552.0	2106421.0
28	17	52	24	252	212.0	-194495.0	-552.0	2103436.0
28	17	52	24	252	213.0	-194914.0	-545.0	2100696.0
28	17	52	24	253	214.0	-194657.0	-547.0	2098578.0
28	17	52	24	254	215.0	-193807.0	-566.0	2096818.0
28	17	52	24	254	216.0	-192884.0	-582.0	2095353.0
28	17	52	24	255	217.0	-191885.0	-592.0	2093776.0
28	17	52	24	255	218.0	-190272.0	-599.0	2091386.0
28	17	52	24	256	219.0	-188739.0	-619.0	2088770.0
28	17	52	24	256	220.0	-187937.0	-651.0	2086583.0
28	17	52	24	257	221.0	-187311.0	-677.0	2084588.0
28	17	52	24	295	222.0	-187064.0	-693.0	2082823.0
28	17	52	24	296	224.0	-187686.0	-736.0	2078693.0
28	17	52	24	296	225.0	-188459.0	-766.0	2076861.0
28	17	52	24	297	226.0	-189555.0	-776.0	2075794.0
28	17	52	24	298	227.0	-191594.0	-810.0	2073537.0
28	17	52	24	299	228.0	-193485.0	-835.0	2070562.0
28	17	52	24	300	229.0	-196300.0	-866.0	2068976.0
28	17	52	24	301	230.0	-200066.0	-904.0	2066571.0
28	17	52	24	301	231.0	-203129.0	-917.0	2064246.0
28	17	52	24	302	232.0	-206415.0	-946.0	2062652.0
28	17	52	24	302	233.0	-209909.0	-969.0	2060996.0
28	17	52	24	303	234.0	-213414.0	-987.0	2059699.0
28	17	52	24	304	235.0	-217039.0	-1007.0	2057771.0
28	17	52	24	304	236.0	-220757.0	-1036.0	2055266.0
28	17	52	24	305	237.0	-224577.0	-1062.0	2054268.0
28	17	52	24	305	246.0	-243563.0	-1226.0	2037249.0
28	17	52	24	306	247.0	-241966.0	-1241.0	2045124.0
28	17	52	24	307	248.0	-239820.0	-1226.0	2049418.0
28	17	52	24	307	249.0	-236722.0	-1226.0	2050271.0
28	17	52	24	308	250.0	-233089.0	-1236.0	2050359.0
28	17	52	24	309	251.0	-229434.0	-1263.0	2050369.0
28	17	52	24	309	252.0	-225006.0	-1266.0	2049720.0
28	17	52	24	340	253.0	-220449.0	-1282.0	2048756.0
28	17	52	24	341	254.0	-216764.0	-1297.0	2048026.0
28	17	52	24	341	255.0	-213391.0	-1319.0	2047139.0
28	17	52	24	342	0.0	-210259.0	-1323.0	2046265.0
28	17	52	24	343	1.0	-207112.0	-1336.0	2044133.0
28	17	52	24	343	2.0	-204556.0	-1361.0	2043334.0
28	17	52	24	344	3.0	-203003.0	-1375.0	2042099.0
28	17	52	24	345	4.0	-201926.0	-1400.0	2040347.0
28	17	52	24	345	5.0	-200868.0	-1416.0	2039091.0
28	17	52	24	346	6.0	-200386.0	-1434.0	2037064.0
28	17	52	24	346	7.0	-200557.0	-1466.0	2034096.0
28	17	52	24	347	8.0	-200964.0	-1489.0	2031942.0
28	17	52	24	348	9.0	-202133.0	-1492.0	2030307.0
28	17	52	24	348	10.0	-203357.0	-1513.0	2028435.0
28	17	52	24	349	11.0	-204771.0	-1546.0	2026101.0
28	17	52	24	350	13.0	-208531.0	-1610.0	2022000.0
28	17	52	24	350	14.0	-210706.0	-1621.0	2019774.0
28	17	52	24	351	15.0	-212399.0	-1623.0	2017603.0
28	17	52	24	351	16.0	-214204.0	-1621.0	2015473.0
28	17	52	24	352	17.0	-215601.0	-1651.0	2012760.0
28	17	52	24	352	18.0	-216856.0	-1663.0	2010845.0
28	17	52	24	385	19.0	-217987.0	-1674.0	2009056.0
28	17	52	24	385	20.0	-218699.0	-1661.0	2006818.0
28	17	52	24	386	21.0	-219576.0	-1662.0	2004234.0
28	17	52	24	387	22.0	-219774.0	-1676.0	2002604.0
28	17	52	24	387	23.0	-219113.0	-1706.0	2000507.0
28	17	52	24	388	24.0	-217202.0	-1714.0	1998283.0
28	17	52	24	389	25.0	-213654.0	-1706.0	1996307.0
28	17	52	24	390	26.0	-209572.0	-1722.0	1994218.0
28	17	52	24	391	27.0	-204897.0	-1762.0	1991618.0
28	17	52	24	391	28.0	-200020.0	-1754.0	1989158.0
28	17	52	24	392	29.0	-194849.0	-1783.0	1986753.0
28	17	52	24	393	30.0	-189836.0	-1803.0	1983704.0
28	17	52	24	394	31.0	-184750.0	-1813.0	1981203.0
28	17	52	24	394	32.0	-179676.0	-1844.0	1979307.0
28	17	52	24	395	33.0	-175601.0	-1873.0	1976809.0
28	17	52	24	395	35.0	-168786.0	-1922.0	1971820.0
28	17	52	24	396	36.0	-165722.0	-1923.0	1969255.0
28	17	52	24	397	37.0	-163164.0	-1899.0	1966443.0
28	17	52	24	397	38.0	-160483.0	-1894.0	1964723.0
28	17	52	24	398	39.0	-158022.0	-1898.0	1961790.0
28	17	52	24	398	40.0	-155724.0	-1905.0	1959190.0
28	17	52	24	399	41.0	-153745.0	-1901.0	1956218.0
28	17	52	24	430	42.0	-152410.0	-1909.0	1954248.0
28	17	52	24	431	43.0	-151406.0	-1895.0	1951920.0
28	17	52	24	432	44.0	-150827.0	-1899.0	1949178.0
28	17	52	24	432	45.0	-151006.0	-1903.0	1946472.0
28	17	52	24	433	46.0	-151050.0	-1906.0	1942943.0
28	17	52	24	434	47.0	-151499.0	-1917.0	1940926.0
28	17	52	24	434	48.0	-152649.0	-1942.0	1937679.0
28	17	52	24	435	49.0	-153922.0	-1951.0	1933108.0
28	17	52	24	435	50.0	-156556.0	-1969.0	1927916.0
28	17	52	24	436	51.0	-159982.0	-1978.0	1920621.0
28	17	52	24	436	52.0	-163070.0	-1974.0	1915063.0
28	17	52	24	475	53.0	-165579.0	-1999.0	1909907.0
28	17	52	24	476	54.0	-167102.0	-2036.0	1901776.0
28	17	52	24	476	55.0	-167131.0	-2072.0	1894369.0
28	17	52	24	477	56.0	-166477.0	-2082.0	1891384.0
28	17	52	24	478	58.0	-164382.0	-2136.0	1894104.0
28	17	52	24	479	59.0	-163606.0	-2156.0	1898838.0
28	17	52	24	479	60.0	-163348.0	-2158.0	1899748.0
28	17	52	24	480	61.0	-164164.0	-2149.0	1906176.0
28	17	52	24	480	62.0	-165528.0	-2169.0	1921329.0
28	17	52	24	481	63.0	-168091.0	-2206.0	1934948.0
28	17	52	24	482	64.0	-172906.0	-2227.0	1938900.0
28	17	52	24	482	65.0	-179823.0	-2232.0	1934762.0
28	17	52	24	483	66.0	-188396.0	-2271.0	1929508.0
28	17	52	24	484	67.0	-198627.0	-2299.0	1924474.0
28	17	52	24	484	68.0	-209601.0	-2294.0	1919276.0
28	17	52	24	485	69.0	-220232.0	-2332.0	1915791.0
28	17	52	24	485	80.0	-182723.0	-2634.0	1875746.0
28	17	52	24	486	81.0	-152880.0	-2643.0	1872605.0
28	17	52	24	487	82.0	-128565.0	-2675.0	1868980.0
28	17	52	24	487	83.0	-118327.0	-2696.0	1865261.0
28	17	52	24	488	84.0	-124906.0	-2699.0	1862271.0
28	17	52	24	488	85.0	-144426.0	-2722.0	1861061.0
28	17	52	24	489	86.0	-169212.0	-2737.0	1860741.0
28	17	52	24	521	87.0	-195427.0	-2755.0	1858518.0
28	17	52	24	522	88.0	-224245.0	-2767.0	1855910.0
28	17	52	24	522	89.0	-253481.0	-2766.0	1853869.0
28	17	52	24	523	90.0	-275816.0	-2787.0	1851153.0
28	17	52	24	524	91.0	-287625.0	-2818.0	1849096.0
28	17	52	24	524	92.0	-289355.0	-2831.0	1847132.0
28	17	52	24	525	93.0	-284951.0	-2854.0	1845153.0
28	17	52	24	526	94.0	-276191.0	-2877.0	1843849.0
28	17	52	24	526	95.0	-266007.0	-2912.0	1842241.0
28	17	52	24	527	96.0	-257339.0	-2944.0	1840009.0
28	17	52	24	528	97.0	-248927.0	-2956.0	1838094.0
28	17	52	24	528	98.0	-238351.0	-2957.0	1836270.0
28	17	52	24	529	99.0	-225160.0	-2974.0	1835528.0
28	17	52	24	530	100.0	-209437.0	-2972.0	1834007.0
28	17	52	24	530	101.0	-192909.0	-3012.0	1830585.0
28	17	52	24	531	102.0	-177087.0	-3006.0	1825733.0
28	17	52	24	532	103.0	-164885.0	-3019.0	1820931.0
28	17	52	24	532	104.0	-155319.0	-3023.0	1818028.0
28	17	52	24	533	105.0	-148030.0	-3007.0	1815268.0
28	17	52	24	533	106.0	-141989.0	-3011.0	1810174.0
28	17	52	24	534	107.0	-137652.0	-3044.0	1805538.0
28	17	52	24	535	108.0	-133917.0	-3062.0	1801663.0
28	17	52	24	535	109.0	-132789.0	-3086.0	1797825.0
28	17	52	24	565	110.0	-134862.0	-3101.0	1794224.0
28	17	52	24	566	111.0	-138457.0	-3109.0	1789952.0
28	17	52	24	566	112.0	-142806.0	-3140.0	1783374.0
28	17	52	24	567	113.0	-147226.0	-3157.0	1778774.0
28	17	52	24	568	114.0	-151902.0	-3191.0	1776311.0
28	17	52	24	569	115.0	-156835.0	-3221.0	1773228.0
28	17	52	24	569	116.0	-162211.0	-3242.0	1770084.0
28	17	52	24	570	117.0	-167480.0	-3277.0	1767126.0
28	17	52	24	570	118.0	-172295.0	-3292.0	1765359.0
28	17	52	24	571	119.0	-177033.0	-3329.0	1761904.0
28	17	52	24	572	120.0	-183279.0	-3361.0	1760501.0
28	17	52	24	572	121.0	-184452.0	-3402.0	1759588.0
28	17	52	24	573	122.0	-183176.0	-3438.0	1754980.0
28	17	52	24	574	123.0	-187237.0	-3435.0	1750509.0
28	17	52	24	574	124.0	-190224.0	-3445.0	1747102.0
28	17	52	24	575	125.0	-191106.0	-3495.0	1744048.0
28	17	52	24	576	126.0	-191565.0	-3519.0	1740935.0
28	17	52	24	576	127.0	-193053.0	-3530.0	1738591.0
28	17	52	24	577	128.0	-193756.0	-3548.0	1736447.0
28	17	52	24	577	129.0	-194247.0	-3561.0	1732516.0
28	17	52	24	578	130.0	-193407.0	-3570.0	1727930.0
28	17	52	24	610	131.0	-190247.0	-3602.0	1725285.0
28	17	52	24	610	132.0	-186645.0	-3644.0	1722741.0
28	17	52	24	611	133.0	-183572.0	-3659.0	1719134.0
28	17	52	24	612	134.0	-179216.0	-3666.0	1715778.0
28	17	52	24	613	135.0	-175917.0	-3689.0	1713276.0
28	17	52	24	613	136.0	-175152.0	-3692.0	1710884.0
28	17	52	24	614	137.0	-174509.0	-3711.0	1707229.0
28	17	52	24	615	138.0	-174413.0	-3700.0	1703673.0
28	17	52	24	615	139.0	-174235.0	-3694.0	1699893.0
28	17	52	24	616	140.0	-175263.0	-3709.0	1696464.0
28	17	52	24	617	141.0	-177014.0	-3702.0	1694158.0
28	17	52	24	617	142.0	-180075.0	-3707.0	1691294.0
28	17	52	24	618	143.0	-184552.0	-3713.0	1688939.0
28	17	52	24	618	144.0	-188895.0	-3720.0	1686074.0
28	17	52	24	619	145.0	-193260.0	-3728.0	1684000.0
28	17	52	24	620	147.0	-201343.0	-3766.0	1678217.0
28	17	52	24	620	148.0	-204822.0	-3795.0	1676800.0
28	17	52	24	621	149.0	-208682.0	-3787.0	1675174.0
28	17	52	24	622	150.0	-211807.0	-3781.0	1674454.0
28	17	52	24	622	151.0	-214827.0	-3762.0	1674038.0
28	17	52	24	623	152.0	-217614.0	-3756.0	1672416.0
28	17	52	24	623	153.0	-220007.0	-3761.0	1669524.0
28	17	52	24	655	154.0	-223189.0	-3776.0	1667621.0
28	17	52	24	701	155.0	-226744.0	-3764.0	1664987.0
28	17	52	24	745	156.0	-230926.0	-3762.0	1662535.0
28	17	52	24	746	157.0	-235012.0	-3753.0	1660507.0
28	17	52	24	746	158.0	-238838.0	-3747.0	1658763.0
28	17	52	24	747	159.0	-241809.0	-3736.0	1657210.0
28	17	52	24	748	160.0	-243553.0	-3724.0	1656067.0
28	17	52	24	749	161.0	-244927.0	-3719.0	1655410.0
28	17	52	24	749	162.0	-245142.0	-3702.0	1655186.0
28	17	52	24	750	163.0	-244721.0	-3692.0	1654519.0
28	17	52	24	751	164.0	-243867.0	-3681.0	1654549.0
28	17	52	24	751	165.0	-242100.0	-3671.0	1652736.0
28	17	52	24	752	166.0	-240904.0	-3662.0	1650758.0
28	17	52	24	753	167.0	-239732.0	-3653.0	1648576.0
28	17	52	24	753	168.0	-238435.0	-3629.0	1647817.0
28	17	52	24	754	170.0	-235479.0	-3636.0	1645732.0
28	17	52	24	755	192.0	-184190.0	-3156.0	1600828.0
28	17	52	24	755	215.0	-211866.0	-2286.0	1547680.0
28	17	52	24	756	216.0	-225579.0	-2257.0	1544654.0
28	17	52	24	757	217.0	-242159.0	-2202.0	1542558.0
28	17	52	24	757	218.0	-256889.0	-2168.0	1540021.0
28	17	52	24	758	219.0	-266301.0	-2112.0	1537964.0
28	17	52	24	758	220.0	-270821.0	-2076.0	1535878.0
28	17	52	24	790	221.0	-269991.0	-2037.0	1534351.0
28	17	52	24	791	222.0	-265098.0	-1994.0	1534109.0
28	17	52	24	791	223.0	-257827.0	-1949.0	1532099.0
28	17	52	24	792	224.0	-248976.0	-1944.0	1530057.0
28	17	52	24	793	225.0	-240076.0	-1912.0	1527583.0
28	17	52	24	794	226.0	-229964.0	-1894.0	1525322.0
28	17	52	24	794	227.0	-219011.0	-1882.0	1523254.0
28	17	52	24	795	228.0	-209329.0	-1850.0	1522148.0
28	17	52	24	796	229.0	-201318.0	-1836.0	1521098.0
28	17	52	24	796	230.0	-193059.0	-1805.0	1519791.0
28	17	52	24	797	231.0	-187099.0	-1777.0	1517775.0
28	17	52	24	798	232.0	-182803.0	-1759.0	1514874.0
28	17	52	24	798	233.0	-180721.0	-1742.0	1513661.0
28	17	52	24	799	234.0	-181222.0	-1724.0	1512358.0
28	17	52	24	800	235.0	-183450.0	-1716.0	1509864.0
28	17	52	24	800	237.0	-186867.0	-1702.0	1508030.0
28	17	52	24	801	238.0	-187006.0	-1707.0	1506539.0
28	17	52	24	801	239.0	-186084.0	-1696.0	1504904.0
28	17	52	24	802	240.0	-184807.0	-1679.0	1503948.0
28	17	52	24	803	241.0	-183744.0	-1675.0	1500933.0
28	17	52	24	803	242.0	-182793.0	-1656.0	1497976.0
28	17	52	24	804	243.0	-181657.0	-1659.0	1496169.0
28	17	52	24	835	244.0	-181087.0	-1677.0	1494645.0
28	17	52	24	836	245.0	-179853.0	-1681.0	1493401.0
28	17	52	24	836	246.0	-178550.0	-1686.0	1491620.0
28	17	52	24	837	247.0	-178046.0	-1696.0	1490157.0
28	17	52	24	838	248.0	-178455.0	-1702.0	1489084.0
28	17	52	24	839	249.0	-178998.0	-1714.0	1488346.0
28	17	52	24	840	250.0	-179803.0	-1733.0	1486429.0
28	17	52	24	840	251.0	-180624.0	-1729.0	1484373.0
28	17	52	24	841	252.0	-181053.0	-1717.0	1482035.0
28	17	52	24	842	253.0	-182021.0	-1706.0	1480140.0
28	17	52	24	842	254.0	-184107.0	-1700.0	1479286.0
28	17	52	24	843	255.0	-187072.0	-1693.0	1477174.0
28	17	52	24	844	0.0	-190803.0	-1704.0	1476170.0
28	17	52	24	844	1.0	-195344.0	-1713.0	1475920.0
28	17	52	24	845	2.0	-199937.0	-1718.0	1474574.0
28	17	52	24	846	4.0	-207965.0	-1712.0	1472066.0
28	17	52	24	846	5.0	-211274.0	-1711.0	1471301.0
28	17	52	24	847	6.0	-214899.0	-1695.0	1469218.0
28	17	52	24	847	7.0	-218002.0	-1671.0	1467362.0
28	17	52	24	848	8.0	-220586.0	-1649.0	1466532.0
28	17	52	24	849	9.0	-222902.0	-1632.0	1465393.0
28	17	52	24	879	10.0	-224969.0	-1619.0	1464811.0
28	17	52	24	880	11.0	-226940.0	-1594.0	1464607.0
28	17	52	24	881	12.0	-229192.0	-1606.0	1463453.0
28	17	52	24	882	13.0	-230635.0	-1603.0	1462268.0
28	17	52	24	883	14.0	-230972.0	-1608.0	1461689.0
28	17	52	24	884	15.0	-230592.0	-1619.0	1461221.0
28	17	52	24	884	16.0	-229261.0	-1616.0	1459736.0
28	17	52	24	885	17.0	-227498.0	-1614.0	1457285.0
28	17	52	24	886	18.0	-225429.0	-1629.0	1456026.0
28	17	52	24	886	19.0	-222641.0	-1651.0	1455360.0
28	17	52	24	887	20.0	-219313.0	-1675.0	1454160.0
28	17	52	24	888	21.0	-215894.0	-1690.0	1452332.0
28	17	52	24	889	22.0	-212666.0	-1702.0	1451938.0
28	17	52	24	889	23.0	-209590.0	-1744.0	1450601.0
28	17	52	24	890	24.0	-207036.0	-1756.0	1449886.0
28	17	52	24	891	26.0	-205265.0	-1791.0	1447901.0
28	17	52	24	891	27.0	-205708.0	-1812.0	1445799.0
28	17	52	24	892	28.0	-206996.0	-1829.0	1444798.0
28	17	52	24	893	29.0	-208994.0	-1838.0	1443754.0
28	17	52	24	893	30.0	-211970.0	-1831.0	1441362.0
28	17	52	24	894	31.0	-215007.0	-1841.0	1439538.0
28	17	52	24	924	32.0	-217094.0	-1857.0	1438179.0
28	17	52	24	925	33.0	-219000.0	-1872.0	1437222.0
28	17	52	24	926	34.0	-221141.0	-1861.0	1435296.0
28	17	52	24	926	35.0	-223171.0	-1889.0	1432944.0
28	17	52	24	927	36.0	-224411.0	-1909.0	1430924.0
28	17	52	24	928	37.0	-224539.0	-1953.0	1428459.0
28	17	52	24	928	38.0	-223345.0	-1944.0	1426687.0
28	17	52	24	929	39.0	-221386.0	-1947.0	1425449.0
28	17	52	24	930	40.0	-219077.0	-1969.0	1423252.0
28	17	52	24	931	41.0	-216219.0	-1978.0	1420829.0
28	17	52	24	931	42.0	-213405.0	-1989.0	1418604.0
28	17	52	24	932	43.0	-211154.0	-2005.0	1416511.0
28	17	52	24	933	44.0	-209430.0	-2023.0	1414138.0
28	17	52	24	933	45.0	-207965.0	-2041.0	1412176.0
28	17	52	24	934	46.0	-206466.0	-2054.0	1409820.0
28	17	52	24	935	49.0	-207464.0	-2061.0	1403239.0
28	17	52	24	936	50.0	-209844.0	-2047.0	1400624.0
28	17	52	24	936	51.0	-212222.0	-2046.0	1397421.0
28	17	52	24	937	52.0	-214543.0	-2028.0	1395589.0
28	17	52	24	938	53.0	-216318.0	-1996.0	1393525.0
28	17	52	24	968	54.0	-217916.0	-1985.0	1390563.0
28	17	52	24	969	55.0	-220005.0	-1962.0	1387893.0
28	17	52	24	970	56.0	-221802.0	-1936.0	1387002.0
28	17	52	24	970	57.0	-223190.0	-1902.0	1384970.0
28	17	52	24	971	58.0	-224234.0	-1884.0	1382359.0
28	17	52	24	972	59.0	-225089.0	-1888.0	1379189.0
28	17	52	24	972	60.0	-226051.0	-1886.0	1375576.0
28	17	52	24	973	61.0	-227096.0	-1876.0	1372158.0
28	17	52	24	974	62.0	-228214.0	-1881.0	1370210.0
28	17	52	25	14	63.0	-228686.0	-1909.0	1368148.0
28	17	52	25	14	64.0	-229270.0	-1921.0	1365958.0
28	17	52	25	15	65.0	-230147.0	-1938.0	1364594.0
28	17	52	25	16	66.0	-230649.0	-1959.0	1362714.0
28	17	52	25	17	67.0	-230947.0	-1988.0	1360658.0
28	17	52	25	17	68.0	-231495.0	-2012.0	1358769.0
28	17	52	25	18	69.0	-232538.0	-2036.0	1358111.0
28	17	52	25	19	71.0	-234304.0	-2070.0	1354801.0
28	17	52	25	19	72.0	-234416.0	-2084.0	1353097.0
28	17	52	25	20	73.0	-234447.0	-2097.0	1352078.0
28	17	52	25	21	74.0	-234459.0	-2102.0	1350747.0
28	17	52	25	21	75.0	-234524.0	-2073.0	1348739.0
28	17	52	25	22	76.0	-234513.0	-2077.0	1345690.0
28	17	52	25	23	77.0	-234498.0	-2089.0	1343391.0
28	17	52	25	24	78.0	-234494.0	-2090.0	1341898.0
28	17	52	25	24	79.0	-234402.0	-2105.0	1340426.0
28	17	52	25	25	94.0	-220714.0	-2327.0	1323029.0
28	17	52	25	26	95.0	-221213.0	-2341.0	1322670.0
28	17	52	25	27	96.0	-221222.0	-2354.0	1322418.0
28	17	52	25	27	97.0	-220759.0	-2361.0	1321880.0
28	17	52	25	28	98.0	-220253.0	-2347.0	1320383.0
28	17	52	25	29	99.0	-219369.0	-2359.0	1319421.0
28	17	52	25	74	100.0	-218293.0	-2360.0	1317332.0
28	17	52	25	95	101.0	-216947.0	-2359.0	1314302.0
28	17	52	25	96	102.0	-215110.0	-2359.0	1313398.0
28	17	52	25	97	103.0	-212978.0	-2349.0	1311531.0
28	17	52	25	98	104.0	-210719.0	-2339.0	1311456.0
28	17	52	25	99	105.0	-208617.0	-2338.0	1317493.0
28	17	52	25	99	106.0	-206874.0	-2335.0	1318683.0
28	17	52	25	100	107.0	-205418.0	-2339.0	1317936.0
28	17	52	25	101	108.0	-204646.0	-2321.0	1318149.0
28	17	52	25	102	109.0	-203520.0	-2319.0	1317898.0
28	17	52	25	102	110.0	-202453.0	-2339.0	1316715.0
28	17	52	25	103	111.0	-201922.0	-2340.0	1315201.0
28	17	52	25	104	112.0	-201927.0	-2339.0	1313459.0
28	17	52	25	105	113.0	-202540.0	-2374.0	1312142.0
28	17	52	25	105	114.0	-203743.0	-2367.0	1311106.0
28	17	52	25	106	123.0	-200391.0	-2425.0	1261666.0
28	17	52	25	107	131.0	-193347.0	-2447.0	1309189.0
28	17	52	25	107	132.0	-199640.0	-2456.0	1307822.0
28	17	52	25	108	133.0	-207555.0	-2449.0	1303704.0
28	17	52	25	109	134.0	-216405.0	-2447.0	1298739.0
28	17	52	25	110	135.0	-224812.0	-2429.0	1294903.0
28	17	52	25	112	136.0	-232857.0	-2422.0	1289540.0
28	17	52	25	113	137.0	-239949.0	-2414.0	1283280.0
28	17	52	25	113	138.0	-245092.0	-2412.0	1278993.0
28	17	52	25	126	139.0	-246504.0	-2427.0	1275286.0
28	17	52	25	127	140.0	-244368.0	-2429.0	1271937.0
28	17	52	25	127	141.0	-241717.0	-2431.0	1269261.0
28	17	52	25	128	142.0	-237619.0	-2437.0	1266071.0
28	17	52	25	129	143.0	-227595.0	-2438.0	1262476.0
28	17	52	25	129	144.0	-208812.0	-2466.0	1259210.0
28	17	52	25	130	145.0	-176059.0	-2507.0	1256554.0
28	17	52	25	130	146.0	-136517.0	-2535.0	1253308.0
28	17	52	25	131	147.0	-101329.0	-2563.0	1250488.0
28	17	52	25	149	148.0	-80181.0	-2574.0	1247508.0
28	17	52	25	149	149.0	-80736.0	-2567.0	1244648.0
28	17	52	25	150	150.0	-101131.0	-2581.0	1242583.0
28	17	52	25	150	151.0	-135993.0	-2619.0	1242199.0
28	17	52	25	151	152.0	-179419.0	-2615.0	1241256.0
28	17	52	25	152	153.0	-223158.0	-2625.0	1239653.0
28	17	52	25	152	154.0	-261135.0	-2657.0	1238614.0
28	17	52	25	153	155.0	-292497.0	-2664.0	1237871.0
28	17	52	25	153	156.0	-313764.0	-2662.0	1238901.0
28	17	52	25	154	157.0	-329000.0	-2672.0	1240393.0
28	17	52	25	154	158.0	-338512.0	-2693.0	1238246.0
28	17	52	25	155	159.0	-329369.0	-2713.0	1235978.0
28	17	52	25	156	160.0	-305396.0	-2741.0	1235706.0
28	17	52	25	156	161.0	-272711.0	-2752.0	1235458.0
28	17	52	25	157	162.0	-237589.0	-2785.0	1234292.0
28	17	52	25	172	163.0	-210288.0	-2804.0	1232181.0
28	17	52	25	173	164.0	-193607.0	-2831.0	1227033.0
28	17	52	25	174	165.0	-182742.0	-2856.0	1215608.0
28	17	52	25	174	166.0	-172419.0	-2876.0	1206231.0
28	17	52	25	175	167.0	-161026.0	-2904.0	1200056.0
28	17	52	25	175	168.0	-148735.0	-2934.0	1190646.0
28	17	52	25	176	169.0	-135720.0	-2956.0	1178156.0
28	17	52	25	197	170.0	-122886.0	-2954.0	1170319.0
28	17	52	25	198	171.0	-113288.0	-2964.0	1166138.0
28	17	52	25	198	172.0	-109153.0	-2984.0	1163335.0
28	17	52	25	199	173.0	-110557.0	-2991.0	1159711.0
28	17	52	25	199	174.0	-116094.0	-3019.0	1156687.0
28	17	52	25	200	175.0	-124179.0	-3049.0	1153629.0
28	17	52	25	200	176.0	-134146.0	-3062.0	1151505.0
28	17	52	25	201	177.0	-145302.0	-3078.0	1148734.0
28	17	52	25	202	178.0	-157739.0	-3054.0	1145766.0
28	17	52	25	202	179.0	-171647.0	-3043.0	1143751.0
28	17	52	25	203	180.0	-186494.0	-3062.0	1141346.0
28	17	52	25	203	181.0	-201017.0	-3069.0	1139674.0
28	17	52	25	204	182.0	-214867.0	-3081.0	1137723.0
28	17	52	25	204	183.0	-227572.0	-3091.0	1136044.0
28	17	52	25	205	184.0	-238531.0	-3101.0	1134243.0
28	17	52	25	221	185.0	-247769.0	-3107.0	1131588.0
28	17	52	25	222	186.0	-256896.0	-3124.0	1129624.0
28	17	52	25	222	187.0	-264956.0	-3144.0	1127263.0
28	17	52	25	223	188.0	-271490.0	-3171.0	1125959.0
28	17	52	25	223	189.0	-277064.0	-3188.0	1124719.0
28	17	52	25	224	190.0	-280694.0	-3205.0	1123094.0
28	17	52	25	225	191.0	-282731.0	-3227.0	1120635.0
28	17	52	25	225	192.0	-282061.0	-3229.0	1119043.0
28	17	52	25	243	193.0	-278931.0	-3234.0	1118091.0
28	17	52	25	244	194.0	-274788.0	-3237.0	1116983.0
28	17	52	25	245	195.0	-269311.0	-3246.0	1116366.0
28	17	52	25	245	196.0	-262856.0	-3261.0	1114454.0
28	17	52	25	246	197.0	-256879.0	-3272.0	1112384.0
28	17	52	25	247	198.0	-250994.0	-3296.0	1111109.0
28	17	52	25	247	199.0	-245906.0	-3333.0	1108126.0
28	17	52	25	248	200.0	-241914.0	-3358.0	1103366.0
28	17	52	25	248	201.0	-237949.0	-3376.0	1100495.0
28	17	52	25	249	202.0	-234770.0	-3372.0	1099018.0
28	17	52	25	250	203.0	-232814.0	-3404.0	1097803.0
28	17	52	25	250	204.0	-231722.0	-3422.0	1095998.0
28	17	52	25	251	205.0	-231242.0	-3431.0	1096106.0
28	17	52	25	251	206.0	-230172.0	-3467.0	1097284.0
28	17	52	25	252	207.0	-229567.0	-3464.0	1097783.0
28	17	52	25	252	208.0	-229992.0	-3458.0	1098901.0
28	17	52	25	253	209.0	-230592.0	-3458.0	1097978.0
28	17	52	25	254	210.0	-232475.0	-3452.0	1096276.0
28	17	52	25	254	211.0	-234462.0	-3471.0	1094123.0
28	17	52	25	255	212.0	-236190.0	-3472.0	1091211.0
28	17	52	25	269	213.0	-237880.0	-3487.0	1090499.0
28	17	52	25	270	214.0	-238711.0	-3491.0	1090614.0
28	17	52	25	271	215.0	-239947.0	-3476.0	1088568.0
28	17	52	25	271	216.0	-240209.0	-3480.0	1086489.0
28	17	52	25	272	217.0	-241127.0	-3479.0	1085187.0
28	17	52	25	273	218.0	-242446.0	-3481.0	1083481.0
28	17	52	25	273	219.0	-243718.0	-3502.0	1082437.0
28	17	52	25	274	220.0	-244747.0	-3508.0	1082029.0
28	17	52	25	275	221.0	-244889.0	-3524.0	1080765.0
28	17	52	25	275	222.0	-244031.0	-3549.0	1078593.0
28	17	52	25	300	223.0	-243167.0	-3537.0	1075397.0
28	17	52	25	300	224.0	-241454.0	-3535.0	1071443.0
28	17	52	25	301	225.0	-240211.0	-3532.0	1067618.0
28	17	52	25	302	226.0	-240261.0	-3566.0	1066749.0
28	17	52	25	303	227.0	-240885.0	-3579.0	1070085.0
28	17	52	25	303	228.0	-241430.0	-3586.0	1070353.0
28	17	52	25	304	229.0	-242369.0	-3595.0	1067948.0
28	17	52	25	304	230.0	-243317.0	-3584.0	1063489.0
28	17	52	25	305	231.0	-244792.0	-3592.0	1060266.0
28	17	52	25	306	232.0	-246782.0	-3594.0	1056586.0
28	17	52	25	306	233.0	-249231.0	-3577.0	1052467.0
28	17	52	25	307	234.0	-250841.0	-3561.0	1049255.0
28	17	52	25	308	235.0	-252247.0	-3561.0	1037526.0
28	17	52	25	308	236.0	-253572.0	-3557.0	993701.0
28	17	52	25	309	237.0	-254976.0	-3574.0	954403.0
28	17	52	25	310	238.0	-255456.0	-3569.0	938793.0
28	17	52	25	310	239.0	-254864.0	-3557.0	927609.0
28	17	52	25	311	240.0	-254151.0	-3546.0	925233.0
28	17	52	25	318	241.0	-252935.0	-3531.0	932364.0
28	17	52	25	319	242.0	-251186.0	-3525.0	928481.0
28	17	52	25	343	243.0	-248904.0	-3516.0	921150.0
28	17	52	25	343	244.0	-244435.0	-3528.0	915510.0
28	17	52	25	344	245.0	-238607.0	-3498.0	909218.0
28	17	52	25	345	246.0	-231592.0	-3476.0	921688.0
28	17	52	25	345	247.0	-229009.0	-3457.0	955716.0
28	17	52	25	346	248.0	-224665.0	-3439.0	987235.0
28	17	52	25	346	249.0	-217371.0	-3433.0	1008494.0
28	17	52	25	347	250.0	-213976.0	-3431.0	1021573.0
28	17	52	25	348	251.0	-210266.0	-3392.0	1032466.0
28	17	52	25	348	252.0	-206900.0	-3369.0	1043388.0
28	17	52	25	349	253.0	-205124.0	-3344.0	1052461.0
28	17	52	25	349	254.0	-203630.0	-3322.0	1064374.0
28	17	52	25	350	255.0	-200949.0	-3287.0	1079639.0
28	17	52	25	350	0.0	-198077.0	-3262.0	1092594.0
28	17	52	25	351	1.0	-194681.0	-3236.0	1101904.0
28	17	52	25	351	2.0	-192221.0	-3202.0	1106726.0
28	17	52	25	352	3.0	-190417.0	-3149.0	1106589.0
28	17	52	25	366	4.0	-189389.0	-3095.0	1103689.0
28	17	52	25	366	5.0	-189207.0	-3029.0	1100694.0
28	17	52	25	367	6.0	-189212.0	-2992.0	1101037.0
28	17	52	25	367	7.0	-190254.0	-2949.0	1102217.0
28	17	52	25	368	8.0	-191771.0	-2896.0	1103460.0
28	17	52	25	369	9.0	-193300.0	-2846.0	1108111.0
28	17	52	25	369	10.0	-195383.0	-2760.0	1113521.0
28	17	52	25	389	11.0	-196819.0	-2701.0	1118573.0
28	17	52	25	389	12.0	-198083.0	-2639.0	1126099.0
28	17	52	25	390	13.0	-199051.0	-2574.0	1136353.0
28	17	52	25	391	14.0	-199328.0	-2541.0	1147709.0
28	17	52	25	391	15.0	-198768.0	-2486.0	1156341.0
28	17	52	25	392	16.0	-196450.0	-2438.0	1162231.0
28	17	52	25	393	17.0	-192046.0	-2386.0	1166789.0
28	17	52	25	393	18.0	-184584.0	-2341.0	1171726.0
28	17	52	25	394	19.0	-169862.0	-2275.0	1177673.0
28	17	52	25	394	20.0	-141078.0	-2204.0	1181576.0
28	17	52	25	395	21.0	-108867.0	-2163.0	1184095.0
28	17	52	25	395	22.0	-86216.0	-2118.0	1187494.0
28	17	52	25	396	23.0	-94245.0	-2040.0	1190155.0
28	17	52	25	396	24.0	-114490.0	-1984.0	1193118.0
28	17	52	25	397	25.0	-133151.0	-1931.0	1198698.0
28	17	52	25	414	26.0	-146567.0	-1882.0	1206374.0
28	17	52	25	415	27.0	-149714.0	-1823.0	1211009.0
28	17	52	25	415	28.0	-148791.0	-1757.0	1212548.0
28	17	52	25	416	29.0	-150237.0	-1706.0	1214213.0
28	17	52	25	417	30.0	-148236.0	-1666.0	1216619.0
28	17	52	25	417	31.0	-145724.0	-1629.0	1218615.0
28	17	52	25	418	32.0	-144123.0	-1559.0	1219899.0
28	17	52	25	419	33.0	-139934.0	-1510.0	1220963.0
28	17	52	25	419	34.0	-137214.0	-1438.0	1221392.0
28	17	52	25	420	35.0	-141972.0	-1356.0	1221979.0
28	17	52	25	420	36.0	-151838.0	-1307.0	1223251.0
28	17	52	25	437	37.0	-164577.0	-1284.0	1223888.0
28	17	52	25	437	38.0	-179773.0	-1246.0	1226866.0
28	17	52	25	438	39.0	-195341.0	-1205.0	1231359.0
28	17	52	25	439	40.0	-209565.0	-1159.0	1237183.0
28	17	52	25	439	41.0	-220679.0	-1082.0	1240328.0
28	17	52	25	440	42.0	-226837.0	-1053.0	1241914.0
28	17	52	25	441	43.0	-227205.0	-1023.0	1244693.0
28	17	52	25	441	44.0	-222539.0	-992.0	1246734.0
28	17	52	25	442	45.0	-214177.0	-961.0	1246906.0
28	17	52	25	442	46.0	-203572.0	-936.0	1246613.0
28	17	52	25	443	47.0	-191908.0	-912.0	1243920.0
28	17	52	25	444	48.0	-180789.0	-887.0	1238834.0
28	17	52	25	444	49.0	-170921.0	-837.0	1234431.0
28	17	52	25	445	50.0	-162696.0	-808.0	1230922.0
28	17	52	25	459	51.0	-156827.0	-776.0	1228087.0
28	17	52	25	460	52.0	-152134.0	-749.0	1222089.0
28	17	52	25	461	53.0	-148981.0	-729.0	1213349.0
28	17	52	25	461	54.0	-147514.0	-672.0	1208612.0
28	17	52	25	482	55.0	-146914.0	-614.0	1203393.0
28	17	52	25	482	56.0	-147480.0	-566.0	1199205.0
28	17	52	25	483	57.0	-149267.0	-517.0	1195047.0
28	17	52	25	483	58.0	-152208.0	-502.0	1190604.0
28	17	52	25	484	59.0	-155999.0	-479.0	1185965.0
28	17	52	25	485	60.0	-160778.0	-457.0	1181873.0
28	17	52	25	485	61.0	-169396.0	-438.0	1178514.0
28	17	52	25	486	62.0	-176556.0	-452.0	1176052.0
28	17	52	25	487	63.0	-173517.0	-447.0	1175048.0
28	17	52	25	487	64.0	-171972.0	-405.0	1173136.0
28	17	52	25	488	65.0	-171712.0	-379.0	1170289.0
28	17	52	25	488	66.0	-170923.0	-374.0	1165060.0
28	17	52	25	489	67.0	-170936.0	-331.0	1134553.0
28	17	52	25	490	68.0	-171609.0	-301.0	1091918.0
28	17	52	25	490	69.0	-173867.0	-297.0	1072721.0
28	17	52	25	491	70.0	-178705.0	-311.0	1065014.0
28	17	52	25	504	71.0	-181198.0	-287.0	1058252.0
28	17	52	25	505	72.0	-181224.0	-263.0	1051189.0
28	17	52	25	506	73.0	-181694.0	-289.0	1047352.0
28	17	52	25	506	74.0	-182638.0	-268.0	1044315.0
28	17	52	25	507	75.0	-183794.0	-224.0	1039250.0
28	17	52	25	508	76.0	-185022.0	-207.0	1031337.0
28	17	52	25	508	77.0	-187934.0	-197.0	1025348.0
28	17	52	25	509	78.0	-190232.0	-171.0	1022974.0
28	17	52	25	509	79.0	-190324.0	-138.0	1022872.0
28	17	52	25	510	80.0	-188169.0	-112.0	1024423.0
28	17	52	25	511	81.0	-184549.0	-122.0	1025131.0
28	17	52	25	511	82.0	-180084.0	-119.0	1025038.0
28	17	52	25	512	83.0	-175444.0	-96.0	1028069.0
28	17	52	25	513	84.0	-170885.0	-84.0	1032639.0
28	17	52	25	513	85.0	-167188.0	-89.0	1037363.0
28	17	52	25	527	86.0	-164191.0	-84.0	1040682.0
28	17	52	25	527	87.0	-162102.0	-71.0	1045033.0
28	17	52	25	528	88.0	-160681.0	-30.0	1050488.0
28	17	52	25	529	89.0	-159130.0	-12.0	1054183.0
28	17	52	25	529	90.0	-157467.0	-14.0	1056811.0
28	17	52	25	530	91.0	-156094.0	-17.0	1059423.0
28	17	52	25	530	92.0	-155054.0	-35.0	1060658.0
28	17	52	25	531	93.0	-154429.0	-31.0	1062033.0
28	17	52	25	550	94.0	-154172.0	-15.0	1063094.0
28	17	52	25	551	95.0	-154358.0	6.0	1064879.0
28	17	52	25	551	96.0	-154786.0	4.0	1068131.0
28	17	52	25	552	97.0	-155436.0	-33.0	1071343.0
28	17	52	25	553	98.0	-156256.0	-41.0	1074965.0
28	17	52	25	553	99.0	-157744.0	-54.0	1079145.0
28	17	52	25	554	100.0	-159882.0	-66.0	1086276.0
28	17	52	25	554	101.0	-162369.0	-76.0	1091931.0
28	17	52	25	555	102.0	-165290.0	-58.0	1094551.0
28	17	52	25	556	103.0	-168607.0	-42.0	1096576.0
28	17	52	25	556	104.0	-172059.0	-36.0	1097553.0
28	17	52	25	557	105.0	-175576.0	-34.0	1099202.0
28	17	52	25	558	106.0	-178451.0	-29.0	1100293.0
28	17	52	25	558	107.0	-181303.0	-36.0	1101258.0
28	17	52	25	559	108.0	-183985.0	-69.0	1101601.0
28	17	52	25	572	109.0	-186206.0	-90.0	1101224.0
28	17	52	25	573	110.0	-187692.0	-75.0	1101068.0
28	17	52	25	574	111.0	-188284.0	-82.0	1101861.0
28	17	52	25	574	112.0	-188164.0	-86.0	1103083.0
28	17	52	25	575	113.0	-187588.0	-82.0	1103087.0
28	17	52	25	576	114.0	-186448.0	-74.0	1103784.0
28	17	52	25	576	115.0	-184662.0	-79.0	1104339.0
28	17	52	25	600	116.0	-182363.0	-62.0	1104643.0
28	17	52	25	601	117.0	-179428.0	-34.0	1104077.0
28	17	52	25	601	118.0	-175807.0	-19.0	1103581.0
28	17	52	25	602	119.0	-171122.0	-20.0	1103247.0
28	17	52	25	603	120.0	-166556.0	-11.0	1103088.0
28	17	52	25	603	121.0	-162965.0	-7.0	1101856.0
28	17	52	25	604	122.0	-159881.0	-6.0	1101037.0
28	17	52	25	605	123.0	-158037.0	9.0	1101282.0
28	17	52	25	605	124.0	-157509.0	17.0	1100156.0
28	17	52	25	606	125.0	-158779.0	9.0	1099749.0
28	17	52	25	607	126.0	-160782.0	13.0	1099609.0
28	17	52	25	607	127.0	-163711.0	21.0	1098809.0
28	17	52	25	608	128.0	-167271.0	28.0	1097919.0
28	17	52	25	609	129.0	-171029.0	37.0	1097691.0
28	17	52	25	609	130.0	-175901.0	39.0	1097326.0
28	17	52	25	610	131.0	-181326.0	56.0	1097033.0
28	17	52	25	611	132.0	-186709.0	69.0	1097946.0
28	17	52	25	611	133.0	-191329.0	74.0	1101604.0
28	17	52	25	612	134.0	-195409.0	69.0	1102747.0
28	17	52	25	624	135.0	-198953.0	94.0	1102631.0
28	17	52	25	625	136.0	-201737.0	104.0	1101979.0
28	17	52	25	647	137.0	-203484.0	68.0	1102171.0
28	17	52	25	647	138.0	-204257.0	37.0	1105068.0
28	17	52	25	648	139.0	-204685.0	31.0	1106966.0
28	17	52	25	649	140.0	-204922.0	0.0	1107492.0
28	17	52	25	649	141.0	-205227.0	-17.0	1107131.0
28	17	52	25	650	142.0	-205602.0	-29.0	1107847.0
28	17	52	25	651	143.0	-207587.0	-44.0	1107111.0
28	17	52	25	651	144.0	-205876.0	-66.0	1104963.0
28	17	52	25	652	145.0	-203945.0	-88.0	1104223.0
28	17	52	25	652	146.0	-203377.0	-91.0	1106531.0
28	17	52	25	653	147.0	-201005.0	-62.0	1107499.0
28	17	52	25	653	148.0	-197592.0	-66.0	1108224.0
28	17	52	25	654	149.0	-194061.0	-78.0	1108033.0
28	17	52	25	655	150.0	-191013.0	-100.0	1108149.0
28	17	52	25	655	151.0	-188187.0	-98.0	1107944.0
28	17	52	25	656	152.0	-185502.0	-107.0	1108164.0
28	17	52	25	674	153.0	-183454.0	-119.0	1108764.0
28	17	52	25	675	154.0	-181309.0	-121.0	1108852.0
28	17	52	25	676	155.0	-179513.0	-122.0	1109203.0
28	17	52	25	677	156.0	-177774.0	-144.0	1109246.0
28	17	52	25	677	157.0	-176189.0	-152.0	1109706.0
28	17	52	25	678	158.0	-175181.0	-152.0	1109716.0
28	17	52	25	679	159.0	-174907.0	-159.0	1109254.0
28	17	52	25	679	160.0	-175216.0	-176.0	1108498.0
28	17	52	25	680	161.0	-176322.0	-184.0	1107960.0
28	17	52	25	681	162.0	-178222.0	-192.0	1107818.0
28	17	52	25	681	163.0	-180394.0	-218.0	1106668.0
28	17	52	25	682	164.0	-183256.0	-245.0	1106129.0
28	17	52	25	683	165.0	-186187.0	-276.0	1105314.0
28	17	52	25	683	166.0	-188754.0	-284.0	1103306.0
28	17	52	25	684	167.0	-191150.0	-313.0	1102025.0
28	17	52	25	685	168.0	-193717.0	-344.0	1101728.0
28	17	52	25	685	169.0	-196572.0	-361.0	1101283.0
28	17	52	25	686	170.0	-199321.0	-354.0	1099513.0
28	17	52	25	687	171.0	-201652.0	-369.0	1098107.0
28	17	52	25	695	172.0	-203692.0	-396.0	1096793.0
28	17	52	25	695	173.0	-205546.0	-413.0	1096181.0
28	17	52	25	718	174.0	-206994.0	-421.0	1095143.0
28	17	52	25	719	175.0	-207882.0	-436.0	1093118.0
28	17	52	25	719	176.0	-208476.0	-440.0	1091370.0
28	17	52	25	720	177.0	-209666.0	-463.0	1090620.0
28	17	52	25	721	178.0	-211124.0	-474.0	1089246.0
28	17	52	25	721	179.0	-212444.0	-479.0	1087328.0
28	17	52	25	722	180.0	-213555.0	-502.0	1086711.0
28	17	52	25	723	181.0	-214928.0	-510.0	1087322.0
28	17	52	25	723	182.0	-217057.0	-508.0	1086403.0
28	17	52	25	724	183.0	-219020.0	-511.0	1085837.0
28	17	52	25	724	184.0	-221017.0	-495.0	1086517.0
28	17	52	25	725	185.0	-222562.0	-507.0	1086960.0
28	17	52	25	726	186.0	-222896.0	-487.0	1085895.0
28	17	52	25	726	187.0	-222856.0	-471.0	1084928.0
28	17	52	25	727	188.0	-222662.0	-489.0	1084636.0
28	17	52	25	727	189.0	-222656.0	-497.0	1087890.0
28	17	52	25	728	190.0	-223107.0	-498.0	1090759.0
28	17	52	25	740	191.0	-223411.0	-513.0	1091263.0
28	17	52	25	741	192.0	-222967.0	-526.0	1090777.0
28	17	52	25	742	193.0	-221774.0	-523.0	1091493.0
28	17	52	25	742	194.0	-220236.0	-531.0	1092031.0
28	17	52	25	743	195.0	-218242.0	-546.0	1090904.0
28	17	52	25	744	196.0	-215729.0	-553.0	1090586.0
28	17	52	25	744	197.0	-212802.0	-567.0	1090014.0
28	17	52	25	745	198.0	-209506.0	-589.0	1087685.0
28	17	52	25	763	199.0	-205653.0	-605.0	1085107.0
28	17	52	25	763	200.0	-201614.0	-619.0	1083513.0
28	17	52	25	764	201.0	-197679.0	-631.0	1082473.0
28	17	52	25	765	202.0	-193654.0	-671.0	1081549.0
28	17	52	25	766	203.0	-189603.0	-702.0	1080649.0
28	17	52	25	766	204.0	-185897.0	-721.0	1079789.0
28	17	52	25	767	205.0	-182178.0	-756.0	1078741.0
28	17	52	25	768	206.0	-178632.0	-792.0	1077481.0
28	17	52	25	768	207.0	-175074.0	-809.0	1075168.0
28	17	52	25	769	208.0	-171286.0	-850.0	1072058.0
28	17	52	25	770	209.0	-167196.0	-912.0	1066923.0
28	17	52	25	770	210.0	-163119.0	-950.0	1060485.0
28	17	52	25	771	211.0	-159149.0	-979.0	1053440.0
28	17	52	25	772	212.0	-154903.0	-1013.0	1044853.0
28	17	52	25	772	213.0	-150341.0	-1054.0	1035137.0
28	17	52	25	773	214.0	-145701.0	-1087.0	1026806.0
28	17	52	25	774	215.0	-141420.0	-1119.0	1021083.0
28	17	52	25	785	216.0	-137876.0	-1137.0	1015983.0
28	17	52	25	785	217.0	-135287.0	-1171.0	1016922.0
28	17	52	25	786	218.0	-134186.0	-1196.0	1035671.0
28	17	52	25	787	219.0	-133824.0	-1225.0	1053473.0
28	17	52	25	808	220.0	-134691.0	-1230.0	1068773.0
28	17	52	25	831	221.0	-138179.0	-1224.0	1095126.0
28	17	52	25	832	222.0	-144663.0	-1241.0	1122335.0
28	17	52	25	833	223.0	-153552.0	-1258.0	1135319.0
28	17	52	25	834	224.0	-165421.0	-1254.0	1134153.0
28	17	52	25	834	225.0	-179900.0	-1241.0	1129671.0
28	17	52	25	835	226.0	-195366.0	-1285.0	1125856.0
28	17	52	25	836	227.0	-210749.0	-1316.0	1122036.0
28	17	52	25	836	228.0	-224944.0	-1311.0	1118810.0
28	17	52	25	837	229.0	-236750.0	-1318.0	1114927.0
28	17	52	25	838	230.0	-244802.0	-1321.0	1110819.0
28	17	52	25	838	231.0	-250064.0	-1350.0	1107657.0
28	17	52	25	839	232.0	-254403.0	-1361.0	1106468.0
28	17	52	25	840	233.0	-257179.0	-1354.0	1105099.0
28	17	52	25	840	234.0	-251156.0	-1355.0	1104458.0
28	17	52	25	841	235.0	-234818.0	-1377.0	1103721.0
28	17	52	25	842	236.0	-200947.0	-1392.0	1103407.0
28	17	52	25	842	237.0	-154818.0	-1414.0	1104929.0
28	17	52	25	843	238.0	-111860.0	-1436.0	1107368.0
28	17	52	25	844	239.0	-82051.0	-1457.0	1112750.0
28	17	52	25	844	240.0	-76864.0	-1474.0	1117696.0
28	17	52	25	845	241.0	-88614.0	-1501.0	1119792.0
28	17	52	25	846	242.0	-117205.0	-1546.0	1119767.0
28	17	52	25	846	243.0	-158436.0	-1547.0	1119447.0
28	17	52	25	847	244.0	-201236.0	-1580.0	1118421.0
28	17	52	25	848	245.0	-241241.0	-1620.0	1117323.0
28	17	52	25	848	246.0	-272696.0	-1628.0	1115785.0
28	17	52	25	849	247.0	-292699.0	-1665.0	1114591.0
28	17	52	25	850	248.0	-300032.0	-1670.0	1113574.0
28	17	52	25	850	249.0	-296707.0	-1687.0	1112759.0
28	17	52	25	851	250.0	-285979.0	-1704.0	1111694.0
28	17	52	25	853	251.0	-269563.0	-1709.0	1110645.0
28	17	52	25	853	252.0	-243329.0	-1728.0	1110753.0
28	17	52	25	854	253.0	-206145.0	-1738.0	1110024.0
28	17	52	25	855	254.0	-172365.0	-1767.0	1108659.0
28	17	52	25	862	255.0	-146536.0	-1786.0	1107253.0
28	17	52	25	862	0.0	-126180.0	-1813.0	1105681.0
28	17	52	25	863	1.0	-111563.0	-1828.0	1104476.0
28	17	52	25	871	2.0	-108002.0	-1818.0	1102745.0
28	17	52	25	872	3.0	-114411.0	-1849.0	1101391.0
28	17	52	25	873	4.0	-123682.0	-1861.0	1100318.0
28	17	52	25	873	5.0	-129376.0	-1884.0	1099084.0
28	17	52	25	874	6.0	-130950.0	-1904.0	1097738.0
28	17	52	25	874	7.0	-129227.0	-1936.0	1097562.0
28	17	52	25	875	8.0	-126019.0	-1964.0	1096737.0
28	17	52	25	876	9.0	-123934.0	-2001.0	1095607.0
28	17	52	25	895	10.0	-124097.0	-2039.0	1093459.0
28	17	52	25	896	11.0	-126806.0	-2050.0	1090921.0
28	17	52	25	897	12.0	-130154.0	-2046.0	1089533.0
28	17	52	25	897	13.0	-133062.0	-2077.0	1088652.0
28	17	52	25	898	14.0	-135757.0	-2100.0	1086976.0
28	17	52	25	899	15.0	-139417.0	-2127.0	1085408.0
28	17	52	25	899	16.0	-145295.0	-2152.0	1084849.0
28	17	52	25	900	17.0	-153436.0	-2149.0	1083414.0
28	17	52	25	900	18.0	-162666.0	-2165.0	1081649.0
28	17	52	25	901	19.0	-171286.0	-2179.0	1080488.0
28	17	52	25	901	20.0	-179270.0	-2188.0	1079836.0
28	17	52	25	902	21.0	-187335.0	-2194.0	1078513.0
28	17	52	25	903	22.0	-195187.0	-2195.0	1077814.0
28	17	52	25	903	23.0	-203207.0	-2206.0	1077451.0
28	17	52	25	904	24.0	-211510.0	-2201.0	1076214.0
28	17	52	25	918	25.0	-218335.0	-2221.0	1074349.0
28	17	52	25	918	26.0	-222556.0	-2219.0	1072849.0
28	17	52	25	919	27.0	-223765.0	-2214.0	1073216.0
28	17	52	25	920	28.0	-221652.0	-2228.0	1071044.0
28	17	52	25	920	29.0	-217128.0	-2251.0	1068629.0
28	17	52	25	921	30.0	-210157.0	-2262.0	1067558.0
28	17	52	25	921	31.0	-202150.0	-2266.0	1066795.0
28	17	52	25	941	32.0	-193924.0	-2261.0	1066041.0
28	17	52	25	942	33.0	-186047.0	-2256.0	1064023.0
28	17	52	25	942	34.0	-179749.0	-2266.0	1063161.0
28	17	52	25	943	35.0	-175792.0	-2281.0	1062291.0
28	17	52	25	944	36.0	-174113.0	-2301.0	1060522.0
28	17	52	25	944	37.0	-174192.0	-2331.0	1058626.0
28	17	52	25	945	38.0	-176437.0	-2357.0	1057678.0
28	17	52	25	945	39.0	-180328.0	-2380.0	1056773.0
28	17	52	25	946	40.0	-185371.0	-2360.0	1055624.0
28	17	52	25	947	41.0	-191824.0	-2378.0	1054376.0
28	17	52	25	947	42.0	-198938.0	-2411.0	1052483.0
28	17	52	25	948	43.0	-205721.0	-2441.0	1051193.0
28	17	52	25	948	44.0	-212892.0	-2443.0	1050712.0
28	17	52	25	949	45.0	-219811.0	-2446.0	1050203.0
28	17	52	25	949	46.0	-225880.0	-2487.0	1049004.0
28	17	52	25	963	47.0	-231070.0	-2480.0	1047604.0
28	17	52	25	964	48.0	-234528.0	-2468.0	1046271.0
28	17	52	25	964	49.0	-236324.0	-2467.0	1045674.0
28	17	52	25	965	50.0	-237279.0	-2495.0	1045173.0
28	17	52	25	965	51.0	-237528.0	-2516.0	1044192.0
28	17	52	25	966	52.0	-237223.0	-2522.0	1042259.0
28	17	52	25	966	53.0	-236532.0	-2540.0	1040639.0
28	17	52	25	967	54.0	-235842.0	-2550.0	1040372.0
28	17	52	25	985	55.0	-234587.0	-2539.0	1039993.0
28	17	52	26	8	56.0	-232531.0	-2550.0	1039113.0
28	17	52	26	8	57.0	-230393.0	-2561.0	1037752.0
28	17	52	26	9	58.0	-228044.0	-2571.0	1036673.0
28	17	52	26	10	59.0	-224909.0	-2601.0	1031194.0
28	17	52	26	10	60.0	-221653.0	-2626.0	1026669.0
28	17	52	26	11	61.0	-218749.0	-2661.0	1025628.0
28	17	52	26	11	62.0	-215881.0	-2668.0	1024843.0
28	17	52	26	12	63.0	-213118.0	-2664.0	1023676.0
28	17	52	26	12	64.0	-210070.0	-2675.0	1023158.0
28	17	52	26	13	65.0	-206597.0	-2696.0	1022894.0
28	17	52	26	13	66.0	-203131.0	-2707.0	1022071.0
28	17	52	26	14	67.0	-199229.0	-2720.0	1020639.0
28	17	52	26	14	68.0	-195056.0	-2741.0	1019682.0
28	17	52	26	15	69.0	-190656.0	-2771.0	1018893.0
28	17	52	26	16	70.0	-186503.0	-2779.0	1018298.0
28	17	52	26	16	71.0	-182607.0	-2764.0	1017804.0
28	17	52	26	17	72.0	-178881.0	-2752.0	1017686.0
28	17	52	26	17	73.0	-176604.0	-2750.0	1016876.0
28	17	52	26	18	74.0	-176085.0	-2736.0	1016236.0
28	17	52	26	18	75.0	-177852.0	-2702.0	1015896.0
28	17	52	26	19	76.0	-181275.0	-2681.0	1015199.0
28	17	52	26	20	77.0	-186326.0	-2664.0	1014288.0
28	17	52	26	20	78.0	-192413.0	-2642.0	1013548.0
28	17	52	26	21	79.0	-198575.0	-2624.0	1012830.0
28	17	52	26	21	80.0	-204654.0	-2594.0	1012643.0
28	17	52	26	22	81.0	-211064.0	-2587.0	1012456.0
28	17	52	26	23	82.0	-216759.0	-2577.0	1013021.0
28	17	52	26	23	83.0	-221826.0	-2549.0	1013714.0
28	17	52	26	24	84.0	-226543.0	-2527.0	1013688.0
28	17	52	26	34	85.0	-230294.0	-2509.0	1014023.0
28	17	52	26	35	86.0	-233683.0	-2467.0	1015096.0
28	17	52	26	36	87.0	-236874.0	-2442.0	1016311.0
28	17	52	26	36	88.0	-238863.0	-2436.0	1019220.0
28	17	52	26	37	89.0	-239341.0	-2412.0	1021093.0
28	17	52	26	38	90.0	-238760.0	-2396.0	1020206.0
28	17	52	26	38	91.0	-237464.0	-2359.0	1019665.0
28	17	52	26	54	92.0	-235322.0	-2336.0	1019422.0
28	17	52	26	55	93.0	-232711.0	-2297.0	1018342.0
28	17	52	26	56	94.0	-229487.0	-2259.0	1018481.0
28	17	52	26	56	95.0	-226004.0	-2199.0	1018213.0
28	17	52	26	57	96.0	-222242.0	-2139.0	1017766.0
28	17	52	26	58	97.0	-218143.0	-2074.0	1016616.0
28	17	52	26	58	98.0	-213692.0	-2017.0	1015156.0
28	17	52	26	59	99.0	-209108.0	-1955.0	1014478.0
28	17	52	26	77	100.0	-204681.0	-1887.0	1013439.0
28	17	52	26	78	101.0	-200720.0	-1811.0	1012621.0
28	17	52	26	79	102.0	-197030.0	-1757.0	1011711.0
28	17	52	26	79	103.0	-193940.0	-1687.0	1010922.0
28	17	52	26	80	104.0	-191314.0	-1631.0	1009361.0
28	17	52	26	81	105.0	-189061.0	-1552.0	1007784.0
28	17	52	26	81	106.0	-187580.0	-1503.0	1007112.0
28	17	52	26	82	107.0	-185517.0	-1436.0	1005527.0
28	17	52	26	82	108.0	-182748.0	-1382.0	1004174.0
28	17	52	26	83	109.0	-179166.0	-1348.0	1003799.0
28	17	52	26	83	110.0	-171756.0	-1294.0	1002252.0
28	17	52	26	84	111.0	-153164.0	-1247.0	1000771.0
28	17	52	26	85	112.0	-123454.0	-1205.0	999619.0
28	17	52	26	85	113.0	-94777.0	-1151.0	997730.0
28	17	52	26	86	114.0	-92725.0	-1089.0	995926.0
28	17	52	26	101	115.0	-114556.0	-1030.0	994254.0
28	17	52	26	101	116.0	-141563.0	-950.0	992708.0
28	17	52	26	102	117.0	-163097.0	-892.0	991766.0
28	17	52	26	102	118.0	-176485.0	-837.0	989877.0
28	17	52	26	103	119.0	-179968.0	-803.0	988839.0
28	17	52	26	104	120.0	-183643.0	-753.0	987619.0
28	17	52	26	104	121.0	-186959.0	-709.0	986119.0
28	17	52	26	123	122.0	-188636.0	-669.0	984724.0
28	17	52	26	124	123.0	-190457.0	-612.0	984723.0
28	17	52	26	125	124.0	-191081.0	-561.0	986163.0
28	17	52	26	125	125.0	-193134.0	-525.0	985758.0
28	17	52	26	126	126.0	-200680.0	-470.0	984458.0
28	17	52	26	126	127.0	-211248.0	-411.0	983984.0
28	17	52	26	127	128.0	-222614.0	-372.0	983378.0
28	17	52	26	128	129.0	-233529.0	-312.0	982748.0
28	17	52	26	128	130.0	-242936.0	-250.0	981754.0
28	17	52	26	129	131.0	-249282.0	-197.0	980491.0
28	17	52	26	129	132.0	-251668.0	-166.0	979299.0
28	17	52	26	130	133.0	-248783.0	-119.0	977757.0
28	17	52	26	130	134.0	-241439.0	-91.0	976811.0
28	17	52	26	131	135.0	-230247.0	-70.0	975602.0
28	17	52	26	131	136.0	-216614.0	-32.0	974762.0
28	17	52	26	154	137.0	-202110.0	21.0	972286.0
28	17	52	26	155	138.0	-187484.0	59.0	969539.0
28	17	52	26	156	139.0	-174849.0	94.0	968582.0
28	17	52	26	156	140.0	-164592.0	134.0	969253.0
28	17	52	26	157	141.0	-157146.0	174.0	968155.0
28	17	52	26	158	142.0	-152790.0	199.0	966318.0
28	17	52	26	158	143.0	-150740.0	225.0	964740.0
28	17	52	26	159	144.0	-151009.0	253.0	963240.0
28	17	52	26	159	145.0	-152972.0	271.0	961213.0
28	17	52	26	160	146.0	-155847.0	281.0	960203.0
28	17	52	26	161	147.0	-159424.0	303.0	959511.0
28	17	52	26	162	148.0	-163222.0	306.0	958049.0
28	17	52	26	162	149.0	-166499.0	318.0	956005.0
28	17	52	26	163	150.0	-169599.0	326.0	955091.0
28	17	52	26	164	151.0	-172445.0	340.0	953194.0
28	17	52	26	164	152.0	-175164.0	367.0	951669.0
28	17	52	26	165	153.0	-178287.0	388.0	950295.0
28	17	52	26	165	154.0	-181388.0	389.0	950441.0
28	17	52	26	166	155.0	-184307.0	399.0	948344.0
28	17	52	26	174	156.0	-187074.0	426.0	946573.0
28	17	52	26	175	157.0	-190330.0	449.0	945202.0
28	17	52	26	198	158.0	-194174.0	444.0	943779.0
28	17	52	26	198	159.0	-199327.0	451.0	943137.0
28	17	52	26	199	160.0	-205368.0	461.0	941291.0
28	17	52	26	199	161.0	-211771.0	471.0	940225.0
28	17	52	26	200	162.0	-218419.0	486.0	939723.0
28	17	52	26	201	163.0	-225224.0	501.0	938708.0
28	17	52	26	201	164.0	-231297.0	514.0	937163.0
28	17	52	26	202	165.0	-236099.0	519.0	934943.0
28	17	52	26	202	166.0	-240158.0	523.0	933520.0
28	17	52	26	203	167.0	-243464.0	529.0	931988.0
28	17	52	26	203	168.0	-246141.0	532.0	931445.0
28	17	52	26	204	169.0	-248754.0	537.0	931190.0
28	17	52	26	205	170.0	-251323.0	518.0	929966.0
28	17	52	26	205	171.0	-253760.0	511.0	929119.0
28	17	52	26	206	172.0	-256167.0	518.0	928599.0
