28	17	50	24	374	56.0	-127556.0	1328.0	-919231.0
28	17	50	24	376	57.0	-127700.0	1299.0	-917165.0
28	17	50	24	378	58.0	-130091.0	1256.0	-916116.0
28	17	50	24	380	59.0	-133417.0	1259.0	-915212.0
28	17	50	24	382	60.0	-136846.0	1229.0	-913556.0
28	17	50	24	384	61.0	-141377.0	1231.0	-912031.0
28	17	50	24	386	62.0	-147366.0	1233.0	-902470.0
28	17	50	24	387	63.0	-154771.0	1209.0	-890500.0
28	17	50	24	389	64.0	-162519.0	1212.0	-886911.0
28	17	50	24	399	65.0	-170313.0	1204.0	-884949.0
28	17	50	24	400	66.0	-177882.0	1209.0	-884072.0
28	17	50	24	400	67.0	-185217.0	1208.0	-882659.0
28	17	50	24	401	68.0	-192651.0	1191.0	-880346.0
28	17	50	24	402	69.0	-200656.0	1186.0	-879012.0
28	17	50	24	402	70.0	-208962.0	1153.0	-877014.0
28	17	50	24	403	71.0	-217408.0	1128.0	-874633.0
28	17	50	24	403	72.0	-225299.0	1123.0	-873312.0
28	17	50	24	404	73.0	-232144.0	1131.0	-871616.0
28	17	50	24	425	74.0	-237618.0	1124.0	-870136.0
28	17	50	24	426	75.0	-241206.0	1122.0	-869508.0
28	17	50	24	426	76.0	-242549.0	1110.0	-868447.0
28	17	50	24	427	77.0	-241620.0	1078.0	-866836.0
28	17	50	24	427	78.0	-238726.0	1064.0	-865552.0
28	17	50	24	460	79.0	-234088.0	1054.0	-864420.0
28	17	50	24	504	80.0	-228229.0	1055.0	-863786.0
28	17	50	24	505	81.0	-221854.0	1029.0	-863094.0
28	17	50	24	506	82.0	-214571.0	1000.0	-861131.0
28	17	50	24	506	83.0	-207532.0	964.0	-859354.0
28	17	50	24	507	84.0	-201212.0	945.0	-856621.0
28	17	50	24	507	85.0	-195121.0	954.0	-853927.0
28	17	50	24	508	86.0	-189869.0	959.0	-851781.0
28	17	50	24	509	87.0	-186263.0	936.0	-850016.0
28	17	50	24	517	88.0	-184513.0	930.0	-849343.0
28	17	50	24	518	89.0	-184174.0	940.0	-848192.0
28	17	50	24	518	90.0	-185026.0	925.0	-847866.0
28	17	50	24	519	91.0	-186699.0	905.0	-846383.0
28	17	50	24	519	92.0	-189031.0	878.0	-844912.0
28	17	50	24	520	93.0	-191709.0	871.0	-843319.0
28	17	50	24	521	104.0	-230387.0	737.0	-828099.0
28	17	50	24	521	127.0	-191044.0	976.0	-791275.0
28	17	50	24	522	128.0	-188637.0	1000.0	-790177.0
28	17	50	24	522	129.0	-186269.0	1060.0	-788973.0
28	17	50	24	523	130.0	-184349.0	1094.0	-787197.0
28	17	50	24	523	131.0	-182477.0	1124.0	-785646.0
28	17	50	24	524	132.0	-180806.0	1140.0	-784360.0
28	17	50	24	525	133.0	-179367.0	1162.0	-782372.0
28	17	50	24	597	134.0	-178278.0	1184.0	-780056.0
28	17	50	24	598	135.0	-177812.0	1201.0	-777187.0
28	17	50	24	598	136.0	-177679.0	1208.0	-774533.0
28	17	50	24	599	137.0	-178001.0	1240.0	-772622.0
28	17	50	24	599	138.0	-178622.0	1261.0	-771825.0
28	17	50	24	600	139.0	-179649.0	1298.0	-770553.0
28	17	50	24	601	140.0	-180444.0	1323.0	-768885.0
28	17	50	24	601	141.0	-181192.0	1351.0	-767981.0
28	17	50	24	602	142.0	-182225.0	1388.0	-767309.0
28	17	50	24	603	143.0	-183725.0	1416.0	-764774.0
28	17	50	24	603	144.0	-185642.0	1418.0	-763192.0
28	17	50	24	604	145.0	-187012.0	1439.0	-761233.0
28	17	50	24	604	146.0	-188240.0	1466.0	-758666.0
28	17	50	24	605	147.0	-189105.0	1512.0	-757345.0
28	17	50	24	605	148.0	-189916.0	1534.0	-756229.0
28	17	50	24	606	149.0	-190628.0	1554.0	-755149.0
28	17	50	24	607	172.0	-184388.0	2127.0	-723287.0
28	17	50	24	607	173.0	-190216.0	2158.0	-721209.0
28	17	50	24	608	174.0	-196676.0	2174.0	-718273.0
28	17	50	24	608	175.0	-200567.0	2203.0	-716496.0
28	17	50	24	609	176.0	-203522.0	2246.0	-716059.0
28	17	50	24	609	177.0	-203617.0	2256.0	-714058.0
28	17	50	24	640	178.0	-201384.0	2274.0	-709552.0
28	17	50	24	641	179.0	-198281.0	2291.0	-707673.0
28	17	50	24	642	180.0	-194157.0	2299.0	-706842.0
28	17	50	24	642	181.0	-191891.0	2317.0	-702486.0
28	17	50	24	643	182.0	-190299.0	2324.0	-697671.0
28	17	50	24	644	183.0	-190477.0	2338.0	-696342.0
28	17	50	24	644	184.0	-193285.0	2347.0	-694351.0
28	17	50	24	645	185.0	-196836.0	2379.0	-692486.0
28	17	50	24	645	186.0	-200502.0	2402.0	-691354.0
28	17	50	24	646	187.0	-203679.0	2442.0	-689924.0
28	17	50	24	647	188.0	-205284.0	2458.0	-687524.0
28	17	50	24	663	189.0	-205537.0	2484.0	-686520.0
28	17	50	24	664	190.0	-204126.0	2514.0	-685607.0
28	17	50	24	665	191.0	-201451.0	2534.0	-685722.0
28	17	50	24	665	192.0	-198001.0	2550.0	-686176.0
28	17	50	24	666	194.0	-190502.0	2596.0	-683964.0
28	17	50	24	667	195.0	-187140.0	2611.0	-682092.0
28	17	50	24	667	196.0	-183624.0	2640.0	-680997.0
28	17	50	24	668	197.0	-180404.0	2676.0	-681469.0
28	17	50	24	668	198.0	-177491.0	2732.0	-680619.0
28	17	50	24	669	199.0	-175393.0	2750.0	-679765.0
28	17	50	24	669	200.0	-174187.0	2764.0	-679489.0
28	17	50	24	687	201.0	-173964.0	2788.0	-678825.0
28	17	50	24	688	202.0	-174751.0	2811.0	-678538.0
28	17	50	24	689	203.0	-175888.0	2810.0	-676678.0
28	17	50	24	689	204.0	-177511.0	2828.0	-676349.0
28	17	50	24	690	205.0	-179625.0	2838.0	-675354.0
28	17	50	24	690	206.0	-182098.0	2838.0	-674204.0
28	17	50	24	691	207.0	-184626.0	2841.0	-673600.0
28	17	50	24	692	208.0	-187767.0	2841.0	-673737.0
28	17	50	24	692	209.0	-191759.0	2826.0	-674696.0
28	17	50	24	693	210.0	-195982.0	2807.0	-673952.0
28	17	50	24	694	211.0	-200902.0	2796.0	-671481.0
28	17	50	24	694	212.0	-205650.0	2789.0	-669656.0
28	17	50	24	695	213.0	-209840.0	2778.0	-668472.0
28	17	50	24	696	214.0	-213752.0	2773.0	-667499.0
28	17	50	24	696	215.0	-217396.0	2784.0	-665973.0
28	17	50	24	697	217.0	-223348.0	2786.0	-665237.0
28	17	50	24	697	218.0	-225244.0	2776.0	-664517.0
28	17	50	24	698	219.0	-226647.0	2765.0	-663794.0
28	17	50	24	699	220.0	-227181.0	2752.0	-663539.0
28	17	50	24	699	221.0	-226907.0	2735.0	-662061.0
28	17	50	24	700	222.0	-226014.0	2712.0	-660751.0
28	17	50	24	730	223.0	-223943.0	2693.0	-660691.0
28	17	50	24	731	224.0	-221525.0	2674.0	-659628.0
28	17	50	24	732	225.0	-218224.0	2634.0	-658402.0
28	17	50	24	732	226.0	-214763.0	2614.0	-657741.0
28	17	50	24	733	227.0	-211182.0	2594.0	-656932.0
28	17	50	24	734	228.0	-208004.0	2566.0	-655918.0
28	17	50	24	734	229.0	-205540.0	2554.0	-655092.0
28	17	50	24	735	230.0	-203264.0	2541.0	-653837.0
28	17	50	24	735	231.0	-201701.0	2517.0	-652757.0
28	17	50	24	736	232.0	-200322.0	2483.0	-651966.0
28	17	50	24	737	233.0	-198632.0	2449.0	-651779.0
28	17	50	24	737	234.0	-197364.0	2408.0	-650661.0
28	17	50	24	738	235.0	-196409.0	2394.0	-648962.0
28	17	50	24	738	236.0	-195715.0	2364.0	-647409.0
28	17	50	24	739	237.0	-195165.0	2326.0	-646447.0
28	17	50	24	740	239.0	-195540.0	2243.0	-644233.0
28	17	50	24	740	240.0	-196539.0	2206.0	-644383.0
28	17	50	24	741	241.0	-198050.0	2194.0	-643707.0
28	17	50	24	741	242.0	-199949.0	2161.0	-643781.0
28	17	50	24	742	243.0	-202107.0	2145.0	-642676.0
28	17	50	24	743	244.0	-204536.0	2124.0	-640548.0
28	17	50	24	776	245.0	-207556.0	2090.0	-638853.0
28	17	50	24	776	246.0	-211123.0	2072.0	-637393.0
28	17	50	24	777	247.0	-214421.0	2057.0	-636762.0
28	17	50	24	778	248.0	-217896.0	2025.0	-636529.0
28	17	50	24	778	249.0	-221449.0	1982.0	-635965.0
28	17	50	24	779	250.0	-224654.0	1947.0	-634502.0
28	17	50	24	780	251.0	-227516.0	1907.0	-633767.0
28	17	50	24	780	252.0	-229867.0	1868.0	-633636.0
28	17	50	24	781	253.0	-231401.0	1829.0	-632147.0
28	17	50	24	781	254.0	-232264.0	1791.0	-630483.0
28	17	50	24	782	255.0	-232239.0	1743.0	-628594.0
28	17	50	24	783	0.0	-231395.0	1686.0	-627059.0
28	17	50	24	783	1.0	-230229.0	1617.0	-626265.0
28	17	50	24	784	2.0	-228154.0	1606.0	-625359.0
28	17	50	24	785	3.0	-225708.0	1565.0	-625054.0
28	17	50	24	785	6.0	-216293.0	1441.0	-622169.0
28	17	50	24	786	7.0	-213323.0	1402.0	-621617.0
28	17	50	24	786	8.0	-210789.0	1388.0	-620207.0
28	17	50	24	787	9.0	-208522.0	1377.0	-618613.0
28	17	50	24	787	10.0	-206409.0	1373.0	-616699.0
28	17	50	24	788	11.0	-204655.0	1376.0	-614964.0
28	17	50	24	821	12.0	-204154.0	1386.0	-613824.0
28	17	50	24	821	13.0	-204553.0	1382.0	-612652.0
28	17	50	24	822	14.0	-205050.0	1375.0	-611519.0
28	17	50	24	823	15.0	-205661.0	1374.0	-610634.0
28	17	50	24	823	16.0	-206386.0	1358.0	-610161.0
28	17	50	24	824	17.0	-207681.0	1361.0	-608698.0
28	17	50	24	825	18.0	-208614.0	1358.0	-607637.0
28	17	50	24	825	19.0	-208780.0	1347.0	-606399.0
28	17	50	24	826	20.0	-208479.0	1343.0	-606172.0
28	17	50	24	826	21.0	-208232.0	1340.0	-605233.0
28	17	50	24	827	22.0	-208121.0	1332.0	-604164.0
28	17	50	24	828	23.0	-208116.0	1317.0	-603931.0
28	17	50	24	828	24.0	-208409.0	1288.0	-603471.0
28	17	50	24	829	25.0	-209197.0	1264.0	-602749.0
28	17	50	24	829	26.0	-210641.0	1243.0	-601852.0
28	17	50	24	830	28.0	-212657.0	1253.0	-599102.0
28	17	50	24	831	29.0	-212922.0	1228.0	-598101.0
28	17	50	24	831	30.0	-212854.0	1231.0	-597749.0
28	17	50	24	832	31.0	-213572.0	1241.0	-597826.0
28	17	50	24	832	32.0	-215069.0	1227.0	-597091.0
28	17	50	24	833	33.0	-217181.0	1261.0	-596219.0
28	17	50	24	911	34.0	-219106.0	1279.0	-594469.0
28	17	50	24	911	35.0	-221629.0	1314.0	-592534.0
28	17	50	24	912	36.0	-223897.0	1341.0	-591216.0
28	17	50	24	913	37.0	-225619.0	1358.0	-590482.0
28	17	50	24	913	38.0	-227636.0	1390.0	-588543.0
28	17	50	24	914	39.0	-229288.0	1420.0	-586218.0
28	17	50	24	915	40.0	-230471.0	1430.0	-584404.0
28	17	50	24	915	41.0	-230522.0	1423.0	-583309.0
28	17	50	24	916	42.0	-229790.0	1418.0	-582616.0
28	17	50	24	916	43.0	-229387.0	1414.0	-582532.0
28	17	50	24	917	44.0	-228544.0	1439.0	-582224.0
28	17	50	24	918	45.0	-227815.0	1454.0	-581985.0
28	17	50	24	918	46.0	-226387.0	1444.0	-580675.0
28	17	50	24	919	47.0	-224697.0	1449.0	-579291.0
28	17	50	24	919	48.0	-223477.0	1443.0	-577920.0
28	17	50	24	920	73.0	-183418.0	790.0	-551281.0
28	17	50	24	921	74.0	-181214.0	769.0	-550826.0
28	17	50	24	921	75.0	-178508.0	749.0	-549994.0
28	17	50	24	922	76.0	-176269.0	731.0	-548551.0
28	17	50	24	922	77.0	-173364.0	707.0	-547289.0
28	17	50	24	923	78.0	-170927.0	676.0	-547126.0
28	17	50	24	956	79.0	-169432.0	669.0	-546571.0
28	17	50	24	957	80.0	-168374.0	647.0	-544367.0
28	17	50	24	958	81.0	-168434.0	630.0	-541977.0
28	17	50	24	959	82.0	-168955.0	601.0	-539661.0
28	17	50	24	959	83.0	-170536.0	592.0	-539135.0
28	17	50	24	960	84.0	-173388.0	584.0	-539674.0
28	17	50	24	960	85.0	-176357.0	564.0	-537720.0
28	17	50	24	961	86.0	-179722.0	544.0	-537105.0
28	17	50	24	962	87.0	-183751.0	543.0	-537077.0
28	17	50	24	962	88.0	-187594.0	546.0	-538724.0
28	17	50	24	963	89.0	-191455.0	523.0	-542431.0
28	17	50	25	1	90.0	-195041.0	522.0	-548695.0
28	17	50	25	1	91.0	-197263.0	509.0	-557039.0
28	17	50	25	2	92.0	-197965.0	504.0	-563471.0
28	17	50	25	3	93.0	-197360.0	489.0	-569265.0
28	17	50	25	3	95.0	-194361.0	471.0	-580617.0
28	17	50	25	4	96.0	-192787.0	448.0	-581346.0
28	17	50	25	5	97.0	-191771.0	434.0	-581915.0
28	17	50	25	5	98.0	-191069.0	444.0	-576974.0
28	17	50	25	6	99.0	-190685.0	416.0	-555806.0
28	17	50	25	6	100.0	-191069.0	374.0	-525932.0
28	17	50	25	7	101.0	-192842.0	354.0	-505822.0
28	17	50	25	7	102.0	-196842.0	361.0	-503232.0
28	17	50	25	8	103.0	-203644.0	334.0	-504409.0
28	17	50	25	9	104.0	-212671.0	326.0	-507686.0
28	17	50	25	9	105.0	-223426.0	312.0	-509101.0
28	17	50	25	10	118.0	-81632.0	147.0	-505227.0
28	17	50	25	11	119.0	-86589.0	144.0	-503509.0
28	17	50	25	11	120.0	-107111.0	145.0	-503186.0
28	17	50	25	12	121.0	-141196.0	161.0	-502463.0
28	17	50	25	13	122.0	-182697.0	154.0	-501536.0
28	17	50	25	13	123.0	-221902.0	156.0	-500727.0
28	17	50	25	45	124.0	-253400.0	141.0	-500452.0
28	17	50	25	46	125.0	-275651.0	149.0	-499461.0
28	17	50	25	47	126.0	-287908.0	166.0	-498593.0
28	17	50	25	48	127.0	-291651.0	126.0	-497941.0
28	17	50	25	48	128.0	-291372.0	95.0	-496960.0
28	17	50	25	49	129.0	-290522.0	78.0	-496544.0
28	17	50	25	50	130.0	-281552.0	60.0	-495849.0
28	17	50	25	50	131.0	-259352.0	44.0	-495394.0
28	17	50	25	51	132.0	-229856.0	28.0	-494322.0
28	17	50	25	51	133.0	-199179.0	13.0	-493559.0
28	17	50	25	52	134.0	-171751.0	14.0	-493682.0
28	17	50	25	53	135.0	-152091.0	-16.0	-492629.0
28	17	50	25	53	136.0	-143571.0	-45.0	-490781.0
28	17	50	25	54	137.0	-146696.0	-59.0	-490236.0
28	17	50	25	55	138.0	-153241.0	-90.0	-489577.0
28	17	50	25	55	140.0	-152004.0	-127.0	-487231.0
28	17	50	25	56	141.0	-145821.0	-129.0	-487762.0
28	17	50	25	57	142.0	-140373.0	-136.0	-486727.0
28	17	50	25	57	143.0	-138689.0	-149.0	-483247.0
28	17	50	25	58	144.0	-143587.0	-145.0	-483378.0
28	17	50	25	58	145.0	-151484.0	-149.0	-483147.0
28	17	50	25	59	146.0	-159632.0	-151.0	-482409.0
28	17	50	25	91	147.0	-165617.0	-164.0	-481192.0
28	17	50	25	92	148.0	-169104.0	-174.0	-479294.0
28	17	50	25	92	149.0	-171931.0	-190.0	-478467.0
28	17	50	25	93	150.0	-176639.0	-196.0	-479454.0
28	17	50	25	94	151.0	-183059.0	-201.0	-479327.0
28	17	50	25	94	152.0	-189669.0	-209.0	-478252.0
28	17	50	25	95	153.0	-196196.0	-209.0	-477356.0
28	17	50	25	96	154.0	-201706.0	-217.0	-476014.0
28	17	50	25	96	155.0	-206895.0	-243.0	-475203.0
28	17	50	25	97	156.0	-212161.0	-247.0	-473532.0
28	17	50	25	98	157.0	-217790.0	-272.0	-472395.0
28	17	50	25	98	158.0	-224111.0	-301.0	-470543.0
28	17	50	25	99	159.0	-229267.0	-313.0	-469502.0
28	17	50	25	100	160.0	-232701.0	-349.0	-468206.0
28	17	50	25	100	161.0	-234434.0	-396.0	-467803.0
28	17	50	25	101	163.0	-229528.0	-427.0	-466535.0
28	17	50	25	102	164.0	-222834.0	-456.0	-465521.0
28	17	50	25	102	165.0	-214759.0	-454.0	-464677.0
28	17	50	25	103	166.0	-205595.0	-460.0	-463759.0
28	17	50	25	104	167.0	-196497.0	-474.0	-461967.0
28	17	50	25	105	168.0	-187845.0	-495.0	-461377.0
28	17	50	25	105	169.0	-179690.0	-510.0	-461304.0
28	17	50	25	137	170.0	-173062.0	-518.0	-460544.0
28	17	50	25	138	171.0	-167140.0	-532.0	-459503.0
28	17	50	25	138	172.0	-162099.0	-549.0	-458866.0
28	17	50	25	139	173.0	-158684.0	-582.0	-457557.0
28	17	50	25	140	174.0	-157944.0	-630.0	-456215.0
28	17	50	25	141	175.0	-160139.0	-662.0	-455874.0
28	17	50	25	141	176.0	-161872.0	-699.0	-454560.0
28	17	50	25	142	177.0	-164888.0	-734.0	-452423.0
28	17	50	25	142	178.0	-169172.0	-756.0	-450238.0
28	17	50	25	143	179.0	-174136.0	-779.0	-449352.0
28	17	50	25	144	180.0	-179182.0	-813.0	-448844.0
28	17	50	25	144	181.0	-184884.0	-834.0	-449367.0
28	17	50	25	145	182.0	-191593.0	-849.0	-449008.0
28	17	50	25	146	183.0	-197619.0	-862.0	-449194.0
28	17	50	25	147	184.0	-203061.0	-876.0	-449185.0
28	17	50	25	147	185.0	-208955.0	-902.0	-447727.0
28	17	50	25	148	186.0	-214229.0	-912.0	-446472.0
28	17	50	25	149	187.0	-218046.0	-915.0	-445360.0
28	17	50	25	149	188.0	-219887.0	-926.0	-444875.0
28	17	50	25	150	189.0	-222098.0	-946.0	-444426.0
28	17	50	25	151	190.0	-223962.0	-971.0	-443464.0
28	17	50	25	151	191.0	-225377.0	-977.0	-443409.0
28	17	50	25	181	192.0	-225754.0	-1002.0	-443391.0
28	17	50	25	181	193.0	-225629.0	-1028.0	-443402.0
28	17	50	25	182	194.0	-224172.0	-1059.0	-443322.0
28	17	50	25	227	195.0	-222782.0	-1065.0	-443806.0
28	17	50	25	228	196.0	-221955.0	-1098.0	-444111.0
28	17	50	25	228	197.0	-220544.0	-1141.0	-443079.0
28	17	50	25	229	198.0	-219931.0	-1131.0	-442109.0
28	17	50	25	229	199.0	-219392.0	-1129.0	-440981.0
28	17	50	25	230	200.0	-218091.0	-1152.0	-439571.0
28	17	50	25	231	201.0	-216572.0	-1137.0	-439519.0
28	17	50	25	231	202.0	-214522.0	-1140.0	-439931.0
28	17	50	25	232	203.0	-212042.0	-1137.0	-439464.0
28	17	50	25	317	204.0	-209692.0	-1134.0	-438421.0
28	17	50	25	317	205.0	-206599.0	-1110.0	-437831.0
28	17	50	25	318	206.0	-201491.0	-1116.0	-437499.0
28	17	50	25	318	208.0	-191927.0	-1079.0	-436017.0
28	17	50	25	319	209.0	-185763.0	-1066.0	-435128.0
28	17	50	25	320	210.0	-180711.0	-1063.0	-434139.0
28	17	50	25	320	211.0	-175314.0	-1066.0	-433009.0
28	17	50	25	321	230.0	-190176.0	-562.0	-412272.0
28	17	50	25	321	231.0	-190976.0	-539.0	-411469.0
28	17	50	25	322	232.0	-192121.0	-486.0	-409654.0
28	17	50	25	322	233.0	-192653.0	-468.0	-408953.0
28	17	50	25	323	234.0	-194707.0	-441.0	-408335.0
28	17	50	25	323	235.0	-196504.0	-400.0	-407273.0
28	17	50	25	324	236.0	-198971.0	-383.0	-406864.0
28	17	50	25	324	237.0	-202029.0	-366.0	-405822.0
28	17	50	25	325	238.0	-203475.0	-346.0	-403719.0
28	17	50	25	326	19.0	-265209.0	883.0	-373922.0
28	17	50	25	326	20.0	-254817.0	882.0	-371842.0
28	17	50	25	327	21.0	-243571.0	894.0	-371494.0
28	17	50	25	327	22.0	-232209.0	911.0	-373133.0
28	17	50	25	328	23.0	-220177.0	927.0	-372633.0
28	17	50	25	328	24.0	-209119.0	963.0	-371146.0
28	17	50	25	329	25.0	-199346.0	982.0	-370196.0
28	17	50	25	361	26.0	-191051.0	1006.0	-369337.0
28	17	50	25	362	27.0	-185147.0	1027.0	-368701.0
28	17	50	25	363	28.0	-181702.0	1041.0	-368522.0
28	17	50	25	363	29.0	-179596.0	1038.0	-368324.0
28	17	50	25	364	30.0	-180595.0	1038.0	-366683.0
28	17	50	25	365	31.0	-182644.0	1052.0	-365847.0
28	17	50	25	365	32.0	-185297.0	1057.0	-365971.0
28	17	50	25	366	33.0	-189799.0	1051.0	-364980.0
28	17	50	25	366	34.0	-196233.0	1050.0	-363997.0
28	17	50	25	367	35.0	-202651.0	1061.0	-362957.0
28	17	50	25	367	36.0	-208526.0	1054.0	-362384.0
28	17	50	25	368	37.0	-215123.0	1043.0	-361742.0
28	17	50	25	369	38.0	-220834.0	1048.0	-360602.0
28	17	50	25	369	39.0	-224201.0	1046.0	-359804.0
28	17	50	25	370	40.0	-226975.0	1055.0	-359271.0
28	17	50	25	370	41.0	-229155.0	1062.0	-360194.0
28	17	50	25	371	42.0	-230952.0	1044.0	-360397.0
28	17	50	25	371	43.0	-232700.0	1029.0	-359539.0
28	17	50	25	372	44.0	-233582.0	1047.0	-358802.0
28	17	50	25	373	45.0	-234734.0	1049.0	-358044.0
28	17	50	25	373	46.0	-235209.0	1048.0	-357232.0
28	17	50	25	374	47.0	-235189.0	1055.0	-356449.0
28	17	50	25	405	48.0	-235422.0	1069.0	-356147.0
28	17	50	25	406	49.0	-235571.0	1075.0	-356174.0
28	17	50	25	406	50.0	-234971.0	1078.0	-355530.0
28	17	50	25	407	51.0	-234320.0	1049.0	-353986.0
28	17	50	25	407	52.0	-232855.0	1041.0	-352409.0
28	17	50	25	408	53.0	-231451.0	1037.0	-351823.0
28	17	50	25	409	54.0	-229322.0	1009.0	-351205.0
28	17	50	25	409	55.0	-226756.0	986.0	-351127.0
28	17	50	25	410	56.0	-225593.0	956.0	-350714.0
28	17	50	25	411	57.0	-223982.0	948.0	-349729.0
28	17	50	25	411	58.0	-221869.0	926.0	-343730.0
28	17	50	25	412	59.0	-219862.0	917.0	-337171.0
28	17	50	25	412	60.0	-217719.0	912.0	-336001.0
28	17	50	25	413	61.0	-215349.0	921.0	-334317.0
28	17	50	25	413	62.0	-212079.0	901.0	-332952.0
28	17	50	25	414	64.0	-204986.0	854.0	-331738.0
28	17	50	25	415	65.0	-199861.0	840.0	-331143.0
28	17	50	25	415	66.0	-194763.0	841.0	-330270.0
28	17	50	25	416	67.0	-190155.0	829.0	-329933.0
28	17	50	25	416	68.0	-186216.0	808.0	-328915.0
28	17	50	25	417	69.0	-182891.0	801.0	-328592.0
28	17	50	25	450	70.0	-179436.0	801.0	-327773.0
28	17	50	25	451	71.0	-175915.0	804.0	-327141.0
28	17	50	25	452	72.0	-173174.0	803.0	-326168.0
28	17	50	25	452	73.0	-171518.0	796.0	-321664.0
28	17	50	25	453	74.0	-170365.0	783.0	-320608.0
28	17	50	25	453	75.0	-169994.0	768.0	-318826.0
28	17	50	25	454	76.0	-170436.0	764.0	-316962.0
28	17	50	25	454	77.0	-171620.0	769.0	-316974.0
28	17	50	25	455	78.0	-173294.0	758.0	-316398.0
28	17	50	25	456	79.0	-175444.0	746.0	-315564.0
28	17	50	25	456	80.0	-177756.0	730.0	-314762.0
28	17	50	25	457	81.0	-179931.0	744.0	-313091.0
28	17	50	25	457	82.0	-182526.0	733.0	-311856.0
28	17	50	25	458	83.0	-184187.0	714.0	-311055.0
28	17	50	25	459	84.0	-186174.0	705.0	-310541.0
28	17	50	25	459	86.0	-192236.0	643.0	-309034.0
28	17	50	25	460	87.0	-194504.0	619.0	-308914.0
28	17	50	25	460	88.0	-196991.0	641.0	-309134.0
28	17	50	25	461	89.0	-199596.0	634.0	-310616.0
28	17	50	25	462	90.0	-201999.0	639.0	-311079.0
28	17	50	25	462	91.0	-204339.0	662.0	-310972.0
28	17	50	25	463	92.0	-206945.0	659.0	-310496.0
28	17	50	25	542	93.0	-209139.0	640.0	-309011.0
28	17	50	25	543	94.0	-210829.0	645.0	-307894.0
28	17	50	25	543	95.0	-212784.0	631.0	-307922.0
28	17	50	25	544	96.0	-214757.0	637.0	-308018.0
28	17	50	25	545	97.0	-216524.0	639.0	-307091.0
28	17	50	25	545	98.0	-217946.0	626.0	-305889.0
28	17	50	25	546	99.0	-218082.0	629.0	-304691.0
28	17	50	25	546	100.0	-218438.0	614.0	-305016.0
28	17	50	25	547	101.0	-217869.0	613.0	-304228.0
28	17	50	25	548	102.0	-217123.0	604.0	-302749.0
28	17	50	25	548	103.0	-217151.0	601.0	-300801.0
28	17	50	25	549	104.0	-215989.0	598.0	-300076.0
28	17	50	25	549	105.0	-214611.0	595.0	-299574.0
28	17	50	25	586	106.0	-213881.0	589.0	-298411.0
28	17	50	25	587	107.0	-212147.0	596.0	-298206.0
28	17	50	25	588	109.0	-209213.0	583.0	-297082.0
28	17	50	25	589	132.0	-246379.0	683.0	-280249.0
28	17	50	25	590	133.0	-248294.0	701.0	-280732.0
28	17	50	25	590	134.0	-249639.0	726.0	-279142.0
28	17	50	25	591	135.0	-250296.0	736.0	-278286.0
28	17	50	25	591	136.0	-250452.0	736.0	-277151.0
28	17	50	25	592	137.0	-250204.0	742.0	-274858.0
28	17	50	25	593	138.0	-248673.0	754.0	-274644.0
28	17	50	25	593	139.0	-245332.0	747.0	-276056.0
28	17	50	25	594	140.0	-241686.0	750.0	-276871.0
28	17	50	25	594	141.0	-237555.0	748.0	-276334.0
28	17	50	25	595	142.0	-232352.0	731.0	-275367.0
28	17	50	25	596	143.0	-226771.0	714.0	-273849.0
28	17	50	25	596	144.0	-219979.0	712.0	-272990.0
28	17	50	25	597	154.0	-181595.0	489.0	-266361.0
28	17	50	25	597	155.0	-180319.0	463.0	-264771.0
28	17	50	25	598	156.0	-179140.0	492.0	-264769.0
28	17	50	25	599	157.0	-177727.0	482.0	-264678.0
28	17	50	25	599	158.0	-176161.0	447.0	-264127.0
28	17	50	25	600	159.0	-173939.0	425.0	-263479.0
28	17	50	25	678	160.0	-171864.0	419.0	-262755.0
28	17	50	25	679	161.0	-169871.0	399.0	-261697.0
28	17	50	25	680	162.0	-168303.0	400.0	-260960.0
28	17	50	25	681	163.0	-167123.0	383.0	-259333.0
28	17	50	25	683	164.0	-165793.0	356.0	-258482.0
28	17	50	25	684	165.0	-165791.0	358.0	-258804.0
28	17	50	25	685	166.0	-166838.0	348.0	-257909.0
28	17	50	25	685	167.0	-168571.0	319.0	-257473.0
28	17	50	25	686	168.0	-171079.0	311.0	-257337.0
28	17	50	25	687	169.0	-174291.0	306.0	-256241.0
28	17	50	25	687	170.0	-178271.0	274.0	-256011.0
28	17	50	25	688	171.0	-182934.0	262.0	-258109.0
28	17	50	25	688	172.0	-187192.0	242.0	-261407.0
28	17	50	25	689	173.0	-191732.0	224.0	-265465.0
28	17	50	25	690	174.0	-195404.0	191.0	-269380.0
28	17	50	25	690	199.0	-197079.0	-422.0	-235604.0
28	17	50	25	691	200.0	-176496.0	-434.0	-234405.0
28	17	50	25	691	201.0	-148342.0	-422.0	-233159.0
28	17	50	25	692	202.0	-120554.0	-431.0	-232666.0
28	17	50	25	692	203.0	-99258.0	-433.0	-231911.0
28	17	50	25	693	204.0	-90954.0	-417.0	-230098.0
28	17	50	25	721	205.0	-97197.0	-424.0	-229626.0
28	17	50	25	722	206.0	-116333.0	-417.0	-229987.0
28	17	50	25	722	207.0	-143749.0	-437.0	-230202.0
28	17	50	25	723	208.0	-177996.0	-469.0	-229334.0
28	17	50	25	724	209.0	-212631.0	-486.0	-228365.0
28	17	50	25	724	210.0	-240711.0	-503.0	-227582.0
28	17	50	25	725	211.0	-257669.0	-515.0	-226744.0
28	17	50	25	726	212.0	-266939.0	-515.0	-226349.0
28	17	50	25	726	213.0	-270169.0	-541.0	-226681.0
28	17	50	25	727	214.0	-262917.0	-537.0	-226822.0
28	17	50	25	728	215.0	-247735.0	-546.0	-226131.0
28	17	50	25	728	216.0	-232332.0	-546.0	-225077.0
28	17	50	25	729	217.0	-222047.0	-552.0	-224027.0
28	17	50	25	730	218.0	-215700.0	-554.0	-223638.0
28	17	50	25	730	219.0	-212318.0	-549.0	-223400.0
28	17	50	25	731	221.0	-211847.0	-566.0	-225530.0
28	17	50	25	731	222.0	-210871.0	-571.0	-226382.0
28	17	50	25	732	223.0	-207902.0	-561.0	-236259.0
28	17	50	25	733	224.0	-201346.0	-586.0	-244885.0
28	17	50	25	733	225.0	-192169.0	-581.0	-246602.0
28	17	50	25	734	226.0	-182467.0	-579.0	-247448.0
28	17	50	25	765	227.0	-173634.0	-575.0	-248346.0
28	17	50	25	765	228.0	-166231.0	-581.0	-249247.0
28	17	50	25	766	229.0	-160724.0	-605.0	-248538.0
28	17	50	25	811	230.0	-157354.0	-636.0	-248328.0
28	17	50	25	812	231.0	-155968.0	-647.0	-248860.0
28	17	50	25	812	232.0	-156907.0	-664.0	-247462.0
28	17	50	25	813	233.0	-159896.0	-667.0	-246859.0
28	17	50	25	814	234.0	-165498.0	-664.0	-246708.0
28	17	50	25	814	235.0	-173132.0	-685.0	-245652.0
28	17	50	25	815	236.0	-180642.0	-704.0	-245009.0
28	17	50	25	815	237.0	-187071.0	-729.0	-245182.0
28	17	50	25	816	238.0	-192347.0	-744.0	-245277.0
28	17	50	25	817	239.0	-196547.0	-783.0	-245164.0
28	17	50	25	817	240.0	-200594.0	-816.0	-245780.0
28	17	50	25	818	241.0	-204075.0	-835.0	-245613.0
28	17	50	25	819	243.0	-206946.0	-874.0	-244404.0
28	17	50	25	819	244.0	-205737.0	-887.0	-243691.0
28	17	50	25	820	245.0	-203297.0	-886.0	-242531.0
28	17	50	25	820	246.0	-199839.0	-886.0	-241755.0
28	17	50	25	821	10.0	-170738.0	-1132.0	-206742.0
28	17	50	25	822	11.0	-177621.0	-1111.0	-207531.0
28	17	50	25	822	12.0	-183864.0	-1093.0	-206931.0
28	17	50	25	823	13.0	-189542.0	-1096.0	-206008.0
28	17	50	25	823	14.0	-194828.0	-1096.0	-206127.0
28	17	50	25	824	15.0	-199906.0	-1082.0	-205791.0
28	17	50	25	825	16.0	-204900.0	-1074.0	-204968.0
28	17	50	25	901	17.0	-210199.0	-1062.0	-204364.0
28	17	50	25	902	18.0	-215478.0	-1026.0	-203739.0
28	17	50	25	902	19.0	-220221.0	-1006.0	-203477.0
28	17	50	25	903	20.0	-224382.0	-992.0	-204008.0
28	17	50	25	904	21.0	-227857.0	-991.0	-204350.0
28	17	50	25	904	22.0	-229472.0	-979.0	-204190.0
28	17	50	25	905	23.0	-229279.0	-987.0	-204094.0
28	17	50	25	906	24.0	-228439.0	-1000.0	-203519.0
28	17	50	25	906	25.0	-227272.0	-997.0	-202419.0
28	17	50	25	907	26.0	-225422.0	-1017.0	-202256.0
28	17	50	25	907	27.0	-223504.0	-1037.0	-201844.0
28	17	50	25	909	28.0	-221122.0	-1046.0	-201002.0
28	17	50	25	909	29.0	-217957.0	-1057.0	-200698.0
28	17	50	25	910	30.0	-214034.0	-1070.0	-201282.0
28	17	50	25	911	31.0	-209643.0	-1067.0	-200582.0
28	17	50	25	911	32.0	-205083.0	-1077.0	-199589.0
28	17	50	25	912	55.0	-191856.0	-1082.0	-183574.0
28	17	50	25	912	56.0	-193061.0	-1074.0	-182198.0
28	17	50	25	913	57.0	-194576.0	-1071.0	-181551.0
28	17	50	25	914	58.0	-196132.0	-1037.0	-180962.0
28	17	50	25	914	59.0	-197711.0	-1017.0	-180325.0
28	17	50	25	915	60.0	-199058.0	-999.0	-179881.0
28	17	50	25	915	61.0	-200352.0	-976.0	-179459.0
28	17	50	25	947	62.0	-201769.0	-944.0	-178519.0
28	17	50	25	947	63.0	-203442.0	-885.0	-178591.0
28	17	50	25	948	64.0	-205692.0	-843.0	-178306.0
28	17	50	25	949	65.0	-208762.0	-809.0	-176877.0
28	17	50	25	949	66.0	-212808.0	-777.0	-175320.0
28	17	50	25	950	67.0	-218279.0	-755.0	-174120.0
28	17	50	25	951	68.0	-224092.0	-738.0	-171549.0
28	17	50	25	951	69.0	-230261.0	-729.0	-174796.0
28	17	50	25	952	70.0	-236086.0	-710.0	-177199.0
28	17	50	25	953	71.0	-240430.0	-691.0	-176636.0
28	17	50	25	953	72.0	-243078.0	-659.0	-174602.0
28	17	50	25	954	73.0	-244354.0	-614.0	-173867.0
28	17	50	25	955	74.0	-243022.0	-574.0	-174678.0
28	17	50	25	955	75.0	-237494.0	-559.0	-175160.0
28	17	50	25	956	76.0	-224140.0	-547.0	-173324.0
28	17	50	25	956	77.0	-198952.0	-536.0	-172151.0
28	17	50	25	957	78.0	-170279.0	-505.0	-171533.0
28	17	50	25	958	79.0	-154073.0	-491.0	-170952.0
28	17	50	25	958	80.0	-162821.0	-462.0	-170383.0
28	17	50	25	959	81.0	-178377.0	-435.0	-170064.0
28	17	50	25	959	82.0	-196291.0	-412.0	-169101.0
28	17	50	25	960	83.0	-212450.0	-382.0	-168257.0
28	17	50	25	992	84.0	-222814.0	-376.0	-168118.0
28	17	50	25	993	85.0	-233954.0	-324.0	-167380.0
28	17	50	25	993	86.0	-247273.0	-279.0	-166752.0
28	17	50	25	994	87.0	-254387.0	-290.0	-166146.0
28	17	50	25	995	88.0	-257951.0	-306.0	-166102.0
28	17	50	25	995	89.0	-257008.0	-296.0	-166283.0
28	17	50	25	996	90.0	-253113.0	-310.0	-165652.0
28	17	50	25	997	91.0	-249803.0	-296.0	-165379.0
28	17	50	25	997	92.0	-247197.0	-283.0	-163607.0
28	17	50	25	998	93.0	-244559.0	-289.0	-161717.0
28	17	50	25	998	94.0	-242691.0	-286.0	-160907.0
28	17	50	25	999	95.0	-241692.0	-254.0	-161667.0
28	17	50	26	0	96.0	-240459.0	-238.0	-162033.0
28	17	50	26	0	97.0	-237705.0	-228.0	-160961.0
28	17	50	26	1	98.0	-233459.0	-223.0	-159687.0
28	17	50	26	2	100.0	-213677.0	-239.0	-158447.0
28	17	50	26	2	101.0	-198322.0	-221.0	-158262.0
28	17	50	26	3	102.0	-184047.0	-224.0	-158547.0
28	17	50	26	3	103.0	-171374.0	-204.0	-157178.0
28	17	50	26	4	104.0	-164247.0	-184.0	-156486.0
28	17	50	26	5	105.0	-162046.0	-158.0	-155319.0
28	17	50	26	36	106.0	-164544.0	-142.0	-153792.0
28	17	50	26	37	107.0	-171599.0	-132.0	-153492.0
28	17	50	26	38	108.0	-181519.0	-106.0	-153217.0
28	17	50	26	38	109.0	-191208.0	-86.0	-152744.0
28	17	50	26	81	110.0	-199605.0	-67.0	-152197.0
28	17	50	26	82	111.0	-205804.0	-60.0	-152328.0
28	17	50	26	83	112.0	-209675.0	-42.0	-152887.0
28	17	50	26	84	113.0	-211459.0	-21.0	-152335.0
28	17	50	26	84	114.0	-211659.0	11.0	-151136.0
28	17	50	26	85	115.0	-210876.0	3.0	-149986.0
28	17	50	26	86	116.0	-209186.0	5.0	-149656.0
28	17	50	26	86	117.0	-207379.0	19.0	-149482.0
28	17	50	26	87	118.0	-205096.0	53.0	-149078.0
28	17	50	26	88	119.0	-202358.0	61.0	-148792.0
28	17	50	26	88	120.0	-199603.0	69.0	-148585.0
28	17	50	26	89	122.0	-195808.0	82.0	-147092.0
28	17	50	26	90	123.0	-195672.0	76.0	-146566.0
28	17	50	26	90	124.0	-196746.0	98.0	-145469.0
28	17	50	26	91	125.0	-198575.0	131.0	-145326.0
28	17	50	26	92	126.0	-201484.0	126.0	-145136.0
28	17	50	26	92	145.0	-203937.0	-34.0	-136726.0
28	17	50	26	93	146.0	-200384.0	-41.0	-136272.0
28	17	50	26	93	147.0	-197235.0	-72.0	-135894.0
28	17	50	26	94	148.0	-194111.0	-95.0	-136002.0
28	17	50	26	94	149.0	-191422.0	-112.0	-136274.0
28	17	50	26	95	150.0	-189898.0	-126.0	-136290.0
28	17	50	26	126	151.0	-189181.0	-145.0	-135859.0
28	17	50	26	127	152.0	-189079.0	-161.0	-135703.0
28	17	50	26	128	153.0	-189894.0	-211.0	-135755.0
28	17	50	26	129	154.0	-190750.0	-230.0	-135369.0
28	17	50	26	129	155.0	-191244.0	-261.0	-134409.0
28	17	50	26	130	156.0	-192116.0	-291.0	-133861.0
28	17	50	26	131	157.0	-192839.0	-305.0	-132991.0
28	17	50	26	131	158.0	-193649.0	-305.0	-132584.0
28	17	50	26	132	159.0	-194763.0	-327.0	-132644.0
28	17	50	26	133	160.0	-196066.0	-347.0	-132194.0
28	17	50	26	133	161.0	-197376.0	-377.0	-132119.0
28	17	50	26	134	162.0	-198826.0	-372.0	-132313.0
28	17	50	26	135	163.0	-200492.0	-385.0	-131079.0
28	17	50	26	135	164.0	-201992.0	-387.0	-130639.0
28	17	50	26	136	165.0	-203129.0	-398.0	-129087.0
28	17	50	26	136	167.0	-203420.0	-422.0	-127726.0
28	17	50	26	137	168.0	-202936.0	-409.0	-126477.0
28	17	50	26	138	169.0	-202529.0	-406.0	-125419.0
28	17	50	26	138	170.0	-201826.0	-379.0	-124949.0
28	17	50	26	139	171.0	-200936.0	-370.0	-125374.0
28	17	50	26	139	172.0	-199777.0	-341.0	-125001.0
28	17	50	26	140	173.0	-198620.0	-311.0	-124036.0
28	17	50	26	262	174.0	-197319.0	-279.0	-123486.0
28	17	50	26	263	175.0	-195883.0	-267.0	-123158.0
28	17	50	26	264	176.0	-194579.0	-247.0	-122111.0
28	17	50	26	265	177.0	-193439.0	-271.0	-120573.0
28	17	50	26	265	178.0	-193366.0	-277.0	-119494.0
28	17	50	26	266	179.0	-193891.0	-251.0	-118229.0
28	17	50	26	266	180.0	-194882.0	-281.0	-117997.0
28	17	50	26	267	181.0	-196148.0	-299.0	-116753.0
28	17	50	26	268	182.0	-197553.0	-301.0	-116019.0
28	17	50	26	268	183.0	-199279.0	-327.0	-116649.0
28	17	50	26	269	184.0	-201094.0	-356.0	-117035.0
28	17	50	26	270	185.0	-202738.0	-350.0	-116285.0
28	17	50	26	270	186.0	-203828.0	-349.0	-115804.0
28	17	50	26	271	187.0	-204486.0	-366.0	-115654.0
28	17	50	26	272	188.0	-204299.0	-397.0	-116927.0
28	17	50	26	272	212.0	-217131.0	-710.0	-98723.0
28	17	50	26	273	235.0	-187576.0	-1239.0	-95989.0
28	17	50	26	274	236.0	-184572.0	-1265.0	-95836.0
28	17	50	26	274	237.0	-182227.0	-1279.0	-94799.0
28	17	50	26	275	238.0	-180273.0	-1317.0	-92819.0
28	17	50	26	275	239.0	-178367.0	-1323.0	-92567.0
28	17	50	26	276	240.0	-177016.0	-1338.0	-91615.0
28	17	50	26	307	241.0	-175830.0	-1353.0	-90353.0
28	17	50	26	307	242.0	-174812.0	-1377.0	-90444.0
28	17	50	26	308	243.0	-174100.0	-1408.0	-90379.0
28	17	50	26	309	244.0	-173381.0	-1455.0	-90130.0
28	17	50	26	309	245.0	-172849.0	-1468.0	-89645.0
28	17	50	26	310	246.0	-172350.0	-1468.0	-90512.0
28	17	50	26	311	247.0	-171844.0	-1496.0	-91459.0
28	17	50	26	311	248.0	-171891.0	-1527.0	-93819.0
28	17	50	26	312	249.0	-172181.0	-1551.0	-98531.0
28	17	50	26	313	250.0	-172725.0	-1574.0	-102794.0
28	17	50	26	313	251.0	-173210.0	-1607.0	-109870.0
28	17	50	26	314	252.0	-173191.0	-1617.0	-119730.0
28	17	50	26	315	253.0	-172950.0	-1636.0	-126508.0
28	17	50	26	315	254.0	-172614.0	-1665.0	-128140.0
28	17	50	26	316	255.0	-172036.0	-1705.0	-128027.0
28	17	50	26	317	1.0	-171699.0	-1706.0	-123391.0
28	17	50	26	318	2.0	-172053.0	-1730.0	-121686.0
28	17	50	26	319	3.0	-172827.0	-1741.0	-107419.0
28	17	50	26	320	4.0	-173921.0	-1754.0	-84331.0
28	17	50	26	320	5.0	-175199.0	-1764.0	-66240.0
28	17	50	26	321	6.0	-177008.0	-1772.0	-62817.0
28	17	50	26	352	7.0	-179972.0	-1778.0	-64322.0
28	17	50	26	352	8.0	-184571.0	-1809.0	-66609.0
28	17	50	26	353	9.0	-190867.0	-1836.0	-68504.0
28	17	50	26	354	10.0	-198706.0	-1874.0	-70098.0
28	17	50	26	355	11.0	-206886.0	-1915.0	-71376.0
28	17	50	26	355	12.0	-214366.0	-1934.0	-72848.0
28	17	50	26	356	13.0	-220134.0	-1956.0	-74939.0
28	17	50	26	357	14.0	-223257.0	-1973.0	-77689.0
28	17	50	26	357	15.0	-225151.0	-1991.0	-77602.0
28	17	50	26	358	16.0	-226729.0	-1997.0	-77319.0
28	17	50	26	359	17.0	-226646.0	-1999.0	-77311.0
28	17	50	26	359	18.0	-221014.0	-2012.0	-76372.0
28	17	50	26	360	19.0	-208128.0	-2021.0	-75782.0
28	17	50	26	361	20.0	-185727.0	-2037.0	-75221.0
28	17	50	26	361	21.0	-156021.0	-2048.0	-74539.0
28	17	50	26	362	23.0	-103157.0	-2071.0	-72889.0
28	17	50	26	363	24.0	-94410.0	-2053.0	-71877.0
28	17	50	26	363	25.0	-101201.0	-2057.0	-70975.0
28	17	50	26	364	26.0	-119852.0	-2044.0	-70666.0
28	17	50	26	364	27.0	-146292.0	-2026.0	-70079.0
28	17	50	26	365	28.0	-177044.0	-2030.0	-69707.0
28	17	50	26	366	29.0	-205195.0	-2037.0	-69824.0
28	17	50	26	395	30.0	-228936.0	-2053.0	-69909.0
28	17	50	26	396	31.0	-249127.0	-2043.0	-69169.0
28	17	50	26	397	32.0	-258046.0	-2069.0	-68775.0
28	17	50	26	398	33.0	-253978.0	-2105.0	-68327.0
28	17	50	26	398	34.0	-243698.0	-2127.0	-68362.0
28	17	50	26	399	35.0	-232897.0	-2151.0	-68767.0
28	17	50	26	400	36.0	-223613.0	-2169.0	-68176.0
28	17	50	26	401	37.0	-215864.0	-2162.0	-67416.0
28	17	50	26	401	38.0	-210971.0	-2161.0	-66874.0
28	17	50	26	402	39.0	-208185.0	-2190.0	-66843.0
28	17	50	26	403	40.0	-205588.0	-2209.0	-66381.0
28	17	50	26	403	41.0	-202326.0	-2214.0	-65596.0
28	17	50	26	404	42.0	-198184.0	-2246.0	-64854.0
28	17	50	26	405	43.0	-192466.0	-2282.0	-64821.0
28	17	50	26	406	44.0	-185198.0	-2306.0	-65060.0
28	17	50	26	407	46.0	-170799.0	-2324.0	-66462.0
28	17	50	26	408	47.0	-165556.0	-2352.0	-65144.0
28	17	50	26	408	48.0	-161390.0	-2373.0	-64042.0
28	17	50	26	409	49.0	-158404.0	-2387.0	-62985.0
28	17	50	26	410	50.0	-156561.0	-2402.0	-61658.0
28	17	50	26	410	51.0	-157162.0	-2419.0	-61788.0
28	17	50	26	440	52.0	-161415.0	-2411.0	-62129.0
28	17	50	26	441	53.0	-168451.0	-2411.0	-61967.0
28	17	50	26	442	54.0	-177748.0	-2436.0	-61846.0
28	17	50	26	443	55.0	-188486.0	-2457.0	-61430.0
28	17	50	26	443	56.0	-199080.0	-2464.0	-61474.0
28	17	50	26	444	57.0	-208591.0	-2473.0	-62125.0
28	17	50	26	445	58.0	-217211.0	-2478.0	-62406.0
28	17	50	26	446	59.0	-224527.0	-2472.0	-60493.0
28	17	50	26	446	60.0	-230578.0	-2484.0	-58992.0
28	17	50	26	447	61.0	-234762.0	-2509.0	-58496.0
28	17	50	26	448	62.0	-236552.0	-2527.0	-58098.0
28	17	50	26	448	63.0	-236263.0	-2542.0	-57183.0
28	17	50	26	449	64.0	-234142.0	-2566.0	-56751.0
28	17	50	26	450	65.0	-230866.0	-2604.0	-56167.0
28	17	50	26	450	66.0	-226734.0	-2630.0	-55716.0
28	17	50	26	451	68.0	-214042.0	-2686.0	-55004.0
28	17	50	26	452	69.0	-205535.0	-2706.0	-53949.0
28	17	50	26	452	70.0	-196023.0	-2732.0	-53176.0
28	17	50	26	453	71.0	-186190.0	-2736.0	-52879.0
28	17	50	26	454	72.0	-175989.0	-2756.0	-52026.0
28	17	50	26	454	73.0	-166856.0	-2779.0	-51546.0
28	17	50	26	455	74.0	-159044.0	-2801.0	-51051.0
28	17	50	26	486	75.0	-152435.0	-2836.0	-50460.0
28	17	50	26	487	76.0	-147487.0	-2854.0	-49867.0
28	17	50	26	488	77.0	-144544.0	-2894.0	-48776.0
28	17	50	26	488	78.0	-144125.0	-2932.0	-47877.0
28	17	50	26	489	79.0	-145604.0	-2939.0	-47211.0
28	17	50	26	490	80.0	-148549.0	-2956.0	-46269.0
28	17	50	26	491	81.0	-152946.0	-2957.0	-44497.0
28	17	50	26	491	82.0	-158827.0	-2945.0	-42724.0
28	17	50	26	492	83.0	-165172.0	-2951.0	-41713.0
28	17	50	26	493	84.0	-172236.0	-2966.0	-41504.0
28	17	50	26	493	85.0	-179797.0	-2982.0	-40851.0
28	17	50	26	494	86.0	-187725.0	-2984.0	-40646.0
28	17	50	26	495	87.0	-195829.0	-2976.0	-38919.0
28	17	50	26	495	88.0	-202936.0	-2983.0	-38512.0
28	17	50	26	496	89.0	-209064.0	-2982.0	-37463.0
28	17	50	26	497	91.0	-219157.0	-2972.0	-36746.0
28	17	50	26	497	92.0	-223101.0	-2965.0	-36034.0
28	17	50	26	498	93.0	-225842.0	-2967.0	-34821.0
28	17	50	26	498	94.0	-227256.0	-2949.0	-32522.0
28	17	50	26	499	95.0	-227742.0	-2919.0	-31892.0
28	17	50	26	500	96.0	-227496.0	-2926.0	-30940.0
28	17	50	26	577	97.0	-226079.0	-2925.0	-29816.0
28	17	50	26	579	98.0	-224515.0	-2929.0	-29539.0
28	17	50	26	581	99.0	-222619.0	-2943.0	-30073.0
28	17	50	26	581	100.0	-220655.0	-2952.0	-29516.0
28	17	50	26	582	101.0	-218712.0	-2969.0	-28885.0
28	17	50	26	583	102.0	-217085.0	-2997.0	-29571.0
28	17	50	26	584	103.0	-215787.0	-3001.0	-29717.0
28	17	50	26	584	104.0	-214253.0	-3018.0	-29914.0
28	17	50	26	585	105.0	-212670.0	-3031.0	-30689.0
28	17	50	26	586	106.0	-211050.0	-3016.0	-30546.0
28	17	50	26	586	107.0	-208767.0	-3001.0	-29749.0
28	17	50	26	587	108.0	-206166.0	-3022.0	-29376.0
28	17	50	26	588	109.0	-203989.0	-3019.0	-28542.0
28	17	50	26	588	110.0	-201527.0	-3009.0	-27907.0
28	17	50	26	589	111.0	-198851.0	-3021.0	-29690.0
28	17	50	26	589	113.0	-192217.0	-3038.0	-28471.0
28	17	50	26	590	136.0	-192811.0	-2320.0	-8102.0
28	17	50	26	591	137.0	-195577.0	-2255.0	-6876.0
28	17	50	26	591	138.0	-197883.0	-2173.0	-6289.0
28	17	50	26	592	139.0	-200241.0	-2102.0	-5626.0
28	17	50	26	592	140.0	-203103.0	-2030.0	-3419.0
28	17	50	26	593	141.0	-206703.0	-1973.0	-1805.0
28	17	50	26	622	142.0	-211162.0	-1922.0	-1759.0
28	17	50	26	622	143.0	-216349.0	-1859.0	-2861.0
28	17	50	26	623	144.0	-221914.0	-1814.0	-2956.0
28	17	50	26	624	145.0	-227024.0	-1780.0	-2430.0
28	17	50	26	625	146.0	-231370.0	-1734.0	-3257.0
28	17	50	26	626	147.0	-234507.0	-1689.0	-1642.0
28	17	50	26	627	148.0	-236257.0	-1639.0	-72.0
28	17	50	26	627	149.0	-236375.0	-1627.0	826.0
28	17	50	26	628	150.0	-234568.0	-1607.0	1217.0
28	17	50	26	629	151.0	-230250.0	-1586.0	1778.0
28	17	50	26	629	152.0	-221171.0	-1568.0	2415.0
28	17	50	26	630	153.0	-202034.0	-1532.0	2783.0
28	17	50	26	630	154.0	-174531.0	-1488.0	3541.0
28	17	50	26	666	155.0	-150399.0	-1466.0	4486.0
28	17	50	26	667	156.0	-148956.0	-1451.0	5384.0
28	17	50	26	668	158.0	-188026.0	-1437.0	5627.0
28	17	50	26	669	159.0	-206116.0	-1404.0	5458.0
28	17	50	26	669	160.0	-218572.0	-1364.0	7051.0
28	17	50	26	670	161.0	-224770.0	-1342.0	8526.0
28	17	50	26	671	162.0	-236191.0	-1318.0	11608.0
28	17	50	26	671	163.0	-246775.0	-1298.0	12879.0
28	17	50	26	672	164.0	-252217.0	-1284.0	12953.0
28	17	50	26	673	165.0	-253746.0	-1265.0	13214.0
28	17	50	26	674	166.0	-251091.0	-1264.0	12695.0
28	17	50	26	674	167.0	-246359.0	-1254.0	12569.0
28	17	50	26	675	168.0	-241149.0	-1253.0	13364.0
28	17	50	26	676	169.0	-235479.0	-1242.0	13087.0
28	17	50	26	676	170.0	-229606.0	-1229.0	12753.0
28	17	50	26	677	171.0	-223361.0	-1206.0	13275.0
28	17	50	26	678	181.0	-144896.0	-1108.0	11931.0
28	17	50	26	678	182.0	-147389.0	-1103.0	12818.0
28	17	50	26	679	183.0	-153807.0	-1087.0	13528.0
28	17	50	26	679	184.0	-162682.0	-1078.0	13838.0
28	17	50	26	680	185.0	-172037.0	-1056.0	13446.0
28	17	50	26	681	186.0	-180220.0	-1062.0	13397.0
28	17	50	26	711	187.0	-186430.0	-1031.0	13919.0
28	17	50	26	712	188.0	-190752.0	-1034.0	14528.0
28	17	50	26	713	189.0	-194179.0	-1026.0	14799.0
28	17	50	26	713	190.0	-196961.0	-1014.0	14778.0
28	17	50	26	714	191.0	-199076.0	-998.0	14742.0
28	17	50	26	715	192.0	-200438.0	-985.0	13836.0
28	17	50	26	716	193.0	-201081.0	-996.0	14168.0
28	17	50	26	716	194.0	-201062.0	-994.0	14785.0
28	17	50	26	717	195.0	-200597.0	-987.0	14619.0
28	17	50	26	718	196.0	-200125.0	-998.0	15265.0
28	17	50	26	719	197.0	-200122.0	-972.0	15663.0
28	17	50	26	720	198.0	-201132.0	-986.0	15844.0
28	17	50	26	720	199.0	-202397.0	-995.0	16782.0
28	17	50	26	721	200.0	-203862.0	-989.0	16935.0
28	17	50	26	722	201.0	-205952.0	-992.0	17712.0
28	17	50	26	722	203.0	-211704.0	-1001.0	20383.0
28	17	50	26	723	204.0	-215279.0	-1009.0	22450.0
28	17	50	26	724	205.0	-218722.0	-1002.0	23383.0
28	17	50	26	725	206.0	-221852.0	-994.0	24914.0
28	17	50	26	726	207.0	-224686.0	-969.0	25551.0
28	17	50	26	727	208.0	-226711.0	-941.0	25838.0
28	17	50	26	756	209.0	-227866.0	-909.0	26846.0
28	17	50	26	757	210.0	-228637.0	-902.0	27892.0
28	17	50	26	758	211.0	-228260.0	-907.0	27962.0
28	17	50	26	758	212.0	-227026.0	-919.0	28063.0
28	17	50	26	759	213.0	-225169.0	-939.0	28456.0
28	17	50	26	760	214.0	-223064.0	-965.0	28873.0
28	17	50	26	760	215.0	-221201.0	-1003.0	29213.0
28	17	50	26	761	216.0	-218759.0	-1022.0	28843.0
28	17	50	26	762	217.0	-216394.0	-1046.0	28987.0
28	17	50	26	762	218.0	-214114.0	-1069.0	29125.0
28	17	50	26	763	219.0	-211254.0	-1112.0	28863.0
28	17	50	26	763	220.0	-208364.0	-1126.0	30217.0
28	17	50	26	764	221.0	-205496.0	-1148.0	31384.0
28	17	50	26	764	222.0	-202968.0	-1179.0	33543.0
28	17	50	26	765	223.0	-201276.0	-1202.0	34183.0
28	17	50	26	766	225.0	-199087.0	-1284.0	32632.0
28	17	50	26	766	226.0	-198921.0	-1342.0	32151.0
28	17	50	26	767	227.0	-199402.0	-1379.0	32768.0
28	17	50	26	767	228.0	-200547.0	-1377.0	33913.0
28	17	50	26	768	229.0	-202111.0	-1390.0	34933.0
28	17	50	26	768	230.0	-203854.0	-1399.0	35373.0
28	17	50	26	769	231.0	-205921.0	-1419.0	35836.0
28	17	50	26	801	232.0	-208070.0	-1452.0	35399.0
28	17	50	26	802	233.0	-210014.0	-1479.0	34953.0
28	17	50	26	802	234.0	-211674.0	-1497.0	34634.0
28	17	50	26	803	235.0	-213392.0	-1559.0	34822.0
28	17	50	26	804	236.0	-214818.0	-1587.0	35019.0
28	17	50	26	804	237.0	-215818.0	-1651.0	35798.0
28	17	50	26	805	238.0	-216719.0	-1697.0	35934.0
28	17	50	26	805	239.0	-217079.0	-1740.0	36316.0
28	17	50	26	806	240.0	-217496.0	-1772.0	37777.0
28	17	50	26	806	241.0	-217931.0	-1820.0	39246.0
28	17	50	26	807	242.0	-217967.0	-1871.0	39954.0
28	17	50	26	808	243.0	-217710.0	-1893.0	40020.0
28	17	50	26	808	244.0	-216783.0	-1914.0	40801.0
28	17	50	26	809	245.0	-215529.0	-1916.0	40859.0
28	17	50	26	809	246.0	-214194.0	-1939.0	41516.0
28	17	50	26	810	248.0	-210229.0	-1967.0	42459.0
28	17	50	26	937	249.0	-209104.0	-1953.0	42913.0
28	17	50	26	938	250.0	-208029.0	-1959.0	43651.0
28	17	50	26	938	251.0	-207262.0	-2001.0	44101.0
28	17	50	26	939	252.0	-206666.0	-2017.0	44518.0
28	17	50	26	939	253.0	-205981.0	-2058.0	44951.0
28	17	50	26	940	254.0	-205911.0	-2083.0	45373.0
28	17	50	26	941	255.0	-206307.0	-2108.0	45129.0
28	17	50	26	941	0.0	-207106.0	-2150.0	46331.0
28	17	50	26	942	1.0	-208407.0	-2172.0	47578.0
28	17	50	26	942	2.0	-209567.0	-2182.0	48074.0
28	17	50	26	943	3.0	-210687.0	-2217.0	48734.0
28	17	50	26	944	4.0	-211742.0	-2259.0	49646.0
28	17	50	26	944	5.0	-211776.0	-2299.0	49782.0
28	17	50	26	945	6.0	-211249.0	-2327.0	50092.0
28	17	50	26	945	7.0	-210512.0	-2351.0	50149.0
28	17	50	26	946	8.0	-209506.0	-2394.0	50176.0
28	17	50	26	946	60.0	-211306.0	-2880.0	66922.0
28	17	50	26	947	61.0	-212102.0	-2875.0	67521.0
28	17	50	26	981	62.0	-212616.0	-2899.0	69004.0
28	17	50	26	982	63.0	-213381.0	-2905.0	68772.0
28	17	50	26	982	64.0	-213848.0	-2921.0	67781.0
28	17	50	26	983	65.0	-213530.0	-2919.0	68231.0
28	17	50	26	984	66.0	-212831.0	-2931.0	68926.0
28	17	50	26	985	67.0	-211922.0	-2926.0	69326.0
28	17	50	26	985	68.0	-211067.0	-2944.0	70076.0
28	17	50	26	986	69.0	-210078.0	-2954.0	70561.0
28	17	50	26	986	70.0	-209152.0	-2971.0	70991.0
28	17	50	26	987	71.0	-208591.0	-2991.0	70627.0
28	17	50	26	987	72.0	-208303.0	-3035.0	71556.0
28	17	50	26	988	73.0	-208329.0	-3067.0	72212.0
28	17	50	26	989	74.0	-208092.0	-3087.0	72254.0
28	17	50	26	989	75.0	-207739.0	-3109.0	72185.0
28	17	50	26	990	76.0	-207677.0	-3141.0	72483.0
28	17	50	26	990	77.0	-206999.0	-3184.0	71412.0
28	17	50	26	991	82.0	-201925.0	-3329.0	73656.0
28	17	50	26	991	83.0	-200423.0	-3339.0	74016.0
28	17	50	26	992	84.0	-198612.0	-3356.0	73069.0
28	17	50	26	993	85.0	-196967.0	-3374.0	72976.0
28	17	50	26	993	86.0	-195522.0	-3407.0	73356.0
28	17	50	26	994	87.0	-194089.0	-3451.0	75022.0
28	17	50	27	25	88.0	-192704.0	-3472.0	76212.0
28	17	50	27	26	89.0	-191666.0	-3481.0	77000.0
28	17	50	27	26	90.0	-191028.0	-3506.0	77424.0
28	17	50	27	27	91.0	-190577.0	-3518.0	77786.0
28	17	50	27	27	92.0	-190227.0	-3520.0	76859.0
28	17	50	27	28	93.0	-189991.0	-3546.0	74780.0
28	17	50	27	29	94.0	-189448.0	-3582.0	71244.0
28	17	50	27	30	95.0	-188607.0	-3613.0	66901.0
28	17	50	27	30	96.0	-187436.0	-3635.0	62412.0
28	17	50	27	31	97.0	-185476.0	-3637.0	55076.0
28	17	50	27	31	98.0	-182971.0	-3642.0	44204.0
28	17	50	27	32	99.0	-179885.0	-3666.0	37520.0
28	17	50	27	33	100.0	-176530.0	-3679.0	33829.0
28	17	50	27	33	101.0	-173253.0	-3681.0	29906.0
28	17	50	27	34	102.0	-169816.0	-3700.0	27894.0
28	17	50	27	35	104.0	-164405.0	-3701.0	31775.0
28	17	50	27	35	105.0	-162881.0	-3722.0	40258.0
28	17	50	27	36	106.0	-162403.0	-3726.0	63014.0
28	17	50	27	37	107.0	-162477.0	-3735.0	87702.0
28	17	50	27	37	108.0	-164092.0	-3731.0	96833.0
28	17	50	27	38	109.0	-167325.0	-3745.0	95282.0
28	17	50	27	38	110.0	-172394.0	-3758.0	93629.0
28	17	50	27	71	111.0	-179305.0	-3760.0	91043.0
28	17	50	27	72	112.0	-187357.0	-3756.0	88293.0
28	17	50	27	72	113.0	-196215.0	-3768.0	86355.0
28	17	50	27	73	114.0	-204597.0	-3784.0	85040.0
28	17	50	27	74	115.0	-212424.0	-3814.0	82792.0
28	17	50	27	74	116.0	-218725.0	-3821.0	81423.0
28	17	50	27	75	117.0	-223344.0	-3848.0	80378.0
28	17	50	27	76	118.0	-223231.0	-3877.0	80268.0
28	17	50	27	76	119.0	-213906.0	-3904.0	80831.0
28	17	50	27	77	120.0	-194352.0	-3917.0	81118.0
28	17	50	27	78	121.0	-161236.0	-3933.0	82229.0
28	17	50	27	78	122.0	-124561.0	-3952.0	82832.0
28	17	50	27	79	123.0	-95784.0	-3960.0	83027.0
28	17	50	27	80	124.0	-82486.0	-3955.0	84798.0
28	17	50	27	80	125.0	-89339.0	-3953.0	87772.0
28	17	50	27	81	127.0	-147539.0	-3979.0	87882.0
28	17	50	27	82	128.0	-188284.0	-3962.0	87148.0
28	17	50	27	82	129.0	-226814.0	-3952.0	87195.0
28	17	50	27	83	130.0	-258974.0	-3930.0	88185.0
28	17	50	27	83	131.0	-283070.0	-3929.0	89093.0
28	17	50	27	84	132.0	-299877.0	-3917.0	90231.0
28	17	50	27	128	133.0	-312502.0	-3923.0	90254.0
28	17	50	27	128	134.0	-311118.0	-3931.0	89680.0
28	17	50	27	129	135.0	-293505.0	-3934.0	89365.0
28	17	50	27	130	136.0	-267554.0	-3949.0	89745.0
28	17	50	27	130	137.0	-237844.0	-3962.0	88952.0
28	17	50	27	131	138.0	-212575.0	-3972.0	88230.0
28	17	50	27	131	139.0	-197081.0	-3972.0	89619.0
28	17	50	27	132	140.0	-191452.0	-3991.0	90127.0
28	17	50	27	133	141.0	-188077.0	-3979.0	90606.0
28	17	50	27	133	142.0	-181791.0	-3972.0	91239.0
28	17	50	27	134	143.0	-173411.0	-3987.0	91019.0
28	17	50	27	135	144.0	-165462.0	-3989.0	90335.0
28	17	50	27	136	145.0	-158324.0	-4002.0	89058.0
28	17	50	27	137	146.0	-152251.0	-4013.0	88992.0
28	17	50	27	137	147.0	-148134.0	-4000.0	89166.0
28	17	50	27	138	149.0	-150202.0	-3977.0	89066.0
28	17	50	27	138	150.0	-154519.0	-3976.0	88660.0
28	17	50	27	139	151.0	-158689.0	-3972.0	89388.0
28	17	50	27	139	152.0	-162881.0	-3962.0	89583.0
28	17	50	27	140	153.0	-168083.0	-3956.0	89834.0
28	17	50	27	141	154.0	-174281.0	-3972.0	89671.0
28	17	50	27	141	155.0	-182098.0	-3962.0	89899.0
28	17	50	27	161	156.0	-190077.0	-3944.0	90846.0
28	17	50	27	162	157.0	-197291.0	-3953.0	90436.0
28	17	50	27	162	158.0	-203965.0	-3969.0	89091.0
28	17	50	27	163	159.0	-210048.0	-3959.0	88780.0
28	17	50	27	164	160.0	-215797.0	-3936.0	88978.0
28	17	50	27	178	161.0	-221471.0	-3936.0	89546.0
28	17	50	27	205	162.0	-227114.0	-3931.0	89805.0
28	17	50	27	206	163.0	-232032.0	-3927.0	89716.0
28	17	50	27	206	164.0	-234617.0	-3917.0	90500.0
28	17	50	27	207	165.0	-235019.0	-3919.0	92044.0
28	17	50	27	207	166.0	-233552.0	-3913.0	92613.0
28	17	50	27	250	167.0	-230189.0	-3894.0	92650.0
28	17	50	27	260	168.0	-225334.0	-3901.0	91707.0
28	17	50	27	261	169.0	-218937.0	-3920.0	91117.0
28	17	50	27	262	170.0	-211018.0	-3936.0	91864.0
28	17	50	27	262	172.0	-190885.0	-3909.0	93457.0
28	17	50	27	263	173.0	-179939.0	-3903.0	92852.0
28	17	50	27	263	174.0	-169451.0	-3895.0	92504.0
28	17	50	27	264	175.0	-159882.0	-3897.0	92414.0
28	17	50	27	264	176.0	-151979.0	-3886.0	92772.0
28	17	50	27	265	177.0	-145986.0	-3853.0	93173.0
28	17	50	27	265	178.0	-141822.0	-3844.0	93189.0
28	17	50	27	266	194.0	-234109.0	-3884.0	92642.0
28	17	50	27	267	195.0	-238214.0	-3861.0	94523.0
28	17	50	27	267	196.0	-241339.0	-3859.0	95814.0
28	17	50	27	296	197.0	-243867.0	-3836.0	96269.0
28	17	50	27	296	198.0	-245336.0	-3823.0	94992.0
28	17	50	27	297	217.0	-202557.0	-3610.0	92649.0
28	17	50	27	298	218.0	-200019.0	-3582.0	93171.0
28	17	50	27	298	219.0	-197484.0	-3559.0	92580.0
28	17	50	27	299	220.0	-194824.0	-3520.0	92036.0
28	17	50	27	300	221.0	-192689.0	-3496.0	92658.0
28	17	50	27	300	222.0	-190694.0	-3456.0	93822.0
28	17	50	27	301	223.0	-188932.0	-3412.0	94628.0
28	17	50	27	302	224.0	-187540.0	-3381.0	95740.0
28	17	50	27	305	225.0	-185897.0	-3321.0	96117.0
28	17	50	27	305	226.0	-183830.0	-3276.0	96078.0
28	17	50	27	306	227.0	-182826.0	-3236.0	96609.0
28	17	50	27	306	228.0	-181695.0	-3219.0	97197.0
28	17	50	27	307	229.0	-180849.0	-3186.0	97703.0
28	17	50	27	308	239.0	-194153.0	-2876.0	102161.0
28	17	50	27	308	240.0	-195734.0	-2826.0	102084.0
28	17	50	27	309	241.0	-197621.0	-2777.0	101899.0
28	17	50	27	309	242.0	-199047.0	-2716.0	102898.0
28	17	50	27	310	243.0	-201149.0	-2662.0	104884.0
28	17	50	27	310	244.0	-204019.0	-2617.0	104897.0
28	17	50	27	339	245.0	-207314.0	-2550.0	105398.0
28	17	50	27	340	246.0	-210944.0	-2508.0	106106.0
28	17	50	27	341	247.0	-214421.0	-2449.0	106772.0
28	17	50	27	341	248.0	-217239.0	-2406.0	106009.0
28	17	50	27	342	249.0	-219432.0	-2351.0	105793.0
28	17	50	27	343	250.0	-220501.0	-2311.0	106487.0
28	17	50	27	343	251.0	-220493.0	-2265.0	105732.0
28	17	50	27	344	252.0	-219169.0	-2229.0	105153.0
28	17	50	27	344	253.0	-216565.0	-2182.0	106201.0
28	17	50	27	345	254.0	-211912.0	-2141.0	105935.0
28	17	50	27	345	255.0	-204508.0	-2109.0	106228.0
28	17	50	27	346	0.0	-191032.0	-2076.0	106476.0
28	17	50	27	347	1.0	-167754.0	-2071.0	107395.0
28	17	50	27	347	2.0	-141101.0	-2030.0	108378.0
28	17	50	27	348	3.0	-128067.0	-1986.0	108729.0
28	17	50	27	349	5.0	-163318.0	-1899.0	110306.0
28	17	50	27	349	6.0	-184822.0	-1883.0	110421.0
28	17	50	27	350	7.0	-197669.0	-1840.0	110854.0
28	17	50	27	350	8.0	-203009.0	-1800.0	110978.0
28	17	50	27	351	9.0	-208989.0	-1736.0	110806.0
28	17	50	27	351	10.0	-219323.0	-1714.0	111113.0
28	17	50	27	352	11.0	-226838.0	-1669.0	111878.0
28	17	50	27	384	12.0	-232336.0	-1617.0	111461.0
28	17	50	27	385	13.0	-234683.0	-1569.0	111057.0
28	17	50	27	386	14.0	-233130.0	-1517.0	110774.0
28	17	50	27	386	15.0	-231062.0	-1473.0	110213.0
28	17	50	27	387	16.0	-228690.0	-1442.0	110522.0
28	17	50	27	388	17.0	-224463.0	-1403.0	111587.0
28	17	50	27	389	18.0	-219026.0	-1361.0	112248.0
28	17	50	27	389	19.0	-212836.0	-1316.0	112701.0
28	17	50	27	390	20.0	-207835.0	-1289.0	112173.0
28	17	50	27	390	21.0	-201906.0	-1271.0	112633.0
28	17	50	27	391	22.0	-196770.0	-1250.0	112379.0
28	17	50	27	392	23.0	-194763.0	-1252.0	112446.0
28	17	50	27	392	24.0	-193444.0	-1244.0	112926.0
28	17	50	27	393	25.0	-192061.0	-1222.0	113016.0
28	17	50	27	393	26.0	-191218.0	-1204.0	113048.0
28	17	50	27	394	28.0	-188977.0	-1148.0	113676.0
28	17	50	27	394	29.0	-185957.0	-1142.0	113794.0
28	17	50	27	395	30.0	-182481.0	-1117.0	114360.0
28	17	50	27	396	31.0	-179429.0	-1089.0	115700.0
28	17	50	27	397	32.0	-177091.0	-1049.0	115753.0
28	17	50	27	397	33.0	-174710.0	-1032.0	115246.0
28	17	50	27	431	34.0	-172895.0	-996.0	115592.0
28	17	50	27	432	35.0	-171115.0	-957.0	115208.0
28	17	50	27	432	36.0	-170024.0	-941.0	115042.0
28	17	50	27	433	37.0	-169274.0	-918.0	115423.0
28	17	50	27	434	38.0	-168901.0	-884.0	115261.0
28	17	50	27	434	39.0	-168998.0	-872.0	115280.0
28	17	50	27	435	40.0	-169934.0	-869.0	115278.0
28	17	50	27	435	41.0	-171043.0	-857.0	115871.0
28	17	50	27	436	42.0	-172584.0	-863.0	116142.0
28	17	50	27	437	43.0	-174469.0	-851.0	116165.0
28	17	50	27	438	44.0	-176717.0	-854.0	117133.0
28	17	50	27	439	45.0	-179312.0	-868.0	117192.0
28	17	50	27	439	46.0	-182445.0	-857.0	116839.0
28	17	50	27	440	47.0	-185637.0	-867.0	116634.0
28	17	50	27	441	48.0	-189631.0	-865.0	117578.0
28	17	50	27	441	50.0	-198544.0	-862.0	117951.0
28	17	50	27	442	51.0	-202508.0	-841.0	117311.0
28	17	50	27	442	52.0	-206350.0	-830.0	117866.0
28	17	50	27	443	53.0	-210124.0	-810.0	118662.0
28	17	50	27	443	54.0	-214036.0	-798.0	118334.0
28	17	50	27	444	55.0	-217767.0	-812.0	117441.0
28	17	50	27	445	56.0	-220568.0	-803.0	117987.0
28	17	50	27	475	57.0	-222759.0	-780.0	117668.0
28	17	50	27	476	58.0	-224541.0	-775.0	117366.0
28	17	50	27	476	59.0	-225819.0	-751.0	117837.0
28	17	50	27	477	60.0	-226314.0	-739.0	117599.0
28	17	50	27	478	61.0	-226389.0	-726.0	119093.0
28	17	50	27	478	62.0	-225993.0	-732.0	120044.0
28	17	50	27	479	63.0	-224974.0	-723.0	119617.0
28	17	50	27	479	64.0	-223561.0	-731.0	119178.0
28	17	50	27	480	65.0	-221706.0	-699.0	119308.0
28	17	50	27	481	66.0	-219852.0	-692.0	118916.0
28	17	50	27	481	67.0	-218211.0	-706.0	118919.0
28	17	50	27	482	68.0	-216449.0	-723.0	118793.0
28	17	50	27	483	69.0	-214577.0	-713.0	119264.0
28	17	50	27	483	70.0	-212303.0	-697.0	119171.0
28	17	50	27	484	71.0	-209737.0	-716.0	119048.0
28	17	50	27	485	73.0	-203960.0	-718.0	118888.0
28	17	50	27	486	74.0	-201172.0	-737.0	118818.0
28	17	50	27	487	75.0	-199126.0	-718.0	119247.0
28	17	50	27	487	76.0	-197154.0	-703.0	119439.0
28	17	50	27	488	77.0	-195744.0	-681.0	119788.0
28	17	50	27	489	78.0	-195202.0	-686.0	120758.0
28	17	50	27	521	79.0	-195355.0	-686.0	120996.0
28	17	50	27	522	80.0	-195972.0	-690.0	121114.0
28	17	50	27	522	81.0	-196417.0	-692.0	122331.0
28	17	50	27	523	82.0	-196870.0	-717.0	122904.0
28	17	50	27	524	83.0	-198191.0	-737.0	122800.0
28	17	50	27	524	84.0	-200066.0	-768.0	123381.0
28	17	50	27	525	85.0	-202601.0	-804.0	124143.0
28	17	50	27	525	86.0	-205331.0	-831.0	124369.0
28	17	50	27	526	87.0	-207857.0	-852.0	124055.0
28	17	50	27	526	88.0	-210206.0	-868.0	124138.0
28	17	50	27	527	89.0	-211979.0	-867.0	124388.0
28	17	50	27	566	90.0	-212882.0	-892.0	126268.0
28	17	50	27	567	91.0	-213779.0	-901.0	126931.0
28	17	50	27	567	92.0	-214264.0	-909.0	126392.0
28	17	50	27	568	93.0	-214217.0	-922.0	126535.0
28	17	50	27	569	95.0	-212671.0	-937.0	126547.0
28	17	50	27	569	96.0	-211651.0	-960.0	128105.0
28	17	50	27	570	97.0	-210385.0	-984.0	129559.0
28	17	50	27	571	98.0	-209046.0	-977.0	128829.0
28	17	50	27	571	99.0	-207914.0	-967.0	129546.0
28	17	50	27	572	100.0	-207034.0	-985.0	130113.0
28	17	50	27	573	101.0	-206614.0	-1021.0	129931.0
28	17	50	27	574	102.0	-206497.0	-1055.0	130893.0
28	17	50	27	575	103.0	-206557.0	-1081.0	131929.0
28	17	50	27	576	104.0	-206919.0	-1116.0	131740.0
28	17	50	27	576	105.0	-207642.0	-1150.0	132386.0
28	17	50	27	577	106.0	-208876.0	-1190.0	132102.0
28	17	50	27	578	118.0	-231888.0	-1487.0	133513.0
28	17	50	27	578	119.0	-232876.0	-1492.0	134709.0
28	17	50	27	579	120.0	-232861.0	-1503.0	134984.0
28	17	50	27	579	121.0	-232391.0	-1510.0	134736.0
28	17	50	27	580	122.0	-231727.0	-1524.0	135161.0
28	17	50	27	580	123.0	-230840.0	-1520.0	134909.0
28	17	50	27	611	124.0	-229501.0	-1535.0	135634.0
28	17	50	27	612	125.0	-228309.0	-1533.0	136150.0
28	17	50	27	613	126.0	-227101.0	-1549.0	137134.0
28	17	50	27	613	127.0	-225092.0	-1583.0	137246.0
28	17	50	27	614	128.0	-222817.0	-1606.0	137893.0
28	17	50	27	614	129.0	-220286.0	-1626.0	138947.0
28	17	50	27	615	130.0	-217517.0	-1637.0	140217.0
28	17	50	27	616	131.0	-215036.0	-1640.0	141088.0
28	17	50	27	616	132.0	-212700.0	-1642.0	142144.0
28	17	50	27	624	133.0	-210458.0	-1637.0	142744.0
28	17	50	27	625	134.0	-207891.0	-1639.0	142625.0
28	17	50	27	626	135.0	-205831.0	-1636.0	142582.0
28	17	50	27	626	136.0	-204279.0	-1632.0	143413.0
28	17	50	27	627	137.0	-202989.0	-1635.0	143712.0
28	17	50	27	627	138.0	-202416.0	-1654.0	142695.0
28	17	50	27	628	140.0	-202388.0	-1642.0	143328.0
28	17	50	27	629	141.0	-202400.0	-1635.0	143955.0
28	17	50	27	629	142.0	-202011.0	-1612.0	144416.0
28	17	50	27	630	143.0	-201582.0	-1582.0	144631.0
28	17	50	27	630	144.0	-201046.0	-1561.0	144319.0
28	17	50	27	631	145.0	-199871.0	-1555.0	144256.0
28	17	50	27	631	146.0	-198808.0	-1529.0	145054.0
28	17	50	27	656	147.0	-198285.0	-1523.0	145080.0
28	17	50	27	657	148.0	-198130.0	-1502.0	144889.0
28	17	50	27	657	149.0	-198205.0	-1523.0	144626.0
28	17	50	27	658	150.0	-198349.0	-1519.0	144935.0
28	17	50	27	659	151.0	-198462.0	-1532.0	145361.0
28	17	50	27	659	152.0	-198501.0	-1509.0	145543.0
28	17	50	27	660	153.0	-198046.0	-1526.0	145343.0
28	17	50	27	661	154.0	-197487.0	-1535.0	145533.0
28	17	50	27	661	155.0	-196809.0	-1536.0	146358.0
28	17	50	27	662	156.0	-196145.0	-1533.0	146489.0
28	17	50	27	663	157.0	-195492.0	-1531.0	146579.0
28	17	50	27	663	158.0	-194589.0	-1554.0	147048.0
28	17	50	27	664	159.0	-194040.0	-1564.0	148256.0
28	17	50	27	665	160.0	-193687.0	-1578.0	148181.0
28	17	50	27	665	161.0	-193137.0	-1602.0	148438.0
28	17	50	27	666	163.0	-192116.0	-1601.0	148728.0
28	17	50	27	667	164.0	-191367.0	-1606.0	149338.0
28	17	50	27	667	165.0	-191248.0	-1609.0	149051.0
28	17	50	27	668	166.0	-191378.0	-1611.0	148068.0
28	17	50	27	668	167.0	-191628.0	-1626.0	147823.0
28	17	50	27	669	168.0	-192514.0	-1644.0	146720.0
28	17	50	27	701	169.0	-193575.0	-1672.0	147374.0
28	17	50	27	702	170.0	-194591.0	-1697.0	148779.0
28	17	50	27	703	171.0	-195386.0	-1695.0	149609.0
28	17	50	27	704	172.0	-195543.0	-1700.0	149359.0
28	17	50	27	704	173.0	-195838.0	-1731.0	148514.0
28	17	50	27	705	174.0	-196066.0	-1736.0	147928.0
28	17	50	27	705	175.0	-196554.0	-1731.0	148344.0
28	17	50	27	706	176.0	-197024.0	-1726.0	147928.0
28	17	50	27	707	177.0	-197665.0	-1721.0	148688.0
28	17	50	27	707	178.0	-199132.0	-1736.0	149672.0
28	17	50	27	708	179.0	-200534.0	-1729.0	150239.0
28	17	50	27	709	180.0	-201487.0	-1741.0	150406.0
28	17	50	27	709	181.0	-202646.0	-1742.0	150133.0
28	17	50	27	710	182.0	-203806.0	-1746.0	149213.0
28	17	50	27	710	183.0	-204680.0	-1743.0	149691.0
28	17	50	27	711	185.0	-206473.0	-1728.0	150090.0
28	17	50	27	712	186.0	-207629.0	-1700.0	150730.0
28	17	50	27	712	187.0	-208331.0	-1693.0	151667.0
28	17	50	27	713	188.0	-208045.0	-1686.0	151765.0
28	17	50	27	713	189.0	-207837.0	-1660.0	151943.0
28	17	50	27	714	190.0	-208287.0	-1667.0	152164.0
28	17	50	27	746	191.0	-208696.0	-1672.0	153221.0
28	17	50	27	747	192.0	-209242.0	-1660.0	153957.0
28	17	50	27	747	193.0	-209862.0	-1665.0	153925.0
28	17	50	27	748	194.0	-210603.0	-1682.0	154766.0
28	17	50	27	749	195.0	-211174.0	-1700.0	155250.0
28	17	50	27	749	196.0	-211733.0	-1723.0	155713.0
28	17	50	27	750	197.0	-212435.0	-1739.0	155571.0
28	17	50	27	751	198.0	-212651.0	-1762.0	154773.0
28	17	50	27	751	199.0	-212809.0	-1788.0	154406.0
28	17	50	27	752	200.0	-213048.0	-1802.0	154859.0
28	17	50	27	753	201.0	-212738.0	-1817.0	154858.0
28	17	50	27	753	202.0	-211652.0	-1828.0	154852.0
28	17	50	27	754	203.0	-210201.0	-1849.0	154879.0
28	17	50	27	754	204.0	-208539.0	-1864.0	155349.0
28	17	50	27	755	205.0	-206522.0	-1847.0	155334.0
28	17	50	27	756	207.0	-201356.0	-1830.0	155463.0
28	17	50	27	756	208.0	-198696.0	-1842.0	155808.0
28	17	50	27	757	209.0	-196246.0	-1824.0	155506.0
28	17	50	27	758	210.0	-193901.0	-1823.0	155158.0
28	17	50	27	758	211.0	-191912.0	-1822.0	154984.0
28	17	50	27	759	212.0	-190132.0	-1812.0	154959.0
28	17	50	27	759	213.0	-188590.0	-1796.0	154986.0
28	17	50	27	790	214.0	-187290.0	-1771.0	154973.0
28	17	50	27	791	215.0	-185997.0	-1779.0	154885.0
28	17	50	27	792	216.0	-185179.0	-1779.0	153949.0
28	17	50	27	793	217.0	-184692.0	-1781.0	154041.0
28	17	50	27	793	218.0	-184422.0	-1804.0	155714.0
28	17	50	27	794	219.0	-184184.0	-1831.0	155819.0
28	17	50	27	795	220.0	-183947.0	-1846.0	155542.0
28	17	50	27	795	221.0	-183829.0	-1858.0	156294.0
28	17	50	27	796	222.0	-184097.0	-1873.0	157554.0
28	17	50	27	797	223.0	-184834.0	-1909.0	157539.0
28	17	50	27	797	224.0	-185980.0	-1909.0	157026.0
28	17	50	27	798	225.0	-187209.0	-1924.0	157483.0
28	17	50	27	798	226.0	-188534.0	-1931.0	158071.0
28	17	50	27	799	227.0	-190242.0	-1932.0	158594.0
28	17	50	27	800	228.0	-192392.0	-1939.0	157081.0
28	17	50	27	800	230.0	-196348.0	-1974.0	150633.0
28	17	50	27	801	231.0	-198344.0	-1979.0	144396.0
28	17	50	27	802	232.0	-198865.0	-1990.0	136711.0
28	17	50	27	802	233.0	-198180.0	-2002.0	128791.0
28	17	50	27	803	234.0	-196319.0	-2007.0	122099.0
28	17	50	27	803	235.0	-192857.0	-1999.0	116573.0
28	17	50	27	836	236.0	-188484.0	-1992.0	111261.0
28	17	50	27	837	237.0	-184236.0	-1988.0	106800.0
28	17	50	27	837	238.0	-180613.0	-2009.0	107292.0
28	17	50	27	838	239.0	-177757.0	-2020.0	107739.0
28	17	50	27	839	240.0	-176071.0	-2031.0	110602.0
28	17	50	27	839	241.0	-175894.0	-2050.0	129426.0
28	17	50	27	840	242.0	-176676.0	-2066.0	156048.0
28	17	50	27	841	243.0	-178745.0	-2067.0	173729.0
28	17	50	27	841	244.0	-182427.0	-2086.0	174484.0
28	17	50	27	842	245.0	-187664.0	-2097.0	172892.0
28	17	50	27	842	246.0	-194364.0	-2101.0	170688.0
28	17	50	27	843	247.0	-202418.0	-2108.0	167736.0
28	17	50	27	843	248.0	-211579.0	-2134.0	166258.0
28	17	50	27	881	249.0	-221492.0	-2134.0	164087.0
28	17	50	27	882	250.0	-231811.0	-2134.0	161561.0
28	17	50	27	882	252.0	-246507.0	-2120.0	159150.0
28	17	50	27	883	253.0	-243764.0	-2135.0	158653.0
28	17	50	27	884	254.0	-229607.0	-2146.0	159608.0
28	17	50	27	884	255.0	-200552.0	-2146.0	161321.0
28	17	50	27	885	0.0	-158222.0	-2143.0	161728.0
28	17	50	27	886	1.0	-117279.0	-2155.0	161748.0
28	17	50	27	886	2.0	-87422.0	-2159.0	162185.0
28	17	50	27	887	3.0	-78035.0	-2160.0	163108.0
28	17	50	27	887	4.0	-89710.0	-2179.0	163680.0
28	17	50	27	888	5.0	-117667.0	-2186.0	164746.0
28	17	50	27	927	6.0	-158091.0	-2203.0	166172.0
28	17	50	27	927	7.0	-200483.0	-2227.0	166419.0
28	17	50	27	928	8.0	-236101.0	-2227.0	166653.0
28	17	50	27	929	9.0	-262534.0	-2252.0	167434.0
28	17	50	27	929	19.0	-123109.0	-2234.0	165763.0
28	17	50	27	930	20.0	-114717.0	-2238.0	167011.0
28	17	50	27	931	21.0	-116405.0	-2217.0	168451.0
28	17	50	27	931	22.0	-122551.0	-2211.0	169147.0
28	17	50	27	932	23.0	-127298.0	-2225.0	169538.0
28	17	50	27	932	24.0	-128300.0	-2224.0	169332.0
28	17	50	27	970	25.0	-127543.0	-2219.0	168420.0
28	17	50	27	971	26.0	-127923.0	-2236.0	168029.0
28	17	50	28	16	27.0	-131456.0	-2237.0	168194.0
28	17	50	28	17	28.0	-137933.0	-2238.0	168198.0
28	17	50	28	17	29.0	-146854.0	-2241.0	168363.0
28	17	50	28	18	30.0	-156856.0	-2248.0	167929.0
28	17	50	28	19	42.0	-231674.0	-2324.0	166743.0
28	17	50	28	19	43.0	-238306.0	-2315.0	167026.0
28	17	50	28	20	44.0	-242282.0	-2329.0	167048.0
28	17	50	28	21	45.0	-243823.0	-2351.0	167586.0
28	17	50	28	21	46.0	-242361.0	-2370.0	167563.0
28	17	50	28	22	47.0	-238243.0	-2374.0	167171.0
28	17	50	28	23	48.0	-231784.0	-2381.0	166914.0
28	17	50	28	24	49.0	-223303.0	-2402.0	167280.0
28	17	50	28	24	50.0	-213912.0	-2416.0	167716.0
28	17	50	28	25	64.0	-177402.0	-2522.0	168576.0
28	17	50	28	26	65.0	-185289.0	-2529.0	169339.0
28	17	50	28	26	66.0	-193322.0	-2517.0	169261.0
28	17	50	28	27	87.0	-229386.0	-2475.0	168300.0
28	17	50	28	29	88.0	-223830.0	-2454.0	168397.0
28	17	50	28	30	89.0	-218344.0	-2421.0	168904.0
28	17	50	28	30	90.0	-212742.0	-2398.0	170072.0
28	17	50	28	31	91.0	-207354.0	-2379.0	170558.0
28	17	50	28	37	92.0	-201831.0	-2338.0	169761.0
28	17	50	28	62	93.0	-195841.0	-2311.0	169123.0
28	17	50	28	63	94.0	-190497.0	-2296.0	168408.0
28	17	50	28	63	95.0	-185787.0	-2282.0	168428.0
28	17	50	28	64	96.0	-181560.0	-2249.0	169042.0
28	17	50	28	65	97.0	-178201.0	-2231.0	168864.0
28	17	50	28	65	98.0	-175699.0	-2198.0	169079.0
28	17	50	28	66	99.0	-173743.0	-2184.0	168902.0
28	17	50	28	66	100.0	-172644.0	-2169.0	168446.0
28	17	50	28	67	101.0	-171610.0	-2126.0	168562.0
28	17	50	28	67	102.0	-170762.0	-2070.0	169369.0
28	17	50	28	68	103.0	-170717.0	-2016.0	169564.0
28	17	50	28	69	104.0	-171137.0	-1987.0	169639.0
28	17	50	28	69	105.0	-171146.0	-1966.0	170454.0
28	17	50	28	70	106.0	-171221.0	-1942.0	172012.0
28	17	50	28	70	107.0	-171820.0	-1881.0	172819.0
28	17	50	28	71	109.0	-174053.0	-1800.0	172683.0
28	17	50	28	71	110.0	-176017.0	-1761.0	172928.0
28	17	50	28	72	111.0	-178281.0	-1704.0	174524.0
28	17	50	28	73	112.0	-180544.0	-1657.0	174961.0
28	17	50	28	73	113.0	-183029.0	-1621.0	174726.0
28	17	50	28	74	114.0	-185484.0	-1578.0	174588.0
28	17	50	28	105	115.0	-188237.0	-1540.0	175523.0
28	17	50	28	106	116.0	-191381.0	-1506.0	175173.0
28	17	50	28	107	117.0	-194491.0	-1482.0	174706.0
28	17	50	28	107	118.0	-197457.0	-1444.0	175762.0
28	17	50	28	108	119.0	-200806.0	-1414.0	176186.0
28	17	50	28	109	120.0	-204674.0	-1404.0	176927.0
28	17	50	28	109	121.0	-208050.0	-1379.0	177359.0
28	17	50	28	110	122.0	-211135.0	-1367.0	177436.0
28	17	50	28	110	123.0	-214418.0	-1316.0	177076.0
28	17	50	28	111	124.0	-217412.0	-1282.0	177018.0
28	17	50	28	111	125.0	-220368.0	-1244.0	176958.0
28	17	50	28	112	126.0	-222840.0	-1215.0	177020.0
28	17	50	28	113	127.0	-224782.0	-1171.0	177569.0
28	17	50	28	113	128.0	-226339.0	-1133.0	177629.0
28	17	50	28	114	129.0	-227246.0	-1089.0	176535.0
28	17	50	28	114	131.0	-225462.0	-1017.0	178287.0
28	17	50	28	115	132.0	-223104.0	-999.0	179341.0
28	17	50	28	116	133.0	-219329.0	-956.0	179520.0
28	17	50	28	116	134.0	-214304.0	-926.0	179060.0
28	17	50	28	117	135.0	-206966.0	-895.0	178900.0
28	17	50	28	117	136.0	-193459.0	-864.0	179055.0
28	17	50	28	151	137.0	-171778.0	-825.0	179094.0
28	17	50	28	152	138.0	-145736.0	-809.0	179879.0
28	17	50	28	152	139.0	-132422.0	-779.0	180389.0
28	17	50	28	153	140.0	-144232.0	-761.0	179045.0
28	17	50	28	154	141.0	-168595.0	-730.0	177398.0
28	17	50	28	154	142.0	-191885.0	-694.0	177334.0
28	17	50	28	155	143.0	-205949.0	-666.0	177970.0
28	17	50	28	155	144.0	-209874.0	-635.0	179071.0
28	17	50	28	156	145.0	-211121.0	-607.0	179796.0
28	17	50	28	156	146.0	-217207.0	-567.0	179895.0
28	17	50	28	157	147.0	-220116.0	-545.0	178655.0
28	17	50	28	158	148.0	-220754.0	-534.0	178120.0
28	17	50	28	158	149.0	-219549.0	-512.0	179096.0
28	17	50	28	159	150.0	-215342.0	-504.0	179479.0
28	17	50	28	159	151.0	-209662.0	-472.0	179441.0
28	17	50	28	160	154.0	-200029.0	-389.0	179138.0
28	17	50	28	161	155.0	-199599.0	-375.0	179285.0
28	17	50	28	161	156.0	-202117.0	-362.0	179139.0
28	17	50	28	162	157.0	-205724.0	-347.0	179063.0
28	17	50	28	162	158.0	-209885.0	-331.0	178299.0
28	17	50	28	163	159.0	-213614.0	-317.0	178772.0
28	17	50	28	195	160.0	-214679.0	-314.0	179039.0
28	17	50	28	196	161.0	-213937.0	-295.0	178659.0
28	17	50	28	197	162.0	-211253.0	-297.0	178143.0
28	17	50	28	197	163.0	-207743.0	-309.0	178098.0
28	17	50	28	198	164.0	-203368.0	-312.0	178802.0
28	17	50	28	198	165.0	-198927.0	-344.0	179464.0
28	17	50	28	199	166.0	-194528.0	-349.0	179668.0
28	17	50	28	200	167.0	-190709.0	-367.0	180204.0
28	17	50	28	200	168.0	-187497.0	-338.0	180486.0
28	17	50	28	201	169.0	-184305.0	-349.0	179846.0
28	17	50	28	201	170.0	-181612.0	-342.0	179579.0
28	17	50	28	202	171.0	-180122.0	-354.0	179762.0
28	17	50	28	203	172.0	-179312.0	-347.0	179650.0
28	17	50	28	203	173.0	-179846.0	-345.0	179092.0
28	17	50	28	204	174.0	-181684.0	-349.0	178623.0
28	17	50	28	204	176.0	-185829.0	-346.0	178598.0
28	17	50	28	240	177.0	-187679.0	-370.0	179666.0
28	17	50	28	241	178.0	-189384.0	-357.0	179900.0
28	17	50	28	242	179.0	-190443.0	-354.0	179833.0
28	17	50	28	243	180.0	-192021.0	-351.0	180611.0
28	17	50	28	243	181.0	-193512.0	-332.0	180432.0
28	17	50	28	244	182.0	-195214.0	-320.0	181777.0
28	17	50	28	245	183.0	-197048.0	-337.0	183924.0
28	17	50	28	245	184.0	-198959.0	-344.0	183513.0
28	17	50	28	246	185.0	-201056.0	-347.0	183052.0
28	17	50	28	247	186.0	-203217.0	-362.0	182764.0
28	17	50	28	247	187.0	-204922.0	-391.0	183837.0
28	17	50	28	248	188.0	-206704.0	-396.0	183742.0
28	17	50	28	248	189.0	-208849.0	-419.0	181895.0
28	17	50	28	249	190.0	-210794.0	-441.0	182228.0
28	17	50	28	250	191.0	-212834.0	-463.0	184844.0
28	17	50	28	250	192.0	-214701.0	-481.0	186814.0
28	17	50	28	251	199.0	-225239.0	-749.0	185290.0
28	17	50	28	251	200.0	-224735.0	-774.0	185018.0
28	17	50	28	252	201.0	-223509.0	-782.0	184906.0
28	17	50	28	253	202.0	-221884.0	-801.0	185355.0
28	17	50	28	253	203.0	-220108.0	-809.0	185364.0
28	17	50	28	254	204.0	-218207.0	-832.0	185812.0
28	17	50	28	286	205.0	-215744.0	-851.0	185729.0
28	17	50	28	287	206.0	-213641.0	-836.0	185615.0
28	17	50	28	288	207.0	-211596.0	-857.0	185680.0
28	17	50	28	288	208.0	-209212.0	-866.0	185118.0
28	17	50	28	289	209.0	-206565.0	-877.0	184721.0
28	17	50	28	289	210.0	-204304.0	-905.0	185367.0
28	17	50	28	290	211.0	-202122.0	-913.0	185298.0
28	17	50	28	291	212.0	-199989.0	-932.0	184574.0
28	17	50	28	291	213.0	-198452.0	-954.0	184992.0
28	17	50	28	292	214.0	-197067.0	-966.0	185272.0
28	17	50	28	292	215.0	-196589.0	-982.0	185524.0
28	17	50	28	293	216.0	-196637.0	-992.0	185793.0
28	17	50	28	294	217.0	-196915.0	-1008.0	186528.0
28	17	50	28	295	218.0	-197696.0	-1038.0	186055.0
28	17	50	28	296	219.0	-199381.0	-1074.0	186505.0
28	17	50	28	297	221.0	-203413.0	-1129.0	186858.0
28	17	50	28	297	222.0	-205588.0	-1137.0	186531.0
28	17	50	28	298	223.0	-207439.0	-1149.0	186503.0
28	17	50	28	298	224.0	-209097.0	-1152.0	186654.0
28	17	50	28	299	225.0	-210437.0	-1169.0	186566.0
28	17	50	28	299	226.0	-211577.0	-1197.0	186441.0
28	17	50	28	330	227.0	-212569.0	-1208.0	186188.0
28	17	50	28	331	228.0	-213389.0	-1233.0	186044.0
28	17	50	28	332	229.0	-213992.0	-1257.0	186496.0
28	17	50	28	333	230.0	-213521.0	-1272.0	187339.0
28	17	50	28	333	231.0	-212986.0	-1306.0	189779.0
28	17	50	28	334	232.0	-211846.0	-1341.0	191298.0
28	17	50	28	334	233.0	-210286.0	-1362.0	192156.0
28	17	50	28	335	234.0	-208707.0	-1368.0	192360.0
28	17	50	28	336	235.0	-206552.0	-1377.0	191899.0
28	17	50	28	336	236.0	-204514.0	-1414.0	192449.0
28	17	50	28	337	237.0	-202379.0	-1443.0	192346.0
28	17	50	28	337	238.0	-200892.0	-1453.0	191691.0
28	17	50	28	338	239.0	-199782.0	-1467.0	191582.0
28	17	50	28	339	240.0	-199053.0	-1472.0	191978.0
28	17	50	28	339	241.0	-198173.0	-1497.0	192477.0
28	17	50	28	340	243.0	-198406.0	-1526.0	192375.0
28	17	50	28	340	244.0	-198356.0	-1537.0	192957.0
28	17	50	28	341	245.0	-199362.0	-1537.0	193971.0
28	17	50	28	342	246.0	-200234.0	-1523.0	194175.0
28	17	50	28	342	247.0	-201368.0	-1516.0	194691.0
28	17	50	28	343	248.0	-203146.0	-1514.0	195391.0
28	17	50	28	343	249.0	-205587.0	-1522.0	196632.0
28	17	50	28	422	250.0	-207864.0	-1517.0	196532.0
28	17	50	28	422	251.0	-210014.0	-1496.0	196611.0
28	17	50	28	423	252.0	-211709.0	-1490.0	197413.0
28	17	50	28	424	253.0	-213137.0	-1504.0	197365.0
28	17	50	28	424	254.0	-214841.0	-1518.0	198803.0
28	17	50	28	425	255.0	-216459.0	-1528.0	199636.0
28	17	50	28	426	0.0	-218059.0	-1544.0	199474.0
28	17	50	28	426	1.0	-219062.0	-1549.0	199991.0
28	17	50	28	427	2.0	-220564.0	-1569.0	199904.0
28	17	50	28	427	3.0	-221753.0	-1565.0	199426.0
28	17	50	28	428	4.0	-222677.0	-1571.0	199627.0
28	17	50	28	429	5.0	-223088.0	-1572.0	199343.0
28	17	50	28	429	6.0	-223690.0	-1586.0	198349.0
28	17	50	28	430	7.0	-223998.0	-1603.0	198145.0
28	17	50	28	430	8.0	-223918.0	-1599.0	198163.0
28	17	50	28	431	10.0	-223080.0	-1611.0	197474.0
28	17	50	28	431	33.0	-185276.0	-1805.0	200414.0
28	17	50	28	432	34.0	-185192.0	-1798.0	199020.0
28	17	50	28	433	35.0	-184522.0	-1787.0	198895.0
28	17	50	28	433	36.0	-184157.0	-1776.0	200533.0
28	17	50	28	434	37.0	-183847.0	-1785.0	201359.0
28	17	50	28	434	38.0	-183851.0	-1786.0	202710.0
28	17	50	28	467	39.0	-183597.0	-1774.0	203432.0
28	17	50	28	467	40.0	-183376.0	-1783.0	202472.0
28	17	50	28	468	41.0	-183379.0	-1776.0	201604.0
28	17	50	28	469	42.0	-183517.0	-1804.0	201261.0
28	17	50	28	469	43.0	-183890.0	-1816.0	201481.0
28	17	50	28	470	44.0	-184411.0	-1834.0	201933.0
28	17	50	28	471	45.0	-185256.0	-1832.0	201898.0
28	17	50	28	471	46.0	-185840.0	-1818.0	202631.0
28	17	50	28	472	47.0	-186746.0	-1823.0	202664.0
28	17	50	28	472	48.0	-187936.0	-1847.0	201803.0
28	17	50	28	473	49.0	-189309.0	-1867.0	202214.0
28	17	50	28	474	50.0	-191187.0	-1873.0	202201.0
28	17	50	28	474	51.0	-192896.0	-1867.0	202622.0
28	17	50	28	475	52.0	-194268.0	-1869.0	203041.0
28	17	50	28	475	53.0	-195322.0	-1886.0	203266.0
28	17	50	28	476	55.0	-196803.0	-1906.0	203870.0
28	17	50	28	477	56.0	-196487.0	-1950.0	203357.0
28	17	50	28	477	57.0	-195814.0	-1981.0	202701.0
28	17	50	28	478	58.0	-195152.0	-2022.0	203220.0
28	17	50	28	478	59.0	-194302.0	-2036.0	204211.0
28	17	50	28	479	60.0	-193437.0	-2020.0	203778.0
28	17	50	28	511	61.0	-192847.0	-2026.0	203279.0
28	17	50	28	557	62.0	-192071.0	-2030.0	203837.0
28	17	50	28	558	63.0	-191742.0	-2031.0	204226.0
28	17	50	28	558	64.0	-191546.0	-2054.0	203826.0
28	17	50	28	559	65.0	-190839.0	-2072.0	203068.0
28	17	50	28	560	66.0	-191037.0	-2067.0	202931.0
28	17	50	28	560	67.0	-191830.0	-2062.0	202297.0
28	17	50	28	561	68.0	-192644.0	-2086.0	200292.0
28	17	50	28	562	69.0	-193541.0	-2111.0	199938.0
28	17	50	28	562	70.0	-194231.0	-2134.0	200098.0
28	17	50	28	563	71.0	-195244.0	-2145.0	200041.0
28	17	50	28	563	72.0	-195877.0	-2160.0	200708.0
28	17	50	28	564	73.0	-196487.0	-2177.0	201589.0
28	17	50	28	565	74.0	-196705.0	-2201.0	201629.0
28	17	50	28	565	75.0	-196621.0	-2207.0	201738.0
28	17	50	28	566	77.0	-197038.0	-2233.0	203768.0
28	17	50	28	567	100.0	-206994.0	-2539.0	204249.0
28	17	50	28	567	101.0	-206905.0	-2574.0	204199.0
28	17	50	28	568	102.0	-206856.0	-2578.0	204704.0
28	17	50	28	568	103.0	-206619.0	-2604.0	204530.0
28	17	50	28	569	104.0	-206521.0	-2602.0	204527.0
28	17	50	28	647	105.0	-206235.0	-2594.0	205263.0
28	17	50	28	648	106.0	-206521.0	-2586.0	205046.0
28	17	50	28	649	107.0	-207176.0	-2600.0	204613.0
28	17	50	28	650	108.0	-207266.0	-2623.0	204066.0
28	17	50	28	650	109.0	-207520.0	-2647.0	203811.0
28	17	50	28	651	110.0	-207481.0	-2677.0	203713.0
28	17	50	28	651	111.0	-206626.0	-2685.0	203453.0
28	17	50	28	652	112.0	-205351.0	-2677.0	203031.0
28	17	50	28	653	113.0	-203101.0	-2681.0	202997.0
28	17	50	28	653	114.0	-200622.0	-2684.0	202936.0
28	17	50	28	654	115.0	-198181.0	-2706.0	203666.0
28	17	50	28	655	116.0	-194613.0	-2721.0	204370.0
28	17	50	28	655	117.0	-190856.0	-2721.0	204220.0
28	17	50	28	656	118.0	-187441.0	-2724.0	204513.0
28	17	50	28	656	119.0	-184180.0	-2756.0	203411.0
28	17	50	28	657	122.0	-179026.0	-2806.0	204089.0
28	17	50	28	658	145.0	-180621.0	-3041.0	222419.0
28	17	50	28	658	146.0	-189306.0	-3050.0	220105.0
28	17	50	28	659	147.0	-199633.0	-3075.0	218489.0
28	17	50	28	659	148.0	-210330.0	-3115.0	217731.0
28	17	50	28	660	149.0	-220338.0	-3130.0	214968.0
28	17	50	28	661	150.0	-229652.0	-3149.0	213156.0
28	17	50	28	661	151.0	-237349.0	-3166.0	212224.0
28	17	50	28	692	152.0	-240964.0	-3191.0	211276.0
28	17	50	28	692	153.0	-234501.0	-3168.0	211526.0
28	17	50	28	693	154.0	-217449.0	-3172.0	212781.0
28	17	50	28	694	155.0	-183746.0	-3199.0	213400.0
28	17	50	28	694	156.0	-139163.0	-3222.0	213290.0
28	17	50	28	695	157.0	-100201.0	-3209.0	213859.0
28	17	50	28	696	158.0	-73443.0	-3206.0	213673.0
28	17	50	28	696	159.0	-67426.0	-3206.0	213156.0
28	17	50	28	697	160.0	-81024.0	-3217.0	213068.0
28	17	50	28	697	161.0	-109872.0	-3217.0	213249.0
28	17	50	28	698	162.0	-151009.0	-3199.0	213834.0
28	17	50	28	699	163.0	-194499.0	-3212.0	213729.0
28	17	50	28	699	164.0	-231795.0	-3226.0	214414.0
28	17	50	28	700	165.0	-260477.0	-3247.0	213788.0
28	17	50	28	700	166.0	-281321.0	-3232.0	213179.0
28	17	50	28	701	167.0	-293002.0	-3230.0	213941.0
28	17	50	28	702	168.0	-294130.0	-3223.0	214466.0
28	17	50	28	718	169.0	-287766.0	-3209.0	214174.0
28	17	50	28	719	170.0	-276776.0	-3209.0	212929.0
28	17	50	28	719	171.0	-259546.0	-3202.0	213000.0
28	17	50	28	720	172.0	-234277.0	-3194.0	212410.0
28	17	50	28	740	173.0	-204438.0	-3166.0	212583.0
28	17	50	28	741	174.0	-178227.0	-3137.0	212260.0
28	17	50	28	742	175.0	-157859.0	-3127.0	211786.0
28	17	50	28	742	176.0	-144373.0	-3117.0	212616.0
28	17	50	28	743	177.0	-140816.0	-3091.0	212598.0
28	17	50	28	743	178.0	-147409.0	-3052.0	212561.0
28	17	50	28	744	179.0	-157589.0	-3055.0	212081.0
28	17	50	28	745	180.0	-163844.0	-3028.0	211329.0
28	17	50	28	745	181.0	-164551.0	-3009.0	210698.0
28	17	50	28	746	182.0	-164007.0	-2957.0	210190.0
28	17	50	28	746	183.0	-164878.0	-2914.0	209598.0
28	17	50	28	747	184.0	-168100.0	-2876.0	209135.0
28	17	50	28	748	185.0	-173384.0	-2837.0	208264.0
28	17	50	28	748	186.0	-179764.0	-2835.0	206776.0
28	17	50	28	749	187.0	-184561.0	-2802.0	207459.0
28	17	50	28	749	189.0	-185745.0	-2791.0	208866.0
28	17	50	28	750	190.0	-184031.0	-2759.0	209133.0
28	17	50	28	750	191.0	-183957.0	-2700.0	209005.0
28	17	50	28	751	192.0	-185571.0	-2696.0	208100.0
28	17	50	28	752	193.0	-188090.0	-2671.0	206528.0
28	17	50	28	752	194.0	-190642.0	-2668.0	207306.0
28	17	50	28	753	195.0	-192749.0	-2630.0	208449.0
28	17	50	28	781	196.0	-195321.0	-2602.0	208802.0
28	17	50	28	782	197.0	-198674.0	-2571.0	208652.0
28	17	50	28	782	198.0	-202572.0	-2537.0	208799.0
28	17	50	28	783	199.0	-206179.0	-2535.0	209177.0
28	17	50	28	784	200.0	-209621.0	-2516.0	209311.0
28	17	50	28	784	201.0	-212672.0	-2510.0	209633.0
28	17	50	28	785	202.0	-214016.0	-2504.0	209224.0
28	17	50	28	786	203.0	-212580.0	-2507.0	208864.0
28	17	50	28	786	204.0	-208316.0	-2511.0	208825.0
28	17	50	28	787	205.0	-203264.0	-2538.0	209501.0
28	17	50	28	788	206.0	-197340.0	-2536.0	210809.0
28	17	50	28	788	207.0	-191257.0	-2549.0	210691.0
28	17	50	28	789	208.0	-184743.0	-2553.0	211374.0
28	17	50	28	790	209.0	-178364.0	-2557.0	212837.0
28	17	50	28	790	210.0	-173212.0	-2552.0	212826.0
28	17	50	28	791	212.0	-166619.0	-2547.0	211878.0
28	17	50	28	792	213.0	-164031.0	-2539.0	210509.0
28	17	50	28	792	214.0	-163369.0	-2516.0	211719.0
28	17	50	28	793	215.0	-163797.0	-2520.0	213618.0
28	17	50	28	794	216.0	-165259.0	-2515.0	213789.0
28	17	50	28	794	217.0	-168626.0	-2531.0	214053.0
28	17	50	28	825	218.0	-173116.0	-2529.0	213882.0
28	17	50	28	826	219.0	-178800.0	-2479.0	214048.0
28	17	50	28	827	220.0	-184101.0	-2483.0	213771.0
28	17	50	28	828	221.0	-190377.0	-2489.0	212582.0
28	17	50	28	828	222.0	-197696.0	-2491.0	211776.0
28	17	50	28	871	223.0	-204243.0	-2471.0	211712.0
28	17	50	28	872	224.0	-210934.0	-2466.0	212063.0
28	17	50	28	873	225.0	-217803.0	-2446.0	212701.0
28	17	50	28	874	226.0	-223672.0	-2437.0	212828.0
28	17	50	28	874	227.0	-229594.0	-2419.0	212846.0
28	17	50	28	875	228.0	-234997.0	-2413.0	213106.0
28	17	50	28	876	229.0	-238919.0	-2396.0	212457.0
28	17	50	28	876	230.0	-242694.0	-2383.0	210834.0
28	17	50	28	877	231.0	-245477.0	-2374.0	211243.0
28	17	50	28	878	232.0	-246132.0	-2348.0	211730.0
28	17	50	28	879	234.0	-246397.0	-2348.0	211368.0
28	17	50	28	880	235.0	-246364.0	-2326.0	210622.0
28	17	50	28	881	236.0	-245632.0	-2332.0	209242.0
28	17	50	28	881	237.0	-244427.0	-2323.0	209358.0
28	17	50	28	882	238.0	-241230.0	-2292.0	210139.0
28	17	50	28	883	239.0	-238200.0	-2294.0	211723.0
28	17	50	28	883	1.0	-173755.0	-2361.0	211648.0
28	17	50	28	884	2.0	-173550.0	-2357.0	212164.0
28	17	50	28	884	3.0	-173786.0	-2323.0	212723.0
28	17	50	28	885	4.0	-174533.0	-2289.0	212386.0
28	17	50	28	886	5.0	-176181.0	-2267.0	212091.0
28	17	50	28	886	6.0	-177596.0	-2237.0	212794.0
28	17	50	28	887	7.0	-180804.0	-2222.0	213409.0
28	17	50	28	916	8.0	-184001.0	-2187.0	213783.0
28	17	50	28	917	9.0	-187580.0	-2157.0	214289.0
28	17	50	28	918	10.0	-191478.0	-2124.0	214759.0
28	17	50	28	919	11.0	-196077.0	-2101.0	214511.0
28	17	50	28	920	12.0	-200126.0	-2082.0	214498.0
28	17	50	28	920	13.0	-204195.0	-2067.0	215636.0
28	17	50	28	921	14.0	-208274.0	-2061.0	216253.0
28	17	50	28	977	15.0	-211359.0	-2023.0	215811.0
28	17	50	28	999	16.0	-213612.0	-1985.0	214861.0
28	17	50	28	999	17.0	-215875.0	-1951.0	216031.0
28	17	50	29	0	18.0	-217890.0	-1930.0	216673.0
28	17	50	29	1	19.0	-219496.0	-1901.0	216568.0
28	17	50	29	2	20.0	-220821.0	-1877.0	217165.0
28	17	50	29	2	21.0	-220920.0	-1834.0	217529.0
28	17	50	29	3	22.0	-221069.0	-1790.0	217619.0
28	17	50	29	3	23.0	-220898.0	-1737.0	218934.0
28	17	50	29	4	24.0	-220767.0	-1687.0	218477.0
28	17	50	29	5	25.0	-220271.0	-1639.0	217534.0
28	17	50	29	5	26.0	-220734.0	-1567.0	217546.0
28	17	50	29	6	27.0	-220486.0	-1519.0	217563.0
28	17	50	29	7	28.0	-220381.0	-1472.0	217658.0
28	17	50	29	7	29.0	-220336.0	-1407.0	217970.0
28	17	50	29	8	30.0	-219227.0	-1381.0	218317.0
28	17	50	29	8	61.0	-244592.0	-865.0	220082.0
28	17	50	29	9	62.0	-240127.0	-862.0	219578.0
28	17	50	29	9	63.0	-234383.0	-859.0	219614.0
28	17	50	29	10	64.0	-227890.0	-839.0	220208.0
28	17	50	29	11	65.0	-221317.0	-807.0	220654.0
28	17	50	29	11	66.0	-216077.0	-805.0	220697.0
28	17	50	29	12	67.0	-211253.0	-802.0	220173.0
28	17	50	29	13	68.0	-207268.0	-775.0	219611.0
28	17	50	29	21	69.0	-203805.0	-761.0	219432.0
28	17	50	29	22	70.0	-200241.0	-738.0	218902.0
28	17	50	29	22	71.0	-197964.0	-723.0	219535.0
28	17	50	29	23	72.0	-196357.0	-698.0	219682.0
28	17	50	29	24	73.0	-194856.0	-702.0	219311.0
28	17	50	29	24	74.0	-194004.0	-703.0	219409.0
28	17	50	29	25	75.0	-194167.0	-681.0	219054.0
28	17	50	29	26	76.0	-195372.0	-679.0	218849.0
28	17	50	29	26	77.0	-196624.0	-648.0	218497.0
28	17	50	29	44	78.0	-199009.0	-611.0	218939.0
28	17	50	29	45	79.0	-201873.0	-591.0	218629.0
28	17	50	29	46	80.0	-205196.0	-583.0	216856.0
28	17	50	29	46	81.0	-209362.0	-592.0	217388.0
28	17	50	29	47	82.0	-213343.0	-575.0	218493.0
28	17	50	29	48	83.0	-217679.0	-569.0	218934.0
28	17	50	29	48	84.0	-223469.0	-572.0	218583.0
28	17	50	29	49	85.0	-229418.0	-569.0	218289.0
28	17	50	29	50	86.0	-233869.0	-551.0	217543.0
28	17	50	29	50	87.0	-238469.0	-546.0	217988.0
28	17	50	29	51	88.0	-242252.0	-545.0	218284.0
28	17	50	29	52	89.0	-244881.0	-546.0	218991.0
28	17	50	29	52	90.0	-246473.0	-554.0	218909.0
28	17	50	29	53	91.0	-247319.0	-559.0	219012.0
28	17	50	29	54	92.0	-247007.0	-552.0	218313.0
28	17	50	29	68	93.0	-245419.0	-529.0	216961.0
28	17	50	29	69	94.0	-242857.0	-525.0	216134.0
28	17	50	29	69	95.0	-240206.0	-539.0	215794.0
28	17	50	29	70	96.0	-237067.0	-536.0	214626.0
28	17	50	29	71	97.0	-233086.0	-537.0	214511.0
28	17	50	29	71	98.0	-229252.0	-542.0	214567.0
28	17	50	29	72	99.0	-224817.0	-535.0	215914.0
28	17	50	29	96	100.0	-220621.0	-504.0	216804.0
28	17	50	29	97	101.0	-216711.0	-479.0	216171.0
28	17	50	29	97	102.0	-212501.0	-455.0	215699.0
28	17	50	29	98	103.0	-208166.0	-465.0	216416.0
28	17	50	29	99	104.0	-203388.0	-453.0	217265.0
28	17	50	29	100	105.0	-200057.0	-453.0	217230.0
28	17	50	29	100	106.0	-196393.0	-461.0	216729.0
28	17	50	29	101	107.0	-192361.0	-462.0	217041.0
28	17	50	29	102	108.0	-188552.0	-456.0	217155.0
28	17	50	29	103	109.0	-184357.0	-475.0	216685.0
28	17	50	29	103	110.0	-181331.0	-491.0	216389.0
28	17	50	29	104	111.0	-178452.0	-487.0	217039.0
28	17	50	29	105	112.0	-176714.0	-485.0	218564.0
28	17	50	29	105	113.0	-175916.0	-488.0	218468.0
28	17	50	29	106	114.0	-175609.0	-482.0	217362.0
28	17	50	29	107	115.0	-176498.0	-483.0	216996.0
28	17	50	29	107	116.0	-176986.0	-480.0	218026.0
28	17	50	29	108	117.0	-178810.0	-471.0	217481.0
28	17	50	29	109	118.0	-182628.0	-459.0	218254.0
28	17	50	29	109	119.0	-186015.0	-451.0	219868.0
28	17	50	29	110	120.0	-189889.0	-421.0	220141.0
28	17	50	29	125	121.0	-193591.0	-444.0	220286.0
28	17	50	29	126	122.0	-196756.0	-456.0	220634.0
28	17	50	29	127	123.0	-199814.0	-442.0	220749.0
28	17	50	29	128	124.0	-202651.0	-438.0	220714.0
28	17	50	29	128	125.0	-205748.0	-439.0	220948.0
28	17	50	29	129	126.0	-208049.0	-433.0	221222.0
28	17	50	29	130	127.0	-211036.0	-438.0	221058.0
28	17	50	29	131	128.0	-212912.0	-432.0	220264.0
28	17	50	29	131	129.0	-214559.0	-429.0	220336.0
28	17	50	29	132	130.0	-216247.0	-432.0	220642.0
28	17	50	29	147	131.0	-217590.0	-414.0	221144.0
28	17	50	29	148	132.0	-218447.0	-423.0	221542.0
28	17	50	29	149	133.0	-219129.0	-435.0	221342.0
28	17	50	29	149	134.0	-219163.0	-452.0	221230.0
28	17	50	29	150	135.0	-218842.0	-461.0	221128.0
28	17	50	29	151	136.0	-216723.0	-462.0	220991.0
28	17	50	29	170	137.0	-214092.0	-469.0	220503.0
28	17	50	29	171	138.0	-210712.0	-447.0	220820.0
28	17	50	29	172	139.0	-207324.0	-471.0	221286.0
28	17	50	29	172	140.0	-203981.0	-464.0	221327.0
28	17	50	29	173	141.0	-200690.0	-456.0	222188.0
28	17	50	29	174	142.0	-197269.0	-449.0	222466.0
28	17	50	29	174	143.0	-194452.0	-464.0	221794.0
28	17	50	29	175	144.0	-191897.0	-462.0	221673.0
28	17	50	29	176	145.0	-189479.0	-462.0	221809.0
28	17	50	29	176	146.0	-187836.0	-468.0	222593.0
28	17	50	29	177	147.0	-187112.0	-495.0	222684.0
28	17	50	29	177	148.0	-186220.0	-511.0	220821.0
28	17	50	29	178	149.0	-186461.0	-524.0	220158.0
28	17	50	29	179	150.0	-187271.0	-542.0	222221.0
28	17	50	29	179	151.0	-188064.0	-567.0	222170.0
28	17	50	29	216	152.0	-190056.0	-595.0	222601.0
28	17	50	29	217	153.0	-192727.0	-595.0	223221.0
28	17	50	29	218	154.0	-195090.0	-601.0	223120.0
28	17	50	29	218	155.0	-198376.0	-614.0	222073.0
28	17	50	29	219	156.0	-201049.0	-626.0	222032.0
28	17	50	29	220	157.0	-203636.0	-632.0	222340.0
28	17	50	29	221	158.0	-205672.0	-636.0	221903.0
28	17	50	29	221	159.0	-207855.0	-644.0	222406.0
28	17	50	29	222	160.0	-209622.0	-641.0	222483.0
28	17	50	29	223	161.0	-212361.0	-648.0	221444.0
28	17	50	29	224	162.0	-213951.0	-671.0	221255.0
28	17	50	29	224	163.0	-215414.0	-676.0	222676.0
28	17	50	29	225	164.0	-217372.0	-694.0	223376.0
28	17	50	29	226	165.0	-218968.0	-711.0	222819.0
28	17	50	29	226	166.0	-220077.0	-721.0	223135.0
28	17	50	29	227	167.0	-221459.0	-747.0	223475.0
28	17	50	29	227	173.0	-220244.0	-802.0	223224.0
28	17	50	29	228	174.0	-219239.0	-806.0	223389.0
28	17	50	29	229	175.0	-217589.0	-771.0	223515.0
28	17	50	29	229	176.0	-215612.0	-789.0	223216.0
28	17	50	29	230	177.0	-213294.0	-790.0	222709.0
28	17	50	29	231	178.0	-210597.0	-782.0	222024.0
28	17	50	29	231	179.0	-207414.0	-752.0	222653.0
28	17	50	29	232	180.0	-204203.0	-756.0	222780.0
28	17	50	29	233	181.0	-201866.0	-775.0	222287.0
28	17	50	29	245	182.0	-199661.0	-783.0	222420.0
28	17	50	29	246	183.0	-197631.0	-799.0	222408.0
28	17	50	29	247	184.0	-196142.0	-792.0	221037.0
28	17	50	29	248	185.0	-194748.0	-801.0	221691.0
28	17	50	29	249	186.0	-193861.0	-796.0	222521.0
28	17	50	29	249	187.0	-193117.0	-786.0	221826.0
28	17	50	29	250	188.0	-192756.0	-787.0	220714.0
28	17	50	29	251	189.0	-192419.0	-794.0	220831.0
28	17	50	29	271	190.0	-191854.0	-795.0	220960.0
28	17	50	29	271	191.0	-190984.0	-758.0	220817.0
28	17	50	29	272	192.0	-190100.0	-741.0	219983.0
28	17	50	29	273	193.0	-189227.0	-745.0	219415.0
28	17	50	29	273	194.0	-188149.0	-743.0	220473.0
28	17	50	29	274	195.0	-187702.0	-727.0	221353.0
28	17	50	29	274	196.0	-187409.0	-761.0	221105.0
28	17	50	29	295	197.0	-186850.0	-774.0	221088.0
28	17	50	29	296	198.0	-186749.0	-764.0	221235.0
28	17	50	29	297	199.0	-187572.0	-748.0	221481.0
28	17	50	29	297	200.0	-188337.0	-753.0	220859.0
28	17	50	29	298	201.0	-188356.0	-766.0	218981.0
28	17	50	29	298	202.0	-188329.0	-762.0	219089.0
28	17	50	29	299	203.0	-188214.0	-758.0	220122.0
28	17	50	29	299	204.0	-188229.0	-761.0	220791.0
28	17	50	29	300	205.0	-188684.0	-751.0	220939.0
28	17	50	29	300	206.0	-189093.0	-767.0	220544.0
28	17	50	29	301	207.0	-189168.0	-814.0	220289.0
28	17	50	29	301	208.0	-189233.0	-796.0	219294.0
28	17	50	29	302	209.0	-189564.0	-813.0	218676.0
28	17	50	29	302	210.0	-189359.0	-832.0	218813.0
28	17	50	29	303	211.0	-189052.0	-863.0	219606.0
28	17	50	29	303	212.0	-189124.0	-885.0	220796.0
28	17	50	29	320	213.0	-190371.0	-920.0	224381.0
28	17	50	29	321	214.0	-192370.0	-957.0	226797.0
28	17	50	29	322	215.0	-194398.0	-979.0	228256.0
28	17	50	29	322	216.0	-196074.0	-1029.0	230710.0
28	17	50	29	323	217.0	-198331.0	-1056.0	233007.0
28	17	50	29	323	218.0	-200661.0	-1091.0	234287.0
28	17	50	29	324	219.0	-202125.0	-1149.0	236371.0
28	17	50	29	325	220.0	-203357.0	-1190.0	240741.0
28	17	50	29	325	221.0	-204235.0	-1226.0	243308.0
28	17	50	29	326	222.0	-204607.0	-1248.0	245283.0
28	17	50	29	326	223.0	-204273.0	-1283.0	244149.0
28	17	50	29	327	224.0	-203381.0	-1310.0	236990.0
28	17	50	29	327	225.0	-202391.0	-1324.0	231787.0
28	17	50	29	328	226.0	-201927.0	-1337.0	230491.0
28	17	50	29	329	227.0	-202262.0	-1360.0	230039.0
28	17	50	29	329	228.0	-202679.0	-1358.0	229467.0
28	17	50	29	330	229.0	-203522.0	-1390.0	227783.0
28	17	50	29	341	230.0	-204971.0	-1401.0	225609.0
28	17	50	29	342	231.0	-206339.0	-1407.0	225412.0
28	17	50	29	342	232.0	-207885.0	-1409.0	225499.0
28	17	50	29	365	233.0	-209146.0	-1433.0	224851.0
28	17	50	29	366	234.0	-210262.0	-1439.0	224009.0
28	17	50	29	366	235.0	-211362.0	-1439.0	223948.0
28	17	50	29	367	236.0	-211889.0	-1473.0	224152.0
28	17	50	29	367	237.0	-211927.0	-1496.0	223156.0
28	17	50	29	368	238.0	-211539.0	-1514.0	222994.0
28	17	50	29	369	239.0	-210651.0	-1528.0	222797.0
28	17	50	29	369	240.0	-209804.0	-1551.0	222609.0
28	17	50	29	370	241.0	-208722.0	-1554.0	223085.0
28	17	50	29	370	242.0	-207320.0	-1554.0	222615.0
28	17	50	29	371	243.0	-205715.0	-1586.0	222536.0
28	17	50	29	372	244.0	-203656.0	-1600.0	222916.0
28	17	50	29	372	245.0	-201415.0	-1617.0	222466.0
28	17	50	29	373	246.0	-199354.0	-1643.0	222146.0
28	17	50	29	373	247.0	-197102.0	-1661.0	222558.0
28	17	50	29	374	248.0	-194972.0	-1678.0	222753.0
28	17	50	29	374	249.0	-192916.0	-1679.0	222889.0
28	17	50	29	375	250.0	-190511.0	-1689.0	223120.0
28	17	50	29	376	251.0	-187964.0	-1686.0	223391.0
28	17	50	29	376	252.0	-185160.0	-1672.0	222060.0
28	17	50	29	388	253.0	-182218.0	-1674.0	221364.0
28	17	50	29	389	254.0	-179136.0	-1685.0	222016.0
28	17	50	29	389	255.0	-176352.0	-1684.0	221554.0
28	17	50	29	411	0.0	-174471.0	-1691.0	221168.0
28	17	50	29	412	1.0	-173282.0	-1682.0	221799.0
28	17	50	29	412	2.0	-171752.0	-1670.0	223587.0
28	17	50	29	413	3.0	-170656.0	-1670.0	223896.0
28	17	50	29	413	4.0	-170447.0	-1687.0	223775.0
28	17	50	29	414	5.0	-170646.0	-1698.0	221521.0
28	17	50	29	414	6.0	-170292.0	-1704.0	217386.0
28	17	50	29	415	7.0	-169650.0	-1689.0	213638.0
28	17	50	29	415	8.0	-168959.0	-1691.0	209379.0
28	17	50	29	434	9.0	-167477.0	-1678.0	204202.0
28	17	50	29	434	10.0	-165328.0	-1662.0	194431.0
28	17	50	29	435	11.0	-163049.0	-1649.0	185103.0
28	17	50	29	436	12.0	-160471.0	-1647.0	180559.0
28	17	50	29	436	13.0	-157792.0	-1655.0	179220.0
28	17	50	29	437	14.0	-155577.0	-1651.0	179298.0
28	17	50	29	438	15.0	-153847.0	-1641.0	182434.0
28	17	50	29	438	16.0	-152967.0	-1647.0	185246.0
28	17	50	29	439	17.0	-153124.0	-1652.0	192103.0
28	17	50	29	440	18.0	-154312.0	-1652.0	210353.0
28	17	50	29	440	19.0	-155929.0	-1652.0	230933.0
28	17	50	29	441	20.0	-157611.0	-1638.0	241393.0
28	17	50	29	441	21.0	-159827.0	-1626.0	240971.0
28	17	50	29	442	22.0	-163052.0	-1630.0	239473.0
28	17	50	29	442	23.0	-168030.0	-1658.0	237913.0
28	17	50	29	443	24.0	-175298.0	-1651.0	234986.0
28	17	50	29	443	25.0	-184129.0	-1653.0	231570.0
28	17	50	29	444	26.0	-193203.0	-1662.0	229394.0
28	17	50	29	457	27.0	-201576.0	-1674.0	228089.0
28	17	50	29	458	28.0	-208426.0	-1657.0	226328.0
28	17	50	29	458	29.0	-213959.0	-1662.0	226113.0
28	17	50	29	459	30.0	-218522.0	-1676.0	225541.0
28	17	50	29	459	31.0	-221171.0	-1691.0	224918.0
28	17	50	29	460	32.0	-220289.0	-1705.0	224646.0
28	17	50	29	461	33.0	-213034.0	-1722.0	224001.0
28	17	50	29	461	34.0	-198198.0	-1727.0	223441.0
28	17	50	29	462	35.0	-175021.0	-1729.0	223525.0
28	17	50	29	462	36.0	-147046.0	-1721.0	223939.0
28	17	50	29	463	37.0	-120139.0	-1714.0	223786.0
28	17	50	29	464	38.0	-102297.0	-1717.0	224094.0
28	17	50	29	464	39.0	-98392.0	-1711.0	224514.0
28	17	50	29	465	40.0	-107626.0	-1682.0	224063.0
28	17	50	29	480	41.0	-129297.0	-1679.0	223983.0
28	17	50	29	481	42.0	-159659.0	-1683.0	223599.0
28	17	50	29	482	43.0	-193514.0	-1664.0	223120.0
28	17	50	29	482	44.0	-220248.0	-1677.0	222322.0
28	17	50	29	503	45.0	-236786.0	-1682.0	221048.0
28	17	50	29	503	46.0	-250434.0	-1682.0	219989.0
28	17	50	29	504	47.0	-257091.0	-1696.0	219733.0
28	17	50	29	505	48.0	-255491.0	-1741.0	219666.0
28	17	50	29	505	49.0	-252957.0	-1760.0	219969.0
28	17	50	29	506	50.0	-248567.0	-1764.0	218906.0
28	17	50	29	506	51.0	-238957.0	-1795.0	218083.0
28	17	50	29	507	52.0	-228462.0	-1826.0	217279.0
28	17	50	29	507	53.0	-224731.0	-1858.0	216338.0
28	17	50	29	508	54.0	-225486.0	-1889.0	214995.0
28	17	50	29	508	55.0	-225026.0	-1897.0	214256.0
28	17	50	29	509	56.0	-221278.0	-1924.0	213584.0
28	17	50	29	509	57.0	-214182.0	-1951.0	212783.0
28	17	50	29	531	58.0	-202682.0	-1972.0	211569.0
28	17	50	29	531	59.0	-188919.0	-1985.0	211957.0
28	17	50	29	532	60.0	-177184.0	-1989.0	213880.0
28	17	50	29	533	61.0	-169569.0	-1997.0	214779.0
28	17	50	29	533	62.0	-165164.0	-1996.0	215208.0
28	17	50	29	534	63.0	-162226.0	-1989.0	214698.0
28	17	50	29	534	64.0	-160289.0	-2009.0	214429.0
28	17	50	29	535	65.0	-160264.0	-2026.0	215743.0
28	17	50	29	536	66.0	-161886.0	-2026.0	216556.0
28	17	50	29	536	67.0	-165604.0	-2041.0	217417.0
28	17	50	29	537	68.0	-171642.0	-2069.0	217529.0
28	17	50	29	537	69.0	-179436.0	-2074.0	217206.0
28	17	50	29	538	70.0	-187252.0	-2075.0	216716.0
28	17	50	29	538	71.0	-194203.0	-2096.0	215862.0
28	17	50	29	539	72.0	-200357.0	-2121.0	216106.0
28	17	50	29	540	74.0	-209874.0	-2171.0	216813.0
28	17	50	29	540	75.0	-213297.0	-2177.0	216806.0
28	17	50	29	541	76.0	-215038.0	-2171.0	217573.0
28	17	50	29	541	77.0	-215076.0	-2171.0	218183.0
28	17	50	29	552	78.0	-213366.0	-2163.0	218724.0
28	17	50	29	553	79.0	-210018.0	-2148.0	218588.0
28	17	50	29	553	80.0	-205739.0	-2141.0	218640.0
28	17	50	29	554	81.0	-200581.0	-2151.0	218774.0
28	17	50	29	554	82.0	-195056.0	-2149.0	219544.0
28	17	50	29	575	83.0	-188902.0	-2142.0	219874.0
28	17	50	29	575	84.0	-182146.0	-2121.0	219834.0
28	17	50	29	576	85.0	-174851.0	-2130.0	220519.0
28	17	50	29	577	86.0	-167992.0	-2135.0	220040.0
28	17	50	29	577	87.0	-162052.0	-2130.0	219854.0
28	17	50	29	578	88.0	-156717.0	-2126.0	220159.0
28	17	50	29	578	89.0	-152278.0	-2137.0	219029.0
28	17	50	29	579	90.0	-149987.0	-2149.0	218708.0
28	17	50	29	579	91.0	-149822.0	-2145.0	219303.0
28	17	50	29	580	92.0	-151109.0	-2126.0	220447.0
28	17	50	29	581	93.0	-153826.0	-2133.0	220989.0
28	17	50	29	581	94.0	-157894.0	-2159.0	221268.0
28	17	50	29	582	95.0	-162979.0	-2170.0	220808.0
28	17	50	29	582	96.0	-167952.0	-2179.0	220828.0
28	17	50	29	583	97.0	-172847.0	-2187.0	221337.0
28	17	50	29	598	98.0	-178079.0	-2187.0	221786.0
28	17	50	29	598	99.0	-183197.0	-2189.0	220643.0
28	17	50	29	599	100.0	-187993.0	-2211.0	220338.0
28	17	50	29	599	101.0	-192385.0	-2238.0	220056.0
28	17	50	29	600	102.0	-195952.0	-2265.0	219366.0
28	17	50	29	600	103.0	-198792.0	-2294.0	218708.0
28	17	50	29	601	104.0	-200821.0	-2322.0	218618.0
28	17	50	29	601	105.0	-202010.0	-2357.0	219218.0
28	17	50	29	650	106.0	-202634.0	-2364.0	218124.0
28	17	50	29	650	107.0	-202452.0	-2359.0	217723.0
28	17	50	29	651	108.0	-202557.0	-2342.0	216981.0
28	17	50	29	652	109.0	-202938.0	-2322.0	215711.0
28	17	50	29	653	110.0	-202884.0	-2334.0	215893.0
28	17	50	29	653	111.0	-202732.0	-2321.0	215880.0
28	17	50	29	654	112.0	-202920.0	-2314.0	215295.0
28	17	50	29	655	113.0	-203002.0	-2307.0	215069.0
28	17	50	29	655	114.0	-203111.0	-2300.0	214271.0
28	17	50	29	656	115.0	-202864.0	-2288.0	213008.0
28	17	50	29	656	116.0	-202421.0	-2286.0	212568.0
28	17	50	29	657	117.0	-201429.0	-2297.0	212802.0
28	17	50	29	658	118.0	-199472.0	-2283.0	212921.0
28	17	50	29	658	119.0	-197876.0	-2288.0	213471.0
28	17	50	29	659	120.0	-196404.0	-2251.0	212623.0
28	17	50	29	659	134.0	-177899.0	-2101.0	209897.0
28	17	50	29	660	135.0	-177564.0	-2095.0	210393.0
28	17	50	29	661	136.0	-177113.0	-2084.0	210888.0
28	17	50	29	661	137.0	-176904.0	-2087.0	210510.0
28	17	50	29	669	138.0	-176387.0	-2080.0	210669.0
28	17	50	29	670	139.0	-175798.0	-2047.0	211348.0
28	17	50	29	670	140.0	-175230.0	-2021.0	211587.0
28	17	50	29	671	141.0	-174091.0	-1991.0	212637.0
28	17	50	29	693	142.0	-173829.0	-1971.0	212428.0
28	17	50	29	693	143.0	-173686.0	-1974.0	212436.0
28	17	50	29	694	144.0	-173259.0	-1936.0	214506.0
28	17	50	29	694	145.0	-172814.0	-1906.0	215279.0
28	17	50	29	695	146.0	-172780.0	-1882.0	214671.0
28	17	50	29	696	147.0	-173776.0	-1831.0	214841.0
28	17	50	29	696	148.0	-174507.0	-1796.0	215724.0
28	17	50	29	697	149.0	-175647.0	-1752.0	216493.0
28	17	50	29	697	150.0	-177882.0	-1725.0	216844.0
28	17	50	29	698	151.0	-180737.0	-1682.0	217022.0
28	17	50	29	698	152.0	-185168.0	-1652.0	217357.0
28	17	50	29	699	153.0	-190540.0	-1602.0	217620.0
28	17	50	29	699	154.0	-196696.0	-1561.0	218034.0
28	17	50	29	700	155.0	-203755.0	-1522.0	218249.0
28	17	50	29	701	156.0	-211439.0	-1471.0	217360.0
28	17	50	29	701	157.0	-219536.0	-1426.0	216198.0
28	17	50	29	715	158.0	-226951.0	-1355.0	216231.0
28	17	50	29	716	159.0	-234151.0	-1289.0	217177.0
28	17	50	29	717	160.0	-240437.0	-1234.0	217899.0
28	17	50	29	717	161.0	-245268.0	-1189.0	218453.0
28	17	50	29	718	162.0	-248159.0	-1164.0	218851.0
28	17	50	29	718	163.0	-248818.0	-1139.0	220942.0
28	17	50	29	719	164.0	-246744.0	-1102.0	221868.0
28	17	50	29	719	165.0	-241866.0	-1052.0	222018.0
28	17	50	29	739	166.0	-233352.0	-1024.0	221838.0
28	17	50	29	739	167.0	-217289.0	-997.0	221524.0
28	17	50	29	740	168.0	-192761.0	-967.0	221837.0
28	17	50	29	741	169.0	-166887.0	-951.0	221345.0
28	17	50	29	741	170.0	-152380.0	-942.0	221581.0
28	17	50	29	742	171.0	-157994.0	-919.0	221580.0
28	17	50	29	742	172.0	-175451.0	-882.0	221931.0
28	17	50	29	762	173.0	-194270.0	-869.0	222757.0
28	17	50	29	763	174.0	-208578.0	-844.0	222991.0
28	17	50	29	785	175.0	-217274.0	-842.0	221726.0
28	17	50	29	786	176.0	-223403.0	-801.0	220579.0
28	17	50	29	786	177.0	-232430.0	-766.0	221019.0
28	17	50	29	787	178.0	-238600.0	-753.0	221983.0
28	17	50	29	787	179.0	-240272.0	-736.0	222773.0
28	17	50	29	788	180.0	-238896.0	-737.0	222478.0
28	17	50	29	788	181.0	-235486.0	-732.0	220974.0
28	17	50	29	789	182.0	-231134.0	-726.0	220032.0
28	17	50	29	790	183.0	-227716.0	-729.0	219259.0
28	17	50	29	790	184.0	-224207.0	-698.0	219218.0
28	17	50	29	791	185.0	-221064.0	-656.0	219622.0
28	17	50	29	791	186.0	-219311.0	-627.0	219461.0
28	17	50	29	792	187.0	-218721.0	-627.0	219258.0
28	17	50	29	792	188.0	-218574.0	-584.0	219381.0
28	17	50	29	793	189.0	-218686.0	-530.0	219044.0
28	17	50	29	794	190.0	-217788.0	-507.0	219271.0
28	17	50	29	794	194.0	-190382.0	-395.0	221944.0
28	17	50	29	795	195.0	-178556.0	-365.0	223103.0
28	17	50	29	795	196.0	-168896.0	-347.0	222394.0
28	17	50	29	796	197.0	-163022.0	-315.0	222527.0
28	17	50	29	796	198.0	-160562.0	-284.0	223741.0
28	17	50	29	797	199.0	-162677.0	-271.0	223584.0
28	17	50	29	798	200.0	-168317.0	-259.0	222493.0
28	17	50	29	798	201.0	-175643.0	-237.0	221982.0
28	17	50	29	799	202.0	-184431.0	-226.0	221829.0
28	17	50	29	800	203.0	-193088.0	-226.0	222916.0
28	17	50	29	800	204.0	-199926.0	-202.0	223373.0
28	17	50	29	801	205.0	-204280.0	-198.0	223466.0
28	17	50	29	802	206.0	-207016.0	-210.0	223429.0
28	17	50	29	803	207.0	-208789.0	-206.0	223625.0
28	17	50	29	803	208.0	-209038.0	-194.0	223590.0
28	17	50	29	804	209.0	-207885.0	-198.0	223583.0
28	17	50	29	804	210.0	-206176.0	-167.0	223799.0
28	17	50	29	815	211.0	-203929.0	-134.0	222771.0
28	17	50	29	816	212.0	-201337.0	-117.0	222223.0
28	17	50	29	817	213.0	-198947.0	-89.0	222066.0
28	17	50	29	817	214.0	-196871.0	-79.0	221108.0
28	17	50	29	818	215.0	-195516.0	-86.0	221151.0
28	17	50	29	818	216.0	-195042.0	-81.0	221161.0
28	17	50	29	819	217.0	-195534.0	-100.0	221074.0
28	17	50	29	835	218.0	-196322.0	-84.0	219563.0
28	17	50	29	836	219.0	-198014.0	-81.0	218541.0
28	17	50	29	837	220.0	-200702.0	-72.0	218281.0
28	17	50	29	837	221.0	-204417.0	-90.0	217907.0
28	17	50	29	838	222.0	-208599.0	-93.0	218681.0
28	17	50	29	838	223.0	-212994.0	-99.0	219074.0
28	17	50	29	839	224.0	-217495.0	-124.0	218237.0
28	17	50	29	839	225.0	-221775.0	-127.0	218761.0
28	17	50	29	858	226.0	-224921.0	-117.0	219901.0
28	17	50	29	859	227.0	-227109.0	-126.0	220452.0
28	17	50	29	859	228.0	-228727.0	-150.0	220049.0
28	17	50	29	860	229.0	-229011.0	-153.0	219875.0
28	17	50	29	860	230.0	-228260.0	-149.0	220058.0
28	17	50	29	861	231.0	-227140.0	-164.0	219435.0
28	17	50	29	862	232.0	-225829.0	-179.0	219227.0
28	17	50	29	880	233.0	-223962.0	-192.0	218908.0
28	17	50	29	881	234.0	-221911.0	-221.0	218821.0
28	17	50	29	882	235.0	-219247.0	-248.0	219041.0
28	17	50	29	882	236.0	-216782.0	-277.0	219003.0
28	17	50	29	883	237.0	-214929.0	-320.0	219735.0
28	17	50	29	884	238.0	-212693.0	-347.0	219961.0
28	17	50	29	884	239.0	-210453.0	-396.0	219903.0
28	17	50	29	885	240.0	-208520.0	-398.0	219068.0
28	17	50	29	885	241.0	-206806.0	-402.0	217871.0
28	17	50	29	886	242.0	-204606.0	-425.0	219052.0
28	17	50	29	887	243.0	-203027.0	-433.0	220191.0
28	17	50	29	887	244.0	-201812.0	-439.0	221011.0
28	17	50	29	888	245.0	-201074.0	-451.0	220854.0
28	17	50	29	888	246.0	-201036.0	-467.0	220377.0
28	17	50	29	889	247.0	-201652.0	-492.0	218803.0
28	17	50	29	890	248.0	-202744.0	-507.0	217855.0
28	17	50	29	890	249.0	-204442.0	-516.0	218228.0
28	17	50	29	891	250.0	-207010.0	-547.0	218976.0
28	17	50	29	891	251.0	-209672.0	-559.0	218269.0
28	17	50	29	892	252.0	-211632.0	-574.0	217378.0
28	17	50	29	892	253.0	-213581.0	-588.0	218141.0
28	17	50	29	905	254.0	-215712.0	-621.0	218199.0
28	17	50	29	906	255.0	-217834.0	-676.0	217701.0
28	17	50	29	906	0.0	-220337.0	-684.0	217503.0
28	17	50	29	907	1.0	-223017.0	-701.0	217213.0
28	17	50	29	908	2.0	-226116.0	-732.0	216968.0
28	17	50	29	908	3.0	-229257.0	-739.0	216734.0
28	17	50	29	909	4.0	-231381.0	-768.0	216976.0
28	17	50	29	910	5.0	-233357.0	-792.0	216951.0
28	17	50	29	910	6.0	-235303.0	-808.0	216514.0
28	17	50	29	911	7.0	-236504.0	-820.0	216443.0
28	17	50	29	928	8.0	-237951.0	-842.0	217234.0
28	17	50	29	929	9.0	-238996.0	-852.0	217928.0
28	17	50	29	929	10.0	-238792.0	-893.0	217319.0
28	17	50	29	930	11.0	-238274.0	-936.0	216438.0
28	17	50	29	931	12.0	-237212.0	-967.0	216581.0
28	17	50	29	931	13.0	-235424.0	-975.0	216859.0
28	17	50	29	951	14.0	-233706.0	-989.0	217434.0
28	17	50	29	951	15.0	-232401.0	-994.0	217285.0
28	17	50	29	952	16.0	-231229.0	-1007.0	217767.0
28	17	50	29	953	17.0	-229611.0	-1027.0	217374.0
28	17	50	29	980	18.0	-228331.0	-1038.0	216783.0
28	17	50	29	981	19.0	-226956.0	-1059.0	216457.0
28	17	50	29	982	20.0	-225372.0	-1062.0	216708.0
28	17	50	29	982	21.0	-223987.0	-1067.0	217647.0
28	17	50	29	983	22.0	-221824.0	-1086.0	217865.0
28	17	50	29	983	23.0	-220162.0	-1091.0	217393.0
28	17	50	29	984	24.0	-218811.0	-1089.0	216669.0
28	17	50	29	985	25.0	-217113.0	-1097.0	216386.0
28	17	50	29	985	26.0	-215858.0	-1090.0	216191.0
28	17	50	29	986	27.0	-215192.0	-1106.0	215992.0
28	17	50	29	987	28.0	-215128.0	-1126.0	215658.0
28	17	50	29	987	29.0	-214679.0	-1130.0	213955.0
28	17	50	29	988	30.0	-213716.0	-1157.0	211926.0
28	17	50	29	989	31.0	-212399.0	-1178.0	210684.0
28	17	50	29	989	32.0	-211482.0	-1194.0	209362.0
28	17	50	29	990	33.0	-211644.0	-1191.0	208321.0
28	17	50	29	991	43.0	-216638.0	-1183.0	203591.0
28	17	50	29	991	44.0	-220516.0	-1169.0	203262.0
28	17	50	29	992	45.0	-224552.0	-1176.0	202804.0
28	17	50	30	0	46.0	-227664.0	-1191.0	200378.0
28	17	50	30	0	47.0	-228262.0	-1191.0	200503.0
28	17	50	30	1	48.0	-227391.0	-1224.0	201432.0
28	17	50	30	2	49.0	-225264.0	-1221.0	201183.0
28	17	50	30	2	50.0	-222356.0	-1207.0	201558.0
28	17	50	30	23	51.0	-219297.0	-1213.0	201268.0
28	17	50	30	24	52.0	-216102.0	-1207.0	200020.0
28	17	50	30	25	53.0	-212585.0	-1196.0	198019.0
28	17	50	30	25	54.0	-208592.0	-1202.0	197283.0
28	17	50	30	26	55.0	-204416.0	-1221.0	197546.0
28	17	50	30	27	56.0	-200395.0	-1237.0	197454.0
28	17	50	30	27	57.0	-196822.0	-1246.0	196568.0
28	17	50	30	28	58.0	-194187.0	-1269.0	196220.0
28	17	50	30	28	59.0	-192232.0	-1271.0	196872.0
28	17	50	30	29	60.0	-190715.0	-1281.0	196494.0
28	17	50	30	30	61.0	-189726.0	-1282.0	195691.0
28	17	50	30	30	62.0	-189526.0	-1289.0	195188.0
28	17	50	30	31	63.0	-189836.0	-1312.0	194988.0
28	17	50	30	31	64.0	-190094.0	-1330.0	195509.0
28	17	50	30	32	65.0	-190297.0	-1372.0	195895.0
28	17	50	30	32	66.0	-190532.0	-1399.0	195989.0
28	17	50	30	46	67.0	-190892.0	-1401.0	196132.0
28	17	50	30	47	68.0	-191586.0	-1422.0	196394.0
28	17	50	30	47	69.0	-191904.0	-1432.0	196170.0
28	17	50	30	48	70.0	-192227.0	-1447.0	196228.0
28	17	50	30	48	71.0	-193543.0	-1481.0	195960.0
28	17	50	30	49	72.0	-194659.0	-1512.0	195943.0
28	17	50	30	50	73.0	-195499.0	-1521.0	195979.0
28	17	50	30	50	74.0	-196547.0	-1544.0	195528.0
28	17	50	30	71	75.0	-197532.0	-1549.0	196370.0
28	17	50	30	72	76.0	-198226.0	-1537.0	196341.0
28	17	50	30	72	77.0	-199223.0	-1527.0	195823.0
28	17	50	30	73	78.0	-199721.0	-1549.0	195722.0
28	17	50	30	73	79.0	-200119.0	-1557.0	195798.0
28	17	50	30	74	80.0	-201049.0	-1572.0	195273.0
28	17	50	30	74	81.0	-201526.0	-1586.0	194576.0
28	17	50	30	75	82.0	-201430.0	-1586.0	194784.0
28	17	50	30	100	83.0	-201224.0	-1582.0	194923.0
28	17	50	30	101	84.0	-200817.0	-1589.0	194187.0
28	17	50	30	102	85.0	-200585.0	-1619.0	193538.0
28	17	50	30	102	86.0	-200481.0	-1629.0	194903.0
28	17	50	30	103	87.0	-200802.0	-1642.0	195321.0
28	17	50	30	103	88.0	-201398.0	-1648.0	195866.0
28	17	50	30	104	89.0	-201940.0	-1653.0	196667.0
28	17	50	30	104	90.0	-202775.0	-1647.0	196452.0
28	17	50	30	105	91.0	-203601.0	-1659.0	195924.0
28	17	50	30	105	92.0	-204417.0	-1665.0	195669.0
28	17	50	30	106	93.0	-204903.0	-1695.0	195593.0
28	17	50	30	107	94.0	-205431.0	-1707.0	195413.0
28	17	50	30	107	95.0	-206055.0	-1734.0	195479.0
28	17	50	30	108	96.0	-206078.0	-1743.0	195912.0
28	17	50	30	108	97.0	-206479.0	-1779.0	196339.0
28	17	50	30	109	98.0	-206787.0	-1819.0	196272.0
28	17	50	30	110	103.0	-204699.0	-2016.0	195284.0
28	17	50	30	110	104.0	-203598.0	-2037.0	194734.0
28	17	50	30	111	105.0	-202579.0	-2042.0	194805.0
28	17	50	30	130	106.0	-201702.0	-2077.0	195479.0
28	17	50	30	131	107.0	-200182.0	-2107.0	195733.0
28	17	50	30	132	108.0	-198033.0	-2121.0	194081.0
28	17	50	30	132	109.0	-195623.0	-2136.0	194028.0
28	17	50	30	133	110.0	-192722.0	-2176.0	195860.0
28	17	50	30	134	111.0	-189213.0	-2226.0	197701.0
28	17	50	30	134	112.0	-185319.0	-2246.0	198741.0
28	17	50	30	135	113.0	-181359.0	-2264.0	199421.0
28	17	50	30	136	114.0	-177642.0	-2266.0	198919.0
28	17	50	30	136	115.0	-174484.0	-2289.0	198458.0
28	17	50	30	137	116.0	-171158.0	-2321.0	197640.0
28	17	50	30	137	117.0	-168659.0	-2352.0	195561.0
28	17	50	30	138	118.0	-167222.0	-2370.0	193085.0
28	17	50	30	139	119.0	-165907.0	-2385.0	188906.0
28	17	50	30	146	120.0	-164864.0	-2396.0	184950.0
28	17	50	30	147	121.0	-163477.0	-2410.0	178257.0
28	17	50	30	148	122.0	-161899.0	-2448.0	168258.0
28	17	50	30	148	123.0	-160186.0	-2451.0	159287.0
28	17	50	30	149	124.0	-157972.0	-2463.0	154051.0
28	17	50	30	149	125.0	-155677.0	-2486.0	151926.0
28	17	50	30	175	126.0	-153939.0	-2526.0	149756.0
28	17	50	30	176	127.0	-152962.0	-2542.0	151137.0
28	17	50	30	177	128.0	-152301.0	-2556.0	152930.0
28	17	50	30	177	129.0	-152069.0	-2572.0	158388.0
28	17	50	30	178	130.0	-152187.0	-2582.0	177564.0
28	17	50	30	194	131.0	-153210.0	-2601.0	199846.0
28	17	50	30	195	132.0	-155004.0	-2609.0	212286.0
28	17	50	30	196	133.0	-157752.0	-2607.0	212153.0
28	17	50	30	196	134.0	-162345.0	-2616.0	210523.0
28	17	50	30	197	135.0	-169414.0	-2624.0	210359.0
28	17	50	30	218	136.0	-178685.0	-2655.0	212513.0
28	17	50	30	219	137.0	-189031.0	-2667.0	211619.0
28	17	50	30	219	138.0	-199736.0	-2690.0	210359.0
28	17	50	30	220	139.0	-209837.0	-2716.0	209576.0
28	17	50	30	221	140.0	-218345.0	-2719.0	208090.0
28	17	50	30	221	141.0	-224886.0	-2741.0	207266.0
28	17	50	30	222	142.0	-229459.0	-2756.0	206280.0
28	17	50	30	222	143.0	-232349.0	-2736.0	205188.0
28	17	50	30	223	144.0	-231419.0	-2744.0	203880.0
28	17	50	30	223	145.0	-223709.0	-2756.0	201624.0
28	17	50	30	224	147.0	-186552.0	-2784.0	204048.0
28	17	50	30	225	148.0	-160802.0	-2818.0	204079.0
28	17	50	30	225	149.0	-139427.0	-2836.0	203993.0
28	17	50	30	226	150.0	-128527.0	-2835.0	203684.0
28	17	50	30	226	151.0	-130700.0	-2841.0	204050.0
28	17	50	30	227	152.0	-145164.0	-2871.0	203606.0
28	17	50	30	227	155.0	-225077.0	-2934.0	204998.0
28	17	50	30	228	156.0	-246197.0	-2947.0	204473.0
28	17	50	30	228	157.0	-263196.0	-2956.0	204253.0
28	17	50	30	229	158.0	-275517.0	-2967.0	204303.0
28	17	50	30	229	159.0	-274815.0	-2970.0	203980.0
28	17	50	30	230	160.0	-264176.0	-2991.0	203576.0
28	17	50	30	231	161.0	-252356.0	-3000.0	202736.0
28	17	50	30	231	162.0	-240359.0	-2980.0	202776.0
28	17	50	30	232	163.0	-228115.0	-2981.0	203160.0
28	17	50	30	241	164.0	-218684.0	-2966.0	202042.0
28	17	50	30	241	165.0	-213241.0	-2962.0	202829.0
28	17	50	30	242	166.0	-210186.0	-2974.0	203149.0
28	17	50	30	242	167.0	-207249.0	-2987.0	202466.0
28	17	50	30	243	168.0	-203562.0	-2989.0	201558.0
28	17	50	30	244	169.0	-198737.0	-2999.0	201058.0
28	17	50	30	244	170.0	-192861.0	-3017.0	200948.0
28	17	50	30	245	171.0	-186756.0	-3030.0	200688.0
28	17	50	30	264	172.0	-180937.0	-3035.0	200097.0
28	17	50	30	264	173.0	-176250.0	-3036.0	199706.0
28	17	50	30	265	174.0	-173206.0	-3052.0	199064.0
28	17	50	30	266	175.0	-170811.0	-3072.0	199050.0
28	17	50	30	266	176.0	-168722.0	-3074.0	199066.0
28	17	50	30	267	177.0	-166786.0	-3061.0	198826.0
28	17	50	30	267	178.0	-166865.0	-3068.0	198227.0
28	17	50	30	268	179.0	-169669.0	-3053.0	197455.0
28	17	50	30	268	180.0	-175001.0	-3048.0	197404.0
28	17	50	30	288	181.0	-182480.0	-3050.0	198094.0
28	17	50	30	311	182.0	-190735.0	-3067.0	199264.0
28	17	50	30	312	183.0	-198745.0	-3066.0	199401.0
28	17	50	30	313	184.0	-206156.0	-3070.0	198500.0
28	17	50	30	313	185.0	-213299.0	-3064.0	197285.0
28	17	50	30	314	186.0	-219524.0	-3054.0	196728.0
28	17	50	30	315	187.0	-224827.0	-3060.0	196743.0
28	17	50	30	315	188.0	-229386.0	-3051.0	197383.0
28	17	50	30	316	189.0	-232586.0	-3040.0	196909.0
28	17	50	30	316	190.0	-234590.0	-3040.0	197471.0
28	17	50	30	317	191.0	-235439.0	-3022.0	197437.0
28	17	50	30	317	192.0	-235119.0	-3030.0	197486.0
28	17	50	30	318	193.0	-233556.0	-3035.0	197599.0
28	17	50	30	319	194.0	-230677.0	-3033.0	197713.0
28	17	50	30	319	195.0	-226188.0	-3048.0	196674.0
28	17	50	30	320	196.0	-220377.0	-3039.0	196323.0
28	17	50	30	320	200.0	-189339.0	-3082.0	197259.0
28	17	50	30	321	201.0	-182666.0	-3099.0	196543.0
28	17	50	30	321	202.0	-176913.0	-3111.0	196551.0
28	17	50	30	322	203.0	-173746.0	-3126.0	196649.0
28	17	50	30	322	204.0	-172891.0	-3140.0	196339.0
28	17	50	30	323	205.0	-173487.0	-3157.0	196853.0
28	17	50	30	324	206.0	-176019.0	-3157.0	196353.0
28	17	50	30	324	207.0	-180272.0	-3159.0	195493.0
28	17	50	30	325	208.0	-186573.0	-3164.0	195464.0
28	17	50	30	325	209.0	-194776.0	-3168.0	194780.0
28	17	50	30	326	210.0	-203254.0	-3194.0	193813.0
28	17	50	30	327	211.0	-212271.0	-3211.0	194114.0
28	17	50	30	327	212.0	-221938.0	-3219.0	194178.0
28	17	50	30	328	213.0	-230645.0	-3236.0	192479.0
28	17	50	30	329	214.0	-238516.0	-3249.0	192268.0
28	17	50	30	329	215.0	-245323.0	-3261.0	192629.0
28	17	50	30	330	216.0	-250870.0	-3264.0	192787.0
28	17	50	30	340	217.0	-255793.0	-3278.0	192682.0
28	17	50	30	341	218.0	-259897.0	-3291.0	193956.0
28	17	50	30	342	219.0	-261846.0	-3300.0	194307.0
28	17	50	30	342	220.0	-262641.0	-3334.0	194134.0
28	17	50	30	343	221.0	-263184.0	-3374.0	193604.0
28	17	50	30	344	222.0	-263489.0	-3409.0	193220.0
28	17	50	30	344	223.0	-262915.0	-3414.0	192237.0
28	17	50	30	360	224.0	-261906.0	-3432.0	191626.0
28	17	50	30	361	225.0	-260381.0	-3439.0	193445.0
28	17	50	30	362	226.0	-258021.0	-3450.0	196327.0
28	17	50	30	362	227.0	-255296.0	-3484.0	196194.0
28	17	50	30	363	228.0	-252775.0	-3491.0	195563.0
28	17	50	30	363	229.0	-250353.0	-3495.0	193036.0
28	17	50	30	364	230.0	-248551.0	-3518.0	188054.0
28	17	50	30	364	231.0	-246615.0	-3537.0	182110.0
28	17	50	30	383	232.0	-244142.0	-3560.0	174673.0
28	17	50	30	384	233.0	-241561.0	-3574.0	166118.0
28	17	50	30	384	234.0	-238917.0	-3580.0	153910.0
28	17	50	30	385	235.0	-236370.0	-3602.0	144602.0
28	17	50	30	385	236.0	-233751.0	-3640.0	141825.0
28	17	50	30	386	237.0	-231613.0	-3653.0	141874.0
28	17	50	30	387	238.0	-229411.0	-3656.0	141933.0
28	17	50	30	387	239.0	-226250.0	-3656.0	139727.0
28	17	50	30	388	240.0	-223112.0	-3659.0	139599.0
28	17	50	30	389	241.0	-219213.0	-3689.0	139533.0
28	17	50	30	389	242.0	-214960.0	-3707.0	139071.0
28	17	50	30	390	243.0	-210906.0	-3719.0	139046.0
28	17	50	30	390	244.0	-205980.0	-3728.0	139281.0
28	17	50	30	391	245.0	-200485.0	-3745.0	138583.0
28	17	50	30	391	246.0	-195774.0	-3764.0	137369.0
28	17	50	30	405	247.0	-191132.0	-3756.0	135495.0
28	17	50	30	406	248.0	-186584.0	-3749.0	132560.0
28	17	50	30	406	249.0	-182677.0	-3777.0	131584.0
28	17	50	30	407	250.0	-178078.0	-3792.0	120211.0
28	17	50	30	408	251.0	-173336.0	-3802.0	114261.0
28	17	50	30	408	252.0	-167990.0	-3799.0	116316.0
28	17	50	30	409	253.0	-164085.0	-3813.0	118214.0
28	17	50	30	428	254.0	-160367.0	-3813.0	118377.0
28	17	50	30	429	255.0	-157721.0	-3787.0	113180.0
28	17	50	30	430	0.0	-156951.0	-3787.0	108257.0
28	17	50	30	430	1.0	-157613.0	-3799.0	106193.0
28	17	50	30	431	2.0	-159205.0	-3801.0	104297.0
28	17	50	30	432	3.0	-161354.0	-3767.0	100863.0
28	17	50	30	432	4.0	-163541.0	-3745.0	99839.0
28	17	50	30	433	5.0	-166158.0	-3717.0	100455.0
28	17	50	30	433	6.0	-169013.0	-3689.0	101722.0
28	17	50	30	434	7.0	-172162.0	-3652.0	102004.0
28	17	50	30	435	8.0	-175757.0	-3614.0	101322.0
28	17	50	30	435	9.0	-179859.0	-3581.0	100360.0
28	17	50	30	436	10.0	-183740.0	-3540.0	98301.0
28	17	50	30	436	11.0	-188512.0	-3492.0	96160.0
28	17	50	30	437	12.0	-192577.0	-3436.0	95377.0
28	17	50	30	451	13.0	-195674.0	-3392.0	96259.0
28	17	50	30	451	14.0	-198794.0	-3344.0	97053.0
28	17	50	30	452	15.0	-200017.0	-3331.0	96943.0
28	17	50	30	453	16.0	-199532.0	-3318.0	97106.0
28	17	50	30	453	17.0	-198344.0	-3316.0	97471.0
28	17	50	30	454	18.0	-195878.0	-3278.0	98897.0
28	17	50	30	454	19.0	-193214.0	-3272.0	100695.0
28	17	50	30	455	20.0	-189722.0	-3264.0	101105.0
28	17	50	30	473	21.0	-185565.0	-3252.0	100972.0
28	17	50	30	473	22.0	-179877.0	-3236.0	101699.0
28	17	50	30	474	23.0	-175384.0	-3253.0	101704.0
28	17	50	30	475	24.0	-165454.0	-3253.0	102058.0
28	17	50	30	475	25.0	-149747.0	-3233.0	102574.0
28	17	50	30	476	26.0	-125992.0	-3219.0	102098.0
28	17	50	30	477	27.0	-101889.0	-3182.0	102333.0
28	17	50	30	477	28.0	-89804.0	-3126.0	102374.0
28	17	50	30	478	29.0	-98262.0	-3094.0	101314.0
28	17	50	30	478	30.0	-118848.0	-3065.0	101116.0
28	17	50	30	479	31.0	-138920.0	-3037.0	100873.0
28	17	50	30	480	32.0	-153014.0	-3009.0	101894.0
28	17	50	30	480	33.0	-161257.0	-3004.0	101792.0
28	17	50	30	481	34.0	-165081.0	-2994.0	101650.0
28	17	50	30	481	35.0	-171785.0	-2975.0	100194.0
28	17	50	30	495	36.0	-177784.0	-2943.0	87894.0
28	17	50	30	496	37.0	-180766.0	-2904.0	78726.0
28	17	50	30	496	38.0	-181751.0	-2891.0	75236.0
28	17	50	30	517	39.0	-180577.0	-2896.0	72899.0
28	17	50	30	518	40.0	-177386.0	-2881.0	65765.0
28	17	50	30	518	41.0	-174217.0	-2870.0	63326.0
28	17	50	30	519	42.0	-171247.0	-2858.0	63646.0
28	17	50	30	520	43.0	-167847.0	-2840.0	62338.0
28	17	50	30	520	44.0	-164258.0	-2807.0	59605.0
28	17	50	30	521	45.0	-160002.0	-2805.0	57812.0
28	17	50	30	522	46.0	-156069.0	-2792.0	57012.0
28	17	50	30	522	47.0	-152248.0	-2791.0	56061.0
28	17	50	30	523	48.0	-147329.0	-2771.0	55999.0
28	17	50	30	523	49.0	-142563.0	-2752.0	55298.0
28	17	50	30	524	50.0	-137871.0	-2742.0	53419.0
28	17	50	30	524	51.0	-133582.0	-2712.0	52899.0
28	17	50	30	525	52.0	-132314.0	-2712.0	52792.0
28	17	50	30	526	53.0	-132605.0	-2700.0	52611.0
28	17	50	30	526	54.0	-134346.0	-2714.0	52388.0
28	17	50	30	527	55.0	-147564.0	-2716.0	52852.0
28	17	50	30	527	56.0	-152154.0	-2726.0	53289.0
28	17	50	30	540	57.0	-149734.0	-2731.0	52929.0
28	17	50	30	540	58.0	-169291.0	-2716.0	51743.0
28	17	50	30	541	59.0	-175416.0	-2697.0	51694.0
28	17	50	30	542	60.0	-177909.0	-2685.0	51766.0
28	17	50	30	542	61.0	-179433.0	-2678.0	50816.0
28	17	50	30	543	62.0	-177296.0	-2679.0	51209.0
28	17	50	30	543	63.0	-166335.0	-2674.0	51331.0
28	17	50	30	544	64.0	-153501.0	-2657.0	50891.0
28	17	50	30	545	65.0	-138957.0	-2641.0	50378.0
28	17	50	30	563	66.0	-130644.0	-2621.0	50623.0
28	17	50	30	564	67.0	-125532.0	-2601.0	51179.0
28	17	50	30	564	68.0	-122292.0	-2596.0	50807.0
28	17	50	30	565	69.0	-114142.0	-2585.0	51821.0
28	17	50	30	566	70.0	-106547.0	-2558.0	52385.0
28	17	50	30	566	71.0	-108839.0	-2568.0	53467.0
28	17	50	30	567	72.0	-123035.0	-2584.0	54848.0
28	17	50	30	568	73.0	-113173.0	-2574.0	55996.0
28	17	50	30	568	74.0	-120096.0	-2559.0	57082.0
28	17	50	30	569	75.0	-157122.0	-2578.0	57394.0
28	17	50	30	569	76.0	-161561.0	-2579.0	58192.0
28	17	50	30	570	77.0	-148521.0	-2586.0	56424.0
28	17	50	30	570	78.0	-164052.0	-2576.0	51291.0
28	17	50	30	571	79.0	-195836.0	-2572.0	48327.0
28	17	50	30	587	80.0	-195387.0	-2576.0	47011.0
28	17	50	30	587	81.0	-184261.0	-2582.0	46310.0
28	17	50	30	588	82.0	-211483.0	-2561.0	47801.0
28	17	50	30	589	83.0	-222279.0	-2571.0	48174.0
28	17	50	30	589	84.0	-206305.0	-2594.0	46887.0
28	17	50	30	590	85.0	-188309.0	-2602.0	45383.0
28	17	50	30	590	86.0	-214248.0	-2612.0	45427.0
28	17	50	30	591	87.0	-213129.0	-2618.0	45168.0
28	17	50	30	610	88.0	-194450.0	-2622.0	45310.0
28	17	50	30	610	89.0	-180240.0	-2609.0	44809.0
28	17	50	30	611	90.0	-204096.0	-2609.0	44551.0
28	17	50	30	612	91.0	-187807.0	-2607.0	44875.0
28	17	50	30	612	92.0	-166672.0	-2604.0	44881.0
28	17	50	30	613	93.0	-184990.0	-2624.0	44634.0
28	17	50	30	614	94.0	-195937.0	-2648.0	44459.0
28	17	50	30	614	95.0	-178044.0	-2636.0	44048.0
28	17	50	30	615	96.0	-160276.0	-2603.0	44203.0
28	17	50	30	615	97.0	-187101.0	-2594.0	44924.0
28	17	50	30	616	98.0	-182321.0	-2619.0	45549.0
28	17	50	30	617	99.0	-162887.0	-2646.0	45464.0
28	17	50	30	617	100.0	-158589.0	-2647.0	45804.0
28	17	50	30	618	101.0	-186281.0	-2659.0	45805.0
28	17	50	30	618	102.0	-177780.0	-2688.0	46556.0
28	17	50	30	632	103.0	-160924.0	-2675.0	47723.0
28	17	50	30	632	104.0	-176535.0	-2665.0	49652.0
28	17	50	30	633	105.0	-199866.0	-2696.0	51471.0
28	17	50	30	634	106.0	-191124.0	-2729.0	51460.0
28	17	50	30	634	107.0	-177872.0	-2780.0	51989.0
28	17	50	30	635	108.0	-208510.0	-2839.0	52507.0
28	17	50	30	636	109.0	-220324.0	-2886.0	54882.0
28	17	50	30	637	110.0	-208582.0	-2934.0	60673.0
28	17	50	30	654	111.0	-203531.0	-2962.0	63584.0
28	17	50	30	655	112.0	-240017.0	-3007.0	64950.0
28	17	50	30	656	113.0	-239334.0	-3042.0	66336.0
28	17	50	30	657	114.0	-224240.0	-3074.0	66891.0
28	17	50	30	657	115.0	-229672.0	-3096.0	67416.0
28	17	50	30	658	116.0	-257340.0	-3139.0	67983.0
28	17	50	30	659	117.0	-248068.0	-3161.0	69171.0
28	17	50	30	659	118.0	-228412.0	-3159.0	69941.0
28	17	50	30	660	119.0	-244178.0	-3163.0	70728.0
28	17	50	30	661	120.0	-258167.0	-3170.0	71833.0
28	17	50	30	661	121.0	-245666.0	-3174.0	72356.0
28	17	50	30	662	122.0	-224747.0	-3197.0	71994.0
28	17	50	30	662	123.0	-245991.0	-3192.0	70729.0
28	17	50	30	663	124.0	-251352.0	-3202.0	70186.0
28	17	50	30	677	125.0	-236930.0	-3213.0	71494.0
28	17	50	30	678	126.0	-218889.0	-3233.0	73223.0
28	17	50	30	678	127.0	-244821.0	-3257.0	74647.0
28	17	50	30	679	128.0	-242633.0	-3279.0	75758.0
28	17	50	30	680	129.0	-225687.0	-3288.0	75753.0
28	17	50	30	680	130.0	-216016.0	-3296.0	75259.0
28	17	50	30	681	131.0	-242389.0	-3340.0	75242.0
28	17	50	30	681	132.0	-235667.0	-3386.0	75699.0
28	17	50	30	700	133.0	-217610.0	-3402.0	76761.0
28	17	50	30	700	134.0	-217281.0	-3407.0	78876.0
28	17	50	30	701	135.0	-240556.0	-3410.0	78664.0
28	17	50	30	702	136.0	-231867.0	-3428.0	77908.0
28	17	50	30	702	137.0	-212971.0	-3470.0	78540.0
28	17	50	30	703	138.0	-223779.0	-3481.0	80072.0
28	17	50	30	704	139.0	-240894.0	-3497.0	80546.0
28	17	50	30	704	140.0	-231005.0	-3501.0	80914.0
28	17	50	30	705	141.0	-211039.0	-3511.0	81317.0
28	17	50	30	706	142.0	-228647.0	-3503.0	81819.0
28	17	50	30	706	143.0	-238678.0	-3537.0	82289.0
28	17	50	30	707	144.0	-228374.0	-3554.0	82285.0
28	17	50	30	707	145.0	-209644.0	-3554.0	82341.0
28	17	50	30	708	146.0	-231332.0	-3572.0	82711.0
28	17	50	30	708	147.0	-235797.0	-3556.0	82539.0
28	17	50	30	723	148.0	-224459.0	-3558.0	82743.0
28	17	50	30	724	149.0	-207564.0	-3562.0	83448.0
28	17	50	30	725	150.0	-231096.0	-3557.0	83445.0
28	17	50	30	725	151.0	-231355.0	-3554.0	83352.0
28	17	50	30	726	152.0	-218362.0	-3566.0	83946.0
28	17	50	30	727	153.0	-203825.0	-3571.0	84695.0
28	17	50	30	727	154.0	-226784.0	-3573.0	85336.0
28	17	50	30	746	155.0	-225607.0	-3571.0	86385.0
28	17	50	30	746	156.0	-211963.0	-3567.0	86233.0
28	17	50	30	747	157.0	-202427.0	-3582.0	86194.0
28	17	50	30	748	158.0	-226122.0	-3586.0	86334.0
28	17	50	30	749	159.0	-224010.0	-3577.0	86225.0
28	17	50	30	749	160.0	-210539.0	-3582.0	86141.0
28	17	50	30	750	161.0	-203595.0	-3606.0	86352.0
28	17	50	30	750	162.0	-226389.0	-3597.0	86206.0
28	17	50	30	751	163.0	-223622.0	-3594.0	86733.0
28	17	50	30	752	164.0	-209097.0	-3631.0	86625.0
28	17	50	30	752	165.0	-205226.0	-3656.0	87336.0
28	17	50	30	753	166.0	-227551.0	-3651.0	89099.0
28	17	50	30	753	167.0	-225772.0	-3661.0	90304.0
28	17	50	30	754	168.0	-211595.0	-3663.0	90884.0
28	17	50	30	754	169.0	-209586.0	-3656.0	92048.0
28	17	50	30	769	170.0	-229462.0	-3667.0	92461.0
28	17	50	30	770	171.0	-226026.0	-3669.0	92636.0
28	17	50	30	770	172.0	-210491.0	-3678.0	93022.0
28	17	50	30	771	173.0	-209443.0	-3672.0	92523.0
28	17	50	30	772	174.0	-229547.0	-3696.0	92034.0
28	17	50	30	772	175.0	-224294.0	-3706.0	92212.0
28	17	50	30	773	176.0	-209298.0	-3705.0	92216.0
28	17	50	30	773	177.0	-206991.0	-3702.0	92333.0
28	17	50	30	791	178.0	-225344.0	-3706.0	92384.0
28	17	50	30	792	179.0	-223661.0	-3702.0	92896.0
28	17	50	30	793	180.0	-209291.0	-3690.0	93453.0
28	17	50	30	794	181.0	-204278.0	-3687.0	94005.0
28	17	50	30	794	182.0	-223239.0	-3675.0	94346.0
28	17	50	30	795	183.0	-222472.0	-3687.0	93788.0
28	17	50	30	796	184.0	-210396.0	-3680.0	93608.0
28	17	50	30	796	185.0	-202284.0	-3666.0	93955.0
28	17	50	30	797	186.0	-219831.0	-3657.0	95231.0
28	17	50	30	797	187.0	-220171.0	-3636.0	95740.0
28	17	50	30	798	188.0	-208679.0	-3636.0	96066.0
28	17	50	30	799	189.0	-200177.0	-3638.0	98124.0
28	17	50	30	799	190.0	-217764.0	-3639.0	98919.0
28	17	50	30	800	191.0	-219716.0	-3642.0	96759.0
28	17	50	30	800	192.0	-211086.0	-3650.0	94886.0
28	17	50	30	814	193.0	-202181.0	-3655.0	96472.0
