29	17	50	0	970	78.0	-313837.0	715.0	-12184.0
29	17	50	0	972	79.0	-309655.0	703.0	-11207.0
29	17	50	0	974	80.0	-305379.0	696.0	-10563.0
29	17	50	0	977	81.0	-300134.0	684.0	-10694.0
29	17	50	0	979	82.0	-294477.0	669.0	-10450.0
29	17	50	0	981	83.0	-287246.0	682.0	-10009.0
29	17	50	0	983	84.0	-279197.0	690.0	-10143.0
29	17	50	0	984	85.0	-270216.0	677.0	-10087.0
29	17	50	0	986	86.0	-260730.0	661.0	-10100.0
29	17	50	0	988	87.0	-249399.0	654.0	-10139.0
29	17	50	0	989	88.0	-238902.0	654.0	-9474.0
29	17	50	0	989	89.0	-227232.0	642.0	-9032.0
29	17	50	0	990	90.0	-216756.0	640.0	-8948.0
29	17	50	0	991	91.0	-206961.0	621.0	-9052.0
29	17	50	0	992	92.0	-197607.0	608.0	-8595.0
29	17	50	1	1	93.0	-189327.0	606.0	-8132.0
29	17	50	1	2	94.0	-181942.0	604.0	-7649.0
29	17	50	1	3	95.0	-175280.0	596.0	-7509.0
29	17	50	1	3	96.0	-170094.0	570.0	-7545.0
29	17	50	1	4	97.0	-166039.0	542.0	-7431.0
29	17	50	1	5	98.0	-163002.0	549.0	-7231.0
29	17	50	1	5	99.0	-161284.0	548.0	-6852.0
29	17	50	1	6	100.0	-161315.0	524.0	-6604.0
29	17	50	1	57	101.0	-162684.0	523.0	-6460.0
29	17	50	1	102	102.0	-165340.0	502.0	-6622.0
29	17	50	1	103	103.0	-169032.0	490.0	-6912.0
29	17	50	1	104	104.0	-173629.0	463.0	-6639.0
29	17	50	1	104	105.0	-179186.0	443.0	-6517.0
29	17	50	1	105	106.0	-185695.0	429.0	-6862.0
29	17	50	1	106	107.0	-192753.0	438.0	-6631.0
29	17	50	1	106	108.0	-200926.0	419.0	-6236.0
29	17	50	1	107	109.0	-209276.0	394.0	-6046.0
29	17	50	1	108	110.0	-218027.0	381.0	-5871.0
29	17	50	1	108	111.0	-227010.0	372.0	-5919.0
29	17	50	1	109	112.0	-236060.0	358.0	-5838.0
29	17	50	1	110	113.0	-245743.0	325.0	-5974.0
29	17	50	1	110	114.0	-255535.0	299.0	-5498.0
29	17	50	1	111	115.0	-265099.0	279.0	-5217.0
29	17	50	1	112	127.0	-352816.0	18.0	-4122.0
29	17	50	1	113	149.0	-377709.0	-622.0	8137.0
29	17	50	1	114	150.0	-377989.0	-649.0	9623.0
29	17	50	1	115	151.0	-378091.0	-679.0	10821.0
29	17	50	1	116	152.0	-378249.0	-706.0	11629.0
29	17	50	1	116	153.0	-378242.0	-744.0	13150.0
29	17	50	1	117	154.0	-378461.0	-770.0	14304.0
29	17	50	1	149	155.0	-379023.0	-794.0	14900.0
29	17	50	1	150	156.0	-380008.0	-819.0	15906.0
29	17	50	1	150	157.0	-382344.0	-851.0	16623.0
29	17	50	1	151	158.0	-384391.0	-862.0	17266.0
29	17	50	1	152	159.0	-386252.0	-893.0	17907.0
29	17	50	1	152	160.0	-388417.0	-939.0	18563.0
29	17	50	1	153	161.0	-390786.0	-980.0	18836.0
29	17	50	1	153	162.0	-393238.0	-1032.0	19018.0
29	17	50	1	154	163.0	-395769.0	-1059.0	19450.0
29	17	50	1	155	164.0	-397667.0	-1077.0	20268.0
29	17	50	1	155	165.0	-397053.0	-1134.0	20888.0
29	17	50	1	156	166.0	-397001.0	-1165.0	21799.0
29	17	50	1	156	167.0	-396642.0	-1187.0	22463.0
29	17	50	1	157	168.0	-396441.0	-1226.0	23398.0
29	17	50	1	158	169.0	-395534.0	-1249.0	24083.0
29	17	50	1	158	171.0	-394306.0	-1327.0	25240.0
29	17	50	1	159	172.0	-394524.0	-1371.0	26347.0
29	17	50	1	159	173.0	-395064.0	-1409.0	26700.0
29	17	50	1	160	174.0	-397602.0	-1426.0	27186.0
29	17	50	1	160	175.0	-400588.0	-1434.0	27806.0
29	17	50	1	161	176.0	-402513.0	-1462.0	28448.0
29	17	50	1	162	177.0	-404397.0	-1509.0	29117.0
29	17	50	1	193	178.0	-405750.0	-1526.0	30158.0
29	17	50	1	194	179.0	-405413.0	-1536.0	30723.0
29	17	50	1	194	180.0	-404403.0	-1556.0	31350.0
29	17	50	1	195	181.0	-402274.0	-1607.0	32283.0
29	17	50	1	195	182.0	-399564.0	-1649.0	32661.0
29	17	50	1	196	183.0	-396009.0	-1675.0	32673.0
29	17	50	1	197	184.0	-392812.0	-1694.0	32981.0
29	17	50	1	197	185.0	-388648.0	-1735.0	33794.0
29	17	50	1	198	186.0	-387539.0	-1775.0	33923.0
29	17	50	1	199	187.0	-391919.0	-1797.0	34128.0
29	17	50	1	199	188.0	-380764.0	-1838.0	35188.0
29	17	50	1	200	189.0	-374492.0	-1860.0	35989.0
29	17	50	1	201	190.0	-365864.0	-1882.0	36644.0
29	17	50	1	201	191.0	-358589.0	-1909.0	37381.0
29	17	50	1	202	192.0	-350386.0	-1943.0	38184.0
29	17	50	1	203	194.0	-333850.0	-1992.0	40319.0
29	17	50	1	203	195.0	-329602.0	-2012.0	40817.0
29	17	50	1	204	196.0	-326582.0	-2034.0	41524.0
29	17	50	1	204	197.0	-323709.0	-2065.0	42414.0
29	17	50	1	205	198.0	-320328.0	-2076.0	43221.0
29	17	50	1	205	199.0	-315876.0	-2076.0	44033.0
29	17	50	1	238	200.0	-311967.0	-2087.0	45416.0
29	17	50	1	238	201.0	-308407.0	-2117.0	46545.0
29	17	50	1	239	202.0	-304621.0	-2154.0	46913.0
29	17	50	1	240	203.0	-299698.0	-2177.0	47373.0
29	17	50	1	240	204.0	-294265.0	-2206.0	47735.0
29	17	50	1	241	205.0	-288574.0	-2221.0	48349.0
29	17	50	1	242	206.0	-281820.0	-2255.0	48642.0
29	17	50	1	242	207.0	-275052.0	-2291.0	49309.0
29	17	50	1	243	208.0	-269077.0	-2316.0	49654.0
29	17	50	1	243	209.0	-263670.0	-2343.0	50461.0
29	17	50	1	244	210.0	-258289.0	-2366.0	51463.0
29	17	50	1	245	211.0	-253319.0	-2388.0	52213.0
29	17	50	1	245	212.0	-248839.0	-2420.0	53101.0
29	17	50	1	246	213.0	-244907.0	-2449.0	53573.0
29	17	50	1	246	214.0	-240563.0	-2486.0	53626.0
29	17	50	1	247	216.0	-229735.0	-2537.0	53679.0
29	17	50	1	248	217.0	-227503.0	-2554.0	54434.0
29	17	50	1	248	218.0	-227581.0	-2582.0	54066.0
29	17	50	1	249	219.0	-221991.0	-2606.0	54514.0
29	17	50	1	249	220.0	-218887.0	-2607.0	55484.0
29	17	50	1	250	221.0	-215504.0	-2627.0	55349.0
29	17	50	1	250	222.0	-212651.0	-2636.0	55378.0
29	17	50	1	282	223.0	-209299.0	-2657.0	55299.0
29	17	50	1	283	224.0	-206174.0	-2686.0	54794.0
29	17	50	1	284	225.0	-203582.0	-2701.0	54533.0
29	17	50	1	285	226.0	-202057.0	-2736.0	54845.0
29	17	50	1	285	227.0	-200544.0	-2748.0	54974.0
29	17	50	1	305	228.0	-199762.0	-2784.0	54916.0
29	17	50	1	306	229.0	-199192.0	-2804.0	55674.0
29	17	50	1	306	230.0	-198942.0	-2824.0	56553.0
29	17	50	1	307	231.0	-198931.0	-2858.0	56648.0
29	17	50	1	308	232.0	-197825.0	-2894.0	56619.0
29	17	50	1	308	233.0	-196192.0	-2931.0	57038.0
29	17	50	1	309	234.0	-194241.0	-2950.0	57016.0
29	17	50	1	309	235.0	-191645.0	-2978.0	56573.0
29	17	50	1	310	236.0	-188126.0	-3007.0	56823.0
29	17	50	1	310	237.0	-184414.0	-3032.0	57059.0
29	17	50	1	311	239.0	-177369.0	-3071.0	57751.0
29	17	50	1	311	240.0	-174999.0	-3086.0	58201.0
29	17	50	1	312	241.0	-173387.0	-3107.0	58279.0
29	17	50	1	313	242.0	-171856.0	-3115.0	57739.0
29	17	50	1	313	243.0	-170767.0	-3132.0	55842.0
29	17	50	1	314	244.0	-169832.0	-3169.0	53492.0
29	17	50	1	329	245.0	-168987.0	-3176.0	51078.0
29	17	50	1	330	246.0	-168260.0	-3183.0	47638.0
29	17	50	1	331	247.0	-167552.0	-3215.0	43244.0
29	17	50	1	331	248.0	-166799.0	-3238.0	38693.0
29	17	50	1	332	249.0	-166829.0	-3249.0	34254.0
29	17	50	1	333	250.0	-168067.0	-3266.0	31193.0
29	17	50	1	333	251.0	-169974.0	-3299.0	28590.0
29	17	50	1	334	252.0	-172143.0	-3351.0	24764.0
29	17	50	1	334	253.0	-174736.0	-3366.0	20319.0
29	17	50	1	335	254.0	-177468.0	-3400.0	15283.0
29	17	50	1	336	255.0	-180705.0	-3422.0	8658.0
29	17	50	1	336	0.0	-184641.0	-3455.0	5871.0
29	17	50	1	337	1.0	-187998.0	-3487.0	8659.0
29	17	50	1	337	2.0	-190786.0	-3511.0	14652.0
29	17	50	1	338	3.0	-192858.0	-3520.0	22261.0
29	17	50	1	339	5.0	-194093.0	-3577.0	37166.0
29	17	50	1	339	6.0	-193734.0	-3612.0	43188.0
29	17	50	1	340	7.0	-193507.0	-3625.0	49999.0
29	17	50	1	340	8.0	-193127.0	-3654.0	53741.0
29	17	50	1	341	9.0	-193357.0	-3657.0	54627.0
29	17	50	1	341	10.0	-193674.0	-3662.0	54866.0
29	17	50	1	342	11.0	-193662.0	-3672.0	55201.0
29	17	50	1	372	12.0	-192543.0	-3706.0	55403.0
29	17	50	1	373	13.0	-189186.0	-3719.0	55168.0
29	17	50	1	373	14.0	-183897.0	-3744.0	56013.0
29	17	50	1	374	15.0	-174923.0	-3776.0	56784.0
29	17	50	1	375	16.0	-160234.0	-3790.0	56756.0
29	17	50	1	375	17.0	-139248.0	-3808.0	56214.0
29	17	50	1	376	18.0	-123419.0	-3849.0	56286.0
29	17	50	1	377	19.0	-103132.0	-3876.0	57190.0
29	17	50	1	377	20.0	-86319.0	-3901.0	57448.0
29	17	50	1	378	21.0	-78926.0	-3931.0	57769.0
29	17	50	1	378	22.0	-79675.0	-3957.0	57998.0
29	17	50	1	379	23.0	-86453.0	-3974.0	58401.0
29	17	50	1	379	24.0	-99671.0	-4014.0	58902.0
29	17	50	1	380	25.0	-117340.0	-4045.0	59130.0
29	17	50	1	381	26.0	-135282.0	-4064.0	59129.0
29	17	50	1	381	28.0	-169449.0	-4113.0	59006.0
29	17	50	1	382	29.0	-182543.0	-4134.0	59194.0
29	17	50	1	382	30.0	-190074.0	-4161.0	59101.0
29	17	50	1	383	31.0	-194131.0	-4189.0	58497.0
29	17	50	1	383	32.0	-196234.0	-4215.0	58509.0
29	17	50	1	384	33.0	-197063.0	-4219.0	59259.0
29	17	50	1	416	34.0	-196747.0	-4229.0	59355.0
29	17	50	1	417	35.0	-194484.0	-4257.0	59444.0
29	17	50	1	418	36.0	-189451.0	-4283.0	59876.0
29	17	50	1	418	37.0	-183050.0	-4321.0	59769.0
29	17	50	1	419	38.0	-176600.0	-4339.0	59533.0
29	17	50	1	420	39.0	-171959.0	-4368.0	60233.0
29	17	50	1	420	40.0	-169684.0	-4406.0	60231.0
29	17	50	1	421	41.0	-169371.0	-4423.0	59601.0
29	17	50	1	421	42.0	-169986.0	-4442.0	59029.0
29	17	50	1	422	43.0	-170019.0	-4461.0	58150.0
29	17	50	1	422	44.0	-168558.0	-4489.0	59014.0
29	17	50	1	423	45.0	-165446.0	-4525.0	59393.0
29	17	50	1	424	46.0	-160494.0	-4546.0	59563.0
29	17	50	1	424	47.0	-153954.0	-4570.0	58939.0
29	17	50	1	425	48.0	-148913.0	-4595.0	58513.0
29	17	50	1	425	50.0	-142403.0	-4641.0	59193.0
29	17	50	1	426	51.0	-141404.0	-4656.0	59106.0
29	17	50	1	426	52.0	-142088.0	-4662.0	59024.0
29	17	50	1	427	53.0	-144269.0	-4689.0	59361.0
29	17	50	1	428	54.0	-147275.0	-4712.0	59609.0
29	17	50	1	428	55.0	-150266.0	-4734.0	59578.0
29	17	50	1	462	56.0	-152777.0	-4747.0	59684.0
29	17	50	1	463	57.0	-154636.0	-4758.0	59269.0
29	17	50	1	464	58.0	-155506.0	-4767.0	58748.0
29	17	50	1	464	59.0	-155029.0	-4819.0	58876.0
29	17	50	1	465	60.0	-153429.0	-4831.0	58590.0
29	17	50	1	465	61.0	-151513.0	-4849.0	58461.0
29	17	50	1	466	62.0	-149287.0	-4862.0	58146.0
29	17	50	1	466	63.0	-146355.0	-4873.0	58034.0
29	17	50	1	467	64.0	-143607.0	-4899.0	58593.0
29	17	50	1	468	65.0	-140607.0	-4937.0	59133.0
29	17	50	1	468	66.0	-137597.0	-4968.0	59097.0
29	17	50	1	469	67.0	-134585.0	-4991.0	58940.0
29	17	50	1	469	68.0	-131886.0	-5004.0	58401.0
29	17	50	1	470	69.0	-128785.0	-5033.0	57895.0
29	17	50	1	470	70.0	-126762.0	-5055.0	58115.0
29	17	50	1	471	73.0	-126132.0	-5156.0	57977.0
29	17	50	1	472	74.0	-126692.0	-5161.0	58869.0
29	17	50	1	472	75.0	-127237.0	-5156.0	59073.0
29	17	50	1	473	76.0	-128267.0	-5177.0	58789.0
29	17	50	1	473	77.0	-129756.0	-5198.0	59193.0
29	17	50	1	486	78.0	-131779.0	-5208.0	59317.0
29	17	50	1	510	79.0	-133711.0	-5230.0	59175.0
29	17	50	1	511	80.0	-135321.0	-5242.0	59287.0
29	17	50	1	512	81.0	-136446.0	-5274.0	59058.0
29	17	50	1	512	82.0	-138744.0	-5307.0	58386.0
29	17	50	1	513	83.0	-140926.0	-5297.0	58697.0
29	17	50	1	513	84.0	-142621.0	-5332.0	59236.0
29	17	50	1	514	85.0	-143310.0	-5369.0	59008.0
29	17	50	1	515	86.0	-143750.0	-5393.0	58965.0
29	17	50	1	515	87.0	-143599.0	-5418.0	58963.0
29	17	50	1	516	88.0	-143026.0	-5452.0	58743.0
29	17	50	1	517	89.0	-142606.0	-5469.0	58662.0
29	17	50	1	517	90.0	-141729.0	-5491.0	58669.0
29	17	50	1	518	91.0	-140646.0	-5543.0	58664.0
29	17	50	1	518	92.0	-139131.0	-5562.0	58963.0
29	17	50	1	519	93.0	-137124.0	-5579.0	59466.0
29	17	50	1	519	95.0	-134057.0	-5608.0	59311.0
29	17	50	1	520	96.0	-131478.0	-5633.0	59308.0
29	17	50	1	521	97.0	-126880.0	-5657.0	59636.0
29	17	50	1	521	98.0	-126490.0	-5661.0	60141.0
29	17	50	1	522	99.0	-125439.0	-5677.0	60485.0
29	17	50	1	522	100.0	-121747.0	-5681.0	60574.0
29	17	50	1	552	101.0	-121558.0	-5690.0	59908.0
29	17	50	1	552	102.0	-122040.0	-5715.0	59562.0
29	17	50	1	553	103.0	-122522.0	-5711.0	59916.0
29	17	50	1	554	104.0	-124047.0	-5729.0	60150.0
29	17	50	1	554	105.0	-126340.0	-5734.0	60823.0
29	17	50	1	555	106.0	-129535.0	-5736.0	60975.0
29	17	50	1	555	107.0	-132897.0	-5741.0	60483.0
29	17	50	1	556	108.0	-136109.0	-5747.0	60852.0
29	17	50	1	557	109.0	-139376.0	-5769.0	60629.0
29	17	50	1	557	110.0	-142692.0	-5761.0	60389.0
29	17	50	1	558	111.0	-145860.0	-5759.0	60570.0
29	17	50	1	559	112.0	-148660.0	-5744.0	60971.0
29	17	50	1	559	113.0	-151042.0	-5729.0	61193.0
29	17	50	1	560	114.0	-153091.0	-5699.0	61276.0
29	17	50	1	560	115.0	-153987.0	-5694.0	61799.0
29	17	50	1	561	117.0	-154441.0	-5631.0	61848.0
29	17	50	1	562	118.0	-154222.0	-5604.0	61679.0
29	17	50	1	562	119.0	-152708.0	-5571.0	61528.0
29	17	50	1	563	120.0	-150825.0	-5524.0	61568.0
29	17	50	1	563	121.0	-147959.0	-5494.0	61361.0
29	17	50	1	564	122.0	-145663.0	-5441.0	61079.0
29	17	50	1	565	123.0	-143273.0	-5372.0	61424.0
29	17	50	1	596	124.0	-141522.0	-5308.0	62240.0
29	17	50	1	597	125.0	-140025.0	-5256.0	62487.0
29	17	50	1	597	126.0	-139611.0	-5194.0	62358.0
29	17	50	1	598	127.0	-140292.0	-5136.0	62509.0
29	17	50	1	599	128.0	-141371.0	-5067.0	62243.0
29	17	50	1	599	129.0	-142605.0	-5017.0	62122.0
29	17	50	1	600	130.0	-143761.0	-4962.0	62271.0
29	17	50	1	600	131.0	-144282.0	-4906.0	62179.0
29	17	50	1	601	132.0	-144718.0	-4837.0	61853.0
29	17	50	1	602	133.0	-143895.0	-4752.0	61811.0
29	17	50	1	602	134.0	-143484.0	-4677.0	62083.0
29	17	50	1	603	135.0	-143134.0	-4594.0	62459.0
29	17	50	1	603	136.0	-143757.0	-4520.0	62021.0
29	17	50	1	604	137.0	-144209.0	-4446.0	61691.0
29	17	50	1	605	138.0	-144559.0	-4352.0	61522.0
29	17	50	1	620	140.0	-145208.0	-4197.0	61396.0
29	17	50	1	621	141.0	-145139.0	-4127.0	60665.0
29	17	50	1	621	142.0	-144678.0	-4018.0	60219.0
29	17	50	1	622	143.0	-145365.0	-3931.0	60769.0
29	17	50	1	623	144.0	-146672.0	-3813.0	60706.0
29	17	50	1	623	145.0	-149039.0	-3717.0	60504.0
29	17	50	1	643	146.0	-151949.0	-3631.0	60734.0
29	17	50	1	644	147.0	-154831.0	-3535.0	60634.0
29	17	50	1	645	148.0	-157248.0	-3434.0	60331.0
29	17	50	1	645	149.0	-158819.0	-3366.0	60291.0
29	17	50	1	646	150.0	-160404.0	-3303.0	60033.0
29	17	50	1	647	151.0	-162681.0	-3211.0	59439.0
29	17	50	1	647	152.0	-165389.0	-3111.0	59561.0
29	17	50	1	648	153.0	-168321.0	-3027.0	59661.0
29	17	50	1	649	154.0	-171957.0	-2946.0	59828.0
29	17	50	1	649	155.0	-175432.0	-2877.0	59448.0
29	17	50	1	650	156.0	-178131.0	-2782.0	59736.0
29	17	50	1	650	157.0	-180901.0	-2710.0	59528.0
29	17	50	1	651	158.0	-183302.0	-2638.0	59298.0
29	17	50	1	652	159.0	-185085.0	-2558.0	59072.0
29	17	50	1	652	160.0	-186596.0	-2496.0	58974.0
29	17	50	1	653	162.0	-188066.0	-2339.0	58544.0
29	17	50	1	654	163.0	-187714.0	-2272.0	57985.0
29	17	50	1	654	164.0	-187069.0	-2210.0	58057.0
29	17	50	1	655	165.0	-186600.0	-2116.0	58029.0
29	17	50	1	655	166.0	-186457.0	-2041.0	57682.0
29	17	50	1	656	167.0	-186294.0	-1976.0	57531.0
29	17	50	1	656	168.0	-186392.0	-1911.0	57004.0
29	17	50	1	687	169.0	-186887.0	-1844.0	56676.0
29	17	50	1	688	170.0	-188596.0	-1785.0	56776.0
29	17	50	1	688	171.0	-191556.0	-1717.0	56618.0
29	17	50	1	689	172.0	-193969.0	-1670.0	55979.0
29	17	50	1	690	173.0	-196260.0	-1608.0	55708.0
29	17	50	1	690	174.0	-197217.0	-1562.0	56288.0
29	17	50	1	691	175.0	-191963.0	-1518.0	56923.0
29	17	50	1	692	176.0	-181981.0	-1479.0	56462.0
29	17	50	1	692	177.0	-169397.0	-1422.0	56553.0
29	17	50	1	693	178.0	-158882.0	-1376.0	56824.0
29	17	50	1	693	179.0	-154048.0	-1368.0	56336.0
29	17	50	1	694	180.0	-154912.0	-1334.0	56679.0
29	17	50	1	695	181.0	-161989.0	-1297.0	56955.0
29	17	50	1	695	182.0	-168326.0	-1254.0	56381.0
29	17	50	1	696	183.0	-169193.0	-1210.0	55991.0
29	17	50	1	697	185.0	-154935.0	-1169.0	55983.0
29	17	50	1	697	186.0	-141087.0	-1147.0	56362.0
29	17	50	1	698	187.0	-126531.0	-1099.0	56198.0
29	17	50	1	698	188.0	-113524.0	-1060.0	55621.0
29	17	50	1	699	189.0	-102939.0	-1029.0	55444.0
29	17	50	1	700	190.0	-96131.0	-996.0	55624.0
29	17	50	1	732	191.0	-93069.0	-956.0	55462.0
29	17	50	1	733	192.0	-92627.0	-944.0	55280.0
29	17	50	1	733	193.0	-95725.0	-899.0	55171.0
29	17	50	1	734	194.0	-100855.0	-884.0	54846.0
29	17	50	1	735	195.0	-106856.0	-879.0	54911.0
29	17	50	1	735	196.0	-112956.0	-836.0	55209.0
29	17	50	1	736	197.0	-119644.0	-832.0	55325.0
29	17	50	1	737	198.0	-127500.0	-825.0	55314.0
29	17	50	1	737	199.0	-135696.0	-805.0	54918.0
29	17	50	1	738	200.0	-144526.0	-787.0	54743.0
29	17	50	1	739	201.0	-153316.0	-781.0	55103.0
29	17	50	1	739	202.0	-161745.0	-764.0	54956.0
29	17	50	1	740	203.0	-167886.0	-753.0	54714.0
29	17	50	1	741	204.0	-172542.0	-742.0	54848.0
29	17	50	1	741	205.0	-176075.0	-734.0	55155.0
29	17	50	1	742	207.0	-179196.0	-722.0	54244.0
29	17	50	1	742	208.0	-179035.0	-709.0	54221.0
29	17	50	1	743	209.0	-178572.0	-694.0	54396.0
29	17	50	1	744	210.0	-178602.0	-672.0	54229.0
29	17	50	1	744	211.0	-179129.0	-642.0	53949.0
29	17	50	1	745	212.0	-180531.0	-630.0	53870.0
29	17	50	1	745	213.0	-182271.0	-602.0	53648.0
29	17	50	1	777	214.0	-184371.0	-590.0	53554.0
29	17	50	1	778	215.0	-187081.0	-577.0	53738.0
29	17	50	1	779	216.0	-189295.0	-553.0	53897.0
29	17	50	1	779	217.0	-190859.0	-554.0	54136.0
29	17	50	1	780	218.0	-192526.0	-558.0	54693.0
29	17	50	1	780	219.0	-194469.0	-562.0	54876.0
29	17	50	1	781	220.0	-196237.0	-550.0	54628.0
29	17	50	1	782	221.0	-198187.0	-553.0	54871.0
29	17	50	1	782	222.0	-199748.0	-541.0	54448.0
29	17	50	1	783	223.0	-201359.0	-541.0	53704.0
29	17	50	1	784	224.0	-202703.0	-526.0	53616.0
29	17	50	1	784	225.0	-203317.0	-522.0	53855.0
29	17	50	1	785	226.0	-203196.0	-527.0	54294.0
29	17	50	1	786	227.0	-202769.0	-539.0	54399.0
29	17	50	1	786	228.0	-201827.0	-537.0	54155.0
29	17	50	1	787	230.0	-197882.0	-546.0	53808.0
29	17	50	1	787	231.0	-195340.0	-546.0	54186.0
29	17	50	1	788	232.0	-192989.0	-556.0	53851.0
29	17	50	1	789	233.0	-190990.0	-542.0	53901.0
29	17	50	1	789	234.0	-189619.0	-531.0	53943.0
29	17	50	1	790	235.0	-188569.0	-532.0	53846.0
29	17	50	1	823	236.0	-188206.0	-530.0	53566.0
29	17	50	1	824	237.0	-188169.0	-531.0	53240.0
29	17	50	1	825	238.0	-187675.0	-542.0	52868.0
29	17	50	1	825	239.0	-187088.0	-561.0	53059.0
29	17	50	1	826	240.0	-186787.0	-575.0	52916.0
29	17	50	1	827	241.0	-187341.0	-593.0	52120.0
29	17	50	1	828	242.0	-189726.0	-596.0	52409.0
29	17	50	1	828	243.0	-193202.0	-592.0	52899.0
29	17	50	1	829	244.0	-196890.0	-600.0	52446.0
29	17	50	1	830	245.0	-200669.0	-618.0	51979.0
29	17	50	1	830	246.0	-204765.0	-639.0	52870.0
29	17	50	1	831	247.0	-208759.0	-653.0	52461.0
29	17	50	1	832	248.0	-212962.0	-670.0	51961.0
29	17	50	1	832	249.0	-217311.0	-682.0	52247.0
29	17	50	1	833	250.0	-221249.0	-687.0	52028.0
29	17	50	1	833	252.0	-226638.0	-732.0	51700.0
29	17	50	1	834	253.0	-227751.0	-735.0	51331.0
29	17	50	1	835	254.0	-228129.0	-731.0	51023.0
29	17	50	1	835	255.0	-227833.0	-729.0	51842.0
29	17	50	1	836	0.0	-227555.0	-744.0	52597.0
29	17	50	1	836	1.0	-227923.0	-761.0	52707.0
29	17	50	1	867	2.0	-227969.0	-755.0	52874.0
29	17	50	1	868	3.0	-227426.0	-772.0	52898.0
29	17	50	1	869	4.0	-226804.0	-781.0	52256.0
29	17	50	1	912	5.0	-225826.0	-791.0	51643.0
29	17	50	1	913	6.0	-223659.0	-816.0	50971.0
29	17	50	1	913	7.0	-220683.0	-816.0	50952.0
29	17	50	1	914	8.0	-216979.0	-833.0	50009.0
29	17	50	1	915	9.0	-212586.0	-842.0	50668.0
29	17	50	1	916	10.0	-207701.0	-871.0	50569.0
29	17	50	1	916	11.0	-203355.0	-889.0	50036.0
29	17	50	1	917	12.0	-199900.0	-911.0	50722.0
29	17	50	1	917	13.0	-196750.0	-926.0	50659.0
29	17	50	1	918	14.0	-193862.0	-921.0	49946.0
29	17	50	1	919	15.0	-190922.0	-920.0	49955.0
29	17	50	1	920	16.0	-188302.0	-935.0	49900.0
29	17	50	1	921	19.0	-181346.0	-969.0	50495.0
29	17	50	1	921	20.0	-179346.0	-979.0	50096.0
29	17	50	1	922	21.0	-178142.0	-979.0	49444.0
29	17	50	1	923	22.0	-177177.0	-983.0	49351.0
29	17	50	1	923	41.0	-186517.0	-1182.0	48899.0
29	17	50	1	924	42.0	-186548.0	-1191.0	49021.0
29	17	50	1	925	43.0	-186189.0	-1179.0	48734.0
29	17	50	1	925	44.0	-185369.0	-1194.0	48596.0
29	17	50	1	926	45.0	-183634.0	-1214.0	49034.0
29	17	50	1	926	46.0	-181433.0	-1203.0	48793.0
29	17	50	1	927	47.0	-178818.0	-1199.0	48395.0
29	17	50	1	957	48.0	-175789.0	-1224.0	48726.0
29	17	50	1	958	49.0	-172545.0	-1225.0	48999.0
29	17	50	1	959	50.0	-170522.0	-1213.0	49044.0
29	17	50	1	960	51.0	-169094.0	-1242.0	48764.0
29	17	50	1	960	52.0	-167912.0	-1257.0	49016.0
29	17	50	1	961	53.0	-168383.0	-1276.0	49003.0
29	17	50	1	962	54.0	-170536.0	-1276.0	48463.0
29	17	50	1	962	55.0	-172356.0	-1292.0	48621.0
29	17	50	1	963	56.0	-172407.0	-1316.0	48706.0
29	17	50	1	964	57.0	-173527.0	-1325.0	47955.0
29	17	50	1	964	58.0	-174439.0	-1349.0	47565.0
29	17	50	1	965	59.0	-174591.0	-1341.0	47697.0
29	17	50	1	965	60.0	-175344.0	-1362.0	47738.0
29	17	50	1	966	61.0	-176404.0	-1391.0	47596.0
29	17	50	1	967	62.0	-177431.0	-1419.0	47319.0
29	17	50	1	967	63.0	-178144.0	-1446.0	47282.0
29	17	50	1	968	64.0	-179484.0	-1469.0	47268.0
29	17	50	1	969	65.0	-180552.0	-1479.0	47821.0
29	17	50	1	969	66.0	-181157.0	-1482.0	47735.0
29	17	50	1	970	67.0	-181571.0	-1476.0	47414.0
29	17	50	1	970	68.0	-181251.0	-1474.0	47164.0
29	17	50	1	971	69.0	-180809.0	-1496.0	47088.0
29	17	50	2	2	70.0	-179297.0	-1497.0	46806.0
29	17	50	2	3	71.0	-178441.0	-1516.0	47076.0
29	17	50	2	4	72.0	-178520.0	-1533.0	47569.0
29	17	50	2	4	73.0	-178504.0	-1566.0	47154.0
29	17	50	2	5	74.0	-177765.0	-1590.0	46941.0
29	17	50	2	6	75.0	-177217.0	-1612.0	47058.0
29	17	50	2	6	76.0	-175350.0	-1625.0	46601.0
29	17	50	2	7	77.0	-172502.0	-1634.0	46556.0
29	17	50	2	8	78.0	-170351.0	-1676.0	46914.0
29	17	50	2	8	79.0	-167831.0	-1681.0	46992.0
29	17	50	2	9	80.0	-165901.0	-1699.0	46970.0
29	17	50	2	10	81.0	-164649.0	-1723.0	46698.0
29	17	50	2	10	82.0	-163293.0	-1772.0	46357.0
29	17	50	2	11	83.0	-161494.0	-1799.0	46483.0
29	17	50	2	12	84.0	-159952.0	-1821.0	46595.0
29	17	50	2	12	86.0	-157463.0	-1862.0	45766.0
29	17	50	2	13	87.0	-157569.0	-1889.0	45924.0
29	17	50	2	14	88.0	-158094.0	-1912.0	46187.0
29	17	50	2	14	89.0	-158847.0	-1931.0	46453.0
29	17	50	2	15	90.0	-160593.0	-1926.0	46745.0
29	17	50	2	15	91.0	-162619.0	-1949.0	46793.0
29	17	50	2	48	92.0	-164467.0	-1972.0	46544.0
29	17	50	2	48	93.0	-166226.0	-1997.0	46588.0
29	17	50	2	49	94.0	-166930.0	-2019.0	46553.0
29	17	50	2	50	95.0	-167045.0	-2056.0	46438.0
29	17	50	2	51	96.0	-167081.0	-2107.0	46613.0
29	17	50	2	51	97.0	-166712.0	-2131.0	46003.0
29	17	50	2	52	98.0	-166481.0	-2152.0	45829.0
29	17	50	2	53	99.0	-166239.0	-2169.0	46114.0
29	17	50	2	54	100.0	-166287.0	-2211.0	46311.0
29	17	50	2	54	101.0	-166297.0	-2246.0	45941.0
29	17	50	2	55	102.0	-166321.0	-2292.0	46061.0
29	17	50	2	56	103.0	-166212.0	-2306.0	45851.0
29	17	50	2	57	104.0	-166616.0	-2331.0	45326.0
29	17	50	2	57	105.0	-166475.0	-2374.0	45282.0
29	17	50	2	58	106.0	-166544.0	-2405.0	45022.0
29	17	50	2	58	108.0	-167274.0	-2448.0	44882.0
29	17	50	2	59	109.0	-167334.0	-2482.0	45004.0
29	17	50	2	60	110.0	-167945.0	-2492.0	45010.0
29	17	50	2	60	111.0	-168482.0	-2518.0	44973.0
29	17	50	2	61	112.0	-169269.0	-2556.0	44736.0
29	17	50	2	61	113.0	-170330.0	-2584.0	44557.0
29	17	50	2	62	114.0	-171267.0	-2601.0	44386.0
29	17	50	2	93	115.0	-171728.0	-2629.0	44489.0
29	17	50	2	94	116.0	-172511.0	-2658.0	44292.0
29	17	50	2	95	117.0	-173197.0	-2677.0	44810.0
29	17	50	2	95	118.0	-173861.0	-2707.0	44962.0
29	17	50	2	96	119.0	-174621.0	-2740.0	44879.0
29	17	50	2	97	120.0	-174318.0	-2767.0	44891.0
29	17	50	2	97	121.0	-174505.0	-2803.0	44395.0
29	17	50	2	98	122.0	-174315.0	-2840.0	44161.0
29	17	50	2	99	123.0	-173073.0	-2879.0	44221.0
29	17	50	2	99	124.0	-171734.0	-2896.0	44294.0
29	17	50	2	100	125.0	-169806.0	-2932.0	43638.0
29	17	50	2	101	126.0	-166765.0	-2969.0	43396.0
29	17	50	2	101	127.0	-163681.0	-2993.0	43329.0
29	17	50	2	102	128.0	-160983.0	-3020.0	43068.0
29	17	50	2	103	129.0	-157589.0	-3048.0	43135.0
29	17	50	2	103	131.0	-152249.0	-3129.0	43966.0
29	17	50	2	104	132.0	-149989.0	-3149.0	43168.0
29	17	50	2	105	133.0	-148232.0	-3162.0	43033.0
29	17	50	2	105	134.0	-146984.0	-3183.0	43368.0
29	17	50	2	106	135.0	-146053.0	-3207.0	43075.0
29	17	50	2	106	136.0	-145774.0	-3226.0	43268.0
29	17	50	2	138	137.0	-146256.0	-3232.0	43371.0
29	17	50	2	138	138.0	-147496.0	-3254.0	43231.0
29	17	50	2	139	139.0	-149339.0	-3287.0	43322.0
29	17	50	2	140	140.0	-151677.0	-3330.0	43748.0
29	17	50	2	140	141.0	-153714.0	-3381.0	44351.0
29	17	50	2	141	142.0	-155502.0	-3399.0	45147.0
29	17	50	2	142	143.0	-156777.0	-3415.0	44903.0
29	17	50	2	142	144.0	-157674.0	-3456.0	44641.0
29	17	50	2	143	145.0	-158279.0	-3466.0	44040.0
29	17	50	2	144	146.0	-157602.0	-3489.0	43894.0
29	17	50	2	145	147.0	-157197.0	-3534.0	43569.0
29	17	50	2	145	148.0	-157199.0	-3568.0	43573.0
29	17	50	2	146	149.0	-156707.0	-3604.0	43611.0
29	17	50	2	147	150.0	-156151.0	-3627.0	43320.0
29	17	50	2	147	151.0	-156488.0	-3667.0	43219.0
29	17	50	2	148	153.0	-157237.0	-3712.0	42616.0
29	17	50	2	149	154.0	-157802.0	-3745.0	43068.0
29	17	50	2	149	155.0	-158896.0	-3761.0	43093.0
29	17	50	2	150	156.0	-160565.0	-3782.0	42903.0
29	17	50	2	150	157.0	-162024.0	-3811.0	42967.0
29	17	50	2	151	158.0	-164259.0	-3820.0	43096.0
29	17	50	2	151	159.0	-167217.0	-3834.0	43012.0
29	17	50	2	182	160.0	-169525.0	-3854.0	43113.0
29	17	50	2	183	161.0	-171764.0	-3883.0	43850.0
29	17	50	2	184	162.0	-174079.0	-3900.0	43798.0
29	17	50	2	184	163.0	-175607.0	-3936.0	43724.0
29	17	50	2	185	164.0	-176302.0	-3968.0	43911.0
29	17	50	2	186	165.0	-176456.0	-4002.0	43767.0
29	17	50	2	187	166.0	-176274.0	-4018.0	43051.0
29	17	50	2	187	167.0	-175521.0	-4028.0	42891.0
29	17	50	2	188	168.0	-173960.0	-4073.0	43071.0
29	17	50	2	189	169.0	-172476.0	-4093.0	42700.0
29	17	50	2	189	170.0	-171525.0	-4118.0	42652.0
29	17	50	2	190	171.0	-170102.0	-4158.0	43013.0
29	17	50	2	191	172.0	-168217.0	-4184.0	42970.0
29	17	50	2	192	173.0	-166451.0	-4213.0	42501.0
29	17	50	2	192	174.0	-165196.0	-4226.0	42766.0
29	17	50	2	193	176.0	-161554.0	-4272.0	42883.0
29	17	50	2	194	177.0	-160809.0	-4288.0	43018.0
29	17	50	2	194	178.0	-159652.0	-4297.0	43097.0
29	17	50	2	195	179.0	-158519.0	-4308.0	42872.0
29	17	50	2	195	180.0	-157229.0	-4330.0	43144.0
29	17	50	2	196	181.0	-155719.0	-4347.0	43049.0
29	17	50	2	228	182.0	-153679.0	-4354.0	42880.0
29	17	50	2	228	183.0	-151194.0	-4367.0	43015.0
29	17	50	2	229	184.0	-148276.0	-4392.0	42964.0
29	17	50	2	230	185.0	-145538.0	-4410.0	42904.0
29	17	50	2	231	186.0	-142345.0	-4423.0	42594.0
29	17	50	2	232	187.0	-138649.0	-4452.0	41999.0
29	17	50	2	233	188.0	-135074.0	-4482.0	41723.0
29	17	50	2	233	189.0	-131499.0	-4506.0	42405.0
29	17	50	2	234	190.0	-128401.0	-4534.0	42598.0
29	17	50	2	235	191.0	-125429.0	-4560.0	42049.0
29	17	50	2	235	192.0	-122755.0	-4571.0	41991.0
29	17	50	2	236	193.0	-121109.0	-4587.0	41868.0
29	17	50	2	237	194.0	-119741.0	-4597.0	41498.0
29	17	50	2	237	195.0	-119007.0	-4622.0	41920.0
29	17	50	2	238	196.0	-118787.0	-4651.0	41747.0
29	17	50	2	239	198.0	-118736.0	-4683.0	41627.0
29	17	50	2	239	199.0	-119646.0	-4694.0	42386.0
29	17	50	2	240	200.0	-120767.0	-4715.0	42938.0
29	17	50	2	240	201.0	-122992.0	-4717.0	43111.0
29	17	50	2	241	202.0	-125197.0	-4728.0	43519.0
29	17	50	2	242	203.0	-127159.0	-4730.0	43064.0
29	17	50	2	272	204.0	-129457.0	-4733.0	42664.0
29	17	50	2	273	205.0	-130963.0	-4765.0	41662.0
29	17	50	2	274	206.0	-131683.0	-4767.0	40019.0
29	17	50	2	275	207.0	-132644.0	-4809.0	37039.0
29	17	50	2	275	208.0	-133006.0	-4824.0	34050.0
29	17	50	2	276	209.0	-132701.0	-4816.0	30318.0
29	17	50	2	277	210.0	-132067.0	-4851.0	26415.0
29	17	50	2	277	211.0	-131097.0	-4869.0	22150.0
29	17	50	2	278	212.0	-130554.0	-4868.0	17526.0
29	17	50	2	279	213.0	-130226.0	-4890.0	14217.0
29	17	50	2	280	214.0	-130722.0	-4904.0	11291.0
29	17	50	2	280	215.0	-133623.0	-4932.0	6611.0
29	17	50	2	281	216.0	-138425.0	-4939.0	2099.0
29	17	50	2	281	217.0	-144413.0	-4954.0	-3202.0
29	17	50	2	282	218.0	-150909.0	-4981.0	-9981.0
29	17	50	2	283	220.0	-162813.0	-4997.0	-9725.0
29	17	50	2	283	221.0	-166746.0	-5016.0	-3349.0
29	17	50	2	284	222.0	-169696.0	-5011.0	4109.0
29	17	50	2	285	223.0	-172689.0	-5026.0	11849.0
29	17	50	2	285	224.0	-174067.0	-5027.0	18279.0
29	17	50	2	286	225.0	-172711.0	-5032.0	24521.0
29	17	50	2	286	226.0	-171611.0	-5021.0	30796.0
29	17	50	2	317	227.0	-168332.0	-5024.0	33513.0
29	17	50	2	318	228.0	-176338.0	-5034.0	34636.0
29	17	50	2	319	229.0	-178491.0	-5026.0	35343.0
29	17	50	2	320	230.0	-180592.0	-5019.0	35156.0
29	17	50	2	320	231.0	-181189.0	-5045.0	34770.0
29	17	50	2	321	232.0	-176926.0	-5067.0	34768.0
29	17	50	2	321	233.0	-166541.0	-5062.0	34836.0
29	17	50	2	322	234.0	-146690.0	-5079.0	34785.0
29	17	50	2	323	235.0	-113097.0	-5099.0	34956.0
29	17	50	2	324	236.0	-77149.0	-5106.0	35288.0
29	17	50	2	324	237.0	-51874.0	-5097.0	35405.0
29	17	50	2	325	238.0	-30654.0	-5102.0	35377.0
29	17	50	2	325	239.0	-21282.0	-5097.0	35893.0
29	17	50	2	326	240.0	-22717.0	-5096.0	36294.0
29	17	50	2	327	241.0	-33733.0	-5114.0	36111.0
29	17	50	2	327	243.0	-71351.0	-5124.0	36418.0
29	17	50	2	328	244.0	-98642.0	-5121.0	36486.0
29	17	50	2	329	245.0	-122618.0	-5119.0	36646.0
29	17	50	2	329	246.0	-138784.0	-5124.0	37163.0
29	17	50	2	330	247.0	-150668.0	-5139.0	36966.0
29	17	50	2	330	248.0	-161947.0	-5119.0	37218.0
29	17	50	2	363	249.0	-170494.0	-5087.0	37568.0
29	17	50	2	363	250.0	-174039.0	-5092.0	37383.0
29	17	50	2	364	251.0	-173366.0	-5096.0	37084.0
29	17	50	2	365	252.0	-171665.0	-5111.0	36774.0
29	17	50	2	366	253.0	-170432.0	-5106.0	36554.0
29	17	50	2	366	254.0	-169711.0	-5106.0	36317.0
29	17	50	2	367	255.0	-165036.0	-5137.0	35687.0
29	17	50	2	368	0.0	-156067.0	-5132.0	35564.0
29	17	50	2	368	1.0	-145246.0	-5138.0	36451.0
29	17	50	2	369	2.0	-134864.0	-5129.0	36798.0
29	17	50	2	370	3.0	-126519.0	-5141.0	36741.0
29	17	50	2	370	4.0	-121494.0	-5150.0	36939.0
29	17	50	2	371	5.0	-118939.0	-5146.0	36984.0
29	17	50	2	372	6.0	-115772.0	-5152.0	36207.0
29	17	50	2	372	7.0	-109431.0	-5165.0	36056.0
29	17	50	2	373	9.0	-89259.0	-5164.0	35966.0
29	17	50	2	373	10.0	-76922.0	-5181.0	35711.0
29	17	50	2	374	11.0	-66120.0	-5181.0	35792.0
29	17	50	2	375	12.0	-58534.0	-5177.0	35998.0
29	17	50	2	375	13.0	-53991.0	-5164.0	36006.0
29	17	50	2	376	14.0	-53682.0	-5172.0	36302.0
29	17	50	2	376	15.0	-55601.0	-5168.0	36519.0
29	17	50	2	407	16.0	-59219.0	-5174.0	35934.0
29	17	50	2	408	17.0	-64231.0	-5169.0	35587.0
29	17	50	2	408	18.0	-69649.0	-5171.0	35486.0
29	17	50	2	409	19.0	-74154.0	-5182.0	35346.0
29	17	50	2	410	20.0	-77756.0	-5192.0	35542.0
29	17	50	2	411	21.0	-81002.0	-5216.0	35389.0
29	17	50	2	411	22.0	-83037.0	-5225.0	35350.0
29	17	50	2	412	23.0	-84147.0	-5212.0	35411.0
29	17	50	2	413	24.0	-84959.0	-5232.0	35629.0
29	17	50	2	413	25.0	-85754.0	-5250.0	35401.0
29	17	50	2	414	26.0	-86864.0	-5267.0	35171.0
29	17	50	2	414	27.0	-88492.0	-5265.0	35022.0
29	17	50	2	415	28.0	-88221.0	-5303.0	34501.0
29	17	50	2	416	29.0	-87375.0	-5316.0	34649.0
29	17	50	2	417	30.0	-84293.0	-5313.0	34949.0
29	17	50	2	418	32.0	-75782.0	-5346.0	34908.0
29	17	50	2	419	33.0	-72718.0	-5356.0	34678.0
29	17	50	2	419	34.0	-70264.0	-5372.0	34373.0
29	17	50	2	420	35.0	-70827.0	-5377.0	34475.0
29	17	50	2	421	36.0	-73177.0	-5374.0	34408.0
29	17	50	2	421	37.0	-75183.0	-5384.0	34242.0
29	17	50	2	453	38.0	-79012.0	-5409.0	34236.0
29	17	50	2	454	39.0	-82789.0	-5410.0	34528.0
29	17	50	2	454	40.0	-86015.0	-5414.0	33684.0
29	17	50	2	455	41.0	-90487.0	-5444.0	33535.0
29	17	50	2	456	42.0	-96156.0	-5458.0	33765.0
29	17	50	2	457	43.0	-102577.0	-5479.0	33525.0
29	17	50	2	457	44.0	-109067.0	-5495.0	33273.0
29	17	50	2	458	45.0	-114867.0	-5523.0	33693.0
29	17	50	2	459	46.0	-122007.0	-5546.0	33319.0
29	17	50	2	460	47.0	-128601.0	-5554.0	33078.0
29	17	50	2	460	48.0	-134014.0	-5571.0	32903.0
29	17	50	2	461	49.0	-138434.0	-5597.0	33409.0
29	17	50	2	462	50.0	-142411.0	-5617.0	33341.0
29	17	50	2	462	51.0	-145579.0	-5641.0	33151.0
29	17	50	2	463	52.0	-148245.0	-5673.0	33574.0
29	17	50	2	464	54.0	-152817.0	-5696.0	33431.0
29	17	50	2	464	55.0	-153954.0	-5736.0	33194.0
29	17	50	2	465	56.0	-154756.0	-5762.0	32653.0
29	17	50	2	465	57.0	-154674.0	-5754.0	32529.0
29	17	50	2	466	58.0	-153026.0	-5766.0	32539.0
29	17	50	2	466	59.0	-151729.0	-5785.0	32309.0
29	17	50	2	467	60.0	-149960.0	-5793.0	31469.0
29	17	50	2	497	61.0	-147323.0	-5819.0	31147.0
29	17	50	2	498	62.0	-145371.0	-5814.0	31269.0
29	17	50	2	499	63.0	-143991.0	-5833.0	31394.0
29	17	50	2	499	64.0	-143702.0	-5839.0	31231.0
29	17	50	2	500	65.0	-144244.0	-5864.0	31289.0
29	17	50	2	501	66.0	-143717.0	-5888.0	31287.0
29	17	50	2	501	67.0	-142443.0	-5909.0	31060.0
29	17	50	2	502	68.0	-142052.0	-5913.0	30947.0
29	17	50	2	503	69.0	-140806.0	-5926.0	30750.0
29	17	50	2	503	70.0	-136996.0	-5919.0	30666.0
29	17	50	2	504	71.0	-131557.0	-5936.0	30528.0
29	17	50	2	505	72.0	-127553.0	-5945.0	30758.0
29	17	50	2	505	73.0	-123912.0	-5931.0	30752.0
29	17	50	2	506	74.0	-119626.0	-5912.0	30673.0
29	17	50	2	507	75.0	-115797.0	-5924.0	30741.0
29	17	50	2	507	77.0	-107645.0	-5911.0	30288.0
29	17	50	2	508	78.0	-108685.0	-5900.0	30094.0
29	17	50	2	508	79.0	-111103.0	-5864.0	30206.0
29	17	50	2	509	80.0	-113537.0	-5846.0	30429.0
29	17	50	2	510	81.0	-114927.0	-5800.0	30183.0
29	17	50	2	510	82.0	-116044.0	-5789.0	30441.0
29	17	50	2	542	83.0	-116077.0	-5729.0	30343.0
29	17	50	2	543	84.0	-118094.0	-5693.0	30016.0
29	17	50	2	544	85.0	-120128.0	-5673.0	30116.0
29	17	50	2	545	86.0	-122584.0	-5631.0	30097.0
29	17	50	2	545	87.0	-125064.0	-5588.0	29713.0
29	17	50	2	546	88.0	-127150.0	-5561.0	28941.0
29	17	50	2	547	89.0	-128220.0	-5518.0	28985.0
29	17	50	2	548	90.0	-128162.0	-5466.0	28903.0
29	17	50	2	548	91.0	-128751.0	-5422.0	28848.0
29	17	50	2	549	92.0	-129337.0	-5356.0	29018.0
29	17	50	2	550	93.0	-131464.0	-5296.0	28789.0
29	17	50	2	550	94.0	-136477.0	-5204.0	28624.0
29	17	50	2	551	95.0	-141977.0	-5149.0	28471.0
29	17	50	2	552	96.0	-147559.0	-5073.0	28009.0
29	17	50	2	552	97.0	-153670.0	-5007.0	27526.0
29	17	50	2	553	99.0	-164326.0	-4863.0	27214.0
29	17	50	2	554	100.0	-171102.0	-4769.0	26934.0
29	17	50	2	554	101.0	-177659.0	-4679.0	26681.0
29	17	50	2	555	102.0	-183982.0	-4583.0	26249.0
29	17	50	2	556	103.0	-189576.0	-4484.0	26031.0
29	17	50	2	557	104.0	-193745.0	-4363.0	26111.0
29	17	50	2	558	105.0	-196583.0	-4264.0	25889.0
29	17	50	2	586	106.0	-198224.0	-4182.0	25888.0
29	17	50	2	587	107.0	-199434.0	-4105.0	25832.0
29	17	50	2	588	108.0	-201003.0	-4016.0	25317.0
29	17	50	2	588	109.0	-202648.0	-3922.0	25084.0
29	17	50	2	589	110.0	-204306.0	-3842.0	24990.0
29	17	50	2	589	111.0	-205700.0	-3760.0	24241.0
29	17	50	2	590	112.0	-206960.0	-3665.0	24244.0
29	17	50	2	590	113.0	-209102.0	-3559.0	24459.0
29	17	50	2	591	114.0	-210109.0	-3477.0	24521.0
29	17	50	2	592	115.0	-210968.0	-3399.0	24419.0
29	17	50	2	592	116.0	-211305.0	-3310.0	23926.0
29	17	50	2	600	117.0	-211831.0	-3202.0	23792.0
29	17	50	2	601	118.0	-213109.0	-3128.0	23261.0
29	17	50	2	602	119.0	-213677.0	-3062.0	23206.0
29	17	50	2	602	120.0	-213922.0	-2979.0	23218.0
29	17	50	2	603	122.0	-212995.0	-2797.0	22453.0
29	17	50	2	603	123.0	-212766.0	-2711.0	22526.0
29	17	50	2	604	124.0	-212587.0	-2616.0	22517.0
29	17	50	2	604	125.0	-213940.0	-2530.0	22251.0
29	17	50	2	605	126.0	-215376.0	-2452.0	22143.0
29	17	50	2	606	127.0	-216367.0	-2365.0	21938.0
29	17	50	2	632	128.0	-217461.0	-2280.0	21541.0
29	17	50	2	633	129.0	-218437.0	-2207.0	21598.0
29	17	50	2	634	130.0	-219422.0	-2139.0	21451.0
29	17	50	2	634	131.0	-220511.0	-2082.0	21648.0
29	17	50	2	635	132.0	-221069.0	-2007.0	21801.0
29	17	50	2	635	133.0	-222346.0	-1943.0	21614.0
29	17	50	2	636	134.0	-223797.0	-1881.0	21940.0
29	17	50	2	637	135.0	-226244.0	-1814.0	21950.0
29	17	50	2	637	136.0	-227603.0	-1763.0	21518.0
29	17	50	2	638	137.0	-224972.0	-1720.0	21427.0
29	17	50	2	639	138.0	-219624.0	-1672.0	21469.0
29	17	50	2	639	139.0	-215557.0	-1602.0	20787.0
29	17	50	2	640	140.0	-212836.0	-1534.0	20745.0
29	17	50	2	641	141.0	-213224.0	-1472.0	20921.0
29	17	50	2	642	142.0	-213682.0	-1436.0	20748.0
29	17	50	2	642	144.0	-221371.0	-1334.0	21413.0
29	17	50	2	643	145.0	-225736.0	-1297.0	21858.0
29	17	50	2	644	146.0	-226462.0	-1261.0	21583.0
29	17	50	2	644	147.0	-226269.0	-1206.0	21494.0
29	17	50	2	645	148.0	-224356.0	-1139.0	21370.0
29	17	50	2	645	149.0	-220666.0	-1079.0	21094.0
29	17	50	2	677	150.0	-216154.0	-1046.0	21143.0
29	17	50	2	678	151.0	-211996.0	-1006.0	21289.0
29	17	50	2	679	152.0	-209612.0	-962.0	21121.0
29	17	50	2	679	153.0	-208326.0	-935.0	21056.0
29	17	50	2	680	154.0	-209181.0	-901.0	21420.0
29	17	50	2	681	155.0	-212811.0	-867.0	21408.0
29	17	50	2	681	156.0	-217906.0	-831.0	21134.0
29	17	50	2	682	157.0	-222869.0	-814.0	21347.0
29	17	50	2	682	158.0	-227754.0	-771.0	21489.0
29	17	50	2	683	159.0	-231407.0	-751.0	21196.0
29	17	50	2	683	160.0	-233736.0	-719.0	21489.0
29	17	50	2	684	161.0	-235256.0	-687.0	21409.0
29	17	50	2	685	162.0	-237437.0	-659.0	21168.0
29	17	50	2	685	163.0	-239811.0	-642.0	21194.0
29	17	50	2	686	164.0	-241119.0	-615.0	21388.0
29	17	50	2	686	166.0	-244153.0	-572.0	21270.0
29	17	50	2	687	167.0	-245216.0	-572.0	20954.0
29	17	50	2	688	168.0	-245476.0	-529.0	20736.0
29	17	50	2	688	169.0	-244524.0	-491.0	20916.0
29	17	50	2	689	170.0	-242911.0	-456.0	20639.0
29	17	50	2	689	171.0	-240558.0	-437.0	20569.0
29	17	50	2	698	172.0	-238369.0	-392.0	20927.0
29	17	50	2	722	173.0	-237407.0	-372.0	21313.0
29	17	50	2	723	174.0	-236892.0	-353.0	20891.0
29	17	50	2	724	175.0	-237568.0	-333.0	20789.0
29	17	50	2	724	176.0	-238546.0	-339.0	20929.0
29	17	50	2	725	177.0	-239676.0	-331.0	20689.0
29	17	50	2	725	178.0	-240527.0	-310.0	20852.0
29	17	50	2	726	179.0	-241021.0	-310.0	20959.0
29	17	50	2	727	180.0	-241463.0	-292.0	21089.0
29	17	50	2	727	181.0	-242040.0	-275.0	20521.0
29	17	50	2	728	182.0	-242681.0	-280.0	20828.0
29	17	50	2	729	183.0	-243728.0	-255.0	20777.0
29	17	50	2	729	184.0	-244336.0	-253.0	20643.0
29	17	50	2	730	185.0	-245963.0	-246.0	20690.0
29	17	50	2	730	186.0	-247222.0	-240.0	20636.0
29	17	50	2	731	187.0	-247574.0	-231.0	20082.0
29	17	50	2	732	189.0	-246225.0	-222.0	20561.0
29	17	50	2	732	190.0	-244806.0	-229.0	20499.0
29	17	50	2	733	191.0	-242737.0	-224.0	20193.0
29	17	50	2	733	192.0	-241011.0	-204.0	20586.0
29	17	50	2	734	193.0	-238880.0	-175.0	20350.0
29	17	50	2	734	194.0	-235955.0	-170.0	20101.0
29	17	50	2	767	195.0	-233416.0	-182.0	20309.0
29	17	50	2	768	196.0	-230559.0	-184.0	19781.0
29	17	50	2	768	197.0	-227622.0	-181.0	19715.0
29	17	50	2	769	198.0	-225074.0	-187.0	19880.0
29	17	50	2	769	199.0	-221882.0	-177.0	19714.0
29	17	50	2	770	200.0	-219671.0	-196.0	19458.0
29	17	50	2	770	201.0	-216933.0	-216.0	19453.0
29	17	50	2	771	202.0	-214347.0	-214.0	19558.0
29	17	50	2	772	203.0	-211703.0	-216.0	19838.0
29	17	50	2	772	204.0	-208900.0	-236.0	19833.0
29	17	50	2	773	205.0	-206912.0	-224.0	19986.0
29	17	50	2	773	206.0	-205817.0	-247.0	20136.0
29	17	50	2	774	207.0	-204526.0	-269.0	19309.0
29	17	50	2	775	208.0	-204784.0	-277.0	18634.0
29	17	50	2	775	209.0	-205271.0	-289.0	18596.0
29	17	50	2	776	211.0	-208196.0	-282.0	18338.0
29	17	50	2	776	212.0	-210167.0	-314.0	18528.0
29	17	50	2	777	213.0	-212093.0	-324.0	19091.0
29	17	50	2	778	214.0	-213834.0	-326.0	19543.0
29	17	50	2	778	215.0	-215269.0	-348.0	19686.0
29	17	50	2	779	216.0	-216031.0	-360.0	19516.0
29	17	50	2	779	217.0	-216142.0	-363.0	19375.0
29	17	50	2	812	218.0	-216752.0	-362.0	19081.0
29	17	50	2	813	219.0	-216768.0	-382.0	19445.0
29	17	50	2	814	220.0	-217097.0	-400.0	19176.0
29	17	50	2	814	221.0	-217257.0	-418.0	18291.0
29	17	50	2	815	222.0	-216937.0	-433.0	18698.0
29	17	50	2	816	223.0	-216784.0	-462.0	19350.0
29	17	50	2	816	224.0	-216755.0	-490.0	19186.0
29	17	50	2	817	225.0	-216973.0	-498.0	18944.0
29	17	50	2	817	226.0	-217248.0	-511.0	18998.0
29	17	50	2	818	227.0	-218006.0	-541.0	19003.0
29	17	50	2	819	228.0	-219286.0	-570.0	18732.0
29	17	50	2	819	229.0	-220588.0	-577.0	19191.0
29	17	50	2	820	230.0	-222011.0	-606.0	18973.0
29	17	50	2	820	231.0	-224109.0	-616.0	18759.0
29	17	50	2	821	232.0	-225269.0	-640.0	18811.0
29	17	50	2	821	234.0	-226985.0	-691.0	18689.0
29	17	50	2	822	235.0	-226930.0	-693.0	18974.0
29	17	50	2	823	236.0	-226314.0	-693.0	19094.0
29	17	50	2	823	237.0	-226177.0	-714.0	18949.0
29	17	50	2	824	238.0	-225805.0	-716.0	19068.0
29	17	50	2	824	239.0	-226644.0	-717.0	18684.0
29	17	50	2	857	240.0	-228038.0	-735.0	18584.0
29	17	50	2	877	241.0	-229834.0	-738.0	18515.0
29	17	50	2	877	242.0	-231976.0	-756.0	18176.0
29	17	50	2	878	243.0	-234517.0	-765.0	18198.0
29	17	50	2	878	244.0	-236769.0	-783.0	19004.0
29	17	50	2	879	245.0	-239475.0	-807.0	18906.0
29	17	50	2	880	246.0	-241686.0	-827.0	18768.0
29	17	50	2	880	247.0	-244248.0	-837.0	19172.0
29	17	50	2	881	248.0	-247066.0	-861.0	19028.0
29	17	50	2	881	249.0	-250292.0	-879.0	18361.0
29	17	50	2	882	250.0	-253067.0	-912.0	18315.0
29	17	50	2	882	251.0	-256327.0	-917.0	18366.0
29	17	50	2	883	252.0	-260427.0	-935.0	17877.0
29	17	50	2	883	253.0	-265202.0	-942.0	17856.0
29	17	50	2	884	254.0	-270597.0	-951.0	18256.0
29	17	50	2	885	0.0	-279560.0	-996.0	18274.0
29	17	50	2	885	1.0	-283674.0	-1011.0	18524.0
29	17	50	2	886	2.0	-287632.0	-1021.0	17972.0
29	17	50	2	886	3.0	-290402.0	-1026.0	17829.0
29	17	50	2	887	4.0	-293126.0	-1029.0	18375.0
29	17	50	2	887	5.0	-295657.0	-1051.0	18096.0
29	17	50	2	888	6.0	-298019.0	-1051.0	17773.0
29	17	50	2	903	7.0	-300429.0	-1066.0	17596.0
29	17	50	2	903	8.0	-302200.0	-1072.0	17668.0
29	17	50	2	904	9.0	-303328.0	-1097.0	17847.0
29	17	50	2	905	10.0	-304421.0	-1114.0	17934.0
29	17	50	2	905	11.0	-304936.0	-1126.0	17851.0
29	17	50	2	906	12.0	-305604.0	-1159.0	17482.0
29	17	50	2	907	13.0	-306221.0	-1204.0	17286.0
29	17	50	2	907	14.0	-307092.0	-1219.0	17411.0
29	17	50	2	908	15.0	-308089.0	-1236.0	17242.0
29	17	50	2	908	16.0	-308839.0	-1253.0	17473.0
29	17	50	2	909	17.0	-309119.0	-1263.0	17405.0
29	17	50	2	910	18.0	-309157.0	-1285.0	17215.0
29	17	50	2	910	19.0	-309052.0	-1304.0	17244.0
29	17	50	2	911	20.0	-309151.0	-1336.0	17069.0
29	17	50	2	912	21.0	-308592.0	-1368.0	16759.0
29	17	50	2	912	23.0	-307592.0	-1414.0	16624.0
29	17	50	2	913	24.0	-307401.0	-1439.0	16148.0
29	17	50	2	913	25.0	-307743.0	-1463.0	15958.0
29	17	50	2	914	26.0	-308282.0	-1477.0	16050.0
29	17	50	2	914	27.0	-308910.0	-1481.0	16383.0
29	17	50	2	915	28.0	-309199.0	-1508.0	16949.0
29	17	50	2	948	29.0	-309366.0	-1532.0	16938.0
29	17	50	2	948	30.0	-309112.0	-1558.0	16463.0
29	17	50	2	949	31.0	-309106.0	-1578.0	16779.0
29	17	50	2	950	32.0	-309374.0	-1609.0	16865.0
29	17	50	2	950	33.0	-310003.0	-1637.0	16401.0
29	17	50	2	951	34.0	-311279.0	-1677.0	16133.0
29	17	50	2	952	35.0	-312446.0	-1709.0	16073.0
29	17	50	2	952	36.0	-313084.0	-1741.0	15841.0
29	17	50	2	953	37.0	-313497.0	-1771.0	15858.0
29	17	50	2	953	38.0	-313511.0	-1806.0	15923.0
29	17	50	2	954	39.0	-314081.0	-1834.0	16016.0
29	17	50	2	955	40.0	-314625.0	-1879.0	16133.0
29	17	50	2	955	41.0	-315330.0	-1917.0	15837.0
29	17	50	2	956	42.0	-315857.0	-1969.0	15937.0
29	17	50	2	956	43.0	-316840.0	-2006.0	15686.0
29	17	50	2	957	45.0	-320153.0	-2083.0	15271.0
29	17	50	2	958	46.0	-322287.0	-2124.0	14844.0
29	17	50	2	958	47.0	-324581.0	-2149.0	15016.0
29	17	50	2	959	48.0	-326940.0	-2187.0	14819.0
29	17	50	2	959	49.0	-329881.0	-2215.0	15076.0
29	17	50	2	960	50.0	-332351.0	-2242.0	15159.0
29	17	50	2	961	51.0	-334135.0	-2273.0	15167.0
29	17	50	2	992	52.0	-335707.0	-2308.0	15101.0
29	17	50	2	993	53.0	-336536.0	-2344.0	15238.0
29	17	50	2	994	54.0	-336943.0	-2399.0	14606.0
29	17	50	2	994	55.0	-337396.0	-2422.0	14004.0
29	17	50	2	995	56.0	-337649.0	-2467.0	14100.0
29	17	50	2	996	57.0	-337855.0	-2516.0	14222.0
29	17	50	2	996	58.0	-337519.0	-2554.0	14442.0
29	17	50	2	997	59.0	-336954.0	-2607.0	15416.0
29	17	50	2	997	60.0	-335427.0	-2654.0	15824.0
29	17	50	2	998	61.0	-333461.0	-2687.0	15686.0
29	17	50	2	999	62.0	-331117.0	-2727.0	15541.0
29	17	50	2	999	63.0	-328533.0	-2783.0	15205.0
29	17	50	3	0	64.0	-326034.0	-2831.0	14556.0
29	17	50	3	1	65.0	-323510.0	-2882.0	14081.0
29	17	50	3	1	66.0	-321754.0	-2907.0	13901.0
29	17	50	3	2	68.0	-319642.0	-3008.0	13463.0
29	17	50	3	2	69.0	-319110.0	-3039.0	13789.0
29	17	50	3	3	70.0	-319204.0	-3072.0	14009.0
29	17	50	3	4	71.0	-320012.0	-3109.0	13946.0
29	17	50	3	4	72.0	-320437.0	-3142.0	13950.0
29	17	50	3	5	73.0	-320616.0	-3179.0	14044.0
29	17	50	3	36	74.0	-321093.0	-3224.0	13846.0
29	17	50	3	37	75.0	-321564.0	-3248.0	13404.0
29	17	50	3	59	76.0	-322519.0	-3295.0	13351.0
29	17	50	3	60	77.0	-324029.0	-3331.0	13186.0
29	17	50	3	60	78.0	-326297.0	-3366.0	13242.0
29	17	50	3	61	79.0	-328999.0	-3424.0	13242.0
29	17	50	3	61	80.0	-330937.0	-3467.0	13116.0
29	17	50	3	62	81.0	-332190.0	-3507.0	13121.0
29	17	50	3	62	82.0	-332592.0	-3556.0	12941.0
29	17	50	3	63	83.0	-331683.0	-3578.0	12689.0
29	17	50	3	64	84.0	-329747.0	-3629.0	12456.0
29	17	50	3	64	85.0	-327330.0	-3673.0	12185.0
29	17	50	3	65	86.0	-324748.0	-3717.0	12049.0
29	17	50	3	65	87.0	-322333.0	-3775.0	11720.0
29	17	50	3	66	88.0	-319609.0	-3809.0	11129.0
29	17	50	3	66	90.0	-314837.0	-3901.0	11072.0
29	17	50	3	67	91.0	-312387.0	-3945.0	10736.0
29	17	50	3	68	92.0	-310010.0	-3952.0	9904.0
29	17	50	3	68	93.0	-307559.0	-4006.0	9856.0
29	17	50	3	69	94.0	-304754.0	-4034.0	10003.0
29	17	50	3	69	95.0	-301502.0	-4066.0	9463.0
29	17	50	3	83	96.0	-298299.0	-4093.0	9901.0
29	17	50	3	84	97.0	-295626.0	-4121.0	10391.0
29	17	50	3	84	98.0	-294012.0	-4163.0	10041.0
29	17	50	3	85	99.0	-293139.0	-4206.0	10058.0
29	17	50	3	86	100.0	-292280.0	-4240.0	10764.0
29	17	50	3	87	101.0	-291407.0	-4279.0	11406.0
29	17	50	3	87	102.0	-290747.0	-4326.0	11267.0
29	17	50	3	88	103.0	-290544.0	-4368.0	11459.0
29	17	50	3	89	104.0	-290891.0	-4417.0	11431.0
29	17	50	3	89	105.0	-291667.0	-4449.0	10939.0
29	17	50	3	90	106.0	-292776.0	-4486.0	10476.0
29	17	50	3	91	107.0	-294261.0	-4524.0	9886.0
29	17	50	3	91	108.0	-295924.0	-4557.0	9973.0
29	17	50	3	92	109.0	-298061.0	-4616.0	10054.0
29	17	50	3	92	110.0	-300011.0	-4649.0	10135.0
29	17	50	3	93	112.0	-304113.0	-4726.0	10154.0
29	17	50	3	94	113.0	-306272.0	-4754.0	9709.0
29	17	50	3	94	114.0	-308469.0	-4782.0	9631.0
29	17	50	3	95	115.0	-309860.0	-4820.0	9795.0
29	17	50	3	95	116.0	-310555.0	-4842.0	9791.0
29	17	50	3	96	117.0	-310640.0	-4874.0	9909.0
29	17	50	3	96	118.0	-309967.0	-4892.0	9978.0
29	17	50	3	127	119.0	-308129.0	-4911.0	10176.0
29	17	50	3	127	120.0	-305375.0	-4952.0	10073.0
29	17	50	3	128	121.0	-302471.0	-4992.0	9992.0
29	17	50	3	129	122.0	-299594.0	-5037.0	9604.0
29	17	50	3	129	123.0	-296488.0	-5076.0	9049.0
29	17	50	3	130	124.0	-293581.0	-5111.0	9024.0
29	17	50	3	131	125.0	-291174.0	-5154.0	9291.0
29	17	50	3	131	126.0	-290145.0	-5191.0	8813.0
29	17	50	3	132	127.0	-289618.0	-5245.0	8799.0
29	17	50	3	132	128.0	-289756.0	-5270.0	9454.0
29	17	50	3	133	129.0	-290037.0	-5302.0	9671.0
29	17	50	3	134	130.0	-289794.0	-5329.0	9339.0
29	17	50	3	134	131.0	-289465.0	-5368.0	9148.0
29	17	50	3	135	132.0	-288517.0	-5414.0	8764.0
29	17	50	3	136	133.0	-286975.0	-5444.0	8641.0
29	17	50	3	136	135.0	-281490.0	-5524.0	8341.0
29	17	50	3	137	136.0	-277915.0	-5546.0	7888.0
29	17	50	3	138	137.0	-274611.0	-5576.0	8331.0
29	17	50	3	138	138.0	-271559.0	-5606.0	8580.0
29	17	50	3	139	139.0	-269487.0	-5622.0	9193.0
29	17	50	3	140	140.0	-268917.0	-5657.0	9400.0
29	17	50	3	172	141.0	-268797.0	-5682.0	9604.0
29	17	50	3	173	142.0	-268853.0	-5704.0	9644.0
29	17	50	3	174	143.0	-269778.0	-5739.0	9579.0
29	17	50	3	175	144.0	-270241.0	-5767.0	8966.0
29	17	50	3	175	145.0	-269503.0	-5802.0	6937.0
29	17	50	3	176	146.0	-268454.0	-5838.0	4259.0
29	17	50	3	177	147.0	-266686.0	-5867.0	1337.0
29	17	50	3	177	148.0	-264523.0	-5911.0	-1981.0
29	17	50	3	178	149.0	-262558.0	-5942.0	-6181.0
29	17	50	3	179	150.0	-260839.0	-5983.0	-11237.0
29	17	50	3	179	151.0	-259242.0	-6015.0	-15908.0
29	17	50	3	180	152.0	-257391.0	-6041.0	-20135.0
29	17	50	3	181	153.0	-255761.0	-6077.0	-23120.0
29	17	50	3	181	154.0	-253851.0	-6110.0	-26002.0
29	17	50	3	182	155.0	-252032.0	-6144.0	-29413.0
29	17	50	3	182	157.0	-249831.0	-6206.0	-40754.0
29	17	50	3	183	158.0	-248523.0	-6235.0	-44072.0
29	17	50	3	184	159.0	-246601.0	-6254.0	-41669.0
29	17	50	3	184	160.0	-244047.0	-6284.0	-36497.0
29	17	50	3	185	161.0	-241534.0	-6307.0	-29446.0
29	17	50	3	185	162.0	-239403.0	-6340.0	-21121.0
29	17	50	3	186	163.0	-237382.0	-6357.0	-14033.0
29	17	50	3	218	164.0	-235237.0	-6378.0	-7004.0
29	17	50	3	218	165.0	-233629.0	-6389.0	-400.0
29	17	50	3	219	166.0	-232936.0	-6403.0	2252.0
29	17	50	3	220	167.0	-232939.0	-6428.0	2982.0
29	17	50	3	221	168.0	-233213.0	-6459.0	3641.0
29	17	50	3	221	169.0	-234034.0	-6489.0	4089.0
29	17	50	3	222	170.0	-234344.0	-6514.0	4530.0
29	17	50	3	222	171.0	-233114.0	-6541.0	4609.0
29	17	50	3	223	172.0	-228911.0	-6567.0	4469.0
29	17	50	3	224	173.0	-220436.0	-6595.0	4531.0
29	17	50	3	224	174.0	-207611.0	-6630.0	4469.0
29	17	50	3	225	175.0	-188068.0	-6667.0	4615.0
29	17	50	3	226	176.0	-163667.0	-6687.0	4654.0
29	17	50	3	226	177.0	-138027.0	-6706.0	4906.0
29	17	50	3	227	178.0	-114116.0	-6741.0	5466.0
29	17	50	3	228	180.0	-80777.0	-6787.0	5630.0
29	17	50	3	229	181.0	-76612.0	-6823.0	5495.0
29	17	50	3	230	182.0	-83406.0	-6844.0	5600.0
29	17	50	3	230	183.0	-99512.0	-6849.0	5602.0
29	17	50	3	231	184.0	-125256.0	-6861.0	5636.0
29	17	50	3	232	185.0	-158613.0	-6892.0	5833.0
29	17	50	3	263	186.0	-192248.0	-6909.0	5603.0
29	17	50	3	264	187.0	-219969.0	-6933.0	5757.0
29	17	50	3	264	188.0	-242631.0	-6971.0	5716.0
29	17	50	3	265	189.0	-263247.0	-7017.0	5258.0
29	17	50	3	266	190.0	-281254.0	-7044.0	5159.0
29	17	50	3	266	191.0	-294026.0	-7060.0	5014.0
29	17	50	3	267	192.0	-298576.0	-7087.0	4956.0
29	17	50	3	268	193.0	-296166.0	-7127.0	5249.0
29	17	50	3	268	194.0	-288562.0	-7153.0	5054.0
29	17	50	3	269	195.0	-278100.0	-7182.0	4780.0
29	17	50	3	269	196.0	-265866.0	-7209.0	5242.0
29	17	50	3	270	197.0	-253009.0	-7241.0	5434.0
29	17	50	3	271	198.0	-240374.0	-7282.0	4716.0
29	17	50	3	271	199.0	-228387.0	-7308.0	4849.0
29	17	50	3	272	200.0	-217972.0	-7330.0	5335.0
29	17	50	3	273	202.0	-200574.0	-7403.0	5246.0
29	17	50	3	273	203.0	-191108.0	-7441.0	5136.0
29	17	50	3	274	204.0	-181784.0	-7461.0	4760.0
29	17	50	3	274	205.0	-173279.0	-7482.0	4726.0
29	17	50	3	275	206.0	-166234.0	-7492.0	4942.0
29	17	50	3	276	207.0	-159932.0	-7527.0	4725.0
29	17	50	3	276	208.0	-154195.0	-7539.0	4242.0
29	17	50	3	307	209.0	-148389.0	-7548.0	4456.0
29	17	50	3	308	210.0	-143596.0	-7577.0	4037.0
29	17	50	3	308	211.0	-140958.0	-7582.0	3804.0
29	17	50	3	309	212.0	-140035.0	-7609.0	3786.0
29	17	50	3	310	213.0	-140501.0	-7643.0	3933.0
29	17	50	3	310	214.0	-141749.0	-7686.0	3968.0
29	17	50	3	311	215.0	-143929.0	-7723.0	3902.0
29	17	50	3	312	216.0	-145489.0	-7729.0	3383.0
29	17	50	3	312	217.0	-145984.0	-7763.0	3004.0
29	17	50	3	313	218.0	-145956.0	-7793.0	3095.0
29	17	50	3	314	219.0	-145377.0	-7821.0	3315.0
29	17	50	3	314	220.0	-144976.0	-7865.0	3554.0
29	17	50	3	315	221.0	-144556.0	-7882.0	3311.0
29	17	50	3	316	222.0	-143632.0	-7898.0	3106.0
29	17	50	3	317	223.0	-142396.0	-7922.0	3239.0
29	17	50	3	317	225.0	-141157.0	-7979.0	2913.0
29	17	50	3	318	226.0	-140144.0	-8012.0	2583.0
29	17	50	3	318	227.0	-138486.0	-8038.0	2774.0
29	17	50	3	319	228.0	-136674.0	-8043.0	2591.0
29	17	50	3	327	229.0	-134507.0	-8036.0	2857.0
29	17	50	3	328	230.0	-132578.0	-8059.0	3314.0
29	17	50	3	352	231.0	-130654.0	-8116.0	2959.0
29	17	50	3	353	232.0	-128302.0	-8135.0	2301.0
29	17	50	3	353	233.0	-125855.0	-8139.0	2190.0
29	17	50	3	354	234.0	-123577.0	-8177.0	2271.0
29	17	50	3	355	235.0	-122241.0	-8209.0	1832.0
29	17	50	3	356	236.0	-121563.0	-8236.0	1540.0
29	17	50	3	357	237.0	-121401.0	-8259.0	2341.0
29	17	50	3	357	238.0	-121572.0	-8294.0	2379.0
29	17	50	3	358	239.0	-122926.0	-8331.0	2452.0
29	17	50	3	359	240.0	-125755.0	-8355.0	2653.0
29	17	50	3	360	241.0	-129334.0	-8382.0	2462.0
29	17	50	3	360	242.0	-133277.0	-8411.0	2368.0
29	17	50	3	361	243.0	-137408.0	-8433.0	2969.0
29	17	50	3	362	244.0	-141815.0	-8459.0	3251.0
29	17	50	3	362	245.0	-146350.0	-8491.0	2764.0
29	17	50	3	363	247.0	-153731.0	-8532.0	2826.0
29	17	50	3	364	248.0	-157372.0	-8570.0	2667.0
29	17	50	3	364	249.0	-160773.0	-8593.0	2588.0
29	17	50	3	365	250.0	-164046.0	-8608.0	2711.0
29	17	50	3	366	251.0	-167301.0	-8625.0	2691.0
29	17	50	3	366	252.0	-170195.0	-8634.0	2324.0
29	17	50	3	367	253.0	-172357.0	-8664.0	2204.0
29	17	50	3	396	254.0	-172946.0	-8699.0	2383.0
29	17	50	3	398	255.0	-173435.0	-8706.0	2492.0
29	17	50	3	399	0.0	-172867.0	-8720.0	2564.0
29	17	50	3	400	1.0	-171686.0	-8742.0	2453.0
29	17	50	3	400	2.0	-169730.0	-8786.0	2471.0
29	17	50	3	401	3.0	-167259.0	-8804.0	2368.0
29	17	50	3	402	4.0	-164264.0	-8827.0	2561.0
29	17	50	3	402	5.0	-161539.0	-8863.0	2351.0
29	17	50	3	403	6.0	-158522.0	-8888.0	2221.0
29	17	50	3	404	7.0	-155416.0	-8914.0	2093.0
29	17	50	3	405	8.0	-152380.0	-8940.0	2151.0
29	17	50	3	405	9.0	-149924.0	-8948.0	2303.0
29	17	50	3	406	10.0	-147917.0	-8962.0	2286.0
29	17	50	3	407	11.0	-146256.0	-8980.0	2406.0
29	17	50	3	407	12.0	-144766.0	-8991.0	2866.0
29	17	50	3	408	14.0	-143976.0	-9001.0	2888.0
29	17	50	3	409	15.0	-144277.0	-9007.0	3344.0
29	17	50	3	409	16.0	-144759.0	-8995.0	3071.0
29	17	50	3	410	17.0	-144928.0	-9002.0	3003.0
29	17	50	3	410	18.0	-144981.0	-9004.0	3774.0
29	17	50	3	411	19.0	-145479.0	-8975.0	3681.0
29	17	50	3	443	20.0	-145601.0	-8963.0	2821.0
29	17	50	3	444	21.0	-145736.0	-8925.0	2872.0
29	17	50	3	444	22.0	-146342.0	-8894.0	3146.0
29	17	50	3	445	23.0	-147070.0	-8877.0	3306.0
29	17	50	3	446	24.0	-149002.0	-8864.0	2754.0
29	17	50	3	446	25.0	-151738.0	-8846.0	2987.0
29	17	50	3	447	26.0	-154669.0	-8808.0	3138.0
29	17	50	3	448	27.0	-157832.0	-8790.0	2665.0
29	17	50	3	449	28.0	-160409.0	-8728.0	2567.0
29	17	50	3	449	29.0	-162832.0	-8694.0	2711.0
29	17	50	3	450	30.0	-164886.0	-8665.0	2547.0
29	17	50	3	451	31.0	-166619.0	-8607.0	2334.0
29	17	50	3	452	32.0	-168241.0	-8569.0	2513.0
29	17	50	3	453	33.0	-170472.0	-8533.0	2706.0
29	17	50	3	454	34.0	-173521.0	-8487.0	2454.0
29	17	50	3	454	36.0	-179644.0	-8371.0	2378.0
29	17	50	3	455	37.0	-181552.0	-8316.0	2231.0
29	17	50	3	456	38.0	-182185.0	-8251.0	2057.0
29	17	50	3	456	39.0	-181698.0	-8181.0	1884.0
29	17	50	3	457	40.0	-181167.0	-8111.0	1546.0
29	17	50	3	457	41.0	-180204.0	-8047.0	1251.0
29	17	50	3	489	42.0	-178848.0	-7959.0	1357.0
29	17	50	3	489	43.0	-177702.0	-7883.0	1814.0
29	17	50	3	490	44.0	-175877.0	-7795.0	1848.0
29	17	50	3	491	45.0	-174375.0	-7732.0	1869.0
29	17	50	3	492	46.0	-173031.0	-7654.0	2026.0
29	17	50	3	492	47.0	-172228.0	-7563.0	1799.0
29	17	50	3	493	48.0	-172089.0	-7475.0	1214.0
29	17	50	3	494	49.0	-172793.0	-7394.0	1063.0
29	17	50	3	494	50.0	-173706.0	-7326.0	639.0
29	17	50	3	495	51.0	-173044.0	-7232.0	183.0
29	17	50	3	496	52.0	-171816.0	-7136.0	168.0
29	17	50	3	497	53.0	-171102.0	-7047.0	168.0
29	17	50	3	497	54.0	-170741.0	-6950.0	514.0
29	17	50	3	498	55.0	-170802.0	-6862.0	1136.0
29	17	50	3	499	56.0	-170622.0	-6795.0	1243.0
29	17	50	3	499	58.0	-169702.0	-6604.0	553.0
29	17	50	3	500	59.0	-169470.0	-6522.0	401.0
29	17	50	3	500	60.0	-169781.0	-6432.0	181.0
29	17	50	3	501	61.0	-169742.0	-6321.0	45.0
29	17	50	3	502	62.0	-168885.0	-6229.0	193.0
29	17	50	3	502	63.0	-167638.0	-6136.0	-101.0
29	17	50	3	503	64.0	-166153.0	-6041.0	-143.0
29	17	50	3	532	65.0	-163876.0	-5959.0	55.0
29	17	50	3	533	66.0	-161521.0	-5879.0	-438.0
29	17	50	3	534	67.0	-159365.0	-5794.0	-252.0
29	17	50	3	534	68.0	-158034.0	-5715.0	-311.0
29	17	50	3	535	69.0	-156952.0	-5641.0	-305.0
29	17	50	3	536	70.0	-155436.0	-5554.0	-235.0
29	17	50	3	537	71.0	-153514.0	-5485.0	-596.0
29	17	50	3	538	72.0	-152796.0	-5426.0	-623.0
29	17	50	3	539	73.0	-153291.0	-5349.0	-419.0
29	17	50	3	540	74.0	-153051.0	-5288.0	-701.0
29	17	50	3	541	75.0	-150557.0	-5218.0	-1157.0
29	17	50	3	541	76.0	-148677.0	-5152.0	-1211.0
29	17	50	3	542	77.0	-147787.0	-5097.0	-1196.0
29	17	50	3	543	78.0	-149186.0	-5044.0	-1589.0
29	17	50	3	543	79.0	-152934.0	-4977.0	-1798.0
29	17	50	3	544	81.0	-165951.0	-4841.0	-1257.0
29	17	50	3	545	82.0	-173144.0	-4797.0	-1094.0
29	17	50	3	545	83.0	-174864.0	-4729.0	-559.0
29	17	50	3	546	84.0	-172485.0	-4677.0	-268.0
29	17	50	3	546	85.0	-165382.0	-4621.0	-734.0
29	17	50	3	547	86.0	-154149.0	-4558.0	-761.0
29	17	50	3	578	87.0	-141934.0	-4490.0	-366.0
29	17	50	3	579	88.0	-130434.0	-4459.0	-637.0
29	17	50	3	580	89.0	-120490.0	-4416.0	-684.0
29	17	50	3	581	90.0	-112891.0	-4381.0	-691.0
29	17	50	3	581	91.0	-108048.0	-4327.0	-1006.0
29	17	50	3	582	92.0	-106167.0	-4277.0	-737.0
29	17	50	3	583	93.0	-107382.0	-4251.0	-250.0
29	17	50	3	584	94.0	-111334.0	-4220.0	-201.0
29	17	50	3	584	95.0	-116898.0	-4183.0	-537.0
29	17	50	3	585	96.0	-122425.0	-4164.0	-244.0
29	17	50	3	586	97.0	-127721.0	-4144.0	-667.0
29	17	50	3	586	98.0	-133389.0	-4121.0	-1171.0
29	17	50	3	587	99.0	-138183.0	-4087.0	-1373.0
29	17	50	3	588	100.0	-141756.0	-4047.0	-1209.0
29	17	50	3	588	101.0	-142916.0	-4011.0	-897.0
29	17	50	3	589	103.0	-137735.0	-3979.0	-1682.0
29	17	50	3	590	104.0	-131580.0	-3953.0	-1844.0
29	17	50	3	590	105.0	-124192.0	-3929.0	-1825.0
29	17	50	3	591	106.0	-117008.0	-3903.0	-1635.0
29	17	50	3	591	107.0	-111603.0	-3866.0	-1384.0
29	17	50	3	592	108.0	-108852.0	-3839.0	-1350.0
29	17	50	3	593	109.0	-109471.0	-3814.0	-1036.0
29	17	50	3	623	110.0	-112612.0	-3759.0	-1000.0
29	17	50	3	624	111.0	-117892.0	-3728.0	-920.0
29	17	50	3	625	112.0	-124096.0	-3712.0	-697.0
29	17	50	3	625	113.0	-130990.0	-3707.0	-714.0
29	17	50	3	626	114.0	-138601.0	-3701.0	-355.0
29	17	50	3	627	115.0	-146434.0	-3691.0	-491.0
29	17	50	3	627	116.0	-153996.0	-3699.0	-636.0
29	17	50	3	628	117.0	-161664.0	-3676.0	-570.0
29	17	50	3	629	118.0	-168834.0	-3658.0	-737.0
29	17	50	3	629	119.0	-175947.0	-3650.0	-1012.0
29	17	50	3	630	120.0	-182381.0	-3647.0	-1226.0
29	17	50	3	631	121.0	-188130.0	-3634.0	-988.0
29	17	50	3	632	122.0	-193378.0	-3642.0	-1449.0
29	17	50	3	632	123.0	-198005.0	-3629.0	-1700.0
29	17	50	3	633	124.0	-201498.0	-3615.0	-1192.0
29	17	50	3	634	126.0	-206266.0	-3593.0	-1341.0
29	17	50	3	634	127.0	-206909.0	-3593.0	-1004.0
29	17	50	3	635	128.0	-206267.0	-3591.0	-936.0
29	17	50	3	635	129.0	-205339.0	-3570.0	-1189.0
29	17	50	3	636	130.0	-203674.0	-3557.0	-1410.0
29	17	50	3	637	131.0	-201404.0	-3544.0	-1207.0
29	17	50	3	668	132.0	-199324.0	-3555.0	-939.0
29	17	50	3	669	133.0	-197033.0	-3532.0	-458.0
29	17	50	3	669	134.0	-194029.0	-3527.0	-522.0
29	17	50	3	670	135.0	-189832.0	-3551.0	-276.0
29	17	50	3	671	136.0	-185141.0	-3566.0	-469.0
29	17	50	3	672	137.0	-181186.0	-3560.0	-819.0
29	17	50	3	672	138.0	-177877.0	-3575.0	-1041.0
29	17	50	3	673	139.0	-175077.0	-3578.0	-759.0
29	17	50	3	674	140.0	-173696.0	-3606.0	-910.0
29	17	50	3	674	141.0	-172739.0	-3612.0	-1064.0
29	17	50	3	675	142.0	-172466.0	-3614.0	-723.0
29	17	50	3	676	143.0	-172654.0	-3627.0	-554.0
29	17	50	3	676	144.0	-173466.0	-3631.0	-852.0
29	17	50	3	677	145.0	-174777.0	-3647.0	-982.0
29	17	50	3	678	146.0	-176406.0	-3651.0	-1262.0
29	17	50	3	678	148.0	-179304.0	-3676.0	-1506.0
29	17	50	3	679	149.0	-180724.0	-3681.0	-1599.0
29	17	50	3	679	150.0	-182763.0	-3714.0	-1920.0
29	17	50	3	680	151.0	-185136.0	-3711.0	-1656.0
29	17	50	3	681	152.0	-187526.0	-3709.0	-1589.0
29	17	50	3	681	153.0	-189690.0	-3715.0	-1646.0
29	17	50	3	682	154.0	-191877.0	-3725.0	-1642.0
29	17	50	3	718	155.0	-194197.0	-3731.0	-1450.0
29	17	50	3	719	156.0	-196463.0	-3738.0	-1832.0
29	17	50	3	720	157.0	-198536.0	-3759.0	-1986.0
29	17	50	3	720	158.0	-200977.0	-3764.0	-1415.0
29	17	50	3	721	159.0	-203419.0	-3771.0	-1440.0
29	17	50	3	722	160.0	-205848.0	-3791.0	-1882.0
29	17	50	3	722	161.0	-207484.0	-3797.0	-1731.0
29	17	50	3	723	162.0	-208518.0	-3816.0	-1799.0
29	17	50	3	724	163.0	-208948.0	-3821.0	-2024.0
29	17	50	3	724	164.0	-209257.0	-3837.0	-1636.0
29	17	50	3	725	165.0	-209876.0	-3844.0	-1890.0
29	17	50	3	726	166.0	-210271.0	-3864.0	-2258.0
29	17	50	3	726	167.0	-210884.0	-3876.0	-2264.0
29	17	50	3	727	168.0	-211101.0	-3897.0	-2252.0
29	17	50	3	727	169.0	-210656.0	-3916.0	-2351.0
29	17	50	3	728	171.0	-207531.0	-3935.0	-2647.0
29	17	50	3	728	172.0	-204908.0	-3941.0	-2459.0
29	17	50	3	729	173.0	-200831.0	-3925.0	-2048.0
29	17	50	3	730	174.0	-196406.0	-3941.0	-1737.0
29	17	50	3	730	175.0	-191247.0	-3961.0	-1919.0
29	17	50	3	731	176.0	-186011.0	-3944.0	-1970.0
29	17	50	3	758	177.0	-180535.0	-3945.0	-2209.0
29	17	50	3	759	178.0	-174611.0	-3936.0	-2486.0
29	17	50	3	760	179.0	-168499.0	-3928.0	-2582.0
29	17	50	3	760	180.0	-162072.0	-3944.0	-2862.0
29	17	50	3	761	181.0	-155868.0	-3963.0	-3282.0
29	17	50	3	761	182.0	-150619.0	-3975.0	-3670.0
29	17	50	3	762	183.0	-146569.0	-3992.0	-2785.0
29	17	50	3	763	184.0	-144411.0	-3989.0	-3293.0
29	17	50	3	763	185.0	-143733.0	-4001.0	-2499.0
29	17	50	3	764	186.0	-144287.0	-4024.0	-2482.0
29	17	50	3	764	187.0	-145906.0	-4022.0	-3232.0
29	17	50	3	765	188.0	-148359.0	-4017.0	-3484.0
29	17	50	3	766	189.0	-151906.0	-4022.0	-2904.0
29	17	50	3	766	190.0	-155775.0	-4036.0	-3074.0
29	17	50	3	774	191.0	-160104.0	-4038.0	-3457.0
29	17	50	3	775	193.0	-168899.0	-4037.0	-2879.0
29	17	50	3	775	194.0	-173816.0	-4048.0	-3105.0
29	17	50	3	776	195.0	-179149.0	-4058.0	-2922.0
29	17	50	3	777	196.0	-184579.0	-4050.0	-3265.0
29	17	50	3	777	197.0	-188843.0	-4034.0	-3955.0
29	17	50	3	778	198.0	-192344.0	-4038.0	-3848.0
29	17	50	3	778	199.0	-194767.0	-4027.0	-3350.0
29	17	50	3	802	200.0	-196302.0	-4035.0	-3299.0
29	17	50	3	802	201.0	-197793.0	-4031.0	-3502.0
29	17	50	3	803	202.0	-198907.0	-4026.0	-3431.0
29	17	50	3	804	203.0	-199813.0	-4017.0	-3315.0
29	17	50	3	804	204.0	-200785.0	-4032.0	-3442.0
29	17	50	3	805	205.0	-201673.0	-4039.0	-3234.0
29	17	50	3	806	206.0	-202414.0	-4054.0	-3357.0
29	17	50	3	806	207.0	-202967.0	-4057.0	-3686.0
29	17	50	3	807	208.0	-203610.0	-4071.0	-3610.0
29	17	50	3	807	209.0	-204317.0	-4090.0	-4008.0
29	17	50	3	808	210.0	-204908.0	-4097.0	-4054.0
29	17	50	3	809	211.0	-205162.0	-4119.0	-4081.0
29	17	50	3	809	212.0	-205229.0	-4131.0	-4194.0
29	17	50	3	810	213.0	-205049.0	-4134.0	-3849.0
29	17	50	3	810	214.0	-204287.0	-4146.0	-3978.0
29	17	50	3	811	216.0	-202342.0	-4172.0	-3956.0
29	17	50	3	812	217.0	-201025.0	-4163.0	-3714.0
29	17	50	3	812	218.0	-199537.0	-4181.0	-3939.0
29	17	50	3	813	219.0	-197472.0	-4174.0	-4332.0
29	17	50	3	814	220.0	-194378.0	-4170.0	-4464.0
29	17	50	3	814	221.0	-190712.0	-4180.0	-4582.0
29	17	50	3	847	222.0	-187115.0	-4196.0	-4817.0
29	17	50	3	848	223.0	-183986.0	-4203.0	-4739.0
29	17	50	3	849	224.0	-181149.0	-4212.0	-4933.0
29	17	50	3	849	225.0	-178734.0	-4231.0	-5298.0
29	17	50	3	850	226.0	-176304.0	-4240.0	-4946.0
29	17	50	3	851	227.0	-173924.0	-4247.0	-4664.0
29	17	50	3	851	228.0	-171767.0	-4263.0	-4574.0
29	17	50	3	852	229.0	-169729.0	-4290.0	-4430.0
29	17	50	3	852	230.0	-167836.0	-4314.0	-4082.0
29	17	50	3	853	231.0	-165814.0	-4334.0	-4395.0
29	17	50	3	853	232.0	-163586.0	-4352.0	-4746.0
29	17	50	3	854	233.0	-161530.0	-4357.0	-4640.0
29	17	50	3	855	234.0	-160249.0	-4380.0	-4730.0
29	17	50	3	855	235.0	-160202.0	-4405.0	-4791.0
29	17	50	3	856	236.0	-160731.0	-4419.0	-4969.0
29	17	50	3	856	238.0	-161884.0	-4461.0	-5082.0
29	17	50	3	857	239.0	-162300.0	-4486.0	-5222.0
29	17	50	3	858	240.0	-162510.0	-4517.0	-5374.0
29	17	50	3	858	241.0	-162714.0	-4517.0	-5384.0
29	17	50	3	859	242.0	-162676.0	-4514.0	-5156.0
29	17	50	3	859	243.0	-162577.0	-4541.0	-5059.0
29	17	50	3	892	244.0	-162602.0	-4542.0	-4898.0
29	17	50	3	893	245.0	-162637.0	-4550.0	-5142.0
29	17	50	3	894	246.0	-162829.0	-4585.0	-5126.0
29	17	50	3	894	247.0	-162734.0	-4612.0	-4938.0
29	17	50	3	895	248.0	-162967.0	-4639.0	-5021.0
29	17	50	3	896	249.0	-162988.0	-4664.0	-5393.0
29	17	50	3	896	250.0	-162663.0	-4679.0	-6007.0
29	17	50	3	897	251.0	-162187.0	-4707.0	-6138.0
29	17	50	3	898	252.0	-161586.0	-4729.0	-6124.0
29	17	50	3	898	253.0	-161194.0	-4753.0	-6360.0
29	17	50	3	899	254.0	-160766.0	-4786.0	-6171.0
29	17	50	3	900	255.0	-159895.0	-4806.0	-6126.0
29	17	50	3	900	0.0	-159879.0	-4832.0	-6297.0
29	17	50	3	901	1.0	-161202.0	-4862.0	-5987.0
29	17	50	3	901	2.0	-164099.0	-4899.0	-5661.0
29	17	50	3	902	4.0	-173819.0	-4919.0	-6017.0
29	17	50	3	902	5.0	-178766.0	-4951.0	-5952.0
29	17	50	3	903	6.0	-183079.0	-4961.0	-6318.0
29	17	50	3	904	7.0	-186744.0	-4984.0	-6291.0
29	17	50	3	904	8.0	-189585.0	-5000.0	-5818.0
29	17	50	3	905	9.0	-191979.0	-5031.0	-6196.0
29	17	50	3	905	10.0	-194101.0	-5035.0	-6409.0
29	17	50	3	936	11.0	-195793.0	-5047.0	-6252.0
29	17	50	3	937	12.0	-196976.0	-5067.0	-6087.0
29	17	50	3	938	13.0	-198071.0	-5094.0	-6415.0
29	17	50	3	938	14.0	-198636.0	-5128.0	-6803.0
29	17	50	3	939	15.0	-198570.0	-5147.0	-6942.0
29	17	50	3	939	16.0	-198061.0	-5166.0	-7314.0
29	17	50	3	940	17.0	-197505.0	-5210.0	-7404.0
29	17	50	3	941	18.0	-196764.0	-5229.0	-7524.0
29	17	50	3	941	19.0	-195229.0	-5261.0	-7180.0
29	17	50	3	942	20.0	-193370.0	-5301.0	-7110.0
29	17	50	3	942	21.0	-192088.0	-5312.0	-7220.0
29	17	50	3	943	22.0	-189571.0	-5328.0	-7127.0
29	17	50	3	944	23.0	-187235.0	-5354.0	-7532.0
29	17	50	3	944	24.0	-184196.0	-5386.0	-7823.0
29	17	50	3	945	25.0	-181031.0	-5416.0	-7832.0
29	17	50	3	953	27.0	-175569.0	-5469.0	-7616.0
29	17	50	3	954	28.0	-172261.0	-5480.0	-7710.0
29	17	50	3	954	29.0	-169367.0	-5502.0	-7648.0
29	17	50	3	955	30.0	-166739.0	-5526.0	-7746.0
29	17	50	3	955	31.0	-163870.0	-5541.0	-8779.0
29	17	50	3	956	32.0	-160546.0	-5554.0	-8573.0
29	17	50	3	982	33.0	-157211.0	-5582.0	-8494.0
29	17	50	3	983	34.0	-154223.0	-5581.0	-8627.0
29	17	50	3	984	35.0	-151034.0	-5606.0	-8459.0
29	17	50	3	984	36.0	-148708.0	-5645.0	-8442.0
29	17	50	3	985	37.0	-146622.0	-5666.0	-8734.0
29	17	50	3	985	38.0	-145369.0	-5688.0	-8750.0
29	17	50	3	986	39.0	-144494.0	-5713.0	-8602.0
29	17	50	3	987	40.0	-144078.0	-5753.0	-8772.0
29	17	50	3	987	41.0	-143677.0	-5776.0	-8756.0
29	17	50	3	988	42.0	-143109.0	-5800.0	-8647.0
29	17	50	3	989	43.0	-142357.0	-5824.0	-8745.0
29	17	50	3	989	44.0	-142094.0	-5844.0	-8927.0
29	17	50	3	990	45.0	-142788.0	-5871.0	-8542.0
29	17	50	3	990	46.0	-143626.0	-5877.0	-8652.0
29	17	50	3	991	47.0	-144562.0	-5904.0	-8972.0
29	17	50	3	992	49.0	-146464.0	-5951.0	-8233.0
29	17	50	3	992	50.0	-147215.0	-5964.0	-8075.0
29	17	50	3	993	51.0	-147702.0	-5992.0	-7994.0
29	17	50	3	994	52.0	-148353.0	-6031.0	-8232.0
29	17	50	3	994	53.0	-149177.0	-6025.0	-8077.0
29	17	50	3	995	54.0	-150149.0	-6029.0	-8563.0
29	17	50	3	996	55.0	-151095.0	-6036.0	-8552.0
29	17	50	4	27	56.0	-151694.0	-6061.0	-8120.0
29	17	50	4	27	57.0	-151993.0	-6057.0	-8458.0
29	17	50	4	28	58.0	-151396.0	-6074.0	-8326.0
29	17	50	4	29	59.0	-150834.0	-6105.0	-7668.0
29	17	50	4	29	60.0	-150873.0	-6131.0	-7456.0
29	17	50	4	30	61.0	-151147.0	-6150.0	-8072.0
29	17	50	4	31	62.0	-151719.0	-6163.0	-8327.0
29	17	50	4	31	63.0	-151745.0	-6171.0	-8097.0
29	17	50	4	32	64.0	-151491.0	-6216.0	-8154.0
29	17	50	4	33	65.0	-151224.0	-6239.0	-8696.0
29	17	50	4	33	66.0	-151132.0	-6244.0	-8934.0
29	17	50	4	34	67.0	-150495.0	-6244.0	-8929.0
29	17	50	4	34	68.0	-149334.0	-6267.0	-8717.0
29	17	50	4	35	69.0	-147587.0	-6297.0	-8507.0
29	17	50	4	36	70.0	-144919.0	-6316.0	-8257.0
29	17	50	4	36	72.0	-137831.0	-6337.0	-9134.0
29	17	50	4	37	73.0	-132731.0	-6365.0	-8754.0
29	17	50	4	38	74.0	-126812.0	-6381.0	-9111.0
29	17	50	4	38	75.0	-121422.0	-6376.0	-9252.0
29	17	50	4	39	76.0	-115438.0	-6381.0	-8471.0
29	17	50	4	39	77.0	-110836.0	-6372.0	-8479.0
29	17	50	4	71	78.0	-108368.0	-6380.0	-8699.0
29	17	50	4	72	79.0	-107047.0	-6384.0	-8429.0
29	17	50	4	73	80.0	-106642.0	-6410.0	-8381.0
29	17	50	4	74	81.0	-107421.0	-6427.0	-8638.0
29	17	50	4	74	82.0	-108513.0	-6436.0	-8511.0
29	17	50	4	75	83.0	-109946.0	-6452.0	-8474.0
29	17	50	4	76	84.0	-111562.0	-6481.0	-8595.0
29	17	50	4	76	85.0	-112521.0	-6492.0	-8490.0
29	17	50	4	77	86.0	-112736.0	-6507.0	-7700.0
29	17	50	4	78	87.0	-112837.0	-6517.0	-7937.0
29	17	50	4	78	88.0	-112992.0	-6537.0	-8104.0
29	17	50	4	79	89.0	-113363.0	-6545.0	-8382.0
29	17	50	4	80	90.0	-113917.0	-6551.0	-9494.0
29	17	50	4	80	91.0	-114639.0	-6568.0	-11451.0
29	17	50	4	81	92.0	-115539.0	-6604.0	-14411.0
29	17	50	4	81	94.0	-117329.0	-6621.0	-21966.0
29	17	50	4	82	95.0	-118493.0	-6649.0	-26604.0
29	17	50	4	83	96.0	-119081.0	-6638.0	-31674.0
29	17	50	4	83	97.0	-119500.0	-6638.0	-36314.0
29	17	50	4	84	98.0	-119605.0	-6648.0	-38986.0
29	17	50	4	84	99.0	-118713.0	-6663.0	-41692.0
29	17	50	4	85	100.0	-117847.0	-6653.0	-45784.0
29	17	50	4	117	101.0	-117485.0	-6662.0	-50124.0
29	17	50	4	118	102.0	-118462.0	-6672.0	-55686.0
29	17	50	4	119	103.0	-119998.0	-6694.0	-61142.0
29	17	50	4	119	104.0	-121107.0	-6707.0	-61611.0
29	17	50	4	120	105.0	-121815.0	-6726.0	-57887.0
29	17	50	4	120	106.0	-121969.0	-6748.0	-51261.0
29	17	50	4	121	107.0	-121530.0	-6769.0	-42464.0
29	17	50	4	122	108.0	-120337.0	-6790.0	-34899.0
29	17	50	4	122	109.0	-118364.0	-6799.0	-28830.0
29	17	50	4	134	110.0	-116125.0	-6816.0	-21365.0
29	17	50	4	134	111.0	-115272.0	-6816.0	-15370.0
29	17	50	4	135	112.0	-114743.0	-6821.0	-13847.0
29	17	50	4	135	113.0	-113574.0	-6842.0	-13147.0
29	17	50	4	136	114.0	-112517.0	-6870.0	-13159.0
29	17	50	4	136	115.0	-111301.0	-6886.0	-13756.0
29	17	50	4	137	117.0	-104412.0	-6902.0	-13318.0
29	17	50	4	138	118.0	-98140.0	-6902.0	-12949.0
29	17	50	4	138	119.0	-86814.0	-6909.0	-12539.0
29	17	50	4	139	120.0	-70137.0	-6924.0	-12416.0
29	17	50	4	139	121.0	-51739.0	-6920.0	-12094.0
29	17	50	4	140	122.0	-32951.0	-6910.0	-11832.0
29	17	50	4	163	123.0	-18189.0	-6908.0	-11667.0
29	17	50	4	163	124.0	-8294.0	-6917.0	-11488.0
29	17	50	4	164	125.0	-4401.0	-6926.0	-11405.0
29	17	50	4	165	126.0	-8363.0	-6945.0	-11528.0
29	17	50	4	165	127.0	-19513.0	-6949.0	-11391.0
29	17	50	4	166	128.0	-35980.0	-6964.0	-10988.0
29	17	50	4	167	129.0	-56009.0	-6983.0	-10486.0
29	17	50	4	167	130.0	-77229.0	-7002.0	-10258.0
29	17	50	4	168	131.0	-99663.0	-7022.0	-9991.0
29	17	50	4	169	132.0	-120400.0	-7050.0	-9812.0
29	17	50	4	169	133.0	-136026.0	-7055.0	-9808.0
29	17	50	4	170	134.0	-148779.0	-7050.0	-9573.0
29	17	50	4	171	135.0	-160567.0	-7091.0	-9520.0
29	17	50	4	171	136.0	-169591.0	-7101.0	-10167.0
29	17	50	4	172	137.0	-175021.0	-7108.0	-10179.0
29	17	50	4	173	139.0	-177210.0	-7129.0	-9631.0
29	17	50	4	173	140.0	-174569.0	-7149.0	-9670.0
29	17	50	4	174	141.0	-170530.0	-7164.0	-9739.0
29	17	50	4	175	142.0	-166414.0	-7152.0	-9849.0
29	17	50	4	175	143.0	-163588.0	-7165.0	-10419.0
29	17	50	4	176	144.0	-164169.0	-7182.0	-10390.0
29	17	50	4	176	145.0	-166584.0	-7181.0	-9516.0
29	17	50	4	207	146.0	-168200.0	-7184.0	-9641.0
29	17	50	4	208	147.0	-167963.0	-7190.0	-9636.0
29	17	50	4	209	148.0	-166127.0	-7209.0	-9537.0
29	17	50	4	209	149.0	-162667.0	-7241.0	-9570.0
29	17	50	4	210	150.0	-157409.0	-7254.0	-9669.0
29	17	50	4	211	151.0	-151772.0	-7277.0	-9499.0
29	17	50	4	211	152.0	-147365.0	-7303.0	-9356.0
29	17	50	4	212	153.0	-144589.0	-7309.0	-10084.0
29	17	50	4	213	154.0	-142769.0	-7331.0	-10042.0
29	17	50	4	213	155.0	-142350.0	-7348.0	-9976.0
29	17	50	4	214	156.0	-144024.0	-7370.0	-9885.0
29	17	50	4	215	157.0	-147214.0	-7402.0	-9803.0
29	17	50	4	215	158.0	-150592.0	-7417.0	-9709.0
29	17	50	4	216	159.0	-154021.0	-7417.0	-9449.0
29	17	50	4	216	160.0	-157357.0	-7424.0	-9474.0
29	17	50	4	217	162.0	-161296.0	-7474.0	-9538.0
29	17	50	4	218	163.0	-162430.0	-7489.0	-9764.0
29	17	50	4	218	164.0	-163157.0	-7502.0	-10179.0
29	17	50	4	219	165.0	-163750.0	-7497.0	-10109.0
29	17	50	4	219	166.0	-164416.0	-7527.0	-10356.0
29	17	50	4	220	167.0	-164788.0	-7527.0	-10517.0
29	17	50	4	251	168.0	-165076.0	-7535.0	-10028.0
29	17	50	4	252	169.0	-165771.0	-7532.0	-9847.0
29	17	50	4	253	170.0	-166783.0	-7569.0	-9508.0
29	17	50	4	254	171.0	-167827.0	-7604.0	-9646.0
29	17	50	4	254	172.0	-168872.0	-7614.0	-9821.0
29	17	50	4	255	173.0	-170059.0	-7639.0	-9779.0
29	17	50	4	256	174.0	-171014.0	-7674.0	-9846.0
29	17	50	4	256	175.0	-171604.0	-7697.0	-9741.0
29	17	50	4	257	176.0	-172396.0	-7719.0	-9496.0
29	17	50	4	258	177.0	-173489.0	-7741.0	-9202.0
29	17	50	4	258	178.0	-174906.0	-7774.0	-8962.0
29	17	50	4	259	179.0	-177146.0	-7784.0	-8967.0
29	17	50	4	267	180.0	-180392.0	-7774.0	-9196.0
29	17	50	4	268	181.0	-184416.0	-7821.0	-9253.0
29	17	50	4	269	182.0	-188934.0	-7854.0	-9361.0
29	17	50	4	269	184.0	-198444.0	-7908.0	-9781.0
29	17	50	4	270	185.0	-203333.0	-7919.0	-9535.0
29	17	50	4	270	186.0	-208632.0	-7942.0	-9295.0
29	17	50	4	271	187.0	-214383.0	-7959.0	-9048.0
29	17	50	4	271	188.0	-219937.0	-7973.0	-8746.0
29	17	50	4	272	189.0	-224361.0	-7990.0	-8850.0
29	17	50	4	297	190.0	-228094.0	-7996.0	-9001.0
29	17	50	4	298	191.0	-231461.0	-8026.0	-9022.0
29	17	50	4	298	192.0	-234432.0	-8038.0	-9051.0
29	17	50	4	299	193.0	-237335.0	-8073.0	-9171.0
29	17	50	4	300	194.0	-240706.0	-8085.0	-9457.0
29	17	50	4	300	195.0	-244612.0	-8112.0	-9499.0
29	17	50	4	301	196.0	-248215.0	-8151.0	-9217.0
29	17	50	4	302	197.0	-251149.0	-8173.0	-8900.0
29	17	50	4	302	198.0	-253152.0	-8208.0	-8536.0
29	17	50	4	303	199.0	-253888.0	-8237.0	-8657.0
29	17	50	4	304	200.0	-253717.0	-8241.0	-8831.0
29	17	50	4	304	201.0	-252529.0	-8264.0	-8830.0
29	17	50	4	305	202.0	-250521.0	-8282.0	-8729.0
29	17	50	4	306	203.0	-248001.0	-8305.0	-8405.0
29	17	50	4	307	204.0	-244984.0	-8334.0	-8288.0
29	17	50	4	307	206.0	-238546.0	-8392.0	-8221.0
29	17	50	4	308	207.0	-234878.0	-8414.0	-7801.0
29	17	50	4	309	208.0	-231651.0	-8438.0	-7864.0
29	17	50	4	309	209.0	-228431.0	-8428.0	-7842.0
29	17	50	4	310	210.0	-225490.0	-8432.0	-7327.0
29	17	50	4	311	211.0	-223151.0	-8429.0	-7672.0
29	17	50	4	311	212.0	-220923.0	-8421.0	-8096.0
29	17	50	4	342	213.0	-219111.0	-8426.0	-7678.0
29	17	50	4	343	214.0	-217718.0	-8431.0	-7721.0
29	17	50	4	344	215.0	-216546.0	-8424.0	-7940.0
29	17	50	4	344	216.0	-215628.0	-8427.0	-7683.0
29	17	50	4	345	217.0	-214231.0	-8415.0	-7459.0
29	17	50	4	346	218.0	-213447.0	-8421.0	-7665.0
29	17	50	4	346	219.0	-212679.0	-8427.0	-7099.0
29	17	50	4	347	220.0	-212167.0	-8425.0	-6571.0
29	17	50	4	348	221.0	-212231.0	-8408.0	-6587.0
29	17	50	4	348	222.0	-212387.0	-8391.0	-6414.0
29	17	50	4	349	223.0	-212372.0	-8367.0	-5996.0
29	17	50	4	349	224.0	-212744.0	-8341.0	-6034.0
29	17	50	4	350	225.0	-213795.0	-8300.0	-6869.0
29	17	50	4	351	226.0	-215646.0	-8272.0	-6909.0
29	17	50	4	351	227.0	-218174.0	-8254.0	-7166.0
29	17	50	4	388	229.0	-225583.0	-8169.0	-7211.0
29	17	50	4	389	230.0	-230131.0	-8134.0	-6908.0
29	17	50	4	390	231.0	-235147.0	-8104.0	-6956.0
29	17	50	4	390	232.0	-239795.0	-8042.0	-7003.0
29	17	50	4	391	233.0	-243916.0	-7971.0	-7302.0
29	17	50	4	392	234.0	-247807.0	-7909.0	-7807.0
29	17	50	4	392	235.0	-251364.0	-7854.0	-7998.0
29	17	50	4	393	236.0	-254614.0	-7791.0	-7979.0
29	17	50	4	393	237.0	-257411.0	-7736.0	-7696.0
29	17	50	4	394	238.0	-260042.0	-7656.0	-7909.0
29	17	50	4	395	239.0	-263035.0	-7573.0	-8192.0
29	17	50	4	395	240.0	-266217.0	-7512.0	-7904.0
29	17	50	4	396	241.0	-269515.0	-7429.0	-7473.0
29	17	50	4	397	242.0	-272486.0	-7341.0	-7578.0
29	17	50	4	397	243.0	-275344.0	-7247.0	-7946.0
29	17	50	4	398	244.0	-277822.0	-7157.0	-7836.0
29	17	50	4	399	252.0	-283344.0	-6386.0	-8329.0
29	17	50	4	399	253.0	-282640.0	-6278.0	-8658.0
29	17	50	4	400	254.0	-281301.0	-6170.0	-8185.0
29	17	50	4	400	255.0	-279819.0	-6051.0	-7962.0
29	17	50	4	401	0.0	-278522.0	-5941.0	-8670.0
29	17	50	4	402	1.0	-276989.0	-5828.0	-9511.0
29	17	50	4	432	2.0	-275189.0	-5716.0	-9666.0
29	17	50	4	433	3.0	-273647.0	-5619.0	-9241.0
29	17	50	4	434	4.0	-272457.0	-5504.0	-8897.0
29	17	50	4	434	5.0	-271605.0	-5401.0	-9093.0
29	17	50	4	435	6.0	-271094.0	-5312.0	-9052.0
29	17	50	4	436	7.0	-271278.0	-5211.0	-9126.0
29	17	50	4	436	8.0	-271839.0	-5115.0	-9125.0
29	17	50	4	437	9.0	-272554.0	-5022.0	-9306.0
29	17	50	4	437	10.0	-273248.0	-4927.0	-9369.0
29	17	50	4	438	11.0	-273671.0	-4821.0	-9425.0
29	17	50	4	439	12.0	-274012.0	-4723.0	-9003.0
29	17	50	4	439	13.0	-274480.0	-4622.0	-8637.0
29	17	50	4	440	14.0	-275167.0	-4541.0	-8716.0
29	17	50	4	441	15.0	-276186.0	-4457.0	-9061.0
29	17	50	4	441	16.0	-277013.0	-4364.0	-9201.0
29	17	50	4	442	18.0	-278854.0	-4190.0	-9940.0
29	17	50	4	442	19.0	-279762.0	-4104.0	-9581.0
29	17	50	4	443	20.0	-281284.0	-4032.0	-9432.0
29	17	50	4	444	21.0	-282464.0	-3940.0	-9853.0
29	17	50	4	444	22.0	-282455.0	-3850.0	-9561.0
29	17	50	4	445	23.0	-279521.0	-3781.0	-9166.0
29	17	50	4	445	24.0	-275569.0	-3689.0	-9431.0
29	17	50	4	477	25.0	-271296.0	-3586.0	-9300.0
29	17	50	4	478	26.0	-269359.0	-3520.0	-8982.0
29	17	50	4	478	27.0	-268631.0	-3463.0	-9122.0
29	17	50	4	479	28.0	-268576.0	-3391.0	-9057.0
29	17	50	4	480	29.0	-272058.0	-3326.0	-8984.0
29	17	50	4	480	30.0	-276157.0	-3264.0	-9429.0
29	17	50	4	481	31.0	-277084.0	-3196.0	-9577.0
29	17	50	4	482	32.0	-276249.0	-3137.0	-9451.0
29	17	50	4	482	33.0	-273176.0	-3078.0	-9208.0
29	17	50	4	483	34.0	-266841.0	-3010.0	-9381.0
29	17	50	4	484	35.0	-259147.0	-2966.0	-9939.0
29	17	50	4	484	36.0	-251324.0	-2903.0	-10037.0
29	17	50	4	485	37.0	-244441.0	-2841.0	-10298.0
29	17	50	4	486	38.0	-239655.0	-2791.0	-10101.0
29	17	50	4	486	39.0	-237191.0	-2740.0	-9972.0
29	17	50	4	487	40.0	-236631.0	-2705.0	-9942.0
29	17	50	4	488	41.0	-238137.0	-2664.0	-9495.0
29	17	50	4	488	42.0	-241832.0	-2600.0	-9068.0
29	17	50	4	489	43.0	-246517.0	-2528.0	-8876.0
29	17	50	4	489	44.0	-250348.0	-2476.0	-8904.0
29	17	50	4	490	45.0	-254096.0	-2411.0	-9236.0
29	17	50	4	491	46.0	-257356.0	-2358.0	-9593.0
29	17	50	4	523	47.0	-259662.0	-2309.0	-9406.0
29	17	50	4	523	48.0	-261206.0	-2267.0	-9897.0
29	17	50	4	524	49.0	-261907.0	-2234.0	-10699.0
29	17	50	4	525	50.0	-261521.0	-2192.0	-10769.0
29	17	50	4	525	51.0	-261072.0	-2157.0	-10435.0
29	17	50	4	526	52.0	-260548.0	-2117.0	-10129.0
29	17	50	4	527	53.0	-259468.0	-2077.0	-9186.0
29	17	50	4	528	54.0	-258000.0	-2031.0	-8940.0
29	17	50	4	528	55.0	-255904.0	-2007.0	-9167.0
29	17	50	4	529	56.0	-253524.0	-1986.0	-9293.0
29	17	50	4	530	57.0	-250938.0	-1940.0	-9190.0
29	17	50	4	530	58.0	-248285.0	-1899.0	-9200.0
29	17	50	4	531	59.0	-246067.0	-1874.0	-9752.0
29	17	50	4	532	60.0	-243741.0	-1836.0	-9672.0
29	17	50	4	532	61.0	-241604.0	-1791.0	-10127.0
29	17	50	4	533	63.0	-236844.0	-1749.0	-9581.0
29	17	50	4	534	64.0	-234512.0	-1714.0	-9470.0
29	17	50	4	534	65.0	-232284.0	-1665.0	-9604.0
29	17	50	4	535	66.0	-230411.0	-1621.0	-9434.0
29	17	50	4	535	67.0	-228812.0	-1580.0	-9079.0
29	17	50	4	536	68.0	-227759.0	-1548.0	-9393.0
29	17	50	4	568	69.0	-227417.0	-1521.0	-9215.0
29	17	50	4	569	70.0	-227517.0	-1488.0	-8950.0
29	17	50	4	570	71.0	-227965.0	-1451.0	-9459.0
29	17	50	4	570	72.0	-228733.0	-1424.0	-9581.0
29	17	50	4	571	73.0	-229719.0	-1412.0	-9236.0
29	17	50	4	572	74.0	-230617.0	-1377.0	-9116.0
29	17	50	4	572	75.0	-231559.0	-1357.0	-9669.0
29	17	50	4	573	76.0	-232181.0	-1347.0	-10168.0
29	17	50	4	574	77.0	-232820.0	-1324.0	-10199.0
29	17	50	4	574	78.0	-234048.0	-1296.0	-9893.0
29	17	50	4	575	79.0	-235750.0	-1289.0	-9846.0
29	17	50	4	576	80.0	-237893.0	-1276.0	-9749.0
29	17	50	4	576	81.0	-240253.0	-1242.0	-9319.0
29	17	50	4	577	82.0	-242692.0	-1227.0	-9552.0
29	17	50	4	578	83.0	-245513.0	-1226.0	-9784.0
29	17	50	4	578	85.0	-251659.0	-1199.0	-9018.0
29	17	50	4	579	86.0	-255198.0	-1182.0	-9516.0
29	17	50	4	579	87.0	-258392.0	-1165.0	-9442.0
29	17	50	4	580	88.0	-261263.0	-1165.0	-9584.0
29	17	50	4	581	89.0	-264743.0	-1141.0	-10185.0
29	17	50	4	581	90.0	-268387.0	-1128.0	-10419.0
29	17	50	4	613	91.0	-271791.0	-1113.0	-10362.0
29	17	50	4	614	92.0	-274579.0	-1086.0	-10375.0
29	17	50	4	615	93.0	-276418.0	-1071.0	-10457.0
29	17	50	4	615	94.0	-277659.0	-1066.0	-10351.0
29	17	50	4	616	95.0	-278110.0	-1061.0	-10246.0
29	17	50	4	617	96.0	-278246.0	-1077.0	-10144.0
29	17	50	4	617	97.0	-278204.0	-1069.0	-10002.0
29	17	50	4	618	98.0	-278124.0	-1066.0	-10155.0
29	17	50	4	619	99.0	-277757.0	-1068.0	-10226.0
29	17	50	4	620	100.0	-276764.0	-1076.0	-9819.0
29	17	50	4	620	101.0	-275239.0	-1082.0	-9744.0
29	17	50	4	621	102.0	-272768.0	-1081.0	-9903.0
29	17	50	4	622	103.0	-269411.0	-1073.0	-9810.0
29	17	50	4	622	104.0	-265840.0	-1074.0	-9562.0
29	17	50	4	623	105.0	-261279.0	-1079.0	-9733.0
29	17	50	4	624	108.0	-246214.0	-1073.0	-10445.0
29	17	50	4	624	109.0	-241616.0	-1074.0	-10675.0
29	17	50	4	625	110.0	-237566.0	-1056.0	-10619.0
29	17	50	4	625	111.0	-234762.0	-1063.0	-10103.0
29	17	50	4	626	112.0	-232494.0	-1047.0	-9965.0
29	17	50	4	627	113.0	-230873.0	-1027.0	-9536.0
29	17	50	4	658	114.0	-230582.0	-1031.0	-9504.0
29	17	50	4	658	115.0	-230241.0	-1028.0	-9661.0
29	17	50	4	659	116.0	-230454.0	-1017.0	-9835.0
29	17	50	4	660	117.0	-231841.0	-1032.0	-9807.0
29	17	50	4	661	118.0	-233301.0	-1052.0	-9685.0
29	17	50	4	661	119.0	-235170.0	-1051.0	-9648.0
29	17	50	4	662	120.0	-237588.0	-1052.0	-10168.0
29	17	50	4	663	121.0	-239603.0	-1054.0	-10176.0
29	17	50	4	664	122.0	-241337.0	-1059.0	-10208.0
29	17	50	4	664	123.0	-243145.0	-1047.0	-10081.0
29	17	50	4	665	124.0	-245079.0	-1053.0	-10053.0
29	17	50	4	666	125.0	-247391.0	-1054.0	-9620.0
29	17	50	4	666	126.0	-249781.0	-1049.0	-9834.0
29	17	50	4	667	127.0	-252093.0	-1043.0	-9769.0
29	17	50	4	668	128.0	-254416.0	-1052.0	-9764.0
29	17	50	4	668	130.0	-259616.0	-1062.0	-10402.0
29	17	50	4	669	131.0	-261724.0	-1054.0	-10411.0
29	17	50	4	670	132.0	-263736.0	-1038.0	-10372.0
29	17	50	4	670	133.0	-265013.0	-1022.0	-10341.0
29	17	50	4	671	134.0	-265644.0	-1012.0	-10166.0
29	17	50	4	671	135.0	-266474.0	-1021.0	-9749.0
29	17	50	4	702	136.0	-267111.0	-1015.0	-9711.0
29	17	50	4	703	137.0	-268000.0	-992.0	-9892.0
29	17	50	4	704	138.0	-269126.0	-991.0	-10000.0
29	17	50	4	706	139.0	-269513.0	-998.0	-10352.0
29	17	50	4	707	140.0	-269508.0	-1001.0	-10507.0
29	17	50	4	708	141.0	-269199.0	-994.0	-10189.0
29	17	50	4	708	142.0	-268142.0	-983.0	-10190.0
29	17	50	4	709	143.0	-265920.0	-992.0	-10491.0
29	17	50	4	710	144.0	-263345.0	-1004.0	-10313.0
29	17	50	4	711	145.0	-260525.0	-979.0	-10338.0
29	17	50	4	712	146.0	-256568.0	-978.0	-10306.0
29	17	50	4	712	147.0	-252194.0	-993.0	-10644.0
29	17	50	4	713	148.0	-248089.0	-1005.0	-10617.0
29	17	50	4	714	149.0	-243697.0	-993.0	-10353.0
29	17	50	4	714	150.0	-239039.0	-1009.0	-10391.0
29	17	50	4	715	152.0	-231200.0	-991.0	-10394.0
29	17	50	4	716	153.0	-227922.0	-992.0	-10491.0
29	17	50	4	716	154.0	-225505.0	-996.0	-10447.0
29	17	50	4	717	155.0	-223916.0	-974.0	-10700.0
29	17	50	4	717	156.0	-223599.0	-974.0	-10660.0
29	17	50	4	718	157.0	-224402.0	-969.0	-10514.0
29	17	50	4	718	158.0	-225302.0	-972.0	-10322.0
29	17	50	4	748	159.0	-226714.0	-960.0	-10289.0
29	17	50	4	749	160.0	-228797.0	-947.0	-10304.0
29	17	50	4	749	161.0	-230349.0	-959.0	-10713.0
29	17	50	4	750	162.0	-231837.0	-966.0	-10972.0
29	17	50	4	751	163.0	-233151.0	-967.0	-10825.0
29	17	50	4	751	164.0	-234171.0	-982.0	-11170.0
29	17	50	4	752	165.0	-235376.0	-986.0	-11378.0
29	17	50	4	753	166.0	-236767.0	-987.0	-11058.0
29	17	50	4	754	167.0	-237377.0	-1009.0	-11084.0
29	17	50	4	754	168.0	-238585.0	-1018.0	-11382.0
29	17	50	4	755	169.0	-239780.0	-1033.0	-11334.0
29	17	50	4	756	170.0	-241629.0	-1046.0	-11056.0
29	17	50	4	756	171.0	-243104.0	-1040.0	-10926.0
29	17	50	4	757	172.0	-244066.0	-1056.0	-11099.0
29	17	50	4	758	173.0	-245237.0	-1049.0	-10944.0
29	17	50	4	758	175.0	-245916.0	-1079.0	-11224.0
29	17	50	4	759	176.0	-244160.0	-1105.0	-11337.0
29	17	50	4	760	177.0	-243142.0	-1111.0	-11384.0
29	17	50	4	760	178.0	-243284.0	-1104.0	-11197.0
29	17	50	4	761	179.0	-243075.0	-1111.0	-11072.0
29	17	50	4	761	180.0	-242719.0	-1117.0	-11645.0
29	17	50	4	793	181.0	-242081.0	-1123.0	-11844.0
29	17	50	4	794	182.0	-241327.0	-1129.0	-12073.0
29	17	50	4	794	183.0	-240289.0	-1147.0	-11857.0
29	17	50	4	795	184.0	-239941.0	-1172.0	-11482.0
29	17	50	4	796	185.0	-239856.0	-1199.0	-11856.0
29	17	50	4	797	186.0	-240775.0	-1219.0	-12210.0
29	17	50	4	797	187.0	-241912.0	-1238.0	-12126.0
29	17	50	4	798	188.0	-242360.0	-1244.0	-11967.0
29	17	50	4	799	189.0	-244414.0	-1281.0	-11951.0
29	17	50	4	799	190.0	-245969.0	-1307.0	-12011.0
29	17	50	4	800	191.0	-247919.0	-1329.0	-12227.0
29	17	50	4	801	192.0	-249246.0	-1354.0	-13292.0
29	17	50	4	801	193.0	-249203.0	-1374.0	-13337.0
29	17	50	4	802	194.0	-248320.0	-1389.0	-13071.0
29	17	50	4	803	195.0	-246711.0	-1412.0	-12844.0
29	17	50	4	803	197.0	-242809.0	-1469.0	-11970.0
29	17	50	4	804	198.0	-240233.0	-1491.0	-11987.0
29	17	50	4	805	199.0	-237563.0	-1521.0	-12567.0
29	17	50	4	805	200.0	-235107.0	-1530.0	-12344.0
29	17	50	4	806	201.0	-231547.0	-1549.0	-12275.0
29	17	50	4	806	202.0	-227720.0	-1581.0	-12762.0
29	17	50	4	807	203.0	-224319.0	-1597.0	-12885.0
29	17	50	4	837	204.0	-220420.0	-1606.0	-12528.0
29	17	50	4	838	205.0	-217364.0	-1649.0	-12818.0
29	17	50	4	839	206.0	-215256.0	-1684.0	-13176.0
29	17	50	4	839	207.0	-213540.0	-1708.0	-13569.0
29	17	50	4	840	208.0	-212378.0	-1742.0	-13711.0
29	17	50	4	841	209.0	-211831.0	-1778.0	-13751.0
29	17	50	4	842	210.0	-211726.0	-1801.0	-13627.0
29	17	50	4	842	211.0	-211263.0	-1816.0	-13449.0
29	17	50	4	843	212.0	-210625.0	-1867.0	-13186.0
29	17	50	4	844	213.0	-209835.0	-1898.0	-13140.0
29	17	50	4	844	214.0	-208589.0	-1926.0	-12930.0
29	17	50	4	845	215.0	-208684.0	-1976.0	-13102.0
29	17	50	4	846	216.0	-209282.0	-2001.0	-13415.0
29	17	50	4	846	217.0	-209281.0	-2031.0	-13746.0
29	17	50	4	847	218.0	-209342.0	-2066.0	-13757.0
29	17	50	4	848	220.0	-211141.0	-2111.0	-14479.0
29	17	50	4	848	221.0	-212654.0	-2144.0	-14486.0
29	17	50	4	849	222.0	-214424.0	-2153.0	-13928.0
29	17	50	4	849	223.0	-216322.0	-2177.0	-14118.0
29	17	50	4	850	224.0	-217784.0	-2214.0	-14477.0
29	17	50	4	851	225.0	-219716.0	-2230.0	-14476.0
29	17	50	4	883	226.0	-222192.0	-2255.0	-14643.0
29	17	50	4	884	227.0	-224987.0	-2302.0	-15086.0
29	17	50	4	884	228.0	-227788.0	-2336.0	-14804.0
29	17	50	4	885	229.0	-230545.0	-2372.0	-14811.0
29	17	50	4	886	230.0	-232371.0	-2407.0	-15236.0
29	17	50	4	886	231.0	-232966.0	-2434.0	-14873.0
29	17	50	4	887	232.0	-233408.0	-2458.0	-14737.0
29	17	50	4	888	233.0	-233211.0	-2499.0	-15146.0
29	17	50	4	889	234.0	-233252.0	-2539.0	-15306.0
29	17	50	4	889	235.0	-232227.0	-2582.0	-15877.0
29	17	50	4	890	236.0	-230355.0	-2603.0	-16574.0
29	17	50	4	891	237.0	-228179.0	-2632.0	-17096.0
29	17	50	4	891	238.0	-225955.0	-2669.0	-17077.0
29	17	50	4	892	239.0	-223684.0	-2702.0	-17020.0
29	17	50	4	893	240.0	-221711.0	-2744.0	-17087.0
29	17	50	4	893	242.0	-214954.0	-2787.0	-17022.0
29	17	50	4	894	243.0	-211020.0	-2827.0	-17090.0
29	17	50	4	894	244.0	-207185.0	-2849.0	-16740.0
29	17	50	4	895	245.0	-203809.0	-2875.0	-16852.0
29	17	50	4	896	246.0	-200216.0	-2898.0	-17464.0
29	17	50	4	896	247.0	-196435.0	-2916.0	-17736.0
29	17	50	4	897	248.0	-193064.0	-2941.0	-17706.0
29	17	50	4	927	249.0	-190420.0	-2955.0	-17802.0
29	17	50	4	928	250.0	-188108.0	-2986.0	-17954.0
29	17	50	4	929	251.0	-187309.0	-3022.0	-18411.0
29	17	50	4	930	252.0	-186814.0	-3039.0	-18584.0
29	17	50	4	930	253.0	-187256.0	-3062.0	-18523.0
29	17	50	4	931	254.0	-189139.0	-3097.0	-18494.0
29	17	50	4	932	255.0	-191937.0	-3121.0	-18274.0
29	17	50	4	933	0.0	-195152.0	-3166.0	-18199.0
29	17	50	4	933	1.0	-197738.0	-3211.0	-18704.0
29	17	50	4	934	2.0	-200459.0	-3232.0	-18694.0
29	17	50	4	935	3.0	-203911.0	-3254.0	-18149.0
29	17	50	4	936	4.0	-207358.0	-3301.0	-17913.0
29	17	50	4	936	5.0	-210464.0	-3329.0	-17916.0
29	17	50	4	937	6.0	-213464.0	-3346.0	-17824.0
29	17	50	4	938	7.0	-216436.0	-3374.0	-17710.0
29	17	50	4	938	9.0	-221966.0	-3424.0	-18365.0
29	17	50	4	939	10.0	-223904.0	-3459.0	-18059.0
29	17	50	4	940	11.0	-224790.0	-3463.0	-18712.0
29	17	50	4	940	12.0	-225160.0	-3478.0	-18817.0
29	17	50	4	941	13.0	-225342.0	-3512.0	-18384.0
29	17	50	4	941	14.0	-224837.0	-3534.0	-18442.0
29	17	50	4	973	15.0	-224077.0	-3543.0	-18704.0
29	17	50	4	973	16.0	-222738.0	-3559.0	-18540.0
29	17	50	4	974	17.0	-221339.0	-3585.0	-18511.0
29	17	50	4	975	18.0	-219817.0	-3624.0	-18756.0
29	17	50	4	976	19.0	-218266.0	-3643.0	-18549.0
29	17	50	4	977	20.0	-216618.0	-3657.0	-18169.0
29	17	50	4	977	21.0	-215231.0	-3702.0	-18361.0
29	17	50	4	978	22.0	-213569.0	-3744.0	-18420.0
29	17	50	4	979	23.0	-211606.0	-3759.0	-18421.0
29	17	50	4	980	24.0	-210028.0	-3800.0	-18835.0
29	17	50	4	980	25.0	-208380.0	-3817.0	-19116.0
29	17	50	4	981	26.0	-206723.0	-3847.0	-18953.0
29	17	50	4	982	27.0	-205204.0	-3875.0	-18814.0
29	17	50	4	982	28.0	-202964.0	-3903.0	-18761.0
29	17	50	4	983	29.0	-201081.0	-3939.0	-18800.0
29	17	50	4	984	31.0	-197657.0	-3988.0	-18846.0
29	17	50	4	984	32.0	-196377.0	-4015.0	-18593.0
29	17	50	4	985	33.0	-194442.0	-4046.0	-18556.0
29	17	50	4	985	34.0	-192121.0	-4067.0	-18545.0
29	17	50	4	986	35.0	-189823.0	-4067.0	-18692.0
29	17	50	4	987	36.0	-187612.0	-4079.0	-19238.0
29	17	50	5	17	37.0	-185067.0	-4112.0	-18737.0
29	17	50	5	18	38.0	-183374.0	-4119.0	-18574.0
29	17	50	5	19	39.0	-181563.0	-4150.0	-18784.0
29	17	50	5	20	40.0	-179179.0	-4188.0	-18604.0
29	17	50	5	21	41.0	-177412.0	-4201.0	-18764.0
29	17	50	5	22	42.0	-176227.0	-4227.0	-18977.0
29	17	50	5	23	43.0	-175461.0	-4232.0	-18839.0
29	17	50	5	23	44.0	-175051.0	-4247.0	-18534.0
29	17	50	5	24	45.0	-174537.0	-4277.0	-18981.0
29	17	50	5	25	46.0	-174522.0	-4321.0	-19319.0
29	17	50	5	26	47.0	-175503.0	-4347.0	-19532.0
29	17	50	5	34	48.0	-176786.0	-4367.0	-20419.0
29	17	50	5	36	49.0	-178522.0	-4398.0	-22750.0
29	17	50	5	36	50.0	-180667.0	-4407.0	-25811.0
29	17	50	5	37	51.0	-182380.0	-4427.0	-29398.0
29	17	50	5	38	54.0	-186527.0	-4512.0	-42087.0
29	17	50	5	38	55.0	-188490.0	-4542.0	-46328.0
29	17	50	5	39	56.0	-190593.0	-4529.0	-49394.0
29	17	50	5	39	57.0	-192797.0	-4553.0	-53004.0
29	17	50	5	40	58.0	-195447.0	-4574.0	-57199.0
29	17	50	5	41	59.0	-198538.0	-4580.0	-61399.0
29	17	50	5	63	60.0	-201513.0	-4582.0	-67527.0
29	17	50	5	63	61.0	-204185.0	-4602.0	-72882.0
29	17	50	5	64	62.0	-206161.0	-4627.0	-72601.0
29	17	50	5	65	63.0	-207194.0	-4645.0	-67774.0
29	17	50	5	65	64.0	-208177.0	-4665.0	-60939.0
29	17	50	5	66	65.0	-208390.0	-4687.0	-52675.0
29	17	50	5	66	66.0	-207555.0	-4713.0	-44846.0
29	17	50	5	67	67.0	-206470.0	-4723.0	-38106.0
29	17	50	5	68	68.0	-205226.0	-4758.0	-30543.0
29	17	50	5	68	69.0	-204819.0	-4786.0	-24913.0
29	17	50	5	69	70.0	-205277.0	-4807.0	-23374.0
29	17	50	5	69	71.0	-206729.0	-4845.0	-23194.0
29	17	50	5	70	72.0	-208812.0	-4846.0	-23661.0
29	17	50	5	71	73.0	-210499.0	-4884.0	-24074.0
29	17	50	5	71	74.0	-209651.0	-4911.0	-24122.0
29	17	50	5	72	76.0	-200367.0	-4939.0	-23406.0
29	17	50	5	72	77.0	-187385.0	-4954.0	-23401.0
29	17	50	5	73	78.0	-171909.0	-4984.0	-22632.0
29	17	50	5	73	79.0	-154461.0	-5006.0	-21987.0
29	17	50	5	74	80.0	-137546.0	-5016.0	-21954.0
29	17	50	5	74	81.0	-125303.0	-4997.0	-21724.0
29	17	50	5	107	82.0	-119659.0	-5017.0	-21567.0
29	17	50	5	108	83.0	-122544.0	-5044.0	-22267.0
29	17	50	5	108	84.0	-133773.0	-5043.0	-22544.0
29	17	50	5	109	85.0	-148931.0	-5079.0	-22123.0
29	17	50	5	110	86.0	-167934.0	-5109.0	-21922.0
29	17	50	5	110	87.0	-187984.0	-5142.0	-22265.0
29	17	50	5	111	88.0	-206388.0	-5159.0	-22871.0
29	17	50	5	111	89.0	-223597.0	-5174.0	-22799.0
29	17	50	5	112	90.0	-239175.0	-5191.0	-22848.0
29	17	50	5	113	91.0	-251102.0	-5192.0	-22729.0
29	17	50	5	113	92.0	-258447.0	-5234.0	-22699.0
29	17	50	5	114	93.0	-262572.0	-5263.0	-22979.0
29	17	50	5	114	94.0	-265852.0	-5296.0	-22842.0
29	17	50	5	115	95.0	-267456.0	-5319.0	-23072.0
29	17	50	5	115	96.0	-266006.0	-5341.0	-23367.0
29	17	50	5	116	98.0	-254814.0	-5384.0	-23539.0
29	17	50	5	116	99.0	-246634.0	-5415.0	-23890.0
29	17	50	5	117	100.0	-239370.0	-5419.0	-23732.0
29	17	50	5	118	101.0	-234383.0	-5420.0	-23637.0
29	17	50	5	118	102.0	-231305.0	-5432.0	-23365.0
29	17	50	5	119	103.0	-229297.0	-5452.0	-23699.0
29	17	50	5	119	104.0	-227115.0	-5487.0	-23798.0
29	17	50	5	152	105.0	-223574.0	-5483.0	-23902.0
29	17	50	5	153	106.0	-218382.0	-5488.0	-23579.0
29	17	50	5	154	107.0	-211612.0	-5520.0	-23512.0
29	17	50	5	154	108.0	-203322.0	-5539.0	-23567.0
29	17	50	5	155	109.0	-194602.0	-5551.0	-23544.0
29	17	50	5	155	110.0	-187747.0	-5571.0	-23729.0
29	17	50	5	156	111.0	-183178.0	-5584.0	-24339.0
29	17	50	5	156	112.0	-180384.0	-5600.0	-24409.0
29	17	50	5	157	113.0	-179737.0	-5629.0	-24057.0
29	17	50	5	158	114.0	-181046.0	-5657.0	-24688.0
29	17	50	5	158	115.0	-183598.0	-5672.0	-24817.0
29	17	50	5	159	116.0	-187029.0	-5684.0	-24843.0
29	17	50	5	159	117.0	-189657.0	-5706.0	-24922.0
29	17	50	5	160	118.0	-192549.0	-5728.0	-25206.0
29	17	50	5	161	119.0	-195431.0	-5752.0	-25273.0
29	17	50	5	176	121.0	-199774.0	-5786.0	-25508.0
29	17	50	5	177	122.0	-201266.0	-5807.0	-25115.0
29	17	50	5	177	123.0	-202427.0	-5827.0	-24691.0
29	17	50	5	178	124.0	-203572.0	-5840.0	-24955.0
29	17	50	5	179	125.0	-203452.0	-5858.0	-25327.0
29	17	50	5	200	126.0	-203027.0	-5864.0	-25445.0
29	17	50	5	242	127.0	-202024.0	-5867.0	-25417.0
29	17	50	5	243	128.0	-200564.0	-5877.0	-25167.0
29	17	50	5	244	129.0	-198139.0	-5897.0	-24826.0
29	17	50	5	244	130.0	-194908.0	-5927.0	-24961.0
29	17	50	5	245	131.0	-190888.0	-5947.0	-24984.0
29	17	50	5	246	132.0	-187310.0	-5965.0	-25399.0
29	17	50	5	246	133.0	-183740.0	-5991.0	-25422.0
29	17	50	5	247	134.0	-180996.0	-6010.0	-25435.0
29	17	50	5	247	135.0	-179012.0	-6036.0	-25441.0
29	17	50	5	248	136.0	-177107.0	-6052.0	-25507.0
29	17	50	5	260	137.0	-175919.0	-6082.0	-25426.0
29	17	50	5	260	138.0	-175590.0	-6094.0	-25564.0
29	17	50	5	261	139.0	-175524.0	-6131.0	-25703.0
29	17	50	5	261	140.0	-176046.0	-6155.0	-25921.0
29	17	50	5	262	143.0	-183284.0	-6200.0	-26500.0
29	17	50	5	263	166.0	-218467.0	-6663.0	-25291.0
29	17	50	5	263	167.0	-218778.0	-6671.0	-25082.0
29	17	50	5	264	168.0	-219279.0	-6656.0	-25466.0
29	17	50	5	264	169.0	-219726.0	-6654.0	-25431.0
29	17	50	5	265	170.0	-219803.0	-6657.0	-25319.0
29	17	50	5	265	171.0	-219448.0	-6647.0	-25467.0
29	17	50	5	287	172.0	-218902.0	-6634.0	-25369.0
29	17	50	5	288	173.0	-218243.0	-6631.0	-25441.0
29	17	50	5	289	174.0	-217018.0	-6628.0	-25296.0
29	17	50	5	289	175.0	-215217.0	-6614.0	-25194.0
29	17	50	5	290	176.0	-213078.0	-6616.0	-25414.0
29	17	50	5	291	177.0	-210608.0	-6592.0	-25125.0
29	17	50	5	291	178.0	-208409.0	-6550.0	-24674.0
29	17	50	5	292	179.0	-206643.0	-6521.0	-24712.0
29	17	50	5	293	180.0	-204498.0	-6509.0	-24971.0
29	17	50	5	293	181.0	-201661.0	-6499.0	-24684.0
29	17	50	5	294	182.0	-199139.0	-6467.0	-24317.0
29	17	50	5	294	183.0	-196081.0	-6399.0	-24537.0
29	17	50	5	295	184.0	-192925.0	-6385.0	-24415.0
29	17	50	5	296	185.0	-190380.0	-6358.0	-24732.0
29	17	50	5	296	186.0	-187745.0	-6317.0	-24840.0
29	17	50	5	297	188.0	-184706.0	-6217.0	-24197.0
29	17	50	5	297	189.0	-183592.0	-6170.0	-24654.0
29	17	50	5	298	190.0	-182147.0	-6099.0	-24949.0
29	17	50	5	299	191.0	-181835.0	-6029.0	-24714.0
29	17	50	5	299	192.0	-181989.0	-5970.0	-24704.0
29	17	50	5	300	193.0	-182061.0	-5891.0	-25018.0
29	17	50	5	300	194.0	-183097.0	-5819.0	-24864.0
29	17	50	5	331	195.0	-184833.0	-5702.0	-24974.0
29	17	50	5	332	196.0	-186666.0	-5604.0	-25362.0
29	17	50	5	333	197.0	-188506.0	-5534.0	-25579.0
29	17	50	5	334	198.0	-190260.0	-5448.0	-25346.0
29	17	50	5	334	199.0	-192152.0	-5354.0	-25684.0
29	17	50	5	335	200.0	-194090.0	-5264.0	-25930.0
29	17	50	5	335	201.0	-196061.0	-5167.0	-25569.0
29	17	50	5	336	202.0	-197910.0	-5086.0	-26082.0
29	17	50	5	337	203.0	-200257.0	-4991.0	-26609.0
29	17	50	5	337	204.0	-202655.0	-4872.0	-26442.0
29	17	50	5	338	205.0	-204757.0	-4764.0	-26587.0
29	17	50	5	339	206.0	-206377.0	-4662.0	-26846.0
29	17	50	5	339	207.0	-207938.0	-4567.0	-26932.0
29	17	50	5	340	208.0	-209253.0	-4441.0	-26737.0
29	17	50	5	340	209.0	-210669.0	-4352.0	-26265.0
29	17	50	5	341	211.0	-212941.0	-4144.0	-26626.0
29	17	50	5	342	212.0	-213453.0	-4041.0	-26716.0
29	17	50	5	342	213.0	-213681.0	-3939.0	-26910.0
29	17	50	5	343	214.0	-213718.0	-3828.0	-26946.0
29	17	50	5	343	215.0	-213716.0	-3706.0	-26955.0
29	17	50	5	344	216.0	-213002.0	-3589.0	-27086.0
29	17	50	5	377	217.0	-212216.0	-3491.0	-27456.0
29	17	50	5	377	218.0	-211485.0	-3376.0	-27545.0
29	17	50	5	378	219.0	-210482.0	-3266.0	-27297.0
29	17	50	5	379	220.0	-208940.0	-3166.0	-27764.0
29	17	50	5	379	221.0	-207282.0	-3077.0	-27910.0
29	17	50	5	380	222.0	-205843.0	-2975.0	-27376.0
29	17	50	5	381	223.0	-204489.0	-2887.0	-26989.0
29	17	50	5	381	224.0	-203468.0	-2772.0	-27002.0
29	17	50	5	382	225.0	-203012.0	-2695.0	-27229.0
29	17	50	5	383	226.0	-202846.0	-2599.0	-27056.0
29	17	50	5	383	227.0	-202296.0	-2501.0	-26963.0
29	17	50	5	384	228.0	-202235.0	-2397.0	-27221.0
29	17	50	5	384	229.0	-201756.0	-2320.0	-26788.0
29	17	50	5	385	230.0	-201631.0	-2245.0	-26971.0
29	17	50	5	386	231.0	-201841.0	-2166.0	-27077.0
29	17	50	5	386	233.0	-203051.0	-1993.0	-27005.0
29	17	50	5	387	234.0	-203782.0	-1917.0	-27110.0
29	17	50	5	388	235.0	-204059.0	-1834.0	-27297.0
29	17	50	5	389	236.0	-204952.0	-1739.0	-27596.0
29	17	50	5	390	237.0	-205198.0	-1636.0	-27331.0
29	17	50	5	390	238.0	-201668.0	-1557.0	-27386.0
29	17	50	5	423	239.0	-195980.0	-1471.0	-27650.0
29	17	50	5	423	240.0	-190020.0	-1401.0	-27431.0
29	17	50	5	424	241.0	-187743.0	-1333.0	-27776.0
29	17	50	5	425	242.0	-186509.0	-1269.0	-27954.0
29	17	50	5	425	243.0	-187931.0	-1211.0	-27673.0
29	17	50	5	426	244.0	-194233.0	-1163.0	-27538.0
29	17	50	5	426	245.0	-199174.0	-1088.0	-27986.0
29	17	50	5	427	246.0	-200152.0	-1019.0	-27682.0
29	17	50	5	428	247.0	-199769.0	-966.0	-27527.0
29	17	50	5	428	248.0	-196519.0	-906.0	-27721.0
29	17	50	5	429	249.0	-190470.0	-857.0	-27487.0
29	17	50	5	430	250.0	-183482.0	-814.0	-27413.0
29	17	50	5	430	251.0	-176593.0	-771.0	-27607.0
29	17	50	5	431	252.0	-170799.0	-722.0	-27614.0
29	17	50	5	431	253.0	-167249.0	-660.0	-27471.0
29	17	50	5	432	255.0	-165987.0	-562.0	-27557.0
29	17	50	5	433	0.0	-167632.0	-493.0	-27464.0
29	17	50	5	433	1.0	-170594.0	-445.0	-27410.0
29	17	50	5	434	2.0	-173739.0	-392.0	-27836.0
29	17	50	5	434	3.0	-176437.0	-348.0	-27545.0
29	17	50	5	435	4.0	-178981.0	-299.0	-27119.0
29	17	50	5	436	5.0	-182014.0	-251.0	-27519.0
29	17	50	5	467	6.0	-185329.0	-201.0	-27670.0
29	17	50	5	467	7.0	-189373.0	-152.0	-27577.0
29	17	50	5	468	8.0	-194039.0	-109.0	-27746.0
29	17	50	5	469	9.0	-198422.0	-80.0	-27867.0
29	17	50	5	469	10.0	-202437.0	-52.0	-27369.0
29	17	50	5	470	11.0	-205764.0	-19.0	-27467.0
29	17	50	5	471	12.0	-207832.0	29.0	-27182.0
29	17	50	5	471	13.0	-209275.0	61.0	-26689.0
29	17	50	5	472	14.0	-209283.0	92.0	-26902.0
29	17	50	5	473	15.0	-208577.0	133.0	-26850.0
29	17	50	5	473	16.0	-207596.0	149.0	-27083.0
29	17	50	5	474	17.0	-206522.0	187.0	-26919.0
29	17	50	5	474	18.0	-204818.0	224.0	-27097.0
29	17	50	5	475	19.0	-202951.0	249.0	-27313.0
29	17	50	5	476	20.0	-200618.0	297.0	-27453.0
29	17	50	5	476	22.0	-195354.0	362.0	-27474.0
29	17	50	5	477	23.0	-192379.0	391.0	-27444.0
29	17	50	5	477	24.0	-189099.0	428.0	-27389.0
29	17	50	5	478	25.0	-186211.0	471.0	-27362.0
29	17	50	5	479	26.0	-183520.0	497.0	-27234.0
29	17	50	5	479	27.0	-180767.0	537.0	-27183.0
29	17	50	5	513	28.0	-178246.0	584.0	-26793.0
29	17	50	5	513	29.0	-176079.0	610.0	-26916.0
29	17	50	5	514	30.0	-174619.0	621.0	-27131.0
29	17	50	5	515	31.0	-174097.0	638.0	-26592.0
29	17	50	5	515	32.0	-174030.0	685.0	-26386.0
29	17	50	5	516	33.0	-174565.0	720.0	-26833.0
29	17	50	5	517	34.0	-175451.0	720.0	-27319.0
29	17	50	5	517	35.0	-177159.0	737.0	-27246.0
29	17	50	5	518	36.0	-179181.0	755.0	-27384.0
29	17	50	5	519	37.0	-181080.0	785.0	-27562.0
29	17	50	5	519	38.0	-183993.0	794.0	-27381.0
29	17	50	5	520	39.0	-187256.0	804.0	-27627.0
29	17	50	5	520	40.0	-190100.0	829.0	-27634.0
29	17	50	5	521	41.0	-192993.0	845.0	-27624.0
29	17	50	5	522	42.0	-196386.0	858.0	-27126.0
29	17	50	5	523	44.0	-205067.0	870.0	-26928.0
29	17	50	5	524	45.0	-209953.0	891.0	-26921.0
29	17	50	5	524	46.0	-214795.0	906.0	-26939.0
29	17	50	5	525	47.0	-219659.0	924.0	-27245.0
29	17	50	5	526	48.0	-224368.0	936.0	-27506.0
29	17	50	5	526	49.0	-228125.0	954.0	-27422.0
29	17	50	5	527	50.0	-231259.0	975.0	-26802.0
29	17	50	5	572	51.0	-234212.0	976.0	-26835.0
29	17	50	5	590	52.0	-236505.0	993.0	-27086.0
29	17	50	5	591	53.0	-238260.0	994.0	-26948.0
29	17	50	5	592	54.0	-240082.0	994.0	-27089.0
29	17	50	5	593	55.0	-241026.0	982.0	-27322.0
29	17	50	5	593	56.0	-241064.0	991.0	-27749.0
29	17	50	5	594	57.0	-240589.0	1004.0	-27451.0
29	17	50	5	595	58.0	-239749.0	997.0	-27036.0
29	17	50	5	595	59.0	-238461.0	984.0	-27040.0
29	17	50	5	596	60.0	-236721.0	979.0	-27194.0
29	17	50	5	597	61.0	-234645.0	968.0	-27406.0
29	17	50	5	597	62.0	-232054.0	962.0	-27268.0
29	17	50	5	598	63.0	-229211.0	971.0	-27022.0
29	17	50	5	598	64.0	-226337.0	974.0	-27017.0
29	17	50	5	599	65.0	-222833.0	987.0	-26854.0
29	17	50	5	599	74.0	-199263.0	934.0	-26622.0
29	17	50	5	600	82.0	-192923.0	906.0	-26804.0
29	17	50	5	601	83.0	-192129.0	907.0	-26544.0
29	17	50	5	601	84.0	-191439.0	943.0	-26742.0
29	17	50	5	602	85.0	-190727.0	930.0	-26834.0
29	17	50	5	602	86.0	-189808.0	933.0	-27102.0
29	17	50	5	603	87.0	-188965.0	939.0	-27169.0
29	17	50	5	604	88.0	-188083.0	949.0	-27234.0
29	17	50	5	604	89.0	-187794.0	957.0	-27286.0
29	17	50	5	617	90.0	-187984.0	973.0	-27397.0
29	17	50	5	618	91.0	-188557.0	979.0	-27560.0
29	17	50	5	618	92.0	-189388.0	993.0	-27688.0
29	17	50	5	619	93.0	-190347.0	968.0	-27755.0
29	17	50	5	620	94.0	-191466.0	956.0	-27827.0
29	17	50	5	620	95.0	-192790.0	954.0	-28067.0
29	17	50	5	621	96.0	-194749.0	949.0	-27837.0
29	17	50	5	621	97.0	-196962.0	951.0	-27244.0
29	17	50	5	622	98.0	-199607.0	947.0	-27301.0
29	17	50	5	639	99.0	-202977.0	952.0	-27551.0
29	17	50	5	640	100.0	-206568.0	963.0	-27428.0
29	17	50	5	640	101.0	-209777.0	963.0	-27477.0
29	17	50	5	641	102.0	-212111.0	951.0	-27687.0
29	17	50	5	642	103.0	-213654.0	947.0	-27263.0
29	17	50	5	642	104.0	-214083.0	956.0	-26674.0
29	17	50	5	643	105.0	-213325.0	938.0	-26701.0
29	17	50	5	662	106.0	-212611.0	950.0	-26869.0
29	17	50	5	663	107.0	-211705.0	954.0	-26891.0
29	17	50	5	663	108.0	-210426.0	948.0	-26896.0
29	17	50	5	664	109.0	-209544.0	942.0	-26875.0
29	17	50	5	665	110.0	-209126.0	927.0	-26946.0
29	17	50	5	665	111.0	-208877.0	911.0	-26956.0
29	17	50	5	666	112.0	-208821.0	909.0	-27082.0
29	17	50	5	667	113.0	-208869.0	906.0	-26774.0
29	17	50	5	667	114.0	-208589.0	897.0	-26748.0
29	17	50	5	668	115.0	-208634.0	903.0	-26965.0
29	17	50	5	669	116.0	-208897.0	893.0	-26859.0
29	17	50	5	669	117.0	-209363.0	896.0	-26758.0
29	17	50	5	670	118.0	-210126.0	888.0	-27058.0
29	17	50	5	670	119.0	-211187.0	866.0	-27203.0
29	17	50	5	671	120.0	-212353.0	860.0	-27233.0
29	17	50	5	685	121.0	-213924.0	863.0	-27556.0
29	17	50	5	686	122.0	-215577.0	854.0	-27411.0
29	17	50	5	686	123.0	-216883.0	858.0	-27102.0
29	17	50	5	687	124.0	-217995.0	859.0	-27089.0
29	17	50	5	688	125.0	-218497.0	838.0	-27147.0
29	17	50	5	688	126.0	-218420.0	813.0	-27385.0
29	17	50	5	689	127.0	-218058.0	801.0	-27650.0
29	17	50	5	690	128.0	-217814.0	803.0	-27736.0
29	17	50	5	710	129.0	-217648.0	764.0	-27774.0
29	17	50	5	711	130.0	-217739.0	759.0	-27706.0
29	17	50	5	711	131.0	-217656.0	779.0	-27377.0
29	17	50	5	712	132.0	-217256.0	759.0	-27425.0
29	17	50	5	713	133.0	-216706.0	745.0	-27381.0
29	17	50	5	713	134.0	-215904.0	738.0	-27236.0
29	17	50	5	714	135.0	-214885.0	704.0	-27030.0
29	17	50	5	715	136.0	-213631.0	683.0	-27656.0
29	17	50	5	715	137.0	-212523.0	679.0	-27431.0
29	17	50	5	716	138.0	-211549.0	672.0	-27259.0
29	17	50	5	716	139.0	-210652.0	650.0	-27817.0
29	17	50	5	717	140.0	-210102.0	606.0	-28107.0
29	17	50	5	718	141.0	-209786.0	596.0	-27862.0
29	17	50	5	718	142.0	-209844.0	579.0	-27771.0
29	17	50	5	719	143.0	-210281.0	543.0	-27825.0
29	17	50	5	733	144.0	-210787.0	518.0	-27496.0
29	17	50	5	734	145.0	-211094.0	508.0	-27919.0
29	17	50	5	735	146.0	-211184.0	474.0	-27913.0
29	17	50	5	735	147.0	-211271.0	444.0	-27552.0
29	17	50	5	736	148.0	-210932.0	416.0	-27606.0
29	17	50	5	737	149.0	-211035.0	403.0	-27794.0
29	17	50	5	738	150.0	-211152.0	367.0	-27529.0
29	17	50	5	738	151.0	-211072.0	343.0	-27329.0
29	17	50	5	739	152.0	-210736.0	330.0	-27237.0
29	17	50	5	740	153.0	-209982.0	287.0	-27167.0
29	17	50	5	740	154.0	-209016.0	260.0	-26871.0
29	17	50	5	741	155.0	-207571.0	248.0	-26906.0
29	17	50	5	741	156.0	-206222.0	203.0	-27169.0
29	17	50	5	742	157.0	-204815.0	149.0	-27397.0
29	17	50	5	755	158.0	-203580.0	127.0	-27489.0
29	17	50	5	756	159.0	-202343.0	106.0	-27600.0
29	17	50	5	757	160.0	-200960.0	84.0	-27874.0
29	17	50	5	757	161.0	-199621.0	48.0	-27757.0
29	17	50	5	758	162.0	-198397.0	16.0	-27429.0
29	17	50	5	758	163.0	-197746.0	-26.0	-27259.0
29	17	50	5	759	164.0	-197649.0	-57.0	-27399.0
29	17	50	5	759	165.0	-197954.0	-90.0	-27089.0
29	17	50	5	779	166.0	-198366.0	-124.0	-26890.0
29	17	50	5	780	167.0	-199299.0	-156.0	-27406.0
29	17	50	5	781	168.0	-200244.0	-174.0	-27516.0
29	17	50	5	781	169.0	-201214.0	-201.0	-27447.0
29	17	50	5	782	170.0	-202132.0	-247.0	-27526.0
29	17	50	5	783	171.0	-202939.0	-301.0	-27851.0
29	17	50	5	784	172.0	-203644.0	-337.0	-27601.0
29	17	50	5	784	173.0	-204484.0	-367.0	-27491.0
29	17	50	5	785	174.0	-205119.0	-380.0	-27581.0
29	17	50	5	786	175.0	-205601.0	-433.0	-27441.0
29	17	50	5	786	176.0	-206279.0	-473.0	-27473.0
29	17	50	5	787	177.0	-206636.0	-502.0	-27504.0
29	17	50	5	788	178.0	-207103.0	-530.0	-27469.0
29	17	50	5	788	179.0	-207319.0	-584.0	-27174.0
29	17	50	5	789	180.0	-207174.0	-622.0	-27804.0
29	17	50	5	801	181.0	-206496.0	-640.0	-27573.0
29	17	50	5	802	182.0	-205332.0	-672.0	-27256.0
29	17	50	5	803	183.0	-203786.0	-688.0	-27196.0
29	17	50	5	803	184.0	-201834.0	-741.0	-27322.0
29	17	50	5	804	185.0	-199511.0	-765.0	-27266.0
29	17	50	5	805	186.0	-197136.0	-809.0	-27381.0
29	17	50	5	805	187.0	-195332.0	-865.0	-27706.0
29	17	50	5	825	188.0	-193822.0	-899.0	-27749.0
29	17	50	5	825	189.0	-192707.0	-924.0	-27752.0
29	17	50	5	826	190.0	-191997.0	-946.0	-28213.0
29	17	50	5	827	191.0	-192017.0	-997.0	-27943.0
29	17	50	5	827	192.0	-192102.0	-1037.0	-27987.0
29	17	50	5	828	193.0	-192257.0	-1066.0	-28076.0
29	17	50	5	829	194.0	-192805.0	-1107.0	-28154.0
29	17	50	5	829	195.0	-193322.0	-1142.0	-28168.0
29	17	50	5	830	196.0	-193909.0	-1172.0	-28107.0
29	17	50	5	830	197.0	-195123.0	-1197.0	-28011.0
29	17	50	5	831	198.0	-197047.0	-1230.0	-28143.0
29	17	50	5	832	199.0	-199006.0	-1284.0	-28007.0
29	17	50	5	832	200.0	-201039.0	-1309.0	-27566.0
29	17	50	5	833	201.0	-203207.0	-1339.0	-27954.0
29	17	50	5	833	202.0	-205342.0	-1384.0	-28328.0
29	17	50	5	847	203.0	-207494.0	-1411.0	-28384.0
29	17	50	5	848	204.0	-209610.0	-1430.0	-28242.0
29	17	50	5	849	205.0	-211691.0	-1461.0	-28417.0
29	17	50	5	849	206.0	-214236.0	-1518.0	-28205.0
29	17	50	5	850	207.0	-216811.0	-1552.0	-28331.0
29	17	50	5	850	208.0	-219532.0	-1587.0	-28633.0
29	17	50	5	851	209.0	-221549.0	-1622.0	-28467.0
29	17	50	5	852	210.0	-223224.0	-1669.0	-28159.0
29	17	50	5	871	211.0	-224164.0	-1687.0	-28386.0
29	17	50	5	872	212.0	-224647.0	-1715.0	-28206.0
29	17	50	5	872	213.0	-224780.0	-1744.0	-28154.0
29	17	50	5	873	214.0	-225196.0	-1786.0	-28202.0
29	17	50	5	874	215.0	-225666.0	-1819.0	-28526.0
29	17	50	5	874	216.0	-226296.0	-1858.0	-28469.0
29	17	50	5	875	217.0	-227064.0	-1903.0	-28788.0
29	17	50	5	876	218.0	-227635.0	-1939.0	-29021.0
29	17	50	5	876	219.0	-227594.0	-1963.0	-28724.0
29	17	50	5	877	220.0	-227282.0	-1989.0	-28564.0
29	17	50	5	877	221.0	-226818.0	-2017.0	-28720.0
29	17	50	5	878	222.0	-226528.0	-2052.0	-28585.0
29	17	50	5	878	223.0	-226432.0	-2089.0	-28306.0
29	17	50	5	879	224.0	-226181.0	-2132.0	-27952.0
29	17	50	5	880	225.0	-225914.0	-2171.0	-28066.0
29	17	50	5	894	226.0	-225234.0	-2203.0	-28066.0
29	17	50	5	894	227.0	-224641.0	-2221.0	-28349.0
29	17	50	5	895	228.0	-224009.0	-2240.0	-28482.0
29	17	50	5	896	229.0	-223210.0	-2289.0	-28566.0
29	17	50	5	896	230.0	-222447.0	-2311.0	-28634.0
29	17	50	5	897	231.0	-221716.0	-2357.0	-28447.0
29	17	50	5	898	232.0	-221052.0	-2402.0	-28177.0
29	17	50	5	917	233.0	-220650.0	-2422.0	-27788.0
29	17	50	5	918	234.0	-220416.0	-2432.0	-27689.0
29	17	50	5	918	235.0	-220621.0	-2451.0	-27626.0
29	17	50	5	919	236.0	-220911.0	-2492.0	-27981.0
29	17	50	5	920	237.0	-221700.0	-2536.0	-27784.0
29	17	50	5	921	238.0	-222723.0	-2574.0	-27711.0
29	17	50	5	921	239.0	-223896.0	-2596.0	-28171.0
29	17	50	5	922	240.0	-225032.0	-2635.0	-28687.0
29	17	50	5	923	241.0	-226433.0	-2655.0	-28292.0
29	17	50	5	923	242.0	-227816.0	-2677.0	-28221.0
29	17	50	5	924	243.0	-228831.0	-2694.0	-28331.0
29	17	50	5	924	244.0	-229836.0	-2736.0	-27653.0
29	17	50	5	925	245.0	-230631.0	-2772.0	-27612.0
29	17	50	5	926	246.0	-231409.0	-2788.0	-27825.0
29	17	50	5	926	247.0	-232039.0	-2821.0	-27314.0
29	17	50	5	927	248.0	-232549.0	-2874.0	-27350.0
29	17	50	5	941	249.0	-232913.0	-2901.0	-27742.0
29	17	50	5	942	250.0	-233173.0	-2909.0	-27277.0
29	17	50	5	942	251.0	-233179.0	-2937.0	-27244.0
29	17	50	5	943	252.0	-233066.0	-2969.0	-27452.0
29	17	50	5	944	253.0	-232812.0	-3008.0	-27605.0
29	17	50	5	944	254.0	-232487.0	-3027.0	-27205.0
29	17	50	5	964	255.0	-232310.0	-3056.0	-27058.0
29	17	50	5	965	0.0	-232128.0	-3080.0	-27102.0
29	17	50	5	966	1.0	-232216.0	-3101.0	-27270.0
29	17	50	5	966	2.0	-232806.0	-3138.0	-27536.0
29	17	50	5	967	3.0	-233402.0	-3167.0	-27765.0
29	17	50	5	968	4.0	-233966.0	-3204.0	-27777.0
29	17	50	5	968	5.0	-234314.0	-3247.0	-27869.0
29	17	50	5	969	6.0	-234389.0	-3264.0	-27532.0
29	17	50	5	970	7.0	-234266.0	-3281.0	-27323.0
29	17	50	5	970	8.0	-234112.0	-3301.0	-27614.0
29	17	50	5	971	9.0	-234065.0	-3344.0	-27297.0
29	17	50	5	971	10.0	-234199.0	-3374.0	-27052.0
29	17	50	5	972	11.0	-234737.0	-3392.0	-26931.0
29	17	50	5	973	12.0	-235667.0	-3427.0	-26657.0
29	17	50	5	973	13.0	-236964.0	-3468.0	-26226.0
29	17	50	5	986	14.0	-238470.0	-3501.0	-26111.0
29	17	50	5	987	15.0	-240249.0	-3507.0	-26073.0
29	17	50	5	988	16.0	-242151.0	-3544.0	-26132.0
29	17	50	5	988	17.0	-244362.0	-3577.0	-26581.0
29	17	50	5	989	18.0	-247054.0	-3607.0	-27458.0
29	17	50	5	990	19.0	-249717.0	-3646.0	-29344.0
29	17	50	5	990	20.0	-252171.0	-3675.0	-31859.0
29	17	50	5	991	21.0	-254421.0	-3711.0	-34913.0
29	17	50	5	992	22.0	-256459.0	-3729.0	-38404.0
29	17	50	5	992	23.0	-258317.0	-3743.0	-42826.0
29	17	50	5	993	24.0	-260458.0	-3767.0	-47535.0
29	17	50	5	994	25.0	-262667.0	-3800.0	-51442.0
29	17	50	5	994	26.0	-264933.0	-3830.0	-54487.0
29	17	50	5	995	27.0	-267385.0	-3858.0	-58093.0
29	17	50	5	995	28.0	-270101.0	-3899.0	-62350.0
29	17	50	6	9	29.0	-272789.0	-3927.0	-66452.0
29	17	50	6	10	30.0	-275044.0	-3937.0	-71798.0
29	17	50	6	11	31.0	-276380.0	-3972.0	-78102.0
29	17	50	6	11	32.0	-276641.0	-4015.0	-80379.0
29	17	50	6	12	33.0	-276045.0	-4034.0	-77683.0
29	17	50	6	13	34.0	-274689.0	-4066.0	-71894.0
29	17	50	6	13	35.0	-272861.0	-4106.0	-63751.0
29	17	50	6	14	36.0	-270710.0	-4139.0	-55116.0
29	17	50	6	32	37.0	-268597.0	-4168.0	-48112.0
29	17	50	6	33	38.0	-266838.0	-4206.0	-40749.0
29	17	50	6	34	39.0	-265584.0	-4217.0	-34040.0
29	17	50	6	34	40.0	-265422.0	-4238.0	-31339.0
29	17	50	6	35	41.0	-266141.0	-4257.0	-30642.0
29	17	50	6	36	42.0	-267413.0	-4272.0	-30188.0
29	17	50	6	37	43.0	-267392.0	-4305.0	-30301.0
29	17	50	6	37	44.0	-265366.0	-4359.0	-30681.0
29	17	50	6	38	45.0	-259930.0	-4377.0	-30786.0
29	17	50	6	39	46.0	-251815.0	-4401.0	-30384.0
29	17	50	6	39	47.0	-237981.0	-4436.0	-29800.0
29	17	50	6	40	48.0	-219471.0	-4447.0	-29870.0
29	17	50	6	41	49.0	-200691.0	-4479.0	-29992.0
29	17	50	6	41	50.0	-181545.0	-4520.0	-29903.0
29	17	50	6	42	51.0	-164292.0	-4537.0	-29390.0
29	17	50	6	57	52.0	-153187.0	-4558.0	-29296.0
29	17	50	6	58	53.0	-150459.0	-4581.0	-28666.0
29	17	50	6	58	54.0	-157353.0	-4601.0	-28567.0
29	17	50	6	59	55.0	-172282.0	-4621.0	-28720.0
29	17	50	6	60	56.0	-193780.0	-4662.0	-28284.0
29	17	50	6	60	57.0	-219940.0	-4698.0	-27451.0
29	17	50	6	61	58.0	-246876.0	-4732.0	-27263.0
29	17	50	6	61	59.0	-273007.0	-4759.0	-27281.0
29	17	50	6	81	60.0	-296337.0	-4789.0	-27157.0
29	17	50	6	81	61.0	-314369.0	-4797.0	-27359.0
29	17	50	6	82	62.0	-326871.0	-4823.0	-27090.0
29	17	50	6	83	63.0	-336007.0	-4871.0	-26764.0
29	17	50	6	84	64.0	-342907.0	-4899.0	-26791.0
29	17	50	6	84	65.0	-348172.0	-4922.0	-26626.0
29	17	50	6	85	66.0	-350532.0	-4946.0	-26531.0
29	17	50	6	86	67.0	-348664.0	-4953.0	-26662.0
29	17	50	6	86	68.0	-342665.0	-4989.0	-27175.0
29	17	50	6	87	69.0	-333538.0	-5032.0	-27082.0
29	17	50	6	88	70.0	-323221.0	-5063.0	-26760.0
29	17	50	6	88	71.0	-313726.0	-5101.0	-26726.0
29	17	50	6	89	72.0	-306039.0	-5120.0	-26830.0
29	17	50	6	89	73.0	-300226.0	-5147.0	-26885.0
29	17	50	6	90	74.0	-295239.0	-5177.0	-26959.0
29	17	50	6	105	75.0	-289657.0	-5184.0	-26931.0
29	17	50	6	108	76.0	-283541.0	-5198.0	-27222.0
29	17	50	6	114	77.0	-276652.0	-5229.0	-27060.0
29	17	50	6	121	78.0	-269167.0	-5279.0	-26982.0
29	17	50	6	123	79.0	-261392.0	-5307.0	-27128.0
29	17	50	6	124	80.0	-255102.0	-5333.0	-26946.0
29	17	50	6	125	81.0	-250547.0	-5364.0	-26302.0
29	17	50	6	125	82.0	-247480.0	-5384.0	-26299.0
29	17	50	6	126	83.0	-246307.0	-5404.0	-26637.0
29	17	50	6	126	84.0	-247708.0	-5421.0	-26631.0
29	17	50	6	127	85.0	-252095.0	-5453.0	-26601.0
29	17	50	6	127	86.0	-257368.0	-5489.0	-26825.0
29	17	50	6	128	87.0	-261732.0	-5511.0	-26531.0
29	17	50	6	129	88.0	-265351.0	-5549.0	-26671.0
29	17	50	6	129	89.0	-267311.0	-5571.0	-26560.0
29	17	50	6	130	90.0	-267533.0	-5588.0	-26781.0
29	17	50	6	130	91.0	-265352.0	-5619.0	-26726.0
29	17	50	6	131	92.0	-261434.0	-5641.0	-27150.0
29	17	50	6	131	93.0	-257229.0	-5664.0	-27241.0
29	17	50	6	132	94.0	-252737.0	-5696.0	-26966.0
29	17	50	6	132	95.0	-248016.0	-5719.0	-26987.0
29	17	50	6	133	96.0	-242908.0	-5734.0	-26806.0
29	17	50	6	143	97.0	-237273.0	-5755.0	-26493.0
29	17	50	6	144	98.0	-231571.0	-5784.0	-26369.0
29	17	50	6	144	99.0	-226293.0	-5798.0	-26405.0
29	17	50	6	145	100.0	-222101.0	-5831.0	-26422.0
29	17	50	6	145	101.0	-217710.0	-5866.0	-26108.0
29	17	50	6	146	102.0	-213073.0	-5909.0	-26580.0
29	17	50	6	147	103.0	-208861.0	-5934.0	-27027.0
29	17	50	6	165	104.0	-205062.0	-5949.0	-26552.0
29	17	50	6	165	105.0	-201549.0	-5967.0	-26486.0
29	17	50	6	166	106.0	-198566.0	-5984.0	-26357.0
29	17	50	6	166	107.0	-196694.0	-6024.0	-25667.0
29	17	50	6	167	108.0	-196255.0	-6059.0	-25844.0
29	17	50	6	168	109.0	-196756.0	-6081.0	-25988.0
29	17	50	6	168	110.0	-197705.0	-6121.0	-25880.0
29	17	50	6	169	111.0	-199501.0	-6149.0	-25915.0
29	17	50	6	188	112.0	-201824.0	-6156.0	-26097.0
29	17	50	6	188	113.0	-204871.0	-6161.0	-25867.0
29	17	50	6	189	114.0	-208025.0	-6189.0	-26233.0
29	17	50	6	189	115.0	-211719.0	-6219.0	-26356.0
29	17	50	6	190	116.0	-215977.0	-6245.0	-25899.0
29	17	50	6	191	117.0	-220861.0	-6266.0	-25832.0
29	17	50	6	191	118.0	-225147.0	-6282.0	-25419.0
29	17	50	6	192	119.0	-229036.0	-6301.0	-24928.0
29	17	50	6	192	120.0	-231895.0	-6328.0	-25382.0
29	17	50	6	193	121.0	-233381.0	-6353.0	-25922.0
29	17	50	6	193	122.0	-233271.0	-6376.0	-25634.0
29	17	50	6	194	123.0	-232002.0	-6402.0	-25271.0
29	17	50	6	194	124.0	-230206.0	-6418.0	-25752.0
29	17	50	6	195	125.0	-227736.0	-6462.0	-25437.0
29	17	50	6	196	126.0	-225031.0	-6484.0	-25179.0
29	17	50	6	211	127.0	-221858.0	-6504.0	-25052.0
29	17	50	6	212	128.0	-217974.0	-6509.0	-24364.0
29	17	50	6	212	129.0	-213212.0	-6546.0	-24034.0
29	17	50	6	213	130.0	-207689.0	-6565.0	-24407.0
29	17	50	6	213	131.0	-201841.0	-6589.0	-24311.0
29	17	50	6	214	132.0	-195735.0	-6622.0	-23782.0
29	17	50	6	214	133.0	-189901.0	-6657.0	-23768.0
29	17	50	6	235	134.0	-184372.0	-6663.0	-23787.0
29	17	50	6	236	135.0	-178896.0	-6662.0	-23992.0
29	17	50	6	236	136.0	-173888.0	-6680.0	-24004.0
29	17	50	6	237	137.0	-169289.0	-6694.0	-23659.0
29	17	50	6	238	138.0	-165514.0	-6679.0	-23404.0
29	17	50	6	238	139.0	-162784.0	-6684.0	-23453.0
29	17	50	6	239	140.0	-160604.0	-6713.0	-23552.0
29	17	50	6	239	141.0	-158839.0	-6743.0	-23436.0
29	17	50	6	259	142.0	-157593.0	-6731.0	-23232.0
29	17	50	6	260	143.0	-157010.0	-6718.0	-22986.0
29	17	50	6	261	144.0	-157549.0	-6712.0	-22709.0
29	17	50	6	261	145.0	-159284.0	-6686.0	-22763.0
29	17	50	6	262	146.0	-161947.0	-6703.0	-22772.0
29	17	50	6	262	147.0	-164584.0	-6696.0	-22477.0
29	17	50	6	263	148.0	-167317.0	-6692.0	-22391.0
29	17	50	6	264	149.0	-170114.0	-6682.0	-22244.0
29	17	50	6	264	150.0	-172657.0	-6664.0	-22381.0
29	17	50	6	265	151.0	-175372.0	-6625.0	-22798.0
29	17	50	6	265	152.0	-177758.0	-6579.0	-22909.0
29	17	50	6	266	153.0	-179667.0	-6557.0	-22984.0
29	17	50	6	266	154.0	-181659.0	-6539.0	-22911.0
29	17	50	6	267	155.0	-184022.0	-6494.0	-23099.0
29	17	50	6	267	156.0	-186731.0	-6482.0	-23137.0
29	17	50	6	268	157.0	-189383.0	-6424.0	-22299.0
29	17	50	6	268	158.0	-191860.0	-6365.0	-22243.0
29	17	50	6	269	159.0	-193973.0	-6312.0	-22012.0
29	17	50	6	270	160.0	-195554.0	-6269.0	-21965.0
29	17	50	6	270	161.0	-196772.0	-6191.0	-22376.0
29	17	50	6	271	162.0	-197857.0	-6125.0	-22641.0
29	17	50	6	282	163.0	-198407.0	-6063.0	-22204.0
29	17	50	6	282	164.0	-198545.0	-5998.0	-22617.0
29	17	50	6	283	165.0	-197983.0	-5912.0	-23106.0
29	17	50	6	283	166.0	-197254.0	-5841.0	-22759.0
29	17	50	6	284	167.0	-196763.0	-5766.0	-22912.0
29	17	50	6	285	168.0	-195997.0	-5680.0	-22959.0
29	17	50	6	285	169.0	-195185.0	-5607.0	-22532.0
29	17	50	6	286	170.0	-194373.0	-5524.0	-22605.0
29	17	50	6	286	171.0	-193076.0	-5419.0	-23195.0
29	17	50	6	287	172.0	-192266.0	-5311.0	-23039.0
29	17	50	6	305	173.0	-191341.0	-5209.0	-22926.0
29	17	50	6	305	174.0	-189958.0	-5106.0	-22898.0
29	17	50	6	306	175.0	-188037.0	-5006.0	-23266.0
29	17	50	6	306	176.0	-185408.0	-4906.0	-23430.0
29	17	50	6	307	177.0	-182994.0	-4801.0	-23170.0
29	17	50	6	308	178.0	-181017.0	-4686.0	-22859.0
29	17	50	6	309	179.0	-179542.0	-4570.0	-23042.0
29	17	50	6	309	180.0	-178655.0	-4476.0	-23223.0
29	17	50	6	310	181.0	-177978.0	-4368.0	-23484.0
29	17	50	6	310	182.0	-179041.0	-4263.0	-23673.0
29	17	50	6	311	183.0	-181688.0	-4162.0	-23834.0
29	17	50	6	312	184.0	-180910.0	-4053.0	-24026.0
29	17	50	6	312	185.0	-182692.0	-3954.0	-24165.0
29	17	50	6	313	186.0	-188609.0	-3829.0	-24081.0
29	17	50	6	328	187.0	-196765.0	-3719.0	-23723.0
29	17	50	6	328	188.0	-203054.0	-3622.0	-23527.0
29	17	50	6	329	189.0	-208225.0	-3517.0	-23809.0
29	17	50	6	330	190.0	-212359.0	-3424.0	-23966.0
29	17	50	6	330	191.0	-214762.0	-3321.0	-23626.0
29	17	50	6	331	192.0	-215411.0	-3221.0	-23638.0
29	17	50	6	331	193.0	-215120.0	-3126.0	-23837.0
29	17	50	6	350	194.0	-214142.0	-3031.0	-23709.0
29	17	50	6	351	195.0	-213212.0	-2926.0	-23845.0
29	17	50	6	352	196.0	-212341.0	-2812.0	-24100.0
29	17	50	6	352	197.0	-211204.0	-2724.0	-23949.0
29	17	50	6	353	198.0	-209814.0	-2646.0	-23779.0
29	17	50	6	353	199.0	-207841.0	-2558.0	-24311.0
29	17	50	6	354	200.0	-205384.0	-2471.0	-24169.0
29	17	50	6	355	201.0	-202441.0	-2376.0	-23926.0
29	17	50	6	355	202.0	-198551.0	-2271.0	-24220.0
29	17	50	6	356	203.0	-194315.0	-2182.0	-24352.0
29	17	50	6	356	204.0	-189476.0	-2099.0	-24294.0
29	17	50	6	357	205.0	-185226.0	-2024.0	-24527.0
29	17	50	6	357	206.0	-182059.0	-1945.0	-24557.0
29	17	50	6	358	207.0	-178250.0	-1865.0	-24383.0
29	17	50	6	359	208.0	-172524.0	-1796.0	-23779.0
29	17	50	6	359	209.0	-163462.0	-1717.0	-23640.0
29	17	50	6	373	210.0	-153665.0	-1652.0	-23800.0
29	17	50	6	373	211.0	-147279.0	-1569.0	-23909.0
29	17	50	6	374	212.0	-144125.0	-1488.0	-23964.0
29	17	50	6	375	213.0	-143722.0	-1424.0	-24269.0
29	17	50	6	375	214.0	-147866.0	-1369.0	-24318.0
29	17	50	6	376	215.0	-153572.0	-1327.0	-24330.0
29	17	50	6	396	216.0	-154785.0	-1240.0	-24034.0
29	17	50	6	397	217.0	-154349.0	-1178.0	-24164.0
29	17	50	6	397	218.0	-152454.0	-1120.0	-23836.0
29	17	50	6	398	219.0	-148082.0	-1072.0	-23680.0
29	17	50	6	399	220.0	-142381.0	-1029.0	-23889.0
29	17	50	6	399	221.0	-136341.0	-966.0	-23944.0
29	17	50	6	400	222.0	-131085.0	-906.0	-23822.0
29	17	50	6	401	223.0	-128075.0	-843.0	-24019.0
29	17	50	6	401	224.0	-128118.0	-801.0	-24512.0
29	17	50	6	402	225.0	-130429.0	-750.0	-24420.0
29	17	50	6	402	226.0	-134738.0	-682.0	-24054.0
29	17	50	6	403	227.0	-139374.0	-629.0	-24067.0
29	17	50	6	403	228.0	-143645.0	-597.0	-23586.0
29	17	50	6	404	229.0	-147128.0	-553.0	-23544.0
29	17	50	6	405	230.0	-149527.0	-526.0	-24036.0
29	17	50	6	422	231.0	-151814.0	-472.0	-23850.0
29	17	50	6	422	232.0	-154098.0	-387.0	-23886.0
29	17	50	6	423	233.0	-156362.0	-343.0	-24054.0
29	17	50	6	424	234.0	-158242.0	-319.0	-24135.0
29	17	50	6	424	235.0	-159905.0	-264.0	-23854.0
29	17	50	6	425	236.0	-161176.0	-225.0	-23739.0
29	17	50	6	426	237.0	-161272.0	-213.0	-23479.0
29	17	50	6	426	238.0	-160553.0	-173.0	-23262.0
29	17	50	6	444	239.0	-159277.0	-129.0	-23446.0
29	17	50	6	445	240.0	-158101.0	-74.0	-23894.0
29	17	50	6	446	241.0	-156859.0	-37.0	-23992.0
29	17	50	6	446	242.0	-156351.0	0.0	-24002.0
29	17	50	6	447	243.0	-156129.0	44.0	-23996.0
29	17	50	6	448	244.0	-156363.0	68.0	-24109.0
29	17	50	6	448	245.0	-156807.0	99.0	-24326.0
29	17	50	6	449	246.0	-157435.0	155.0	-24162.0
29	17	50	6	449	247.0	-158034.0	199.0	-23922.0
29	17	50	6	450	248.0	-158801.0	247.0	-23043.0
29	17	50	6	450	249.0	-159884.0	276.0	-23032.0
29	17	50	6	451	250.0	-160797.0	301.0	-23094.0
29	17	50	6	452	251.0	-162005.0	331.0	-23211.0
29	17	50	6	452	252.0	-162512.0	369.0	-23366.0
29	17	50	6	453	253.0	-163222.0	398.0	-23622.0
29	17	50	6	468	254.0	-164354.0	427.0	-23839.0
29	17	50	6	469	255.0	-166035.0	485.0	-24207.0
29	17	50	6	469	0.0	-168249.0	528.0	-23869.0
29	17	50	6	470	1.0	-171405.0	539.0	-23594.0
29	17	50	6	470	2.0	-176726.0	556.0	-23782.0
29	17	50	6	471	3.0	-183920.0	595.0	-23636.0
29	17	50	6	472	4.0	-190291.0	634.0	-23871.0
29	17	50	6	472	5.0	-196416.0	664.0	-23954.0
29	17	50	6	473	6.0	-204569.0	693.0	-23271.0
29	17	50	6	474	7.0	-211942.0	731.0	-22946.0
29	17	50	6	474	8.0	-215824.0	749.0	-22788.0
29	17	50	6	475	9.0	-218457.0	771.0	-23002.0
29	17	50	6	475	10.0	-219502.0	811.0	-23125.0
29	17	50	6	476	11.0	-219062.0	819.0	-23311.0
29	17	50	6	476	12.0	-217529.0	829.0	-23261.0
29	17	50	6	491	13.0	-215762.0	860.0	-22871.0
29	17	50	6	491	14.0	-214052.0	871.0	-22850.0
29	17	50	6	492	15.0	-211917.0	894.0	-23167.0
29	17	50	6	493	16.0	-210338.0	926.0	-22814.0
29	17	50	6	493	17.0	-209209.0	937.0	-22850.0
29	17	50	6	494	18.0	-208996.0	941.0	-23256.0
29	17	50	6	495	19.0	-208744.0	942.0	-23754.0
29	17	50	6	495	20.0	-208792.0	972.0	-23786.0
29	17	50	6	513	21.0	-209065.0	993.0	-23579.0
29	17	50	6	514	22.0	-209686.0	1012.0	-23599.0
29	17	50	6	515	23.0	-210508.0	1043.0	-22922.0
29	17	50	6	516	24.0	-211430.0	1045.0	-23251.0
29	17	50	6	516	25.0	-212611.0	1040.0	-23292.0
29	17	50	6	517	26.0	-213336.0	1058.0	-23034.0
29	17	50	6	518	27.0	-213269.0	1081.0	-23061.0
29	17	50	6	518	28.0	-212786.0	1113.0	-23066.0
29	17	50	6	519	29.0	-211879.0	1139.0	-23380.0
29	17	50	6	519	30.0	-210997.0	1138.0	-23391.0
29	17	50	6	520	31.0	-209921.0	1159.0	-23204.0
29	17	50	6	521	32.0	-209001.0	1163.0	-23032.0
29	17	50	6	521	33.0	-208392.0	1169.0	-23108.0
29	17	50	6	522	34.0	-207881.0	1191.0	-23121.0
29	17	50	6	522	35.0	-207847.0	1216.0	-22951.0
29	17	50	6	537	36.0	-207837.0	1243.0	-23414.0
29	17	50	6	538	37.0	-207200.0	1280.0	-23748.0
