29	17	57	14	497	244.0	-223584.0	-3759.0	-11638.0
29	17	57	14	499	245.0	-222126.0	-3615.0	-11247.0
29	17	57	14	501	246.0	-220479.0	-3563.0	-11375.0
29	17	57	14	504	247.0	-217767.0	-3561.0	-11226.0
29	17	57	14	506	248.0	-213731.0	-3296.0	-11207.0
29	17	57	14	508	249.0	-207959.0	-3082.0	-11161.0
29	17	57	14	510	250.0	-198539.0	-2830.0	-11144.0
29	17	57	14	512	251.0	-180174.0	-2446.0	-10732.0
29	17	57	14	512	252.0	-149197.0	-2524.0	-10499.0
29	17	57	14	513	253.0	-128441.0	-3001.0	-10144.0
29	17	57	14	514	254.0	-141826.0	-3422.0	-10010.0
29	17	57	14	515	255.0	-156234.0	-2571.0	-10608.0
29	17	57	14	516	0.0	-170350.0	-2281.0	-11249.0
29	17	57	14	517	1.0	-193058.0	-2030.0	-11339.0
29	17	57	14	517	2.0	-208726.0	-2048.0	-11031.0
29	17	57	14	526	3.0	-221512.0	-2077.0	-10728.0
29	17	57	14	527	4.0	-231873.0	-1939.0	-10573.0
29	17	57	14	528	5.0	-236086.0	-1811.0	-11034.0
29	17	57	14	528	6.0	-235482.0	-1841.0	-11108.0
29	17	57	14	554	7.0	-233702.0	-1598.0	-10872.0
29	17	57	14	555	8.0	-229594.0	-1420.0	-10634.0
29	17	57	14	555	9.0	-223249.0	-1536.0	-10585.0
29	17	57	14	556	10.0	-213451.0	-1442.0	-10318.0
29	17	57	14	585	11.0	-200802.0	-1322.0	-10087.0
29	17	57	14	629	12.0	-188592.0	-1507.0	-9906.0
29	17	57	14	629	13.0	-174950.0	-1380.0	-10231.0
29	17	57	14	630	14.0	-166601.0	-1176.0	-10411.0
29	17	57	14	631	15.0	-171997.0	-1067.0	-10958.0
29	17	57	14	631	16.0	-181937.0	-1096.0	-12002.0
29	17	57	14	632	17.0	-190802.0	-1087.0	-12198.0
29	17	57	14	633	18.0	-198309.0	-1053.0	-11587.0
29	17	57	14	633	19.0	-201844.0	-1082.0	-11587.0
29	17	57	14	634	20.0	-202714.0	-1004.0	-11314.0
29	17	57	14	634	21.0	-203182.0	-876.0	-10844.0
29	17	57	14	635	22.0	-203539.0	-804.0	-10592.0
29	17	57	14	636	23.0	-202568.0	-834.0	-10952.0
29	17	57	14	636	24.0	-201636.0	-946.0	-11332.0
29	17	57	14	637	25.0	-200876.0	-716.0	-11214.0
29	17	57	14	638	36.0	-191920.0	158.0	-11193.0
29	17	57	14	638	59.0	-223611.0	-823.0	-9916.0
29	17	57	14	639	60.0	-225308.0	-776.0	-9853.0
29	17	57	14	640	61.0	-227514.0	-773.0	-9626.0
29	17	57	14	640	62.0	-230112.0	-331.0	-9541.0
29	17	57	14	641	63.0	-232855.0	-599.0	-9224.0
29	17	57	14	642	64.0	-235313.0	-799.0	-9304.0
29	17	57	14	674	65.0	-237684.0	-772.0	-9474.0
29	17	57	14	675	66.0	-239665.0	-865.0	-9174.0
29	17	57	14	675	67.0	-241130.0	-1044.0	-9664.0
29	17	57	14	676	68.0	-242371.0	-1072.0	-10102.0
29	17	57	14	677	69.0	-243601.0	-1019.0	-10452.0
29	17	57	14	677	70.0	-244868.0	-1066.0	-10534.0
29	17	57	14	678	71.0	-246322.0	-1135.0	-10903.0
29	17	57	14	679	72.0	-247282.0	-1137.0	-10632.0
29	17	57	14	680	73.0	-247446.0	-1104.0	-10526.0
29	17	57	14	680	74.0	-247768.0	-957.0	-10239.0
29	17	57	14	681	75.0	-248844.0	-1376.0	-9992.0
29	17	57	14	681	76.0	-249166.0	-1477.0	-10277.0
29	17	57	14	682	77.0	-248998.0	-1347.0	-9897.0
29	17	57	14	683	78.0	-248461.0	-1378.0	-9440.0
29	17	57	14	683	79.0	-246899.0	-1351.0	-9916.0
29	17	57	14	684	81.0	-243470.0	-1607.0	-10149.0
29	17	57	14	684	82.0	-241050.0	-1428.0	-10197.0
29	17	57	14	685	83.0	-238911.0	-1472.0	-10343.0
29	17	57	14	686	84.0	-237637.0	-1506.0	-10534.0
29	17	57	14	686	85.0	-236439.0	-1612.0	-10506.0
29	17	57	14	687	86.0	-235491.0	-1307.0	-10251.0
29	17	57	14	687	87.0	-234936.0	-1552.0	-9960.0
29	17	57	14	719	88.0	-234762.0	-1717.0	-9608.0
29	17	57	14	720	89.0	-234832.0	-1313.0	-9144.0
29	17	57	14	721	90.0	-234846.0	-1594.0	-9169.0
29	17	57	14	722	91.0	-234477.0	-1640.0	-8990.0
29	17	57	14	722	92.0	-234293.0	-1624.0	-8687.0
29	17	57	14	723	93.0	-234452.0	-1506.0	-8617.0
29	17	57	14	724	94.0	-234284.0	-1554.0	-8440.0
29	17	57	14	724	95.0	-235016.0	-1907.0	-8210.0
29	17	57	14	725	96.0	-235775.0	-1966.0	-8098.0
29	17	57	14	726	97.0	-236248.0	-2043.0	-8011.0
29	17	57	14	726	98.0	-236702.0	-1952.0	-8061.0
29	17	57	14	727	99.0	-236776.0	-2112.0	-7779.0
29	17	57	14	728	100.0	-236734.0	-2082.0	-8142.0
29	17	57	14	728	101.0	-236702.0	-2111.0	-8096.0
29	17	57	14	729	102.0	-236041.0	-2137.0	-7288.0
29	17	57	14	729	104.0	-232871.0	-1379.0	-7451.0
29	17	57	14	730	105.0	-231543.0	-1784.0	-7659.0
29	17	57	14	731	106.0	-230089.0	-2070.0	-7787.0
29	17	57	14	731	107.0	-228986.0	-2206.0	-7469.0
29	17	57	14	732	108.0	-227495.0	-2285.0	-7289.0
29	17	57	14	732	109.0	-225818.0	-2142.0	-7026.0
29	17	57	14	765	110.0	-224678.0	-2090.0	-7149.0
29	17	57	14	766	111.0	-223784.0	-2257.0	-7472.0
29	17	57	14	767	112.0	-222961.0	-2397.0	-7975.0
29	17	57	14	767	113.0	-222082.0	-2466.0	-8381.0
29	17	57	14	768	114.0	-220517.0	-2393.0	-8491.0
29	17	57	14	769	115.0	-218922.0	-2446.0	-8226.0
29	17	57	14	769	116.0	-217282.0	-2518.0	-7914.0
29	17	57	14	770	117.0	-215963.0	-2491.0	-7914.0
29	17	57	14	770	118.0	-215194.0	-2383.0	-7634.0
29	17	57	14	771	119.0	-214054.0	-2236.0	-7441.0
29	17	57	14	772	120.0	-212717.0	-2352.0	-7241.0
29	17	57	14	772	121.0	-211394.0	-2399.0	-7056.0
29	17	57	14	773	122.0	-209778.0	-2550.0	-6901.0
29	17	57	14	774	123.0	-208140.0	-2521.0	-7246.0
29	17	57	14	774	124.0	-207244.0	-2535.0	-7903.0
29	17	57	14	775	126.0	-206046.0	-2658.0	-7589.0
29	17	57	14	776	127.0	-205849.0	-2374.0	-8526.0
29	17	57	14	776	128.0	-205644.0	-2712.0	-8326.0
29	17	57	14	777	129.0	-205449.0	-2726.0	-7532.0
29	17	57	14	777	130.0	-205499.0	-2692.0	-7276.0
29	17	57	14	778	131.0	-205250.0	-2789.0	-7273.0
29	17	57	14	779	132.0	-205137.0	-2651.0	-7146.0
29	17	57	14	809	133.0	-204776.0	-2826.0	-7275.0
29	17	57	14	809	134.0	-203946.0	-2771.0	-7689.0
29	17	57	14	810	135.0	-203757.0	-2832.0	-7504.0
29	17	57	14	811	136.0	-203086.0	-2904.0	-7351.0
29	17	57	14	811	137.0	-202053.0	-2862.0	-6951.0
29	17	57	14	812	138.0	-201342.0	-2879.0	-6880.0
29	17	57	14	813	139.0	-200832.0	-2979.0	-7207.0
29	17	57	14	813	140.0	-200342.0	-3148.0	-7381.0
29	17	57	14	814	141.0	-199859.0	-3248.0	-7762.0
29	17	57	14	814	142.0	-199128.0	-3329.0	-9079.0
29	17	57	14	815	143.0	-198242.0	-3296.0	-10314.0
29	17	57	14	816	144.0	-197677.0	-3195.0	-12184.0
29	17	57	14	817	145.0	-197102.0	-3317.0	-15034.0
29	17	57	14	818	146.0	-196134.0	-3402.0	-18297.0
29	17	57	14	818	147.0	-194731.0	-3474.0	-21724.0
29	17	57	14	819	149.0	-191284.0	-3507.0	-24711.0
29	17	57	14	820	150.0	-189631.0	-3606.0	-23278.0
29	17	57	14	821	151.0	-188414.0	-3595.0	-20759.0
29	17	57	14	821	152.0	-187668.0	-3627.0	-21071.0
29	17	57	14	822	153.0	-187018.0	-3805.0	-22717.0
29	17	57	14	822	154.0	-187115.0	-3847.0	-22872.0
29	17	57	14	854	155.0	-187184.0	-3754.0	-20369.0
29	17	57	14	855	156.0	-187036.0	-3629.0	-16378.0
29	17	57	14	856	157.0	-187093.0	-3857.0	-11606.0
29	17	57	14	856	158.0	-187596.0	-4058.0	-5470.0
29	17	57	14	857	159.0	-189534.0	-4111.0	672.0
29	17	57	14	858	160.0	-193796.0	-4162.0	6976.0
29	17	57	14	858	161.0	-200688.0	-3762.0	12688.0
29	17	57	14	859	162.0	-210946.0	-3841.0	13481.0
29	17	57	14	860	163.0	-223303.0	-4131.0	10261.0
29	17	57	14	860	164.0	-235469.0	-4163.0	5385.0
29	17	57	14	861	165.0	-245024.0	-4422.0	1150.0
29	17	57	14	861	166.0	-248701.0	-4331.0	-2169.0
29	17	57	14	862	167.0	-242589.0	-4197.0	-4935.0
29	17	57	14	863	168.0	-228843.0	-4464.0	-6194.0
29	17	57	14	864	169.0	-209392.0	-4636.0	-6817.0
29	17	57	14	864	171.0	-177779.0	-4536.0	-7909.0
29	17	57	14	865	172.0	-171029.0	-4739.0	-8031.0
29	17	57	14	866	173.0	-171202.0	-4784.0	-7713.0
29	17	57	14	867	174.0	-178752.0	-4741.0	-7613.0
29	17	57	14	867	175.0	-192457.0	-4611.0	-7089.0
29	17	57	14	868	176.0	-207239.0	-4817.0	-7014.0
29	17	57	14	899	177.0	-219389.0	-4781.0	-7856.0
29	17	57	14	900	178.0	-233075.0	-4624.0	-7939.0
29	17	57	14	901	179.0	-249775.0	-4302.0	-8234.0
29	17	57	14	901	180.0	-264430.0	-4507.0	-8412.0
29	17	57	14	902	181.0	-270786.0	-5108.0	-8764.0
29	17	57	14	902	182.0	-266693.0	-5135.0	-9034.0
29	17	57	14	903	183.0	-255841.0	-5079.0	-9198.0
29	17	57	14	904	184.0	-242652.0	-5206.0	-9944.0
29	17	57	14	904	185.0	-229799.0	-5241.0	-9786.0
29	17	57	14	905	186.0	-219884.0	-5359.0	-8949.0
29	17	57	14	906	187.0	-213916.0	-5008.0	-8420.0
29	17	57	14	906	188.0	-211186.0	-5025.0	-7947.0
29	17	57	14	907	189.0	-208897.0	-5476.0	-7877.0
29	17	57	14	907	190.0	-206761.0	-5590.0	-8445.0
29	17	57	14	908	191.0	-206231.0	-5670.0	-8810.0
29	17	57	14	909	193.0	-210800.0	-5786.0	-8982.0
29	17	57	14	909	194.0	-212086.0	-5876.0	-9555.0
29	17	57	14	910	195.0	-211017.0	-5895.0	-9489.0
29	17	57	14	910	196.0	-208074.0	-5923.0	-9403.0
29	17	57	14	911	197.0	-204429.0	-5999.0	-9224.0
29	17	57	14	912	198.0	-199978.0	-6009.0	-9023.0
29	17	57	14	912	199.0	-195241.0	-6031.0	-9216.0
29	17	57	14	945	200.0	-190840.0	-6162.0	-9745.0
29	17	57	14	946	201.0	-186138.0	-6153.0	-10670.0
29	17	57	14	946	202.0	-182245.0	-6150.0	-10528.0
29	17	57	14	947	203.0	-179062.0	-6243.0	-10327.0
29	17	57	14	948	204.0	-176224.0	-6641.0	-10265.0
29	17	57	14	948	205.0	-173878.0	-6789.0	-10190.0
29	17	57	14	949	206.0	-171497.0	-6362.0	-10024.0
29	17	57	14	949	207.0	-169544.0	-6474.0	-9882.0
29	17	57	14	950	208.0	-167675.0	-6479.0	-9739.0
29	17	57	14	951	209.0	-165219.0	-6637.0	-9672.0
29	17	57	14	951	210.0	-162479.0	-6726.0	-9874.0
29	17	57	14	952	211.0	-159375.0	-6610.0	-10263.0
29	17	57	14	952	212.0	-155688.0	-6679.0	-10464.0
29	17	57	14	953	213.0	-151517.0	-6974.0	-10661.0
29	17	57	14	953	214.0	-147360.0	-7282.0	-11219.0
29	17	57	14	954	216.0	-139929.0	-7121.0	-11789.0
29	17	57	14	955	217.0	-136147.0	-7012.0	-12575.0
29	17	57	14	955	218.0	-132177.0	-7074.0	-12766.0
29	17	57	14	956	219.0	-128944.0	-7257.0	-12869.0
29	17	57	14	956	220.0	-126318.0	-7431.0	-13012.0
29	17	57	14	957	221.0	-124363.0	-7515.0	-12726.0
29	17	57	14	989	222.0	-122847.0	-7520.0	-12642.0
29	17	57	14	990	223.0	-122052.0	-7150.0	-12818.0
29	17	57	14	991	224.0	-122928.0	-6988.0	-12807.0
29	17	57	14	992	225.0	-124858.0	-7311.0	-13061.0
29	17	57	14	992	226.0	-127261.0	-7470.0	-13626.0
29	17	57	14	993	227.0	-129436.0	-7702.0	-14276.0
29	17	57	14	994	228.0	-131872.0	-7841.0	-14809.0
29	17	57	14	994	229.0	-134594.0	-8081.0	-15098.0
29	17	57	14	995	230.0	-136138.0	-7940.0	-15163.0
29	17	57	14	995	231.0	-137214.0	-7906.0	-15628.0
29	17	57	14	996	232.0	-138405.0	-8008.0	-15182.0
29	17	57	14	997	233.0	-139570.0	-8111.0	-14864.0
29	17	57	14	997	234.0	-141275.0	-8218.0	-15351.0
29	17	57	14	998	235.0	-143373.0	-8442.0	-15354.0
29	17	57	14	998	236.0	-144614.0	-8319.0	-15311.0
29	17	57	14	999	238.0	-147419.0	-8876.0	-16414.0
29	17	57	14	999	239.0	-148935.0	-8603.0	-16803.0
29	17	57	15	0	240.0	-150595.0	-8082.0	-17482.0
29	17	57	15	0	241.0	-151726.0	-8225.0	-17841.0
29	17	57	15	1	242.0	-153052.0	-8611.0	-18297.0
29	17	57	15	2	243.0	-154822.0	-8512.0	-18503.0
29	17	57	15	2	244.0	-156582.0	-8477.0	-18546.0
29	17	57	15	34	245.0	-158731.0	-8450.0	-18751.0
29	17	57	15	34	246.0	-160517.0	-8562.0	-18911.0
29	17	57	15	35	247.0	-161811.0	-8760.0	-18897.0
29	17	57	15	35	248.0	-162942.0	-9029.0	-18780.0
29	17	57	15	36	249.0	-164014.0	-8528.0	-19059.0
29	17	57	15	37	250.0	-165037.0	-8557.0	-19658.0
29	17	57	15	37	251.0	-165203.0	-8746.0	-19367.0
29	17	57	15	38	252.0	-164579.0	-9011.0	-19003.0
29	17	57	15	38	253.0	-163767.0	-8882.0	-19251.0
29	17	57	15	39	254.0	-162414.0	-8855.0	-19197.0
29	17	57	15	39	255.0	-161482.0	-8530.0	-19233.0
29	17	57	15	40	0.0	-160582.0	-8698.0	-19421.0
29	17	57	15	41	1.0	-160087.0	-8561.0	-19847.0
29	17	57	15	41	2.0	-160141.0	-8205.0	-19468.0
29	17	57	15	42	3.0	-160507.0	-8540.0	-19026.0
29	17	57	15	42	5.0	-161950.0	-8169.0	-19388.0
29	17	57	15	43	6.0	-162696.0	-8031.0	-19129.0
29	17	57	15	43	7.0	-164384.0	-7879.0	-19581.0
29	17	57	15	44	8.0	-166716.0	-8021.0	-19895.0
29	17	57	15	44	9.0	-169566.0	-7954.0	-19313.0
29	17	57	15	56	10.0	-172696.0	-7850.0	-18257.0
29	17	57	15	81	11.0	-176127.0	-7723.0	-18021.0
29	17	57	15	82	12.0	-179714.0	-7361.0	-17871.0
29	17	57	15	82	13.0	-184252.0	-7362.0	-17167.0
29	17	57	15	83	14.0	-188624.0	-7197.0	-17062.0
29	17	57	15	83	15.0	-192436.0	-7118.0	-17746.0
29	17	57	15	84	16.0	-196061.0	-6921.0	-17967.0
29	17	57	15	85	17.0	-199277.0	-6555.0	-17616.0
29	17	57	15	85	18.0	-202253.0	-6455.0	-17112.0
29	17	57	15	86	19.0	-204332.0	-5995.0	-16021.0
29	17	57	15	86	20.0	-205561.0	-5674.0	-15095.0
29	17	57	15	87	21.0	-206382.0	-6168.0	-14480.0
29	17	57	15	87	22.0	-206371.0	-6189.0	-14372.0
29	17	57	15	88	23.0	-205663.0	-6327.0	-14269.0
29	17	57	15	89	24.0	-204660.0	-5595.0	-14539.0
29	17	57	15	89	25.0	-203355.0	-5396.0	-14116.0
29	17	57	15	90	27.0	-201193.0	-5101.0	-13203.0
29	17	57	15	90	28.0	-200482.0	-4936.0	-12759.0
29	17	57	15	91	29.0	-200250.0	-4637.0	-11587.0
29	17	57	15	91	30.0	-200356.0	-4417.0	-10717.0
29	17	57	15	92	31.0	-200465.0	-4432.0	-10191.0
29	17	57	15	92	32.0	-200822.0	-4342.0	-9702.0
29	17	57	15	93	33.0	-201510.0	-4102.0	-9558.0
29	17	57	15	124	34.0	-201995.0	-4368.0	-9457.0
29	17	57	15	125	35.0	-202721.0	-4339.0	-9501.0
29	17	57	15	125	36.0	-203752.0	-2946.0	-9374.0
29	17	57	15	126	37.0	-205554.0	-3261.0	-9403.0
29	17	57	15	127	38.0	-207950.0	-3284.0	-9290.0
29	17	57	15	128	39.0	-210801.0	-3050.0	-9182.0
29	17	57	15	128	40.0	-214922.0	-2958.0	-8762.0
29	17	57	15	129	41.0	-219389.0	-2877.0	-8556.0
29	17	57	15	129	42.0	-224330.0	-2845.0	-8136.0
29	17	57	15	130	43.0	-229428.0	-2666.0	-8138.0
29	17	57	15	131	44.0	-233216.0	-2463.0	-8459.0
29	17	57	15	131	45.0	-236356.0	-2108.0	-8857.0
29	17	57	15	132	46.0	-237554.0	-2046.0	-8608.0
29	17	57	15	133	47.0	-236472.0	-1951.0	-8048.0
29	17	57	15	133	48.0	-232324.0	-1966.0	-7313.0
29	17	57	15	134	50.0	-200536.0	-1770.0	-6749.0
29	17	57	15	134	51.0	-170209.0	-1564.0	-6713.0
29	17	57	15	135	52.0	-152304.0	-1572.0	-6835.0
29	17	57	15	135	53.0	-164162.0	-1591.0	-7092.0
29	17	57	15	136	54.0	-173977.0	-1676.0	-7177.0
29	17	57	15	137	55.0	-183264.0	-1453.0	-7289.0
29	17	57	15	169	56.0	-201628.0	-1049.0	-7022.0
29	17	57	15	169	57.0	-210017.0	-894.0	-7075.0
29	17	57	15	170	58.0	-213988.0	-935.0	-6859.0
29	17	57	15	170	59.0	-214654.0	-1099.0	-6974.0
29	17	57	15	171	60.0	-208180.0	-969.0	-7074.0
29	17	57	15	172	61.0	-195815.0	-906.0	-6888.0
29	17	57	15	172	62.0	-186097.0	-867.0	-6631.0
29	17	57	15	173	63.0	-184571.0	-769.0	-6548.0
29	17	57	15	173	64.0	-187102.0	-547.0	-6541.0
29	17	57	15	174	65.0	-189621.0	-603.0	-6902.0
29	17	57	15	175	66.0	-193292.0	-546.0	-6967.0
29	17	57	15	175	67.0	-195796.0	-544.0	-7316.0
29	17	57	15	176	68.0	-196769.0	-386.0	-7511.0
29	17	57	15	176	69.0	-196334.0	15.0	-7272.0
29	17	57	15	177	70.0	-195854.0	-95.0	-7121.0
29	17	57	15	178	72.0	-194308.0	-122.0	-7105.0
29	17	57	15	178	73.0	-194469.0	-81.0	-6941.0
29	17	57	15	179	74.0	-194803.0	-99.0	-6917.0
29	17	57	15	179	75.0	-195100.0	165.0	-7227.0
29	17	57	15	180	76.0	-195187.0	168.0	-6827.0
29	17	57	15	189	77.0	-194382.0	328.0	-6558.0
29	17	57	15	214	78.0	-192809.0	408.0	-6681.0
29	17	57	15	214	79.0	-190571.0	338.0	-6789.0
29	17	57	15	215	80.0	-188172.0	284.0	-6476.0
29	17	57	15	216	81.0	-185610.0	229.0	-6641.0
29	17	57	15	216	82.0	-182824.0	323.0	-6799.0
29	17	57	15	217	83.0	-180569.0	-266.0	-6870.0
29	17	57	15	217	84.0	-179165.0	-72.0	-6999.0
29	17	57	15	218	85.0	-178566.0	388.0	-7249.0
29	17	57	15	219	86.0	-179075.0	464.0	-6627.0
29	17	57	15	219	87.0	-180359.0	556.0	-6200.0
29	17	57	15	220	88.0	-182586.0	408.0	-5866.0
29	17	57	15	221	89.0	-185445.0	529.0	-5765.0
29	17	57	15	221	90.0	-188667.0	447.0	-5748.0
29	17	57	15	222	91.0	-191934.0	506.0	-6340.0
29	17	57	15	222	92.0	-194361.0	428.0	-6711.0
29	17	57	15	223	95.0	-198532.0	526.0	-6309.0
29	17	57	15	224	96.0	-199351.0	419.0	-6632.0
29	17	57	15	224	97.0	-199995.0	603.0	-6447.0
29	17	57	15	234	98.0	-200644.0	620.0	-6358.0
29	17	57	15	235	99.0	-201587.0	718.0	-6590.0
29	17	57	15	236	100.0	-202999.0	738.0	-6554.0
29	17	57	15	259	101.0	-204662.0	701.0	-6506.0
29	17	57	15	260	102.0	-206561.0	659.0	-6869.0
29	17	57	15	260	103.0	-208555.0	704.0	-6925.0
29	17	57	15	261	104.0	-210958.0	778.0	-6698.0
29	17	57	15	261	105.0	-214396.0	819.0	-6504.0
29	17	57	15	262	106.0	-217612.0	868.0	-5086.0
29	17	57	15	263	107.0	-220112.0	778.0	-4496.0
29	17	57	15	263	108.0	-221898.0	801.0	-5028.0
29	17	57	15	264	109.0	-223244.0	538.0	-5088.0
29	17	57	15	264	110.0	-224355.0	473.0	-4872.0
29	17	57	15	265	111.0	-225301.0	586.0	-5055.0
29	17	57	15	266	112.0	-225620.0	466.0	-5387.0
29	17	57	15	266	113.0	-225029.0	338.0	-5399.0
29	17	57	15	281	114.0	-224693.0	337.0	-5777.0
29	17	57	15	281	115.0	-223686.0	205.0	-6365.0
29	17	57	15	282	117.0	-220244.0	404.0	-4966.0
29	17	57	15	282	118.0	-218736.0	352.0	-4562.0
29	17	57	15	283	119.0	-217715.0	456.0	-4870.0
29	17	57	15	284	120.0	-216851.0	331.0	-4835.0
29	17	57	15	284	121.0	-216092.0	499.0	-4599.0
29	17	57	15	285	122.0	-214746.0	395.0	-4484.0
29	17	57	15	305	123.0	-213347.0	291.0	-4500.0
29	17	57	15	305	124.0	-212291.0	254.0	-4969.0
29	17	57	15	306	125.0	-211591.0	76.0	-5204.0
29	17	57	15	306	126.0	-211070.0	269.0	-5647.0
29	17	57	15	307	127.0	-211115.0	381.0	-5886.0
29	17	57	15	308	128.0	-212326.0	193.0	-5836.0
29	17	57	15	308	129.0	-213466.0	-84.0	-5708.0
29	17	57	15	309	130.0	-214565.0	-26.0	-5418.0
29	17	57	15	310	131.0	-215890.0	-17.0	-5435.0
29	17	57	15	310	132.0	-216578.0	-77.0	-5792.0
29	17	57	15	311	133.0	-216779.0	22.0	-5988.0
29	17	57	15	311	134.0	-216237.0	129.0	-6093.0
29	17	57	15	312	135.0	-215178.0	-115.0	-5955.0
29	17	57	15	313	136.0	-214610.0	-257.0	-5409.0
29	17	57	15	313	137.0	-214341.0	-93.0	-5135.0
29	17	57	15	314	139.0	-213861.0	-212.0	-6407.0
29	17	57	15	315	140.0	-213402.0	-259.0	-6360.0
29	17	57	15	315	141.0	-213042.0	-227.0	-6331.0
29	17	57	15	316	142.0	-212552.0	-291.0	-5862.0
29	17	57	15	317	143.0	-211682.0	-447.0	-6116.0
29	17	57	15	317	144.0	-210537.0	-475.0	-6546.0
29	17	57	15	318	145.0	-209801.0	-557.0	-6591.0
29	17	57	15	349	146.0	-209906.0	-476.0	-5699.0
29	17	57	15	350	147.0	-210851.0	-621.0	-4809.0
29	17	57	15	350	148.0	-212347.0	-643.0	-4644.0
29	17	57	15	351	149.0	-214207.0	-992.0	-4818.0
29	17	57	15	352	150.0	-215967.0	-721.0	-4850.0
29	17	57	15	352	151.0	-217538.0	-596.0	-4956.0
29	17	57	15	353	152.0	-218936.0	-768.0	-5445.0
29	17	57	15	354	153.0	-220256.0	-694.0	-5866.0
29	17	57	15	354	154.0	-221127.0	-749.0	-5868.0
29	17	57	15	355	155.0	-221634.0	-751.0	-6143.0
29	17	57	15	356	156.0	-222063.0	-854.0	-5719.0
29	17	57	15	356	157.0	-221934.0	-847.0	-4584.0
29	17	57	15	357	158.0	-221709.0	-875.0	-3901.0
29	17	57	15	357	159.0	-221544.0	-947.0	-3502.0
29	17	57	15	358	160.0	-221445.0	-902.0	-3151.0
29	17	57	15	359	162.0	-220753.0	-848.0	-3036.0
29	17	57	15	359	163.0	-220367.0	-1219.0	-3421.0
29	17	57	15	360	164.0	-219637.0	-1223.0	-3527.0
29	17	57	15	361	165.0	-218971.0	-1011.0	-3483.0
29	17	57	15	361	166.0	-218399.0	-1144.0	-3287.0
29	17	57	15	362	167.0	-218764.0	-1079.0	-2900.0
29	17	57	15	394	168.0	-219591.0	-974.0	-2351.0
29	17	57	15	395	169.0	-220605.0	-1094.0	-2221.0
29	17	57	15	396	170.0	-221661.0	-1233.0	-2404.0
29	17	57	15	396	171.0	-222724.0	-1284.0	-2832.0
29	17	57	15	397	172.0	-223447.0	-1297.0	-2867.0
29	17	57	15	398	173.0	-223552.0	-1331.0	-2706.0
29	17	57	15	398	174.0	-223079.0	-1289.0	-2794.0
29	17	57	15	399	175.0	-222595.0	-1422.0	-2752.0
29	17	57	15	400	176.0	-222020.0	-1249.0	-2631.0
29	17	57	15	400	177.0	-221033.0	-1211.0	-2812.0
29	17	57	15	401	178.0	-219151.0	-1322.0	-3029.0
29	17	57	15	402	179.0	-216519.0	-1471.0	-3080.0
29	17	57	15	402	180.0	-212627.0	-1566.0	-2841.0
29	17	57	15	403	181.0	-208014.0	-1622.0	-2717.0
29	17	57	15	404	182.0	-203385.0	-1384.0	-2810.0
29	17	57	15	404	184.0	-195557.0	-1734.0	-2406.0
29	17	57	15	405	185.0	-192786.0	-1715.0	-2362.0
29	17	57	15	406	186.0	-190600.0	-1772.0	-2632.0
29	17	57	15	406	187.0	-189088.0	-1876.0	-2704.0
29	17	57	15	407	188.0	-188892.0	-1764.0	-2537.0
29	17	57	15	407	189.0	-189730.0	-1896.0	-2761.0
29	17	57	15	408	190.0	-191583.0	-1934.0	-2635.0
29	17	57	15	439	191.0	-193070.0	-1897.0	-2352.0
29	17	57	15	439	192.0	-194812.0	-1938.0	-2595.0
29	17	57	15	440	193.0	-196908.0	-1693.0	-2614.0
29	17	57	15	441	194.0	-198187.0	-1568.0	-2211.0
29	17	57	15	441	195.0	-198521.0	-2016.0	-1924.0
29	17	57	15	442	196.0	-197506.0	-2247.0	-2382.0
29	17	57	15	443	197.0	-196073.0	-2253.0	-2056.0
29	17	57	15	443	198.0	-194353.0	-2176.0	-1867.0
29	17	57	15	444	199.0	-192593.0	-2242.0	-1781.0
29	17	57	15	445	200.0	-191206.0	-2310.0	-2183.0
29	17	57	15	445	201.0	-189011.0	-2190.0	-3277.0
29	17	57	15	446	202.0	-188046.0	-2249.0	-4653.0
29	17	57	15	447	203.0	-186860.0	-2174.0	-6157.0
29	17	57	15	447	204.0	-185554.0	-2252.0	-9722.0
29	17	57	15	448	205.0	-185016.0	-2912.0	-13106.0
29	17	57	15	449	207.0	-182541.0	-2617.0	-19264.0
29	17	57	15	449	208.0	-181729.0	-2551.0	-21174.0
29	17	57	15	450	209.0	-181281.0	-2606.0	-21671.0
29	17	57	15	450	210.0	-181081.0	-2706.0	-19889.0
29	17	57	15	451	211.0	-181586.0	-2513.0	-18123.0
29	17	57	15	452	212.0	-182792.0	-2550.0	-18741.0
29	17	57	15	483	213.0	-184827.0	-2652.0	-19099.0
29	17	57	15	484	214.0	-186474.0	-2761.0	-17872.0
29	17	57	15	485	215.0	-187296.0	-2802.0	-14646.0
29	17	57	15	485	216.0	-188345.0	-2907.0	-10268.0
29	17	57	15	486	217.0	-188997.0	-3083.0	-4141.0
29	17	57	15	486	218.0	-189872.0	-3032.0	1858.0
29	17	57	15	487	219.0	-192834.0	-2975.0	7456.0
29	17	57	15	488	220.0	-197424.0	-2864.0	14281.0
29	17	57	15	488	221.0	-204455.0	-2930.0	18199.0
29	17	57	15	489	222.0	-214652.0	-3219.0	16328.0
29	17	57	15	490	223.0	-227205.0	-3265.0	13242.0
29	17	57	15	490	224.0	-239014.0	-3246.0	9602.0
29	17	57	15	491	225.0	-247899.0	-3456.0	5201.0
29	17	57	15	492	226.0	-248842.0	-3427.0	1349.0
29	17	57	15	492	227.0	-242114.0	-3684.0	-757.0
29	17	57	15	493	229.0	-210240.0	-3652.0	-2599.0
29	17	57	15	494	230.0	-193911.0	-3651.0	-3120.0
29	17	57	15	495	231.0	-181151.0	-3755.0	-3042.0
29	17	57	15	496	232.0	-173719.0	-3740.0	-3483.0
29	17	57	15	496	233.0	-173106.0	-3869.0	-3742.0
29	17	57	15	497	234.0	-179709.0	-3877.0	-3304.0
29	17	57	15	498	235.0	-192870.0	-3807.0	-3121.0
29	17	57	15	529	236.0	-209782.0	-3792.0	-3106.0
29	17	57	15	529	237.0	-226749.0	-3819.0	-3291.0
29	17	57	15	530	238.0	-240306.0	-4054.0	-3597.0
29	17	57	15	531	239.0	-251081.0	-4215.0	-3769.0
29	17	57	15	531	240.0	-260395.0	-4205.0	-4369.0
29	17	57	15	532	241.0	-267871.0	-4453.0	-5313.0
29	17	57	15	533	242.0	-268111.0	-4395.0	-5752.0
29	17	57	15	533	243.0	-257829.0	-4069.0	-5270.0
29	17	57	15	534	244.0	-240769.0	-4202.0	-5333.0
29	17	57	15	535	245.0	-224029.0	-4204.0	-4881.0
29	17	57	15	535	246.0	-211796.0	-4499.0	-4176.0
29	17	57	15	536	247.0	-205683.0	-4536.0	-3525.0
29	17	57	15	537	248.0	-204889.0	-4484.0	-3546.0
29	17	57	15	537	249.0	-206390.0	-4608.0	-3770.0
29	17	57	15	538	250.0	-207109.0	-4796.0	-3664.0
29	17	57	15	538	252.0	-212021.0	-5031.0	-4445.0
29	17	57	15	539	253.0	-215401.0	-5007.0	-4678.0
29	17	57	15	540	254.0	-216590.0	-5099.0	-4611.0
29	17	57	15	540	255.0	-215193.0	-5006.0	-4637.0
29	17	57	15	541	0.0	-210991.0	-4999.0	-4810.0
29	17	57	15	541	1.0	-206464.0	-5037.0	-4761.0
29	17	57	15	575	2.0	-201801.0	-5166.0	-4691.0
29	17	57	15	576	3.0	-197744.0	-5459.0	-5041.0
29	17	57	15	576	4.0	-193225.0	-5436.0	-5476.0
29	17	57	15	577	5.0	-189276.0	-5243.0	-5632.0
29	17	57	15	578	6.0	-186416.0	-5308.0	-5709.0
29	17	57	15	579	7.0	-184243.0	-5331.0	-5779.0
29	17	57	15	579	8.0	-182345.0	-5317.0	-5823.0
29	17	57	15	580	9.0	-179921.0	-5454.0	-5471.0
29	17	57	15	581	10.0	-177620.0	-5437.0	-5350.0
29	17	57	15	581	11.0	-175731.0	-5332.0	-5304.0
29	17	57	15	582	12.0	-173171.0	-5502.0	-5528.0
29	17	57	15	582	13.0	-170494.0	-5614.0	-6101.0
29	17	57	15	583	14.0	-168176.0	-5785.0	-6494.0
29	17	57	15	584	15.0	-165614.0	-5858.0	-6668.0
29	17	57	15	584	16.0	-162795.0	-6039.0	-6461.0
29	17	57	15	585	18.0	-156862.0	-6249.0	-6739.0
29	17	57	15	585	19.0	-153670.0	-6319.0	-7029.0
29	17	57	15	586	20.0	-149972.0	-6156.0	-7555.0
29	17	57	15	587	21.0	-146790.0	-6191.0	-7999.0
29	17	57	15	587	22.0	-144231.0	-6377.0	-8312.0
29	17	57	15	588	23.0	-141960.0	-6539.0	-8736.0
29	17	57	15	620	24.0	-140856.0	-6738.0	-8206.0
29	17	57	15	620	25.0	-140201.0	-6350.0	-7746.0
29	17	57	15	621	26.0	-140394.0	-6849.0	-7992.0
29	17	57	15	622	27.0	-140881.0	-6631.0	-8306.0
29	17	57	15	622	28.0	-141471.0	-6801.0	-8206.0
29	17	57	15	623	29.0	-143288.0	-6686.0	-8646.0
29	17	57	15	624	30.0	-145255.0	-6584.0	-9567.0
29	17	57	15	624	31.0	-147784.0	-6860.0	-10109.0
29	17	57	15	625	32.0	-150328.0	-6533.0	-10251.0
29	17	57	15	626	33.0	-152716.0	-6651.0	-10769.0
29	17	57	15	626	34.0	-154131.0	-6905.0	-11091.0
29	17	57	15	627	35.0	-156082.0	-7081.0	-11061.0
29	17	57	15	628	36.0	-157262.0	-7166.0	-11179.0
29	17	57	15	628	37.0	-157575.0	-7129.0	-11696.0
29	17	57	15	629	38.0	-157892.0	-7531.0	-12003.0
29	17	57	15	630	40.0	-158122.0	-7231.0	-12249.0
29	17	57	15	631	41.0	-157267.0	-7279.0	-12120.0
29	17	57	15	631	42.0	-155866.0	-7382.0	-11578.0
29	17	57	15	632	43.0	-155373.0	-7343.0	-11609.0
29	17	57	15	632	44.0	-155704.0	-7257.0	-12113.0
29	17	57	15	633	45.0	-155819.0	-7467.0	-12717.0
29	17	57	15	634	46.0	-156643.0	-7456.0	-13494.0
29	17	57	15	664	47.0	-157530.0	-7564.0	-14117.0
29	17	57	15	665	48.0	-158508.0	-7592.0	-14965.0
29	17	57	15	666	49.0	-159593.0	-7719.0	-15037.0
29	17	57	15	666	50.0	-160302.0	-7601.0	-14656.0
29	17	57	15	667	51.0	-161929.0	-7434.0	-14414.0
29	17	57	15	668	52.0	-163469.0	-7502.0	-14384.0
29	17	57	15	668	53.0	-163252.0	-7643.0	-14237.0
29	17	57	15	669	54.0	-163404.0	-8172.0	-14609.0
29	17	57	15	670	55.0	-164052.0	-8250.0	-15142.0
29	17	57	15	670	56.0	-165416.0	-7780.0	-15472.0
29	17	57	15	671	57.0	-166192.0	-7617.0	-15664.0
29	17	57	15	672	58.0	-167340.0	-7615.0	-15498.0
29	17	57	15	672	59.0	-168810.0	-7476.0	-15158.0
29	17	57	15	673	60.0	-170896.0	-7532.0	-14981.0
29	17	57	15	674	61.0	-173098.0	-6852.0	-14762.0
29	17	57	15	674	63.0	-176867.0	-7316.0	-15457.0
29	17	57	15	675	64.0	-178664.0	-7097.0	-15281.0
29	17	57	15	675	65.0	-179913.0	-7209.0	-14716.0
29	17	57	15	676	66.0	-181507.0	-7341.0	-14857.0
29	17	57	15	677	67.0	-182866.0	-7237.0	-14796.0
29	17	57	15	677	68.0	-184083.0	-7377.0	-14788.0
29	17	57	15	709	69.0	-185395.0	-7201.0	-14567.0
29	17	57	15	710	70.0	-186492.0	-6964.0	-14414.0
29	17	57	15	710	71.0	-187330.0	-6744.0	-14197.0
29	17	57	15	711	72.0	-188042.0	-6573.0	-13887.0
29	17	57	15	712	73.0	-189426.0	-6564.0	-13476.0
29	17	57	15	712	74.0	-190466.0	-6553.0	-13488.0
29	17	57	15	713	75.0	-191882.0	-6234.0	-13365.0
29	17	57	15	714	76.0	-192944.0	-6166.0	-12934.0
29	17	57	15	714	77.0	-194021.0	-6008.0	-12969.0
29	17	57	15	715	78.0	-195422.0	-5176.0	-12991.0
29	17	57	15	716	79.0	-196239.0	-5549.0	-12483.0
29	17	57	15	717	80.0	-197406.0	-5380.0	-12087.0
29	17	57	15	717	81.0	-198509.0	-5384.0	-11880.0
29	17	57	15	718	82.0	-199332.0	-5352.0	-11455.0
29	17	57	15	719	83.0	-199615.0	-5132.0	-11212.0
29	17	57	15	719	85.0	-199827.0	-4756.0	-10511.0
29	17	57	15	720	86.0	-200816.0	-4498.0	-9710.0
29	17	57	15	720	87.0	-200828.0	-4342.0	-8996.0
29	17	57	15	721	88.0	-201301.0	-4207.0	-8461.0
29	17	57	15	722	89.0	-202011.0	-4023.0	-8181.0
29	17	57	15	722	90.0	-203401.0	-3874.0	-7919.0
29	17	57	15	723	91.0	-205750.0	-3705.0	-7177.0
29	17	57	15	754	92.0	-207894.0	-3531.0	-7148.0
29	17	57	15	755	93.0	-209774.0	-3236.0	-6889.0
29	17	57	15	756	94.0	-210491.0	-3176.0	-6602.0
29	17	57	15	756	95.0	-211374.0	-3153.0	-6302.0
29	17	57	15	757	96.0	-212035.0	-2772.0	-5851.0
29	17	57	15	758	97.0	-213236.0	-2306.0	-5724.0
29	17	57	15	759	98.0	-215099.0	-2605.0	-5227.0
29	17	57	15	759	99.0	-217597.0	-2617.0	-5026.0
29	17	57	15	760	100.0	-220412.0	-2482.0	-5129.0
29	17	57	15	761	101.0	-223282.0	-2218.0	-5128.0
29	17	57	15	761	102.0	-226512.0	-1926.0	-5170.0
29	17	57	15	762	103.0	-228946.0	-1391.0	-5537.0
29	17	57	15	763	104.0	-231085.0	-1943.0	-5792.0
29	17	57	15	763	105.0	-231315.0	-1830.0	-5785.0
29	17	57	15	764	106.0	-228357.0	-1624.0	-5344.0
29	17	57	15	765	108.0	-205944.0	-1812.0	-3167.0
29	17	57	15	765	109.0	-180024.0	-1520.0	-2508.0
29	17	57	15	766	110.0	-162535.0	-1011.0	-2511.0
29	17	57	15	767	111.0	-167046.0	-802.0	-2812.0
29	17	57	15	767	112.0	-180504.0	-989.0	-2524.0
29	17	57	15	768	113.0	-188502.0	-806.0	-2466.0
29	17	57	15	800	114.0	-210925.0	-829.0	-2775.0
29	17	57	15	801	115.0	-225731.0	-885.0	-2834.0
29	17	57	15	801	116.0	-234917.0	-832.0	-2380.0
29	17	57	15	802	117.0	-244492.0	-712.0	-2211.0
29	17	57	15	803	118.0	-249128.0	-424.0	-1816.0
29	17	57	15	804	119.0	-245647.0	-189.0	-2099.0
29	17	57	15	804	120.0	-237934.0	-91.0	-2386.0
29	17	57	15	805	121.0	-226229.0	-104.0	-2512.0
29	17	57	15	806	122.0	-210301.0	-256.0	-2849.0
29	17	57	15	806	123.0	-200657.0	-146.0	-3050.0
29	17	57	15	807	124.0	-198625.0	-57.0	-3226.0
29	17	57	15	808	125.0	-201991.0	-31.0	-3504.0
29	17	57	15	809	126.0	-207311.0	-54.0	-3613.0
29	17	57	15	809	127.0	-211290.0	429.0	-3466.0
29	17	57	15	810	128.0	-213497.0	845.0	-3352.0
29	17	57	15	811	130.0	-218522.0	463.0	-3118.0
29	17	57	15	811	131.0	-219710.0	715.0	-2896.0
29	17	57	15	812	132.0	-220361.0	581.0	-2614.0
29	17	57	15	812	133.0	-221887.0	474.0	-2797.0
29	17	57	15	813	134.0	-223243.0	-67.0	-3040.0
29	17	57	15	814	135.0	-223613.0	374.0	-3359.0
29	17	57	15	814	136.0	-223737.0	709.0	-3404.0
29	17	57	15	846	137.0	-223746.0	803.0	-3420.0
29	17	57	15	847	138.0	-223567.0	758.0	-3496.0
29	17	57	15	847	139.0	-222441.0	835.0	-3349.0
29	17	57	15	848	140.0	-221364.0	899.0	-3851.0
29	17	57	15	849	141.0	-220893.0	1682.0	-4122.0
29	17	57	15	849	142.0	-220451.0	1284.0	-3675.0
29	17	57	15	850	143.0	-220231.0	1211.0	-3851.0
29	17	57	15	851	144.0	-220784.0	1199.0	-4604.0
29	17	57	15	852	145.0	-221432.0	1121.0	-4376.0
29	17	57	15	852	146.0	-222113.0	1028.0	-3386.0
29	17	57	15	853	147.0	-223592.0	1116.0	-3108.0
29	17	57	15	854	148.0	-224342.0	1168.0	-2926.0
29	17	57	15	854	149.0	-224856.0	887.0	-3020.0
29	17	57	15	855	150.0	-224544.0	789.0	-3379.0
29	17	57	15	856	151.0	-223834.0	1093.0	-3897.0
29	17	57	15	856	153.0	-221742.0	981.0	-3986.0
29	17	57	15	857	154.0	-220960.0	1257.0	-4092.0
29	17	57	15	857	155.0	-219561.0	1483.0	-3900.0
29	17	57	15	858	156.0	-217877.0	1375.0	-3395.0
29	17	57	15	859	157.0	-216854.0	1442.0	-3092.0
29	17	57	15	859	158.0	-216177.0	1582.0	-3419.0
29	17	57	15	889	159.0	-216002.0	1298.0	-3327.0
29	17	57	15	890	160.0	-216436.0	1326.0	-3221.0
29	17	57	15	891	161.0	-216996.0	1329.0	-3218.0
29	17	57	15	892	162.0	-217894.0	1153.0	-3746.0
29	17	57	15	893	163.0	-218390.0	1106.0	-3945.0
29	17	57	15	893	164.0	-218802.0	1168.0	-4085.0
29	17	57	15	894	165.0	-219850.0	1073.0	-3563.0
29	17	57	15	895	166.0	-220889.0	1013.0	-3327.0
29	17	57	15	896	167.0	-221624.0	956.0	-3444.0
29	17	57	15	896	168.0	-221429.0	976.0	-3669.0
29	17	57	15	897	169.0	-220667.0	923.0	-3629.0
29	17	57	15	898	170.0	-219681.0	873.0	-3499.0
29	17	57	15	898	171.0	-219489.0	952.0	-2923.0
29	17	57	15	899	172.0	-219971.0	752.0	-2796.0
29	17	57	15	900	173.0	-220514.0	828.0	-2976.0
29	17	57	15	900	175.0	-222052.0	681.0	-3150.0
29	17	57	15	901	176.0	-222450.0	897.0	-3297.0
29	17	57	15	902	177.0	-222249.0	869.0	-3857.0
29	17	57	15	902	178.0	-222270.0	789.0	-4319.0
29	17	57	15	903	179.0	-221986.0	773.0	-4265.0
29	17	57	15	903	180.0	-222014.0	839.0	-4441.0
29	17	57	15	935	181.0	-222215.0	910.0	-4631.0
29	17	57	15	936	182.0	-221707.0	898.0	-4777.0
29	17	57	15	936	183.0	-221112.0	762.0	-4109.0
29	17	57	15	937	184.0	-221242.0	775.0	-3921.0
29	17	57	15	938	185.0	-221567.0	802.0	-4123.0
29	17	57	15	938	186.0	-221957.0	569.0	-4091.0
29	17	57	15	939	187.0	-222579.0	231.0	-4083.0
29	17	57	15	940	188.0	-222861.0	395.0	-4125.0
29	17	57	15	941	189.0	-223411.0	466.0	-4060.0
29	17	57	15	941	190.0	-224439.0	496.0	-4519.0
29	17	57	15	942	191.0	-226181.0	411.0	-4688.0
29	17	57	15	943	192.0	-227860.0	186.0	-4569.0
29	17	57	15	944	193.0	-229542.0	324.0	-4325.0
29	17	57	15	944	194.0	-230724.0	522.0	-4362.0
29	17	57	15	945	195.0	-232448.0	331.0	-4053.0
29	17	57	15	946	197.0	-234735.0	411.0	-3929.0
29	17	57	15	946	198.0	-234361.0	328.0	-4443.0
29	17	57	15	947	199.0	-233945.0	286.0	-4076.0
29	17	57	15	948	200.0	-233379.0	126.0	-4104.0
29	17	57	15	948	201.0	-232672.0	148.0	-4861.0
29	17	57	15	949	202.0	-232342.0	424.0	-4606.0
29	17	57	15	950	203.0	-232507.0	299.0	-4457.0
29	17	57	15	979	204.0	-233226.0	52.0	-4569.0
29	17	57	15	980	205.0	-234384.0	137.0	-4518.0
29	17	57	15	981	206.0	-235432.0	330.0	-3968.0
29	17	57	15	982	207.0	-236812.0	436.0	-3532.0
29	17	57	15	982	208.0	-238099.0	168.0	-3361.0
29	17	57	15	983	209.0	-239106.0	249.0	-3312.0
29	17	57	15	984	210.0	-239864.0	163.0	-3283.0
29	17	57	15	984	211.0	-240059.0	271.0	-3455.0
29	17	57	15	985	212.0	-240751.0	145.0	-2839.0
29	17	57	15	986	213.0	-241017.0	95.0	-2240.0
29	17	57	15	987	214.0	-241090.0	29.0	-2194.0
29	17	57	15	987	215.0	-241762.0	62.0	-1938.0
29	17	57	15	988	216.0	-242290.0	2.0	-1188.0
29	17	57	15	989	217.0	-242921.0	-17.0	-1122.0
29	17	57	15	989	218.0	-243620.0	83.0	-1579.0
29	17	57	15	990	220.0	-241799.0	-116.0	-931.0
29	17	57	15	991	221.0	-241496.0	-76.0	-946.0
29	17	57	15	991	222.0	-240189.0	-166.0	-1214.0
29	17	57	15	992	223.0	-238832.0	-83.0	-880.0
29	17	57	15	992	224.0	-237126.0	510.0	-736.0
29	17	57	15	993	225.0	-234831.0	493.0	-1322.0
29	17	57	16	25	226.0	-232417.0	-150.0	-1539.0
29	17	57	16	26	227.0	-229858.0	-104.0	-1869.0
29	17	57	16	26	228.0	-226484.0	-112.0	-2112.0
29	17	57	16	27	229.0	-223249.0	-92.0	-2100.0
29	17	57	16	28	230.0	-219917.0	-137.0	-1442.0
29	17	57	16	29	231.0	-215959.0	-152.0	-1217.0
29	17	57	16	29	232.0	-211317.0	-176.0	-1284.0
29	17	57	16	30	233.0	-206818.0	-260.0	-1373.0
29	17	57	16	31	234.0	-203535.0	-427.0	-1544.0
29	17	57	16	32	235.0	-201206.0	-392.0	-1316.0
29	17	57	16	32	236.0	-199669.0	-311.0	-1090.0
29	17	57	16	33	237.0	-199036.0	-148.0	-1710.0
29	17	57	16	34	238.0	-198338.0	-264.0	-2097.0
29	17	57	16	34	239.0	-197859.0	-424.0	-1726.0
29	17	57	16	35	240.0	-198159.0	-379.0	-1407.0
29	17	57	16	36	242.0	-199626.0	-444.0	-609.0
29	17	57	16	37	243.0	-200227.0	-556.0	-1208.0
29	17	57	16	37	244.0	-200236.0	-348.0	-1427.0
29	17	57	16	38	245.0	-200363.0	-266.0	-1637.0
29	17	57	16	39	246.0	-200545.0	-267.0	-1828.0
29	17	57	16	39	247.0	-200741.0	-574.0	-1791.0
29	17	57	16	40	248.0	-200399.0	-551.0	-1845.0
29	17	57	16	70	249.0	-199435.0	-438.0	-2268.0
29	17	57	16	71	250.0	-198351.0	-493.0	-2502.0
29	17	57	16	72	251.0	-197154.0	-613.0	-3372.0
29	17	57	16	72	252.0	-196119.0	-664.0	-3937.0
29	17	57	16	73	253.0	-195267.0	-514.0	-4871.0
29	17	57	16	74	254.0	-194409.0	-604.0	-6906.0
29	17	57	16	75	255.0	-194211.0	-629.0	-10001.0
29	17	57	16	75	0.0	-194727.0	-722.0	-12809.0
29	17	57	16	76	1.0	-195555.0	-910.0	-15894.0
29	17	57	16	77	2.0	-196303.0	-1031.0	-19960.0
29	17	57	16	77	3.0	-197292.0	-1399.0	-21774.0
29	17	57	16	78	4.0	-198056.0	-1296.0	-21941.0
29	17	57	16	79	5.0	-198807.0	-1249.0	-19455.0
29	17	57	16	80	6.0	-199983.0	-1107.0	-16825.0
29	17	57	16	80	7.0	-200596.0	-862.0	-17182.0
29	17	57	16	81	9.0	-202632.0	-899.0	-16666.0
29	17	57	16	81	10.0	-203099.0	-1202.0	-13312.0
29	17	57	16	82	11.0	-203647.0	-1364.0	-8372.0
29	17	57	16	83	12.0	-204354.0	-1155.0	-2134.0
29	17	57	16	83	13.0	-205481.0	-1206.0	4096.0
29	17	57	16	84	14.0	-207692.0	-1502.0	10834.0
29	17	57	16	115	15.0	-212184.0	-1372.0	18041.0
29	17	57	16	116	16.0	-218647.0	-1388.0	19914.0
29	17	57	16	116	17.0	-227664.0	-1574.0	18797.0
29	17	57	16	117	18.0	-238571.0	-1770.0	15774.0
29	17	57	16	119	19.0	-250009.0	-1914.0	12481.0
29	17	57	16	120	20.0	-260511.0	-2176.0	8393.0
29	17	57	16	120	21.0	-267746.0	-1668.0	4366.0
29	17	57	16	121	22.0	-267601.0	-1631.0	1456.0
29	17	57	16	122	23.0	-260659.0	-1761.0	194.0
29	17	57	16	123	24.0	-247242.0	-1989.0	-1302.0
29	17	57	16	123	25.0	-229972.0	-1944.0	-2819.0
29	17	57	16	124	26.0	-212137.0	-1742.0	-2364.0
29	17	57	16	125	27.0	-195268.0	-1889.0	-1718.0
29	17	57	16	125	28.0	-180973.0	-1797.0	-1656.0
29	17	57	16	126	29.0	-171513.0	-1905.0	-1899.0
29	17	57	16	127	31.0	-171685.0	-2249.0	-2144.0
29	17	57	16	127	32.0	-181567.0	-1909.0	-2513.0
29	17	57	16	128	33.0	-195174.0	-2070.0	-3077.0
29	17	57	16	129	34.0	-210205.0	-2277.0	-3330.0
29	17	57	16	129	35.0	-226281.0	-2189.0	-3222.0
29	17	57	16	130	36.0	-241923.0	-2137.0	-3223.0
29	17	57	16	130	37.0	-254215.0	-2339.0	-3029.0
29	17	57	16	159	38.0	-257941.0	-2356.0	-2834.0
29	17	57	16	160	39.0	-253079.0	-2156.0	-3002.0
29	17	57	16	161	40.0	-244087.0	-1950.0	-3361.0
29	17	57	16	162	41.0	-232765.0	-2446.0	-3514.0
29	17	57	16	162	42.0	-221659.0	-2431.0	-3669.0
29	17	57	16	163	43.0	-212007.0	-2314.0	-3681.0
29	17	57	16	164	44.0	-204992.0	-2484.0	-3643.0
29	17	57	16	165	45.0	-201009.0	-2814.0	-3709.0
29	17	57	16	165	46.0	-199944.0	-2869.0	-3859.0
29	17	57	16	166	47.0	-200241.0	-2604.0	-3734.0
29	17	57	16	167	48.0	-200333.0	-1997.0	-4291.0
29	17	57	16	168	49.0	-199597.0	-2364.0	-5230.0
29	17	57	16	168	50.0	-198794.0	-2694.0	-5231.0
29	17	57	16	169	51.0	-197617.0	-2986.0	-4999.0
29	17	57	16	170	52.0	-195307.0	-2994.0	-4854.0
29	17	57	16	170	54.0	-190913.0	-3246.0	-4347.0
29	17	57	16	171	55.0	-189108.0	-3099.0	-4632.0
29	17	57	16	171	56.0	-187420.0	-3013.0	-4986.0
29	17	57	16	172	57.0	-185951.0	-3103.0	-4747.0
29	17	57	16	173	58.0	-183841.0	-3315.0	-4887.0
29	17	57	16	173	59.0	-181133.0	-3291.0	-5106.0
29	17	57	16	204	60.0	-178500.0	-3343.0	-5109.0
29	17	57	16	205	61.0	-176602.0	-2866.0	-5131.0
29	17	57	16	205	62.0	-175326.0	-3371.0	-5207.0
29	17	57	16	206	63.0	-174927.0	-3633.0	-5512.0
29	17	57	16	207	64.0	-175424.0	-3711.0	-5406.0
29	17	57	16	208	65.0	-176393.0	-3504.0	-5499.0
29	17	57	16	208	66.0	-177646.0	-3877.0	-5737.0
29	17	57	16	209	67.0	-178228.0	-4057.0	-5871.0
29	17	57	16	210	68.0	-177568.0	-3306.0	-5693.0
29	17	57	16	210	69.0	-175732.0	-3616.0	-6193.0
29	17	57	16	211	70.0	-173156.0	-3946.0	-6291.0
29	17	57	16	212	71.0	-170633.0	-3999.0	-6318.0
29	17	57	16	212	72.0	-167198.0	-3984.0	-6502.0
29	17	57	16	213	73.0	-163546.0	-3932.0	-6701.0
29	17	57	16	214	74.0	-159704.0	-3857.0	-6884.0
29	17	57	16	214	76.0	-153864.0	-4336.0	-7796.0
29	17	57	16	215	77.0	-151736.0	-4259.0	-8009.0
29	17	57	16	216	78.0	-150511.0	-4544.0	-8871.0
29	17	57	16	216	79.0	-150516.0	-5000.0	-9376.0
29	17	57	16	217	80.0	-151387.0	-5617.0	-9371.0
29	17	57	16	218	81.0	-153169.0	-4806.0	-9249.0
29	17	57	16	218	82.0	-155511.0	-4524.0	-9576.0
29	17	57	16	249	83.0	-157626.0	-4861.0	-9944.0
29	17	57	16	250	84.0	-159987.0	-4757.0	-9897.0
29	17	57	16	251	85.0	-162189.0	-4890.0	-9771.0
29	17	57	16	251	86.0	-164304.0	-4762.0	-9679.0
29	17	57	16	252	87.0	-165676.0	-4801.0	-9759.0
29	17	57	16	253	88.0	-165691.0	-4934.0	-9609.0
29	17	57	16	253	89.0	-165135.0	-5003.0	-10164.0
29	17	57	16	254	90.0	-164227.0	-5349.0	-10516.0
29	17	57	16	254	91.0	-163431.0	-5509.0	-10849.0
29	17	57	16	255	92.0	-162467.0	-5258.0	-11494.0
29	17	57	16	256	93.0	-161926.0	-5271.0	-11906.0
29	17	57	16	256	94.0	-161632.0	-5491.0	-12166.0
29	17	57	16	257	95.0	-161074.0	-5455.0	-12787.0
29	17	57	16	257	96.0	-160131.0	-5484.0	-13093.0
29	17	57	16	258	97.0	-159551.0	-5899.0	-13164.0
29	17	57	16	259	99.0	-160278.0	-5923.0	-13489.0
29	17	57	16	259	100.0	-162351.0	-5901.0	-13250.0
29	17	57	16	260	101.0	-164671.0	-5876.0	-12808.0
29	17	57	16	260	102.0	-167312.0	-5616.0	-13089.0
29	17	57	16	261	103.0	-170064.0	-5816.0	-13650.0
29	17	57	16	261	104.0	-173130.0	-6127.0	-14033.0
29	17	57	16	294	105.0	-176249.0	-6214.0	-14440.0
29	17	57	16	294	106.0	-178703.0	-6122.0	-14624.0
29	17	57	16	295	107.0	-180437.0	-5988.0	-14348.0
29	17	57	16	296	108.0	-182128.0	-5987.0	-14102.0
29	17	57	16	296	109.0	-182726.0	-6027.0	-14430.0
29	17	57	16	297	110.0	-182794.0	-5957.0	-15122.0
29	17	57	16	298	111.0	-182886.0	-5914.0	-14757.0
29	17	57	16	298	112.0	-182460.0	-5754.0	-14567.0
29	17	57	16	299	113.0	-182606.0	-5701.0	-14367.0
29	17	57	16	299	114.0	-183048.0	-5892.0	-14127.0
29	17	57	16	300	115.0	-183774.0	-5967.0	-14073.0
29	17	57	16	300	116.0	-184551.0	-5728.0	-14147.0
29	17	57	16	301	117.0	-185191.0	-5885.0	-13912.0
29	17	57	16	302	118.0	-186422.0	-5724.0	-13937.0
29	17	57	16	302	119.0	-187799.0	-5536.0	-13618.0
29	17	57	16	303	121.0	-189877.0	-5286.0	-13672.0
29	17	57	16	303	122.0	-190865.0	-5377.0	-14259.0
29	17	57	16	304	123.0	-192281.0	-5597.0	-14001.0
29	17	57	16	305	124.0	-194344.0	-5299.0	-13442.0
29	17	57	16	305	125.0	-197042.0	-5077.0	-12892.0
29	17	57	16	306	126.0	-200194.0	-5112.0	-12394.0
29	17	57	16	340	127.0	-203287.0	-4897.0	-12009.0
29	17	57	16	340	128.0	-206346.0	-4772.0	-12061.0
29	17	57	16	341	129.0	-209613.0	-4706.0	-11671.0
29	17	57	16	342	130.0	-212638.0	-4433.0	-11108.0
29	17	57	16	342	131.0	-215135.0	-4256.0	-11014.0
29	17	57	16	343	132.0	-217289.0	-3746.0	-10764.0
29	17	57	16	344	133.0	-218042.0	-3666.0	-10976.0
29	17	57	16	344	134.0	-218466.0	-4000.0	-10747.0
29	17	57	16	345	135.0	-218956.0	-3836.0	-9667.0
29	17	57	16	345	136.0	-219236.0	-3765.0	-9326.0
29	17	57	16	346	137.0	-219537.0	-3659.0	-8729.0
29	17	57	16	347	138.0	-219652.0	-3426.0	-8157.0
29	17	57	16	347	139.0	-220285.0	-4014.0	-8346.0
29	17	57	16	348	140.0	-220986.0	-3691.0	-8161.0
29	17	57	16	348	141.0	-221746.0	-2897.0	-7441.0
29	17	57	16	349	143.0	-224893.0	-2582.0	-6356.0
29	17	57	16	350	144.0	-226654.0	-2275.0	-5549.0
29	17	57	16	351	145.0	-228405.0	-1693.0	-4937.0
29	17	57	16	351	146.0	-230081.0	-2197.0	-5341.0
29	17	57	16	352	147.0	-231166.0	-2007.0	-5708.0
29	17	57	16	352	148.0	-231797.0	-1794.0	-5659.0
29	17	57	16	353	149.0	-231896.0	-1769.0	-5152.0
29	17	57	16	385	150.0	-231097.0	-1536.0	-4472.0
29	17	57	16	386	151.0	-229318.0	-1557.0	-3841.0
29	17	57	16	387	152.0	-226670.0	-1365.0	-3565.0
29	17	57	16	387	153.0	-223754.0	-1043.0	-3621.0
29	17	57	16	388	154.0	-219134.0	-1270.0	-3151.0
29	17	57	16	388	155.0	-210132.0	-1199.0	-2752.0
29	17	57	16	389	156.0	-191641.0	-1004.0	-2873.0
29	17	57	16	390	157.0	-164690.0	-814.0	-3110.0
29	17	57	16	390	158.0	-145729.0	-494.0	-3646.0
29	17	57	16	391	159.0	-150661.0	-523.0	-3634.0
29	17	57	16	392	160.0	-161047.0	-1064.0	-3235.0
29	17	57	16	393	161.0	-171089.0	-670.0	-2782.0
29	17	57	16	394	162.0	-193647.0	-674.0	-2839.0
29	17	57	16	394	163.0	-211714.0	-1119.0	-2826.0
29	17	57	16	395	164.0	-227101.0	-517.0	-2474.0
29	17	57	16	396	166.0	-248038.0	-295.0	-4097.0
29	17	57	16	396	167.0	-251701.0	89.0	-4068.0
29	17	57	16	397	168.0	-253182.0	-47.0	-3412.0
29	17	57	16	397	169.0	-250650.0	241.0	-3071.0
29	17	57	16	398	170.0	-244770.0	154.0	-2731.0
29	17	57	16	399	171.0	-237802.0	281.0	-2347.0
29	17	57	16	429	172.0	-230642.0	269.0	-2701.0
29	17	57	16	430	173.0	-223678.0	246.0	-2847.0
29	17	57	16	430	174.0	-217739.0	493.0	-2401.0
29	17	57	16	431	175.0	-212371.0	648.0	-1842.0
29	17	57	16	432	176.0	-205244.0	456.0	-1834.0
29	17	57	16	433	177.0	-195050.0	531.0	-2064.0
29	17	57	16	433	178.0	-182334.0	613.0	-1831.0
29	17	57	16	434	179.0	-169554.0	503.0	-1819.0
29	17	57	16	434	180.0	-163749.0	668.0	-2215.0
29	17	57	16	435	181.0	-173222.0	639.0	-1851.0
29	17	57	16	436	182.0	-187182.0	714.0	-1818.0
29	17	57	16	437	183.0	-196026.0	793.0	-2161.0
29	17	57	16	437	184.0	-198279.0	880.0	-2464.0
29	17	57	16	438	185.0	-197301.0	923.0	-2825.0
29	17	57	16	439	186.0	-196371.0	727.0	-3413.0
29	17	57	16	439	188.0	-194336.0	1206.0	-3284.0
29	17	57	16	440	189.0	-196169.0	904.0	-3423.0
29	17	57	16	441	190.0	-199603.0	991.0	-3189.0
29	17	57	16	441	191.0	-203752.0	1101.0	-2861.0
29	17	57	16	442	192.0	-207712.0	1196.0	-2828.0
29	17	57	16	442	193.0	-210479.0	1151.0	-2859.0
29	17	57	16	443	194.0	-212177.0	1421.0	-2507.0
29	17	57	16	474	195.0	-213052.0	1443.0	-2396.0
29	17	57	16	474	196.0	-212924.0	1087.0	-2867.0
29	17	57	16	475	197.0	-212397.0	977.0	-3202.0
29	17	57	16	476	198.0	-211942.0	1219.0	-3144.0
29	17	57	16	476	199.0	-211824.0	1106.0	-2980.0
29	17	57	16	477	200.0	-211890.0	1102.0	-2930.0
29	17	57	16	477	201.0	-211831.0	1274.0	-2963.0
29	17	57	16	478	202.0	-212466.0	1388.0	-2971.0
29	17	57	16	479	203.0	-213502.0	1274.0	-3393.0
29	17	57	16	479	204.0	-215314.0	1201.0	-3428.0
29	17	57	16	480	205.0	-217667.0	1229.0	-3456.0
29	17	57	16	481	206.0	-219273.0	1285.0	-3187.0
29	17	57	16	481	207.0	-220701.0	1946.0	-3116.0
29	17	57	16	482	208.0	-222669.0	1708.0	-2367.0
29	17	57	16	482	209.0	-224936.0	1541.0	-2733.0
29	17	57	16	483	211.0	-227984.0	1042.0	-2636.0
29	17	57	16	484	212.0	-229569.0	975.0	-2313.0
29	17	57	16	484	213.0	-231819.0	1059.0	-2306.0
29	17	57	16	485	214.0	-234197.0	736.0	-1443.0
29	17	57	16	485	215.0	-236247.0	850.0	-767.0
29	17	57	16	486	216.0	-237974.0	598.0	-868.0
29	17	57	16	520	217.0	-238902.0	739.0	-1271.0
29	17	57	16	521	218.0	-239282.0	879.0	-1462.0
29	17	57	16	521	219.0	-239724.0	781.0	-1796.0
29	17	57	16	522	220.0	-239897.0	877.0	-1929.0
29	17	57	16	523	221.0	-239823.0	694.0	-1781.0
29	17	57	16	523	222.0	-239790.0	672.0	-2107.0
29	17	57	16	524	223.0	-239282.0	419.0	-2617.0
29	17	57	16	525	224.0	-238841.0	508.0	-2839.0
29	17	57	16	525	225.0	-238642.0	622.0	-3367.0
29	17	57	16	526	226.0	-237825.0	111.0	-4102.0
29	17	57	16	526	227.0	-236527.0	558.0	-3608.0
29	17	57	16	527	228.0	-235190.0	689.0	-2643.0
29	17	57	16	528	229.0	-233844.0	1134.0	-2004.0
29	17	57	16	529	230.0	-232877.0	351.0	-1802.0
29	17	57	16	530	231.0	-232122.0	160.0	-1839.0
29	17	57	16	531	233.0	-231567.0	-99.0	-1784.0
29	17	57	16	531	234.0	-232379.0	4.0	-1314.0
29	17	57	16	532	235.0	-233297.0	-80.0	-1392.0
29	17	57	16	533	236.0	-234836.0	-167.0	-1793.0
29	17	57	16	533	237.0	-236573.0	-272.0	-1894.0
29	17	57	16	534	238.0	-238231.0	-417.0	-2007.0
29	17	57	16	534	239.0	-240110.0	-102.0	-2354.0
29	17	57	16	564	240.0	-241426.0	20.0	-2495.0
29	17	57	16	565	241.0	-242601.0	-21.0	-2291.0
29	17	57	16	565	242.0	-243072.0	-221.0	-1782.0
29	17	57	16	566	243.0	-243178.0	-372.0	-1428.0
29	17	57	16	566	244.0	-243085.0	-490.0	-1467.0
29	17	57	16	567	245.0	-241764.0	-417.0	-1090.0
29	17	57	16	568	246.0	-240252.0	-207.0	-937.0
29	17	57	16	568	247.0	-238927.0	-346.0	-847.0
29	17	57	16	569	248.0	-237735.0	-489.0	-810.0
29	17	57	16	570	249.0	-237217.0	-524.0	-996.0
29	17	57	16	570	250.0	-236472.0	-597.0	-1516.0
29	17	57	16	571	251.0	-235529.0	-574.0	-1150.0
29	17	57	16	572	252.0	-235412.0	-338.0	-856.0
29	17	57	16	572	253.0	-235411.0	-290.0	-418.0
29	17	57	16	573	254.0	-235927.0	123.0	-44.0
29	17	57	16	573	0.0	-236817.0	-115.0	-61.0
29	17	57	16	575	1.0	-237452.0	-354.0	497.0
29	17	57	16	576	2.0	-238015.0	-457.0	489.0
29	17	57	16	576	3.0	-238944.0	-486.0	814.0
29	17	57	16	577	4.0	-240105.0	-756.0	1290.0
29	17	57	16	577	5.0	-240844.0	-822.0	1704.0
29	17	57	16	609	6.0	-241875.0	-1074.0	1591.0
29	17	57	16	610	7.0	-242758.0	-1234.0	1345.0
29	17	57	16	611	8.0	-243588.0	-868.0	1466.0
29	17	57	16	611	9.0	-244157.0	-637.0	1676.0
29	17	57	16	612	10.0	-243647.0	-520.0	1712.0
29	17	57	16	613	11.0	-243100.0	-945.0	1844.0
29	17	57	16	613	12.0	-242530.0	-1109.0	1894.0
29	17	57	16	614	13.0	-241570.0	-1042.0	1532.0
29	17	57	16	615	14.0	-240307.0	-1439.0	527.0
29	17	57	16	615	15.0	-238576.0	-1159.0	430.0
29	17	57	16	616	16.0	-236859.0	-931.0	-32.0
29	17	57	16	616	17.0	-235251.0	-1182.0	210.0
29	17	57	16	617	18.0	-232711.0	-1223.0	1662.0
29	17	57	16	618	19.0	-230362.0	-1139.0	2628.0
29	17	57	16	618	20.0	-227692.0	-1154.0	2421.0
29	17	57	16	619	22.0	-220993.0	-1189.0	1813.0
29	17	57	16	619	23.0	-217522.0	-1075.0	1501.0
29	17	57	16	620	24.0	-213996.0	-1090.0	1876.0
29	17	57	16	621	25.0	-211035.0	-1014.0	2451.0
29	17	57	16	621	26.0	-208301.0	-1107.0	2573.0
29	17	57	16	622	27.0	-206142.0	-1696.0	3033.0
29	17	57	16	655	28.0	-204446.0	-1268.0	2791.0
29	17	57	16	656	29.0	-202805.0	-951.0	2661.0
29	17	57	16	656	30.0	-201299.0	-961.0	2577.0
29	17	57	16	657	31.0	-199563.0	-1065.0	2660.0
29	17	57	16	658	32.0	-198122.0	-1306.0	2526.0
29	17	57	16	658	33.0	-196726.0	-1134.0	2801.0
29	17	57	16	659	34.0	-194657.0	-1179.0	2514.0
29	17	57	16	659	35.0	-192962.0	-1232.0	2330.0
29	17	57	16	660	36.0	-191232.0	-1429.0	2261.0
29	17	57	16	661	37.0	-190210.0	-2070.0	2079.0
29	17	57	16	661	38.0	-189872.0	-1720.0	2291.0
29	17	57	16	662	39.0	-189346.0	-1213.0	2826.0
29	17	57	16	663	40.0	-189079.0	-1212.0	2897.0
29	17	57	16	663	41.0	-187999.0	-1320.0	2411.0
29	17	57	16	664	42.0	-187389.0	-1370.0	1736.0
29	17	57	16	664	44.0	-187534.0	-1487.0	229.0
29	17	57	16	665	45.0	-187837.0	-1352.0	-531.0
29	17	57	16	666	46.0	-188597.0	-1216.0	-2122.0
29	17	57	16	666	47.0	-188664.0	-1653.0	-5367.0
29	17	57	16	667	48.0	-189236.0	-1715.0	-8226.0
29	17	57	16	667	49.0	-189261.0	-1707.0	-11111.0
29	17	57	16	668	50.0	-188089.0	-1639.0	-14113.0
29	17	57	16	700	51.0	-187679.0	-1594.0	-14540.0
29	17	57	16	701	52.0	-187492.0	-1706.0	-14121.0
29	17	57	16	701	53.0	-187242.0	-1475.0	-11690.0
29	17	57	16	702	54.0	-188330.0	-1501.0	-11172.0
29	17	57	16	703	55.0	-189741.0	-1557.0	-12086.0
29	17	57	16	703	56.0	-191348.0	-1762.0	-12175.0
29	17	57	16	704	57.0	-193821.0	-1931.0	-10222.0
29	17	57	16	705	58.0	-198141.0	-2022.0	-6622.0
29	17	57	16	705	59.0	-202129.0	-2176.0	-1510.0
29	17	57	16	706	60.0	-198144.0	-2022.0	3991.0
29	17	57	16	706	61.0	-199299.0	-2014.0	9646.0
29	17	57	16	707	62.0	-202079.0	-1947.0	16927.0
29	17	57	16	708	63.0	-206920.0	-2229.0	23753.0
29	17	57	16	708	64.0	-215449.0	-2288.0	25069.0
29	17	57	16	709	65.0	-226008.0	-1986.0	22930.0
29	17	57	16	710	67.0	-251252.0	-2216.0	15744.0
29	17	57	16	710	68.0	-260432.0	-2749.0	11436.0
29	17	57	16	711	69.0	-263876.0	-2409.0	8125.0
29	17	57	16	711	70.0	-258824.0	-2624.0	6196.0
29	17	57	16	712	71.0	-245668.0	-2739.0	5373.0
29	17	57	16	713	72.0	-228037.0	-2589.0	4427.0
29	17	57	16	744	73.0	-211146.0	-2394.0	3859.0
29	17	57	16	745	74.0	-195892.0	-2326.0	3281.0
29	17	57	16	745	75.0	-183492.0	-2527.0	2909.0
29	17	57	16	746	76.0	-177910.0	-2435.0	2329.0
29	17	57	16	747	77.0	-175368.0	-2645.0	1363.0
29	17	57	16	748	78.0	-178887.0	-2838.0	1388.0
29	17	57	16	748	79.0	-187534.0	-2563.0	2028.0
29	17	57	16	749	80.0	-199994.0	-2456.0	2426.0
29	17	57	16	749	81.0	-219602.0	-2923.0	2337.0
29	17	57	16	750	82.0	-241402.0	-2908.0	2306.0
29	17	57	16	751	83.0	-258698.0	-2983.0	2416.0
29	17	57	16	751	84.0	-268708.0	-2740.0	2598.0
29	17	57	16	752	85.0	-269626.0	-2626.0	2543.0
29	17	57	16	753	86.0	-261939.0	-2799.0	2310.0
29	17	57	16	753	87.0	-248374.0	-3066.0	2032.0
29	17	57	16	754	89.0	-216321.0	-2916.0	2438.0
29	17	57	16	755	90.0	-201886.0	-3184.0	2603.0
29	17	57	16	755	91.0	-192243.0	-3006.0	1983.0
29	17	57	16	756	92.0	-186997.0	-3138.0	1941.0
29	17	57	16	756	93.0	-186862.0	-3364.0	1927.0
29	17	57	16	757	94.0	-187934.0	-3514.0	1609.0
29	17	57	16	758	95.0	-190452.0	-3374.0	1464.0
29	17	57	16	789	96.0	-192354.0	-3368.0	2249.0
29	17	57	16	790	97.0	-194313.0	-3116.0	2831.0
29	17	57	16	791	98.0	-194711.0	-3227.0	2631.0
29	17	57	16	792	99.0	-194259.0	-3199.0	2383.0
29	17	57	16	792	100.0	-192339.0	-3523.0	2243.0
29	17	57	16	793	101.0	-189591.0	-3512.0	2033.0
29	17	57	16	794	102.0	-187919.0	-3505.0	1894.0
29	17	57	16	794	103.0	-184900.0	-3074.0	1781.0
29	17	57	16	795	104.0	-182015.0	-3276.0	1537.0
29	17	57	16	796	105.0	-179739.0	-3320.0	1599.0
29	17	57	16	796	106.0	-178300.0	-3549.0	1724.0
29	17	57	16	797	107.0	-177420.0	-3820.0	1578.0
29	17	57	16	797	108.0	-175954.0	-3927.0	1469.0
29	17	57	16	798	109.0	-174218.0	-3975.0	1399.0
29	17	57	16	799	110.0	-172256.0	-3959.0	1083.0
29	17	57	16	799	112.0	-167992.0	-4052.0	759.0
29	17	57	16	800	113.0	-165476.0	-3918.0	499.0
29	17	57	16	801	114.0	-162700.0	-4423.0	543.0
29	17	57	16	801	115.0	-158977.0	-4145.0	783.0
29	17	57	16	802	116.0	-154874.0	-3944.0	526.0
29	17	57	16	802	117.0	-150879.0	-3919.0	377.0
29	17	57	16	835	118.0	-145464.0	-4219.0	414.0
29	17	57	16	836	119.0	-140841.0	-4234.0	555.0
29	17	57	16	836	120.0	-136657.0	-4289.0	406.0
29	17	57	16	837	121.0	-132061.0	-4332.0	465.0
29	17	57	16	838	122.0	-129191.0	-4326.0	949.0
29	17	57	16	838	123.0	-127314.0	-4134.0	532.0
29	17	57	16	839	124.0	-125891.0	-4127.0	-546.0
29	17	57	16	840	125.0	-126637.0	-4257.0	-718.0
29	17	57	16	840	126.0	-128461.0	-4560.0	-644.0
29	17	57	16	841	127.0	-130604.0	-4823.0	-782.0
29	17	57	16	842	128.0	-134204.0	-5038.0	-696.0
29	17	57	16	842	129.0	-138184.0	-4772.0	-836.0
29	17	57	16	843	130.0	-141804.0	-4836.0	-580.0
29	17	57	16	844	131.0	-146004.0	-5065.0	-1029.0
29	17	57	16	844	132.0	-149564.0	-5051.0	-1809.0
29	17	57	16	845	134.0	-155803.0	-4982.0	-2609.0
29	17	57	16	846	135.0	-158012.0	-4948.0	-2601.0
29	17	57	16	846	136.0	-159362.0	-4884.0	-2606.0
29	17	57	16	847	137.0	-160156.0	-5015.0	-2607.0
29	17	57	16	847	138.0	-159986.0	-5036.0	-2851.0
29	17	57	16	848	139.0	-159650.0	-5141.0	-3258.0
29	17	57	16	849	140.0	-159892.0	-4902.0	-4086.0
29	17	57	16	879	141.0	-159795.0	-5058.0	-4649.0
29	17	57	16	880	142.0	-159782.0	-5419.0	-5196.0
29	17	57	16	881	143.0	-160151.0	-5561.0	-5272.0
29	17	57	16	881	144.0	-160213.0	-5379.0	-5439.0
29	17	57	16	882	145.0	-160861.0	-5367.0	-5394.0
29	17	57	16	882	146.0	-161847.0	-5083.0	-4863.0
29	17	57	16	883	147.0	-162822.0	-5122.0	-5226.0
29	17	57	16	884	148.0	-164727.0	-5367.0	-5675.0
29	17	57	16	884	149.0	-166115.0	-5301.0	-5587.0
29	17	57	16	885	150.0	-167737.0	-5382.0	-5814.0
29	17	57	16	886	151.0	-170518.0	-5444.0	-5845.0
29	17	57	16	886	152.0	-173012.0	-5559.0	-5696.0
29	17	57	16	887	153.0	-176078.0	-5604.0	-5716.0
29	17	57	16	888	154.0	-179337.0	-5546.0	-6046.0
29	17	57	16	890	155.0	-181862.0	-5507.0	-6769.0
29	17	57	16	890	157.0	-187016.0	-5571.0	-7113.0
29	17	57	16	891	158.0	-189431.0	-5218.0	-7104.0
29	17	57	16	892	159.0	-191314.0	-5231.0	-6407.0
29	17	57	16	892	160.0	-192317.0	-5274.0	-6252.0
29	17	57	16	893	161.0	-192799.0	-5530.0	-6481.0
29	17	57	16	893	162.0	-192592.0	-5608.0	-6221.0
29	17	57	16	924	163.0	-193000.0	-5159.0	-5727.0
29	17	57	16	925	164.0	-194891.0	-5085.0	-6104.0
29	17	57	16	925	165.0	-197164.0	-5127.0	-6394.0
29	17	57	16	926	166.0	-199336.0	-4762.0	-6317.0
29	17	57	16	927	167.0	-201304.0	-4690.0	-5839.0
29	17	57	16	927	168.0	-202474.0	-4613.0	-5869.0
29	17	57	16	928	169.0	-202731.0	-4967.0	-5552.0
29	17	57	16	929	170.0	-202222.0	-5247.0	-5257.0
29	17	57	16	929	171.0	-201989.0	-4501.0	-4832.0
29	17	57	16	930	172.0	-202264.0	-4192.0	-4346.0
29	17	57	16	931	173.0	-202763.0	-3552.0	-3976.0
29	17	57	16	931	174.0	-202780.0	-4189.0	-4207.0
29	17	57	16	932	175.0	-202404.0	-3970.0	-4030.0
29	17	57	16	933	176.0	-201594.0	-3884.0	-3577.0
29	17	57	16	933	177.0	-201054.0	-3761.0	-3084.0
29	17	57	16	934	179.0	-201221.0	-3339.0	-2239.0
29	17	57	16	935	180.0	-201885.0	-3063.0	-2388.0
29	17	57	16	935	181.0	-203843.0	-3027.0	-2394.0
29	17	57	16	936	182.0	-205137.0	-3226.0	-890.0
29	17	57	16	936	183.0	-206541.0	-2831.0	-83.0
29	17	57	16	937	184.0	-207606.0	-2439.0	155.0
29	17	57	16	938	185.0	-208061.0	-2298.0	422.0
29	17	57	16	969	186.0	-208260.0	-1973.0	729.0
29	17	57	16	970	187.0	-208877.0	-2089.0	851.0
29	17	57	16	971	188.0	-209222.0	-1763.0	858.0
29	17	57	16	971	189.0	-209051.0	-1642.0	1423.0
29	17	57	16	972	190.0	-208538.0	-1351.0	1649.0
29	17	57	16	973	191.0	-207982.0	-1234.0	1974.0
29	17	57	16	974	192.0	-208284.0	-1287.0	2611.0
29	17	57	16	974	193.0	-208291.0	-1190.0	3601.0
29	17	57	16	975	194.0	-206961.0	-937.0	4024.0
29	17	57	16	976	195.0	-208476.0	-706.0	4113.0
29	17	57	16	976	196.0	-211263.0	-740.0	4287.0
29	17	57	16	977	197.0	-213883.0	-601.0	4587.0
29	17	57	16	978	198.0	-213436.0	-257.0	4499.0
29	17	57	16	978	199.0	-211602.0	-201.0	4623.0
29	17	57	16	979	200.0	-208324.0	-25.0	5026.0
29	17	57	16	980	202.0	-208864.0	11.0	5434.0
29	17	57	16	981	203.0	-210227.0	124.0	5956.0
29	17	57	16	981	204.0	-210530.0	276.0	6293.0
29	17	57	16	982	205.0	-208329.0	403.0	6784.0
29	17	57	16	983	206.0	-202041.0	644.0	6959.0
29	17	57	16	983	207.0	-183186.0	738.0	7187.0
29	17	57	17	15	208.0	-154164.0	846.0	7077.0
29	17	57	17	16	209.0	-140347.0	874.0	6554.0
29	17	57	17	17	210.0	-157084.0	978.0	6723.0
29	17	57	17	18	211.0	-166067.0	1236.0	6864.0
29	17	57	17	18	212.0	-178891.0	1444.0	7049.0
29	17	57	17	19	213.0	-196951.0	1468.0	7291.0
29	17	57	17	20	214.0	-205017.0	1654.0	7320.0
29	17	57	17	20	215.0	-216704.0	1720.0	7684.0
29	17	57	17	21	216.0	-229301.0	1697.0	8241.0
29	17	57	17	22	217.0	-233619.0	1811.0	7849.0
29	17	57	17	22	218.0	-230099.0	1890.0	7309.0
29	17	57	17	23	219.0	-230883.0	1516.0	7159.0
29	17	57	17	24	220.0	-228109.0	1794.0	6758.0
29	17	57	17	24	221.0	-219750.0	2121.0	6439.0
29	17	57	17	25	222.0	-206927.0	2089.0	6684.0
29	17	57	17	26	224.0	-177630.0	1883.0	6978.0
29	17	57	17	26	225.0	-173619.0	2157.0	7174.0
29	17	57	17	27	226.0	-179904.0	2344.0	7566.0
29	17	57	17	27	227.0	-186491.0	2390.0	7874.0
29	17	57	17	28	228.0	-191171.0	2383.0	7291.0
29	17	57	17	29	229.0	-191982.0	2593.0	7304.0
29	17	57	17	59	230.0	-191054.0	2665.0	7577.0
29	17	57	17	60	231.0	-188441.0	2729.0	7240.0
29	17	57	17	61	232.0	-186856.0	2918.0	7031.0
29	17	57	17	62	233.0	-185541.0	2931.0	7533.0
29	17	57	17	62	234.0	-184505.0	2708.0	7933.0
29	17	57	17	63	235.0	-184367.0	3042.0	7614.0
29	17	57	17	64	236.0	-184432.0	2851.0	7299.0
29	17	57	17	64	237.0	-184834.0	3104.0	7218.0
29	17	57	17	65	238.0	-184901.0	3072.0	7095.0
29	17	57	17	66	239.0	-185501.0	3191.0	7091.0
29	17	57	17	66	240.0	-185751.0	3518.0	7374.0
29	17	57	17	67	241.0	-186336.0	3531.0	7323.0
29	17	57	17	68	242.0	-187233.0	3421.0	7441.0
29	17	57	17	69	243.0	-187085.0	3288.0	7142.0
29	17	57	17	69	244.0	-185957.0	3106.0	6988.0
29	17	57	17	70	246.0	-182584.0	3358.0	6796.0
29	17	57	17	71	247.0	-181821.0	3261.0	6509.0
29	17	57	17	71	248.0	-181592.0	3215.0	6578.0
29	17	57	17	72	249.0	-181466.0	3255.0	6908.0
29	17	57	17	72	250.0	-181506.0	3409.0	7235.0
29	17	57	17	73	251.0	-182145.0	3536.0	6823.0
29	17	57	17	74	252.0	-182828.0	3478.0	7019.0
29	17	57	17	105	253.0	-183558.0	3415.0	7268.0
29	17	57	17	105	254.0	-185501.0	3492.0	6983.0
29	17	57	17	106	255.0	-187901.0	3563.0	6984.0
29	17	57	17	107	0.0	-190977.0	3669.0	7086.0
29	17	57	17	108	1.0	-193064.0	3542.0	7206.0
29	17	57	17	109	2.0	-197251.0	3234.0	7034.0
29	17	57	17	109	3.0	-207138.0	2896.0	6914.0
29	17	57	17	110	4.0	-214904.0	3034.0	6841.0
29	17	57	17	111	5.0	-218748.0	3461.0	6703.0
29	17	57	17	111	6.0	-219146.0	3574.0	6689.0
29	17	57	17	112	7.0	-218231.0	3459.0	6931.0
29	17	57	17	113	8.0	-217865.0	3395.0	7531.0
29	17	57	17	113	9.0	-217194.0	3453.0	7879.0
29	17	57	17	114	10.0	-216154.0	3578.0	8223.0
29	17	57	17	115	11.0	-215701.0	3483.0	9014.0
29	17	57	17	115	13.0	-216717.0	3832.0	8676.0
29	17	57	17	116	14.0	-219309.0	3946.0	8634.0
29	17	57	17	116	15.0	-220754.0	3734.0	8587.0
29	17	57	17	117	16.0	-222862.0	3629.0	9389.0
29	17	57	17	118	17.0	-224251.0	3711.0	9673.0
29	17	57	17	118	18.0	-224742.0	3783.0	10072.0
29	17	57	17	149	19.0	-225662.0	3453.0	9853.0
29	17	57	17	150	20.0	-225984.0	3531.0	9530.0
29	17	57	17	151	21.0	-225762.0	3685.0	9736.0
29	17	57	17	152	22.0	-226427.0	3629.0	9497.0
29	17	57	17	152	23.0	-226734.0	3739.0	9329.0
29	17	57	17	153	24.0	-227672.0	3691.0	8851.0
29	17	57	17	154	25.0	-229657.0	3751.0	8598.0
29	17	57	17	154	26.0	-231831.0	3608.0	8327.0
29	17	57	17	155	27.0	-234816.0	3650.0	7881.0
29	17	57	17	156	28.0	-238292.0	3406.0	8329.0
29	17	57	17	156	29.0	-241387.0	3235.0	8351.0
29	17	57	17	157	30.0	-243471.0	3196.0	8364.0
29	17	57	17	158	31.0	-245021.0	3273.0	8253.0
29	17	57	17	158	32.0	-245697.0	3293.0	7978.0
29	17	57	17	159	33.0	-245844.0	3238.0	8308.0
29	17	57	17	160	35.0	-246710.0	3126.0	7773.0
29	17	57	17	161	36.0	-246425.0	3398.0	8009.0
29	17	57	17	161	37.0	-245593.0	3220.0	8059.0
29	17	57	17	162	38.0	-244056.0	3158.0	7964.0
29	17	57	17	162	39.0	-241512.0	3371.0	7855.0
29	17	57	17	163	40.0	-239117.0	3482.0	7859.0
29	17	57	17	164	41.0	-237028.0	3559.0	8081.0
29	17	57	17	195	42.0	-234427.0	3482.0	8335.0
29	17	57	17	196	43.0	-232552.0	3543.0	8855.0
29	17	57	17	196	44.0	-231538.0	3524.0	9307.0
29	17	57	17	197	45.0	-230401.0	3581.0	8996.0
29	17	57	17	198	46.0	-230037.0	3492.0	8329.0
29	17	57	17	198	47.0	-230736.0	3259.0	8264.0
29	17	57	17	199	48.0	-232072.0	3301.0	8684.0
29	17	57	17	200	49.0	-233409.0	3259.0	8929.0
29	17	57	17	201	50.0	-234922.0	3161.0	8675.0
29	17	57	17	201	51.0	-234987.0	3278.0	8506.0
29	17	57	17	202	52.0	-235241.0	3223.0	8410.0
29	17	57	17	203	53.0	-235120.0	3169.0	9026.0
29	17	57	17	203	54.0	-233965.0	3092.0	9788.0
29	17	57	17	204	55.0	-232886.0	2974.0	9692.0
29	17	57	17	205	56.0	-231407.0	3043.0	9453.0
29	17	57	17	205	58.0	-228527.0	3090.0	9917.0
29	17	57	17	206	59.0	-227290.0	3318.0	10318.0
29	17	57	17	207	60.0	-225261.0	3029.0	10906.0
29	17	57	17	207	61.0	-222794.0	3496.0	11502.0
29	17	57	17	208	62.0	-221047.0	3333.0	11008.0
29	17	57	17	208	63.0	-219904.0	3285.0	10704.0
29	17	57	17	246	64.0	-218452.0	3239.0	10106.0
29	17	57	17	247	65.0	-217721.0	3208.0	10328.0
29	17	57	17	248	66.0	-217306.0	2878.0	10568.0
29	17	57	17	248	67.0	-217917.0	3117.0	11769.0
29	17	57	17	249	68.0	-218499.0	3302.0	12201.0
29	17	57	17	250	69.0	-219484.0	3167.0	11669.0
29	17	57	17	251	70.0	-219524.0	3121.0	11112.0
29	17	57	17	251	71.0	-218862.0	3094.0	10556.0
29	17	57	17	252	72.0	-218022.0	3389.0	10179.0
29	17	57	17	253	73.0	-216417.0	3087.0	10187.0
29	17	57	17	253	74.0	-214887.0	2964.0	10445.0
29	17	57	17	254	75.0	-214094.0	2969.0	10635.0
29	17	57	17	255	76.0	-213704.0	2428.0	11351.0
29	17	57	17	255	77.0	-213242.0	2878.0	11448.0
29	17	57	17	256	78.0	-211978.0	3125.0	11098.0
29	17	57	17	256	80.0	-206972.0	3179.0	11449.0
29	17	57	17	257	81.0	-203419.0	3004.0	11451.0
29	17	57	17	258	82.0	-200039.0	3026.0	10728.0
29	17	57	17	258	83.0	-197277.0	2901.0	10535.0
29	17	57	17	259	84.0	-194766.0	2641.0	10648.0
29	17	57	17	259	85.0	-193755.0	2771.0	10584.0
29	17	57	17	260	86.0	-193723.0	2999.0	9899.0
29	17	57	17	287	87.0	-194547.0	3053.0	10056.0
29	17	57	17	288	88.0	-196714.0	2844.0	10296.0
29	17	57	17	289	89.0	-199366.0	2582.0	10590.0
29	17	57	17	289	90.0	-201208.0	2640.0	10555.0
29	17	57	17	290	91.0	-203448.0	2623.0	10370.0
29	17	57	17	291	92.0	-205783.0	2431.0	10358.0
29	17	57	17	292	93.0	-207786.0	2186.0	9724.0
29	17	57	17	293	94.0	-210562.0	2279.0	9650.0
29	17	57	17	293	95.0	-213298.0	2473.0	9515.0
29	17	57	17	294	96.0	-215310.0	2509.0	9676.0
29	17	57	17	294	97.0	-215951.0	2566.0	9843.0
29	17	57	17	295	98.0	-215722.0	2667.0	9986.0
29	17	57	17	296	99.0	-215356.0	2309.0	9021.0
29	17	57	17	296	100.0	-213581.0	2343.0	7195.0
29	17	57	17	297	101.0	-212300.0	2461.0	5532.0
29	17	57	17	298	103.0	-209192.0	2153.0	2711.0
29	17	57	17	298	104.0	-207881.0	2123.0	395.0
29	17	57	17	299	105.0	-206319.0	2173.0	-1784.0
29	17	57	17	299	106.0	-205166.0	2707.0	-4686.0
29	17	57	17	300	107.0	-204102.0	2516.0	-6104.0
29	17	57	17	301	108.0	-203231.0	2136.0	-7004.0
29	17	57	17	329	109.0	-202533.0	2017.0	-6135.0
29	17	57	17	330	110.0	-201363.0	2062.0	-4294.0
29	17	57	17	331	111.0	-201464.0	2450.0	-4150.0
29	17	57	17	332	112.0	-202012.0	2515.0	-4871.0
29	17	57	17	332	113.0	-202561.0	2749.0	-4234.0
29	17	57	17	333	114.0	-202750.0	2198.0	-991.0
29	17	57	17	334	115.0	-202557.0	1932.0	2896.0
29	17	57	17	334	116.0	-202516.0	1679.0	8094.0
29	17	57	17	335	117.0	-203001.0	1846.0	14198.0
29	17	57	17	336	118.0	-204436.0	1815.0	20539.0
29	17	57	17	337	119.0	-206762.0	1711.0	26456.0
29	17	57	17	337	120.0	-211209.0	1658.0	30121.0
29	17	57	17	338	121.0	-218583.0	1519.0	29309.0
29	17	57	17	339	122.0	-226556.0	1641.0	26155.0
29	17	57	17	339	123.0	-234354.0	2422.0	22017.0
29	17	57	17	340	125.0	-236704.0	1268.0	14038.0
29	17	57	17	341	126.0	-227950.0	1344.0	11719.0
29	17	57	17	341	127.0	-214120.0	1594.0	10416.0
29	17	57	17	342	128.0	-198068.0	1383.0	9736.0
29	17	57	17	342	129.0	-183394.0	1116.0	9344.0
29	17	57	17	343	130.0	-172092.0	1067.0	9078.0
29	17	57	17	374	131.0	-167453.0	971.0	8888.0
29	17	57	17	374	132.0	-169825.0	878.0	8956.0
29	17	57	17	375	133.0	-178838.0	880.0	8942.0
29	17	57	17	376	134.0	-191537.0	788.0	8511.0
29	17	57	17	377	135.0	-205426.0	649.0	8564.0
29	17	57	17	378	136.0	-220192.0	713.0	8542.0
29	17	57	17	378	137.0	-236499.0	659.0	8667.0
29	17	57	17	379	138.0	-253966.0	749.0	8559.0
29	17	57	17	380	139.0	-267932.0	713.0	8008.0
29	17	57	17	381	140.0	-272896.0	332.0	7682.0
29	17	57	17	381	141.0	-267733.0	563.0	7372.0
29	17	57	17	382	142.0	-255045.0	553.0	6968.0
29	17	57	17	383	143.0	-238449.0	411.0	6813.0
29	17	57	17	383	144.0	-222044.0	39.0	6796.0
29	17	57	17	384	145.0	-209056.0	-89.0	6957.0
29	17	57	17	385	147.0	-194249.0	23.0	7554.0
29	17	57	17	386	148.0	-190744.0	-67.0	7466.0
29	17	57	17	386	149.0	-189408.0	-304.0	6899.0
29	17	57	17	387	150.0	-190421.0	-127.0	6493.0
29	17	57	17	388	151.0	-193312.0	-73.0	6502.0
29	17	57	17	388	152.0	-195909.0	-158.0	6861.0
29	17	57	17	389	153.0	-196902.0	-217.0	7166.0
29	17	57	17	419	154.0	-195858.0	-171.0	7849.0
29	17	57	17	420	155.0	-193867.0	-34.0	7586.0
29	17	57	17	421	156.0	-191341.0	-476.0	7114.0
29	17	57	17	422	157.0	-188664.0	-608.0	6846.0
29	17	57	17	422	158.0	-186439.0	-399.0	7036.0
29	17	57	17	423	159.0	-184653.0	-292.0	7653.0
29	17	57	17	424	160.0	-182837.0	-377.0	7695.0
29	17	57	17	425	161.0	-180969.0	-406.0	7640.0
29	17	57	17	425	162.0	-179298.0	-542.0	7494.0
29	17	57	17	426	163.0	-177773.0	-621.0	7611.0
29	17	57	17	427	164.0	-175111.0	-784.0	7386.0
29	17	57	17	428	165.0	-172224.0	-977.0	6663.0
29	17	57	17	428	166.0	-170113.0	-1318.0	6358.0
29	17	57	17	429	167.0	-167932.0	-1237.0	6583.0
29	17	57	17	430	168.0	-165216.0	-1219.0	6603.0
29	17	57	17	430	170.0	-157476.0	-1297.0	6661.0
29	17	57	17	431	171.0	-153034.0	-1229.0	6660.0
29	17	57	17	432	172.0	-148132.0	-1427.0	6668.0
29	17	57	17	432	173.0	-142821.0	-1176.0	6524.0
29	17	57	17	433	174.0	-137086.0	-1335.0	6459.0
29	17	57	17	433	175.0	-132025.0	-1460.0	5586.0
29	17	57	17	464	176.0	-127147.0	-1455.0	5177.0
29	17	57	17	465	177.0	-122346.0	-1447.0	5198.0
29	17	57	17	466	178.0	-117754.0	-1500.0	5309.0
29	17	57	17	466	179.0	-114505.0	-1711.0	5207.0
29	17	57	17	467	180.0	-112507.0	-1797.0	5226.0
29	17	57	17	468	181.0	-111461.0	-1910.0	5206.0
29	17	57	17	469	182.0	-111407.0	-1912.0	5003.0
29	17	57	17	470	183.0	-111799.0	-2070.0	4716.0
29	17	57	17	470	184.0	-113103.0	-2049.0	4666.0
29	17	57	17	471	185.0	-115665.0	-1982.0	4489.0
29	17	57	17	472	186.0	-119145.0	-2047.0	3798.0
29	17	57	17	473	187.0	-122326.0	-2065.0	3529.0
29	17	57	17	473	188.0	-126111.0	-2146.0	3679.0
29	17	57	17	474	189.0	-129674.0	-2361.0	3590.0
29	17	57	17	475	190.0	-133174.0	-2415.0	3261.0
29	17	57	17	476	192.0	-140248.0	-2484.0	2262.0
29	17	57	17	476	193.0	-143443.0	-2652.0	1811.0
29	17	57	17	477	194.0	-145701.0	-2554.0	1557.0
29	17	57	17	477	195.0	-148445.0	-2103.0	1652.0
29	17	57	17	478	196.0	-151043.0	-2549.0	1992.0
29	17	57	17	479	197.0	-152349.0	-2893.0	2465.0
29	17	57	17	479	198.0	-152706.0	-2524.0	2800.0
29	17	57	17	510	199.0	-152225.0	-2736.0	2203.0
29	17	57	17	511	200.0	-152006.0	-2829.0	1568.0
29	17	57	17	512	201.0	-151512.0	-2794.0	977.0
29	17	57	17	513	202.0	-152506.0	-2751.0	189.0
29	17	57	17	513	203.0	-153799.0	-2859.0	-1081.0
29	17	57	17	514	204.0	-155862.0	-3126.0	-1844.0
29	17	57	17	515	205.0	-157808.0	-3098.0	-1714.0
29	17	57	17	516	206.0	-160533.0	-3217.0	-1679.0
29	17	57	17	517	207.0	-163011.0	-3265.0	-1267.0
29	17	57	17	518	208.0	-165227.0	-3128.0	-1040.0
29	17	57	17	519	209.0	-166213.0	-2728.0	-1477.0
29	17	57	17	520	210.0	-167317.0	-3087.0	-1601.0
29	17	57	17	520	211.0	-167309.0	-3315.0	-1724.0
29	17	57	17	521	212.0	-167590.0	-3272.0	-1645.0
29	17	57	17	522	213.0	-168676.0	-3226.0	-1512.0
29	17	57	17	522	215.0	-171174.0	-3271.0	-2443.0
29	17	57	17	532	216.0	-172076.0	-3521.0	-2177.0
29	17	57	17	533	217.0	-172344.0	-3300.0	-2120.0
29	17	57	17	534	218.0	-172981.0	-3022.0	-2014.0
29	17	57	17	535	219.0	-173041.0	-2879.0	-1753.0
29	17	57	17	535	220.0	-173293.0	-2641.0	-1829.0
29	17	57	17	554	221.0	-173343.0	-2507.0	-1899.0
29	17	57	17	554	222.0	-173135.0	-2482.0	-1660.0
29	17	57	17	555	223.0	-172909.0	-2803.0	-1635.0
29	17	57	17	556	224.0	-173402.0	-2720.0	-1389.0
29	17	57	17	556	225.0	-174363.0	-2552.0	-916.0
29	17	57	17	557	226.0	-175773.0	-2414.0	-252.0
29	17	57	17	557	227.0	-177638.0	-2324.0	-624.0
29	17	57	17	558	228.0	-179994.0	-2146.0	-882.0
29	17	57	17	559	229.0	-181981.0	-2009.0	-652.0
29	17	57	17	560	230.0	-183162.0	-1889.0	40.0
29	17	57	17	560	231.0	-184077.0	-1866.0	664.0
29	17	57	17	561	232.0	-184884.0	-1929.0	811.0
29	17	57	17	561	233.0	-185894.0	-1737.0	1149.0
29	17	57	17	562	234.0	-187467.0	-1577.0	1693.0
29	17	57	17	563	235.0	-188706.0	-1292.0	2303.0
29	17	57	17	563	237.0	-193094.0	-1455.0	3608.0
29	17	57	17	564	238.0	-196024.0	-1083.0	3717.0
29	17	57	17	565	239.0	-199078.0	-800.0	3719.0
29	17	57	17	565	240.0	-201832.0	-666.0	3969.0
29	17	57	17	566	241.0	-203665.0	-736.0	4754.0
29	17	57	17	566	242.0	-205145.0	-374.0	5721.0
29	17	57	17	567	243.0	-207415.0	79.0	6703.0
29	17	57	17	599	244.0	-209889.0	46.0	6933.0
29	17	57	17	600	245.0	-211305.0	151.0	6933.0
29	17	57	17	601	246.0	-212389.0	125.0	6936.0
29	17	57	17	601	247.0	-213706.0	348.0	7498.0
29	17	57	17	602	248.0	-214817.0	521.0	8017.0
29	17	57	17	602	249.0	-216090.0	271.0	7755.0
29	17	57	17	603	250.0	-217959.0	443.0	7323.0
29	17	57	17	604	251.0	-220601.0	753.0	8301.0
29	17	57	17	604	252.0	-222960.0	723.0	9029.0
29	17	57	17	605	253.0	-225447.0	861.0	9440.0
29	17	57	17	605	254.0	-227939.0	973.0	10185.0
29	17	57	17	606	255.0	-230192.0	1249.0	10481.0
29	17	57	17	607	0.0	-232558.0	1139.0	10395.0
29	17	57	17	607	1.0	-234934.0	1164.0	10197.0
29	17	57	17	608	2.0	-237279.0	1483.0	10219.0
29	17	57	17	608	4.0	-241675.0	1616.0	10350.0
29	17	57	17	609	5.0	-242871.0	1541.0	10711.0
29	17	57	17	610	6.0	-243529.0	1904.0	10694.0
29	17	57	17	610	7.0	-241744.0	2043.0	10522.0
29	17	57	17	611	8.0	-236683.0	2042.0	10408.0
29	17	57	17	611	9.0	-225117.0	1938.0	10889.0
29	17	57	17	644	10.0	-200828.0	2133.0	11466.0
29	17	57	17	645	11.0	-172906.0	2365.0	10992.0
29	17	57	17	646	12.0	-162530.0	2267.0	10720.0
29	17	57	17	646	13.0	-174994.0	1998.0	10769.0
29	17	57	17	647	14.0	-177636.0	2508.0	11072.0
29	17	57	17	647	15.0	-191284.0	2618.0	11378.0
29	17	57	17	648	16.0	-210391.0	2678.0	11131.0
29	17	57	17	649	17.0	-219658.0	2878.0	10719.0
29	17	57	17	649	18.0	-225204.0	2732.0	10734.0
29	17	57	17	650	19.0	-226241.0	2769.0	10857.0
29	17	57	17	650	20.0	-219196.0	2825.0	10931.0
29	17	57	17	651	21.0	-210309.0	2834.0	10749.0
29	17	57	17	652	22.0	-198517.0	2880.0	10951.0
29	17	57	17	652	23.0	-189464.0	3078.0	10566.0
29	17	57	17	653	24.0	-189737.0	3221.0	10414.0
29	17	57	17	653	26.0	-198931.0	3221.0	10139.0
29	17	57	17	654	27.0	-202590.0	3313.0	9669.0
29	17	57	17	655	28.0	-202996.0	3573.0	9613.0
29	17	57	17	655	29.0	-201926.0	3322.0	10063.0
29	17	57	17	656	30.0	-200888.0	2975.0	10284.0
29	17	57	17	656	31.0	-200541.0	3224.0	10485.0
29	17	57	17	689	32.0	-199641.0	3458.0	10794.0
29	17	57	17	690	33.0	-198897.0	3669.0	10597.0
29	17	57	17	690	34.0	-198580.0	3827.0	10389.0
29	17	57	17	691	35.0	-197852.0	3771.0	10323.0
29	17	57	17	692	36.0	-197161.0	3791.0	10294.0
29	17	57	17	693	37.0	-195956.0	3871.0	9626.0
29	17	57	17	693	38.0	-194706.0	3731.0	9896.0
29	17	57	17	694	39.0	-193614.0	3639.0	10853.0
29	17	57	17	695	40.0	-192244.0	3706.0	11034.0
29	17	57	17	695	41.0	-190692.0	3541.0	10704.0
29	17	57	17	696	42.0	-188948.0	3541.0	10406.0
29	17	57	17	697	43.0	-187644.0	3946.0	10124.0
29	17	57	17	697	44.0	-186959.0	3856.0	9779.0
29	17	57	17	698	45.0	-186766.0	3780.0	10272.0
29	17	57	17	698	46.0	-187140.0	3765.0	11163.0
29	17	57	17	699	49.0	-194002.0	3781.0	10895.0
29	17	57	17	700	50.0	-196759.0	3808.0	10968.0
29	17	57	17	700	51.0	-199208.0	3856.0	10721.0
29	17	57	17	701	52.0	-202632.0	3849.0	10487.0
29	17	57	17	702	53.0	-204991.0	4034.0	10201.0
29	17	57	17	703	54.0	-207277.0	4028.0	9929.0
29	17	57	17	734	55.0	-209928.0	4000.0	9513.0
29	17	57	17	753	56.0	-211597.0	3996.0	9650.0
29	17	57	17	754	57.0	-212839.0	3910.0	10026.0
29	17	57	17	754	58.0	-213862.0	3920.0	10858.0
29	17	57	17	755	59.0	-214541.0	3756.0	10629.0
29	17	57	17	756	60.0	-215090.0	3889.0	10656.0
29	17	57	17	756	61.0	-215412.0	3756.0	11021.0
29	17	57	17	757	62.0	-215794.0	3787.0	11817.0
29	17	57	17	757	63.0	-215858.0	4006.0	11526.0
29	17	57	17	758	64.0	-215815.0	4324.0	11349.0
29	17	57	17	758	65.0	-215863.0	3757.0	11463.0
29	17	57	17	759	66.0	-215925.0	3617.0	11748.0
29	17	57	17	760	67.0	-216302.0	3648.0	11624.0
29	17	57	17	760	68.0	-217159.0	3191.0	11749.0
29	17	57	17	761	69.0	-218706.0	3406.0	12281.0
29	17	57	17	761	71.0	-222631.0	3372.0	11978.0
29	17	57	17	762	72.0	-224987.0	3604.0	12051.0
29	17	57	17	762	73.0	-226861.0	3563.0	12296.0
29	17	57	17	763	74.0	-228202.0	3543.0	12358.0
29	17	57	17	764	75.0	-229751.0	3455.0	12489.0
29	17	57	17	764	76.0	-231374.0	3381.0	12679.0
29	17	57	17	778	77.0	-232692.0	3585.0	12949.0
29	17	57	17	779	78.0	-233858.0	3544.0	12729.0
29	17	57	17	780	79.0	-234848.0	3458.0	12510.0
29	17	57	17	780	80.0	-234907.0	3310.0	12944.0
29	17	57	17	781	81.0	-235025.0	3391.0	12388.0
29	17	57	17	782	82.0	-235089.0	3166.0	11401.0
29	17	57	17	782	83.0	-234679.0	3269.0	11321.0
29	17	57	17	783	84.0	-234696.0	3237.0	11717.0
29	17	57	17	784	85.0	-233966.0	3103.0	12738.0
29	17	57	17	784	86.0	-233459.0	3086.0	13331.0
29	17	57	17	785	87.0	-232722.0	2983.0	13093.0
29	17	57	17	786	88.0	-231474.0	2921.0	12792.0
29	17	57	17	786	89.0	-230735.0	2894.0	12587.0
29	17	57	17	787	90.0	-229934.0	2898.0	12233.0
29	17	57	17	788	91.0	-229159.0	2918.0	11818.0
29	17	57	17	788	93.0	-228437.0	2639.0	11758.0
29	17	57	17	789	94.0	-228886.0	2637.0	10885.0
29	17	57	17	790	95.0	-229279.0	2594.0	10828.0
29	17	57	17	790	96.0	-229582.0	2458.0	11218.0
29	17	57	17	791	97.0	-230139.0	2669.0	11294.0
29	17	57	17	792	98.0	-230800.0	2714.0	11544.0
29	17	57	17	792	99.0	-231160.0	2643.0	11642.0
29	17	57	17	823	100.0	-232168.0	2679.0	11008.0
29	17	57	17	824	101.0	-233357.0	2169.0	10285.0
29	17	57	17	824	102.0	-233989.0	1896.0	10791.0
29	17	57	17	825	103.0	-234115.0	2425.0	11580.0
29	17	57	17	826	104.0	-234837.0	2306.0	11851.0
29	17	57	17	826	105.0	-235346.0	2156.0	11703.0
29	17	57	17	827	106.0	-235221.0	2389.0	11427.0
29	17	57	17	828	107.0	-235663.0	2607.0	11018.0
29	17	57	17	828	108.0	-236856.0	2334.0	10749.0
29	17	57	17	829	109.0	-237166.0	2257.0	11211.0
29	17	57	17	830	110.0	-237370.0	2324.0	11220.0
29	17	57	17	831	111.0	-238284.0	2433.0	10849.0
29	17	57	17	831	112.0	-238561.0	2456.0	11131.0
29	17	57	17	832	113.0	-238463.0	2240.0	11523.0
29	17	57	17	833	114.0	-238334.0	2251.0	11496.0
29	17	57	17	833	116.0	-236599.0	2071.0	11244.0
29	17	57	17	834	117.0	-234919.0	2085.0	11341.0
29	17	57	17	834	118.0	-233636.0	2221.0	11174.0
29	17	57	17	835	119.0	-231993.0	2164.0	10974.0
29	17	57	17	836	120.0	-230493.0	2095.0	10848.0
29	17	57	17	836	121.0	-229791.0	1958.0	10775.0
29	17	57	17	868	122.0	-229082.0	2010.0	11119.0
29	17	57	17	868	123.0	-228040.0	1954.0	10856.0
29	17	57	17	869	124.0	-227639.0	1907.0	10344.0
29	17	57	17	870	125.0	-227042.0	2004.0	10746.0
29	17	57	17	870	126.0	-226257.0	1992.0	10991.0
29	17	57	17	871	127.0	-226385.0	1267.0	11259.0
29	17	57	17	872	128.0	-226653.0	1735.0	11380.0
29	17	57	17	872	129.0	-227372.0	1751.0	11638.0
29	17	57	17	873	130.0	-228444.0	1622.0	11743.0
29	17	57	17	874	131.0	-229856.0	1729.0	11794.0
29	17	57	17	874	132.0	-231037.0	1775.0	12201.0
29	17	57	17	875	133.0	-231744.0	1651.0	12244.0
29	17	57	17	876	134.0	-232142.0	1619.0	12355.0
29	17	57	17	876	135.0	-231921.0	1540.0	12667.0
29	17	57	17	877	136.0	-230855.0	1607.0	12935.0
29	17	57	17	878	138.0	-228289.0	1641.0	12030.0
29	17	57	17	878	139.0	-226991.0	1452.0	12275.0
29	17	57	17	879	140.0	-225761.0	1383.0	12723.0
29	17	57	17	880	141.0	-224305.0	1688.0	12880.0
29	17	57	17	880	142.0	-222830.0	1382.0	13472.0
29	17	57	17	881	143.0	-221404.0	1278.0	13770.0
29	17	57	17	881	144.0	-220374.0	1109.0	13400.0
29	17	57	17	912	145.0	-219338.0	1268.0	12803.0
29	17	57	17	913	146.0	-217647.0	1448.0	12572.0
29	17	57	17	935	147.0	-215489.0	1354.0	12925.0
29	17	57	17	936	148.0	-212844.0	1264.0	12908.0
29	17	57	17	937	149.0	-209554.0	1289.0	12763.0
29	17	57	17	937	150.0	-205877.0	1067.0	11649.0
29	17	57	17	938	151.0	-202978.0	1139.0	11138.0
29	17	57	17	938	152.0	-200867.0	1101.0	10841.0
29	17	57	17	939	153.0	-199644.0	528.0	10479.0
29	17	57	17	940	154.0	-198956.0	421.0	10328.0
29	17	57	17	940	155.0	-198652.0	631.0	10665.0
29	17	57	17	941	156.0	-198641.0	584.0	10544.0
29	17	57	17	941	157.0	-198669.0	599.0	9874.0
29	17	57	17	942	158.0	-199161.0	601.0	8646.0
29	17	57	17	943	159.0	-200092.0	574.0	6888.0
29	17	57	17	943	161.0	-202152.0	536.0	2577.0
29	17	57	17	944	162.0	-203102.0	575.0	1841.0
29	17	57	17	944	163.0	-202996.0	456.0	883.0
29	17	57	17	945	164.0	-202499.0	631.0	-706.0
29	17	57	17	946	165.0	-201444.0	551.0	-1476.0
29	17	57	17	946	166.0	-199531.0	338.0	-2252.0
29	17	57	17	959	167.0	-197696.0	214.0	-3966.0
29	17	57	17	959	168.0	-195904.0	370.0	-6504.0
29	17	57	17	960	169.0	-193967.0	226.0	-9525.0
29	17	57	17	961	170.0	-192829.0	121.0	-12600.0
29	17	57	17	961	171.0	-192485.0	53.0	-15924.0
29	17	57	17	962	172.0	-191804.0	-175.0	-18851.0
29	17	57	17	963	173.0	-191315.0	-115.0	-22609.0
29	17	57	17	963	174.0	-190722.0	-36.0	-27356.0
29	17	57	17	964	175.0	-190102.0	4.0	-29351.0
29	17	57	17	965	176.0	-189651.0	-155.0	-29293.0
29	17	57	17	965	177.0	-190077.0	-34.0	-28352.0
29	17	57	17	966	178.0	-190282.0	7.0	-27647.0
29	17	57	17	966	179.0	-190198.0	-362.0	-28877.0
29	17	57	17	967	180.0	-190807.0	-262.0	-30784.0
29	17	57	17	968	181.0	-192126.0	-257.0	-31137.0
29	17	57	17	968	183.0	-193039.0	-396.0	-24983.0
29	17	57	17	969	184.0	-193572.0	-356.0	-20151.0
29	17	57	17	970	185.0	-195404.0	-591.0	-14576.0
29	17	57	17	970	186.0	-199269.0	-651.0	-9085.0
29	17	57	17	971	187.0	-205582.0	-683.0	-3062.0
29	17	57	17	972	188.0	-215094.0	-701.0	1376.0
29	17	57	17	972	189.0	-227997.0	-581.0	559.0
29	17	57	18	3	190.0	-242610.0	-727.0	-2832.0
29	17	57	18	4	191.0	-256306.0	-843.0	-7268.0
29	17	57	18	5	192.0	-264922.0	-868.0	-11894.0
29	17	57	18	5	193.0	-263602.0	-758.0	-15424.0
29	17	57	18	6	194.0	-253300.0	-802.0	-17979.0
29	17	57	18	7	195.0	-234846.0	-884.0	-18874.0
29	17	57	18	8	196.0	-214172.0	-953.0	-19253.0
29	17	57	18	9	197.0	-195543.0	-1254.0	-19896.0
29	17	57	18	9	198.0	-181561.0	-1261.0	-20492.0
29	17	57	18	10	199.0	-175069.0	-1260.0	-21174.0
29	17	57	18	11	200.0	-177916.0	-1400.0	-21497.0
29	17	57	18	11	201.0	-189832.0	-1331.0	-21505.0
29	17	57	18	12	202.0	-205617.0	-1180.0	-21185.0
29	17	57	18	13	203.0	-221027.0	-852.0	-21250.0
29	17	57	18	13	204.0	-234962.0	-1056.0	-22067.0
29	17	57	18	14	206.0	-264411.0	-1552.0	-20994.0
29	17	57	18	15	207.0	-276852.0	-1572.0	-21159.0
29	17	57	18	15	208.0	-280267.0	-1583.0	-21536.0
29	17	57	18	16	209.0	-272965.0	-1675.0	-20906.0
29	17	57	18	16	210.0	-257809.0	-1546.0	-19980.0
29	17	57	18	17	211.0	-239042.0	-1534.0	-20014.0
29	17	57	18	47	212.0	-221606.0	-1872.0	-20204.0
29	17	57	18	48	213.0	-209180.0	-2528.0	-19765.0
29	17	57	18	49	214.0	-203902.0	-2200.0	-19479.0
29	17	57	18	50	215.0	-202897.0	-1897.0	-18592.0
29	17	57	18	50	216.0	-202669.0	-2053.0	-17882.0
29	17	57	18	51	217.0	-203364.0	-2175.0	-17118.0
29	17	57	18	52	218.0	-206239.0	-2334.0	-16959.0
29	17	57	18	53	219.0	-210332.0	-2478.0	-16979.0
29	17	57	18	53	220.0	-213555.0	-3040.0	-16485.0
29	17	57	18	54	221.0	-213794.0	-2766.0	-16429.0
29	17	57	18	55	222.0	-210882.0	-2603.0	-16348.0
29	17	57	18	55	223.0	-206335.0	-2473.0	-16319.0
29	17	57	18	56	224.0	-200502.0	-2513.0	-16443.0
29	17	57	18	57	225.0	-195288.0	-2326.0	-16054.0
29	17	57	18	57	226.0	-191333.0	-2695.0	-15632.0
29	17	57	18	58	228.0	-185232.0	-2684.0	-15689.0
29	17	57	18	59	229.0	-183366.0	-2757.0	-15525.0
29	17	57	18	59	230.0	-181114.0	-2878.0	-15971.0
29	17	57	18	60	231.0	-178724.0	-2948.0	-16044.0
29	17	57	18	61	232.0	-176470.0	-2929.0	-15768.0
29	17	57	18	61	233.0	-173776.0	-2914.0	-16123.0
29	17	57	18	94	234.0	-171533.0	-2716.0	-16354.0
29	17	57	18	95	235.0	-169990.0	-3395.0	-15658.0
29	17	57	18	96	236.0	-168674.0	-3479.0	-15262.0
29	17	57	18	96	237.0	-167340.0	-3419.0	-15285.0
29	17	57	18	97	238.0	-165346.0	-3376.0	-16090.0
29	17	57	18	98	239.0	-162692.0	-3276.0	-16407.0
29	17	57	18	98	240.0	-158743.0	-3369.0	-17007.0
29	17	57	18	100	241.0	-153352.0	-3460.0	-17528.0
29	17	57	18	101	242.0	-146988.0	-3655.0	-17946.0
29	17	57	18	101	243.0	-141522.0	-3579.0	-17854.0
29	17	57	18	102	244.0	-135810.0	-3551.0	-18261.0
29	17	57	18	103	245.0	-131519.0	-3730.0	-18857.0
29	17	57	18	103	246.0	-128720.0	-4135.0	-18928.0
29	17	57	18	104	247.0	-126152.0	-4387.0	-19253.0
29	17	57	18	104	248.0	-125402.0	-3868.0	-20221.0
29	17	57	18	105	250.0	-127239.0	-3814.0	-20817.0
29	17	57	18	106	251.0	-130457.0	-3953.0	-21360.0
29	17	57	18	106	252.0	-133781.0	-4088.0	-21692.0
29	17	57	18	107	253.0	-137176.0	-4189.0	-21620.0
29	17	57	18	107	254.0	-140966.0	-4375.0	-21527.0
29	17	57	18	108	255.0	-144104.0	-4327.0	-22184.0
29	17	57	18	109	0.0	-146222.0	-4267.0	-22972.0
29	17	57	18	139	1.0	-147904.0	-4376.0	-23337.0
29	17	57	18	140	2.0	-149683.0	-4523.0	-23162.0
29	17	57	18	141	3.0	-151324.0	-4572.0	-22829.0
29	17	57	18	142	4.0	-152944.0	-4671.0	-23041.0
29	17	57	18	142	5.0	-154431.0	-4669.0	-23223.0
29	17	57	18	143	6.0	-155682.0	-4627.0	-23342.0
29	17	57	18	144	7.0	-157124.0	-5446.0	-23478.0
29	17	57	18	144	8.0	-157637.0	-5128.0	-22364.0
29	17	57	18	145	9.0	-157940.0	-4722.0	-20461.0
29	17	57	18	146	10.0	-158964.0	-4684.0	-19735.0
29	17	57	18	146	11.0	-160731.0	-4781.0	-19190.0
29	17	57	18	147	12.0	-163111.0	-5418.0	-17765.0
29	17	57	18	148	13.0	-165846.0	-5050.0	-16413.0
29	17	57	18	148	14.0	-167334.0	-4780.0	-15934.0
29	17	57	18	149	15.0	-168022.0	-4965.0	-15490.0
29	17	57	18	150	17.0	-168526.0	-5046.0	-14717.0
29	17	57	18	150	18.0	-169717.0	-5111.0	-14888.0
29	17	57	18	151	19.0	-171280.0	-5201.0	-14735.0
29	17	57	18	151	20.0	-171396.0	-5006.0	-14154.0
29	17	57	18	152	21.0	-171424.0	-5031.0	-14175.0
29	17	57	18	153	22.0	-171334.0	-5161.0	-14258.0
29	17	57	18	184	23.0	-170626.0	-5049.0	-14254.0
29	17	57	18	185	24.0	-170874.0	-4846.0	-13604.0
29	17	57	18	186	25.0	-171686.0	-4921.0	-13285.0
29	17	57	18	187	26.0	-172259.0	-5067.0	-13612.0
29	17	57	18	188	27.0	-172879.0	-5003.0	-13659.0
29	17	57	18	188	28.0	-173261.0	-4600.0	-13468.0
29	17	57	18	189	29.0	-173442.0	-4945.0	-13298.0
29	17	57	18	190	30.0	-174001.0	-5182.0	-12743.0
29	17	57	18	190	31.0	-174526.0	-4824.0	-12283.0
29	17	57	18	191	32.0	-174662.0	-4524.0	-12162.0
29	17	57	18	192	33.0	-175052.0	-4344.0	-12181.0
29	17	57	18	192	34.0	-175096.0	-4490.0	-11870.0
29	17	57	18	193	35.0	-174964.0	-4799.0	-11668.0
29	17	57	18	194	36.0	-175382.0	-4335.0	-11557.0
29	17	57	18	194	37.0	-175912.0	-4473.0	-10865.0
29	17	57	18	195	39.0	-177246.0	-3895.0	-9725.0
29	17	57	18	195	40.0	-178643.0	-3608.0	-8909.0
29	17	57	18	196	41.0	-180384.0	-3658.0	-8525.0
29	17	57	18	197	42.0	-182554.0	-3815.0	-8455.0
29	17	57	18	198	43.0	-184652.0	-3174.0	-8039.0
29	17	57	18	198	44.0	-186411.0	-3386.0	-8155.0
29	17	57	18	199	45.0	-188095.0	-3497.0	-8229.0
29	17	57	18	229	46.0	-189168.0	-3739.0	-8031.0
29	17	57	18	230	47.0	-189646.0	-2979.0	-7822.0
29	17	57	18	231	48.0	-189685.0	-2807.0	-7729.0
29	17	57	18	231	49.0	-188713.0	-2552.0	-6544.0
29	17	57	18	232	50.0	-187978.0	-2550.0	-4964.0
29	17	57	18	233	51.0	-188269.0	-2517.0	-4101.0
29	17	57	18	233	52.0	-189181.0	-2326.0	-3705.0
29	17	57	18	234	53.0	-190744.0	-2141.0	-3589.0
29	17	57	18	235	54.0	-192176.0	-2057.0	-3431.0
29	17	57	18	235	55.0	-195105.0	-1876.0	-3649.0
29	17	57	18	236	56.0	-204566.0	-1699.0	-2911.0
29	17	57	18	237	57.0	-206300.0	-1466.0	-1689.0
29	17	57	18	237	58.0	-197242.0	-1489.0	-1112.0
29	17	57	18	238	59.0	-184618.0	-1341.0	-553.0
29	17	57	18	239	60.0	-170747.0	-1272.0	114.0
29	17	57	18	239	62.0	-170107.0	-954.0	311.0
29	17	57	18	240	63.0	-174766.0	-786.0	8.0
29	17	57	18	241	64.0	-181140.0	-137.0	601.0
29	17	57	18	241	65.0	-188628.0	-165.0	776.0
29	17	57	18	242	66.0	-196129.0	-401.0	522.0
29	17	57	18	242	67.0	-203986.0	-314.0	931.0
29	17	57	18	275	68.0	-211391.0	-254.0	1626.0
29	17	57	18	276	69.0	-218419.0	-175.0	2148.0
29	17	57	18	276	70.0	-225087.0	-290.0	2267.0
29	17	57	18	277	71.0	-230205.0	-145.0	2151.0
29	17	57	18	278	72.0	-234332.0	-101.0	1744.0
29	17	57	18	279	73.0	-237075.0	84.0	2159.0
29	17	57	18	280	74.0	-237306.0	306.0	2694.0
29	17	57	18	280	75.0	-233770.0	49.0	3150.0
29	17	57	18	281	76.0	-226274.0	118.0	3528.0
29	17	57	18	282	77.0	-212715.0	243.0	3265.0
29	17	57	18	282	78.0	-183686.0	331.0	2801.0
29	17	57	18	283	79.0	-148482.0	296.0	2446.0
29	17	57	18	284	80.0	-136240.0	774.0	2339.0
29	17	57	18	284	81.0	-152332.0	628.0	2900.0
29	17	57	18	285	82.0	-158694.0	-142.0	3636.0
29	17	57	18	286	84.0	-190564.0	923.0	3489.0
29	17	57	18	286	85.0	-197432.0	1139.0	3066.0
29	17	57	18	287	86.0	-203060.0	1138.0	3020.0
29	17	57	18	288	87.0	-205044.0	1100.0	3713.0
29	17	57	18	288	88.0	-195648.0	1153.0	3939.0
29	17	57	18	289	89.0	-183569.0	1164.0	3563.0
29	17	57	18	289	90.0	-175508.0	1366.0	3754.0
29	17	57	18	320	91.0	-175750.0	1876.0	4269.0
29	17	57	18	321	92.0	-181036.0	1961.0	3761.0
29	17	57	18	322	93.0	-185709.0	1540.0	3861.0
29	17	57	18	322	94.0	-191438.0	1615.0	3993.0
29	17	57	18	323	95.0	-195711.0	1720.0	3892.0
29	17	57	18	324	96.0	-197312.0	1613.0	3555.0
29	17	57	18	325	97.0	-197642.0	1600.0	3206.0
29	17	57	18	325	98.0	-197777.0	1543.0	3434.0
29	17	57	18	326	99.0	-197956.0	1606.0	3655.0
29	17	57	18	327	100.0	-198101.0	2022.0	3991.0
29	17	57	18	327	101.0	-197579.0	2203.0	4038.0
29	17	57	18	328	102.0	-197731.0	1836.0	3855.0
29	17	57	18	329	103.0	-198319.0	1713.0	3653.0
29	17	57	18	329	104.0	-198847.0	1758.0	3823.0
29	17	57	18	330	105.0	-198817.0	2046.0	3699.0
29	17	57	18	331	107.0	-197869.0	2059.0	4108.0
29	17	57	18	331	108.0	-196137.0	2098.0	4359.0
29	17	57	18	332	109.0	-194341.0	2099.0	4268.0
29	17	57	18	332	110.0	-192151.0	1943.0	4081.0
29	17	57	18	333	111.0	-189379.0	1809.0	3459.0
29	17	57	18	334	112.0	-187157.0	2083.0	3124.0
29	17	57	18	364	113.0	-185571.0	2733.0	3490.0
29	17	57	18	365	114.0	-184736.0	2685.0	3617.0
29	17	57	18	366	115.0	-185091.0	2250.0	3284.0
29	17	57	18	366	116.0	-185167.0	2258.0	3679.0
29	17	57	18	367	117.0	-185679.0	2014.0	4010.0
29	17	57	18	368	118.0	-186996.0	2114.0	3677.0
29	17	57	18	369	119.0	-188720.0	1986.0	3492.0
29	17	57	18	369	120.0	-190895.0	2123.0	3490.0
29	17	57	18	370	121.0	-192323.0	2186.0	3478.0
29	17	57	18	371	122.0	-193731.0	1642.0	3657.0
29	17	57	18	372	123.0	-195892.0	1726.0	3738.0
29	17	57	18	373	124.0	-197744.0	1326.0	3598.0
29	17	57	18	373	125.0	-199846.0	1939.0	3023.0
29	17	57	18	374	126.0	-202331.0	2219.0	3018.0
29	17	57	18	375	127.0	-203514.0	2130.0	4172.0
29	17	57	18	375	129.0	-207542.0	2000.0	4356.0
29	17	57	18	376	130.0	-208504.0	1977.0	4454.0
29	17	57	18	376	131.0	-209642.0	1894.0	4233.0
29	17	57	18	377	132.0	-210773.0	1292.0	3569.0
29	17	57	18	378	133.0	-211646.0	2129.0	3638.0
29	17	57	18	378	134.0	-212615.0	2054.0	4631.0
29	17	57	18	408	135.0	-213792.0	1978.0	5090.0
29	17	57	18	409	136.0	-214932.0	2181.0	4929.0
29	17	57	18	409	137.0	-216915.0	2244.0	4658.0
29	17	57	18	410	138.0	-218812.0	2201.0	4550.0
29	17	57	18	411	139.0	-220331.0	2211.0	3809.0
29	17	57	18	412	140.0	-222362.0	1860.0	3636.0
29	17	57	18	412	141.0	-223589.0	1751.0	3886.0
29	17	57	18	413	142.0	-223723.0	2613.0	4126.0
29	17	57	18	414	143.0	-224431.0	2588.0	4644.0
29	17	57	18	415	144.0	-225107.0	2278.0	5238.0
29	17	57	18	415	145.0	-224401.0	2066.0	5541.0
29	17	57	18	416	146.0	-223726.0	1884.0	5673.0
29	17	57	18	417	147.0	-223967.0	1906.0	5729.0
29	17	57	18	417	148.0	-223896.0	1913.0	5688.0
29	17	57	18	418	149.0	-224575.0	1744.0	5246.0
29	17	57	18	419	152.0	-228892.0	2002.0	5167.0
29	17	57	18	420	153.0	-230149.0	1917.0	4712.0
29	17	57	18	420	154.0	-230881.0	1711.0	4456.0
29	17	57	18	421	155.0	-230981.0	1953.0	4778.0
29	17	57	18	421	156.0	-230409.0	2265.0	4943.0
29	17	57	18	422	157.0	-229824.0	2022.0	5591.0
29	17	57	18	455	158.0	-228919.0	1874.0	5633.0
29	17	57	18	455	159.0	-227381.0	1830.0	5350.0
29	17	57	18	456	160.0	-225420.0	1794.0	5233.0
29	17	57	18	457	161.0	-223510.0	1539.0	5387.0
29	17	57	18	458	162.0	-221965.0	1038.0	5107.0
29	17	57	18	458	163.0	-220512.0	1258.0	4974.0
29	17	57	18	459	164.0	-219277.0	1484.0	5358.0
29	17	57	18	460	165.0	-218765.0	1122.0	5429.0
29	17	57	18	461	166.0	-218511.0	1067.0	5535.0
29	17	57	18	461	167.0	-218621.0	1356.0	5379.0
29	17	57	18	462	168.0	-219258.0	1449.0	5005.0
29	17	57	18	463	169.0	-219611.0	1258.0	4856.0
29	17	57	18	464	170.0	-219170.0	1309.0	5035.0
29	17	57	18	464	171.0	-219200.0	1449.0	5219.0
29	17	57	18	465	172.0	-219192.0	1568.0	5390.0
29	17	57	18	465	174.0	-217334.0	1319.0	4743.0
29	17	57	18	466	175.0	-216094.0	1484.0	4798.0
29	17	57	18	467	176.0	-214871.0	1230.0	4369.0
29	17	57	18	467	177.0	-214441.0	1086.0	4624.0
29	17	57	18	468	178.0	-214252.0	851.0	4508.0
29	17	57	18	468	179.0	-213868.0	949.0	5227.0
29	17	57	18	499	180.0	-213171.0	1222.0	5872.0
29	17	57	18	500	181.0	-212904.0	1480.0	5546.0
29	17	57	18	501	182.0	-211999.0	1690.0	4623.0
29	17	57	18	502	183.0	-209982.0	1743.0	4132.0
29	17	57	18	502	184.0	-207904.0	928.0	4153.0
29	17	57	18	503	185.0	-206368.0	1171.0	3544.0
29	17	57	18	504	186.0	-205333.0	1103.0	3344.0
29	17	57	18	504	187.0	-205187.0	1075.0	3591.0
29	17	57	18	505	188.0	-205866.0	999.0	4436.0
29	17	57	18	506	189.0	-207776.0	1028.0	4896.0
29	17	57	18	507	190.0	-210136.0	1110.0	5076.0
29	17	57	18	507	191.0	-211787.0	1277.0	5120.0
29	17	57	18	508	192.0	-213656.0	964.0	4720.0
29	17	57	18	509	193.0	-214263.0	1105.0	4938.0
29	17	57	18	509	194.0	-214681.0	839.0	5494.0
29	17	57	18	510	196.0	-215092.0	778.0	5857.0
29	17	57	18	511	197.0	-215787.0	805.0	5680.0
29	17	57	18	511	198.0	-216156.0	597.0	5733.0
29	17	57	18	512	199.0	-215531.0	643.0	5342.0
29	17	57	18	512	200.0	-216101.0	620.0	5638.0
29	17	57	18	513	201.0	-215607.0	781.0	6102.0
29	17	57	18	514	202.0	-213992.0	574.0	5986.0
29	17	57	18	544	203.0	-213629.0	686.0	5800.0
29	17	57	18	545	204.0	-213272.0	598.0	5953.0
29	17	57	18	545	205.0	-212603.0	459.0	7071.0
29	17	57	18	546	206.0	-213620.0	419.0	7368.0
29	17	57	18	547	207.0	-214296.0	340.0	6764.0
29	17	57	18	548	208.0	-214467.0	373.0	6873.0
29	17	57	18	548	209.0	-215287.0	384.0	7416.0
29	17	57	18	549	210.0	-215522.0	496.0	7556.0
29	17	57	18	550	211.0	-215475.0	389.0	7452.0
29	17	57	18	551	212.0	-216371.0	236.0	7458.0
29	17	57	18	552	213.0	-217079.0	234.0	7383.0
29	17	57	18	553	214.0	-216846.0	355.0	7604.0
29	17	57	18	553	215.0	-216470.0	388.0	7757.0
29	17	57	18	554	216.0	-216497.0	311.0	7655.0
29	17	57	18	555	217.0	-216221.0	218.0	8131.0
29	17	57	18	555	219.0	-212777.0	317.0	7630.0
29	17	57	18	556	220.0	-209497.0	144.0	7455.0
29	17	57	18	557	221.0	-206192.0	129.0	7169.0
29	17	57	18	557	222.0	-203634.0	-217.0	7360.0
29	17	57	18	558	223.0	-200377.0	-232.0	7889.0
29	17	57	18	558	224.0	-196335.0	-41.0	7886.0
29	17	57	18	589	225.0	-192959.0	-77.0	7235.0
29	17	57	18	590	226.0	-189133.0	-122.0	6768.0
29	17	57	18	591	227.0	-186672.0	-169.0	7298.0
29	17	57	18	592	228.0	-186694.0	-254.0	7824.0
29	17	57	18	592	229.0	-186692.0	-370.0	7100.0
29	17	57	18	593	230.0	-187419.0	-235.0	6896.0
29	17	57	18	594	231.0	-188761.0	43.0	6417.0
29	17	57	18	594	232.0	-189992.0	466.0	5780.0
29	17	57	18	595	233.0	-191457.0	-354.0	5238.0
29	17	57	18	596	234.0	-192556.0	-511.0	5374.0
29	17	57	18	597	235.0	-192427.0	-653.0	6173.0
29	17	57	18	597	236.0	-192166.0	-684.0	6792.0
29	17	57	18	598	237.0	-191746.0	-782.0	7510.0
29	17	57	18	599	238.0	-191304.0	-846.0	7886.0
29	17	57	18	599	239.0	-191397.0	-1072.0	7954.0
29	17	57	18	600	241.0	-191334.0	-872.0	6705.0
29	17	57	18	601	242.0	-191228.0	-403.0	6999.0
29	17	57	18	601	243.0	-190755.0	-743.0	7641.0
29	17	57	18	602	244.0	-191091.0	-682.0	7921.0
29	17	57	18	602	245.0	-190444.0	-843.0	7547.0
29	17	57	18	603	246.0	-188984.0	-1091.0	6921.0
29	17	57	18	604	247.0	-188261.0	-1134.0	6377.0
29	17	57	18	634	248.0	-187422.0	-1338.0	5059.0
29	17	57	18	635	249.0	-186490.0	-1354.0	3771.0
29	17	57	18	636	250.0	-186069.0	-1122.0	2173.0
29	17	57	18	637	251.0	-184885.0	-1310.0	-294.0
29	17	57	18	637	252.0	-184009.0	-1467.0	-2856.0
29	17	57	18	638	253.0	-184059.0	-1506.0	-6761.0
29	17	57	18	639	254.0	-183477.0	-1401.0	-9944.0
29	17	57	18	640	255.0	-182741.0	-1379.0	-11292.0
29	17	57	18	640	0.0	-182783.0	-1314.0	-11167.0
29	17	57	18	641	1.0	-182882.0	-1643.0	-9012.0
29	17	57	18	642	2.0	-183314.0	-1785.0	-8467.0
29	17	57	18	643	3.0	-184536.0	-1671.0	-9770.0
29	17	57	18	643	4.0	-186149.0	-1816.0	-10099.0
29	17	57	18	644	5.0	-188919.0	-2054.0	-7901.0
29	17	57	18	645	6.0	-191338.0	-2005.0	-4087.0
29	17	57	18	645	8.0	-195535.0	-2110.0	6416.0
29	17	57	18	646	9.0	-197412.0	-2366.0	12579.0
29	17	57	18	647	10.0	-200872.0	-2714.0	18778.0
29	17	57	18	647	11.0	-206002.0	-2649.0	25299.0
29	17	57	18	648	12.0	-213189.0	-2413.0	27699.0
29	17	57	18	648	13.0	-222966.0	-2305.0	24970.0
29	17	57	18	679	14.0	-233347.0	-2495.0	20995.0
29	17	57	18	680	15.0	-242492.0	-2499.0	16676.0
29	17	57	18	681	16.0	-247042.0	-2657.0	12584.0
29	17	57	18	682	17.0	-244568.0	-2815.0	9073.0
29	17	57	18	682	18.0	-234931.0	-2847.0	7369.0
29	17	57	18	683	19.0	-218426.0	-2677.0	6358.0
29	17	57	18	684	20.0	-200429.0	-2640.0	6181.0
29	17	57	18	685	21.0	-185051.0	-2824.0	5880.0
29	17	57	18	685	22.0	-172513.0	-2818.0	5711.0
29	17	57	18	686	23.0	-165192.0	-3018.0	5866.0
29	17	57	18	687	24.0	-165024.0	-2885.0	6239.0
29	17	57	18	687	25.0	-173133.0	-2849.0	6257.0
29	17	57	18	688	26.0	-188336.0	-3011.0	5858.0
29	17	57	18	689	27.0	-206211.0	-3131.0	5271.0
29	17	57	18	689	30.0	-246856.0	-3463.0	4626.0
29	17	57	18	690	31.0	-254354.0	-3554.0	4649.0
29	17	57	18	724	32.0	-258347.0	-3371.0	4626.0
29	17	57	18	769	33.0	-253609.0	-3443.0	4453.0
29	17	57	18	770	34.0	-238359.0	-3562.0	4219.0
29	17	57	18	771	35.0	-218945.0	-3427.0	3694.0
29	17	57	18	772	36.0	-200341.0	-3392.0	3630.0
29	17	57	18	773	37.0	-185564.0	-3460.0	4103.0
29	17	57	18	774	38.0	-177592.0	-3153.0	4330.0
29	17	57	18	774	39.0	-175811.0	-3566.0	4479.0
29	17	57	18	775	40.0	-177247.0	-4053.0	4651.0
29	17	57	18	776	41.0	-179284.0	-4032.0	4721.0
29	17	57	18	777	42.0	-182016.0	-3831.0	4588.0
29	17	57	18	777	43.0	-185455.0	-3796.0	4261.0
29	17	57	18	778	44.0	-189417.0	-3859.0	3844.0
29	17	57	18	779	45.0	-191069.0	-3813.0	4028.0
29	17	57	18	780	46.0	-190274.0	-3415.0	4170.0
29	17	57	18	780	53.0	-177827.0	-4473.0	3356.0
29	17	57	18	781	75.0	-151166.0	-5722.0	-752.0
29	17	57	18	781	76.0	-155456.0	-5531.0	-1199.0
29	17	57	18	782	77.0	-159225.0	-5681.0	-1506.0
29	17	57	18	783	78.0	-163000.0	-5696.0	-1262.0
29	17	57	18	783	79.0	-167757.0	-5762.0	-962.0
29	17	57	18	784	80.0	-173179.0	-5803.0	-1040.0
29	17	57	18	814	81.0	-178300.0	-5871.0	-1285.0
29	17	57	18	830	82.0	-184403.0	-5609.0	-1643.0
29	17	57	18	831	83.0	-186179.0	-5011.0	-1999.0
29	17	57	18	832	84.0	-183719.0	-5139.0	-2704.0
29	17	57	18	832	85.0	-182489.0	-4992.0	-2861.0
29	17	57	18	843	86.0	-180948.0	-5672.0	-3081.0
29	17	57	18	845	87.0	-181306.0	-5916.0	-3377.0
29	17	57	18	845	88.0	-182046.0	-5972.0	-3766.0
29	17	57	18	846	89.0	-184151.0	-6085.0	-4287.0
29	17	57	18	847	90.0	-184451.0	-6131.0	-4566.0
29	17	57	18	847	91.0	-181223.0	-6172.0	-5122.0
29	17	57	18	848	92.0	-186622.0	-6280.0	-5216.0
29	17	57	18	848	93.0	-184419.0	-6354.0	-5242.0
29	17	57	18	849	94.0	-179449.0	-6536.0	-5712.0
29	17	57	18	849	95.0	-198299.0	-6737.0	-5926.0
29	17	57	18	850	97.0	-194579.0	-6497.0	-5783.0
29	17	57	18	850	98.0	-197666.0	-6496.0	-6185.0
29	17	57	18	851	99.0	-202826.0	-6759.0	-6319.0
29	17	57	18	852	100.0	-208716.0	-6656.0	-6764.0
29	17	57	18	852	101.0	-210111.0	-6434.0	-6464.0
29	17	57	18	853	102.0	-200001.0	-5613.0	-6304.0
29	17	57	18	853	103.0	-193754.0	-5837.0	-6341.0
29	17	57	18	861	104.0	-171681.0	-6051.0	-6441.0
29	17	57	18	862	105.0	-167077.0	-6240.0	-6249.0
29	17	57	18	862	106.0	-161983.0	-6172.0	-6342.0
29	17	57	18	863	107.0	-156437.0	-6331.0	-6799.0
29	17	57	18	864	108.0	-155794.0	-6354.0	-7097.0
29	17	57	18	864	109.0	-162080.0	-6096.0	-7256.0
29	17	57	18	865	110.0	-177921.0	-6172.0	-7742.0
29	17	57	18	865	111.0	-197594.0	-6314.0	-7503.0
29	17	57	18	866	112.0	-196745.0	-6280.0	-7082.0
29	17	57	18	866	113.0	-181874.0	-6128.0	-7221.0
29	17	57	18	867	114.0	-160221.0	-5922.0	-7952.0
29	17	57	18	868	115.0	-148044.0	-5817.0	-7937.0
29	17	57	18	868	116.0	-135364.0	-5756.0	-7611.0
29	17	57	18	869	117.0	-116778.0	-5498.0	-7322.0
29	17	57	18	869	118.0	-105443.0	-5421.0	-6881.0
29	17	57	18	870	120.0	-104464.0	-5054.0	-5476.0
29	17	57	18	870	121.0	-111354.0	-4744.0	-5357.0
29	17	57	18	871	122.0	-124636.0	-4949.0	-4937.0
29	17	57	18	872	123.0	-137682.0	-4841.0	-4308.0
29	17	57	18	872	124.0	-150692.0	-4654.0	-4081.0
29	17	57	18	873	125.0	-162940.0	-4378.0	-3673.0
29	17	57	18	904	126.0	-173815.0	-4338.0	-3506.0
29	17	57	18	929	127.0	-184844.0	-4270.0	-3446.0
29	17	57	18	930	128.0	-194163.0	-4066.0	-2828.0
29	17	57	18	930	129.0	-201292.0	-4041.0	-2064.0
29	17	57	18	931	130.0	-207138.0	-3994.0	-1606.0
29	17	57	18	931	131.0	-210400.0	-3787.0	-870.0
29	17	57	18	932	132.0	-210789.0	-3613.0	-63.0
29	17	57	18	932	133.0	-210024.0	-3622.0	131.0
29	17	57	18	933	134.0	-208519.0	-3429.0	-293.0
29	17	57	18	934	135.0	-206714.0	-3377.0	-767.0
29	17	57	18	934	136.0	-204902.0	-3273.0	-632.0
29	17	57	18	935	137.0	-203006.0	-3042.0	-25.0
29	17	57	18	935	138.0	-200414.0	-2934.0	1159.0
29	17	57	18	936	139.0	-198488.0	-2621.0	1541.0
29	17	57	18	936	140.0	-197561.0	-2489.0	1768.0
29	17	57	18	937	142.0	-194409.0	-2216.0	3104.0
29	17	57	18	938	143.0	-193766.0	-2326.0	3038.0
29	17	57	18	938	144.0	-193357.0	-2127.0	3147.0
29	17	57	18	939	145.0	-194386.0	-2030.0	3994.0
29	17	57	18	939	146.0	-197136.0	-2011.0	4311.0
29	17	57	18	940	147.0	-199416.0	-1542.0	4324.0
29	17	57	18	940	148.0	-202614.0	-1456.0	4584.0
29	17	57	18	952	149.0	-206296.0	-1472.0	4896.0
29	17	57	18	952	150.0	-209009.0	-1314.0	4453.0
29	17	57	18	953	151.0	-211701.0	-1137.0	4355.0
29	17	57	18	954	152.0	-213609.0	-1092.0	5416.0
29	17	57	18	954	153.0	-214361.0	-954.0	5573.0
29	17	57	18	955	154.0	-213456.0	-1006.0	5117.0
29	17	57	18	956	155.0	-208373.0	-909.0	4924.0
29	17	57	18	956	156.0	-194021.0	-735.0	4780.0
29	17	57	18	957	157.0	-167082.0	-456.0	4876.0
29	17	57	18	957	158.0	-143837.0	-1.0	5489.0
29	17	57	18	958	159.0	-147540.0	-88.0	5867.0
29	17	57	18	959	160.0	-162106.0	-294.0	5729.0
29	17	57	18	959	161.0	-169753.0	-257.0	5493.0
29	17	57	18	960	162.0	-193874.0	-337.0	5649.0
29	17	57	18	960	163.0	-206749.0	-307.0	4956.0
29	17	57	18	961	165.0	-225181.0	224.0	5896.0
29	17	57	18	961	166.0	-229730.0	587.0	6464.0
29	17	57	18	962	167.0	-226927.0	216.0	6297.0
29	17	57	18	963	168.0	-221667.0	405.0	5990.0
29	17	57	18	963	169.0	-213361.0	602.0	6044.0
29	17	57	18	964	170.0	-199627.0	550.0	6221.0
29	17	57	18	994	171.0	-184866.0	801.0	6121.0
29	17	57	18	994	172.0	-177297.0	628.0	6402.0
29	17	57	18	995	173.0	-176282.0	383.0	6379.0
29	17	57	18	996	174.0	-182131.0	355.0	6137.0
29	17	57	18	996	175.0	-189989.0	558.0	6632.0
29	17	57	18	997	176.0	-194876.0	661.0	6459.0
29	17	57	18	997	177.0	-196421.0	618.0	6113.0
29	17	57	18	998	178.0	-198292.0	520.0	6104.0
29	17	57	18	999	179.0	-200592.0	457.0	6327.0
29	17	57	18	999	180.0	-203457.0	547.0	5828.0
29	17	57	19	0	181.0	-206906.0	550.0	5584.0
29	17	57	19	1	182.0	-209739.0	488.0	6028.0
29	17	57	19	1	183.0	-212102.0	440.0	6007.0
29	17	57	19	2	184.0	-214429.0	416.0	6037.0
29	17	57	19	2	185.0	-216620.0	536.0	6344.0
29	17	57	19	3	187.0	-220243.0	666.0	5805.0
29	17	57	19	4	188.0	-221133.0	614.0	5944.0
29	17	57	19	4	189.0	-221684.0	669.0	5960.0
29	17	57	19	5	190.0	-222563.0	776.0	6061.0
29	17	57	19	5	191.0	-223408.0	909.0	5791.0
29	17	57	19	6	192.0	-224014.0	1076.0	6085.0
29	17	57	19	7	193.0	-224122.0	846.0	6222.0
29	17	57	19	39	194.0	-223931.0	840.0	6631.0
29	17	57	19	40	195.0	-223445.0	789.0	6230.0
29	17	57	19	41	196.0	-222632.0	624.0	6194.0
29	17	57	19	42	197.0	-221420.0	1020.0	6232.0
29	17	57	19	42	198.0	-219464.0	1159.0	6271.0
29	17	57	19	43	199.0	-218110.0	1148.0	5690.0
29	17	57	19	44	200.0	-217354.0	873.0	5818.0
29	17	57	19	44	201.0	-217594.0	900.0	6520.0
29	17	57	19	45	202.0	-218578.0	1033.0	6584.0
29	17	57	19	45	203.0	-220003.0	1341.0	6209.0
29	17	57	19	46	204.0	-221725.0	1117.0	6264.0
29	17	57	19	47	205.0	-223201.0	1048.0	6506.0
29	17	57	19	47	206.0	-224327.0	817.0	6034.0
29	17	57	19	48	207.0	-224816.0	864.0	5553.0
29	17	57	19	48	208.0	-226012.0	808.0	5706.0
29	17	57	19	49	210.0	-228094.0	1131.0	5296.0
29	17	57	19	50	211.0	-228505.0	1055.0	5734.0
29	17	57	19	51	212.0	-229301.0	599.0	6946.0
29	17	57	19	51	213.0	-229953.0	629.0	7808.0
29	17	57	19	52	214.0	-230474.0	799.0	7409.0
29	17	57	19	53	215.0	-231051.0	813.0	7031.0
29	17	57	19	100	216.0	-231047.0	549.0	7316.0
29	17	57	19	114	217.0	-230802.0	813.0	7414.0
29	17	57	19	115	218.0	-229940.0	687.0	7531.0
29	17	57	19	115	219.0	-229006.0	599.0	7734.0
29	17	57	19	116	220.0	-228246.0	644.0	7542.0
29	17	57	19	117	221.0	-227557.0	671.0	7456.0
29	17	57	19	117	222.0	-226201.0	808.0	7637.0
29	17	57	19	118	223.0	-224962.0	645.0	7459.0
29	17	57	19	118	224.0	-223524.0	522.0	6949.0
29	17	57	19	119	225.0	-221496.0	183.0	7019.0
29	17	57	19	120	226.0	-220259.0	108.0	7311.0
29	17	57	19	120	227.0	-218957.0	264.0	7473.0
29	17	57	19	121	228.0	-217529.0	328.0	7539.0
29	17	57	19	122	229.0	-216343.0	345.0	7854.0
29	17	57	19	122	230.0	-215104.0	353.0	7635.0
29	17	57	19	123	240.0	-214847.0	-532.0	8021.0
29	17	57	19	123	247.0	-206984.0	-596.0	5860.0
29	17	57	19	124	248.0	-205196.0	-626.0	5959.0
29	17	57	19	125	249.0	-203896.0	-485.0	6188.0
29	17	57	19	125	250.0	-202927.0	-694.0	6566.0
29	17	57	19	133	251.0	-202555.0	-572.0	6743.0
29	17	57	19	133	252.0	-202467.0	-601.0	6992.0
29	17	57	19	134	253.0	-203009.0	-845.0	6953.0
29	17	57	19	135	254.0	-203829.0	-795.0	6660.0
29	17	57	19	155	255.0	-205112.0	-944.0	6408.0
29	17	57	19	156	0.0	-207142.0	-982.0	6220.0
29	17	57	19	157	1.0	-209662.0	-1107.0	5896.0
29	17	57	19	157	2.0	-211728.0	-940.0	5916.0
29	17	57	19	158	3.0	-213619.0	-783.0	6943.0
29	17	57	19	158	4.0	-215573.0	-701.0	8168.0
29	17	57	19	159	5.0	-217017.0	-1052.0	7753.0
29	17	57	19	160	6.0	-218156.0	-1097.0	7035.0
29	17	57	19	160	7.0	-218539.0	-1036.0	7009.0
29	17	57	19	161	8.0	-218668.0	-782.0	7457.0
29	17	57	19	161	9.0	-218801.0	-789.0	7569.0
29	17	57	19	162	10.0	-218464.0	-877.0	7893.0
29	17	57	19	163	11.0	-218322.0	-961.0	7698.0
29	17	57	19	163	12.0	-218333.0	-902.0	7122.0
29	17	57	19	164	13.0	-218381.0	-1064.0	7057.0
29	17	57	19	164	14.0	-218042.0	-1014.0	7377.0
29	17	57	19	179	15.0	-218547.0	-1059.0	7641.0
29	17	57	19	180	16.0	-219442.0	-1244.0	7781.0
29	17	57	19	180	17.0	-220686.0	-1459.0	7661.0
29	17	57	19	181	18.0	-223093.0	-1496.0	7600.0
29	17	57	19	182	19.0	-226387.0	-1359.0	7310.0
29	17	57	19	182	20.0	-229690.0	-1228.0	7534.0
29	17	57	19	183	21.0	-232261.0	-1102.0	7815.0
29	17	57	19	183	22.0	-234365.0	-1449.0	8601.0
29	17	57	19	202	23.0	-236197.0	-1352.0	9606.0
29	17	57	19	203	24.0	-237832.0	-1354.0	10784.0
29	17	57	19	204	25.0	-238404.0	-1444.0	11011.0
29	17	57	19	204	26.0	-237537.0	-1786.0	11455.0
29	17	57	19	205	27.0	-235805.0	-1676.0	12209.0
29	17	57	19	205	28.0	-233565.0	-1679.0	12113.0
29	17	57	19	206	29.0	-231054.0	-1795.0	12107.0
29	17	57	19	207	30.0	-228631.0	-2076.0	11603.0
29	17	57	19	207	31.0	-226124.0	-2001.0	11494.0
29	17	57	19	208	32.0	-222950.0	-1621.0	11657.0
29	17	57	19	208	33.0	-219367.0	-1746.0	12469.0
29	17	57	19	209	34.0	-215947.0	-1899.0	13378.0
29	17	57	19	210	35.0	-212187.0	-1949.0	13842.0
29	17	57	19	210	36.0	-208224.0	-1832.0	13834.0
29	17	57	19	211	37.0	-204135.0	-1933.0	13843.0
29	17	57	19	225	38.0	-200055.0	-2057.0	12908.0
29	17	57	19	226	39.0	-197387.0	-2068.0	12646.0
29	17	57	19	227	40.0	-195671.0	-2011.0	13780.0
29	17	57	19	227	41.0	-193805.0	-2157.0	13763.0
29	17	57	19	228	42.0	-192385.0	-2294.0	13371.0
29	17	57	19	228	43.0	-190999.0	-2658.0	13519.0
29	17	57	19	229	44.0	-189785.0	-2528.0	13813.0
29	17	57	19	248	45.0	-187814.0	-2085.0	13863.0
29	17	57	19	249	46.0	-185009.0	-2066.0	13627.0
29	17	57	19	250	47.0	-182962.0	-1814.0	13146.0
29	17	57	19	250	48.0	-181320.0	-1695.0	12730.0
29	17	57	19	251	49.0	-179911.0	-2226.0	12036.0
29	17	57	19	252	50.0	-179513.0	-2531.0	11665.0
29	17	57	19	252	51.0	-179874.0	-2631.0	11710.0
29	17	57	19	253	52.0	-179888.0	-2557.0	11696.0
29	17	57	19	253	53.0	-180951.0	-2594.0	11421.0
29	17	57	19	254	54.0	-182944.0	-2648.0	11373.0
29	17	57	19	254	55.0	-184845.0	-2990.0	11558.0
29	17	57	19	255	56.0	-186638.0	-2787.0	12573.0
29	17	57	19	256	57.0	-187562.0	-2509.0	12394.0
29	17	57	19	256	58.0	-187829.0	-2666.0	11306.0
29	17	57	19	257	59.0	-188306.0	-2862.0	10947.0
29	17	57	19	272	60.0	-188253.0	-2941.0	10192.0
29	17	57	19	273	61.0	-188351.0	-2917.0	9568.0
29	17	57	19	273	62.0	-188403.0	-2948.0	7995.0
29	17	57	19	274	63.0	-187881.0	-3090.0	5930.0
29	17	57	19	274	64.0	-187507.0	-3552.0	3059.0
29	17	57	19	275	65.0	-187341.0	-3491.0	256.0
29	17	57	19	276	66.0	-187541.0	-3397.0	-2738.0
29	17	57	19	276	67.0	-187880.0	-3717.0	-5922.0
29	17	57	19	295	68.0	-188413.0	-3834.0	-8256.0
29	17	57	19	296	69.0	-189915.0	-3846.0	-9866.0
29	17	57	19	297	70.0	-192222.0	-3672.0	-7234.0
29	17	57	19	297	71.0	-194986.0	-3630.0	-4917.0
29	17	57	19	298	72.0	-197911.0	-3494.0	-6128.0
29	17	57	19	298	73.0	-201091.0	-3648.0	-6653.0
29	17	57	19	299	74.0	-204334.0	-3784.0	-5333.0
29	17	57	19	300	75.0	-207161.0	-3905.0	-1872.0
29	17	57	19	300	76.0	-209590.0	-3999.0	3269.0
29	17	57	19	301	77.0	-212131.0	-3914.0	9529.0
29	17	57	19	301	78.0	-215541.0	-3884.0	15309.0
29	17	57	19	302	79.0	-219783.0	-3945.0	21656.0
29	17	57	19	302	80.0	-225720.0	-3991.0	28438.0
29	17	57	19	303	81.0	-233204.0	-4257.0	30236.0
29	17	57	19	304	82.0	-240906.0	-4189.0	29288.0
29	17	57	19	318	83.0	-250264.0	-3917.0	26800.0
29	17	57	19	319	84.0	-260276.0	-4402.0	23708.0
29	17	57	19	319	85.0	-268872.0	-4657.0	19643.0
29	17	57	19	320	86.0	-273816.0	-4611.0	15771.0
29	17	57	19	321	87.0	-273423.0	-5076.0	13200.0
29	17	57	19	321	88.0	-266430.0	-4561.0	11697.0
29	17	57	19	322	89.0	-254360.0	-4443.0	11109.0
29	17	57	19	341	90.0	-240697.0	-4420.0	10541.0
29	17	57	19	342	91.0	-225687.0	-4730.0	10124.0
29	17	57	19	342	92.0	-211167.0	-4542.0	10346.0
29	17	57	19	343	93.0	-199258.0	-4586.0	10479.0
29	17	57	19	344	94.0	-191391.0	-5080.0	9197.0
29	17	57	19	344	95.0	-190227.0	-5015.0	8032.0
29	17	57	19	345	96.0	-193686.0	-4948.0	8125.0
29	17	57	19	345	97.0	-200186.0	-4729.0	8165.0
29	17	57	19	346	98.0	-211305.0	-4622.0	8077.0
29	17	57	19	346	99.0	-227044.0	-4751.0	8731.0
29	17	57	19	347	100.0	-244955.0	-5117.0	9036.0
29	17	57	19	348	101.0	-260856.0	-5174.0	8618.0
29	17	57	19	348	102.0	-269825.0	-5100.0	8193.0
29	17	57	19	349	103.0	-269937.0	-5206.0	8029.0
29	17	57	19	349	104.0	-263709.0	-5467.0	7963.0
29	17	57	19	365	105.0	-254525.0	-5482.0	7867.0
29	17	57	19	365	106.0	-243995.0	-5525.0	7837.0
29	17	57	19	366	107.0	-232981.0	-5352.0	8228.0
29	17	57	19	367	108.0	-221962.0	-5452.0	8064.0
29	17	57	19	367	109.0	-212129.0	-5533.0	7688.0
29	17	57	19	368	110.0	-206503.0	-5627.0	7428.0
29	17	57	19	369	111.0	-205591.0	-5669.0	7326.0
29	17	57	19	369	112.0	-206689.0	-5842.0	6643.0
29	17	57	19	370	113.0	-207378.0	-5776.0	6298.0
29	17	57	19	370	114.0	-206994.0	-5949.0	6383.0
29	17	57	19	371	115.0	-205711.0	-6058.0	6267.0
29	17	57	19	372	116.0	-203064.0	-5862.0	6593.0
29	17	57	19	372	117.0	-199594.0	-5752.0	7420.0
29	17	57	19	373	118.0	-195982.0	-5972.0	7696.0
29	17	57	19	373	119.0	-193079.0	-5824.0	7718.0
29	17	57	19	387	120.0	-190826.0	-6078.0	7618.0
29	17	57	19	388	121.0	-188683.0	-6172.0	7039.0
29	17	57	19	388	122.0	-185698.0	-6561.0	6708.0
29	17	57	19	389	123.0	-182583.0	-6677.0	6826.0
29	17	57	19	390	124.0	-179792.0	-6611.0	6713.0
29	17	57	19	390	125.0	-176896.0	-6527.0	6660.0
29	17	57	19	391	126.0	-175101.0	-6434.0	6361.0
29	17	57	19	391	127.0	-173911.0	-6653.0	6104.0
29	17	57	19	410	128.0	-173697.0	-6888.0	5393.0
29	17	57	19	411	129.0	-173968.0	-6849.0	5324.0
29	17	57	19	411	130.0	-174659.0	-6446.0	5367.0
29	17	57	19	412	131.0	-175295.0	-6541.0	5174.0
29	17	57	19	413	132.0	-174512.0	-6849.0	4990.0
29	17	57	19	413	133.0	-172331.0	-6937.0	5201.0
29	17	57	19	414	134.0	-169923.0	-7160.0	4604.0
29	17	57	19	415	135.0	-166976.0	-7137.0	3797.0
29	17	57	19	415	136.0	-163554.0	-7121.0	3944.0
29	17	57	19	416	137.0	-159992.0	-7446.0	4290.0
29	17	57	19	416	138.0	-156477.0	-7320.0	4217.0
29	17	57	19	417	139.0	-153614.0	-7402.0	4005.0
29	17	57	19	418	140.0	-151679.0	-7651.0	3549.0
29	17	57	19	418	141.0	-150157.0	-7491.0	3281.0
29	17	57	19	433	142.0	-150109.0	-7448.0	2494.0
29	17	57	19	433	143.0	-151111.0	-7749.0	2219.0
29	17	57	19	434	144.0	-152756.0	-7379.0	1627.0
29	17	57	19	434	145.0	-155214.0	-7206.0	1313.0
29	17	57	19	435	146.0	-158206.0	-7416.0	1328.0
29	17	57	19	436	147.0	-161322.0	-7640.0	1997.0
29	17	57	19	436	148.0	-164465.0	-7858.0	2143.0
29	17	57	19	437	149.0	-167420.0	-8030.0	1854.0
29	17	57	19	456	150.0	-170132.0	-7841.0	1393.0
29	17	57	19	457	151.0	-171654.0	-7783.0	1271.0
29	17	57	19	457	152.0	-172096.0	-7789.0	527.0
29	17	57	19	458	153.0	-171300.0	-7984.0	-201.0
29	17	57	19	459	154.0	-170026.0	-8101.0	-715.0
29	17	57	19	459	155.0	-168364.0	-8113.0	-1157.0
29	17	57	19	460	156.0	-166395.0	-8114.0	-1405.0
29	17	57	19	461	157.0	-164675.0	-7774.0	-1350.0
29	17	57	19	461	158.0	-163731.0	-8084.0	-1182.0
29	17	57	19	462	159.0	-163348.0	-8186.0	-1504.0
29	17	57	19	463	160.0	-163272.0	-8394.0	-2148.0
29	17	57	19	463	161.0	-163410.0	-8507.0	-2571.0
29	17	57	19	464	162.0	-163659.0	-8443.0	-3552.0
29	17	57	19	464	163.0	-163950.0	-8540.0	-3165.0
29	17	57	19	465	164.0	-164362.0	-8454.0	-2521.0
29	17	57	19	478	165.0	-164239.0	-8290.0	-2899.0
29	17	57	19	478	166.0	-163626.0	-8278.0	-3044.0
29	17	57	19	479	167.0	-163137.0	-8552.0	-3036.0
29	17	57	19	480	168.0	-162691.0	-8402.0	-3434.0
29	17	57	19	480	169.0	-162160.0	-8350.0	-3368.0
29	17	57	19	481	170.0	-162434.0	-8668.0	-3426.0
29	17	57	19	481	171.0	-162841.0	-8586.0	-3463.0
29	17	57	19	501	172.0	-163219.0	-8789.0	-3729.0
29	17	57	19	501	173.0	-164371.0	-8934.0	-4018.0
29	17	57	19	502	174.0	-165974.0	-8818.0	-4002.0
29	17	57	19	503	175.0	-167477.0	-8779.0	-4016.0
29	17	57	19	503	176.0	-169016.0	-9036.0	-4437.0
29	17	57	19	504	177.0	-170788.0	-9554.0	-4523.0
29	17	57	19	505	178.0	-172338.0	-9241.0	-4454.0
29	17	57	19	505	179.0	-174137.0	-8742.0	-4699.0
29	17	57	19	506	180.0	-176326.0	-8466.0	-4236.0
29	17	57	19	506	181.0	-178249.0	-8557.0	-3935.0
29	17	57	19	507	182.0	-180120.0	-8676.0	-4361.0
29	17	57	19	508	183.0	-182192.0	-8718.0	-4646.0
29	17	57	19	508	184.0	-184131.0	-8418.0	-4142.0
29	17	57	19	509	185.0	-186024.0	-8210.0	-3784.0
29	17	57	19	509	186.0	-187563.0	-7836.0	-3574.0
29	17	57	19	524	187.0	-189352.0	-8102.0	-2952.0
29	17	57	19	524	188.0	-190979.0	-8674.0	-2296.0
29	17	57	19	525	189.0	-192342.0	-8295.0	-2266.0
29	17	57	19	526	190.0	-193162.0	-8002.0	-2745.0
29	17	57	19	526	191.0	-194096.0	-8031.0	-2930.0
29	17	57	19	527	192.0	-195912.0	-7776.0	-2972.0
29	17	57	19	527	193.0	-197624.0	-8061.0	-2629.0
29	17	57	19	528	194.0	-199296.0	-7567.0	-2242.0
29	17	57	19	547	195.0	-201257.0	-7230.0	-1792.0
29	17	57	19	548	196.0	-202936.0	-7575.0	-1136.0
29	17	57	19	549	197.0	-204211.0	-7602.0	-562.0
29	17	57	19	549	198.0	-205459.0	-7665.0	-451.0
29	17	57	19	550	199.0	-206124.0	-7407.0	-508.0
29	17	57	19	551	200.0	-206444.0	-7272.0	-137.0
29	17	57	19	551	201.0	-206947.0	-7082.0	5.0
29	17	57	19	552	202.0	-207752.0	-6846.0	246.0
29	17	57	19	552	203.0	-208702.0	-6775.0	1024.0
29	17	57	19	553	204.0	-210576.0	-6670.0	1992.0
29	17	57	19	554	205.0	-212589.0	-6625.0	2033.0
29	17	57	19	554	206.0	-215304.0	-6533.0	1496.0
29	17	57	19	555	207.0	-218409.0	-6149.0	2438.0
29	17	57	19	555	208.0	-220307.0	-6100.0	3441.0
29	17	57	19	556	209.0	-221855.0	-6057.0	4105.0
29	17	57	19	569	210.0	-223975.0	-5909.0	4416.0
29	17	57	19	569	211.0	-226231.0	-5677.0	4821.0
29	17	57	19	570	212.0	-227929.0	-5502.0	4740.0
29	17	57	19	571	213.0	-230422.0	-5470.0	4751.0
29	17	57	19	571	214.0	-233581.0	-5257.0	4879.0
29	17	57	19	572	215.0	-236339.0	-5027.0	4981.0
29	17	57	19	572	216.0	-238715.0	-5084.0	5320.0
29	17	57	19	593	217.0	-239358.0	-5399.0	5441.0
29	17	57	19	594	218.0	-238531.0	-5136.0	5785.0
29	17	57	19	594	219.0	-236401.0	-4855.0	5961.0
29	17	57	19	595	220.0	-232389.0	-4380.0	5806.0
29	17	57	19	596	221.0	-226646.0	-4516.0	5778.0
29	17	57	19	596	222.0	-217356.0	-4936.0	5598.0
29	17	57	19	597	223.0	-196665.0	-4678.0	5270.0
29	17	57	19	598	224.0	-165620.0	-4492.0	5008.0
29	17	57	19	598	225.0	-147535.0	-5014.0	4975.0
29	17	57	19	599	226.0	-156927.0	-4897.0	5330.0
29	17	57	19	599	227.0	-170437.0	-4053.0	5308.0
29	17	57	19	600	228.0	-184207.0	-4549.0	5706.0
29	17	57	19	601	229.0	-208350.0	-4752.0	6561.0
29	17	57	19	601	230.0	-224088.0	-4577.0	7119.0
29	17	57	19	602	231.0	-237418.0	-4721.0	7263.0
29	17	57	19	616	232.0	-249613.0	-4441.0	7097.0
29	17	57	19	616	233.0	-255825.0	-4082.0	7161.0
29	17	57	19	617	234.0	-255671.0	-4184.0	6739.0
29	17	57	19	618	235.0	-254094.0	-4209.0	6336.0
29	17	57	19	618	236.0	-249026.0	-4339.0	6179.0
29	17	57	19	619	237.0	-240123.0	-4466.0	6421.0
29	17	57	19	619	238.0	-230998.0	-4049.0	6408.0
29	17	57	19	620	239.0	-223589.0	-3739.0	6286.0
29	17	57	19	639	240.0	-217297.0	-4121.0	6388.0
29	17	57	19	640	241.0	-212359.0	-3941.0	6529.0
29	17	57	19	640	242.0	-207911.0	-3947.0	6591.0
29	17	57	19	641	243.0	-202128.0	-4136.0	6334.0
29	17	57	19	642	244.0	-193357.0	-3706.0	6236.0
29	17	57	19	642	245.0	-178512.0	-3896.0	5554.0
29	17	57	19	643	246.0	-165401.0	-4197.0	5015.0
29	17	57	19	643	247.0	-163050.0	-3701.0	5466.0
29	17	57	19	644	248.0	-172267.0	-3627.0	5704.0
29	17	57	19	645	249.0	-186974.0	-3681.0	5484.0
29	17	57	19	645	250.0	-199286.0	-3756.0	5471.0
29	17	57	19	646	251.0	-203750.0	-3746.0	5561.0
29	17	57	19	646	252.0	-203819.0	-3814.0	5478.0
29	17	57	19	647	253.0	-204073.0	-3854.0	5727.0
29	17	57	19	648	254.0	-204174.0	-3936.0	6295.0
29	17	57	19	662	255.0	-204776.0	-3951.0	6672.0
29	17	57	19	663	0.0	-206883.0	-4245.0	6752.0
29	17	57	19	663	1.0	-210272.0	-3904.0	6327.0
29	17	57	19	664	2.0	-213741.0	-3251.0	6293.0
29	17	57	19	665	3.0	-217441.0	-3869.0	6450.0
29	17	57	19	665	4.0	-219579.0	-4207.0	6257.0
29	17	57	19	666	5.0	-220710.0	-4241.0	5999.0
29	17	57	19	685	6.0	-221732.0	-3946.0	5929.0
29	17	57	19	686	7.0	-222342.0	-3911.0	5904.0
29	17	57	19	686	8.0	-221952.0	-4079.0	5506.0
29	17	57	19	687	9.0	-221034.0	-4049.0	5292.0
29	17	57	19	688	10.0	-220622.0	-4236.0	5363.0
29	17	57	19	688	11.0	-221263.0	-4335.0	5614.0
29	17	57	19	689	12.0	-222072.0	-4009.0	5361.0
29	17	57	19	689	13.0	-222026.0	-3950.0	5182.0
29	17	57	19	690	14.0	-222416.0	-3641.0	5080.0
29	17	57	19	691	15.0	-222574.0	-3756.0	5351.0
29	17	57	19	691	16.0	-223557.0	-4026.0	5884.0
29	17	57	19	692	17.0	-224928.0	-4168.0	6630.0
29	17	57	19	692	18.0	-225566.0	-4108.0	6990.0
29	17	57	19	693	19.0	-226439.0	-4221.0	6228.0
29	17	57	19	694	20.0	-227290.0	-3514.0	5317.0
29	17	57	19	709	21.0	-228616.0	-3628.0	5478.0
29	17	57	19	709	22.0	-230603.0	-4134.0	6359.0
29	17	57	19	710	23.0	-232179.0	-4248.0	6735.0
29	17	57	19	710	24.0	-233436.0	-4344.0	6869.0
29	17	57	19	711	25.0	-234352.0	-4596.0	7545.0
29	17	57	19	712	26.0	-235477.0	-4177.0	7294.0
29	17	57	19	712	27.0	-236669.0	-4043.0	6978.0
29	17	57	19	713	28.0	-238195.0	-4262.0	6683.0
29	17	57	19	714	29.0	-239792.0	-4430.0	6184.0
29	17	57	19	714	30.0	-240894.0	-4216.0	6028.0
29	17	57	19	715	31.0	-241758.0	-4199.0	6349.0
29	17	57	19	716	32.0	-241147.0	-4320.0	6229.0
29	17	57	19	716	33.0	-239908.0	-4657.0	6044.0
29	17	57	19	717	34.0	-238257.0	-5023.0	5787.0
29	17	57	19	717	35.0	-236622.0	-4992.0	5954.0
29	17	57	19	731	36.0	-235017.0	-5026.0	5965.0
29	17	57	19	732	37.0	-234056.0	-5421.0	6074.0
29	17	57	19	732	38.0	-232982.0	-5045.0	6687.0
29	17	57	19	733	39.0	-232400.0	-4282.0	6826.0
29	17	57	19	733	40.0	-231763.0	-5041.0	7042.0
29	17	57	19	734	41.0	-231504.0	-5106.0	7211.0
29	17	57	19	735	42.0	-230997.0	-4789.0	7103.0
29	17	57	19	735	43.0	-230148.0	-4859.0	6943.0
29	17	57	19	756	44.0	-229474.0	-4965.0	6981.0
29	17	57	19	756	45.0	-229252.0	-5227.0	6442.0
29	17	57	19	757	46.0	-229037.0	-5209.0	6118.0
29	17	57	19	758	47.0	-228898.0	-5203.0	6378.0
29	17	57	19	758	48.0	-228737.0	-5478.0	5619.0
29	17	57	19	759	49.0	-228824.0	-5414.0	5099.0
29	17	57	19	760	50.0	-228857.0	-5218.0	5251.0
29	17	57	19	760	51.0	-228834.0	-5247.0	5606.0
29	17	57	19	761	52.0	-229035.0	-4839.0	5629.0
29	17	57	19	762	53.0	-229154.0	-4997.0	5537.0
29	17	57	19	762	54.0	-229061.0	-5337.0	5623.0
29	17	57	19	763	55.0	-228724.0	-5317.0	5623.0
29	17	57	19	763	56.0	-228251.0	-5452.0	5475.0
29	17	57	19	764	57.0	-227417.0	-4989.0	5401.0
29	17	57	19	765	58.0	-226028.0	-4917.0	5685.0
29	17	57	19	777	59.0	-224651.0	-5103.0	5861.0
29	17	57	19	778	60.0	-223386.0	-5607.0	5969.0
29	17	57	19	778	61.0	-222037.0	-5996.0	6454.0
29	17	57	19	779	62.0	-221731.0	-5517.0	6454.0
29	17	57	19	780	63.0	-222061.0	-5550.0	5974.0
29	17	57	19	780	64.0	-222489.0	-5702.0	5496.0
29	17	57	19	781	65.0	-223072.0	-5946.0	4854.0
29	17	57	19	803	66.0	-222859.0	-6054.0	5110.0
29	17	57	19	804	67.0	-222899.0	-6065.0	5172.0
29	17	57	19	804	68.0	-223146.0	-5789.0	5999.0
29	17	57	19	805	69.0	-223413.0	-5457.0	6451.0
29	17	57	19	805	70.0	-223961.0	-5669.0	6660.0
29	17	57	19	806	71.0	-225786.0	-6209.0	7176.0
29	17	57	19	807	72.0	-227507.0	-6259.0	6745.0
29	17	57	19	807	73.0	-229392.0	-6352.0	6349.0
29	17	57	19	808	74.0	-231354.0	-6344.0	6090.0
29	17	57	19	808	75.0	-233031.0	-6129.0	6384.0
29	17	57	19	809	76.0	-234982.0	-6076.0	6625.0
29	17	57	19	809	77.0	-236721.0	-6482.0	6774.0
29	17	57	19	810	78.0	-238094.0	-6077.0	6802.0
29	17	57	19	810	79.0	-238246.0	-5891.0	6209.0
29	17	57	19	811	80.0	-237379.0	-5687.0	6121.0
29	17	57	19	831	81.0	-236962.0	-5945.0	6291.0
29	17	57	19	831	82.0	-236127.0	-6144.0	6861.0
29	17	57	19	832	83.0	-234924.0	-5734.0	7374.0
29	17	57	19	833	84.0	-234202.0	-6003.0	7652.0
29	17	57	19	833	85.0	-233212.0	-6092.0	7514.0
29	17	57	19	834	86.0	-232707.0	-5563.0	7425.0
29	17	57	19	834	87.0	-232704.0	-5273.0	7422.0
29	17	57	19	835	88.0	-233338.0	-5317.0	7934.0
29	17	57	19	836	89.0	-233947.0	-5805.0	7776.0
29	17	57	19	836	90.0	-233551.0	-5960.0	7529.0
29	17	57	19	837	91.0	-233652.0	-6357.0	7811.0
29	17	57	19	837	92.0	-234362.0	-6424.0	8209.0
29	17	57	19	838	93.0	-234404.0	-6257.0	7928.0
29	17	57	19	838	94.0	-233504.0	-6424.0	7716.0
29	17	57	19	839	95.0	-231781.0	-6414.0	7764.0
29	17	57	19	854	96.0	-229761.0	-5959.0	7480.0
29	17	57	19	855	97.0	-228338.0	-6412.0	7757.0
29	17	57	19	855	98.0	-227014.0	-6496.0	8815.0
29	17	57	19	856	99.0	-224562.0	-6495.0	9336.0
29	17	57	19	857	100.0	-221220.0	-5967.0	9321.0
29	17	57	19	857	101.0	-217897.0	-6065.0	9115.0
29	17	57	19	858	102.0	-214531.0	-5882.0	8841.0
29	17	57	19	878	103.0	-211317.0	-6121.0	8024.0
29	17	57	19	878	104.0	-208112.0	-5957.0	7530.0
29	17	57	19	879	105.0	-204688.0	-5808.0	7361.0
29	17	57	19	879	106.0	-202136.0	-6113.0	7671.0
29	17	57	19	880	107.0	-200119.0	-6494.0	7451.0
29	17	57	19	881	108.0	-198846.0	-6976.0	7089.0
29	17	57	19	881	109.0	-197879.0	-6794.0	6859.0
29	17	57	19	882	110.0	-197618.0	-6942.0	6813.0
29	17	57	19	882	111.0	-197842.0	-6644.0	7255.0
29	17	57	19	883	112.0	-198215.0	-6734.0	7460.0
29	17	57	19	883	113.0	-199431.0	-6991.0	7284.0
29	17	57	19	884	114.0	-200694.0	-6990.0	7132.0
29	17	57	19	884	115.0	-201402.0	-6975.0	7016.0
29	17	57	19	885	116.0	-202244.0	-7031.0	6641.0
29	17	57	19	886	117.0	-202564.0	-6690.0	6371.0
29	17	57	19	901	118.0	-202096.0	-6686.0	6892.0
29	17	57	19	901	119.0	-201473.0	-7295.0	6724.0
29	17	57	19	902	120.0	-200647.0	-7642.0	6931.0
29	17	57	19	902	121.0	-199852.0	-7226.0	7259.0
29	17	57	19	903	122.0	-199096.0	-7524.0	6364.0
29	17	57	19	904	123.0	-197476.0	-7310.0	4861.0
29	17	57	19	904	124.0	-195770.0	-7122.0	2876.0
29	17	57	19	905	125.0	-194615.0	-6791.0	1729.0
29	17	57	19	924	126.0	-193939.0	-6951.0	-930.0
29	17	57	19	925	127.0	-194429.0	-6831.0	-4695.0
29	17	57	19	926	128.0	-195369.0	-6478.0	-7973.0
29	17	57	19	926	129.0	-196294.0	-7103.0	-11256.0
29	17	57	19	927	130.0	-197339.0	-7373.0	-13389.0
29	17	57	19	927	131.0	-198704.0	-7473.0	-14106.0
29	17	57	19	928	132.0	-200184.0	-7771.0	-12591.0
29	17	57	19	928	133.0	-201717.0	-7609.0	-9991.0
29	17	57	19	929	134.0	-202978.0	-7474.0	-10294.0
29	17	57	19	930	135.0	-204053.0	-7549.0	-10875.0
29	17	57	19	930	136.0	-204959.0	-7839.0	-10180.0
29	17	57	19	931	137.0	-205635.0	-7796.0	-7682.0
29	17	57	19	931	138.0	-206027.0	-7847.0	-3550.0
29	17	57	19	932	139.0	-206789.0	-7974.0	2495.0
29	17	57	19	932	140.0	-208038.0	-7979.0	8422.0
29	17	57	19	947	141.0	-210706.0	-7749.0	14119.0
29	17	57	19	948	142.0	-215191.0	-7319.0	20449.0
29	17	57	19	948	143.0	-222593.0	-7864.0	25260.0
29	17	57	19	949	144.0	-232546.0	-8384.0	24490.0
29	17	57	19	949	145.0	-244249.0	-8274.0	21248.0
29	17	57	19	950	146.0	-256498.0	-8322.0	16638.0
29	17	57	19	951	147.0	-266623.0	-8607.0	12044.0
29	17	57	19	970	148.0	-271111.0	-8625.0	8003.0
29	17	57	19	971	149.0	-268637.0	-8444.0	5419.0
29	17	57	19	971	150.0	-259236.0	-8446.0	4628.0
29	17	57	19	972	151.0	-243260.0	-8362.0	4552.0
29	17	57	19	972	152.0	-225641.0	-7828.0	4876.0
29	17	57	19	973	153.0	-209070.0	-8447.0	4713.0
29	17	57	19	973	154.0	-195114.0	-8878.0	4029.0
29	17	57	19	974	155.0	-186101.0	-9181.0	3925.0
29	17	57	19	975	156.0	-184143.0	-9686.0	3325.0
29	17	57	19	975	157.0	-187667.0	-9082.0	2821.0
29	17	57	19	976	158.0	-193059.0	-8961.0	2878.0
29	17	57	19	976	159.0	-200341.0	-9087.0	3003.0
29	17	57	19	977	160.0	-213862.0	-8961.0	2862.0
29	17	57	19	977	161.0	-233084.0	-9305.0	2609.0
29	17	57	19	978	162.0	-251843.0	-10221.0	2594.0
29	17	57	19	993	163.0	-265347.0	-9311.0	2433.0
29	17	57	19	993	164.0	-272583.0	-9074.0	2186.0
29	17	57	19	994	165.0	-271745.0	-9071.0	1691.0
29	17	57	19	994	166.0	-263722.0	-8919.0	1316.0
29	17	57	19	995	167.0	-251839.0	-9031.0	1124.0
29	17	57	19	996	168.0	-239169.0	-9082.0	1734.0
29	17	57	19	997	169.0	-227691.0	-9243.0	2724.0
29	17	57	19	997	170.0	-218604.0	-9492.0	2567.0
29	17	57	20	16	171.0	-212139.0	-9447.0	1993.0
29	17	57	20	16	172.0	-208989.0	-9813.0	1593.0
29	17	57	20	17	173.0	-208040.0	-10439.0	786.0
