29	17	30	17	578	106.0	-276349.0	6496.0	1828467.0
29	17	30	17	581	107.0	-281871.0	6503.0	1824732.0
29	17	30	17	583	108.0	-281853.0	6531.0	1822041.0
29	17	30	17	584	109.0	-274014.0	6561.0	1827018.0
29	17	30	17	585	110.0	-275149.0	6568.0	1833863.0
29	17	30	17	587	111.0	-277860.0	6592.0	1822198.0
29	17	30	17	588	112.0	-272529.0	6608.0	1807883.0
29	17	30	17	591	113.0	-267557.0	6617.0	1795732.0
29	17	30	17	592	114.0	-271336.0	6653.0	1800577.0
29	17	30	17	594	115.0	-268487.0	6683.0	1813807.0
29	17	30	17	596	116.0	-258769.0	6702.0	1812206.0
29	17	30	17	597	117.0	-260306.0	6723.0	1805061.0
29	17	30	17	599	118.0	-260462.0	6739.0	1796482.0
29	17	30	17	600	119.0	-252562.0	6766.0	1795556.0
29	17	30	17	602	120.0	-248171.0	6788.0	1795958.0
29	17	30	17	603	121.0	-251011.0	6791.0	1776238.0
29	17	30	17	604	122.0	-248290.0	6804.0	1753353.0
29	17	30	17	605	123.0	-239630.0	6828.0	1736684.0
29	17	30	17	606	124.0	-243140.0	6856.0	1742634.0
29	17	30	17	607	125.0	-243898.0	6867.0	1759254.0
29	17	30	17	608	126.0	-236994.0	6872.0	1761044.0
29	17	30	17	609	127.0	-234284.0	6887.0	1754749.0
29	17	30	17	610	128.0	-237415.0	6916.0	1747472.0
29	17	30	17	702	129.0	-234237.0	6929.0	1749599.0
29	17	30	17	703	130.0	-225451.0	6929.0	1755046.0
29	17	30	17	704	131.0	-228969.0	6956.0	1743227.0
29	17	30	17	705	132.0	-229572.0	6963.0	1727744.0
29	17	30	17	706	133.0	-222189.0	6978.0	1715109.0
29	17	30	17	708	134.0	-219899.0	6993.0	1725540.0
29	17	30	17	709	135.0	-225177.0	6983.0	1746216.0
29	17	30	17	710	136.0	-225292.0	7001.0	1748336.0
29	17	30	17	711	137.0	-220330.0	7011.0	1741941.0
29	17	30	17	713	138.0	-228878.0	7014.0	1735089.0
29	17	30	17	715	139.0	-236130.0	7047.0	1734472.0
29	17	30	17	717	140.0	-236964.0	7054.0	1734278.0
29	17	30	17	718	141.0	-244430.0	7050.0	1717808.0
29	17	30	17	719	142.0	-259534.0	7074.0	1697866.0
29	17	30	17	720	143.0	-268395.0	7097.0	1684093.0
29	17	30	17	722	155.0	-326270.0	7197.0	1702538.0
29	17	30	17	723	177.0	-277315.0	7323.0	1672601.0
29	17	30	17	724	178.0	-280657.0	7350.0	1663491.0
29	17	30	17	725	179.0	-276657.0	7358.0	1662676.0
29	17	30	17	727	180.0	-277640.0	7369.0	1661179.0
29	17	30	17	728	181.0	-284837.0	7402.0	1646900.0
29	17	30	17	730	182.0	-287982.0	7419.0	1631986.0
29	17	30	17	731	183.0	-286044.0	7443.0	1622416.0
29	17	30	17	748	184.0	-295464.0	7470.0	1630578.0
29	17	30	17	749	185.0	-303747.0	7473.0	1643488.0
29	17	30	17	751	186.0	-304312.0	7481.0	1644861.0
29	17	30	17	752	187.0	-309549.0	7497.0	1642093.0
29	17	30	17	754	188.0	-320394.0	7496.0	1638318.0
29	17	30	17	755	189.0	-326057.0	7511.0	1643836.0
29	17	30	17	757	190.0	-326692.0	7496.0	1652919.0
29	17	30	17	758	191.0	-337780.0	7509.0	1649766.0
29	17	30	17	760	192.0	-345694.0	7524.0	1645161.0
29	17	30	17	761	193.0	-344801.0	7531.0	1645521.0
29	17	30	17	763	194.0	-349579.0	7550.0	1663973.0
29	17	30	17	765	195.0	-358012.0	7556.0	1683141.0
29	17	30	17	766	196.0	-360224.0	7558.0	1684800.0
29	17	30	17	768	197.0	-357494.0	7557.0	1682068.0
29	17	30	17	769	198.0	-364711.0	7578.0	1678589.0
29	17	30	17	771	200.0	-363260.0	7601.0	1683401.0
29	17	30	17	772	201.0	-364848.0	7621.0	1668367.0
29	17	30	17	774	202.0	-368292.0	7641.0	1654239.0
29	17	30	17	775	203.0	-363936.0	7669.0	1647394.0
29	17	30	17	777	204.0	-355601.0	7694.0	1660562.0
29	17	30	17	779	205.0	-356826.0	7714.0	1675554.0
29	17	30	17	794	206.0	-353569.0	7749.0	1674993.0
29	17	30	17	797	207.0	-342322.0	7760.0	1669431.0
29	17	30	17	799	208.0	-340181.0	7773.0	1662365.0
29	17	30	17	800	209.0	-340079.0	7778.0	1664093.0
29	17	30	17	801	210.0	-332925.0	7789.0	1662684.0
29	17	30	17	803	211.0	-327473.0	7798.0	1649954.0
29	17	30	17	804	212.0	-330929.0	7818.0	1635996.0
29	17	30	17	805	213.0	-327726.0	7811.0	1629384.0
29	17	30	17	806	214.0	-317799.0	7814.0	1642958.0
29	17	30	17	807	215.0	-318693.0	7833.0	1658150.0
29	17	30	17	809	216.0	-317711.0	7845.0	1658826.0
29	17	30	17	810	217.0	-308497.0	7849.0	1656228.0
29	17	30	17	811	218.0	-304537.0	7854.0	1651646.0
29	17	30	17	812	219.0	-304294.0	7854.0	1657077.0
29	17	30	17	813	220.0	-296657.0	7855.0	1659758.0
29	17	30	17	814	222.0	-291759.0	7873.0	1638241.0
29	17	30	17	814	223.0	-288654.0	7893.0	1634726.0
29	17	30	17	815	224.0	-280064.0	7916.0	1652176.0
29	17	30	17	815	225.0	-280230.0	7914.0	1667429.0
29	17	30	17	816	226.0	-281557.0	7914.0	1667513.0
29	17	30	17	816	227.0	-274853.0	7937.0	1667168.0
29	17	30	17	837	228.0	-271226.0	7941.0	1676203.0
29	17	30	17	838	229.0	-274271.0	7952.0	1696783.0
29	17	30	17	838	230.0	-269134.0	7954.0	1709852.0
29	17	30	17	839	231.0	-260549.0	7958.0	1704535.0
29	17	30	17	839	232.0	-261479.0	7962.0	1696484.0
29	17	30	17	840	233.0	-260672.0	7962.0	1695444.0
29	17	30	17	840	234.0	-252959.0	7943.0	1712063.0
29	17	30	17	841	235.0	-251056.0	7941.0	1726491.0
29	17	30	17	841	236.0	-252791.0	7944.0	1726928.0
29	17	30	17	849	237.0	-246196.0	7943.0	1720273.0
29	17	30	17	849	238.0	-239672.0	7957.0	1710527.0
29	17	30	17	850	239.0	-240672.0	7943.0	1712996.0
29	17	30	17	850	240.0	-236241.0	7924.0	1710096.0
29	17	30	17	850	241.0	-227560.0	7930.0	1692729.0
29	17	30	17	851	242.0	-224412.0	7922.0	1679066.0
29	17	30	17	851	245.0	-211959.0	7919.0	1705366.0
29	17	30	17	851	246.0	-212616.0	7912.0	1702148.0
29	17	30	17	852	247.0	-209127.0	7921.0	1697233.0
29	17	30	17	852	248.0	-203570.0	7927.0	1694962.0
29	17	30	17	853	249.0	-202504.0	7938.0	1701816.0
29	17	30	17	853	250.0	-201377.0	7935.0	1699411.0
29	17	30	17	882	251.0	-197026.0	7948.0	1682606.0
29	17	30	17	882	252.0	-196107.0	7958.0	1667698.0
29	17	30	17	883	253.0	-198095.0	7958.0	1662854.0
29	17	30	17	884	254.0	-194943.0	7955.0	1678971.0
29	17	30	17	885	255.0	-189443.0	7945.0	1691727.0
29	17	30	17	885	0.0	-186838.0	7931.0	1688883.0
29	17	30	17	886	1.0	-183642.0	7917.0	1682054.0
29	17	30	17	887	2.0	-179046.0	7926.0	1677483.0
29	17	30	17	888	3.0	-176978.0	7915.0	1684796.0
29	17	30	17	888	4.0	-174722.0	7888.0	1683811.0
29	17	30	17	888	5.0	-162064.0	7890.0	1668416.0
29	17	30	17	889	6.0	-148489.0	7887.0	1655038.0
29	17	30	17	889	7.0	-144376.0	7881.0	1650271.0
29	17	30	17	890	8.0	-140172.0	7885.0	1666046.0
29	17	30	17	890	9.0	-131979.0	7850.0	1678032.0
29	17	30	17	890	11.0	-121427.0	7833.0	1669819.0
29	17	30	17	891	12.0	-114027.0	7841.0	1665614.0
29	17	30	17	891	13.0	-105077.0	7851.0	1672430.0
29	17	30	17	892	14.0	-97907.0	7854.0	1671649.0
29	17	30	17	892	15.0	-89709.0	7848.0	1658314.0
29	17	30	17	901	16.0	-79156.0	7842.0	1644544.0
29	17	30	17	926	17.0	-69385.0	7845.0	1636225.0
29	17	30	17	927	18.0	-61332.0	7848.0	1647042.0
29	17	30	17	949	19.0	-53116.0	7851.0	1653269.0
29	17	30	17	949	20.0	-45733.0	7842.0	1645809.0
29	17	30	17	950	21.0	-41016.0	7824.0	1636150.0
29	17	30	17	950	22.0	-37346.0	7815.0	1628834.0
29	17	30	17	951	23.0	-34581.0	7819.0	1632623.0
29	17	30	17	951	24.0	-33234.0	7790.0	1631154.0
29	17	30	17	952	25.0	-32857.0	7761.0	1617863.0
29	17	30	17	952	26.0	-33489.0	7754.0	1604883.0
29	17	30	17	952	27.0	-34347.0	7760.0	1600634.0
29	17	30	17	953	28.0	-35058.0	7758.0	1615564.0
29	17	30	17	953	29.0	-35146.0	7749.0	1627570.0
29	17	30	17	954	30.0	-35243.0	7715.0	1626924.0
29	17	30	17	954	31.0	-35119.0	7694.0	1621304.0
29	17	30	17	954	33.0	-32005.0	7696.0	1630267.0
29	17	30	17	955	34.0	-29665.0	7672.0	1631841.0
29	17	30	17	955	35.0	-26869.0	7656.0	1616503.0
29	17	30	17	956	36.0	-23413.0	7651.0	1601839.0
29	17	30	17	956	37.0	-19179.0	7660.0	1597433.0
29	17	30	17	957	38.0	-13788.0	7659.0	1611572.0
29	17	30	17	957	39.0	-7702.0	7638.0	1623187.0
29	17	30	17	972	40.0	-1982.0	7648.0	1623409.0
29	17	30	17	973	41.0	2715.0	7631.0	1621290.0
29	17	30	17	974	42.0	6819.0	7621.0	1619889.0
29	17	30	17	975	43.0	10703.0	7614.0	1627905.0
29	17	30	17	975	44.0	14393.0	7564.0	1625559.0
29	17	30	17	976	45.0	17389.0	7536.0	1613656.0
29	17	30	17	976	46.0	18988.0	7526.0	1603081.0
29	17	30	17	977	47.0	19461.0	7507.0	1602138.0
29	17	30	17	977	48.0	19248.0	7498.0	1620592.0
29	17	30	17	978	49.0	18939.0	7475.0	1633990.0
29	17	30	17	978	50.0	18264.0	7456.0	1633833.0
29	17	30	17	979	51.0	17833.0	7446.0	1637135.0
29	17	30	17	979	52.0	18143.0	7411.0	1647244.0
29	17	30	17	980	53.0	19244.0	7397.0	1664018.0
29	17	30	17	980	54.0	20346.0	7358.0	1666572.0
29	17	30	17	981	56.0	22623.0	7303.0	1644285.0
29	17	30	17	981	57.0	22986.0	7288.0	1642668.0
29	17	30	17	982	58.0	22561.0	7279.0	1656528.0
29	17	30	17	982	59.0	21784.0	7264.0	1662529.0
29	17	30	17	983	60.0	20551.0	7249.0	1655458.0
29	17	30	17	983	61.0	18788.0	7241.0	1644657.0
29	17	30	18	16	62.0	16524.0	7218.0	1634881.0
29	17	30	18	17	63.0	12958.0	7218.0	1636268.0
29	17	30	18	18	64.0	7993.0	7189.0	1628598.0
29	17	30	18	18	65.0	1989.0	7183.0	1608639.0
29	17	30	18	19	66.0	-3641.0	7158.0	1590469.0
29	17	30	18	19	67.0	-9582.0	7124.0	1584174.0
29	17	30	18	20	68.0	-16502.0	7106.0	1596856.0
29	17	30	18	20	69.0	-24107.0	7085.0	1603425.0
29	17	30	18	21	70.0	-31766.0	7059.0	1597796.0
29	17	30	18	62	71.0	-39327.0	7034.0	1589919.0
29	17	30	18	62	72.0	-47067.0	7001.0	1584002.0
29	17	30	18	63	73.0	-55065.0	6973.0	1590261.0
29	17	30	18	63	74.0	-62892.0	6937.0	1586409.0
29	17	30	18	64	75.0	-70124.0	6924.0	1571592.0
29	17	30	18	65	76.0	-76506.0	6909.0	1559016.0
29	17	30	18	66	78.0	-86997.0	6863.0	1572460.0
29	17	30	18	67	79.0	-91974.0	6825.0	1585013.0
29	17	30	18	67	80.0	-96423.0	6811.0	1585813.0
29	17	30	18	68	81.0	-98901.0	6795.0	1582685.0
29	17	30	18	69	82.0	-99956.0	6786.0	1581344.0
29	17	30	18	70	83.0	-100309.0	6779.0	1590902.0
29	17	30	18	71	84.0	-99937.0	6741.0	1588223.0
29	17	30	18	71	85.0	-99096.0	6709.0	1573837.0
29	17	30	18	72	86.0	-98376.0	6694.0	1562962.0
29	17	30	18	72	87.0	-97932.0	6681.0	1563495.0
29	17	30	18	73	101.0	-126898.0	6308.0	1484162.0
29	17	30	18	73	102.0	-125297.0	6297.0	1471832.0
29	17	30	18	73	103.0	-122904.0	6289.0	1471268.0
29	17	30	18	74	104.0	-121264.0	6260.0	1463932.0
29	17	30	18	74	105.0	-119591.0	6257.0	1451503.0
29	17	30	18	75	106.0	-118347.0	6261.0	1446115.0
29	17	30	18	75	107.0	-117951.0	6263.0	1454704.0
29	17	30	18	107	108.0	-118239.0	6245.0	1481778.0
29	17	30	18	108	109.0	-118740.0	6216.0	1499843.0
29	17	30	18	108	110.0	-120017.0	6218.0	1508661.0
29	17	30	18	109	111.0	-122106.0	6179.0	1517486.0
29	17	30	18	109	112.0	-124214.0	6156.0	1524926.0
29	17	30	18	110	113.0	-129017.0	6128.0	1536139.0
29	17	30	18	110	114.0	-135156.0	6110.0	1531830.0
29	17	30	18	111	115.0	-139619.0	6082.0	1517098.0
29	17	30	18	112	116.0	-144076.0	6046.0	1504078.0
29	17	30	18	112	117.0	-145236.0	6028.0	1504824.0
29	17	30	18	113	118.0	-143060.0	5998.0	1523752.0
29	17	30	18	113	119.0	-142842.0	5958.0	1535318.0
29	17	30	18	114	120.0	-142599.0	5926.0	1534472.0
29	17	30	18	114	121.0	-145202.0	5904.0	1528271.0
29	17	30	18	115	122.0	-150014.0	5871.0	1521284.0
29	17	30	18	115	123.0	-157803.0	5873.0	1524191.0
29	17	30	18	116	124.0	-168254.0	5858.0	1515115.0
29	17	30	18	117	125.0	-179233.0	5826.0	1497334.0
29	17	30	18	152	126.0	-189834.0	5816.0	1483621.0
29	17	30	18	153	127.0	-198530.0	5807.0	1483929.0
29	17	30	18	154	128.0	-204196.0	5781.0	1500549.0
29	17	30	18	154	129.0	-206407.0	5779.0	1508497.0
29	17	30	18	155	130.0	-205932.0	5771.0	1510416.0
29	17	30	18	156	131.0	-203761.0	5742.0	1511374.0
29	17	30	18	156	132.0	-201055.0	5701.0	1513079.0
29	17	30	18	157	133.0	-196933.0	5697.0	1519516.0
29	17	30	18	157	134.0	-186276.0	5651.0	1511016.0
29	17	30	18	196	135.0	-171641.0	5619.0	1492779.0
29	17	30	18	197	136.0	-163218.0	5603.0	1476831.0
29	17	30	18	197	137.0	-160712.0	5590.0	1474872.0
29	17	30	18	198	138.0	-154120.0	5568.0	1488793.0
29	17	30	18	198	139.0	-143553.0	5546.0	1491204.0
29	17	30	18	199	140.0	-138957.0	5525.0	1482358.0
29	17	30	18	199	141.0	-142434.0	5500.0	1472288.0
29	17	30	18	200	146.0	-187484.0	5379.0	1432094.0
29	17	30	18	201	147.0	-192477.0	5369.0	1432877.0
29	17	30	18	201	148.0	-192077.0	5346.0	1449489.0
29	17	30	18	202	149.0	-189619.0	5334.0	1455183.0
29	17	30	18	203	150.0	-186324.0	5325.0	1449189.0
29	17	30	18	203	151.0	-182569.0	5266.0	1440597.0
29	17	30	18	204	152.0	-180349.0	5230.0	1435575.0
29	17	30	18	204	153.0	-179443.0	5208.0	1440846.0
29	17	30	18	205	154.0	-180195.0	5181.0	1432573.0
29	17	30	18	206	169.0	-186179.0	4781.0	1438521.0
29	17	30	18	206	170.0	-181487.0	4769.0	1432935.0
29	17	30	18	207	171.0	-177147.0	4766.0	1423796.0
29	17	30	18	207	172.0	-174374.0	4730.0	1419019.0
29	17	30	18	208	173.0	-171971.0	4724.0	1424348.0
29	17	30	18	208	174.0	-171219.0	4698.0	1418453.0
29	17	30	18	241	175.0	-173804.0	4678.0	1409308.0
29	17	30	18	242	176.0	-178466.0	4683.0	1404114.0
29	17	30	18	243	177.0	-183054.0	4658.0	1411901.0
29	17	30	18	243	178.0	-186852.0	4601.0	1431206.0
29	17	30	18	244	179.0	-189842.0	4576.0	1436591.0
29	17	30	18	244	180.0	-192210.0	4571.0	1431617.0
29	17	30	18	245	181.0	-195274.0	4543.0	1424290.0
29	17	30	18	245	182.0	-198152.0	4521.0	1421493.0
29	17	30	18	246	183.0	-200566.0	4489.0	1426676.0
29	17	30	18	246	184.0	-202099.0	4456.0	1417698.0
29	17	30	18	247	185.0	-201606.0	4444.0	1403529.0
29	17	30	18	247	186.0	-200072.0	4408.0	1392561.0
29	17	30	18	248	187.0	-199056.0	4394.0	1395117.0
29	17	30	18	248	188.0	-197175.0	4376.0	1410854.0
29	17	30	18	249	189.0	-194496.0	4341.0	1412062.0
29	17	30	18	249	191.0	-186977.0	4306.0	1391247.0
29	17	30	18	250	192.0	-183044.0	4294.0	1386045.0
29	17	30	18	250	193.0	-179581.0	4288.0	1391636.0
29	17	30	18	251	194.0	-176123.0	4266.0	1385119.0
29	17	30	18	251	195.0	-172901.0	4258.0	1373564.0
29	17	30	18	252	196.0	-169664.0	4238.0	1364921.0
29	17	30	18	332	197.0	-166731.0	4236.0	1372100.0
29	17	30	18	332	198.0	-164016.0	4226.0	1393350.0
29	17	30	18	333	199.0	-160264.0	4193.0	1400392.0
29	17	30	18	334	200.0	-157109.0	4163.0	1394323.0
29	17	30	18	335	201.0	-154558.0	4133.0	1385708.0
29	17	30	18	336	202.0	-151111.0	4128.0	1384056.0
29	17	30	18	336	203.0	-149592.0	4110.0	1389593.0
29	17	30	18	337	204.0	-148816.0	4089.0	1379966.0
29	17	30	18	337	205.0	-148893.0	4073.0	1367189.0
29	17	30	18	338	206.0	-151092.0	4058.0	1357936.0
29	17	30	18	338	207.0	-153345.0	4036.0	1361662.0
29	17	30	18	339	208.0	-155896.0	4007.0	1378181.0
29	17	30	18	340	209.0	-159044.0	3995.0	1384158.0
29	17	30	18	340	210.0	-162574.0	3983.0	1381584.0
29	17	30	18	341	211.0	-166315.0	3963.0	1380049.0
29	17	30	18	341	236.0	-197195.0	3613.0	1300208.0
29	17	30	18	342	237.0	-196372.0	3613.0	1304721.0
29	17	30	18	342	238.0	-195513.0	3625.0	1320843.0
29	17	30	18	343	239.0	-196047.0	3620.0	1323576.0
29	17	30	18	343	240.0	-196392.0	3616.0	1319309.0
29	17	30	18	344	241.0	-196748.0	3616.0	1314343.0
29	17	30	18	422	242.0	-197589.0	3633.0	1314468.0
29	17	30	18	423	243.0	-197766.0	3629.0	1320154.0
29	17	30	18	423	244.0	-197899.0	3609.0	1309316.0
29	17	30	18	424	245.0	-199174.0	3604.0	1294739.0
29	17	30	18	424	246.0	-201276.0	3586.0	1284786.0
29	17	30	18	425	247.0	-204051.0	3581.0	1290363.0
29	17	30	18	426	248.0	-206764.0	3585.0	1307633.0
29	17	30	18	426	249.0	-208875.0	3571.0	1312686.0
29	17	30	18	427	250.0	-211214.0	3548.0	1307362.0
29	17	30	18	427	251.0	-214349.0	3544.0	1299501.0
29	17	30	18	428	252.0	-217943.0	3556.0	1298232.0
29	17	30	18	429	253.0	-221947.0	3543.0	1303151.0
29	17	30	18	429	254.0	-227057.0	3533.0	1292665.0
29	17	30	18	430	255.0	-233036.0	3529.0	1279844.0
29	17	30	18	431	0.0	-239197.0	3522.0	1270892.0
29	17	30	18	431	2.0	-252967.0	3529.0	1293253.0
29	17	30	18	432	25.0	-319062.0	3454.0	1289816.0
29	17	30	18	433	26.0	-319232.0	3453.0	1293129.0
29	17	30	18	433	27.0	-318606.0	3448.0	1298832.0
29	17	30	18	434	28.0	-316434.0	3458.0	1287636.0
29	17	30	18	434	29.0	-313599.0	3489.0	1276213.0
29	17	30	18	435	30.0	-311286.0	3500.0	1271251.0
29	17	30	18	468	31.0	-308694.0	3499.0	1279770.0
29	17	30	18	469	32.0	-305736.0	3501.0	1294461.0
29	17	30	18	469	33.0	-303707.0	3504.0	1294258.0
29	17	30	18	470	34.0	-302101.0	3495.0	1287881.0
29	17	30	18	470	35.0	-299319.0	3501.0	1280131.0
29	17	30	18	471	36.0	-295309.0	3525.0	1280536.0
29	17	30	18	472	37.0	-291887.0	3531.0	1294097.0
29	17	30	18	472	38.0	-288128.0	3522.0	1297446.0
29	17	30	18	473	39.0	-283299.0	3526.0	1292567.0
29	17	30	18	473	40.0	-277578.0	3520.0	1287753.0
29	17	30	18	474	41.0	-271148.0	3532.0	1297335.0
29	17	30	18	475	42.0	-263307.0	3546.0	1315413.0
29	17	30	18	475	43.0	-254324.0	3544.0	1318714.0
29	17	30	18	476	44.0	-244577.0	3544.0	1314065.0
29	17	30	18	476	45.0	-236015.0	3564.0	1307351.0
29	17	30	18	477	47.0	-230504.0	3555.0	1312823.0
29	17	30	18	478	48.0	-232263.0	3553.0	1301813.0
29	17	30	18	478	49.0	-233957.0	3581.0	1290894.0
29	17	30	18	479	50.0	-235449.0	3626.0	1281531.0
29	17	30	18	480	51.0	-237049.0	3639.0	1286763.0
29	17	30	18	480	52.0	-238474.0	3646.0	1299178.0
29	17	30	18	511	53.0	-239932.0	3669.0	1298147.0
29	17	30	18	512	54.0	-242151.0	3688.0	1288501.0
29	17	30	18	512	55.0	-244243.0	3703.0	1279345.0
29	17	30	18	513	56.0	-244628.0	3710.0	1279144.0
29	17	30	18	514	57.0	-242911.0	3695.0	1283441.0
29	17	30	18	514	58.0	-240161.0	3718.0	1272949.0
29	17	30	18	515	59.0	-236832.0	3731.0	1258691.0
29	17	30	18	516	60.0	-233074.0	3737.0	1250553.0
29	17	30	18	516	61.0	-229709.0	3751.0	1262001.0
29	17	30	18	517	62.0	-227019.0	3756.0	1279853.0
29	17	30	18	517	63.0	-223802.0	3766.0	1282511.0
29	17	30	18	518	64.0	-219462.0	3770.0	1278038.0
29	17	30	18	519	65.0	-216257.0	3788.0	1272793.0
29	17	30	18	519	66.0	-217056.0	3807.0	1273623.0
29	17	30	18	520	67.0	-219539.0	3798.0	1276451.0
29	17	30	18	521	69.0	-222917.0	3811.0	1252391.0
29	17	30	18	521	70.0	-226517.0	3823.0	1245757.0
29	17	30	18	522	71.0	-229104.0	3833.0	1256119.0
29	17	30	18	522	72.0	-230401.0	3858.0	1271978.0
29	17	30	18	523	73.0	-233862.0	3878.0	1272251.0
29	17	30	18	524	74.0	-239846.0	3888.0	1267514.0
29	17	30	18	524	75.0	-242075.0	3898.0	1263161.0
29	17	30	18	556	76.0	-240824.0	3919.0	1265943.0
29	17	30	18	557	77.0	-242481.0	3921.0	1270599.0
29	17	30	18	558	78.0	-244850.0	3935.0	1258844.0
29	17	30	18	558	79.0	-242576.0	3938.0	1246031.0
29	17	30	18	559	80.0	-238529.0	3949.0	1240298.0
29	17	30	18	560	81.0	-238908.0	3956.0	1250804.0
29	17	30	18	561	82.0	-241379.0	3961.0	1266536.0
29	17	30	18	561	83.0	-239481.0	3961.0	1266714.0
29	17	30	18	562	84.0	-238282.0	3968.0	1260537.0
29	17	30	18	563	85.0	-243724.0	3953.0	1254911.0
29	17	30	18	563	86.0	-250512.0	3946.0	1257338.0
29	17	30	18	564	87.0	-252631.0	3957.0	1260773.0
29	17	30	18	564	88.0	-256579.0	3962.0	1249989.0
29	17	30	18	565	89.0	-266844.0	3976.0	1239771.0
29	17	30	18	601	90.0	-275196.0	3969.0	1234192.0
29	17	30	18	602	92.0	-278317.0	3970.0	1262666.0
29	17	30	18	602	93.0	-287092.0	3985.0	1266981.0
29	17	30	18	603	94.0	-289821.0	3979.0	1265753.0
29	17	30	18	604	95.0	-287450.0	4009.0	1264283.0
29	17	30	18	605	96.0	-289706.0	4022.0	1268856.0
29	17	30	18	605	97.0	-294554.0	4019.0	1273054.0
29	17	30	18	606	98.0	-298625.0	4017.0	1261647.0
29	17	30	18	607	99.0	-299685.0	4033.0	1250493.0
29	17	30	18	607	100.0	-302582.0	4049.0	1250653.0
29	17	30	18	608	101.0	-307508.0	4044.0	1278258.0
29	17	30	18	609	102.0	-310071.0	4036.0	1306505.0
29	17	30	18	609	103.0	-310394.0	4036.0	1310861.0
29	17	30	18	610	104.0	-313344.0	4021.0	1304583.0
29	17	30	18	611	105.0	-318476.0	4024.0	1296863.0
29	17	30	18	611	106.0	-319546.0	4018.0	1298673.0
29	17	30	18	612	115.0	-293981.0	4021.0	1283914.0
29	17	30	18	613	116.0	-292840.0	4039.0	1285749.0
29	17	30	18	613	117.0	-292281.0	4047.0	1286454.0
29	17	30	18	614	118.0	-287219.0	4061.0	1273341.0
29	17	30	18	615	119.0	-282415.0	4053.0	1261914.0
29	17	30	18	615	120.0	-282848.0	4054.0	1255606.0
29	17	30	18	647	121.0	-282641.0	4068.0	1266018.0
29	17	30	18	648	122.0	-275872.0	4091.0	1279507.0
29	17	30	18	649	123.0	-270012.0	4093.0	1278857.0
29	17	30	18	649	124.0	-270218.0	4096.0	1273474.0
29	17	30	18	650	125.0	-268341.0	4100.0	1268796.0
29	17	30	18	651	126.0	-258101.0	4094.0	1272383.0
29	17	30	18	652	127.0	-250497.0	4086.0	1274406.0
29	17	30	18	652	128.0	-251895.0	4079.0	1263371.0
29	17	30	18	653	129.0	-251699.0	4069.0	1251484.0
29	17	30	18	654	130.0	-242683.0	4076.0	1244921.0
29	17	30	18	655	131.0	-238861.0	4073.0	1255439.0
29	17	30	18	655	132.0	-245861.0	4077.0	1267967.0
29	17	30	18	656	133.0	-249932.0	4083.0	1266961.0
29	17	30	18	657	134.0	-237444.0	4058.0	1261738.0
29	17	30	18	657	135.0	-236046.0	4053.0	1257453.0
29	17	30	18	658	137.0	-249616.0	4023.0	1264588.0
29	17	30	18	659	138.0	-242706.0	4051.0	1254466.0
29	17	30	18	660	139.0	-247162.0	4048.0	1245317.0
29	17	30	18	660	140.0	-256777.0	4063.0	1242001.0
29	17	30	18	661	141.0	-253614.0	4070.0	1255443.0
29	17	30	18	662	142.0	-247558.0	4076.0	1273993.0
29	17	30	18	695	143.0	-256347.0	4097.0	1280025.0
29	17	30	18	696	144.0	-264756.0	4081.0	1277416.0
29	17	30	18	697	145.0	-257860.0	4076.0	1272229.0
29	17	30	18	698	146.0	-255425.0	4100.0	1273744.0
29	17	30	18	699	147.0	-265611.0	4084.0	1271916.0
29	17	30	18	700	148.0	-261490.0	4068.0	1257353.0
29	17	30	18	700	149.0	-248742.0	4059.0	1243721.0
29	17	30	18	701	150.0	-250887.0	4054.0	1236923.0
29	17	30	18	702	151.0	-255579.0	4059.0	1245913.0
29	17	30	18	703	152.0	-243502.0	4062.0	1255681.0
29	17	30	18	704	153.0	-233684.0	4055.0	1254240.0
29	17	30	18	704	154.0	-239506.0	4050.0	1248089.0
29	17	30	18	705	155.0	-235186.0	4036.0	1242346.0
29	17	30	18	706	156.0	-218546.0	4048.0	1246302.0
29	17	30	18	707	157.0	-214852.0	4032.0	1249216.0
29	17	30	18	707	159.0	-204039.0	4013.0	1232127.0
29	17	30	18	708	160.0	-191242.0	3999.0	1228428.0
29	17	30	18	709	161.0	-196096.0	4008.0	1241573.0
29	17	30	18	710	162.0	-195942.0	4018.0	1255439.0
29	17	30	18	710	163.0	-185048.0	4009.0	1254919.0
29	17	30	18	711	164.0	-185961.0	4003.0	1250883.0
29	17	30	18	712	165.0	-197132.0	4018.0	1246530.0
29	17	30	18	739	166.0	-195350.0	4041.0	1250282.0
29	17	30	18	743	167.0	-192350.0	4040.0	1251380.0
29	17	30	18	745	168.0	-205603.0	4023.0	1240690.0
29	17	30	18	746	169.0	-214855.0	4015.0	1230758.0
29	17	30	18	747	170.0	-212734.0	4013.0	1227121.0
29	17	30	18	747	171.0	-219891.0	4001.0	1240588.0
29	17	30	18	748	172.0	-235212.0	3984.0	1254364.0
29	17	30	18	749	173.0	-237686.0	3969.0	1254068.0
29	17	30	18	750	174.0	-235348.0	3974.0	1248582.0
29	17	30	18	750	175.0	-246210.0	3978.0	1244826.0
29	17	30	18	751	176.0	-253189.0	3977.0	1252590.0
29	17	30	18	752	177.0	-247748.0	3944.0	1257968.0
29	17	30	18	752	178.0	-247813.0	3943.0	1250898.0
29	17	30	18	753	179.0	-256983.0	3946.0	1242976.0
29	17	30	18	754	180.0	-256541.0	3946.0	1241050.0
29	17	30	18	754	182.0	-252306.0	3933.0	1269813.0
29	17	30	18	755	183.0	-255729.0	3921.0	1271336.0
29	17	30	18	756	184.0	-247991.0	3939.0	1268319.0
29	17	30	18	756	185.0	-241818.0	3949.0	1263223.0
29	17	30	18	757	186.0	-245831.0	3957.0	1265933.0
29	17	30	18	758	187.0	-244907.0	3968.0	1264122.0
29	17	30	18	783	188.0	-234461.0	3977.0	1250206.0
29	17	30	18	784	189.0	-230691.0	3988.0	1236638.0
29	17	30	18	784	190.0	-230479.0	3986.0	1230259.0
29	17	30	18	785	191.0	-223183.0	3991.0	1239786.0
29	17	30	18	786	192.0	-212816.0	3966.0	1248539.0
29	17	30	18	787	193.0	-210807.0	3964.0	1246246.0
29	17	30	18	788	194.0	-208278.0	3979.0	1241629.0
29	17	30	18	788	195.0	-198658.0	3974.0	1240572.0
29	17	30	18	789	196.0	-190519.0	3969.0	1249983.0
29	17	30	18	790	197.0	-187062.0	3964.0	1251346.0
29	17	30	18	791	198.0	-178431.0	3953.0	1239503.0
29	17	30	18	791	199.0	-167247.0	3948.0	1228506.0
29	17	30	18	792	200.0	-162294.0	3948.0	1224725.0
29	17	30	18	793	201.0	-158049.0	3953.0	1236706.0
29	17	30	18	794	202.0	-147671.0	3949.0	1245519.0
29	17	30	18	794	204.0	-131882.0	3939.0	1235958.0
29	17	30	18	795	205.0	-125035.0	3926.0	1228184.0
29	17	30	18	795	206.0	-114518.0	3947.0	1223581.0
29	17	30	18	796	207.0	-107185.0	3953.0	1213437.0
29	17	30	18	797	208.0	-102879.0	3959.0	1194554.0
29	17	30	18	797	209.0	-94529.0	3962.0	1178738.0
29	17	30	18	798	210.0	-83923.0	3994.0	1172039.0
29	17	30	18	827	211.0	-76788.0	4004.0	1183704.0
29	17	30	18	828	212.0	-71789.0	3975.0	1192852.0
29	17	30	18	829	213.0	-64960.0	3976.0	1189879.0
29	17	30	18	830	214.0	-58839.0	3992.0	1185759.0
29	17	30	18	831	215.0	-56890.0	3974.0	1181961.0
29	17	30	18	831	216.0	-56925.0	3965.0	1185064.0
29	17	30	18	832	217.0	-57111.0	3983.0	1183290.0
29	17	30	18	833	218.0	-59252.0	3975.0	1170829.0
29	17	30	18	834	219.0	-63907.0	3966.0	1161290.0
29	17	30	18	835	220.0	-69209.0	3970.0	1158046.0
29	17	30	18	835	221.0	-74059.0	3982.0	1169624.0
29	17	30	18	836	222.0	-79011.0	4001.0	1178361.0
29	17	30	18	837	223.0	-84140.0	3983.0	1176723.0
29	17	30	18	838	224.0	-89081.0	3964.0	1171826.0
29	17	30	18	838	225.0	-93439.0	3975.0	1167905.0
29	17	30	18	839	227.0	-103525.0	3963.0	1168756.0
29	17	30	18	840	228.0	-109104.0	3959.0	1153516.0
29	17	30	18	841	229.0	-113772.0	3987.0	1138966.0
29	17	30	18	841	230.0	-117684.0	4001.0	1127422.0
29	17	30	18	842	231.0	-119965.0	4000.0	1131045.0
29	17	30	18	843	232.0	-119702.0	4022.0	1132309.0
29	17	30	18	872	233.0	-118254.0	4021.0	1124058.0
29	17	30	18	873	234.0	-115862.0	4023.0	1113347.0
29	17	30	18	874	235.0	-112056.0	4014.0	1103288.0
29	17	30	18	875	236.0	-107324.0	4017.0	1103229.0
29	17	30	18	876	237.0	-102071.0	4019.0	1096649.0
29	17	30	18	877	238.0	-97144.0	4025.0	1082551.0
29	17	30	18	879	239.0	-92553.0	4027.0	1074361.0
29	17	30	18	880	240.0	-88148.0	4033.0	1078189.0
29	17	30	18	880	241.0	-84245.0	4042.0	1100328.0
29	17	30	18	881	242.0	-80507.0	4028.0	1118768.0
29	17	30	18	882	243.0	-77589.0	4018.0	1125982.0
29	17	30	18	883	244.0	-75867.0	4019.0	1134401.0
29	17	30	18	883	245.0	-75121.0	4014.0	1145834.0
29	17	30	18	884	246.0	-75175.0	4007.0	1163574.0
29	17	30	18	885	247.0	-76884.0	4008.0	1169963.0
29	17	30	18	885	249.0	-82122.0	4004.0	1154777.0
29	17	30	18	886	250.0	-82732.0	4008.0	1152644.0
29	17	30	18	887	251.0	-81927.0	4029.0	1163581.0
29	17	30	18	887	252.0	-77310.0	4055.0	1171353.0
29	17	30	18	888	253.0	-68932.0	4058.0	1168557.0
29	17	30	18	889	254.0	-61306.0	4073.0	1167534.0
29	17	30	18	890	255.0	-53839.0	4084.0	1170311.0
29	17	30	18	917	0.0	-50952.0	4086.0	1180020.0
29	17	30	18	918	1.0	-53143.0	4101.0	1180393.0
29	17	30	18	919	2.0	-58683.0	4121.0	1167886.0
29	17	30	18	920	3.0	-66507.0	4120.0	1157222.0
29	17	30	18	921	4.0	-75907.0	4143.0	1154148.0
29	17	30	18	921	5.0	-86091.0	4127.0	1166441.0
29	17	30	18	922	6.0	-95619.0	4118.0	1175696.0
29	17	30	18	923	7.0	-104253.0	4130.0	1172731.0
29	17	30	18	924	8.0	-110087.0	4143.0	1167124.0
29	17	30	18	925	9.0	-111202.0	4158.0	1163758.0
29	17	30	18	926	10.0	-108709.0	4144.0	1169034.0
29	17	30	18	926	11.0	-104666.0	4139.0	1165438.0
29	17	30	18	927	12.0	-99396.0	4159.0	1153715.0
29	17	30	18	928	13.0	-95830.0	4174.0	1143922.0
29	17	30	18	929	14.0	-97790.0	4165.0	1141907.0
29	17	30	18	929	16.0	-81453.0	4158.0	1163152.0
29	17	30	18	930	17.0	-71506.0	4179.0	1161856.0
29	17	30	18	931	18.0	-71477.0	4219.0	1158886.0
29	17	30	18	932	19.0	-78201.0	4231.0	1156188.0
29	17	30	18	932	20.0	-87282.0	4239.0	1161594.0
29	17	30	18	933	21.0	-97984.0	4234.0	1157016.0
29	17	30	18	964	22.0	-110992.0	4274.0	1144568.0
29	17	30	18	965	23.0	-124298.0	4288.0	1135066.0
29	17	30	18	966	24.0	-136057.0	4296.0	1134882.0
29	17	30	18	967	25.0	-144545.0	4298.0	1148359.0
29	17	30	18	968	26.0	-148457.0	4284.0	1154459.0
29	17	30	18	969	27.0	-148481.0	4291.0	1150987.0
29	17	30	18	970	28.0	-146411.0	4304.0	1147210.0
29	17	30	18	970	29.0	-142532.0	4311.0	1145156.0
29	17	30	18	971	30.0	-136867.0	4325.0	1151498.0
29	17	30	18	972	31.0	-132401.0	4314.0	1149343.0
29	17	30	18	973	32.0	-129684.0	4324.0	1139681.0
29	17	30	18	974	33.0	-127801.0	4333.0	1131254.0
29	17	30	18	974	34.0	-127595.0	4345.0	1131841.0
29	17	30	18	975	35.0	-129407.0	4349.0	1148425.0
29	17	30	18	976	36.0	-131239.0	4353.0	1159181.0
29	17	30	18	977	38.0	-134069.0	4364.0	1158336.0
29	17	30	18	977	39.0	-138017.0	4377.0	1157057.0
29	17	30	18	978	40.0	-144981.0	4403.0	1162561.0
29	17	30	18	979	41.0	-153101.0	4426.0	1157576.0
29	17	30	18	980	42.0	-161280.0	4426.0	1144958.0
29	17	30	18	980	43.0	-168444.0	4426.0	1135161.0
29	17	30	18	981	44.0	-174993.0	4449.0	1133152.0
29	17	30	19	7	45.0	-180998.0	4468.0	1146110.0
29	17	30	19	8	46.0	-187274.0	4471.0	1152444.0
29	17	30	19	9	47.0	-192547.0	4469.0	1147273.0
29	17	30	19	9	48.0	-197066.0	4484.0	1138458.0
29	17	30	19	10	49.0	-203149.0	4481.0	1131004.0
29	17	30	19	11	50.0	-209424.0	4486.0	1133871.0
29	17	30	19	12	51.0	-216238.0	4492.0	1126736.0
29	17	30	19	13	52.0	-222721.0	4479.0	1112146.0
29	17	30	19	14	53.0	-228541.0	4496.0	1102317.0
29	17	30	19	14	54.0	-233724.0	4505.0	1103704.0
29	17	30	19	16	55.0	-238929.0	4499.0	1117787.0
29	17	30	19	16	56.0	-244364.0	4491.0	1123728.0
29	17	30	19	17	57.0	-248261.0	4508.0	1118744.0
29	17	30	19	18	58.0	-250176.0	4509.0	1111488.0
29	17	30	19	18	59.0	-251312.0	4513.0	1106666.0
29	17	30	19	19	61.0	-251446.0	4500.0	1107719.0
29	17	30	19	20	62.0	-250258.0	4519.0	1096038.0
29	17	30	19	21	63.0	-248158.0	4540.0	1087948.0
29	17	30	19	21	64.0	-245474.0	4562.0	1088308.0
29	17	30	19	22	65.0	-241696.0	4573.0	1101832.0
29	17	30	19	23	66.0	-237533.0	4584.0	1109214.0
29	17	30	19	52	67.0	-233831.0	4583.0	1105421.0
29	17	30	19	53	68.0	-231359.0	4588.0	1100071.0
29	17	30	19	54	69.0	-230686.0	4601.0	1098554.0
29	17	30	19	55	70.0	-230994.0	4603.0	1105975.0
29	17	30	19	56	71.0	-230656.0	4614.0	1100209.0
29	17	30	19	57	72.0	-228887.0	4604.0	1087896.0
29	17	30	19	57	73.0	-226631.0	4604.0	1080949.0
29	17	30	19	58	74.0	-223812.0	4597.0	1087246.0
29	17	30	19	59	75.0	-221932.0	4604.0	1107863.0
29	17	30	19	60	76.0	-220509.0	4615.0	1117980.0
29	17	30	19	61	77.0	-219822.0	4619.0	1118085.0
29	17	30	19	61	78.0	-219301.0	4608.0	1114955.0
29	17	30	19	62	79.0	-219356.0	4610.0	1114011.0
29	17	30	19	63	80.0	-218661.0	4621.0	1120989.0
29	17	30	19	64	81.0	-217282.0	4631.0	1115480.0
29	17	30	19	64	83.0	-215174.0	4606.0	1096110.0
29	17	30	19	65	84.0	-213894.0	4633.0	1098131.0
29	17	30	19	66	85.0	-213250.0	4648.0	1111474.0
29	17	30	19	66	86.0	-211137.0	4659.0	1115408.0
29	17	30	19	67	87.0	-207143.0	4663.0	1111864.0
29	17	30	19	68	88.0	-203169.0	4675.0	1107751.0
29	17	30	19	96	89.0	-199862.0	4700.0	1106219.0
29	17	30	19	97	90.0	-197661.0	4706.0	1111284.0
29	17	30	19	98	91.0	-196369.0	4698.0	1105110.0
29	17	30	19	99	92.0	-196747.0	4715.0	1094857.0
29	17	30	19	100	93.0	-197834.0	4717.0	1086509.0
29	17	30	19	101	94.0	-198894.0	4728.0	1086651.0
29	17	30	19	102	95.0	-200019.0	4732.0	1099042.0
29	17	30	19	102	96.0	-203074.0	4718.0	1104437.0
29	17	30	19	103	97.0	-208284.0	4741.0	1102104.0
29	17	30	19	104	98.0	-214963.0	4743.0	1097475.0
29	17	30	19	105	99.0	-221019.0	4744.0	1096624.0
29	17	30	19	106	100.0	-226302.0	4756.0	1103003.0
29	17	30	19	106	101.0	-231524.0	4752.0	1098330.0
29	17	30	19	107	102.0	-235899.0	4765.0	1090154.0
29	17	30	19	108	103.0	-239306.0	4761.0	1084932.0
29	17	30	19	109	106.0	-253424.0	4774.0	1109261.0
29	17	30	19	109	107.0	-257227.0	4784.0	1113389.0
29	17	30	19	110	108.0	-261660.0	4792.0	1114156.0
29	17	30	19	111	109.0	-265319.0	4801.0	1115677.0
29	17	30	19	112	110.0	-267636.0	4811.0	1123428.0
29	17	30	19	112	111.0	-271396.0	4842.0	1119683.0
29	17	30	19	143	112.0	-276343.0	4852.0	1111756.0
29	17	30	19	144	113.0	-281023.0	4871.0	1108476.0
29	17	30	19	144	114.0	-286966.0	4881.0	1115281.0
29	17	30	19	145	115.0	-294584.0	4870.0	1133273.0
29	17	30	19	146	116.0	-301114.0	4871.0	1143703.0
29	17	30	19	147	117.0	-306494.0	4854.0	1147778.0
29	17	30	19	148	118.0	-311649.0	4854.0	1147737.0
29	17	30	19	149	119.0	-317061.0	4849.0	1149961.0
29	17	30	19	149	120.0	-322531.0	4864.0	1158519.0
29	17	30	19	150	121.0	-326170.0	4870.0	1155563.0
29	17	30	19	151	122.0	-327032.0	4848.0	1145573.0
29	17	30	19	152	123.0	-327298.0	4854.0	1136605.0
29	17	30	19	153	124.0	-324950.0	4858.0	1137706.0
29	17	30	19	154	125.0	-320946.0	4864.0	1153244.0
29	17	30	19	155	126.0	-314334.0	4860.0	1162746.0
29	17	30	19	155	128.0	-302661.0	4844.0	1153105.0
29	17	30	19	156	129.0	-296889.0	4867.0	1147648.0
29	17	30	19	157	130.0	-290646.0	4875.0	1147184.0
29	17	30	19	158	131.0	-285186.0	4885.0	1134698.0
29	17	30	19	158	132.0	-279117.0	4875.0	1118849.0
29	17	30	19	159	133.0	-273778.0	4888.0	1107133.0
29	17	30	19	233	134.0	-269119.0	4917.0	1106773.0
29	17	30	19	234	135.0	-263737.0	4910.0	1116163.0
29	17	30	19	235	136.0	-258879.0	4915.0	1116210.0
29	17	30	19	236	137.0	-255089.0	4933.0	1110329.0
29	17	30	19	236	138.0	-252821.0	4923.0	1104779.0
29	17	30	19	237	139.0	-251911.0	4928.0	1103399.0
29	17	30	19	238	140.0	-251999.0	4930.0	1108224.0
29	17	30	19	239	141.0	-251433.0	4924.0	1101323.0
29	17	30	19	240	142.0	-252074.0	4938.0	1090548.0
29	17	30	19	240	143.0	-252416.0	4942.0	1082511.0
29	17	30	19	241	144.0	-254201.0	4931.0	1084714.0
29	17	30	19	242	145.0	-258049.0	4908.0	1097789.0
29	17	30	19	243	146.0	-262049.0	4938.0	1101810.0
29	17	30	19	244	147.0	-265943.0	4930.0	1099295.0
29	17	30	19	244	148.0	-269348.0	4913.0	1096309.0
29	17	30	19	245	173.0	-260256.0	4868.0	1114588.0
29	17	30	19	246	174.0	-259577.0	4871.0	1118606.0
29	17	30	19	246	175.0	-257223.0	4881.0	1131415.0
29	17	30	19	247	176.0	-252705.0	4886.0	1133956.0
29	17	30	19	248	177.0	-247741.0	4893.0	1130682.0
29	17	30	19	248	178.0	-242872.0	4923.0	1129918.0
29	17	30	19	278	179.0	-238461.0	4948.0	1134778.0
29	17	30	19	279	180.0	-236471.0	4949.0	1144664.0
29	17	30	19	280	181.0	-237090.0	4960.0	1140224.0
29	17	30	19	280	182.0	-239665.0	4965.0	1132893.0
29	17	30	19	281	183.0	-243141.0	4980.0	1128789.0
29	17	30	19	282	184.0	-244781.0	4980.0	1133791.0
29	17	30	19	283	185.0	-245386.0	4989.0	1145834.0
29	17	30	19	284	186.0	-245306.0	5015.0	1144996.0
29	17	30	19	285	187.0	-244586.0	5003.0	1138627.0
29	17	30	19	285	188.0	-244361.0	5002.0	1130891.0
29	17	30	19	286	189.0	-244791.0	5024.0	1127228.0
29	17	30	19	287	190.0	-246369.0	5034.0	1128379.0
29	17	30	19	288	191.0	-248190.0	5041.0	1115955.0
29	17	30	19	289	192.0	-249981.0	5050.0	1102352.0
29	17	30	19	289	193.0	-250948.0	5063.0	1092147.0
29	17	30	19	290	195.0	-253376.0	5086.0	1106069.0
29	17	30	19	291	196.0	-256248.0	5089.0	1106484.0
29	17	30	19	291	197.0	-259279.0	5126.0	1101718.0
29	17	30	19	292	198.0	-262429.0	5150.0	1096003.0
29	17	30	19	293	199.0	-264461.0	5160.0	1093673.0
29	17	30	19	294	200.0	-264575.0	5188.0	1097602.0
29	17	30	19	294	201.0	-264469.0	5214.0	1089948.0
29	17	30	19	367	202.0	-263608.0	5243.0	1080643.0
29	17	30	19	368	203.0	-263213.0	5251.0	1074753.0
29	17	30	19	369	204.0	-262309.0	5273.0	1078574.0
29	17	30	19	370	205.0	-261479.0	5283.0	1091376.0
29	17	30	19	370	206.0	-258211.0	5281.0	1093364.0
29	17	30	19	371	207.0	-254252.0	5288.0	1087926.0
29	17	30	19	372	208.0	-249449.0	5321.0	1081353.0
29	17	30	19	373	209.0	-243352.0	5313.0	1081063.0
29	17	30	19	374	210.0	-237834.0	5306.0	1085364.0
29	17	30	19	374	211.0	-233637.0	5316.0	1077547.0
29	17	30	19	375	212.0	-229375.0	5338.0	1067979.0
29	17	30	19	376	213.0	-225105.0	5340.0	1061003.0
29	17	30	19	377	214.0	-221152.0	5373.0	1065856.0
29	17	30	19	378	215.0	-216974.0	5377.0	1077504.0
29	17	30	19	378	216.0	-212614.0	5372.0	1079700.0
29	17	30	19	379	218.0	-199169.0	5378.0	1072738.0
29	17	30	19	380	241.0	-189440.0	5573.0	1049954.0
29	17	30	19	381	242.0	-189277.0	5587.0	1039536.0
29	17	30	19	381	243.0	-189120.0	5600.0	1033370.0
29	17	30	19	382	244.0	-188684.0	5645.0	1040853.0
29	17	30	19	383	245.0	-188650.0	5678.0	1054020.0
29	17	30	19	383	246.0	-188541.0	5690.0	1056893.0
29	17	30	19	412	247.0	-188988.0	5695.0	1053436.0
29	17	30	19	413	248.0	-188746.0	5709.0	1050325.0
29	17	30	19	414	249.0	-189414.0	5735.0	1053588.0
29	17	30	19	415	250.0	-190742.0	5724.0	1058236.0
29	17	30	19	416	251.0	-193116.0	5753.0	1050600.0
29	17	30	19	417	252.0	-194712.0	5761.0	1042632.0
29	17	30	19	418	253.0	-195387.0	5774.0	1036699.0
29	17	30	19	419	254.0	-194501.0	5786.0	1043166.0
29	17	30	19	419	255.0	-192961.0	5801.0	1054904.0
29	17	30	19	420	0.0	-192424.0	5786.0	1056689.0
29	17	30	19	421	1.0	-192731.0	5794.0	1052854.0
29	17	30	19	422	2.0	-192695.0	5801.0	1047313.0
29	17	30	19	423	3.0	-193499.0	5812.0	1047032.0
29	17	30	19	423	4.0	-194533.0	5813.0	1049658.0
29	17	30	19	424	5.0	-195424.0	5825.0	1040681.0
29	17	30	19	425	7.0	-194115.0	5853.0	1026264.0
29	17	30	19	425	8.0	-194072.0	5848.0	1034088.0
29	17	30	19	426	9.0	-192943.0	5858.0	1045433.0
29	17	30	19	427	10.0	-192416.0	5884.0	1045758.0
29	17	30	19	427	11.0	-190886.0	5897.0	1041193.0
29	17	30	19	428	12.0	-187553.0	5915.0	1035581.0
29	17	30	19	457	13.0	-182569.0	5928.0	1037786.0
29	17	30	19	458	14.0	-178261.0	5962.0	1042846.0
29	17	30	19	459	15.0	-172196.0	5976.0	1034949.0
29	17	30	19	460	16.0	-165292.0	5963.0	1026618.0
29	17	30	19	461	17.0	-157054.0	5979.0	1023406.0
29	17	30	19	462	18.0	-147471.0	5984.0	1033539.0
29	17	30	19	463	19.0	-137172.0	5989.0	1047816.0
29	17	30	19	463	20.0	-128041.0	5969.0	1050352.0
29	17	30	19	464	21.0	-120379.0	5971.0	1047454.0
29	17	30	19	465	22.0	-114959.0	5974.0	1044233.0
29	17	30	19	466	23.0	-111692.0	5982.0	1047930.0
29	17	30	19	467	24.0	-109615.0	5981.0	1054668.0
29	17	30	19	468	25.0	-107217.0	5989.0	1048386.0
29	17	30	19	468	26.0	-104977.0	5986.0	1038636.0
29	17	30	19	469	27.0	-103169.0	5989.0	1031217.0
29	17	30	19	470	29.0	-106412.0	6008.0	1049436.0
29	17	30	19	471	30.0	-109016.0	6009.0	1047269.0
29	17	30	19	472	31.0	-111011.0	6025.0	1041311.0
29	17	30	19	472	32.0	-113250.0	6039.0	1036443.0
29	17	30	19	473	33.0	-116684.0	6039.0	1037898.0
29	17	30	19	474	34.0	-120178.0	6052.0	1040343.0
29	17	30	19	474	35.0	-122582.0	6068.0	1031895.0
29	17	30	19	502	36.0	-125539.0	6074.0	1022899.0
29	17	30	19	503	37.0	-127809.0	6092.0	1017578.0
29	17	30	19	504	38.0	-129560.0	6105.0	1025891.0
29	17	30	19	505	39.0	-132034.0	6100.0	1036928.0
29	17	30	19	506	40.0	-133370.0	6106.0	1038397.0
29	17	30	19	507	41.0	-133970.0	6106.0	1036906.0
29	17	30	19	508	42.0	-133446.0	6097.0	1035271.0
29	17	30	19	508	43.0	-133474.0	6099.0	1038798.0
29	17	30	19	509	44.0	-134178.0	6096.0	1044349.0
29	17	30	19	510	45.0	-133799.0	6101.0	1039025.0
29	17	30	19	511	46.0	-134283.0	6103.0	1030660.0
29	17	30	19	511	47.0	-134115.0	6121.0	1024450.0
29	17	30	19	512	48.0	-133072.0	6121.0	1031481.0
29	17	30	19	513	49.0	-132854.0	6104.0	1041799.0
29	17	30	19	514	50.0	-131941.0	6116.0	1039144.0
29	17	30	19	514	52.0	-128033.0	6109.0	1024491.0
29	17	30	19	515	53.0	-126001.0	6119.0	1024153.0
29	17	30	19	516	54.0	-122437.0	6146.0	1024849.0
29	17	30	19	516	55.0	-118284.0	6149.0	1013058.0
29	17	30	19	517	56.0	-113336.0	6162.0	1002245.0
29	17	30	19	518	57.0	-108844.0	6171.0	995343.0
29	17	30	19	592	58.0	-104767.0	6193.0	1009221.0
29	17	30	19	593	59.0	-99907.0	6211.0	1051614.0
29	17	30	19	593	60.0	-95026.0	6198.0	1076324.0
29	17	30	19	594	61.0	-91027.0	6189.0	1085803.0
29	17	30	19	595	62.0	-88464.0	6201.0	1099080.0
29	17	30	19	596	63.0	-85601.0	6219.0	1122644.0
29	17	30	19	597	64.0	-82316.0	6189.0	1145844.0
29	17	30	19	598	65.0	-79196.0	6178.0	1155679.0
29	17	30	19	598	66.0	-75842.0	6186.0	1162841.0
29	17	30	19	600	67.0	-73758.0	6193.0	1173691.0
29	17	30	19	601	68.0	-73432.0	6178.0	1195866.0
29	17	30	19	602	69.0	-74402.0	6176.0	1214951.0
29	17	30	19	603	70.0	-75507.0	6159.0	1221442.0
29	17	30	19	604	71.0	-76366.0	6153.0	1222634.0
29	17	30	19	605	72.0	-77937.0	6169.0	1223639.0
29	17	30	19	605	74.0	-84428.0	6133.0	1242160.0
29	17	30	19	606	97.0	-88937.0	5868.0	1016714.0
29	17	30	19	607	98.0	-88300.0	5865.0	1022876.0
29	17	30	19	607	99.0	-87426.0	5859.0	1033173.0
29	17	30	19	608	100.0	-86469.0	5856.0	1034678.0
29	17	30	19	609	101.0	-86327.0	5863.0	1034864.0
29	17	30	19	609	102.0	-86994.0	5863.0	1038481.0
29	17	30	19	637	103.0	-88011.0	5850.0	1051042.0
29	17	30	19	638	104.0	-89663.0	5847.0	1060199.0
29	17	30	19	638	105.0	-90227.0	5821.0	1054383.0
29	17	30	19	639	106.0	-89923.0	5801.0	1047205.0
29	17	30	19	640	107.0	-89102.0	5787.0	1042098.0
29	17	30	19	640	108.0	-88798.0	5766.0	1050894.0
29	17	30	19	641	109.0	-88334.0	5757.0	1063044.0
29	17	30	19	642	110.0	-86916.0	5712.0	1065684.0
29	17	30	19	642	111.0	-82812.0	5684.0	1062028.0
29	17	30	19	643	112.0	-75971.0	5683.0	1053951.0
29	17	30	19	644	113.0	-68452.0	5671.0	1054461.0
29	17	30	19	645	114.0	-59874.0	5634.0	1052957.0
29	17	30	19	645	115.0	-53519.0	5586.0	1040099.0
29	17	30	19	646	116.0	-51168.0	5571.0	1029102.0
29	17	30	19	646	117.0	-53155.0	5541.0	1021031.0
29	17	30	19	647	119.0	-64115.0	5504.0	1028890.0
29	17	30	19	648	120.0	-71101.0	5466.0	1020954.0
29	17	30	19	649	121.0	-78347.0	5475.0	1009956.0
29	17	30	19	649	122.0	-84176.0	5458.0	1000645.0
29	17	30	19	650	123.0	-87968.0	5446.0	1000667.0
29	17	30	19	650	124.0	-89085.0	5422.0	996888.0
29	17	30	19	651	125.0	-86172.0	5403.0	984064.0
29	17	30	19	728	126.0	-79894.0	5389.0	975345.0
29	17	30	19	728	127.0	-73451.0	5386.0	972679.0
29	17	30	19	729	128.0	-67546.0	5365.0	983538.0
29	17	30	19	730	129.0	-57386.0	5324.0	992283.0
29	17	30	19	731	130.0	-42336.0	5294.0	987088.0
29	17	30	19	731	131.0	-28984.0	5258.0	978845.0
29	17	30	19	732	132.0	-21732.0	5246.0	971549.0
29	17	30	19	733	133.0	-21455.0	5235.0	970254.0
29	17	30	19	733	134.0	-27194.0	5217.0	967201.0
29	17	30	19	734	135.0	-38336.0	5187.0	959531.0
29	17	30	19	735	136.0	-51898.0	5163.0	953786.0
29	17	30	19	735	137.0	-66347.0	5151.0	948126.0
29	17	30	19	736	138.0	-79508.0	5134.0	954773.0
29	17	30	19	737	139.0	-90894.0	5085.0	959878.0
29	17	30	19	737	140.0	-98694.0	5063.0	955043.0
29	17	30	19	738	142.0	-102442.0	5017.0	945319.0
29	17	30	19	739	164.0	-152247.0	4540.0	924606.0
29	17	30	19	740	165.0	-159183.0	4519.0	913856.0
29	17	30	19	740	166.0	-165000.0	4531.0	909670.0
29	17	30	19	741	167.0	-170071.0	4514.0	917686.0
29	17	30	19	741	168.0	-173674.0	4498.0	938969.0
29	17	30	19	742	169.0	-175781.0	4474.0	954632.0
29	17	30	19	743	170.0	-176461.0	4466.0	956381.0
29	17	30	19	772	171.0	-176499.0	4439.0	953921.0
29	17	30	19	772	172.0	-176021.0	4426.0	949215.0
29	17	30	19	773	173.0	-175696.0	4409.0	951861.0
29	17	30	19	774	174.0	-175196.0	4374.0	949524.0
29	17	30	19	775	175.0	-173779.0	4360.0	938288.0
29	17	30	19	776	176.0	-172351.0	4343.0	929094.0
29	17	30	19	777	177.0	-169747.0	4311.0	926748.0
29	17	30	19	778	178.0	-167301.0	4299.0	940412.0
29	17	30	19	779	179.0	-164141.0	4268.0	952024.0
29	17	30	19	779	180.0	-160147.0	4251.0	949966.0
29	17	30	19	780	181.0	-155806.0	4197.0	944111.0
29	17	30	19	781	182.0	-152114.0	4173.0	937811.0
29	17	30	19	782	183.0	-147621.0	4169.0	939247.0
29	17	30	19	782	184.0	-143224.0	4128.0	934853.0
29	17	30	19	783	185.0	-137548.0	4101.0	923403.0
29	17	30	19	784	187.0	-128256.0	4039.0	912199.0
29	17	30	19	785	188.0	-124004.0	4018.0	924076.0
29	17	30	19	785	189.0	-119702.0	4011.0	932538.0
29	17	30	19	786	190.0	-115906.0	3977.0	932054.0
29	17	30	19	786	191.0	-112499.0	3943.0	926934.0
29	17	30	19	787	192.0	-109942.0	3926.0	921501.0
29	17	30	19	863	193.0	-107322.0	3923.0	924702.0
29	17	30	19	864	194.0	-104886.0	3898.0	920522.0
29	17	30	19	865	195.0	-102907.0	3874.0	907837.0
29	17	30	19	866	196.0	-101308.0	3839.0	898410.0
29	17	30	19	866	197.0	-101329.0	3819.0	895693.0
29	17	30	19	867	198.0	-102769.0	3781.0	905925.0
29	17	30	19	868	199.0	-105126.0	3743.0	911979.0
29	17	30	19	868	200.0	-107252.0	3731.0	908615.0
29	17	30	19	869	201.0	-109729.0	3703.0	902257.0
29	17	30	19	870	202.0	-111527.0	3646.0	895616.0
29	17	30	19	870	203.0	-112714.0	3616.0	895943.0
29	17	30	19	871	204.0	-113318.0	3591.0	889844.0
29	17	30	19	872	205.0	-113846.0	3553.0	874828.0
29	17	30	19	873	206.0	-113957.0	3524.0	862480.0
29	17	30	19	873	207.0	-114177.0	3498.0	858969.0
29	17	30	19	874	209.0	-112369.0	3459.0	873814.0
29	17	30	19	875	232.0	-127627.0	2895.0	810264.0
29	17	30	19	875	233.0	-132823.0	2901.0	812954.0
29	17	30	19	876	234.0	-139593.0	2889.0	807566.0
29	17	30	19	877	235.0	-147119.0	2878.0	795919.0
29	17	30	19	877	236.0	-155539.0	2851.0	785947.0
29	17	30	19	878	237.0	-164020.0	2843.0	783907.0
29	17	30	19	908	238.0	-172599.0	2846.0	796191.0
29	17	30	19	909	239.0	-181086.0	2835.0	802430.0
29	17	30	19	909	240.0	-189048.0	2819.0	799661.0
29	17	30	19	910	241.0	-195848.0	2793.0	792673.0
29	17	30	19	911	242.0	-201565.0	2765.0	788176.0
29	17	30	19	912	243.0	-206941.0	2753.0	792745.0
29	17	30	19	912	244.0	-212499.0	2739.0	788683.0
29	17	30	19	913	245.0	-217986.0	2716.0	777187.0
29	17	30	19	914	246.0	-222245.0	2703.0	767719.0
29	17	30	19	914	247.0	-225269.0	2681.0	766634.0
29	17	30	19	915	248.0	-228246.0	2688.0	777502.0
29	17	30	19	916	249.0	-229496.0	2653.0	782603.0
29	17	30	19	917	250.0	-229734.0	2616.0	778624.0
29	17	30	19	917	251.0	-229551.0	2586.0	774718.0
29	17	30	19	918	252.0	-228487.0	2561.0	772139.0
29	17	30	19	919	254.0	-223410.0	2533.0	769521.0
29	17	30	19	919	255.0	-219640.0	2500.0	754371.0
29	17	30	19	920	0.0	-215314.0	2493.0	744159.0
29	17	30	19	921	1.0	-211665.0	2486.0	743656.0
29	17	30	19	921	2.0	-206752.0	2492.0	754766.0
29	17	30	19	922	3.0	-201529.0	2485.0	759585.0
29	17	30	19	952	4.0	-196700.0	2462.0	754871.0
29	17	30	19	952	5.0	-192709.0	2465.0	746909.0
29	17	30	19	953	6.0	-188856.0	2440.0	740556.0
29	17	30	19	954	7.0	-185096.0	2412.0	741698.0
29	17	30	19	955	8.0	-181093.0	2389.0	734219.0
29	17	30	19	955	9.0	-176084.0	2369.0	722937.0
29	17	30	19	956	10.0	-169973.0	2336.0	715528.0
29	17	30	19	957	11.0	-162068.0	2325.0	713618.0
29	17	30	19	958	12.0	-158474.0	2298.0	724955.0
29	17	30	19	958	13.0	-159411.0	2273.0	728997.0
29	17	30	19	959	14.0	-163782.0	2252.0	722760.0
29	17	30	19	960	15.0	-169076.0	2213.0	715899.0
29	17	30	19	961	16.0	-171516.0	2194.0	710965.0
29	17	30	19	961	17.0	-172359.0	2183.0	714283.0
29	17	30	19	962	18.0	-172399.0	2146.0	708273.0
29	17	30	19	963	20.0	-169981.0	2093.0	685831.0
29	17	30	19	963	21.0	-169182.0	2075.0	685621.0
29	17	30	19	964	22.0	-168792.0	2048.0	698656.0
29	17	30	19	965	23.0	-168830.0	2012.0	702079.0
29	17	30	19	965	24.0	-169143.0	2009.0	696734.0
29	17	30	19	966	25.0	-170795.0	1978.0	689893.0
29	17	30	19	967	26.0	-174254.0	1969.0	686434.0
29	17	30	19	997	27.0	-178614.0	1968.0	691439.0
29	17	30	19	997	28.0	-184752.0	1945.0	685276.0
29	17	30	19	998	29.0	-190477.0	1926.0	673372.0
29	17	30	19	999	30.0	-195484.0	1901.0	664093.0
29	17	30	20	0	31.0	-199736.0	1870.0	664838.0
29	17	30	20	0	32.0	-203011.0	1839.0	678396.0
29	17	30	20	1	33.0	-204151.0	1816.0	681641.0
29	17	30	20	2	34.0	-204029.0	1783.0	675492.0
29	17	30	20	3	35.0	-202781.0	1767.0	669681.0
29	17	30	20	3	36.0	-200468.0	1753.0	665465.0
29	17	30	20	4	37.0	-197807.0	1734.0	668863.0
29	17	30	20	5	38.0	-196349.0	1688.0	662929.0
29	17	30	20	6	39.0	-196261.0	1675.0	651614.0
29	17	30	20	6	40.0	-196142.0	1664.0	641936.0
29	17	30	20	7	41.0	-196861.0	1624.0	642121.0
29	17	30	20	8	43.0	-200603.0	1581.0	657690.0
29	17	30	20	8	44.0	-202328.0	1561.0	651331.0
29	17	30	20	9	45.0	-204439.0	1578.0	643454.0
29	17	30	20	10	46.0	-206002.0	1551.0	640485.0
29	17	30	20	10	47.0	-206997.0	1531.0	643666.0
29	17	30	20	11	48.0	-207352.0	1522.0	635528.0
29	17	30	20	43	49.0	-207737.0	1516.0	622744.0
29	17	30	20	44	50.0	-207817.0	1504.0	612616.0
29	17	30	20	44	51.0	-208311.0	1494.0	613408.0
29	17	30	20	45	52.0	-207571.0	1459.0	628123.0
29	17	30	20	46	53.0	-206592.0	1424.0	632203.0
29	17	30	20	46	54.0	-205827.0	1400.0	628088.0
29	17	30	20	47	55.0	-206709.0	1373.0	621671.0
29	17	30	20	48	56.0	-208905.0	1361.0	617748.0
29	17	30	20	49	57.0	-212148.0	1333.0	622705.0
29	17	30	20	49	58.0	-216396.0	1311.0	616196.0
29	17	30	20	50	59.0	-220722.0	1282.0	603756.0
29	17	30	20	51	60.0	-223916.0	1256.0	593986.0
29	17	30	20	52	61.0	-227017.0	1242.0	594617.0
29	17	30	20	53	62.0	-229362.0	1228.0	607587.0
29	17	30	20	53	63.0	-230792.0	1195.0	611100.0
29	17	30	20	54	65.0	-233029.0	1124.0	603408.0
29	17	30	20	55	66.0	-233931.0	1101.0	601044.0
29	17	30	20	55	67.0	-234017.0	1094.0	605478.0
29	17	30	20	56	68.0	-233673.0	1063.0	599013.0
29	17	30	20	57	69.0	-232603.0	1041.0	588248.0
29	17	30	20	57	70.0	-230819.0	1052.0	580351.0
29	17	30	20	58	71.0	-229645.0	1030.0	583350.0
29	17	30	20	88	72.0	-228057.0	1008.0	598626.0
29	17	30	20	88	73.0	-226376.0	985.0	602164.0
29	17	30	20	89	74.0	-224782.0	958.0	596588.0
29	17	30	20	90	75.0	-223316.0	928.0	589285.0
29	17	30	20	91	76.0	-221378.0	898.0	586097.0
29	17	30	20	92	77.0	-219992.0	848.0	592404.0
29	17	30	20	92	78.0	-219302.0	828.0	587711.0
29	17	30	20	93	79.0	-219001.0	808.0	578796.0
29	17	30	20	94	80.0	-218479.0	776.0	574197.0
29	17	30	20	95	81.0	-217794.0	742.0	583611.0
29	17	30	20	95	82.0	-216712.0	722.0	604468.0
29	17	30	20	96	83.0	-215684.0	688.0	614303.0
29	17	30	20	97	84.0	-213551.0	648.0	613936.0
29	17	30	20	97	85.0	-212147.0	631.0	610368.0
29	17	30	20	98	86.0	-210847.0	598.0	608704.0
29	17	30	20	99	88.0	-208857.0	514.0	610760.0
29	17	30	20	99	89.0	-209115.0	512.0	602199.0
29	17	30	20	100	90.0	-209266.0	486.0	595899.0
29	17	30	20	101	91.0	-208956.0	476.0	599766.0
29	17	30	20	101	92.0	-209238.0	439.0	614173.0
29	17	30	20	102	93.0	-208724.0	404.0	619564.0
29	17	30	20	132	94.0	-207629.0	386.0	617344.0
29	17	30	20	133	95.0	-206760.0	373.0	611461.0
29	17	30	20	133	96.0	-206662.0	346.0	609988.0
29	17	30	20	134	97.0	-207317.0	314.0	616056.0
29	17	30	20	135	98.0	-208362.0	265.0	608496.0
29	17	30	20	136	99.0	-209756.0	220.0	596549.0
29	17	30	20	137	100.0	-211104.0	178.0	589569.0
29	17	30	20	137	101.0	-211971.0	166.0	594294.0
29	17	30	20	138	102.0	-212480.0	118.0	609238.0
29	17	30	20	139	103.0	-212834.0	84.0	611522.0
29	17	30	20	140	104.0	-213331.0	28.0	604999.0
29	17	30	20	140	105.0	-212074.0	-11.0	596003.0
29	17	30	20	141	106.0	-210979.0	-39.0	591586.0
29	17	30	20	142	107.0	-210496.0	-80.0	594389.0
29	17	30	20	143	108.0	-210284.0	-126.0	584401.0
29	17	30	20	143	110.0	-210219.0	-214.0	562016.0
29	17	30	20	144	111.0	-209961.0	-236.0	564717.0
29	17	30	20	145	112.0	-210170.0	-252.0	577644.0
29	17	30	20	145	113.0	-208358.0	-301.0	578835.0
29	17	30	20	146	114.0	-206270.0	-352.0	569946.0
29	17	30	20	147	115.0	-204592.0	-367.0	558619.0
29	17	30	20	147	116.0	-204258.0	-393.0	553288.0
29	17	30	20	177	117.0	-204700.0	-414.0	554349.0
29	17	30	20	178	118.0	-205777.0	-461.0	542242.0
29	17	30	20	179	119.0	-206874.0	-484.0	526756.0
29	17	30	20	180	120.0	-207629.0	-515.0	516407.0
29	17	30	20	181	121.0	-208034.0	-571.0	519381.0
29	17	30	20	181	122.0	-206952.0	-610.0	532419.0
29	17	30	20	182	123.0	-205520.0	-645.0	533612.0
29	17	30	20	183	124.0	-205223.0	-684.0	527514.0
29	17	30	20	183	125.0	-205552.0	-719.0	521074.0
29	17	30	20	184	126.0	-205721.0	-749.0	517116.0
29	17	30	20	268	127.0	-205739.0	-810.0	518541.0
29	17	30	20	269	128.0	-206292.0	-866.0	508118.0
29	17	30	20	270	129.0	-207051.0	-884.0	495226.0
29	17	30	20	270	130.0	-207997.0	-932.0	486025.0
29	17	30	20	271	131.0	-209169.0	-965.0	489763.0
29	17	30	20	272	133.0	-212263.0	-1049.0	499788.0
29	17	30	20	273	134.0	-213031.0	-1091.0	490856.0
29	17	30	20	273	135.0	-214096.0	-1119.0	482025.0
29	17	30	20	274	136.0	-214807.0	-1140.0	480060.0
29	17	30	20	275	137.0	-215327.0	-1169.0	483845.0
29	17	30	20	318	138.0	-215512.0	-1207.0	473465.0
29	17	30	20	319	139.0	-215831.0	-1259.0	458781.0
29	17	30	20	319	140.0	-216211.0	-1292.0	448343.0
29	17	30	20	320	141.0	-215998.0	-1322.0	450158.0
29	17	30	20	321	142.0	-215766.0	-1363.0	461191.0
29	17	30	20	322	155.0	-215196.0	-1849.0	442093.0
29	17	30	20	323	178.0	-253492.0	-2581.0	398340.0
29	17	30	20	323	179.0	-254906.0	-2584.0	383028.0
29	17	30	20	324	180.0	-255726.0	-2600.0	371238.0
29	17	30	20	325	181.0	-256286.0	-2624.0	373998.0
29	17	30	20	325	182.0	-256869.0	-2651.0	382789.0
29	17	30	20	326	183.0	-257896.0	-2678.0	376694.0
29	17	30	20	327	184.0	-259152.0	-2694.0	364721.0
29	17	30	20	328	185.0	-260341.0	-2725.0	351468.0
29	17	30	20	328	186.0	-261363.0	-2762.0	341689.0
29	17	30	20	329	187.0	-262035.0	-2790.0	334526.0
29	17	30	20	330	200.0	-249737.0	-3043.0	265284.0
29	17	30	20	330	201.0	-250576.0	-3062.0	282627.0
29	17	30	20	331	202.0	-252354.0	-3054.0	309123.0
29	17	30	20	332	203.0	-254486.0	-3073.0	320771.0
29	17	30	20	332	204.0	-256724.0	-3067.0	320644.0
29	17	30	20	333	205.0	-258708.0	-3076.0	314948.0
29	17	30	20	334	206.0	-259764.0	-3099.0	316409.0
29	17	30	20	358	207.0	-259009.0	-3092.0	321277.0
29	17	30	20	359	208.0	-255974.0	-3102.0	311984.0
29	17	30	20	360	209.0	-251642.0	-3116.0	300066.0
29	17	30	20	361	210.0	-246487.0	-3122.0	291981.0
29	17	30	20	362	211.0	-244599.0	-3122.0	299275.0
29	17	30	20	362	212.0	-246759.0	-3151.0	312294.0
29	17	30	20	363	213.0	-252897.0	-3168.0	310683.0
29	17	30	20	364	214.0	-261787.0	-3178.0	303103.0
29	17	30	20	365	215.0	-271369.0	-3187.0	295797.0
29	17	30	20	365	216.0	-280042.0	-3204.0	296986.0
29	17	30	20	366	217.0	-287357.0	-3222.0	299748.0
29	17	30	20	367	218.0	-292611.0	-3229.0	287463.0
29	17	30	20	368	219.0	-294322.0	-3250.0	273753.0
29	17	30	20	368	220.0	-292118.0	-3261.0	266774.0
29	17	30	20	369	221.0	-287902.0	-3271.0	274614.0
29	17	30	20	370	223.0	-278332.0	-3298.0	284909.0
29	17	30	20	370	224.0	-270967.0	-3291.0	277821.0
29	17	30	20	371	225.0	-262609.0	-3306.0	270198.0
29	17	30	20	372	226.0	-254774.0	-3308.0	269293.0
29	17	30	20	372	227.0	-245891.0	-3311.0	268326.0
29	17	30	20	373	228.0	-235637.0	-3319.0	254927.0
29	17	30	20	402	229.0	-227569.0	-3310.0	242990.0
29	17	30	20	403	230.0	-223244.0	-3322.0	236444.0
29	17	30	20	404	231.0	-222018.0	-3330.0	245271.0
29	17	30	20	405	232.0	-223834.0	-3344.0	258450.0
29	17	30	20	406	233.0	-229129.0	-3367.0	258873.0
29	17	30	20	406	234.0	-237817.0	-3387.0	253188.0
29	17	30	20	407	235.0	-247996.0	-3392.0	246494.0
29	17	30	20	408	236.0	-257285.0	-3396.0	248359.0
29	17	30	20	409	237.0	-262800.0	-3411.0	250124.0
29	17	30	20	410	238.0	-262608.0	-3425.0	238806.0
29	17	30	20	411	239.0	-258001.0	-3424.0	226604.0
29	17	30	20	412	240.0	-252166.0	-3449.0	220363.0
29	17	30	20	413	241.0	-247020.0	-3462.0	231366.0
29	17	30	20	413	242.0	-242899.0	-3480.0	245969.0
29	17	30	20	414	243.0	-239320.0	-3481.0	245850.0
29	17	30	20	415	245.0	-233371.0	-3509.0	232259.0
29	17	30	20	415	246.0	-230619.0	-3504.0	234166.0
29	17	30	20	416	247.0	-228345.0	-3487.0	236046.0
29	17	30	20	417	248.0	-226808.0	-3523.0	225429.0
29	17	30	20	417	249.0	-226701.0	-3516.0	215038.0
29	17	30	20	418	250.0	-227786.0	-3513.0	208413.0
29	17	30	20	447	251.0	-230140.0	-3500.0	218419.0
29	17	30	20	448	252.0	-232481.0	-3516.0	232958.0
29	17	30	20	449	253.0	-234587.0	-3522.0	232931.0
29	17	30	20	450	254.0	-236027.0	-3528.0	228969.0
29	17	30	20	451	255.0	-236686.0	-3546.0	224244.0
29	17	30	20	451	0.0	-236636.0	-3571.0	225100.0
29	17	30	20	452	1.0	-236112.0	-3574.0	226731.0
29	17	30	20	453	2.0	-234672.0	-3579.0	214376.0
29	17	30	20	454	3.0	-233590.0	-3586.0	202709.0
29	17	30	20	455	4.0	-232753.0	-3612.0	198374.0
29	17	30	20	456	5.0	-231627.0	-3614.0	212560.0
29	17	30	20	457	6.0	-230058.0	-3619.0	227911.0
29	17	30	20	458	7.0	-228570.0	-3642.0	228366.0
29	17	30	20	458	8.0	-227409.0	-3649.0	224572.0
29	17	30	20	459	9.0	-226346.0	-3639.0	218700.0
29	17	30	20	460	11.0	-225486.0	-3683.0	221781.0
29	17	30	20	461	12.0	-226317.0	-3685.0	209913.0
29	17	30	20	461	13.0	-227972.0	-3682.0	198311.0
29	17	30	20	462	14.0	-230359.0	-3681.0	193397.0
29	17	30	20	463	15.0	-233174.0	-3671.0	202885.0
29	17	30	20	463	16.0	-235043.0	-3655.0	215445.0
29	17	30	20	464	17.0	-236020.0	-3651.0	214525.0
29	17	30	20	492	18.0	-235914.0	-3659.0	207951.0
29	17	30	20	493	19.0	-235492.0	-3644.0	202293.0
29	17	30	20	494	20.0	-234389.0	-3641.0	204920.0
29	17	30	20	495	21.0	-232471.0	-3646.0	205836.0
29	17	30	20	496	22.0	-229991.0	-3671.0	194404.0
29	17	30	20	497	23.0	-227144.0	-3688.0	184309.0
29	17	30	20	497	24.0	-224412.0	-3702.0	180117.0
29	17	30	20	498	25.0	-221247.0	-3693.0	192554.0
29	17	30	20	499	26.0	-217631.0	-3704.0	205293.0
29	17	30	20	500	27.0	-213886.0	-3702.0	202588.0
29	17	30	20	500	28.0	-209970.0	-3699.0	196720.0
29	17	30	20	501	29.0	-206184.0	-3696.0	190724.0
29	17	30	20	502	30.0	-202369.0	-3723.0	192945.0
29	17	30	20	503	31.0	-198834.0	-3734.0	194147.0
29	17	30	20	503	32.0	-195682.0	-3741.0	182791.0
29	17	30	20	504	34.0	-189937.0	-3744.0	169443.0
29	17	30	20	505	35.0	-188067.0	-3726.0	182443.0
29	17	30	20	505	36.0	-186947.0	-3734.0	195782.0
29	17	30	20	506	37.0	-186398.0	-3739.0	193913.0
29	17	30	20	507	38.0	-185365.0	-3715.0	187102.0
29	17	30	20	507	39.0	-184571.0	-3727.0	179911.0
29	17	30	20	537	40.0	-184390.0	-3712.0	181596.0
29	17	30	20	538	41.0	-184289.0	-3708.0	181194.0
29	17	30	20	538	42.0	-184824.0	-3711.0	169273.0
29	17	30	20	539	43.0	-184424.0	-3709.0	159186.0
29	17	30	20	540	44.0	-185704.0	-3715.0	156589.0
29	17	30	20	541	45.0	-185104.0	-3722.0	170025.0
29	17	30	20	549	46.0	-183729.0	-3727.0	183353.0
29	17	30	20	550	47.0	-181507.0	-3739.0	182574.0
29	17	30	20	551	48.0	-179034.0	-3741.0	178363.0
29	17	30	20	552	49.0	-176532.0	-3742.0	175074.0
29	17	30	20	552	50.0	-173261.0	-3736.0	180028.0
29	17	30	20	553	51.0	-169761.0	-3752.0	180458.0
29	17	30	20	554	52.0	-165882.0	-3760.0	169918.0
29	17	30	20	554	53.0	-162014.0	-3752.0	158865.0
29	17	30	20	555	54.0	-158051.0	-3746.0	152983.0
29	17	30	20	556	56.0	-149496.0	-3753.0	173495.0
29	17	30	20	556	57.0	-146036.0	-3760.0	172461.0
29	17	30	20	557	58.0	-143917.0	-3764.0	168856.0
29	17	30	20	558	59.0	-143061.0	-3757.0	165135.0
29	17	30	20	558	60.0	-142769.0	-3755.0	167967.0
29	17	30	20	559	61.0	-143047.0	-3726.0	166948.0
29	17	30	20	560	62.0	-143727.0	-3726.0	155169.0
29	17	30	20	582	63.0	-144315.0	-3727.0	144324.0
29	17	30	20	583	64.0	-145086.0	-3726.0	139737.0
29	17	30	20	584	65.0	-145811.0	-3709.0	153824.0
29	17	30	20	585	66.0	-146512.0	-3732.0	167969.0
29	17	30	20	585	67.0	-146654.0	-3733.0	166774.0
29	17	30	20	586	68.0	-146372.0	-3727.0	161894.0
29	17	30	20	587	69.0	-145365.0	-3733.0	155179.0
29	17	30	20	588	70.0	-144199.0	-3747.0	157341.0
29	17	30	20	589	71.0	-142953.0	-3775.0	156442.0
29	17	30	20	590	72.0	-141766.0	-3769.0	145140.0
29	17	30	20	591	73.0	-140569.0	-3763.0	136100.0
29	17	30	20	592	74.0	-139468.0	-3782.0	140483.0
29	17	30	20	592	75.0	-138180.0	-3780.0	162041.0
29	17	30	20	593	76.0	-137084.0	-3782.0	175931.0
29	17	30	20	594	77.0	-137111.0	-3794.0	172482.0
29	17	30	20	594	79.0	-139969.0	-3819.0	154498.0
29	17	30	20	595	80.0	-142236.0	-3822.0	156102.0
29	17	30	20	596	81.0	-144527.0	-3823.0	154294.0
29	17	30	20	596	82.0	-147107.0	-3811.0	140466.0
29	17	30	20	597	83.0	-150052.0	-3823.0	130476.0
29	17	30	20	598	84.0	-153049.0	-3809.0	127788.0
29	17	30	20	628	85.0	-156371.0	-3802.0	140941.0
29	17	30	20	629	86.0	-159476.0	-3821.0	151108.0
29	17	30	20	630	87.0	-163122.0	-3829.0	147743.0
29	17	30	20	631	88.0	-166931.0	-3850.0	140274.0
29	17	30	20	632	89.0	-171021.0	-3847.0	132121.0
29	17	30	20	632	90.0	-175268.0	-3879.0	134018.0
29	17	30	20	633	91.0	-179606.0	-3894.0	130413.0
29	17	30	20	634	92.0	-184524.0	-3884.0	115065.0
29	17	30	20	635	93.0	-189533.0	-3914.0	101884.0
29	17	30	20	635	94.0	-193863.0	-3934.0	96126.0
29	17	30	20	636	95.0	-197080.0	-3961.0	107420.0
29	17	30	20	637	96.0	-199776.0	-3964.0	118472.0
29	17	30	20	638	97.0	-200366.0	-3971.0	115256.0
29	17	30	20	638	98.0	-199442.0	-3997.0	109513.0
29	17	30	20	639	99.0	-199509.0	-4007.0	103411.0
29	17	30	20	640	101.0	-198167.0	-4047.0	103923.0
29	17	30	20	641	102.0	-198039.0	-4054.0	91194.0
29	17	30	20	641	103.0	-199731.0	-4067.0	81750.0
29	17	30	20	642	104.0	-201265.0	-4062.0	80763.0
29	17	30	20	643	105.0	-202191.0	-4067.0	95274.0
29	17	30	20	643	106.0	-201879.0	-4078.0	107177.0
29	17	30	20	644	107.0	-199152.0	-4085.0	105892.0
29	17	30	20	673	108.0	-196159.0	-4075.0	100854.0
29	17	30	20	673	109.0	-190846.0	-4079.0	93400.0
29	17	30	20	674	110.0	-183504.0	-4089.0	94901.0
29	17	30	20	675	111.0	-179941.0	-4122.0	90939.0
29	17	30	20	676	112.0	-180967.0	-4131.0	76414.0
29	17	30	20	677	113.0	-184167.0	-4149.0	63243.0
29	17	30	20	678	114.0	-187482.0	-4167.0	58954.0
29	17	30	20	679	115.0	-188459.0	-4195.0	72004.0
29	17	30	20	679	116.0	-187575.0	-4206.0	81503.0
29	17	30	20	680	117.0	-185540.0	-4218.0	79030.0
29	17	30	20	681	118.0	-182804.0	-4248.0	73010.0
29	17	30	20	682	119.0	-180932.0	-4260.0	67284.0
29	17	30	20	682	120.0	-179946.0	-4271.0	71008.0
29	17	30	20	683	121.0	-178687.0	-4305.0	68954.0
29	17	30	20	684	122.0	-175576.0	-4342.0	54772.0
29	17	30	20	685	124.0	-167381.0	-4381.0	40338.0
29	17	30	20	685	125.0	-163960.0	-4398.0	54214.0
29	17	30	20	686	126.0	-161017.0	-4417.0	62269.0
29	17	30	20	687	127.0	-158058.0	-4419.0	56089.0
29	17	30	20	688	128.0	-156474.0	-4430.0	47049.0
29	17	30	20	688	129.0	-156386.0	-4451.0	39213.0
29	17	30	20	762	130.0	-158309.0	-4465.0	42056.0
29	17	30	20	763	131.0	-161962.0	-4471.0	39161.0
29	17	30	20	764	132.0	-166498.0	-4482.0	28694.0
29	17	30	20	765	133.0	-172007.0	-4521.0	22287.0
29	17	30	20	765	134.0	-181969.0	-4545.0	23752.0
29	17	30	20	766	135.0	-196452.0	-4584.0	42337.0
29	17	30	20	767	136.0	-214577.0	-4617.0	57436.0
29	17	30	20	768	137.0	-234889.0	-4632.0	57616.0
29	17	30	20	768	138.0	-257976.0	-4664.0	52188.0
29	17	30	20	769	139.0	-284957.0	-4695.0	47834.0
29	17	30	20	770	140.0	-315495.0	-4701.0	51072.0
29	17	30	20	771	141.0	-348416.0	-4720.0	44622.0
29	17	30	20	772	142.0	-383468.0	-4771.0	29054.0
29	17	30	20	772	143.0	-423218.0	-4788.0	15414.0
29	17	30	20	773	144.0	-466048.0	-4807.0	11301.0
29	17	30	20	774	146.0	-546305.0	-4866.0	32586.0
29	17	30	20	774	169.0	-342357.0	-5253.0	-16647.0
29	17	30	20	775	170.0	-330193.0	-5264.0	-13461.0
29	17	30	20	776	171.0	-320417.0	-5257.0	-17572.0
29	17	30	20	776	172.0	-311813.0	-5257.0	-30820.0
29	17	30	20	777	173.0	-304373.0	-5271.0	-42788.0
29	17	30	20	778	174.0	-297754.0	-5269.0	-44506.0
29	17	30	20	808	175.0	-291829.0	-5227.0	-30037.0
29	17	30	20	809	176.0	-286106.0	-5254.0	-22950.0
29	17	30	20	810	177.0	-280526.0	-5237.0	-29774.0
29	17	30	20	810	178.0	-274732.0	-5249.0	-38702.0
29	17	30	20	811	179.0	-269019.0	-5251.0	-46092.0
29	17	30	20	812	180.0	-264006.0	-5253.0	-43712.0
29	17	30	20	813	181.0	-260508.0	-5267.0	-50266.0
29	17	30	20	814	182.0	-258977.0	-5278.0	-67237.0
29	17	30	20	815	183.0	-258219.0	-5284.0	-80551.0
29	17	30	20	815	184.0	-255914.0	-5281.0	-81787.0
29	17	30	20	816	185.0	-255262.0	-5267.0	-65699.0
29	17	30	20	817	186.0	-255349.0	-5272.0	-55600.0
29	17	30	20	818	187.0	-255371.0	-5276.0	-57794.0
29	17	30	20	819	188.0	-255381.0	-5271.0	-64096.0
29	17	30	20	819	189.0	-254689.0	-5282.0	-68163.0
29	17	30	20	820	191.0	-254295.0	-5257.0	-66279.0
29	17	30	20	821	192.0	-254304.0	-5271.0	-81985.0
29	17	30	20	821	193.0	-253630.0	-5256.0	-96922.0
29	17	30	20	822	194.0	-252487.0	-5212.0	-100865.0
29	17	30	20	823	195.0	-251324.0	-5204.0	-86181.0
29	17	30	20	824	196.0	-250262.0	-5202.0	-78151.0
29	17	30	20	824	197.0	-248132.0	-5191.0	-81670.0
29	17	30	20	898	198.0	-245816.0	-5175.0	-88442.0
29	17	30	20	898	199.0	-243934.0	-5158.0	-92679.0
29	17	30	20	899	200.0	-239850.0	-5149.0	-87466.0
29	17	30	20	900	201.0	-233800.0	-5137.0	-94139.0
29	17	30	20	901	202.0	-228456.0	-5121.0	-109689.0
29	17	30	20	903	203.0	-224422.0	-5127.0	-122081.0
29	17	30	20	904	204.0	-222095.0	-5101.0	-123716.0
29	17	30	20	905	205.0	-219751.0	-5078.0	-107772.0
29	17	30	20	905	206.0	-218601.0	-5088.0	-99884.0
29	17	30	20	906	207.0	-217534.0	-5077.0	-103921.0
29	17	30	20	907	208.0	-216662.0	-5056.0	-110701.0
29	17	30	20	908	209.0	-214610.0	-5041.0	-114046.0
29	17	30	20	909	210.0	-212099.0	-5018.0	-108529.0
29	17	30	20	910	211.0	-209621.0	-5004.0	-115335.0
29	17	30	20	910	212.0	-206835.0	-5009.0	-129464.0
29	17	30	20	911	214.0	-199234.0	-4958.0	-137369.0
29	17	30	20	912	236.0	-192609.0	-4643.0	-78549.0
29	17	30	20	912	237.0	-197238.0	-4620.0	-80867.0
29	17	30	20	913	238.0	-200820.0	-4589.0	-87037.0
29	17	30	20	914	239.0	-202636.0	-4571.0	-88673.0
29	17	30	20	914	240.0	-203356.0	-4550.0	-81404.0
29	17	30	20	915	241.0	-203906.0	-4521.0	-87345.0
29	17	30	20	916	242.0	-204461.0	-4487.0	-101922.0
29	17	30	20	943	243.0	-204424.0	-4464.0	-111623.0
29	17	30	20	944	244.0	-204520.0	-4428.0	-108503.0
29	17	30	20	987	245.0	-203946.0	-4408.0	-87847.0
29	17	30	20	988	246.0	-202574.0	-4399.0	-77518.0
29	17	30	20	989	247.0	-200190.0	-4386.0	-78216.0
29	17	30	20	989	248.0	-197341.0	-4356.0	-80987.0
29	17	30	20	990	249.0	-194513.0	-4356.0	-81054.0
29	17	30	20	991	250.0	-192905.0	-4336.0	-72913.0
29	17	30	21	14	251.0	-190801.0	-4308.0	-79129.0
29	17	30	21	14	252.0	-187892.0	-4287.0	-91505.0
29	17	30	21	15	253.0	-185514.0	-4267.0	-98679.0
29	17	30	21	16	254.0	-183945.0	-4241.0	-89907.0
29	17	30	21	16	255.0	-183329.0	-4231.0	-64373.0
29	17	30	21	17	0.0	-184487.0	-4207.0	-48850.0
29	17	30	21	17	1.0	-185682.0	-4186.0	-44818.0
29	17	30	21	18	3.0	-188252.0	-4161.0	-43519.0
29	17	30	21	19	4.0	-190222.0	-4129.0	-32161.0
29	17	30	21	19	25.0	-199340.0	-3677.0	37654.0
29	17	30	21	20	26.0	-199419.0	-3662.0	27324.0
29	17	30	21	21	27.0	-199056.0	-3629.0	23608.0
29	17	30	21	21	28.0	-199507.0	-3590.0	37302.0
29	17	30	21	22	29.0	-200702.0	-3532.0	66517.0
29	17	30	21	22	30.0	-201367.0	-3504.0	83458.0
29	17	30	21	36	31.0	-201917.0	-3458.0	87764.0
29	17	30	21	37	32.0	-200926.0	-3419.0	90889.0
29	17	30	21	38	33.0	-200477.0	-3393.0	103584.0
29	17	30	21	39	34.0	-201542.0	-3355.0	125564.0
29	17	30	21	39	35.0	-200081.0	-3356.0	126679.0
29	17	30	21	40	36.0	-199442.0	-3339.0	123234.0
29	17	30	21	41	37.0	-200710.0	-3296.0	123273.0
29	17	30	21	41	38.0	-198564.0	-3264.0	136690.0
29	17	30	21	42	39.0	-197106.0	-3236.0	163873.0
29	17	30	21	43	40.0	-197188.0	-3206.0	178254.0
29	17	30	21	43	41.0	-193542.0	-3184.0	185135.0
29	17	30	21	44	42.0	-189876.0	-3173.0	185248.0
29	17	30	21	45	43.0	-192414.0	-3130.0	184450.0
29	17	30	21	45	44.0	-192988.0	-3104.0	191834.0
29	17	30	21	46	45.0	-192373.0	-3094.0	184403.0
29	17	30	21	47	48.0	-198886.0	-3002.0	150954.0
29	17	30	21	47	49.0	-204714.0	-2989.0	159602.0
29	17	30	21	48	50.0	-210110.0	-2956.0	153999.0
29	17	30	21	48	51.0	-209579.0	-2912.0	139435.0
29	17	30	21	49	52.0	-215408.0	-2882.0	122578.0
29	17	30	21	50	53.0	-220786.0	-2826.0	112732.0
29	17	30	21	78	54.0	-218359.0	-2792.0	113216.0
29	17	30	21	78	55.0	-219077.0	-2771.0	95438.0
29	17	30	21	92	56.0	-224749.0	-2749.0	68776.0
29	17	30	21	92	57.0	-222917.0	-2721.0	43626.0
29	17	30	21	93	58.0	-221397.0	-2681.0	36871.0
29	17	30	21	94	59.0	-227108.0	-2667.0	45951.0
29	17	30	21	94	60.0	-226616.0	-2641.0	39424.0
29	17	30	21	95	61.0	-221731.0	-2598.0	20338.0
29	17	30	21	96	62.0	-224061.0	-2590.0	-445.0
29	17	30	21	96	63.0	-222712.0	-2566.0	-15334.0
29	17	30	21	97	64.0	-215739.0	-2526.0	-21721.0
29	17	30	21	97	65.0	-213956.0	-2507.0	-48357.0
29	17	30	21	98	66.0	-214439.0	-2486.0	-84970.0
29	17	30	21	99	67.0	-208882.0	-2481.0	-115454.0
29	17	30	21	99	68.0	-204916.0	-2436.0	-126706.0
29	17	30	21	100	70.0	-201042.0	-2381.0	-124380.0
29	17	30	21	101	71.0	-194888.0	-2359.0	-139018.0
29	17	30	21	102	72.0	-193091.0	-2334.0	-158589.0
29	17	30	21	102	73.0	-190004.0	-2285.0	-172577.0
29	17	30	21	103	74.0	-183344.0	-2264.0	-178537.0
29	17	30	21	104	75.0	-177737.0	-2244.0	-203314.0
29	17	30	21	104	76.0	-174263.0	-2208.0	-230637.0
29	17	30	21	122	77.0	-168276.0	-2154.0	-253649.0
29	17	30	21	122	78.0	-162356.0	-2106.0	-260276.0
29	17	30	21	123	79.0	-159324.0	-2091.0	-251592.0
29	17	30	21	124	80.0	-156954.0	-2080.0	-256327.0
29	17	30	21	125	81.0	-154099.0	-2077.0	-277239.0
29	17	30	21	125	82.0	-152974.0	-2058.0	-304864.0
29	17	30	21	126	83.0	-153130.0	-2022.0	-327834.0
29	17	30	21	127	84.0	-153341.0	-2011.0	-354361.0
29	17	30	21	127	85.0	-155737.0	-1994.0	-402956.0
29	17	30	21	128	86.0	-159761.0	-1984.0	-456820.0
29	17	30	21	129	87.0	-163637.0	-1945.0	-494072.0
29	17	30	21	130	88.0	-168371.0	-1939.0	-509508.0
29	17	30	21	130	89.0	-174400.0	-1922.0	-505241.0
29	17	30	21	131	90.0	-182531.0	-1904.0	-512402.0
29	17	30	21	166	91.0	-191092.0	-1884.0	-533568.0
29	17	30	21	191	92.0	-202104.0	-1863.0	-563013.0
29	17	30	21	192	93.0	-214443.0	-1834.0	-590886.0
29	17	30	21	193	94.0	-226203.0	-1821.0	-610979.0
29	17	30	21	193	95.0	-237324.0	-1791.0	-653682.0
29	17	30	21	194	96.0	-249392.0	-1771.0	-710373.0
29	17	30	21	194	97.0	-257597.0	-1749.0	-765911.0
29	17	30	21	195	98.0	-258889.0	-1711.0	-794489.0
29	17	30	21	196	99.0	-265132.0	-1689.0	-798917.0
29	17	30	21	196	100.0	-273203.0	-1677.0	-814781.0
29	17	30	21	197	101.0	-268599.0	-1671.0	-840227.0
29	17	30	21	198	102.0	-266571.0	-1682.0	-863235.0
29	17	30	21	198	103.0	-268049.0	-1654.0	-872212.0
29	17	30	21	199	104.0	-259762.0	-1624.0	-859926.0
29	17	30	21	199	105.0	-244861.0	-1619.0	-842950.0
29	17	30	21	200	106.0	-242240.0	-1610.0	-823825.0
29	17	30	21	201	115.0	-157568.0	-1516.0	-618892.0
29	17	30	21	201	116.0	-154614.0	-1508.0	-632868.0
29	17	30	21	202	117.0	-140410.0	-1478.0	-642392.0
29	17	30	21	202	118.0	-123816.0	-1449.0	-628708.0
29	17	30	21	203	119.0	-122991.0	-1439.0	-599603.0
29	17	30	21	204	120.0	-122273.0	-1420.0	-590661.0
29	17	30	21	204	121.0	-120686.0	-1412.0	-594919.0
29	17	30	21	215	122.0	-138132.0	-1393.0	-604171.0
29	17	30	21	216	123.0	-159484.0	-1354.0	-607689.0
29	17	30	21	216	124.0	-171996.0	-1349.0	-606735.0
29	17	30	21	217	125.0	-194826.0	-1357.0	-628391.0
29	17	30	21	218	126.0	-218742.0	-1345.0	-654538.0
29	17	30	21	219	127.0	-224327.0	-1329.0	-673272.0
29	17	30	21	219	128.0	-226085.0	-1312.0	-667971.0
29	17	30	21	220	129.0	-234481.0	-1312.0	-646374.0
29	17	30	21	221	130.0	-230021.0	-1310.0	-641161.0
29	17	30	21	221	131.0	-220112.0	-1307.0	-648027.0
29	17	30	21	222	132.0	-228188.0	-1304.0	-660254.0
29	17	30	21	223	133.0	-232314.0	-1286.0	-663520.0
29	17	30	21	223	134.0	-221371.0	-1283.0	-660025.0
29	17	30	21	224	135.0	-220637.0	-1286.0	-678215.0
29	17	30	21	225	136.0	-218234.0	-1294.0	-699834.0
29	17	30	21	225	137.0	-205062.0	-1288.0	-716572.0
29	17	30	21	226	138.0	-207890.0	-1257.0	-708674.0
29	17	30	21	226	139.0	-221835.0	-1248.0	-684662.0
29	17	30	21	227	140.0	-220536.0	-1246.0	-679466.0
29	17	30	21	228	141.0	-214025.0	-1237.0	-689021.0
29	17	30	21	228	142.0	-224107.0	-1215.0	-701893.0
29	17	30	21	229	143.0	-228587.0	-1193.0	-705623.0
29	17	30	21	257	144.0	-222494.0	-1185.0	-703804.0
29	17	30	21	258	145.0	-230293.0	-1176.0	-722326.0
29	17	30	21	258	146.0	-237381.0	-1154.0	-744475.0
29	17	30	21	259	147.0	-230946.0	-1154.0	-759062.0
29	17	30	21	260	148.0	-227346.0	-1149.0	-750036.0
29	17	30	21	260	149.0	-228682.0	-1144.0	-725879.0
29	17	30	21	261	150.0	-215499.0	-1155.0	-720849.0
29	17	30	21	262	151.0	-197726.0	-1161.0	-729141.0
29	17	30	21	262	152.0	-194870.0	-1158.0	-742487.0
29	17	30	21	263	153.0	-188508.0	-1146.0	-748976.0
29	17	30	21	264	154.0	-174939.0	-1151.0	-748902.0
29	17	30	21	265	155.0	-172949.0	-1166.0	-769170.0
29	17	30	21	266	156.0	-175859.0	-1168.0	-793156.0
29	17	30	21	267	157.0	-167877.0	-1159.0	-807314.0
29	17	30	21	267	158.0	-161220.0	-1137.0	-794037.0
29	17	30	21	268	160.0	-167196.0	-1129.0	-760974.0
29	17	30	21	269	161.0	-160168.0	-1133.0	-767327.0
29	17	30	21	269	162.0	-162159.0	-1137.0	-779703.0
29	17	30	21	270	163.0	-168397.0	-1116.0	-783269.0
29	17	30	21	270	164.0	-166434.0	-1105.0	-779836.0
29	17	30	21	271	165.0	-164336.0	-1104.0	-795860.0
29	17	30	21	302	166.0	-169954.0	-1087.0	-816840.0
29	17	30	21	303	167.0	-173150.0	-1057.0	-832086.0
29	17	30	21	304	168.0	-170161.0	-1038.0	-819232.0
29	17	30	21	304	169.0	-171656.0	-1049.0	-791889.0
29	17	30	21	305	170.0	-179581.0	-1065.0	-783691.0
29	17	30	21	306	171.0	-182460.0	-1079.0	-789067.0
29	17	30	21	306	172.0	-183765.0	-1071.0	-798622.0
29	17	30	21	307	173.0	-191307.0	-1056.0	-797011.0
29	17	30	21	308	174.0	-200249.0	-1079.0	-792050.0
29	17	30	21	308	175.0	-203014.0	-1091.0	-810566.0
29	17	30	21	309	176.0	-207201.0	-1086.0	-833302.0
29	17	30	21	310	177.0	-215432.0	-1086.0	-851457.0
29	17	30	21	311	178.0	-220704.0	-1078.0	-844153.0
29	17	30	21	311	179.0	-221457.0	-1089.0	-820201.0
29	17	30	21	312	180.0	-224787.0	-1089.0	-815111.0
29	17	30	21	313	182.0	-228821.0	-1081.0	-830297.0
29	17	30	21	313	183.0	-229009.0	-1072.0	-828501.0
29	17	30	21	314	184.0	-231204.0	-1070.0	-823194.0
29	17	30	21	315	185.0	-231942.0	-1062.0	-842287.0
29	17	30	21	315	186.0	-230691.0	-1056.0	-862977.0
29	17	30	21	316	187.0	-230227.0	-1030.0	-876209.0
29	17	30	21	317	188.0	-229067.0	-1004.0	-862864.0
29	17	30	21	347	189.0	-226669.0	-1011.0	-836444.0
29	17	30	21	348	190.0	-223557.0	-987.0	-827228.0
29	17	30	21	349	191.0	-219829.0	-1005.0	-829893.0
29	17	30	21	350	192.0	-215773.0	-1006.0	-837601.0
29	17	30	21	350	193.0	-210864.0	-1007.0	-833869.0
29	17	30	21	351	194.0	-205855.0	-1032.0	-827034.0
29	17	30	21	352	195.0	-201772.0	-1035.0	-843967.0
29	17	30	21	352	196.0	-198347.0	-1039.0	-866166.0
29	17	30	21	353	197.0	-194908.0	-1020.0	-881371.0
29	17	30	21	354	198.0	-191422.0	-1021.0	-868951.0
29	17	30	21	354	199.0	-188388.0	-1030.0	-844383.0
29	17	30	21	355	200.0	-186220.0	-1041.0	-839752.0
29	17	30	21	356	201.0	-184306.0	-1055.0	-846352.0
29	17	30	21	356	202.0	-182633.0	-1053.0	-856255.0
29	17	30	21	357	203.0	-180986.0	-1019.0	-853197.0
29	17	30	21	358	205.0	-179289.0	-1039.0	-860115.0
29	17	30	21	358	206.0	-178612.0	-1050.0	-878699.0
29	17	30	21	359	207.0	-178344.0	-1040.0	-890472.0
29	17	30	21	360	208.0	-178477.0	-1005.0	-875434.0
29	17	30	21	360	209.0	-179346.0	-1010.0	-849857.0
29	17	30	21	361	210.0	-180171.0	-982.0	-845752.0
29	17	30	21	392	211.0	-181544.0	-986.0	-852563.0
29	17	30	21	393	212.0	-183906.0	-999.0	-862516.0
29	17	30	21	393	213.0	-187117.0	-982.0	-860012.0
29	17	30	21	394	214.0	-190315.0	-972.0	-855721.0
29	17	30	21	395	215.0	-193490.0	-991.0	-873855.0
29	17	30	21	395	216.0	-196267.0	-1006.0	-896910.0
29	17	30	21	396	217.0	-198650.0	-992.0	-913004.0
29	17	30	21	397	218.0	-200726.0	-992.0	-901644.0
29	17	30	21	398	219.0	-203062.0	-1014.0	-878012.0
29	17	30	21	398	220.0	-204920.0	-1031.0	-870827.0
29	17	30	21	399	221.0	-206464.0	-1014.0	-874514.0
29	17	30	21	400	222.0	-207849.0	-1009.0	-881314.0
29	17	30	21	400	223.0	-209249.0	-1012.0	-878033.0
29	17	30	21	401	224.0	-211340.0	-1037.0	-873444.0
29	17	30	21	402	225.0	-213324.0	-1060.0	-889824.0
29	17	30	21	402	227.0	-215087.0	-1011.0	-923630.0
29	17	30	21	403	228.0	-214660.0	-999.0	-914347.0
29	17	30	21	404	229.0	-213537.0	-997.0	-895710.0
29	17	30	21	404	230.0	-212041.0	-982.0	-887131.0
29	17	30	21	405	231.0	-210471.0	-982.0	-883096.0
29	17	30	21	406	232.0	-208592.0	-983.0	-883332.0
29	17	30	21	406	233.0	-206604.0	-968.0	-873751.0
29	17	30	21	437	234.0	-205022.0	-982.0	-866304.0
29	17	30	21	438	235.0	-204244.0	-979.0	-881094.0
29	17	30	21	439	236.0	-203449.0	-967.0	-900794.0
29	17	30	21	439	237.0	-202129.0	-956.0	-914318.0
29	17	30	21	440	238.0	-200763.0	-947.0	-901306.0
29	17	30	21	441	239.0	-199527.0	-971.0	-880321.0
29	17	30	21	442	240.0	-199166.0	-975.0	-879270.0
29	17	30	21	442	241.0	-198898.0	-961.0	-889219.0
29	17	30	21	443	242.0	-198865.0	-956.0	-902909.0
29	17	30	21	444	243.0	-198194.0	-967.0	-902034.0
29	17	30	21	444	244.0	-197479.0	-972.0	-901424.0
29	17	30	21	445	245.0	-196135.0	-974.0	-920834.0
29	17	30	21	446	246.0	-194734.0	-971.0	-938551.0
29	17	30	21	446	247.0	-193532.0	-976.0	-946323.0
29	17	30	21	447	248.0	-191611.0	-969.0	-924779.0
29	17	30	21	448	250.0	-187918.0	-974.0	-884300.0
29	17	30	21	448	251.0	-186886.0	-972.0	-883448.0
29	17	30	21	449	252.0	-186576.0	-945.0	-888587.0
29	17	30	21	450	253.0	-187223.0	-920.0	-884003.0
29	17	30	21	450	254.0	-188303.0	-919.0	-881142.0
29	17	30	21	451	255.0	-189715.0	-927.0	-899312.0
29	17	30	21	528	0.0	-190234.0	-916.0	-917236.0
29	17	30	21	529	1.0	-190411.0	-908.0	-924521.0
29	17	30	21	530	2.0	-191226.0	-899.0	-903585.0
29	17	30	21	531	3.0	-192547.0	-905.0	-872589.0
29	17	30	21	531	4.0	-194316.0	-912.0	-862037.0
29	17	30	21	532	5.0	-196791.0	-919.0	-861744.0
29	17	30	21	533	6.0	-198869.0	-906.0	-862519.0
29	17	30	21	533	7.0	-200289.0	-897.0	-850942.0
29	17	30	21	534	8.0	-201221.0	-909.0	-844124.0
29	17	30	21	535	9.0	-202253.0	-918.0	-861231.0
29	17	30	21	536	10.0	-203807.0	-924.0	-882325.0
29	17	30	21	536	11.0	-205298.0	-921.0	-894489.0
29	17	30	21	537	12.0	-206689.0	-901.0	-878306.0
29	17	30	21	538	13.0	-208099.0	-903.0	-855864.0
29	17	30	21	538	14.0	-209535.0	-914.0	-852863.0
29	17	30	21	539	16.0	-212985.0	-920.0	-870294.0
29	17	30	21	540	39.0	-216201.0	-919.0	-887145.0
29	17	30	21	540	40.0	-217572.0	-910.0	-908487.0
29	17	30	21	541	41.0	-218399.0	-894.0	-919301.0
29	17	30	21	541	42.0	-219051.0	-871.0	-898521.0
29	17	30	21	542	43.0	-218812.0	-859.0	-873346.0
29	17	30	21	543	44.0	-218395.0	-842.0	-869792.0
29	17	30	21	573	45.0	-216668.0	-831.0	-875319.0
29	17	30	21	573	46.0	-214581.0	-827.0	-883206.0
29	17	30	21	574	47.0	-213049.0	-819.0	-877974.0
29	17	30	21	575	48.0	-212661.0	-829.0	-878762.0
29	17	30	21	576	49.0	-212544.0	-837.0	-901647.0
29	17	30	21	576	50.0	-212165.0	-828.0	-926633.0
29	17	30	21	577	51.0	-212481.0	-823.0	-937825.0
29	17	30	21	578	52.0	-213481.0	-831.0	-919201.0
29	17	30	21	578	53.0	-213984.0	-843.0	-898576.0
29	17	30	21	579	54.0	-213397.0	-834.0	-895939.0
29	17	30	21	580	55.0	-211644.0	-826.0	-902743.0
29	17	30	21	581	56.0	-209309.0	-830.0	-911308.0
29	17	30	21	581	57.0	-206414.0	-839.0	-906499.0
29	17	30	21	582	58.0	-203102.0	-839.0	-909787.0
29	17	30	21	583	59.0	-199552.0	-857.0	-931091.0
29	17	30	21	584	61.0	-191607.0	-836.0	-960998.0
29	17	30	21	584	62.0	-188222.0	-832.0	-940294.0
29	17	30	21	585	63.0	-185381.0	-824.0	-917756.0
29	17	30	21	585	64.0	-183401.0	-824.0	-916117.0
29	17	30	21	586	65.0	-181917.0	-834.0	-923777.0
29	17	30	21	587	66.0	-180759.0	-809.0	-932125.0
29	17	30	21	587	67.0	-180452.0	-792.0	-925912.0
29	17	30	21	618	68.0	-181031.0	-798.0	-926871.0
29	17	30	21	618	69.0	-182781.0	-787.0	-948651.0
29	17	30	21	619	70.0	-185517.0	-800.0	-970451.0
29	17	30	21	620	71.0	-188419.0	-798.0	-978888.0
29	17	30	21	620	72.0	-191146.0	-783.0	-959614.0
29	17	30	21	621	73.0	-194115.0	-783.0	-938069.0
29	17	30	21	662	74.0	-197487.0	-799.0	-935895.0
29	17	30	21	663	75.0	-201827.0	-825.0	-943171.0
29	17	30	21	664	76.0	-207153.0	-834.0	-950981.0
29	17	30	21	664	77.0	-213218.0	-820.0	-943975.0
29	17	30	21	665	78.0	-219066.0	-834.0	-945361.0
29	17	30	21	666	79.0	-224126.0	-842.0	-965971.0
29	17	30	21	667	80.0	-227874.0	-837.0	-986991.0
29	17	30	21	667	81.0	-230182.0	-824.0	-996556.0
29	17	30	21	668	82.0	-231374.0	-841.0	-976825.0
29	17	30	21	669	84.0	-230496.0	-852.0	-953271.0
29	17	30	21	670	85.0	-228167.0	-847.0	-958547.0
29	17	30	21	670	86.0	-225074.0	-842.0	-962813.0
29	17	30	21	671	87.0	-221831.0	-858.0	-953687.0
29	17	30	21	672	88.0	-218642.0	-864.0	-953532.0
29	17	30	21	673	89.0	-215613.0	-863.0	-971051.0
29	17	30	21	673	90.0	-213104.0	-867.0	-989647.0
29	17	30	21	674	106.0	-184702.0	-903.0	-966543.0
29	17	30	21	674	107.0	-182867.0	-896.0	-961135.0
29	17	30	21	675	108.0	-181652.0	-904.0	-968295.0
29	17	30	21	676	109.0	-180151.0	-898.0	-991893.0
29	17	30	21	676	110.0	-178265.0	-876.0	-1016008.0
29	17	30	21	677	111.0	-177727.0	-856.0	-1025182.0
29	17	30	21	678	112.0	-178224.0	-841.0	-1004461.0
29	17	30	21	707	113.0	-178681.0	-846.0	-985004.0
29	17	30	21	708	114.0	-179129.0	-842.0	-983617.0
29	17	30	21	708	115.0	-179819.0	-843.0	-991153.0
29	17	30	21	709	116.0	-180227.0	-855.0	-997579.0
29	17	30	21	710	117.0	-180954.0	-871.0	-987604.0
29	17	30	21	710	118.0	-181601.0	-873.0	-989866.0
29	17	30	21	798	119.0	-181225.0	-867.0	-1010946.0
29	17	30	21	799	120.0	-180776.0	-881.0	-1032671.0
29	17	30	21	799	121.0	-181184.0	-884.0	-1038116.0
29	17	30	21	800	122.0	-182368.0	-861.0	-1014147.0
29	17	30	21	801	123.0	-184139.0	-887.0	-992013.0
29	17	30	21	802	124.0	-186676.0	-896.0	-986532.0
29	17	30	21	802	125.0	-189753.0	-901.0	-992469.0
29	17	30	21	803	126.0	-192504.0	-908.0	-998349.0
29	17	30	21	804	127.0	-195634.0	-895.0	-988821.0
29	17	30	21	804	128.0	-199738.0	-920.0	-991967.0
29	17	30	21	805	129.0	-203872.0	-919.0	-1012339.0
29	17	30	21	806	130.0	-207557.0	-918.0	-1030941.0
29	17	30	21	807	131.0	-211264.0	-902.0	-1033172.0
29	17	30	21	807	132.0	-214452.0	-906.0	-1006507.0
29	17	30	21	808	133.0	-216851.0	-902.0	-981829.0
29	17	30	21	809	134.0	-219346.0	-909.0	-975101.0
29	17	30	21	809	174.0	-172979.0	-1102.0	-853642.0
29	17	30	21	810	175.0	-175631.0	-1079.0	-859389.0
29	17	30	21	811	176.0	-177607.0	-1056.0	-864983.0
29	17	30	21	811	177.0	-180012.0	-1059.0	-857214.0
29	17	30	21	843	178.0	-184177.0	-1069.0	-864127.0
29	17	30	21	887	179.0	-189091.0	-1037.0	-887892.0
29	17	30	21	889	180.0	-194161.0	-994.0	-911156.0
29	17	30	21	891	181.0	-198613.0	-986.0	-915541.0
29	17	30	21	892	182.0	-202668.0	-992.0	-890596.0
29	17	30	21	892	183.0	-205276.0	-1009.0	-871906.0
29	17	30	21	894	184.0	-206042.0	-1023.0	-871355.0
29	17	30	21	895	185.0	-205451.0	-1024.0	-877175.0
29	17	30	21	896	186.0	-204887.0	-1020.0	-872019.0
29	17	30	21	897	187.0	-204330.0	-1023.0	-842432.0
29	17	30	21	898	188.0	-203662.0	-1021.0	-834409.0
29	17	30	21	898	189.0	-203444.0	-1022.0	-847762.0
29	17	30	21	899	190.0	-203670.0	-1038.0	-864964.0
29	17	30	21	900	191.0	-203649.0	-1030.0	-867608.0
29	17	30	21	900	192.0	-203864.0	-1031.0	-843337.0
29	17	30	21	901	196.0	-208334.0	-1034.0	-832322.0
29	17	30	21	902	218.0	-190546.0	-1053.0	-460321.0
29	17	30	21	902	219.0	-191210.0	-1036.0	-441580.0
29	17	30	21	903	220.0	-191057.0	-1026.0	-421029.0
29	17	30	21	904	221.0	-191557.0	-984.0	-366610.0
29	17	30	21	904	222.0	-192229.0	-951.0	-264411.0
29	17	30	21	905	223.0	-192754.0	-964.0	-166221.0
29	17	30	21	905	224.0	-193489.0	-953.0	-96069.0
29	17	30	21	978	225.0	-194260.0	-946.0	-31037.0
29	17	30	21	979	226.0	-194502.0	-924.0	59011.0
29	17	30	21	979	227.0	-194547.0	-907.0	162947.0
29	17	30	21	980	228.0	-194623.0	-931.0	238456.0
29	17	30	21	981	229.0	-195347.0	-932.0	301347.0
29	17	30	21	982	230.0	-196771.0	-921.0	365086.0
29	17	30	21	982	231.0	-198542.0	-898.0	435829.0
29	17	30	21	983	232.0	-199701.0	-897.0	514332.0
29	17	30	21	984	233.0	-200665.0	-923.0	564926.0
29	17	30	21	985	234.0	-202660.0	-922.0	588453.0
29	17	30	21	985	235.0	-204274.0	-927.0	595089.0
29	17	30	21	986	236.0	-205987.0	-921.0	596196.0
29	17	30	21	987	237.0	-207029.0	-927.0	602953.0
29	17	30	21	988	238.0	-208464.0	-923.0	586195.0
29	17	30	21	988	239.0	-209859.0	-931.0	552658.0
29	17	30	21	989	241.0	-212441.0	-896.0	503246.0
29	17	30	21	990	8.0	-201306.0	-768.0	-223765.0
29	17	30	21	990	9.0	-201871.0	-767.0	-253615.0
29	17	30	21	991	10.0	-202083.0	-760.0	-275179.0
29	17	30	21	991	11.0	-202905.0	-734.0	-284737.0
29	17	30	21	992	12.0	-203539.0	-723.0	-314247.0
29	17	30	21	993	13.0	-202807.0	-708.0	-351903.0
29	17	30	22	23	14.0	-201854.0	-674.0	-384721.0
29	17	30	22	24	15.0	-200802.0	-644.0	-395051.0
29	17	30	22	25	16.0	-199581.0	-643.0	-380101.0
29	17	30	22	26	17.0	-198643.0	-651.0	-375440.0
29	17	30	22	27	18.0	-197930.0	-647.0	-383373.0
29	17	30	22	27	19.0	-197959.0	-624.0	-398509.0
29	17	30	22	28	20.0	-198894.0	-625.0	-409082.0
29	17	30	22	29	21.0	-200403.0	-610.0	-410675.0
29	17	30	22	30	22.0	-201614.0	-604.0	-434157.0
29	17	30	22	30	23.0	-202410.0	-606.0	-466666.0
29	17	30	22	31	24.0	-203490.0	-595.0	-495884.0
29	17	30	22	32	25.0	-204344.0	-572.0	-501564.0
29	17	30	22	33	26.0	-205194.0	-565.0	-484462.0
29	17	30	22	33	27.0	-206856.0	-551.0	-482354.0
29	17	30	22	34	28.0	-208270.0	-544.0	-494716.0
29	17	30	22	34	30.0	-206839.0	-526.0	-520213.0
29	17	30	22	35	31.0	-205661.0	-531.0	-519237.0
29	17	30	22	36	32.0	-204427.0	-510.0	-538009.0
29	17	30	22	36	33.0	-202817.0	-477.0	-565646.0
29	17	30	22	37	34.0	-201494.0	-448.0	-588132.0
29	17	30	22	38	35.0	-200727.0	-432.0	-586307.0
29	17	30	22	66	36.0	-199501.0	-396.0	-560874.0
29	17	30	22	67	37.0	-197182.0	-401.0	-549509.0
29	17	30	22	68	38.0	-195030.0	-396.0	-554764.0
29	17	30	22	69	39.0	-193806.0	-379.0	-568134.0
29	17	30	22	70	40.0	-192737.0	-375.0	-576442.0
29	17	30	22	70	41.0	-191421.0	-371.0	-575462.0
29	17	30	22	71	42.0	-190619.0	-367.0	-596572.0
29	17	30	22	72	43.0	-190531.0	-359.0	-627051.0
29	17	30	22	73	44.0	-190521.0	-358.0	-651766.0
29	17	30	22	73	45.0	-190162.0	-344.0	-650857.0
29	17	30	22	74	46.0	-189597.0	-339.0	-625914.0
29	17	30	22	75	47.0	-189895.0	-334.0	-617540.0
29	17	30	22	76	48.0	-190427.0	-320.0	-624720.0
29	17	30	22	76	49.0	-191347.0	-312.0	-640534.0
29	17	30	22	77	50.0	-192604.0	-293.0	-650110.0
29	17	30	22	78	52.0	-195647.0	-283.0	-670533.0
29	17	30	22	79	53.0	-197182.0	-269.0	-700677.0
29	17	30	22	80	54.0	-198814.0	-251.0	-725707.0
29	17	30	22	80	55.0	-200911.0	-231.0	-723092.0
29	17	30	22	81	56.0	-203144.0	-217.0	-698192.0
29	17	30	22	81	57.0	-205469.0	-182.0	-689388.0
29	17	30	22	82	58.0	-207547.0	-162.0	-695209.0
29	17	30	22	111	59.0	-209004.0	-153.0	-706499.0
29	17	30	22	112	60.0	-210181.0	-124.0	-707187.0
29	17	30	22	113	61.0	-211829.0	-124.0	-696612.0
29	17	30	22	113	62.0	-212857.0	-121.0	-708200.0
29	17	30	22	114	63.0	-212682.0	-108.0	-729236.0
29	17	30	22	115	64.0	-211972.0	-109.0	-747839.0
29	17	30	22	116	65.0	-212034.0	-92.0	-741424.0
29	17	30	22	116	66.0	-214014.0	-79.0	-712745.0
29	17	30	22	117	67.0	-216757.0	-59.0	-700631.0
29	17	30	22	118	68.0	-219664.0	-60.0	-702707.0
29	17	30	22	118	69.0	-223873.0	-51.0	-709208.0
29	17	30	22	157	70.0	-228507.0	-27.0	-707117.0
29	17	30	22	158	71.0	-233221.0	-18.0	-697880.0
29	17	30	22	159	72.0	-238067.0	-9.0	-708231.0
29	17	30	22	160	73.0	-244752.0	-19.0	-727569.0
29	17	30	22	160	75.0	-260190.0	4.0	-730964.0
29	17	30	22	161	76.0	-262998.0	15.0	-697964.0
29	17	30	22	162	77.0	-262347.0	59.0	-678691.0
29	17	30	22	163	78.0	-259563.0	72.0	-671583.0
29	17	30	22	163	79.0	-256063.0	91.0	-670354.0
29	17	30	22	164	80.0	-252312.0	119.0	-661513.0
29	17	30	22	165	81.0	-247282.0	118.0	-645542.0
29	17	30	22	166	82.0	-241667.0	129.0	-653202.0
29	17	30	22	166	83.0	-236074.0	160.0	-670427.0
29	17	30	22	167	84.0	-230014.0	174.0	-683687.0
29	17	30	22	168	85.0	-222831.0	206.0	-670619.0
29	17	30	22	169	86.0	-214454.0	192.0	-638709.0
29	17	30	22	170	97.0	-170965.0	341.0	-630854.0
29	17	30	22	170	98.0	-170764.0	381.0	-638547.0
29	17	30	22	171	99.0	-170572.0	410.0	-649208.0
29	17	30	22	172	100.0	-171756.0	434.0	-646964.0
29	17	30	22	173	101.0	-173993.0	469.0	-634734.0
29	17	30	22	173	102.0	-176742.0	493.0	-645839.0
29	17	30	22	174	103.0	-179144.0	515.0	-662000.0
29	17	30	22	217	104.0	-181828.0	533.0	-669208.0
29	17	30	22	235	105.0	-184903.0	569.0	-647357.0
29	17	30	22	236	106.0	-188021.0	593.0	-605266.0
29	17	30	22	236	107.0	-190779.0	603.0	-579178.0
29	17	30	22	237	108.0	-193690.0	623.0	-567271.0
29	17	30	22	238	109.0	-196405.0	634.0	-555201.0
29	17	30	22	239	110.0	-198818.0	656.0	-530397.0
29	17	30	22	240	111.0	-201994.0	678.0	-499716.0
29	17	30	22	241	112.0	-206109.0	664.0	-493464.0
29	17	30	22	241	113.0	-210506.0	668.0	-497473.0
29	17	30	22	242	114.0	-214959.0	691.0	-498327.0
29	17	30	22	242	115.0	-218478.0	738.0	-473252.0
29	17	30	22	243	116.0	-219460.0	757.0	-431043.0
29	17	30	22	244	117.0	-217790.0	757.0	-407340.0
29	17	30	22	244	118.0	-217269.0	763.0	-395571.0
29	17	30	22	245	127.0	-223434.0	885.0	-244572.0
29	17	30	22	246	135.0	-142768.0	988.0	-141667.0
29	17	30	22	246	136.0	-141022.0	993.0	-100733.0
29	17	30	22	247	137.0	-143739.0	995.0	-78429.0
29	17	30	22	248	138.0	-156651.0	1018.0	-67367.0
29	17	30	22	262	139.0	-159841.0	1045.0	-58811.0
29	17	30	22	262	140.0	-179821.0	1082.0	-41312.0
29	17	30	22	270	141.0	-182606.0	1092.0	-22345.0
29	17	30	22	273	142.0	-193249.0	1091.0	-23862.0
29	17	30	22	273	143.0	-196227.0	1087.0	-29250.0
29	17	30	22	274	144.0	-194117.0	1111.0	-28763.0
29	17	30	22	275	145.0	-198090.0	1136.0	-4682.0
29	17	30	22	275	146.0	-185169.0	1144.0	30081.0
29	17	30	22	276	147.0	-187228.0	1150.0	48469.0
29	17	30	22	277	148.0	-178130.0	1164.0	55891.0
29	17	30	22	277	149.0	-175967.0	1183.0	59394.0
29	17	30	22	278	150.0	-177344.0	1181.0	74143.0
29	17	30	22	278	151.0	-170112.0	1189.0	89450.0
29	17	30	22	279	152.0	-179092.0	1227.0	82055.0
29	17	30	22	280	153.0	-173670.0	1238.0	72084.0
29	17	30	22	322	154.0	-180932.0	1268.0	70619.0
29	17	30	22	323	155.0	-184890.0	1288.0	94628.0
29	17	30	22	324	156.0	-184045.0	1302.0	127256.0
29	17	30	22	324	157.0	-197116.0	1279.0	142181.0
29	17	30	22	325	158.0	-192841.0	1289.0	146136.0
29	17	30	22	325	159.0	-201993.0	1301.0	147773.0
29	17	30	22	326	160.0	-201104.0	1313.0	161424.0
29	17	30	22	327	161.0	-195902.0	1318.0	175008.0
29	17	30	22	327	162.0	-201726.0	1319.0	167481.0
29	17	30	22	336	163.0	-189692.0	1327.0	157509.0
29	17	30	22	337	164.0	-194210.0	1349.0	154438.0
29	17	30	22	338	165.0	-190017.0	1357.0	174790.0
29	17	30	22	339	166.0	-184840.0	1359.0	205917.0
29	17	30	22	340	167.0	-193157.0	1365.0	225171.0
29	17	30	22	340	168.0	-183379.0	1359.0	235486.0
29	17	30	22	341	169.0	-188667.0	1353.0	239505.0
29	17	30	22	342	180.0	-198839.0	1394.0	340623.0
29	17	30	22	342	181.0	-189266.0	1388.0	348782.0
29	17	30	22	343	182.0	-192384.0	1406.0	339228.0
29	17	30	22	343	183.0	-193361.0	1411.0	329025.0
29	17	30	22	344	184.0	-184043.0	1437.0	325419.0
29	17	30	22	345	185.0	-191429.0	1424.0	344442.0
29	17	30	22	345	186.0	-186223.0	1424.0	370213.0
29	17	30	22	346	187.0	-182052.0	1437.0	377047.0
29	17	30	22	360	188.0	-189972.0	1436.0	375980.0
29	17	30	22	360	189.0	-181731.0	1430.0	374441.0
29	17	30	22	361	190.0	-183715.0	1442.0	383804.0
29	17	30	22	362	191.0	-188282.0	1448.0	391800.0
29	17	30	22	362	192.0	-179797.0	1460.0	383107.0
29	17	30	22	363	193.0	-186251.0	1444.0	373669.0
29	17	30	22	363	194.0	-185684.0	1438.0	368945.0
29	17	30	22	364	195.0	-178587.0	1439.0	386394.0
29	17	30	22	365	196.0	-186171.0	1443.0	411209.0
29	17	30	22	382	197.0	-181084.0	1446.0	417948.0
29	17	30	22	383	198.0	-176186.0	1451.0	415485.0
29	17	30	22	384	199.0	-182430.0	1447.0	412156.0
29	17	30	22	384	200.0	-174772.0	1446.0	421710.0
29	17	30	22	385	201.0	-174442.0	1454.0	428677.0
29	17	30	22	386	202.0	-178236.0	1431.0	416590.0
29	17	30	22	386	203.0	-169036.0	1409.0	402751.0
29	17	30	22	387	204.0	-172742.0	1423.0	397056.0
29	17	30	22	388	205.0	-174745.0	1433.0	416169.0
29	17	30	22	388	206.0	-166058.0	1426.0	440138.0
29	17	30	22	389	207.0	-171822.0	1401.0	445217.0
29	17	30	22	390	208.0	-170831.0	1397.0	441517.0
29	17	30	22	390	209.0	-163620.0	1402.0	436023.0
29	17	30	22	391	210.0	-172038.0	1395.0	442044.0
29	17	30	22	392	211.0	-169651.0	1391.0	444201.0
29	17	30	22	392	212.0	-166432.0	1401.0	429811.0
29	17	30	22	393	213.0	-176407.0	1408.0	414559.0
29	17	30	22	393	214.0	-172973.0	1399.0	407927.0
29	17	30	22	404	215.0	-173804.0	1421.0	425981.0
29	17	30	22	405	216.0	-183858.0	1423.0	447014.0
29	17	30	22	428	217.0	-180131.0	1423.0	450284.0
29	17	30	22	428	218.0	-185470.0	1413.0	446425.0
29	17	30	22	429	219.0	-193216.0	1405.0	441609.0
29	17	30	22	429	220.0	-187164.0	1403.0	447762.0
29	17	30	22	430	221.0	-193731.0	1392.0	447469.0
29	17	30	22	431	222.0	-197651.0	1380.0	431761.0
29	17	30	22	431	223.0	-190835.0	1363.0	417507.0
29	17	30	22	432	224.0	-199017.0	1363.0	413233.0
29	17	30	22	432	225.0	-200740.0	1359.0	430531.0
29	17	30	22	433	226.0	-195931.0	1358.0	450592.0
29	17	30	22	434	227.0	-206887.0	1348.0	454354.0
29	17	30	22	434	228.0	-207480.0	1351.0	451608.0
29	17	30	22	435	229.0	-205185.0	1368.0	448789.0
29	17	30	22	436	230.0	-217924.0	1371.0	456351.0
29	17	30	22	436	231.0	-217595.0	1359.0	458694.0
29	17	30	22	437	232.0	-217824.0	1328.0	442921.0
29	17	30	22	437	233.0	-228494.0	1306.0	427115.0
29	17	30	22	452	234.0	-225554.0	1303.0	421173.0
29	17	30	22	452	235.0	-227344.0	1329.0	439091.0
29	17	30	22	453	236.0	-233237.0	1329.0	458744.0
29	17	30	22	453	237.0	-227741.0	1309.0	461674.0
29	17	30	22	454	238.0	-232359.0	1292.0	457584.0
29	17	30	22	455	239.0	-234922.0	1284.0	451101.0
29	17	30	22	455	240.0	-228249.0	1276.0	455836.0
29	17	30	22	456	241.0	-235801.0	1266.0	456421.0
29	17	30	22	457	242.0	-236637.0	1261.0	441930.0
29	17	30	22	457	243.0	-231331.0	1260.0	428291.0
29	17	30	22	458	244.0	-238217.0	1255.0	423044.0
29	17	30	22	459	245.0	-233136.0	1249.0	441170.0
29	17	30	22	459	246.0	-227582.0	1234.0	461801.0
29	17	30	22	460	247.0	-233203.0	1217.0	464861.0
29	17	30	22	461	248.0	-225275.0	1203.0	463046.0
29	17	30	22	473	249.0	-221277.0	1218.0	472463.0
29	17	30	22	474	250.0	-226308.0	1212.0	507901.0
29	17	30	22	474	251.0	-216972.0	1186.0	530350.0
29	17	30	22	475	252.0	-214689.0	1184.0	530730.0
29	17	30	22	476	253.0	-217667.0	1146.0	525714.0
29	17	30	22	476	254.0	-207781.0	1139.0	527518.0
29	17	30	22	477	255.0	-208715.0	1142.0	552276.0
29	17	30	22	498	0.0	-211454.0	1120.0	575504.0
29	17	30	22	499	1.0	-202319.0	1130.0	580051.0
29	17	30	22	499	2.0	-205910.0	1118.0	575818.0
29	17	30	22	500	3.0	-206854.0	1103.0	568537.0
29	17	30	22	501	4.0	-197816.0	1098.0	573345.0
29	17	30	22	501	5.0	-202784.0	1068.0	569752.0
29	17	30	22	502	6.0	-202439.0	1050.0	550259.0
29	17	30	22	503	7.0	-193048.0	1046.0	532250.0
29	17	30	22	503	8.0	-201811.0	1044.0	524436.0
29	17	30	22	504	9.0	-203289.0	1048.0	539901.0
29	17	30	22	505	10.0	-192408.0	1031.0	554929.0
29	17	30	22	505	11.0	-201126.0	1009.0	553589.0
29	17	30	22	506	12.0	-203412.0	978.0	544996.0
29	17	30	22	506	13.0	-192994.0	987.0	536769.0
29	17	30	22	507	14.0	-198989.0	963.0	541462.0
29	17	30	22	520	15.0	-199917.0	943.0	539415.0
29	17	30	22	521	16.0	-192127.0	928.0	524463.0
29	17	30	22	522	17.0	-202309.0	922.0	510872.0
29	17	30	22	522	18.0	-204686.0	899.0	507911.0
29	17	30	22	523	19.0	-195075.0	891.0	530693.0
29	17	30	22	523	20.0	-201997.0	886.0	550353.0
29	17	30	22	524	21.0	-200030.0	863.0	553958.0
29	17	30	22	525	22.0	-187454.0	848.0	554766.0
29	17	30	22	543	23.0	-191927.0	846.0	556659.0
29	17	30	22	543	24.0	-188036.0	850.0	569772.0
29	17	30	22	544	25.0	-176416.0	821.0	574844.0
29	17	30	22	545	26.0	-184213.0	801.0	564069.0
29	17	30	22	545	27.0	-184006.0	785.0	552698.0
29	17	30	22	546	28.0	-176324.0	771.0	551324.0
29	17	30	22	547	29.0	-187312.0	758.0	572033.0
29	17	30	22	547	30.0	-191106.0	749.0	588774.0
29	17	30	22	548	31.0	-186870.0	734.0	589728.0
29	17	30	22	549	32.0	-199146.0	711.0	587598.0
29	17	30	22	549	33.0	-203130.0	706.0	584721.0
29	17	30	22	550	34.0	-197336.0	690.0	593711.0
29	17	30	22	551	35.0	-206349.0	654.0	594173.0
29	17	30	22	551	36.0	-206541.0	626.0	580139.0
29	17	30	22	552	37.0	-197806.0	628.0	567021.0
29	17	30	22	567	38.0	-204389.0	634.0	565259.0
29	17	30	22	568	39.0	-202296.0	634.0	585364.0
29	17	30	22	568	40.0	-193127.0	608.0	602790.0
29	17	30	22	569	41.0	-200155.0	579.0	603386.0
29	17	30	22	570	42.0	-199144.0	556.0	597051.0
29	17	30	22	570	43.0	-191699.0	544.0	590544.0
29	17	30	22	571	44.0	-199923.0	543.0	597596.0
29	17	30	22	591	45.0	-199768.0	516.0	596577.0
29	17	30	22	592	46.0	-195491.0	515.0	581908.0
29	17	30	22	592	47.0	-206297.0	499.0	568540.0
29	17	30	22	593	48.0	-205841.0	471.0	566664.0
29	17	30	22	594	49.0	-200889.0	466.0	587538.0
29	17	30	22	594	50.0	-207071.0	463.0	603288.0
29	17	30	22	595	51.0	-200201.0	440.0	605234.0
29	17	30	22	596	52.0	-193263.0	442.0	602244.0
29	17	30	22	596	53.0	-196149.0	426.0	600282.0
29	17	30	22	597	54.0	-186997.0	415.0	611022.0
29	17	30	22	598	55.0	-184467.0	371.0	612682.0
29	17	30	22	598	56.0	-187269.0	369.0	597611.0
29	17	30	22	599	57.0	-179101.0	356.0	584307.0
29	17	30	22	600	58.0	-182967.0	338.0	583804.0
29	17	30	22	600	59.0	-185855.0	328.0	605628.0
29	17	30	22	601	60.0	-181848.0	313.0	622566.0
29	17	30	22	602	61.0	-192644.0	316.0	624126.0
29	17	30	22	602	62.0	-194216.0	312.0	620346.0
29	17	30	22	603	63.0	-196517.0	304.0	618423.0
29	17	30	22	613	64.0	-208341.0	324.0	629629.0
29	17	30	22	614	65.0	-205547.0	303.0	630386.0
29	17	30	22	637	66.0	-212925.0	268.0	616933.0
29	17	30	22	637	67.0	-218107.0	255.0	603312.0
29	17	30	22	638	68.0	-213654.0	251.0	603080.0
29	17	30	22	638	69.0	-223542.0	236.0	625322.0
29	17	30	22	639	70.0	-219209.0	227.0	642335.0
29	17	30	22	640	71.0	-220071.0	198.0	643008.0
29	17	30	22	640	72.0	-224890.0	171.0	637659.0
29	17	30	22	641	73.0	-215527.0	154.0	633311.0
29	17	30	22	642	74.0	-221157.0	144.0	642524.0
29	17	30	22	642	75.0	-213512.0	148.0	640868.0
29	17	30	22	643	76.0	-208888.0	149.0	626459.0
29	17	30	22	643	77.0	-209804.0	142.0	613094.0
29	17	30	22	644	78.0	-196740.0	138.0	613380.0
29	17	30	22	645	79.0	-201950.0	130.0	634941.0
29	17	30	22	645	80.0	-191776.0	88.0	650719.0
29	17	30	22	646	81.0	-190819.0	77.0	653889.0
29	17	30	22	659	82.0	-191210.0	43.0	650915.0
29	17	30	22	660	83.0	-183073.0	41.0	648853.0
29	17	30	22	661	84.0	-191279.0	52.0	660120.0
29	17	30	22	661	85.0	-181365.0	15.0	660430.0
29	17	30	22	662	86.0	-189426.0	0.0	648997.0
29	17	30	22	663	87.0	-183217.0	-5.0	638803.0
29	17	30	22	663	88.0	-185934.0	-1.0	639590.0
29	17	30	22	664	89.0	-187059.0	-12.0	661199.0
29	17	30	22	683	90.0	-183917.0	-32.0	676634.0
29	17	30	22	684	91.0	-191800.0	-38.0	677378.0
29	17	30	22	685	92.0	-183842.0	-56.0	673691.0
29	17	30	22	686	93.0	-193987.0	-52.0	672128.0
29	17	30	22	686	94.0	-185542.0	-66.0	681567.0
29	17	30	22	687	95.0	-194391.0	-87.0	677054.0
29	17	30	22	688	96.0	-190247.0	-100.0	661329.0
29	17	30	22	689	97.0	-195364.0	-105.0	647896.0
29	17	30	22	689	98.0	-194336.0	-119.0	647596.0
29	17	30	22	690	99.0	-191639.0	-124.0	670266.0
29	17	30	22	691	100.0	-193590.0	-134.0	687768.0
29	17	30	22	691	101.0	-185789.0	-156.0	690096.0
29	17	30	22	692	102.0	-190636.0	-174.0	687361.0
29	17	30	22	693	103.0	-180161.0	-186.0	686821.0
29	17	30	22	693	104.0	-186538.0	-201.0	697603.0
29	17	30	22	694	105.0	-176083.0	-197.0	695926.0
29	17	30	22	694	106.0	-182287.0	-192.0	682004.0
29	17	30	22	695	107.0	-174646.0	-196.0	669022.0
29	17	30	22	696	108.0	-178494.0	-196.0	670299.0
29	17	30	22	697	109.0	-175055.0	-195.0	691891.0
29	17	30	22	697	110.0	-175036.0	-217.0	705423.0
29	17	30	22	711	111.0	-176542.0	-220.0	706690.0
29	17	30	22	712	112.0	-173297.0	-212.0	705613.0
29	17	30	22	712	113.0	-179587.0	-231.0	706404.0
29	17	30	22	713	114.0	-173408.0	-242.0	717973.0
29	17	30	22	714	115.0	-183082.0	-270.0	715805.0
29	17	30	22	715	116.0	-176614.0	-285.0	702162.0
29	17	30	22	715	117.0	-186694.0	-297.0	690362.0
29	17	30	22	716	118.0	-183163.0	-297.0	692735.0
29	17	30	22	716	119.0	-190027.0	-291.0	715961.0
29	17	30	22	717	120.0	-192423.0	-306.0	730246.0
29	17	30	22	733	121.0	-193337.0	-292.0	731491.0
29	17	30	22	734	122.0	-201092.0	-299.0	728161.0
29	17	30	22	734	123.0	-196787.0	-307.0	728007.0
29	17	30	22	735	124.0	-207803.0	-329.0	737469.0
29	17	30	22	736	125.0	-202106.0	-332.0	732493.0
29	17	30	22	736	126.0	-210816.0	-354.0	717657.0
29	17	30	22	756	127.0	-208266.0	-348.0	705751.0
29	17	30	22	757	128.0	-210072.0	-325.0	707148.0
29	17	30	22	757	129.0	-213742.0	-334.0	728432.0
29	17	30	22	758	130.0	-208971.0	-349.0	743342.0
29	17	30	22	759	131.0	-217680.0	-370.0	745081.0
29	17	30	22	759	132.0	-209888.0	-376.0	742131.0
29	17	30	22	760	133.0	-218113.0	-375.0	740634.0
29	17	30	22	760	134.0	-214437.0	-371.0	751347.0
29	17	30	22	761	135.0	-216577.0	-373.0	745816.0
29	17	30	22	762	136.0	-218277.0	-366.0	730393.0
29	17	30	22	762	137.0	-213118.0	-375.0	718472.0
29	17	30	22	763	138.0	-221258.0	-393.0	720613.0
29	17	30	22	763	139.0	-212671.0	-398.0	742814.0
29	17	30	22	764	140.0	-218579.0	-422.0	755459.0
29	17	30	22	765	141.0	-211840.0	-400.0	755733.0
29	17	30	22	765	142.0	-210403.0	-403.0	751879.0
29	17	30	22	780	143.0	-210750.0	-388.0	752187.0
29	17	30	22	780	144.0	-201498.0	-389.0	762776.0
29	17	30	22	781	145.0	-206248.0	-403.0	757787.0
29	17	30	22	782	146.0	-194476.0	-417.0	745314.0
29	17	30	22	782	147.0	-196416.0	-426.0	733503.0
29	17	30	22	783	148.0	-190707.0	-441.0	734479.0
29	17	30	22	783	149.0	-186039.0	-432.0	755008.0
29	17	30	22	803	150.0	-189779.0	-438.0	764361.0
29	17	30	22	803	151.0	-181191.0	-437.0	760468.0
29	17	30	22	804	152.0	-187951.0	-434.0	752609.0
29	17	30	22	805	153.0	-181531.0	-422.0	749623.0
29	17	30	22	805	154.0	-182623.0	-428.0	757033.0
29	17	30	22	806	155.0	-185301.0	-469.0	747956.0
29	17	30	22	806	156.0	-181242.0	-446.0	730421.0
29	17	30	22	807	157.0	-192114.0	-441.0	715683.0
29	17	30	22	808	158.0	-189448.0	-412.0	717003.0
29	17	30	22	808	159.0	-197137.0	-422.0	738571.0
29	17	30	22	809	160.0	-200827.0	-427.0	750338.0
29	17	30	22	809	161.0	-200173.0	-416.0	749264.0
29	17	30	22	810	162.0	-210450.0	-429.0	745188.0
29	17	30	22	811	163.0	-207346.0	-450.0	744423.0
29	17	30	22	811	164.0	-216042.0	-449.0	752129.0
29	17	30	22	825	165.0	-218734.0	-447.0	744451.0
29	17	30	22	825	166.0	-219537.0	-435.0	730143.0
29	17	30	22	826	167.0	-227477.0	-443.0	719096.0
29	17	30	22	827	168.0	-222722.0	-431.0	723959.0
29	17	30	22	827	169.0	-228724.0	-424.0	746504.0
29	17	30	22	828	170.0	-226652.0	-437.0	756458.0
29	17	30	22	829	171.0	-224695.0	-434.0	754764.0
29	17	30	22	829	172.0	-227679.0	-419.0	751816.0
29	17	30	22	849	173.0	-219586.0	-421.0	752181.0
29	17	30	22	849	174.0	-222627.0	-412.0	761756.0
29	17	30	22	850	175.0	-218718.0	-420.0	752785.0
29	17	30	22	850	176.0	-216706.0	-419.0	735463.0
29	17	30	22	851	177.0	-220378.0	-419.0	722498.0
29	17	30	22	852	178.0	-214531.0	-431.0	725603.0
29	17	30	22	852	179.0	-217814.0	-417.0	748314.0
29	17	30	22	853	180.0	-214799.0	-419.0	758702.0
29	17	30	22	854	181.0	-211466.0	-414.0	757349.0
29	17	30	22	854	182.0	-213443.0	-401.0	754161.0
29	17	30	22	855	183.0	-206729.0	-406.0	756876.0
29	17	30	22	856	184.0	-207122.0	-421.0	769129.0
29	17	30	22	856	185.0	-204303.0	-427.0	762707.0
29	17	30	22	857	186.0	-199324.0	-425.0	747008.0
29	17	30	22	857	187.0	-201219.0	-420.0	733479.0
29	17	30	22	871	188.0	-196794.0	-426.0	737482.0
29	17	30	22	872	189.0	-198144.0	-422.0	759367.0
29	17	30	22	872	190.0	-199936.0	-427.0	769053.0
29	17	30	22	873	191.0	-197642.0	-425.0	768008.0
29	17	30	22	873	192.0	-201337.0	-436.0	762741.0
29	17	30	22	874	193.0	-199453.0	-426.0	761728.0
29	17	30	22	875	194.0	-199665.0	-441.0	770684.0
29	17	30	22	896	195.0	-202357.0	-449.0	765388.0
29	17	30	22	897	196.0	-199624.0	-441.0	752479.0
29	17	30	22	898	197.0	-202135.0	-438.0	740748.0
29	17	30	22	898	198.0	-201402.0	-437.0	744668.0
29	17	30	22	899	199.0	-198646.0	-448.0	765889.0
29	17	30	22	900	200.0	-199173.0	-456.0	777443.0
29	17	30	22	900	201.0	-194089.0	-453.0	776566.0
29	17	30	22	901	202.0	-191822.0	-456.0	770165.0
29	17	30	22	902	203.0	-189535.0	-472.0	769966.0
29	17	30	22	902	204.0	-183428.0	-461.0	778216.0
29	17	30	22	903	205.0	-181528.0	-472.0	769487.0
29	17	30	22	904	206.0	-176944.0	-496.0	755414.0
29	17	30	22	904	207.0	-172782.0	-484.0	743037.0
29	17	30	22	905	208.0	-170813.0	-481.0	747334.0
29	17	30	22	906	209.0	-165586.0	-495.0	767654.0
29	17	30	22	906	210.0	-164790.0	-493.0	776435.0
29	17	30	22	907	211.0	-163399.0	-476.0	776272.0
29	17	30	22	908	212.0	-162138.0	-458.0	772307.0
29	17	30	22	908	213.0	-164356.0	-461.0	772123.0
29	17	30	22	909	214.0	-164043.0	-466.0	779816.0
29	17	30	22	910	215.0	-166443.0	-479.0	770209.0
29	17	30	22	921	216.0	-167849.0	-466.0	754221.0
29	17	30	22	922	217.0	-168962.0	-468.0	742369.0
29	17	30	22	923	218.0	-172301.0	-457.0	748059.0
29	17	30	22	923	219.0	-172711.0	-462.0	769144.0
29	17	30	22	924	220.0	-175606.0	-492.0	777791.0
29	17	30	22	925	221.0	-177517.0	-492.0	775501.0
29	17	30	22	925	222.0	-180097.0	-492.0	771440.0
29	17	30	22	926	223.0	-183888.0	-497.0	771946.0
29	17	30	22	927	224.0	-185712.0	-514.0	779543.0
29	17	30	22	927	225.0	-190395.0	-497.0	771150.0
29	17	30	22	945	226.0	-192792.0	-494.0	755978.0
29	17	30	22	945	227.0	-196696.0	-487.0	743995.0
29	17	30	22	946	228.0	-199222.0	-478.0	750611.0
29	17	30	22	947	229.0	-202245.0	-486.0	770994.0
29	17	30	22	947	230.0	-205797.0	-514.0	778112.0
29	17	30	22	948	231.0	-207520.0	-519.0	773669.0
29	17	30	22	967	232.0	-209641.0	-514.0	765451.0
29	17	30	22	968	233.0	-209834.0	-502.0	764444.0
29	17	30	22	969	234.0	-210730.0	-502.0	770697.0
29	17	30	22	969	235.0	-209815.0	-524.0	760495.0
29	17	30	22	970	236.0	-209509.0	-531.0	745861.0
29	17	30	22	971	237.0	-207236.0	-524.0	733691.0
29	17	30	22	971	238.0	-206889.0	-513.0	738315.0
29	17	30	22	972	239.0	-205079.0	-528.0	756941.0
29	17	30	22	973	240.0	-204907.0	-534.0	763655.0
29	17	30	22	973	241.0	-203563.0	-514.0	758970.0
29	17	30	22	974	242.0	-202753.0	-528.0	751687.0
29	17	30	22	974	243.0	-200667.0	-538.0	753229.0
29	17	30	22	975	244.0	-198635.0	-546.0	761041.0
29	17	30	22	976	245.0	-196664.0	-566.0	750878.0
29	17	30	22	976	246.0	-195014.0	-566.0	735502.0
29	17	30	22	991	247.0	-192598.0	-555.0	723358.0
29	17	30	22	991	248.0	-190986.0	-572.0	730689.0
29	17	30	22	992	249.0	-189395.0	-577.0	751568.0
29	17	30	22	993	250.0	-188902.0	-571.0	758525.0
29	17	30	22	993	251.0	-188935.0	-591.0	757036.0
29	17	30	22	994	252.0	-189508.0	-592.0	751817.0
29	17	30	22	995	253.0	-190961.0	-574.0	752387.0
29	17	30	22	996	254.0	-192531.0	-601.0	758851.0
29	17	30	22	996	255.0	-194110.0	-624.0	748851.0
29	17	30	22	997	0.0	-195392.0	-612.0	733699.0
29	17	30	22	998	1.0	-196176.0	-622.0	722950.0
29	17	30	22	998	2.0	-196844.0	-619.0	731328.0
29	17	30	22	999	3.0	-196876.0	-615.0	751384.0
29	17	30	23	0	4.0	-196585.0	-631.0	758013.0
29	17	30	23	13	5.0	-196134.0	-642.0	756316.0
29	17	30	23	14	6.0	-195599.0	-647.0	754259.0
29	17	30	23	15	7.0	-195592.0	-642.0	758701.0
29	17	30	23	16	8.0	-195913.0	-644.0	767016.0
29	17	30	23	16	9.0	-196674.0	-651.0	754458.0
29	17	30	23	17	10.0	-197770.0	-649.0	738307.0
29	17	30	23	18	11.0	-199013.0	-661.0	728436.0
29	17	30	23	18	12.0	-200301.0	-662.0	736314.0
29	17	30	23	19	13.0	-201286.0	-671.0	756759.0
29	17	30	23	20	14.0	-202159.0	-681.0	762010.0
29	17	30	23	36	15.0	-203153.0	-677.0	757758.0
29	17	30	23	37	16.0	-203431.0	-680.0	750449.0
29	17	30	23	37	17.0	-204319.0	-676.0	750348.0
29	17	30	23	38	18.0	-204444.0	-690.0	754579.0
29	17	30	23	38	19.0	-204906.0	-704.0	741461.0
29	17	30	23	39	20.0	-204157.0	-717.0	725637.0
29	17	30	23	58	21.0	-204657.0	-716.0	714744.0
29	17	30	23	59	22.0	-204614.0	-703.0	721223.0
29	17	30	23	60	23.0	-205881.0	-715.0	738913.0
29	17	30	23	60	24.0	-206172.0	-722.0	743992.0
29	17	30	23	61	25.0	-206778.0	-744.0	740321.0
29	17	30	23	62	26.0	-207417.0	-756.0	734060.0
29	17	30	23	62	27.0	-207159.0	-766.0	736788.0
29	17	30	23	63	28.0	-207666.0	-770.0	742577.0
29	17	30	23	64	29.0	-207224.0	-780.0	733208.0
29	17	30	23	65	30.0	-207820.0	-797.0	720505.0
29	17	30	23	65	31.0	-206627.0	-791.0	712383.0
29	17	30	23	66	32.0	-206189.0	-786.0	722941.0
29	17	30	23	67	33.0	-205197.0	-823.0	743219.0
29	17	30	23	67	34.0	-203937.0	-832.0	746106.0
29	17	30	23	68	35.0	-202304.0	-849.0	739108.0
29	17	30	23	69	36.0	-199350.0	-871.0	732394.0
29	17	30	23	69	37.0	-197262.0	-867.0	733887.0
29	17	30	23	70	38.0	-194057.0	-847.0	739041.0
29	17	30	23	71	39.0	-191823.0	-852.0	727517.0
29	17	30	23	72	40.0	-189753.0	-850.0	712039.0
29	17	30	23	72	41.0	-188466.0	-846.0	702529.0
29	17	30	23	102	42.0	-189008.0	-844.0	713664.0
29	17	30	23	102	43.0	-189254.0	-866.0	733290.0
29	17	30	23	103	44.0	-191796.0	-901.0	735712.0
29	17	30	23	104	45.0	-192734.0	-893.0	730202.0
29	17	30	23	104	46.0	-194716.0	-911.0	722244.0
29	17	30	23	105	47.0	-196478.0	-917.0	722466.0
29	17	30	23	106	48.0	-196218.0	-936.0	726360.0
29	17	30	23	106	49.0	-197386.0	-964.0	715016.0
29	17	30	23	107	50.0	-196506.0	-981.0	700944.0
29	17	30	23	107	51.0	-196152.0	-963.0	691107.0
29	17	30	23	108	52.0	-195271.0	-966.0	701417.0
29	17	30	23	109	53.0	-192988.0	-978.0	720453.0
29	17	30	23	109	54.0	-192551.0	-999.0	724689.0
29	17	30	23	110	55.0	-190609.0	-1024.0	721439.0
29	17	30	23	111	56.0	-188907.0	-1023.0	715467.0
29	17	30	23	111	57.0	-188631.0	-1039.0	717778.0
29	17	30	23	112	58.0	-186895.0	-1037.0	724407.0
29	17	30	23	112	59.0	-185530.0	-1034.0	712753.0
29	17	30	23	113	60.0	-185764.0	-1042.0	695601.0
29	17	30	23	127	61.0	-184427.0	-1030.0	684622.0
29	17	30	23	127	62.0	-185441.0	-1006.0	694381.0
29	17	30	23	128	63.0	-187342.0	-1027.0	713974.0
29	17	30	23	129	64.0	-189191.0	-1029.0	716558.0
29	17	30	23	149	65.0	-193682.0	-1034.0	709814.0
29	17	30	23	150	66.0	-197565.0	-1048.0	699920.0
29	17	30	23	151	67.0	-200601.0	-1047.0	698975.0
29	17	30	23	151	68.0	-204998.0	-1055.0	701786.0
29	17	30	23	152	69.0	-206717.0	-1062.0	686540.0
29	17	30	23	152	70.0	-208454.0	-1078.0	667664.0
29	17	30	23	153	71.0	-210991.0	-1095.0	652015.0
29	17	30	23	154	72.0	-210949.0	-1081.0	655026.0
29	17	30	23	154	73.0	-212921.0	-1077.0	665609.0
29	17	30	23	155	74.0	-213127.0	-1069.0	659501.0
29	17	30	23	155	75.0	-209633.0	-1090.0	646143.0
29	17	30	23	156	76.0	-204897.0	-1097.0	634662.0
29	17	30	23	157	77.0	-201554.0	-1088.0	634231.0
29	17	30	23	157	78.0	-202894.0	-1104.0	636011.0
29	17	30	23	158	79.0	-208691.0	-1107.0	621363.0
29	17	30	23	158	80.0	-209531.0	-1107.0	603170.0
29	17	30	23	171	81.0	-210129.0	-1111.0	593683.0
29	17	30	23	172	82.0	-212402.0	-1079.0	607301.0
29	17	30	23	173	83.0	-211108.0	-1075.0	631968.0
29	17	30	23	173	84.0	-211769.0	-1098.0	643103.0
29	17	30	23	174	85.0	-215046.0	-1115.0	647638.0
29	17	30	23	174	86.0	-216989.0	-1116.0	652780.0
29	17	30	23	175	87.0	-220893.0	-1102.0	669319.0
29	17	30	23	176	88.0	-224751.0	-1116.0	685701.0
29	17	30	23	193	89.0	-225657.0	-1117.0	681769.0
29	17	30	23	193	90.0	-227044.0	-1113.0	671867.0
29	17	30	23	194	91.0	-224787.0	-1097.0	663637.0
29	17	30	23	195	92.0	-217798.0	-1094.0	674134.0
29	17	30	23	195	93.0	-210522.0	-1106.0	692444.0
29	17	30	23	196	94.0	-201262.0	-1130.0	697197.0
29	17	30	23	197	95.0	-192882.0	-1129.0	693423.0
29	17	30	23	197	96.0	-191376.0	-1117.0	686333.0
29	17	30	23	198	97.0	-193664.0	-1119.0	685640.0
29	17	30	23	199	98.0	-200524.0	-1122.0	683047.0
29	17	30	23	199	99.0	-210524.0	-1154.0	664143.0
29	17	30	23	200	100.0	-218076.0	-1166.0	643759.0
29	17	30	23	200	101.0	-220939.0	-1162.0	629504.0
29	17	30	23	201	102.0	-219806.0	-1159.0	638397.0
29	17	30	23	202	103.0	-215514.0	-1164.0	654245.0
29	17	30	23	202	104.0	-207321.0	-1155.0	653389.0
29	17	30	23	203	105.0	-196889.0	-1139.0	645320.0
29	17	30	23	203	106.0	-188087.0	-1121.0	636779.0
29	17	30	23	215	107.0	-183922.0	-1099.0	638883.0
29	17	30	23	216	108.0	-183208.0	-1111.0	640046.0
29	17	30	23	217	109.0	-182271.0	-1121.0	621809.0
29	17	30	23	238	110.0	-179759.0	-1107.0	601428.0
29	17	30	23	239	111.0	-175933.0	-1092.0	588387.0
29	17	30	23	239	112.0	-171202.0	-1089.0	597747.0
29	17	30	23	240	113.0	-165976.0	-1097.0	612896.0
29	17	30	23	240	114.0	-165726.0	-1101.0	612508.0
29	17	30	23	241	115.0	-171816.0	-1099.0	602318.0
29	17	30	23	242	116.0	-177391.0	-1117.0	588869.0
29	17	30	23	242	117.0	-179547.0	-1103.0	587546.0
29	17	30	23	243	118.0	-183182.0	-1101.0	587479.0
29	17	30	23	243	119.0	-189643.0	-1092.0	569998.0
29	17	30	23	244	120.0	-200228.0	-1086.0	551166.0
29	17	30	23	245	121.0	-211240.0	-1067.0	540989.0
29	17	30	23	245	122.0	-220889.0	-1062.0	553329.0
29	17	30	23	246	123.0	-229594.0	-1061.0	570426.0
29	17	30	23	246	124.0	-237164.0	-1048.0	570180.0
29	17	30	23	247	125.0	-244929.0	-1056.0	562041.0
29	17	30	23	262	126.0	-244894.0	-1051.0	551989.0
29	17	30	23	262	127.0	-241347.0	-1029.0	553023.0
29	17	30	23	263	128.0	-244595.0	-1032.0	552623.0
29	17	30	23	263	129.0	-236008.0	-1039.0	535125.0
29	17	30	23	264	130.0	-232304.0	-1047.0	516598.0
29	17	30	23	265	131.0	-228264.0	-1028.0	506385.0
29	17	30	23	265	132.0	-219162.0	-1019.0	518930.0
29	17	30	23	266	133.0	-218602.0	-1024.0	535638.0
29	17	30	23	267	134.0	-211703.0	-1018.0	534933.0
29	17	30	23	267	135.0	-206291.0	-1013.0	526476.0
29	17	30	23	268	136.0	-208603.0	-1006.0	517183.0
29	17	30	23	269	137.0	-202782.0	-978.0	518018.0
29	17	30	23	269	138.0	-202622.0	-964.0	517207.0
29	17	30	23	270	139.0	-204811.0	-961.0	500766.0
29	17	30	23	270	140.0	-200255.0	-974.0	482923.0
29	17	30	23	284	141.0	-204029.0	-954.0	472634.0
29	17	30	23	284	142.0	-203866.0	-922.0	485443.0
29	17	30	23	285	143.0	-198590.0	-920.0	501750.0
29	17	30	23	286	144.0	-201079.0	-926.0	500134.0
29	17	30	23	286	145.0	-194614.0	-920.0	492113.0
29	17	30	23	287	146.0	-194792.0	-928.0	482935.0
29	17	30	23	287	147.0	-199947.0	-929.0	486261.0
29	17	30	23	288	148.0	-196718.0	-919.0	486721.0
29	17	30	23	309	149.0	-204567.0	-912.0	470526.0
29	17	30	23	310	150.0	-206690.0	-901.0	454586.0
29	17	30	23	310	151.0	-208457.0	-884.0	447281.0
29	17	30	23	311	152.0	-215451.0	-862.0	464186.0
29	17	30	23	312	153.0	-212602.0	-851.0	481121.0
29	17	30	23	312	154.0	-212199.0	-864.0	478356.0
29	17	30	23	313	155.0	-217603.0	-879.0	466922.0
29	17	30	23	314	156.0	-213306.0	-868.0	454604.0
29	17	30	23	314	157.0	-216076.0	-839.0	458722.0
29	17	30	23	315	158.0	-219857.0	-829.0	460493.0
29	17	30	23	316	159.0	-214979.0	-830.0	443796.0
29	17	30	23	316	160.0	-217115.0	-841.0	426988.0
29	17	30	23	317	161.0	-216788.0	-837.0	418317.0
29	17	30	23	317	162.0	-210066.0	-834.0	432022.0
29	17	30	23	331	163.0	-211043.0	-818.0	448078.0
29	17	30	23	332	164.0	-208231.0	-796.0	446698.0
29	17	30	23	332	165.0	-200119.0	-783.0	437263.0
29	17	30	23	333	166.0	-199964.0	-797.0	428076.0
29	17	30	23	334	167.0	-195572.0	-797.0	432521.0
29	17	30	23	335	168.0	-181889.0	-824.0	432562.0
29	17	30	23	335	169.0	-181432.0	-822.0	415178.0
29	17	30	23	336	170.0	-182572.0	-805.0	399214.0
29	17	30	23	354	171.0	-172877.0	-784.0	392302.0
29	17	30	23	354	172.0	-175113.0	-766.0	408418.0
29	17	30	23	355	173.0	-181349.0	-774.0	426889.0
29	17	30	23	356	174.0	-176957.0	-785.0	427208.0
29	17	30	23	356	175.0	-180834.0	-766.0	419779.0
29	17	30	23	357	176.0	-190337.0	-764.0	413666.0
29	17	30	23	358	177.0	-188217.0	-756.0	419646.0
29	17	30	23	358	178.0	-190285.0	-769.0	418451.0
29	17	30	23	359	179.0	-199722.0	-743.0	400713.0
29	17	30	23	360	180.0	-197475.0	-733.0	385305.0
29	17	30	23	360	181.0	-195296.0	-732.0	380138.0
29	17	30	23	361	182.0	-204638.0	-724.0	399556.0
29	17	30	23	361	183.0	-202975.0	-727.0	420546.0
29	17	30	23	362	184.0	-196507.0	-722.0	421017.0
29	17	30	23	362	185.0	-204561.0	-724.0	413417.0
29	17	30	23	378	186.0	-206381.0	-715.0	406130.0
29	17	30	23	379	187.0	-197391.0	-695.0	409106.0
29	17	30	23	379	188.0	-203499.0	-706.0	407637.0
29	17	30	23	380	189.0	-209694.0	-704.0	390863.0
29	17	30	23	381	190.0	-201183.0	-697.0	373416.0
29	17	30	23	381	191.0	-202567.0	-700.0	365503.0
29	17	30	23	382	192.0	-211681.0	-680.0	380029.0
29	17	30	23	382	193.0	-207619.0	-697.0	394636.0
29	17	30	23	401	194.0	-201344.0	-692.0	391988.0
29	17	30	23	402	195.0	-211983.0	-662.0	383217.0
29	17	30	23	403	196.0	-212132.0	-657.0	375081.0
29	17	30	23	404	197.0	-199687.0	-660.0	380201.0
29	17	30	23	404	198.0	-205269.0	-676.0	379886.0
29	17	30	23	405	199.0	-210036.0	-674.0	363753.0
29	17	30	23	405	200.0	-198474.0	-667.0	350161.0
29	17	30	23	406	201.0	-194417.0	-646.0	346719.0
29	17	30	23	407	202.0	-202496.0	-643.0	364706.0
29	17	30	23	407	203.0	-196417.0	-669.0	381413.0
29	17	30	23	408	204.0	-183135.0	-672.0	380274.0
29	17	30	23	409	205.0	-191882.0	-661.0	372751.0
29	17	30	23	409	206.0	-195455.0	-649.0	363861.0
29	17	30	23	410	207.0	-183704.0	-640.0	368831.0
29	17	30	23	411	208.0	-187190.0	-634.0	367985.0
29	17	30	23	411	209.0	-197246.0	-631.0	351393.0
29	17	30	23	412	210.0	-191381.0	-634.0	336318.0
29	17	30	23	413	211.0	-183009.0	-606.0	330744.0
29	17	30	23	425	212.0	-193393.0	-583.0	348880.0
29	17	30	23	426	213.0	-194676.0	-581.0	365518.0
29	17	30	23	448	214.0	-181647.0	-576.0	366468.0
29	17	30	23	449	215.0	-187094.0	-566.0	362497.0
29	17	30	23	449	216.0	-195424.0	-566.0	358144.0
29	17	30	23	450	217.0	-188541.0	-554.0	366192.0
29	17	30	23	451	218.0	-181655.0	-562.0	366533.0
29	17	30	23	451	219.0	-193677.0	-562.0	351121.0
29	17	30	23	452	220.0	-195389.0	-569.0	337514.0
29	17	30	23	453	221.0	-179806.0	-560.0	333778.0
29	17	30	23	453	222.0	-183543.0	-536.0	352613.0
29	17	30	23	454	223.0	-191153.0	-547.0	367171.0
29	17	30	23	454	224.0	-183212.0	-539.0	364633.0
29	17	30	23	455	225.0	-172051.0	-532.0	356639.0
29	17	30	23	456	226.0	-185010.0	-511.0	347958.0
29	17	30	23	456	227.0	-189446.0	-492.0	352894.0
29	17	30	23	457	228.0	-175867.0	-501.0	349906.0
29	17	30	23	457	229.0	-176759.0	-514.0	333499.0
29	17	30	23	470	230.0	-188924.0	-514.0	318646.0
29	17	30	23	471	231.0	-188296.0	-492.0	316458.0
29	17	30	23	471	232.0	-175796.0	-465.0	336619.0
29	17	30	23	472	233.0	-185799.0	-476.0	350753.0
29	17	30	23	473	234.0	-192464.0	-473.0	347307.0
29	17	30	23	473	235.0	-184214.0	-491.0	340944.0
29	17	30	23	474	236.0	-177030.0	-482.0	336362.0
29	17	30	23	474	237.0	-188652.0	-470.0	343155.0
29	17	30	23	475	238.0	-191470.0	-474.0	339976.0
29	17	30	23	476	239.0	-181157.0	-469.0	324781.0
29	17	30	23	476	240.0	-186564.0	-446.0	311892.0
29	17	30	23	477	241.0	-197021.0	-444.0	309640.0
29	17	30	23	478	242.0	-195216.0	-441.0	328802.0
29	17	30	23	478	243.0	-187318.0	-435.0	343164.0
29	17	30	23	479	244.0	-199044.0	-444.0	340323.0
29	17	30	23	480	245.0	-204939.0	-437.0	331751.0
29	17	30	23	493	246.0	-197099.0	-446.0	324529.0
29	17	30	23	494	247.0	-198357.0	-413.0	330908.0
29	17	30	23	495	248.0	-209014.0	-421.0	330834.0
29	17	30	23	495	249.0	-209512.0	-428.0	317598.0
29	17	30	23	496	250.0	-202212.0	-420.0	306232.0
29	17	30	23	497	251.0	-212578.0	-426.0	304752.0
29	17	30	23	497	252.0	-217358.0	-414.0	324411.0
29	17	30	23	498	253.0	-207956.0	-411.0	340394.0
29	17	30	23	522	254.0	-206494.0	-407.0	339463.0
29	17	30	23	552	255.0	-211071.0	-389.0	331527.0
29	17	30	23	553	0.0	-206598.0	-397.0	324444.0
29	17	30	23	554	1.0	-202337.0	-402.0	330571.0
29	17	30	23	554	2.0	-216037.0	-391.0	327708.0
29	17	30	23	555	3.0	-221082.0	-396.0	311673.0
29	17	30	23	556	4.0	-212507.0	-399.0	298621.0
29	17	30	23	557	5.0	-216502.0	-401.0	298279.0
29	17	30	23	557	6.0	-219562.0	-402.0	318179.0
29	17	30	23	558	7.0	-209348.0	-410.0	332545.0
29	17	30	23	559	8.0	-205657.0	-400.0	330931.0
29	17	30	23	560	9.0	-212917.0	-398.0	322436.0
29	17	30	23	560	10.0	-207799.0	-416.0	316036.0
29	17	30	23	561	11.0	-197203.0	-409.0	320367.0
29	17	30	23	562	12.0	-202936.0	-420.0	314480.0
29	17	30	23	562	13.0	-203384.0	-405.0	297468.0
29	17	30	23	563	14.0	-195119.0	-403.0	283171.0
29	17	30	23	563	26.0	-217227.0	-381.0	291785.0
29	17	30	23	564	27.0	-216078.0	-387.0	303750.0
29	17	30	23	573	28.0	-221391.0	-375.0	299976.0
29	17	30	23	574	29.0	-219142.0	-361.0	292643.0
29	17	30	23	575	30.0	-218886.0	-354.0	287198.0
29	17	30	23	575	31.0	-223747.0	-348.0	292864.0
29	17	30	23	576	32.0	-221134.0	-329.0	288885.0
29	17	30	23	577	33.0	-221316.0	-327.0	273227.0
29	17	30	23	577	34.0	-225272.0	-318.0	258933.0
29	17	30	23	597	35.0	-221289.0	-306.0	258994.0
29	17	30	23	597	36.0	-220759.0	-287.0	279449.0
29	17	30	23	598	37.0	-222255.0	-306.0	292058.0
29	17	30	23	599	38.0	-215032.0	-319.0	288992.0
29	17	30	23	599	39.0	-212157.0	-307.0	279923.0
29	17	30	23	600	40.0	-211126.0	-326.0	273521.0
29	17	30	23	601	41.0	-203717.0	-330.0	280018.0
29	17	30	23	601	42.0	-201351.0	-333.0	275507.0
29	17	30	23	602	43.0	-198729.0	-331.0	260773.0
29	17	30	23	602	44.0	-189931.0	-328.0	250476.0
29	17	30	23	603	45.0	-187897.0	-325.0	252089.0
29	17	30	23	604	46.0	-185075.0	-329.0	273332.0
29	17	30	23	604	47.0	-177465.0	-338.0	285996.0
29	17	30	23	605	48.0	-177442.0	-351.0	283973.0
29	17	30	23	605	49.0	-176479.0	-354.0	277418.0
29	17	30	23	619	50.0	-172412.0	-344.0	272839.0
29	17	30	23	619	51.0	-177154.0	-329.0	280070.0
29	17	30	23	620	52.0	-179624.0	-339.0	275278.0
29	17	30	23	621	53.0	-178060.0	-339.0	259707.0
29	17	30	23	621	54.0	-183264.0	-366.0	248070.0
29	17	30	23	622	55.0	-185001.0	-367.0	250804.0
29	17	30	23	622	56.0	-183595.0	-357.0	273664.0
29	17	30	23	644	57.0	-190057.0	-371.0	287787.0
29	17	30	23	645	58.0	-193412.0	-351.0	285645.0
29	17	30	23	645	59.0	-194486.0	-335.0	276792.0
29	17	30	23	646	60.0	-202854.0	-344.0	270575.0
29	17	30	23	647	61.0	-206431.0	-349.0	277404.0
29	17	30	23	647	62.0	-207269.0	-374.0	271224.0
29	17	30	23	648	63.0	-214696.0	-372.0	256899.0
29	17	30	23	649	64.0	-217102.0	-379.0	245126.0
29	17	30	23	649	65.0	-217204.0	-361.0	246853.0
29	17	30	23	650	66.0	-222871.0	-359.0	267385.0
29	17	30	23	651	67.0	-222993.0	-360.0	277798.0
29	17	30	23	651	68.0	-222214.0	-364.0	274584.0
29	17	30	23	652	69.0	-226661.0	-379.0	268287.0
29	17	30	23	652	70.0	-224927.0	-380.0	266128.0
29	17	30	23	653	71.0	-222711.0	-379.0	274749.0
29	17	30	23	666	72.0	-225287.0	-406.0	269577.0
29	17	30	23	666	73.0	-221782.0	-405.0	255879.0
29	17	30	23	667	74.0	-218111.0	-399.0	244694.0
29	17	30	23	668	75.0	-217974.0	-407.0	250522.0
29	17	30	23	668	76.0	-211357.0	-409.0	274856.0
29	17	30	23	669	77.0	-206622.0	-421.0	285785.0
29	17	30	23	670	78.0	-204859.0	-429.0	283039.0
29	17	30	23	670	79.0	-198209.0	-427.0	275326.0
29	17	30	23	671	80.0	-194986.0	-430.0	272131.0
29	17	30	23	672	81.0	-194062.0	-437.0	281147.0
29	17	30	23	672	82.0	-188652.0	-455.0	276253.0
29	17	30	23	673	83.0	-187223.0	-455.0	263737.0
29	17	30	23	674	84.0	-186692.0	-459.0	255378.0
29	17	30	23	674	85.0	-181627.0	-451.0	265711.0
29	17	30	23	675	86.0	-181068.0	-461.0	294828.0
29	17	30	23	701	87.0	-180374.0	-472.0	312979.0
29	17	30	23	702	88.0	-176127.0	-472.0	313948.0
29	17	30	23	703	89.0	-176215.0	-471.0	309611.0
29	17	30	23	703	90.0	-175338.0	-489.0	307494.0
29	17	30	23	704	91.0	-171879.0	-494.0	313721.0
29	17	30	23	705	92.0	-172713.0	-502.0	303608.0
29	17	30	23	706	93.0	-171268.0	-506.0	286678.0
29	17	30	23	706	94.0	-168114.0	-507.0	275498.0
29	17	30	23	707	95.0	-169411.0	-482.0	279239.0
29	17	30	23	708	96.0	-169386.0	-509.0	300278.0
29	17	30	23	709	97.0	-167682.0	-533.0	308299.0
29	17	30	23	709	98.0	-169787.0	-549.0	304641.0
29	17	30	23	710	99.0	-171184.0	-552.0	296429.0
29	17	30	23	711	100.0	-170002.0	-566.0	290814.0
29	17	30	23	712	101.0	-171355.0	-559.0	299173.0
29	17	30	23	712	102.0	-173129.0	-563.0	295206.0
29	17	30	23	713	103.0	-171760.0	-583.0	285120.0
29	17	30	23	714	104.0	-171963.0	-562.0	279331.0
29	17	30	23	714	105.0	-174188.0	-552.0	285038.0
29	17	30	23	723	106.0	-174699.0	-564.0	307672.0
29	17	30	23	724	107.0	-175486.0	-569.0	317544.0
29	17	30	23	746	108.0	-178531.0	-562.0	312938.0
29	17	30	23	747	109.0	-180567.0	-579.0	306496.0
29	17	30	23	747	110.0	-182180.0	-582.0	305261.0
29	17	30	23	748	111.0	-185286.0	-587.0	313925.0
29	17	30	23	749	112.0	-187866.0	-596.0	306390.0
29	17	30	23	750	113.0	-189242.0	-614.0	291194.0
29	17	30	23	750	114.0	-191006.0	-596.0	279414.0
29	17	30	23	751	115.0	-192834.0	-622.0	282341.0
29	17	30	23	752	116.0	-193897.0	-632.0	301226.0
29	17	30	23	752	117.0	-194442.0	-624.0	308282.0
