29	17	33	26	516	198.0	-171158.0	-8474.0	-698603.0
29	17	33	26	519	199.0	-167337.0	-8519.0	-706630.0
29	17	33	26	521	200.0	-164523.0	-8570.0	-731946.0
29	17	33	26	524	201.0	-162873.0	-8607.0	-757363.0
29	17	33	26	526	202.0	-162255.0	-8639.0	-757464.0
29	17	33	26	528	203.0	-162965.0	-8684.0	-743587.0
29	17	33	26	530	204.0	-164789.0	-8711.0	-730321.0
29	17	33	26	532	205.0	-167797.0	-8730.0	-721046.0
29	17	33	26	534	206.0	-171299.0	-8758.0	-711796.0
29	17	33	26	536	207.0	-175232.0	-8810.0	-690077.0
29	17	33	26	537	208.0	-179749.0	-8837.0	-675559.0
29	17	33	26	538	209.0	-184361.0	-8874.0	-683011.0
29	17	33	26	539	210.0	-189078.0	-8927.0	-710491.0
29	17	33	26	540	211.0	-193381.0	-8929.0	-738262.0
29	17	33	26	540	212.0	-196844.0	-8934.0	-739893.0
29	17	33	26	541	213.0	-200217.0	-8942.0	-725679.0
29	17	33	26	542	214.0	-203475.0	-8967.0	-712016.0
29	17	33	26	543	215.0	-206649.0	-8996.0	-702595.0
29	17	33	26	544	216.0	-209449.0	-9023.0	-692668.0
29	17	33	26	544	217.0	-211801.0	-9056.0	-670450.0
29	17	33	26	545	218.0	-213460.0	-9087.0	-654914.0
29	17	33	26	546	219.0	-214299.0	-9124.0	-661762.0
29	17	33	26	546	220.0	-214912.0	-9146.0	-685580.0
29	17	33	26	566	221.0	-214579.0	-9161.0	-707690.0
29	17	33	26	609	222.0	-213166.0	-9171.0	-704286.0
29	17	33	26	628	223.0	-211275.0	-9177.0	-688044.0
29	17	33	26	629	224.0	-208788.0	-9205.0	-672599.0
29	17	33	26	630	225.0	-206115.0	-9221.0	-660330.0
29	17	33	26	630	226.0	-203799.0	-9236.0	-647901.0
29	17	33	26	631	227.0	-201166.0	-9267.0	-625593.0
29	17	33	26	631	228.0	-198550.0	-9325.0	-610694.0
29	17	33	26	632	229.0	-196471.0	-9358.0	-616080.0
29	17	33	26	633	230.0	-194056.0	-9404.0	-638014.0
29	17	33	26	633	231.0	-191642.0	-9431.0	-659306.0
29	17	33	26	634	232.0	-189661.0	-9441.0	-657292.0
29	17	33	26	634	233.0	-188140.0	-9459.0	-641947.0
29	17	33	26	635	234.0	-187109.0	-9473.0	-626713.0
29	17	33	26	635	235.0	-186004.0	-9494.0	-613252.0
29	17	33	26	636	236.0	-185146.0	-9524.0	-598950.0
29	17	33	26	637	2.0	-208876.0	-9436.0	-493679.0
29	17	33	26	637	3.0	-210838.0	-9395.0	-500177.0
29	17	33	26	638	4.0	-212870.0	-9348.0	-521739.0
29	17	33	26	638	5.0	-214969.0	-9274.0	-542079.0
29	17	33	26	639	6.0	-217324.0	-9180.0	-537278.0
29	17	33	26	639	7.0	-219699.0	-9099.0	-520207.0
29	17	33	26	640	8.0	-222182.0	-9016.0	-506108.0
29	17	33	26	700	9.0	-224689.0	-8932.0	-493994.0
29	17	33	26	701	10.0	-226643.0	-8829.0	-478655.0
29	17	33	26	701	11.0	-228884.0	-8737.0	-447947.0
29	17	33	26	702	12.0	-230892.0	-8671.0	-424721.0
29	17	33	26	703	13.0	-232300.0	-8593.0	-424758.0
29	17	33	26	703	14.0	-233007.0	-8517.0	-440934.0
29	17	33	26	704	15.0	-232686.0	-8409.0	-456402.0
29	17	33	26	705	16.0	-230890.0	-8309.0	-449377.0
29	17	33	26	705	17.0	-228044.0	-8211.0	-431419.0
29	17	33	26	706	18.0	-224834.0	-8113.0	-414671.0
29	17	33	26	706	19.0	-221362.0	-8010.0	-400474.0
29	17	33	26	707	20.0	-217711.0	-7908.0	-384459.0
29	17	33	26	708	21.0	-214316.0	-7785.0	-358040.0
29	17	33	26	708	22.0	-210996.0	-7667.0	-342082.0
29	17	33	26	709	23.0	-207395.0	-7575.0	-346156.0
29	17	33	26	710	25.0	-199122.0	-7334.0	-387330.0
29	17	33	26	710	48.0	-217449.0	-4166.0	-305480.0
29	17	33	26	711	49.0	-218146.0	-4011.0	-294777.0
29	17	33	26	712	50.0	-217708.0	-3831.0	-282271.0
29	17	33	26	712	51.0	-215684.0	-3667.0	-255807.0
29	17	33	26	713	52.0	-210789.0	-3527.0	-239282.0
29	17	33	26	713	53.0	-206779.0	-3373.0	-245342.0
29	17	33	26	745	54.0	-206076.0	-3227.0	-268869.0
29	17	33	26	746	55.0	-208181.0	-3070.0	-290969.0
29	17	33	26	747	56.0	-211030.0	-2930.0	-289496.0
29	17	33	26	747	57.0	-212761.0	-2796.0	-276851.0
29	17	33	26	748	58.0	-213662.0	-2661.0	-265368.0
29	17	33	26	749	59.0	-212455.0	-2550.0	-257459.0
29	17	33	26	749	60.0	-209267.0	-2413.0	-246516.0
29	17	33	26	750	61.0	-205075.0	-2280.0	-224056.0
29	17	33	26	751	62.0	-200661.0	-2162.0	-212442.0
29	17	33	26	751	63.0	-196581.0	-2055.0	-220712.0
29	17	33	26	752	64.0	-191600.0	-1939.0	-245816.0
29	17	33	26	753	65.0	-186708.0	-1805.0	-269763.0
29	17	33	26	753	66.0	-183195.0	-1684.0	-269586.0
29	17	33	26	754	67.0	-181279.0	-1577.0	-256906.0
29	17	33	26	755	68.0	-180989.0	-1464.0	-245492.0
29	17	33	26	755	70.0	-183325.0	-1241.0	-227037.0
29	17	33	26	756	71.0	-185460.0	-1129.0	-204504.0
29	17	33	26	757	72.0	-187586.0	-995.0	-189941.0
29	17	33	26	757	73.0	-188621.0	-894.0	-196955.0
29	17	33	26	758	74.0	-188066.0	-787.0	-220881.0
29	17	33	26	758	75.0	-186113.0	-659.0	-243054.0
29	17	33	26	789	76.0	-183094.0	-528.0	-243110.0
29	17	33	26	790	77.0	-179621.0	-419.0	-231518.0
29	17	33	26	791	78.0	-177017.0	-332.0	-221786.0
29	17	33	26	835	79.0	-176361.0	-253.0	-214422.0
29	17	33	26	836	80.0	-177352.0	-165.0	-204117.0
29	17	33	26	837	81.0	-180274.0	-77.0	-182837.0
29	17	33	26	838	82.0	-184665.0	-6.0	-171084.0
29	17	33	26	838	83.0	-189438.0	53.0	-181151.0
29	17	33	26	839	84.0	-194146.0	129.0	-207782.0
29	17	33	26	840	85.0	-198742.0	212.0	-233942.0
29	17	33	26	840	86.0	-202545.0	296.0	-234172.0
29	17	33	26	841	87.0	-205824.0	354.0	-222226.0
29	17	33	26	842	88.0	-208471.0	425.0	-212097.0
29	17	33	26	842	89.0	-210668.0	498.0	-203502.0
29	17	33	26	843	90.0	-212205.0	553.0	-192231.0
29	17	33	26	844	92.0	-214010.0	668.0	-159134.0
29	17	33	26	844	93.0	-213909.0	709.0	-169254.0
29	17	33	26	845	94.0	-213597.0	786.0	-195861.0
29	17	33	26	845	115.0	-163839.0	1381.0	-196473.0
29	17	33	26	846	116.0	-162591.0	1387.0	-195560.0
29	17	33	26	847	117.0	-162538.0	1397.0	-184615.0
29	17	33	26	847	118.0	-163251.0	1405.0	-174442.0
29	17	33	26	848	119.0	-165151.0	1419.0	-166656.0
29	17	33	26	849	120.0	-167764.0	1419.0	-158934.0
29	17	33	26	880	121.0	-170795.0	1421.0	-141302.0
29	17	33	26	881	122.0	-174067.0	1431.0	-131670.0
29	17	33	26	882	123.0	-176827.0	1409.0	-143288.0
29	17	33	26	882	124.0	-180158.0	1401.0	-169173.0
29	17	33	26	883	125.0	-183171.0	1379.0	-192586.0
29	17	33	26	884	126.0	-186193.0	1366.0	-194521.0
29	17	33	26	885	127.0	-189681.0	1364.0	-184226.0
29	17	33	26	886	128.0	-193129.0	1332.0	-176276.0
29	17	33	26	886	129.0	-196597.0	1301.0	-170496.0
29	17	33	26	887	130.0	-199855.0	1284.0	-161619.0
29	17	33	26	888	131.0	-203360.0	1259.0	-140652.0
29	17	33	26	889	132.0	-207286.0	1230.0	-132006.0
29	17	33	26	890	133.0	-210906.0	1192.0	-145287.0
29	17	33	26	890	134.0	-214579.0	1161.0	-173301.0
29	17	33	26	891	135.0	-218457.0	1123.0	-198202.0
29	17	33	26	891	137.0	-225917.0	1080.0	-191704.0
29	17	33	26	892	138.0	-229467.0	1043.0	-183098.0
29	17	33	26	893	139.0	-232244.0	1038.0	-176420.0
29	17	33	26	893	140.0	-234594.0	1016.0	-167577.0
29	17	33	26	894	141.0	-235620.0	994.0	-147695.0
29	17	33	26	894	142.0	-235331.0	974.0	-138704.0
29	17	33	26	970	143.0	-234394.0	945.0	-149874.0
29	17	33	26	971	144.0	-231986.0	934.0	-175449.0
29	17	33	26	972	145.0	-228551.0	919.0	-196041.0
29	17	33	26	972	146.0	-224680.0	880.0	-191234.0
29	17	33	26	973	147.0	-220596.0	848.0	-173999.0
29	17	33	26	974	148.0	-216757.0	806.0	-158462.0
29	17	33	26	974	149.0	-212330.0	781.0	-148039.0
29	17	33	26	975	150.0	-207889.0	751.0	-134183.0
29	17	33	26	976	151.0	-204115.0	728.0	-109619.0
29	17	33	26	977	152.0	-200941.0	672.0	-98376.0
29	17	33	26	977	153.0	-198327.0	626.0	-106468.0
29	17	33	26	978	154.0	-195881.0	591.0	-129244.0
29	17	33	26	979	155.0	-193799.0	576.0	-149378.0
29	17	33	26	979	156.0	-192102.0	545.0	-145553.0
29	17	33	26	980	157.0	-191127.0	506.0	-129222.0
29	17	33	26	981	160.0	-189870.0	399.0	-87645.0
29	17	33	26	981	182.0	-200386.0	-597.0	17811.0
29	17	33	26	982	183.0	-203854.0	-647.0	8816.0
29	17	33	26	983	184.0	-208205.0	-676.0	-14618.0
29	17	33	26	983	185.0	-212005.0	-720.0	-35362.0
29	17	33	26	984	186.0	-214645.0	-733.0	-33402.0
29	17	33	26	984	187.0	-215605.0	-763.0	-22067.0
29	17	33	26	985	188.0	-216260.0	-791.0	-10856.0
29	17	33	27	15	189.0	-216750.0	-819.0	-531.0
29	17	33	27	16	190.0	-216747.0	-852.0	10884.0
29	17	33	27	17	191.0	-216911.0	-914.0	31352.0
29	17	33	27	18	192.0	-216799.0	-982.0	40998.0
29	17	33	27	18	193.0	-216571.0	-1054.0	31581.0
29	17	33	27	19	194.0	-216192.0	-1104.0	7298.0
29	17	33	27	20	195.0	-215769.0	-1147.0	-14188.0
29	17	33	27	21	196.0	-215079.0	-1198.0	-14130.0
29	17	33	27	21	197.0	-214536.0	-1275.0	-5494.0
29	17	33	27	22	198.0	-215647.0	-1339.0	1616.0
29	17	33	27	23	199.0	-216816.0	-1401.0	7287.0
29	17	33	27	23	200.0	-218060.0	-1464.0	15103.0
29	17	33	27	24	201.0	-219713.0	-1542.0	33898.0
29	17	33	27	25	202.0	-221584.0	-1611.0	40816.0
29	17	33	27	25	203.0	-223694.0	-1692.0	25611.0
29	17	33	27	26	204.0	-225244.0	-1756.0	-3087.0
29	17	33	27	27	205.0	-226537.0	-1808.0	-25627.0
29	17	33	27	27	206.0	-227217.0	-1865.0	-22572.0
29	17	33	27	28	207.0	-227082.0	-1920.0	-10454.0
29	17	33	27	29	208.0	-225828.0	-1980.0	-2605.0
29	17	33	27	29	209.0	-224003.0	-2034.0	4197.0
29	17	33	27	30	210.0	-222811.0	-2078.0	13026.0
29	17	33	27	106	211.0	-221328.0	-2144.0	30278.0
29	17	33	27	106	212.0	-220499.0	-2211.0	36004.0
29	17	33	27	107	213.0	-222076.0	-2296.0	22405.0
29	17	33	27	108	214.0	-221739.0	-2369.0	-5595.0
29	17	33	27	109	215.0	-219365.0	-2467.0	-27065.0
29	17	33	27	109	216.0	-215440.0	-2537.0	-21764.0
29	17	33	27	110	217.0	-211524.0	-2609.0	-7441.0
29	17	33	27	111	218.0	-208231.0	-2701.0	3745.0
29	17	33	27	112	219.0	-206033.0	-2763.0	13472.0
29	17	33	27	112	220.0	-204426.0	-2837.0	24759.0
29	17	33	27	113	221.0	-203093.0	-2936.0	44894.0
29	17	33	27	114	222.0	-202087.0	-3021.0	53517.0
29	17	33	27	114	223.0	-200979.0	-3098.0	42538.0
29	17	33	27	115	224.0	-199261.0	-3196.0	18689.0
29	17	33	27	116	225.0	-197229.0	-3276.0	729.0
29	17	33	27	117	249.0	-208796.0	-5201.0	60885.0
29	17	33	27	117	250.0	-210699.0	-5273.0	71178.0
29	17	33	27	118	251.0	-211969.0	-5321.0	91908.0
29	17	33	27	118	252.0	-211254.0	-5365.0	99934.0
29	17	33	27	119	253.0	-212611.0	-5433.0	87334.0
29	17	33	27	120	254.0	-216286.0	-5475.0	61799.0
29	17	33	27	120	255.0	-219181.0	-5507.0	42836.0
29	17	33	27	151	0.0	-218484.0	-5552.0	47581.0
29	17	33	27	176	1.0	-214946.0	-5619.0	60959.0
29	17	33	27	177	2.0	-210489.0	-5660.0	71661.0
29	17	33	27	177	3.0	-207174.0	-5716.0	79829.0
29	17	33	27	178	4.0	-204631.0	-5787.0	91209.0
29	17	33	27	179	5.0	-202890.0	-5839.0	111783.0
29	17	33	27	179	6.0	-201669.0	-5896.0	119345.0
29	17	33	27	180	7.0	-200799.0	-5956.0	108991.0
29	17	33	27	180	8.0	-199992.0	-5993.0	85299.0
29	17	33	27	181	9.0	-199097.0	-6058.0	68033.0
29	17	33	27	182	10.0	-197540.0	-6120.0	71563.0
29	17	33	27	182	11.0	-195604.0	-6159.0	83024.0
29	17	33	27	183	12.0	-193318.0	-6216.0	92406.0
29	17	33	27	183	13.0	-191006.0	-6275.0	101446.0
29	17	33	27	184	14.0	-188566.0	-6307.0	111948.0
29	17	33	27	185	16.0	-185576.0	-6401.0	139587.0
29	17	33	27	185	17.0	-185617.0	-6433.0	128594.0
29	17	33	27	186	18.0	-186312.0	-6459.0	104954.0
29	17	33	27	186	19.0	-187617.0	-6484.0	86257.0
29	17	33	27	187	20.0	-189267.0	-6518.0	90456.0
29	17	33	27	187	21.0	-190802.0	-6535.0	105500.0
29	17	33	27	240	22.0	-192014.0	-6556.0	119638.0
29	17	33	27	241	23.0	-192657.0	-6578.0	128486.0
29	17	33	27	241	24.0	-194957.0	-6617.0	140342.0
29	17	33	27	242	25.0	-199308.0	-6666.0	161262.0
29	17	33	27	243	26.0	-203719.0	-6719.0	169630.0
29	17	33	27	244	27.0	-205330.0	-6767.0	158474.0
29	17	33	27	244	28.0	-204690.0	-6814.0	135543.0
29	17	33	27	245	29.0	-203426.0	-6851.0	119091.0
29	17	33	27	246	30.0	-201927.0	-6885.0	123681.0
29	17	33	27	247	31.0	-200684.0	-6900.0	134577.0
29	17	33	27	247	32.0	-199620.0	-6936.0	143394.0
29	17	33	27	248	33.0	-198782.0	-6981.0	151073.0
29	17	33	27	249	34.0	-198359.0	-7003.0	161089.0
29	17	33	27	249	35.0	-198404.0	-7036.0	179209.0
29	17	33	27	250	36.0	-198649.0	-7076.0	185509.0
29	17	33	27	251	61.0	-215969.0	-7265.0	184219.0
29	17	33	27	251	62.0	-218588.0	-7266.0	196216.0
29	17	33	27	252	63.0	-221620.0	-7251.0	205785.0
29	17	33	27	253	64.0	-224642.0	-7231.0	217516.0
29	17	33	27	253	65.0	-227140.0	-7225.0	237823.0
29	17	33	27	254	66.0	-228614.0	-7217.0	247778.0
29	17	33	27	285	67.0	-229850.0	-7224.0	241066.0
29	17	33	27	286	68.0	-230586.0	-7236.0	221939.0
29	17	33	27	287	69.0	-229737.0	-7210.0	207013.0
29	17	33	27	288	70.0	-228249.0	-7207.0	212333.0
29	17	33	27	289	71.0	-226540.0	-7227.0	226002.0
29	17	33	27	289	72.0	-224531.0	-7229.0	238975.0
29	17	33	27	290	73.0	-221817.0	-7227.0	251120.0
29	17	33	27	290	74.0	-218674.0	-7228.0	266506.0
29	17	33	27	291	75.0	-215165.0	-7227.0	288759.0
29	17	33	27	292	76.0	-211751.0	-7242.0	298170.0
29	17	33	27	292	77.0	-207581.0	-7243.0	291406.0
29	17	33	27	376	78.0	-202948.0	-7238.0	272810.0
29	17	33	27	377	79.0	-198449.0	-7216.0	260672.0
29	17	33	27	378	80.0	-194169.0	-7216.0	270396.0
29	17	33	27	378	81.0	-190096.0	-7200.0	283069.0
29	17	33	27	379	83.0	-183170.0	-7153.0	302684.0
29	17	33	27	380	84.0	-180137.0	-7142.0	315371.0
29	17	33	27	380	85.0	-177422.0	-7095.0	332679.0
29	17	33	27	382	86.0	-174697.0	-7072.0	336361.0
29	17	33	27	383	87.0	-172085.0	-7045.0	322765.0
29	17	33	27	384	88.0	-170243.0	-6992.0	297442.0
29	17	33	27	385	89.0	-169174.0	-6967.0	280902.0
29	17	33	27	385	90.0	-168727.0	-6924.0	284403.0
29	17	33	27	386	91.0	-168897.0	-6891.0	294104.0
29	17	33	27	387	92.0	-169971.0	-6874.0	300543.0
29	17	33	27	387	93.0	-171599.0	-6837.0	304066.0
29	17	33	27	388	94.0	-173512.0	-6807.0	312118.0
29	17	33	27	389	128.0	-209820.0	-5866.0	368488.0
29	17	33	27	389	129.0	-210754.0	-5834.0	354083.0
29	17	33	27	390	130.0	-211197.0	-5793.0	358461.0
29	17	33	27	390	131.0	-211164.0	-5762.0	366694.0
29	17	33	27	391	132.0	-210777.0	-5716.0	373708.0
29	17	33	27	391	133.0	-210190.0	-5675.0	377136.0
29	17	33	27	392	134.0	-209560.0	-5624.0	384758.0
29	17	33	27	421	135.0	-208770.0	-5611.0	401964.0
29	17	33	27	422	136.0	-207722.0	-5588.0	407487.0
29	17	33	27	423	137.0	-207432.0	-5558.0	394151.0
29	17	33	27	424	138.0	-207659.0	-5557.0	369989.0
29	17	33	27	425	139.0	-207879.0	-5539.0	353208.0
29	17	33	27	426	140.0	-208661.0	-5527.0	356719.0
29	17	33	27	426	141.0	-209412.0	-5497.0	365514.0
29	17	33	27	427	142.0	-210169.0	-5499.0	374432.0
29	17	33	27	428	143.0	-210904.0	-5482.0	380653.0
29	17	33	27	428	144.0	-211311.0	-5479.0	389213.0
29	17	33	27	429	145.0	-211787.0	-5482.0	405096.0
29	17	33	27	430	146.0	-212420.0	-5466.0	408415.0
29	17	33	27	431	147.0	-212904.0	-5459.0	393333.0
29	17	33	27	431	148.0	-213490.0	-5447.0	368229.0
29	17	33	27	432	149.0	-214019.0	-5436.0	353541.0
29	17	33	27	433	151.0	-215116.0	-5409.0	363416.0
29	17	33	27	433	152.0	-215766.0	-5395.0	365266.0
29	17	33	27	434	153.0	-215759.0	-5365.0	365013.0
29	17	33	27	434	154.0	-214843.0	-5345.0	364618.0
29	17	33	27	435	155.0	-213221.0	-5307.0	370024.0
29	17	33	27	436	156.0	-210817.0	-5259.0	361360.0
29	17	33	27	465	157.0	-207574.0	-5249.0	335648.0
29	17	33	27	490	158.0	-203477.0	-5231.0	300794.0
29	17	33	27	491	159.0	-198787.0	-5200.0	278403.0
29	17	33	27	491	160.0	-194167.0	-5172.0	279014.0
29	17	33	27	492	161.0	-189569.0	-5169.0	287208.0
29	17	33	27	493	162.0	-184706.0	-5143.0	294623.0
29	17	33	27	493	163.0	-179548.0	-5134.0	301838.0
29	17	33	27	494	164.0	-174670.0	-5136.0	315081.0
29	17	33	27	494	165.0	-170207.0	-5129.0	340906.0
29	17	33	27	495	166.0	-166401.0	-5116.0	356032.0
29	17	33	27	496	167.0	-163436.0	-5099.0	356709.0
29	17	33	27	496	168.0	-160947.0	-5104.0	346823.0
29	17	33	27	497	169.0	-159242.0	-5081.0	346141.0
29	17	33	27	498	170.0	-158951.0	-5056.0	366821.0
29	17	33	27	498	171.0	-160626.0	-5035.0	393813.0
29	17	33	27	499	173.0	-169774.0	-5015.0	429531.0
29	17	33	27	499	174.0	-174436.0	-5006.0	444546.0
29	17	33	27	500	175.0	-177869.0	-4969.0	464638.0
29	17	33	27	500	176.0	-177388.0	-4954.0	470258.0
29	17	33	27	501	177.0	-173269.0	-4926.0	459859.0
29	17	33	27	502	178.0	-169724.0	-4908.0	438378.0
29	17	33	27	513	179.0	-165264.0	-4860.0	424323.0
29	17	33	27	513	180.0	-165481.0	-4829.0	429282.0
29	17	33	27	514	181.0	-171604.0	-4828.0	437974.0
29	17	33	27	515	182.0	-182397.0	-4822.0	443763.0
29	17	33	27	516	183.0	-197947.0	-4792.0	447419.0
29	17	33	27	517	184.0	-215299.0	-4765.0	454457.0
29	17	33	27	517	185.0	-231222.0	-4765.0	469588.0
29	17	33	27	518	186.0	-244742.0	-4775.0	472506.0
29	17	33	27	519	187.0	-255879.0	-4784.0	461063.0
29	17	33	27	520	188.0	-262846.0	-4764.0	438382.0
29	17	33	27	520	189.0	-264533.0	-4736.0	423387.0
29	17	33	27	521	190.0	-261834.0	-4720.0	428026.0
29	17	33	27	522	191.0	-257579.0	-4726.0	438907.0
29	17	33	27	522	192.0	-253059.0	-4707.0	449069.0
29	17	33	27	523	193.0	-245342.0	-4689.0	456494.0
29	17	33	27	524	195.0	-215303.0	-4649.0	486276.0
29	17	33	27	524	196.0	-205552.0	-4650.0	491413.0
29	17	33	27	525	197.0	-195739.0	-4633.0	482541.0
29	17	33	27	525	198.0	-184912.0	-4601.0	461904.0
29	17	33	27	526	199.0	-176855.0	-4552.0	448569.0
29	17	33	27	527	200.0	-173432.0	-4541.0	453874.0
29	17	33	27	527	201.0	-172779.0	-4527.0	465294.0
29	17	33	27	556	202.0	-173642.0	-4512.0	472546.0
29	17	33	27	557	203.0	-177300.0	-4476.0	477359.0
29	17	33	27	558	204.0	-186540.0	-4466.0	488166.0
29	17	33	27	558	205.0	-199323.0	-4479.0	505412.0
29	17	33	27	559	206.0	-211284.0	-4480.0	508549.0
29	17	33	27	559	207.0	-219282.0	-4459.0	494001.0
29	17	33	27	560	208.0	-221001.0	-4486.0	470209.0
29	17	33	27	561	209.0	-217637.0	-4474.0	454465.0
29	17	33	27	561	210.0	-212383.0	-4469.0	458958.0
29	17	33	27	562	211.0	-207959.0	-4477.0	467361.0
29	17	33	27	562	212.0	-205327.0	-4491.0	473936.0
29	17	33	27	563	213.0	-203703.0	-4502.0	480516.0
29	17	33	27	563	214.0	-201366.0	-4501.0	490901.0
29	17	33	27	564	215.0	-198359.0	-4499.0	506490.0
29	17	33	27	564	216.0	-194411.0	-4517.0	509313.0
29	17	33	27	565	218.0	-186027.0	-4527.0	474024.0
29	17	33	27	566	219.0	-182601.0	-4536.0	459486.0
29	17	33	27	566	220.0	-180606.0	-4524.0	463964.0
29	17	33	27	567	221.0	-179674.0	-4510.0	473949.0
29	17	33	27	567	222.0	-179282.0	-4498.0	481161.0
29	17	33	27	568	223.0	-178217.0	-4503.0	484810.0
29	17	33	27	599	224.0	-176517.0	-4509.0	492551.0
29	17	33	27	600	225.0	-174240.0	-4513.0	509183.0
29	17	33	27	600	226.0	-171868.0	-4516.0	513553.0
29	17	33	27	601	227.0	-169654.0	-4531.0	500979.0
29	17	33	27	602	228.0	-167635.0	-4561.0	477668.0
29	17	33	27	602	229.0	-167084.0	-4580.0	461964.0
29	17	33	27	603	230.0	-168348.0	-4592.0	465964.0
29	17	33	27	603	231.0	-171486.0	-4624.0	475202.0
29	17	33	27	604	232.0	-176250.0	-4652.0	482095.0
29	17	33	27	605	233.0	-181801.0	-4696.0	487953.0
29	17	33	27	605	234.0	-187474.0	-4714.0	496411.0
29	17	33	27	606	235.0	-193199.0	-4725.0	510951.0
29	17	33	27	606	236.0	-198988.0	-4757.0	512916.0
29	17	33	27	607	237.0	-204562.0	-4787.0	499436.0
29	17	33	27	608	238.0	-209296.0	-4816.0	475919.0
29	17	33	27	608	240.0	-215780.0	-4857.0	460914.0
29	17	33	27	609	241.0	-217919.0	-4882.0	468137.0
29	17	33	27	610	242.0	-219937.0	-4917.0	473491.0
29	17	33	27	610	243.0	-221367.0	-4931.0	477469.0
29	17	33	27	611	244.0	-221989.0	-4931.0	486063.0
29	17	33	27	611	245.0	-221807.0	-4949.0	500334.0
29	17	33	27	612	246.0	-220426.0	-4970.0	501196.0
29	17	33	27	645	247.0	-218373.0	-5003.0	485166.0
29	17	33	27	645	248.0	-215792.0	-5016.0	460109.0
29	17	33	27	646	249.0	-213274.0	-5046.0	443500.0
29	17	33	27	646	250.0	-210667.0	-5083.0	446452.0
29	17	33	27	647	251.0	-208332.0	-5091.0	454689.0
29	17	33	27	648	252.0	-206673.0	-5131.0	461903.0
29	17	33	27	648	253.0	-205632.0	-5172.0	466874.0
29	17	33	27	649	254.0	-205601.0	-5211.0	472801.0
29	17	33	27	650	255.0	-205831.0	-5258.0	484275.0
29	17	33	27	650	0.0	-205835.0	-5307.0	484856.0
29	17	33	27	651	1.0	-205292.0	-5337.0	472309.0
29	17	33	27	651	2.0	-204344.0	-5344.0	449413.0
29	17	33	27	652	3.0	-203086.0	-5396.0	432313.0
29	17	33	27	652	4.0	-201734.0	-5421.0	435426.0
29	17	33	27	653	5.0	-199742.0	-5461.0	444094.0
29	17	33	27	654	7.0	-195599.0	-5539.0	453114.0
29	17	33	27	654	8.0	-193434.0	-5554.0	461621.0
29	17	33	27	655	9.0	-191486.0	-5567.0	477409.0
29	17	33	27	655	10.0	-189787.0	-5591.0	479273.0
29	17	33	27	656	11.0	-188829.0	-5611.0	466216.0
29	17	33	27	656	12.0	-188846.0	-5621.0	444269.0
29	17	33	27	690	13.0	-188896.0	-5617.0	432354.0
29	17	33	27	690	14.0	-188946.0	-5623.0	439152.0
29	17	33	27	691	15.0	-189502.0	-5636.0	450245.0
29	17	33	27	692	16.0	-190436.0	-5661.0	457570.0
29	17	33	27	692	17.0	-191349.0	-5677.0	460857.0
29	17	33	27	693	18.0	-192023.0	-5671.0	467591.0
29	17	33	27	693	19.0	-192413.0	-5673.0	481135.0
29	17	33	27	694	20.0	-193108.0	-5699.0	481141.0
29	17	33	27	694	21.0	-193882.0	-5706.0	466646.0
29	17	33	27	695	22.0	-194514.0	-5706.0	441873.0
29	17	33	27	696	23.0	-194929.0	-5671.0	424963.0
29	17	33	27	696	24.0	-194977.0	-5639.0	427101.0
29	17	33	27	697	25.0	-194859.0	-5636.0	432162.0
29	17	33	27	697	26.0	-194873.0	-5606.0	434808.0
29	17	33	27	698	27.0	-195086.0	-5582.0	435367.0
29	17	33	27	698	29.0	-197436.0	-5474.0	453925.0
29	17	33	27	699	30.0	-199158.0	-5437.0	452959.0
29	17	33	27	700	31.0	-201308.0	-5376.0	437748.0
29	17	33	27	700	32.0	-203695.0	-5298.0	412778.0
29	17	33	27	701	33.0	-205988.0	-5217.0	395203.0
29	17	33	27	701	34.0	-207986.0	-5129.0	395764.0
29	17	33	27	702	35.0	-209639.0	-5054.0	402496.0
29	17	33	27	736	36.0	-211206.0	-4966.0	408742.0
29	17	33	27	736	37.0	-212760.0	-4881.0	412934.0
29	17	33	27	737	38.0	-214006.0	-4799.0	423039.0
29	17	33	27	737	39.0	-214618.0	-4707.0	438694.0
29	17	33	27	738	40.0	-214879.0	-4634.0	441152.0
29	17	33	27	739	41.0	-215012.0	-4546.0	427938.0
29	17	33	27	739	42.0	-214858.0	-4448.0	405111.0
29	17	33	27	740	43.0	-214256.0	-4332.0	392056.0
29	17	33	27	740	44.0	-213205.0	-4232.0	398141.0
29	17	33	27	741	45.0	-211760.0	-4134.0	408493.0
29	17	33	27	742	46.0	-209320.0	-4032.0	415421.0
29	17	33	27	742	47.0	-206030.0	-3916.0	420043.0
29	17	33	27	743	48.0	-202118.0	-3795.0	428845.0
29	17	33	27	743	49.0	-198316.0	-3654.0	443586.0
29	17	33	27	744	50.0	-195111.0	-3533.0	445198.0
29	17	33	27	745	52.0	-190208.0	-3308.0	409066.0
29	17	33	27	745	53.0	-188476.0	-3163.0	393591.0
29	17	33	27	746	54.0	-187302.0	-3018.0	398228.0
29	17	33	27	746	55.0	-186902.0	-2874.0	406747.0
29	17	33	27	747	56.0	-186324.0	-2723.0	413814.0
29	17	33	27	748	57.0	-185744.0	-2576.0	418960.0
29	17	33	27	779	58.0	-185076.0	-2429.0	428299.0
29	17	33	27	780	59.0	-184391.0	-2269.0	444054.0
29	17	33	27	781	60.0	-183687.0	-2127.0	446513.0
29	17	33	27	781	61.0	-183418.0	-1992.0	433439.0
29	17	33	27	782	62.0	-183102.0	-1870.0	409536.0
29	17	33	27	783	63.0	-182929.0	-1726.0	396473.0
29	17	33	27	783	64.0	-183125.0	-1588.0	402463.0
29	17	33	27	784	65.0	-183874.0	-1442.0	411818.0
29	17	33	27	784	66.0	-184734.0	-1303.0	419571.0
29	17	33	27	785	67.0	-185765.0	-1157.0	424531.0
29	17	33	27	786	68.0	-187121.0	-1021.0	433859.0
29	17	33	27	786	69.0	-188634.0	-892.0	447983.0
29	17	33	27	787	70.0	-190631.0	-746.0	449426.0
29	17	33	27	787	71.0	-193318.0	-601.0	434296.0
29	17	33	27	788	72.0	-196648.0	-454.0	409612.0
29	17	33	27	789	74.0	-204083.0	-184.0	397946.0
29	17	33	27	789	75.0	-207636.0	-46.0	406241.0
29	17	33	27	790	76.0	-210973.0	100.0	411919.0
29	17	33	27	790	77.0	-213662.0	239.0	416003.0
29	17	33	27	791	78.0	-215166.0	395.0	425103.0
29	17	33	27	792	79.0	-214055.0	523.0	440982.0
29	17	33	27	792	80.0	-210876.0	672.0	444519.0
29	17	33	27	871	81.0	-210046.0	816.0	432503.0
29	17	33	27	872	82.0	-213248.0	924.0	409893.0
29	17	33	27	872	83.0	-218903.0	1051.0	395669.0
29	17	33	27	873	84.0	-225866.0	1178.0	400398.0
29	17	33	27	873	85.0	-232637.0	1296.0	410670.0
29	17	33	27	874	86.0	-238066.0	1399.0	418773.0
29	17	33	27	875	87.0	-239701.0	1509.0	426058.0
29	17	33	27	875	88.0	-237927.0	1620.0	436220.0
29	17	33	27	876	89.0	-234531.0	1714.0	449447.0
29	17	33	27	877	90.0	-231116.0	1820.0	450733.0
29	17	33	27	877	91.0	-227669.0	1913.0	436392.0
29	17	33	27	878	92.0	-223664.0	2008.0	412275.0
29	17	33	27	878	93.0	-219362.0	2115.0	400569.0
29	17	33	27	879	94.0	-216141.0	2223.0	406543.0
29	17	33	27	880	95.0	-214556.0	2301.0	415084.0
29	17	33	27	880	97.0	-213818.0	2478.0	428462.0
29	17	33	27	881	119.0	-198930.0	4132.0	479076.0
29	17	33	27	881	120.0	-199632.0	4173.0	479669.0
29	17	33	27	882	121.0	-200231.0	4241.0	466536.0
29	17	33	27	882	122.0	-200675.0	4311.0	445523.0
29	17	33	27	883	123.0	-201234.0	4374.0	434043.0
29	17	33	27	884	124.0	-201936.0	4461.0	439485.0
29	17	33	27	915	125.0	-202759.0	4533.0	447266.0
29	17	33	27	915	126.0	-203923.0	4568.0	454194.0
29	17	33	27	916	127.0	-205510.0	4614.0	458824.0
29	17	33	27	917	128.0	-207285.0	4691.0	467577.0
29	17	33	27	936	129.0	-208905.0	4711.0	484029.0
29	17	33	27	937	130.0	-210142.0	4745.0	486284.0
29	17	33	27	938	131.0	-210882.0	4768.0	471951.0
29	17	33	27	938	132.0	-211278.0	4800.0	450049.0
29	17	33	27	939	133.0	-211022.0	4836.0	437982.0
29	17	33	27	939	134.0	-209866.0	4853.0	443576.0
29	17	33	27	940	135.0	-208352.0	4874.0	452244.0
29	17	33	27	940	136.0	-206639.0	4906.0	459652.0
29	17	33	27	941	137.0	-204701.0	4912.0	465809.0
29	17	33	27	941	138.0	-202582.0	4910.0	475835.0
29	17	33	27	942	139.0	-199918.0	4940.0	489317.0
29	17	33	27	943	140.0	-197141.0	4953.0	489568.0
29	17	33	27	943	142.0	-192581.0	4972.0	454006.0
29	17	33	27	944	143.0	-191166.0	4993.0	441869.0
29	17	33	27	944	144.0	-189967.0	5014.0	445849.0
29	17	33	27	945	145.0	-188677.0	5029.0	453331.0
29	17	33	27	945	146.0	-187521.0	5051.0	460216.0
29	17	33	27	946	147.0	-186314.0	5098.0	464491.0
29	17	33	28	6	148.0	-185166.0	5087.0	474845.0
29	17	33	28	6	149.0	-184228.0	5106.0	491154.0
29	17	33	28	8	150.0	-183674.0	5112.0	491558.0
29	17	33	28	9	151.0	-183614.0	5114.0	477384.0
29	17	33	28	10	152.0	-184172.0	5093.0	455348.0
29	17	33	28	11	153.0	-185051.0	5088.0	442771.0
29	17	33	28	12	154.0	-186677.0	5082.0	447544.0
29	17	33	28	12	155.0	-188828.0	5060.0	455468.0
29	17	33	28	13	156.0	-190716.0	5033.0	462838.0
29	17	33	28	14	157.0	-192526.0	5028.0	467302.0
29	17	33	28	14	158.0	-194076.0	5026.0	475431.0
29	17	33	28	15	159.0	-195666.0	5009.0	489289.0
29	17	33	28	16	160.0	-197099.0	5004.0	490586.0
29	17	33	28	16	161.0	-198934.0	4975.0	476573.0
29	17	33	28	17	162.0	-201062.0	4951.0	452306.0
29	17	33	28	17	164.0	-205516.0	4949.0	441343.0
29	17	33	28	18	187.0	-192217.0	4491.0	490445.0
29	17	33	28	18	188.0	-189116.0	4491.0	501988.0
29	17	33	28	19	189.0	-186255.0	4508.0	517174.0
29	17	33	28	20	190.0	-183723.0	4507.0	520500.0
29	17	33	28	20	191.0	-181601.0	4504.0	510887.0
29	17	33	28	21	192.0	-179818.0	4493.0	491283.0
29	17	33	28	21	193.0	-178381.0	4495.0	482336.0
29	17	33	28	51	194.0	-176932.0	4502.0	490141.0
29	17	33	28	51	195.0	-175924.0	4511.0	500129.0
29	17	33	28	52	196.0	-175883.0	4471.0	508812.0
29	17	33	28	53	197.0	-176104.0	4469.0	516461.0
29	17	33	28	53	198.0	-177150.0	4484.0	528131.0
29	17	33	28	54	199.0	-179077.0	4465.0	543716.0
29	17	33	28	54	200.0	-181510.0	4443.0	543523.0
29	17	33	28	55	201.0	-184527.0	4430.0	529010.0
29	17	33	28	56	202.0	-187841.0	4399.0	506623.0
29	17	33	28	56	203.0	-191531.0	4366.0	494448.0
29	17	33	28	57	204.0	-195262.0	4369.0	500578.0
29	17	33	28	57	205.0	-198694.0	4348.0	509259.0
29	17	33	28	58	206.0	-201930.0	4328.0	514834.0
29	17	33	28	59	207.0	-204748.0	4292.0	520010.0
29	17	33	28	59	208.0	-206962.0	4256.0	529158.0
29	17	33	28	60	209.0	-208401.0	4238.0	543821.0
29	17	33	28	61	210.0	-209137.0	4211.0	545514.0
29	17	33	28	61	211.0	-208930.0	4195.0	532417.0
29	17	33	28	62	212.0	-208287.0	4191.0	512114.0
29	17	33	28	62	213.0	-207579.0	4203.0	501712.0
29	17	33	28	63	214.0	-206958.0	4191.0	507024.0
29	17	33	28	141	215.0	-206408.0	4175.0	516720.0
29	17	33	28	141	216.0	-206375.0	4168.0	523811.0
29	17	33	28	142	217.0	-206288.0	4139.0	526983.0
29	17	33	28	143	218.0	-205734.0	4123.0	536897.0
29	17	33	28	143	219.0	-205429.0	4086.0	553048.0
29	17	33	28	144	220.0	-204869.0	4054.0	556251.0
29	17	33	28	145	221.0	-204172.0	4016.0	543951.0
29	17	33	28	145	222.0	-203761.0	3963.0	523546.0
29	17	33	28	146	223.0	-203211.0	3948.0	512068.0
29	17	33	28	146	224.0	-202896.0	3936.0	517798.0
29	17	33	28	147	225.0	-202621.0	3904.0	527388.0
29	17	33	28	148	226.0	-202179.0	3853.0	535501.0
29	17	33	28	148	227.0	-201897.0	3814.0	542368.0
29	17	33	28	149	228.0	-201506.0	3795.0	554755.0
29	17	33	28	149	229.0	-201046.0	3759.0	571548.0
29	17	33	28	150	231.0	-200529.0	3666.0	562107.0
29	17	33	28	151	254.0	-211346.0	2561.0	535769.0
29	17	33	28	151	255.0	-213257.0	2518.0	544946.0
29	17	33	28	152	0.0	-214788.0	2464.0	552379.0
29	17	33	28	153	1.0	-216021.0	2418.0	557527.0
29	17	33	28	153	2.0	-216547.0	2378.0	567864.0
29	17	33	28	154	3.0	-217034.0	2316.0	583179.0
29	17	33	28	154	4.0	-217195.0	2255.0	584511.0
29	17	33	28	186	5.0	-216598.0	2206.0	571317.0
29	17	33	28	187	6.0	-216348.0	2154.0	550276.0
29	17	33	28	188	7.0	-216311.0	2107.0	540333.0
29	17	33	28	188	8.0	-215850.0	2050.0	546544.0
29	17	33	28	189	9.0	-215015.0	1973.0	555926.0
29	17	33	28	190	10.0	-213662.0	1914.0	564798.0
29	17	33	28	190	11.0	-211961.0	1848.0	571101.0
29	17	33	28	191	12.0	-209914.0	1788.0	583866.0
29	17	33	28	192	13.0	-207471.0	1721.0	601386.0
29	17	33	28	192	14.0	-205119.0	1637.0	603281.0
29	17	33	28	193	15.0	-202831.0	1558.0	592757.0
29	17	33	28	193	16.0	-200627.0	1499.0	574428.0
29	17	33	28	194	17.0	-198367.0	1431.0	565899.0
29	17	33	28	195	18.0	-196234.0	1368.0	571713.0
29	17	33	28	195	19.0	-194791.0	1304.0	580025.0
29	17	33	28	196	20.0	-193356.0	1220.0	586079.0
29	17	33	28	197	21.0	-191993.0	1163.0	589329.0
29	17	33	28	197	22.0	-190994.0	1111.0	597490.0
29	17	33	28	198	23.0	-189960.0	1068.0	609936.0
29	17	33	28	198	24.0	-188847.0	1012.0	608337.0
29	17	33	28	199	25.0	-187686.0	940.0	592374.0
29	17	33	28	199	26.0	-186319.0	892.0	569429.0
29	17	33	28	229	27.0	-184873.0	852.0	557746.0
29	17	33	28	230	28.0	-183409.0	804.0	564376.0
29	17	33	28	230	29.0	-182013.0	716.0	574133.0
29	17	33	28	275	30.0	-181176.0	645.0	582200.0
29	17	33	28	276	31.0	-181195.0	593.0	589567.0
29	17	33	28	277	32.0	-182388.0	528.0	601791.0
29	17	33	28	277	33.0	-184949.0	451.0	617293.0
29	17	33	28	278	34.0	-188339.0	381.0	618501.0
29	17	33	28	279	35.0	-192120.0	290.0	605867.0
29	17	33	28	279	36.0	-195882.0	191.0	586250.0
29	17	33	28	280	37.0	-199698.0	126.0	575474.0
29	17	33	28	281	38.0	-203266.0	51.0	580727.0
29	17	33	28	281	39.0	-206187.0	-9.0	589844.0
29	17	33	28	282	40.0	-208512.0	-86.0	595855.0
29	17	33	28	283	41.0	-210352.0	-192.0	599198.0
29	17	33	28	283	43.0	-212966.0	-346.0	620621.0
29	17	33	28	284	44.0	-213744.0	-409.0	620381.0
29	17	33	28	285	45.0	-213982.0	-458.0	607178.0
29	17	33	28	285	46.0	-214188.0	-519.0	586665.0
29	17	33	28	286	66.0	-173265.0	-2084.0	587948.0
29	17	33	28	286	67.0	-172230.0	-2145.0	577270.0
29	17	33	28	287	68.0	-172184.0	-2179.0	584031.0
29	17	33	28	288	69.0	-172826.0	-2255.0	592573.0
29	17	33	28	288	70.0	-173714.0	-2319.0	599404.0
29	17	33	28	289	71.0	-175044.0	-2380.0	605829.0
29	17	33	28	320	72.0	-176796.0	-2416.0	618226.0
29	17	33	28	320	73.0	-178951.0	-2486.0	633481.0
29	17	33	28	321	74.0	-181781.0	-2567.0	634300.0
29	17	33	28	322	75.0	-184727.0	-2635.0	620968.0
29	17	33	28	322	76.0	-187845.0	-2718.0	598620.0
29	17	33	28	323	77.0	-191116.0	-2790.0	587979.0
29	17	33	28	324	78.0	-194354.0	-2867.0	594535.0
29	17	33	28	324	79.0	-197857.0	-2926.0	603888.0
29	17	33	28	325	80.0	-201726.0	-3011.0	611331.0
29	17	33	28	326	81.0	-205463.0	-3072.0	616981.0
29	17	33	28	326	82.0	-209188.0	-3135.0	627391.0
29	17	33	28	327	83.0	-212818.0	-3200.0	641160.0
29	17	33	28	328	84.0	-215986.0	-3284.0	643558.0
29	17	33	28	328	85.0	-219164.0	-3376.0	630516.0
29	17	33	28	329	86.0	-222309.0	-3430.0	610226.0
29	17	33	28	329	88.0	-226342.0	-3562.0	609151.0
29	17	33	28	330	89.0	-227674.0	-3621.0	618505.0
29	17	33	28	331	90.0	-228292.0	-3677.0	624973.0
29	17	33	28	331	91.0	-228457.0	-3732.0	630425.0
29	17	33	28	332	92.0	-228512.0	-3775.0	641003.0
29	17	33	28	332	93.0	-228354.0	-3816.0	654786.0
29	17	33	28	364	94.0	-228040.0	-3872.0	655999.0
29	17	33	28	365	95.0	-227262.0	-3913.0	643675.0
29	17	33	28	365	96.0	-226226.0	-3982.0	624112.0
29	17	33	28	366	97.0	-225328.0	-4057.0	614411.0
29	17	33	28	367	98.0	-224192.0	-4128.0	618472.0
29	17	33	28	367	99.0	-222581.0	-4207.0	625543.0
29	17	33	28	368	100.0	-220817.0	-4270.0	632409.0
29	17	33	28	368	101.0	-219033.0	-4324.0	638061.0
29	17	33	28	369	102.0	-216964.0	-4392.0	648616.0
29	17	33	28	370	103.0	-214714.0	-4467.0	661393.0
29	17	33	28	370	104.0	-212352.0	-4541.0	660954.0
29	17	33	28	371	105.0	-209557.0	-4617.0	648714.0
29	17	33	28	372	106.0	-206592.0	-4681.0	627672.0
29	17	33	28	372	107.0	-203222.0	-4738.0	617241.0
29	17	33	28	373	108.0	-199882.0	-4813.0	622906.0
29	17	33	28	374	110.0	-194345.0	-4967.0	637828.0
29	17	33	28	374	111.0	-191639.0	-5031.0	643167.0
29	17	33	28	375	112.0	-189485.0	-5074.0	653109.0
29	17	33	28	376	113.0	-187492.0	-5121.0	666197.0
29	17	33	28	376	114.0	-185324.0	-5166.0	666462.0
29	17	33	28	377	115.0	-183627.0	-5222.0	653123.0
29	17	33	28	377	116.0	-182961.0	-5276.0	633553.0
29	17	33	28	410	117.0	-183118.0	-5331.0	624826.0
29	17	33	28	410	118.0	-183394.0	-5375.0	631156.0
29	17	33	28	411	119.0	-184032.0	-5433.0	639712.0
29	17	33	28	412	120.0	-185399.0	-5498.0	646126.0
29	17	33	28	413	121.0	-187604.0	-5560.0	651992.0
29	17	33	28	413	122.0	-189816.0	-5620.0	662727.0
29	17	33	28	414	123.0	-192089.0	-5695.0	676329.0
29	17	33	28	415	124.0	-194164.0	-5749.0	678159.0
29	17	33	28	416	125.0	-195257.0	-5830.0	666286.0
29	17	33	28	416	126.0	-195685.0	-5882.0	645591.0
29	17	33	28	417	127.0	-195922.0	-5949.0	636611.0
29	17	33	28	418	128.0	-195957.0	-5996.0	643150.0
29	17	33	28	418	129.0	-195877.0	-6036.0	651672.0
29	17	33	28	419	130.0	-195801.0	-6108.0	658319.0
29	17	33	28	420	131.0	-195240.0	-6173.0	664675.0
29	17	33	28	420	133.0	-192532.0	-6281.0	690834.0
29	17	33	28	421	134.0	-191246.0	-6345.0	692909.0
29	17	33	28	421	135.0	-190179.0	-6391.0	683231.0
29	17	33	28	422	136.0	-189460.0	-6430.0	665954.0
29	17	33	28	422	137.0	-188805.0	-6453.0	657693.0
29	17	33	28	423	138.0	-188472.0	-6472.0	663243.0
29	17	33	28	501	139.0	-188527.0	-6506.0	670870.0
29	17	33	28	501	140.0	-188613.0	-6552.0	678613.0
29	17	33	28	502	141.0	-188816.0	-6612.0	686206.0
29	17	33	28	503	142.0	-189103.0	-6666.0	698923.0
29	17	33	28	504	143.0	-189530.0	-6732.0	714020.0
29	17	33	28	504	144.0	-190519.0	-6797.0	715557.0
29	17	33	28	505	145.0	-191823.0	-6856.0	704153.0
29	17	33	28	505	146.0	-193319.0	-6901.0	684807.0
29	17	33	28	506	147.0	-194966.0	-6946.0	675058.0
29	17	33	28	507	148.0	-196956.0	-7027.0	678199.0
29	17	33	28	507	149.0	-199058.0	-7078.0	680571.0
29	17	33	28	508	150.0	-201147.0	-7140.0	682263.0
29	17	33	28	509	151.0	-203537.0	-7187.0	684116.0
29	17	33	28	509	152.0	-205653.0	-7229.0	690523.0
29	17	33	28	510	153.0	-207440.0	-7301.0	697860.0
29	17	33	28	511	155.0	-211309.0	-7426.0	662459.0
29	17	33	28	511	178.0	-172938.0	-8758.0	677893.0
29	17	33	28	512	179.0	-164586.0	-8799.0	685387.0
29	17	33	28	512	180.0	-157686.0	-8834.0	690456.0
29	17	33	28	513	181.0	-157686.0	-8875.0	693303.0
29	17	33	28	514	182.0	-161903.0	-8906.0	700736.0
29	17	33	28	514	183.0	-171404.0	-8941.0	710770.0
29	17	33	28	546	184.0	-184248.0	-8977.0	708994.0
29	17	33	28	547	185.0	-197694.0	-9017.0	694876.0
29	17	33	28	548	186.0	-209833.0	-9066.0	673313.0
29	17	33	28	549	187.0	-220395.0	-9119.0	662215.0
29	17	33	28	549	188.0	-228899.0	-9181.0	666478.0
29	17	33	28	550	189.0	-233983.0	-9226.0	673131.0
29	17	33	28	551	190.0	-235188.0	-9289.0	676998.0
29	17	33	28	551	191.0	-233906.0	-9347.0	680051.0
29	17	33	28	552	192.0	-232056.0	-9403.0	690252.0
29	17	33	28	553	193.0	-229548.0	-9461.0	702567.0
29	17	33	28	553	194.0	-222717.0	-9506.0	701438.0
29	17	33	28	554	195.0	-212185.0	-9551.0	688147.0
29	17	33	28	555	196.0	-205997.0	-9609.0	668266.0
29	17	33	28	555	197.0	-201411.0	-9668.0	658904.0
29	17	33	28	556	198.0	-194861.0	-9708.0	664789.0
29	17	33	28	556	200.0	-190562.0	-9812.0	679294.0
29	17	33	28	557	201.0	-195269.0	-9862.0	683757.0
29	17	33	28	558	202.0	-201748.0	-9901.0	695274.0
29	17	33	28	558	203.0	-209227.0	-9939.0	706615.0
29	17	33	28	559	204.0	-219372.0	-9980.0	705730.0
29	17	33	28	559	205.0	-232240.0	-10007.0	692836.0
29	17	33	28	635	206.0	-245051.0	-10042.0	672918.0
29	17	33	28	636	207.0	-254604.0	-10087.0	663128.0
29	17	33	28	637	208.0	-258430.0	-10115.0	666656.0
29	17	33	28	638	209.0	-255642.0	-10158.0	671173.0
29	17	33	28	638	210.0	-248586.0	-10221.0	674224.0
29	17	33	28	639	211.0	-240217.0	-10271.0	675478.0
29	17	33	28	640	212.0	-231675.0	-10309.0	682531.0
29	17	33	28	640	213.0	-223283.0	-10364.0	692556.0
29	17	33	28	641	214.0	-215171.0	-10431.0	690313.0
29	17	33	28	641	215.0	-206524.0	-10470.0	674343.0
29	17	33	28	642	216.0	-196897.0	-10524.0	651229.0
29	17	33	28	643	217.0	-186923.0	-10561.0	638619.0
29	17	33	28	644	218.0	-177352.0	-10599.0	641799.0
29	17	33	28	645	219.0	-169013.0	-10649.0	646923.0
29	17	33	28	646	220.0	-162103.0	-10681.0	650035.0
29	17	33	28	647	222.0	-153478.0	-10786.0	666077.0
29	17	33	28	647	245.0	-251431.0	-11655.0	664936.0
29	17	33	28	648	246.0	-251334.0	-11697.0	645936.0
29	17	33	28	649	247.0	-250318.0	-11709.0	636887.0
29	17	33	28	649	248.0	-248375.0	-11712.0	642012.0
29	17	33	28	650	249.0	-245379.0	-11726.0	648301.0
29	17	33	28	681	250.0	-241422.0	-11754.0	653073.0
29	17	33	28	682	251.0	-236652.0	-11769.0	658046.0
29	17	33	28	683	252.0	-231286.0	-11787.0	668183.0
29	17	33	28	684	253.0	-225506.0	-11824.0	679106.0
29	17	33	28	684	254.0	-219175.0	-11871.0	675358.0
29	17	33	28	685	255.0	-212484.0	-11891.0	657218.0
29	17	33	28	686	0.0	-205853.0	-11931.0	634368.0
29	17	33	28	686	1.0	-199373.0	-11964.0	622718.0
29	17	33	28	687	2.0	-193566.0	-12000.0	623141.0
29	17	33	28	688	3.0	-188361.0	-12033.0	622036.0
29	17	33	28	688	4.0	-183559.0	-12080.0	619541.0
29	17	33	28	689	5.0	-179020.0	-12107.0	617361.0
29	17	33	28	690	6.0	-174935.0	-12144.0	621549.0
29	17	33	28	690	7.0	-171368.0	-12180.0	628124.0
29	17	33	28	691	8.0	-168026.0	-12204.0	622868.0
29	17	33	28	700	9.0	-164747.0	-12236.0	605529.0
29	17	33	28	700	12.0	-156409.0	-12330.0	565213.0
29	17	33	28	701	13.0	-155408.0	-12334.0	567340.0
29	17	33	28	702	14.0	-155562.0	-12339.0	567979.0
29	17	33	28	702	15.0	-157024.0	-12355.0	569016.0
29	17	33	28	703	16.0	-159219.0	-12337.0	576280.0
29	17	33	28	703	17.0	-162262.0	-12357.0	586003.0
29	17	33	28	770	18.0	-166003.0	-12362.0	584363.0
29	17	33	28	771	19.0	-170349.0	-12351.0	569364.0
29	17	33	28	772	20.0	-174983.0	-12356.0	548537.0
29	17	33	28	772	21.0	-179603.0	-12360.0	539482.0
29	17	33	28	773	22.0	-183996.0	-12359.0	544942.0
29	17	33	28	774	23.0	-188222.0	-12357.0	553183.0
29	17	33	28	774	24.0	-192276.0	-12340.0	560162.0
29	17	33	28	775	25.0	-195689.0	-12332.0	564576.0
29	17	33	28	776	26.0	-198770.0	-12326.0	575635.0
29	17	33	28	776	27.0	-201184.0	-12306.0	588218.0
29	17	33	28	777	28.0	-203051.0	-12276.0	585674.0
29	17	33	28	778	29.0	-204718.0	-12229.0	571344.0
29	17	33	28	778	30.0	-206214.0	-12206.0	550512.0
29	17	33	28	779	31.0	-208306.0	-12151.0	543674.0
29	17	33	28	780	32.0	-210731.0	-12102.0	551049.0
29	17	33	28	780	56.0	-204263.0	-9353.0	589711.0
29	17	33	28	781	57.0	-203719.0	-9171.0	601053.0
29	17	33	28	782	58.0	-202422.0	-9002.0	599591.0
29	17	33	28	782	59.0	-200899.0	-8817.0	585399.0
29	17	33	28	783	60.0	-199361.0	-8625.0	567011.0
29	17	33	28	783	61.0	-198158.0	-8426.0	560939.0
29	17	33	28	784	62.0	-197135.0	-8245.0	568596.0
29	17	33	28	815	63.0	-196142.0	-8051.0	577154.0
29	17	33	28	816	64.0	-195172.0	-7844.0	583939.0
29	17	33	28	817	65.0	-194026.0	-7671.0	589001.0
29	17	33	28	817	66.0	-193216.0	-7504.0	601714.0
29	17	33	28	818	67.0	-192521.0	-7329.0	614743.0
29	17	33	28	819	68.0	-191680.0	-7161.0	611639.0
29	17	33	28	819	69.0	-190648.0	-6979.0	596268.0
29	17	33	28	820	70.0	-189821.0	-6796.0	575836.0
29	17	33	28	821	71.0	-189874.0	-6626.0	568511.0
29	17	33	28	821	72.0	-190343.0	-6438.0	574224.0
29	17	33	28	822	73.0	-190957.0	-6274.0	581051.0
29	17	33	28	823	74.0	-192090.0	-6103.0	586986.0
29	17	33	28	824	75.0	-193341.0	-5931.0	592281.0
29	17	33	28	824	76.0	-194824.0	-5763.0	602803.0
29	17	33	28	825	77.0	-196479.0	-5594.0	614149.0
29	17	33	28	825	79.0	-197936.0	-5293.0	599411.0
29	17	33	28	826	80.0	-195596.0	-5119.0	580328.0
29	17	33	28	827	81.0	-193629.0	-4916.0	574080.0
29	17	33	28	827	82.0	-196491.0	-4730.0	580663.0
29	17	33	28	828	83.0	-201617.0	-4559.0	586025.0
29	17	33	28	828	84.0	-208015.0	-4372.0	589391.0
29	17	33	28	859	85.0	-214530.0	-4208.0	593478.0
29	17	33	28	859	86.0	-219413.0	-4027.0	604468.0
29	17	33	28	904	87.0	-221250.0	-3862.0	616499.0
29	17	33	28	905	88.0	-219167.0	-3747.0	614476.0
29	17	33	28	906	89.0	-215599.0	-3588.0	600806.0
29	17	33	28	907	90.0	-212805.0	-3445.0	581433.0
29	17	33	28	907	91.0	-210832.0	-3291.0	574901.0
29	17	33	28	908	92.0	-208991.0	-3159.0	580693.0
29	17	33	28	909	93.0	-206877.0	-3039.0	587239.0
29	17	33	28	909	94.0	-205086.0	-2907.0	590968.0
29	17	33	28	910	95.0	-204195.0	-2752.0	595192.0
29	17	33	28	911	96.0	-204422.0	-2607.0	604114.0
29	17	33	28	912	97.0	-205195.0	-2485.0	612979.0
29	17	33	28	912	98.0	-206294.0	-2379.0	609540.0
29	17	33	28	913	99.0	-207509.0	-2261.0	595518.0
29	17	33	28	914	101.0	-207842.0	-2020.0	571143.0
29	17	33	28	914	102.0	-206129.0	-1909.0	577415.0
29	17	33	28	915	103.0	-203296.0	-1769.0	585215.0
29	17	33	28	916	124.0	-207561.0	144.0	603589.0
29	17	33	28	917	125.0	-206034.0	224.0	606853.0
29	17	33	28	918	126.0	-204060.0	337.0	616583.0
29	17	33	28	918	127.0	-201885.0	411.0	626517.0
29	17	33	28	919	128.0	-199866.0	476.0	624165.0
29	17	33	28	920	129.0	-198051.0	561.0	609438.0
29	17	33	28	951	130.0	-196183.0	608.0	589468.0
29	17	33	28	952	131.0	-194407.0	680.0	581078.0
29	17	33	28	952	132.0	-192937.0	764.0	584175.0
29	17	33	28	953	133.0	-191105.0	802.0	589554.0
29	17	33	28	954	134.0	-189112.0	845.0	595245.0
29	17	33	28	955	135.0	-187654.0	898.0	600189.0
29	17	33	28	955	136.0	-186213.0	940.0	610868.0
29	17	33	28	956	137.0	-185261.0	981.0	621931.0
29	17	33	28	957	138.0	-184876.0	1002.0	619462.0
29	17	33	28	957	139.0	-184707.0	1026.0	603841.0
29	17	33	28	958	140.0	-184863.0	1063.0	583761.0
29	17	33	28	959	141.0	-185017.0	1119.0	577221.0
29	17	33	28	960	142.0	-185279.0	1150.0	582284.0
29	17	33	28	961	143.0	-185765.0	1186.0	586711.0
29	17	33	28	961	144.0	-186706.0	1191.0	589753.0
29	17	33	28	962	146.0	-189419.0	1221.0	604863.0
29	17	33	28	962	147.0	-190777.0	1256.0	616836.0
29	17	33	28	963	148.0	-192429.0	1281.0	614978.0
29	17	33	28	964	149.0	-193996.0	1308.0	601289.0
29	17	33	28	964	150.0	-195581.0	1358.0	581231.0
29	17	33	28	965	151.0	-197617.0	1396.0	573526.0
29	17	33	29	40	152.0	-199969.0	1413.0	577412.0
29	17	33	29	41	153.0	-202860.0	1452.0	583754.0
29	17	33	29	42	154.0	-205323.0	1471.0	588578.0
29	17	33	29	42	155.0	-207079.0	1467.0	593314.0
29	17	33	29	43	156.0	-208514.0	1467.0	604951.0
29	17	33	29	44	157.0	-209347.0	1479.0	616680.0
29	17	33	29	45	158.0	-210005.0	1473.0	615056.0
29	17	33	29	45	159.0	-210375.0	1475.0	601713.0
29	17	33	29	46	160.0	-210604.0	1496.0	582802.0
29	17	33	29	47	161.0	-210861.0	1499.0	575642.0
29	17	33	29	47	162.0	-210947.0	1500.0	581458.0
29	17	33	29	48	163.0	-211108.0	1497.0	589293.0
29	17	33	29	49	164.0	-211013.0	1480.0	596014.0
29	17	33	29	49	165.0	-210851.0	1488.0	600420.0
29	17	33	29	50	166.0	-210576.0	1497.0	611173.0
29	17	33	29	51	168.0	-209476.0	1486.0	618513.0
29	17	33	29	51	191.0	-192544.0	1453.0	585996.0
29	17	33	29	52	192.0	-193169.0	1458.0	591144.0
29	17	33	29	53	193.0	-193570.0	1454.0	598168.0
29	17	33	29	53	194.0	-193425.0	1466.0	603527.0
29	17	33	29	54	195.0	-193126.0	1501.0	607244.0
29	17	33	29	54	196.0	-192952.0	1501.0	616723.0
29	17	33	29	55	197.0	-192473.0	1505.0	625121.0
29	17	33	29	86	198.0	-192091.0	1499.0	621464.0
29	17	33	29	87	199.0	-191678.0	1494.0	605768.0
29	17	33	29	87	200.0	-191818.0	1511.0	586916.0
29	17	33	29	88	201.0	-192037.0	1511.0	580284.0
29	17	33	29	89	202.0	-192337.0	1497.0	585786.0
29	17	33	29	90	203.0	-192795.0	1487.0	592926.0
29	17	33	29	90	204.0	-192898.0	1484.0	596894.0
29	17	33	29	91	205.0	-193026.0	1467.0	601944.0
29	17	33	29	92	206.0	-192767.0	1471.0	614958.0
29	17	33	29	92	207.0	-192327.0	1457.0	626003.0
29	17	33	29	93	208.0	-191980.0	1428.0	624106.0
29	17	33	29	94	209.0	-191570.0	1421.0	611638.0
29	17	33	29	94	210.0	-190914.0	1421.0	594859.0
29	17	33	29	95	211.0	-190133.0	1433.0	589050.0
29	17	33	29	96	212.0	-189271.0	1408.0	593938.0
29	17	33	29	96	213.0	-188444.0	1392.0	600745.0
29	17	33	29	97	214.0	-187773.0	1393.0	604411.0
29	17	33	29	98	215.0	-187381.0	1393.0	608696.0
29	17	33	29	98	216.0	-187339.0	1406.0	619659.0
29	17	33	29	99	217.0	-187202.0	1424.0	628293.0
29	17	33	29	99	218.0	-187150.0	1406.0	624241.0
29	17	33	29	100	219.0	-187307.0	1402.0	610704.0
29	17	33	29	130	220.0	-187823.0	1414.0	592192.0
29	17	33	29	131	221.0	-189056.0	1430.0	585641.0
29	17	33	29	132	222.0	-191003.0	1416.0	592629.0
29	17	33	29	132	223.0	-193930.0	1405.0	600747.0
29	17	33	29	133	224.0	-197219.0	1384.0	605191.0
29	17	33	29	134	225.0	-200531.0	1346.0	609516.0
29	17	33	29	134	226.0	-203652.0	1309.0	620739.0
29	17	33	29	135	227.0	-207141.0	1296.0	628251.0
29	17	33	29	136	228.0	-210337.0	1273.0	623148.0
29	17	33	29	136	229.0	-213226.0	1233.0	607674.0
29	17	33	29	137	230.0	-216117.0	1202.0	588916.0
29	17	33	29	137	231.0	-218651.0	1177.0	586128.0
29	17	33	29	138	232.0	-220417.0	1161.0	594121.0
29	17	33	29	139	233.0	-221546.0	1141.0	600765.0
29	17	33	29	139	234.0	-222524.0	1101.0	605339.0
29	17	33	29	140	236.0	-224872.0	1027.0	622097.0
29	17	33	29	141	237.0	-225402.0	1014.0	631811.0
29	17	33	29	141	238.0	-225579.0	998.0	628066.0
29	17	33	29	142	239.0	-225432.0	990.0	613178.0
29	17	33	29	142	240.0	-224822.0	956.0	593851.0
29	17	33	29	143	241.0	-223859.0	936.0	588523.0
29	17	33	29	144	242.0	-222751.0	925.0	594224.0
29	17	33	29	174	243.0	-221421.0	906.0	599428.0
29	17	33	29	175	244.0	-219687.0	883.0	603133.0
29	17	33	29	175	245.0	-217370.0	838.0	606469.0
29	17	33	29	176	246.0	-214902.0	819.0	616733.0
29	17	33	29	177	247.0	-212655.0	774.0	626313.0
29	17	33	29	177	248.0	-210559.0	723.0	622968.0
29	17	33	29	178	249.0	-208446.0	695.0	608300.0
29	17	33	29	178	250.0	-206391.0	637.0	589382.0
29	17	33	29	179	251.0	-204319.0	591.0	583623.0
29	17	33	29	180	252.0	-202007.0	579.0	590669.0
29	17	33	29	180	253.0	-199121.0	562.0	597061.0
29	17	33	29	181	254.0	-195985.0	514.0	601662.0
29	17	33	29	182	255.0	-192939.0	459.0	606293.0
29	17	33	29	182	0.0	-189660.0	404.0	616313.0
29	17	33	29	183	1.0	-186549.0	383.0	624971.0
29	17	33	29	183	2.0	-184110.0	351.0	622593.0
29	17	33	29	184	3.0	-182182.0	317.0	610963.0
29	17	33	29	185	4.0	-180897.0	294.0	595050.0
29	17	33	29	185	5.0	-180223.0	291.0	590285.0
29	17	33	29	186	6.0	-179774.0	270.0	593675.0
29	17	33	29	186	7.0	-179571.0	246.0	599110.0
29	17	33	29	195	8.0	-179559.0	206.0	605547.0
29	17	33	29	248	9.0	-179965.0	174.0	609874.0
29	17	33	29	248	10.0	-180867.0	159.0	620639.0
29	17	33	29	249	11.0	-181990.0	110.0	631809.0
29	17	33	29	249	12.0	-183596.0	75.0	631015.0
29	17	33	29	250	13.0	-186307.0	37.0	617709.0
29	17	33	29	250	14.0	-189664.0	-19.0	599545.0
29	17	33	29	251	15.0	-193216.0	-59.0	594375.0
29	17	33	29	252	16.0	-196953.0	-94.0	601787.0
29	17	33	29	265	17.0	-200329.0	-146.0	608838.0
29	17	33	29	266	18.0	-203639.0	-207.0	614412.0
29	17	33	29	266	19.0	-206975.0	-242.0	620010.0
29	17	33	29	267	20.0	-210314.0	-291.0	632154.0
29	17	33	29	268	21.0	-213095.0	-348.0	642318.0
29	17	33	29	268	22.0	-215052.0	-404.0	639416.0
29	17	33	29	269	23.0	-216746.0	-444.0	624424.0
29	17	33	29	285	25.0	-218942.0	-536.0	605371.0
29	17	33	29	285	26.0	-219162.0	-564.0	612697.0
29	17	33	29	286	27.0	-218968.0	-601.0	620452.0
29	17	33	29	286	28.0	-218436.0	-642.0	626814.0
29	17	33	29	287	29.0	-217776.0	-689.0	632451.0
29	17	33	29	288	30.0	-216864.0	-734.0	645494.0
29	17	33	29	288	31.0	-215652.0	-797.0	656989.0
29	17	33	29	289	32.0	-214198.0	-855.0	655819.0
29	17	33	29	289	47.0	-194084.0	-1627.0	633943.0
29	17	33	29	290	48.0	-194874.0	-1679.0	638709.0
29	17	33	29	290	49.0	-195605.0	-1723.0	640322.0
29	17	33	29	291	50.0	-196157.0	-1749.0	647719.0
29	17	33	29	292	51.0	-197237.0	-1791.0	653759.0
29	17	33	29	292	52.0	-198800.0	-1827.0	648521.0
29	17	33	29	293	53.0	-200818.0	-1879.0	634403.0
29	17	33	29	309	54.0	-203554.0	-1911.0	617739.0
29	17	33	29	310	55.0	-206509.0	-1932.0	615681.0
29	17	33	29	311	56.0	-209359.0	-1979.0	625033.0
29	17	33	29	311	57.0	-211807.0	-2022.0	636888.0
29	17	33	29	312	58.0	-214129.0	-2081.0	646154.0
29	17	33	29	313	59.0	-215994.0	-2134.0	653212.0
29	17	33	29	313	60.0	-217305.0	-2167.0	665961.0
29	17	33	29	314	61.0	-218037.0	-2226.0	676509.0
29	17	33	29	314	62.0	-218411.0	-2273.0	674721.0
29	17	33	29	315	63.0	-218616.0	-2347.0	662528.0
29	17	33	29	316	64.0	-218922.0	-2381.0	647652.0
29	17	33	29	316	65.0	-218963.0	-2439.0	643709.0
29	17	33	29	317	66.0	-218109.0	-2492.0	648591.0
29	17	33	29	318	67.0	-216401.0	-2534.0	653597.0
29	17	33	29	319	68.0	-214027.0	-2591.0	657532.0
29	17	33	29	319	70.0	-207439.0	-2686.0	673104.0
29	17	33	29	320	71.0	-204034.0	-2743.0	682383.0
29	17	33	29	320	72.0	-200997.0	-2788.0	679880.0
29	17	33	29	321	73.0	-198269.0	-2797.0	667644.0
29	17	33	29	322	74.0	-195761.0	-2832.0	653317.0
29	17	33	29	322	75.0	-193879.0	-2861.0	650682.0
29	17	33	29	354	76.0	-191976.0	-2880.0	656746.0
29	17	33	29	355	77.0	-190087.0	-2927.0	663528.0
29	17	33	29	355	78.0	-188579.0	-2978.0	668949.0
29	17	33	29	356	79.0	-187299.0	-3030.0	672786.0
29	17	33	29	357	80.0	-186315.0	-3069.0	684044.0
29	17	33	29	357	81.0	-186222.0	-3137.0	692729.0
29	17	33	29	358	82.0	-186141.0	-3191.0	688348.0
29	17	33	29	375	83.0	-185854.0	-3233.0	672647.0
29	17	33	29	375	84.0	-185416.0	-3276.0	654665.0
29	17	33	29	376	85.0	-184836.0	-3304.0	649789.0
29	17	33	29	377	86.0	-184660.0	-3344.0	653838.0
29	17	33	29	377	87.0	-184186.0	-3404.0	658389.0
29	17	33	29	378	88.0	-183624.0	-3445.0	661491.0
29	17	33	29	378	89.0	-183271.0	-3497.0	664370.0
29	17	33	29	379	90.0	-183502.0	-3560.0	674440.0
29	17	33	29	379	92.0	-185661.0	-3631.0	676307.0
29	17	33	29	380	93.0	-187940.0	-3689.0	659827.0
29	17	33	29	381	94.0	-190137.0	-3721.0	642800.0
29	17	33	29	381	95.0	-192802.0	-3744.0	639143.0
29	17	33	29	382	96.0	-195814.0	-3767.0	644191.0
29	17	33	29	382	97.0	-199242.0	-3793.0	648752.0
29	17	33	29	383	98.0	-203210.0	-3824.0	652289.0
29	17	33	29	399	99.0	-206301.0	-3855.0	656652.0
29	17	33	29	401	100.0	-209217.0	-3884.0	666771.0
29	17	33	29	402	101.0	-211677.0	-3922.0	675420.0
29	17	33	29	402	102.0	-213687.0	-3969.0	671780.0
29	17	33	29	403	103.0	-215114.0	-4030.0	657502.0
29	17	33	29	403	104.0	-215699.0	-4079.0	641158.0
29	17	33	29	404	105.0	-216397.0	-4105.0	638500.0
29	17	33	29	405	106.0	-216408.0	-4147.0	646251.0
29	17	33	29	405	107.0	-216147.0	-4205.0	652919.0
29	17	33	29	406	108.0	-215337.0	-4255.0	657474.0
29	17	33	29	406	109.0	-214233.0	-4289.0	659319.0
29	17	33	29	407	110.0	-212640.0	-4341.0	668657.0
29	17	33	29	408	111.0	-210219.0	-4380.0	677610.0
29	17	33	29	408	112.0	-207982.0	-4436.0	675741.0
29	17	33	29	409	113.0	-205882.0	-4482.0	663206.0
29	17	33	29	409	115.0	-202614.0	-4557.0	650575.0
29	17	33	29	410	116.0	-201441.0	-4581.0	659024.0
29	17	33	29	410	117.0	-200422.0	-4602.0	668062.0
29	17	33	29	411	118.0	-199256.0	-4619.0	675967.0
29	17	33	29	412	119.0	-198452.0	-4637.0	681346.0
29	17	33	29	412	120.0	-197156.0	-4668.0	693773.0
29	17	33	29	444	121.0	-195660.0	-4723.0	703055.0
29	17	33	29	445	122.0	-194134.0	-4744.0	700977.0
29	17	33	29	446	123.0	-192382.0	-4776.0	688348.0
29	17	33	29	446	124.0	-191086.0	-4814.0	671585.0
29	17	33	29	447	125.0	-189554.0	-4849.0	666418.0
29	17	33	29	448	126.0	-188157.0	-4891.0	671481.0
29	17	33	29	448	127.0	-187406.0	-4947.0	676271.0
29	17	33	29	449	128.0	-186864.0	-4989.0	680685.0
29	17	33	29	449	129.0	-186459.0	-5026.0	685974.0
29	17	33	29	450	130.0	-186137.0	-5052.0	695269.0
29	17	33	29	451	131.0	-185441.0	-5096.0	701266.0
29	17	33	29	451	132.0	-184617.0	-5144.0	698899.0
29	17	33	29	452	133.0	-184100.0	-5206.0	685840.0
29	17	33	29	452	134.0	-183814.0	-5238.0	670343.0
29	17	33	29	453	135.0	-183754.0	-5273.0	667874.0
29	17	33	29	454	137.0	-185907.0	-5331.0	683776.0
29	17	33	29	454	138.0	-188188.0	-5360.0	690461.0
29	17	33	29	455	139.0	-191254.0	-5389.0	697595.0
29	17	33	29	456	140.0	-194588.0	-5404.0	710803.0
29	17	33	29	456	141.0	-198084.0	-5429.0	719703.0
29	17	33	29	457	142.0	-200974.0	-5445.0	715893.0
29	17	33	29	535	143.0	-203831.0	-5487.0	701489.0
29	17	33	29	536	144.0	-206664.0	-5499.0	682491.0
29	17	33	29	537	145.0	-208959.0	-5527.0	676643.0
29	17	33	29	538	146.0	-211354.0	-5591.0	678590.0
29	17	33	29	539	147.0	-213666.0	-5632.0	678558.0
29	17	33	29	540	148.0	-215436.0	-5686.0	677049.0
29	17	33	29	540	149.0	-216648.0	-5729.0	676261.0
29	17	33	29	541	150.0	-217512.0	-5775.0	681812.0
29	17	33	29	542	151.0	-218136.0	-5827.0	681058.0
29	17	33	29	542	152.0	-218391.0	-5889.0	666231.0
29	17	33	29	543	153.0	-218067.0	-5934.0	639760.0
29	17	33	29	543	154.0	-216589.0	-5969.0	610952.0
29	17	33	29	544	155.0	-214456.0	-6027.0	596584.0
29	17	33	29	545	156.0	-211786.0	-6069.0	593696.0
29	17	33	29	545	157.0	-208345.0	-6117.0	593173.0
29	17	33	29	546	159.0	-199918.0	-6207.0	599082.0
29	17	33	29	546	182.0	-199844.0	-7145.0	749450.0
29	17	33	29	547	183.0	-211646.0	-7204.0	735216.0
29	17	33	29	548	184.0	-221309.0	-7222.0	719781.0
29	17	33	29	548	185.0	-229074.0	-7228.0	717831.0
29	17	33	29	549	186.0	-234552.0	-7257.0	723460.0
29	17	33	29	549	187.0	-236744.0	-7281.0	727552.0
29	17	33	29	550	188.0	-236254.0	-7312.0	729441.0
29	17	33	29	580	189.0	-233984.0	-7347.0	729489.0
29	17	33	29	580	190.0	-230640.0	-7360.0	733593.0
29	17	33	29	581	191.0	-224009.0	-7414.0	734009.0
29	17	33	29	582	192.0	-214781.0	-7448.0	721469.0
29	17	33	29	582	193.0	-208612.0	-7499.0	698775.0
29	17	33	29	583	194.0	-201336.0	-7524.0	674532.0
29	17	33	29	583	195.0	-191396.0	-7585.0	662221.0
29	17	33	29	584	196.0	-184327.0	-7641.0	659066.0
29	17	33	29	585	197.0	-183667.0	-7667.0	657929.0
29	17	33	29	585	198.0	-188119.0	-7720.0	657778.0
29	17	33	29	586	199.0	-194778.0	-7749.0	658501.0
29	17	33	29	587	200.0	-202884.0	-7779.0	666229.0
29	17	33	29	587	201.0	-213212.0	-7827.0	671499.0
29	17	33	29	588	202.0	-225239.0	-7887.0	665576.0
29	17	33	29	588	203.0	-236307.0	-7921.0	650611.0
29	17	33	29	589	204.0	-243677.0	-7957.0	636804.0
29	17	33	29	590	205.0	-244701.0	-7982.0	636947.0
29	17	33	29	590	206.0	-239315.0	-8013.0	644487.0
29	17	33	29	591	207.0	-230394.0	-8060.0	651729.0
29	17	33	29	591	208.0	-220317.0	-8090.0	657930.0
29	17	33	29	592	209.0	-210514.0	-8106.0	664081.0
29	17	33	29	593	210.0	-202005.0	-8114.0	677004.0
29	17	33	29	670	211.0	-194256.0	-8131.0	688460.0
29	17	33	29	671	212.0	-186547.0	-8141.0	689061.0
29	17	33	29	672	213.0	-179267.0	-8188.0	680717.0
29	17	33	29	714	214.0	-172688.0	-8242.0	670599.0
29	17	33	29	715	215.0	-167172.0	-8292.0	671916.0
29	17	33	29	716	216.0	-163546.0	-8334.0	679754.0
29	17	33	29	716	217.0	-161673.0	-8352.0	687393.0
29	17	33	29	717	218.0	-161416.0	-8391.0	694842.0
29	17	33	29	718	219.0	-162179.0	-8426.0	701495.0
29	17	33	29	718	220.0	-163001.0	-8465.0	714906.0
29	17	33	29	719	221.0	-163665.0	-8511.0	724503.0
29	17	33	29	720	222.0	-164008.0	-8544.0	722910.0
29	17	33	29	721	223.0	-164139.0	-8592.0	710859.0
29	17	33	29	721	224.0	-164544.0	-8624.0	697331.0
29	17	33	29	722	225.0	-165636.0	-8659.0	696341.0
29	17	33	29	723	227.0	-169710.0	-8728.0	709143.0
29	17	33	29	724	250.0	-222451.0	-9752.0	717209.0
29	17	33	29	724	251.0	-219717.0	-9779.0	722419.0
29	17	33	29	725	252.0	-217171.0	-9799.0	717937.0
29	17	33	29	725	16.0	-190694.0	-10409.0	783881.0
29	17	33	29	726	17.0	-192863.0	-10422.0	771078.0
29	17	33	29	727	18.0	-194761.0	-10417.0	757231.0
29	17	33	29	727	19.0	-195982.0	-10404.0	755132.0
29	17	33	29	728	20.0	-197066.0	-10369.0	761279.0
29	17	33	29	728	21.0	-197661.0	-10343.0	766386.0
29	17	33	29	729	22.0	-197569.0	-10343.0	767732.0
29	17	33	29	759	23.0	-197676.0	-10322.0	765515.0
29	17	33	29	760	24.0	-197674.0	-10286.0	769581.0
29	17	33	29	760	25.0	-197609.0	-10281.0	771084.0
29	17	33	29	805	26.0	-197717.0	-10254.0	761902.0
29	17	33	29	806	27.0	-197487.0	-10236.0	745274.0
29	17	33	29	807	28.0	-197056.0	-10194.0	729942.0
29	17	33	29	807	29.0	-196729.0	-10169.0	725916.0
29	17	33	29	808	30.0	-195982.0	-10114.0	729423.0
29	17	33	29	808	31.0	-195064.0	-10067.0	735706.0
29	17	33	29	809	32.0	-194111.0	-9991.0	741534.0
29	17	33	29	810	33.0	-193209.0	-9921.0	748578.0
29	17	33	29	810	34.0	-192856.0	-9864.0	760132.0
29	17	33	29	811	35.0	-192844.0	-9806.0	767598.0
29	17	33	29	812	36.0	-193124.0	-9741.0	762677.0
29	17	33	29	812	37.0	-194064.0	-9642.0	747696.0
29	17	33	29	813	38.0	-195658.0	-9561.0	731989.0
29	17	33	29	813	39.0	-197264.0	-9455.0	729240.0
29	17	33	29	814	40.0	-198714.0	-9341.0	732728.0
29	17	33	29	815	41.0	-200363.0	-9210.0	737447.0
29	17	33	29	815	61.0	-199576.0	-6386.0	748488.0
29	17	33	29	816	62.0	-197507.0	-6201.0	753941.0
29	17	33	29	817	63.0	-195062.0	-6007.0	759630.0
29	17	33	29	817	64.0	-192413.0	-5835.0	770346.0
29	17	33	29	818	65.0	-190059.0	-5652.0	776398.0
29	17	33	29	818	66.0	-188434.0	-5466.0	770099.0
29	17	33	29	851	67.0	-187522.0	-5300.0	754249.0
29	17	33	29	852	68.0	-187009.0	-5120.0	737851.0
29	17	33	29	853	69.0	-186934.0	-4940.0	733679.0
29	17	33	29	853	70.0	-187316.0	-4779.0	737676.0
29	17	33	29	854	71.0	-187747.0	-4607.0	741121.0
29	17	33	29	855	72.0	-188020.0	-4446.0	744526.0
29	17	33	29	855	73.0	-188876.0	-4282.0	748489.0
29	17	33	29	856	74.0	-190249.0	-4116.0	758406.0
29	17	33	29	856	75.0	-191481.0	-3953.0	764663.0
29	17	33	29	857	76.0	-191417.0	-3808.0	759943.0
29	17	33	29	857	77.0	-189894.0	-3657.0	747126.0
29	17	33	29	941	78.0	-191539.0	-3486.0	733403.0
29	17	33	29	942	79.0	-196251.0	-3349.0	731584.0
29	17	33	29	942	80.0	-202061.0	-3197.0	736578.0
29	17	33	29	943	81.0	-207282.0	-3031.0	741736.0
29	17	33	29	944	83.0	-215284.0	-2758.0	752658.0
29	17	33	29	944	84.0	-215680.0	-2612.0	764484.0
29	17	33	29	945	85.0	-214191.0	-2456.0	771184.0
29	17	33	29	946	86.0	-211562.0	-2315.0	768297.0
29	17	33	29	946	87.0	-209156.0	-2154.0	757171.0
29	17	33	29	947	88.0	-205862.0	-2004.0	746246.0
29	17	33	29	947	89.0	-202437.0	-1884.0	745604.0
29	17	33	29	948	90.0	-199505.0	-1766.0	750933.0
29	17	33	29	985	91.0	-198399.0	-1632.0	754998.0
29	17	33	29	986	92.0	-199262.0	-1506.0	757914.0
29	17	33	29	987	93.0	-201197.0	-1396.0	762821.0
29	17	33	29	987	106.0	-179932.0	-34.0	787358.0
29	17	33	29	988	128.0	-214164.0	1582.0	780313.0
29	17	33	29	989	129.0	-212201.0	1617.0	779691.0
29	17	33	29	989	130.0	-210021.0	1678.0	783398.0
29	17	33	29	990	131.0	-207869.0	1737.0	787070.0
29	17	33	29	991	132.0	-205632.0	1805.0	790138.0
29	17	33	29	991	133.0	-203191.0	1846.0	794609.0
29	17	33	29	992	134.0	-200499.0	1882.0	804241.0
29	17	33	29	992	135.0	-197623.0	1923.0	809771.0
29	17	33	29	993	136.0	-194769.0	1946.0	804519.0
29	17	33	29	994	137.0	-192385.0	1981.0	790229.0
29	17	33	30	30	138.0	-190188.0	2030.0	775577.0
29	17	33	30	30	151.0	-189544.0	2223.0	776388.0
29	17	33	30	31	152.0	-191079.0	2242.0	780596.0
29	17	33	30	32	153.0	-192537.0	2271.0	783551.0
29	17	33	30	33	154.0	-194317.0	2296.0	790893.0
29	17	33	30	33	155.0	-196821.0	2311.0	795539.0
29	17	33	30	34	156.0	-199613.0	2328.0	790629.0
29	17	33	30	35	157.0	-202579.0	2348.0	777024.0
29	17	33	30	35	158.0	-205436.0	2356.0	765734.0
29	17	33	30	36	159.0	-208099.0	2351.0	765964.0
29	17	33	30	37	160.0	-210917.0	2356.0	770632.0
29	17	33	30	37	161.0	-213687.0	2340.0	773686.0
29	17	33	30	38	162.0	-215761.0	2328.0	775888.0
29	17	33	30	39	163.0	-217424.0	2349.0	779841.0
29	17	33	30	39	164.0	-218571.0	2349.0	789105.0
29	17	33	30	40	165.0	-218947.0	2368.0	793555.0
29	17	33	30	41	173.0	-204841.0	2355.0	767809.0
29	17	33	30	41	174.0	-201513.0	2348.0	776011.0
29	17	33	30	42	175.0	-198062.0	2367.0	779695.0
29	17	33	30	42	176.0	-194914.0	2367.0	772807.0
29	17	33	30	43	177.0	-191982.0	2377.0	758282.0
29	17	33	30	44	178.0	-189464.0	2415.0	743724.0
29	17	33	30	44	179.0	-187942.0	2441.0	741868.0
29	17	33	30	76	180.0	-187257.0	2446.0	746467.0
29	17	33	30	77	181.0	-188019.0	2459.0	751605.0
29	17	33	30	77	182.0	-190064.0	2458.0	753591.0
29	17	33	30	78	183.0	-192403.0	2458.0	754408.0
29	17	33	30	79	184.0	-195081.0	2451.0	762252.0
29	17	33	30	80	185.0	-197241.0	2443.0	765768.0
29	17	33	30	80	186.0	-199127.0	2445.0	757741.0
29	17	33	30	81	187.0	-200711.0	2439.0	742842.0
29	17	33	30	82	188.0	-202056.0	2434.0	728881.0
29	17	33	30	82	189.0	-203512.0	2427.0	727349.0
29	17	33	30	83	190.0	-205650.0	2437.0	732746.0
29	17	33	30	83	191.0	-207319.0	2455.0	737224.0
29	17	33	30	84	192.0	-207927.0	2443.0	740324.0
29	17	33	30	85	193.0	-208286.0	2459.0	744231.0
29	17	33	30	85	194.0	-207653.0	2442.0	754222.0
29	17	33	30	86	195.0	-206481.0	2442.0	758661.0
29	17	33	30	87	196.0	-205319.0	2429.0	753520.0
29	17	33	30	87	197.0	-203646.0	2444.0	741484.0
29	17	33	30	88	198.0	-202127.0	2489.0	731420.0
29	17	33	30	88	199.0	-200789.0	2509.0	732839.0
29	17	33	30	89	200.0	-199646.0	2513.0	739940.0
29	17	33	30	90	201.0	-198831.0	2518.0	746201.0
29	17	33	30	120	202.0	-198076.0	2540.0	749836.0
29	17	33	30	121	203.0	-197876.0	2543.0	754584.0
29	17	33	30	122	204.0	-198086.0	2537.0	764977.0
29	17	33	30	122	205.0	-198233.0	2522.0	769504.0
29	17	33	30	123	206.0	-198352.0	2514.0	763131.0
29	17	33	30	124	207.0	-198897.0	2511.0	750495.0
29	17	33	30	124	208.0	-199345.0	2499.0	737363.0
29	17	33	30	125	209.0	-199642.0	2484.0	734975.0
29	17	33	30	126	210.0	-199822.0	2486.0	739689.0
29	17	33	30	126	211.0	-200270.0	2486.0	743122.0
29	17	33	30	127	212.0	-201513.0	2454.0	746575.0
29	17	33	30	127	213.0	-202800.0	2452.0	751126.0
29	17	33	30	165	214.0	-203754.0	2454.0	761588.0
29	17	33	30	166	215.0	-203996.0	2444.0	767351.0
29	17	33	30	167	216.0	-203830.0	2426.0	761343.0
29	17	33	30	167	218.0	-202621.0	2413.0	735639.0
29	17	33	30	168	219.0	-200955.0	2394.0	734834.0
29	17	33	30	169	220.0	-199057.0	2392.0	739419.0
29	17	33	30	170	221.0	-199609.0	2413.0	744441.0
29	17	33	30	170	222.0	-199348.0	2417.0	748094.0
29	17	33	30	171	223.0	-198492.0	2429.0	752586.0
29	17	33	30	172	224.0	-197714.0	2421.0	760968.0
29	17	33	30	172	225.0	-196796.0	2417.0	764194.0
29	17	33	30	173	226.0	-196151.0	2401.0	758764.0
29	17	33	30	173	227.0	-195650.0	2378.0	743596.0
29	17	33	30	174	228.0	-195581.0	2369.0	729435.0
29	17	33	30	175	229.0	-196144.0	2355.0	729237.0
29	17	33	30	175	230.0	-197094.0	2328.0	733924.0
29	17	33	30	176	241.0	-197992.0	2034.0	713619.0
29	17	33	30	177	242.0	-196963.0	2006.0	716786.0
29	17	33	30	177	243.0	-195982.0	1994.0	721333.0
29	17	33	30	178	244.0	-195104.0	1981.0	731133.0
29	17	33	30	178	245.0	-194804.0	1940.0	734526.0
29	17	33	30	179	246.0	-194592.0	1904.0	725979.0
29	17	33	30	211	247.0	-194080.0	1899.0	708819.0
29	17	33	30	211	248.0	-193815.0	1872.0	691902.0
29	17	33	30	212	249.0	-193722.0	1839.0	687035.0
29	17	33	30	213	250.0	-193232.0	1791.0	689807.0
29	17	33	30	214	251.0	-192684.0	1743.0	692103.0
29	17	33	30	214	252.0	-192756.0	1700.0	692936.0
29	17	33	30	215	253.0	-192995.0	1640.0	695718.0
29	17	33	30	216	254.0	-193293.0	1598.0	703982.0
29	17	33	30	216	255.0	-193587.0	1553.0	706309.0
29	17	33	30	217	0.0	-194073.0	1497.0	697644.0
29	17	33	30	218	1.0	-194452.0	1449.0	682159.0
29	17	33	30	218	2.0	-194814.0	1412.0	668167.0
29	17	33	30	219	3.0	-195461.0	1373.0	666171.0
29	17	33	30	220	4.0	-196198.0	1301.0	669649.0
29	17	33	30	220	5.0	-197086.0	1246.0	672608.0
29	17	33	30	221	7.0	-199674.0	1148.0	680069.0
29	17	33	30	222	8.0	-201094.0	1106.0	690291.0
29	17	33	30	222	9.0	-202673.0	1062.0	695689.0
29	17	33	30	223	10.0	-204166.0	1011.0	690856.0
29	17	33	30	223	11.0	-205235.0	981.0	677452.0
29	17	33	30	224	12.0	-205659.0	953.0	665802.0
29	17	33	30	256	13.0	-205504.0	901.0	664692.0
29	17	33	30	257	14.0	-205435.0	876.0	668060.0
29	17	33	30	257	15.0	-204616.0	822.0	671361.0
29	17	33	30	258	16.0	-203222.0	756.0	672469.0
29	17	33	30	259	17.0	-201850.0	699.0	673711.0
29	17	33	30	259	18.0	-200674.0	649.0	682055.0
29	17	33	30	260	19.0	-199608.0	596.0	684994.0
29	17	33	30	261	20.0	-198387.0	545.0	678746.0
29	17	33	30	261	21.0	-197007.0	488.0	664894.0
29	17	33	30	262	22.0	-195826.0	426.0	652033.0
29	17	33	30	300	23.0	-194864.0	375.0	651504.0
29	17	33	30	301	24.0	-194004.0	321.0	656303.0
29	17	33	30	302	25.0	-193156.0	268.0	661392.0
29	17	33	30	302	26.0	-192461.0	206.0	663743.0
29	17	33	30	303	27.0	-191742.0	173.0	665592.0
29	17	33	30	304	29.0	-190011.0	49.0	676315.0
29	17	33	30	304	30.0	-188947.0	-14.0	669509.0
29	17	33	30	305	31.0	-188085.0	-46.0	653259.0
29	17	33	30	306	32.0	-187441.0	-87.0	639858.0
29	17	33	30	306	33.0	-186962.0	-125.0	640601.0
29	17	33	30	307	34.0	-187144.0	-158.0	647735.0
29	17	33	30	308	35.0	-187974.0	-236.0	653757.0
29	17	33	30	308	36.0	-189128.0	-296.0	656952.0
29	17	33	30	309	37.0	-190194.0	-342.0	660936.0
29	17	33	30	310	38.0	-191300.0	-392.0	670120.0
29	17	33	30	310	39.0	-192293.0	-452.0	672498.0
29	17	33	30	311	52.0	-207621.0	-1256.0	646376.0
29	17	33	30	312	53.0	-205781.0	-1312.0	647556.0
29	17	33	30	312	54.0	-204042.0	-1346.0	653865.0
29	17	33	30	313	55.0	-202099.0	-1378.0	661368.0
29	17	33	30	313	56.0	-200301.0	-1422.0	670272.0
29	17	33	30	314	57.0	-198966.0	-1464.0	680769.0
29	17	33	30	345	58.0	-198263.0	-1523.0	695278.0
29	17	33	30	346	59.0	-197938.0	-1582.0	702711.0
29	17	33	30	346	60.0	-197833.0	-1634.0	699186.0
29	17	33	30	347	61.0	-197975.0	-1705.0	687651.0
29	17	33	30	348	62.0	-197891.0	-1777.0	677615.0
29	17	33	30	349	63.0	-197747.0	-1833.0	679954.0
29	17	33	30	349	64.0	-197242.0	-1892.0	685676.0
29	17	33	30	350	65.0	-197034.0	-1930.0	691093.0
29	17	33	30	351	66.0	-197306.0	-1999.0	696144.0
29	17	33	30	351	67.0	-198056.0	-2062.0	701613.0
29	17	33	30	352	68.0	-199256.0	-2129.0	710650.0
29	17	33	30	353	69.0	-200515.0	-2183.0	715682.0
29	17	33	30	353	70.0	-201747.0	-2250.0	710815.0
29	17	33	30	354	71.0	-202917.0	-2311.0	697723.0
29	17	33	30	355	72.0	-204146.0	-2352.0	685835.0
29	17	33	30	355	74.0	-206707.0	-2467.0	688223.0
29	17	33	30	356	75.0	-207619.0	-2535.0	692658.0
29	17	33	30	357	76.0	-207826.0	-2567.0	695742.0
29	17	33	30	357	77.0	-207504.0	-2619.0	699779.0
29	17	33	30	358	78.0	-207083.0	-2636.0	708859.0
29	17	33	30	358	79.0	-206597.0	-2670.0	712643.0
29	17	33	30	359	80.0	-206262.0	-2724.0	707073.0
29	17	33	30	436	81.0	-206066.0	-2763.0	693076.0
29	17	33	30	437	82.0	-205637.0	-2784.0	678809.0
29	17	33	30	438	83.0	-205010.0	-2824.0	676985.0
29	17	33	30	438	84.0	-204381.0	-2889.0	680239.0
29	17	33	30	439	85.0	-203997.0	-2941.0	682822.0
29	17	33	30	440	86.0	-203479.0	-2977.0	684213.0
29	17	33	30	440	87.0	-202811.0	-3043.0	685473.0
29	17	33	30	441	88.0	-202215.0	-3090.0	691516.0
29	17	33	30	442	89.0	-201511.0	-3142.0	693200.0
29	17	33	30	442	90.0	-200840.0	-3182.0	683777.0
29	17	33	30	443	91.0	-200229.0	-3231.0	665951.0
29	17	33	30	444	92.0	-199520.0	-3285.0	652126.0
29	17	33	30	445	93.0	-198812.0	-3331.0	650616.0
29	17	33	30	445	94.0	-198076.0	-3366.0	655561.0
29	17	33	30	446	95.0	-197391.0	-3409.0	661086.0
29	17	33	30	447	97.0	-197791.0	-3499.0	672155.0
29	17	33	30	447	119.0	-195065.0	-4444.0	661275.0
29	17	33	30	448	120.0	-196587.0	-4482.0	653372.0
29	17	33	30	448	121.0	-198185.0	-4507.0	639203.0
29	17	33	30	449	122.0	-199594.0	-4527.0	626816.0
29	17	33	30	450	123.0	-200710.0	-4567.0	627204.0
29	17	33	30	450	124.0	-201564.0	-4597.0	631914.0
29	17	33	30	451	125.0	-202576.0	-4622.0	637421.0
29	17	33	30	481	126.0	-203893.0	-4676.0	641932.0
29	17	33	30	482	127.0	-205484.0	-4696.0	647749.0
29	17	33	30	482	128.0	-206477.0	-4727.0	658748.0
29	17	33	30	483	129.0	-206918.0	-4779.0	662589.0
29	17	33	30	484	130.0	-207176.0	-4824.0	656118.0
29	17	33	30	485	131.0	-207462.0	-4878.0	643667.0
29	17	33	30	485	132.0	-207837.0	-4913.0	634026.0
29	17	33	30	486	133.0	-208814.0	-4974.0	636786.0
29	17	33	30	487	134.0	-210146.0	-4997.0	643484.0
29	17	33	30	488	135.0	-211662.0	-5044.0	648320.0
29	17	33	30	488	136.0	-212952.0	-5078.0	650596.0
29	17	33	30	489	137.0	-213685.0	-5105.0	653494.0
29	17	33	30	490	138.0	-213877.0	-5162.0	661146.0
29	17	33	30	490	139.0	-213552.0	-5221.0	662108.0
29	17	33	30	491	140.0	-212706.0	-5278.0	650783.0
29	17	33	30	491	142.0	-210274.0	-5357.0	612781.0
29	17	33	30	492	143.0	-208426.0	-5384.0	605433.0
29	17	33	30	493	144.0	-206486.0	-5404.0	604769.0
29	17	33	30	493	145.0	-204482.0	-5432.0	598954.0
29	17	33	30	494	146.0	-202094.0	-5455.0	588454.0
29	17	33	30	494	147.0	-199195.0	-5464.0	581443.0
29	17	33	30	524	148.0	-195562.0	-5486.0	581100.0
29	17	33	30	525	149.0	-192029.0	-5508.0	574857.0
29	17	33	30	570	150.0	-188729.0	-5551.0	560579.0
29	17	33	30	570	151.0	-185844.0	-5601.0	539471.0
29	17	33	30	571	152.0	-183449.0	-5643.0	523952.0
29	17	33	30	615	153.0	-180947.0	-5683.0	523154.0
29	17	33	30	616	154.0	-178837.0	-5717.0	528493.0
29	17	33	30	616	155.0	-177421.0	-5757.0	535288.0
29	17	33	30	617	156.0	-176297.0	-5796.0	544454.0
29	17	33	30	617	157.0	-175682.0	-5858.0	557793.0
29	17	33	30	618	158.0	-175692.0	-5897.0	575827.0
29	17	33	30	619	159.0	-176621.0	-5944.0	590589.0
29	17	33	30	633	160.0	-178919.0	-5997.0	597586.0
29	17	33	30	634	161.0	-182185.0	-6035.0	596016.0
29	17	33	30	634	162.0	-186328.0	-6071.0	596225.0
29	17	33	30	635	164.0	-197649.0	-6176.0	617277.0
29	17	33	30	635	165.0	-202615.0	-6228.0	621369.0
29	17	33	30	636	166.0	-205312.0	-6252.0	624178.0
29	17	33	30	636	187.0	-199746.0	-7214.0	614431.0
29	17	33	30	637	188.0	-188991.0	-7237.0	621320.0
29	17	33	30	638	189.0	-181109.0	-7246.0	621963.0
29	17	33	30	638	209.0	-174289.0	-8156.0	584104.0
29	17	33	30	639	210.0	-172176.0	-8202.0	574329.0
29	17	33	30	639	211.0	-171797.0	-8221.0	558767.0
29	17	33	30	640	212.0	-171905.0	-8249.0	547587.0
29	17	33	30	640	213.0	-171877.0	-8262.0	550121.0
29	17	33	30	641	214.0	-170948.0	-8272.0	557514.0
29	17	33	30	641	215.0	-169759.0	-8296.0	561622.0
29	17	33	30	705	216.0	-169180.0	-8333.0	564200.0
29	17	33	30	707	217.0	-169342.0	-8361.0	567931.0
29	17	33	30	707	218.0	-170711.0	-8402.0	575885.0
29	17	33	30	708	219.0	-172961.0	-8440.0	577911.0
29	17	33	30	709	220.0	-175456.0	-8477.0	570976.0
29	17	33	30	709	221.0	-178643.0	-8530.0	556600.0
29	17	33	30	710	222.0	-182323.0	-8581.0	546023.0
29	17	33	30	710	223.0	-186504.0	-8612.0	547255.0
29	17	33	30	711	224.0	-191957.0	-8654.0	551246.0
29	17	33	30	712	225.0	-197813.0	-8713.0	554364.0
29	17	33	30	712	226.0	-203761.0	-8749.0	556825.0
29	17	33	30	713	227.0	-209535.0	-8768.0	560506.0
29	17	33	30	713	228.0	-214703.0	-8816.0	568617.0
29	17	33	30	714	229.0	-218992.0	-8875.0	570572.0
29	17	33	30	714	230.0	-222059.0	-8907.0	560983.0
29	17	33	30	715	231.0	-224195.0	-8943.0	542861.0
29	17	33	30	716	254.0	-175582.0	-9795.0	516656.0
29	17	33	30	716	255.0	-173492.0	-9822.0	521232.0
29	17	33	30	717	0.0	-172455.0	-9846.0	524047.0
29	17	33	30	717	1.0	-172526.0	-9881.0	528381.0
29	17	33	30	718	2.0	-173848.0	-9876.0	539103.0
29	17	33	30	751	3.0	-176614.0	-9889.0	542303.0
29	17	33	30	794	4.0	-180696.0	-9912.0	535566.0
29	17	33	30	794	5.0	-184660.0	-9913.0	522282.0
29	17	33	30	795	6.0	-188542.0	-9914.0	512641.0
29	17	33	30	796	7.0	-192636.0	-9938.0	514654.0
29	17	33	30	796	8.0	-196064.0	-9959.0	519243.0
29	17	33	30	797	9.0	-199114.0	-9972.0	522591.0
29	17	33	30	798	10.0	-201653.0	-9982.0	525392.0
29	17	33	30	799	11.0	-202964.0	-10009.0	529636.0
29	17	33	30	800	12.0	-203491.0	-10014.0	537765.0
29	17	33	30	800	13.0	-203872.0	-10014.0	539092.0
29	17	33	30	801	14.0	-204449.0	-10030.0	530320.0
29	17	33	30	801	15.0	-205298.0	-10027.0	515191.0
29	17	33	30	802	16.0	-206256.0	-10012.0	504143.0
29	17	33	30	814	17.0	-207330.0	-9970.0	505311.0
29	17	33	30	815	20.0	-209032.0	-9906.0	514358.0
29	17	33	30	816	43.0	-206274.0	-7526.0	485753.0
29	17	33	30	816	44.0	-206223.0	-7362.0	476534.0
29	17	33	30	817	45.0	-206161.0	-7171.0	461264.0
29	17	33	30	817	46.0	-206296.0	-6965.0	451088.0
29	17	33	30	818	47.0	-206587.0	-6772.0	453599.0
29	17	33	30	818	48.0	-206825.0	-6593.0	461273.0
29	17	33	30	841	49.0	-207131.0	-6410.0	466353.0
29	17	33	30	842	50.0	-206936.0	-6224.0	470943.0
29	17	33	30	842	51.0	-206391.0	-6055.0	477233.0
29	17	33	30	843	52.0	-205366.0	-5877.0	487298.0
29	17	33	30	843	53.0	-203836.0	-5706.0	490304.0
29	17	33	30	844	54.0	-202135.0	-5531.0	483775.0
29	17	33	30	844	55.0	-200276.0	-5356.0	470148.0
29	17	33	30	845	56.0	-198531.0	-5172.0	460608.0
29	17	33	30	846	57.0	-196767.0	-4996.0	463871.0
29	17	33	30	846	58.0	-194752.0	-4809.0	469084.0
29	17	33	30	847	59.0	-192685.0	-4620.0	472246.0
29	17	33	30	848	60.0	-190707.0	-4452.0	474163.0
29	17	33	30	848	61.0	-189069.0	-4283.0	478143.0
29	17	33	30	849	62.0	-187824.0	-4104.0	485857.0
29	17	33	30	849	63.0	-186897.0	-3923.0	486249.0
29	17	33	30	850	65.0	-187111.0	-3561.0	463918.0
29	17	33	30	851	66.0	-187786.0	-3386.0	454943.0
29	17	33	30	851	67.0	-188742.0	-3209.0	457364.0
29	17	33	30	852	68.0	-189859.0	-3000.0	464248.0
29	17	33	30	852	69.0	-190342.0	-2823.0	470144.0
29	17	33	30	853	70.0	-188679.0	-2647.0	474674.0
29	17	33	30	854	71.0	-188047.0	-2471.0	480066.0
29	17	33	30	884	72.0	-190592.0	-2281.0	490046.0
29	17	33	30	884	73.0	-195890.0	-2097.0	492919.0
29	17	33	30	885	74.0	-202585.0	-1942.0	485590.0
29	17	33	30	897	75.0	-208493.0	-1799.0	471653.0
29	17	33	30	898	76.0	-213366.0	-1636.0	463200.0
29	17	33	30	898	77.0	-216259.0	-1459.0	465513.0
29	17	33	30	899	78.0	-217262.0	-1321.0	471656.0
29	17	33	30	900	79.0	-216381.0	-1179.0	477528.0
29	17	33	30	900	80.0	-215234.0	-1029.0	480026.0
29	17	33	30	901	81.0	-214076.0	-876.0	484533.0
29	17	33	30	901	82.0	-212489.0	-731.0	493172.0
29	17	33	30	902	83.0	-210740.0	-603.0	493031.0
29	17	33	30	902	84.0	-209942.0	-483.0	482888.0
29	17	33	30	903	85.0	-210725.0	-332.0	465667.0
29	17	33	30	903	86.0	-212414.0	-191.0	452506.0
29	17	33	30	904	88.0	-217194.0	92.0	457271.0
29	17	33	30	905	89.0	-219613.0	213.0	461963.0
29	17	33	30	905	90.0	-220717.0	370.0	463754.0
29	17	33	30	906	91.0	-219880.0	505.0	468726.0
29	17	33	30	906	92.0	-217069.0	653.0	478086.0
29	17	33	30	907	93.0	-212254.0	772.0	478486.0
29	17	33	30	907	94.0	-205870.0	907.0	469807.0
29	17	33	30	930	95.0	-199192.0	1031.0	454319.0
29	17	33	30	931	96.0	-192492.0	1169.0	444289.0
29	17	33	30	931	97.0	-186034.0	1284.0	446398.0
29	17	33	30	932	98.0	-180366.0	1395.0	451791.0
29	17	33	30	933	99.0	-175804.0	1488.0	456902.0
29	17	33	30	933	100.0	-172710.0	1598.0	459078.0
29	17	33	30	934	101.0	-171985.0	1711.0	462799.0
29	17	33	30	935	102.0	-173846.0	1812.0	471807.0
29	17	33	30	935	103.0	-177822.0	1906.0	473073.0
29	17	33	30	936	104.0	-182421.0	1979.0	464645.0
29	17	33	30	937	105.0	-186905.0	2059.0	449301.0
29	17	33	30	937	106.0	-190650.0	2153.0	438266.0
29	17	33	30	938	107.0	-193276.0	2253.0	439333.0
29	17	33	30	939	108.0	-194738.0	2345.0	444819.0
29	17	33	30	939	109.0	-195351.0	2432.0	448421.0
29	17	33	30	940	110.0	-195603.0	2515.0	450961.0
29	17	33	30	941	111.0	-195717.0	2595.0	455738.0
29	17	33	30	941	112.0	-195910.0	2680.0	466285.0
29	17	33	30	942	113.0	-196288.0	2773.0	467758.0
29	17	33	30	942	114.0	-197291.0	2864.0	459268.0
29	17	33	30	943	115.0	-198740.0	2923.0	445859.0
29	17	33	30	944	116.0	-200446.0	3021.0	437406.0
29	17	33	30	975	117.0	-202394.0	3089.0	439818.0
29	17	33	30	975	118.0	-204543.0	3157.0	444338.0
29	17	33	30	976	119.0	-206710.0	3222.0	446896.0
29	17	33	30	977	120.0	-208913.0	3258.0	449893.0
29	17	33	30	977	121.0	-211061.0	3306.0	455695.0
29	17	33	30	978	122.0	-212904.0	3373.0	464579.0
29	17	33	30	979	123.0	-214100.0	3416.0	465622.0
29	17	33	30	979	124.0	-214279.0	3436.0	457595.0
29	17	33	30	980	125.0	-213052.0	3479.0	444637.0
29	17	33	30	981	126.0	-211022.0	3507.0	434392.0
29	17	33	30	981	127.0	-208499.0	3538.0	436040.0
29	17	33	30	982	128.0	-205497.0	3583.0	441745.0
29	17	33	30	982	129.0	-202548.0	3626.0	445060.0
29	17	33	30	983	130.0	-199768.0	3626.0	449364.0
29	17	33	30	984	131.0	-197438.0	3644.0	456779.0
29	17	33	30	984	133.0	-194395.0	3686.0	468556.0
29	17	33	30	985	134.0	-192986.0	3693.0	458916.0
29	17	33	30	986	135.0	-191751.0	3744.0	443394.0
29	17	33	30	986	136.0	-190267.0	3781.0	433109.0
29	17	33	30	987	137.0	-188547.0	3819.0	436021.0
29	17	33	30	988	138.0	-187047.0	3832.0	442760.0
29	17	33	31	20	139.0	-185742.0	3853.0	447623.0
29	17	33	31	20	140.0	-184478.0	3893.0	450397.0
29	17	33	31	21	141.0	-183789.0	3913.0	455938.0
29	17	33	31	22	142.0	-183767.0	3912.0	466000.0
29	17	33	31	22	143.0	-184162.0	3904.0	466946.0
29	17	33	31	23	144.0	-185509.0	3906.0	458280.0
29	17	33	31	24	145.0	-186863.0	3896.0	443910.0
29	17	33	31	24	146.0	-188574.0	3900.0	434818.0
29	17	33	31	25	147.0	-190553.0	3906.0	438180.0
29	17	33	31	25	148.0	-192499.0	3924.0	443568.0
29	17	33	31	26	149.0	-194787.0	3927.0	447270.0
29	17	33	31	27	150.0	-196999.0	3911.0	450487.0
29	17	33	31	27	151.0	-199372.0	3905.0	456546.0
29	17	33	31	28	152.0	-201939.0	3895.0	465863.0
29	17	33	31	29	153.0	-204181.0	3888.0	467558.0
29	17	33	31	29	155.0	-210126.0	3886.0	444819.0
29	17	33	31	30	156.0	-213378.0	3874.0	436759.0
29	17	33	31	30	157.0	-215995.0	3888.0	439378.0
29	17	33	31	31	158.0	-218304.0	3901.0	445110.0
29	17	33	31	32	159.0	-220241.0	3904.0	447861.0
29	17	33	31	32	160.0	-221870.0	3903.0	450129.0
29	17	33	31	64	161.0	-223422.0	3914.0	455869.0
29	17	33	31	65	162.0	-224554.0	3934.0	464979.0
29	17	33	31	66	163.0	-224920.0	3940.0	466638.0
29	17	33	31	66	164.0	-224502.0	3923.0	458701.0
29	17	33	31	67	165.0	-223642.0	3917.0	443709.0
29	17	33	31	68	166.0	-222514.0	3913.0	434593.0
29	17	33	31	68	167.0	-221130.0	3914.0	438303.0
29	17	33	31	69	168.0	-219847.0	3903.0	444053.0
29	17	33	31	70	169.0	-218413.0	3891.0	446664.0
29	17	33	31	70	170.0	-216621.0	3886.0	447582.0
29	17	33	31	71	171.0	-214183.0	3880.0	450002.0
29	17	33	31	72	172.0	-211057.0	3878.0	456251.0
29	17	33	31	72	173.0	-208150.0	3876.0	453138.0
29	17	33	31	73	174.0	-205400.0	3876.0	441109.0
29	17	33	31	73	175.0	-203114.0	3868.0	424493.0
29	17	33	31	82	177.0	-199752.0	3856.0	415421.0
29	17	33	31	83	178.0	-198504.0	3856.0	418403.0
29	17	33	31	83	179.0	-197130.0	3863.0	420859.0
29	17	33	31	84	180.0	-196062.0	3860.0	422351.0
29	17	33	31	84	181.0	-194671.0	3881.0	426189.0
29	17	33	31	85	182.0	-193517.0	3901.0	433399.0
29	17	33	31	85	183.0	-192199.0	3914.0	432973.0
29	17	33	31	125	184.0	-190195.0	3919.0	425131.0
29	17	33	31	155	185.0	-188117.0	3926.0	409812.0
29	17	33	31	156	186.0	-185959.0	3943.0	399162.0
29	17	33	31	156	187.0	-184637.0	3939.0	402063.0
29	17	33	31	157	188.0	-183473.0	3931.0	409520.0
29	17	33	31	158	189.0	-182612.0	3916.0	415089.0
29	17	33	31	158	190.0	-182352.0	3929.0	418649.0
29	17	33	31	159	191.0	-182299.0	3936.0	423606.0
29	17	33	31	159	192.0	-182958.0	3924.0	432140.0
29	17	33	31	160	193.0	-183851.0	3899.0	432856.0
29	17	33	31	161	194.0	-185062.0	3887.0	422995.0
29	17	33	31	161	195.0	-186126.0	3896.0	405444.0
29	17	33	31	162	196.0	-187057.0	3874.0	395159.0
29	17	33	31	163	197.0	-188431.0	3865.0	399212.0
29	17	33	31	163	198.0	-189842.0	3860.0	406668.0
29	17	33	31	164	207.0	-196524.0	3729.0	396998.0
29	17	33	31	165	215.0	-209893.0	3615.0	396730.0
29	17	33	31	165	223.0	-220479.0	3450.0	415949.0
29	17	33	31	166	224.0	-219489.0	3427.0	404978.0
29	17	33	31	166	225.0	-217617.0	3414.0	390011.0
29	17	33	31	179	226.0	-215382.0	3418.0	382410.0
29	17	33	31	179	227.0	-212897.0	3409.0	386798.0
29	17	33	31	180	228.0	-210463.0	3414.0	393925.0
29	17	33	31	180	229.0	-207766.0	3403.0	398805.0
29	17	33	31	181	230.0	-205117.0	3373.0	400594.0
29	17	33	31	202	231.0	-202631.0	3341.0	404469.0
29	17	33	31	202	232.0	-200034.0	3308.0	412458.0
29	17	33	31	203	233.0	-197727.0	3272.0	411426.0
29	17	33	31	204	234.0	-195339.0	3241.0	400269.0
29	17	33	31	205	235.0	-193179.0	3202.0	384773.0
29	17	33	31	205	236.0	-190778.0	3177.0	376629.0
29	17	33	31	206	237.0	-187904.0	3161.0	380809.0
29	17	33	31	207	238.0	-185207.0	3106.0	386469.0
29	17	33	31	207	239.0	-182406.0	3079.0	389275.0
29	17	33	31	208	240.0	-180062.0	3059.0	390876.0
29	17	33	31	209	241.0	-177813.0	3006.0	396482.0
29	17	33	31	209	242.0	-175757.0	2980.0	405741.0
29	17	33	31	210	243.0	-174241.0	2951.0	404976.0
29	17	33	31	210	244.0	-172899.0	2900.0	394416.0
29	17	33	31	211	245.0	-172253.0	2858.0	378929.0
29	17	33	31	212	246.0	-172194.0	2855.0	371093.0
29	17	33	31	212	247.0	-172587.0	2828.0	373437.0
29	17	33	31	213	248.0	-173849.0	2796.0	379404.0
29	17	33	31	213	249.0	-175251.0	2780.0	384586.0
29	17	33	31	214	250.0	-176452.0	2736.0	386748.0
29	17	33	31	214	251.0	-177636.0	2716.0	390388.0
29	17	33	31	215	252.0	-179096.0	2693.0	398568.0
29	17	33	31	228	253.0	-180784.0	2651.0	398521.0
29	17	33	31	248	254.0	-182764.0	2618.0	389754.0
29	17	33	31	248	255.0	-184950.0	2581.0	375799.0
29	17	33	31	249	0.0	-187072.0	2531.0	368834.0
29	17	33	31	250	1.0	-188301.0	2476.0	373923.0
29	17	33	31	250	2.0	-188637.0	2437.0	381087.0
29	17	33	31	251	3.0	-188839.0	2388.0	385991.0
29	17	33	31	252	4.0	-188968.0	2339.0	389426.0
29	17	33	31	252	5.0	-188727.0	2284.0	394058.0
29	17	33	31	253	6.0	-188511.0	2255.0	403464.0
29	17	33	31	254	7.0	-188367.0	2203.0	403965.0
29	17	33	31	254	8.0	-188273.0	2144.0	394830.0
29	17	33	31	255	9.0	-188619.0	2093.0	381278.0
29	17	33	31	256	10.0	-189005.0	2044.0	374629.0
29	17	33	31	256	11.0	-189166.0	1973.0	378595.0
29	17	33	31	257	12.0	-189442.0	1938.0	385209.0
29	17	33	31	257	13.0	-189954.0	1901.0	388698.0
29	17	33	31	258	14.0	-190858.0	1849.0	389124.0
29	17	33	31	258	15.0	-192614.0	1814.0	396404.0
29	17	33	31	259	16.0	-194674.0	1788.0	406700.0
29	17	33	31	260	17.0	-197041.0	1748.0	405864.0
29	17	33	31	260	18.0	-198971.0	1693.0	396597.0
29	17	33	31	291	19.0	-200105.0	1634.0	382533.0
29	17	33	31	292	20.0	-201226.0	1600.0	374339.0
29	17	33	31	292	21.0	-202281.0	1554.0	376611.0
29	17	33	31	293	22.0	-203380.0	1484.0	381284.0
29	17	33	31	294	23.0	-204434.0	1454.0	383649.0
29	17	33	31	294	24.0	-205033.0	1395.0	386702.0
29	17	33	31	295	25.0	-205677.0	1321.0	392481.0
29	17	33	31	296	26.0	-205822.0	1268.0	399625.0
29	17	33	31	296	27.0	-205562.0	1204.0	398595.0
29	17	33	31	297	28.0	-205367.0	1163.0	389674.0
29	17	33	31	298	29.0	-204964.0	1092.0	374567.0
29	17	33	31	298	30.0	-205131.0	1048.0	367164.0
29	17	33	31	299	31.0	-205729.0	991.0	370593.0
29	17	33	31	300	32.0	-206279.0	940.0	374579.0
29	17	33	31	300	33.0	-206780.0	884.0	378055.0
29	17	33	31	301	34.0	-206714.0	844.0	380259.0
29	17	33	31	301	35.0	-206781.0	791.0	383926.0
29	17	33	31	302	36.0	-206906.0	745.0	390441.0
29	17	33	31	302	37.0	-206876.0	698.0	389476.0
29	17	33	31	311	38.0	-207179.0	651.0	380544.0
29	17	33	31	312	39.0	-207114.0	597.0	366586.0
29	17	33	31	312	40.0	-207107.0	564.0	358764.0
29	17	33	31	313	41.0	-208032.0	512.0	362516.0
29	17	33	31	335	42.0	-209358.0	458.0	367894.0
29	17	33	31	335	43.0	-211139.0	406.0	371280.0
29	17	33	31	336	44.0	-212801.0	352.0	372316.0
29	17	33	31	337	45.0	-213914.0	288.0	375627.0
29	17	33	31	337	46.0	-214912.0	213.0	383866.0
29	17	33	31	338	47.0	-215486.0	147.0	383032.0
29	17	33	31	338	48.0	-215971.0	69.0	372557.0
29	17	33	31	339	49.0	-216029.0	4.0	357503.0
29	17	33	31	340	50.0	-215572.0	-37.0	349353.0
29	17	33	31	340	51.0	-214585.0	-84.0	352628.0
29	17	33	31	341	52.0	-213208.0	-127.0	358318.0
29	17	33	31	341	53.0	-212029.0	-207.0	362917.0
29	17	33	31	342	54.0	-210872.0	-277.0	365217.0
29	17	33	31	342	55.0	-209659.0	-327.0	368893.0
29	17	33	31	343	56.0	-208728.0	-361.0	376870.0
29	17	33	31	344	57.0	-208334.0	-436.0	376595.0
29	17	33	31	357	58.0	-208451.0	-492.0	368256.0
29	17	33	31	357	59.0	-208959.0	-539.0	353266.0
29	17	33	31	358	60.0	-210057.0	-600.0	343978.0
29	17	33	31	359	61.0	-211479.0	-664.0	347749.0
29	17	33	31	359	62.0	-212582.0	-749.0	353488.0
29	17	33	31	360	63.0	-213269.0	-812.0	356686.0
29	17	33	31	360	64.0	-213602.0	-880.0	359308.0
29	17	33	31	361	65.0	-213919.0	-924.0	365644.0
29	17	33	31	381	66.0	-214094.0	-956.0	374836.0
29	17	33	31	382	67.0	-213802.0	-995.0	374489.0
29	17	33	31	382	68.0	-212856.0	-1055.0	365312.0
29	17	33	31	383	69.0	-211612.0	-1123.0	352585.0
29	17	33	31	383	70.0	-209882.0	-1184.0	346059.0
29	17	33	31	384	71.0	-207942.0	-1243.0	350401.0
29	17	33	31	385	72.0	-205674.0	-1296.0	356186.0
29	17	33	31	385	73.0	-203401.0	-1335.0	359877.0
29	17	33	31	386	74.0	-201106.0	-1377.0	360448.0
29	17	33	31	386	75.0	-198826.0	-1431.0	363823.0
29	17	33	31	387	76.0	-197060.0	-1477.0	370628.0
29	17	33	31	388	77.0	-195994.0	-1523.0	368939.0
29	17	33	31	388	78.0	-195574.0	-1593.0	358623.0
29	17	33	31	389	79.0	-195764.0	-1638.0	343639.0
29	17	33	31	389	80.0	-196252.0	-1682.0	334254.0
29	17	33	31	410	81.0	-196945.0	-1736.0	336990.0
29	17	33	31	411	82.0	-197471.0	-1763.0	341570.0
29	17	33	31	412	83.0	-198187.0	-1813.0	345294.0
29	17	33	31	412	84.0	-198773.0	-1873.0	348259.0
29	17	33	31	413	85.0	-199344.0	-1924.0	354507.0
29	17	33	31	414	86.0	-200207.0	-1977.0	362430.0
29	17	33	31	414	87.0	-200786.0	-2010.0	361704.0
29	17	33	31	415	88.0	-201538.0	-2067.0	352319.0
29	17	33	31	416	89.0	-202031.0	-2111.0	337128.0
29	17	33	31	417	90.0	-202574.0	-2163.0	329429.0
29	17	33	31	417	91.0	-203152.0	-2216.0	333581.0
29	17	33	31	418	92.0	-204028.0	-2265.0	339134.0
29	17	33	31	419	93.0	-204909.0	-2313.0	343088.0
29	17	33	31	419	94.0	-205424.0	-2358.0	345799.0
29	17	33	31	420	95.0	-206078.0	-2394.0	350506.0
29	17	33	31	421	96.0	-206544.0	-2441.0	358772.0
29	17	33	31	421	97.0	-207309.0	-2461.0	359409.0
29	17	33	31	422	98.0	-207784.0	-2496.0	351983.0
29	17	33	31	423	99.0	-208238.0	-2529.0	338079.0
29	17	33	31	424	100.0	-209446.0	-2544.0	330496.0
29	17	33	31	454	101.0	-210309.0	-2596.0	333646.0
29	17	33	31	477	102.0	-211091.0	-2645.0	338331.0
29	17	33	31	478	103.0	-211451.0	-2701.0	341243.0
29	17	33	31	478	104.0	-211611.0	-2758.0	343165.0
29	17	33	31	479	105.0	-212028.0	-2792.0	347820.0
29	17	33	31	480	106.0	-211620.0	-2835.0	355743.0
29	17	33	31	480	107.0	-210895.0	-2901.0	352697.0
29	17	33	31	481	108.0	-210109.0	-2940.0	341365.0
29	17	33	31	481	109.0	-209273.0	-2986.0	326793.0
29	17	33	31	482	110.0	-208103.0	-3047.0	320002.0
29	17	33	31	482	111.0	-206811.0	-3086.0	324580.0
29	17	33	31	483	112.0	-205526.0	-3131.0	330341.0
29	17	33	31	484	113.0	-203655.0	-3182.0	332792.0
29	17	33	31	484	114.0	-201549.0	-3229.0	334154.0
29	17	33	31	485	115.0	-198786.0	-3277.0	340007.0
29	17	33	31	485	116.0	-196147.0	-3325.0	348971.0
29	17	33	31	486	117.0	-193641.0	-3372.0	351073.0
29	17	33	31	487	118.0	-190949.0	-3421.0	342579.0
29	17	33	31	487	119.0	-188619.0	-3454.0	327376.0
29	17	33	31	488	120.0	-186093.0	-3482.0	319657.0
29	17	33	31	488	121.0	-184148.0	-3502.0	323799.0
29	17	33	31	489	122.0	-182834.0	-3522.0	328942.0
29	17	33	31	489	123.0	-181365.0	-3572.0	332429.0
29	17	33	31	500	124.0	-180367.0	-3625.0	334943.0
29	17	33	31	501	125.0	-179572.0	-3663.0	339805.0
29	17	33	31	502	126.0	-180059.0	-3707.0	348612.0
29	17	33	31	503	127.0	-181612.0	-3779.0	348761.0
29	17	33	31	503	128.0	-183334.0	-3827.0	339416.0
29	17	33	31	504	129.0	-186147.0	-3872.0	323828.0
29	17	33	31	505	130.0	-189517.0	-3929.0	316326.0
29	17	33	31	505	131.0	-193131.0	-3974.0	322737.0
29	17	33	31	506	132.0	-196875.0	-4014.0	328759.0
29	17	33	31	507	133.0	-200514.0	-4071.0	330253.0
29	17	33	31	507	134.0	-204112.0	-4118.0	330851.0
29	17	33	31	508	135.0	-207558.0	-4157.0	333841.0
29	17	33	31	509	136.0	-211103.0	-4201.0	337886.0
29	17	33	31	509	137.0	-214435.0	-4246.0	330939.0
29	17	33	31	510	138.0	-217808.0	-4321.0	315808.0
29	17	33	31	510	139.0	-220258.0	-4369.0	296566.0
29	17	33	31	511	140.0	-221225.0	-4391.0	279951.0
29	17	33	31	512	141.0	-222147.0	-4412.0	272519.0
29	17	33	31	512	142.0	-222012.0	-4436.0	266426.0
29	17	33	31	513	143.0	-220526.0	-4459.0	261035.0
29	17	33	31	514	144.0	-218189.0	-4500.0	257116.0
29	17	33	31	514	145.0	-214393.0	-4546.0	258994.0
29	17	33	31	515	146.0	-209621.0	-4592.0	263988.0
29	17	33	31	561	147.0	-204597.0	-4636.0	260519.0
29	17	33	31	562	148.0	-199276.0	-4662.0	248738.0
29	17	33	31	562	149.0	-193892.0	-4698.0	235110.0
29	17	33	31	563	150.0	-188756.0	-4744.0	234607.0
29	17	33	31	564	151.0	-184404.0	-4779.0	248091.0
29	17	33	31	564	152.0	-180602.0	-4825.0	263720.0
29	17	33	31	565	153.0	-177562.0	-4884.0	277423.0
29	17	33	31	566	154.0	-175620.0	-4941.0	291223.0
29	17	33	31	566	155.0	-174629.0	-4974.0	310013.0
29	17	33	31	567	156.0	-175151.0	-5002.0	331361.0
29	17	33	31	568	157.0	-177492.0	-5044.0	343506.0
29	17	33	31	568	158.0	-180483.0	-5087.0	341795.0
29	17	33	31	569	159.0	-183471.0	-5126.0	330852.0
29	17	33	31	570	160.0	-185616.0	-5167.0	326105.0
29	17	33	31	570	161.0	-185594.0	-5218.0	332309.0
29	17	33	31	571	162.0	-181733.0	-5255.0	338636.0
29	17	33	31	571	169.0	-177119.0	-5565.0	335631.0
29	17	33	31	572	170.0	-192473.0	-5576.0	327741.0
29	17	33	31	581	171.0	-207076.0	-5613.0	329768.0
29	17	33	31	581	172.0	-219501.0	-5645.0	332676.0
29	17	33	31	582	173.0	-229871.0	-5680.0	337083.0
29	17	33	31	583	174.0	-237054.0	-5701.0	340738.0
29	17	33	31	583	175.0	-239997.0	-5724.0	346188.0
29	17	33	31	584	176.0	-239746.0	-5781.0	352539.0
29	17	33	31	584	177.0	-237348.0	-5839.0	349376.0
29	17	33	31	604	178.0	-233222.0	-5861.0	338064.0
29	17	33	31	605	179.0	-225760.0	-5872.0	322555.0
29	17	33	31	606	180.0	-216060.0	-5927.0	315700.0
29	17	33	31	607	181.0	-208107.0	-5964.0	319214.0
29	17	33	31	607	182.0	-200071.0	-6001.0	324068.0
29	17	33	31	608	183.0	-191289.0	-6051.0	328204.0
29	17	33	31	609	184.0	-185036.0	-6106.0	329878.0
29	17	33	31	609	185.0	-184703.0	-6138.0	334376.0
29	17	33	31	610	186.0	-188952.0	-6166.0	341908.0
29	17	33	31	610	187.0	-195621.0	-6199.0	340738.0
29	17	33	31	611	188.0	-205065.0	-6245.0	331543.0
29	17	33	31	612	189.0	-217605.0	-6289.0	316407.0
29	17	33	31	612	190.0	-232152.0	-6322.0	308786.0
29	17	33	31	613	191.0	-245699.0	-6367.0	312446.0
29	17	33	31	613	192.0	-255557.0	-6397.0	317235.0
29	17	33	31	614	193.0	-258851.0	-6427.0	320353.0
29	17	33	31	627	194.0	-254609.0	-6452.0	322069.0
29	17	33	31	628	195.0	-246131.0	-6476.0	326735.0
29	17	33	31	628	196.0	-235887.0	-6516.0	332925.0
29	17	33	31	629	197.0	-226161.0	-6555.0	329889.0
29	17	33	31	630	198.0	-218118.0	-6602.0	319364.0
29	17	33	31	638	199.0	-210691.0	-6629.0	305299.0
29	17	33	31	641	200.0	-203237.0	-6659.0	297769.0
29	17	33	31	642	201.0	-195651.0	-6699.0	300024.0
29	17	33	31	642	202.0	-187987.0	-6732.0	303011.0
29	17	33	31	643	203.0	-180407.0	-6773.0	306123.0
29	17	33	31	644	204.0	-174498.0	-6807.0	308264.0
29	17	33	31	644	205.0	-170932.0	-6861.0	313872.0
29	17	33	31	645	206.0	-169047.0	-6914.0	323001.0
29	17	33	31	645	207.0	-168199.0	-6954.0	321644.0
29	17	33	31	653	208.0	-166954.0	-6977.0	310058.0
29	17	33	31	654	209.0	-165089.0	-6989.0	295396.0
29	17	33	31	654	210.0	-163369.0	-7022.0	288679.0
29	17	33	31	655	211.0	-162699.0	-7071.0	291339.0
29	17	33	31	655	212.0	-163062.0	-7124.0	296125.0
29	17	33	31	656	213.0	-164475.0	-7169.0	298240.0
29	17	33	31	657	214.0	-166981.0	-7213.0	298964.0
29	17	33	31	678	215.0	-169964.0	-7223.0	304847.0
29	17	33	31	678	216.0	-173739.0	-7251.0	314248.0
29	17	33	31	679	217.0	-178289.0	-7305.0	313244.0
29	17	33	31	679	218.0	-183608.0	-7353.0	303934.0
29	17	33	31	680	219.0	-189215.0	-7381.0	290711.0
29	17	33	31	680	220.0	-194409.0	-7425.0	286911.0
29	17	33	31	681	221.0	-199804.0	-7478.0	293740.0
29	17	33	31	682	222.0	-204818.0	-7520.0	301528.0
29	17	33	31	710	223.0	-209538.0	-7531.0	304514.0
29	17	33	31	711	224.0	-213437.0	-7552.0	306115.0
29	17	33	31	712	225.0	-217102.0	-7604.0	311486.0
29	17	33	31	712	226.0	-220400.0	-7636.0	318634.0
29	17	33	31	713	227.0	-223062.0	-7687.0	317444.0
29	17	33	31	713	228.0	-225274.0	-7732.0	307771.0
29	17	33	31	714	229.0	-226339.0	-7779.0	292280.0
29	17	33	31	714	230.0	-226833.0	-7806.0	286119.0
29	17	33	31	715	231.0	-226312.0	-7844.0	292021.0
29	17	33	31	716	232.0	-225406.0	-7904.0	298130.0
29	17	33	31	717	233.0	-224569.0	-7941.0	301104.0
29	17	33	31	718	234.0	-223607.0	-7974.0	301622.0
29	17	33	31	719	235.0	-223511.0	-8022.0	306860.0
29	17	33	31	719	236.0	-222506.0	-8054.0	314348.0
29	17	33	31	720	237.0	-220731.0	-8101.0	311784.0
29	17	33	31	720	238.0	-218578.0	-8131.0	301614.0
29	17	33	31	721	244.0	-196917.0	-8386.0	297272.0
29	17	33	31	722	245.0	-193144.0	-8390.0	305676.0
29	17	33	31	722	246.0	-189484.0	-8404.0	314911.0
29	17	33	31	723	247.0	-186377.0	-8423.0	315082.0
29	17	33	31	723	248.0	-184064.0	-8446.0	306582.0
29	17	33	31	724	249.0	-182480.0	-8473.0	292410.0
29	17	33	31	724	250.0	-181282.0	-8486.0	285774.0
29	17	33	31	725	251.0	-180602.0	-8512.0	290578.0
29	17	33	31	739	252.0	-179659.0	-8542.0	294596.0
29	17	33	31	739	253.0	-179066.0	-8559.0	297161.0
29	17	33	31	740	254.0	-178794.0	-8579.0	299550.0
29	17	33	31	757	255.0	-178605.0	-8603.0	305689.0
29	17	33	31	758	0.0	-178987.0	-8625.0	311507.0
29	17	33	31	759	1.0	-178818.0	-8661.0	307684.0
29	17	33	31	759	2.0	-178818.0	-8692.0	296108.0
29	17	33	31	760	3.0	-179142.0	-8696.0	280919.0
29	17	33	31	760	4.0	-179601.0	-8674.0	276903.0
29	17	33	31	761	5.0	-180862.0	-8688.0	283269.0
29	17	33	31	762	6.0	-182263.0	-8702.0	289073.0
29	17	33	31	762	7.0	-183689.0	-8699.0	292714.0
29	17	33	31	763	8.0	-185027.0	-8709.0	295556.0
29	17	33	31	763	9.0	-186826.0	-8687.0	303254.0
29	17	33	31	764	10.0	-189086.0	-8677.0	311932.0
29	17	33	31	764	11.0	-191737.0	-8676.0	309871.0
29	17	33	31	765	12.0	-194562.0	-8647.0	299673.0
29	17	33	31	765	13.0	-197126.0	-8591.0	284592.0
29	17	33	31	780	14.0	-199821.0	-8531.0	279148.0
29	17	33	31	781	15.0	-202902.0	-8471.0	285003.0
29	17	33	31	782	16.0	-205909.0	-8413.0	291459.0
29	17	33	31	782	17.0	-209167.0	-8359.0	295970.0
29	17	33	31	804	18.0	-212287.0	-8313.0	298389.0
29	17	33	31	804	19.0	-214849.0	-8230.0	304873.0
29	17	33	31	805	20.0	-216669.0	-8144.0	312696.0
29	17	33	31	806	21.0	-217596.0	-8094.0	309741.0
29	17	33	31	806	22.0	-218342.0	-8016.0	297939.0
29	17	33	31	807	23.0	-218444.0	-7934.0	282823.0
29	17	33	31	807	24.0	-218091.0	-7843.0	277912.0
29	17	33	31	808	25.0	-217838.0	-7737.0	284270.0
29	17	33	31	809	26.0	-216925.0	-7633.0	291108.0
29	17	33	31	809	27.0	-216013.0	-7517.0	295961.0
29	17	33	31	810	28.0	-215259.0	-7409.0	300061.0
29	17	33	31	810	29.0	-214378.0	-7290.0	306526.0
29	17	33	31	811	30.0	-213566.0	-7161.0	314629.0
29	17	33	31	811	31.0	-212891.0	-7024.0	312141.0
29	17	33	31	812	32.0	-212019.0	-6911.0	300323.0
29	17	33	31	812	33.0	-210481.0	-6786.0	283257.0
29	17	33	31	813	34.0	-208594.0	-6612.0	275956.0
29	17	33	31	814	35.0	-206282.0	-6439.0	280443.0
29	17	33	31	814	36.0	-203782.0	-6269.0	284891.0
29	17	33	31	815	37.0	-200878.0	-6119.0	288757.0
29	17	33	31	815	38.0	-198022.0	-5952.0	292696.0
29	17	33	31	816	39.0	-195801.0	-5768.0	300496.0
29	17	33	31	829	40.0	-194041.0	-5599.0	308507.0
29	17	33	31	830	41.0	-192822.0	-5440.0	306602.0
29	17	33	31	831	42.0	-191834.0	-5267.0	296015.0
29	17	33	31	831	43.0	-191009.0	-5097.0	281834.0
29	17	33	31	848	44.0	-190367.0	-4916.0	278006.0
29	17	33	31	849	45.0	-189739.0	-4739.0	285031.0
29	17	33	31	850	46.0	-189671.0	-4577.0	291370.0
29	17	33	31	850	47.0	-190250.0	-4389.0	295971.0
29	17	33	31	851	48.0	-191071.0	-4206.0	300343.0
29	17	33	31	851	49.0	-192796.0	-4014.0	307510.0
29	17	33	31	852	50.0	-194702.0	-3836.0	316158.0
29	17	33	31	852	51.0	-194480.0	-3667.0	314377.0
29	17	33	31	853	52.0	-195123.0	-3489.0	305088.0
29	17	33	31	854	53.0	-196227.0	-3312.0	291888.0
29	17	33	31	854	54.0	-196284.0	-3142.0	286604.0
29	17	33	31	855	55.0	-196676.0	-2953.0	290964.0
29	17	33	31	872	56.0	-197967.0	-2768.0	295569.0
29	17	33	31	873	57.0	-199927.0	-2567.0	299843.0
29	17	33	31	874	58.0	-202002.0	-2383.0	302724.0
29	17	33	31	874	59.0	-204111.0	-2204.0	309684.0
29	17	33	31	875	60.0	-206406.0	-2016.0	317224.0
29	17	33	31	875	61.0	-208948.0	-1847.0	314719.0
29	17	33	31	895	62.0	-211766.0	-1674.0	301759.0
29	17	33	31	896	63.0	-214323.0	-1516.0	286396.0
29	17	33	31	896	64.0	-216861.0	-1331.0	282220.0
29	17	33	31	897	65.0	-219180.0	-1155.0	287860.0
29	17	33	31	898	66.0	-219435.0	-984.0	293763.0
29	17	33	31	898	67.0	-216682.0	-802.0	297914.0
29	17	33	31	899	68.0	-214756.0	-637.0	301799.0
29	17	33	31	900	69.0	-215870.0	-480.0	309683.0
29	17	33	31	900	70.0	-219061.0	-324.0	318303.0
29	17	33	31	901	71.0	-222932.0	-177.0	317592.0
29	17	33	31	901	72.0	-226093.0	3.0	307325.0
29	17	33	31	902	73.0	-228344.0	159.0	292597.0
29	17	33	31	903	74.0	-227787.0	309.0	288140.0
29	17	33	31	903	75.0	-223934.0	454.0	293508.0
29	17	33	31	904	76.0	-219234.0	593.0	300146.0
29	17	33	31	904	77.0	-215070.0	746.0	304204.0
29	17	33	31	905	78.0	-210486.0	900.0	306714.0
29	17	33	31	905	79.0	-204902.0	1054.0	313190.0
29	17	33	31	906	80.0	-198927.0	1189.0	320406.0
29	17	33	31	919	81.0	-193599.0	1328.0	317600.0
29	17	33	31	919	82.0	-189942.0	1477.0	307016.0
29	17	33	31	920	83.0	-187607.0	1621.0	292966.0
29	17	33	31	921	84.0	-185330.0	1783.0	288501.0
29	17	33	31	921	85.0	-183615.0	1908.0	293390.0
29	17	33	31	922	86.0	-182350.0	2032.0	298721.0
29	17	33	31	923	87.0	-180178.0	2165.0	301439.0
29	17	33	31	923	88.0	-177411.0	2262.0	303864.0
29	17	33	31	924	89.0	-173374.0	2362.0	308909.0
29	17	33	31	924	90.0	-167704.0	2485.0	315726.0
29	17	33	31	925	91.0	-161924.0	2598.0	312676.0
29	17	33	31	926	92.0	-156683.0	2711.0	300009.0
29	17	33	31	926	93.0	-152348.0	2806.0	285046.0
29	17	33	31	927	94.0	-150691.0	2921.0	279711.0
29	17	33	31	927	95.0	-151473.0	3056.0	282636.0
29	17	33	31	928	96.0	-154331.0	3168.0	287148.0
29	17	33	31	939	97.0	-160239.0	3273.0	291248.0
29	17	33	31	940	98.0	-167574.0	3380.0	294891.0
29	17	33	31	940	99.0	-174428.0	3476.0	301834.0
29	17	33	31	964	100.0	-180594.0	3562.0	308858.0
29	17	33	31	964	101.0	-185661.0	3646.0	306903.0
29	17	33	31	965	102.0	-189454.0	3753.0	296213.0
29	17	33	31	966	103.0	-193011.0	3837.0	280784.0
29	17	33	31	966	104.0	-195944.0	3921.0	275990.0
29	17	33	31	967	105.0	-198376.0	4001.0	280766.0
29	17	33	31	968	106.0	-200848.0	4068.0	285755.0
29	17	33	31	968	107.0	-202822.0	4146.0	289096.0
29	17	33	31	969	108.0	-203970.0	4224.0	291111.0
29	17	33	31	969	109.0	-205652.0	4296.0	296448.0
29	17	33	31	970	110.0	-207349.0	4364.0	303938.0
29	17	33	31	971	111.0	-208666.0	4433.0	301481.0
29	17	33	31	971	112.0	-210432.0	4474.0	292124.0
29	17	33	31	972	113.0	-212016.0	4528.0	279322.0
29	17	33	31	972	114.0	-213275.0	4600.0	275372.0
29	17	33	31	973	115.0	-215040.0	4625.0	279460.0
29	17	33	31	974	116.0	-216554.0	4689.0	283517.0
29	17	33	31	974	117.0	-217540.0	4768.0	286343.0
29	17	33	31	975	118.0	-218235.0	4814.0	288304.0
29	17	33	31	985	119.0	-218139.0	4886.0	295266.0
29	17	33	31	986	120.0	-216746.0	4938.0	303021.0
29	17	33	31	986	121.0	-214867.0	4987.0	300439.0
29	17	33	31	987	122.0	-211972.0	5019.0	290733.0
29	17	33	32	10	123.0	-207786.0	5061.0	277278.0
29	17	33	32	11	124.0	-203112.0	5101.0	271229.0
29	17	33	32	11	125.0	-198152.0	5139.0	275602.0
29	17	33	32	12	126.0	-192736.0	5171.0	279853.0
29	17	33	32	12	127.0	-186843.0	5181.0	282804.0
29	17	33	32	13	128.0	-181602.0	5194.0	285440.0
29	17	33	32	14	129.0	-176488.0	5202.0	291871.0
29	17	33	32	14	130.0	-172192.0	5231.0	298247.0
29	17	33	32	15	131.0	-169930.0	5241.0	295080.0
29	17	33	32	16	132.0	-168274.0	5262.0	283635.0
29	17	33	32	16	133.0	-166912.0	5277.0	269039.0
29	17	33	32	17	134.0	-166602.0	5293.0	266016.0
29	17	33	32	17	135.0	-166377.0	5318.0	272982.0
29	17	33	32	18	136.0	-165850.0	5331.0	280375.0
29	17	33	32	33	137.0	-166296.0	5341.0	285226.0
29	17	33	32	33	138.0	-167559.0	5344.0	288241.0
29	17	33	32	34	139.0	-169117.0	5361.0	296402.0
29	17	33	32	34	140.0	-171837.0	5386.0	304121.0
29	17	33	32	35	141.0	-174766.0	5405.0	302013.0
29	17	33	32	36	142.0	-177559.0	5424.0	292700.0
29	17	33	32	36	143.0	-181131.0	5443.0	279997.0
29	17	33	32	37	144.0	-185347.0	5474.0	277954.0
29	17	33	32	56	145.0	-189675.0	5465.0	284934.0
29	17	33	32	56	146.0	-194472.0	5466.0	291124.0
29	17	33	32	57	147.0	-199159.0	5487.0	295281.0
29	17	33	32	57	148.0	-202947.0	5478.0	297799.0
29	17	33	32	58	149.0	-206633.0	5470.0	304426.0
29	17	33	32	59	150.0	-209989.0	5461.0	312268.0
29	17	33	32	59	151.0	-212713.0	5467.0	308607.0
29	17	33	32	60	152.0	-214442.0	5448.0	297034.0
29	17	33	32	60	153.0	-215509.0	5441.0	284130.0
29	17	33	32	61	154.0	-216565.0	5465.0	281156.0
29	17	33	32	61	155.0	-217086.0	5464.0	288113.0
29	17	33	32	62	156.0	-217343.0	5473.0	294411.0
29	17	33	32	63	157.0	-217609.0	5445.0	298156.0
29	17	33	32	63	158.0	-217747.0	5436.0	301504.0
29	17	33	32	64	159.0	-217849.0	5444.0	308306.0
29	17	33	32	64	160.0	-218292.0	5421.0	315691.0
29	17	33	32	65	161.0	-218736.0	5393.0	312980.0
29	17	33	32	65	162.0	-218084.0	5408.0	301269.0
29	17	33	32	77	163.0	-216906.0	5415.0	285415.0
29	17	33	32	78	164.0	-215971.0	5420.0	279491.0
29	17	33	32	78	165.0	-214920.0	5399.0	283985.0
29	17	33	32	79	166.0	-213586.0	5386.0	288844.0
29	17	33	32	80	167.0	-212474.0	5370.0	290331.0
29	17	33	32	100	168.0	-210621.0	5358.0	290723.0
29	17	33	32	100	169.0	-207707.0	5376.0	296626.0
29	17	33	32	101	170.0	-205135.0	5366.0	303263.0
29	17	33	32	102	171.0	-202434.0	5343.0	300978.0
29	17	33	32	102	172.0	-199182.0	5333.0	290386.0
29	17	33	32	103	173.0	-196312.0	5323.0	276899.0
29	17	33	32	103	174.0	-193619.0	5324.0	273716.0
29	17	33	32	104	175.0	-190867.0	5311.0	279284.0
29	17	33	32	105	176.0	-188486.0	5320.0	284218.0
29	17	33	32	105	177.0	-186475.0	5323.0	286846.0
29	17	33	32	106	178.0	-184395.0	5323.0	288311.0
29	17	33	32	106	179.0	-182137.0	5310.0	295574.0
29	17	33	32	107	180.0	-180518.0	5293.0	302999.0
29	17	33	32	107	181.0	-179198.0	5279.0	299331.0
29	17	33	32	108	182.0	-177598.0	5266.0	288110.0
29	17	33	32	108	183.0	-176481.0	5255.0	273728.0
29	17	33	32	122	184.0	-176219.0	5261.0	269481.0
29	17	33	32	123	185.0	-176402.0	5269.0	273821.0
29	17	33	32	124	186.0	-176862.0	5251.0	278776.0
29	17	33	32	124	187.0	-177656.0	5222.0	281971.0
29	17	33	32	125	188.0	-178186.0	5216.0	284566.0
29	17	33	32	125	189.0	-178573.0	5206.0	292236.0
29	17	33	32	126	190.0	-179366.0	5174.0	299665.0
29	17	33	32	145	191.0	-180707.0	5161.0	297245.0
29	17	33	32	145	192.0	-182326.0	5169.0	288440.0
29	17	33	32	146	193.0	-184579.0	5160.0	275224.0
29	17	33	32	146	194.0	-187241.0	5161.0	271693.0
29	17	33	32	147	195.0	-189928.0	5155.0	277306.0
29	17	33	32	148	196.0	-192917.0	5105.0	283184.0
29	17	33	32	148	197.0	-195894.0	5096.0	286311.0
29	17	33	32	149	198.0	-198882.0	5083.0	288483.0
29	17	33	32	149	199.0	-201537.0	5091.0	295955.0
29	17	33	32	150	200.0	-204403.0	5074.0	302336.0
29	17	33	32	150	201.0	-207061.0	5037.0	299542.0
29	17	33	32	151	202.0	-208948.0	4999.0	288141.0
29	17	33	32	152	203.0	-210604.0	4971.0	273978.0
29	17	33	32	152	204.0	-212157.0	4946.0	270016.0
29	17	33	32	153	205.0	-213777.0	4913.0	274729.0
29	17	33	32	167	206.0	-215084.0	4899.0	279378.0
29	17	33	32	168	207.0	-216359.0	4904.0	283680.0
29	17	33	32	168	208.0	-217109.0	4868.0	287574.0
29	17	33	32	169	209.0	-217231.0	4829.0	295409.0
29	17	33	32	169	210.0	-217224.0	4801.0	302947.0
29	17	33	32	170	211.0	-216857.0	4773.0	299938.0
29	17	33	32	171	212.0	-216014.0	4740.0	288820.0
29	17	33	32	171	213.0	-215003.0	4709.0	275044.0
29	17	33	32	191	214.0	-214039.0	4698.0	270923.0
29	17	33	32	191	215.0	-212838.0	4674.0	275804.0
29	17	33	32	192	216.0	-211386.0	4636.0	281600.0
29	17	33	32	192	217.0	-210352.0	4608.0	285386.0
29	17	33	32	193	218.0	-208767.0	4578.0	288206.0
29	17	33	32	194	219.0	-206808.0	4543.0	295911.0
29	17	33	32	194	220.0	-205184.0	4501.0	303958.0
29	17	33	32	195	221.0	-203512.0	4489.0	301555.0
29	17	33	32	195	222.0	-201856.0	4467.0	292349.0
29	17	33	32	196	223.0	-200897.0	4444.0	280806.0
29	17	33	32	196	224.0	-200491.0	4433.0	278143.0
29	17	33	32	197	225.0	-200195.0	4386.0	283748.0
29	17	33	32	198	226.0	-200302.0	4350.0	287628.0
29	17	33	32	198	227.0	-200412.0	4309.0	291504.0
29	17	33	32	199	228.0	-200744.0	4271.0	294853.0
29	17	33	32	219	229.0	-201659.0	4240.0	301629.0
29	17	33	32	220	230.0	-202957.0	4211.0	307784.0
29	17	33	32	221	231.0	-204290.0	4164.0	303138.0
29	17	33	32	221	232.0	-205782.0	4131.0	289760.0
29	17	33	32	222	233.0	-207193.0	4087.0	273946.0
29	17	33	32	223	234.0	-208259.0	4030.0	268075.0
29	17	33	32	223	235.0	-209028.0	3999.0	270360.0
29	17	33	32	224	236.0	-209572.0	3959.0	273582.0
29	17	33	32	225	237.0	-209884.0	3909.0	276470.0
29	17	33	32	225	238.0	-209692.0	3863.0	278979.0
29	17	33	32	226	239.0	-209299.0	3811.0	285092.0
29	17	33	32	226	240.0	-209261.0	3772.0	291536.0
29	17	33	32	227	241.0	-209219.0	3713.0	289830.0
29	17	33	32	228	242.0	-209345.0	3664.0	279542.0
29	17	33	32	228	243.0	-209495.0	3642.0	265546.0
29	17	33	32	229	244.0	-209584.0	3598.0	261615.0
29	17	33	32	230	245.0	-209321.0	3545.0	266247.0
29	17	33	32	231	246.0	-209079.0	3529.0	270166.0
29	17	33	32	239	247.0	-209175.0	3473.0	272286.0
29	17	33	32	239	248.0	-209534.0	3433.0	273553.0
29	17	33	32	240	249.0	-210102.0	3413.0	278136.0
29	17	33	32	264	250.0	-211097.0	3363.0	283148.0
29	17	33	32	287	251.0	-211889.0	3323.0	278123.0
29	17	33	32	287	252.0	-212760.0	3249.0	265616.0
29	17	33	32	288	253.0	-214003.0	3172.0	249943.0
29	17	33	32	289	254.0	-215319.0	3119.0	245572.0
29	17	33	32	289	255.0	-216650.0	3078.0	250403.0
29	17	33	32	290	0.0	-218267.0	3019.0	254235.0
29	17	33	32	290	1.0	-219619.0	2963.0	256255.0
29	17	33	32	291	2.0	-220726.0	2920.0	256835.0
29	17	33	32	291	3.0	-221982.0	2868.0	262496.0
29	17	33	32	292	4.0	-223016.0	2799.0	268124.0
29	17	33	32	293	5.0	-223460.0	2737.0	263901.0
29	17	33	32	293	6.0	-224051.0	2676.0	252078.0
29	17	33	32	294	7.0	-224479.0	2624.0	237253.0
29	17	33	32	294	8.0	-224060.0	2578.0	231679.0
29	17	33	32	295	9.0	-223263.0	2507.0	235820.0
29	17	33	32	295	10.0	-222419.0	2459.0	240669.0
29	17	33	32	296	11.0	-220864.0	2418.0	242203.0
29	17	33	32	297	12.0	-218872.0	2379.0	243203.0
29	17	33	32	297	13.0	-217135.0	2321.0	248949.0
29	17	33	32	298	14.0	-214782.0	2280.0	255619.0
29	17	33	32	298	15.0	-212158.0	2258.0	252148.0
29	17	33	32	309	16.0	-209914.0	2183.0	240186.0
29	17	33	32	310	17.0	-207238.0	2119.0	223969.0
29	17	33	32	310	18.0	-204492.0	2075.0	218607.0
29	17	33	32	311	19.0	-202241.0	2013.0	223654.0
29	17	33	32	312	20.0	-200245.0	1954.0	228962.0
29	17	33	32	312	21.0	-198047.0	1881.0	232155.0
29	17	33	32	313	22.0	-196074.0	1815.0	234313.0
29	17	33	32	314	23.0	-194536.0	1757.0	241824.0
29	17	33	32	314	24.0	-193398.0	1718.0	247913.0
29	17	33	32	315	25.0	-192991.0	1648.0	244931.0
29	17	33	32	316	26.0	-193203.0	1593.0	234148.0
29	17	33	32	316	27.0	-193380.0	1543.0	221059.0
29	17	33	32	317	28.0	-193489.0	1490.0	219345.0
29	17	33	32	318	29.0	-193956.0	1425.0	224458.0
29	17	33	32	318	30.0	-194614.0	1339.0	228327.0
29	17	33	32	319	31.0	-195229.0	1284.0	231228.0
29	17	33	32	320	32.0	-195792.0	1241.0	232214.0
29	17	33	32	320	33.0	-196607.0	1191.0	239573.0
29	17	33	32	321	34.0	-197931.0	1143.0	246486.0
29	17	33	32	330	35.0	-199457.0	1115.0	242769.0
29	17	33	32	331	36.0	-201434.0	1061.0	231067.0
29	17	33	32	332	37.0	-203584.0	998.0	217216.0
29	17	33	32	332	38.0	-205544.0	969.0	211379.0
29	17	33	32	357	39.0	-207459.0	915.0	214641.0
29	17	33	32	358	40.0	-208887.0	867.0	219116.0
29	17	33	32	358	41.0	-209700.0	806.0	222699.0
29	17	33	32	359	42.0	-210492.0	739.0	224150.0
29	17	33	32	360	43.0	-210689.0	681.0	228463.0
29	17	33	32	360	44.0	-210018.0	600.0	232769.0
29	17	33	32	361	45.0	-209782.0	548.0	228027.0
29	17	33	32	362	46.0	-209575.0	488.0	215308.0
29	17	33	32	362	47.0	-208346.0	444.0	200394.0
29	17	33	32	363	48.0	-206869.0	369.0	196291.0
29	17	33	32	364	49.0	-205959.0	304.0	201626.0
29	17	33	32	365	50.0	-204544.0	243.0	208571.0
29	17	33	32	365	51.0	-202695.0	178.0	214106.0
29	17	33	32	366	52.0	-201134.0	108.0	216398.0
29	17	33	32	366	53.0	-199557.0	40.0	224578.0
29	17	33	32	367	54.0	-198039.0	-34.0	233414.0
29	17	33	32	368	55.0	-196807.0	-62.0	231551.0
29	17	33	32	368	56.0	-196034.0	-121.0	218762.0
29	17	33	32	369	57.0	-195814.0	-155.0	202940.0
29	17	33	32	370	58.0	-196336.0	-196.0	197907.0
29	17	33	32	370	59.0	-196790.0	-262.0	202760.0
29	17	33	32	371	60.0	-196885.0	-301.0	207728.0
29	17	33	32	383	61.0	-196708.0	-339.0	210670.0
29	17	33	32	384	62.0	-196911.0	-402.0	213153.0
29	17	33	32	384	63.0	-196964.0	-436.0	221446.0
29	17	33	32	404	64.0	-196404.0	-504.0	228595.0
29	17	33	32	405	65.0	-195731.0	-571.0	224823.0
29	17	33	32	406	66.0	-195318.0	-631.0	214595.0
29	17	33	32	406	67.0	-194705.0	-675.0	201998.0
29	17	33	32	407	68.0	-194023.0	-742.0	199123.0
29	17	33	32	407	69.0	-193454.0	-796.0	204812.0
29	17	33	32	408	70.0	-192691.0	-838.0	210609.0
29	17	33	32	409	71.0	-191668.0	-882.0	214523.0
29	17	33	32	409	72.0	-191005.0	-944.0	216521.0
29	17	33	32	410	73.0	-190423.0	-994.0	224049.0
29	17	33	32	410	74.0	-189561.0	-1054.0	230465.0
29	17	33	32	411	75.0	-189155.0	-1121.0	226701.0
29	17	33	32	412	76.0	-189029.0	-1177.0	214946.0
29	17	33	32	412	77.0	-188642.0	-1204.0	201326.0
29	17	33	32	413	78.0	-188655.0	-1256.0	197294.0
29	17	33	32	414	79.0	-189149.0	-1295.0	203451.0
29	17	33	32	414	80.0	-189684.0	-1324.0	209395.0
29	17	33	32	415	81.0	-190094.0	-1340.0	213267.0
29	17	33	32	416	82.0	-190730.0	-1373.0	216691.0
29	17	33	32	416	83.0	-192091.0	-1445.0	226752.0
29	17	33	32	429	84.0	-193072.0	-1494.0	235640.0
29	17	33	32	430	85.0	-194382.0	-1531.0	235589.0
29	17	33	32	430	86.0	-196350.0	-1564.0	228707.0
29	17	33	32	431	87.0	-197663.0	-1634.0	217825.0
29	17	33	32	432	88.0	-198952.0	-1688.0	215046.0
29	17	33	32	433	89.0	-200369.0	-1737.0	222177.0
29	17	33	32	433	90.0	-201405.0	-1767.0	229236.0
29	17	33	32	434	91.0	-202263.0	-1810.0	234416.0
29	17	33	32	434	92.0	-202861.0	-1854.0	240286.0
29	17	33	32	452	93.0	-202860.0	-1890.0	248052.0
29	17	33	32	453	94.0	-202406.0	-1927.0	252633.0
29	17	33	32	454	95.0	-202052.0	-1976.0	248653.0
29	17	33	32	454	96.0	-201783.0	-2017.0	236306.0
29	17	33	32	455	97.0	-200902.0	-2073.0	222162.0
29	17	33	32	455	98.0	-199884.0	-2127.0	218509.0
29	17	33	32	456	99.0	-199502.0	-2196.0	223507.0
29	17	33	32	475	100.0	-198775.0	-2234.0	227604.0
29	17	33	32	476	101.0	-197718.0	-2265.0	230626.0
29	17	33	32	477	102.0	-196501.0	-2319.0	233496.0
29	17	33	32	477	103.0	-194766.0	-2375.0	239954.0
29	17	33	32	478	104.0	-193349.0	-2422.0	246257.0
29	17	33	32	478	105.0	-192703.0	-2486.0	242996.0
29	17	33	32	479	106.0	-191872.0	-2537.0	232946.0
29	17	33	32	480	107.0	-191204.0	-2572.0	219939.0
29	17	33	32	480	108.0	-191308.0	-2601.0	216887.0
29	17	33	32	481	109.0	-191902.0	-2644.0	222061.0
29	17	33	32	481	110.0	-193112.0	-2682.0	227108.0
29	17	33	32	482	111.0	-194664.0	-2735.0	230653.0
29	17	33	32	483	112.0	-196409.0	-2788.0	233844.0
29	17	33	32	483	113.0	-198557.0	-2841.0	242086.0
29	17	33	32	484	114.0	-200326.0	-2901.0	249319.0
29	17	33	32	498	115.0	-201683.0	-2923.0	246734.0
29	17	33	32	499	116.0	-202899.0	-2960.0	233963.0
29	17	33	32	500	117.0	-203309.0	-3008.0	219054.0
29	17	33	32	500	118.0	-203638.0	-3040.0	216315.0
29	17	33	32	501	119.0	-204038.0	-3096.0	222924.0
29	17	33	32	501	120.0	-204047.0	-3145.0	229549.0
29	17	33	32	502	121.0	-204296.0	-3201.0	234798.0
29	17	33	32	525	122.0	-204671.0	-3260.0	240931.0
29	17	33	32	526	123.0	-205016.0	-3280.0	250043.0
29	17	33	32	526	124.0	-205774.0	-3316.0	256788.0
29	17	33	32	527	125.0	-206654.0	-3376.0	253976.0
29	17	33	32	528	126.0	-207317.0	-3452.0	244322.0
29	17	33	32	528	127.0	-207805.0	-3509.0	231803.0
29	17	33	32	529	128.0	-208530.0	-3538.0	229688.0
29	17	33	32	529	129.0	-209518.0	-3587.0	235583.0
29	17	33	32	530	130.0	-210427.0	-3649.0	240644.0
29	17	33	32	530	131.0	-211357.0	-3702.0	242436.0
29	17	33	32	531	132.0	-212503.0	-3752.0	241830.0
29	17	33	32	532	133.0	-213219.0	-3824.0	245116.0
29	17	33	32	532	134.0	-213571.0	-3880.0	245901.0
29	17	33	32	533	135.0	-214335.0	-3921.0	235806.0
29	17	33	32	533	136.0	-214600.0	-3971.0	217685.0
29	17	33	32	534	137.0	-214097.0	-4012.0	199194.0
29	17	33	32	534	138.0	-213314.0	-4039.0	188630.0
29	17	33	32	535	139.0	-211771.0	-4078.0	183743.0
29	17	33	32	535	140.0	-209831.0	-4109.0	178010.0
29	17	33	32	536	141.0	-207584.0	-4137.0	169684.0
29	17	33	32	537	142.0	-204699.0	-4166.0	162723.0
29	17	33	32	549	143.0	-201862.0	-4206.0	163850.0
29	17	33	32	549	144.0	-199107.0	-4272.0	165454.0
29	17	33	32	550	145.0	-196549.0	-4306.0	159582.0
29	17	33	32	550	146.0	-194236.0	-4346.0	146925.0
29	17	33	32	571	147.0	-191974.0	-4391.0	132601.0
29	17	33	32	572	148.0	-190381.0	-4436.0	131784.0
29	17	33	32	573	149.0	-189332.0	-4472.0	143563.0
29	17	33	32	573	150.0	-188379.0	-4514.0	158144.0
29	17	33	32	574	151.0	-187834.0	-4562.0	171263.0
29	17	33	32	574	152.0	-187222.0	-4596.0	183505.0
29	17	33	32	575	153.0	-186794.0	-4634.0	203372.0
29	17	33	32	575	154.0	-187076.0	-4667.0	222545.0
29	17	33	32	576	155.0	-187860.0	-4722.0	231559.0
29	17	33	32	576	156.0	-189578.0	-4767.0	230062.0
29	17	33	32	577	157.0	-191730.0	-4797.0	223064.0
29	17	33	32	577	158.0	-192993.0	-4844.0	223583.0
29	17	33	32	578	159.0	-192376.0	-4868.0	229744.0
29	17	33	32	579	160.0	-189324.0	-4912.0	235394.0
29	17	33	32	579	161.0	-181342.0	-4944.0	239801.0
29	17	33	32	580	162.0	-172119.0	-4950.0	243294.0
29	17	33	32	580	163.0	-163844.0	-4978.0	251472.0
29	17	33	32	581	164.0	-156900.0	-5027.0	258238.0
29	17	33	32	581	165.0	-156736.0	-5075.0	253789.0
29	17	33	32	610	166.0	-161471.0	-5130.0	238914.0
29	17	33	32	610	167.0	-171725.0	-5162.0	223484.0
29	17	33	32	611	168.0	-186214.0	-5207.0	221603.0
29	17	33	32	612	169.0	-201354.0	-5236.0	227691.0
29	17	33	32	613	170.0	-215732.0	-5284.0	232762.0
29	17	33	32	613	171.0	-228449.0	-5337.0	235841.0
29	17	33	32	614	172.0	-238434.0	-5376.0	238302.0
29	17	33	32	615	173.0	-244522.0	-5437.0	245314.0
29	17	33	32	616	174.0	-245974.0	-5472.0	249338.0
29	17	33	32	616	175.0	-244560.0	-5524.0	244195.0
29	17	33	32	617	176.0	-242373.0	-5586.0	231619.0
29	17	33	32	618	177.0	-238829.0	-5613.0	216618.0
29	17	33	32	618	178.0	-230664.0	-5672.0	211749.0
29	17	33	32	619	179.0	-219409.0	-5717.0	214540.0
29	17	33	32	619	180.0	-211667.0	-5770.0	218295.0
29	17	33	32	620	181.0	-203191.0	-5821.0	221115.0
29	17	33	32	620	182.0	-193419.0	-5842.0	224054.0
29	17	33	32	621	183.0	-188305.0	-5886.0	230855.0
29	17	33	32	622	184.0	-189503.0	-5911.0	235413.0
29	17	33	32	634	185.0	-193839.0	-5941.0	231061.0
29	17	33	32	635	186.0	-200197.0	-5974.0	218218.0
29	17	33	32	636	187.0	-208717.0	-6001.0	204090.0
29	17	33	32	636	188.0	-221307.0	-6045.0	203257.0
29	17	33	32	658	189.0	-235645.0	-6077.0	210211.0
29	17	33	32	658	190.0	-248896.0	-6109.0	216368.0
29	17	33	32	659	191.0	-258299.0	-6143.0	218980.0
29	17	33	32	659	192.0	-260739.0	-6195.0	221286.0
29	17	33	32	660	193.0	-256289.0	-6251.0	228429.0
29	17	33	32	661	194.0	-247966.0	-6280.0	234121.0
29	17	33	32	661	195.0	-239166.0	-6319.0	229854.0
29	17	33	32	662	196.0	-231234.0	-6387.0	218571.0
29	17	33	32	662	197.0	-224180.0	-6425.0	206264.0
29	17	33	32	663	198.0	-216987.0	-6447.0	205053.0
29	17	33	32	663	199.0	-208744.0	-6495.0	210160.0
29	17	33	32	664	200.0	-199126.0	-6533.0	213829.0
29	17	33	32	665	201.0	-188855.0	-6589.0	214914.0
29	17	33	32	665	202.0	-179553.0	-6638.0	215488.0
29	17	33	32	666	203.0	-172152.0	-6664.0	221433.0
29	17	33	32	666	204.0	-166591.0	-6686.0	226146.0
29	17	33	32	667	205.0	-162802.0	-6734.0	220588.0
29	17	33	32	667	206.0	-160514.0	-6761.0	208363.0
29	17	33	32	668	207.0	-158842.0	-6778.0	195773.0
29	17	33	32	669	208.0	-157207.0	-6789.0	194309.0
29	17	33	32	669	209.0	-156066.0	-6833.0	200769.0
29	17	33	32	670	210.0	-155574.0	-6877.0	206429.0
29	17	33	32	684	211.0	-155822.0	-6922.0	210468.0
29	17	33	32	685	212.0	-156401.0	-6950.0	212953.0
29	17	33	32	685	213.0	-157535.0	-6987.0	220320.0
29	17	33	32	686	214.0	-159359.0	-7037.0	226480.0
29	17	33	32	686	215.0	-162506.0	-7083.0	222797.0
29	17	33	32	687	216.0	-167212.0	-7122.0	211894.0
29	17	33	32	688	217.0	-172922.0	-7163.0	198478.0
29	17	33	32	688	218.0	-179469.0	-7204.0	195521.0
29	17	33	32	689	219.0	-186797.0	-7238.0	200461.0
29	17	33	32	703	220.0	-194672.0	-7263.0	204019.0
29	17	33	32	704	221.0	-202581.0	-7301.0	206825.0
29	17	33	32	705	222.0	-210311.0	-7334.0	209942.0
29	17	33	32	705	223.0	-217758.0	-7376.0	218283.0
29	17	33	32	706	224.0	-224639.0	-7414.0	224449.0
29	17	33	32	706	225.0	-230369.0	-7472.0	220480.0
29	17	33	32	707	226.0	-234965.0	-7529.0	206406.0
29	17	33	32	727	227.0	-238786.0	-7570.0	192999.0
29	17	33	32	727	228.0	-241487.0	-7603.0	191485.0
29	17	33	32	728	229.0	-242824.0	-7613.0	197971.0
29	17	33	32	729	230.0	-242681.0	-7656.0	203716.0
29	17	33	32	729	231.0	-241119.0	-7681.0	206438.0
29	17	33	32	730	232.0	-238361.0	-7742.0	208141.0
29	17	33	32	730	233.0	-234901.0	-7802.0	214633.0
29	17	33	32	731	234.0	-230583.0	-7846.0	220970.0
29	17	33	32	732	235.0	-225850.0	-7879.0	217255.0
29	17	33	32	732	236.0	-221185.0	-7897.0	205774.0
29	17	33	32	733	237.0	-216931.0	-7921.0	194293.0
29	17	33	32	733	238.0	-212872.0	-7970.0	194291.0
29	17	33	32	734	239.0	-208832.0	-8010.0	200456.0
29	17	33	32	734	240.0	-204864.0	-8081.0	206018.0
29	17	33	32	735	241.0	-201110.0	-8116.0	209589.0
29	17	33	32	749	242.0	-197874.0	-8123.0	210775.0
29	17	33	32	750	243.0	-194639.0	-8149.0	216998.0
29	17	33	32	751	244.0	-191287.0	-8183.0	222699.0
29	17	33	32	751	245.0	-187778.0	-8243.0	217420.0
29	17	33	32	752	246.0	-183951.0	-8281.0	203941.0
29	17	33	32	753	247.0	-180174.0	-8312.0	191291.0
29	17	33	32	753	248.0	-176464.0	-8348.0	190466.0
29	17	33	32	754	249.0	-172742.0	-8364.0	196288.0
29	17	33	32	772	250.0	-169066.0	-8391.0	201534.0
29	17	33	32	772	251.0	-165394.0	-8403.0	204616.0
29	17	33	32	773	252.0	-162086.0	-8416.0	207829.0
29	17	33	32	774	253.0	-159564.0	-8467.0	215476.0
29	17	33	32	774	254.0	-157869.0	-8496.0	220314.0
29	17	33	32	775	255.0	-157107.0	-8499.0	215874.0
29	17	33	32	775	0.0	-157880.0	-8525.0	203351.0
29	17	33	32	776	1.0	-160125.0	-8519.0	189770.0
29	17	33	32	776	2.0	-162934.0	-8502.0	188787.0
29	17	33	32	777	3.0	-166126.0	-8487.0	197126.0
29	17	33	32	778	4.0	-169414.0	-8491.0	202623.0
29	17	33	32	778	5.0	-172782.0	-8506.0	204053.0
29	17	33	32	779	6.0	-176572.0	-8493.0	204929.0
29	17	33	32	779	7.0	-180526.0	-8462.0	211739.0
29	17	33	32	780	8.0	-184227.0	-8430.0	217741.0
29	17	33	32	794	9.0	-187819.0	-8394.0	212438.0
29	17	33	32	795	10.0	-191306.0	-8342.0	200831.0
29	17	33	32	795	11.0	-194115.0	-8310.0	189851.0
29	17	33	32	796	12.0	-196500.0	-8269.0	188874.0
29	17	33	32	796	13.0	-198559.0	-8209.0	193867.0
29	17	33	32	797	14.0	-200432.0	-8162.0	196814.0
29	17	33	32	797	15.0	-202641.0	-8099.0	198700.0
29	17	33	32	821	16.0	-204925.0	-8031.0	201702.0
29	17	33	32	821	17.0	-207372.0	-7933.0	209817.0
29	17	33	32	822	18.0	-210186.0	-7862.0	214498.0
29	17	33	32	822	19.0	-212774.0	-7781.0	209291.0
29	17	33	32	823	20.0	-215068.0	-7690.0	196815.0
29	17	33	32	823	21.0	-217086.0	-7588.0	183909.0
29	17	33	32	824	22.0	-218696.0	-7491.0	182864.0
29	17	33	32	825	23.0	-219944.0	-7396.0	190013.0
29	17	33	32	825	24.0	-221328.0	-7258.0	196341.0
29	17	33	32	826	25.0	-221866.0	-7116.0	198140.0
29	17	33	32	826	26.0	-221242.0	-7009.0	199794.0
29	17	33	32	827	27.0	-220274.0	-6885.0	206883.0
29	17	33	32	827	28.0	-218491.0	-6766.0	212876.0
29	17	33	32	828	29.0	-216202.0	-6631.0	208747.0
29	17	33	32	828	30.0	-214101.0	-6482.0	197144.0
29	17	33	32	843	31.0	-211384.0	-6324.0	185249.0
29	17	33	32	844	32.0	-208354.0	-6144.0	185493.0
29	17	33	32	844	33.0	-205718.0	-5980.0	192786.0
29	17	33	32	845	34.0	-202869.0	-5835.0	199382.0
29	17	33	32	846	35.0	-199892.0	-5670.0	202969.0
29	17	33	32	846	36.0	-197693.0	-5515.0	206330.0
29	17	33	32	847	37.0	-195364.0	-5354.0	214720.0
29	17	33	32	847	38.0	-193291.0	-5179.0	220788.0
29	17	33	32	866	39.0	-192171.0	-4996.0	216446.0
29	17	33	32	867	40.0	-190646.0	-4809.0	203013.0
29	17	33	32	867	41.0	-189031.0	-4622.0	189511.0
29	17	33	32	868	42.0	-188421.0	-4444.0	190132.0
29	17	33	32	869	43.0	-188026.0	-4266.0	197200.0
29	17	33	32	869	44.0	-188042.0	-4077.0	201973.0
29	17	33	32	870	45.0	-189102.0	-3894.0	205319.0
29	17	33	32	870	46.0	-190608.0	-3709.0	209036.0
29	17	33	32	871	47.0	-192696.0	-3521.0	216591.0
29	17	33	32	872	48.0	-195274.0	-3331.0	219731.0
29	17	33	32	872	49.0	-197679.0	-3151.0	212278.0
29	17	33	32	873	50.0	-199878.0	-2964.0	199009.0
29	17	33	32	873	51.0	-201607.0	-2777.0	186096.0
29	17	33	32	874	52.0	-202528.0	-2571.0	184144.0
29	17	33	32	875	53.0	-203481.0	-2382.0	189935.0
29	17	33	32	875	54.0	-204972.0	-2165.0	194789.0
29	17	33	32	876	55.0	-206457.0	-1963.0	196833.0
29	17	33	32	876	56.0	-207949.0	-1764.0	198012.0
29	17	33	32	889	57.0	-209735.0	-1567.0	204433.0
29	17	33	32	889	58.0	-211348.0	-1361.0	207790.0
29	17	33	32	911	59.0	-213041.0	-1192.0	203033.0
29	17	33	32	912	60.0	-214996.0	-1018.0	190111.0
29	17	33	32	913	61.0	-216441.0	-800.0	177760.0
29	17	33	32	913	62.0	-217432.0	-615.0	176948.0
29	17	33	32	914	63.0	-218489.0	-446.0	182596.0
29	17	33	32	915	64.0	-218876.0	-290.0	189261.0
29	17	33	32	915	65.0	-217907.0	-124.0	192829.0
29	17	33	32	916	66.0	-214296.0	54.0	195825.0
29	17	33	32	916	67.0	-210446.0	220.0	204341.0
29	17	33	32	917	68.0	-211084.0	391.0	209884.0
29	17	33	32	918	69.0	-214235.0	538.0	205086.0
29	17	33	32	918	70.0	-217668.0	694.0	192853.0
29	17	33	32	919	71.0	-220477.0	850.0	179213.0
29	17	33	32	919	72.0	-222949.0	1021.0	178894.0
29	17	33	32	920	73.0	-221658.0	1159.0	186186.0
29	17	33	32	921	74.0	-217310.0	1311.0	191373.0
29	17	33	32	921	75.0	-211372.0	1455.0	196116.0
29	17	33	32	922	76.0	-205365.0	1618.0	198374.0
29	17	33	32	922	77.0	-199777.0	1781.0	206127.0
29	17	33	32	936	78.0	-193669.0	1948.0	211839.0
29	17	33	32	936	79.0	-187357.0	2104.0	207302.0
29	17	33	32	937	80.0	-182559.0	2241.0	195138.0
29	17	33	32	937	81.0	-179917.0	2398.0	184291.0
29	17	33	32	938	82.0	-179515.0	2536.0	185120.0
29	17	33	32	958	83.0	-180733.0	2669.0	192136.0
29	17	33	32	959	84.0	-183011.0	2818.0	197576.0
29	17	33	32	959	85.0	-186174.0	2938.0	201154.0
29	17	33	32	960	86.0	-188990.0	3046.0	204789.0
29	17	33	32	961	87.0	-190649.0	3156.0	212818.0
29	17	33	32	961	88.0	-191367.0	3272.0	217733.0
29	17	33	32	962	89.0	-190323.0	3394.0	212583.0
