29	17	52	43	667	81.0	-419516.0	-5981.0	-38559.0
29	17	52	43	670	82.0	-419725.0	-6664.0	-32940.0
29	17	52	43	672	83.0	-409751.0	-6994.0	-30219.0
29	17	52	43	674	84.0	-385344.0	-7938.0	-33864.0
29	17	52	43	676	85.0	-349051.0	-8065.0	-38634.0
29	17	52	43	677	86.0	-306130.0	-7481.0	-40871.0
29	17	52	43	679	87.0	-261451.0	-8070.0	-40431.0
29	17	52	43	681	88.0	-222358.0	-9335.0	-35444.0
29	17	52	43	682	89.0	-191546.0	-8900.0	-38860.0
29	17	52	43	684	90.0	-169518.0	-8888.0	-44487.0
29	17	52	43	686	91.0	-157662.0	-10917.0	-43592.0
29	17	52	43	688	92.0	-155737.0	-11961.0	-32251.0
29	17	52	43	689	93.0	-164117.0	-13719.0	-18664.0
29	17	52	43	691	94.0	-180494.0	-16659.0	-19820.0
29	17	52	43	693	95.0	-194746.0	-19516.0	-24573.0
29	17	52	43	694	96.0	-199829.0	-24217.0	-32014.0
29	17	52	43	695	97.0	-198164.0	-29203.0	-43556.0
29	17	52	43	696	98.0	-190253.0	-33909.0	-50350.0
29	17	52	43	697	99.0	-178795.0	-39227.0	-53722.0
29	17	52	43	698	100.0	-165969.0	-44048.0	-56484.0
29	17	52	43	699	101.0	-156108.0	-48104.0	-57814.0
29	17	52	43	700	102.0	-154151.0	-50747.0	-49801.0
29	17	52	43	701	103.0	-160374.0	-54525.0	-23136.0
29	17	52	43	749	104.0	-172497.0	-58232.0	-12201.0
29	17	52	43	777	105.0	-185647.0	-61998.0	-9283.0
29	17	52	43	779	106.0	-194712.0	-64793.0	-7070.0
29	17	52	43	780	107.0	-199713.0	-67373.0	-5251.0
29	17	52	43	781	108.0	-201552.0	-70872.0	-4531.0
29	17	52	43	782	109.0	-200062.0	-73906.0	-4369.0
29	17	52	43	784	110.0	-195773.0	-77269.0	-4112.0
29	17	52	43	785	111.0	-191918.0	-82776.0	-4381.0
29	17	52	43	786	112.0	-188241.0	-89777.0	-4820.0
29	17	52	43	787	113.0	-184756.0	-92031.0	-5959.0
29	17	52	43	789	114.0	-182647.0	-94097.0	-5439.0
29	17	52	43	790	115.0	-180771.0	-96056.0	-4931.0
29	17	52	43	791	116.0	-179164.0	-97893.0	-5389.0
29	17	52	43	793	117.0	-178766.0	-99974.0	-3387.0
29	17	52	43	795	118.0	-179186.0	-100439.0	-6902.0
29	17	52	43	797	122.0	-185770.0	-103142.0	-31052.0
29	17	52	43	798	144.0	-204576.0	-126052.0	4234.0
29	17	52	43	800	145.0	-202126.0	-126817.0	3924.0
29	17	52	43	801	146.0	-198268.0	-128256.0	2972.0
29	17	52	43	803	147.0	-193423.0	-129892.0	1624.0
29	17	52	43	805	148.0	-187341.0	-130859.0	531.0
29	17	52	43	807	149.0	-179908.0	-132012.0	102.0
29	17	52	43	808	150.0	-172774.0	-133567.0	80.0
29	17	52	43	822	151.0	-165399.0	-133536.0	-394.0
29	17	52	43	824	152.0	-158344.0	-131631.0	-1382.0
29	17	52	43	825	153.0	-152606.0	-132262.0	-2417.0
29	17	52	43	827	154.0	-147024.0	-133003.0	-3657.0
29	17	52	43	828	155.0	-141399.0	-131933.0	-4667.0
29	17	52	43	830	156.0	-135067.0	-128652.0	-5190.0
29	17	52	43	831	157.0	-128252.0	-129139.0	-6521.0
29	17	52	43	868	158.0	-120589.0	-129389.0	-7454.0
29	17	52	43	869	159.0	-113251.0	-129752.0	-7531.0
29	17	52	43	871	160.0	-106447.0	-131737.0	-8242.0
29	17	52	43	872	161.0	-100106.0	-137032.0	-9685.0
29	17	52	43	874	162.0	-93533.0	-138614.0	-10283.0
29	17	52	43	876	163.0	-85806.0	-138199.0	-10536.0
29	17	52	43	878	164.0	-77899.0	-137687.0	-11895.0
29	17	52	43	879	165.0	-70575.0	-136157.0	-13319.0
29	17	52	43	881	167.0	-56456.0	-135814.0	-15048.0
29	17	52	43	882	168.0	-52021.0	-135758.0	-16177.0
29	17	52	43	884	169.0	-49644.0	-136709.0	-16971.0
29	17	52	43	886	170.0	-47405.0	-137852.0	-17693.0
29	17	52	43	888	171.0	-45737.0	-137394.0	-18805.0
29	17	52	43	890	172.0	-45187.0	-137904.0	-20537.0
29	17	52	43	891	173.0	-45344.0	-140761.0	-21538.0
29	17	52	43	892	189.0	-136292.0	-165154.0	-6502.0
29	17	52	43	894	190.0	-146830.0	-168414.0	-6673.0
29	17	52	43	895	191.0	-156289.0	-170771.0	-7907.0
29	17	52	43	896	192.0	-165336.0	-172671.0	-9351.0
29	17	52	43	897	193.0	-173584.0	-174031.0	-11254.0
29	17	52	43	899	194.0	-180172.0	-175848.0	-13219.0
29	17	52	43	900	195.0	-185017.0	-178593.0	-15673.0
29	17	52	43	913	196.0	-188827.0	-180484.0	-18321.0
29	17	52	43	914	197.0	-190382.0	-181248.0	-20051.0
29	17	52	43	916	198.0	-191149.0	-173583.0	-18337.0
29	17	52	43	917	199.0	-191202.0	-148056.0	-17721.0
29	17	52	43	919	200.0	-190754.0	-131049.0	-18314.0
29	17	52	43	921	201.0	-190590.0	-125584.0	-18813.0
29	17	52	43	922	202.0	-189658.0	-119869.0	-19281.0
29	17	52	43	922	203.0	-188201.0	-115121.0	-19959.0
29	17	52	43	923	204.0	-185707.0	-114416.0	-20356.0
29	17	52	43	923	205.0	-181388.0	-110978.0	-21576.0
29	17	52	43	924	206.0	-175999.0	-101601.0	-22816.0
29	17	52	43	925	207.0	-169321.0	-97952.0	-23723.0
29	17	52	43	925	208.0	-162357.0	-103268.0	-24399.0
29	17	52	43	926	209.0	-156656.0	-109251.0	-24494.0
29	17	52	43	926	210.0	-149970.0	-114717.0	-26327.0
29	17	52	43	927	212.0	-136379.0	-125323.0	-31017.0
29	17	52	43	927	213.0	-130989.0	-129262.0	-33268.0
29	17	52	43	928	214.0	-127362.0	-132466.0	-34151.0
29	17	52	43	928	215.0	-124571.0	-136075.0	-34752.0
29	17	52	43	928	216.0	-122148.0	-139389.0	-35152.0
29	17	52	43	929	217.0	-119613.0	-142227.0	-36501.0
29	17	52	43	958	218.0	-115994.0	-143999.0	-36602.0
29	17	52	43	958	219.0	-108255.0	-145258.0	-38078.0
29	17	52	43	959	220.0	-97664.0	-145227.0	-39351.0
29	17	52	43	959	221.0	-87319.0	-145777.0	-40712.0
29	17	52	43	959	222.0	-81824.0	-148252.0	-42651.0
29	17	52	43	960	223.0	-85359.0	-150791.0	-46507.0
29	17	52	43	961	224.0	-92852.0	-151846.0	-51732.0
29	17	52	43	962	225.0	-104192.0	-149772.0	-55647.0
29	17	52	43	962	226.0	-116679.0	-151138.0	-58274.0
29	17	52	43	963	227.0	-126134.0	-152842.0	-59128.0
29	17	52	43	964	228.0	-133147.0	-154166.0	-60311.0
29	17	52	43	965	229.0	-140376.0	-153297.0	-60346.0
29	17	52	43	966	230.0	-143855.0	-156629.0	-60976.0
29	17	52	43	967	231.0	-143392.0	-159974.0	-58013.0
29	17	52	43	967	232.0	-139695.0	-160886.0	-35638.0
29	17	52	43	968	234.0	-126966.0	-166755.0	-50607.0
29	17	52	43	968	235.0	-120121.0	-169261.0	-58894.0
29	17	52	43	968	236.0	-115523.0	-171018.0	-61561.0
29	17	52	43	969	237.0	-111237.0	-173194.0	-63661.0
29	17	52	43	969	238.0	-106949.0	-174003.0	-61642.0
29	17	52	44	2	239.0	-101534.0	-173985.0	-49674.0
29	17	52	44	2	240.0	-95942.0	-174382.0	-42087.0
29	17	52	44	3	241.0	-88712.0	-175011.0	-41727.0
29	17	52	44	3	242.0	-78981.0	-174647.0	-43617.0
29	17	52	44	4	243.0	-67587.0	-172943.0	-44059.0
29	17	52	44	4	244.0	-55808.0	-172923.0	-43261.0
29	17	52	44	5	245.0	-46112.0	-164760.0	-37831.0
29	17	52	44	5	246.0	-38344.0	-136008.0	-36456.0
29	17	52	44	5	247.0	-32972.0	-125104.0	-38352.0
29	17	52	44	6	248.0	-30721.0	-123827.0	-40506.0
29	17	52	44	6	249.0	-29716.0	-120767.0	-41321.0
29	17	52	44	7	250.0	-27760.0	-119275.0	-42255.0
29	17	52	44	7	251.0	-24920.0	-118262.0	-42926.0
29	17	52	44	16	252.0	-22371.0	-120226.0	-40832.0
29	17	52	44	17	253.0	-19890.0	-123004.0	-22559.0
29	17	52	44	17	254.0	-18717.0	-125399.0	-13632.0
29	17	52	44	17	1.0	-15673.0	-132730.0	-25576.0
29	17	52	44	18	2.0	-16746.0	-135256.0	-30256.0
29	17	52	44	18	3.0	-19915.0	-136498.0	-33185.0
29	17	52	44	19	4.0	-21304.0	-134492.0	-36055.0
29	17	52	44	19	5.0	-23244.0	-133047.0	-38508.0
29	17	52	44	19	6.0	-26021.0	-130087.0	-38693.0
29	17	52	44	46	7.0	-29524.0	-124139.0	-39801.0
29	17	52	44	47	8.0	-32166.0	-116164.0	-43412.0
29	17	52	44	47	9.0	-34999.0	-100679.0	-47552.0
29	17	52	44	48	10.0	-38169.0	-91917.0	-49746.0
29	17	52	44	48	11.0	-41705.0	-93732.0	-50479.0
29	17	52	44	48	12.0	-46307.0	-96757.0	-51622.0
29	17	52	44	49	13.0	-49214.0	-98376.0	-52158.0
29	17	52	44	49	14.0	-50187.0	-99559.0	-52444.0
29	17	52	44	50	15.0	-50634.0	-95036.0	-54783.0
29	17	52	44	65	16.0	-52487.0	-87113.0	-58976.0
29	17	52	44	66	17.0	-52885.0	-80252.0	-67654.0
29	17	52	44	66	18.0	-50336.0	-76302.0	-72488.0
29	17	52	44	67	19.0	-48376.0	-75769.0	-74949.0
29	17	52	44	67	20.0	-49048.0	-76141.0	-73627.0
29	17	52	44	67	21.0	-47984.0	-73189.0	-50469.0
29	17	52	44	68	23.0	-47607.0	-69709.0	-64716.0
29	17	52	44	68	24.0	-48640.0	-74212.0	-55726.0
29	17	52	44	69	25.0	-49606.0	-71975.0	-36970.0
29	17	52	44	69	26.0	-50106.0	-68810.0	-34301.0
29	17	52	44	70	27.0	-50402.0	-68779.0	-35064.0
29	17	52	44	70	28.0	-51411.0	-68758.0	-35802.0
29	17	52	44	70	29.0	-51342.0	-68572.0	-37403.0
29	17	52	44	183	30.0	-54223.0	-66007.0	-42209.0
29	17	52	44	183	31.0	-58747.0	-65819.0	-53055.0
29	17	52	44	184	32.0	-63059.0	-63816.0	-64081.0
29	17	52	44	185	33.0	-68184.0	-50087.0	-68650.0
29	17	52	44	186	34.0	-74037.0	-40715.0	-69440.0
29	17	52	44	187	35.0	-79611.0	-41439.0	-70764.0
29	17	52	44	188	36.0	-84587.0	-42700.0	-73543.0
29	17	52	44	188	37.0	-89976.0	-44686.0	-75211.0
29	17	52	44	188	38.0	-93383.0	-49327.0	-76396.0
29	17	52	44	189	39.0	-95872.0	-53679.0	-77181.0
29	17	52	44	189	40.0	-96413.0	-57081.0	-78014.0
29	17	52	44	190	41.0	-97252.0	-60720.0	-73951.0
29	17	52	44	190	42.0	-97941.0	-62729.0	-67312.0
29	17	52	44	191	43.0	-99817.0	-56944.0	-69980.0
29	17	52	44	191	44.0	-101347.0	-52431.0	-75906.0
29	17	52	44	192	90.0	-257197.0	-64314.0	-49809.0
29	17	52	44	192	91.0	-256144.0	-65205.0	-50357.0
29	17	52	44	192	92.0	-255047.0	-65714.0	-52007.0
29	17	52	44	193	93.0	-253579.0	-66339.0	-51062.0
29	17	52	44	193	94.0	-252898.0	-65001.0	-41784.0
29	17	52	44	194	95.0	-252761.0	-61766.0	-33189.0
29	17	52	44	195	96.0	-251912.0	-60259.0	-33029.0
29	17	52	44	226	97.0	-251068.0	-58689.0	-34996.0
29	17	52	44	228	98.0	-250371.0	-57590.0	-37342.0
29	17	52	44	229	99.0	-249484.0	-56513.0	-39426.0
29	17	52	44	229	100.0	-247652.0	-52301.0	-42236.0
29	17	52	44	230	101.0	-245341.0	-52392.0	-44396.0
29	17	52	44	230	102.0	-243692.0	-52939.0	-46074.0
29	17	52	44	231	103.0	-242784.0	-52334.0	-47777.0
29	17	52	44	231	104.0	-241169.0	-49710.0	-49584.0
29	17	52	44	232	105.0	-239249.0	-48094.0	-51477.0
29	17	52	44	232	106.0	-237774.0	-47633.0	-52994.0
29	17	52	44	233	107.0	-236564.0	-47736.0	-55873.0
29	17	52	44	234	108.0	-235698.0	-49671.0	-58537.0
29	17	52	44	235	109.0	-235546.0	-50381.0	-59919.0
29	17	52	44	235	110.0	-235911.0	-50636.0	-61484.0
29	17	52	44	236	111.0	-238032.0	-53364.0	-63871.0
29	17	52	44	236	113.0	-244689.0	-44692.0	-66871.0
29	17	52	44	237	114.0	-248796.0	-41086.0	-67639.0
29	17	52	44	237	115.0	-251864.0	-40384.0	-68516.0
29	17	52	44	238	116.0	-253873.0	-39686.0	-68671.0
29	17	52	44	238	117.0	-254592.0	-36634.0	-69116.0
29	17	52	44	239	118.0	-254156.0	-33836.0	-69953.0
29	17	52	44	272	119.0	-252695.0	-33289.0	-69841.0
29	17	52	44	300	120.0	-251634.0	-33317.0	-69676.0
29	17	52	44	301	121.0	-250711.0	-34513.0	-70622.0
29	17	52	44	301	122.0	-248914.0	-31567.0	-70872.0
29	17	52	44	302	123.0	-246394.0	-23773.0	-70909.0
29	17	52	44	302	124.0	-244035.0	-19101.0	-71004.0
29	17	52	44	303	125.0	-241939.0	-18007.0	-70017.0
29	17	52	44	303	126.0	-240606.0	-15341.0	-70173.0
29	17	52	44	304	127.0	-241139.0	-8836.0	-70454.0
29	17	52	44	304	128.0	-242000.0	-10774.0	-71474.0
29	17	52	44	305	129.0	-243591.0	-13121.0	-71958.0
29	17	52	44	305	130.0	-245429.0	-15755.0	-71671.0
29	17	52	44	306	131.0	-246932.0	-15839.0	-71134.0
29	17	52	44	306	132.0	-248269.0	-11700.0	-73494.0
29	17	52	44	306	133.0	-248310.0	-9557.0	-75519.0
29	17	52	44	307	135.0	-245722.0	-7467.0	-52321.0
29	17	52	44	307	136.0	-243048.0	-7137.0	-51206.0
29	17	52	44	308	137.0	-239298.0	-6951.0	-51918.0
29	17	52	44	308	138.0	-234081.0	-6347.0	-54481.0
29	17	52	44	309	139.0	-227624.0	-7197.0	-58558.0
29	17	52	44	309	140.0	-220702.0	-7861.0	-64144.0
29	17	52	44	310	141.0	-213837.0	-7719.0	-71540.0
29	17	52	44	320	142.0	-206709.0	-8894.0	-78704.0
29	17	52	44	320	143.0	-199523.0	-7511.0	-86672.0
29	17	52	44	321	144.0	-192566.0	-7040.0	-94014.0
29	17	52	44	321	145.0	-186171.0	-6887.0	-98976.0
29	17	52	44	322	146.0	-180524.0	-4289.0	-103156.0
29	17	52	44	323	147.0	-175331.0	-3712.0	-105645.0
29	17	52	44	323	148.0	-171028.0	-3711.0	-107136.0
29	17	52	44	324	149.0	-167863.0	-3231.0	-108371.0
29	17	52	44	324	150.0	-165168.0	-3986.0	-107713.0
29	17	52	44	325	151.0	-163916.0	-4945.0	-105167.0
29	17	52	44	325	152.0	-163342.0	-4745.0	-103704.0
29	17	52	44	326	153.0	-163596.0	-4029.0	-102659.0
29	17	52	44	326	154.0	-164892.0	-4464.0	-101736.0
29	17	52	44	327	155.0	-167155.0	-4954.0	-99222.0
29	17	52	44	328	156.0	-171071.0	-4561.0	-96513.0
29	17	52	44	328	158.0	-181471.0	-5825.0	-91897.0
29	17	52	44	329	159.0	-188592.0	-6729.0	-92135.0
29	17	52	44	329	160.0	-196891.0	-8558.0	-93637.0
29	17	52	44	330	161.0	-205862.0	-6886.0	-91524.0
29	17	52	44	330	162.0	-215616.0	-6472.0	-89479.0
29	17	52	44	331	163.0	-224972.0	-6187.0	-88011.0
29	17	52	44	362	164.0	-233534.0	-5881.0	-87044.0
29	17	52	44	363	165.0	-241436.0	-5926.0	-91414.0
29	17	52	44	363	166.0	-249245.0	-6204.0	-91192.0
29	17	52	44	364	167.0	-257406.0	-6360.0	-92566.0
29	17	52	44	364	168.0	-265064.0	-6354.0	-90596.0
29	17	52	44	365	169.0	-272886.0	-7158.0	-88372.0
29	17	52	44	365	170.0	-281706.0	-9146.0	-92315.0
29	17	52	44	366	171.0	-290727.0	-9174.0	-96621.0
29	17	52	44	366	172.0	-298804.0	-9909.0	-97597.0
29	17	52	44	367	173.0	-305447.0	-10137.0	-93706.0
29	17	52	44	367	174.0	-309999.0	-10497.0	-94545.0
29	17	52	44	368	175.0	-311038.0	-10764.0	-95010.0
29	17	52	44	368	176.0	-305925.0	-10551.0	-90787.0
29	17	52	44	369	177.0	-292837.0	-11020.0	-93001.0
29	17	52	44	369	178.0	-267573.0	-13667.0	-101387.0
29	17	52	44	370	180.0	-190780.0	-11375.0	-114322.0
29	17	52	44	370	181.0	-150006.0	-11202.0	-120001.0
29	17	52	44	371	182.0	-118910.0	-11111.0	-121477.0
29	17	52	44	371	183.0	-105452.0	-11281.0	-116704.0
29	17	52	44	372	184.0	-102862.0	-11652.0	-115576.0
29	17	52	44	372	185.0	-105906.0	-13214.0	-106159.0
29	17	52	44	407	186.0	-112486.0	-13438.0	-100767.0
29	17	52	44	408	187.0	-121409.0	-12475.0	-104675.0
29	17	52	44	409	188.0	-131995.0	-10565.0	-111785.0
29	17	52	44	409	189.0	-142549.0	-9679.0	-115070.0
29	17	52	44	410	190.0	-150355.0	-9206.0	-113467.0
29	17	52	44	410	191.0	-153306.0	-11042.0	-113159.0
29	17	52	44	411	192.0	-151819.0	-12587.0	-113199.0
29	17	52	44	411	193.0	-148101.0	-13860.0	-111260.0
29	17	52	44	413	194.0	-144009.0	-12363.0	-107434.0
29	17	52	44	414	195.0	-141419.0	-11101.0	-100895.0
29	17	52	44	415	196.0	-142037.0	-10559.0	-102225.0
29	17	52	44	416	197.0	-145801.0	-9175.0	-105698.0
29	17	52	44	416	198.0	-152071.0	-10115.0	-110831.0
29	17	52	44	417	199.0	-160389.0	-11070.0	-114106.0
29	17	52	44	417	200.0	-168547.0	-11034.0	-108841.0
29	17	52	44	418	203.0	-185296.0	-9905.0	-126607.0
29	17	52	44	418	204.0	-187333.0	-10172.0	-133601.0
29	17	52	44	419	205.0	-188731.0	-10300.0	-130834.0
29	17	52	44	419	206.0	-189815.0	-10721.0	-129797.0
29	17	52	44	420	207.0	-191049.0	-11256.0	-132482.0
29	17	52	44	420	208.0	-192935.0	-12354.0	-134464.0
29	17	52	44	452	209.0	-195476.0	-11023.0	-133642.0
29	17	52	44	453	210.0	-198517.0	-10823.0	-133106.0
29	17	52	44	454	211.0	-202127.0	-11311.0	-132656.0
29	17	52	44	454	212.0	-205957.0	-10728.0	-126555.0
29	17	52	44	455	213.0	-209402.0	-10257.0	-126138.0
29	17	52	44	456	214.0	-212813.0	-11112.0	-129686.0
29	17	52	44	456	215.0	-216432.0	-11667.0	-130709.0
29	17	52	44	457	216.0	-219517.0	-11697.0	-126889.0
29	17	52	44	458	217.0	-221832.0	-11366.0	-123131.0
29	17	52	44	459	218.0	-223646.0	-11260.0	-118322.0
29	17	52	44	459	219.0	-224497.0	-11097.0	-114809.0
29	17	52	44	460	220.0	-224296.0	-10793.0	-114191.0
29	17	52	44	461	221.0	-223630.0	-10608.0	-114466.0
29	17	52	44	461	222.0	-222308.0	-10451.0	-112277.0
29	17	52	44	462	223.0	-220492.0	-10429.0	-110934.0
29	17	52	44	462	225.0	-216249.0	-11064.0	-112531.0
29	17	52	44	463	226.0	-214364.0	-11128.0	-111764.0
29	17	52	44	463	227.0	-212884.0	-12536.0	-111318.0
29	17	52	44	464	228.0	-211380.0	-13738.0	-111654.0
29	17	52	44	464	229.0	-209896.0	-11358.0	-109077.0
29	17	52	44	465	230.0	-208460.0	-10319.0	-104306.0
29	17	52	44	496	231.0	-206994.0	-10984.0	-102919.0
29	17	52	44	497	232.0	-205418.0	-12234.0	-106290.0
29	17	52	44	498	233.0	-204059.0	-12541.0	-108041.0
29	17	52	44	498	234.0	-202802.0	-12380.0	-103200.0
29	17	52	44	499	235.0	-201444.0	-12484.0	-93021.0
29	17	52	44	500	236.0	-200124.0	-12531.0	-93028.0
29	17	52	44	500	237.0	-198507.0	-13186.0	-99703.0
29	17	52	44	501	238.0	-196761.0	-14051.0	-109783.0
29	17	52	44	501	239.0	-195391.0	-13155.0	-115617.0
29	17	52	44	502	240.0	-194293.0	-12530.0	-118072.0
29	17	52	44	503	241.0	-193031.0	-12567.0	-118432.0
29	17	52	44	504	242.0	-191887.0	-12434.0	-118638.0
29	17	52	44	505	243.0	-191281.0	-11892.0	-119944.0
29	17	52	44	505	244.0	-190657.0	-10749.0	-120024.0
29	17	52	44	506	245.0	-190039.0	-11227.0	-118869.0
29	17	52	44	506	247.0	-189464.0	-11717.0	-117816.0
29	17	52	44	507	248.0	-189431.0	-13157.0	-116742.0
29	17	52	44	508	249.0	-189736.0	-12662.0	-113684.0
29	17	52	44	508	250.0	-190134.0	-12563.0	-114602.0
29	17	52	44	509	251.0	-190552.0	-12238.0	-117769.0
29	17	52	44	509	252.0	-190837.0	-11374.0	-119631.0
29	17	52	44	510	253.0	-191033.0	-11604.0	-121625.0
29	17	52	44	542	254.0	-191302.0	-11327.0	-121739.0
29	17	52	44	542	255.0	-194246.0	-12517.0	-120787.0
29	17	52	44	543	0.0	-194191.0	-12392.0	-124399.0
29	17	52	44	544	1.0	-193556.0	-12023.0	-124794.0
29	17	52	44	544	2.0	-193539.0	-12015.0	-124429.0
29	17	52	44	545	3.0	-194534.0	-11926.0	-122041.0
29	17	52	44	546	4.0	-196096.0	-11796.0	-122382.0
29	17	52	44	546	5.0	-197962.0	-12470.0	-127888.0
29	17	52	44	547	6.0	-199631.0	-11906.0	-131751.0
29	17	52	44	548	7.0	-201434.0	-12031.0	-133253.0
29	17	52	44	548	8.0	-203061.0	-11354.0	-126582.0
29	17	52	44	549	9.0	-204639.0	-11629.0	-102574.0
29	17	52	44	549	10.0	-206576.0	-11043.0	-94409.0
29	17	52	44	550	11.0	-208584.0	-10642.0	-92602.0
29	17	52	44	551	12.0	-210471.0	-11514.0	-92299.0
29	17	52	44	551	14.0	-213557.0	-10710.0	-93510.0
29	17	52	44	552	15.0	-214882.0	-10656.0	-94836.0
29	17	52	44	552	16.0	-216124.0	-10758.0	-97111.0
29	17	52	44	553	17.0	-217372.0	-10934.0	-98957.0
29	17	52	44	554	18.0	-218499.0	-10743.0	-100479.0
29	17	52	44	554	19.0	-219542.0	-10183.0	-100196.0
29	17	52	44	587	20.0	-220478.0	-10022.0	-98477.0
29	17	52	44	588	21.0	-221389.0	-10298.0	-97575.0
29	17	52	44	589	22.0	-222059.0	-10260.0	-97380.0
29	17	52	44	590	23.0	-222552.0	-10490.0	-97309.0
29	17	52	44	591	24.0	-223176.0	-10666.0	-98811.0
29	17	52	44	592	25.0	-223799.0	-10776.0	-100061.0
29	17	52	44	592	26.0	-224186.0	-10395.0	-100919.0
29	17	52	44	593	27.0	-224551.0	-9991.0	-101754.0
29	17	52	44	593	28.0	-224958.0	-9856.0	-102372.0
29	17	52	44	632	29.0	-225240.0	-10042.0	-102934.0
29	17	52	44	633	30.0	-225322.0	-9959.0	-103768.0
29	17	52	44	634	31.0	-225534.0	-9618.0	-104600.0
29	17	52	44	635	32.0	-225730.0	-9477.0	-105041.0
29	17	52	44	636	33.0	-225903.0	-9518.0	-105436.0
29	17	52	44	637	34.0	-225949.0	-9085.0	-105916.0
29	17	52	44	638	36.0	-226172.0	-9232.0	-108530.0
29	17	52	44	639	37.0	-226270.0	-8856.0	-110220.0
29	17	52	44	640	38.0	-226304.0	-8492.0	-111951.0
29	17	52	44	641	39.0	-226312.0	-8562.0	-114222.0
29	17	52	44	642	40.0	-226371.0	-8160.0	-115844.0
29	17	52	44	643	41.0	-226296.0	-8706.0	-117549.0
29	17	52	44	644	42.0	-226231.0	-8270.0	-119862.0
29	17	52	44	644	43.0	-226215.0	-7981.0	-122396.0
29	17	52	44	645	44.0	-226179.0	-8179.0	-124369.0
29	17	52	44	645	59.0	-225831.0	-7241.0	-144569.0
29	17	52	44	646	60.0	-227317.0	-5802.0	-144847.0
29	17	52	44	647	61.0	-228801.0	-5921.0	-144922.0
29	17	52	44	647	62.0	-230189.0	-6034.0	-144922.0
29	17	52	44	648	63.0	-230952.0	-5754.0	-145251.0
29	17	52	44	648	64.0	-231161.0	-5744.0	-145679.0
29	17	52	44	676	65.0	-230968.0	-5276.0	-145827.0
29	17	52	44	677	66.0	-230353.0	-5279.0	-146025.0
29	17	52	44	678	67.0	-229628.0	-4852.0	-146331.0
29	17	52	44	679	68.0	-229031.0	-4834.0	-146132.0
29	17	52	44	679	69.0	-228635.0	-4464.0	-146969.0
29	17	52	44	680	70.0	-228490.0	-4581.0	-147800.0
29	17	52	44	681	71.0	-228826.0	-4369.0	-146745.0
29	17	52	44	682	72.0	-228926.0	-3922.0	-146068.0
29	17	52	44	682	73.0	-228734.0	-3847.0	-146521.0
29	17	52	44	683	74.0	-228435.0	-2913.0	-147276.0
29	17	52	44	685	75.0	-227924.0	-2698.0	-147936.0
29	17	52	44	685	76.0	-227462.0	-4004.0	-149850.0
29	17	52	44	686	77.0	-227207.0	-4117.0	-151857.0
29	17	52	44	687	78.0	-227109.0	-3591.0	-152122.0
29	17	52	44	721	79.0	-227249.0	-3061.0	-153699.0
29	17	52	44	722	81.0	-227962.0	-2559.0	-150046.0
29	17	52	44	723	82.0	-228447.0	-2474.0	-153677.0
29	17	52	44	724	83.0	-228915.0	-2527.0	-158959.0
29	17	52	44	725	84.0	-229247.0	-2289.0	-162524.0
29	17	52	44	725	85.0	-229303.0	-2397.0	-165214.0
29	17	52	44	726	86.0	-229196.0	-2296.0	-166861.0
29	17	52	44	727	87.0	-228961.0	-1965.0	-168406.0
29	17	52	44	728	88.0	-228757.0	-1500.0	-167863.0
29	17	52	44	728	89.0	-228727.0	-1584.0	-167153.0
29	17	52	44	729	90.0	-229001.0	-1574.0	-168165.0
29	17	52	44	730	91.0	-229537.0	-1476.0	-170122.0
29	17	52	44	731	92.0	-230260.0	-1768.0	-172075.0
29	17	52	44	731	93.0	-231102.0	-1098.0	-173007.0
29	17	52	44	732	94.0	-231866.0	622.0	-174467.0
29	17	52	44	733	95.0	-232617.0	-965.0	-176128.0
29	17	52	44	733	104.0	-235089.0	116.0	-180550.0
29	17	52	44	734	105.0	-235481.0	113.0	-181542.0
29	17	52	44	734	106.0	-235701.0	269.0	-183068.0
29	17	52	44	735	107.0	-235813.0	731.0	-179786.0
29	17	52	44	736	108.0	-235925.0	599.0	-177851.0
29	17	52	44	737	109.0	-235895.0	593.0	-180279.0
29	17	52	44	767	110.0	-235881.0	614.0	-183019.0
29	17	52	44	768	111.0	-235868.0	613.0	-186149.0
29	17	52	44	768	112.0	-235802.0	338.0	-187309.0
29	17	52	44	769	113.0	-235751.0	863.0	-188272.0
29	17	52	44	770	114.0	-235757.0	2078.0	-189764.0
29	17	52	44	771	115.0	-235727.0	1442.0	-188924.0
29	17	52	44	772	116.0	-235574.0	1808.0	-184036.0
29	17	52	44	772	117.0	-235384.0	1570.0	-181150.0
29	17	52	44	773	118.0	-235292.0	1531.0	-180966.0
29	17	52	44	774	119.0	-235189.0	783.0	-183237.0
29	17	52	44	774	120.0	-235166.0	1005.0	-185131.0
29	17	52	44	775	121.0	-234971.0	2021.0	-184295.0
29	17	52	44	776	122.0	-234697.0	2485.0	-184691.0
29	17	52	44	777	123.0	-234394.0	1806.0	-186004.0
29	17	52	44	777	124.0	-234171.0	748.0	-180472.0
29	17	52	44	778	126.0	-234145.0	559.0	-182180.0
29	17	52	44	779	127.0	-234089.0	166.0	-186899.0
29	17	52	44	780	128.0	-234055.0	1823.0	-188909.0
29	17	52	44	780	129.0	-234346.0	1532.0	-191732.0
29	17	52	44	781	130.0	-234712.0	1806.0	-192215.0
29	17	52	44	782	131.0	-235167.0	1504.0	-194211.0
29	17	52	44	782	132.0	-235604.0	828.0	-194684.0
29	17	52	44	812	133.0	-236007.0	1777.0	-194636.0
29	17	52	44	813	134.0	-236265.0	2003.0	-190266.0
29	17	52	44	813	135.0	-236591.0	3629.0	-188596.0
29	17	52	44	814	136.0	-237076.0	2519.0	-189803.0
29	17	52	44	815	137.0	-237371.0	1398.0	-190766.0
29	17	52	44	816	138.0	-237693.0	2236.0	-193649.0
29	17	52	44	817	139.0	-238027.0	2485.0	-195026.0
29	17	52	44	817	140.0	-238314.0	2039.0	-197072.0
29	17	52	44	818	141.0	-238484.0	3614.0	-197209.0
29	17	52	44	819	142.0	-238624.0	2730.0	-193387.0
29	17	52	44	820	143.0	-238713.0	2223.0	-187099.0
29	17	52	44	821	144.0	-238627.0	2613.0	-187755.0
29	17	52	44	821	145.0	-238547.0	2594.0	-189991.0
29	17	52	44	822	146.0	-238566.0	3096.0	-190391.0
29	17	52	44	823	147.0	-238657.0	3154.0	-194032.0
29	17	52	44	824	148.0	-238747.0	3344.0	-194915.0
29	17	52	44	825	149.0	-238852.0	3214.0	-195988.0
29	17	52	44	825	150.0	-238866.0	2617.0	-195957.0
29	17	52	44	826	151.0	-238688.0	2598.0	-196561.0
29	17	52	44	827	152.0	-238482.0	2342.0	-198074.0
29	17	52	44	827	153.0	-238070.0	3233.0	-199026.0
29	17	52	44	828	154.0	-237650.0	3648.0	-197863.0
29	17	52	44	829	155.0	-237187.0	3368.0	-198997.0
29	17	52	44	858	156.0	-236468.0	3285.0	-199302.0
29	17	52	44	859	157.0	-235729.0	3543.0	-200294.0
29	17	52	44	860	158.0	-235036.0	3739.0	-200196.0
29	17	52	44	860	159.0	-234433.0	3442.0	-197416.0
29	17	52	44	861	160.0	-233878.0	3823.0	-193909.0
29	17	52	44	862	161.0	-233332.0	4622.0	-193359.0
29	17	52	44	863	162.0	-232946.0	3666.0	-194491.0
29	17	52	44	864	163.0	-232657.0	3176.0	-193896.0
29	17	52	44	865	164.0	-232527.0	1859.0	-193804.0
29	17	52	44	866	165.0	-232426.0	3296.0	-196198.0
29	17	52	44	867	166.0	-232427.0	3577.0	-197153.0
29	17	52	44	867	167.0	-232479.0	3256.0	-196114.0
29	17	52	44	868	168.0	-232466.0	2881.0	-198276.0
29	17	52	44	869	169.0	-232287.0	3087.0	-196927.0
29	17	52	44	870	170.0	-232129.0	3357.0	-190353.0
29	17	52	44	870	171.0	-232176.0	2900.0	-188903.0
29	17	52	44	871	172.0	-231737.0	2953.0	-191799.0
29	17	52	44	872	173.0	-231384.0	3857.0	-194112.0
29	17	52	44	872	174.0	-231163.0	4096.0	-193620.0
29	17	52	44	873	175.0	-231179.0	3970.0	-194671.0
29	17	52	44	874	176.0	-231142.0	3693.0	-198401.0
29	17	52	44	903	177.0	-231252.0	3951.0	-199262.0
29	17	52	44	904	178.0	-231376.0	3633.0	-198066.0
29	17	52	44	905	179.0	-231719.0	3721.0	-200137.0
29	17	52	44	906	180.0	-232091.0	3610.0	-200859.0
29	17	52	44	907	181.0	-232423.0	3916.0	-200260.0
29	17	52	44	908	182.0	-232955.0	4074.0	-200245.0
29	17	52	44	909	183.0	-233556.0	3936.0	-192543.0
29	17	52	44	911	184.0	-233969.0	4029.0	-189014.0
29	17	52	44	912	185.0	-234436.0	3811.0	-190757.0
29	17	52	44	912	186.0	-235076.0	3637.0	-192562.0
29	17	52	44	913	187.0	-235657.0	3716.0	-193339.0
29	17	52	44	914	188.0	-236004.0	3443.0	-194978.0
29	17	52	44	915	189.0	-236345.0	3428.0	-196463.0
29	17	52	44	916	190.0	-236787.0	3476.0	-196051.0
29	17	52	44	916	191.0	-237159.0	3494.0	-196564.0
29	17	52	44	917	193.0	-237454.0	3271.0	-195114.0
29	17	52	44	918	194.0	-237591.0	3023.0	-196105.0
29	17	52	44	919	195.0	-237751.0	2798.0	-197366.0
29	17	52	44	919	196.0	-237892.0	3209.0	-197142.0
29	17	52	44	920	197.0	-237699.0	3679.0	-196677.0
29	17	52	44	921	198.0	-237407.0	3605.0	-196311.0
29	17	52	44	922	199.0	-236885.0	3397.0	-192947.0
29	17	52	44	947	200.0	-236178.0	3650.0	-192994.0
29	17	52	44	948	201.0	-235369.0	3711.0	-192327.0
29	17	52	44	949	202.0	-234389.0	3442.0	-192880.0
29	17	52	44	950	203.0	-233468.0	3512.0	-195738.0
29	17	52	44	951	204.0	-232536.0	3641.0	-194759.0
29	17	52	44	952	205.0	-231564.0	3835.0	-195276.0
29	17	52	44	953	206.0	-230531.0	3679.0	-195657.0
29	17	52	44	954	207.0	-229618.0	3767.0	-195683.0
29	17	52	44	955	208.0	-228756.0	3881.0	-195777.0
29	17	52	44	956	209.0	-227820.0	3888.0	-192854.0
29	17	52	44	957	210.0	-226956.0	3553.0	-191070.0
29	17	52	44	958	211.0	-226052.0	3546.0	-187373.0
29	17	52	44	959	212.0	-225125.0	3374.0	-186448.0
29	17	52	44	960	213.0	-224379.0	3101.0	-189240.0
29	17	52	44	960	214.0	-223502.0	3272.0	-188718.0
29	17	52	44	961	216.0	-221815.0	2841.0	-189967.0
29	17	52	44	962	217.0	-220706.0	3341.0	-189776.0
29	17	52	44	962	218.0	-219732.0	2571.0	-191716.0
29	17	52	44	963	219.0	-218897.0	3456.0	-193456.0
29	17	52	44	964	220.0	-218394.0	3716.0	-193355.0
29	17	52	44	965	221.0	-218057.0	3913.0	-195283.0
29	17	52	44	993	222.0	-217867.0	3456.0	-196020.0
29	17	52	44	994	223.0	-217907.0	3608.0	-195722.0
29	17	52	44	995	224.0	-218106.0	2958.0	-197827.0
29	17	52	44	996	225.0	-218236.0	2991.0	-197219.0
29	17	52	44	997	226.0	-218526.0	3134.0	-198903.0
29	17	52	44	998	227.0	-218887.0	2748.0	-201777.0
29	17	52	44	999	228.0	-219384.0	2683.0	-204114.0
29	17	52	45	0	229.0	-219956.0	3554.0	-203585.0
29	17	52	45	1	230.0	-220285.0	3385.0	-197312.0
29	17	52	45	1	231.0	-220490.0	3250.0	-195216.0
29	17	52	45	2	232.0	-220789.0	2733.0	-192096.0
29	17	52	45	3	233.0	-221068.0	2855.0	-187121.0
29	17	52	45	4	234.0	-221206.0	2376.0	-184219.0
29	17	52	45	5	235.0	-221346.0	2146.0	-182040.0
29	17	52	45	6	236.0	-221543.0	2307.0	-179332.0
29	17	52	45	6	238.0	-222236.0	2599.0	-180575.0
29	17	52	45	7	239.0	-222864.0	2532.0	-180591.0
29	17	52	45	8	240.0	-223477.0	1661.0	-180936.0
29	17	52	45	9	241.0	-223907.0	1198.0	-179231.0
29	17	52	45	9	242.0	-224423.0	2043.0	-178663.0
29	17	52	45	10	243.0	-225040.0	2568.0	-182184.0
29	17	52	45	11	244.0	-225767.0	3138.0	-183650.0
29	17	52	45	36	245.0	-226484.0	3014.0	-184529.0
29	17	52	45	38	246.0	-227071.0	3163.0	-186392.0
29	17	52	45	39	247.0	-227704.0	3258.0	-189520.0
29	17	52	45	40	248.0	-228217.0	3291.0	-194047.0
29	17	52	45	40	249.0	-228649.0	4449.0	-194402.0
29	17	52	45	41	250.0	-229022.0	2633.0	-195799.0
29	17	52	45	42	251.0	-229268.0	1565.0	-197649.0
29	17	52	45	43	252.0	-229257.0	1943.0	-197256.0
29	17	52	45	44	253.0	-228543.0	3837.0	-198687.0
29	17	52	45	45	254.0	-226694.0	3348.0	-197569.0
29	17	52	45	46	255.0	-224091.0	2663.0	-197362.0
29	17	52	45	47	0.0	-221044.0	2735.0	-197030.0
29	17	52	45	48	1.0	-217949.0	2574.0	-197284.0
29	17	52	45	48	2.0	-215583.0	2219.0	-200248.0
29	17	52	45	49	3.0	-214279.0	2083.0	-201375.0
29	17	52	45	50	5.0	-214964.0	1702.0	-202971.0
29	17	52	45	51	6.0	-216965.0	1337.0	-203209.0
29	17	52	45	51	7.0	-218746.0	241.0	-204348.0
29	17	52	45	52	8.0	-220522.0	519.0	-203416.0
29	17	52	45	53	9.0	-222444.0	753.0	-202848.0
29	17	52	45	53	10.0	-224099.0	150.0	-203153.0
29	17	52	45	82	11.0	-224776.0	2580.0	-202026.0
29	17	52	45	84	12.0	-224445.0	2016.0	-191939.0
29	17	52	45	84	13.0	-223199.0	1059.0	-181221.0
29	17	52	45	85	14.0	-221672.0	1193.0	-180015.0
29	17	52	45	86	15.0	-220648.0	2366.0	-180038.0
29	17	52	45	87	16.0	-220392.0	1883.0	-180617.0
29	17	52	45	88	17.0	-220667.0	766.0	-180752.0
29	17	52	45	89	18.0	-221436.0	-99.0	-181829.0
29	17	52	45	90	19.0	-222294.0	397.0	-184164.0
29	17	52	45	91	20.0	-222857.0	486.0	-184501.0
29	17	52	45	92	21.0	-223122.0	1094.0	-186240.0
29	17	52	45	92	22.0	-223119.0	903.0	-186564.0
29	17	52	45	93	23.0	-223012.0	1196.0	-188862.0
29	17	52	45	94	24.0	-223014.0	1281.0	-190647.0
29	17	52	45	95	25.0	-222909.0	1529.0	-190182.0
29	17	52	45	95	27.0	-222572.0	1253.0	-197205.0
29	17	52	45	96	28.0	-222482.0	1409.0	-199282.0
29	17	52	45	97	29.0	-222417.0	1236.0	-202924.0
29	17	52	45	97	30.0	-222316.0	973.0	-203507.0
29	17	52	45	98	31.0	-222380.0	860.0	-204656.0
29	17	52	45	99	32.0	-222689.0	981.0	-204489.0
29	17	52	45	100	33.0	-223331.0	1022.0	-205840.0
29	17	52	45	128	34.0	-224125.0	913.0	-203201.0
29	17	52	45	129	35.0	-225286.0	951.0	-198639.0
29	17	52	45	130	36.0	-226736.0	981.0	-196566.0
29	17	52	45	131	37.0	-228309.0	885.0	-195621.0
29	17	52	45	132	38.0	-229948.0	679.0	-197910.0
29	17	52	45	132	39.0	-231723.0	661.0	-200696.0
29	17	52	45	133	40.0	-233131.0	879.0	-203428.0
29	17	52	45	134	41.0	-234336.0	706.0	-204850.0
29	17	52	45	135	42.0	-235466.0	733.0	-204245.0
29	17	52	45	136	43.0	-236312.0	629.0	-205947.0
29	17	52	45	137	44.0	-236757.0	603.0	-200402.0
29	17	52	45	138	45.0	-237066.0	490.0	-198052.0
29	17	52	45	138	46.0	-237290.0	466.0	-199766.0
29	17	52	45	139	47.0	-237124.0	389.0	-203464.0
29	17	52	45	140	48.0	-236651.0	379.0	-204947.0
29	17	52	45	140	50.0	-235185.0	261.0	-206366.0
29	17	52	45	141	51.0	-234391.0	382.0	-202671.0
29	17	52	45	142	52.0	-233397.0	374.0	-201603.0
29	17	52	45	142	53.0	-232391.0	292.0	-200907.0
29	17	52	45	143	54.0	-231196.0	168.0	-202296.0
29	17	52	45	144	55.0	-230079.0	122.0	-205455.0
29	17	52	45	173	56.0	-229132.0	226.0	-208304.0
29	17	52	45	174	57.0	-228176.0	157.0	-208594.0
29	17	52	45	175	58.0	-227179.0	82.0	-209719.0
29	17	52	45	176	59.0	-226139.0	51.0	-207352.0
29	17	52	45	176	60.0	-225090.0	-17.0	-200419.0
29	17	52	45	177	61.0	-223835.0	-109.0	-199076.0
29	17	52	45	178	62.0	-222527.0	-334.0	-200876.0
29	17	52	45	179	63.0	-220694.0	-252.0	-203812.0
29	17	52	45	180	64.0	-218812.0	-216.0	-206582.0
29	17	52	45	181	65.0	-216891.0	-243.0	-208057.0
29	17	52	45	182	66.0	-215154.0	-281.0	-210319.0
29	17	52	45	182	67.0	-213608.0	-276.0	-210557.0
29	17	52	45	183	68.0	-212227.0	-263.0	-208647.0
29	17	52	45	184	69.0	-211022.0	-291.0	-208224.0
29	17	52	45	185	70.0	-210074.0	-224.0	-204269.0
29	17	52	45	185	72.0	-208525.0	-478.0	-204876.0
29	17	52	45	186	73.0	-207487.0	-42.0	-205346.0
29	17	52	45	187	74.0	-206682.0	-27.0	-205619.0
29	17	52	45	188	75.0	-206426.0	-41.0	-207616.0
29	17	52	45	188	76.0	-206504.0	-14.0	-208363.0
29	17	52	45	189	77.0	-206668.0	59.0	-203978.0
29	17	52	45	217	78.0	-206814.0	145.0	-202839.0
29	17	52	45	218	79.0	-207183.0	188.0	-204516.0
29	17	52	45	219	80.0	-207686.0	254.0	-204104.0
29	17	52	45	220	81.0	-208542.0	423.0	-205739.0
29	17	52	45	221	82.0	-209613.0	423.0	-206442.0
29	17	52	45	222	83.0	-210697.0	589.0	-203934.0
29	17	52	45	223	84.0	-211693.0	586.0	-201737.0
29	17	52	45	224	85.0	-212653.0	803.0	-202231.0
29	17	52	45	225	86.0	-213643.0	973.0	-205966.0
29	17	52	45	226	87.0	-214632.0	1065.0	-207270.0
29	17	52	45	226	88.0	-215655.0	1183.0	-209113.0
29	17	52	45	227	89.0	-216491.0	1274.0	-208529.0
29	17	52	45	228	90.0	-217250.0	1484.0	-203714.0
29	17	52	45	229	91.0	-217835.0	1551.0	-202244.0
29	17	52	45	229	92.0	-218363.0	1713.0	-203207.0
29	17	52	45	230	94.0	-218820.0	1998.0	-202072.0
29	17	52	45	231	95.0	-218832.0	2142.0	-202334.0
29	17	52	45	232	96.0	-218906.0	2356.0	-201907.0
29	17	52	45	232	97.0	-219136.0	2449.0	-200502.0
29	17	52	45	233	98.0	-219411.0	2612.0	-202471.0
29	17	52	45	234	99.0	-219713.0	2858.0	-203614.0
29	17	52	45	234	100.0	-220114.0	3003.0	-204875.0
29	17	52	45	262	101.0	-220517.0	2848.0	-204155.0
29	17	52	45	263	102.0	-220857.0	3173.0	-203920.0
29	17	52	45	264	103.0	-221193.0	3601.0	-202616.0
29	17	52	45	265	104.0	-221376.0	3754.0	-205446.0
29	17	52	45	266	105.0	-221367.0	3874.0	-205383.0
29	17	52	45	267	106.0	-221272.0	4071.0	-203397.0
29	17	52	45	268	107.0	-220871.0	4191.0	-202466.0
29	17	52	45	268	108.0	-220246.0	4414.0	-203724.0
29	17	52	45	269	109.0	-219529.0	4588.0	-205521.0
29	17	52	45	270	110.0	-218949.0	4784.0	-203767.0
29	17	52	45	271	111.0	-218538.0	4920.0	-199956.0
29	17	52	45	272	112.0	-218301.0	5053.0	-199950.0
29	17	52	45	273	113.0	-218191.0	5316.0	-201872.0
29	17	52	45	273	114.0	-218321.0	5565.0	-204549.0
29	17	52	45	274	115.0	-218699.0	5615.0	-205892.0
29	17	52	45	275	117.0	-219844.0	5849.0	-202831.0
29	17	52	45	275	118.0	-220497.0	6008.0	-202132.0
29	17	52	45	276	119.0	-221164.0	6084.0	-205960.0
29	17	52	45	277	120.0	-221804.0	6302.0	-206387.0
29	17	52	45	277	121.0	-222465.0	6573.0	-208261.0
29	17	52	45	278	122.0	-223114.0	6622.0	-209711.0
29	17	52	45	306	123.0	-223761.0	6582.0	-212339.0
29	17	52	45	308	124.0	-224359.0	6796.0	-205274.0
29	17	52	45	308	125.0	-224894.0	6964.0	-201062.0
29	17	52	45	309	126.0	-225445.0	7188.0	-202131.0
29	17	52	45	310	127.0	-225971.0	7224.0	-203528.0
29	17	52	45	311	128.0	-226506.0	7318.0	-204694.0
29	17	52	45	312	129.0	-227059.0	7259.0	-199625.0
29	17	52	45	313	130.0	-227773.0	7483.0	-197431.0
29	17	52	45	314	131.0	-228832.0	7568.0	-198996.0
29	17	52	45	314	132.0	-230156.0	7638.0	-201639.0
29	17	52	45	315	133.0	-231926.0	7747.0	-201977.0
29	17	52	45	316	134.0	-233957.0	7783.0	-200456.0
29	17	52	45	317	135.0	-236128.0	7769.0	-198360.0
29	17	52	45	318	136.0	-238301.0	7656.0	-195824.0
29	17	52	45	318	137.0	-240697.0	7800.0	-196302.0
29	17	52	45	319	139.0	-245854.0	7898.0	-197071.0
29	17	52	45	320	140.0	-249596.0	7883.0	-197281.0
29	17	52	45	321	141.0	-253720.0	7904.0	-195072.0
29	17	52	45	321	142.0	-258236.0	7931.0	-195410.0
29	17	52	45	322	143.0	-262859.0	7965.0	-196497.0
29	17	52	45	323	144.0	-267034.0	7977.0	-199509.0
29	17	52	45	323	145.0	-271695.0	7993.0	-203381.0
29	17	52	45	352	146.0	-276409.0	7925.0	-206101.0
29	17	52	45	353	147.0	-280759.0	7887.0	-202160.0
29	17	52	45	354	148.0	-285349.0	7689.0	-196473.0
29	17	52	45	354	149.0	-289997.0	7993.0	-197601.0
29	17	52	45	355	150.0	-295366.0	7874.0	-198477.0
29	17	52	45	356	151.0	-302239.0	7582.0	-198287.0
29	17	52	45	357	152.0	-309206.0	7662.0	-196007.0
29	17	52	45	358	153.0	-315046.0	7770.0	-197197.0
29	17	52	45	359	154.0	-320432.0	7508.0	-200308.0
29	17	52	45	360	155.0	-324942.0	7515.0	-204444.0
29	17	52	45	361	156.0	-327381.0	7372.0	-206736.0
29	17	52	45	362	157.0	-329536.0	7168.0	-208988.0
29	17	52	45	362	158.0	-331847.0	7111.0	-208412.0
29	17	52	45	363	159.0	-332831.0	7050.0	-204098.0
29	17	52	45	364	160.0	-333229.0	6985.0	-200701.0
29	17	52	45	365	162.0	-331410.0	6768.0	-202277.0
29	17	52	45	365	163.0	-331827.0	6589.0	-203668.0
29	17	52	45	366	164.0	-332277.0	6437.0	-205736.0
29	17	52	45	367	165.0	-332314.0	6473.0	-208125.0
29	17	52	45	368	166.0	-336514.0	6233.0	-211905.0
29	17	52	45	368	167.0	-343701.0	6089.0	-211660.0
29	17	52	45	398	168.0	-348017.0	6073.0	-201746.0
29	17	52	45	399	169.0	-353091.0	5956.0	-193811.0
29	17	52	45	400	170.0	-361858.0	5565.0	-194721.0
29	17	52	45	400	171.0	-376864.0	5346.0	-197676.0
29	17	52	45	401	172.0	-397051.0	5465.0	-199477.0
29	17	52	45	402	173.0	-418101.0	5348.0	-206473.0
29	17	52	45	403	174.0	-435702.0	5106.0	-212306.0
29	17	52	45	404	175.0	-454297.0	4971.0	-215300.0
29	17	52	45	405	176.0	-474771.0	4849.0	-217454.0
29	17	52	45	406	177.0	-496060.0	4745.0	-219091.0
29	17	52	45	407	178.0	-516656.0	4661.0	-218026.0
29	17	52	45	408	179.0	-535578.0	4303.0	-216426.0
29	17	52	45	408	180.0	-552172.0	4188.0	-215445.0
29	17	52	45	409	181.0	-566314.0	3998.0	-215607.0
29	17	52	45	410	182.0	-578069.0	3911.0	-217126.0
29	17	52	45	411	184.0	-593537.0	3550.0	-221119.0
29	17	52	45	411	185.0	-596727.0	3549.0	-224996.0
29	17	52	45	412	186.0	-596879.0	3186.0	-227557.0
29	17	52	45	413	187.0	-593802.0	2900.0	-227624.0
29	17	52	45	414	188.0	-587968.0	2854.0	-225822.0
29	17	52	45	414	189.0	-579950.0	2840.0	-219181.0
29	17	52	45	415	190.0	-571163.0	2779.0	-214279.0
29	17	52	45	443	191.0	-562762.0	2426.0	-209607.0
29	17	52	45	444	192.0	-555742.0	2459.0	-205788.0
29	17	52	45	445	193.0	-550237.0	2086.0	-207152.0
29	17	52	45	446	194.0	-545777.0	1891.0	-212486.0
29	17	52	45	447	195.0	-541340.0	2038.0	-216934.0
29	17	52	45	448	196.0	-537327.0	1585.0	-218204.0
29	17	52	45	449	197.0	-533797.0	1338.0	-217322.0
29	17	52	45	450	198.0	-529980.0	1146.0	-219402.0
29	17	52	45	451	199.0	-525222.0	1087.0	-216141.0
29	17	52	45	451	200.0	-519264.0	901.0	-209110.0
29	17	52	45	452	201.0	-513161.0	634.0	-212544.0
29	17	52	45	453	202.0	-507336.0	793.0	-218877.0
29	17	52	45	454	203.0	-502174.0	721.0	-223197.0
29	17	52	45	455	204.0	-498095.0	620.0	-226436.0
29	17	52	45	455	205.0	-495607.0	470.0	-228851.0
29	17	52	45	456	207.0	-498169.0	389.0	-227922.0
29	17	52	45	457	208.0	-502739.0	164.0	-224499.0
29	17	52	45	458	209.0	-508970.0	14.0	-223913.0
29	17	52	45	458	210.0	-516543.0	-145.0	-223746.0
29	17	52	45	459	211.0	-524381.0	-212.0	-226332.0
29	17	52	45	460	212.0	-530773.0	-315.0	-227816.0
29	17	52	45	488	213.0	-535704.0	-204.0	-227318.0
29	17	52	45	489	214.0	-539432.0	-264.0	-227668.0
29	17	52	45	490	215.0	-542321.0	-351.0	-220038.0
29	17	52	45	491	216.0	-544266.0	-352.0	-221288.0
29	17	52	45	492	217.0	-545258.0	-436.0	-226247.0
29	17	52	45	493	218.0	-544762.0	-384.0	-229421.0
29	17	52	45	494	219.0	-542426.0	-398.0	-230054.0
29	17	52	45	495	220.0	-539012.0	-478.0	-233031.0
29	17	52	45	496	221.0	-535026.0	-684.0	-233606.0
29	17	52	45	496	222.0	-530884.0	-973.0	-233665.0
29	17	52	45	497	223.0	-527232.0	-634.0	-232569.0
29	17	52	45	498	224.0	-524356.0	-717.0	-228909.0
29	17	52	45	499	225.0	-522337.0	-799.0	-220812.0
29	17	52	45	500	226.0	-523019.0	-703.0	-221636.0
29	17	52	45	501	227.0	-525225.0	-850.0	-224408.0
29	17	52	45	501	229.0	-526501.0	-1030.0	-230248.0
29	17	52	45	502	230.0	-527983.0	-994.0	-230781.0
29	17	52	45	503	231.0	-531310.0	-1067.0	-230149.0
29	17	52	45	503	232.0	-536782.0	-1115.0	-230750.0
29	17	52	45	504	233.0	-545329.0	-1157.0	-231037.0
29	17	52	45	505	234.0	-555591.0	-1264.0	-231931.0
29	17	52	45	505	235.0	-564794.0	-1342.0	-233743.0
29	17	52	45	532	236.0	-569979.0	-1307.0	-233443.0
29	17	52	45	533	237.0	-572191.0	-1366.0	-233263.0
29	17	52	45	534	238.0	-571838.0	-1387.0	-225655.0
29	17	52	45	535	239.0	-569348.0	-1417.0	-216083.0
29	17	52	45	536	240.0	-564975.0	-1486.0	-216931.0
29	17	52	45	537	241.0	-558356.0	-1546.0	-215979.0
29	17	52	45	538	242.0	-549662.0	-1487.0	-215580.0
29	17	52	45	539	243.0	-536996.0	-1564.0	-216936.0
29	17	52	45	540	244.0	-521049.0	-1646.0	-216979.0
29	17	52	45	541	245.0	-504102.0	-1741.0	-218436.0
29	17	52	45	542	246.0	-487606.0	-1666.0	-218774.0
29	17	52	45	542	247.0	-472115.0	-1604.0	-218375.0
29	17	52	45	543	248.0	-456843.0	-1748.0	-218191.0
29	17	52	45	544	249.0	-441303.0	-1798.0	-217424.0
29	17	52	45	545	250.0	-425387.0	-1832.0	-218222.0
29	17	52	45	545	252.0	-393802.0	-1691.0	-220346.0
29	17	52	45	546	253.0	-378950.0	-1687.0	-221846.0
29	17	52	45	547	254.0	-364787.0	-1667.0	-222911.0
29	17	52	45	548	255.0	-352258.0	-1559.0	-223996.0
29	17	52	45	548	0.0	-341522.0	-1521.0	-223867.0
29	17	52	45	549	1.0	-333600.0	-1572.0	-225911.0
29	17	52	45	577	2.0	-328002.0	-1596.0	-226875.0
29	17	52	45	578	3.0	-324684.0	-1471.0	-226502.0
29	17	52	45	579	4.0	-324072.0	-1400.0	-227488.0
29	17	52	45	580	5.0	-325908.0	-1473.0	-226896.0
29	17	52	45	581	6.0	-329776.0	-1461.0	-226627.0
29	17	52	45	582	7.0	-335578.0	-1436.0	-227489.0
29	17	52	45	582	8.0	-342759.0	-1391.0	-226936.0
29	17	52	45	583	9.0	-351532.0	-1302.0	-225991.0
29	17	52	45	585	10.0	-361239.0	-1114.0	-228767.0
29	17	52	45	585	11.0	-371034.0	-1197.0	-229574.0
29	17	52	45	586	12.0	-379751.0	-1292.0	-229372.0
29	17	52	45	587	13.0	-386999.0	-1201.0	-230711.0
29	17	52	45	588	14.0	-392627.0	-1237.0	-229592.0
29	17	52	45	589	15.0	-396584.0	-1183.0	-230179.0
29	17	52	45	589	16.0	-398721.0	-1096.0	-231015.0
29	17	52	45	590	18.0	-397663.0	-1024.0	-232873.0
29	17	52	45	591	19.0	-393760.0	-1039.0	-233827.0
29	17	52	45	592	20.0	-387611.0	-886.0	-235149.0
29	17	52	45	592	21.0	-379307.0	-911.0	-236380.0
29	17	52	45	593	22.0	-368074.0	-823.0	-235864.0
29	17	52	45	594	23.0	-353759.0	-767.0	-237763.0
29	17	52	45	622	24.0	-336936.0	-704.0	-238959.0
29	17	52	45	623	25.0	-317777.0	-691.0	-240004.0
29	17	52	45	624	26.0	-296580.0	-701.0	-243741.0
29	17	52	45	625	27.0	-273526.0	-579.0	-248771.0
29	17	52	45	626	28.0	-249196.0	-596.0	-250233.0
29	17	52	45	627	29.0	-224097.0	-534.0	-252116.0
29	17	52	45	628	30.0	-198999.0	-484.0	-252622.0
29	17	52	45	629	31.0	-175384.0	-517.0	-252562.0
29	17	52	45	630	32.0	-152914.0	-456.0	-254899.0
29	17	52	45	630	33.0	-131647.0	-417.0	-254446.0
29	17	52	45	632	34.0	-112747.0	-355.0	-254971.0
29	17	52	45	632	35.0	-96641.0	-356.0	-256163.0
29	17	52	45	633	36.0	-82496.0	-319.0	-255491.0
29	17	52	45	634	37.0	-69514.0	-349.0	-254537.0
29	17	52	45	635	38.0	-57418.0	-362.0	-256391.0
29	17	52	45	636	40.0	-34344.0	-274.0	-255682.0
29	17	52	45	636	41.0	-22912.0	-197.0	-256536.0
29	17	52	45	637	42.0	-11766.0	-183.0	-256412.0
29	17	52	45	638	43.0	-867.0	-62.0	-257497.0
29	17	52	45	639	44.0	9437.0	-4.0	-257171.0
29	17	52	45	639	45.0	18991.0	8.0	-257368.0
29	17	52	45	640	46.0	27440.0	15.0	-257054.0
29	17	52	45	667	47.0	33863.0	162.0	-256221.0
29	17	52	45	668	48.0	37692.0	227.0	-257765.0
29	17	52	45	669	49.0	39978.0	279.0	-258100.0
29	17	52	45	670	50.0	40960.0	274.0	-259348.0
29	17	52	45	671	51.0	40901.0	386.0	-260627.0
29	17	52	45	672	52.0	40570.0	411.0	-260109.0
29	17	52	45	673	53.0	39486.0	426.0	-261667.0
29	17	52	45	674	54.0	37769.0	473.0	-262975.0
29	17	52	45	675	55.0	36082.0	591.0	-262147.0
29	17	52	45	675	56.0	34616.0	487.0	-260158.0
29	17	52	45	676	57.0	33785.0	504.0	-257364.0
29	17	52	45	677	58.0	33935.0	563.0	-252717.0
29	17	52	45	678	59.0	35359.0	571.0	-246977.0
29	17	52	45	679	60.0	37398.0	621.0	-243787.0
29	17	52	45	680	61.0	40012.0	672.0	-242897.0
29	17	52	45	680	63.0	44504.0	823.0	-241918.0
29	17	52	45	681	64.0	45126.0	939.0	-244858.0
29	17	52	45	682	65.0	43813.0	905.0	-246759.0
29	17	52	45	683	66.0	40396.0	944.0	-245732.0
29	17	52	45	683	67.0	34842.0	909.0	-244804.0
29	17	52	45	684	68.0	27332.0	960.0	-246829.0
29	17	52	45	713	69.0	18258.0	1079.0	-247902.0
29	17	52	45	714	70.0	8024.0	1115.0	-250190.0
29	17	52	45	715	71.0	-1989.0	1202.0	-254284.0
29	17	52	45	716	72.0	-10255.0	1281.0	-255718.0
29	17	52	45	717	73.0	-16056.0	1306.0	-259052.0
29	17	52	45	718	74.0	-19091.0	1254.0	-261606.0
29	17	52	45	719	75.0	-20986.0	1306.0	-264836.0
29	17	52	45	720	76.0	-22578.0	1332.0	-267494.0
29	17	52	45	721	77.0	-21341.0	1426.0	-267509.0
29	17	52	45	722	78.0	-15134.0	1454.0	-268808.0
29	17	52	45	723	79.0	-3093.0	1518.0	-267762.0
29	17	52	45	724	80.0	19348.0	1556.0	-266236.0
29	17	52	45	724	81.0	50934.0	1556.0	-266348.0
29	17	52	45	725	82.0	83541.0	1608.0	-265576.0
29	17	52	45	726	83.0	110936.0	1657.0	-267088.0
29	17	52	45	727	85.0	133986.0	1662.0	-268211.0
29	17	52	45	727	86.0	129792.0	1674.0	-269391.0
29	17	52	45	728	87.0	119851.0	1744.0	-268692.0
29	17	52	45	729	88.0	105551.0	1752.0	-268882.0
29	17	52	45	730	89.0	88314.0	1757.0	-268087.0
29	17	52	45	730	90.0	71917.0	1861.0	-268034.0
29	17	52	45	731	91.0	59561.0	1868.0	-268716.0
29	17	52	45	757	92.0	52331.0	1906.0	-267192.0
29	17	52	45	758	93.0	49706.0	2066.0	-267842.0
29	17	52	45	759	94.0	51373.0	1966.0	-266857.0
29	17	52	45	760	95.0	51428.0	1849.0	-266395.0
29	17	52	45	761	96.0	48831.0	1879.0	-265729.0
29	17	52	45	762	97.0	44420.0	1908.0	-264167.0
29	17	52	45	763	98.0	35654.0	1859.0	-257767.0
29	17	52	45	764	99.0	21646.0	1911.0	-252191.0
29	17	52	45	765	100.0	5626.0	1851.0	-253138.0
29	17	52	45	766	101.0	-7021.0	1752.0	-258011.0
29	17	52	45	767	102.0	-12606.0	1764.0	-261124.0
29	17	52	45	768	103.0	-12562.0	1657.0	-260898.0
29	17	52	45	768	104.0	-9936.0	1789.0	-262358.0
29	17	52	45	769	105.0	-7679.0	1674.0	-262726.0
29	17	52	45	770	106.0	-6266.0	1604.0	-262134.0
29	17	52	45	771	108.0	-4655.0	1607.0	-259404.0
29	17	52	45	771	109.0	-5256.0	1607.0	-261715.0
29	17	52	45	772	110.0	-6989.0	1574.0	-261937.0
29	17	52	45	773	111.0	-8539.0	1526.0	-263332.0
29	17	52	45	773	112.0	-7986.0	1516.0	-263578.0
29	17	52	45	774	113.0	-5397.0	1503.0	-258200.0
29	17	52	45	803	114.0	-489.0	1419.0	-253893.0
29	17	52	45	804	115.0	6570.0	1341.0	-255756.0
29	17	52	45	805	116.0	14993.0	1243.0	-257071.0
29	17	52	45	806	117.0	23403.0	1202.0	-257536.0
29	17	52	45	807	118.0	30868.0	1151.0	-259400.0
29	17	52	45	808	119.0	36981.0	1044.0	-260288.0
29	17	52	45	809	120.0	42262.0	993.0	-262136.0
29	17	52	45	809	121.0	46933.0	922.0	-265226.0
29	17	52	45	810	122.0	50400.0	839.0	-266164.0
29	17	52	45	811	123.0	52687.0	708.0	-265261.0
29	17	52	45	812	124.0	53759.0	601.0	-260444.0
29	17	52	45	813	125.0	54194.0	528.0	-255459.0
29	17	52	45	814	126.0	55014.0	453.0	-255868.0
29	17	52	45	815	127.0	56825.0	339.0	-255796.0
29	17	52	45	815	128.0	58638.0	265.0	-254937.0
29	17	52	45	816	130.0	59032.0	99.0	-253236.0
29	17	52	45	817	131.0	57412.0	-69.0	-252991.0
29	17	52	45	817	132.0	54167.0	-136.0	-253171.0
29	17	52	45	818	133.0	49041.0	-194.0	-254500.0
29	17	52	45	819	134.0	42002.0	-221.0	-254965.0
29	17	52	45	820	135.0	34313.0	-360.0	-253596.0
29	17	52	45	820	136.0	26651.0	-468.0	-253606.0
29	17	52	45	848	137.0	19733.0	-537.0	-250276.0
29	17	52	45	849	138.0	13494.0	-642.0	-246026.0
29	17	52	45	850	139.0	7276.0	-773.0	-245331.0
29	17	52	45	851	140.0	1313.0	-851.0	-241143.0
29	17	52	45	852	141.0	-4177.0	-966.0	-239155.0
29	17	52	45	853	142.0	-9118.0	-1042.0	-242456.0
29	17	52	45	854	143.0	-13504.0	-1167.0	-245255.0
29	17	52	45	855	144.0	-18018.0	-1266.0	-247096.0
29	17	52	45	856	145.0	-22306.0	-1388.0	-248262.0
29	17	52	45	856	146.0	-26481.0	-1441.0	-247482.0
29	17	52	45	857	147.0	-30317.0	-1505.0	-241442.0
29	17	52	45	858	148.0	-34412.0	-1594.0	-238793.0
29	17	52	45	859	149.0	-39381.0	-1714.0	-241619.0
29	17	52	45	860	150.0	-45278.0	-1818.0	-245452.0
29	17	52	45	860	151.0	-52376.0	-1856.0	-247464.0
29	17	52	45	861	153.0	-70331.0	-2036.0	-245172.0
29	17	52	45	862	154.0	-81184.0	-2109.0	-247715.0
29	17	52	45	863	155.0	-92766.0	-2171.0	-248316.0
29	17	52	45	863	156.0	-104108.0	-2242.0	-248112.0
29	17	52	45	864	157.0	-114331.0	-2301.0	-245656.0
29	17	52	45	865	158.0	-123393.0	-2338.0	-238995.0
29	17	52	45	892	159.0	-131258.0	-2391.0	-241213.0
29	17	52	45	893	160.0	-137894.0	-2434.0	-247217.0
29	17	52	45	894	161.0	-143862.0	-2493.0	-249034.0
29	17	52	45	895	162.0	-149777.0	-2494.0	-249694.0
29	17	52	45	896	163.0	-156052.0	-2511.0	-247996.0
29	17	52	45	897	164.0	-162461.0	-2539.0	-243567.0
29	17	52	45	898	165.0	-169171.0	-2604.0	-239662.0
29	17	52	45	899	166.0	-176267.0	-2608.0	-238679.0
29	17	52	45	900	167.0	-182666.0	-2582.0	-238125.0
29	17	52	45	901	168.0	-188871.0	-2581.0	-237789.0
29	17	52	45	902	169.0	-194958.0	-2595.0	-235526.0
29	17	52	45	903	170.0	-200544.0	-2637.0	-233222.0
29	17	52	45	903	171.0	-206104.0	-2609.0	-226466.0
29	17	52	45	904	172.0	-212078.0	-2598.0	-222662.0
29	17	52	45	905	173.0	-218821.0	-2619.0	-223936.0
29	17	52	45	906	175.0	-233314.0	-2580.0	-216046.0
29	17	52	45	906	176.0	-240712.0	-2549.0	-214990.0
29	17	52	45	907	177.0	-248174.0	-2369.0	-217594.0
29	17	52	45	908	178.0	-255434.0	-2281.0	-217776.0
29	17	52	45	909	179.0	-262869.0	-2342.0	-212859.0
29	17	52	45	909	180.0	-270332.0	-2297.0	-214034.0
29	17	52	45	937	181.0	-277160.0	-2201.0	-217314.0
29	17	52	45	938	182.0	-283684.0	-2159.0	-214450.0
29	17	52	45	939	183.0	-290307.0	-2059.0	-213706.0
29	17	52	45	940	184.0	-296679.0	-2018.0	-215749.0
29	17	52	45	941	185.0	-302851.0	-2021.0	-215166.0
29	17	52	45	941	186.0	-308668.0	-1922.0	-216741.0
29	17	52	45	942	187.0	-314546.0	-1886.0	-214437.0
29	17	52	45	943	188.0	-321170.0	-1812.0	-209010.0
29	17	52	45	944	189.0	-328309.0	-1737.0	-211853.0
29	17	52	45	945	190.0	-335614.0	-1661.0	-210162.0
29	17	52	45	946	191.0	-342861.0	-1509.0	-212987.0
29	17	52	45	947	192.0	-349457.0	-1375.0	-215862.0
29	17	52	45	948	193.0	-355367.0	-1333.0	-215710.0
29	17	52	45	948	194.0	-360467.0	-1264.0	-213322.0
29	17	52	45	949	195.0	-364412.0	-1217.0	-211767.0
29	17	52	45	950	198.0	-367542.0	-1041.0	-205491.0
29	17	52	45	951	199.0	-365698.0	-922.0	-201899.0
29	17	52	45	951	200.0	-362765.0	-723.0	-202459.0
29	17	52	45	952	201.0	-359006.0	-610.0	-199864.0
29	17	52	45	953	202.0	-354424.0	-557.0	-196899.0
29	17	52	45	954	203.0	-349012.0	-480.0	-199439.0
29	17	52	45	981	204.0	-343260.0	-430.0	-199892.0
29	17	52	45	982	205.0	-337867.0	-314.0	-197967.0
29	17	52	45	983	206.0	-333075.0	-240.0	-196384.0
29	17	52	45	984	207.0	-328734.0	-63.0	-196089.0
29	17	52	45	985	208.0	-325325.0	9.0	-196619.0
29	17	52	45	986	209.0	-322721.0	89.0	-192715.0
29	17	52	45	987	210.0	-321243.0	179.0	-194590.0
29	17	52	45	988	211.0	-321336.0	209.0	-199686.0
29	17	52	45	989	212.0	-323700.0	308.0	-198038.0
29	17	52	45	990	213.0	-328324.0	288.0	-195242.0
29	17	52	45	991	214.0	-335206.0	358.0	-196722.0
29	17	52	45	991	215.0	-344296.0	519.0	-194302.0
29	17	52	45	992	216.0	-355667.0	521.0	-192551.0
29	17	52	45	993	217.0	-370216.0	659.0	-194148.0
29	17	52	45	994	218.0	-386959.0	735.0	-188490.0
29	17	52	45	994	220.0	-417234.0	906.0	-192409.0
29	17	52	45	995	221.0	-427839.0	919.0	-195140.0
29	17	52	45	996	222.0	-438862.0	959.0	-194904.0
29	17	52	45	997	223.0	-451372.0	936.0	-192775.0
29	17	52	45	997	224.0	-468117.0	947.0	-190986.0
29	17	52	45	998	225.0	-485420.0	1137.0	-188601.0
29	17	52	46	27	226.0	-498784.0	1331.0	-188853.0
29	17	52	46	28	227.0	-507487.0	1355.0	-187156.0
29	17	52	46	29	228.0	-508265.0	1419.0	-186487.0
29	17	52	46	30	229.0	-504153.0	1469.0	-185357.0
29	17	52	46	31	230.0	-498692.0	1431.0	-189244.0
29	17	52	46	32	231.0	-490372.0	1499.0	-191994.0
29	17	52	46	32	232.0	-480341.0	1594.0	-190408.0
29	17	52	46	33	233.0	-470517.0	1623.0	-187799.0
29	17	52	46	34	234.0	-460686.0	1691.0	-184834.0
29	17	52	46	35	235.0	-448457.0	1753.0	-180271.0
29	17	52	46	36	236.0	-435452.0	1814.0	-176763.0
29	17	52	46	37	237.0	-423128.0	1836.0	-178326.0
29	17	52	46	38	238.0	-411882.0	1889.0	-181329.0
29	17	52	46	38	239.0	-401320.0	1924.0	-182132.0
29	17	52	46	39	240.0	-390300.0	1978.0	-181521.0
29	17	52	46	40	242.0	-363122.0	2056.0	-177022.0
29	17	52	46	41	243.0	-347551.0	2106.0	-171956.0
29	17	52	46	41	244.0	-332711.0	2120.0	-172310.0
29	17	52	46	42	245.0	-320093.0	2153.0	-173047.0
29	17	52	46	43	246.0	-310929.0	2188.0	-173448.0
29	17	52	46	43	247.0	-305696.0	2198.0	-173744.0
29	17	52	46	44	248.0	-304197.0	2279.0	-174133.0
29	17	52	46	73	249.0	-306269.0	2345.0	-174266.0
29	17	52	46	74	250.0	-311166.0	2373.0	-174694.0
29	17	52	46	75	251.0	-318272.0	2399.0	-172939.0
29	17	52	46	76	252.0	-327156.0	2451.0	-172287.0
29	17	52	46	77	253.0	-337352.0	2438.0	-170223.0
29	17	52	46	77	254.0	-348114.0	2390.0	-165409.0
29	17	52	46	78	255.0	-358787.0	2418.0	-168586.0
29	17	52	46	79	0.0	-368721.0	2476.0	-165779.0
29	17	52	46	80	1.0	-377235.0	2388.0	-149566.0
29	17	52	46	81	2.0	-383810.0	2473.0	-138349.0
29	17	52	46	82	3.0	-389101.0	2481.0	-141752.0
29	17	52	46	82	4.0	-393732.0	2458.0	-143512.0
29	17	52	46	83	5.0	-397819.0	2424.0	-142706.0
29	17	52	46	84	6.0	-400838.0	2440.0	-140276.0
29	17	52	46	85	7.0	-402067.0	2469.0	-130277.0
29	17	52	46	85	9.0	-400716.0	2427.0	-116369.0
29	17	52	46	86	10.0	-398252.0	2413.0	-117009.0
29	17	52	46	87	11.0	-394569.0	2424.0	-118503.0
29	17	52	46	87	12.0	-390444.0	2461.0	-122143.0
29	17	52	46	88	13.0	-385845.0	2449.0	-126694.0
29	17	52	46	89	14.0	-380704.0	2467.0	-125657.0
29	17	52	46	163	15.0	-375196.0	2438.0	-126289.0
29	17	52	46	164	16.0	-368606.0	2457.0	-128319.0
29	17	52	46	165	17.0	-360840.0	2474.0	-127259.0
29	17	52	46	166	18.0	-352231.0	2431.0	-127906.0
29	17	52	46	167	19.0	-343110.0	2400.0	-126829.0
29	17	52	46	168	20.0	-333382.0	2362.0	-123558.0
29	17	52	46	169	21.0	-322936.0	2306.0	-125351.0
29	17	52	46	170	22.0	-312086.0	2330.0	-126355.0
29	17	52	46	170	23.0	-301444.0	2330.0	-124396.0
29	17	52	46	171	24.0	-291111.0	2308.0	-124050.0
29	17	52	46	172	25.0	-281072.0	2320.0	-125573.0
29	17	52	46	173	26.0	-272193.0	2313.0	-125917.0
29	17	52	46	174	27.0	-264629.0	2213.0	-122765.0
29	17	52	46	175	28.0	-258647.0	2204.0	-121362.0
29	17	52	46	175	29.0	-254007.0	2162.0	-120492.0
29	17	52	46	176	31.0	-250310.0	2123.0	-117205.0
29	17	52	46	177	54.0	-370902.0	1713.0	-117022.0
29	17	52	46	178	55.0	-359204.0	1748.0	-118248.0
29	17	52	46	178	56.0	-346067.0	1705.0	-118829.0
29	17	52	46	179	57.0	-332041.0	1695.0	-119404.0
29	17	52	46	180	58.0	-317155.0	1685.0	-119406.0
29	17	52	46	180	59.0	-301409.0	1641.0	-119539.0
29	17	52	46	208	60.0	-284981.0	1631.0	-119517.0
29	17	52	46	209	61.0	-267584.0	1621.0	-117089.0
29	17	52	46	210	62.0	-249324.0	1598.0	-109677.0
29	17	52	46	211	63.0	-230842.0	1614.0	-102420.0
29	17	52	46	212	64.0	-212939.0	1612.0	-102974.0
29	17	52	46	212	65.0	-196367.0	1574.0	-106431.0
29	17	52	46	213	66.0	-182503.0	1533.0	-113721.0
29	17	52	46	215	67.0	-172664.0	1524.0	-122564.0
29	17	52	46	216	68.0	-167272.0	1506.0	-125805.0
29	17	52	46	217	69.0	-165348.0	1511.0	-125888.0
29	17	52	46	217	70.0	-166214.0	1501.0	-127262.0
29	17	52	46	218	71.0	-169537.0	1524.0	-128461.0
29	17	52	46	219	72.0	-174545.0	1489.0	-129746.0
29	17	52	46	220	73.0	-180313.0	1483.0	-131297.0
29	17	52	46	221	74.0	-186152.0	1478.0	-132687.0
29	17	52	46	222	76.0	-197727.0	1428.0	-137480.0
29	17	52	46	223	77.0	-204366.0	1411.0	-137246.0
29	17	52	46	224	78.0	-211133.0	1466.0	-135665.0
29	17	52	46	225	79.0	-217749.0	1466.0	-135264.0
29	17	52	46	226	80.0	-223857.0	1448.0	-133043.0
29	17	52	46	226	81.0	-229292.0	1479.0	-128169.0
29	17	52	46	227	82.0	-234036.0	1491.0	-126065.0
29	17	52	46	251	83.0	-238221.0	1537.0	-126219.0
29	17	52	46	253	84.0	-241464.0	1627.0	-120733.0
29	17	52	46	254	85.0	-243356.0	1521.0	-122057.0
29	17	52	46	254	86.0	-243983.0	1491.0	-125637.0
29	17	52	46	255	87.0	-243981.0	1558.0	-126657.0
29	17	52	46	297	88.0	-243811.0	1548.0	-127374.0
29	17	52	46	298	89.0	-243086.0	1504.0	-126070.0
29	17	52	46	299	90.0	-242261.0	1533.0	-125621.0
29	17	52	46	300	91.0	-242487.0	1546.0	-126358.0
29	17	52	46	301	92.0	-243842.0	1563.0	-126172.0
29	17	52	46	302	93.0	-245747.0	1519.0	-124007.0
29	17	52	46	303	94.0	-247420.0	1523.0	-118679.0
29	17	52	46	304	95.0	-248199.0	1531.0	-119182.0
29	17	52	46	305	96.0	-247871.0	1519.0	-119282.0
29	17	52	46	305	97.0	-246357.0	1520.0	-115113.0
29	17	52	46	306	99.0	-239209.0	1546.0	-125431.0
29	17	52	46	307	100.0	-232696.0	1574.0	-126843.0
29	17	52	46	308	101.0	-224501.0	1619.0	-124447.0
29	17	52	46	309	102.0	-215520.0	1579.0	-123979.0
29	17	52	46	310	103.0	-206277.0	1601.0	-124824.0
29	17	52	46	311	104.0	-196566.0	1562.0	-120999.0
29	17	52	46	311	121.0	-97232.0	1399.0	-117311.0
29	17	52	46	312	122.0	-97612.0	1296.0	-121456.0
29	17	52	46	313	123.0	-99514.0	1312.0	-123162.0
29	17	52	46	314	124.0	-102854.0	1324.0	-123924.0
29	17	52	46	314	125.0	-107082.0	1308.0	-121462.0
29	17	52	46	315	126.0	-111616.0	1277.0	-117219.0
29	17	52	46	316	127.0	-115950.0	1281.0	-116637.0
29	17	52	46	342	128.0	-119767.0	1269.0	-119832.0
29	17	52	46	343	129.0	-122879.0	1235.0	-120961.0
29	17	52	46	344	130.0	-124916.0	1234.0	-117922.0
29	17	52	46	345	131.0	-126364.0	1234.0	-110950.0
29	17	52	46	346	132.0	-127798.0	1229.0	-113680.0
29	17	52	46	347	133.0	-129462.0	1167.0	-114409.0
29	17	52	46	347	134.0	-131418.0	1148.0	-117179.0
29	17	52	46	348	135.0	-133894.0	1121.0	-118721.0
29	17	52	46	349	136.0	-137432.0	1106.0	-116693.0
29	17	52	46	350	137.0	-142522.0	1049.0	-116048.0
29	17	52	46	351	138.0	-149292.0	973.0	-114456.0
29	17	52	46	352	139.0	-156661.0	988.0	-110252.0
29	17	52	46	353	140.0	-163736.0	945.0	-114449.0
29	17	52	46	354	141.0	-170233.0	918.0	-115373.0
29	17	52	46	354	142.0	-176074.0	935.0	-112029.0
29	17	52	46	355	143.0	-181112.0	963.0	-109113.0
29	17	52	46	356	144.0	-184872.0	925.0	-109115.0
29	17	52	46	357	145.0	-187238.0	902.0	-109289.0
29	17	52	46	358	146.0	-188001.0	920.0	-113407.0
29	17	52	46	358	147.0	-187312.0	889.0	-113881.0
29	17	52	46	359	148.0	-185638.0	906.0	-110874.0
29	17	52	46	360	149.0	-183313.0	909.0	-109146.0
29	17	52	46	396	150.0	-180410.0	901.0	-108129.0
29	17	52	46	397	151.0	-177386.0	904.0	-107895.0
29	17	52	46	397	152.0	-174312.0	936.0	-105984.0
29	17	52	46	398	153.0	-170679.0	883.0	-108879.0
29	17	52	46	399	154.0	-165319.0	836.0	-113522.0
29	17	52	46	400	155.0	-158239.0	794.0	-109273.0
29	17	52	46	400	156.0	-150147.0	813.0	-104701.0
29	17	52	46	401	157.0	-141238.0	799.0	-108051.0
29	17	52	46	402	158.0	-131998.0	772.0	-108736.0
29	17	52	46	402	159.0	-122969.0	715.0	-104891.0
29	17	52	46	403	160.0	-114312.0	673.0	-101144.0
29	17	52	46	404	161.0	-106557.0	623.0	-99612.0
29	17	52	46	404	162.0	-99961.0	661.0	-97721.0
29	17	52	46	405	163.0	-94407.0	604.0	-95931.0
29	17	52	46	406	164.0	-89985.0	507.0	-92113.0
29	17	52	46	407	166.0	-86512.0	513.0	-84764.0
29	17	52	46	407	167.0	-87660.0	458.0	-80234.0
29	17	52	46	408	168.0	-89797.0	420.0	-74219.0
29	17	52	46	409	169.0	-92747.0	446.0	-72227.0
29	17	52	46	410	170.0	-96006.0	431.0	-75920.0
29	17	52	46	410	171.0	-99989.0	384.0	-77871.0
29	17	52	46	431	172.0	-105200.0	375.0	-78856.0
29	17	52	46	432	173.0	-111280.0	360.0	-79812.0
29	17	52	46	433	174.0	-118407.0	309.0	-79234.0
29	17	52	46	434	175.0	-126996.0	206.0	-77638.0
29	17	52	46	435	176.0	-136884.0	156.0	-80338.0
29	17	52	46	436	177.0	-147831.0	170.0	-86099.0
29	17	52	46	437	178.0	-158805.0	228.0	-88311.0
29	17	52	46	438	179.0	-168352.0	83.0	-89366.0
29	17	52	46	438	180.0	-175949.0	53.0	-88187.0
29	17	52	46	439	181.0	-181292.0	28.0	-89358.0
29	17	52	46	440	182.0	-184429.0	-30.0	-91991.0
29	17	52	46	441	183.0	-185550.0	-83.0	-92609.0
29	17	52	46	442	184.0	-181849.0	-117.0	-93429.0
29	17	52	46	443	185.0	-168928.0	-185.0	-93838.0
29	17	52	46	443	186.0	-145056.0	-279.0	-92905.0
29	17	52	46	444	188.0	-70678.0	-311.0	-86297.0
29	17	52	46	445	189.0	-36828.0	-356.0	-86830.0
29	17	52	46	446	190.0	-15182.0	-419.0	-86516.0
29	17	52	46	446	191.0	-8386.0	-463.0	-86547.0
29	17	52	46	447	192.0	-12443.0	-484.0	-84141.0
29	17	52	46	448	193.0	-20451.0	-552.0	-83668.0
29	17	52	46	448	194.0	-30524.0	-642.0	-86277.0
29	17	52	46	476	195.0	-43861.0	-671.0	-88146.0
29	17	52	46	522	196.0	-58206.0	-726.0	-87776.0
29	17	52	46	523	197.0	-69736.0	-744.0	-87331.0
29	17	52	46	524	198.0	-75943.0	-775.0	-80453.0
29	17	52	46	525	199.0	-74266.0	-862.0	-78934.0
29	17	52	46	526	200.0	-65242.0	-969.0	-81719.0
29	17	52	46	527	201.0	-56089.0	-1049.0	-81356.0
29	17	52	46	528	202.0	-52476.0	-1140.0	-81102.0
29	17	52	46	529	203.0	-56591.0	-1192.0	-85234.0
29	17	52	46	529	204.0	-69739.0	-1275.0	-88925.0
29	17	52	46	530	205.0	-89747.0	-1329.0	-89677.0
29	17	52	46	531	206.0	-110310.0	-1369.0	-89234.0
29	17	52	46	532	207.0	-125849.0	-1495.0	-87514.0
29	17	52	46	533	208.0	-134799.0	-1575.0	-85105.0
29	17	52	46	534	209.0	-138824.0	-1609.0	-83344.0
29	17	52	46	534	211.0	-140234.0	-1787.0	-82012.0
29	17	52	46	535	212.0	-139791.0	-1821.0	-79389.0
29	17	52	46	536	234.0	-84867.0	-3533.0	-77508.0
29	17	52	46	536	235.0	-85912.0	-3634.0	-77799.0
29	17	52	46	537	236.0	-86881.0	-3706.0	-78704.0
29	17	52	46	538	237.0	-87743.0	-3749.0	-79304.0
29	17	52	46	539	238.0	-89000.0	-3826.0	-79488.0
29	17	52	46	539	239.0	-90698.0	-3881.0	-81039.0
29	17	52	46	566	240.0	-92997.0	-3907.0	-83349.0
29	17	52	46	567	241.0	-95500.0	-4011.0	-82641.0
29	17	52	46	568	242.0	-97447.0	-4146.0	-71106.0
29	17	52	46	569	243.0	-98327.0	-4245.0	-65760.0
29	17	52	46	570	244.0	-98326.0	-4302.0	-66192.0
29	17	52	46	571	245.0	-97719.0	-4385.0	-66711.0
29	17	52	46	572	246.0	-96881.0	-4531.0	-67192.0
29	17	52	46	572	247.0	-96077.0	-4584.0	-67702.0
29	17	52	46	573	248.0	-95983.0	-4664.0	-66582.0
29	17	52	46	574	249.0	-97104.0	-4707.0	-66609.0
29	17	52	46	575	250.0	-99112.0	-4788.0	-67170.0
29	17	52	46	576	251.0	-101551.0	-4821.0	-71887.0
29	17	52	46	577	252.0	-103477.0	-4969.0	-80292.0
29	17	52	46	577	253.0	-104564.0	-5106.0	-82878.0
29	17	52	46	578	254.0	-104686.0	-5142.0	-82047.0
29	17	52	46	579	0.0	-101431.0	-5249.0	-80274.0
29	17	52	46	580	1.0	-97634.0	-5333.0	-78798.0
29	17	52	46	580	2.0	-92683.0	-5457.0	-78999.0
29	17	52	46	581	3.0	-86496.0	-5500.0	-80479.0
29	17	52	46	582	4.0	-79716.0	-5496.0	-78978.0
29	17	52	46	583	5.0	-72338.0	-5517.0	-78836.0
29	17	52	46	611	6.0	-64416.0	-5601.0	-79489.0
29	17	52	46	612	7.0	-56133.0	-5602.0	-79935.0
29	17	52	46	613	8.0	-48191.0	-5677.0	-79764.0
29	17	52	46	614	9.0	-41046.0	-5734.0	-79622.0
29	17	52	46	614	10.0	-35284.0	-5777.0	-79999.0
29	17	52	46	615	11.0	-30667.0	-5807.0	-79267.0
29	17	52	46	616	12.0	-26606.0	-5817.0	-77116.0
29	17	52	46	617	13.0	-22707.0	-5882.0	-75524.0
29	17	52	46	618	14.0	-18779.0	-5869.0	-76832.0
29	17	52	46	618	15.0	-15437.0	-5867.0	-79022.0
29	17	52	46	619	16.0	-13537.0	-5845.0	-79682.0
29	17	52	46	620	17.0	-13134.0	-5869.0	-79877.0
29	17	52	46	621	18.0	-13625.0	-5890.0	-79789.0
29	17	52	46	622	19.0	-14459.0	-5880.0	-79624.0
29	17	52	46	623	20.0	-15703.0	-5812.0	-79012.0
29	17	52	46	623	22.0	-20942.0	-5818.0	-76968.0
29	17	52	46	624	23.0	-23639.0	-5772.0	-74356.0
29	17	52	46	625	24.0	-26650.0	-5745.0	-72261.0
29	17	52	46	626	25.0	-29869.0	-5668.0	-71384.0
29	17	52	46	626	26.0	-34029.0	-5593.0	-70066.0
29	17	52	46	627	27.0	-38767.0	-5511.0	-69747.0
29	17	52	46	628	28.0	-43647.0	-5567.0	-68887.0
29	17	52	46	657	29.0	-49178.0	-5467.0	-67239.0
29	17	52	46	658	30.0	-55968.0	-5388.0	-66631.0
29	17	52	46	659	31.0	-63567.0	-5330.0	-66287.0
29	17	52	46	660	32.0	-71986.0	-5228.0	-65079.0
29	17	52	46	660	33.0	-79999.0	-5231.0	-63556.0
29	17	52	46	661	34.0	-87056.0	-5059.0	-62151.0
29	17	52	46	662	35.0	-93980.0	-5011.0	-62329.0
29	17	52	46	663	36.0	-101264.0	-4943.0	-61921.0
29	17	52	46	664	37.0	-108426.0	-4838.0	-60144.0
29	17	52	46	664	38.0	-114987.0	-4741.0	-57734.0
29	17	52	46	665	39.0	-120432.0	-4749.0	-56581.0
29	17	52	46	666	40.0	-125028.0	-4689.0	-55902.0
29	17	52	46	667	41.0	-128900.0	-4574.0	-54431.0
29	17	52	46	667	42.0	-132002.0	-4465.0	-52369.0
29	17	52	46	668	43.0	-135456.0	-4317.0	-52103.0
29	17	52	46	669	45.0	-144927.0	-4121.0	-47519.0
29	17	52	46	669	46.0	-150024.0	-4028.0	-47298.0
29	17	52	46	670	47.0	-154661.0	-3899.0	-45577.0
29	17	52	46	671	48.0	-158281.0	-3844.0	-43827.0
29	17	52	46	672	49.0	-161096.0	-3732.0	-45929.0
29	17	52	46	672	50.0	-163213.0	-3557.0	-47632.0
29	17	52	46	702	51.0	-164931.0	-3421.0	-47634.0
29	17	52	46	703	52.0	-166424.0	-3356.0	-44456.0
29	17	52	46	704	53.0	-167567.0	-3286.0	-40647.0
29	17	52	46	705	54.0	-168647.0	-3181.0	-37851.0
29	17	52	46	705	55.0	-169999.0	-2995.0	-36267.0
29	17	52	46	706	56.0	-171428.0	-2861.0	-35361.0
29	17	52	46	707	57.0	-173722.0	-2865.0	-35130.0
29	17	52	46	708	58.0	-176896.0	-2722.0	-37656.0
29	17	52	46	709	59.0	-181109.0	-2664.0	-43141.0
29	17	52	46	710	60.0	-186259.0	-2583.0	-45284.0
29	17	52	46	710	61.0	-191736.0	-2479.0	-45897.0
29	17	52	46	711	62.0	-196740.0	-2331.0	-45241.0
29	17	52	46	712	63.0	-200386.0	-2246.0	-45291.0
29	17	52	46	713	64.0	-200722.0	-2174.0	-44188.0
29	17	52	46	713	65.0	-194069.0	-2067.0	-44443.0
29	17	52	46	714	67.0	-165896.0	-1885.0	-44357.0
29	17	52	46	715	68.0	-156510.0	-1749.0	-44212.0
29	17	52	46	715	69.0	-157214.0	-1588.0	-43116.0
29	17	52	46	716	70.0	-165572.0	-1486.0	-42305.0
29	17	52	46	717	71.0	-173279.0	-1440.0	-41757.0
29	17	52	46	717	72.0	-176446.0	-1312.0	-42097.0
29	17	52	46	745	73.0	-172312.0	-1181.0	-41374.0
29	17	52	46	746	74.0	-164341.0	-1084.0	-40924.0
29	17	52	46	747	75.0	-158954.0	-976.0	-38754.0
29	17	52	46	748	76.0	-155267.0	-894.0	-38043.0
29	17	52	46	791	77.0	-151701.0	-855.0	-37284.0
29	17	52	46	792	78.0	-147976.0	-694.0	-37247.0
29	17	52	46	837	79.0	-143575.0	-584.0	-37017.0
29	17	52	46	838	80.0	-139193.0	-499.0	-36738.0
29	17	52	46	839	81.0	-136131.0	-426.0	-36754.0
29	17	52	46	840	82.0	-135521.0	-319.0	-36076.0
29	17	52	46	840	83.0	-137379.0	-227.0	-36041.0
29	17	52	46	841	84.0	-140439.0	-123.0	-35301.0
29	17	52	46	842	85.0	-143452.0	-67.0	-34081.0
29	17	52	46	843	86.0	-145533.0	16.0	-33346.0
29	17	52	46	844	87.0	-145277.0	89.0	-34273.0
29	17	52	46	845	89.0	-137238.0	221.0	-33585.0
29	17	52	46	845	90.0	-131011.0	310.0	-33529.0
29	17	52	46	846	91.0	-124976.0	424.0	-33229.0
29	17	52	46	847	92.0	-119342.0	501.0	-32883.0
29	17	52	46	848	93.0	-114456.0	572.0	-31969.0
29	17	52	46	848	112.0	-203397.0	1741.0	-26103.0
29	17	52	46	849	113.0	-209620.0	1849.0	-25068.0
29	17	52	46	850	135.0	-186424.0	2613.0	-22248.0
29	17	52	46	850	136.0	-180963.0	2626.0	-21754.0
29	17	52	46	851	137.0	-174719.0	2716.0	-22047.0
29	17	52	46	852	138.0	-167549.0	2758.0	-22217.0
29	17	52	46	852	139.0	-160179.0	2719.0	-22708.0
29	17	52	46	853	140.0	-152994.0	2758.0	-22574.0
29	17	52	46	882	141.0	-146209.0	2813.0	-22576.0
29	17	52	46	883	142.0	-138970.0	2810.0	-23230.0
29	17	52	46	884	143.0	-131144.0	2863.0	-23897.0
29	17	52	46	885	144.0	-123820.0	2841.0	-23827.0
29	17	52	46	886	145.0	-117436.0	2826.0	-23953.0
29	17	52	46	887	146.0	-112085.0	2831.0	-24291.0
29	17	52	46	888	147.0	-107068.0	2816.0	-23336.0
29	17	52	46	889	148.0	-102656.0	2864.0	-22021.0
29	17	52	46	890	149.0	-98493.0	2849.0	-22501.0
29	17	52	46	891	150.0	-93941.0	2916.0	-22327.0
29	17	52	46	892	151.0	-89422.0	2943.0	-21633.0
29	17	52	46	892	152.0	-86093.0	2842.0	-21109.0
29	17	52	46	893	153.0	-84872.0	2906.0	-20589.0
29	17	52	46	894	154.0	-85932.0	2945.0	-19162.0
29	17	52	46	894	155.0	-87777.0	2863.0	-18542.0
29	17	52	46	895	157.0	-90747.0	2918.0	-17811.0
29	17	52	46	896	158.0	-93005.0	2937.0	-17712.0
29	17	52	46	897	159.0	-96891.0	2918.0	-19082.0
29	17	52	46	897	160.0	-101734.0	2965.0	-19221.0
29	17	52	46	898	161.0	-106974.0	2954.0	-18118.0
29	17	52	46	899	162.0	-112239.0	2967.0	-18234.0
29	17	52	46	927	163.0	-116872.0	2992.0	-18945.0
29	17	52	46	928	164.0	-120160.0	3045.0	-17631.0
29	17	52	46	929	165.0	-121653.0	3083.0	-16518.0
29	17	52	46	930	166.0	-121806.0	3053.0	-16819.0
29	17	52	46	930	167.0	-120659.0	3021.0	-15971.0
29	17	52	46	931	168.0	-117463.0	3028.0	-15895.0
29	17	52	46	932	169.0	-112403.0	3028.0	-16860.0
29	17	52	46	933	170.0	-104756.0	3029.0	-16524.0
29	17	52	46	934	171.0	-94907.0	3036.0	-14156.0
29	17	52	46	934	172.0	-84023.0	3023.0	-16261.0
29	17	52	46	935	173.0	-74021.0	3049.0	-16041.0
29	17	52	46	936	174.0	-64705.0	3008.0	-13621.0
29	17	52	46	937	175.0	-54987.0	2988.0	-9619.0
29	17	52	46	938	176.0	-45158.0	3036.0	-8264.0
29	17	52	46	938	177.0	-34290.0	3044.0	-7993.0
29	17	52	46	939	179.0	-9949.0	3009.0	-7477.0
29	17	52	46	940	180.0	72.0	3044.0	-11544.0
29	17	52	46	940	181.0	9693.0	3003.0	-10477.0
29	17	52	46	941	182.0	20386.0	2972.0	-9552.0
29	17	52	46	942	183.0	32439.0	2958.0	-8377.0
29	17	52	46	942	184.0	46524.0	3043.0	-8729.0
29	17	52	46	943	185.0	62901.0	3071.0	-8834.0
29	17	52	46	972	186.0	80157.0	3076.0	-8651.0
29	17	52	46	973	187.0	98351.0	2995.0	-9607.0
29	17	52	46	974	188.0	115823.0	2901.0	-9764.0
29	17	52	46	975	189.0	134199.0	2971.0	-8048.0
29	17	52	46	976	190.0	156059.0	2991.0	-7779.0
29	17	52	46	977	191.0	178943.0	3011.0	-8775.0
29	17	52	46	977	192.0	200455.0	2947.0	-8456.0
29	17	52	46	978	193.0	220428.0	2921.0	-6100.0
29	17	52	46	979	194.0	236642.0	2856.0	-8477.0
29	17	52	46	979	195.0	247389.0	2811.0	-9802.0
29	17	52	46	980	196.0	252239.0	2784.0	-10027.0
29	17	52	46	981	197.0	250838.0	2791.0	-10024.0
29	17	52	47	16	198.0	239280.0	2754.0	-9102.0
29	17	52	47	17	199.0	225857.0	2727.0	-7611.0
29	17	52	47	18	200.0	213563.0	2701.0	-6921.0
29	17	52	47	19	202.0	192060.0	2625.0	-9187.0
29	17	52	47	20	203.0	177879.0	2607.0	-12282.0
29	17	52	47	20	204.0	157157.0	2577.0	-14626.0
29	17	52	47	21	205.0	132519.0	2529.0	-16039.0
29	17	52	47	22	206.0	109421.0	2478.0	-17047.0
29	17	52	47	23	207.0	88781.0	2471.0	-16195.0
29	17	52	47	24	208.0	69023.0	2454.0	-14202.0
29	17	52	47	25	209.0	49544.0	2399.0	-13707.0
29	17	52	47	25	210.0	29888.0	2379.0	-14236.0
29	17	52	47	26	211.0	8023.0	2268.0	-12310.0
29	17	52	47	27	212.0	-16274.0	2229.0	-15344.0
29	17	52	47	28	213.0	-43281.0	2218.0	-17101.0
29	17	52	47	28	214.0	-72921.0	2119.0	-17151.0
29	17	52	47	29	224.0	-359121.0	1706.0	-1132.0
29	17	52	47	30	225.0	-372723.0	1686.0	-1484.0
29	17	52	47	30	226.0	-383225.0	1596.0	2003.0
29	17	52	47	31	227.0	-389997.0	1596.0	1982.0
29	17	52	47	32	228.0	-394199.0	1564.0	677.0
29	17	52	47	32	229.0	-399472.0	1545.0	181.0
29	17	52	47	33	230.0	-403924.0	1508.0	-787.0
29	17	52	47	61	231.0	-411106.0	1491.0	-1234.0
29	17	52	47	62	232.0	-425212.0	1459.0	-599.0
29	17	52	47	63	233.0	-437649.0	1438.0	-301.0
29	17	52	47	64	234.0	-444719.0	1376.0	979.0
29	17	52	47	65	235.0	-450781.0	1391.0	2561.0
29	17	52	47	66	236.0	-455486.0	1329.0	730.0
29	17	52	47	66	237.0	-457913.0	1274.0	-1928.0
29	17	52	47	67	238.0	-460092.0	1217.0	-3196.0
29	17	52	47	68	239.0	-463549.0	1154.0	-4549.0
29	17	52	47	69	240.0	-467238.0	1099.0	-6289.0
29	17	52	47	70	241.0	-471474.0	1061.0	-7782.0
29	17	52	47	71	242.0	-474030.0	966.0	-8562.0
29	17	52	47	71	243.0	-472881.0	903.0	-9467.0
29	17	52	47	72	244.0	-468560.0	864.0	-9117.0
29	17	52	47	73	245.0	-465394.0	818.0	-10907.0
29	17	52	47	73	247.0	-455910.0	752.0	-13207.0
29	17	52	47	74	248.0	-444438.0	797.0	-15442.0
29	17	52	47	75	249.0	-430272.0	720.0	-18269.0
29	17	52	47	75	250.0	-414776.0	654.0	-21480.0
29	17	52	47	76	251.0	-397447.0	559.0	-22461.0
29	17	52	47	77	252.0	-379789.0	538.0	-21125.0
29	17	52	47	108	253.0	-358931.0	496.0	-19689.0
29	17	52	47	109	254.0	-334331.0	464.0	-20597.0
29	17	52	47	110	255.0	-309642.0	460.0	-22113.0
29	17	52	47	110	0.0	-286967.0	301.0	-22782.0
29	17	52	47	111	1.0	-266200.0	275.0	-22637.0
29	17	52	47	112	2.0	-247352.0	265.0	-22446.0
29	17	52	47	113	3.0	-232749.0	211.0	-21217.0
29	17	52	47	113	4.0	-220517.0	106.0	-20141.0
29	17	52	47	114	5.0	-206039.0	133.0	-19240.0
29	17	52	47	115	6.0	-189562.0	46.0	-18768.0
29	17	52	47	115	7.0	-173659.0	-49.0	-22026.0
29	17	52	47	198	8.0	-160054.0	-72.0	-24722.0
29	17	52	47	199	9.0	-147866.0	-136.0	-26128.0
29	17	52	47	200	10.0	-134895.0	-262.0	-26968.0
29	17	52	47	201	11.0	-120356.0	-308.0	-27848.0
29	17	52	47	202	13.0	-86479.0	-489.0	-26666.0
29	17	52	47	202	14.0	-66462.0	-492.0	-23149.0
29	17	52	47	203	15.0	-45278.0	-507.0	-20161.0
29	17	52	47	204	16.0	-24914.0	-571.0	-17673.0
29	17	52	47	205	17.0	-5323.0	-607.0	-20849.0
29	17	52	47	206	18.0	13893.0	-640.0	-24047.0
29	17	52	47	206	19.0	32815.0	-700.0	-25179.0
29	17	52	47	207	20.0	53785.0	-757.0	-25464.0
29	17	52	47	208	21.0	74694.0	-856.0	-26237.0
29	17	52	47	209	22.0	92594.0	-939.0	-25203.0
29	17	52	47	209	23.0	106972.0	-943.0	-24131.0
29	17	52	47	210	24.0	117759.0	-1037.0	-23801.0
29	17	52	47	211	58.0	123999.0	-2847.0	-23486.0
29	17	52	47	211	59.0	100384.0	-2917.0	-21976.0
29	17	52	47	212	60.0	76683.0	-2942.0	-20555.0
29	17	52	47	213	61.0	53368.0	-2914.0	-19986.0
29	17	52	47	213	62.0	31066.0	-2971.0	-19225.0
29	17	52	47	214	63.0	9804.0	-3049.0	-19537.0
29	17	52	47	215	64.0	-11137.0	-3153.0	-18976.0
29	17	52	47	242	65.0	-32051.0	-3054.0	-16104.0
29	17	52	47	243	66.0	-52347.0	-3135.0	-12873.0
29	17	52	47	244	67.0	-72897.0	-3252.0	-11934.0
29	17	52	47	245	68.0	-92507.0	-3278.0	-11649.0
29	17	52	47	246	69.0	-110495.0	-3259.0	-8354.0
29	17	52	47	247	70.0	-128517.0	-3319.0	-5057.0
29	17	52	47	248	71.0	-145714.0	-3441.0	-6586.0
29	17	52	47	249	72.0	-162361.0	-3464.0	-7509.0
29	17	52	47	250	73.0	-178082.0	-3496.0	-9681.0
29	17	52	47	250	74.0	-193065.0	-3551.0	-10373.0
29	17	52	47	251	75.0	-207852.0	-3624.0	-8511.0
29	17	52	47	252	76.0	-222215.0	-3652.0	-9507.0
29	17	52	47	253	77.0	-235675.0	-3681.0	-8867.0
29	17	52	47	253	78.0	-248928.0	-3759.0	-9213.0
29	17	52	47	254	79.0	-261398.0	-3717.0	-9048.0
29	17	52	47	255	80.0	-274269.0	-3784.0	-8091.0
29	17	52	47	255	81.0	-287957.0	-3856.0	-7936.0
29	17	52	47	256	82.0	-304117.0	-3871.0	-9256.0
29	17	52	47	257	83.0	-321926.0	-3934.0	-10896.0
29	17	52	47	257	84.0	-340687.0	-3912.0	-14151.0
29	17	52	47	258	85.0	-362612.0	-3919.0	-13760.0
29	17	52	47	259	86.0	-391368.0	-3946.0	-14421.0
29	17	52	47	287	87.0	-423709.0	-3921.0	-14604.0
29	17	52	47	288	88.0	-439656.0	-3961.0	-16961.0
29	17	52	47	289	89.0	-435098.0	-4007.0	-16206.0
29	17	52	47	290	90.0	-422306.0	-4032.0	-16521.0
29	17	52	47	291	91.0	-406369.0	-4073.0	-16098.0
29	17	52	47	291	92.0	-393657.0	-4142.0	-16532.0
29	17	52	47	292	93.0	-386840.0	-4173.0	-15852.0
29	17	52	47	293	94.0	-386473.0	-4214.0	-15107.0
29	17	52	47	294	95.0	-394593.0	-4269.0	-17713.0
29	17	52	47	294	96.0	-406687.0	-4307.0	-18610.0
29	17	52	47	295	97.0	-423609.0	-4321.0	-17651.0
29	17	52	47	296	98.0	-445627.0	-4380.0	-18906.0
29	17	52	47	296	99.0	-472054.0	-4456.0	-19385.0
29	17	52	47	297	100.0	-494517.0	-4473.0	-18970.0
29	17	52	47	298	101.0	-511994.0	-4461.0	-19721.0
29	17	52	47	298	103.0	-525262.0	-4541.0	-16909.0
29	17	52	47	299	104.0	-527947.0	-4588.0	-17276.0
29	17	52	47	300	105.0	-529138.0	-4668.0	-14620.0
29	17	52	47	300	106.0	-529719.0	-4650.0	-11289.0
29	17	52	47	332	107.0	-531142.0	-4694.0	-12097.0
29	17	52	47	333	108.0	-532492.0	-4719.0	-12154.0
29	17	52	47	334	109.0	-534968.0	-4747.0	-11981.0
29	17	52	47	335	110.0	-536364.0	-4789.0	-14857.0
29	17	52	47	336	111.0	-535504.0	-4772.0	-16910.0
29	17	52	47	337	112.0	-531791.0	-4831.0	-15411.0
29	17	52	47	337	113.0	-526430.0	-4912.0	-16211.0
29	17	52	47	338	114.0	-517464.0	-4929.0	-14191.0
29	17	52	47	339	115.0	-507746.0	-4982.0	-11646.0
29	17	52	47	340	116.0	-497463.0	-5081.0	-13793.0
29	17	52	47	341	117.0	-487937.0	-5078.0	-12396.0
29	17	52	47	341	118.0	-479508.0	-5102.0	-8367.0
29	17	52	47	342	119.0	-473021.0	-5218.0	-7219.0
29	17	52	47	343	120.0	-467401.0	-5226.0	-6672.0
29	17	52	47	344	121.0	-461404.0	-5242.0	-6802.0
29	17	52	47	344	122.0	-455692.0	-5313.0	-7065.0
29	17	52	47	345	126.0	-442939.0	-5487.0	-9602.0
29	17	52	47	346	127.0	-441899.0	-5540.0	-7030.0
29	17	52	47	346	128.0	-441622.0	-5549.0	-6902.0
29	17	52	47	347	129.0	-442866.0	-5627.0	-2759.0
29	17	52	47	348	130.0	-443696.0	-5664.0	-7440.0
29	17	52	47	348	131.0	-445530.0	-5698.0	-11557.0
29	17	52	47	377	132.0	-448109.0	-5727.0	-11362.0
29	17	52	47	378	133.0	-451839.0	-5792.0	-8658.0
29	17	52	47	379	134.0	-457531.0	-5856.0	-6712.0
29	17	52	47	380	135.0	-463704.0	-5896.0	-2520.0
29	17	52	47	380	136.0	-468961.0	-5969.0	904.0
29	17	52	47	381	137.0	-475142.0	-6032.0	-7584.0
29	17	52	47	382	138.0	-481778.0	-6127.0	-10470.0
29	17	52	47	383	139.0	-489381.0	-6236.0	-11195.0
29	17	52	47	383	140.0	-493592.0	-6295.0	-8424.0
29	17	52	47	384	141.0	-499013.0	-6349.0	-4579.0
29	17	52	47	385	142.0	-503235.0	-6436.0	-904.0
29	17	52	47	386	143.0	-505450.0	-6458.0	-2712.0
29	17	52	47	386	144.0	-506947.0	-6562.0	-6362.0
29	17	52	47	387	145.0	-508974.0	-6707.0	-6968.0
29	17	52	47	388	146.0	-511409.0	-6739.0	-5636.0
29	17	52	47	388	148.0	-513622.0	-6841.0	-4965.0
29	17	52	47	389	149.0	-513659.0	-7032.0	-6289.0
29	17	52	47	390	150.0	-513976.0	-6986.0	-5484.0
29	17	52	47	390	151.0	-516721.0	-7017.0	-3581.0
29	17	52	47	391	152.0	-520452.0	-7183.0	-2609.0
29	17	52	47	392	153.0	-524375.0	-7278.0	-6116.0
29	17	52	47	422	154.0	-527831.0	-7302.0	-6630.0
29	17	52	47	423	155.0	-530016.0	-7328.0	-7419.0
29	17	52	47	424	156.0	-531076.0	-7410.0	-5149.0
29	17	52	47	425	157.0	-534221.0	-7512.0	-2219.0
29	17	52	47	426	158.0	-535414.0	-7599.0	-4587.0
29	17	52	47	427	159.0	-535566.0	-7671.0	-4293.0
29	17	52	47	428	160.0	-534052.0	-7727.0	-3067.0
29	17	52	47	428	161.0	-531060.0	-7820.0	-3796.0
29	17	52	47	429	162.0	-527935.0	-7874.0	-1319.0
29	17	52	47	430	163.0	-527134.0	-7936.0	1255.0
29	17	52	47	431	164.0	-526146.0	-7986.0	-2188.0
29	17	52	47	431	165.0	-522090.0	-7994.0	-4591.0
29	17	52	47	432	166.0	-515152.0	-8006.0	-3547.0
29	17	52	47	433	167.0	-505541.0	-8007.0	-1302.0
29	17	52	47	434	168.0	-493476.0	-8022.0	-3986.0
29	17	52	47	434	170.0	-463680.0	-8149.0	-4863.0
29	17	52	47	435	171.0	-447849.0	-8171.0	-3525.0
29	17	52	47	436	172.0	-432586.0	-8125.0	-5791.0
29	17	52	47	436	173.0	-418319.0	-8082.0	-5772.0
29	17	52	47	437	174.0	-405140.0	-8056.0	-3305.0
29	17	52	47	438	175.0	-394264.0	-7991.0	-2316.0
29	17	52	47	467	176.0	-387602.0	-7981.0	-5002.0
29	17	52	47	513	177.0	-382216.0	-7932.0	-3244.0
29	17	52	47	513	178.0	-378552.0	-7896.0	-2316.0
29	17	52	47	514	179.0	-376480.0	-7821.0	-1193.0
29	17	52	47	515	180.0	-373617.0	-7776.0	-3019.0
29	17	52	47	516	181.0	-369779.0	-7714.0	-3486.0
29	17	52	47	517	182.0	-367042.0	-7642.0	-1968.0
29	17	52	47	518	183.0	-365299.0	-7594.0	-1317.0
29	17	52	47	519	184.0	-363317.0	-7527.0	-3516.0
29	17	52	47	520	185.0	-360419.0	-7453.0	-2939.0
29	17	52	47	520	186.0	-358076.0	-7340.0	2971.0
29	17	52	47	521	187.0	-357263.0	-7216.0	6293.0
29	17	52	47	522	188.0	-352772.0	-7201.0	2604.0
29	17	52	47	523	189.0	-347843.0	-7125.0	-1634.0
29	17	52	47	523	190.0	-340652.0	-7036.0	-1365.0
29	17	52	47	524	193.0	-305285.0	-6729.0	1926.0
29	17	52	47	525	194.0	-294569.0	-6567.0	445.0
29	17	52	47	525	215.0	-122074.0	-4032.0	9780.0
29	17	52	47	526	216.0	-115538.0	-3914.0	10082.0
29	17	52	47	527	217.0	-108847.0	-3816.0	6454.0
29	17	52	47	527	218.0	-102506.0	-3701.0	4980.0
29	17	52	47	528	219.0	-98544.0	-3611.0	7542.0
29	17	52	47	529	220.0	-99640.0	-3432.0	10324.0
29	17	52	47	529	221.0	-105089.0	-3262.0	11103.0
29	17	52	47	557	222.0	-115104.0	-3006.0	7874.0
29	17	52	47	558	223.0	-124639.0	-2886.0	5640.0
29	17	52	47	559	224.0	-129149.0	-2847.0	7510.0
29	17	52	47	560	225.0	-129927.0	-2767.0	10171.0
29	17	52	47	561	226.0	-128941.0	-2616.0	10799.0
29	17	52	47	561	227.0	-138001.0	-2541.0	8216.0
29	17	52	47	562	228.0	-156494.0	-2431.0	6948.0
29	17	52	47	563	229.0	-176865.0	-2266.0	7873.0
29	17	52	47	564	230.0	-201068.0	-2178.0	9567.0
29	17	52	47	565	231.0	-222649.0	-2170.0	11557.0
29	17	52	47	565	232.0	-239403.0	-2081.0	8070.0
29	17	52	47	566	233.0	-254978.0	-1907.0	6856.0
29	17	52	47	567	234.0	-267400.0	-1787.0	7746.0
29	17	52	47	567	235.0	-272721.0	-1718.0	9118.0
29	17	52	47	568	236.0	-273798.0	-1688.0	7510.0
29	17	52	47	569	237.0	-269479.0	-1625.0	4991.0
29	17	52	47	569	238.0	-261989.0	-1477.0	6651.0
29	17	52	47	570	239.0	-253592.0	-1389.0	8979.0
29	17	52	47	571	240.0	-244971.0	-1229.0	8116.0
29	17	52	47	571	241.0	-236460.0	-1122.0	5459.0
29	17	52	47	572	242.0	-229046.0	-971.0	6163.0
29	17	52	47	573	243.0	-224164.0	-893.0	9203.0
29	17	52	47	602	244.0	-218455.0	-862.0	10250.0
29	17	52	47	603	245.0	-212957.0	-779.0	7099.0
29	17	52	47	604	246.0	-205076.0	-704.0	6747.0
29	17	52	47	604	247.0	-195801.0	-631.0	9068.0
29	17	52	47	605	248.0	-185491.0	-518.0	11304.0
29	17	52	47	606	249.0	-177544.0	-414.0	11902.0
29	17	52	47	607	250.0	-171324.0	-355.0	10118.0
29	17	52	47	608	251.0	-168109.0	-281.0	11081.0
29	17	52	47	608	252.0	-169621.0	-206.0	13310.0
29	17	52	47	609	253.0	-174392.0	-144.0	15962.0
29	17	52	47	610	254.0	-182976.0	-64.0	14337.0
29	17	52	47	610	255.0	-193054.0	21.0	11061.0
29	17	52	47	611	0.0	-200102.0	108.0	10283.0
29	17	52	47	612	1.0	-205910.0	161.0	12749.0
29	17	52	47	613	2.0	-213773.0	221.0	12766.0
29	17	52	47	613	4.0	-233247.0	414.0	13814.0
29	17	52	47	614	5.0	-248959.0	533.0	13600.0
29	17	52	47	615	6.0	-263857.0	605.0	11130.0
29	17	52	47	615	7.0	-281639.0	702.0	12132.0
29	17	52	47	616	8.0	-302774.0	768.0	15081.0
29	17	52	47	616	9.0	-325724.0	853.0	13856.0
29	17	52	47	647	10.0	-351848.0	955.0	12081.0
29	17	52	47	647	11.0	-379266.0	1034.0	13184.0
29	17	52	47	648	12.0	-409508.0	1073.0	16606.0
29	17	52	47	649	13.0	-436136.0	1135.0	15850.0
29	17	52	47	650	14.0	-463328.0	1158.0	13391.0
29	17	52	47	650	15.0	-493145.0	1298.0	14595.0
29	17	52	47	651	16.0	-522118.0	1429.0	16348.0
29	17	52	47	652	17.0	-554097.0	1473.0	13820.0
29	17	52	47	653	18.0	-587275.0	1500.0	14080.0
29	17	52	47	653	19.0	-620223.0	1537.0	15623.0
29	17	52	47	654	20.0	-654196.0	1617.0	17622.0
29	17	52	47	655	21.0	-687479.0	1701.0	16512.0
29	17	52	47	656	22.0	-723024.0	1659.0	13021.0
29	17	52	47	656	23.0	-761151.0	1703.0	13791.0
29	17	52	47	657	24.0	-798850.0	1910.0	14445.0
29	17	52	47	658	26.0	-866722.0	1758.0	9487.0
29	17	52	47	658	27.0	-896047.0	1873.0	11574.0
29	17	52	47	659	28.0	-916248.0	1984.0	11935.0
29	17	52	47	660	29.0	-939355.0	2079.0	9690.0
29	17	52	47	660	30.0	-961399.0	2211.0	9625.0
29	17	52	47	661	31.0	-981301.0	2239.0	9916.0
29	17	52	47	662	32.0	-998132.0	2247.0	8649.0
29	17	52	47	693	33.0	-1013689.0	2383.0	9368.0
29	17	52	47	694	34.0	-1011730.0	2394.0	10686.0
29	17	52	47	695	35.0	-988887.0	2490.0	8046.0
29	17	52	47	695	36.0	-957364.0	2446.0	7549.0
29	17	52	47	696	37.0	-920317.0	2393.0	9533.0
29	17	52	47	697	38.0	-877170.0	2279.0	11417.0
29	17	52	47	698	39.0	-833651.0	2516.0	11924.0
29	17	52	47	699	40.0	-790411.0	2566.0	11371.0
29	17	52	47	699	41.0	-747327.0	2543.0	13290.0
29	17	52	47	700	42.0	-705727.0	2513.0	11978.0
29	17	52	47	701	43.0	-664279.0	2518.0	12703.0
29	17	52	47	702	44.0	-623624.0	2571.0	14093.0
29	17	52	47	702	45.0	-582329.0	2602.0	16663.0
29	17	52	47	703	46.0	-542483.0	2595.0	16250.0
29	17	52	47	704	47.0	-505066.0	2593.0	14526.0
29	17	52	47	704	49.0	-429008.0	2648.0	15644.0
29	17	52	47	705	50.0	-391617.0	2686.0	14181.0
29	17	52	47	705	51.0	-354388.0	2725.0	14395.0
29	17	52	47	706	52.0	-318425.0	2769.0	18309.0
29	17	52	47	707	53.0	-284810.0	2820.0	19999.0
29	17	52	47	707	54.0	-254292.0	2884.0	17113.0
29	17	52	47	737	55.0	-225301.0	2864.0	17193.0
29	17	52	47	738	56.0	-196074.0	2889.0	17330.0
29	17	52	47	738	57.0	-167750.0	2909.0	16758.0
29	17	52	47	739	58.0	-139641.0	2978.0	16183.0
29	17	52	47	740	59.0	-109922.0	2976.0	16863.0
29	17	52	47	741	60.0	-80149.0	3011.0	16202.0
29	17	52	47	742	61.0	-50304.0	3045.0	15258.0
29	17	52	47	742	62.0	-19697.0	3043.0	16039.0
29	17	52	47	743	63.0	12868.0	3133.0	16699.0
29	17	52	47	744	64.0	49518.0	3142.0	15654.0
29	17	52	47	745	65.0	87347.0	3153.0	16150.0
29	17	52	47	745	66.0	124033.0	3157.0	17515.0
29	17	52	47	746	67.0	163433.0	3165.0	17099.0
29	17	52	47	747	68.0	221284.0	3233.0	16639.0
29	17	52	47	748	69.0	291171.0	3224.0	16920.0
29	17	52	47	748	71.0	423235.0	3316.0	14465.0
29	17	52	47	749	72.0	483954.0	3329.0	14211.0
29	17	52	47	750	73.0	541164.0	3343.0	13599.0
29	17	52	47	750	74.0	591210.0	3386.0	14278.0
29	17	52	47	751	75.0	632508.0	3389.0	15064.0
29	17	52	47	752	76.0	666356.0	3438.0	15701.0
29	17	52	47	752	77.0	692821.0	3529.0	16584.0
29	17	52	47	782	78.0	707385.0	3584.0	15827.0
29	17	52	47	782	79.0	715048.0	3661.0	17207.0
29	17	52	47	783	80.0	718293.0	3727.0	16976.0
29	17	52	47	784	81.0	715739.0	3701.0	15159.0
29	17	52	47	785	82.0	706832.0	3663.0	15764.0
29	17	52	47	785	83.0	692254.0	3628.0	18478.0
29	17	52	47	786	84.0	672768.0	3664.0	17314.0
29	17	52	47	787	85.0	643919.0	3648.0	16253.0
29	17	52	47	788	86.0	605001.0	3698.0	17192.0
29	17	52	47	788	87.0	563093.0	3710.0	16363.0
29	17	52	47	789	88.0	516729.0	3696.0	16041.0
29	17	52	47	790	89.0	466754.0	3774.0	18798.0
29	17	52	47	790	90.0	413884.0	3799.0	27781.0
29	17	52	47	791	91.0	359691.0	3773.0	29923.0
29	17	52	47	792	92.0	299213.0	3821.0	27546.0
29	17	52	47	792	94.0	169807.0	3799.0	22729.0
29	17	52	47	793	95.0	104896.0	3816.0	21335.0
29	17	52	47	794	96.0	37889.0	3820.0	21646.0
29	17	52	47	794	97.0	-22947.0	3794.0	20333.0
29	17	52	47	795	98.0	-83226.0	3787.0	20838.0
29	17	52	47	796	99.0	-144447.0	3802.0	21210.0
29	17	52	47	827	100.0	-200374.0	3780.0	23308.0
29	17	52	47	828	101.0	-257509.0	3759.0	28355.0
29	17	52	47	828	102.0	-309790.0	3787.0	29777.0
29	17	52	47	829	103.0	-355967.0	3769.0	27215.0
29	17	52	47	830	104.0	-397216.0	3746.0	25294.0
29	17	52	47	830	105.0	-437824.0	3688.0	26044.0
29	17	52	47	831	106.0	-468921.0	3661.0	26170.0
29	17	52	47	832	107.0	-495896.0	3627.0	23481.0
29	17	52	47	833	108.0	-517604.0	3586.0	22428.0
29	17	52	47	833	109.0	-533961.0	3556.0	24196.0
29	17	52	47	834	110.0	-543030.0	3518.0	25659.0
29	17	52	47	835	111.0	-546459.0	3444.0	25908.0
29	17	52	47	835	112.0	-545208.0	3376.0	25383.0
29	17	52	47	836	113.0	-537859.0	3349.0	23368.0
29	17	52	47	837	116.0	-493125.0	3188.0	28516.0
29	17	52	47	872	117.0	-469422.0	3145.0	28088.0
29	17	52	47	917	118.0	-444920.0	3120.0	27556.0
29	17	52	47	918	119.0	-418877.0	3093.0	26374.0
29	17	52	47	919	120.0	-389021.0	3033.0	27422.0
29	17	52	47	920	121.0	-359743.0	2944.0	29809.0
29	17	52	47	921	122.0	-335066.0	2905.0	29018.0
29	17	52	47	922	123.0	-311457.0	2871.0	27776.0
29	17	52	47	923	124.0	-291994.0	2846.0	31243.0
29	17	52	47	923	125.0	-279020.0	2794.0	33920.0
29	17	52	47	924	126.0	-269719.0	2692.0	31196.0
29	17	52	47	925	127.0	-264942.0	2598.0	33122.0
29	17	52	47	926	128.0	-267751.0	2485.0	36524.0
29	17	52	47	927	129.0	-275448.0	2427.0	33428.0
29	17	52	47	928	130.0	-289985.0	2379.0	32376.0
29	17	52	47	929	131.0	-310350.0	2263.0	33370.0
29	17	52	47	929	139.0	-567349.0	1550.0	31198.0
29	17	52	47	930	161.0	-341043.0	-848.0	39202.0
29	17	52	47	931	162.0	-292376.0	-974.0	39636.0
29	17	52	47	932	163.0	-233317.0	-1079.0	37721.0
29	17	52	47	932	164.0	-167126.0	-1172.0	37270.0
29	17	52	47	933	165.0	-96114.0	-1259.0	37665.0
29	17	52	47	934	166.0	-22814.0	-1371.0	40431.0
29	17	52	47	934	167.0	63349.0	-1458.0	40000.0
29	17	52	48	7	168.0	150808.0	-1570.0	40362.0
29	17	52	48	8	169.0	222273.0	-1661.0	41634.0
29	17	52	48	9	170.0	275848.0	-1765.0	42223.0
29	17	52	48	10	171.0	316369.0	-1900.0	40254.0
29	17	52	48	11	172.0	342604.0	-2037.0	37969.0
29	17	52	48	12	173.0	362331.0	-2148.0	38137.0
29	17	52	48	13	174.0	376951.0	-2297.0	39387.0
29	17	52	48	14	175.0	391619.0	-2390.0	41994.0
29	17	52	48	14	176.0	416625.0	-2537.0	40401.0
29	17	52	48	15	177.0	446163.0	-2664.0	36189.0
29	17	52	48	16	178.0	478227.0	-2756.0	35822.0
29	17	52	48	17	179.0	512409.0	-2909.0	36698.0
29	17	52	48	18	180.0	546739.0	-3076.0	37081.0
29	17	52	48	18	181.0	576163.0	-3192.0	35353.0
29	17	52	48	19	182.0	599653.0	-3347.0	36703.0
29	17	52	48	20	183.0	608001.0	-3457.0	37901.0
29	17	52	48	21	206.0	297992.0	-6587.0	47881.0
29	17	52	48	21	207.0	274044.0	-6696.0	48332.0
29	17	52	48	22	208.0	250651.0	-6775.0	47494.0
29	17	52	48	22	209.0	227243.0	-6858.0	47307.0
29	17	52	48	23	210.0	202674.0	-6938.0	53170.0
29	17	52	48	24	211.0	176968.0	-7036.0	53042.0
29	17	52	48	25	212.0	151185.0	-7129.0	52481.0
29	17	52	48	162	213.0	127893.0	-7214.0	53462.0
29	17	52	48	163	214.0	105248.0	-7283.0	58306.0
29	17	52	48	164	215.0	77794.0	-7354.0	65269.0
29	17	52	48	165	216.0	50868.0	-7437.0	65307.0
29	17	52	48	165	217.0	20623.0	-7575.0	66128.0
29	17	52	48	166	218.0	-11854.0	-7639.0	65633.0
29	17	52	48	166	219.0	-48112.0	-7703.0	61576.0
29	17	52	48	167	220.0	-88002.0	-7773.0	56978.0
29	17	52	48	168	221.0	-134457.0	-7870.0	53508.0
29	17	52	48	169	222.0	-181844.0	-7931.0	50846.0
29	17	52	48	169	223.0	-231417.0	-8014.0	48441.0
29	17	52	48	170	224.0	-282875.0	-8095.0	49572.0
29	17	52	48	171	225.0	-330986.0	-8180.0	51521.0
29	17	52	48	171	226.0	-376218.0	-8253.0	48160.0
29	17	52	48	172	227.0	-419637.0	-8299.0	48556.0
29	17	52	48	172	228.0	-463537.0	-8391.0	48748.0
29	17	52	48	173	229.0	-505482.0	-8446.0	46499.0
29	17	52	48	174	230.0	-545417.0	-8472.0	46272.0
29	17	52	48	174	231.0	-583536.0	-8502.0	47779.0
29	17	52	48	175	232.0	-619756.0	-8542.0	44286.0
29	17	52	48	175	233.0	-653611.0	-8574.0	43691.0
29	17	52	48	176	234.0	-685440.0	-8607.0	43993.0
29	17	52	48	177	235.0	-716872.0	-8616.0	44883.0
29	17	52	48	177	236.0	-748009.0	-8627.0	43103.0
29	17	52	48	178	237.0	-777614.0	-8660.0	43040.0
29	17	52	48	178	238.0	-804729.0	-8684.0	45071.0
29	17	52	48	179	239.0	-828569.0	-8746.0	42135.0
29	17	52	48	180	240.0	-848261.0	-8766.0	41137.0
29	17	52	48	180	241.0	-863151.0	-8746.0	40638.0
29	17	52	48	181	242.0	-872344.0	-8748.0	39229.0
29	17	52	48	181	243.0	-871209.0	-8743.0	40841.0
29	17	52	48	182	244.0	-869743.0	-8753.0	42886.0
29	17	52	48	183	245.0	-863424.0	-8776.0	43516.0
29	17	52	48	183	246.0	-849994.0	-8734.0	41802.0
29	17	52	48	184	247.0	-833122.0	-8669.0	40328.0
29	17	52	48	185	248.0	-814851.0	-8653.0	39788.0
29	17	52	48	185	249.0	-796501.0	-8636.0	38950.0
29	17	52	48	186	251.0	-761311.0	-8576.0	42278.0
29	17	52	48	186	252.0	-737400.0	-8512.0	42629.0
29	17	52	48	187	253.0	-705659.0	-8437.0	43183.0
29	17	52	48	188	254.0	-667040.0	-8367.0	43056.0
29	17	52	48	189	255.0	-620356.0	-8296.0	43339.0
29	17	52	48	190	0.0	-569178.0	-8224.0	42738.0
29	17	52	48	191	1.0	-518162.0	-8143.0	43054.0
29	17	52	48	191	2.0	-468277.0	-8063.0	45453.0
29	17	52	48	192	3.0	-418444.0	-8004.0	44331.0
29	17	52	48	193	4.0	-370393.0	-7926.0	43301.0
29	17	52	48	193	5.0	-326601.0	-7804.0	42674.0
29	17	52	48	194	6.0	-284727.0	-7756.0	42619.0
29	17	52	48	195	7.0	-246929.0	-7650.0	42363.0
29	17	52	48	196	8.0	-211874.0	-7538.0	44919.0
29	17	52	48	196	9.0	-180711.0	-7476.0	46252.0
29	17	52	48	197	10.0	-153411.0	-7401.0	47041.0
29	17	52	48	198	11.0	-130176.0	-7309.0	45974.0
29	17	52	48	198	12.0	-111010.0	-7203.0	44391.0
29	17	52	48	199	13.0	-95192.0	-7110.0	44046.0
29	17	52	48	200	14.0	-84574.0	-7006.0	45320.0
29	17	52	48	200	15.0	-78149.0	-6887.0	47069.0
29	17	52	48	201	17.0	-64317.0	-6666.0	48287.0
29	17	52	48	201	18.0	-53983.0	-6559.0	47934.0
29	17	52	48	202	19.0	-45857.0	-6419.0	48396.0
29	17	52	48	203	20.0	-35976.0	-6280.0	48009.0
29	17	52	48	203	21.0	-24346.0	-6174.0	46368.0
29	17	52	48	204	40.0	62626.0	-3724.0	47726.0
29	17	52	48	204	41.0	95512.0	-3581.0	40201.0
29	17	52	48	205	42.0	120949.0	-3442.0	33663.0
29	17	52	48	206	43.0	138368.0	-3266.0	27741.0
29	17	52	48	206	44.0	146293.0	-3121.0	23913.0
29	17	52	48	207	45.0	145565.0	-2964.0	23064.0
29	17	52	48	246	46.0	136196.0	-2812.0	23109.0
29	17	52	48	267	47.0	121254.0	-2660.0	24530.0
29	17	52	48	268	48.0	104532.0	-2495.0	29520.0
29	17	52	48	269	49.0	87213.0	-2348.0	37799.0
29	17	52	48	269	50.0	71624.0	-2237.0	42631.0
29	17	52	48	270	51.0	60488.0	-2100.0	44726.0
29	17	52	48	270	52.0	51141.0	-1957.0	46323.0
29	17	52	48	271	53.0	43153.0	-1832.0	48071.0
29	17	52	48	272	54.0	32348.0	-1712.0	48358.0
29	17	52	48	272	55.0	18724.0	-1566.0	49425.0
29	17	52	48	273	56.0	2811.0	-1439.0	47278.0
29	17	52	48	273	57.0	-14613.0	-1312.0	47139.0
29	17	52	48	274	58.0	-32446.0	-1211.0	47404.0
29	17	52	48	275	59.0	-47009.0	-1074.0	46121.0
29	17	52	48	275	60.0	-59561.0	-944.0	46061.0
29	17	52	48	276	69.0	-208614.0	159.0	46706.0
29	17	52	48	277	77.0	-244178.0	901.0	49916.0
29	17	52	48	277	78.0	-232576.0	983.0	50709.0
29	17	52	48	278	79.0	-221089.0	1062.0	47283.0
29	17	52	48	278	80.0	-207640.0	1142.0	44203.0
29	17	52	48	279	81.0	-193703.0	1228.0	42172.0
29	17	52	48	280	82.0	-180916.0	1318.0	40544.0
29	17	52	48	280	83.0	-170671.0	1410.0	35076.0
29	17	52	48	281	84.0	-163804.0	1474.0	32021.0
29	17	52	48	291	85.0	-158355.0	1534.0	31410.0
29	17	52	48	292	86.0	-153224.0	1624.0	25273.0
29	17	52	48	293	87.0	-148994.0	1696.0	18906.0
29	17	52	48	293	88.0	-145732.0	1724.0	12889.0
29	17	52	48	294	89.0	-142823.0	1791.0	6913.0
29	17	52	48	295	90.0	-138691.0	1863.0	1171.0
29	17	52	48	296	91.0	-132331.0	1891.0	-804.0
29	17	52	48	296	92.0	-125384.0	1882.0	-2202.0
29	17	52	48	297	93.0	-119054.0	1943.0	-8637.0
29	17	52	48	311	94.0	-114942.0	1997.0	-12707.0
29	17	52	48	312	95.0	-114002.0	2054.0	-16566.0
29	17	52	48	313	96.0	-116337.0	2097.0	-19850.0
29	17	52	48	313	97.0	-121889.0	2136.0	-24314.0
29	17	52	48	314	98.0	-131196.0	2179.0	-28724.0
29	17	52	48	315	99.0	-145302.0	2212.0	-33192.0
29	17	52	48	315	100.0	-163014.0	2218.0	-38184.0
29	17	52	48	337	101.0	-182099.0	2213.0	-42323.0
29	17	52	48	337	102.0	-201592.0	2251.0	-44751.0
29	17	52	48	338	103.0	-220921.0	2278.0	-44212.0
29	17	52	48	339	104.0	-239014.0	2273.0	-42999.0
29	17	52	48	339	105.0	-255147.0	2265.0	-44037.0
29	17	52	48	340	106.0	-269389.0	2267.0	-43684.0
29	17	52	48	341	107.0	-279496.0	2266.0	-19925.0
29	17	52	48	341	108.0	-286742.0	2272.0	11229.0
29	17	52	48	342	109.0	-294184.0	2258.0	26595.0
29	17	52	48	343	110.0	-301765.0	2246.0	34203.0
29	17	52	48	343	111.0	-308139.0	2244.0	42517.0
29	17	52	48	344	112.0	-314169.0	2206.0	48488.0
29	17	52	48	345	113.0	-321961.0	2188.0	52439.0
29	17	52	48	345	114.0	-329944.0	2187.0	54735.0
29	17	52	48	346	115.0	-337884.0	2134.0	54541.0
29	17	52	48	347	116.0	-343284.0	2097.0	54881.0
29	17	52	48	347	117.0	-343531.0	2066.0	57049.0
29	17	52	48	348	118.0	-338654.0	2076.0	59554.0
29	17	52	48	349	119.0	-327332.0	2061.0	59473.0
29	17	52	48	356	120.0	-310931.0	2037.0	59456.0
29	17	52	48	357	121.0	-290341.0	2006.0	59526.0
29	17	52	48	384	122.0	-265018.0	1962.0	58274.0
29	17	52	48	385	123.0	-235583.0	1938.0	57983.0
29	17	52	48	386	124.0	-202984.0	1898.0	60148.0
29	17	52	48	386	125.0	-167771.0	1884.0	61049.0
29	17	52	48	387	126.0	-131247.0	1831.0	60862.0
29	17	52	48	387	127.0	-95133.0	1753.0	62299.0
29	17	52	48	388	128.0	-61404.0	1703.0	60873.0
29	17	52	48	389	129.0	-29674.0	1668.0	61166.0
29	17	52	48	389	130.0	-986.0	1623.0	61379.0
29	17	52	48	390	131.0	24733.0	1573.0	64267.0
29	17	52	48	391	132.0	47386.0	1533.0	67506.0
29	17	52	48	391	133.0	66726.0	1501.0	66054.0
29	17	52	48	392	134.0	83810.0	1481.0	64729.0
29	17	52	48	393	135.0	99961.0	1438.0	65164.0
29	17	52	48	393	136.0	116908.0	1334.0	66051.0
29	17	52	48	394	137.0	134340.0	1290.0	70642.0
29	17	52	48	406	138.0	151440.0	1251.0	69909.0
29	17	52	48	407	139.0	166561.0	1205.0	67628.0
29	17	52	48	407	140.0	179102.0	1177.0	66856.0
29	17	52	48	408	141.0	188608.0	1106.0	65138.0
29	17	52	48	409	142.0	195291.0	1071.0	65346.0
29	17	52	48	409	143.0	199025.0	1031.0	66510.0
29	17	52	48	410	144.0	199601.0	976.0	67674.0
29	17	52	48	411	145.0	197303.0	931.0	67053.0
29	17	52	48	411	146.0	192328.0	883.0	66348.0
29	17	52	48	412	147.0	184303.0	870.0	63314.0
29	17	52	48	413	148.0	172456.0	818.0	60938.0
29	17	52	48	413	149.0	157824.0	784.0	61970.0
29	17	52	48	414	150.0	142111.0	737.0	60433.0
29	17	52	48	415	151.0	125953.0	682.0	60024.0
29	17	52	48	415	152.0	110120.0	657.0	60663.0
29	17	52	48	429	153.0	95003.0	623.0	60459.0
29	17	52	48	429	154.0	80109.0	593.0	60734.0
29	17	52	48	430	155.0	64036.0	568.0	66583.0
29	17	52	48	430	156.0	39467.0	560.0	67848.0
29	17	52	48	431	157.0	14689.0	534.0	68980.0
29	17	52	48	432	158.0	-1151.0	503.0	67390.0
29	17	52	48	432	159.0	-9859.0	499.0	66806.0
29	17	52	48	433	160.0	-19809.0	462.0	66266.0
29	17	52	48	450	161.0	-34239.0	466.0	67044.0
29	17	52	48	451	162.0	-50048.0	502.0	68421.0
29	17	52	48	452	163.0	-63035.0	509.0	66358.0
29	17	52	48	452	164.0	-71844.0	489.0	65444.0
29	17	52	48	453	165.0	-77264.0	492.0	70999.0
29	17	52	48	453	166.0	-79877.0	483.0	75725.0
29	17	52	48	454	167.0	-80176.0	463.0	77974.0
29	17	52	48	455	168.0	-77733.0	472.0	75279.0
29	17	52	48	472	169.0	-72301.0	478.0	73101.0
29	17	52	48	473	170.0	-63472.0	471.0	71804.0
29	17	52	48	474	171.0	-52187.0	501.0	70442.0
29	17	52	48	475	172.0	-40034.0	516.0	69971.0
29	17	52	48	475	173.0	-27150.0	494.0	71455.0
29	17	52	48	476	174.0	-13387.0	478.0	74761.0
29	17	52	48	477	175.0	2168.0	469.0	77178.0
29	17	52	48	477	176.0	19419.0	485.0	75885.0
29	17	52	48	478	177.0	36047.0	486.0	76886.0
29	17	52	48	478	178.0	50928.0	441.0	76388.0
29	17	52	48	479	179.0	62689.0	454.0	78642.0
29	17	52	48	480	180.0	70803.0	468.0	80049.0
29	17	52	48	480	181.0	75303.0	451.0	80713.0
29	17	52	48	481	182.0	76120.0	409.0	81411.0
29	17	52	48	481	183.0	74032.0	408.0	81554.0
29	17	52	48	494	184.0	69729.0	415.0	80770.0
29	17	52	48	495	185.0	64786.0	381.0	80648.0
29	17	52	48	496	186.0	58701.0	354.0	80994.0
29	17	52	48	496	187.0	51825.0	329.0	78174.0
29	17	52	48	497	188.0	44403.0	318.0	75276.0
29	17	52	48	498	189.0	35714.0	299.0	76810.0
29	17	52	48	517	190.0	26562.0	294.0	76949.0
29	17	52	48	518	191.0	16899.0	260.0	76324.0
29	17	52	48	518	192.0	5853.0	231.0	72222.0
29	17	52	48	519	193.0	-7440.0	183.0	67226.0
29	17	52	48	520	194.0	-23222.0	145.0	65153.0
29	17	52	48	520	195.0	-40077.0	146.0	63991.0
29	17	52	48	521	196.0	-58310.0	114.0	66168.0
29	17	52	48	522	197.0	-77702.0	61.0	62981.0
29	17	52	48	522	198.0	-98462.0	28.0	60425.0
29	17	52	48	523	199.0	-120121.0	1.0	58723.0
29	17	52	48	523	200.0	-142097.0	-17.0	59272.0
29	17	52	48	524	201.0	-163742.0	-40.0	60368.0
29	17	52	48	525	202.0	-184684.0	-103.0	60603.0
29	17	52	48	525	203.0	-204991.0	-181.0	64521.0
29	17	52	48	526	204.0	-224892.0	-224.0	68738.0
29	17	52	48	527	205.0	-245531.0	-261.0	72636.0
29	17	52	48	539	206.0	-268686.0	-326.0	73008.0
29	17	52	48	540	207.0	-295409.0	-357.0	74763.0
29	17	52	48	541	208.0	-325776.0	-438.0	76141.0
29	17	52	48	541	209.0	-359824.0	-497.0	78686.0
29	17	52	48	542	210.0	-397064.0	-518.0	89609.0
29	17	52	48	543	211.0	-436612.0	-565.0	100946.0
29	17	52	48	543	212.0	-477131.0	-657.0	103185.0
29	17	52	48	544	213.0	-516716.0	-732.0	104701.0
29	17	52	48	561	214.0	-553494.0	-789.0	102861.0
29	17	52	48	562	215.0	-586769.0	-872.0	97082.0
29	17	52	48	562	216.0	-615139.0	-956.0	90423.0
29	17	52	48	563	217.0	-637665.0	-1033.0	89744.0
29	17	52	48	564	218.0	-653249.0	-1104.0	93881.0
29	17	52	48	565	219.0	-662353.0	-1180.0	96346.0
29	17	52	48	565	220.0	-665960.0	-1278.0	94778.0
29	17	52	48	566	221.0	-666507.0	-1347.0	92441.0
29	17	52	48	567	222.0	-664657.0	-1453.0	90748.0
29	17	52	48	567	223.0	-658346.0	-1565.0	88972.0
29	17	52	48	568	224.0	-646698.0	-1645.0	86623.0
29	17	52	48	569	225.0	-626251.0	-1755.0	87818.0
29	17	52	48	569	226.0	-596310.0	-1876.0	87618.0
29	17	52	48	570	227.0	-563427.0	-1984.0	89773.0
29	17	52	48	570	228.0	-533334.0	-2096.0	89839.0
29	17	52	48	571	229.0	-509496.0	-2166.0	90119.0
29	17	52	48	572	230.0	-493678.0	-2251.0	91373.0
29	17	52	48	583	231.0	-486319.0	-2349.0	90259.0
29	17	52	48	605	232.0	-485939.0	-2441.0	90768.0
29	17	52	48	606	233.0	-487861.0	-2548.0	87551.0
29	17	52	48	607	234.0	-485274.0	-2662.0	80583.0
29	17	52	48	607	235.0	-472347.0	-2760.0	76880.0
29	17	52	48	608	236.0	-448971.0	-2857.0	75221.0
29	17	52	48	609	237.0	-418913.0	-2992.0	72868.0
29	17	52	48	609	238.0	-381582.0	-3100.0	70043.0
29	17	52	48	610	239.0	-331403.0	-3216.0	63598.0
29	17	52	48	611	240.0	-266688.0	-3314.0	58982.0
29	17	52	48	611	241.0	-193036.0	-3471.0	41185.0
29	17	52	48	612	242.0	-119510.0	-3553.0	27606.0
29	17	52	48	612	243.0	-54094.0	-3623.0	25105.0
29	17	52	48	613	244.0	1336.0	-3707.0	24303.0
29	17	52	48	614	245.0	50811.0	-3770.0	23071.0
29	17	52	48	614	246.0	99363.0	-3836.0	22115.0
29	17	52	48	615	247.0	147748.0	-3959.0	20189.0
29	17	52	48	615	248.0	193610.0	-4087.0	17498.0
29	17	52	48	616	249.0	234009.0	-4174.0	15689.0
29	17	52	48	627	250.0	267800.0	-4256.0	16701.0
29	17	52	48	628	251.0	295401.0	-4316.0	16711.0
29	17	52	48	629	252.0	316399.0	-4402.0	17079.0
29	17	52	48	629	253.0	331533.0	-4507.0	17202.0
29	17	52	48	630	254.0	342264.0	-4585.0	15627.0
29	17	52	48	630	255.0	349683.0	-4707.0	14699.0
29	17	52	48	631	0.0	354296.0	-4793.0	15298.0
29	17	52	48	632	1.0	355145.0	-4876.0	15889.0
29	17	52	48	632	2.0	351176.0	-4949.0	15982.0
29	17	52	48	650	3.0	342214.0	-5024.0	15431.0
29	17	52	48	650	4.0	327906.0	-5084.0	14793.0
29	17	52	48	651	5.0	307621.0	-5152.0	13346.0
29	17	52	48	652	6.0	280430.0	-5234.0	11613.0
29	17	52	48	652	7.0	246691.0	-5341.0	10946.0
29	17	52	48	653	8.0	207310.0	-5419.0	11386.0
29	17	52	48	653	9.0	163973.0	-5487.0	11649.0
29	17	52	48	654	10.0	118428.0	-5544.0	13331.0
29	17	52	48	655	11.0	72870.0	-5617.0	14780.0
29	17	52	48	655	12.0	29640.0	-5678.0	14648.0
29	17	52	48	671	13.0	-9942.0	-5757.0	14124.0
29	17	52	48	672	14.0	-45741.0	-5844.0	13950.0
29	17	52	48	672	15.0	-78096.0	-5903.0	13601.0
29	17	52	48	673	16.0	-107496.0	-5968.0	13177.0
29	17	52	48	674	17.0	-133952.0	-6035.0	13421.0
29	17	52	48	674	18.0	-157646.0	-6095.0	14763.0
29	17	52	48	675	19.0	-179072.0	-6181.0	15014.0
29	17	52	48	676	20.0	-199699.0	-6269.0	14300.0
29	17	52	48	676	21.0	-219012.0	-6325.0	14099.0
29	17	52	48	677	22.0	-237962.0	-6387.0	13408.0
29	17	52	48	677	23.0	-255899.0	-6446.0	12894.0
29	17	52	48	678	24.0	-272566.0	-6521.0	13426.0
29	17	52	48	679	25.0	-286550.0	-6572.0	15425.0
29	17	52	48	679	26.0	-297683.0	-6632.0	14045.0
29	17	52	48	693	27.0	-306160.0	-6684.0	13941.0
29	17	52	48	694	28.0	-311174.0	-6726.0	13327.0
29	17	52	48	694	29.0	-311604.0	-6801.0	13617.0
29	17	52	48	695	30.0	-308708.0	-6887.0	13169.0
29	17	52	48	696	31.0	-303129.0	-6946.0	11243.0
29	17	52	48	696	32.0	-294972.0	-7001.0	10245.0
29	17	52	48	697	33.0	-285017.0	-7055.0	11923.0
29	17	52	48	698	34.0	-272874.0	-7144.0	15452.0
29	17	52	48	698	35.0	-259886.0	-7195.0	16965.0
29	17	52	48	699	36.0	-245847.0	-7299.0	17711.0
29	17	52	48	700	37.0	-231207.0	-7331.0	19500.0
29	17	52	48	701	38.0	-216233.0	-7396.0	20854.0
29	17	52	48	701	39.0	-200661.0	-7453.0	21544.0
29	17	52	48	702	40.0	-184281.0	-7492.0	20929.0
29	17	52	48	715	41.0	-166827.0	-7542.0	20673.0
29	17	52	48	716	42.0	-149006.0	-7592.0	19482.0
29	17	52	48	717	43.0	-130528.0	-7619.0	19661.0
29	17	52	48	717	44.0	-111479.0	-7688.0	18836.0
29	17	52	48	718	45.0	-92471.0	-7736.0	17711.0
29	17	52	48	719	46.0	-74557.0	-7781.0	17469.0
29	17	52	48	738	47.0	-57671.0	-7824.0	17650.0
29	17	52	48	738	48.0	-42859.0	-7846.0	17581.0
29	17	52	48	739	49.0	-31606.0	-7889.0	18956.0
29	17	52	48	740	50.0	-29144.0	-7906.0	19421.0
29	17	52	48	741	51.0	-32636.0	-7974.0	19106.0
29	17	52	48	741	52.0	-37687.0	-7986.0	17613.0
29	17	52	48	742	53.0	-43789.0	-8028.0	16454.0
29	17	52	48	743	54.0	-50354.0	-8068.0	16256.0
29	17	52	48	744	55.0	-57436.0	-8059.0	15842.0
29	17	52	48	744	56.0	-65481.0	-8071.0	15156.0
29	17	52	48	745	57.0	-73756.0	-8094.0	15249.0
29	17	52	48	745	58.0	-82039.0	-8105.0	15262.0
29	17	52	48	746	59.0	-89564.0	-8153.0	13548.0
29	17	52	48	747	60.0	-97001.0	-8177.0	12843.0
29	17	52	48	747	61.0	-112252.0	-8191.0	13624.0
29	17	52	48	748	62.0	-124179.0	-8180.0	14456.0
29	17	52	48	759	63.0	-129952.0	-8161.0	14239.0
29	17	52	48	760	64.0	-134092.0	-8153.0	14385.0
29	17	52	48	760	65.0	-138504.0	-8121.0	14083.0
29	17	52	48	761	66.0	-144397.0	-8161.0	14093.0
29	17	52	48	762	67.0	-152404.0	-8204.0	14436.0
29	17	52	48	762	68.0	-159941.0	-8194.0	13879.0
29	17	52	48	784	69.0	-166287.0	-8204.0	15086.0
29	17	52	48	785	70.0	-171579.0	-8187.0	15028.0
29	17	52	48	786	71.0	-176550.0	-8190.0	15708.0
29	17	52	48	787	72.0	-181829.0	-8207.0	17432.0
29	17	52	48	787	73.0	-187426.0	-8200.0	17567.0
29	17	52	48	788	74.0	-193419.0	-8212.0	18741.0
29	17	52	48	789	75.0	-200223.0	-8212.0	18857.0
29	17	52	48	789	76.0	-207862.0	-8200.0	19586.0
29	17	52	48	790	77.0	-215106.0	-8194.0	22702.0
29	17	52	48	791	78.0	-222227.0	-8185.0	23947.0
29	17	52	48	792	79.0	-228759.0	-8176.0	24578.0
29	17	52	48	792	80.0	-234714.0	-8190.0	23856.0
29	17	52	48	793	81.0	-240271.0	-8222.0	23017.0
29	17	52	48	794	82.0	-245317.0	-8181.0	23949.0
29	17	52	48	794	83.0	-249798.0	-8156.0	22473.0
29	17	52	48	795	84.0	-253672.0	-8196.0	22073.0
29	17	52	48	795	85.0	-257632.0	-8190.0	21983.0
29	17	52	48	805	86.0	-261290.0	-8166.0	21803.0
29	17	52	48	806	87.0	-264273.0	-8135.0	21745.0
29	17	52	48	807	88.0	-266417.0	-8134.0	22560.0
29	17	52	48	807	89.0	-268390.0	-8147.0	22294.0
29	17	52	48	808	90.0	-270245.0	-8192.0	21416.0
29	17	52	48	809	91.0	-271041.0	-8174.0	18493.0
29	17	52	48	829	92.0	-269156.0	-8167.0	19864.0
29	17	52	48	830	93.0	-266550.0	-8158.0	21597.0
29	17	52	48	831	94.0	-264913.0	-8181.0	23226.0
29	17	52	48	832	95.0	-263873.0	-8214.0	24318.0
29	17	52	48	832	96.0	-262731.0	-8215.0	24547.0
29	17	52	48	833	97.0	-260898.0	-8207.0	25141.0
29	17	52	48	834	98.0	-258188.0	-8217.0	25984.0
29	17	52	48	834	99.0	-254701.0	-8238.0	27210.0
29	17	52	48	835	100.0	-250409.0	-8213.0	27091.0
29	17	52	48	835	101.0	-245978.0	-8220.0	27232.0
29	17	52	48	836	102.0	-240772.0	-8245.0	28657.0
29	17	52	48	837	103.0	-235594.0	-8239.0	30181.0
29	17	52	48	837	104.0	-230549.0	-8253.0	30972.0
29	17	52	48	838	105.0	-226045.0	-8261.0	31366.0
29	17	52	48	839	106.0	-222358.0	-8285.0	31454.0
29	17	52	48	851	107.0	-219234.0	-8326.0	32513.0
29	17	52	48	852	108.0	-216329.0	-8329.0	34210.0
29	17	52	48	853	109.0	-214209.0	-8333.0	35014.0
29	17	52	48	853	110.0	-212248.0	-8339.0	34883.0
29	17	52	48	854	111.0	-210731.0	-8405.0	36069.0
29	17	52	48	854	112.0	-209333.0	-8473.0	36387.0
29	17	52	48	855	113.0	-208140.0	-8487.0	37723.0
29	17	52	48	856	114.0	-206593.0	-8487.0	38334.0
29	17	52	48	874	115.0	-204915.0	-8499.0	38403.0
29	17	52	48	875	116.0	-202929.0	-8522.0	38579.0
29	17	52	48	876	117.0	-200927.0	-8551.0	37551.0
29	17	52	48	876	118.0	-199590.0	-8575.0	38268.0
29	17	52	48	877	119.0	-199725.0	-8579.0	39451.0
29	17	52	48	878	120.0	-201572.0	-8623.0	38196.0
29	17	52	48	878	121.0	-203451.0	-8640.0	37175.0
29	17	52	48	879	122.0	-206349.0	-8639.0	38355.0
29	17	52	48	880	123.0	-209080.0	-8668.0	40638.0
29	17	52	48	880	124.0	-212234.0	-8641.0	40281.0
29	17	52	48	881	125.0	-216174.0	-8697.0	39173.0
29	17	52	48	882	126.0	-219617.0	-8716.0	38996.0
29	17	52	48	882	127.0	-222210.0	-8767.0	39111.0
29	17	52	48	883	128.0	-223522.0	-8753.0	38984.0
29	17	52	48	884	129.0	-223602.0	-8777.0	38626.0
29	17	52	48	898	130.0	-223131.0	-8788.0	39279.0
29	17	52	48	899	131.0	-222421.0	-8777.0	39392.0
29	17	52	48	899	132.0	-221986.0	-8804.0	40756.0
29	17	52	48	900	133.0	-221624.0	-8833.0	41643.0
29	17	52	48	901	134.0	-221799.0	-8805.0	40948.0
29	17	52	48	901	135.0	-221755.0	-8838.0	40254.0
29	17	52	48	902	136.0	-221909.0	-8819.0	39649.0
29	17	52	48	921	137.0	-221581.0	-8847.0	39923.0
29	17	52	48	921	138.0	-220665.0	-8844.0	37519.0
29	17	52	48	922	139.0	-219409.0	-8872.0	33441.0
29	17	52	48	923	140.0	-218117.0	-8880.0	31356.0
29	17	52	48	924	141.0	-216789.0	-8886.0	29708.0
29	17	52	48	924	142.0	-215375.0	-8873.0	28904.0
29	17	52	48	925	143.0	-214288.0	-8896.0	26951.0
29	17	52	48	925	144.0	-213619.0	-8929.0	24936.0
29	17	52	48	926	145.0	-212404.0	-8931.0	22128.0
29	17	52	48	927	146.0	-210977.0	-8914.0	19384.0
29	17	52	48	927	147.0	-209553.0	-8937.0	16314.0
29	17	52	48	928	148.0	-208054.0	-8964.0	13833.0
29	17	52	48	929	149.0	-206569.0	-8984.0	10854.0
29	17	52	48	929	150.0	-205256.0	-9006.0	9378.0
29	17	52	48	930	151.0	-203882.0	-9032.0	6382.0
29	17	52	48	945	152.0	-202202.0	-9027.0	1538.0
29	17	52	48	946	153.0	-200247.0	-9074.0	-1901.0
29	17	52	48	946	154.0	-198216.0	-9087.0	-4126.0
29	17	52	48	947	155.0	-196127.0	-9109.0	-9320.0
29	17	52	48	948	156.0	-194258.0	-9172.0	-14564.0
29	17	52	48	948	157.0	-192757.0	-9160.0	-30779.0
29	17	52	48	949	158.0	-191652.0	-9173.0	-50879.0
29	17	52	48	968	159.0	-190931.0	-9181.0	-19062.0
29	17	52	48	968	160.0	-190272.0	-9190.0	53633.0
29	17	52	48	969	161.0	-189704.0	-9239.0	83263.0
29	17	52	48	970	162.0	-189651.0	-9299.0	95934.0
29	17	52	48	972	163.0	-190146.0	-9302.0	106908.0
29	17	52	48	974	164.0	-191105.0	-9375.0	117318.0
29	17	52	48	976	165.0	-192494.0	-9450.0	127174.0
29	17	52	48	978	166.0	-194197.0	-9522.0	135967.0
29	17	52	48	979	167.0	-196086.0	-9541.0	143223.0
29	17	52	48	982	168.0	-198017.0	-9590.0	148149.0
29	17	52	48	988	169.0	-200069.0	-9622.0	150537.0
29	17	52	48	988	170.0	-202129.0	-9692.0	154964.0
29	17	52	48	989	171.0	-204216.0	-9706.0	160109.0
29	17	52	48	990	172.0	-206406.0	-9764.0	166835.0
29	17	52	48	990	173.0	-208253.0	-9813.0	171642.0
29	17	52	48	991	174.0	-209966.0	-9843.0	175108.0
29	17	52	48	992	175.0	-211733.0	-9891.0	180846.0
29	17	52	48	992	176.0	-213072.0	-9971.0	184959.0
29	17	52	48	993	177.0	-214212.0	-10031.0	188314.0
29	17	52	48	993	178.0	-215163.0	-10103.0	193194.0
29	17	52	48	994	179.0	-216051.0	-10152.0	198003.0
29	17	52	48	994	180.0	-216921.0	-10216.0	199743.0
29	17	52	48	995	181.0	-217653.0	-10305.0	202319.0
29	17	52	48	996	182.0	-218707.0	-10354.0	207439.0
29	17	52	48	996	183.0	-219818.0	-10391.0	208450.0
29	17	52	48	997	184.0	-220880.0	-10419.0	208353.0
29	17	52	48	997	185.0	-222362.0	-10522.0	208329.0
29	17	52	48	998	186.0	-224147.0	-10566.0	210276.0
29	17	52	48	999	187.0	-226099.0	-10647.0	209336.0
29	17	52	48	999	188.0	-228256.0	-10698.0	209488.0
29	17	52	49	11	189.0	-230777.0	-10771.0	210447.0
29	17	52	49	12	190.0	-233430.0	-10829.0	210364.0
29	17	52	49	12	191.0	-236471.0	-10902.0	211918.0
29	17	52	49	13	192.0	-240011.0	-10950.0	210177.0
29	17	52	49	13	193.0	-243741.0	-11038.0	209800.0
29	17	52	49	14	194.0	-247385.0	-11119.0	209407.0
29	17	52	49	15	195.0	-251226.0	-11174.0	207385.0
29	17	52	49	15	196.0	-255196.0	-11231.0	207663.0
29	17	52	49	32	197.0	-259092.0	-11291.0	211794.0
29	17	52	49	33	198.0	-263067.0	-11349.0	215576.0
29	17	52	49	33	199.0	-267103.0	-11430.0	219832.0
29	17	52	49	34	200.0	-271398.0	-11457.0	226376.0
29	17	52	49	34	201.0	-275466.0	-11524.0	227846.0
29	17	52	49	35	202.0	-279972.0	-11613.0	236751.0
29	17	52	49	35	203.0	-284758.0	-11659.0	244223.0
29	17	52	49	56	204.0	-289827.0	-11687.0	250749.0
29	17	52	49	56	205.0	-295345.0	-11719.0	254608.0
29	17	52	49	57	206.0	-301138.0	-11710.0	261385.0
29	17	52	49	57	207.0	-307589.0	-11737.0	263747.0
29	17	52	49	58	208.0	-314877.0	-11786.0	264756.0
29	17	52	49	59	209.0	-322949.0	-11856.0	265397.0
29	17	52	49	59	210.0	-331434.0	-11911.0	265583.0
29	17	52	49	60	211.0	-340049.0	-11931.0	263498.0
29	17	52	49	60	212.0	-349352.0	-11984.0	262514.0
29	17	52	49	61	213.0	-359626.0	-11999.0	260051.0
29	17	52	49	62	214.0	-372343.0	-12010.0	253173.0
29	17	52	49	62	215.0	-388534.0	-12019.0	251506.0
29	17	52	49	63	216.0	-407645.0	-12033.0	245218.0
29	17	52	49	63	217.0	-426299.0	-12030.0	238086.0
29	17	52	49	64	218.0	-447138.0	-12069.0	237807.0
29	17	52	49	81	219.0	-470582.0	-12096.0	240116.0
29	17	52	49	81	220.0	-496731.0	-12122.0	242266.0
29	17	52	49	82	221.0	-537040.0	-12132.0	240631.0
29	17	52	49	82	222.0	-604686.0	-12226.0	240068.0
29	17	52	49	83	223.0	-691808.0	-12243.0	239035.0
29	17	52	49	84	224.0	-771617.0	-12249.0	240868.0
29	17	52	49	84	225.0	-841787.0	-12297.0	250849.0
29	17	52	49	85	226.0	-903112.0	-12403.0	252665.0
29	17	52	49	104	227.0	-956152.0	-12444.0	252156.0
29	17	52	49	105	228.0	-1001936.0	-12502.0	248259.0
29	17	52	49	105	229.0	-1042641.0	-12561.0	241028.0
29	17	52	49	106	230.0	-1077712.0	-12594.0	235768.0
29	17	52	49	106	231.0	-1108851.0	-12677.0	231579.0
29	17	52	49	107	232.0	-1135006.0	-12770.0	224272.0
29	17	52	49	108	233.0	-1158597.0	-12875.0	215389.0
29	17	52	49	130	234.0	-1178686.0	-12954.0	211023.0
29	17	52	49	131	235.0	-1196307.0	-13019.0	208893.0
29	17	52	49	132	236.0	-1209492.0	-13109.0	205957.0
29	17	52	49	132	237.0	-1217181.0	-13191.0	202265.0
29	17	52	49	133	238.0	-1217277.0	-13274.0	200842.0
29	17	52	49	133	239.0	-1211377.0	-13397.0	199948.0
29	17	52	49	134	240.0	-1205082.0	-13506.0	198394.0
29	17	52	49	135	241.0	-1189862.0	-13604.0	199570.0
29	17	52	49	135	242.0	-1165216.0	-13696.0	199413.0
29	17	52	49	136	243.0	-1133048.0	-13811.0	199343.0
29	17	52	49	136	244.0	-1097369.0	-13922.0	199611.0
29	17	52	49	137	245.0	-1059776.0	-14043.0	198998.0
29	17	52	49	138	246.0	-1018664.0	-14165.0	198055.0
29	17	52	49	138	247.0	-975539.0	-14301.0	196450.0
29	17	52	49	139	248.0	-929993.0	-14414.0	195935.0
29	17	52	49	139	249.0	-884027.0	-14506.0	195614.0
29	17	52	49	140	250.0	-841378.0	-14606.0	195939.0
29	17	52	49	141	251.0	-799984.0	-14712.0	196652.0
29	17	52	49	141	252.0	-759124.0	-14797.0	195354.0
29	17	52	49	142	253.0	-719141.0	-14901.0	195709.0
29	17	52	49	142	254.0	-681487.0	-14982.0	195106.0
29	17	52	49	152	255.0	-644889.0	-15077.0	192693.0
29	17	52	49	153	0.0	-613387.0	-15210.0	191659.0
29	17	52	49	153	1.0	-584662.0	-15296.0	191683.0
29	17	52	49	154	2.0	-556879.0	-15379.0	190751.0
29	17	52	49	154	3.0	-532799.0	-15497.0	188989.0
29	17	52	49	155	4.0	-507667.0	-15586.0	186221.0
29	17	52	49	156	5.0	-483665.0	-15706.0	183808.0
29	17	52	49	156	6.0	-464151.0	-15791.0	183209.0
29	17	52	49	157	7.0	-444982.0	-15851.0	183499.0
29	17	52	49	157	8.0	-426752.0	-15939.0	186064.0
29	17	52	49	176	9.0	-406086.0	-16016.0	188044.0
29	17	52	49	177	10.0	-385661.0	-16095.0	191174.0
29	17	52	49	177	11.0	-368579.0	-16176.0	196352.0
29	17	52	49	178	12.0	-354269.0	-16275.0	200896.0
29	17	52	49	179	13.0	-341206.0	-16375.0	202933.0
29	17	52	49	179	14.0	-328157.0	-16482.0	203726.0
29	17	52	49	180	15.0	-318042.0	-16566.0	204998.0
29	17	52	49	180	16.0	-309906.0	-16622.0	206801.0
29	17	52	49	181	17.0	-303359.0	-16689.0	207365.0
29	17	52	49	182	18.0	-298937.0	-16768.0	205285.0
29	17	52	49	182	19.0	-298979.0	-16878.0	202972.0
29	17	52	49	183	20.0	-301027.0	-16971.0	202254.0
29	17	52	49	183	21.0	-304814.0	-17047.0	200426.0
29	17	52	49	184	22.0	-307235.0	-17137.0	199512.0
29	17	52	49	199	23.0	-306974.0	-17192.0	196892.0
29	17	52	49	200	24.0	-305563.0	-17271.0	192396.0
29	17	52	49	200	25.0	-304767.0	-17358.0	189859.0
29	17	52	49	201	26.0	-305369.0	-17425.0	188203.0
29	17	52	49	202	27.0	-304634.0	-17552.0	188375.0
29	17	52	49	202	28.0	-299622.0	-17649.0	189304.0
29	17	52	49	203	29.0	-289536.0	-17768.0	190280.0
29	17	52	49	203	30.0	-276039.0	-17828.0	191663.0
29	17	52	49	222	31.0	-255640.0	-17914.0	192186.0
29	17	52	49	222	32.0	-230488.0	-18008.0	192804.0
29	17	52	49	223	33.0	-204377.0	-18107.0	193797.0
29	17	52	49	224	34.0	-181122.0	-18224.0	192735.0
29	17	52	49	224	35.0	-163588.0	-18361.0	191289.0
29	17	52	49	225	36.0	-150210.0	-18435.0	191202.0
29	17	52	49	226	37.0	-141247.0	-18530.0	189963.0
29	17	52	49	226	38.0	-135822.0	-18632.0	188794.0
29	17	52	49	227	39.0	-134266.0	-18789.0	191802.0
29	17	52	49	228	40.0	-134243.0	-18943.0	194653.0
29	17	52	49	228	41.0	-131707.0	-19059.0	195790.0
29	17	52	49	229	42.0	-127103.0	-19151.0	194150.0
29	17	52	49	229	43.0	-119105.0	-19216.0	193326.0
29	17	52	49	230	44.0	-108877.0	-19369.0	192406.0
29	17	52	49	231	45.0	-97018.0	-19414.0	193636.0
29	17	52	49	231	46.0	-85952.0	-19469.0	196070.0
29	17	52	49	232	47.0	-78004.0	-19622.0	197991.0
29	17	52	49	244	48.0	-77025.0	-19702.0	198554.0
29	17	52	49	245	49.0	-83784.0	-19758.0	197509.0
29	17	52	49	245	50.0	-96559.0	-19814.0	196389.0
29	17	52	49	246	51.0	-112104.0	-19948.0	195519.0
29	17	52	49	268	52.0	-129188.0	-20057.0	195051.0
29	17	52	49	268	53.0	-146196.0	-20092.0	196284.0
29	17	52	49	269	54.0	-165919.0	-20160.0	198898.0
29	17	52	49	270	55.0	-189474.0	-20217.0	200061.0
29	17	52	49	270	56.0	-216641.0	-20345.0	203022.0
29	17	52	49	271	57.0	-247449.0	-20476.0	204216.0
29	17	52	49	271	58.0	-281023.0	-20594.0	204689.0
29	17	52	49	272	59.0	-317488.0	-20689.0	203208.0
29	17	52	49	273	60.0	-353382.0	-20754.0	203756.0
29	17	52	49	273	61.0	-387120.0	-20754.0	206143.0
29	17	52	49	274	62.0	-413672.0	-20848.0	207937.0
29	17	52	49	274	63.0	-435342.0	-20902.0	209566.0
29	17	52	49	275	64.0	-456697.0	-20997.0	210568.0
29	17	52	49	275	65.0	-475236.0	-21075.0	211824.0
29	17	52	49	276	66.0	-490302.0	-21164.0	212984.0
29	17	52	49	292	67.0	-501934.0	-21256.0	214725.0
29	17	52	49	292	68.0	-510214.0	-21262.0	217135.0
29	17	52	49	293	69.0	-516857.0	-21316.0	222655.0
29	17	52	49	293	70.0	-524337.0	-21359.0	228646.0
29	17	52	49	294	71.0	-534421.0	-21528.0	227527.0
29	17	52	49	295	72.0	-545491.0	-21560.0	222939.0
29	17	52	49	295	73.0	-557232.0	-21632.0	214944.0
29	17	52	49	296	74.0	-571399.0	-21735.0	211130.0
29	17	52	49	297	75.0	-586688.0	-21819.0	209788.0
29	17	52	49	297	76.0	-599289.0	-21874.0	211304.0
29	17	52	49	298	77.0	-615579.0	-21937.0	212044.0
29	17	52	49	298	78.0	-633134.0	-22007.0	210550.0
29	17	52	49	315	79.0	-648020.0	-22121.0	211188.0
29	17	52	49	316	80.0	-659483.0	-22187.0	211701.0
29	17	52	49	316	81.0	-668862.0	-22244.0	215795.0
29	17	52	49	317	82.0	-677274.0	-22319.0	215648.0
29	17	52	49	317	83.0	-685289.0	-22402.0	215249.0
29	17	52	49	318	84.0	-691929.0	-22561.0	216363.0
29	17	52	49	319	85.0	-694861.0	-22547.0	215909.0
29	17	52	49	319	86.0	-689292.0	-22626.0	214449.0
29	17	52	49	320	87.0	-670207.0	-22719.0	213539.0
29	17	52	49	320	88.0	-645609.0	-22842.0	211354.0
29	17	52	49	321	89.0	-620436.0	-23027.0	212168.0
29	17	52	49	322	90.0	-594743.0	-23073.0	212411.0
29	17	52	49	322	91.0	-567889.0	-23067.0	213914.0
29	17	52	49	338	92.0	-540802.0	-23208.0	217320.0
29	17	52	49	339	93.0	-515395.0	-23257.0	220729.0
29	17	52	49	339	94.0	-493049.0	-23244.0	218255.0
29	17	52	49	340	95.0	-472009.0	-23311.0	212806.0
29	17	52	49	341	96.0	-452901.0	-23462.0	210926.0
29	17	52	49	341	97.0	-436301.0	-23420.0	213236.0
29	17	52	49	342	98.0	-421436.0	-23431.0	216134.0
29	17	52	49	343	99.0	-408751.0	-23562.0	217291.0
29	17	52	49	343	100.0	-396969.0	-23781.0	216790.0
29	17	52	49	344	101.0	-385902.0	-23927.0	218658.0
29	17	52	49	345	102.0	-375296.0	-24099.0	216565.0
29	17	52	49	345	103.0	-365066.0	-24078.0	214118.0
29	17	52	49	346	104.0	-354968.0	-24001.0	212382.0
29	17	52	49	346	105.0	-345011.0	-24282.0	211449.0
29	17	52	49	361	106.0	-336229.0	-24533.0	210974.0
29	17	52	49	361	107.0	-327545.0	-24860.0	211743.0
29	17	52	49	362	108.0	-318792.0	-24963.0	219961.0
29	17	52	49	363	109.0	-309917.0	-24395.0	226805.0
29	17	52	49	363	110.0	-301432.0	-26170.0	229564.0
29	17	52	49	364	111.0	-293571.0	-27446.0	226813.0
29	17	52	49	364	112.0	-286016.0	-28272.0	224000.0
29	17	52	49	385	113.0	-278614.0	-29540.0	226724.0
29	17	52	49	385	114.0	-271886.0	-28677.0	234265.0
29	17	52	49	386	115.0	-265824.0	-29001.0	233736.0
29	17	52	49	387	116.0	-260795.0	-28924.0	230546.0
29	17	52	49	387	117.0	-256428.0	-29279.0	231591.0
29	17	52	49	388	118.0	-252281.0	-29736.0	233048.0
29	17	52	49	389	119.0	-248328.0	-30379.0	231264.0
29	17	52	49	389	120.0	-245781.0	-30141.0	228171.0
29	17	52	49	390	121.0	-243501.0	-29817.0	226921.0
29	17	52	49	390	122.0	-241059.0	-29362.0	225637.0
29	17	52	49	391	123.0	-238847.0	-29052.0	224956.0
29	17	52	49	392	124.0	-237121.0	-30391.0	226229.0
29	17	52	49	392	125.0	-235369.0	-30555.0	226349.0
29	17	52	49	393	126.0	-232693.0	-30127.0	225606.0
29	17	52	49	393	127.0	-229422.0	-30371.0	230499.0
29	17	52	49	408	128.0	-225581.0	-30711.0	232863.0
29	17	52	49	409	129.0	-221461.0	-30354.0	233126.0
29	17	52	49	409	130.0	-217697.0	-30286.0	235003.0
29	17	52	49	410	131.0	-214062.0	-29498.0	234344.0
29	17	52	49	410	132.0	-210458.0	-29504.0	233467.0
29	17	52	49	411	133.0	-207136.0	-30433.0	232473.0
29	17	52	49	412	134.0	-204341.0	-31234.0	230952.0
29	17	52	49	431	135.0	-202164.0	-30572.0	231077.0
29	17	52	49	432	136.0	-200485.0	-31907.0	231313.0
29	17	52	49	432	137.0	-198852.0	-33132.0	232944.0
29	17	52	49	433	138.0	-197363.0	-31179.0	229925.0
29	17	52	49	433	139.0	-195940.0	-32133.0	234934.0
29	17	52	49	434	140.0	-194321.0	-32406.0	249437.0
29	17	52	49	435	141.0	-192544.0	-32121.0	251996.0
29	17	52	49	435	142.0	-190551.0	-31202.0	247560.0
29	17	52	49	436	143.0	-188446.0	-30202.0	241969.0
29	17	52	49	436	144.0	-186957.0	-32335.0	235575.0
29	17	52	49	437	145.0	-185087.0	-33474.0	230342.0
29	17	52	49	454	146.0	-182956.0	-34006.0	229063.0
29	17	52	49	455	147.0	-181118.0	-34357.0	228556.0
29	17	52	49	455	148.0	-179355.0	-33392.0	230404.0
29	17	52	49	456	149.0	-177387.0	-32472.0	231147.0
29	17	52	49	457	150.0	-175518.0	-31657.0	230810.0
29	17	52	49	457	151.0	-173649.0	-30769.0	228839.0
29	17	52	49	458	152.0	-171721.0	-30666.0	231069.0
29	17	52	49	458	153.0	-169627.0	-30612.0	231642.0
29	17	52	49	459	154.0	-167234.0	-30472.0	231144.0
29	17	52	49	460	155.0	-164603.0	-29982.0	228888.0
29	17	52	49	461	156.0	-161629.0	-29355.0	228689.0
29	17	52	49	461	157.0	-158227.0	-29300.0	229992.0
29	17	52	49	462	158.0	-154507.0	-29612.0	230904.0
29	17	52	49	462	159.0	-150519.0	-29512.0	229780.0
29	17	52	49	463	160.0	-146521.0	-29424.0	232319.0
29	17	52	49	464	161.0	-142222.0	-29322.0	234141.0
29	17	52	49	464	162.0	-137705.0	-29335.0	233652.0
29	17	52	49	465	163.0	-132967.0	-29441.0	235426.0
29	17	52	49	477	164.0	-128292.0	-29124.0	237102.0
29	17	52	49	478	165.0	-123642.0	-29247.0	237291.0
29	17	52	49	478	166.0	-119184.0	-29500.0	240044.0
29	17	52	49	479	167.0	-115071.0	-29507.0	240317.0
29	17	52	49	480	168.0	-111106.0	-29056.0	240743.0
29	17	52	49	480	169.0	-107272.0	-29072.0	243412.0
29	17	52	49	481	170.0	-103812.0	-29441.0	246818.0
29	17	52	49	481	171.0	-100694.0	-29347.0	249024.0
29	17	52	49	482	172.0	-97489.0	-28789.0	246389.0
29	17	52	49	500	173.0	-94474.0	-28722.0	244629.0
29	17	52	49	500	174.0	-91311.0	-28888.0	244218.0
29	17	52	49	501	175.0	-87596.0	-29009.0	243549.0
29	17	52	49	502	176.0	-82548.0	-28874.0	243321.0
29	17	52	49	502	177.0	-77920.0	-29065.0	242548.0
29	17	52	49	503	178.0	-73730.0	-29165.0	242733.0
29	17	52	49	503	179.0	-71703.0	-28998.0	242552.0
29	17	52	49	524	180.0	-72190.0	-29085.0	242565.0
29	17	52	49	525	181.0	-72989.0	-29064.0	241790.0
29	17	52	49	525	182.0	-74112.0	-28801.0	237706.0
29	17	52	49	526	183.0	-74362.0	-29048.0	236351.0
29	17	52	49	526	184.0	-74551.0	-28956.0	235509.0
29	17	52	49	527	185.0	-75064.0	-29126.0	234551.0
29	17	52	49	528	186.0	-75116.0	-28546.0	232508.0
29	17	52	49	528	187.0	-75084.0	-28691.0	232012.0
29	17	52	49	529	188.0	-74998.0	-28637.0	230248.0
29	17	52	49	529	189.0	-74679.0	-28189.0	229898.0
29	17	52	49	530	190.0	-74222.0	-28557.0	230366.0
29	17	52	49	531	191.0	-73514.0	-28604.0	229978.0
29	17	52	49	531	192.0	-73636.0	-29172.0	225569.0
29	17	52	49	532	193.0	-74479.0	-29089.0	221444.0
29	17	52	49	532	194.0	-75446.0	-28792.0	217567.0
29	17	52	49	548	195.0	-76669.0	-28904.0	217277.0
29	17	52	49	549	196.0	-77884.0	-29007.0	218013.0
29	17	52	49	549	197.0	-78276.0	-28927.0	217106.0
