29	17	28	23	558	185.0	-227269.0	-2515.0	-3472.0
29	17	28	23	561	186.0	-228356.0	-2512.0	-3935.0
29	17	28	23	564	187.0	-230574.0	-2515.0	-2634.0
29	17	28	23	567	188.0	-233602.0	-2504.0	-3017.0
29	17	28	23	570	189.0	-236471.0	-2486.0	-3541.0
29	17	28	23	572	190.0	-240251.0	-2483.0	-2946.0
29	17	28	23	574	191.0	-242793.0	-2484.0	-2131.0
29	17	28	23	576	192.0	-245144.0	-2476.0	-756.0
29	17	28	23	588	193.0	-247645.0	-2460.0	1066.0
29	17	28	23	589	194.0	-249503.0	-2446.0	1329.0
29	17	28	23	589	195.0	-251427.0	-2424.0	600.0
29	17	28	23	590	196.0	-252543.0	-2426.0	368.0
29	17	28	23	590	197.0	-253312.0	-2401.0	-896.0
29	17	28	23	591	198.0	-254277.0	-2389.0	-2120.0
29	17	28	23	592	199.0	-254766.0	-2389.0	-2440.0
29	17	28	23	592	200.0	-254914.0	-2412.0	-2849.0
29	17	28	23	593	201.0	-254898.0	-2411.0	-3168.0
29	17	28	23	593	202.0	-254197.0	-2415.0	-3272.0
29	17	28	23	594	203.0	-252831.0	-2411.0	-4139.0
29	17	28	23	595	204.0	-251376.0	-2411.0	-5005.0
29	17	28	23	597	205.0	-250177.0	-2426.0	-3745.0
29	17	28	23	598	206.0	-248681.0	-2411.0	-1171.0
29	17	28	23	600	207.0	-247083.0	-2404.0	-1543.0
29	17	28	23	603	208.0	-244814.0	-2419.0	-2159.0
29	17	28	23	629	209.0	-242896.0	-2419.0	-2241.0
29	17	28	23	674	210.0	-241795.0	-2419.0	-2661.0
29	17	28	23	674	211.0	-242197.0	-2424.0	-3537.0
29	17	28	23	675	212.0	-242054.0	-2422.0	-4720.0
29	17	28	23	675	213.0	-241927.0	-2433.0	-5547.0
29	17	28	23	676	214.0	-243249.0	-2450.0	-6291.0
29	17	28	23	677	215.0	-243717.0	-2462.0	-6924.0
29	17	28	23	677	216.0	-244409.0	-2481.0	-7723.0
29	17	28	23	678	217.0	-244665.0	-2484.0	-7825.0
29	17	28	23	678	218.0	-243540.0	-2514.0	-6886.0
29	17	28	23	679	219.0	-242879.0	-2532.0	-7439.0
29	17	28	23	679	220.0	-242678.0	-2526.0	-8816.0
29	17	28	23	680	221.0	-241798.0	-2543.0	-8452.0
29	17	28	23	680	222.0	-241097.0	-2557.0	-9896.0
29	17	28	23	681	223.0	-240224.0	-2572.0	-11049.0
29	17	28	23	681	226.0	-235419.0	-2615.0	-12087.0
29	17	28	23	682	249.0	-205275.0	-2602.0	-40611.0
29	17	28	23	683	250.0	-209561.0	-2589.0	-44703.0
29	17	28	23	683	251.0	-213837.0	-2586.0	-47015.0
29	17	28	23	696	252.0	-217690.0	-2582.0	-47141.0
29	17	28	23	697	253.0	-221591.0	-2577.0	-45596.0
29	17	28	23	697	254.0	-224277.0	-2572.0	-43632.0
29	17	28	23	765	255.0	-225706.0	-2568.0	-37731.0
29	17	28	23	765	0.0	-226763.0	-2567.0	-30088.0
29	17	28	23	766	1.0	-226909.0	-2561.0	-21688.0
29	17	28	23	766	2.0	-226917.0	-2553.0	-13278.0
29	17	28	23	767	3.0	-227449.0	-2575.0	-5022.0
29	17	28	23	768	4.0	-227884.0	-2578.0	1888.0
29	17	28	23	768	5.0	-227492.0	-2579.0	1390.0
29	17	28	23	769	6.0	-227185.0	-2578.0	1423.0
29	17	28	23	769	7.0	-225954.0	-2586.0	683.0
29	17	28	23	770	8.0	-224404.0	-2614.0	-1301.0
29	17	28	23	770	9.0	-222780.0	-2631.0	-2629.0
29	17	28	23	771	10.0	-214363.0	-2640.0	-4094.0
29	17	28	23	771	11.0	-195467.0	-2664.0	-6395.0
29	17	28	23	772	12.0	-172857.0	-2672.0	-9411.0
29	17	28	23	773	13.0	-150517.0	-2698.0	-11838.0
29	17	28	23	773	15.0	-115196.0	-2721.0	-15475.0
29	17	28	23	774	38.0	-283926.0	-2876.0	-16731.0
29	17	28	23	774	39.0	-297865.0	-2895.0	-16844.0
29	17	28	23	775	40.0	-299415.0	-2896.0	-16321.0
29	17	28	23	776	41.0	-291622.0	-2896.0	-17007.0
29	17	28	23	777	42.0	-276936.0	-2912.0	-17042.0
29	17	28	23	778	43.0	-255506.0	-2914.0	-16768.0
29	17	28	23	810	44.0	-228403.0	-2944.0	-16551.0
29	17	28	23	810	45.0	-197984.0	-2977.0	-15901.0
29	17	28	23	811	46.0	-167883.0	-2987.0	-15679.0
29	17	28	23	811	47.0	-141413.0	-3015.0	-16427.0
29	17	28	23	812	48.0	-120087.0	-3032.0	-18524.0
29	17	28	23	813	49.0	-105266.0	-3039.0	-20083.0
29	17	28	23	813	50.0	-96331.0	-3052.0	-20466.0
29	17	28	23	814	51.0	-92285.0	-3057.0	-20782.0
29	17	28	23	814	52.0	-93307.0	-3052.0	-21121.0
29	17	28	23	815	53.0	-98702.0	-3082.0	-21202.0
29	17	28	23	815	54.0	-107579.0	-3098.0	-21415.0
29	17	28	23	816	55.0	-120189.0	-3109.0	-21955.0
29	17	28	23	816	56.0	-136694.0	-3094.0	-22361.0
29	17	28	23	817	57.0	-155404.0	-3110.0	-22282.0
29	17	28	23	818	58.0	-174527.0	-3139.0	-21852.0
29	17	28	23	818	60.0	-208384.0	-3141.0	-16299.0
29	17	28	23	819	61.0	-220521.0	-3161.0	-15352.0
29	17	28	23	819	62.0	-228533.0	-3190.0	-15263.0
29	17	28	23	820	63.0	-232375.0	-3213.0	-15520.0
29	17	28	23	820	64.0	-232666.0	-3227.0	-15065.0
29	17	28	23	821	65.0	-230056.0	-3226.0	-15529.0
29	17	28	23	855	66.0	-226353.0	-3242.0	-16110.0
29	17	28	23	856	67.0	-221846.0	-3273.0	-15584.0
29	17	28	23	856	68.0	-216876.0	-3273.0	-14771.0
29	17	28	23	857	69.0	-211754.0	-3291.0	-12886.0
29	17	28	23	858	70.0	-207141.0	-3304.0	-12422.0
29	17	28	23	858	71.0	-201822.0	-3326.0	-13479.0
29	17	28	23	859	72.0	-196262.0	-3337.0	-14760.0
29	17	28	23	860	73.0	-191101.0	-3330.0	-15086.0
29	17	28	23	861	74.0	-186763.0	-3342.0	-15746.0
29	17	28	23	861	75.0	-182239.0	-3372.0	-15997.0
29	17	28	23	862	76.0	-177127.0	-3374.0	-16129.0
29	17	28	23	862	77.0	-172815.0	-3390.0	-17136.0
29	17	28	23	863	78.0	-168981.0	-3385.0	-17147.0
29	17	28	23	864	79.0	-165741.0	-3374.0	-18064.0
29	17	28	23	864	80.0	-163327.0	-3380.0	-18746.0
29	17	28	23	865	82.0	-158542.0	-3387.0	-19961.0
29	17	28	23	865	83.0	-155579.0	-3412.0	-19972.0
29	17	28	23	900	84.0	-152371.0	-3427.0	-19782.0
29	17	28	23	901	85.0	-149362.0	-3422.0	-20731.0
29	17	28	23	903	86.0	-146956.0	-3401.0	-20966.0
29	17	28	23	903	87.0	-145495.0	-3414.0	-21737.0
29	17	28	23	904	88.0	-145066.0	-3412.0	-23570.0
29	17	28	23	904	89.0	-146428.0	-3410.0	-24238.0
29	17	28	23	905	90.0	-150244.0	-3423.0	-23111.0
29	17	28	23	905	91.0	-154994.0	-3406.0	-22913.0
29	17	28	23	945	92.0	-160812.0	-3406.0	-23953.0
29	17	28	23	946	93.0	-166522.0	-3413.0	-24962.0
29	17	28	23	947	94.0	-172477.0	-3413.0	-25316.0
29	17	28	23	948	95.0	-178606.0	-3406.0	-25928.0
29	17	28	23	948	96.0	-183524.0	-3398.0	-26664.0
29	17	28	23	949	97.0	-187113.0	-3380.0	-27770.0
29	17	28	23	990	98.0	-191490.0	-3384.0	-28279.0
29	17	28	23	991	99.0	-195874.0	-3358.0	-28331.0
29	17	28	23	992	105.0	-202681.0	-3308.0	-29041.0
29	17	28	23	992	106.0	-203053.0	-3291.0	-30223.0
29	17	28	23	993	107.0	-203521.0	-3286.0	-31369.0
29	17	28	23	993	108.0	-204400.0	-3292.0	-32276.0
29	17	28	23	994	109.0	-205092.0	-3294.0	-32722.0
29	17	28	23	995	110.0	-205361.0	-3303.0	-33987.0
29	17	28	23	995	111.0	-205056.0	-3313.0	-34751.0
29	17	28	23	996	127.0	-170501.0	-3058.0	-36244.0
29	17	28	23	997	128.0	-174432.0	-3019.0	-36782.0
29	17	28	23	997	129.0	-178328.0	-2984.0	-37066.0
29	17	28	23	998	130.0	-182641.0	-2946.0	-35360.0
29	17	28	23	998	131.0	-187727.0	-2912.0	-33747.0
29	17	28	23	999	132.0	-193761.0	-2886.0	-32672.0
29	17	28	24	0	133.0	-200257.0	-2846.0	-32283.0
29	17	28	24	0	150.0	-291389.0	-2325.0	-37985.0
29	17	28	24	1	151.0	-281350.0	-2292.0	-40719.0
29	17	28	24	1	152.0	-266059.0	-2239.0	-41773.0
29	17	28	24	2	153.0	-247433.0	-2206.0	-40661.0
29	17	28	24	2	154.0	-226881.0	-2174.0	-38823.0
29	17	28	24	3	155.0	-227100.0	-2124.0	-38648.0
29	17	28	24	4	156.0	-252630.0	-2092.0	-38996.0
29	17	28	24	34	157.0	-283861.0	-2034.0	-38992.0
29	17	28	24	35	158.0	-304758.0	-1972.0	-38347.0
29	17	28	24	35	159.0	-315590.0	-1933.0	-38503.0
29	17	28	24	36	160.0	-316177.0	-1902.0	-38656.0
29	17	28	24	37	161.0	-306653.0	-1875.0	-39036.0
29	17	28	24	38	162.0	-291480.0	-1837.0	-39635.0
29	17	28	24	38	163.0	-272549.0	-1817.0	-40097.0
29	17	28	24	39	164.0	-250034.0	-1776.0	-40614.0
29	17	28	24	39	165.0	-226752.0	-1721.0	-41002.0
29	17	28	24	40	166.0	-205026.0	-1687.0	-41372.0
29	17	28	24	41	167.0	-185880.0	-1652.0	-41497.0
29	17	28	24	41	168.0	-170664.0	-1601.0	-42482.0
29	17	28	24	42	169.0	-160048.0	-1569.0	-42954.0
29	17	28	24	42	170.0	-153779.0	-1557.0	-43282.0
29	17	28	24	43	171.0	-153062.0	-1521.0	-43699.0
29	17	28	24	44	172.0	-155865.0	-1478.0	-43622.0
29	17	28	24	44	173.0	-158619.0	-1422.0	-44450.0
29	17	28	24	45	174.0	-161221.0	-1376.0	-44786.0
29	17	28	24	45	175.0	-164368.0	-1340.0	-44650.0
29	17	28	24	46	176.0	-167818.0	-1304.0	-44564.0
29	17	28	24	46	177.0	-171146.0	-1249.0	-44911.0
29	17	28	24	47	178.0	-174947.0	-1214.0	-44565.0
29	17	28	24	80	179.0	-178981.0	-1190.0	-44846.0
29	17	28	24	80	180.0	-182595.0	-1161.0	-45952.0
29	17	28	24	81	181.0	-184979.0	-1127.0	-46372.0
29	17	28	24	82	182.0	-185764.0	-1092.0	-46345.0
29	17	28	24	82	183.0	-184066.0	-1055.0	-45901.0
29	17	28	24	83	184.0	-180680.0	-1036.0	-44514.0
29	17	28	24	84	185.0	-176797.0	-1002.0	-45529.0
29	17	28	24	84	186.0	-173427.0	-987.0	-45929.0
29	17	28	24	85	187.0	-169941.0	-966.0	-45320.0
29	17	28	24	85	188.0	-165939.0	-940.0	-45614.0
29	17	28	24	86	189.0	-161741.0	-944.0	-45777.0
29	17	28	24	86	190.0	-156746.0	-921.0	-45486.0
29	17	28	24	87	191.0	-151439.0	-900.0	-45349.0
29	17	28	24	88	192.0	-146662.0	-888.0	-45007.0
29	17	28	24	88	193.0	-143032.0	-876.0	-44522.0
29	17	28	24	89	195.0	-142117.0	-827.0	-44976.0
29	17	28	24	89	196.0	-145217.0	-787.0	-43078.0
29	17	28	24	90	197.0	-150707.0	-748.0	-42391.0
29	17	28	24	90	198.0	-157599.0	-716.0	-42323.0
29	17	28	24	91	199.0	-165813.0	-694.0	-41801.0
29	17	28	24	92	200.0	-175916.0	-685.0	-41835.0
29	17	28	24	124	201.0	-187011.0	-657.0	-42725.0
29	17	28	24	125	202.0	-198188.0	-654.0	-43240.0
29	17	28	24	126	203.0	-208229.0	-644.0	-42368.0
29	17	28	24	126	204.0	-216847.0	-628.0	-42498.0
29	17	28	24	127	205.0	-223695.0	-617.0	-42817.0
29	17	28	24	128	206.0	-228958.0	-612.0	-42694.0
29	17	28	24	128	207.0	-232649.0	-613.0	-42808.0
29	17	28	24	129	208.0	-234776.0	-601.0	-44014.0
29	17	28	24	129	209.0	-235999.0	-591.0	-44432.0
29	17	28	24	130	210.0	-237062.0	-577.0	-44596.0
29	17	28	24	131	211.0	-237498.0	-551.0	-44794.0
29	17	28	24	131	212.0	-236908.0	-542.0	-44364.0
29	17	28	24	132	213.0	-234750.0	-533.0	-44411.0
29	17	28	24	132	214.0	-231711.0	-537.0	-44407.0
29	17	28	24	133	215.0	-228636.0	-548.0	-44539.0
29	17	28	24	134	217.0	-223862.0	-545.0	-44378.0
29	17	28	24	134	218.0	-221276.0	-556.0	-45012.0
29	17	28	24	135	219.0	-219002.0	-582.0	-45793.0
29	17	28	24	135	220.0	-216668.0	-567.0	-45992.0
29	17	28	24	136	221.0	-214431.0	-574.0	-46008.0
29	17	28	24	137	222.0	-212451.0	-604.0	-46686.0
29	17	28	24	138	223.0	-210401.0	-607.0	-46831.0
29	17	28	24	171	224.0	-207271.0	-602.0	-47267.0
29	17	28	24	172	225.0	-204719.0	-588.0	-47412.0
29	17	28	24	172	226.0	-202955.0	-596.0	-47181.0
29	17	28	24	173	227.0	-201506.0	-619.0	-46548.0
29	17	28	24	174	228.0	-200937.0	-608.0	-46546.0
29	17	28	24	174	229.0	-200671.0	-622.0	-47355.0
29	17	28	24	175	230.0	-202106.0	-602.0	-47451.0
29	17	28	24	176	231.0	-204940.0	-617.0	-46522.0
29	17	28	24	176	232.0	-208691.0	-628.0	-46765.0
29	17	28	24	177	233.0	-211884.0	-626.0	-47034.0
29	17	28	24	177	234.0	-214101.0	-609.0	-46287.0
29	17	28	24	178	235.0	-215342.0	-606.0	-45988.0
29	17	28	24	179	236.0	-216531.0	-590.0	-47177.0
29	17	28	24	179	237.0	-218416.0	-597.0	-48030.0
29	17	28	24	180	238.0	-220924.0	-590.0	-48621.0
29	17	28	24	180	240.0	-227237.0	-609.0	-50267.0
29	17	28	24	181	241.0	-230316.0	-614.0	-49802.0
29	17	28	24	182	242.0	-233452.0	-614.0	-50172.0
29	17	28	24	182	243.0	-236787.0	-618.0	-49524.0
29	17	28	24	183	244.0	-239341.0	-625.0	-49034.0
29	17	28	24	183	245.0	-240132.0	-594.0	-48933.0
29	17	28	24	216	246.0	-240031.0	-584.0	-49659.0
29	17	28	24	217	247.0	-240047.0	-611.0	-50348.0
29	17	28	24	218	248.0	-239347.0	-604.0	-50570.0
29	17	28	24	219	249.0	-237346.0	-597.0	-51414.0
29	17	28	24	219	250.0	-234527.0	-604.0	-52061.0
29	17	28	24	220	251.0	-230537.0	-619.0	-51779.0
29	17	28	24	221	252.0	-225559.0	-638.0	-51472.0
29	17	28	24	221	253.0	-221247.0	-628.0	-51303.0
29	17	28	24	222	254.0	-216757.0	-619.0	-51172.0
29	17	28	24	223	255.0	-210693.0	-634.0	-50966.0
29	17	28	24	223	0.0	-203246.0	-645.0	-51503.0
29	17	28	24	224	1.0	-194839.0	-639.0	-52010.0
29	17	28	24	225	2.0	-185721.0	-641.0	-52037.0
29	17	28	24	225	3.0	-176726.0	-619.0	-51957.0
29	17	28	24	226	4.0	-167191.0	-618.0	-51916.0
29	17	28	24	226	6.0	-150306.0	-617.0	-51066.0
29	17	28	24	227	7.0	-144076.0	-616.0	-52294.0
29	17	28	24	227	8.0	-139526.0	-620.0	-52576.0
29	17	28	24	228	9.0	-136028.0	-611.0	-51627.0
29	17	28	24	228	10.0	-132823.0	-597.0	-51676.0
29	17	28	24	229	11.0	-130986.0	-590.0	-52057.0
29	17	28	24	261	12.0	-131745.0	-574.0	-51428.0
29	17	28	24	262	13.0	-134097.0	-550.0	-50747.0
29	17	28	24	263	14.0	-138406.0	-547.0	-51611.0
29	17	28	24	263	15.0	-144727.0	-544.0	-52087.0
29	17	28	24	264	16.0	-152136.0	-541.0	-51230.0
29	17	28	24	265	17.0	-160201.0	-519.0	-51136.0
29	17	28	24	265	18.0	-168743.0	-526.0	-51807.0
29	17	28	24	266	19.0	-176815.0	-533.0	-51207.0
29	17	28	24	267	20.0	-183874.0	-505.0	-51281.0
29	17	28	24	268	21.0	-190826.0	-493.0	-52256.0
29	17	28	24	268	22.0	-198012.0	-481.0	-52561.0
29	17	28	24	269	23.0	-205065.0	-487.0	-52501.0
29	17	28	24	270	24.0	-211749.0	-469.0	-52813.0
29	17	28	24	270	25.0	-217207.0	-465.0	-53068.0
29	17	28	24	271	26.0	-221759.0	-452.0	-53216.0
29	17	28	24	272	28.0	-227374.0	-407.0	-54481.0
29	17	28	24	272	29.0	-228566.0	-389.0	-54112.0
29	17	28	24	273	30.0	-228299.0	-389.0	-53333.0
29	17	28	24	273	31.0	-226133.0	-384.0	-52449.0
29	17	28	24	274	32.0	-222789.0	-370.0	-51406.0
29	17	28	24	274	33.0	-219547.0	-356.0	-50043.0
29	17	28	24	275	34.0	-216042.0	-356.0	-49727.0
29	17	28	24	305	35.0	-211505.0	-360.0	-49763.0
29	17	28	24	306	36.0	-207287.0	-350.0	-50124.0
29	17	28	24	307	37.0	-203836.0	-344.0	-50131.0
29	17	28	24	308	38.0	-201431.0	-346.0	-50368.0
29	17	28	24	308	39.0	-200159.0	-349.0	-50987.0
29	17	28	24	309	40.0	-200533.0	-336.0	-51972.0
29	17	28	24	310	41.0	-202179.0	-347.0	-52012.0
29	17	28	24	310	42.0	-203871.0	-330.0	-51782.0
29	17	28	24	311	43.0	-204847.0	-351.0	-52272.0
29	17	28	24	311	44.0	-205196.0	-336.0	-52541.0
29	17	28	24	312	45.0	-204957.0	-295.0	-52651.0
29	17	28	24	313	46.0	-203946.0	-285.0	-52799.0
29	17	28	24	313	47.0	-202796.0	-287.0	-52639.0
29	17	28	24	314	48.0	-201367.0	-291.0	-52739.0
29	17	28	24	315	49.0	-198938.0	-284.0	-53144.0
29	17	28	24	315	51.0	-194812.0	-250.0	-53629.0
29	17	28	24	316	52.0	-193527.0	-272.0	-54101.0
29	17	28	24	316	53.0	-192989.0	-262.0	-55878.0
29	17	28	24	317	54.0	-193364.0	-249.0	-55779.0
29	17	28	24	317	55.0	-194801.0	-239.0	-56480.0
29	17	28	24	318	56.0	-196789.0	-233.0	-56962.0
29	17	28	24	349	57.0	-199621.0	-236.0	-56715.0
29	17	28	24	350	58.0	-201534.0	-247.0	-56152.0
29	17	28	24	351	59.0	-203110.0	-245.0	-56886.0
29	17	28	24	351	60.0	-205259.0	-239.0	-57304.0
29	17	28	24	352	61.0	-207279.0	-236.0	-56941.0
29	17	28	24	353	62.0	-208927.0	-246.0	-59296.0
29	17	28	24	353	63.0	-210574.0	-242.0	-62385.0
29	17	28	24	354	64.0	-211094.0	-233.0	-62134.0
29	17	28	24	355	65.0	-210144.0	-223.0	-61314.0
29	17	28	24	355	66.0	-208762.0	-206.0	-60638.0
29	17	28	24	356	67.0	-206714.0	-211.0	-59392.0
29	17	28	24	357	68.0	-203727.0	-209.0	-58496.0
29	17	28	24	357	69.0	-202253.0	-215.0	-58761.0
29	17	28	24	358	70.0	-202647.0	-236.0	-58074.0
29	17	28	24	359	71.0	-204438.0	-244.0	-58087.0
29	17	28	24	359	73.0	-209870.0	-234.0	-57284.0
29	17	28	24	360	74.0	-211937.0	-232.0	-57980.0
29	17	28	24	361	75.0	-213376.0	-228.0	-58041.0
29	17	28	24	361	76.0	-213708.0	-194.0	-57199.0
29	17	28	24	362	77.0	-212751.0	-205.0	-57050.0
29	17	28	24	362	78.0	-210267.0	-198.0	-57502.0
29	17	28	24	363	79.0	-207451.0	-171.0	-57243.0
29	17	28	24	395	80.0	-204784.0	-142.0	-57656.0
29	17	28	24	395	81.0	-203090.0	-114.0	-57776.0
29	17	28	24	396	82.0	-203054.0	-116.0	-57401.0
29	17	28	24	397	83.0	-204222.0	-102.0	-56945.0
29	17	28	24	397	84.0	-205897.0	-103.0	-57099.0
29	17	28	24	398	85.0	-207982.0	-91.0	-57292.0
29	17	28	24	399	86.0	-209669.0	-83.0	-56865.0
29	17	28	24	399	87.0	-210410.0	-100.0	-56798.0
29	17	28	24	400	88.0	-211398.0	-111.0	-56296.0
29	17	28	24	401	89.0	-212346.0	-128.0	-54758.0
29	17	28	24	401	90.0	-212490.0	-116.0	-54564.0
29	17	28	24	402	91.0	-212876.0	-117.0	-55435.0
29	17	28	24	403	92.0	-213574.0	-122.0	-54936.0
29	17	28	24	403	93.0	-214466.0	-127.0	-54448.0
29	17	28	24	404	94.0	-215691.0	-141.0	-55135.0
29	17	28	24	405	96.0	-215785.0	-131.0	-55581.0
29	17	28	24	405	97.0	-214377.0	-147.0	-56020.0
29	17	28	24	406	98.0	-212797.0	-157.0	-56726.0
29	17	28	24	406	99.0	-210815.0	-151.0	-56658.0
29	17	28	24	407	100.0	-208920.0	-140.0	-56469.0
29	17	28	24	408	101.0	-207699.0	-131.0	-56504.0
29	17	28	24	440	102.0	-206615.0	-136.0	-57957.0
29	17	28	24	440	103.0	-204803.0	-137.0	-59491.0
29	17	28	24	441	104.0	-202471.0	-134.0	-60371.0
29	17	28	24	442	105.0	-200371.0	-130.0	-60036.0
29	17	28	24	485	106.0	-198071.0	-133.0	-59974.0
29	17	28	24	486	107.0	-196106.0	-129.0	-59838.0
29	17	28	24	486	108.0	-195165.0	-128.0	-58826.0
29	17	28	24	487	109.0	-195029.0	-135.0	-57776.0
29	17	28	24	488	110.0	-195603.0	-136.0	-58209.0
29	17	28	24	488	111.0	-196942.0	-148.0	-58163.0
29	17	28	24	489	112.0	-198667.0	-152.0	-57873.0
29	17	28	24	490	113.0	-200277.0	-154.0	-57661.0
29	17	28	24	490	114.0	-202249.0	-179.0	-57580.0
29	17	28	24	491	115.0	-204902.0	-176.0	-58510.0
29	17	28	24	492	116.0	-209131.0	-194.0	-57972.0
29	17	28	24	492	118.0	-218964.0	-236.0	-57633.0
29	17	28	24	493	119.0	-224608.0	-290.0	-58318.0
29	17	28	24	494	120.0	-229987.0	-293.0	-57626.0
29	17	28	24	494	121.0	-234194.0	-289.0	-57069.0
29	17	28	24	495	122.0	-237131.0	-314.0	-56933.0
29	17	28	24	496	141.0	-243467.0	-702.0	-59476.0
29	17	28	24	496	142.0	-244144.0	-716.0	-60403.0
29	17	28	24	497	143.0	-244701.0	-714.0	-59981.0
29	17	28	24	498	144.0	-246159.0	-707.0	-59251.0
29	17	28	24	498	145.0	-248778.0	-708.0	-59839.0
29	17	28	24	499	146.0	-251519.0	-712.0	-59831.0
29	17	28	24	530	147.0	-254881.0	-718.0	-60166.0
29	17	28	24	531	148.0	-258792.0	-713.0	-59587.0
29	17	28	24	532	149.0	-262081.0	-711.0	-59333.0
29	17	28	24	533	150.0	-265262.0	-724.0	-59716.0
29	17	28	24	533	151.0	-267008.0	-733.0	-59986.0
29	17	28	24	534	152.0	-268570.0	-722.0	-60072.0
29	17	28	24	535	153.0	-270615.0	-737.0	-60490.0
29	17	28	24	536	154.0	-271971.0	-767.0	-61106.0
29	17	28	24	536	155.0	-272434.0	-785.0	-61225.0
29	17	28	24	537	156.0	-272354.0	-772.0	-60297.0
29	17	28	24	538	157.0	-271135.0	-783.0	-59419.0
29	17	28	24	538	158.0	-269585.0	-782.0	-59013.0
29	17	28	24	539	159.0	-267957.0	-782.0	-59200.0
29	17	28	24	540	160.0	-265966.0	-782.0	-58726.0
29	17	28	24	540	161.0	-264257.0	-771.0	-57135.0
29	17	28	24	541	163.0	-261802.0	-773.0	-54149.0
29	17	28	24	542	164.0	-260897.0	-769.0	-53922.0
29	17	28	24	542	165.0	-260282.0	-784.0	-54101.0
29	17	28	24	543	166.0	-259627.0	-756.0	-55762.0
29	17	28	24	543	167.0	-258207.0	-751.0	-58525.0
29	17	28	24	544	168.0	-256118.0	-769.0	-63187.0
29	17	28	24	544	169.0	-254785.0	-746.0	-69391.0
29	17	28	24	575	170.0	-252375.0	-736.0	-73880.0
29	17	28	24	576	171.0	-249734.0	-717.0	-75990.0
29	17	28	24	620	172.0	-246276.0	-712.0	-76609.0
29	17	28	24	621	173.0	-242471.0	-714.0	-76772.0
29	17	28	24	622	174.0	-238591.0	-696.0	-77278.0
29	17	28	24	622	175.0	-235454.0	-696.0	-77772.0
29	17	28	24	623	176.0	-234754.0	-699.0	-79357.0
29	17	28	24	624	177.0	-234844.0	-694.0	-83417.0
29	17	28	24	625	178.0	-235468.0	-692.0	-86843.0
29	17	28	24	625	179.0	-236961.0	-701.0	-87394.0
29	17	28	24	626	180.0	-238652.0	-714.0	-86520.0
29	17	28	24	627	181.0	-240339.0	-732.0	-84472.0
29	17	28	24	627	182.0	-243008.0	-747.0	-79112.0
29	17	28	24	628	183.0	-246137.0	-752.0	-71131.0
29	17	28	24	629	184.0	-249600.0	-750.0	-62589.0
29	17	28	24	629	186.0	-255354.0	-789.0	-44905.0
29	17	28	24	630	187.0	-258449.0	-800.0	-36682.0
29	17	28	24	631	188.0	-261042.0	-814.0	-32529.0
29	17	28	24	631	208.0	-339772.0	-1156.0	-53205.0
29	17	28	24	632	209.0	-331886.0	-1173.0	-52419.0
29	17	28	24	632	210.0	-315641.0	-1156.0	-52111.0
29	17	28	24	633	211.0	-289299.0	-1138.0	-52407.0
29	17	28	24	634	212.0	-256444.0	-1138.0	-53058.0
29	17	28	24	634	213.0	-224007.0	-1126.0	-53533.0
29	17	28	24	635	214.0	-198556.0	-1141.0	-53801.0
29	17	28	24	711	215.0	-182287.0	-1129.0	-53629.0
29	17	28	24	712	216.0	-178295.0	-1109.0	-53117.0
29	17	28	24	713	217.0	-188212.0	-1106.0	-52747.0
29	17	28	24	713	218.0	-209572.0	-1107.0	-52728.0
29	17	28	24	714	219.0	-238440.0	-1109.0	-53244.0
29	17	28	24	715	220.0	-269105.0	-1116.0	-53577.0
29	17	28	24	716	221.0	-296493.0	-1134.0	-54122.0
29	17	28	24	716	222.0	-316396.0	-1161.0	-54206.0
29	17	28	24	717	223.0	-325680.0	-1175.0	-54003.0
29	17	28	24	718	224.0	-324842.0	-1166.0	-53987.0
29	17	28	24	718	225.0	-313666.0	-1172.0	-54604.0
29	17	28	24	719	226.0	-294753.0	-1190.0	-55526.0
29	17	28	24	720	227.0	-271682.0	-1202.0	-55977.0
29	17	28	24	720	228.0	-245019.0	-1233.0	-54737.0
29	17	28	24	721	229.0	-218409.0	-1241.0	-54642.0
29	17	28	24	721	253.0	-184448.0	-1375.0	-55487.0
29	17	28	24	722	254.0	-178056.0	-1366.0	-56143.0
29	17	28	24	723	255.0	-171547.0	-1363.0	-55827.0
29	17	28	24	723	0.0	-164754.0	-1369.0	-55974.0
29	17	28	24	724	1.0	-158313.0	-1366.0	-56080.0
29	17	28	24	724	2.0	-151230.0	-1361.0	-55584.0
29	17	28	24	755	3.0	-144991.0	-1367.0	-55231.0
29	17	28	24	756	4.0	-139334.0	-1371.0	-55259.0
29	17	28	24	757	5.0	-134182.0	-1366.0	-55748.0
29	17	28	24	758	6.0	-131121.0	-1397.0	-56079.0
29	17	28	24	758	7.0	-128929.0	-1432.0	-54667.0
29	17	28	24	759	8.0	-126742.0	-1451.0	-54572.0
29	17	28	24	760	9.0	-124621.0	-1482.0	-54237.0
29	17	28	24	761	10.0	-122725.0	-1521.0	-53662.0
29	17	28	24	761	11.0	-122020.0	-1545.0	-53536.0
29	17	28	24	762	12.0	-122714.0	-1560.0	-53625.0
29	17	28	24	763	13.0	-126097.0	-1578.0	-53585.0
29	17	28	24	763	14.0	-131224.0	-1611.0	-53352.0
29	17	28	24	764	15.0	-136489.0	-1649.0	-54066.0
29	17	28	24	765	16.0	-142769.0	-1669.0	-54245.0
29	17	28	24	765	17.0	-149594.0	-1661.0	-54713.0
29	17	28	24	766	19.0	-162897.0	-1661.0	-56666.0
29	17	28	24	767	20.0	-168263.0	-1675.0	-57341.0
29	17	28	24	767	21.0	-172819.0	-1672.0	-57579.0
29	17	28	24	768	22.0	-177491.0	-1666.0	-56749.0
29	17	28	24	769	23.0	-181716.0	-1669.0	-56859.0
29	17	28	24	769	24.0	-184776.0	-1677.0	-56706.0
29	17	28	24	770	25.0	-186743.0	-1669.0	-56666.0
29	17	28	24	800	26.0	-189407.0	-1661.0	-57302.0
29	17	28	24	801	27.0	-191539.0	-1668.0	-57467.0
29	17	28	24	801	28.0	-193322.0	-1659.0	-57989.0
29	17	28	24	802	29.0	-195907.0	-1673.0	-58113.0
29	17	28	24	803	30.0	-197174.0	-1689.0	-57378.0
29	17	28	24	804	31.0	-197257.0	-1683.0	-56906.0
29	17	28	24	804	32.0	-196541.0	-1679.0	-57575.0
29	17	28	24	805	33.0	-195580.0	-1699.0	-57197.0
29	17	28	24	806	34.0	-193687.0	-1711.0	-56729.0
29	17	28	24	806	35.0	-191552.0	-1696.0	-57291.0
29	17	28	24	845	36.0	-190384.0	-1683.0	-57682.0
29	17	28	24	846	37.0	-189986.0	-1697.0	-57655.0
29	17	28	24	846	38.0	-190117.0	-1708.0	-57319.0
29	17	28	24	847	39.0	-189852.0	-1713.0	-57324.0
29	17	28	24	848	40.0	-188724.0	-1711.0	-58036.0
29	17	28	24	849	42.0	-186487.0	-1716.0	-57122.0
29	17	28	24	850	43.0	-185741.0	-1721.0	-56825.0
29	17	28	24	850	44.0	-183829.0	-1716.0	-56521.0
29	17	28	24	851	45.0	-181457.0	-1721.0	-56043.0
29	17	28	24	852	46.0	-179623.0	-1705.0	-55749.0
29	17	28	24	853	47.0	-178219.0	-1699.0	-55514.0
29	17	28	24	853	48.0	-176131.0	-1687.0	-54716.0
29	17	28	24	854	49.0	-174316.0	-1677.0	-54423.0
29	17	28	24	855	50.0	-172040.0	-1672.0	-54484.0
29	17	28	24	855	51.0	-170011.0	-1696.0	-53596.0
29	17	28	24	856	52.0	-168548.0	-1687.0	-52958.0
29	17	28	24	857	65.0	-183949.0	-1504.0	-48588.0
29	17	28	24	857	66.0	-183507.0	-1474.0	-48317.0
29	17	28	24	858	67.0	-183341.0	-1467.0	-47860.0
29	17	28	24	859	68.0	-182735.0	-1457.0	-48356.0
29	17	28	24	859	69.0	-182988.0	-1423.0	-48181.0
29	17	28	24	860	70.0	-184211.0	-1393.0	-46819.0
29	17	28	24	890	71.0	-186915.0	-1348.0	-46162.0
29	17	28	24	891	72.0	-191008.0	-1298.0	-45399.0
29	17	28	24	935	73.0	-194562.0	-1276.0	-44743.0
29	17	28	24	936	74.0	-199247.0	-1252.0	-45043.0
29	17	28	24	937	75.0	-204999.0	-1240.0	-45544.0
29	17	28	24	938	76.0	-209596.0	-1205.0	-45754.0
29	17	28	24	938	77.0	-213960.0	-1165.0	-45949.0
29	17	28	24	939	78.0	-216066.0	-1144.0	-46776.0
29	17	28	24	940	79.0	-215923.0	-1122.0	-46464.0
29	17	28	24	941	80.0	-212067.0	-1092.0	-46744.0
29	17	28	24	941	81.0	-201654.0	-1077.0	-49219.0
29	17	28	24	942	82.0	-188311.0	-1049.0	-50243.0
29	17	28	24	943	83.0	-174761.0	-1024.0	-50031.0
29	17	28	24	944	84.0	-187864.0	-1013.0	-48895.0
29	17	28	24	944	85.0	-219830.0	-1015.0	-47831.0
29	17	28	24	945	87.0	-267839.0	-1005.0	-48743.0
29	17	28	24	946	88.0	-278740.0	-975.0	-47802.0
29	17	28	24	947	89.0	-279440.0	-956.0	-46679.0
29	17	28	24	947	109.0	-209424.0	-559.0	-47902.0
29	17	28	24	948	110.0	-209383.0	-549.0	-47579.0
29	17	28	24	949	111.0	-207339.0	-554.0	-46774.0
29	17	28	24	949	112.0	-204934.0	-541.0	-46829.0
29	17	28	24	950	113.0	-202029.0	-539.0	-46922.0
29	17	28	24	951	114.0	-199166.0	-524.0	-46980.0
29	17	28	24	951	115.0	-197082.0	-519.0	-46961.0
29	17	28	24	980	116.0	-194881.0	-503.0	-46631.0
29	17	28	24	981	117.0	-193244.0	-493.0	-46139.0
29	17	28	24	982	118.0	-192629.0	-476.0	-45742.0
29	17	28	24	982	119.0	-191723.0	-477.0	-45382.0
29	17	28	24	983	120.0	-190295.0	-464.0	-44322.0
29	17	28	24	984	121.0	-188711.0	-459.0	-43371.0
29	17	28	24	985	122.0	-188257.0	-466.0	-44283.0
29	17	28	24	985	123.0	-188012.0	-461.0	-44899.0
29	17	28	24	986	124.0	-186584.0	-461.0	-44183.0
29	17	28	24	987	125.0	-184891.0	-445.0	-44320.0
29	17	28	24	988	126.0	-183044.0	-446.0	-44167.0
29	17	28	24	988	127.0	-180140.0	-456.0	-43461.0
29	17	28	24	989	128.0	-177614.0	-462.0	-43366.0
29	17	28	24	990	129.0	-176053.0	-464.0	-43150.0
29	17	28	24	991	130.0	-174561.0	-461.0	-43257.0
29	17	28	24	991	132.0	-175045.0	-466.0	-43061.0
29	17	28	24	992	133.0	-176910.0	-494.0	-42619.0
29	17	28	24	992	134.0	-180701.0	-501.0	-43689.0
29	17	28	24	993	135.0	-185430.0	-532.0	-44425.0
29	17	28	24	994	136.0	-189962.0	-559.0	-45008.0
29	17	28	24	994	137.0	-194582.0	-596.0	-46712.0
29	17	28	25	25	138.0	-198902.0	-606.0	-47258.0
29	17	28	25	26	139.0	-201640.0	-633.0	-46752.0
29	17	28	25	26	140.0	-202864.0	-666.0	-46530.0
29	17	28	25	27	141.0	-204083.0	-680.0	-47518.0
29	17	28	25	28	142.0	-204996.0	-711.0	-47821.0
29	17	28	25	28	143.0	-205407.0	-741.0	-47942.0
29	17	28	25	29	144.0	-205371.0	-760.0	-48206.0
29	17	28	25	29	145.0	-205290.0	-783.0	-47789.0
29	17	28	25	30	146.0	-204699.0	-804.0	-47384.0
29	17	28	25	31	147.0	-202882.0	-834.0	-47691.0
29	17	28	25	31	148.0	-200344.0	-864.0	-47586.0
29	17	28	25	32	149.0	-197542.0	-863.0	-47939.0
29	17	28	25	32	150.0	-194980.0	-861.0	-47501.0
29	17	28	25	33	151.0	-192010.0	-852.0	-46981.0
29	17	28	25	33	152.0	-188591.0	-866.0	-46561.0
29	17	28	25	34	154.0	-182323.0	-862.0	-47146.0
29	17	28	25	35	155.0	-178567.0	-869.0	-47643.0
29	17	28	25	35	156.0	-175316.0	-842.0	-48135.0
29	17	28	25	36	157.0	-173094.0	-828.0	-48192.0
29	17	28	25	36	158.0	-172483.0	-822.0	-48158.0
29	17	28	25	37	159.0	-172005.0	-802.0	-48935.0
29	17	28	25	69	160.0	-172342.0	-801.0	-48991.0
29	17	28	25	70	161.0	-173351.0	-801.0	-48607.0
29	17	28	25	71	162.0	-174892.0	-806.0	-48616.0
29	17	28	25	72	163.0	-176299.0	-813.0	-48667.0
29	17	28	25	72	164.0	-176655.0	-816.0	-48851.0
29	17	28	25	73	165.0	-176006.0	-817.0	-48727.0
29	17	28	25	73	166.0	-175022.0	-801.0	-49552.0
29	17	28	25	74	167.0	-174539.0	-789.0	-50179.0
29	17	28	25	74	168.0	-175334.0	-786.0	-49877.0
29	17	28	25	75	169.0	-177234.0	-792.0	-49817.0
29	17	28	25	76	170.0	-180301.0	-795.0	-49341.0
29	17	28	25	76	171.0	-183696.0	-786.0	-48359.0
29	17	28	25	77	172.0	-186985.0	-791.0	-47647.0
29	17	28	25	77	173.0	-190874.0	-812.0	-46688.0
29	17	28	25	78	174.0	-193790.0	-821.0	-46799.0
29	17	28	25	78	176.0	-196129.0	-799.0	-47842.0
29	17	28	25	79	177.0	-196511.0	-819.0	-48501.0
29	17	28	25	80	178.0	-196885.0	-797.0	-49125.0
29	17	28	25	80	179.0	-198034.0	-809.0	-48977.0
29	17	28	25	81	180.0	-198974.0	-818.0	-49038.0
29	17	28	25	81	181.0	-199417.0	-803.0	-48835.0
29	17	28	25	82	182.0	-199617.0	-799.0	-48814.0
29	17	28	25	114	183.0	-199706.0	-814.0	-48886.0
29	17	28	25	160	184.0	-199077.0	-809.0	-49564.0
29	17	28	25	161	185.0	-197819.0	-817.0	-50880.0
29	17	28	25	161	186.0	-195833.0	-810.0	-50518.0
29	17	28	25	205	187.0	-193227.0	-793.0	-50056.0
29	17	28	25	206	188.0	-190439.0	-792.0	-51768.0
29	17	28	25	251	189.0	-187893.0	-794.0	-51860.0
29	17	28	25	252	190.0	-185304.0	-781.0	-50497.0
29	17	28	25	252	191.0	-183029.0	-774.0	-50612.0
29	17	28	25	253	192.0	-180739.0	-768.0	-50859.0
29	17	28	25	253	193.0	-177592.0	-758.0	-50565.0
29	17	28	25	254	194.0	-173993.0	-759.0	-50044.0
29	17	28	25	255	195.0	-170334.0	-739.0	-50757.0
29	17	28	25	255	196.0	-166251.0	-723.0	-51342.0
29	17	28	25	256	197.0	-162987.0	-717.0	-52690.0
29	17	28	25	256	199.0	-157049.0	-730.0	-54887.0
29	17	28	25	257	200.0	-155391.0	-706.0	-54739.0
29	17	28	25	258	222.0	-230869.0	-639.0	-56404.0
29	17	28	25	258	223.0	-228704.0	-614.0	-55931.0
29	17	28	25	259	224.0	-225904.0	-598.0	-56881.0
29	17	28	25	259	244.0	-180633.0	-446.0	-51000.0
29	17	28	25	260	245.0	-177626.0	-459.0	-51329.0
29	17	28	25	260	11.0	-239385.0	-289.0	-47969.0
29	17	28	25	261	12.0	-246347.0	-262.0	-47422.0
29	17	28	25	262	13.0	-252632.0	-215.0	-46645.0
29	17	28	25	262	14.0	-257337.0	-207.0	-46585.0
29	17	28	25	263	15.0	-260674.0	-211.0	-46782.0
29	17	28	25	263	16.0	-263075.0	-184.0	-46890.0
29	17	28	25	295	17.0	-263910.0	-183.0	-46601.0
29	17	28	25	295	18.0	-263542.0	-165.0	-46609.0
29	17	28	25	296	19.0	-262086.0	-159.0	-47421.0
29	17	28	25	296	20.0	-259962.0	-143.0	-47016.0
29	17	28	25	297	21.0	-256974.0	-137.0	-46634.0
29	17	28	25	298	22.0	-253359.0	-158.0	-47916.0
29	17	28	25	298	23.0	-249644.0	-142.0	-48525.0
29	17	28	25	299	24.0	-245939.0	-142.0	-47211.0
29	17	28	25	300	25.0	-241438.0	-156.0	-46102.0
29	17	28	25	300	26.0	-236938.0	-149.0	-45722.0
29	17	28	25	301	27.0	-232032.0	-155.0	-45959.0
29	17	28	25	301	28.0	-226283.0	-181.0	-45978.0
29	17	28	25	302	29.0	-219932.0	-181.0	-44921.0
29	17	28	25	302	30.0	-213503.0	-200.0	-44473.0
29	17	28	25	303	31.0	-208474.0	-221.0	-44281.0
29	17	28	25	304	33.0	-200106.0	-211.0	-44018.0
29	17	28	25	304	34.0	-197786.0	-208.0	-43956.0
29	17	28	25	305	35.0	-196158.0	-192.0	-43538.0
29	17	28	25	305	36.0	-195081.0	-186.0	-43154.0
29	17	28	25	306	37.0	-193605.0	-174.0	-43065.0
29	17	28	25	306	38.0	-192094.0	-176.0	-42507.0
29	17	28	25	339	39.0	-190937.0	-169.0	-42307.0
29	17	28	25	340	40.0	-190151.0	-154.0	-42451.0
29	17	28	25	341	41.0	-190441.0	-150.0	-44040.0
29	17	28	25	341	42.0	-191609.0	-186.0	-46069.0
29	17	28	25	342	43.0	-193620.0	-197.0	-46975.0
29	17	28	25	342	44.0	-197559.0	-223.0	-46669.0
29	17	28	25	343	45.0	-202505.0	-253.0	-46674.0
29	17	28	25	344	46.0	-208491.0	-246.0	-46301.0
29	17	28	25	344	47.0	-213691.0	-241.0	-45758.0
29	17	28	25	345	48.0	-218827.0	-251.0	-45016.0
29	17	28	25	345	49.0	-225084.0	-284.0	-44381.0
29	17	28	25	346	50.0	-229379.0	-302.0	-44576.0
29	17	28	25	346	51.0	-231598.0	-306.0	-44079.0
29	17	28	25	347	52.0	-232724.0	-335.0	-42916.0
29	17	28	25	348	53.0	-233710.0	-356.0	-41643.0
29	17	28	25	348	55.0	-234189.0	-410.0	-40839.0
29	17	28	25	349	56.0	-234838.0	-440.0	-41419.0
29	17	28	25	349	57.0	-234769.0	-451.0	-40602.0
29	17	28	25	350	58.0	-234064.0	-474.0	-39725.0
29	17	28	25	351	59.0	-233119.0	-511.0	-40304.0
29	17	28	25	351	60.0	-231493.0	-543.0	-39482.0
29	17	28	25	352	61.0	-228747.0	-571.0	-38624.0
29	17	28	25	385	62.0	-225732.0	-597.0	-39343.0
29	17	28	25	386	63.0	-222564.0	-601.0	-39464.0
29	17	28	25	387	64.0	-218958.0	-646.0	-39352.0
29	17	28	25	387	65.0	-214761.0	-686.0	-39741.0
29	17	28	25	388	66.0	-210363.0	-695.0	-39885.0
29	17	28	25	388	67.0	-205938.0	-734.0	-39694.0
29	17	28	25	389	68.0	-201699.0	-766.0	-39606.0
29	17	28	25	390	69.0	-197683.0	-780.0	-40343.0
29	17	28	25	390	70.0	-194551.0	-791.0	-41026.0
29	17	28	25	391	71.0	-191133.0	-820.0	-42569.0
29	17	28	25	430	72.0	-187987.0	-847.0	-44775.0
29	17	28	25	431	73.0	-185367.0	-847.0	-45108.0
29	17	28	25	431	74.0	-182148.0	-859.0	-44226.0
29	17	28	25	432	75.0	-178561.0	-869.0	-44569.0
29	17	28	25	433	76.0	-174737.0	-876.0	-45132.0
29	17	28	25	433	78.0	-168529.0	-884.0	-45145.0
29	17	28	25	434	79.0	-166026.0	-904.0	-45097.0
29	17	28	25	434	80.0	-163647.0	-909.0	-44761.0
29	17	28	25	435	81.0	-161998.0	-919.0	-45762.0
29	17	28	25	436	82.0	-161312.0	-929.0	-46093.0
29	17	28	25	436	83.0	-161688.0	-975.0	-46136.0
29	17	28	25	437	84.0	-162971.0	-1001.0	-46116.0
29	17	28	25	437	85.0	-165101.0	-1002.0	-45666.0
29	17	28	25	438	86.0	-167806.0	-977.0	-44882.0
29	17	28	25	439	87.0	-170481.0	-974.0	-44537.0
29	17	28	25	439	100.0	-177126.0	-1042.0	-42207.0
29	17	28	25	440	101.0	-176322.0	-1032.0	-44332.0
29	17	28	25	440	102.0	-175429.0	-1036.0	-47936.0
29	17	28	25	441	103.0	-175285.0	-1069.0	-51911.0
29	17	28	25	442	104.0	-175341.0	-1069.0	-55802.0
29	17	28	25	442	105.0	-175457.0	-1082.0	-57985.0
29	17	28	25	474	106.0	-175556.0	-1109.0	-58407.0
29	17	28	25	475	107.0	-175802.0	-1119.0	-57628.0
29	17	28	25	476	108.0	-176006.0	-1147.0	-57684.0
29	17	28	25	476	109.0	-176289.0	-1162.0	-58508.0
29	17	28	25	477	110.0	-177160.0	-1169.0	-59684.0
29	17	28	25	478	111.0	-178432.0	-1212.0	-62701.0
29	17	28	25	478	112.0	-180401.0	-1217.0	-66839.0
29	17	28	25	479	113.0	-183394.0	-1212.0	-69652.0
29	17	28	25	479	114.0	-187006.0	-1234.0	-70015.0
29	17	28	25	480	115.0	-190692.0	-1252.0	-67763.0
29	17	28	25	481	116.0	-194382.0	-1261.0	-62886.0
29	17	28	25	520	117.0	-197603.0	-1278.0	-56491.0
29	17	28	25	521	118.0	-200097.0	-1291.0	-49055.0
29	17	28	25	521	119.0	-202152.0	-1279.0	-41012.0
29	17	28	25	522	120.0	-202677.0	-1283.0	-31869.0
29	17	28	25	523	122.0	-201116.0	-1276.0	-17792.0
29	17	28	25	523	123.0	-201052.0	-1296.0	-15709.0
29	17	28	25	524	124.0	-201542.0	-1295.0	-17715.0
29	17	28	25	524	125.0	-201649.0	-1287.0	-19709.0
29	17	28	25	525	126.0	-200758.0	-1274.0	-19341.0
29	17	28	25	526	127.0	-195754.0	-1281.0	-17964.0
29	17	28	25	526	128.0	-182814.0	-1304.0	-18878.0
29	17	28	25	527	129.0	-162919.0	-1308.0	-19595.0
29	17	28	25	527	130.0	-141740.0	-1334.0	-21426.0
29	17	28	25	528	131.0	-121874.0	-1337.0	-23650.0
29	17	28	25	529	132.0	-102539.0	-1329.0	-25916.0
29	17	28	25	529	145.0	-322083.0	-1525.0	-35357.0
29	17	28	25	530	146.0	-296562.0	-1528.0	-35322.0
29	17	28	25	530	147.0	-261579.0	-1510.0	-35666.0
29	17	28	25	531	148.0	-227424.0	-1514.0	-36069.0
29	17	28	25	532	149.0	-198554.0	-1499.0	-36264.0
29	17	28	25	532	150.0	-177641.0	-1500.0	-36942.0
29	17	28	25	564	151.0	-167842.0	-1525.0	-38311.0
29	17	28	25	565	152.0	-170491.0	-1534.0	-38438.0
29	17	28	25	565	153.0	-184915.0	-1535.0	-38352.0
29	17	28	25	566	154.0	-209887.0	-1550.0	-38003.0
29	17	28	25	567	155.0	-238203.0	-1555.0	-37119.0
29	17	28	25	567	156.0	-263049.0	-1550.0	-36825.0
29	17	28	25	568	157.0	-282390.0	-1561.0	-37320.0
29	17	28	25	568	158.0	-294622.0	-1556.0	-39248.0
29	17	28	25	569	159.0	-296822.0	-1577.0	-40863.0
29	17	28	25	570	160.0	-289249.0	-1591.0	-41622.0
29	17	28	25	570	161.0	-274454.0	-1606.0	-40769.0
29	17	28	25	571	162.0	-253617.0	-1588.0	-40061.0
29	17	28	25	572	163.0	-229174.0	-1603.0	-40171.0
29	17	28	25	572	164.0	-202658.0	-1608.0	-39356.0
29	17	28	25	573	165.0	-177221.0	-1584.0	-38555.0
29	17	28	25	573	167.0	-136622.0	-1594.0	-38071.0
29	17	28	25	574	168.0	-124626.0	-1610.0	-38336.0
29	17	28	25	575	169.0	-117780.0	-1611.0	-38359.0
29	17	28	25	576	170.0	-115969.0	-1614.0	-38254.0
29	17	28	25	576	171.0	-119701.0	-1606.0	-37717.0
29	17	28	25	577	172.0	-128696.0	-1596.0	-37606.0
29	17	28	25	586	173.0	-141407.0	-1576.0	-37515.0
29	17	28	25	611	174.0	-156694.0	-1558.0	-37228.0
29	17	28	25	611	175.0	-172417.0	-1524.0	-37041.0
29	17	28	25	612	176.0	-187082.0	-1521.0	-37516.0
29	17	28	25	655	177.0	-198928.0	-1533.0	-38548.0
29	17	28	25	656	178.0	-206829.0	-1512.0	-39544.0
29	17	28	25	656	179.0	-210944.0	-1506.0	-40007.0
29	17	28	25	657	180.0	-211624.0	-1524.0	-39382.0
29	17	28	25	658	181.0	-210879.0	-1525.0	-37959.0
29	17	28	25	658	182.0	-208964.0	-1529.0	-37901.0
29	17	28	25	659	183.0	-206534.0	-1517.0	-37532.0
29	17	28	25	660	184.0	-203163.0	-1532.0	-37042.0
29	17	28	25	660	185.0	-199590.0	-1547.0	-36766.0
29	17	28	25	661	186.0	-196742.0	-1534.0	-36388.0
29	17	28	25	661	187.0	-193992.0	-1534.0	-36410.0
29	17	28	25	662	188.0	-191734.0	-1574.0	-37054.0
29	17	28	25	663	190.0	-185557.0	-1599.0	-37327.0
29	17	28	25	663	191.0	-182268.0	-1632.0	-38137.0
29	17	28	25	664	192.0	-178140.0	-1641.0	-39351.0
29	17	28	25	665	193.0	-174393.0	-1656.0	-40446.0
29	17	28	25	665	213.0	-129255.0	-2054.0	-44670.0
29	17	28	25	666	214.0	-128757.0	-2049.0	-44444.0
29	17	28	25	666	215.0	-129798.0	-2071.0	-45367.0
29	17	28	25	667	216.0	-131500.0	-2084.0	-45775.0
29	17	28	25	668	217.0	-133929.0	-2082.0	-46868.0
29	17	28	25	700	218.0	-136357.0	-2098.0	-49409.0
29	17	28	25	700	219.0	-139253.0	-2107.0	-49949.0
29	17	28	25	701	220.0	-142753.0	-2106.0	-49782.0
29	17	28	25	702	221.0	-145974.0	-2134.0	-49895.0
29	17	28	25	702	222.0	-149503.0	-2135.0	-49603.0
29	17	28	25	703	223.0	-153021.0	-2137.0	-48634.0
29	17	28	25	704	224.0	-156427.0	-2159.0	-48311.0
29	17	28	25	705	225.0	-160462.0	-2161.0	-47356.0
29	17	28	25	706	226.0	-164615.0	-2146.0	-47029.0
29	17	28	25	706	227.0	-169737.0	-2176.0	-46394.0
29	17	28	25	707	228.0	-175927.0	-2172.0	-46804.0
29	17	28	25	708	229.0	-183005.0	-2151.0	-48466.0
29	17	28	25	708	230.0	-189661.0	-2144.0	-48550.0
29	17	28	25	709	231.0	-195361.0	-2148.0	-48472.0
29	17	28	25	709	232.0	-200086.0	-2167.0	-48628.0
29	17	28	25	710	233.0	-203654.0	-2137.0	-48362.0
29	17	28	25	711	235.0	-209089.0	-2105.0	-48226.0
29	17	28	25	711	236.0	-211367.0	-2111.0	-48136.0
29	17	28	25	712	237.0	-213352.0	-2086.0	-48131.0
29	17	28	25	712	238.0	-214204.0	-2062.0	-48076.0
29	17	28	25	713	239.0	-213331.0	-2032.0	-48599.0
29	17	28	25	714	240.0	-211479.0	-2006.0	-48855.0
29	17	28	25	746	241.0	-207802.0	-1993.0	-49104.0
29	17	28	25	746	242.0	-202908.0	-1984.0	-49486.0
29	17	28	25	747	243.0	-197488.0	-1966.0	-49054.0
29	17	28	25	748	244.0	-191444.0	-1956.0	-48911.0
29	17	28	25	748	245.0	-185034.0	-1938.0	-48918.0
29	17	28	25	749	246.0	-179457.0	-1949.0	-48603.0
29	17	28	25	750	247.0	-174112.0	-1951.0	-47245.0
29	17	28	25	750	248.0	-169806.0	-1948.0	-46794.0
29	17	28	25	751	249.0	-166166.0	-1966.0	-47427.0
29	17	28	25	752	250.0	-162896.0	-1955.0	-46889.0
29	17	28	25	752	251.0	-160750.0	-1966.0	-46811.0
29	17	28	25	753	252.0	-158110.0	-1956.0	-46874.0
29	17	28	25	753	253.0	-155879.0	-1912.0	-46195.0
29	17	28	25	754	254.0	-153537.0	-1892.0	-45874.0
29	17	28	25	755	255.0	-150714.0	-1861.0	-45231.0
29	17	28	25	755	1.0	-149032.0	-1820.0	-45277.0
29	17	28	25	756	2.0	-149646.0	-1784.0	-45349.0
29	17	28	25	756	3.0	-151106.0	-1783.0	-45964.0
29	17	28	25	757	4.0	-153802.0	-1789.0	-45651.0
29	17	28	25	757	5.0	-158421.0	-1780.0	-44666.0
29	17	28	25	758	6.0	-164086.0	-1761.0	-44332.0
29	17	28	25	759	7.0	-169590.0	-1713.0	-44358.0
29	17	28	25	790	8.0	-174999.0	-1681.0	-44887.0
29	17	28	25	791	9.0	-180456.0	-1632.0	-46081.0
29	17	28	25	792	10.0	-185449.0	-1615.0	-47173.0
29	17	28	25	793	11.0	-188761.0	-1576.0	-47449.0
29	17	28	25	793	12.0	-191386.0	-1544.0	-47662.0
29	17	28	25	794	13.0	-193272.0	-1518.0	-48442.0
29	17	28	25	794	14.0	-193847.0	-1491.0	-50135.0
29	17	28	25	795	15.0	-191469.0	-1462.0	-50856.0
29	17	28	25	796	16.0	-182332.0	-1434.0	-49831.0
29	17	28	25	796	17.0	-168249.0	-1422.0	-49709.0
29	17	28	25	797	18.0	-152746.0	-1411.0	-50162.0
29	17	28	25	798	19.0	-161175.0	-1371.0	-49421.0
29	17	28	25	798	20.0	-189101.0	-1357.0	-49629.0
29	17	28	25	799	21.0	-216181.0	-1337.0	-50436.0
29	17	28	25	800	22.0	-233539.0	-1314.0	-49744.0
29	17	28	25	800	24.0	-247387.0	-1254.0	-47768.0
29	17	28	25	801	25.0	-239212.0	-1234.0	-47194.0
29	17	28	25	801	26.0	-226449.0	-1204.0	-46784.0
29	17	28	25	802	27.0	-210379.0	-1169.0	-46847.0
29	17	28	25	802	28.0	-192007.0	-1119.0	-46169.0
29	17	28	25	803	29.0	-172909.0	-1077.0	-45209.0
29	17	28	25	835	30.0	-153858.0	-1055.0	-44387.0
29	17	28	25	836	31.0	-136446.0	-1010.0	-44397.0
29	17	28	25	837	32.0	-121902.0	-989.0	-44383.0
29	17	28	25	838	33.0	-110956.0	-943.0	-43783.0
29	17	28	25	838	34.0	-103322.0	-904.0	-43745.0
29	17	28	25	839	35.0	-99837.0	-860.0	-43941.0
29	17	28	25	840	36.0	-99872.0	-835.0	-42672.0
29	17	28	25	840	37.0	-104337.0	-809.0	-41367.0
29	17	28	25	841	38.0	-113264.0	-785.0	-40777.0
29	17	28	25	842	39.0	-124848.0	-743.0	-40490.0
29	17	28	25	842	40.0	-136406.0	-722.0	-41830.0
29	17	28	25	843	41.0	-146492.0	-701.0	-41746.0
29	17	28	25	844	42.0	-156075.0	-680.0	-40422.0
29	17	28	25	844	43.0	-164226.0	-669.0	-39957.0
29	17	28	25	845	44.0	-170029.0	-648.0	-39819.0
29	17	28	25	845	46.0	-177379.0	-612.0	-40679.0
29	17	28	25	846	47.0	-180531.0	-595.0	-40342.0
29	17	28	25	847	48.0	-184506.0	-591.0	-40153.0
29	17	28	25	847	49.0	-189239.0	-585.0	-40520.0
29	17	28	25	848	50.0	-194959.0	-535.0	-40166.0
29	17	28	25	849	51.0	-200844.0	-501.0	-40143.0
29	17	28	25	849	52.0	-206249.0	-474.0	-40789.0
29	17	28	25	879	53.0	-211844.0	-447.0	-40880.0
29	17	28	25	880	54.0	-216813.0	-404.0	-41850.0
29	17	28	25	881	55.0	-220280.0	-385.0	-42567.0
29	17	28	25	881	56.0	-221812.0	-369.0	-41869.0
29	17	28	25	882	57.0	-221746.0	-361.0	-41682.0
29	17	28	25	883	58.0	-220312.0	-369.0	-41662.0
29	17	28	25	883	59.0	-217200.0	-350.0	-41581.0
29	17	28	25	884	60.0	-213837.0	-335.0	-41322.0
29	17	28	25	885	61.0	-210477.0	-323.0	-40697.0
29	17	28	25	885	62.0	-206794.0	-307.0	-41250.0
29	17	28	25	886	63.0	-203379.0	-307.0	-41691.0
29	17	28	25	886	64.0	-199806.0	-284.0	-41862.0
29	17	28	25	887	65.0	-195736.0	-269.0	-42072.0
29	17	28	25	888	66.0	-191550.0	-257.0	-41850.0
29	17	28	25	888	67.0	-187676.0	-260.0	-42113.0
29	17	28	25	889	68.0	-184896.0	-259.0	-42003.0
29	17	28	25	889	69.0	-183552.0	-269.0	-41789.0
29	17	28	25	890	70.0	-183541.0	-271.0	-42392.0
29	17	28	25	891	71.0	-184716.0	-277.0	-42936.0
29	17	28	25	891	72.0	-186037.0	-266.0	-43679.0
29	17	28	25	892	73.0	-188152.0	-261.0	-44544.0
29	17	28	25	893	74.0	-189864.0	-243.0	-44419.0
29	17	28	25	925	75.0	-191727.0	-246.0	-44841.0
29	17	28	25	926	76.0	-195983.0	-247.0	-46408.0
29	17	28	25	927	77.0	-201572.0	-267.0	-45581.0
29	17	28	25	928	78.0	-208301.0	-298.0	-45217.0
29	17	28	25	928	79.0	-215525.0	-338.0	-44252.0
29	17	28	25	929	80.0	-222111.0	-361.0	-44271.0
29	17	28	25	929	81.0	-227612.0	-381.0	-44382.0
29	17	28	25	930	82.0	-231988.0	-402.0	-43742.0
29	17	28	25	931	83.0	-236048.0	-443.0	-43843.0
29	17	28	25	931	84.0	-239971.0	-477.0	-43592.0
29	17	28	25	932	85.0	-243700.0	-501.0	-43111.0
29	17	28	25	933	86.0	-247333.0	-515.0	-42980.0
29	17	28	25	933	87.0	-249600.0	-539.0	-42561.0
29	17	28	25	934	88.0	-251237.0	-562.0	-41678.0
29	17	28	25	935	89.0	-252684.0	-584.0	-39812.0
29	17	28	25	935	91.0	-253525.0	-640.0	-36731.0
29	17	28	25	936	92.0	-252956.0	-682.0	-35169.0
29	17	28	25	936	93.0	-252114.0	-692.0	-35357.0
29	17	28	25	937	94.0	-250846.0	-722.0	-37107.0
29	17	28	25	938	95.0	-248342.0	-716.0	-36245.0
29	17	28	25	938	96.0	-245166.0	-726.0	-35036.0
29	17	28	25	970	97.0	-240760.0	-726.0	-34401.0
29	17	28	25	971	98.0	-236107.0	-730.0	-34162.0
29	17	28	25	972	99.0	-231655.0	-767.0	-34401.0
29	17	28	25	972	100.0	-226511.0	-776.0	-34124.0
29	17	28	25	973	101.0	-221452.0	-773.0	-33749.0
29	17	28	25	974	102.0	-216298.0	-782.0	-34277.0
29	17	28	25	975	103.0	-210494.0	-788.0	-34260.0
29	17	28	25	975	104.0	-204799.0	-789.0	-34653.0
29	17	28	25	976	105.0	-199711.0	-770.0	-35093.0
29	17	28	25	977	106.0	-195081.0	-766.0	-34804.0
29	17	28	25	977	107.0	-191281.0	-765.0	-35099.0
29	17	28	25	978	108.0	-187626.0	-756.0	-34627.0
29	17	28	25	979	109.0	-184162.0	-773.0	-35005.0
29	17	28	25	979	110.0	-181595.0	-781.0	-35467.0
29	17	28	25	980	111.0	-179443.0	-766.0	-35051.0
29	17	28	25	981	113.0	-176868.0	-759.0	-37087.0
29	17	28	25	981	114.0	-176446.0	-769.0	-36637.0
29	17	28	25	982	115.0	-177061.0	-772.0	-36359.0
29	17	28	25	983	116.0	-178431.0	-757.0	-36336.0
29	17	28	25	984	117.0	-180044.0	-722.0	-35641.0
29	17	28	25	984	118.0	-182422.0	-709.0	-35977.0
29	17	28	25	985	119.0	-184474.0	-725.0	-36057.0
29	17	28	26	16	120.0	-185882.0	-731.0	-35451.0
29	17	28	26	16	121.0	-186536.0	-728.0	-36086.0
29	17	28	26	17	122.0	-186630.0	-739.0	-36942.0
29	17	28	26	18	123.0	-187059.0	-762.0	-36924.0
29	17	28	26	19	124.0	-187442.0	-778.0	-37589.0
29	17	28	26	19	125.0	-188108.0	-786.0	-37849.0
29	17	28	26	20	126.0	-189194.0	-787.0	-37667.0
29	17	28	26	21	127.0	-190081.0	-776.0	-37739.0
29	17	28	26	21	128.0	-191809.0	-770.0	-39276.0
29	17	28	26	22	129.0	-193911.0	-776.0	-39839.0
29	17	28	26	23	130.0	-195270.0	-790.0	-39082.0
29	17	28	26	23	131.0	-196038.0	-794.0	-37953.0
29	17	28	26	24	132.0	-196391.0	-783.0	-37551.0
29	17	28	26	25	133.0	-196521.0	-779.0	-38264.0
29	17	28	26	25	134.0	-196457.0	-780.0	-38809.0
29	17	28	26	26	136.0	-195406.0	-754.0	-38381.0
29	17	28	26	27	137.0	-195034.0	-760.0	-37873.0
29	17	28	26	27	138.0	-195184.0	-751.0	-37660.0
29	17	28	26	28	139.0	-196020.0	-747.0	-37599.0
29	17	28	26	28	140.0	-196802.0	-739.0	-38045.0
29	17	28	26	29	141.0	-197643.0	-712.0	-39296.0
29	17	28	26	151	142.0	-198738.0	-716.0	-39649.0
29	17	28	26	152	143.0	-200397.0	-701.0	-39464.0
29	17	28	26	152	144.0	-202533.0	-694.0	-40075.0
29	17	28	26	153	145.0	-204536.0	-692.0	-40211.0
29	17	28	26	154	146.0	-206178.0	-687.0	-39992.0
29	17	28	26	155	147.0	-207621.0	-700.0	-40421.0
29	17	28	26	155	148.0	-209307.0	-699.0	-39754.0
29	17	28	26	156	149.0	-210099.0	-687.0	-39096.0
29	17	28	26	157	150.0	-210713.0	-702.0	-39357.0
29	17	28	26	157	151.0	-211912.0	-704.0	-39271.0
29	17	28	26	158	152.0	-213503.0	-710.0	-40470.0
29	17	28	26	159	153.0	-216111.0	-732.0	-42186.0
29	17	28	26	160	154.0	-219069.0	-742.0	-41769.0
29	17	28	26	160	155.0	-221242.0	-739.0	-41312.0
29	17	28	26	161	156.0	-222154.0	-738.0	-39848.0
29	17	28	26	162	158.0	-220371.0	-702.0	-37542.0
29	17	28	26	162	203.0	-206664.0	-1186.0	-27440.0
29	17	28	26	163	204.0	-203671.0	-1197.0	-27827.0
29	17	28	26	164	205.0	-199856.0	-1186.0	-27121.0
29	17	28	26	164	206.0	-196472.0	-1191.0	-27218.0
29	17	28	26	165	207.0	-193488.0	-1201.0	-26957.0
29	17	28	26	165	208.0	-191051.0	-1198.0	-26964.0
29	17	28	26	166	209.0	-190230.0	-1207.0	-26974.0
29	17	28	26	166	210.0	-190356.0	-1223.0	-26095.0
29	17	28	26	196	211.0	-190706.0	-1236.0	-25967.0
29	17	28	26	197	212.0	-191593.0	-1247.0	-25666.0
29	17	28	26	198	213.0	-192258.0	-1262.0	-26354.0
29	17	28	26	198	214.0	-192597.0	-1254.0	-26525.0
29	17	28	26	199	215.0	-192892.0	-1273.0	-26205.0
29	17	28	26	200	216.0	-192242.0	-1260.0	-26949.0
29	17	28	26	201	217.0	-191975.0	-1261.0	-26522.0
29	17	28	26	201	218.0	-192363.0	-1265.0	-25437.0
29	17	28	26	202	219.0	-192784.0	-1281.0	-25229.0
29	17	28	26	203	220.0	-193934.0	-1301.0	-25499.0
29	17	28	26	203	221.0	-195423.0	-1320.0	-25430.0
29	17	28	26	204	222.0	-197260.0	-1347.0	-26470.0
29	17	28	26	205	223.0	-199576.0	-1377.0	-27100.0
29	17	28	26	205	224.0	-202135.0	-1394.0	-26441.0
29	17	28	26	206	225.0	-205123.0	-1401.0	-26293.0
29	17	28	26	207	226.0	-208666.0	-1409.0	-26261.0
29	17	28	26	207	227.0	-212584.0	-1427.0	-24836.0
29	17	28	26	208	228.0	-215864.0	-1441.0	-23942.0
29	17	28	26	208	229.0	-218029.0	-1447.0	-24277.0
29	17	28	26	209	230.0	-219696.0	-1452.0	-24707.0
29	17	28	26	210	231.0	-220942.0	-1481.0	-24614.0
29	17	28	26	248	232.0	-221499.0	-1482.0	-24587.0
29	17	28	26	249	233.0	-221000.0	-1475.0	-24252.0
29	17	28	26	249	234.0	-219702.0	-1492.0	-24317.0
29	17	28	26	250	235.0	-218336.0	-1518.0	-25074.0
29	17	28	26	251	236.0	-217386.0	-1522.0	-25099.0
29	17	28	26	252	237.0	-215934.0	-1529.0	-24076.0
29	17	28	26	253	238.0	-213997.0	-1548.0	-23781.0
29	17	28	26	254	239.0	-211624.0	-1559.0	-23857.0
29	17	28	26	255	240.0	-207847.0	-1574.0	-24541.0
29	17	28	26	256	241.0	-202973.0	-1593.0	-25230.0
29	17	28	26	257	242.0	-197469.0	-1579.0	-24464.0
29	17	28	26	257	243.0	-191796.0	-1587.0	-23536.0
29	17	28	26	258	244.0	-187045.0	-1602.0	-23090.0
29	17	28	26	258	245.0	-183552.0	-1620.0	-23517.0
29	17	28	26	259	246.0	-181762.0	-1624.0	-23137.0
29	17	28	26	260	248.0	-181668.0	-1666.0	-21760.0
29	17	28	26	260	249.0	-183606.0	-1677.0	-21998.0
29	17	28	26	261	250.0	-186516.0	-1674.0	-21932.0
29	17	28	26	262	251.0	-190089.0	-1692.0	-21431.0
29	17	28	26	262	252.0	-194357.0	-1717.0	-20961.0
29	17	28	26	263	253.0	-199289.0	-1742.0	-21419.0
29	17	28	26	286	254.0	-204499.0	-1738.0	-22486.0
29	17	28	26	287	255.0	-209461.0	-1732.0	-22387.0
29	17	28	26	287	0.0	-214830.0	-1744.0	-22166.0
29	17	28	26	288	1.0	-220240.0	-1770.0	-21944.0
29	17	28	26	289	2.0	-225392.0	-1782.0	-21314.0
29	17	28	26	291	3.0	-230277.0	-1822.0	-20171.0
29	17	28	26	292	4.0	-234227.0	-1850.0	-19748.0
29	17	28	26	293	5.0	-237186.0	-1892.0	-20216.0
29	17	28	26	293	6.0	-239450.0	-1906.0	-19853.0
29	17	28	26	294	7.0	-241577.0	-1949.0	-19406.0
29	17	28	26	295	8.0	-243320.0	-1986.0	-19561.0
29	17	28	26	296	9.0	-244657.0	-2022.0	-19325.0
29	17	28	26	296	10.0	-246041.0	-2049.0	-19428.0
29	17	28	26	297	11.0	-247672.0	-2079.0	-18874.0
29	17	28	26	298	12.0	-248716.0	-2110.0	-17636.0
29	17	28	26	298	14.0	-248453.0	-2115.0	-18916.0
29	17	28	26	299	15.0	-246648.0	-2143.0	-18825.0
29	17	28	26	299	16.0	-243586.0	-2145.0	-18241.0
29	17	28	26	300	17.0	-239909.0	-2144.0	-18827.0
29	17	28	26	300	18.0	-234868.0	-2151.0	-18682.0
29	17	28	26	301	19.0	-228904.0	-2142.0	-17666.0
29	17	28	26	302	20.0	-224020.0	-2147.0	-17202.0
29	17	28	26	330	21.0	-219339.0	-2156.0	-16594.0
29	17	28	26	331	22.0	-215033.0	-2159.0	-16312.0
29	17	28	26	375	23.0	-212137.0	-2175.0	-16199.0
29	17	28	26	376	24.0	-210490.0	-2165.0	-15952.0
29	17	28	26	377	25.0	-209660.0	-2185.0	-15246.0
29	17	28	26	378	26.0	-210046.0	-2206.0	-15587.0
29	17	28	26	379	27.0	-211203.0	-2206.0	-15794.0
29	17	28	26	380	28.0	-213321.0	-2214.0	-14908.0
29	17	28	26	380	29.0	-216191.0	-2227.0	-14202.0
29	17	28	26	381	30.0	-218845.0	-2249.0	-14483.0
29	17	28	26	381	31.0	-221795.0	-2259.0	-14211.0
29	17	28	26	382	32.0	-224817.0	-2281.0	-14509.0
29	17	28	26	383	33.0	-227680.0	-2305.0	-14287.0
29	17	28	26	384	34.0	-230751.0	-2322.0	-14231.0
29	17	28	26	384	35.0	-234334.0	-2330.0	-14918.0
29	17	28	26	385	37.0	-241476.0	-2361.0	-12464.0
29	17	28	26	385	38.0	-245513.0	-2400.0	-11439.0
29	17	28	26	386	39.0	-248574.0	-2429.0	-11214.0
29	17	28	26	386	60.0	-201671.0	-2607.0	-14821.0
29	17	28	26	387	61.0	-203706.0	-2596.0	-6002.0
29	17	28	26	388	62.0	-205484.0	-2575.0	2271.0
29	17	28	26	388	63.0	-208057.0	-2560.0	9894.0
29	17	28	26	389	64.0	-211197.0	-2558.0	11985.0
29	17	28	26	389	65.0	-216428.0	-2562.0	9971.0
29	17	28	26	419	66.0	-222456.0	-2571.0	6741.0
29	17	28	26	443	67.0	-227526.0	-2580.0	5750.0
29	17	28	26	443	68.0	-230962.0	-2598.0	6018.0
29	17	28	26	444	69.0	-227019.0	-2636.0	5188.0
29	17	28	26	445	70.0	-212925.0	-2648.0	4085.0
29	17	28	26	445	71.0	-195451.0	-2659.0	2741.0
29	17	28	26	446	72.0	-177469.0	-2691.0	1106.0
29	17	28	26	446	73.0	-160310.0	-2725.0	-1965.0
29	17	28	26	447	74.0	-145674.0	-2752.0	-4076.0
29	17	28	26	447	75.0	-138551.0	-2786.0	-5366.0
29	17	28	26	448	76.0	-141330.0	-2816.0	-6689.0
29	17	28	26	448	77.0	-155289.0	-2854.0	-7686.0
29	17	28	26	449	78.0	-183929.0	-2891.0	-7567.0
29	17	28	26	449	79.0	-225074.0	-2921.0	-8240.0
29	17	28	26	450	80.0	-270765.0	-2967.0	-9798.0
29	17	28	26	450	82.0	-332762.0	-3023.0	-9360.0
29	17	28	26	451	83.0	-341707.0	-3039.0	-9981.0
29	17	28	26	452	84.0	-339606.0	-3042.0	-10334.0
29	17	28	26	452	85.0	-327961.0	-3049.0	-10215.0
29	17	28	26	453	86.0	-311822.0	-3062.0	-10113.0
29	17	28	26	453	87.0	-286617.0	-3065.0	-9898.0
29	17	28	26	467	88.0	-249941.0	-3077.0	-9578.0
29	17	28	26	467	89.0	-208071.0	-3101.0	-10285.0
29	17	28	26	468	90.0	-167987.0	-3114.0	-10384.0
29	17	28	26	468	91.0	-134746.0	-3120.0	-10307.0
29	17	28	26	469	92.0	-113117.0	-3138.0	-10267.0
29	17	28	26	470	93.0	-108217.0	-3149.0	-9727.0
29	17	28	26	470	94.0	-120096.0	-3117.0	-9284.0
29	17	28	26	471	95.0	-145019.0	-3099.0	-10024.0
29	17	28	26	472	96.0	-176311.0	-3087.0	-9118.0
29	17	28	26	472	97.0	-206184.0	-3093.0	-8609.0
29	17	28	26	473	98.0	-231906.0	-3089.0	-8901.0
29	17	28	26	473	99.0	-250675.0	-3082.0	-7979.0
29	17	28	26	474	100.0	-257141.0	-3051.0	-7403.0
29	17	28	26	474	101.0	-254914.0	-3041.0	-7599.0
29	17	28	26	475	102.0	-246214.0	-3037.0	-7571.0
29	17	28	26	476	104.0	-212842.0	-3038.0	-5602.0
29	17	28	26	476	105.0	-192343.0	-3051.0	-6116.0
29	17	28	26	477	106.0	-170124.0	-3028.0	-6247.0
29	17	28	26	477	107.0	-150137.0	-3007.0	-6381.0
29	17	28	26	478	108.0	-134028.0	-2988.0	-6864.0
29	17	28	26	478	109.0	-121701.0	-2976.0	-6368.0
29	17	28	26	479	110.0	-114094.0	-2969.0	-6049.0
29	17	28	26	510	111.0	-109888.0	-2963.0	-6214.0
29	17	28	26	511	112.0	-109405.0	-2959.0	-6456.0
29	17	28	26	511	113.0	-114527.0	-2947.0	-5954.0
29	17	28	26	512	114.0	-124743.0	-2926.0	-6132.0
29	17	28	26	513	115.0	-137467.0	-2914.0	-6995.0
29	17	28	26	513	116.0	-152952.0	-2911.0	-7624.0
29	17	28	26	514	117.0	-168948.0	-2912.0	-7124.0
29	17	28	26	514	118.0	-182335.0	-2906.0	-7032.0
29	17	28	26	515	119.0	-193738.0	-2934.0	-7357.0
29	17	28	26	516	120.0	-202154.0	-2954.0	-6797.0
29	17	28	26	516	121.0	-207589.0	-2980.0	-6707.0
29	17	28	26	517	122.0	-211052.0	-3003.0	-7812.0
29	17	28	26	517	123.0	-211342.0	-3020.0	-8502.0
29	17	28	26	518	124.0	-211187.0	-3024.0	-9058.0
29	17	28	26	527	125.0	-210002.0	-3037.0	-9363.0
29	17	28	26	527	127.0	-205057.0	-3087.0	-10057.0
29	17	28	26	528	128.0	-201934.0	-3106.0	-9641.0
29	17	28	26	529	129.0	-199059.0	-3106.0	-9531.0
29	17	28	26	529	130.0	-195855.0	-3101.0	-10142.0
29	17	28	26	600	131.0	-192231.0	-3119.0	-12023.0
29	17	28	26	601	132.0	-189164.0	-3141.0	-13534.0
29	17	28	26	601	133.0	-187135.0	-3162.0	-12934.0
29	17	28	26	602	134.0	-185534.0	-3172.0	-13039.0
29	17	28	26	602	135.0	-185314.0	-3169.0	-13534.0
29	17	28	26	603	136.0	-185871.0	-3185.0	-13661.0
29	17	28	26	604	137.0	-185704.0	-3216.0	-14361.0
29	17	28	26	604	138.0	-184604.0	-3216.0	-14400.0
29	17	28	26	605	139.0	-183566.0	-3199.0	-14257.0
29	17	28	26	605	140.0	-180374.0	-3187.0	-14261.0
29	17	28	26	606	141.0	-177332.0	-3188.0	-13707.0
29	17	28	26	606	142.0	-174907.0	-3176.0	-13363.0
29	17	28	26	607	143.0	-171152.0	-3165.0	-14374.0
29	17	28	26	608	144.0	-168671.0	-3165.0	-14579.0
29	17	28	26	608	145.0	-166365.0	-3161.0	-14031.0
29	17	28	26	609	149.0	-159756.0	-3191.0	-15607.0
29	17	28	26	609	172.0	-144212.0	-3134.0	-19012.0
29	17	28	26	610	173.0	-143739.0	-3102.0	-18244.0
29	17	28	26	611	174.0	-142497.0	-3076.0	-18819.0
29	17	28	26	611	175.0	-141881.0	-3073.0	-19536.0
29	17	28	26	612	176.0	-142031.0	-3057.0	-18551.0
29	17	28	26	612	177.0	-141976.0	-3037.0	-18115.0
29	17	28	26	645	178.0	-142422.0	-3001.0	-18139.0
29	17	28	26	645	179.0	-142875.0	-2962.0	-17951.0
29	17	28	26	646	180.0	-144027.0	-2932.0	-17686.0
29	17	28	26	647	181.0	-146846.0	-2902.0	-17847.0
29	17	28	26	647	182.0	-150678.0	-2876.0	-18017.0
29	17	28	26	648	183.0	-155177.0	-2839.0	-17669.0
29	17	28	26	648	184.0	-161479.0	-2811.0	-17686.0
29	17	28	26	649	185.0	-168547.0	-2781.0	-17737.0
29	17	28	26	650	186.0	-176312.0	-2766.0	-16495.0
29	17	28	26	650	187.0	-185137.0	-2730.0	-15749.0
29	17	28	26	651	188.0	-193460.0	-2702.0	-15370.0
29	17	28	26	651	189.0	-201175.0	-2678.0	-14189.0
29	17	28	26	652	190.0	-209659.0	-2632.0	-12876.0
29	17	28	26	652	191.0	-216960.0	-2607.0	-12270.0
29	17	28	26	653	192.0	-224176.0	-2578.0	-10907.0
29	17	28	26	654	194.0	-241499.0	-2548.0	-10199.0
29	17	28	26	654	195.0	-248215.0	-2511.0	-10447.0
29	17	28	26	655	196.0	-254478.0	-2478.0	-9336.0
29	17	28	26	689	197.0	-258977.0	-2438.0	-8796.0
29	17	28	26	690	198.0	-261229.0	-2408.0	-8172.0
29	17	28	26	690	199.0	-262228.0	-2381.0	-7563.0
29	17	28	26	691	200.0	-260647.0	-2329.0	-7433.0
29	17	28	26	692	201.0	-257347.0	-2299.0	-7021.0
29	17	28	26	692	202.0	-254028.0	-2274.0	-8373.0
29	17	28	26	693	203.0	-249131.0	-2251.0	-9827.0
29	17	28	26	694	204.0	-242231.0	-2209.0	-10688.0
29	17	28	26	694	205.0	-235869.0	-2182.0	-10330.0
29	17	28	26	695	206.0	-229752.0	-2160.0	-10918.0
29	17	28	26	695	207.0	-223352.0	-2124.0	-11169.0
29	17	28	26	696	208.0	-218145.0	-2102.0	-10883.0
29	17	28	26	697	209.0	-214064.0	-2076.0	-10212.0
29	17	28	26	697	210.0	-210389.0	-2066.0	-9454.0
29	17	28	26	698	211.0	-206579.0	-2047.0	-8778.0
29	17	28	26	698	216.0	-161440.0	-1996.0	-7504.0
29	17	28	26	699	217.0	-191295.0	-1979.0	-6624.0
29	17	28	26	700	218.0	-222822.0	-1994.0	-6552.0
29	17	28	26	700	219.0	-244257.0	-1951.0	-7812.0
29	17	28	26	701	220.0	-256951.0	-1937.0	-8484.0
29	17	28	26	709	221.0	-257845.0	-1917.0	-7529.0
29	17	28	26	710	222.0	-247627.0	-1906.0	-7844.0
29	17	28	26	734	223.0	-233941.0	-1882.0	-9229.0
29	17	28	26	735	224.0	-216399.0	-1866.0	-10598.0
29	17	28	26	735	225.0	-193557.0	-1850.0	-11454.0
29	17	28	26	736	226.0	-170692.0	-1835.0	-12449.0
29	17	28	26	737	227.0	-150589.0	-1842.0	-13323.0
29	17	28	26	737	228.0	-134699.0	-1833.0	-13757.0
29	17	28	26	738	229.0	-123284.0	-1829.0	-14386.0
29	17	28	26	739	230.0	-116040.0	-1817.0	-14962.0
29	17	28	26	739	231.0	-112320.0	-1817.0	-14697.0
29	17	28	26	740	232.0	-111758.0	-1819.0	-14754.0
29	17	28	26	740	233.0	-114737.0	-1834.0	-15126.0
29	17	28	26	741	234.0	-121227.0	-1854.0	-16192.0
29	17	28	26	742	235.0	-131032.0	-1834.0	-17747.0
29	17	28	26	742	236.0	-143619.0	-1822.0	-18028.0
29	17	28	26	743	237.0	-157374.0	-1833.0	-19142.0
29	17	28	26	744	239.0	-184174.0	-1839.0	-21154.0
29	17	28	26	744	240.0	-196340.0	-1866.0	-20329.0
29	17	28	26	871	241.0	-207567.0	-1866.0	-19621.0
29	17	28	26	872	242.0	-216516.0	-1837.0	-18558.0
29	17	28	26	873	243.0	-222931.0	-1811.0	-18093.0
29	17	28	26	873	244.0	-226341.0	-1812.0	-19162.0
29	17	28	26	875	245.0	-229051.0	-1787.0	-18292.0
29	17	28	26	876	246.0	-232539.0	-1764.0	-17469.0
29	17	28	26	877	247.0	-236222.0	-1769.0	-17579.0
29	17	28	26	877	248.0	-240411.0	-1754.0	-16817.0
29	17	28	26	878	249.0	-245748.0	-1745.0	-16479.0
29	17	28	26	879	250.0	-251581.0	-1734.0	-16031.0
29	17	28	26	880	251.0	-257474.0	-1726.0	-15608.0
29	17	28	26	881	252.0	-261882.0	-1702.0	-15033.0
29	17	28	26	881	253.0	-264349.0	-1691.0	-14766.0
29	17	28	26	882	254.0	-266567.0	-1659.0	-14881.0
29	17	28	26	882	255.0	-267539.0	-1639.0	-14682.0
29	17	28	26	883	5.0	-251051.0	-1576.0	-11002.0
29	17	28	26	884	51.0	-195239.0	-1791.0	5704.0
29	17	28	26	884	52.0	-192641.0	-1793.0	5376.0
29	17	28	26	885	53.0	-188327.0	-1784.0	5696.0
29	17	28	26	885	54.0	-182615.0	-1786.0	6437.0
29	17	28	26	886	55.0	-176419.0	-1792.0	5623.0
29	17	28	26	886	56.0	-169528.0	-1767.0	5649.0
29	17	28	26	915	57.0	-161937.0	-1754.0	5956.0
29	17	28	26	916	58.0	-154123.0	-1749.0	5813.0
29	17	28	26	917	59.0	-145511.0	-1729.0	6092.0
29	17	28	26	941	60.0	-135658.0	-1732.0	7174.0
29	17	28	26	942	61.0	-126477.0	-1707.0	7158.0
29	17	28	26	942	62.0	-119346.0	-1672.0	7435.0
29	17	28	26	943	63.0	-113578.0	-1661.0	7871.0
29	17	28	26	944	64.0	-109834.0	-1654.0	7396.0
29	17	28	26	944	65.0	-108782.0	-1646.0	7141.0
29	17	28	26	945	66.0	-108801.0	-1639.0	7283.0
29	17	28	26	945	67.0	-110441.0	-1645.0	7152.0
29	17	28	26	946	68.0	-113560.0	-1644.0	7119.0
29	17	28	26	946	69.0	-117842.0	-1647.0	6502.0
29	17	28	26	947	70.0	-124019.0	-1630.0	6448.0
29	17	28	26	948	71.0	-133417.0	-1633.0	5215.0
29	17	28	26	948	73.0	-156320.0	-1627.0	3738.0
29	17	28	26	949	74.0	-169214.0	-1615.0	3294.0
29	17	28	26	949	75.0	-181801.0	-1594.0	3263.0
29	17	28	26	950	76.0	-192674.0	-1597.0	3884.0
29	17	28	26	950	77.0	-202582.0	-1624.0	14121.0
29	17	28	26	951	78.0	-211372.0	-1616.0	28574.0
29	17	28	26	964	79.0	-218491.0	-1583.0	28189.0
29	17	28	26	964	80.0	-224224.0	-1572.0	28051.0
29	17	28	26	965	81.0	-228234.0	-1572.0	28588.0
29	17	28	26	966	82.0	-230143.0	-1589.0	28811.0
29	17	28	26	966	83.0	-231779.0	-1601.0	28629.0
29	17	28	26	967	84.0	-233081.0	-1603.0	28698.0
29	17	28	26	968	85.0	-233379.0	-1587.0	28803.0
29	17	28	26	969	86.0	-232836.0	-1597.0	27927.0
29	17	28	26	969	87.0	-230503.0	-1611.0	28824.0
29	17	28	26	970	88.0	-227737.0	-1622.0	29291.0
29	17	28	26	970	89.0	-224450.0	-1646.0	28915.0
29	17	28	26	971	90.0	-220546.0	-1672.0	28799.0
29	17	28	26	972	91.0	-216272.0	-1680.0	28682.0
29	17	28	26	972	92.0	-211914.0	-1694.0	28184.0
29	17	28	26	973	93.0	-207027.0	-1699.0	28614.0
29	17	28	26	973	95.0	-197266.0	-1734.0	28563.0
29	17	28	26	974	96.0	-192473.0	-1762.0	28779.0
29	17	28	26	975	97.0	-186959.0	-1771.0	28590.0
29	17	28	26	975	98.0	-181510.0	-1764.0	28501.0
29	17	28	26	976	99.0	-175677.0	-1767.0	28018.0
29	17	28	26	976	100.0	-169180.0	-1772.0	27489.0
29	17	28	26	977	101.0	-163324.0	-1774.0	27561.0
29	17	28	27	5	102.0	-159151.0	-1762.0	26770.0
29	17	28	27	6	103.0	-154824.0	-1767.0	26854.0
29	17	28	27	7	104.0	-151680.0	-1769.0	27562.0
29	17	28	27	7	105.0	-149999.0	-1781.0	27714.0
29	17	28	27	8	106.0	-148941.0	-1781.0	28581.0
29	17	28	27	9	107.0	-148731.0	-1752.0	28706.0
29	17	28	27	9	108.0	-149179.0	-1722.0	28236.0
29	17	28	27	10	109.0	-149791.0	-1713.0	27903.0
29	17	28	27	11	110.0	-150667.0	-1729.0	28036.0
29	17	28	27	11	111.0	-151176.0	-1745.0	27839.0
29	17	28	27	12	112.0	-152007.0	-1754.0	27738.0
29	17	28	27	12	113.0	-153965.0	-1752.0	27988.0
29	17	28	27	13	114.0	-156232.0	-1756.0	28448.0
29	17	28	27	14	115.0	-158974.0	-1734.0	29510.0
29	17	28	27	14	116.0	-162666.0	-1706.0	28836.0
29	17	28	27	15	118.0	-174094.0	-1717.0	28549.0
29	17	28	27	16	119.0	-180356.0	-1716.0	28371.0
29	17	28	27	17	120.0	-187563.0	-1684.0	28246.0
29	17	28	27	17	121.0	-194935.0	-1671.0	27856.0
29	17	28	27	18	122.0	-202165.0	-1673.0	28237.0
29	17	28	27	19	123.0	-210438.0	-1665.0	28679.0
29	17	28	27	97	124.0	-219099.0	-1654.0	29249.0
29	17	28	27	98	125.0	-227210.0	-1652.0	29411.0
29	17	28	27	100	126.0	-234790.0	-1641.0	29111.0
29	17	28	27	101	127.0	-240017.0	-1634.0	29124.0
29	17	28	27	102	128.0	-243617.0	-1641.0	29830.0
29	17	28	27	102	129.0	-245412.0	-1635.0	30554.0
29	17	28	27	103	130.0	-244793.0	-1637.0	29859.0
29	17	28	27	104	131.0	-243647.0	-1633.0	29328.0
29	17	28	27	104	132.0	-241494.0	-1639.0	29642.0
29	17	28	27	105	133.0	-239284.0	-1651.0	29482.0
29	17	28	27	106	134.0	-235912.0	-1637.0	29388.0
29	17	28	27	106	135.0	-231316.0	-1631.0	30201.0
29	17	28	27	107	136.0	-227008.0	-1648.0	29034.0
29	17	28	27	108	137.0	-221804.0	-1641.0	27442.0
29	17	28	27	108	138.0	-215681.0	-1622.0	27404.0
29	17	28	27	109	140.0	-201224.0	-1605.0	27358.0
29	17	28	27	109	163.0	-158372.0	-1844.0	28738.0
29	17	28	27	110	164.0	-169204.0	-1852.0	28829.0
29	17	28	27	111	165.0	-179792.0	-1862.0	28671.0
29	17	28	27	111	166.0	-190189.0	-1857.0	29280.0
29	17	28	27	112	167.0	-201142.0	-1849.0	29284.0
29	17	28	27	112	168.0	-212292.0	-1853.0	29850.0
29	17	28	27	140	169.0	-223275.0	-1844.0	30228.0
29	17	28	27	141	170.0	-234125.0	-1837.0	30041.0
29	17	28	27	142	171.0	-244841.0	-1817.0	30088.0
29	17	28	27	143	172.0	-254141.0	-1814.0	29019.0
29	17	28	27	143	173.0	-262211.0	-1802.0	29133.0
29	17	28	27	144	174.0	-269180.0	-1799.0	29499.0
29	17	28	27	145	175.0	-273731.0	-1816.0	30327.0
29	17	28	27	145	176.0	-275312.0	-1809.0	31077.0
29	17	28	27	146	177.0	-275247.0	-1816.0	31037.0
29	17	28	27	147	178.0	-273292.0	-1792.0	31092.0
29	17	28	27	147	179.0	-269968.0	-1773.0	31068.0
29	17	28	27	148	180.0	-265452.0	-1772.0	32153.0
29	17	28	27	149	181.0	-259134.0	-1772.0	33414.0
29	17	28	27	149	182.0	-251838.0	-1782.0	33561.0
29	17	28	27	150	183.0	-243454.0	-1799.0	33376.0
29	17	28	27	151	185.0	-226679.0	-1821.0	34348.0
29	17	28	27	151	186.0	-218229.0	-1854.0	34178.0
29	17	28	27	152	187.0	-210092.0	-1849.0	33928.0
29	17	28	27	152	188.0	-201639.0	-1839.0	35011.0
29	17	28	27	153	189.0	-193556.0	-1827.0	35825.0
29	17	28	27	154	190.0	-186171.0	-1814.0	37018.0
29	17	28	27	154	191.0	-178798.0	-1794.0	37446.0
29	17	28	27	185	192.0	-171706.0	-1791.0	37713.0
29	17	28	27	185	193.0	-165582.0	-1773.0	37859.0
29	17	28	27	186	194.0	-160413.0	-1762.0	37839.0
29	17	28	27	187	195.0	-156063.0	-1759.0	37622.0
29	17	28	27	188	196.0	-152431.0	-1764.0	37453.0
29	17	28	27	188	197.0	-150761.0	-1760.0	37334.0
29	17	28	27	189	198.0	-149874.0	-1756.0	36820.0
29	17	28	27	189	199.0	-148983.0	-1774.0	35681.0
29	17	28	27	190	200.0	-149540.0	-1779.0	35282.0
29	17	28	27	191	201.0	-151510.0	-1770.0	35686.0
29	17	28	27	230	202.0	-154437.0	-1772.0	36058.0
29	17	28	27	231	203.0	-157557.0	-1793.0	36726.0
29	17	28	27	232	204.0	-161061.0	-1797.0	37054.0
29	17	28	27	233	205.0	-165787.0	-1797.0	37121.0
29	17	28	27	233	206.0	-171925.0	-1803.0	37417.0
29	17	28	27	234	207.0	-179682.0	-1805.0	37455.0
29	17	28	27	235	208.0	-187352.0	-1819.0	36778.0
29	17	28	27	235	209.0	-193729.0	-1808.0	35866.0
29	17	28	27	236	210.0	-199296.0	-1784.0	35699.0
29	17	28	27	237	211.0	-203359.0	-1796.0	35955.0
29	17	28	27	237	212.0	-205769.0	-1816.0	36676.0
29	17	28	27	238	213.0	-206882.0	-1820.0	36701.0
29	17	28	27	239	214.0	-207337.0	-1830.0	36809.0
29	17	28	27	239	215.0	-208327.0	-1844.0	36396.0
29	17	28	27	240	216.0	-209082.0	-1853.0	36297.0
29	17	28	27	241	230.0	-208559.0	-2027.0	34929.0
29	17	28	27	241	231.0	-209058.0	-2029.0	34122.0
29	17	28	27	242	232.0	-208106.0	-2014.0	33776.0
29	17	28	27	242	233.0	-206404.0	-2002.0	34776.0
29	17	28	27	243	234.0	-204346.0	-2016.0	34806.0
29	17	28	27	243	235.0	-201849.0	-2022.0	34441.0
29	17	28	27	321	236.0	-199709.0	-2019.0	33860.0
29	17	28	27	322	237.0	-197809.0	-2011.0	33110.0
29	17	28	27	323	238.0	-196146.0	-2003.0	33632.0
29	17	28	27	324	239.0	-195295.0	-1992.0	34294.0
29	17	28	27	324	240.0	-194691.0	-2012.0	34572.0
29	17	28	27	325	241.0	-193666.0	-2014.0	34671.0
29	17	28	27	326	242.0	-191921.0	-2019.0	36020.0
29	17	28	27	326	243.0	-189552.0	-2038.0	36831.0
29	17	28	27	327	244.0	-186365.0	-2051.0	37271.0
29	17	28	27	328	245.0	-182491.0	-2047.0	38153.0
29	17	28	27	329	246.0	-178856.0	-2055.0	39123.0
29	17	28	27	329	247.0	-175351.0	-2051.0	39639.0
29	17	28	27	330	248.0	-171858.0	-2059.0	40111.0
29	17	28	27	330	249.0	-169059.0	-2071.0	40642.0
29	17	28	27	331	250.0	-166249.0	-2066.0	41258.0
29	17	28	27	332	252.0	-161394.0	-2076.0	45691.0
29	17	28	27	332	19.0	-221489.0	-2237.0	50962.0
29	17	28	27	333	20.0	-228279.0	-2219.0	59249.0
29	17	28	27	333	21.0	-233027.0	-2222.0	66734.0
29	17	28	27	334	22.0	-235282.0	-2217.0	70159.0
29	17	28	27	335	23.0	-235458.0	-2216.0	67269.0
29	17	28	27	335	24.0	-233194.0	-2197.0	63824.0
29	17	28	27	365	25.0	-228617.0	-2178.0	60559.0
29	17	28	27	366	26.0	-221598.0	-2177.0	59649.0
29	17	28	27	367	27.0	-208342.0	-2184.0	59431.0
29	17	28	27	368	28.0	-186288.0	-2205.0	58171.0
29	17	28	27	368	29.0	-161909.0	-2194.0	55617.0
29	17	28	27	369	30.0	-138364.0	-2178.0	53923.0
29	17	28	27	370	31.0	-115975.0	-2201.0	52213.0
29	17	28	27	370	32.0	-96032.0	-2203.0	50929.0
29	17	28	27	371	33.0	-83970.0	-2198.0	49624.0
29	17	28	27	372	34.0	-81215.0	-2196.0	48026.0
29	17	28	27	373	35.0	-88888.0	-2202.0	47268.0
29	17	28	27	373	36.0	-109940.0	-2182.0	46459.0
29	17	28	27	374	37.0	-144501.0	-2163.0	46144.0
29	17	28	27	375	38.0	-186301.0	-2160.0	46024.0
29	17	28	27	375	39.0	-226269.0	-2182.0	45904.0
29	17	28	27	376	41.0	-273292.0	-2183.0	45523.0
29	17	28	27	376	42.0	-280317.0	-2192.0	46557.0
29	17	28	27	377	43.0	-281722.0	-2179.0	48246.0
29	17	28	27	378	44.0	-278142.0	-2180.0	46718.0
29	17	28	27	378	45.0	-266852.0	-2188.0	45656.0
29	17	28	27	379	46.0	-246611.0	-2186.0	45857.0
29	17	28	27	379	47.0	-218409.0	-2183.0	46081.0
29	17	28	27	410	48.0	-189954.0	-2191.0	46459.0
29	17	28	27	410	49.0	-166621.0	-2198.0	46731.0
29	17	28	27	411	50.0	-152929.0	-2201.0	46614.0
29	17	28	27	412	51.0	-155142.0	-2236.0	45665.0
29	17	28	27	413	52.0	-176836.0	-2275.0	46095.0
29	17	28	27	413	53.0	-211522.0	-2302.0	46458.0
29	17	28	27	414	54.0	-249979.0	-2311.0	46051.0
29	17	28	27	415	55.0	-287687.0	-2316.0	45779.0
29	17	28	27	415	56.0	-320177.0	-2329.0	45674.0
29	17	28	27	416	57.0	-342132.0	-2357.0	45494.0
29	17	28	27	417	58.0	-352041.0	-2379.0	45445.0
29	17	28	27	417	59.0	-350919.0	-2395.0	45706.0
29	17	28	27	418	60.0	-341106.0	-2419.0	45830.0
29	17	28	27	419	61.0	-324665.0	-2443.0	45784.0
29	17	28	27	419	62.0	-302352.0	-2466.0	45241.0
29	17	28	27	420	64.0	-248444.0	-2502.0	44102.0
29	17	28	27	421	65.0	-222743.0	-2529.0	44579.0
29	17	28	27	421	66.0	-200366.0	-2526.0	44513.0
29	17	28	27	422	67.0	-182479.0	-2532.0	44291.0
29	17	28	27	422	68.0	-169231.0	-2554.0	44754.0
29	17	28	27	423	69.0	-159406.0	-2561.0	45548.0
29	17	28	27	455	70.0	-152858.0	-2566.0	44454.0
29	17	28	27	456	71.0	-150524.0	-2547.0	43379.0
29	17	28	27	456	72.0	-152831.0	-2556.0	42062.0
29	17	28	27	457	73.0	-159877.0	-2541.0	42138.0
29	17	28	27	458	74.0	-171561.0	-2537.0	42689.0
29	17	28	27	459	75.0	-185823.0	-2544.0	43191.0
29	17	28	27	459	76.0	-199690.0	-2526.0	43650.0
29	17	28	27	460	77.0	-211747.0	-2516.0	43974.0
29	17	28	27	461	78.0	-221057.0	-2496.0	44395.0
29	17	28	27	462	79.0	-226613.0	-2486.0	44578.0
29	17	28	27	463	80.0	-227979.0	-2474.0	44269.0
29	17	28	27	464	81.0	-225272.0	-2463.0	44344.0
29	17	28	27	464	82.0	-219648.0	-2448.0	43241.0
29	17	28	27	465	83.0	-211742.0	-2426.0	43052.0
29	17	28	27	466	84.0	-202809.0	-2392.0	43753.0
29	17	28	27	466	86.0	-185931.0	-2360.0	41722.0
29	17	28	27	467	87.0	-178047.0	-2366.0	42257.0
29	17	28	27	468	88.0	-170178.0	-2343.0	42174.0
29	17	28	27	468	89.0	-162586.0	-2327.0	41822.0
29	17	28	27	469	90.0	-155027.0	-2307.0	40514.0
29	17	28	27	469	91.0	-147337.0	-2282.0	40412.0
29	17	28	27	499	92.0	-140094.0	-2233.0	39950.0
29	17	28	27	500	93.0	-133397.0	-2220.0	40324.0
29	17	28	27	501	94.0	-127726.0	-2219.0	39629.0
29	17	28	27	501	95.0	-122651.0	-2201.0	38975.0
29	17	28	27	502	96.0	-118041.0	-2204.0	38713.0
29	17	28	27	503	97.0	-115176.0	-2220.0	38361.0
29	17	28	27	503	98.0	-113891.0	-2197.0	38181.0
29	17	28	27	504	99.0	-114550.0	-2198.0	37510.0
29	17	28	27	505	100.0	-117537.0	-2213.0	37313.0
29	17	28	27	505	101.0	-121524.0	-2201.0	36217.0
29	17	28	27	506	102.0	-126949.0	-2197.0	35671.0
29	17	28	27	506	103.0	-133277.0	-2187.0	34494.0
29	17	28	27	545	104.0	-140306.0	-2178.0	33473.0
29	17	28	27	546	105.0	-147882.0	-2172.0	33412.0
29	17	28	27	546	106.0	-155988.0	-2151.0	34098.0
29	17	28	27	547	108.0	-175309.0	-2185.0	33027.0
29	17	28	27	548	109.0	-185381.0	-2204.0	33270.0
29	17	28	27	549	110.0	-194884.0	-2202.0	32978.0
29	17	28	27	549	111.0	-202672.0	-2212.0	32848.0
29	17	28	27	550	112.0	-208729.0	-2201.0	32776.0
29	17	28	27	551	113.0	-213323.0	-2173.0	32739.0
29	17	28	27	551	114.0	-216657.0	-2169.0	32423.0
29	17	28	27	552	115.0	-218479.0	-2159.0	32834.0
29	17	28	27	553	116.0	-218724.0	-2141.0	32818.0
29	17	28	27	553	117.0	-217773.0	-2121.0	32520.0
29	17	28	27	554	118.0	-216046.0	-2128.0	32009.0
29	17	28	27	555	119.0	-213451.0	-2129.0	31579.0
29	17	28	27	556	120.0	-210704.0	-2115.0	31564.0
29	17	28	27	556	131.0	-181105.0	-1966.0	26598.0
29	17	28	27	557	132.0	-176927.0	-1942.0	25955.0
29	17	28	27	557	133.0	-171312.0	-1893.0	25914.0
29	17	28	27	558	134.0	-164696.0	-1869.0	26349.0
29	17	28	27	559	135.0	-157637.0	-1848.0	25532.0
29	17	28	27	559	136.0	-151109.0	-1809.0	24402.0
29	17	28	27	560	137.0	-144978.0	-1790.0	25814.0
29	17	28	27	590	138.0	-138454.0	-1762.0	27733.0
29	17	28	27	591	139.0	-132002.0	-1724.0	28008.0
29	17	28	27	592	140.0	-126193.0	-1716.0	27993.0
29	17	28	27	593	141.0	-120586.0	-1714.0	28781.0
29	17	28	27	594	142.0	-115877.0	-1691.0	29019.0
29	17	28	27	594	143.0	-111795.0	-1666.0	29555.0
29	17	28	27	595	144.0	-107807.0	-1659.0	28361.0
29	17	28	27	596	145.0	-104575.0	-1641.0	24414.0
29	17	28	27	596	146.0	-102730.0	-1602.0	22471.0
29	17	28	27	597	147.0	-101559.0	-1565.0	21184.0
29	17	28	27	598	148.0	-101201.0	-1509.0	21498.0
29	17	28	27	599	149.0	-101974.0	-1481.0	22068.0
29	17	28	27	599	150.0	-104155.0	-1427.0	23932.0
29	17	28	27	600	151.0	-108066.0	-1394.0	25516.0
29	17	28	27	601	152.0	-113268.0	-1358.0	26345.0
29	17	28	27	602	153.0	-119566.0	-1304.0	26938.0
29	17	28	27	603	154.0	-126751.0	-1282.0	27334.0
29	17	28	27	604	155.0	-134795.0	-1246.0	27232.0
29	17	28	27	604	156.0	-142697.0	-1212.0	27941.0
29	17	28	27	605	157.0	-149929.0	-1172.0	29397.0
29	17	28	27	606	158.0	-156565.0	-1142.0	29261.0
29	17	28	27	606	159.0	-162108.0	-1094.0	29683.0
29	17	28	27	634	160.0	-168069.0	-1039.0	30618.0
29	17	28	27	635	161.0	-174317.0	-1021.0	29866.0
29	17	28	27	636	162.0	-180982.0	-1015.0	29301.0
29	17	28	27	637	163.0	-187967.0	-998.0	29262.0
29	17	28	27	637	164.0	-194491.0	-984.0	31048.0
29	17	28	27	638	165.0	-200529.0	-936.0	31055.0
29	17	28	27	639	166.0	-206485.0	-908.0	30418.0
29	17	28	27	640	167.0	-211422.0	-901.0	30701.0
29	17	28	27	640	168.0	-214097.0	-876.0	30186.0
29	17	28	27	641	169.0	-213507.0	-839.0	29540.0
29	17	28	27	642	170.0	-208392.0	-812.0	30891.0
29	17	28	27	642	171.0	-195582.0	-754.0	32005.0
29	17	28	27	643	172.0	-177947.0	-731.0	32055.0
29	17	28	27	644	173.0	-158907.0	-717.0	32311.0
29	17	28	27	644	174.0	-165291.0	-682.0	32656.0
29	17	28	27	645	176.0	-218671.0	-630.0	32503.0
29	17	28	27	646	177.0	-235872.0	-597.0	32614.0
29	17	28	27	646	178.0	-245877.0	-551.0	32581.0
29	17	28	27	647	179.0	-245077.0	-521.0	33313.0
29	17	28	27	648	180.0	-233299.0	-477.0	33841.0
29	17	28	27	649	181.0	-216428.0	-451.0	34059.0
29	17	28	27	679	182.0	-195996.0	-414.0	36786.0
29	17	28	27	680	183.0	-172831.0	-379.0	39407.0
29	17	28	27	681	184.0	-149051.0	-354.0	38686.0
29	17	28	27	681	185.0	-127320.0	-330.0	38229.0
29	17	28	27	682	186.0	-109193.0	-313.0	38832.0
29	17	28	27	682	187.0	-96214.0	-282.0	38728.0
29	17	28	27	683	188.0	-88430.0	-249.0	39583.0
29	17	28	27	684	189.0	-85453.0	-239.0	39511.0
29	17	28	27	684	190.0	-85614.0	-236.0	38611.0
29	17	28	27	685	191.0	-85472.0	-226.0	39386.0
29	17	28	27	685	192.0	-85774.0	-201.0	39285.0
29	17	28	27	686	193.0	-87932.0	-169.0	38493.0
29	17	28	27	686	194.0	-90835.0	-129.0	38226.0
29	17	28	27	687	195.0	-95185.0	-109.0	37211.0
29	17	28	27	688	196.0	-101566.0	-110.0	36368.0
29	17	28	27	688	198.0	-117059.0	-121.0	35479.0
29	17	28	27	689	199.0	-125257.0	-148.0	35108.0
29	17	28	27	700	200.0	-132889.0	-149.0	33986.0
29	17	28	27	701	201.0	-140532.0	-127.0	34426.0
29	17	28	27	701	202.0	-147632.0	-139.0	34185.0
29	17	28	27	702	203.0	-154602.0	-163.0	32859.0
29	17	28	27	724	204.0	-161576.0	-173.0	32087.0
29	17	28	27	725	205.0	-168920.0	-179.0	32061.0
29	17	28	27	769	206.0	-176247.0	-199.0	31611.0
29	17	28	27	770	207.0	-182643.0	-211.0	32141.0
29	17	28	27	815	208.0	-188089.0	-238.0	32324.0
29	17	28	27	816	209.0	-192176.0	-247.0	32068.0
29	17	28	27	816	210.0	-193994.0	-271.0	32168.0
29	17	28	27	817	211.0	-194642.0	-296.0	32206.0
29	17	28	27	817	212.0	-194743.0	-344.0	32241.0
29	17	28	27	818	213.0	-193932.0	-345.0	31605.0
29	17	28	27	819	214.0	-192581.0	-349.0	31283.0
29	17	28	27	819	215.0	-190770.0	-356.0	31363.0
29	17	28	27	820	216.0	-188020.0	-347.0	31307.0
29	17	28	27	820	217.0	-184551.0	-337.0	32117.0
29	17	28	27	821	218.0	-180868.0	-326.0	33374.0
29	17	28	27	821	219.0	-176868.0	-337.0	33462.0
29	17	28	27	822	221.0	-167862.0	-332.0	32862.0
29	17	28	27	822	243.0	-190798.0	-294.0	28663.0
29	17	28	27	823	244.0	-193078.0	-312.0	29665.0
29	17	28	27	824	245.0	-195586.0	-298.0	30183.0
29	17	28	27	824	10.0	-212292.0	-512.0	31530.0
29	17	28	27	825	11.0	-209564.0	-521.0	31816.0
29	17	28	27	825	12.0	-206740.0	-511.0	32349.0
29	17	28	27	826	13.0	-203183.0	-517.0	31738.0
29	17	28	27	827	14.0	-199026.0	-508.0	31573.0
29	17	28	27	827	15.0	-193796.0	-529.0	30809.0
29	17	28	27	859	16.0	-187778.0	-529.0	29771.0
29	17	28	27	860	17.0	-181064.0	-537.0	30047.0
29	17	28	27	861	18.0	-173820.0	-529.0	30752.0
29	17	28	27	861	19.0	-166821.0	-519.0	30128.0
29	17	28	27	862	20.0	-160177.0	-526.0	29698.0
29	17	28	27	862	21.0	-153258.0	-544.0	30461.0
29	17	28	27	863	22.0	-146879.0	-530.0	30120.0
29	17	28	27	864	23.0	-141206.0	-536.0	29916.0
29	17	28	27	864	24.0	-136250.0	-535.0	29889.0
29	17	28	27	865	25.0	-132551.0	-532.0	29801.0
29	17	28	27	865	26.0	-130467.0	-531.0	29828.0
29	17	28	27	866	27.0	-129576.0	-546.0	30391.0
29	17	28	27	866	28.0	-129539.0	-547.0	32176.0
29	17	28	27	867	29.0	-130548.0	-555.0	32666.0
29	17	28	27	868	30.0	-132334.0	-567.0	33244.0
29	17	28	27	868	32.0	-138224.0	-564.0	33396.0
29	17	28	27	869	33.0	-142793.0	-578.0	33881.0
29	17	28	27	869	34.0	-148567.0	-589.0	34286.0
29	17	28	27	870	35.0	-155831.0	-596.0	33783.0
29	17	28	27	870	36.0	-163726.0	-587.0	33474.0
29	17	28	27	871	37.0	-171809.0	-603.0	33388.0
29	17	28	27	905	38.0	-180284.0	-601.0	33462.0
29	17	28	27	906	39.0	-188801.0	-592.0	33480.0
29	17	28	27	906	40.0	-197112.0	-581.0	32613.0
29	17	28	27	907	41.0	-204693.0	-590.0	32223.0
29	17	28	27	907	42.0	-211739.0	-582.0	33029.0
29	17	28	27	908	43.0	-218966.0	-591.0	32919.0
29	17	28	27	909	44.0	-225642.0	-602.0	32623.0
29	17	28	27	909	45.0	-232267.0	-602.0	32801.0
29	17	28	27	910	46.0	-239224.0	-619.0	32999.0
29	17	28	27	911	47.0	-245429.0	-626.0	31636.0
29	17	28	27	911	48.0	-250104.0	-605.0	31446.0
29	17	28	27	912	49.0	-252736.0	-614.0	31683.0
29	17	28	27	913	50.0	-253501.0	-632.0	31337.0
29	17	28	27	913	51.0	-252112.0	-628.0	30306.0
29	17	28	27	914	52.0	-248487.0	-629.0	30808.0
29	17	28	27	914	54.0	-238136.0	-663.0	30865.0
29	17	28	27	915	55.0	-233664.0	-672.0	29221.0
29	17	28	27	916	56.0	-228864.0	-665.0	28596.0
29	17	28	27	916	57.0	-224149.0	-642.0	29174.0
29	17	28	27	917	58.0	-219754.0	-651.0	30695.0
29	17	28	27	917	59.0	-215696.0	-661.0	33768.0
29	17	28	27	918	60.0	-211781.0	-636.0	35403.0
29	17	28	27	949	61.0	-207294.0	-642.0	35457.0
29	17	28	27	950	62.0	-202559.0	-672.0	34913.0
29	17	28	27	951	63.0	-197351.0	-685.0	36719.0
29	17	28	27	952	64.0	-192017.0	-716.0	38697.0
29	17	28	27	952	65.0	-187200.0	-750.0	37650.0
29	17	28	27	953	66.0	-182430.0	-753.0	36764.0
29	17	28	27	953	67.0	-177351.0	-755.0	38356.0
29	17	28	27	954	68.0	-172787.0	-791.0	38261.0
29	17	28	27	955	69.0	-169193.0	-816.0	39098.0
29	17	28	27	955	70.0	-165427.0	-846.0	41233.0
29	17	28	27	956	71.0	-163031.0	-856.0	41074.0
29	17	28	27	956	72.0	-162658.0	-866.0	40996.0
29	17	28	27	957	73.0	-163384.0	-896.0	42193.0
29	17	28	27	957	74.0	-163086.0	-920.0	43196.0
29	17	28	27	958	75.0	-160573.0	-916.0	42099.0
29	17	28	27	959	77.0	-149563.0	-942.0	42541.0
29	17	28	27	959	78.0	-144353.0	-957.0	42695.0
29	17	28	27	960	79.0	-142412.0	-935.0	42071.0
29	17	28	27	960	80.0	-143232.0	-933.0	41944.0
29	17	28	27	961	81.0	-145842.0	-929.0	41837.0
29	17	28	27	962	82.0	-149608.0	-923.0	41466.0
29	17	28	27	995	83.0	-152932.0	-956.0	41721.0
29	17	28	28	40	84.0	-155921.0	-953.0	42986.0
29	17	28	28	41	85.0	-159114.0	-947.0	42979.0
29	17	28	28	41	86.0	-161787.0	-970.0	42544.0
29	17	28	28	42	87.0	-163249.0	-1011.0	42528.0
29	17	28	28	42	88.0	-163754.0	-1018.0	42574.0
29	17	28	28	43	89.0	-163288.0	-1022.0	42189.0
29	17	28	28	44	90.0	-162728.0	-1036.0	41919.0
29	17	28	28	44	91.0	-162946.0	-1059.0	42848.0
29	17	28	28	45	92.0	-164326.0	-1076.0	43361.0
29	17	28	28	46	93.0	-167536.0	-1082.0	43875.0
29	17	28	28	46	94.0	-172517.0	-1088.0	44964.0
29	17	28	28	47	95.0	-178853.0	-1099.0	45870.0
29	17	28	28	47	96.0	-186339.0	-1115.0	45324.0
29	17	28	28	48	97.0	-194079.0	-1123.0	44344.0
29	17	28	28	48	99.0	-209106.0	-1138.0	44613.0
29	17	28	28	49	100.0	-216321.0	-1142.0	44620.0
29	17	28	28	50	122.0	-195333.0	-1349.0	44493.0
29	17	28	28	50	123.0	-194725.0	-1351.0	43805.0
29	17	28	28	51	124.0	-194728.0	-1338.0	43239.0
29	17	28	28	51	125.0	-196213.0	-1345.0	42538.0
29	17	28	28	52	126.0	-197929.0	-1364.0	41874.0
29	17	28	28	53	127.0	-194837.0	-1364.0	41753.0
29	17	28	28	53	128.0	-196909.0	-1383.0	41661.0
29	17	28	28	100	129.0	-198466.0	-1403.0	41949.0
29	17	28	28	114	130.0	-201073.0	-1414.0	41901.0
29	17	28	28	115	131.0	-203874.0	-1425.0	43236.0
29	17	28	28	116	132.0	-207491.0	-1451.0	42863.0
29	17	28	28	117	133.0	-211964.0	-1473.0	42088.0
29	17	28	28	117	134.0	-216687.0	-1484.0	42654.0
29	17	28	28	118	135.0	-220964.0	-1510.0	43114.0
29	17	28	28	119	136.0	-224692.0	-1526.0	42088.0
29	17	28	28	119	137.0	-227603.0	-1559.0	42178.0
29	17	28	28	120	138.0	-230699.0	-1587.0	42459.0
29	17	28	28	121	139.0	-233781.0	-1636.0	42598.0
29	17	28	28	121	140.0	-236298.0	-1659.0	41871.0
29	17	28	28	122	141.0	-239002.0	-1697.0	39744.0
29	17	28	28	122	142.0	-242202.0	-1722.0	37619.0
29	17	28	28	123	143.0	-245564.0	-1730.0	38991.0
29	17	28	28	124	152.0	-258007.0	-1972.0	39148.0
29	17	28	28	124	159.0	-243679.0	-2042.0	37185.0
29	17	28	28	125	160.0	-241777.0	-2066.0	37744.0
29	17	28	28	125	161.0	-239724.0	-2067.0	38756.0
29	17	28	28	126	162.0	-237747.0	-2073.0	38693.0
29	17	28	28	138	163.0	-236341.0	-2079.0	38299.0
29	17	28	28	138	164.0	-235742.0	-2094.0	37954.0
29	17	28	28	139	165.0	-235404.0	-2094.0	37448.0
29	17	28	28	140	166.0	-234416.0	-2084.0	38241.0
29	17	28	28	140	167.0	-233232.0	-2104.0	38397.0
29	17	28	28	161	168.0	-232887.0	-2129.0	38615.0
29	17	28	28	162	169.0	-233231.0	-2126.0	38921.0
29	17	28	28	163	170.0	-233950.0	-2136.0	38490.0
29	17	28	28	164	171.0	-235078.0	-2168.0	38119.0
29	17	28	28	164	172.0	-236984.0	-2180.0	38101.0
29	17	28	28	165	173.0	-239169.0	-2199.0	38671.0
29	17	28	28	166	174.0	-240986.0	-2212.0	38439.0
29	17	28	28	166	175.0	-242434.0	-2248.0	38771.0
29	17	28	28	167	176.0	-242864.0	-2251.0	39021.0
29	17	28	28	167	177.0	-242676.0	-2268.0	37870.0
29	17	28	28	168	178.0	-241887.0	-2268.0	37373.0
29	17	28	28	168	179.0	-241202.0	-2272.0	37804.0
29	17	28	28	169	180.0	-241551.0	-2297.0	38670.0
29	17	28	28	169	181.0	-242523.0	-2318.0	38231.0
29	17	28	28	170	182.0	-243513.0	-2319.0	38274.0
29	17	28	28	171	183.0	-244321.0	-2344.0	38006.0
29	17	28	28	184	184.0	-244694.0	-2352.0	37523.0
29	17	28	28	185	185.0	-243909.0	-2364.0	36401.0
29	17	28	28	186	186.0	-242817.0	-2405.0	35974.0
29	17	28	28	186	187.0	-241266.0	-2422.0	35158.0
29	17	28	28	187	188.0	-239274.0	-2419.0	35326.0
29	17	28	28	187	189.0	-236617.0	-2425.0	35656.0
29	17	28	28	188	190.0	-232982.0	-2446.0	36974.0
29	17	28	28	189	191.0	-228994.0	-2470.0	37866.0
29	17	28	28	189	192.0	-224751.0	-2470.0	38038.0
29	17	28	28	209	193.0	-220134.0	-2501.0	37001.0
29	17	28	28	209	194.0	-216366.0	-2501.0	36331.0
29	17	28	28	210	195.0	-213544.0	-2507.0	36623.0
29	17	28	28	210	196.0	-210824.0	-2534.0	36934.0
29	17	28	28	211	197.0	-208344.0	-2554.0	36849.0
29	17	28	28	212	198.0	-205818.0	-2567.0	36097.0
29	17	28	28	213	199.0	-203337.0	-2567.0	35359.0
29	17	28	28	213	200.0	-201206.0	-2587.0	35989.0
29	17	28	28	214	201.0	-199294.0	-2601.0	36014.0
29	17	28	28	214	202.0	-197635.0	-2602.0	36014.0
29	17	28	28	215	203.0	-196710.0	-2601.0	36427.0
29	17	28	28	215	204.0	-196562.0	-2598.0	37531.0
29	17	28	28	216	205.0	-196150.0	-2603.0	37076.0
29	17	28	28	232	206.0	-195766.0	-2600.0	37376.0
29	17	28	28	232	207.0	-195425.0	-2606.0	37878.0
29	17	28	28	233	208.0	-194866.0	-2604.0	38309.0
29	17	28	28	233	209.0	-194484.0	-2624.0	37753.0
29	17	28	28	234	210.0	-194122.0	-2653.0	38538.0
29	17	28	28	234	211.0	-194309.0	-2645.0	37874.0
29	17	28	28	235	212.0	-194987.0	-2671.0	37998.0
29	17	28	28	236	213.0	-196904.0	-2701.0	38283.0
29	17	28	28	254	214.0	-199088.0	-2716.0	37496.0
29	17	28	28	254	215.0	-201502.0	-2725.0	36412.0
29	17	28	28	255	216.0	-205398.0	-2748.0	35256.0
29	17	28	28	256	217.0	-209818.0	-2772.0	33489.0
29	17	28	28	256	218.0	-213547.0	-2797.0	29813.0
29	17	28	28	257	219.0	-216594.0	-2817.0	26282.0
29	17	28	28	257	220.0	-219223.0	-2832.0	22929.0
29	17	28	28	258	221.0	-220497.0	-2817.0	19733.0
29	17	28	28	258	222.0	-220370.0	-2842.0	17582.0
29	17	28	28	259	223.0	-219324.0	-2857.0	17716.0
29	17	28	28	260	224.0	-218005.0	-2881.0	17711.0
29	17	28	28	260	225.0	-216537.0	-2884.0	16438.0
29	17	28	28	261	226.0	-215360.0	-2882.0	14555.0
29	17	28	28	261	227.0	-213909.0	-2891.0	11693.0
29	17	28	28	262	228.0	-212013.0	-2899.0	7769.0
29	17	28	28	263	229.0	-209999.0	-2899.0	5261.0
29	17	28	28	263	230.0	-207169.0	-2881.0	5084.0
29	17	28	28	264	231.0	-203921.0	-2880.0	6618.0
29	17	28	28	264	232.0	-200834.0	-2880.0	11042.0
29	17	28	28	265	233.0	-197182.0	-2884.0	16721.0
29	17	28	28	279	234.0	-192586.0	-2899.0	24578.0
29	17	28	28	280	235.0	-187694.0	-2882.0	33299.0
29	17	28	28	281	236.0	-182556.0	-2867.0	41649.0
29	17	28	28	282	237.0	-178038.0	-2884.0	48898.0
29	17	28	28	282	238.0	-175407.0	-2895.0	53461.0
29	17	28	28	283	239.0	-173679.0	-2894.0	53699.0
29	17	28	28	283	240.0	-172755.0	-2881.0	52387.0
29	17	28	28	284	241.0	-173341.0	-2896.0	48325.0
29	17	28	28	284	242.0	-175581.0	-2904.0	46967.0
29	17	28	28	285	243.0	-179181.0	-2909.0	48136.0
29	17	28	28	299	244.0	-180791.0	-2920.0	48366.0
29	17	28	28	299	245.0	-177316.0	-2912.0	47904.0
29	17	28	28	300	246.0	-172003.0	-2912.0	46843.0
29	17	28	28	300	247.0	-169359.0	-2912.0	43869.0
29	17	28	28	301	248.0	-168014.0	-2923.0	41559.0
29	17	28	28	302	249.0	-167659.0	-2914.0	40854.0
29	17	28	28	302	250.0	-169128.0	-2907.0	39971.0
29	17	28	28	322	251.0	-173526.0	-2917.0	39163.0
29	17	28	28	322	252.0	-182251.0	-2930.0	38042.0
29	17	28	28	323	253.0	-197480.0	-2942.0	36838.0
29	17	28	28	324	254.0	-221922.0	-2943.0	36683.0
29	17	28	28	324	255.0	-255026.0	-2942.0	36742.0
29	17	28	28	325	0.0	-289791.0	-2934.0	36314.0
29	17	28	28	326	1.0	-318006.0	-2954.0	35069.0
29	17	28	28	326	2.0	-336448.0	-2962.0	34503.0
29	17	28	28	327	3.0	-348984.0	-2953.0	34713.0
29	17	28	28	327	4.0	-357382.0	-2952.0	34332.0
29	17	28	28	328	5.0	-358913.0	-2984.0	34229.0
29	17	28	28	328	6.0	-349297.0	-3004.0	33697.0
29	17	28	28	329	7.0	-324191.0	-3011.0	33135.0
29	17	28	28	330	8.0	-288889.0	-3005.0	32934.0
29	17	28	28	330	9.0	-248213.0	-3019.0	32424.0
29	17	28	28	345	10.0	-207631.0	-3052.0	30939.0
29	17	28	28	346	11.0	-174456.0	-3083.0	30703.0
29	17	28	28	346	12.0	-155734.0	-3104.0	30008.0
29	17	28	28	347	13.0	-153732.0	-3133.0	29688.0
29	17	28	28	348	14.0	-166782.0	-3148.0	30624.0
29	17	28	28	348	15.0	-190127.0	-3176.0	32258.0
29	17	28	28	349	16.0	-218596.0	-3202.0	31938.0
29	17	28	28	369	17.0	-245281.0	-3208.0	30858.0
29	17	28	28	370	18.0	-265307.0	-3225.0	29786.0
29	17	28	28	370	19.0	-275758.0	-3256.0	28559.0
29	17	28	28	371	20.0	-274902.0	-3254.0	28493.0
29	17	28	28	372	21.0	-262646.0	-3267.0	29050.0
29	17	28	28	372	22.0	-241602.0	-3271.0	29128.0
29	17	28	28	373	23.0	-215199.0	-3278.0	29447.0
29	17	28	28	373	24.0	-186574.0	-3287.0	29399.0
29	17	28	28	374	25.0	-158380.0	-3289.0	30115.0
29	17	28	28	374	26.0	-133037.0	-3290.0	29463.0
29	17	28	28	375	27.0	-111127.0	-3296.0	29885.0
29	17	28	28	376	28.0	-93147.0	-3294.0	28785.0
29	17	28	28	376	29.0	-79316.0	-3277.0	28848.0
29	17	28	28	377	30.0	-69269.0	-3280.0	28928.0
29	17	28	28	377	31.0	-62962.0	-3256.0	28698.0
29	17	28	28	400	32.0	-61145.0	-3234.0	28900.0
29	17	28	28	401	33.0	-64070.0	-3207.0	29211.0
29	17	28	28	401	34.0	-72002.0	-3199.0	29749.0
29	17	28	28	402	35.0	-84162.0	-3191.0	29260.0
29	17	28	28	403	36.0	-99741.0	-3165.0	29356.0
29	17	28	28	403	37.0	-117984.0	-3132.0	28581.0
29	17	28	28	404	38.0	-137422.0	-3147.0	26820.0
29	17	28	28	405	39.0	-156056.0	-3127.0	26034.0
29	17	28	28	405	40.0	-172506.0	-3124.0	25699.0
29	17	28	28	406	41.0	-186502.0	-3121.0	25899.0
29	17	28	28	407	42.0	-197845.0	-3100.0	26377.0
29	17	28	28	407	43.0	-207052.0	-3095.0	26828.0
29	17	28	28	408	44.0	-214791.0	-3068.0	25914.0
29	17	28	28	409	45.0	-221113.0	-3059.0	25553.0
29	17	28	28	409	46.0	-226277.0	-3067.0	25899.0
29	17	28	28	410	47.0	-230562.0	-3059.0	25544.0
29	17	28	28	411	48.0	-234334.0	-3041.0	25088.0
29	17	28	28	411	49.0	-237245.0	-3042.0	24858.0
29	17	28	28	412	50.0	-239136.0	-3048.0	24611.0
29	17	28	28	413	51.0	-240792.0	-3052.0	24538.0
29	17	28	28	413	52.0	-241530.0	-3026.0	24439.0
29	17	28	28	430	53.0	-241378.0	-3025.0	24064.0
29	17	28	28	430	54.0	-241084.0	-3039.0	23917.0
29	17	28	28	431	55.0	-240147.0	-3020.0	23333.0
29	17	28	28	432	56.0	-239033.0	-3039.0	23196.0
29	17	28	28	433	57.0	-237924.0	-3041.0	22954.0
29	17	28	28	433	58.0	-235860.0	-3066.0	23398.0
29	17	28	28	434	59.0	-232611.0	-3060.0	22499.0
29	17	28	28	434	60.0	-228741.0	-3057.0	21713.0
29	17	28	28	435	61.0	-223629.0	-3079.0	21661.0
29	17	28	28	436	62.0	-217583.0	-3059.0	21234.0
29	17	28	28	444	63.0	-211709.0	-3059.0	21213.0
29	17	28	28	445	64.0	-206058.0	-3075.0	21356.0
29	17	28	28	445	65.0	-200331.0	-3094.0	20897.0
29	17	28	28	446	66.0	-195638.0	-3093.0	20748.0
29	17	28	28	446	67.0	-191933.0	-3119.0	20231.0
29	17	28	28	447	68.0	-188431.0	-3131.0	19382.0
29	17	28	28	467	69.0	-184839.0	-3128.0	18357.0
29	17	28	28	468	70.0	-180157.0	-3112.0	18528.0
29	17	28	28	468	71.0	-173756.0	-3122.0	19428.0
29	17	28	28	469	72.0	-166345.0	-3127.0	19091.0
29	17	28	28	469	73.0	-158683.0	-3109.0	18861.0
29	17	28	28	470	74.0	-150999.0	-3101.0	18903.0
29	17	28	28	490	75.0	-143577.0	-3081.0	17376.0
29	17	28	28	491	76.0	-136095.0	-3088.0	15489.0
29	17	28	28	492	77.0	-129176.0	-3066.0	15898.0
29	17	28	28	492	78.0	-123940.0	-3038.0	16578.0
29	17	28	28	493	79.0	-121137.0	-3018.0	15820.0
29	17	28	28	493	80.0	-120638.0	-3004.0	14378.0
29	17	28	28	494	81.0	-122241.0	-2994.0	14304.0
29	17	28	28	494	82.0	-125867.0	-2996.0	15372.0
29	17	28	28	495	83.0	-130438.0	-2997.0	16574.0
29	17	28	28	496	84.0	-135155.0	-2990.0	16208.0
29	17	28	28	496	85.0	-140431.0	-2995.0	15345.0
29	17	28	28	497	86.0	-147009.0	-2979.0	14448.0
29	17	28	28	497	87.0	-153786.0	-2951.0	14461.0
29	17	28	28	498	88.0	-160295.0	-2972.0	15651.0
29	17	28	28	498	89.0	-166786.0	-2960.0	16856.0
29	17	28	28	499	90.0	-173283.0	-2945.0	18476.0
29	17	28	28	513	91.0	-179897.0	-2954.0	19860.0
29	17	28	28	514	92.0	-186789.0	-2929.0	19399.0
29	17	28	28	514	93.0	-193564.0	-2911.0	20016.0
29	17	28	28	515	94.0	-199496.0	-2888.0	20854.0
29	17	28	28	515	95.0	-204302.0	-2874.0	21024.0
29	17	28	28	516	96.0	-207974.0	-2861.0	21544.0
29	17	28	28	516	97.0	-210951.0	-2852.0	21801.0
29	17	28	28	517	98.0	-213044.0	-2817.0	21107.0
29	17	28	28	518	99.0	-214364.0	-2819.0	20854.0
29	17	28	28	518	100.0	-214543.0	-2814.0	21131.0
29	17	28	28	519	101.0	-213132.0	-2786.0	21562.0
29	17	28	28	520	102.0	-210429.0	-2772.0	20945.0
29	17	28	28	535	103.0	-206834.0	-2761.0	20546.0
29	17	28	28	536	104.0	-202755.0	-2736.0	20674.0
29	17	28	28	536	105.0	-198147.0	-2697.0	21736.0
29	17	28	28	537	106.0	-191981.0	-2694.0	20489.0
29	17	28	28	538	107.0	-186016.0	-2676.0	19639.0
29	17	28	28	538	108.0	-182062.0	-2657.0	20754.0
29	17	28	28	539	109.0	-179261.0	-2641.0	23031.0
29	17	28	28	539	110.0	-178977.0	-2634.0	24743.0
29	17	28	28	540	111.0	-178004.0	-2601.0	24384.0
29	17	28	28	541	112.0	-174938.0	-2595.0	24899.0
29	17	28	28	541	113.0	-169777.0	-2576.0	26018.0
29	17	28	28	542	114.0	-165717.0	-2557.0	27137.0
29	17	28	28	560	115.0	-163648.0	-2539.0	27939.0
29	17	28	28	560	116.0	-162159.0	-2521.0	28672.0
29	17	28	28	561	117.0	-160495.0	-2493.0	30752.0
29	17	28	28	562	118.0	-158407.0	-2484.0	31106.0
29	17	28	28	562	119.0	-156297.0	-2467.0	29984.0
29	17	28	28	563	120.0	-153602.0	-2449.0	30025.0
29	17	28	28	563	121.0	-150512.0	-2422.0	28910.0
29	17	28	28	564	122.0	-147996.0	-2398.0	28282.0
29	17	28	28	565	123.0	-147071.0	-2361.0	29683.0
29	17	28	28	565	124.0	-147178.0	-2342.0	31119.0
29	17	28	28	566	125.0	-148647.0	-2299.0	32046.0
29	17	28	28	567	126.0	-151244.0	-2278.0	32304.0
29	17	28	28	567	127.0	-154544.0	-2264.0	33510.0
29	17	28	28	568	128.0	-158329.0	-2211.0	34463.0
29	17	28	28	568	129.0	-161316.0	-2201.0	34954.0
29	17	28	28	582	130.0	-160370.0	-2172.0	34974.0
29	17	28	28	583	131.0	-154911.0	-2141.0	35374.0
29	17	28	28	583	132.0	-147342.0	-2105.0	35332.0
29	17	28	28	584	133.0	-156082.0	-2071.0	35913.0
29	17	28	28	585	134.0	-191809.0	-2047.0	36611.0
29	17	28	28	585	135.0	-234721.0	-2024.0	35889.0
29	17	28	28	586	136.0	-269592.0	-2007.0	35598.0
29	17	28	28	607	137.0	-295666.0	-1991.0	36011.0
29	17	28	28	608	138.0	-310018.0	-1974.0	37168.0
29	17	28	28	608	139.0	-309445.0	-1940.0	37249.0
29	17	28	28	609	140.0	-299019.0	-1935.0	36711.0
29	17	28	28	609	141.0	-282615.0	-1922.0	37534.0
29	17	28	28	610	142.0	-260529.0	-1879.0	37277.0
29	17	28	28	610	143.0	-236362.0	-1833.0	37562.0
29	17	28	28	611	144.0	-214045.0	-1805.0	37981.0
29	17	28	28	612	145.0	-194164.0	-1784.0	37756.0
29	17	28	28	612	146.0	-178234.0	-1745.0	37770.0
29	17	28	28	613	147.0	-165591.0	-1732.0	37974.0
29	17	28	28	613	148.0	-157806.0	-1685.0	36984.0
29	17	28	28	614	149.0	-154882.0	-1652.0	36803.0
29	17	28	28	614	150.0	-155279.0	-1621.0	37771.0
29	17	28	28	615	151.0	-156756.0	-1581.0	37741.0
29	17	28	28	640	152.0	-158193.0	-1535.0	37589.0
29	17	28	28	641	153.0	-158660.0	-1461.0	38765.0
29	17	28	28	641	154.0	-156969.0	-1413.0	38514.0
29	17	28	28	642	155.0	-151852.0	-1371.0	38636.0
29	17	28	28	643	156.0	-142896.0	-1358.0	38102.0
29	17	28	28	643	157.0	-129980.0	-1329.0	38103.0
29	17	28	28	644	158.0	-116430.0	-1287.0	37800.0
29	17	28	28	644	159.0	-105684.0	-1276.0	35973.0
29	17	28	28	645	160.0	-99249.0	-1262.0	36102.0
29	17	28	28	646	161.0	-98471.0	-1244.0	36369.0
29	17	28	28	646	162.0	-102354.0	-1222.0	36023.0
29	17	28	28	647	163.0	-108287.0	-1190.0	36286.0
29	17	28	28	647	164.0	-114854.0	-1162.0	36636.0
29	17	28	28	648	165.0	-121199.0	-1161.0	36286.0
29	17	28	28	649	166.0	-126762.0	-1167.0	35775.0
29	17	28	28	649	167.0	-130483.0	-1142.0	35892.0
29	17	28	28	650	168.0	-133597.0	-1121.0	36396.0
29	17	28	28	650	169.0	-137411.0	-1116.0	35732.0
29	17	28	28	659	170.0	-141771.0	-1094.0	34662.0
29	17	28	28	659	171.0	-146530.0	-1076.0	34844.0
29	17	28	28	660	172.0	-151960.0	-1052.0	35361.0
29	17	28	28	683	173.0	-157897.0	-1072.0	35323.0
29	17	28	28	684	174.0	-163851.0	-1088.0	34843.0
29	17	28	28	685	175.0	-169909.0	-1082.0	34478.0
29	17	28	28	685	176.0	-176303.0	-1097.0	35153.0
29	17	28	28	686	177.0	-182899.0	-1111.0	35199.0
29	17	28	28	686	178.0	-189379.0	-1115.0	35295.0
29	17	28	28	687	179.0	-195894.0	-1108.0	36119.0
29	17	28	28	688	180.0	-202415.0	-1125.0	35543.0
29	17	28	28	688	181.0	-208222.0	-1133.0	35787.0
29	17	28	28	689	182.0	-212922.0	-1134.0	36758.0
29	17	28	28	689	183.0	-216574.0	-1124.0	36470.0
29	17	28	28	690	184.0	-218929.0	-1117.0	35709.0
29	17	28	28	690	185.0	-219865.0	-1121.0	36471.0
29	17	28	28	691	186.0	-220061.0	-1122.0	37471.0
29	17	28	28	691	187.0	-219853.0	-1114.0	37517.0
29	17	28	28	692	188.0	-219404.0	-1130.0	37610.0
29	17	28	28	706	189.0	-218035.0	-1127.0	37013.0
29	17	28	28	706	190.0	-215931.0	-1123.0	37288.0
29	17	28	28	707	191.0	-213352.0	-1121.0	37676.0
29	17	28	28	707	192.0	-210674.0	-1115.0	38102.0
29	17	28	28	708	193.0	-207767.0	-1096.0	39018.0
29	17	28	28	709	194.0	-205384.0	-1087.0	39549.0
29	17	28	28	729	195.0	-202798.0	-1113.0	39674.0
29	17	28	28	729	196.0	-199121.0	-1153.0	40441.0
29	17	28	28	730	197.0	-195454.0	-1162.0	40768.0
29	17	28	28	731	198.0	-192119.0	-1165.0	40345.0
29	17	28	28	731	199.0	-189139.0	-1179.0	40173.0
29	17	28	28	732	200.0	-187001.0	-1181.0	39794.0
29	17	28	28	732	201.0	-185388.0	-1184.0	40552.0
29	17	28	28	733	202.0	-184849.0	-1203.0	39993.0
29	17	28	28	734	203.0	-184991.0	-1222.0	40494.0
29	17	28	28	734	204.0	-185842.0	-1216.0	40659.0
29	17	28	28	735	205.0	-187089.0	-1217.0	41316.0
29	17	28	28	735	206.0	-189401.0	-1217.0	42450.0
29	17	28	28	736	207.0	-192184.0	-1209.0	43496.0
29	17	28	28	736	208.0	-194068.0	-1221.0	42134.0
29	17	28	28	737	209.0	-195893.0	-1237.0	41129.0
29	17	28	28	737	210.0	-197881.0	-1248.0	41942.0
29	17	28	28	738	211.0	-199428.0	-1256.0	42584.0
29	17	28	28	752	212.0	-199694.0	-1244.0	42928.0
29	17	28	28	752	213.0	-199442.0	-1252.0	44339.0
29	17	28	28	753	214.0	-199350.0	-1254.0	45761.0
29	17	28	28	754	215.0	-198967.0	-1271.0	45567.0
29	17	28	28	754	216.0	-199161.0	-1291.0	44995.0
29	17	28	28	755	217.0	-200401.0	-1310.0	45002.0
29	17	28	28	755	218.0	-201714.0	-1332.0	45569.0
29	17	28	28	775	219.0	-202458.0	-1356.0	46436.0
29	17	28	28	775	220.0	-202912.0	-1371.0	46690.0
29	17	28	28	776	221.0	-203207.0	-1382.0	45915.0
29	17	28	28	777	222.0	-202572.0	-1395.0	46500.0
29	17	28	28	777	223.0	-200734.0	-1419.0	47422.0
29	17	28	28	778	224.0	-198924.0	-1449.0	48084.0
29	17	28	28	778	225.0	-197619.0	-1437.0	48375.0
29	17	28	28	779	226.0	-195856.0	-1459.0	48562.0
29	17	28	28	779	227.0	-194021.0	-1449.0	48736.0
29	17	28	28	780	228.0	-192057.0	-1458.0	48867.0
29	17	28	28	780	229.0	-190295.0	-1484.0	49648.0
29	17	28	28	781	230.0	-188791.0	-1510.0	50341.0
29	17	28	28	782	231.0	-187221.0	-1536.0	50763.0
29	17	28	28	782	232.0	-186309.0	-1552.0	51193.0
29	17	28	28	783	233.0	-185673.0	-1574.0	51480.0
29	17	28	28	797	234.0	-184633.0	-1595.0	51476.0
29	17	28	28	798	235.0	-183593.0	-1604.0	50584.0
29	17	28	28	799	236.0	-182235.0	-1634.0	47540.0
29	17	28	28	799	237.0	-181497.0	-1649.0	47302.0
29	17	28	28	800	238.0	-181476.0	-1634.0	50297.0
29	17	28	28	801	239.0	-182211.0	-1642.0	51834.0
29	17	28	28	801	240.0	-184409.0	-1653.0	51699.0
29	17	28	28	802	241.0	-187577.0	-1672.0	52526.0
29	17	28	28	820	242.0	-191471.0	-1686.0	52680.0
29	17	28	28	821	243.0	-195679.0	-1695.0	52847.0
29	17	28	28	821	244.0	-200104.0	-1707.0	53738.0
29	17	28	28	822	245.0	-204730.0	-1722.0	53923.0
29	17	28	28	823	246.0	-209057.0	-1719.0	53658.0
29	17	28	28	823	247.0	-213023.0	-1732.0	54141.0
29	17	28	28	824	248.0	-217534.0	-1750.0	55102.0
29	17	28	28	824	249.0	-221956.0	-1754.0	55896.0
29	17	28	28	825	250.0	-225519.0	-1765.0	56185.0
29	17	28	28	825	251.0	-226624.0	-1787.0	56275.0
29	17	28	28	826	252.0	-226620.0	-1813.0	56831.0
29	17	28	28	827	253.0	-227204.0	-1837.0	56530.0
29	17	28	28	827	254.0	-227994.0	-1857.0	57149.0
29	17	28	28	828	255.0	-228947.0	-1884.0	56925.0
29	17	28	28	828	0.0	-229601.0	-1898.0	57096.0
29	17	28	28	842	1.0	-229297.0	-1887.0	57456.0
29	17	28	28	843	2.0	-227957.0	-1909.0	58423.0
29	17	28	28	844	3.0	-226321.0	-1931.0	58267.0
29	17	28	28	844	4.0	-223673.0	-1947.0	57566.0
29	17	28	28	845	5.0	-219916.0	-1980.0	57986.0
29	17	28	28	845	6.0	-216779.0	-1997.0	59066.0
29	17	28	28	846	7.0	-214542.0	-1997.0	59196.0
29	17	28	28	865	8.0	-212348.0	-2005.0	58646.0
29	17	28	28	866	9.0	-210417.0	-2006.0	57829.0
29	17	28	28	866	10.0	-208279.0	-2025.0	57268.0
29	17	28	28	867	11.0	-206465.0	-2062.0	56867.0
29	17	28	28	868	12.0	-204795.0	-2094.0	56339.0
29	17	28	28	868	13.0	-203308.0	-2121.0	56191.0
29	17	28	28	869	14.0	-202876.0	-2127.0	56276.0
29	17	28	28	869	15.0	-202425.0	-2149.0	56170.0
29	17	28	28	870	16.0	-201474.0	-2146.0	56371.0
29	17	28	28	871	17.0	-200189.0	-2148.0	56801.0
29	17	28	28	871	18.0	-199232.0	-2143.0	56977.0
29	17	28	28	872	19.0	-198339.0	-2151.0	56905.0
29	17	28	28	872	20.0	-196853.0	-2166.0	56909.0
29	17	28	28	873	21.0	-195267.0	-2184.0	56003.0
29	17	28	28	873	22.0	-193113.0	-2194.0	55198.0
29	17	28	28	894	23.0	-189877.0	-2216.0	55224.0
29	17	28	28	895	24.0	-187133.0	-2226.0	55643.0
29	17	28	28	896	25.0	-185088.0	-2217.0	55569.0
29	17	28	28	896	26.0	-184062.0	-2215.0	55146.0
29	17	28	28	897	27.0	-183187.0	-2230.0	56155.0
29	17	28	28	897	28.0	-183227.0	-2247.0	55514.0
29	17	28	28	898	29.0	-184384.0	-2259.0	54517.0
29	17	28	28	899	30.0	-186279.0	-2267.0	54528.0
29	17	28	28	900	31.0	-188651.0	-2286.0	54893.0
29	17	28	28	900	32.0	-191911.0	-2295.0	54643.0
29	17	28	28	901	33.0	-196269.0	-2316.0	54958.0
29	17	28	28	902	34.0	-201071.0	-2326.0	55079.0
29	17	28	28	902	35.0	-205934.0	-2366.0	54758.0
29	17	28	28	903	36.0	-210750.0	-2383.0	54616.0
29	17	28	28	904	37.0	-215151.0	-2388.0	54593.0
29	17	28	28	904	38.0	-218990.0	-2403.0	54044.0
29	17	28	28	905	39.0	-222769.0	-2396.0	54568.0
29	17	28	28	906	40.0	-225826.0	-2379.0	54682.0
29	17	28	28	906	41.0	-228651.0	-2386.0	54829.0
29	17	28	28	914	42.0	-230793.0	-2377.0	54777.0
29	17	28	28	915	43.0	-232086.0	-2363.0	54973.0
29	17	28	28	938	44.0	-233701.0	-2371.0	55946.0
29	17	28	28	938	45.0	-234708.0	-2379.0	55924.0
29	17	28	28	939	46.0	-235177.0	-2369.0	55632.0
29	17	28	28	940	47.0	-235166.0	-2376.0	55669.0
29	17	28	28	940	48.0	-233974.0	-2368.0	55873.0
29	17	28	28	941	49.0	-232030.0	-2382.0	56274.0
29	17	28	28	942	50.0	-229229.0	-2359.0	55898.0
29	17	28	28	942	51.0	-226060.0	-2363.0	54996.0
29	17	28	28	943	52.0	-223522.0	-2381.0	55125.0
29	17	28	28	944	53.0	-221085.0	-2371.0	55335.0
29	17	28	28	944	54.0	-219266.0	-2351.0	55563.0
29	17	28	28	945	55.0	-217622.0	-2326.0	55060.0
29	17	28	28	945	56.0	-216326.0	-2335.0	55070.0
29	17	28	28	946	57.0	-216054.0	-2347.0	56473.0
29	17	28	28	947	58.0	-216280.0	-2376.0	57194.0
29	17	28	28	947	59.0	-217050.0	-2391.0	56843.0
29	17	28	28	948	60.0	-218173.0	-2386.0	56773.0
29	17	28	28	960	61.0	-219045.0	-2362.0	56998.0
29	17	28	28	961	62.0	-220920.0	-2382.0	55707.0
29	17	28	28	961	63.0	-222057.0	-2386.0	55274.0
29	17	28	28	962	64.0	-222903.0	-2376.0	54918.0
29	17	28	28	963	65.0	-224510.0	-2364.0	55531.0
29	17	28	28	963	66.0	-226331.0	-2380.0	56211.0
29	17	28	28	964	67.0	-228823.0	-2404.0	56783.0
29	17	28	28	983	68.0	-229961.0	-2406.0	57463.0
29	17	28	28	984	69.0	-230618.0	-2416.0	57803.0
29	17	28	28	985	70.0	-232062.0	-2419.0	56968.0
29	17	28	28	985	71.0	-232277.0	-2457.0	56528.0
29	17	28	28	986	72.0	-232127.0	-2471.0	56209.0
29	17	28	28	987	73.0	-230717.0	-2481.0	55756.0
29	17	28	28	987	74.0	-228513.0	-2481.0	55666.0
29	17	28	28	988	75.0	-226254.0	-2466.0	54212.0
29	17	28	28	988	76.0	-222737.0	-2442.0	53888.0
29	17	28	28	989	77.0	-219661.0	-2454.0	54525.0
29	17	28	28	990	78.0	-216485.0	-2462.0	55396.0
29	17	28	28	990	79.0	-212787.0	-2464.0	55378.0
29	17	28	28	991	80.0	-209387.0	-2459.0	55319.0
29	17	28	28	991	81.0	-206147.0	-2475.0	54757.0
29	17	28	28	992	82.0	-203784.0	-2508.0	54649.0
29	17	28	29	6	83.0	-201277.0	-2511.0	54784.0
29	17	28	29	7	84.0	-199204.0	-2524.0	54919.0
29	17	28	29	8	85.0	-198154.0	-2536.0	55042.0
29	17	28	29	8	86.0	-197460.0	-2546.0	54793.0
29	17	28	29	9	87.0	-198176.0	-2567.0	55037.0
29	17	28	29	9	88.0	-199618.0	-2594.0	55144.0
29	17	28	29	10	89.0	-202342.0	-2625.0	55237.0
29	17	28	29	29	90.0	-205748.0	-2625.0	55784.0
29	17	28	29	30	91.0	-208315.0	-2626.0	55836.0
29	17	28	29	30	92.0	-210624.0	-2631.0	55738.0
29	17	28	29	31	93.0	-212622.0	-2644.0	56478.0
29	17	28	29	32	94.0	-214748.0	-2669.0	56514.0
29	17	28	29	32	95.0	-217197.0	-2668.0	55966.0
29	17	28	29	33	96.0	-219835.0	-2679.0	56546.0
29	17	28	29	34	97.0	-223242.0	-2712.0	57236.0
29	17	28	29	34	98.0	-226514.0	-2734.0	57415.0
29	17	28	29	35	99.0	-229361.0	-2734.0	57872.0
29	17	28	29	35	100.0	-232329.0	-2741.0	58701.0
29	17	28	29	36	101.0	-234500.0	-2771.0	59676.0
29	17	28	29	36	102.0	-236149.0	-2791.0	60832.0
29	17	28	29	37	103.0	-237127.0	-2814.0	60376.0
29	17	28	29	38	104.0	-236498.0	-2831.0	58796.0
29	17	28	29	52	105.0	-235024.0	-2854.0	58018.0
29	17	28	29	52	106.0	-233255.0	-2872.0	59268.0
29	17	28	29	53	107.0	-230719.0	-2862.0	59489.0
29	17	28	29	54	108.0	-227932.0	-2876.0	59391.0
29	17	28	29	54	109.0	-225021.0	-2904.0	60104.0
29	17	28	29	55	110.0	-222791.0	-2914.0	60271.0
29	17	28	29	56	111.0	-221499.0	-2937.0	59020.0
29	17	28	29	56	112.0	-220222.0	-2975.0	54973.0
29	17	28	29	74	113.0	-219184.0	-2975.0	53764.0
29	17	28	29	74	114.0	-217441.0	-2976.0	53202.0
29	17	28	29	75	115.0	-215333.0	-2981.0	52318.0
29	17	28	29	76	116.0	-213131.0	-3011.0	50998.0
29	17	28	29	76	117.0	-209523.0	-3059.0	49758.0
29	17	28	29	77	118.0	-205797.0	-3095.0	51330.0
29	17	28	29	78	119.0	-201782.0	-3124.0	53688.0
29	17	28	29	78	120.0	-198336.0	-3146.0	60517.0
29	17	28	29	79	121.0	-195606.0	-3149.0	69558.0
29	17	28	29	79	122.0	-192441.0	-3174.0	69168.0
29	17	28	29	80	123.0	-189872.0	-3207.0	68275.0
29	17	28	29	81	124.0	-187857.0	-3222.0	68343.0
29	17	28	29	81	125.0	-186107.0	-3254.0	67211.0
29	17	28	29	82	126.0	-184468.0	-3269.0	66798.0
29	17	28	29	82	127.0	-181531.0	-3303.0	65768.0
29	17	28	29	96	128.0	-178162.0	-3286.0	65142.0
29	17	28	29	97	129.0	-176059.0	-3287.0	64532.0
29	17	28	29	97	130.0	-174977.0	-3296.0	64241.0
29	17	28	29	98	131.0	-174791.0	-3297.0	64316.0
29	17	28	29	99	132.0	-175441.0	-3327.0	63521.0
29	17	28	29	99	133.0	-177146.0	-3339.0	62766.0
29	17	28	29	100	134.0	-180129.0	-3368.0	63606.0
29	17	28	29	119	135.0	-183749.0	-3380.0	63438.0
29	17	28	29	120	136.0	-188239.0	-3371.0	63335.0
29	17	28	29	120	137.0	-193036.0	-3379.0	63431.0
29	17	28	29	121	138.0	-198562.0	-3391.0	64056.0
29	17	28	29	122	139.0	-204441.0	-3401.0	63595.0
29	17	28	29	122	140.0	-210064.0	-3418.0	60712.0
29	17	28	29	123	141.0	-214655.0	-3444.0	58579.0
29	17	28	29	124	142.0	-218166.0	-3458.0	57499.0
29	17	28	29	124	143.0	-223848.0	-3464.0	55958.0
29	17	28	29	125	144.0	-229776.0	-3467.0	54869.0
29	17	28	29	126	145.0	-235314.0	-3492.0	56986.0
29	17	28	29	126	146.0	-242356.0	-3514.0	61639.0
29	17	28	29	127	147.0	-249532.0	-3535.0	62989.0
29	17	28	29	127	148.0	-256676.0	-3546.0	61575.0
29	17	28	29	128	149.0	-263454.0	-3557.0	60303.0
29	17	28	29	129	150.0	-269300.0	-3592.0	58403.0
29	17	28	29	129	151.0	-274782.0	-3611.0	55276.0
29	17	28	29	130	152.0	-278691.0	-3614.0	51301.0
29	17	28	29	143	153.0	-281942.0	-3609.0	46876.0
29	17	28	29	144	154.0	-284802.0	-3633.0	44201.0
29	17	28	29	145	155.0	-286306.0	-3651.0	43740.0
29	17	28	29	145	156.0	-288524.0	-3657.0	45466.0
29	17	28	29	166	157.0	-291042.0	-3696.0	46341.0
29	17	28	29	166	158.0	-292454.0	-3716.0	44608.0
29	17	28	29	167	159.0	-292739.0	-3730.0	41043.0
29	17	28	29	168	160.0	-290681.0	-3741.0	38718.0
29	17	28	29	168	161.0	-287680.0	-3766.0	37288.0
29	17	28	29	169	162.0	-282839.0	-3759.0	38072.0
29	17	28	29	169	163.0	-276894.0	-3758.0	40791.0
29	17	28	29	170	164.0	-271139.0	-3759.0	44751.0
29	17	28	29	171	165.0	-262664.0	-3759.0	50609.0
29	17	28	29	171	166.0	-252373.0	-3762.0	58875.0
29	17	28	29	172	167.0	-240723.0	-3796.0	69591.0
29	17	28	29	172	168.0	-228645.0	-3771.0	79657.0
29	17	28	29	173	169.0	-218075.0	-3786.0	87653.0
29	17	28	29	174	170.0	-208744.0	-3801.0	92253.0
29	17	28	29	174	171.0	-201683.0	-3792.0	93019.0
29	17	28	29	189	172.0	-196377.0	-3809.0	91725.0
29	17	28	29	189	173.0	-191842.0	-3780.0	90951.0
29	17	28	29	190	174.0	-189083.0	-3774.0	89851.0
29	17	28	29	191	175.0	-187522.0	-3779.0	88511.0
29	17	28	29	192	176.0	-187964.0	-3787.0	88657.0
29	17	28	29	192	177.0	-190409.0	-3775.0	89103.0
29	17	28	29	193	178.0	-192618.0	-3760.0	87581.0
29	17	28	29	193	179.0	-191126.0	-3769.0	86365.0
29	17	28	29	194	180.0	-183541.0	-3767.0	84174.0
29	17	28	29	195	181.0	-173307.0	-3732.0	82363.0
29	17	28	29	195	182.0	-161291.0	-3732.0	80421.0
29	17	28	29	196	183.0	-145601.0	-3732.0	78600.0
29	17	28	29	197	184.0	-126791.0	-3712.0	77555.0
29	17	28	29	197	185.0	-105076.0	-3720.0	76348.0
29	17	28	29	198	186.0	-85232.0	-3729.0	75286.0
29	17	28	29	211	187.0	-72681.0	-3717.0	74403.0
29	17	28	29	212	188.0	-71769.0	-3732.0	73557.0
29	17	28	29	212	189.0	-84222.0	-3722.0	72531.0
29	17	28	29	213	190.0	-105394.0	-3716.0	71047.0
29	17	28	29	214	191.0	-130420.0	-3707.0	70181.0
29	17	28	29	214	192.0	-153654.0	-3707.0	70003.0
29	17	28	29	215	193.0	-179990.0	-3706.0	69849.0
29	17	28	29	216	194.0	-210374.0	-3689.0	69514.0
29	17	28	29	216	195.0	-237436.0	-3679.0	69331.0
29	17	28	29	233	196.0	-252772.0	-3641.0	69014.0
29	17	28	29	234	197.0	-253582.0	-3614.0	69196.0
29	17	28	29	234	198.0	-241445.0	-3624.0	68526.0
29	17	28	29	235	199.0	-220619.0	-3630.0	67264.0
29	17	28	29	236	200.0	-196604.0	-3620.0	67309.0
29	17	28	29	236	201.0	-176016.0	-3616.0	67506.0
29	17	28	29	258	202.0	-164070.0	-3601.0	66806.0
29	17	28	29	259	203.0	-163162.0	-3577.0	66618.0
29	17	28	29	260	204.0	-172362.0	-3557.0	66638.0
29	17	28	29	260	205.0	-187646.0	-3548.0	65945.0
29	17	28	29	261	206.0	-204297.0	-3552.0	64716.0
29	17	28	29	262	207.0	-217584.0	-3549.0	64419.0
29	17	28	29	262	208.0	-225167.0	-3570.0	64810.0
29	17	28	29	263	209.0	-226801.0	-3576.0	64210.0
29	17	28	29	263	210.0	-222582.0	-3565.0	63041.0
29	17	28	29	264	211.0	-214656.0	-3546.0	61760.0
29	17	28	29	264	212.0	-204854.0	-3553.0	60730.0
29	17	28	29	265	213.0	-194337.0	-3566.0	60202.0
29	17	28	29	266	214.0	-184289.0	-3570.0	60219.0
29	17	28	29	266	215.0	-175209.0	-3587.0	59728.0
29	17	28	29	267	216.0	-167689.0	-3607.0	59479.0
29	17	28	29	281	217.0	-161036.0	-3626.0	58824.0
29	17	28	29	282	218.0	-155313.0	-3627.0	58153.0
29	17	28	29	283	219.0	-150254.0	-3629.0	58370.0
29	17	28	29	284	220.0	-144221.0	-3631.0	58117.0
29	17	28	29	284	221.0	-137953.0	-3647.0	57488.0
29	17	28	29	285	222.0	-133184.0	-3646.0	57000.0
29	17	28	29	286	223.0	-130144.0	-3678.0	57165.0
29	17	28	29	286	224.0	-129714.0	-3685.0	57561.0
29	17	28	29	287	225.0	-134121.0	-3699.0	57516.0
29	17	28	29	288	226.0	-143092.0	-3713.0	57559.0
29	17	28	29	288	227.0	-154819.0	-3737.0	57079.0
29	17	28	29	289	228.0	-167399.0	-3745.0	56281.0
29	17	28	29	289	229.0	-179630.0	-3776.0	56406.0
29	17	28	29	290	230.0	-189802.0	-3818.0	56322.0
29	17	28	29	291	231.0	-196558.0	-3811.0	55331.0
29	17	28	29	291	232.0	-200672.0	-3824.0	54919.0
29	17	28	29	305	233.0	-201315.0	-3832.0	54269.0
29	17	28	29	306	234.0	-197951.0	-3832.0	53774.0
29	17	28	29	306	235.0	-191390.0	-3822.0	53722.0
29	17	28	29	307	236.0	-181958.0	-3822.0	53208.0
29	17	28	29	308	237.0	-170671.0	-3844.0	52496.0
29	17	28	29	308	238.0	-159233.0	-3867.0	52473.0
29	17	28	29	309	239.0	-149296.0	-3893.0	51962.0
29	17	28	29	328	240.0	-142054.0	-3893.0	50865.0
29	17	28	29	329	241.0	-137284.0	-3906.0	48701.0
29	17	28	29	329	242.0	-134633.0	-3902.0	47483.0
29	17	28	29	330	243.0	-133911.0	-3916.0	46650.0
29	17	28	29	331	244.0	-134011.0	-3921.0	44938.0
29	17	28	29	331	245.0	-134764.0	-3926.0	43878.0
29	17	28	29	332	246.0	-136379.0	-3932.0	43009.0
29	17	28	29	333	247.0	-138633.0	-3926.0	41942.0
29	17	28	29	350	248.0	-141840.0	-3904.0	40929.0
29	17	28	29	351	249.0	-146106.0	-3918.0	40351.0
29	17	28	29	352	250.0	-151828.0	-3935.0	39001.0
29	17	28	29	377	251.0	-159522.0	-3929.0	37891.0
29	17	28	29	381	252.0	-168783.0	-3926.0	36349.0
29	17	28	29	389	253.0	-178278.0	-3926.0	34851.0
29	17	28	29	392	254.0	-187550.0	-3916.0	33946.0
29	17	28	29	393	255.0	-195673.0	-3892.0	34596.0
29	17	28	29	393	0.0	-202576.0	-3904.0	36222.0
29	17	28	29	394	1.0	-209789.0	-3894.0	36158.0
29	17	28	29	394	2.0	-217389.0	-3893.0	35802.0
29	17	28	29	395	3.0	-224964.0	-3896.0	35423.0
29	17	28	29	395	4.0	-231764.0	-3902.0	34246.0
29	17	28	29	396	5.0	-237701.0	-3917.0	33763.0
29	17	28	29	397	6.0	-243272.0	-3942.0	34238.0
29	17	28	29	397	7.0	-248151.0	-3915.0	33041.0
29	17	28	29	398	8.0	-252504.0	-3907.0	32876.0
29	17	28	29	398	9.0	-254946.0	-3929.0	32557.0
29	17	28	29	399	10.0	-255374.0	-3912.0	32388.0
29	17	28	29	399	12.0	-253968.0	-3879.0	32522.0
29	17	28	29	400	13.0	-252832.0	-3878.0	31864.0
29	17	28	29	400	14.0	-250374.0	-3874.0	31741.0
29	17	28	29	401	15.0	-247146.0	-3871.0	31190.0
29	17	28	29	401	16.0	-244093.0	-3844.0	30620.0
29	17	28	29	402	17.0	-240214.0	-3810.0	30198.0
29	17	28	29	403	18.0	-235297.0	-3806.0	30437.0
29	17	28	29	403	19.0	-229701.0	-3782.0	29964.0
29	17	28	29	404	20.0	-223959.0	-3774.0	30308.0
29	17	28	29	404	21.0	-218323.0	-3761.0	30848.0
29	17	28	29	405	22.0	-212480.0	-3727.0	29443.0
29	17	28	29	405	23.0	-206206.0	-3717.0	28929.0
29	17	28	29	406	24.0	-200398.0	-3719.0	29822.0
29	17	28	29	407	25.0	-194944.0	-3701.0	29584.0
29	17	28	29	407	26.0	-190196.0	-3671.0	29609.0
29	17	28	29	408	27.0	-186530.0	-3669.0	30258.0
29	17	28	29	408	28.0	-182241.0	-3658.0	29762.0
29	17	28	29	409	29.0	-178182.0	-3629.0	28667.0
29	17	28	29	409	30.0	-175038.0	-3592.0	26071.0
29	17	28	29	410	31.0	-172513.0	-3555.0	24842.0
29	17	28	29	410	32.0	-171039.0	-3541.0	25766.0
29	17	28	29	411	33.0	-170069.0	-3509.0	27919.0
29	17	28	29	412	34.0	-170821.0	-3469.0	29048.0
29	17	28	29	412	35.0	-173876.0	-3439.0	28259.0
29	17	28	29	435	36.0	-178482.0	-3396.0	27236.0
29	17	28	29	436	37.0	-183857.0	-3336.0	26261.0
29	17	28	29	437	38.0	-189571.0	-3293.0	25913.0
29	17	28	29	438	39.0	-195986.0	-3256.0	26648.0
29	17	28	29	438	40.0	-201980.0	-3209.0	26845.0
29	17	28	29	439	41.0	-206640.0	-3182.0	27003.0
29	17	28	29	439	42.0	-209304.0	-3151.0	28023.0
29	17	28	29	440	43.0	-209546.0	-3116.0	27896.0
29	17	28	29	441	44.0	-208871.0	-3079.0	28221.0
29	17	28	29	441	45.0	-206760.0	-3051.0	28856.0
29	17	28	29	442	46.0	-203656.0	-3029.0	29867.0
29	17	28	29	442	47.0	-199131.0	-2997.0	30893.0
29	17	28	29	443	48.0	-192890.0	-2946.0	31713.0
29	17	28	29	444	49.0	-186476.0	-2904.0	32503.0
29	17	28	29	444	50.0	-180173.0	-2872.0	33010.0
29	17	28	29	445	51.0	-174659.0	-2818.0	33323.0
29	17	28	29	445	52.0	-169767.0	-2786.0	32806.0
29	17	28	29	446	53.0	-165527.0	-2731.0	32216.0
29	17	28	29	446	54.0	-163044.0	-2688.0	32468.0
29	17	28	29	455	55.0	-161629.0	-2649.0	33375.0
29	17	28	29	455	56.0	-160829.0	-2627.0	33528.0
29	17	28	29	479	57.0	-159781.0	-2579.0	33055.0
29	17	28	29	480	58.0	-158458.0	-2552.0	33682.0
29	17	28	29	481	59.0	-157618.0	-2546.0	33783.0
29	17	28	29	481	60.0	-156502.0	-2526.0	34348.0
29	17	28	29	482	61.0	-152131.0	-2505.0	34972.0
29	17	28	29	482	62.0	-143525.0	-2481.0	35578.0
29	17	28	29	483	63.0	-134167.0	-2426.0	35309.0
29	17	28	29	483	64.0	-132885.0	-2409.0	34583.0
29	17	28	29	484	65.0	-152677.0	-2381.0	33908.0
29	17	28	29	485	66.0	-182189.0	-2380.0	33766.0
29	17	28	29	485	67.0	-209797.0	-2345.0	33180.0
29	17	28	29	486	68.0	-228914.0	-2321.0	33441.0
29	17	28	29	486	69.0	-238691.0	-2303.0	33922.0
29	17	28	29	487	70.0	-236711.0	-2279.0	33756.0
29	17	28	29	487	71.0	-225427.0	-2261.0	33306.0
29	17	28	29	488	72.0	-209597.0	-2253.0	32296.0
29	17	28	29	503	73.0	-189849.0	-2241.0	32287.0
29	17	28	29	504	74.0	-168299.0	-2209.0	32069.0
29	17	28	29	504	75.0	-149840.0	-2202.0	30864.0
29	17	28	29	525	76.0	-135749.0	-2209.0	30000.0
29	17	28	29	526	77.0	-126047.0	-2202.0	29721.0
29	17	28	29	526	78.0	-120234.0	-2207.0	29285.0
29	17	28	29	527	79.0	-118303.0	-2184.0	27957.0
29	17	28	29	527	80.0	-119857.0	-2173.0	26329.0
29	17	28	29	528	81.0	-124677.0	-2166.0	25058.0
29	17	28	29	529	82.0	-132052.0	-2128.0	24583.0
29	17	28	29	529	83.0	-141272.0	-2092.0	23993.0
29	17	28	29	530	84.0	-149308.0	-2117.0	23304.0
29	17	28	29	530	85.0	-154830.0	-2101.0	23868.0
29	17	28	29	531	86.0	-158703.0	-2079.0	24136.0
29	17	28	29	531	87.0	-161407.0	-2069.0	23858.0
29	17	28	29	532	88.0	-163930.0	-2051.0	22874.0
29	17	28	29	532	89.0	-166334.0	-2031.0	23053.0
29	17	28	29	533	90.0	-168447.0	-2024.0	23379.0
29	17	28	29	534	91.0	-169499.0	-2030.0	22776.0
29	17	28	29	534	92.0	-167372.0	-2007.0	23037.0
29	17	28	29	535	93.0	-162021.0	-2006.0	23866.0
29	17	28	29	535	94.0	-155160.0	-2011.0	23396.0
29	17	28	29	548	95.0	-149517.0	-2021.0	22774.0
29	17	28	29	548	96.0	-147879.0	-2009.0	23475.0
29	17	28	29	549	97.0	-151412.0	-2007.0	24247.0
29	17	28	29	550	98.0	-158946.0	-2009.0	24584.0
29	17	28	29	550	99.0	-169277.0	-2011.0	24809.0
29	17	28	29	551	100.0	-181554.0	-2008.0	24701.0
29	17	28	29	552	101.0	-193929.0	-1998.0	24549.0
29	17	28	29	552	102.0	-204516.0	-2000.0	24598.0
29	17	28	29	553	103.0	-212777.0	-2015.0	24899.0
29	17	28	29	554	104.0	-218827.0	-1999.0	24926.0
29	17	28	29	554	105.0	-222642.0	-1972.0	24878.0
29	17	28	29	575	106.0	-223679.0	-1946.0	24517.0
29	17	28	29	575	107.0	-221824.0	-1945.0	24796.0
29	17	28	29	576	108.0	-218115.0	-1952.0	25161.0
29	17	28	29	577	109.0	-212951.0	-1947.0	26007.0
29	17	28	29	577	110.0	-207771.0	-1932.0	26580.0
29	17	28	29	597	111.0	-202736.0	-1902.0	27376.0
29	17	28	29	598	112.0	-198539.0	-1887.0	27250.0
29	17	28	29	598	113.0	-196253.0	-1862.0	26870.0
29	17	28	29	599	114.0	-196173.0	-1829.0	26871.0
29	17	28	29	600	115.0	-196511.0	-1819.0	26376.0
29	17	28	29	600	116.0	-196520.0	-1822.0	25408.0
29	17	28	29	601	117.0	-196234.0	-1807.0	25737.0
29	17	28	29	601	118.0	-195233.0	-1779.0	25663.0
29	17	28	29	602	119.0	-193586.0	-1768.0	25686.0
29	17	28	29	603	120.0	-191107.0	-1759.0	26159.0
29	17	28	29	603	121.0	-188159.0	-1769.0	26805.0
29	17	28	29	604	122.0	-184574.0	-1781.0	27008.0
29	17	28	29	604	123.0	-180554.0	-1771.0	26961.0
29	17	28	29	605	124.0	-177208.0	-1746.0	26955.0
29	17	28	29	605	125.0	-174369.0	-1744.0	26936.0
29	17	28	29	606	126.0	-171807.0	-1729.0	26733.0
29	17	28	29	607	127.0	-168932.0	-1704.0	26184.0
29	17	28	29	607	128.0	-166129.0	-1688.0	26371.0
29	17	28	29	608	129.0	-163953.0	-1670.0	26156.0
29	17	28	29	608	130.0	-162029.0	-1636.0	26292.0
29	17	28	29	609	131.0	-160284.0	-1611.0	26476.0
29	17	28	29	620	132.0	-159466.0	-1615.0	26457.0
29	17	28	29	620	133.0	-160215.0	-1636.0	26646.0
29	17	28	29	621	134.0	-162482.0	-1619.0	27173.0
29	17	28	29	621	135.0	-166434.0	-1639.0	27453.0
29	17	28	29	622	136.0	-171664.0	-1648.0	28096.0
29	17	28	29	623	137.0	-178126.0	-1658.0	29438.0
29	17	28	29	623	138.0	-186497.0	-1646.0	29713.0
29	17	28	29	624	139.0	-196011.0	-1639.0	29966.0
29	17	28	29	624	140.0	-205672.0	-1636.0	30245.0
29	17	28	29	625	141.0	-214806.0	-1635.0	30901.0
29	17	28	29	642	142.0	-222364.0	-1631.0	31994.0
29	17	28	29	643	143.0	-228725.0	-1625.0	32748.0
29	17	28	29	644	144.0	-233496.0	-1635.0	33138.0
29	17	28	29	644	145.0	-236481.0	-1661.0	33231.0
29	17	28	29	645	146.0	-238238.0	-1682.0	32687.0
29	17	28	29	646	147.0	-238490.0	-1699.0	31586.0
29	17	28	29	646	148.0	-237726.0	-1704.0	31276.0
29	17	28	29	647	149.0	-236271.0	-1694.0	31319.0
29	17	28	29	648	150.0	-234700.0	-1703.0	31409.0
29	17	28	29	648	151.0	-232876.0	-1709.0	31593.0
29	17	28	29	649	152.0	-230919.0	-1727.0	31163.0
29	17	28	29	649	153.0	-229950.0	-1748.0	30798.0
29	17	28	29	650	154.0	-229362.0	-1756.0	30226.0
29	17	28	29	651	155.0	-227792.0	-1763.0	29890.0
29	17	28	29	651	156.0	-225007.0	-1748.0	30773.0
29	17	28	29	665	157.0	-220918.0	-1726.0	30264.0
29	17	28	29	665	158.0	-215817.0	-1719.0	29723.0
29	17	28	29	666	159.0	-210656.0	-1724.0	29419.0
29	17	28	29	667	160.0	-205186.0	-1742.0	29741.0
29	17	28	29	667	161.0	-199061.0	-1764.0	29583.0
29	17	28	29	668	162.0	-192880.0	-1777.0	29416.0
29	17	28	29	689	163.0	-186874.0	-1771.0	29879.0
29	17	28	29	690	164.0	-181141.0	-1784.0	29258.0
29	17	28	29	691	165.0	-175207.0	-1777.0	28359.0
29	17	28	29	691	166.0	-169079.0	-1792.0	28010.0
29	17	28	29	692	167.0	-163652.0	-1796.0	28159.0
29	17	28	29	692	168.0	-158771.0	-1782.0	28061.0
29	17	28	29	693	169.0	-154799.0	-1787.0	27698.0
29	17	28	29	694	170.0	-152566.0	-1809.0	27726.0
29	17	28	29	694	171.0	-151758.0	-1791.0	28349.0
29	17	28	29	695	172.0	-151879.0	-1767.0	28448.0
29	17	28	29	695	173.0	-153639.0	-1742.0	28169.0
29	17	28	29	696	174.0	-156602.0	-1730.0	28045.0
29	17	28	29	696	175.0	-160065.0	-1739.0	27858.0
29	17	28	29	697	176.0	-164158.0	-1762.0	27441.0
29	17	28	29	698	177.0	-168281.0	-1774.0	27099.0
29	17	28	29	698	178.0	-172679.0	-1776.0	27041.0
29	17	28	29	712	179.0	-177661.0	-1764.0	27116.0
29	17	28	29	713	180.0	-182884.0	-1767.0	26561.0
29	17	28	29	714	181.0	-189032.0	-1781.0	25853.0
29	17	28	29	714	182.0	-195827.0	-1787.0	25604.0
29	17	28	29	715	183.0	-203197.0	-1786.0	24918.0
29	17	28	29	715	184.0	-210929.0	-1790.0	23814.0
29	17	28	29	716	185.0	-218619.0	-1796.0	23829.0
29	17	28	29	735	186.0	-225600.0	-1798.0	24395.0
29	17	28	29	736	187.0	-231984.0	-1797.0	24023.0
29	17	28	29	736	188.0	-237471.0	-1809.0	24767.0
29	17	28	29	737	189.0	-241319.0	-1832.0	25094.0
29	17	28	29	738	190.0	-243847.0	-1839.0	25333.0
29	17	28	29	738	191.0	-245792.0	-1849.0	26256.0
29	17	28	29	739	192.0	-245899.0	-1862.0	26086.0
29	17	28	29	740	193.0	-243566.0	-1861.0	25738.0
29	17	28	29	740	194.0	-240504.0	-1866.0	26236.0
29	17	28	29	741	195.0	-238657.0	-1880.0	26053.0
29	17	28	29	741	196.0	-238569.0	-1892.0	25754.0
29	17	28	29	742	197.0	-238481.0	-1913.0	25623.0
29	17	28	29	742	198.0	-237275.0	-1926.0	25696.0
29	17	28	29	743	199.0	-235376.0	-1954.0	26126.0
29	17	28	29	743	200.0	-232836.0	-1966.0	26386.0
29	17	28	29	757	201.0	-229501.0	-1989.0	25414.0
29	17	28	29	758	202.0	-225802.0	-2018.0	24854.0
29	17	28	29	758	203.0	-222383.0	-2046.0	25000.0
29	17	28	29	759	204.0	-219072.0	-2087.0	24667.0
29	17	28	29	760	205.0	-215539.0	-2109.0	24136.0
29	17	28	29	760	206.0	-211562.0	-2135.0	23973.0
29	17	28	29	761	207.0	-206819.0	-2164.0	24564.0
29	17	28	29	761	208.0	-201363.0	-2174.0	25021.0
29	17	28	29	780	209.0	-194847.0	-2176.0	25594.0
29	17	28	29	781	210.0	-187806.0	-2184.0	26114.0
29	17	28	29	781	211.0	-180494.0	-2210.0	26236.0
29	17	28	29	782	212.0	-173112.0	-2239.0	27016.0
29	17	28	29	783	213.0	-165485.0	-2254.0	27649.0
29	17	28	29	783	214.0	-158293.0	-2263.0	27750.0
29	17	28	29	784	215.0	-151818.0	-2286.0	27723.0
29	17	28	29	785	216.0	-146252.0	-2318.0	27304.0
29	17	28	29	785	217.0	-142326.0	-2318.0	27781.0
29	17	28	29	786	218.0	-139266.0	-2344.0	27659.0
29	17	28	29	786	219.0	-137289.0	-2387.0	27885.0
29	17	28	29	787	220.0	-136375.0	-2402.0	28052.0
29	17	28	29	788	221.0	-135715.0	-2419.0	27737.0
29	17	28	29	788	222.0	-135834.0	-2426.0	28084.0
29	17	28	29	789	223.0	-136767.0	-2424.0	28426.0
29	17	28	29	803	224.0	-138241.0	-2447.0	27239.0
29	17	28	29	804	225.0	-140129.0	-2463.0	26565.0
29	17	28	29	805	226.0	-142572.0	-2462.0	26468.0
29	17	28	29	806	227.0	-146007.0	-2459.0	26713.0
29	17	28	29	806	228.0	-151167.0	-2468.0	26072.0
29	17	28	29	807	229.0	-157793.0	-2467.0	25976.0
29	17	28	29	808	230.0	-165347.0	-2472.0	25720.0
29	17	28	29	808	231.0	-174004.0	-2472.0	25413.0
29	17	28	29	809	232.0	-183087.0	-2467.0	25536.0
29	17	28	29	809	233.0	-191582.0	-2469.0	25198.0
29	17	28	29	810	234.0	-198739.0	-2489.0	24033.0
29	17	28	29	811	235.0	-204806.0	-2505.0	24456.0
29	17	28	29	811	236.0	-210387.0	-2509.0	24293.0
29	17	28	29	812	237.0	-215889.0	-2536.0	24124.0
29	17	28	29	825	238.0	-221367.0	-2546.0	24603.0
29	17	28	29	826	239.0	-226352.0	-2520.0	24971.0
29	17	28	29	827	240.0	-229852.0	-2534.0	25537.0
29	17	28	29	828	241.0	-231811.0	-2562.0	24913.0
29	17	28	29	828	242.0	-232683.0	-2567.0	24518.0
29	17	28	29	829	243.0	-232572.0	-2569.0	23578.0
29	17	28	29	829	244.0	-231826.0	-2591.0	23356.0
29	17	28	29	830	245.0	-231187.0	-2608.0	23282.0
29	17	28	29	848	246.0	-230542.0	-2637.0	23329.0
29	17	28	29	848	247.0	-229111.0	-2646.0	23594.0
29	17	28	29	849	248.0	-227371.0	-2646.0	24434.0
29	17	28	29	850	249.0	-224995.0	-2679.0	24594.0
29	17	28	29	850	250.0	-221912.0	-2686.0	24928.0
29	17	28	29	851	251.0	-219084.0	-2682.0	24894.0
29	17	28	29	851	252.0	-216043.0	-2694.0	25491.0
29	17	28	29	870	253.0	-213018.0	-2717.0	25749.0
29	17	28	29	871	254.0	-210523.0	-2707.0	25587.0
29	17	28	29	872	255.0	-208172.0	-2697.0	25258.0
29	17	28	29	872	0.0	-205969.0	-2707.0	24883.0
