29	17	44	48	263	113.0	-201899.0	-25437.0	-492637.0
29	17	44	48	265	114.0	-200964.0	-25349.0	-490354.0
29	17	44	48	267	115.0	-199914.0	-25275.0	-488650.0
29	17	44	48	269	116.0	-198981.0	-25221.0	-488092.0
29	17	44	48	271	117.0	-198119.0	-25158.0	-486105.0
29	17	44	48	273	118.0	-197069.0	-25089.0	-482600.0
29	17	44	48	275	119.0	-196378.0	-24999.0	-481297.0
29	17	44	48	277	120.0	-195761.0	-24924.0	-480143.0
29	17	44	48	278	121.0	-195043.0	-24852.0	-478929.0
29	17	44	48	280	122.0	-194686.0	-24775.0	-478064.0
29	17	44	48	281	123.0	-194277.0	-24722.0	-476713.0
29	17	44	48	282	124.0	-194547.0	-24677.0	-474039.0
29	17	44	48	292	125.0	-195783.0	-24615.0	-472666.0
29	17	44	48	292	126.0	-198317.0	-24533.0	-471627.0
29	17	44	48	293	127.0	-202255.0	-24467.0	-469676.0
29	17	44	48	293	128.0	-206439.0	-24419.0	-467360.0
29	17	44	48	294	129.0	-210393.0	-24358.0	-465906.0
29	17	44	48	295	130.0	-214101.0	-24314.0	-464926.0
29	17	44	48	295	131.0	-218046.0	-24254.0	-464094.0
29	17	44	48	296	132.0	-221252.0	-24218.0	-462824.0
29	17	44	48	321	133.0	-223361.0	-24167.0	-461851.0
29	17	44	48	322	134.0	-224192.0	-24109.0	-458819.0
29	17	44	48	346	135.0	-223433.0	-24038.0	-458424.0
29	17	44	48	389	136.0	-221579.0	-23988.0	-457464.0
29	17	44	48	390	137.0	-219337.0	-23931.0	-455407.0
29	17	44	48	415	138.0	-217750.0	-23880.0	-454388.0
29	17	44	48	416	139.0	-216221.0	-23812.0	-453187.0
29	17	44	48	416	140.0	-215324.0	-23750.0	-452010.0
29	17	44	48	417	141.0	-214836.0	-23691.0	-449233.0
29	17	44	48	417	142.0	-213857.0	-23639.0	-448264.0
29	17	44	48	418	143.0	-211743.0	-23586.0	-447487.0
29	17	44	48	439	144.0	-207567.0	-23518.0	-445193.0
29	17	44	48	439	145.0	-202076.0	-23449.0	-442855.0
29	17	44	48	440	146.0	-195644.0	-23392.0	-442039.0
29	17	44	48	441	147.0	-188894.0	-23323.0	-440506.0
29	17	44	48	441	148.0	-182808.0	-23266.0	-439168.0
29	17	44	48	442	149.0	-177476.0	-23207.0	-438368.0
29	17	44	48	442	158.0	-206816.0	-22804.0	-422783.0
29	17	44	48	443	180.0	-224730.0	-21849.0	-380799.0
29	17	44	48	443	181.0	-239707.0	-21838.0	-378943.0
29	17	44	48	444	182.0	-250861.0	-21811.0	-377341.0
29	17	44	48	444	183.0	-255082.0	-21756.0	-376728.0
29	17	44	48	445	184.0	-254100.0	-21717.0	-375250.0
29	17	44	48	446	185.0	-249566.0	-21698.0	-374536.0
29	17	44	48	446	186.0	-241118.0	-21666.0	-372612.0
29	17	44	48	447	187.0	-230247.0	-21647.0	-370611.0
29	17	44	48	479	202.0	-127774.0	-21293.0	-350505.0
29	17	44	48	479	203.0	-131267.0	-21285.0	-350961.0
29	17	44	48	480	204.0	-135470.0	-21278.0	-349174.0
29	17	44	48	481	205.0	-140106.0	-21261.0	-348817.0
29	17	44	48	481	206.0	-145991.0	-21242.0	-347685.0
29	17	44	48	482	207.0	-151697.0	-21212.0	-344399.0
29	17	44	48	523	208.0	-158015.0	-21192.0	-344276.0
29	17	44	48	524	209.0	-165005.0	-21189.0	-342871.0
29	17	44	48	524	210.0	-172499.0	-21195.0	-341246.0
29	17	44	48	525	211.0	-180472.0	-21204.0	-340267.0
29	17	44	48	525	212.0	-188596.0	-21167.0	-339375.0
29	17	44	48	526	213.0	-197938.0	-21141.0	-337540.0
29	17	44	48	526	214.0	-207266.0	-21146.0	-335225.0
29	17	44	48	527	215.0	-215609.0	-21134.0	-333889.0
29	17	44	48	527	216.0	-222472.0	-21108.0	-332743.0
29	17	44	48	528	225.0	-195780.0	-21127.0	-321276.0
29	17	44	48	529	226.0	-190147.0	-21070.0	-320659.0
29	17	44	48	570	227.0	-185686.0	-21047.0	-319924.0
29	17	44	48	571	228.0	-181599.0	-21039.0	-318257.0
29	17	44	48	571	229.0	-179792.0	-21008.0	-317428.0
29	17	44	48	572	230.0	-180328.0	-20987.0	-315780.0
29	17	44	48	572	247.0	-190437.0	-20854.0	-298579.0
29	17	44	48	573	248.0	-187508.0	-20894.0	-294918.0
29	17	44	48	574	249.0	-185494.0	-20884.0	-293138.0
29	17	44	48	574	250.0	-184860.0	-20861.0	-291139.0
29	17	44	48	575	251.0	-186379.0	-20846.0	-290539.0
29	17	44	48	575	252.0	-187975.0	-20832.0	-289633.0
29	17	44	48	576	253.0	-190687.0	-20857.0	-287487.0
29	17	44	48	577	254.0	-193861.0	-20836.0	-285397.0
29	17	44	48	577	255.0	-195336.0	-20860.0	-283732.0
29	17	44	48	578	0.0	-196774.0	-20871.0	-283091.0
29	17	44	48	578	1.0	-196492.0	-20866.0	-282217.0
29	17	44	48	579	14.0	-210344.0	-21066.0	-264117.0
29	17	44	48	580	15.0	-212197.0	-21076.0	-262551.0
29	17	44	48	580	16.0	-214598.0	-21068.0	-262063.0
29	17	44	48	581	17.0	-215689.0	-21083.0	-260844.0
29	17	44	48	581	18.0	-218421.0	-21061.0	-259084.0
29	17	44	48	582	19.0	-220635.0	-21069.0	-258187.0
29	17	44	48	613	20.0	-222030.0	-21073.0	-256783.0
29	17	44	48	614	21.0	-223299.0	-21082.0	-255885.0
29	17	44	48	614	22.0	-222746.0	-21092.0	-255731.0
29	17	44	48	615	23.0	-222136.0	-21100.0	-254123.0
29	17	44	48	616	24.0	-219132.0	-21098.0	-252947.0
29	17	44	48	616	25.0	-215420.0	-21095.0	-251201.0
29	17	44	48	617	26.0	-212059.0	-21107.0	-248944.0
29	17	44	48	617	27.0	-206657.0	-21111.0	-246310.0
29	17	44	48	618	28.0	-201842.0	-21112.0	-244597.0
29	17	44	48	619	29.0	-196528.0	-21124.0	-243624.0
29	17	44	48	619	30.0	-190532.0	-21134.0	-242522.0
29	17	44	48	620	31.0	-186299.0	-21132.0	-241056.0
29	17	44	48	620	32.0	-181009.0	-21140.0	-239884.0
29	17	44	48	621	33.0	-177507.0	-21129.0	-239749.0
29	17	44	48	622	34.0	-174589.0	-21129.0	-239054.0
29	17	44	48	622	36.0	-172723.0	-21147.0	-237560.0
29	17	44	48	623	37.0	-173715.0	-21134.0	-236597.0
29	17	44	48	623	38.0	-176416.0	-21128.0	-235054.0
29	17	44	48	624	39.0	-180283.0	-21118.0	-233870.0
29	17	44	48	625	40.0	-181690.0	-21089.0	-232659.0
29	17	44	48	625	41.0	-183017.0	-21106.0	-230494.0
29	17	44	48	626	42.0	-182826.0	-21091.0	-229241.0
29	17	44	48	659	43.0	-181424.0	-21097.0	-227401.0
29	17	44	48	660	44.0	-181243.0	-21121.0	-226389.0
29	17	44	48	661	45.0	-179041.0	-21144.0	-225139.0
29	17	44	48	661	46.0	-178269.0	-21161.0	-223621.0
29	17	44	48	662	47.0	-177062.0	-21184.0	-221481.0
29	17	44	48	662	48.0	-175386.0	-21201.0	-220192.0
29	17	44	48	663	49.0	-176196.0	-21194.0	-218831.0
29	17	44	48	664	50.0	-176636.0	-21184.0	-217387.0
29	17	44	48	664	51.0	-178364.0	-21164.0	-215527.0
29	17	44	48	665	52.0	-182343.0	-21181.0	-213854.0
29	17	44	48	666	53.0	-185703.0	-21195.0	-212935.0
29	17	44	48	666	54.0	-191908.0	-21201.0	-212114.0
29	17	44	48	667	55.0	-197199.0	-21217.0	-210972.0
29	17	44	48	668	56.0	-202502.0	-21214.0	-210157.0
29	17	44	48	668	57.0	-207569.0	-21196.0	-209125.0
29	17	44	48	669	59.0	-213814.0	-21236.0	-205149.0
29	17	44	48	670	60.0	-216379.0	-21234.0	-202639.0
29	17	44	48	670	61.0	-216856.0	-21239.0	-201647.0
29	17	44	48	671	62.0	-218849.0	-21239.0	-199759.0
29	17	44	48	672	63.0	-219756.0	-21216.0	-198218.0
29	17	44	48	672	64.0	-222518.0	-21215.0	-196809.0
29	17	44	48	750	65.0	-226501.0	-21214.0	-195079.0
29	17	44	48	751	66.0	-229573.0	-21199.0	-194201.0
29	17	44	48	794	67.0	-234641.0	-21212.0	-193783.0
29	17	44	48	795	68.0	-237539.0	-21208.0	-192009.0
29	17	44	48	795	69.0	-238724.0	-21190.0	-190251.0
29	17	44	48	796	70.0	-240009.0	-21195.0	-188945.0
29	17	44	48	797	71.0	-237205.0	-21212.0	-187220.0
29	17	44	48	797	72.0	-233084.0	-21191.0	-186854.0
29	17	44	48	798	73.0	-227274.0	-21182.0	-185942.0
29	17	44	48	798	74.0	-217979.0	-21187.0	-184451.0
29	17	44	48	799	75.0	-209173.0	-21175.0	-182889.0
29	17	44	48	800	76.0	-199822.0	-21171.0	-182414.0
29	17	44	48	801	77.0	-191156.0	-21163.0	-182097.0
29	17	44	48	802	78.0	-184944.0	-21151.0	-181296.0
29	17	44	48	803	79.0	-179650.0	-21147.0	-181119.0
29	17	44	48	804	103.0	-203441.0	-20757.0	-126568.0
29	17	44	48	804	104.0	-199181.0	-20749.0	-124682.0
29	17	44	48	805	105.0	-195544.0	-20744.0	-122804.0
29	17	44	48	806	126.0	-222383.0	-19912.0	-119016.0
29	17	44	48	806	127.0	-249738.0	-19864.0	-118529.0
29	17	44	48	807	128.0	-274883.0	-19810.0	-118684.0
29	17	44	48	807	129.0	-297709.0	-19777.0	-117878.0
29	17	44	48	808	130.0	-311588.0	-19762.0	-117134.0
29	17	44	48	808	131.0	-316802.0	-19719.0	-115120.0
29	17	44	48	809	132.0	-310112.0	-19666.0	-113356.0
29	17	44	48	839	133.0	-271067.0	-19600.0	-112481.0
29	17	44	48	840	134.0	-210266.0	-19556.0	-111315.0
29	17	44	48	840	135.0	-161707.0	-19502.0	-110405.0
29	17	44	48	841	136.0	-129801.0	-19476.0	-109213.0
29	17	44	48	841	137.0	-115055.0	-19428.0	-108945.0
29	17	44	48	842	138.0	-110301.0	-19372.0	-107306.0
29	17	44	48	842	139.0	-118059.0	-19334.0	-107005.0
29	17	44	48	843	140.0	-139458.0	-19305.0	-105636.0
29	17	44	48	844	141.0	-167534.0	-19263.0	-104001.0
29	17	44	48	844	142.0	-192591.0	-19222.0	-102630.0
29	17	44	48	845	143.0	-209377.0	-19177.0	-101504.0
29	17	44	48	845	144.0	-216769.0	-19127.0	-100004.0
29	17	44	48	846	145.0	-216811.0	-19091.0	-98950.0
29	17	44	48	846	146.0	-215497.0	-19072.0	-98192.0
29	17	44	48	847	147.0	-214937.0	-19026.0	-97033.0
29	17	44	48	848	148.0	-218510.0	-18976.0	-95537.0
29	17	44	48	848	149.0	-223448.0	-18932.0	-94002.0
29	17	44	48	849	150.0	-221529.0	-18897.0	-93256.0
29	17	44	48	849	151.0	-210582.0	-18832.0	-92725.0
29	17	44	48	850	152.0	-194346.0	-18794.0	-91595.0
29	17	44	48	850	153.0	-176606.0	-18743.0	-89986.0
29	17	44	48	851	154.0	-157906.0	-18686.0	-88727.0
29	17	44	48	884	155.0	-141605.0	-18644.0	-86734.0
29	17	44	48	885	156.0	-130052.0	-18600.0	-85904.0
29	17	44	48	886	157.0	-125382.0	-18572.0	-85040.0
29	17	44	48	886	158.0	-127561.0	-18537.0	-83864.0
29	17	44	48	887	159.0	-132761.0	-18501.0	-82638.0
29	17	44	48	888	160.0	-140696.0	-18462.0	-81394.0
29	17	44	48	888	161.0	-150753.0	-18412.0	-80492.0
29	17	44	48	889	162.0	-160379.0	-18387.0	-79290.0
29	17	44	48	889	163.0	-171154.0	-18361.0	-77950.0
29	17	44	48	975	164.0	-182151.0	-18334.0	-77391.0
29	17	44	48	976	165.0	-189848.0	-18306.0	-76533.0
29	17	44	48	976	166.0	-195351.0	-18271.0	-74760.0
29	17	44	48	977	167.0	-197649.0	-18266.0	-73634.0
29	17	44	48	978	168.0	-197336.0	-18236.0	-72620.0
29	17	44	48	978	169.0	-197476.0	-18189.0	-71304.0
29	17	44	48	979	171.0	-193069.0	-18114.0	-69544.0
29	17	44	48	979	172.0	-191468.0	-18054.0	-67643.0
29	17	44	48	980	173.0	-188499.0	-17992.0	-65939.0
29	17	44	48	982	174.0	-187700.0	-17934.0	-65572.0
29	17	44	49	19	175.0	-187004.0	-17895.0	-64288.0
29	17	44	49	20	176.0	-185784.0	-17861.0	-62921.0
29	17	44	49	21	177.0	-187074.0	-17827.0	-61291.0
29	17	44	49	21	178.0	-187662.0	-17783.0	-60579.0
29	17	44	49	22	179.0	-187530.0	-17721.0	-59773.0
29	17	44	49	23	180.0	-189201.0	-17671.0	-58407.0
29	17	44	49	23	216.0	-198642.0	-16537.0	-21344.0
29	17	44	49	24	217.0	-198495.0	-16522.0	-19676.0
29	17	44	49	25	218.0	-197544.0	-16472.0	-19486.0
29	17	44	49	25	219.0	-196023.0	-16450.0	-17628.0
29	17	44	49	26	220.0	-195997.0	-16414.0	-16309.0
29	17	44	49	27	221.0	-194880.0	-16405.0	-14796.0
29	17	44	49	27	222.0	-192785.0	-16382.0	-13718.0
29	17	44	49	28	223.0	-192421.0	-16376.0	-13132.0
29	17	44	49	28	224.0	-190844.0	-16347.0	-11728.0
29	17	44	49	29	238.0	-177328.0	-16107.0	5328.0
29	17	44	49	30	239.0	-178211.0	-16108.0	7426.0
29	17	44	49	30	240.0	-181276.0	-16085.0	8921.0
29	17	44	49	31	241.0	-184365.0	-16043.0	10414.0
29	17	44	49	32	242.0	-188330.0	-15991.0	11706.0
29	17	44	49	32	243.0	-193421.0	-15936.0	12267.0
29	17	44	49	33	244.0	-198394.0	-15899.0	13551.0
29	17	44	49	65	245.0	-203676.0	-15852.0	14422.0
29	17	44	49	65	246.0	-209504.0	-15809.0	15421.0
29	17	44	49	66	247.0	-213487.0	-15767.0	15688.0
29	17	44	49	67	248.0	-215660.0	-15744.0	16735.0
29	17	44	49	67	249.0	-216322.0	-15727.0	18501.0
29	17	44	49	68	250.0	-214861.0	-15676.0	19196.0
29	17	44	49	69	251.0	-214117.0	-15619.0	19723.0
29	17	44	49	69	252.0	-213701.0	-15586.0	21146.0
29	17	44	49	70	253.0	-212167.0	-15518.0	22914.0
29	17	44	49	71	254.0	-211728.0	-15448.0	24468.0
29	17	44	49	72	255.0	-210258.0	-15386.0	25316.0
29	17	44	49	72	0.0	-207023.0	-15337.0	26596.0
29	17	44	49	73	1.0	-204596.0	-15258.0	26542.0
29	17	44	49	74	2.0	-200826.0	-15169.0	28148.0
29	17	44	49	74	3.0	-195811.0	-15098.0	29128.0
29	17	44	49	75	5.0	-187321.0	-14981.0	30843.0
29	17	44	49	76	6.0	-182871.0	-14934.0	33554.0
29	17	44	49	76	7.0	-177569.0	-14856.0	33729.0
29	17	44	49	77	8.0	-163529.0	-14766.0	34231.0
29	17	44	49	78	9.0	-141423.0	-14664.0	35629.0
29	17	44	49	78	10.0	-138245.0	-14601.0	36349.0
29	17	44	49	108	11.0	-155577.0	-14501.0	37154.0
29	17	44	49	109	12.0	-187010.0	-14423.0	38790.0
29	17	44	49	110	13.0	-218826.0	-14357.0	38856.0
29	17	44	49	110	14.0	-240016.0	-14296.0	39671.0
29	17	44	49	153	15.0	-256011.0	-14222.0	40944.0
29	17	44	49	154	16.0	-265442.0	-14171.0	43148.0
29	17	44	49	154	17.0	-271594.0	-14111.0	43936.0
29	17	44	49	155	18.0	-274009.0	-14069.0	44119.0
29	17	44	49	156	19.0	-269211.0	-14013.0	44654.0
29	17	44	49	156	20.0	-259596.0	-13972.0	46293.0
29	17	44	49	157	21.0	-245284.0	-13911.0	47871.0
29	17	44	49	158	22.0	-228197.0	-13861.0	48973.0
29	17	44	49	158	23.0	-212124.0	-13807.0	50175.0
29	17	44	49	159	24.0	-198255.0	-13754.0	51379.0
29	17	44	49	159	25.0	-189024.0	-13711.0	53951.0
29	17	44	49	160	27.0	-182064.0	-13614.0	53903.0
29	17	44	49	161	28.0	-183545.0	-13544.0	55539.0
29	17	44	49	161	29.0	-186171.0	-13479.0	56448.0
29	17	44	49	198	30.0	-189478.0	-13422.0	58027.0
29	17	44	49	199	49.0	-207201.0	-12719.0	74234.0
29	17	44	49	200	50.0	-201325.0	-12692.0	76078.0
29	17	44	49	200	51.0	-195720.0	-12644.0	76723.0
29	17	44	49	201	52.0	-191406.0	-12574.0	77913.0
29	17	44	49	209	53.0	-186986.0	-12536.0	79503.0
29	17	44	49	210	54.0	-184422.0	-12483.0	80420.0
29	17	44	49	211	55.0	-184279.0	-12446.0	80633.0
29	17	44	49	211	56.0	-183879.0	-12408.0	81424.0
29	17	44	49	212	57.0	-183587.0	-12370.0	82429.0
29	17	44	49	213	58.0	-183982.0	-12316.0	82837.0
29	17	44	49	213	59.0	-184517.0	-12294.0	83639.0
29	17	44	49	214	60.0	-185342.0	-12252.0	85559.0
29	17	44	49	214	61.0	-187276.0	-12204.0	85593.0
29	17	44	49	215	62.0	-189585.0	-12147.0	88073.0
29	17	44	49	215	72.0	-216001.0	-11879.0	97163.0
29	17	44	49	216	73.0	-217806.0	-11867.0	96749.0
29	17	44	49	217	74.0	-218520.0	-11796.0	97933.0
29	17	44	49	217	75.0	-219128.0	-11766.0	99729.0
29	17	44	49	218	76.0	-217942.0	-11737.0	101659.0
29	17	44	49	218	77.0	-215916.0	-11716.0	102531.0
29	17	44	49	244	78.0	-214044.0	-11680.0	103971.0
29	17	44	49	244	79.0	-210644.0	-11663.0	105628.0
29	17	44	49	245	80.0	-207187.0	-11651.0	105584.0
29	17	44	49	246	81.0	-203781.0	-11636.0	107025.0
29	17	44	49	247	82.0	-200907.0	-11614.0	107587.0
29	17	44	49	248	83.0	-199000.0	-11607.0	107376.0
29	17	44	49	248	84.0	-197516.0	-11594.0	109133.0
29	17	44	49	249	85.0	-196253.0	-11591.0	110919.0
29	17	44	49	250	86.0	-195837.0	-11544.0	109178.0
29	17	44	49	250	87.0	-194493.0	-11537.0	109296.0
29	17	44	49	251	88.0	-193617.0	-11533.0	111030.0
29	17	44	49	252	89.0	-191446.0	-11501.0	112414.0
29	17	44	49	334	90.0	-188803.0	-11491.0	112678.0
29	17	44	49	335	91.0	-185801.0	-11481.0	113569.0
29	17	44	49	336	92.0	-183241.0	-11469.0	114063.0
29	17	44	49	337	94.0	-180032.0	-11439.0	114474.0
29	17	44	49	338	95.0	-179915.0	-11433.0	115101.0
29	17	44	49	340	96.0	-179571.0	-11406.0	115836.0
29	17	44	49	340	97.0	-179128.0	-11378.0	116523.0
29	17	44	49	341	98.0	-178453.0	-11366.0	117434.0
29	17	44	49	342	99.0	-177670.0	-11331.0	118581.0
29	17	44	49	342	100.0	-176801.0	-11312.0	119383.0
29	17	44	49	343	101.0	-176330.0	-11297.0	119853.0
29	17	44	49	344	102.0	-175921.0	-11291.0	120184.0
29	17	44	49	344	103.0	-175286.0	-11277.0	120786.0
29	17	44	49	345	104.0	-175376.0	-11254.0	122261.0
29	17	44	49	345	105.0	-176146.0	-11267.0	123336.0
29	17	44	49	346	117.0	-188667.0	-11147.0	133240.0
29	17	44	49	346	140.0	-197331.0	-10621.0	150055.0
29	17	44	49	380	141.0	-196825.0	-10601.0	151385.0
29	17	44	49	381	142.0	-196649.0	-10592.0	151656.0
29	17	44	49	381	143.0	-195752.0	-10564.0	152073.0
29	17	44	49	382	144.0	-195107.0	-10529.0	152999.0
29	17	44	49	383	145.0	-194416.0	-10539.0	153999.0
29	17	44	49	383	146.0	-193834.0	-10513.0	155174.0
29	17	44	49	384	147.0	-191642.0	-10485.0	155678.0
29	17	44	49	385	148.0	-189896.0	-10461.0	156214.0
29	17	44	49	385	149.0	-188337.0	-10456.0	156286.0
29	17	44	49	386	150.0	-186873.0	-10463.0	156548.0
29	17	44	49	386	151.0	-185197.0	-10444.0	158051.0
29	17	44	49	387	152.0	-185029.0	-10451.0	158305.0
29	17	44	49	388	153.0	-184809.0	-10442.0	159311.0
29	17	44	49	388	154.0	-185427.0	-10428.0	160670.0
29	17	44	49	389	155.0	-185617.0	-10426.0	161194.0
29	17	44	49	390	156.0	-186605.0	-10407.0	161434.0
29	17	44	49	390	162.0	-190371.0	-10364.0	166170.0
29	17	44	49	391	163.0	-190816.0	-10356.0	166082.0
29	17	44	49	391	164.0	-191382.0	-10332.0	167388.0
29	17	44	49	392	165.0	-191150.0	-10345.0	167630.0
29	17	44	49	393	166.0	-190386.0	-10334.0	168240.0
29	17	44	49	393	167.0	-189097.0	-10343.0	169813.0
29	17	44	49	423	168.0	-187735.0	-10347.0	169690.0
29	17	44	49	424	169.0	-186727.0	-10337.0	170128.0
29	17	44	49	425	170.0	-186461.0	-10339.0	170694.0
29	17	44	49	425	171.0	-186232.0	-10366.0	171996.0
29	17	44	49	426	172.0	-186649.0	-10349.0	172634.0
29	17	44	49	427	173.0	-187287.0	-10350.0	173393.0
29	17	44	49	427	174.0	-188872.0	-10361.0	173796.0
29	17	44	49	428	175.0	-190775.0	-10358.0	174803.0
29	17	44	49	429	176.0	-192314.0	-10341.0	176305.0
29	17	44	49	429	177.0	-195220.0	-10338.0	176841.0
29	17	44	49	430	178.0	-198564.0	-10338.0	176800.0
29	17	44	49	431	179.0	-201726.0	-10339.0	176889.0
29	17	44	49	431	180.0	-203726.0	-10352.0	176353.0
29	17	44	49	432	181.0	-206291.0	-10356.0	177063.0
29	17	44	49	433	182.0	-208126.0	-10358.0	178809.0
29	17	44	49	433	184.0	-207527.0	-10351.0	180157.0
29	17	44	49	434	185.0	-206714.0	-10341.0	181368.0
29	17	44	49	435	186.0	-204868.0	-10309.0	182067.0
29	17	44	49	435	187.0	-202826.0	-10287.0	182568.0
29	17	44	49	436	188.0	-199877.0	-10277.0	183269.0
29	17	44	49	436	189.0	-198746.0	-10255.0	184702.0
29	17	44	49	468	190.0	-197691.0	-10227.0	186293.0
29	17	44	49	469	191.0	-197099.0	-10195.0	186387.0
29	17	44	49	470	192.0	-196828.0	-10162.0	186795.0
29	17	44	49	470	193.0	-196521.0	-10160.0	187481.0
29	17	44	49	471	194.0	-196107.0	-10144.0	187600.0
29	17	44	49	472	195.0	-196452.0	-10126.0	188716.0
29	17	44	49	473	196.0	-196814.0	-10097.0	189049.0
29	17	44	49	473	197.0	-197142.0	-10104.0	189393.0
29	17	44	49	474	198.0	-197184.0	-10116.0	190914.0
29	17	44	49	475	199.0	-196213.0	-10133.0	190979.0
29	17	44	49	475	200.0	-195587.0	-10119.0	189755.0
29	17	44	49	476	201.0	-193762.0	-10096.0	190357.0
29	17	44	49	477	202.0	-192248.0	-10091.0	191309.0
29	17	44	49	477	203.0	-191115.0	-10087.0	192439.0
29	17	44	49	478	204.0	-190402.0	-10071.0	193185.0
29	17	44	49	479	207.0	-187779.0	-10050.0	193928.0
29	17	44	49	479	208.0	-187223.0	-10051.0	195556.0
29	17	44	49	480	209.0	-186841.0	-10053.0	195111.0
29	17	44	49	480	210.0	-187235.0	-10059.0	195611.0
29	17	44	49	481	211.0	-188544.0	-10061.0	196498.0
29	17	44	49	482	212.0	-189755.0	-10058.0	196459.0
29	17	44	49	513	213.0	-190989.0	-10042.0	197254.0
29	17	44	49	514	214.0	-192393.0	-10044.0	199276.0
29	17	44	49	515	215.0	-193852.0	-10048.0	200031.0
29	17	44	49	515	216.0	-195388.0	-10071.0	201067.0
29	17	44	49	516	217.0	-196056.0	-10094.0	200701.0
29	17	44	49	517	218.0	-196532.0	-10118.0	200528.0
29	17	44	49	517	219.0	-197124.0	-10124.0	201094.0
29	17	44	49	518	220.0	-197386.0	-10147.0	200813.0
29	17	44	49	519	221.0	-197449.0	-10169.0	201453.0
29	17	44	49	519	222.0	-197079.0	-10181.0	200673.0
29	17	44	49	520	223.0	-196681.0	-10161.0	200028.0
29	17	44	49	521	224.0	-196408.0	-10178.0	200526.0
29	17	44	49	521	225.0	-196447.0	-10201.0	200509.0
29	17	44	49	522	226.0	-195682.0	-10231.0	199958.0
29	17	44	49	523	227.0	-195886.0	-10238.0	198528.0
29	17	44	49	523	229.0	-195396.0	-10276.0	198943.0
29	17	44	49	524	230.0	-194662.0	-10288.0	200431.0
29	17	44	49	525	231.0	-194081.0	-10302.0	200788.0
29	17	44	49	525	232.0	-193281.0	-10331.0	199718.0
29	17	44	49	526	233.0	-192851.0	-10329.0	196884.0
29	17	44	49	527	234.0	-193087.0	-10352.0	193485.0
29	17	44	49	558	235.0	-194622.0	-10370.0	193220.0
29	17	44	49	559	236.0	-197511.0	-10357.0	194663.0
29	17	44	49	560	237.0	-200381.0	-10356.0	197070.0
29	17	44	49	560	238.0	-202549.0	-10362.0	197074.0
29	17	44	49	561	239.0	-204274.0	-10374.0	196429.0
29	17	44	49	562	240.0	-205641.0	-10377.0	199184.0
29	17	44	49	563	241.0	-207160.0	-10380.0	206021.0
29	17	44	49	563	242.0	-208529.0	-10382.0	211029.0
29	17	44	49	564	243.0	-209719.0	-10364.0	216199.0
29	17	44	49	565	244.0	-211177.0	-10354.0	221579.0
29	17	44	49	565	245.0	-211706.0	-10337.0	224648.0
29	17	44	49	566	246.0	-210791.0	-10318.0	226691.0
29	17	44	49	567	247.0	-209967.0	-10317.0	231895.0
29	17	44	49	567	248.0	-208547.0	-10311.0	234946.0
29	17	44	49	568	249.0	-207083.0	-10316.0	238967.0
29	17	44	49	569	251.0	-205089.0	-10332.0	240524.0
29	17	44	49	569	252.0	-205112.0	-10344.0	240061.0
29	17	44	49	570	253.0	-205451.0	-10349.0	241210.0
29	17	44	49	570	254.0	-205071.0	-10333.0	240752.0
29	17	44	49	571	255.0	-205111.0	-10359.0	241483.0
29	17	44	49	572	0.0	-204299.0	-10358.0	244432.0
29	17	44	49	572	1.0	-202881.0	-10377.0	245271.0
29	17	44	49	604	2.0	-202241.0	-10400.0	244168.0
29	17	44	49	605	3.0	-200827.0	-10397.0	241576.0
29	17	44	49	606	4.0	-196587.0	-10423.0	237719.0
29	17	44	49	607	5.0	-188008.0	-10430.0	235444.0
29	17	44	49	608	6.0	-175812.0	-10455.0	233541.0
29	17	44	49	608	7.0	-164156.0	-10492.0	231104.0
29	17	44	49	609	8.0	-154655.0	-10535.0	231205.0
29	17	44	49	610	9.0	-148221.0	-10547.0	230654.0
29	17	44	49	610	10.0	-146264.0	-10569.0	231487.0
29	17	44	49	611	11.0	-145631.0	-10584.0	232131.0
29	17	44	49	612	12.0	-149655.0	-10604.0	232694.0
29	17	44	49	612	13.0	-163340.0	-10651.0	231680.0
29	17	44	49	613	14.0	-184950.0	-10662.0	232156.0
29	17	44	49	614	15.0	-209177.0	-10656.0	234000.0
29	17	44	49	614	16.0	-229357.0	-10687.0	233344.0
29	17	44	49	615	18.0	-260027.0	-10674.0	235483.0
29	17	44	49	616	19.0	-262631.0	-10684.0	235545.0
29	17	44	49	616	20.0	-242067.0	-10679.0	234795.0
29	17	44	49	617	21.0	-209074.0	-10667.0	235449.0
29	17	44	49	618	22.0	-181767.0	-10672.0	236311.0
29	17	44	49	618	23.0	-168931.0	-10664.0	237434.0
29	17	44	49	648	24.0	-162809.0	-10647.0	237808.0
29	17	44	49	649	25.0	-160260.0	-10641.0	238641.0
29	17	44	49	650	26.0	-164305.0	-10624.0	240364.0
29	17	44	49	650	27.0	-174598.0	-10651.0	240579.0
29	17	44	49	651	28.0	-188990.0	-10652.0	241196.0
29	17	44	49	652	29.0	-200386.0	-10660.0	242845.0
29	17	44	49	653	30.0	-203756.0	-10682.0	243438.0
29	17	44	49	653	31.0	-200618.0	-10709.0	244036.0
29	17	44	49	654	32.0	-193216.0	-10694.0	244750.0
29	17	44	49	654	33.0	-184791.0	-10701.0	245018.0
29	17	44	49	655	34.0	-181170.0	-10721.0	245094.0
29	17	44	49	656	35.0	-182426.0	-10739.0	246528.0
29	17	44	49	694	36.0	-187122.0	-10759.0	247691.0
29	17	44	49	695	37.0	-191822.0	-10784.0	247428.0
29	17	44	49	695	38.0	-193261.0	-10789.0	248108.0
29	17	44	49	696	40.0	-188501.0	-10809.0	248871.0
29	17	44	49	697	41.0	-181832.0	-10813.0	249433.0
29	17	44	49	698	42.0	-174792.0	-10823.0	250419.0
29	17	44	49	698	43.0	-168394.0	-10797.0	250802.0
29	17	44	49	699	44.0	-166134.0	-10783.0	251271.0
29	17	44	49	739	45.0	-166882.0	-10772.0	252758.0
29	17	44	49	740	46.0	-169524.0	-10771.0	252835.0
29	17	44	49	741	47.0	-173314.0	-10796.0	252902.0
29	17	44	49	742	48.0	-176498.0	-10804.0	253400.0
29	17	44	49	743	49.0	-179839.0	-10794.0	253756.0
29	17	44	49	743	50.0	-182957.0	-10786.0	254536.0
29	17	44	49	744	51.0	-184838.0	-10797.0	254786.0
29	17	44	49	745	52.0	-185789.0	-10801.0	254846.0
29	17	44	49	745	63.0	-166041.0	-10831.0	262219.0
29	17	44	49	746	64.0	-167067.0	-10839.0	262409.0
29	17	44	49	747	65.0	-167159.0	-10816.0	261601.0
29	17	44	49	748	66.0	-167592.0	-10809.0	262308.0
29	17	44	49	748	67.0	-167802.0	-10814.0	262846.0
29	17	44	49	749	68.0	-168336.0	-10796.0	263285.0
29	17	44	49	749	69.0	-168522.0	-10815.0	263335.0
29	17	44	49	750	70.0	-169327.0	-10811.0	264553.0
29	17	44	49	751	85.0	-187576.0	-10827.0	273669.0
29	17	44	49	751	86.0	-188087.0	-10821.0	273558.0
29	17	44	49	752	87.0	-187077.0	-10831.0	274386.0
29	17	44	49	753	88.0	-185489.0	-10824.0	275248.0
29	17	44	49	753	89.0	-183216.0	-10820.0	275193.0
29	17	44	49	754	90.0	-180227.0	-10820.0	276411.0
29	17	44	49	755	91.0	-178037.0	-10824.0	277179.0
29	17	44	49	785	92.0	-175695.0	-10824.0	277746.0
29	17	44	49	786	93.0	-174505.0	-10802.0	278898.0
29	17	44	49	786	94.0	-173246.0	-10826.0	279712.0
29	17	44	49	787	95.0	-172171.0	-10832.0	279693.0
29	17	44	49	788	96.0	-172033.0	-10824.0	281120.0
29	17	44	49	789	97.0	-171129.0	-10847.0	281212.0
29	17	44	49	789	98.0	-170975.0	-10860.0	282472.0
29	17	44	49	790	99.0	-170814.0	-10901.0	284324.0
29	17	44	49	791	100.0	-170649.0	-10938.0	285312.0
29	17	44	49	791	101.0	-171084.0	-10955.0	284950.0
29	17	44	49	792	102.0	-171377.0	-10983.0	285138.0
29	17	44	49	793	103.0	-173417.0	-11015.0	286885.0
29	17	44	49	793	104.0	-175280.0	-11039.0	287002.0
29	17	44	49	794	105.0	-176586.0	-11071.0	286843.0
29	17	44	49	795	106.0	-178569.0	-11116.0	287648.0
29	17	44	49	795	108.0	-181326.0	-11177.0	288641.0
29	17	44	49	796	109.0	-181480.0	-11203.0	288581.0
29	17	44	49	797	110.0	-181459.0	-11218.0	288838.0
29	17	44	49	797	111.0	-181307.0	-11207.0	289854.0
29	17	44	49	798	112.0	-179399.0	-11237.0	290861.0
29	17	44	49	798	113.0	-177419.0	-11259.0	292036.0
29	17	44	49	828	114.0	-173832.0	-11252.0	292883.0
29	17	44	49	829	115.0	-171269.0	-11268.0	293675.0
29	17	44	49	830	116.0	-168570.0	-11290.0	294590.0
29	17	44	49	831	117.0	-166741.0	-11335.0	293996.0
29	17	44	49	832	118.0	-166442.0	-11374.0	295010.0
29	17	44	49	832	119.0	-167919.0	-11401.0	297207.0
29	17	44	49	833	120.0	-173680.0	-11419.0	296905.0
29	17	44	49	834	121.0	-180922.0	-11458.0	298983.0
29	17	44	49	834	122.0	-188257.0	-11496.0	300461.0
29	17	44	49	835	123.0	-197495.0	-11527.0	300633.0
29	17	44	49	836	124.0	-207116.0	-11561.0	300717.0
29	17	44	49	836	125.0	-217922.0	-11559.0	302519.0
29	17	44	49	837	126.0	-227131.0	-11549.0	303911.0
29	17	44	49	838	127.0	-234045.0	-11560.0	303041.0
29	17	44	49	838	128.0	-239101.0	-11561.0	304891.0
29	17	44	49	839	130.0	-240727.0	-11555.0	307301.0
29	17	44	49	840	131.0	-239744.0	-11554.0	308115.0
29	17	44	49	840	132.0	-236210.0	-11559.0	308705.0
29	17	44	49	841	133.0	-232211.0	-11544.0	308851.0
29	17	44	49	841	134.0	-226326.0	-11522.0	309006.0
29	17	44	49	842	135.0	-219233.0	-11512.0	309831.0
29	17	44	49	873	136.0	-213754.0	-11492.0	310187.0
29	17	44	49	874	137.0	-207484.0	-11461.0	309580.0
29	17	44	49	875	138.0	-203709.0	-11461.0	309640.0
29	17	44	49	876	139.0	-200767.0	-11456.0	310453.0
29	17	44	49	877	140.0	-197690.0	-11452.0	311221.0
29	17	44	49	877	141.0	-196031.0	-11431.0	310774.0
29	17	44	49	878	142.0	-192529.0	-11429.0	311132.0
29	17	44	49	879	143.0	-189336.0	-11414.0	311316.0
29	17	44	49	919	144.0	-186480.0	-11377.0	311902.0
29	17	44	49	920	145.0	-181521.0	-11368.0	311461.0
29	17	44	49	921	146.0	-175877.0	-11364.0	312823.0
29	17	44	49	922	147.0	-168741.0	-11351.0	314257.0
29	17	44	49	923	148.0	-160771.0	-11339.0	313969.0
29	17	44	49	923	149.0	-153307.0	-11339.0	314036.0
29	17	44	49	924	150.0	-144002.0	-11352.0	314640.0
29	17	44	49	925	152.0	-119371.0	-11325.0	316064.0
29	17	44	49	925	153.0	-93509.0	-11289.0	315472.0
29	17	44	49	926	154.0	-68646.0	-11289.0	314980.0
29	17	44	49	927	155.0	-67594.0	-11248.0	315666.0
29	17	44	49	928	156.0	-83748.0	-11192.0	316187.0
29	17	44	49	928	157.0	-109365.0	-11176.0	317319.0
29	17	44	49	929	158.0	-128344.0	-11173.0	318481.0
29	17	44	49	929	159.0	-138522.0	-11143.0	317895.0
29	17	44	49	930	175.0	-132409.0	-10574.0	287311.0
29	17	44	49	931	176.0	-145245.0	-10518.0	270568.0
29	17	44	49	931	177.0	-158497.0	-10437.0	245253.0
29	17	44	49	932	178.0	-187357.0	-10411.0	267281.0
29	17	44	49	933	179.0	-208215.0	-10387.0	307301.0
29	17	44	49	933	180.0	-200741.0	-10357.0	322126.0
29	17	44	49	963	181.0	-205646.0	-10301.0	324369.0
29	17	44	49	964	182.0	-207552.0	-10199.0	322397.0
29	17	44	49	965	183.0	-210821.0	-10107.0	318288.0
29	17	44	49	966	184.0	-211136.0	-10049.0	317829.0
29	17	44	49	966	185.0	-207798.0	-9972.0	318319.0
29	17	44	49	967	186.0	-206797.0	-9884.0	319296.0
29	17	44	49	968	187.0	-212293.0	-9811.0	320164.0
29	17	44	49	968	188.0	-223167.0	-9729.0	320816.0
29	17	44	49	969	189.0	-240876.0	-9664.0	321183.0
29	17	44	49	970	190.0	-260544.0	-9576.0	321891.0
29	17	44	49	970	191.0	-275137.0	-9495.0	321650.0
29	17	44	49	971	192.0	-282904.0	-9423.0	321117.0
29	17	44	49	972	193.0	-285016.0	-9357.0	321302.0
29	17	44	49	973	194.0	-282408.0	-9289.0	321426.0
29	17	44	49	973	195.0	-275567.0	-9209.0	321699.0
29	17	44	49	974	197.0	-255841.0	-9070.0	323261.0
29	17	44	49	975	198.0	-244864.0	-8997.0	323442.0
29	17	44	49	975	199.0	-232397.0	-8903.0	324344.0
29	17	44	49	976	200.0	-219856.0	-8809.0	324909.0
29	17	44	49	976	201.0	-210103.0	-8698.0	324955.0
29	17	44	49	977	202.0	-203169.0	-8608.0	325181.0
29	17	44	49	978	203.0	-196737.0	-8537.0	325926.0
29	17	44	50	9	204.0	-189050.0	-8434.0	326156.0
29	17	44	50	10	205.0	-179478.0	-8322.0	325834.0
29	17	44	50	11	206.0	-170734.0	-8250.0	326415.0
29	17	44	50	12	207.0	-161066.0	-8176.0	327536.0
29	17	44	50	13	208.0	-151773.0	-8098.0	328409.0
29	17	44	50	14	209.0	-142648.0	-8014.0	328971.0
29	17	44	50	15	210.0	-131553.0	-7909.0	329664.0
29	17	44	50	16	211.0	-118999.0	-7821.0	330579.0
29	17	44	50	16	212.0	-106686.0	-7726.0	331144.0
29	17	44	50	17	213.0	-97127.0	-7656.0	330703.0
29	17	44	50	18	214.0	-89547.0	-7597.0	331634.0
29	17	44	50	18	215.0	-77691.0	-7507.0	333133.0
29	17	44	50	19	216.0	-65224.0	-7399.0	334136.0
29	17	44	50	20	217.0	-53692.0	-7289.0	335049.0
29	17	44	50	20	218.0	-44123.0	-7226.0	334158.0
29	17	44	50	21	220.0	-20464.0	-7027.0	333181.0
29	17	44	50	22	221.0	-6187.0	-6934.0	333914.0
29	17	44	50	22	222.0	8679.0	-6821.0	334203.0
29	17	44	50	23	223.0	22192.0	-6717.0	334791.0
29	17	44	50	23	224.0	31722.0	-6618.0	335086.0
29	17	44	50	24	225.0	36096.0	-6518.0	335914.0
29	17	44	50	55	226.0	35963.0	-6407.0	336027.0
29	17	44	50	56	227.0	34510.0	-6294.0	335626.0
29	17	44	50	56	228.0	36444.0	-6204.0	334441.0
29	17	44	50	57	229.0	36746.0	-6114.0	332696.0
29	17	44	50	58	230.0	33928.0	-6032.0	331441.0
29	17	44	50	59	231.0	25641.0	-5955.0	332953.0
29	17	44	50	59	232.0	16030.0	-5878.0	335080.0
29	17	44	50	60	233.0	13943.0	-5767.0	335983.0
29	17	44	50	61	234.0	17937.0	-5659.0	336683.0
29	17	44	50	62	235.0	25886.0	-5559.0	337224.0
29	17	44	50	62	236.0	25625.0	-5462.0	338039.0
29	17	44	50	63	237.0	889.0	-5379.0	339428.0
29	17	44	50	64	238.0	11628.0	-5273.0	340076.0
29	17	44	50	64	239.0	23789.0	-5186.0	339933.0
29	17	44	50	65	240.0	1099.0	-5102.0	338917.0
29	17	44	50	66	242.0	-48834.0	-4914.0	338566.0
29	17	44	50	66	243.0	-88022.0	-4816.0	344111.0
29	17	44	50	67	244.0	-122257.0	-4714.0	348637.0
29	17	44	50	67	245.0	-157967.0	-4610.0	351824.0
29	17	44	50	68	246.0	-195364.0	-4532.0	355258.0
29	17	44	50	69	247.0	-223358.0	-4471.0	357406.0
29	17	44	50	69	248.0	-250307.0	-4397.0	358249.0
29	17	44	50	99	249.0	-270514.0	-4307.0	360011.0
29	17	44	50	100	250.0	-290094.0	-4254.0	361277.0
29	17	44	50	101	251.0	-307298.0	-4184.0	363323.0
29	17	44	50	102	252.0	-316782.0	-4119.0	365313.0
29	17	44	50	102	253.0	-321771.0	-4049.0	366866.0
29	17	44	50	103	254.0	-333358.0	-3981.0	367853.0
29	17	44	50	104	255.0	-338025.0	-3954.0	366564.0
29	17	44	50	104	0.0	-336246.0	-3909.0	365216.0
29	17	44	50	105	1.0	-333152.0	-3846.0	364352.0
29	17	44	50	106	2.0	-327664.0	-3778.0	365674.0
29	17	44	50	107	3.0	-314921.0	-3692.0	369074.0
29	17	44	50	107	4.0	-303056.0	-3630.0	371607.0
29	17	44	50	108	5.0	-285397.0	-3564.0	373687.0
29	17	44	50	109	6.0	-268327.0	-3524.0	373466.0
29	17	44	50	109	7.0	-252571.0	-3462.0	375971.0
29	17	44	50	110	9.0	-215519.0	-3347.0	379139.0
29	17	44	50	110	10.0	-190994.0	-3298.0	377384.0
29	17	44	50	111	11.0	-174459.0	-3221.0	375214.0
29	17	44	50	112	12.0	-162171.0	-3135.0	376024.0
29	17	44	50	112	13.0	-145477.0	-3065.0	376211.0
29	17	44	50	113	14.0	-135247.0	-2986.0	375319.0
29	17	44	50	144	15.0	-133352.0	-2918.0	375624.0
29	17	44	50	145	16.0	-134174.0	-2861.0	376591.0
29	17	44	50	146	17.0	-138061.0	-2797.0	378983.0
29	17	44	50	146	18.0	-150146.0	-2734.0	382624.0
29	17	44	50	147	19.0	-144369.0	-2658.0	384931.0
29	17	44	50	189	20.0	-135996.0	-2594.0	387698.0
29	17	44	50	190	21.0	-131491.0	-2531.0	391388.0
29	17	44	50	191	22.0	-128359.0	-2442.0	394847.0
29	17	44	50	192	23.0	-130201.0	-2346.0	399102.0
29	17	44	50	193	24.0	-137476.0	-2264.0	400562.0
29	17	44	50	194	25.0	-143384.0	-2173.0	403235.0
29	17	44	50	194	26.0	-152030.0	-2096.0	406601.0
29	17	44	50	195	27.0	-165788.0	-2009.0	408021.0
29	17	44	50	196	28.0	-179557.0	-1928.0	408638.0
29	17	44	50	197	29.0	-195004.0	-1833.0	409958.0
29	17	44	50	197	31.0	-236044.0	-1654.0	413476.0
29	17	44	50	198	32.0	-261984.0	-1567.0	413777.0
29	17	44	50	199	33.0	-278127.0	-1482.0	414891.0
29	17	44	50	199	34.0	-303705.0	-1378.0	415029.0
29	17	44	50	200	35.0	-331260.0	-1297.0	416324.0
29	17	44	50	201	36.0	-350447.0	-1193.0	418151.0
29	17	44	50	201	54.0	-588682.0	216.0	436699.0
29	17	44	50	202	55.0	-576393.0	273.0	439941.0
29	17	44	50	202	56.0	-559232.0	330.0	445054.0
29	17	44	50	203	57.0	-540736.0	396.0	447699.0
29	17	44	50	204	58.0	-518590.0	464.0	445613.0
29	17	44	50	204	59.0	-494162.0	523.0	444726.0
29	17	44	50	233	60.0	-467994.0	614.0	444390.0
29	17	44	50	234	61.0	-439916.0	684.0	445038.0
29	17	44	50	235	62.0	-412506.0	732.0	449907.0
29	17	44	50	235	63.0	-386362.0	801.0	450241.0
29	17	44	50	236	64.0	-360876.0	862.0	447476.0
29	17	44	50	237	65.0	-337536.0	938.0	448623.0
29	17	44	50	238	66.0	-316121.0	994.0	450134.0
29	17	44	50	238	67.0	-295541.0	1064.0	451936.0
29	17	44	50	239	68.0	-276653.0	1100.0	459705.0
29	17	44	50	240	69.0	-262081.0	1124.0	474433.0
29	17	44	50	241	70.0	-250936.0	1198.0	471283.0
29	17	44	50	241	71.0	-243517.0	1296.0	451979.0
29	17	44	50	242	72.0	-239426.0	1389.0	441907.0
29	17	44	50	243	73.0	-236834.0	1448.0	437712.0
29	17	44	50	243	74.0	-236086.0	1509.0	438034.0
29	17	44	50	244	76.0	-236064.0	1587.0	442526.0
29	17	44	50	245	77.0	-236534.0	1637.0	437284.0
29	17	44	50	245	78.0	-236383.0	1702.0	431969.0
29	17	44	50	246	79.0	-236493.0	1777.0	430918.0
29	17	44	50	246	80.0	-235707.0	1864.0	428821.0
29	17	44	50	247	81.0	-234447.0	1934.0	421589.0
29	17	44	50	277	82.0	-232324.0	1998.0	421438.0
29	17	44	50	278	83.0	-228828.0	2051.0	427607.0
29	17	44	50	301	84.0	-224798.0	2098.0	432011.0
29	17	44	50	302	85.0	-221339.0	2156.0	436705.0
29	17	44	50	303	86.0	-218686.0	2223.0	440581.0
29	17	44	50	303	87.0	-216779.0	2251.0	460903.0
29	17	44	50	304	88.0	-216032.0	2259.0	528474.0
29	17	44	50	305	89.0	-216955.0	2288.0	625641.0
29	17	44	50	305	90.0	-220389.0	2306.0	736322.0
29	17	44	50	306	91.0	-227295.0	2349.0	861218.0
29	17	44	50	306	92.0	-237081.0	2391.0	989931.0
29	17	44	50	307	93.0	-248439.0	2444.0	1072074.0
29	17	44	50	308	94.0	-262155.0	2480.0	1085919.0
29	17	44	50	308	95.0	-277149.0	2534.0	1091095.0
29	17	44	50	309	96.0	-292177.0	2589.0	1096144.0
29	17	44	50	309	98.0	-322192.0	2737.0	1106096.0
29	17	44	50	310	99.0	-335244.0	2787.0	1110962.0
29	17	44	50	310	100.0	-347124.0	2847.0	1115781.0
29	17	44	50	311	101.0	-356701.0	2926.0	1120752.0
29	17	44	50	312	102.0	-363829.0	2986.0	1125637.0
29	17	44	50	312	103.0	-368102.0	3069.0	1130386.0
29	17	44	50	313	104.0	-369339.0	3107.0	1135236.0
29	17	44	50	325	105.0	-368318.0	3146.0	1140094.0
29	17	44	50	326	106.0	-364591.0	3222.0	1144884.0
29	17	44	50	327	107.0	-357992.0	3286.0	1149667.0
29	17	44	50	328	108.0	-348615.0	3334.0	1154452.0
29	17	44	50	329	109.0	-337217.0	3372.0	1159172.0
29	17	44	50	329	110.0	-323041.0	3424.0	1163829.0
29	17	44	50	330	111.0	-307211.0	3468.0	1168568.0
29	17	44	50	331	112.0	-290719.0	3515.0	1173210.0
29	17	44	50	332	113.0	-272894.0	3569.0	1177869.0
29	17	44	50	332	114.0	-254866.0	3639.0	1182526.0
29	17	44	50	333	115.0	-238196.0	3658.0	1187086.0
29	17	44	50	334	116.0	-223881.0	3714.0	1191729.0
29	17	44	50	334	117.0	-211659.0	3769.0	1196306.0
29	17	44	50	335	118.0	-202326.0	3811.0	1200858.0
29	17	44	50	336	119.0	-196358.0	3861.0	1205488.0
29	17	44	50	336	121.0	-199076.0	3996.0	1214569.0
29	17	44	50	337	122.0	-197797.0	4072.0	1219126.0
29	17	44	50	337	123.0	-200941.0	4137.0	1223698.0
29	17	44	50	338	124.0	-216774.0	4218.0	1228255.0
29	17	44	50	339	125.0	-237351.0	4300.0	1232701.0
29	17	44	50	339	126.0	-263585.0	4360.0	1237195.0
29	17	44	50	368	127.0	-294419.0	4430.0	1241758.0
29	17	44	50	369	128.0	-324286.0	4509.0	1246213.0
29	17	44	50	370	129.0	-349248.0	4569.0	1250642.0
29	17	44	50	371	130.0	-368603.0	4598.0	1255166.0
29	17	44	50	371	131.0	-386397.0	4645.0	1259539.0
29	17	44	50	372	132.0	-407372.0	4695.0	1263995.0
29	17	44	50	373	133.0	-431528.0	4739.0	1268421.0
29	17	44	50	373	134.0	-458218.0	4802.0	1272824.0
29	17	44	50	374	135.0	-485919.0	4829.0	1277263.0
29	17	44	50	374	136.0	-516230.0	4856.0	1281673.0
29	17	44	50	375	137.0	-554685.0	4927.0	1286054.0
29	17	44	50	376	138.0	-602735.0	4983.0	1290482.0
29	17	44	50	376	139.0	-655528.0	5036.0	1294858.0
29	17	44	50	377	140.0	-710709.0	5101.0	1299203.0
29	17	44	50	378	141.0	-767866.0	5135.0	1303614.0
29	17	44	50	378	143.0	-866081.0	5254.0	1312376.0
29	17	44	50	413	144.0	-895664.0	5293.0	1316789.0
29	17	44	50	414	145.0	-885289.0	5360.0	1321153.0
29	17	44	50	415	146.0	-824193.0	5428.0	1325594.0
29	17	44	50	416	147.0	-737642.0	5501.0	1329994.0
29	17	44	50	416	148.0	-642631.0	5558.0	1334439.0
29	17	44	50	417	149.0	-549386.0	5630.0	1338873.0
29	17	44	50	418	150.0	-461446.0	5702.0	1343304.0
29	17	44	50	419	151.0	-385277.0	5759.0	1347774.0
29	17	44	50	419	152.0	-326752.0	5788.0	1352380.0
29	17	44	50	420	153.0	-285469.0	5851.0	1357559.0
29	17	44	50	421	154.0	-254531.0	5896.0	1360312.0
29	17	44	50	421	155.0	-221530.0	5724.0	916721.0
29	17	44	50	422	156.0	-179905.0	5904.0	66232.0
29	17	44	50	423	157.0	-122907.0	5986.0	1669.0
29	17	44	50	423	158.0	-55070.0	5958.0	333178.0
29	17	44	50	424	166.0	411130.0	6486.0	373126.0
29	17	44	50	425	167.0	452137.0	6543.0	371275.0
29	17	44	50	425	168.0	476935.0	6612.0	370287.0
29	17	44	50	426	169.0	479591.0	6681.0	368686.0
29	17	44	50	426	170.0	461460.0	6729.0	367309.0
29	17	44	50	427	171.0	427882.0	6781.0	366885.0
29	17	44	50	459	172.0	382078.0	6843.0	366201.0
29	17	44	50	460	173.0	321727.0	6894.0	365815.0
29	17	44	50	461	174.0	257316.0	6943.0	365251.0
29	17	44	50	461	175.0	179616.0	6994.0	363572.0
29	17	44	50	462	176.0	112863.0	7023.0	360927.0
29	17	44	50	463	177.0	41901.0	7029.0	359448.0
29	17	44	50	464	178.0	-15698.0	7069.0	357644.0
29	17	44	50	464	179.0	-67744.0	7097.0	358146.0
29	17	44	50	465	180.0	-112197.0	7129.0	359276.0
29	17	44	50	466	181.0	-143036.0	7167.0	358673.0
29	17	44	50	466	182.0	-170140.0	7212.0	358599.0
29	17	44	50	467	183.0	-185617.0	7253.0	357842.0
29	17	44	50	468	184.0	-195093.0	7316.0	355199.0
29	17	44	50	469	185.0	-200162.0	7358.0	355385.0
29	17	44	50	470	186.0	-193657.0	7398.0	356699.0
29	17	44	50	471	188.0	-170677.0	7494.0	362676.0
29	17	44	50	472	189.0	-151748.0	7524.0	367350.0
29	17	44	50	472	190.0	-135020.0	7588.0	364233.0
29	17	44	50	473	191.0	-113831.0	7677.0	365888.0
29	17	44	50	474	192.0	-97697.0	7755.0	357963.0
29	17	44	50	474	193.0	-84334.0	7823.0	357633.0
29	17	44	50	475	194.0	-69723.0	7889.0	364269.0
29	17	44	50	505	195.0	-63317.0	7924.0	367443.0
29	17	44	50	506	196.0	-54967.0	7951.0	372631.0
29	17	44	50	506	197.0	-54107.0	7974.0	381099.0
29	17	44	50	507	198.0	-58557.0	8005.0	379893.0
29	17	44	50	507	199.0	-58888.0	8051.0	374328.0
29	17	44	50	508	200.0	-68935.0	8108.0	368633.0
29	17	44	50	509	201.0	-66942.0	8143.0	365176.0
29	17	44	50	509	202.0	-77361.0	8198.0	373065.0
29	17	44	50	510	203.0	-72016.0	8263.0	377206.0
29	17	44	50	510	204.0	-79578.0	8306.0	377111.0
29	17	44	50	511	205.0	-75706.0	8348.0	374676.0
29	17	44	50	511	206.0	-82285.0	8368.0	375102.0
29	17	44	50	512	207.0	-81031.0	8411.0	372298.0
29	17	44	50	512	208.0	-84946.0	8444.0	369537.0
29	17	44	50	513	209.0	-85684.0	8524.0	369183.0
29	17	44	50	513	211.0	-93320.0	8619.0	367286.0
29	17	44	50	514	212.0	-97326.0	8673.0	367863.0
29	17	44	50	514	213.0	-107614.0	8727.0	370323.0
29	17	44	50	515	214.0	-111867.0	8749.0	370537.0
29	17	44	50	516	215.0	-125304.0	8804.0	370070.0
29	17	44	50	516	216.0	-128830.0	8839.0	371091.0
29	17	44	50	549	217.0	-146017.0	8891.0	373434.0
29	17	44	50	549	218.0	-151146.0	8912.0	373906.0
29	17	44	50	550	219.0	-170787.0	8961.0	373203.0
29	17	44	50	550	220.0	-174402.0	9004.0	372947.0
29	17	44	50	551	221.0	-191851.0	9011.0	370776.0
29	17	44	50	552	222.0	-191483.0	9031.0	367479.0
29	17	44	50	552	223.0	-205070.0	9077.0	369318.0
29	17	44	50	593	224.0	-201482.0	9137.0	370274.0
29	17	44	50	638	225.0	-208673.0	9149.0	369733.0
29	17	44	50	640	226.0	-201183.0	9201.0	369620.0
29	17	44	50	640	227.0	-198709.0	9271.0	367392.0
29	17	44	50	641	228.0	-190403.0	9317.0	364773.0
29	17	44	50	641	229.0	-178506.0	9345.0	366968.0
29	17	44	50	642	230.0	-169376.0	9398.0	368309.0
29	17	44	50	643	231.0	-152387.0	9430.0	371128.0
29	17	44	50	643	233.0	-128586.0	9488.0	375469.0
29	17	44	50	644	234.0	-123127.0	9531.0	377774.0
29	17	44	50	644	235.0	-107764.0	9589.0	380782.0
29	17	44	50	645	236.0	-101912.0	9631.0	382656.0
29	17	44	50	645	237.0	-91717.0	9668.0	383181.0
29	17	44	50	646	238.0	-84048.0	9694.0	387490.0
29	17	44	50	684	239.0	-81573.0	9746.0	392761.0
29	17	44	50	685	240.0	-75308.0	9796.0	386220.0
29	17	44	50	685	0.0	-166761.0	10803.0	389865.0
29	17	44	50	686	22.0	-113552.0	12273.0	395004.0
29	17	44	50	686	23.0	-92019.0	12313.0	397101.0
29	17	44	50	687	24.0	-65786.0	12397.0	397615.0
29	17	44	50	688	25.0	-60004.0	12456.0	397266.0
29	17	44	50	688	26.0	-82490.0	12519.0	397914.0
29	17	44	50	689	27.0	-119499.0	12579.0	398595.0
29	17	44	50	690	28.0	-155803.0	12608.0	399334.0
29	17	44	50	690	29.0	-178258.0	12619.0	400314.0
29	17	44	50	691	30.0	-191070.0	12641.0	400811.0
29	17	44	50	692	31.0	-199230.0	12655.0	401091.0
29	17	44	50	692	32.0	-204477.0	12693.0	399741.0
29	17	44	50	693	33.0	-206262.0	12705.0	398865.0
29	17	44	50	693	34.0	-201214.0	12724.0	399302.0
29	17	44	50	694	45.0	-145924.0	12862.0	404584.0
29	17	44	50	695	46.0	-146499.0	12899.0	404501.0
29	17	44	50	695	47.0	-147042.0	12945.0	405467.0
29	17	44	50	696	48.0	-147853.0	12976.0	406068.0
29	17	44	50	696	49.0	-147152.0	13000.0	406836.0
29	17	44	50	697	50.0	-142862.0	13014.0	407650.0
29	17	44	50	728	51.0	-134647.0	13056.0	408242.0
29	17	44	50	728	52.0	-125242.0	13073.0	406409.0
29	17	44	50	729	53.0	-119927.0	13066.0	406665.0
29	17	44	50	730	54.0	-122077.0	13093.0	408231.0
29	17	44	50	730	55.0	-131906.0	13118.0	408935.0
29	17	44	50	731	56.0	-147759.0	13134.0	409328.0
29	17	44	50	731	57.0	-166922.0	13134.0	409816.0
29	17	44	50	732	58.0	-182902.0	13133.0	409109.0
29	17	44	50	733	59.0	-193996.0	13104.0	409349.0
29	17	44	50	733	60.0	-200198.0	13092.0	410661.0
29	17	44	50	734	61.0	-203911.0	13113.0	410126.0
29	17	44	50	735	62.0	-206100.0	13111.0	409699.0
29	17	44	50	735	63.0	-205837.0	13103.0	410032.0
29	17	44	50	736	64.0	-205991.0	13085.0	410336.0
29	17	44	50	737	65.0	-206426.0	13058.0	410656.0
29	17	44	50	737	67.0	-204124.0	13069.0	414671.0
29	17	44	50	738	68.0	-203652.0	13074.0	413128.0
29	17	44	50	747	69.0	-203482.0	13093.0	412898.0
29	17	44	50	747	70.0	-204021.0	13109.0	413066.0
29	17	44	50	748	71.0	-204903.0	13128.0	414581.0
29	17	44	50	748	72.0	-206151.0	13124.0	412751.0
29	17	44	50	773	73.0	-208031.0	13136.0	415064.0
29	17	44	50	774	74.0	-210886.0	13133.0	416643.0
29	17	44	50	775	75.0	-216079.0	13149.0	414206.0
29	17	44	50	775	76.0	-223819.0	13163.0	414194.0
29	17	44	50	776	77.0	-233724.0	13153.0	414077.0
29	17	44	50	776	78.0	-243791.0	13152.0	414848.0
29	17	44	50	777	79.0	-252452.0	13168.0	415503.0
29	17	44	50	778	80.0	-258656.0	13168.0	415573.0
29	17	44	50	778	81.0	-260799.0	13171.0	415169.0
29	17	44	50	779	82.0	-260374.0	13162.0	415141.0
29	17	44	50	780	83.0	-258757.0	13159.0	416157.0
29	17	44	50	780	84.0	-256299.0	13153.0	416831.0
29	17	44	50	781	85.0	-252528.0	13152.0	417000.0
29	17	44	50	782	86.0	-247689.0	13119.0	417077.0
29	17	44	50	782	87.0	-240927.0	13104.0	417453.0
29	17	44	50	783	89.0	-224054.0	13084.0	418034.0
29	17	44	50	783	90.0	-216604.0	13048.0	419635.0
29	17	44	50	784	91.0	-208786.0	13037.0	419285.0
29	17	44	50	785	92.0	-200249.0	13038.0	419161.0
29	17	44	50	785	93.0	-191692.0	13031.0	420467.0
29	17	44	50	786	94.0	-184054.0	13045.0	420741.0
29	17	44	50	787	95.0	-178021.0	13047.0	420833.0
29	17	44	50	819	96.0	-174087.0	13027.0	419954.0
29	17	44	50	864	97.0	-171416.0	12999.0	420006.0
29	17	44	50	865	98.0	-169367.0	12988.0	421408.0
29	17	44	50	866	99.0	-168382.0	12945.0	420596.0
29	17	44	50	866	100.0	-168169.0	12918.0	421772.0
29	17	44	50	867	101.0	-169024.0	12888.0	422148.0
29	17	44	50	867	102.0	-170231.0	12861.0	421296.0
29	17	44	50	868	103.0	-171501.0	12836.0	422083.0
29	17	44	50	869	104.0	-173854.0	12793.0	423234.0
29	17	44	50	869	105.0	-178683.0	12759.0	423591.0
29	17	44	50	870	106.0	-185482.0	12699.0	423211.0
29	17	44	50	870	107.0	-193539.0	12645.0	424637.0
29	17	44	50	871	108.0	-203335.0	12609.0	424888.0
29	17	44	50	872	109.0	-212922.0	12561.0	424939.0
29	17	44	50	872	110.0	-221827.0	12513.0	424515.0
29	17	44	50	873	112.0	-236796.0	12446.0	424365.0
29	17	44	50	873	134.0	-204984.0	11355.0	431253.0
29	17	44	50	874	135.0	-202649.0	11330.0	430261.0
29	17	44	50	875	136.0	-197537.0	11301.0	430793.0
29	17	44	50	875	137.0	-195505.0	11291.0	431021.0
29	17	44	50	876	138.0	-191827.0	11278.0	430926.0
29	17	44	50	876	139.0	-187805.0	11254.0	431058.0
29	17	44	50	877	140.0	-180687.0	11234.0	432103.0
29	17	44	50	909	141.0	-173609.0	11228.0	431689.0
29	17	44	50	910	142.0	-167979.0	11183.0	432442.0
29	17	44	50	911	143.0	-162121.0	11146.0	432181.0
29	17	44	50	911	144.0	-159028.0	11119.0	432167.0
29	17	44	50	912	145.0	-155137.0	11070.0	432454.0
29	17	44	50	913	146.0	-153432.0	11048.0	433241.0
29	17	44	50	913	147.0	-149722.0	10992.0	433644.0
29	17	44	50	914	148.0	-147157.0	10938.0	434422.0
29	17	44	50	915	149.0	-145511.0	10895.0	433958.0
29	17	44	50	915	150.0	-144429.0	10858.0	433814.0
29	17	44	50	916	151.0	-144003.0	10812.0	434197.0
29	17	44	50	917	152.0	-141943.0	10783.0	435186.0
29	17	44	50	917	153.0	-142022.0	10740.0	435242.0
29	17	44	50	918	154.0	-140074.0	10684.0	434818.0
29	17	44	50	918	155.0	-140376.0	10637.0	433671.0
29	17	44	50	919	157.0	-145971.0	10559.0	436715.0
29	17	44	50	920	158.0	-150990.0	10519.0	435561.0
29	17	44	50	920	159.0	-155156.0	10486.0	436584.0
29	17	44	50	921	160.0	-161421.0	10436.0	437544.0
29	17	44	50	921	161.0	-165807.0	10409.0	437441.0
29	17	44	50	922	162.0	-172099.0	10376.0	436415.0
29	17	44	50	959	163.0	-175783.0	10332.0	437303.0
29	17	44	50	960	164.0	-180042.0	10289.0	437748.0
29	17	44	50	961	165.0	-182969.0	10244.0	438832.0
29	17	44	50	961	166.0	-185956.0	10199.0	438536.0
29	17	44	50	962	167.0	-189351.0	10155.0	438884.0
29	17	44	50	962	168.0	-192044.0	10098.0	439853.0
29	17	44	50	963	169.0	-197549.0	10054.0	439789.0
29	17	44	50	964	170.0	-199359.0	10006.0	439504.0
29	17	44	50	964	171.0	-204050.0	9971.0	441430.0
29	17	44	50	965	172.0	-205227.0	9906.0	441529.0
29	17	44	50	965	173.0	-209959.0	9868.0	441598.0
29	17	44	50	966	174.0	-210841.0	9826.0	443583.0
29	17	44	50	966	175.0	-215869.0	9810.0	443425.0
29	17	44	50	967	176.0	-214971.0	9774.0	443131.0
29	17	44	50	968	177.0	-215979.0	9741.0	444706.0
29	17	44	50	968	179.0	-209313.0	9676.0	444418.0
29	17	44	50	969	180.0	-201496.0	9655.0	444191.0
29	17	44	50	969	181.0	-200791.0	9639.0	445033.0
29	17	44	50	970	182.0	-197774.0	9609.0	445633.0
29	17	44	50	970	183.0	-202891.0	9589.0	445341.0
29	17	44	50	971	184.0	-203564.0	9574.0	446160.0
29	17	44	50	998	185.0	-213321.0	9564.0	446449.0
29	17	44	50	999	186.0	-218379.0	9518.0	446417.0
29	17	44	51	0	187.0	-230760.0	9483.0	446728.0
29	17	44	51	1	188.0	-235779.0	9447.0	446358.0
29	17	44	51	1	189.0	-247271.0	9413.0	447378.0
29	17	44	51	2	190.0	-250564.0	9346.0	448374.0
29	17	44	51	3	191.0	-256162.0	9302.0	448323.0
29	17	44	51	3	192.0	-253839.0	9269.0	448403.0
29	17	44	51	4	193.0	-251421.0	9239.0	448490.0
29	17	44	51	5	194.0	-246888.0	9191.0	448760.0
29	17	44	51	5	195.0	-240011.0	9134.0	448876.0
29	17	44	51	6	196.0	-236997.0	9087.0	448977.0
29	17	44	51	6	197.0	-229175.0	9039.0	449189.0
29	17	44	51	7	198.0	-229026.0	8986.0	449563.0
29	17	44	51	8	199.0	-220426.0	8954.0	449767.0
29	17	44	51	8	201.0	-210828.0	8869.0	450634.0
29	17	44	51	9	202.0	-209336.0	8813.0	451031.0
29	17	44	51	10	203.0	-201622.0	8773.0	451581.0
29	17	44	51	10	204.0	-197224.0	8761.0	451883.0
29	17	44	51	11	205.0	-190732.0	8743.0	452572.0
29	17	44	51	11	206.0	-182998.0	8697.0	452426.0
29	17	44	51	12	207.0	-181023.0	8664.0	452806.0
29	17	44	51	43	208.0	-173979.0	8641.0	453180.0
29	17	44	51	61	209.0	-175084.0	8627.0	453565.0
29	17	44	51	62	210.0	-169576.0	8598.0	453626.0
29	17	44	51	63	211.0	-173839.0	8568.0	455308.0
29	17	44	51	63	212.0	-169486.0	8544.0	454610.0
29	17	44	51	64	213.0	-173541.0	8514.0	453763.0
29	17	44	51	65	214.0	-169068.0	8496.0	455189.0
29	17	44	51	65	215.0	-169377.0	8489.0	455204.0
29	17	44	51	66	216.0	-165368.0	8475.0	454821.0
29	17	44	51	66	217.0	-161701.0	8447.0	454967.0
29	17	44	51	67	218.0	-159284.0	8418.0	454916.0
29	17	44	51	68	219.0	-153601.0	8394.0	454849.0
29	17	44	51	68	220.0	-152792.0	8371.0	455119.0
29	17	44	51	69	221.0	-147004.0	8351.0	456089.0
29	17	44	51	88	222.0	-148659.0	8313.0	457075.0
29	17	44	51	89	224.0	-148010.0	8216.0	456648.0
29	17	44	51	89	225.0	-145216.0	8167.0	457746.0
29	17	44	51	90	226.0	-151829.0	8120.0	458748.0
29	17	44	51	91	227.0	-152786.0	8073.0	459586.0
29	17	44	51	91	228.0	-160421.0	8041.0	459703.0
29	17	44	51	92	229.0	-163266.0	8000.0	459115.0
29	17	44	51	93	230.0	-171239.0	7943.0	458748.0
29	17	44	51	93	231.0	-177601.0	7886.0	460751.0
29	17	44	51	133	232.0	-184592.0	7824.0	460496.0
29	17	44	51	134	233.0	-193581.0	7773.0	459241.0
29	17	44	51	135	234.0	-198870.0	7710.0	459076.0
29	17	44	51	135	235.0	-208704.0	7653.0	459715.0
29	17	44	51	136	236.0	-211430.0	7603.0	459889.0
29	17	44	51	137	237.0	-219573.0	7540.0	459688.0
29	17	44	51	137	246.0	-203139.0	7103.0	448784.0
29	17	44	51	138	247.0	-206494.0	7075.0	446548.0
29	17	44	51	139	248.0	-201464.0	7051.0	443663.0
29	17	44	51	147	249.0	-205787.0	7032.0	443445.0
29	17	44	51	148	250.0	-201777.0	7024.0	444718.0
29	17	44	51	149	251.0	-205079.0	7010.0	446019.0
29	17	44	51	149	252.0	-200287.0	6979.0	451465.0
29	17	44	51	150	253.0	-203626.0	6960.0	455926.0
29	17	44	51	150	254.0	-198202.0	6944.0	456028.0
29	17	44	51	151	13.0	-154673.0	6655.0	491916.0
29	17	44	51	151	14.0	-160492.0	6636.0	491893.0
29	17	44	51	152	15.0	-169518.0	6623.0	491646.0
29	17	44	51	153	16.0	-178967.0	6609.0	489953.0
29	17	44	51	153	17.0	-187482.0	6608.0	486373.0
29	17	44	51	154	18.0	-186824.0	6609.0	483587.0
29	17	44	51	177	19.0	-174389.0	6607.0	481836.0
29	17	44	51	271	20.0	-159287.0	6594.0	478563.0
29	17	44	51	272	21.0	-144749.0	6606.0	476608.0
29	17	44	51	273	22.0	-140736.0	6597.0	476154.0
29	17	44	51	275	23.0	-142283.0	6588.0	476706.0
29	17	44	51	276	24.0	-156409.0	6589.0	476191.0
29	17	44	51	277	25.0	-171617.0	6581.0	475866.0
29	17	44	51	277	26.0	-193054.0	6576.0	476023.0
29	17	44	51	278	27.0	-213434.0	6536.0	476505.0
29	17	44	51	279	28.0	-243122.0	6536.0	475697.0
29	17	44	51	279	29.0	-266669.0	6541.0	475501.0
29	17	44	51	280	30.0	-290986.0	6514.0	475888.0
29	17	44	51	280	31.0	-303296.0	6482.0	475981.0
29	17	44	51	281	32.0	-312726.0	6459.0	475705.0
29	17	44	51	282	33.0	-307831.0	6411.0	475919.0
29	17	44	51	282	35.0	-283461.0	6353.0	475905.0
29	17	44	51	283	80.0	-212084.0	6879.0	485147.0
29	17	44	51	283	81.0	-214109.0	6955.0	485241.0
29	17	44	51	284	82.0	-224569.0	7021.0	485472.0
29	17	44	51	284	83.0	-226394.0	7104.0	485788.0
29	17	44	51	285	84.0	-236186.0	7204.0	485696.0
29	17	44	51	285	85.0	-236589.0	7273.0	484940.0
29	17	44	51	313	86.0	-244230.0	7349.0	486279.0
29	17	44	51	314	87.0	-243734.0	7423.0	485916.0
29	17	44	51	315	88.0	-247692.0	7482.0	486455.0
29	17	44	51	316	89.0	-246491.0	7535.0	487015.0
29	17	44	51	316	90.0	-246024.0	7591.0	487011.0
29	17	44	51	317	91.0	-243337.0	7644.0	486856.0
29	17	44	51	318	92.0	-237041.0	7686.0	487224.0
29	17	44	51	318	93.0	-232374.0	7750.0	487819.0
29	17	44	51	319	94.0	-223085.0	7786.0	486850.0
29	17	44	51	320	95.0	-219260.0	7849.0	486661.0
29	17	44	51	320	96.0	-207483.0	7911.0	489163.0
29	17	44	51	321	97.0	-202431.0	7964.0	488159.0
29	17	44	51	322	98.0	-189164.0	8017.0	487826.0
29	17	44	51	322	99.0	-184904.0	8059.0	489042.0
29	17	44	51	323	100.0	-172299.0	8109.0	488591.0
29	17	44	51	323	103.0	-153019.0	8297.0	489110.0
29	17	44	51	324	104.0	-143459.0	8368.0	489432.0
29	17	44	51	325	105.0	-144012.0	8449.0	489803.0
29	17	44	51	358	106.0	-137164.0	8543.0	490094.0
29	17	44	51	359	107.0	-140494.0	8596.0	489850.0
29	17	44	51	359	108.0	-135911.0	8683.0	490284.0
29	17	44	51	360	109.0	-139872.0	8778.0	490813.0
29	17	44	51	361	110.0	-135937.0	8867.0	490944.0
29	17	44	51	361	111.0	-141942.0	8923.0	491654.0
29	17	44	51	362	112.0	-140317.0	9011.0	491863.0
29	17	44	51	363	113.0	-149371.0	9101.0	491884.0
29	17	44	51	363	114.0	-150693.0	9191.0	492165.0
29	17	44	51	364	115.0	-161769.0	9265.0	492285.0
29	17	44	51	365	116.0	-163740.0	9374.0	492661.0
29	17	44	51	365	117.0	-175136.0	9491.0	492688.0
29	17	44	51	366	118.0	-177080.0	9581.0	494313.0
29	17	44	51	366	119.0	-190227.0	9688.0	494223.0
29	17	44	51	367	120.0	-193681.0	9801.0	494156.0
29	17	44	51	368	125.0	-238217.0	10330.0	496555.0
29	17	44	51	368	126.0	-235804.0	10428.0	496006.0
29	17	44	51	369	127.0	-242270.0	10563.0	496201.0
29	17	44	51	370	128.0	-238229.0	10686.0	497704.0
29	17	44	51	370	129.0	-241832.0	10803.0	498170.0
29	17	44	51	371	130.0	-238767.0	10925.0	498126.0
29	17	44	51	404	131.0	-241306.0	11053.0	497843.0
29	17	44	51	404	132.0	-238939.0	11180.0	498381.0
29	17	44	51	405	133.0	-238435.0	11288.0	497653.0
29	17	44	51	406	134.0	-235869.0	11387.0	498992.0
29	17	44	51	406	135.0	-231187.0	11497.0	499032.0
29	17	44	51	407	136.0	-228897.0	11633.0	498193.0
29	17	44	51	408	137.0	-220167.0	11749.0	498883.0
29	17	44	51	448	138.0	-218598.0	11851.0	499280.0
29	17	44	51	449	139.0	-206808.0	11960.0	498519.0
29	17	44	51	450	140.0	-206646.0	12062.0	498933.0
29	17	44	51	451	141.0	-193157.0	12148.0	499522.0
29	17	44	51	451	142.0	-192511.0	12258.0	499087.0
29	17	44	51	452	143.0	-178646.0	12354.0	498612.0
29	17	44	51	453	144.0	-177386.0	12442.0	499966.0
29	17	44	51	493	145.0	-166473.0	12545.0	500899.0
29	17	44	51	494	147.0	-156554.0	12783.0	500634.0
29	17	44	51	495	148.0	-151066.0	12912.0	501418.0
29	17	44	51	496	149.0	-151584.0	13047.0	501270.0
29	17	44	51	496	150.0	-144593.0	13195.0	501329.0
29	17	44	51	497	151.0	-151104.0	13326.0	500552.0
29	17	44	51	498	152.0	-145467.0	13431.0	501287.0
29	17	44	51	499	153.0	-156352.0	13550.0	501303.0
29	17	44	51	499	170.0	-128492.0	15669.0	502964.0
29	17	44	51	500	171.0	-133517.0	15785.0	503346.0
29	17	44	51	501	172.0	-162665.0	15914.0	504759.0
29	17	44	51	501	173.0	-186632.0	16049.0	504603.0
29	17	44	51	502	174.0	-217232.0	16151.0	504893.0
29	17	44	51	503	175.0	-225828.0	16254.0	504898.0
29	17	44	51	503	176.0	-223496.0	16349.0	506061.0
29	17	44	51	504	177.0	-228834.0	16434.0	506163.0
29	17	44	51	505	193.0	-202020.0	17938.0	510405.0
29	17	44	51	505	194.0	-207495.0	18037.0	511403.0
29	17	44	51	506	195.0	-217048.0	18124.0	511577.0
29	17	44	51	507	196.0	-235086.0	18201.0	511549.0
29	17	44	51	507	197.0	-243194.0	18283.0	512003.0
29	17	44	51	508	198.0	-253612.0	18368.0	513100.0
29	17	44	51	539	199.0	-260032.0	18471.0	513552.0
29	17	44	51	540	200.0	-250902.0	18568.0	515243.0
29	17	44	51	540	201.0	-244686.0	18646.0	516426.0
29	17	44	51	541	202.0	-231689.0	18699.0	517855.0
29	17	44	51	584	203.0	-211779.0	18768.0	517436.0
29	17	44	51	585	204.0	-201876.0	18838.0	517714.0
29	17	44	51	585	205.0	-187766.0	18899.0	518924.0
29	17	44	51	586	206.0	-170642.0	18993.0	519079.0
29	17	44	51	587	207.0	-169542.0	19056.0	519282.0
29	17	44	51	587	208.0	-172006.0	19095.0	519338.0
29	17	44	51	588	209.0	-179077.0	19145.0	519534.0
29	17	44	51	589	210.0	-189446.0	19169.0	520068.0
29	17	44	51	589	211.0	-191554.0	19211.0	520206.0
29	17	44	51	590	212.0	-201226.0	19258.0	519887.0
29	17	44	51	591	213.0	-205809.0	19274.0	519673.0
29	17	44	51	592	215.0	-218112.0	19308.0	518383.0
29	17	44	51	592	216.0	-220175.0	19329.0	519305.0
29	17	44	51	593	217.0	-223678.0	19347.0	519014.0
29	17	44	51	594	218.0	-231604.0	19353.0	517526.0
29	17	44	51	594	237.0	-198698.0	18901.0	517662.0
29	17	44	51	595	238.0	-205246.0	18859.0	517633.0
29	17	44	51	595	239.0	-200414.0	18818.0	518546.0
29	17	44	51	596	240.0	-202470.0	18807.0	519118.0
29	17	44	51	597	241.0	-200898.0	18793.0	519719.0
29	17	44	51	597	242.0	-194986.0	18779.0	519203.0
29	17	44	51	598	243.0	-196466.0	18766.0	519187.0
29	17	44	51	629	244.0	-186959.0	18779.0	520403.0
29	17	44	51	630	245.0	-188533.0	18769.0	520218.0
29	17	44	51	631	246.0	-180324.0	18753.0	519853.0
29	17	44	51	632	247.0	-177911.0	18736.0	520461.0
29	17	44	51	632	248.0	-173877.0	18723.0	520927.0
29	17	44	51	633	249.0	-166783.0	18731.0	520339.0
29	17	44	51	634	250.0	-168636.0	18733.0	520646.0
29	17	44	51	635	251.0	-163194.0	18753.0	521648.0
29	17	44	51	635	252.0	-172852.0	18753.0	521736.0
29	17	44	51	636	253.0	-170953.0	18759.0	521335.0
29	17	44	51	637	254.0	-176941.0	18764.0	521973.0
29	17	44	51	637	255.0	-179767.0	18766.0	522265.0
29	17	44	51	638	0.0	-183439.0	18779.0	521852.0
29	17	44	51	639	1.0	-190103.0	18794.0	521809.0
29	17	44	51	639	2.0	-190470.0	18835.0	522176.0
29	17	44	51	640	4.0	-199196.0	18898.0	522933.0
29	17	44	51	640	5.0	-207528.0	18929.0	522588.0
29	17	44	51	641	6.0	-207131.0	18947.0	523435.0
29	17	44	51	642	7.0	-212229.0	18990.0	523225.0
29	17	44	51	642	8.0	-214034.0	19024.0	523624.0
29	17	44	51	643	9.0	-214881.0	19079.0	524226.0
29	17	44	51	673	10.0	-220281.0	19155.0	523893.0
29	17	44	51	674	11.0	-218366.0	19227.0	523404.0
29	17	44	51	675	12.0	-224919.0	19286.0	524436.0
29	17	44	51	675	13.0	-224246.0	19325.0	523879.0
29	17	44	51	676	14.0	-230680.0	19369.0	523733.0
29	17	44	51	677	15.0	-233094.0	19425.0	524137.0
29	17	44	51	678	16.0	-234906.0	19481.0	524321.0
29	17	44	51	678	17.0	-239127.0	19539.0	524020.0
29	17	44	51	679	18.0	-238387.0	19591.0	524394.0
29	17	44	51	680	19.0	-240430.0	19617.0	524669.0
29	17	44	51	680	20.0	-235460.0	19699.0	524105.0
29	17	44	51	681	21.0	-231204.0	19743.0	524433.0
29	17	44	51	682	22.0	-225049.0	19809.0	524868.0
29	17	44	51	682	23.0	-216860.0	19851.0	525094.0
29	17	44	51	683	24.0	-209228.0	19921.0	525630.0
29	17	44	51	684	26.0	-193214.0	20036.0	526816.0
29	17	44	51	684	27.0	-185843.0	20114.0	526877.0
29	17	44	51	685	28.0	-180818.0	20195.0	526773.0
29	17	44	51	686	29.0	-178142.0	20260.0	527479.0
29	17	44	51	686	30.0	-175942.0	20352.0	527570.0
29	17	44	51	687	31.0	-176872.0	20451.0	526764.0
29	17	44	51	719	32.0	-179876.0	20539.0	527744.0
29	17	44	51	720	33.0	-186142.0	20642.0	527771.0
29	17	44	51	721	34.0	-192709.0	20713.0	528069.0
29	17	44	51	722	35.0	-198845.0	20800.0	527696.0
29	17	44	51	722	36.0	-204079.0	20874.0	527129.0
29	17	44	51	723	37.0	-206453.0	20971.0	527891.0
29	17	44	51	724	38.0	-207951.0	21070.0	527761.0
29	17	44	51	725	39.0	-209189.0	21149.0	528137.0
29	17	44	51	725	40.0	-208267.0	21241.0	528550.0
29	17	44	51	726	41.0	-208944.0	21345.0	529213.0
29	17	44	51	727	42.0	-227768.0	21438.0	529266.0
29	17	44	51	727	43.0	-262785.0	21526.0	528844.0
29	17	44	51	728	44.0	-245364.0	21628.0	529063.0
29	17	44	51	728	45.0	-228905.0	21774.0	529514.0
29	17	44	51	729	46.0	-207173.0	21904.0	529725.0
29	17	44	51	730	48.0	-164568.0	22171.0	530134.0
29	17	44	51	730	49.0	-147442.0	22306.0	530234.0
29	17	44	51	731	50.0	-134662.0	22484.0	529779.0
29	17	44	51	732	51.0	-126545.0	22646.0	529434.0
29	17	44	51	732	52.0	-121384.0	22803.0	529308.0
29	17	44	51	733	53.0	-118278.0	23001.0	529954.0
29	17	44	51	733	54.0	-117277.0	23184.0	530699.0
29	17	44	51	763	55.0	-119593.0	23369.0	530588.0
29	17	44	51	764	56.0	-125576.0	23553.0	530751.0
29	17	44	51	765	57.0	-134293.0	23739.0	530389.0
29	17	44	51	766	58.0	-143907.0	23926.0	530092.0
29	17	44	51	767	59.0	-154082.0	24101.0	530360.0
29	17	44	51	767	60.0	-164377.0	24267.0	530908.0
29	17	44	51	768	61.0	-173678.0	24447.0	530333.0
29	17	44	51	769	62.0	-183049.0	24626.0	530247.0
29	17	44	51	770	63.0	-193352.0	24808.0	530709.0
29	17	44	51	771	64.0	-204958.0	24982.0	530098.0
29	17	44	51	771	65.0	-217025.0	25181.0	530124.0
29	17	44	51	772	66.0	-227961.0	25394.0	530999.0
29	17	44	51	773	67.0	-236534.0	25596.0	530692.0
29	17	44	51	773	68.0	-241409.0	25775.0	530007.0
29	17	44	51	774	69.0	-243844.0	25944.0	530918.0
29	17	44	51	775	71.0	-242253.0	26384.0	531211.0
29	17	44	51	775	72.0	-240756.0	26593.0	531427.0
29	17	44	51	776	73.0	-239962.0	26808.0	531876.0
29	17	44	51	777	74.0	-239555.0	27013.0	532393.0
29	17	44	51	777	75.0	-239016.0	27237.0	532689.0
29	17	44	51	778	76.0	-238629.0	27473.0	533491.0
29	17	44	51	809	77.0	-238659.0	27733.0	534209.0
29	17	44	51	809	78.0	-239210.0	27976.0	533511.0
29	17	44	51	810	79.0	-240141.0	28203.0	533575.0
29	17	44	51	811	80.0	-241281.0	28426.0	533469.0
29	17	44	51	812	81.0	-241975.0	28666.0	533921.0
29	17	44	51	812	82.0	-241459.0	28915.0	533696.0
29	17	44	51	813	83.0	-238891.0	29184.0	532558.0
29	17	44	51	814	84.0	-233695.0	29439.0	531884.0
29	17	44	51	815	85.0	-226439.0	29696.0	531938.0
29	17	44	51	815	86.0	-218053.0	29949.0	532583.0
29	17	44	51	816	87.0	-208984.0	30207.0	532619.0
29	17	44	51	817	88.0	-200651.0	30451.0	532820.0
29	17	44	51	854	89.0	-193314.0	30718.0	533181.0
29	17	44	51	855	90.0	-185864.0	31002.0	533332.0
29	17	44	51	855	91.0	-179251.0	31270.0	533157.0
29	17	44	51	857	93.0	-167256.0	31825.0	534506.0
29	17	44	51	858	94.0	-162599.0	32118.0	534237.0
29	17	44	51	859	95.0	-158606.0	32436.0	534336.0
29	17	44	51	860	96.0	-156334.0	32744.0	534974.0
29	17	44	51	861	97.0	-155286.0	33045.0	533921.0
29	17	44	51	861	98.0	-154595.0	33373.0	534168.0
29	17	44	51	862	99.0	-154669.0	33668.0	534192.0
29	17	44	51	863	100.0	-156069.0	33981.0	533307.0
29	17	44	51	863	101.0	-159161.0	34316.0	533668.0
29	17	44	51	864	102.0	-162946.0	34657.0	533639.0
29	17	44	51	865	103.0	-166764.0	34978.0	533916.0
29	17	44	51	865	104.0	-169761.0	35310.0	534201.0
29	17	44	51	866	116.0	-141437.0	39713.0	536804.0
29	17	44	51	867	117.0	-146798.0	40101.0	537009.0
29	17	44	51	867	118.0	-153781.0	40537.0	536309.0
29	17	44	51	868	119.0	-162938.0	40994.0	536516.0
29	17	44	51	868	120.0	-173326.0	41439.0	537790.0
29	17	44	51	869	121.0	-184286.0	41881.0	538197.0
29	17	44	51	899	122.0	-195612.0	42371.0	537213.0
29	17	44	51	900	123.0	-205922.0	42899.0	537866.0
29	17	44	51	900	124.0	-216071.0	43437.0	539079.0
29	17	44	51	901	125.0	-225059.0	44033.0	538696.0
29	17	44	51	902	126.0	-232349.0	44653.0	538499.0
29	17	44	51	902	127.0	-238218.0	45304.0	539365.0
29	17	44	51	903	128.0	-243177.0	45972.0	538510.0
29	17	44	51	903	129.0	-247380.0	46678.0	538738.0
29	17	44	51	904	130.0	-249527.0	47437.0	539628.0
29	17	44	51	904	131.0	-249116.0	48216.0	539294.0
29	17	44	51	905	132.0	-247435.0	49008.0	538505.0
29	17	44	51	905	133.0	-243648.0	49832.0	539255.0
29	17	44	51	906	134.0	-238457.0	50714.0	539341.0
29	17	44	51	906	135.0	-232891.0	51616.0	538706.0
29	17	44	51	907	136.0	-227176.0	52516.0	539035.0
29	17	44	51	908	138.0	-212697.0	54426.0	539011.0
29	17	44	51	908	139.0	-204331.0	55441.0	538314.0
29	17	44	51	909	140.0	-194771.0	56513.0	538917.0
29	17	44	51	909	141.0	-184848.0	57611.0	537403.0
29	17	44	51	910	142.0	-174091.0	58768.0	537348.0
29	17	44	51	910	143.0	-164230.0	59948.0	537098.0
29	17	44	51	911	144.0	-155707.0	61201.0	535597.0
29	17	44	51	944	145.0	-148444.0	62521.0	534990.0
29	17	44	51	944	146.0	-143285.0	63912.0	533616.0
29	17	44	51	945	147.0	-140246.0	65376.0	531820.0
29	17	44	51	946	148.0	-138899.0	66909.0	530511.0
29	17	44	51	946	149.0	-140122.0	68558.0	529304.0
29	17	44	51	947	150.0	-142005.0	70316.0	528183.0
29	17	44	51	947	151.0	-144254.0	72208.0	526167.0
29	17	44	51	948	152.0	-147461.0	74263.0	524091.0
29	17	44	51	948	153.0	-151672.0	76505.0	521951.0
29	17	44	51	949	154.0	-157797.0	78969.0	520165.0
29	17	44	51	950	155.0	-162085.0	81705.0	520284.0
29	17	44	51	989	156.0	-162231.0	84714.0	520756.0
29	17	44	52	4	157.0	-157326.0	88012.0	523841.0
29	17	44	52	4	158.0	-152951.0	91514.0	528357.0
29	17	44	52	5	159.0	-152130.0	95176.0	529639.0
29	17	44	52	6	161.0	-170644.0	102989.0	533141.0
29	17	44	52	6	162.0	-192337.0	107128.0	538218.0
29	17	44	52	7	163.0	-223151.0	111384.0	545670.0
29	17	44	52	7	164.0	-222131.0	115868.0	550004.0
29	17	44	52	8	165.0	-212619.0	120615.0	554481.0
29	17	44	52	8	166.0	-200001.0	125590.0	557044.0
29	17	44	52	9	167.0	-187042.0	130734.0	558491.0
29	17	44	52	10	168.0	-177921.0	135989.0	560864.0
29	17	44	52	10	169.0	-170780.0	141285.0	562474.0
29	17	44	52	11	170.0	-167272.0	146590.0	563095.0
29	17	44	52	11	171.0	-168234.0	151836.0	563336.0
29	17	44	52	12	172.0	-173764.0	157020.0	563350.0
29	17	44	52	12	183.0	-233733.0	207006.0	546743.0
29	17	44	52	13	184.0	-220069.0	210905.0	545557.0
29	17	44	52	13	185.0	-209384.0	214751.0	545213.0
29	17	44	52	14	186.0	-201769.0	218471.0	544274.0
29	17	44	52	14	187.0	-195803.0	222108.0	544506.0
29	17	44	52	15	188.0	-193889.0	225684.0	544164.0
29	17	44	52	16	189.0	-199584.0	229174.0	543241.0
29	17	44	52	33	190.0	-213492.0	232569.0	543128.0
29	17	44	52	78	191.0	-233349.0	235896.0	543571.0
29	17	44	52	79	192.0	-254038.0	239158.0	543522.0
29	17	44	52	79	193.0	-273569.0	242320.0	543432.0
29	17	44	52	80	194.0	-288747.0	245393.0	543786.0
29	17	44	52	81	195.0	-293575.0	248386.0	543638.0
29	17	44	52	81	196.0	-289571.0	251312.0	542807.0
29	17	44	52	82	197.0	-281435.0	254156.0	542639.0
29	17	44	52	83	198.0	-262644.0	256901.0	543148.0
29	17	44	52	83	199.0	-211985.0	259571.0	543179.0
29	17	44	52	84	200.0	-155199.0	262158.0	542075.0
29	17	44	52	85	201.0	-112096.0	264635.0	541647.0
29	17	44	52	85	202.0	-86342.0	267018.0	540861.0
29	17	44	52	86	203.0	-70820.0	269324.0	541563.0
29	17	44	52	86	204.0	-61185.0	271524.0	541337.0
29	17	44	52	87	206.0	-82586.0	275667.0	540769.0
29	17	44	52	87	228.0	-212834.0	299249.0	541225.0
29	17	44	52	88	229.0	-203774.0	299818.0	541230.0
29	17	44	52	89	230.0	-194077.0	300364.0	540857.0
29	17	44	52	89	231.0	-183386.0	300878.0	541293.0
29	17	44	52	90	232.0	-172727.0	301378.0	541987.0
29	17	44	52	90	233.0	-162256.0	301830.0	541222.0
29	17	44	52	91	234.0	-151589.0	302260.0	541358.0
29	17	44	52	123	235.0	-142170.0	302673.0	541043.0
29	17	44	52	124	236.0	-135116.0	303076.0	541224.0
29	17	44	52	125	237.0	-128985.0	303425.0	541013.0
29	17	44	52	125	238.0	-124002.0	303744.0	540165.0
29	17	44	52	126	239.0	-120492.0	304052.0	539746.0
29	17	44	52	126	240.0	-118069.0	304344.0	540185.0
29	17	44	52	127	241.0	-115517.0	304598.0	539076.0
29	17	44	52	128	242.0	-114263.0	304832.0	539642.0
29	17	44	52	128	243.0	-114206.0	305061.0	540313.0
29	17	44	52	129	244.0	-115702.0	305266.0	540114.0
29	17	44	52	130	245.0	-119618.0	305448.0	540454.0
29	17	44	52	130	246.0	-125873.0	305614.0	540299.0
29	17	44	52	131	247.0	-132132.0	305758.0	539819.0
29	17	44	52	131	248.0	-138446.0	305899.0	539503.0
29	17	44	52	132	249.0	-146661.0	306008.0	539697.0
29	17	44	52	132	250.0	-157264.0	306088.0	539761.0
29	17	44	52	133	251.0	-168009.0	306164.0	538933.0
29	17	44	52	134	252.0	-177226.0	306215.0	538955.0
29	17	44	52	134	253.0	-186528.0	306248.0	538447.0
29	17	44	52	135	254.0	-195796.0	306282.0	538276.0
29	17	44	52	135	255.0	-204830.0	306281.0	538139.0
29	17	44	52	136	0.0	-214207.0	306263.0	538384.0
29	17	44	52	168	1.0	-224257.0	306242.0	538332.0
29	17	44	52	169	2.0	-234124.0	306195.0	538488.0
29	17	44	52	170	3.0	-242680.0	306125.0	538201.0
29	17	44	52	170	4.0	-248809.0	306042.0	538239.0
29	17	44	52	171	5.0	-252202.0	305936.0	538929.0
29	17	44	52	172	6.0	-249554.0	305819.0	537838.0
29	17	44	52	172	7.0	-245011.0	305681.0	538146.0
29	17	44	52	173	8.0	-246862.0	305505.0	538498.0
29	17	44	52	173	9.0	-241977.0	305291.0	537806.0
29	17	44	52	174	10.0	-231446.0	305014.0	536521.0
29	17	44	52	174	11.0	-216595.0	304711.0	536479.0
29	17	44	52	175	12.0	-203641.0	304354.0	537193.0
29	17	44	52	176	13.0	-192171.0	303933.0	537638.0
29	17	44	52	176	14.0	-183884.0	303468.0	537656.0
29	17	44	52	177	15.0	-179391.0	302923.0	537579.0
29	17	44	52	177	17.0	-173728.0	301594.0	537030.0
29	17	44	52	178	18.0	-172742.0	300899.0	537931.0
29	17	44	52	178	19.0	-174052.0	300135.0	537691.0
29	17	44	52	187	20.0	-173810.0	299358.0	537302.0
29	17	44	52	188	21.0	-172731.0	298564.0	538066.0
29	17	44	52	188	22.0	-170094.0	297783.0	538979.0
29	17	44	52	213	23.0	-165211.0	296998.0	538468.0
29	17	44	52	214	24.0	-159324.0	296208.0	537546.0
29	17	44	52	214	25.0	-154611.0	295420.0	537111.0
29	17	44	52	215	26.0	-151251.0	294626.0	537594.0
29	17	44	52	216	27.0	-148284.0	293856.0	539066.0
29	17	44	52	258	28.0	-146096.0	293103.0	538516.0
29	17	44	52	259	29.0	-144692.0	292341.0	538142.0
29	17	44	52	260	30.0	-143135.0	291569.0	537891.0
29	17	44	52	261	31.0	-141982.0	290813.0	539041.0
29	17	44	52	261	32.0	-140876.0	290080.0	539615.0
29	17	44	52	262	33.0	-140607.0	289359.0	539450.0
29	17	44	52	262	34.0	-140555.0	288648.0	540325.0
29	17	44	52	263	35.0	-139937.0	287933.0	541299.0
29	17	44	52	264	36.0	-140857.0	287250.0	541101.0
29	17	44	52	264	37.0	-141567.0	286575.0	541512.0
29	17	44	52	265	39.0	-144184.0	285206.0	542751.0
29	17	44	52	265	40.0	-147267.0	284543.0	543289.0
29	17	44	52	266	41.0	-150934.0	283893.0	543876.0
29	17	44	52	267	42.0	-155764.0	283231.0	543729.0
29	17	44	52	268	43.0	-161403.0	282590.0	544241.0
29	17	44	52	268	62.0	-285035.0	270919.0	549746.0
29	17	44	52	269	63.0	-279838.0	270296.0	549802.0
29	17	44	52	270	64.0	-270642.0	269663.0	550390.0
29	17	44	52	303	65.0	-261425.0	269048.0	550383.0
29	17	44	52	304	66.0	-250298.0	268419.0	550819.0
29	17	44	52	305	67.0	-225997.0	267781.0	551069.0
29	17	44	52	305	68.0	-202907.0	267092.0	551478.0
29	17	44	52	306	69.0	-195006.0	266382.0	551248.0
29	17	44	52	307	70.0	-191911.0	265612.0	550553.0
29	17	44	52	307	71.0	-188350.0	264794.0	550876.0
29	17	44	52	308	72.0	-182411.0	263929.0	552086.0
29	17	44	52	309	73.0	-166847.0	263048.0	551798.0
29	17	44	52	309	74.0	-142415.0	262164.0	551261.0
29	17	44	52	310	75.0	-132032.0	261298.0	552534.0
29	17	44	52	310	76.0	-142011.0	260384.0	552168.0
29	17	44	52	311	77.0	-169999.0	259520.0	551383.0
29	17	44	52	311	78.0	-201979.0	258671.0	551760.0
29	17	44	52	312	79.0	-221876.0	257818.0	552746.0
29	17	44	52	313	80.0	-235154.0	257000.0	553646.0
29	17	44	52	313	85.0	-264410.0	252924.0	554595.0
29	17	44	52	314	86.0	-252294.0	252118.0	555116.0
29	17	44	52	314	87.0	-235863.0	251349.0	554295.0
29	17	44	52	315	88.0	-217566.0	250586.0	554451.0
29	17	44	52	316	89.0	-200467.0	249818.0	555615.0
29	17	44	52	316	90.0	-184002.0	249059.0	554405.0
29	17	44	52	348	91.0	-166913.0	248314.0	554197.0
29	17	44	52	349	92.0	-150807.0	247560.0	554304.0
29	17	44	52	349	93.0	-137217.0	246816.0	554589.0
29	17	44	52	350	94.0	-126058.0	246089.0	555216.0
29	17	44	52	351	95.0	-115582.0	245391.0	554130.0
29	17	44	52	351	96.0	-105547.0	244676.0	553871.0
29	17	44	52	352	97.0	-95920.0	243973.0	553093.0
29	17	44	52	353	98.0	-86434.0	243281.0	553451.0
29	17	44	52	353	99.0	-82558.0	242589.0	554104.0
29	17	44	52	354	100.0	-91271.0	241911.0	554247.0
29	17	44	52	355	101.0	-112209.0	241264.0	554501.0
29	17	44	52	355	102.0	-141586.0	240614.0	554090.0
29	17	44	52	356	103.0	-174727.0	239969.0	553508.0
29	17	44	52	356	104.0	-206148.0	239344.0	554318.0
29	17	44	52	357	105.0	-230134.0	238725.0	554834.0
29	17	44	52	358	107.0	-253829.0	237488.0	553941.0
29	17	44	52	358	108.0	-257846.0	236881.0	554078.0
29	17	44	52	359	109.0	-257318.0	236301.0	554856.0
29	17	44	52	360	110.0	-252007.0	235724.0	555529.0
29	17	44	52	360	111.0	-243705.0	235161.0	554889.0
29	17	44	52	361	112.0	-235142.0	234584.0	554201.0
29	17	44	52	393	113.0	-227785.0	234004.0	553829.0
29	17	44	52	394	114.0	-223359.0	233458.0	554424.0
29	17	44	52	394	115.0	-222926.0	232909.0	554649.0
29	17	44	52	395	116.0	-226102.0	232336.0	555429.0
29	17	44	52	396	117.0	-231138.0	231828.0	555009.0
29	17	44	52	396	118.0	-238557.0	231289.0	554873.0
29	17	44	52	397	119.0	-248141.0	230746.0	555290.0
29	17	44	52	397	120.0	-257820.0	230213.0	555382.0
29	17	44	52	398	121.0	-267332.0	229717.0	554808.0
29	17	44	52	399	122.0	-276316.0	229226.0	555249.0
29	17	44	52	399	123.0	-283528.0	228725.0	555350.0
29	17	44	52	418	124.0	-288709.0	228236.0	554932.0
29	17	44	52	419	125.0	-291922.0	227733.0	554677.0
29	17	44	52	420	126.0	-291631.0	227231.0	555478.0
29	17	44	52	420	129.0	-275292.0	225798.0	554098.0
29	17	44	52	421	130.0	-268041.0	225305.0	554924.0
29	17	44	52	441	131.0	-259671.0	224825.0	555433.0
29	17	44	52	529	132.0	-250240.0	224361.0	554786.0
29	17	44	52	530	133.0	-238826.0	223903.0	555309.0
29	17	44	52	531	134.0	-224874.0	223435.0	556113.0
29	17	44	52	532	135.0	-209069.0	222980.0	555896.0
29	17	44	52	532	136.0	-192584.0	222548.0	556116.0
29	17	44	52	533	137.0	-175866.0	222094.0	555444.0
29	17	44	52	535	138.0	-160511.0	221650.0	555952.0
29	17	44	52	536	139.0	-147054.0	221203.0	555575.0
29	17	44	52	536	140.0	-135064.0	220781.0	555072.0
29	17	44	52	537	141.0	-126251.0	220354.0	554834.0
29	17	44	52	538	142.0	-120668.0	219929.0	553625.0
29	17	44	52	538	143.0	-118126.0	219481.0	553260.0
29	17	44	52	539	144.0	-118224.0	219062.0	553055.0
29	17	44	52	540	145.0	-119764.0	218654.0	551718.0
29	17	44	52	540	152.0	-141898.0	215921.0	552476.0
29	17	44	52	541	196.0	-162789.0	208411.0	549259.0
29	17	44	52	541	197.0	-157434.0	208347.0	548691.0
29	17	44	52	542	198.0	-155743.0	208273.0	548835.0
29	17	44	52	543	199.0	-156694.0	208187.0	548298.0
29	17	44	52	543	200.0	-160494.0	208123.0	548840.0
29	17	44	52	544	201.0	-166064.0	208032.0	549959.0
29	17	44	52	544	202.0	-172438.0	207924.0	549649.0
29	17	44	52	574	203.0	-180707.0	207815.0	548570.0
29	17	44	52	575	204.0	-189957.0	207713.0	548232.0
29	17	44	52	576	205.0	-193892.0	207614.0	548987.0
29	17	44	52	576	206.0	-203793.0	207494.0	549164.0
29	17	44	52	577	207.0	-203328.0	207370.0	549203.0
29	17	44	52	578	208.0	-213501.0	207238.0	549988.0
29	17	44	52	578	209.0	-212764.0	207102.0	549606.0
29	17	44	52	579	210.0	-226814.0	206961.0	549075.0
29	17	44	52	580	211.0	-224839.0	206864.0	549636.0
29	17	44	52	580	212.0	-211447.0	206766.0	549926.0
29	17	44	52	581	213.0	-216651.0	206657.0	549888.0
29	17	44	52	582	214.0	-207242.0	206565.0	548803.0
29	17	44	52	583	215.0	-216620.0	206476.0	548731.0
29	17	44	52	583	216.0	-217662.0	206361.0	549178.0
29	17	44	52	584	217.0	-221143.0	206253.0	549094.0
29	17	44	52	585	219.0	-224041.0	205995.0	549639.0
29	17	44	52	585	220.0	-230261.0	205868.0	550590.0
29	17	44	52	586	221.0	-227288.0	205731.0	550331.0
29	17	44	52	586	222.0	-216209.0	205608.0	549411.0
29	17	44	52	587	223.0	-219854.0	205462.0	549236.0
29	17	44	52	588	224.0	-204891.0	205310.0	549261.0
29	17	44	52	618	225.0	-214351.0	205177.0	550243.0
29	17	44	52	618	226.0	-224681.0	205064.0	550281.0
29	17	44	52	619	227.0	-206704.0	204944.0	549779.0
29	17	44	52	620	228.0	-208624.0	204860.0	549929.0
29	17	44	52	621	229.0	-199191.0	204786.0	549401.0
29	17	44	52	621	230.0	-196772.0	204724.0	550124.0
29	17	44	52	622	231.0	-211576.0	204658.0	550090.0
29	17	44	52	623	232.0	-202902.0	204611.0	550190.0
29	17	44	52	623	233.0	-213577.0	204537.0	552045.0
29	17	44	52	624	234.0	-213072.0	204443.0	550746.0
29	17	44	52	625	235.0	-203681.0	204353.0	550179.0
29	17	44	52	626	236.0	-214343.0	204277.0	550041.0
29	17	44	52	626	237.0	-204632.0	204184.0	550256.0
29	17	44	52	627	238.0	-215359.0	204087.0	550311.0
29	17	44	52	628	239.0	-218767.0	204002.0	550320.0
29	17	44	52	629	241.0	-205950.0	203948.0	550408.0
29	17	44	52	629	242.0	-199217.0	203935.0	551116.0
29	17	44	52	630	243.0	-198501.0	203935.0	550559.0
29	17	44	52	630	244.0	-194696.0	203944.0	550807.0
29	17	44	52	631	245.0	-186996.0	203940.0	551078.0
29	17	44	52	632	246.0	-186529.0	203956.0	550506.0
29	17	44	52	632	247.0	-182682.0	203960.0	551443.0
29	17	44	52	663	248.0	-174102.0	203917.0	551651.0
29	17	44	52	664	249.0	-164746.0	203889.0	552032.0
29	17	44	52	664	250.0	-155290.0	203865.0	552316.0
29	17	44	52	665	251.0	-147408.0	203817.0	553063.0
29	17	44	52	666	252.0	-142719.0	203755.0	553653.0
29	17	44	52	667	253.0	-139064.0	203694.0	553186.0
29	17	44	52	667	254.0	-138412.0	203629.0	553003.0
29	17	44	52	668	255.0	-139959.0	203547.0	553496.0
29	17	44	52	669	0.0	-143614.0	203449.0	553179.0
29	17	44	52	669	1.0	-149717.0	203368.0	552153.0
29	17	44	52	670	2.0	-155901.0	203281.0	552232.0
29	17	44	52	670	3.0	-162461.0	203160.0	551825.0
29	17	44	52	671	4.0	-169767.0	203056.0	551088.0
29	17	44	52	672	5.0	-176561.0	202944.0	550122.0
29	17	44	52	672	6.0	-186684.0	202803.0	550571.0
29	17	44	52	673	8.0	-209547.0	202537.0	550416.0
29	17	44	52	674	9.0	-218842.0	202388.0	549803.0
29	17	44	52	674	10.0	-228002.0	202250.0	547433.0
29	17	44	52	675	11.0	-233316.0	202057.0	545593.0
29	17	44	52	676	12.0	-229426.0	201889.0	543973.0
29	17	44	52	676	13.0	-231957.0	201733.0	544331.0
29	17	44	52	708	14.0	-218729.0	201551.0	543773.0
29	17	44	52	708	15.0	-215844.0	201352.0	541330.0
29	17	44	52	709	16.0	-197916.0	201166.0	539209.0
29	17	44	52	710	17.0	-198619.0	200972.0	538149.0
29	17	44	52	711	18.0	-183539.0	200791.0	539506.0
29	17	44	52	711	19.0	-188774.0	200573.0	541235.0
29	17	44	52	712	20.0	-178052.0	200343.0	544586.0
29	17	44	52	713	21.0	-188082.0	200121.0	547416.0
29	17	44	52	713	22.0	-178011.0	199894.0	546788.0
29	17	44	52	714	23.0	-187651.0	199674.0	548812.0
29	17	44	52	715	24.0	-177822.0	199434.0	552703.0
29	17	44	52	715	25.0	-188316.0	199203.0	556449.0
29	17	44	52	716	26.0	-177886.0	198949.0	560571.0
29	17	44	52	717	27.0	-187959.0	198696.0	564793.0
29	17	44	52	717	28.0	-177867.0	198471.0	568314.0
29	17	44	52	718	30.0	-176455.0	197977.0	572563.0
29	17	44	52	719	31.0	-186197.0	197746.0	575889.0
29	17	44	52	719	32.0	-176409.0	197514.0	576406.0
29	17	44	52	720	33.0	-187114.0	197263.0	577714.0
29	17	44	52	721	34.0	-178108.0	197003.0	578194.0
29	17	44	52	721	35.0	-190669.0	196744.0	576539.0
29	17	44	52	722	36.0	-183563.0	196470.0	576060.0
29	17	44	52	754	37.0	-197350.0	196206.0	577015.0
29	17	44	52	755	38.0	-194235.0	195937.0	577412.0
29	17	44	52	756	39.0	-212682.0	195664.0	577593.0
29	17	44	52	756	40.0	-214743.0	195401.0	575919.0
29	17	44	52	757	41.0	-232701.0	195121.0	572863.0
29	17	44	52	758	42.0	-229831.0	194824.0	569549.0
29	17	44	52	758	43.0	-228579.0	194516.0	565619.0
29	17	44	52	759	44.0	-210711.0	194229.0	562263.0
29	17	44	52	760	45.0	-197361.0	193953.0	560231.0
29	17	44	52	761	46.0	-185661.0	193647.0	559501.0
29	17	44	52	761	47.0	-179075.0	193347.0	559521.0
29	17	44	52	762	48.0	-183866.0	193053.0	560233.0
29	17	44	52	763	49.0	-182954.0	192752.0	560351.0
29	17	44	52	813	50.0	-197822.0	192428.0	560018.0
29	17	44	52	832	51.0	-196824.0	192113.0	560227.0
29	17	44	52	833	53.0	-226834.0	191479.0	560501.0
29	17	44	52	833	54.0	-258591.0	191159.0	560654.0
29	17	44	52	834	55.0	-267466.0	190846.0	561361.0
29	17	44	52	835	56.0	-292054.0	190529.0	561929.0
29	17	44	52	836	57.0	-302729.0	190207.0	560793.0
29	17	44	52	836	58.0	-303791.0	189891.0	560449.0
29	17	44	52	837	59.0	-269484.0	189541.0	561379.0
29	17	44	52	838	60.0	-213016.0	189218.0	563154.0
29	17	44	52	838	61.0	-177021.0	188879.0	563968.0
29	17	44	52	839	62.0	-131283.0	188549.0	563719.0
29	17	44	52	839	63.0	-118367.0	188226.0	563228.0
29	17	44	52	840	64.0	-95597.0	187884.0	562613.0
29	17	44	52	841	65.0	-103559.0	187534.0	562671.0
29	17	44	52	841	83.0	-104171.0	181135.0	574338.0
29	17	44	52	842	90.0	-163871.0	178586.0	578844.0
29	17	44	52	843	91.0	-184160.0	178198.0	578925.0
29	17	44	52	843	92.0	-182534.0	177825.0	578481.0
29	17	44	52	844	93.0	-197084.0	177433.0	578538.0
29	17	44	52	845	94.0	-184824.0	177069.0	578666.0
29	17	44	52	845	95.0	-191726.0	176706.0	578376.0
29	17	44	52	846	96.0	-176661.0	176312.0	579199.0
29	17	44	52	846	97.0	-176166.0	175919.0	579410.0
29	17	44	52	858	98.0	-168346.0	175517.0	579191.0
29	17	44	52	859	99.0	-163928.0	175133.0	578724.0
29	17	44	52	860	100.0	-165456.0	174752.0	577754.0
29	17	44	52	861	101.0	-158132.0	174353.0	576838.0
29	17	44	52	861	102.0	-166222.0	173942.0	577383.0
29	17	44	52	862	103.0	-156338.0	173559.0	577131.0
29	17	44	52	863	104.0	-167390.0	173156.0	575946.0
29	17	44	52	863	105.0	-157456.0	172744.0	575669.0
29	17	44	52	864	106.0	-168032.0	172339.0	575918.0
29	17	44	52	865	107.0	-157825.0	171943.0	575964.0
29	17	44	52	903	108.0	-167885.0	171544.0	575805.0
29	17	44	52	904	109.0	-160604.0	171148.0	575649.0
29	17	44	52	904	110.0	-168662.0	170728.0	575393.0
29	17	44	52	905	111.0	-168190.0	170315.0	575196.0
29	17	44	52	906	112.0	-175351.0	169919.0	575292.0
29	17	44	52	907	113.0	-177696.0	169510.0	575763.0
29	17	44	52	907	114.0	-183451.0	169106.0	574228.0
29	17	44	52	908	115.0	-189879.0	168709.0	574131.0
29	17	44	52	909	116.0	-191941.0	168302.0	573954.0
29	17	44	52	910	117.0	-199329.0	167914.0	573185.0
29	17	44	52	910	118.0	-197926.0	167533.0	573640.0
29	17	44	52	911	119.0	-204569.0	167151.0	573671.0
29	17	44	52	912	120.0	-200333.0	166758.0	573235.0
29	17	44	52	912	121.0	-209311.0	166374.0	572788.0
29	17	44	52	913	122.0	-202864.0	166001.0	573520.0
29	17	44	52	913	123.0	-210033.0	165624.0	573114.0
29	17	44	52	914	128.0	-192895.0	163740.0	571307.0
29	17	44	52	915	129.0	-204051.0	163389.0	571652.0
29	17	44	52	915	130.0	-189578.0	163023.0	572842.0
29	17	44	52	924	131.0	-202592.0	162635.0	572828.0
29	17	44	52	925	132.0	-186165.0	162263.0	571976.0
29	17	44	52	926	133.0	-198584.0	161903.0	572622.0
29	17	44	52	926	134.0	-182902.0	161546.0	573051.0
29	17	44	52	927	135.0	-189584.0	161180.0	571931.0
29	17	44	52	947	136.0	-178010.0	160796.0	572671.0
29	17	44	52	948	137.0	-183085.0	160435.0	572878.0
29	17	44	52	949	138.0	-182281.0	160096.0	572999.0
29	17	44	52	949	139.0	-180129.0	159711.0	571719.0
29	17	44	52	950	140.0	-191738.0	159329.0	571301.0
29	17	44	52	951	141.0	-182956.0	158958.0	572189.0
29	17	44	52	951	142.0	-203797.0	158557.0	571311.0
29	17	44	52	952	143.0	-193032.0	158172.0	571581.0
29	17	44	52	953	144.0	-208474.0	157796.0	572593.0
29	17	44	52	953	145.0	-193844.0	157422.0	573636.0
29	17	44	52	954	146.0	-199878.0	157019.0	573346.0
29	17	44	52	954	147.0	-206460.0	156550.0	573518.0
29	17	44	52	955	148.0	-213148.0	156101.0	573955.0
29	17	44	52	956	149.0	-234689.0	155623.0	573655.0
29	17	44	52	956	150.0	-224274.0	155116.0	573825.0
29	17	44	52	970	151.0	-242741.0	154625.0	573758.0
29	17	44	53	2	152.0	-230511.0	154145.0	574626.0
29	17	44	53	3	153.0	-237120.0	153673.0	575733.0
29	17	44	53	4	154.0	-228646.0	153156.0	575414.0
29	17	44	53	5	155.0	-219816.0	152641.0	575818.0
29	17	44	53	5	156.0	-235381.0	152114.0	575760.0
29	17	44	53	6	157.0	-219567.0	151584.0	576469.0
29	17	44	53	7	158.0	-227421.0	151067.0	576997.0
29	17	44	53	7	159.0	-216074.0	150564.0	576877.0
29	17	44	53	8	160.0	-210046.0	150057.0	576103.0
29	17	44	53	9	161.0	-214301.0	149541.0	577560.0
29	17	44	53	9	162.0	-198470.0	149031.0	576805.0
29	17	44	53	10	163.0	-209704.0	148514.0	576223.0
29	17	44	53	11	164.0	-204537.0	148025.0	576056.0
29	17	44	53	11	165.0	-203772.0	147532.0	575693.0
29	17	44	53	12	166.0	-213379.0	147028.0	575502.0
29	17	44	53	13	167.0	-193580.0	146548.0	575742.0
29	17	44	53	13	168.0	-194849.0	146038.0	575889.0
29	17	44	53	14	169.0	-198324.0	145506.0	574738.0
29	17	44	53	14	170.0	-191570.0	144963.0	575886.0
29	17	44	53	15	173.0	-189850.0	143326.0	575505.0
29	17	44	53	15	174.0	-189077.0	142776.0	575708.0
29	17	44	53	16	175.0	-172687.0	142235.0	574637.0
29	17	44	53	17	176.0	-179892.0	141733.0	575628.0
29	17	44	53	17	177.0	-175023.0	141194.0	575408.0
29	17	44	53	18	178.0	-166634.0	140684.0	573226.0
29	17	44	53	19	179.0	-177101.0	140199.0	570619.0
29	17	44	53	19	180.0	-169715.0	139694.0	571407.0
29	17	44	53	27	181.0	-171264.0	139194.0	570768.0
29	17	44	53	28	182.0	-179504.0	138725.0	571249.0
29	17	44	53	29	183.0	-169021.0	138243.0	570705.0
29	17	44	53	30	184.0	-177432.0	137760.0	571525.0
29	17	44	53	30	185.0	-178239.0	137306.0	572619.0
29	17	44	53	31	186.0	-169772.0	136829.0	570651.0
29	17	44	53	32	187.0	-180688.0	136353.0	570075.0
29	17	44	53	32	188.0	-173042.0	135889.0	570417.0
29	17	44	53	50	189.0	-170472.0	135463.0	570690.0
29	17	44	53	51	190.0	-175776.0	135024.0	570695.0
29	17	44	53	52	191.0	-160320.0	134578.0	570963.0
29	17	44	53	52	192.0	-162224.0	134115.0	569752.0
29	17	44	53	53	193.0	-152491.0	133681.0	570058.0
29	17	44	53	54	194.0	-118704.0	133271.0	572123.0
29	17	44	53	54	195.0	-116302.0	132839.0	571243.0
29	17	44	53	55	196.0	-124981.0	132419.0	570323.0
29	17	44	53	56	197.0	-157041.0	132027.0	571132.0
29	17	44	53	57	198.0	-210708.0	131615.0	571298.0
29	17	44	53	57	199.0	-223990.0	131186.0	571497.0
29	17	44	53	58	200.0	-232581.0	130761.0	571604.0
29	17	44	53	58	201.0	-235526.0	130336.0	570813.0
29	17	44	53	59	202.0	-233116.0	129886.0	571122.0
29	17	44	53	60	203.0	-251169.0	129430.0	572215.0
29	17	44	53	73	204.0	-246300.0	128956.0	571864.0
29	17	44	53	73	205.0	-237709.0	128478.0	571931.0
29	17	44	53	74	206.0	-241353.0	128009.0	571429.0
29	17	44	53	75	207.0	-219874.0	127517.0	571423.0
29	17	44	53	76	208.0	-210704.0	127041.0	571666.0
29	17	44	53	76	209.0	-197843.0	126553.0	571509.0
29	17	44	53	77	210.0	-174321.0	126083.0	570947.0
29	17	44	53	77	211.0	-172791.0	125633.0	570615.0
29	17	44	53	96	212.0	-152345.0	125181.0	570864.0
29	17	44	53	97	213.0	-144866.0	124735.0	571346.0
29	17	44	53	98	214.0	-144637.0	124258.0	571726.0
29	17	44	53	98	215.0	-126813.0	123781.0	570803.0
29	17	44	53	99	216.0	-130306.0	123321.0	571598.0
29	17	44	53	100	217.0	-116039.0	122858.0	572106.0
29	17	44	53	101	218.0	-107427.0	122407.0	572131.0
29	17	44	53	101	219.0	-113362.0	121967.0	572726.0
29	17	44	53	102	220.0	-108864.0	121543.0	573013.0
29	17	44	53	103	221.0	-135763.0	121113.0	572403.0
29	17	44	53	103	222.0	-151827.0	120684.0	572661.0
29	17	44	53	104	223.0	-175900.0	120257.0	573546.0
29	17	44	53	104	224.0	-211831.0	119845.0	573204.0
29	17	44	53	105	225.0	-220306.0	119421.0	572863.0
29	17	44	53	106	226.0	-243542.0	119020.0	572859.0
29	17	44	53	129	227.0	-241683.0	118628.0	573043.0
29	17	44	53	130	228.0	-245424.0	118245.0	572995.0
29	17	44	53	131	229.0	-250902.0	117836.0	572850.0
29	17	44	53	132	230.0	-239654.0	117449.0	573329.0
29	17	44	53	133	231.0	-250150.0	117063.0	573493.0
29	17	44	53	133	232.0	-239736.0	116701.0	574042.0
29	17	44	53	134	233.0	-245446.0	116346.0	574652.0
29	17	44	53	135	234.0	-247019.0	115964.0	575629.0
29	17	44	53	136	235.0	-244351.0	115619.0	575419.0
29	17	44	53	136	236.0	-256939.0	115267.0	574649.0
29	17	44	53	137	237.0	-248806.0	114940.0	574817.0
29	17	44	53	148	238.0	-263211.0	114581.0	575334.0
29	17	44	53	158	239.0	-256992.0	114224.0	574386.0
29	17	44	53	161	240.0	-258135.0	113900.0	573979.0
29	17	44	53	162	241.0	-258369.0	113562.0	573815.0
29	17	44	53	163	242.0	-246026.0	113244.0	573544.0
29	17	44	53	164	243.0	-250334.0	112958.0	574539.0
29	17	44	53	164	244.0	-234369.0	112640.0	575440.0
29	17	44	53	165	245.0	-234628.0	112333.0	574745.0
29	17	44	53	166	246.0	-226591.0	112023.0	574169.0
29	17	44	53	166	247.0	-217844.0	111727.0	574290.0
29	17	44	53	167	248.0	-218151.0	111416.0	574138.0
29	17	44	53	167	249.0	-204641.0	111116.0	573809.0
29	17	44	53	168	250.0	-204270.0	110833.0	574081.0
29	17	44	53	168	251.0	-195761.0	110553.0	574079.0
29	17	44	53	169	252.0	-185554.0	110263.0	574714.0
29	17	44	53	169	253.0	-197862.0	109954.0	574868.0
29	17	44	53	170	254.0	-194775.0	109664.0	574479.0
29	17	44	53	178	255.0	-197736.0	109380.0	574698.0
29	17	44	53	179	0.0	-200828.0	109107.0	574066.0
29	17	44	53	179	1.0	-206669.0	108827.0	574227.0
29	17	44	53	180	2.0	-215167.0	108544.0	574068.0
29	17	44	53	181	3.0	-219159.0	108267.0	574279.0
29	17	44	53	181	4.0	-224309.0	107996.0	575193.0
29	17	44	53	182	5.0	-227597.0	107704.0	575796.0
29	17	44	53	182	6.0	-227120.0	107454.0	574928.0
29	17	44	53	183	7.0	-225960.0	107194.0	575450.0
29	17	44	53	183	8.0	-222586.0	106924.0	576263.0
29	17	44	53	201	9.0	-216954.0	106656.0	576113.0
29	17	44	53	202	10.0	-209902.0	106399.0	576695.0
29	17	44	53	202	11.0	-201254.0	106121.0	577391.0
29	17	44	53	224	12.0	-192656.0	105869.0	576328.0
29	17	44	53	225	13.0	-184832.0	105608.0	575880.0
29	17	44	53	225	14.0	-177485.0	105329.0	575028.0
29	17	44	53	226	15.0	-171159.0	105071.0	574378.0
29	17	44	53	226	16.0	-167228.0	104828.0	573885.0
29	17	44	53	227	17.0	-163854.0	104578.0	574097.0
29	17	44	53	228	18.0	-160426.0	104333.0	574857.0
29	17	44	53	228	19.0	-158282.0	104088.0	574919.0
29	17	44	53	229	20.0	-156371.0	103846.0	574228.0
29	17	44	53	229	21.0	-155486.0	103604.0	574149.0
29	17	44	53	230	22.0	-156111.0	103375.0	574369.0
29	17	44	53	230	23.0	-157037.0	103152.0	573630.0
29	17	44	53	231	24.0	-159171.0	102909.0	574808.0
29	17	44	53	232	25.0	-159716.0	102686.0	576026.0
29	17	44	53	232	26.0	-161064.0	102481.0	575103.0
29	17	44	53	233	28.0	-165732.0	102071.0	574793.0
29	17	44	53	233	29.0	-171872.0	101869.0	573583.0
29	17	44	53	234	30.0	-173635.0	101671.0	574323.0
29	17	44	53	234	31.0	-173297.0	101498.0	573894.0
29	17	44	53	235	32.0	-180916.0	101314.0	574149.0
29	17	44	53	236	33.0	-184560.0	101158.0	573973.0
29	17	44	53	236	34.0	-189406.0	100973.0	574837.0
29	17	44	53	237	35.0	-194271.0	100798.0	574583.0
29	17	44	53	237	36.0	-198666.0	100621.0	574351.0
29	17	44	53	248	37.0	-204116.0	100424.0	574128.0
29	17	44	53	248	38.0	-208802.0	100251.0	574631.0
29	17	44	53	269	39.0	-213404.0	100065.0	574103.0
29	17	44	53	270	40.0	-218377.0	99855.0	574747.0
29	17	44	53	292	41.0	-221888.0	99664.0	575578.0
29	17	44	53	292	42.0	-223145.0	99479.0	575988.0
29	17	44	53	293	43.0	-220611.0	99293.0	576518.0
29	17	44	53	294	44.0	-213321.0	99117.0	576650.0
29	17	44	53	294	45.0	-204518.0	98931.0	577198.0
29	17	44	53	295	46.0	-195869.0	98756.0	577704.0
29	17	44	53	296	47.0	-189779.0	98557.0	578353.0
29	17	44	53	296	48.0	-185781.0	98371.0	578685.0
29	17	44	53	297	49.0	-183783.0	98189.0	578248.0
29	17	44	53	297	50.0	-184447.0	98019.0	578555.0
29	17	44	53	298	51.0	-188141.0	97854.0	578924.0
29	17	44	53	298	52.0	-195357.0	97661.0	578877.0
29	17	44	53	299	53.0	-204619.0	97476.0	578618.0
29	17	44	53	300	54.0	-215361.0	97303.0	579081.0
29	17	44	53	300	55.0	-226214.0	97091.0	578716.0
29	17	44	53	301	56.0	-235114.0	96914.0	578544.0
29	17	44	53	301	59.0	-240451.0	96328.0	576921.0
29	17	44	53	302	60.0	-234774.0	96151.0	577139.0
29	17	44	53	302	61.0	-226952.0	95956.0	577528.0
29	17	44	53	303	62.0	-217211.0	95774.0	577878.0
29	17	44	53	304	63.0	-207637.0	95584.0	577624.0
29	17	44	53	304	64.0	-198289.0	95372.0	576888.0
29	17	44	53	305	65.0	-189117.0	95174.0	576970.0
29	17	44	53	305	66.0	-180356.0	94962.0	578493.0
29	17	44	53	313	67.0	-172796.0	94741.0	578855.0
29	17	44	53	313	68.0	-166656.0	94546.0	577629.0
29	17	44	53	314	69.0	-163368.0	94360.0	578633.0
29	17	44	53	315	70.0	-163115.0	94152.0	577692.0
29	17	44	53	336	71.0	-165120.0	93940.0	578809.0
29	17	44	53	336	72.0	-169071.0	93762.0	579743.0
29	17	44	53	337	73.0	-175003.0	93544.0	580131.0
29	17	44	53	338	74.0	-183021.0	93316.0	579128.0
29	17	44	53	338	75.0	-192395.0	93115.0	578710.0
29	17	44	53	339	76.0	-201629.0	92936.0	578725.0
29	17	44	53	339	77.0	-209260.0	92744.0	578856.0
29	17	44	53	340	78.0	-215709.0	92534.0	579238.0
29	17	44	53	341	79.0	-220762.0	92347.0	578988.0
29	17	44	53	341	80.0	-224541.0	92161.0	578744.0
29	17	44	53	342	81.0	-226321.0	91988.0	578099.0
29	17	44	53	342	82.0	-227502.0	91811.0	577594.0
29	17	44	53	343	83.0	-228488.0	91633.0	578510.0
29	17	44	53	343	84.0	-229292.0	91438.0	578345.0
29	17	44	53	344	85.0	-230246.0	91260.0	578798.0
29	17	44	53	345	86.0	-230848.0	91091.0	578387.0
29	17	44	53	345	87.0	-230736.0	90916.0	577883.0
29	17	44	53	346	88.0	-228942.0	90749.0	577721.0
29	17	44	53	358	89.0	-226864.0	90573.0	578169.0
29	17	44	53	359	90.0	-224959.0	90393.0	578248.0
29	17	44	53	359	91.0	-223077.0	90258.0	578811.0
29	17	44	53	360	92.0	-221169.0	90093.0	579417.0
29	17	44	53	360	93.0	-218885.0	89909.0	578913.0
29	17	44	53	361	94.0	-217137.0	89744.0	578758.0
29	17	44	53	362	95.0	-215281.0	89603.0	578968.0
29	17	44	53	362	96.0	-212991.0	89443.0	578179.0
29	17	44	53	363	97.0	-210847.0	89282.0	578024.0
29	17	44	53	380	98.0	-207997.0	89144.0	577171.0
29	17	44	53	381	99.0	-205050.0	88992.0	576387.0
29	17	44	53	382	100.0	-202836.0	88839.0	576359.0
29	17	44	53	382	101.0	-199937.0	88712.0	576330.0
29	17	44	53	383	102.0	-188691.0	88601.0	576989.0
29	17	44	53	384	103.0	-184401.0	88459.0	576273.0
29	17	44	53	384	104.0	-181302.0	88316.0	575681.0
29	17	44	53	385	105.0	-179531.0	88206.0	576229.0
29	17	44	53	386	106.0	-177692.0	88091.0	577667.0
29	17	44	53	386	107.0	-175630.0	87969.0	577462.0
29	17	44	53	387	108.0	-173004.0	87852.0	577931.0
29	17	44	53	387	109.0	-170347.0	87730.0	577468.0
29	17	44	53	388	110.0	-166902.0	87606.0	578301.0
29	17	44	53	389	111.0	-163847.0	87504.0	578440.0
29	17	44	53	389	112.0	-158979.0	87369.0	578838.0
29	17	44	53	403	113.0	-154034.0	87254.0	580524.0
29	17	44	53	404	114.0	-151721.0	87166.0	581109.0
29	17	44	53	404	115.0	-149552.0	87073.0	580053.0
29	17	44	53	405	116.0	-147990.0	86966.0	580746.0
29	17	44	53	406	117.0	-146990.0	86873.0	580914.0
29	17	44	53	406	118.0	-146814.0	86789.0	580796.0
29	17	44	53	407	119.0	-147182.0	86710.0	579865.0
29	17	44	53	427	120.0	-148155.0	86623.0	579061.0
29	17	44	53	427	121.0	-150220.0	86533.0	578624.0
29	17	44	53	428	122.0	-151957.0	86431.0	578340.0
29	17	44	53	429	123.0	-153301.0	86367.0	577894.0
29	17	44	53	429	124.0	-155627.0	86286.0	578744.0
29	17	44	53	430	125.0	-158684.0	86182.0	578617.0
29	17	44	53	430	126.0	-161747.0	86063.0	578946.0
29	17	44	53	431	127.0	-164879.0	85974.0	579846.0
29	17	44	53	432	128.0	-168460.0	85890.0	580178.0
29	17	44	53	432	129.0	-172239.0	85812.0	579959.0
29	17	44	53	433	130.0	-175366.0	85723.0	579179.0
29	17	44	53	433	131.0	-178330.0	85624.0	579003.0
29	17	44	53	434	132.0	-181605.0	85529.0	579371.0
29	17	44	53	434	133.0	-185477.0	85444.0	579709.0
29	17	44	53	450	134.0	-189231.0	85344.0	578657.0
29	17	44	53	450	135.0	-193092.0	85256.0	578669.0
29	17	44	53	451	136.0	-198056.0	85148.0	578754.0
29	17	44	53	452	137.0	-202785.0	85034.0	579087.0
29	17	44	53	452	138.0	-207302.0	84929.0	578023.0
29	17	44	53	453	139.0	-211700.0	84848.0	577491.0
29	17	44	53	453	140.0	-216392.0	84756.0	577893.0
29	17	44	53	454	141.0	-221766.0	84651.0	576724.0
29	17	44	53	455	142.0	-227372.0	84534.0	575918.0
29	17	44	53	472	143.0	-232974.0	84421.0	574717.0
29	17	44	53	473	144.0	-238160.0	84326.0	572822.0
29	17	44	53	473	145.0	-242464.0	84216.0	571871.0
29	17	44	53	474	146.0	-246406.0	84103.0	571199.0
29	17	44	53	475	147.0	-248188.0	84011.0	569508.0
29	17	44	53	475	148.0	-247342.0	83915.0	568167.0
29	17	44	53	476	149.0	-244759.0	83791.0	565453.0
29	17	44	53	477	150.0	-241151.0	83679.0	563848.0
29	17	44	53	477	151.0	-237205.0	83573.0	564417.0
29	17	44	53	478	152.0	-232684.0	83458.0	563162.0
29	17	44	53	478	153.0	-228266.0	83358.0	559268.0
29	17	44	53	479	154.0	-224511.0	83247.0	558077.0
29	17	44	53	480	155.0	-221777.0	83104.0	559016.0
29	17	44	53	480	156.0	-220444.0	82975.0	560312.0
29	17	44	53	481	157.0	-220349.0	82858.0	563144.0
29	17	44	53	496	158.0	-221637.0	82731.0	568084.0
29	17	44	53	497	159.0	-223973.0	82621.0	570409.0
29	17	44	53	498	160.0	-227044.0	82478.0	569346.0
29	17	44	53	498	161.0	-229324.0	82352.0	572334.0
29	17	44	53	499	162.0	-229270.0	82219.0	576442.0
29	17	44	53	500	163.0	-226892.0	82084.0	581016.0
29	17	44	53	500	164.0	-222133.0	81918.0	585533.0
29	17	44	53	520	165.0	-215264.0	81784.0	589070.0
29	17	44	53	521	166.0	-207419.0	81674.0	590545.0
29	17	44	53	521	167.0	-199251.0	81527.0	593198.0
29	17	44	53	522	168.0	-191066.0	81399.0	597039.0
29	17	44	53	523	169.0	-183712.0	81258.0	598674.0
29	17	44	53	523	170.0	-177491.0	81139.0	597745.0
29	17	44	53	524	171.0	-172160.0	80989.0	598242.0
29	17	44	53	525	172.0	-167041.0	80845.0	597878.0
29	17	44	53	525	173.0	-162320.0	80703.0	596967.0
29	17	44	53	526	174.0	-159027.0	80551.0	596349.0
29	17	44	53	526	175.0	-158235.0	80410.0	596446.0
29	17	44	53	527	176.0	-161389.0	80272.0	597432.0
29	17	44	53	528	177.0	-168102.0	80146.0	595474.0
29	17	44	53	528	178.0	-174049.0	80011.0	592418.0
29	17	44	53	529	179.0	-170739.0	79862.0	589164.0
29	17	44	53	530	180.0	-159040.0	79736.0	585286.0
29	17	44	53	530	181.0	-144082.0	79627.0	580134.0
29	17	44	53	531	182.0	-131739.0	79499.0	577782.0
29	17	44	53	531	183.0	-125107.0	79352.0	578422.0
29	17	44	53	532	184.0	-125308.0	79243.0	577604.0
29	17	44	53	532	185.0	-131779.0	79137.0	576376.0
29	17	44	53	548	186.0	-141995.0	79014.0	574971.0
29	17	44	53	549	187.0	-156150.0	78890.0	573988.0
29	17	44	53	550	188.0	-175407.0	78768.0	573539.0
29	17	44	53	550	189.0	-197699.0	78631.0	572491.0
29	17	44	53	551	190.0	-217969.0	78526.0	572548.0
29	17	44	53	552	191.0	-231344.0	78399.0	572116.0
29	17	44	53	552	192.0	-239478.0	78273.0	571954.0
29	17	44	53	553	193.0	-245195.0	78154.0	572521.0
29	17	44	53	554	194.0	-244364.0	78067.0	571137.0
29	17	44	53	554	195.0	-237393.0	77952.0	569911.0
29	17	44	53	565	196.0	-224640.0	77820.0	569926.0
29	17	44	53	566	197.0	-210640.0	77717.0	570568.0
29	17	44	53	566	198.0	-198229.0	77623.0	569146.0
29	17	44	53	567	199.0	-171383.0	77506.0	567829.0
29	17	44	53	567	200.0	-128817.0	77398.0	567787.0
29	17	44	53	568	201.0	-103763.0	77274.0	568224.0
29	17	44	53	588	202.0	-95806.0	77156.0	567917.0
29	17	44	53	589	203.0	-98924.0	77059.0	568266.0
29	17	44	53	589	204.0	-107545.0	76953.0	569083.0
29	17	44	53	590	205.0	-124287.0	76824.0	569486.0
29	17	44	53	591	206.0	-150232.0	76701.0	568993.0
29	17	44	53	591	207.0	-177952.0	76606.0	568506.0
29	17	44	53	592	208.0	-198536.0	76511.0	568061.0
29	17	44	53	593	209.0	-209086.0	76374.0	566713.0
29	17	44	53	593	210.0	-210711.0	76271.0	566373.0
29	17	44	53	594	211.0	-207276.0	76173.0	566866.0
29	17	44	53	594	212.0	-202604.0	76043.0	567025.0
29	17	44	53	595	213.0	-203721.0	75926.0	566373.0
29	17	44	53	596	214.0	-212312.0	75812.0	567108.0
29	17	44	53	596	215.0	-221327.0	75668.0	566447.0
29	17	44	53	597	216.0	-224944.0	75520.0	565126.0
29	17	44	53	598	217.0	-220568.0	75385.0	566404.0
29	17	44	53	612	218.0	-207074.0	75283.0	567028.0
29	17	44	53	613	219.0	-185861.0	75154.0	565790.0
29	17	44	53	614	220.0	-161286.0	75055.0	564518.0
29	17	44	53	614	221.0	-138850.0	74924.0	563959.0
29	17	44	53	615	222.0	-122994.0	74808.0	564113.0
29	17	44	53	616	223.0	-115983.0	74665.0	562626.0
29	17	44	53	616	224.0	-117251.0	74542.0	562272.0
29	17	44	53	635	225.0	-124616.0	74415.0	563376.0
29	17	44	53	636	226.0	-135744.0	74300.0	561128.0
29	17	44	53	636	227.0	-148845.0	74183.0	560129.0
29	17	44	53	637	228.0	-162857.0	74059.0	561064.0
29	17	44	53	638	229.0	-177843.0	73901.0	561981.0
29	17	44	53	638	230.0	-191848.0	73780.0	562508.0
29	17	44	53	639	231.0	-203704.0	73661.0	562697.0
29	17	44	53	640	232.0	-213776.0	73546.0	562121.0
29	17	44	53	640	233.0	-221824.0	73413.0	561393.0
29	17	44	53	641	234.0	-227291.0	73278.0	562503.0
29	17	44	53	641	235.0	-230176.0	73143.0	562639.0
29	17	44	53	658	236.0	-231424.0	73008.0	561759.0
29	17	44	53	659	237.0	-232322.0	72884.0	560874.0
29	17	44	53	659	238.0	-233247.0	72758.0	562234.0
29	17	44	53	660	239.0	-233689.0	72630.0	563004.0
29	17	44	53	661	240.0	-234291.0	72512.0	562882.0
29	17	44	53	661	241.0	-235106.0	72383.0	561424.0
29	17	44	53	662	242.0	-235852.0	72234.0	560934.0
29	17	44	53	662	243.0	-236187.0	72093.0	559352.0
29	17	44	53	663	244.0	-236838.0	71963.0	558204.0
29	17	44	53	664	245.0	-237669.0	71828.0	557260.0
29	17	44	53	664	246.0	-238577.0	71703.0	560202.0
29	17	44	53	665	247.0	-240145.0	71568.0	563376.0
29	17	44	53	665	248.0	-241719.0	71435.0	565648.0
29	17	44	53	681	249.0	-242959.0	71307.0	566994.0
29	17	44	53	682	250.0	-243655.0	71163.0	566396.0
29	17	44	53	682	251.0	-244048.0	71033.0	565321.0
29	17	44	53	683	252.0	-244204.0	70886.0	564141.0
29	17	44	53	684	253.0	-242532.0	70749.0	565383.0
29	17	44	53	685	254.0	-239534.0	70608.0	567225.0
29	17	44	53	685	255.0	-235439.0	70467.0	567894.0
29	17	44	53	686	0.0	-230638.0	70337.0	567206.0
29	17	44	53	687	1.0	-225066.0	70197.0	565102.0
29	17	44	53	687	2.0	-219197.0	70056.0	562068.0
29	17	44	53	688	3.0	-214112.0	69909.0	561545.0
29	17	44	53	689	4.0	-210149.0	69803.0	561298.0
29	17	44	53	689	5.0	-205991.0	69654.0	555127.0
29	17	44	53	690	6.0	-201462.0	69503.0	555753.0
29	17	44	53	690	7.0	-198935.0	69354.0	565194.0
29	17	44	53	704	8.0	-196557.0	69201.0	569614.0
29	17	44	53	705	9.0	-193822.0	69077.0	570298.0
29	17	44	53	706	10.0	-190571.0	68923.0	570185.0
29	17	44	53	706	11.0	-187717.0	68779.0	570284.0
29	17	44	53	707	12.0	-185917.0	68664.0	570398.0
29	17	44	53	726	13.0	-184919.0	68498.0	569674.0
29	17	44	53	727	14.0	-184838.0	68362.0	570426.0
29	17	44	53	728	15.0	-185111.0	68243.0	571550.0
29	17	44	53	728	16.0	-185407.0	68122.0	572718.0
29	17	44	53	729	17.0	-185552.0	67987.0	574354.0
29	17	44	53	730	18.0	-185967.0	67838.0	574832.0
29	17	44	53	730	19.0	-186564.0	67688.0	575624.0
29	17	44	53	731	20.0	-187814.0	67552.0	576119.0
29	17	44	53	731	21.0	-187994.0	67419.0	576683.0
29	17	44	53	732	22.0	-186955.0	67280.0	579028.0
29	17	44	53	732	23.0	-185959.0	67139.0	580668.0
29	17	44	53	733	24.0	-184785.0	66980.0	580161.0
29	17	44	53	734	25.0	-183488.0	66819.0	580111.0
29	17	44	53	734	26.0	-182743.0	66672.0	580554.0
29	17	44	53	735	27.0	-183193.0	66526.0	580568.0
29	17	44	53	749	28.0	-184819.0	66382.0	580104.0
29	17	44	53	750	29.0	-185873.0	66216.0	579586.0
29	17	44	53	750	30.0	-187802.0	66054.0	579732.0
29	17	44	53	751	31.0	-190221.0	65871.0	578909.0
29	17	44	53	752	32.0	-192042.0	65707.0	579846.0
29	17	44	53	752	33.0	-192549.0	65542.0	581223.0
29	17	44	53	753	34.0	-192651.0	65378.0	582328.0
29	17	44	53	754	35.0	-193323.0	65218.0	583229.0
29	17	44	53	754	36.0	-192846.0	65060.0	583386.0
29	17	44	53	772	37.0	-191414.0	64894.0	583148.0
29	17	44	53	773	38.0	-189256.0	64710.0	582397.0
29	17	44	53	774	39.0	-186141.0	64544.0	582017.0
29	17	44	53	774	40.0	-181086.0	64379.0	582418.0
29	17	44	53	775	41.0	-175602.0	64201.0	583059.0
29	17	44	53	776	42.0	-170257.0	64021.0	582661.0
29	17	44	53	776	43.0	-164976.0	63833.0	583208.0
29	17	44	53	777	44.0	-160130.0	63680.0	583546.0
29	17	44	53	778	45.0	-156685.0	63523.0	583571.0
29	17	44	53	778	46.0	-155169.0	63363.0	584349.0
29	17	44	53	779	47.0	-155643.0	63184.0	584951.0
29	17	44	53	779	48.0	-156651.0	63012.0	586305.0
29	17	44	53	780	49.0	-158856.0	62863.0	587546.0
29	17	44	53	781	50.0	-162386.0	62702.0	589446.0
29	17	44	53	794	51.0	-164309.0	62566.0	591381.0
29	17	44	53	795	52.0	-165275.0	62409.0	592028.0
29	17	44	53	796	53.0	-167401.0	62249.0	592669.0
29	17	44	53	796	54.0	-171861.0	62101.0	593669.0
29	17	44	53	797	55.0	-178264.0	61947.0	593919.0
29	17	44	53	798	56.0	-185786.0	61796.0	594536.0
29	17	44	53	798	57.0	-193522.0	61664.0	594357.0
29	17	44	53	799	58.0	-200654.0	61522.0	594319.0
29	17	44	53	817	59.0	-206554.0	61381.0	595816.0
29	17	44	53	818	60.0	-211616.0	61254.0	596612.0
29	17	44	53	818	61.0	-216817.0	61122.0	597066.0
29	17	44	53	819	62.0	-221721.0	60977.0	598327.0
29	17	44	53	820	63.0	-224427.0	60831.0	600438.0
29	17	44	53	820	64.0	-224950.0	60714.0	601706.0
29	17	44	53	821	65.0	-223632.0	60581.0	602934.0
29	17	44	53	822	66.0	-220906.0	60448.0	604313.0
29	17	44	53	822	67.0	-217970.0	60306.0	604810.0
29	17	44	53	823	68.0	-214961.0	60184.0	605925.0
29	17	44	53	823	69.0	-211897.0	60053.0	606886.0
29	17	44	53	824	70.0	-209433.0	59936.0	609054.0
29	17	44	53	825	71.0	-207006.0	59824.0	610624.0
29	17	44	53	840	72.0	-204397.0	59694.0	611221.0
29	17	44	53	841	73.0	-202433.0	59572.0	612162.0
29	17	44	53	842	74.0	-197817.0	59481.0	614181.0
29	17	44	53	843	75.0	-181184.0	59361.0	614745.0
29	17	44	53	843	76.0	-159689.0	59242.0	614226.0
29	17	44	53	844	77.0	-162878.0	59120.0	615240.0
29	17	44	53	845	78.0	-183919.0	59012.0	615933.0
29	17	44	53	845	79.0	-218569.0	58885.0	615869.0
29	17	44	53	846	80.0	-247890.0	58748.0	616164.0
29	17	44	53	846	81.0	-259141.0	58628.0	616543.0
29	17	44	53	847	82.0	-264200.0	58529.0	616599.0
29	17	44	53	848	83.0	-270929.0	58416.0	617263.0
29	17	44	53	849	84.0	-276816.0	58298.0	618122.0
29	17	44	53	849	85.0	-277770.0	58168.0	618586.0
29	17	44	53	850	86.0	-272067.0	58051.0	619894.0
29	17	44	53	863	87.0	-263070.0	57948.0	619624.0
29	17	44	53	864	88.0	-252857.0	57824.0	620596.0
29	17	44	53	865	89.0	-239780.0	57719.0	620637.0
29	17	44	53	865	90.0	-226964.0	57609.0	620779.0
29	17	44	53	866	91.0	-216325.0	57481.0	621674.0
29	17	44	53	867	92.0	-205302.0	57369.0	621496.0
29	17	44	53	867	93.0	-193045.0	57246.0	622614.0
29	17	44	53	868	94.0	-182090.0	57134.0	622223.0
29	17	44	53	869	95.0	-172546.0	57026.0	621419.0
29	17	44	53	885	96.0	-164215.0	56913.0	621608.0
29	17	44	53	886	97.0	-159812.0	56813.0	622202.0
29	17	44	53	887	98.0	-161485.0	56689.0	621496.0
29	17	44	53	887	99.0	-166408.0	56574.0	620935.0
29	17	44	53	888	100.0	-173389.0	56453.0	619223.0
29	17	44	53	889	101.0	-181401.0	56330.0	620500.0
29	17	44	53	889	102.0	-187419.0	56216.0	622449.0
29	17	44	53	890	103.0	-189385.0	56107.0	622974.0
29	17	44	53	909	104.0	-187787.0	56011.0	622711.0
29	17	44	53	910	105.0	-184879.0	55894.0	622356.0
29	17	44	53	911	106.0	-182122.0	55773.0	622884.0
29	17	44	53	912	107.0	-177924.0	55651.0	622560.0
29	17	44	53	912	108.0	-172896.0	55561.0	622601.0
29	17	44	53	913	109.0	-167012.0	55441.0	624062.0
29	17	44	53	914	110.0	-161290.0	55331.0	624576.0
29	17	44	53	914	111.0	-155782.0	55241.0	625013.0
29	17	44	53	932	112.0	-149854.0	55141.0	624894.0
29	17	44	53	933	113.0	-143956.0	55014.0	624380.0
29	17	44	53	934	114.0	-140447.0	54923.0	624847.0
29	17	44	53	935	115.0	-140699.0	54834.0	625116.0
29	17	44	53	935	116.0	-144107.0	54713.0	624706.0
29	17	44	53	936	117.0	-150376.0	54617.0	623921.0
29	17	44	53	937	118.0	-158304.0	54508.0	623869.0
29	17	44	53	937	119.0	-168060.0	54384.0	624541.0
29	17	44	53	938	120.0	-178114.0	54284.0	625250.0
29	17	44	53	939	121.0	-187061.0	54180.0	625622.0
29	17	44	53	940	122.0	-194656.0	54078.0	625534.0
29	17	44	53	940	123.0	-201065.0	53981.0	625223.0
29	17	44	53	941	124.0	-206314.0	53873.0	625163.0
29	17	44	53	941	125.0	-210393.0	53774.0	625959.0
29	17	44	53	942	126.0	-214269.0	53689.0	625703.0
29	17	44	53	943	127.0	-218714.0	53591.0	624961.0
29	17	44	53	943	128.0	-223734.0	53497.0	624685.0
29	17	44	53	944	129.0	-228953.0	53412.0	625134.0
29	17	44	53	944	130.0	-235137.0	53314.0	625346.0
29	17	44	53	945	131.0	-242012.0	53203.0	625030.0
29	17	44	53	946	132.0	-247620.0	53104.0	624837.0
29	17	44	53	956	133.0	-251648.0	53015.0	625025.0
29	17	44	53	957	134.0	-254052.0	52929.0	625384.0
29	17	44	53	957	135.0	-255642.0	52818.0	625099.0
29	17	44	53	958	136.0	-256356.0	52715.0	624365.0
29	17	44	53	959	137.0	-254257.0	52615.0	625681.0
29	17	44	53	959	138.0	-249511.0	52502.0	624916.0
29	17	44	53	960	139.0	-242539.0	52411.0	624462.0
29	17	44	53	961	140.0	-233304.0	52306.0	623608.0
29	17	44	53	985	141.0	-221723.0	52215.0	623259.0
29	17	44	53	986	142.0	-208946.0	52138.0	624118.0
29	17	44	53	986	143.0	-197159.0	52035.0	624011.0
29	17	44	53	987	144.0	-187002.0	51922.0	623727.0
29	17	44	53	987	145.0	-178347.0	51794.0	623236.0
29	17	44	53	988	146.0	-171765.0	51692.0	623502.0
29	17	44	53	988	147.0	-167944.0	51593.0	623170.0
29	17	44	54	5	148.0	-167424.0	51502.0	622921.0
29	17	44	54	5	149.0	-169594.0	51409.0	623388.0
29	17	44	54	6	150.0	-172881.0	51306.0	624252.0
29	17	44	54	7	151.0	-176636.0	51185.0	625003.0
29	17	44	54	7	152.0	-180328.0	51104.0	625468.0
29	17	44	54	8	153.0	-183396.0	51006.0	625713.0
29	17	44	54	8	154.0	-185094.0	50887.0	625934.0
29	17	44	54	9	155.0	-185337.0	50779.0	626371.0
29	17	44	54	10	156.0	-184869.0	50680.0	626888.0
29	17	44	54	10	157.0	-183929.0	50572.0	626672.0
29	17	44	54	11	158.0	-182944.0	50481.0	626343.0
29	17	44	54	11	159.0	-181766.0	50388.0	626375.0
29	17	44	54	12	160.0	-180426.0	50289.0	625553.0
29	17	44	54	12	161.0	-178713.0	50183.0	624781.0
29	17	44	54	13	162.0	-177171.0	50081.0	624422.0
29	17	44	54	13	163.0	-176402.0	49997.0	624016.0
29	17	44	54	14	164.0	-176153.0	49884.0	623511.0
29	17	44	54	15	165.0	-174778.0	49790.0	624319.0
29	17	44	54	15	166.0	-173187.0	49693.0	624219.0
29	17	44	54	16	167.0	-172551.0	49598.0	624321.0
29	17	44	54	16	168.0	-173892.0	49497.0	624466.0
29	17	44	54	28	169.0	-177954.0	49410.0	624327.0
29	17	44	54	28	170.0	-184558.0	49276.0	624542.0
29	17	44	54	29	171.0	-194002.0	49179.0	624583.0
29	17	44	54	30	172.0	-205063.0	49083.0	623788.0
29	17	44	54	30	173.0	-216308.0	48968.0	622974.0
29	17	44	54	31	174.0	-226574.0	48863.0	622101.0
29	17	44	54	31	175.0	-234849.0	48763.0	621696.0
29	17	44	54	32	176.0	-240246.0	48630.0	621215.0
29	17	44	54	33	177.0	-242957.0	48503.0	622086.0
29	17	44	54	33	178.0	-243854.0	48377.0	622789.0
29	17	44	54	50	179.0	-243529.0	48258.0	623353.0
29	17	44	54	51	180.0	-241915.0	48144.0	622363.0
29	17	44	54	52	181.0	-238336.0	48004.0	622283.0
29	17	44	54	52	182.0	-232206.0	47879.0	621941.0
29	17	44	54	53	183.0	-223139.0	47766.0	621302.0
29	17	44	54	53	184.0	-211564.0	47653.0	621041.0
29	17	44	54	73	185.0	-198714.0	47528.0	620966.0
29	17	44	54	74	186.0	-186103.0	47406.0	620593.0
29	17	44	54	74	187.0	-174978.0	47276.0	620216.0
29	17	44	54	75	188.0	-166073.0	47147.0	620919.0
29	17	44	54	75	189.0	-157898.0	47011.0	621045.0
29	17	44	54	76	190.0	-150684.0	46880.0	621298.0
29	17	44	54	77	191.0	-144323.0	46761.0	621040.0
29	17	44	54	77	192.0	-138458.0	46633.0	621901.0
29	17	44	54	78	193.0	-134085.0	46503.0	623203.0
29	17	44	54	78	194.0	-131342.0	46369.0	623148.0
29	17	44	54	79	195.0	-130897.0	46228.0	622655.0
29	17	44	54	80	196.0	-132067.0	46081.0	623023.0
29	17	44	54	80	197.0	-135024.0	45943.0	622586.0
29	17	44	54	81	198.0	-139749.0	45853.0	622180.0
29	17	44	54	81	199.0	-145399.0	45708.0	622751.0
29	17	44	54	82	200.0	-152248.0	45549.0	623179.0
29	17	44	54	82	201.0	-159146.0	45434.0	623604.0
29	17	44	54	95	202.0	-165362.0	45309.0	624532.0
29	17	44	54	96	203.0	-170071.0	45196.0	625446.0
29	17	44	54	97	204.0	-171291.0	45066.0	626697.0
29	17	44	54	97	205.0	-171267.0	44912.0	629736.0
29	17	44	54	98	206.0	-170799.0	44799.0	632083.0
29	17	44	54	98	207.0	-170375.0	44668.0	634249.0
29	17	44	54	118	208.0	-170543.0	44544.0	635788.0
29	17	44	54	119	209.0	-171844.0	44432.0	636943.0
29	17	44	54	119	210.0	-173602.0	44311.0	637144.0
29	17	44	54	120	211.0	-175964.0	44164.0	637396.0
29	17	44	54	120	212.0	-180091.0	44032.0	638523.0
29	17	44	54	121	213.0	-185987.0	43909.0	639395.0
29	17	44	54	122	214.0	-193779.0	43761.0	638504.0
29	17	44	54	122	215.0	-203869.0	43629.0	638438.0
29	17	44	54	123	216.0	-214256.0	43515.0	640108.0
29	17	44	54	123	217.0	-224652.0	43391.0	640446.0
29	17	44	54	124	218.0	-234545.0	43246.0	639143.0
29	17	44	54	125	219.0	-242057.0	43103.0	639461.0
29	17	44	54	125	220.0	-247560.0	42991.0	639949.0
29	17	44	54	126	221.0	-251581.0	42854.0	640253.0
29	17	44	54	126	222.0	-254451.0	42728.0	640540.0
29	17	44	54	142	223.0	-256043.0	42603.0	640105.0
29	17	44	54	143	224.0	-254834.0	42465.0	639504.0
29	17	44	54	143	225.0	-250479.0	42335.0	639776.0
29	17	44	54	144	226.0	-243029.0	42174.0	639806.0
29	17	44	54	144	227.0	-233859.0	42051.0	640586.0
29	17	44	54	145	228.0	-223535.0	41898.0	641109.0
29	17	44	54	145	229.0	-213614.0	41782.0	641643.0
29	17	44	54	146	230.0	-205819.0	41640.0	641705.0
29	17	44	54	165	231.0	-197599.0	41504.0	641819.0
29	17	44	54	166	232.0	-188906.0	41367.0	642489.0
29	17	44	54	166	233.0	-180081.0	41207.0	642446.0
29	17	44	54	167	234.0	-171381.0	41049.0	642037.0
29	17	44	54	168	235.0	-160980.0	40889.0	643643.0
29	17	44	54	168	236.0	-139762.0	40771.0	646194.0
29	17	44	54	169	237.0	-143357.0	40599.0	647402.0
29	17	44	54	169	238.0	-152822.0	40426.0	650827.0
29	17	44	54	170	239.0	-148431.0	40308.0	654722.0
29	17	44	54	170	240.0	-147699.0	40176.0	657749.0
29	17	44	54	171	241.0	-149058.0	40011.0	659640.0
29	17	44	54	172	242.0	-152441.0	39863.0	662736.0
29	17	44	54	172	243.0	-154209.0	39715.0	664489.0
29	17	44	54	173	244.0	-154885.0	39554.0	666388.0
29	17	44	54	173	245.0	-154353.0	39426.0	667774.0
29	17	44	54	174	246.0	-153327.0	39266.0	668719.0
29	17	44	54	188	247.0	-151714.0	39110.0	669065.0
29	17	44	54	188	248.0	-150889.0	38987.0	670328.0
29	17	44	54	189	249.0	-151263.0	38853.0	671632.0
29	17	44	54	189	250.0	-152861.0	38681.0	673653.0
29	17	44	54	190	251.0	-155251.0	38518.0	675117.0
29	17	44	54	210	252.0	-158412.0	38400.0	676715.0
29	17	44	54	211	253.0	-161642.0	38276.0	677839.0
29	17	44	54	211	254.0	-165579.0	38136.0	679386.0
29	17	44	54	212	255.0	-170158.0	37991.0	681148.0
29	17	44	54	213	0.0	-175463.0	37847.0	682548.0
29	17	44	54	213	1.0	-181937.0	37724.0	682524.0
29	17	44	54	214	2.0	-190287.0	37606.0	682357.0
29	17	44	54	214	3.0	-199594.0	37449.0	683441.0
29	17	44	54	215	4.0	-210938.0	37326.0	684735.0
29	17	44	54	216	5.0	-225858.0	37202.0	684664.0
29	17	44	54	216	6.0	-243519.0	37066.0	685074.0
29	17	44	54	217	7.0	-262194.0	36943.0	686699.0
29	17	44	54	217	8.0	-279957.0	36815.0	688393.0
29	17	44	54	218	9.0	-294802.0	36683.0	687769.0
29	17	44	54	218	10.0	-306140.0	36556.0	688464.0
29	17	44	54	219	11.0	-314900.0	36413.0	689494.0
29	17	44	54	233	12.0	-316677.0	36307.0	690288.0
29	17	44	54	234	13.0	-310977.0	36163.0	692419.0
29	17	44	54	235	14.0	-302406.0	36034.0	697017.0
29	17	44	54	235	15.0	-291627.0	35892.0	699644.0
29	17	44	54	236	16.0	-281103.0	35743.0	700636.0
29	17	44	54	237	17.0	-270787.0	35620.0	701463.0
29	17	44	54	237	18.0	-261269.0	35501.0	702769.0
29	17	44	54	238	19.0	-254304.0	35362.0	703696.0
29	17	44	54	238	20.0	-247092.0	35264.0	704511.0
29	17	44	54	239	21.0	-241046.0	35150.0	704976.0
29	17	44	54	239	22.0	-233009.0	35014.0	704131.0
29	17	44	54	240	23.0	-224161.0	34907.0	703686.0
29	17	44	54	241	24.0	-216032.0	34793.0	703696.0
29	17	44	54	241	25.0	-205750.0	34688.0	704316.0
29	17	44	54	242	26.0	-197732.0	34581.0	704966.0
29	17	44	54	256	27.0	-191831.0	34484.0	705112.0
29	17	44	54	257	28.0	-187172.0	34375.0	705923.0
29	17	44	54	257	29.0	-186097.0	34285.0	706722.0
29	17	44	54	258	30.0	-185289.0	34162.0	707289.0
29	17	44	54	258	31.0	-186340.0	34070.0	707909.0
29	17	44	54	259	32.0	-189709.0	33974.0	707639.0
29	17	44	54	260	33.0	-191346.0	33853.0	707337.0
29	17	44	54	260	34.0	-193689.0	33749.0	707024.0
29	17	44	54	279	35.0	-195268.0	33664.0	707223.0
29	17	44	54	280	36.0	-195256.0	33569.0	707766.0
29	17	44	54	280	37.0	-196597.0	33459.0	708053.0
29	17	44	54	302	38.0	-197871.0	33366.0	707684.0
29	17	44	54	302	39.0	-200286.0	33259.0	707164.0
29	17	44	54	303	40.0	-204167.0	33137.0	706790.0
29	17	44	54	304	41.0	-208371.0	33028.0	707448.0
29	17	44	54	304	42.0	-214659.0	32916.0	706669.0
29	17	44	54	305	43.0	-220828.0	32816.0	706831.0
29	17	44	54	305	44.0	-226082.0	32727.0	707188.0
29	17	44	54	306	45.0	-231315.0	32621.0	706959.0
29	17	44	54	307	46.0	-235713.0	32520.0	706719.0
29	17	44	54	307	47.0	-238147.0	32432.0	706541.0
29	17	44	54	308	48.0	-238834.0	32335.0	706265.0
29	17	44	54	308	49.0	-238191.0	32250.0	706095.0
29	17	44	54	309	50.0	-235324.0	32145.0	705801.0
29	17	44	54	325	51.0	-230803.0	32070.0	705298.0
29	17	44	54	326	52.0	-226382.0	32004.0	704453.0
29	17	44	54	327	53.0	-221920.0	31899.0	703721.0
29	17	44	54	327	54.0	-215783.0	31798.0	702179.0
29	17	44	54	328	55.0	-209009.0	31721.0	701163.0
29	17	44	54	329	56.0	-202227.0	31650.0	699946.0
29	17	44	54	329	57.0	-195059.0	31569.0	697965.0
29	17	44	54	330	58.0	-187884.0	31466.0	696689.0
29	17	44	54	331	59.0	-181276.0	31395.0	695584.0
29	17	44	54	331	60.0	-175637.0	31323.0	693757.0
29	17	44	54	332	61.0	-170743.0	31245.0	692631.0
29	17	44	54	332	62.0	-167581.0	31163.0	689425.0
29	17	44	54	333	63.0	-166984.0	31108.0	687213.0
29	17	44	54	333	64.0	-168472.0	31032.0	687414.0
29	17	44	54	334	65.0	-171346.0	30955.0	687044.0
29	17	44	54	335	66.0	-173822.0	30898.0	685192.0
29	17	44	54	335	67.0	-175481.0	30799.0	682718.0
29	17	44	54	336	68.0	-176888.0	30715.0	681664.0
29	17	44	54	336	69.0	-177232.0	30663.0	681368.0
29	17	44	54	337	70.0	-176191.0	30569.0	681743.0
29	17	44	54	347	71.0	-174311.0	30485.0	684669.0
29	17	44	54	348	72.0	-171351.0	30423.0	686025.0
29	17	44	54	349	73.0	-168159.0	30371.0	683409.0
29	17	44	54	349	74.0	-164491.0	30277.0	684160.0
29	17	44	54	350	75.0	-160725.0	30193.0	688300.0
29	17	44	54	350	76.0	-157765.0	30129.0	692377.0
29	17	44	54	351	77.0	-156274.0	30064.0	696239.0
29	17	44	54	369	78.0	-156847.0	29996.0	699273.0
29	17	44	54	370	79.0	-159416.0	29923.0	701135.0
29	17	44	54	371	80.0	-164294.0	29855.0	702422.0
29	17	44	54	371	81.0	-171890.0	29777.0	704989.0
29	17	44	54	372	82.0	-182388.0	29709.0	706728.0
29	17	44	54	373	83.0	-195257.0	29641.0	706594.0
29	17	44	54	373	84.0	-208906.0	29557.0	706514.0
29	17	44	54	374	85.0	-220437.0	29473.0	706495.0
29	17	44	54	375	86.0	-232156.0	29400.0	704969.0
29	17	44	54	375	87.0	-241177.0	29331.0	705789.0
29	17	44	54	376	88.0	-249415.0	29274.0	706876.0
29	17	44	54	376	89.0	-254532.0	29217.0	706710.0
29	17	44	54	377	90.0	-257569.0	29124.0	705884.0
29	17	44	54	377	91.0	-257938.0	29044.0	702272.0
29	17	44	54	378	92.0	-254551.0	28968.0	697746.0
29	17	44	54	379	93.0	-242177.0	28888.0	693654.0
29	17	44	54	392	94.0	-221350.0	28809.0	690173.0
29	17	44	54	392	95.0	-196553.0	28747.0	686346.0
29	17	44	54	393	96.0	-169741.0	28693.0	682943.0
29	17	44	54	394	97.0	-148564.0	28629.0	682233.0
29	17	44	54	394	98.0	-131041.0	28552.0	681173.0
29	17	44	54	395	99.0	-120871.0	28477.0	679808.0
29	17	44	54	395	100.0	-113101.0	28398.0	678292.0
29	17	44	54	396	101.0	-117356.0	28353.0	676519.0
29	17	44	54	415	102.0	-135501.0	28311.0	674795.0
29	17	44	54	415	103.0	-164085.0	28256.0	674462.0
29	17	44	54	416	104.0	-198864.0	28206.0	675193.0
29	17	44	54	417	105.0	-234494.0	28157.0	674838.0
29	17	44	54	417	106.0	-268157.0	28088.0	673579.0
29	17	44	54	418	107.0	-297592.0	28028.0	671453.0
29	17	44	54	418	108.0	-316117.0	27961.0	669481.0
29	17	44	54	419	109.0	-325117.0	27913.0	667611.0
29	17	44	54	420	110.0	-307857.0	27844.0	666197.0
29	17	44	54	420	111.0	-263657.0	27796.0	664534.0
29	17	44	54	421	112.0	-215932.0	27748.0	661978.0
29	17	44	54	422	113.0	-181177.0	27674.0	660371.0
29	17	44	54	422	114.0	-159815.0	27612.0	658979.0
29	17	44	54	423	115.0	-146369.0	27552.0	657708.0
29	17	44	54	423	116.0	-146961.0	27473.0	657055.0
29	17	44	54	436	117.0	-160056.0	27403.0	655919.0
29	17	44	54	437	118.0	-175950.0	27346.0	654818.0
29	17	44	54	438	119.0	-190572.0	27267.0	653734.0
29	17	44	54	438	120.0	-197982.0	27193.0	652618.0
29	17	44	54	439	121.0	-198311.0	27135.0	652016.0
29	17	44	54	439	122.0	-195207.0	27078.0	650938.0
29	17	44	54	440	123.0	-191357.0	27018.0	647314.0
29	17	44	54	460	124.0	-191150.0	26966.0	644484.0
29	17	44	54	460	125.0	-195074.0	26892.0	642290.0
29	17	44	54	461	126.0	-195717.0	26819.0	640718.0
29	17	44	54	462	127.0	-188757.0	26761.0	640002.0
29	17	44	54	462	128.0	-174791.0	26676.0	638898.0
29	17	44	54	463	129.0	-157106.0	26624.0	638681.0
29	17	44	54	464	130.0	-139494.0	26564.0	639484.0
29	17	44	54	464	131.0	-124124.0	26481.0	641347.0
29	17	44	54	465	132.0	-114287.0	26413.0	641681.0
29	17	44	54	466	133.0	-111291.0	26336.0	639823.0
29	17	44	54	466	134.0	-115153.0	26271.0	638451.0
29	17	44	54	467	135.0	-123576.0	26184.0	638418.0
29	17	44	54	467	136.0	-134347.0	26105.0	637433.0
29	17	44	54	468	137.0	-146676.0	26036.0	636719.0
29	17	44	54	469	138.0	-159118.0	25918.0	635827.0
29	17	44	54	481	139.0	-171144.0	25851.0	635897.0
29	17	44	54	482	140.0	-182721.0	25781.0	634703.0
29	17	44	54	483	141.0	-192724.0	25700.0	633322.0
29	17	44	54	484	142.0	-200083.0	25589.0	632629.0
29	17	44	54	484	143.0	-205777.0	25501.0	631509.0
29	17	44	54	485	144.0	-207711.0	25394.0	631014.0
29	17	44	54	485	145.0	-208895.0	25298.0	630640.0
29	17	44	54	486	146.0	-206249.0	25204.0	629600.0
29	17	44	54	505	147.0	-202827.0	25118.0	629286.0
29	17	44	54	506	148.0	-196204.0	25014.0	629295.0
29	17	44	54	506	149.0	-188668.0	24903.0	629067.0
29	17	44	54	507	150.0	-182068.0	24814.0	628508.0
29	17	44	54	508	151.0	-174878.0	24726.0	627929.0
29	17	44	54	508	152.0	-170066.0	24626.0	627158.0
29	17	44	54	509	153.0	-165275.0	24532.0	626301.0
29	17	44	54	509	154.0	-164114.0	24438.0	625979.0
29	17	44	54	510	155.0	-163323.0	24347.0	625541.0
29	17	44	54	511	156.0	-166982.0	24229.0	625020.0
29	17	44	54	511	157.0	-170357.0	24135.0	624447.0
29	17	44	54	512	158.0	-175821.0	24044.0	623410.0
29	17	44	54	513	159.0	-181649.0	23954.0	622739.0
29	17	44	54	513	160.0	-188614.0	23853.0	621674.0
29	17	44	54	514	161.0	-195594.0	23751.0	621344.0
29	17	44	54	527	162.0	-200497.0	23663.0	621009.0
29	17	44	54	528	163.0	-206739.0	23583.0	620185.0
29	17	44	54	529	164.0	-210911.0	23485.0	619264.0
29	17	44	54	529	165.0	-216007.0	23392.0	616913.0
29	17	44	54	530	166.0	-218719.0	23279.0	614293.0
29	17	44	54	531	167.0	-220002.0	23204.0	612529.0
29	17	44	54	531	168.0	-221122.0	23118.0	610904.0
29	17	44	54	549	169.0	-219626.0	23033.0	607255.0
29	17	44	54	550	170.0	-218084.0	22948.0	605514.0
29	17	44	54	551	171.0	-215131.0	22853.0	603786.0
29	17	44	54	551	172.0	-210592.0	22773.0	601953.0
29	17	44	54	552	173.0	-207829.0	22701.0	600184.0
29	17	44	54	553	174.0	-205057.0	22602.0	597253.0
29	17	44	54	553	175.0	-203915.0	22518.0	594413.0
29	17	44	54	554	176.0	-203033.0	22433.0	590867.0
29	17	44	54	555	177.0	-201421.0	22346.0	587794.0
29	17	44	54	556	178.0	-201009.0	22280.0	585655.0
29	17	44	54	556	179.0	-198567.0	22148.0	584110.0
29	17	44	54	557	180.0	-196239.0	22031.0	580936.0
29	17	44	54	557	181.0	-192772.0	21926.0	578833.0
29	17	44	54	558	182.0	-189038.0	21808.0	576596.0
29	17	44	54	558	183.0	-184898.0	21671.0	574428.0
29	17	44	54	571	184.0	-181515.0	21568.0	572754.0
29	17	44	54	572	185.0	-176887.0	21460.0	570786.0
29	17	44	54	572	186.0	-174653.0	21346.0	569428.0
29	17	44	54	573	187.0	-178084.0	21211.0	569019.0
29	17	44	54	574	188.0	-180327.0	21045.0	568849.0
