29	18	5	46	964	168.0	-257900.0	-688.0	3149.0
29	18	5	46	966	169.0	-263969.0	-651.0	2774.0
29	18	5	46	969	170.0	-270516.0	-621.0	2836.0
29	18	5	46	971	171.0	-277369.0	-609.0	3184.0
29	18	5	46	973	172.0	-284801.0	-583.0	3237.0
29	18	5	46	975	173.0	-292371.0	-560.0	3094.0
29	18	5	46	977	174.0	-300108.0	-531.0	3241.0
29	18	5	46	979	175.0	-307604.0	-523.0	3011.0
29	18	5	46	981	176.0	-314229.0	-517.0	3241.0
29	18	5	46	983	177.0	-319974.0	-511.0	3053.0
29	18	5	46	984	178.0	-324951.0	-501.0	2801.0
29	18	5	46	985	179.0	-328132.0	-492.0	2958.0
29	18	5	46	986	180.0	-328907.0	-475.0	2580.0
29	18	5	46	987	181.0	-326752.0	-469.0	2627.0
29	18	5	46	987	182.0	-321157.0	-456.0	2474.0
29	18	5	46	996	183.0	-308247.0	-457.0	1910.0
29	18	5	46	997	184.0	-280311.0	-445.0	2058.0
29	18	5	46	998	185.0	-239835.0	-436.0	2644.0
29	18	5	46	998	186.0	-207878.0	-404.0	3322.0
29	18	5	46	999	187.0	-209142.0	-382.0	2756.0
29	18	5	47	0	188.0	-226861.0	-352.0	2657.0
29	18	5	47	0	189.0	-240309.0	-332.0	2464.0
29	18	5	47	1	190.0	-256572.0	-317.0	2660.0
29	18	5	47	25	191.0	-276953.0	-273.0	2700.0
29	18	5	47	112	192.0	-294025.0	-272.0	2353.0
29	18	5	47	114	193.0	-298909.0	-284.0	2076.0
29	18	5	47	115	194.0	-297480.0	-296.0	1683.0
29	18	5	47	115	195.0	-287691.0	-282.0	1889.0
29	18	5	47	116	196.0	-272625.0	-304.0	1958.0
29	18	5	47	116	197.0	-257761.0	-310.0	1379.0
29	18	5	47	117	198.0	-246644.0	-324.0	1525.0
29	18	5	47	117	199.0	-242366.0	-312.0	2151.0
29	18	5	47	118	200.0	-243064.0	-296.0	1968.0
29	18	5	47	119	201.0	-244596.0	-285.0	2078.0
29	18	5	47	119	202.0	-246784.0	-306.0	1938.0
29	18	5	47	120	203.0	-249817.0	-307.0	2081.0
29	18	5	47	157	204.0	-251084.0	-306.0	1708.0
29	18	5	47	171	205.0	-250356.0	-303.0	1404.0
29	18	5	47	172	206.0	-247637.0	-317.0	1533.0
29	18	5	47	173	246.0	-277077.0	-1204.0	-910.0
29	18	5	47	173	247.0	-277785.0	-1236.0	-942.0
29	18	5	47	174	248.0	-278139.0	-1242.0	-870.0
29	18	5	47	174	249.0	-278190.0	-1253.0	-862.0
29	18	5	47	175	250.0	-277813.0	-1281.0	-841.0
29	18	5	47	176	251.0	-276672.0	-1287.0	-807.0
29	18	5	47	176	252.0	-274776.0	-1326.0	-1476.0
29	18	5	47	177	253.0	-271803.0	-1369.0	-1621.0
29	18	5	47	177	254.0	-267317.0	-1396.0	-1370.0
29	18	5	47	178	255.0	-261722.0	-1409.0	-1934.0
29	18	5	47	178	0.0	-255354.0	-1428.0	-2501.0
29	18	5	47	179	1.0	-248194.0	-1466.0	-2346.0
29	18	5	47	179	13.0	-171652.0	-1652.0	-632.0
29	18	5	47	180	14.0	-170557.0	-1648.0	-885.0
29	18	5	47	180	15.0	-169667.0	-1650.0	-706.0
29	18	5	47	181	16.0	-169625.0	-1636.0	103.0
29	18	5	47	182	17.0	-170360.0	-1649.0	-500.0
29	18	5	47	182	18.0	-171181.0	-1653.0	-821.0
29	18	5	47	201	19.0	-172127.0	-1652.0	-379.0
29	18	5	47	202	20.0	-173337.0	-1664.0	-484.0
29	18	5	47	202	21.0	-175017.0	-1665.0	-506.0
29	18	5	47	203	22.0	-177451.0	-1670.0	-284.0
29	18	5	47	204	23.0	-180337.0	-1679.0	197.0
29	18	5	47	204	24.0	-183696.0	-1674.0	659.0
29	18	5	47	205	25.0	-187497.0	-1642.0	-61.0
29	18	5	47	205	26.0	-191354.0	-1651.0	357.0
29	18	5	47	206	27.0	-195339.0	-1644.0	857.0
29	18	5	47	207	28.0	-199776.0	-1645.0	772.0
29	18	5	47	207	29.0	-204381.0	-1662.0	659.0
29	18	5	47	208	30.0	-208762.0	-1664.0	1246.0
29	18	5	47	208	31.0	-212645.0	-1658.0	1144.0
29	18	5	47	209	32.0	-215701.0	-1658.0	998.0
29	18	5	47	209	33.0	-218173.0	-1646.0	897.0
29	18	5	47	210	35.0	-221018.0	-1661.0	945.0
29	18	5	47	211	36.0	-221714.0	-1658.0	1075.0
29	18	5	47	211	37.0	-221614.0	-1627.0	1162.0
29	18	5	47	212	38.0	-220557.0	-1642.0	1173.0
29	18	5	47	212	39.0	-219237.0	-1649.0	777.0
29	18	5	47	213	40.0	-217344.0	-1656.0	619.0
29	18	5	47	247	41.0	-215536.0	-1646.0	1769.0
29	18	5	47	247	42.0	-213238.0	-1626.0	1324.0
29	18	5	47	248	43.0	-211023.0	-1639.0	1169.0
29	18	5	47	248	44.0	-208549.0	-1631.0	991.0
29	18	5	47	249	45.0	-206094.0	-1632.0	1134.0
29	18	5	47	249	46.0	-203728.0	-1659.0	756.0
29	18	5	47	250	47.0	-201526.0	-1663.0	880.0
29	18	5	47	251	48.0	-199176.0	-1681.0	1045.0
29	18	5	47	251	49.0	-197009.0	-1685.0	1431.0
29	18	5	47	252	50.0	-195360.0	-1709.0	1560.0
29	18	5	47	252	51.0	-193842.0	-1721.0	1776.0
29	18	5	47	253	52.0	-192424.0	-1729.0	2587.0
29	18	5	47	253	53.0	-191149.0	-1746.0	2640.0
29	18	5	47	254	54.0	-190207.0	-1746.0	2304.0
29	18	5	47	255	55.0	-189862.0	-1755.0	2100.0
29	18	5	47	255	57.0	-190087.0	-1760.0	564.0
29	18	5	47	256	58.0	-190892.0	-1751.0	-322.0
29	18	5	47	256	59.0	-192506.0	-1752.0	-901.0
29	18	5	47	257	60.0	-194561.0	-1743.0	-2368.0
29	18	5	47	257	61.0	-196297.0	-1727.0	-4471.0
29	18	5	47	258	62.0	-198288.0	-1707.0	-6812.0
29	18	5	47	258	63.0	-200658.0	-1699.0	-8064.0
29	18	5	47	337	64.0	-203262.0	-1686.0	-7094.0
29	18	5	47	338	65.0	-206039.0	-1663.0	-4802.0
29	18	5	47	339	66.0	-208533.0	-1693.0	-5073.0
29	18	5	47	339	67.0	-210141.0	-1691.0	-7243.0
29	18	5	47	340	68.0	-210203.0	-1681.0	-7996.0
29	18	5	47	340	69.0	-207716.0	-1707.0	-8584.0
29	18	5	47	341	70.0	-202876.0	-1710.0	-7016.0
29	18	5	47	342	71.0	-195854.0	-1711.0	-3575.0
29	18	5	47	342	72.0	-187047.0	-1734.0	-954.0
29	18	5	47	343	73.0	-177416.0	-1763.0	497.0
29	18	5	47	343	74.0	-167866.0	-1762.0	1168.0
29	18	5	47	344	75.0	-160010.0	-1752.0	2569.0
29	18	5	47	344	76.0	-154757.0	-1752.0	721.0
29	18	5	47	345	77.0	-153136.0	-1758.0	-1237.0
29	18	5	47	346	78.0	-155607.0	-1767.0	-136.0
29	18	5	47	346	102.0	-209646.0	-2099.0	-3479.0
29	18	5	47	347	103.0	-186318.0	-2123.0	-3473.0
29	18	5	47	348	104.0	-176127.0	-2132.0	-3419.0
29	18	5	47	349	105.0	-173096.0	-2147.0	-2697.0
29	18	5	47	350	106.0	-177042.0	-2150.0	-2992.0
29	18	5	47	351	107.0	-188892.0	-2165.0	-3143.0
29	18	5	47	351	108.0	-202947.0	-2191.0	-3534.0
29	18	5	47	381	109.0	-211343.0	-2188.0	-3411.0
29	18	5	47	382	110.0	-211280.0	-2186.0	-3311.0
29	18	5	47	383	111.0	-205599.0	-2204.0	-3106.0
29	18	5	47	383	112.0	-199393.0	-2224.0	-3620.0
29	18	5	47	384	113.0	-194447.0	-2242.0	-2621.0
29	18	5	47	384	114.0	-189271.0	-2297.0	-2754.0
29	18	5	47	385	115.0	-181847.0	-2322.0	-3292.0
29	18	5	47	386	116.0	-172248.0	-2354.0	-3344.0
29	18	5	47	386	117.0	-163607.0	-2374.0	-3346.0
29	18	5	47	387	118.0	-157489.0	-2390.0	-3251.0
29	18	5	47	387	119.0	-153368.0	-2418.0	-3544.0
29	18	5	47	388	120.0	-149806.0	-2445.0	-3112.0
29	18	5	47	388	121.0	-146033.0	-2475.0	-2692.0
29	18	5	47	389	122.0	-142471.0	-2496.0	-3077.0
29	18	5	47	390	123.0	-140144.0	-2507.0	-3014.0
29	18	5	47	390	125.0	-142869.0	-2566.0	-3467.0
29	18	5	47	391	126.0	-147445.0	-2566.0	-3263.0
29	18	5	47	391	127.0	-152688.0	-2569.0	-3837.0
29	18	5	47	392	128.0	-158106.0	-2567.0	-3246.0
29	18	5	47	392	129.0	-162980.0	-2548.0	-2853.0
29	18	5	47	393	130.0	-167387.0	-2529.0	-3313.0
29	18	5	47	427	131.0	-170807.0	-2483.0	-2750.0
29	18	5	47	428	132.0	-172159.0	-2500.0	-3213.0
29	18	5	47	428	133.0	-172114.0	-2511.0	-3175.0
29	18	5	47	429	134.0	-171309.0	-2494.0	-2780.0
29	18	5	47	430	135.0	-169543.0	-2527.0	-2716.0
29	18	5	47	430	136.0	-167641.0	-2528.0	-3316.0
29	18	5	47	431	137.0	-164818.0	-2551.0	-3272.0
29	18	5	47	431	138.0	-160453.0	-2554.0	-3021.0
29	18	5	47	432	139.0	-155707.0	-2587.0	-2829.0
29	18	5	47	433	140.0	-151155.0	-2622.0	-3208.0
29	18	5	47	433	141.0	-147072.0	-2643.0	-3379.0
29	18	5	47	434	142.0	-143892.0	-2647.0	-3419.0
29	18	5	47	434	143.0	-141789.0	-2661.0	-3328.0
29	18	5	47	435	144.0	-140634.0	-2680.0	-3461.0
29	18	5	47	435	145.0	-140596.0	-2717.0	-3308.0
29	18	5	47	436	147.0	-145462.0	-2724.0	-2679.0
29	18	5	47	437	148.0	-150156.0	-2711.0	-2289.0
29	18	5	47	437	149.0	-155806.0	-2719.0	-2821.0
29	18	5	47	438	150.0	-161632.0	-2718.0	-2391.0
29	18	5	47	438	151.0	-167283.0	-2719.0	-2550.0
29	18	5	47	439	152.0	-172676.0	-2722.0	-2936.0
29	18	5	47	439	153.0	-177755.0	-2734.0	-2771.0
29	18	5	47	471	154.0	-182584.0	-2742.0	-2416.0
29	18	5	47	471	155.0	-186597.0	-2729.0	-2756.0
29	18	5	47	472	156.0	-190150.0	-2713.0	-2469.0
29	18	5	47	473	157.0	-193398.0	-2714.0	-1816.0
29	18	5	47	473	158.0	-196351.0	-2723.0	-1629.0
29	18	5	47	474	159.0	-199664.0	-2723.0	-1652.0
29	18	5	47	474	160.0	-202776.0	-2735.0	-1371.0
29	18	5	47	475	161.0	-205279.0	-2722.0	-996.0
29	18	5	47	476	162.0	-206565.0	-2714.0	-1003.0
29	18	5	47	476	163.0	-206816.0	-2718.0	-684.0
29	18	5	47	477	164.0	-206649.0	-2740.0	-639.0
29	18	5	47	477	165.0	-206178.0	-2720.0	-1142.0
29	18	5	47	478	166.0	-205560.0	-2720.0	-656.0
29	18	5	47	479	167.0	-204741.0	-2707.0	-161.0
29	18	5	47	479	168.0	-203294.0	-2684.0	-62.0
29	18	5	47	480	170.0	-197950.0	-2677.0	-234.0
29	18	5	47	480	171.0	-195534.0	-2677.0	758.0
29	18	5	47	481	172.0	-194287.0	-2652.0	842.0
29	18	5	47	481	173.0	-193290.0	-2606.0	614.0
29	18	5	47	482	174.0	-192222.0	-2578.0	921.0
29	18	5	47	483	175.0	-191033.0	-2574.0	1024.0
29	18	5	47	516	176.0	-190051.0	-2541.0	936.0
29	18	5	47	517	177.0	-189044.0	-2529.0	942.0
29	18	5	47	561	178.0	-188290.0	-2497.0	1390.0
29	18	5	47	562	179.0	-187933.0	-2467.0	1221.0
29	18	5	47	563	180.0	-188014.0	-2439.0	1315.0
29	18	5	47	564	181.0	-188114.0	-2402.0	1317.0
29	18	5	47	564	182.0	-188272.0	-2352.0	1496.0
29	18	5	47	565	183.0	-188208.0	-2303.0	1519.0
29	18	5	47	565	184.0	-187761.0	-2269.0	806.0
29	18	5	47	566	185.0	-187274.0	-2214.0	393.0
29	18	5	47	567	186.0	-186997.0	-2163.0	999.0
29	18	5	47	567	187.0	-187196.0	-2140.0	624.0
29	18	5	47	568	188.0	-187552.0	-2094.0	177.0
29	18	5	47	568	189.0	-187969.0	-2046.0	-314.0
29	18	5	47	569	190.0	-188861.0	-2018.0	-23.0
29	18	5	47	569	192.0	-191144.0	-1946.0	-1195.0
29	18	5	47	570	193.0	-192331.0	-1906.0	-1337.0
29	18	5	47	571	194.0	-193708.0	-1873.0	-2084.0
29	18	5	47	571	215.0	-277967.0	-1162.0	-2926.0
29	18	5	47	572	216.0	-281814.0	-1099.0	-3092.0
29	18	5	47	572	217.0	-283809.0	-1077.0	-2823.0
29	18	5	47	573	218.0	-283755.0	-1049.0	-2572.0
29	18	5	47	574	219.0	-280755.0	-1017.0	-2692.0
29	18	5	47	574	220.0	-273639.0	-988.0	-2592.0
29	18	5	47	607	221.0	-258319.0	-957.0	-3009.0
29	18	5	47	608	222.0	-228569.0	-924.0	-3389.0
29	18	5	47	609	223.0	-190504.0	-906.0	-3121.0
29	18	5	47	609	224.0	-172819.0	-883.0	-3182.0
29	18	5	47	610	225.0	-182032.0	-857.0	-3052.0
29	18	5	47	610	226.0	-191931.0	-826.0	-2886.0
29	18	5	47	611	227.0	-205127.0	-796.0	-3180.0
29	18	5	47	612	228.0	-218410.0	-804.0	-3569.0
29	18	5	47	612	229.0	-235868.0	-826.0	-3393.0
29	18	5	47	613	230.0	-248955.0	-805.0	-3164.0
29	18	5	47	613	231.0	-256393.0	-799.0	-3617.0
29	18	5	47	614	232.0	-256577.0	-814.0	-3736.0
29	18	5	47	615	233.0	-246674.0	-803.0	-4081.0
29	18	5	47	615	234.0	-230628.0	-795.0	-4116.0
29	18	5	47	616	235.0	-212982.0	-776.0	-4096.0
29	18	5	47	616	237.0	-193496.0	-766.0	-4272.0
29	18	5	47	617	238.0	-192830.0	-757.0	-3844.0
29	18	5	47	618	239.0	-193744.0	-757.0	-3477.0
29	18	5	47	618	240.0	-197295.0	-755.0	-3436.0
29	18	5	47	619	241.0	-201601.0	-757.0	-3813.0
29	18	5	47	619	242.0	-203755.0	-759.0	-3961.0
29	18	5	47	651	243.0	-204061.0	-748.0	-3437.0
29	18	5	47	652	244.0	-202933.0	-758.0	-3432.0
29	18	5	47	653	245.0	-200224.0	-759.0	-3768.0
29	18	5	47	653	246.0	-196371.0	-752.0	-4029.0
29	18	5	47	654	247.0	-191714.0	-754.0	-4176.0
29	18	5	47	654	248.0	-186438.0	-758.0	-4248.0
29	18	5	47	655	249.0	-181067.0	-771.0	-4143.0
29	18	5	47	656	250.0	-175520.0	-785.0	-4307.0
29	18	5	47	656	251.0	-168473.0	-799.0	-4474.0
29	18	5	47	657	252.0	-159056.0	-822.0	-4583.0
29	18	5	47	657	253.0	-148436.0	-828.0	-4249.0
29	18	5	47	658	254.0	-138288.0	-821.0	-4416.0
29	18	5	47	659	255.0	-127708.0	-821.0	-4657.0
29	18	5	47	659	0.0	-116415.0	-811.0	-4298.0
29	18	5	47	660	1.0	-108996.0	-819.0	-4064.0
29	18	5	47	660	3.0	-104944.0	-824.0	-4434.0
29	18	5	47	661	4.0	-106877.0	-822.0	-4267.0
29	18	5	47	661	5.0	-108981.0	-812.0	-4574.0
29	18	5	47	662	6.0	-111126.0	-807.0	-3876.0
29	18	5	47	663	7.0	-112992.0	-797.0	-3644.0
29	18	5	47	664	8.0	-115280.0	-786.0	-4428.0
29	18	5	47	664	9.0	-118071.0	-790.0	-3529.0
29	18	5	47	697	10.0	-121295.0	-774.0	-3504.0
29	18	5	47	698	11.0	-124709.0	-737.0	-3625.0
29	18	5	47	699	12.0	-128679.0	-736.0	-3565.0
29	18	5	47	699	13.0	-133315.0	-741.0	-3551.0
29	18	5	47	700	14.0	-138034.0	-746.0	-3452.0
29	18	5	47	701	15.0	-142612.0	-726.0	-3700.0
29	18	5	47	701	16.0	-146806.0	-711.0	-2990.0
29	18	5	47	702	17.0	-150901.0	-720.0	-3132.0
29	18	5	47	702	18.0	-154946.0	-731.0	-3647.0
29	18	5	47	703	19.0	-158927.0	-738.0	-3642.0
29	18	5	47	704	20.0	-163551.0	-762.0	-3369.0
29	18	5	47	704	21.0	-168853.0	-773.0	-3668.0
29	18	5	47	705	22.0	-174497.0	-770.0	-3638.0
29	18	5	47	705	23.0	-180916.0	-792.0	-3149.0
29	18	5	47	706	24.0	-189162.0	-801.0	-2887.0
29	18	5	47	707	26.0	-207677.0	-834.0	-3156.0
29	18	5	47	707	27.0	-217067.0	-866.0	-3069.0
29	18	5	47	708	28.0	-227076.0	-880.0	-3604.0
29	18	5	47	708	29.0	-236471.0	-899.0	-3189.0
29	18	5	47	709	30.0	-244804.0	-882.0	-3453.0
29	18	5	47	709	31.0	-251809.0	-892.0	-4142.0
29	18	5	47	741	32.0	-257744.0	-916.0	-4212.0
29	18	5	47	832	33.0	-262574.0	-904.0	-4299.0
29	18	5	47	832	34.0	-266362.0	-931.0	-3769.0
29	18	5	47	833	35.0	-269177.0	-961.0	-4052.0
29	18	5	47	834	36.0	-271047.0	-999.0	-3704.0
29	18	5	47	834	37.0	-271537.0	-991.0	-3087.0
29	18	5	47	836	38.0	-270520.0	-976.0	-3824.0
29	18	5	47	837	39.0	-268254.0	-992.0	-4328.0
29	18	5	47	838	40.0	-264605.0	-998.0	-4162.0
29	18	5	47	839	41.0	-260262.0	-1037.0	-4451.0
29	18	5	47	840	42.0	-255454.0	-1044.0	-4640.0
29	18	5	47	840	43.0	-250341.0	-1041.0	-4714.0
29	18	5	47	841	44.0	-245108.0	-1072.0	-4704.0
29	18	5	47	841	45.0	-240019.0	-1084.0	-4697.0
29	18	5	47	842	46.0	-235053.0	-1077.0	-4933.0
29	18	5	47	843	48.0	-224399.0	-1108.0	-5101.0
29	18	5	47	843	49.0	-219036.0	-1129.0	-5146.0
29	18	5	47	877	93.0	-236261.0	-1235.0	-3665.0
29	18	5	47	878	94.0	-233023.0	-1247.0	-4341.0
29	18	5	47	878	95.0	-229967.0	-1264.0	-4499.0
29	18	5	47	879	96.0	-226926.0	-1259.0	-4292.0
29	18	5	47	880	97.0	-224153.0	-1247.0	-4457.0
29	18	5	47	880	98.0	-221616.0	-1261.0	-4467.0
29	18	5	47	881	99.0	-219209.0	-1292.0	-4686.0
29	18	5	47	881	100.0	-217062.0	-1304.0	-4632.0
29	18	5	47	882	101.0	-215342.0	-1317.0	-4489.0
29	18	5	47	883	102.0	-213643.0	-1338.0	-4091.0
29	18	5	47	883	103.0	-211636.0	-1354.0	-4251.0
29	18	5	47	884	104.0	-209579.0	-1357.0	-4091.0
29	18	5	47	884	105.0	-208134.0	-1349.0	-3611.0
29	18	5	47	885	106.0	-206318.0	-1363.0	-3616.0
29	18	5	47	886	107.0	-204212.0	-1377.0	-3772.0
29	18	5	47	886	108.0	-201989.0	-1386.0	-3896.0
29	18	5	47	887	116.0	-197548.0	-1427.0	-8585.0
29	18	5	47	888	117.0	-200017.0	-1433.0	-9323.0
29	18	5	47	888	118.0	-203563.0	-1420.0	-11542.0
29	18	5	47	889	119.0	-208075.0	-1412.0	-13213.0
29	18	5	47	889	120.0	-213889.0	-1431.0	-11582.0
29	18	5	47	890	121.0	-220147.0	-1431.0	-8953.0
29	18	5	47	922	122.0	-226061.0	-1442.0	-7235.0
29	18	5	47	923	123.0	-231237.0	-1442.0	-7020.0
29	18	5	47	923	124.0	-235256.0	-1448.0	-6837.0
29	18	5	47	924	125.0	-237317.0	-1475.0	-8172.0
29	18	5	47	925	126.0	-237184.0	-1507.0	-6916.0
29	18	5	47	925	127.0	-234304.0	-1538.0	-3134.0
29	18	5	47	926	128.0	-229281.0	-1562.0	-702.0
29	18	5	47	927	129.0	-222897.0	-1602.0	-419.0
29	18	5	47	927	130.0	-216012.0	-1614.0	-812.0
29	18	5	47	928	131.0	-208796.0	-1635.0	1819.0
29	18	5	47	928	132.0	-202177.0	-1672.0	2406.0
29	18	5	47	929	133.0	-196976.0	-1671.0	793.0
29	18	5	47	930	134.0	-193994.0	-1678.0	-1270.0
29	18	5	47	930	135.0	-193098.0	-1684.0	-954.0
29	18	5	47	931	136.0	-193191.0	-1684.0	-1478.0
29	18	5	47	931	138.0	-192524.0	-1670.0	-2577.0
29	18	5	47	932	139.0	-179546.0	-1674.0	-3619.0
29	18	5	47	933	140.0	-137444.0	-1680.0	-3814.0
29	18	5	47	933	141.0	-77769.0	-1691.0	-3862.0
29	18	5	47	934	142.0	-16227.0	-1671.0	-4544.0
29	18	5	47	935	143.0	33168.0	-1661.0	-5034.0
29	18	5	47	967	144.0	53363.0	-1662.0	-5867.0
29	18	5	47	968	145.0	34374.0	-1654.0	-6052.0
29	18	5	47	968	146.0	-8612.0	-1623.0	-6166.0
29	18	5	47	969	147.0	-59345.0	-1601.0	-5741.0
29	18	5	47	969	148.0	-117597.0	-1615.0	-5239.0
29	18	5	47	970	149.0	-184046.0	-1611.0	-5474.0
29	18	5	47	971	150.0	-252397.0	-1595.0	-5781.0
29	18	5	47	971	151.0	-319091.0	-1599.0	-5923.0
29	18	5	47	972	152.0	-375432.0	-1594.0	-5481.0
29	18	5	47	973	153.0	-409767.0	-1586.0	-5425.0
29	18	5	47	973	154.0	-424423.0	-1584.0	-5601.0
29	18	5	47	974	155.0	-404980.0	-1577.0	-5698.0
29	18	5	47	974	156.0	-353714.0	-1576.0	-5844.0
29	18	5	47	975	157.0	-301800.0	-1559.0	-6109.0
29	18	5	47	976	158.0	-260209.0	-1550.0	-6143.0
29	18	5	47	976	160.0	-223342.0	-1540.0	-5897.0
29	18	5	47	977	161.0	-226654.0	-1536.0	-5835.0
29	18	5	47	977	162.0	-234478.0	-1543.0	-6096.0
29	18	5	47	978	163.0	-239884.0	-1536.0	-5983.0
29	18	5	47	979	164.0	-237144.0	-1532.0	-6351.0
29	18	5	47	979	165.0	-225199.0	-1527.0	-6266.0
29	18	5	47	980	166.0	-207677.0	-1534.0	-6180.0
29	18	5	48	13	167.0	-189651.0	-1521.0	-6324.0
29	18	5	48	57	168.0	-175363.0	-1510.0	-6366.0
29	18	5	48	58	169.0	-164601.0	-1484.0	-6457.0
29	18	5	48	59	170.0	-155132.0	-1481.0	-6633.0
29	18	5	48	60	171.0	-146162.0	-1473.0	-6292.0
29	18	5	48	82	172.0	-136041.0	-1466.0	-5899.0
29	18	5	48	82	173.0	-123944.0	-1474.0	-5567.0
29	18	5	48	83	174.0	-110562.0	-1471.0	-5909.0
29	18	5	48	84	175.0	-97710.0	-1472.0	-5947.0
29	18	5	48	84	176.0	-88096.0	-1468.0	-6032.0
29	18	5	48	85	177.0	-82241.0	-1445.0	-5944.0
29	18	5	48	85	178.0	-79666.0	-1439.0	-5983.0
29	18	5	48	86	179.0	-79636.0	-1460.0	-6439.0
29	18	5	48	86	180.0	-81851.0	-1456.0	-6229.0
29	18	5	48	87	181.0	-86761.0	-1458.0	-6125.0
29	18	5	48	87	183.0	-102222.0	-1458.0	-6353.0
29	18	5	48	88	184.0	-110098.0	-1434.0	-5939.0
29	18	5	48	89	206.0	-148305.0	-1751.0	-5891.0
29	18	5	48	89	207.0	-151969.0	-1755.0	-5192.0
29	18	5	48	90	208.0	-156065.0	-1767.0	-5346.0
29	18	5	48	90	209.0	-160290.0	-1764.0	-5711.0
29	18	5	48	91	210.0	-164573.0	-1798.0	-5136.0
29	18	5	48	91	211.0	-168621.0	-1823.0	-3837.0
29	18	5	48	105	212.0	-172317.0	-1827.0	-3640.0
29	18	5	48	105	213.0	-175282.0	-1826.0	-3870.0
29	18	5	48	106	214.0	-177741.0	-1848.0	-3798.0
29	18	5	48	107	215.0	-179789.0	-1847.0	-3541.0
29	18	5	48	108	216.0	-181791.0	-1839.0	-3226.0
29	18	5	48	108	217.0	-183583.0	-1848.0	-2866.0
29	18	5	48	109	218.0	-184957.0	-1847.0	-2967.0
29	18	5	48	110	219.0	-185710.0	-1854.0	-2941.0
29	18	5	48	110	220.0	-186575.0	-1889.0	-2673.0
29	18	5	48	111	221.0	-187649.0	-1914.0	-2616.0
29	18	5	48	112	222.0	-188882.0	-1903.0	-2327.0
29	18	5	48	112	223.0	-190156.0	-1921.0	-2022.0
29	18	5	48	113	224.0	-191298.0	-1931.0	-1931.0
29	18	5	48	113	225.0	-192192.0	-1958.0	-1845.0
29	18	5	48	114	226.0	-192926.0	-1986.0	-1745.0
29	18	5	48	115	228.0	-196201.0	-2039.0	-1237.0
29	18	5	48	115	229.0	-198332.0	-2041.0	-1101.0
29	18	5	48	116	230.0	-200161.0	-2047.0	-922.0
29	18	5	48	116	231.0	-200987.0	-2032.0	-762.0
29	18	5	48	117	232.0	-201376.0	-2011.0	-382.0
29	18	5	48	117	233.0	-201231.0	-1998.0	-714.0
29	18	5	48	148	234.0	-200608.0	-2009.0	-604.0
29	18	5	48	149	235.0	-199786.0	-1996.0	-981.0
29	18	5	48	149	236.0	-198497.0	-1979.0	-198.0
29	18	5	48	163	237.0	-196616.0	-1959.0	-306.0
29	18	5	48	164	238.0	-194217.0	-1969.0	155.0
29	18	5	48	164	239.0	-191324.0	-1982.0	443.0
29	18	5	48	165	240.0	-187672.0	-1978.0	268.0
29	18	5	48	165	241.0	-184094.0	-1979.0	-537.0
29	18	5	48	166	242.0	-180969.0	-1971.0	-266.0
29	18	5	48	166	243.0	-178490.0	-1951.0	-132.0
29	18	5	48	167	244.0	-176693.0	-1943.0	-402.0
29	18	5	48	167	245.0	-175321.0	-1934.0	-760.0
29	18	5	48	168	246.0	-174176.0	-1913.0	-830.0
29	18	5	48	168	247.0	-173300.0	-1878.0	-983.0
29	18	5	48	169	248.0	-172607.0	-1865.0	-1594.0
29	18	5	48	169	250.0	-173279.0	-1795.0	-1539.0
29	18	5	48	170	251.0	-174735.0	-1766.0	-1752.0
29	18	5	48	171	252.0	-176770.0	-1730.0	-2022.0
29	18	5	48	171	253.0	-179029.0	-1692.0	-2047.0
29	18	5	48	172	254.0	-181495.0	-1660.0	-2411.0
29	18	5	48	191	255.0	-184829.0	-1646.0	-2596.0
29	18	5	48	192	0.0	-188694.0	-1623.0	-2888.0
29	18	5	48	192	1.0	-192706.0	-1592.0	-2866.0
29	18	5	48	193	2.0	-197211.0	-1539.0	-2939.0
29	18	5	48	194	3.0	-202021.0	-1505.0	-3635.0
29	18	5	48	194	4.0	-207214.0	-1481.0	-3556.0
29	18	5	48	195	5.0	-212375.0	-1437.0	-3592.0
29	18	5	48	195	6.0	-217697.0	-1429.0	-3384.0
29	18	5	48	196	7.0	-223295.0	-1370.0	-3303.0
29	18	5	48	196	8.0	-229038.0	-1347.0	-3679.0
29	18	5	48	197	9.0	-235005.0	-1346.0	-3914.0
29	18	5	48	197	10.0	-241524.0	-1324.0	-3902.0
29	18	5	48	198	11.0	-248448.0	-1281.0	-3682.0
29	18	5	48	199	12.0	-255486.0	-1252.0	-3876.0
29	18	5	48	282	13.0	-261748.0	-1221.0	-3840.0
29	18	5	48	283	16.0	-276415.0	-1159.0	-3881.0
29	18	5	48	283	17.0	-278551.0	-1114.0	-3549.0
29	18	5	48	284	18.0	-279681.0	-1057.0	-3266.0
29	18	5	48	285	19.0	-279679.0	-1028.0	-3728.0
29	18	5	48	286	20.0	-278359.0	-1002.0	-3296.0
29	18	5	48	287	21.0	-276093.0	-949.0	-3372.0
29	18	5	48	287	22.0	-272414.0	-922.0	-3692.0
29	18	5	48	288	23.0	-266595.0	-909.0	-3464.0
29	18	5	48	289	24.0	-255720.0	-879.0	-2924.0
29	18	5	48	289	25.0	-233114.0	-822.0	-3391.0
29	18	5	48	290	26.0	-198242.0	-804.0	-3615.0
29	18	5	48	290	27.0	-168620.0	-782.0	-3431.0
29	18	5	48	291	28.0	-167961.0	-759.0	-3717.0
29	18	5	48	291	29.0	-177181.0	-739.0	-3535.0
29	18	5	48	292	30.0	-187366.0	-734.0	-3671.0
29	18	5	48	292	62.0	-114906.0	-955.0	-3828.0
29	18	5	48	293	63.0	-117952.0	-953.0	-3730.0
29	18	5	48	294	64.0	-121680.0	-921.0	-3252.0
29	18	5	48	294	65.0	-125743.0	-927.0	-2665.0
29	18	5	48	295	66.0	-129904.0	-925.0	-3165.0
29	18	5	48	295	67.0	-134732.0	-919.0	-3036.0
29	18	5	48	327	68.0	-139987.0	-944.0	-2824.0
29	18	5	48	327	69.0	-145494.0	-926.0	-2969.0
29	18	5	48	328	70.0	-151449.0	-921.0	-3157.0
29	18	5	48	345	71.0	-158014.0	-919.0	-2930.0
29	18	5	48	346	72.0	-165382.0	-917.0	-3102.0
29	18	5	48	347	73.0	-173521.0	-933.0	-2761.0
29	18	5	48	347	74.0	-182186.0	-929.0	-2444.0
29	18	5	48	348	75.0	-191018.0	-921.0	-2665.0
29	18	5	48	348	76.0	-199404.0	-935.0	-2569.0
29	18	5	48	349	77.0	-206833.0	-929.0	-2584.0
29	18	5	48	349	78.0	-213642.0	-962.0	-2263.0
29	18	5	48	350	79.0	-219702.0	-978.0	-2426.0
29	18	5	48	350	80.0	-225077.0	-989.0	-1949.0
29	18	5	48	351	81.0	-229574.0	-1009.0	-1949.0
29	18	5	48	351	82.0	-233081.0	-1014.0	-2694.0
29	18	5	48	352	84.0	-239018.0	-1050.0	-2076.0
29	18	5	48	352	85.0	-241641.0	-1059.0	-1956.0
29	18	5	48	353	86.0	-243876.0	-1061.0	-2256.0
29	18	5	48	353	87.0	-245497.0	-1057.0	-2817.0
29	18	5	48	354	88.0	-246932.0	-1053.0	-2906.0
29	18	5	48	355	89.0	-247633.0	-1047.0	-2791.0
29	18	5	48	355	90.0	-247282.0	-1077.0	-2722.0
29	18	5	48	417	91.0	-246189.0	-1093.0	-2366.0
29	18	5	48	417	92.0	-244958.0	-1067.0	-2303.0
29	18	5	48	418	93.0	-243576.0	-1052.0	-2406.0
29	18	5	48	419	94.0	-241616.0	-1059.0	-3040.0
29	18	5	48	419	95.0	-239316.0	-1054.0	-2901.0
29	18	5	48	420	96.0	-236844.0	-1027.0	-2034.0
29	18	5	48	420	97.0	-233605.0	-1052.0	-1982.0
29	18	5	48	421	98.0	-230244.0	-1042.0	-2442.0
29	18	5	48	422	99.0	-227017.0	-1057.0	-2496.0
29	18	5	48	422	100.0	-223464.0	-1076.0	-2364.0
29	18	5	48	423	101.0	-219632.0	-1059.0	-2938.0
29	18	5	48	423	102.0	-215875.0	-1057.0	-2528.0
29	18	5	48	424	103.0	-211937.0	-1056.0	-2680.0
29	18	5	48	424	104.0	-207971.0	-1054.0	-2897.0
29	18	5	48	425	105.0	-203935.0	-1066.0	-2126.0
29	18	5	48	426	106.0	-200012.0	-1079.0	-2066.0
29	18	5	48	426	129.0	-211263.0	-1054.0	-2973.0
29	18	5	48	462	130.0	-215828.0	-1042.0	-3190.0
29	18	5	48	507	131.0	-220404.0	-1029.0	-3157.0
29	18	5	48	508	132.0	-224984.0	-1019.0	-2762.0
29	18	5	48	508	133.0	-229944.0	-1007.0	-2822.0
29	18	5	48	509	134.0	-234977.0	-985.0	-2426.0
29	18	5	48	510	135.0	-239565.0	-969.0	-2534.0
29	18	5	48	511	136.0	-243747.0	-976.0	-2625.0
29	18	5	48	512	137.0	-247017.0	-962.0	-2561.0
29	18	5	48	512	138.0	-249333.0	-972.0	-2424.0
29	18	5	48	513	139.0	-250997.0	-959.0	-2014.0
29	18	5	48	513	140.0	-252317.0	-963.0	-2339.0
29	18	5	48	514	141.0	-252894.0	-963.0	-2389.0
29	18	5	48	515	142.0	-253233.0	-963.0	-2134.0
29	18	5	48	515	143.0	-253317.0	-958.0	-1695.0
29	18	5	48	516	144.0	-252786.0	-951.0	-1771.0
29	18	5	48	516	145.0	-251598.0	-920.0	-1568.0
29	18	5	48	517	151.0	-232579.0	-845.0	-1691.0
29	18	5	48	518	174.0	-202709.0	-922.0	-2023.0
29	18	5	48	518	175.0	-207746.0	-929.0	-2471.0
29	18	5	48	519	176.0	-212812.0	-938.0	-3041.0
29	18	5	48	519	177.0	-217627.0	-919.0	-4057.0
29	18	5	48	520	178.0	-222512.0	-919.0	-4519.0
29	18	5	48	520	179.0	-227406.0	-911.0	-5566.0
29	18	5	48	521	180.0	-232066.0	-914.0	-6769.0
29	18	5	48	552	181.0	-236524.0	-896.0	-9149.0
29	18	5	48	553	182.0	-241378.0	-879.0	-10184.0
29	18	5	48	553	183.0	-246659.0	-857.0	-8232.0
29	18	5	48	554	184.0	-251848.0	-846.0	-5503.0
29	18	5	48	555	185.0	-256538.0	-845.0	-3860.0
29	18	5	48	555	186.0	-260579.0	-834.0	-3269.0
29	18	5	48	556	187.0	-262947.0	-812.0	-4057.0
29	18	5	48	557	188.0	-263197.0	-805.0	-4330.0
29	18	5	48	557	189.0	-261113.0	-822.0	-2181.0
29	18	5	48	558	190.0	-256674.0	-806.0	849.0
29	18	5	48	558	191.0	-250545.0	-801.0	2564.0
29	18	5	48	559	192.0	-243233.0	-803.0	2624.0
29	18	5	48	560	193.0	-235072.0	-812.0	2678.0
29	18	5	48	560	194.0	-226591.0	-815.0	4909.0
29	18	5	48	561	195.0	-218674.0	-817.0	4901.0
29	18	5	48	561	196.0	-212452.0	-842.0	2655.0
29	18	5	48	562	197.0	-208482.0	-841.0	1453.0
29	18	5	48	563	198.0	-206314.0	-829.0	1569.0
29	18	5	48	563	199.0	-205371.0	-816.0	1766.0
29	18	5	48	564	200.0	-206042.0	-830.0	1254.0
29	18	5	48	564	201.0	-199881.0	-837.0	860.0
29	18	5	48	596	202.0	-168456.0	-829.0	393.0
29	18	5	48	597	203.0	-118680.0	-821.0	-416.0
29	18	5	48	597	204.0	-61519.0	-811.0	-989.0
29	18	5	48	598	205.0	-8771.0	-784.0	-2047.0
29	18	5	48	599	206.0	23928.0	-780.0	-2751.0
29	18	5	48	599	207.0	23461.0	-780.0	-2635.0
29	18	5	48	600	208.0	-5854.0	-779.0	-2623.0
29	18	5	48	601	209.0	-48306.0	-786.0	-2721.0
29	18	5	48	601	210.0	-98815.0	-781.0	-2576.0
29	18	5	48	602	211.0	-159607.0	-786.0	-1985.0
29	18	5	48	602	212.0	-225439.0	-817.0	-2534.0
29	18	5	48	603	213.0	-291573.0	-831.0	-2671.0
29	18	5	48	604	214.0	-356214.0	-882.0	-2391.0
29	18	5	48	604	215.0	-406728.0	-913.0	-2269.0
29	18	5	48	605	216.0	-429889.0	-929.0	-2717.0
29	18	5	48	605	218.0	-397308.0	-976.0	-2612.0
29	18	5	48	606	219.0	-354691.0	-1014.0	-2592.0
29	18	5	48	607	220.0	-303146.0	-1048.0	-3022.0
29	18	5	48	607	221.0	-260394.0	-1072.0	-2812.0
29	18	5	48	608	222.0	-230159.0	-1069.0	-2222.0
29	18	5	48	608	223.0	-214677.0	-1098.0	-2629.0
29	18	5	48	609	224.0	-214722.0	-1109.0	-2547.0
29	18	5	48	641	225.0	-224234.0	-1121.0	-1741.0
29	18	5	48	642	226.0	-231871.0	-1139.0	-2137.0
29	18	5	48	643	227.0	-228497.0	-1157.0	-2482.0
29	18	5	48	643	228.0	-215833.0	-1179.0	-1971.0
29	18	5	48	644	229.0	-198501.0	-1209.0	-2054.0
29	18	5	48	645	230.0	-179783.0	-1231.0	-2439.0
29	18	5	48	645	231.0	-162467.0	-1261.0	-2197.0
29	18	5	48	646	232.0	-147444.0	-1279.0	-2256.0
29	18	5	48	646	233.0	-135054.0	-1289.0	-2366.0
29	18	5	48	647	234.0	-124945.0	-1299.0	-2310.0
29	18	5	48	648	235.0	-115336.0	-1325.0	-2719.0
29	18	5	48	648	236.0	-103974.0	-1331.0	-2626.0
29	18	5	48	649	237.0	-89791.0	-1359.0	-2691.0
29	18	5	48	649	238.0	-74184.0	-1381.0	-1894.0
29	18	5	48	650	239.0	-60726.0	-1407.0	-1691.0
29	18	5	48	651	241.0	-46877.0	-1441.0	-2577.0
29	18	5	48	651	242.0	-46154.0	-1439.0	-2274.0
29	18	5	48	652	243.0	-48677.0	-1429.0	-1871.0
29	18	5	48	652	244.0	-54368.0	-1436.0	-1887.0
29	18	5	48	653	245.0	-62907.0	-1449.0	-2307.0
29	18	5	48	653	246.0	-73615.0	-1465.0	-2151.0
29	18	5	48	686	247.0	-85522.0	-1480.0	-2710.0
29	18	5	48	777	248.0	-97004.0	-1484.0	-2954.0
29	18	5	48	778	249.0	-107169.0	-1469.0	-2265.0
29	18	5	48	778	250.0	-115914.0	-1477.0	-1993.0
29	18	5	48	779	251.0	-123413.0	-1485.0	-2167.0
29	18	5	48	780	252.0	-129541.0	-1512.0	-1626.0
29	18	5	48	780	253.0	-134352.0	-1542.0	-1526.0
29	18	5	48	781	254.0	-138733.0	-1584.0	-1191.0
29	18	5	48	782	255.0	-142655.0	-1603.0	-1857.0
29	18	5	48	782	0.0	-145878.0	-1608.0	-2427.0
29	18	5	48	783	1.0	-148110.0	-1612.0	-1884.0
29	18	5	48	784	2.0	-149881.0	-1617.0	-1751.0
29	18	5	48	784	3.0	-151277.0	-1646.0	-1836.0
29	18	5	48	785	4.0	-152377.0	-1671.0	-2379.0
29	18	5	48	785	5.0	-153560.0	-1677.0	-1577.0
29	18	5	48	786	7.0	-155064.0	-1745.0	-1284.0
29	18	5	48	787	8.0	-155783.0	-1785.0	-1609.0
29	18	5	48	787	52.0	-128255.0	-1712.0	4953.0
29	18	5	48	788	53.0	-128119.0	-1676.0	4413.0
29	18	5	48	788	54.0	-128591.0	-1622.0	4313.0
29	18	5	48	789	55.0	-129449.0	-1577.0	4223.0
29	18	5	48	789	56.0	-131533.0	-1544.0	4069.0
29	18	5	48	790	57.0	-134732.0	-1501.0	3790.0
29	18	5	48	791	58.0	-138320.0	-1475.0	3889.0
29	18	5	48	822	59.0	-142542.0	-1425.0	3719.0
29	18	5	48	823	60.0	-146575.0	-1365.0	3528.0
29	18	5	48	823	61.0	-150989.0	-1333.0	2924.0
29	18	5	48	824	62.0	-156469.0	-1321.0	2267.0
29	18	5	48	825	63.0	-162459.0	-1282.0	2061.0
29	18	5	48	825	64.0	-168531.0	-1258.0	2596.0
29	18	5	48	826	65.0	-175194.0	-1238.0	2349.0
29	18	5	48	827	66.0	-182319.0	-1214.0	2374.0
29	18	5	48	827	67.0	-189352.0	-1214.0	2059.0
29	18	5	48	828	68.0	-196925.0	-1194.0	1544.0
29	18	5	48	828	69.0	-204184.0	-1149.0	1910.0
29	18	5	48	829	70.0	-210661.0	-1133.0	1908.0
29	18	5	48	830	71.0	-216902.0	-1106.0	1956.0
29	18	5	48	830	72.0	-222089.0	-1101.0	1648.0
29	18	5	48	831	73.0	-226906.0	-1086.0	2200.0
29	18	5	48	831	75.0	-234425.0	-1050.0	1922.0
29	18	5	48	832	76.0	-237982.0	-1022.0	1658.0
29	18	5	48	832	77.0	-242199.0	-974.0	2044.0
29	18	5	48	833	78.0	-245608.0	-943.0	2621.0
29	18	5	48	834	79.0	-248620.0	-899.0	2512.0
29	18	5	48	834	80.0	-250759.0	-861.0	2409.0
29	18	5	48	866	81.0	-252094.0	-839.0	2385.0
29	18	5	48	867	82.0	-252286.0	-832.0	1938.0
29	18	5	48	868	83.0	-251200.0	-807.0	1869.0
29	18	5	48	869	84.0	-248849.0	-781.0	1994.0
29	18	5	48	869	85.0	-244267.0	-754.0	1982.0
29	18	5	48	870	86.0	-235376.0	-714.0	1860.0
29	18	5	48	871	87.0	-220581.0	-717.0	1764.0
29	18	5	48	871	88.0	-193945.0	-709.0	2109.0
29	18	5	48	872	89.0	-154629.0	-681.0	1494.0
29	18	5	48	872	90.0	-128511.0	-646.0	1612.0
29	18	5	48	873	91.0	-138770.0	-626.0	2128.0
29	18	5	48	874	92.0	-152658.0	-627.0	2203.0
29	18	5	48	874	93.0	-162615.0	-606.0	2128.0
29	18	5	48	875	94.0	-173189.0	-592.0	1989.0
29	18	5	48	876	95.0	-186714.0	-585.0	1821.0
29	18	5	48	876	97.0	-195766.0	-586.0	1841.0
29	18	5	48	877	98.0	-194931.0	-574.0	1639.0
29	18	5	48	877	99.0	-185198.0	-566.0	1368.0
29	18	5	48	878	100.0	-173402.0	-535.0	1844.0
29	18	5	48	879	101.0	-163743.0	-509.0	1962.0
29	18	5	48	880	102.0	-155715.0	-480.0	1557.0
29	18	5	48	912	103.0	-151454.0	-481.0	1852.0
29	18	5	48	912	104.0	-151548.0	-488.0	2131.0
29	18	5	48	913	105.0	-151624.0	-485.0	1614.0
29	18	5	48	914	106.0	-152067.0	-504.0	1171.0
29	18	5	48	914	107.0	-154755.0	-516.0	1999.0
29	18	5	48	915	108.0	-155313.0	-511.0	1626.0
29	18	5	48	916	109.0	-153924.0	-531.0	826.0
29	18	5	48	916	110.0	-154018.0	-532.0	1883.0
29	18	5	48	917	111.0	-152831.0	-524.0	1671.0
29	18	5	48	918	112.0	-153192.0	-522.0	1128.0
29	18	5	48	918	113.0	-156220.0	-510.0	1083.0
29	18	5	48	919	114.0	-159531.0	-517.0	1298.0
29	18	5	48	920	115.0	-160372.0	-520.0	1539.0
29	18	5	48	920	116.0	-160046.0	-511.0	1309.0
29	18	5	48	921	117.0	-159674.0	-502.0	1814.0
29	18	5	48	921	119.0	-154299.0	-501.0	1486.0
29	18	5	48	922	120.0	-151632.0	-501.0	1741.0
29	18	5	48	923	121.0	-147599.0	-499.0	1858.0
29	18	5	48	923	122.0	-144256.0	-492.0	1749.0
29	18	5	48	924	123.0	-141457.0	-486.0	1396.0
29	18	5	48	924	124.0	-138278.0	-484.0	1344.0
29	18	5	48	925	125.0	-135483.0	-503.0	1707.0
29	18	5	48	956	126.0	-133797.0	-496.0	1482.0
29	18	5	48	957	127.0	-133285.0	-504.0	1690.0
29	18	5	48	957	128.0	-133074.0	-519.0	1468.0
29	18	5	49	1	129.0	-133860.0	-546.0	1456.0
29	18	5	49	2	130.0	-136067.0	-580.0	1513.0
29	18	5	49	3	131.0	-139321.0	-606.0	1829.0
29	18	5	49	4	132.0	-144091.0	-623.0	1958.0
29	18	5	49	4	133.0	-148824.0	-636.0	1993.0
29	18	5	49	5	134.0	-154589.0	-669.0	2258.0
29	18	5	49	6	135.0	-162381.0	-691.0	2420.0
29	18	5	49	6	136.0	-170116.0	-689.0	2216.0
29	18	5	49	7	137.0	-177733.0	-687.0	1768.0
29	18	5	49	7	138.0	-185826.0	-713.0	1853.0
29	18	5	49	8	139.0	-194114.0	-742.0	1952.0
29	18	5	49	9	140.0	-202962.0	-764.0	2380.0
29	18	5	49	9	142.0	-220126.0	-819.0	2205.0
29	18	5	49	10	143.0	-229357.0	-837.0	2461.0
29	18	5	49	11	144.0	-236977.0	-834.0	2322.0
29	18	5	49	11	145.0	-244548.0	-849.0	2266.0
29	18	5	49	12	165.0	-256413.0	-1214.0	2375.0
29	18	5	49	12	166.0	-249837.0	-1217.0	2516.0
29	18	5	49	13	167.0	-243001.0	-1210.0	2498.0
29	18	5	49	14	168.0	-236237.0	-1211.0	2233.0
29	18	5	49	46	169.0	-229012.0	-1200.0	2382.0
29	18	5	49	47	170.0	-221425.0	-1206.0	2602.0
29	18	5	49	91	171.0	-214807.0	-1207.0	2098.0
29	18	5	49	92	172.0	-208806.0	-1212.0	2149.0
29	18	5	49	93	173.0	-203421.0	-1222.0	2058.0
29	18	5	49	93	174.0	-198431.0	-1230.0	1657.0
29	18	5	49	94	175.0	-193481.0	-1216.0	1758.0
29	18	5	49	95	176.0	-188918.0	-1219.0	1974.0
29	18	5	49	95	177.0	-186026.0	-1219.0	1798.0
29	18	5	49	96	178.0	-183978.0	-1219.0	1357.0
29	18	5	49	97	179.0	-182421.0	-1231.0	1281.0
29	18	5	49	98	180.0	-181589.0	-1244.0	1130.0
29	18	5	49	99	181.0	-182322.0	-1272.0	1448.0
29	18	5	49	100	182.0	-183987.0	-1292.0	1389.0
29	18	5	49	100	183.0	-185214.0	-1301.0	1424.0
29	18	5	49	101	184.0	-187569.0	-1306.0	1548.0
29	18	5	49	101	187.0	-198677.0	-1346.0	1484.0
29	18	5	49	103	188.0	-202931.0	-1349.0	1404.0
29	18	5	49	104	209.0	-246849.0	-1483.0	1538.0
29	18	5	49	104	210.0	-246223.0	-1487.0	1273.0
29	18	5	49	105	211.0	-245344.0	-1490.0	1016.0
29	18	5	49	105	212.0	-244662.0	-1498.0	989.0
29	18	5	49	106	213.0	-244784.0	-1489.0	923.0
29	18	5	49	107	214.0	-243862.0	-1506.0	1171.0
29	18	5	49	107	215.0	-242631.0	-1501.0	1463.0
29	18	5	49	137	216.0	-242168.0	-1467.0	1501.0
29	18	5	49	138	217.0	-241201.0	-1457.0	1164.0
29	18	5	49	139	218.0	-239958.0	-1483.0	1416.0
29	18	5	49	139	219.0	-238936.0	-1478.0	1268.0
29	18	5	49	140	220.0	-238079.0	-1474.0	1131.0
29	18	5	49	141	221.0	-237156.0	-1499.0	773.0
29	18	5	49	141	222.0	-235451.0	-1521.0	1141.0
29	18	5	49	142	223.0	-233115.0	-1542.0	1781.0
29	18	5	49	143	224.0	-231238.0	-1545.0	1748.0
29	18	5	49	143	225.0	-230018.0	-1561.0	1961.0
29	18	5	49	144	226.0	-228895.0	-1587.0	1736.0
29	18	5	49	145	227.0	-228163.0	-1596.0	1403.0
29	18	5	49	145	228.0	-227463.0	-1623.0	2081.0
29	18	5	49	146	229.0	-226875.0	-1649.0	2069.0
29	18	5	49	147	230.0	-226430.0	-1671.0	1383.0
29	18	5	49	147	232.0	-225800.0	-1662.0	1265.0
29	18	5	49	148	233.0	-224044.0	-1667.0	1241.0
29	18	5	49	149	234.0	-222324.0	-1657.0	1026.0
29	18	5	49	149	235.0	-220037.0	-1638.0	1475.0
29	18	5	49	150	236.0	-216541.0	-1629.0	1411.0
29	18	5	49	150	237.0	-213912.0	-1635.0	851.0
29	18	5	49	181	238.0	-210338.0	-1641.0	1614.0
29	18	5	49	227	239.0	-206713.0	-1624.0	2398.0
29	18	5	49	228	240.0	-203924.0	-1610.0	2261.0
29	18	5	49	228	241.0	-200658.0	-1609.0	2444.0
29	18	5	49	229	242.0	-197288.0	-1594.0	2302.0
29	18	5	49	230	243.0	-193433.0	-1578.0	2348.0
29	18	5	49	231	244.0	-190336.0	-1574.0	1554.0
29	18	5	49	232	245.0	-187677.0	-1563.0	1202.0
29	18	5	49	233	246.0	-184720.0	-1569.0	582.0
29	18	5	49	233	247.0	-182346.0	-1552.0	-591.0
29	18	5	49	234	248.0	-179799.0	-1536.0	-1117.0
29	18	5	49	235	249.0	-177444.0	-1553.0	-2082.0
29	18	5	49	236	250.0	-175194.0	-1544.0	-3534.0
29	18	5	49	237	251.0	-173556.0	-1561.0	-5264.0
29	18	5	49	237	252.0	-173361.0	-1574.0	-7439.0
29	18	5	49	238	254.0	-175316.0	-1586.0	-6226.0
29	18	5	49	239	20.0	-92827.0	-1976.0	1471.0
29	18	5	49	239	21.0	-65752.0	-1969.0	134.0
29	18	5	49	240	22.0	-56364.0	-1954.0	-442.0
29	18	5	49	240	23.0	-65904.0	-1947.0	-700.0
29	18	5	49	241	24.0	-85791.0	-1966.0	-1084.0
29	18	5	49	242	25.0	-118936.0	-1986.0	-816.0
29	18	5	49	242	26.0	-174295.0	-1988.0	-996.0
29	18	5	49	273	27.0	-247536.0	-1995.0	-1118.0
29	18	5	49	274	28.0	-323067.0	-1990.0	-1171.0
29	18	5	49	274	29.0	-385873.0	-2017.0	-1317.0
29	18	5	49	275	30.0	-420904.0	-2019.0	-1353.0
29	18	5	49	276	31.0	-419502.0	-2023.0	-1525.0
29	18	5	49	277	32.0	-388446.0	-2057.0	-1393.0
29	18	5	49	277	33.0	-340821.0	-2075.0	-1709.0
29	18	5	49	278	34.0	-284194.0	-2071.0	-1416.0
29	18	5	49	279	35.0	-228062.0	-2064.0	-987.0
29	18	5	49	279	36.0	-187782.0	-2075.0	-1024.0
29	18	5	49	280	37.0	-168091.0	-2081.0	-1257.0
29	18	5	49	281	38.0	-163791.0	-2101.0	-1026.0
29	18	5	49	281	39.0	-164247.0	-2114.0	-1119.0
29	18	5	49	282	40.0	-162523.0	-2129.0	-1585.0
29	18	5	49	283	41.0	-160204.0	-2175.0	-1334.0
29	18	5	49	283	43.0	-160301.0	-2195.0	-2571.0
29	18	5	49	284	44.0	-162268.0	-2213.0	-2706.0
29	18	5	49	284	45.0	-163529.0	-2219.0	-2004.0
29	18	5	49	285	46.0	-163311.0	-2236.0	-1890.0
29	18	5	49	286	47.0	-162549.0	-2255.0	-2384.0
29	18	5	49	286	48.0	-161181.0	-2262.0	-2942.0
29	18	5	49	317	49.0	-159641.0	-2274.0	-2509.0
29	18	5	49	318	50.0	-156936.0	-2284.0	-2299.0
29	18	5	49	318	51.0	-153017.0	-2284.0	-2306.0
29	18	5	49	319	52.0	-146792.0	-2327.0	-2464.0
29	18	5	49	320	53.0	-140502.0	-2369.0	-2760.0
29	18	5	49	320	54.0	-135732.0	-2380.0	-3237.0
29	18	5	49	321	55.0	-133354.0	-2388.0	-2746.0
29	18	5	49	322	56.0	-132766.0	-2407.0	-2166.0
29	18	5	49	323	57.0	-135544.0	-2426.0	-2857.0
29	18	5	49	323	58.0	-141394.0	-2414.0	-3319.0
29	18	5	49	324	59.0	-148195.0	-2418.0	-2620.0
29	18	5	49	325	60.0	-154420.0	-2444.0	-2881.0
29	18	5	49	325	61.0	-159825.0	-2441.0	-3274.0
29	18	5	49	326	62.0	-164122.0	-2445.0	-3172.0
29	18	5	49	327	63.0	-166965.0	-2479.0	-3112.0
29	18	5	49	327	65.0	-170007.0	-2504.0	-3433.0
29	18	5	49	328	66.0	-170379.0	-2491.0	-3535.0
29	18	5	49	328	67.0	-170383.0	-2513.0	-3461.0
29	18	5	49	329	68.0	-170533.0	-2541.0	-3426.0
29	18	5	49	330	69.0	-171492.0	-2569.0	-3317.0
29	18	5	49	330	70.0	-173951.0	-2586.0	-3110.0
29	18	5	49	331	71.0	-177611.0	-2587.0	-2561.0
29	18	5	49	362	72.0	-182257.0	-2591.0	-2699.0
29	18	5	49	363	73.0	-187012.0	-2558.0	-2929.0
29	18	5	49	364	74.0	-191880.0	-2543.0	-2567.0
29	18	5	49	365	75.0	-197386.0	-2577.0	-2929.0
29	18	5	49	365	76.0	-203806.0	-2579.0	-3186.0
29	18	5	49	366	77.0	-210186.0	-2595.0	-2321.0
29	18	5	49	367	78.0	-215904.0	-2610.0	-1682.0
29	18	5	49	368	79.0	-221089.0	-2614.0	-2337.0
29	18	5	49	368	80.0	-225507.0	-2627.0	-3089.0
29	18	5	49	369	81.0	-229074.0	-2639.0	-2759.0
29	18	5	49	370	82.0	-231621.0	-2666.0	-2915.0
29	18	5	49	370	83.0	-233212.0	-2686.0	-2849.0
29	18	5	49	371	84.0	-233401.0	-2700.0	-2357.0
29	18	5	49	372	85.0	-232462.0	-2724.0	-2214.0
29	18	5	49	372	86.0	-231329.0	-2741.0	-2061.0
29	18	5	49	373	88.0	-227746.0	-2769.0	-987.0
29	18	5	49	373	89.0	-224979.0	-2772.0	-1188.0
29	18	5	49	374	90.0	-221734.0	-2758.0	-826.0
29	18	5	49	375	91.0	-218520.0	-2766.0	-234.0
29	18	5	49	375	92.0	-215163.0	-2764.0	-656.0
29	18	5	49	376	93.0	-211511.0	-2754.0	-1399.0
29	18	5	49	498	94.0	-207409.0	-2737.0	-1342.0
29	18	5	49	499	95.0	-202867.0	-2726.0	-777.0
29	18	5	49	500	96.0	-198261.0	-2716.0	-821.0
29	18	5	49	500	97.0	-193631.0	-2696.0	-591.0
29	18	5	49	501	98.0	-188834.0	-2677.0	-399.0
29	18	5	49	502	99.0	-183805.0	-2664.0	-487.0
29	18	5	49	502	100.0	-179033.0	-2640.0	-604.0
29	18	5	49	504	101.0	-174611.0	-2596.0	43.0
29	18	5	49	505	102.0	-170771.0	-2577.0	455.0
29	18	5	49	507	103.0	-167830.0	-2556.0	316.0
29	18	5	49	507	104.0	-165939.0	-2546.0	705.0
29	18	5	49	508	105.0	-165122.0	-2536.0	811.0
29	18	5	49	509	106.0	-164954.0	-2510.0	755.0
29	18	5	49	509	107.0	-165556.0	-2473.0	394.0
29	18	5	49	510	108.0	-166755.0	-2457.0	539.0
29	18	5	49	511	110.0	-171038.0	-2394.0	523.0
29	18	5	49	511	155.0	-248879.0	-1506.0	-3138.0
29	18	5	49	512	156.0	-209947.0	-1511.0	-3139.0
29	18	5	49	512	157.0	-172987.0	-1517.0	-3060.0
29	18	5	49	513	158.0	-162447.0	-1509.0	-3236.0
29	18	5	49	514	159.0	-174807.0	-1491.0	-3568.0
29	18	5	49	514	160.0	-190044.0	-1486.0	-3095.0
29	18	5	49	515	161.0	-210717.0	-1469.0	-2573.0
29	18	5	49	542	162.0	-232511.0	-1466.0	-3071.0
29	18	5	49	544	163.0	-253274.0	-1468.0	-3316.0
29	18	5	49	544	164.0	-262527.0	-1484.0	-3540.0
29	18	5	49	545	165.0	-263234.0	-1493.0	-3546.0
29	18	5	49	546	166.0	-254122.0	-1499.0	-3170.0
29	18	5	49	547	167.0	-237672.0	-1511.0	-3366.0
29	18	5	49	547	168.0	-220482.0	-1502.0	-3522.0
29	18	5	49	548	169.0	-206859.0	-1486.0	-3206.0
29	18	5	49	549	170.0	-199592.0	-1484.0	-3027.0
29	18	5	49	550	171.0	-197606.0	-1480.0	-3217.0
29	18	5	49	550	172.0	-197424.0	-1481.0	-3384.0
29	18	5	49	551	173.0	-199282.0	-1478.0	-3256.0
29	18	5	49	552	174.0	-202489.0	-1457.0	-2531.0
29	18	5	49	552	175.0	-204167.0	-1442.0	-3073.0
29	18	5	49	553	176.0	-203763.0	-1431.0	-3567.0
29	18	5	49	553	177.0	-202267.0	-1432.0	-3329.0
29	18	5	49	554	178.0	-198799.0	-1442.0	-3690.0
29	18	5	49	555	179.0	-193706.0	-1461.0	-3373.0
29	18	5	49	555	180.0	-188728.0	-1447.0	-3052.0
29	18	5	49	556	181.0	-183596.0	-1438.0	-3647.0
29	18	5	49	556	182.0	-177919.0	-1422.0	-3897.0
29	18	5	49	557	183.0	-172523.0	-1418.0	-3637.0
29	18	5	49	587	184.0	-167371.0	-1414.0	-3998.0
29	18	5	49	587	185.0	-161152.0	-1431.0	-3452.0
29	18	5	49	588	186.0	-153368.0	-1433.0	-3386.0
29	18	5	49	589	187.0	-142894.0	-1446.0	-3297.0
29	18	5	49	589	188.0	-129084.0	-1449.0	-3456.0
29	18	5	49	590	189.0	-114129.0	-1469.0	-3311.0
29	18	5	49	590	190.0	-102100.0	-1482.0	-3306.0
29	18	5	49	591	191.0	-95838.0	-1490.0	-3825.0
29	18	5	49	592	192.0	-94012.0	-1494.0	-3526.0
29	18	5	49	592	193.0	-95666.0	-1525.0	-3298.0
29	18	5	49	593	194.0	-100542.0	-1538.0	-3243.0
29	18	5	49	594	195.0	-107276.0	-1532.0	-3344.0
29	18	5	49	594	196.0	-114576.0	-1544.0	-2879.0
29	18	5	49	595	197.0	-121684.0	-1536.0	-2613.0
29	18	5	49	595	198.0	-128811.0	-1550.0	-2651.0
29	18	5	49	596	200.0	-144955.0	-1537.0	-2425.0
29	18	5	49	597	201.0	-154893.0	-1531.0	-2564.0
29	18	5	49	597	202.0	-165289.0	-1518.0	-2847.0
29	18	5	49	598	203.0	-175774.0	-1512.0	-2544.0
29	18	5	49	598	204.0	-185579.0	-1507.0	-2651.0
29	18	5	49	599	205.0	-194446.0	-1503.0	-2394.0
29	18	5	49	631	206.0	-202089.0	-1505.0	-2434.0
29	18	5	49	632	207.0	-208609.0	-1501.0	-2525.0
29	18	5	49	633	208.0	-213833.0	-1476.0	-2447.0
29	18	5	49	633	209.0	-217562.0	-1471.0	-2457.0
29	18	5	49	634	210.0	-220164.0	-1450.0	-2497.0
29	18	5	49	634	211.0	-221801.0	-1434.0	-2384.0
29	18	5	49	635	212.0	-223294.0	-1438.0	-2453.0
29	18	5	49	636	213.0	-224966.0	-1420.0	-2527.0
29	18	5	49	636	214.0	-226104.0	-1419.0	-2872.0
29	18	5	49	637	215.0	-226646.0	-1414.0	-2780.0
29	18	5	49	638	216.0	-226617.0	-1389.0	-2667.0
29	18	5	49	639	217.0	-226497.0	-1420.0	-2499.0
29	18	5	49	639	218.0	-226357.0	-1449.0	-2696.0
29	18	5	49	653	219.0	-225722.0	-1442.0	-2726.0
29	18	5	49	653	220.0	-224863.0	-1458.0	-2870.0
29	18	5	49	654	222.0	-222169.0	-1484.0	-2348.0
29	18	5	49	654	223.0	-220400.0	-1492.0	-2197.0
29	18	5	49	655	224.0	-218437.0	-1501.0	-1977.0
29	18	5	49	655	225.0	-216233.0	-1514.0	-1964.0
29	18	5	49	656	226.0	-213704.0	-1524.0	-1981.0
29	18	5	49	656	227.0	-210902.0	-1532.0	-2044.0
29	18	5	49	657	228.0	-207667.0	-1524.0	-2352.0
29	18	5	49	690	229.0	-204077.0	-1529.0	-2142.0
29	18	5	49	720	230.0	-200685.0	-1538.0	-1991.0
29	18	5	49	721	231.0	-197026.0	-1574.0	-2179.0
29	18	5	49	722	232.0	-192609.0	-1586.0	-2281.0
29	18	5	49	722	233.0	-187779.0	-1582.0	-1782.0
29	18	5	49	723	234.0	-183125.0	-1595.0	-1746.0
29	18	5	49	723	235.0	-178852.0	-1635.0	-1731.0
29	18	5	49	724	236.0	-174980.0	-1652.0	-1519.0
29	18	5	49	725	237.0	-171612.0	-1667.0	-1541.0
29	18	5	49	725	238.0	-168909.0	-1697.0	-1420.0
29	18	5	49	726	239.0	-167309.0	-1689.0	-1216.0
29	18	5	49	726	240.0	-166929.0	-1708.0	-796.0
29	18	5	49	727	241.0	-167481.0	-1711.0	-1716.0
29	18	5	49	727	242.0	-168506.0	-1707.0	-2008.0
29	18	5	49	728	243.0	-170000.0	-1714.0	-2416.0
29	18	5	49	729	245.0	-175685.0	-1779.0	-2449.0
29	18	5	49	729	246.0	-179820.0	-1791.0	-2174.0
29	18	5	49	738	11.0	-237667.0	-1740.0	-3734.0
29	18	5	49	738	12.0	-238627.0	-1764.0	-4439.0
29	18	5	49	739	13.0	-239420.0	-1759.0	-4017.0
29	18	5	49	739	14.0	-240009.0	-1747.0	-4162.0
29	18	5	49	740	15.0	-240627.0	-1728.0	-4533.0
29	18	5	49	740	16.0	-241449.0	-1703.0	-4272.0
29	18	5	49	741	17.0	-242181.0	-1693.0	-4177.0
29	18	5	49	741	18.0	-242781.0	-1684.0	-4951.0
29	18	5	49	767	19.0	-243074.0	-1668.0	-4946.0
29	18	5	49	767	20.0	-243329.0	-1656.0	-4187.0
29	18	5	49	768	21.0	-243735.0	-1639.0	-4252.0
29	18	5	49	769	22.0	-244368.0	-1616.0	-4259.0
29	18	5	49	769	23.0	-244893.0	-1626.0	-4044.0
29	18	5	49	770	24.0	-245839.0	-1624.0	-3812.0
29	18	5	49	770	25.0	-247489.0	-1627.0	-4537.0
29	18	5	49	771	26.0	-249011.0	-1630.0	-4361.0
29	18	5	49	771	27.0	-250239.0	-1632.0	-4279.0
29	18	5	49	772	28.0	-251451.0	-1630.0	-4216.0
29	18	5	49	773	29.0	-252254.0	-1637.0	-4089.0
29	18	5	49	773	30.0	-252160.0	-1664.0	-4139.0
29	18	5	49	774	31.0	-251183.0	-1672.0	-4464.0
29	18	5	49	774	32.0	-249226.0	-1671.0	-4334.0
29	18	5	49	775	33.0	-246625.0	-1683.0	-3961.0
29	18	5	49	775	34.0	-244050.0	-1703.0	-4483.0
29	18	5	49	776	35.0	-241220.0	-1714.0	-4690.0
29	18	5	49	777	36.0	-238041.0	-1699.0	-4514.0
29	18	5	49	777	37.0	-234197.0	-1702.0	-4576.0
29	18	5	49	778	38.0	-229981.0	-1691.0	-4942.0
29	18	5	49	778	39.0	-225448.0	-1696.0	-4452.0
29	18	5	49	812	40.0	-220704.0	-1707.0	-4707.0
29	18	5	49	812	41.0	-215596.0	-1709.0	-4950.0
29	18	5	49	813	42.0	-209884.0	-1716.0	-4913.0
29	18	5	49	834	43.0	-204297.0	-1743.0	-4955.0
29	18	5	49	835	44.0	-198832.0	-1784.0	-4671.0
29	18	5	49	835	45.0	-193397.0	-1796.0	-5034.0
29	18	5	49	836	46.0	-188234.0	-1824.0	-4856.0
29	18	5	49	837	47.0	-183600.0	-1827.0	-5068.0
29	18	5	49	837	48.0	-179402.0	-1844.0	-4800.0
29	18	5	49	838	49.0	-175894.0	-1872.0	-4099.0
29	18	5	49	838	50.0	-173069.0	-1885.0	-3677.0
29	18	5	49	839	51.0	-171434.0	-1890.0	-4146.0
29	18	5	49	839	52.0	-171236.0	-1904.0	-4319.0
29	18	5	49	840	53.0	-172393.0	-1949.0	-4794.0
29	18	5	49	840	54.0	-174422.0	-1971.0	-5637.0
29	18	5	49	841	56.0	-181249.0	-1996.0	-6357.0
29	18	5	49	841	57.0	-186016.0	-2009.0	-7934.0
29	18	5	49	842	58.0	-191163.0	-2026.0	-9192.0
29	18	5	49	842	59.0	-196259.0	-2029.0	-10297.0
29	18	5	49	843	60.0	-201109.0	-2027.0	-11871.0
29	18	5	49	844	61.0	-206322.0	-2036.0	-12789.0
29	18	5	49	857	62.0	-211863.0	-2040.0	-10726.0
29	18	5	49	858	63.0	-217067.0	-2039.0	-8023.0
29	18	5	49	859	64.0	-221676.0	-2050.0	-7817.0
29	18	5	49	859	65.0	-225692.0	-2068.0	-8784.0
29	18	5	49	860	66.0	-228745.0	-2092.0	-9639.0
29	18	5	49	860	67.0	-230424.0	-2091.0	-9957.0
29	18	5	49	861	68.0	-229962.0	-2112.0	-8021.0
29	18	5	49	862	69.0	-227668.0	-2127.0	-4485.0
29	18	5	49	863	70.0	-223984.0	-2147.0	-2212.0
29	18	5	49	863	71.0	-218769.0	-2176.0	-1887.0
29	18	5	49	864	72.0	-212495.0	-2186.0	-1253.0
29	18	5	49	864	73.0	-205994.0	-2217.0	440.0
29	18	5	49	865	74.0	-200981.0	-2212.0	1099.0
29	18	5	49	865	75.0	-198454.0	-2210.0	-1032.0
29	18	5	49	866	76.0	-198615.0	-2209.0	-2201.0
29	18	5	49	867	78.0	-205704.0	-2203.0	-2021.0
29	18	5	49	867	79.0	-208012.0	-2206.0	-1764.0
29	18	5	49	868	80.0	-206886.0	-2197.0	-1984.0
29	18	5	49	868	81.0	-190402.0	-2210.0	-2928.0
29	18	5	49	869	82.0	-144441.0	-2211.0	-3179.0
29	18	5	49	869	83.0	-83757.0	-2211.0	-3772.0
29	18	5	49	870	84.0	-22131.0	-2205.0	-4866.0
29	18	5	49	953	85.0	27933.0	-2202.0	-5055.0
29	18	5	49	954	86.0	51798.0	-2184.0	-5223.0
29	18	5	49	955	87.0	40761.0	-2170.0	-5917.0
29	18	5	49	955	88.0	8161.0	-2181.0	-5831.0
29	18	5	49	956	89.0	-33171.0	-2199.0	-5477.0
29	18	5	49	957	90.0	-87517.0	-2226.0	-5723.0
29	18	5	49	957	91.0	-158193.0	-2227.0	-5805.0
29	18	5	49	958	92.0	-238424.0	-2251.0	-5199.0
29	18	5	49	958	93.0	-319262.0	-2255.0	-5367.0
29	18	5	49	959	94.0	-383016.0	-2269.0	-5817.0
29	18	5	49	959	95.0	-410814.0	-2292.0	-5559.0
29	18	5	49	960	96.0	-403561.0	-2283.0	-5511.0
29	18	5	49	960	97.0	-370514.0	-2320.0	-5701.0
29	18	5	49	961	98.0	-321429.0	-2333.0	-5809.0
29	18	5	49	961	99.0	-271589.0	-2354.0	-5451.0
29	18	5	49	962	101.0	-209650.0	-2348.0	-5452.0
29	18	5	49	963	124.0	-107266.0	-2539.0	-5770.0
29	18	5	49	963	125.0	-113219.0	-2553.0	-6161.0
29	18	5	49	964	126.0	-120648.0	-2557.0	-6291.0
29	18	5	49	964	127.0	-129395.0	-2569.0	-6030.0
29	18	5	49	965	128.0	-138574.0	-2567.0	-5357.0
29	18	5	49	965	129.0	-146048.0	-2554.0	-5069.0
29	18	5	49	992	130.0	-151910.0	-2561.0	-5439.0
29	18	5	49	994	131.0	-157581.0	-2557.0	-5296.0
29	18	5	49	995	132.0	-161749.0	-2559.0	-5127.0
29	18	5	49	996	133.0	-164202.0	-2558.0	-4689.0
29	18	5	49	996	134.0	-165981.0	-2559.0	-5119.0
29	18	5	49	997	135.0	-166328.0	-2576.0	-5049.0
29	18	5	49	997	136.0	-165922.0	-2539.0	-5092.0
29	18	5	49	998	137.0	-165608.0	-2515.0	-5202.0
29	18	5	49	999	138.0	-164819.0	-2530.0	-5132.0
29	18	5	49	999	139.0	-164321.0	-2532.0	-4824.0
29	18	5	50	0	140.0	-164695.0	-2510.0	-5261.0
29	18	5	50	0	141.0	-165418.0	-2501.0	-4946.0
29	18	5	50	1	142.0	-166271.0	-2481.0	-4746.0
29	18	5	50	1	143.0	-167342.0	-2479.0	-4846.0
29	18	5	50	2	144.0	-168988.0	-2493.0	-4691.0
29	18	5	50	3	146.0	-174501.0	-2503.0	-4969.0
29	18	5	50	3	147.0	-177112.0	-2498.0	-5075.0
29	18	5	50	4	148.0	-179529.0	-2489.0	-4730.0
29	18	5	50	4	149.0	-181771.0	-2482.0	-4857.0
29	18	5	50	5	150.0	-183837.0	-2481.0	-4422.0
29	18	5	50	5	151.0	-185191.0	-2463.0	-4266.0
29	18	5	50	36	152.0	-185841.0	-2429.0	-4535.0
29	18	5	50	37	153.0	-186307.0	-2424.0	-4007.0
29	18	5	50	37	154.0	-185790.0	-2419.0	-3837.0
29	18	5	50	38	155.0	-183774.0	-2422.0	-3483.0
29	18	5	50	39	156.0	-181387.0	-2438.0	-3671.0
29	18	5	50	39	157.0	-179260.0	-2449.0	-3657.0
29	18	5	50	40	158.0	-177352.0	-2446.0	-2682.0
29	18	5	50	40	159.0	-175369.0	-2430.0	-3027.0
29	18	5	50	41	160.0	-173516.0	-2442.0	-2697.0
29	18	5	50	42	161.0	-172049.0	-2435.0	-2129.0
29	18	5	50	42	162.0	-170987.0	-2436.0	-1752.0
29	18	5	50	43	163.0	-170150.0	-2457.0	-2068.0
29	18	5	50	43	164.0	-169544.0	-2467.0	-2354.0
29	18	5	50	44	165.0	-169524.0	-2474.0	-2371.0
29	18	5	50	45	166.0	-170279.0	-2481.0	-1787.0
29	18	5	50	45	168.0	-172166.0	-2477.0	-1294.0
29	18	5	50	46	169.0	-173557.0	-2476.0	-1196.0
29	18	5	50	46	170.0	-175759.0	-2471.0	-689.0
29	18	5	50	47	171.0	-178532.0	-2447.0	-839.0
29	18	5	50	47	172.0	-180435.0	-2430.0	113.0
29	18	5	50	48	173.0	-182064.0	-2407.0	-150.0
29	18	5	50	49	174.0	-183534.0	-2361.0	-257.0
29	18	5	50	81	175.0	-184835.0	-2324.0	-270.0
29	18	5	50	82	176.0	-185319.0	-2312.0	-239.0
29	18	5	50	83	177.0	-185356.0	-2286.0	-136.0
29	18	5	50	83	178.0	-185336.0	-2257.0	487.0
29	18	5	50	84	179.0	-185228.0	-2239.0	469.0
29	18	5	50	84	180.0	-184902.0	-2191.0	628.0
29	18	5	50	85	181.0	-184196.0	-2157.0	14.0
29	18	5	50	86	182.0	-183422.0	-2120.0	-51.0
29	18	5	50	86	183.0	-182396.0	-2105.0	-388.0
29	18	5	50	87	184.0	-181665.0	-2049.0	-339.0
29	18	5	50	88	185.0	-181329.0	-2029.0	-307.0
29	18	5	50	88	186.0	-181379.0	-1982.0	-628.0
29	18	5	50	89	187.0	-181961.0	-1936.0	-934.0
29	18	5	50	90	188.0	-183031.0	-1909.0	-1225.0
29	18	5	50	91	189.0	-184153.0	-1864.0	-1539.0
29	18	5	50	92	191.0	-185701.0	-1788.0	-1696.0
29	18	5	50	92	192.0	-186730.0	-1757.0	-2232.0
29	18	5	50	93	193.0	-187802.0	-1713.0	-2671.0
29	18	5	50	93	194.0	-189113.0	-1664.0	-2394.0
29	18	5	50	94	195.0	-190451.0	-1631.0	-2719.0
29	18	5	50	94	196.0	-191281.0	-1579.0	-3062.0
29	18	5	50	127	197.0	-192131.0	-1542.0	-2397.0
29	18	5	50	127	198.0	-192726.0	-1526.0	-2697.0
29	18	5	50	128	199.0	-193265.0	-1492.0	-3505.0
29	18	5	50	129	200.0	-193604.0	-1466.0	-3033.0
29	18	5	50	172	201.0	-194184.0	-1445.0	-3172.0
29	18	5	50	173	202.0	-195629.0	-1426.0	-3739.0
29	18	5	50	174	203.0	-197913.0	-1410.0	-3937.0
29	18	5	50	175	204.0	-200876.0	-1404.0	-3661.0
29	18	5	50	175	205.0	-204716.0	-1403.0	-3625.0
29	18	5	50	176	206.0	-209289.0	-1398.0	-3741.0
29	18	5	50	177	207.0	-214250.0	-1391.0	-3938.0
29	18	5	50	177	208.0	-219506.0	-1381.0	-3926.0
29	18	5	50	178	209.0	-225029.0	-1360.0	-3482.0
29	18	5	50	179	210.0	-230640.0	-1342.0	-3425.0
29	18	5	50	179	211.0	-236108.0	-1326.0	-3737.0
29	18	5	50	180	213.0	-246069.0	-1300.0	-4127.0
29	18	5	50	180	214.0	-250782.0	-1292.0	-3881.0
29	18	5	50	181	215.0	-254937.0	-1283.0	-3369.0
29	18	5	50	182	216.0	-258509.0	-1280.0	-3312.0
29	18	5	50	182	217.0	-261069.0	-1271.0	-3697.0
29	18	5	50	183	236.0	-247962.0	-1447.0	-3724.0
29	18	5	50	183	237.0	-230136.0	-1442.0	-3332.0
29	18	5	50	184	238.0	-216836.0	-1423.0	-3727.0
29	18	5	50	185	239.0	-207965.0	-1429.0	-3626.0
29	18	5	50	185	240.0	-200324.0	-1458.0	-3936.0
29	18	5	50	186	241.0	-194886.0	-1456.0	-3399.0
29	18	5	50	217	242.0	-191071.0	-1432.0	-3120.0
29	18	5	50	261	243.0	-186372.0	-1458.0	-3364.0
29	18	5	50	261	244.0	-180265.0	-1469.0	-3637.0
29	18	5	50	262	245.0	-173692.0	-1471.0	-4279.0
29	18	5	50	263	246.0	-166692.0	-1485.0	-4410.0
29	18	5	50	263	247.0	-158193.0	-1504.0	-4465.0
29	18	5	50	264	248.0	-148386.0	-1525.0	-4119.0
29	18	5	50	264	249.0	-138197.0	-1522.0	-4082.0
29	18	5	50	265	250.0	-127712.0	-1539.0	-4179.0
29	18	5	50	266	251.0	-117116.0	-1548.0	-3749.0
29	18	5	50	266	252.0	-109140.0	-1552.0	-3520.0
29	18	5	50	267	253.0	-104099.0	-1538.0	-3786.0
29	18	5	50	267	254.0	-100982.0	-1532.0	-3979.0
29	18	5	50	268	255.0	-99594.0	-1534.0	-4039.0
29	18	5	50	269	0.0	-98088.0	-1534.0	-4402.0
29	18	5	50	269	2.0	-95269.0	-1514.0	-4124.0
29	18	5	50	307	3.0	-94139.0	-1517.0	-3977.0
29	18	5	50	307	25.0	-219841.0	-1628.0	-2624.0
29	18	5	50	308	26.0	-224378.0	-1624.0	-2832.0
29	18	5	50	309	27.0	-228127.0	-1645.0	-2534.0
29	18	5	50	309	28.0	-230883.0	-1644.0	-2109.0
29	18	5	50	310	29.0	-232851.0	-1619.0	-2667.0
29	18	5	50	310	30.0	-234009.0	-1615.0	-3009.0
29	18	5	50	311	31.0	-234261.0	-1630.0	-2934.0
29	18	5	50	312	32.0	-233971.0	-1650.0	-2687.0
29	18	5	50	312	33.0	-233095.0	-1684.0	-2683.0
29	18	5	50	313	34.0	-231548.0	-1711.0	-2887.0
29	18	5	50	313	35.0	-229808.0	-1725.0	-2685.0
29	18	5	50	314	36.0	-227972.0	-1754.0	-3189.0
29	18	5	50	315	37.0	-225913.0	-1779.0	-3379.0
29	18	5	50	315	38.0	-223762.0	-1786.0	-2954.0
29	18	5	50	316	39.0	-221951.0	-1786.0	-3119.0
29	18	5	50	317	47.0	-207091.0	-1898.0	-2447.0
29	18	5	50	317	48.0	-204262.0	-1895.0	-2733.0
29	18	5	50	318	49.0	-201374.0	-1892.0	-2737.0
29	18	5	50	319	50.0	-198762.0	-1891.0	-2824.0
29	18	5	50	320	51.0	-196722.0	-1902.0	-2846.0
29	18	5	50	320	52.0	-195502.0	-1907.0	-2969.0
29	18	5	50	321	53.0	-194919.0	-1891.0	-2757.0
29	18	5	50	397	54.0	-194996.0	-1877.0	-2427.0
29	18	5	50	398	55.0	-195619.0	-1870.0	-2952.0
29	18	5	50	399	56.0	-196399.0	-1889.0	-3169.0
29	18	5	50	399	57.0	-197422.0	-1894.0	-3176.0
29	18	5	50	487	58.0	-198411.0	-1904.0	-3071.0
29	18	5	50	488	59.0	-199201.0	-1894.0	-2730.0
29	18	5	50	489	60.0	-199942.0	-1887.0	-2419.0
29	18	5	50	489	61.0	-200311.0	-1884.0	-2275.0
29	18	5	50	490	62.0	-200381.0	-1877.0	-2349.0
29	18	5	50	491	63.0	-200394.0	-1867.0	-2264.0
29	18	5	50	491	64.0	-200378.0	-1872.0	-2081.0
29	18	5	50	492	65.0	-200196.0	-1871.0	-1824.0
29	18	5	50	493	66.0	-199857.0	-1842.0	-2194.0
29	18	5	50	493	67.0	-200122.0	-1847.0	-2378.0
29	18	5	50	494	68.0	-200759.0	-1854.0	-2356.0
29	18	5	50	495	69.0	-201822.0	-1857.0	-2612.0
29	18	5	50	495	92.0	-208886.0	-1637.0	-3674.0
29	18	5	50	496	93.0	-206128.0	-1624.0	-4072.0
29	18	5	50	496	94.0	-204092.0	-1609.0	-4581.0
29	18	5	50	497	95.0	-202442.0	-1596.0	-4459.0
29	18	5	50	498	137.0	-165412.0	-1867.0	-2600.0
29	18	5	50	498	138.0	-171731.0	-1876.0	-2315.0
29	18	5	50	499	139.0	-178670.0	-1890.0	-2070.0
29	18	5	50	499	140.0	-186072.0	-1897.0	-2213.0
29	18	5	50	500	141.0	-193769.0	-1904.0	-2676.0
29	18	5	50	501	142.0	-201091.0	-1897.0	-3477.0
29	18	5	50	532	143.0	-208113.0	-1928.0	-3961.0
29	18	5	50	533	144.0	-214600.0	-1946.0	-4907.0
29	18	5	50	533	145.0	-221031.0	-1988.0	-5861.0
29	18	5	50	534	146.0	-227383.0	-2027.0	-6678.0
29	18	5	50	535	147.0	-233654.0	-2042.0	-7772.0
29	18	5	50	536	148.0	-239766.0	-2055.0	-10462.0
29	18	5	50	536	149.0	-245967.0	-2072.0	-11575.0
29	18	5	50	537	150.0	-252987.0	-2096.0	-9772.0
29	18	5	50	537	151.0	-260717.0	-2096.0	-8130.0
29	18	5	50	538	152.0	-268184.0	-2096.0	-6944.0
29	18	5	50	539	153.0	-274729.0	-2103.0	-6079.0
29	18	5	50	539	154.0	-279427.0	-2109.0	-6085.0
29	18	5	50	540	155.0	-281646.0	-2129.0	-6209.0
29	18	5	50	540	156.0	-281483.0	-2114.0	-4069.0
29	18	5	50	541	157.0	-278773.0	-2119.0	-557.0
29	18	5	50	541	159.0	-267687.0	-2126.0	1041.0
29	18	5	50	576	160.0	-259837.0	-2133.0	1357.0
29	18	5	50	577	161.0	-250974.0	-2161.0	3241.0
29	18	5	50	577	162.0	-241984.0	-2186.0	3670.0
29	18	5	50	578	163.0	-233847.0	-2191.0	1388.0
29	18	5	50	579	164.0	-227635.0	-2192.0	-617.0
29	18	5	50	579	165.0	-223947.0	-2217.0	-655.0
29	18	5	50	580	166.0	-223379.0	-2250.0	-316.0
29	18	5	50	581	167.0	-221801.0	-2272.0	-1321.0
29	18	5	50	581	168.0	-199880.0	-2302.0	-1564.0
29	18	5	50	582	169.0	-155443.0	-2337.0	-1729.0
29	18	5	50	582	170.0	-99709.0	-2371.0	-2424.0
29	18	5	50	583	171.0	-42781.0	-2396.0	-3445.0
29	18	5	50	584	172.0	2879.0	-2428.0	-3809.0
29	18	5	50	584	173.0	22736.0	-2469.0	-3720.0
29	18	5	50	585	174.0	11015.0	-2496.0	-3640.0
29	18	5	50	585	181.0	-366887.0	-2656.0	-4334.0
29	18	5	50	586	182.0	-402876.0	-2692.0	-3694.0
29	18	5	50	587	183.0	-409396.0	-2720.0	-3396.0
29	18	5	50	587	184.0	-385633.0	-2744.0	-3814.0
29	18	5	50	588	185.0	-342844.0	-2771.0	-3764.0
29	18	5	50	588	186.0	-292442.0	-2775.0	-3342.0
29	18	5	50	589	187.0	-241242.0	-2798.0	-3820.0
29	18	5	50	668	188.0	-195192.0	-2786.0	-4133.0
29	18	5	50	669	189.0	-166624.0	-2814.0	-4232.0
29	18	5	50	670	190.0	-159745.0	-2859.0	-4562.0
29	18	5	50	670	191.0	-167270.0	-2883.0	-4440.0
29	18	5	50	671	192.0	-180426.0	-2907.0	-4489.0
29	18	5	50	672	193.0	-189698.0	-2924.0	-4842.0
29	18	5	50	672	194.0	-189148.0	-2937.0	-4706.0
29	18	5	50	673	195.0	-180579.0	-2974.0	-4757.0
29	18	5	50	673	196.0	-169354.0	-3007.0	-4809.0
29	18	5	50	674	197.0	-160460.0	-3032.0	-4325.0
29	18	5	50	675	198.0	-155114.0	-3056.0	-3921.0
29	18	5	50	675	199.0	-151887.0	-3074.0	-4103.0
29	18	5	50	676	200.0	-149354.0	-3097.0	-4304.0
29	18	5	50	676	201.0	-147727.0	-3136.0	-4300.0
29	18	5	50	677	202.0	-147929.0	-3149.0	-3991.0
29	18	5	50	678	226.0	-154366.0	-3496.0	-3507.0
29	18	5	50	678	227.0	-153533.0	-3505.0	-3609.0
29	18	5	50	679	228.0	-153391.0	-3516.0	-3651.0
29	18	5	50	679	229.0	-153262.0	-3515.0	-3583.0
29	18	5	50	680	230.0	-152851.0	-3490.0	-3102.0
29	18	5	50	681	231.0	-152987.0	-3486.0	-3055.0
29	18	5	50	681	232.0	-154195.0	-3490.0	-3194.0
29	18	5	50	712	233.0	-155327.0	-3478.0	-3174.0
29	18	5	50	712	234.0	-155071.0	-3472.0	-2556.0
29	18	5	50	713	235.0	-153937.0	-3482.0	-2156.0
29	18	5	50	714	236.0	-152605.0	-3492.0	-2399.0
29	18	5	50	714	237.0	-151276.0	-3524.0	-2261.0
29	18	5	50	715	238.0	-149874.0	-3532.0	-2442.0
29	18	5	50	716	239.0	-148256.0	-3542.0	-2120.0
29	18	5	50	716	240.0	-146621.0	-3562.0	-2138.0
29	18	5	50	717	241.0	-145223.0	-3579.0	-1922.0
29	18	5	50	718	242.0	-144536.0	-3585.0	-1832.0
29	18	5	50	718	243.0	-143922.0	-3574.0	-1767.0
29	18	5	50	719	244.0	-143652.0	-3583.0	-1434.0
29	18	5	50	720	245.0	-143988.0	-3597.0	-1341.0
29	18	5	50	720	246.0	-144482.0	-3612.0	-1550.0
29	18	5	50	721	247.0	-144894.0	-3626.0	-1203.0
29	18	5	50	721	249.0	-148041.0	-3627.0	-966.0
29	18	5	50	722	250.0	-150638.0	-3651.0	-581.0
29	18	5	50	723	251.0	-153442.0	-3641.0	-94.0
29	18	5	50	723	252.0	-156571.0	-3621.0	213.0
29	18	5	50	724	253.0	-160262.0	-3604.0	1.0
29	18	5	50	724	254.0	-164702.0	-3594.0	475.0
29	18	5	50	756	255.0	-169241.0	-3586.0	1241.0
29	18	5	50	757	0.0	-173120.0	-3582.0	903.0
29	18	5	50	758	1.0	-176517.0	-3562.0	1118.0
29	18	5	50	758	2.0	-179972.0	-3549.0	1148.0
29	18	5	50	759	3.0	-183954.0	-3532.0	1613.0
29	18	5	50	760	4.0	-187534.0	-3527.0	1508.0
29	18	5	50	760	5.0	-190395.0	-3505.0	2006.0
29	18	5	50	761	6.0	-193133.0	-3499.0	2114.0
29	18	5	50	762	7.0	-195726.0	-3489.0	1459.0
29	18	5	50	763	8.0	-197674.0	-3478.0	1878.0
29	18	5	50	802	9.0	-199421.0	-3448.0	1977.0
29	18	5	50	803	10.0	-201657.0	-3412.0	2444.0
29	18	5	50	804	11.0	-204108.0	-3397.0	2734.0
29	18	5	50	804	12.0	-206452.0	-3371.0	2391.0
29	18	5	50	805	13.0	-208354.0	-3335.0	2351.0
29	18	5	50	806	15.0	-211815.0	-3242.0	2336.0
29	18	5	50	806	16.0	-213447.0	-3179.0	2283.0
29	18	5	50	807	17.0	-214962.0	-3138.0	2861.0
29	18	5	50	808	18.0	-216417.0	-3073.0	2445.0
29	18	5	50	808	19.0	-217095.0	-3007.0	1981.0
29	18	5	50	809	20.0	-217079.0	-2974.0	2030.0
29	18	5	50	810	21.0	-216779.0	-2935.0	1864.0
29	18	5	50	810	22.0	-216246.0	-2906.0	2078.0
29	18	5	50	811	23.0	-215722.0	-2852.0	1646.0
29	18	5	50	812	24.0	-215184.0	-2827.0	1218.0
29	18	5	50	812	25.0	-214661.0	-2792.0	976.0
29	18	5	50	813	38.0	-209109.0	-2306.0	-439.0
29	18	5	50	813	39.0	-211519.0	-2271.0	-879.0
29	18	5	50	814	40.0	-213674.0	-2224.0	-1157.0
29	18	5	50	815	41.0	-216344.0	-2178.0	-1536.0
29	18	5	50	815	42.0	-219971.0	-2134.0	-1374.0
29	18	5	50	816	43.0	-224362.0	-2075.0	-1672.0
29	18	5	50	847	44.0	-228862.0	-2038.0	-1002.0
29	18	5	50	847	45.0	-233444.0	-1992.0	-688.0
29	18	5	50	892	46.0	-238426.0	-1941.0	-1022.0
29	18	5	50	892	47.0	-243401.0	-1916.0	-1314.0
29	18	5	50	893	48.0	-247693.0	-1884.0	-1644.0
29	18	5	50	894	49.0	-250967.0	-1842.0	-1188.0
29	18	5	50	894	50.0	-253412.0	-1807.0	-1056.0
29	18	5	50	895	51.0	-254964.0	-1789.0	-1439.0
29	18	5	50	896	52.0	-255672.0	-1778.0	-1234.0
29	18	5	50	896	53.0	-254512.0	-1744.0	-1461.0
29	18	5	50	897	54.0	-251266.0	-1727.0	-1471.0
29	18	5	50	898	55.0	-244014.0	-1694.0	-1306.0
29	18	5	50	898	56.0	-224954.0	-1671.0	-1699.0
29	18	5	50	899	57.0	-190737.0	-1665.0	-1776.0
29	18	5	50	900	58.0	-158751.0	-1644.0	-2001.0
29	18	5	50	900	60.0	-169865.0	-1564.0	-1852.0
29	18	5	50	901	61.0	-179419.0	-1517.0	-1758.0
29	18	5	50	901	62.0	-191217.0	-1486.0	-1503.0
29	18	5	50	902	83.0	-136224.0	-1136.0	-2137.0
29	18	5	50	903	84.0	-134792.0	-1120.0	-1887.0
29	18	5	50	903	85.0	-133375.0	-1081.0	-1470.0
29	18	5	50	904	86.0	-131347.0	-1062.0	-1767.0
29	18	5	50	904	87.0	-128581.0	-1068.0	-1591.0
29	18	5	50	905	88.0	-126112.0	-1041.0	-1996.0
29	18	5	50	982	89.0	-123622.0	-1019.0	-1819.0
29	18	5	50	983	90.0	-120619.0	-987.0	-1319.0
29	18	5	50	984	91.0	-118029.0	-949.0	-1515.0
29	18	5	50	985	92.0	-115609.0	-939.0	-1970.0
29	18	5	50	985	93.0	-113456.0	-941.0	-1894.0
29	18	5	50	986	94.0	-112162.0	-916.0	-1552.0
29	18	5	50	986	95.0	-111940.0	-903.0	-1616.0
29	18	5	50	987	96.0	-112567.0	-912.0	-1702.0
29	18	5	50	988	97.0	-113739.0	-914.0	-1608.0
29	18	5	50	988	98.0	-116007.0	-901.0	-1831.0
29	18	5	51	27	99.0	-119777.0	-896.0	-1644.0
29	18	5	51	51	100.0	-124440.0	-889.0	-1209.0
29	18	5	51	53	101.0	-130116.0	-872.0	-921.0
29	18	5	51	54	102.0	-137149.0	-882.0	-1168.0
29	18	5	51	55	103.0	-145735.0	-869.0	-710.0
29	18	5	51	56	105.0	-163498.0	-826.0	-954.0
29	18	5	51	56	128.0	-240659.0	-787.0	-504.0
29	18	5	51	57	129.0	-241359.0	-781.0	-914.0
29	18	5	51	57	130.0	-241732.0	-770.0	-1261.0
29	18	5	51	58	131.0	-242290.0	-760.0	-952.0
29	18	5	51	58	132.0	-242691.0	-720.0	-426.0
29	18	5	51	59	133.0	-242789.0	-741.0	-296.0
29	18	5	51	59	134.0	-242686.0	-763.0	-657.0
29	18	5	51	60	135.0	-242189.0	-769.0	-1041.0
29	18	5	51	61	136.0	-240894.0	-768.0	-125.0
29	18	5	51	61	137.0	-239419.0	-776.0	-584.0
29	18	5	51	62	150.0	-222041.0	-857.0	-572.0
29	18	5	51	62	151.0	-219402.0	-841.0	-300.0
29	18	5	51	63	152.0	-215555.0	-813.0	-212.0
29	18	5	51	63	153.0	-211085.0	-799.0	-1009.0
29	18	5	51	64	154.0	-206402.0	-774.0	-135.0
29	18	5	51	64	155.0	-201294.0	-772.0	164.0
29	18	5	51	117	156.0	-195698.0	-752.0	-295.0
29	18	5	51	117	157.0	-190173.0	-727.0	-534.0
29	18	5	51	118	158.0	-185089.0	-728.0	-158.0
29	18	5	51	119	159.0	-180135.0	-719.0	-321.0
29	18	5	51	119	160.0	-175634.0	-739.0	-263.0
29	18	5	51	120	161.0	-171579.0	-730.0	-217.0
29	18	5	51	120	162.0	-168274.0	-712.0	-41.0
29	18	5	51	121	163.0	-166092.0	-724.0	-367.0
29	18	5	51	121	164.0	-165209.0	-748.0	-884.0
29	18	5	51	122	165.0	-165186.0	-763.0	-631.0
29	18	5	51	123	166.0	-166131.0	-757.0	-414.0
29	18	5	51	123	167.0	-168233.0	-750.0	-742.0
29	18	5	51	124	168.0	-172081.0	-734.0	-531.0
29	18	5	51	124	169.0	-176949.0	-729.0	-866.0
29	18	5	51	125	170.0	-182308.0	-749.0	-774.0
29	18	5	51	125	172.0	-195893.0	-774.0	-1887.0
29	18	5	51	126	195.0	-220212.0	-921.0	-1598.0
29	18	5	51	126	196.0	-215090.0	-941.0	-2239.0
29	18	5	51	127	197.0	-210274.0	-967.0	-1664.0
29	18	5	51	128	198.0	-206148.0	-961.0	-1064.0
29	18	5	51	163	199.0	-201772.0	-947.0	-1545.0
29	18	5	51	207	200.0	-197539.0	-964.0	-2034.0
29	18	5	51	208	201.0	-193460.0	-965.0	-1884.0
29	18	5	51	208	202.0	-189749.0	-962.0	-1621.0
29	18	5	51	209	203.0	-186237.0	-966.0	-1590.0
29	18	5	51	209	204.0	-182602.0	-983.0	-1887.0
29	18	5	51	210	205.0	-179436.0	-986.0	-1579.0
29	18	5	51	210	206.0	-176764.0	-1006.0	-1584.0
29	18	5	51	211	207.0	-174690.0	-1022.0	-1755.0
29	18	5	51	212	208.0	-173005.0	-1030.0	-671.0
29	18	5	51	212	209.0	-171782.0	-1039.0	-992.0
29	18	5	51	213	210.0	-171257.0	-1056.0	-1035.0
29	18	5	51	213	211.0	-171642.0	-1086.0	-1441.0
29	18	5	51	214	212.0	-173006.0	-1096.0	-1324.0
29	18	5	51	214	213.0	-174924.0	-1124.0	-1179.0
29	18	5	51	215	217.0	-184831.0	-1230.0	-1829.0
29	18	5	51	216	239.0	-211339.0	-1534.0	-462.0
29	18	5	51	217	240.0	-213994.0	-1544.0	-797.0
29	18	5	51	218	241.0	-216076.0	-1570.0	-1388.0
29	18	5	51	219	242.0	-217751.0	-1562.0	-2321.0
29	18	5	51	219	243.0	-218770.0	-1567.0	-2998.0
29	18	5	51	220	244.0	-219200.0	-1554.0	-3395.0
29	18	5	51	220	245.0	-219434.0	-1532.0	-4221.0
29	18	5	51	251	246.0	-219401.0	-1534.0	-4956.0
29	18	5	51	252	247.0	-219451.0	-1561.0	-6217.0
29	18	5	51	252	248.0	-219902.0	-1554.0	-8437.0
29	18	5	51	253	249.0	-221339.0	-1566.0	-9034.0
29	18	5	51	253	250.0	-224173.0	-1583.0	-8329.0
29	18	5	51	254	251.0	-227955.0	-1589.0	-6297.0
29	18	5	51	274	252.0	-232184.0	-1615.0	-4858.0
29	18	5	51	275	253.0	-236717.0	-1646.0	-4296.0
29	18	5	51	298	254.0	-241146.0	-1693.0	-4322.0
29	18	5	51	432	255.0	-244160.0	-1736.0	-5114.0
29	18	5	51	433	0.0	-244284.0	-1762.0	-3368.0
29	18	5	51	434	1.0	-241992.0	-1784.0	-399.0
29	18	5	51	434	2.0	-237316.0	-1807.0	1801.0
29	18	5	51	435	3.0	-230809.0	-1820.0	3018.0
29	18	5	51	435	4.0	-223011.0	-1855.0	3251.0
29	18	5	51	436	6.0	-206979.0	-1887.0	5219.0
29	18	5	51	437	7.0	-200879.0	-1917.0	2923.0
29	18	5	51	437	8.0	-197317.0	-1941.0	1008.0
29	18	5	51	438	9.0	-196704.0	-1959.0	1416.0
29	18	5	51	438	10.0	-199349.0	-1952.0	1703.0
29	18	5	51	439	11.0	-204682.0	-1977.0	848.0
29	18	5	51	440	12.0	-198883.0	-2015.0	246.0
29	18	5	51	440	13.0	-166897.0	-2040.0	-226.0
29	18	5	51	441	14.0	-120452.0	-2050.0	-932.0
29	18	5	51	441	29.0	-380691.0	-2114.0	-2881.0
29	18	5	51	442	96.0	-174561.0	-2185.0	1626.0
29	18	5	51	443	97.0	-173031.0	-2162.0	1683.0
29	18	5	51	443	98.0	-171244.0	-2133.0	1311.0
29	18	5	51	444	99.0	-169231.0	-2100.0	1962.0
29	18	5	51	444	100.0	-167376.0	-2091.0	2331.0
29	18	5	51	445	101.0	-165929.0	-2076.0	2782.0
29	18	5	51	478	102.0	-164535.0	-2079.0	2649.0
29	18	5	51	478	103.0	-163005.0	-2052.0	2554.0
29	18	5	51	479	104.0	-162134.0	-2016.0	2784.0
29	18	5	51	479	105.0	-161799.0	-1999.0	2734.0
29	18	5	51	480	106.0	-161626.0	-1991.0	2439.0
29	18	5	51	481	107.0	-161522.0	-1979.0	2538.0
29	18	5	51	481	108.0	-161752.0	-1965.0	2594.0
29	18	5	51	482	109.0	-162717.0	-1930.0	2588.0
29	18	5	51	482	110.0	-163881.0	-1916.0	3005.0
29	18	5	51	483	111.0	-164686.0	-1881.0	3683.0
29	18	5	51	483	112.0	-166074.0	-1846.0	3668.0
29	18	5	51	484	113.0	-168451.0	-1814.0	3661.0
29	18	5	51	484	114.0	-171049.0	-1773.0	4112.0
29	18	5	51	493	115.0	-174096.0	-1719.0	3958.0
29	18	5	51	493	116.0	-177546.0	-1701.0	3705.0
29	18	5	51	494	118.0	-184521.0	-1663.0	4018.0
29	18	5	51	495	119.0	-188464.0	-1627.0	3287.0
29	18	5	51	495	120.0	-192011.0	-1600.0	2602.0
29	18	5	51	496	121.0	-194667.0	-1567.0	2744.0
29	18	5	51	496	122.0	-196977.0	-1514.0	2813.0
29	18	5	51	497	123.0	-198603.0	-1457.0	2861.0
29	18	5	51	497	124.0	-198827.0	-1425.0	2313.0
29	18	5	51	537	125.0	-197384.0	-1377.0	2561.0
29	18	5	51	567	126.0	-195251.0	-1338.0	2578.0
29	18	5	51	568	127.0	-192830.0	-1311.0	2196.0
29	18	5	51	568	128.0	-189735.0	-1276.0	1479.0
29	18	5	51	569	129.0	-186246.0	-1222.0	1158.0
29	18	5	51	569	130.0	-182917.0	-1187.0	1790.0
29	18	5	51	570	131.0	-179436.0	-1159.0	1311.0
29	18	5	51	571	132.0	-175651.0	-1110.0	1233.0
29	18	5	51	571	133.0	-171736.0	-1077.0	776.0
29	18	5	51	572	134.0	-168459.0	-1061.0	604.0
29	18	5	51	573	135.0	-166127.0	-1032.0	773.0
29	18	5	51	573	136.0	-164888.0	-1006.0	613.0
29	18	5	51	574	137.0	-164291.0	-986.0	-116.0
29	18	5	51	575	138.0	-164149.0	-946.0	-104.0
29	18	5	51	575	139.0	-164854.0	-911.0	295.0
29	18	5	51	576	148.0	-196319.0	-716.0	-272.0
29	18	5	51	576	163.0	-188574.0	-694.0	264.0
29	18	5	51	577	164.0	-194042.0	-699.0	-27.0
29	18	5	51	577	165.0	-194676.0	-715.0	1.0
29	18	5	51	578	166.0	-191071.0	-723.0	-148.0
29	18	5	51	588	167.0	-179819.0	-731.0	-92.0
29	18	5	51	589	168.0	-166120.0	-730.0	188.0
29	18	5	51	589	169.0	-151527.0	-747.0	-356.0
29	18	5	51	590	170.0	-137615.0	-762.0	-206.0
29	18	5	51	611	171.0	-128574.0	-797.0	-177.0
29	18	5	51	612	172.0	-124228.0	-830.0	-629.0
29	18	5	51	613	173.0	-122256.0	-842.0	-516.0
29	18	5	51	613	174.0	-122557.0	-871.0	-331.0
29	18	5	51	614	175.0	-123318.0	-919.0	-568.0
29	18	5	51	614	176.0	-122324.0	-932.0	-420.0
29	18	5	51	615	177.0	-120957.0	-956.0	-38.0
29	18	5	51	615	178.0	-119823.0	-960.0	-154.0
29	18	5	51	616	179.0	-118331.0	-996.0	319.0
29	18	5	51	617	180.0	-115135.0	-1025.0	452.0
29	18	5	51	617	181.0	-112591.0	-1037.0	359.0
29	18	5	51	618	182.0	-111858.0	-1059.0	-119.0
29	18	5	51	618	183.0	-111510.0	-1112.0	19.0
29	18	5	51	619	184.0	-111189.0	-1136.0	312.0
29	18	5	51	619	185.0	-110044.0	-1154.0	-257.0
29	18	5	51	620	186.0	-107768.0	-1171.0	-101.0
29	18	5	51	641	187.0	-104858.0	-1186.0	-177.0
29	18	5	51	642	188.0	-100934.0	-1191.0	-161.0
29	18	5	51	643	189.0	-96165.0	-1179.0	-124.0
29	18	5	51	658	190.0	-91871.0	-1173.0	-221.0
29	18	5	51	659	191.0	-88848.0	-1182.0	242.0
29	18	5	51	659	192.0	-87215.0	-1171.0	699.0
29	18	5	51	660	193.0	-87041.0	-1171.0	777.0
29	18	5	51	660	194.0	-88212.0	-1156.0	1050.0
29	18	5	51	661	195.0	-91342.0	-1151.0	1115.0
29	18	5	51	661	196.0	-95932.0	-1142.0	583.0
29	18	5	51	662	197.0	-101426.0	-1147.0	373.0
29	18	5	51	663	198.0	-107987.0	-1159.0	1123.0
29	18	5	51	663	199.0	-116104.0	-1160.0	1236.0
29	18	5	51	664	200.0	-125296.0	-1149.0	1046.0
29	18	5	51	664	201.0	-134787.0	-1157.0	859.0
29	18	5	51	665	202.0	-144869.0	-1164.0	956.0
29	18	5	51	665	203.0	-155626.0	-1171.0	1129.0
29	18	5	51	666	204.0	-166176.0	-1184.0	1543.0
29	18	5	51	666	205.0	-176534.0	-1167.0	1813.0
29	18	5	51	667	206.0	-186725.0	-1142.0	1616.0
29	18	5	51	668	207.0	-196762.0	-1122.0	1846.0
29	18	5	51	681	208.0	-205674.0	-1108.0	1279.0
29	18	5	51	681	209.0	-213301.0	-1109.0	1456.0
29	18	5	51	682	210.0	-219438.0	-1095.0	1469.0
29	18	5	51	682	211.0	-225171.0	-1112.0	1608.0
29	18	5	51	683	212.0	-230157.0	-1096.0	1389.0
29	18	5	51	683	213.0	-234268.0	-1085.0	1491.0
29	18	5	51	684	214.0	-238262.0	-1084.0	1664.0
29	18	5	51	685	215.0	-241600.0	-1079.0	1474.0
29	18	5	51	685	216.0	-244348.0	-1076.0	1648.0
29	18	5	51	686	217.0	-246481.0	-1076.0	2063.0
29	18	5	51	686	218.0	-248261.0	-1073.0	1902.0
29	18	5	51	687	219.0	-249601.0	-1084.0	1609.0
29	18	5	51	688	220.0	-249193.0	-1081.0	1708.0
29	18	5	51	688	221.0	-248409.0	-1084.0	1408.0
29	18	5	51	689	222.0	-247493.0	-1086.0	1503.0
29	18	5	51	689	223.0	-245116.0	-1101.0	1990.0
29	18	5	51	704	224.0	-242706.0	-1097.0	1915.0
29	18	5	51	705	225.0	-240151.0	-1084.0	1736.0
29	18	5	51	705	226.0	-237245.0	-1084.0	1721.0
29	18	5	51	727	227.0	-233935.0	-1094.0	2034.0
29	18	5	51	728	228.0	-230031.0	-1098.0	1456.0
29	18	5	51	729	229.0	-225750.0	-1109.0	1249.0
29	18	5	51	750	230.0	-221039.0	-1107.0	1462.0
29	18	5	51	750	231.0	-215561.0	-1110.0	1844.0
29	18	5	51	751	232.0	-209114.0	-1091.0	1814.0
29	18	5	51	752	233.0	-202339.0	-1073.0	2011.0
29	18	5	51	752	234.0	-195888.0	-1079.0	1964.0
29	18	5	51	753	235.0	-190256.0	-1106.0	1611.0
29	18	5	51	753	236.0	-185366.0	-1091.0	1951.0
29	18	5	51	754	237.0	-181118.0	-1091.0	2241.0
29	18	5	51	754	238.0	-177256.0	-1086.0	1981.0
29	18	5	51	755	239.0	-173992.0	-1087.0	1893.0
29	18	5	51	755	240.0	-172306.0	-1078.0	1755.0
29	18	5	51	756	241.0	-171495.0	-1104.0	1663.0
29	18	5	51	757	242.0	-170434.0	-1119.0	1315.0
29	18	5	51	757	243.0	-168904.0	-1134.0	1342.0
29	18	5	51	758	244.0	-167837.0	-1151.0	1369.0
29	18	5	51	758	245.0	-167606.0	-1184.0	1566.0
29	18	5	51	759	246.0	-168881.0	-1205.0	1539.0
29	18	5	51	759	247.0	-171451.0	-1206.0	1469.0
29	18	5	51	760	248.0	-175451.0	-1215.0	1107.0
29	18	5	51	761	249.0	-179861.0	-1245.0	1519.0
29	18	5	51	761	250.0	-184866.0	-1256.0	1298.0
29	18	5	51	762	251.0	-191211.0	-1256.0	999.0
29	18	5	51	762	252.0	-198067.0	-1239.0	1209.0
29	18	5	51	763	253.0	-204888.0	-1272.0	959.0
29	18	5	51	764	254.0	-211245.0	-1270.0	1207.0
29	18	5	51	764	255.0	-217727.0	-1258.0	888.0
29	18	5	51	765	0.0	-223468.0	-1272.0	1023.0
29	18	5	51	765	1.0	-229103.0	-1281.0	521.0
29	18	5	51	766	2.0	-234520.0	-1306.0	483.0
29	18	5	51	767	3.0	-240281.0	-1322.0	1111.0
29	18	5	51	767	4.0	-245151.0	-1321.0	1384.0
29	18	5	51	775	5.0	-249706.0	-1337.0	964.0
29	18	5	51	776	6.0	-253666.0	-1336.0	1181.0
29	18	5	51	777	7.0	-256086.0	-1326.0	1691.0
29	18	5	51	777	8.0	-258102.0	-1316.0	1006.0
29	18	5	51	778	9.0	-259499.0	-1326.0	1189.0
29	18	5	51	778	10.0	-259316.0	-1339.0	1204.0
29	18	5	51	779	11.0	-258694.0	-1343.0	1379.0
29	18	5	51	780	12.0	-258000.0	-1342.0	656.0
29	18	5	51	797	13.0	-256053.0	-1334.0	710.0
29	18	5	51	798	14.0	-253343.0	-1327.0	605.0
29	18	5	51	799	15.0	-250405.0	-1318.0	589.0
29	18	5	51	799	16.0	-248386.0	-1327.0	667.0
29	18	5	51	820	17.0	-246312.0	-1316.0	416.0
29	18	5	51	844	18.0	-243343.0	-1332.0	559.0
29	18	5	51	845	19.0	-240322.0	-1337.0	535.0
29	18	5	51	845	20.0	-237827.0	-1356.0	88.0
29	18	5	51	846	21.0	-235801.0	-1362.0	306.0
29	18	5	51	846	22.0	-233804.0	-1351.0	129.0
29	18	5	51	847	23.0	-231391.0	-1344.0	-203.0
29	18	5	51	847	24.0	-228505.0	-1357.0	-167.0
29	18	5	51	848	25.0	-225519.0	-1346.0	-401.0
29	18	5	51	849	26.0	-222483.0	-1336.0	-953.0
29	18	5	51	849	27.0	-219244.0	-1336.0	-1074.0
29	18	5	51	850	28.0	-215885.0	-1332.0	-795.0
29	18	5	51	850	29.0	-212879.0	-1321.0	-420.0
29	18	5	51	851	30.0	-210663.0	-1329.0	-1125.0
29	18	5	51	852	31.0	-209177.0	-1327.0	-1326.0
29	18	5	51	852	32.0	-207075.0	-1346.0	-1075.0
29	18	5	51	853	34.0	-204677.0	-1338.0	-789.0
29	18	5	51	853	35.0	-203969.0	-1331.0	-554.0
29	18	5	51	854	36.0	-203798.0	-1322.0	-1088.0
29	18	5	51	854	37.0	-204157.0	-1299.0	-1354.0
29	18	5	51	855	38.0	-205454.0	-1304.0	-1789.0
29	18	5	51	856	39.0	-207093.0	-1298.0	-1632.0
29	18	5	51	856	40.0	-208104.0	-1297.0	-1511.0
29	18	5	51	857	41.0	-209471.0	-1298.0	-1716.0
29	18	5	51	857	42.0	-211035.0	-1294.0	-2061.0
29	18	5	51	858	43.0	-212417.0	-1277.0	-1414.0
29	18	5	51	858	44.0	-213417.0	-1256.0	-1385.0
29	18	5	51	859	45.0	-214426.0	-1276.0	-1107.0
29	18	5	51	860	46.0	-215884.0	-1284.0	-1044.0
29	18	5	51	860	47.0	-217644.0	-1279.0	-1011.0
29	18	5	51	861	48.0	-218828.0	-1272.0	-786.0
29	18	5	51	861	49.0	-219627.0	-1286.0	-1246.0
29	18	5	51	862	50.0	-220898.0	-1295.0	-871.0
29	18	5	51	881	51.0	-221571.0	-1288.0	-1589.0
29	18	5	51	882	52.0	-221846.0	-1286.0	-1681.0
29	18	5	51	882	53.0	-222712.0	-1301.0	-1629.0
29	18	5	51	883	54.0	-223335.0	-1312.0	-1832.0
29	18	5	51	884	55.0	-223940.0	-1304.0	-1171.0
29	18	5	51	884	56.0	-225156.0	-1300.0	-1326.0
29	18	5	51	885	57.0	-225632.0	-1299.0	-571.0
29	18	5	51	886	58.0	-226054.0	-1307.0	-697.0
29	18	5	51	886	59.0	-225745.0	-1311.0	-867.0
29	18	5	51	887	60.0	-225264.0	-1328.0	-883.0
29	18	5	51	888	61.0	-224381.0	-1351.0	-1055.0
29	18	5	51	888	62.0	-223182.0	-1334.0	-1074.0
29	18	5	51	889	63.0	-222472.0	-1334.0	-746.0
29	18	5	51	890	64.0	-222061.0	-1324.0	-623.0
29	18	5	51	890	65.0	-221251.0	-1319.0	-668.0
29	18	5	51	891	66.0	-220714.0	-1317.0	-934.0
29	18	5	51	891	67.0	-220707.0	-1304.0	-781.0
29	18	5	51	892	68.0	-220434.0	-1289.0	-1345.0
29	18	5	51	903	69.0	-220099.0	-1290.0	-1501.0
29	18	5	51	903	70.0	-219294.0	-1261.0	-1157.0
29	18	5	51	904	71.0	-218375.0	-1257.0	-1462.0
29	18	5	51	926	72.0	-217890.0	-1289.0	-883.0
29	18	5	51	927	73.0	-217669.0	-1298.0	-1404.0
29	18	5	51	927	74.0	-217894.0	-1310.0	-1473.0
29	18	5	51	928	75.0	-217702.0	-1321.0	-1259.0
29	18	5	51	929	76.0	-217426.0	-1334.0	-1338.0
29	18	5	51	929	77.0	-216675.0	-1356.0	-1906.0
29	18	5	51	930	78.0	-216417.0	-1383.0	-1448.0
29	18	5	51	930	79.0	-216139.0	-1406.0	-1126.0
29	18	5	51	931	80.0	-214809.0	-1406.0	-1037.0
29	18	5	51	932	81.0	-213072.0	-1412.0	-1017.0
29	18	5	51	932	82.0	-211656.0	-1434.0	-1461.0
29	18	5	51	933	83.0	-211012.0	-1464.0	-1778.0
29	18	5	51	934	84.0	-210711.0	-1493.0	-2172.0
29	18	5	51	934	85.0	-210274.0	-1556.0	-1781.0
29	18	5	51	935	86.0	-209343.0	-1595.0	-1698.0
29	18	5	51	935	87.0	-208294.0	-1622.0	-1334.0
29	18	5	51	936	88.0	-207208.0	-1627.0	-1688.0
29	18	5	51	937	89.0	-206221.0	-1648.0	-1411.0
29	18	5	51	937	90.0	-204934.0	-1667.0	-1231.0
29	18	5	51	948	91.0	-203156.0	-1687.0	-1702.0
29	18	5	51	949	92.0	-201037.0	-1722.0	-2236.0
29	18	5	51	949	93.0	-198571.0	-1736.0	-3154.0
29	18	5	51	972	94.0	-196374.0	-1762.0	-3751.0
29	18	5	51	972	95.0	-194274.0	-1787.0	-3207.0
29	18	5	51	973	96.0	-192227.0	-1790.0	-3569.0
29	18	5	51	973	97.0	-190416.0	-1796.0	-4889.0
29	18	5	51	974	98.0	-188280.0	-1805.0	-6479.0
29	18	5	51	975	99.0	-186512.0	-1833.0	-8396.0
29	18	5	51	975	100.0	-185573.0	-1847.0	-10114.0
29	18	5	51	976	101.0	-185244.0	-1864.0	-10292.0
29	18	5	51	976	102.0	-185634.0	-1872.0	-8502.0
29	18	5	51	977	103.0	-186647.0	-1881.0	-6091.0
29	18	5	51	977	104.0	-188089.0	-1911.0	-7042.0
29	18	5	51	978	105.0	-189445.0	-1917.0	-8702.0
29	18	5	51	979	106.0	-190537.0	-1921.0	-9566.0
29	18	5	51	979	107.0	-190877.0	-1965.0	-9525.0
29	18	5	51	980	108.0	-189360.0	-2022.0	-6707.0
29	18	5	51	980	109.0	-185949.0	-2034.0	-2812.0
29	18	5	51	994	110.0	-181307.0	-2056.0	-59.0
29	18	5	51	995	111.0	-176004.0	-2073.0	688.0
29	18	5	51	996	112.0	-170882.0	-2092.0	2639.0
29	18	5	51	996	113.0	-166604.0	-2149.0	2827.0
29	18	5	51	997	114.0	-163917.0	-2169.0	739.0
29	18	5	51	997	115.0	-163732.0	-2186.0	-54.0
29	18	5	51	998	116.0	-166129.0	-2202.0	963.0
29	18	5	51	998	117.0	-171291.0	-2222.0	1869.0
29	18	5	52	18	118.0	-177992.0	-2233.0	1703.0
29	18	5	52	19	119.0	-179824.0	-2277.0	1494.0
29	18	5	52	41	120.0	-170877.0	-2311.0	685.0
29	18	5	52	42	121.0	-142209.0	-2332.0	226.0
29	18	5	52	43	122.0	-104789.0	-2366.0	120.0
29	18	5	52	63	123.0	-69055.0	-2361.0	-147.0
29	18	5	52	64	124.0	-37299.0	-2364.0	-1247.0
29	18	5	52	65	125.0	-15916.0	-2387.0	-1786.0
29	18	5	52	65	126.0	-12302.0	-2402.0	-1956.0
29	18	5	52	66	127.0	-22455.0	-2425.0	-2173.0
29	18	5	52	66	128.0	-43951.0	-2452.0	-2682.0
29	18	5	52	67	129.0	-82361.0	-2454.0	-2582.0
29	18	5	52	68	130.0	-143208.0	-2453.0	-2519.0
29	18	5	52	68	131.0	-219586.0	-2487.0	-2432.0
29	18	5	52	69	132.0	-294347.0	-2497.0	-2497.0
29	18	5	52	69	133.0	-351211.0	-2490.0	-2166.0
29	18	5	52	70	134.0	-383489.0	-2479.0	-2704.0
29	18	5	52	70	135.0	-389328.0	-2487.0	-2525.0
29	18	5	52	71	139.0	-226891.0	-2525.0	-2519.0
29	18	5	52	72	140.0	-194627.0	-2534.0	-1802.0
29	18	5	52	72	146.0	-214630.0	-2524.0	-2501.0
29	18	5	52	73	147.0	-216264.0	-2518.0	-2290.0
29	18	5	52	73	148.0	-218559.0	-2508.0	-2539.0
29	18	5	52	74	149.0	-220167.0	-2523.0	-2274.0
29	18	5	52	74	150.0	-219891.0	-2514.0	-2637.0
29	18	5	52	75	151.0	-218894.0	-2524.0	-2227.0
29	18	5	52	76	152.0	-215584.0	-2532.0	-2183.0
29	18	5	52	77	153.0	-210664.0	-2522.0	-2457.0
29	18	5	52	77	154.0	-203821.0	-2524.0	-2381.0
29	18	5	52	78	155.0	-194106.0	-2537.0	-2489.0
29	18	5	52	79	156.0	-182074.0	-2538.0	-2381.0
29	18	5	52	79	157.0	-169801.0	-2551.0	-2927.0
29	18	5	52	80	158.0	-159842.0	-2546.0	-3009.0
29	18	5	52	81	159.0	-154001.0	-2533.0	-3067.0
29	18	5	52	81	160.0	-151328.0	-2521.0	-2905.0
29	18	5	52	82	161.0	-151332.0	-2507.0	-2780.0
29	18	5	52	83	162.0	-153339.0	-2471.0	-2669.0
29	18	5	52	91	163.0	-157329.0	-2448.0	-2614.0
29	18	5	52	92	164.0	-162384.0	-2426.0	-2691.0
29	18	5	52	99	165.0	-167249.0	-2424.0	-2584.0
29	18	5	52	101	166.0	-170004.0	-2406.0	-1839.0
29	18	5	52	103	167.0	-170204.0	-2402.0	-1588.0
29	18	5	52	103	168.0	-168525.0	-2388.0	-1554.0
29	18	5	52	104	169.0	-165759.0	-2369.0	-1916.0
29	18	5	52	121	170.0	-162235.0	-2356.0	-2142.0
29	18	5	52	122	171.0	-158015.0	-2345.0	-2369.0
29	18	5	52	122	172.0	-153672.0	-2339.0	-2247.0
29	18	5	52	123	173.0	-149572.0	-2344.0	-2195.0
29	18	5	52	124	174.0	-146387.0	-2331.0	-2224.0
29	18	5	52	124	175.0	-144122.0	-2341.0	-2669.0
29	18	5	52	125	176.0	-142965.0	-2354.0	-2357.0
29	18	5	52	125	177.0	-143521.0	-2339.0	-2169.0
29	18	5	52	126	178.0	-145209.0	-2337.0	-2086.0
29	18	5	52	127	179.0	-147611.0	-2349.0	-2474.0
29	18	5	52	127	180.0	-150527.0	-2336.0	-2364.0
29	18	5	52	128	181.0	-154511.0	-2331.0	-1747.0
29	18	5	52	128	182.0	-159434.0	-2353.0	-2188.0
29	18	5	52	129	183.0	-164595.0	-2357.0	-2319.0
29	18	5	52	129	184.0	-170414.0	-2353.0	-1951.0
29	18	5	52	130	185.0	-176432.0	-2345.0	-1516.0
29	18	5	52	137	186.0	-181972.0	-2351.0	-909.0
29	18	5	52	138	187.0	-187329.0	-2329.0	-1083.0
29	18	5	52	139	188.0	-192365.0	-2326.0	-824.0
29	18	5	52	139	189.0	-197211.0	-2324.0	-313.0
29	18	5	52	140	190.0	-201275.0	-2326.0	-181.0
29	18	5	52	161	191.0	-204767.0	-2319.0	539.0
29	18	5	52	161	192.0	-208261.0	-2356.0	122.0
29	18	5	52	162	193.0	-211606.0	-2381.0	-28.0
29	18	5	52	162	194.0	-214313.0	-2384.0	404.0
29	18	5	52	163	195.0	-216478.0	-2418.0	250.0
29	18	5	52	164	196.0	-218262.0	-2429.0	14.0
29	18	5	52	164	197.0	-219468.0	-2441.0	8.0
29	18	5	52	165	198.0	-219844.0	-2462.0	895.0
29	18	5	52	165	199.0	-219504.0	-2487.0	879.0
29	18	5	52	166	200.0	-219174.0	-2495.0	951.0
29	18	5	52	166	201.0	-219519.0	-2516.0	1312.0
29	18	5	52	167	202.0	-220362.0	-2511.0	1460.0
29	18	5	52	167	203.0	-220795.0	-2520.0	968.0
29	18	5	52	168	204.0	-221037.0	-2514.0	1393.0
29	18	5	52	168	205.0	-220894.0	-2528.0	1854.0
29	18	5	52	169	206.0	-220426.0	-2535.0	1903.0
29	18	5	52	169	207.0	-219284.0	-2537.0	1577.0
29	18	5	52	196	208.0	-217362.0	-2538.0	1920.0
29	18	5	52	197	209.0	-214906.0	-2541.0	3038.0
29	18	5	52	198	210.0	-212389.0	-2552.0	2423.0
29	18	5	52	198	211.0	-209724.0	-2566.0	2098.0
29	18	5	52	199	212.0	-207132.0	-2584.0	2443.0
29	18	5	52	199	213.0	-204434.0	-2571.0	2231.0
29	18	5	52	200	214.0	-201843.0	-2569.0	2510.0
29	18	5	52	201	215.0	-199247.0	-2580.0	2913.0
29	18	5	52	201	216.0	-196507.0	-2568.0	2922.0
29	18	5	52	202	217.0	-194527.0	-2574.0	3058.0
29	18	5	52	203	218.0	-193512.0	-2602.0	3483.0
29	18	5	52	203	219.0	-193129.0	-2588.0	3135.0
29	18	5	52	204	220.0	-192680.0	-2599.0	3398.0
29	18	5	52	204	221.0	-192649.0	-2569.0	2957.0
29	18	5	52	205	222.0	-192418.0	-2558.0	2841.0
29	18	5	52	205	223.0	-192549.0	-2537.0	2835.0
29	18	5	52	206	224.0	-193204.0	-2488.0	2713.0
29	18	5	52	206	225.0	-194034.0	-2461.0	3416.0
29	18	5	52	216	226.0	-195076.0	-2440.0	2856.0
29	18	5	52	217	227.0	-196336.0	-2409.0	2566.0
29	18	5	52	217	228.0	-197704.0	-2389.0	2238.0
29	18	5	52	240	229.0	-199728.0	-2361.0	2361.0
29	18	5	52	240	230.0	-202822.0	-2337.0	2709.0
29	18	5	52	241	231.0	-206384.0	-2320.0	2405.0
29	18	5	52	242	232.0	-210527.0	-2292.0	1929.0
29	18	5	52	242	233.0	-215437.0	-2267.0	1433.0
29	18	5	52	243	234.0	-220868.0	-2237.0	785.0
29	18	5	52	243	235.0	-226431.0	-2209.0	850.0
29	18	5	52	244	236.0	-232137.0	-2166.0	789.0
29	18	5	52	244	237.0	-238782.0	-2154.0	544.0
29	18	5	52	245	238.0	-245928.0	-2109.0	205.0
29	18	5	52	245	239.0	-253072.0	-2065.0	-166.0
29	18	5	52	246	240.0	-260373.0	-2034.0	92.0
29	18	5	52	247	241.0	-267441.0	-2012.0	755.0
29	18	5	52	247	242.0	-273930.0	-2009.0	1125.0
29	18	5	52	248	243.0	-280255.0	-1991.0	-250.0
29	18	5	52	248	244.0	-286672.0	-1974.0	-283.0
29	18	5	52	271	245.0	-291959.0	-1931.0	-63.0
29	18	5	52	287	246.0	-296472.0	-1876.0	-135.0
29	18	5	52	288	247.0	-301057.0	-1829.0	-219.0
29	18	5	52	288	248.0	-305704.0	-1809.0	-286.0
29	18	5	52	289	249.0	-310552.0	-1793.0	-421.0
29	18	5	52	289	250.0	-315236.0	-1771.0	-340.0
29	18	5	52	290	251.0	-319344.0	-1771.0	-525.0
29	18	5	52	291	252.0	-323442.0	-1755.0	-476.0
29	18	5	52	291	253.0	-327226.0	-1724.0	-715.0
29	18	5	52	292	254.0	-329114.0	-1692.0	-692.0
29	18	5	52	292	255.0	-328702.0	-1670.0	-579.0
29	18	5	52	293	0.0	-326286.0	-1640.0	-675.0
29	18	5	52	293	1.0	-321599.0	-1609.0	-997.0
29	18	5	52	294	2.0	-313402.0	-1599.0	-906.0
29	18	5	52	295	3.0	-296296.0	-1604.0	-841.0
29	18	5	52	295	4.0	-262948.0	-1587.0	-730.0
29	18	5	52	296	10.0	-251918.0	-1507.0	-1786.0
29	18	5	52	296	11.0	-273208.0	-1481.0	-742.0
29	18	5	52	297	12.0	-287734.0	-1455.0	-726.0
29	18	5	52	310	13.0	-289869.0	-1439.0	-1251.0
29	18	5	52	310	14.0	-282757.0	-1426.0	-926.0
29	18	5	52	311	15.0	-266185.0	-1418.0	-729.0
29	18	5	52	312	16.0	-245043.0	-1388.0	-1087.0
29	18	5	52	312	17.0	-223619.0	-1364.0	-679.0
29	18	5	52	313	18.0	-206427.0	-1331.0	-828.0
29	18	5	52	338	19.0	-196404.0	-1316.0	-1156.0
29	18	5	52	338	20.0	-192102.0	-1314.0	-1286.0
29	18	5	52	339	21.0	-190802.0	-1314.0	-1291.0
29	18	5	52	339	22.0	-191907.0	-1302.0	-1184.0
29	18	5	52	340	23.0	-194341.0	-1325.0	-1938.0
29	18	5	52	340	24.0	-195201.0	-1322.0	-1841.0
29	18	5	52	341	25.0	-194857.0	-1337.0	-1402.0
29	18	5	52	342	26.0	-193299.0	-1350.0	-1050.0
29	18	5	52	342	27.0	-190408.0	-1333.0	-1872.0
29	18	5	52	343	28.0	-186992.0	-1316.0	-1669.0
29	18	5	52	343	29.0	-183585.0	-1343.0	-1267.0
29	18	5	52	344	30.0	-179749.0	-1364.0	-1137.0
29	18	5	52	344	31.0	-175285.0	-1386.0	-974.0
29	18	5	52	345	32.0	-170899.0	-1396.0	-1629.0
29	18	5	52	345	33.0	-166191.0	-1408.0	-1547.0
29	18	5	52	360	34.0	-160550.0	-1426.0	-1665.0
29	18	5	52	361	35.0	-153612.0	-1429.0	-1189.0
29	18	5	52	361	36.0	-145037.0	-1455.0	-1396.0
29	18	5	52	362	37.0	-134607.0	-1500.0	-1571.0
29	18	5	52	363	38.0	-123343.0	-1524.0	-1126.0
29	18	5	52	363	39.0	-112353.0	-1534.0	-1313.0
29	18	5	52	364	40.0	-102094.0	-1546.0	-1272.0
29	18	5	52	364	41.0	-95780.0	-1548.0	-1306.0
29	18	5	52	383	42.0	-95884.0	-1540.0	-1424.0
29	18	5	52	383	43.0	-99724.0	-1528.0	-1342.0
29	18	5	52	384	44.0	-107241.0	-1556.0	-1116.0
29	18	5	52	384	45.0	-116187.0	-1576.0	-1357.0
29	18	5	52	385	46.0	-125289.0	-1574.0	-1232.0
29	18	5	52	385	47.0	-135006.0	-1596.0	-1385.0
29	18	5	52	386	48.0	-144665.0	-1615.0	-1161.0
29	18	5	52	386	49.0	-153807.0	-1639.0	-1626.0
29	18	5	52	387	50.0	-162566.0	-1636.0	-1588.0
29	18	5	52	388	51.0	-171427.0	-1627.0	-1402.0
29	18	5	52	388	52.0	-180877.0	-1609.0	-1470.0
29	18	5	52	389	53.0	-190597.0	-1579.0	-1451.0
29	18	5	52	389	54.0	-200087.0	-1595.0	-1077.0
29	18	5	52	405	55.0	-208866.0	-1601.0	-1217.0
29	18	5	52	406	56.0	-216566.0	-1599.0	-1022.0
29	18	5	52	407	57.0	-223120.0	-1615.0	-670.0
29	18	5	52	407	58.0	-228648.0	-1631.0	-1333.0
29	18	5	52	408	59.0	-232787.0	-1648.0	-1572.0
29	18	5	52	408	60.0	-235702.0	-1669.0	-1671.0
29	18	5	52	409	61.0	-238062.0	-1681.0	-978.0
29	18	5	52	409	62.0	-239532.0	-1703.0	-879.0
29	18	5	52	410	63.0	-240843.0	-1704.0	-1039.0
29	18	5	52	411	64.0	-241910.0	-1703.0	-1093.0
29	18	5	52	411	65.0	-243083.0	-1686.0	-1472.0
29	18	5	52	412	66.0	-244328.0	-1686.0	-1196.0
29	18	5	52	412	67.0	-245025.0	-1701.0	-1281.0
29	18	5	52	413	68.0	-245218.0	-1725.0	-1772.0
29	18	5	52	413	69.0	-245107.0	-1743.0	-1562.0
29	18	5	52	414	70.0	-244444.0	-1727.0	-769.0
29	18	5	52	428	71.0	-243366.0	-1730.0	-744.0
29	18	5	52	452	72.0	-241811.0	-1735.0	-634.0
29	18	5	52	453	73.0	-239912.0	-1749.0	-688.0
29	18	5	52	453	74.0	-237752.0	-1747.0	-1066.0
29	18	5	52	454	75.0	-235112.0	-1742.0	-716.0
29	18	5	52	454	76.0	-231552.0	-1750.0	-557.0
29	18	5	52	455	77.0	-227128.0	-1759.0	-474.0
29	18	5	52	455	78.0	-222724.0	-1784.0	-204.0
29	18	5	52	456	79.0	-218121.0	-1790.0	-467.0
29	18	5	52	457	80.0	-213457.0	-1769.0	-161.0
29	18	5	52	457	81.0	-208632.0	-1787.0	-351.0
29	18	5	52	458	82.0	-203783.0	-1803.0	-532.0
29	18	5	52	458	83.0	-200050.0	-1783.0	-242.0
29	18	5	52	459	84.0	-197183.0	-1780.0	-249.0
29	18	5	52	459	85.0	-195002.0	-1772.0	-238.0
29	18	5	52	460	86.0	-193304.0	-1750.0	-350.0
29	18	5	52	460	87.0	-192289.0	-1746.0	-346.0
29	18	5	52	461	88.0	-192253.0	-1745.0	-599.0
29	18	5	52	462	89.0	-192587.0	-1737.0	-678.0
29	18	5	52	462	90.0	-193189.0	-1715.0	93.0
29	18	5	52	463	91.0	-194079.0	-1722.0	-676.0
29	18	5	52	463	92.0	-195087.0	-1737.0	-612.0
29	18	5	52	474	93.0	-196226.0	-1722.0	-466.0
29	18	5	52	475	94.0	-197181.0	-1727.0	-101.0
29	18	5	52	476	95.0	-198600.0	-1752.0	136.0
29	18	5	52	476	96.0	-200586.0	-1749.0	-604.0
29	18	5	52	477	97.0	-202625.0	-1727.0	104.0
29	18	5	52	477	98.0	-205035.0	-1727.0	221.0
29	18	5	52	478	99.0	-208270.0	-1736.0	-252.0
29	18	5	52	478	100.0	-212162.0	-1722.0	-669.0
29	18	5	52	479	101.0	-216158.0	-1721.0	-677.0
29	18	5	52	498	102.0	-219839.0	-1731.0	-745.0
29	18	5	52	499	103.0	-223799.0	-1726.0	-1239.0
29	18	5	52	499	104.0	-227531.0	-1707.0	-1165.0
29	18	5	52	500	105.0	-230817.0	-1700.0	-1429.0
29	18	5	52	500	106.0	-233749.0	-1704.0	-2246.0
29	18	5	52	501	107.0	-235973.0	-1694.0	-1935.0
29	18	5	52	501	108.0	-237884.0	-1688.0	-1803.0
29	18	5	52	521	109.0	-239484.0	-1668.0	-1871.0
29	18	5	52	521	110.0	-239974.0	-1663.0	-1734.0
29	18	5	52	522	111.0	-239927.0	-1675.0	-2042.0
29	18	5	52	522	112.0	-239387.0	-1686.0	-2496.0
29	18	5	52	523	113.0	-238386.0	-1691.0	-2819.0
29	18	5	52	524	114.0	-237175.0	-1699.0	-2787.0
29	18	5	52	525	115.0	-235864.0	-1694.0	-3141.0
29	18	5	52	525	116.0	-234507.0	-1706.0	-2688.0
29	18	5	52	526	117.0	-233616.0	-1726.0	-3095.0
29	18	5	52	527	118.0	-233119.0	-1741.0	-3506.0
29	18	5	52	527	119.0	-232601.0	-1747.0	-3263.0
29	18	5	52	528	120.0	-231873.0	-1769.0	-3841.0
29	18	5	52	528	121.0	-231089.0	-1776.0	-3874.0
29	18	5	52	529	122.0	-230413.0	-1757.0	-3918.0
29	18	5	52	530	123.0	-229644.0	-1751.0	-4029.0
29	18	5	52	530	124.0	-228878.0	-1744.0	-4088.0
29	18	5	52	531	125.0	-228181.0	-1749.0	-3822.0
29	18	5	52	531	126.0	-227651.0	-1737.0	-3794.0
29	18	5	52	532	127.0	-227955.0	-1735.0	-3764.0
29	18	5	52	542	128.0	-228741.0	-1751.0	-4261.0
29	18	5	52	543	129.0	-230291.0	-1779.0	-4308.0
29	18	5	52	544	130.0	-231876.0	-1763.0	-3994.0
29	18	5	52	544	131.0	-233322.0	-1771.0	-4034.0
29	18	5	52	545	132.0	-234424.0	-1781.0	-4063.0
29	18	5	52	545	133.0	-234718.0	-1772.0	-3507.0
29	18	5	52	546	134.0	-235155.0	-1769.0	-3143.0
29	18	5	52	547	135.0	-235407.0	-1756.0	-3071.0
29	18	5	52	547	136.0	-235276.0	-1739.0	-3081.0
29	18	5	52	568	137.0	-235027.0	-1741.0	-2737.0
29	18	5	52	568	138.0	-234740.0	-1756.0	-2789.0
29	18	5	52	569	139.0	-234878.0	-1766.0	-2990.0
29	18	5	52	570	140.0	-234988.0	-1765.0	-2587.0
29	18	5	52	570	141.0	-234641.0	-1782.0	-3155.0
29	18	5	52	571	142.0	-234178.0	-1789.0	-2887.0
29	18	5	52	571	143.0	-234106.0	-1786.0	-3046.0
29	18	5	52	572	144.0	-233924.0	-1819.0	-2849.0
29	18	5	52	573	145.0	-233812.0	-1835.0	-3094.0
29	18	5	52	573	146.0	-233631.0	-1822.0	-3307.0
29	18	5	52	574	147.0	-233653.0	-1841.0	-3529.0
29	18	5	52	602	148.0	-234077.0	-1856.0	-3245.0
29	18	5	52	603	149.0	-233968.0	-1847.0	-2744.0
29	18	5	52	604	150.0	-232652.0	-1830.0	-2928.0
29	18	5	52	604	151.0	-230541.0	-1842.0	-3197.0
29	18	5	52	605	152.0	-227792.0	-1852.0	-2726.0
29	18	5	52	606	153.0	-224452.0	-1814.0	-2718.0
29	18	5	52	606	154.0	-220562.0	-1797.0	-2617.0
29	18	5	52	607	155.0	-216607.0	-1821.0	-2787.0
29	18	5	52	607	156.0	-212825.0	-1822.0	-3009.0
29	18	5	52	608	157.0	-209030.0	-1812.0	-3265.0
29	18	5	52	609	158.0	-205640.0	-1830.0	-2819.0
29	18	5	52	609	159.0	-202677.0	-1819.0	-2931.0
29	18	5	52	610	160.0	-200172.0	-1829.0	-2674.0
29	18	5	52	611	161.0	-198182.0	-1829.0	-3077.0
29	18	5	52	611	162.0	-195636.0	-1824.0	-2744.0
29	18	5	52	612	163.0	-193247.0	-1840.0	-2476.0
29	18	5	52	612	167.0	-186904.0	-1887.0	-3042.0
29	18	5	52	613	168.0	-186166.0	-1902.0	-3483.0
29	18	5	52	613	169.0	-186532.0	-1884.0	-3129.0
29	18	5	52	630	170.0	-187460.0	-1876.0	-2834.0
29	18	5	52	631	171.0	-188659.0	-1872.0	-3217.0
29	18	5	52	632	172.0	-190314.0	-1873.0	-3180.0
29	18	5	52	632	173.0	-192354.0	-1859.0	-2554.0
29	18	5	52	633	174.0	-195080.0	-1859.0	-2459.0
29	18	5	52	634	175.0	-198467.0	-1874.0	-2402.0
29	18	5	52	634	176.0	-202958.0	-1852.0	-2318.0
29	18	5	52	635	177.0	-208016.0	-1847.0	-2405.0
29	18	5	52	636	178.0	-213451.0	-1834.0	-3587.0
29	18	5	52	636	179.0	-218714.0	-1858.0	-4224.0
29	18	5	52	637	180.0	-223247.0	-1880.0	-3835.0
29	18	5	52	638	181.0	-227229.0	-1908.0	-4796.0
29	18	5	52	638	182.0	-230603.0	-1914.0	-6094.0
29	18	5	52	639	183.0	-232884.0	-1915.0	-7018.0
29	18	5	52	640	184.0	-234754.0	-1902.0	-8899.0
29	18	5	52	640	185.0	-236265.0	-1886.0	-10681.0
29	18	5	52	641	186.0	-237739.0	-1857.0	-10017.0
29	18	5	52	649	187.0	-238775.0	-1862.0	-8136.0
29	18	5	52	649	188.0	-239390.0	-1851.0	-6497.0
29	18	5	52	650	189.0	-239480.0	-1849.0	-7774.0
29	18	5	52	676	190.0	-238616.0	-1855.0	-9058.0
29	18	5	52	676	191.0	-236889.0	-1877.0	-9792.0
29	18	5	52	677	192.0	-233679.0	-1888.0	-9988.0
29	18	5	52	678	193.0	-227840.0	-1884.0	-6887.0
29	18	5	52	678	194.0	-219781.0	-1902.0	-3533.0
29	18	5	52	679	195.0	-210441.0	-1906.0	-2037.0
29	18	5	52	680	196.0	-199462.0	-1927.0	-1170.0
29	18	5	52	680	197.0	-188292.0	-1917.0	421.0
29	18	5	52	681	198.0	-177969.0	-1922.0	1017.0
29	18	5	52	681	199.0	-170394.0	-1942.0	-100.0
29	18	5	52	682	200.0	-166315.0	-1950.0	-1600.0
29	18	5	52	683	201.0	-165756.0	-1979.0	-1509.0
29	18	5	52	683	202.0	-168566.0	-1994.0	-145.0
29	18	5	52	684	203.0	-173175.0	-1997.0	124.0
29	18	5	52	685	204.0	-176228.0	-1984.0	-354.0
29	18	5	52	685	205.0	-171958.0	-1993.0	-999.0
29	18	5	52	686	206.0	-150338.0	-1987.0	-1485.0
29	18	5	52	686	207.0	-106556.0	-1976.0	-1886.0
29	18	5	52	687	208.0	-55709.0	-1981.0	-2259.0
29	18	5	52	697	209.0	-9129.0	-1964.0	-2876.0
29	18	5	52	698	210.0	27494.0	-1929.0	-3466.0
29	18	5	52	698	211.0	43367.0	-1927.0	-4401.0
29	18	5	52	721	212.0	31918.0	-1927.0	-4392.0
29	18	5	52	721	213.0	3843.0	-1932.0	-3991.0
29	18	5	52	722	214.0	-35699.0	-1930.0	-4334.0
29	18	5	52	723	215.0	-93955.0	-1921.0	-4253.0
29	18	5	52	723	216.0	-169217.0	-1924.0	-3832.0
29	18	5	52	724	217.0	-248498.0	-1931.0	-4102.0
29	18	5	52	724	218.0	-325351.0	-1942.0	-3637.0
29	18	5	52	725	219.0	-386277.0	-1938.0	-3693.0
29	18	5	52	725	220.0	-412233.0	-1957.0	-3496.0
29	18	5	52	726	221.0	-400841.0	-1951.0	-3656.0
29	18	5	52	727	222.0	-363715.0	-1962.0	-3659.0
29	18	5	52	727	223.0	-315765.0	-1975.0	-3981.0
29	18	5	52	728	224.0	-268166.0	-1954.0	-3905.0
29	18	5	52	728	225.0	-229291.0	-1951.0	-4291.0
29	18	5	52	729	226.0	-202135.0	-1961.0	-4457.0
29	18	5	52	729	227.0	-188887.0	-1966.0	-4485.0
29	18	5	52	742	228.0	-189504.0	-1969.0	-4398.0
29	18	5	52	743	229.0	-201685.0	-1966.0	-4395.0
29	18	5	52	744	230.0	-218227.0	-1957.0	-4748.0
29	18	5	52	744	231.0	-229406.0	-1943.0	-5069.0
29	18	5	52	745	232.0	-229779.0	-1942.0	-4810.0
29	18	5	52	745	233.0	-220397.0	-1939.0	-4801.0
29	18	5	52	746	234.0	-205554.0	-1937.0	-4910.0
29	18	5	52	747	235.0	-189928.0	-1936.0	-4651.0
29	18	5	52	766	236.0	-175462.0	-1945.0	-5157.0
29	18	5	52	766	237.0	-161267.0	-1929.0	-5764.0
29	18	5	52	767	238.0	-145664.0	-1924.0	-5332.0
29	18	5	52	768	239.0	-130056.0	-1941.0	-5258.0
29	18	5	52	768	240.0	-117019.0	-1944.0	-5100.0
29	18	5	52	769	241.0	-107216.0	-1950.0	-5005.0
29	18	5	52	770	242.0	-99966.0	-1953.0	-4618.0
29	18	5	52	770	243.0	-94336.0	-1959.0	-5227.0
29	18	5	52	771	244.0	-89364.0	-1952.0	-5244.0
29	18	5	52	771	245.0	-87022.0	-1945.0	-5244.0
29	18	5	52	772	246.0	-88014.0	-1946.0	-5106.0
29	18	5	52	772	247.0	-92091.0	-1932.0	-5392.0
29	18	5	52	773	248.0	-98747.0	-1934.0	-5083.0
29	18	5	52	773	249.0	-107074.0	-1907.0	-4534.0
29	18	5	52	774	250.0	-116241.0	-1901.0	-5043.0
29	18	5	52	789	251.0	-125618.0	-1882.0	-5403.0
29	18	5	52	789	252.0	-134649.0	-1889.0	-4976.0
29	18	5	52	790	253.0	-143124.0	-1900.0	-4792.0
29	18	5	52	791	254.0	-150619.0	-1899.0	-4749.0
29	18	5	52	791	255.0	-156432.0	-1897.0	-4507.0
29	18	5	52	792	0.0	-160527.0	-1925.0	-4488.0
29	18	5	52	792	1.0	-162973.0	-1957.0	-4623.0
29	18	5	52	812	2.0	-163687.0	-1956.0	-4516.0
29	18	5	52	813	3.0	-163162.0	-1949.0	-4520.0
29	18	5	52	813	4.0	-161161.0	-1984.0	-4351.0
29	18	5	52	814	5.0	-157934.0	-1980.0	-4467.0
29	18	5	52	815	6.0	-153963.0	-1996.0	-4304.0
29	18	5	52	815	7.0	-149142.0	-2022.0	-3896.0
29	18	5	52	816	8.0	-145033.0	-2040.0	-4243.0
29	18	5	52	817	9.0	-141936.0	-2056.0	-4821.0
29	18	5	52	817	10.0	-140047.0	-2094.0	-4469.0
29	18	5	52	818	11.0	-139134.0	-2100.0	-4547.0
29	18	5	52	818	12.0	-139083.0	-2099.0	-4029.0
29	18	5	52	842	13.0	-139804.0	-2106.0	-3287.0
29	18	5	52	843	14.0	-141241.0	-2112.0	-3344.0
29	18	5	52	843	15.0	-143760.0	-2099.0	-3427.0
29	18	5	52	844	16.0	-146802.0	-2099.0	-3784.0
29	18	5	52	845	17.0	-150325.0	-2086.0	-3886.0
29	18	5	52	845	18.0	-153995.0	-2067.0	-3031.0
29	18	5	52	846	19.0	-157529.0	-2038.0	-3115.0
29	18	5	52	847	20.0	-161271.0	-2020.0	-2896.0
29	18	5	52	847	21.0	-165516.0	-2012.0	-2827.0
29	18	5	52	848	22.0	-169728.0	-2002.0	-2772.0
29	18	5	52	849	23.0	-173525.0	-2002.0	-2677.0
29	18	5	52	849	24.0	-176541.0	-2013.0	-2152.0
29	18	5	52	850	25.0	-178594.0	-2011.0	-1734.0
29	18	5	52	851	26.0	-179707.0	-2007.0	-1509.0
29	18	5	52	851	27.0	-180573.0	-2014.0	-1201.0
29	18	5	52	852	28.0	-181569.0	-2023.0	-1042.0
29	18	5	52	853	31.0	-185348.0	-2086.0	-419.0
29	18	5	52	853	32.0	-186451.0	-2114.0	-776.0
29	18	5	52	854	33.0	-187361.0	-2101.0	-531.0
29	18	5	52	862	34.0	-187687.0	-2112.0	-223.0
29	18	5	52	862	35.0	-187624.0	-2129.0	123.0
29	18	5	52	863	36.0	-187248.0	-2151.0	27.0
29	18	5	52	864	37.0	-187100.0	-2156.0	-201.0
29	18	5	52	864	38.0	-186894.0	-2142.0	41.0
29	18	5	52	885	39.0	-186407.0	-2134.0	614.0
29	18	5	52	886	40.0	-186133.0	-2135.0	603.0
29	18	5	52	886	41.0	-185957.0	-2151.0	673.0
29	18	5	52	887	42.0	-185496.0	-2164.0	583.0
29	18	5	52	888	43.0	-184933.0	-2143.0	303.0
29	18	5	52	889	44.0	-183969.0	-2119.0	696.0
29	18	5	52	889	45.0	-182317.0	-2128.0	1048.0
29	18	5	52	890	46.0	-180047.0	-2098.0	1010.0
29	18	5	52	891	47.0	-177402.0	-2067.0	792.0
29	18	5	52	891	48.0	-174401.0	-2069.0	831.0
29	18	5	52	892	49.0	-171608.0	-2031.0	849.0
29	18	5	52	892	50.0	-169875.0	-2009.0	784.0
29	18	5	52	893	51.0	-168432.0	-2009.0	631.0
29	18	5	52	893	52.0	-166731.0	-2005.0	1174.0
29	18	5	52	894	53.0	-165742.0	-1998.0	1510.0
29	18	5	52	915	54.0	-165818.0	-1986.0	829.0
29	18	5	52	916	55.0	-166179.0	-2000.0	513.0
29	18	5	52	917	56.0	-166971.0	-1982.0	886.0
29	18	5	52	945	57.0	-168260.0	-1971.0	644.0
29	18	5	52	946	58.0	-169897.0	-1940.0	906.0
29	18	5	52	947	59.0	-172399.0	-1918.0	393.0
29	18	5	52	961	60.0	-175710.0	-1926.0	-49.0
29	18	5	52	962	61.0	-179044.0	-1912.0	-462.0
29	18	5	52	962	62.0	-182314.0	-1844.0	-687.0
29	18	5	52	963	63.0	-185471.0	-1791.0	-1221.0
29	18	5	52	964	64.0	-189252.0	-1777.0	-1349.0
29	18	5	52	964	65.0	-193099.0	-1754.0	-1481.0
29	18	5	52	965	66.0	-196228.0	-1724.0	-1676.0
29	18	5	52	965	67.0	-198767.0	-1687.0	-1461.0
29	18	5	52	966	68.0	-201374.0	-1662.0	-1934.0
29	18	5	52	966	69.0	-204146.0	-1630.0	-2586.0
29	18	5	52	967	70.0	-206661.0	-1586.0	-2429.0
29	18	5	52	967	71.0	-208691.0	-1559.0	-1941.0
29	18	5	52	968	72.0	-210701.0	-1556.0	-1598.0
29	18	5	52	969	83.0	-239202.0	-1239.0	-2054.0
29	18	5	52	969	84.0	-242119.0	-1230.0	-2244.0
29	18	5	52	970	85.0	-244487.0	-1195.0	-2278.0
29	18	5	52	970	91.0	-227971.0	-1077.0	-2098.0
29	18	5	52	971	92.0	-203854.0	-1045.0	-2334.0
29	18	5	52	971	93.0	-171009.0	-1020.0	-2548.0
29	18	5	52	990	94.0	-152446.0	-987.0	-2390.0
29	18	5	52	991	95.0	-161280.0	-970.0	-2897.0
29	18	5	52	992	96.0	-173599.0	-957.0	-2573.0
29	18	5	52	992	97.0	-190618.0	-937.0	-2464.0
29	18	5	52	993	98.0	-206079.0	-922.0	-2296.0
29	18	5	52	993	99.0	-223032.0	-899.0	-2054.0
29	18	5	52	994	100.0	-236667.0	-889.0	-2469.0
29	18	5	53	11	101.0	-244574.0	-891.0	-2665.0
29	18	5	53	11	102.0	-245744.0	-892.0	-2141.0
29	18	5	53	12	103.0	-237301.0	-920.0	-2428.0
29	18	5	53	12	104.0	-222277.0	-907.0	-2211.0
29	18	5	53	13	105.0	-204232.0	-894.0	-1962.0
29	18	5	53	13	106.0	-187656.0	-902.0	-2034.0
29	18	5	53	14	107.0	-176896.0	-890.0	-2307.0
29	18	5	53	15	108.0	-172309.0	-864.0	-1749.0
29	18	5	53	15	109.0	-171374.0	-848.0	-1666.0
29	18	5	53	16	110.0	-173434.0	-834.0	-1952.0
29	18	5	53	16	111.0	-177830.0	-825.0	-1781.0
29	18	5	53	17	112.0	-181807.0	-827.0	-1828.0
29	18	5	53	17	113.0	-184370.0	-838.0	-2093.0
29	18	5	53	18	114.0	-186356.0	-819.0	-1953.0
29	18	5	53	18	115.0	-187914.0	-800.0	-2244.0
29	18	5	53	19	116.0	-188447.0	-811.0	-2528.0
29	18	5	53	34	117.0	-188074.0	-816.0	-2573.0
29	18	5	53	34	118.0	-186621.0	-783.0	-2066.0
29	18	5	53	35	119.0	-183572.0	-772.0	-2197.0
29	18	5	53	36	120.0	-179221.0	-776.0	-2399.0
29	18	5	53	36	121.0	-172822.0	-789.0	-1922.0
29	18	5	53	37	122.0	-164737.0	-786.0	-2162.0
29	18	5	53	38	123.0	-155552.0	-787.0	-1947.0
29	18	5	53	38	124.0	-146206.0	-797.0	-2050.0
29	18	5	53	39	125.0	-135824.0	-797.0	-2271.0
29	18	5	53	39	126.0	-126641.0	-792.0	-2114.0
29	18	5	53	40	127.0	-121452.0	-788.0	-1334.0
29	18	5	53	40	128.0	-118739.0	-811.0	-1811.0
29	18	5	53	41	129.0	-117031.0	-817.0	-1945.0
29	18	5	53	67	130.0	-115154.0	-822.0	-1861.0
29	18	5	53	67	131.0	-113967.0	-812.0	-2042.0
29	18	5	53	68	132.0	-113132.0	-819.0	-1639.0
29	18	5	53	69	133.0	-112082.0	-819.0	-1477.0
29	18	5	53	69	134.0	-111557.0	-827.0	-1171.0
29	18	5	53	70	135.0	-111502.0	-832.0	-1296.0
29	18	5	53	71	136.0	-112692.0	-817.0	-1458.0
29	18	5	53	72	137.0	-115567.0	-807.0	-1634.0
29	18	5	53	72	138.0	-119579.0	-799.0	-1509.0
29	18	5	53	73	139.0	-124453.0	-806.0	-1320.0
29	18	5	53	73	140.0	-129971.0	-791.0	-1143.0
29	18	5	53	74	141.0	-135824.0	-789.0	-1431.0
29	18	5	53	75	142.0	-141719.0	-816.0	-1057.0
29	18	5	53	75	143.0	-147542.0	-823.0	-1496.0
29	18	5	53	76	144.0	-153184.0	-827.0	-1511.0
29	18	5	53	76	145.0	-158531.0	-809.0	-1761.0
29	18	5	53	77	146.0	-164210.0	-786.0	-1416.0
29	18	5	53	78	147.0	-170452.0	-777.0	-1237.0
29	18	5	53	85	148.0	-176720.0	-774.0	-1331.0
29	18	5	53	86	149.0	-183581.0	-731.0	-1279.0
29	18	5	53	108	150.0	-191805.0	-722.0	-969.0
29	18	5	53	109	151.0	-200499.0	-739.0	-1094.0
29	18	5	53	109	152.0	-209201.0	-769.0	-1243.0
29	18	5	53	110	153.0	-217436.0	-791.0	-1189.0
29	18	5	53	111	154.0	-225099.0	-817.0	-1377.0
29	18	5	53	111	155.0	-231942.0	-845.0	-1253.0
29	18	5	53	112	156.0	-237510.0	-875.0	-1371.0
29	18	5	53	112	157.0	-242448.0	-912.0	-789.0
29	18	5	53	113	158.0	-246703.0	-924.0	-1029.0
29	18	5	53	113	159.0	-250077.0	-956.0	-1281.0
29	18	5	53	114	160.0	-252424.0	-959.0	-867.0
29	18	5	53	114	161.0	-253470.0	-956.0	-524.0
29	18	5	53	115	162.0	-253406.0	-972.0	-1014.0
29	18	5	53	115	163.0	-252276.0	-1004.0	-571.0
29	18	5	53	116	164.0	-250507.0	-1021.0	-739.0
29	18	5	53	117	165.0	-248499.0	-1033.0	-1038.0
29	18	5	53	117	166.0	-246248.0	-1048.0	-822.0
29	18	5	53	130	167.0	-243812.0	-1041.0	-916.0
29	18	5	53	131	168.0	-240884.0	-1026.0	-931.0
29	18	5	53	131	169.0	-236891.0	-1032.0	-899.0
29	18	5	53	132	170.0	-231881.0	-1052.0	-801.0
29	18	5	53	133	171.0	-226639.0	-1037.0	-842.0
29	18	5	53	133	172.0	-221609.0	-1036.0	-1312.0
29	18	5	53	134	173.0	-216814.0	-1049.0	-1404.0
29	18	5	53	134	174.0	-212686.0	-1035.0	-831.0
29	18	5	53	155	175.0	-209530.0	-1011.0	-671.0
29	18	5	53	156	176.0	-207290.0	-999.0	-926.0
29	18	5	53	156	177.0	-205601.0	-985.0	-847.0
29	18	5	53	157	178.0	-204518.0	-1001.0	-929.0
29	18	5	53	158	179.0	-203798.0	-992.0	-699.0
29	18	5	53	158	180.0	-203593.0	-1029.0	-359.0
29	18	5	53	159	181.0	-204046.0	-1067.0	-737.0
29	18	5	53	159	182.0	-204707.0	-1067.0	-1079.0
29	18	5	53	160	183.0	-205306.0	-1084.0	-1327.0
29	18	5	53	176	184.0	-205919.0	-1105.0	-1087.0
29	18	5	53	177	185.0	-206504.0	-1132.0	-1508.0
29	18	5	53	177	186.0	-206764.0	-1148.0	-1811.0
29	18	5	53	178	187.0	-206617.0	-1166.0	-1211.0
29	18	5	53	178	188.0	-206225.0	-1173.0	-859.0
29	18	5	53	179	189.0	-205663.0	-1189.0	-1344.0
29	18	5	53	180	190.0	-204275.0	-1154.0	-853.0
29	18	5	53	180	191.0	-202341.0	-1174.0	-977.0
29	18	5	53	181	192.0	-199998.0	-1206.0	-1418.0
29	18	5	53	181	193.0	-197812.0	-1221.0	-1059.0
29	18	5	53	182	194.0	-196004.0	-1217.0	-1105.0
29	18	5	53	198	195.0	-194257.0	-1205.0	-1276.0
29	18	5	53	199	196.0	-193017.0	-1224.0	-1207.0
29	18	5	53	199	197.0	-193313.0	-1226.0	-1349.0
29	18	5	53	200	198.0	-195351.0	-1229.0	-1093.0
29	18	5	53	200	199.0	-197926.0	-1214.0	-838.0
29	18	5	53	201	200.0	-200604.0	-1201.0	-1393.0
29	18	5	53	201	201.0	-203549.0	-1220.0	-1351.0
29	18	5	53	202	202.0	-206442.0	-1242.0	-1065.0
29	18	5	53	203	203.0	-209400.0	-1252.0	-1185.0
29	18	5	53	203	204.0	-212662.0	-1232.0	-1257.0
29	18	5	53	204	205.0	-215716.0	-1213.0	-1726.0
29	18	5	53	204	206.0	-218322.0	-1181.0	-1671.0
29	18	5	53	205	207.0	-220715.0	-1183.0	-1801.0
29	18	5	53	205	208.0	-222461.0	-1201.0	-2422.0
29	18	5	53	206	209.0	-223247.0	-1191.0	-2004.0
29	18	5	53	207	210.0	-223304.0	-1172.0	-1878.0
29	18	5	53	220	211.0	-222408.0	-1164.0	-2467.0
29	18	5	53	220	212.0	-221227.0	-1149.0	-1858.0
29	18	5	53	221	213.0	-219761.0	-1169.0	-1172.0
29	18	5	53	221	214.0	-217822.0	-1146.0	-1590.0
29	18	5	53	222	215.0	-214844.0	-1134.0	-1112.0
29	18	5	53	222	216.0	-211061.0	-1137.0	-1048.0
29	18	5	53	223	217.0	-206832.0	-1144.0	-1272.0
29	18	5	53	224	218.0	-202464.0	-1145.0	-1655.0
29	18	5	53	243	219.0	-198388.0	-1124.0	-1351.0
29	18	5	53	243	220.0	-194624.0	-1086.0	-1520.0
29	18	5	53	244	221.0	-191435.0	-1051.0	-2269.0
29	18	5	53	265	222.0	-189083.0	-997.0	-2011.0
29	18	5	53	266	223.0	-187316.0	-973.0	-1687.0
29	18	5	53	266	224.0	-185755.0	-967.0	-1732.0
29	18	5	53	267	225.0	-184630.0	-962.0	-1904.0
29	18	5	53	267	226.0	-184134.0	-954.0	-1751.0
29	18	5	53	268	227.0	-183801.0	-947.0	-1460.0
29	18	5	53	268	228.0	-183551.0	-929.0	-1316.0
29	18	5	53	269	229.0	-183454.0	-914.0	-1456.0
29	18	5	53	269	230.0	-183707.0	-879.0	-1134.0
29	18	5	53	270	231.0	-184366.0	-869.0	-629.0
29	18	5	53	271	232.0	-185246.0	-850.0	-1055.0
29	18	5	53	271	233.0	-185971.0	-837.0	-1199.0
29	18	5	53	272	234.0	-187083.0	-824.0	-1356.0
29	18	5	53	272	235.0	-187804.0	-806.0	-869.0
29	18	5	53	273	236.0	-188645.0	-794.0	-353.0
29	18	5	53	273	237.0	-190341.0	-792.0	-322.0
29	18	5	53	274	238.0	-192301.0	-782.0	-1169.0
29	18	5	53	275	239.0	-194699.0	-776.0	-891.0
29	18	5	53	275	240.0	-197753.0	-771.0	-441.0
29	18	5	53	276	241.0	-200831.0	-772.0	-456.0
29	18	5	53	276	242.0	-203798.0	-754.0	-777.0
29	18	5	53	277	243.0	-206561.0	-757.0	-725.0
29	18	5	53	277	244.0	-208955.0	-782.0	-1320.0
29	18	5	53	278	245.0	-211173.0	-812.0	-1262.0
29	18	5	53	279	246.0	-213127.0	-839.0	-1273.0
29	18	5	53	279	247.0	-214806.0	-858.0	-1338.0
29	18	5	53	280	248.0	-216136.0	-870.0	-1019.0
29	18	5	53	280	249.0	-216821.0	-879.0	-1035.0
29	18	5	53	291	250.0	-216647.0	-917.0	-1434.0
29	18	5	53	312	251.0	-216222.0	-934.0	-1307.0
29	18	5	53	313	252.0	-215311.0	-950.0	-832.0
29	18	5	53	314	253.0	-213899.0	-958.0	-246.0
29	18	5	53	314	254.0	-212190.0	-971.0	-446.0
29	18	5	53	315	255.0	-209486.0	-989.0	-529.0
29	18	5	53	315	0.0	-206125.0	-997.0	-606.0
29	18	5	53	316	1.0	-202278.0	-1004.0	9.0
29	18	5	53	316	2.0	-197919.0	-1016.0	-274.0
29	18	5	53	317	3.0	-193437.0	-1003.0	-317.0
29	18	5	53	335	4.0	-188361.0	-1011.0	34.0
29	18	5	53	335	5.0	-183506.0	-1015.0	-711.0
29	18	5	53	336	6.0	-178822.0	-1017.0	-942.0
29	18	5	53	337	7.0	-174084.0	-1024.0	-351.0
29	18	5	53	337	8.0	-169856.0	-1022.0	-397.0
29	18	5	53	338	9.0	-166454.0	-1024.0	-1047.0
29	18	5	53	338	10.0	-164062.0	-1024.0	-699.0
29	18	5	53	339	11.0	-162807.0	-1031.0	-324.0
29	18	5	53	339	12.0	-162486.0	-1027.0	-641.0
29	18	5	53	340	13.0	-162757.0	-1029.0	-212.0
29	18	5	53	341	14.0	-163931.0	-1036.0	-181.0
29	18	5	53	358	15.0	-166011.0	-1037.0	-200.0
29	18	5	53	359	16.0	-168767.0	-1022.0	278.0
29	18	5	53	359	17.0	-171983.0	-1005.0	-121.0
29	18	5	53	360	18.0	-175556.0	-1012.0	-966.0
29	18	5	53	360	19.0	-179090.0	-1009.0	-1547.0
29	18	5	53	361	20.0	-182306.0	-1033.0	-2176.0
29	18	5	53	362	21.0	-185497.0	-1057.0	-2966.0
29	18	5	53	362	22.0	-188521.0	-1065.0	-3984.0
29	18	5	53	363	23.0	-191537.0	-1069.0	-5136.0
29	18	5	53	363	24.0	-195024.0	-1076.0	-6561.0
29	18	5	53	364	25.0	-199156.0	-1091.0	-8424.0
29	18	5	53	364	26.0	-203804.0	-1112.0	-8910.0
29	18	5	53	365	27.0	-209299.0	-1120.0	-7365.0
29	18	5	53	366	28.0	-215761.0	-1126.0	-5435.0
29	18	5	53	366	29.0	-222439.0	-1132.0	-4848.0
29	18	5	53	367	30.0	-228456.0	-1129.0	-4082.0
29	18	5	53	367	31.0	-233279.0	-1112.0	-4879.0
29	18	5	53	368	32.0	-236123.0	-1107.0	-5781.0
29	18	5	53	368	33.0	-236261.0	-1110.0	-2466.0
29	18	5	53	380	34.0	-233716.0	-1116.0	702.0
29	18	5	53	381	35.0	-229344.0	-1122.0	2209.0
29	18	5	53	402	36.0	-223428.0	-1152.0	2818.0
29	18	5	53	403	37.0	-216217.0	-1182.0	3723.0
29	18	5	53	404	38.0	-208461.0	-1215.0	5985.0
29	18	5	53	404	39.0	-201807.0	-1243.0	5294.0
29	18	5	53	405	40.0	-197363.0	-1265.0	2891.0
29	18	5	53	405	41.0	-195557.0	-1281.0	1656.0
29	18	5	53	406	42.0	-196724.0	-1299.0	1893.0
29	18	5	53	407	43.0	-201485.0	-1302.0	2060.0
29	18	5	53	407	44.0	-207717.0	-1294.0	1760.0
29	18	5	53	408	45.0	-197674.0	-1325.0	1076.0
29	18	5	53	408	46.0	-163403.0	-1348.0	464.0
29	18	5	53	409	47.0	-117027.0	-1359.0	369.0
29	18	5	53	409	48.0	-67984.0	-1385.0	-259.0
29	18	5	53	411	49.0	-26205.0	-1408.0	-1141.0
29	18	5	53	411	50.0	-1864.0	-1433.0	-1340.0
29	18	5	53	412	51.0	-6723.0	-1447.0	-1876.0
29	18	5	53	412	52.0	-35774.0	-1457.0	-1768.0
29	18	5	53	413	53.0	-77746.0	-1467.0	-2112.0
29	18	5	53	413	54.0	-129390.0	-1447.0	-2095.0
29	18	5	53	414	55.0	-191133.0	-1436.0	-1812.0
29	18	5	53	415	56.0	-256881.0	-1437.0	-2031.0
29	18	5	53	415	57.0	-320051.0	-1445.0	-1862.0
29	18	5	53	416	58.0	-375341.0	-1443.0	-1375.0
29	18	5	53	416	59.0	-412779.0	-1460.0	-1474.0
29	18	5	53	425	60.0	-425420.0	-1467.0	-1435.0
29	18	5	53	426	61.0	-407457.0	-1486.0	-1847.0
29	18	5	53	426	62.0	-360985.0	-1502.0	-2101.0
29	18	5	53	427	63.0	-305962.0	-1543.0	-2306.0
29	18	5	53	427	64.0	-255929.0	-1587.0	-1586.0
29	18	5	53	428	65.0	-208296.0	-1600.0	-1516.0
29	18	5	53	429	66.0	-168707.0	-1646.0	-1176.0
29	18	5	53	429	67.0	-148070.0	-1680.0	-1834.0
29	18	5	53	445	68.0	-144322.0	-1672.0	-1902.0
29	18	5	53	446	69.0	-152059.0	-1668.0	-2076.0
29	18	5	53	447	70.0	-163263.0	-1673.0	-1644.0
29	18	5	53	447	71.0	-166275.0	-1694.0	-2334.0
29	18	5	53	448	72.0	-158608.0	-1696.0	-2256.0
29	18	5	53	448	73.0	-146269.0	-1682.0	-1986.0
29	18	5	53	449	74.0	-133999.0	-1672.0	-2180.0
29	18	5	53	468	75.0	-124981.0	-1687.0	-1961.0
29	18	5	53	468	76.0	-119021.0	-1694.0	-1915.0
29	18	5	53	469	77.0	-115557.0	-1701.0	-1582.0
29	18	5	53	470	78.0	-113829.0	-1732.0	-1687.0
29	18	5	53	470	79.0	-113519.0	-1755.0	-1564.0
29	18	5	53	471	80.0	-113222.0	-1736.0	-893.0
29	18	5	53	471	81.0	-110571.0	-1745.0	-1520.0
29	18	5	53	472	82.0	-104543.0	-1729.0	-1565.0
29	18	5	53	473	83.0	-96708.0	-1717.0	-1427.0
29	18	5	53	473	84.0	-90636.0	-1696.0	-1779.0
29	18	5	53	474	85.0	-89148.0	-1707.0	-1873.0
29	18	5	53	474	86.0	-92299.0	-1737.0	-1321.0
29	18	5	53	475	87.0	-98806.0	-1726.0	-1174.0
29	18	5	53	475	88.0	-106368.0	-1726.0	-1320.0
29	18	5	53	476	89.0	-113674.0	-1749.0	-1404.0
29	18	5	53	495	90.0	-121297.0	-1743.0	-1036.0
29	18	5	53	496	91.0	-129202.0	-1729.0	-815.0
29	18	5	53	496	92.0	-136936.0	-1739.0	-1137.0
29	18	5	53	497	93.0	-144266.0	-1737.0	-797.0
29	18	5	53	498	94.0	-151024.0	-1764.0	-1278.0
29	18	5	53	498	95.0	-156457.0	-1779.0	-1097.0
29	18	5	53	499	96.0	-160437.0	-1789.0	-962.0
29	18	5	53	499	97.0	-163361.0	-1796.0	-1206.0
29	18	5	53	518	98.0	-165781.0	-1808.0	-1242.0
29	18	5	53	518	99.0	-167861.0	-1797.0	-1367.0
29	18	5	53	519	100.0	-169732.0	-1800.0	-736.0
29	18	5	53	520	101.0	-171765.0	-1819.0	-626.0
29	18	5	53	520	102.0	-173931.0	-1818.0	-781.0
29	18	5	53	521	103.0	-176004.0	-1820.0	-779.0
29	18	5	53	521	104.0	-177505.0	-1841.0	-849.0
29	18	5	53	522	105.0	-179006.0	-1847.0	-938.0
29	18	5	53	522	106.0	-180425.0	-1854.0	-322.0
29	18	5	53	523	107.0	-181772.0	-1857.0	-294.0
29	18	5	53	524	108.0	-182745.0	-1862.0	82.0
29	18	5	53	524	109.0	-182735.0	-1865.0	401.0
29	18	5	53	525	110.0	-181448.0	-1859.0	-43.0
29	18	5	53	525	111.0	-179983.0	-1854.0	-7.0
29	18	5	53	526	112.0	-178367.0	-1876.0	-61.0
29	18	5	53	540	113.0	-175865.0	-1882.0	-349.0
29	18	5	53	540	114.0	-172982.0	-1880.0	-174.0
29	18	5	53	541	115.0	-169869.0	-1903.0	-273.0
29	18	5	53	542	116.0	-166044.0	-1923.0	128.0
29	18	5	53	542	117.0	-161507.0	-1946.0	-59.0
29	18	5	53	543	118.0	-157243.0	-1962.0	-121.0
29	18	5	53	543	119.0	-153154.0	-1966.0	513.0
29	18	5	53	561	120.0	-149297.0	-1979.0	1489.0
29	18	5	53	562	121.0	-145813.0	-1986.0	2184.0
29	18	5	53	563	122.0	-142320.0	-2000.0	2563.0
29	18	5	53	563	123.0	-138916.0	-2010.0	2414.0
29	18	5	53	564	124.0	-136186.0	-2054.0	2214.0
29	18	5	53	564	125.0	-134421.0	-2097.0	2053.0
29	18	5	53	565	126.0	-133602.0	-2111.0	2458.0
29	18	5	53	566	127.0	-133491.0	-2125.0	1750.0
29	18	5	53	566	128.0	-134204.0	-2134.0	2290.0
29	18	5	53	567	129.0	-135671.0	-2134.0	3119.0
29	18	5	53	567	130.0	-137909.0	-2151.0	2830.0
29	18	5	53	568	131.0	-140563.0	-2187.0	2233.0
29	18	5	53	569	132.0	-143409.0	-2204.0	2754.0
29	18	5	53	569	133.0	-146251.0	-2200.0	3141.0
29	18	5	53	570	134.0	-148958.0	-2212.0	3303.0
29	18	5	53	584	135.0	-151264.0	-2224.0	3114.0
29	18	5	53	585	136.0	-153082.0	-2199.0	3569.0
29	18	5	53	585	137.0	-154936.0	-2182.0	3879.0
29	18	5	53	586	138.0	-156913.0	-2194.0	3923.0
29	18	5	53	586	139.0	-158381.0	-2176.0	4059.0
29	18	5	53	587	140.0	-159354.0	-2174.0	3675.0
29	18	5	53	588	141.0	-159988.0	-2165.0	4280.0
29	18	5	53	588	142.0	-160335.0	-2154.0	4529.0
29	18	5	53	610	143.0	-160613.0	-2138.0	4703.0
29	18	5	53	611	144.0	-160419.0	-2103.0	4973.0
29	18	5	53	612	145.0	-159462.0	-2077.0	4766.0
29	18	5	53	612	146.0	-157890.0	-2065.0	5049.0
29	18	5	53	613	147.0	-156766.0	-2039.0	5418.0
29	18	5	53	613	148.0	-156155.0	-2037.0	5444.0
29	18	5	53	614	149.0	-155634.0	-2026.0	5347.0
29	18	5	53	615	150.0	-155612.0	-1990.0	5359.0
29	18	5	53	615	151.0	-156329.0	-1935.0	4999.0
29	18	5	53	616	152.0	-157334.0	-1881.0	4833.0
29	18	5	53	616	153.0	-158717.0	-1847.0	4501.0
29	18	5	53	617	154.0	-160101.0	-1789.0	4379.0
29	18	5	53	617	155.0	-161420.0	-1745.0	3925.0
29	18	5	53	618	156.0	-162856.0	-1651.0	3669.0
29	18	5	53	619	157.0	-164070.0	-1588.0	3527.0
29	18	5	53	635	158.0	-164908.0	-1546.0	2919.0
29	18	5	53	636	159.0	-166199.0	-1483.0	3355.0
29	18	5	53	637	160.0	-167819.0	-1425.0	3278.0
29	18	5	53	637	161.0	-169634.0	-1402.0	2785.0
29	18	5	53	638	162.0	-170807.0	-1371.0	2676.0
29	18	5	53	639	163.0	-172004.0	-1371.0	2264.0
29	18	5	53	639	164.0	-173798.0	-1328.0	1742.0
29	18	5	53	640	165.0	-175916.0	-1300.0	1564.0
29	18	5	53	640	166.0	-177951.0	-1281.0	2314.0
29	18	5	53	641	167.0	-179736.0	-1247.0	1709.0
29	18	5	53	642	168.0	-181546.0	-1205.0	1128.0
29	18	5	53	642	169.0	-183141.0	-1192.0	696.0
29	18	5	53	643	170.0	-184494.0	-1188.0	944.0
29	18	5	53	644	171.0	-185727.0	-1156.0	1288.0
29	18	5	53	644	172.0	-186987.0	-1124.0	1241.0
29	18	5	53	645	173.0	-188553.0	-1072.0	1074.0
29	18	5	53	645	174.0	-190380.0	-1035.0	1078.0
29	18	5	53	646	175.0	-192185.0	-994.0	1127.0
29	18	5	53	656	176.0	-193795.0	-951.0	985.0
29	18	5	53	657	177.0	-196157.0	-926.0	1246.0
29	18	5	53	658	178.0	-198935.0	-901.0	939.0
29	18	5	53	680	179.0	-201329.0	-870.0	776.0
29	18	5	53	681	180.0	-203889.0	-852.0	1131.0
29	18	5	53	681	181.0	-206577.0	-826.0	777.0
29	18	5	53	682	182.0	-209254.0	-792.0	834.0
29	18	5	53	683	183.0	-212406.0	-773.0	805.0
29	18	5	53	683	184.0	-215403.0	-734.0	1117.0
29	18	5	53	684	185.0	-217849.0	-718.0	1457.0
29	18	5	53	684	186.0	-219516.0	-690.0	1145.0
29	18	5	53	685	187.0	-219687.0	-643.0	1726.0
29	18	5	53	685	188.0	-216542.0	-577.0	2582.0
29	18	5	53	686	189.0	-205522.0	-530.0	2554.0
29	18	5	53	687	190.0	-181517.0	-513.0	1819.0
29	18	5	53	687	191.0	-151245.0	-512.0	1491.0
29	18	5	53	688	192.0	-131950.0	-478.0	1736.0
29	18	5	53	688	193.0	-137478.0	-476.0	1993.0
29	18	5	53	689	194.0	-146571.0	-467.0	1786.0
29	18	5	53	711	195.0	-159009.0	-434.0	1650.0
29	18	5	53	711	196.0	-168586.0	-396.0	1272.0
29	18	5	53	725	197.0	-178817.0	-384.0	1523.0
29	18	5	53	725	198.0	-185712.0	-367.0	1916.0
29	18	5	53	726	199.0	-187691.0	-361.0	2256.0
29	18	5	53	727	200.0	-184898.0	-335.0	1543.0
29	18	5	53	727	201.0	-174546.0	-324.0	2153.0
29	18	5	53	728	202.0	-159735.0	-334.0	2321.0
29	18	5	53	728	203.0	-146282.0	-331.0	1653.0
29	18	5	53	729	204.0	-136648.0	-303.0	1809.0
29	18	5	53	729	205.0	-130328.0	-312.0	1715.0
29	18	5	53	730	206.0	-128579.0	-317.0	1811.0
29	18	5	53	731	207.0	-130994.0	-309.0	2158.0
29	18	5	53	732	208.0	-134806.0	-310.0	2173.0
29	18	5	53	733	209.0	-139217.0	-308.0	1670.0
29	18	5	53	734	210.0	-142888.0	-294.0	2053.0
29	18	5	53	735	211.0	-145134.0	-297.0	2007.0
29	18	5	53	735	212.0	-145945.0	-313.0	2363.0
29	18	5	53	736	216.0	-128763.0	-334.0	2419.0
29	18	5	53	736	217.0	-124877.0	-323.0	2204.0
29	18	5	53	737	218.0	-121211.0	-325.0	2214.0
29	18	5	53	747	219.0	-118143.0	-329.0	2464.0
29	18	5	53	748	220.0	-115624.0	-322.0	2523.0
29	18	5	53	748	221.0	-112861.0	-309.0	2372.0
29	18	5	53	749	222.0	-110472.0	-313.0	2466.0
29	18	5	53	749	223.0	-108091.0	-307.0	2487.0
29	18	5	53	770	224.0	-106005.0	-304.0	2760.0
29	18	5	53	771	225.0	-105367.0	-319.0	2529.0
29	18	5	53	771	226.0	-106012.0	-307.0	2446.0
29	18	5	53	772	227.0	-106829.0	-299.0	2897.0
29	18	5	53	772	228.0	-108635.0	-301.0	3009.0
29	18	5	53	773	229.0	-112193.0	-312.0	3266.0
29	18	5	53	773	230.0	-116571.0	-319.0	3958.0
29	18	5	53	774	231.0	-121321.0	-324.0	3700.0
29	18	5	53	774	232.0	-126945.0	-339.0	3249.0
29	18	5	53	775	233.0	-133872.0	-346.0	2888.0
29	18	5	53	775	234.0	-141066.0	-348.0	3056.0
29	18	5	53	776	235.0	-147679.0	-332.0	3578.0
29	18	5	53	793	236.0	-154789.0	-324.0	3422.0
29	18	5	53	793	237.0	-162727.0	-327.0	3044.0
29	18	5	53	794	238.0	-171414.0	-350.0	2761.0
29	18	5	53	795	239.0	-180436.0	-369.0	2868.0
29	18	5	53	795	240.0	-189493.0	-387.0	3163.0
29	18	5	53	796	241.0	-197569.0	-411.0	3133.0
29	18	5	53	796	242.0	-205642.0	-427.0	2695.0
29	18	5	53	797	243.0	-213875.0	-439.0	2650.0
29	18	5	53	797	244.0	-220769.0	-452.0	2649.0
29	18	5	53	798	245.0	-226844.0	-476.0	2297.0
29	18	5	53	798	246.0	-232239.0	-484.0	2676.0
29	18	5	53	799	247.0	-236986.0	-516.0	3016.0
29	18	5	53	799	248.0	-240022.0	-517.0	3131.0
29	18	5	53	800	249.0	-242551.0	-528.0	2910.0
29	18	5	53	801	250.0	-244602.0	-527.0	2960.0
29	18	5	53	801	251.0	-245309.0	-530.0	2566.0
29	18	5	53	802	252.0	-245707.0	-531.0	2833.0
29	18	5	53	802	253.0	-245812.0	-557.0	2716.0
29	18	5	53	816	254.0	-245126.0	-592.0	3191.0
29	18	5	53	816	255.0	-244569.0	-599.0	3117.0
29	18	5	53	817	0.0	-243413.0	-619.0	2441.0
29	18	5	53	817	1.0	-241637.0	-635.0	2449.0
29	18	5	53	818	2.0	-240040.0	-653.0	2512.0
29	18	5	53	819	3.0	-237984.0	-671.0	2616.0
29	18	5	53	819	4.0	-236492.0	-711.0	2511.0
29	18	5	53	820	5.0	-235202.0	-735.0	2548.0
29	18	5	53	820	6.0	-234084.0	-743.0	2906.0
29	18	5	53	838	7.0	-233131.0	-751.0	2399.0
29	18	5	53	839	8.0	-232844.0	-753.0	2682.0
29	18	5	53	839	9.0	-231972.0	-770.0	2838.0
29	18	5	53	840	10.0	-231914.0	-802.0	2971.0
29	18	5	53	841	11.0	-232341.0	-787.0	3262.0
29	18	5	53	841	12.0	-231646.0	-806.0	3662.0
29	18	5	53	842	13.0	-231117.0	-837.0	2967.0
29	18	5	53	861	14.0	-231063.0	-837.0	2901.0
29	18	5	53	862	15.0	-229846.0	-849.0	3209.0
29	18	5	53	862	16.0	-228391.0	-862.0	3382.0
29	18	5	53	863	17.0	-227372.0	-869.0	2744.0
29	18	5	53	864	18.0	-226027.0	-859.0	2979.0
29	18	5	53	864	19.0	-223789.0	-878.0	3204.0
29	18	5	53	865	20.0	-221979.0	-865.0	2986.0
29	18	5	53	866	21.0	-220071.0	-837.0	2938.0
29	18	5	53	866	22.0	-217732.0	-832.0	2929.0
29	18	5	53	867	23.0	-215519.0	-843.0	2902.0
29	18	5	53	867	24.0	-213019.0	-847.0	2551.0
29	18	5	53	868	25.0	-211136.0	-832.0	2704.0
29	18	5	53	868	26.0	-209424.0	-842.0	2996.0
29	18	5	53	869	27.0	-207949.0	-858.0	2574.0
29	18	5	53	869	28.0	-206942.0	-877.0	2866.0
29	18	5	53	870	29.0	-206805.0	-876.0	2811.0
29	18	5	53	871	30.0	-207291.0	-887.0	2798.0
29	18	5	53	871	31.0	-206817.0	-912.0	2566.0
29	18	5	53	884	32.0	-206317.0	-916.0	2429.0
29	18	5	53	885	33.0	-207165.0	-934.0	2015.0
29	18	5	53	885	34.0	-208224.0	-946.0	2176.0
29	18	5	53	908	35.0	-209118.0	-959.0	1743.0
29	18	5	53	908	36.0	-210384.0	-977.0	1398.0
29	18	5	53	909	37.0	-211835.0	-1003.0	1963.0
29	18	5	53	909	38.0	-213954.0	-991.0	2351.0
29	18	5	53	910	39.0	-216017.0	-1004.0	2029.0
29	18	5	53	910	40.0	-217879.0	-1019.0	1639.0
29	18	5	53	911	41.0	-220021.0	-1034.0	1737.0
29	18	5	53	912	42.0	-223322.0	-1029.0	1711.0
29	18	5	53	912	43.0	-227783.0	-1022.0	1960.0
29	18	5	53	913	44.0	-232206.0	-1014.0	2292.0
29	18	5	53	913	45.0	-236993.0	-1021.0	1639.0
29	18	5	53	914	46.0	-240662.0	-1015.0	1183.0
29	18	5	53	914	47.0	-244281.0	-1015.0	1405.0
29	18	5	53	915	48.0	-248611.0	-1021.0	961.0
29	18	5	53	915	49.0	-252889.0	-1026.0	673.0
29	18	5	53	916	50.0	-256831.0	-1021.0	1324.0
29	18	5	53	931	51.0	-259914.0	-1012.0	1535.0
29	18	5	53	931	52.0	-262831.0	-1023.0	1755.0
29	18	5	53	954	53.0	-264426.0	-1023.0	1284.0
29	18	5	53	955	54.0	-266069.0	-1031.0	1702.0
29	18	5	53	955	55.0	-267165.0	-1036.0	1665.0
29	18	5	53	956	56.0	-267216.0	-1040.0	1067.0
29	18	5	53	957	57.0	-266711.0	-1069.0	1395.0
29	18	5	53	957	58.0	-265949.0	-1092.0	1766.0
29	18	5	53	958	59.0	-264831.0	-1102.0	1343.0
29	18	5	53	958	60.0	-263174.0	-1127.0	1994.0
29	18	5	53	959	61.0	-261211.0	-1154.0	2043.0
29	18	5	53	959	62.0	-258646.0	-1177.0	1868.0
29	18	5	53	960	63.0	-255882.0	-1178.0	1842.0
29	18	5	53	960	64.0	-252625.0	-1190.0	1667.0
29	18	5	53	961	65.0	-249409.0	-1226.0	1795.0
29	18	5	53	962	66.0	-246003.0	-1237.0	1973.0
29	18	5	53	962	67.0	-242891.0	-1246.0	1536.0
29	18	5	53	963	68.0	-240026.0	-1247.0	1788.0
29	18	5	53	963	69.0	-237019.0	-1280.0	1675.0
29	18	5	53	964	70.0	-233536.0	-1312.0	1331.0
29	18	5	53	964	71.0	-229784.0	-1320.0	1071.0
29	18	5	53	965	72.0	-226671.0	-1354.0	1102.0
29	18	5	53	965	73.0	-223596.0	-1374.0	1214.0
29	18	5	53	966	74.0	-220602.0	-1391.0	1221.0
29	18	5	53	967	75.0	-218124.0	-1425.0	991.0
29	18	5	53	967	76.0	-215866.0	-1442.0	1162.0
29	18	5	53	968	77.0	-213497.0	-1447.0	1499.0
29	18	5	53	968	78.0	-211255.0	-1467.0	1679.0
29	18	5	53	969	79.0	-209676.0	-1489.0	1803.0
29	18	5	53	981	80.0	-208013.0	-1524.0	1491.0
29	18	5	53	982	81.0	-206069.0	-1541.0	1187.0
