29	17	16	4	960	93.0	-205406.0	-2115354.0	-6418.0
29	17	16	4	962	94.0	-204872.0	-2115663.0	-6513.0
29	17	16	4	964	95.0	-203936.0	-2115661.0	-6522.0
29	17	16	4	967	96.0	-202836.0	-2115617.0	-6476.0
29	17	16	4	969	97.0	-201688.0	-2115954.0	-6499.0
29	17	16	4	971	98.0	-200478.0	-2116704.0	-6504.0
29	17	16	4	973	99.0	-199193.0	-2116806.0	-6504.0
29	17	16	4	975	100.0	-197819.0	-2116701.0	-6482.0
29	17	16	4	977	101.0	-196564.0	-2118939.0	-6484.0
29	17	16	4	978	102.0	-195537.0	-2124966.0	-6541.0
29	17	16	4	979	103.0	-194600.0	-2126581.0	-6477.0
29	17	16	4	980	104.0	-193909.0	-2129171.0	-6471.0
29	17	16	4	981	105.0	-193252.0	-2130508.0	-6561.0
29	17	16	4	982	106.0	-192322.0	-2128837.0	-6475.0
29	17	16	4	982	107.0	-191621.0	-2127133.0	-6453.0
29	17	16	4	983	108.0	-191109.0	-2126566.0	-6562.0
29	17	16	4	984	109.0	-190584.0	-2126552.0	-6435.0
29	17	16	4	984	110.0	-190292.0	-2126549.0	-6449.0
29	17	16	4	985	111.0	-190194.0	-2126296.0	-6582.0
29	17	16	5	10	112.0	-190316.0	-2121445.0	-6401.0
29	17	16	5	54	113.0	-190636.0	-2113482.0	-6412.0
29	17	16	5	55	114.0	-190983.0	-2113396.0	-6595.0
29	17	16	5	55	115.0	-191167.0	-2114199.0	-6366.0
29	17	16	5	56	116.0	-191154.0	-2114319.0	-6389.0
29	17	16	5	56	117.0	-191037.0	-2113950.0	-6620.0
29	17	16	5	57	118.0	-191055.0	-2114204.0	-6355.0
29	17	16	5	57	119.0	-191219.0	-2120122.0	-6393.0
29	17	16	5	58	120.0	-191497.0	-2122935.0	-6600.0
29	17	16	5	59	121.0	-191683.0	-2122816.0	-6370.0
29	17	16	5	59	122.0	-191954.0	-2123242.0	-6446.0
29	17	16	5	60	123.0	-192606.0	-2123652.0	-6579.0
29	17	16	5	60	124.0	-193377.0	-2124441.0	-6306.0
29	17	16	5	61	125.0	-193976.0	-2126415.0	-6344.0
29	17	16	5	61	126.0	-194479.0	-2127665.0	-6507.0
29	17	16	5	62	127.0	-194956.0	-2128078.0	-6336.0
29	17	16	5	63	149.0	-191891.0	-2123439.0	-6375.0
29	17	16	5	64	150.0	-191562.0	-2124393.0	-6311.0
29	17	16	5	64	151.0	-191023.0	-2126025.0	-6531.0
29	17	16	5	65	152.0	-189997.0	-2125964.0	-6363.0
29	17	16	5	66	153.0	-188381.0	-2126142.0	-6292.0
29	17	16	5	66	154.0	-186959.0	-2126954.0	-6519.0
29	17	16	5	99	155.0	-181797.0	-2126871.0	-6332.0
29	17	16	5	100	156.0	-173037.0	-2126759.0	-6266.0
29	17	16	5	100	157.0	-168762.0	-2126529.0	-6508.0
29	17	16	5	101	158.0	-171877.0	-2125986.0	-6355.0
29	17	16	5	101	159.0	-177776.0	-2126374.0	-6284.0
29	17	16	5	102	160.0	-181922.0	-2126618.0	-6499.0
29	17	16	5	103	161.0	-184496.0	-2127054.0	-6266.0
29	17	16	5	103	162.0	-187369.0	-2127562.0	-6248.0
29	17	16	5	104	163.0	-189625.0	-2128731.0	-6492.0
29	17	16	5	104	164.0	-190912.0	-2128351.0	-6233.0
29	17	16	5	105	165.0	-191871.0	-2125025.0	-6177.0
29	17	16	5	105	166.0	-192585.0	-2123856.0	-6421.0
29	17	16	5	106	167.0	-191771.0	-2125097.0	-6231.0
29	17	16	5	107	168.0	-189266.0	-2126459.0	-6237.0
29	17	16	5	107	169.0	-186392.0	-2126364.0	-6417.0
29	17	16	5	108	171.0	-183659.0	-2113493.0	-6242.0
29	17	16	5	108	172.0	-183777.0	-2109446.0	-6411.0
29	17	16	5	109	173.0	-184417.0	-2108919.0	-6253.0
29	17	16	5	110	174.0	-185081.0	-2107761.0	-6273.0
29	17	16	5	110	175.0	-185474.0	-2107312.0	-6334.0
29	17	16	5	111	176.0	-185674.0	-2106140.0	-6202.0
29	17	16	5	111	177.0	-185786.0	-2105022.0	-6270.0
29	17	16	5	145	178.0	-185717.0	-2104502.0	-6333.0
29	17	16	5	146	179.0	-185314.0	-2103707.0	-6284.0
29	17	16	5	146	180.0	-184917.0	-2100279.0	-6264.0
29	17	16	5	147	181.0	-184782.0	-2099246.0	-6284.0
29	17	16	5	147	182.0	-184779.0	-2099747.0	-6311.0
29	17	16	5	148	183.0	-185200.0	-2101224.0	-6312.0
29	17	16	5	148	184.0	-185946.0	-2104779.0	-6231.0
29	17	16	5	149	185.0	-187094.0	-2106259.0	-6329.0
29	17	16	5	149	186.0	-188435.0	-2107025.0	-6336.0
29	17	16	5	150	187.0	-189896.0	-2106840.0	-6252.0
29	17	16	5	151	188.0	-191515.0	-2104171.0	-6377.0
29	17	16	5	151	189.0	-193159.0	-2104179.0	-6316.0
29	17	16	5	152	190.0	-194756.0	-2104550.0	-6235.0
29	17	16	5	152	191.0	-196291.0	-2104470.0	-6391.0
29	17	16	5	153	192.0	-197767.0	-2103684.0	-6300.0
29	17	16	5	153	194.0	-200393.0	-2114986.0	-6394.0
29	17	16	5	154	195.0	-201429.0	-2122794.0	-6274.0
29	17	16	5	154	196.0	-202341.0	-2120789.0	-6137.0
29	17	16	5	155	197.0	-203179.0	-2119656.0	-6409.0
29	17	16	5	156	198.0	-203664.0	-2118718.0	-6271.0
29	17	16	5	156	199.0	-203924.0	-2118203.0	-6151.0
29	17	16	5	189	200.0	-204173.0	-2115152.0	-6388.0
29	17	16	5	201	201.0	-204289.0	-2109556.0	-6243.0
29	17	16	5	202	202.0	-204357.0	-2110580.0	-6129.0
29	17	16	5	203	203.0	-204507.0	-2111661.0	-6382.0
29	17	16	5	234	204.0	-204917.0	-2111368.0	-6222.0
29	17	16	5	234	205.0	-205337.0	-2111550.0	-6121.0
29	17	16	5	235	206.0	-205866.0	-2111527.0	-6377.0
29	17	16	5	236	207.0	-206500.0	-2111871.0	-6211.0
29	17	16	5	236	208.0	-207229.0	-2111826.0	-6127.0
29	17	16	5	237	209.0	-207962.0	-2111289.0	-6333.0
29	17	16	5	238	210.0	-208627.0	-2110196.0	-6180.0
29	17	16	5	238	211.0	-209306.0	-2108574.0	-6088.0
29	17	16	5	239	212.0	-209976.0	-2108600.0	-6314.0
29	17	16	5	239	213.0	-210555.0	-2108996.0	-6207.0
29	17	16	5	240	214.0	-211176.0	-2108702.0	-6146.0
29	17	16	5	241	216.0	-212570.0	-2108354.0	-6169.0
29	17	16	5	241	217.0	-213059.0	-2107511.0	-6156.0
29	17	16	5	242	218.0	-213445.0	-2107255.0	-6234.0
29	17	16	5	242	219.0	-213804.0	-2108460.0	-6153.0
29	17	16	5	243	239.0	-201451.0	-2094886.0	-6049.0
29	17	16	5	252	240.0	-200225.0	-2094564.0	-6257.0
29	17	16	5	253	241.0	-199027.0	-2095131.0	-6241.0
29	17	16	5	253	242.0	-197853.0	-2096256.0	-6081.0
29	17	16	5	254	243.0	-196524.0	-2097336.0	-6308.0
29	17	16	5	254	244.0	-195072.0	-2098910.0	-6194.0
29	17	16	5	278	245.0	-193847.0	-2107977.0	-5984.0
29	17	16	5	279	246.0	-192969.0	-2112596.0	-6225.0
29	17	16	5	280	247.0	-192294.0	-2112599.0	-6184.0
29	17	16	5	280	248.0	-191806.0	-2112491.0	-6005.0
29	17	16	5	281	249.0	-191337.0	-2112878.0	-6269.0
29	17	16	5	282	250.0	-191050.0	-2115377.0	-6161.0
29	17	16	5	282	251.0	-191014.0	-2115457.0	-6002.0
29	17	16	5	283	252.0	-191109.0	-2115747.0	-6212.0
29	17	16	5	283	253.0	-191229.0	-2115482.0	-6103.0
29	17	16	5	284	254.0	-191217.0	-2114670.0	-5981.0
29	17	16	5	285	255.0	-191023.0	-2114759.0	-6204.0
29	17	16	5	285	0.0	-190617.0	-2114814.0	-6112.0
29	17	16	5	286	1.0	-190206.0	-2114586.0	-6062.0
29	17	16	5	286	2.0	-189674.0	-2113946.0	-6162.0
29	17	16	5	287	3.0	-188844.0	-2113704.0	-6087.0
29	17	16	5	288	5.0	-186992.0	-2096611.0	-6137.0
29	17	16	5	288	6.0	-186055.0	-2096254.0	-6145.0
29	17	16	5	289	7.0	-185250.0	-2096170.0	-6122.0
29	17	16	5	289	8.0	-184446.0	-2096942.0	-6117.0
29	17	16	5	290	9.0	-183707.0	-2097686.0	-6106.0
29	17	16	5	291	10.0	-183244.0	-2097577.0	-6146.0
29	17	16	5	324	11.0	-182887.0	-2097311.0	-6096.0
29	17	16	5	325	12.0	-182725.0	-2098297.0	-6162.0
29	17	16	5	326	13.0	-183010.0	-2107997.0	-6174.0
29	17	16	5	326	14.0	-183519.0	-2112516.0	-6046.0
29	17	16	5	327	15.0	-184265.0	-2112856.0	-6164.0
29	17	16	5	327	16.0	-185203.0	-2113219.0	-6208.0
29	17	16	5	328	17.0	-186296.0	-2113120.0	-6056.0
29	17	16	5	329	18.0	-187407.0	-2112621.0	-6138.0
29	17	16	5	329	19.0	-188616.0	-2115006.0	-6182.0
29	17	16	5	330	20.0	-190068.0	-2117595.0	-5990.0
29	17	16	5	330	21.0	-191629.0	-2117227.0	-6182.0
29	17	16	5	331	22.0	-193030.0	-2116053.0	-6217.0
29	17	16	5	332	23.0	-194231.0	-2115482.0	-6006.0
29	17	16	5	332	24.0	-195564.0	-2115596.0	-6153.0
29	17	16	5	333	25.0	-197024.0	-2115737.0	-6176.0
29	17	16	5	333	27.0	-199376.0	-2117437.0	-6151.0
29	17	16	5	334	28.0	-200323.0	-2117156.0	-6126.0
29	17	16	5	334	29.0	-201321.0	-2117106.0	-5929.0
29	17	16	5	335	30.0	-202065.0	-2118362.0	-6171.0
29	17	16	5	336	31.0	-202851.0	-2122942.0	-6158.0
29	17	16	5	336	32.0	-203289.0	-2124456.0	-5927.0
29	17	16	5	337	33.0	-202887.0	-2124741.0	-6121.0
29	17	16	5	370	34.0	-202463.0	-2125472.0	-6114.0
29	17	16	5	371	35.0	-201958.0	-2126149.0	-5896.0
29	17	16	5	371	36.0	-201535.0	-2126764.0	-6103.0
29	17	16	5	372	37.0	-201066.0	-2127075.0	-6107.0
29	17	16	5	372	38.0	-200526.0	-2127832.0	-5932.0
29	17	16	5	373	39.0	-199829.0	-2128354.0	-6072.0
29	17	16	5	374	40.0	-199140.0	-2127662.0	-6049.0
29	17	16	5	375	41.0	-198375.0	-2124532.0	-5960.0
29	17	16	5	376	42.0	-197304.0	-2123216.0	-6101.0
29	17	16	5	376	43.0	-196304.0	-2123118.0	-6027.0
29	17	16	5	377	44.0	-195260.0	-2121592.0	-5944.0
29	17	16	5	377	45.0	-193961.0	-2121264.0	-6058.0
29	17	16	5	378	46.0	-192631.0	-2121486.0	-6037.0
29	17	16	5	379	47.0	-191484.0	-2122406.0	-5976.0
29	17	16	5	379	48.0	-190626.0	-2123267.0	-6030.0
29	17	16	5	380	50.0	-189167.0	-2123482.0	-6054.0
29	17	16	5	380	51.0	-188677.0	-2123459.0	-6027.0
29	17	16	5	381	52.0	-188317.0	-2123309.0	-6039.0
29	17	16	5	382	53.0	-187998.0	-2123706.0	-6098.0
29	17	16	5	382	54.0	-187596.0	-2123947.0	-5997.0
29	17	16	5	383	55.0	-187220.0	-2124569.0	-6031.0
29	17	16	5	415	56.0	-186980.0	-2125901.0	-6094.0
29	17	16	5	416	57.0	-186769.0	-2126341.0	-5944.0
29	17	16	5	417	58.0	-186627.0	-2126112.0	-5999.0
29	17	16	5	417	59.0	-186372.0	-2126002.0	-6132.0
29	17	16	5	418	60.0	-186046.0	-2125764.0	-5942.0
29	17	16	5	418	61.0	-185897.0	-2125706.0	-6016.0
29	17	16	5	419	62.0	-186124.0	-2126093.0	-6114.0
29	17	16	5	420	63.0	-186433.0	-2126886.0	-5897.0
29	17	16	5	420	64.0	-186679.0	-2127513.0	-6037.0
29	17	16	5	421	65.0	-187017.0	-2127774.0	-6135.0
29	17	16	5	422	66.0	-187391.0	-2128787.0	-5877.0
29	17	16	5	422	67.0	-187646.0	-2130121.0	-6032.0
29	17	16	5	423	68.0	-187746.0	-2131471.0	-6125.0
29	17	16	5	423	69.0	-187936.0	-2132852.0	-5872.0
29	17	16	5	424	70.0	-188351.0	-2133310.0	-6009.0
29	17	16	5	459	72.0	-189927.0	-2133756.0	-5809.0
29	17	16	5	460	73.0	-190860.0	-2135243.0	-5994.0
29	17	16	5	460	74.0	-191988.0	-2136117.0	-6042.0
29	17	16	5	462	75.0	-193223.0	-2136559.0	-5809.0
29	17	16	5	463	76.0	-194341.0	-2137564.0	-6009.0
29	17	16	5	463	77.0	-195433.0	-2136427.0	-6035.0
29	17	16	5	464	78.0	-196411.0	-2133031.0	-5805.0
29	17	16	5	465	79.0	-197372.0	-2132755.0	-5944.0
29	17	16	5	465	80.0	-198334.0	-2132872.0	-5982.0
29	17	16	5	466	81.0	-199216.0	-2133150.0	-5810.0
29	17	16	5	466	82.0	-199790.0	-2133889.0	-5966.0
29	17	16	5	467	83.0	-200007.0	-2134898.0	-5962.0
29	17	16	5	467	84.0	-200225.0	-2133986.0	-5840.0
29	17	16	5	468	85.0	-200362.0	-2123079.0	-5957.0
29	17	16	5	469	86.0	-200202.0	-2115971.0	-5955.0
29	17	16	5	469	87.0	-199894.0	-2117318.0	-5903.0
29	17	16	5	470	95.0	-196577.0	-2119161.0	-5912.0
29	17	16	5	470	96.0	-195884.0	-2119262.0	-6036.0
29	17	16	5	471	97.0	-195157.0	-2119790.0	-5940.0
29	17	16	5	472	98.0	-194714.0	-2120567.0	-5928.0
29	17	16	5	472	99.0	-194316.0	-2122484.0	-6037.0
29	17	16	5	473	100.0	-193879.0	-2123624.0	-5844.0
29	17	16	5	473	101.0	-193357.0	-2123736.0	-5899.0
29	17	16	5	505	102.0	-192765.0	-2124372.0	-6040.0
29	17	16	5	506	103.0	-192166.0	-2125936.0	-5850.0
29	17	16	5	507	104.0	-191746.0	-2128432.0	-5921.0
29	17	16	5	507	105.0	-191250.0	-2133736.0	-6074.0
29	17	16	5	508	106.0	-190743.0	-2135307.0	-5849.0
29	17	16	5	509	107.0	-189992.0	-2135936.0	-5890.0
29	17	16	5	509	108.0	-189203.0	-2136919.0	-6061.0
29	17	16	5	510	109.0	-188791.0	-2137504.0	-5795.0
29	17	16	5	511	110.0	-188282.0	-2137217.0	-5841.0
29	17	16	5	511	111.0	-188196.0	-2135427.0	-6036.0
29	17	16	5	512	112.0	-187953.0	-2135995.0	-5788.0
29	17	16	5	512	113.0	-187711.0	-2137453.0	-5861.0
29	17	16	5	513	114.0	-187639.0	-2142121.0	-6022.0
29	17	16	5	514	115.0	-187492.0	-2146679.0	-5784.0
29	17	16	5	514	116.0	-187736.0	-2147545.0	-5881.0
29	17	16	5	515	117.0	-187852.0	-2147273.0	-5998.0
29	17	16	5	515	118.0	-187721.0	-2146837.0	-5746.0
29	17	16	5	516	119.0	-187531.0	-2147883.0	-5859.0
29	17	16	5	516	120.0	-187317.0	-2154209.0	-5960.0
29	17	16	5	517	121.0	-187204.0	-2160507.0	-5811.0
29	17	16	5	518	122.0	-186989.0	-2162070.0	-5822.0
29	17	16	5	527	123.0	-186744.0	-2162968.0	-5882.0
29	17	16	5	551	124.0	-186492.0	-2164526.0	-5784.0
29	17	16	5	552	125.0	-186314.0	-2165559.0	-5865.0
29	17	16	5	552	126.0	-186181.0	-2165939.0	-5905.0
29	17	16	5	553	127.0	-185873.0	-2165346.0	-5832.0
29	17	16	5	553	128.0	-185725.0	-2165549.0	-5864.0
29	17	16	5	554	129.0	-185748.0	-2166082.0	-5850.0
29	17	16	5	555	130.0	-186234.0	-2166019.0	-5854.0
29	17	16	5	555	131.0	-187339.0	-2165831.0	-5869.0
29	17	16	5	556	132.0	-189046.0	-2164449.0	-5844.0
29	17	16	5	556	133.0	-191412.0	-2164191.0	-5909.0
29	17	16	5	557	134.0	-194738.0	-2164764.0	-5853.0
29	17	16	5	558	135.0	-199221.0	-2165454.0	-5827.0
29	17	16	5	558	136.0	-204420.0	-2166389.0	-5929.0
29	17	16	5	559	137.0	-210150.0	-2167281.0	-5854.0
29	17	16	5	559	138.0	-216280.0	-2167848.0	-5802.0
29	17	16	5	560	140.0	-227612.0	-2167897.0	-5805.0
29	17	16	5	560	141.0	-231639.0	-2171731.0	-5737.0
29	17	16	5	561	142.0	-233839.0	-2175516.0	-5958.0
29	17	16	5	562	143.0	-233584.0	-2176781.0	-5800.0
29	17	16	5	562	144.0	-230508.0	-2178191.0	-5742.0
29	17	16	5	563	145.0	-224637.0	-2179179.0	-6010.0
29	17	16	5	685	146.0	-216535.0	-2179142.0	-5833.0
29	17	16	5	686	147.0	-207701.0	-2179729.0	-5762.0
29	17	16	5	687	148.0	-199712.0	-2180636.0	-5976.0
29	17	16	5	687	149.0	-193367.0	-2181267.0	-5764.0
29	17	16	5	688	150.0	-190027.0	-2181691.0	-5751.0
29	17	16	5	689	151.0	-189987.0	-2182147.0	-5977.0
29	17	16	5	689	152.0	-193164.0	-2182370.0	-5749.0
29	17	16	5	690	153.0	-198707.0	-2183015.0	-5743.0
29	17	16	5	690	154.0	-205864.0	-2183619.0	-5937.0
29	17	16	5	691	155.0	-213120.0	-2184153.0	-5737.0
29	17	16	5	692	156.0	-217526.0	-2184862.0	-5757.0
29	17	16	5	692	157.0	-217231.0	-2185624.0	-5905.0
29	17	16	5	693	158.0	-215781.0	-2186104.0	-5713.0
29	17	16	5	693	159.0	-214189.0	-2186217.0	-5725.0
29	17	16	5	694	160.0	-211659.0	-2186402.0	-5881.0
29	17	16	5	695	207.0	-162732.0	-2236046.0	-5686.0
29	17	16	5	695	208.0	-162992.0	-2235241.0	-5652.0
29	17	16	5	696	209.0	-163663.0	-2234797.0	-5714.0
29	17	16	5	696	210.0	-164913.0	-2235364.0	-5687.0
29	17	16	5	697	211.0	-166121.0	-2235985.0	-5689.0
29	17	16	5	697	212.0	-167546.0	-2236182.0	-5683.0
29	17	16	5	698	213.0	-169664.0	-2236849.0	-5711.0
29	17	16	5	730	214.0	-172449.0	-2237678.0	-5726.0
29	17	16	5	730	215.0	-175377.0	-2238402.0	-5694.0
29	17	16	5	731	216.0	-177569.0	-2238393.0	-5757.0
29	17	16	5	731	217.0	-179163.0	-2238733.0	-5792.0
29	17	16	5	732	218.0	-180526.0	-2239008.0	-5635.0
29	17	16	5	733	219.0	-181734.0	-2238897.0	-5732.0
29	17	16	5	733	220.0	-182573.0	-2238746.0	-5789.0
29	17	16	5	734	221.0	-182827.0	-2238337.0	-5612.0
29	17	16	5	735	222.0	-182609.0	-2238533.0	-5757.0
29	17	16	5	735	223.0	-182157.0	-2238704.0	-5772.0
29	17	16	5	736	224.0	-181598.0	-2239192.0	-5606.0
29	17	16	5	737	225.0	-180741.0	-2240219.0	-5766.0
29	17	16	5	737	226.0	-179598.0	-2240851.0	-5767.0
29	17	16	5	738	227.0	-178247.0	-2241102.0	-5577.0
29	17	16	5	738	228.0	-176749.0	-2241061.0	-5767.0
29	17	16	5	739	230.0	-173950.0	-2242019.0	-5490.0
29	17	16	5	740	231.0	-172961.0	-2242804.0	-5761.0
29	17	16	5	740	232.0	-172221.0	-2243222.0	-5719.0
29	17	16	5	741	233.0	-171425.0	-2243739.0	-5516.0
29	17	16	5	742	234.0	-170679.0	-2243899.0	-5757.0
29	17	16	5	742	235.0	-170049.0	-2243754.0	-5724.0
29	17	16	5	774	236.0	-169689.0	-2243848.0	-5486.0
29	17	16	5	775	237.0	-169765.0	-2241729.0	-5723.0
29	17	16	5	776	238.0	-170155.0	-2241945.0	-5704.0
29	17	16	5	777	239.0	-170851.0	-2242226.0	-5509.0
29	17	16	5	777	240.0	-171726.0	-2242017.0	-5721.0
29	17	16	5	778	241.0	-172762.0	-2242201.0	-5670.0
29	17	16	5	779	242.0	-173974.0	-2243005.0	-5509.0
29	17	16	5	779	243.0	-175186.0	-2244102.0	-5686.0
29	17	16	5	780	244.0	-176759.0	-2245400.0	-5598.0
29	17	16	5	781	245.0	-178686.0	-2244771.0	-5457.0
29	17	16	5	781	246.0	-180955.0	-2243794.0	-5657.0
29	17	16	5	782	247.0	-183111.0	-2245364.0	-5601.0
29	17	16	5	783	248.0	-185325.0	-2248004.0	-5526.0
29	17	16	5	783	249.0	-187790.0	-2248967.0	-5636.0
29	17	16	5	784	250.0	-190051.0	-2249748.0	-5631.0
29	17	16	5	784	252.0	-194399.0	-2253227.0	-5622.0
29	17	16	5	785	253.0	-196432.0	-2254221.0	-5624.0
29	17	16	5	786	254.0	-198237.0	-2252115.0	-5652.0
29	17	16	5	786	255.0	-199844.0	-2249908.0	-5607.0
29	17	16	5	787	0.0	-201382.0	-2250597.0	-5597.0
29	17	16	5	787	1.0	-202676.0	-2251218.0	-5675.0
29	17	16	5	788	2.0	-203546.0	-2251582.0	-5560.0
29	17	16	5	820	3.0	-204366.0	-2252732.0	-5612.0
29	17	16	5	821	4.0	-205156.0	-2254071.0	-5676.0
29	17	16	5	822	5.0	-205744.0	-2256164.0	-5551.0
29	17	16	5	823	6.0	-206059.0	-2257022.0	-5620.0
29	17	16	5	823	7.0	-206302.0	-2257617.0	-5686.0
29	17	16	5	824	8.0	-206048.0	-2259189.0	-5529.0
29	17	16	5	825	9.0	-205790.0	-2261384.0	-5606.0
29	17	16	5	825	10.0	-205544.0	-2262853.0	-5720.0
29	17	16	5	826	11.0	-204924.0	-2263584.0	-5480.0
29	17	16	5	827	12.0	-203927.0	-2263579.0	-5612.0
29	17	16	5	827	13.0	-202832.0	-2264012.0	-5695.0
29	17	16	5	828	14.0	-201709.0	-2265262.0	-5471.0
29	17	16	5	829	15.0	-200491.0	-2266342.0	-5624.0
29	17	16	5	829	16.0	-199470.0	-2267424.0	-5733.0
29	17	16	5	830	17.0	-198637.0	-2265610.0	-5406.0
29	17	16	5	831	19.0	-196892.0	-2267883.0	-5651.0
29	17	16	5	831	20.0	-196003.0	-2269135.0	-5432.0
29	17	16	5	832	21.0	-195168.0	-2269871.0	-5591.0
29	17	16	5	832	22.0	-194364.0	-2269536.0	-5619.0
29	17	16	5	833	23.0	-193732.0	-2269530.0	-5357.0
29	17	16	5	833	24.0	-192936.0	-2269807.0	-5576.0
29	17	16	5	911	25.0	-192113.0	-2269525.0	-5644.0
29	17	16	5	911	26.0	-191661.0	-2269607.0	-5419.0
29	17	16	5	912	27.0	-191369.0	-2270194.0	-5563.0
29	17	16	5	913	28.0	-190934.0	-2270882.0	-5591.0
29	17	16	5	913	29.0	-190291.0	-2270284.0	-5413.0
29	17	16	5	915	30.0	-189595.0	-2263233.0	-5544.0
29	17	16	5	916	31.0	-189161.0	-2261479.0	-5555.0
29	17	16	5	917	32.0	-188999.0	-2263200.0	-5411.0
29	17	16	5	918	33.0	-189109.0	-2264278.0	-5521.0
29	17	16	5	919	34.0	-189403.0	-2264863.0	-5518.0
29	17	16	5	919	35.0	-189718.0	-2264171.0	-5486.0
29	17	16	5	920	36.0	-190106.0	-2253305.0	-5535.0
29	17	16	5	921	37.0	-190751.0	-2249350.0	-5510.0
29	17	16	5	921	38.0	-191567.0	-2251921.0	-5531.0
29	17	16	5	922	39.0	-192712.0	-2254071.0	-5531.0
29	17	16	5	922	63.0	-195534.0	-2301511.0	-5379.0
29	17	16	5	923	64.0	-194461.0	-2307564.0	-5456.0
29	17	16	5	924	65.0	-192272.0	-2307623.0	-5612.0
29	17	16	5	924	66.0	-189051.0	-2307832.0	-5392.0
29	17	16	5	925	67.0	-186172.0	-2307782.0	-5457.0
29	17	16	5	925	68.0	-178540.0	-2310388.0	-5577.0
29	17	16	5	926	69.0	-169551.0	-2319003.0	-5367.0
29	17	16	5	955	70.0	-166883.0	-2321416.0	-5431.0
29	17	16	5	955	71.0	-168977.0	-2321609.0	-5536.0
29	17	16	5	956	72.0	-172847.0	-2322141.0	-5407.0
29	17	16	5	957	73.0	-175622.0	-2322972.0	-5431.0
29	17	16	5	958	74.0	-176790.0	-2323642.0	-5515.0
29	17	16	5	959	75.0	-179097.0	-2324340.0	-5415.0
29	17	16	5	960	76.0	-181674.0	-2324376.0	-5444.0
29	17	16	5	962	77.0	-183291.0	-2324683.0	-5459.0
29	17	16	5	962	78.0	-184302.0	-2325994.0	-5441.0
29	17	16	5	963	79.0	-183841.0	-2326886.0	-5441.0
29	17	16	5	964	80.0	-181411.0	-2327518.0	-5454.0
29	17	16	5	965	81.0	-177956.0	-2328226.0	-5507.0
29	17	16	5	966	82.0	-175060.0	-2328332.0	-5466.0
29	17	16	5	966	83.0	-173331.0	-2328599.0	-5422.0
29	17	16	5	967	84.0	-172155.0	-2329024.0	-5515.0
29	17	16	5	968	86.0	-172411.0	-2331231.0	-5404.0
29	17	16	5	969	87.0	-173868.0	-2331652.0	-5533.0
29	17	16	5	969	88.0	-175909.0	-2332281.0	-5442.0
29	17	16	5	970	89.0	-178431.0	-2332203.0	-5404.0
29	17	16	5	971	90.0	-181209.0	-2332104.0	-5574.0
29	17	16	5	971	91.0	-183794.0	-2333486.0	-5439.0
29	17	16	5	999	92.0	-186511.0	-2340858.0	-5332.0
29	17	16	6	0	93.0	-189216.0	-2345222.0	-5614.0
29	17	16	6	0	94.0	-191670.0	-2347141.0	-5446.0
29	17	16	6	1	95.0	-193961.0	-2354886.0	-5357.0
29	17	16	6	2	96.0	-196183.0	-2357476.0	-5590.0
29	17	16	6	2	97.0	-198201.0	-2356187.0	-5433.0
29	17	16	6	3	98.0	-199902.0	-2356536.0	-5356.0
29	17	16	6	4	99.0	-201339.0	-2358350.0	-5606.0
29	17	16	6	4	100.0	-202478.0	-2360096.0	-5410.0
29	17	16	6	5	101.0	-203418.0	-2361047.0	-5297.0
29	17	16	6	6	102.0	-204051.0	-2362011.0	-5546.0
29	17	16	6	7	103.0	-204549.0	-2363252.0	-5377.0
29	17	16	6	8	104.0	-204866.0	-2364392.0	-5302.0
29	17	16	6	8	105.0	-205035.0	-2365480.0	-5528.0
29	17	16	6	9	106.0	-205371.0	-2366319.0	-5404.0
29	17	16	6	10	108.0	-205902.0	-2369909.0	-5480.0
29	17	16	6	10	109.0	-205984.0	-2372651.0	-5335.0
29	17	16	6	11	110.0	-206099.0	-2373379.0	-5317.0
29	17	16	6	12	111.0	-206100.0	-2374268.0	-5468.0
29	17	16	6	12	112.0	-206127.0	-2375114.0	-5358.0
29	17	16	6	13	113.0	-206417.0	-2376901.0	-5324.0
29	17	16	6	14	114.0	-206636.0	-2377977.0	-5439.0
29	17	16	6	44	115.0	-206686.0	-2378687.0	-5378.0
29	17	16	6	45	116.0	-206740.0	-2379417.0	-5375.0
29	17	16	6	46	117.0	-206746.0	-2381016.0	-5411.0
29	17	16	6	46	118.0	-206477.0	-2382252.0	-5375.0
29	17	16	6	47	119.0	-206093.0	-2383346.0	-5409.0
29	17	16	6	48	120.0	-205795.0	-2384964.0	-5395.0
29	17	16	6	48	121.0	-205182.0	-2386567.0	-5387.0
29	17	16	6	49	122.0	-204462.0	-2386981.0	-5414.0
29	17	16	6	50	123.0	-203853.0	-2387544.0	-5384.0
29	17	16	6	50	124.0	-203371.0	-2388861.0	-5469.0
29	17	16	6	51	125.0	-202791.0	-2390079.0	-5418.0
29	17	16	6	52	126.0	-202141.0	-2390945.0	-5337.0
29	17	16	6	52	127.0	-201981.0	-2390962.0	-5445.0
29	17	16	6	53	128.0	-202007.0	-2390384.0	-5395.0
29	17	16	6	54	129.0	-202113.0	-2388745.0	-5271.0
29	17	16	6	54	131.0	-202984.0	-2390559.0	-5431.0
29	17	16	6	55	132.0	-203657.0	-2390541.0	-5267.0
29	17	16	6	56	133.0	-204426.0	-2390841.0	-5452.0
29	17	16	6	56	134.0	-205428.0	-2391322.0	-5395.0
29	17	16	6	57	135.0	-206297.0	-2391844.0	-5269.0
29	17	16	6	57	136.0	-206859.0	-2400389.0	-5535.0
29	17	16	6	136	137.0	-207204.0	-2408083.0	-5408.0
29	17	16	6	137	138.0	-207586.0	-2409116.0	-5187.0
29	17	16	6	181	139.0	-207744.0	-2410641.0	-5494.0
29	17	16	6	182	140.0	-207709.0	-2411782.0	-5428.0
29	17	16	6	182	141.0	-207761.0	-2411964.0	-5156.0
29	17	16	6	183	142.0	-207890.0	-2411744.0	-5416.0
29	17	16	6	184	143.0	-207897.0	-2412878.0	-5397.0
29	17	16	6	184	144.0	-208017.0	-2414471.0	-5177.0
29	17	16	6	185	145.0	-207812.0	-2415356.0	-5419.0
29	17	16	6	186	146.0	-207540.0	-2416160.0	-5327.0
29	17	16	6	187	147.0	-207322.0	-2417617.0	-5169.0
29	17	16	6	188	148.0	-207227.0	-2419482.0	-5366.0
29	17	16	6	188	149.0	-206934.0	-2420892.0	-5317.0
29	17	16	6	189	150.0	-206515.0	-2421906.0	-5197.0
29	17	16	6	190	151.0	-206426.0	-2422857.0	-5424.0
29	17	16	6	191	176.0	-185153.0	-2427372.0	-5328.0
29	17	16	6	191	177.0	-184010.0	-2427214.0	-5371.0
29	17	16	6	192	198.0	-195285.0	-2425186.0	-5126.0
29	17	16	6	193	199.0	-196702.0	-2425101.0	-5101.0
29	17	16	6	193	200.0	-198238.0	-2425013.0	-5157.0
29	17	16	6	194	201.0	-199310.0	-2426544.0	-5132.0
29	17	16	6	194	202.0	-200085.0	-2428852.0	-5110.0
29	17	16	6	195	203.0	-201005.0	-2428750.0	-5100.0
29	17	16	6	196	204.0	-201865.0	-2427692.0	-5112.0
29	17	16	6	225	205.0	-202332.0	-2427413.0	-5151.0
29	17	16	6	226	206.0	-202463.0	-2428039.0	-5040.0
29	17	16	6	226	207.0	-202556.0	-2428502.0	-5022.0
29	17	16	6	227	208.0	-202193.0	-2428623.0	-5134.0
29	17	16	6	227	209.0	-201414.0	-2430164.0	-5002.0
29	17	16	6	228	210.0	-200560.0	-2432493.0	-5023.0
29	17	16	6	229	211.0	-199427.0	-2432574.0	-5122.0
29	17	16	6	229	212.0	-197881.0	-2430788.0	-4936.0
29	17	16	6	270	213.0	-196149.0	-2429466.0	-4976.0
29	17	16	6	270	214.0	-194554.0	-2428297.0	-5102.0
29	17	16	6	271	215.0	-193007.0	-2427815.0	-4857.0
29	17	16	6	272	216.0	-191393.0	-2427205.0	-4907.0
29	17	16	6	273	217.0	-189881.0	-2425611.0	-5013.0
29	17	16	6	273	218.0	-188487.0	-2420950.0	-4720.0
29	17	16	6	274	219.0	-187202.0	-2419785.0	-4832.0
29	17	16	6	275	221.0	-185322.0	-2421778.0	-4621.0
29	17	16	6	275	222.0	-184551.0	-2416659.0	-4765.0
29	17	16	6	276	223.0	-183996.0	-2411703.0	-4904.0
29	17	16	6	277	224.0	-183606.0	-2411526.0	-4577.0
29	17	16	6	277	225.0	-183250.0	-2412484.0	-4624.0
29	17	16	6	278	226.0	-183130.0	-2412972.0	-4663.0
29	17	16	6	278	227.0	-183043.0	-2412806.0	-4348.0
29	17	16	6	279	228.0	-183183.0	-2411951.0	-4432.0
29	17	16	6	280	229.0	-183404.0	-2412525.0	-4537.0
29	17	16	6	280	243.0	-191751.0	-2433595.0	-3582.0
29	17	16	6	281	244.0	-191869.0	-2432624.0	-3483.0
29	17	16	6	315	245.0	-192028.0	-2430472.0	-3367.0
29	17	16	6	316	246.0	-191789.0	-2428818.0	-3200.0
29	17	16	6	316	247.0	-191869.0	-2427405.0	-3042.0
29	17	16	6	317	248.0	-192101.0	-2426699.0	-3080.0
29	17	16	6	318	249.0	-192230.0	-2426209.0	-2994.0
29	17	16	6	318	250.0	-192353.0	-2425627.0	-2910.0
29	17	16	6	319	251.0	-192541.0	-2425498.0	-2979.0
29	17	16	6	320	252.0	-192853.0	-2425483.0	-2752.0
29	17	16	6	320	253.0	-193110.0	-2425199.0	-2584.0
29	17	16	6	360	254.0	-193324.0	-2424987.0	-2609.0
29	17	16	6	361	255.0	-193786.0	-2425070.0	-2278.0
29	17	16	6	362	0.0	-194147.0	-2422765.0	-2020.0
29	17	16	6	363	1.0	-194315.0	-2412749.0	-2042.0
29	17	16	6	363	2.0	-194602.0	-2408767.0	-1741.0
29	17	16	6	364	3.0	-194746.0	-2408068.0	-1659.0
29	17	16	6	365	4.0	-194904.0	-2407889.0	-1800.0
29	17	16	6	365	10.0	-195247.0	-2405391.0	-656.0
29	17	16	6	366	11.0	-195146.0	-2405496.0	-279.0
29	17	16	6	367	12.0	-195422.0	-2407045.0	-187.0
29	17	16	6	367	13.0	-195759.0	-2408661.0	-337.0
29	17	16	6	368	14.0	-195875.0	-2409125.0	-96.0
29	17	16	6	369	15.0	-195542.0	-2408876.0	-54.0
29	17	16	6	369	16.0	-194860.0	-2407970.0	-68.0
29	17	16	6	370	17.0	-194523.0	-2407199.0	303.0
29	17	16	6	371	18.0	-194397.0	-2407137.0	522.0
29	17	16	6	371	32.0	-193744.0	-2426279.0	2302.0
29	17	16	6	372	33.0	-193395.0	-2425636.0	2176.0
29	17	16	6	372	34.0	-193338.0	-2425926.0	2072.0
29	17	16	6	373	35.0	-193232.0	-2425925.0	1919.0
29	17	16	6	374	36.0	-193334.0	-2425057.0	2001.0
29	17	16	6	374	37.0	-193539.0	-2429909.0	2243.0
29	17	16	6	375	38.0	-193587.0	-2436001.0	2346.0
29	17	16	6	405	39.0	-193366.0	-2436312.0	2674.0
29	17	16	6	406	40.0	-193463.0	-2436478.0	3171.0
29	17	16	6	407	41.0	-193794.0	-2436724.0	3247.0
29	17	16	6	407	42.0	-193872.0	-2436528.0	3173.0
29	17	16	6	408	43.0	-193562.0	-2436428.0	2988.0
29	17	16	6	409	44.0	-193067.0	-2439703.0	2426.0
29	17	16	6	409	45.0	-192747.0	-2453692.0	2278.0
29	17	16	6	410	46.0	-192469.0	-2458478.0	2438.0
29	17	16	6	411	47.0	-192651.0	-2457496.0	2364.0
29	17	16	6	411	48.0	-193184.0	-2455722.0	2694.0
29	17	16	6	412	49.0	-194041.0	-2454279.0	3149.0
29	17	16	6	413	50.0	-195637.0	-2453132.0	3311.0
29	17	16	6	413	51.0	-198467.0	-2452726.0	4149.0
29	17	16	6	414	52.0	-201963.0	-2452451.0	5590.0
29	17	16	6	415	53.0	-206039.0	-2452090.0	8589.0
29	17	16	6	415	55.0	-215109.0	-2447712.0	30005.0
29	17	16	6	416	56.0	-218967.0	-2446497.0	31642.0
29	17	16	6	416	57.0	-222025.0	-2446351.0	18161.0
29	17	16	6	417	58.0	-223984.0	-2446419.0	6531.0
29	17	16	6	418	59.0	-223941.0	-2446319.0	4558.0
29	17	16	6	418	60.0	-221279.0	-2444596.0	4435.0
29	17	16	6	496	61.0	-215957.0	-2432831.0	3659.0
29	17	16	6	497	62.0	-207800.0	-2425082.0	2408.0
29	17	16	6	498	63.0	-197946.0	-2424823.0	1804.0
29	17	16	6	498	64.0	-187971.0	-2424222.0	1664.0
29	17	16	6	499	65.0	-179763.0	-2428117.0	1624.0
29	17	16	6	500	66.0	-173947.0	-2441246.0	2095.0
29	17	16	6	500	67.0	-171037.0	-2442827.0	2694.0
29	17	16	6	501	68.0	-171730.0	-2441875.0	3126.0
29	17	16	6	502	69.0	-175654.0	-2441213.0	3708.0
29	17	16	6	502	70.0	-181669.0	-2440687.0	4254.0
29	17	16	6	503	71.0	-188902.0	-2439018.0	4479.0
29	17	16	6	504	72.0	-196368.0	-2434408.0	4359.0
29	17	16	6	504	73.0	-201096.0	-2432589.0	3924.0
29	17	16	6	505	74.0	-201888.0	-2431564.0	3465.0
29	17	16	6	506	75.0	-202669.0	-2430642.0	3131.0
29	17	16	6	507	99.0	-199900.0	-2382629.0	3491.0
29	17	16	6	508	100.0	-188507.0	-2383113.0	4068.0
29	17	16	6	509	101.0	-180963.0	-2383869.0	4854.0
29	17	16	6	510	102.0	-177784.0	-2386652.0	5027.0
29	17	16	6	510	103.0	-177100.0	-2388084.0	5102.0
29	17	16	6	511	104.0	-176499.0	-2388509.0	5211.0
29	17	16	6	511	105.0	-175406.0	-2388287.0	5077.0
29	17	16	6	540	106.0	-173879.0	-2387463.0	5398.0
29	17	16	6	541	107.0	-171519.0	-2387051.0	6380.0
29	17	16	6	542	108.0	-169020.0	-2386384.0	7868.0
29	17	16	6	543	109.0	-166909.0	-2385736.0	10463.0
29	17	16	6	544	110.0	-165445.0	-2385929.0	12654.0
29	17	16	6	544	111.0	-164711.0	-2385401.0	11611.0
29	17	16	6	545	112.0	-163743.0	-2377381.0	7090.0
29	17	16	6	546	113.0	-161826.0	-2371838.0	4480.0
29	17	16	6	547	114.0	-159311.0	-2371471.0	3838.0
29	17	16	6	547	115.0	-156186.0	-2371581.0	3631.0
29	17	16	6	548	116.0	-153240.0	-2372385.0	3641.0
29	17	16	6	548	117.0	-150905.0	-2373312.0	3779.0
29	17	16	6	549	118.0	-149241.0	-2373734.0	4006.0
29	17	16	6	550	119.0	-148281.0	-2374671.0	4172.0
29	17	16	6	584	120.0	-147841.0	-2375961.0	4390.0
29	17	16	6	585	122.0	-148891.0	-2377154.0	3856.0
29	17	16	6	586	123.0	-150419.0	-2374602.0	3504.0
29	17	16	6	587	124.0	-152019.0	-2375204.0	3058.0
29	17	16	6	587	125.0	-153527.0	-2376569.0	2741.0
29	17	16	6	588	126.0	-155254.0	-2377942.0	3081.0
29	17	16	6	589	127.0	-157459.0	-2378307.0	3476.0
29	17	16	6	590	128.0	-159892.0	-2378731.0	3966.0
29	17	16	6	590	129.0	-162603.0	-2379961.0	5312.0
29	17	16	6	591	130.0	-165672.0	-2380857.0	7931.0
29	17	16	6	592	131.0	-168976.0	-2381734.0	13155.0
29	17	16	6	592	132.0	-172548.0	-2382887.0	18208.0
29	17	16	6	593	133.0	-175937.0	-2383963.0	16607.0
29	17	16	6	594	134.0	-178748.0	-2384582.0	9527.0
29	17	16	6	594	135.0	-180704.0	-2385027.0	6202.0
29	17	16	6	595	144.0	-188209.0	-2388809.0	12606.0
29	17	16	6	596	145.0	-188280.0	-2388693.0	16996.0
29	17	16	6	596	146.0	-188096.0	-2387716.0	19538.0
29	17	16	6	597	147.0	-187639.0	-2387377.0	19093.0
29	17	16	6	598	148.0	-186999.0	-2388154.0	16223.0
29	17	16	6	598	149.0	-186359.0	-2394972.0	14281.0
29	17	16	6	599	150.0	-185857.0	-2398769.0	15427.0
29	17	16	6	630	151.0	-185314.0	-2399264.0	17072.0
29	17	16	6	631	152.0	-184684.0	-2400283.0	16319.0
29	17	16	6	632	153.0	-184118.0	-2402308.0	13309.0
29	17	16	6	633	154.0	-183801.0	-2403682.0	10119.0
29	17	16	6	634	155.0	-183434.0	-2403553.0	10454.0
29	17	16	6	634	156.0	-183121.0	-2403964.0	16660.0
29	17	16	6	635	157.0	-183148.0	-2404544.0	25009.0
29	17	16	6	636	158.0	-183129.0	-2404456.0	26855.0
29	17	16	6	637	159.0	-183109.0	-2403377.0	20237.0
29	17	16	6	637	160.0	-183249.0	-2402785.0	12538.0
29	17	16	6	638	161.0	-183608.0	-2403061.0	9967.0
29	17	16	6	638	162.0	-184396.0	-2403866.0	13399.0
29	17	16	6	639	163.0	-185738.0	-2404197.0	19201.0
29	17	16	6	675	164.0	-187420.0	-2404002.0	21469.0
29	17	16	6	676	165.0	-189236.0	-2403127.0	18680.0
29	17	16	6	676	167.0	-192509.0	-2400799.0	17177.0
29	17	16	6	677	168.0	-194166.0	-2400009.0	23378.0
29	17	16	6	678	169.0	-195715.0	-2400231.0	28983.0
29	17	16	6	679	170.0	-196936.0	-2400660.0	27036.0
29	17	16	6	679	171.0	-197896.0	-2400902.0	18651.0
29	17	16	6	680	172.0	-198817.0	-2401704.0	11905.0
29	17	16	6	681	173.0	-199704.0	-2405189.0	11371.0
29	17	16	6	682	174.0	-200116.0	-2410715.0	17263.0
29	17	16	6	682	175.0	-199921.0	-2412743.0	26941.0
29	17	16	6	683	176.0	-199516.0	-2416546.0	32669.0
29	17	16	6	684	177.0	-199235.0	-2418262.0	29043.0
29	17	16	6	684	178.0	-199013.0	-2420100.0	22669.0
29	17	16	6	685	179.0	-198411.0	-2422010.0	21729.0
29	17	16	6	686	180.0	-197924.0	-2423230.0	26908.0
29	17	16	6	686	190.0	-193295.0	-2432262.0	17133.0
29	17	16	6	687	191.0	-193351.0	-2432386.0	25112.0
29	17	16	6	688	192.0	-193442.0	-2433948.0	32567.0
29	17	16	6	688	193.0	-193581.0	-2435607.0	27531.0
29	17	16	6	689	194.0	-193807.0	-2436822.0	15515.0
29	17	16	6	689	195.0	-193687.0	-2437312.0	10092.0
29	17	16	6	720	196.0	-193702.0	-2439586.0	17241.0
29	17	16	6	721	197.0	-194244.0	-2450171.0	33917.0
29	17	16	6	722	198.0	-194936.0	-2454594.0	40493.0
29	17	16	6	723	199.0	-195187.0	-2452927.0	26399.0
29	17	16	6	724	200.0	-195101.0	-2450754.0	10549.0
29	17	16	6	724	201.0	-195455.0	-2455286.0	6295.0
29	17	16	6	725	202.0	-195852.0	-2460776.0	13393.0
29	17	16	6	726	203.0	-195761.0	-2462302.0	25651.0
29	17	16	6	727	204.0	-195615.0	-2463690.0	29099.0
29	17	16	6	728	205.0	-195582.0	-2465189.0	19717.0
29	17	16	6	729	206.0	-195332.0	-2466587.0	10351.0
29	17	16	6	730	207.0	-194731.0	-2467427.0	9553.0
29	17	16	6	731	208.0	-194128.0	-2468197.0	18691.0
29	17	16	6	731	209.0	-193604.0	-2471191.0	30718.0
29	17	16	6	732	210.0	-193253.0	-2478056.0	29276.0
29	17	16	6	732	212.0	-192587.0	-2479624.0	4397.0
29	17	16	6	733	213.0	-192416.0	-2479574.0	4179.0
29	17	16	6	734	214.0	-192439.0	-2482159.0	7486.0
29	17	16	6	734	215.0	-192562.0	-2489054.0	15646.0
29	17	16	6	735	216.0	-192879.0	-2490821.0	25413.0
29	17	16	6	735	217.0	-193444.0	-2491947.0	25617.0
29	17	16	6	765	218.0	-194157.0	-2493692.0	16297.0
29	17	16	6	766	219.0	-194838.0	-2494542.0	8476.0
29	17	16	6	767	220.0	-195389.0	-2496782.0	7830.0
29	17	16	6	767	221.0	-195704.0	-2500855.0	13859.0
29	17	16	6	768	222.0	-196087.0	-2499004.0	20474.0
29	17	16	6	769	223.0	-196371.0	-2487003.0	18654.0
29	17	16	6	770	224.0	-196481.0	-2485833.0	10368.0
29	17	16	6	770	225.0	-196632.0	-2487974.0	5505.0
29	17	16	6	771	226.0	-196897.0	-2488834.0	8124.0
29	17	16	6	772	227.0	-197266.0	-2489578.0	18228.0
29	17	16	6	772	228.0	-197383.0	-2493386.0	29625.0
29	17	16	6	773	229.0	-197713.0	-2507004.0	27911.0
29	17	16	6	774	230.0	-198069.0	-2510136.0	15395.0
29	17	16	6	774	231.0	-198346.0	-2508963.0	5997.0
29	17	16	6	775	232.0	-198767.0	-2510698.0	5119.0
29	17	16	6	776	234.0	-198876.0	-2515272.0	18844.0
29	17	16	6	776	235.0	-198487.0	-2515776.0	24296.0
29	17	16	6	777	236.0	-196344.0	-2516005.0	21697.0
29	17	16	6	778	237.0	-193742.0	-2516357.0	15147.0
29	17	16	6	778	238.0	-190200.0	-2515076.0	11628.0
29	17	16	6	779	239.0	-183321.0	-2514202.0	15129.0
29	17	16	6	779	240.0	-178586.0	-2514982.0	23149.0
29	17	16	6	810	241.0	-179187.0	-2515114.0	25081.0
29	17	16	6	811	242.0	-182722.0	-2515492.0	16184.0
29	17	16	6	812	243.0	-186704.0	-2516924.0	6447.0
29	17	16	6	812	244.0	-188369.0	-2516502.0	4292.0
29	17	16	6	813	245.0	-190143.0	-2515957.0	8654.0
29	17	16	6	814	246.0	-192373.0	-2515423.0	17931.0
29	17	16	6	815	247.0	-194065.0	-2514262.0	25155.0
29	17	16	6	815	248.0	-194937.0	-2512308.0	21357.0
29	17	16	6	816	249.0	-194925.0	-2511866.0	11073.0
29	17	16	6	817	250.0	-192446.0	-2512831.0	4680.0
29	17	16	6	818	251.0	-188184.0	-2513601.0	5094.0
29	17	16	6	819	252.0	-183587.0	-2513374.0	8747.0
29	17	16	6	819	253.0	-179544.0	-2513372.0	12292.0
29	17	16	6	820	254.0	-176783.0	-2513652.0	12544.0
29	17	16	6	821	255.0	-175054.0	-2513879.0	10423.0
29	17	16	6	821	1.0	-174219.0	-2515879.0	11204.0
29	17	16	6	822	2.0	-174876.0	-2516982.0	14453.0
29	17	16	6	823	3.0	-175777.0	-2518069.0	17240.0
29	17	16	6	823	4.0	-176797.0	-2518351.0	15344.0
29	17	16	6	824	5.0	-178124.0	-2518226.0	9058.0
29	17	16	6	824	6.0	-179530.0	-2517704.0	4069.0
29	17	16	6	854	7.0	-180659.0	-2505792.0	3316.0
29	17	16	6	855	8.0	-181992.0	-2499393.0	4216.0
29	17	16	6	856	9.0	-183489.0	-2498369.0	7407.0
29	17	16	6	856	10.0	-184663.0	-2496699.0	13038.0
29	17	16	6	857	11.0	-185672.0	-2496101.0	17533.0
29	17	16	6	858	12.0	-186751.0	-2497640.0	17544.0
29	17	16	6	859	13.0	-188120.0	-2498398.0	12626.0
29	17	16	6	859	14.0	-189644.0	-2499393.0	6949.0
29	17	16	6	860	15.0	-191440.0	-2499800.0	4644.0
29	17	16	6	861	16.0	-193195.0	-2500329.0	5122.0
29	17	16	6	861	17.0	-194867.0	-2500959.0	6483.0
29	17	16	6	862	18.0	-196472.0	-2500896.0	8586.0
29	17	16	6	863	19.0	-198000.0	-2500398.0	11067.0
29	17	16	6	863	20.0	-199488.0	-2502182.0	13141.0
29	17	16	6	864	21.0	-201124.0	-2504432.0	13564.0
29	17	16	6	865	23.0	-204016.0	-2504296.0	10931.0
29	17	16	6	865	24.0	-205019.0	-2504012.0	10456.0
29	17	16	6	866	25.0	-206077.0	-2503829.0	9269.0
29	17	16	6	867	26.0	-207105.0	-2503599.0	7013.0
29	17	16	6	867	27.0	-208041.0	-2503699.0	4995.0
29	17	16	6	868	28.0	-209117.0	-2503503.0	4732.0
29	17	16	6	869	29.0	-210172.0	-2502203.0	7200.0
29	17	16	6	900	30.0	-210978.0	-2500508.0	12241.0
29	17	16	6	900	31.0	-211811.0	-2500097.0	16266.0
29	17	16	6	901	32.0	-212752.0	-2500507.0	15783.0
29	17	16	6	902	33.0	-213339.0	-2499087.0	11514.0
29	17	16	6	903	34.0	-213314.0	-2497676.0	7098.0
29	17	16	6	904	35.0	-213406.0	-2497510.0	4989.0
29	17	16	6	904	36.0	-213368.0	-2499635.0	5409.0
29	17	16	6	905	37.0	-213356.0	-2499544.0	6717.0
29	17	16	6	906	38.0	-213031.0	-2495796.0	8268.0
29	17	16	6	907	39.0	-212459.0	-2493416.0	10685.0
29	17	16	6	907	40.0	-211770.0	-2494017.0	13273.0
29	17	16	6	908	41.0	-210997.0	-2494208.0	14137.0
29	17	16	6	909	42.0	-209982.0	-2492942.0	13264.0
29	17	16	6	909	43.0	-208857.0	-2492118.0	12191.0
29	17	16	6	910	44.0	-207825.0	-2493630.0	11634.0
29	17	16	6	911	46.0	-205439.0	-2492626.0	8126.0
29	17	16	6	911	47.0	-204337.0	-2490422.0	5873.0
29	17	16	6	912	48.0	-203281.0	-2488362.0	5281.0
29	17	16	6	912	49.0	-201964.0	-2487092.0	8728.0
29	17	16	6	913	50.0	-200644.0	-2488371.0	15205.0
29	17	16	6	914	51.0	-199497.0	-2488304.0	19671.0
29	17	16	6	945	52.0	-198317.0	-2487182.0	17793.0
29	17	16	6	946	53.0	-197164.0	-2485951.0	10904.0
29	17	16	6	956	54.0	-195979.0	-2485491.0	5291.0
29	17	16	6	956	55.0	-194866.0	-2484854.0	4895.0
29	17	16	6	957	56.0	-194085.0	-2483977.0	7979.0
29	17	16	6	957	57.0	-193606.0	-2485074.0	10691.0
29	17	16	6	958	58.0	-193237.0	-2486576.0	11029.0
29	17	16	6	958	59.0	-192881.0	-2479269.0	9805.0
29	17	16	6	959	60.0	-192854.0	-2468021.0	9104.0
29	17	16	6	959	61.0	-192973.0	-2468706.0	10978.0
29	17	16	6	960	62.0	-193267.0	-2472527.0	13989.0
29	17	16	6	960	63.0	-193718.0	-2467296.0	15252.0
29	17	16	6	961	64.0	-194511.0	-2452780.0	13124.0
29	17	16	6	962	65.0	-195441.0	-2450632.0	7812.0
29	17	16	6	962	66.0	-196499.0	-2450527.0	3219.0
29	17	16	6	963	68.0	-198542.0	-2450804.0	4568.0
29	17	16	6	963	69.0	-199757.0	-2450321.0	8095.0
29	17	16	6	964	70.0	-200920.0	-2449790.0	13584.0
29	17	16	6	964	71.0	-201712.0	-2448542.0	16360.0
29	17	16	6	965	72.0	-202334.0	-2446984.0	13423.0
29	17	16	6	965	73.0	-203131.0	-2446124.0	8187.0
29	17	16	6	989	74.0	-204073.0	-2446934.0	4867.0
29	17	16	6	990	75.0	-204923.0	-2446699.0	4603.0
29	17	16	6	990	76.0	-205574.0	-2445888.0	6194.0
29	17	16	6	991	77.0	-206059.0	-2442767.0	7449.0
29	17	16	6	991	78.0	-206373.0	-2440649.0	7756.0
29	17	16	6	992	79.0	-206295.0	-2439977.0	8531.0
29	17	16	6	993	80.0	-206061.0	-2439531.0	11040.0
29	17	16	6	993	81.0	-205771.0	-2439898.0	13771.0
29	17	16	6	994	82.0	-205222.0	-2440198.0	14176.0
29	17	16	6	994	83.0	-204418.0	-2439833.0	11821.0
29	17	16	6	995	84.0	-203485.0	-2439642.0	8818.0
29	17	16	6	996	85.0	-202574.0	-2435532.0	6441.0
29	17	16	6	996	86.0	-201532.0	-2431730.0	5329.0
29	17	16	6	997	87.0	-200626.0	-2433334.0	5683.0
29	17	16	6	997	88.0	-200046.0	-2434874.0	7731.0
29	17	16	6	998	91.0	-200797.0	-2433834.0	17092.0
29	17	16	6	999	92.0	-200369.0	-2435375.0	13204.0
29	17	16	7	6	93.0	-199370.0	-2435525.0	9419.0
29	17	16	7	7	94.0	-197936.0	-2433057.0	7876.0
29	17	16	7	8	95.0	-196237.0	-2427742.0	8120.0
29	17	16	7	8	96.0	-194362.0	-2427535.0	8733.0
29	17	16	7	33	97.0	-192189.0	-2427703.0	7925.0
29	17	16	7	34	98.0	-190251.0	-2426753.0	7326.0
29	17	16	7	55	99.0	-188685.0	-2427160.0	9372.0
29	17	16	7	55	100.0	-187269.0	-2428741.0	13336.0
29	17	16	7	56	101.0	-186361.0	-2428676.0	17316.0
29	17	16	7	56	102.0	-185801.0	-2417721.0	17669.0
29	17	16	7	57	103.0	-185798.0	-2406573.0	12948.0
29	17	16	7	58	104.0	-186299.0	-2405603.0	7917.0
29	17	16	7	58	105.0	-187102.0	-2405602.0	5553.0
29	17	16	7	59	106.0	-188216.0	-2405849.0	6136.0
29	17	16	7	59	107.0	-189537.0	-2405788.0	9099.0
29	17	16	7	60	108.0	-190973.0	-2406022.0	12433.0
29	17	16	7	60	109.0	-192440.0	-2406627.0	14091.0
29	17	16	7	61	110.0	-194034.0	-2406135.0	14126.0
29	17	16	7	62	111.0	-195617.0	-2405554.0	13359.0
29	17	16	7	62	113.0	-198147.0	-2395338.0	12989.0
29	17	16	7	63	114.0	-198884.0	-2395244.0	13783.0
29	17	16	7	63	115.0	-199236.0	-2400680.0	12259.0
29	17	16	7	64	116.0	-199397.0	-2404251.0	8569.0
29	17	16	7	64	117.0	-199343.0	-2403951.0	4974.0
29	17	16	7	65	118.0	-199264.0	-2404066.0	5157.0
29	17	16	7	65	119.0	-198747.0	-2404620.0	11223.0
29	17	16	7	79	120.0	-197877.0	-2404906.0	20109.0
29	17	16	7	80	121.0	-197041.0	-2405327.0	22581.0
29	17	16	7	80	122.0	-196279.0	-2404974.0	15544.0
29	17	16	7	81	123.0	-195399.0	-2403332.0	7257.0
29	17	16	7	82	124.0	-194496.0	-2402839.0	4363.0
29	17	16	7	82	125.0	-193504.0	-2401849.0	7380.0
29	17	16	7	83	126.0	-192670.0	-2400542.0	12942.0
29	17	16	7	124	127.0	-191889.0	-2400269.0	15178.0
29	17	16	7	125	128.0	-191084.0	-2400326.0	12159.0
29	17	16	7	126	129.0	-190233.0	-2399966.0	8718.0
29	17	16	7	126	130.0	-189446.0	-2397319.0	9795.0
29	17	16	7	127	131.0	-189056.0	-2395282.0	15566.0
29	17	16	7	128	132.0	-188426.0	-2400536.0	21292.0
29	17	16	7	128	133.0	-187977.0	-2401344.0	20335.0
29	17	16	7	129	134.0	-187749.0	-2393446.0	12438.0
29	17	16	7	129	135.0	-187514.0	-2389774.0	4426.0
29	17	16	7	130	136.0	-187313.0	-2389561.0	2626.0
29	17	16	7	130	137.0	-187096.0	-2389468.0	5228.0
29	17	16	7	131	138.0	-186867.0	-2389561.0	11592.0
29	17	16	7	132	139.0	-186684.0	-2389543.0	19748.0
29	17	16	7	170	140.0	-186726.0	-2389292.0	22239.0
29	17	16	7	170	141.0	-186990.0	-2388392.0	16561.0
29	17	16	7	171	142.0	-187309.0	-2387255.0	10135.0
29	17	16	7	172	158.0	-198303.0	-2405320.0	19023.0
29	17	16	7	172	159.0	-198940.0	-2405116.0	13220.0
29	17	16	7	173	160.0	-198972.0	-2405175.0	9642.0
29	17	16	7	173	161.0	-200140.0	-2405319.0	12083.0
29	17	16	7	174	162.0	-200572.0	-2405791.0	20093.0
29	17	16	7	174	163.0	-201065.0	-2406401.0	25209.0
29	17	16	7	175	164.0	-200987.0	-2407603.0	19022.0
29	17	16	7	176	165.0	-200614.0	-2409044.0	7844.0
29	17	16	7	176	166.0	-199900.0	-2408477.0	2252.0
29	17	16	7	177	167.0	-199338.0	-2406589.0	4357.0
29	17	16	7	177	168.0	-198596.0	-2406885.0	13257.0
29	17	16	7	178	169.0	-197766.0	-2408389.0	26651.0
29	17	16	7	179	170.0	-197067.0	-2405291.0	30589.0
29	17	16	7	179	181.0	-195799.0	-2413402.0	38549.0
29	17	16	7	180	182.0	-195349.0	-2424539.0	26179.0
29	17	16	7	180	183.0	-194916.0	-2426377.0	9034.0
29	17	16	7	181	184.0	-194543.0	-2426355.0	3439.0
29	17	16	7	181	185.0	-194003.0	-2427612.0	11263.0
29	17	16	7	182	186.0	-193134.0	-2427376.0	27031.0
29	17	16	7	261	187.0	-192217.0	-2425920.0	32220.0
29	17	16	7	261	188.0	-191455.0	-2425558.0	20119.0
29	17	16	7	262	189.0	-190617.0	-2424637.0	8016.0
29	17	16	7	263	190.0	-189542.0	-2423175.0	7384.0
29	17	16	7	263	191.0	-188740.0	-2422138.0	20989.0
29	17	16	7	264	192.0	-188117.0	-2421269.0	37836.0
29	17	16	7	265	193.0	-187680.0	-2420565.0	33556.0
29	17	16	7	265	194.0	-187376.0	-2420199.0	14528.0
29	17	16	7	266	195.0	-187576.0	-2419629.0	2861.0
29	17	16	7	266	196.0	-188431.0	-2418732.0	3503.0
29	17	16	7	267	197.0	-190054.0	-2418288.0	13779.0
29	17	16	7	268	198.0	-192577.0	-2418789.0	30189.0
29	17	16	7	268	199.0	-195825.0	-2418991.0	37978.0
29	17	16	7	269	200.0	-199734.0	-2418660.0	30328.0
29	17	16	7	269	201.0	-203953.0	-2418163.0	21935.0
29	17	16	7	270	225.0	-207315.0	-2416420.0	9206.0
29	17	16	7	271	226.0	-212742.0	-2417233.0	4528.0
29	17	16	7	271	227.0	-216539.0	-2418242.0	15679.0
29	17	16	7	272	228.0	-219220.0	-2419227.0	38116.0
29	17	16	7	272	229.0	-219951.0	-2419726.0	44083.0
29	17	16	7	273	230.0	-217400.0	-2419445.0	24378.0
29	17	16	7	273	231.0	-211866.0	-2419371.0	8274.0
29	17	16	7	304	232.0	-205117.0	-2420226.0	9861.0
29	17	16	7	305	233.0	-199694.0	-2423572.0	27981.0
29	17	16	7	306	234.0	-198511.0	-2424706.0	41973.0
29	17	16	7	306	235.0	-203524.0	-2420725.0	28015.0
29	17	16	7	307	236.0	-215671.0	-2418233.0	6626.0
29	17	16	7	307	237.0	-232630.0	-2419919.0	1209.0
29	17	16	7	308	238.0	-247169.0	-2422149.0	12188.0
29	17	16	7	309	239.0	-257494.0	-2421894.0	37217.0
29	17	16	7	309	240.0	-261021.0	-2421178.0	47939.0
29	17	16	7	310	241.0	-258692.0	-2422122.0	27110.0
29	17	16	7	310	242.0	-251851.0	-2422786.0	7292.0
29	17	16	7	311	243.0	-242563.0	-2422041.0	6764.0
29	17	16	7	312	244.0	-232672.0	-2421209.0	25503.0
29	17	16	7	312	245.0	-223157.0	-2425779.0	44508.0
29	17	16	7	313	246.0	-214243.0	-2434124.0	33004.0
29	17	16	7	313	248.0	-199665.0	-2436181.0	2724.0
29	17	16	7	314	249.0	-194348.0	-2437279.0	16965.0
29	17	16	7	350	250.0	-190668.0	-2440209.0	46542.0
29	17	16	7	351	251.0	-188646.0	-2442696.0	49779.0
29	17	16	7	351	252.0	-187913.0	-2443894.0	21842.0
29	17	16	7	352	253.0	-188177.0	-2446338.0	3914.0
29	17	16	7	353	254.0	-188301.0	-2447757.0	6541.0
29	17	16	7	353	255.0	-186774.0	-2449502.0	26896.0
29	17	16	7	354	0.0	-183149.0	-2450765.0	43994.0
29	17	16	7	355	1.0	-178216.0	-2451483.0	30202.0
29	17	16	7	355	2.0	-173376.0	-2452925.0	9222.0
29	17	16	7	356	3.0	-169129.0	-2453990.0	4766.0
29	17	16	7	356	4.0	-164576.0	-2454000.0	21541.0
29	17	16	7	357	5.0	-158797.0	-2454587.0	48635.0
29	17	16	7	358	6.0	-151862.0	-2455025.0	44393.0
29	17	16	7	359	7.0	-144719.0	-2455310.0	16226.0
29	17	16	7	359	8.0	-138387.0	-2457281.0	1574.0
29	17	16	7	360	14.0	-131572.0	-2462255.0	4110.0
29	17	16	7	361	15.0	-133526.0	-2462582.0	15409.0
29	17	16	7	361	16.0	-136377.0	-2463825.0	38128.0
29	17	16	7	362	17.0	-140321.0	-2466145.0	39896.0
29	17	16	7	362	18.0	-144856.0	-2467076.0	16061.0
29	17	16	7	363	19.0	-149711.0	-2467127.0	493.0
29	17	16	7	364	20.0	-154924.0	-2457931.0	749.0
29	17	16	7	394	21.0	-160201.0	-2448353.0	10604.0
29	17	16	7	395	22.0	-165432.0	-2448839.0	31016.0
29	17	16	7	395	23.0	-170524.0	-2452211.0	40625.0
29	17	16	7	396	24.0	-175676.0	-2453582.0	24770.0
29	17	16	7	397	25.0	-180749.0	-2453840.0	8564.0
29	17	16	7	397	26.0	-185541.0	-2454161.0	6828.0
29	17	16	7	398	27.0	-189927.0	-2454232.0	20513.0
29	17	16	7	398	28.0	-194209.0	-2454761.0	37427.0
29	17	16	7	399	29.0	-197857.0	-2455710.0	30803.0
29	17	16	7	400	30.0	-200444.0	-2456271.0	9860.0
29	17	16	7	400	31.0	-201910.0	-2456920.0	844.0
29	17	16	7	401	32.0	-202788.0	-2457749.0	9324.0
29	17	16	7	402	33.0	-203042.0	-2458617.0	34464.0
29	17	16	7	402	34.0	-202610.0	-2460746.0	49416.0
29	17	16	7	403	35.0	-201586.0	-2472552.0	28988.0
29	17	16	7	403	37.0	-198235.0	-2490866.0	3436.0
29	17	16	7	404	38.0	-195624.0	-2495827.0	19022.0
29	17	16	7	404	39.0	-192916.0	-2496844.0	41069.0
29	17	16	7	405	40.0	-190203.0	-2500184.0	36433.0
29	17	16	7	406	41.0	-187214.0	-2501302.0	12953.0
29	17	16	7	440	42.0	-184064.0	-2500952.0	2279.0
29	17	16	7	440	43.0	-180896.0	-2501263.0	13289.0
29	17	16	7	441	44.0	-177947.0	-2502215.0	43021.0
29	17	16	7	442	45.0	-174986.0	-2502530.0	52753.0
29	17	16	7	442	46.0	-172445.0	-2501540.0	25751.0
29	17	16	7	443	47.0	-170563.0	-2500643.0	4252.0
29	17	16	7	444	48.0	-169232.0	-2500951.0	4071.0
29	17	16	7	444	49.0	-168121.0	-2501162.0	24253.0
29	17	16	7	445	50.0	-167559.0	-2501677.0	47116.0
29	17	16	7	446	51.0	-167536.0	-2501916.0	36768.0
29	17	16	7	446	52.0	-167732.0	-2501844.0	12983.0
29	17	16	7	447	53.0	-168109.0	-2501177.0	6401.0
29	17	16	7	447	54.0	-168459.0	-2500041.0	23539.0
29	17	16	7	448	55.0	-169207.0	-2495064.0	52639.0
29	17	16	7	449	56.0	-170311.0	-2484781.0	48366.0
29	17	16	7	449	57.0	-171562.0	-2484199.0	19201.0
29	17	16	7	450	59.0	-175030.0	-2485157.0	11755.0
29	17	16	7	450	60.0	-177203.0	-2485663.0	38109.0
29	17	16	7	451	61.0	-179657.0	-2485691.0	50291.0
29	17	16	7	452	62.0	-182309.0	-2488374.0	29981.0
29	17	16	7	452	63.0	-185137.0	-2494128.0	12251.0
29	17	16	7	453	64.0	-188108.0	-2495147.0	15971.0
29	17	16	7	453	65.0	-191023.0	-2495411.0	41467.0
29	17	16	7	484	66.0	-193792.0	-2496707.0	55844.0
29	17	16	7	485	67.0	-196147.0	-2496531.0	33644.0
29	17	16	7	486	68.0	-198144.0	-2500239.0	11127.0
29	17	16	7	487	69.0	-200009.0	-2507833.0	9876.0
29	17	16	7	487	70.0	-201668.0	-2508926.0	30841.0
29	17	16	7	488	71.0	-203021.0	-2509566.0	54748.0
29	17	16	7	489	72.0	-204042.0	-2509550.0	43721.0
29	17	16	7	489	73.0	-204585.0	-2508822.0	20025.0
29	17	16	7	490	74.0	-204761.0	-2507066.0	15999.0
29	17	16	7	491	75.0	-204795.0	-2503920.0	37204.0
29	17	16	7	491	76.0	-204427.0	-2502209.0	58594.0
29	17	16	7	492	77.0	-203848.0	-2501284.0	42314.0
29	17	16	7	492	78.0	-203395.0	-2500444.0	15526.0
29	17	16	7	493	79.0	-202743.0	-2498807.0	8803.0
29	17	16	7	494	80.0	-201866.0	-2499822.0	26514.0
29	17	16	7	494	82.0	-199895.0	-2500329.0	47853.0
29	17	16	7	495	83.0	-198756.0	-2500894.0	22693.0
29	17	16	7	495	84.0	-197569.0	-2500988.0	13696.0
29	17	16	7	496	85.0	-196451.0	-2500942.0	30092.0
29	17	16	7	497	86.0	-195336.0	-2500421.0	56599.0
29	17	16	7	497	87.0	-194236.0	-2501099.0	47444.0
29	17	16	7	529	88.0	-193046.0	-2501568.0	17146.0
29	17	16	7	530	89.0	-191889.0	-2498712.0	4376.0
29	17	16	7	530	90.0	-190951.0	-2498164.0	15867.0
29	17	16	7	531	91.0	-190076.0	-2498696.0	46867.0
29	17	16	7	532	92.0	-189296.0	-2498945.0	54698.0
29	17	16	7	533	93.0	-188747.0	-2499166.0	26688.0
29	17	16	7	533	94.0	-188501.0	-2499704.0	8233.0
29	17	16	7	534	95.0	-188371.0	-2500925.0	15809.0
29	17	16	7	534	96.0	-188237.0	-2502242.0	45758.0
29	17	16	7	535	97.0	-188331.0	-2504079.0	54750.0
29	17	16	7	536	98.0	-188652.0	-2506180.0	24907.0
29	17	16	7	536	99.0	-188886.0	-2509441.0	2933.0
29	17	16	7	575	100.0	-188897.0	-2510527.0	4960.0
29	17	16	7	575	101.0	-188727.0	-2510187.0	32354.0
29	17	16	7	576	102.0	-188543.0	-2509965.0	59420.0
29	17	16	7	577	104.0	-188535.0	-2508471.0	11303.0
29	17	16	7	578	105.0	-188552.0	-2513369.0	7016.0
29	17	16	7	578	106.0	-188577.0	-2518492.0	33086.0
29	17	16	7	579	107.0	-188597.0	-2518913.0	62619.0
29	17	16	7	580	108.0	-188501.0	-2518421.0	40934.0
29	17	16	7	580	109.0	-188080.0	-2517028.0	8076.0
29	17	16	7	581	110.0	-187519.0	-2515519.0	316.0
29	17	16	7	581	111.0	-186818.0	-2515393.0	20241.0
29	17	16	7	582	112.0	-185889.0	-2515219.0	59732.0
29	17	16	7	583	113.0	-184696.0	-2517801.0	55513.0
29	17	16	7	583	114.0	-183677.0	-2517872.0	18010.0
29	17	16	7	584	115.0	-182766.0	-2517027.0	3288.0
29	17	16	7	585	116.0	-182246.0	-2514763.0	19713.0
29	17	16	7	585	127.0	-203700.0	-2494052.0	61398.0
29	17	16	7	586	128.0	-194476.0	-2493211.0	62476.0
29	17	16	7	586	129.0	-184992.0	-2491253.0	19920.0
29	17	16	7	587	130.0	-182676.0	-2487199.0	558.0
29	17	16	7	588	131.0	-184879.0	-2483714.0	14476.0
29	17	16	7	588	132.0	-186987.0	-2482220.0	60226.0
29	17	16	7	626	133.0	-187364.0	-2480943.0	68683.0
29	17	16	7	626	134.0	-187871.0	-2478769.0	25727.0
29	17	16	7	627	135.0	-189011.0	-2476689.0	3889.0
29	17	16	7	628	136.0	-190096.0	-2471612.0	16584.0
29	17	16	7	628	137.0	-191500.0	-2469962.0	56006.0
29	17	16	7	629	138.0	-192987.0	-2469791.0	58219.0
29	17	16	7	630	139.0	-192553.0	-2468125.0	19364.0
29	17	16	7	630	140.0	-189961.0	-2466936.0	-438.0
29	17	16	7	631	141.0	-186931.0	-2466290.0	10573.0
29	17	16	7	632	142.0	-184696.0	-2469546.0	52573.0
29	17	16	7	632	143.0	-183735.0	-2472142.0	68489.0
29	17	16	7	633	144.0	-184377.0	-2470681.0	29159.0
29	17	16	7	633	145.0	-186027.0	-2469531.0	4180.0
29	17	16	7	634	146.0	-188052.0	-2469236.0	12598.0
29	17	16	7	635	147.0	-190345.0	-2469241.0	51173.0
29	17	16	7	635	149.0	-194470.0	-2468557.0	23904.0
29	17	16	7	636	150.0	-196180.0	-2467939.0	281.0
29	17	16	7	636	151.0	-197841.0	-2468581.0	7615.0
29	17	16	7	637	152.0	-199096.0	-2469692.0	48960.0
29	17	16	7	637	153.0	-200011.0	-2469507.0	71550.0
29	17	16	7	638	154.0	-200617.0	-2468357.0	32549.0
29	17	16	7	665	155.0	-200528.0	-2467462.0	4307.0
29	17	16	7	666	156.0	-199864.0	-2466314.0	9945.0
29	17	16	7	667	157.0	-198550.0	-2463241.0	47296.0
29	17	16	7	667	158.0	-196507.0	-2463316.0	64129.0
29	17	16	7	668	159.0	-194329.0	-2463034.0	27122.0
29	17	16	7	710	160.0	-192321.0	-2462218.0	64.0
29	17	16	7	734	161.0	-190996.0	-2461703.0	4235.0
29	17	16	7	734	162.0	-189938.0	-2460756.0	40630.0
29	17	16	7	735	163.0	-189270.0	-2456452.0	68858.0
29	17	16	7	736	164.0	-189108.0	-2454692.0	36661.0
29	17	16	7	736	165.0	-189454.0	-2455006.0	5502.0
29	17	16	7	737	166.0	-190670.0	-2456776.0	4527.0
29	17	16	7	738	167.0	-192442.0	-2459180.0	34110.0
29	17	16	7	738	168.0	-194479.0	-2459669.0	59320.0
29	17	16	7	739	169.0	-196531.0	-2459696.0	32995.0
29	17	16	7	739	171.0	-200672.0	-2452885.0	43.0
29	17	16	7	740	172.0	-202509.0	-2450500.0	25591.0
29	17	16	7	740	173.0	-204006.0	-2450986.0	62031.0
29	17	16	7	741	174.0	-205099.0	-2451213.0	46839.0
29	17	16	7	742	175.0	-205741.0	-2450526.0	11111.0
29	17	16	7	742	194.0	-208708.0	-2437957.0	62562.0
29	17	16	7	743	195.0	-208647.0	-2437934.0	30920.0
29	17	16	7	743	196.0	-208286.0	-2437044.0	2758.0
29	17	16	7	744	197.0	-208227.0	-2433896.0	1858.0
29	17	16	7	744	198.0	-208036.0	-2433410.0	27166.0
29	17	16	7	745	199.0	-207464.0	-2434141.0	52996.0
29	17	16	7	800	200.0	-206857.0	-2433436.0	34036.0
29	17	16	7	801	201.0	-206085.0	-2432192.0	5409.0
29	17	16	7	801	202.0	-205320.0	-2430573.0	736.0
29	17	16	7	802	203.0	-204665.0	-2428791.0	25056.0
29	17	16	7	803	204.0	-204172.0	-2427980.0	59993.0
29	17	16	7	803	205.0	-203646.0	-2425148.0	45558.0
29	17	16	7	804	206.0	-203131.0	-2423059.0	9721.0
29	17	16	7	805	207.0	-202833.0	-2422470.0	-2411.0
29	17	16	7	805	208.0	-202519.0	-2423484.0	12222.0
29	17	16	7	806	209.0	-202318.0	-2429257.0	44381.0
29	17	16	7	807	210.0	-202457.0	-2430280.0	46579.0
29	17	16	7	807	211.0	-202616.0	-2428787.0	16382.0
29	17	16	7	808	212.0	-202522.0	-2427659.0	159.0
29	17	16	7	808	213.0	-202712.0	-2425586.0	11765.0
29	17	16	7	809	214.0	-203147.0	-2422376.0	49272.0
29	17	16	7	810	239.0	-186461.0	-2359478.0	9551.0
29	17	16	7	810	240.0	-186350.0	-2357541.0	40497.0
29	17	16	7	811	241.0	-186304.0	-2357934.0	51522.0
29	17	16	7	812	242.0	-186189.0	-2357518.0	25368.0
29	17	16	7	812	243.0	-186225.0	-2356811.0	6243.0
29	17	16	7	813	244.0	-186186.0	-2355587.0	12819.0
29	17	16	7	844	245.0	-186082.0	-2351829.0	43646.0
29	17	16	7	845	246.0	-186067.0	-2351174.0	54757.0
29	17	16	7	846	247.0	-186064.0	-2350056.0	24523.0
29	17	16	7	846	248.0	-186051.0	-2347616.0	1876.0
29	17	16	7	847	249.0	-186121.0	-2347002.0	5303.0
29	17	16	7	848	250.0	-186225.0	-2347477.0	34591.0
29	17	16	7	849	251.0	-186317.0	-2348123.0	56842.0
29	17	16	7	849	252.0	-186395.0	-2347634.0	33827.0
29	17	16	7	850	253.0	-186557.0	-2347124.0	8084.0
29	17	16	7	851	254.0	-186711.0	-2347332.0	8923.0
29	17	16	7	851	255.0	-186924.0	-2346879.0	37801.0
29	17	16	7	852	0.0	-186944.0	-2345936.0	58259.0
29	17	16	7	853	1.0	-186934.0	-2345413.0	32079.0
29	17	16	7	853	2.0	-186904.0	-2345174.0	4331.0
29	17	16	7	854	3.0	-186779.0	-2345053.0	872.0
29	17	16	7	855	5.0	-187441.0	-2344079.0	57709.0
29	17	16	7	855	6.0	-187418.0	-2341628.0	43253.0
29	17	16	7	856	7.0	-187199.0	-2339060.0	11304.0
29	17	16	7	856	8.0	-187478.0	-2337193.0	4324.0
29	17	16	7	857	9.0	-187964.0	-2335989.0	28208.0
29	17	16	7	858	10.0	-188619.0	-2336042.0	59473.0
29	17	16	7	858	11.0	-189306.0	-2336044.0	40898.0
29	17	16	7	889	12.0	-190142.0	-2336067.0	7391.0
29	17	16	7	890	13.0	-191055.0	-2336784.0	-1210.0
29	17	16	7	890	14.0	-192166.0	-2335938.0	19018.0
29	17	16	7	891	15.0	-193177.0	-2334886.0	56232.0
29	17	16	7	899	16.0	-193887.0	-2331772.0	50270.0
29	17	16	7	900	17.0	-194624.0	-2327719.0	14431.0
29	17	16	7	901	18.0	-195356.0	-2326927.0	980.0
29	17	16	7	902	19.0	-195871.0	-2327430.0	20074.0
29	17	16	7	902	20.0	-196229.0	-2330153.0	57684.0
29	17	16	7	903	21.0	-196702.0	-2333769.0	48446.0
29	17	16	7	904	22.0	-197161.0	-2334660.0	10319.0
29	17	16	7	904	23.0	-197722.0	-2335441.0	-4319.0
29	17	16	7	905	24.0	-198242.0	-2335348.0	10331.0
29	17	16	7	905	25.0	-198351.0	-2334274.0	51209.0
29	17	16	7	906	26.0	-198433.0	-2326809.0	58717.0
29	17	16	7	907	28.0	-199176.0	-2314951.0	-500.0
29	17	16	7	907	29.0	-199405.0	-2313891.0	10975.0
29	17	16	7	908	30.0	-199299.0	-2313437.0	50661.0
29	17	16	7	908	31.0	-199359.0	-2311802.0	56564.0
29	17	16	7	934	32.0	-199456.0	-2308732.0	17499.0
29	17	16	7	935	33.0	-199309.0	-2308066.0	-4031.0
29	17	16	7	936	34.0	-198957.0	-2308259.0	3780.0
29	17	16	7	937	35.0	-198732.0	-2307916.0	42150.0
29	17	16	7	938	36.0	-198526.0	-2306713.0	65218.0
29	17	16	7	938	37.0	-198329.0	-2302717.0	29656.0
29	17	16	7	939	38.0	-197933.0	-2301552.0	940.0
29	17	16	7	940	39.0	-197344.0	-2300897.0	5063.0
29	17	16	7	941	40.0	-196931.0	-2301715.0	41527.0
29	17	16	7	942	41.0	-196692.0	-2303332.0	61769.0
29	17	16	7	942	42.0	-196237.0	-2304602.0	26803.0
29	17	16	7	943	43.0	-195656.0	-2307274.0	-2102.0
29	17	16	7	944	44.0	-195219.0	-2309881.0	-681.0
29	17	16	7	945	45.0	-194851.0	-2310210.0	33471.0
29	17	16	7	945	46.0	-194306.0	-2310396.0	67398.0
29	17	16	7	946	47.0	-193757.0	-2309732.0	39135.0
29	17	16	7	947	51.0	-191284.0	-2293823.0	64606.0
29	17	16	7	947	52.0	-190599.0	-2295289.0	33915.0
29	17	16	7	948	53.0	-190162.0	-2295201.0	936.0
29	17	16	7	949	54.0	-189822.0	-2295021.0	-270.0
29	17	16	7	949	55.0	-189411.0	-2295327.0	35348.0
29	17	16	7	950	56.0	-188812.0	-2294949.0	72565.0
29	17	16	7	980	57.0	-188293.0	-2293346.0	41146.0
29	17	16	7	981	58.0	-187963.0	-2292109.0	5236.0
29	17	16	7	982	59.0	-187704.0	-2291207.0	5148.0
29	17	16	7	983	60.0	-187376.0	-2291176.0	41759.0
29	17	16	8	25	61.0	-187126.0	-2291740.0	65472.0
29	17	16	8	26	62.0	-186967.0	-2293266.0	29498.0
29	17	16	8	27	63.0	-186982.0	-2293622.0	-871.0
29	17	16	8	27	64.0	-187087.0	-2292103.0	1685.0
29	17	16	8	28	65.0	-187202.0	-2291491.0	41563.0
29	17	16	8	29	66.0	-187229.0	-2290219.0	72588.0
29	17	16	8	30	67.0	-187578.0	-2288556.0	35988.0
29	17	16	8	30	68.0	-188125.0	-2287911.0	3417.0
29	17	16	8	31	69.0	-188564.0	-2287021.0	7439.0
29	17	16	8	32	70.0	-189071.0	-2287270.0	47379.0
29	17	16	8	32	71.0	-189740.0	-2286963.0	64567.0
29	17	16	8	33	73.0	-190874.0	-2285813.0	-1929.0
29	17	16	8	34	74.0	-191537.0	-2285677.0	4684.0
29	17	16	8	34	75.0	-192192.0	-2285439.0	49336.0
29	17	16	8	35	76.0	-192768.0	-2285655.0	71461.0
29	17	16	8	36	77.0	-193316.0	-2285772.0	28774.0
29	17	16	8	36	95.0	-195378.0	-2233488.0	60696.0
29	17	16	8	37	96.0	-195368.0	-2232487.0	61400.0
29	17	16	8	38	97.0	-195589.0	-2230549.0	17164.0
29	17	16	8	38	98.0	-196102.0	-2230311.0	204.0
29	17	16	8	39	99.0	-197053.0	-2231200.0	21502.0
29	17	16	8	39	100.0	-198738.0	-2231912.0	65767.0
29	17	16	8	40	101.0	-201388.0	-2232581.0	53826.0
29	17	16	8	70	102.0	-204914.0	-2233204.0	13029.0
29	17	16	8	71	103.0	-208959.0	-2233494.0	5505.0
29	17	16	8	71	104.0	-213498.0	-2234618.0	45353.0
29	17	16	8	72	105.0	-218209.0	-2235669.0	87524.0
29	17	16	8	73	106.0	-222556.0	-2235769.0	49844.0
29	17	16	8	74	107.0	-226191.0	-2235327.0	11909.0
29	17	16	8	74	108.0	-229044.0	-2234614.0	14741.0
29	17	16	8	75	109.0	-230424.0	-2235048.0	51203.0
29	17	16	8	76	110.0	-229361.0	-2236492.0	59888.0
29	17	16	8	76	111.0	-225425.0	-2236287.0	18041.0
29	17	16	8	77	112.0	-218696.0	-2236411.0	-7521.0
29	17	16	8	78	113.0	-209801.0	-2236952.0	-4762.0
29	17	16	8	78	114.0	-199884.0	-2233456.0	26765.0
29	17	16	8	79	115.0	-190329.0	-2221787.0	72530.0
29	17	16	8	80	116.0	-182639.0	-2219844.0	52494.0
29	17	16	8	80	118.0	-176862.0	-2217782.0	10949.0
29	17	16	8	81	119.0	-179391.0	-2206572.0	49700.0
29	17	16	8	82	120.0	-184993.0	-2204673.0	70908.0
29	17	16	8	82	121.0	-192337.0	-2205559.0	31238.0
29	17	16	8	83	122.0	-199854.0	-2205034.0	2357.0
29	17	16	8	83	123.0	-205698.0	-2205575.0	9305.0
29	17	16	8	160	124.0	-207791.0	-2207267.0	50004.0
29	17	16	8	161	125.0	-208689.0	-2207964.0	65723.0
29	17	16	8	162	126.0	-209672.0	-2208265.0	28227.0
29	17	16	8	162	127.0	-208994.0	-2209555.0	4848.0
29	17	16	8	163	128.0	-205614.0	-2211402.0	18136.0
29	17	16	8	164	129.0	-198865.0	-2214775.0	58379.0
29	17	16	8	165	130.0	-190962.0	-2217454.0	56746.0
29	17	16	8	165	131.0	-184256.0	-2219996.0	16654.0
29	17	16	8	166	132.0	-180260.0	-2222029.0	-1235.0
29	17	16	8	167	133.0	-179512.0	-2221562.0	11484.0
29	17	16	8	167	134.0	-181720.0	-2222326.0	49658.0
29	17	16	8	168	135.0	-185859.0	-2222707.0	55733.0
29	17	16	8	169	136.0	-191470.0	-2222062.0	20708.0
29	17	16	8	169	137.0	-198641.0	-2221618.0	3098.0
29	17	16	8	170	138.0	-206895.0	-2221475.0	19184.0
29	17	16	8	171	162.0	-169255.0	-2217006.0	-2775.0
29	17	16	8	171	163.0	-167977.0	-2216380.0	18011.0
29	17	16	8	172	164.0	-166280.0	-2214763.0	54073.0
29	17	16	8	173	165.0	-164557.0	-2213815.0	46289.0
29	17	16	8	173	166.0	-162764.0	-2213564.0	12414.0
29	17	16	8	174	167.0	-161119.0	-2213907.0	2056.0
29	17	16	8	175	168.0	-159981.0	-2218254.0	24926.0
29	17	16	8	205	169.0	-159092.0	-2223402.0	58527.0
29	17	16	8	206	170.0	-158478.0	-2222126.0	41578.0
29	17	16	8	206	171.0	-158319.0	-2220087.0	5890.0
29	17	16	8	207	172.0	-158508.0	-2221417.0	-3912.0
29	17	16	8	207	173.0	-159487.0	-2220412.0	16465.0
29	17	16	8	208	174.0	-160548.0	-2209326.0	54638.0
29	17	16	8	209	175.0	-161420.0	-2206652.0	48329.0
29	17	16	8	209	176.0	-162013.0	-2208185.0	12358.0
29	17	16	8	210	177.0	-162877.0	-2207480.0	515.0
29	17	16	8	210	178.0	-164041.0	-2206914.0	23304.0
29	17	16	8	211	179.0	-165406.0	-2205987.0	58858.0
29	17	16	8	211	180.0	-167031.0	-2204914.0	42369.0
29	17	16	8	212	181.0	-169295.0	-2203490.0	5757.0
29	17	16	8	213	182.0	-171959.0	-2202547.0	-4892.0
29	17	16	8	213	183.0	-174415.0	-2201779.0	15703.0
29	17	16	8	214	185.0	-178195.0	-2199775.0	49930.0
29	17	16	8	214	186.0	-179796.0	-2197679.0	12256.0
29	17	16	8	215	187.0	-181219.0	-2195840.0	248.0
29	17	16	8	216	188.0	-182272.0	-2194679.0	23550.0
29	17	16	8	216	189.0	-182794.0	-2198391.0	60441.0
29	17	16	8	217	190.0	-182877.0	-2198247.0	43276.0
29	17	16	8	249	191.0	-182781.0	-2194906.0	5364.0
29	17	16	8	262	192.0	-182612.0	-2194403.0	-5413.0
29	17	16	8	263	193.0	-182430.0	-2192026.0	16785.0
29	17	16	8	264	194.0	-182044.0	-2188896.0	58291.0
29	17	16	8	264	195.0	-181471.0	-2186976.0	49338.0
29	17	16	8	265	196.0	-180827.0	-2185238.0	11186.0
29	17	16	8	265	197.0	-180183.0	-2183957.0	474.0
29	17	16	8	266	198.0	-179780.0	-2183586.0	26154.0
29	17	16	8	266	199.0	-179532.0	-2183499.0	62878.0
29	17	16	8	267	200.0	-179395.0	-2184616.0	41943.0
29	17	16	8	267	201.0	-179396.0	-2190868.0	4353.0
29	17	16	8	268	202.0	-179415.0	-2192790.0	-3441.0
29	17	16	8	269	203.0	-179386.0	-2192436.0	22733.0
29	17	16	8	269	204.0	-179556.0	-2193082.0	61980.0
29	17	16	8	270	205.0	-179991.0	-2192646.0	45673.0
29	17	16	8	270	207.0	-181376.0	-2182837.0	5194.0
29	17	16	8	271	208.0	-182279.0	-2181104.0	39904.0
29	17	16	8	271	209.0	-183348.0	-2181481.0	67967.0
29	17	16	8	272	210.0	-184546.0	-2181717.0	33746.0
29	17	16	8	272	211.0	-185766.0	-2182006.0	1993.0
29	17	16	8	273	212.0	-187221.0	-2181081.0	4491.0
29	17	16	8	273	213.0	-188982.0	-2180392.0	41785.0
29	17	16	8	295	214.0	-190854.0	-2180133.0	65158.0
29	17	16	8	295	215.0	-192557.0	-2179006.0	32687.0
29	17	16	8	296	216.0	-194182.0	-2178390.0	8093.0
29	17	16	8	297	217.0	-195701.0	-2177156.0	20641.0
29	17	16	8	297	218.0	-197180.0	-2172574.0	60608.0
29	17	16	8	298	219.0	-198482.0	-2166981.0	59278.0
29	17	16	8	298	220.0	-199736.0	-2153548.0	21083.0
29	17	16	8	299	221.0	-200742.0	-2151531.0	6520.0
29	17	16	8	300	222.0	-201287.0	-2152843.0	27006.0
29	17	16	8	300	223.0	-201616.0	-2153809.0	59769.0
29	17	16	8	301	224.0	-201588.0	-2154321.0	48656.0
29	17	16	8	301	225.0	-201090.0	-2154546.0	20568.0
29	17	16	8	302	226.0	-200581.0	-2155094.0	19747.0
29	17	16	8	303	227.0	-199844.0	-2159251.0	48989.0
29	17	16	8	303	228.0	-199160.0	-2170264.0	62454.0
29	17	16	8	304	230.0	-197927.0	-2172262.0	16191.0
29	17	16	8	304	231.0	-197254.0	-2172491.0	26914.0
29	17	16	8	305	232.0	-196448.0	-2170980.0	51039.0
29	17	16	8	305	233.0	-195724.0	-2168737.0	46982.0
29	17	16	8	339	234.0	-195046.0	-2167202.0	25587.0
29	17	16	8	340	235.0	-194561.0	-2166076.0	22966.0
29	17	16	8	340	236.0	-194056.0	-2164718.0	45543.0
29	17	16	8	385	237.0	-193571.0	-2164383.0	58658.0
29	17	16	8	386	238.0	-193123.0	-2163734.0	38323.0
29	17	16	8	386	239.0	-192907.0	-2162374.0	22478.0
29	17	16	8	387	240.0	-192691.0	-2162546.0	30199.0
29	17	16	8	387	241.0	-192632.0	-2163046.0	46727.0
29	17	16	8	388	242.0	-192720.0	-2163586.0	41384.0
29	17	16	8	389	243.0	-192953.0	-2164142.0	23178.0
29	17	16	8	389	244.0	-193078.0	-2170884.0	21664.0
29	17	16	8	390	245.0	-193219.0	-2182481.0	41627.0
29	17	16	8	390	246.0	-193519.0	-2183281.0	53228.0
29	17	16	8	391	247.0	-193707.0	-2181891.0	36544.0
29	17	16	8	392	248.0	-193755.0	-2182256.0	22442.0
29	17	16	8	392	249.0	-193771.0	-2185237.0	29504.0
29	17	16	8	393	253.0	-193794.0	-2187764.0	15916.0
29	17	16	8	393	254.0	-193707.0	-2189033.0	32343.0
29	17	16	8	394	255.0	-193759.0	-2189486.0	51436.0
29	17	16	8	395	19.0	-190737.0	-2189237.0	37339.0
29	17	16	8	395	20.0	-190186.0	-2189803.0	16365.0
29	17	16	8	396	21.0	-189684.0	-2191360.0	17184.0
29	17	16	8	396	22.0	-189265.0	-2191779.0	39683.0
29	17	16	8	397	23.0	-189066.0	-2191311.0	48926.0
29	17	16	8	398	24.0	-189189.0	-2190241.0	27025.0
29	17	16	8	398	25.0	-189242.0	-2190746.0	8899.0
29	17	16	8	475	26.0	-189391.0	-2192134.0	13299.0
29	17	16	8	476	27.0	-189314.0	-2194706.0	36884.0
29	17	16	8	476	28.0	-189374.0	-2197523.0	46938.0
29	17	16	8	477	29.0	-189466.0	-2192167.0	28699.0
29	17	16	8	478	30.0	-189720.0	-2180944.0	15083.0
29	17	16	8	478	31.0	-189123.0	-2179730.0	23950.0
29	17	16	8	479	32.0	-188812.0	-2180237.0	44413.0
29	17	16	8	480	33.0	-186469.0	-2180226.0	42344.0
29	17	16	8	480	34.0	-179272.0	-2178979.0	19938.0
29	17	16	8	481	35.0	-174077.0	-2180138.0	9093.0
29	17	16	8	481	36.0	-175419.0	-2181778.0	20476.0
29	17	16	8	482	37.0	-180101.0	-2183303.0	41434.0
29	17	16	8	483	38.0	-184893.0	-2184369.0	39970.0
29	17	16	8	483	39.0	-187716.0	-2183484.0	21407.0
29	17	16	8	484	40.0	-190719.0	-2175094.0	15512.0
29	17	16	8	484	64.0	-194082.0	-2148106.0	14991.0
29	17	16	8	485	65.0	-194756.0	-2147801.0	23206.0
29	17	16	8	486	66.0	-195327.0	-2147927.0	33000.0
29	17	16	8	487	67.0	-195669.0	-2148152.0	30269.0
29	17	16	8	487	68.0	-195977.0	-2149236.0	22149.0
29	17	16	8	488	69.0	-196522.0	-2149033.0	22171.0
29	17	16	8	566	70.0	-196862.0	-2146796.0	32292.0
29	17	16	8	566	71.0	-197232.0	-2143914.0	38123.0
29	17	16	8	567	72.0	-197627.0	-2140180.0	29673.0
29	17	16	8	568	73.0	-197989.0	-2139088.0	20414.0
29	17	16	8	569	74.0	-198441.0	-2141376.0	20951.0
29	17	16	8	570	75.0	-198952.0	-2144136.0	28230.0
29	17	16	8	571	76.0	-199375.0	-2144053.0	29289.0
29	17	16	8	571	77.0	-199581.0	-2142711.0	22182.0
29	17	16	8	572	78.0	-199637.0	-2142304.0	19725.0
29	17	16	8	572	79.0	-199766.0	-2142992.0	28481.0
29	17	16	8	573	80.0	-199836.0	-2144077.0	37234.0
29	17	16	8	609	81.0	-199939.0	-2145819.0	31899.0
29	17	16	8	610	82.0	-200201.0	-2146141.0	22005.0
29	17	16	8	610	83.0	-200667.0	-2146853.0	21630.0
29	17	16	8	611	84.0	-201117.0	-2147803.0	28458.0
29	17	16	8	612	109.0	-208285.0	-2172444.0	40163.0
29	17	16	8	612	110.0	-207893.0	-2171829.0	19093.0
29	17	16	8	613	111.0	-207512.0	-2172285.0	12156.0
29	17	16	8	614	112.0	-206940.0	-2173621.0	27224.0
29	17	16	8	614	113.0	-206136.0	-2174216.0	42653.0
29	17	16	8	615	114.0	-205278.0	-2169091.0	30014.0
29	17	16	8	615	115.0	-204278.0	-2164007.0	9491.0
29	17	16	8	616	116.0	-203666.0	-2165321.0	6488.0
29	17	16	8	617	117.0	-203035.0	-2165353.0	26962.0
29	17	16	8	617	118.0	-202274.0	-2160225.0	47723.0
29	17	16	8	618	119.0	-201602.0	-2155446.0	34131.0
29	17	16	8	618	131.0	-197781.0	-2100692.0	20864.0
29	17	16	8	619	132.0	-197416.0	-2098525.0	46694.0
29	17	16	8	619	133.0	-197109.0	-2097660.0	41523.0
29	17	16	8	620	134.0	-196809.0	-2102704.0	13530.0
29	17	16	8	621	135.0	-196288.0	-2102946.0	2890.0
29	17	16	8	621	136.0	-195836.0	-2102442.0	18540.0
29	17	16	8	654	137.0	-195524.0	-2104045.0	45452.0
29	17	16	8	655	138.0	-195199.0	-2104231.0	40607.0
29	17	16	8	655	139.0	-194757.0	-2101408.0	16029.0
29	17	16	8	656	140.0	-194252.0	-2096434.0	10244.0
29	17	16	8	657	141.0	-193817.0	-2093029.0	30839.0
29	17	16	8	657	142.0	-193184.0	-2092273.0	49601.0
29	17	16	8	658	143.0	-192557.0	-2091242.0	32348.0
29	17	16	8	658	144.0	-191805.0	-2089403.0	8459.0
29	17	16	8	659	145.0	-190876.0	-2088889.0	7049.0
29	17	16	8	660	146.0	-189911.0	-2099341.0	29568.0
29	17	16	8	661	147.0	-189119.0	-2104651.0	46809.0
29	17	16	8	662	148.0	-188268.0	-2101800.0	30087.0
29	17	16	8	662	149.0	-187260.0	-2099455.0	11274.0
29	17	16	8	663	150.0	-186284.0	-2098615.0	16634.0
29	17	16	8	664	151.0	-185342.0	-2098036.0	42209.0
29	17	16	8	664	154.0	-183457.0	-2099731.0	5190.0
29	17	16	8	665	155.0	-183474.0	-2110114.0	14058.0
29	17	16	8	665	156.0	-183478.0	-2111628.0	38234.0
29	17	16	8	666	157.0	-183504.0	-2112227.0	41665.0
29	17	16	8	666	158.0	-183722.0	-2114627.0	21531.0
29	17	16	8	667	159.0	-184005.0	-2114413.0	12198.0
29	17	16	8	699	160.0	-184342.0	-2113417.0	26731.0
29	17	16	8	700	161.0	-184711.0	-2112179.0	45886.0
29	17	16	8	700	162.0	-184887.0	-2111138.0	36094.0
29	17	16	8	701	163.0	-184974.0	-2110215.0	15191.0
29	17	16	8	702	164.0	-185213.0	-2109131.0	10946.0
29	17	16	8	702	165.0	-185675.0	-2099661.0	25921.0
29	17	16	8	703	166.0	-186243.0	-2092025.0	38546.0
29	17	16	8	704	167.0	-187091.0	-2094676.0	28947.0
29	17	16	8	704	168.0	-188043.0	-2097474.0	16056.0
29	17	16	8	705	169.0	-189099.0	-2096722.0	20602.0
29	17	16	8	706	170.0	-190164.0	-2095636.0	37494.0
29	17	16	8	706	171.0	-191072.0	-2094889.0	39931.0
29	17	16	8	707	172.0	-191861.0	-2094077.0	24494.0
29	17	16	8	707	173.0	-192508.0	-2104202.0	14756.0
29	17	16	8	708	174.0	-193032.0	-2116817.0	19576.0
29	17	16	8	709	176.0	-196122.0	-2117604.0	30008.0
29	17	16	8	709	177.0	-195588.0	-2115734.0	20847.0
29	17	16	8	710	178.0	-192302.0	-2114237.0	20022.0
29	17	16	8	710	179.0	-192409.0	-2114190.0	30749.0
29	17	16	8	711	180.0	-192571.0	-2113808.0	37893.0
29	17	16	8	712	181.0	-192758.0	-2114483.0	30321.0
29	17	16	8	712	182.0	-193012.0	-2115686.0	20459.0
29	17	16	8	745	183.0	-193308.0	-2115473.0	21093.0
29	17	16	8	746	184.0	-193287.0	-2115151.0	28448.0
29	17	16	8	746	185.0	-193104.0	-2115099.0	29003.0
29	17	16	8	747	186.0	-192774.0	-2114923.0	20791.0
29	17	16	8	748	187.0	-192057.0	-2113866.0	17189.0
29	17	16	8	748	188.0	-191596.0	-2109569.0	25717.0
29	17	16	8	749	189.0	-191061.0	-2099781.0	36155.0
29	17	16	8	750	190.0	-191326.0	-2098837.0	32624.0
29	17	16	8	750	191.0	-193914.0	-2100049.0	21934.0
29	17	16	8	751	192.0	-196996.0	-2100046.0	20524.0
29	17	16	8	751	193.0	-198909.0	-2099556.0	28169.0
29	17	16	8	752	194.0	-199449.0	-2097840.0	30820.0
29	17	16	8	753	195.0	-199462.0	-2095498.0	22917.0
29	17	16	8	753	196.0	-198444.0	-2094091.0	15180.0
29	17	16	8	754	197.0	-196212.0	-2091444.0	19577.0
29	17	16	8	754	198.0	-193201.0	-2088372.0	33809.0
29	17	16	8	755	199.0	-190279.0	-2080646.0	37061.0
29	17	16	8	756	200.0	-185812.0	-2077172.0	25158.0
29	17	16	8	756	201.0	-179103.0	-2075409.0	18126.0
29	17	16	8	757	202.0	-174106.0	-2073984.0	24769.0
29	17	16	8	757	203.0	-170569.0	-2074096.0	33788.0
29	17	16	8	758	204.0	-168346.0	-2073878.0	27911.0
29	17	16	8	789	205.0	-167214.0	-2073493.0	14321.0
29	17	16	8	790	206.0	-167301.0	-2073594.0	11034.0
29	17	16	8	790	207.0	-168210.0	-2073999.0	24292.0
29	17	16	8	791	208.0	-169727.0	-2073087.0	38600.0
29	17	16	8	792	209.0	-171669.0	-2073171.0	31667.0
29	17	16	8	792	210.0	-173678.0	-2074635.0	16697.0
29	17	16	8	793	211.0	-176173.0	-2074734.0	14928.0
29	17	16	8	793	212.0	-179275.0	-2073514.0	28311.0
29	17	16	8	794	213.0	-182541.0	-2074432.0	35079.0
29	17	16	8	795	214.0	-186037.0	-2075639.0	20545.0
29	17	16	8	795	215.0	-189785.0	-2076366.0	6381.0
29	17	16	8	796	216.0	-193528.0	-2076822.0	9781.0
29	17	16	8	796	217.0	-197035.0	-2077682.0	29706.0
29	17	16	8	797	218.0	-200257.0	-2078185.0	40253.0
29	17	16	8	798	219.0	-203597.0	-2078069.0	25179.0
29	17	16	8	798	221.0	-210506.0	-2075692.0	16283.0
29	17	16	8	799	222.0	-214257.0	-2075575.0	35149.0
29	17	16	8	799	223.0	-217621.0	-2076844.0	34833.0
29	17	16	8	800	224.0	-220376.0	-2076174.0	14048.0
29	17	16	8	801	225.0	-222472.0	-2075583.0	2937.0
29	17	16	8	801	226.0	-223818.0	-2075636.0	12979.0
29	17	16	8	802	227.0	-224084.0	-2076247.0	36001.0
29	17	16	8	834	228.0	-223361.0	-2074066.0	38090.0
29	17	16	8	835	229.0	-221385.0	-2061935.0	17551.0
29	17	16	8	836	230.0	-218441.0	-2060656.0	8539.0
29	17	16	8	836	231.0	-215250.0	-2062131.0	22441.0
29	17	16	8	837	232.0	-212220.0	-2061562.0	40669.0
29	17	16	8	838	233.0	-209481.0	-2061084.0	30651.0
29	17	16	8	838	234.0	-206666.0	-2060959.0	8516.0
29	17	16	8	839	235.0	-203581.0	-2060637.0	3089.0
29	17	16	8	839	236.0	-200568.0	-2060621.0	20422.0
29	17	16	8	840	237.0	-198088.0	-2060633.0	41517.0
29	17	16	8	841	238.0	-196334.0	-2060374.0	32561.0
29	17	16	8	841	239.0	-195143.0	-2059802.0	12239.0
29	17	16	8	842	240.0	-194663.0	-2058626.0	11403.0
29	17	16	8	842	241.0	-195021.0	-2053255.0	31378.0
29	17	16	8	843	242.0	-195740.0	-2046213.0	41501.0
29	17	16	8	844	243.0	-196491.0	-2046262.0	22598.0
29	17	16	8	844	244.0	-197139.0	-2047232.0	5048.0
29	17	16	8	845	245.0	-197512.0	-2046939.0	8485.0
29	17	16	8	846	246.0	-197407.0	-2044392.0	30023.0
29	17	16	8	846	247.0	-196807.0	-2041307.0	40827.0
29	17	16	8	847	248.0	-195799.0	-2040877.0	24361.0
29	17	16	8	847	249.0	-194503.0	-2040656.0	10734.0
29	17	16	8	880	250.0	-193295.0	-2040194.0	19852.0
29	17	16	8	880	251.0	-192004.0	-2039762.0	40730.0
29	17	16	8	881	252.0	-190576.0	-2038939.0	38620.0
29	17	16	8	882	253.0	-189150.0	-2038896.0	16863.0
29	17	16	8	883	254.0	-187822.0	-2048504.0	6039.0
29	17	16	8	883	255.0	-186432.0	-2060626.0	15776.0
29	17	16	8	884	0.0	-184681.0	-2069562.0	33861.0
29	17	16	8	884	1.0	-182346.0	-2078842.0	32804.0
29	17	16	8	885	2.0	-180857.0	-2087599.0	17593.0
29	17	16	8	886	3.0	-181746.0	-2095995.0	13704.0
29	17	16	8	887	4.0	-182695.0	-2094367.0	28316.0
29	17	16	8	887	5.0	-183764.0	-2093112.0	41309.0
29	17	16	8	888	6.0	-185460.0	-2092617.0	29543.0
29	17	16	8	888	7.0	-188039.0	-2092168.0	12491.0
29	17	16	8	889	8.0	-192289.0	-2092143.0	13947.0
29	17	16	8	890	10.0	-203075.0	-2092654.0	50473.0
29	17	16	8	890	11.0	-208642.0	-2091912.0	38464.0
29	17	16	8	891	12.0	-214473.0	-2091484.0	29428.0
29	17	16	8	891	13.0	-219870.0	-2090317.0	40241.0
29	17	16	8	892	14.0	-225224.0	-2086796.0	48531.0
29	17	16	8	893	15.0	-230311.0	-2085853.0	33949.0
29	17	16	8	924	16.0	-233840.0	-2085791.0	17959.0
29	17	16	8	925	17.0	-235385.0	-2085644.0	14446.0
29	17	16	8	925	18.0	-233328.0	-2086630.0	14879.0
29	17	16	8	926	19.0	-227801.0	-2091730.0	11697.0
29	17	16	8	927	20.0	-219817.0	-2096395.0	11781.0
29	17	16	8	927	21.0	-210596.0	-2093547.0	24673.0
29	17	16	8	928	22.0	-201027.0	-2088676.0	41823.0
29	17	16	8	929	23.0	-191941.0	-2088537.0	39629.0
29	17	16	8	929	24.0	-185885.0	-2089117.0	25863.0
29	17	16	8	930	25.0	-183725.0	-2088849.0	24783.0
29	17	16	8	931	26.0	-185266.0	-2088890.0	36651.0
29	17	16	8	931	27.0	-189788.0	-2088584.0	38434.0
29	17	16	8	932	28.0	-195756.0	-2088112.0	24610.0
29	17	16	8	933	29.0	-201898.0	-2087985.0	15421.0
29	17	16	8	933	30.0	-206601.0	-2088157.0	22698.0
29	17	16	8	934	32.0	-208637.0	-2087110.0	39807.0
29	17	16	8	935	33.0	-208415.0	-2085483.0	25705.0
29	17	16	8	935	34.0	-208129.0	-2073931.0	21086.0
29	17	16	8	936	35.0	-206970.0	-2069392.0	32796.0
29	17	16	8	936	36.0	-204052.0	-2070627.0	40967.0
29	17	16	8	937	37.0	-201214.0	-2070479.0	28514.0
29	17	16	8	938	38.0	-199552.0	-2070686.0	14323.0
29	17	16	8	969	39.0	-198281.0	-2071872.0	15369.0
29	17	16	8	970	40.0	-197402.0	-2072857.0	30327.0
29	17	16	8	970	41.0	-197357.0	-2073002.0	39084.0
29	17	16	8	971	42.0	-197448.0	-2073304.0	29001.0
29	17	16	8	972	43.0	-200883.0	-2073382.0	19312.0
29	17	16	8	972	44.0	-204476.0	-2073471.0	25793.0
29	17	16	8	973	45.0	-208540.0	-2073982.0	39071.0
29	17	16	8	974	46.0	-215914.0	-2074340.0	36168.0
29	17	16	8	975	47.0	-224053.0	-2074013.0	20064.0
29	17	16	8	976	48.0	-231380.0	-2073853.0	13493.0
29	17	16	8	977	49.0	-235794.0	-2073519.0	23793.0
29	17	16	8	978	50.0	-236589.0	-2073734.0	37172.0
29	17	16	8	978	51.0	-234434.0	-2074102.0	33363.0
29	17	16	8	979	52.0	-229378.0	-2074291.0	23129.0
29	17	16	8	980	53.0	-220491.0	-2074251.0	25063.0
29	17	16	8	980	55.0	-191566.0	-2075075.0	40844.0
29	17	16	8	981	56.0	-176168.0	-2074913.0	29164.0
29	17	16	8	982	57.0	-163607.0	-2077509.0	20128.0
29	17	16	8	982	58.0	-155278.0	-2082971.0	24304.0
29	17	16	8	983	59.0	-150379.0	-2084285.0	32911.0
29	17	16	8	984	60.0	-146652.0	-2084372.0	32074.0
29	17	16	9	14	61.0	-147162.0	-2084632.0	26497.0
29	17	16	9	15	62.0	-150730.0	-2085322.0	28228.0
29	17	16	9	16	63.0	-149072.0	-2085961.0	35948.0
29	17	16	9	16	64.0	-150450.0	-2085921.0	37617.0
29	17	16	9	17	65.0	-151359.0	-2084013.0	30368.0
29	17	16	9	18	66.0	-152228.0	-2079379.0	25618.0
29	17	16	9	18	67.0	-153512.0	-2079216.0	27635.0
29	17	16	9	19	68.0	-154850.0	-2080174.0	30383.0
29	17	16	9	19	69.0	-155454.0	-2081441.0	26234.0
29	17	16	9	20	70.0	-154599.0	-2083369.0	21749.0
29	17	16	9	21	71.0	-154041.0	-2086377.0	26716.0
29	17	16	9	21	72.0	-153682.0	-2094166.0	35762.0
29	17	16	9	22	73.0	-148617.0	-2095623.0	35021.0
29	17	16	9	23	74.0	-146888.0	-2095575.0	26668.0
29	17	16	9	23	75.0	-145667.0	-2094124.0	23816.0
29	17	16	9	24	77.0	-148910.0	-2089380.0	29528.0
29	17	16	9	24	78.0	-152340.0	-2090809.0	22244.0
29	17	16	9	25	79.0	-156053.0	-2091407.0	16648.0
29	17	16	9	26	80.0	-160467.0	-2091341.0	20479.0
29	17	16	9	26	81.0	-165062.0	-2091235.0	31263.0
29	17	16	9	27	82.0	-168370.0	-2091882.0	34376.0
29	17	16	9	27	83.0	-171838.0	-2094406.0	25561.0
29	17	16	9	59	84.0	-174779.0	-2108404.0	20685.0
29	17	16	9	60	85.0	-177951.0	-2114816.0	26157.0
29	17	16	9	60	86.0	-181323.0	-2114791.0	31866.0
29	17	16	9	61	87.0	-183403.0	-2115107.0	25708.0
29	17	16	9	62	88.0	-185294.0	-2115461.0	15506.0
29	17	16	9	62	89.0	-187608.0	-2114442.0	14414.0
29	17	16	9	63	90.0	-190508.0	-2114211.0	24600.0
29	17	16	9	63	91.0	-193864.0	-2114823.0	34559.0
29	17	16	9	64	92.0	-197423.0	-2115576.0	30709.0
29	17	16	9	64	93.0	-202011.0	-2115634.0	22333.0
29	17	16	9	74	94.0	-204926.0	-2116061.0	23681.0
29	17	16	9	75	95.0	-206600.0	-2116559.0	32321.0
29	17	16	9	76	96.0	-209109.0	-2117446.0	33402.0
29	17	16	9	76	97.0	-210226.0	-2121569.0	22514.0
29	17	16	9	77	100.0	-213007.0	-2124627.0	31353.0
29	17	16	9	104	101.0	-213492.0	-2123357.0	33271.0
29	17	16	9	150	102.0	-210662.0	-2121221.0	26932.0
29	17	16	9	151	103.0	-208351.0	-2119925.0	24327.0
29	17	16	9	151	104.0	-205772.0	-2118993.0	30418.0
29	17	16	9	152	105.0	-203379.0	-2117757.0	36028.0
29	17	16	9	152	106.0	-200449.0	-2120193.0	31608.0
29	17	16	9	153	107.0	-196436.0	-2121286.0	22719.0
29	17	16	9	154	108.0	-192177.0	-2120077.0	20800.0
29	17	16	9	154	109.0	-187895.0	-2120386.0	26141.0
29	17	16	9	155	110.0	-184442.0	-2120247.0	31694.0
29	17	16	9	156	111.0	-181830.0	-2119833.0	32464.0
29	17	16	9	156	112.0	-179856.0	-2119374.0	30462.0
29	17	16	9	157	113.0	-178315.0	-2120755.0	31248.0
29	17	16	9	157	114.0	-177074.0	-2122564.0	36144.0
29	17	16	9	158	115.0	-175574.0	-2125000.0	37202.0
29	17	16	9	159	122.0	-177647.0	-2134326.0	36238.0
29	17	16	9	159	145.0	-198173.0	-2165457.0	44072.0
29	17	16	9	160	146.0	-198549.0	-2167579.0	40213.0
29	17	16	9	161	147.0	-198782.0	-2169767.0	37626.0
29	17	16	9	161	148.0	-199066.0	-2171671.0	39344.0
29	17	16	9	162	149.0	-199422.0	-2173733.0	41166.0
29	17	16	9	162	150.0	-198871.0	-2176297.0	41012.0
29	17	16	9	194	151.0	-197238.0	-2177162.0	42589.0
29	17	16	9	195	152.0	-195257.0	-2177946.0	44961.0
29	17	16	9	196	153.0	-193632.0	-2179422.0	44606.0
29	17	16	9	196	154.0	-192213.0	-2180764.0	43120.0
29	17	16	9	197	155.0	-190710.0	-2181927.0	44739.0
29	17	16	9	198	156.0	-189562.0	-2184072.0	46438.0
29	17	16	9	198	157.0	-189116.0	-2186490.0	42196.0
29	17	16	9	199	158.0	-189291.0	-2188686.0	37810.0
29	17	16	9	200	159.0	-188864.0	-2190937.0	38007.0
29	17	16	9	200	160.0	-186741.0	-2192837.0	41605.0
29	17	16	9	201	161.0	-186162.0	-2194354.0	42899.0
29	17	16	9	202	162.0	-186850.0	-2194441.0	40861.0
29	17	16	9	203	163.0	-187710.0	-2192227.0	40472.0
29	17	16	9	203	164.0	-188381.0	-2193050.0	42473.0
29	17	16	9	204	165.0	-189380.0	-2195049.0	42962.0
29	17	16	9	204	167.0	-190942.0	-2198354.0	33821.0
29	17	16	9	205	168.0	-190114.0	-2198836.0	33561.0
29	17	16	9	205	169.0	-189409.0	-2202364.0	36979.0
29	17	16	9	206	170.0	-189561.0	-2207942.0	39751.0
29	17	16	9	207	171.0	-189512.0	-2209084.0	39957.0
29	17	16	9	207	172.0	-189397.0	-2209839.0	39479.0
29	17	16	9	239	173.0	-189157.0	-2211355.0	40371.0
29	17	16	9	240	174.0	-188789.0	-2212223.0	41988.0
29	17	16	9	241	175.0	-187301.0	-2213616.0	40794.0
29	17	16	9	242	176.0	-186066.0	-2215551.0	36388.0
29	17	16	9	242	177.0	-185920.0	-2217961.0	32898.0
29	17	16	9	243	178.0	-186224.0	-2220475.0	33480.0
29	17	16	9	244	179.0	-186869.0	-2222512.0	35540.0
29	17	16	9	244	180.0	-187687.0	-2223886.0	38269.0
29	17	16	9	245	181.0	-188482.0	-2230161.0	39926.0
29	17	16	9	246	182.0	-188987.0	-2243357.0	40013.0
29	17	16	9	246	183.0	-189214.0	-2245990.0	40192.0
29	17	16	9	247	184.0	-190102.0	-2247330.0	40444.0
29	17	16	9	248	185.0	-191139.0	-2248649.0	39632.0
29	17	16	9	248	186.0	-191985.0	-2250218.0	37289.0
29	17	16	9	249	187.0	-192982.0	-2251666.0	34425.0
29	17	16	9	250	190.0	-195487.0	-2269695.0	38666.0
29	17	16	9	250	191.0	-195992.0	-2272818.0	40297.0
29	17	16	9	251	192.0	-196309.0	-2274531.0	40781.0
29	17	16	9	251	193.0	-196030.0	-2276515.0	39963.0
29	17	16	9	252	194.0	-194657.0	-2277304.0	39396.0
29	17	16	9	253	195.0	-189918.0	-2278666.0	40130.0
29	17	16	9	284	196.0	-183587.0	-2280324.0	38808.0
29	17	16	9	285	197.0	-182104.0	-2282109.0	34118.0
29	17	16	9	286	198.0	-186129.0	-2284760.0	32631.0
29	17	16	9	286	199.0	-191472.0	-2285150.0	35416.0
29	17	16	9	287	200.0	-195914.0	-2285411.0	39105.0
29	17	16	9	288	201.0	-199221.0	-2286508.0	40591.0
29	17	16	9	288	202.0	-203071.0	-2287608.0	38811.0
29	17	16	9	289	203.0	-206505.0	-2288541.0	39038.0
29	17	16	9	290	204.0	-208177.0	-2289381.0	42379.0
29	17	16	9	290	205.0	-208391.0	-2290496.0	41458.0
29	17	16	9	291	206.0	-206572.0	-2292668.0	36066.0
29	17	16	9	291	207.0	-202704.0	-2295404.0	33224.0
29	17	16	9	292	208.0	-197401.0	-2297346.0	34978.0
29	17	16	9	293	209.0	-192306.0	-2298732.0	36627.0
29	17	16	9	293	210.0	-188101.0	-2299746.0	37402.0
29	17	16	9	294	212.0	-183955.0	-2302167.0	40953.0
29	17	16	9	295	213.0	-183051.0	-2303226.0	41089.0
29	17	16	9	295	214.0	-182367.0	-2304093.0	39878.0
29	17	16	9	296	215.0	-182409.0	-2305222.0	38953.0
29	17	16	9	296	216.0	-182851.0	-2306477.0	37056.0
29	17	16	9	297	217.0	-183429.0	-2307616.0	34284.0
29	17	16	9	329	218.0	-184098.0	-2309682.0	33073.0
29	17	16	9	330	219.0	-184236.0	-2319674.0	34561.0
29	17	16	9	331	220.0	-184136.0	-2323716.0	38156.0
29	17	16	9	332	221.0	-184407.0	-2329486.0	40704.0
29	17	16	9	332	222.0	-185078.0	-2335291.0	39660.0
29	17	16	9	333	223.0	-186198.0	-2335413.0	38459.0
29	17	16	9	334	224.0	-187351.0	-2335342.0	40059.0
29	17	16	9	335	225.0	-188720.0	-2336176.0	41786.0
29	17	16	9	336	226.0	-190718.0	-2337414.0	38894.0
29	17	16	9	337	227.0	-192494.0	-2339507.0	34532.0
29	17	16	9	338	228.0	-193804.0	-2341806.0	34819.0
29	17	16	9	338	229.0	-194704.0	-2343417.0	38037.0
29	17	16	9	339	230.0	-196006.0	-2344657.0	40749.0
29	17	16	9	339	231.0	-197607.0	-2345844.0	41082.0
29	17	16	9	340	232.0	-198989.0	-2347028.0	41526.0
29	17	16	9	341	234.0	-201089.0	-2348492.0	42731.0
29	17	16	9	341	235.0	-202068.0	-2349621.0	41068.0
29	17	16	9	342	236.0	-202677.0	-2353022.0	38096.0
29	17	16	9	342	237.0	-203550.0	-2355301.0	35003.0
29	17	16	9	343	238.0	-204741.0	-2357580.0	34480.0
29	17	16	9	344	239.0	-205422.0	-2359307.0	36923.0
29	17	16	9	344	240.0	-205389.0	-2360607.0	40471.0
29	17	16	9	375	241.0	-204873.0	-2362016.0	42312.0
29	17	16	9	376	242.0	-204774.0	-2362208.0	41619.0
29	17	16	9	376	243.0	-205175.0	-2362889.0	40818.0
29	17	16	9	377	244.0	-205802.0	-2364251.0	43051.0
29	17	16	9	378	245.0	-206426.0	-2365736.0	44286.0
29	17	16	9	378	246.0	-207145.0	-2367836.0	40053.0
29	17	16	9	379	247.0	-207815.0	-2370449.0	36073.0
29	17	16	9	380	248.0	-208199.0	-2371878.0	36606.0
29	17	16	9	380	249.0	-208772.0	-2373218.0	39423.0
29	17	16	9	381	250.0	-209229.0	-2373861.0	42146.0
29	17	16	9	382	251.0	-209359.0	-2373250.0	43486.0
29	17	16	9	382	252.0	-209170.0	-2366913.0	43521.0
29	17	16	9	383	253.0	-208747.0	-2355556.0	44489.0
29	17	16	9	384	254.0	-208426.0	-2355531.0	45086.0
29	17	16	9	384	255.0	-208264.0	-2356142.0	43296.0
29	17	16	9	385	1.0	-207912.0	-2359014.0	40416.0
29	17	16	9	385	2.0	-207869.0	-2360196.0	40199.0
29	17	16	9	386	3.0	-207889.0	-2361640.0	40694.0
29	17	16	9	387	4.0	-207869.0	-2363302.0	43770.0
29	17	16	9	387	5.0	-208026.0	-2364447.0	46669.0
29	17	16	9	388	6.0	-208299.0	-2368890.0	45265.0
29	17	16	9	420	7.0	-208842.0	-2372961.0	42526.0
29	17	16	9	420	8.0	-209411.0	-2373341.0	44871.0
29	17	16	9	421	9.0	-209583.0	-2374906.0	48122.0
29	17	16	9	422	10.0	-209751.0	-2376312.0	43931.0
29	17	16	9	423	11.0	-209783.0	-2375927.0	37999.0
29	17	16	9	423	12.0	-209727.0	-2377135.0	38424.0
29	17	16	9	424	13.0	-209289.0	-2378806.0	43701.0
29	17	16	9	425	14.0	-208721.0	-2380367.0	46136.0
29	17	16	9	425	15.0	-207954.0	-2381572.0	44920.0
29	17	16	9	426	16.0	-206919.0	-2382419.0	46691.0
29	17	16	9	427	17.0	-205738.0	-2383474.0	53266.0
29	17	16	9	427	18.0	-204926.0	-2384860.0	55018.0
29	17	16	9	428	19.0	-204089.0	-2386451.0	49663.0
29	17	16	9	428	20.0	-202481.0	-2387859.0	46670.0
29	17	16	9	429	21.0	-201027.0	-2389458.0	48538.0
29	17	16	9	430	23.0	-198298.0	-2390956.0	47581.0
29	17	16	9	430	24.0	-196379.0	-2391717.0	51004.0
29	17	16	9	431	25.0	-194477.0	-2392429.0	55088.0
29	17	16	9	432	26.0	-193119.0	-2393378.0	53651.0
29	17	16	9	432	27.0	-191653.0	-2394139.0	51240.0
29	17	16	9	433	28.0	-190181.0	-2395132.0	53574.0
29	17	16	9	434	29.0	-189082.0	-2396010.0	55071.0
29	17	16	9	480	30.0	-188189.0	-2396885.0	49684.0
29	17	16	9	503	31.0	-187337.0	-2398241.0	46328.0
29	17	16	9	504	32.0	-186836.0	-2401319.0	48473.0
29	17	16	9	504	33.0	-186303.0	-2406126.0	50733.0
29	17	16	9	505	34.0	-185965.0	-2407611.0	52178.0
29	17	16	9	506	35.0	-185099.0	-2408874.0	55661.0
29	17	16	9	506	36.0	-184923.0	-2405829.0	56694.0
29	17	16	9	507	37.0	-185020.0	-2393137.0	54109.0
29	17	16	9	507	38.0	-184704.0	-2391320.0	54359.0
29	17	16	9	508	39.0	-184297.0	-2393468.0	55839.0
29	17	16	9	508	40.0	-183989.0	-2395212.0	52456.0
29	17	16	9	509	41.0	-184035.0	-2396779.0	48450.0
29	17	16	9	509	42.0	-184889.0	-2398336.0	48812.0
29	17	16	9	510	43.0	-185348.0	-2399711.0	52268.0
29	17	16	9	510	44.0	-186021.0	-2400362.0	54893.0
29	17	16	9	511	53.0	-182707.0	-2404806.0	51245.0
29	17	16	9	512	61.0	-190618.0	-2418251.0	48007.0
29	17	16	9	512	62.0	-192643.0	-2419432.0	49141.0
29	17	16	9	513	63.0	-195016.0	-2420519.0	51613.0
29	17	16	9	513	64.0	-197185.0	-2421329.0	54106.0
29	17	16	9	514	65.0	-198851.0	-2420659.0	54534.0
29	17	16	9	514	66.0	-200306.0	-2420877.0	54796.0
29	17	16	9	515	67.0	-201403.0	-2421746.0	56333.0
29	17	16	9	515	68.0	-202728.0	-2422380.0	54935.0
29	17	16	9	527	69.0	-203301.0	-2423301.0	52344.0
29	17	16	9	528	70.0	-203618.0	-2424469.0	51483.0
29	17	16	9	529	71.0	-203652.0	-2426151.0	50697.0
29	17	16	9	529	72.0	-203849.0	-2427666.0	49964.0
29	17	16	9	530	73.0	-204246.0	-2429523.0	52545.0
29	17	16	9	530	74.0	-204719.0	-2430302.0	56626.0
29	17	16	9	531	75.0	-205127.0	-2430735.0	57404.0
29	17	16	9	532	76.0	-205637.0	-2431217.0	55571.0
29	17	16	9	532	77.0	-206293.0	-2431242.0	55534.0
29	17	16	9	550	78.0	-206986.0	-2431477.0	56343.0
29	17	16	9	551	79.0	-207057.0	-2431841.0	55199.0
29	17	16	9	551	80.0	-206625.0	-2433036.0	51866.0
29	17	16	9	552	81.0	-205278.0	-2435135.0	50019.0
29	17	16	9	553	82.0	-203757.0	-2440078.0	50169.0
29	17	16	9	553	83.0	-202420.0	-2444586.0	53899.0
29	17	16	9	554	84.0	-201021.0	-2447059.0	58629.0
29	17	16	9	554	85.0	-199763.0	-2449483.0	58244.0
29	17	16	9	555	86.0	-198207.0	-2450968.0	55811.0
29	17	16	9	556	87.0	-196194.0	-2452859.0	57746.0
29	17	16	9	556	88.0	-194147.0	-2454233.0	59223.0
29	17	16	9	557	89.0	-191967.0	-2455507.0	56583.0
29	17	16	9	557	90.0	-189664.0	-2456580.0	52510.0
29	17	16	9	558	91.0	-187781.0	-2457514.0	51099.0
29	17	16	9	558	92.0	-186227.0	-2458185.0	52159.0
29	17	16	9	574	93.0	-185060.0	-2458525.0	54161.0
29	17	16	9	575	94.0	-184369.0	-2459413.0	57281.0
29	17	16	9	575	95.0	-183929.0	-2460094.0	58596.0
29	17	16	9	576	96.0	-183416.0	-2453806.0	57257.0
29	17	16	9	576	97.0	-183134.0	-2444506.0	57871.0
29	17	16	9	577	98.0	-183197.0	-2436482.0	60176.0
29	17	16	9	577	99.0	-183139.0	-2427456.0	57391.0
29	17	16	9	604	100.0	-182962.0	-2427217.0	51480.0
29	17	16	9	605	101.0	-182650.0	-2428196.0	52048.0
29	17	16	9	606	102.0	-182697.0	-2429718.0	55331.0
29	17	16	9	606	103.0	-182896.0	-2435698.0	55954.0
29	17	16	9	607	104.0	-183363.0	-2443065.0	57769.0
29	17	16	9	607	105.0	-183836.0	-2443016.0	60204.0
29	17	16	9	608	106.0	-184272.0	-2442889.0	59283.0
29	17	16	9	608	107.0	-184871.0	-2443492.0	58130.0
29	17	16	9	609	108.0	-185052.0	-2445517.0	58466.0
29	17	16	9	610	109.0	-185006.0	-2447234.0	57379.0
29	17	16	9	610	110.0	-185102.0	-2448466.0	53576.0
29	17	16	9	611	111.0	-185469.0	-2449750.0	51564.0
29	17	16	9	612	112.0	-185564.0	-2451151.0	52775.0
29	17	16	9	613	113.0	-185479.0	-2452209.0	56083.0
29	17	16	9	614	114.0	-185980.0	-2452741.0	58571.0
29	17	16	9	614	115.0	-186982.0	-2454325.0	59366.0
29	17	16	9	615	116.0	-188369.0	-2455427.0	58366.0
29	17	16	9	615	117.0	-189817.0	-2452269.0	59344.0
29	17	16	9	616	118.0	-191097.0	-2438103.0	60839.0
29	17	16	9	617	119.0	-192314.0	-2434637.0	58243.0
29	17	16	9	617	120.0	-193243.0	-2435327.0	52775.0
29	17	16	9	618	121.0	-194112.0	-2436546.0	52149.0
29	17	16	9	618	122.0	-194980.0	-2441401.0	55233.0
29	17	16	9	628	123.0	-195991.0	-2448207.0	56912.0
29	17	16	9	629	124.0	-196586.0	-2450157.0	57811.0
29	17	16	9	630	125.0	-196931.0	-2451117.0	60520.0
29	17	16	9	630	126.0	-197404.0	-2451848.0	60271.0
29	17	16	9	631	127.0	-197579.0	-2452587.0	58548.0
29	17	16	9	632	128.0	-197664.0	-2453686.0	59126.0
29	17	16	9	632	129.0	-197846.0	-2455356.0	58588.0
29	17	16	9	652	130.0	-198046.0	-2458217.0	54513.0
29	17	16	9	653	131.0	-198034.0	-2459936.0	52959.0
29	17	16	9	653	132.0	-197468.0	-2461362.0	54071.0
29	17	16	9	654	133.0	-196686.0	-2462637.0	57202.0
29	17	16	9	655	134.0	-195700.0	-2463894.0	60176.0
29	17	16	9	655	135.0	-194583.0	-2465076.0	60140.0
29	17	16	9	656	136.0	-193353.0	-2464142.0	59584.0
29	17	16	9	656	137.0	-192246.0	-2462499.0	61554.0
29	17	16	9	675	138.0	-190969.0	-2462884.0	61359.0
29	17	16	9	676	139.0	-190229.0	-2462650.0	57710.0
29	17	16	9	676	140.0	-190019.0	-2464157.0	55261.0
29	17	16	9	677	141.0	-189921.0	-2465108.0	55614.0
29	17	16	9	677	142.0	-189728.0	-2463604.0	55651.0
29	17	16	9	678	143.0	-189633.0	-2463805.0	57264.0
29	17	16	9	679	144.0	-189902.0	-2464889.0	60903.0
29	17	16	9	679	145.0	-190086.0	-2466403.0	60913.0
29	17	16	9	680	146.0	-190337.0	-2467661.0	58903.0
29	17	16	9	680	147.0	-190464.0	-2469389.0	60636.0
29	17	16	9	681	148.0	-190145.0	-2470654.0	61624.0
29	17	16	9	681	149.0	-189663.0	-2471625.0	58656.0
29	17	16	9	682	150.0	-189199.0	-2472049.0	54320.0
29	17	16	9	682	151.0	-188887.0	-2472663.0	53349.0
29	17	16	9	683	152.0	-188391.0	-2473265.0	54991.0
29	17	16	9	698	153.0	-187830.0	-2470924.0	57709.0
29	17	16	9	699	154.0	-187697.0	-2470881.0	60144.0
29	17	16	9	699	155.0	-187999.0	-2470479.0	60928.0
29	17	16	9	700	156.0	-188297.0	-2464934.0	60860.0
29	17	16	9	701	157.0	-188469.0	-2463888.0	63009.0
29	17	16	9	701	158.0	-188469.0	-2464924.0	62528.0
29	17	16	9	702	159.0	-188539.0	-2466311.0	58178.0
29	17	16	9	721	160.0	-188677.0	-2466687.0	55529.0
29	17	16	9	722	161.0	-188524.0	-2464761.0	54551.0
29	17	16	9	723	162.0	-188265.0	-2463639.0	54096.0
29	17	16	9	723	163.0	-187797.0	-2464782.0	57236.0
29	17	16	9	724	164.0	-187314.0	-2466577.0	61522.0
29	17	16	9	724	165.0	-187127.0	-2467405.0	62320.0
29	17	16	9	725	166.0	-187037.0	-2468292.0	61566.0
29	17	16	9	726	167.0	-187412.0	-2469014.0	62413.0
29	17	16	9	726	168.0	-188517.0	-2469602.0	61088.0
29	17	16	9	727	169.0	-190172.0	-2470053.0	57077.0
29	17	16	9	727	170.0	-192790.0	-2462207.0	56401.0
29	17	16	9	728	171.0	-196752.0	-2456794.0	63177.0
29	17	16	9	728	172.0	-201739.0	-2458637.0	67014.0
29	17	16	9	729	173.0	-207849.0	-2460101.0	67160.0
29	17	16	9	729	174.0	-214190.0	-2461910.0	70657.0
29	17	16	9	744	175.0	-219954.0	-2464321.0	71324.0
29	17	16	9	745	176.0	-224711.0	-2465674.0	63705.0
29	17	16	9	746	177.0	-228344.0	-2467339.0	59618.0
29	17	16	9	746	178.0	-230122.0	-2469291.0	58573.0
29	17	16	9	747	179.0	-229239.0	-2471288.0	47155.0
29	17	16	9	748	180.0	-225339.0	-2472973.0	35764.0
29	17	16	9	748	181.0	-217956.0	-2474384.0	40909.0
29	17	16	9	749	182.0	-207931.0	-2475717.0	56378.0
29	17	16	9	749	183.0	-196651.0	-2476649.0	61313.0
29	17	16	9	750	184.0	-185692.0	-2468345.0	59078.0
29	17	16	9	751	185.0	-176424.0	-2461055.0	63939.0
29	17	16	9	751	186.0	-169883.0	-2462010.0	68953.0
29	17	16	9	752	187.0	-166972.0	-2463037.0	65075.0
29	17	16	9	752	188.0	-168011.0	-2466331.0	60621.0
29	17	16	9	753	189.0	-171981.0	-2470136.0	61637.0
29	17	16	9	768	190.0	-177796.0	-2473080.0	60273.0
29	17	16	9	768	191.0	-184006.0	-2475746.0	55178.0
29	17	16	9	769	192.0	-189436.0	-2477376.0	55943.0
29	17	16	9	770	193.0	-192659.0	-2479269.0	62766.0
29	17	16	9	770	194.0	-193698.0	-2481529.0	64599.0
29	17	16	9	771	195.0	-196959.0	-2482777.0	61229.0
29	17	16	9	771	196.0	-200629.0	-2483471.0	61909.0
29	17	16	9	791	197.0	-205527.0	-2484455.0	63845.0
29	17	16	9	792	198.0	-210780.0	-2486440.0	62105.0
29	17	16	9	793	199.0	-214797.0	-2488327.0	58365.0
29	17	16	9	793	200.0	-217667.0	-2490485.0	55279.0
29	17	16	9	794	201.0	-218500.0	-2492784.0	54591.0
29	17	16	9	795	202.0	-217102.0	-2494854.0	55562.0
29	17	16	9	795	203.0	-213461.0	-2496166.0	58003.0
29	17	16	9	796	204.0	-209494.0	-2497632.0	60479.0
29	17	16	9	796	205.0	-207557.0	-2499534.0	60262.0
29	17	16	9	797	206.0	-209646.0	-2501203.0	58994.0
29	17	16	9	798	207.0	-216304.0	-2498169.0	59641.0
29	17	16	9	798	208.0	-226142.0	-2487461.0	59881.0
29	17	16	9	799	209.0	-237248.0	-2487588.0	56489.0
29	17	16	9	814	210.0	-247906.0	-2489628.0	52480.0
29	17	16	9	814	211.0	-257102.0	-2491994.0	53422.0
29	17	16	9	815	212.0	-262929.0	-2498712.0	56244.0
29	17	16	9	816	213.0	-263533.0	-2501542.0	58196.0
29	17	16	9	816	214.0	-256600.0	-2502254.0	60037.0
29	17	16	9	817	215.0	-241095.0	-2501920.0	61082.0
29	17	16	9	817	216.0	-221409.0	-2500958.0	60722.0
29	17	16	9	818	217.0	-202069.0	-2501032.0	60713.0
29	17	16	9	819	218.0	-186199.0	-2501404.0	59795.0
29	17	16	9	820	219.0	-176594.0	-2502188.0	57259.0
29	17	16	9	820	220.0	-173094.0	-2503030.0	55106.0
29	17	16	9	837	221.0	-174156.0	-2500772.0	54461.0
29	17	16	9	838	222.0	-177136.0	-2494931.0	55519.0
29	17	16	9	839	223.0	-179574.0	-2494926.0	58382.0
29	17	16	9	840	224.0	-180112.0	-2495223.0	60143.0
29	17	16	9	840	225.0	-179707.0	-2495254.0	59721.0
29	17	16	9	841	226.0	-178129.0	-2495026.0	59559.0
29	17	16	9	842	227.0	-176590.0	-2495234.0	60856.0
29	17	16	9	842	228.0	-175717.0	-2495624.0	58718.0
29	17	16	9	843	229.0	-175641.0	-2496982.0	53834.0
29	17	16	9	843	230.0	-175140.0	-2498582.0	52169.0
29	17	16	9	844	231.0	-173084.0	-2499210.0	53208.0
29	17	16	9	844	232.0	-169872.0	-2499906.0	52620.0
29	17	16	9	845	233.0	-166249.0	-2501231.0	54560.0
29	17	16	9	846	234.0	-162331.0	-2502437.0	58951.0
29	17	16	9	861	235.0	-158067.0	-2503169.0	58658.0
29	17	16	9	861	236.0	-153355.0	-2503549.0	56008.0
29	17	16	9	862	237.0	-148409.0	-2504497.0	56220.0
29	17	16	9	863	238.0	-144430.0	-2505854.0	56798.0
29	17	16	9	863	239.0	-141280.0	-2507364.0	53270.0
29	17	16	9	864	240.0	-139246.0	-2508515.0	49696.0
29	17	16	9	864	241.0	-138757.0	-2509762.0	49174.0
29	17	16	9	883	242.0	-139134.0	-2510315.0	51155.0
29	17	16	9	884	243.0	-140001.0	-2511234.0	52660.0
29	17	16	9	885	244.0	-140902.0	-2512010.0	53269.0
29	17	16	9	886	245.0	-141861.0	-2507132.0	53776.0
29	17	16	9	886	246.0	-143627.0	-2499479.0	54609.0
29	17	16	9	887	247.0	-146067.0	-2499501.0	55682.0
29	17	16	9	887	248.0	-148997.0	-2500197.0	53334.0
29	17	16	9	888	249.0	-152811.0	-2499937.0	49005.0
29	17	16	9	889	250.0	-158953.0	-2494311.0	48261.0
29	17	16	9	889	251.0	-165577.0	-2493026.0	49505.0
29	17	16	9	890	252.0	-171464.0	-2493729.0	49453.0
29	17	16	9	891	253.0	-177686.0	-2494090.0	52779.0
29	17	16	9	891	254.0	-184566.0	-2490469.0	56667.0
29	17	16	9	892	255.0	-191286.0	-2489221.0	54354.0
29	17	16	9	892	0.0	-197046.0	-2490470.0	53081.0
29	17	16	9	893	1.0	-201324.0	-2491324.0	56139.0
29	17	16	9	914	2.0	-204351.0	-2492814.0	55824.0
29	17	16	9	915	3.0	-206111.0	-2493193.0	51085.0
29	17	16	9	915	4.0	-207156.0	-2493101.0	48896.0
29	17	16	9	916	5.0	-207230.0	-2494442.0	49611.0
29	17	16	9	917	6.0	-206412.0	-2496164.0	51890.0
29	17	16	9	917	7.0	-205199.0	-2497461.0	54923.0
29	17	16	9	918	8.0	-203201.0	-2498477.0	57429.0
29	17	16	9	919	9.0	-200921.0	-2500416.0	58098.0
29	17	16	9	919	10.0	-198602.0	-2502244.0	57380.0
29	17	16	9	920	11.0	-196240.0	-2500442.0	57359.0
29	17	16	9	921	12.0	-194145.0	-2501368.0	57176.0
29	17	16	9	922	13.0	-192469.0	-2502929.0	53884.0
29	17	16	9	922	14.0	-190927.0	-2504883.0	51576.0
29	17	16	9	923	15.0	-189402.0	-2507909.0	53183.0
29	17	16	9	923	16.0	-187890.0	-2511565.0	55517.0
29	17	16	9	924	17.0	-186649.0	-2507131.0	57971.0
29	17	16	9	925	18.0	-185720.0	-2496648.0	60658.0
29	17	16	9	925	19.0	-185364.0	-2497420.0	61649.0
29	17	16	9	933	20.0	-184899.0	-2498544.0	61064.0
29	17	16	9	934	21.0	-184275.0	-2498515.0	61131.0
29	17	16	9	958	22.0	-183702.0	-2500712.0	61756.0
29	17	16	9	958	23.0	-183696.0	-2503101.0	60383.0
29	17	16	9	959	24.0	-183980.0	-2504523.0	58073.0
29	17	16	9	960	25.0	-184285.0	-2506723.0	58487.0
29	17	16	9	960	26.0	-184535.0	-2509886.0	63171.0
29	17	16	9	961	27.0	-184614.0	-2511783.0	72106.0
29	17	16	9	962	28.0	-184585.0	-2513310.0	75649.0
29	17	16	9	962	29.0	-184766.0	-2514869.0	73751.0
29	17	16	9	963	30.0	-185377.0	-2515416.0	75783.0
29	17	16	9	963	31.0	-186150.0	-2516449.0	77108.0
29	17	16	9	964	32.0	-187269.0	-2518027.0	75393.0
29	17	16	9	964	33.0	-188320.0	-2519730.0	75220.0
29	17	16	9	965	34.0	-189487.0	-2522211.0	75377.0
29	17	16	9	966	35.0	-190408.0	-2524673.0	75555.0
29	17	16	9	966	36.0	-191129.0	-2526994.0	77997.0
29	17	16	9	967	37.0	-191601.0	-2529151.0	82832.0
29	17	16	9	980	38.0	-191924.0	-2530365.0	85420.0
29	17	16	9	981	39.0	-192436.0	-2531829.0	83979.0
29	17	16	9	981	40.0	-192909.0	-2535015.0	85726.0
29	17	16	9	982	41.0	-193514.0	-2542460.0	86714.0
29	17	16	9	983	42.0	-194114.0	-2557127.0	85224.0
29	17	16	9	983	43.0	-194929.0	-2561251.0	83856.0
29	17	16	9	984	44.0	-195882.0	-2564667.0	85001.0
29	17	16	9	984	45.0	-196961.0	-2565967.0	84918.0
29	17	16	9	985	46.0	-198114.0	-2567967.0	87252.0
29	17	16	10	2	47.0	-199421.0	-2570932.0	92281.0
29	17	16	10	3	48.0	-201757.0	-2572341.0	92053.0
29	17	16	10	4	49.0	-207158.0	-2573289.0	91026.0
29	17	16	10	5	50.0	-213362.0	-2573492.0	93807.0
29	17	16	10	5	51.0	-215359.0	-2566791.0	92483.0
29	17	16	10	6	52.0	-215603.0	-2565634.0	91746.0
29	17	16	10	7	53.0	-214093.0	-2565398.0	91209.0
29	17	16	10	7	54.0	-212134.0	-2565267.0	88030.0
29	17	16	10	8	55.0	-210622.0	-2565770.0	87458.0
29	17	16	10	8	56.0	-208058.0	-2561586.0	91741.0
29	17	16	10	9	57.0	-205017.0	-2561531.0	97062.0
29	17	16	10	10	58.0	-202221.0	-2563184.0	97211.0
29	17	16	10	10	59.0	-196938.0	-2564759.0	97949.0
29	17	16	10	11	60.0	-190339.0	-2569529.0	107517.0
29	17	16	10	11	61.0	-184732.0	-2572055.0	113894.0
29	17	16	10	24	62.0	-180794.0	-2573283.0	112834.0
29	17	16	10	25	63.0	-178573.0	-2573929.0	110710.0
29	17	16	10	25	64.0	-178308.0	-2575853.0	111596.0
29	17	16	10	26	65.0	-180021.0	-2577876.0	112450.0
29	17	16	10	27	66.0	-183414.0	-2579884.0	114539.0
29	17	16	10	27	67.0	-187772.0	-2581829.0	119479.0
29	17	16	10	48	68.0	-192419.0	-2583300.0	124599.0
29	17	16	10	49	69.0	-197273.0	-2584447.0	124994.0
29	17	16	10	50	70.0	-202190.0	-2586407.0	126357.0
29	17	16	10	50	71.0	-206691.0	-2588309.0	126909.0
29	17	16	10	51	72.0	-210565.0	-2590628.0	125115.0
29	17	16	10	52	73.0	-213619.0	-2592371.0	127287.0
29	17	16	10	52	74.0	-215453.0	-2593650.0	164607.0
29	17	16	10	53	75.0	-215515.0	-2594171.0	206613.0
29	17	16	10	54	76.0	-214386.0	-2596292.0	245774.0
29	17	16	10	54	77.0	-212065.0	-2604245.0	323901.0
29	17	16	10	55	78.0	-208902.0	-2610284.0	310039.0
29	17	16	10	55	79.0	-205439.0	-2618493.0	190923.0
29	17	16	10	56	80.0	-201964.0	-2633762.0	206472.0
29	17	16	10	57	81.0	-198707.0	-2655072.0	198048.0
29	17	16	10	57	82.0	-195531.0	-2695457.0	145777.0
29	17	16	10	80	83.0	-191966.0	-2741999.0	64237.0
29	17	16	10	81	84.0	-187664.0	-2759245.0	22501.0
29	17	16	10	82	85.0	-184559.0	-2766389.0	3647.0
29	17	16	10	82	86.0	-184294.0	-2770518.0	2613.0
29	17	16	10	83	87.0	-183849.0	-2775422.0	258.0
29	17	16	10	84	88.0	-182957.0	-2777571.0	-1201.0
29	17	16	10	85	89.0	-182477.0	-2779188.0	-1291.0
29	17	16	10	86	90.0	-182662.0	-2779603.0	-1290.0
29	17	16	10	86	91.0	-183542.0	-2769979.0	-1290.0
29	17	16	10	87	92.0	-184974.0	-2765161.0	-1289.0
29	17	16	10	88	93.0	-187444.0	-2765341.0	-1291.0
29	17	16	10	88	94.0	-189447.0	-2761581.0	-1291.0
29	17	16	10	89	95.0	-191523.0	-2759160.0	-1292.0
29	17	16	10	90	96.0	-192725.0	-2757978.0	-1293.0
29	17	16	10	90	97.0	-193281.0	-2762088.0	-1294.0
29	17	16	10	91	98.0	-194969.0	-2765946.0	-1293.0
29	17	16	10	92	99.0	-191770.0	-2765232.0	-1291.0
29	17	16	10	92	100.0	-185864.0	-2764747.0	-1292.0
29	17	16	10	93	101.0	-184511.0	-2765475.0	-1294.0
29	17	16	10	94	102.0	-188992.0	-2767100.0	-1290.0
29	17	16	10	94	103.0	-195237.0	-2770104.0	-1291.0
29	17	16	10	95	104.0	-198732.0	-2772514.0	-1288.0
29	17	16	10	110	105.0	-201293.0	-2773558.0	-1289.0
29	17	16	10	113	106.0	-205757.0	-2771627.0	-1291.0
29	17	16	10	115	107.0	-211102.0	-2770232.0	-1288.0
29	17	16	10	118	108.0	-216197.0	-2775137.0	-1289.0
29	17	16	10	121	109.0	-219856.0	-2780141.0	-1294.0
29	17	16	10	123	110.0	-219719.0	-2780878.0	-1293.0
29	17	16	10	124	111.0	-215244.0	-2781379.0	-1291.0
29	17	16	10	125	112.0	-208909.0	-2782747.0	-1286.0
29	17	16	10	125	113.0	-202619.0	-2785016.0	-1289.0
29	17	16	10	126	114.0	-197989.0	-2787476.0	-1290.0
29	17	16	10	126	115.0	-195220.0	-2790029.0	-1289.0
29	17	16	10	127	116.0	-194215.0	-2791818.0	-1292.0
29	17	16	10	128	117.0	-194096.0	-2793794.0	-1294.0
29	17	16	10	128	118.0	-194562.0	-2796296.0	-1289.0
29	17	16	10	129	119.0	-195534.0	-2798131.0	-1294.0
29	17	16	10	130	120.0	-196356.0	-2799040.0	-1289.0
29	17	16	10	142	121.0	-196910.0	-2800097.0	-1293.0
29	17	16	10	144	122.0	-197431.0	-2801006.0	-1292.0
29	17	16	10	146	123.0	-197735.0	-2802355.0	-1289.0
29	17	16	10	148	124.0	-196914.0	-2805925.0	-1295.0
29	17	16	10	150	125.0	-194738.0	-2813510.0	-1292.0
29	17	16	10	153	126.0	-192257.0	-2814806.0	-1287.0
29	17	16	10	156	127.0	-190557.0	-2815012.0	-1289.0
29	17	16	10	158	128.0	-188134.0	-2815897.0	-1291.0
29	17	16	10	160	129.0	-184585.0	-2817194.0	-1291.0
29	17	16	10	162	130.0	-180482.0	-2819038.0	-1287.0
29	17	16	10	162	131.0	-176704.0	-2821092.0	-1289.0
29	17	16	10	163	132.0	-171767.0	-2822679.0	-1293.0
29	17	16	10	163	133.0	-167465.0	-2824580.0	-1291.0
29	17	16	10	164	134.0	-165305.0	-2826669.0	-1289.0
29	17	16	10	165	135.0	-164911.0	-2828484.0	-1291.0
29	17	16	10	174	136.0	-166016.0	-2834780.0	-1289.0
29	17	16	10	175	137.0	-168683.0	-2848841.0	-1288.0
29	17	16	10	176	138.0	-172356.0	-2852273.0	-1290.0
29	17	16	10	201	139.0	-176204.0	-2853657.0	-1291.0
29	17	16	10	202	140.0	-179807.0	-2854912.0	-1288.0
29	17	16	10	203	141.0	-183476.0	-2857287.0	-1289.0
29	17	16	10	203	142.0	-186870.0	-2859877.0	-1292.0
29	17	16	10	204	143.0	-190537.0	-2862021.0	-1287.0
29	17	16	10	204	144.0	-193878.0	-2864292.0	-1288.0
29	17	16	10	205	145.0	-196844.0	-2866308.0	-1289.0
29	17	16	10	206	146.0	-199264.0	-2867264.0	-1292.0
29	17	16	10	206	147.0	-201051.0	-2867834.0	-1290.0
29	17	16	10	207	148.0	-202527.0	-2868006.0	-1291.0
29	17	16	10	207	149.0	-204032.0	-2868402.0	-1289.0
29	17	16	10	208	150.0	-204935.0	-2869866.0	-1286.0
29	17	16	10	209	151.0	-205617.0	-2871043.0	-1287.0
29	17	16	10	209	152.0	-205953.0	-2871922.0	-1291.0
29	17	16	10	210	153.0	-205722.0	-2873167.0	-1292.0
29	17	16	10	210	154.0	-204917.0	-2874793.0	-1294.0
29	17	16	10	211	155.0	-203270.0	-2875392.0	-1292.0
29	17	16	10	212	156.0	-200871.0	-2875122.0	-1294.0
29	17	16	10	212	157.0	-198309.0	-2875080.0	-1291.0
29	17	16	10	213	158.0	-195781.0	-2875081.0	-1290.0
29	17	16	10	214	159.0	-193856.0	-2874592.0	-1291.0
29	17	16	10	214	160.0	-192486.0	-2874488.0	-1292.0
29	17	16	10	215	161.0	-191577.0	-2875627.0	-1291.0
29	17	16	10	216	162.0	-190842.0	-2878135.0	-1291.0
29	17	16	10	216	163.0	-188876.0	-2880523.0	-1291.0
29	17	16	10	217	164.0	-184102.0	-2881264.0	-1288.0
29	17	16	10	218	165.0	-187237.0	-2880618.0	-1289.0
29	17	16	10	243	166.0	-192702.0	-2881813.0	-1290.0
29	17	16	10	243	167.0	-191649.0	-2883632.0	-1287.0
29	17	16	10	244	168.0	-189706.0	-2885391.0	-1288.0
29	17	16	10	244	169.0	-189711.0	-2886019.0	-1292.0
29	17	16	10	245	170.0	-188959.0	-2887554.0	-1291.0
29	17	16	10	246	171.0	-187670.0	-2888127.0	-1291.0
29	17	16	10	246	172.0	-186911.0	-2879495.0	-1289.0
29	17	16	10	247	173.0	-186566.0	-2875794.0	-1294.0
29	17	16	10	269	174.0	-186479.0	-2877256.0	-1292.0
29	17	16	10	270	175.0	-186704.0	-2879415.0	-1291.0
29	17	16	10	271	176.0	-187155.0	-2882265.0	-1289.0
29	17	16	10	271	177.0	-188132.0	-2885304.0	-1291.0
29	17	16	10	272	178.0	-189379.0	-2887706.0	-1290.0
29	17	16	10	272	179.0	-190324.0	-2889310.0	-1291.0
29	17	16	10	273	180.0	-191356.0	-2890670.0	-1289.0
29	17	16	10	273	181.0	-191790.0	-2896882.0	-1291.0
29	17	16	10	274	182.0	-191344.0	-2908166.0	-1291.0
29	17	16	10	274	183.0	-191995.0	-2911366.0	-1294.0
29	17	16	10	275	184.0	-193511.0	-2913157.0	-1293.0
29	17	16	10	276	185.0	-193969.0	-2914629.0	-1291.0
29	17	16	10	276	186.0	-194351.0	-2914979.0	-1290.0
29	17	16	10	277	187.0	-193836.0	-2916036.0	-1288.0
29	17	16	10	277	188.0	-192898.0	-2916432.0	-1291.0
29	17	16	10	278	189.0	-191659.0	-2916724.0	-1289.0
29	17	16	10	278	190.0	-190511.0	-2919992.0	-1289.0
29	17	16	10	279	191.0	-189468.0	-2933986.0	-1289.0
29	17	16	10	279	192.0	-189514.0	-2940324.0	-1291.0
29	17	16	10	280	193.0	-190232.0	-2940962.0	-1292.0
29	17	16	10	301	194.0	-190714.0	-2939969.0	-1291.0
29	17	16	10	302	195.0	-191171.0	-2936603.0	-1293.0
29	17	16	10	303	196.0	-191754.0	-2933241.0	-1291.0
29	17	16	10	303	197.0	-192234.0	-2928502.0	-1288.0
29	17	16	10	304	198.0	-189879.0	-2923445.0	-1292.0
29	17	16	10	304	199.0	-187358.0	-2914534.0	-1289.0
29	17	16	10	305	200.0	-194441.0	-2899668.0	-1291.0
29	17	16	10	306	201.0	-198611.0	-2888424.0	-1292.0
29	17	16	10	306	202.0	-198723.0	-2876927.0	-1293.0
29	17	16	10	307	203.0	-198583.0	-2857393.0	-1295.0
29	17	16	10	307	204.0	-199319.0	-2842882.0	-1292.0
29	17	16	10	308	205.0	-198896.0	-2823409.0	-1292.0
29	17	16	10	308	206.0	-197952.0	-2798505.0	-1292.0
29	17	16	10	309	207.0	-196493.0	-2780601.0	-1288.0
29	17	16	10	310	208.0	-195032.0	-2758486.0	-1287.0
29	17	16	10	310	209.0	-194017.0	-2726597.0	-1291.0
29	17	16	10	324	210.0	-192919.0	-2697142.0	-1292.0
29	17	16	10	324	211.0	-191956.0	-2677196.0	-1294.0
29	17	16	10	325	212.0	-191137.0	-2653079.0	-1289.0
29	17	16	10	326	213.0	-190987.0	-2623348.0	-1290.0
29	17	16	10	326	214.0	-190453.0	-2579257.0	-1291.0
29	17	16	10	327	215.0	-187332.0	-2549835.0	-1291.0
29	17	16	10	327	216.0	-186431.0	-2514971.0	-1292.0
29	17	16	10	328	217.0	-193260.0	-2474336.0	-1291.0
29	17	16	10	329	218.0	-195736.0	-2446916.0	-1289.0
29	17	16	10	350	219.0	-196266.0	-2426348.0	-1290.0
29	17	16	10	350	220.0	-198557.0	-2408462.0	-1287.0
29	17	16	10	351	221.0	-200056.0	-2387206.0	-1289.0
29	17	16	10	352	222.0	-200442.0	-2360559.0	-1287.0
29	17	16	10	352	223.0	-200721.0	-2325891.0	-1287.0
29	17	16	10	353	224.0	-201936.0	-2288887.0	-1287.0
29	17	16	10	353	225.0	-203039.0	-2260294.0	-1291.0
29	17	16	10	354	226.0	-201155.0	-2235661.0	-1291.0
29	17	16	10	355	227.0	-207305.0	-2204449.0	-1290.0
29	17	16	10	355	228.0	-208744.0	-2165572.0	-1288.0
29	17	16	10	356	229.0	-208269.0	-2118408.0	-1287.0
29	17	16	10	356	230.0	-209682.0	-2042480.0	-1291.0
29	17	16	10	357	231.0	-210652.0	-1977651.0	-1294.0
29	17	16	10	372	232.0	-210646.0	-1931276.0	-1294.0
29	17	16	10	373	233.0	-210159.0	-1889381.0	-1291.0
29	17	16	10	374	234.0	-208601.0	-1850645.0	-1289.0
29	17	16	10	374	235.0	-208202.0	-1795976.0	-1292.0
29	17	16	10	375	236.0	-211450.0	-1728519.0	-1292.0
29	17	16	10	376	237.0	-211611.0	-1646004.0	-1289.0
29	17	16	10	376	238.0	-212423.0	-1546576.0	-1289.0
29	17	16	10	377	239.0	-214327.0	-1448018.0	-1293.0
29	17	16	10	377	240.0	-215956.0	-1356437.0	-1294.0
29	17	16	10	378	241.0	-216301.0	-1300044.0	-1294.0
29	17	16	10	379	242.0	-216957.0	-1257659.0	-1290.0
29	17	16	10	379	243.0	-217775.0	-1213710.0	-1293.0
29	17	16	10	380	244.0	-218834.0	-1168987.0	-1289.0
29	17	16	10	380	245.0	-219958.0	-1123520.0	-1291.0
29	17	16	10	381	246.0	-220897.0	-1085866.0	-1290.0
29	17	16	10	382	247.0	-221509.0	-1049871.0	-1289.0
29	17	16	10	396	248.0	-222001.0	-1013907.0	-1289.0
29	17	16	10	397	249.0	-222972.0	-972417.0	-1289.0
29	17	16	10	398	250.0	-224379.0	-918499.0	-1291.0
29	17	16	10	398	251.0	-225420.0	-871414.0	-1294.0
29	17	16	10	399	252.0	-225308.0	-832578.0	-1290.0
29	17	16	10	399	253.0	-224252.0	-789222.0	-1289.0
29	17	16	10	400	254.0	-222409.0	-755100.0	-1290.0
29	17	16	10	401	255.0	-219981.0	-739684.0	-1294.0
29	17	16	10	419	0.0	-217347.0	-719269.0	-1295.0
29	17	16	10	420	1.0	-214812.0	-695718.0	-1290.0
29	17	16	10	421	2.0	-211409.0	-659911.0	-1289.0
29	17	16	10	421	3.0	-208465.0	-608294.0	-1291.0
29	17	16	10	422	4.0	-206660.0	-541590.0	-1287.0
29	17	16	10	423	5.0	-205227.0	-466617.0	-1287.0
29	17	16	10	423	6.0	-203586.0	-406531.0	-1288.0
29	17	16	10	424	7.0	-201694.0	-365636.0	-1291.0
29	17	16	10	424	8.0	-199691.0	-349607.0	-1292.0
29	17	16	10	425	9.0	-197808.0	-323739.0	-1294.0
29	17	16	10	426	10.0	-196101.0	-291592.0	-1291.0
29	17	16	10	426	11.0	-194424.0	-262498.0	-1289.0
29	17	16	10	427	12.0	-193102.0	-235371.0	-1288.0
29	17	16	10	427	13.0	-191362.0	-217926.0	-1288.0
29	17	16	10	428	14.0	-190192.0	-209877.0	-1291.0
29	17	16	10	441	15.0	-188936.0	-200638.0	-1292.0
29	17	16	10	442	16.0	-187604.0	-190018.0	-1292.0
29	17	16	10	442	17.0	-187356.0	-181591.0	-1290.0
29	17	16	10	443	18.0	-188059.0	-170483.0	-1292.0
29	17	16	10	464	19.0	-189003.0	-148903.0	-1294.0
29	17	16	10	465	20.0	-189704.0	-133677.0	-1294.0
29	17	16	10	465	21.0	-189697.0	-130272.0	-1289.0
29	17	16	10	466	22.0	-191050.0	-128735.0	-1288.0
29	17	16	10	467	23.0	-192444.0	-122492.0	-1286.0
29	17	16	10	467	24.0	-194789.0	-111962.0	-1287.0
29	17	16	10	468	25.0	-197097.0	-94736.0	-1293.0
29	17	16	10	468	26.0	-199117.0	-73091.0	-1294.0
29	17	16	10	469	27.0	-200767.0	-52813.0	-1292.0
29	17	16	10	470	28.0	-202612.0	-21796.0	-1290.0
29	17	16	10	470	29.0	-205744.0	-8608.0	-1294.0
29	17	16	10	471	30.0	-208682.0	-8529.0	-1292.0
29	17	16	10	471	31.0	-210405.0	-5438.0	-1292.0
29	17	16	10	472	32.0	-210049.0	-3276.0	-1291.0
29	17	16	10	473	33.0	-208660.0	-4784.0	-1290.0
29	17	16	10	473	34.0	-207444.0	-3014.0	-1292.0
29	17	16	10	474	35.0	-206036.0	-6181.0	-1289.0
29	17	16	10	474	36.0	-205311.0	943.0	-1291.0
29	17	16	10	486	37.0	-204197.0	474.0	-1293.0
29	17	16	10	486	38.0	-203097.0	-8166.0	-1293.0
29	17	16	10	487	39.0	-199785.0	-8818.0	-1292.0
29	17	16	10	488	40.0	-203182.0	-8850.0	-1288.0
29	17	16	10	488	41.0	-204689.0	-15972.0	-1287.0
29	17	16	10	489	42.0	-206919.0	-24876.0	-1289.0
29	17	16	10	490	43.0	-210184.0	-33454.0	-1291.0
29	17	16	10	490	44.0	-211384.0	-41574.0	-1290.0
29	17	16	10	507	45.0	-214041.0	-49901.0	-1289.0
29	17	16	10	507	46.0	-216124.0	-56856.0	-1291.0
29	17	16	10	508	47.0	-214403.0	-62791.0	-1291.0
29	17	16	10	509	48.0	-211191.0	-68682.0	-1292.0
29	17	16	10	509	49.0	-206667.0	-73251.0	-1295.0
29	17	16	10	510	50.0	-202157.0	-78278.0	-1290.0
29	17	16	10	511	51.0	-198507.0	-86259.0	-1292.0
29	17	16	10	530	52.0	-195116.0	-95650.0	-1288.0
29	17	16	10	531	53.0	-192699.0	-105586.0	-1291.0
29	17	16	10	531	54.0	-190499.0	-115694.0	-1294.0
29	17	16	10	532	55.0	-188297.0	-125388.0	-1292.0
29	17	16	10	532	56.0	-185819.0	-134942.0	-1289.0
29	17	16	10	533	57.0	-184472.0	-144509.0	-1291.0
29	17	16	10	534	58.0	-182086.0	-154060.0	-1292.0
29	17	16	10	534	59.0	-172764.0	-162651.0	-1290.0
29	17	16	10	535	60.0	-177551.0	-171856.0	-1293.0
29	17	16	10	536	61.0	-180939.0	-180886.0	-1293.0
29	17	16	10	536	62.0	-183531.0	-188612.0	-1287.0
29	17	16	10	537	63.0	-186689.0	-197202.0	-1291.0
29	17	16	10	537	64.0	-189144.0	-206473.0	-1291.0
29	17	16	10	538	65.0	-190677.0	-214691.0	-1292.0
29	17	16	10	539	66.0	-191152.0	-221876.0	-1291.0
29	17	16	10	562	67.0	-191668.0	-230782.0	-1291.0
29	17	16	10	562	68.0	-191740.0	-238877.0	-1291.0
29	17	16	10	563	69.0	-191220.0	-246941.0	-1296.0
29	17	16	10	564	70.0	-189054.0	-255467.0	-1295.0
29	17	16	10	564	71.0	-184142.0	-263364.0	-1292.0
29	17	16	10	565	72.0	-175604.0	-268799.0	-1289.0
29	17	16	10	565	73.0	-165893.0	-269240.0	-1289.0
29	17	16	10	566	74.0	-157142.0	-275414.0	-1291.0
29	17	16	10	567	75.0	-150474.0	-283085.0	-1291.0
29	17	16	10	567	76.0	-147022.0	-291559.0	-1290.0
29	17	16	10	568	77.0	-147971.0	-300399.0	-1288.0
29	17	16	10	568	78.0	-152518.0	-309427.0	-1290.0
29	17	16	10	569	79.0	-159892.0	-319514.0	-1293.0
29	17	16	10	569	80.0	-168763.0	-338669.0	-1288.0
29	17	16	10	570	81.0	-178013.0	-353883.0	-1286.0
29	17	16	10	590	82.0	-187672.0	-362859.0	-1292.0
29	17	16	10	591	83.0	-194299.0	-370162.0	-1290.0
29	17	16	10	591	84.0	-193652.0	-377641.0	-1289.0
29	17	16	10	592	85.0	-190943.0	-385691.0	-1292.0
29	17	16	10	593	86.0	-186992.0	-394135.0	-1291.0
29	17	16	10	593	87.0	-185434.0	-401514.0	-1292.0
29	17	16	10	594	88.0	-182490.0	-408636.0	-1291.0
29	17	16	10	595	89.0	-177600.0	-417621.0	-1291.0
29	17	16	10	595	90.0	-172271.0	-435363.0	-1290.0
29	17	16	10	596	91.0	-167763.0	-445913.0	-1293.0
29	17	16	10	596	92.0	-164467.0	-453831.0	-1290.0
29	17	16	10	597	93.0	-162780.0	-463955.0	-1289.0
29	17	16	10	598	94.0	-162432.0	-470817.0	-1289.0
29	17	16	10	598	95.0	-164271.0	-475820.0	-1290.0
29	17	16	10	599	96.0	-169829.0	-481210.0	-1294.0
29	17	16	10	617	97.0	-179672.0	-487611.0	-1292.0
29	17	16	10	617	98.0	-194032.0	-494194.0	-1290.0
29	17	16	10	618	99.0	-212186.0	-501052.0	-1289.0
29	17	16	10	619	100.0	-226632.0	-510057.0	-1291.0
29	17	16	10	619	101.0	-231562.0	-519496.0	-1293.0
29	17	16	10	620	102.0	-228123.0	-523568.0	-1289.0
29	17	16	10	621	103.0	-219925.0	-527831.0	-1286.0
29	17	16	10	621	104.0	-209501.0	-528509.0	-1290.0
29	17	16	10	622	105.0	-199622.0	-522389.0	-1291.0
29	17	16	10	623	106.0	-190129.0	-527661.0	-1290.0
29	17	16	10	623	107.0	-181798.0	-534541.0	-1286.0
29	17	16	10	624	108.0	-176344.0	-541379.0	-1287.0
29	17	16	10	624	109.0	-174390.0	-547499.0	-1288.0
29	17	16	10	625	110.0	-175480.0	-553114.0	-1291.0
29	17	16	10	626	111.0	-178962.0	-558769.0	-1290.0
29	17	16	10	638	112.0	-182598.0	-564487.0	-1285.0
29	17	16	10	639	113.0	-185502.0	-570821.0	-1292.0
29	17	16	10	640	114.0	-187841.0	-577388.0	-1291.0
29	17	16	10	640	115.0	-189522.0	-583829.0	-1290.0
29	17	16	10	641	116.0	-190786.0	-590524.0	-1292.0
29	17	16	10	642	117.0	-191408.0	-597439.0	-1291.0
29	17	16	10	642	118.0	-189779.0	-604133.0	-1290.0
29	17	16	10	643	119.0	-186949.0	-611362.0	-1291.0
29	17	16	10	663	120.0	-184092.0	-618174.0	-1292.0
29	17	16	10	663	121.0	-180861.0	-624410.0	-1291.0
29	17	16	10	664	122.0	-176990.0	-630450.0	-1289.0
29	17	16	10	665	123.0	-173326.0	-636321.0	-1287.0
29	17	16	10	666	124.0	-169206.0	-641986.0	-1290.0
29	17	16	10	666	125.0	-165596.0	-647879.0	-1289.0
29	17	16	10	667	126.0	-162941.0	-653627.0	-1289.0
29	17	16	10	667	127.0	-161552.0	-659552.0	-1289.0
29	17	16	10	668	128.0	-160706.0	-665221.0	-1291.0
29	17	16	10	669	129.0	-159997.0	-670872.0	-1292.0
29	17	16	10	669	130.0	-159125.0	-676367.0	-1291.0
29	17	16	10	670	131.0	-157253.0	-681908.0	-1287.0
29	17	16	10	671	132.0	-154553.0	-686994.0	-1287.0
29	17	16	10	671	133.0	-151781.0	-692059.0	-1289.0
29	17	16	10	672	134.0	-149346.0	-697152.0	-1289.0
29	17	16	10	684	135.0	-147794.0	-702658.0	-1292.0
29	17	16	10	685	136.0	-147704.0	-705514.0	-1290.0
29	17	16	10	686	137.0	-148009.0	-703650.0	-1291.0
29	17	16	10	687	138.0	-148562.0	-707814.0	-1291.0
29	17	16	10	687	139.0	-150067.0	-712807.0	-1289.0
29	17	16	10	688	140.0	-151639.0	-717818.0	-1289.0
29	17	16	10	688	141.0	-153103.0	-723146.0	-1290.0
29	17	16	10	707	142.0	-154592.0	-728484.0	-1291.0
29	17	16	10	707	143.0	-156566.0	-733584.0	-1291.0
29	17	16	10	708	144.0	-158846.0	-738827.0	-1292.0
29	17	16	10	709	145.0	-160395.0	-744287.0	-1294.0
29	17	16	10	709	146.0	-161509.0	-749987.0	-1295.0
29	17	16	10	710	147.0	-161224.0	-757069.0	-1291.0
29	17	16	10	711	148.0	-160432.0	-761862.0	-1289.0
29	17	16	10	711	149.0	-159751.0	-764921.0	-1292.0
29	17	16	10	712	150.0	-158362.0	-769812.0	-1289.0
29	17	16	10	712	151.0	-156651.0	-777299.0	-1289.0
29	17	16	10	713	152.0	-155076.0	-783977.0	-1292.0
29	17	16	10	714	153.0	-153197.0	-788836.0	-1290.0
29	17	16	10	714	154.0	-151678.0	-794079.0	-1290.0
29	17	16	10	715	155.0	-150619.0	-795307.0	-1291.0
29	17	16	10	715	156.0	-149951.0	-787957.0	-1290.0
29	17	16	10	738	157.0	-149484.0	-790785.0	-1293.0
29	17	16	10	739	158.0	-149804.0	-796647.0	-1291.0
29	17	16	10	761	159.0	-151248.0	-803901.0	-1292.0
29	17	16	10	761	160.0	-153676.0	-808907.0	-1290.0
29	17	16	10	762	161.0	-156841.0	-812908.0	-1292.0
29	17	16	10	763	162.0	-159897.0	-816731.0	-1292.0
29	17	16	10	764	163.0	-162634.0	-821749.0	-1292.0
29	17	16	10	764	164.0	-165352.0	-827074.0	-1287.0
29	17	16	10	765	165.0	-168109.0	-832411.0	-1286.0
29	17	16	10	765	166.0	-171427.0	-837786.0	-1293.0
29	17	16	10	766	167.0	-175163.0	-843804.0	-1291.0
29	17	16	10	767	168.0	-179570.0	-850038.0	-1289.0
29	17	16	10	767	169.0	-184491.0	-852817.0	-1289.0
29	17	16	10	768	170.0	-189491.0	-855595.0	-1289.0
29	17	16	10	769	171.0	-194745.0	-854580.0	-1292.0
29	17	16	10	769	172.0	-200038.0	-855376.0	-1291.0
29	17	16	10	770	173.0	-205043.0	-858907.0	-1291.0
29	17	16	10	770	174.0	-208439.0	-862820.0	-1293.0
29	17	16	10	771	175.0	-210507.0	-868204.0	-1290.0
29	17	16	10	772	176.0	-211162.0	-873613.0	-1289.0
29	17	16	10	772	177.0	-210933.0	-878546.0	-1288.0
29	17	16	10	773	178.0	-210115.0	-886397.0	-1289.0
29	17	16	10	773	179.0	-208948.0	-892354.0	-1292.0
29	17	16	10	774	180.0	-207502.0	-896070.0	-1293.0
29	17	16	10	775	181.0	-205712.0	-899884.0	-1291.0
29	17	16	10	775	182.0	-203331.0	-903958.0	-1289.0
29	17	16	10	776	183.0	-200826.0	-908222.0	-1290.0
29	17	16	10	777	184.0	-198392.0	-916962.0	-1294.0
29	17	16	10	778	185.0	-195889.0	-934177.0	-1294.0
29	17	16	10	778	186.0	-193730.0	-940712.0	-1289.0
29	17	16	10	779	187.0	-191614.0	-943551.0	-1287.0
29	17	16	10	787	188.0	-188331.0	-947115.0	-1291.0
29	17	16	10	787	189.0	-184721.0	-951311.0	-1293.0
29	17	16	10	788	190.0	-180931.0	-955422.0	-1292.0
29	17	16	10	789	191.0	-177492.0	-958897.0	-1293.0
29	17	16	10	790	192.0	-174489.0	-961175.0	-1291.0
29	17	16	10	790	193.0	-171403.0	-963919.0	-1291.0
29	17	16	10	810	194.0	-168534.0	-968305.0	-1291.0
29	17	16	10	810	195.0	-165694.0	-975320.0	-1289.0
29	17	16	10	811	196.0	-162777.0	-979704.0	-1290.0
29	17	16	10	812	197.0	-160351.0	-981724.0	-1290.0
29	17	16	10	812	198.0	-157417.0	-986303.0	-1291.0
29	17	16	10	813	199.0	-154551.0	-990070.0	-1290.0
29	17	16	10	814	200.0	-152282.0	-994164.0	-1293.0
29	17	16	10	814	201.0	-149978.0	-1003649.0	-1291.0
29	17	16	10	815	202.0	-148820.0	-1016089.0	-1294.0
29	17	16	10	816	203.0	-149928.0	-1020523.0	-1291.0
29	17	16	10	816	204.0	-152302.0	-1026354.0	-1289.0
29	17	16	10	817	205.0	-155419.0	-1032687.0	-1289.0
29	17	16	10	818	206.0	-159443.0	-1035802.0	-1288.0
29	17	16	10	818	207.0	-164810.0	-1038697.0	-1292.0
29	17	16	10	819	208.0	-170916.0	-1041625.0	-1291.0
29	17	16	10	820	209.0	-177761.0	-1044417.0	-1289.0
29	17	16	10	831	210.0	-184801.0	-1047152.0	-1290.0
29	17	16	10	832	211.0	-191670.0	-1049209.0	-1288.0
29	17	16	10	832	212.0	-197927.0	-1049429.0	-1289.0
29	17	16	10	833	213.0	-204089.0	-1052865.0	-1291.0
29	17	16	10	833	214.0	-210353.0	-1057103.0	-1291.0
29	17	16	10	857	215.0	-216291.0	-1062307.0	-1290.0
29	17	16	10	858	216.0	-222172.0	-1068505.0	-1291.0
29	17	16	10	859	217.0	-226917.0	-1072888.0	-1289.0
29	17	16	10	860	218.0	-231783.0	-1076786.0	-1287.0
29	17	16	10	860	219.0	-235865.0	-1079792.0	-1288.0
29	17	16	10	861	220.0	-239413.0	-1081669.0	-1292.0
29	17	16	10	862	221.0	-242552.0	-1080974.0	-1291.0
29	17	16	10	862	222.0	-244831.0	-1082290.0	-1292.0
29	17	16	10	863	223.0	-246493.0	-1083421.0	-1292.0
29	17	16	10	864	224.0	-247652.0	-1086204.0	-1290.0
29	17	16	10	864	225.0	-248510.0	-1089644.0	-1291.0
29	17	16	10	865	226.0	-248874.0	-1093236.0	-1292.0
29	17	16	10	865	227.0	-248663.0	-1097365.0	-1291.0
29	17	16	10	866	228.0	-247399.0	-1101125.0	-1289.0
29	17	16	10	867	229.0	-245302.0	-1104836.0	-1289.0
29	17	16	10	867	230.0	-242624.0	-1115979.0	-1289.0
29	17	16	10	877	231.0	-239420.0	-1128075.0	-1291.0
29	17	16	10	878	232.0	-235756.0	-1130993.0	-1293.0
29	17	16	10	878	233.0	-231939.0	-1135013.0	-1293.0
29	17	16	10	879	234.0	-227842.0	-1139755.0	-1294.0
29	17	16	10	879	235.0	-223302.0	-1142679.0	-1289.0
29	17	16	10	880	236.0	-218546.0	-1145297.0	-1289.0
29	17	16	10	881	237.0	-213637.0	-1149008.0	-1291.0
29	17	16	10	881	238.0	-208592.0	-1151884.0	-1289.0
29	17	16	10	882	239.0	-203635.0	-1153314.0	-1292.0
29	17	16	10	899	240.0	-198866.0	-1154836.0	-1294.0
29	17	16	10	900	241.0	-194382.0	-1157466.0	-1292.0
29	17	16	10	901	242.0	-190337.0	-1161591.0	-1293.0
29	17	16	10	902	243.0	-186778.0	-1167572.0	-1292.0
29	17	16	10	903	244.0	-182577.0	-1171586.0	-1293.0
29	17	16	10	903	245.0	-179258.0	-1175446.0	-1296.0
29	17	16	10	904	246.0	-175270.0	-1178887.0	-1293.0
29	17	16	10	905	247.0	-164840.0	-1180856.0	-1289.0
29	17	16	10	905	248.0	-154283.0	-1181530.0	-1290.0
29	17	16	10	906	249.0	-153069.0	-1184417.0	-1292.0
29	17	16	10	907	250.0	-158827.0	-1186881.0	-1291.0
29	17	16	10	908	251.0	-164722.0	-1189094.0	-1290.0
29	17	16	10	908	252.0	-166514.0	-1184469.0	-1294.0
29	17	16	10	909	253.0	-166732.0	-1181386.0	-1291.0
29	17	16	10	909	254.0	-166786.0	-1188066.0	-1297.0
29	17	16	10	920	255.0	-164656.0	-1205431.0	-1831.0
29	17	16	10	921	0.0	-160429.0	-1212461.0	-4539.0
29	17	16	10	922	1.0	-155724.0	-1215762.0	-12789.0
29	17	16	10	922	2.0	-149915.0	-1218682.0	-33366.0
29	17	16	10	923	3.0	-143629.0	-1221258.0	-68089.0
29	17	16	10	924	4.0	-137637.0	-1222730.0	-179014.0
29	17	16	10	924	5.0	-132925.0	-1218321.0	-572771.0
29	17	16	10	947	6.0	-130052.0	-1215001.0	-970196.0
