29	17	46	34	883	30.0	-259476.0	-9.0	-16297.0
29	17	46	34	885	31.0	-265076.0	6.0	-16200.0
29	17	46	34	886	32.0	-269961.0	5.0	-12822.0
29	17	46	34	888	33.0	-274471.0	17.0	-8574.0
29	17	46	34	889	34.0	-276621.0	15.0	-7983.0
29	17	46	34	891	35.0	-275424.0	24.0	-6202.0
29	17	46	34	900	36.0	-272610.0	30.0	-3702.0
29	17	46	34	901	37.0	-266842.0	48.0	-1231.0
29	17	46	34	902	38.0	-255958.0	33.0	2461.0
29	17	46	34	902	39.0	-243431.0	60.0	7506.0
29	17	46	34	903	40.0	-230884.0	68.0	9863.0
29	17	46	34	904	41.0	-216568.0	67.0	11787.0
29	17	46	34	905	42.0	-204072.0	93.0	15759.0
29	17	46	34	906	43.0	-194073.0	118.0	17920.0
29	17	46	34	907	44.0	-181717.0	128.0	17778.0
29	17	46	34	933	45.0	-170874.0	129.0	16592.0
29	17	46	34	934	46.0	-163410.0	143.0	16817.0
29	17	46	34	935	47.0	-152969.0	168.0	16961.0
29	17	46	34	936	48.0	-146023.0	193.0	15381.0
29	17	46	34	937	49.0	-143685.0	211.0	15931.0
29	17	46	34	938	50.0	-139656.0	214.0	16920.0
29	17	46	34	939	51.0	-142215.0	224.0	16989.0
29	17	46	34	940	52.0	-150850.0	229.0	14323.0
29	17	46	35	39	53.0	-150171.0	231.0	10649.0
29	17	46	35	40	54.0	-140022.0	246.0	7351.0
29	17	46	35	41	55.0	-126476.0	249.0	3701.0
29	17	46	35	42	56.0	-108201.0	283.0	699.0
29	17	46	35	43	57.0	-92542.0	308.0	-547.0
29	17	46	35	44	58.0	-86996.0	331.0	-1581.0
29	17	46	35	46	59.0	-90051.0	363.0	-3494.0
29	17	46	35	46	60.0	-98997.0	372.0	-3413.0
29	17	46	35	48	61.0	-119588.0	380.0	-3991.0
29	17	46	35	49	62.0	-150597.0	373.0	-5331.0
29	17	46	35	50	63.0	-184116.0	381.0	-6794.0
29	17	46	35	51	64.0	-219917.0	397.0	-7270.0
29	17	46	35	52	65.0	-255089.0	414.0	-6534.0
29	17	46	35	54	66.0	-281825.0	394.0	-6037.0
29	17	46	35	55	67.0	-302917.0	387.0	-5978.0
29	17	46	35	56	68.0	-322686.0	392.0	-6394.0
29	17	46	35	57	112.0	-142872.0	428.0	-12059.0
29	17	46	35	58	113.0	-152451.0	424.0	-12374.0
29	17	46	35	60	114.0	-162658.0	433.0	-12352.0
29	17	46	35	61	115.0	-177776.0	443.0	-13267.0
29	17	46	35	62	116.0	-193462.0	449.0	-13972.0
29	17	46	35	64	117.0	-205327.0	466.0	-14200.0
29	17	46	35	65	118.0	-217724.0	489.0	-14551.0
29	17	46	35	85	119.0	-233517.0	498.0	-15868.0
29	17	46	35	86	120.0	-241669.0	519.0	-16239.0
29	17	46	35	88	121.0	-245474.0	526.0	-16164.0
29	17	46	35	90	122.0	-251546.0	518.0	-15496.0
29	17	46	35	92	123.0	-257886.0	509.0	-15729.0
29	17	46	35	94	124.0	-256204.0	526.0	-16262.0
29	17	46	35	95	125.0	-254312.0	531.0	-17049.0
29	17	46	35	97	126.0	-257457.0	554.0	-17652.0
29	17	46	35	98	127.0	-253484.0	556.0	-17207.0
29	17	46	35	100	128.0	-247440.0	546.0	-17546.0
29	17	46	35	101	129.0	-248982.0	564.0	-17448.0
29	17	46	35	102	130.0	-247379.0	558.0	-17765.0
29	17	46	35	104	131.0	-240516.0	563.0	-18327.0
29	17	46	35	106	132.0	-241171.0	557.0	-19033.0
29	17	46	35	107	133.0	-241963.0	588.0	-20312.0
29	17	46	35	109	134.0	-235150.0	606.0	-20357.0
29	17	46	35	110	135.0	-235512.0	612.0	-20662.0
29	17	46	35	112	136.0	-238167.0	628.0	-20365.0
29	17	46	35	113	137.0	-233586.0	663.0	-20309.0
29	17	46	35	115	138.0	-236731.0	668.0	-20069.0
29	17	46	35	117	139.0	-239716.0	689.0	-19834.0
29	17	46	35	119	140.0	-234662.0	730.0	-20305.0
29	17	46	35	129	141.0	-239056.0	745.0	-20610.0
29	17	46	35	131	142.0	-239964.0	772.0	-20615.0
29	17	46	35	133	143.0	-235167.0	790.0	-21154.0
29	17	46	35	134	144.0	-240507.0	819.0	-21851.0
29	17	46	35	136	145.0	-236267.0	854.0	-21959.0
29	17	46	35	138	146.0	-228693.0	865.0	-22704.0
29	17	46	35	139	147.0	-226764.0	859.0	-25004.0
29	17	46	35	141	148.0	-210680.0	864.0	-26314.0
29	17	46	35	142	149.0	-201048.0	902.0	-25432.0
29	17	46	35	143	150.0	-191821.0	914.0	-25186.0
29	17	46	35	145	151.0	-174750.0	919.0	-26331.0
29	17	46	35	146	152.0	-170829.0	933.0	-25996.0
29	17	46	35	147	153.0	-157284.0	952.0	-25559.0
29	17	46	35	148	154.0	-147238.0	974.0	-26593.0
29	17	46	35	149	155.0	-142869.0	986.0	-27431.0
29	17	46	35	150	157.0	-130547.0	1032.0	-27695.0
29	17	46	35	150	158.0	-121478.0	1068.0	-27996.0
29	17	46	35	151	159.0	-117364.0	1123.0	-28255.0
29	17	46	35	151	160.0	-115698.0	1121.0	-28315.0
29	17	46	35	152	161.0	-107799.0	1133.0	-28053.0
29	17	46	35	153	162.0	-113049.0	1174.0	-28561.0
29	17	46	35	173	163.0	-108438.0	1205.0	-28378.0
29	17	46	35	174	164.0	-115454.0	1227.0	-27474.0
29	17	46	35	175	165.0	-119815.0	1238.0	-26904.0
29	17	46	35	175	166.0	-125184.0	1248.0	-26492.0
29	17	46	35	176	167.0	-137928.0	1242.0	-26070.0
29	17	46	35	177	168.0	-142176.0	1271.0	-25661.0
29	17	46	35	177	169.0	-159219.0	1287.0	-25410.0
29	17	46	35	178	170.0	-165281.0	1303.0	-25274.0
29	17	46	35	178	171.0	-178167.0	1296.0	-25805.0
29	17	46	35	179	172.0	-187907.0	1290.0	-26120.0
29	17	46	35	179	173.0	-194292.0	1323.0	-25979.0
29	17	46	35	180	174.0	-207630.0	1344.0	-26182.0
29	17	46	35	203	175.0	-213044.0	1343.0	-25930.0
29	17	46	35	204	176.0	-225581.0	1348.0	-25638.0
29	17	46	35	204	177.0	-233580.0	1370.0	-25338.0
29	17	46	35	205	179.0	-247736.0	1403.0	-25744.0
29	17	46	35	205	180.0	-250421.0	1404.0	-25368.0
29	17	46	35	206	181.0	-252161.0	1414.0	-24899.0
29	17	46	35	206	182.0	-251152.0	1419.0	-25236.0
29	17	46	35	206	183.0	-248562.0	1441.0	-25584.0
29	17	46	35	207	184.0	-245287.0	1465.0	-26469.0
29	17	46	35	207	185.0	-241193.0	1479.0	-28159.0
29	17	46	35	217	186.0	-236691.0	1509.0	-28539.0
29	17	46	35	217	187.0	-231791.0	1558.0	-28529.0
29	17	46	35	218	188.0	-226937.0	1586.0	-28744.0
29	17	46	35	218	189.0	-222779.0	1595.0	-28817.0
29	17	46	35	219	190.0	-219452.0	1629.0	-29605.0
29	17	46	35	227	191.0	-216584.0	1631.0	-29454.0
29	17	46	35	228	192.0	-213830.0	1661.0	-29034.0
29	17	46	35	228	193.0	-210622.0	1663.0	-28624.0
29	17	46	35	229	194.0	-206249.0	1656.0	-29351.0
29	17	46	35	229	195.0	-201579.0	1648.0	-30046.0
29	17	46	35	230	196.0	-196902.0	1662.0	-29462.0
29	17	46	35	230	197.0	-191858.0	1653.0	-29737.0
29	17	46	35	230	198.0	-186706.0	1666.0	-31047.0
29	17	46	35	231	199.0	-182158.0	1688.0	-32376.0
29	17	46	35	231	200.0	-177795.0	1705.0	-32219.0
29	17	46	35	231	202.0	-173499.0	1717.0	-32900.0
29	17	46	35	232	203.0	-174247.0	1749.0	-33509.0
29	17	46	35	232	204.0	-172227.0	1781.0	-33711.0
29	17	46	35	232	205.0	-176204.0	1804.0	-33637.0
29	17	46	35	233	206.0	-178757.0	1801.0	-33836.0
29	17	46	35	233	207.0	-171049.0	1811.0	-34059.0
29	17	46	35	262	208.0	-173299.0	1826.0	-34851.0
29	17	46	35	262	209.0	-148911.0	1851.0	-35484.0
29	17	46	35	263	210.0	-119484.0	1881.0	-35134.0
29	17	46	35	263	211.0	-112805.0	1888.0	-34782.0
29	17	46	35	278	212.0	-118224.0	1933.0	-35331.0
29	17	46	35	279	213.0	-151656.0	1938.0	-35934.0
29	17	46	35	279	214.0	-174707.0	1925.0	-35661.0
29	17	46	35	280	215.0	-190333.0	1944.0	-36181.0
29	17	46	35	280	216.0	-207976.0	1951.0	-36172.0
29	17	46	35	281	217.0	-213868.0	1944.0	-36538.0
29	17	46	35	281	218.0	-226991.0	1949.0	-36870.0
29	17	46	35	281	219.0	-234075.0	1944.0	-37104.0
29	17	46	35	282	220.0	-233050.0	1938.0	-36878.0
29	17	46	35	282	221.0	-233127.0	1931.0	-35451.0
29	17	46	35	283	222.0	-228654.0	1914.0	-36019.0
29	17	46	35	283	224.0	-209016.0	1944.0	-42429.0
29	17	46	35	284	225.0	-197963.0	1949.0	-46784.0
29	17	46	35	284	226.0	-185499.0	1950.0	-53337.0
29	17	46	35	284	227.0	-173794.0	1974.0	-55349.0
29	17	46	35	285	228.0	-161663.0	1966.0	-57373.0
29	17	46	35	285	229.0	-151086.0	1960.0	-59736.0
29	17	46	35	286	230.0	-141667.0	1963.0	-61504.0
29	17	46	35	308	231.0	-136990.0	1979.0	-62471.0
29	17	46	35	308	232.0	-142256.0	1991.0	-63861.0
29	17	46	35	309	233.0	-158100.0	1969.0	-64676.0
29	17	46	35	309	234.0	-180897.0	1949.0	-65445.0
29	17	46	35	310	235.0	-205638.0	1946.0	-66806.0
29	17	46	35	310	236.0	-225799.0	1933.0	-68195.0
29	17	46	35	311	237.0	-238475.0	1922.0	-69433.0
29	17	46	35	311	238.0	-244546.0	1909.0	-68424.0
29	17	46	35	311	239.0	-245851.0	1916.0	-69749.0
29	17	46	35	312	240.0	-243547.0	1889.0	-72087.0
29	17	46	35	313	241.0	-238637.0	1900.0	-72600.0
29	17	46	35	314	242.0	-232342.0	1910.0	-72915.0
29	17	46	35	314	243.0	-224992.0	1876.0	-73434.0
29	17	46	35	315	244.0	-217030.0	1856.0	-74308.0
29	17	46	35	316	245.0	-209933.0	1843.0	-74909.0
29	17	46	35	316	247.0	-198301.0	1861.0	-75157.0
29	17	46	35	317	248.0	-194531.0	1846.0	-75255.0
29	17	46	35	317	249.0	-191202.0	1843.0	-76236.0
29	17	46	35	318	250.0	-188465.0	1841.0	-76781.0
29	17	46	35	329	251.0	-187002.0	1869.0	-75737.0
29	17	46	35	330	252.0	-186388.0	1861.0	-76028.0
29	17	46	35	353	253.0	-191942.0	1869.0	-77403.0
29	17	46	35	354	254.0	-194938.0	1889.0	-78082.0
29	17	46	35	444	255.0	-199629.0	1878.0	-78399.0
29	17	46	35	444	0.0	-208713.0	1878.0	-79589.0
29	17	46	35	445	1.0	-207168.0	1865.0	-81117.0
29	17	46	35	446	2.0	-215045.0	1870.0	-82627.0
29	17	46	35	447	3.0	-218759.0	1879.0	-86535.0
29	17	46	35	448	4.0	-217529.0	1884.0	-89015.0
29	17	46	35	448	5.0	-225507.0	1873.0	-89632.0
29	17	46	35	448	6.0	-222483.0	1857.0	-91757.0
29	17	46	35	449	7.0	-221246.0	1851.0	-93164.0
29	17	46	35	449	8.0	-224521.0	1839.0	-93270.0
29	17	46	35	450	9.0	-215594.0	1853.0	-93889.0
29	17	46	35	450	10.0	-214759.0	1854.0	-94054.0
29	17	46	35	451	11.0	-211864.0	1863.0	-94837.0
29	17	46	35	452	13.0	-203716.0	1841.0	-96383.0
29	17	46	35	452	14.0	-198436.0	1838.0	-96731.0
29	17	46	35	453	35.0	-174097.0	1678.0	-102959.0
29	17	46	35	453	58.0	-188244.0	1348.0	-104336.0
29	17	46	35	453	59.0	-196891.0	1336.0	-104331.0
29	17	46	35	454	60.0	-199296.0	1326.0	-104284.0
29	17	46	35	454	61.0	-198686.0	1308.0	-104272.0
29	17	46	35	455	62.0	-208766.0	1287.0	-104893.0
29	17	46	35	455	63.0	-210979.0	1261.0	-104834.0
29	17	46	35	488	64.0	-211834.0	1237.0	-105127.0
29	17	46	35	488	65.0	-220665.0	1224.0	-104929.0
29	17	46	35	490	66.0	-220387.0	1219.0	-104568.0
29	17	46	35	491	67.0	-219706.0	1178.0	-104172.0
29	17	46	35	492	68.0	-226804.0	1138.0	-103833.0
29	17	46	35	492	69.0	-225329.0	1132.0	-103621.0
29	17	46	35	493	70.0	-223753.0	1098.0	-103163.0
29	17	46	35	493	71.0	-230630.0	1079.0	-103124.0
29	17	46	35	494	72.0	-229794.0	1076.0	-104564.0
29	17	46	35	494	73.0	-227831.0	1070.0	-103989.0
29	17	46	35	495	74.0	-233052.0	1043.0	-103396.0
29	17	46	35	495	75.0	-229620.0	994.0	-104401.0
29	17	46	35	496	76.0	-223319.0	984.0	-104871.0
29	17	46	35	497	77.0	-223531.0	946.0	-105449.0
29	17	46	35	498	78.0	-216946.0	942.0	-105305.0
29	17	46	35	498	79.0	-206297.0	923.0	-104304.0
29	17	46	35	499	81.0	-195126.0	922.0	-103831.0
29	17	46	35	500	82.0	-183299.0	911.0	-104269.0
29	17	46	35	500	83.0	-179021.0	925.0	-104262.0
29	17	46	35	501	84.0	-176552.0	916.0	-103304.0
29	17	46	35	501	85.0	-169043.0	903.0	-103671.0
29	17	46	35	502	86.0	-167412.0	899.0	-103676.0
29	17	46	35	579	87.0	-171286.0	891.0	-103651.0
29	17	46	35	580	88.0	-168734.0	878.0	-103581.0
29	17	46	35	580	89.0	-168549.0	845.0	-103619.0
29	17	46	35	581	90.0	-174179.0	804.0	-103737.0
29	17	46	35	582	91.0	-173402.0	768.0	-104126.0
29	17	46	35	583	92.0	-171594.0	756.0	-104629.0
29	17	46	35	584	93.0	-176094.0	744.0	-104509.0
29	17	46	35	584	94.0	-177688.0	743.0	-104102.0
29	17	46	35	585	95.0	-175264.0	736.0	-104534.0
29	17	46	35	585	96.0	-177865.0	722.0	-105022.0
29	17	46	35	586	97.0	-181917.0	728.0	-105493.0
29	17	46	35	586	98.0	-179946.0	713.0	-104634.0
29	17	46	35	587	99.0	-179956.0	708.0	-103524.0
29	17	46	35	587	100.0	-185071.0	699.0	-103507.0
29	17	46	35	588	101.0	-184179.0	677.0	-104079.0
29	17	46	35	589	125.0	-197639.0	389.0	-100361.0
29	17	46	35	590	126.0	-202790.0	359.0	-100564.0
29	17	46	35	590	127.0	-207450.0	368.0	-100969.0
29	17	46	35	591	128.0	-207977.0	361.0	-101188.0
29	17	46	35	592	129.0	-211946.0	375.0	-101402.0
29	17	46	35	592	130.0	-217146.0	374.0	-100923.0
29	17	46	35	593	131.0	-216838.0	355.0	-100367.0
29	17	46	35	623	132.0	-216449.0	371.0	-101114.0
29	17	46	35	624	133.0	-218829.0	383.0	-102499.0
29	17	46	35	624	134.0	-218443.0	379.0	-102227.0
29	17	46	35	625	135.0	-216566.0	388.0	-101737.0
29	17	46	35	625	136.0	-217724.0	411.0	-100623.0
29	17	46	35	626	137.0	-218635.0	409.0	-101020.0
29	17	46	35	627	138.0	-216335.0	424.0	-101082.0
29	17	46	35	628	139.0	-213754.0	423.0	-101636.0
29	17	46	35	629	140.0	-211471.0	431.0	-101302.0
29	17	46	35	629	141.0	-206539.0	423.0	-100782.0
29	17	46	35	630	142.0	-200420.0	417.0	-101164.0
29	17	46	35	630	143.0	-195889.0	386.0	-101561.0
29	17	46	35	631	144.0	-191923.0	383.0	-101749.0
29	17	46	35	631	145.0	-188059.0	376.0	-100852.0
29	17	46	35	632	146.0	-186186.0	378.0	-100757.0
29	17	46	35	632	148.0	-186872.0	366.0	-102046.0
29	17	46	35	633	149.0	-187542.0	348.0	-101256.0
29	17	46	35	633	150.0	-189185.0	356.0	-101259.0
29	17	46	35	634	151.0	-190656.0	359.0	-102322.0
29	17	46	35	634	152.0	-191807.0	357.0	-101744.0
29	17	46	35	635	153.0	-193058.0	361.0	-100366.0
29	17	46	35	669	154.0	-194801.0	361.0	-100122.0
29	17	46	35	669	155.0	-196992.0	349.0	-100467.0
29	17	46	35	670	156.0	-198482.0	349.0	-100582.0
29	17	46	35	671	157.0	-199567.0	330.0	-100673.0
29	17	46	35	671	158.0	-200146.0	326.0	-99927.0
29	17	46	35	672	159.0	-200009.0	309.0	-99379.0
29	17	46	35	673	160.0	-199989.0	294.0	-100149.0
29	17	46	35	673	161.0	-199401.0	283.0	-100941.0
29	17	46	35	674	162.0	-197992.0	270.0	-100384.0
29	17	46	35	674	163.0	-195782.0	248.0	-99546.0
29	17	46	35	675	164.0	-194501.0	237.0	-99050.0
29	17	46	35	675	165.0	-194036.0	194.0	-99309.0
29	17	46	35	676	166.0	-194112.0	186.0	-99913.0
29	17	46	35	677	167.0	-194882.0	165.0	-99684.0
29	17	46	35	677	168.0	-197331.0	146.0	-98710.0
29	17	46	35	678	170.0	-204373.0	134.0	-99569.0
29	17	46	35	678	171.0	-208507.0	87.0	-100821.0
29	17	46	35	679	172.0	-212412.0	76.0	-100931.0
29	17	46	35	679	173.0	-215511.0	64.0	-101553.0
29	17	46	35	680	174.0	-216367.0	43.0	-102022.0
29	17	46	35	680	175.0	-216661.0	16.0	-103348.0
29	17	46	35	713	176.0	-215411.0	26.0	-105617.0
29	17	46	35	714	177.0	-213199.0	11.0	-108116.0
29	17	46	35	715	178.0	-209937.0	33.0	-108972.0
29	17	46	35	715	179.0	-206049.0	3.0	-109774.0
29	17	46	35	716	180.0	-201981.0	-19.0	-110609.0
29	17	46	35	717	181.0	-199012.0	-13.0	-111503.0
29	17	46	35	717	182.0	-197808.0	0.0	-112792.0
29	17	46	35	718	183.0	-198442.0	-39.0	-111342.0
29	17	46	35	718	184.0	-199339.0	-38.0	-111624.0
29	17	46	35	719	185.0	-200952.0	-29.0	-109677.0
29	17	46	35	720	186.0	-202681.0	-78.0	-103594.0
29	17	46	35	720	187.0	-204992.0	-91.0	-99927.0
29	17	46	35	721	188.0	-207890.0	-92.0	-98149.0
29	17	46	35	721	189.0	-210383.0	-104.0	-95981.0
29	17	46	35	722	190.0	-211821.0	-142.0	-93392.0
29	17	46	35	723	192.0	-212844.0	-193.0	-84779.0
29	17	46	35	724	193.0	-211817.0	-209.0	-81356.0
29	17	46	35	724	194.0	-209852.0	-203.0	-79314.0
29	17	46	35	725	195.0	-207239.0	-217.0	-76354.0
29	17	46	35	725	196.0	-204209.0	-232.0	-72826.0
29	17	46	35	726	197.0	-201352.0	-239.0	-71104.0
29	17	46	35	726	198.0	-198489.0	-251.0	-70433.0
29	17	46	35	758	199.0	-194870.0	-257.0	-72031.0
29	17	46	35	760	200.0	-190487.0	-263.0	-73767.0
29	17	46	35	760	201.0	-185956.0	-282.0	-74157.0
29	17	46	35	762	202.0	-182259.0	-291.0	-73860.0
29	17	46	35	763	203.0	-180370.0	-302.0	-73048.0
29	17	46	35	764	204.0	-180216.0	-310.0	-73627.0
29	17	46	35	765	205.0	-181929.0	-311.0	-76589.0
29	17	46	35	765	206.0	-181430.0	-332.0	-79947.0
29	17	46	35	766	207.0	-170226.0	-346.0	-83756.0
29	17	46	35	766	208.0	-147737.0	-343.0	-86752.0
29	17	46	35	767	209.0	-121689.0	-333.0	-89422.0
29	17	46	35	768	210.0	-100452.0	-334.0	-90510.0
29	17	46	35	768	211.0	-88006.0	-349.0	-91877.0
29	17	46	35	769	212.0	-87682.0	-362.0	-92417.0
29	17	46	35	769	213.0	-100024.0	-353.0	-92651.0
29	17	46	35	770	215.0	-151344.0	-366.0	-95429.0
29	17	46	35	771	216.0	-184799.0	-372.0	-96344.0
29	17	46	35	771	217.0	-220292.0	-373.0	-96314.0
29	17	46	35	772	218.0	-252254.0	-360.0	-96639.0
29	17	46	35	772	219.0	-277876.0	-346.0	-97194.0
29	17	46	35	773	220.0	-296479.0	-344.0	-97222.0
29	17	46	35	803	221.0	-306636.0	-353.0	-94990.0
29	17	46	35	804	222.0	-306332.0	-380.0	-94090.0
29	17	46	35	805	223.0	-294775.0	-372.0	-93709.0
29	17	46	35	806	224.0	-276727.0	-378.0	-93151.0
29	17	46	35	848	225.0	-258970.0	-392.0	-93906.0
29	17	46	35	849	226.0	-243922.0	-401.0	-94589.0
29	17	46	35	850	227.0	-234056.0	-412.0	-93877.0
29	17	46	35	850	228.0	-228884.0	-419.0	-93777.0
29	17	46	35	851	229.0	-211876.0	-423.0	-94377.0
29	17	46	35	852	230.0	-178873.0	-439.0	-94949.0
29	17	46	35	853	231.0	-157597.0	-417.0	-94665.0
29	17	46	35	854	232.0	-147348.0	-439.0	-94688.0
29	17	46	35	855	233.0	-139809.0	-449.0	-95485.0
29	17	46	35	856	234.0	-138526.0	-452.0	-95708.0
29	17	46	35	857	235.0	-151380.0	-456.0	-95180.0
29	17	46	35	858	237.0	-208332.0	-451.0	-94831.0
29	17	46	35	858	238.0	-235266.0	-460.0	-94732.0
29	17	46	35	859	239.0	-253907.0	-449.0	-95182.0
29	17	46	35	859	240.0	-261146.0	-462.0	-95954.0
29	17	46	35	860	4.0	-109973.0	-528.0	-97899.0
29	17	46	35	861	5.0	-111456.0	-517.0	-97554.0
29	17	46	35	861	6.0	-113350.0	-514.0	-97216.0
29	17	46	35	862	7.0	-115710.0	-489.0	-96646.0
29	17	46	35	862	8.0	-119556.0	-474.0	-95824.0
29	17	46	35	863	9.0	-124994.0	-474.0	-95546.0
29	17	46	35	892	10.0	-132507.0	-478.0	-95189.0
29	17	46	35	893	11.0	-142276.0	-473.0	-94883.0
29	17	46	35	894	12.0	-153877.0	-476.0	-94644.0
29	17	46	35	895	13.0	-167233.0	-491.0	-93972.0
29	17	46	35	896	14.0	-180117.0	-474.0	-92823.0
29	17	46	35	896	15.0	-192102.0	-511.0	-92711.0
29	17	46	35	897	16.0	-201280.0	-514.0	-92724.0
29	17	46	35	898	17.0	-207366.0	-506.0	-92005.0
29	17	46	35	898	18.0	-211077.0	-494.0	-90371.0
29	17	46	35	899	19.0	-213196.0	-490.0	-89107.0
29	17	46	35	899	20.0	-213214.0	-518.0	-88414.0
29	17	46	35	900	21.0	-212553.0	-522.0	-87619.0
29	17	46	35	901	22.0	-212002.0	-524.0	-86642.0
29	17	46	35	901	23.0	-211521.0	-534.0	-85312.0
29	17	46	35	902	24.0	-212032.0	-516.0	-83595.0
29	17	46	35	903	26.0	-216793.0	-482.0	-82104.0
29	17	46	35	903	27.0	-220401.0	-471.0	-82119.0
29	17	46	35	904	28.0	-224036.0	-439.0	-81387.0
29	17	46	35	905	29.0	-227406.0	-429.0	-80152.0
29	17	46	35	905	30.0	-229744.0	-417.0	-79480.0
29	17	46	35	906	31.0	-230936.0	-389.0	-77864.0
29	17	46	35	906	32.0	-231738.0	-369.0	-76142.0
29	17	46	35	938	33.0	-232169.0	-364.0	-74330.0
29	17	46	35	939	34.0	-231939.0	-335.0	-73901.0
29	17	46	35	940	35.0	-230796.0	-316.0	-72177.0
29	17	46	35	941	36.0	-228749.0	-320.0	-68314.0
29	17	46	35	941	37.0	-226393.0	-281.0	-65714.0
29	17	46	35	942	38.0	-223514.0	-261.0	-64774.0
29	17	46	35	943	39.0	-220118.0	-237.0	-63971.0
29	17	46	35	943	40.0	-216113.0	-237.0	-62984.0
29	17	46	35	944	41.0	-212538.0	-236.0	-61769.0
29	17	46	35	945	42.0	-209977.0	-226.0	-60291.0
29	17	46	35	945	43.0	-207507.0	-236.0	-59869.0
29	17	46	35	946	44.0	-204547.0	-236.0	-59868.0
29	17	46	35	947	45.0	-201719.0	-212.0	-59602.0
29	17	46	35	947	46.0	-199439.0	-184.0	-58490.0
29	17	46	35	948	47.0	-197669.0	-175.0	-57616.0
29	17	46	35	948	49.0	-196804.0	-174.0	-56803.0
29	17	46	35	949	50.0	-196831.0	-141.0	-55782.0
29	17	46	35	983	51.0	-195081.0	-143.0	-55157.0
29	17	46	35	984	52.0	-192024.0	-127.0	-54349.0
29	17	46	35	985	53.0	-188283.0	-104.0	-54448.0
29	17	46	35	986	54.0	-184764.0	-94.0	-53796.0
29	17	46	35	987	55.0	-182360.0	-67.0	-52622.0
29	17	46	35	987	56.0	-179966.0	-89.0	-52562.0
29	17	46	35	988	57.0	-176766.0	-114.0	-52277.0
29	17	46	35	989	58.0	-174295.0	-120.0	-52819.0
29	17	46	35	990	59.0	-172390.0	-149.0	-52442.0
29	17	46	35	991	60.0	-171593.0	-157.0	-51254.0
29	17	46	35	992	61.0	-171388.0	-144.0	-50117.0
29	17	46	35	993	62.0	-172224.0	-154.0	-49757.0
29	17	46	35	993	63.0	-173601.0	-168.0	-49792.0
29	17	46	35	994	64.0	-174789.0	-181.0	-49274.0
29	17	46	35	995	65.0	-176408.0	-169.0	-47777.0
29	17	46	35	995	71.0	-189111.0	-259.0	-44043.0
29	17	46	35	996	72.0	-191400.0	-276.0	-43024.0
29	17	46	35	997	73.0	-194184.0	-259.0	-41959.0
29	17	46	35	997	74.0	-196691.0	-254.0	-41392.0
29	17	46	35	998	75.0	-199652.0	-249.0	-40979.0
29	17	46	35	999	76.0	-202174.0	-232.0	-40454.0
29	17	46	36	0	77.0	-204838.0	-217.0	-40124.0
29	17	46	36	29	78.0	-207897.0	-206.0	-38753.0
29	17	46	36	30	79.0	-209636.0	-182.0	-37136.0
29	17	46	36	31	80.0	-210875.0	-194.0	-36110.0
29	17	46	36	32	81.0	-212196.0	-204.0	-35854.0
29	17	46	36	33	82.0	-212323.0	-195.0	-35066.0
29	17	46	36	34	83.0	-211514.0	-191.0	-33953.0
29	17	46	36	34	84.0	-208856.0	-200.0	-32896.0
29	17	46	36	35	85.0	-204780.0	-211.0	-32534.0
29	17	46	36	36	86.0	-200067.0	-208.0	-32316.0
29	17	46	36	37	87.0	-195032.0	-227.0	-30817.0
29	17	46	36	37	88.0	-190142.0	-226.0	-29502.0
29	17	46	36	38	89.0	-185892.0	-222.0	-29283.0
29	17	46	36	39	90.0	-182317.0	-235.0	-28844.0
29	17	46	36	39	91.0	-179488.0	-229.0	-27409.0
29	17	46	36	40	92.0	-177052.0	-211.0	-25760.0
29	17	46	36	41	94.0	-175808.0	-210.0	-22567.0
29	17	46	36	41	95.0	-176973.0	-207.0	-22157.0
29	17	46	36	42	96.0	-179477.0	-188.0	-21662.0
29	17	46	36	43	97.0	-182949.0	-173.0	-21181.0
29	17	46	36	43	98.0	-186351.0	-172.0	-21521.0
29	17	46	36	44	99.0	-189420.0	-159.0	-22264.0
29	17	46	36	74	100.0	-191576.0	-147.0	-22647.0
29	17	46	36	75	101.0	-192189.0	-135.0	-21779.0
29	17	46	36	76	102.0	-192301.0	-142.0	-20349.0
29	17	46	36	76	103.0	-191611.0	-132.0	-20275.0
29	17	46	36	77	104.0	-190676.0	-139.0	-19802.0
29	17	46	36	78	105.0	-187844.0	-118.0	-18565.0
29	17	46	36	79	106.0	-179714.0	-134.0	-17998.0
29	17	46	36	80	107.0	-159549.0	-143.0	-17666.0
29	17	46	36	80	108.0	-144967.0	-146.0	-17327.0
29	17	46	36	81	109.0	-158306.0	-139.0	-16481.0
29	17	46	36	82	110.0	-183009.0	-161.0	-16192.0
29	17	46	36	83	111.0	-215993.0	-177.0	-15485.0
29	17	46	36	83	112.0	-241658.0	-175.0	-15354.0
29	17	46	36	84	113.0	-259121.0	-177.0	-15976.0
29	17	46	36	85	114.0	-273592.0	-169.0	-16254.0
29	17	46	36	86	116.0	-275819.0	-182.0	-15639.0
29	17	46	36	86	117.0	-266619.0	-162.0	-15852.0
29	17	46	36	87	118.0	-252949.0	-164.0	-16621.0
29	17	46	36	87	119.0	-236626.0	-154.0	-16369.0
29	17	46	36	88	120.0	-216137.0	-153.0	-16397.0
29	17	46	36	89	121.0	-194958.0	-126.0	-16051.0
29	17	46	36	118	122.0	-175391.0	-136.0	-16044.0
29	17	46	36	119	123.0	-157630.0	-142.0	-15875.0
29	17	46	36	120	124.0	-144261.0	-132.0	-15520.0
29	17	46	36	121	125.0	-138256.0	-139.0	-15782.0
29	17	46	36	122	126.0	-139267.0	-126.0	-16236.0
29	17	46	36	123	127.0	-146794.0	-119.0	-17116.0
29	17	46	36	124	128.0	-157621.0	-102.0	-17181.0
29	17	46	36	125	129.0	-168546.0	-90.0	-16663.0
29	17	46	36	126	130.0	-177496.0	-111.0	-16091.0
29	17	46	36	126	131.0	-182974.0	-99.0	-16091.0
29	17	46	36	127	132.0	-187375.0	-113.0	-15991.0
29	17	46	36	128	133.0	-190723.0	-122.0	-16190.0
29	17	46	36	129	134.0	-193884.0	-122.0	-15771.0
29	17	46	36	130	135.0	-196769.0	-107.0	-14539.0
29	17	46	36	131	136.0	-199921.0	-112.0	-14640.0
29	17	46	36	132	138.0	-205831.0	-138.0	-13583.0
29	17	46	36	133	139.0	-207856.0	-119.0	-12996.0
29	17	46	36	134	140.0	-208811.0	-106.0	-13981.0
29	17	46	36	139	141.0	-210114.0	-98.0	-14958.0
29	17	46	36	140	142.0	-211708.0	-97.0	-14868.0
29	17	46	36	141	143.0	-214374.0	-95.0	-14679.0
29	17	46	36	142	144.0	-217024.0	-94.0	-15345.0
29	17	46	36	163	145.0	-219264.0	-98.0	-14901.0
29	17	46	36	164	146.0	-220823.0	-97.0	-14801.0
29	17	46	36	165	147.0	-222131.0	-90.0	-14611.0
29	17	46	36	166	148.0	-222129.0	-91.0	-13131.0
29	17	46	36	166	149.0	-220857.0	-92.0	-12457.0
29	17	46	36	167	150.0	-218619.0	-94.0	-13188.0
29	17	46	36	168	151.0	-216456.0	-89.0	-13338.0
29	17	46	36	168	152.0	-214856.0	-90.0	-13164.0
29	17	46	36	169	153.0	-213835.0	-86.0	-12327.0
29	17	46	36	170	154.0	-213088.0	-105.0	-12717.0
29	17	46	36	170	155.0	-212785.0	-129.0	-13916.0
29	17	46	36	171	156.0	-213147.0	-137.0	-14086.0
29	17	46	36	172	157.0	-212257.0	-154.0	-14132.0
29	17	46	36	172	158.0	-211597.0	-183.0	-14054.0
29	17	46	36	173	159.0	-210866.0	-203.0	-13534.0
29	17	46	36	174	161.0	-209364.0	-217.0	-14109.0
29	17	46	36	207	162.0	-208736.0	-228.0	-13860.0
29	17	46	36	208	163.0	-208634.0	-236.0	-13957.0
29	17	46	36	208	164.0	-208322.0	-239.0	-13894.0
29	17	46	36	209	165.0	-206356.0	-251.0	-13859.0
29	17	46	36	210	166.0	-203878.0	-261.0	-14062.0
29	17	46	36	210	167.0	-201106.0	-250.0	-13822.0
29	17	46	36	211	168.0	-198104.0	-230.0	-13556.0
29	17	46	36	212	169.0	-195213.0	-239.0	-13175.0
29	17	46	36	212	170.0	-192775.0	-276.0	-13347.0
29	17	46	36	213	171.0	-191690.0	-291.0	-14731.0
29	17	46	36	214	172.0	-191202.0	-280.0	-15416.0
29	17	46	36	214	173.0	-191187.0	-292.0	-15376.0
29	17	46	36	215	174.0	-191047.0	-303.0	-15242.0
29	17	46	36	216	175.0	-191344.0	-295.0	-14279.0
29	17	46	36	216	176.0	-190961.0	-294.0	-13266.0
29	17	46	36	217	177.0	-190556.0	-309.0	-13102.0
29	17	46	36	218	184.0	-183109.0	-342.0	-14379.0
29	17	46	36	219	185.0	-184486.0	-341.0	-14688.0
29	17	46	36	220	186.0	-187168.0	-346.0	-14514.0
29	17	46	36	221	187.0	-191382.0	-365.0	-14672.0
29	17	46	36	221	188.0	-196907.0	-364.0	-15502.0
29	17	46	36	222	189.0	-202587.0	-386.0	-14890.0
29	17	46	36	253	190.0	-207723.0	-389.0	-13912.0
29	17	46	36	273	191.0	-210264.0	-374.0	-13483.0
29	17	46	36	274	192.0	-211704.0	-377.0	-13741.0
29	17	46	36	274	193.0	-211939.0	-388.0	-13673.0
29	17	46	36	275	194.0	-211055.0	-382.0	-13321.0
29	17	46	36	276	195.0	-209201.0	-366.0	-13457.0
29	17	46	36	276	196.0	-207324.0	-377.0	-12999.0
29	17	46	36	277	197.0	-206076.0	-386.0	-13084.0
29	17	46	36	277	198.0	-205658.0	-397.0	-13883.0
29	17	46	36	278	199.0	-204692.0	-412.0	-13202.0
29	17	46	36	279	200.0	-204529.0	-426.0	-13483.0
29	17	46	36	279	201.0	-204230.0	-446.0	-14782.0
29	17	46	36	280	202.0	-203041.0	-434.0	-15356.0
29	17	46	36	281	203.0	-200960.0	-426.0	-14362.0
29	17	46	36	281	204.0	-198367.0	-416.0	-13567.0
29	17	46	36	282	206.0	-191877.0	-435.0	-13650.0
29	17	46	36	283	207.0	-188977.0	-462.0	-14013.0
29	17	46	36	283	208.0	-186681.0	-451.0	-13782.0
29	17	46	36	284	209.0	-184531.0	-416.0	-13136.0
29	17	46	36	284	210.0	-182541.0	-390.0	-12845.0
29	17	46	36	285	211.0	-181093.0	-367.0	-13156.0
29	17	46	36	298	212.0	-179490.0	-361.0	-13533.0
29	17	46	36	299	213.0	-178534.0	-354.0	-13805.0
29	17	46	36	300	214.0	-178177.0	-346.0	-13541.0
29	17	46	36	300	215.0	-178472.0	-344.0	-13739.0
29	17	46	36	301	216.0	-178871.0	-352.0	-14371.0
29	17	46	36	302	217.0	-180349.0	-361.0	-14652.0
29	17	46	36	302	218.0	-182249.0	-352.0	-13969.0
29	17	46	36	303	219.0	-184952.0	-361.0	-14429.0
29	17	46	36	304	220.0	-187389.0	-365.0	-14349.0
29	17	46	36	305	221.0	-190409.0	-384.0	-13911.0
29	17	46	36	305	222.0	-193591.0	-380.0	-13903.0
29	17	46	36	306	223.0	-196497.0	-392.0	-13876.0
29	17	46	36	307	224.0	-197300.0	-398.0	-14153.0
29	17	46	36	307	225.0	-196723.0	-404.0	-14899.0
29	17	46	36	308	226.0	-194921.0	-418.0	-15417.0
29	17	46	36	309	228.0	-188686.0	-440.0	-15551.0
29	17	46	36	309	229.0	-185379.0	-446.0	-16455.0
29	17	46	36	310	230.0	-181782.0	-453.0	-17285.0
29	17	46	36	310	231.0	-178514.0	-471.0	-16465.0
29	17	46	36	311	232.0	-175682.0	-491.0	-14628.0
29	17	46	36	312	233.0	-174850.0	-497.0	-14494.0
29	17	46	36	343	234.0	-175668.0	-516.0	-14817.0
29	17	46	36	344	235.0	-176626.0	-497.0	-14340.0
29	17	46	36	344	236.0	-177970.0	-497.0	-14167.0
29	17	46	36	345	237.0	-179666.0	-509.0	-14411.0
29	17	46	36	346	238.0	-181399.0	-527.0	-15420.0
29	17	46	36	346	239.0	-183418.0	-546.0	-15554.0
29	17	46	36	347	240.0	-185324.0	-546.0	-14906.0
29	17	46	36	348	241.0	-188254.0	-562.0	-14968.0
29	17	46	36	349	242.0	-191553.0	-550.0	-15126.0
29	17	46	36	349	243.0	-195148.0	-570.0	-15497.0
29	17	46	36	350	244.0	-198855.0	-574.0	-15639.0
29	17	46	36	351	245.0	-201920.0	-599.0	-16384.0
29	17	46	36	352	246.0	-204274.0	-630.0	-16370.0
29	17	46	36	353	247.0	-206489.0	-658.0	-15456.0
29	17	46	36	353	248.0	-207626.0	-674.0	-15182.0
29	17	46	36	354	251.0	-206099.0	-765.0	-14316.0
29	17	46	36	355	252.0	-203776.0	-774.0	-14716.0
29	17	46	36	355	253.0	-200172.0	-778.0	-14398.0
29	17	46	36	356	254.0	-196336.0	-767.0	-14630.0
29	17	46	36	357	255.0	-192796.0	-767.0	-14467.0
29	17	46	36	357	0.0	-189129.0	-776.0	-14542.0
29	17	46	36	388	1.0	-185584.0	-790.0	-14412.0
29	17	46	36	389	2.0	-182462.0	-796.0	-14389.0
29	17	46	36	389	3.0	-180368.0	-851.0	-13821.0
29	17	46	36	432	4.0	-179328.0	-876.0	-13866.0
29	17	46	36	433	5.0	-179176.0	-880.0	-13455.0
29	17	46	36	434	6.0	-180719.0	-891.0	-13004.0
29	17	46	36	434	7.0	-182799.0	-909.0	-12943.0
29	17	46	36	477	8.0	-185213.0	-927.0	-13069.0
29	17	46	36	478	9.0	-187746.0	-944.0	-13543.0
29	17	46	36	479	10.0	-190883.0	-964.0	-14284.0
29	17	46	36	480	11.0	-194921.0	-977.0	-14977.0
29	17	46	36	480	12.0	-198325.0	-979.0	-14688.0
29	17	46	36	481	13.0	-200714.0	-996.0	-14006.0
29	17	46	36	482	14.0	-202811.0	-1006.0	-13323.0
29	17	46	36	482	15.0	-203826.0	-1013.0	-14464.0
29	17	46	36	483	17.0	-203346.0	-1015.0	-13370.0
29	17	46	36	484	18.0	-202439.0	-1038.0	-12946.0
29	17	46	36	485	19.0	-201374.0	-1032.0	-11848.0
29	17	46	36	485	20.0	-199516.0	-1031.0	-11139.0
29	17	46	36	486	40.0	-199288.0	-1244.0	-10506.0
29	17	46	36	487	41.0	-201094.0	-1241.0	-10828.0
29	17	46	36	487	42.0	-202403.0	-1251.0	-11760.0
29	17	46	36	488	43.0	-203222.0	-1267.0	-11252.0
29	17	46	36	489	62.0	-198872.0	-1232.0	-9038.0
29	17	46	36	489	63.0	-196172.0	-1232.0	-7845.0
29	17	46	36	490	64.0	-194026.0	-1217.0	-6737.0
29	17	46	36	490	65.0	-193217.0	-1215.0	-6504.0
29	17	46	36	491	66.0	-193289.0	-1202.0	-7498.0
29	17	46	36	492	67.0	-194184.0	-1182.0	-7457.0
29	17	46	36	492	68.0	-194843.0	-1182.0	-7083.0
29	17	46	36	523	69.0	-194906.0	-1159.0	-7102.0
29	17	46	36	524	70.0	-194027.0	-1136.0	-7002.0
29	17	46	36	524	71.0	-192649.0	-1142.0	-7192.0
29	17	46	36	525	72.0	-191240.0	-1137.0	-7774.0
29	17	46	36	526	73.0	-190369.0	-1151.0	-7867.0
29	17	46	36	526	74.0	-190844.0	-1155.0	-7015.0
29	17	46	36	527	75.0	-192220.0	-1142.0	-6786.0
29	17	46	36	528	76.0	-194623.0	-1163.0	-6300.0
29	17	46	36	528	77.0	-198164.0	-1141.0	-5454.0
29	17	46	36	529	78.0	-202480.0	-1130.0	-5096.0
29	17	46	36	530	79.0	-207183.0	-1131.0	-5575.0
29	17	46	36	531	80.0	-211922.0	-1129.0	-5547.0
29	17	46	36	531	81.0	-216086.0	-1111.0	-6091.0
29	17	46	36	532	82.0	-218218.0	-1081.0	-6471.0
29	17	46	36	533	83.0	-217610.0	-1077.0	-6019.0
29	17	46	36	533	84.0	-214997.0	-1064.0	-5740.0
29	17	46	36	534	85.0	-210786.0	-1041.0	-6294.0
29	17	46	36	535	86.0	-205406.0	-1033.0	-6919.0
29	17	46	36	535	87.0	-200305.0	-1023.0	-6219.0
29	17	46	36	536	88.0	-195849.0	-983.0	-6196.0
29	17	46	36	537	89.0	-193146.0	-959.0	-6424.0
29	17	46	36	537	90.0	-192051.0	-966.0	-6562.0
29	17	46	36	568	91.0	-192232.0	-969.0	-6192.0
29	17	46	36	569	92.0	-193792.0	-949.0	-5882.0
29	17	46	36	570	93.0	-195319.0	-936.0	-5772.0
29	17	46	36	571	94.0	-196355.0	-934.0	-5997.0
29	17	46	36	571	95.0	-196581.0	-926.0	-6350.0
29	17	46	36	572	96.0	-195854.0	-927.0	-7139.0
29	17	46	36	573	97.0	-194536.0	-927.0	-7404.0
29	17	46	36	573	98.0	-193100.0	-932.0	-8421.0
29	17	46	36	574	99.0	-191789.0	-926.0	-9217.0
29	17	46	36	575	100.0	-190372.0	-928.0	-9542.0
29	17	46	36	575	101.0	-189054.0	-939.0	-10019.0
29	17	46	36	576	102.0	-188461.0	-937.0	-11747.0
29	17	46	36	577	103.0	-188136.0	-957.0	-13355.0
29	17	46	36	577	104.0	-188359.0	-976.0	-15140.0
29	17	46	36	578	105.0	-189405.0	-973.0	-15812.0
29	17	46	36	579	107.0	-193823.0	-985.0	-18346.0
29	17	46	36	579	108.0	-197800.0	-1004.0	-20286.0
29	17	46	36	580	109.0	-201489.0	-1000.0	-22041.0
29	17	46	36	581	110.0	-204625.0	-1007.0	-22046.0
29	17	46	36	581	111.0	-206965.0	-1010.0	-21052.0
29	17	46	36	582	112.0	-208126.0	-1015.0	-17043.0
29	17	46	36	612	113.0	-207768.0	-1026.0	-14061.0
29	17	46	36	613	114.0	-205836.0	-1022.0	-13366.0
29	17	46	36	614	115.0	-202930.0	-1038.0	-11049.0
29	17	46	36	615	116.0	-199079.0	-1056.0	-7761.0
29	17	46	36	616	117.0	-193923.0	-1057.0	-2396.0
29	17	46	36	616	118.0	-188262.0	-1087.0	3477.0
29	17	46	36	617	119.0	-182229.0	-1094.0	8309.0
29	17	46	36	617	120.0	-176644.0	-1089.0	11170.0
29	17	46	36	658	121.0	-172158.0	-1117.0	13813.0
29	17	46	36	659	122.0	-168805.0	-1142.0	16034.0
29	17	46	36	659	123.0	-166986.0	-1135.0	17383.0
29	17	46	36	660	124.0	-166809.0	-1127.0	18259.0
29	17	46	36	661	125.0	-168186.0	-1150.0	18651.0
29	17	46	36	662	126.0	-170937.0	-1146.0	17296.0
29	17	46	36	662	127.0	-175014.0	-1177.0	16065.0
29	17	46	36	663	129.0	-186884.0	-1187.0	18745.0
29	17	46	36	664	130.0	-194654.0	-1212.0	19594.0
29	17	46	36	664	131.0	-203926.0	-1204.0	19491.0
29	17	46	36	665	132.0	-214546.0	-1209.0	17073.0
29	17	46	36	666	133.0	-225010.0	-1186.0	13411.0
29	17	46	36	666	134.0	-227968.0	-1186.0	10340.0
29	17	46	36	667	135.0	-219041.0	-1191.0	7575.0
29	17	46	36	668	136.0	-202175.0	-1193.0	3390.0
29	17	46	36	668	137.0	-182759.0	-1207.0	1826.0
29	17	46	36	703	152.0	-322677.0	-1290.0	-730.0
29	17	46	36	704	153.0	-297865.0	-1271.0	-1164.0
29	17	46	36	705	154.0	-251414.0	-1271.0	-1821.0
29	17	46	36	706	155.0	-192493.0	-1264.0	-1664.0
29	17	46	36	707	156.0	-145081.0	-1249.0	-1122.0
29	17	46	36	708	157.0	-112232.0	-1216.0	-746.0
29	17	46	36	709	158.0	-94697.0	-1206.0	-1490.0
29	17	46	36	709	159.0	-85462.0	-1207.0	-879.0
29	17	46	36	710	160.0	-89581.0	-1204.0	-367.0
29	17	46	36	711	161.0	-110759.0	-1195.0	-334.0
29	17	46	36	712	162.0	-139073.0	-1212.0	-223.0
29	17	46	36	713	163.0	-162651.0	-1191.0	-309.0
29	17	46	36	714	164.0	-178151.0	-1191.0	-821.0
29	17	46	36	715	165.0	-186483.0	-1192.0	-1174.0
29	17	46	36	716	166.0	-188860.0	-1176.0	-596.0
29	17	46	36	716	167.0	-187068.0	-1174.0	-584.0
29	17	46	36	717	174.0	-162952.0	-1170.0	3.0
29	17	46	36	718	175.0	-142980.0	-1167.0	-57.0
29	17	46	36	718	176.0	-123899.0	-1147.0	341.0
29	17	46	36	719	177.0	-110164.0	-1123.0	-34.0
29	17	46	36	720	178.0	-103100.0	-1116.0	210.0
29	17	46	36	720	179.0	-101428.0	-1116.0	393.0
29	17	46	36	721	180.0	-103442.0	-1115.0	219.0
29	17	46	36	748	181.0	-107965.0	-1121.0	676.0
29	17	46	36	749	182.0	-113962.0	-1121.0	1200.0
29	17	46	36	749	183.0	-120242.0	-1134.0	1021.0
29	17	46	36	750	184.0	-126664.0	-1138.0	1288.0
29	17	46	36	751	185.0	-133987.0	-1126.0	2191.0
29	17	46	36	752	186.0	-141887.0	-1126.0	2697.0
29	17	46	36	752	187.0	-149509.0	-1127.0	2376.0
29	17	46	36	753	188.0	-156754.0	-1112.0	2652.0
29	17	46	36	754	189.0	-163593.0	-1120.0	3553.0
29	17	46	36	755	190.0	-169658.0	-1117.0	3829.0
29	17	46	36	755	191.0	-175258.0	-1115.0	5391.0
29	17	46	36	756	192.0	-180051.0	-1132.0	6626.0
29	17	46	36	757	193.0	-184287.0	-1156.0	7034.0
29	17	46	36	758	194.0	-188228.0	-1157.0	7669.0
29	17	46	36	758	195.0	-191379.0	-1141.0	7400.0
29	17	46	36	759	197.0	-199569.0	-1153.0	7159.0
29	17	46	36	760	198.0	-205503.0	-1161.0	8274.0
29	17	46	36	760	199.0	-213056.0	-1149.0	8216.0
29	17	46	36	761	200.0	-221660.0	-1136.0	7772.0
29	17	46	36	762	201.0	-230756.0	-1142.0	8273.0
29	17	46	36	762	202.0	-239659.0	-1142.0	8628.0
29	17	46	36	792	203.0	-247531.0	-1138.0	9291.0
29	17	46	36	793	204.0	-253159.0	-1131.0	10844.0
29	17	46	36	794	205.0	-256240.0	-1135.0	10560.0
29	17	46	36	795	206.0	-257470.0	-1117.0	10349.0
29	17	46	36	796	207.0	-257034.0	-1110.0	11636.0
29	17	46	36	796	208.0	-255084.0	-1107.0	12071.0
29	17	46	36	797	209.0	-251524.0	-1118.0	11894.0
29	17	46	36	798	210.0	-246453.0	-1111.0	11555.0
29	17	46	36	799	211.0	-240242.0	-1112.0	11141.0
29	17	46	36	800	212.0	-233462.0	-1112.0	10463.0
29	17	46	36	800	213.0	-226653.0	-1105.0	11824.0
29	17	46	36	801	214.0	-220547.0	-1076.0	12427.0
29	17	46	36	802	215.0	-214466.0	-1066.0	11831.0
29	17	46	36	803	216.0	-208311.0	-1071.0	11981.0
29	17	46	36	803	217.0	-202192.0	-1061.0	13340.0
29	17	46	36	804	219.0	-188748.0	-1049.0	14444.0
29	17	46	36	805	220.0	-181522.0	-1033.0	14121.0
29	17	46	36	806	221.0	-174627.0	-1021.0	14284.0
29	17	46	36	806	222.0	-168231.0	-985.0	13571.0
29	17	46	36	807	223.0	-161855.0	-941.0	13873.0
29	17	46	36	808	224.0	-156898.0	-926.0	14187.0
29	17	46	36	836	225.0	-153234.0	-913.0	14361.0
29	17	46	36	837	226.0	-149160.0	-869.0	14009.0
29	17	46	36	838	227.0	-145681.0	-836.0	14017.0
29	17	46	36	839	228.0	-143749.0	-834.0	15109.0
29	17	46	36	840	229.0	-143899.0	-844.0	15434.0
29	17	46	36	841	230.0	-146242.0	-851.0	15228.0
29	17	46	36	841	231.0	-150364.0	-862.0	15434.0
29	17	46	36	842	232.0	-155722.0	-847.0	15968.0
29	17	46	36	843	233.0	-161872.0	-852.0	16241.0
29	17	46	36	844	234.0	-168028.0	-846.0	16272.0
29	17	46	36	844	235.0	-173407.0	-831.0	16478.0
29	17	46	36	881	236.0	-178351.0	-837.0	16966.0
29	17	46	36	882	237.0	-182532.0	-833.0	16836.0
29	17	46	36	926	238.0	-186049.0	-827.0	17073.0
29	17	46	36	927	239.0	-189114.0	-827.0	17438.0
29	17	46	36	928	241.0	-193302.0	-789.0	17407.0
29	17	46	36	929	242.0	-194471.0	-792.0	17714.0
29	17	46	36	930	243.0	-195453.0	-779.0	18555.0
29	17	46	36	930	244.0	-196272.0	-754.0	18539.0
29	17	46	36	931	245.0	-197041.0	-733.0	19451.0
29	17	46	36	972	246.0	-197762.0	-687.0	20646.0
29	17	46	36	973	247.0	-198549.0	-698.0	21811.0
29	17	46	36	973	248.0	-199154.0	-697.0	22988.0
29	17	46	36	974	249.0	-199919.0	-697.0	23122.0
29	17	46	36	975	250.0	-201489.0	-709.0	23235.0
29	17	46	36	976	251.0	-203872.0	-700.0	23613.0
29	17	46	36	977	8.0	-225177.0	-727.0	29820.0
29	17	46	36	978	9.0	-223272.0	-752.0	31299.0
29	17	46	36	978	30.0	-162877.0	-951.0	33128.0
29	17	46	36	979	31.0	-145626.0	-967.0	33389.0
29	17	46	36	980	32.0	-133074.0	-924.0	33943.0
29	17	46	36	981	33.0	-143731.0	-888.0	34285.0
29	17	46	36	982	34.0	-169299.0	-894.0	34440.0
29	17	46	36	982	35.0	-208409.0	-914.0	34930.0
29	17	46	36	983	36.0	-243568.0	-910.0	34977.0
29	17	46	36	984	53.0	-130322.0	-729.0	36305.0
29	17	46	36	985	54.0	-124779.0	-722.0	36867.0
29	17	46	36	986	55.0	-122075.0	-720.0	36798.0
29	17	46	36	986	56.0	-123287.0	-714.0	37197.0
29	17	46	36	987	57.0	-129776.0	-688.0	37806.0
29	17	46	36	988	58.0	-140663.0	-698.0	38040.0
29	17	46	37	16	59.0	-153745.0	-682.0	38641.0
29	17	46	37	18	60.0	-166389.0	-644.0	39406.0
29	17	46	37	19	61.0	-175797.0	-636.0	38976.0
29	17	46	37	20	62.0	-180262.0	-617.0	38384.0
29	17	46	37	20	63.0	-180261.0	-616.0	38719.0
29	17	46	37	21	64.0	-178283.0	-631.0	38276.0
29	17	46	37	22	65.0	-176389.0	-643.0	37959.0
29	17	46	37	23	66.0	-175155.0	-622.0	38190.0
29	17	46	37	23	67.0	-175386.0	-606.0	38201.0
29	17	46	37	24	68.0	-176293.0	-589.0	38683.0
29	17	46	37	25	69.0	-178037.0	-593.0	38718.0
29	17	46	37	62	70.0	-179505.0	-599.0	38796.0
29	17	46	37	63	71.0	-180915.0	-599.0	38343.0
29	17	46	37	64	72.0	-182622.0	-602.0	38573.0
29	17	46	37	64	73.0	-185282.0	-599.0	38126.0
29	17	46	37	65	75.0	-192976.0	-572.0	39499.0
29	17	46	37	66	76.0	-197557.0	-597.0	39099.0
29	17	46	37	67	77.0	-201870.0	-607.0	40108.0
29	17	46	37	68	78.0	-206072.0	-584.0	40223.0
29	17	46	37	68	79.0	-210023.0	-597.0	39348.0
29	17	46	37	69	80.0	-214459.0	-581.0	39314.0
29	17	46	37	70	81.0	-219242.0	-572.0	39846.0
29	17	46	37	71	82.0	-224086.0	-581.0	40446.0
29	17	46	37	72	83.0	-228353.0	-584.0	40356.0
29	17	46	37	72	84.0	-232658.0	-591.0	39515.0
29	17	46	37	73	85.0	-236506.0	-596.0	39332.0
29	17	46	37	74	86.0	-239521.0	-581.0	39364.0
29	17	46	37	75	98.0	-226116.0	-637.0	42039.0
29	17	46	37	76	99.0	-219646.0	-609.0	41308.0
29	17	46	37	77	100.0	-213548.0	-586.0	42041.0
29	17	46	37	77	101.0	-207325.0	-591.0	43314.0
29	17	46	37	78	102.0	-200883.0	-592.0	43475.0
29	17	46	37	79	103.0	-194543.0	-575.0	44271.0
29	17	46	37	80	104.0	-189639.0	-561.0	44714.0
29	17	46	37	152	105.0	-185449.0	-555.0	44268.0
29	17	46	37	153	106.0	-182042.0	-539.0	44684.0
29	17	46	37	154	107.0	-179088.0	-566.0	45207.0
29	17	46	37	154	108.0	-176484.0	-544.0	44959.0
29	17	46	37	155	109.0	-173777.0	-512.0	44653.0
29	17	46	37	156	110.0	-171657.0	-514.0	45267.0
29	17	46	37	156	111.0	-169761.0	-517.0	45716.0
29	17	46	37	157	112.0	-167573.0	-488.0	45272.0
29	17	46	37	158	113.0	-165764.0	-472.0	44937.0
29	17	46	37	158	114.0	-164901.0	-466.0	45591.0
29	17	46	37	159	115.0	-164642.0	-460.0	47511.0
29	17	46	37	159	116.0	-164248.0	-456.0	51074.0
29	17	46	37	160	117.0	-165136.0	-441.0	54231.0
29	17	46	37	161	118.0	-167276.0	-445.0	57103.0
29	17	46	37	161	119.0	-170514.0	-452.0	59351.0
29	17	46	37	162	142.0	-199945.0	-152.0	63615.0
29	17	46	37	163	143.0	-198769.0	-137.0	64468.0
29	17	46	37	163	144.0	-198000.0	-136.0	65338.0
29	17	46	37	164	145.0	-197669.0	-122.0	65658.0
29	17	46	37	165	146.0	-197094.0	-101.0	65871.0
29	17	46	37	165	147.0	-195990.0	-87.0	66492.0
29	17	46	37	166	148.0	-195112.0	-61.0	66602.0
29	17	46	37	196	149.0	-194265.0	-52.0	65688.0
29	17	46	37	197	150.0	-193101.0	-10.0	64382.0
29	17	46	37	198	151.0	-190871.0	-1.0	64293.0
29	17	46	37	198	152.0	-187542.0	-14.0	64403.0
29	17	46	37	199	153.0	-182999.0	-6.0	63553.0
29	17	46	37	200	154.0	-178060.0	-1.0	63078.0
29	17	46	37	200	155.0	-173109.0	26.0	62871.0
29	17	46	37	201	156.0	-168551.0	33.0	62964.0
29	17	46	37	202	157.0	-164487.0	57.0	63423.0
29	17	46	37	202	158.0	-161509.0	71.0	64323.0
29	17	46	37	203	159.0	-160469.0	66.0	64258.0
29	17	46	37	204	160.0	-160699.0	61.0	64020.0
29	17	46	37	204	161.0	-162349.0	50.0	64354.0
29	17	46	37	205	162.0	-165269.0	48.0	64361.0
29	17	46	37	206	163.0	-169647.0	43.0	63418.0
29	17	46	37	206	165.0	-179073.0	9.0	62215.0
29	17	46	37	207	166.0	-184588.0	11.0	61874.0
29	17	46	37	208	167.0	-189992.0	7.0	62351.0
29	17	46	37	208	168.0	-194374.0	9.0	62978.0
29	17	46	37	209	169.0	-198236.0	8.0	62072.0
29	17	46	37	210	170.0	-202033.0	3.0	61953.0
29	17	46	37	241	171.0	-204699.0	13.0	61581.0
29	17	46	37	264	172.0	-206194.0	11.0	61068.0
29	17	46	37	265	173.0	-207036.0	10.0	61257.0
29	17	46	37	266	174.0	-207217.0	4.0	61907.0
29	17	46	37	266	175.0	-206485.0	-11.0	62026.0
29	17	46	37	267	176.0	-205829.0	-21.0	61821.0
29	17	46	37	268	177.0	-205349.0	-27.0	61348.0
29	17	46	37	268	178.0	-204929.0	-45.0	60814.0
29	17	46	37	269	179.0	-203421.0	-66.0	60719.0
29	17	46	37	269	180.0	-201867.0	-64.0	60782.0
29	17	46	37	270	181.0	-200480.0	-58.0	59806.0
29	17	46	37	271	182.0	-198667.0	-47.0	58423.0
29	17	46	37	271	183.0	-195702.0	-71.0	57824.0
29	17	46	37	272	184.0	-192451.0	-80.0	57651.0
29	17	46	37	273	185.0	-188693.0	-86.0	57370.0
29	17	46	37	273	187.0	-182129.0	-75.0	59544.0
29	17	46	37	274	188.0	-179899.0	-88.0	59538.0
29	17	46	37	275	189.0	-178550.0	-76.0	60513.0
29	17	46	37	275	190.0	-178952.0	-63.0	60315.0
29	17	46	37	276	191.0	-180287.0	-54.0	60948.0
29	17	46	37	277	192.0	-182644.0	-41.0	61357.0
29	17	46	37	277	193.0	-185057.0	-35.0	61126.0
29	17	46	37	286	194.0	-187015.0	-31.0	60296.0
29	17	46	37	287	195.0	-187894.0	-38.0	59490.0
29	17	46	37	287	196.0	-188432.0	-64.0	59118.0
29	17	46	37	288	197.0	-188456.0	-76.0	57558.0
29	17	46	37	289	198.0	-188473.0	-91.0	57066.0
29	17	46	37	289	199.0	-188857.0	-69.0	57625.0
29	17	46	37	290	200.0	-189725.0	-73.0	58393.0
29	17	46	37	291	201.0	-191171.0	-77.0	58049.0
29	17	46	37	292	202.0	-193047.0	-70.0	58033.0
29	17	46	37	292	203.0	-195724.0	-70.0	59174.0
29	17	46	37	293	204.0	-198091.0	-75.0	59802.0
29	17	46	37	294	205.0	-200876.0	-68.0	59019.0
29	17	46	37	294	206.0	-203894.0	-59.0	58219.0
29	17	46	37	295	207.0	-206412.0	-37.0	58043.0
29	17	46	37	296	208.0	-207674.0	-21.0	58724.0
29	17	46	37	296	210.0	-208574.0	46.0	57654.0
29	17	46	37	297	211.0	-209617.0	76.0	56639.0
29	17	46	37	298	212.0	-210538.0	108.0	57556.0
29	17	46	37	298	213.0	-211537.0	138.0	59123.0
29	17	46	37	299	214.0	-212189.0	164.0	58387.0
29	17	46	37	300	215.0	-212212.0	184.0	57286.0
29	17	46	37	332	216.0	-210470.0	197.0	57148.0
29	17	46	37	333	217.0	-207467.0	198.0	58186.0
29	17	46	37	334	218.0	-204466.0	203.0	58126.0
29	17	46	37	377	219.0	-200797.0	222.0	57957.0
29	17	46	37	378	220.0	-196694.0	213.0	57324.0
29	17	46	37	378	221.0	-192641.0	199.0	56199.0
29	17	46	37	396	222.0	-189213.0	214.0	55951.0
29	17	46	37	397	223.0	-186109.0	217.0	56351.0
29	17	46	37	398	224.0	-184079.0	208.0	55987.0
29	17	46	37	398	225.0	-183612.0	179.0	55873.0
29	17	46	37	399	226.0	-184338.0	165.0	55589.0
29	17	46	37	400	227.0	-185036.0	179.0	55776.0
29	17	46	37	400	228.0	-186161.0	189.0	56134.0
29	17	46	37	401	229.0	-187502.0	155.0	56144.0
29	17	46	37	402	230.0	-188879.0	151.0	56286.0
29	17	46	37	402	232.0	-190607.0	139.0	56410.0
29	17	46	37	403	233.0	-189927.0	133.0	56648.0
29	17	46	37	403	234.0	-188496.0	134.0	55989.0
29	17	46	37	404	255.0	-222361.0	-43.0	40540.0
29	17	46	37	405	0.0	-225882.0	-62.0	43236.0
29	17	46	37	405	1.0	-229119.0	-71.0	43224.0
29	17	46	37	406	2.0	-232338.0	-82.0	41265.0
29	17	46	37	407	3.0	-235421.0	-81.0	45344.0
29	17	46	37	407	4.0	-238229.0	-55.0	51432.0
29	17	46	37	420	5.0	-241005.0	-69.0	55771.0
29	17	46	37	421	6.0	-243919.0	-63.0	59287.0
29	17	46	37	422	7.0	-246121.0	-38.0	63580.0
29	17	46	37	423	8.0	-246652.0	-57.0	66087.0
29	17	46	37	423	9.0	-244257.0	-76.0	68266.0
29	17	46	37	440	10.0	-239777.0	-90.0	70457.0
29	17	46	37	440	11.0	-234062.0	-104.0	71974.0
29	17	46	37	441	12.0	-227286.0	-125.0	72425.0
29	17	46	37	442	13.0	-219831.0	-166.0	72195.0
29	17	46	37	467	14.0	-212332.0	-190.0	71958.0
29	17	46	37	484	15.0	-205292.0	-227.0	72345.0
29	17	46	37	485	16.0	-199328.0	-276.0	72404.0
29	17	46	37	485	17.0	-194357.0	-286.0	73234.0
29	17	46	37	486	18.0	-191642.0	-281.0	74931.0
29	17	46	37	487	19.0	-191022.0	-313.0	75058.0
29	17	46	37	487	21.0	-194990.0	-348.0	67458.0
29	17	46	37	513	22.0	-195401.0	-359.0	63826.0
29	17	46	37	515	23.0	-188646.0	-342.0	60794.0
29	17	46	37	516	24.0	-174733.0	-362.0	56753.0
29	17	46	37	517	25.0	-156295.0	-376.0	53938.0
29	17	46	37	518	26.0	-135696.0	-401.0	52872.0
29	17	46	37	518	27.0	-117447.0	-431.0	52900.0
29	17	46	37	519	28.0	-103879.0	-430.0	52593.0
29	17	46	37	520	29.0	-96189.0	-464.0	51592.0
29	17	46	37	520	30.0	-97052.0	-494.0	51068.0
29	17	46	37	521	44.0	-160146.0	-816.0	47706.0
29	17	46	37	522	45.0	-179825.0	-831.0	47871.0
29	17	46	37	522	46.0	-209065.0	-818.0	47946.0
29	17	46	37	523	47.0	-237296.0	-817.0	47229.0
29	17	46	37	524	48.0	-253309.0	-819.0	47581.0
29	17	46	37	524	49.0	-256582.0	-840.0	47981.0
29	17	46	37	525	50.0	-249982.0	-877.0	47573.0
29	17	46	37	526	66.0	-153559.0	-939.0	44814.0
29	17	46	37	527	67.0	-157160.0	-959.0	44693.0
29	17	46	37	527	68.0	-161238.0	-967.0	44038.0
29	17	46	37	556	69.0	-165744.0	-976.0	43787.0
29	17	46	37	557	70.0	-170251.0	-956.0	44175.0
29	17	46	37	558	71.0	-172986.0	-959.0	44353.0
29	17	46	37	558	72.0	-174387.0	-918.0	43319.0
29	17	46	37	559	73.0	-174899.0	-900.0	43751.0
29	17	46	37	560	74.0	-175254.0	-886.0	44884.0
29	17	46	37	561	75.0	-175888.0	-867.0	44848.0
29	17	46	37	561	76.0	-176166.0	-854.0	44898.0
29	17	46	37	562	77.0	-176593.0	-848.0	43979.0
29	17	46	37	563	78.0	-176950.0	-824.0	43911.0
29	17	46	37	564	79.0	-176865.0	-811.0	44229.0
29	17	46	37	564	80.0	-176534.0	-792.0	43367.0
29	17	46	37	565	81.0	-175916.0	-779.0	41437.0
29	17	46	37	566	82.0	-175601.0	-769.0	40674.0
29	17	46	37	567	83.0	-176409.0	-781.0	40773.0
29	17	46	37	567	88.0	-186463.0	-746.0	41174.0
29	17	46	37	568	89.0	-189551.0	-764.0	41221.0
29	17	46	37	569	90.0	-192574.0	-762.0	40804.0
29	17	46	37	569	91.0	-195025.0	-772.0	41503.0
29	17	46	37	570	92.0	-197039.0	-779.0	41671.0
29	17	46	37	571	93.0	-198066.0	-778.0	41586.0
29	17	46	37	571	94.0	-198977.0	-793.0	40769.0
29	17	46	37	600	95.0	-199820.0	-784.0	39638.0
29	17	46	37	601	96.0	-201044.0	-771.0	39181.0
29	17	46	37	602	97.0	-202218.0	-787.0	38754.0
29	17	46	37	603	98.0	-202970.0	-807.0	38051.0
29	17	46	37	604	99.0	-203881.0	-822.0	39560.0
29	17	46	37	604	100.0	-204616.0	-866.0	40228.0
29	17	46	37	605	101.0	-205270.0	-867.0	39244.0
29	17	46	37	606	102.0	-205916.0	-873.0	40924.0
29	17	46	37	606	103.0	-206252.0	-891.0	40729.0
29	17	46	37	607	104.0	-205945.0	-887.0	39399.0
29	17	46	37	608	105.0	-205342.0	-896.0	38896.0
29	17	46	37	609	106.0	-204377.0	-911.0	38904.0
29	17	46	37	609	107.0	-202626.0	-917.0	38743.0
29	17	46	37	610	108.0	-200582.0	-911.0	38270.0
29	17	46	37	611	109.0	-197993.0	-937.0	38163.0
29	17	46	37	612	111.0	-190778.0	-922.0	37297.0
29	17	46	37	612	112.0	-186546.0	-926.0	36958.0
29	17	46	37	613	113.0	-182467.0	-910.0	36586.0
29	17	46	37	614	114.0	-179147.0	-897.0	36965.0
29	17	46	37	614	115.0	-176869.0	-883.0	37080.0
29	17	46	37	615	116.0	-175769.0	-871.0	36635.0
29	17	46	37	691	117.0	-176033.0	-866.0	36613.0
29	17	46	37	692	118.0	-177202.0	-849.0	36948.0
29	17	46	37	693	119.0	-179244.0	-831.0	36151.0
29	17	46	37	694	120.0	-181928.0	-860.0	36117.0
29	17	46	37	694	121.0	-185049.0	-896.0	36498.0
29	17	46	37	695	122.0	-188601.0	-901.0	35549.0
29	17	46	37	696	123.0	-192024.0	-927.0	34805.0
29	17	46	37	697	124.0	-194451.0	-928.0	34503.0
29	17	46	37	698	125.0	-196421.0	-941.0	34575.0
29	17	46	37	698	126.0	-198222.0	-956.0	35339.0
29	17	46	37	699	127.0	-199782.0	-971.0	35767.0
29	17	46	37	700	128.0	-201304.0	-992.0	36069.0
29	17	46	37	701	129.0	-202494.0	-988.0	36136.0
29	17	46	37	701	130.0	-203464.0	-1006.0	36966.0
29	17	46	37	703	131.0	-204144.0	-1001.0	36719.0
29	17	46	37	704	133.0	-205108.0	-1001.0	37161.0
29	17	46	37	704	156.0	-225197.0	-1108.0	38787.0
29	17	46	37	705	157.0	-229524.0	-1142.0	38670.0
29	17	46	37	706	158.0	-233581.0	-1142.0	38939.0
29	17	46	37	707	159.0	-237077.0	-1121.0	38811.0
29	17	46	37	707	160.0	-239279.0	-1117.0	38090.0
29	17	46	37	708	161.0	-239526.0	-1137.0	38188.0
29	17	46	37	738	162.0	-237939.0	-1122.0	38119.0
29	17	46	37	739	163.0	-234934.0	-1129.0	37962.0
29	17	46	37	740	164.0	-230982.0	-1135.0	38058.0
29	17	46	37	740	165.0	-226246.0	-1152.0	37164.0
29	17	46	37	741	166.0	-220664.0	-1176.0	36376.0
29	17	46	37	742	167.0	-214284.0	-1192.0	37045.0
29	17	46	37	742	168.0	-206442.0	-1221.0	37057.0
29	17	46	37	743	169.0	-196071.0	-1212.0	36559.0
29	17	46	37	744	170.0	-183512.0	-1242.0	35912.0
29	17	46	37	745	171.0	-165792.0	-1278.0	35626.0
29	17	46	37	745	172.0	-131894.0	-1271.0	35995.0
29	17	46	37	746	173.0	-99842.0	-1278.0	35496.0
29	17	46	37	747	174.0	-97857.0	-1291.0	35744.0
29	17	46	37	748	175.0	-118875.0	-1312.0	35416.0
29	17	46	37	748	176.0	-154454.0	-1333.0	35726.0
29	17	46	37	749	178.0	-221222.0	-1341.0	36150.0
29	17	46	37	750	179.0	-244849.0	-1361.0	35522.0
29	17	46	37	750	180.0	-262375.0	-1359.0	35037.0
29	17	46	37	751	181.0	-272800.0	-1343.0	35316.0
29	17	46	37	752	182.0	-272144.0	-1369.0	34965.0
29	17	46	37	753	183.0	-260361.0	-1369.0	33999.0
29	17	46	37	753	184.0	-243889.0	-1381.0	33080.0
29	17	46	37	782	185.0	-224195.0	-1376.0	33273.0
29	17	46	37	783	186.0	-202587.0	-1384.0	34246.0
29	17	46	37	783	187.0	-184206.0	-1404.0	34423.0
29	17	46	37	784	188.0	-170091.0	-1400.0	34551.0
29	17	46	37	785	189.0	-159767.0	-1406.0	33936.0
29	17	46	37	785	190.0	-152927.0	-1397.0	33593.0
29	17	46	37	786	191.0	-148503.0	-1378.0	34077.0
29	17	46	37	788	192.0	-146242.0	-1374.0	34219.0
29	17	46	37	788	193.0	-145311.0	-1381.0	33078.0
29	17	46	37	789	194.0	-146279.0	-1391.0	33623.0
29	17	46	37	790	195.0	-149274.0	-1414.0	33986.0
29	17	46	37	791	196.0	-153876.0	-1374.0	33556.0
29	17	46	37	791	197.0	-159785.0	-1391.0	33696.0
29	17	46	37	792	198.0	-165852.0	-1412.0	32965.0
29	17	46	37	793	199.0	-171819.0	-1445.0	32008.0
29	17	46	37	794	201.0	-178295.0	-1462.0	31850.0
29	17	46	37	794	202.0	-176892.0	-1484.0	31838.0
29	17	46	37	795	203.0	-171596.0	-1472.0	32176.0
29	17	46	37	796	204.0	-164666.0	-1439.0	32718.0
29	17	46	37	796	205.0	-159479.0	-1446.0	32349.0
29	17	46	37	797	206.0	-160322.0	-1457.0	31523.0
29	17	46	37	827	207.0	-167801.0	-1448.0	31219.0
29	17	46	37	828	208.0	-180291.0	-1446.0	30703.0
29	17	46	37	828	209.0	-196563.0	-1447.0	29883.0
29	17	46	37	829	210.0	-211928.0	-1450.0	29269.0
29	17	46	37	830	211.0	-222472.0	-1424.0	29029.0
29	17	46	37	831	212.0	-229577.0	-1422.0	29174.0
29	17	46	37	832	213.0	-233292.0	-1427.0	29133.0
29	17	46	37	832	214.0	-235032.0	-1412.0	28931.0
29	17	46	37	833	215.0	-235862.0	-1407.0	28931.0
29	17	46	37	834	216.0	-234788.0	-1414.0	28636.0
29	17	46	37	834	217.0	-232984.0	-1402.0	28603.0
29	17	46	37	835	218.0	-230671.0	-1395.0	28759.0
29	17	46	37	836	219.0	-229013.0	-1409.0	29368.0
29	17	46	37	837	220.0	-228276.0	-1394.0	27968.0
29	17	46	37	837	221.0	-228589.0	-1384.0	27414.0
29	17	46	37	838	223.0	-231318.0	-1357.0	27840.0
29	17	46	37	839	224.0	-231537.0	-1341.0	27874.0
29	17	46	37	917	225.0	-230513.0	-1335.0	27216.0
29	17	46	37	918	226.0	-227949.0	-1303.0	26745.0
29	17	46	37	918	227.0	-224449.0	-1294.0	26464.0
29	17	46	37	919	228.0	-220232.0	-1260.0	26324.0
29	17	46	37	920	229.0	-216087.0	-1237.0	27221.0
29	17	46	37	921	230.0	-212297.0	-1222.0	26979.0
29	17	46	37	922	231.0	-209059.0	-1211.0	26263.0
29	17	46	37	923	232.0	-205817.0	-1229.0	26905.0
29	17	46	37	924	233.0	-201992.0	-1204.0	27465.0
29	17	46	37	925	234.0	-198383.0	-1201.0	26898.0
29	17	46	37	926	235.0	-194511.0	-1192.0	25216.0
29	17	46	37	927	236.0	-190656.0	-1215.0	24580.0
29	17	46	37	928	237.0	-186582.0	-1213.0	25136.0
29	17	46	37	928	238.0	-182381.0	-1201.0	25620.0
29	17	46	37	929	239.0	-178566.0	-1189.0	25148.0
29	17	46	37	930	240.0	-175021.0	-1169.0	23935.0
29	17	46	37	930	12.0	-200609.0	-995.0	20476.0
29	17	46	37	931	13.0	-198912.0	-1013.0	20459.0
29	17	46	37	932	14.0	-196557.0	-1015.0	20681.0
29	17	46	37	933	15.0	-193946.0	-991.0	21039.0
29	17	46	37	933	16.0	-191142.0	-976.0	20445.0
29	17	46	37	934	17.0	-188601.0	-973.0	20598.0
29	17	46	37	935	18.0	-186296.0	-975.0	21873.0
29	17	46	37	962	19.0	-183584.0	-978.0	21596.0
29	17	46	37	963	20.0	-180321.0	-973.0	21199.0
29	17	46	37	964	21.0	-176611.0	-977.0	20378.0
29	17	46	37	964	22.0	-173018.0	-968.0	20104.0
29	17	46	37	965	23.0	-169612.0	-967.0	20013.0
29	17	46	37	966	24.0	-166490.0	-939.0	20393.0
29	17	46	37	967	25.0	-163585.0	-916.0	20297.0
29	17	46	37	967	26.0	-160569.0	-904.0	19663.0
29	17	46	37	968	27.0	-157969.0	-885.0	19589.0
29	17	46	37	969	28.0	-155764.0	-870.0	19523.0
29	17	46	37	970	29.0	-154175.0	-875.0	19146.0
29	17	46	37	970	30.0	-154112.0	-862.0	19794.0
29	17	46	37	971	31.0	-155033.0	-841.0	19826.0
29	17	46	37	972	32.0	-157102.0	-854.0	20546.0
29	17	46	37	973	33.0	-160526.0	-871.0	21070.0
29	17	46	37	973	34.0	-165050.0	-871.0	20814.0
29	17	46	37	974	35.0	-170991.0	-877.0	20303.0
29	17	46	37	975	36.0	-177490.0	-865.0	19897.0
29	17	46	37	975	37.0	-184299.0	-856.0	20042.0
29	17	46	37	976	38.0	-191127.0	-840.0	19795.0
29	17	46	37	977	39.0	-197470.0	-836.0	19149.0
29	17	46	37	977	40.0	-203426.0	-829.0	18403.0
29	17	46	38	7	41.0	-208614.0	-787.0	17767.0
29	17	46	38	8	42.0	-213320.0	-764.0	18011.0
29	17	46	38	9	43.0	-217599.0	-797.0	17946.0
29	17	46	38	9	44.0	-220695.0	-810.0	18328.0
29	17	46	38	10	45.0	-222791.0	-805.0	18246.0
29	17	46	38	11	46.0	-223147.0	-831.0	18414.0
29	17	46	38	99	47.0	-222912.0	-829.0	17793.0
29	17	46	38	100	48.0	-222736.0	-832.0	17151.0
29	17	46	38	101	49.0	-222272.0	-841.0	16304.0
29	17	46	38	102	50.0	-221845.0	-862.0	16378.0
29	17	46	38	103	51.0	-220832.0	-864.0	16806.0
29	17	46	38	104	52.0	-219616.0	-846.0	15759.0
29	17	46	38	105	53.0	-217634.0	-871.0	15420.0
29	17	46	38	105	54.0	-214771.0	-881.0	14543.0
29	17	46	38	106	55.0	-211635.0	-897.0	14608.0
29	17	46	38	107	57.0	-204008.0	-876.0	15246.0
29	17	46	38	108	58.0	-200054.0	-862.0	15518.0
29	17	46	38	114	59.0	-196141.0	-843.0	15848.0
29	17	46	38	115	60.0	-192653.0	-830.0	16194.0
29	17	46	38	144	61.0	-188696.0	-821.0	17231.0
29	17	46	38	158	62.0	-184626.0	-806.0	17459.0
29	17	46	38	159	102.0	-197811.0	-829.0	13501.0
29	17	46	38	159	103.0	-195694.0	-829.0	12944.0
29	17	46	38	160	104.0	-193584.0	-823.0	12940.0
29	17	46	38	160	105.0	-192019.0	-817.0	12586.0
29	17	46	38	161	106.0	-190419.0	-822.0	13096.0
29	17	46	38	162	107.0	-189322.0	-825.0	13061.0
29	17	46	38	162	108.0	-187479.0	-810.0	11983.0
29	17	46	38	163	109.0	-185200.0	-789.0	11241.0
29	17	46	38	164	110.0	-183611.0	-811.0	10109.0
29	17	46	38	164	111.0	-182071.0	-819.0	9887.0
29	17	46	38	165	112.0	-181368.0	-809.0	8313.0
29	17	46	38	165	113.0	-181452.0	-820.0	6985.0
29	17	46	38	166	114.0	-182464.0	-828.0	6857.0
29	17	46	38	166	115.0	-184151.0	-824.0	6410.0
29	17	46	38	167	124.0	-194763.0	-798.0	-2666.0
29	17	46	38	168	125.0	-199859.0	-784.0	-1964.0
29	17	46	38	168	126.0	-205174.0	-768.0	1167.0
29	17	46	38	169	127.0	-210791.0	-734.0	3807.0
29	17	46	38	170	128.0	-215530.0	-729.0	3414.0
29	17	46	38	170	129.0	-219294.0	-729.0	4978.0
29	17	46	38	171	130.0	-221320.0	-717.0	8751.0
29	17	46	38	187	131.0	-221894.0	-709.0	13264.0
29	17	46	38	188	132.0	-221656.0	-717.0	17413.0
29	17	46	38	189	133.0	-220665.0	-721.0	21377.0
29	17	46	38	190	134.0	-219341.0	-724.0	24556.0
29	17	46	38	190	135.0	-218184.0	-701.0	27278.0
29	17	46	38	191	136.0	-216959.0	-714.0	30999.0
29	17	46	38	192	137.0	-216020.0	-732.0	33272.0
29	17	46	38	192	138.0	-215558.0	-724.0	33241.0
29	17	46	38	193	139.0	-215051.0	-736.0	32856.0
29	17	46	38	194	140.0	-214535.0	-741.0	32358.0
29	17	46	38	194	141.0	-213837.0	-758.0	31382.0
29	17	46	38	195	142.0	-213423.0	-760.0	31248.0
29	17	46	38	197	143.0	-213423.0	-747.0	31728.0
29	17	46	38	197	144.0	-214188.0	-758.0	33073.0
29	17	46	38	198	145.0	-215969.0	-787.0	33021.0
29	17	46	38	199	147.0	-218040.0	-760.0	27452.0
29	17	46	38	199	148.0	-207799.0	-770.0	23904.0
29	17	46	38	200	149.0	-187575.0	-784.0	20193.0
29	17	46	38	201	150.0	-162818.0	-766.0	16736.0
29	17	46	38	201	151.0	-140286.0	-777.0	13994.0
29	17	46	38	202	152.0	-124294.0	-788.0	13245.0
29	17	46	38	277	153.0	-116644.0	-794.0	13920.0
29	17	46	38	278	154.0	-117576.0	-786.0	13662.0
29	17	46	38	278	155.0	-126571.0	-782.0	11634.0
29	17	46	38	279	156.0	-143741.0	-790.0	10501.0
29	17	46	38	280	157.0	-168831.0	-788.0	10596.0
29	17	46	38	280	158.0	-196343.0	-766.0	10338.0
29	17	46	38	281	159.0	-221280.0	-782.0	9549.0
29	17	46	38	282	160.0	-242904.0	-818.0	10428.0
29	17	46	38	282	161.0	-260316.0	-817.0	9889.0
29	17	46	38	283	162.0	-271197.0	-832.0	9521.0
29	17	46	38	284	163.0	-272318.0	-831.0	9896.0
29	17	46	38	284	164.0	-265011.0	-829.0	9589.0
29	17	46	38	285	165.0	-249154.0	-849.0	8679.0
29	17	46	38	286	166.0	-212149.0	-876.0	8254.0
29	17	46	38	286	167.0	-160824.0	-893.0	8043.0
29	17	46	38	287	191.0	-168151.0	-912.0	6194.0
29	17	46	38	288	192.0	-168536.0	-891.0	6377.0
29	17	46	38	288	193.0	-170174.0	-894.0	5483.0
29	17	46	38	289	194.0	-172172.0	-886.0	4829.0
29	17	46	38	290	195.0	-174571.0	-886.0	4124.0
29	17	46	38	290	196.0	-177566.0	-860.0	4309.0
29	17	46	38	291	197.0	-180959.0	-861.0	4434.0
29	17	46	38	323	198.0	-183368.0	-867.0	4068.0
29	17	46	38	324	199.0	-184386.0	-859.0	3305.0
29	17	46	38	324	200.0	-183336.0	-858.0	2938.0
29	17	46	38	325	201.0	-180692.0	-885.0	3321.0
29	17	46	38	326	202.0	-177577.0	-877.0	2932.0
29	17	46	38	326	203.0	-175077.0	-864.0	2334.0
29	17	46	38	327	204.0	-173567.0	-878.0	3034.0
29	17	46	38	328	205.0	-172349.0	-899.0	3408.0
29	17	46	38	328	206.0	-171258.0	-900.0	3649.0
29	17	46	38	329	207.0	-170267.0	-907.0	3571.0
29	17	46	38	330	208.0	-169081.0	-922.0	3448.0
29	17	46	38	330	209.0	-167632.0	-932.0	2450.0
29	17	46	38	331	210.0	-165936.0	-956.0	2926.0
29	17	46	38	332	211.0	-164532.0	-963.0	2745.0
29	17	46	38	332	212.0	-163262.0	-968.0	1726.0
29	17	46	38	333	214.0	-161275.0	-982.0	858.0
29	17	46	38	333	215.0	-161491.0	-992.0	1703.0
29	17	46	38	334	216.0	-162901.0	-987.0	1298.0
29	17	46	38	335	217.0	-164886.0	-973.0	1233.0
29	17	46	38	367	218.0	-167493.0	-979.0	2233.0
29	17	46	38	368	219.0	-170657.0	-979.0	2499.0
29	17	46	38	368	220.0	-173557.0	-992.0	1709.0
29	17	46	38	369	221.0	-175483.0	-987.0	898.0
29	17	46	38	370	222.0	-176729.0	-991.0	613.0
29	17	46	38	370	223.0	-178107.0	-1016.0	689.0
29	17	46	38	371	224.0	-179847.0	-1022.0	338.0
29	17	46	38	372	225.0	-181989.0	-1019.0	-393.0
29	17	46	38	372	226.0	-184319.0	-1031.0	-1414.0
29	17	46	38	373	227.0	-187090.0	-1047.0	-1766.0
29	17	46	38	374	228.0	-190551.0	-1061.0	-2069.0
29	17	46	38	375	229.0	-194414.0	-1068.0	-2091.0
29	17	46	38	376	230.0	-198989.0	-1057.0	-1853.0
29	17	46	38	377	231.0	-205384.0	-1085.0	-1883.0
29	17	46	38	377	232.0	-211439.0	-1089.0	-1835.0
29	17	46	38	378	233.0	-216434.0	-1102.0	-1659.0
29	17	46	38	379	237.0	-222722.0	-1149.0	-171.0
29	17	46	38	379	238.0	-223036.0	-1174.0	-547.0
29	17	46	38	380	239.0	-223634.0	-1201.0	-1069.0
29	17	46	38	381	240.0	-224718.0	-1207.0	-1571.0
29	17	46	38	381	241.0	-225632.0	-1198.0	-2602.0
29	17	46	38	382	242.0	-226338.0	-1213.0	-2674.0
29	17	46	38	412	243.0	-227176.0	-1229.0	-2718.0
29	17	46	38	412	244.0	-227779.0	-1224.0	-2903.0
29	17	46	38	413	245.0	-227375.0	-1262.0	-2337.0
29	17	46	38	414	246.0	-225979.0	-1317.0	-1711.0
29	17	46	38	414	247.0	-224032.0	-1346.0	-1045.0
29	17	46	38	415	248.0	-221189.0	-1347.0	-1695.0
29	17	46	38	416	249.0	-217345.0	-1367.0	-2264.0
29	17	46	38	417	250.0	-212512.0	-1389.0	-2703.0
29	17	46	38	417	251.0	-206583.0	-1427.0	-1541.0
29	17	46	38	418	252.0	-199620.0	-1445.0	-1268.0
29	17	46	38	419	253.0	-192458.0	-1451.0	-3092.0
29	17	46	38	419	254.0	-185837.0	-1465.0	-3656.0
29	17	46	38	420	255.0	-179977.0	-1501.0	-1755.0
29	17	46	38	421	0.0	-175045.0	-1509.0	-836.0
29	17	46	38	421	1.0	-171072.0	-1499.0	-246.0
29	17	46	38	422	3.0	-166460.0	-1521.0	-161.0
29	17	46	38	423	4.0	-165533.0	-1535.0	1079.0
29	17	46	38	423	5.0	-166151.0	-1543.0	1830.0
29	17	46	38	424	6.0	-167791.0	-1527.0	3053.0
29	17	46	38	425	7.0	-169416.0	-1536.0	2936.0
29	17	46	38	457	8.0	-171292.0	-1537.0	2336.0
29	17	46	38	458	9.0	-173671.0	-1531.0	3259.0
29	17	46	38	458	10.0	-176216.0	-1537.0	3233.0
29	17	46	38	459	11.0	-179230.0	-1527.0	2437.0
29	17	46	38	460	12.0	-182461.0	-1525.0	2191.0
29	17	46	38	460	13.0	-185319.0	-1538.0	1900.0
29	17	46	38	502	14.0	-188029.0	-1554.0	3217.0
29	17	46	38	503	15.0	-190621.0	-1569.0	4715.0
29	17	46	38	504	16.0	-193067.0	-1571.0	5455.0
29	17	46	38	505	17.0	-195312.0	-1556.0	4628.0
29	17	46	38	505	18.0	-197299.0	-1564.0	4616.0
29	17	46	38	506	19.0	-199072.0	-1572.0	5128.0
29	17	46	38	507	20.0	-200428.0	-1591.0	5418.0
29	17	46	38	507	21.0	-200909.0	-1591.0	5656.0
29	17	46	38	508	22.0	-201056.0	-1596.0	5879.0
29	17	46	38	509	25.0	-201630.0	-1578.0	4528.0
29	17	46	38	509	26.0	-202019.0	-1585.0	4700.0
29	17	46	38	510	27.0	-203684.0	-1605.0	4876.0
29	17	46	38	511	28.0	-206604.0	-1598.0	4353.0
29	17	46	38	511	29.0	-210076.0	-1631.0	4008.0
29	17	46	38	512	30.0	-213906.0	-1663.0	4134.0
29	17	46	38	546	31.0	-218066.0	-1687.0	4825.0
29	17	46	38	547	48.0	-137059.0	-2081.0	4606.0
29	17	46	38	548	49.0	-123019.0	-2099.0	4363.0
29	17	46	38	548	50.0	-132182.0	-2071.0	4746.0
29	17	46	38	549	51.0	-160517.0	-2060.0	5696.0
29	17	46	38	550	52.0	-196551.0	-2081.0	5216.0
29	17	46	38	550	53.0	-222542.0	-2118.0	3788.0
29	17	46	38	592	54.0	-242572.0	-2109.0	3660.0
29	17	46	38	593	55.0	-257889.0	-2120.0	4064.0
29	17	46	38	593	56.0	-264767.0	-2138.0	4476.0
29	17	46	38	594	57.0	-263096.0	-2157.0	5319.0
29	17	46	38	595	58.0	-253845.0	-2181.0	5109.0
29	17	46	38	596	59.0	-241612.0	-2217.0	5804.0
29	17	46	38	596	60.0	-227467.0	-2226.0	5555.0
29	17	46	38	597	61.0	-211088.0	-2225.0	5854.0
29	17	46	38	598	62.0	-194499.0	-2232.0	5523.0
29	17	46	38	598	70.0	-105664.0	-2321.0	4089.0
29	17	46	38	599	71.0	-107812.0	-2326.0	4718.0
29	17	46	38	600	72.0	-119480.0	-2317.0	4741.0
29	17	46	38	601	73.0	-137097.0	-2327.0	4300.0
29	17	46	38	602	74.0	-159793.0	-2297.0	3973.0
29	17	46	38	602	75.0	-184291.0	-2287.0	4327.0
29	17	46	38	603	76.0	-206227.0	-2284.0	4254.0
29	17	46	38	604	93.0	-241499.0	-2286.0	5111.0
29	17	46	38	604	94.0	-235874.0	-2260.0	4779.0
29	17	46	38	605	95.0	-229774.0	-2241.0	4178.0
29	17	46	38	606	96.0	-223344.0	-2221.0	3096.0
29	17	46	38	606	97.0	-217280.0	-2211.0	2848.0
29	17	46	38	607	98.0	-211976.0	-2171.0	3327.0
29	17	46	38	637	99.0	-207645.0	-2147.0	3570.0
29	17	46	38	638	100.0	-204885.0	-2136.0	3538.0
29	17	46	38	639	101.0	-203422.0	-2147.0	4588.0
29	17	46	38	640	102.0	-202165.0	-2144.0	5627.0
29	17	46	38	640	103.0	-200899.0	-2112.0	5837.0
29	17	46	38	641	104.0	-200345.0	-2094.0	5142.0
29	17	46	38	642	105.0	-199594.0	-2097.0	3944.0
29	17	46	38	642	106.0	-198797.0	-2073.0	4281.0
29	17	46	38	643	107.0	-197369.0	-2091.0	4053.0
29	17	46	38	644	108.0	-194393.0	-2090.0	4511.0
29	17	46	38	644	109.0	-190122.0	-2081.0	4322.0
29	17	46	38	645	110.0	-184259.0	-2095.0	3645.0
29	17	46	38	646	111.0	-178033.0	-2079.0	3370.0
29	17	46	38	646	112.0	-171685.0	-2080.0	3911.0
29	17	46	38	647	113.0	-165649.0	-2098.0	3949.0
29	17	46	38	648	115.0	-155434.0	-2138.0	3359.0
29	17	46	38	649	116.0	-151330.0	-2152.0	4151.0
29	17	46	38	649	117.0	-147532.0	-2162.0	4482.0
29	17	46	38	650	118.0	-144667.0	-2154.0	4320.0
29	17	46	38	650	119.0	-143217.0	-2156.0	4544.0
29	17	46	38	651	120.0	-143058.0	-2159.0	4404.0
29	17	46	38	683	121.0	-143919.0	-2170.0	3912.0
29	17	46	38	684	122.0	-145977.0	-2161.0	3329.0
29	17	46	38	684	123.0	-149129.0	-2149.0	2799.0
29	17	46	38	685	124.0	-153637.0	-2157.0	2374.0
29	17	46	38	686	125.0	-159290.0	-2175.0	2170.0
29	17	46	38	687	126.0	-166413.0	-2194.0	2621.0
29	17	46	38	687	127.0	-175317.0	-2219.0	3103.0
29	17	46	38	688	128.0	-185762.0	-2244.0	2454.0
29	17	46	38	689	129.0	-197154.0	-2255.0	2583.0
29	17	46	38	689	130.0	-208867.0	-2274.0	3285.0
29	17	46	38	690	131.0	-220897.0	-2292.0	3083.0
29	17	46	38	690	132.0	-233366.0	-2314.0	3024.0
29	17	46	38	728	133.0	-245131.0	-2322.0	3933.0
29	17	46	38	729	134.0	-255631.0	-2340.0	3909.0
29	17	46	38	729	135.0	-264008.0	-2356.0	5456.0
29	17	46	38	730	137.0	-272752.0	-2348.0	5886.0
29	17	46	38	730	138.0	-272816.0	-2374.0	5347.0
29	17	46	38	731	139.0	-270367.0	-2383.0	5333.0
29	17	46	38	819	140.0	-265997.0	-2397.0	5734.0
29	17	46	38	820	141.0	-260338.0	-2421.0	4485.0
29	17	46	38	821	142.0	-254029.0	-2424.0	3283.0
29	17	46	38	822	143.0	-246650.0	-2418.0	2953.0
29	17	46	38	822	144.0	-238583.0	-2424.0	3490.0
29	17	46	38	823	145.0	-229839.0	-2434.0	3690.0
29	17	46	38	824	146.0	-220784.0	-2467.0	4153.0
29	17	46	38	824	147.0	-211579.0	-2480.0	3698.0
29	17	46	38	825	148.0	-202834.0	-2506.0	3538.0
29	17	46	38	826	149.0	-195824.0	-2522.0	4946.0
29	17	46	38	827	160.0	-150534.0	-2664.0	4289.0
29	17	46	38	827	161.0	-145774.0	-2687.0	3576.0
29	17	46	38	828	162.0	-142077.0	-2693.0	3954.0
29	17	46	38	829	163.0	-138948.0	-2689.0	3581.0
29	17	46	38	829	164.0	-136457.0	-2695.0	3316.0
29	17	46	38	830	165.0	-134974.0	-2710.0	2756.0
29	17	46	38	831	205.0	-225209.0	-2972.0	4575.0
29	17	46	38	831	206.0	-218927.0	-2957.0	4419.0
29	17	46	38	832	207.0	-212821.0	-2926.0	4810.0
29	17	46	38	832	208.0	-206911.0	-2919.0	5207.0
29	17	46	38	833	209.0	-201247.0	-2900.0	5379.0
29	17	46	38	834	210.0	-196069.0	-2876.0	5439.0
29	17	46	38	863	211.0	-191601.0	-2880.0	6494.0
29	17	46	38	864	212.0	-187549.0	-2856.0	6879.0
29	17	46	38	865	213.0	-183477.0	-2841.0	5984.0
29	17	46	38	865	214.0	-179226.0	-2842.0	5627.0
29	17	46	38	866	215.0	-175332.0	-2834.0	5603.0
29	17	46	38	867	216.0	-171514.0	-2804.0	5138.0
29	17	46	38	868	217.0	-168009.0	-2784.0	4844.0
29	17	46	38	868	218.0	-165390.0	-2783.0	4715.0
29	17	46	38	869	219.0	-163606.0	-2776.0	4570.0
29	17	46	38	870	220.0	-162667.0	-2778.0	3508.0
29	17	46	38	870	221.0	-162596.0	-2774.0	3019.0
29	17	46	38	871	222.0	-162916.0	-2764.0	2525.0
29	17	46	38	872	223.0	-164377.0	-2771.0	2532.0
29	17	46	38	873	224.0	-167138.0	-2764.0	2808.0
29	17	46	38	873	225.0	-170891.0	-2755.0	2660.0
29	17	46	38	874	227.0	-181949.0	-2757.0	2499.0
29	17	46	38	875	228.0	-188124.0	-2738.0	2309.0
29	17	46	38	875	229.0	-193815.0	-2700.0	2735.0
29	17	46	38	876	230.0	-198822.0	-2702.0	2359.0
29	17	46	38	877	231.0	-203316.0	-2674.0	1833.0
29	17	46	38	877	232.0	-207112.0	-2662.0	2344.0
29	17	46	38	878	233.0	-210320.0	-2624.0	2701.0
29	17	46	38	908	234.0	-212925.0	-2605.0	2009.0
29	17	46	38	909	235.0	-215127.0	-2582.0	1232.0
29	17	46	38	909	236.0	-216590.0	-2580.0	1201.0
29	17	46	38	910	237.0	-217305.0	-2583.0	1678.0
29	17	46	38	911	238.0	-217648.0	-2570.0	1696.0
29	17	46	38	912	239.0	-217224.0	-2548.0	1633.0
29	17	46	38	912	240.0	-215866.0	-2529.0	876.0
29	17	46	38	913	241.0	-213525.0	-2553.0	729.0
29	17	46	38	914	242.0	-210522.0	-2538.0	2199.0
29	17	46	38	915	243.0	-207155.0	-2511.0	3050.0
29	17	46	38	915	244.0	-203702.0	-2489.0	3921.0
29	17	46	38	916	245.0	-200642.0	-2470.0	4611.0
29	17	46	38	917	246.0	-197686.0	-2450.0	5041.0
29	17	46	38	917	247.0	-194861.0	-2443.0	5442.0
29	17	46	38	918	248.0	-192584.0	-2441.0	5363.0
29	17	46	38	919	250.0	-189092.0	-2427.0	5068.0
29	17	46	38	919	251.0	-187784.0	-2417.0	3984.0
29	17	46	38	920	252.0	-185801.0	-2401.0	3311.0
29	17	46	38	921	253.0	-183351.0	-2394.0	2878.0
29	17	46	38	921	254.0	-180600.0	-2376.0	3106.0
29	17	46	38	922	255.0	-177195.0	-2339.0	3664.0
29	17	46	38	952	0.0	-173822.0	-2346.0	3343.0
29	17	46	38	953	1.0	-170565.0	-2347.0	2097.0
29	17	46	38	954	2.0	-167549.0	-2334.0	2214.0
29	17	46	38	955	3.0	-165425.0	-2343.0	2654.0
29	17	46	38	956	4.0	-164021.0	-2349.0	2068.0
29	17	46	38	956	5.0	-163377.0	-2356.0	1933.0
29	17	46	38	957	6.0	-163581.0	-2366.0	1308.0
29	17	46	38	958	7.0	-164942.0	-2388.0	729.0
29	17	46	38	959	8.0	-167506.0	-2382.0	919.0
29	17	46	38	959	9.0	-170337.0	-2393.0	1034.0
29	17	46	38	960	10.0	-173572.0	-2405.0	1056.0
29	17	46	38	961	11.0	-177331.0	-2415.0	447.0
29	17	46	38	961	12.0	-181594.0	-2403.0	12.0
29	17	46	38	962	13.0	-186407.0	-2437.0	334.0
29	17	46	38	963	14.0	-191212.0	-2464.0	776.0
29	17	46	38	963	16.0	-200956.0	-2532.0	576.0
29	17	46	38	964	17.0	-205609.0	-2555.0	-406.0
29	17	46	38	965	18.0	-210581.0	-2584.0	-287.0
29	17	46	38	965	19.0	-215321.0	-2582.0	65.0
29	17	46	38	966	20.0	-219784.0	-2594.0	-266.0
29	17	46	38	967	21.0	-223524.0	-2618.0	-657.0
29	17	46	38	967	22.0	-225477.0	-2596.0	-499.0
29	17	46	38	998	23.0	-226397.0	-2576.0	-999.0
29	17	46	39	42	24.0	-226442.0	-2562.0	-2133.0
29	17	46	39	88	25.0	-226291.0	-2567.0	-5497.0
29	17	46	39	88	26.0	-226646.0	-2557.0	-8656.0
29	17	46	39	89	27.0	-227232.0	-2562.0	-9652.0
29	17	46	39	90	28.0	-228158.0	-2559.0	-9756.0
29	17	46	39	91	29.0	-229246.0	-2539.0	-10389.0
29	17	46	39	91	30.0	-230123.0	-2536.0	-13037.0
29	17	46	39	92	31.0	-231345.0	-2524.0	-12950.0
29	17	46	39	93	32.0	-232477.0	-2504.0	-12496.0
29	17	46	39	93	33.0	-233391.0	-2484.0	-10067.0
29	17	46	39	94	34.0	-234602.0	-2465.0	-4452.0
29	17	46	39	95	35.0	-235219.0	-2456.0	-2031.0
29	17	46	39	96	36.0	-234452.0	-2461.0	-2124.0
29	17	46	39	96	37.0	-232336.0	-2475.0	812.0
29	17	46	39	97	38.0	-228654.0	-2464.0	3219.0
29	17	46	39	98	61.0	-106964.0	-2509.0	4206.0
29	17	46	39	98	83.0	-176279.0	-2407.0	-3026.0
29	17	46	39	99	84.0	-206213.0	-2414.0	-2663.0
29	17	46	39	100	85.0	-230069.0	-2400.0	-2464.0
29	17	46	39	100	86.0	-243436.0	-2397.0	-2163.0
29	17	46	39	101	87.0	-246171.0	-2381.0	-2919.0
29	17	46	39	102	88.0	-242556.0	-2371.0	-3410.0
29	17	46	39	102	89.0	-241589.0	-2379.0	-3074.0
29	17	46	39	133	90.0	-245694.0	-2372.0	-3169.0
29	17	46	39	134	91.0	-249680.0	-2365.0	-3242.0
29	17	46	39	135	92.0	-249526.0	-2352.0	-3390.0
29	17	46	39	136	93.0	-243215.0	-2337.0	-3431.0
29	17	46	39	136	94.0	-229724.0	-2349.0	-2783.0
29	17	46	39	137	95.0	-208402.0	-2348.0	-3332.0
29	17	46	39	138	96.0	-182569.0	-2349.0	-3438.0
29	17	46	39	138	97.0	-157992.0	-2356.0	-3640.0
29	17	46	39	139	98.0	-138312.0	-2330.0	-4973.0
29	17	46	39	140	99.0	-125682.0	-2316.0	-4934.0
29	17	46	39	140	100.0	-118694.0	-2301.0	-5226.0
29	17	46	39	141	101.0	-115947.0	-2289.0	-5328.0
29	17	46	39	142	102.0	-115756.0	-2280.0	-5165.0
29	17	46	39	142	103.0	-116507.0	-2267.0	-5544.0
29	17	46	39	143	104.0	-119069.0	-2256.0	-5573.0
29	17	46	39	178	106.0	-127810.0	-2266.0	-6064.0
29	17	46	39	179	107.0	-132868.0	-2251.0	-6452.0
29	17	46	39	180	108.0	-136634.0	-2236.0	-6027.0
29	17	46	39	180	109.0	-140664.0	-2216.0	-6312.0
29	17	46	39	200	110.0	-145627.0	-2221.0	-6899.0
29	17	46	39	201	111.0	-151750.0	-2202.0	-6994.0
29	17	46	39	202	112.0	-158213.0	-2191.0	-5923.0
29	17	46	39	202	113.0	-165334.0	-2177.0	-6179.0
29	17	46	39	203	114.0	-173362.0	-2167.0	-6703.0
29	17	46	39	203	115.0	-180444.0	-2172.0	-6994.0
29	17	46	39	204	116.0	-186834.0	-2147.0	-6255.0
29	17	46	39	205	117.0	-193033.0	-2131.0	-5734.0
29	17	46	39	205	118.0	-198387.0	-2129.0	-5502.0
29	17	46	39	206	119.0	-203372.0	-2121.0	-6003.0
29	17	46	39	206	120.0	-207681.0	-2127.0	-6240.0
29	17	46	39	207	121.0	-212069.0	-2143.0	-5534.0
29	17	46	39	207	128.0	-228325.0	-2098.0	-9139.0
29	17	46	39	208	129.0	-229076.0	-2101.0	-9202.0
29	17	46	39	209	130.0	-229416.0	-2084.0	-8954.0
29	17	46	39	209	131.0	-229393.0	-2067.0	-8444.0
29	17	46	39	210	132.0	-229305.0	-2077.0	-8896.0
29	17	46	39	210	133.0	-227640.0	-2047.0	-9286.0
29	17	46	39	211	134.0	-224519.0	-1997.0	-9412.0
29	17	46	39	224	135.0	-219361.0	-1994.0	-9559.0
29	17	46	39	225	136.0	-213019.0	-1976.0	-9557.0
29	17	46	39	226	137.0	-205928.0	-1994.0	-9469.0
29	17	46	39	226	138.0	-197406.0	-1978.0	-9576.0
29	17	46	39	227	139.0	-189355.0	-1969.0	-9756.0
29	17	46	39	227	140.0	-180895.0	-1932.0	-9819.0
29	17	46	39	267	141.0	-172318.0	-1924.0	-9135.0
29	17	46	39	268	142.0	-164791.0	-1919.0	-9734.0
29	17	46	39	269	143.0	-157788.0	-1918.0	-10008.0
29	17	46	39	269	144.0	-152039.0	-1900.0	-10461.0
29	17	46	39	270	145.0	-147084.0	-1899.0	-10757.0
29	17	46	39	271	146.0	-143634.0	-1895.0	-11020.0
29	17	46	39	271	147.0	-141961.0	-1885.0	-11569.0
29	17	46	39	272	148.0	-140509.0	-1872.0	-11604.0
29	17	46	39	273	149.0	-140233.0	-1859.0	-11591.0
29	17	46	39	273	151.0	-142390.0	-1826.0	-12327.0
29	17	46	39	274	152.0	-145652.0	-1825.0	-12510.0
29	17	46	39	274	153.0	-149596.0	-1816.0	-12450.0
29	17	46	39	275	154.0	-154955.0	-1801.0	-11765.0
29	17	46	39	276	155.0	-160605.0	-1809.0	-11856.0
29	17	46	39	276	156.0	-166453.0	-1814.0	-12638.0
29	17	46	39	277	157.0	-172299.0	-1806.0	-12447.0
29	17	46	39	278	173.0	-254480.0	-1807.0	-6718.0
29	17	46	39	278	174.0	-255871.0	-1811.0	-6509.0
29	17	46	39	279	175.0	-255459.0	-1791.0	-7506.0
29	17	46	39	279	176.0	-253413.0	-1796.0	-7204.0
29	17	46	39	312	177.0	-250293.0	-1799.0	-7094.0
29	17	46	39	332	178.0	-245372.0	-1766.0	-6851.0
29	17	46	39	333	179.0	-239192.0	-1760.0	-6417.0
29	17	46	39	334	180.0	-231824.0	-1772.0	-5998.0
29	17	46	39	334	181.0	-224029.0	-1777.0	-5561.0
29	17	46	39	335	182.0	-216533.0	-1775.0	-5841.0
29	17	46	39	335	183.0	-209280.0	-1779.0	-6177.0
29	17	46	39	336	184.0	-202976.0	-1791.0	-6466.0
29	17	46	39	337	185.0	-197206.0	-1801.0	-6546.0
29	17	46	39	337	186.0	-191190.0	-1797.0	-5656.0
29	17	46	39	338	187.0	-184937.0	-1762.0	-4592.0
29	17	46	39	338	188.0	-178678.0	-1752.0	-4745.0
29	17	46	39	339	189.0	-172988.0	-1765.0	-4885.0
29	17	46	39	340	190.0	-167547.0	-1776.0	-4834.0
29	17	46	39	340	191.0	-162555.0	-1777.0	-4525.0
29	17	46	39	341	195.0	-153997.0	-1781.0	-5694.0
29	17	46	39	341	196.0	-154495.0	-1787.0	-6049.0
29	17	46	39	342	197.0	-155922.0	-1811.0	-6733.0
29	17	46	39	342	198.0	-157541.0	-1803.0	-7120.0
29	17	46	39	343	199.0	-159042.0	-1797.0	-6356.0
29	17	46	39	344	200.0	-159982.0	-1795.0	-5677.0
29	17	46	39	344	201.0	-161011.0	-1779.0	-5342.0
29	17	46	39	357	202.0	-162406.0	-1769.0	-6291.0
29	17	46	39	358	203.0	-163827.0	-1759.0	-7056.0
29	17	46	39	358	204.0	-165467.0	-1756.0	-6616.0
29	17	46	39	359	205.0	-167502.0	-1764.0	-5825.0
29	17	46	39	360	206.0	-170316.0	-1772.0	-5559.0
29	17	46	39	360	207.0	-173016.0	-1801.0	-6249.0
29	17	46	39	361	208.0	-175607.0	-1805.0	-5953.0
29	17	46	39	362	209.0	-178396.0	-1802.0	-5581.0
29	17	46	39	362	210.0	-180119.0	-1804.0	-4629.0
29	17	46	39	363	211.0	-174994.0	-1797.0	-5270.0
29	17	46	39	364	212.0	-154526.0	-1775.0	-6029.0
29	17	46	39	364	213.0	-141812.0	-1792.0	-6426.0
29	17	46	39	365	214.0	-154425.0	-1806.0	-6429.0
29	17	46	39	365	215.0	-184031.0	-1808.0	-6097.0
29	17	46	39	366	216.0	-221467.0	-1809.0	-5546.0
29	17	46	39	367	218.0	-270698.0	-1794.0	-3956.0
29	17	46	39	367	219.0	-286290.0	-1812.0	-3302.0
29	17	46	39	368	220.0	-291831.0	-1800.0	-3113.0
29	17	46	39	368	221.0	-291397.0	-1792.0	-2714.0
29	17	46	39	369	222.0	-284309.0	-1767.0	-3580.0
29	17	46	39	370	223.0	-273268.0	-1761.0	-3437.0
29	17	46	39	417	224.0	-260844.0	-1749.0	-3562.0
29	17	46	39	432	225.0	-245928.0	-1754.0	-3332.0
29	17	46	39	433	226.0	-229953.0	-1764.0	-4254.0
29	17	46	39	433	227.0	-213451.0	-1758.0	-5703.0
29	17	46	39	434	228.0	-195416.0	-1737.0	-6060.0
29	17	46	39	434	229.0	-177739.0	-1753.0	-5826.0
29	17	46	39	435	230.0	-162112.0	-1737.0	-5966.0
29	17	46	39	436	231.0	-148567.0	-1724.0	-6056.0
29	17	46	39	436	232.0	-140425.0	-1704.0	-6527.0
29	17	46	39	437	233.0	-140946.0	-1700.0	-6324.0
29	17	46	39	438	234.0	-148023.0	-1705.0	-5087.0
29	17	46	39	438	235.0	-159409.0	-1694.0	-6178.0
29	17	46	39	439	236.0	-173738.0	-1706.0	-6424.0
29	17	46	39	440	237.0	-186496.0	-1740.0	-5887.0
29	17	46	39	440	238.0	-194556.0	-1739.0	-5768.0
29	17	46	39	441	248.0	-179463.0	-1741.0	-5882.0
29	17	46	39	441	255.0	-187470.0	-1700.0	-5934.0
29	17	46	39	442	0.0	-188382.0	-1689.0	-5933.0
29	17	46	39	443	1.0	-190348.0	-1689.0	-5575.0
29	17	46	39	443	2.0	-193331.0	-1659.0	-5681.0
29	17	46	39	454	3.0	-197136.0	-1631.0	-4921.0
29	17	46	39	455	4.0	-201034.0	-1616.0	-4071.0
29	17	46	39	456	5.0	-205547.0	-1605.0	-3357.0
29	17	46	39	456	6.0	-210578.0	-1588.0	-2947.0
29	17	46	39	457	7.0	-216837.0	-1584.0	-3622.0
29	17	46	39	477	8.0	-223699.0	-1584.0	-3750.0
29	17	46	39	478	9.0	-230639.0	-1586.0	-2922.0
29	17	46	39	478	10.0	-236861.0	-1594.0	-3074.0
29	17	46	39	479	11.0	-242991.0	-1600.0	-3791.0
29	17	46	39	480	12.0	-248792.0	-1625.0	-4107.0
29	17	46	39	480	13.0	-252907.0	-1634.0	-4428.0
29	17	46	39	481	14.0	-255176.0	-1662.0	-4246.0
29	17	46	39	481	15.0	-255274.0	-1652.0	-4472.0
29	17	46	39	482	16.0	-253711.0	-1632.0	-4319.0
29	17	46	39	482	17.0	-249841.0	-1623.0	-5110.0
29	17	46	39	483	18.0	-244106.0	-1652.0	-5504.0
29	17	46	39	484	19.0	-236800.0	-1646.0	-5111.0
29	17	46	39	484	20.0	-229183.0	-1647.0	-4371.0
29	17	46	39	485	21.0	-221131.0	-1652.0	-3772.0
29	17	46	39	485	22.0	-213549.0	-1640.0	-4332.0
29	17	46	39	500	23.0	-207212.0	-1632.0	-4802.0
29	17	46	39	501	24.0	-201236.0	-1609.0	-5684.0
29	17	46	39	502	25.0	-196352.0	-1584.0	-6047.0
29	17	46	39	502	26.0	-192612.0	-1582.0	-5723.0
29	17	46	39	503	27.0	-190255.0	-1583.0	-5429.0
29	17	46	39	503	28.0	-187651.0	-1571.0	-6177.0
29	17	46	39	504	29.0	-185549.0	-1578.0	-7153.0
29	17	46	39	505	30.0	-183441.0	-1569.0	-6740.0
29	17	46	39	523	31.0	-181533.0	-1552.0	-6072.0
29	17	46	39	553	32.0	-180090.0	-1548.0	-5411.0
29	17	46	39	554	33.0	-178852.0	-1559.0	-4741.0
29	17	46	39	554	34.0	-177456.0	-1548.0	-4956.0
29	17	46	39	555	35.0	-174961.0	-1543.0	-4841.0
29	17	46	39	556	36.0	-172613.0	-1569.0	-5091.0
29	17	46	39	556	37.0	-170614.0	-1574.0	-5298.0
29	17	46	39	557	38.0	-169589.0	-1599.0	-5305.0
29	17	46	39	558	39.0	-169541.0	-1584.0	-4606.0
29	17	46	39	558	40.0	-171516.0	-1597.0	-5389.0
29	17	46	39	559	41.0	-174701.0	-1612.0	-6565.0
29	17	46	39	561	42.0	-178992.0	-1612.0	-6362.0
29	17	46	39	562	43.0	-183582.0	-1614.0	-6188.0
29	17	46	39	563	44.0	-188421.0	-1616.0	-6588.0
29	17	46	39	563	45.0	-192831.0	-1631.0	-6464.0
29	17	46	39	564	46.0	-196691.0	-1644.0	-5738.0
29	17	46	39	565	47.0	-200035.0	-1634.0	-4690.0
29	17	46	39	565	59.0	-202875.0	-1609.0	-6871.0
29	17	46	39	566	60.0	-200575.0	-1633.0	-6304.0
29	17	46	39	567	61.0	-198042.0	-1649.0	-5266.0
29	17	46	39	567	62.0	-195878.0	-1634.0	-5095.0
29	17	46	39	568	63.0	-194196.0	-1629.0	-5471.0
29	17	46	39	569	64.0	-193397.0	-1633.0	-5441.0
29	17	46	39	569	65.0	-192747.0	-1634.0	-5075.0
29	17	46	39	570	66.0	-192191.0	-1633.0	-5433.0
29	17	46	39	571	67.0	-191899.0	-1654.0	-6490.0
29	17	46	39	571	68.0	-192489.0	-1676.0	-6839.0
29	17	46	39	582	69.0	-192426.0	-1649.0	-6325.0
29	17	46	39	583	70.0	-191511.0	-1649.0	-6315.0
29	17	46	39	583	71.0	-190349.0	-1677.0	-6170.0
29	17	46	39	584	72.0	-188308.0	-1684.0	-6096.0
29	17	46	39	585	73.0	-185617.0	-1711.0	-6535.0
29	17	46	39	585	74.0	-181764.0	-1742.0	-6571.0
29	17	46	39	586	75.0	-178486.0	-1759.0	-6414.0
29	17	46	39	612	76.0	-176159.0	-1769.0	-6218.0
29	17	46	39	613	77.0	-175083.0	-1781.0	-6284.0
29	17	46	39	614	78.0	-175175.0	-1779.0	-6778.0
29	17	46	39	614	79.0	-177444.0	-1804.0	-5733.0
29	17	46	39	615	80.0	-180763.0	-1827.0	-6894.0
29	17	46	39	616	81.0	-184689.0	-1821.0	-7607.0
29	17	46	39	617	82.0	-188414.0	-1801.0	-7691.0
29	17	46	39	617	83.0	-191761.0	-1798.0	-8200.0
29	17	46	39	618	84.0	-194520.0	-1807.0	-7862.0
29	17	46	39	619	85.0	-196617.0	-1794.0	-8018.0
29	17	46	39	620	86.0	-197544.0	-1809.0	-8945.0
29	17	46	39	620	87.0	-198292.0	-1792.0	-9062.0
29	17	46	39	621	88.0	-198869.0	-1787.0	-8454.0
29	17	46	39	622	89.0	-198998.0	-1792.0	-8038.0
29	17	46	39	622	90.0	-199563.0	-1808.0	-7611.0
29	17	46	39	623	91.0	-198645.0	-1824.0	-7765.0
29	17	46	39	623	92.0	-196401.0	-1834.0	-8054.0
29	17	46	39	624	93.0	-193562.0	-1802.0	-7769.0
29	17	46	39	633	94.0	-190525.0	-1807.0	-7024.0
29	17	46	39	633	95.0	-187997.0	-1795.0	-6517.0
29	17	46	39	634	96.0	-187149.0	-1787.0	-6711.0
29	17	46	39	656	97.0	-187057.0	-1791.0	-7687.0
29	17	46	39	656	98.0	-188220.0	-1766.0	-7970.0
29	17	46	39	657	99.0	-189627.0	-1762.0	-8380.0
29	17	46	39	658	100.0	-191295.0	-1764.0	-8889.0
29	17	46	39	658	101.0	-192784.0	-1757.0	-9137.0
29	17	46	39	659	102.0	-193588.0	-1767.0	-7564.0
29	17	46	39	660	103.0	-194222.0	-1779.0	-6486.0
29	17	46	39	660	104.0	-194130.0	-1782.0	-5338.0
29	17	46	39	661	105.0	-193479.0	-1805.0	-5721.0
29	17	46	39	661	106.0	-192229.0	-1823.0	-6251.0
29	17	46	39	662	107.0	-190662.0	-1816.0	-5659.0
29	17	46	39	662	108.0	-188452.0	-1816.0	-5056.0
29	17	46	39	663	109.0	-186627.0	-1821.0	-5508.0
29	17	46	39	664	110.0	-184513.0	-1837.0	-5899.0
29	17	46	39	664	111.0	-182477.0	-1874.0	-6478.0
29	17	46	39	665	112.0	-179807.0	-1906.0	-5951.0
29	17	46	39	680	113.0	-178017.0	-1939.0	-5377.0
29	17	46	39	680	114.0	-176311.0	-1949.0	-5537.0
29	17	46	39	681	115.0	-175067.0	-1961.0	-5901.0
29	17	46	39	681	116.0	-175047.0	-1987.0	-6521.0
29	17	46	39	682	117.0	-175870.0	-1977.0	-5957.0
29	17	46	39	683	118.0	-177786.0	-1964.0	-5697.0
29	17	46	39	683	119.0	-179823.0	-1986.0	-6209.0
29	17	46	39	684	120.0	-182160.0	-1982.0	-5533.0
29	17	46	39	702	121.0	-183962.0	-1986.0	-5497.0
29	17	46	39	703	122.0	-185087.0	-1996.0	-5141.0
29	17	46	39	704	123.0	-186362.0	-2009.0	-4969.0
29	17	46	39	704	124.0	-187734.0	-2034.0	-5604.0
29	17	46	39	705	125.0	-187994.0	-2048.0	-5759.0
29	17	46	39	706	126.0	-187689.0	-2052.0	-5614.0
29	17	46	39	706	127.0	-187264.0	-2052.0	-5759.0
29	17	46	39	707	128.0	-187120.0	-2078.0	-6514.0
29	17	46	39	708	129.0	-187436.0	-2083.0	-6753.0
29	17	46	39	708	130.0	-188118.0	-2118.0	-6920.0
29	17	46	39	709	131.0	-190058.0	-2136.0	-6628.0
29	17	46	39	710	132.0	-191914.0	-2165.0	-6533.0
29	17	46	39	710	133.0	-194415.0	-2172.0	-6077.0
29	17	46	39	711	134.0	-197178.0	-2186.0	-5708.0
29	17	46	39	711	135.0	-199766.0	-2203.0	-5504.0
29	17	46	39	712	136.0	-201872.0	-2199.0	-5138.0
29	17	46	39	713	137.0	-203880.0	-2177.0	-5012.0
29	17	46	39	725	138.0	-204886.0	-2161.0	-5557.0
29	17	46	39	725	139.0	-205743.0	-2132.0	-5359.0
29	17	46	39	726	140.0	-206167.0	-2112.0	-5111.0
29	17	46	39	726	141.0	-206679.0	-2129.0	-5651.0
29	17	46	39	749	142.0	-207884.0	-2134.0	-6450.0
29	17	46	39	750	143.0	-209277.0	-2132.0	-7417.0
29	17	46	39	750	144.0	-211410.0	-2097.0	-7090.0
29	17	46	39	751	145.0	-214027.0	-2089.0	-7007.0
29	17	46	39	752	146.0	-217657.0	-2097.0	-6042.0
29	17	46	39	752	147.0	-221396.0	-2090.0	-6189.0
29	17	46	39	753	148.0	-225506.0	-2060.0	-6343.0
29	17	46	39	753	149.0	-229458.0	-2061.0	-5561.0
29	17	46	39	754	150.0	-232694.0	-2077.0	-4753.0
29	17	46	39	755	151.0	-233646.0	-2043.0	-4735.0
29	17	46	39	755	152.0	-233417.0	-2054.0	-5164.0
29	17	46	39	756	153.0	-231467.0	-2048.0	-5562.0
29	17	46	39	756	154.0	-228476.0	-2023.0	-6304.0
29	17	46	39	757	155.0	-224927.0	-2036.0	-5645.0
29	17	46	39	758	156.0	-220196.0	-2022.0	-5893.0
29	17	46	39	758	157.0	-215022.0	-2032.0	-6206.0
29	17	46	39	772	158.0	-209271.0	-2016.0	-6954.0
29	17	46	39	772	159.0	-203906.0	-2007.0	-6795.0
29	17	46	39	773	160.0	-198584.0	-2007.0	-6571.0
29	17	46	39	774	161.0	-193696.0	-1997.0	-7306.0
29	17	46	39	774	162.0	-189204.0	-2001.0	-7172.0
29	17	46	39	775	163.0	-185397.0	-2006.0	-5667.0
29	17	46	39	775	164.0	-182916.0	-2008.0	-5576.0
29	17	46	39	776	165.0	-181406.0	-1977.0	-6220.0
29	17	46	39	777	166.0	-180339.0	-1957.0	-6466.0
29	17	46	39	778	167.0	-179484.0	-1944.0	-6800.0
29	17	46	39	778	168.0	-178884.0	-1942.0	-6936.0
29	17	46	39	779	169.0	-178339.0	-1965.0	-6443.0
29	17	46	39	779	170.0	-178026.0	-1967.0	-6309.0
29	17	46	39	780	171.0	-177839.0	-1954.0	-7351.0
29	17	46	39	781	172.0	-178129.0	-1967.0	-6989.0
29	17	46	39	795	173.0	-178107.0	-1961.0	-6195.0
29	17	46	39	796	174.0	-178520.0	-1957.0	-7002.0
29	17	46	39	797	175.0	-179414.0	-1961.0	-7911.0
29	17	46	39	797	176.0	-180966.0	-1969.0	-7766.0
29	17	46	39	798	177.0	-183336.0	-1982.0	-7549.0
29	17	46	39	799	178.0	-186405.0	-1972.0	-7982.0
29	17	46	39	799	179.0	-191258.0	-1971.0	-8539.0
29	17	46	39	800	180.0	-196163.0	-1981.0	-7907.0
29	17	46	39	821	181.0	-201478.0	-1968.0	-7925.0
29	17	46	39	822	182.0	-207179.0	-1956.0	-8616.0
29	17	46	39	823	183.0	-212359.0	-1940.0	-8791.0
29	17	46	39	823	184.0	-217766.0	-1938.0	-9357.0
29	17	46	39	824	185.0	-222399.0	-1924.0	-10165.0
29	17	46	39	824	186.0	-225839.0	-1915.0	-9892.0
29	17	46	39	825	187.0	-228630.0	-1914.0	-9185.0
29	17	46	39	826	188.0	-229591.0	-1892.0	-8457.0
29	17	46	39	826	189.0	-228662.0	-1886.0	-8892.0
29	17	46	39	827	190.0	-225772.0	-1892.0	-7958.0
29	17	46	39	828	191.0	-221686.0	-1891.0	-8418.0
29	17	46	39	828	192.0	-217499.0	-1874.0	-7864.0
29	17	46	39	829	193.0	-212859.0	-1865.0	-7036.0
29	17	46	39	829	194.0	-208164.0	-1883.0	-6891.0
29	17	46	39	830	195.0	-203882.0	-1878.0	-7087.0
29	17	46	39	831	196.0	-199321.0	-1864.0	-6932.0
29	17	46	39	831	197.0	-194836.0	-1853.0	-7210.0
29	17	46	39	832	198.0	-190131.0	-1826.0	-7964.0
29	17	46	39	845	199.0	-185532.0	-1817.0	-7882.0
29	17	46	39	846	200.0	-181679.0	-1795.0	-8482.0
29	17	46	39	846	201.0	-178089.0	-1790.0	-8929.0
29	17	46	39	868	202.0	-175587.0	-1782.0	-8299.0
29	17	46	39	869	203.0	-173999.0	-1801.0	-8852.0
29	17	46	39	869	204.0	-173694.0	-1782.0	-8692.0
29	17	46	39	870	205.0	-173747.0	-1789.0	-8276.0
29	17	46	39	870	206.0	-173696.0	-1808.0	-7523.0
29	17	46	39	871	207.0	-174811.0	-1788.0	-7532.0
29	17	46	39	871	208.0	-176737.0	-1764.0	-8186.0
29	17	46	39	872	209.0	-178871.0	-1745.0	-9021.0
29	17	46	39	873	210.0	-180714.0	-1727.0	-8732.0
29	17	46	39	873	211.0	-181159.0	-1713.0	-8650.0
29	17	46	39	874	212.0	-180332.0	-1714.0	-9038.0
29	17	46	39	874	213.0	-178972.0	-1677.0	-9242.0
29	17	46	39	875	214.0	-176713.0	-1658.0	-9707.0
29	17	46	39	876	215.0	-174481.0	-1656.0	-9494.0
29	17	46	39	876	216.0	-172144.0	-1662.0	-9971.0
29	17	46	39	877	217.0	-170932.0	-1671.0	-10397.0
29	17	46	39	891	218.0	-170647.0	-1651.0	-9814.0
29	17	46	39	892	219.0	-171686.0	-1634.0	-10818.0
29	17	46	39	892	220.0	-174558.0	-1622.0	-11934.0
29	17	46	39	893	221.0	-178081.0	-1634.0	-12381.0
29	17	46	39	894	222.0	-181817.0	-1659.0	-13298.0
29	17	46	39	894	223.0	-185507.0	-1667.0	-13774.0
29	17	46	39	895	224.0	-188740.0	-1659.0	-14362.0
29	17	46	39	895	225.0	-191430.0	-1644.0	-14959.0
29	17	46	39	958	226.0	-193709.0	-1639.0	-17419.0
29	17	46	39	959	227.0	-196459.0	-1621.0	-19437.0
29	17	46	39	959	228.0	-198813.0	-1639.0	-19936.0
29	17	46	39	960	229.0	-200754.0	-1669.0	-20387.0
29	17	46	39	961	230.0	-202531.0	-1681.0	-21265.0
29	17	46	39	961	231.0	-203548.0	-1717.0	-23214.0
29	17	46	39	962	232.0	-203978.0	-1742.0	-25202.0
29	17	46	39	963	233.0	-203729.0	-1761.0	-24278.0
29	17	46	39	963	234.0	-203695.0	-1769.0	-23136.0
29	17	46	39	964	235.0	-204109.0	-1775.0	-19594.0
29	17	46	39	964	236.0	-204304.0	-1792.0	-15185.0
29	17	46	39	965	237.0	-204123.0	-1806.0	-14443.0
29	17	46	39	966	238.0	-203882.0	-1823.0	-13262.0
29	17	46	39	966	239.0	-203883.0	-1859.0	-11140.0
29	17	46	39	967	240.0	-203334.0	-1878.0	-7399.0
29	17	46	39	967	254.0	-236149.0	-2014.0	13634.0
29	17	46	39	968	5.0	-127849.0	-2022.0	-5083.0
29	17	46	39	969	6.0	-115509.0	-2032.0	-5857.0
29	17	46	39	969	7.0	-112984.0	-2034.0	-5519.0
29	17	46	39	978	8.0	-120764.0	-2030.0	-6459.0
29	17	46	39	978	9.0	-139209.0	-2006.0	-7466.0
29	17	46	39	979	10.0	-167912.0	-1981.0	-8005.0
29	17	46	39	980	11.0	-203467.0	-1970.0	-8467.0
29	17	46	39	980	12.0	-239406.0	-1961.0	-8707.0
29	17	46	39	981	13.0	-270249.0	-1961.0	-8540.0
29	17	46	40	1	14.0	-293638.0	-1949.0	-9238.0
29	17	46	40	1	15.0	-309015.0	-1952.0	-8975.0
29	17	46	40	2	16.0	-315168.0	-1950.0	-8966.0
29	17	46	40	3	17.0	-309028.0	-1959.0	-9729.0
29	17	46	40	3	18.0	-294236.0	-1963.0	-9864.0
29	17	46	40	4	19.0	-273852.0	-1961.0	-9189.0
29	17	46	40	5	20.0	-234415.0	-1956.0	-9525.0
29	17	46	40	5	21.0	-178806.0	-1931.0	-10257.0
29	17	46	40	6	22.0	-131032.0	-1921.0	-10109.0
29	17	46	40	6	23.0	-101752.0	-1930.0	-9491.0
29	17	46	40	7	24.0	-88031.0	-1917.0	-9059.0
29	17	46	40	8	25.0	-82700.0	-1921.0	-8714.0
29	17	46	40	8	26.0	-91381.0	-1924.0	-9733.0
29	17	46	40	9	27.0	-115821.0	-1924.0	-10489.0
29	17	46	40	9	28.0	-147927.0	-1923.0	-10569.0
29	17	46	40	23	29.0	-176843.0	-1934.0	-10758.0
29	17	46	40	23	30.0	-197686.0	-1930.0	-10961.0
29	17	46	40	24	31.0	-210659.0	-1922.0	-11905.0
29	17	46	40	25	32.0	-216573.0	-1954.0	-11757.0
29	17	46	40	25	33.0	-217297.0	-1976.0	-10480.0
29	17	46	40	26	34.0	-217854.0	-1969.0	-11001.0
29	17	46	40	26	35.0	-221491.0	-1987.0	-10608.0
29	17	46	40	27	36.0	-224707.0	-1997.0	-9915.0
29	17	46	40	47	37.0	-221484.0	-2018.0	-10299.0
29	17	46	40	47	38.0	-211616.0	-2031.0	-10822.0
29	17	46	40	48	39.0	-196484.0	-2036.0	-10705.0
29	17	46	40	49	40.0	-177588.0	-2078.0	-11177.0
29	17	46	40	49	41.0	-156927.0	-2086.0	-11601.0
29	17	46	40	50	42.0	-138750.0	-2086.0	-11349.0
29	17	46	40	50	43.0	-127261.0	-2085.0	-11237.0
29	17	46	40	51	44.0	-123106.0	-2067.0	-11619.0
29	17	46	40	52	45.0	-124777.0	-2035.0	-11577.0
29	17	46	40	52	46.0	-129897.0	-2049.0	-11485.0
29	17	46	40	53	47.0	-136772.0	-2039.0	-11394.0
29	17	46	40	53	48.0	-144384.0	-2024.0	-11013.0
29	17	46	40	54	49.0	-151805.0	-2032.0	-10491.0
29	17	46	40	55	50.0	-158789.0	-2064.0	-10272.0
29	17	46	40	55	51.0	-164846.0	-2046.0	-10215.0
29	17	46	40	69	52.0	-169755.0	-2041.0	-9993.0
29	17	46	40	70	53.0	-172876.0	-2053.0	-9792.0
29	17	46	40	70	54.0	-174746.0	-2058.0	-10316.0
29	17	46	40	71	55.0	-176762.0	-2067.0	-11131.0
29	17	46	40	72	56.0	-177962.0	-2083.0	-10656.0
29	17	46	40	72	57.0	-179856.0	-2083.0	-10601.0
29	17	46	40	73	58.0	-182530.0	-2091.0	-10113.0
29	17	46	40	97	59.0	-186030.0	-2091.0	-9998.0
29	17	46	40	98	60.0	-189490.0	-2071.0	-9834.0
29	17	46	40	98	61.0	-192176.0	-2087.0	-9095.0
29	17	46	40	99	62.0	-194996.0	-2086.0	-9319.0
29	17	46	40	100	63.0	-197312.0	-2090.0	-9499.0
29	17	46	40	100	64.0	-199205.0	-2099.0	-8946.0
29	17	46	40	101	65.0	-200937.0	-2079.0	-9424.0
29	17	46	40	102	66.0	-201814.0	-2067.0	-8867.0
29	17	46	40	102	67.0	-202900.0	-2063.0	-8457.0
29	17	46	40	103	68.0	-203586.0	-2069.0	-10067.0
29	17	46	40	103	69.0	-204726.0	-2047.0	-10632.0
29	17	46	40	104	70.0	-205942.0	-2041.0	-10293.0
29	17	46	40	105	71.0	-206327.0	-2024.0	-10476.0
29	17	46	40	105	72.0	-206572.0	-2026.0	-10492.0
29	17	46	40	106	73.0	-206818.0	-2024.0	-10780.0
29	17	46	40	106	74.0	-207061.0	-2004.0	-10797.0
29	17	46	40	107	75.0	-206874.0	-1975.0	-10723.0
29	17	46	40	108	76.0	-205413.0	-1961.0	-9740.0
29	17	46	40	108	77.0	-203438.0	-1951.0	-9327.0
29	17	46	40	109	78.0	-200583.0	-1934.0	-9489.0
29	17	46	40	109	79.0	-196350.0	-1914.0	-9821.0
29	17	46	40	121	80.0	-191975.0	-1896.0	-9141.0
29	17	46	40	122	81.0	-187121.0	-1892.0	-9975.0
29	17	46	40	144	82.0	-183371.0	-1896.0	-10804.0
29	17	46	40	144	83.0	-180454.0	-1906.0	-11496.0
29	17	46	40	145	84.0	-178522.0	-1888.0	-10960.0
29	17	46	40	145	85.0	-177409.0	-1882.0	-11629.0
29	17	46	40	146	86.0	-176122.0	-1870.0	-11817.0
29	17	46	40	147	87.0	-174536.0	-1852.0	-11663.0
29	17	46	40	147	88.0	-173311.0	-1861.0	-10966.0
29	17	46	40	148	89.0	-172883.0	-1851.0	-10019.0
29	17	46	40	148	90.0	-174114.0	-1859.0	-9735.0
29	17	46	40	149	91.0	-177187.0	-1868.0	-9912.0
29	17	46	40	150	92.0	-181624.0	-1869.0	-9997.0
29	17	46	40	150	93.0	-186717.0	-1879.0	-9179.0
29	17	46	40	151	94.0	-191994.0	-1875.0	-8129.0
29	17	46	40	151	95.0	-197052.0	-1876.0	-8210.0
29	17	46	40	152	96.0	-201551.0	-1876.0	-8386.0
29	17	46	40	153	97.0	-204832.0	-1887.0	-8668.0
29	17	46	40	153	98.0	-206903.0	-1865.0	-9242.0
29	17	46	40	154	99.0	-206760.0	-1868.0	-9100.0
29	17	46	40	154	100.0	-204885.0	-1877.0	-8152.0
29	17	46	40	155	101.0	-201447.0	-1872.0	-7921.0
29	17	46	40	156	102.0	-196617.0	-1860.0	-8157.0
29	17	46	40	166	103.0	-190645.0	-1863.0	-8004.0
29	17	46	40	167	104.0	-183800.0	-1877.0	-7773.0
29	17	46	40	168	105.0	-177140.0	-1877.0	-7589.0
29	17	46	40	168	106.0	-170634.0	-1871.0	-7106.0
29	17	46	40	169	107.0	-165462.0	-1857.0	-5901.0
29	17	46	40	170	108.0	-163009.0	-1847.0	-5770.0
29	17	46	40	170	109.0	-162721.0	-1860.0	-6549.0
29	17	46	40	171	110.0	-164811.0	-1871.0	-6789.0
29	17	46	40	171	111.0	-168731.0	-1874.0	-6738.0
29	17	46	40	187	112.0	-174187.0	-1874.0	-6211.0
29	17	46	40	188	113.0	-180903.0	-1840.0	-6116.0
29	17	46	40	189	114.0	-187570.0	-1823.0	-6331.0
29	17	46	40	189	115.0	-194036.0	-1825.0	-5316.0
29	17	46	40	190	116.0	-200202.0	-1829.0	-4237.0
29	17	46	40	190	117.0	-205870.0	-1839.0	-3814.0
29	17	46	40	191	118.0	-210777.0	-1839.0	-2806.0
29	17	46	40	213	119.0	-214397.0	-1819.0	-2730.0
29	17	46	40	214	120.0	-217268.0	-1829.0	-2527.0
29	17	46	40	214	121.0	-219179.0	-1845.0	-1210.0
29	17	46	40	215	122.0	-220302.0	-1854.0	-766.0
29	17	46	40	215	123.0	-221396.0	-1867.0	-1494.0
29	17	46	40	216	124.0	-221859.0	-1874.0	-1933.0
29	17	46	40	217	125.0	-222522.0	-1868.0	-1546.0
29	17	46	40	217	126.0	-222697.0	-1879.0	-1157.0
29	17	46	40	218	127.0	-222937.0	-1865.0	-382.0
29	17	46	40	218	128.0	-223316.0	-1867.0	-956.0
29	17	46	40	219	129.0	-223165.0	-1861.0	-357.0
29	17	46	40	220	130.0	-223399.0	-1856.0	-70.0
29	17	46	40	220	131.0	-223594.0	-1856.0	846.0
29	17	46	40	221	132.0	-223979.0	-1861.0	1536.0
29	17	46	40	221	133.0	-224532.0	-1847.0	1737.0
29	17	46	40	236	134.0	-224727.0	-1827.0	1744.0
29	17	46	40	236	135.0	-224907.0	-1809.0	2766.0
29	17	46	40	237	136.0	-224349.0	-1811.0	3188.0
29	17	46	40	237	137.0	-223109.0	-1796.0	2588.0
29	17	46	40	238	138.0	-221121.0	-1790.0	2453.0
29	17	46	40	239	139.0	-218018.0	-1784.0	2504.0
29	17	46	40	239	140.0	-214246.0	-1782.0	2928.0
29	17	46	40	240	141.0	-210099.0	-1800.0	2903.0
29	17	46	40	259	142.0	-205996.0	-1782.0	2272.0
29	17	46	40	260	143.0	-201771.0	-1749.0	1364.0
29	17	46	40	261	144.0	-197151.0	-1756.0	1668.0
29	17	46	40	261	145.0	-192366.0	-1789.0	1837.0
29	17	46	40	262	146.0	-187437.0	-1780.0	2315.0
29	17	46	40	262	147.0	-183039.0	-1775.0	2918.0
29	17	46	40	263	148.0	-179344.0	-1769.0	2806.0
29	17	46	40	264	149.0	-176328.0	-1762.0	2763.0
29	17	46	40	264	150.0	-174730.0	-1759.0	3140.0
29	17	46	40	265	151.0	-173549.0	-1772.0	2749.0
29	17	46	40	265	152.0	-172231.0	-1787.0	3182.0
29	17	46	40	266	153.0	-170513.0	-1790.0	3589.0
29	17	46	40	267	154.0	-167552.0	-1794.0	3556.0
29	17	46	40	267	155.0	-159033.0	-1818.0	2951.0
29	17	46	40	268	156.0	-142121.0	-1851.0	2789.0
29	17	46	40	288	157.0	-131761.0	-1851.0	3028.0
29	17	46	40	288	158.0	-139556.0	-1851.0	3383.0
29	17	46	40	289	159.0	-166364.0	-1853.0	3374.0
29	17	46	40	290	160.0	-200368.0	-1851.0	2877.0
29	17	46	40	291	161.0	-229529.0	-1867.0	3113.0
29	17	46	40	291	162.0	-255065.0	-1870.0	4131.0
29	17	46	40	292	163.0	-274386.0	-1868.0	4928.0
29	17	46	40	292	164.0	-284161.0	-1902.0	5086.0
29	17	46	40	293	165.0	-286836.0	-1899.0	5178.0
29	17	46	40	294	166.0	-281197.0	-1879.0	5259.0
29	17	46	40	294	167.0	-270493.0	-1887.0	4947.0
29	17	46	40	295	168.0	-258443.0	-1914.0	5376.0
29	17	46	40	296	169.0	-243947.0	-1893.0	5471.0
29	17	46	40	296	170.0	-228115.0	-1874.0	3708.0
29	17	46	40	297	171.0	-212090.0	-1894.0	3225.0
29	17	46	40	298	172.0	-196197.0	-1881.0	3761.0
29	17	46	40	298	173.0	-181725.0	-1897.0	4321.0
29	17	46	40	299	174.0	-169839.0	-1906.0	4620.0
29	17	46	40	308	175.0	-160095.0	-1892.0	5606.0
29	17	46	40	309	176.0	-150406.0	-1902.0	5753.0
29	17	46	40	331	177.0	-140906.0	-1907.0	6151.0
29	17	46	40	332	178.0	-132657.0	-1887.0	7043.0
29	17	46	40	333	179.0	-126522.0	-1886.0	6846.0
29	17	46	40	333	180.0	-124476.0	-1887.0	6158.0
29	17	46	40	334	181.0	-129427.0	-1893.0	5736.0
29	17	46	40	334	182.0	-139989.0	-1891.0	5809.0
29	17	46	40	335	183.0	-155342.0	-1906.0	5621.0
29	17	46	40	336	184.0	-173676.0	-1907.0	5249.0
29	17	46	40	336	185.0	-189505.0	-1902.0	4926.0
29	17	46	40	337	186.0	-199715.0	-1919.0	5193.0
29	17	46	40	337	187.0	-204351.0	-1929.0	5247.0
29	17	46	40	338	188.0	-205433.0	-1914.0	5929.0
29	17	46	40	339	189.0	-205919.0	-1882.0	6039.0
29	17	46	40	339	190.0	-206332.0	-1869.0	6264.0
29	17	46	40	353	191.0	-205933.0	-1866.0	6500.0
29	17	46	40	354	192.0	-205775.0	-1870.0	6656.0
29	17	46	40	355	193.0	-205766.0	-1877.0	6053.0
29	17	46	40	356	194.0	-205370.0	-1834.0	5793.0
29	17	46	40	356	195.0	-205242.0	-1811.0	5566.0
29	17	46	40	357	196.0	-206152.0	-1802.0	5881.0
29	17	46	40	357	197.0	-208119.0	-1796.0	6268.0
29	17	46	40	358	198.0	-210461.0	-1801.0	6161.0
29	17	46	40	358	199.0	-212685.0	-1772.0	6307.0
29	17	46	40	359	200.0	-214847.0	-1773.0	6666.0
29	17	46	40	360	201.0	-216595.0	-1779.0	6991.0
29	17	46	40	360	202.0	-217632.0	-1767.0	6218.0
29	17	46	40	361	203.0	-218166.0	-1766.0	5833.0
29	17	46	40	362	204.0	-218579.0	-1727.0	6234.0
29	17	46	40	362	205.0	-219384.0	-1706.0	6988.0
29	17	46	40	363	206.0	-220133.0	-1685.0	8372.0
29	17	46	40	364	207.0	-220714.0	-1669.0	8071.0
29	17	46	40	377	208.0	-221209.0	-1662.0	7264.0
29	17	46	40	378	209.0	-222159.0	-1634.0	7844.0
29	17	46	40	379	210.0	-223431.0	-1604.0	8203.0
29	17	46	40	379	211.0	-224894.0	-1574.0	7986.0
29	17	46	40	380	212.0	-226628.0	-1570.0	7238.0
29	17	46	40	381	213.0	-227732.0	-1574.0	7677.0
29	17	46	40	381	214.0	-227995.0	-1555.0	7895.0
29	17	46	40	382	215.0	-227304.0	-1531.0	8099.0
29	17	46	40	383	216.0	-225760.0	-1521.0	9188.0
29	17	46	40	408	217.0	-223002.0	-1492.0	8383.0
29	17	46	40	409	218.0	-219126.0	-1476.0	8266.0
29	17	46	40	409	219.0	-215047.0	-1456.0	8983.0
29	17	46	40	410	220.0	-211324.0	-1442.0	9453.0
29	17	46	40	411	221.0	-208899.0	-1443.0	9740.0
29	17	46	40	411	222.0	-207322.0	-1449.0	9843.0
29	17	46	40	412	223.0	-206824.0	-1444.0	10481.0
29	17	46	40	413	224.0	-206547.0	-1436.0	10419.0
29	17	46	40	413	225.0	-206787.0	-1429.0	9029.0
29	17	46	40	414	226.0	-206675.0	-1436.0	8150.0
29	17	46	40	416	227.0	-206492.0	-1410.0	7930.0
29	17	46	40	419	228.0	-205406.0	-1404.0	8014.0
29	17	46	40	420	229.0	-203565.0	-1406.0	8331.0
29	17	46	40	421	230.0	-201592.0	-1382.0	8453.0
29	17	46	40	422	231.0	-199699.0	-1374.0	8318.0
29	17	46	40	427	232.0	-198104.0	-1347.0	9023.0
29	17	46	40	428	233.0	-196479.0	-1332.0	9316.0
29	17	46	40	428	234.0	-194649.0	-1304.0	10148.0
29	17	46	40	429	235.0	-192904.0	-1291.0	9620.0
29	17	46	40	429	236.0	-191796.0	-1284.0	9399.0
29	17	46	40	438	237.0	-190426.0	-1278.0	10345.0
29	17	46	40	439	238.0	-189254.0	-1257.0	10808.0
29	17	46	40	439	239.0	-188621.0	-1226.0	10072.0
29	17	46	40	440	240.0	-189251.0	-1225.0	10062.0
29	17	46	40	440	241.0	-190484.0	-1194.0	9621.0
29	17	46	40	441	242.0	-191426.0	-1167.0	9315.0
29	17	46	40	441	243.0	-192338.0	-1161.0	8564.0
29	17	46	40	442	244.0	-193023.0	-1140.0	8392.0
29	17	46	40	443	245.0	-193591.0	-1089.0	8626.0
29	17	46	40	443	246.0	-193412.0	-1066.0	7846.0
29	17	46	40	460	247.0	-193065.0	-1052.0	9274.0
29	17	46	40	460	248.0	-192426.0	-1047.0	10381.0
29	17	46	40	461	249.0	-191580.0	-1046.0	9869.0
29	17	46	40	462	250.0	-191032.0	-1026.0	9469.0
29	17	46	40	462	251.0	-191484.0	-1012.0	9333.0
29	17	46	40	463	252.0	-192663.0	-1017.0	9966.0
29	17	46	40	482	253.0	-194331.0	-987.0	9171.0
29	17	46	40	482	254.0	-195992.0	-960.0	8392.0
29	17	46	40	483	255.0	-197549.0	-950.0	8226.0
29	17	46	40	504	0.0	-198977.0	-964.0	7539.0
29	17	46	40	504	1.0	-199628.0	-968.0	8051.0
29	17	46	40	505	2.0	-199449.0	-947.0	8377.0
29	17	46	40	505	3.0	-198251.0	-982.0	8876.0
29	17	46	40	506	4.0	-196491.0	-1049.0	8471.0
29	17	46	40	507	5.0	-194116.0	-1042.0	9016.0
29	17	46	40	507	6.0	-191202.0	-1056.0	9638.0
29	17	46	40	508	7.0	-188223.0	-1027.0	9062.0
29	17	46	40	508	8.0	-185039.0	-1043.0	8606.0
29	17	46	40	509	9.0	-182061.0	-1034.0	9324.0
29	17	46	40	509	10.0	-178866.0	-1025.0	9788.0
29	17	46	40	510	11.0	-175358.0	-1016.0	8600.0
29	17	46	40	511	12.0	-171580.0	-1027.0	7319.0
29	17	46	40	511	13.0	-167971.0	-1020.0	7277.0
29	17	46	40	512	14.0	-165044.0	-1022.0	7548.0
29	17	46	40	513	18.0	-158157.0	-1056.0	8674.0
29	17	46	40	513	19.0	-157787.0	-1071.0	8858.0
29	17	46	40	514	20.0	-158258.0	-1057.0	9072.0
29	17	46	40	514	21.0	-159212.0	-1056.0	8638.0
29	17	46	40	515	22.0	-160729.0	-1062.0	8959.0
29	17	46	40	515	23.0	-162385.0	-1052.0	8356.0
29	17	46	40	516	24.0	-164178.0	-1044.0	8155.0
29	17	46	40	517	25.0	-166772.0	-1012.0	8256.0
29	17	46	40	517	26.0	-169688.0	-978.0	7939.0
29	17	46	40	527	27.0	-172481.0	-994.0	7959.0
29	17	46	40	528	28.0	-174359.0	-965.0	8027.0
29	17	46	40	528	29.0	-175346.0	-939.0	8538.0
29	17	46	40	529	30.0	-175925.0	-928.0	8896.0
29	17	46	40	530	31.0	-176517.0	-911.0	8618.0
29	17	46	40	530	32.0	-176364.0	-899.0	8594.0
29	17	46	40	531	33.0	-173955.0	-897.0	8899.0
29	17	46	40	531	34.0	-169190.0	-873.0	8518.0
29	17	46	40	532	35.0	-163757.0	-830.0	8150.0
29	17	46	40	547	36.0	-160957.0	-799.0	8045.0
29	17	46	40	548	37.0	-161663.0	-791.0	8417.0
29	17	46	40	549	38.0	-165824.0	-787.0	7551.0
29	17	46	40	549	39.0	-172411.0	-788.0	7329.0
29	17	46	40	550	40.0	-180763.0	-793.0	7289.0
29	17	46	40	550	41.0	-191134.0	-789.0	7258.0
29	17	46	40	572	42.0	-202037.0	-799.0	7768.0
29	17	46	40	573	43.0	-213473.0	-793.0	7765.0
29	17	46	40	573	44.0	-224393.0	-781.0	7114.0
29	17	46	40	574	45.0	-234381.0	-795.0	7081.0
29	17	46	40	575	46.0	-242700.0	-788.0	8001.0
29	17	46	40	576	47.0	-248868.0	-797.0	8794.0
29	17	46	40	576	48.0	-252889.0	-802.0	8813.0
29	17	46	40	577	49.0	-254207.0	-820.0	9046.0
29	17	46	40	578	50.0	-253416.0	-816.0	9284.0
29	17	46	40	578	51.0	-250839.0	-834.0	9201.0
29	17	46	40	579	52.0	-247991.0	-831.0	9236.0
29	17	46	40	580	53.0	-243564.0	-845.0	8641.0
29	17	46	40	580	54.0	-238031.0	-832.0	7528.0
29	17	46	40	581	55.0	-230920.0	-824.0	7278.0
29	17	46	40	581	56.0	-223050.0	-832.0	7832.0
29	17	46	40	582	57.0	-214427.0	-829.0	8341.0
29	17	46	40	583	58.0	-205441.0	-815.0	7983.0
29	17	46	40	583	59.0	-196484.0	-812.0	7409.0
29	17	46	40	584	60.0	-188241.0	-802.0	8138.0
29	17	46	40	594	61.0	-181212.0	-806.0	9465.0
29	17	46	40	595	62.0	-175524.0	-810.0	9292.0
29	17	46	40	596	63.0	-171461.0	-816.0	9024.0
29	17	46	40	617	64.0	-169243.0	-834.0	9086.0
29	17	46	40	618	65.0	-168960.0	-829.0	9096.0
29	17	46	40	619	66.0	-170227.0	-837.0	8768.0
29	17	46	40	619	67.0	-172681.0	-840.0	8342.0
29	17	46	40	620	68.0	-176182.0	-847.0	8021.0
29	17	46	40	620	69.0	-179669.0	-856.0	8013.0
29	17	46	40	621	70.0	-182377.0	-861.0	8519.0
29	17	46	40	621	71.0	-183835.0	-853.0	8905.0
29	17	46	40	622	72.0	-184730.0	-863.0	7987.0
29	17	46	40	640	73.0	-185633.0	-882.0	7825.0
29	17	46	40	641	74.0	-186401.0	-880.0	8398.0
29	17	46	40	641	75.0	-187230.0	-916.0	8521.0
29	17	46	40	662	76.0	-188102.0	-959.0	8816.0
29	17	46	40	663	77.0	-189199.0	-989.0	8718.0
29	17	46	40	663	78.0	-189771.0	-1006.0	8406.0
29	17	46	40	664	79.0	-190433.0	-1024.0	8183.0
29	17	46	40	665	80.0	-190601.0	-1027.0	8107.0
29	17	46	40	665	81.0	-190647.0	-1045.0	8076.0
29	17	46	40	666	82.0	-190397.0	-1047.0	8242.0
29	17	46	40	666	83.0	-189974.0	-1037.0	7584.0
29	17	46	40	667	84.0	-189934.0	-1047.0	7248.0
29	17	46	40	668	85.0	-190419.0	-1059.0	7358.0
29	17	46	40	668	86.0	-191104.0	-1061.0	7458.0
29	17	46	40	669	87.0	-192664.0	-1051.0	7429.0
29	17	46	40	669	88.0	-195252.0	-1049.0	7288.0
29	17	46	40	670	89.0	-198545.0	-1046.0	7296.0
29	17	46	40	670	90.0	-201552.0	-1046.0	6567.0
29	17	46	40	671	91.0	-204865.0	-1018.0	5714.0
29	17	46	40	672	93.0	-209850.0	-1051.0	6691.0
29	17	46	40	672	94.0	-211171.0	-1053.0	7907.0
29	17	46	40	673	95.0	-212692.0	-1056.0	7704.0
29	17	46	40	673	96.0	-214144.0	-1038.0	6641.0
29	17	46	40	674	97.0	-215524.0	-1054.0	6445.0
29	17	46	40	674	98.0	-217028.0	-1060.0	6886.0
29	17	46	40	675	99.0	-218844.0	-1032.0	6772.0
29	17	46	40	676	100.0	-220091.0	-1038.0	6641.0
29	17	46	40	676	101.0	-220765.0	-1039.0	6079.0
29	17	46	40	677	102.0	-220941.0	-1049.0	6042.0
29	17	46	40	678	103.0	-220996.0	-1056.0	7563.0
29	17	46	40	679	104.0	-220344.0	-1047.0	8592.0
29	17	46	40	679	105.0	-218369.0	-1066.0	8247.0
29	17	46	40	680	106.0	-215087.0	-1084.0	8602.0
29	17	46	40	681	107.0	-211534.0	-1117.0	9158.0
29	17	46	40	681	108.0	-207778.0	-1133.0	9613.0
29	17	46	40	682	109.0	-204069.0	-1132.0	8502.0
29	17	46	40	692	110.0	-199719.0	-1134.0	7723.0
29	17	46	40	693	111.0	-195499.0	-1135.0	7821.0
29	17	46	40	694	112.0	-191426.0	-1117.0	8019.0
29	17	46	40	694	113.0	-187611.0	-1116.0	8521.0
29	17	46	40	695	114.0	-184461.0	-1116.0	8221.0
29	17	46	40	696	115.0	-182602.0	-1079.0	7424.0
29	17	46	40	712	116.0	-181877.0	-1089.0	7701.0
29	17	46	40	738	117.0	-181547.0	-1091.0	8488.0
29	17	46	40	738	118.0	-181104.0	-1089.0	8068.0
29	17	46	40	739	119.0	-179846.0	-1082.0	7623.0
29	17	46	40	740	120.0	-177697.0	-1084.0	8529.0
29	17	46	40	740	121.0	-174790.0	-1093.0	9449.0
29	17	46	40	741	122.0	-171872.0	-1097.0	9841.0
29	17	46	40	742	123.0	-169456.0	-1109.0	9333.0
29	17	46	40	742	124.0	-167676.0	-1107.0	8443.0
29	17	46	40	743	125.0	-166132.0	-1090.0	8558.0
29	17	46	40	744	126.0	-165041.0	-1081.0	8064.0
29	17	46	40	744	127.0	-164557.0	-1082.0	7283.0
29	17	46	40	745	128.0	-164862.0	-1094.0	8190.0
29	17	46	40	746	129.0	-165164.0	-1077.0	7757.0
29	17	46	40	746	130.0	-166179.0	-1076.0	6912.0
29	17	46	40	747	131.0	-167617.0	-1080.0	6936.0
29	17	46	40	748	138.0	-193654.0	-1129.0	4151.0
29	17	46	40	748	139.0	-197083.0	-1143.0	2368.0
29	17	46	40	749	140.0	-200706.0	-1117.0	1531.0
29	17	46	40	749	141.0	-204281.0	-1107.0	353.0
29	17	46	40	759	142.0	-207639.0	-1102.0	-681.0
29	17	46	40	760	143.0	-211523.0	-1086.0	-1204.0
29	17	46	40	761	144.0	-215867.0	-1070.0	-707.0
29	17	46	40	761	145.0	-221081.0	-1071.0	-2387.0
29	17	46	40	781	146.0	-227187.0	-1092.0	-5089.0
29	17	46	40	782	147.0	-233711.0	-1127.0	-6501.0
29	17	46	40	783	148.0	-240343.0	-1154.0	-5171.0
29	17	46	40	783	149.0	-246541.0	-1172.0	-4311.0
29	17	46	40	784	150.0	-251957.0	-1205.0	-2251.0
29	17	46	40	784	151.0	-255508.0	-1246.0	-2319.0
29	17	46	40	785	152.0	-257467.0	-1265.0	-4042.0
29	17	46	40	786	153.0	-258189.0	-1266.0	-1207.0
29	17	46	40	786	154.0	-257415.0	-1289.0	4474.0
29	17	46	40	787	155.0	-255619.0	-1281.0	9624.0
29	17	46	40	787	156.0	-252349.0	-1291.0	12720.0
29	17	46	40	788	157.0	-247711.0	-1302.0	15897.0
29	17	46	40	789	158.0	-241436.0	-1325.0	18671.0
29	17	46	40	789	159.0	-234531.0	-1323.0	21981.0
29	17	46	40	790	160.0	-227615.0	-1336.0	25798.0
29	17	46	40	790	161.0	-220947.0	-1362.0	27783.0
29	17	46	40	804	162.0	-214292.0	-1353.0	28361.0
29	17	46	40	828	163.0	-208247.0	-1342.0	28523.0
29	17	46	40	828	164.0	-202646.0	-1352.0	29321.0
29	17	46	40	829	165.0	-197129.0	-1396.0	28485.0
29	17	46	40	830	166.0	-192946.0	-1431.0	27822.0
29	17	46	40	830	167.0	-190387.0	-1443.0	29436.0
29	17	46	40	831	168.0	-189532.0	-1460.0	29951.0
29	17	46	40	832	169.0	-189667.0	-1458.0	30164.0
29	17	46	40	832	170.0	-191007.0	-1449.0	29576.0
29	17	46	40	833	171.0	-193201.0	-1472.0	26389.0
29	17	46	40	834	172.0	-192489.0	-1491.0	22733.0
29	17	46	40	834	173.0	-185218.0	-1507.0	19037.0
29	17	46	40	835	174.0	-171097.0	-1502.0	15488.0
29	17	46	40	836	175.0	-151049.0	-1502.0	12461.0
29	17	46	40	836	176.0	-128644.0	-1502.0	11569.0
29	17	46	40	837	177.0	-109323.0	-1508.0	11088.0
29	17	46	40	837	178.0	-95098.0	-1507.0	11324.0
29	17	46	40	838	179.0	-87284.0	-1517.0	11146.0
29	17	46	40	839	180.0	-88550.0	-1508.0	9239.0
29	17	46	40	839	181.0	-101941.0	-1522.0	8487.0
29	17	46	40	840	182.0	-127967.0	-1521.0	9108.0
29	17	46	40	840	183.0	-160761.0	-1528.0	9051.0
29	17	46	40	841	184.0	-194599.0	-1522.0	7775.0
29	17	46	40	842	185.0	-227162.0	-1500.0	7298.0
29	17	46	40	842	186.0	-258808.0	-1488.0	8040.0
29	17	46	40	843	187.0	-289141.0	-1503.0	7464.0
29	17	46	40	857	188.0	-301115.0	-1495.0	6613.0
29	17	46	40	858	189.0	-278879.0	-1473.0	6681.0
29	17	46	40	874	190.0	-242937.0	-1462.0	6710.0
29	17	46	40	875	191.0	-214179.0	-1479.0	6880.0
29	17	46	40	876	192.0	-196043.0	-1489.0	7582.0
29	17	46	40	876	193.0	-185231.0	-1464.0	7950.0
29	17	46	40	877	194.0	-186102.0	-1471.0	7473.0
29	17	46	40	897	195.0	-201906.0	-1464.0	7334.0
29	17	46	40	897	196.0	-228323.0	-1445.0	7416.0
29	17	46	40	898	197.0	-256146.0	-1451.0	6698.0
29	17	46	40	899	198.0	-274644.0	-1444.0	5465.0
29	17	46	40	899	199.0	-279942.0	-1429.0	5445.0
29	17	46	40	900	200.0	-273482.0	-1399.0	5243.0
29	17	46	40	901	201.0	-259131.0	-1402.0	5629.0
29	17	46	40	901	202.0	-242631.0	-1396.0	5736.0
29	17	46	40	902	203.0	-229556.0	-1399.0	4525.0
29	17	46	40	902	204.0	-221026.0	-1403.0	4289.0
29	17	46	40	903	205.0	-212747.0	-1411.0	4603.0
29	17	46	40	904	206.0	-201214.0	-1400.0	4536.0
29	17	46	40	904	207.0	-186694.0	-1392.0	4649.0
29	17	46	40	905	208.0	-170267.0	-1366.0	4588.0
29	17	46	40	906	209.0	-152379.0	-1373.0	4781.0
29	17	46	40	906	210.0	-135281.0	-1382.0	4740.0
29	17	46	40	907	213.0	-111282.0	-1349.0	3577.0
29	17	46	40	908	214.0	-111779.0	-1341.0	2936.0
29	17	46	40	908	215.0	-114620.0	-1349.0	2806.0
29	17	46	40	909	216.0	-118449.0	-1357.0	2264.0
29	17	46	40	909	217.0	-122674.0	-1354.0	2560.0
29	17	46	40	910	218.0	-128133.0	-1339.0	2953.0
29	17	46	40	911	219.0	-134839.0	-1357.0	2764.0
29	17	46	40	911	220.0	-141394.0	-1352.0	2783.0
29	17	46	40	912	221.0	-146770.0	-1361.0	2287.0
29	17	46	40	913	222.0	-151615.0	-1381.0	2061.0
29	17	46	40	914	223.0	-155901.0	-1361.0	1896.0
29	17	46	40	914	224.0	-158591.0	-1362.0	1712.0
29	17	46	40	922	225.0	-159777.0	-1372.0	1378.0
29	17	46	40	923	226.0	-159805.0	-1381.0	812.0
29	17	46	40	924	227.0	-159878.0	-1379.0	325.0
29	17	46	40	945	228.0	-160388.0	-1397.0	136.0
29	17	46	40	946	229.0	-161737.0	-1415.0	360.0
29	17	46	40	947	230.0	-164117.0	-1440.0	281.0
29	17	46	40	947	231.0	-167204.0	-1471.0	-46.0
29	17	46	40	948	232.0	-171104.0	-1472.0	-384.0
29	17	46	40	948	233.0	-175232.0	-1484.0	331.0
29	17	46	40	949	234.0	-179580.0	-1491.0	1340.0
29	17	46	40	950	235.0	-183506.0	-1499.0	1083.0
29	17	46	40	950	236.0	-187390.0	-1492.0	576.0
29	17	46	40	951	237.0	-191469.0	-1477.0	83.0
29	17	46	40	970	238.0	-195909.0	-1471.0	82.0
29	17	46	40	971	239.0	-200099.0	-1477.0	9.0
29	17	46	40	972	240.0	-204485.0	-1484.0	159.0
29	17	46	40	972	241.0	-208999.0	-1499.0	80.0
29	17	46	40	973	242.0	-213712.0	-1504.0	-269.0
29	17	46	40	974	243.0	-218252.0	-1516.0	-396.0
29	17	46	40	974	244.0	-223236.0	-1510.0	-163.0
29	17	46	40	975	245.0	-228720.0	-1527.0	-1519.0
29	17	46	40	975	246.0	-233609.0	-1549.0	-1976.0
29	17	46	40	976	247.0	-237502.0	-1564.0	-437.0
29	17	46	40	977	248.0	-239797.0	-1576.0	-165.0
29	17	46	40	977	249.0	-240276.0	-1594.0	-1125.0
29	17	46	40	978	250.0	-238417.0	-1588.0	-592.0
29	17	46	40	979	251.0	-234558.0	-1600.0	118.0
29	17	46	40	979	252.0	-229513.0	-1582.0	-381.0
29	17	46	40	980	253.0	-223439.0	-1552.0	-1129.0
29	17	46	40	981	254.0	-216357.0	-1554.0	-1761.0
29	17	46	40	981	255.0	-208847.0	-1544.0	-2502.0
29	17	46	40	982	0.0	-201057.0	-1554.0	-3208.0
29	17	46	40	982	1.0	-193241.0	-1554.0	-2867.0
29	17	46	40	997	2.0	-185828.0	-1575.0	-2571.0
29	17	46	40	997	3.0	-179245.0	-1590.0	-3425.0
29	17	46	40	998	4.0	-173650.0	-1599.0	-3589.0
29	17	46	40	998	5.0	-168509.0	-1607.0	-3501.0
29	17	46	40	999	6.0	-163352.0	-1604.0	-3501.0
29	17	46	41	0	7.0	-158717.0	-1614.0	-3711.0
29	17	46	41	0	8.0	-154377.0	-1627.0	-3726.0
29	17	46	41	1	9.0	-150806.0	-1650.0	-3286.0
29	17	46	41	1	10.0	-148229.0	-1641.0	-2970.0
29	17	46	41	2	11.0	-147490.0	-1624.0	-3367.0
29	17	46	41	20	12.0	-147826.0	-1621.0	-3687.0
29	17	46	41	20	13.0	-148612.0	-1603.0	-4391.0
29	17	46	41	21	14.0	-149602.0	-1590.0	-4696.0
29	17	46	41	22	15.0	-151055.0	-1592.0	-4516.0
29	17	46	41	22	16.0	-152436.0	-1590.0	-4080.0
29	17	46	41	23	17.0	-154004.0	-1592.0	-4032.0
29	17	46	41	24	18.0	-156806.0	-1584.0	-3084.0
29	17	46	41	24	19.0	-159971.0	-1564.0	-2782.0
29	17	46	41	25	20.0	-163071.0	-1561.0	-2937.0
29	17	46	41	25	21.0	-166181.0	-1582.0	-3069.0
29	17	46	41	26	22.0	-169828.0	-1601.0	-3204.0
29	17	46	41	26	23.0	-173456.0	-1627.0	-2778.0
29	17	46	41	27	24.0	-176909.0	-1605.0	-1022.0
29	17	46	41	28	25.0	-180589.0	-1612.0	-716.0
29	17	46	41	53	26.0	-184389.0	-1623.0	-1909.0
29	17	46	41	54	27.0	-188315.0	-1639.0	-2522.0
29	17	46	41	54	28.0	-191920.0	-1627.0	-1999.0
29	17	46	41	55	29.0	-196272.0	-1641.0	-1466.0
29	17	46	41	56	30.0	-201117.0	-1653.0	-1911.0
29	17	46	41	56	31.0	-205674.0	-1644.0	-1644.0
29	17	46	41	57	32.0	-210247.0	-1669.0	-957.0
29	17	46	41	58	33.0	-215358.0	-1687.0	-298.0
29	17	46	41	58	34.0	-220475.0	-1694.0	588.0
29	17	46	41	59	35.0	-225481.0	-1692.0	1474.0
29	17	46	41	60	36.0	-230393.0	-1716.0	1034.0
29	17	46	41	60	37.0	-234792.0	-1748.0	864.0
29	17	46	41	61	38.0	-237956.0	-1772.0	1344.0
29	17	46	41	61	39.0	-239816.0	-1778.0	1406.0
29	17	46	41	62	40.0	-241070.0	-1791.0	583.0
29	17	46	41	63	41.0	-241724.0	-1797.0	502.0
29	17	46	41	63	42.0	-242346.0	-1797.0	784.0
29	17	46	41	64	43.0	-243197.0	-1801.0	414.0
29	17	46	41	72	44.0	-244734.0	-1825.0	901.0
29	17	46	41	73	45.0	-245877.0	-1834.0	1843.0
29	17	46	41	73	46.0	-246346.0	-1841.0	1221.0
29	17	46	41	95	47.0	-246171.0	-1873.0	1469.0
29	17	46	41	95	48.0	-244957.0	-1887.0	1499.0
29	17	46	41	96	49.0	-242020.0	-1897.0	1661.0
29	17	46	41	97	50.0	-238663.0	-1943.0	1258.0
29	17	46	41	98	51.0	-235452.0	-1951.0	991.0
29	17	46	41	98	52.0	-230904.0	-1974.0	1174.0
29	17	46	41	99	53.0	-225112.0	-1958.0	1086.0
29	17	46	41	99	54.0	-218940.0	-1969.0	1048.0
29	17	46	41	100	55.0	-212301.0	-1974.0	1008.0
29	17	46	41	100	56.0	-204867.0	-1964.0	686.0
29	17	46	41	129	57.0	-197524.0	-1961.0	-64.0
29	17	46	41	129	58.0	-191359.0	-1949.0	560.0
29	17	46	41	130	59.0	-185247.0	-1958.0	468.0
29	17	46	41	130	60.0	-179371.0	-1967.0	-304.0
29	17	46	41	131	61.0	-174074.0	-1986.0	-827.0
29	17	46	41	132	62.0	-168354.0	-2009.0	-912.0
29	17	46	41	142	63.0	-161589.0	-1991.0	159.0
29	17	46	41	143	64.0	-153409.0	-1993.0	624.0
29	17	46	41	144	65.0	-144109.0	-2000.0	1010.0
29	17	46	41	144	66.0	-134496.0	-2001.0	1587.0
29	17	46	41	145	67.0	-117582.0	-2021.0	1313.0
29	17	46	41	146	68.0	-86973.0	-2015.0	675.0
29	17	46	41	147	69.0	-66041.0	-2006.0	1042.0
29	17	46	41	148	70.0	-66217.0	-1996.0	533.0
29	17	46	41	148	71.0	-87318.0	-1989.0	350.0
29	17	46	41	149	76.0	-269814.0	-1997.0	398.0
29	17	46	41	149	77.0	-291192.0	-2001.0	1139.0
29	17	46	41	150	78.0	-301011.0	-2014.0	676.0
29	17	46	41	151	79.0	-298921.0	-2004.0	353.0
29	17	46	41	151	80.0	-288151.0	-2004.0	1546.0
29	17	46	41	152	81.0	-271463.0	-2008.0	2006.0
29	17	46	41	152	84.0	-219444.0	-2066.0	83.0
29	17	46	41	153	85.0	-205781.0	-2072.0	-219.0
29	17	46	41	154	86.0	-195214.0	-2050.0	-27.0
29	17	46	41	154	87.0	-186993.0	-2059.0	-724.0
29	17	46	41	164	88.0	-181147.0	-2048.0	-1434.0
29	17	46	41	165	89.0	-177316.0	-2031.0	-1264.0
29	17	46	41	166	90.0	-175264.0	-2017.0	31.0
29	17	46	41	166	91.0	-174667.0	-1991.0	44.0
29	17	46	41	167	92.0	-175267.0	-2007.0	-321.0
29	17	46	41	188	93.0	-177044.0	-1996.0	-40.0
29	17	46	41	189	94.0	-178689.0	-1994.0	282.0
29	17	46	41	190	95.0	-179589.0	-1979.0	111.0
29	17	46	41	190	96.0	-178010.0	-1954.0	308.0
29	17	46	41	191	97.0	-172899.0	-1957.0	219.0
29	17	46	41	191	98.0	-165973.0	-1964.0	246.0
29	17	46	41	192	99.0	-159376.0	-1954.0	683.0
29	17	46	41	193	100.0	-158417.0	-1936.0	597.0
29	17	46	41	232	101.0	-164862.0	-1902.0	-65.0
29	17	46	41	233	102.0	-178987.0	-1874.0	-845.0
29	17	46	41	233	103.0	-197667.0	-1847.0	386.0
29	17	46	41	234	104.0	-214941.0	-1814.0	879.0
29	17	46	41	235	105.0	-226914.0	-1824.0	863.0
29	17	46	41	235	106.0	-234161.0	-1833.0	1041.0
29	17	46	41	236	107.0	-237247.0	-1822.0	699.0
29	17	46	41	237	108.0	-237229.0	-1834.0	565.0
29	17	46	41	237	109.0	-234921.0	-1849.0	1076.0
29	17	46	41	238	110.0	-231189.0	-1857.0	1121.0
29	17	46	41	239	111.0	-227119.0	-1848.0	1127.0
29	17	46	41	240	112.0	-222721.0	-1873.0	506.0
29	17	46	41	240	113.0	-219713.0	-1889.0	-202.0
29	17	46	41	241	114.0	-218326.0	-1877.0	-215.0
29	17	46	41	242	115.0	-218139.0	-1887.0	-654.0
29	17	46	41	242	129.0	-192212.0	-1891.0	-1032.0
29	17	46	41	243	130.0	-191561.0	-1884.0	-667.0
29	17	46	41	243	131.0	-191458.0	-1870.0	461.0
29	17	46	41	244	132.0	-192158.0	-1878.0	109.0
29	17	46	41	252	133.0	-192373.0	-1847.0	543.0
29	17	46	41	253	134.0	-192327.0	-1829.0	453.0
29	17	46	41	276	135.0	-193002.0	-1811.0	18.0
29	17	46	41	298	136.0	-193864.0	-1800.0	26.0
29	17	46	41	299	137.0	-195557.0	-1777.0	541.0
29	17	46	41	300	138.0	-197853.0	-1756.0	440.0
29	17	46	41	300	139.0	-200989.0	-1736.0	126.0
29	17	46	41	301	140.0	-203674.0	-1717.0	-186.0
29	17	46	41	301	141.0	-205317.0	-1712.0	414.0
29	17	46	41	302	142.0	-206948.0	-1682.0	329.0
29	17	46	41	302	143.0	-207377.0	-1665.0	417.0
29	17	46	41	303	144.0	-206821.0	-1665.0	966.0
29	17	46	41	304	145.0	-206514.0	-1649.0	1505.0
29	17	46	41	304	146.0	-205865.0	-1646.0	1215.0
29	17	46	41	305	147.0	-205588.0	-1642.0	1117.0
29	17	46	41	305	148.0	-205738.0	-1616.0	1248.0
29	17	46	41	306	149.0	-207838.0	-1612.0	749.0
29	17	46	41	307	150.0	-212055.0	-1599.0	1253.0
29	17	46	41	307	151.0	-217665.0	-1607.0	628.0
29	17	46	41	308	159.0	-252057.0	-1604.0	-1107.0
29	17	46	41	309	160.0	-246501.0	-1604.0	-1309.0
29	17	46	41	309	161.0	-238251.0	-1599.0	-1809.0
29	17	46	41	310	162.0	-228666.0	-1589.0	-1809.0
29	17	46	41	310	163.0	-219191.0	-1565.0	-1109.0
29	17	46	41	311	164.0	-208541.0	-1553.0	-344.0
29	17	46	41	311	165.0	-198321.0	-1537.0	-88.0
29	17	46	41	312	166.0	-188974.0	-1512.0	-674.0
29	17	46	41	313	167.0	-180302.0	-1477.0	-1524.0
29	17	46	41	321	168.0	-172546.0	-1439.0	-1371.0
29	17	46	41	321	169.0	-165997.0	-1424.0	-1406.0
29	17	46	41	322	170.0	-161716.0	-1399.0	-2192.0
29	17	46	41	323	171.0	-158584.0	-1406.0	-3127.0
29	17	46	41	323	172.0	-156110.0	-1380.0	-3720.0
29	17	46	41	324	173.0	-155265.0	-1379.0	-2859.0
29	17	46	41	325	174.0	-155596.0	-1370.0	-2445.0
29	17	46	41	325	175.0	-156267.0	-1348.0	-1731.0
29	17	46	41	343	176.0	-157291.0	-1327.0	-1411.0
29	17	46	41	344	177.0	-158553.0	-1314.0	-1305.0
29	17	46	41	344	178.0	-159734.0	-1324.0	-1301.0
29	17	46	41	345	179.0	-159837.0	-1302.0	-1677.0
29	17	46	41	345	180.0	-159468.0	-1260.0	-2404.0
29	17	46	41	346	181.0	-159689.0	-1234.0	-2296.0
29	17	46	41	346	182.0	-159233.0	-1230.0	-1076.0
29	17	46	41	367	183.0	-158965.0	-1204.0	-1580.0
29	17	46	41	368	184.0	-159652.0	-1179.0	-2075.0
29	17	46	41	368	185.0	-160237.0	-1170.0	-1777.0
29	17	46	41	369	186.0	-161147.0	-1176.0	-2569.0
29	17	46	41	370	187.0	-161997.0	-1194.0	-2599.0
29	17	46	41	370	188.0	-163524.0	-1182.0	-2546.0
29	17	46	41	371	189.0	-164254.0	-1199.0	-2927.0
29	17	46	41	371	190.0	-164757.0	-1169.0	-3192.0
29	17	46	41	372	191.0	-166240.0	-1152.0	-2732.0
29	17	46	41	373	192.0	-168004.0	-1144.0	-2301.0
29	17	46	41	373	193.0	-170089.0	-1145.0	-2262.0
29	17	46	41	374	194.0	-172457.0	-1138.0	-2528.0
29	17	46	41	374	195.0	-175754.0	-1139.0	-3340.0
29	17	46	41	388	196.0	-178979.0	-1139.0	-4336.0
29	17	46	41	388	197.0	-182168.0	-1113.0	-4477.0
29	17	46	41	389	198.0	-186079.0	-1120.0	-4350.0
29	17	46	41	389	199.0	-190507.0	-1129.0	-4172.0
29	17	46	41	390	200.0	-194421.0	-1125.0	-4443.0
29	17	46	41	391	201.0	-198517.0	-1123.0	-5361.0
29	17	46	41	391	202.0	-202586.0	-1139.0	-5887.0
29	17	46	41	392	203.0	-205298.0	-1151.0	-5894.0
29	17	46	41	392	204.0	-207789.0	-1152.0	-5594.0
29	17	46	41	393	205.0	-210130.0	-1159.0	-5683.0
29	17	46	41	410	206.0	-211661.0	-1154.0	-4339.0
29	17	46	41	411	207.0	-212394.0	-1161.0	-3987.0
29	17	46	41	411	208.0	-213456.0	-1159.0	-4742.0
29	17	46	41	412	209.0	-215569.0	-1167.0	-4850.0
29	17	46	41	413	210.0	-217380.0	-1157.0	-4512.0
29	17	46	41	413	211.0	-218960.0	-1143.0	-4537.0
29	17	46	41	414	212.0	-220413.0	-1159.0	-4257.0
29	17	46	41	414	213.0	-221743.0	-1159.0	-4532.0
29	17	46	41	415	214.0	-222215.0	-1164.0	-5974.0
29	17	46	41	416	215.0	-222276.0	-1164.0	-6283.0
29	17	46	41	416	216.0	-221999.0	-1152.0	-6682.0
29	17	46	41	417	217.0	-220131.0	-1125.0	-7531.0
29	17	46	41	417	218.0	-216618.0	-1133.0	-7715.0
29	17	46	41	418	219.0	-212214.0	-1143.0	-6727.0
29	17	46	41	442	220.0	-207387.0	-1130.0	-5667.0
29	17	46	41	443	221.0	-201359.0	-1136.0	-5603.0
29	17	46	41	443	222.0	-194401.0	-1132.0	-5807.0
29	17	46	41	444	223.0	-186861.0	-1141.0	-5119.0
29	17	46	41	445	224.0	-178767.0	-1140.0	-5200.0
29	17	46	41	446	225.0	-171021.0	-1133.0	-4929.0
29	17	46	41	447	226.0	-164225.0	-1147.0	-5411.0
29	17	46	41	447	227.0	-158714.0	-1159.0	-6615.0
29	17	46	41	448	228.0	-154064.0	-1162.0	-6614.0
29	17	46	41	449	229.0	-150721.0	-1187.0	-6527.0
29	17	46	41	449	230.0	-149088.0	-1194.0	-6081.0
29	17	46	41	450	231.0	-148639.0	-1201.0	-5321.0
29	17	46	41	451	232.0	-149492.0	-1194.0	-4682.0
29	17	46	41	452	233.0	-151774.0	-1199.0	-4233.0
29	17	46	41	452	234.0	-155466.0	-1209.0	-3917.0
29	17	46	41	453	235.0	-159241.0	-1190.0	-3945.0
29	17	46	41	453	236.0	-163299.0	-1187.0	-4917.0
29	17	46	41	454	237.0	-167666.0	-1197.0	-5690.0
29	17	46	41	455	238.0	-172324.0	-1219.0	-5267.0
29	17	46	41	455	239.0	-176933.0	-1226.0	-4987.0
29	17	46	41	456	240.0	-181155.0	-1231.0	-5144.0
29	17	46	41	473	241.0	-185841.0	-1236.0	-5132.0
29	17	46	41	473	242.0	-189642.0	-1264.0	-5572.0
29	17	46	41	474	243.0	-193582.0	-1250.0	-5881.0
29	17	46	41	475	244.0	-197806.0	-1277.0	-5320.0
29	17	46	41	475	245.0	-201564.0	-1296.0	-5229.0
29	17	46	41	476	246.0	-205409.0	-1301.0	-6012.0
29	17	46	41	477	247.0	-209451.0	-1319.0	-5591.0
29	17	46	41	477	248.0	-214035.0	-1337.0	-5500.0
29	17	46	41	478	249.0	-218174.0	-1354.0	-5716.0
29	17	46	41	479	250.0	-222047.0	-1335.0	-5532.0
29	17	46	41	489	251.0	-225741.0	-1324.0	-5896.0
29	17	46	41	490	252.0	-228133.0	-1320.0	-4392.0
29	17	46	41	491	253.0	-229269.0	-1328.0	-4499.0
29	17	46	41	491	254.0	-229924.0	-1345.0	-5967.0
29	17	46	41	492	255.0	-230199.0	-1351.0	-7296.0
