28	17	38	19	534	185.0	-165425.0	-930.0	308002.0
28	17	38	19	558	186.0	-141477.0	-894.0	308991.0
28	17	38	19	560	187.0	-156211.0	-861.0	308474.0
28	17	38	19	561	188.0	-175367.0	-825.0	309375.0
28	17	38	19	563	189.0	-175009.0	-782.0	311168.0
28	17	38	19	565	190.0	-176122.0	-734.0	311019.0
28	17	38	19	567	191.0	-230602.0	-676.0	310663.0
28	17	38	19	567	192.0	-261289.0	-635.0	310948.0
28	17	38	19	568	193.0	-267904.0	-606.0	310454.0
28	17	38	19	568	194.0	-226742.0	-556.0	310281.0
28	17	38	19	569	195.0	-231978.0	-536.0	310104.0
28	17	38	19	569	196.0	-229702.0	-499.0	310609.0
28	17	38	19	570	197.0	-219654.0	-484.0	310620.0
28	17	38	19	571	198.0	-171377.0	-476.0	311560.0
28	17	38	19	571	199.0	-161056.0	-421.0	312048.0
28	17	38	19	572	200.0	-179032.0	-383.0	312233.0
28	17	38	19	573	201.0	-185580.0	-343.0	312102.0
28	17	38	19	573	202.0	-161149.0	-331.0	312858.0
28	17	38	19	574	203.0	-135769.0	-304.0	312750.0
28	17	38	19	574	204.0	-161309.0	-301.0	312257.0
28	17	38	19	621	205.0	-172623.0	-297.0	312341.0
28	17	38	19	666	206.0	-169830.0	-297.0	312132.0
28	17	38	19	667	207.0	-138641.0	-306.0	311997.0
28	17	38	19	668	208.0	-164493.0	-304.0	313104.0
28	17	38	19	669	209.0	-183744.0	-286.0	313374.0
28	17	38	19	669	210.0	-190790.0	-272.0	314160.0
28	17	38	19	670	211.0	-155856.0	-246.0	314574.0
28	17	38	19	671	212.0	-160452.0	-236.0	314128.0
28	17	38	19	671	213.0	-183035.0	-239.0	313988.0
28	17	38	19	672	214.0	-189682.0	-242.0	313825.0
28	17	38	19	672	215.0	-162653.0	-257.0	312993.0
28	17	38	19	673	216.0	-147588.0	-276.0	312614.0
28	17	38	19	674	217.0	-178752.0	-309.0	312781.0
28	17	38	19	674	218.0	-192736.0	-312.0	313709.0
28	17	38	19	675	219.0	-183225.0	-331.0	314656.0
28	17	38	19	675	234.0	-223247.0	-516.0	315441.0
28	17	38	19	676	0.0	-197255.0	-994.0	311822.0
28	17	38	19	677	1.0	-196054.0	-1011.0	311494.0
28	17	38	19	677	2.0	-194384.0	-1039.0	310364.0
28	17	38	19	678	3.0	-194169.0	-1033.0	311388.0
28	17	38	19	678	4.0	-193992.0	-1032.0	310950.0
28	17	38	19	679	5.0	-194276.0	-1042.0	310343.0
28	17	38	19	679	6.0	-195440.0	-1050.0	310374.0
28	17	38	19	758	7.0	-196217.0	-1055.0	309956.0
28	17	38	19	758	8.0	-196974.0	-1067.0	308858.0
28	17	38	19	759	9.0	-198360.0	-1076.0	307736.0
28	17	38	19	760	10.0	-199344.0	-1116.0	307331.0
28	17	38	19	760	11.0	-199839.0	-1126.0	306913.0
28	17	38	19	761	12.0	-200773.0	-1126.0	307234.0
28	17	38	19	761	13.0	-202226.0	-1158.0	307726.0
28	17	38	19	803	14.0	-203006.0	-1145.0	307525.0
28	17	38	19	803	15.0	-203169.0	-1145.0	306373.0
28	17	38	19	804	16.0	-202781.0	-1151.0	306114.0
28	17	38	19	805	17.0	-203357.0	-1149.0	305398.0
28	17	38	19	805	18.0	-204614.0	-1132.0	304399.0
28	17	38	19	806	19.0	-205518.0	-1130.0	304156.0
28	17	38	19	806	20.0	-206397.0	-1132.0	304003.0
28	17	38	19	847	21.0	-207519.0	-1126.0	303378.0
28	17	38	19	847	45.0	-204566.0	-1020.0	302529.0
28	17	38	19	848	46.0	-204852.0	-1014.0	302133.0
28	17	38	19	849	47.0	-205472.0	-990.0	301198.0
28	17	38	19	849	48.0	-205596.0	-966.0	301706.0
28	17	38	19	850	49.0	-205073.0	-957.0	300422.0
28	17	38	19	850	50.0	-203986.0	-952.0	299479.0
28	17	38	19	851	51.0	-202266.0	-975.0	300732.0
28	17	38	19	892	52.0	-200854.0	-969.0	300528.0
28	17	38	19	893	68.0	-210162.0	-1014.0	298514.0
28	17	38	19	893	69.0	-209927.0	-1044.0	296978.0
28	17	38	19	894	70.0	-209569.0	-1092.0	296156.0
28	17	38	19	895	71.0	-209355.0	-1110.0	294914.0
28	17	38	19	895	72.0	-209351.0	-1142.0	293669.0
28	17	38	19	896	73.0	-209504.0	-1169.0	291659.0
28	17	38	19	897	74.0	-209962.0	-1189.0	289037.0
28	17	38	19	897	90.0	-205566.0	-1632.0	314107.0
28	17	38	19	898	91.0	-207710.0	-1686.0	311929.0
28	17	38	19	899	92.0	-209130.0	-1707.0	310233.0
28	17	38	19	900	93.0	-211591.0	-1721.0	308378.0
28	17	38	19	901	94.0	-216284.0	-1761.0	306826.0
28	17	38	19	902	95.0	-222556.0	-1786.0	304536.0
28	17	38	19	903	96.0	-228641.0	-1815.0	302284.0
28	17	38	19	903	113.0	-314593.0	-2757.0	296630.0
28	17	38	19	904	114.0	-315284.0	-2802.0	297229.0
28	17	38	19	905	115.0	-295839.0	-2855.0	296765.0
28	17	38	19	905	116.0	-261082.0	-2909.0	296759.0
28	17	38	19	906	117.0	-217661.0	-2959.0	296474.0
28	17	38	19	906	118.0	-174285.0	-2986.0	295941.0
28	17	38	19	937	119.0	-137659.0	-3032.0	295373.0
28	17	38	19	938	120.0	-115308.0	-3111.0	294863.0
28	17	38	19	939	121.0	-110439.0	-3176.0	294986.0
28	17	38	19	939	122.0	-117696.0	-3227.0	295916.0
28	17	38	19	940	123.0	-131564.0	-3276.0	295819.0
28	17	38	19	941	124.0	-145088.0	-3331.0	296623.0
28	17	38	19	941	125.0	-152169.0	-3382.0	296655.0
28	17	38	19	982	126.0	-151583.0	-3427.0	296750.0
28	17	38	19	983	127.0	-145339.0	-3482.0	296460.0
28	17	38	19	983	128.0	-137597.0	-3526.0	296484.0
28	17	38	19	984	129.0	-130999.0	-3591.0	296092.0
28	17	38	19	985	130.0	-125657.0	-3649.0	295584.0
28	17	38	19	985	131.0	-121690.0	-3706.0	295468.0
28	17	38	19	986	132.0	-121882.0	-3769.0	296622.0
28	17	38	20	28	133.0	-128104.0	-3789.0	296044.0
28	17	38	20	28	135.0	-152471.0	-3825.0	297087.0
28	17	38	20	29	136.0	-166362.0	-3861.0	296453.0
28	17	38	20	30	137.0	-178111.0	-3900.0	295811.0
28	17	38	20	30	138.0	-186718.0	-3918.0	296236.0
28	17	38	20	31	139.0	-193358.0	-3968.0	294892.0
28	17	38	20	31	140.0	-198413.0	-3998.0	294432.0
28	17	38	20	32	141.0	-202939.0	-4047.0	295295.0
28	17	38	20	71	142.0	-208255.0	-4096.0	296094.0
28	17	38	20	72	158.0	-184307.0	-4796.0	294511.0
28	17	38	20	73	159.0	-182350.0	-4859.0	293657.0
28	17	38	20	73	160.0	-182517.0	-4916.0	293046.0
28	17	38	20	74	161.0	-184341.0	-4981.0	294026.0
28	17	38	20	75	162.0	-186937.0	-5039.0	293985.0
28	17	38	20	75	163.0	-190216.0	-5084.0	294143.0
28	17	38	20	76	164.0	-194271.0	-5104.0	295121.0
28	17	38	20	117	180.0	-196227.0	-5919.0	293806.0
28	17	38	20	118	181.0	-194467.0	-5973.0	294833.0
28	17	38	20	119	182.0	-192757.0	-6024.0	294436.0
28	17	38	20	120	183.0	-191571.0	-6044.0	294767.0
28	17	38	20	120	184.0	-190739.0	-6043.0	295995.0
28	17	38	20	121	185.0	-189957.0	-6069.0	295663.0
28	17	38	20	122	186.0	-189522.0	-6069.0	295969.0
28	17	38	20	122	202.0	-192306.0	-5912.0	294089.0
28	17	38	20	123	203.0	-192546.0	-5887.0	295365.0
28	17	38	20	123	204.0	-193251.0	-5824.0	295147.0
28	17	38	20	124	205.0	-194459.0	-5736.0	295176.0
28	17	38	20	125	206.0	-195504.0	-5659.0	295811.0
28	17	38	20	125	207.0	-196772.0	-5584.0	295822.0
28	17	38	20	126	208.0	-198329.0	-5504.0	295414.0
28	17	38	20	127	209.0	-199819.0	-5472.0	294359.0
28	17	38	20	127	225.0	-209601.0	-4382.0	295184.0
28	17	38	20	128	226.0	-204444.0	-4308.0	295288.0
28	17	38	20	128	227.0	-197272.0	-4226.0	294648.0
28	17	38	20	129	228.0	-186660.0	-4150.0	294118.0
28	17	38	20	129	229.0	-169474.0	-4083.0	294191.0
28	17	38	20	130	230.0	-144657.0	-4039.0	293614.0
28	17	38	20	161	231.0	-116587.0	-3975.0	293764.0
28	17	38	20	206	232.0	-102615.0	-3920.0	294309.0
28	17	38	20	207	233.0	-109499.0	-3851.0	294021.0
28	17	38	20	208	234.0	-132109.0	-3808.0	294602.0
28	17	38	20	208	235.0	-170547.0	-3751.0	293853.0
28	17	38	20	209	236.0	-209612.0	-3687.0	293451.0
28	17	38	20	210	237.0	-241834.0	-3622.0	293596.0
28	17	38	20	210	238.0	-261547.0	-3576.0	292972.0
28	17	38	20	211	239.0	-265366.0	-3546.0	292024.0
28	17	38	20	212	240.0	-253988.0	-3526.0	291918.0
28	17	38	20	212	241.0	-233869.0	-3484.0	291690.0
28	17	38	20	213	242.0	-213664.0	-3441.0	292134.0
28	17	38	20	213	243.0	-199021.0	-3400.0	292523.0
28	17	38	20	214	244.0	-192226.0	-3356.0	292209.0
28	17	38	20	215	245.0	-192284.0	-3318.0	292041.0
28	17	38	20	215	247.0	-199611.0	-3247.0	290828.0
28	17	38	20	216	248.0	-200934.0	-3210.0	290748.0
28	17	38	20	217	14.0	-193213.0	-3264.0	286556.0
28	17	38	20	218	15.0	-199801.0	-3297.0	287396.0
28	17	38	20	219	16.0	-205874.0	-3337.0	287199.0
28	17	38	20	219	17.0	-210814.0	-3347.0	287974.0
28	17	38	20	220	18.0	-213633.0	-3343.0	288236.0
28	17	38	20	220	19.0	-215272.0	-3354.0	287659.0
28	17	38	20	221	20.0	-215867.0	-3377.0	287611.0
28	17	38	20	252	21.0	-215631.0	-3396.0	287488.0
28	17	38	20	252	22.0	-214964.0	-3399.0	286524.0
28	17	38	20	253	23.0	-214047.0	-3438.0	286050.0
28	17	38	20	254	24.0	-213047.0	-3476.0	286363.0
28	17	38	20	254	25.0	-211444.0	-3506.0	286159.0
28	17	38	20	255	26.0	-210304.0	-3573.0	286753.0
28	17	38	20	255	27.0	-209209.0	-3605.0	286438.0
28	17	38	20	298	28.0	-208591.0	-3608.0	286493.0
28	17	38	20	299	29.0	-208017.0	-3641.0	286339.0
28	17	38	20	300	30.0	-207418.0	-3676.0	286133.0
28	17	38	20	300	31.0	-206666.0	-3693.0	285983.0
28	17	38	20	301	32.0	-204891.0	-3724.0	285464.0
28	17	38	20	301	33.0	-205603.0	-3786.0	284421.0
28	17	38	20	302	34.0	-208804.0	-3841.0	283719.0
28	17	38	20	341	35.0	-212267.0	-3872.0	283657.0
28	17	38	20	342	36.0	-212502.0	-3911.0	283724.0
28	17	38	20	343	37.0	-212013.0	-3942.0	284061.0
28	17	38	20	343	38.0	-210329.0	-3968.0	285063.0
28	17	38	20	344	39.0	-207262.0	-3993.0	284489.0
28	17	38	20	345	40.0	-204458.0	-4016.0	284006.0
28	17	38	20	345	41.0	-201110.0	-4064.0	283838.0
28	17	38	20	346	42.0	-198299.0	-4089.0	282575.0
28	17	38	20	387	43.0	-197324.0	-4141.0	281996.0
28	17	38	20	388	59.0	-194861.0	-4836.0	280973.0
28	17	38	20	388	60.0	-195366.0	-4882.0	281024.0
28	17	38	20	389	61.0	-195435.0	-4907.0	280163.0
28	17	38	20	389	62.0	-195417.0	-4941.0	280244.0
28	17	38	20	390	63.0	-196114.0	-4992.0	279508.0
28	17	38	20	391	64.0	-196082.0	-5035.0	278759.0
28	17	38	20	391	65.0	-195656.0	-5096.0	279385.0
28	17	38	20	392	81.0	-198724.0	-5569.0	279822.0
28	17	38	20	393	82.0	-197844.0	-5582.0	279847.0
28	17	38	20	393	83.0	-197346.0	-5603.0	279214.0
28	17	38	20	394	84.0	-196732.0	-5637.0	278397.0
28	17	38	20	394	85.0	-195324.0	-5676.0	278509.0
28	17	38	20	395	86.0	-194311.0	-5715.0	278933.0
28	17	38	20	396	87.0	-193443.0	-5741.0	279046.0
28	17	38	20	396	104.0	-205743.0	-6117.0	277679.0
28	17	38	20	397	105.0	-205627.0	-6136.0	276959.0
28	17	38	20	397	106.0	-205988.0	-6162.0	277668.0
28	17	38	20	398	107.0	-206016.0	-6170.0	276876.0
28	17	38	20	399	108.0	-206189.0	-6176.0	276339.0
28	17	38	20	399	109.0	-205727.0	-6203.0	274683.0
28	17	38	20	432	110.0	-205639.0	-6249.0	271891.0
28	17	38	20	433	111.0	-205671.0	-6262.0	269446.0
28	17	38	20	434	112.0	-204748.0	-6282.0	265197.0
28	17	38	20	434	113.0	-204169.0	-6314.0	258134.0
28	17	38	20	443	114.0	-202972.0	-6352.0	252983.0
28	17	38	20	443	115.0	-201639.0	-6399.0	251685.0
28	17	38	20	444	116.0	-200199.0	-6441.0	248144.0
28	17	38	20	445	117.0	-198057.0	-6468.0	244769.0
28	17	38	20	445	118.0	-195907.0	-6500.0	244212.0
28	17	38	20	446	119.0	-193564.0	-6523.0	246676.0
28	17	38	20	446	120.0	-191851.0	-6564.0	252413.0
28	17	38	20	447	121.0	-189706.0	-6606.0	260098.0
28	17	38	20	476	122.0	-187771.0	-6619.0	266941.0
28	17	38	20	521	123.0	-186839.0	-6675.0	272919.0
28	17	38	20	522	124.0	-186479.0	-6743.0	283640.0
28	17	38	20	523	126.0	-188939.0	-6844.0	294294.0
28	17	38	20	524	127.0	-191736.0	-6863.0	293831.0
28	17	38	20	524	128.0	-195458.0	-6879.0	291804.0
28	17	38	20	525	129.0	-200271.0	-6912.0	289282.0
28	17	38	20	526	130.0	-207348.0	-6930.0	286875.0
28	17	38	20	526	131.0	-215317.0	-6953.0	284048.0
28	17	38	20	566	132.0	-224042.0	-6987.0	281633.0
28	17	38	20	567	133.0	-232180.0	-7015.0	278889.0
28	17	38	20	612	134.0	-237143.0	-7081.0	275892.0
28	17	38	20	613	135.0	-240212.0	-7132.0	273689.0
28	17	38	20	614	136.0	-240984.0	-7178.0	272939.0
28	17	38	20	615	137.0	-238919.0	-7216.0	272299.0
28	17	38	20	615	138.0	-227327.0	-7263.0	271855.0
28	17	38	20	616	171.0	-141209.0	-8692.0	264309.0
28	17	38	20	617	172.0	-152722.0	-8727.0	264028.0
28	17	38	20	617	173.0	-165006.0	-8763.0	262632.0
28	17	38	20	619	174.0	-176756.0	-8787.0	262144.0
28	17	38	20	620	175.0	-185752.0	-8827.0	262618.0
28	17	38	20	621	176.0	-191255.0	-8859.0	262325.0
28	17	38	20	623	177.0	-194206.0	-8895.0	262379.0
28	17	38	20	623	178.0	-195660.0	-8917.0	262387.0
28	17	38	20	624	193.0	-194334.0	-9461.0	257248.0
28	17	38	20	625	194.0	-190351.0	-9532.0	255953.0
28	17	38	20	625	216.0	-203554.0	-10344.0	254525.0
28	17	38	20	626	217.0	-199001.0	-10359.0	255217.0
28	17	38	20	626	218.0	-194451.0	-10354.0	254971.0
28	17	38	20	627	219.0	-190727.0	-10361.0	254886.0
28	17	38	20	628	220.0	-187511.0	-10367.0	255179.0
28	17	38	20	659	221.0	-184899.0	-10373.0	254363.0
28	17	38	20	659	222.0	-183102.0	-10372.0	254588.0
28	17	38	20	660	223.0	-181633.0	-10374.0	253519.0
28	17	38	20	661	224.0	-180404.0	-10384.0	253115.0
28	17	38	20	701	225.0	-179857.0	-10409.0	254066.0
28	17	38	20	702	226.0	-179896.0	-10407.0	253581.0
28	17	38	20	703	227.0	-180244.0	-10389.0	253960.0
28	17	38	20	703	228.0	-181237.0	-10363.0	254402.0
28	17	38	20	704	229.0	-182681.0	-10318.0	253926.0
28	17	38	20	704	230.0	-184394.0	-10292.0	253921.0
28	17	38	20	705	231.0	-186220.0	-10285.0	253793.0
28	17	38	20	706	232.0	-188389.0	-10225.0	253630.0
28	17	38	20	792	233.0	-190584.0	-10200.0	253003.0
28	17	38	20	793	234.0	-192452.0	-10165.0	252789.0
28	17	38	20	794	235.0	-194204.0	-10144.0	253249.0
28	17	38	20	795	236.0	-195624.0	-10099.0	252589.0
28	17	38	20	795	239.0	-197988.0	-9892.0	253108.0
28	17	38	20	796	240.0	-198153.0	-9816.0	253651.0
28	17	38	20	797	241.0	-198826.0	-9757.0	253944.0
28	17	38	20	797	242.0	-199276.0	-9668.0	252959.0
28	17	38	20	798	5.0	-219087.0	-7829.0	252020.0
28	17	38	20	799	6.0	-218353.0	-7720.0	251813.0
28	17	38	20	799	7.0	-215972.0	-7632.0	251075.0
28	17	38	20	800	8.0	-211069.0	-7559.0	250433.0
28	17	38	20	801	9.0	-202685.0	-7472.0	250256.0
28	17	38	20	801	10.0	-190031.0	-7399.0	250971.0
28	17	38	20	802	11.0	-168705.0	-7324.0	250979.0
28	17	38	20	802	27.0	-190885.0	-6312.0	246628.0
28	17	38	20	803	50.0	-185477.0	-5698.0	241804.0
28	17	38	20	804	51.0	-190107.0	-5676.0	241533.0
28	17	38	20	804	52.0	-196568.0	-5655.0	241811.0
28	17	38	20	805	53.0	-204706.0	-5626.0	241509.0
28	17	38	20	806	54.0	-212829.0	-5611.0	241128.0
28	17	38	20	806	55.0	-219892.0	-5596.0	241093.0
28	17	38	20	837	56.0	-225529.0	-5590.0	241177.0
28	17	38	20	838	57.0	-228089.0	-5587.0	240456.0
28	17	38	20	839	58.0	-229577.0	-5606.0	239509.0
28	17	38	20	839	59.0	-229672.0	-5617.0	239679.0
28	17	38	20	840	60.0	-228347.0	-5619.0	240236.0
28	17	38	20	841	61.0	-227356.0	-5624.0	239969.0
28	17	38	20	841	62.0	-225391.0	-5632.0	240212.0
28	17	38	20	842	63.0	-223175.0	-5625.0	240584.0
28	17	38	20	843	64.0	-220782.0	-5642.0	240173.0
28	17	38	20	843	65.0	-217640.0	-5654.0	239688.0
28	17	38	20	844	66.0	-214738.0	-5650.0	239573.0
28	17	38	20	845	67.0	-211618.0	-5659.0	238737.0
28	17	38	20	845	68.0	-207816.0	-5683.0	238371.0
28	17	38	20	846	69.0	-204176.0	-5714.0	238426.0
28	17	38	20	847	70.0	-201341.0	-5716.0	238954.0
28	17	38	20	847	72.0	-196701.0	-5731.0	238799.0
28	17	38	20	848	73.0	-195213.0	-5734.0	238353.0
28	17	38	20	848	74.0	-193820.0	-5719.0	238643.0
28	17	38	20	882	75.0	-193061.0	-5719.0	237989.0
28	17	38	20	883	76.0	-192526.0	-5706.0	237555.0
28	17	38	20	883	77.0	-192217.0	-5722.0	237044.0
28	17	38	20	884	78.0	-191954.0	-5736.0	235879.0
28	17	38	20	885	79.0	-191941.0	-5759.0	235181.0
28	17	38	20	885	80.0	-192505.0	-5787.0	236198.0
28	17	38	20	886	81.0	-193044.0	-5806.0	236218.0
28	17	38	20	929	82.0	-194081.0	-5814.0	235496.0
28	17	38	20	930	83.0	-195174.0	-5818.0	235389.0
28	17	38	20	931	84.0	-196430.0	-5828.0	235114.0
28	17	38	20	932	85.0	-198197.0	-5841.0	234241.0
28	17	38	20	932	86.0	-199102.0	-5848.0	234011.0
28	17	38	20	933	87.0	-199956.0	-5864.0	233069.0
28	17	38	20	933	88.0	-200714.0	-5896.0	232131.0
28	17	38	20	934	89.0	-200774.0	-5909.0	231722.0
28	17	38	21	18	90.0	-200706.0	-5907.0	231896.0
28	17	38	21	18	95.0	-202077.0	-5989.0	231660.0
28	17	38	21	19	96.0	-203128.0	-5973.0	231153.0
28	17	38	21	20	97.0	-204627.0	-5979.0	229908.0
28	17	38	21	21	98.0	-205752.0	-5987.0	229793.0
28	17	38	21	21	99.0	-206859.0	-5999.0	229465.0
28	17	38	21	22	100.0	-207744.0	-6006.0	228601.0
28	17	38	21	22	101.0	-207627.0	-6021.0	229656.0
28	17	38	21	62	117.0	-206204.0	-5983.0	227991.0
28	17	38	21	63	118.0	-208156.0	-6000.0	227418.0
28	17	38	21	63	119.0	-209981.0	-5996.0	227428.0
28	17	38	21	64	120.0	-211817.0	-5991.0	228103.0
28	17	38	21	65	121.0	-213229.0	-5999.0	228144.0
28	17	38	21	65	122.0	-214166.0	-5994.0	228328.0
28	17	38	21	66	123.0	-214977.0	-5969.0	228608.0
28	17	38	21	107	139.0	-188756.0	-6060.0	223243.0
28	17	38	21	108	162.0	-186934.0	-6589.0	196578.0
28	17	38	21	109	163.0	-185271.0	-6616.0	192810.0
28	17	38	21	110	164.0	-184034.0	-6649.0	191563.0
28	17	38	21	110	165.0	-183462.0	-6672.0	193461.0
28	17	38	21	111	166.0	-183967.0	-6692.0	199082.0
28	17	38	21	112	167.0	-185161.0	-6732.0	206145.0
28	17	38	21	112	168.0	-186570.0	-6783.0	212799.0
28	17	38	21	152	184.0	-187684.0	-7267.0	215147.0
28	17	38	21	153	185.0	-143791.0	-7309.0	213938.0
28	17	38	21	154	186.0	-108051.0	-7332.0	213631.0
28	17	38	21	155	187.0	-87013.0	-7346.0	213029.0
28	17	38	21	155	188.0	-81929.0	-7397.0	212431.0
28	17	38	21	156	189.0	-95216.0	-7444.0	212187.0
28	17	38	21	157	190.0	-126134.0	-7496.0	212378.0
28	17	38	21	243	191.0	-169698.0	-7516.0	212481.0
28	17	38	21	244	207.0	-158420.0	-7944.0	208127.0
28	17	38	21	244	208.0	-168051.0	-7972.0	206957.0
28	17	38	21	245	209.0	-170122.0	-7992.0	206588.0
28	17	38	21	246	210.0	-163722.0	-7992.0	207285.0
28	17	38	21	247	211.0	-152109.0	-7996.0	207491.0
28	17	38	21	247	212.0	-141296.0	-8003.0	207037.0
28	17	38	21	287	213.0	-134627.0	-7997.0	206874.0
28	17	38	21	287	229.0	-242369.0	-8241.0	201118.0
28	17	38	21	288	230.0	-241891.0	-8255.0	201326.0
28	17	38	21	288	231.0	-237517.0	-8278.0	201168.0
28	17	38	21	289	232.0	-230371.0	-8301.0	200653.0
28	17	38	21	289	233.0	-222084.0	-8323.0	200801.0
28	17	38	21	290	234.0	-213276.0	-8344.0	200723.0
28	17	38	21	332	235.0	-203901.0	-8352.0	200368.0
28	17	38	21	333	236.0	-195306.0	-8359.0	200063.0
28	17	38	21	333	19.0	-186136.0	-9019.0	193964.0
28	17	38	21	334	20.0	-184786.0	-8972.0	193544.0
28	17	38	21	334	21.0	-183272.0	-8926.0	193081.0
28	17	38	21	335	22.0	-182522.0	-8878.0	192924.0
28	17	38	21	335	23.0	-181019.0	-8856.0	192561.0
28	17	38	21	423	24.0	-180712.0	-8813.0	192624.0
28	17	38	21	423	25.0	-180662.0	-8759.0	193313.0
28	17	38	21	424	41.0	-199644.0	-7351.0	193152.0
28	17	38	21	424	42.0	-202825.0	-7262.0	192441.0
28	17	38	21	426	43.0	-205241.0	-7156.0	192809.0
28	17	38	21	427	44.0	-208470.0	-7059.0	193509.0
28	17	38	21	427	45.0	-212934.0	-6976.0	193709.0
28	17	38	21	467	46.0	-217167.0	-6849.0	193939.0
28	17	38	21	468	47.0	-222576.0	-6729.0	193821.0
28	17	38	21	469	63.0	-109136.0	-5477.0	189234.0
28	17	38	21	470	64.0	-134279.0	-5415.0	189316.0
28	17	38	21	470	65.0	-175793.0	-5371.0	189169.0
28	17	38	21	471	66.0	-215782.0	-5318.0	189448.0
28	17	38	21	472	67.0	-247259.0	-5274.0	189685.0
28	17	38	21	473	68.0	-264484.0	-5243.0	188864.0
28	17	38	21	512	69.0	-263860.0	-5216.0	188424.0
28	17	38	21	513	108.0	-223056.0	-4921.0	180108.0
28	17	38	21	513	109.0	-221561.0	-4936.0	179903.0
28	17	38	21	514	110.0	-219204.0	-4924.0	179842.0
28	17	38	21	515	111.0	-216737.0	-4938.0	178688.0
28	17	38	21	516	112.0	-214054.0	-4964.0	177852.0
28	17	38	21	517	113.0	-211186.0	-4983.0	177838.0
28	17	38	21	517	114.0	-209676.0	-5025.0	177844.0
28	17	38	21	518	131.0	-183794.0	-5346.0	173649.0
28	17	38	21	519	132.0	-185576.0	-5357.0	172886.0
28	17	38	21	520	133.0	-186609.0	-5379.0	173105.0
28	17	38	21	520	134.0	-188149.0	-5372.0	172906.0
28	17	38	21	521	135.0	-189936.0	-5367.0	172613.0
28	17	38	21	522	136.0	-191361.0	-5377.0	172787.0
28	17	38	21	523	137.0	-194617.0	-5371.0	172628.0
28	17	38	21	524	153.0	-222141.0	-5264.0	167454.0
28	17	38	21	524	154.0	-220788.0	-5254.0	167531.0
28	17	38	21	525	155.0	-220887.0	-5245.0	167710.0
28	17	38	21	526	156.0	-219668.0	-5234.0	167755.0
28	17	38	21	527	157.0	-218051.0	-5197.0	167923.0
28	17	38	21	527	158.0	-216866.0	-5168.0	167751.0
28	17	38	21	558	159.0	-214594.0	-5143.0	167336.0
28	17	38	21	559	160.0	-213301.0	-5114.0	167062.0
28	17	38	21	559	161.0	-211374.0	-5099.0	166371.0
28	17	38	21	560	162.0	-209710.0	-5098.0	166105.0
28	17	38	21	560	163.0	-208732.0	-5084.0	166302.0
28	17	38	21	561	164.0	-207218.0	-5086.0	166483.0
28	17	38	21	562	165.0	-206582.0	-5066.0	166409.0
28	17	38	21	562	166.0	-205605.0	-5037.0	166489.0
28	17	38	21	563	167.0	-204641.0	-5006.0	166192.0
28	17	38	21	563	168.0	-204668.0	-4983.0	165640.0
28	17	38	21	564	169.0	-204471.0	-4974.0	165218.0
28	17	38	21	564	170.0	-205237.0	-4937.0	164863.0
28	17	38	21	565	171.0	-205573.0	-4922.0	164031.0
28	17	38	21	565	172.0	-205184.0	-4921.0	163244.0
28	17	38	21	648	173.0	-205222.0	-4917.0	162955.0
28	17	38	21	648	175.0	-202256.0	-4886.0	163101.0
28	17	38	21	649	176.0	-200637.0	-4856.0	163009.0
28	17	38	21	649	177.0	-198158.0	-4839.0	163113.0
28	17	38	21	650	178.0	-196200.0	-4809.0	162862.0
28	17	38	21	651	179.0	-194852.0	-4778.0	162246.0
28	17	38	21	651	180.0	-193356.0	-4754.0	161393.0
28	17	38	21	652	181.0	-192759.0	-4727.0	160333.0
28	17	38	21	652	182.0	-192342.0	-4716.0	160263.0
28	17	38	21	653	183.0	-191751.0	-4693.0	160266.0
28	17	38	21	654	184.0	-191004.0	-4666.0	159714.0
28	17	38	21	654	185.0	-190352.0	-4645.0	159521.0
28	17	38	21	655	186.0	-190533.0	-4637.0	159787.0
28	17	38	21	655	187.0	-190641.0	-4629.0	159579.0
28	17	38	21	656	188.0	-190953.0	-4606.0	159303.0
28	17	38	21	656	189.0	-190777.0	-4598.0	159093.0
28	17	38	21	657	221.0	-226890.0	-4546.0	164883.0
28	17	38	21	658	222.0	-232532.0	-4569.0	161248.0
28	17	38	21	658	223.0	-238996.0	-4584.0	158392.0
28	17	38	21	659	224.0	-245196.0	-4599.0	156609.0
28	17	38	21	659	225.0	-248605.0	-4616.0	154489.0
28	17	38	21	660	226.0	-248527.0	-4623.0	151945.0
28	17	38	21	692	227.0	-244375.0	-4642.0	149909.0
28	17	38	21	693	228.0	-229172.0	-4657.0	147861.0
28	17	38	21	694	229.0	-200424.0	-4688.0	145744.0
28	17	38	21	694	230.0	-163636.0	-4731.0	144599.0
28	17	38	21	695	231.0	-126241.0	-4766.0	143751.0
28	17	38	21	696	232.0	-98718.0	-4799.0	142943.0
28	17	38	21	696	233.0	-84729.0	-4834.0	142056.0
28	17	38	21	737	234.0	-87902.0	-4871.0	142064.0
28	17	38	21	737	235.0	-108173.0	-4887.0	142289.0
28	17	38	21	738	236.0	-142479.0	-4914.0	141941.0
28	17	38	21	739	237.0	-185332.0	-4944.0	141967.0
28	17	38	21	739	238.0	-233780.0	-4986.0	141564.0
28	17	38	21	740	239.0	-281064.0	-5014.0	141022.0
28	17	38	21	740	240.0	-315345.0	-5038.0	140186.0
28	17	38	21	782	241.0	-328210.0	-5072.0	139680.0
28	17	38	21	783	243.0	-300479.0	-5179.0	137801.0
28	17	38	21	783	244.0	-271320.0	-5201.0	137759.0
28	17	38	21	784	245.0	-237892.0	-5223.0	138021.0
28	17	38	21	784	246.0	-205551.0	-5238.0	137306.0
28	17	38	21	785	247.0	-178408.0	-5252.0	137179.0
28	17	38	21	785	248.0	-156482.0	-5289.0	136928.0
28	17	38	21	826	249.0	-143299.0	-5316.0	136617.0
28	17	38	21	827	250.0	-139773.0	-5335.0	136158.0
28	17	38	21	827	10.0	-178986.0	-5767.0	130570.0
28	17	38	21	828	11.0	-179773.0	-5779.0	130006.0
28	17	38	21	828	12.0	-179477.0	-5783.0	129321.0
28	17	38	21	829	13.0	-179704.0	-5816.0	128773.0
28	17	38	21	830	14.0	-182015.0	-5855.0	127925.0
28	17	38	21	830	15.0	-186531.0	-5882.0	127203.0
28	17	38	21	831	16.0	-194111.0	-5936.0	126404.0
28	17	38	21	832	32.0	-188299.0	-6356.0	120845.0
28	17	38	21	832	33.0	-188793.0	-6389.0	120188.0
28	17	38	21	833	34.0	-189900.0	-6402.0	119624.0
28	17	38	21	834	35.0	-191438.0	-6396.0	118426.0
28	17	38	21	834	36.0	-193876.0	-6414.0	117492.0
28	17	38	21	872	37.0	-196097.0	-6441.0	117506.0
28	17	38	21	872	38.0	-198599.0	-6471.0	117391.0
28	17	38	21	918	54.0	-171227.0	-6598.0	112148.0
28	17	38	21	918	55.0	-164562.0	-6578.0	111738.0
28	17	38	21	919	56.0	-158823.0	-6567.0	111268.0
28	17	38	21	920	57.0	-154141.0	-6530.0	110938.0
28	17	38	21	921	58.0	-151061.0	-6490.0	110235.0
28	17	38	21	922	59.0	-148055.0	-6466.0	109949.0
28	17	38	21	923	60.0	-146180.0	-6407.0	110159.0
28	17	38	21	924	61.0	-144846.0	-6342.0	110323.0
28	17	38	21	925	62.0	-143732.0	-6269.0	110038.0
28	17	38	21	926	63.0	-144991.0	-6202.0	109394.0
28	17	38	21	926	64.0	-148901.0	-6144.0	108886.0
28	17	38	21	927	65.0	-154573.0	-6087.0	108369.0
28	17	38	21	928	66.0	-162742.0	-6038.0	108241.0
28	17	38	21	929	67.0	-173532.0	-5974.0	108356.0
28	17	38	21	929	77.0	-294401.0	-5209.0	107251.0
28	17	38	21	930	99.0	-249222.0	-3372.0	97314.0
28	17	38	21	931	100.0	-255506.0	-3294.0	97573.0
28	17	38	21	932	101.0	-258687.0	-3224.0	97594.0
28	17	38	21	933	102.0	-259057.0	-3179.0	97321.0
28	17	38	21	933	103.0	-256807.0	-3114.0	96495.0
28	17	38	21	963	104.0	-251844.0	-3049.0	95854.0
28	17	38	21	963	105.0	-243681.0	-2982.0	94556.0
28	17	38	21	964	106.0	-231156.0	-2956.0	93179.0
28	17	38	21	965	107.0	-209908.0	-2934.0	91839.0
28	17	38	21	965	108.0	-182047.0	-2906.0	90713.0
28	17	38	21	966	109.0	-160033.0	-2881.0	90200.0
28	17	38	21	966	110.0	-159657.0	-2864.0	89188.0
28	17	38	22	6	111.0	-173799.0	-2864.0	88110.0
28	17	38	22	7	112.0	-201280.0	-2864.0	87123.0
28	17	38	22	8	113.0	-228594.0	-2854.0	86027.0
28	17	38	22	8	114.0	-243858.0	-2854.0	85135.0
28	17	38	22	9	115.0	-247934.0	-2847.0	83456.0
28	17	38	22	9	116.0	-240502.0	-2868.0	81393.0
28	17	38	22	10	117.0	-223963.0	-2894.0	80070.0
28	17	38	22	53	118.0	-202874.0	-2926.0	78937.0
28	17	38	22	54	119.0	-184260.0	-2962.0	78265.0
28	17	38	22	54	122.0	-157512.0	-3011.0	76141.0
28	17	38	22	55	123.0	-153081.0	-3047.0	74938.0
28	17	38	22	56	124.0	-148541.0	-3056.0	73612.0
28	17	38	22	56	125.0	-143116.0	-3076.0	71696.0
28	17	38	22	57	126.0	-137505.0	-3126.0	69471.0
28	17	38	22	97	127.0	-133865.0	-3169.0	67942.0
28	17	38	22	98	128.0	-132422.0	-3219.0	66270.0
28	17	38	22	99	144.0	-176295.0	-3784.0	43702.0
28	17	38	22	100	145.0	-184091.0	-3803.0	42061.0
28	17	38	22	100	146.0	-190789.0	-3841.0	39895.0
28	17	38	22	101	147.0	-195337.0	-3873.0	37897.0
28	17	38	22	101	148.0	-198223.0	-3939.0	36873.0
28	17	38	22	142	149.0	-201259.0	-3994.0	36237.0
28	17	38	22	143	150.0	-204465.0	-4029.0	34908.0
28	17	38	22	143	167.0	-186752.0	-4701.0	14449.0
28	17	38	22	144	168.0	-182179.0	-4761.0	13309.0
28	17	38	22	144	169.0	-177069.0	-4797.0	12786.0
28	17	38	22	145	170.0	-172241.0	-4852.0	12451.0
28	17	38	22	146	171.0	-168136.0	-4875.0	11692.0
28	17	38	22	233	172.0	-164935.0	-4892.0	10904.0
28	17	38	22	234	173.0	-162942.0	-4937.0	9666.0
28	17	38	22	235	189.0	-187413.0	-5213.0	-8371.0
28	17	38	22	235	190.0	-189434.0	-5189.0	-9171.0
28	17	38	22	236	191.0	-192352.0	-5146.0	-10174.0
28	17	38	22	237	192.0	-195707.0	-5121.0	-10765.0
28	17	38	22	237	193.0	-199281.0	-5075.0	-11436.0
28	17	38	22	238	194.0	-204322.0	-5037.0	-12318.0
28	17	38	22	280	195.0	-209395.0	-4989.0	-12297.0
28	17	38	22	280	212.0	-242349.0	-3811.0	-23489.0
28	17	38	22	281	213.0	-236177.0	-3689.0	-23273.0
28	17	38	22	322	214.0	-229867.0	-3574.0	-23740.0
28	17	38	22	348	215.0	-223612.0	-3463.0	-23959.0
28	17	38	22	349	216.0	-217116.0	-3362.0	-25308.0
28	17	38	22	350	217.0	-211098.0	-3268.0	-26447.0
28	17	38	22	351	218.0	-206214.0	-3173.0	-27737.0
28	17	38	22	351	0.0	-204281.0	779.0	-56827.0
28	17	38	22	352	1.0	-202210.0	830.0	-56757.0
28	17	38	22	372	2.0	-200311.0	916.0	-56403.0
28	17	38	22	373	3.0	-197724.0	989.0	-55422.0
28	17	38	22	374	4.0	-195432.0	1061.0	-52614.0
28	17	38	22	374	5.0	-191957.0	1150.0	-46749.0
28	17	38	22	375	6.0	-188484.0	1258.0	-40545.0
28	17	38	22	376	23.0	-147451.0	2213.0	-43796.0
28	17	38	22	376	24.0	-118039.0	2246.0	-43456.0
28	17	38	22	377	25.0	-97397.0	2304.0	-44439.0
28	17	38	22	457	26.0	-91093.0	2355.0	-45028.0
28	17	38	22	458	45.0	-188711.0	3069.0	-51051.0
28	17	38	22	459	46.0	-189431.0	3124.0	-51088.0
28	17	38	22	460	47.0	-186334.0	3194.0	-51221.0
28	17	38	22	461	48.0	-179971.0	3271.0	-51582.0
28	17	38	22	461	49.0	-172429.0	3337.0	-52069.0
28	17	38	22	462	50.0	-166441.0	3353.0	-53409.0
28	17	38	22	463	51.0	-164303.0	3374.0	-54249.0
28	17	38	22	464	68.0	-262046.0	3991.0	-56486.0
28	17	38	22	465	69.0	-256895.0	4034.0	-57217.0
28	17	38	22	465	70.0	-247734.0	4051.0	-58576.0
28	17	38	22	466	71.0	-236597.0	4053.0	-59326.0
28	17	38	22	467	72.0	-224542.0	4046.0	-59675.0
28	17	38	22	468	73.0	-212156.0	4068.0	-59180.0
28	17	38	22	469	74.0	-199550.0	4081.0	-58389.0
28	17	38	22	469	112.0	-181852.0	5409.0	-63039.0
28	17	38	22	470	113.0	-179850.0	5491.0	-62246.0
28	17	38	22	471	114.0	-178421.0	5606.0	-61808.0
28	17	38	22	472	115.0	-176679.0	5761.0	-60261.0
28	17	38	22	473	116.0	-174989.0	5905.0	-59762.0
28	17	38	22	473	117.0	-173613.0	6041.0	-59611.0
28	17	38	22	474	118.0	-172566.0	6181.0	-59920.0
28	17	38	22	502	119.0	-171900.0	6314.0	-60084.0
28	17	38	22	503	120.0	-172416.0	6439.0	-60446.0
28	17	38	22	504	121.0	-174116.0	6557.0	-60692.0
28	17	38	22	505	122.0	-176141.0	6683.0	-60739.0
28	17	38	22	505	123.0	-178922.0	6806.0	-59734.0
28	17	38	22	506	124.0	-181693.0	6939.0	-58511.0
28	17	38	22	507	125.0	-184125.0	7086.0	-58141.0
28	17	38	22	507	126.0	-185986.0	7236.0	-58243.0
28	17	38	22	547	127.0	-187429.0	7379.0	-58210.0
28	17	38	22	547	128.0	-188140.0	7553.0	-57774.0
28	17	38	22	548	129.0	-188302.0	7739.0	-58218.0
28	17	38	22	549	130.0	-188316.0	7881.0	-58638.0
28	17	38	22	549	131.0	-187927.0	7996.0	-58940.0
28	17	38	22	550	132.0	-188178.0	8131.0	-58803.0
28	17	38	22	551	133.0	-189082.0	8279.0	-58063.0
28	17	38	22	551	135.0	-191471.0	8583.0	-56219.0
28	17	38	22	591	136.0	-191699.0	8734.0	-56016.0
28	17	38	22	592	137.0	-191807.0	8877.0	-56014.0
28	17	38	22	593	138.0	-191307.0	9037.0	-56058.0
28	17	38	22	594	139.0	-190845.0	9192.0	-56217.0
28	17	38	22	594	140.0	-191057.0	9299.0	-57425.0
28	17	38	22	595	141.0	-192354.0	9419.0	-58238.0
28	17	38	22	595	142.0	-195290.0	9543.0	-58336.0
28	17	38	22	636	157.0	-208516.0	11144.0	-57497.0
28	17	38	22	637	158.0	-185862.0	11234.0	-57616.0
28	17	38	22	638	159.0	-151434.0	11339.0	-57796.0
28	17	38	22	638	160.0	-123192.0	11402.0	-58821.0
28	17	38	22	639	161.0	-119491.0	11468.0	-59666.0
28	17	38	22	640	162.0	-131883.0	11551.0	-60199.0
28	17	38	22	640	163.0	-150904.0	11618.0	-59837.0
28	17	38	22	641	164.0	-172050.0	11678.0	-59289.0
28	17	38	22	642	180.0	-177862.0	12459.0	-63839.0
28	17	38	22	642	181.0	-178475.0	12473.0	-64526.0
28	17	38	22	643	182.0	-178817.0	12479.0	-65224.0
28	17	38	22	644	183.0	-179234.0	12501.0	-64996.0
28	17	38	22	644	184.0	-178639.0	12514.0	-64329.0
28	17	38	22	645	185.0	-176121.0	12541.0	-63691.0
28	17	38	22	645	186.0	-171421.0	12562.0	-63747.0
28	17	38	22	646	187.0	-165409.0	12570.0	-63844.0
28	17	38	22	647	203.0	-264239.0	12575.0	-70305.0
28	17	38	22	647	204.0	-266372.0	12579.0	-69154.0
28	17	38	22	648	205.0	-267018.0	12583.0	-67963.0
28	17	38	22	649	206.0	-266824.0	12581.0	-67985.0
28	17	38	22	650	207.0	-265428.0	12583.0	-68931.0
28	17	38	22	650	208.0	-262609.0	12581.0	-69023.0
28	17	38	22	681	209.0	-259626.0	12583.0	-69341.0
28	17	38	22	682	210.0	-256189.0	12569.0	-70429.0
28	17	38	22	683	211.0	-252101.0	12546.0	-71377.0
28	17	38	22	683	212.0	-248445.0	12536.0	-71787.0
28	17	38	22	684	213.0	-244403.0	12515.0	-71695.0
28	17	38	22	685	214.0	-239671.0	12489.0	-71198.0
28	17	38	22	685	215.0	-234977.0	12489.0	-70548.0
28	17	38	22	686	216.0	-230118.0	12484.0	-70342.0
28	17	38	22	687	217.0	-225839.0	12484.0	-70076.0
28	17	38	22	687	218.0	-221637.0	12464.0	-69798.0
28	17	38	22	688	219.0	-218025.0	12469.0	-70249.0
28	17	38	22	689	220.0	-214447.0	12444.0	-71599.0
28	17	38	22	689	221.0	-211699.0	12398.0	-72642.0
28	17	38	22	690	222.0	-208631.0	12349.0	-73172.0
28	17	38	22	690	223.0	-206050.0	12331.0	-72493.0
28	17	38	22	691	225.0	-201083.0	12283.0	-71448.0
28	17	38	22	692	226.0	-198264.0	12259.0	-71634.0
28	17	38	22	727	227.0	-195570.0	12261.0	-71866.0
28	17	38	22	728	228.0	-193606.0	12244.0	-72047.0
28	17	38	22	728	229.0	-191967.0	12251.0	-72171.0
28	17	38	22	729	230.0	-191284.0	12222.0	-73309.0
28	17	38	22	730	231.0	-191242.0	12198.0	-74416.0
28	17	38	22	730	232.0	-192110.0	12149.0	-74821.0
28	17	38	22	731	233.0	-193471.0	12102.0	-74461.0
28	17	38	22	732	234.0	-195524.0	12077.0	-73892.0
28	17	38	22	732	235.0	-198315.0	12081.0	-73221.0
28	17	38	22	733	236.0	-201133.0	12068.0	-72705.0
28	17	38	22	734	237.0	-204536.0	12049.0	-72417.0
28	17	38	22	734	238.0	-208668.0	12035.0	-72547.0
28	17	38	22	735	239.0	-213014.0	12026.0	-73125.0
28	17	38	22	736	240.0	-216977.0	11973.0	-74422.0
28	17	38	22	736	241.0	-220547.0	11936.0	-75128.0
28	17	38	22	737	242.0	-224396.0	11899.0	-75407.0
28	17	38	22	738	247.0	-234160.0	11747.0	-73976.0
28	17	38	22	738	248.0	-233377.0	11737.0	-73977.0
28	17	38	22	739	249.0	-231360.0	11725.0	-74069.0
28	17	38	22	740	250.0	-228790.0	11679.0	-74744.0
28	17	38	22	740	251.0	-226368.0	11623.0	-75131.0
28	17	38	22	741	252.0	-223454.0	11581.0	-75312.0
28	17	38	22	742	253.0	-220661.0	11538.0	-74652.0
28	17	38	22	773	254.0	-217539.0	11493.0	-73989.0
28	17	38	22	773	255.0	-214679.0	11475.0	-73176.0
28	17	38	22	774	0.0	-211711.0	11460.0	-72099.0
28	17	38	22	775	1.0	-209001.0	11433.0	-71589.0
28	17	38	22	776	2.0	-206541.0	11401.0	-71597.0
28	17	38	22	776	3.0	-204245.0	11382.0	-71121.0
28	17	38	22	777	4.0	-202490.0	11342.0	-71351.0
28	17	38	22	778	5.0	-201012.0	11298.0	-71535.0
28	17	38	22	778	6.0	-199464.0	11255.0	-70734.0
28	17	38	22	779	7.0	-198241.0	11223.0	-70047.0
28	17	38	22	780	8.0	-197127.0	11187.0	-69044.0
28	17	38	22	780	9.0	-196224.0	11164.0	-68113.0
28	17	38	22	781	10.0	-195122.0	11154.0	-67817.0
28	17	38	22	782	11.0	-194276.0	11139.0	-67175.0
28	17	38	22	782	12.0	-193936.0	11137.0	-67022.0
28	17	38	22	783	14.0	-194711.0	11107.0	-66372.0
28	17	38	22	783	15.0	-196724.0	11068.0	-66517.0
28	17	38	22	784	16.0	-199650.0	11049.0	-66699.0
28	17	38	22	785	17.0	-203334.0	11046.0	-66247.0
28	17	38	22	785	18.0	-208519.0	11054.0	-66052.0
28	17	38	22	786	19.0	-214648.0	11057.0	-65283.0
28	17	38	22	816	20.0	-221827.0	11084.0	-65502.0
28	17	38	22	817	21.0	-229104.0	11109.0	-65981.0
28	17	38	22	818	22.0	-236628.0	11111.0	-66339.0
28	17	38	22	818	23.0	-243811.0	11110.0	-67262.0
28	17	38	22	819	24.0	-250148.0	11105.0	-69069.0
28	17	38	22	820	25.0	-255413.0	11043.0	-70338.0
28	17	38	22	821	26.0	-259138.0	10994.0	-71337.0
28	17	38	22	821	27.0	-261172.0	10981.0	-70929.0
28	17	38	22	822	28.0	-260992.0	10949.0	-70826.0
28	17	38	22	823	29.0	-259718.0	10939.0	-69998.0
28	17	38	22	823	30.0	-256616.0	10916.0	-69744.0
28	17	38	22	824	31.0	-252181.0	10894.0	-70291.0
28	17	38	22	825	32.0	-245939.0	10850.0	-68886.0
28	17	38	22	825	33.0	-239042.0	10814.0	-67497.0
28	17	38	22	826	34.0	-231581.0	10753.0	-67402.0
28	17	38	22	827	36.0	-216241.0	10628.0	-64531.0
28	17	38	22	827	37.0	-207949.0	10572.0	-62322.0
28	17	38	22	828	38.0	-200452.0	10542.0	-60540.0
28	17	38	22	828	39.0	-193483.0	10541.0	-59745.0
28	17	38	22	829	40.0	-187252.0	10522.0	-60016.0
28	17	38	22	830	41.0	-182416.0	10512.0	-61044.0
28	17	38	22	862	42.0	-178792.0	10494.0	-61754.0
28	17	38	22	863	43.0	-175657.0	10489.0	-62439.0
28	17	38	22	863	44.0	-173736.0	10464.0	-63801.0
28	17	38	22	864	45.0	-172282.0	10398.0	-64512.0
28	17	38	22	865	46.0	-171066.0	10335.0	-65974.0
28	17	38	22	865	47.0	-169446.0	10298.0	-66935.0
28	17	38	22	866	48.0	-167957.0	10276.0	-66833.0
28	17	38	22	867	49.0	-166709.0	10254.0	-66126.0
28	17	38	22	867	50.0	-165238.0	10220.0	-66352.0
28	17	38	22	868	51.0	-163825.0	10191.0	-65417.0
28	17	38	22	868	52.0	-161602.0	10162.0	-61204.0
28	17	38	22	869	53.0	-160469.0	10145.0	-55649.0
28	17	38	22	870	54.0	-160604.0	10105.0	-50803.0
28	17	38	22	870	55.0	-162039.0	10063.0	-48147.0
28	17	38	22	871	56.0	-165426.0	10013.0	-45049.0
28	17	38	22	872	59.0	-180096.0	9893.0	-26084.0
28	17	38	22	872	60.0	-185853.0	9875.0	-22285.0
28	17	38	22	873	61.0	-191497.0	9878.0	-15966.0
28	17	38	22	874	62.0	-196515.0	9850.0	-9915.0
28	17	38	22	874	63.0	-200856.0	9828.0	-7943.0
28	17	38	22	875	64.0	-204985.0	9797.0	-9346.0
28	17	38	22	907	65.0	-209882.0	9745.0	-11236.0
28	17	38	22	907	66.0	-215068.0	9682.0	-11996.0
28	17	38	22	908	67.0	-218836.0	9645.0	-12835.0
28	17	38	22	909	68.0	-221797.0	9598.0	-14417.0
28	17	38	22	909	69.0	-222137.0	9567.0	-15812.0
28	17	38	22	910	70.0	-218432.0	9539.0	-17021.0
28	17	38	22	910	71.0	-209685.0	9483.0	-18578.0
28	17	38	22	950	72.0	-192027.0	9464.0	-20291.0
28	17	38	22	951	73.0	-162860.0	9439.0	-21934.0
28	17	38	22	952	74.0	-127487.0	9383.0	-23856.0
28	17	38	22	952	75.0	-95547.0	9315.0	-24615.0
28	17	38	22	953	76.0	-76224.0	9244.0	-24458.0
28	17	38	22	954	77.0	-71021.0	9193.0	-23487.0
28	17	38	22	954	78.0	-81860.0	9146.0	-22349.0
28	17	38	22	955	79.0	-106587.0	9128.0	-21331.0
28	17	38	22	997	81.0	-178559.0	9049.0	-20611.0
28	17	38	22	998	82.0	-214601.0	9034.0	-20176.0
28	17	38	22	998	83.0	-244652.0	9016.0	-19697.0
28	17	38	22	999	84.0	-263983.0	8986.0	-20307.0
28	17	38	23	0	85.0	-270653.0	8944.0	-20457.0
28	17	38	23	0	86.0	-269117.0	8883.0	-19554.0
28	17	38	23	1	87.0	-262273.0	8838.0	-17822.0
28	17	38	23	42	88.0	-250106.0	8808.0	-17011.0
28	17	38	23	43	104.0	-128685.0	8742.0	-9960.0
28	17	38	23	43	105.0	-143152.0	8733.0	-10317.0
28	17	38	23	44	106.0	-157120.0	8735.0	-10161.0
28	17	38	23	44	107.0	-171778.0	8724.0	-9086.0
28	17	38	23	45	108.0	-187410.0	8736.0	-7839.0
28	17	38	23	46	109.0	-192466.0	8746.0	-6896.0
28	17	38	23	46	110.0	-190936.0	8754.0	-6277.0
28	17	38	23	86	126.0	-207354.0	8621.0	-5555.0
28	17	38	23	87	127.0	-201911.0	8591.0	-4864.0
28	17	38	23	88	128.0	-198006.0	8566.0	-4257.0
28	17	38	23	88	129.0	-195027.0	8573.0	-3526.0
28	17	38	23	89	130.0	-192424.0	8577.0	-3709.0
28	17	38	23	90	131.0	-190763.0	8556.0	-3662.0
28	17	38	23	90	132.0	-190129.0	8547.0	-3213.0
28	17	38	23	91	133.0	-190001.0	8533.0	-3280.0
28	17	38	23	131	149.0	-203385.0	8017.0	-521.0
28	17	38	23	132	150.0	-202019.0	8022.0	-402.0
28	17	38	23	133	151.0	-200574.0	8027.0	44.0
28	17	38	23	133	152.0	-199089.0	8038.0	-82.0
28	17	38	23	134	153.0	-197979.0	8048.0	88.0
28	17	38	23	134	154.0	-196905.0	8039.0	-636.0
28	17	38	23	135	155.0	-196091.0	8015.0	-949.0
28	17	38	23	136	171.0	-209297.0	8409.0	8971.0
28	17	38	23	136	172.0	-209864.0	8485.0	9389.0
28	17	38	23	137	173.0	-210532.0	8579.0	8882.0
28	17	38	23	138	174.0	-210752.0	8649.0	8215.0
28	17	38	23	138	175.0	-210588.0	8679.0	8230.0
28	17	38	23	139	176.0	-210106.0	8733.0	8792.0
28	17	38	23	140	177.0	-208817.0	8805.0	10079.0
28	17	38	23	140	178.0	-207674.0	8877.0	11488.0
28	17	38	23	141	193.0	-174277.0	10270.0	18040.0
28	17	38	23	142	194.0	-173949.0	10343.0	16868.0
28	17	38	23	142	195.0	-174244.0	10421.0	16463.0
28	17	38	23	143	196.0	-174740.0	10484.0	17166.0
28	17	38	23	144	197.0	-176065.0	10562.0	17919.0
28	17	38	23	144	198.0	-177739.0	10653.0	19026.0
28	17	38	23	145	199.0	-179810.0	10752.0	20229.0
28	17	38	23	176	200.0	-182478.0	10853.0	20658.0
28	17	38	23	177	201.0	-185303.0	10933.0	20471.0
28	17	38	23	178	202.0	-188099.0	11032.0	20741.0
28	17	38	23	178	203.0	-190978.0	11140.0	20881.0
28	17	38	23	179	204.0	-193737.0	11193.0	19862.0
28	17	38	23	180	205.0	-196292.0	11238.0	19428.0
28	17	38	23	180	206.0	-198791.0	11291.0	19833.0
28	17	38	23	181	207.0	-200370.0	11338.0	20998.0
28	17	38	23	181	208.0	-201320.0	11422.0	21529.0
28	17	38	23	182	209.0	-201924.0	11505.0	22503.0
28	17	38	23	183	210.0	-200806.0	11584.0	23065.0
28	17	38	23	183	211.0	-198475.0	11634.0	23181.0
28	17	38	23	184	212.0	-195088.0	11699.0	23487.0
28	17	38	23	184	213.0	-190232.0	11770.0	23411.0
28	17	38	23	185	214.0	-183315.0	11818.0	22626.0
28	17	38	23	185	216.0	-145824.0	11903.0	22699.0
28	17	38	23	186	217.0	-122954.0	11947.0	23415.0
28	17	38	23	187	218.0	-118517.0	11998.0	24083.0
28	17	38	23	187	219.0	-128739.0	12081.0	25236.0
28	17	38	23	188	220.0	-148044.0	12156.0	25870.0
28	17	38	23	188	221.0	-173268.0	12201.0	25802.0
28	17	38	23	221	222.0	-195339.0	12278.0	25843.0
28	17	38	23	222	223.0	-213151.0	12352.0	25539.0
28	17	38	23	222	224.0	-225979.0	12391.0	24475.0
28	17	38	23	223	225.0	-232976.0	12386.0	24125.0
28	17	38	23	224	226.0	-233822.0	12411.0	24246.0
28	17	38	23	224	227.0	-233070.0	12443.0	25541.0
28	17	38	23	225	228.0	-232684.0	12479.0	26454.0
28	17	38	23	266	229.0	-232267.0	12501.0	27317.0
28	17	38	23	267	230.0	-233970.0	12548.0	27813.0
28	17	38	23	268	231.0	-235489.0	12611.0	27942.0
28	17	38	23	269	232.0	-235144.0	12656.0	28006.0
28	17	38	23	269	233.0	-233590.0	12696.0	28049.0
28	17	38	23	270	234.0	-230077.0	12733.0	26898.0
28	17	38	23	270	235.0	-224853.0	12741.0	26710.0
28	17	38	23	312	236.0	-218953.0	12748.0	26903.0
28	17	38	23	313	238.0	-204187.0	12779.0	28978.0
28	17	38	23	357	239.0	-196592.0	12829.0	29328.0
28	17	38	23	358	240.0	-189607.0	12883.0	28786.0
28	17	38	23	359	241.0	-182339.0	12913.0	28906.0
28	17	38	23	359	242.0	-174916.0	12948.0	29044.0
28	17	38	23	360	243.0	-169846.0	13000.0	28876.0
28	17	38	23	361	244.0	-167534.0	13016.0	27931.0
28	17	38	23	362	245.0	-168575.0	13008.0	27486.0
28	17	38	23	363	5.0	-226188.0	13216.0	46263.0
28	17	38	23	364	6.0	-222605.0	13231.0	49238.0
28	17	38	23	364	7.0	-218786.0	13269.0	52027.0
28	17	38	23	365	8.0	-215301.0	13245.0	54389.0
28	17	38	23	365	9.0	-211673.0	13218.0	57807.0
28	17	38	23	366	10.0	-208649.0	13189.0	61558.0
28	17	38	23	367	11.0	-206080.0	13163.0	64508.0
28	17	38	23	367	27.0	-198255.0	13067.0	50153.0
28	17	38	23	368	28.0	-205764.0	13057.0	46747.0
28	17	38	23	368	50.0	-176930.0	12717.0	37035.0
28	17	38	23	369	51.0	-160878.0	12699.0	37861.0
28	17	38	23	370	52.0	-145214.0	12666.0	38901.0
28	17	38	23	370	53.0	-137474.0	12651.0	39791.0
28	17	38	23	371	54.0	-137625.0	12649.0	39811.0
28	17	38	23	372	55.0	-142704.0	12648.0	39563.0
28	17	38	23	402	56.0	-153634.0	12654.0	39055.0
28	17	38	23	403	57.0	-170282.0	12649.0	38908.0
28	17	38	23	404	58.0	-189988.0	12627.0	37979.0
28	17	38	23	404	59.0	-209317.0	12583.0	37198.0
28	17	38	23	405	60.0	-226959.0	12562.0	36848.0
28	17	38	23	405	61.0	-242011.0	12532.0	37489.0
28	17	38	23	406	62.0	-252134.0	12536.0	38621.0
28	17	38	23	407	63.0	-255812.0	12535.0	39668.0
28	17	38	23	407	64.0	-253659.0	12528.0	40218.0
28	17	38	23	408	65.0	-248250.0	12533.0	40328.0
28	17	38	23	408	66.0	-241860.0	12549.0	40436.0
28	17	38	23	409	67.0	-235412.0	12558.0	39937.0
28	17	38	23	447	68.0	-229614.0	12538.0	39203.0
28	17	38	23	448	69.0	-226262.0	12484.0	39225.0
28	17	38	23	448	70.0	-225117.0	12439.0	39351.0
28	17	38	23	449	72.0	-224653.0	12412.0	41317.0
28	17	38	23	449	73.0	-224167.0	12414.0	42304.0
28	17	38	23	450	74.0	-222973.0	12418.0	42466.0
28	17	38	23	491	75.0	-220136.0	12433.0	42626.0
28	17	38	23	492	76.0	-215091.0	12430.0	42346.0
28	17	38	23	493	77.0	-208779.0	12436.0	42208.0
28	17	38	23	493	78.0	-201571.0	12406.0	41191.0
28	17	38	23	494	79.0	-194810.0	12363.0	40808.0
28	17	38	23	495	80.0	-188949.0	12333.0	40621.0
28	17	38	23	495	81.0	-184990.0	12309.0	41117.0
28	17	38	23	496	82.0	-183756.0	12284.0	42728.0
28	17	38	23	536	83.0	-184334.0	12277.0	43663.0
28	17	38	23	537	94.0	-193540.0	12026.0	43084.0
28	17	38	23	538	95.0	-190389.0	12008.0	42894.0
28	17	38	23	538	96.0	-186482.0	12005.0	42676.0
28	17	38	23	539	97.0	-182330.0	12027.0	42582.0
28	17	38	23	540	98.0	-178050.0	11990.0	41249.0
28	17	38	23	540	99.0	-173399.0	11923.0	40550.0
28	17	38	23	541	100.0	-168424.0	11869.0	40663.0
28	17	38	23	581	117.0	-199014.0	11256.0	46343.0
28	17	38	23	582	118.0	-203097.0	11221.0	45619.0
28	17	38	23	583	119.0	-206417.0	11156.0	45891.0
28	17	38	23	584	120.0	-209027.0	11084.0	46553.0
28	17	38	23	584	121.0	-211001.0	11029.0	47621.0
28	17	38	23	585	122.0	-212605.0	10980.0	49061.0
28	17	38	23	627	123.0	-213326.0	10949.0	51261.0
28	17	38	23	627	139.0	-130238.0	10330.0	58253.0
28	17	38	23	628	140.0	-134339.0	10253.0	58395.0
28	17	38	23	673	141.0	-151912.0	10197.0	59549.0
28	17	38	23	673	142.0	-178223.0	10157.0	61008.0
28	17	38	23	674	143.0	-208127.0	10136.0	61748.0
28	17	38	23	675	144.0	-232254.0	10106.0	62717.0
28	17	38	23	675	145.0	-246924.0	10049.0	63463.0
28	17	38	23	676	146.0	-251299.0	10013.0	63281.0
28	17	38	23	677	162.0	-186555.0	9301.0	65392.0
28	17	38	23	678	163.0	-190564.0	9275.0	66380.0
28	17	38	23	686	164.0	-195497.0	9271.0	66579.0
28	17	38	23	687	165.0	-200671.0	9217.0	66688.0
28	17	38	23	688	166.0	-205607.0	9189.0	66344.0
28	17	38	23	688	167.0	-209961.0	9182.0	66361.0
28	17	38	23	689	168.0	-214379.0	9122.0	65294.0
28	17	38	23	689	185.0	-224441.0	8279.0	68633.0
28	17	38	23	690	186.0	-220174.0	8246.0	69154.0
28	17	38	23	690	187.0	-216021.0	8212.0	68424.0
28	17	38	23	691	207.0	-195166.0	6984.0	60138.0
28	17	38	23	692	208.0	-194709.0	6928.0	56057.0
28	17	38	23	692	209.0	-194973.0	6847.0	52239.0
28	17	38	23	693	210.0	-195586.0	6763.0	49102.0
28	17	38	23	693	211.0	-197021.0	6673.0	46611.0
28	17	38	23	694	212.0	-198843.0	6596.0	44436.0
28	17	38	23	694	213.0	-201166.0	6524.0	42173.0
28	17	38	23	763	214.0	-203777.0	6463.0	39188.0
28	17	38	23	764	215.0	-206604.0	6388.0	36302.0
28	17	38	23	808	216.0	-209916.0	6318.0	32739.0
28	17	38	23	808	217.0	-212931.0	6264.0	29174.0
28	17	38	23	809	218.0	-216355.0	6159.0	24908.0
28	17	38	23	810	219.0	-219546.0	6049.0	21768.0
28	17	38	23	810	220.0	-222717.0	5944.0	19580.0
28	17	38	23	811	221.0	-225574.0	5828.0	17078.0
28	17	38	23	811	222.0	-227643.0	5733.0	15086.0
28	17	38	23	812	223.0	-229259.0	5671.0	14492.0
28	17	38	23	852	224.0	-229685.0	5621.0	12969.0
28	17	38	23	853	225.0	-229398.0	5546.0	9894.0
28	17	38	23	853	226.0	-228251.0	5476.0	7985.0
28	17	38	23	854	227.0	-225886.0	5396.0	6814.0
28	17	38	23	854	228.0	-223009.0	5283.0	6196.0
28	17	38	23	855	229.0	-219331.0	5168.0	4952.0
28	17	38	23	855	252.0	-200051.0	3299.0	7570.0
28	17	38	23	896	18.0	-181104.0	1489.0	26702.0
28	17	38	23	897	19.0	-180516.0	1429.0	26864.0
28	17	38	23	898	20.0	-180499.0	1346.0	26974.0
28	17	38	23	898	21.0	-180583.0	1262.0	27068.0
28	17	38	23	899	22.0	-181509.0	1191.0	27161.0
28	17	38	23	900	23.0	-182880.0	1122.0	27089.0
28	17	38	23	900	24.0	-184546.0	1052.0	26945.0
28	17	38	23	901	25.0	-186439.0	986.0	26753.0
28	17	38	23	941	40.0	-193245.0	46.0	26784.0
28	17	38	23	942	41.0	-188892.0	-16.0	26929.0
28	17	38	23	942	42.0	-183855.0	-72.0	27025.0
28	17	38	23	943	43.0	-179354.0	-91.0	26929.0
28	17	38	23	943	44.0	-174913.0	-150.0	26798.0
28	17	38	23	944	45.0	-170646.0	-223.0	26591.0
28	17	38	23	945	46.0	-166674.0	-261.0	26356.0
28	17	38	23	945	47.0	-162823.0	-319.0	26198.0
28	17	38	23	987	63.0	-209061.0	-989.0	26730.0
28	17	38	23	988	64.0	-210827.0	-1033.0	26518.0
28	17	38	23	989	65.0	-213583.0	-1079.0	26238.0
28	17	38	23	990	66.0	-215692.0	-1126.0	25969.0
28	17	38	23	991	67.0	-217882.0	-1159.0	25754.0
28	17	38	23	992	68.0	-219502.0	-1179.0	25870.0
28	17	38	23	992	69.0	-219495.0	-1219.0	26142.0
28	17	38	23	993	85.0	-193263.0	-1581.0	26055.0
28	17	38	23	993	86.0	-192727.0	-1587.0	25684.0
28	17	38	23	994	87.0	-192841.0	-1599.0	25388.0
28	17	38	23	995	88.0	-193509.0	-1586.0	25441.0
28	17	38	23	995	89.0	-195114.0	-1559.0	25708.0
28	17	38	23	996	90.0	-199481.0	-1564.0	26009.0
28	17	38	23	997	91.0	-205851.0	-1566.0	26327.0
28	17	38	23	997	92.0	-212353.0	-1559.0	26521.0
28	17	38	23	998	108.0	-235040.0	-1438.0	26344.0
28	17	38	23	999	109.0	-228509.0	-1444.0	26681.0
28	17	38	23	999	110.0	-222282.0	-1404.0	27053.0
28	17	38	24	0	111.0	-217377.0	-1392.0	27352.0
28	17	38	24	1	112.0	-212772.0	-1382.0	27459.0
28	17	38	24	1	113.0	-207263.0	-1357.0	27358.0
28	17	38	24	32	114.0	-201591.0	-1357.0	27223.0
28	17	38	24	32	115.0	-196049.0	-1358.0	26995.0
28	17	38	24	33	116.0	-191317.0	-1347.0	26786.0
28	17	38	24	33	117.0	-187349.0	-1339.0	26711.0
28	17	38	24	34	118.0	-184907.0	-1328.0	26821.0
28	17	38	24	35	119.0	-183036.0	-1323.0	27016.0
28	17	38	24	35	120.0	-180501.0	-1302.0	27218.0
28	17	38	24	76	121.0	-177362.0	-1308.0	27377.0
28	17	38	24	77	122.0	-174530.0	-1312.0	27533.0
28	17	38	24	78	123.0	-171542.0	-1291.0	27439.0
28	17	38	24	79	124.0	-168321.0	-1295.0	27209.0
28	17	38	24	80	125.0	-165082.0	-1292.0	26979.0
28	17	38	24	81	126.0	-161772.0	-1306.0	26780.0
28	17	38	24	82	127.0	-158792.0	-1301.0	26718.0
28	17	38	24	83	128.0	-156254.0	-1310.0	26858.0
28	17	38	24	137	130.0	-153987.0	-1320.0	27195.0
28	17	38	24	151	131.0	-154126.0	-1321.0	27365.0
28	17	38	24	151	132.0	-154876.0	-1357.0	27540.0
28	17	38	24	152	133.0	-156466.0	-1344.0	27438.0
28	17	38	24	152	134.0	-158561.0	-1337.0	27249.0
28	17	38	24	153	135.0	-161412.0	-1362.0	26966.0
28	17	38	24	154	136.0	-164921.0	-1357.0	26720.0
28	17	38	24	154	137.0	-169144.0	-1366.0	26623.0
28	17	38	24	155	153.0	-199895.0	-1877.0	27125.0
28	17	38	24	156	154.0	-200589.0	-1901.0	26794.0
28	17	38	24	156	155.0	-201036.0	-1917.0	26326.0
28	17	38	24	157	156.0	-201250.0	-1964.0	25809.0
28	17	38	24	157	157.0	-201008.0	-2004.0	25415.0
28	17	38	24	158	158.0	-200434.0	-2056.0	25395.0
28	17	38	24	159	159.0	-199563.0	-2111.0	25625.0
28	17	38	24	159	183.0	-199203.0	-3444.0	25978.0
28	17	38	24	160	190.0	-195826.0	-3812.0	24664.0
28	17	38	24	161	191.0	-194800.0	-3865.0	25216.0
28	17	38	24	161	192.0	-193526.0	-3906.0	25734.0
28	17	38	24	162	193.0	-192391.0	-3936.0	25803.0
28	17	38	24	173	194.0	-191131.0	-3967.0	25542.0
28	17	38	24	173	195.0	-190083.0	-4012.0	25101.0
28	17	38	24	174	196.0	-189762.0	-4047.0	24563.0
28	17	38	24	174	197.0	-189692.0	-4061.0	23998.0
28	17	38	24	175	198.0	-189811.0	-4117.0	23797.0
28	17	38	24	196	199.0	-190250.0	-4182.0	23951.0
28	17	38	24	197	200.0	-191032.0	-4221.0	24345.0
28	17	38	24	198	201.0	-192179.0	-4264.0	24911.0
28	17	38	24	198	202.0	-193427.0	-4291.0	25489.0
28	17	38	24	199	203.0	-194971.0	-4334.0	25584.0
28	17	38	24	199	204.0	-196950.0	-4384.0	25342.0
28	17	38	24	200	205.0	-198762.0	-4445.0	24956.0
28	17	38	24	200	206.0	-200133.0	-4494.0	24356.0
28	17	38	24	201	207.0	-201386.0	-4566.0	23693.0
28	17	38	24	202	208.0	-202209.0	-4601.0	23403.0
28	17	38	24	202	209.0	-202409.0	-4644.0	23576.0
28	17	38	24	203	210.0	-202096.0	-4689.0	23883.0
28	17	38	24	203	211.0	-201837.0	-4736.0	24418.0
28	17	38	24	204	212.0	-201494.0	-4794.0	25079.0
28	17	38	24	204	213.0	-200662.0	-4844.0	25351.0
28	17	38	24	205	214.0	-199557.0	-4883.0	25246.0
28	17	38	24	220	215.0	-198189.0	-4934.0	24780.0
28	17	38	24	221	216.0	-197012.0	-4994.0	24033.0
28	17	38	24	221	217.0	-195826.0	-5046.0	23317.0
28	17	38	24	222	218.0	-194062.0	-5096.0	23099.0
28	17	38	24	223	219.0	-192175.0	-5141.0	23227.0
28	17	38	24	223	220.0	-190176.0	-5217.0	23471.0
28	17	38	24	224	221.0	-188081.0	-5269.0	23944.0
28	17	38	24	243	222.0	-186571.0	-5308.0	24753.0
28	17	38	24	244	223.0	-185326.0	-5361.0	25241.0
28	17	38	24	244	224.0	-184185.0	-5408.0	25126.0
28	17	38	24	245	225.0	-183606.0	-5477.0	24552.0
28	17	38	24	246	226.0	-183447.0	-5530.0	23776.0
28	17	38	24	246	227.0	-183540.0	-5582.0	23160.0
28	17	38	24	247	228.0	-183767.0	-5646.0	22922.0
28	17	38	24	247	229.0	-184367.0	-5693.0	22952.0
28	17	38	24	248	230.0	-185336.0	-5763.0	23079.0
28	17	38	24	248	231.0	-186399.0	-5809.0	23614.0
28	17	38	24	249	232.0	-187642.0	-5854.0	24437.0
28	17	38	24	288	233.0	-189488.0	-5916.0	24856.0
28	17	38	24	288	234.0	-190937.0	-5981.0	24566.0
28	17	38	24	289	235.0	-192605.0	-6036.0	23893.0
28	17	38	24	290	236.0	-194191.0	-6098.0	23043.0
28	17	38	24	290	237.0	-194934.0	-6136.0	22125.0
28	17	38	24	291	238.0	-195165.0	-6194.0	21473.0
28	17	38	24	291	239.0	-194257.0	-6252.0	21151.0
28	17	38	24	301	240.0	-191771.0	-6295.0	21141.0
28	17	38	24	302	241.0	-188749.0	-6366.0	21479.0
28	17	38	24	303	242.0	-185547.0	-6404.0	22226.0
28	17	38	24	304	243.0	-183286.0	-6451.0	22762.0
28	17	38	24	304	244.0	-182593.0	-6501.0	22792.0
28	17	38	24	305	245.0	-183417.0	-6546.0	22339.0
28	17	38	24	305	246.0	-186226.0	-6599.0	21535.0
28	17	38	24	323	247.0	-191614.0	-6662.0	20680.0
28	17	38	24	324	248.0	-199563.0	-6717.0	20379.0
28	17	38	24	324	2.0	-268411.0	-7192.0	23712.0
28	17	38	24	325	3.0	-235063.0	-7237.0	23638.0
28	17	38	24	325	4.0	-183354.0	-7273.0	23743.0
28	17	38	24	326	5.0	-129025.0	-7309.0	24221.0
28	17	38	24	326	6.0	-86254.0	-7353.0	24921.0
28	17	38	24	377	7.0	-61057.0	-7396.0	25075.0
28	17	38	24	378	8.0	-59238.0	-7454.0	24701.0
28	17	38	24	379	9.0	-78817.0	-7482.0	24014.0
28	17	38	24	380	10.0	-109093.0	-7546.0	23261.0
28	17	38	24	381	11.0	-143491.0	-7599.0	22390.0
28	17	38	24	381	12.0	-179674.0	-7641.0	21729.0
28	17	38	24	382	13.0	-210154.0	-7692.0	21326.0
28	17	38	24	383	14.0	-232923.0	-7741.0	21383.0
28	17	38	24	383	15.0	-247454.0	-7771.0	21927.0
28	17	38	24	384	17.0	-251906.0	-7844.0	23072.0
28	17	38	24	385	18.0	-244734.0	-7883.0	23069.0
28	17	38	24	385	19.0	-233699.0	-7926.0	22644.0
28	17	38	24	386	20.0	-225049.0	-7942.0	21798.0
28	17	38	24	387	21.0	-222349.0	-7961.0	20723.0
28	17	38	24	387	22.0	-225581.0	-7974.0	20070.0
28	17	38	24	388	23.0	-229984.0	-8012.0	19868.0
28	17	38	24	391	47.0	-204434.0	-8934.0	18995.0
28	17	38	24	391	48.0	-193612.0	-8967.0	19116.0
28	17	38	24	392	49.0	-184563.0	-8974.0	18521.0
28	17	38	24	393	50.0	-177536.0	-9004.0	17415.0
28	17	38	24	399	51.0	-172681.0	-9049.0	16196.0
28	17	38	24	400	52.0	-169927.0	-9069.0	15524.0
28	17	38	24	401	53.0	-168969.0	-9096.0	15238.0
28	17	38	24	401	54.0	-169272.0	-9113.0	15109.0
28	17	38	24	410	55.0	-170500.0	-9156.0	15411.0
28	17	38	24	410	56.0	-173627.0	-9198.0	16444.0
28	17	38	24	411	57.0	-177977.0	-9222.0	17241.0
28	17	38	24	411	58.0	-183622.0	-9257.0	17211.0
28	17	38	24	412	59.0	-191428.0	-9291.0	16463.0
28	17	38	24	412	60.0	-200305.0	-9348.0	15386.0
28	17	38	24	413	61.0	-210230.0	-9382.0	14259.0
28	17	38	24	414	62.0	-220394.0	-9439.0	13384.0
28	17	38	24	414	63.0	-229237.0	-9478.0	12849.0
28	17	38	24	434	64.0	-237184.0	-9507.0	12696.0
28	17	38	24	435	65.0	-243774.0	-9531.0	13169.0
28	17	38	24	435	66.0	-247964.0	-9552.0	14154.0
28	17	38	24	436	67.0	-249266.0	-9603.0	14681.0
28	17	38	24	436	68.0	-248371.0	-9657.0	14512.0
28	17	38	24	437	69.0	-245187.0	-9689.0	13839.0
28	17	38	24	438	70.0	-239786.0	-9718.0	12694.0
28	17	38	24	438	71.0	-232996.0	-9741.0	11325.0
28	17	38	24	439	72.0	-225087.0	-9793.0	10271.0
28	17	38	24	439	73.0	-215884.0	-9826.0	9866.0
28	17	38	24	440	74.0	-206458.0	-9840.0	9903.0
28	17	38	24	440	75.0	-197933.0	-9852.0	10304.0
28	17	38	24	441	76.0	-189813.0	-9847.0	11224.0
28	17	38	24	457	77.0	-181729.0	-9864.0	11934.0
28	17	38	24	458	78.0	-174872.0	-9846.0	11995.0
28	17	38	24	459	79.0	-169547.0	-9812.0	11228.0
28	17	38	24	459	80.0	-165569.0	-9786.0	9889.0
28	17	38	24	460	81.0	-163392.0	-9748.0	8479.0
28	17	38	24	460	82.0	-162976.0	-9702.0	7509.0
28	17	38	24	461	83.0	-164062.0	-9679.0	7039.0
28	17	38	24	484	84.0	-166777.0	-9634.0	6954.0
28	17	38	24	485	85.0	-171061.0	-9569.0	7401.0
28	17	38	24	485	86.0	-175610.0	-9494.0	8465.0
28	17	38	24	486	87.0	-180229.0	-9424.0	9209.0
28	17	38	24	486	88.0	-185212.0	-9345.0	9159.0
28	17	38	24	487	89.0	-189586.0	-9267.0	8414.0
28	17	38	24	487	90.0	-193000.0	-9203.0	7039.0
28	17	38	24	488	91.0	-196690.0	-9114.0	5499.0
28	17	38	24	488	92.0	-199670.0	-8988.0	4436.0
28	17	38	24	489	93.0	-201757.0	-8886.0	4009.0
28	17	38	24	490	94.0	-203490.0	-8774.0	4001.0
28	17	38	24	490	95.0	-204037.0	-8654.0	4466.0
28	17	38	24	491	96.0	-203798.0	-8520.0	5573.0
28	17	38	24	491	97.0	-203229.0	-8406.0	6489.0
28	17	38	24	507	98.0	-202304.0	-8284.0	6599.0
28	17	38	24	508	99.0	-200939.0	-8139.0	5705.0
28	17	38	24	509	100.0	-199827.0	-8007.0	4213.0
28	17	38	24	509	101.0	-199039.0	-7842.0	2721.0
28	17	38	24	510	102.0	-198311.0	-7689.0	1836.0
28	17	38	24	511	103.0	-197606.0	-7530.0	1432.0
28	17	38	24	511	104.0	-197287.0	-7369.0	1318.0
28	17	38	24	512	105.0	-196878.0	-7202.0	1936.0
28	17	38	24	512	106.0	-196619.0	-7029.0	3411.0
28	17	38	24	513	107.0	-196994.0	-6846.0	4396.0
28	17	38	24	513	108.0	-197440.0	-6636.0	4358.0
28	17	38	24	514	109.0	-197543.0	-6438.0	3481.0
28	17	38	24	514	110.0	-197224.0	-6246.0	2197.0
28	17	38	24	515	111.0	-196306.0	-6044.0	634.0
28	17	38	24	530	112.0	-195214.0	-5853.0	-442.0
28	17	38	24	530	113.0	-194382.0	-5632.0	-782.0
28	17	38	24	531	114.0	-193690.0	-5428.0	-521.0
28	17	38	24	532	115.0	-193097.0	-5230.0	266.0
28	17	38	24	532	116.0	-192912.0	-5045.0	1643.0
28	17	38	24	533	117.0	-193092.0	-4838.0	2677.0
28	17	38	24	533	118.0	-193361.0	-4650.0	2893.0
28	17	38	24	554	119.0	-193829.0	-4469.0	2265.0
28	17	38	24	554	120.0	-194421.0	-4278.0	897.0
28	17	38	24	555	121.0	-195275.0	-4096.0	-712.0
28	17	38	24	556	122.0	-196422.0	-3922.0	-1607.0
28	17	38	24	556	123.0	-198052.0	-3739.0	-1809.0
28	17	38	24	557	124.0	-199853.0	-3547.0	-1673.0
28	17	38	24	557	125.0	-201674.0	-3349.0	-953.0
28	17	38	24	576	126.0	-203478.0	-3172.0	626.0
28	17	38	24	577	127.0	-205329.0	-2997.0	1778.0
28	17	38	24	578	128.0	-207312.0	-2814.0	1956.0
28	17	38	24	578	129.0	-209706.0	-2634.0	1239.0
28	17	38	24	579	130.0	-212223.0	-2468.0	-119.0
28	17	38	24	579	131.0	-214954.0	-2287.0	-1615.0
28	17	38	24	580	132.0	-217914.0	-2117.0	-2564.0
28	17	38	24	599	133.0	-220910.0	-1971.0	-2792.0
28	17	38	24	599	134.0	-223309.0	-1802.0	-2564.0
28	17	38	24	600	135.0	-224985.0	-1646.0	-1756.0
28	17	38	24	601	136.0	-225866.0	-1507.0	-235.0
28	17	38	24	601	137.0	-225606.0	-1366.0	956.0
28	17	38	24	602	138.0	-224612.0	-1227.0	1201.0
28	17	38	24	602	139.0	-222830.0	-1088.0	389.0
28	17	38	24	603	140.0	-219311.0	-956.0	-1110.0
28	17	38	24	604	141.0	-213181.0	-847.0	-2611.0
28	17	38	24	604	144.0	-166117.0	-457.0	-3760.0
28	17	38	24	605	145.0	-156456.0	-359.0	-3027.0
28	17	38	24	605	146.0	-157428.0	-231.0	-1348.0
28	17	38	24	606	147.0	-167779.0	-96.0	-222.0
28	17	38	24	606	148.0	-187586.0	22.0	-204.0
28	17	38	24	621	149.0	-207870.0	124.0	-1136.0
28	17	38	24	622	150.0	-222779.0	221.0	-2452.0
28	17	38	24	623	152.0	-227922.0	437.0	-5101.0
28	17	38	24	623	153.0	-220949.0	545.0	-5539.0
28	17	38	24	624	154.0	-212988.0	634.0	-5291.0
28	17	38	24	624	155.0	-208501.0	724.0	-4407.0
28	17	38	24	625	156.0	-207567.0	819.0	-3014.0
28	17	38	24	644	157.0	-208436.0	918.0	-1987.0
28	17	38	24	645	158.0	-210339.0	1019.0	-1749.0
28	17	38	24	646	159.0	-211387.0	1128.0	-2543.0
28	17	38	24	646	160.0	-210388.0	1219.0	-4207.0
28	17	38	24	647	161.0	-207942.0	1292.0	-6072.0
28	17	38	24	648	162.0	-204576.0	1404.0	-7155.0
28	17	38	24	648	163.0	-200682.0	1507.0	-7551.0
28	17	38	24	649	164.0	-196539.0	1584.0	-7610.0
28	17	38	24	649	165.0	-192737.0	1670.0	-6938.0
28	17	38	24	650	167.0	-188280.0	1825.0	-4102.0
28	17	38	24	667	168.0	-187292.0	1900.0	-4101.0
28	17	38	24	668	169.0	-185853.0	1964.0	-5115.0
28	17	38	24	668	170.0	-182972.0	2040.0	-6834.0
28	17	38	24	669	171.0	-178152.0	2108.0	-8744.0
28	17	38	24	669	172.0	-171762.0	2176.0	-9913.0
28	17	38	24	670	173.0	-163952.0	2238.0	-10332.0
28	17	38	24	671	174.0	-156445.0	2299.0	-10193.0
28	17	38	24	671	175.0	-151936.0	2369.0	-9354.0
28	17	38	24	672	176.0	-151941.0	2424.0	-7630.0
28	17	38	24	672	181.0	-194161.0	2749.0	-10794.0
28	17	38	24	673	182.0	-201731.0	2794.0	-11994.0
28	17	38	24	673	183.0	-206598.0	2843.0	-12459.0
28	17	38	24	674	184.0	-209284.0	2893.0	-12325.0
28	17	38	24	675	185.0	-210343.0	2955.0	-11351.0
28	17	38	24	675	186.0	-210928.0	3009.0	-9604.0
28	17	38	24	676	187.0	-212008.0	3057.0	-8496.0
28	17	38	24	676	189.0	-216111.0	3143.0	-9297.0
28	17	38	24	677	190.0	-218868.0	3174.0	-11017.0
28	17	38	24	677	191.0	-221510.0	3223.0	-13061.0
28	17	38	24	678	192.0	-223782.0	3280.0	-14440.0
28	17	38	24	679	193.0	-226054.0	3334.0	-14842.0
28	17	38	24	679	194.0	-227712.0	3377.0	-14626.0
28	17	38	24	680	195.0	-228869.0	3423.0	-13837.0
28	17	38	24	680	196.0	-229229.0	3469.0	-12081.0
28	17	38	24	691	197.0	-228972.0	3517.0	-10607.0
28	17	38	24	691	198.0	-228440.0	3558.0	-10307.0
28	17	38	24	692	199.0	-227824.0	3611.0	-11444.0
28	17	38	24	693	200.0	-226706.0	3638.0	-13337.0
28	17	38	24	693	201.0	-225489.0	3658.0	-15212.0
28	17	38	24	694	202.0	-224281.0	3693.0	-16256.0
28	17	38	24	695	203.0	-222109.0	3713.0	-16728.0
28	17	38	24	695	204.0	-218996.0	3750.0	-16561.0
28	17	38	24	696	205.0	-215453.0	3799.0	-15409.0
28	17	38	24	714	206.0	-211372.0	3816.0	-13268.0
28	17	38	24	715	207.0	-207357.0	3835.0	-11912.0
28	17	38	24	716	208.0	-203916.0	3851.0	-11762.0
28	17	38	24	716	209.0	-200542.0	3871.0	-12718.0
28	17	38	24	717	210.0	-197611.0	3879.0	-14430.0
28	17	38	24	717	211.0	-195551.0	3902.0	-16532.0
28	17	38	24	718	212.0	-193940.0	3911.0	-17849.0
28	17	38	24	737	213.0	-192654.0	3928.0	-18229.0
28	17	38	24	737	214.0	-192129.0	3958.0	-17954.0
28	17	38	24	738	215.0	-191452.0	3973.0	-16899.0
28	17	38	24	739	216.0	-190918.0	3994.0	-14877.0
28	17	38	24	739	217.0	-190961.0	4014.0	-13369.0
28	17	38	24	740	218.0	-190373.0	4018.0	-13214.0
28	17	38	24	740	219.0	-189771.0	4040.0	-14278.0
28	17	38	24	741	220.0	-189574.0	4051.0	-16087.0
28	17	38	24	742	221.0	-189420.0	4065.0	-18095.0
28	17	38	24	742	222.0	-189894.0	4076.0	-19421.0
28	17	38	24	743	223.0	-190894.0	4095.0	-19783.0
28	17	38	24	743	224.0	-192104.0	4106.0	-19398.0
28	17	38	24	744	225.0	-193625.0	4113.0	-18327.0
28	17	38	24	744	226.0	-195771.0	4109.0	-16307.0
28	17	38	24	745	227.0	-198277.0	4115.0	-14727.0
28	17	38	24	766	228.0	-200847.0	4137.0	-14350.0
28	17	38	24	767	229.0	-203099.0	4154.0	-15414.0
28	17	38	24	768	230.0	-205452.0	4178.0	-17421.0
28	17	38	24	768	231.0	-207681.0	4178.0	-19487.0
28	17	38	24	769	232.0	-209121.0	4183.0	-20519.0
28	17	38	24	769	233.0	-210226.0	4213.0	-20902.0
28	17	38	24	770	234.0	-211449.0	4209.0	-20743.0
28	17	38	24	771	235.0	-212309.0	4219.0	-19606.0
28	17	38	24	771	236.0	-212757.0	4235.0	-17331.0
28	17	38	24	772	237.0	-212892.0	4242.0	-15808.0
28	17	38	24	773	238.0	-213054.0	4249.0	-15728.0
28	17	38	24	773	239.0	-213219.0	4261.0	-16844.0
28	17	38	24	774	240.0	-213147.0	4274.0	-18607.0
28	17	38	24	775	241.0	-213034.0	4256.0	-20785.0
28	17	38	24	775	242.0	-213123.0	4276.0	-22283.0
28	17	38	24	776	243.0	-212808.0	4285.0	-22712.0
28	17	38	24	776	244.0	-212379.0	4303.0	-22226.0
28	17	38	24	777	245.0	-211769.0	4328.0	-21074.0
28	17	38	24	785	246.0	-210912.0	4326.0	-19015.0
28	17	38	24	786	247.0	-210145.0	4324.0	-17384.0
28	17	38	24	786	248.0	-209134.0	4332.0	-16973.0
28	17	38	24	807	249.0	-207786.0	4335.0	-18049.0
28	17	38	24	808	250.0	-206461.0	4342.0	-20219.0
28	17	38	24	809	251.0	-205667.0	4361.0	-22429.0
28	17	38	24	809	252.0	-204614.0	4374.0	-23699.0
28	17	38	24	810	253.0	-203326.0	4368.0	-24152.0
28	17	38	24	811	254.0	-202297.0	4370.0	-23946.0
28	17	38	24	811	255.0	-201447.0	4381.0	-22750.0
28	17	38	24	812	0.0	-200624.0	4389.0	-20456.0
28	17	38	24	812	1.0	-200245.0	4394.0	-18847.0
28	17	38	24	813	2.0	-199609.0	4404.0	-18693.0
28	17	38	24	814	3.0	-198458.0	4404.0	-19939.0
28	17	38	24	814	4.0	-197330.0	4410.0	-22106.0
28	17	38	24	815	5.0	-196399.0	4408.0	-24444.0
28	17	38	24	815	6.0	-194747.0	4419.0	-25897.0
28	17	38	24	816	7.0	-193044.0	4406.0	-26294.0
28	17	38	24	816	8.0	-191597.0	4389.0	-25998.0
28	17	38	24	831	9.0	-190074.0	4395.0	-24837.0
28	17	38	24	831	10.0	-189296.0	4396.0	-22372.0
28	17	38	24	832	11.0	-189404.0	4384.0	-20637.0
28	17	38	24	832	12.0	-190077.0	4380.0	-20521.0
28	17	38	24	833	13.0	-191342.0	4368.0	-21762.0
28	17	38	24	834	14.0	-193238.0	4344.0	-23854.0
28	17	38	24	834	15.0	-196185.0	4356.0	-26267.0
28	17	38	24	854	16.0	-199582.0	4351.0	-27911.0
28	17	38	24	854	17.0	-202519.0	4338.0	-28380.0
28	17	38	24	855	18.0	-205572.0	4331.0	-27921.0
28	17	38	24	856	19.0	-208734.0	4308.0	-26692.0
28	17	38	24	856	20.0	-212041.0	4294.0	-24511.0
28	17	38	24	857	21.0	-215500.0	4281.0	-22882.0
28	17	38	24	857	22.0	-218236.0	4261.0	-22552.0
28	17	38	24	858	23.0	-220496.0	4231.0	-23922.0
28	17	38	24	859	24.0	-222420.0	4199.0	-26432.0
28	17	38	24	876	25.0	-223444.0	4176.0	-28912.0
28	17	38	24	877	26.0	-223469.0	4173.0	-30022.0
28	17	38	24	878	27.0	-222936.0	4153.0	-30277.0
28	17	38	24	878	28.0	-221708.0	4123.0	-29946.0
28	17	38	24	879	29.0	-220057.0	4108.0	-28453.0
28	17	38	24	880	30.0	-217839.0	4072.0	-25709.0
28	17	38	24	880	31.0	-214951.0	4056.0	-23882.0
28	17	38	24	900	32.0	-211761.0	4039.0	-23726.0
28	17	38	24	900	33.0	-208217.0	4008.0	-24954.0
28	17	38	24	901	34.0	-204150.0	3981.0	-27039.0
28	17	38	24	902	35.0	-199781.0	3973.0	-29592.0
28	17	38	24	902	36.0	-195446.0	3932.0	-31145.0
28	17	38	24	903	37.0	-191293.0	3904.0	-31258.0
28	17	38	24	904	38.0	-187128.0	3884.0	-30564.0
28	17	38	24	904	39.0	-183103.0	3853.0	-29252.0
28	17	38	24	905	40.0	-179341.0	3837.0	-26714.0
28	17	38	24	905	41.0	-176285.0	3818.0	-24732.0
28	17	38	24	906	42.0	-173989.0	3758.0	-24313.0
28	17	38	24	907	43.0	-171980.0	3730.0	-25532.0
28	17	38	24	907	44.0	-170290.0	3720.0	-27817.0
28	17	38	24	908	45.0	-169338.0	3677.0	-30328.0
28	17	38	24	922	46.0	-168657.0	3641.0	-31754.0
28	17	38	24	923	47.0	-168301.0	3623.0	-31972.0
28	17	38	24	924	48.0	-168469.0	3590.0	-31334.0
28	17	38	24	924	49.0	-169236.0	3534.0	-29897.0
28	17	38	24	925	50.0	-170237.0	3496.0	-27256.0
28	17	38	24	926	51.0	-171811.0	3441.0	-25244.0
28	17	38	24	926	52.0	-173970.0	3411.0	-24852.0
28	17	38	24	947	53.0	-176522.0	3388.0	-26189.0
28	17	38	24	948	54.0	-179317.0	3364.0	-28618.0
28	17	38	24	949	55.0	-182176.0	3326.0	-31144.0
28	17	38	24	949	56.0	-184829.0	3277.0	-32597.0
28	17	38	24	950	57.0	-187100.0	3239.0	-33027.0
28	17	38	24	951	58.0	-188956.0	3201.0	-32718.0
28	17	38	24	951	59.0	-190206.0	3169.0	-31184.0
28	17	38	24	952	60.0	-191104.0	3116.0	-28419.0
28	17	38	24	953	61.0	-191292.0	3096.0	-26559.0
28	17	38	24	953	62.0	-191041.0	3061.0	-26384.0
28	17	38	24	954	63.0	-190732.0	3030.0	-27589.0
28	17	38	24	955	64.0	-190264.0	2999.0	-29931.0
28	17	38	24	955	65.0	-189944.0	2965.0	-32705.0
28	17	38	24	956	66.0	-189906.0	2940.0	-34272.0
28	17	38	24	970	67.0	-190041.0	2916.0	-34315.0
28	17	38	24	996	68.0	-190841.0	2884.0	-33594.0
28	17	38	24	996	69.0	-192116.0	2847.0	-32216.0
28	17	38	24	997	70.0	-193641.0	2832.0	-29489.0
28	17	38	24	998	71.0	-195363.0	2790.0	-27511.0
28	17	38	24	998	72.0	-197509.0	2747.0	-27527.0
28	17	38	24	999	73.0	-200469.0	2743.0	-29519.0
28	17	38	25	0	74.0	-203666.0	2699.0	-32467.0
28	17	38	25	0	75.0	-206803.0	2679.0	-35588.0
28	17	38	25	1	76.0	-210229.0	2661.0	-37846.0
28	17	38	25	1	77.0	-213421.0	2642.0	-39137.0
28	17	38	25	2	78.0	-216065.0	2624.0	-39376.0
28	17	38	25	3	79.0	-217895.0	2609.0	-38286.0
28	17	38	25	3	80.0	-219302.0	2564.0	-36036.0
28	17	38	25	4	81.0	-219962.0	2528.0	-34862.0
28	17	38	25	5	82.0	-219649.0	2498.0	-35331.0
28	17	38	25	6	83.0	-219175.0	2450.0	-37247.0
28	17	38	25	6	90.0	-236738.0	2286.0	-36096.0
28	17	38	25	7	91.0	-240543.0	2261.0	-32323.0
28	17	38	25	8	92.0	-243924.0	2237.0	-29956.0
28	17	38	25	8	93.0	-246992.0	2221.0	-29097.0
28	17	38	25	9	94.0	-250009.0	2191.0	-29596.0
28	17	38	25	9	95.0	-253248.0	2148.0	-30841.0
28	17	38	25	10	97.0	-261294.0	2106.0	-30953.0
28	17	38	25	11	98.0	-264836.0	2107.0	-30327.0
28	17	38	25	11	99.0	-265315.0	2083.0	-29078.0
28	17	38	25	12	100.0	-258584.0	2064.0	-26530.0
28	17	38	25	13	101.0	-237584.0	2038.0	-24786.0
28	17	38	25	13	102.0	-202449.0	2023.0	-25035.0
28	17	38	25	14	103.0	-160252.0	1998.0	-27121.0
28	17	38	25	14	104.0	-121020.0	1983.0	-30120.0
28	17	38	25	15	105.0	-92361.0	1964.0	-33511.0
28	17	38	25	23	106.0	-78479.0	1950.0	-36022.0
28	17	38	25	24	107.0	-82290.0	1963.0	-37112.0
28	17	38	25	24	108.0	-102602.0	1941.0	-37003.0
28	17	38	25	25	109.0	-133391.0	1908.0	-35883.0
28	17	38	25	26	110.0	-171002.0	1869.0	-33495.0
28	17	38	25	26	111.0	-214061.0	1819.0	-31712.0
28	17	38	25	27	112.0	-256265.0	1788.0	-31567.0
28	17	38	25	27	113.0	-290182.0	1762.0	-33487.0
28	17	38	25	46	114.0	-311367.0	1739.0	-36782.0
28	17	38	25	46	115.0	-316518.0	1713.0	-40152.0
28	17	38	25	47	116.0	-305701.0	1674.0	-41988.0
28	17	38	25	48	117.0	-284939.0	1633.0	-42524.0
28	17	38	25	48	118.0	-259244.0	1623.0	-42215.0
28	17	38	25	49	119.0	-232266.0	1599.0	-40541.0
28	17	38	25	50	120.0	-207780.0	1567.0	-37397.0
28	17	38	25	50	121.0	-185617.0	1540.0	-35261.0
28	17	38	25	51	122.0	-166024.0	1521.0	-35182.0
28	17	38	25	52	123.0	-151549.0	1491.0	-36814.0
28	17	38	25	53	124.0	-141789.0	1480.0	-39686.0
28	17	38	25	53	125.0	-136683.0	1431.0	-42960.0
28	17	38	25	54	126.0	-135594.0	1418.0	-44844.0
28	17	38	25	55	127.0	-135391.0	1376.0	-45121.0
28	17	38	25	55	128.0	-133914.0	1333.0	-44431.0
28	17	38	25	68	129.0	-132515.0	1303.0	-42642.0
28	17	38	25	69	130.0	-132512.0	1267.0	-39330.0
28	17	38	25	70	131.0	-134392.0	1224.0	-37001.0
28	17	38	25	70	132.0	-137834.0	1178.0	-36712.0
28	17	38	25	71	133.0	-143404.0	1141.0	-38375.0
28	17	38	25	72	134.0	-151266.0	1121.0	-41514.0
28	17	38	25	72	135.0	-160807.0	1089.0	-44997.0
28	17	38	25	91	136.0	-169961.0	1044.0	-47016.0
28	17	38	25	92	137.0	-178274.0	1005.0	-47247.0
28	17	38	25	93	138.0	-185597.0	975.0	-46507.0
28	17	38	25	94	139.0	-191502.0	938.0	-44819.0
28	17	38	25	94	140.0	-195792.0	919.0	-41588.0
28	17	38	25	95	141.0	-198792.0	895.0	-39204.0
28	17	38	25	96	142.0	-201058.0	838.0	-39045.0
28	17	38	25	97	143.0	-203110.0	794.0	-41004.0
28	17	38	25	97	144.0	-205966.0	748.0	-44107.0
28	17	38	25	98	145.0	-209843.0	730.0	-47377.0
28	17	38	25	99	146.0	-214674.0	708.0	-49461.0
28	17	38	25	99	147.0	-219889.0	654.0	-49966.0
28	17	38	25	100	148.0	-223867.0	628.0	-49037.0
28	17	38	25	100	149.0	-225736.0	572.0	-46841.0
28	17	38	25	114	150.0	-225108.0	523.0	-43390.0
28	17	38	25	115	151.0	-221578.0	484.0	-41028.0
28	17	38	25	115	152.0	-215499.0	444.0	-40642.0
28	17	38	25	116	153.0	-207893.0	420.0	-42290.0
28	17	38	25	117	154.0	-199768.0	360.0	-45523.0
28	17	38	25	117	155.0	-191768.0	293.0	-49033.0
28	17	38	25	118	156.0	-184986.0	247.0	-50854.0
28	17	38	25	137	157.0	-179801.0	194.0	-50991.0
28	17	38	25	138	158.0	-176588.0	151.0	-50338.0
28	17	38	25	139	159.0	-175138.0	119.0	-48432.0
28	17	38	25	139	160.0	-175209.0	91.0	-44834.0
28	17	38	25	140	161.0	-176437.0	58.0	-42297.0
28	17	38	25	141	162.0	-179162.0	18.0	-42122.0
28	17	38	25	141	163.0	-182959.0	-46.0	-44035.0
28	17	38	25	142	164.0	-187405.0	-73.0	-47350.0
28	17	38	25	143	165.0	-192844.0	-116.0	-50952.0
28	17	38	25	143	166.0	-198922.0	-145.0	-53129.0
28	17	38	25	144	167.0	-205282.0	-179.0	-53512.0
28	17	38	25	145	168.0	-211401.0	-217.0	-52777.0
28	17	38	25	145	169.0	-217418.0	-264.0	-50862.0
28	17	38	25	146	170.0	-223105.0	-324.0	-47223.0
28	17	38	25	171	171.0	-227853.0	-360.0	-44599.0
28	17	38	25	172	172.0	-231550.0	-377.0	-44404.0
28	17	38	25	172	173.0	-234441.0	-426.0	-46469.0
28	17	38	25	173	174.0	-236014.0	-444.0	-49938.0
28	17	38	25	174	175.0	-236211.0	-487.0	-53750.0
28	17	38	25	174	176.0	-235324.0	-523.0	-55926.0
28	17	38	25	175	177.0	-232652.0	-580.0	-56136.0
28	17	38	25	176	178.0	-228890.0	-604.0	-55252.0
28	17	38	25	177	179.0	-225009.0	-649.0	-53205.0
28	17	38	25	177	180.0	-220145.0	-677.0	-49332.0
28	17	38	25	178	181.0	-214575.0	-699.0	-46476.0
28	17	38	25	179	182.0	-208573.0	-731.0	-46213.0
28	17	38	25	180	183.0	-202375.0	-758.0	-48425.0
28	17	38	25	180	184.0	-196369.0	-774.0	-51957.0
28	17	38	25	181	185.0	-190956.0	-784.0	-55596.0
28	17	38	25	182	186.0	-185848.0	-791.0	-57691.0
28	17	38	25	182	187.0	-181116.0	-805.0	-58016.0
28	17	38	25	183	188.0	-177532.0	-796.0	-56947.0
28	17	38	25	184	189.0	-174947.0	-792.0	-54424.0
28	17	38	25	184	190.0	-173086.0	-754.0	-50418.0
28	17	38	25	185	191.0	-172554.0	-719.0	-47822.0
28	17	38	25	186	192.0	-173070.0	-702.0	-47684.0
28	17	38	25	203	193.0	-174429.0	-666.0	-49757.0
28	17	38	25	204	194.0	-176352.0	-621.0	-53457.0
28	17	38	25	204	195.0	-178544.0	-566.0	-57282.0
28	17	38	25	205	196.0	-181216.0	-526.0	-59117.0
28	17	38	25	205	197.0	-183568.0	-468.0	-59051.0
28	17	38	25	206	198.0	-185684.0	-419.0	-58007.0
28	17	38	25	206	199.0	-188194.0	-375.0	-55636.0
28	17	38	25	207	200.0	-190753.0	-308.0	-51242.0
28	17	38	25	207	201.0	-192727.0	-233.0	-47951.0
28	17	38	25	208	202.0	-194306.0	-157.0	-47506.0
28	17	38	25	208	203.0	-195599.0	-56.0	-49211.0
28	17	38	25	223	204.0	-196770.0	37.0	-52247.0
28	17	38	25	224	205.0	-197846.0	107.0	-55601.0
28	17	38	25	224	206.0	-198402.0	220.0	-57409.0
28	17	38	25	225	207.0	-198739.0	308.0	-57282.0
28	17	38	25	225	208.0	-199461.0	410.0	-55876.0
28	17	38	25	226	209.0	-199824.0	504.0	-53246.0
28	17	38	25	227	210.0	-199542.0	622.0	-48913.0
28	17	38	25	247	211.0	-199592.0	737.0	-45749.0
28	17	38	25	248	212.0	-199384.0	845.0	-45223.0
28	17	38	25	248	213.0	-199077.0	956.0	-47019.0
28	17	38	25	249	214.0	-198968.0	1057.0	-50119.0
28	17	38	25	250	215.0	-198932.0	1148.0	-53600.0
28	17	38	25	250	216.0	-198834.0	1268.0	-55337.0
28	17	38	25	251	217.0	-199169.0	1368.0	-55202.0
28	17	38	25	251	218.0	-199597.0	1476.0	-54010.0
28	17	38	25	252	219.0	-199899.0	1598.0	-51532.0
28	17	38	25	252	220.0	-200289.0	1693.0	-47321.0
28	17	38	25	253	221.0	-200719.0	1795.0	-44108.0
28	17	38	25	253	222.0	-201013.0	1883.0	-43469.0
28	17	38	25	254	223.0	-201414.0	1973.0	-45333.0
28	17	38	25	254	224.0	-201969.0	2070.0	-48454.0
28	17	38	25	255	225.0	-202451.0	2182.0	-51749.0
28	17	38	25	270	226.0	-203153.0	2284.0	-53582.0
28	17	38	25	271	227.0	-203875.0	2386.0	-53704.0
28	17	38	25	272	228.0	-204483.0	2504.0	-52519.0
28	17	38	25	272	229.0	-204996.0	2578.0	-49926.0
28	17	38	25	273	230.0	-205257.0	2654.0	-45949.0
28	17	38	25	273	231.0	-205822.0	2716.0	-43123.0
28	17	38	25	274	232.0	-206629.0	2798.0	-42578.0
28	17	38	25	274	233.0	-207426.0	2889.0	-44279.0
28	17	38	25	295	234.0	-208176.0	2961.0	-47651.0
28	17	38	25	296	235.0	-209119.0	3064.0	-51221.0
28	17	38	25	296	236.0	-209919.0	3149.0	-52854.0
28	17	38	25	297	237.0	-210176.0	3228.0	-52852.0
28	17	38	25	298	238.0	-209807.0	3315.0	-52029.0
28	17	38	25	298	239.0	-208869.0	3383.0	-49846.0
28	17	38	25	299	240.0	-206922.0	3443.0	-45730.0
28	17	38	25	299	241.0	-204066.0	3503.0	-42843.0
28	17	38	25	300	242.0	-199886.0	3564.0	-42571.0
28	17	38	25	300	243.0	-193359.0	3613.0	-44378.0
28	17	38	25	301	244.0	-181242.0	3660.0	-47680.0
28	17	38	25	301	245.0	-157404.0	3721.0	-51389.0
28	17	38	25	302	246.0	-126288.0	3766.0	-53384.0
28	17	38	25	303	247.0	-108595.0	3801.0	-53377.0
28	17	38	25	303	248.0	-114652.0	3861.0	-52154.0
28	17	38	25	319	249.0	-133018.0	3906.0	-49798.0
28	17	38	25	319	250.0	-162749.0	3933.0	-45779.0
28	17	38	25	320	251.0	-193566.0	3979.0	-42949.0
28	17	38	25	321	252.0	-220874.0	4005.0	-42645.0
28	17	38	25	321	253.0	-240647.0	4023.0	-44706.0
28	17	38	25	322	254.0	-250421.0	4048.0	-48102.0
28	17	38	25	323	255.0	-249857.0	4069.0	-51695.0
28	17	38	25	323	0.0	-242226.0	4111.0	-53666.0
28	17	38	25	324	1.0	-233729.0	4154.0	-53757.0
28	17	38	25	324	2.0	-227598.0	4169.0	-52759.0
28	17	38	25	325	3.0	-225251.0	4224.0	-50719.0
28	17	38	25	325	4.0	-226352.0	4227.0	-46599.0
28	17	38	25	326	5.0	-227805.0	4253.0	-43464.0
28	17	38	25	326	6.0	-227047.0	4281.0	-43114.0
28	17	38	25	327	7.0	-222882.0	4282.0	-45286.0
28	17	38	25	344	8.0	-215737.0	4303.0	-48561.0
28	17	38	25	344	9.0	-207306.0	4321.0	-52047.0
28	17	38	25	345	10.0	-198617.0	4326.0	-54120.0
28	17	38	25	346	11.0	-190327.0	4333.0	-54299.0
28	17	38	25	346	12.0	-183257.0	4352.0	-52986.0
28	17	38	25	347	13.0	-177606.0	4364.0	-50614.0
28	17	38	25	347	14.0	-172952.0	4371.0	-46764.0
28	17	38	25	367	15.0	-170003.0	4392.0	-43836.0
28	17	38	25	368	16.0	-167212.0	4394.0	-43299.0
28	17	38	25	368	17.0	-163709.0	4396.0	-45333.0
28	17	38	25	369	18.0	-159324.0	4404.0	-48971.0
28	17	38	25	369	19.0	-154560.0	4373.0	-52587.0
28	17	38	25	370	20.0	-151593.0	4379.0	-54261.0
28	17	38	25	371	21.0	-152233.0	4391.0	-54407.0
28	17	38	25	371	22.0	-156850.0	4394.0	-53462.0
28	17	38	25	372	23.0	-164274.0	4399.0	-51020.0
28	17	38	25	372	24.0	-174337.0	4410.0	-46754.0
28	17	38	25	373	25.0	-185807.0	4397.0	-43836.0
28	17	38	25	390	26.0	-197471.0	4429.0	-43433.0
28	17	38	25	391	27.0	-207962.0	4422.0	-45329.0
28	17	38	25	391	28.0	-216072.0	4431.0	-48896.0
28	17	38	25	392	29.0	-221496.0	4433.0	-52787.0
28	17	38	25	392	30.0	-224178.0	4442.0	-54696.0
28	17	38	25	393	31.0	-224801.0	4442.0	-54704.0
28	17	38	25	393	32.0	-223703.0	4426.0	-53607.0
28	17	38	25	394	33.0	-221633.0	4402.0	-51299.0
28	17	38	25	394	34.0	-219462.0	4385.0	-47161.0
28	17	38	25	395	35.0	-217139.0	4383.0	-44124.0
28	17	38	25	396	36.0	-214611.0	4376.0	-43597.0
28	17	38	25	396	37.0	-212486.0	4346.0	-45456.0
28	17	38	25	397	38.0	-210785.0	4351.0	-48926.0
28	17	38	25	397	39.0	-209035.0	4354.0	-52792.0
28	17	38	25	398	40.0	-207765.0	4339.0	-54754.0
28	17	38	25	398	41.0	-207171.0	4355.0	-54744.0
28	17	38	25	399	42.0	-207059.0	4347.0	-53809.0
28	17	38	25	399	43.0	-207253.0	4329.0	-51646.0
28	17	38	25	413	44.0	-207709.0	4306.0	-47416.0
28	17	38	25	413	45.0	-208017.0	4296.0	-44354.0
28	17	38	25	414	46.0	-208164.0	4289.0	-43937.0
28	17	38	25	414	47.0	-207981.0	4268.0	-45771.0
28	17	38	25	415	48.0	-207255.0	4226.0	-49029.0
28	17	38	25	416	49.0	-206219.0	4211.0	-52868.0
28	17	38	25	416	50.0	-205249.0	4183.0	-55000.0
28	17	38	25	417	51.0	-204504.0	4174.0	-54898.0
28	17	38	25	417	52.0	-203942.0	4151.0	-53558.0
28	17	38	25	436	53.0	-203176.0	4144.0	-51246.0
28	17	38	25	437	54.0	-201966.0	4137.0	-47148.0
28	17	38	25	437	55.0	-200667.0	4109.0	-43963.0
28	17	38	25	438	56.0	-199159.0	4084.0	-43221.0
28	17	38	25	438	57.0	-198219.0	4063.0	-45185.0
28	17	38	25	439	58.0	-197691.0	4034.0	-48749.0
28	17	38	25	439	59.0	-196752.0	3996.0	-52489.0
28	17	38	25	459	60.0	-195819.0	3988.0	-54539.0
28	17	38	25	460	61.0	-194994.0	3964.0	-54843.0
28	17	38	25	460	62.0	-194044.0	3926.0	-53681.0
28	17	38	25	461	63.0	-192800.0	3881.0	-51124.0
28	17	38	25	462	64.0	-191302.0	3866.0	-46826.0
28	17	38	25	462	65.0	-189427.0	3826.0	-43593.0
28	17	38	25	463	66.0	-187806.0	3796.0	-42846.0
28	17	38	25	463	67.0	-186467.0	3786.0	-44611.0
28	17	38	25	483	68.0	-185314.0	3756.0	-48202.0
28	17	38	25	484	69.0	-184838.0	3739.0	-51995.0
28	17	38	25	485	70.0	-185012.0	3728.0	-53963.0
28	17	38	25	485	71.0	-185594.0	3703.0	-54041.0
28	17	38	25	486	72.0	-187516.0	3666.0	-52966.0
28	17	38	25	487	73.0	-190397.0	3636.0	-50519.0
28	17	38	25	487	74.0	-193784.0	3611.0	-46195.0
28	17	38	25	488	75.0	-197647.0	3604.0	-43046.0
28	17	38	25	488	76.0	-202096.0	3581.0	-42567.0
28	17	38	25	489	77.0	-207404.0	3548.0	-44471.0
28	17	38	25	489	78.0	-212921.0	3510.0	-48036.0
28	17	38	25	490	79.0	-218024.0	3507.0	-51952.0
28	17	38	25	490	80.0	-222848.0	3487.0	-53997.0
28	17	38	25	491	81.0	-226886.0	3458.0	-54144.0
28	17	38	25	506	82.0	-229670.0	3430.0	-53261.0
28	17	38	25	507	83.0	-231849.0	3418.0	-50975.0
28	17	38	25	507	84.0	-232842.0	3406.0	-46814.0
28	17	38	25	508	85.0	-232447.0	3387.0	-43839.0
28	17	38	25	508	86.0	-231292.0	3350.0	-43409.0
28	17	38	25	509	87.0	-229122.0	3336.0	-45145.0
28	17	38	25	509	88.0	-225992.0	3289.0	-48612.0
28	17	38	25	529	89.0	-222929.0	3268.0	-52644.0
28	17	38	25	530	90.0	-219652.0	3240.0	-54653.0
28	17	38	25	530	91.0	-216511.0	3227.0	-54618.0
28	17	38	25	531	92.0	-213809.0	3211.0	-53483.0
28	17	38	25	532	93.0	-211539.0	3181.0	-51152.0
28	17	38	25	532	94.0	-210209.0	3144.0	-46754.0
28	17	38	25	533	95.0	-209638.0	3115.0	-43412.0
28	17	38	25	533	96.0	-209347.0	3092.0	-43049.0
28	17	38	25	534	97.0	-209131.0	3064.0	-45118.0
28	17	38	25	534	98.0	-208846.0	3035.0	-48497.0
28	17	38	25	535	99.0	-208188.0	3031.0	-52237.0
28	17	38	25	536	100.0	-207592.0	3006.0	-54447.0
28	17	38	25	536	101.0	-206847.0	2959.0	-54464.0
28	17	38	25	537	102.0	-205888.0	2948.0	-53068.0
28	17	38	25	552	103.0	-205622.0	2914.0	-50777.0
28	17	38	25	552	104.0	-205511.0	2871.0	-46626.0
28	17	38	25	553	105.0	-205432.0	2842.0	-43237.0
28	17	38	25	553	106.0	-205406.0	2812.0	-42519.0
28	17	38	25	554	107.0	-204041.0	2774.0	-44529.0
28	17	38	25	554	108.0	-202512.0	2718.0	-48065.0
28	17	38	25	555	109.0	-201129.0	2688.0	-51827.0
28	17	38	25	575	110.0	-199182.0	2642.0	-53892.0
28	17	38	25	575	111.0	-197574.0	2594.0	-54144.0
28	17	38	25	576	112.0	-196117.0	2571.0	-53043.0
28	17	38	25	577	113.0	-193965.0	2541.0	-50607.0
28	17	38	25	577	114.0	-191670.0	2505.0	-46285.0
28	17	38	25	578	115.0	-189240.0	2471.0	-42991.0
28	17	38	25	578	116.0	-187036.0	2416.0	-42324.0
28	17	38	25	579	117.0	-184944.0	2377.0	-44216.0
28	17	38	25	579	118.0	-183069.0	2336.0	-47805.0
28	17	38	25	580	119.0	-181602.0	2284.0	-51884.0
28	17	38	25	581	120.0	-180616.0	2246.0	-54287.0
28	17	38	25	581	121.0	-180194.0	2221.0	-54706.0
28	17	38	25	582	122.0	-180157.0	2165.0	-53544.0
28	17	38	25	582	123.0	-180661.0	2114.0	-51155.0
28	17	38	25	597	124.0	-181646.0	2064.0	-47049.0
28	17	38	25	598	125.0	-183246.0	2026.0	-43867.0
28	17	38	25	598	126.0	-184864.0	1990.0	-43216.0
28	17	38	25	599	127.0	-186354.0	1961.0	-45320.0
28	17	38	25	600	128.0	-188391.0	1921.0	-49169.0
28	17	38	25	600	129.0	-190679.0	1906.0	-53044.0
28	17	38	25	601	130.0	-193925.0	1852.0	-55132.0
28	17	38	25	621	131.0	-196836.0	1788.0	-55435.0
28	17	38	25	621	132.0	-199660.0	1738.0	-54441.0
28	17	38	25	622	134.0	-206013.0	1631.0	-47732.0
28	17	38	25	623	135.0	-208741.0	1581.0	-44710.0
28	17	38	25	623	136.0	-211365.0	1559.0	-44364.0
28	17	38	25	624	137.0	-213074.0	1529.0	-46362.0
28	17	38	25	624	138.0	-214225.0	1466.0	-50201.0
28	17	38	25	625	139.0	-215104.0	1401.0	-54583.0
28	17	38	25	625	140.0	-215052.0	1346.0	-56918.0
28	17	38	25	626	141.0	-214425.0	1311.0	-56945.0
28	17	38	25	627	142.0	-213312.0	1268.0	-55840.0
28	17	38	25	627	143.0	-212106.0	1218.0	-53496.0
28	17	38	25	628	144.0	-210852.0	1163.0	-48789.0
28	17	38	25	628	145.0	-209716.0	1104.0	-45179.0
28	17	38	25	643	146.0	-209156.0	1054.0	-44646.0
28	17	38	25	644	147.0	-207979.0	982.0	-46761.0
28	17	38	25	645	148.0	-207463.0	928.0	-50477.0
28	17	38	25	645	149.0	-206992.0	880.0	-54611.0
28	17	38	25	646	150.0	-206067.0	819.0	-57085.0
28	17	38	25	646	151.0	-205012.0	779.0	-57344.0
28	17	38	25	647	152.0	-204311.0	725.0	-56262.0
28	17	38	25	666	153.0	-204014.0	664.0	-53802.0
28	17	38	25	667	154.0	-202952.0	594.0	-49347.0
28	17	38	25	668	156.0	-202572.0	449.0	-45256.0
28	17	38	25	668	157.0	-202414.0	399.0	-47215.0
28	17	38	25	669	158.0	-202306.0	356.0	-50890.0
28	17	38	25	669	159.0	-202491.0	309.0	-55116.0
28	17	38	25	670	160.0	-201824.0	237.0	-57445.0
28	17	38	25	670	161.0	-200537.0	168.0	-57440.0
28	17	38	25	671	162.0	-199808.0	124.0	-56112.0
28	17	38	25	671	163.0	-198714.0	58.0	-53637.0
28	17	38	25	689	164.0	-197039.0	3.0	-48989.0
28	17	38	25	690	165.0	-195877.0	-54.0	-45308.0
28	17	38	25	690	166.0	-195024.0	-107.0	-44642.0
28	17	38	25	691	167.0	-194405.0	-154.0	-46702.0
28	17	38	25	691	168.0	-194441.0	-229.0	-50259.0
28	17	38	25	692	169.0	-194476.0	-289.0	-54225.0
28	17	38	25	693	171.0	-194339.0	-388.0	-57088.0
28	17	38	25	693	172.0	-194422.0	-433.0	-55471.0
28	17	38	25	694	173.0	-194717.0	-482.0	-52709.0
28	17	38	25	694	174.0	-194968.0	-531.0	-48219.0
28	17	38	25	695	175.0	-194187.0	-590.0	-44513.0
28	17	38	25	695	176.0	-192744.0	-627.0	-43494.0
28	17	38	25	696	177.0	-191414.0	-679.0	-45567.0
28	17	38	25	697	178.0	-189636.0	-736.0	-49461.0
28	17	38	25	697	179.0	-187657.0	-787.0	-53384.0
28	17	38	25	698	180.0	-186177.0	-831.0	-55467.0
28	17	38	25	698	186.0	-184817.0	-1134.0	-43119.0
28	17	38	25	699	187.0	-185618.0	-1167.0	-45134.0
28	17	38	25	699	188.0	-186788.0	-1197.0	-48954.0
28	17	38	25	711	189.0	-188081.0	-1226.0	-53215.0
28	17	38	25	712	190.0	-190322.0	-1278.0	-55676.0
28	17	38	25	713	191.0	-192574.0	-1304.0	-55928.0
28	17	38	25	714	192.0	-193908.0	-1360.0	-54771.0
28	17	38	25	715	193.0	-195226.0	-1436.0	-52229.0
28	17	38	25	715	194.0	-196551.0	-1484.0	-47599.0
28	17	38	25	716	195.0	-198342.0	-1530.0	-43944.0
28	17	38	25	716	196.0	-200473.0	-1569.0	-43112.0
28	17	38	25	717	197.0	-202356.0	-1629.0	-45072.0
28	17	38	25	718	198.0	-203959.0	-1692.0	-48928.0
28	17	38	25	718	199.0	-205156.0	-1719.0	-53177.0
28	17	38	25	719	200.0	-206291.0	-1753.0	-55865.0
28	17	38	25	719	201.0	-207521.0	-1799.0	-56837.0
28	17	38	25	720	202.0	-208421.0	-1842.0	-56514.0
28	17	38	25	721	203.0	-208915.0	-1887.0	-54591.0
28	17	38	25	721	204.0	-209341.0	-1923.0	-50495.0
28	17	38	25	734	205.0	-208854.0	-1954.0	-47870.0
28	17	38	25	735	206.0	-208506.0	-2001.0	-48522.0
28	17	38	25	735	207.0	-207331.0	-2049.0	-51783.0
28	17	38	25	736	208.0	-205189.0	-2096.0	-56969.0
28	17	38	25	757	209.0	-202460.0	-2161.0	-62956.0
28	17	38	25	758	210.0	-200291.0	-2213.0	-66783.0
28	17	38	25	758	211.0	-197767.0	-2264.0	-67232.0
28	17	38	25	759	212.0	-195207.0	-2321.0	-65722.0
28	17	38	25	759	213.0	-194431.0	-2384.0	-62417.0
28	17	38	25	760	214.0	-194741.0	-2434.0	-56632.0
28	17	38	25	761	215.0	-195682.0	-2485.0	-52161.0
28	17	38	25	761	216.0	-197854.0	-2532.0	-50739.0
28	17	38	25	762	217.0	-200918.0	-2589.0	-51487.0
28	17	38	25	762	218.0	-204406.0	-2626.0	-53282.0
28	17	38	25	763	219.0	-208474.0	-2669.0	-55164.0
28	17	38	25	764	220.0	-212619.0	-2714.0	-54952.0
28	17	38	25	764	221.0	-217062.0	-2772.0	-52007.0
28	17	38	25	765	222.0	-221404.0	-2836.0	-47743.0
28	17	38	25	765	223.0	-225179.0	-2902.0	-43202.0
28	17	38	25	766	224.0	-229364.0	-2957.0	-37664.0
28	17	38	25	766	225.0	-234504.0	-3011.0	-33259.0
28	17	38	25	779	226.0	-239271.0	-3049.0	-32042.0
28	17	38	25	780	227.0	-242319.0	-3064.0	-34333.0
28	17	38	25	780	228.0	-241591.0	-3110.0	-38231.0
28	17	38	25	781	229.0	-228719.0	-3156.0	-42297.0
28	17	38	25	781	230.0	-203154.0	-3232.0	-45126.0
28	17	38	25	782	231.0	-169549.0	-3317.0	-46506.0
28	17	38	25	803	232.0	-135069.0	-3367.0	-46561.0
28	17	38	25	804	233.0	-107664.0	-3429.0	-45325.0
28	17	38	25	804	234.0	-91225.0	-3465.0	-41969.0
28	17	38	25	805	235.0	-89494.0	-3520.0	-39243.0
28	17	38	25	805	236.0	-103355.0	-3599.0	-39294.0
28	17	38	25	806	237.0	-129407.0	-3671.0	-42086.0
28	17	38	25	807	238.0	-161969.0	-3726.0	-46497.0
28	17	38	25	807	239.0	-198391.0	-3806.0	-51397.0
28	17	38	25	808	240.0	-233822.0	-3865.0	-54678.0
28	17	38	25	808	241.0	-261270.0	-3926.0	-55477.0
28	17	38	25	809	242.0	-278581.0	-3967.0	-54559.0
28	17	38	25	810	243.0	-285957.0	-4044.0	-52367.0
28	17	38	25	810	244.0	-284208.0	-4099.0	-48011.0
28	17	38	25	811	245.0	-273612.0	-4141.0	-44486.0
28	17	38	25	811	246.0	-255992.0	-4194.0	-43915.0
28	17	38	25	812	247.0	-235618.0	-4232.0	-46414.0
28	17	38	25	813	248.0	-215064.0	-4275.0	-50689.0
28	17	38	25	813	249.0	-196975.0	-4321.0	-55061.0
28	17	38	25	814	250.0	-186027.0	-4364.0	-57581.0
28	17	38	25	826	251.0	-181809.0	-4396.0	-58079.0
28	17	38	25	826	252.0	-181553.0	-4419.0	-56962.0
28	17	38	25	848	253.0	-184251.0	-4474.0	-54169.0
28	17	38	25	849	254.0	-186304.0	-4507.0	-49407.0
28	17	38	25	850	255.0	-187389.0	-4542.0	-45791.0
28	17	38	25	850	0.0	-188414.0	-4589.0	-45110.0
28	17	38	25	851	1.0	-187886.0	-4651.0	-47381.0
28	17	38	25	851	2.0	-187449.0	-4700.0	-51690.0
28	17	38	25	852	3.0	-188543.0	-4751.0	-56277.0
28	17	38	25	852	4.0	-191841.0	-4814.0	-58717.0
28	17	38	25	853	5.0	-197023.0	-4841.0	-58934.0
28	17	38	25	854	6.0	-203158.0	-4883.0	-57937.0
28	17	38	25	854	7.0	-209028.0	-4939.0	-55402.0
28	17	38	25	855	8.0	-213947.0	-4977.0	-50344.0
28	17	38	25	855	9.0	-216877.0	-5020.0	-46589.0
28	17	38	25	856	10.0	-218611.0	-5087.0	-46036.0
28	17	38	25	856	11.0	-220018.0	-5142.0	-48340.0
28	17	38	25	857	12.0	-220709.0	-5190.0	-52622.0
28	17	38	25	872	13.0	-220955.0	-5248.0	-57412.0
28	17	38	25	894	14.0	-221516.0	-5284.0	-60039.0
28	17	38	25	895	15.0	-222333.0	-5336.0	-60161.0
28	17	38	25	895	16.0	-222749.0	-5406.0	-58713.0
28	17	38	25	896	17.0	-223336.0	-5465.0	-56116.0
28	17	38	25	897	18.0	-224054.0	-5523.0	-51263.0
28	17	38	25	897	19.0	-222426.0	-5576.0	-47469.0
28	17	38	25	898	20.0	-220033.0	-5616.0	-46905.0
28	17	38	25	899	21.0	-216140.0	-5668.0	-49331.0
28	17	38	25	899	22.0	-210437.0	-5729.0	-53691.0
28	17	38	25	900	23.0	-203599.0	-5780.0	-58466.0
28	17	38	25	900	24.0	-195962.0	-5839.0	-60966.0
28	17	38	25	901	25.0	-188920.0	-5884.0	-61186.0
28	17	38	25	902	26.0	-181617.0	-5943.0	-59933.0
28	17	38	25	902	27.0	-174872.0	-5974.0	-57267.0
28	17	38	25	903	28.0	-169786.0	-6027.0	-52152.0
28	17	38	25	903	29.0	-166115.0	-6086.0	-48273.0
28	17	38	25	904	30.0	-163649.0	-6132.0	-47853.0
28	17	38	25	904	31.0	-161547.0	-6189.0	-50318.0
28	17	38	25	905	32.0	-160807.0	-6253.0	-54721.0
28	17	38	25	906	33.0	-160441.0	-6324.0	-59692.0
28	17	38	25	906	34.0	-161938.0	-6379.0	-62572.0
28	17	38	25	907	35.0	-165002.0	-6433.0	-62672.0
28	17	38	25	907	36.0	-169059.0	-6487.0	-61244.0
28	17	38	25	908	37.0	-173849.0	-6549.0	-58653.0
28	17	38	25	909	38.0	-179845.0	-6600.0	-53714.0
28	17	38	25	909	39.0	-186464.0	-6634.0	-49666.0
28	17	38	25	910	40.0	-193289.0	-6695.0	-49180.0
28	17	38	25	911	41.0	-200839.0	-6751.0	-51844.0
28	17	38	25	921	42.0	-208727.0	-6818.0	-56290.0
28	17	38	25	922	43.0	-215472.0	-6871.0	-61148.0
28	17	38	25	923	44.0	-221869.0	-6918.0	-64020.0
28	17	38	25	923	45.0	-227454.0	-7004.0	-64337.0
28	17	38	25	924	46.0	-230997.0	-7071.0	-63038.0
28	17	38	25	924	47.0	-233222.0	-7115.0	-60390.0
28	17	38	25	925	48.0	-234630.0	-7164.0	-55359.0
28	17	38	25	926	49.0	-234926.0	-7224.0	-51229.0
28	17	38	25	926	50.0	-234632.0	-7284.0	-50416.0
28	17	38	25	927	51.0	-232991.0	-7317.0	-52890.0
28	17	38	25	941	52.0	-230198.0	-7339.0	-57322.0
28	17	38	25	942	53.0	-226628.0	-7366.0	-62013.0
28	17	38	25	942	54.0	-222404.0	-7406.0	-64657.0
28	17	38	25	943	55.0	-217961.0	-7458.0	-64811.0
28	17	38	25	944	56.0	-213409.0	-7506.0	-63304.0
28	17	38	25	944	57.0	-208802.0	-7521.0	-60454.0
28	17	38	25	971	58.0	-204064.0	-7554.0	-55275.0
28	17	38	25	972	59.0	-199187.0	-7577.0	-50930.0
28	17	38	25	972	60.0	-195977.0	-7587.0	-50006.0
28	17	38	25	973	61.0	-193038.0	-7602.0	-52396.0
28	17	38	25	973	62.0	-190579.0	-7604.0	-56693.0
28	17	38	25	974	63.0	-188180.0	-7622.0	-61286.0
28	17	38	25	974	64.0	-186249.0	-7611.0	-63956.0
28	17	38	25	975	65.0	-184752.0	-7594.0	-64044.0
28	17	38	25	975	66.0	-183664.0	-7552.0	-62191.0
28	17	38	25	986	67.0	-183220.0	-7507.0	-59055.0
28	17	38	25	987	68.0	-182575.0	-7469.0	-53822.0
28	17	38	25	988	69.0	-182370.0	-7456.0	-49504.0
28	17	38	25	988	70.0	-182840.0	-7409.0	-48528.0
28	17	38	26	10	71.0	-183203.0	-7363.0	-51011.0
28	17	38	26	12	72.0	-183464.0	-7304.0	-55402.0
28	17	38	26	14	73.0	-184178.0	-7251.0	-59823.0
28	17	38	26	16	74.0	-184914.0	-7196.0	-62150.0
28	17	38	26	18	75.0	-185621.0	-7146.0	-62261.0
28	17	38	26	20	76.0	-186946.0	-7072.0	-60532.0
28	17	38	26	22	77.0	-188077.0	-6994.0	-57227.0
28	17	38	26	25	78.0	-189395.0	-6922.0	-51861.0
28	17	38	26	27	79.0	-190448.0	-6835.0	-47752.0
28	17	38	26	29	80.0	-191151.0	-6769.0	-46630.0
28	17	38	26	31	81.0	-191507.0	-6664.0	-48473.0
28	17	38	26	31	82.0	-191337.0	-6539.0	-52511.0
28	17	38	26	32	83.0	-190919.0	-6470.0	-57014.0
28	17	38	26	33	84.0	-190380.0	-6360.0	-59173.0
28	17	38	26	33	85.0	-189416.0	-6234.0	-58892.0
28	17	38	26	34	86.0	-188337.0	-6131.0	-57530.0
28	17	38	26	34	87.0	-187042.0	-6021.0	-54621.0
28	17	38	26	35	88.0	-185184.0	-5910.0	-49244.0
28	17	38	26	36	89.0	-183502.0	-5803.0	-44852.0
28	17	38	26	36	90.0	-182044.0	-5679.0	-43787.0
28	17	38	26	37	91.0	-181395.0	-5531.0	-45759.0
28	17	38	26	37	92.0	-180926.0	-5397.0	-49564.0
28	17	38	26	38	93.0	-181103.0	-5274.0	-53924.0
28	17	38	26	38	94.0	-181362.0	-5147.0	-56226.0
28	17	38	26	39	95.0	-181886.0	-5032.0	-56194.0
28	17	38	26	40	96.0	-182764.0	-4909.0	-54687.0
28	17	38	26	40	97.0	-183712.0	-4786.0	-51665.0
28	17	38	26	41	98.0	-185451.0	-4679.0	-46461.0
28	17	38	26	42	99.0	-187266.0	-4568.0	-42217.0
28	17	38	26	42	100.0	-189596.0	-4454.0	-41103.0
28	17	38	26	43	101.0	-192277.0	-4341.0	-43011.0
28	17	38	26	43	102.0	-195331.0	-4221.0	-47033.0
28	17	38	26	44	103.0	-198567.0	-4119.0	-51514.0
28	17	38	26	45	104.0	-201427.0	-4002.0	-53841.0
28	17	38	26	45	105.0	-204181.0	-3882.0	-53848.0
28	17	38	26	46	106.0	-206639.0	-3769.0	-52701.0
28	17	38	26	46	107.0	-208761.0	-3677.0	-50153.0
28	17	38	26	47	108.0	-210149.0	-3559.0	-45062.0
28	17	38	26	47	109.0	-211219.0	-3448.0	-40857.0
28	17	38	26	48	110.0	-212529.0	-3327.0	-39926.0
28	17	38	26	56	111.0	-213070.0	-3245.0	-41781.0
28	17	38	26	57	112.0	-213128.0	-3149.0	-45559.0
28	17	38	26	58	113.0	-212657.0	-3054.0	-50114.0
28	17	38	26	58	114.0	-210496.0	-2946.0	-52872.0
28	17	38	26	59	115.0	-206841.0	-2843.0	-53153.0
28	17	38	26	60	116.0	-200652.0	-2771.0	-51842.0
28	17	38	26	60	117.0	-187251.0	-2690.0	-49361.0
28	17	38	26	61	118.0	-166442.0	-2608.0	-44446.0
28	17	38	26	86	119.0	-148656.0	-2514.0	-40098.0
28	17	38	26	86	120.0	-144855.0	-2424.0	-39149.0
28	17	38	26	87	121.0	-153061.0	-2332.0	-41266.0
28	17	38	26	88	122.0	-171034.0	-2272.0	-45102.0
28	17	38	26	88	123.0	-194897.0	-2214.0	-49469.0
28	17	38	26	89	124.0	-216517.0	-2136.0	-52207.0
28	17	38	26	101	125.0	-231660.0	-2033.0	-52448.0
28	17	38	26	101	126.0	-238466.0	-1964.0	-51026.0
28	17	38	26	102	127.0	-238454.0	-1921.0	-48524.0
28	17	38	26	103	128.0	-233563.0	-1845.0	-43914.0
28	17	38	26	103	129.0	-226092.0	-1784.0	-39826.0
28	17	38	26	104	130.0	-220277.0	-1723.0	-38766.0
28	17	38	26	104	131.0	-215972.0	-1654.0	-40937.0
28	17	38	26	123	132.0	-211447.0	-1600.0	-45093.0
28	17	38	26	123	133.0	-206979.0	-1523.0	-49588.0
28	17	38	26	124	134.0	-201430.0	-1476.0	-52211.0
28	17	38	26	124	135.0	-194860.0	-1409.0	-52497.0
28	17	38	26	125	136.0	-188993.0	-1356.0	-51235.0
28	17	38	26	126	137.0	-184640.0	-1315.0	-48759.0
28	17	38	26	126	138.0	-181835.0	-1259.0	-43971.0
28	17	38	26	145	139.0	-180075.0	-1206.0	-39809.0
28	17	38	26	145	140.0	-178962.0	-1187.0	-38850.0
28	17	38	26	146	141.0	-178189.0	-1156.0	-40973.0
28	17	38	26	147	142.0	-176900.0	-1127.0	-45029.0
28	17	38	26	147	143.0	-174790.0	-1069.0	-49541.0
28	17	38	26	148	144.0	-170353.0	-1027.0	-52173.0
28	17	38	26	148	145.0	-164079.0	-985.0	-52414.0
28	17	38	26	149	146.0	-157361.0	-959.0	-50961.0
28	17	38	26	150	147.0	-149846.0	-921.0	-48429.0
28	17	38	26	150	148.0	-143179.0	-855.0	-43769.0
28	17	38	26	151	149.0	-139472.0	-820.0	-39512.0
28	17	38	26	151	150.0	-140511.0	-783.0	-38272.0
28	17	38	26	152	151.0	-145782.0	-755.0	-40456.0
28	17	38	26	152	152.0	-154609.0	-722.0	-44645.0
28	17	38	26	168	153.0	-165185.0	-673.0	-49059.0
28	17	38	26	169	154.0	-176285.0	-646.0	-51591.0
28	17	38	26	169	155.0	-186556.0	-624.0	-52060.0
28	17	38	26	170	156.0	-195031.0	-583.0	-50881.0
28	17	38	26	170	157.0	-201183.0	-531.0	-48213.0
28	17	38	26	171	158.0	-205638.0	-500.0	-43473.0
28	17	38	26	172	159.0	-208663.0	-474.0	-39459.0
28	17	38	26	191	160.0	-210299.0	-436.0	-38301.0
28	17	38	26	192	161.0	-211576.0	-405.0	-40179.0
28	17	38	26	192	162.0	-211932.0	-393.0	-44446.0
28	17	38	26	193	163.0	-211926.0	-359.0	-49080.0
28	17	38	26	193	164.0	-211809.0	-312.0	-51562.0
28	17	38	26	194	165.0	-211262.0	-292.0	-51754.0
28	17	38	26	195	166.0	-210969.0	-268.0	-50744.0
28	17	38	26	196	167.0	-211338.0	-257.0	-48254.0
28	17	38	26	196	168.0	-211971.0	-253.0	-43256.0
28	17	38	26	197	169.0	-213013.0	-247.0	-39179.0
28	17	38	26	197	170.0	-214611.0	-232.0	-38237.0
28	17	38	26	198	171.0	-216423.0	-236.0	-40282.0
28	17	38	26	198	172.0	-218638.0	-199.0	-44292.0
28	17	38	26	199	173.0	-220702.0	-183.0	-48824.0
28	17	38	26	222	174.0	-222454.0	-206.0	-51417.0
28	17	38	26	222	175.0	-223641.0	-207.0	-51597.0
28	17	38	26	223	177.0	-224907.0	-209.0	-47671.0
28	17	38	26	224	178.0	-224031.0	-197.0	-43004.0
28	17	38	26	224	179.0	-223266.0	-178.0	-38979.0
28	17	38	26	225	180.0	-222811.0	-199.0	-37839.0
28	17	38	26	226	181.0	-221701.0	-202.0	-39757.0
28	17	38	26	226	182.0	-220073.0	-199.0	-43975.0
28	17	38	26	227	183.0	-217747.0	-196.0	-48587.0
28	17	38	26	227	184.0	-214689.0	-195.0	-50954.0
28	17	38	26	228	185.0	-210702.0	-204.0	-51218.0
28	17	38	26	228	186.0	-206679.0	-197.0	-50192.0
28	17	38	26	229	187.0	-203073.0	-196.0	-47519.0
28	17	38	26	230	188.0	-199761.0	-176.0	-42519.0
28	17	38	26	231	189.0	-197449.0	-166.0	-38345.0
28	17	38	26	231	190.0	-195930.0	-176.0	-37261.0
28	17	38	26	232	199.0	-197431.0	-166.0	-37298.0
28	17	38	26	232	200.0	-198442.0	-177.0	-36496.0
28	17	38	26	233	201.0	-199322.0	-186.0	-38379.0
28	17	38	26	241	202.0	-200197.0	-173.0	-42128.0
28	17	38	26	241	203.0	-201386.0	-151.0	-46690.0
28	17	38	26	242	204.0	-202626.0	-146.0	-49416.0
28	17	38	26	242	205.0	-203819.0	-139.0	-49500.0
28	17	38	26	243	206.0	-205036.0	-122.0	-48028.0
28	17	38	26	243	207.0	-206271.0	-122.0	-45554.0
28	17	38	26	264	208.0	-207807.0	-114.0	-40791.0
28	17	38	26	265	209.0	-208977.0	-118.0	-36614.0
28	17	38	26	265	210.0	-210094.0	-110.0	-35598.0
28	17	38	26	266	211.0	-210989.0	-122.0	-37768.0
28	17	38	26	266	212.0	-211437.0	-142.0	-41862.0
28	17	38	26	267	213.0	-211354.0	-152.0	-46494.0
28	17	38	26	268	214.0	-210408.0	-144.0	-49160.0
28	17	38	26	268	215.0	-209395.0	-141.0	-49266.0
28	17	38	26	269	216.0	-207696.0	-147.0	-47977.0
28	17	38	26	269	217.0	-205857.0	-139.0	-45507.0
28	17	38	26	270	218.0	-204226.0	-137.0	-40761.0
28	17	38	26	270	219.0	-202470.0	-123.0	-36589.0
28	17	38	26	271	220.0	-201051.0	-116.0	-35644.0
28	17	38	26	272	221.0	-199808.0	-100.0	-37608.0
28	17	38	26	272	222.0	-199327.0	-107.0	-41455.0
28	17	38	26	287	223.0	-198634.0	-110.0	-46068.0
28	17	38	26	287	224.0	-197959.0	-99.0	-48728.0
28	17	38	26	288	225.0	-197696.0	-81.0	-48781.0
28	17	38	26	288	226.0	-197854.0	-112.0	-47592.0
28	17	38	26	289	227.0	-198912.0	-103.0	-45266.0
28	17	38	26	289	228.0	-199801.0	-118.0	-40447.0
28	17	38	26	290	229.0	-200690.0	-127.0	-35977.0
28	17	38	26	309	230.0	-201668.0	-127.0	-34850.0
28	17	38	26	310	231.0	-202465.0	-139.0	-36959.0
28	17	38	26	310	232.0	-203077.0	-146.0	-40847.0
28	17	38	26	311	233.0	-203457.0	-132.0	-45172.0
28	17	38	26	311	234.0	-203445.0	-134.0	-47861.0
28	17	38	26	312	235.0	-203357.0	-162.0	-48129.0
28	17	38	26	313	236.0	-203086.0	-165.0	-46571.0
28	17	38	26	313	237.0	-202702.0	-181.0	-44019.0
28	17	38	26	314	238.0	-202061.0	-196.0	-39411.0
28	17	38	26	314	239.0	-201065.0	-201.0	-35050.0
28	17	38	26	315	240.0	-200479.0	-199.0	-33657.0
28	17	38	26	315	241.0	-200388.0	-203.0	-35619.0
28	17	38	26	316	242.0	-200766.0	-228.0	-39659.0
28	17	38	26	317	243.0	-201182.0	-242.0	-44163.0
28	17	38	26	334	244.0	-201739.0	-257.0	-46875.0
28	17	38	26	334	245.0	-201877.0	-272.0	-47322.0
28	17	38	26	335	246.0	-202025.0	-282.0	-46257.0
28	17	38	26	335	247.0	-202406.0	-271.0	-43801.0
28	17	38	26	336	248.0	-202747.0	-291.0	-39082.0
28	17	38	26	337	249.0	-202717.0	-320.0	-34860.0
28	17	38	26	337	250.0	-202433.0	-349.0	-33672.0
28	17	38	26	356	251.0	-201748.0	-379.0	-35509.0
28	17	38	26	356	252.0	-200682.0	-402.0	-39604.0
28	17	38	26	357	253.0	-198939.0	-406.0	-44223.0
28	17	38	26	358	254.0	-196854.0	-399.0	-46986.0
28	17	38	26	358	255.0	-194681.0	-417.0	-47242.0
28	17	38	26	359	0.0	-192664.0	-441.0	-46010.0
28	17	38	26	359	1.0	-190947.0	-445.0	-43731.0
28	17	38	26	360	2.0	-188854.0	-459.0	-39243.0
28	17	38	26	361	3.0	-187384.0	-459.0	-35051.0
28	17	38	26	361	4.0	-186000.0	-476.0	-33821.0
28	17	38	26	362	5.0	-185057.0	-499.0	-35746.0
28	17	38	26	362	6.0	-184682.0	-507.0	-39817.0
28	17	38	26	363	7.0	-184551.0	-512.0	-44214.0
28	17	38	26	363	8.0	-184996.0	-513.0	-46859.0
28	17	38	26	378	9.0	-185826.0	-531.0	-47106.0
28	17	38	26	379	10.0	-187359.0	-549.0	-45599.0
28	17	38	26	379	11.0	-188994.0	-554.0	-43026.0
28	17	38	26	380	12.0	-190397.0	-557.0	-38454.0
28	17	38	26	381	13.0	-192181.0	-564.0	-34389.0
28	17	38	26	381	14.0	-193809.0	-587.0	-33035.0
28	17	38	26	382	15.0	-195732.0	-627.0	-34886.0
28	17	38	26	402	16.0	-197508.0	-644.0	-39117.0
28	17	38	26	403	17.0	-198744.0	-663.0	-43555.0
28	17	38	26	403	18.0	-199857.0	-686.0	-45944.0
28	17	38	26	404	19.0	-201006.0	-701.0	-46144.0
28	17	38	26	404	20.0	-201961.0	-697.0	-44854.0
28	17	38	26	405	21.0	-202299.0	-695.0	-42134.0
28	17	38	26	405	22.0	-202276.0	-725.0	-37216.0
28	17	38	26	406	23.0	-202453.0	-731.0	-33064.0
28	17	38	26	407	24.0	-202241.0	-756.0	-31819.0
28	17	38	26	407	25.0	-202136.0	-787.0	-33466.0
28	17	38	26	408	26.0	-201999.0	-817.0	-37448.0
28	17	38	26	408	27.0	-201261.0	-824.0	-42051.0
28	17	38	26	409	28.0	-200210.0	-836.0	-44534.0
28	17	38	26	409	29.0	-199080.0	-852.0	-44734.0
28	17	38	26	425	30.0	-198757.0	-874.0	-43532.0
28	17	38	26	426	31.0	-198961.0	-898.0	-41086.0
28	17	38	26	427	32.0	-199056.0	-923.0	-36406.0
28	17	38	26	427	33.0	-199456.0	-944.0	-32307.0
28	17	38	26	428	34.0	-199962.0	-977.0	-31202.0
28	17	38	26	428	35.0	-200934.0	-977.0	-33031.0
28	17	38	26	429	36.0	-201752.0	-979.0	-36924.0
28	17	38	26	455	37.0	-202329.0	-1030.0	-41391.0
28	17	38	26	455	38.0	-202611.0	-1049.0	-44107.0
28	17	38	26	456	39.0	-202558.0	-1057.0	-44501.0
28	17	38	26	457	40.0	-202161.0	-1108.0	-43311.0
28	17	38	26	457	41.0	-201633.0	-1129.0	-40797.0
28	17	38	26	458	42.0	-200623.0	-1132.0	-36222.0
28	17	38	26	459	43.0	-198976.0	-1152.0	-32186.0
28	17	38	26	459	44.0	-197536.0	-1168.0	-30807.0
28	17	38	26	460	45.0	-196364.0	-1189.0	-32259.0
28	17	38	26	460	46.0	-195041.0	-1241.0	-36217.0
28	17	38	26	461	47.0	-193843.0	-1256.0	-40896.0
28	17	38	26	462	48.0	-193057.0	-1274.0	-43228.0
28	17	38	26	462	49.0	-192632.0	-1287.0	-43304.0
28	17	38	26	463	50.0	-192282.0	-1302.0	-42242.0
28	17	38	26	463	51.0	-192448.0	-1334.0	-40022.0
28	17	38	26	464	52.0	-193047.0	-1362.0	-35681.0
28	17	38	26	465	53.0	-193247.0	-1397.0	-32253.0
28	17	38	26	465	54.0	-193225.0	-1413.0	-31925.0
28	17	38	26	466	55.0	-192188.0	-1441.0	-34514.0
28	17	38	26	466	56.0	-188334.0	-1467.0	-39361.0
28	17	38	26	467	57.0	-188170.0	-1488.0	-45342.0
28	17	38	26	507	58.0	-193256.0	-1505.0	-49666.0
28	17	38	26	532	59.0	-196107.0	-1516.0	-51406.0
28	17	38	26	533	60.0	-197217.0	-1550.0	-51332.0
28	17	38	26	556	61.0	-195757.0	-1586.0	-49946.0
28	17	38	26	556	62.0	-192722.0	-1625.0	-45880.0
28	17	38	26	557	63.0	-189066.0	-1642.0	-41884.0
28	17	38	26	558	64.0	-186824.0	-1647.0	-40645.0
28	17	38	26	558	65.0	-187381.0	-1669.0	-42499.0
28	17	38	26	559	66.0	-189564.0	-1692.0	-46048.0
28	17	38	26	559	67.0	-193064.0	-1700.0	-49982.0
28	17	38	26	560	68.0	-197054.0	-1727.0	-51712.0
28	17	38	26	561	69.0	-201272.0	-1762.0	-49904.0
28	17	38	26	561	70.0	-205777.0	-1802.0	-46035.0
28	17	38	26	562	71.0	-211174.0	-1812.0	-41161.0
28	17	38	26	562	72.0	-217294.0	-1836.0	-34304.0
28	17	38	26	563	73.0	-223677.0	-1857.0	-27477.0
28	17	38	26	564	93.0	-240872.0	-2261.0	-31194.0
28	17	38	26	564	94.0	-270746.0	-2272.0	-30354.0
28	17	38	26	565	95.0	-290583.0	-2260.0	-32674.0
28	17	38	26	565	101.0	-232429.0	-2377.0	-42415.0
28	17	38	26	566	102.0	-208774.0	-2394.0	-37862.0
28	17	38	26	567	103.0	-186160.0	-2411.0	-33347.0
28	17	38	26	567	104.0	-166269.0	-2413.0	-32181.0
28	17	38	26	568	105.0	-150233.0	-2408.0	-34439.0
28	17	38	26	568	106.0	-139613.0	-2411.0	-38708.0
28	17	38	26	569	107.0	-134263.0	-2419.0	-43479.0
28	17	38	26	570	108.0	-132702.0	-2434.0	-46525.0
28	17	38	26	570	109.0	-134283.0	-2445.0	-47152.0
28	17	38	26	571	110.0	-137350.0	-2463.0	-45911.0
28	17	38	26	571	111.0	-139776.0	-2488.0	-43402.0
28	17	38	26	572	112.0	-142074.0	-2511.0	-38582.0
28	17	38	26	573	113.0	-145234.0	-2522.0	-34030.0
28	17	38	26	573	114.0	-150034.0	-2576.0	-32813.0
28	17	38	26	574	115.0	-156710.0	-2595.0	-34772.0
28	17	38	26	575	116.0	-165159.0	-2626.0	-39001.0
28	17	38	26	583	117.0	-174844.0	-2636.0	-43987.0
28	17	38	26	583	118.0	-185567.0	-2644.0	-47209.0
28	17	38	26	584	119.0	-196569.0	-2674.0	-47715.0
28	17	38	26	585	120.0	-207087.0	-2698.0	-46473.0
28	17	38	26	585	121.0	-216239.0	-2719.0	-44292.0
28	17	38	26	586	122.0	-223406.0	-2749.0	-39634.0
28	17	38	26	586	123.0	-228553.0	-2774.0	-35096.0
28	17	38	26	587	124.0	-232726.0	-2789.0	-33952.0
28	17	38	26	607	125.0	-236118.0	-2811.0	-36558.0
28	17	38	26	608	126.0	-238727.0	-2832.0	-41074.0
28	17	38	26	608	127.0	-240802.0	-2844.0	-45736.0
28	17	38	26	630	128.0	-242572.0	-2881.0	-48639.0
28	17	38	26	631	129.0	-243112.0	-2914.0	-49092.0
28	17	38	26	632	130.0	-242121.0	-2947.0	-47617.0
28	17	38	26	632	131.0	-239589.0	-2983.0	-45240.0
28	17	38	26	633	132.0	-235107.0	-3014.0	-40765.0
28	17	38	26	633	133.0	-228498.0	-3051.0	-36252.0
28	17	38	26	634	134.0	-220426.0	-3073.0	-34882.0
28	17	38	26	635	135.0	-211699.0	-3094.0	-37132.0
28	17	38	26	635	136.0	-202606.0	-3138.0	-41605.0
28	17	38	26	636	137.0	-193925.0	-3171.0	-46422.0
28	17	38	26	636	138.0	-186366.0	-3211.0	-49429.0
28	17	38	26	637	139.0	-179666.0	-3249.0	-50089.0
28	17	38	26	637	140.0	-174048.0	-3293.0	-48951.0
28	17	38	26	638	141.0	-169859.0	-3331.0	-46380.0
28	17	38	26	639	142.0	-166941.0	-3354.0	-41520.0
28	17	38	26	639	143.0	-165079.0	-3389.0	-37049.0
28	17	38	26	640	144.0	-164569.0	-3428.0	-35801.0
28	17	38	26	640	145.0	-165025.0	-3464.0	-37999.0
28	17	38	26	657	146.0	-166650.0	-3509.0	-42801.0
28	17	38	26	658	147.0	-168652.0	-3553.0	-48065.0
28	17	38	26	658	148.0	-171801.0	-3577.0	-51336.0
28	17	38	26	659	149.0	-176236.0	-3612.0	-51949.0
28	17	38	26	660	150.0	-181408.0	-3663.0	-50617.0
28	17	38	26	660	151.0	-186543.0	-3702.0	-47885.0
28	17	38	26	661	152.0	-192337.0	-3736.0	-42829.0
28	17	38	26	662	153.0	-198387.0	-3785.0	-38236.0
28	17	38	26	662	154.0	-203927.0	-3788.0	-37266.0
28	17	38	26	663	155.0	-209107.0	-3821.0	-39731.0
28	17	38	26	664	156.0	-213614.0	-3869.0	-44464.0
28	17	38	26	664	157.0	-217344.0	-3916.0	-49761.0
28	17	38	26	665	158.0	-219863.0	-3944.0	-53035.0
28	17	38	26	665	159.0	-220906.0	-3981.0	-53428.0
28	17	38	26	666	160.0	-221032.0	-4014.0	-51911.0
28	17	38	26	667	161.0	-220673.0	-4040.0	-49227.0
28	17	38	26	680	162.0	-219874.0	-4063.0	-44309.0
28	17	38	26	681	163.0	-218484.0	-4071.0	-39699.0
28	17	38	26	682	164.0	-216831.0	-4095.0	-38207.0
28	17	38	26	682	165.0	-214447.0	-4096.0	-40439.0
28	17	38	26	683	166.0	-211427.0	-4087.0	-45162.0
28	17	38	26	684	167.0	-208136.0	-4096.0	-50156.0
28	17	38	26	704	168.0	-204150.0	-4092.0	-53093.0
28	17	38	26	705	169.0	-200002.0	-4074.0	-53431.0
28	17	38	26	706	170.0	-196076.0	-4043.0	-51858.0
28	17	38	26	706	171.0	-192011.0	-4022.0	-48808.0
28	17	38	26	707	172.0	-188681.0	-4017.0	-43643.0
28	17	38	26	707	173.0	-186037.0	-4006.0	-38999.0
28	17	38	26	708	174.0	-184048.0	-3983.0	-37559.0
28	17	38	26	709	175.0	-182429.0	-3944.0	-39563.0
28	17	38	26	709	176.0	-181613.0	-3902.0	-44271.0
28	17	38	26	710	177.0	-181419.0	-3869.0	-49342.0
28	17	38	26	710	178.0	-181577.0	-3814.0	-52182.0
28	17	38	26	728	179.0	-182172.0	-3749.0	-52256.0
28	17	38	26	729	180.0	-183028.0	-3682.0	-50784.0
28	17	38	26	729	181.0	-184186.0	-3614.0	-47857.0
28	17	38	26	730	182.0	-185283.0	-3551.0	-42449.0
28	17	38	26	731	183.0	-186762.0	-3460.0	-37627.0
28	17	38	26	731	184.0	-187880.0	-3362.0	-36037.0
28	17	38	26	732	185.0	-188879.0	-3280.0	-37729.0
28	17	38	26	732	186.0	-190106.0	-3199.0	-41926.0
28	17	38	26	733	187.0	-191167.0	-3104.0	-46939.0
28	17	38	26	734	188.0	-192332.0	-2984.0	-49903.0
28	17	38	26	734	189.0	-193144.0	-2865.0	-49932.0
28	17	38	26	735	190.0	-193880.0	-2757.0	-48224.0
28	17	38	26	735	191.0	-195126.0	-2652.0	-45367.0
28	17	38	26	736	192.0	-196126.0	-2542.0	-40177.0
28	17	38	26	751	193.0	-197022.0	-2422.0	-35386.0
28	17	38	26	752	194.0	-197452.0	-2284.0	-33699.0
28	17	38	26	752	195.0	-198082.0	-2157.0	-35397.0
28	17	38	26	753	196.0	-199069.0	-2032.0	-39570.0
28	17	38	26	754	197.0	-199610.0	-1909.0	-44186.0
28	17	38	26	754	198.0	-199904.0	-1776.0	-46762.0
28	17	38	26	755	199.0	-200131.0	-1636.0	-46961.0
28	17	38	26	775	200.0	-200845.0	-1486.0	-45486.0
28	17	38	26	776	201.0	-201907.0	-1356.0	-42642.0
28	17	38	26	777	202.0	-203097.0	-1231.0	-37711.0
28	17	38	26	778	203.0	-204471.0	-1107.0	-33225.0
28	17	38	26	778	204.0	-205622.0	-989.0	-31555.0
28	17	38	26	779	205.0	-206601.0	-864.0	-32957.0
28	17	38	26	779	206.0	-207764.0	-731.0	-37071.0
28	17	38	26	780	207.0	-208676.0	-587.0	-42011.0
28	17	38	26	780	208.0	-209589.0	-480.0	-44777.0
28	17	38	26	781	209.0	-210659.0	-349.0	-44930.0
28	17	38	26	782	210.0	-211701.0	-228.0	-43636.0
28	17	38	26	782	211.0	-213102.0	-116.0	-41073.0
28	17	38	26	783	212.0	-214214.0	-4.0	-36002.0
28	17	38	26	783	213.0	-215577.0	111.0	-31436.0
28	17	38	26	801	214.0	-217027.0	233.0	-30037.0
28	17	38	26	802	215.0	-217939.0	328.0	-31615.0
28	17	38	26	802	216.0	-218989.0	444.0	-35585.0
28	17	38	26	803	217.0	-219929.0	550.0	-40410.0
28	17	38	26	804	218.0	-220387.0	641.0	-43304.0
28	17	38	26	804	219.0	-220283.0	738.0	-43472.0
28	17	38	26	805	220.0	-219379.0	834.0	-42293.0
28	17	38	26	825	221.0	-217757.0	913.0	-40011.0
28	17	38	26	825	222.0	-214682.0	1006.0	-35207.0
28	17	38	26	826	223.0	-210182.0	1102.0	-30602.0
28	17	38	26	827	224.0	-203997.0	1184.0	-29316.0
28	17	38	26	827	225.0	-194698.0	1255.0	-31111.0
28	17	38	26	828	226.0	-179030.0	1329.0	-35118.0
28	17	38	26	828	227.0	-156952.0	1402.0	-39810.0
28	17	38	26	829	228.0	-139030.0	1455.0	-42683.0
28	17	38	26	829	229.0	-137836.0	1526.0	-42984.0
28	17	38	26	830	230.0	-149130.0	1614.0	-41762.0
28	17	38	26	830	231.0	-168327.0	1674.0	-39306.0
28	17	38	26	831	232.0	-192072.0	1714.0	-34589.0
28	17	38	26	831	233.0	-213154.0	1773.0	-30138.0
28	17	38	26	832	234.0	-229495.0	1816.0	-28777.0
28	17	38	26	849	235.0	-238627.0	1850.0	-30742.0
28	17	38	26	850	236.0	-240966.0	1886.0	-35144.0
28	17	38	26	851	237.0	-237066.0	1945.0	-40291.0
28	17	38	26	851	238.0	-230175.0	1991.0	-43344.0
28	17	38	26	852	239.0	-223574.0	2028.0	-43793.0
28	17	38	26	852	240.0	-218391.0	2068.0	-42679.0
28	17	38	26	853	241.0	-215427.0	2111.0	-40156.0
28	17	38	26	853	242.0	-213955.0	2146.0	-35219.0
28	17	38	26	854	243.0	-211246.0	2172.0	-30601.0
28	17	38	26	854	244.0	-207485.0	2221.0	-29182.0
28	17	38	26	855	245.0	-202924.0	2239.0	-30737.0
28	17	38	26	856	246.0	-198097.0	2274.0	-34741.0
28	17	38	26	856	247.0	-194029.0	2293.0	-39822.0
28	17	38	26	857	248.0	-190576.0	2320.0	-42914.0
28	17	38	26	872	249.0	-187685.0	2342.0	-43058.0
28	17	38	26	872	250.0	-185487.0	2366.0	-41951.0
28	17	38	26	873	251.0	-183648.0	2404.0	-39626.0
28	17	38	26	873	252.0	-182214.0	2435.0	-34746.0
28	17	38	26	874	253.0	-180032.0	2454.0	-30020.0
28	17	38	26	874	254.0	-176301.0	2461.0	-28643.0
28	17	38	26	875	255.0	-171706.0	2493.0	-30271.0
28	17	38	26	898	0.0	-166544.0	2516.0	-34141.0
28	17	38	26	899	1.0	-161507.0	2523.0	-38977.0
28	17	38	26	899	2.0	-155418.0	2558.0	-42131.0
28	17	38	26	900	3.0	-151995.0	2586.0	-42361.0
28	17	38	26	900	4.0	-153118.0	2601.0	-41008.0
28	17	38	26	901	5.0	-158684.0	2630.0	-38676.0
28	17	38	26	902	6.0	-167802.0	2660.0	-33922.0
28	17	38	26	902	7.0	-178591.0	2674.0	-29293.0
28	17	38	26	903	8.0	-190036.0	2693.0	-27825.0
28	17	38	26	903	9.0	-201166.0	2719.0	-29595.0
28	17	38	26	904	10.0	-210364.0	2724.0	-33857.0
28	17	38	26	904	11.0	-217683.0	2736.0	-38879.0
28	17	38	26	905	12.0	-222863.0	2749.0	-41794.0
28	17	38	26	905	13.0	-225326.0	2760.0	-42022.0
28	17	38	26	906	14.0	-226274.0	2763.0	-40798.0
28	17	38	26	906	15.0	-226213.0	2756.0	-38412.0
28	17	38	26	907	17.0	-222670.0	2784.0	-29000.0
28	17	38	26	907	18.0	-219451.0	2795.0	-27564.0
28	17	38	26	908	19.0	-215888.0	2793.0	-29198.0
28	17	38	26	921	20.0	-212782.0	2818.0	-33181.0
28	17	38	26	921	21.0	-209786.0	2826.0	-38126.0
28	17	38	26	922	22.0	-208012.0	2823.0	-41221.0
28	17	38	26	922	23.0	-207149.0	2810.0	-41355.0
28	17	38	26	923	24.0	-207214.0	2806.0	-40087.0
28	17	38	26	924	25.0	-208228.0	2808.0	-37820.0
28	17	38	26	924	26.0	-209978.0	2818.0	-33010.0
28	17	38	26	925	27.0	-212132.0	2808.0	-28323.0
28	17	38	26	925	28.0	-213727.0	2764.0	-26973.0
28	17	38	26	926	29.0	-214951.0	2772.0	-28658.0
28	17	38	26	926	30.0	-216445.0	2781.0	-32482.0
28	17	38	26	927	31.0	-217836.0	2748.0	-37321.0
28	17	38	26	927	32.0	-219018.0	2743.0	-40504.0
28	17	38	26	928	33.0	-220081.0	2740.0	-40650.0
28	17	38	26	928	34.0	-220673.0	2727.0	-39193.0
28	17	38	26	929	35.0	-220796.0	2710.0	-37032.0
28	17	38	26	930	36.0	-220423.0	2709.0	-32467.0
28	17	38	26	930	37.0	-219106.0	2699.0	-27725.0
28	17	38	26	931	38.0	-217220.0	2686.0	-26237.0
28	17	38	26	948	39.0	-214744.0	2678.0	-28036.0
28	17	38	26	949	40.0	-211990.0	2657.0	-31971.0
28	17	38	26	950	41.0	-208511.0	2650.0	-36699.0
28	17	38	26	950	42.0	-204504.0	2644.0	-39854.0
28	17	38	26	951	43.0	-200626.0	2619.0	-40236.0
28	17	38	26	951	44.0	-197182.0	2616.0	-38909.0
28	17	38	26	952	45.0	-194184.0	2589.0	-36565.0
28	17	38	26	952	46.0	-191844.0	2554.0	-31911.0
28	17	38	26	953	47.0	-189799.0	2540.0	-27136.0
28	17	38	26	953	48.0	-187967.0	2518.0	-25412.0
28	17	38	26	971	49.0	-186357.0	2498.0	-26907.0
28	17	38	26	972	50.0	-185446.0	2489.0	-30862.0
28	17	38	26	973	51.0	-185309.0	2470.0	-35642.0
28	17	38	26	973	52.0	-185349.0	2451.0	-38727.0
28	17	38	26	974	53.0	-185999.0	2436.0	-39056.0
28	17	38	26	974	54.0	-187004.0	2421.0	-37722.0
28	17	38	26	975	55.0	-188419.0	2393.0	-35417.0
28	17	38	26	976	56.0	-190123.0	2375.0	-30672.0
28	17	38	26	976	57.0	-192030.0	2369.0	-25987.0
28	17	38	26	977	58.0	-194288.0	2352.0	-24619.0
28	17	38	26	977	59.0	-196768.0	2342.0	-26289.0
28	17	38	26	978	60.0	-199324.0	2326.0	-30069.0
28	17	38	26	978	61.0	-202367.0	2297.0	-34812.0
28	17	38	26	979	62.0	-205232.0	2270.0	-38066.0
28	17	38	26	997	63.0	-207909.0	2244.0	-38406.0
28	17	38	26	998	64.0	-210491.0	2235.0	-37131.0
28	17	38	26	998	65.0	-212476.0	2219.0	-35122.0
28	17	38	26	999	66.0	-213976.0	2225.0	-30662.0
28	17	38	27	0	67.0	-214744.0	2204.0	-25819.0
28	17	38	27	0	68.0	-214913.0	2183.0	-24277.0
28	17	38	27	1	69.0	-214450.0	2167.0	-26107.0
28	17	38	27	1	70.0	-213528.0	2151.0	-29884.0
28	17	38	27	2	71.0	-212616.0	2138.0	-34509.0
28	17	38	27	2	72.0	-211272.0	2134.0	-37922.0
28	17	38	27	3	73.0	-209458.0	2127.0	-38409.0
28	17	38	27	3	74.0	-207479.0	2111.0	-36949.0
28	17	38	27	4	75.0	-205236.0	2089.0	-34711.0
28	17	38	27	5	76.0	-203119.0	2064.0	-30344.0
28	17	38	27	5	77.0	-201033.0	2055.0	-25756.0
28	17	38	27	20	78.0	-199203.0	2054.0	-24079.0
28	17	38	27	20	79.0	-197587.0	2036.0	-25792.0
28	17	38	27	21	80.0	-196178.0	2035.0	-29663.0
28	17	38	27	21	81.0	-194776.0	2008.0	-34301.0
28	17	38	27	22	82.0	-193650.0	1989.0	-37449.0
28	17	38	27	23	83.0	-192554.0	1970.0	-37889.0
28	17	38	27	23	84.0	-191448.0	1953.0	-36568.0
28	17	38	27	44	85.0	-190154.0	1939.0	-34238.0
28	17	38	27	45	86.0	-189199.0	1915.0	-29696.0
28	17	38	27	45	87.0	-188552.0	1893.0	-25036.0
28	17	38	27	46	88.0	-188172.0	1863.0	-23434.0
28	17	38	27	46	89.0	-187911.0	1826.0	-25110.0
28	17	38	27	47	90.0	-187891.0	1809.0	-29062.0
28	17	38	27	48	91.0	-187895.0	1781.0	-33861.0
28	17	38	27	48	92.0	-187841.0	1766.0	-37071.0
28	17	38	27	49	93.0	-187506.0	1751.0	-37437.0
28	17	38	27	49	94.0	-187846.0	1731.0	-36161.0
28	17	38	27	50	95.0	-188382.0	1726.0	-33995.0
28	17	38	27	50	96.0	-188997.0	1696.0	-29550.0
28	17	38	27	51	97.0	-189764.0	1671.0	-24891.0
28	17	38	27	51	98.0	-190953.0	1627.0	-23360.0
28	17	38	27	66	99.0	-192759.0	1583.0	-25242.0
28	17	38	27	67	100.0	-194174.0	1558.0	-29040.0
28	17	38	27	68	101.0	-195389.0	1540.0	-33694.0
28	17	38	27	68	102.0	-196420.0	1511.0	-37102.0
28	17	38	27	69	103.0	-197692.0	1491.0	-37568.0
28	17	38	27	69	104.0	-198599.0	1460.0	-36157.0
28	17	38	27	70	105.0	-199124.0	1432.0	-33934.0
28	17	38	27	89	106.0	-199387.0	1420.0	-29577.0
28	17	38	27	90	107.0	-199467.0	1399.0	-24783.0
28	17	38	27	91	108.0	-199174.0	1375.0	-23154.0
28	17	38	27	91	109.0	-198742.0	1347.0	-25148.0
28	17	38	27	92	110.0	-198318.0	1344.0	-29192.0
28	17	38	27	93	111.0	-197812.0	1326.0	-33845.0
28	17	38	27	93	112.0	-197560.0	1299.0	-37214.0
28	17	38	27	94	113.0	-197075.0	1257.0	-37916.0
28	17	38	27	94	114.0	-196867.0	1215.0	-36716.0
28	17	38	27	95	115.0	-197049.0	1188.0	-34545.0
28	17	38	27	95	116.0	-196896.0	1178.0	-30319.0
28	17	38	27	96	117.0	-196997.0	1154.0	-25729.0
28	17	38	27	96	118.0	-196839.0	1104.0	-24133.0
28	17	38	27	97	119.0	-197412.0	1080.0	-25927.0
28	17	38	27	114	120.0	-198389.0	1044.0	-29992.0
28	17	38	27	114	121.0	-199314.0	1015.0	-34585.0
28	17	38	27	115	122.0	-200186.0	986.0	-37746.0
28	17	38	27	137	123.0	-200866.0	969.0	-38261.0
28	17	38	27	137	124.0	-201825.0	955.0	-37005.0
28	17	38	27	138	125.0	-202801.0	923.0	-34709.0
28	17	38	27	139	126.0	-203896.0	888.0	-30266.0
28	17	38	27	139	127.0	-204669.0	847.0	-25847.0
28	17	38	27	140	128.0	-205247.0	806.0	-24452.0
28	17	38	27	140	129.0	-205688.0	758.0	-26369.0
28	17	38	27	141	130.0	-206274.0	723.0	-30471.0
28	17	38	27	141	131.0	-206772.0	704.0	-35435.0
28	17	38	27	142	132.0	-207040.0	664.0	-38881.0
28	17	38	27	142	133.0	-207627.0	630.0	-39362.0
28	17	38	27	143	134.0	-207729.0	596.0	-37929.0
28	17	38	27	144	135.0	-208170.0	559.0	-35567.0
28	17	38	27	144	136.0	-208456.0	503.0	-30942.0
28	17	38	27	162	137.0	-209097.0	476.0	-25924.0
28	17	38	27	163	138.0	-209815.0	459.0	-24251.0
28	17	38	27	163	139.0	-210704.0	444.0	-26261.0
28	17	38	27	164	140.0	-211059.0	419.0	-30374.0
28	17	38	27	165	141.0	-211281.0	378.0	-35042.0
28	17	38	27	165	142.0	-210884.0	356.0	-38547.0
28	17	38	27	166	143.0	-210641.0	344.0	-39342.0
28	17	38	27	167	144.0	-210001.0	328.0	-37847.0
28	17	38	27	167	145.0	-208987.0	306.0	-35382.0
28	17	38	27	168	146.0	-207570.0	293.0	-30776.0
28	17	38	27	168	147.0	-205524.0	269.0	-25907.0
28	17	38	27	169	148.0	-203703.0	268.0	-24114.0
28	17	38	27	169	149.0	-201847.0	236.0	-25774.0
28	17	38	27	170	150.0	-200251.0	213.0	-29866.0
28	17	38	27	184	151.0	-198597.0	191.0	-34524.0
28	17	38	27	185	152.0	-196898.0	150.0	-37690.0
28	17	38	27	185	153.0	-195404.0	141.0	-38256.0
28	17	38	27	186	154.0	-194498.0	118.0	-36872.0
28	17	38	27	207	155.0	-193435.0	91.0	-34341.0
28	17	38	27	208	156.0	-192297.0	70.0	-29836.0
28	17	38	27	230	157.0	-191501.0	43.0	-25140.0
28	17	38	27	231	158.0	-191337.0	6.0	-23329.0
28	17	38	27	232	159.0	-191658.0	-23.0	-24916.0
28	17	38	27	232	160.0	-192199.0	-77.0	-29162.0
28	17	38	27	233	161.0	-192759.0	-110.0	-34205.0
28	17	38	27	233	162.0	-193259.0	-127.0	-37578.0
28	17	38	27	234	163.0	-193749.0	-161.0	-38125.0
28	17	38	27	235	164.0	-194064.0	-186.0	-36811.0
28	17	38	27	235	165.0	-194107.0	-219.0	-34477.0
28	17	38	27	236	166.0	-194081.0	-256.0	-30006.0
28	17	38	27	236	167.0	-193871.0	-295.0	-25254.0
28	17	38	27	237	168.0	-193536.0	-327.0	-23598.0
28	17	38	27	238	169.0	-193164.0	-362.0	-25407.0
28	17	38	27	238	170.0	-192416.0	-400.0	-29439.0
28	17	38	27	239	174.0	-191308.0	-544.0	-36526.0
28	17	38	27	239	175.0	-191319.0	-582.0	-34034.0
28	17	38	27	240	181.0	-199039.0	-739.0	-36061.0
28	17	38	27	241	182.0	-201344.0	-784.0	-40500.0
28	17	38	27	241	183.0	-203511.0	-813.0	-42072.0
28	17	38	27	242	184.0	-205607.0	-834.0	-41630.0
28	17	38	27	242	185.0	-207499.0	-886.0	-40362.0
28	17	38	27	243	186.0	-208659.0	-914.0	-36959.0
28	17	38	27	244	187.0	-209341.0	-939.0	-32881.0
28	17	38	27	244	189.0	-208585.0	-1002.0	-35334.0
28	17	38	27	245	190.0	-207241.0	-1032.0	-41113.0
28	17	38	27	245	191.0	-205483.0	-1054.0	-46374.0
28	17	38	27	246	192.0	-204289.0	-1085.0	-49214.0
28	17	38	27	246	193.0	-203937.0	-1102.0	-48931.0
28	17	38	27	247	194.0	-204467.0	-1129.0	-46388.0
28	17	38	27	248	195.0	-206417.0	-1161.0	-42228.0
28	17	38	27	248	196.0	-209776.0	-1189.0	-35169.0
28	17	38	27	249	197.0	-214241.0	-1216.0	-27936.0
28	17	38	27	257	198.0	-219676.0	-1244.0	-24002.0
28	17	38	27	257	199.0	-225402.0	-1267.0	-23135.0
28	17	38	27	258	200.0	-231094.0	-1306.0	-23977.0
28	17	38	27	259	201.0	-236617.0	-1362.0	-24981.0
28	17	38	27	259	202.0	-241794.0	-1395.0	-25147.0
28	17	38	27	260	203.0	-247184.0	-1416.0	-23989.0
28	17	38	27	260	204.0	-252471.0	-1446.0	-22080.0
28	17	38	27	287	205.0	-258139.0	-1502.0	-20044.0
28	17	38	27	288	206.0	-262718.0	-1517.0	-16696.0
28	17	38	27	289	207.0	-264583.0	-1557.0	-13409.0
28	17	38	27	289	208.0	-261197.0	-1591.0	-13123.0
28	17	38	27	290	209.0	-246717.0	-1641.0	-15847.0
28	17	38	27	291	210.0	-217974.0	-1677.0	-20826.0
28	17	38	27	291	211.0	-180678.0	-1708.0	-26754.0
28	17	38	27	292	212.0	-142467.0	-1752.0	-31485.0
28	17	38	27	293	213.0	-111008.0	-1794.0	-33397.0
28	17	38	27	293	214.0	-89439.0	-1836.0	-32963.0
28	17	38	27	294	215.0	-82637.0	-1881.0	-31499.0
28	17	38	27	294	216.0	-92093.0	-1901.0	-27982.0
28	17	38	27	295	217.0	-114204.0	-1949.0	-23718.0
28	17	38	27	296	218.0	-144091.0	-2000.0	-22297.0
28	17	38	27	296	219.0	-180171.0	-2033.0	-24614.0
28	17	38	27	297	220.0	-218148.0	-2058.0	-29387.0
28	17	38	27	298	221.0	-251601.0	-2087.0	-34673.0
28	17	38	27	298	222.0	-274702.0	-2121.0	-38474.0
28	17	38	27	299	223.0	-285167.0	-2137.0	-39551.0
28	17	38	27	299	224.0	-281627.0	-2163.0	-38364.0
28	17	38	27	300	225.0	-267171.0	-2194.0	-35867.0
28	17	38	27	316	226.0	-248462.0	-2232.0	-31468.0
28	17	38	27	317	227.0	-227526.0	-2246.0	-26821.0
28	17	38	27	318	228.0	-205919.0	-2266.0	-25001.0
28	17	38	27	319	229.0	-185877.0	-2317.0	-26659.0
28	17	38	27	319	230.0	-168977.0	-2350.0	-31007.0
28	17	38	27	320	231.0	-155787.0	-2368.0	-35996.0
28	17	38	27	320	232.0	-146341.0	-2402.0	-39251.0
28	17	38	27	346	233.0	-140227.0	-2425.0	-39869.0
28	17	38	27	347	234.0	-136719.0	-2458.0	-38522.0
28	17	38	27	348	235.0	-134975.0	-2476.0	-35948.0
28	17	38	27	349	236.0	-133778.0	-2484.0	-31254.0
28	17	38	27	349	237.0	-133443.0	-2512.0	-26505.0
28	17	38	27	350	238.0	-134932.0	-2544.0	-24846.0
28	17	38	27	350	239.0	-137358.0	-2571.0	-26601.0
28	17	38	27	351	240.0	-140883.0	-2604.0	-30963.0
28	17	38	27	352	241.0	-146269.0	-2621.0	-36216.0
28	17	38	27	352	242.0	-154246.0	-2632.0	-39832.0
28	17	38	27	353	243.0	-163909.0	-2649.0	-40436.0
28	17	38	27	353	244.0	-173939.0	-2673.0	-39037.0
28	17	38	27	354	245.0	-183957.0	-2686.0	-36632.0
28	17	38	27	355	246.0	-193554.0	-2724.0	-32102.0
28	17	38	27	355	247.0	-202466.0	-2749.0	-27247.0
28	17	38	27	356	248.0	-210421.0	-2755.0	-25624.0
28	17	38	27	356	249.0	-216960.0	-2787.0	-27654.0
28	17	38	27	357	250.0	-221624.0	-2805.0	-32146.0
28	17	38	27	358	251.0	-225236.0	-2827.0	-37316.0
28	17	38	27	366	252.0	-228929.0	-2847.0	-41081.0
28	17	38	27	367	253.0	-232274.0	-2868.0	-41880.0
28	17	38	27	367	254.0	-235173.0	-2891.0	-40431.0
28	17	38	27	368	255.0	-237122.0	-2912.0	-37887.0
28	17	38	27	368	0.0	-238008.0	-2936.0	-33311.0
28	17	38	27	389	1.0	-237666.0	-2969.0	-28468.0
28	17	38	27	390	2.0	-235402.0	-3002.0	-26786.0
28	17	38	27	391	3.0	-231600.0	-3057.0	-28820.0
28	17	38	27	391	4.0	-225850.0	-3086.0	-33567.0
28	17	38	27	392	5.0	-218688.0	-3108.0	-38801.0
28	17	38	27	392	6.0	-210753.0	-3144.0	-42442.0
28	17	38	27	393	7.0	-202612.0	-3180.0	-43265.0
28	17	38	27	393	8.0	-195136.0	-3207.0	-41894.0
28	17	38	27	394	9.0	-188367.0	-3221.0	-39347.0
28	17	38	27	395	10.0	-182694.0	-3253.0	-34802.0
28	17	38	27	395	11.0	-178334.0	-3289.0	-30059.0
28	17	38	27	396	12.0	-175531.0	-3309.0	-28382.0
28	17	38	27	396	13.0	-173607.0	-3337.0	-30288.0
28	17	38	27	397	14.0	-173029.0	-3374.0	-35186.0
28	17	38	27	397	15.0	-173394.0	-3426.0	-40771.0
