28	17	47	39	881	158.0	-175558.0	5217.0	256883.0
28	17	47	39	883	159.0	-174784.0	5229.0	259270.0
28	17	47	39	885	160.0	-173797.0	5214.0	260419.0
28	17	47	39	887	161.0	-172568.0	5214.0	260356.0
28	17	47	39	889	162.0	-171535.0	5224.0	259014.0
28	17	47	39	907	163.0	-170774.0	5221.0	257311.0
28	17	47	39	914	164.0	-169646.0	5243.0	255814.0
28	17	47	39	916	165.0	-168293.0	5247.0	253169.0
28	17	47	39	918	166.0	-168373.0	5254.0	249687.0
28	17	47	39	920	167.0	-169612.0	5275.0	245592.0
28	17	47	39	922	168.0	-172085.0	5265.0	241306.0
28	17	47	39	924	169.0	-175551.0	5273.0	236814.0
28	17	47	39	924	170.0	-180668.0	5278.0	233061.0
28	17	47	39	925	171.0	-187149.0	5293.0	230786.0
28	17	47	39	925	172.0	-193961.0	5303.0	229218.0
28	17	47	39	926	173.0	-201018.0	5313.0	227893.0
28	17	47	39	926	174.0	-206244.0	5308.0	226599.0
28	17	47	39	927	175.0	-209136.0	5304.0	225876.0
28	17	47	39	927	176.0	-210355.0	5315.0	224978.0
28	17	47	39	928	177.0	-209654.0	5326.0	224569.0
28	17	47	39	928	178.0	-206386.0	5328.0	224559.0
28	17	47	39	929	179.0	-200653.0	5321.0	224213.0
28	17	47	39	929	180.0	-194053.0	5294.0	223309.0
28	17	47	39	954	181.0	-188242.0	5289.0	223256.0
28	17	47	39	997	182.0	-183576.0	5294.0	223213.0
28	17	47	39	998	183.0	-180352.0	5287.0	222941.0
28	17	47	39	998	184.0	-179337.0	5252.0	222720.0
28	17	47	39	999	185.0	-180257.0	5241.0	222767.0
28	17	47	39	999	186.0	-180337.0	5230.0	222391.0
28	17	47	40	0	187.0	-181832.0	5229.0	222340.0
28	17	47	40	0	188.0	-186689.0	5224.0	221979.0
28	17	47	40	1	189.0	-193454.0	5218.0	221619.0
28	17	47	40	13	190.0	-201333.0	5214.0	220963.0
28	17	47	40	13	191.0	-208452.0	5211.0	220906.0
28	17	47	40	14	192.0	-213961.0	5184.0	220767.0
28	17	47	40	14	193.0	-215894.0	5169.0	220592.0
28	17	47	40	15	194.0	-213236.0	5159.0	220726.0
28	17	47	40	15	195.0	-208341.0	5169.0	220247.0
28	17	47	40	16	199.0	-189216.0	5131.0	219406.0
28	17	47	40	17	221.0	-190209.0	4940.0	216406.0
28	17	47	40	17	222.0	-201401.0	4936.0	216341.0
28	17	47	40	18	223.0	-211164.0	4934.0	216420.0
28	17	47	40	18	224.0	-220525.0	4924.0	216461.0
28	17	47	40	19	225.0	-229604.0	4924.0	216388.0
28	17	47	40	42	226.0	-237774.0	4935.0	216312.0
28	17	47	40	43	227.0	-244972.0	4935.0	215999.0
28	17	47	40	44	228.0	-252166.0	4950.0	215447.0
28	17	47	40	44	229.0	-259189.0	4947.0	215349.0
28	17	47	40	45	230.0	-265539.0	4944.0	214935.0
28	17	47	40	45	231.0	-269889.0	4918.0	214728.0
28	17	47	40	46	232.0	-273644.0	4913.0	214604.0
28	17	47	40	46	233.0	-276804.0	4897.0	215010.0
28	17	47	40	47	234.0	-279104.0	4886.0	214763.0
28	17	47	40	48	235.0	-278633.0	4875.0	214158.0
28	17	47	40	48	236.0	-278941.0	4868.0	214079.0
28	17	47	40	49	237.0	-278587.0	4857.0	214205.0
28	17	47	40	88	238.0	-278939.0	4860.0	213903.0
28	17	47	40	88	239.0	-278954.0	4861.0	213414.0
28	17	47	40	89	240.0	-278851.0	4853.0	213303.0
28	17	47	40	89	241.0	-279151.0	4849.0	212811.0
28	17	47	40	90	244.0	-279581.0	4829.0	212471.0
28	17	47	40	90	245.0	-279773.0	4820.0	212163.0
28	17	47	40	91	246.0	-279049.0	4828.0	211792.0
28	17	47	40	133	247.0	-279146.0	4831.0	211843.0
28	17	47	40	134	248.0	-280259.0	4823.0	211589.0
28	17	47	40	134	249.0	-281339.0	4823.0	211399.0
28	17	47	40	135	250.0	-282536.0	4799.0	210864.0
28	17	47	40	135	251.0	-285442.0	4799.0	210768.0
28	17	47	40	136	252.0	-288109.0	4809.0	210338.0
28	17	47	40	136	253.0	-290912.0	4791.0	210186.0
28	17	47	40	178	254.0	-294319.0	4782.0	210241.0
28	17	47	40	222	255.0	-299394.0	4781.0	210059.0
28	17	47	40	223	11.0	-317129.0	4718.0	208108.0
28	17	47	40	224	12.0	-315589.0	4728.0	207986.0
28	17	47	40	225	13.0	-316471.0	4719.0	207643.0
28	17	47	40	225	14.0	-321346.0	4695.0	207424.0
28	17	47	40	226	15.0	-326218.0	4694.0	207487.0
28	17	47	40	226	16.0	-326992.0	4699.0	207468.0
28	17	47	40	268	17.0	-323719.0	4690.0	207730.0
28	17	47	40	268	33.0	-256357.0	4590.0	208647.0
28	17	47	40	269	34.0	-257966.0	4594.0	208603.0
28	17	47	40	269	35.0	-259395.0	4596.0	208999.0
28	17	47	40	270	36.0	-261799.0	4593.0	209019.0
28	17	47	40	271	37.0	-265842.0	4592.0	208963.0
28	17	47	40	271	38.0	-271841.0	4603.0	209057.0
28	17	47	40	313	39.0	-276792.0	4600.0	209369.0
28	17	47	40	314	56.0	-311948.0	4509.0	211629.0
28	17	47	40	314	78.0	-272950.0	4305.0	211793.0
28	17	47	40	315	79.0	-269177.0	4287.0	212074.0
28	17	47	40	316	80.0	-262860.0	4274.0	211923.0
28	17	47	40	317	81.0	-256559.0	4279.0	211510.0
28	17	47	40	318	82.0	-251157.0	4255.0	211534.0
28	17	47	40	403	83.0	-247358.0	4236.0	211316.0
28	17	47	40	404	84.0	-245055.0	4224.0	211124.0
28	17	47	40	405	100.0	-201632.0	3923.0	210431.0
28	17	47	40	405	101.0	-206982.0	3899.0	210080.0
28	17	47	40	406	102.0	-212097.0	3894.0	209748.0
28	17	47	40	406	103.0	-215652.0	3879.0	209811.0
28	17	47	40	408	104.0	-217514.0	3846.0	209579.0
28	17	47	40	409	105.0	-219035.0	3836.0	209117.0
28	17	47	40	410	106.0	-218882.0	3830.0	209202.0
28	17	47	40	411	123.0	-175112.0	3413.0	208623.0
28	17	47	40	412	124.0	-172909.0	3383.0	208514.0
28	17	47	40	413	125.0	-173173.0	3364.0	208343.0
28	17	47	40	413	126.0	-174964.0	3369.0	208491.0
28	17	47	40	414	127.0	-174864.0	3341.0	208848.0
28	17	47	40	416	128.0	-176111.0	3326.0	209143.0
28	17	47	40	416	129.0	-176349.0	3318.0	208814.0
28	17	47	40	417	168.0	-63386.0	2632.0	206989.0
28	17	47	40	418	169.0	-60550.0	2629.0	207164.0
28	17	47	40	418	170.0	-57748.0	2625.0	207312.0
28	17	47	40	419	171.0	-57126.0	2600.0	207289.0
28	17	47	40	420	172.0	-57746.0	2588.0	207235.0
28	17	47	40	421	173.0	-59242.0	2591.0	207164.0
28	17	47	40	448	174.0	-60817.0	2572.0	207102.0
28	17	47	40	449	175.0	-64652.0	2567.0	207033.0
28	17	47	40	450	176.0	-68822.0	2560.0	207302.0
28	17	47	40	450	177.0	-72124.0	2558.0	207236.0
28	17	47	40	451	178.0	-76721.0	2543.0	207098.0
28	17	47	40	452	179.0	-81981.0	2518.0	207418.0
28	17	47	40	452	180.0	-87227.0	2528.0	207570.0
28	17	47	40	453	181.0	-92972.0	2505.0	206884.0
28	17	47	40	453	182.0	-98750.0	2465.0	206813.0
28	17	47	40	454	183.0	-105062.0	2455.0	207181.0
28	17	47	40	454	184.0	-111860.0	2446.0	206890.0
28	17	47	40	493	185.0	-118477.0	2428.0	206781.0
28	17	47	40	493	186.0	-124046.0	2396.0	206984.0
28	17	47	40	494	187.0	-129998.0	2386.0	207464.0
28	17	47	40	494	188.0	-136710.0	2365.0	207745.0
28	17	47	40	495	190.0	-150601.0	2321.0	207753.0
28	17	47	40	496	191.0	-162444.0	2302.0	207294.0
28	17	47	40	496	192.0	-161128.0	2316.0	207247.0
28	17	47	40	584	193.0	-159122.0	2310.0	206967.0
28	17	47	40	585	194.0	-164028.0	2303.0	206603.0
28	17	47	40	585	195.0	-160941.0	2286.0	206648.0
28	17	47	40	586	196.0	-172079.0	2260.0	206606.0
28	17	47	40	587	197.0	-187021.0	2238.0	206352.0
28	17	47	40	628	198.0	-197197.0	2228.0	206699.0
28	17	47	40	629	199.0	-184919.0	2229.0	206664.0
28	17	47	40	630	200.0	-171851.0	2218.0	205989.0
28	17	47	40	630	212.0	-223860.0	2074.0	206044.0
28	17	47	40	631	213.0	-208627.0	2061.0	205968.0
28	17	47	40	632	214.0	-202431.0	2060.0	205474.0
28	17	47	40	632	215.0	-225367.0	2054.0	205802.0
28	17	47	40	633	216.0	-213331.0	2044.0	206084.0
28	17	47	40	633	217.0	-194784.0	2021.0	205947.0
28	17	47	40	634	218.0	-220004.0	2008.0	205928.0
28	17	47	40	635	219.0	-214372.0	1978.0	205836.0
28	17	47	40	635	2.0	-204362.0	1568.0	202856.0
28	17	47	40	636	3.0	-213251.0	1572.0	203474.0
28	17	47	40	637	4.0	-239011.0	1566.0	203815.0
28	17	47	40	637	5.0	-226096.0	1570.0	203726.0
28	17	47	40	638	6.0	-216297.0	1575.0	203937.0
28	17	47	40	638	24.0	-264300.0	1501.0	202648.0
28	17	47	40	639	25.0	-261676.0	1500.0	202357.0
28	17	47	40	639	26.0	-258231.0	1504.0	202601.0
28	17	47	40	640	27.0	-250511.0	1503.0	202273.0
28	17	47	40	641	28.0	-232440.0	1498.0	202157.0
28	17	47	40	641	29.0	-207030.0	1502.0	202534.0
28	17	47	40	673	30.0	-191368.0	1508.0	202551.0
28	17	47	40	673	31.0	-184803.0	1514.0	202394.0
28	17	47	40	674	32.0	-181261.0	1527.0	202386.0
28	17	47	40	675	33.0	-172643.0	1516.0	202890.0
28	17	47	40	675	34.0	-168372.0	1507.0	202434.0
28	17	47	40	676	35.0	-167541.0	1482.0	201930.0
28	17	47	40	677	36.0	-161554.0	1473.0	201723.0
28	17	47	40	677	37.0	-163399.0	1478.0	201028.0
28	17	47	40	678	38.0	-184913.0	1474.0	200132.0
28	17	47	40	678	39.0	-174157.0	1464.0	199344.0
28	17	47	40	679	40.0	-195047.0	1460.0	198514.0
28	17	47	40	718	41.0	-210286.0	1454.0	196993.0
28	17	47	40	718	42.0	-203016.0	1453.0	195236.0
28	17	47	40	719	43.0	-195139.0	1438.0	193062.0
28	17	47	40	720	44.0	-206332.0	1421.0	190641.0
28	17	47	40	720	46.0	-210913.0	1414.0	182351.0
28	17	47	40	721	47.0	-217650.0	1384.0	178990.0
28	17	47	40	722	48.0	-213199.0	1393.0	176176.0
28	17	47	40	722	49.0	-214157.0	1372.0	175429.0
28	17	47	40	723	50.0	-214406.0	1368.0	176046.0
28	17	47	40	723	51.0	-210858.0	1379.0	180411.0
28	17	47	40	724	52.0	-211130.0	1364.0	188814.0
28	17	47	40	725	53.0	-206868.0	1348.0	198988.0
28	17	47	40	725	54.0	-206118.0	1346.0	208653.0
28	17	47	40	726	55.0	-204506.0	1354.0	215509.0
28	17	47	40	727	56.0	-199107.0	1349.0	220545.0
28	17	47	40	728	69.0	-161576.0	1343.0	209931.0
28	17	47	40	728	70.0	-164062.0	1361.0	207288.0
28	17	47	40	729	71.0	-171186.0	1356.0	204916.0
28	17	47	40	729	72.0	-173483.0	1348.0	203568.0
28	17	47	40	730	73.0	-185069.0	1349.0	202589.0
28	17	47	40	731	74.0	-197335.0	1351.0	201210.0
28	17	47	40	763	75.0	-211343.0	1359.0	200121.0
28	17	47	40	764	76.0	-207962.0	1355.0	199369.0
28	17	47	40	765	77.0	-212119.0	1374.0	198454.0
28	17	47	40	766	78.0	-198063.0	1357.0	198072.0
28	17	47	40	766	79.0	-173908.0	1363.0	198058.0
28	17	47	40	767	80.0	-171261.0	1339.0	198024.0
28	17	47	40	767	81.0	-147592.0	1325.0	197606.0
28	17	47	40	768	82.0	-141323.0	1344.0	197333.0
28	17	47	40	768	83.0	-153746.0	1330.0	197271.0
28	17	47	40	769	84.0	-133056.0	1323.0	197028.0
28	17	47	40	770	85.0	-128889.0	1328.0	196941.0
28	17	47	40	808	86.0	-156564.0	1320.0	196598.0
28	17	47	40	809	87.0	-140293.0	1314.0	195775.0
28	17	47	40	810	88.0	-129957.0	1322.0	195646.0
28	17	47	40	810	89.0	-160544.0	1322.0	195484.0
28	17	47	40	811	91.0	-122912.0	1311.0	195538.0
28	17	47	40	812	92.0	-152414.0	1310.0	195241.0
28	17	47	40	853	93.0	-146359.0	1307.0	194971.0
28	17	47	40	854	94.0	-106742.0	1295.0	194721.0
28	17	47	40	855	95.0	-132489.0	1300.0	194646.0
28	17	47	40	855	96.0	-138223.0	1308.0	194346.0
28	17	47	40	856	97.0	-90541.0	1274.0	194005.0
28	17	47	40	857	98.0	-110120.0	1268.0	193964.0
28	17	47	40	857	99.0	-136370.0	1256.0	194199.0
28	17	47	40	858	100.0	-83566.0	1225.0	194009.0
28	17	47	40	859	101.0	-78221.0	1243.0	193618.0
28	17	47	40	859	113.0	-147956.0	1198.0	191526.0
28	17	47	40	860	114.0	-90176.0	1211.0	190945.0
28	17	47	40	861	115.0	-78572.0	1233.0	190771.0
28	17	47	40	862	116.0	-163406.0	1234.0	191108.0
28	17	47	40	863	117.0	-186509.0	1231.0	190692.0
28	17	47	40	863	118.0	-126534.0	1233.0	190517.0
28	17	47	40	864	119.0	-130639.0	1259.0	190716.0
28	17	47	40	865	136.0	-254774.0	1228.0	187429.0
28	17	47	40	865	137.0	-277276.0	1221.0	186966.0
28	17	47	40	866	138.0	-278332.0	1221.0	186794.0
28	17	47	40	866	139.0	-255079.0	1217.0	186933.0
28	17	47	40	867	140.0	-237120.0	1229.0	187153.0
28	17	47	40	868	141.0	-247089.0	1239.0	186890.0
28	17	47	40	868	142.0	-249453.0	1255.0	186691.0
28	17	47	40	899	143.0	-233599.0	1269.0	186306.0
28	17	47	40	900	144.0	-214384.0	1287.0	186129.0
28	17	47	40	900	145.0	-214226.0	1289.0	186239.0
28	17	47	40	901	146.0	-219284.0	1281.0	185811.0
28	17	47	40	902	147.0	-213946.0	1268.0	185406.0
28	17	47	40	902	148.0	-203799.0	1278.0	185455.0
28	17	47	40	903	149.0	-201506.0	1276.0	185409.0
28	17	47	40	944	150.0	-208437.0	1278.0	185229.0
28	17	47	40	944	151.0	-212952.0	1286.0	185132.0
28	17	47	40	945	152.0	-213044.0	1282.0	185224.0
28	17	47	40	946	153.0	-212389.0	1264.0	184879.0
28	17	47	40	946	154.0	-215731.0	1276.0	184658.0
28	17	47	40	947	155.0	-219305.0	1276.0	184516.0
28	17	47	40	948	156.0	-221146.0	1259.0	184098.0
28	17	47	40	948	157.0	-222327.0	1252.0	183825.0
28	17	47	40	949	158.0	-224520.0	1263.0	184006.0
28	17	47	40	950	159.0	-227531.0	1258.0	184093.0
28	17	47	40	950	160.0	-229697.0	1263.0	183553.0
28	17	47	40	951	161.0	-229377.0	1270.0	183493.0
28	17	47	40	951	162.0	-224470.0	1263.0	183399.0
28	17	47	40	952	163.0	-217248.0	1255.0	183171.0
28	17	47	40	953	164.0	-209511.0	1233.0	183060.0
28	17	47	40	953	165.0	-205680.0	1238.0	182868.0
28	17	47	40	954	181.0	-251727.0	1219.0	183150.0
28	17	47	40	954	182.0	-179529.0	1186.0	182992.0
28	17	47	40	955	183.0	-147364.0	1196.0	182829.0
28	17	47	40	955	184.0	-214393.0	1219.0	183112.0
28	17	47	40	956	185.0	-226678.0	1224.0	183256.0
28	17	47	40	956	186.0	-154707.0	1205.0	183314.0
28	17	47	40	957	187.0	-120197.0	1231.0	183150.0
28	17	47	41	34	188.0	-195790.0	1244.0	183521.0
28	17	47	41	35	189.0	-216464.0	1250.0	183743.0
28	17	47	41	36	190.0	-148469.0	1257.0	183836.0
28	17	47	41	37	191.0	-106695.0	1264.0	184341.0
28	17	47	41	37	192.0	-188054.0	1274.0	184586.0
28	17	47	41	38	193.0	-219041.0	1279.0	184411.0
28	17	47	41	38	194.0	-155882.0	1277.0	184539.0
28	17	47	41	39	195.0	-104337.0	1280.0	184861.0
28	17	47	41	40	196.0	-184547.0	1298.0	184873.0
28	17	47	41	40	197.0	-226751.0	1283.0	184854.0
28	17	47	41	41	198.0	-169228.0	1261.0	184721.0
28	17	47	41	41	199.0	-107674.0	1273.0	185471.0
28	17	47	41	42	200.0	-173732.0	1298.0	185919.0
28	17	47	41	42	201.0	-233851.0	1276.0	186334.0
28	17	47	41	43	202.0	-196023.0	1269.0	186569.0
28	17	47	41	44	203.0	-141221.0	1274.0	186653.0
28	17	47	41	44	226.0	-263302.0	1241.0	186716.0
28	17	47	41	45	227.0	-262442.0	1253.0	186904.0
28	17	47	41	45	228.0	-264372.0	1266.0	186978.0
28	17	47	41	46	229.0	-266261.0	1283.0	186846.0
28	17	47	41	46	230.0	-266556.0	1276.0	186879.0
28	17	47	41	47	231.0	-263664.0	1279.0	186984.0
28	17	47	41	124	232.0	-258600.0	1295.0	187011.0
28	17	47	41	125	233.0	-253791.0	1296.0	186841.0
28	17	47	41	126	234.0	-250411.0	1294.0	186590.0
28	17	47	41	126	235.0	-248294.0	1292.0	186356.0
28	17	47	41	127	236.0	-246930.0	1277.0	186156.0
28	17	47	41	127	237.0	-245024.0	1265.0	185840.0
28	17	47	41	128	238.0	-242771.0	1251.0	185777.0
28	17	47	41	129	239.0	-240045.0	1252.0	186078.0
28	17	47	41	129	240.0	-237157.0	1231.0	185981.0
28	17	47	41	130	241.0	-235225.0	1243.0	185898.0
28	17	47	41	130	242.0	-233760.0	1253.0	185509.0
28	17	47	41	131	243.0	-230724.0	1242.0	185496.0
28	17	47	41	132	244.0	-228997.0	1243.0	185320.0
28	17	47	41	132	245.0	-230421.0	1238.0	185323.0
28	17	47	41	133	246.0	-233299.0	1226.0	185161.0
28	17	47	41	133	248.0	-235821.0	1240.0	184648.0
28	17	47	41	134	15.0	-237817.0	1323.0	183853.0
28	17	47	41	134	16.0	-161746.0	1306.0	183374.0
28	17	47	41	135	17.0	-186364.0	1325.0	183098.0
28	17	47	41	135	18.0	-235571.0	1323.0	183091.0
28	17	47	41	136	19.0	-193776.0	1318.0	183038.0
28	17	47	41	137	20.0	-122493.0	1321.0	182410.0
28	17	47	41	168	21.0	-156596.0	1329.0	182718.0
28	17	47	41	169	22.0	-196594.0	1341.0	183197.0
28	17	47	41	170	23.0	-150718.0	1330.0	183134.0
28	17	47	41	170	24.0	-86094.0	1332.0	183153.0
28	17	47	41	171	25.0	-129414.0	1354.0	183134.0
28	17	47	41	172	26.0	-172073.0	1363.0	182893.0
28	17	47	41	173	27.0	-130576.0	1354.0	183134.0
28	17	47	41	173	28.0	-77230.0	1351.0	182955.0
28	17	47	41	174	29.0	-131419.0	1358.0	182439.0
28	17	47	41	175	30.0	-178152.0	1378.0	182411.0
28	17	47	41	175	31.0	-140311.0	1364.0	182726.0
28	17	47	41	176	32.0	-93064.0	1364.0	182684.0
28	17	47	41	177	33.0	-153011.0	1363.0	182798.0
28	17	47	41	177	34.0	-201107.0	1364.0	183167.0
28	17	47	41	178	35.0	-164412.0	1350.0	183059.0
28	17	47	41	178	37.0	-179682.0	1358.0	182963.0
28	17	47	41	179	38.0	-229140.0	1356.0	182815.0
28	17	47	41	179	39.0	-192277.0	1362.0	182724.0
28	17	47	41	180	40.0	-142867.0	1386.0	182715.0
28	17	47	41	180	41.0	-200531.0	1404.0	182735.0
28	17	47	41	181	42.0	-247765.0	1385.0	182754.0
28	17	47	41	213	43.0	-208886.0	1371.0	182616.0
28	17	47	41	214	44.0	-157064.0	1374.0	182940.0
28	17	47	41	215	45.0	-213054.0	1388.0	182909.0
28	17	47	41	215	46.0	-257441.0	1388.0	182634.0
28	17	47	41	216	47.0	-215396.0	1364.0	182768.0
28	17	47	41	216	48.0	-162415.0	1365.0	182879.0
28	17	47	41	258	49.0	-214691.0	1358.0	182751.0
28	17	47	41	259	50.0	-252197.0	1348.0	182621.0
28	17	47	41	259	51.0	-205718.0	1351.0	182459.0
28	17	47	41	260	52.0	-155984.0	1366.0	182476.0
28	17	47	41	270	53.0	-206089.0	1362.0	182552.0
28	17	47	41	271	54.0	-234664.0	1358.0	182364.0
28	17	47	41	272	55.0	-185242.0	1354.0	182595.0
28	17	47	41	272	56.0	-149514.0	1353.0	182564.0
28	17	47	41	273	57.0	-202843.0	1367.0	182497.0
28	17	47	41	273	59.0	-170977.0	1347.0	182122.0
28	17	47	41	274	60.0	-156091.0	1342.0	181880.0
28	17	47	41	274	61.0	-203688.0	1318.0	181777.0
28	17	47	41	275	62.0	-201714.0	1319.0	181472.0
28	17	47	41	276	63.0	-150206.0	1329.0	181679.0
28	17	47	41	276	64.0	-161440.0	1326.0	182137.0
28	17	47	41	277	65.0	-195173.0	1328.0	181780.0
28	17	47	41	277	82.0	-182711.0	1299.0	180243.0
28	17	47	41	278	83.0	-162884.0	1294.0	180249.0
28	17	47	41	278	84.0	-173142.0	1300.0	180342.0
28	17	47	41	279	85.0	-190251.0	1301.0	180781.0
28	17	47	41	280	86.0	-174754.0	1311.0	180506.0
28	17	47	41	280	87.0	-179795.0	1304.0	180351.0
28	17	47	41	281	88.0	-196442.0	1297.0	179944.0
28	17	47	41	349	89.0	-183109.0	1295.0	179831.0
28	17	47	41	350	90.0	-185160.0	1301.0	179899.0
28	17	47	41	350	91.0	-199351.0	1303.0	179773.0
28	17	47	41	351	92.0	-186638.0	1315.0	179597.0
28	17	47	41	352	93.0	-186926.0	1284.0	179794.0
28	17	47	41	353	94.0	-198377.0	1266.0	180097.0
28	17	47	41	353	95.0	-186379.0	1284.0	180327.0
28	17	47	41	354	96.0	-185695.0	1269.0	180053.0
28	17	47	41	355	97.0	-193963.0	1268.0	180028.0
28	17	47	41	355	98.0	-183120.0	1264.0	179705.0
28	17	47	41	356	99.0	-183735.0	1264.0	179539.0
28	17	47	41	356	100.0	-191036.0	1246.0	179840.0
28	17	47	41	357	101.0	-182752.0	1247.0	179789.0
28	17	47	41	358	102.0	-184062.0	1247.0	179691.0
28	17	47	41	358	103.0	-188781.0	1248.0	179870.0
28	17	47	41	359	104.0	-181536.0	1251.0	180131.0
28	17	47	41	360	127.0	-224269.0	1154.0	178100.0
28	17	47	41	360	128.0	-218084.0	1154.0	178206.0
28	17	47	41	361	129.0	-227700.0	1151.0	178067.0
28	17	47	41	361	130.0	-224322.0	1148.0	177730.0
28	17	47	41	362	131.0	-215751.0	1145.0	177726.0
28	17	47	41	362	132.0	-224147.0	1147.0	177817.0
28	17	47	41	363	133.0	-220437.0	1142.0	177914.0
28	17	47	41	392	134.0	-206092.0	1149.0	177859.0
28	17	47	41	393	135.0	-212685.0	1149.0	177883.0
28	17	47	41	394	136.0	-210417.0	1145.0	177979.0
28	17	47	41	395	137.0	-192580.0	1133.0	178298.0
28	17	47	41	395	138.0	-198236.0	1104.0	177995.0
28	17	47	41	396	139.0	-202829.0	1100.0	177883.0
28	17	47	41	397	140.0	-182527.0	1097.0	177657.0
28	17	47	41	397	141.0	-182009.0	1070.0	177439.0
28	17	47	41	438	142.0	-193541.0	1061.0	177529.0
28	17	47	41	438	143.0	-181301.0	1047.0	178075.0
28	17	47	41	439	144.0	-175621.0	1059.0	178058.0
28	17	47	41	440	145.0	-189879.0	1063.0	177859.0
28	17	47	41	441	146.0	-183931.0	1061.0	178107.0
28	17	47	41	441	147.0	-166279.0	1065.0	178215.0
28	17	47	41	442	148.0	-180619.0	1071.0	178068.0
28	17	47	41	443	149.0	-188096.0	1048.0	178366.0
28	17	47	41	443	150.0	-167896.0	1029.0	178546.0
28	17	47	41	444	151.0	-172269.0	1033.0	178083.0
28	17	47	41	445	152.0	-187152.0	1041.0	177974.0
28	17	47	41	445	153.0	-174972.0	1046.0	178448.0
28	17	47	41	446	154.0	-165679.0	1039.0	178858.0
28	17	47	41	446	155.0	-184813.0	1024.0	178359.0
28	17	47	41	483	156.0	-186962.0	1019.0	177570.0
28	17	47	41	484	157.0	-167108.0	1016.0	177084.0
28	17	47	41	528	172.0	-225596.0	876.0	176394.0
28	17	47	41	553	173.0	-216758.0	846.0	176808.0
28	17	47	41	553	174.0	-199367.0	841.0	176963.0
28	17	47	41	554	175.0	-219574.0	832.0	177164.0
28	17	47	41	555	176.0	-217921.0	836.0	177106.0
28	17	47	41	555	177.0	-187745.0	828.0	177081.0
28	17	47	41	556	178.0	-197662.0	830.0	176789.0
28	17	47	41	556	179.0	-201281.0	816.0	176480.0
28	17	47	41	557	180.0	-163731.0	811.0	176382.0
28	17	47	41	557	181.0	-155668.0	804.0	176524.0
28	17	47	41	558	182.0	-174082.0	803.0	176686.0
28	17	47	41	559	183.0	-151057.0	794.0	176809.0
28	17	47	41	559	184.0	-130146.0	796.0	176681.0
28	17	47	41	560	194.0	-169142.0	761.0	176953.0
28	17	47	41	560	195.0	-178965.0	743.0	176609.0
28	17	47	41	561	196.0	-202219.0	738.0	176392.0
28	17	47	41	561	217.0	-171490.0	628.0	152824.0
28	17	47	41	562	218.0	-169356.0	626.0	158193.0
28	17	47	41	562	219.0	-167047.0	633.0	164734.0
28	17	47	41	563	220.0	-164159.0	623.0	173051.0
28	17	47	41	564	221.0	-161027.0	606.0	183298.0
28	17	47	41	564	222.0	-157382.0	588.0	192788.0
28	17	47	41	576	223.0	-151733.0	589.0	200469.0
28	17	47	41	577	224.0	-142589.0	614.0	205089.0
28	17	47	41	578	225.0	-132900.0	615.0	208024.0
28	17	47	41	579	226.0	-126870.0	602.0	210368.0
28	17	47	41	580	227.0	-130246.0	578.0	210754.0
28	17	47	41	581	228.0	-139767.0	578.0	209643.0
28	17	47	41	581	229.0	-151076.0	594.0	207739.0
28	17	47	41	582	230.0	-177279.0	585.0	206448.0
28	17	47	41	582	231.0	-203204.0	564.0	203899.0
28	17	47	41	583	232.0	-198792.0	586.0	200798.0
28	17	47	41	584	233.0	-233971.0	578.0	197236.0
28	17	47	41	584	234.0	-265596.0	564.0	192916.0
28	17	47	41	585	235.0	-256017.0	548.0	188335.0
28	17	47	41	585	236.0	-242792.0	564.0	184640.0
28	17	47	41	586	237.0	-270480.0	582.0	181399.0
28	17	47	41	587	239.0	-272787.0	565.0	177944.0
28	17	47	41	587	240.0	-297587.0	557.0	176903.0
28	17	47	41	588	241.0	-309326.0	576.0	175774.0
28	17	47	41	588	242.0	-281885.0	579.0	175246.0
28	17	47	41	589	243.0	-284163.0	578.0	174921.0
28	17	47	41	589	244.0	-289835.0	592.0	174886.0
28	17	47	41	617	245.0	-254704.0	588.0	174600.0
28	17	47	41	618	246.0	-228928.0	566.0	174191.0
28	17	47	41	619	247.0	-233923.0	549.0	173626.0
28	17	47	41	620	248.0	-217783.0	553.0	173393.0
28	17	47	41	620	249.0	-175285.0	555.0	173137.0
28	17	47	41	621	250.0	-177326.0	552.0	172871.0
28	17	47	41	621	251.0	-185028.0	542.0	172614.0
28	17	47	41	662	252.0	-162245.0	516.0	172805.0
28	17	47	41	663	253.0	-141683.0	505.0	172792.0
28	17	47	41	664	254.0	-162662.0	516.0	172746.0
28	17	47	41	665	255.0	-172535.0	501.0	172684.0
28	17	47	41	665	0.0	-150319.0	479.0	172776.0
28	17	47	41	666	1.0	-159024.0	468.0	172391.0
28	17	47	41	666	2.0	-188181.0	469.0	171725.0
28	17	47	41	667	3.0	-190796.0	459.0	171633.0
28	17	47	41	668	5.0	-179746.0	434.0	171424.0
28	17	47	41	669	6.0	-197711.0	424.0	171718.0
28	17	47	41	669	7.0	-181906.0	401.0	171949.0
28	17	47	41	670	8.0	-163212.0	403.0	171785.0
28	17	47	41	671	9.0	-187745.0	409.0	171809.0
28	17	47	41	671	10.0	-198131.0	389.0	172138.0
28	17	47	41	672	11.0	-169734.0	402.0	171868.0
28	17	47	41	673	12.0	-166577.0	428.0	171551.0
28	17	47	41	674	28.0	-166022.0	296.0	170489.0
28	17	47	41	674	29.0	-176796.0	283.0	170314.0
28	17	47	41	675	30.0	-181690.0	299.0	170244.0
28	17	47	41	677	31.0	-189534.0	280.0	170138.0
28	17	47	41	677	32.0	-200732.0	289.0	169776.0
28	17	47	41	678	33.0	-208907.0	276.0	169485.0
28	17	47	41	679	34.0	-212983.0	257.0	169397.0
28	17	47	41	708	35.0	-215031.0	268.0	169267.0
28	17	47	41	709	36.0	-216786.0	263.0	169328.0
28	17	47	41	709	37.0	-216843.0	249.0	169253.0
28	17	47	41	752	38.0	-213437.0	229.0	169040.0
28	17	47	41	753	39.0	-206808.0	220.0	169060.0
28	17	47	41	753	40.0	-200267.0	201.0	168953.0
28	17	47	41	754	41.0	-197527.0	163.0	168645.0
28	17	47	41	844	42.0	-190985.0	134.0	168564.0
28	17	47	41	845	43.0	-178226.0	109.0	168323.0
28	17	47	41	846	44.0	-169222.0	106.0	167822.0
28	17	47	41	846	45.0	-164157.0	80.0	167595.0
28	17	47	41	847	46.0	-158767.0	72.0	167996.0
28	17	47	41	848	47.0	-158249.0	46.0	168239.0
28	17	47	41	849	48.0	-157130.0	29.0	167675.0
28	17	47	41	850	49.0	-147501.0	11.0	167490.0
28	17	47	41	851	50.0	-168119.0	25.0	167797.0
28	17	47	41	851	51.0	-196174.0	-1.0	167352.0
28	17	47	41	852	52.0	-180045.0	-7.0	166809.0
28	17	47	41	852	53.0	-170221.0	-8.0	166734.0
28	17	47	41	853	73.0	-253932.0	-141.0	163278.0
28	17	47	41	854	74.0	-277356.0	-133.0	163144.0
28	17	47	41	854	75.0	-282474.0	-132.0	163374.0
28	17	47	41	855	76.0	-283210.0	-139.0	163733.0
28	17	47	41	856	118.0	-193584.0	-196.0	167439.0
28	17	47	41	856	119.0	-204594.0	-196.0	167999.0
28	17	47	41	857	120.0	-187637.0	-192.0	167829.0
28	17	47	41	857	121.0	-190116.0	-193.0	167568.0
28	17	47	41	858	122.0	-212637.0	-167.0	167899.0
28	17	47	41	859	123.0	-217994.0	-179.0	168241.0
28	17	47	41	889	124.0	-184239.0	-194.0	167901.0
28	17	47	41	889	125.0	-186876.0	-161.0	167804.0
28	17	47	41	890	126.0	-209703.0	-152.0	168314.0
28	17	47	41	890	127.0	-213142.0	-183.0	168503.0
28	17	47	41	891	128.0	-190857.0	-174.0	168173.0
28	17	47	41	892	129.0	-205763.0	-172.0	168321.0
28	17	47	41	892	130.0	-233681.0	-180.0	168661.0
28	17	47	41	893	131.0	-235042.0	-196.0	168258.0
28	17	47	41	893	132.0	-212856.0	-212.0	168111.0
28	17	47	41	894	133.0	-238649.0	-207.0	168152.0
28	17	47	41	895	134.0	-269632.0	-231.0	168128.0
28	17	47	41	895	135.0	-266199.0	-247.0	168018.0
28	17	47	41	896	136.0	-242904.0	-243.0	168064.0
28	17	47	41	896	137.0	-260026.0	-247.0	168329.0
28	17	47	41	897	138.0	-272246.0	-236.0	168356.0
28	17	47	41	897	140.0	-235030.0	-265.0	168251.0
28	17	47	41	898	141.0	-265320.0	-269.0	167837.0
28	17	47	41	898	142.0	-282496.0	-285.0	167766.0
28	17	47	41	899	143.0	-259872.0	-287.0	167683.0
28	17	47	41	900	144.0	-247825.0	-298.0	167439.0
28	17	47	41	900	145.0	-272570.0	-271.0	167620.0
28	17	47	41	901	146.0	-275080.0	-282.0	167612.0
28	17	47	41	933	147.0	-242876.0	-282.0	167682.0
28	17	47	41	934	148.0	-234477.0	-296.0	167974.0
28	17	47	41	934	149.0	-259196.0	-311.0	167819.0
28	17	47	41	935	150.0	-256981.0	-310.0	167640.0
28	17	47	41	936	151.0	-223473.0	-312.0	167724.0
28	17	47	41	936	152.0	-218902.0	-315.0	167292.0
28	17	47	41	977	153.0	-241438.0	-315.0	167314.0
28	17	47	41	978	154.0	-234007.0	-338.0	167325.0
28	17	47	41	978	155.0	-201046.0	-326.0	167376.0
28	17	47	41	979	156.0	-201657.0	-327.0	167376.0
28	17	47	41	979	157.0	-226544.0	-327.0	167298.0
28	17	47	41	980	158.0	-219707.0	-331.0	167209.0
28	17	47	41	981	159.0	-189901.0	-318.0	167513.0
28	17	47	41	981	160.0	-194341.0	-299.0	167188.0
28	17	47	41	982	161.0	-219568.0	-301.0	166840.0
28	17	47	41	982	163.0	-182362.0	-319.0	166934.0
28	17	47	41	983	164.0	-190549.0	-315.0	166933.0
28	17	47	41	984	165.0	-216259.0	-302.0	167276.0
28	17	47	41	985	166.0	-206306.0	-296.0	167644.0
28	17	47	41	986	167.0	-180511.0	-278.0	167332.0
28	17	47	41	986	168.0	-194072.0	-274.0	167083.0
28	17	47	41	987	169.0	-219746.0	-281.0	167321.0
28	17	47	41	988	185.0	-207420.0	-248.0	165973.0
28	17	47	41	989	186.0	-179102.0	-242.0	166154.0
28	17	47	41	989	187.0	-201579.0	-214.0	166201.0
28	17	47	41	990	188.0	-211707.0	-207.0	166253.0
28	17	47	41	991	189.0	-178361.0	-206.0	166453.0
28	17	47	41	991	190.0	-171806.0	-195.0	166163.0
28	17	47	41	992	191.0	-195399.0	-195.0	166068.0
28	17	47	42	23	192.0	-180556.0	-198.0	166430.0
28	17	47	42	23	193.0	-154378.0	-168.0	166001.0
28	17	47	42	24	194.0	-172988.0	-159.0	165747.0
28	17	47	42	25	195.0	-176616.0	-154.0	165901.0
28	17	47	42	25	196.0	-146052.0	-164.0	165918.0
28	17	47	42	26	197.0	-149412.0	-150.0	165875.0
28	17	47	42	26	198.0	-164386.0	-163.0	165794.0
28	17	47	42	67	199.0	-142711.0	-154.0	165836.0
28	17	47	42	68	200.0	-133594.0	-143.0	165568.0
28	17	47	42	68	201.0	-155943.0	-127.0	165654.0
28	17	47	42	69	202.0	-148821.0	-135.0	165738.0
28	17	47	42	70	203.0	-131214.0	-159.0	165719.0
28	17	47	42	70	204.0	-151783.0	-168.0	165374.0
28	17	47	42	71	205.0	-155984.0	-171.0	165544.0
28	17	47	42	71	206.0	-135194.0	-167.0	166021.0
28	17	47	42	72	207.0	-149090.0	-171.0	166058.0
28	17	47	42	73	208.0	-162417.0	-180.0	165951.0
28	17	47	42	73	209.0	-144366.0	-174.0	165628.0
28	17	47	42	74	210.0	-149710.0	-164.0	165839.0
28	17	47	42	74	211.0	-168897.0	-156.0	165716.0
28	17	47	42	75	212.0	-157488.0	-146.0	165693.0
28	17	47	42	76	213.0	-156296.0	-138.0	165583.0
28	17	47	42	76	214.0	-177881.0	-131.0	165367.0
28	17	47	42	77	230.0	-208088.0	-78.0	165468.0
28	17	47	42	77	231.0	-198719.0	-70.0	165448.0
28	17	47	42	78	232.0	-202041.0	-61.0	165265.0
28	17	47	42	79	233.0	-217101.0	-56.0	164901.0
28	17	47	42	112	234.0	-208367.0	-49.0	164956.0
28	17	47	42	113	235.0	-206629.0	-29.0	165467.0
28	17	47	42	114	236.0	-222404.0	-36.0	165088.0
28	17	47	42	114	237.0	-216494.0	-32.0	165085.0
28	17	47	42	115	238.0	-210488.0	-22.0	165480.0
28	17	47	42	116	239.0	-225401.0	-9.0	165468.0
28	17	47	42	116	240.0	-221187.0	4.0	165265.0
28	17	47	42	117	241.0	-210164.0	-11.0	164752.0
28	17	47	42	117	242.0	-223936.0	-7.0	164839.0
28	17	47	42	118	243.0	-222816.0	-7.0	165047.0
28	17	47	42	118	244.0	-209348.0	-2.0	164918.0
28	17	47	42	204	245.0	-223077.0	11.0	164645.0
28	17	47	42	204	246.0	-227770.0	24.0	164670.0
28	17	47	42	205	247.0	-213257.0	14.0	164702.0
28	17	47	42	206	248.0	-223861.0	34.0	164976.0
28	17	47	42	206	252.0	-240654.0	59.0	164517.0
28	17	47	42	207	253.0	-227862.0	58.0	164513.0
28	17	47	42	207	254.0	-228182.0	103.0	164564.0
28	17	47	42	208	255.0	-243131.0	119.0	164603.0
28	17	47	42	208	0.0	-233617.0	130.0	164448.0
28	17	47	42	209	1.0	-225738.0	136.0	164434.0
28	17	47	42	249	2.0	-241643.0	148.0	164373.0
28	17	47	42	250	3.0	-242802.0	180.0	164320.0
28	17	47	42	250	4.0	-227072.0	180.0	163961.0
28	17	47	42	251	5.0	-227796.0	170.0	163969.0
28	17	47	42	252	6.0	-228879.0	143.0	163949.0
28	17	47	42	252	19.0	-191486.0	256.0	164053.0
28	17	47	42	253	42.0	-207972.0	284.0	162749.0
28	17	47	42	295	43.0	-194732.0	282.0	162573.0
28	17	47	42	295	44.0	-175866.0	290.0	162278.0
28	17	47	42	296	45.0	-183944.0	301.0	162356.0
28	17	47	42	297	46.0	-202745.0	323.0	162094.0
28	17	47	42	297	47.0	-194841.0	301.0	161940.0
28	17	47	42	298	48.0	-179524.0	294.0	162122.0
28	17	47	42	298	49.0	-181708.0	290.0	162287.0
28	17	47	42	337	50.0	-197209.0	292.0	162046.0
28	17	47	42	346	51.0	-197398.0	303.0	162059.0
28	17	47	42	347	64.0	-197883.0	313.0	160916.0
28	17	47	42	348	65.0	-197037.0	329.0	160945.0
28	17	47	42	348	66.0	-196352.0	341.0	161151.0
28	17	47	42	349	67.0	-195790.0	346.0	160784.0
28	17	47	42	349	68.0	-195236.0	339.0	160838.0
28	17	47	42	383	69.0	-194794.0	318.0	160845.0
28	17	47	42	384	70.0	-193802.0	323.0	161009.0
28	17	47	42	384	86.0	-188900.0	308.0	159494.0
28	17	47	42	385	87.0	-188699.0	287.0	160024.0
28	17	47	42	386	88.0	-188526.0	315.0	160686.0
28	17	47	42	386	89.0	-189049.0	341.0	160848.0
28	17	47	42	387	90.0	-189827.0	353.0	160304.0
28	17	47	42	474	91.0	-191381.0	354.0	159881.0
28	17	47	42	475	92.0	-192973.0	353.0	159554.0
28	17	47	42	476	109.0	-212309.0	353.0	158909.0
28	17	47	42	476	110.0	-213495.0	371.0	158547.0
28	17	47	42	477	111.0	-214377.0	373.0	158749.0
28	17	47	42	478	112.0	-214731.0	370.0	158691.0
28	17	47	42	478	113.0	-215962.0	386.0	158326.0
28	17	47	42	480	114.0	-217250.0	387.0	158486.0
28	17	47	42	480	115.0	-218192.0	371.0	157871.0
28	17	47	42	481	131.0	-209403.0	381.0	155699.0
28	17	47	42	482	132.0	-208769.0	376.0	154864.0
28	17	47	42	482	133.0	-207434.0	385.0	153024.0
28	17	47	42	483	134.0	-206557.0	389.0	150993.0
28	17	47	42	484	135.0	-206019.0	408.0	148617.0
28	17	47	42	485	136.0	-205755.0	402.0	145954.0
28	17	47	42	485	137.0	-206176.0	381.0	142274.0
28	17	47	42	486	176.0	-216439.0	223.0	153504.0
28	17	47	42	486	177.0	-215561.0	203.0	153519.0
28	17	47	42	487	178.0	-216851.0	226.0	153261.0
28	17	47	42	488	179.0	-219721.0	244.0	153218.0
28	17	47	42	488	180.0	-223607.0	233.0	152938.0
28	17	47	42	489	181.0	-228254.0	237.0	152818.0
28	17	47	42	490	182.0	-233667.0	243.0	152863.0
28	17	47	42	518	183.0	-238922.0	239.0	152514.0
28	17	47	42	520	184.0	-240337.0	249.0	152021.0
28	17	47	42	521	185.0	-237251.0	268.0	151864.0
28	17	47	42	521	186.0	-230225.0	241.0	151742.0
28	17	47	42	522	187.0	-222299.0	237.0	151895.0
28	17	47	42	523	188.0	-215297.0	230.0	151654.0
28	17	47	42	523	189.0	-208325.0	213.0	151697.0
28	17	47	42	562	190.0	-201766.0	198.0	152047.0
28	17	47	42	563	191.0	-196227.0	196.0	152124.0
28	17	47	42	564	192.0	-192363.0	202.0	151870.0
28	17	47	42	565	193.0	-190368.0	193.0	151776.0
28	17	47	42	566	194.0	-189877.0	202.0	151511.0
28	17	47	42	567	195.0	-188502.0	208.0	151044.0
28	17	47	42	568	196.0	-185051.0	196.0	151023.0
28	17	47	42	568	197.0	-181022.0	186.0	151091.0
28	17	47	42	569	198.0	-178049.0	188.0	151100.0
28	17	47	42	571	199.0	-176152.0	176.0	150871.0
28	17	47	42	572	200.0	-174394.0	179.0	150729.0
28	17	47	42	572	201.0	-172892.0	191.0	151059.0
28	17	47	42	573	202.0	-171411.0	190.0	151018.0
28	17	47	42	573	203.0	-169668.0	183.0	150941.0
28	17	47	42	574	204.0	-168672.0	192.0	150941.0
28	17	47	42	575	205.0	-168937.0	197.0	150751.0
28	17	47	42	575	221.0	-252929.0	118.0	149331.0
28	17	47	42	576	222.0	-255151.0	123.0	149464.0
28	17	47	42	577	223.0	-256334.0	118.0	148990.0
28	17	47	42	577	224.0	-255945.0	127.0	148616.0
28	17	47	42	578	225.0	-255444.0	129.0	148476.0
28	17	47	42	578	226.0	-254677.0	139.0	148311.0
28	17	47	42	579	227.0	-253037.0	134.0	148191.0
28	17	47	42	618	228.0	-251028.0	128.0	148151.0
28	17	47	42	619	229.0	-249159.0	145.0	147844.0
28	17	47	42	620	230.0	-246494.0	162.0	148076.0
28	17	47	42	620	231.0	-243642.0	143.0	147930.0
28	17	47	42	621	232.0	-240960.0	117.0	147563.0
28	17	47	42	622	233.0	-238351.0	123.0	147291.0
28	17	47	42	622	234.0	-235916.0	131.0	146989.0
28	17	47	42	623	235.0	-233516.0	124.0	146313.0
28	17	47	42	623	236.0	-230999.0	99.0	146069.0
28	17	47	42	624	237.0	-229377.0	98.0	146348.0
28	17	47	42	625	238.0	-228284.0	104.0	146672.0
28	17	47	42	625	239.0	-226744.0	113.0	146799.0
28	17	47	42	626	240.0	-226123.0	109.0	146846.0
28	17	47	42	626	241.0	-226357.0	122.0	146861.0
28	17	47	42	627	242.0	-227211.0	125.0	146691.0
28	17	47	42	628	243.0	-229679.0	114.0	146199.0
28	17	47	42	653	244.0	-232644.0	99.0	146183.0
28	17	47	42	654	245.0	-234619.0	99.0	146094.0
28	17	47	42	677	246.0	-236371.0	105.0	145651.0
28	17	47	42	678	247.0	-239936.0	109.0	145432.0
28	17	47	42	678	248.0	-244174.0	89.0	145703.0
28	17	47	42	679	249.0	-248381.0	97.0	145588.0
28	17	47	42	680	250.0	-252161.0	106.0	145693.0
28	17	47	42	680	251.0	-255258.0	103.0	145507.0
28	17	47	42	700	252.0	-257157.0	108.0	145181.0
28	17	47	42	701	253.0	-257784.0	102.0	144739.0
28	17	47	42	702	254.0	-257728.0	84.0	144755.0
28	17	47	42	703	255.0	-258141.0	78.0	144534.0
28	17	47	42	703	0.0	-259447.0	81.0	144156.0
28	17	47	42	704	1.0	-260684.0	91.0	144104.0
28	17	47	42	705	2.0	-262627.0	95.0	144187.0
28	17	47	42	705	10.0	-255281.0	53.0	143802.0
28	17	47	42	742	11.0	-252355.0	58.0	143964.0
28	17	47	42	743	12.0	-248548.0	73.0	144241.0
28	17	47	42	788	13.0	-244715.0	66.0	144234.0
28	17	47	42	788	14.0	-240787.0	76.0	144309.0
28	17	47	42	789	15.0	-236986.0	77.0	144611.0
28	17	47	42	790	16.0	-233143.0	77.0	144473.0
28	17	47	42	791	17.0	-229151.0	76.0	144423.0
28	17	47	42	791	32.0	-187974.0	104.0	146456.0
28	17	47	42	792	33.0	-186906.0	118.0	146717.0
28	17	47	42	793	34.0	-186312.0	118.0	146991.0
28	17	47	42	793	35.0	-185629.0	121.0	147298.0
28	17	47	42	794	36.0	-185672.0	139.0	147304.0
28	17	47	42	795	37.0	-186762.0	134.0	147164.0
28	17	47	42	795	38.0	-187189.0	129.0	147664.0
28	17	47	42	796	39.0	-189294.0	144.0	147632.0
28	17	47	42	796	55.0	-211018.0	151.0	148987.0
28	17	47	42	797	56.0	-218841.0	156.0	148730.0
28	17	47	42	798	57.0	-224606.0	161.0	148723.0
28	17	47	42	798	77.0	-179179.0	173.0	147312.0
28	17	47	42	799	78.0	-175475.0	166.0	147028.0
28	17	47	42	800	79.0	-173161.0	183.0	146811.0
28	17	47	42	800	80.0	-172441.0	183.0	146724.0
28	17	47	42	801	81.0	-172979.0	181.0	146819.0
28	17	47	42	802	82.0	-174814.0	179.0	146815.0
28	17	47	42	802	83.0	-177252.0	181.0	146692.0
28	17	47	42	833	84.0	-179557.0	187.0	146708.0
28	17	47	42	833	85.0	-181206.0	176.0	146893.0
28	17	47	42	834	86.0	-182287.0	188.0	146785.0
28	17	47	42	835	87.0	-182936.0	189.0	146613.0
28	17	47	42	835	88.0	-183179.0	183.0	146453.0
28	17	47	42	836	89.0	-182770.0	176.0	146469.0
28	17	47	42	845	90.0	-182475.0	178.0	146529.0
28	17	47	42	877	91.0	-182727.0	190.0	146732.0
28	17	47	42	878	92.0	-182657.0	183.0	146742.0
28	17	47	42	879	93.0	-182836.0	189.0	146498.0
28	17	47	42	880	94.0	-183516.0	178.0	146825.0
28	17	47	42	880	95.0	-184126.0	177.0	146574.0
28	17	47	42	881	96.0	-184679.0	172.0	146094.0
28	17	47	42	881	97.0	-184315.0	162.0	146324.0
28	17	47	42	882	98.0	-183351.0	172.0	146309.0
28	17	47	42	922	99.0	-181950.0	171.0	146031.0
28	17	47	42	942	100.0	-180181.0	186.0	145960.0
28	17	47	42	943	101.0	-178283.0	196.0	146254.0
28	17	47	42	943	102.0	-176826.0	189.0	146439.0
28	17	47	42	944	103.0	-175114.0	208.0	146236.0
28	17	47	42	945	104.0	-172716.0	214.0	146328.0
28	17	47	42	945	105.0	-170504.0	192.0	146629.0
28	17	47	42	967	106.0	-168301.0	204.0	146283.0
28	17	47	42	968	122.0	-161571.0	126.0	146079.0
28	17	47	42	968	123.0	-163512.0	124.0	146343.0
28	17	47	42	969	124.0	-165217.0	116.0	145996.0
28	17	47	42	970	125.0	-166277.0	105.0	145809.0
28	17	47	42	970	126.0	-167794.0	102.0	146042.0
28	17	47	42	971	127.0	-169794.0	114.0	146006.0
28	17	47	43	12	128.0	-171332.0	124.0	145962.0
28	17	47	43	13	144.0	-202273.0	113.0	146296.0
28	17	47	43	14	145.0	-202802.0	123.0	146657.0
28	17	47	43	14	146.0	-204425.0	131.0	146263.0
28	17	47	43	15	147.0	-207401.0	121.0	145987.0
28	17	47	43	16	148.0	-210439.0	124.0	146123.0
28	17	47	43	17	149.0	-212282.0	114.0	145941.0
28	17	47	43	17	150.0	-213807.0	104.0	145919.0
28	17	47	43	18	151.0	-214875.0	94.0	145655.0
28	17	47	43	18	167.0	-186689.0	55.0	145625.0
28	17	47	43	58	168.0	-184162.0	53.0	145293.0
28	17	47	43	59	169.0	-182914.0	59.0	144946.0
28	17	47	43	60	170.0	-181888.0	60.0	145329.0
28	17	47	43	60	171.0	-182346.0	59.0	145666.0
28	17	47	43	61	172.0	-183196.0	55.0	145533.0
28	17	47	43	62	173.0	-184257.0	49.0	145619.0
28	17	47	43	62	190.0	-195659.0	21.0	145560.0
28	17	47	43	63	191.0	-197631.0	31.0	145892.0
28	17	47	43	64	192.0	-200094.0	24.0	145929.0
28	17	47	43	64	193.0	-201880.0	-3.0	145515.0
28	17	47	43	65	194.0	-203718.0	9.0	145528.0
28	17	47	43	66	195.0	-205639.0	34.0	145606.0
28	17	47	43	66	196.0	-206792.0	9.0	145411.0
28	17	47	43	67	197.0	-208078.0	13.0	145182.0
28	17	47	43	68	198.0	-209360.0	34.0	145159.0
28	17	47	43	68	199.0	-209198.0	29.0	145228.0
28	17	47	43	69	212.0	-204769.0	-9.0	144891.0
28	17	47	43	70	213.0	-205109.0	-11.0	145318.0
28	17	47	43	70	214.0	-205296.0	-17.0	145371.0
28	17	47	43	71	215.0	-204001.0	-36.0	144813.0
28	17	47	43	71	216.0	-203252.0	-36.0	144956.0
28	17	47	43	72	217.0	-202961.0	-40.0	145026.0
28	17	47	43	102	218.0	-201723.0	-38.0	144582.0
28	17	47	43	103	219.0	-200564.0	-50.0	144572.0
28	17	47	43	104	220.0	-200130.0	-51.0	144606.0
28	17	47	43	105	221.0	-199364.0	-70.0	144929.0
28	17	47	43	105	222.0	-197898.0	-86.0	144525.0
28	17	47	43	106	223.0	-196734.0	-98.0	144790.0
28	17	47	43	106	224.0	-195154.0	-97.0	144952.0
28	17	47	43	107	225.0	-193024.0	-102.0	144471.0
28	17	47	43	108	226.0	-192253.0	-127.0	144523.0
28	17	47	43	108	227.0	-192033.0	-131.0	144526.0
28	17	47	43	109	228.0	-190511.0	-139.0	144326.0
28	17	47	43	110	229.0	-189351.0	-132.0	143948.0
28	17	47	43	110	230.0	-189547.0	-134.0	143810.0
28	17	47	43	111	231.0	-189524.0	-137.0	143904.0
28	17	47	43	112	232.0	-189961.0	-139.0	144071.0
28	17	47	43	112	234.0	-192271.0	-156.0	144053.0
28	17	47	43	113	235.0	-193369.0	-168.0	143904.0
28	17	47	43	114	236.0	-194907.0	-153.0	143984.0
28	17	47	43	115	237.0	-196049.0	-139.0	144038.0
28	17	47	43	116	238.0	-196865.0	-153.0	143636.0
28	17	47	43	116	239.0	-197888.0	-133.0	143793.0
28	17	47	43	117	240.0	-199223.0	-135.0	144181.0
28	17	47	43	147	241.0	-200199.0	-151.0	144109.0
28	17	47	43	148	242.0	-201532.0	-134.0	143882.0
28	17	47	43	193	243.0	-202974.0	-136.0	144113.0
28	17	47	43	194	244.0	-203627.0	-144.0	143952.0
28	17	47	43	195	245.0	-203637.0	-152.0	144059.0
28	17	47	43	196	246.0	-203071.0	-149.0	144189.0
28	17	47	43	196	247.0	-201752.0	-143.0	143986.0
28	17	47	43	197	248.0	-199615.0	-146.0	143983.0
28	17	47	43	198	249.0	-197101.0	-137.0	144017.0
28	17	47	43	198	250.0	-193872.0	-144.0	144553.0
28	17	47	43	199	251.0	-190399.0	-161.0	144441.0
28	17	47	43	200	252.0	-186930.0	-156.0	144315.0
28	17	47	43	200	253.0	-183344.0	-162.0	144642.0
28	17	47	43	201	254.0	-179659.0	-151.0	144986.0
28	17	47	43	201	255.0	-177094.0	-139.0	144738.0
28	17	47	43	202	1.0	-172866.0	-151.0	144156.0
28	17	47	43	203	2.0	-171392.0	-143.0	143697.0
28	17	47	43	203	3.0	-170866.0	-146.0	143371.0
28	17	47	43	204	23.0	-202756.0	-209.0	142481.0
28	17	47	43	205	24.0	-205227.0	-212.0	142769.0
28	17	47	43	205	25.0	-206871.0	-194.0	142146.0
28	17	47	43	206	26.0	-207787.0	-202.0	142551.0
28	17	47	43	206	27.0	-208931.0	-203.0	142874.0
28	17	47	43	207	28.0	-209997.0	-199.0	142683.0
28	17	47	43	208	29.0	-210979.0	-170.0	142604.0
28	17	47	43	238	30.0	-212292.0	-156.0	142404.0
28	17	47	43	239	31.0	-213495.0	-162.0	142280.0
28	17	47	43	239	32.0	-213901.0	-158.0	142137.0
28	17	47	43	240	33.0	-213897.0	-153.0	142024.0
28	17	47	43	241	34.0	-213814.0	-149.0	142071.0
28	17	47	43	241	35.0	-213042.0	-152.0	142368.0
28	17	47	43	242	36.0	-212017.0	-139.0	142271.0
28	17	47	43	283	37.0	-210881.0	-164.0	142196.0
28	17	47	43	284	38.0	-210408.0	-168.0	142010.0
28	17	47	43	284	39.0	-210929.0	-146.0	141909.0
28	17	47	43	285	40.0	-210734.0	-131.0	141998.0
28	17	47	43	285	41.0	-211351.0	-139.0	142376.0
28	17	47	43	286	42.0	-212829.0	-145.0	142460.0
28	17	47	43	287	43.0	-213967.0	-132.0	142096.0
28	17	47	43	287	44.0	-214652.0	-129.0	142128.0
28	17	47	43	329	45.0	-215966.0	-141.0	142548.0
28	17	47	43	329	46.0	-217643.0	-161.0	142702.0
28	17	47	43	330	47.0	-218848.0	-142.0	142978.0
28	17	47	43	330	48.0	-219304.0	-143.0	142879.0
28	17	47	43	331	49.0	-219557.0	-143.0	142502.0
28	17	47	43	332	50.0	-220693.0	-126.0	142150.0
28	17	47	43	332	51.0	-222558.0	-134.0	141624.0
28	17	47	43	333	52.0	-224027.0	-132.0	140937.0
28	17	47	43	419	68.0	-220587.0	-142.0	154468.0
28	17	47	43	420	69.0	-219267.0	-149.0	160718.0
28	17	47	43	421	70.0	-217931.0	-136.0	165061.0
28	17	47	43	422	71.0	-215662.0	-122.0	167840.0
28	17	47	43	422	72.0	-212647.0	-111.0	170004.0
28	17	47	43	423	73.0	-209366.0	-132.0	170974.0
28	17	47	43	424	74.0	-206030.0	-139.0	170621.0
28	17	47	43	424	90.0	-169214.0	-226.0	140005.0
28	17	47	43	463	91.0	-168532.0	-214.0	139759.0
28	17	47	43	463	92.0	-166026.0	-237.0	139699.0
28	17	47	43	464	93.0	-161837.0	-215.0	139742.0
28	17	47	43	465	94.0	-156232.0	-217.0	139656.0
28	17	47	43	465	95.0	-150676.0	-208.0	139254.0
28	17	47	43	466	96.0	-145908.0	-216.0	139503.0
28	17	47	43	466	97.0	-142011.0	-224.0	139008.0
28	17	47	43	467	113.0	-149786.0	-388.0	136817.0
28	17	47	43	508	136.0	-159880.0	-497.0	135631.0
28	17	47	43	509	137.0	-172439.0	-475.0	135442.0
28	17	47	43	509	138.0	-184752.0	-472.0	135249.0
28	17	47	43	510	139.0	-196270.0	-481.0	134902.0
28	17	47	43	511	140.0	-206517.0	-500.0	134687.0
28	17	47	43	511	141.0	-215722.0	-502.0	134537.0
28	17	47	43	512	142.0	-223721.0	-497.0	134306.0
28	17	47	43	513	158.0	-199126.0	-587.0	132469.0
28	17	47	43	513	159.0	-198454.0	-594.0	132452.0
28	17	47	43	514	160.0	-198177.0	-597.0	132319.0
28	17	47	43	553	161.0	-197699.0	-576.0	132261.0
28	17	47	43	553	162.0	-197871.0	-589.0	132341.0
28	17	47	43	554	163.0	-199491.0	-574.0	131913.0
28	17	47	43	555	164.0	-202556.0	-579.0	131737.0
28	17	47	43	555	165.0	-205572.0	-582.0	131983.0
28	17	47	43	556	166.0	-208397.0	-572.0	131873.0
28	17	47	43	557	180.0	-263431.0	-612.0	130485.0
28	17	47	43	598	181.0	-266126.0	-611.0	130318.0
28	17	47	43	599	182.0	-268597.0	-604.0	130433.0
28	17	47	43	600	183.0	-270687.0	-585.0	130603.0
28	17	47	43	601	184.0	-272970.0	-597.0	130198.0
28	17	47	43	601	185.0	-275091.0	-620.0	129894.0
28	17	47	43	602	186.0	-276590.0	-602.0	130268.0
28	17	47	43	602	187.0	-277782.0	-589.0	130653.0
28	17	47	43	603	188.0	-278974.0	-592.0	130394.0
28	17	47	43	643	189.0	-280368.0	-610.0	130519.0
28	17	47	43	644	203.0	-253345.0	-581.0	131149.0
28	17	47	43	645	204.0	-251577.0	-571.0	131420.0
28	17	47	43	645	205.0	-250160.0	-531.0	131618.0
28	17	47	43	646	206.0	-249296.0	-521.0	131845.0
28	17	47	43	646	207.0	-248537.0	-536.0	132064.0
28	17	47	43	655	208.0	-247963.0	-542.0	132153.0
28	17	47	43	688	209.0	-248082.0	-524.0	132534.0
28	17	47	43	689	225.0	-218797.0	-464.0	134634.0
28	17	47	43	689	226.0	-217849.0	-472.0	134716.0
28	17	47	43	733	227.0	-217052.0	-459.0	134616.0
28	17	47	43	733	228.0	-216211.0	-447.0	134598.0
28	17	47	43	734	229.0	-216665.0	-436.0	134773.0
28	17	47	43	735	230.0	-218793.0	-451.0	134769.0
28	17	47	43	735	231.0	-222306.0	-453.0	134478.0
28	17	47	43	736	247.0	-177250.0	-419.0	134844.0
28	17	47	43	737	248.0	-177646.0	-415.0	134764.0
28	17	47	43	738	249.0	-177313.0	-419.0	134574.0
28	17	47	43	738	250.0	-175410.0	-419.0	134616.0
28	17	47	43	739	251.0	-173411.0	-414.0	134334.0
28	17	47	43	740	252.0	-171784.0	-392.0	134377.0
28	17	47	43	741	253.0	-170536.0	-386.0	134478.0
28	17	47	43	742	254.0	-170464.0	-397.0	134317.0
28	17	47	43	742	14.0	-180199.0	-409.0	134831.0
28	17	47	43	743	15.0	-180249.0	-418.0	134481.0
28	17	47	43	744	16.0	-180548.0	-410.0	134439.0
28	17	47	43	745	37.0	-166755.0	-431.0	134056.0
28	17	47	43	745	38.0	-167332.0	-439.0	133979.0
28	17	47	43	746	39.0	-168416.0	-455.0	134219.0
28	17	47	43	747	40.0	-170591.0	-433.0	134343.0
28	17	47	43	748	41.0	-172581.0	-442.0	134323.0
28	17	47	43	748	42.0	-174365.0	-442.0	134518.0
28	17	47	43	779	43.0	-176077.0	-435.0	134283.0
28	17	47	43	779	44.0	-176622.0	-436.0	134021.0
28	17	47	43	780	45.0	-176648.0	-449.0	133646.0
28	17	47	43	781	46.0	-176457.0	-451.0	134261.0
28	17	47	43	781	47.0	-176256.0	-453.0	134383.0
28	17	47	43	782	48.0	-175574.0	-461.0	134253.0
28	17	47	43	782	49.0	-174515.0	-472.0	134279.0
28	17	47	43	783	50.0	-173991.0	-471.0	134277.0
28	17	47	43	784	51.0	-173072.0	-457.0	134257.0
28	17	47	43	784	52.0	-171781.0	-449.0	134305.0
28	17	47	43	785	53.0	-170084.0	-461.0	134294.0
28	17	47	43	786	54.0	-167963.0	-471.0	133961.0
28	17	47	43	786	55.0	-165944.0	-471.0	133911.0
28	17	47	43	787	56.0	-164559.0	-468.0	133959.0
28	17	47	43	788	57.0	-163247.0	-491.0	133888.0
28	17	47	43	788	59.0	-160441.0	-493.0	134106.0
28	17	47	43	789	60.0	-159592.0	-500.0	134316.0
28	17	47	43	789	61.0	-158307.0	-481.0	134234.0
28	17	47	43	790	62.0	-156511.0	-464.0	134363.0
28	17	47	43	791	63.0	-155316.0	-481.0	134108.0
28	17	47	43	791	64.0	-154611.0	-485.0	133884.0
28	17	47	43	823	65.0	-154247.0	-486.0	133803.0
28	17	47	43	824	66.0	-154381.0	-484.0	133789.0
28	17	47	43	824	67.0	-153585.0	-481.0	133874.0
28	17	47	43	825	68.0	-152304.0	-469.0	134166.0
28	17	47	43	826	69.0	-151352.0	-492.0	134604.0
28	17	47	43	826	70.0	-150741.0	-507.0	134648.0
28	17	47	43	827	71.0	-150335.0	-506.0	134429.0
28	17	47	43	827	72.0	-149326.0	-488.0	134311.0
28	17	47	43	828	73.0	-148189.0	-491.0	134502.0
28	17	47	43	829	74.0	-147546.0	-507.0	134352.0
28	17	47	43	829	75.0	-147624.0	-506.0	133987.0
28	17	47	43	830	76.0	-148248.0	-499.0	134199.0
28	17	47	43	830	77.0	-149316.0	-497.0	134351.0
28	17	47	43	831	78.0	-151595.0	-509.0	134439.0
28	17	47	43	832	79.0	-154956.0	-512.0	134529.0
28	17	47	43	832	81.0	-163763.0	-516.0	133960.0
28	17	47	43	833	82.0	-168717.0	-507.0	134283.0
28	17	47	43	833	83.0	-173316.0	-492.0	134684.0
28	17	47	43	834	84.0	-177259.0	-496.0	134307.0
28	17	47	43	834	85.0	-181169.0	-502.0	133951.0
28	17	47	43	835	86.0	-185259.0	-501.0	134005.0
28	17	47	43	836	87.0	-188185.0	-489.0	133953.0
28	17	47	43	868	88.0	-190168.0	-477.0	134099.0
28	17	47	43	869	89.0	-192916.0	-479.0	134359.0
28	17	47	43	869	90.0	-195407.0	-486.0	134293.0
28	17	47	43	870	91.0	-197463.0	-497.0	134159.0
28	17	47	43	870	92.0	-199437.0	-504.0	134176.0
28	17	47	43	871	93.0	-201031.0	-506.0	133885.0
28	17	47	43	871	94.0	-202193.0	-497.0	133685.0
28	17	47	43	913	95.0	-202596.0	-520.0	133504.0
28	17	47	43	913	96.0	-203251.0	-536.0	133416.0
28	17	47	43	914	97.0	-204395.0	-531.0	133644.0
28	17	47	43	915	98.0	-205354.0	-545.0	133836.0
28	17	47	43	915	99.0	-206510.0	-533.0	133997.0
28	17	47	43	916	100.0	-206837.0	-534.0	133998.0
28	17	47	43	916	101.0	-206664.0	-529.0	133885.0
28	17	47	43	959	102.0	-205963.0	-535.0	133581.0
28	17	47	43	959	104.0	-203876.0	-536.0	133432.0
28	17	47	43	960	105.0	-202571.0	-522.0	133738.0
28	17	47	43	961	106.0	-201537.0	-526.0	133704.0
28	17	47	43	961	107.0	-200872.0	-515.0	133666.0
28	17	47	43	962	108.0	-199916.0	-506.0	133473.0
28	17	47	43	962	109.0	-198776.0	-527.0	133652.0
28	17	47	44	3	110.0	-197777.0	-548.0	133796.0
28	17	47	44	4	111.0	-196978.0	-553.0	133723.0
28	17	47	44	5	126.0	-225025.0	-624.0	133336.0
28	17	47	44	6	127.0	-227131.0	-628.0	133554.0
28	17	47	44	6	128.0	-229068.0	-614.0	133620.0
28	17	47	44	7	129.0	-230232.0	-617.0	133929.0
28	17	47	44	7	130.0	-230119.0	-602.0	133886.0
28	17	47	44	8	131.0	-229466.0	-604.0	133748.0
28	17	47	44	9	132.0	-229129.0	-611.0	133563.0
28	17	47	44	9	149.0	-194264.0	-785.0	132967.0
28	17	47	44	10	150.0	-190619.0	-792.0	132623.0
28	17	47	44	10	151.0	-187721.0	-794.0	132571.0
28	17	47	44	11	152.0	-184991.0	-798.0	132810.0
28	17	47	44	12	153.0	-181866.0	-814.0	132521.0
28	17	47	44	12	154.0	-178827.0	-831.0	132081.0
28	17	47	44	13	155.0	-177527.0	-837.0	132397.0
28	17	47	44	13	171.0	-221904.0	-949.0	132860.0
28	17	47	44	14	172.0	-222439.0	-952.0	133347.0
28	17	47	44	15	173.0	-223350.0	-967.0	133273.0
28	17	47	44	15	174.0	-224026.0	-961.0	132862.0
28	17	47	44	16	175.0	-224193.0	-962.0	132673.0
28	17	47	44	16	176.0	-224444.0	-974.0	132245.0
28	17	47	44	17	177.0	-224552.0	-978.0	132024.0
28	17	47	44	48	178.0	-223488.0	-977.0	132315.0
28	17	47	44	49	179.0	-222467.0	-959.0	132801.0
28	17	47	44	50	180.0	-220846.0	-981.0	132583.0
28	17	47	44	50	181.0	-218609.0	-984.0	132902.0
28	17	47	44	51	182.0	-216861.0	-989.0	133446.0
28	17	47	44	51	183.0	-215567.0	-1007.0	133277.0
28	17	47	44	52	184.0	-213742.0	-1029.0	132664.0
28	17	47	44	138	185.0	-210261.0	-1039.0	132549.0
28	17	47	44	138	186.0	-206146.0	-1046.0	132196.0
28	17	47	44	184	187.0	-203046.0	-1067.0	132016.0
28	17	47	44	228	188.0	-201179.0	-1072.0	131815.0
28	17	47	44	229	189.0	-200066.0	-1074.0	132091.0
28	17	47	44	229	190.0	-199380.0	-1065.0	132213.0
28	17	47	44	230	191.0	-199703.0	-1084.0	132166.0
28	17	47	44	231	193.0	-199958.0	-1092.0	132439.0
28	17	47	44	231	194.0	-199911.0	-1128.0	132033.0
28	17	47	44	232	195.0	-199606.0	-1132.0	132070.0
28	17	47	44	233	196.0	-199179.0	-1124.0	132098.0
28	17	47	44	233	197.0	-200064.0	-1116.0	131796.0
28	17	47	44	234	198.0	-201924.0	-1113.0	131909.0
28	17	47	44	235	199.0	-204044.0	-1120.0	132551.0
28	17	47	44	235	200.0	-206099.0	-1120.0	132288.0
28	17	47	44	236	201.0	-208301.0	-1124.0	132162.0
28	17	47	44	236	239.0	-200167.0	-1337.0	119356.0
28	17	47	44	237	5.0	-217481.0	-1441.0	132736.0
28	17	47	44	238	27.0	-208461.0	-1527.0	127275.0
28	17	47	44	238	28.0	-198497.0	-1534.0	126947.0
28	17	47	44	239	29.0	-190183.0	-1542.0	127240.0
28	17	47	44	239	30.0	-183571.0	-1535.0	127233.0
28	17	47	44	240	31.0	-179224.0	-1529.0	127749.0
28	17	47	44	241	32.0	-176752.0	-1537.0	127637.0
28	17	47	44	241	33.0	-174853.0	-1524.0	126932.0
28	17	47	44	273	34.0	-172390.0	-1516.0	127127.0
28	17	47	44	274	35.0	-169792.0	-1508.0	127209.0
28	17	47	44	275	36.0	-166816.0	-1518.0	127124.0
28	17	47	44	276	37.0	-164614.0	-1529.0	126718.0
28	17	47	44	276	38.0	-163349.0	-1523.0	126734.0
28	17	47	44	277	39.0	-163091.0	-1537.0	126639.0
28	17	47	44	278	40.0	-163627.0	-1539.0	126366.0
28	17	47	44	364	41.0	-164862.0	-1545.0	126793.0
28	17	47	44	365	42.0	-167013.0	-1571.0	127249.0
28	17	47	44	365	43.0	-169819.0	-1566.0	127072.0
28	17	47	44	366	44.0	-174224.0	-1584.0	126865.0
28	17	47	44	367	45.0	-179860.0	-1591.0	126701.0
28	17	47	44	367	46.0	-186267.0	-1596.0	126734.0
28	17	47	44	368	47.0	-193022.0	-1589.0	126258.0
28	17	47	44	369	48.0	-200681.0	-1590.0	126117.0
28	17	47	44	454	50.0	-219233.0	-1617.0	125914.0
28	17	47	44	454	51.0	-229146.0	-1614.0	125813.0
28	17	47	44	455	52.0	-239926.0	-1606.0	126084.0
28	17	47	44	456	53.0	-249454.0	-1597.0	126281.0
28	17	47	44	457	54.0	-258096.0	-1594.0	126021.0
28	17	47	44	457	55.0	-265523.0	-1603.0	125766.0
28	17	47	44	458	56.0	-272391.0	-1597.0	125857.0
28	17	47	44	459	57.0	-278356.0	-1613.0	125586.0
28	17	47	44	459	95.0	-207962.0	-1796.0	121746.0
28	17	47	44	460	96.0	-207019.0	-1803.0	121380.0
28	17	47	44	460	97.0	-205977.0	-1809.0	121099.0
28	17	47	44	461	98.0	-205018.0	-1814.0	120940.0
28	17	47	44	462	99.0	-204150.0	-1819.0	121032.0
28	17	47	44	498	100.0	-203093.0	-1832.0	121161.0
28	17	47	44	499	101.0	-202028.0	-1834.0	121090.0
28	17	47	44	500	117.0	-185537.0	-1885.0	120282.0
28	17	47	44	500	140.0	-177082.0	-1745.0	123564.0
28	17	47	44	501	141.0	-177034.0	-1721.0	123980.0
28	17	47	44	502	142.0	-177602.0	-1711.0	124177.0
28	17	47	44	503	143.0	-178548.0	-1704.0	124066.0
28	17	47	44	504	144.0	-179526.0	-1694.0	124358.0
28	17	47	44	559	145.0	-181309.0	-1692.0	124276.0
28	17	47	44	581	146.0	-183979.0	-1667.0	124036.0
28	17	47	44	581	147.0	-188408.0	-1672.0	123963.0
28	17	47	44	582	148.0	-194452.0	-1681.0	124038.0
28	17	47	44	583	149.0	-199057.0	-1686.0	123529.0
28	17	47	44	584	150.0	-196761.0	-1700.0	123714.0
28	17	47	44	584	151.0	-189501.0	-1705.0	123978.0
28	17	47	44	585	152.0	-180306.0	-1704.0	123796.0
28	17	47	44	604	162.0	-159711.0	-1721.0	123687.0
28	17	47	44	605	163.0	-160154.0	-1728.0	123474.0
28	17	47	44	605	164.0	-159667.0	-1727.0	123619.0
28	17	47	44	606	165.0	-157528.0	-1711.0	123614.0
28	17	47	44	607	166.0	-154497.0	-1718.0	123199.0
28	17	47	44	607	167.0	-150317.0	-1710.0	123026.0
28	17	47	44	608	168.0	-145486.0	-1691.0	123296.0
28	17	47	44	627	192.0	-131396.0	-1700.0	122629.0
28	17	47	44	628	199.0	-157826.0	-1744.0	122007.0
28	17	47	44	628	200.0	-160562.0	-1756.0	122508.0
28	17	47	44	629	201.0	-163043.0	-1767.0	122505.0
28	17	47	44	630	202.0	-165629.0	-1763.0	122624.0
28	17	47	44	630	203.0	-168207.0	-1756.0	122785.0
28	17	47	44	631	204.0	-171016.0	-1761.0	122684.0
28	17	47	44	631	205.0	-173711.0	-1786.0	122551.0
28	17	47	44	632	206.0	-175762.0	-1798.0	122386.0
28	17	47	44	633	215.0	-181486.0	-1839.0	122396.0
28	17	47	44	633	216.0	-180948.0	-1836.0	122604.0
28	17	47	44	634	217.0	-179287.0	-1827.0	122483.0
28	17	47	44	635	218.0	-176734.0	-1804.0	122287.0
28	17	47	44	635	219.0	-173714.0	-1817.0	122091.0
28	17	47	44	650	220.0	-170643.0	-1826.0	122513.0
28	17	47	44	673	221.0	-167513.0	-1816.0	122352.0
28	17	47	44	674	222.0	-164669.0	-1821.0	122465.0
28	17	47	44	675	223.0	-162594.0	-1834.0	122634.0
28	17	47	44	675	224.0	-161493.0	-1814.0	123119.0
28	17	47	44	676	225.0	-160719.0	-1807.0	122799.0
28	17	47	44	677	226.0	-160271.0	-1801.0	122338.0
28	17	47	44	677	227.0	-160503.0	-1819.0	122651.0
28	17	47	44	678	228.0	-160802.0	-1821.0	122695.0
28	17	47	44	679	230.0	-160916.0	-1830.0	122774.0
28	17	47	44	679	231.0	-160710.0	-1809.0	123023.0
28	17	47	44	680	232.0	-161000.0	-1797.0	122803.0
28	17	47	44	680	233.0	-160691.0	-1807.0	122599.0
28	17	47	44	681	234.0	-160266.0	-1821.0	122690.0
28	17	47	44	682	235.0	-160240.0	-1817.0	122799.0
28	17	47	44	700	236.0	-160911.0	-1804.0	122452.0
28	17	47	44	701	244.0	-184847.0	-1831.0	122509.0
28	17	47	44	702	245.0	-188180.0	-1832.0	122704.0
28	17	47	44	702	246.0	-191354.0	-1838.0	122434.0
28	17	47	44	723	247.0	-194826.0	-1825.0	122079.0
28	17	47	44	724	248.0	-198421.0	-1834.0	122103.0
28	17	47	44	724	249.0	-202170.0	-1846.0	122178.0
28	17	47	44	725	250.0	-205767.0	-1842.0	122467.0
28	17	47	44	726	251.0	-208987.0	-1864.0	122305.0
28	17	47	44	726	252.0	-212106.0	-1873.0	122128.0
28	17	47	44	727	253.0	-215572.0	-1865.0	122343.0
28	17	47	44	728	254.0	-219097.0	-1867.0	121959.0
28	17	47	44	728	255.0	-222624.0	-1853.0	121609.0
28	17	47	44	729	0.0	-226171.0	-1852.0	121641.0
28	17	47	44	729	1.0	-229417.0	-1868.0	121726.0
28	17	47	44	730	2.0	-231914.0	-1870.0	121578.0
28	17	47	44	730	3.0	-233586.0	-1883.0	121320.0
28	17	47	44	731	4.0	-234932.0	-1893.0	121594.0
28	17	47	44	731	5.0	-235721.0	-1883.0	121742.0
28	17	47	44	732	6.0	-236339.0	-1884.0	121629.0
28	17	47	44	733	11.0	-239494.0	-1912.0	121119.0
28	17	47	44	733	12.0	-239644.0	-1921.0	121208.0
28	17	47	44	734	13.0	-239545.0	-1906.0	120944.0
28	17	47	44	734	14.0	-239092.0	-1897.0	120998.0
28	17	47	44	735	15.0	-238185.0	-1890.0	121321.0
28	17	47	44	735	16.0	-237186.0	-1881.0	121443.0
28	17	47	44	736	17.0	-235481.0	-1896.0	121610.0
28	17	47	44	737	18.0	-233470.0	-1897.0	121969.0
28	17	47	44	737	19.0	-231272.0	-1898.0	121717.0
28	17	47	44	738	20.0	-228272.0	-1916.0	121219.0
28	17	47	44	739	21.0	-224931.0	-1906.0	121009.0
28	17	47	44	740	22.0	-221905.0	-1906.0	121244.0
28	17	47	44	740	23.0	-218626.0	-1919.0	120604.0
28	17	47	44	741	24.0	-215155.0	-1944.0	119974.0
28	17	47	44	742	25.0	-211927.0	-1951.0	120153.0
28	17	47	44	742	26.0	-209104.0	-1960.0	120388.0
28	17	47	44	743	27.0	-206957.0	-1951.0	120210.0
28	17	47	44	753	28.0	-205113.0	-1939.0	120215.0
28	17	47	44	755	29.0	-203325.0	-1947.0	120154.0
28	17	47	44	756	30.0	-202049.0	-1952.0	120294.0
28	17	47	44	756	31.0	-200825.0	-1966.0	119906.0
28	17	47	44	757	32.0	-199499.0	-1966.0	119621.0
28	17	47	44	758	33.0	-198846.0	-1977.0	119861.0
28	17	47	44	758	34.0	-198246.0	-1990.0	120131.0
28	17	47	44	775	35.0	-197520.0	-1986.0	119933.0
28	17	47	44	776	36.0	-197209.0	-1987.0	119963.0
28	17	47	44	777	37.0	-196956.0	-1994.0	120189.0
28	17	47	44	777	38.0	-196664.0	-1992.0	120152.0
28	17	47	44	778	39.0	-197041.0	-1999.0	119676.0
28	17	47	44	778	40.0	-197789.0	-2024.0	119635.0
28	17	47	44	779	41.0	-198837.0	-2009.0	119925.0
28	17	47	44	797	42.0	-200544.0	-2026.0	119934.0
28	17	47	44	798	43.0	-203007.0	-2022.0	119889.0
28	17	47	44	799	44.0	-205589.0	-2031.0	120298.0
28	17	47	44	800	45.0	-207784.0	-2036.0	120506.0
28	17	47	44	800	46.0	-208774.0	-2036.0	120077.0
28	17	47	44	801	47.0	-208888.0	-2032.0	119908.0
28	17	47	44	801	48.0	-208724.0	-2037.0	120009.0
28	17	47	44	802	49.0	-208124.0	-2052.0	119858.0
28	17	47	44	803	50.0	-207419.0	-2056.0	119896.0
28	17	47	44	803	51.0	-206712.0	-2034.0	119942.0
28	17	47	44	804	52.0	-205726.0	-2051.0	119843.0
28	17	47	44	804	53.0	-204445.0	-2050.0	119912.0
28	17	47	44	805	54.0	-202882.0	-2046.0	120384.0
28	17	47	44	805	55.0	-201557.0	-2044.0	120709.0
28	17	47	44	820	56.0	-200416.0	-2045.0	120677.0
28	17	47	44	821	57.0	-199637.0	-2047.0	120525.0
28	17	47	44	822	58.0	-199031.0	-2049.0	120644.0
28	17	47	44	823	59.0	-199052.0	-2042.0	120594.0
28	17	47	44	823	60.0	-199337.0	-2064.0	120311.0
28	17	47	44	824	61.0	-200491.0	-2076.0	120422.0
28	17	47	44	824	62.0	-201760.0	-2071.0	120013.0
28	17	47	44	846	63.0	-204430.0	-2064.0	119760.0
28	17	47	44	847	64.0	-206890.0	-2075.0	119841.0
28	17	47	44	848	65.0	-210247.0	-2058.0	119543.0
28	17	47	44	848	66.0	-213273.0	-2051.0	119783.0
28	17	47	44	849	67.0	-216368.0	-2027.0	119905.0
28	17	47	44	849	68.0	-218598.0	-2041.0	119916.0
28	17	47	44	850	69.0	-220228.0	-2067.0	119818.0
28	17	47	44	850	70.0	-221791.0	-2074.0	119629.0
28	17	47	44	851	71.0	-221189.0	-2055.0	119833.0
28	17	47	44	851	72.0	-221509.0	-2031.0	119713.0
28	17	47	44	852	73.0	-219767.0	-2027.0	120031.0
28	17	47	44	852	74.0	-220094.0	-2037.0	120223.0
28	17	47	44	853	75.0	-218406.0	-2054.0	119753.0
28	17	47	44	853	76.0	-218317.0	-2087.0	119046.0
28	17	47	44	870	77.0	-216857.0	-2087.0	119114.0
28	17	47	44	871	78.0	-216516.0	-2079.0	119131.0
28	17	47	44	871	79.0	-215989.0	-2068.0	119203.0
28	17	47	44	872	80.0	-214330.0	-2056.0	119649.0
28	17	47	44	872	81.0	-214932.0	-2061.0	119752.0
28	17	47	44	873	82.0	-213079.0	-2049.0	119799.0
28	17	47	44	874	83.0	-213186.0	-2074.0	120136.0
28	17	47	44	874	84.0	-209997.0	-2069.0	120157.0
28	17	47	44	875	85.0	-208918.0	-2066.0	120143.0
28	17	47	44	875	86.0	-206347.0	-2082.0	119787.0
28	17	47	44	876	87.0	-204030.0	-2055.0	119876.0
28	17	47	44	876	88.0	-202152.0	-2058.0	119793.0
28	17	47	44	877	89.0	-198143.0	-2047.0	119473.0
28	17	47	44	877	90.0	-196945.0	-2061.0	119612.0
28	17	47	44	893	91.0	-193217.0	-2066.0	119591.0
28	17	47	44	894	92.0	-192005.0	-2058.0	119201.0
28	17	47	44	895	93.0	-188833.0	-2057.0	118949.0
28	17	47	44	895	94.0	-185727.0	-2066.0	119366.0
28	17	47	44	896	95.0	-183025.0	-2082.0	119634.0
28	17	47	44	896	96.0	-178742.0	-2077.0	119353.0
28	17	47	44	897	97.0	-178224.0	-2068.0	119171.0
28	17	47	44	916	98.0	-175900.0	-2081.0	119442.0
28	17	47	44	917	99.0	-175735.0	-2079.0	119459.0
28	17	47	44	918	100.0	-174011.0	-2092.0	119122.0
28	17	47	44	918	101.0	-175226.0	-2102.0	118954.0
28	17	47	44	919	102.0	-178135.0	-2092.0	118742.0
28	17	47	44	919	103.0	-178367.0	-2092.0	118849.0
28	17	47	44	920	104.0	-180797.0	-2102.0	118843.0
28	17	47	44	921	105.0	-181413.0	-2102.0	118962.0
28	17	47	44	921	106.0	-184440.0	-2121.0	119219.0
28	17	47	44	922	107.0	-185369.0	-2127.0	119326.0
28	17	47	44	922	108.0	-186574.0	-2132.0	119076.0
28	17	47	44	923	109.0	-188896.0	-2137.0	118949.0
28	17	47	44	924	110.0	-188669.0	-2144.0	118716.0
28	17	47	44	924	111.0	-190752.0	-2150.0	118179.0
28	17	47	44	939	112.0	-190372.0	-2164.0	117600.0
28	17	47	44	940	113.0	-191535.0	-2174.0	117044.0
28	17	47	44	941	114.0	-192568.0	-2164.0	116372.0
28	17	47	44	941	115.0	-193447.0	-2177.0	115267.0
28	17	47	44	942	116.0	-196785.0	-2197.0	114004.0
28	17	47	44	943	117.0	-198526.0	-2202.0	112587.0
28	17	47	44	943	118.0	-202662.0	-2202.0	110222.0
28	17	47	44	963	119.0	-205242.0	-2204.0	107686.0
28	17	47	44	964	120.0	-208166.0	-2204.0	104572.0
28	17	47	44	964	121.0	-211840.0	-2229.0	100797.0
28	17	47	44	965	122.0	-213219.0	-2251.0	97539.0
28	17	47	44	965	123.0	-216969.0	-2262.0	94675.0
28	17	47	44	966	124.0	-218345.0	-2261.0	94633.0
28	17	47	44	967	125.0	-220248.0	-2248.0	95119.0
28	17	47	44	967	126.0	-222182.0	-2241.0	98144.0
28	17	47	44	968	127.0	-222040.0	-2264.0	105413.0
28	17	47	44	968	128.0	-223514.0	-2280.0	114823.0
28	17	47	44	969	129.0	-221420.0	-2290.0	124944.0
28	17	47	44	969	130.0	-220681.0	-2289.0	132693.0
28	17	47	44	985	131.0	-219366.0	-2268.0	137818.0
28	17	47	44	986	132.0	-217215.0	-2272.0	141611.0
28	17	47	44	987	133.0	-216740.0	-2262.0	144498.0
28	17	47	44	987	134.0	-213668.0	-2256.0	146973.0
28	17	47	44	988	135.0	-213206.0	-2256.0	148060.0
28	17	47	44	988	136.0	-211841.0	-2287.0	147831.0
28	17	47	44	989	137.0	-211461.0	-2295.0	146517.0
28	17	47	44	990	138.0	-211967.0	-2293.0	145138.0
28	17	47	44	990	139.0	-210373.0	-2300.0	143889.0
28	17	47	44	991	140.0	-211347.0	-2322.0	141779.0
28	17	47	44	991	141.0	-208927.0	-2318.0	138910.0
28	17	47	44	992	142.0	-207813.0	-2323.0	135006.0
28	17	47	44	993	143.0	-204925.0	-2327.0	130708.0
28	17	47	44	993	144.0	-202214.0	-2346.0	127431.0
28	17	47	44	994	145.0	-202873.0	-2341.0	124518.0
28	17	47	44	994	146.0	-203524.0	-2361.0	122414.0
28	17	47	44	995	147.0	-209545.0	-2346.0	121093.0
28	17	47	44	995	148.0	-213466.0	-2354.0	119892.0
28	17	47	44	996	149.0	-217974.0	-2367.0	118383.0
28	17	47	44	997	150.0	-219711.0	-2344.0	117583.0
28	17	47	44	997	151.0	-219550.0	-2339.0	116890.0
28	17	47	44	998	152.0	-217469.0	-2361.0	116303.0
28	17	47	45	9	153.0	-210643.0	-2372.0	116233.0
28	17	47	45	10	154.0	-203697.0	-2386.0	116407.0
28	17	47	45	10	155.0	-192584.0	-2386.0	116284.0
28	17	47	45	11	156.0	-184470.0	-2376.0	115762.0
28	17	47	45	11	157.0	-175363.0	-2370.0	115706.0
28	17	47	45	12	158.0	-171273.0	-2392.0	115428.0
28	17	47	45	13	159.0	-167982.0	-2399.0	115106.0
28	17	47	45	13	160.0	-168549.0	-2414.0	114943.0
28	17	47	45	14	161.0	-171179.0	-2421.0	114814.0
28	17	47	45	14	162.0	-176185.0	-2394.0	114551.0
28	17	47	45	32	163.0	-180943.0	-2425.0	114482.0
28	17	47	45	33	164.0	-184070.0	-2429.0	114844.0
28	17	47	45	34	165.0	-186545.0	-2422.0	114842.0
28	17	47	45	34	166.0	-187776.0	-2412.0	114674.0
28	17	47	45	35	167.0	-188951.0	-2396.0	114819.0
28	17	47	45	35	168.0	-186932.0	-2405.0	114482.0
28	17	47	45	36	169.0	-184319.0	-2388.0	114237.0
28	17	47	45	37	170.0	-177616.0	-2384.0	114321.0
28	17	47	45	37	171.0	-169709.0	-2368.0	114219.0
28	17	47	45	38	172.0	-161266.0	-2357.0	114063.0
28	17	47	45	38	173.0	-156056.0	-2354.0	114287.0
28	17	47	45	39	174.0	-152114.0	-2354.0	114251.0
28	17	47	45	40	175.0	-150761.0	-2359.0	113871.0
28	17	47	45	40	176.0	-150972.0	-2351.0	113721.0
28	17	47	45	55	177.0	-150912.0	-2329.0	113934.0
28	17	47	45	56	178.0	-150856.0	-2327.0	113950.0
28	17	47	45	56	179.0	-150787.0	-2326.0	113718.0
28	17	47	45	57	180.0	-149194.0	-2324.0	113378.0
28	17	47	45	57	181.0	-148277.0	-2354.0	113314.0
28	17	47	45	58	182.0	-148959.0	-2346.0	113169.0
28	17	47	45	58	183.0	-149063.0	-2349.0	113504.0
28	17	47	45	59	184.0	-149018.0	-2353.0	113550.0
28	17	47	45	82	185.0	-150699.0	-2344.0	113063.0
28	17	47	45	83	186.0	-153307.0	-2341.0	112909.0
28	17	47	45	83	187.0	-155397.0	-2347.0	113017.0
28	17	47	45	84	188.0	-158851.0	-2327.0	112756.0
28	17	47	45	85	189.0	-163876.0	-2347.0	112688.0
28	17	47	45	85	190.0	-169635.0	-2364.0	112820.0
28	17	47	45	86	191.0	-177081.0	-2355.0	112581.0
28	17	47	45	87	192.0	-185969.0	-2341.0	112576.0
28	17	47	45	88	193.0	-195121.0	-2348.0	112762.0
28	17	47	45	89	194.0	-204608.0	-2347.0	112691.0
28	17	47	45	89	195.0	-215165.0	-2327.0	112764.0
28	17	47	45	90	196.0	-226138.0	-2332.0	112823.0
28	17	47	45	90	197.0	-236359.0	-2339.0	112484.0
28	17	47	45	91	198.0	-245928.0	-2327.0	112279.0
28	17	47	45	101	199.0	-254079.0	-2330.0	112009.0
28	17	47	45	102	200.0	-260047.0	-2310.0	111971.0
28	17	47	45	103	201.0	-264419.0	-2319.0	111654.0
28	17	47	45	103	202.0	-267175.0	-2291.0	111248.0
28	17	47	45	104	203.0	-268000.0	-2289.0	111385.0
28	17	47	45	104	204.0	-266849.0	-2299.0	111401.0
28	17	47	45	105	205.0	-264500.0	-2309.0	111229.0
28	17	47	45	106	206.0	-260382.0	-2316.0	111071.0
28	17	47	45	125	207.0	-254838.0	-2311.0	110904.0
28	17	47	45	126	208.0	-248929.0	-2297.0	110856.0
28	17	47	45	127	209.0	-242918.0	-2307.0	110379.0
28	17	47	45	127	210.0	-236798.0	-2305.0	109927.0
28	17	47	45	128	211.0	-231327.0	-2302.0	109917.0
28	17	47	45	128	212.0	-226778.0	-2321.0	109869.0
28	17	47	45	129	213.0	-222497.0	-2329.0	110118.0
28	17	47	45	130	214.0	-218212.0	-2337.0	109959.0
28	17	47	45	130	215.0	-214707.0	-2335.0	109816.0
28	17	47	45	131	216.0	-212179.0	-2326.0	109975.0
28	17	47	45	131	217.0	-210491.0	-2318.0	109572.0
28	17	47	45	132	218.0	-210244.0	-2326.0	109264.0
28	17	47	45	133	219.0	-211889.0	-2328.0	109489.0
28	17	47	45	133	220.0	-214631.0	-2322.0	109467.0
28	17	47	45	134	221.0	-218507.0	-2336.0	108855.0
28	17	47	45	148	222.0	-222680.0	-2341.0	108843.0
28	17	47	45	149	223.0	-227164.0	-2326.0	108766.0
28	17	47	45	150	224.0	-232168.0	-2329.0	108598.0
28	17	47	45	150	225.0	-237283.0	-2330.0	108196.0
28	17	47	45	151	226.0	-242212.0	-2324.0	108472.0
28	17	47	45	151	227.0	-246741.0	-2319.0	108541.0
28	17	47	45	152	228.0	-250558.0	-2330.0	107950.0
28	17	47	45	152	229.0	-253569.0	-2327.0	108050.0
28	17	47	45	172	230.0	-255964.0	-2326.0	107821.0
28	17	47	45	172	231.0	-257409.0	-2332.0	107188.0
28	17	47	45	173	232.0	-258686.0	-2324.0	106911.0
28	17	47	45	174	233.0	-259424.0	-2330.0	107549.0
28	17	47	45	174	234.0	-258694.0	-2324.0	107364.0
28	17	47	45	175	235.0	-256652.0	-2328.0	107103.0
28	17	47	45	175	236.0	-254252.0	-2337.0	107289.0
28	17	47	45	176	237.0	-250974.0	-2329.0	107418.0
28	17	47	45	177	238.0	-247069.0	-2316.0	106714.0
28	17	47	45	178	239.0	-243081.0	-2313.0	106328.0
28	17	47	45	178	240.0	-239287.0	-2322.0	106652.0
28	17	47	45	179	241.0	-234859.0	-2338.0	106581.0
28	17	47	45	179	242.0	-230004.0	-2334.0	106289.0
28	17	47	45	180	243.0	-224801.0	-2329.0	106590.0
28	17	47	45	195	244.0	-219184.0	-2328.0	106697.0
28	17	47	45	196	245.0	-213006.0	-2310.0	106801.0
28	17	47	45	197	246.0	-206586.0	-2299.0	106886.0
28	17	47	45	197	247.0	-200369.0	-2302.0	106823.0
28	17	47	45	198	248.0	-193579.0	-2292.0	106764.0
28	17	47	45	198	249.0	-185654.0	-2290.0	106505.0
28	17	47	45	199	250.0	-177674.0	-2297.0	106308.0
28	17	47	45	218	251.0	-170811.0	-2271.0	106161.0
28	17	47	45	218	252.0	-164746.0	-2258.0	106064.0
28	17	47	45	219	253.0	-158624.0	-2242.0	106596.0
28	17	47	45	220	254.0	-152695.0	-2259.0	106783.0
28	17	47	45	220	255.0	-146784.0	-2248.0	106967.0
28	17	47	45	221	0.0	-140539.0	-2252.0	107130.0
28	17	47	45	222	1.0	-134391.0	-2269.0	106846.0
28	17	47	45	222	2.0	-128479.0	-2247.0	106479.0
28	17	47	45	223	3.0	-123152.0	-2216.0	106669.0
28	17	47	45	223	4.0	-118266.0	-2209.0	106658.0
28	17	47	45	224	5.0	-113740.0	-2222.0	106671.0
28	17	47	45	224	6.0	-109909.0	-2201.0	107126.0
28	17	47	45	225	7.0	-107475.0	-2192.0	107457.0
28	17	47	45	226	8.0	-105406.0	-2170.0	107561.0
28	17	47	45	241	9.0	-103451.0	-2164.0	107457.0
28	17	47	45	242	10.0	-102309.0	-2144.0	107901.0
28	17	47	45	242	11.0	-101426.0	-2127.0	107264.0
28	17	47	45	243	12.0	-100649.0	-2111.0	107310.0
28	17	47	45	243	13.0	-98945.0	-2120.0	107939.0
28	17	47	45	244	14.0	-97122.0	-2119.0	107656.0
28	17	47	45	245	15.0	-98017.0	-2106.0	107659.0
28	17	47	45	263	16.0	-102119.0	-2103.0	108141.0
28	17	47	45	264	17.0	-107330.0	-2072.0	108728.0
28	17	47	45	265	18.0	-112476.0	-2052.0	108877.0
28	17	47	45	265	19.0	-117765.0	-2039.0	109161.0
28	17	47	45	266	20.0	-123012.0	-2032.0	109563.0
28	17	47	45	266	21.0	-128035.0	-2024.0	109913.0
28	17	47	45	267	22.0	-132628.0	-2006.0	109882.0
28	17	47	45	268	23.0	-136479.0	-2001.0	109997.0
28	17	47	45	268	24.0	-141041.0	-2004.0	109957.0
28	17	47	45	269	25.0	-146170.0	-1996.0	109983.0
28	17	47	45	269	26.0	-151507.0	-1990.0	110236.0
28	17	47	45	270	27.0	-156660.0	-1976.0	110701.0
28	17	47	45	271	28.0	-161538.0	-1957.0	110898.0
28	17	47	45	271	29.0	-166046.0	-1942.0	110635.0
28	17	47	45	292	30.0	-170304.0	-1947.0	110443.0
28	17	47	45	293	31.0	-174916.0	-1947.0	110519.0
28	17	47	45	294	32.0	-180106.0	-1939.0	110894.0
28	17	47	45	294	33.0	-185239.0	-1931.0	110459.0
28	17	47	45	295	34.0	-189947.0	-1917.0	110213.0
28	17	47	45	296	35.0	-194732.0	-1892.0	110438.0
28	17	47	45	309	36.0	-199899.0	-1865.0	110858.0
28	17	47	45	310	37.0	-206387.0	-1850.0	111099.0
28	17	47	45	310	38.0	-213994.0	-1854.0	111080.0
28	17	47	45	311	39.0	-217606.0	-1832.0	111068.0
28	17	47	45	312	40.0	-212567.0	-1828.0	111173.0
28	17	47	45	312	41.0	-204452.0	-1810.0	111157.0
28	17	47	45	313	42.0	-197244.0	-1814.0	111136.0
28	17	47	45	314	43.0	-195201.0	-1812.0	111129.0
28	17	47	45	314	44.0	-198047.0	-1813.0	110994.0
28	17	47	45	315	45.0	-201858.0	-1819.0	110618.0
28	17	47	45	316	47.0	-203957.0	-1797.0	111330.0
28	17	47	45	316	48.0	-202148.0	-1781.0	111197.0
28	17	47	45	317	49.0	-199810.0	-1781.0	111196.0
28	17	47	45	318	50.0	-198239.0	-1780.0	111610.0
28	17	47	45	318	51.0	-197341.0	-1767.0	111435.0
28	17	47	45	319	52.0	-195914.0	-1797.0	110636.0
28	17	47	45	332	54.0	-190786.0	-1773.0	110971.0
28	17	47	45	333	55.0	-186216.0	-1767.0	110964.0
28	17	47	45	333	56.0	-180766.0	-1752.0	111131.0
28	17	47	45	334	57.0	-175211.0	-1743.0	111309.0
28	17	47	45	334	58.0	-170293.0	-1746.0	111405.0
28	17	47	45	335	59.0	-166941.0	-1720.0	111318.0
28	17	47	45	336	60.0	-165439.0	-1708.0	111391.0
28	17	47	45	336	61.0	-165176.0	-1715.0	111289.0
28	17	47	45	337	62.0	-166511.0	-1704.0	111003.0
28	17	47	45	338	63.0	-169860.0	-1699.0	110759.0
28	17	47	45	338	64.0	-175058.0	-1682.0	110801.0
28	17	47	45	339	65.0	-180994.0	-1665.0	110781.0
28	17	47	45	340	66.0	-186292.0	-1669.0	110621.0
28	17	47	45	340	67.0	-192056.0	-1681.0	110589.0
28	17	47	45	341	68.0	-197236.0	-1689.0	110600.0
28	17	47	45	341	69.0	-200819.0	-1655.0	110608.0
28	17	47	45	354	70.0	-202764.0	-1656.0	110598.0
28	17	47	45	355	71.0	-204177.0	-1650.0	110409.0
28	17	47	45	356	72.0	-204926.0	-1656.0	110109.0
28	17	47	45	357	73.0	-203974.0	-1662.0	110271.0
28	17	47	45	357	74.0	-202480.0	-1679.0	109892.0
28	17	47	45	358	75.0	-200895.0	-1681.0	109751.0
28	17	47	45	378	76.0	-199432.0	-1667.0	110016.0
28	17	47	45	378	77.0	-198127.0	-1689.0	110401.0
28	17	47	45	379	78.0	-197115.0	-1679.0	110566.0
28	17	47	45	380	79.0	-196085.0	-1653.0	110769.0
28	17	47	45	380	80.0	-195166.0	-1653.0	110866.0
28	17	47	45	381	81.0	-194432.0	-1655.0	110683.0
28	17	47	45	382	82.0	-194107.0	-1642.0	110617.0
28	17	47	45	400	83.0	-194110.0	-1624.0	110701.0
28	17	47	45	401	84.0	-194217.0	-1630.0	110301.0
28	17	47	45	423	85.0	-194431.0	-1621.0	110156.0
28	17	47	45	424	86.0	-194383.0	-1627.0	110522.0
28	17	47	45	425	87.0	-194117.0	-1607.0	110778.0
28	17	47	45	426	88.0	-193446.0	-1604.0	110551.0
28	17	47	45	426	89.0	-192518.0	-1621.0	110487.0
28	17	47	45	427	90.0	-191516.0	-1609.0	110990.0
28	17	47	45	428	91.0	-190339.0	-1601.0	110636.0
28	17	47	45	428	92.0	-189207.0	-1588.0	110524.0
28	17	47	45	429	93.0	-187810.0	-1583.0	110488.0
28	17	47	45	430	94.0	-186007.0	-1583.0	110651.0
28	17	47	45	430	95.0	-184477.0	-1593.0	110231.0
28	17	47	45	431	96.0	-183379.0	-1585.0	110225.0
28	17	47	45	431	97.0	-182432.0	-1583.0	110395.0
28	17	47	45	432	98.0	-181354.0	-1579.0	110620.0
28	17	47	45	445	99.0	-179468.0	-1571.0	110786.0
28	17	47	45	446	100.0	-176997.0	-1574.0	110863.0
28	17	47	45	447	107.0	-166972.0	-1570.0	110848.0
28	17	47	45	448	108.0	-166306.0	-1564.0	110796.0
28	17	47	45	448	109.0	-166198.0	-1568.0	110511.0
28	17	47	45	449	110.0	-166088.0	-1555.0	110477.0
28	17	47	45	449	111.0	-166087.0	-1558.0	110502.0
28	17	47	45	468	112.0	-166931.0	-1549.0	110613.0
28	17	47	45	469	113.0	-168433.0	-1549.0	110496.0
28	17	47	45	470	114.0	-170044.0	-1554.0	109897.0
28	17	47	45	470	115.0	-170972.0	-1549.0	109869.0
28	17	47	45	471	116.0	-172286.0	-1531.0	110766.0
28	17	47	45	472	117.0	-174192.0	-1522.0	110888.0
28	17	47	45	472	118.0	-175862.0	-1514.0	110971.0
28	17	47	45	473	119.0	-177689.0	-1521.0	111041.0
28	17	47	45	474	120.0	-178957.0	-1517.0	111044.0
28	17	47	45	474	122.0	-179547.0	-1499.0	110479.0
28	17	47	45	475	123.0	-179101.0	-1507.0	110519.0
28	17	47	45	475	124.0	-178587.0	-1496.0	110291.0
28	17	47	45	476	125.0	-178110.0	-1486.0	110313.0
28	17	47	45	477	126.0	-177825.0	-1501.0	110693.0
28	17	47	45	493	127.0	-177752.0	-1489.0	110631.0
28	17	47	45	494	128.0	-177666.0	-1494.0	110384.0
28	17	47	45	495	129.0	-178311.0	-1492.0	110595.0
28	17	47	45	495	130.0	-179965.0	-1498.0	110424.0
28	17	47	45	496	131.0	-182171.0	-1489.0	109974.0
28	17	47	45	497	132.0	-184702.0	-1469.0	110222.0
28	17	47	45	497	133.0	-187607.0	-1497.0	110262.0
28	17	47	45	516	134.0	-191305.0	-1506.0	110281.0
28	17	47	45	517	135.0	-195291.0	-1511.0	109991.0
28	17	47	45	518	137.0	-203037.0	-1508.0	110786.0
28	17	47	45	518	138.0	-206822.0	-1517.0	110669.0
28	17	47	45	519	139.0	-210801.0	-1512.0	110758.0
28	17	47	45	519	140.0	-214797.0	-1524.0	110684.0
28	17	47	45	520	141.0	-217931.0	-1531.0	110569.0
28	17	47	45	521	142.0	-220566.0	-1548.0	110299.0
28	17	47	45	521	143.0	-222817.0	-1559.0	109934.0
28	17	47	45	522	144.0	-225216.0	-1591.0	110029.0
28	17	47	45	522	145.0	-227567.0	-1580.0	109713.0
28	17	47	45	540	146.0	-229704.0	-1575.0	110149.0
28	17	47	45	541	147.0	-231718.0	-1606.0	110323.0
28	17	47	45	541	148.0	-233795.0	-1619.0	110016.0
28	17	47	45	542	149.0	-235782.0	-1629.0	109956.0
28	17	47	45	563	150.0	-236867.0	-1635.0	109948.0
28	17	47	45	564	151.0	-237652.0	-1613.0	109599.0
28	17	47	45	565	152.0	-238139.0	-1609.0	109906.0
28	17	47	45	565	153.0	-238543.0	-1605.0	109856.0
28	17	47	45	566	154.0	-238894.0	-1617.0	109572.0
28	17	47	45	567	155.0	-239315.0	-1616.0	109496.0
28	17	47	45	567	156.0	-239685.0	-1618.0	109491.0
28	17	47	45	568	157.0	-239799.0	-1609.0	109718.0
28	17	47	45	569	159.0	-238104.0	-1619.0	110171.0
28	17	47	45	569	160.0	-236246.0	-1597.0	109883.0
28	17	47	45	570	161.0	-233576.0	-1574.0	109451.0
28	17	47	45	570	162.0	-230627.0	-1576.0	109321.0
28	17	47	45	571	166.0	-215659.0	-1569.0	109327.0
28	17	47	45	572	167.0	-211379.0	-1569.0	109306.0
28	17	47	45	572	168.0	-206472.0	-1578.0	109429.0
28	17	47	45	573	169.0	-201727.0	-1574.0	109720.0
28	17	47	45	573	174.0	-186190.0	-1582.0	109384.0
28	17	47	45	574	175.0	-185283.0	-1578.0	109408.0
28	17	47	45	574	176.0	-185096.0	-1589.0	109623.0
28	17	47	45	575	177.0	-185522.0	-1595.0	109629.0
28	17	47	45	576	178.0	-186302.0	-1602.0	109490.0
28	17	47	45	576	179.0	-186884.0	-1591.0	109504.0
28	17	47	45	577	180.0	-187577.0	-1569.0	109531.0
28	17	47	45	578	181.0	-187809.0	-1561.0	109344.0
28	17	47	45	579	182.0	-188470.0	-1581.0	109350.0
28	17	47	45	580	183.0	-189675.0	-1592.0	109181.0
28	17	47	45	580	184.0	-191371.0	-1578.0	108780.0
28	17	47	45	581	185.0	-193289.0	-1591.0	108734.0
28	17	47	45	582	186.0	-195172.0	-1581.0	108907.0
28	17	47	45	582	187.0	-197487.0	-1606.0	108865.0
28	17	47	45	583	188.0	-200719.0	-1597.0	109244.0
28	17	47	45	584	189.0	-204199.0	-1580.0	109195.0
28	17	47	45	584	190.0	-207377.0	-1592.0	108925.0
28	17	47	45	602	191.0	-210711.0	-1592.0	108865.0
28	17	47	45	603	192.0	-214356.0	-1607.0	108726.0
28	17	47	45	603	193.0	-217819.0	-1604.0	108364.0
28	17	47	45	604	194.0	-221392.0	-1601.0	108133.0
28	17	47	45	604	195.0	-224887.0	-1611.0	108539.0
28	17	47	45	605	196.0	-227937.0	-1616.0	108934.0
28	17	47	45	621	197.0	-230496.0	-1609.0	108888.0
28	17	47	45	622	198.0	-232141.0	-1607.0	108816.0
28	17	47	45	622	199.0	-233190.0	-1596.0	108953.0
28	17	47	45	623	200.0	-234402.0	-1590.0	108939.0
28	17	47	45	623	201.0	-235794.0	-1591.0	108967.0
28	17	47	45	624	202.0	-236932.0	-1616.0	108901.0
28	17	47	45	624	203.0	-237161.0	-1626.0	108538.0
28	17	47	45	645	204.0	-236545.0	-1612.0	108387.0
28	17	47	45	645	205.0	-235721.0	-1599.0	108559.0
28	17	47	45	646	206.0	-234642.0	-1599.0	108979.0
28	17	47	45	646	207.0	-232884.0	-1592.0	108994.0
28	17	47	45	647	208.0	-231092.0	-1581.0	108865.0
28	17	47	45	648	209.0	-229848.0	-1572.0	108853.0
28	17	47	45	648	210.0	-228574.0	-1559.0	108986.0
28	17	47	45	649	211.0	-226767.0	-1544.0	109158.0
28	17	47	45	649	212.0	-224674.0	-1547.0	109148.0
28	17	47	45	650	213.0	-222911.0	-1561.0	108600.0
28	17	47	45	650	214.0	-221328.0	-1579.0	108420.0
28	17	47	45	651	215.0	-220001.0	-1586.0	108658.0
28	17	47	45	652	216.0	-218971.0	-1581.0	108976.0
28	17	47	45	652	217.0	-218494.0	-1583.0	108951.0
28	17	47	45	653	218.0	-218212.0	-1577.0	108458.0
28	17	47	45	653	219.0	-218087.0	-1562.0	108332.0
28	17	47	45	654	220.0	-218608.0	-1556.0	107906.0
28	17	47	45	654	221.0	-219217.0	-1541.0	107554.0
28	17	47	45	655	222.0	-219933.0	-1531.0	107566.0
28	17	47	45	655	223.0	-220527.0	-1532.0	107714.0
28	17	47	45	656	224.0	-220992.0	-1525.0	107609.0
28	17	47	45	656	225.0	-220651.0	-1526.0	108050.0
28	17	47	45	657	226.0	-219452.0	-1523.0	108278.0
28	17	47	45	668	227.0	-218672.0	-1509.0	107975.0
28	17	47	45	669	228.0	-217863.0	-1516.0	108268.0
28	17	47	45	669	229.0	-217177.0	-1521.0	108314.0
28	17	47	45	670	230.0	-215891.0	-1533.0	107462.0
28	17	47	45	671	231.0	-214446.0	-1522.0	106691.0
28	17	47	45	671	232.0	-212943.0	-1518.0	106473.0
28	17	47	45	672	233.0	-211231.0	-1533.0	106718.0
28	17	47	45	692	234.0	-209335.0	-1551.0	107022.0
28	17	47	45	692	235.0	-207437.0	-1549.0	107098.0
28	17	47	45	693	236.0	-206588.0	-1534.0	107541.0
28	17	47	45	693	237.0	-206146.0	-1536.0	107679.0
28	17	47	45	694	238.0	-205541.0	-1532.0	107665.0
28	17	47	45	694	239.0	-205187.0	-1529.0	107784.0
28	17	47	45	695	240.0	-204815.0	-1537.0	107517.0
28	17	47	45	696	241.0	-204799.0	-1546.0	107276.0
28	17	47	45	696	242.0	-204726.0	-1543.0	107284.0
28	17	47	45	697	243.0	-204799.0	-1541.0	107422.0
28	17	47	45	697	244.0	-205020.0	-1542.0	106978.0
28	17	47	45	698	245.0	-205175.0	-1536.0	106853.0
28	17	47	45	714	246.0	-205295.0	-1531.0	107356.0
28	17	47	45	714	247.0	-205554.0	-1524.0	107200.0
28	17	47	45	715	248.0	-205566.0	-1541.0	107363.0
28	17	47	45	716	249.0	-204721.0	-1548.0	107363.0
28	17	47	45	716	250.0	-203047.0	-1533.0	107139.0
28	17	47	45	717	251.0	-201365.0	-1549.0	107161.0
28	17	47	45	717	252.0	-200199.0	-1537.0	106859.0
28	17	47	45	718	253.0	-199306.0	-1549.0	106515.0
28	17	47	45	719	254.0	-198488.0	-1549.0	106525.0
28	17	47	45	719	255.0	-197784.0	-1540.0	106930.0
28	17	47	45	720	0.0	-196802.0	-1536.0	106971.0
28	17	47	45	720	1.0	-195651.0	-1544.0	106973.0
28	17	47	45	721	2.0	-194639.0	-1541.0	106910.0
28	17	47	45	721	3.0	-194263.0	-1536.0	106863.0
28	17	47	45	737	4.0	-194437.0	-1502.0	106494.0
28	17	47	45	737	5.0	-195524.0	-1476.0	106804.0
28	17	47	45	738	6.0	-198318.0	-1493.0	107156.0
28	17	47	45	739	7.0	-202198.0	-1513.0	106893.0
28	17	47	45	760	8.0	-206452.0	-1504.0	106756.0
28	17	47	45	761	9.0	-211051.0	-1484.0	106835.0
28	17	47	45	761	10.0	-215673.0	-1476.0	106514.0
28	17	47	45	762	11.0	-219698.0	-1497.0	106267.0
28	17	47	45	763	12.0	-222566.0	-1491.0	105554.0
28	17	47	45	763	13.0	-224810.0	-1473.0	104857.0
28	17	47	45	764	14.0	-227118.0	-1481.0	103535.0
28	17	47	45	764	15.0	-229129.0	-1477.0	101812.0
28	17	47	45	765	16.0	-230723.0	-1468.0	100298.0
28	17	47	45	766	17.0	-231967.0	-1466.0	97733.0
28	17	47	45	766	18.0	-232780.0	-1461.0	95076.0
28	17	47	45	784	19.0	-233165.0	-1455.0	91769.0
28	17	47	45	784	20.0	-232642.0	-1459.0	88477.0
28	17	47	45	785	21.0	-231456.0	-1446.0	86078.0
28	17	47	45	785	22.0	-230467.0	-1440.0	84994.0
28	17	47	45	786	23.0	-229712.0	-1438.0	84854.0
28	17	47	45	787	24.0	-229204.0	-1430.0	86420.0
28	17	47	45	787	25.0	-228970.0	-1419.0	91240.0
28	17	47	45	788	26.0	-228480.0	-1447.0	97577.0
28	17	47	45	788	27.0	-227423.0	-1447.0	107618.0
28	17	47	45	789	28.0	-225692.0	-1435.0	118620.0
28	17	47	45	789	29.0	-223798.0	-1426.0	126385.0
28	17	47	45	790	30.0	-221450.0	-1441.0	131696.0
28	17	47	45	790	31.0	-218462.0	-1442.0	135037.0
28	17	47	45	791	32.0	-214929.0	-1434.0	137556.0
28	17	47	45	792	33.0	-210512.0	-1421.0	138566.0
28	17	47	45	792	34.0	-205479.0	-1434.0	138219.0
28	17	47	45	793	35.0	-200500.0	-1461.0	136746.0
28	17	47	45	793	36.0	-196092.0	-1433.0	135063.0
28	17	47	45	794	37.0	-192577.0	-1447.0	133135.0
28	17	47	45	806	38.0	-189882.0	-1444.0	131087.0
28	17	47	45	807	39.0	-187646.0	-1426.0	128189.0
28	17	47	45	807	40.0	-185969.0	-1438.0	124144.0
28	17	47	45	808	41.0	-185002.0	-1461.0	119654.0
28	17	47	45	809	42.0	-184711.0	-1459.0	116156.0
28	17	47	45	809	43.0	-185412.0	-1481.0	113130.0
28	17	47	45	810	44.0	-188010.0	-1467.0	110252.0
28	17	47	45	810	45.0	-192891.0	-1487.0	109140.0
28	17	47	45	829	46.0	-199393.0	-1482.0	108149.0
28	17	47	45	830	47.0	-205596.0	-1480.0	107004.0
28	17	47	45	831	48.0	-210420.0	-1461.0	105999.0
28	17	47	45	832	49.0	-213693.0	-1492.0	105768.0
28	17	47	45	832	50.0	-214251.0	-1495.0	105159.0
28	17	47	45	833	51.0	-212056.0	-1483.0	104644.0
28	17	47	45	833	52.0	-206947.0	-1479.0	104619.0
28	17	47	45	834	53.0	-199247.0	-1469.0	104970.0
28	17	47	45	835	54.0	-191028.0	-1484.0	104378.0
28	17	47	45	835	55.0	-184431.0	-1486.0	103828.0
28	17	47	45	836	56.0	-180227.0	-1474.0	103980.0
28	17	47	45	836	57.0	-177771.0	-1474.0	103518.0
28	17	47	45	837	58.0	-176121.0	-1487.0	103259.0
28	17	47	45	837	59.0	-176039.0	-1495.0	103447.0
28	17	47	45	853	60.0	-178832.0	-1489.0	103538.0
28	17	47	45	854	61.0	-184017.0	-1491.0	103396.0
28	17	47	45	854	62.0	-191105.0	-1481.0	103035.0
28	17	47	45	855	63.0	-199172.0	-1481.0	103075.0
28	17	47	45	855	64.0	-207342.0	-1484.0	102958.0
28	17	47	45	856	65.0	-213402.0	-1484.0	102724.0
28	17	47	45	857	66.0	-215871.0	-1481.0	102798.0
28	17	47	45	876	67.0	-214635.0	-1496.0	102519.0
28	17	47	45	877	68.0	-212233.0	-1484.0	102288.0
28	17	47	45	878	69.0	-209614.0	-1472.0	102505.0
28	17	47	45	879	70.0	-206219.0	-1464.0	102642.0
28	17	47	45	879	71.0	-203009.0	-1465.0	102757.0
28	17	47	45	880	72.0	-200787.0	-1486.0	102428.0
28	17	47	45	881	73.0	-200526.0	-1480.0	102156.0
28	17	47	45	881	74.0	-202159.0	-1491.0	102043.0
28	17	47	45	882	75.0	-203771.0	-1509.0	102476.0
28	17	47	45	882	76.0	-203267.0	-1518.0	102131.0
28	17	47	45	883	77.0	-200790.0	-1503.0	101704.0
28	17	47	45	883	78.0	-198094.0	-1486.0	101856.0
28	17	47	45	884	79.0	-196021.0	-1484.0	101821.0
28	17	47	45	899	80.0	-194450.0	-1509.0	101813.0
28	17	47	45	900	81.0	-193129.0	-1509.0	101998.0
28	17	47	45	900	82.0	-191696.0	-1512.0	102161.0
28	17	47	45	901	83.0	-190242.0	-1515.0	102014.0
28	17	47	45	902	84.0	-189403.0	-1513.0	101589.0
28	17	47	45	902	85.0	-188807.0	-1512.0	101793.0
28	17	47	45	903	86.0	-188827.0	-1502.0	101573.0
28	17	47	45	922	87.0	-190196.0	-1510.0	101047.0
28	17	47	45	922	88.0	-192445.0	-1502.0	101009.0
28	17	47	45	923	89.0	-195704.0	-1510.0	101355.0
28	17	47	45	924	90.0	-199656.0	-1494.0	101308.0
28	17	47	45	924	91.0	-204625.0	-1477.0	101437.0
28	17	47	45	925	92.0	-211354.0	-1474.0	101653.0
28	17	47	45	925	93.0	-219562.0	-1478.0	101393.0
28	17	47	45	926	94.0	-228124.0	-1486.0	100948.0
28	17	47	45	927	95.0	-236646.0	-1483.0	100969.0
28	17	47	45	927	96.0	-245003.0	-1468.0	100990.0
28	17	47	45	928	97.0	-253078.0	-1482.0	100902.0
28	17	47	45	928	98.0	-259752.0	-1469.0	100611.0
28	17	47	45	929	99.0	-264723.0	-1456.0	100558.0
28	17	47	45	929	100.0	-267906.0	-1463.0	100609.0
28	17	47	45	945	101.0	-268821.0	-1464.0	100834.0
28	17	47	45	945	102.0	-268934.0	-1471.0	100912.0
28	17	47	45	946	103.0	-268266.0	-1469.0	100669.0
28	17	47	45	969	104.0	-266447.0	-1471.0	100280.0
28	17	47	45	969	105.0	-264219.0	-1463.0	100043.0
28	17	47	45	970	106.0	-261529.0	-1463.0	100101.0
28	17	47	45	971	107.0	-258526.0	-1461.0	99704.0
28	17	47	45	971	108.0	-255006.0	-1456.0	99087.0
28	17	47	45	972	109.0	-251234.0	-1429.0	99559.0
28	17	47	45	973	110.0	-247950.0	-1423.0	99839.0
28	17	47	45	973	111.0	-244975.0	-1429.0	99829.0
28	17	47	45	974	112.0	-242375.0	-1427.0	99501.0
28	17	47	45	974	113.0	-241060.0	-1427.0	99350.0
28	17	47	45	975	114.0	-240560.0	-1411.0	99084.0
28	17	47	45	975	115.0	-240678.0	-1402.0	99125.0
28	17	47	45	976	116.0	-241338.0	-1400.0	98711.0
28	17	47	45	976	117.0	-242300.0	-1406.0	98378.0
28	17	47	45	993	118.0	-244188.0	-1414.0	98614.0
28	17	47	45	993	119.0	-247269.0	-1419.0	98750.0
28	17	47	45	994	120.0	-251118.0	-1394.0	98377.0
28	17	47	45	995	121.0	-255272.0	-1389.0	98383.0
28	17	47	45	996	122.0	-258963.0	-1392.0	98234.0
28	17	47	45	996	123.0	-262130.0	-1417.0	98251.0
28	17	47	45	997	124.0	-265325.0	-1402.0	97659.0
28	17	47	45	998	125.0	-269006.0	-1406.0	97362.0
28	17	47	45	998	126.0	-272907.0	-1412.0	97173.0
28	17	47	45	999	127.0	-276747.0	-1419.0	96970.0
28	17	47	46	0	128.0	-280227.0	-1413.0	96821.0
28	17	47	46	0	129.0	-283603.0	-1414.0	97312.0
28	17	47	46	1	130.0	-287376.0	-1412.0	97096.0
28	17	47	46	1	131.0	-290317.0	-1404.0	96614.0
28	17	47	46	15	132.0	-292735.0	-1391.0	96797.0
28	17	47	46	42	133.0	-294841.0	-1396.0	96758.0
28	17	47	46	42	135.0	-296164.0	-1377.0	96444.0
28	17	47	46	43	136.0	-295426.0	-1378.0	96333.0
28	17	47	46	44	137.0	-293213.0	-1381.0	95954.0
28	17	47	46	44	138.0	-290532.0	-1372.0	95947.0
28	17	47	46	45	139.0	-287520.0	-1366.0	96320.0
28	17	47	46	46	140.0	-284206.0	-1357.0	96348.0
28	17	47	46	46	141.0	-281190.0	-1360.0	95994.0
28	17	47	46	47	142.0	-277740.0	-1344.0	95853.0
28	17	47	46	61	143.0	-273532.0	-1335.0	96250.0
28	17	47	46	62	144.0	-269233.0	-1307.0	95976.0
28	17	47	46	63	145.0	-264894.0	-1304.0	95878.0
28	17	47	46	63	146.0	-260402.0	-1273.0	95866.0
28	17	47	46	64	147.0	-255804.0	-1272.0	95784.0
28	17	47	46	64	148.0	-250608.0	-1259.0	95626.0
28	17	47	46	65	150.0	-237986.0	-1233.0	95939.0
28	17	47	46	65	165.0	-157253.0	-1069.0	97279.0
28	17	47	46	66	166.0	-156626.0	-1069.0	97041.0
28	17	47	46	66	167.0	-156426.0	-1072.0	97217.0
28	17	47	46	67	168.0	-156994.0	-1052.0	97634.0
28	17	47	46	68	169.0	-157784.0	-1017.0	98051.0
28	17	47	46	68	170.0	-158421.0	-1011.0	97981.0
28	17	47	46	69	171.0	-159376.0	-1002.0	98320.0
28	17	47	46	69	172.0	-161182.0	-1000.0	98822.0
28	17	47	46	85	173.0	-163746.0	-997.0	99143.0
28	17	47	46	85	174.0	-166008.0	-975.0	99297.0
28	17	47	46	86	175.0	-168144.0	-967.0	99429.0
28	17	47	46	87	176.0	-170044.0	-949.0	99421.0
28	17	47	46	87	177.0	-171736.0	-933.0	99533.0
28	17	47	46	88	178.0	-173628.0	-930.0	99291.0
28	17	47	46	88	179.0	-175545.0	-907.0	100034.0
28	17	47	46	89	180.0	-177014.0	-899.0	100224.0
28	17	47	46	90	181.0	-178231.0	-880.0	100371.0
28	17	47	46	90	182.0	-179559.0	-879.0	100494.0
28	17	47	46	91	183.0	-181016.0	-861.0	100288.0
28	17	47	46	91	184.0	-182481.0	-871.0	100501.0
28	17	47	46	92	185.0	-183811.0	-885.0	100498.0
28	17	47	46	107	186.0	-185476.0	-888.0	100298.0
28	17	47	46	108	187.0	-186934.0	-873.0	100416.0
28	17	47	46	109	188.0	-187573.0	-876.0	100610.0
28	17	47	46	109	189.0	-187331.0	-865.0	100764.0
28	17	47	46	110	190.0	-186449.0	-870.0	100994.0
28	17	47	46	110	191.0	-185619.0	-846.0	101148.0
28	17	47	46	111	192.0	-185624.0	-841.0	100987.0
28	17	47	46	112	193.0	-187175.0	-852.0	100813.0
28	17	47	46	132	194.0	-191257.0	-854.0	101014.0
28	17	47	46	133	195.0	-196434.0	-869.0	100648.0
28	17	47	46	133	196.0	-197713.0	-856.0	100462.0
28	17	47	46	134	197.0	-191518.0	-839.0	100534.0
28	17	47	46	135	198.0	-181939.0	-848.0	100820.0
28	17	47	46	135	199.0	-172068.0	-853.0	100952.0
28	17	47	46	136	200.0	-167070.0	-851.0	100809.0
28	17	47	46	162	201.0	-167095.0	-857.0	101227.0
28	17	47	46	163	202.0	-168232.0	-864.0	101276.0
28	17	47	46	163	203.0	-169124.0	-847.0	101136.0
28	17	47	46	164	204.0	-168378.0	-845.0	100854.0
28	17	47	46	165	205.0	-167195.0	-826.0	100958.0
28	17	47	46	165	206.0	-166693.0	-815.0	100899.0
28	17	47	46	166	207.0	-166344.0	-829.0	100644.0
28	17	47	46	184	208.0	-167287.0	-834.0	100788.0
28	17	47	46	185	209.0	-169340.0	-834.0	100956.0
28	17	47	46	185	210.0	-171297.0	-824.0	100762.0
28	17	47	46	186	211.0	-172951.0	-814.0	101094.0
28	17	47	46	187	212.0	-174275.0	-812.0	101277.0
28	17	47	46	187	213.0	-175346.0	-814.0	101133.0
28	17	47	46	188	214.0	-175917.0	-806.0	100826.0
28	17	47	46	207	215.0	-177089.0	-811.0	100613.0
28	17	47	46	208	216.0	-179835.0	-801.0	100296.0
28	17	47	46	209	225.0	-232917.0	-704.0	100012.0
28	17	47	46	209	226.0	-234553.0	-698.0	99748.0
28	17	47	46	210	227.0	-235008.0	-691.0	99709.0
28	17	47	46	210	228.0	-234672.0	-668.0	99773.0
28	17	47	46	211	229.0	-233949.0	-669.0	99871.0
28	17	47	46	211	230.0	-232368.0	-650.0	99877.0
28	17	47	46	212	231.0	-230426.0	-642.0	99946.0
28	17	47	46	213	232.0	-227741.0	-631.0	99889.0
28	17	47	46	213	233.0	-223586.0	-612.0	99996.0
28	17	47	46	214	234.0	-219737.0	-621.0	100126.0
28	17	47	46	214	235.0	-217219.0	-588.0	99934.0
28	17	47	46	230	236.0	-215562.0	-580.0	99519.0
28	17	47	46	230	237.0	-213218.0	-549.0	99368.0
28	17	47	46	231	238.0	-208767.0	-535.0	99603.0
28	17	47	46	254	240.0	-194202.0	-522.0	99639.0
28	17	47	46	255	241.0	-186252.0	-499.0	99873.0
28	17	47	46	255	242.0	-178963.0	-467.0	100203.0
28	17	47	46	256	243.0	-172061.0	-457.0	99919.0
28	17	47	46	256	244.0	-166077.0	-444.0	99677.0
28	17	47	46	257	245.0	-161099.0	-433.0	99704.0
28	17	47	46	258	247.0	-154213.0	-426.0	99639.0
28	17	47	46	258	248.0	-150431.0	-413.0	99750.0
28	17	47	46	259	249.0	-147077.0	-389.0	100177.0
28	17	47	46	259	250.0	-144321.0	-362.0	99855.0
28	17	47	46	260	251.0	-141931.0	-352.0	100198.0
28	17	47	46	260	252.0	-140381.0	-329.0	100591.0
28	17	47	46	261	253.0	-139681.0	-309.0	100380.0
28	17	47	46	262	255.0	-139799.0	-316.0	99908.0
28	17	47	46	262	0.0	-140745.0	-282.0	99886.0
28	17	47	46	263	6.0	-161487.0	-242.0	99808.0
28	17	47	46	263	7.0	-167404.0	-244.0	99593.0
28	17	47	46	264	8.0	-173758.0	-231.0	99936.0
28	17	47	46	264	9.0	-180154.0	-225.0	99879.0
28	17	47	46	265	10.0	-186122.0	-229.0	99465.0
28	17	47	46	266	11.0	-191389.0	-224.0	99506.0
28	17	47	46	266	12.0	-196039.0	-207.0	99707.0
28	17	47	46	267	13.0	-200147.0	-208.0	99847.0
28	17	47	46	267	14.0	-204328.0	-207.0	100143.0
28	17	47	46	268	15.0	-208329.0	-192.0	100361.0
28	17	47	46	269	16.0	-211604.0	-209.0	100036.0
28	17	47	46	269	17.0	-214685.0	-221.0	99594.0
28	17	47	46	270	18.0	-217315.0	-211.0	99693.0
28	17	47	46	271	19.0	-219621.0	-192.0	99896.0
28	17	47	46	271	20.0	-221660.0	-187.0	99816.0
28	17	47	46	272	21.0	-223355.0	-202.0	99861.0
28	17	47	46	273	22.0	-225032.0	-207.0	100344.0
28	17	47	46	273	23.0	-226622.0	-196.0	100323.0
28	17	47	46	282	24.0	-227181.0	-202.0	100140.0
28	17	47	46	283	25.0	-227107.0	-200.0	100284.0
28	17	47	46	284	26.0	-226352.0	-194.0	100511.0
28	17	47	46	284	27.0	-225076.0	-209.0	100084.0
28	17	47	46	285	28.0	-223282.0	-231.0	100091.0
28	17	47	46	304	29.0	-220761.0	-233.0	100000.0
28	17	47	46	304	30.0	-217635.0	-242.0	99579.0
28	17	47	46	305	31.0	-214005.0	-238.0	99461.0
28	17	47	46	306	32.0	-211053.0	-241.0	99806.0
28	17	47	46	306	33.0	-209116.0	-246.0	100078.0
28	17	47	46	307	34.0	-207856.0	-262.0	100488.0
28	17	47	46	307	35.0	-206875.0	-271.0	100856.0
28	17	47	46	308	36.0	-205482.0	-267.0	100671.0
28	17	47	46	309	37.0	-203662.0	-269.0	100402.0
28	17	47	46	309	38.0	-202339.0	-252.0	100346.0
28	17	47	46	327	39.0	-201525.0	-256.0	100041.0
28	17	47	46	327	40.0	-200852.0	-251.0	100010.0
28	17	47	46	328	41.0	-200048.0	-242.0	100036.0
28	17	47	46	329	42.0	-199309.0	-242.0	100311.0
28	17	47	46	329	43.0	-198875.0	-232.0	100224.0
28	17	47	46	330	44.0	-198148.0	-222.0	100144.0
28	17	47	46	331	45.0	-197407.0	-227.0	100394.0
28	17	47	46	331	46.0	-197415.0	-220.0	100121.0
28	17	47	46	332	47.0	-197621.0	-226.0	100071.0
28	17	47	46	332	48.0	-197781.0	-232.0	100174.0
28	17	47	46	333	49.0	-198319.0	-231.0	99828.0
28	17	47	46	333	50.0	-199191.0	-247.0	99733.0
28	17	47	46	334	51.0	-200497.0	-246.0	100070.0
28	17	47	46	335	52.0	-201770.0	-242.0	100346.0
28	17	47	46	349	53.0	-202578.0	-232.0	100283.0
28	17	47	46	350	54.0	-203227.0	-237.0	100384.0
28	17	47	46	350	55.0	-203871.0	-239.0	100830.0
28	17	47	46	351	56.0	-204591.0	-257.0	100906.0
28	17	47	46	351	57.0	-205697.0	-252.0	100788.0
28	17	47	46	352	58.0	-207534.0	-246.0	100855.0
28	17	47	46	353	59.0	-209633.0	-251.0	100631.0
28	17	47	46	372	60.0	-211783.0	-251.0	100128.0
28	17	47	46	373	61.0	-213346.0	-239.0	99932.0
28	17	47	46	373	62.0	-214573.0	-241.0	100386.0
28	17	47	46	374	63.0	-215667.0	-242.0	100524.0
28	17	47	46	375	64.0	-215992.0	-266.0	100658.0
28	17	47	46	375	65.0	-215466.0	-272.0	100786.0
28	17	47	46	376	66.0	-214162.0	-271.0	100824.0
28	17	47	46	376	67.0	-212562.0	-281.0	100487.0
28	17	47	46	377	68.0	-210925.0	-263.0	100415.0
28	17	47	46	378	69.0	-209101.0	-279.0	100483.0
28	17	47	46	378	70.0	-207066.0	-290.0	100516.0
28	17	47	46	379	71.0	-204781.0	-284.0	100329.0
28	17	47	46	379	72.0	-202436.0	-292.0	100413.0
28	17	47	46	380	73.0	-199630.0	-294.0	100292.0
28	17	47	46	380	74.0	-196209.0	-312.0	100283.0
28	17	47	46	396	75.0	-192134.0	-314.0	100443.0
28	17	47	46	396	76.0	-187450.0	-296.0	100389.0
28	17	47	46	397	77.0	-182206.0	-301.0	100372.0
28	17	47	46	419	78.0	-176975.0	-329.0	100258.0
28	17	47	46	420	79.0	-172910.0	-339.0	100056.0
28	17	47	46	421	80.0	-169737.0	-337.0	99834.0
28	17	47	46	421	81.0	-167207.0	-332.0	99838.0
28	17	47	46	422	82.0	-165276.0	-339.0	100158.0
28	17	47	46	422	83.0	-163265.0	-362.0	100015.0
28	17	47	46	423	84.0	-161401.0	-349.0	100270.0
28	17	47	46	423	85.0	-160369.0	-339.0	100245.0
28	17	47	46	424	86.0	-159627.0	-333.0	99991.0
28	17	47	46	425	87.0	-159217.0	-338.0	99839.0
28	17	47	46	425	88.0	-158981.0	-338.0	100161.0
28	17	47	46	426	89.0	-158267.0	-337.0	99889.0
28	17	47	46	426	90.0	-157478.0	-332.0	99779.0
28	17	47	46	427	91.0	-156444.0	-322.0	100005.0
28	17	47	46	428	92.0	-155191.0	-324.0	100274.0
28	17	47	46	428	93.0	-154027.0	-332.0	100152.0
28	17	47	46	429	94.0	-154208.0	-339.0	100201.0
28	17	47	46	431	95.0	-155722.0	-351.0	100534.0
28	17	47	46	432	96.0	-158645.0	-367.0	100559.0
28	17	47	46	433	97.0	-162301.0	-364.0	100704.0
28	17	47	46	433	98.0	-166356.0	-367.0	100519.0
28	17	47	46	434	99.0	-170745.0	-392.0	99920.0
28	17	47	46	435	100.0	-175132.0	-395.0	99829.0
28	17	47	46	435	101.0	-179732.0	-396.0	99977.0
28	17	47	46	436	102.0	-184962.0	-404.0	100172.0
28	17	47	46	449	103.0	-190361.0	-397.0	99856.0
28	17	47	46	450	104.0	-195005.0	-397.0	100064.0
28	17	47	46	450	105.0	-198844.0	-397.0	100629.0
28	17	47	46	451	106.0	-202374.0	-402.0	100674.0
28	17	47	46	451	107.0	-205839.0	-384.0	100549.0
28	17	47	46	452	108.0	-208231.0	-381.0	100484.0
28	17	47	46	453	109.0	-210071.0	-392.0	100438.0
28	17	47	46	474	110.0	-211867.0	-394.0	100273.0
28	17	47	46	474	111.0	-213275.0	-401.0	100238.0
28	17	47	46	475	112.0	-214466.0	-398.0	100364.0
28	17	47	46	475	113.0	-215339.0	-383.0	100251.0
28	17	47	46	476	114.0	-214612.0	-372.0	100185.0
28	17	47	46	477	115.0	-213214.0	-369.0	99563.0
28	17	47	46	477	116.0	-211760.0	-369.0	99501.0
28	17	47	46	478	117.0	-209569.0	-362.0	99555.0
28	17	47	46	478	118.0	-207486.0	-345.0	99431.0
28	17	47	46	479	119.0	-205449.0	-377.0	99004.0
28	17	47	46	479	120.0	-202831.0	-379.0	99418.0
28	17	47	46	480	121.0	-200947.0	-351.0	101063.0
28	17	47	46	480	122.0	-200531.0	-356.0	100906.0
28	17	47	46	481	123.0	-199952.0	-384.0	100565.0
28	17	47	46	507	124.0	-199510.0	-387.0	100806.0
28	17	47	46	508	125.0	-199737.0	-404.0	100408.0
28	17	47	46	508	126.0	-200042.0	-413.0	99764.0
28	17	47	46	509	127.0	-199876.0	-410.0	99130.0
28	17	47	46	509	128.0	-200214.0	-422.0	99243.0
28	17	47	46	510	129.0	-200797.0	-417.0	99259.0
28	17	47	46	510	130.0	-200944.0	-427.0	99411.0
28	17	47	46	531	131.0	-200732.0	-441.0	99736.0
28	17	47	46	532	132.0	-201052.0	-441.0	100342.0
28	17	47	46	533	133.0	-201234.0	-453.0	100538.0
28	17	47	46	533	134.0	-201169.0	-466.0	100976.0
28	17	47	46	534	135.0	-202127.0	-457.0	101026.0
28	17	47	46	534	136.0	-203402.0	-469.0	100411.0
28	17	47	46	535	137.0	-206403.0	-467.0	100191.0
28	17	47	46	555	138.0	-210534.0	-479.0	100289.0
28	17	47	46	556	139.0	-213912.0	-504.0	100096.0
28	17	47	46	556	141.0	-219911.0	-520.0	99865.0
28	17	47	46	557	142.0	-222672.0	-522.0	100119.0
28	17	47	46	557	143.0	-224656.0	-507.0	100128.0
28	17	47	46	558	144.0	-225551.0	-511.0	100329.0
28	17	47	46	558	145.0	-226318.0	-510.0	100562.0
28	17	47	46	559	146.0	-227384.0	-503.0	100144.0
28	17	47	46	559	147.0	-228392.0	-511.0	100053.0
28	17	47	46	560	148.0	-228587.0	-503.0	99999.0
28	17	47	46	560	149.0	-228027.0	-513.0	99868.0
28	17	47	46	561	150.0	-227874.0	-516.0	99903.0
28	17	47	46	561	151.0	-228301.0	-522.0	99797.0
28	17	47	46	562	152.0	-229583.0	-512.0	99377.0
28	17	47	46	563	153.0	-231087.0	-532.0	99820.0
28	17	47	46	563	154.0	-232534.0	-524.0	99936.0
28	17	47	46	564	156.0	-234337.0	-566.0	99924.0
28	17	47	46	564	157.0	-234586.0	-560.0	100053.0
28	17	47	46	565	158.0	-234932.0	-539.0	99900.0
28	17	47	46	565	159.0	-235611.0	-529.0	99714.0
28	17	47	46	566	160.0	-235103.0	-519.0	99774.0
28	17	47	46	566	161.0	-234347.0	-511.0	99766.0
28	17	47	46	567	162.0	-232811.0	-508.0	99240.0
28	17	47	46	568	163.0	-230044.0	-516.0	98771.0
28	17	47	46	568	164.0	-227054.0	-526.0	97963.0
28	17	47	46	569	165.0	-224531.0	-527.0	97153.0
28	17	47	46	569	166.0	-221364.0	-533.0	96054.0
28	17	47	46	570	167.0	-218701.0	-542.0	94879.0
28	17	47	46	570	168.0	-216696.0	-550.0	93328.0
28	17	47	46	571	169.0	-214836.0	-577.0	90343.0
28	17	47	46	572	170.0	-212326.0	-599.0	87821.0
28	17	47	46	572	171.0	-210507.0	-587.0	84406.0
28	17	47	46	573	172.0	-209980.0	-571.0	81285.0
28	17	47	46	581	173.0	-209481.0	-567.0	79281.0
28	17	47	46	582	174.0	-208379.0	-582.0	78245.0
28	17	47	46	583	175.0	-207760.0	-604.0	78648.0
28	17	47	46	583	176.0	-208286.0	-607.0	80496.0
28	17	47	46	584	177.0	-208459.0	-621.0	85117.0
28	17	47	46	585	178.0	-208561.0	-621.0	92325.0
28	17	47	46	603	179.0	-209037.0	-637.0	102670.0
28	17	47	46	604	180.0	-208564.0	-621.0	112911.0
28	17	47	46	604	181.0	-207747.0	-636.0	119665.0
28	17	47	46	605	182.0	-207650.0	-647.0	124171.0
28	17	47	46	606	183.0	-207847.0	-670.0	127139.0
28	17	47	46	606	184.0	-209387.0	-676.0	129473.0
28	17	47	46	607	185.0	-211026.0	-690.0	130134.0
28	17	47	46	607	186.0	-212079.0	-728.0	129878.0
28	17	47	46	608	187.0	-213974.0	-735.0	128966.0
28	17	47	46	626	188.0	-216349.0	-739.0	127186.0
28	17	47	46	627	189.0	-218122.0	-756.0	125571.0
28	17	47	46	628	190.0	-219945.0	-784.0	123884.0
28	17	47	46	628	191.0	-222679.0	-789.0	121490.0
28	17	47	46	629	192.0	-224375.0	-810.0	117799.0
28	17	47	46	629	193.0	-225672.0	-837.0	114204.0
28	17	47	46	630	194.0	-228181.0	-847.0	110598.0
28	17	47	46	631	195.0	-230937.0	-842.0	107604.0
28	17	47	46	631	196.0	-236059.0	-850.0	105474.0
28	17	47	46	632	197.0	-243809.0	-853.0	103964.0
28	17	47	46	632	198.0	-251735.0	-857.0	102832.0
28	17	47	46	633	199.0	-258563.0	-865.0	101349.0
28	17	47	46	633	200.0	-264329.0	-877.0	100614.0
28	17	47	46	651	201.0	-267035.0	-906.0	100144.0
28	17	47	46	652	202.0	-265681.0	-893.0	99864.0
28	17	47	46	652	203.0	-262583.0	-898.0	99730.0
28	17	47	46	653	204.0	-255854.0	-905.0	99394.0
28	17	47	46	654	205.0	-245991.0	-918.0	99039.0
28	17	47	46	654	206.0	-235523.0	-919.0	98784.0
28	17	47	46	655	207.0	-226341.0	-948.0	98808.0
28	17	47	46	674	208.0	-219841.0	-951.0	98741.0
28	17	47	46	675	209.0	-213475.0	-964.0	98155.0
28	17	47	46	675	210.0	-206889.0	-975.0	98048.0
28	17	47	46	676	211.0	-203011.0	-985.0	98147.0
28	17	47	46	677	212.0	-203496.0	-986.0	97974.0
28	17	47	46	677	213.0	-207150.0	-998.0	98074.0
28	17	47	46	678	214.0	-212602.0	-1006.0	98236.0
28	17	47	46	678	215.0	-219846.0	-1024.0	98388.0
28	17	47	46	679	216.0	-227399.0	-1047.0	98186.0
28	17	47	46	679	217.0	-231095.0	-1049.0	97865.0
28	17	47	46	680	218.0	-229749.0	-1059.0	97714.0
28	17	47	46	680	219.0	-224231.0	-1067.0	97412.0
28	17	47	46	681	220.0	-216285.0	-1067.0	97507.0
28	17	47	46	681	221.0	-206713.0	-1074.0	97399.0
28	17	47	46	697	222.0	-195041.0	-1087.0	97284.0
28	17	47	46	697	223.0	-183366.0	-1091.0	97454.0
28	17	47	46	698	224.0	-174251.0	-1092.0	97384.0
28	17	47	46	698	225.0	-167859.0	-1102.0	97179.0
28	17	47	46	699	226.0	-163092.0	-1102.0	97192.0
28	17	47	46	700	227.0	-159103.0	-1102.0	97236.0
28	17	47	46	700	228.0	-153576.0	-1111.0	97051.0
28	17	47	46	720	229.0	-146105.0	-1106.0	96913.0
28	17	47	46	721	230.0	-139429.0	-1099.0	96908.0
28	17	47	46	721	231.0	-133611.0	-1101.0	96505.0
28	17	47	46	722	232.0	-128307.0	-1104.0	96507.0
28	17	47	46	722	233.0	-123884.0	-1105.0	96398.0
28	17	47	46	723	234.0	-120264.0	-1090.0	96471.0
28	17	47	46	724	235.0	-118925.0	-1120.0	96361.0
28	17	47	46	724	236.0	-120013.0	-1138.0	96006.0
28	17	47	46	725	237.0	-122067.0	-1126.0	96296.0
28	17	47	46	725	238.0	-124369.0	-1138.0	96189.0
28	17	47	46	726	239.0	-128491.0	-1137.0	95963.0
28	17	47	46	726	240.0	-134361.0	-1120.0	95786.0
28	17	47	46	727	241.0	-142921.0	-1119.0	95809.0
28	17	47	46	743	242.0	-153078.0	-1122.0	95440.0
28	17	47	46	767	243.0	-164909.0	-1122.0	95518.0
28	17	47	46	768	244.0	-177984.0	-1115.0	96153.0
28	17	47	46	769	245.0	-191050.0	-1127.0	96004.0
28	17	47	46	769	246.0	-203604.0	-1134.0	95437.0
28	17	47	46	770	247.0	-215061.0	-1134.0	95618.0
28	17	47	46	770	248.0	-224677.0	-1131.0	95676.0
28	17	47	46	771	249.0	-232672.0	-1128.0	95148.0
28	17	47	46	772	250.0	-240256.0	-1118.0	95039.0
28	17	47	46	772	251.0	-247333.0	-1119.0	95170.0
28	17	47	46	773	252.0	-252786.0	-1142.0	95143.0
28	17	47	46	773	253.0	-255532.0	-1129.0	95196.0
28	17	47	46	774	254.0	-256486.0	-1135.0	95010.0
28	17	47	46	774	255.0	-256484.0	-1110.0	94813.0
28	17	47	46	775	0.0	-255191.0	-1125.0	94675.0
28	17	47	46	775	1.0	-253779.0	-1128.0	94672.0
28	17	47	46	776	2.0	-251842.0	-1144.0	94696.0
28	17	47	46	777	4.0	-247961.0	-1128.0	94220.0
28	17	47	46	777	5.0	-246678.0	-1131.0	94283.0
28	17	47	46	778	6.0	-244535.0	-1116.0	94056.0
28	17	47	46	778	7.0	-241220.0	-1114.0	94046.0
28	17	47	46	779	8.0	-237762.0	-1123.0	93874.0
28	17	47	46	780	9.0	-234320.0	-1121.0	93883.0
28	17	47	46	780	10.0	-230744.0	-1131.0	94163.0
28	17	47	46	781	11.0	-227901.0	-1119.0	93739.0
28	17	47	46	781	12.0	-225223.0	-1132.0	93425.0
28	17	47	46	782	13.0	-222489.0	-1127.0	93146.0
28	17	47	46	783	14.0	-220392.0	-1129.0	92860.0
28	17	47	46	783	15.0	-218181.0	-1134.0	92579.0
28	17	47	46	784	16.0	-216874.0	-1140.0	92643.0
28	17	47	46	784	17.0	-215871.0	-1154.0	92710.0
28	17	47	46	785	18.0	-214551.0	-1154.0	93119.0
28	17	47	46	786	19.0	-213700.0	-1159.0	92821.0
28	17	47	46	786	20.0	-212684.0	-1188.0	92316.0
28	17	47	46	794	21.0	-211637.0	-1174.0	92019.0
28	17	47	46	795	22.0	-210939.0	-1186.0	91744.0
28	17	47	46	795	23.0	-210684.0	-1185.0	91647.0
28	17	47	46	796	24.0	-210383.0	-1194.0	91339.0
28	17	47	46	796	25.0	-210027.0	-1189.0	91841.0
28	17	47	46	797	26.0	-210091.0	-1172.0	91742.0
28	17	47	46	798	27.0	-209803.0	-1211.0	91749.0
28	17	47	46	817	28.0	-208911.0	-1205.0	91979.0
28	17	47	46	818	29.0	-208366.0	-1197.0	91927.0
28	17	47	46	840	30.0	-208139.0	-1186.0	91349.0
28	17	47	46	841	31.0	-207901.0	-1167.0	91286.0
28	17	47	46	841	32.0	-207059.0	-1188.0	91099.0
28	17	47	46	842	33.0	-206172.0	-1199.0	90678.0
28	17	47	46	842	34.0	-205426.0	-1203.0	90725.0
28	17	47	46	843	35.0	-204038.0	-1209.0	91082.0
28	17	47	46	844	36.0	-203010.0	-1219.0	90953.0
28	17	47	46	844	37.0	-202924.0	-1217.0	91301.0
28	17	47	46	845	38.0	-202911.0	-1226.0	91438.0
28	17	47	46	845	39.0	-203617.0	-1244.0	90991.0
28	17	47	46	846	40.0	-204041.0	-1245.0	90828.0
28	17	47	46	846	41.0	-203763.0	-1254.0	90872.0
28	17	47	46	847	42.0	-203242.0	-1249.0	90899.0
28	17	47	46	847	43.0	-202864.0	-1261.0	90753.0
28	17	47	46	862	44.0	-203482.0	-1246.0	90521.0
28	17	47	46	863	45.0	-204704.0	-1238.0	90486.0
28	17	47	46	863	46.0	-205485.0	-1232.0	90710.0
28	17	47	46	864	47.0	-205207.0	-1231.0	90900.0
28	17	47	46	865	48.0	-203919.0	-1242.0	90844.0
28	17	47	46	865	49.0	-202102.0	-1242.0	90620.0
28	17	47	46	866	50.0	-200669.0	-1238.0	90694.0
28	17	47	46	885	51.0	-198743.0	-1229.0	90576.0
28	17	47	46	885	52.0	-196559.0	-1231.0	90530.0
28	17	47	46	886	53.0	-194760.0	-1222.0	90638.0
28	17	47	46	886	54.0	-192839.0	-1230.0	90804.0
28	17	47	46	887	55.0	-191740.0	-1212.0	90737.0
28	17	47	46	887	56.0	-191129.0	-1196.0	90574.0
28	17	47	46	888	57.0	-189904.0	-1215.0	91289.0
28	17	47	46	889	58.0	-188876.0	-1204.0	91588.0
28	17	47	46	889	59.0	-188377.0	-1193.0	91359.0
28	17	47	46	890	60.0	-187616.0	-1166.0	91649.0
28	17	47	46	890	61.0	-186795.0	-1177.0	91919.0
28	17	47	46	891	62.0	-186724.0	-1180.0	91646.0
28	17	47	46	891	63.0	-187788.0	-1175.0	91350.0
28	17	47	46	892	64.0	-189648.0	-1160.0	91659.0
28	17	47	46	908	65.0	-191592.0	-1167.0	92382.0
28	17	47	46	908	66.0	-193339.0	-1169.0	92195.0
28	17	47	46	909	67.0	-193901.0	-1144.0	92616.0
28	17	47	46	909	68.0	-193672.0	-1135.0	92812.0
28	17	47	46	910	69.0	-192284.0	-1148.0	93125.0
28	17	47	46	911	70.0	-190586.0	-1143.0	93485.0
28	17	47	46	911	71.0	-189417.0	-1129.0	93807.0
28	17	47	46	912	72.0	-187806.0	-1134.0	93718.0
28	17	47	46	913	73.0	-185779.0	-1132.0	93709.0
28	17	47	46	913	74.0	-184393.0	-1124.0	93753.0
28	17	47	46	914	75.0	-183199.0	-1126.0	93916.0
28	17	47	46	914	76.0	-181637.0	-1122.0	94388.0
28	17	47	46	915	77.0	-179774.0	-1128.0	94817.0
28	17	47	46	915	78.0	-177941.0	-1128.0	94533.0
28	17	47	46	933	79.0	-175999.0	-1126.0	94701.0
28	17	47	46	933	80.0	-173992.0	-1120.0	94513.0
28	17	47	46	934	81.0	-171800.0	-1117.0	94528.0
28	17	47	46	935	82.0	-170079.0	-1113.0	94474.0
28	17	47	46	935	83.0	-168171.0	-1094.0	94951.0
28	17	47	46	936	84.0	-165727.0	-1072.0	94889.0
28	17	47	46	936	85.0	-163349.0	-1089.0	95108.0
28	17	47	46	956	86.0	-160904.0	-1104.0	95431.0
28	17	47	46	957	87.0	-158909.0	-1102.0	95584.0
28	17	47	46	957	88.0	-158222.0	-1117.0	95220.0
28	17	47	46	958	89.0	-159679.0	-1124.0	95073.0
28	17	47	46	959	90.0	-162098.0	-1122.0	95288.0
28	17	47	46	959	91.0	-163159.0	-1145.0	95403.0
28	17	47	46	960	92.0	-158347.0	-1161.0	94862.0
28	17	47	46	961	93.0	-147860.0	-1160.0	95006.0
28	17	47	46	961	94.0	-135984.0	-1166.0	95341.0
28	17	47	46	962	95.0	-126864.0	-1174.0	95292.0
28	17	47	46	962	96.0	-121745.0	-1167.0	95261.0
28	17	47	46	963	97.0	-120459.0	-1176.0	96068.0
28	17	47	46	964	98.0	-122081.0	-1185.0	95919.0
28	17	47	46	964	99.0	-123832.0	-1189.0	95309.0
28	17	47	46	965	100.0	-126121.0	-1191.0	95298.0
28	17	47	46	966	101.0	-129035.0	-1220.0	95500.0
28	17	47	46	966	102.0	-133407.0	-1242.0	95310.0
28	17	47	46	967	103.0	-140148.0	-1229.0	94969.0
28	17	47	46	967	104.0	-148277.0	-1217.0	94948.0
28	17	47	46	968	105.0	-157244.0	-1227.0	94720.0
28	17	47	46	969	106.0	-165252.0	-1227.0	95095.0
28	17	47	46	969	107.0	-171612.0	-1231.0	95519.0
28	17	47	46	970	108.0	-177061.0	-1247.0	95537.0
28	17	47	46	970	109.0	-182709.0	-1251.0	95395.0
28	17	47	46	971	110.0	-188988.0	-1261.0	95153.0
28	17	47	46	972	111.0	-196281.0	-1241.0	94956.0
28	17	47	46	972	112.0	-204986.0	-1259.0	94715.0
28	17	47	46	973	113.0	-214578.0	-1271.0	94604.0
28	17	47	46	989	114.0	-225668.0	-1265.0	94937.0
28	17	47	46	990	115.0	-237061.0	-1246.0	95050.0
28	17	47	46	991	116.0	-248156.0	-1249.0	94926.0
28	17	47	46	991	117.0	-258614.0	-1278.0	95056.0
28	17	47	46	992	118.0	-267267.0	-1264.0	95022.0
28	17	47	46	993	119.0	-274443.0	-1279.0	95018.0
28	17	47	46	993	120.0	-279262.0	-1292.0	95169.0
28	17	47	46	994	121.0	-280927.0	-1279.0	94798.0
28	17	47	46	995	122.0	-280541.0	-1292.0	94456.0
28	17	47	46	995	123.0	-278335.0	-1293.0	94715.0
28	17	47	46	996	124.0	-274302.0	-1288.0	94811.0
28	17	47	46	997	125.0	-269234.0	-1293.0	95049.0
28	17	47	46	997	126.0	-263346.0	-1301.0	95095.0
28	17	47	46	998	127.0	-256982.0	-1287.0	95340.0
28	17	47	47	11	128.0	-250929.0	-1274.0	95062.0
28	17	47	47	12	129.0	-245147.0	-1254.0	94903.0
28	17	47	47	13	130.0	-239772.0	-1274.0	94810.0
28	17	47	47	13	131.0	-234685.0	-1285.0	94901.0
28	17	47	47	34	132.0	-229480.0	-1292.0	94509.0
28	17	47	47	35	133.0	-223971.0	-1304.0	94601.0
28	17	47	47	35	134.0	-218066.0	-1307.0	94963.0
28	17	47	47	36	135.0	-212583.0	-1323.0	95187.0
28	17	47	47	37	136.0	-207453.0	-1317.0	95122.0
28	17	47	47	37	137.0	-202504.0	-1339.0	95313.0
28	17	47	47	38	138.0	-197274.0	-1362.0	95330.0
28	17	47	47	39	139.0	-191714.0	-1382.0	95094.0
28	17	47	47	39	140.0	-186117.0	-1384.0	95159.0
28	17	47	47	40	141.0	-180896.0	-1380.0	95084.0
28	17	47	47	40	142.0	-175685.0	-1369.0	94750.0
28	17	47	47	41	143.0	-171509.0	-1392.0	94697.0
28	17	47	47	42	144.0	-168251.0	-1409.0	94803.0
28	17	47	47	42	145.0	-166322.0	-1407.0	95011.0
28	17	47	47	43	146.0	-166114.0	-1416.0	94922.0
28	17	47	47	57	147.0	-166696.0	-1425.0	94931.0
28	17	47	47	80	148.0	-167687.0	-1422.0	95036.0
28	17	47	47	80	149.0	-169364.0	-1446.0	95028.0
28	17	47	47	81	150.0	-170933.0	-1447.0	95036.0
28	17	47	47	82	151.0	-172649.0	-1447.0	94900.0
28	17	47	47	82	152.0	-174451.0	-1455.0	94362.0
28	17	47	47	83	153.0	-175184.0	-1461.0	94254.0
28	17	47	47	84	154.0	-175082.0	-1469.0	94449.0
28	17	47	47	84	155.0	-174694.0	-1480.0	94719.0
28	17	47	47	85	156.0	-174459.0	-1474.0	94788.0
28	17	47	47	85	157.0	-174024.0	-1481.0	94658.0
28	17	47	47	86	158.0	-173299.0	-1477.0	94568.0
28	17	47	47	86	159.0	-172402.0	-1486.0	94841.0
28	17	47	47	87	160.0	-171644.0	-1497.0	95141.0
28	17	47	47	88	161.0	-171206.0	-1518.0	94567.0
28	17	47	47	88	162.0	-171384.0	-1512.0	94358.0
28	17	47	47	89	163.0	-172774.0	-1504.0	94806.0
28	17	47	47	89	164.0	-173839.0	-1484.0	94903.0
28	17	47	47	90	165.0	-172232.0	-1504.0	94569.0
28	17	47	47	90	166.0	-169146.0	-1514.0	94821.0
28	17	47	47	91	167.0	-165867.0	-1520.0	95000.0
28	17	47	47	92	168.0	-162300.0	-1516.0	95074.0
28	17	47	47	92	169.0	-158870.0	-1526.0	94851.0
28	17	47	47	93	170.0	-157627.0	-1545.0	95085.0
28	17	47	47	94	171.0	-157097.0	-1556.0	95200.0
28	17	47	47	94	172.0	-157017.0	-1554.0	94702.0
28	17	47	47	95	173.0	-158161.0	-1563.0	94734.0
28	17	47	47	96	174.0	-158529.0	-1575.0	95428.0
28	17	47	47	97	175.0	-159245.0	-1585.0	95561.0
28	17	47	47	97	176.0	-160319.0	-1583.0	95356.0
28	17	47	47	107	177.0	-160158.0	-1593.0	95762.0
28	17	47	47	108	178.0	-160371.0	-1614.0	95763.0
28	17	47	47	109	179.0	-161311.0	-1631.0	95628.0
28	17	47	47	110	180.0	-160839.0	-1634.0	95339.0
28	17	47	47	110	181.0	-160113.0	-1646.0	95299.0
28	17	47	47	111	182.0	-160079.0	-1652.0	94968.0
28	17	47	47	112	183.0	-159737.0	-1653.0	94699.0
28	17	47	47	128	184.0	-159339.0	-1646.0	94863.0
28	17	47	47	129	185.0	-159621.0	-1667.0	95133.0
28	17	47	47	129	186.0	-159997.0	-1672.0	95191.0
28	17	47	47	130	187.0	-160185.0	-1675.0	95221.0
28	17	47	47	131	188.0	-161384.0	-1681.0	95474.0
28	17	47	47	131	189.0	-163187.0	-1688.0	95502.0
28	17	47	47	151	190.0	-165168.0	-1679.0	95127.0
28	17	47	47	152	191.0	-167922.0	-1697.0	95149.0
28	17	47	47	152	192.0	-171186.0	-1703.0	95003.0
28	17	47	47	153	193.0	-174080.0	-1704.0	95035.0
28	17	47	47	154	194.0	-176940.0	-1702.0	94879.0
28	17	47	47	154	195.0	-180257.0	-1696.0	95024.0
28	17	47	47	155	196.0	-182548.0	-1700.0	95120.0
28	17	47	47	156	197.0	-184618.0	-1699.0	95168.0
28	17	47	47	156	198.0	-186291.0	-1696.0	95214.0
28	17	47	47	157	199.0	-187339.0	-1694.0	95454.0
28	17	47	47	157	200.0	-187876.0	-1703.0	95636.0
28	17	47	47	158	201.0	-188266.0	-1706.0	95545.0
28	17	47	47	159	202.0	-188569.0	-1699.0	95222.0
28	17	47	47	159	203.0	-188241.0	-1732.0	95206.0
28	17	47	47	174	204.0	-188432.0	-1734.0	94937.0
28	17	47	47	174	205.0	-188183.0	-1731.0	95214.0
28	17	47	47	175	206.0	-187052.0	-1757.0	95503.0
28	17	47	47	176	207.0	-186499.0	-1752.0	96154.0
28	17	47	47	176	208.0	-186370.0	-1737.0	96175.0
28	17	47	47	177	209.0	-184880.0	-1737.0	95904.0
28	17	47	47	177	210.0	-184067.0	-1762.0	95743.0
28	17	47	47	197	211.0	-184121.0	-1767.0	95578.0
28	17	47	47	198	212.0	-182852.0	-1776.0	95593.0
28	17	47	47	199	213.0	-181858.0	-1773.0	95854.0
28	17	47	47	200	214.0	-180906.0	-1767.0	96002.0
28	17	47	47	200	215.0	-179227.0	-1781.0	95810.0
28	17	47	47	201	216.0	-177322.0	-1792.0	96078.0
28	17	47	47	201	217.0	-175911.0	-1775.0	96414.0
28	17	47	47	202	218.0	-173754.0	-1779.0	96221.0
28	17	47	47	203	219.0	-172059.0	-1776.0	95851.0
28	17	47	47	203	220.0	-171837.0	-1786.0	95754.0
28	17	47	47	204	221.0	-171561.0	-1812.0	95835.0
28	17	47	47	205	222.0	-171779.0	-1804.0	95669.0
28	17	47	47	205	223.0	-171892.0	-1799.0	95783.0
28	17	47	47	206	224.0	-170722.0	-1777.0	95704.0
28	17	47	47	221	225.0	-170545.0	-1783.0	95790.0
28	17	47	47	221	226.0	-170656.0	-1791.0	96128.0
28	17	47	47	222	227.0	-169321.0	-1784.0	95987.0
28	17	47	47	223	228.0	-168844.0	-1781.0	95872.0
28	17	47	47	223	229.0	-168663.0	-1786.0	95969.0
28	17	47	47	224	230.0	-167280.0	-1773.0	95929.0
28	17	47	47	224	231.0	-166344.0	-1774.0	95559.0
28	17	47	47	244	232.0	-167043.0	-1755.0	95434.0
28	17	47	47	245	233.0	-166826.0	-1761.0	95575.0
28	17	47	47	245	234.0	-167906.0	-1783.0	95473.0
28	17	47	47	246	235.0	-169492.0	-1779.0	95557.0
28	17	47	47	247	236.0	-169867.0	-1785.0	95984.0
28	17	47	47	247	237.0	-170599.0	-1791.0	95729.0
28	17	47	47	248	238.0	-171522.0	-1781.0	95983.0
28	17	47	47	248	239.0	-171494.0	-1771.0	96161.0
28	17	47	47	249	240.0	-171397.0	-1774.0	96025.0
28	17	47	47	250	241.0	-171535.0	-1806.0	95618.0
28	17	47	47	250	242.0	-170559.0	-1806.0	95269.0
28	17	47	47	251	243.0	-170136.0	-1803.0	95448.0
28	17	47	47	252	244.0	-170409.0	-1797.0	95584.0
28	17	47	47	252	245.0	-169531.0	-1793.0	95399.0
28	17	47	47	275	246.0	-168696.0	-1791.0	95759.0
28	17	47	47	276	247.0	-168461.0	-1791.0	95771.0
28	17	47	47	277	248.0	-167894.0	-1794.0	95266.0
28	17	47	47	277	249.0	-167156.0	-1800.0	95007.0
28	17	47	47	278	250.0	-166286.0	-1792.0	94993.0
28	17	47	47	278	251.0	-164342.0	-1807.0	94685.0
28	17	47	47	279	252.0	-162181.0	-1840.0	94681.0
28	17	47	47	280	253.0	-159847.0	-1830.0	94689.0
28	17	47	47	280	254.0	-157058.0	-1812.0	94888.0
28	17	47	47	281	255.0	-154713.0	-1819.0	94937.0
28	17	47	47	281	0.0	-152512.0	-1829.0	95156.0
28	17	47	47	282	1.0	-149016.0	-1831.0	94974.0
28	17	47	47	282	2.0	-145414.0	-1839.0	94954.0
28	17	47	47	283	3.0	-142720.0	-1869.0	94686.0
28	17	47	47	284	4.0	-139753.0	-1867.0	94173.0
28	17	47	47	284	5.0	-137033.0	-1857.0	94068.0
28	17	47	47	285	6.0	-135904.0	-1857.0	94037.0
28	17	47	47	285	7.0	-135504.0	-1847.0	94273.0
28	17	47	47	286	8.0	-135376.0	-1867.0	94324.0
28	17	47	47	286	9.0	-135871.0	-1881.0	94826.0
28	17	47	47	287	10.0	-136588.0	-1892.0	95103.0
28	17	47	47	287	11.0	-137357.0	-1902.0	95223.0
28	17	47	47	288	12.0	-138344.0	-1882.0	95486.0
28	17	47	47	289	13.0	-139092.0	-1882.0	95266.0
28	17	47	47	289	14.0	-139206.0	-1863.0	95074.0
28	17	47	47	290	15.0	-139300.0	-1889.0	94899.0
28	17	47	47	290	16.0	-139646.0	-1899.0	94665.0
28	17	47	47	291	17.0	-139896.0	-1904.0	94679.0
28	17	47	47	302	18.0	-140349.0	-1916.0	94777.0
28	17	47	47	302	19.0	-141307.0	-1899.0	94830.0
28	17	47	47	303	20.0	-141902.0	-1901.0	94917.0
28	17	47	47	303	21.0	-142754.0	-1906.0	94570.0
28	17	47	47	304	22.0	-143554.0	-1901.0	94279.0
28	17	47	47	305	23.0	-143931.0	-1902.0	94260.0
28	17	47	47	305	24.0	-144247.0	-1914.0	94088.0
28	17	47	47	325	25.0	-144315.0	-1933.0	94056.0
28	17	47	47	326	26.0	-144572.0	-1947.0	93929.0
28	17	47	47	326	27.0	-144671.0	-1939.0	94061.0
28	17	47	47	327	28.0	-144121.0	-1928.0	94142.0
28	17	47	47	327	29.0	-143259.0	-1922.0	94401.0
28	17	47	47	328	30.0	-142188.0	-1935.0	94561.0
28	17	47	47	329	31.0	-141511.0	-1924.0	94478.0
28	17	47	47	348	32.0	-141077.0	-1937.0	94484.0
28	17	47	47	349	33.0	-141397.0	-1931.0	94014.0
28	17	47	47	349	34.0	-142316.0	-1939.0	94284.0
28	17	47	47	350	35.0	-143619.0	-1935.0	94212.0
28	17	47	47	350	36.0	-145993.0	-1914.0	93884.0
28	17	47	47	351	37.0	-149136.0	-1915.0	94226.0
28	17	47	47	352	38.0	-151702.0	-1910.0	94441.0
28	17	47	47	352	39.0	-154966.0	-1917.0	94107.0
28	17	47	47	353	40.0	-158621.0	-1936.0	94050.0
28	17	47	47	353	41.0	-162125.0	-1936.0	93646.0
28	17	47	47	354	42.0	-165374.0	-1947.0	92811.0
28	17	47	47	354	43.0	-168261.0	-1936.0	91653.0
28	17	47	47	355	44.0	-171411.0	-1927.0	90681.0
28	17	47	47	372	45.0	-174124.0	-1949.0	89420.0
28	17	47	47	372	46.0	-176906.0	-1969.0	88072.0
28	17	47	47	373	47.0	-180344.0	-1971.0	85844.0
28	17	47	47	373	48.0	-184519.0	-1975.0	83573.0
28	17	47	47	374	49.0	-188826.0	-1971.0	80801.0
28	17	47	47	374	50.0	-193256.0	-1956.0	77032.0
28	17	47	47	375	51.0	-198039.0	-1959.0	74329.0
28	17	47	47	394	52.0	-202156.0	-1960.0	70942.0
28	17	47	47	395	53.0	-205197.0	-1958.0	69623.0
28	17	47	47	396	54.0	-208152.0	-1976.0	69152.0
28	17	47	47	396	55.0	-210997.0	-1977.0	70721.0
28	17	47	47	397	56.0	-213308.0	-1962.0	78088.0
28	17	47	47	397	57.0	-215528.0	-1962.0	88298.0
28	17	47	47	398	58.0	-217321.0	-1970.0	98126.0
28	17	47	47	398	59.0	-218869.0	-1981.0	105819.0
28	17	47	47	399	60.0	-219419.0	-1996.0	110869.0
28	17	47	47	399	61.0	-219737.0	-2006.0	115112.0
28	17	47	47	400	62.0	-220006.0	-2002.0	118339.0
28	17	47	47	400	63.0	-219761.0	-1999.0	120224.0
28	17	47	47	401	64.0	-219297.0	-2005.0	121567.0
28	17	47	47	402	65.0	-218319.0	-2011.0	121185.0
28	17	47	47	418	66.0	-217106.0	-2004.0	120258.0
28	17	47	47	419	67.0	-214678.0	-2006.0	119020.0
28	17	47	47	419	68.0	-211614.0	-2024.0	118505.0
28	17	47	47	420	69.0	-208427.0	-2011.0	117336.0
28	17	47	47	420	70.0	-205012.0	-2012.0	115123.0
28	17	47	47	421	71.0	-200536.0	-2012.0	111916.0
28	17	47	47	421	72.0	-195652.0	-2026.0	107992.0
28	17	47	47	442	73.0	-191841.0	-2037.0	104408.0
28	17	47	47	443	74.0	-189268.0	-2046.0	101808.0
28	17	47	47	443	75.0	-189779.0	-2045.0	99474.0
28	17	47	47	444	76.0	-193247.0	-2058.0	97720.0
28	17	47	47	444	77.0	-198906.0	-2053.0	96691.0
28	17	47	47	445	78.0	-205083.0	-2055.0	95759.0
28	17	47	47	445	79.0	-210421.0	-2055.0	94971.0
28	17	47	47	446	80.0	-214347.0	-2039.0	94013.0
28	17	47	47	465	81.0	-215747.0	-2034.0	93523.0
28	17	47	47	466	82.0	-214700.0	-2036.0	93294.0
28	17	47	47	467	83.0	-211112.0	-2041.0	93106.0
28	17	47	47	467	84.0	-206587.0	-2059.0	92809.0
28	17	47	47	468	85.0	-201951.0	-2049.0	92416.0
28	17	47	47	468	86.0	-197992.0	-2046.0	92413.0
28	17	47	47	469	87.0	-196406.0	-2071.0	92487.0
28	17	47	47	469	88.0	-197321.0	-2081.0	92449.0
28	17	47	47	470	93.0	-208651.0	-2091.0	91799.0
28	17	47	47	470	94.0	-206531.0	-2079.0	91391.0
28	17	47	47	471	95.0	-206448.0	-2091.0	91031.0
28	17	47	47	472	96.0	-208860.0	-2094.0	91498.0
28	17	47	47	472	97.0	-209640.0	-2089.0	91346.0
28	17	47	47	488	98.0	-206291.0	-2105.0	91243.0
28	17	47	47	489	99.0	-198853.0	-2109.0	91405.0
28	17	47	47	489	100.0	-189377.0	-2099.0	91399.0
28	17	47	47	490	101.0	-180077.0	-2096.0	91283.0
28	17	47	47	490	102.0	-172916.0	-2090.0	91152.0
28	17	47	47	491	103.0	-168544.0	-2081.0	91203.0
28	17	47	47	491	104.0	-165611.0	-2084.0	91146.0
28	17	47	47	511	105.0	-163469.0	-2100.0	90569.0
28	17	47	47	511	106.0	-161779.0	-2087.0	90398.0
28	17	47	47	512	108.0	-156293.0	-2146.0	90525.0
28	17	47	47	513	109.0	-152376.0	-2126.0	90677.0
28	17	47	47	513	110.0	-148877.0	-2117.0	90902.0
28	17	47	47	514	111.0	-146059.0	-2129.0	90693.0
28	17	47	47	514	112.0	-144888.0	-2117.0	90605.0
28	17	47	47	515	113.0	-144333.0	-2104.0	90523.0
28	17	47	47	515	114.0	-144619.0	-2106.0	90444.0
28	17	47	47	516	115.0	-144978.0	-2115.0	89638.0
28	17	47	47	517	116.0	-146017.0	-2122.0	89661.0
28	17	47	47	517	117.0	-148661.0	-2121.0	89624.0
28	17	47	47	518	118.0	-153257.0	-2121.0	90022.0
28	17	47	47	518	119.0	-159583.0	-2119.0	89941.0
28	17	47	47	542	120.0	-167021.0	-2115.0	90008.0
28	17	47	47	543	121.0	-175589.0	-2121.0	89612.0
28	17	47	47	544	123.0	-192374.0	-2124.0	89621.0
28	17	47	47	545	124.0	-201368.0	-2121.0	89034.0
28	17	47	47	545	125.0	-209436.0	-2098.0	89004.0
28	17	47	47	546	126.0	-217566.0	-2099.0	89161.0
28	17	47	47	546	127.0	-225331.0	-2111.0	88789.0
28	17	47	47	557	128.0	-232448.0	-2099.0	88944.0
28	17	47	47	557	129.0	-240521.0	-2109.0	89089.0
28	17	47	47	558	130.0	-248060.0	-2123.0	89386.0
28	17	47	47	559	131.0	-255417.0	-2136.0	88999.0
28	17	47	47	559	132.0	-261670.0	-2112.0	88933.0
28	17	47	47	560	133.0	-266114.0	-2112.0	88976.0
28	17	47	47	560	134.0	-269981.0	-2116.0	88606.0
28	17	47	47	561	135.0	-272552.0	-2128.0	88096.0
28	17	47	47	562	136.0	-274812.0	-2144.0	88096.0
28	17	47	47	562	145.0	-265601.0	-2182.0	86361.0
28	17	47	47	563	146.0	-262426.0	-2190.0	86267.0
28	17	47	47	564	147.0	-259223.0	-2176.0	86286.0
28	17	47	47	564	148.0	-256589.0	-2165.0	86283.0
28	17	47	47	565	149.0	-253692.0	-2153.0	85946.0
28	17	47	47	566	150.0	-249837.0	-2170.0	86085.0
28	17	47	47	566	151.0	-245829.0	-2168.0	85885.0
28	17	47	47	567	152.0	-242085.0	-2148.0	85398.0
28	17	47	47	568	153.0	-240387.0	-2143.0	85355.0
28	17	47	47	568	154.0	-239139.0	-2152.0	85238.0
28	17	47	47	579	155.0	-237387.0	-2141.0	85120.0
28	17	47	47	580	156.0	-235172.0	-2151.0	84671.0
28	17	47	47	581	157.0	-232890.0	-2153.0	84536.0
