30	14	48	31	572	59.0	-200597.0	-20791.0	74841.0
30	14	48	31	574	60.0	-200577.0	-21849.0	136672.0
30	14	48	31	575	61.0	-200517.0	-21775.0	160981.0
30	14	48	31	577	62.0	-200552.0	-20048.0	162665.0
30	14	48	31	579	63.0	-200677.0	-19923.0	153429.0
30	14	48	31	581	64.0	-200527.0	-19825.0	133000.0
30	14	48	31	582	65.0	-200454.0	-19849.0	88626.0
30	14	48	31	584	66.0	-200367.0	-19585.0	23739.0
30	14	48	31	585	67.0	-200193.0	-19446.0	-5645.0
30	14	48	31	596	68.0	-200005.0	-19741.0	13718.0
30	14	48	31	597	69.0	-199908.0	-20415.0	78463.0
30	14	48	31	598	70.0	-199939.0	-21062.0	138467.0
30	14	48	31	599	71.0	-199964.0	-20936.0	160231.0
30	14	48	31	599	72.0	-200079.0	-20444.0	160044.0
30	14	48	31	600	73.0	-200109.0	-19986.0	148884.0
30	14	48	31	600	74.0	-200166.0	-19466.0	125884.0
30	14	48	31	601	75.0	-200230.0	-18374.0	79268.0
30	14	48	31	601	76.0	-200291.0	-17863.0	15094.0
30	14	48	31	602	77.0	-200396.0	-16890.0	-11895.0
30	14	48	31	623	78.0	-200474.0	-17167.0	7619.0
30	14	48	31	624	79.0	-200531.0	-18183.0	70351.0
30	14	48	31	624	80.0	-200599.0	-18873.0	126859.0
30	14	48	31	625	81.0	-200820.0	-18589.0	147960.0
30	14	48	31	625	82.0	-201034.0	-18344.0	148049.0
30	14	48	31	660	83.0	-201184.0	-18527.0	136890.0
30	14	48	31	705	84.0	-201207.0	-17771.0	115570.0
30	14	48	31	706	85.0	-201254.0	-17167.0	70901.0
30	14	48	31	706	86.0	-201171.0	-16643.0	10852.0
30	14	48	31	707	87.0	-201062.0	-16946.0	-13516.0
30	14	48	31	708	88.0	-201006.0	-18042.0	7331.0
30	14	48	31	708	89.0	-200901.0	-19347.0	69739.0
30	14	48	31	709	90.0	-200839.0	-19642.0	124540.0
30	14	48	31	709	91.0	-200733.0	-19582.0	144998.0
30	14	48	31	710	92.0	-200680.0	-19354.0	147429.0
30	14	48	31	710	93.0	-200628.0	-18669.0	138019.0
30	14	48	31	711	94.0	-200628.0	-18250.0	115498.0
30	14	48	31	712	95.0	-200554.0	-17183.0	67961.0
30	14	48	31	712	96.0	-200427.0	-15819.0	9128.0
30	14	48	31	713	97.0	-200392.0	-15428.0	-13592.0
30	14	48	31	713	108.0	-200505.0	-12905.0	9682.0
30	14	48	31	714	130.0	-200022.0	-11351.0	116973.0
30	14	48	31	715	131.0	-200079.0	-10849.0	133373.0
30	14	48	31	715	132.0	-200039.0	-9426.0	134171.0
30	14	48	31	716	133.0	-199974.0	-8291.0	122459.0
30	14	48	31	716	134.0	-199979.0	-7484.0	97225.0
30	14	48	31	717	135.0	-199952.0	-6929.0	49894.0
30	14	48	31	717	136.0	-199937.0	-6434.0	803.0
30	14	48	31	750	137.0	-199922.0	-6526.0	-12021.0
30	14	48	31	751	138.0	-200085.0	-7575.0	14973.0
30	14	48	31	751	139.0	-200185.0	-8820.0	73529.0
30	14	48	31	752	140.0	-200124.0	-8810.0	116299.0
30	14	48	31	753	141.0	-200099.0	-8611.0	130960.0
30	14	48	31	753	142.0	-200087.0	-9020.0	130002.0
30	14	48	31	754	143.0	-200071.0	-10962.0	117118.0
30	14	48	31	755	144.0	-200117.0	-9132.0	93866.0
30	14	48	31	755	145.0	-200164.0	-5797.0	48993.0
30	14	48	31	756	146.0	-200169.0	-5071.0	1476.0
30	14	48	31	756	147.0	-200154.0	-5356.0	-11149.0
30	14	48	31	757	148.0	-200220.0	-5862.0	14905.0
30	14	48	31	757	149.0	-200447.0	-6744.0	69203.0
30	14	48	31	758	150.0	-200426.0	-7662.0	109589.0
30	14	48	31	759	151.0	-200464.0	-8021.0	124113.0
30	14	48	31	759	153.0	-200290.0	-6464.0	110526.0
30	14	48	31	760	154.0	-200449.0	-6207.0	87097.0
30	14	48	31	760	155.0	-200474.0	-5540.0	38296.0
30	14	48	31	761	156.0	-200391.0	-4604.0	-9797.0
30	14	48	31	762	157.0	-200367.0	-4281.0	-20374.0
30	14	48	31	762	158.0	-200360.0	-5210.0	7351.0
30	14	48	31	795	159.0	-200372.0	-6304.0	64374.0
30	14	48	31	796	160.0	-200437.0	-6541.0	103960.0
30	14	48	31	797	161.0	-200484.0	-6704.0	115019.0
30	14	48	31	797	162.0	-200494.0	-7305.0	113048.0
30	14	48	31	798	163.0	-200474.0	-6877.0	100317.0
30	14	48	31	799	164.0	-200338.0	-6012.0	77845.0
30	14	48	31	800	165.0	-200379.0	-4887.0	30686.0
30	14	48	31	800	166.0	-200432.0	-3573.0	-14077.0
30	14	48	31	801	167.0	-200444.0	-3467.0	-24687.0
30	14	48	31	802	168.0	-200396.0	-4171.0	4925.0
30	14	48	31	803	169.0	-200289.0	-5588.0	61319.0
30	14	48	31	803	170.0	-200316.0	-6617.0	98776.0
30	14	48	31	804	171.0	-200278.0	-6760.0	109806.0
30	14	48	31	805	172.0	-200220.0	-6007.0	107830.0
30	14	48	31	805	173.0	-200214.0	-5366.0	96898.0
30	14	48	31	806	175.0	-200191.0	-3584.0	28067.0
30	14	48	31	806	176.0	-200266.0	-3415.0	-15513.0
30	14	48	31	807	177.0	-200229.0	-3011.0	-22812.0
30	14	48	31	808	178.0	-200174.0	-3234.0	8341.0
30	14	48	31	808	179.0	-200214.0	-4221.0	63643.0
30	14	48	31	809	180.0	-200277.0	-4989.0	98673.0
30	14	48	31	809	181.0	-200330.0	-4539.0	108430.0
30	14	48	31	841	182.0	-200328.0	-1581.0	106965.0
30	14	48	31	841	183.0	-200240.0	-633.0	94881.0
30	14	48	31	842	184.0	-200174.0	-710.0	71723.0
30	14	48	31	843	185.0	-200138.0	-102.0	23926.0
30	14	48	31	843	186.0	-200107.0	1220.0	-16693.0
30	14	48	31	844	187.0	-200218.0	1341.0	-24186.0
30	14	48	31	845	188.0	-200349.0	675.0	6595.0
30	14	48	31	845	189.0	-200141.0	-281.0	62460.0
30	14	48	31	846	190.0	-200121.0	-579.0	98306.0
30	14	48	31	846	191.0	-200184.0	-659.0	108574.0
30	14	48	31	847	192.0	-200141.0	-777.0	105820.0
30	14	48	31	848	193.0	-200162.0	-649.0	92075.0
30	14	48	31	848	194.0	-200145.0	-192.0	66831.0
30	14	48	31	849	195.0	-200157.0	698.0	17966.0
30	14	48	31	849	196.0	-200132.0	2044.0	-21467.0
30	14	48	31	850	198.0	-200062.0	1884.0	5610.0
30	14	48	31	851	199.0	-200077.0	1021.0	58819.0
30	14	48	31	851	200.0	-200108.0	647.0	91226.0
30	14	48	31	852	201.0	-200236.0	426.0	100114.0
30	14	48	31	852	202.0	-200427.0	444.0	97453.0
30	14	48	31	853	203.0	-200382.0	307.0	85395.0
30	14	48	31	885	204.0	-200346.0	945.0	61528.0
30	14	48	31	886	205.0	-200540.0	1765.0	13821.0
30	14	48	31	886	206.0	-200629.0	2451.0	-24075.0
30	14	48	31	887	207.0	-200527.0	2231.0	-27484.0
30	14	48	31	887	208.0	-200601.0	1155.0	7863.0
30	14	48	31	888	209.0	-200629.0	-732.0	63889.0
30	14	48	31	889	210.0	-200741.0	-2941.0	95541.0
30	14	48	31	889	211.0	-200771.0	-1451.0	103518.0
30	14	48	31	890	212.0	-200784.0	539.0	99062.0
30	14	48	31	891	213.0	-200795.0	1222.0	86392.0
30	14	48	31	891	214.0	-200677.0	1864.0	62869.0
30	14	48	31	892	215.0	-200760.0	3256.0	14461.0
30	14	48	31	893	216.0	-200787.0	4441.0	-22376.0
30	14	48	31	893	217.0	-200664.0	4374.0	-23793.0
30	14	48	31	894	218.0	-200648.0	3638.0	11894.0
30	14	48	31	894	220.0	-200629.0	709.0	94388.0
30	14	48	31	895	221.0	-200696.0	928.0	101833.0
30	14	48	31	896	222.0	-200570.0	2103.0	97878.0
30	14	48	31	896	223.0	-200571.0	2266.0	84575.0
30	14	48	31	897	224.0	-200437.0	3436.0	59152.0
30	14	48	31	897	225.0	-200312.0	5156.0	8396.0
30	14	48	31	898	226.0	-200258.0	6639.0	-28067.0
30	14	48	31	931	227.0	-200317.0	6625.0	-29903.0
30	14	48	31	931	228.0	-200302.0	5658.0	7285.0
30	14	48	31	932	229.0	-200213.0	4046.0	61794.0
30	14	48	31	933	230.0	-200169.0	3996.0	92057.0
30	14	48	31	934	231.0	-200171.0	4390.0	98468.0
30	14	48	31	935	232.0	-200118.0	4871.0	95582.0
30	14	48	31	935	233.0	-200044.0	5210.0	83421.0
30	14	48	31	936	234.0	-199929.0	5407.0	56982.0
30	14	48	31	937	235.0	-199867.0	6351.0	7445.0
30	14	48	31	937	236.0	-199862.0	6899.0	-27302.0
30	14	48	31	938	237.0	-199856.0	7108.0	-27095.0
30	14	48	31	938	238.0	-199836.0	6679.0	12038.0
30	14	48	31	939	239.0	-199839.0	5539.0	66425.0
30	14	48	31	940	240.0	-199949.0	4838.0	96284.0
30	14	48	31	940	241.0	-199986.0	4803.0	104078.0
30	14	48	31	941	243.0	-200313.0	5201.0	87079.0
30	14	48	31	942	244.0	-200341.0	5840.0	58915.0
30	14	48	31	943	245.0	-200372.0	7254.0	8083.0
30	14	48	31	943	246.0	-200352.0	9003.0	-26292.0
30	14	48	31	944	247.0	-200344.0	8513.0	-25549.0
30	14	48	31	944	248.0	-200219.0	6954.0	13353.0
30	14	48	31	975	249.0	-200157.0	5722.0	65258.0
30	14	48	31	976	250.0	-200102.0	5523.0	93156.0
30	14	48	31	976	251.0	-200034.0	5541.0	99542.0
30	14	48	31	977	252.0	-200170.0	5775.0	94970.0
30	14	48	31	977	253.0	-200299.0	6705.0	80905.0
30	14	48	31	978	254.0	-200421.0	7592.0	51289.0
30	14	48	31	979	255.0	-200439.0	8078.0	178.0
30	14	48	31	979	0.0	-200490.0	8524.0	-33072.0
30	14	48	31	980	1.0	-200611.0	8468.0	-31861.0
30	14	48	31	980	2.0	-200695.0	7162.0	8552.0
30	14	48	31	981	3.0	-200719.0	6233.0	62361.0
30	14	48	31	982	4.0	-200737.0	6750.0	89978.0
30	14	48	31	982	5.0	-200939.0	6939.0	96511.0
30	14	48	31	983	6.0	-201007.0	7134.0	92262.0
30	14	48	31	983	7.0	-201000.0	7471.0	77969.0
30	14	48	31	984	9.0	-200866.0	9341.0	-3626.0
30	14	48	31	985	10.0	-200859.0	11753.0	-36547.0
30	14	48	31	985	11.0	-200843.0	10878.0	-33627.0
30	14	48	31	986	12.0	-200822.0	8546.0	8386.0
30	14	48	31	986	13.0	-200789.0	7406.0	59144.0
30	14	48	31	987	14.0	-200759.0	7189.0	83731.0
30	14	48	31	988	15.0	-200830.0	7056.0	89454.0
30	14	48	32	20	16.0	-200861.0	7136.0	84038.0
30	14	48	32	21	17.0	-200678.0	7458.0	66962.0
30	14	48	32	22	18.0	-200272.0	8151.0	36716.0
30	14	48	32	22	19.0	-200679.0	9531.0	-14224.0
30	14	48	32	23	20.0	-201152.0	10222.0	-44576.0
30	14	48	32	24	21.0	-201325.0	9845.0	-39077.0
30	14	48	32	24	22.0	-201261.0	8730.0	4924.0
30	14	48	32	25	23.0	-201193.0	7579.0	57859.0
30	14	48	32	25	24.0	-201114.0	7587.0	82476.0
30	14	48	32	26	25.0	-201125.0	9491.0	87648.0
30	14	48	32	27	26.0	-201174.0	9057.0	82131.0
30	14	48	32	27	27.0	-201134.0	9095.0	68349.0
30	14	48	32	28	28.0	-201026.0	9597.0	37216.0
30	14	48	32	29	29.0	-200942.0	10512.0	-14106.0
30	14	48	32	29	30.0	-200932.0	10888.0	-41877.0
30	14	48	32	30	32.0	-200927.0	9679.0	7987.0
30	14	48	32	31	33.0	-200968.0	8774.0	55938.0
30	14	48	32	31	34.0	-200921.0	8194.0	77864.0
30	14	48	32	32	35.0	-200787.0	8419.0	81804.0
30	14	48	32	32	36.0	-200777.0	8743.0	75089.0
30	14	48	32	33	37.0	-200760.0	9141.0	58808.0
30	14	48	32	66	38.0	-200699.0	9437.0	25927.0
30	14	48	32	67	39.0	-200596.0	10254.0	-26362.0
30	14	48	32	68	40.0	-200632.0	10814.0	-55776.0
30	14	48	32	68	41.0	-200741.0	10308.0	-49395.0
30	14	48	32	69	42.0	-200759.0	9499.0	-4678.0
30	14	48	32	70	43.0	-200725.0	8948.0	44379.0
30	14	48	32	71	44.0	-200702.0	9043.0	64821.0
30	14	48	32	71	45.0	-200628.0	9099.0	66777.0
30	14	48	32	72	46.0	-200578.0	9320.0	59277.0
30	14	48	32	72	47.0	-200552.0	10483.0	44044.0
30	14	48	32	73	48.0	-200420.0	11109.0	11152.0
30	14	48	32	74	49.0	-200329.0	12523.0	-39284.0
30	14	48	32	74	50.0	-200276.0	14251.0	-65546.0
30	14	48	32	75	51.0	-200125.0	13566.0	-55770.0
30	14	48	32	76	52.0	-200059.0	11972.0	-8599.0
30	14	48	32	76	54.0	-200144.0	9846.0	61394.0
30	14	48	32	77	55.0	-200057.0	10999.0	64096.0
30	14	48	32	77	56.0	-199996.0	12408.0	57043.0
30	14	48	32	78	57.0	-200044.0	12326.0	42163.0
30	14	48	32	78	58.0	-200116.0	12823.0	7610.0
30	14	48	32	79	59.0	-200116.0	12958.0	-43747.0
30	14	48	32	111	60.0	-200167.0	12774.0	-67484.0
30	14	48	32	112	61.0	-200278.0	12463.0	-54999.0
30	14	48	32	113	62.0	-200357.0	10834.0	-6840.0
30	14	48	32	114	63.0	-200424.0	9723.0	40027.0
30	14	48	32	114	64.0	-200538.0	10269.0	58423.0
30	14	48	32	115	65.0	-200541.0	11108.0	60076.0
30	14	48	32	115	66.0	-200476.0	11951.0	51181.0
30	14	48	32	116	67.0	-200479.0	12176.0	34284.0
30	14	48	32	117	68.0	-200434.0	12668.0	-938.0
30	14	48	32	117	69.0	-200304.0	13676.0	-51102.0
30	14	48	32	118	70.0	-200292.0	13709.0	-74504.0
30	14	48	32	119	71.0	-200268.0	13024.0	-61483.0
30	14	48	32	119	72.0	-200129.0	11956.0	-11645.0
30	14	48	32	120	73.0	-200022.0	11038.0	34899.0
30	14	48	32	121	74.0	-199966.0	10955.0	52786.0
30	14	48	32	121	76.0	-199956.0	11244.0	45074.0
30	14	48	32	122	77.0	-199871.0	11660.0	27119.0
30	14	48	32	122	78.0	-199774.0	12344.0	-10124.0
30	14	48	32	123	79.0	-199736.0	13263.0	-60522.0
30	14	48	32	124	80.0	-199791.0	13423.0	-82592.0
30	14	48	32	124	81.0	-199683.0	12811.0	-67095.0
30	14	48	32	125	82.0	-199710.0	11275.0	-15674.0
30	14	48	32	156	83.0	-199731.0	9660.0	30960.0
30	14	48	32	157	84.0	-199886.0	9148.0	48653.0
30	14	48	32	157	85.0	-199819.0	9060.0	50466.0
30	14	48	32	158	86.0	-199759.0	9458.0	43625.0
30	14	48	32	159	87.0	-199761.0	10332.0	26486.0
30	14	48	32	159	88.0	-199732.0	11699.0	-11069.0
30	14	48	32	160	89.0	-199592.0	13306.0	-60596.0
30	14	48	32	200	90.0	-199465.0	13874.0	-81009.0
30	14	48	32	200	91.0	-199537.0	13494.0	-63821.0
30	14	48	32	201	92.0	-199544.0	12128.0	-13543.0
30	14	48	32	202	93.0	-199638.0	11313.0	29464.0
30	14	48	32	202	94.0	-199603.0	11576.0	45248.0
30	14	48	32	203	95.0	-199552.0	11491.0	48394.0
30	14	48	32	204	96.0	-199669.0	11596.0	41734.0
30	14	48	32	204	97.0	-199654.0	13519.0	25031.0
30	14	48	32	205	99.0	-199722.0	14867.0	-60456.0
30	14	48	32	206	100.0	-199697.0	14761.0	-79291.0
30	14	48	32	206	101.0	-199689.0	13478.0	-62134.0
30	14	48	32	207	102.0	-199756.0	11489.0	-11132.0
30	14	48	32	208	103.0	-199867.0	11269.0	33708.0
30	14	48	32	208	104.0	-199961.0	11764.0	50268.0
30	14	48	32	209	105.0	-199959.0	12466.0	51908.0
30	14	48	32	209	106.0	-199843.0	13104.0	44424.0
30	14	48	32	210	122.0	-200115.0	10869.0	-13324.0
30	14	48	32	211	123.0	-200110.0	10035.0	28216.0
30	14	48	32	211	124.0	-200040.0	9681.0	41719.0
30	14	48	32	212	125.0	-199888.0	9538.0	43317.0
30	14	48	32	213	126.0	-199758.0	9745.0	36067.0
30	14	48	32	213	127.0	-199722.0	10354.0	16418.0
30	14	48	32	247	128.0	-199822.0	11626.0	-26681.0
30	14	48	32	247	129.0	-199784.0	12811.0	-74729.0
30	14	48	32	248	130.0	-199803.0	12889.0	-90569.0
30	14	48	32	249	131.0	-199857.0	12288.0	-68861.0
30	14	48	32	249	132.0	-199845.0	10564.0	-13849.0
30	14	48	32	250	133.0	-199810.0	9136.0	28807.0
30	14	48	32	251	134.0	-199860.0	9017.0	42511.0
30	14	48	32	251	135.0	-199750.0	8595.0	42404.0
30	14	48	32	252	136.0	-199622.0	8371.0	32218.0
30	14	48	32	253	137.0	-199644.0	8854.0	12213.0
30	14	48	32	253	138.0	-199606.0	9462.0	-31509.0
30	14	48	32	254	139.0	-199667.0	10562.0	-78282.0
30	14	48	32	254	140.0	-199682.0	11374.0	-91473.0
30	14	48	32	255	141.0	-199577.0	10338.0	-67822.0
30	14	48	32	256	142.0	-199646.0	8837.0	-13134.0
30	14	48	32	256	144.0	-199785.0	8838.0	41849.0
30	14	48	32	257	145.0	-199787.0	7984.0	41484.0
30	14	48	32	257	146.0	-199872.0	7966.0	29647.0
30	14	48	32	258	147.0	-199951.0	8463.0	8912.0
30	14	48	32	259	148.0	-200079.0	10494.0	-34970.0
30	14	48	32	259	149.0	-200124.0	11098.0	-81578.0
30	14	48	32	291	150.0	-200221.0	10461.0	-95432.0
30	14	48	32	291	151.0	-200295.0	9039.0	-69695.0
30	14	48	32	292	152.0	-200294.0	7632.0	-15311.0
30	14	48	32	293	153.0	-200420.0	6310.0	23602.0
30	14	48	32	293	154.0	-200406.0	5473.0	36470.0
30	14	48	32	294	155.0	-200459.0	5583.0	36391.0
30	14	48	32	295	156.0	-200399.0	5935.0	25244.0
30	14	48	32	295	157.0	-200313.0	6908.0	3908.0
30	14	48	32	296	158.0	-200409.0	8380.0	-42365.0
30	14	48	32	297	159.0	-200472.0	9371.0	-87523.0
30	14	48	32	297	160.0	-200567.0	8836.0	-97073.0
30	14	48	32	298	161.0	-200664.0	7803.0	-68222.0
30	14	48	32	299	162.0	-200734.0	5982.0	-12762.0
30	14	48	32	300	163.0	-200806.0	4471.0	24509.0
30	14	48	32	300	164.0	-200754.0	3886.0	36949.0
30	14	48	32	301	166.0	-200806.0	3382.0	23276.0
30	14	48	32	302	167.0	-200805.0	4344.0	1221.0
30	14	48	32	302	168.0	-200760.0	5567.0	-47121.0
30	14	48	32	303	169.0	-200813.0	5982.0	-94809.0
30	14	48	32	303	170.0	-200777.0	3881.0	-105123.0
30	14	48	32	304	171.0	-200809.0	2127.0	-74936.0
30	14	48	32	305	172.0	-200824.0	2159.0	-19612.0
30	14	48	32	335	173.0	-200774.0	2288.0	17026.0
30	14	48	32	336	174.0	-200783.0	2856.0	27964.0
30	14	48	32	337	175.0	-200892.0	3703.0	25748.0
30	14	48	32	337	176.0	-200916.0	4522.0	14679.0
30	14	48	32	338	177.0	-200817.0	5405.0	-6170.0
30	14	48	32	339	178.0	-200697.0	6901.0	-52597.0
30	14	48	32	339	179.0	-200749.0	8625.0	-95820.0
30	14	48	32	340	180.0	-200807.0	8113.0	-103521.0
30	14	48	32	340	181.0	-200788.0	6509.0	-71946.0
30	14	48	32	341	182.0	-200757.0	4259.0	-16100.0
30	14	48	32	342	183.0	-200721.0	2533.0	19609.0
30	14	48	32	342	184.0	-200685.0	1140.0	29901.0
30	14	48	32	343	185.0	-200651.0	-4.0	28439.0
30	14	48	32	344	186.0	-200599.0	-557.0	17116.0
30	14	48	32	344	187.0	-200521.0	-61.0	-6366.0
30	14	48	32	345	189.0	-200266.0	1388.0	-97757.0
30	14	48	32	346	190.0	-200216.0	-735.0	-105849.0
30	14	48	32	346	191.0	-200115.0	-2524.0	-72697.0
30	14	48	32	347	192.0	-200132.0	-4191.0	-17431.0
30	14	48	32	347	193.0	-200048.0	-5036.0	15947.0
30	14	48	32	348	194.0	-199946.0	-5698.0	25473.0
30	14	48	32	380	195.0	-199941.0	-5052.0	22667.0
30	14	48	32	381	196.0	-199921.0	-3123.0	9733.0
30	14	48	32	382	197.0	-199870.0	-4096.0	-15429.0
30	14	48	32	383	198.0	-199853.0	-5655.0	-65364.0
30	14	48	32	384	199.0	-199812.0	-5419.0	-107451.0
30	14	48	32	384	200.0	-199822.0	-5870.0	-112704.0
30	14	48	32	385	201.0	-199869.0	-6818.0	-76172.0
30	14	48	32	386	202.0	-199846.0	-8208.0	-18874.0
30	14	48	32	386	203.0	-199906.0	-10147.0	16538.0
30	14	48	32	387	204.0	-200098.0	-11455.0	25566.0
30	14	48	32	388	205.0	-200097.0	-12109.0	21186.0
30	14	48	32	388	206.0	-200134.0	-12397.0	7505.0
30	14	48	32	389	207.0	-200152.0	-12114.0	-16768.0
30	14	48	32	390	208.0	-200229.0	-11401.0	-65182.0
30	14	48	32	390	209.0	-200187.0	-10821.0	-104418.0
30	14	48	32	391	211.0	-200132.0	-12871.0	-71986.0
30	14	48	32	391	212.0	-199971.0	-15230.0	-14936.0
30	14	48	32	392	213.0	-199958.0	-15704.0	16800.0
30	14	48	32	393	214.0	-200005.0	-15934.0	23853.0
30	14	48	32	393	215.0	-200143.0	-16506.0	20967.0
30	14	48	32	394	216.0	-200225.0	-17034.0	8045.0
30	14	48	32	394	217.0	-200145.0	-17687.0	-17347.0
30	14	48	32	425	218.0	-199949.0	-17162.0	-68188.0
30	14	48	32	426	219.0	-199851.0	-16458.0	-108229.0
30	14	48	32	427	220.0	-199875.0	-16592.0	-111207.0
30	14	48	32	427	221.0	-199852.0	-17921.0	-72830.0
30	14	48	32	428	222.0	-199854.0	-20980.0	-15685.0
30	14	48	32	429	223.0	-199914.0	-23286.0	15279.0
30	14	48	32	429	224.0	-199838.0	-23790.0	21574.0
30	14	48	32	431	225.0	-199816.0	-23896.0	16833.0
30	14	48	32	432	226.0	-199929.0	-23603.0	1405.0
30	14	48	32	432	227.0	-199917.0	-23157.0	-26618.0
30	14	48	32	433	228.0	-200057.0	-22178.0	-80063.0
30	14	48	32	434	229.0	-200069.0	-21216.0	-119767.0
30	14	48	32	435	230.0	-199955.0	-20933.0	-120357.0
30	14	48	32	435	231.0	-199895.0	-19987.0	-78744.0
30	14	48	32	436	232.0	-199969.0	-21257.0	-21257.0
30	14	48	32	437	234.0	-200103.0	-22503.0	19001.0
30	14	48	32	437	235.0	-200037.0	-22377.0	16106.0
30	14	48	32	438	236.0	-200038.0	-22044.0	2192.0
30	14	48	32	438	237.0	-199924.0	-21517.0	-26567.0
30	14	48	32	439	238.0	-199929.0	-20703.0	-80434.0
30	14	48	32	440	239.0	-199945.0	-20256.0	-117832.0
30	14	48	32	471	240.0	-199889.0	-20141.0	-116411.0
30	14	48	32	472	241.0	-199707.0	-20462.0	-72820.0
30	14	48	32	473	242.0	-199739.0	-21903.0	-16193.0
30	14	48	32	473	243.0	-199689.0	-22911.0	12832.0
30	14	48	32	474	244.0	-199464.0	-23394.0	19304.0
30	14	48	32	475	245.0	-199301.0	-23544.0	15375.0
30	14	48	32	475	246.0	-199219.0	-23082.0	49.0
30	14	48	32	476	247.0	-199289.0	-22685.0	-28318.0
30	14	48	32	477	248.0	-199326.0	-21459.0	-81821.0
30	14	48	32	477	249.0	-199370.0	-20310.0	-118565.0
30	14	48	32	478	250.0	-199390.0	-20122.0	-115546.0
30	14	48	32	479	251.0	-199423.0	-20947.0	-70274.0
30	14	48	32	479	252.0	-199508.0	-22641.0	-13545.0
30	14	48	32	480	253.0	-199473.0	-23840.0	15863.0
30	14	48	32	481	254.0	-199514.0	-24284.0	23238.0
30	14	48	32	481	0.0	-199592.0	-24406.0	847.0
30	14	48	32	482	1.0	-199619.0	-23403.0	-29635.0
30	14	48	32	482	2.0	-199704.0	-21971.0	-83524.0
30	14	48	32	483	3.0	-199681.0	-21541.0	-118940.0
30	14	48	32	484	4.0	-199609.0	-23622.0	-114789.0
30	14	48	32	484	5.0	-199651.0	-25294.0	-68762.0
30	14	48	32	516	6.0	-199735.0	-26857.0	-13101.0
30	14	48	32	517	7.0	-200010.0	-26892.0	13437.0
30	14	48	32	518	8.0	-200158.0	-25612.0	19128.0
30	14	48	32	518	9.0	-200236.0	-24137.0	14678.0
30	14	48	32	519	10.0	-200149.0	-23551.0	-287.0
30	14	48	32	520	11.0	-200089.0	-23023.0	-31194.0
30	14	48	32	520	12.0	-200024.0	-22206.0	-85623.0
30	14	48	32	521	13.0	-199935.0	-21706.0	-118709.0
30	14	48	32	522	14.0	-199930.0	-22082.0	-114137.0
30	14	48	32	522	15.0	-199809.0	-23127.0	-67891.0
30	14	48	32	523	16.0	-199704.0	-24429.0	-11917.0
30	14	48	32	524	17.0	-199762.0	-25186.0	13784.0
30	14	48	32	524	18.0	-199731.0	-25740.0	18474.0
30	14	48	32	525	19.0	-199682.0	-26115.0	11983.0
30	14	48	32	525	20.0	-199618.0	-26126.0	-6146.0
30	14	48	32	526	23.0	-200091.0	-23783.0	-133634.0
30	14	48	32	527	24.0	-200094.0	-24124.0	-127086.0
30	14	48	32	527	25.0	-200077.0	-25139.0	-78017.0
30	14	48	32	528	26.0	-200042.0	-26305.0	-22214.0
30	14	48	32	528	27.0	-200002.0	-26942.0	3489.0
30	14	48	32	529	28.0	-199941.0	-26666.0	7763.0
30	14	48	32	560	29.0	-200039.0	-26581.0	3131.0
30	14	48	32	561	30.0	-200080.0	-25601.0	-13323.0
30	14	48	32	562	31.0	-200137.0	-24911.0	-46913.0
30	14	48	32	563	32.0	-200182.0	-23482.0	-103969.0
30	14	48	32	563	33.0	-200158.0	-22332.0	-136172.0
30	14	48	32	564	34.0	-200237.0	-21724.0	-127693.0
30	14	48	32	565	35.0	-200182.0	-21927.0	-76181.0
30	14	48	32	565	36.0	-200164.0	-22991.0	-18781.0
30	14	48	32	566	37.0	-200160.0	-24147.0	7139.0
30	14	48	32	567	38.0	-200172.0	-24244.0	10476.0
30	14	48	32	567	39.0	-200147.0	-24563.0	3363.0
30	14	48	32	568	40.0	-200129.0	-24524.0	-13988.0
30	14	48	32	569	41.0	-200112.0	-24496.0	-50337.0
30	14	48	32	569	42.0	-200014.0	-23554.0	-106606.0
30	14	48	32	570	43.0	-200009.0	-22917.0	-136728.0
30	14	48	32	571	45.0	-199935.0	-25913.0	-75901.0
30	14	48	32	571	46.0	-199917.0	-28663.0	-21468.0
30	14	48	32	572	47.0	-200008.0	-30555.0	2273.0
30	14	48	32	572	48.0	-200093.0	-30977.0	6762.0
30	14	48	32	573	49.0	-200074.0	-31677.0	479.0
30	14	48	32	573	50.0	-200006.0	-31939.0	-16820.0
30	14	48	32	606	51.0	-199975.0	-29782.0	-54059.0
30	14	48	32	606	52.0	-200020.0	-26962.0	-110813.0
30	14	48	32	607	53.0	-200129.0	-23791.0	-139939.0
30	14	48	32	608	54.0	-200227.0	-23411.0	-128713.0
30	14	48	32	609	55.0	-200275.0	-24923.0	-75501.0
30	14	48	32	609	56.0	-200265.0	-26739.0	-21334.0
30	14	48	32	610	57.0	-200210.0	-27445.0	2432.0
30	14	48	32	611	58.0	-200055.0	-27592.0	5571.0
30	14	48	32	611	59.0	-200049.0	-27314.0	-947.0
30	14	48	32	612	60.0	-200061.0	-27854.0	-18499.0
30	14	48	32	613	61.0	-199894.0	-28324.0	-56686.0
30	14	48	32	614	62.0	-199830.0	-27547.0	-114091.0
30	14	48	32	615	63.0	-199898.0	-27334.0	-142402.0
30	14	48	32	616	64.0	-200094.0	-28129.0	-128449.0
30	14	48	32	616	65.0	-200074.0	-30120.0	-73104.0
30	14	48	32	617	67.0	-200057.0	-33337.0	2969.0
30	14	48	32	618	68.0	-200092.0	-33233.0	6505.0
30	14	48	32	618	69.0	-200193.0	-32579.0	-1962.0
30	14	48	32	619	70.0	-200225.0	-30892.0	-22325.0
30	14	48	32	619	71.0	-200243.0	-29347.0	-63321.0
30	14	48	32	620	72.0	-200250.0	-27461.0	-120956.0
30	14	48	32	621	73.0	-200262.0	-26535.0	-146659.0
30	14	48	32	651	74.0	-200195.0	-26065.0	-131607.0
30	14	48	32	652	75.0	-200124.0	-25890.0	-75138.0
30	14	48	32	652	76.0	-200122.0	-28277.0	-21845.0
30	14	48	32	653	77.0	-200177.0	-30077.0	-236.0
30	14	48	32	654	78.0	-200264.0	-30805.0	2053.0
30	14	48	32	654	79.0	-200266.0	-30866.0	-5680.0
30	14	48	32	655	80.0	-200260.0	-30379.0	-22862.0
30	14	48	32	656	81.0	-200254.0	-30089.0	-63103.0
30	14	48	32	656	82.0	-200262.0	-29084.0	-119549.0
30	14	48	32	657	83.0	-200344.0	-28103.0	-143269.0
30	14	48	32	658	84.0	-200284.0	-27864.0	-126146.0
30	14	48	32	658	85.0	-200204.0	-28913.0	-67857.0
30	14	48	32	659	86.0	-200247.0	-30639.0	-15334.0
30	14	48	32	660	87.0	-200254.0	-31043.0	4673.0
30	14	48	32	660	88.0	-200137.0	-30519.0	6408.0
30	14	48	32	661	90.0	-199956.0	-29621.0	-23209.0
30	14	48	32	661	91.0	-200019.0	-28829.0	-66243.0
30	14	48	32	662	92.0	-200042.0	-27866.0	-123656.0
30	14	48	32	663	93.0	-200120.0	-27222.0	-147341.0
30	14	48	32	663	94.0	-200191.0	-25248.0	-127806.0
30	14	48	32	664	95.0	-200284.0	-25659.0	-68667.0
30	14	48	32	696	96.0	-200349.0	-27866.0	-17867.0
30	14	48	32	721	97.0	-200321.0	-29428.0	1786.0
30	14	48	32	721	98.0	-200247.0	-30214.0	4031.0
30	14	48	32	722	99.0	-200162.0	-30206.0	-5969.0
30	14	48	32	722	100.0	-200114.0	-29807.0	-27956.0
30	14	48	32	723	101.0	-199994.0	-29232.0	-72502.0
30	14	48	32	724	102.0	-199882.0	-27654.0	-129272.0
30	14	48	32	724	103.0	-199961.0	-26363.0	-150604.0
30	14	48	32	725	104.0	-200090.0	-26182.0	-129131.0
30	14	48	32	725	105.0	-200143.0	-27527.0	-68212.0
30	14	48	32	726	106.0	-200151.0	-28930.0	-18679.0
30	14	48	32	726	107.0	-200204.0	-27837.0	-2109.0
30	14	48	32	727	108.0	-200133.0	-27027.0	-3191.0
30	14	48	32	728	109.0	-200062.0	-28046.0	-13747.0
30	14	48	32	728	110.0	-199886.0	-28496.0	-34392.0
30	14	48	32	729	112.0	-199837.0	-25326.0	-136425.0
30	14	48	32	729	113.0	-199852.0	-25349.0	-157682.0
30	14	48	32	730	114.0	-199875.0	-26321.0	-134281.0
30	14	48	32	731	115.0	-200017.0	-28470.0	-71234.0
30	14	48	32	731	116.0	-200054.0	-30714.0	-21416.0
30	14	48	32	732	117.0	-200064.0	-31931.0	-4393.0
30	14	48	32	732	118.0	-200021.0	-32521.0	-4051.0
30	14	48	32	745	119.0	-200082.0	-32597.0	-14453.0
30	14	48	32	746	120.0	-200047.0	-32484.0	-36456.0
30	14	48	32	747	121.0	-199884.0	-31812.0	-82576.0
30	14	48	32	748	122.0	-199957.0	-30126.0	-138446.0
30	14	48	32	748	123.0	-199963.0	-28739.0	-158667.0
30	14	48	32	749	124.0	-200027.0	-28352.0	-132739.0
30	14	48	32	749	125.0	-200042.0	-30377.0	-68770.0
30	14	48	32	750	126.0	-199991.0	-31772.0	-19773.0
30	14	48	32	751	127.0	-199944.0	-29716.0	-3161.0
30	14	48	32	751	128.0	-199829.0	-28902.0	-3142.0
30	14	48	32	752	129.0	-199743.0	-29678.0	-15772.0
30	14	48	32	753	130.0	-199737.0	-30265.0	-39584.0
30	14	48	32	753	131.0	-199724.0	-30497.0	-88312.0
30	14	48	32	754	132.0	-199787.0	-29629.0	-143522.0
30	14	48	32	754	133.0	-199804.0	-28987.0	-160369.0
30	14	48	32	755	135.0	-199878.0	-29980.0	-68257.0
30	14	48	32	755	136.0	-199919.0	-31330.0	-21385.0
30	14	48	32	756	137.0	-199899.0	-32297.0	-4257.0
30	14	48	32	757	138.0	-199948.0	-32932.0	-3581.0
30	14	48	32	757	139.0	-199986.0	-32795.0	-14399.0
30	14	48	32	758	140.0	-199969.0	-32673.0	-36942.0
30	14	48	32	785	141.0	-200169.0	-32747.0	-86594.0
30	14	48	32	786	142.0	-200459.0	-32138.0	-141879.0
30	14	48	32	787	143.0	-200544.0	-31386.0	-158434.0
30	14	48	32	788	144.0	-200552.0	-31546.0	-128437.0
30	14	48	32	788	145.0	-200428.0	-32322.0	-64768.0
30	14	48	32	789	146.0	-200299.0	-33789.0	-18968.0
30	14	48	32	790	147.0	-200336.0	-34694.0	-3199.0
30	14	48	32	791	148.0	-200172.0	-35075.0	-3444.0
30	14	48	32	791	149.0	-200052.0	-34948.0	-15384.0
30	14	48	32	792	150.0	-200020.0	-34596.0	-37612.0
30	14	48	32	792	151.0	-200076.0	-33738.0	-87402.0
30	14	48	32	793	152.0	-200204.0	-32373.0	-139729.0
30	14	48	32	794	153.0	-200216.0	-31866.0	-153286.0
30	14	48	32	794	154.0	-200186.0	-32091.0	-121605.0
30	14	48	32	795	155.0	-200282.0	-33428.0	-58467.0
30	14	48	32	796	157.0	-200351.0	-36687.0	-3493.0
30	14	48	32	796	158.0	-200420.0	-37182.0	-6824.0
30	14	48	32	797	159.0	-200451.0	-36952.0	-22499.0
30	14	48	32	798	160.0	-200450.0	-36319.0	-47642.0
30	14	48	32	798	161.0	-200425.0	-35519.0	-99157.0
30	14	48	32	799	162.0	-200417.0	-34555.0	-151619.0
30	14	48	32	799	163.0	-200461.0	-33817.0	-164194.0
30	14	48	32	829	164.0	-200387.0	-33504.0	-130700.0
30	14	48	32	830	165.0	-200499.0	-34527.0	-65929.0
30	14	48	32	831	166.0	-200447.0	-35472.0	-22657.0
30	14	48	32	832	167.0	-200452.0	-35482.0	-11529.0
30	14	48	32	832	168.0	-200352.0	-35336.0	-15764.0
30	14	48	32	833	169.0	-200134.0	-35489.0	-30636.0
30	14	48	32	834	170.0	-200106.0	-35016.0	-55865.0
30	14	48	32	834	171.0	-200174.0	-33849.0	-110346.0
30	14	48	32	835	172.0	-200245.0	-32522.0	-161496.0
30	14	48	32	836	173.0	-200469.0	-31127.0	-170491.0
30	14	48	32	837	174.0	-200557.0	-31324.0	-134658.0
30	14	48	32	838	175.0	-200510.0	-32834.0	-67897.0
30	14	48	32	839	176.0	-200499.0	-34217.0	-24526.0
30	14	48	32	840	177.0	-200376.0	-35199.0	-12518.0
30	14	48	32	840	178.0	-200326.0	-35207.0	-14062.0
30	14	48	32	841	180.0	-200422.0	-34026.0	-52647.0
30	14	48	32	852	181.0	-200443.0	-32400.0	-107338.0
30	14	48	32	852	182.0	-200256.0	-30966.0	-159898.0
30	14	48	32	853	183.0	-200216.0	-31458.0	-169927.0
30	14	48	32	854	184.0	-200299.0	-32259.0	-132266.0
30	14	48	32	854	185.0	-200304.0	-33644.0	-66364.0
30	14	48	32	875	186.0	-200303.0	-34999.0	-25899.0
30	14	48	32	875	187.0	-200444.0	-35825.0	-16431.0
30	14	48	32	876	188.0	-200449.0	-36422.0	-19341.0
30	14	48	32	877	189.0	-200359.0	-36359.0	-33156.0
30	14	48	32	878	190.0	-200180.0	-35910.0	-60186.0
30	14	48	32	878	191.0	-199996.0	-35275.0	-116485.0
30	14	48	32	879	192.0	-199941.0	-34322.0	-166567.0
30	14	48	32	880	193.0	-199952.0	-33923.0	-173511.0
30	14	48	32	881	194.0	-200037.0	-34384.0	-132929.0
30	14	48	32	881	195.0	-200047.0	-35553.0	-66965.0
30	14	48	32	882	196.0	-199989.0	-36249.0	-26504.0
30	14	48	32	883	197.0	-200070.0	-36469.0	-16604.0
30	14	48	32	883	198.0	-200147.0	-36420.0	-19662.0
30	14	48	32	884	199.0	-200114.0	-36312.0	-34133.0
30	14	48	32	885	200.0	-200059.0	-35786.0	-62793.0
30	14	48	32	885	202.0	-200284.0	-33182.0	-170126.0
30	14	48	32	886	203.0	-200385.0	-33194.0	-177402.0
30	14	48	32	887	204.0	-200439.0	-35992.0	-136417.0
30	14	48	32	888	205.0	-200419.0	-36992.0	-70495.0
30	14	48	32	888	206.0	-200378.0	-37682.0	-31841.0
30	14	48	32	889	207.0	-200340.0	-37512.0	-20699.0
30	14	48	32	890	208.0	-200259.0	-37124.0	-24906.0
30	14	48	32	920	209.0	-200182.0	-36581.0	-39009.0
30	14	48	32	921	210.0	-200213.0	-35682.0	-67413.0
30	14	48	32	922	211.0	-200314.0	-34469.0	-126339.0
30	14	48	32	923	212.0	-200403.0	-33204.0	-172765.0
30	14	48	32	924	213.0	-200359.0	-32697.0	-177002.0
30	14	48	32	924	214.0	-200277.0	-33517.0	-133481.0
30	14	48	32	925	215.0	-200102.0	-34906.0	-68352.0
30	14	48	32	926	216.0	-199934.0	-36132.0	-31256.0
30	14	48	32	927	217.0	-200071.0	-36292.0	-21563.0
30	14	48	32	927	218.0	-200128.0	-36151.0	-25096.0
30	14	48	32	928	219.0	-200027.0	-36053.0	-39898.0
30	14	48	32	929	220.0	-200047.0	-35641.0	-69619.0
30	14	48	32	929	221.0	-200074.0	-34139.0	-127627.0
30	14	48	32	930	222.0	-200058.0	-32077.0	-172902.0
30	14	48	32	931	223.0	-200041.0	-32170.0	-176162.0
30	14	48	32	931	225.0	-200316.0	-34857.0	-65808.0
30	14	48	32	932	226.0	-200276.0	-35644.0	-29884.0
30	14	48	32	933	227.0	-200181.0	-36479.0	-22299.0
30	14	48	32	933	228.0	-200136.0	-37082.0	-26386.0
30	14	48	32	934	229.0	-200127.0	-37248.0	-41562.0
30	14	48	32	934	230.0	-200209.0	-36505.0	-71747.0
30	14	48	32	965	231.0	-200282.0	-35179.0	-130071.0
30	14	48	32	966	232.0	-200254.0	-34271.0	-173047.0
30	14	48	32	967	233.0	-200337.0	-33840.0	-173843.0
30	14	48	32	968	234.0	-200459.0	-33947.0	-127632.0
30	14	48	32	968	235.0	-200547.0	-35442.0	-64170.0
30	14	48	32	969	236.0	-200544.0	-36836.0	-28614.0
30	14	48	32	970	237.0	-200636.0	-37459.0	-19490.0
30	14	48	32	970	238.0	-200627.0	-37516.0	-24511.0
30	14	48	32	971	239.0	-200517.0	-37727.0	-39880.0
30	14	48	32	972	240.0	-200641.0	-37631.0	-71711.0
30	14	48	32	972	241.0	-200722.0	-36663.0	-132045.0
30	14	48	32	973	242.0	-200610.0	-34862.0	-174654.0
30	14	48	32	974	243.0	-200540.0	-33974.0	-174312.0
30	14	48	32	974	244.0	-200492.0	-34997.0	-126058.0
30	14	48	32	975	245.0	-200586.0	-37427.0	-61169.0
30	14	48	32	976	247.0	-200606.0	-41486.0	-17852.0
30	14	48	32	976	248.0	-200660.0	-41391.0	-21110.0
30	14	48	32	977	249.0	-200657.0	-41294.0	-37661.0
30	14	48	32	978	250.0	-200634.0	-40755.0	-71661.0
30	14	48	32	978	251.0	-200499.0	-38237.0	-133421.0
30	14	48	32	979	252.0	-200459.0	-36565.0	-174964.0
30	14	48	33	11	253.0	-200560.0	-36579.0	-172214.0
30	14	48	33	11	254.0	-200549.0	-37269.0	-121405.0
30	14	48	33	12	255.0	-200502.0	-37771.0	-57375.0
30	14	48	33	13	0.0	-200456.0	-38461.0	-25092.0
30	14	48	33	14	1.0	-200404.0	-38499.0	-18396.0
30	14	48	33	14	2.0	-200521.0	-37004.0	-24622.0
30	14	48	33	15	3.0	-200617.0	-36249.0	-42528.0
30	14	48	33	16	4.0	-200516.0	-36159.0	-76702.0
30	14	48	33	16	5.0	-200477.0	-35938.0	-136539.0
30	14	48	33	17	6.0	-200443.0	-35339.0	-176587.0
30	14	48	33	18	7.0	-200406.0	-34140.0	-172966.0
30	14	48	33	18	8.0	-200263.0	-32886.0	-121077.0
30	14	48	33	19	9.0	-200125.0	-33856.0	-58805.0
30	14	48	33	20	10.0	-200014.0	-34884.0	-29117.0
30	14	48	33	20	11.0	-200006.0	-36293.0	-22961.0
30	14	48	33	21	13.0	-199912.0	-37955.0	-46819.0
30	14	48	33	22	14.0	-199966.0	-39324.0	-80926.0
30	14	48	33	22	15.0	-200069.0	-38330.0	-141848.0
30	14	48	33	23	16.0	-200063.0	-37625.0	-179394.0
30	14	48	33	23	17.0	-200040.0	-37623.0	-170848.0
30	14	48	33	24	18.0	-199993.0	-38282.0	-116712.0
30	14	48	33	24	19.0	-200069.0	-39789.0	-54675.0
30	14	48	33	56	20.0	-200106.0	-40806.0	-26274.0
30	14	48	33	57	21.0	-200070.0	-40879.0	-22052.0
30	14	48	33	58	22.0	-199992.0	-41057.0	-29716.0
30	14	48	33	58	23.0	-199894.0	-40624.0	-48197.0
30	14	48	33	59	24.0	-199823.0	-38956.0	-84950.0
30	14	48	33	60	25.0	-199909.0	-37842.0	-146981.0
30	14	48	33	60	26.0	-199966.0	-37421.0	-184463.0
30	14	48	33	61	27.0	-199914.0	-37902.0	-175854.0
30	14	48	33	62	28.0	-199910.0	-39371.0	-120539.0
30	14	48	33	62	29.0	-200012.0	-41507.0	-59816.0
30	14	48	33	63	30.0	-200061.0	-42950.0	-32398.0
30	14	48	33	64	31.0	-200156.0	-43318.0	-28931.0
30	14	48	33	64	32.0	-200290.0	-42358.0	-37444.0
30	14	48	33	65	33.0	-200331.0	-42092.0	-56438.0
30	14	48	33	66	34.0	-200321.0	-42353.0	-93643.0
30	14	48	33	66	36.0	-200206.0	-42384.0	-188753.0
30	14	48	33	67	37.0	-200190.0	-41875.0	-177231.0
30	14	48	33	68	38.0	-200281.0	-42537.0	-120722.0
30	14	48	33	68	39.0	-200396.0	-44042.0	-60256.0
30	14	48	33	69	40.0	-200359.0	-44586.0	-32969.0
30	14	48	33	69	41.0	-200342.0	-44904.0	-27686.0
30	14	48	33	101	42.0	-200306.0	-44181.0	-36081.0
30	14	48	33	101	43.0	-200278.0	-43950.0	-55184.0
30	14	48	33	102	44.0	-200204.0	-44154.0	-93376.0
30	14	48	33	103	45.0	-200166.0	-43225.0	-155979.0
30	14	48	33	104	46.0	-200219.0	-42262.0	-189857.0
30	14	48	33	104	47.0	-200204.0	-42065.0	-178018.0
30	14	48	33	105	48.0	-200175.0	-43567.0	-119252.0
30	14	48	33	106	49.0	-200117.0	-45106.0	-59709.0
30	14	48	33	107	50.0	-200080.0	-45049.0	-34296.0
30	14	48	33	107	51.0	-200067.0	-45634.0	-30396.0
30	14	48	33	108	52.0	-199992.0	-45827.0	-38447.0
30	14	48	33	109	53.0	-200067.0	-44202.0	-58164.0
30	14	48	33	109	54.0	-200112.0	-41354.0	-98830.0
30	14	48	33	110	55.0	-200015.0	-40942.0	-160864.0
30	14	48	33	111	56.0	-199859.0	-40946.0	-193235.0
30	14	48	33	111	58.0	-199884.0	-43225.0	-122090.0
30	14	48	33	112	59.0	-200041.0	-44595.0	-63807.0
30	14	48	33	113	60.0	-199996.0	-45363.0	-39449.0
30	14	48	33	113	61.0	-200106.0	-45657.0	-36582.0
30	14	48	33	114	62.0	-200165.0	-45318.0	-44121.0
30	14	48	33	114	63.0	-200107.0	-44603.0	-63505.0
30	14	48	33	115	64.0	-200136.0	-44293.0	-105569.0
30	14	48	33	146	65.0	-200154.0	-43396.0	-167387.0
30	14	48	33	146	66.0	-200194.0	-42677.0	-198587.0
30	14	48	33	147	67.0	-200229.0	-42733.0	-185069.0
30	14	48	33	148	68.0	-200211.0	-43581.0	-125911.0
30	14	48	33	149	69.0	-200180.0	-44494.0	-67921.0
30	14	48	33	149	70.0	-200082.0	-45175.0	-44522.0
30	14	48	33	150	71.0	-200016.0	-45194.0	-42116.0
30	14	48	33	151	72.0	-200042.0	-45279.0	-52031.0
30	14	48	33	151	73.0	-200220.0	-44789.0	-74061.0
30	14	48	33	152	74.0	-200207.0	-43389.0	-116139.0
30	14	48	33	153	75.0	-200171.0	-40753.0	-177944.0
30	14	48	33	153	76.0	-200286.0	-38809.0	-206811.0
30	14	48	33	154	77.0	-200246.0	-38959.0	-188892.0
30	14	48	33	155	78.0	-200103.0	-40482.0	-127229.0
30	14	48	33	156	79.0	-200124.0	-41912.0	-71993.0
30	14	48	33	156	81.0	-200234.0	-43394.0	-49747.0
30	14	48	33	157	82.0	-200203.0	-43296.0	-59346.0
30	14	48	33	157	83.0	-200177.0	-43189.0	-80339.0
30	14	48	33	158	84.0	-200206.0	-40369.0	-124907.0
30	14	48	33	159	85.0	-200228.0	-37944.0	-187449.0
30	14	48	33	159	86.0	-200375.0	-37431.0	-213105.0
30	14	48	33	190	87.0	-200337.0	-37829.0	-192020.0
30	14	48	33	191	88.0	-200274.0	-39131.0	-128614.0
30	14	48	33	192	89.0	-200421.0	-41030.0	-71183.0
30	14	48	33	193	90.0	-200451.0	-42312.0	-48671.0
30	14	48	33	193	91.0	-200448.0	-42764.0	-44617.0
30	14	48	33	194	92.0	-200232.0	-42719.0	-51461.0
30	14	48	33	195	93.0	-200209.0	-42647.0	-71181.0
30	14	48	33	195	94.0	-200240.0	-42007.0	-114746.0
30	14	48	33	196	95.0	-200242.0	-40897.0	-173863.0
30	14	48	33	197	96.0	-200254.0	-40532.0	-200025.0
30	14	48	33	197	97.0	-200242.0	-41108.0	-178691.0
30	14	48	33	198	98.0	-200272.0	-43163.0	-115219.0
30	14	48	33	199	99.0	-200174.0	-43282.0	-61361.0
30	14	48	33	199	100.0	-200183.0	-43059.0	-40805.0
30	14	48	33	200	101.0	-200250.0	-43986.0	-38180.0
30	14	48	33	201	103.0	-200489.0	-44398.0	-68256.0
30	14	48	33	201	104.0	-200411.0	-43867.0	-114057.0
30	14	48	33	202	105.0	-200395.0	-43228.0	-174866.0
30	14	48	33	203	106.0	-200479.0	-44428.0	-198095.0
30	14	48	33	203	107.0	-200528.0	-44205.0	-175047.0
30	14	48	33	204	108.0	-200437.0	-44927.0	-111281.0
30	14	48	33	204	109.0	-200423.0	-45983.0	-59471.0
30	14	48	33	236	110.0	-200460.0	-46737.0	-41382.0
30	14	48	33	236	111.0	-200399.0	-46794.0	-40300.0
30	14	48	33	237	112.0	-200299.0	-46693.0	-50699.0
30	14	48	33	238	113.0	-200231.0	-46551.0	-71534.0
30	14	48	33	239	114.0	-200291.0	-45705.0	-116821.0
30	14	48	33	239	115.0	-200517.0	-43992.0	-175339.0
30	14	48	33	240	116.0	-200615.0	-41787.0	-196585.0
30	14	48	33	241	117.0	-200601.0	-40808.0	-171261.0
30	14	48	33	241	118.0	-200491.0	-42097.0	-106733.0
30	14	48	33	242	119.0	-200461.0	-43119.0	-54961.0
30	14	48	33	243	120.0	-200352.0	-44123.0	-36535.0
30	14	48	33	243	121.0	-200331.0	-46199.0	-37192.0
30	14	48	33	244	122.0	-200316.0	-45215.0	-48942.0
30	14	48	33	245	123.0	-200372.0	-43895.0	-71751.0
30	14	48	33	245	124.0	-200382.0	-42169.0	-119779.0
30	14	48	33	246	126.0	-200118.0	-39140.0	-198272.0
30	14	48	33	246	127.0	-200249.0	-39202.0	-171159.0
30	14	48	33	247	128.0	-200314.0	-40282.0	-105763.0
30	14	48	33	248	129.0	-200256.0	-41691.0	-54786.0
30	14	48	33	248	130.0	-200172.0	-42554.0	-36385.0
30	14	48	33	249	131.0	-200222.0	-43000.0	-36996.0
30	14	48	33	280	132.0	-200234.0	-43004.0	-47379.0
30	14	48	33	281	133.0	-200144.0	-42927.0	-69695.0
30	14	48	33	282	134.0	-200126.0	-42466.0	-118707.0
30	14	48	33	282	135.0	-200115.0	-41303.0	-175560.0
30	14	48	33	283	136.0	-200051.0	-41161.0	-192996.0
30	14	48	33	284	137.0	-200146.0	-42014.0	-164259.0
30	14	48	33	285	138.0	-200187.0	-42362.0	-98623.0
30	14	48	33	285	139.0	-200146.0	-41368.0	-49516.0
30	14	48	33	286	140.0	-200112.0	-42529.0	-33262.0
30	14	48	33	287	141.0	-200156.0	-43510.0	-33958.0
30	14	48	33	287	142.0	-200139.0	-44121.0	-45683.0
30	14	48	33	288	143.0	-200158.0	-43842.0	-69694.0
30	14	48	33	289	144.0	-200161.0	-43194.0	-121391.0
30	14	48	33	289	145.0	-200131.0	-41827.0	-178211.0
30	14	48	33	290	146.0	-200398.0	-41265.0	-194690.0
30	14	48	33	291	148.0	-200567.0	-42826.0	-100676.0
30	14	48	33	291	149.0	-200496.0	-43969.0	-55117.0
30	14	48	33	292	150.0	-200521.0	-44966.0	-40421.0
30	14	48	33	292	151.0	-200583.0	-45364.0	-42046.0
30	14	48	33	293	152.0	-200387.0	-45477.0	-54717.0
30	14	48	33	294	153.0	-200367.0	-45336.0	-79302.0
30	14	48	33	294	154.0	-200450.0	-44130.0	-132687.0
30	14	48	33	326	155.0	-200534.0	-41988.0	-188052.0
30	14	48	33	327	156.0	-200595.0	-40539.0	-202774.0
30	14	48	33	327	157.0	-200561.0	-40954.0	-170301.0
30	14	48	33	328	158.0	-200384.0	-41967.0	-103761.0
30	14	48	33	329	159.0	-200304.0	-42781.0	-56801.0
30	14	48	33	329	160.0	-200328.0	-42983.0	-41729.0
30	14	48	33	330	161.0	-200303.0	-42976.0	-42137.0
30	14	48	33	331	162.0	-200209.0	-42975.0	-54745.0
30	14	48	33	332	163.0	-200260.0	-44007.0	-79571.0
30	14	48	33	332	164.0	-200263.0	-45571.0	-131580.0
30	14	48	33	333	165.0	-200230.0	-43840.0	-185144.0
30	14	48	33	333	166.0	-200233.0	-42659.0	-197579.0
30	14	48	33	334	167.0	-200321.0	-42276.0	-163277.0
30	14	48	33	335	168.0	-200325.0	-43314.0	-96378.0
30	14	48	33	335	169.0	-200324.0	-44594.0	-51652.0
30	14	48	33	336	171.0	-200480.0	-45270.0	-40614.0
30	14	48	33	337	172.0	-200524.0	-44610.0	-54797.0
30	14	48	33	337	173.0	-200464.0	-44674.0	-80988.0
30	14	48	33	338	174.0	-200412.0	-43938.0	-134831.0
30	14	48	33	338	175.0	-200361.0	-42893.0	-189458.0
30	14	48	33	339	176.0	-200422.0	-42824.0	-201675.0
30	14	48	33	371	177.0	-200408.0	-43224.0	-165854.0
30	14	48	33	372	178.0	-200598.0	-43924.0	-100431.0
30	14	48	33	372	179.0	-200639.0	-45132.0	-58094.0
30	14	48	33	373	180.0	-200546.0	-45999.0	-45841.0
30	14	48	33	374	181.0	-200515.0	-46361.0	-48017.0
30	14	48	33	374	182.0	-200400.0	-46306.0	-61146.0
30	14	48	33	375	183.0	-200266.0	-46115.0	-84331.0
30	14	48	33	376	184.0	-200221.0	-45404.0	-138549.0
30	14	48	33	376	185.0	-200158.0	-44271.0	-191226.0
30	14	48	33	377	186.0	-200299.0	-44052.0	-200852.0
30	14	48	33	378	187.0	-200356.0	-44927.0	-162716.0
30	14	48	33	378	188.0	-200374.0	-46772.0	-96104.0
30	14	48	33	379	189.0	-200364.0	-48188.0	-53218.0
30	14	48	33	380	190.0	-200314.0	-48536.0	-40769.0
30	14	48	33	380	191.0	-200276.0	-48676.0	-44257.0
30	14	48	33	381	193.0	-200214.0	-48737.0	-84403.0
30	14	48	33	382	194.0	-200197.0	-47556.0	-140802.0
30	14	48	33	382	195.0	-200241.0	-46244.0	-192324.0
30	14	48	33	383	196.0	-200336.0	-46326.0	-200747.0
30	14	48	33	383	197.0	-200429.0	-47252.0	-161377.0
30	14	48	33	384	198.0	-200380.0	-48586.0	-96152.0
30	14	48	33	415	199.0	-200421.0	-49659.0	-55431.0
30	14	48	33	416	200.0	-200464.0	-50374.0	-43326.0
30	14	48	33	417	201.0	-200457.0	-50790.0	-46062.0
30	14	48	33	417	202.0	-200404.0	-50655.0	-61284.0
30	14	48	33	418	203.0	-200398.0	-50474.0	-88489.0
30	14	48	33	419	204.0	-200447.0	-49881.0	-144702.0
30	14	48	33	420	205.0	-200484.0	-48687.0	-194531.0
30	14	48	33	420	206.0	-200562.0	-47987.0	-201484.0
30	14	48	33	421	207.0	-200626.0	-48261.0	-158703.0
30	14	48	33	422	208.0	-200636.0	-49496.0	-92159.0
30	14	48	33	423	209.0	-200547.0	-50009.0	-53357.0
30	14	48	33	423	210.0	-200586.0	-49933.0	-43159.0
30	14	48	33	424	211.0	-200622.0	-50061.0	-47042.0
30	14	48	33	425	212.0	-200559.0	-49745.0	-63494.0
30	14	48	33	425	213.0	-200526.0	-49337.0	-93532.0
30	14	48	33	426	216.0	-200257.0	-48959.0	-205391.0
30	14	48	33	427	217.0	-200229.0	-49063.0	-162417.0
30	14	48	33	427	218.0	-200154.0	-49305.0	-98371.0
30	14	48	33	428	219.0	-200096.0	-50105.0	-60142.0
30	14	48	33	429	220.0	-200229.0	-50968.0	-49229.0
30	14	48	33	429	221.0	-200281.0	-51429.0	-51576.0
30	14	48	33	460	222.0	-200247.0	-51190.0	-67039.0
30	14	48	33	461	223.0	-200236.0	-50532.0	-97331.0
30	14	48	33	462	224.0	-200181.0	-49057.0	-156957.0
30	14	48	33	463	225.0	-200094.0	-48316.0	-203714.0
30	14	48	33	464	226.0	-200062.0	-49288.0	-206103.0
30	14	48	33	464	227.0	-199994.0	-49794.0	-159583.0
30	14	48	33	465	228.0	-199917.0	-50513.0	-92921.0
30	14	48	33	466	229.0	-199879.0	-51636.0	-57031.0
30	14	48	33	467	230.0	-199795.0	-52024.0	-49328.0
30	14	48	33	467	231.0	-199824.0	-52264.0	-53896.0
30	14	48	33	468	232.0	-199760.0	-52511.0	-69550.0
30	14	48	33	469	233.0	-199734.0	-52019.0	-99159.0
30	14	48	33	469	234.0	-199846.0	-51159.0	-158791.0
30	14	48	33	470	235.0	-199846.0	-49968.0	-206349.0
30	14	48	33	471	236.0	-199762.0	-49796.0	-207632.0
30	14	48	33	471	238.0	-199679.0	-50416.0	-95123.0
30	14	48	33	472	239.0	-199648.0	-51346.0	-61333.0
30	14	48	33	472	240.0	-199655.0	-51937.0	-52527.0
30	14	48	33	473	241.0	-199724.0	-52068.0	-56159.0
30	14	48	33	474	242.0	-199796.0	-50978.0	-71883.0
30	14	48	33	474	243.0	-199913.0	-49820.0	-102073.0
30	14	48	33	506	244.0	-199916.0	-48276.0	-162129.0
30	14	48	33	507	245.0	-199794.0	-46766.0	-204927.0
30	14	48	33	508	246.0	-199775.0	-46584.0	-203260.0
30	14	48	33	509	247.0	-199788.0	-48007.0	-153908.0
30	14	48	33	509	248.0	-199875.0	-49942.0	-88856.0
30	14	48	33	510	249.0	-199873.0	-51425.0	-56198.0
30	14	48	33	511	250.0	-199913.0	-52276.0	-50439.0
30	14	48	33	511	251.0	-200019.0	-53280.0	-58035.0
30	14	48	33	512	252.0	-200007.0	-56023.0	-76804.0
30	14	48	33	513	253.0	-200044.0	-55899.0	-108789.0
30	14	48	33	513	254.0	-200114.0	-54215.0	-170635.0
30	14	48	33	514	255.0	-200178.0	-52735.0	-213766.0
30	14	48	33	515	0.0	-200103.0	-52261.0	-210247.0
30	14	48	33	515	1.0	-200205.0	-52831.0	-157771.0
30	14	48	33	516	2.0	-200561.0	-53812.0	-93638.0
30	14	48	33	516	4.0	-200652.0	-54063.0	-53481.0
30	14	48	33	517	5.0	-200772.0	-53739.0	-59885.0
30	14	48	33	518	6.0	-200760.0	-53557.0	-77522.0
30	14	48	33	518	7.0	-200578.0	-52272.0	-110809.0
30	14	48	33	519	8.0	-200522.0	-50137.0	-171994.0
30	14	48	33	519	9.0	-200649.0	-48247.0	-212358.0
30	14	48	33	520	10.0	-200626.0	-47237.0	-209064.0
30	14	48	33	551	11.0	-200559.0	-47651.0	-157872.0
30	14	48	33	552	12.0	-200448.0	-48642.0	-94597.0
30	14	48	33	553	13.0	-200451.0	-48791.0	-64037.0
30	14	48	33	553	14.0	-200652.0	-48429.0	-57445.0
30	14	48	33	554	15.0	-200786.0	-47869.0	-62405.0
30	14	48	33	555	16.0	-200522.0	-47196.0	-79773.0
30	14	48	33	555	17.0	-200408.0	-46598.0	-115143.0
30	14	48	33	556	18.0	-200331.0	-45035.0	-178097.0
30	14	48	33	557	19.0	-200211.0	-43509.0	-218141.0
30	14	48	33	557	20.0	-200058.0	-43335.0	-212128.0
30	14	48	33	558	21.0	-199977.0	-44499.0	-157682.0
30	14	48	33	558	22.0	-199972.0	-45369.0	-96009.0
30	14	48	33	559	23.0	-199941.0	-45607.0	-67562.0
30	14	48	33	559	24.0	-200153.0	-44194.0	-63178.0
30	14	48	33	596	25.0	-200277.0	-42281.0	-69994.0
30	14	48	33	597	27.0	-200384.0	-41967.0	-121834.0
30	14	48	33	597	28.0	-200349.0	-41091.0	-184797.0
30	14	48	33	598	29.0	-200167.0	-42409.0	-222447.0
30	14	48	33	599	30.0	-200194.0	-42274.0	-214434.0
30	14	48	33	599	31.0	-200186.0	-41943.0	-159104.0
30	14	48	33	600	32.0	-199954.0	-42887.0	-98404.0
30	14	48	33	601	33.0	-199812.0	-44694.0	-69634.0
30	14	48	33	601	34.0	-199714.0	-46009.0	-64029.0
30	14	48	33	602	35.0	-199666.0	-46492.0	-70974.0
30	14	48	33	603	36.0	-199839.0	-46577.0	-89512.0
30	14	48	33	603	37.0	-199782.0	-46537.0	-126660.0
30	14	48	33	604	38.0	-199701.0	-45594.0	-188841.0
30	14	48	33	605	39.0	-199783.0	-44537.0	-223232.0
30	14	48	33	606	40.0	-199744.0	-44447.0	-212027.0
30	14	48	33	607	41.0	-199749.0	-45459.0	-153724.0
30	14	48	33	608	50.0	-200117.0	-43727.0	-207999.0
30	14	48	33	608	51.0	-200089.0	-44703.0	-149637.0
30	14	48	33	609	52.0	-199923.0	-46425.0	-90866.0
30	14	48	33	610	53.0	-199844.0	-47423.0	-66697.0
30	14	48	33	610	54.0	-199741.0	-47648.0	-63222.0
30	14	48	33	640	55.0	-199746.0	-47249.0	-71616.0
30	14	48	33	641	56.0	-199845.0	-47620.0	-90783.0
30	14	48	33	642	57.0	-199956.0	-47987.0	-130544.0
30	14	48	33	642	58.0	-200037.0	-46689.0	-194379.0
30	14	48	33	643	59.0	-200019.0	-45672.0	-226781.0
30	14	48	33	644	60.0	-199934.0	-45611.0	-213203.0
30	14	48	33	644	61.0	-199957.0	-46514.0	-155142.0
30	14	48	33	645	62.0	-199862.0	-47944.0	-96314.0
30	14	48	33	646	63.0	-199977.0	-48672.0	-71653.0
30	14	48	33	647	64.0	-199947.0	-48615.0	-67766.0
30	14	48	33	647	65.0	-199838.0	-48222.0	-76009.0
30	14	48	33	648	66.0	-199824.0	-47685.0	-94411.0
30	14	48	33	648	67.0	-199874.0	-46816.0	-133453.0
30	14	48	33	649	68.0	-200012.0	-45396.0	-194883.0
30	14	48	33	650	69.0	-200041.0	-43882.0	-226043.0
30	14	48	33	651	70.0	-200014.0	-43370.0	-210780.0
30	14	48	33	651	72.0	-200002.0	-45999.0	-89728.0
30	14	48	33	652	73.0	-199992.0	-46116.0	-66572.0
30	14	48	33	652	74.0	-199986.0	-46304.0	-65502.0
30	14	48	33	653	75.0	-200217.0	-46863.0	-74649.0
30	14	48	33	654	76.0	-200451.0	-47059.0	-94259.0
30	14	48	33	654	77.0	-200412.0	-46827.0	-136185.0
30	14	48	33	655	78.0	-200464.0	-45827.0	-198256.0
30	14	48	33	686	79.0	-200344.0	-46964.0	-228411.0
30	14	48	33	687	80.0	-200445.0	-48506.0	-210422.0
30	14	48	33	687	81.0	-200501.0	-49274.0	-147349.0
30	14	48	33	688	82.0	-200509.0	-50389.0	-89933.0
30	14	48	33	689	83.0	-200457.0	-50999.0	-66907.0
30	14	48	33	689	84.0	-200531.0	-51231.0	-63791.0
30	14	48	33	690	85.0	-200687.0	-50467.0	-73592.0
30	14	48	33	691	86.0	-200656.0	-49679.0	-94761.0
30	14	48	33	691	87.0	-200678.0	-48669.0	-138319.0
30	14	48	33	692	88.0	-200615.0	-47076.0	-200147.0
30	14	48	33	693	89.0	-200611.0	-46337.0	-228477.0
30	14	48	33	693	90.0	-200386.0	-46554.0	-209210.0
30	14	48	33	694	91.0	-200198.0	-48439.0	-145837.0
30	14	48	33	695	92.0	-200187.0	-52221.0	-89507.0
30	14	48	33	695	93.0	-200176.0	-52680.0	-67705.0
30	14	48	33	696	94.0	-200241.0	-52509.0	-67150.0
30	14	48	33	697	95.0	-200086.0	-52342.0	-78486.0
30	14	48	33	697	96.0	-200122.0	-51006.0	-99186.0
30	14	48	33	698	97.0	-200156.0	-48818.0	-144366.0
30	14	48	33	698	98.0	-200199.0	-47727.0	-206976.0
30	14	48	33	699	99.0	-200229.0	-47397.0	-232726.0
30	14	48	33	700	100.0	-200262.0	-47779.0	-210471.0
30	14	48	33	731	101.0	-200265.0	-49179.0	-145124.0
30	14	48	33	732	102.0	-200206.0	-51499.0	-90996.0
30	14	48	33	733	103.0	-200345.0	-53666.0	-70451.0
30	14	48	33	733	104.0	-200171.0	-53677.0	-68957.0
30	14	48	33	734	105.0	-200203.0	-53357.0	-79555.0
30	14	48	33	734	106.0	-200366.0	-50677.0	-100592.0
30	14	48	33	735	107.0	-200378.0	-45857.0	-145989.0
30	14	48	33	736	108.0	-200422.0	-45090.0	-206409.0
30	14	48	33	775	109.0	-200411.0	-44672.0	-231426.0
30	14	48	33	796	110.0	-200467.0	-44462.0	-207678.0
30	14	48	33	796	111.0	-200417.0	-46146.0	-141885.0
30	14	48	33	797	112.0	-200516.0	-48238.0	-88429.0
30	14	48	33	797	113.0	-200497.0	-49673.0	-70459.0
30	14	48	33	798	114.0	-200399.0	-50191.0	-69519.0
30	14	48	33	799	115.0	-200469.0	-50311.0	-78745.0
30	14	48	33	799	117.0	-200671.0	-49347.0	-145902.0
30	14	48	33	800	118.0	-200693.0	-47721.0	-206042.0
30	14	48	33	800	119.0	-200601.0	-46707.0	-230491.0
30	14	48	33	801	120.0	-200611.0	-47002.0	-204632.0
30	14	48	33	801	121.0	-200569.0	-48288.0	-139024.0
30	14	48	33	802	122.0	-200566.0	-49555.0	-88335.0
30	14	48	33	803	123.0	-200471.0	-49859.0	-70668.0
30	14	48	33	803	124.0	-200491.0	-50097.0	-70629.0
30	14	48	33	804	139.0	-200636.0	-47692.0	-227271.0
30	14	48	33	804	140.0	-200630.0	-47925.0	-197399.0
30	14	48	33	805	141.0	-200799.0	-49414.0	-131586.0
30	14	48	33	806	142.0	-200807.0	-50834.0	-84028.0
30	14	48	33	806	143.0	-200802.0	-51349.0	-68839.0
30	14	48	33	807	144.0	-200754.0	-51385.0	-69377.0
30	14	48	33	807	145.0	-200708.0	-50362.0	-81089.0
30	14	48	33	820	146.0	-200597.0	-47135.0	-103674.0
30	14	48	33	821	147.0	-200504.0	-46501.0	-154766.0
30	14	48	33	822	148.0	-200591.0	-46186.0	-212192.0
30	14	48	33	823	149.0	-200607.0	-46074.0	-228485.0
30	14	48	33	823	150.0	-200491.0	-46434.0	-195709.0
30	14	48	33	824	151.0	-200356.0	-47736.0	-128051.0
30	14	48	33	825	152.0	-200308.0	-49075.0	-80762.0
30	14	48	33	825	153.0	-200290.0	-49946.0	-65029.0
30	14	48	33	826	154.0	-200261.0	-50502.0	-64515.0
30	14	48	33	827	155.0	-200334.0	-51451.0	-76493.0
30	14	48	33	827	156.0	-200366.0	-51255.0	-100024.0
30	14	48	33	828	157.0	-200286.0	-49754.0	-150341.0
30	14	48	33	829	158.0	-200278.0	-47943.0	-206996.0
30	14	48	33	829	159.0	-200221.0	-46854.0	-224460.0
30	14	48	33	830	160.0	-200227.0	-44350.0	-191720.0
30	14	48	33	831	162.0	-200359.0	-44780.0	-78474.0
30	14	48	33	831	163.0	-200371.0	-46027.0	-62189.0
30	14	48	33	832	164.0	-200336.0	-47154.0	-63117.0
30	14	48	33	832	165.0	-200401.0	-47983.0	-75921.0
30	14	48	33	833	166.0	-200333.0	-48513.0	-101336.0
30	14	48	33	834	167.0	-200308.0	-48237.0	-154484.0
30	14	48	33	866	168.0	-200341.0	-47484.0	-210044.0
30	14	48	33	866	169.0	-200328.0	-47329.0	-225507.0
30	14	48	33	867	170.0	-200227.0	-48077.0	-190484.0
30	14	48	33	868	171.0	-200058.0	-49674.0	-122233.0
30	14	48	33	868	172.0	-200189.0	-51862.0	-77977.0
30	14	48	33	869	173.0	-200156.0	-52927.0	-65390.0
30	14	48	33	870	174.0	-200136.0	-53027.0	-67186.0
30	14	48	33	870	175.0	-200051.0	-53316.0	-80399.0
30	14	48	33	871	176.0	-200086.0	-53058.0	-106114.0
30	14	48	33	872	177.0	-200105.0	-51767.0	-160217.0
30	14	48	33	873	178.0	-200030.0	-50047.0	-215128.0
30	14	48	33	873	179.0	-199997.0	-49575.0	-226849.0
30	14	48	33	874	180.0	-200007.0	-50237.0	-188406.0
30	14	48	33	875	181.0	-200047.0	-51788.0	-119316.0
30	14	48	33	875	182.0	-200022.0	-53159.0	-75018.0
30	14	48	33	876	184.0	-200084.0	-54094.0	-64277.0
30	14	48	33	876	185.0	-200039.0	-53672.0	-76729.0
30	14	48	33	877	186.0	-200080.0	-52892.0	-101025.0
30	14	48	33	877	187.0	-200002.0	-51677.0	-155546.0
30	14	48	33	878	188.0	-199949.0	-50466.0	-209926.0
30	14	48	33	879	189.0	-199942.0	-49991.0	-222712.0
30	14	48	33	911	190.0	-199991.0	-49942.0	-183409.0
30	14	48	33	912	191.0	-199941.0	-50752.0	-115571.0
30	14	48	33	912	192.0	-199880.0	-52087.0	-74731.0
30	14	48	33	913	193.0	-199966.0	-51224.0	-64623.0
30	14	48	33	914	194.0	-199868.0	-51177.0	-67632.0
30	14	48	33	914	195.0	-199922.0	-51640.0	-81568.0
30	14	48	33	915	196.0	-200077.0	-51984.0	-107952.0
30	14	48	33	916	197.0	-200066.0	-53292.0	-164469.0
30	14	48	33	916	198.0	-200012.0	-52957.0	-216284.0
30	14	48	33	917	199.0	-200044.0	-54328.0	-225804.0
30	14	48	33	918	200.0	-200181.0	-55371.0	-186465.0
30	14	48	33	918	201.0	-200148.0	-56833.0	-120049.0
30	14	48	33	919	202.0	-200086.0	-57814.0	-81371.0
30	14	48	33	920	203.0	-200064.0	-57999.0	-71080.0
30	14	48	33	920	204.0	-200239.0	-57737.0	-74567.0
30	14	48	33	921	206.0	-200172.0	-56885.0	-119638.0
30	14	48	33	922	207.0	-200204.0	-56154.0	-176439.0
30	14	48	33	922	208.0	-200314.0	-54882.0	-226316.0
30	14	48	33	923	209.0	-200324.0	-54246.0	-232624.0
30	14	48	33	923	210.0	-200362.0	-54452.0	-188427.0
30	14	48	33	924	211.0	-200342.0	-55683.0	-119880.0
30	14	48	33	925	212.0	-200212.0	-56464.0	-80402.0
30	14	48	33	955	213.0	-200186.0	-56478.0	-69772.0
30	14	48	33	956	214.0	-200235.0	-56204.0	-74439.0
30	14	48	33	957	215.0	-200267.0	-55646.0	-89302.0
30	14	48	33	957	216.0	-200141.0	-55004.0	-117387.0
30	14	48	33	958	217.0	-200102.0	-53100.0	-177397.0
30	14	48	33	959	218.0	-200076.0	-50794.0	-228399.0
30	14	48	33	959	219.0	-200097.0	-50846.0	-235061.0
30	14	48	33	960	220.0	-200041.0	-51611.0	-190879.0
30	14	48	33	961	221.0	-199955.0	-53012.0	-124012.0
30	14	48	33	961	222.0	-199977.0	-53794.0	-85210.0
30	14	48	33	962	223.0	-199817.0	-53719.0	-75209.0
30	14	48	33	963	224.0	-199621.0	-53238.0	-78532.0
30	14	48	33	963	225.0	-199571.0	-51092.0	-94012.0
30	14	48	33	964	226.0	-199538.0	-48212.0	-122964.0
30	14	48	33	965	227.0	-199543.0	-48269.0	-181046.0
30	14	48	33	965	229.0	-199714.0	-48857.0	-232865.0
30	14	48	33	966	230.0	-199884.0	-50236.0	-185944.0
30	14	48	33	967	231.0	-200007.0	-52073.0	-119202.0
30	14	48	33	967	232.0	-199961.0	-54183.0	-82639.0
30	14	48	33	968	233.0	-200009.0	-56237.0	-73236.0
30	14	48	33	968	234.0	-200117.0	-56009.0	-76188.0
30	14	48	34	0	235.0	-200097.0	-55535.0	-89334.0
30	14	48	34	1	236.0	-200074.0	-55107.0	-117741.0
30	14	48	34	1	237.0	-200129.0	-54289.0	-178804.0
30	14	48	34	2	238.0	-200228.0	-53937.0	-228228.0
30	14	48	34	3	239.0	-200304.0	-53637.0	-231211.0
30	14	48	34	3	240.0	-200402.0	-54209.0	-182861.0
30	14	48	34	4	241.0	-200426.0	-55459.0	-115761.0
30	14	48	34	4	242.0	-200361.0	-57950.0	-79006.0
30	14	48	34	5	243.0	-200422.0	-57754.0	-70074.0
30	14	48	34	6	244.0	-200410.0	-56569.0	-74001.0
30	14	48	34	6	245.0	-200291.0	-55528.0	-90027.0
30	14	48	34	7	246.0	-200157.0	-54600.0	-121322.0
30	14	48	34	7	247.0	-200208.0	-53202.0	-182285.0
30	14	48	34	8	248.0	-200377.0	-50839.0	-228705.0
30	14	48	34	8	249.0	-200487.0	-50709.0	-227682.0
30	14	48	34	9	251.0	-200231.0	-53132.0	-110719.0
30	14	48	34	10	252.0	-200227.0	-53847.0	-77411.0
30	14	48	34	10	253.0	-200304.0	-54199.0	-70636.0
30	14	48	34	11	254.0	-200198.0	-54331.0	-75550.0
30	14	48	34	11	255.0	-199981.0	-53931.0	-91344.0
30	14	48	34	12	0.0	-199927.0	-53716.0	-124251.0
30	14	48	34	12	1.0	-200065.0	-53017.0	-185462.0
30	14	48	34	45	2.0	-200134.0	-51673.0	-230284.0
30	14	48	34	46	3.0	-200204.0	-51331.0	-228413.0
30	14	48	34	47	4.0	-200239.0	-52426.0	-176504.0
30	14	48	34	47	5.0	-200178.0	-54168.0	-111760.0
30	14	48	34	48	6.0	-200163.0	-55379.0	-79393.0
30	14	48	34	49	7.0	-200156.0	-56097.0	-72006.0
30	14	48	34	49	8.0	-200051.0	-56104.0	-77369.0
30	14	48	34	50	9.0	-200035.0	-55825.0	-94195.0
30	14	48	34	50	10.0	-199999.0	-55104.0	-126425.0
30	14	48	34	51	11.0	-199996.0	-53736.0	-188003.0
30	14	48	34	51	12.0	-200018.0	-52407.0	-229879.0
30	14	48	34	52	13.0	-200100.0	-52177.0	-227020.0
30	14	48	34	52	14.0	-200140.0	-52957.0	-173279.0
30	14	48	34	53	15.0	-200256.0	-54451.0	-108582.0
30	14	48	34	54	16.0	-200364.0	-55224.0	-76867.0
30	14	48	34	54	18.0	-200576.0	-55152.0	-76012.0
30	14	48	34	55	19.0	-200556.0	-54981.0	-92639.0
30	14	48	34	55	20.0	-200492.0	-54402.0	-125421.0
30	14	48	34	56	21.0	-200428.0	-53146.0	-187295.0
30	14	48	34	56	22.0	-200425.0	-51822.0	-229707.0
30	14	48	34	57	23.0	-200606.0	-51472.0	-224689.0
30	14	48	34	89	24.0	-200602.0	-52482.0	-168479.0
30	14	48	34	89	25.0	-200526.0	-54143.0	-103083.0
30	14	48	34	90	26.0	-200636.0	-55097.0	-73491.0
30	14	48	34	91	27.0	-200614.0	-55329.0	-68216.0
30	14	48	34	91	28.0	-200594.0	-56296.0	-75480.0
30	14	48	34	92	29.0	-200540.0	-58487.0	-92324.0
30	14	48	34	92	30.0	-200527.0	-57216.0	-128136.0
30	14	48	34	135	31.0	-200507.0	-55284.0	-192161.0
30	14	48	34	180	32.0	-200432.0	-53927.0	-232442.0
30	14	48	34	181	33.0	-200341.0	-53519.0	-223724.0
30	14	48	34	182	34.0	-200276.0	-54199.0	-164751.0
30	14	48	34	182	35.0	-200172.0	-55551.0	-101901.0
30	14	48	34	183	36.0	-200140.0	-56584.0	-74031.0
30	14	48	34	192	37.0	-200067.0	-56702.0	-68076.0
30	14	48	34	193	38.0	-200000.0	-54874.0	-74476.0
30	14	48	34	193	40.0	-199966.0	-53462.0	-130038.0
30	14	48	34	194	41.0	-200004.0	-52866.0	-193665.0
30	14	48	34	195	42.0	-200051.0	-52281.0	-231072.0
30	14	48	34	195	43.0	-200182.0	-52376.0	-222323.0
30	14	48	34	196	44.0	-200188.0	-53474.0	-163214.0
30	14	48	34	196	45.0	-200204.0	-55081.0	-99767.0
30	14	48	34	197	46.0	-200277.0	-56129.0	-70301.0
30	14	48	34	197	47.0	-200301.0	-56346.0	-66010.0
30	14	48	34	198	63.0	-199924.0	-53891.0	-223619.0
30	14	48	34	198	86.0	-200511.0	-55390.0	-79534.0
30	14	48	34	199	87.0	-200467.0	-55693.0	-74951.0
30	14	48	34	200	88.0	-200446.0	-55823.0	-85179.0
30	14	48	34	200	89.0	-200423.0	-55589.0	-106416.0
30	14	48	34	201	90.0	-200391.0	-55211.0	-147973.0
30	14	48	34	201	91.0	-200323.0	-53924.0	-212082.0
30	14	48	34	225	92.0	-200355.0	-52933.0	-240666.0
30	14	48	34	225	93.0	-200460.0	-52925.0	-220319.0
30	14	48	34	226	94.0	-200442.0	-54081.0	-156558.0
30	14	48	34	226	95.0	-200340.0	-55536.0	-100997.0
30	14	48	34	227	96.0	-200342.0	-56182.0	-80916.0
30	14	48	34	228	97.0	-200302.0	-56001.0	-78738.0
30	14	48	34	228	98.0	-200351.0	-55689.0	-88156.0
30	14	48	34	229	99.0	-200272.0	-55718.0	-108586.0
30	14	48	34	229	100.0	-200322.0	-55157.0	-153469.0
30	14	48	34	230	101.0	-200349.0	-53992.0	-217719.0
30	14	48	34	231	102.0	-200267.0	-53454.0	-245788.0
30	14	48	34	231	103.0	-200227.0	-53867.0	-224413.0
30	14	48	34	232	104.0	-200215.0	-55286.0	-158428.0
30	14	48	34	233	105.0	-200258.0	-56809.0	-102432.0
30	14	48	34	233	106.0	-200301.0	-57558.0	-82010.0
30	14	48	34	234	108.0	-200469.0	-57303.0	-91578.0
30	14	48	34	270	109.0	-200466.0	-56747.0	-112245.0
30	14	48	34	271	110.0	-200499.0	-55956.0	-158388.0
30	14	48	34	272	111.0	-200516.0	-54387.0	-223775.0
30	14	48	34	272	112.0	-200506.0	-53465.0	-252931.0
30	14	48	34	273	113.0	-200474.0	-53560.0	-229961.0
30	14	48	34	273	114.0	-200371.0	-54796.0	-163066.0
30	14	48	34	274	115.0	-200316.0	-55922.0	-108487.0
30	14	48	34	275	116.0	-200433.0	-56340.0	-88644.0
30	14	48	34	275	117.0	-200529.0	-56390.0	-88044.0
30	14	48	34	276	118.0	-200478.0	-55812.0	-97909.0
30	14	48	34	276	119.0	-200534.0	-53257.0	-118923.0
30	14	48	34	277	120.0	-200555.0	-52690.0	-165709.0
30	14	48	34	278	121.0	-200606.0	-51894.0	-227917.0
30	14	48	34	278	122.0	-200693.0	-52386.0	-253172.0
30	14	48	34	279	123.0	-200619.0	-52477.0	-228375.0
30	14	48	34	279	130.0	-199922.0	-53996.0	-168639.0
30	14	48	34	280	131.0	-199942.0	-52210.0	-229867.0
30	14	48	34	281	132.0	-199871.0	-50863.0	-251174.0
30	14	48	34	281	133.0	-199851.0	-50758.0	-221039.0
30	14	48	34	282	134.0	-199872.0	-50586.0	-151982.0
30	14	48	34	282	135.0	-199962.0	-51091.0	-100169.0
30	14	48	34	283	136.0	-200011.0	-51474.0	-82212.0
30	14	48	34	322	137.0	-199957.0	-51339.0	-80384.0
30	14	48	34	323	138.0	-200024.0	-51269.0	-90087.0
30	14	48	34	324	139.0	-199986.0	-50977.0	-112188.0
30	14	48	34	324	140.0	-199921.0	-50362.0	-161930.0
30	14	48	34	325	141.0	-199970.0	-48982.0	-222874.0
30	14	48	34	325	142.0	-199967.0	-47518.0	-245154.0
30	14	48	34	326	143.0	-200071.0	-47585.0	-215601.0
30	14	48	34	327	144.0	-200162.0	-48936.0	-146422.0
30	14	48	34	327	145.0	-200195.0	-50361.0	-96169.0
30	14	48	34	328	146.0	-200249.0	-51252.0	-80272.0
30	14	48	34	328	147.0	-200334.0	-51599.0	-80386.0
30	14	48	34	329	148.0	-200349.0	-51600.0	-92907.0
30	14	48	34	329	149.0	-200332.0	-50932.0	-119014.0
30	14	48	34	330	150.0	-200355.0	-49160.0	-169911.0
30	14	48	34	331	151.0	-200544.0	-45227.0	-229006.0
30	14	48	34	331	153.0	-200822.0	-44833.0	-215316.0
30	14	48	34	332	154.0	-200778.0	-46664.0	-145607.0
30	14	48	34	332	155.0	-200617.0	-48343.0	-95423.0
30	14	48	34	333	156.0	-200558.0	-49334.0	-79274.0
30	14	48	34	333	157.0	-200690.0	-49235.0	-78003.0
30	14	48	34	334	158.0	-200729.0	-49241.0	-89872.0
30	14	48	34	361	159.0	-200842.0	-49141.0	-115195.0
30	14	48	34	361	160.0	-201026.0	-48867.0	-169342.0
30	14	48	34	362	161.0	-201152.0	-48381.0	-229666.0
30	14	48	34	363	162.0	-201177.0	-48665.0	-245908.0
30	14	48	34	363	163.0	-201074.0	-48850.0	-209337.0
30	14	48	34	364	164.0	-201035.0	-49937.0	-139106.0
30	14	48	34	365	165.0	-200969.0	-50732.0	-91266.0
30	14	48	34	365	166.0	-200922.0	-50786.0	-76617.0
30	14	48	34	366	167.0	-201011.0	-51579.0	-78661.0
30	14	48	34	366	168.0	-201140.0	-51406.0	-92121.0
30	14	48	34	367	169.0	-201151.0	-50825.0	-115872.0
30	14	48	34	368	170.0	-201152.0	-49702.0	-168668.0
30	14	48	34	368	171.0	-201201.0	-47807.0	-227437.0
30	14	48	34	369	172.0	-201268.0	-46829.0	-243889.0
30	14	48	34	370	173.0	-201291.0	-47189.0	-208496.0
30	14	48	34	370	175.0	-201309.0	-49975.0	-92544.0
30	14	48	34	371	176.0	-201193.0	-50507.0	-78780.0
30	14	48	34	372	177.0	-201104.0	-50319.0	-79414.0
30	14	48	34	372	178.0	-200956.0	-49512.0	-93457.0
30	14	48	34	373	179.0	-200745.0	-48767.0	-120245.0
30	14	48	34	373	180.0	-200559.0	-47912.0	-175917.0
30	14	48	34	374	181.0	-200353.0	-46862.0	-233834.0
30	14	48	34	404	182.0	-200262.0	-46750.0	-247784.0
30	14	48	34	405	183.0	-200316.0	-47683.0	-209569.0
30	14	48	34	406	184.0	-200377.0	-50411.0	-138506.0
30	14	48	34	406	185.0	-200576.0	-52077.0	-92416.0
30	14	48	34	407	186.0	-200662.0	-52549.0	-78739.0
30	14	48	34	407	187.0	-200628.0	-52169.0	-80464.0
30	14	48	34	408	188.0	-200651.0	-51683.0	-94734.0
30	14	48	34	409	189.0	-200687.0	-50913.0	-121271.0
30	14	48	34	409	190.0	-200757.0	-49421.0	-177501.0
30	14	48	34	410	191.0	-200884.0	-48352.0	-234936.0
30	14	48	34	410	192.0	-200835.0	-47829.0	-247261.0
30	14	48	34	411	193.0	-200800.0	-48163.0	-208049.0
30	14	48	34	412	194.0	-200827.0	-48887.0	-139538.0
30	14	48	34	412	195.0	-200794.0	-49717.0	-96982.0
30	14	48	34	413	196.0	-200717.0	-50101.0	-84706.0
30	14	48	34	414	197.0	-200687.0	-50516.0	-86232.0
30	14	48	34	414	198.0	-200601.0	-50292.0	-101085.0
30	14	48	34	415	199.0	-200593.0	-49961.0	-129227.0
30	14	48	34	415	200.0	-200532.0	-49226.0	-186627.0
30	14	48	34	416	201.0	-200369.0	-48336.0	-239618.0
30	14	48	34	417	202.0	-200344.0	-47905.0	-248110.0
30	14	48	34	449	203.0	-200281.0	-48677.0	-205665.0
30	14	48	34	473	204.0	-200132.0	-50568.0	-136899.0
30	14	48	34	474	205.0	-200056.0	-52061.0	-95914.0
30	14	48	34	498	206.0	-200066.0	-53153.0	-84704.0
30	14	48	34	499	207.0	-200086.0	-53421.0	-87653.0
30	14	48	34	499	208.0	-199925.0	-53412.0	-102308.0
30	14	48	34	500	209.0	-199723.0	-52704.0	-129967.0
30	14	48	34	501	210.0	-199676.0	-51509.0	-188222.0
30	14	48	34	502	211.0	-199703.0	-49859.0	-241244.0
30	14	48	34	502	212.0	-199688.0	-49054.0	-247286.0
30	14	48	34	503	213.0	-199715.0	-49211.0	-202686.0
30	14	48	34	504	214.0	-199846.0	-50036.0	-132699.0
30	14	48	34	504	215.0	-199940.0	-50244.0	-91424.0
30	14	48	34	505	216.0	-199967.0	-49976.0	-81542.0
30	14	48	34	505	217.0	-199872.0	-49699.0	-85051.0
30	14	48	34	506	218.0	-199909.0	-50054.0	-100377.0
30	14	48	34	507	220.0	-199947.0	-48392.0	-190497.0
30	14	48	34	507	221.0	-199941.0	-46776.0	-244890.0
30	14	48	34	508	242.0	-200736.0	-51056.0	-242971.0
30	14	48	34	508	243.0	-200701.0	-52286.0	-192732.0
30	14	48	34	509	244.0	-200582.0	-53112.0	-124861.0
30	14	48	34	509	245.0	-200584.0	-52459.0	-88992.0
30	14	48	34	510	246.0	-200656.0	-53021.0	-80164.0
30	14	48	34	511	247.0	-200691.0	-53211.0	-86936.0
30	14	48	34	511	248.0	-200696.0	-53536.0	-104509.0
30	14	48	34	540	249.0	-200701.0	-52944.0	-136498.0
30	14	48	34	540	250.0	-200692.0	-52177.0	-197892.0
30	14	48	34	541	251.0	-200718.0	-51989.0	-245489.0
30	14	48	34	542	252.0	-200759.0	-50014.0	-246764.0
30	14	48	34	542	253.0	-200829.0	-50277.0	-194569.0
30	14	48	34	543	254.0	-200808.0	-51777.0	-126539.0
30	14	48	34	543	255.0	-200682.0	-52792.0	-90028.0
30	14	48	34	544	0.0	-200554.0	-53047.0	-78834.0
30	14	48	34	588	1.0	-200454.0	-53176.0	-84125.0
30	14	48	34	589	2.0	-200465.0	-53196.0	-102173.0
30	14	48	34	590	3.0	-200430.0	-52634.0	-134917.0
30	14	48	34	591	4.0	-200323.0	-51270.0	-198447.0
30	14	48	34	592	5.0	-200164.0	-50210.0	-243491.0
30	14	48	34	592	6.0	-200054.0	-50075.0	-240901.0
30	14	48	34	593	7.0	-199967.0	-51092.0	-187364.0
30	14	48	34	594	9.0	-200049.0	-54360.0	-86641.0
30	14	48	34	595	10.0	-200106.0	-55075.0	-78927.0
30	14	48	34	596	11.0	-200086.0	-55410.0	-84014.0
30	14	48	34	596	12.0	-200014.0	-55213.0	-101062.0
30	14	48	34	597	13.0	-200031.0	-54987.0	-135432.0
30	14	48	34	598	14.0	-199991.0	-53722.0	-198135.0
30	14	48	34	599	15.0	-199955.0	-52585.0	-243115.0
30	14	48	34	599	16.0	-199994.0	-52653.0	-241239.0
30	14	48	34	600	17.0	-200022.0	-54121.0	-186420.0
30	14	48	34	601	32.0	-199889.0	-57571.0	-105837.0
30	14	48	34	601	33.0	-199932.0	-56062.0	-140738.0
30	14	48	34	602	34.0	-200021.0	-54506.0	-202492.0
30	14	48	34	602	35.0	-200097.0	-53702.0	-243064.0
30	14	48	34	603	36.0	-200150.0	-53126.0	-235868.0
30	14	48	34	603	37.0	-200190.0	-52925.0	-177956.0
30	14	48	34	632	38.0	-200157.0	-54907.0	-113372.0
30	14	48	34	632	39.0	-200142.0	-56045.0	-83460.0
30	14	48	34	633	40.0	-200161.0	-56290.0	-77255.0
30	14	48	34	634	41.0	-200112.0	-55232.0	-83119.0
30	14	48	34	634	42.0	-200153.0	-52787.0	-99656.0
30	14	48	34	635	43.0	-200218.0	-52532.0	-136997.0
30	14	48	34	635	44.0	-200264.0	-51302.0	-201815.0
30	14	48	34	676	45.0	-200382.0	-50295.0	-240682.0
30	14	48	34	676	46.0	-200505.0	-50096.0	-230733.0
30	14	48	34	677	47.0	-200695.0	-51890.0	-170704.0
30	14	48	34	678	48.0	-200676.0	-53962.0	-106016.0
30	14	48	34	678	49.0	-200672.0	-55013.0	-76264.0
30	14	48	34	679	50.0	-200759.0	-55922.0	-70893.0
30	14	48	34	680	51.0	-200619.0	-57094.0	-77735.0
30	14	48	34	680	52.0	-200621.0	-56309.0	-94989.0
30	14	48	34	681	54.0	-200631.0	-52614.0	-198847.0
30	14	48	34	681	55.0	-200583.0	-51450.0	-237820.0
30	14	48	34	682	56.0	-200564.0	-50165.0	-227372.0
30	14	48	34	683	57.0	-200532.0	-51328.0	-167512.0
30	14	48	34	683	58.0	-200487.0	-53776.0	-105621.0
30	14	48	34	684	59.0	-200561.0	-55139.0	-77669.0
30	14	48	34	685	60.0	-200601.0	-55752.0	-73304.0
30	14	48	34	685	61.0	-200621.0	-55837.0	-83543.0
30	14	48	34	686	76.0	-200644.0	-51589.0	-234830.0
30	14	48	34	687	77.0	-200729.0	-51987.0	-170001.0
30	14	48	34	687	78.0	-200717.0	-53547.0	-109576.0
30	14	48	34	688	79.0	-200600.0	-54396.0	-84926.0
30	14	48	34	689	80.0	-200414.0	-54644.0	-81677.0
30	14	48	34	689	81.0	-200368.0	-54712.0	-89814.0
30	14	48	34	690	82.0	-200385.0	-53963.0	-107604.0
30	14	48	34	721	83.0	-200291.0	-52742.0	-148870.0
30	14	48	34	721	84.0	-200206.0	-50711.0	-214428.0
30	14	48	34	722	85.0	-200256.0	-49682.0	-247659.0
30	14	48	34	723	86.0	-200182.0	-50390.0	-230427.0
30	14	48	34	723	87.0	-200062.0	-52169.0	-166059.0
30	14	48	34	724	88.0	-200089.0	-53638.0	-109118.0
30	14	48	34	725	89.0	-200134.0	-52936.0	-88107.0
30	14	48	34	725	90.0	-200164.0	-52137.0	-86056.0
30	14	48	34	726	91.0	-200109.0	-51066.0	-93581.0
30	14	48	34	726	92.0	-200026.0	-50234.0	-113156.0
30	14	48	34	727	93.0	-200036.0	-49724.0	-157146.0
30	14	48	34	765	94.0	-200045.0	-48346.0	-222570.0
30	14	48	34	766	95.0	-199976.0	-47836.0	-255354.0
30	14	48	34	767	96.0	-199824.0	-48589.0	-235788.0
30	14	48	34	768	97.0	-199574.0	-50197.0	-170559.0
30	14	48	34	768	99.0	-199062.0	-52780.0	-95576.0
30	14	48	34	769	100.0	-200004.0	-53073.0	-94490.0
30	14	48	34	769	101.0	-200683.0	-52775.0	-103867.0
30	14	48	34	770	102.0	-200648.0	-49287.0	-122875.0
30	14	48	34	771	103.0	-200217.0	-46919.0	-166452.0
30	14	48	34	771	104.0	-199984.0	-46446.0	-231867.0
30	14	48	34	772	105.0	-199854.0	-46597.0	-262227.0
30	14	48	34	773	106.0	-199734.0	-47441.0	-240024.0
30	14	48	34	773	107.0	-199726.0	-49146.0	-173826.0
30	14	48	34	774	108.0	-199481.0	-51041.0	-116539.0
30	14	48	34	775	109.0	-199310.0	-51934.0	-93927.0
30	14	48	34	775	110.0	-199383.0	-52154.0	-90562.0
30	14	48	34	776	121.0	-199561.0	-53238.0	-96903.0
30	14	48	34	776	122.0	-199408.0	-52552.0	-118510.0
30	14	48	34	777	123.0	-199478.0	-51586.0	-165861.0
30	14	48	34	778	124.0	-199787.0	-50417.0	-227954.0
30	14	48	34	778	125.0	-200088.0	-50227.0	-253634.0
30	14	48	34	779	126.0	-200239.0	-51129.0	-228011.0
30	14	48	34	779	127.0	-200189.0	-52191.0	-159981.0
30	14	48	34	809	128.0	-200416.0	-53634.0	-106067.0
30	14	48	34	810	129.0	-200501.0	-53914.0	-87177.0
30	14	48	34	811	130.0	-200235.0	-53946.0	-86502.0
30	14	48	34	811	131.0	-200146.0	-53983.0	-98007.0
30	14	48	34	812	132.0	-200234.0	-54060.0	-120777.0
30	14	48	34	813	133.0	-200241.0	-53189.0	-168258.0
30	14	48	34	814	134.0	-200137.0	-50544.0	-231590.0
30	14	48	34	814	135.0	-200016.0	-48142.0	-255891.0
30	14	48	34	815	136.0	-200027.0	-48922.0	-229031.0
30	14	48	34	816	137.0	-200337.0	-50623.0	-159838.0
30	14	48	34	816	138.0	-200637.0	-51526.0	-106704.0
30	14	48	34	817	139.0	-200645.0	-49193.0	-89281.0
30	14	48	34	817	140.0	-200639.0	-49236.0	-88652.0
30	14	48	34	818	141.0	-200685.0	-50082.0	-98906.0
30	14	48	34	819	142.0	-200669.0	-50191.0	-120357.0
30	14	48	34	819	144.0	-200561.0	-48153.0	-230687.0
30	14	48	34	820	145.0	-200538.0	-47977.0	-253717.0
30	14	48	34	821	146.0	-200862.0	-48354.0	-225021.0
30	14	48	34	855	147.0	-200914.0	-49911.0	-157653.0
30	14	48	34	856	148.0	-200844.0	-51558.0	-108141.0
30	14	48	34	856	149.0	-200423.0	-52504.0	-91960.0
30	14	48	34	857	150.0	-200287.0	-52696.0	-91220.0
30	14	48	34	858	151.0	-200146.0	-53042.0	-100397.0
30	14	48	34	859	152.0	-200225.0	-52829.0	-122068.0
30	14	48	34	859	153.0	-200217.0	-51552.0	-174087.0
30	14	48	34	860	154.0	-200308.0	-49639.0	-235208.0
30	14	48	34	861	155.0	-200479.0	-48115.0	-255581.0
30	14	48	34	861	156.0	-200460.0	-48220.0	-222899.0
30	14	48	34	862	157.0	-200274.0	-49368.0	-152020.0
30	14	48	34	862	158.0	-200307.0	-50466.0	-101612.0
30	14	48	34	863	159.0	-200192.0	-50771.0	-85041.0
30	14	48	34	864	160.0	-200097.0	-50571.0	-85335.0
30	14	48	34	865	161.0	-200152.0	-50093.0	-98727.0
30	14	48	34	866	166.0	-200265.0	-49505.0	-218469.0
30	14	48	34	867	167.0	-200199.0	-50668.0	-149256.0
30	14	48	34	867	168.0	-200048.0	-52215.0	-101259.0
30	14	48	34	868	169.0	-200114.0	-52154.0	-85162.0
30	14	48	34	868	170.0	-200206.0	-51422.0	-84931.0
30	14	48	34	869	171.0	-200280.0	-50714.0	-96241.0
30	14	48	34	900	172.0	-200083.0	-50576.0	-118796.0
30	14	48	34	901	173.0	-199979.0	-52381.0	-170928.0
30	14	48	34	902	174.0	-199939.0	-51802.0	-230083.0
30	14	48	34	903	175.0	-200032.0	-51376.0	-246164.0
30	14	48	34	903	176.0	-199981.0	-51939.0	-210146.0
30	14	48	34	904	177.0	-199816.0	-53423.0	-140474.0
30	14	48	34	905	178.0	-199856.0	-54461.0	-94329.0
30	14	48	34	905	179.0	-200022.0	-54569.0	-80135.0
30	14	48	34	906	180.0	-200031.0	-54220.0	-81579.0
30	14	48	34	907	181.0	-200021.0	-53741.0	-93089.0
30	14	48	34	908	182.0	-200049.0	-53042.0	-116576.0
30	14	48	34	908	183.0	-200091.0	-51117.0	-172416.0
30	14	48	34	909	184.0	-200022.0	-48834.0	-232282.0
30	14	48	34	909	185.0	-200065.0	-48251.0	-248646.0
30	14	48	34	910	186.0	-200216.0	-48766.0	-211333.0
30	14	48	34	920	188.0	-200139.0	-51157.0	-95966.0
30	14	48	34	921	189.0	-200002.0	-51519.0	-83325.0
30	14	48	34	921	190.0	-199966.0	-50987.0	-85383.0
30	14	48	34	922	191.0	-200028.0	-50801.0	-99872.0
30	14	48	34	923	192.0	-199857.0	-52638.0	-126534.0
30	14	48	34	923	193.0	-199784.0	-51676.0	-182855.0
30	14	48	34	924	194.0	-199875.0	-49591.0	-240024.0
30	14	48	34	945	195.0	-199878.0	-48947.0	-252357.0
30	14	48	34	946	196.0	-199866.0	-49924.0	-211039.0
30	14	48	34	946	197.0	-199883.0	-51493.0	-140421.0
30	14	48	34	947	198.0	-199936.0	-52403.0	-97650.0
30	14	48	34	948	199.0	-199984.0	-52688.0	-85003.0
30	14	48	34	949	200.0	-199907.0	-52507.0	-86361.0
30	14	48	34	949	201.0	-199794.0	-51484.0	-99004.0
30	14	48	34	950	202.0	-199930.0	-50384.0	-124731.0
30	14	48	34	951	203.0	-200097.0	-49483.0	-182057.0
30	14	48	34	951	204.0	-200013.0	-49207.0	-239042.0
30	14	48	34	952	205.0	-199919.0	-49160.0	-250939.0
30	14	48	34	952	206.0	-200054.0	-49862.0	-210267.0
30	14	48	34	953	207.0	-200042.0	-51478.0	-141516.0
30	14	48	34	954	208.0	-199835.0	-52960.0	-99698.0
30	14	48	34	954	209.0	-199962.0	-53591.0	-88491.0
30	14	48	34	955	211.0	-200009.0	-52420.0	-104038.0
30	14	48	34	956	212.0	-199816.0	-51914.0	-130274.0
30	14	48	34	956	213.0	-199723.0	-50640.0	-189458.0
30	14	48	34	957	214.0	-199819.0	-49919.0	-244949.0
30	14	48	34	957	215.0	-199736.0	-50801.0	-254616.0
30	14	48	34	958	216.0	-199638.0	-51449.0	-211141.0
30	14	48	34	990	217.0	-199562.0	-52692.0	-142144.0
30	14	48	34	991	218.0	-199679.0	-53219.0	-102128.0
30	14	48	34	992	219.0	-199702.0	-53334.0	-90101.0
30	14	48	34	992	220.0	-199695.0	-53420.0	-92380.0
30	14	48	34	993	221.0	-199722.0	-53152.0	-107264.0
30	14	48	34	994	222.0	-199844.0	-52411.0	-134641.0
30	14	48	34	994	223.0	-199774.0	-50992.0	-193893.0
30	14	48	34	995	224.0	-199776.0	-49634.0	-247701.0
30	14	48	34	996	225.0	-199906.0	-49259.0	-254966.0
30	14	48	34	997	226.0	-199880.0	-50110.0	-208379.0
30	14	48	34	997	227.0	-199856.0	-51846.0	-137792.0
30	14	48	34	998	228.0	-200027.0	-52817.0	-95518.0
30	14	48	34	999	229.0	-200181.0	-53047.0	-83062.0
30	14	48	35	0	230.0	-200176.0	-53394.0	-86456.0
30	14	48	35	1	231.0	-200171.0	-53211.0	-101439.0
30	14	48	35	1	233.0	-200554.0	-50259.0	-189614.0
30	14	48	35	2	234.0	-200518.0	-48683.0	-241176.0
30	14	48	35	3	235.0	-200512.0	-48011.0	-247717.0
30	14	48	35	3	236.0	-200709.0	-48754.0	-199211.0
30	14	48	35	4	237.0	-200751.0	-50237.0	-130439.0
30	14	48	35	5	238.0	-200631.0	-51272.0	-93154.0
30	14	48	35	5	239.0	-200538.0	-51400.0	-84022.0
30	14	48	35	36	240.0	-200526.0	-50602.0	-88220.0
30	14	48	35	37	241.0	-200346.0	-49921.0	-102781.0
30	14	48	35	37	242.0	-200231.0	-49240.0	-132854.0
30	14	48	35	38	243.0	-200305.0	-47938.0	-194717.0
30	14	48	35	39	244.0	-200447.0	-47174.0	-245901.0
30	14	48	35	40	245.0	-200337.0	-47617.0	-250007.0
30	14	48	35	40	246.0	-200257.0	-49089.0	-199242.0
30	14	48	35	41	247.0	-200222.0	-51202.0	-129849.0
30	14	48	35	41	248.0	-200257.0	-52715.0	-92890.0
30	14	48	35	42	249.0	-200196.0	-53612.0	-83756.0
30	14	48	35	43	250.0	-200214.0	-53783.0	-87388.0
30	14	48	35	44	251.0	-200295.0	-53544.0	-102309.0
30	14	48	35	44	252.0	-200261.0	-52866.0	-133159.0
30	14	48	35	45	253.0	-200025.0	-51275.0	-196160.0
30	14	48	35	45	254.0	-199995.0	-50037.0	-246119.0
30	14	48	35	46	0.0	-200038.0	-50536.0	-196174.0
30	14	48	35	47	1.0	-199942.0	-52339.0	-126831.0
30	14	48	35	47	2.0	-199839.0	-53605.0	-92118.0
30	14	48	35	48	3.0	-199909.0	-53802.0	-83437.0
30	14	48	35	48	4.0	-199960.0	-53592.0	-87576.0
30	14	48	35	49	5.0	-199881.0	-53138.0	-105282.0
30	14	48	35	80	6.0	-199881.0	-52354.0	-138153.0
30	14	48	35	81	7.0	-199949.0	-50491.0	-201409.0
30	14	48	35	81	8.0	-199958.0	-49304.0	-249300.0
30	14	48	35	82	9.0	-200036.0	-49657.0	-248949.0
30	14	48	35	83	10.0	-200187.0	-50739.0	-197263.0
30	14	48	35	84	11.0	-200393.0	-52305.0	-130384.0
30	14	48	35	84	12.0	-200350.0	-53261.0	-95242.0
30	14	48	35	85	13.0	-200416.0	-53727.0	-87759.0
30	14	48	35	86	14.0	-200571.0	-53963.0	-93080.0
30	14	48	35	86	15.0	-200652.0	-53850.0	-109356.0
30	14	48	35	87	16.0	-200450.0	-53576.0	-140982.0
30	14	48	35	88	17.0	-200266.0	-52101.0	-203677.0
30	14	48	35	88	18.0	-200347.0	-50882.0	-249911.0
30	14	48	35	89	19.0	-200541.0	-51202.0	-246498.0
30	14	48	35	90	20.0	-200493.0	-52319.0	-190902.0
30	14	48	35	91	22.0	-200448.0	-54332.0	-91978.0
30	14	48	35	91	23.0	-200599.0	-54262.0	-85159.0
30	14	48	35	92	24.0	-200523.0	-52797.0	-90832.0
30	14	48	35	93	25.0	-200389.0	-52550.0	-108524.0
30	14	48	35	93	26.0	-200464.0	-52031.0	-143958.0
30	14	48	35	94	27.0	-200499.0	-50756.0	-209094.0
30	14	48	35	95	28.0	-200298.0	-49956.0	-254093.0
30	14	48	35	126	29.0	-200261.0	-50252.0	-250464.0
30	14	48	35	127	30.0	-200429.0	-51961.0	-192349.0
30	14	48	35	128	31.0	-200342.0	-53906.0	-124477.0
30	14	48	35	128	32.0	-200192.0	-54301.0	-92515.0
30	14	48	35	129	33.0	-200223.0	-55121.0	-88100.0
30	14	48	35	129	34.0	-200249.0	-55596.0	-96156.0
30	14	48	35	171	35.0	-200322.0	-55632.0	-113826.0
30	14	48	35	172	36.0	-200176.0	-54626.0	-149314.0
30	14	48	35	173	37.0	-200059.0	-52796.0	-213909.0
30	14	48	35	173	38.0	-200138.0	-51503.0	-257366.0
30	14	48	35	175	39.0	-200268.0	-51754.0	-250393.0
30	14	48	35	175	40.0	-200203.0	-53385.0	-191171.0
30	14	48	35	176	41.0	-200062.0	-55437.0	-125813.0
30	14	48	35	177	42.0	-200096.0	-56386.0	-96116.0
30	14	48	35	177	43.0	-200272.0	-56860.0	-90331.0
30	14	48	35	178	45.0	-200247.0	-56523.0	-115997.0
30	14	48	35	179	46.0	-200238.0	-55872.0	-153996.0
30	14	48	35	180	47.0	-200309.0	-54514.0	-219405.0
30	14	48	35	180	48.0	-200404.0	-53495.0	-261334.0
30	14	48	35	181	49.0	-200257.0	-53342.0	-251372.0
30	14	48	35	182	50.0	-200159.0	-54555.0	-189445.0
30	14	48	35	182	51.0	-200222.0	-56241.0	-123423.0
30	14	48	35	183	68.0	-199766.0	-59541.0	-258477.0
30	14	48	35	184	69.0	-199752.0	-59697.0	-247308.0
30	14	48	35	184	70.0	-199842.0	-61669.0	-184858.0
30	14	48	35	185	71.0	-199878.0	-63662.0	-124960.0
30	14	48	35	185	72.0	-199866.0	-64308.0	-100044.0
30	14	48	35	186	73.0	-199883.0	-64795.0	-95366.0
30	14	48	35	215	74.0	-200124.0	-64738.0	-103582.0
30	14	48	35	216	75.0	-200141.0	-63981.0	-123649.0
30	14	48	35	260	76.0	-199977.0	-63295.0	-165124.0
30	14	48	35	261	77.0	-199922.0	-61965.0	-231833.0
30	14	48	35	262	78.0	-200042.0	-61022.0	-267329.0
30	14	48	35	262	79.0	-200246.0	-61391.0	-250897.0
30	14	48	35	263	80.0	-200172.0	-63149.0	-185315.0
30	14	48	35	264	81.0	-200099.0	-65132.0	-123816.0
30	14	48	35	264	82.0	-200067.0	-66309.0	-99674.0
30	14	48	35	265	83.0	-200145.0	-66437.0	-98043.0
30	14	48	35	266	84.0	-200313.0	-65552.0	-107300.0
30	14	48	35	267	85.0	-200269.0	-65074.0	-126471.0
30	14	48	35	267	86.0	-200325.0	-64222.0	-169266.0
30	14	48	35	268	87.0	-200412.0	-62150.0	-238448.0
30	14	48	35	269	88.0	-200506.0	-59941.0	-273097.0
30	14	48	35	269	90.0	-200280.0	-63456.0	-190069.0
30	14	48	35	270	91.0	-200278.0	-65056.0	-128657.0
30	14	48	35	271	92.0	-200418.0	-65339.0	-104521.0
30	14	48	35	271	112.0	-200366.0	-70679.0	-97629.0
30	14	48	35	272	113.0	-200333.0	-71136.0	-94556.0
30	14	48	35	273	114.0	-200384.0	-71267.0	-103167.0
30	14	48	35	273	115.0	-200444.0	-71606.0	-123314.0
30	14	48	35	274	116.0	-200406.0	-71066.0	-169259.0
30	14	48	35	274	117.0	-200231.0	-68332.0	-238209.0
30	14	48	35	275	118.0	-200080.0	-65074.0	-269446.0
30	14	48	35	306	119.0	-200109.0	-65471.0	-245620.0
30	14	48	35	307	120.0	-200282.0	-67178.0	-173947.0
30	14	48	35	308	121.0	-200279.0	-68611.0	-116008.0
30	14	48	35	309	122.0	-200124.0	-69222.0	-96134.0
30	14	48	35	309	123.0	-200277.0	-69696.0	-95431.0
30	14	48	35	310	124.0	-200329.0	-69969.0	-105371.0
30	14	48	35	311	125.0	-200324.0	-70206.0	-124901.0
30	14	48	35	312	126.0	-200346.0	-69761.0	-172019.0
30	14	48	35	312	127.0	-200392.0	-68544.0	-238751.0
30	14	48	35	313	128.0	-200421.0	-67709.0	-266119.0
30	14	48	35	314	129.0	-200471.0	-67616.0	-240626.0
30	14	48	35	314	130.0	-200495.0	-69849.0	-170347.0
30	14	48	35	315	131.0	-200397.0	-71991.0	-113497.0
30	14	48	35	316	132.0	-200338.0	-72731.0	-94013.0
30	14	48	35	316	133.0	-200397.0	-72553.0	-92976.0
30	14	48	35	317	134.0	-200267.0	-72054.0	-102199.0
30	14	48	35	318	135.0	-200259.0	-71304.0	-124151.0
30	14	48	35	318	136.0	-200150.0	-70643.0	-173795.0
30	14	48	35	319	137.0	-200034.0	-69563.0	-241159.0
30	14	48	35	319	138.0	-200012.0	-69338.0	-268376.0
30	14	48	35	320	139.0	-200073.0	-70320.0	-240371.0
30	14	48	35	320	140.0	-199953.0	-72407.0	-170148.0
30	14	48	35	350	141.0	-199904.0	-74467.0	-115712.0
30	14	48	35	351	142.0	-199952.0	-75580.0	-95746.0
30	14	48	35	352	143.0	-200124.0	-76369.0	-93502.0
30	14	48	35	353	144.0	-200067.0	-76683.0	-104899.0
30	14	48	35	354	145.0	-200001.0	-76682.0	-127186.0
30	14	48	35	354	146.0	-200014.0	-75866.0	-177588.0
30	14	48	35	355	147.0	-200082.0	-73514.0	-243379.0
30	14	48	35	356	148.0	-200099.0	-71671.0	-267654.0
30	14	48	35	356	149.0	-200059.0	-72394.0	-235161.0
30	14	48	35	357	150.0	-200038.0	-73691.0	-161675.0
30	14	48	35	358	151.0	-200078.0	-74080.0	-107611.0
30	14	48	35	358	152.0	-200072.0	-73746.0	-88635.0
30	14	48	35	359	153.0	-199976.0	-72899.0	-88499.0
30	14	48	35	360	154.0	-199906.0	-71708.0	-101096.0
30	14	48	35	360	155.0	-199737.0	-70051.0	-125159.0
30	14	48	35	361	157.0	-199875.0	-66835.0	-242298.0
30	14	48	35	362	158.0	-199838.0	-66361.0	-264539.0
30	14	48	35	362	159.0	-200007.0	-67285.0	-231682.0
30	14	48	35	363	160.0	-199981.0	-68334.0	-158847.0
30	14	48	35	363	161.0	-199876.0	-69051.0	-105868.0
30	14	48	35	364	162.0	-199817.0	-69388.0	-88238.0
30	14	48	35	395	163.0	-199748.0	-69402.0	-88451.0
30	14	48	35	396	164.0	-199747.0	-69644.0	-98974.0
30	14	48	35	397	165.0	-199733.0	-69829.0	-121112.0
30	14	48	35	397	166.0	-199706.0	-69278.0	-173841.0
30	14	48	35	398	167.0	-199658.0	-68171.0	-237059.0
30	14	48	35	399	168.0	-199666.0	-68180.0	-257707.0
30	14	48	35	400	169.0	-199685.0	-69804.0	-222139.0
30	14	48	35	400	170.0	-199690.0	-72046.0	-149506.0
30	14	48	35	401	171.0	-199804.0	-73747.0	-98362.0
30	14	48	35	402	172.0	-199812.0	-74359.0	-83389.0
30	14	48	35	402	173.0	-199837.0	-74237.0	-85335.0
30	14	48	35	403	174.0	-199783.0	-74194.0	-98208.0
30	14	48	35	404	175.0	-199667.0	-74200.0	-122040.0
30	14	48	35	404	176.0	-199596.0	-73161.0	-176680.0
30	14	48	35	405	177.0	-199608.0	-71372.0	-240398.0
30	14	48	35	406	179.0	-199863.0	-72389.0	-222566.0
30	14	48	35	407	180.0	-199895.0	-74481.0	-148639.0
30	14	48	35	407	181.0	-199879.0	-76275.0	-99634.0
30	14	48	35	408	182.0	-199911.0	-77494.0	-84782.0
30	14	48	35	409	183.0	-199961.0	-78248.0	-85932.0
30	14	48	35	409	184.0	-199904.0	-78489.0	-97334.0
30	14	48	35	410	185.0	-199941.0	-77874.0	-121204.0
30	14	48	35	440	186.0	-199910.0	-76594.0	-177228.0
30	14	48	35	440	187.0	-200024.0	-75472.0	-241010.0
30	14	48	35	441	188.0	-200093.0	-75361.0	-258549.0
30	14	48	35	442	189.0	-200261.0	-75976.0	-218581.0
30	14	48	35	443	190.0	-200256.0	-77759.0	-143743.0
30	14	48	35	443	191.0	-200184.0	-78882.0	-94736.0
30	14	48	35	444	192.0	-200268.0	-78934.0	-78724.0
30	14	48	35	445	193.0	-200322.0	-78121.0	-81850.0
30	14	48	35	445	194.0	-200343.0	-77473.0	-98393.0
30	14	48	35	446	195.0	-200374.0	-77551.0	-126246.0
30	14	48	35	446	196.0	-200417.0	-76514.0	-184394.0
30	14	48	35	447	197.0	-200450.0	-74998.0	-245500.0
30	14	48	35	448	198.0	-200410.0	-75120.0	-259651.0
30	14	48	35	448	199.0	-200765.0	-76701.0	-217369.0
30	14	48	35	449	200.0	-201448.0	-78997.0	-143830.0
30	14	48	35	449	202.0	-200801.0	-81129.0	-85379.0
30	14	48	35	450	203.0	-200519.0	-80963.0	-87189.0
30	14	48	35	450	204.0	-199899.0	-80256.0	-102026.0
30	14	48	35	451	205.0	-199214.0	-79311.0	-129746.0
30	14	48	35	452	206.0	-199144.0	-77369.0	-190416.0
30	14	48	35	452	207.0	-199194.0	-75341.0	-252994.0
30	14	48	35	485	208.0	-199619.0	-74559.0	-268728.0
30	14	48	35	485	209.0	-200015.0	-74982.0	-224784.0
30	14	48	35	486	210.0	-200452.0	-76871.0	-149474.0
30	14	48	35	487	211.0	-200815.0	-78416.0	-102917.0
30	14	48	35	487	212.0	-200981.0	-78456.0	-89727.0
30	14	48	35	488	213.0	-200973.0	-77799.0	-92024.0
30	14	48	35	488	214.0	-200770.0	-77471.0	-105881.0
30	14	48	35	489	215.0	-200661.0	-76066.0	-133814.0
30	14	48	35	490	216.0	-200558.0	-72440.0	-195113.0
30	14	48	35	490	217.0	-200476.0	-69663.0	-254167.0
30	14	48	35	491	218.0	-200374.0	-69181.0	-265216.0
30	14	48	35	491	219.0	-200381.0	-70324.0	-219698.0
30	14	48	35	492	220.0	-200387.0	-72078.0	-145700.0
30	14	48	35	493	221.0	-200282.0	-72857.0	-101161.0
30	14	48	35	493	222.0	-200270.0	-72971.0	-88045.0
30	14	48	35	494	224.0	-200416.0	-72057.0	-102961.0
30	14	48	35	494	225.0	-200400.0	-70807.0	-130444.0
30	14	48	35	495	226.0	-200328.0	-69044.0	-192958.0
30	14	48	35	495	227.0	-200442.0	-66559.0	-251212.0
30	14	48	35	496	228.0	-200546.0	-63205.0	-260404.0
30	14	48	35	497	229.0	-200467.0	-64082.0	-212286.0
30	14	48	35	497	230.0	-200439.0	-66167.0	-139006.0
30	14	48	35	530	231.0	-200333.0	-67252.0	-97081.0
30	14	48	35	531	232.0	-200347.0	-67400.0	-86081.0
30	14	48	35	531	233.0	-200426.0	-67638.0	-89536.0
30	14	48	35	532	234.0	-200477.0	-67756.0	-104257.0
30	14	48	35	533	235.0	-200460.0	-67112.0	-133760.0
30	14	48	35	533	236.0	-200489.0	-65432.0	-195497.0
30	14	48	35	534	237.0	-200516.0	-64330.0	-251097.0
30	14	48	35	534	238.0	-200446.0	-64731.0	-256735.0
30	14	48	35	535	239.0	-200462.0	-65071.0	-205556.0
30	14	48	35	536	240.0	-200502.0	-66698.0	-132237.0
30	14	48	35	536	241.0	-200494.0	-67751.0	-92061.0
30	14	48	35	537	242.0	-200461.0	-68062.0	-82232.0
30	14	48	35	537	243.0	-200440.0	-67834.0	-86474.0
30	14	48	35	538	244.0	-200458.0	-67217.0	-102444.0
30	14	48	35	539	245.0	-200376.0	-66421.0	-133864.0
30	14	48	35	539	247.0	-200219.0	-63182.0	-255471.0
30	14	48	35	540	248.0	-200221.0	-63274.0	-261882.0
30	14	48	35	540	249.0	-200063.0	-64584.0	-209549.0
30	14	48	35	541	250.0	-200059.0	-66684.0	-136452.0
30	14	48	35	541	251.0	-200067.0	-67919.0	-96949.0
30	14	48	35	542	252.0	-200166.0	-68237.0	-87474.0
30	14	48	35	575	253.0	-200186.0	-68644.0	-92113.0
30	14	48	35	576	254.0	-200235.0	-68706.0	-108672.0
30	14	48	35	576	255.0	-200276.0	-67790.0	-140823.0
30	14	48	35	577	0.0	-200333.0	-66065.0	-207556.0
30	14	48	35	577	1.0	-200458.0	-64527.0	-262176.0
30	14	48	35	578	2.0	-200450.0	-64342.0	-263690.0
30	14	48	35	579	3.0	-200527.0	-65767.0	-207653.0
30	14	48	35	579	4.0	-200567.0	-67752.0	-134736.0
30	14	48	35	580	5.0	-200675.0	-68686.0	-96867.0
30	14	48	35	580	6.0	-200714.0	-68338.0	-86263.0
30	14	48	35	581	7.0	-200692.0	-67874.0	-89800.0
30	14	48	35	582	8.0	-200636.0	-67352.0	-107032.0
30	14	48	35	582	9.0	-200732.0	-66498.0	-141239.0
30	14	48	35	583	10.0	-201203.0	-64818.0	-208235.0
30	14	48	35	583	11.0	-201485.0	-63310.0	-260161.0
30	14	48	35	584	13.0	-200647.0	-64439.0	-205264.0
30	14	48	35	585	14.0	-200293.0	-66524.0	-132282.0
30	14	48	35	585	15.0	-199973.0	-67287.0	-93835.0
30	14	48	35	586	16.0	-199881.0	-67227.0	-83661.0
30	14	48	35	586	17.0	-199914.0	-67290.0	-87598.0
30	14	48	35	587	18.0	-200212.0	-67055.0	-103665.0
30	14	48	35	588	19.0	-200488.0	-66290.0	-136945.0
30	14	48	35	620	20.0	-200723.0	-64737.0	-203353.0
30	14	48	35	621	21.0	-200824.0	-63696.0	-255549.0
30	14	48	35	621	22.0	-200887.0	-64010.0	-255958.0
30	14	48	35	622	23.0	-200826.0	-65220.0	-197164.0
30	14	48	35	622	24.0	-200567.0	-65223.0	-124941.0
30	14	48	35	623	25.0	-200276.0	-65284.0	-89689.0
30	14	48	35	624	26.0	-200126.0	-64763.0	-81757.0
30	14	48	35	624	27.0	-200214.0	-64056.0	-88884.0
30	14	48	35	625	28.0	-200336.0	-63366.0	-107366.0
30	14	48	35	625	29.0	-200338.0	-62318.0	-142932.0
30	14	48	35	626	30.0	-200277.0	-61022.0	-210907.0
30	14	48	35	627	31.0	-200194.0	-59909.0	-259642.0
30	14	48	35	627	32.0	-200212.0	-60119.0	-254796.0
30	14	48	35	628	33.0	-200126.0	-61486.0	-193769.0
30	14	48	35	628	34.0	-200198.0	-63496.0	-122998.0
30	14	48	35	629	36.0	-200173.0	-65087.0	-83974.0
30	14	48	35	630	37.0	-200204.0	-64739.0	-90057.0
30	14	48	35	630	38.0	-200237.0	-64536.0	-108297.0
30	14	48	35	631	39.0	-200155.0	-64366.0	-145835.0
30	14	48	35	631	40.0	-200290.0	-62391.0	-215562.0
30	14	48	35	632	41.0	-200256.0	-60654.0	-264351.0
30	14	48	35	665	42.0	-200143.0	-60212.0	-259312.0
30	14	48	35	665	43.0	-200188.0	-61337.0	-196091.0
30	14	48	35	666	44.0	-200347.0	-63108.0	-125474.0
30	14	48	35	667	45.0	-200356.0	-63881.0	-93712.0
30	14	48	35	667	46.0	-200273.0	-63711.0	-87974.0
30	14	48	35	668	47.0	-200169.0	-62347.0	-94399.0
30	14	48	35	669	48.0	-200234.0	-59728.0	-111408.0
30	14	48	35	670	49.0	-200191.0	-57889.0	-147151.0
30	14	48	35	671	50.0	-200104.0	-55767.0	-215563.0
30	14	48	35	671	51.0	-200111.0	-54734.0	-259632.0
30	14	48	35	672	52.0	-200048.0	-55459.0	-252677.0
30	14	48	35	672	53.0	-200119.0	-57037.0	-190551.0
30	14	48	35	673	54.0	-200116.0	-58821.0	-121266.0
30	14	48	35	673	55.0	-200076.0	-59712.0	-90664.0
30	14	48	35	674	56.0	-200192.0	-59724.0	-85723.0
30	14	48	35	675	58.0	-200172.0	-59354.0	-111266.0
30	14	48	35	676	59.0	-200063.0	-58415.0	-149742.0
30	14	48	35	677	60.0	-199917.0	-56757.0	-219163.0
30	14	48	35	677	61.0	-199944.0	-55730.0	-263146.0
30	14	48	35	678	62.0	-199981.0	-56231.0	-252037.0
30	14	48	35	679	63.0	-199976.0	-58493.0	-187742.0
30	14	48	35	711	64.0	-200036.0	-60611.0	-119917.0
30	14	48	35	712	65.0	-200062.0	-61221.0	-91121.0
30	14	48	35	712	66.0	-200127.0	-62825.0	-85001.0
30	14	48	35	713	67.0	-200104.0	-63152.0	-91322.0
30	14	48	35	713	68.0	-200096.0	-62124.0	-111274.0
30	14	48	35	714	69.0	-200212.0	-60674.0	-151993.0
30	14	48	35	715	70.0	-200222.0	-58656.0	-223169.0
30	14	48	35	716	71.0	-200364.0	-57579.0	-265239.0
30	14	48	35	716	72.0	-200439.0	-57764.0	-253187.0
30	14	48	35	717	73.0	-200562.0	-59264.0	-186630.0
30	14	48	35	718	74.0	-200642.0	-60801.0	-118826.0
30	14	48	35	719	75.0	-200694.0	-60947.0	-89047.0
30	14	48	35	719	76.0	-200820.0	-58374.0	-83271.0
30	14	48	35	720	77.0	-200717.0	-57855.0	-90581.0
30	14	48	35	721	78.0	-200783.0	-58146.0	-110481.0
30	14	48	35	721	81.0	-200812.0	-55749.0	-265267.0
30	14	48	35	722	82.0	-200761.0	-56420.0	-250574.0
30	14	48	35	722	83.0	-200768.0	-58527.0	-182516.0
30	14	48	35	723	84.0	-200646.0	-60646.0	-117912.0
30	14	48	35	723	85.0	-200577.0	-62030.0	-90031.0
30	14	48	35	724	86.0	-200507.0	-62237.0	-84488.0
30	14	48	35	756	87.0	-200517.0	-61725.0	-92224.0
30	14	48	35	757	88.0	-200540.0	-61317.0	-110641.0
30	14	48	35	757	89.0	-200534.0	-60446.0	-152946.0
30	14	48	35	758	90.0	-200465.0	-58411.0	-223797.0
30	14	48	35	759	91.0	-200411.0	-57079.0	-262994.0
30	14	48	35	759	92.0	-200294.0	-57347.0	-245965.0
30	14	48	35	760	93.0	-200332.0	-59285.0	-176448.0
30	14	48	35	760	94.0	-200382.0	-61357.0	-112184.0
30	14	48	35	761	95.0	-200498.0	-62405.0	-87232.0
30	14	48	35	761	96.0	-200536.0	-63043.0	-84419.0
30	14	48	35	802	97.0	-200517.0	-62607.0	-93567.0
30	14	48	35	892	98.0	-200304.0	-61999.0	-114440.0
30	14	48	35	893	99.0	-200176.0	-60942.0	-158351.0
30	14	48	35	893	100.0	-200091.0	-58186.0	-230604.0
30	14	48	35	895	103.0	-200035.0	-58473.0	-178962.0
30	14	48	35	895	104.0	-199921.0	-59987.0	-116113.0
30	14	48	35	896	105.0	-199781.0	-60431.0	-90947.0
30	14	48	35	897	106.0	-199692.0	-60256.0	-86574.0
30	14	48	35	913	107.0	-199560.0	-59775.0	-95847.0
30	14	48	35	914	108.0	-199549.0	-58701.0	-116538.0
30	14	48	35	915	109.0	-199658.0	-56277.0	-162824.0
30	14	48	35	915	110.0	-199654.0	-52479.0	-233049.0
30	14	48	35	916	111.0	-199533.0	-52261.0	-267825.0
30	14	48	35	917	112.0	-199472.0	-53531.0	-245317.0
30	14	48	35	917	113.0	-199507.0	-55779.0	-172999.0
30	14	48	35	918	125.0	-199881.0	-57754.0	-85383.0
30	14	48	35	918	148.0	-199964.0	-54304.0	-117670.0
30	14	48	35	919	171.0	-200234.0	-51929.0	-271308.0
30	14	48	35	919	172.0	-200218.0	-53063.0	-235282.0
30	14	48	35	920	173.0	-200199.0	-54802.0	-160160.0
30	14	48	35	921	174.0	-200162.0	-55141.0	-108286.0
30	14	48	35	921	175.0	-200035.0	-54417.0	-91177.0
30	14	48	35	922	176.0	-199950.0	-53451.0	-91219.0
30	14	48	35	939	177.0	-199999.0	-53187.0	-103083.0
30	14	48	35	939	178.0	-199931.0	-53071.0	-127574.0
30	14	48	35	980	179.0	-199813.0	-51025.0	-184385.0
30	14	48	35	981	180.0	-199853.0	-46625.0	-251842.0
30	14	48	35	981	181.0	-199891.0	-45412.0	-271823.0
30	14	48	35	982	182.0	-199815.0	-44766.0	-232942.0
30	14	48	35	983	183.0	-199864.0	-46031.0	-155964.0
30	14	48	35	983	184.0	-199851.0	-47817.0	-103067.0
30	14	48	35	984	185.0	-199832.0	-48089.0	-84970.0
30	14	48	35	984	186.0	-199871.0	-48006.0	-85106.0
30	14	48	35	985	187.0	-199839.0	-48310.0	-98244.0
30	14	48	35	986	188.0	-199843.0	-49859.0	-124251.0
30	14	48	35	986	189.0	-199961.0	-49136.0	-181688.0
30	14	48	35	987	190.0	-200065.0	-47434.0	-247399.0
30	14	48	35	988	191.0	-200031.0	-47502.0	-265542.0
30	14	48	35	988	193.0	-200349.0	-50926.0	-150886.0
30	14	48	35	989	194.0	-200325.0	-52396.0	-102426.0
30	14	48	35	990	195.0	-200397.0	-53351.0	-87606.0
30	14	48	35	990	216.0	-200561.0	-49241.0	-78968.0
30	14	48	35	991	217.0	-200603.0	-48542.0	-92206.0
30	14	48	35	992	218.0	-200677.0	-47291.0	-119367.0
30	14	48	35	992	219.0	-200704.0	-44935.0	-179486.0
30	14	48	35	993	220.0	-200833.0	-42626.0	-239373.0
30	14	48	35	993	221.0	-200847.0	-41695.0	-249681.0
30	14	48	36	25	222.0	-200709.0	-42492.0	-204078.0
30	14	48	36	25	223.0	-200742.0	-44196.0	-129927.0
30	14	48	36	26	224.0	-200731.0	-44663.0	-84726.0
30	14	48	36	27	225.0	-200645.0	-44337.0	-71311.0
30	14	48	36	27	226.0	-200684.0	-44846.0	-75279.0
30	14	48	36	28	227.0	-200745.0	-45644.0	-92091.0
30	14	48	36	29	228.0	-200690.0	-46085.0	-121993.0
30	14	48	36	29	229.0	-200708.0	-45519.0	-184150.0
30	14	48	36	30	230.0	-200757.0	-45058.0	-245431.0
30	14	48	36	30	231.0	-200756.0	-44339.0	-258167.0
30	14	48	36	31	232.0	-200677.0	-45276.0	-210063.0
30	14	48	36	32	233.0	-200546.0	-46382.0	-134436.0
30	14	48	36	32	234.0	-200381.0	-45999.0	-91666.0
30	14	48	36	33	235.0	-200250.0	-45056.0	-80314.0
30	14	48	36	33	236.0	-200264.0	-44625.0	-82904.0
30	14	48	36	34	238.0	-200149.0	-44802.0	-125776.0
30	14	48	36	35	239.0	-200023.0	-45037.0	-189391.0
30	14	48	36	35	240.0	-199996.0	-44299.0	-248274.0
30	14	48	36	36	241.0	-200066.0	-44797.0	-256548.0
30	14	48	36	36	242.0	-200033.0	-46712.0	-206299.0
30	14	48	36	37	243.0	-200071.0	-47116.0	-131359.0
30	14	48	36	116	244.0	-200076.0	-47673.0	-90174.0
30	14	48	36	117	245.0	-200059.0	-48839.0	-79724.0
30	14	48	36	118	246.0	-200037.0	-50828.0	-83486.0
30	14	48	36	118	247.0	-200034.0	-51624.0	-99569.0
30	14	48	36	119	248.0	-199919.0	-53466.0	-130905.0
30	14	48	36	120	249.0	-199975.0	-52610.0	-197747.0
30	14	48	36	120	250.0	-200091.0	-50890.0	-257717.0
30	14	48	36	121	251.0	-200054.0	-50744.0	-263447.0
30	14	48	36	121	252.0	-200152.0	-52292.0	-209304.0
30	14	48	36	122	253.0	-200089.0	-54476.0	-134937.0
30	14	48	36	123	254.0	-199982.0	-55816.0	-95139.0
30	14	48	36	123	255.0	-199938.0	-55981.0	-83653.0
30	14	48	36	124	0.0	-199956.0	-55511.0	-87130.0
30	14	48	36	125	1.0	-200039.0	-54912.0	-103737.0
30	14	48	36	125	2.0	-200106.0	-53963.0	-134324.0
30	14	48	36	126	4.0	-200219.0	-49902.0	-257701.0
30	14	48	36	126	27.0	-200089.0	-52539.0	-123826.0
30	14	48	36	127	28.0	-200017.0	-52461.0	-89484.0
30	14	48	36	128	29.0	-199970.0	-52641.0	-82069.0
30	14	48	36	128	30.0	-200062.0	-52790.0	-87401.0
30	14	48	36	129	31.0	-200109.0	-52433.0	-103789.0
30	14	48	36	129	32.0	-200099.0	-51314.0	-137201.0
30	14	48	36	176	33.0	-200099.0	-48909.0	-206273.0
30	14	48	36	195	34.0	-200094.0	-46887.0	-257361.0
30	14	48	36	195	35.0	-200056.0	-46812.0	-255483.0
30	14	48	36	196	36.0	-200108.0	-49081.0	-195634.0
30	14	48	36	197	37.0	-200337.0	-51597.0	-123998.0
30	14	48	36	197	38.0	-200318.0	-52159.0	-91544.0
30	14	48	36	198	39.0	-200061.0	-51846.0	-85576.0
30	14	48	36	199	40.0	-199873.0	-51264.0	-90342.0
30	14	48	36	199	41.0	-199870.0	-50236.0	-107216.0
30	14	48	36	200	42.0	-199852.0	-49663.0	-142955.0
30	14	48	36	200	43.0	-199970.0	-48196.0	-213092.0
30	14	48	36	201	44.0	-199996.0	-47860.0	-264299.0
30	14	48	36	202	45.0	-200049.0	-48907.0	-258991.0
30	14	48	36	202	46.0	-200011.0	-50319.0	-194849.0
30	14	48	36	203	47.0	-199887.0	-51829.0	-122711.0
30	14	48	36	203	56.0	-199852.0	-51038.0	-187983.0
30	14	48	36	204	64.0	-199755.0	-51091.0	-260437.0
30	14	48	36	204	65.0	-199807.0	-51250.0	-249765.0
30	14	48	36	205	66.0	-199870.0	-52754.0	-183025.0
30	14	48	36	205	67.0	-199790.0	-54439.0	-114483.0
30	14	48	36	219	68.0	-199806.0	-54920.0	-83530.0
30	14	48	36	220	69.0	-199884.0	-54966.0	-76152.0
30	14	48	36	221	70.0	-199912.0	-54982.0	-81593.0
30	14	48	36	222	71.0	-199923.0	-54782.0	-99537.0
30	14	48	36	222	72.0	-199827.0	-53897.0	-137850.0
30	14	48	36	223	73.0	-199804.0	-51998.0	-209119.0
30	14	48	36	224	74.0	-199817.0	-50988.0	-251554.0
30	14	48	36	224	75.0	-199851.0	-51202.0	-241413.0
30	14	48	36	225	76.0	-199855.0	-52821.0	-174234.0
30	14	48	36	226	77.0	-199786.0	-54054.0	-106151.0
30	14	48	36	226	78.0	-199821.0	-53798.0	-78475.0
30	14	48	36	227	79.0	-199850.0	-53844.0	-74344.0
30	14	48	36	228	80.0	-199977.0	-53613.0	-81519.0
30	14	48	36	228	81.0	-199999.0	-53631.0	-98991.0
30	14	48	36	229	82.0	-200052.0	-53378.0	-139792.0
30	14	48	36	244	83.0	-200134.0	-52107.0	-210896.0
30	14	48	36	244	84.0	-200169.0	-50832.0	-254346.0
30	14	48	36	245	85.0	-200227.0	-50629.0	-241095.0
30	14	48	36	245	86.0	-200311.0	-52304.0	-173860.0
30	14	48	36	267	87.0	-200232.0	-54987.0	-107732.0
30	14	48	36	267	88.0	-200135.0	-55586.0	-80194.0
30	14	48	36	268	89.0	-200138.0	-55119.0	-76635.0
30	14	48	36	269	90.0	-200137.0	-54506.0	-84536.0
30	14	48	36	269	91.0	-200228.0	-53491.0	-104945.0
30	14	48	36	270	92.0	-200334.0	-52462.0	-149180.0
30	14	48	36	270	93.0	-200250.0	-50453.0	-221600.0
30	14	48	36	271	94.0	-200277.0	-49359.0	-262110.0
30	14	48	36	272	95.0	-200324.0	-49666.0	-245141.0
30	14	48	36	272	96.0	-200424.0	-51571.0	-173377.0
30	14	48	36	273	97.0	-200522.0	-53557.0	-106825.0
30	14	48	36	273	98.0	-200429.0	-54434.0	-80174.0
30	14	48	36	274	99.0	-200467.0	-53859.0	-76577.0
30	14	48	36	274	100.0	-200616.0	-52376.0	-85824.0
30	14	48	36	275	101.0	-200649.0	-52452.0	-105338.0
30	14	48	36	276	102.0	-200602.0	-51065.0	-147919.0
30	14	48	36	290	103.0	-200631.0	-47442.0	-219668.0
30	14	48	36	290	104.0	-200689.0	-45198.0	-258006.0
30	14	48	36	291	105.0	-200604.0	-46384.0	-240930.0
30	14	48	36	292	106.0	-200529.0	-48973.0	-169411.0
30	14	48	36	292	107.0	-200413.0	-51141.0	-103804.0
30	14	48	36	293	108.0	-200267.0	-52138.0	-78352.0
30	14	48	36	294	109.0	-200281.0	-52789.0	-74784.0
30	14	48	36	294	110.0	-200448.0	-52845.0	-83973.0
30	14	48	36	295	111.0	-200552.0	-52146.0	-105626.0
30	14	48	36	296	112.0	-200606.0	-51032.0	-151517.0
30	14	48	36	297	113.0	-200779.0	-49597.0	-223388.0
30	14	48	36	297	114.0	-200801.0	-49392.0	-259500.0
30	14	48	36	298	115.0	-200776.0	-50644.0	-238369.0
30	14	48	36	299	116.0	-200631.0	-53216.0	-166982.0
30	14	48	36	299	117.0	-200500.0	-56452.0	-105089.0
30	14	48	36	325	118.0	-200485.0	-56616.0	-81695.0
30	14	48	36	326	119.0	-200403.0	-56765.0	-80037.0
30	14	48	36	327	120.0	-200392.0	-56846.0	-90599.0
30	14	48	36	327	121.0	-200357.0	-57219.0	-112615.0
30	14	48	36	328	122.0	-200376.0	-57748.0	-159385.0
30	14	48	36	329	123.0	-200457.0	-55990.0	-229509.0
30	14	48	36	329	124.0	-200387.0	-55695.0	-262825.0
30	14	48	36	330	125.0	-200361.0	-55386.0	-238748.0
30	14	48	36	331	126.0	-200401.0	-56104.0	-165762.0
30	14	48	36	331	127.0	-200337.0	-57111.0	-104196.0
30	14	48	36	332	128.0	-200222.0	-56987.0	-79864.0
30	14	48	36	333	129.0	-200194.0	-56225.0	-76738.0
30	14	48	36	334	130.0	-200250.0	-55871.0	-86281.0
30	14	48	36	334	131.0	-200209.0	-55681.0	-106349.0
30	14	48	36	335	132.0	-200132.0	-54858.0	-153322.0
30	14	48	36	336	133.0	-200133.0	-53182.0	-223396.0
30	14	48	36	336	134.0	-200071.0	-52507.0	-253984.0
30	14	48	36	337	135.0	-199914.0	-52396.0	-227319.0
30	14	48	36	345	136.0	-199818.0	-54685.0	-152496.0
30	14	48	36	345	137.0	-199809.0	-56778.0	-92288.0
30	14	48	36	346	138.0	-199821.0	-57656.0	-72929.0
30	14	48	36	369	139.0	-199777.0	-57775.0	-72372.0
30	14	48	36	370	140.0	-199662.0	-56194.0	-83460.0
30	14	48	36	371	141.0	-199712.0	-53429.0	-105944.0
30	14	48	36	371	142.0	-199891.0	-53288.0	-154518.0
30	14	48	36	372	143.0	-200036.0	-52536.0	-225701.0
30	14	48	36	373	144.0	-200017.0	-53277.0	-256421.0
30	14	48	36	373	145.0	-199956.0	-55208.0	-227184.0
30	14	48	36	374	146.0	-199929.0	-57729.0	-151495.0
30	14	48	36	375	147.0	-199784.0	-59421.0	-91882.0
30	14	48	36	375	148.0	-199809.0	-60216.0	-70534.0
30	14	48	36	376	149.0	-199804.0	-60516.0	-69501.0
30	14	48	36	377	150.0	-199741.0	-60353.0	-80410.0
30	14	48	36	377	151.0	-199832.0	-59860.0	-103813.0
30	14	48	36	378	152.0	-199854.0	-58461.0	-155993.0
30	14	48	36	379	153.0	-199852.0	-56793.0	-226204.0
30	14	48	36	379	154.0	-199900.0	-56687.0	-255216.0
30	14	48	36	380	155.0	-199956.0	-57634.0	-224558.0
30	14	48	36	380	156.0	-199905.0	-59301.0	-147086.0
30	14	48	36	381	157.0	-199841.0	-60841.0	-89422.0
30	14	48	36	382	158.0	-199816.0	-60892.0	-70879.0
30	14	48	36	392	159.0	-199849.0	-58062.0	-71082.0
30	14	48	36	393	160.0	-199872.0	-55977.0	-82766.0
30	14	48	36	393	161.0	-199699.0	-56283.0	-107016.0
30	14	48	36	416	162.0	-199634.0	-55575.0	-160991.0
30	14	48	36	416	163.0	-199593.0	-54203.0	-231164.0
30	14	48	36	417	164.0	-199540.0	-54158.0	-257955.0
30	14	48	36	418	165.0	-199584.0	-55369.0	-226482.0
30	14	48	36	418	166.0	-199630.0	-57637.0	-150178.0
30	14	48	36	419	167.0	-199686.0	-59226.0	-94687.0
30	14	48	36	420	168.0	-199816.0	-59795.0	-76967.0
30	14	48	36	420	169.0	-199981.0	-59464.0	-77446.0
30	14	48	36	421	170.0	-200022.0	-59312.0	-89773.0
30	14	48	36	421	171.0	-199966.0	-58556.0	-112234.0
30	14	48	36	422	172.0	-199878.0	-57046.0	-166078.0
30	14	48	36	423	173.0	-199894.0	-55377.0	-235422.0
30	14	48	36	423	174.0	-199832.0	-55055.0	-259789.0
30	14	48	36	424	175.0	-199848.0	-56167.0	-224198.0
30	14	48	36	424	176.0	-199967.0	-58062.0	-146996.0
30	14	48	36	425	177.0	-200056.0	-58527.0	-91168.0
30	14	48	36	445	178.0	-200122.0	-57716.0	-71312.0
30	14	48	36	446	179.0	-200191.0	-56240.0	-71069.0
30	14	48	36	446	180.0	-200204.0	-55341.0	-84462.0
30	14	48	36	447	181.0	-200290.0	-54637.0	-109799.0
30	14	48	36	448	182.0	-200423.0	-52645.0	-166373.0
30	14	48	36	448	183.0	-200453.0	-50179.0	-235222.0
30	14	48	36	449	184.0	-200549.0	-49784.0	-255847.0
30	14	48	36	449	185.0	-200744.0	-51157.0	-219500.0
30	14	48	36	450	186.0	-200856.0	-53369.0	-143471.0
30	14	48	36	451	187.0	-200825.0	-51812.0	-92089.0
30	14	48	36	452	188.0	-200865.0	-47633.0	-76252.0
30	14	48	36	452	189.0	-200972.0	-45795.0	-76658.0
30	14	48	36	453	190.0	-201117.0	-44617.0	-88939.0
30	14	48	36	454	191.0	-201199.0	-43776.0	-115038.0
30	14	48	36	454	192.0	-201272.0	-41782.0	-173019.0
30	14	48	36	455	193.0	-201334.0	-40192.0	-240893.0
30	14	48	36	456	194.0	-201474.0	-39827.0	-261618.0
30	14	48	36	456	195.0	-201467.0	-41156.0	-223580.0
30	14	48	36	457	196.0	-201423.0	-44256.0	-146397.0
30	14	48	36	465	197.0	-201412.0	-47802.0	-95302.0
30	14	48	36	466	198.0	-201341.0	-50115.0	-79620.0
30	14	48	36	488	199.0	-201267.0	-50957.0	-81591.0
30	14	48	36	489	200.0	-201217.0	-51544.0	-94328.0
30	14	48	36	490	201.0	-201381.0	-51202.0	-119612.0
30	14	48	36	490	202.0	-201278.0	-49280.0	-178350.0
30	14	48	36	491	203.0	-201077.0	-48378.0	-246272.0
30	14	48	36	492	204.0	-201122.0	-49169.0	-265086.0
30	14	48	36	492	205.0	-201066.0	-50529.0	-224938.0
30	14	48	36	493	206.0	-201057.0	-52232.0	-148232.0
30	14	48	36	493	207.0	-200880.0	-53278.0	-98015.0
30	14	48	36	494	208.0	-200693.0	-53656.0	-82101.0
30	14	48	36	495	209.0	-200500.0	-55723.0	-83442.0
30	14	48	36	495	210.0	-200405.0	-54709.0	-97774.0
30	14	48	36	496	211.0	-200345.0	-53494.0	-123902.0
30	14	48	36	496	212.0	-200314.0	-52268.0	-184962.0
30	14	48	36	497	213.0	-200306.0	-51180.0	-252046.0
30	14	48	36	498	214.0	-200176.0	-51277.0	-268884.0
30	14	48	36	513	215.0	-200082.0	-53025.0	-225663.0
30	14	48	36	514	216.0	-200042.0	-55694.0	-148844.0
30	14	48	36	514	217.0	-199957.0	-57286.0	-100845.0
30	14	48	36	515	218.0	-199854.0	-57917.0	-87395.0
30	14	48	36	516	219.0	-199776.0	-58039.0	-89013.0
30	14	48	36	516	220.0	-199866.0	-58292.0	-102397.0
30	14	48	36	517	221.0	-199902.0	-58055.0	-128610.0
30	14	48	36	517	222.0	-199780.0	-56517.0	-190904.0
30	14	48	36	536	223.0	-199767.0	-54814.0	-255604.0
30	14	48	36	537	224.0	-199779.0	-54934.0	-269123.0
30	14	48	36	537	225.0	-199799.0	-56762.0	-223026.0
30	14	48	36	538	226.0	-199845.0	-59146.0	-146496.0
30	14	48	36	539	227.0	-199671.0	-61153.0	-98865.0
30	14	48	36	540	228.0	-199636.0	-61975.0	-84292.0
30	14	48	36	540	229.0	-199642.0	-62821.0	-85977.0
30	14	48	36	541	230.0	-199633.0	-62678.0	-100451.0
30	14	48	36	563	231.0	-199711.0	-61793.0	-128810.0
30	14	48	36	564	232.0	-199637.0	-60339.0	-193226.0
30	14	48	36	564	233.0	-199649.0	-58994.0	-256276.0
30	14	48	36	565	234.0	-199691.0	-58181.0	-266829.0
30	14	48	36	565	235.0	-199664.0	-59096.0	-217301.0
30	14	48	36	566	236.0	-199641.0	-60801.0	-139050.0
30	14	48	36	567	237.0	-199661.0	-62359.0	-93777.0
30	14	48	36	567	238.0	-199747.0	-63256.0	-80926.0
30	14	48	36	568	239.0	-199806.0	-63927.0	-82212.0
30	14	48	36	568	240.0	-199712.0	-64107.0	-97076.0
30	14	48	36	569	241.0	-199731.0	-63830.0	-127006.0
30	14	48	36	570	242.0	-199822.0	-62461.0	-191361.0
30	14	48	36	570	243.0	-199808.0	-61221.0	-252607.0
30	14	48	36	571	244.0	-199817.0	-61307.0	-261624.0
30	14	48	36	571	245.0	-199898.0	-62564.0	-209391.0
30	14	48	36	572	246.0	-200011.0	-64305.0	-130920.0
30	14	48	36	572	247.0	-200031.0	-64770.0	-86623.0
30	14	48	36	573	248.0	-200114.0	-64651.0	-73551.0
30	14	48	36	574	249.0	-200075.0	-63930.0	-76247.0
30	14	48	36	574	250.0	-200097.0	-62579.0	-91183.0
30	14	48	36	585	251.0	-200196.0	-61261.0	-121518.0
30	14	48	36	586	252.0	-200184.0	-59587.0	-188069.0
30	14	48	36	586	253.0	-200210.0	-58176.0	-247200.0
30	14	48	36	587	254.0	-200234.0	-58666.0	-253661.0
30	14	48	36	588	255.0	-200288.0	-62669.0	-200856.0
30	14	48	36	588	0.0	-200199.0	-64673.0	-125358.0
30	14	48	36	589	1.0	-200182.0	-65134.0	-84480.0
30	14	48	36	589	2.0	-200244.0	-64818.0	-73051.0
30	14	48	36	590	3.0	-200342.0	-64419.0	-76412.0
30	14	48	36	591	4.0	-200400.0	-63839.0	-91852.0
30	14	48	36	612	5.0	-200322.0	-63121.0	-122082.0
30	14	48	36	613	6.0	-200397.0	-61787.0	-190127.0
30	14	48	36	613	7.0	-200428.0	-60297.0	-250490.0
30	14	48	36	614	8.0	-200364.0	-60471.0	-254924.0
30	14	48	36	615	9.0	-200326.0	-62129.0	-200127.0
30	14	48	36	615	10.0	-200361.0	-66052.0	-125614.0
30	14	48	36	616	11.0	-200449.0	-66912.0	-87656.0
30	14	48	36	616	12.0	-200467.0	-66140.0	-79529.0
30	14	48	36	617	13.0	-200567.0	-65485.0	-82567.0
30	14	48	36	617	14.0	-200502.0	-65002.0	-98243.0
30	14	48	36	618	15.0	-200491.0	-64019.0	-130809.0
30	14	48	36	619	16.0	-200307.0	-61922.0	-198571.0
30	14	48	36	619	17.0	-200326.0	-59977.0	-255149.0
30	14	48	36	620	18.0	-200311.0	-59823.0	-258406.0
30	14	48	36	635	19.0	-200338.0	-61204.0	-200964.0
30	14	48	36	636	20.0	-200338.0	-63033.0	-124213.0
30	14	48	36	636	21.0	-200324.0	-64317.0	-84977.0
30	14	48	36	637	22.0	-200246.0	-64794.0	-75860.0
30	14	48	36	638	23.0	-200149.0	-64872.0	-80694.0
30	14	48	36	638	24.0	-200073.0	-64257.0	-96494.0
30	14	48	36	639	25.0	-200042.0	-62017.0	-130425.0
30	14	48	36	640	26.0	-200002.0	-58982.0	-200636.0
30	14	48	36	640	27.0	-200002.0	-57029.0	-255162.0
30	14	48	36	641	28.0	-200040.0	-57239.0	-254585.0
30	14	48	36	641	29.0	-200144.0	-59241.0	-194453.0
30	14	48	36	662	30.0	-200154.0	-60254.0	-120442.0
30	14	48	36	662	31.0	-200037.0	-60075.0	-84209.0
30	14	48	36	663	32.0	-200024.0	-58781.0	-76253.0
30	14	48	36	685	33.0	-199980.0	-56757.0	-81487.0
30	14	48	36	686	34.0	-199917.0	-55344.0	-98154.0
30	14	48	36	686	35.0	-199841.0	-53602.0	-132202.0
30	14	48	36	687	36.0	-199781.0	-51162.0	-202844.0
30	14	48	36	688	37.0	-199656.0	-49922.0	-257999.0
30	14	48	36	688	38.0	-199667.0	-49071.0	-257721.0
30	14	48	36	689	39.0	-199662.0	-47617.0	-197774.0
30	14	48	36	689	40.0	-199698.0	-48746.0	-123029.0
30	14	48	36	690	41.0	-199720.0	-49846.0	-85542.0
30	14	48	36	690	42.0	-199799.0	-50015.0	-77462.0
30	14	48	36	691	43.0	-199908.0	-50702.0	-83417.0
30	14	48	36	692	44.0	-199902.0	-51314.0	-100229.0
30	14	48	36	692	45.0	-199857.0	-51182.0	-134941.0
30	14	48	36	693	46.0	-199896.0	-49307.0	-202619.0
30	14	48	36	693	47.0	-199900.0	-47662.0	-250876.0
30	14	48	36	694	48.0	-199831.0	-48264.0	-246640.0
30	14	48	36	695	49.0	-199884.0	-50830.0	-184000.0
30	14	48	36	695	50.0	-199846.0	-53831.0	-110730.0
30	14	48	36	696	51.0	-199995.0	-55015.0	-75641.0
30	14	48	36	696	52.0	-200159.0	-54835.0	-67504.0
30	14	48	36	697	53.0	-200191.0	-55017.0	-73102.0
30	14	48	36	698	54.0	-200181.0	-55124.0	-91362.0
30	14	48	36	699	55.0	-200158.0	-54829.0	-128270.0
30	14	48	36	722	56.0	-200217.0	-53639.0	-199186.0
30	14	48	36	723	57.0	-200229.0	-53097.0	-249363.0
30	14	48	36	723	58.0	-200291.0	-53899.0	-242615.0
30	14	48	36	724	59.0	-200514.0	-55352.0	-177330.0
30	14	48	36	725	60.0	-200657.0	-57002.0	-106340.0
30	14	48	36	725	61.0	-200566.0	-58322.0	-73307.0
30	14	48	36	726	62.0	-200537.0	-57449.0	-66528.0
30	14	48	36	726	63.0	-200440.0	-55700.0	-72376.0
30	14	48	36	727	64.0	-200366.0	-56208.0	-90104.0
30	14	48	36	727	65.0	-200336.0	-55626.0	-127567.0
30	14	48	36	728	66.0	-200209.0	-53246.0	-199373.0
30	14	48	36	729	67.0	-200133.0	-51893.0	-245991.0
30	14	48	36	729	68.0	-200146.0	-52281.0	-236402.0
30	14	48	36	730	69.0	-200077.0	-54104.0	-171056.0
30	14	48	36	730	70.0	-200069.0	-54892.0	-102537.0
30	14	48	36	731	71.0	-200091.0	-53630.0	-70716.0
30	14	48	36	732	72.0	-200169.0	-54117.0	-64355.0
30	14	48	36	732	73.0	-200152.0	-54368.0	-71591.0
30	14	48	36	733	74.0	-199945.0	-53190.0	-91271.0
30	14	48	36	733	75.0	-199921.0	-51750.0	-130926.0
30	14	48	36	734	76.0	-200149.0	-51478.0	-203517.0
30	14	48	36	735	77.0	-200194.0	-51204.0	-250658.0
30	14	48	36	735	78.0	-200109.0	-51356.0	-241068.0
30	14	48	36	736	79.0	-200067.0	-53417.0	-174126.0
30	14	48	36	744	80.0	-200025.0	-55879.0	-105978.0
30	14	48	36	745	81.0	-200137.0	-56942.0	-77680.0
30	14	48	36	746	82.0	-200101.0	-57317.0	-73304.0
30	14	48	36	746	83.0	-200090.0	-59261.0	-80926.0
30	14	48	36	747	84.0	-200049.0	-59974.0	-101232.0
30	14	48	36	747	85.0	-200044.0	-58341.0	-143370.0
30	14	48	36	776	86.0	-199991.0	-55823.0	-217251.0
30	14	48	36	777	87.0	-199921.0	-54612.0	-262551.0
30	14	48	36	777	88.0	-199916.0	-55717.0	-248797.0
30	14	48	36	778	89.0	-199885.0	-57987.0	-178023.0
30	14	48	36	779	90.0	-199901.0	-60057.0	-108806.0
30	14	48	36	779	91.0	-199891.0	-60689.0	-80955.0
30	14	48	36	780	92.0	-199872.0	-60972.0	-76467.0
30	14	48	36	780	93.0	-199846.0	-60852.0	-83628.0
30	14	48	36	781	94.0	-199866.0	-61232.0	-102471.0
30	14	48	36	782	95.0	-200008.0	-61251.0	-145011.0
30	14	48	36	782	96.0	-200066.0	-58641.0	-218674.0
30	14	48	36	783	97.0	-200185.0	-57399.0	-259761.0
30	14	48	36	784	98.0	-200252.0	-57574.0	-243577.0
30	14	48	36	784	99.0	-200246.0	-59163.0	-172792.0
30	14	48	36	785	100.0	-200126.0	-61084.0	-104759.0
30	14	48	36	785	101.0	-200074.0	-61387.0	-76127.0
30	14	48	36	786	102.0	-199986.0	-61124.0	-70629.0
30	14	48	36	787	103.0	-200084.0	-60704.0	-78153.0
30	14	48	36	787	104.0	-200196.0	-60189.0	-98236.0
30	14	48	36	795	105.0	-200176.0	-58916.0	-142114.0
30	14	48	36	796	106.0	-200207.0	-57274.0	-215327.0
30	14	48	36	796	107.0	-200228.0	-56665.0	-255010.0
30	14	48	36	819	108.0	-200195.0	-57294.0	-237786.0
30	14	48	36	819	109.0	-200337.0	-59450.0	-167502.0
30	14	48	36	820	110.0	-200363.0	-61679.0	-103726.0
30	14	48	36	821	111.0	-200401.0	-62564.0	-79251.0
30	14	48	36	821	112.0	-200371.0	-62852.0	-76487.0
30	14	48	36	822	113.0	-200284.0	-62904.0	-85461.0
30	14	48	36	822	114.0	-200298.0	-62358.0	-106231.0
30	14	48	36	823	115.0	-200372.0	-61023.0	-150608.0
30	14	48	36	823	116.0	-200385.0	-59282.0	-223352.0
30	14	48	36	824	117.0	-200345.0	-59047.0	-261290.0
30	14	48	36	825	118.0	-200500.0	-60240.0	-239549.0
30	14	48	36	825	119.0	-200649.0	-63775.0	-164795.0
30	14	48	36	826	120.0	-200629.0	-68466.0	-99461.0
30	14	48	36	826	121.0	-200548.0	-69297.0	-73642.0
30	14	48	36	827	122.0	-200546.0	-69802.0	-69688.0
30	14	48	36	827	123.0	-200609.0	-69106.0	-78296.0
30	14	48	36	841	124.0	-200639.0	-68321.0	-99250.0
30	14	48	36	842	125.0	-200722.0	-67084.0	-146521.0
30	14	48	36	843	126.0	-200849.0	-65434.0	-219071.0
30	14	48	36	843	127.0	-200874.0	-64784.0	-256512.0
30	14	48	36	844	128.0	-200899.0	-65522.0	-236288.0
30	14	48	36	844	129.0	-200926.0	-67606.0	-162584.0
30	14	48	36	845	130.0	-200717.0	-69178.0	-99512.0
30	14	48	36	845	131.0	-200586.0	-69294.0	-76644.0
30	14	48	36	865	132.0	-200693.0	-69047.0	-73497.0
30	14	48	36	865	133.0	-200762.0	-68791.0	-82174.0
30	14	48	36	866	134.0	-200742.0	-68014.0	-103153.0
30	14	48	36	866	135.0	-200741.0	-66725.0	-151479.0
30	14	48	36	867	136.0	-200807.0	-65037.0	-224531.0
30	14	48	36	867	137.0	-200851.0	-64332.0	-258609.0
30	14	48	36	868	138.0	-200767.0	-64946.0	-233786.0
30	14	48	36	895	139.0	-200764.0	-66701.0	-159017.0
30	14	48	36	895	140.0	-200784.0	-69138.0	-99459.0
30	14	48	36	896	141.0	-200821.0	-69941.0	-76806.0
30	14	48	36	897	142.0	-200769.0	-70050.0	-73633.0
30	14	48	36	897	143.0	-200716.0	-69691.0	-82805.0
30	14	48	36	898	144.0	-200667.0	-69099.0	-104376.0
30	14	48	36	899	145.0	-200789.0	-67789.0	-154059.0
30	14	48	36	899	146.0	-200960.0	-65887.0	-226637.0
30	14	48	36	900	147.0	-200966.0	-64924.0	-259642.0
30	14	48	36	900	148.0	-200894.0	-64786.0	-234065.0
30	14	48	36	901	149.0	-200790.0	-66181.0	-158802.0
30	14	48	36	902	150.0	-200736.0	-68876.0	-99321.0
30	14	48	36	902	151.0	-200667.0	-70818.0	-78928.0
30	14	48	36	903	152.0	-200592.0	-69247.0	-77861.0
30	14	48	36	903	153.0	-200476.0	-67912.0	-88549.0
30	14	48	36	904	154.0	-200421.0	-66375.0	-111516.0
30	14	48	36	904	155.0	-200411.0	-64464.0	-162031.0
30	14	48	36	905	156.0	-200469.0	-62246.0	-235204.0
30	14	48	36	906	157.0	-200395.0	-61324.0	-266619.0
30	14	48	36	906	158.0	-200145.0	-61998.0	-236622.0
30	14	48	36	907	159.0	-200095.0	-63725.0	-159224.0
30	14	48	36	907	160.0	-199999.0	-65280.0	-101719.0
30	14	48	36	908	161.0	-200002.0	-66080.0	-80635.0
30	14	48	36	908	162.0	-200090.0	-65526.0	-77028.0
30	14	48	36	909	163.0	-200216.0	-63306.0	-87972.0
30	14	48	36	910	164.0	-200019.0	-62670.0	-111159.0
30	14	48	36	910	165.0	-199962.0	-62108.0	-163339.0
30	14	48	36	911	166.0	-200074.0	-61132.0	-235644.0
30	14	48	36	911	167.0	-200019.0	-61171.0	-263956.0
30	14	48	36	925	168.0	-200012.0	-62194.0	-230417.0
30	14	48	36	926	169.0	-200011.0	-64370.0	-152245.0
30	14	48	36	926	170.0	-200092.0	-66199.0	-94466.0
30	14	48	36	927	171.0	-200212.0	-66504.0	-74472.0
30	14	48	36	928	172.0	-200319.0	-68178.0	-73803.0
30	14	48	36	928	173.0	-200346.0	-68737.0	-84879.0
30	14	48	36	929	174.0	-200237.0	-67100.0	-108264.0
30	14	48	36	929	175.0	-200337.0	-64909.0	-161462.0
30	14	48	36	930	176.0	-200406.0	-62644.0	-232772.0
30	14	48	36	942	177.0	-200441.0	-61814.0	-258792.0
30	14	48	36	943	178.0	-200465.0	-62921.0	-222616.0
30	14	48	36	943	179.0	-200528.0	-65371.0	-143732.0
30	14	48	36	944	180.0	-200530.0	-66937.0	-87851.0
30	14	48	36	944	181.0	-200450.0	-67459.0	-68811.0
30	14	48	36	945	182.0	-200382.0	-67480.0	-68260.0
30	14	48	36	946	183.0	-200515.0	-67464.0	-78956.0
30	14	48	36	965	184.0	-200601.0	-67326.0	-102563.0
30	14	48	36	966	185.0	-200573.0	-65576.0	-160706.0
30	14	48	36	967	186.0	-200598.0	-64160.0	-230032.0
30	14	48	36	967	187.0	-200543.0	-63908.0	-252702.0
30	14	48	36	968	188.0	-200678.0	-65188.0	-216359.0
30	14	48	36	968	189.0	-200787.0	-67246.0	-139753.0
30	14	48	36	969	190.0	-200831.0	-68759.0	-86485.0
30	14	48	36	969	191.0	-200749.0	-69047.0	-70125.0
30	14	48	36	970	192.0	-200811.0	-69172.0	-70224.0
30	14	48	36	971	193.0	-200853.0	-68656.0	-80850.0
30	14	48	36	971	194.0	-200607.0	-67849.0	-107016.0
30	14	48	36	972	195.0	-200572.0	-65832.0	-165913.0
30	14	48	36	972	196.0	-200580.0	-62094.0	-235887.0
30	14	48	36	973	197.0	-200562.0	-61249.0	-258628.0
30	14	48	36	974	198.0	-200520.0	-62941.0	-220023.0
30	14	48	37	18	199.0	-200421.0	-64564.0	-141609.0
30	14	48	37	18	200.0	-200274.0	-66499.0	-89071.0
30	14	48	37	19	201.0	-200369.0	-67466.0	-73183.0
30	14	48	37	20	202.0	-200428.0	-67462.0	-75152.0
30	14	48	37	20	203.0	-200227.0	-67255.0	-89605.0
30	14	48	37	21	204.0	-200062.0	-66797.0	-116081.0
30	14	48	37	21	205.0	-200111.0	-64701.0	-174575.0
30	14	48	37	22	206.0	-200062.0	-62724.0	-243055.0
30	14	48	37	22	207.0	-199867.0	-62879.0	-261676.0
30	14	48	37	23	208.0	-199737.0	-64136.0	-219359.0
30	14	48	37	23	209.0	-199857.0	-66427.0	-139764.0
30	14	48	37	24	210.0	-199891.0	-67817.0	-88099.0
30	14	48	37	25	211.0	-199869.0	-68564.0	-72663.0
30	14	48	37	25	212.0	-199802.0	-68697.0	-75574.0
30	14	48	37	26	213.0	-199852.0	-68235.0	-90741.0
30	14	48	37	26	214.0	-199879.0	-67354.0	-118017.0
30	14	48	37	27	215.0	-199882.0	-65807.0	-178209.0
30	14	48	37	27	216.0	-199806.0	-64631.0	-244972.0
30	14	48	37	28	217.0	-199557.0	-65078.0	-263389.0
30	14	48	37	29	218.0	-199388.0	-66946.0	-221199.0
30	14	48	37	29	219.0	-199564.0	-68939.0	-143052.0
30	14	48	37	30	220.0	-199627.0	-69794.0	-94397.0
30	14	48	37	30	221.0	-199601.0	-69867.0	-79971.0
30	14	48	37	31	222.0	-199670.0	-69804.0	-79550.0
30	14	48	37	32	223.0	-199744.0	-69776.0	-91968.0
30	14	48	37	32	224.0	-199727.0	-67871.0	-120281.0
30	14	48	37	33	225.0	-199826.0	-65061.0	-184251.0
30	14	48	37	33	226.0	-199844.0	-64281.0	-250833.0
30	14	48	37	34	227.0	-199884.0	-64700.0	-265680.0
30	14	48	37	46	228.0	-199960.0	-66568.0	-218536.0
30	14	48	37	48	229.0	-199913.0	-68974.0	-138896.0
30	14	48	37	49	230.0	-199886.0	-70425.0	-91897.0
30	14	48	37	50	231.0	-199897.0	-71186.0	-79431.0
30	14	48	37	50	232.0	-199949.0	-71264.0	-81662.0
30	14	48	37	51	233.0	-200015.0	-71058.0	-96487.0
30	14	48	37	51	234.0	-199972.0	-69867.0	-125849.0
30	14	48	37	52	235.0	-200071.0	-67404.0	-190396.0
30	14	48	37	53	236.0	-200015.0	-65046.0	-254789.0
30	14	48	37	75	237.0	-199978.0	-64674.0	-267861.0
30	14	48	37	76	238.0	-200044.0	-66511.0	-217994.0
30	14	48	37	77	239.0	-200149.0	-70030.0	-136899.0
30	14	48	37	77	240.0	-200089.0	-71434.0	-88452.0
30	14	48	37	78	241.0	-200107.0	-71373.0	-74868.0
30	14	48	37	78	242.0	-200082.0	-71262.0	-77449.0
30	14	48	37	79	243.0	-200044.0	-70916.0	-92630.0
30	14	48	37	80	244.0	-200066.0	-70165.0	-122349.0
30	14	48	37	80	245.0	-200028.0	-68827.0	-186992.0
30	14	48	37	81	246.0	-200088.0	-67733.0	-249779.0
30	14	48	37	81	247.0	-200195.0	-67711.0	-261667.0
30	14	48	37	82	248.0	-200313.0	-68832.0	-211541.0
30	14	48	37	82	249.0	-200344.0	-69603.0	-132946.0
30	14	48	37	83	250.0	-200316.0	-70664.0	-88094.0
30	14	48	37	105	251.0	-200304.0	-70996.0	-75908.0
30	14	48	37	106	252.0	-200345.0	-70667.0	-78558.0
30	14	48	37	107	253.0	-200414.0	-70289.0	-93894.0
30	14	48	37	107	254.0	-200407.0	-69335.0	-122691.0
30	14	48	37	108	255.0	-200379.0	-67746.0	-189103.0
30	14	48	37	109	0.0	-200258.0	-66589.0	-251064.0
30	14	48	37	109	1.0	-200303.0	-66744.0	-259062.0
30	14	48	37	110	2.0	-200400.0	-68182.0	-204931.0
30	14	48	37	111	3.0	-200375.0	-70742.0	-126299.0
30	14	48	37	111	4.0	-200286.0	-72211.0	-83486.0
30	14	48	37	112	5.0	-200206.0	-72400.0	-72456.0
30	14	48	37	112	6.0	-200177.0	-71957.0	-76064.0
30	14	48	37	113	7.0	-200132.0	-71394.0	-90858.0
30	14	48	37	114	8.0	-200091.0	-70699.0	-123004.0
30	14	48	37	114	9.0	-200175.0	-68557.0	-192224.0
30	14	48	37	115	10.0	-200056.0	-67041.0	-252137.0
30	14	48	37	116	11.0	-200026.0	-66812.0	-256611.0
30	14	48	37	116	12.0	-200045.0	-68605.0	-199939.0
30	14	48	37	117	13.0	-200140.0	-71181.0	-121742.0
30	14	48	37	126	14.0	-200102.0	-72301.0	-80994.0
30	14	48	37	126	15.0	-200116.0	-72526.0	-71835.0
30	14	48	37	149	16.0	-200124.0	-72669.0	-76411.0
30	14	48	37	150	17.0	-200114.0	-72234.0	-93232.0
30	14	48	37	150	18.0	-200103.0	-69852.0	-126419.0
30	14	48	37	151	19.0	-200104.0	-67474.0	-197031.0
30	14	48	37	152	20.0	-200131.0	-65606.0	-260277.0
30	14	48	37	152	21.0	-200211.0	-63592.0	-266574.0
30	14	48	37	153	22.0	-200366.0	-65943.0	-208613.0
30	14	48	37	153	23.0	-200348.0	-68260.0	-130315.0
30	14	48	37	154	24.0	-200400.0	-68203.0	-89240.0
30	14	48	37	155	25.0	-200523.0	-67367.0	-78504.0
30	14	48	37	155	26.0	-200396.0	-65872.0	-83385.0
30	14	48	37	156	27.0	-200421.0	-64730.0	-100433.0
30	14	48	37	156	28.0	-200352.0	-64534.0	-133751.0
30	14	48	37	157	29.0	-200334.0	-63388.0	-201632.0
30	14	48	37	158	30.0	-200359.0	-62576.0	-257617.0
30	14	48	37	158	31.0	-200427.0	-62341.0	-259794.0
30	14	48	37	175	32.0	-200439.0	-63337.0	-199754.0
30	14	48	37	176	33.0	-200431.0	-65467.0	-122748.0
30	14	48	37	176	34.0	-200454.0	-66507.0	-82713.0
30	14	48	37	177	35.0	-200488.0	-65964.0	-72816.0
30	14	48	37	177	36.0	-200427.0	-65860.0	-77075.0
30	14	48	37	178	37.0	-200370.0	-65867.0	-92671.0
30	14	48	37	179	38.0	-200320.0	-65251.0	-127721.0
30	14	48	37	180	39.0	-200297.0	-63045.0	-201002.0
30	14	48	37	198	40.0	-200342.0	-60490.0	-256596.0
30	14	48	37	199	41.0	-200236.0	-59423.0	-256308.0
30	14	48	37	200	42.0	-200256.0	-61644.0	-195851.0
30	14	48	37	201	43.0	-200469.0	-63216.0	-121311.0
30	14	48	37	201	44.0	-200387.0	-63001.0	-83272.0
30	14	48	37	202	45.0	-200404.0	-62480.0	-75111.0
30	14	48	37	203	46.0	-200407.0	-62461.0	-80352.0
30	14	48	37	203	47.0	-200369.0	-61789.0	-97651.0
30	14	48	37	204	48.0	-200419.0	-60672.0	-133169.0
30	14	48	37	204	49.0	-200542.0	-59569.0	-204788.0
30	14	48	37	205	50.0	-200589.0	-58982.0	-259086.0
30	14	48	37	206	51.0	-200513.0	-59736.0	-257229.0
30	14	48	37	206	52.0	-200543.0	-61974.0	-194458.0
30	14	48	37	207	53.0	-200601.0	-64478.0	-120631.0
30	14	48	37	207	54.0	-200566.0	-64766.0	-85875.0
30	14	48	37	208	55.0	-200479.0	-63793.0	-78534.0
30	14	48	37	208	56.0	-200482.0	-63137.0	-84321.0
30	14	48	37	209	57.0	-200578.0	-63122.0	-102847.0
30	14	48	37	210	58.0	-200602.0	-62971.0	-137889.0
30	14	48	37	225	59.0	-200645.0	-60490.0	-208978.0
30	14	48	37	226	60.0	-200587.0	-58917.0	-260424.0
30	14	48	37	227	61.0	-200515.0	-59449.0	-255364.0
