30	14	50	46	707	150.0	-207572.0	-1813.0	-1994.0
30	14	50	46	709	151.0	-207111.0	-1839.0	-2384.0
30	14	50	46	712	152.0	-207954.0	-1773.0	-2257.0
30	14	50	46	714	153.0	-209945.0	-1817.0	-2445.0
30	14	50	46	716	154.0	-213543.0	-1972.0	-2160.0
30	14	50	46	718	155.0	-217407.0	-1997.0	-2261.0
30	14	50	46	720	156.0	-219585.0	-1936.0	-1621.0
30	14	50	46	722	157.0	-220634.0	-1929.0	-1529.0
30	14	50	46	724	158.0	-221277.0	-1916.0	-2730.0
30	14	50	46	726	159.0	-221637.0	-1889.0	-2784.0
30	14	50	46	727	160.0	-221296.0	-1790.0	-2381.0
30	14	50	46	728	161.0	-220312.0	-1796.0	-2096.0
30	14	50	46	729	162.0	-218829.0	-1925.0	-2345.0
30	14	50	46	730	163.0	-217402.0	-1951.0	-2509.0
30	14	50	46	731	164.0	-215606.0	-1887.0	-2146.0
30	14	50	46	732	165.0	-213162.0	-1856.0	-2479.0
30	14	50	46	741	166.0	-209908.0	-1999.0	-2464.0
30	14	50	46	742	167.0	-206500.0	-1937.0	-2376.0
30	14	50	46	743	168.0	-203145.0	-1799.0	-2831.0
30	14	50	46	743	169.0	-199868.0	-1779.0	-2356.0
30	14	50	46	744	170.0	-196691.0	-1829.0	-1449.0
30	14	50	46	744	171.0	-193717.0	-1779.0	-1514.0
30	14	50	46	745	172.0	-190881.0	-1791.0	-1752.0
30	14	50	46	794	173.0	-188686.0	-1856.0	-2085.0
30	14	50	46	841	174.0	-187167.0	-1832.0	-1576.0
30	14	50	46	842	175.0	-186347.0	-1811.0	-1391.0
30	14	50	46	842	176.0	-185939.0	-1797.0	-1146.0
30	14	50	46	843	177.0	-185661.0	-1809.0	-1493.0
30	14	50	46	844	178.0	-185068.0	-1727.0	-2256.0
30	14	50	46	844	179.0	-183241.0	-1832.0	-2035.0
30	14	50	46	845	180.0	-180060.0	-1825.0	-1599.0
30	14	50	46	846	181.0	-175597.0	-1864.0	-1716.0
30	14	50	46	846	182.0	-170392.0	-1821.0	-1863.0
30	14	50	46	847	183.0	-165087.0	-1823.0	-1894.0
30	14	50	46	848	184.0	-160147.0	-1876.0	-1266.0
30	14	50	46	848	185.0	-155915.0	-1774.0	-1122.0
30	14	50	46	849	186.0	-152286.0	-1782.0	-1479.0
30	14	50	46	850	187.0	-149316.0	-1849.0	-1477.0
30	14	50	46	850	199.0	-201520.0	-1817.0	-2334.0
30	14	50	46	851	221.0	-220891.0	-1786.0	-4069.0
30	14	50	46	851	222.0	-219697.0	-1843.0	-3940.0
30	14	50	46	852	223.0	-217972.0	-1826.0	-3862.0
30	14	50	46	852	224.0	-215881.0	-1821.0	-3489.0
30	14	50	46	853	225.0	-213491.0	-1893.0	-2728.0
30	14	50	46	853	226.0	-211454.0	-1926.0	-2144.0
30	14	50	46	885	227.0	-210165.0	-1772.0	-3054.0
30	14	50	46	885	228.0	-209752.0	-1797.0	-3547.0
30	14	50	46	886	229.0	-210379.0	-1789.0	-3449.0
30	14	50	46	887	230.0	-211874.0	-1732.0	-3697.0
30	14	50	46	888	231.0	-214186.0	-1716.0	-3869.0
30	14	50	46	888	232.0	-217147.0	-1687.0	-3489.0
30	14	50	46	889	233.0	-220680.0	-1617.0	-3905.0
30	14	50	46	890	234.0	-224572.0	-1750.0	-3943.0
30	14	50	46	890	235.0	-228542.0	-1826.0	-3997.0
30	14	50	46	891	236.0	-231967.0	-1779.0	-4376.0
30	14	50	46	891	237.0	-235112.0	-1751.0	-4826.0
30	14	50	46	892	238.0	-237877.0	-1734.0	-4947.0
30	14	50	46	893	239.0	-240470.0	-1756.0	-4646.0
30	14	50	46	894	240.0	-242825.0	-1782.0	-4514.0
30	14	50	46	895	241.0	-244629.0	-1810.0	-4341.0
30	14	50	46	895	243.0	-244774.0	-1772.0	-4183.0
30	14	50	46	896	244.0	-242783.0	-1771.0	-4052.0
30	14	50	46	896	245.0	-239412.0	-1857.0	-4055.0
30	14	50	46	897	246.0	-235566.0	-1879.0	-3917.0
30	14	50	46	897	247.0	-231257.0	-1834.0	-3616.0
30	14	50	46	898	248.0	-226695.0	-1782.0	-3056.0
30	14	50	46	899	249.0	-221776.0	-1704.0	-3005.0
30	14	50	46	929	250.0	-216748.0	-1718.0	-3129.0
30	14	50	46	930	251.0	-211647.0	-1679.0	-3110.0
30	14	50	46	931	252.0	-206727.0	-1681.0	-3112.0
30	14	50	46	931	253.0	-202032.0	-1711.0	-3264.0
30	14	50	46	932	254.0	-197557.0	-1687.0	-3392.0
30	14	50	46	933	255.0	-193554.0	-1671.0	-3225.0
30	14	50	46	933	0.0	-189944.0	-1723.0	-3200.0
30	14	50	46	934	1.0	-186611.0	-1736.0	-3190.0
30	14	50	46	934	2.0	-184124.0	-1699.0	-3492.0
30	14	50	46	935	3.0	-182509.0	-1716.0	-3109.0
30	14	50	46	935	4.0	-181742.0	-1682.0	-2610.0
30	14	50	46	936	5.0	-181205.0	-1685.0	-2704.0
30	14	50	46	937	6.0	-180722.0	-1720.0	-3004.0
30	14	50	46	937	7.0	-180586.0	-1765.0	-3067.0
30	14	50	46	938	8.0	-180857.0	-1808.0	-2824.0
30	14	50	46	939	10.0	-182094.0	-1831.0	-2651.0
30	14	50	46	939	11.0	-183070.0	-1842.0	-3180.0
30	14	50	46	940	12.0	-184001.0	-1789.0	-3582.0
30	14	50	46	940	13.0	-184881.0	-1758.0	-3581.0
30	14	50	46	941	14.0	-185829.0	-1725.0	-3386.0
30	14	50	46	941	15.0	-186976.0	-1696.0	-3650.0
30	14	50	46	974	16.0	-188246.0	-1719.0	-3653.0
30	14	50	46	975	17.0	-189580.0	-1763.0	-3784.0
30	14	50	46	976	18.0	-191386.0	-1824.0	-3214.0
30	14	50	46	976	19.0	-193676.0	-1751.0	-2726.0
30	14	50	46	977	20.0	-196109.0	-1724.0	-2472.0
30	14	50	46	978	21.0	-198874.0	-1751.0	-2977.0
30	14	50	46	978	22.0	-202296.0	-1729.0	-3436.0
30	14	50	46	979	23.0	-206093.0	-1733.0	-3211.0
30	14	50	46	979	24.0	-210308.0	-1787.0	-3161.0
30	14	50	46	980	25.0	-214720.0	-1864.0	-3440.0
30	14	50	46	981	26.0	-219104.0	-1827.0	-3418.0
30	14	50	46	981	27.0	-222530.0	-1806.0	-3579.0
30	14	50	46	982	28.0	-224637.0	-1880.0	-3190.0
30	14	50	46	983	29.0	-225281.0	-1904.0	-3171.0
30	14	50	46	983	30.0	-224442.0	-1956.0	-3268.0
30	14	50	46	984	32.0	-219768.0	-1987.0	-5491.0
30	14	50	46	984	33.0	-216201.0	-1954.0	-7690.0
30	14	50	46	985	34.0	-211389.0	-1889.0	-10269.0
30	14	50	46	986	35.0	-205587.0	-1879.0	-13856.0
30	14	50	46	986	36.0	-199133.0	-1857.0	-19432.0
30	14	50	46	987	37.0	-192241.0	-1797.0	-24787.0
30	14	50	46	987	38.0	-185292.0	-1752.0	-29711.0
30	14	50	47	20	39.0	-178412.0	-1778.0	-34502.0
30	14	50	47	21	40.0	-171719.0	-1769.0	-38217.0
30	14	50	47	21	41.0	-165251.0	-1777.0	-41814.0
30	14	50	47	22	42.0	-159797.0	-1679.0	-44679.0
30	14	50	47	23	43.0	-155878.0	-1754.0	-44601.0
30	14	50	47	24	44.0	-153322.0	-1836.0	-40886.0
30	14	50	47	24	45.0	-152294.0	-1881.0	-35335.0
30	14	50	47	25	46.0	-153029.0	-1838.0	-25856.0
30	14	50	47	25	47.0	-155502.0	-1807.0	-11077.0
30	14	50	47	26	48.0	-159265.0	-1786.0	558.0
30	14	50	47	27	49.0	-163822.0	-1916.0	4963.0
30	14	50	47	28	50.0	-169002.0	-1776.0	6536.0
30	14	50	47	28	51.0	-174813.0	-1791.0	4919.0
30	14	50	47	29	52.0	-181426.0	-1882.0	3024.0
30	14	50	47	30	53.0	-188791.0	-1902.0	2814.0
30	14	50	47	30	55.0	-201473.0	-1786.0	3264.0
30	14	50	47	31	56.0	-197447.0	-1901.0	2594.0
30	14	50	47	32	57.0	-183936.0	-1885.0	1843.0
30	14	50	47	32	58.0	-168057.0	-1839.0	1039.0
30	14	50	47	33	59.0	-156031.0	-1925.0	-260.0
30	14	50	47	33	60.0	-152034.0	-1952.0	-1447.0
30	14	50	47	65	61.0	-154329.0	-1886.0	-2359.0
30	14	50	47	66	62.0	-158892.0	-1797.0	-3662.0
30	14	50	47	67	63.0	-163256.0	-1736.0	-4329.0
30	14	50	47	67	64.0	-166965.0	-1847.0	-4748.0
30	14	50	47	68	65.0	-171859.0	-1895.0	-5731.0
30	14	50	47	69	66.0	-178774.0	-1857.0	-6097.0
30	14	50	47	69	67.0	-186871.0	-1848.0	-6187.0
30	14	50	47	70	68.0	-194362.0	-1855.0	-5910.0
30	14	50	47	71	69.0	-196937.0	-1933.0	-5748.0
30	14	50	47	71	70.0	-192328.0	-1952.0	-5720.0
30	14	50	47	72	71.0	-181237.0	-1895.0	-6099.0
30	14	50	47	73	72.0	-166439.0	-1847.0	-6456.0
30	14	50	47	73	73.0	-153349.0	-1831.0	-6844.0
30	14	50	47	74	74.0	-146662.0	-1973.0	-7297.0
30	14	50	47	75	75.0	-147328.0	-1909.0	-7148.0
30	14	50	47	75	77.0	-156564.0	-1912.0	-8030.0
30	14	50	47	76	78.0	-159660.0	-1940.0	-7377.0
30	14	50	47	76	79.0	-161713.0	-1951.0	-7324.0
30	14	50	47	77	80.0	-164099.0	-1914.0	-7335.0
30	14	50	47	78	81.0	-167934.0	-1819.0	-7465.0
30	14	50	47	78	82.0	-173316.0	-1819.0	-7837.0
30	14	50	47	79	83.0	-179777.0	-1847.0	-8209.0
30	14	50	47	110	84.0	-186524.0	-1857.0	-8569.0
30	14	50	47	110	85.0	-192802.0	-1864.0	-8378.0
30	14	50	47	111	86.0	-198259.0	-1791.0	-8658.0
30	14	50	47	112	87.0	-203972.0	-1731.0	-9257.0
30	14	50	47	112	88.0	-211007.0	-1749.0	-8579.0
30	14	50	47	155	89.0	-219634.0	-1821.0	-8471.0
30	14	50	47	156	90.0	-229722.0	-1876.0	-8842.0
30	14	50	47	157	91.0	-240822.0	-1929.0	-8872.0
30	14	50	47	158	92.0	-251879.0	-1952.0	-9106.0
30	14	50	47	159	93.0	-262309.0	-1969.0	-9287.0
30	14	50	47	159	94.0	-272057.0	-1931.0	-9512.0
30	14	50	47	160	95.0	-280128.0	-1866.0	-9370.0
30	14	50	47	160	96.0	-286013.0	-1842.0	-9648.0
30	14	50	47	161	97.0	-289162.0	-1816.0	-9964.0
30	14	50	47	162	98.0	-288852.0	-1941.0	-9672.0
30	14	50	47	162	100.0	-278145.0	-1939.0	-10106.0
30	14	50	47	163	101.0	-269174.0	-1866.0	-10691.0
30	14	50	47	164	102.0	-259326.0	-1946.0	-11201.0
30	14	50	47	164	103.0	-249794.0	-2094.0	-11462.0
30	14	50	47	165	104.0	-241475.0	-2010.0	-11552.0
30	14	50	47	165	105.0	-234605.0	-1978.0	-11441.0
30	14	50	47	166	122.0	-241254.0	-1984.0	-14301.0
30	14	50	47	167	123.0	-230645.0	-2079.0	-14341.0
30	14	50	47	167	124.0	-219177.0	-2007.0	-14910.0
30	14	50	47	168	125.0	-207607.0	-2066.0	-14758.0
30	14	50	47	168	126.0	-196856.0	-1991.0	-14752.0
30	14	50	47	169	127.0	-187689.0	-1988.0	-14925.0
30	14	50	47	169	128.0	-180335.0	-2046.0	-14709.0
30	14	50	47	200	129.0	-175398.0	-2001.0	-14499.0
30	14	50	47	201	130.0	-172879.0	-1957.0	-14798.0
30	14	50	47	202	131.0	-171876.0	-1957.0	-15687.0
30	14	50	47	203	132.0	-172146.0	-1949.0	-15905.0
30	14	50	47	203	133.0	-173474.0	-1959.0	-16404.0
30	14	50	47	204	134.0	-175322.0	-1944.0	-16851.0
30	14	50	47	205	135.0	-177570.0	-1921.0	-16778.0
30	14	50	47	205	136.0	-180869.0	-1918.0	-17017.0
30	14	50	47	206	137.0	-184514.0	-1944.0	-17463.0
30	14	50	47	207	138.0	-188131.0	-1962.0	-17432.0
30	14	50	47	207	139.0	-192127.0	-2003.0	-18039.0
30	14	50	47	208	140.0	-196061.0	-2021.0	-18062.0
30	14	50	47	208	141.0	-199207.0	-1934.0	-18646.0
30	14	50	47	209	142.0	-202328.0	-1954.0	-19136.0
30	14	50	47	210	143.0	-206220.0	-1981.0	-18628.0
30	14	50	47	210	145.0	-211794.0	-2010.0	-18462.0
30	14	50	47	211	146.0	-213332.0	-1978.0	-18536.0
30	14	50	47	212	147.0	-213856.0	-1992.0	-18212.0
30	14	50	47	212	148.0	-213061.0	-1973.0	-18395.0
30	14	50	47	213	149.0	-211823.0	-1941.0	-18346.0
30	14	50	47	213	150.0	-209675.0	-1994.0	-17884.0
30	14	50	47	245	151.0	-205856.0	-1978.0	-18152.0
30	14	50	47	246	152.0	-201531.0	-1912.0	-18440.0
30	14	50	47	247	153.0	-197885.0	-1916.0	-18080.0
30	14	50	47	247	154.0	-194619.0	-1847.0	-17766.0
30	14	50	47	248	155.0	-191482.0	-1847.0	-18069.0
30	14	50	47	249	156.0	-188767.0	-1866.0	-18224.0
30	14	50	47	249	157.0	-186302.0	-1884.0	-17805.0
30	14	50	47	250	158.0	-183404.0	-1901.0	-17196.0
30	14	50	47	250	159.0	-180568.0	-1906.0	-17167.0
30	14	50	47	251	160.0	-177592.0	-1981.0	-16357.0
30	14	50	47	252	161.0	-174308.0	-1952.0	-16449.0
30	14	50	47	252	162.0	-171711.0	-1885.0	-16417.0
30	14	50	47	253	163.0	-170393.0	-1876.0	-16171.0
30	14	50	47	254	164.0	-169704.0	-1904.0	-15370.0
30	14	50	47	254	165.0	-169296.0	-1901.0	-15345.0
30	14	50	47	255	167.0	-168332.0	-1968.0	-14637.0
30	14	50	47	255	168.0	-167104.0	-1993.0	-14052.0
30	14	50	47	256	169.0	-165531.0	-1963.0	-13568.0
30	14	50	47	257	170.0	-163595.0	-1962.0	-13336.0
30	14	50	47	257	171.0	-160867.0	-1963.0	-13272.0
30	14	50	47	258	172.0	-158307.0	-1914.0	-13006.0
30	14	50	47	289	173.0	-157089.0	-1837.0	-12718.0
30	14	50	47	290	174.0	-157019.0	-1801.0	-12415.0
30	14	50	47	291	175.0	-157890.0	-1775.0	-11687.0
30	14	50	47	292	176.0	-160353.0	-1753.0	-11776.0
30	14	50	47	292	177.0	-163956.0	-1721.0	-11402.0
30	14	50	47	293	178.0	-168159.0	-1737.0	-10407.0
30	14	50	47	294	179.0	-172916.0	-1748.0	-9872.0
30	14	50	47	294	180.0	-177876.0	-1791.0	-9806.0
30	14	50	47	295	181.0	-182181.0	-1735.0	-9859.0
30	14	50	47	296	182.0	-185104.0	-1771.0	-9499.0
30	14	50	47	296	183.0	-186507.0	-1734.0	-9047.0
30	14	50	47	297	184.0	-186463.0	-1718.0	-8446.0
30	14	50	47	298	185.0	-185536.0	-1724.0	-8054.0
30	14	50	47	299	186.0	-185547.0	-1740.0	-8246.0
30	14	50	47	300	187.0	-186594.0	-1721.0	-7914.0
30	14	50	47	300	190.0	-191170.0	-1774.0	-7334.0
30	14	50	47	301	191.0	-193111.0	-1791.0	-7006.0
30	14	50	47	302	192.0	-194679.0	-1799.0	-7492.0
30	14	50	47	302	193.0	-196169.0	-1794.0	-7238.0
30	14	50	47	303	194.0	-197628.0	-1664.0	-6836.0
30	14	50	47	303	195.0	-198492.0	-1674.0	-6731.0
30	14	50	47	334	196.0	-197479.0	-1677.0	-6570.0
30	14	50	47	335	197.0	-193402.0	-1687.0	-6042.0
30	14	50	47	336	198.0	-185987.0	-1592.0	-5690.0
30	14	50	47	337	199.0	-178557.0	-1647.0	-5850.0
30	14	50	47	337	200.0	-173582.0	-1666.0	-6086.0
30	14	50	47	338	201.0	-174306.0	-1662.0	-6577.0
30	14	50	47	339	202.0	-180090.0	-1659.0	-7154.0
30	14	50	47	339	203.0	-187270.0	-1644.0	-6832.0
30	14	50	47	340	204.0	-193769.0	-1666.0	-7012.0
30	14	50	47	341	205.0	-194844.0	-1732.0	-7650.0
30	14	50	47	341	206.0	-190480.0	-1713.0	-7749.0
30	14	50	47	342	207.0	-185197.0	-1718.0	-7116.0
30	14	50	47	343	208.0	-183107.0	-1641.0	-6269.0
30	14	50	47	343	209.0	-184007.0	-1614.0	-5774.0
30	14	50	47	344	210.0	-187052.0	-1724.0	-6076.0
30	14	50	47	344	212.0	-196012.0	-1649.0	-6802.0
30	14	50	47	345	213.0	-199836.0	-1614.0	-6857.0
30	14	50	47	346	214.0	-202813.0	-1591.0	-7263.0
30	14	50	47	346	215.0	-205888.0	-1553.0	-7050.0
30	14	50	47	347	216.0	-209538.0	-1514.0	-7067.0
30	14	50	47	347	217.0	-212827.0	-1537.0	-7227.0
30	14	50	47	379	218.0	-215132.0	-1565.0	-6686.0
30	14	50	47	380	219.0	-215616.0	-1548.0	-6908.0
30	14	50	47	381	220.0	-214069.0	-1511.0	-7054.0
30	14	50	47	382	221.0	-211245.0	-1534.0	-7065.0
30	14	50	47	382	222.0	-207977.0	-1487.0	-7129.0
30	14	50	47	383	223.0	-205010.0	-1515.0	-7833.0
30	14	50	47	383	224.0	-202344.0	-1526.0	-7821.0
30	14	50	47	384	225.0	-199647.0	-1548.0	-7490.0
30	14	50	47	385	226.0	-196698.0	-1559.0	-7509.0
30	14	50	47	385	227.0	-193208.0	-1504.0	-7824.0
30	14	50	47	386	228.0	-190015.0	-1553.0	-7406.0
30	14	50	47	387	229.0	-186876.0	-1574.0	-7002.0
30	14	50	47	387	230.0	-184596.0	-1621.0	-6621.0
30	14	50	47	388	231.0	-184655.0	-1563.0	-7077.0
30	14	50	47	389	232.0	-187949.0	-1497.0	-7404.0
30	14	50	47	389	234.0	-204207.0	-1581.0	-7271.0
30	14	50	47	390	235.0	-214916.0	-1549.0	-7359.0
30	14	50	47	398	236.0	-225789.0	-1553.0	-7437.0
30	14	50	47	399	237.0	-236229.0	-1538.0	-7503.0
30	14	50	47	400	238.0	-245588.0	-1518.0	-7174.0
30	14	50	47	400	239.0	-252687.0	-1508.0	-7190.0
30	14	50	47	401	240.0	-257011.0	-1497.0	-7248.0
30	14	50	47	425	241.0	-259364.0	-1467.0	-7820.0
30	14	50	47	426	242.0	-260085.0	-1510.0	-8044.0
30	14	50	47	427	243.0	-259759.0	-1539.0	-7583.0
30	14	50	47	427	244.0	-258544.0	-1524.0	-7493.0
30	14	50	47	428	245.0	-256949.0	-1553.0	-7643.0
30	14	50	47	429	246.0	-255071.0	-1516.0	-7726.0
30	14	50	47	429	247.0	-252656.0	-1542.0	-7494.0
30	14	50	47	430	248.0	-249727.0	-1581.0	-7725.0
30	14	50	47	431	249.0	-246255.0	-1581.0	-7638.0
30	14	50	47	431	250.0	-241962.0	-1604.0	-7724.0
30	14	50	47	432	251.0	-237112.0	-1592.0	-8366.0
30	14	50	47	433	252.0	-231938.0	-1550.0	-8241.0
30	14	50	47	433	253.0	-226739.0	-1567.0	-7561.0
30	14	50	47	434	254.0	-221367.0	-1544.0	-7570.0
30	14	50	47	435	255.0	-216019.0	-1535.0	-7797.0
30	14	50	47	435	1.0	-207601.0	-1559.0	-7372.0
30	14	50	47	436	2.0	-204789.0	-1606.0	-7364.0
30	14	50	47	437	3.0	-202593.0	-1628.0	-6876.0
30	14	50	47	437	4.0	-201021.0	-1657.0	-7151.0
30	14	50	47	438	5.0	-199802.0	-1639.0	-8118.0
30	14	50	47	439	6.0	-198501.0	-1546.0	-7736.0
30	14	50	47	469	7.0	-196947.0	-1532.0	-7196.0
30	14	50	47	470	8.0	-195138.0	-1545.0	-7364.0
30	14	50	47	471	9.0	-192585.0	-1578.0	-7106.0
30	14	50	47	471	10.0	-189906.0	-1516.0	-7107.0
30	14	50	47	472	11.0	-187221.0	-1465.0	-7091.0
30	14	50	47	473	12.0	-184575.0	-1553.0	-6847.0
30	14	50	47	473	13.0	-182477.0	-1568.0	-6709.0
30	14	50	47	474	14.0	-181477.0	-1549.0	-7121.0
30	14	50	47	475	15.0	-181399.0	-1557.0	-7566.0
30	14	50	47	475	16.0	-181569.0	-1519.0	-7639.0
30	14	50	47	476	17.0	-182257.0	-1524.0	-7639.0
30	14	50	47	477	18.0	-182673.0	-1554.0	-7679.0
30	14	50	47	477	19.0	-182952.0	-1604.0	-7718.0
30	14	50	47	478	20.0	-183403.0	-1576.0	-8049.0
30	14	50	47	479	21.0	-184559.0	-1578.0	-7721.0
30	14	50	47	479	23.0	-187365.0	-1659.0	-7082.0
30	14	50	47	480	24.0	-189161.0	-1674.0	-7179.0
30	14	50	47	481	25.0	-191084.0	-1576.0	-7341.0
30	14	50	47	481	26.0	-192729.0	-1571.0	-7826.0
30	14	50	47	482	27.0	-193864.0	-1609.0	-7746.0
30	14	50	47	482	28.0	-194672.0	-1560.0	-7483.0
30	14	50	47	483	29.0	-194947.0	-1543.0	-7722.0
30	14	50	47	515	30.0	-194813.0	-1558.0	-7856.0
30	14	50	47	515	31.0	-194579.0	-1535.0	-7762.0
30	14	50	47	516	32.0	-194411.0	-1556.0	-7783.0
30	14	50	47	517	33.0	-195022.0	-1514.0	-7502.0
30	14	50	47	517	34.0	-196625.0	-1468.0	-7591.0
30	14	50	47	518	35.0	-198867.0	-1548.0	-7967.0
30	14	50	47	519	36.0	-201552.0	-1533.0	-7984.0
30	14	50	47	520	37.0	-204876.0	-1596.0	-7327.0
30	14	50	47	520	38.0	-207898.0	-1597.0	-6899.0
30	14	50	47	521	39.0	-210339.0	-1574.0	-7111.0
30	14	50	47	522	40.0	-211709.0	-1606.0	-7518.0
30	14	50	47	522	41.0	-211672.0	-1611.0	-7117.0
30	14	50	47	523	42.0	-211192.0	-1651.0	-7027.0
30	14	50	47	524	43.0	-211107.0	-1599.0	-7147.0
30	14	50	47	524	44.0	-211552.0	-1582.0	-7007.0
30	14	50	47	525	46.0	-211576.0	-1562.0	-8239.0
30	14	50	47	526	47.0	-210461.0	-1581.0	-8093.0
30	14	50	47	526	48.0	-207638.0	-1600.0	-7987.0
30	14	50	47	527	49.0	-203088.0	-1546.0	-7684.0
30	14	50	47	527	50.0	-197970.0	-1522.0	-8201.0
30	14	50	47	528	51.0	-193124.0	-1496.0	-8109.0
30	14	50	47	560	52.0	-188461.0	-1539.0	-7554.0
30	14	50	47	561	53.0	-184232.0	-1520.0	-7631.0
30	14	50	47	561	54.0	-180692.0	-1506.0	-7945.0
30	14	50	47	562	55.0	-176831.0	-1542.0	-8431.0
30	14	50	47	563	56.0	-172482.0	-1547.0	-8156.0
30	14	50	47	564	57.0	-168274.0	-1530.0	-7759.0
30	14	50	47	564	58.0	-164209.0	-1471.0	-7445.0
30	14	50	47	565	59.0	-160477.0	-1437.0	-7196.0
30	14	50	47	566	60.0	-157869.0	-1472.0	-7806.0
30	14	50	47	566	61.0	-156214.0	-1502.0	-8137.0
30	14	50	47	567	62.0	-155222.0	-1504.0	-7817.0
30	14	50	47	568	63.0	-155052.0	-1484.0	-7771.0
30	14	50	47	569	64.0	-155463.0	-1522.0	-7799.0
30	14	50	47	569	65.0	-155929.0	-1482.0	-7796.0
30	14	50	47	570	66.0	-156692.0	-1469.0	-8079.0
30	14	50	47	571	68.0	-159082.0	-1525.0	-7681.0
30	14	50	47	572	69.0	-160518.0	-1472.0	-7476.0
30	14	50	47	572	70.0	-162722.0	-1498.0	-7991.0
30	14	50	47	573	71.0	-165045.0	-1511.0	-7913.0
30	14	50	47	573	72.0	-167159.0	-1549.0	-7471.0
30	14	50	47	574	73.0	-169551.0	-1546.0	-7648.0
30	14	50	47	575	74.0	-172441.0	-1549.0	-7283.0
30	14	50	47	605	75.0	-175366.0	-1495.0	-7385.0
30	14	50	47	605	76.0	-178305.0	-1462.0	-8151.0
30	14	50	47	606	77.0	-181633.0	-1428.0	-8379.0
30	14	50	47	607	78.0	-184917.0	-1429.0	-8134.0
30	14	50	47	607	79.0	-187650.0	-1427.0	-8481.0
30	14	50	47	608	80.0	-190844.0	-1456.0	-8561.0
30	14	50	47	609	81.0	-194752.0	-1470.0	-7714.0
30	14	50	47	610	82.0	-198502.0	-1473.0	-7336.0
30	14	50	47	611	83.0	-201998.0	-1491.0	-7242.0
30	14	50	47	611	84.0	-205316.0	-1511.0	-7594.0
30	14	50	47	612	85.0	-208305.0	-1495.0	-8124.0
30	14	50	47	613	86.0	-211554.0	-1483.0	-8722.0
30	14	50	47	613	87.0	-215774.0	-1525.0	-8976.0
30	14	50	47	614	88.0	-220294.0	-1510.0	-8994.0
30	14	50	47	615	89.0	-223975.0	-1486.0	-8999.0
30	14	50	47	615	91.0	-230694.0	-1572.0	-8739.0
30	14	50	47	616	92.0	-233565.0	-1542.0	-8514.0
30	14	50	47	617	93.0	-235920.0	-1574.0	-8393.0
30	14	50	47	617	94.0	-238236.0	-1546.0	-9153.0
30	14	50	47	618	95.0	-240084.0	-1517.0	-9687.0
30	14	50	47	618	96.0	-241123.0	-1514.0	-9404.0
30	14	50	47	650	97.0	-241532.0	-1482.0	-9511.0
30	14	50	47	651	98.0	-241924.0	-1462.0	-9891.0
30	14	50	47	652	99.0	-242243.0	-1476.0	-9957.0
30	14	50	47	653	100.0	-241980.0	-1504.0	-10084.0
30	14	50	47	653	101.0	-241300.0	-1499.0	-10344.0
30	14	50	47	654	102.0	-240125.0	-1526.0	-10195.0
30	14	50	47	655	103.0	-237898.0	-1547.0	-10064.0
30	14	50	47	655	104.0	-234705.0	-1556.0	-10062.0
30	14	50	47	656	105.0	-231658.0	-1546.0	-10244.0
30	14	50	47	657	106.0	-227862.0	-1552.0	-10164.0
30	14	50	47	657	107.0	-223204.0	-1554.0	-10163.0
30	14	50	47	658	108.0	-218441.0	-1566.0	-10347.0
30	14	50	47	659	109.0	-213945.0	-1592.0	-9840.0
30	14	50	47	660	110.0	-210346.0	-1556.0	-9612.0
30	14	50	47	660	111.0	-207629.0	-1517.0	-9814.0
30	14	50	47	661	113.0	-204723.0	-1625.0	-9344.0
30	14	50	47	661	114.0	-204613.0	-1631.0	-9214.0
30	14	50	47	662	115.0	-204800.0	-1584.0	-9486.0
30	14	50	47	663	116.0	-205551.0	-1575.0	-9322.0
30	14	50	47	663	117.0	-206739.0	-1534.0	-9339.0
30	14	50	47	664	118.0	-207796.0	-1497.0	-9424.0
30	14	50	47	664	119.0	-208466.0	-1494.0	-9394.0
30	14	50	47	695	120.0	-209167.0	-1549.0	-9214.0
30	14	50	47	696	121.0	-209809.0	-1494.0	-8784.0
30	14	50	47	696	122.0	-209541.0	-1495.0	-8548.0
30	14	50	47	697	123.0	-208824.0	-1583.0	-8845.0
30	14	50	47	698	124.0	-208584.0	-1598.0	-9064.0
30	14	50	47	699	125.0	-209069.0	-1577.0	-9509.0
30	14	50	47	699	126.0	-210557.0	-1530.0	-9629.0
30	14	50	47	700	127.0	-212576.0	-1540.0	-9019.0
30	14	50	47	701	128.0	-215151.0	-1578.0	-8911.0
30	14	50	47	701	129.0	-217882.0	-1608.0	-9010.0
30	14	50	47	702	130.0	-220511.0	-1584.0	-9044.0
30	14	50	47	703	131.0	-222991.0	-1584.0	-8691.0
30	14	50	47	703	132.0	-224708.0	-1595.0	-8901.0
30	14	50	47	704	133.0	-225556.0	-1601.0	-9006.0
30	14	50	47	705	134.0	-225311.0	-1564.0	-8953.0
30	14	50	47	705	136.0	-221392.0	-1579.0	-8932.0
30	14	50	47	706	137.0	-218201.0	-1592.0	-8766.0
30	14	50	47	707	138.0	-214415.0	-1682.0	-9257.0
30	14	50	47	707	139.0	-210580.0	-1637.0	-8963.0
30	14	50	47	708	140.0	-207029.0	-1609.0	-8913.0
30	14	50	47	709	141.0	-203421.0	-1586.0	-8817.0
30	14	50	47	741	142.0	-199883.0	-1621.0	-8956.0
30	14	50	47	741	143.0	-196635.0	-1599.0	-8437.0
30	14	50	47	742	144.0	-194267.0	-1689.0	-8719.0
30	14	50	47	743	145.0	-192895.0	-1676.0	-9344.0
30	14	50	47	744	146.0	-191876.0	-1767.0	-8769.0
30	14	50	47	744	147.0	-191124.0	-1676.0	-8516.0
30	14	50	47	745	148.0	-190520.0	-1577.0	-8800.0
30	14	50	47	746	149.0	-190559.0	-1582.0	-9103.0
30	14	50	47	746	150.0	-190847.0	-1621.0	-8812.0
30	14	50	47	747	151.0	-191233.0	-1594.0	-8254.0
30	14	50	47	748	152.0	-192000.0	-1656.0	-8271.0
30	14	50	47	749	153.0	-192492.0	-1716.0	-8191.0
30	14	50	47	749	154.0	-192132.0	-1695.0	-9281.0
30	14	50	47	750	155.0	-190966.0	-1662.0	-11352.0
30	14	50	47	751	156.0	-188748.0	-1610.0	-13863.0
30	14	50	47	751	158.0	-180521.0	-1698.0	-22682.0
30	14	50	47	752	159.0	-175604.0	-1647.0	-28607.0
30	14	50	47	752	160.0	-171228.0	-1643.0	-34721.0
30	14	50	47	753	161.0	-167183.0	-1591.0	-40411.0
30	14	50	47	754	162.0	-163211.0	-1731.0	-45266.0
30	14	50	47	754	163.0	-159347.0	-1679.0	-50470.0
30	14	50	47	755	164.0	-155729.0	-1636.0	-54594.0
30	14	50	47	831	165.0	-152329.0	-1616.0	-57047.0
30	14	50	47	832	166.0	-149806.0	-1683.0	-55667.0
30	14	50	47	833	167.0	-149114.0	-1566.0	-50624.0
30	14	50	47	833	168.0	-150304.0	-1651.0	-42300.0
30	14	50	47	834	169.0	-153344.0	-1705.0	-27254.0
30	14	50	47	835	170.0	-158294.0	-1785.0	-10827.0
30	14	50	47	835	171.0	-164821.0	-1736.0	-2719.0
30	14	50	47	836	172.0	-172599.0	-1701.0	831.0
30	14	50	47	837	173.0	-181386.0	-1741.0	650.0
30	14	50	47	838	174.0	-191260.0	-1769.0	-1108.0
30	14	50	47	838	175.0	-202199.0	-1768.0	-2306.0
30	14	50	47	839	176.0	-213796.0	-1659.0	-2622.0
30	14	50	47	840	177.0	-225234.0	-1532.0	-2173.0
30	14	50	47	840	178.0	-231124.0	-1644.0	-2344.0
30	14	50	47	841	179.0	-224730.0	-1748.0	-3406.0
30	14	50	47	842	180.0	-210054.0	-1733.0	-4766.0
30	14	50	47	842	203.0	-175041.0	-1842.0	-12251.0
30	14	50	47	843	204.0	-170244.0	-1889.0	-13047.0
30	14	50	47	844	205.0	-168289.0	-1922.0	-13606.0
30	14	50	47	844	206.0	-168162.0	-1881.0	-13806.0
30	14	50	47	845	207.0	-167554.0	-1759.0	-13592.0
30	14	50	47	845	208.0	-165651.0	-1713.0	-13507.0
30	14	50	47	846	209.0	-162737.0	-1693.0	-13705.0
30	14	50	47	876	210.0	-160622.0	-1712.0	-13904.0
30	14	50	47	877	211.0	-160610.0	-1824.0	-13284.0
30	14	50	47	877	212.0	-163739.0	-1821.0	-12407.0
30	14	50	47	878	213.0	-169509.0	-1657.0	-12540.0
30	14	50	47	879	214.0	-177325.0	-1747.0	-13259.0
30	14	50	47	880	215.0	-186694.0	-1777.0	-13577.0
30	14	50	47	880	216.0	-196789.0	-1674.0	-13756.0
30	14	50	47	881	217.0	-206539.0	-1677.0	-13908.0
30	14	50	47	882	218.0	-215368.0	-1731.0	-14206.0
30	14	50	47	882	219.0	-223229.0	-1712.0	-14747.0
30	14	50	47	883	220.0	-229539.0	-1778.0	-14894.0
30	14	50	47	884	221.0	-233621.0	-1855.0	-14502.0
30	14	50	47	884	222.0	-235274.0	-1802.0	-14154.0
30	14	50	47	885	223.0	-234374.0	-1897.0	-14196.0
30	14	50	47	886	224.0	-231591.0	-1925.0	-15011.0
30	14	50	47	887	225.0	-228389.0	-1785.0	-15603.0
30	14	50	47	887	226.0	-225889.0	-1812.0	-15849.0
30	14	50	47	888	227.0	-224690.0	-1772.0	-16103.0
30	14	50	47	888	228.0	-224848.0	-1768.0	-16184.0
30	14	50	47	889	229.0	-226671.0	-1722.0	-16096.0
30	14	50	47	890	230.0	-229536.0	-1707.0	-15832.0
30	14	50	47	890	231.0	-232393.0	-1739.0	-15788.0
30	14	50	47	920	232.0	-235567.0	-1733.0	-16419.0
30	14	50	47	921	233.0	-240293.0	-1700.0	-16270.0
30	14	50	47	921	234.0	-245901.0	-1740.0	-16793.0
30	14	50	47	922	235.0	-250899.0	-1739.0	-17344.0
30	14	50	47	923	236.0	-255879.0	-1766.0	-17073.0
30	14	50	47	924	237.0	-260485.0	-1722.0	-16861.0
30	14	50	47	924	238.0	-263875.0	-1711.0	-17045.0
30	14	50	47	925	239.0	-266045.0	-1769.0	-17259.0
30	14	50	47	926	240.0	-267695.0	-1766.0	-17654.0
30	14	50	47	926	241.0	-267851.0	-1718.0	-18071.0
30	14	50	47	927	242.0	-265941.0	-1729.0	-18217.0
30	14	50	47	928	243.0	-262609.0	-1768.0	-17972.0
30	14	50	47	928	244.0	-258487.0	-1753.0	-18283.0
30	14	50	47	929	245.0	-253681.0	-1711.0	-19097.0
30	14	50	47	930	246.0	-247096.0	-1677.0	-19281.0
30	14	50	47	930	248.0	-231207.0	-1714.0	-19297.0
30	14	50	47	931	249.0	-222690.0	-1659.0	-18772.0
30	14	50	47	932	250.0	-213709.0	-1687.0	-18549.0
30	14	50	47	932	251.0	-205367.0	-1689.0	-18764.0
30	14	50	47	933	252.0	-198315.0	-1801.0	-19069.0
30	14	50	47	933	253.0	-193391.0	-1721.0	-19041.0
30	14	50	47	966	254.0	-191366.0	-1677.0	-19661.0
30	14	50	47	967	255.0	-191674.0	-1646.0	-20478.0
30	14	50	47	968	0.0	-193337.0	-1666.0	-20794.0
30	14	50	47	968	1.0	-195289.0	-1619.0	-20893.0
30	14	50	47	969	2.0	-197364.0	-1554.0	-20982.0
30	14	50	47	970	3.0	-199736.0	-1609.0	-21166.0
30	14	50	47	971	4.0	-201926.0	-1624.0	-21714.0
30	14	50	47	971	5.0	-203579.0	-1661.0	-21712.0
30	14	50	47	972	6.0	-204589.0	-1733.0	-21739.0
30	14	50	47	973	7.0	-204650.0	-1706.0	-21802.0
30	14	50	47	973	8.0	-203651.0	-1692.0	-21542.0
30	14	50	47	974	9.0	-201793.0	-1662.0	-22041.0
30	14	50	47	975	10.0	-200099.0	-1669.0	-22146.0
30	14	50	47	975	11.0	-198959.0	-1739.0	-21968.0
30	14	50	47	976	12.0	-198039.0	-1717.0	-21984.0
30	14	50	47	977	14.0	-197758.0	-1808.0	-22032.0
30	14	50	47	977	15.0	-199516.0	-1725.0	-21867.0
30	14	50	47	978	16.0	-201863.0	-1628.0	-22167.0
30	14	50	47	979	17.0	-203685.0	-1781.0	-22547.0
30	14	50	47	979	18.0	-205577.0	-1718.0	-22407.0
30	14	50	47	980	19.0	-207351.0	-1634.0	-22284.0
30	14	50	47	980	20.0	-208626.0	-1716.0	-22359.0
30	14	50	48	11	21.0	-209384.0	-1714.0	-22293.0
30	14	50	48	11	22.0	-208568.0	-1596.0	-22169.0
30	14	50	48	12	23.0	-206049.0	-1565.0	-22099.0
30	14	50	48	13	24.0	-202010.0	-1591.0	-21592.0
30	14	50	48	14	25.0	-196302.0	-1641.0	-21032.0
30	14	50	48	14	26.0	-188863.0	-1677.0	-21108.0
30	14	50	48	15	27.0	-181367.0	-1709.0	-20529.0
30	14	50	48	16	28.0	-175026.0	-1764.0	-20522.0
30	14	50	48	17	29.0	-169536.0	-1752.0	-20416.0
30	14	50	48	18	30.0	-164866.0	-1758.0	-20074.0
30	14	50	48	19	31.0	-161749.0	-1794.0	-19682.0
30	14	50	48	19	32.0	-160348.0	-1725.0	-19482.0
30	14	50	48	20	33.0	-160644.0	-1722.0	-19154.0
30	14	50	48	21	34.0	-162757.0	-1659.0	-18802.0
30	14	50	48	22	35.0	-167149.0	-1675.0	-18318.0
30	14	50	48	22	37.0	-179447.0	-1727.0	-17826.0
30	14	50	48	23	38.0	-185896.0	-1671.0	-17396.0
30	14	50	48	24	39.0	-192377.0	-1659.0	-16763.0
30	14	50	48	24	40.0	-198206.0	-1626.0	-16077.0
30	14	50	48	25	41.0	-203077.0	-1571.0	-15777.0
30	14	50	48	25	42.0	-207336.0	-1597.0	-15352.0
30	14	50	48	55	43.0	-210162.0	-1607.0	-14986.0
30	14	50	48	56	44.0	-211339.0	-1595.0	-14994.0
30	14	50	48	57	45.0	-212760.0	-1540.0	-14081.0
30	14	50	48	57	46.0	-213925.0	-1584.0	-13265.0
30	14	50	48	58	47.0	-214164.0	-1579.0	-13259.0
30	14	50	48	59	48.0	-214163.0	-1632.0	-13311.0
30	14	50	48	60	49.0	-215202.0	-1611.0	-12636.0
30	14	50	48	60	50.0	-216375.0	-1604.0	-12217.0
30	14	50	48	61	51.0	-216793.0	-1587.0	-11955.0
30	14	50	48	62	52.0	-217661.0	-1586.0	-11712.0
30	14	50	48	63	53.0	-218871.0	-1588.0	-11760.0
30	14	50	48	64	54.0	-218492.0	-1591.0	-11978.0
30	14	50	48	64	55.0	-218312.0	-1563.0	-11178.0
30	14	50	48	65	56.0	-219633.0	-1642.0	-11071.0
30	14	50	48	66	57.0	-219814.0	-1666.0	-11738.0
30	14	50	48	67	59.0	-220912.0	-1632.0	-11022.0
30	14	50	48	68	60.0	-221657.0	-1666.0	-10966.0
30	14	50	48	68	61.0	-220408.0	-1601.0	-10835.0
30	14	50	48	69	62.0	-215261.0	-1601.0	-10834.0
30	14	50	48	69	63.0	-205911.0	-1565.0	-10976.0
30	14	50	48	70	64.0	-196231.0	-1515.0	-10943.0
30	14	50	48	71	65.0	-189175.0	-1534.0	-10641.0
30	14	50	48	100	66.0	-188882.0	-1566.0	-10451.0
30	14	50	48	101	67.0	-192716.0	-1589.0	-10729.0
30	14	50	48	101	68.0	-197474.0	-1545.0	-10879.0
30	14	50	48	102	69.0	-201214.0	-1551.0	-10974.0
30	14	50	48	103	70.0	-198691.0	-1582.0	-10874.0
30	14	50	48	104	71.0	-192059.0	-1551.0	-10734.0
30	14	50	48	104	72.0	-186332.0	-1544.0	-10577.0
30	14	50	48	105	73.0	-183499.0	-1588.0	-10835.0
30	14	50	48	106	74.0	-184341.0	-1605.0	-10809.0
30	14	50	48	106	75.0	-188522.0	-1534.0	-10662.0
30	14	50	48	107	76.0	-193137.0	-1569.0	-10842.0
30	14	50	48	108	77.0	-197367.0	-1592.0	-11093.0
30	14	50	48	108	78.0	-201185.0	-1573.0	-12075.0
30	14	50	48	109	79.0	-203359.0	-1557.0	-12198.0
30	14	50	48	110	80.0	-203254.0	-1591.0	-11882.0
30	14	50	48	110	82.0	-197326.0	-1583.0	-10949.0
30	14	50	48	111	83.0	-192854.0	-1607.0	-10667.0
30	14	50	48	112	84.0	-187305.0	-1588.0	-10422.0
30	14	50	48	112	85.0	-180636.0	-1609.0	-10307.0
30	14	50	48	113	86.0	-175726.0	-1598.0	-10426.0
30	14	50	48	113	87.0	-172089.0	-1559.0	-9916.0
30	14	50	48	146	88.0	-169649.0	-1519.0	-10577.0
30	14	50	48	147	89.0	-168059.0	-1431.0	-11281.0
30	14	50	48	147	90.0	-166131.0	-1524.0	-11329.0
30	14	50	48	148	91.0	-162433.0	-1532.0	-11380.0
30	14	50	48	149	92.0	-158002.0	-1491.0	-11292.0
30	14	50	48	150	93.0	-154959.0	-1551.0	-11359.0
30	14	50	48	150	94.0	-153233.0	-1595.0	-11110.0
30	14	50	48	151	95.0	-153891.0	-1628.0	-10892.0
30	14	50	48	152	96.0	-158076.0	-1601.0	-11074.0
30	14	50	48	152	97.0	-165184.0	-1586.0	-10546.0
30	14	50	48	153	98.0	-174142.0	-1588.0	-10965.0
30	14	50	48	154	99.0	-183792.0	-1551.0	-11487.0
30	14	50	48	154	100.0	-193457.0	-1600.0	-11293.0
30	14	50	48	155	101.0	-202084.0	-1622.0	-11361.0
30	14	50	48	156	102.0	-209207.0	-1646.0	-11534.0
30	14	50	48	156	104.0	-220034.0	-1619.0	-11219.0
30	14	50	48	157	105.0	-224549.0	-1617.0	-10954.0
30	14	50	48	157	106.0	-228822.0	-1617.0	-11092.0
30	14	50	48	158	107.0	-233359.0	-1611.0	-11186.0
30	14	50	48	159	108.0	-237284.0	-1634.0	-11609.0
30	14	50	48	159	109.0	-241417.0	-1595.0	-11787.0
30	14	50	48	190	110.0	-244712.0	-1605.0	-11724.0
30	14	50	48	191	111.0	-246304.0	-1588.0	-11506.0
30	14	50	48	192	112.0	-246628.0	-1550.0	-11468.0
30	14	50	48	192	113.0	-245612.0	-1541.0	-11917.0
30	14	50	48	193	114.0	-244034.0	-1572.0	-11986.0
30	14	50	48	194	115.0	-241904.0	-1583.0	-11112.0
30	14	50	48	194	116.0	-238941.0	-1557.0	-11230.0
30	14	50	48	195	117.0	-235894.0	-1584.0	-11239.0
30	14	50	48	196	118.0	-232664.0	-1564.0	-10894.0
30	14	50	48	196	119.0	-228831.0	-1552.0	-11346.0
30	14	50	48	197	120.0	-224839.0	-1581.0	-11349.0
30	14	50	48	198	121.0	-221617.0	-1588.0	-10815.0
30	14	50	48	199	122.0	-218846.0	-1624.0	-10825.0
30	14	50	48	199	123.0	-216086.0	-1623.0	-10969.0
30	14	50	48	200	124.0	-213811.0	-1623.0	-10866.0
30	14	50	48	201	126.0	-210004.0	-1694.0	-10281.0
30	14	50	48	201	127.0	-208739.0	-1714.0	-10329.0
30	14	50	48	202	128.0	-207484.0	-1656.0	-11221.0
30	14	50	48	202	129.0	-206461.0	-1682.0	-11559.0
30	14	50	48	203	130.0	-205503.0	-1688.0	-11902.0
30	14	50	48	204	131.0	-203030.0	-1665.0	-11682.0
30	14	50	48	204	132.0	-197584.0	-1661.0	-11101.0
30	14	50	48	236	133.0	-190701.0	-1629.0	-10591.0
30	14	50	48	237	134.0	-183902.0	-1573.0	-10188.0
30	14	50	48	238	135.0	-177184.0	-1654.0	-9929.0
30	14	50	48	239	136.0	-171424.0	-1689.0	-9935.0
30	14	50	48	240	137.0	-166660.0	-1678.0	-10306.0
30	14	50	48	240	138.0	-163711.0	-1693.0	-10861.0
30	14	50	48	241	139.0	-162471.0	-1639.0	-11249.0
30	14	50	48	242	140.0	-160991.0	-1671.0	-11220.0
30	14	50	48	243	141.0	-160842.0	-1670.0	-10914.0
30	14	50	48	243	142.0	-162191.0	-1712.0	-10962.0
30	14	50	48	244	143.0	-163667.0	-1701.0	-10949.0
30	14	50	48	245	144.0	-166212.0	-1706.0	-10425.0
30	14	50	48	245	145.0	-170614.0	-1713.0	-9869.0
30	14	50	48	246	146.0	-177242.0	-1723.0	-9978.0
30	14	50	48	247	147.0	-184727.0	-1741.0	-10429.0
30	14	50	48	247	149.0	-197506.0	-1814.0	-10747.0
30	14	50	48	248	150.0	-203057.0	-1829.0	-10882.0
30	14	50	48	248	151.0	-206796.0	-1782.0	-11509.0
30	14	50	48	249	152.0	-209492.0	-1739.0	-10925.0
30	14	50	48	250	153.0	-211247.0	-1720.0	-10436.0
30	14	50	48	250	154.0	-212311.0	-1724.0	-10424.0
30	14	50	48	280	155.0	-212305.0	-1734.0	-10112.0
30	14	50	48	281	156.0	-212282.0	-1775.0	-9942.0
30	14	50	48	282	157.0	-211824.0	-1777.0	-10307.0
30	14	50	48	283	158.0	-211380.0	-1816.0	-10773.0
30	14	50	48	283	159.0	-211359.0	-1780.0	-10791.0
30	14	50	48	284	160.0	-211119.0	-1769.0	-10755.0
30	14	50	48	285	161.0	-209738.0	-1837.0	-10286.0
30	14	50	48	286	162.0	-208994.0	-1863.0	-10038.0
30	14	50	48	286	163.0	-208526.0	-1839.0	-10571.0
30	14	50	48	287	164.0	-208736.0	-1788.0	-10697.0
30	14	50	48	288	165.0	-209742.0	-1766.0	-10007.0
30	14	50	48	288	166.0	-210878.0	-1837.0	-10169.0
30	14	50	48	289	167.0	-211689.0	-1863.0	-10342.0
30	14	50	48	290	168.0	-211562.0	-1936.0	-10524.0
30	14	50	48	291	169.0	-210146.0	-1939.0	-10746.0
30	14	50	48	291	171.0	-204221.0	-1872.0	-10776.0
30	14	50	48	292	172.0	-201266.0	-1949.0	-10773.0
30	14	50	48	292	173.0	-198867.0	-1935.0	-11006.0
30	14	50	48	293	174.0	-197812.0	-1922.0	-10558.0
30	14	50	48	294	175.0	-196986.0	-1940.0	-10150.0
30	14	50	48	294	176.0	-197657.0	-1886.0	-9967.0
30	14	50	48	295	177.0	-197791.0	-1886.0	-10241.0
30	14	50	48	326	178.0	-197493.0	-1878.0	-10927.0
30	14	50	48	327	179.0	-196284.0	-1901.0	-11189.0
30	14	50	48	327	180.0	-193562.0	-1904.0	-11069.0
30	14	50	48	328	181.0	-190381.0	-1893.0	-11252.0
30	14	50	48	329	182.0	-188308.0	-1895.0	-11586.0
30	14	50	48	330	183.0	-185334.0	-1878.0	-11192.0
30	14	50	48	331	184.0	-182704.0	-1927.0	-10399.0
30	14	50	48	332	185.0	-182162.0	-1880.0	-10220.0
30	14	50	48	333	186.0	-181396.0	-1912.0	-10277.0
30	14	50	48	334	187.0	-179490.0	-1939.0	-10393.0
30	14	50	48	335	188.0	-176409.0	-1936.0	-10900.0
30	14	50	48	336	189.0	-174965.0	-1919.0	-10797.0
30	14	50	48	336	190.0	-174044.0	-1962.0	-9939.0
30	14	50	48	337	191.0	-173112.0	-1952.0	-10119.0
30	14	50	48	338	192.0	-173857.0	-1957.0	-10396.0
30	14	50	48	338	194.0	-179850.0	-1994.0	-9684.0
30	14	50	48	339	195.0	-184289.0	-1995.0	-9849.0
30	14	50	48	340	196.0	-188524.0	-2017.0	-9742.0
30	14	50	48	340	197.0	-193290.0	-2004.0	-10161.0
30	14	50	48	341	198.0	-198528.0	-1984.0	-10770.0
30	14	50	48	341	199.0	-203597.0	-1966.0	-10882.0
30	14	50	48	370	200.0	-208052.0	-1979.0	-10651.0
30	14	50	48	371	201.0	-210929.0	-1994.0	-10756.0
30	14	50	48	372	202.0	-213020.0	-1923.0	-10627.0
30	14	50	48	373	203.0	-213704.0	-1966.0	-10621.0
30	14	50	48	373	204.0	-212758.0	-1961.0	-10421.0
30	14	50	48	374	205.0	-210637.0	-2035.0	-10027.0
30	14	50	48	375	206.0	-207300.0	-2049.0	-10159.0
30	14	50	48	376	207.0	-203078.0	-2036.0	-10668.0
30	14	50	48	376	208.0	-199806.0	-2010.0	-10899.0
30	14	50	48	377	209.0	-196907.0	-2012.0	-11138.0
30	14	50	48	378	210.0	-195195.0	-2065.0	-10887.0
30	14	50	48	378	211.0	-194120.0	-2038.0	-10663.0
30	14	50	48	379	212.0	-193004.0	-2015.0	-10801.0
30	14	50	48	380	213.0	-192663.0	-2067.0	-11187.0
30	14	50	48	380	214.0	-192768.0	-2072.0	-10868.0
30	14	50	48	381	216.0	-195821.0	-2127.0	-10803.0
30	14	50	48	382	217.0	-197449.0	-2170.0	-11107.0
30	14	50	48	382	218.0	-197877.0	-2164.0	-11345.0
30	14	50	48	383	219.0	-198662.0	-2091.0	-11646.0
30	14	50	48	384	220.0	-198902.0	-2090.0	-11662.0
30	14	50	48	384	221.0	-197945.0	-2052.0	-11336.0
30	14	50	48	385	222.0	-196750.0	-2064.0	-11524.0
30	14	50	48	415	223.0	-195620.0	-2056.0	-12126.0
30	14	50	48	416	224.0	-193702.0	-2061.0	-11133.0
30	14	50	48	416	225.0	-192211.0	-2067.0	-10523.0
30	14	50	48	417	226.0	-191839.0	-2100.0	-10988.0
30	14	50	48	417	227.0	-191532.0	-2107.0	-10889.0
30	14	50	48	418	228.0	-191348.0	-2134.0	-10990.0
30	14	50	48	419	229.0	-191486.0	-2147.0	-11986.0
30	14	50	48	419	230.0	-192032.0	-2147.0	-12223.0
30	14	50	48	420	231.0	-193134.0	-2140.0	-12332.0
30	14	50	48	420	232.0	-195612.0	-2134.0	-12509.0
30	14	50	48	421	233.0	-198854.0	-2144.0	-12728.0
30	14	50	48	422	234.0	-202784.0	-2156.0	-12307.0
30	14	50	48	422	235.0	-205262.0	-2166.0	-12031.0
30	14	50	48	423	236.0	-205966.0	-2206.0	-12146.0
30	14	50	48	424	237.0	-205533.0	-2233.0	-12415.0
30	14	50	48	424	239.0	-200019.0	-2199.0	-12589.0
30	14	50	48	425	240.0	-196364.0	-2218.0	-12419.0
30	14	50	48	425	241.0	-193347.0	-2218.0	-12557.0
30	14	50	48	426	242.0	-191194.0	-2183.0	-12356.0
30	14	50	48	426	243.0	-189280.0	-2193.0	-12186.0
30	14	50	48	427	244.0	-187351.0	-2207.0	-11917.0
30	14	50	48	460	245.0	-186537.0	-2202.0	-11242.0
30	14	50	48	461	246.0	-185761.0	-2205.0	-11234.0
30	14	50	48	461	247.0	-185011.0	-2201.0	-11671.0
30	14	50	48	462	248.0	-185811.0	-2199.0	-11821.0
30	14	50	48	463	249.0	-186835.0	-2230.0	-11440.0
30	14	50	48	463	250.0	-188902.0	-2260.0	-11792.0
30	14	50	48	464	251.0	-190887.0	-2226.0	-11976.0
30	14	50	48	464	252.0	-190967.0	-2249.0	-11582.0
30	14	50	48	465	253.0	-189696.0	-2223.0	-11731.0
30	14	50	48	465	254.0	-187890.0	-2275.0	-11662.0
30	14	50	48	466	255.0	-185077.0	-2318.0	-11272.0
30	14	50	48	467	0.0	-181224.0	-2285.0	-11061.0
30	14	50	48	467	1.0	-177713.0	-2290.0	-11116.0
30	14	50	48	468	2.0	-174531.0	-2317.0	-11284.0
30	14	50	48	468	3.0	-172503.0	-2363.0	-11124.0
30	14	50	48	469	5.0	-171916.0	-2396.0	-10661.0
30	14	50	48	470	6.0	-173605.0	-2355.0	-10564.0
30	14	50	48	470	7.0	-175116.0	-2422.0	-10722.0
30	14	50	48	471	8.0	-176627.0	-2374.0	-10431.0
30	14	50	48	471	9.0	-177257.0	-2320.0	-10097.0
30	14	50	48	472	10.0	-177941.0	-2391.0	-10246.0
30	14	50	48	473	11.0	-179274.0	-2404.0	-10442.0
30	14	50	48	504	12.0	-181014.0	-2377.0	-10654.0
30	14	50	48	505	13.0	-183191.0	-2322.0	-10941.0
30	14	50	48	506	14.0	-185600.0	-2339.0	-10930.0
30	14	50	48	506	15.0	-188891.0	-2337.0	-10878.0
30	14	50	48	507	16.0	-193564.0	-2371.0	-10940.0
30	14	50	48	508	17.0	-198871.0	-2388.0	-10911.0
30	14	50	48	508	18.0	-204596.0	-2390.0	-10650.0
30	14	50	48	509	19.0	-210754.0	-2421.0	-10510.0
30	14	50	48	509	20.0	-216627.0	-2446.0	-10401.0
30	14	50	48	510	21.0	-221265.0	-2392.0	-10528.0
30	14	50	48	511	22.0	-223877.0	-2429.0	-10977.0
30	14	50	48	512	23.0	-225870.0	-2463.0	-11074.0
30	14	50	48	512	24.0	-226958.0	-2428.0	-10919.0
30	14	50	48	513	25.0	-227398.0	-2423.0	-10976.0
30	14	50	48	513	26.0	-226466.0	-2446.0	-11232.0
30	14	50	48	514	28.0	-221783.0	-2488.0	-11979.0
30	14	50	48	515	29.0	-219094.0	-2479.0	-13866.0
30	14	50	48	515	30.0	-216170.0	-2493.0	-16055.0
30	14	50	48	516	31.0	-212674.0	-2483.0	-19482.0
30	14	50	48	516	32.0	-208109.0	-2446.0	-24409.0
30	14	50	48	517	33.0	-203273.0	-2461.0	-28839.0
30	14	50	48	550	34.0	-197537.0	-2459.0	-32448.0
30	14	50	48	551	35.0	-190914.0	-2485.0	-37083.0
30	14	50	48	551	36.0	-184068.0	-2489.0	-40854.0
30	14	50	48	552	37.0	-177558.0	-2486.0	-44253.0
30	14	50	48	553	38.0	-170837.0	-2484.0	-46587.0
30	14	50	48	553	39.0	-165199.0	-2506.0	-46654.0
30	14	50	48	554	40.0	-160461.0	-2526.0	-43989.0
30	14	50	48	555	41.0	-156556.0	-2516.0	-39630.0
30	14	50	48	555	42.0	-153976.0	-2511.0	-32380.0
30	14	50	48	556	43.0	-153202.0	-2531.0	-20109.0
30	14	50	48	556	44.0	-154113.0	-2535.0	-8259.0
30	14	50	48	557	45.0	-156807.0	-2537.0	-3032.0
30	14	50	48	558	46.0	-161987.0	-2541.0	-421.0
30	14	50	48	558	47.0	-167942.0	-2529.0	-822.0
30	14	50	48	559	48.0	-174286.0	-2557.0	-1884.0
30	14	50	48	559	50.0	-190969.0	-2602.0	-2716.0
30	14	50	48	560	51.0	-200387.0	-2631.0	-3101.0
30	14	50	48	561	52.0	-211162.0	-2629.0	-3138.0
30	14	50	48	561	53.0	-220304.0	-2588.0	-3307.0
30	14	50	48	562	54.0	-221697.0	-2574.0	-3885.0
30	14	50	48	562	55.0	-214695.0	-2559.0	-4574.0
30	14	50	48	595	56.0	-203079.0	-2574.0	-5456.0
30	14	50	48	595	57.0	-191936.0	-2542.0	-6809.0
30	14	50	48	596	58.0	-185997.0	-2531.0	-7659.0
30	14	50	48	597	59.0	-185955.0	-2554.0	-8269.0
30	14	50	48	597	60.0	-190862.0	-2545.0	-9236.0
30	14	50	48	598	61.0	-200499.0	-2592.0	-10001.0
30	14	50	48	599	62.0	-213091.0	-2595.0	-10959.0
30	14	50	48	599	63.0	-226052.0	-2576.0	-11491.0
30	14	50	48	600	64.0	-236282.0	-2596.0	-11806.0
30	14	50	48	600	65.0	-241266.0	-2618.0	-12004.0
30	14	50	48	601	66.0	-240046.0	-2598.0	-12506.0
30	14	50	48	602	67.0	-234592.0	-2582.0	-12537.0
30	14	50	48	602	68.0	-227352.0	-2609.0	-11856.0
30	14	50	48	603	69.0	-220090.0	-2627.0	-11686.0
30	14	50	48	604	70.0	-215756.0	-2646.0	-12131.0
30	14	50	48	604	73.0	-229489.0	-2751.0	-12539.0
30	14	50	48	605	74.0	-236618.0	-2710.0	-13196.0
30	14	50	48	605	75.0	-240919.0	-2626.0	-13251.0
30	14	50	48	606	76.0	-241056.0	-2564.0	-13623.0
30	14	50	48	606	77.0	-237527.0	-2626.0	-13828.0
30	14	50	48	607	78.0	-230862.0	-2593.0	-13549.0
30	14	50	48	640	79.0	-221659.0	-2598.0	-13600.0
30	14	50	48	641	80.0	-211656.0	-2644.0	-13823.0
30	14	50	48	641	81.0	-201131.0	-2637.0	-13940.0
30	14	50	48	642	82.0	-190425.0	-2648.0	-14141.0
30	14	50	48	643	83.0	-180095.0	-2617.0	-14166.0
30	14	50	48	643	84.0	-169765.0	-2660.0	-14160.0
30	14	50	48	644	85.0	-160643.0	-2656.0	-14384.0
30	14	50	48	644	86.0	-154042.0	-2648.0	-14599.0
30	14	50	48	645	87.0	-151018.0	-2656.0	-14841.0
30	14	50	48	645	88.0	-151376.0	-2729.0	-14918.0
30	14	50	48	646	89.0	-153161.0	-2708.0	-15003.0
30	14	50	48	647	90.0	-155528.0	-2709.0	-15117.0
30	14	50	48	647	91.0	-158400.0	-2665.0	-15946.0
30	14	50	48	648	92.0	-161562.0	-2659.0	-15998.0
30	14	50	48	649	93.0	-165957.0	-2679.0	-16153.0
30	14	50	48	650	95.0	-174547.0	-2725.0	-15676.0
30	14	50	48	651	96.0	-178303.0	-2714.0	-15531.0
30	14	50	48	651	97.0	-181875.0	-2702.0	-16465.0
30	14	50	48	652	98.0	-185679.0	-2697.0	-16536.0
30	14	50	48	652	99.0	-189034.0	-2716.0	-15948.0
30	14	50	48	653	100.0	-192236.0	-2707.0	-16474.0
30	14	50	48	684	101.0	-195784.0	-2686.0	-17439.0
30	14	50	48	685	102.0	-199583.0	-2669.0	-17237.0
30	14	50	48	686	103.0	-203246.0	-2648.0	-17357.0
30	14	50	48	686	104.0	-206636.0	-2627.0	-17082.0
30	14	50	48	687	105.0	-210277.0	-2616.0	-16796.0
30	14	50	48	688	106.0	-213916.0	-2637.0	-17028.0
30	14	50	48	688	107.0	-216915.0	-2663.0	-17569.0
30	14	50	48	689	108.0	-219079.0	-2684.0	-17277.0
30	14	50	48	690	109.0	-220656.0	-2726.0	-17157.0
30	14	50	48	690	110.0	-222194.0	-2748.0	-17481.0
30	14	50	48	691	111.0	-223281.0	-2736.0	-17647.0
30	14	50	48	691	112.0	-223624.0	-2699.0	-17994.0
30	14	50	48	692	113.0	-223602.0	-2679.0	-18058.0
30	14	50	48	693	114.0	-223150.0	-2655.0	-18481.0
30	14	50	48	693	115.0	-222142.0	-2686.0	-18689.0
30	14	50	48	694	117.0	-218601.0	-2621.0	-19029.0
30	14	50	48	695	118.0	-216371.0	-2625.0	-18872.0
30	14	50	48	696	119.0	-213702.0	-2664.0	-19090.0
30	14	50	48	696	120.0	-210969.0	-2682.0	-18995.0
30	14	50	48	697	121.0	-208246.0	-2649.0	-19641.0
30	14	50	48	697	122.0	-205220.0	-2592.0	-20231.0
30	14	50	48	698	123.0	-202202.0	-2622.0	-20454.0
30	14	50	48	729	124.0	-199325.0	-2606.0	-20207.0
30	14	50	48	729	125.0	-196253.0	-2572.0	-20605.0
30	14	50	48	730	126.0	-193086.0	-2522.0	-21057.0
30	14	50	48	731	127.0	-190290.0	-2551.0	-21577.0
30	14	50	48	731	128.0	-188052.0	-2603.0	-21582.0
30	14	50	48	732	129.0	-186657.0	-2604.0	-21699.0
30	14	50	48	733	130.0	-185847.0	-2568.0	-21321.0
30	14	50	48	733	131.0	-184990.0	-2577.0	-21982.0
30	14	50	48	734	132.0	-184046.0	-2599.0	-22644.0
30	14	50	48	735	133.0	-183422.0	-2554.0	-22528.0
30	14	50	48	736	134.0	-183478.0	-2572.0	-22133.0
30	14	50	48	737	135.0	-183547.0	-2620.0	-22452.0
30	14	50	48	737	136.0	-183569.0	-2647.0	-22452.0
30	14	50	48	738	137.0	-183225.0	-2640.0	-22777.0
30	14	50	48	739	138.0	-183130.0	-2606.0	-22603.0
30	14	50	48	740	140.0	-183258.0	-2657.0	-22136.0
30	14	50	48	740	141.0	-183547.0	-2649.0	-22556.0
30	14	50	48	741	142.0	-184123.0	-2607.0	-23216.0
30	14	50	48	741	143.0	-184921.0	-2591.0	-23150.0
30	14	50	48	742	144.0	-186211.0	-2580.0	-22912.0
30	14	50	48	742	145.0	-187631.0	-2541.0	-22762.0
30	14	50	48	775	146.0	-190095.0	-2515.0	-23223.0
30	14	50	48	776	147.0	-194054.0	-2475.0	-23232.0
30	14	50	48	777	148.0	-198162.0	-2480.0	-22652.0
30	14	50	48	778	149.0	-201981.0	-2547.0	-22410.0
30	14	50	48	778	150.0	-205248.0	-2549.0	-22172.0
30	14	50	48	779	151.0	-207904.0	-2553.0	-22190.0
30	14	50	48	780	152.0	-209744.0	-2572.0	-22486.0
30	14	50	48	780	153.0	-211046.0	-2591.0	-22426.0
30	14	50	48	781	154.0	-211609.0	-2586.0	-22783.0
30	14	50	48	782	155.0	-211437.0	-2572.0	-22829.0
30	14	50	48	782	156.0	-210262.0	-2544.0	-22298.0
30	14	50	48	783	157.0	-208356.0	-2533.0	-21788.0
30	14	50	48	783	158.0	-205794.0	-2555.0	-20716.0
30	14	50	48	784	159.0	-202884.0	-2548.0	-19986.0
30	14	50	48	785	160.0	-200022.0	-2567.0	-19668.0
30	14	50	48	785	162.0	-196436.0	-2522.0	-19396.0
30	14	50	48	786	163.0	-196150.0	-2522.0	-19130.0
30	14	50	48	786	164.0	-196442.0	-2463.0	-18743.0
30	14	50	48	787	165.0	-196539.0	-2412.0	-18460.0
30	14	50	48	788	166.0	-196632.0	-2409.0	-18564.0
30	14	50	48	788	167.0	-197118.0	-2410.0	-18189.0
30	14	50	48	789	168.0	-197492.0	-2391.0	-17341.0
30	14	50	48	819	169.0	-197134.0	-2416.0	-17160.0
30	14	50	48	820	170.0	-196255.0	-2443.0	-16253.0
30	14	50	48	821	171.0	-195145.0	-2406.0	-15807.0
30	14	50	48	822	172.0	-194443.0	-2391.0	-15767.0
30	14	50	48	822	173.0	-194457.0	-2371.0	-15617.0
30	14	50	48	823	174.0	-194851.0	-2351.0	-14755.0
30	14	50	48	824	175.0	-195505.0	-2328.0	-14176.0
30	14	50	48	824	176.0	-196534.0	-2333.0	-14492.0
30	14	50	48	825	177.0	-197954.0	-2326.0	-14207.0
30	14	50	48	825	178.0	-200119.0	-2327.0	-13377.0
30	14	50	48	826	179.0	-203142.0	-2344.0	-13077.0
30	14	50	48	827	180.0	-206664.0	-2365.0	-12664.0
30	14	50	48	827	181.0	-210324.0	-2369.0	-12482.0
30	14	50	48	828	182.0	-213817.0	-2366.0	-12515.0
30	14	50	48	828	183.0	-216752.0	-2323.0	-12589.0
30	14	50	48	829	185.0	-219705.0	-2321.0	-12059.0
30	14	50	48	830	186.0	-218912.0	-2315.0	-11650.0
30	14	50	48	830	187.0	-216282.0	-2237.0	-11515.0
30	14	50	48	831	188.0	-211841.0	-2210.0	-11193.0
30	14	50	48	831	189.0	-204584.0	-2254.0	-11126.0
30	14	50	48	832	190.0	-193295.0	-2306.0	-11252.0
30	14	50	48	864	191.0	-180589.0	-2219.0	-11638.0
30	14	50	48	865	192.0	-171685.0	-2187.0	-11916.0
30	14	50	48	866	193.0	-169828.0	-2189.0	-11559.0
30	14	50	48	867	194.0	-175434.0	-2173.0	-11650.0
30	14	50	48	868	195.0	-185240.0	-2188.0	-11918.0
30	14	50	48	868	196.0	-196764.0	-2172.0	-11799.0
30	14	50	48	869	197.0	-206519.0	-2154.0	-11687.0
30	14	50	48	869	198.0	-210840.0	-2167.0	-11277.0
30	14	50	48	870	199.0	-210741.0	-2205.0	-10985.0
30	14	50	48	871	200.0	-209471.0	-2224.0	-11109.0
30	14	50	48	871	201.0	-208041.0	-2192.0	-11276.0
30	14	50	48	872	202.0	-206548.0	-2154.0	-11149.0
30	14	50	48	873	203.0	-203914.0	-2183.0	-11260.0
30	14	50	48	874	204.0	-200764.0	-2216.0	-11453.0
30	14	50	48	875	205.0	-197007.0	-2196.0	-10782.0
30	14	50	48	875	207.0	-185701.0	-2160.0	-10914.0
30	14	50	48	876	208.0	-179688.0	-2150.0	-10836.0
30	14	50	48	876	209.0	-175254.0	-2144.0	-10851.0
30	14	50	48	877	210.0	-173513.0	-2147.0	-11031.0
30	14	50	48	877	211.0	-174863.0	-2153.0	-11051.0
30	14	50	48	878	212.0	-179106.0	-2186.0	-10970.0
30	14	50	48	879	213.0	-185546.0	-2123.0	-11278.0
30	14	50	48	909	214.0	-192857.0	-2069.0	-11530.0
30	14	50	48	909	215.0	-199137.0	-2140.0	-11356.0
30	14	50	48	910	216.0	-202267.0	-2086.0	-11489.0
30	14	50	48	911	217.0	-201506.0	-2071.0	-11722.0
30	14	50	48	911	218.0	-197648.0	-2073.0	-11129.0
30	14	50	48	912	219.0	-191932.0	-2097.0	-10961.0
30	14	50	48	913	220.0	-185577.0	-2111.0	-11116.0
30	14	50	48	913	221.0	-179919.0	-2169.0	-11429.0
30	14	50	48	914	222.0	-176103.0	-2148.0	-11611.0
30	14	50	48	915	223.0	-174886.0	-2114.0	-11706.0
30	14	50	48	915	224.0	-176224.0	-2155.0	-11634.0
30	14	50	48	916	225.0	-178901.0	-2154.0	-11781.0
30	14	50	48	916	226.0	-182229.0	-2139.0	-12137.0
30	14	50	48	917	227.0	-185554.0	-2171.0	-12348.0
30	14	50	48	918	228.0	-188964.0	-2162.0	-12002.0
30	14	50	48	918	230.0	-195791.0	-2121.0	-11352.0
30	14	50	48	919	231.0	-198881.0	-2132.0	-11770.0
30	14	50	48	920	232.0	-202031.0	-2148.0	-12272.0
30	14	50	48	920	233.0	-205345.0	-2130.0	-11915.0
30	14	50	48	921	234.0	-208406.0	-2111.0	-11950.0
30	14	50	48	922	235.0	-210898.0	-2122.0	-12304.0
30	14	50	48	954	236.0	-212811.0	-2114.0	-12572.0
30	14	50	48	955	237.0	-214293.0	-2068.0	-12477.0
30	14	50	48	956	238.0	-214633.0	-2112.0	-11817.0
30	14	50	48	956	239.0	-214397.0	-2124.0	-11262.0
30	14	50	48	957	240.0	-213651.0	-2117.0	-11601.0
30	14	50	48	958	241.0	-213029.0	-2149.0	-12402.0
30	14	50	48	959	242.0	-212412.0	-2113.0	-12073.0
30	14	50	48	959	243.0	-211722.0	-2108.0	-11615.0
30	14	50	48	960	244.0	-211146.0	-2119.0	-12170.0
30	14	50	48	960	245.0	-210486.0	-2169.0	-12786.0
30	14	50	48	961	246.0	-209399.0	-2178.0	-12603.0
30	14	50	48	962	247.0	-208377.0	-2197.0	-11726.0
30	14	50	48	963	248.0	-208042.0	-2157.0	-10674.0
30	14	50	48	963	249.0	-208359.0	-2148.0	-11030.0
30	14	50	48	964	250.0	-208873.0	-2214.0	-10954.0
30	14	50	48	964	252.0	-210151.0	-2290.0	-11712.0
30	14	50	48	965	253.0	-210670.0	-2251.0	-11227.0
30	14	50	48	966	254.0	-210817.0	-2227.0	-11368.0
30	14	50	48	966	255.0	-209932.0	-2289.0	-11441.0
30	14	50	48	967	0.0	-208223.0	-2197.0	-11849.0
30	14	50	48	967	1.0	-206345.0	-2155.0	-11764.0
30	14	50	48	968	2.0	-204701.0	-2162.0	-11376.0
30	14	50	49	0	3.0	-203114.0	-2192.0	-11459.0
30	14	50	49	0	4.0	-202069.0	-2206.0	-11345.0
30	14	50	49	1	5.0	-200771.0	-2171.0	-11685.0
30	14	50	49	2	6.0	-199469.0	-2146.0	-12004.0
30	14	50	49	3	7.0	-198367.0	-2179.0	-12006.0
30	14	50	49	3	8.0	-197762.0	-2161.0	-11923.0
30	14	50	49	4	9.0	-197524.0	-2176.0	-11819.0
30	14	50	49	5	10.0	-197512.0	-2253.0	-11669.0
30	14	50	49	5	11.0	-198074.0	-2227.0	-11723.0
30	14	50	49	6	12.0	-198854.0	-2225.0	-11257.0
30	14	50	49	7	13.0	-198824.0	-2288.0	-10773.0
30	14	50	49	7	14.0	-199492.0	-2361.0	-10829.0
30	14	50	49	8	15.0	-201043.0	-2303.0	-10982.0
30	14	50	49	9	16.0	-202639.0	-2254.0	-11462.0
30	14	50	49	9	17.0	-204842.0	-2294.0	-11391.0
30	14	50	49	10	19.0	-210669.0	-2324.0	-10771.0
30	14	50	49	11	20.0	-213342.0	-2332.0	-11337.0
30	14	50	49	11	21.0	-215872.0	-2389.0	-11182.0
30	14	50	49	12	22.0	-218102.0	-2383.0	-11113.0
30	14	50	49	12	23.0	-219271.0	-2336.0	-11229.0
30	14	50	49	13	24.0	-219467.0	-2307.0	-10431.0
30	14	50	49	44	25.0	-218874.0	-2300.0	-9912.0
30	14	50	49	69	26.0	-217639.0	-2247.0	-10666.0
30	14	50	49	69	27.0	-215471.0	-2331.0	-10818.0
30	14	50	49	70	28.0	-212528.0	-2336.0	-10709.0
30	14	50	49	70	29.0	-209679.0	-2284.0	-11182.0
30	14	50	49	71	30.0	-206993.0	-2296.0	-11235.0
30	14	50	49	72	31.0	-204410.0	-2392.0	-10989.0
30	14	50	49	72	32.0	-203214.0	-2406.0	-10644.0
30	14	50	49	73	33.0	-203096.0	-2371.0	-10307.0
30	14	50	49	73	34.0	-203629.0	-2362.0	-10302.0
30	14	50	49	74	35.0	-204504.0	-2432.0	-10826.0
30	14	50	49	74	36.0	-205081.0	-2411.0	-11247.0
30	14	50	49	75	37.0	-205289.0	-2389.0	-11013.0
30	14	50	49	76	38.0	-205421.0	-2427.0	-11416.0
30	14	50	49	76	39.0	-204960.0	-2436.0	-11622.0
30	14	50	49	77	41.0	-202026.0	-2444.0	-11473.0
30	14	50	49	77	42.0	-200539.0	-2501.0	-11336.0
30	14	50	49	78	43.0	-199597.0	-2472.0	-10854.0
30	14	50	49	79	44.0	-199005.0	-2489.0	-10711.0
30	14	50	49	79	45.0	-198577.0	-2447.0	-11007.0
30	14	50	49	80	46.0	-198141.0	-2441.0	-10999.0
30	14	50	49	80	47.0	-197647.0	-2554.0	-11809.0
30	14	50	49	93	48.0	-196791.0	-2470.0	-11744.0
30	14	50	49	93	49.0	-195600.0	-2446.0	-11184.0
30	14	50	49	94	50.0	-194600.0	-2449.0	-11701.0
30	14	50	49	95	51.0	-193961.0	-2459.0	-12119.0
30	14	50	49	96	52.0	-193832.0	-2515.0	-11763.0
30	14	50	49	96	53.0	-194529.0	-2501.0	-11899.0
30	14	50	49	97	54.0	-196022.0	-2542.0	-12264.0
30	14	50	49	98	55.0	-198167.0	-2539.0	-12345.0
30	14	50	49	98	56.0	-201073.0	-2554.0	-12309.0
30	14	50	49	99	57.0	-204696.0	-2587.0	-12581.0
30	14	50	49	100	58.0	-209074.0	-2590.0	-12404.0
30	14	50	49	100	59.0	-213409.0	-2662.0	-11910.0
30	14	50	49	101	60.0	-216821.0	-2697.0	-12247.0
30	14	50	49	102	61.0	-219496.0	-2624.0	-12419.0
30	14	50	49	102	62.0	-221851.0	-2594.0	-12545.0
30	14	50	49	103	63.0	-223540.0	-2672.0	-12661.0
30	14	50	49	103	64.0	-224514.0	-2677.0	-12793.0
30	14	50	49	104	65.0	-224951.0	-2693.0	-13503.0
30	14	50	49	105	66.0	-225098.0	-2676.0	-13197.0
30	14	50	49	105	67.0	-224836.0	-2579.0	-12906.0
30	14	50	49	106	68.0	-223967.0	-2548.0	-12932.0
30	14	50	49	106	69.0	-222648.0	-2554.0	-12758.0
30	14	50	49	135	70.0	-221389.0	-2604.0	-12522.0
30	14	50	49	136	71.0	-219502.0	-2611.0	-12254.0
30	14	50	49	137	72.0	-216551.0	-2587.0	-12194.0
30	14	50	49	137	73.0	-213291.0	-2657.0	-12079.0
30	14	50	49	138	74.0	-210057.0	-2656.0	-12018.0
30	14	50	49	139	75.0	-206676.0	-2654.0	-12384.0
30	14	50	49	139	76.0	-203297.0	-2632.0	-12281.0
30	14	50	49	140	77.0	-199781.0	-2617.0	-11629.0
30	14	50	49	141	78.0	-196582.0	-2659.0	-11773.0
30	14	50	49	141	79.0	-193284.0	-2624.0	-12366.0
30	14	50	49	142	80.0	-189356.0	-2666.0	-12351.0
30	14	50	49	143	81.0	-185224.0	-2663.0	-12492.0
30	14	50	49	144	82.0	-181344.0	-2714.0	-12355.0
30	14	50	49	145	83.0	-177812.0	-2758.0	-12356.0
30	14	50	49	145	84.0	-175171.0	-2702.0	-12324.0
30	14	50	49	146	86.0	-174267.0	-2842.0	-11428.0
30	14	50	49	147	87.0	-175326.0	-2877.0	-11364.0
30	14	50	49	147	88.0	-176185.0	-2852.0	-11535.0
30	14	50	49	148	89.0	-176747.0	-2764.0	-10953.0
30	14	50	49	148	90.0	-177637.0	-2734.0	-10748.0
30	14	50	49	149	91.0	-179178.0	-2766.0	-10838.0
30	14	50	49	180	92.0	-181051.0	-2788.0	-10791.0
30	14	50	49	181	93.0	-183380.0	-2782.0	-10464.0
30	14	50	49	181	94.0	-185755.0	-2706.0	-10337.0
30	14	50	49	182	95.0	-188174.0	-2711.0	-10729.0
30	14	50	49	183	96.0	-191017.0	-2781.0	-10889.0
30	14	50	49	184	97.0	-194509.0	-2813.0	-10900.0
30	14	50	49	185	98.0	-197469.0	-2736.0	-11122.0
30	14	50	49	185	99.0	-199888.0	-2769.0	-11366.0
30	14	50	49	186	100.0	-201782.0	-2759.0	-11633.0
30	14	50	49	187	101.0	-203483.0	-2846.0	-11314.0
30	14	50	49	187	102.0	-205601.0	-2814.0	-10857.0
30	14	50	49	188	103.0	-207791.0	-2861.0	-10758.0
30	14	50	49	189	104.0	-209552.0	-2913.0	-10998.0
30	14	50	49	189	105.0	-211246.0	-2904.0	-11496.0
30	14	50	49	190	106.0	-212687.0	-2842.0	-11519.0
30	14	50	49	191	108.0	-213812.0	-2934.0	-11209.0
30	14	50	49	191	109.0	-213935.0	-2853.0	-11250.0
30	14	50	49	192	110.0	-213761.0	-2849.0	-11526.0
30	14	50	49	193	111.0	-213068.0	-2808.0	-11701.0
30	14	50	49	193	112.0	-211732.0	-2841.0	-11574.0
30	14	50	49	194	113.0	-210544.0	-2855.0	-11863.0
30	14	50	49	194	114.0	-209487.0	-2851.0	-12127.0
30	14	50	49	225	115.0	-208148.0	-2814.0	-12887.0
30	14	50	49	226	116.0	-207136.0	-2918.0	-14201.0
30	14	50	49	227	117.0	-206179.0	-2810.0	-15842.0
30	14	50	49	227	118.0	-205451.0	-2776.0	-18759.0
30	14	50	49	228	119.0	-204516.0	-2800.0	-23176.0
30	14	50	49	229	120.0	-203083.0	-2898.0	-27423.0
30	14	50	49	229	121.0	-200253.0	-2934.0	-30778.0
30	14	50	49	230	122.0	-196605.0	-2872.0	-34848.0
30	14	50	49	231	123.0	-192919.0	-2889.0	-38415.0
30	14	50	49	231	124.0	-189432.0	-2975.0	-41437.0
30	14	50	49	232	125.0	-186079.0	-3001.0	-44209.0
30	14	50	49	233	126.0	-182943.0	-2930.0	-44585.0
30	14	50	49	233	127.0	-180440.0	-2920.0	-41948.0
30	14	50	49	234	128.0	-179447.0	-2949.0	-38196.0
30	14	50	49	235	129.0	-180996.0	-2936.0	-33667.0
30	14	50	49	235	131.0	-187742.0	-3005.0	-12307.0
30	14	50	49	236	132.0	-192017.0	-3044.0	-5327.0
30	14	50	49	237	133.0	-196406.0	-3000.0	-1928.0
30	14	50	49	237	134.0	-200759.0	-2969.0	-262.0
30	14	50	49	238	135.0	-204929.0	-2927.0	-2026.0
30	14	50	49	238	136.0	-208924.0	-2944.0	-3109.0
30	14	50	49	271	137.0	-211909.0	-2973.0	-3479.0
30	14	50	49	271	138.0	-214078.0	-2951.0	-3319.0
30	14	50	49	272	139.0	-215869.0	-2963.0	-3202.0
30	14	50	49	273	140.0	-216788.0	-3003.0	-3226.0
30	14	50	49	274	141.0	-211760.0	-3037.0	-3886.0
30	14	50	49	275	142.0	-199944.0	-3065.0	-4771.0
30	14	50	49	276	143.0	-186289.0	-3069.0	-5622.0
30	14	50	49	276	144.0	-174992.0	-3101.0	-7355.0
30	14	50	49	277	145.0	-169147.0	-3050.0	-8865.0
30	14	50	49	278	146.0	-169718.0	-3059.0	-9479.0
30	14	50	49	279	147.0	-175039.0	-3057.0	-10585.0
30	14	50	49	279	148.0	-183119.0	-3059.0	-11237.0
30	14	50	49	280	149.0	-193457.0	-3034.0	-11581.0
30	14	50	49	281	150.0	-203011.0	-3055.0	-12638.0
30	14	50	49	281	151.0	-209496.0	-3124.0	-13193.0
30	14	50	49	282	153.0	-208270.0	-3158.0	-13227.0
30	14	50	49	283	154.0	-202452.0	-3203.0	-13789.0
30	14	50	49	283	155.0	-195707.0	-3215.0	-14402.0
30	14	50	49	284	156.0	-191362.0	-3137.0	-14702.0
30	14	50	49	284	157.0	-190754.0	-3057.0	-14924.0
30	14	50	49	285	158.0	-193428.0	-3109.0	-14459.0
30	14	50	49	286	159.0	-198811.0	-3068.0	-14431.0
30	14	50	49	315	160.0	-205382.0	-3034.0	-14888.0
30	14	50	49	316	161.0	-211426.0	-3086.0	-14571.0
30	14	50	49	333	162.0	-215946.0	-3127.0	-14584.0
30	14	50	49	334	163.0	-218312.0	-3075.0	-14708.0
30	14	50	49	334	164.0	-218479.0	-3091.0	-14904.0
30	14	50	49	335	165.0	-216339.0	-3117.0	-14934.0
30	14	50	49	336	166.0	-212849.0	-3172.0	-15130.0
30	14	50	49	336	167.0	-207884.0	-3261.0	-15201.0
30	14	50	49	337	168.0	-203001.0	-3236.0	-15134.0
30	14	50	49	337	169.0	-198900.0	-3261.0	-15467.0
30	14	50	49	338	170.0	-194504.0	-3188.0	-15929.0
30	14	50	49	339	171.0	-190935.0	-3156.0	-15876.0
30	14	50	49	339	172.0	-187867.0	-3160.0	-15707.0
30	14	50	49	340	173.0	-185142.0	-3210.0	-16053.0
30	14	50	49	340	174.0	-183666.0	-3196.0	-16446.0
30	14	50	49	341	176.0	-184817.0	-3142.0	-16806.0
30	14	50	49	341	177.0	-186351.0	-3155.0	-16591.0
30	14	50	49	342	178.0	-187710.0	-3172.0	-16832.0
30	14	50	49	343	179.0	-189089.0	-3141.0	-16548.0
30	14	50	49	343	180.0	-191019.0	-3124.0	-16581.0
30	14	50	49	344	181.0	-193859.0	-3144.0	-16717.0
30	14	50	49	359	182.0	-197031.0	-3135.0	-16776.0
30	14	50	49	360	183.0	-199919.0	-3157.0	-16705.0
30	14	50	49	360	184.0	-201866.0	-3230.0	-17069.0
30	14	50	49	361	185.0	-202477.0	-3179.0	-17626.0
30	14	50	49	362	186.0	-202103.0	-3140.0	-17619.0
30	14	50	49	363	187.0	-201425.0	-3180.0	-18159.0
30	14	50	49	363	188.0	-200536.0	-3180.0	-18374.0
30	14	50	49	364	189.0	-199747.0	-3201.0	-18394.0
30	14	50	49	365	190.0	-199323.0	-3192.0	-18367.0
30	14	50	49	365	191.0	-199623.0	-3220.0	-18378.0
30	14	50	49	366	192.0	-201229.0	-3247.0	-18221.0
30	14	50	49	367	193.0	-203821.0	-3217.0	-18223.0
30	14	50	49	368	194.0	-207032.0	-3213.0	-18973.0
30	14	50	49	368	195.0	-211086.0	-3218.0	-19427.0
30	14	50	49	369	196.0	-215257.0	-3240.0	-18881.0
30	14	50	49	370	198.0	-222981.0	-3179.0	-19544.0
30	14	50	49	370	199.0	-225872.0	-3229.0	-20077.0
30	14	50	49	371	200.0	-227996.0	-3227.0	-20209.0
30	14	50	49	372	201.0	-229103.0	-3196.0	-19982.0
30	14	50	49	372	202.0	-228601.0	-3160.0	-19676.0
30	14	50	49	373	203.0	-226654.0	-3209.0	-19436.0
30	14	50	49	374	204.0	-224308.0	-3176.0	-20182.0
30	14	50	49	405	205.0	-222159.0	-3145.0	-20707.0
30	14	50	49	405	206.0	-219726.0	-3179.0	-20557.0
30	14	50	49	406	207.0	-217471.0	-3164.0	-20974.0
30	14	50	49	407	208.0	-216091.0	-3179.0	-21291.0
30	14	50	49	408	209.0	-214994.0	-3162.0	-21631.0
30	14	50	49	408	210.0	-213805.0	-3151.0	-21986.0
30	14	50	49	409	211.0	-211719.0	-3157.0	-22308.0
30	14	50	49	410	212.0	-208837.0	-3162.0	-22015.0
30	14	50	49	410	213.0	-205054.0	-3169.0	-21912.0
30	14	50	49	411	214.0	-200529.0	-3201.0	-22272.0
30	14	50	49	412	215.0	-196375.0	-3217.0	-22886.0
30	14	50	49	412	216.0	-193411.0	-3207.0	-23028.0
30	14	50	49	413	217.0	-190768.0	-3189.0	-23443.0
30	14	50	49	414	218.0	-189096.0	-3173.0	-23739.0
30	14	50	49	415	219.0	-188442.0	-3205.0	-23899.0
30	14	50	49	416	221.0	-189361.0	-3237.0	-23816.0
30	14	50	49	416	222.0	-190213.0	-3236.0	-24044.0
30	14	50	49	417	223.0	-191226.0	-3242.0	-24329.0
30	14	50	49	417	224.0	-191907.0	-3246.0	-24552.0
30	14	50	49	418	225.0	-191847.0	-3220.0	-24988.0
30	14	50	49	419	226.0	-191506.0	-3191.0	-25062.0
30	14	50	49	456	227.0	-190547.0	-3169.0	-24505.0
30	14	50	49	457	228.0	-188980.0	-3161.0	-24704.0
30	14	50	49	458	229.0	-187477.0	-3167.0	-24833.0
30	14	50	49	458	230.0	-186294.0	-3116.0	-24684.0
30	14	50	49	459	231.0	-184784.0	-3104.0	-24412.0
30	14	50	49	460	232.0	-183854.0	-3149.0	-24818.0
30	14	50	49	461	233.0	-184293.0	-3172.0	-24389.0
30	14	50	49	461	234.0	-185110.0	-3187.0	-23784.0
30	14	50	49	462	235.0	-186251.0	-3112.0	-24056.0
30	14	50	49	462	236.0	-188254.0	-3134.0	-24036.0
30	14	50	49	463	237.0	-190456.0	-3157.0	-23903.0
30	14	50	49	464	238.0	-192605.0	-3141.0	-24007.0
30	14	50	49	464	239.0	-194336.0	-3159.0	-23665.0
30	14	50	49	465	240.0	-195719.0	-3154.0	-23036.0
30	14	50	49	465	241.0	-196549.0	-3166.0	-22824.0
30	14	50	49	466	243.0	-197834.0	-3164.0	-22006.0
30	14	50	49	467	244.0	-194822.0	-3152.0	-21327.0
30	14	50	49	467	245.0	-189324.0	-3102.0	-21249.0
30	14	50	49	468	246.0	-187624.0	-3048.0	-20823.0
30	14	50	49	468	247.0	-189966.0	-3037.0	-20451.0
30	14	50	49	469	248.0	-190594.0	-3016.0	-20233.0
30	14	50	49	495	249.0	-189593.0	-2944.0	-19876.0
30	14	50	49	496	250.0	-189346.0	-2961.0	-19580.0
30	14	50	49	497	251.0	-190262.0	-2993.0	-19186.0
30	14	50	49	497	252.0	-191560.0	-2936.0	-18712.0
30	14	50	49	498	253.0	-193027.0	-2956.0	-18265.0
30	14	50	49	499	254.0	-194254.0	-2911.0	-18009.0
30	14	50	49	500	255.0	-195396.0	-2916.0	-17800.0
30	14	50	49	500	0.0	-197476.0	-2936.0	-17572.0
30	14	50	49	501	1.0	-200217.0	-2888.0	-17284.0
30	14	50	49	502	2.0	-203149.0	-2842.0	-16407.0
30	14	50	49	502	3.0	-205672.0	-2812.0	-15926.0
30	14	50	49	503	4.0	-207832.0	-2814.0	-15570.0
30	14	50	49	504	5.0	-209637.0	-2866.0	-14847.0
30	14	50	49	504	6.0	-211297.0	-2842.0	-14627.0
30	14	50	49	505	7.0	-213365.0	-2839.0	-14629.0
30	14	50	49	506	10.0	-218459.0	-2757.0	-14032.0
30	14	50	49	506	11.0	-220265.0	-2724.0	-13882.0
30	14	50	49	507	12.0	-221826.0	-2625.0	-13176.0
30	14	50	49	508	13.0	-222522.0	-2642.0	-12954.0
30	14	50	49	508	14.0	-222741.0	-2661.0	-12991.0
30	14	50	49	509	15.0	-221961.0	-2602.0	-12256.0
30	14	50	49	540	16.0	-220684.0	-2612.0	-11814.0
30	14	50	49	540	17.0	-219329.0	-2558.0	-11729.0
30	14	50	49	541	18.0	-217461.0	-2521.0	-11791.0
30	14	50	49	542	19.0	-214962.0	-2499.0	-12177.0
30	14	50	49	565	20.0	-211827.0	-2521.0	-12101.0
30	14	50	49	566	21.0	-207990.0	-2544.0	-11552.0
30	14	50	49	567	22.0	-203116.0	-2499.0	-11457.0
30	14	50	49	567	23.0	-195584.0	-2467.0	-11606.0
30	14	50	49	568	24.0	-185704.0	-2461.0	-11616.0
30	14	50	49	568	25.0	-176919.0	-2482.0	-11640.0
30	14	50	49	569	26.0	-173570.0	-2494.0	-11551.0
30	14	50	49	570	27.0	-177331.0	-2477.0	-11058.0
30	14	50	49	570	28.0	-184967.0	-2455.0	-11291.0
30	14	50	49	571	29.0	-193501.0	-2370.0	-11692.0
30	14	50	49	571	30.0	-201730.0	-2432.0	-11769.0
30	14	50	49	572	32.0	-207090.0	-2415.0	-11588.0
30	14	50	49	573	33.0	-206279.0	-2364.0	-11370.0
30	14	50	49	573	34.0	-205412.0	-2311.0	-11269.0
30	14	50	49	574	35.0	-204438.0	-2339.0	-11216.0
30	14	50	49	574	36.0	-203135.0	-2342.0	-10676.0
30	14	50	49	575	37.0	-200787.0	-2312.0	-10498.0
30	14	50	49	588	38.0	-197132.0	-2256.0	-10819.0
30	14	50	49	589	39.0	-192721.0	-2242.0	-11514.0
30	14	50	49	590	40.0	-187791.0	-2222.0	-11702.0
30	14	50	49	591	41.0	-182010.0	-2228.0	-11926.0
30	14	50	49	592	42.0	-175720.0	-2172.0	-12048.0
30	14	50	49	592	43.0	-170756.0	-2156.0	-12016.0
30	14	50	49	593	44.0	-168562.0	-2179.0	-11958.0
30	14	50	49	594	45.0	-169234.0	-2211.0	-11260.0
30	14	50	49	594	46.0	-173615.0	-2202.0	-10222.0
30	14	50	49	595	47.0	-181228.0	-2147.0	-10398.0
30	14	50	49	596	48.0	-189064.0	-2218.0	-11328.0
30	14	50	49	596	49.0	-195784.0	-2197.0	-11501.0
30	14	50	49	597	50.0	-200763.0	-2202.0	-11284.0
30	14	50	49	598	51.0	-203730.0	-2164.0	-11524.0
30	14	50	49	598	52.0	-204312.0	-2180.0	-11857.0
30	14	50	49	599	54.0	-202764.0	-2143.0	-12168.0
30	14	50	49	599	55.0	-201390.0	-2122.0	-11780.0
30	14	50	49	600	56.0	-199892.0	-2149.0	-11404.0
30	14	50	49	600	57.0	-199086.0	-2207.0	-11377.0
30	14	50	49	601	58.0	-198943.0	-2188.0	-11926.0
30	14	50	49	602	59.0	-199256.0	-2133.0	-12174.0
30	14	50	49	602	60.0	-200327.0	-2099.0	-12104.0
30	14	50	49	630	61.0	-202322.0	-2080.0	-12132.0
30	14	50	49	631	62.0	-205057.0	-2126.0	-11922.0
30	14	50	49	632	63.0	-208059.0	-2112.0	-12208.0
30	14	50	49	633	64.0	-211509.0	-2095.0	-12493.0
30	14	50	49	633	65.0	-214862.0	-2101.0	-12372.0
30	14	50	49	634	66.0	-217507.0	-2103.0	-12442.0
30	14	50	49	635	67.0	-219177.0	-2152.0	-11772.0
30	14	50	49	636	68.0	-219866.0	-2179.0	-11618.0
30	14	50	49	636	69.0	-219299.0	-2095.0	-12162.0
30	14	50	49	637	70.0	-217036.0	-2059.0	-12284.0
30	14	50	49	638	71.0	-213630.0	-2100.0	-12241.0
30	14	50	49	638	72.0	-209534.0	-2154.0	-12091.0
30	14	50	49	639	73.0	-204766.0	-2134.0	-12163.0
30	14	50	49	640	74.0	-200214.0	-2009.0	-12262.0
30	14	50	49	640	75.0	-196498.0	-2104.0	-12147.0
30	14	50	49	641	77.0	-191986.0	-2180.0	-11789.0
30	14	50	49	642	78.0	-191504.0	-2159.0	-12032.0
30	14	50	49	642	79.0	-191861.0	-2131.0	-12522.0
30	14	50	49	643	80.0	-193171.0	-2086.0	-11699.0
30	14	50	49	644	81.0	-195543.0	-2171.0	-11325.0
30	14	50	49	644	82.0	-198519.0	-2156.0	-12081.0
30	14	50	49	675	83.0	-201905.0	-2129.0	-11970.0
30	14	50	49	676	84.0	-204949.0	-2118.0	-12030.0
30	14	50	49	677	85.0	-207162.0	-2083.0	-11681.0
30	14	50	49	678	86.0	-207937.0	-2097.0	-11025.0
30	14	50	49	679	87.0	-207654.0	-2149.0	-11119.0
30	14	50	49	679	88.0	-207041.0	-2201.0	-11353.0
30	14	50	49	680	89.0	-205861.0	-2174.0	-11946.0
30	14	50	49	681	90.0	-203962.0	-2187.0	-11496.0
30	14	50	49	682	91.0	-202445.0	-2195.0	-11146.0
30	14	50	49	682	92.0	-201596.0	-2256.0	-11293.0
30	14	50	49	683	93.0	-201302.0	-2190.0	-11586.0
30	14	50	49	684	94.0	-201970.0	-2221.0	-11310.0
30	14	50	49	684	95.0	-202843.0	-2241.0	-10772.0
30	14	50	49	685	96.0	-203616.0	-2257.0	-10777.0
30	14	50	49	686	97.0	-204114.0	-2217.0	-11269.0
30	14	50	49	687	99.0	-204418.0	-2272.0	-11662.0
30	14	50	49	687	100.0	-204154.0	-2329.0	-11473.0
30	14	50	49	688	101.0	-203438.0	-2330.0	-11485.0
30	14	50	49	688	102.0	-203304.0	-2306.0	-11253.0
30	14	50	49	689	103.0	-203699.0	-2294.0	-11324.0
30	14	50	49	690	104.0	-204456.0	-2285.0	-11352.0
30	14	50	49	690	105.0	-205426.0	-2406.0	-10691.0
30	14	50	49	719	106.0	-206627.0	-2361.0	-10860.0
30	14	50	49	721	107.0	-207878.0	-2198.0	-10923.0
30	14	50	49	722	108.0	-208722.0	-2299.0	-11071.0
30	14	50	49	723	109.0	-209154.0	-2323.0	-11197.0
30	14	50	49	724	110.0	-209278.0	-2267.0	-11447.0
30	14	50	49	725	111.0	-208872.0	-2380.0	-11542.0
30	14	50	49	726	112.0	-208289.0	-2374.0	-11059.0
30	14	50	49	727	113.0	-207719.0	-2296.0	-11279.0
30	14	50	49	728	114.0	-206727.0	-2407.0	-11701.0
30	14	50	49	729	115.0	-206049.0	-2397.0	-11117.0
30	14	50	49	729	116.0	-205356.0	-2434.0	-11362.0
30	14	50	49	740	117.0	-204904.0	-2437.0	-11321.0
30	14	50	49	742	118.0	-204426.0	-2391.0	-11356.0
30	14	50	49	743	119.0	-203804.0	-2377.0	-11778.0
30	14	50	49	743	120.0	-202854.0	-2376.0	-12255.0
30	14	50	49	744	122.0	-200249.0	-2375.0	-11456.0
30	14	50	49	744	123.0	-198470.0	-2456.0	-11774.0
30	14	50	49	745	124.0	-196259.0	-2467.0	-11702.0
30	14	50	49	746	125.0	-193822.0	-2460.0	-11162.0
30	14	50	49	746	126.0	-191919.0	-2501.0	-10612.0
30	14	50	49	747	127.0	-190779.0	-2369.0	-10772.0
30	14	50	49	764	128.0	-189971.0	-2409.0	-11621.0
30	14	50	49	765	129.0	-189366.0	-2434.0	-12268.0
30	14	50	49	766	130.0	-188792.0	-2521.0	-12648.0
30	14	50	49	766	131.0	-188892.0	-2532.0	-13254.0
30	14	50	49	767	132.0	-189335.0	-2483.0	-13749.0
30	14	50	49	768	133.0	-190094.0	-2519.0	-13832.0
30	14	50	49	768	134.0	-191433.0	-2499.0	-13336.0
30	14	50	49	769	135.0	-193307.0	-2587.0	-12782.0
30	14	50	49	769	136.0	-195487.0	-2612.0	-11972.0
30	14	50	49	770	137.0	-197689.0	-2597.0	-11586.0
30	14	50	49	771	138.0	-199796.0	-2615.0	-12116.0
30	14	50	49	771	139.0	-202337.0	-2627.0	-12233.0
30	14	50	49	772	140.0	-205652.0	-2572.0	-12288.0
30	14	50	49	773	141.0	-209066.0	-2600.0	-12395.0
30	14	50	49	773	142.0	-212237.0	-2699.0	-12167.0
30	14	50	49	781	144.0	-216317.0	-2626.0	-12469.0
30	14	50	49	782	145.0	-217457.0	-2736.0	-12162.0
30	14	50	49	782	146.0	-217451.0	-2671.0	-11371.0
30	14	50	49	783	147.0	-215961.0	-2680.0	-11958.0
30	14	50	49	784	148.0	-213419.0	-2644.0	-12210.0
30	14	50	49	784	149.0	-210345.0	-2615.0	-12051.0
30	14	50	49	785	150.0	-206181.0	-2557.0	-11841.0
30	14	50	49	809	151.0	-201299.0	-2614.0	-11955.0
30	14	50	49	810	152.0	-196196.0	-2631.0	-11547.0
30	14	50	49	810	153.0	-190661.0	-2606.0	-11534.0
30	14	50	49	811	154.0	-185262.0	-2750.0	-11284.0
30	14	50	49	812	155.0	-180203.0	-2675.0	-10902.0
30	14	50	49	812	156.0	-175391.0	-2736.0	-10937.0
30	14	50	49	813	157.0	-171194.0	-2826.0	-10665.0
30	14	50	49	813	158.0	-168537.0	-2874.0	-10901.0
30	14	50	49	814	159.0	-167177.0	-2830.0	-10953.0
30	14	50	49	815	160.0	-166873.0	-2679.0	-10855.0
30	14	50	49	815	161.0	-167872.0	-2683.0	-11078.0
30	14	50	49	816	162.0	-169953.0	-2800.0	-10958.0
30	14	50	49	816	163.0	-172936.0	-2807.0	-10997.0
30	14	50	49	817	164.0	-176881.0	-2755.0	-11091.0
30	14	50	49	817	165.0	-181441.0	-2749.0	-11116.0
30	14	50	49	818	167.0	-189357.0	-2867.0	-10459.0
30	14	50	49	819	168.0	-192942.0	-2850.0	-10738.0
30	14	50	49	819	169.0	-196307.0	-2766.0	-10969.0
30	14	50	49	820	170.0	-199152.0	-2808.0	-10955.0
30	14	50	49	820	171.0	-201029.0	-2785.0	-10886.0
30	14	50	49	821	172.0	-202119.0	-2832.0	-11000.0
30	14	50	49	853	173.0	-203091.0	-2767.0	-10681.0
30	14	50	49	854	174.0	-203732.0	-2750.0	-10271.0
30	14	50	49	855	175.0	-203621.0	-2815.0	-10112.0
30	14	50	49	855	176.0	-203311.0	-2809.0	-10214.0
30	14	50	49	856	177.0	-202921.0	-2890.0	-10576.0
30	14	50	49	856	178.0	-202787.0	-2912.0	-11677.0
30	14	50	49	864	179.0	-202542.0	-2831.0	-11958.0
30	14	50	49	865	180.0	-201917.0	-2839.0	-11270.0
30	14	50	49	866	181.0	-201407.0	-2867.0	-11084.0
30	14	50	49	866	182.0	-200716.0	-2882.0	-11460.0
30	14	50	49	867	183.0	-199016.0	-2952.0	-11542.0
30	14	50	49	867	184.0	-197085.0	-2987.0	-11753.0
30	14	50	49	868	185.0	-195457.0	-2984.0	-12204.0
30	14	50	49	869	186.0	-194191.0	-2972.0	-13086.0
30	14	50	49	869	187.0	-193111.0	-2969.0	-15001.0
30	14	50	49	870	189.0	-191418.0	-2877.0	-21856.0
30	14	50	49	870	190.0	-191524.0	-2927.0	-24901.0
30	14	50	49	871	191.0	-192266.0	-2937.0	-27197.0
30	14	50	49	871	192.0	-193254.0	-2959.0	-29354.0
30	14	50	49	872	193.0	-194234.0	-2921.0	-31449.0
30	14	50	49	872	194.0	-194464.0	-2914.0	-33678.0
30	14	50	49	873	195.0	-194241.0	-3018.0	-34276.0
30	14	50	49	900	196.0	-193946.0	-3004.0	-32744.0
30	14	50	49	900	197.0	-193929.0	-2917.0	-30066.0
30	14	50	49	901	198.0	-194724.0	-2953.0	-27499.0
30	14	50	49	902	199.0	-196385.0	-2950.0	-23352.0
30	14	50	49	902	200.0	-198789.0	-2994.0	-16473.0
30	14	50	49	903	201.0	-201676.0	-3022.0	-7940.0
30	14	50	49	904	202.0	-204421.0	-3015.0	-2960.0
30	14	50	49	904	203.0	-207039.0	-3029.0	-702.0
30	14	50	49	905	204.0	-209466.0	-2961.0	-551.0
30	14	50	49	905	205.0	-211735.0	-3027.0	-833.0
30	14	50	49	906	206.0	-214189.0	-3052.0	-1542.0
30	14	50	49	907	207.0	-216864.0	-3131.0	-1488.0
30	14	50	49	907	208.0	-219822.0	-3141.0	-1422.0
30	14	50	49	908	209.0	-223094.0	-3153.0	-1945.0
30	14	50	49	909	210.0	-226031.0	-3112.0	-2180.0
30	14	50	49	909	212.0	-220441.0	-3097.0	-2252.0
30	14	50	49	910	213.0	-210696.0	-3087.0	-3816.0
30	14	50	49	910	214.0	-199499.0	-3110.0	-5154.0
30	14	50	49	911	215.0	-189679.0	-3149.0	-6187.0
30	14	50	49	912	216.0	-183312.0	-3162.0	-7607.0
30	14	50	49	912	217.0	-180791.0	-3165.0	-8546.0
30	14	50	49	944	218.0	-181316.0	-3150.0	-9728.0
30	14	50	49	944	219.0	-184767.0	-3127.0	-11378.0
30	14	50	49	945	220.0	-190094.0	-3102.0	-12096.0
30	14	50	49	946	221.0	-194736.0	-3083.0	-12078.0
30	14	50	49	946	222.0	-197119.0	-3077.0	-12338.0
30	14	50	49	947	223.0	-197054.0	-3071.0	-13092.0
30	14	50	49	948	224.0	-195531.0	-3106.0	-12686.0
30	14	50	49	948	225.0	-192911.0	-3162.0	-12017.0
30	14	50	49	949	226.0	-191749.0	-3162.0	-11892.0
30	14	50	49	961	227.0	-193187.0	-3171.0	-11999.0
30	14	50	49	962	228.0	-196866.0	-3076.0	-12726.0
30	14	50	49	962	229.0	-202487.0	-3129.0	-13028.0
30	14	50	49	963	230.0	-208939.0	-3142.0	-13312.0
30	14	50	49	964	231.0	-214584.0	-3214.0	-13827.0
30	14	50	49	964	232.0	-217846.0	-3192.0	-13699.0
30	14	50	49	965	234.0	-214012.0	-3123.0	-13701.0
30	14	50	49	965	235.0	-208438.0	-3141.0	-13766.0
30	14	50	49	966	236.0	-201862.0	-3146.0	-14025.0
30	14	50	49	966	237.0	-194657.0	-3104.0	-14339.0
30	14	50	49	967	238.0	-188041.0	-3133.0	-14854.0
30	14	50	49	968	239.0	-182571.0	-3118.0	-14953.0
30	14	50	49	989	240.0	-178316.0	-3126.0	-14711.0
30	14	50	49	990	241.0	-175383.0	-3091.0	-15236.0
30	14	50	49	990	242.0	-174381.0	-3033.0	-15456.0
30	14	50	49	991	243.0	-175341.0	-3117.0	-15426.0
30	14	50	49	992	244.0	-178344.0	-3139.0	-15443.0
30	14	50	49	992	245.0	-183086.0	-3134.0	-15206.0
30	14	50	49	993	246.0	-189296.0	-3123.0	-15002.0
30	14	50	49	993	247.0	-196613.0	-3090.0	-15391.0
30	14	50	49	994	248.0	-204533.0	-3022.0	-15806.0
30	14	50	49	995	249.0	-211838.0	-3067.0	-16008.0
30	14	50	49	995	250.0	-218215.0	-3097.0	-16269.0
30	14	50	49	996	251.0	-223636.0	-3109.0	-16236.0
30	14	50	49	997	252.0	-227557.0	-3135.0	-15917.0
30	14	50	49	997	253.0	-229232.0	-3097.0	-15755.0
30	14	50	49	998	254.0	-229494.0	-3135.0	-15756.0
30	14	50	49	999	0.0	-225771.0	-3157.0	-15495.0
30	14	50	49	999	1.0	-221974.0	-3058.0	-16147.0
30	14	50	50	0	2.0	-217827.0	-3061.0	-16852.0
30	14	50	50	0	3.0	-213843.0	-3069.0	-16759.0
30	14	50	50	1	4.0	-209512.0	-3096.0	-17216.0
30	14	50	50	2	5.0	-205221.0	-3128.0	-17644.0
30	14	50	50	2	6.0	-201203.0	-3049.0	-17790.0
30	14	50	50	35	7.0	-198334.0	-3077.0	-17860.0
30	14	50	50	35	8.0	-196694.0	-2921.0	-17594.0
30	14	50	50	36	9.0	-196229.0	-3015.0	-17216.0
30	14	50	50	37	10.0	-196468.0	-3077.0	-17487.0
30	14	50	50	37	11.0	-196178.0	-2996.0	-17542.0
30	14	50	50	38	12.0	-195402.0	-3002.0	-18040.0
30	14	50	50	38	13.0	-194387.0	-2976.0	-18017.0
30	14	50	50	39	14.0	-193413.0	-2991.0	-18504.0
30	14	50	50	40	15.0	-192013.0	-3057.0	-18810.0
30	14	50	50	40	16.0	-190705.0	-3036.0	-18843.0
30	14	50	50	41	17.0	-190094.0	-3062.0	-19386.0
30	14	50	50	42	18.0	-189917.0	-3032.0	-19479.0
30	14	50	50	42	19.0	-190841.0	-3046.0	-19539.0
30	14	50	50	43	20.0	-193442.0	-3068.0	-19539.0
30	14	50	50	43	21.0	-197202.0	-2994.0	-19897.0
30	14	50	50	44	23.0	-204544.0	-3038.0	-20535.0
30	14	50	50	45	24.0	-207299.0	-2966.0	-20201.0
30	14	50	50	45	25.0	-209656.0	-2987.0	-20693.0
30	14	50	50	46	26.0	-211445.0	-3018.0	-20953.0
30	14	50	50	46	27.0	-212394.0	-2979.0	-21069.0
30	14	50	50	47	28.0	-212139.0	-2869.0	-21710.0
30	14	50	50	81	29.0	-210668.0	-2902.0	-22039.0
30	14	50	50	81	30.0	-208634.0	-3003.0	-22188.0
30	14	50	50	82	31.0	-206545.0	-2903.0	-22276.0
30	14	50	50	83	32.0	-204829.0	-2916.0	-22407.0
30	14	50	50	83	33.0	-204222.0	-2988.0	-21854.0
30	14	50	50	84	34.0	-204733.0	-2971.0	-22099.0
30	14	50	50	84	35.0	-205785.0	-3034.0	-22512.0
30	14	50	50	85	36.0	-207143.0	-3044.0	-22698.0
30	14	50	50	86	37.0	-208411.0	-2924.0	-22801.0
30	14	50	50	86	38.0	-209202.0	-2894.0	-23018.0
30	14	50	50	87	39.0	-209231.0	-3061.0	-22973.0
30	14	50	50	88	40.0	-208977.0	-3099.0	-22839.0
30	14	50	50	88	41.0	-208342.0	-2894.0	-22923.0
30	14	50	50	89	42.0	-207569.0	-2889.0	-22961.0
30	14	50	50	90	43.0	-206436.0	-2921.0	-23096.0
30	14	50	50	90	45.0	-201972.0	-2942.0	-23095.0
30	14	50	50	91	46.0	-198502.0	-2909.0	-23090.0
30	14	50	50	91	47.0	-194871.0	-2934.0	-23119.0
30	14	50	50	92	48.0	-191277.0	-2861.0	-22839.0
30	14	50	50	93	49.0	-187800.0	-2894.0	-22499.0
30	14	50	50	93	50.0	-184807.0	-2907.0	-22411.0
30	14	50	50	94	51.0	-182296.0	-2855.0	-22539.0
30	14	50	50	126	52.0	-179913.0	-2836.0	-22459.0
30	14	50	50	126	53.0	-177917.0	-2841.0	-22581.0
30	14	50	50	127	54.0	-176493.0	-2808.0	-22448.0
30	14	50	50	128	55.0	-175467.0	-2842.0	-21970.0
30	14	50	50	128	56.0	-174982.0	-2744.0	-21146.0
30	14	50	50	129	57.0	-175186.0	-2717.0	-20634.0
30	14	50	50	130	58.0	-175957.0	-2799.0	-19880.0
30	14	50	50	130	59.0	-177152.0	-2857.0	-19113.0
30	14	50	50	131	60.0	-178408.0	-2986.0	-18973.0
30	14	50	50	132	61.0	-180007.0	-2835.0	-18521.0
30	14	50	50	132	62.0	-182029.0	-2804.0	-18282.0
30	14	50	50	133	63.0	-184204.0	-2847.0	-18147.0
30	14	50	50	134	64.0	-186179.0	-2851.0	-17808.0
30	14	50	50	134	65.0	-188185.0	-2754.0	-17063.0
30	14	50	50	135	66.0	-190475.0	-2827.0	-16832.0
30	14	50	50	135	68.0	-196127.0	-2682.0	-15291.0
30	14	50	50	136	69.0	-199140.0	-2789.0	-14765.0
30	14	50	50	137	70.0	-201945.0	-2859.0	-14756.0
30	14	50	50	137	71.0	-204229.0	-2832.0	-13996.0
30	14	50	50	138	72.0	-206146.0	-2687.0	-13271.0
30	14	50	50	138	73.0	-208254.0	-2696.0	-13043.0
30	14	50	50	169	74.0	-210239.0	-2716.0	-12651.0
30	14	50	50	170	75.0	-212006.0	-2683.0	-12653.0
30	14	50	50	171	76.0	-213852.0	-2647.0	-12618.0
30	14	50	50	171	77.0	-215648.0	-2588.0	-12361.0
30	14	50	50	172	78.0	-217214.0	-2642.0	-11671.0
30	14	50	50	173	79.0	-218760.0	-2730.0	-11532.0
30	14	50	50	173	80.0	-220136.0	-2660.0	-11463.0
30	14	50	50	194	81.0	-221513.0	-2771.0	-11536.0
30	14	50	50	194	82.0	-223086.0	-2755.0	-11766.0
30	14	50	50	195	83.0	-224561.0	-2721.0	-11433.0
30	14	50	50	196	84.0	-225529.0	-2589.0	-11031.0
30	14	50	50	196	85.0	-226254.0	-2697.0	-11097.0
30	14	50	50	197	86.0	-225707.0	-2751.0	-10923.0
30	14	50	50	197	87.0	-223276.0	-2696.0	-10997.0
30	14	50	50	198	88.0	-219245.0	-2647.0	-10877.0
30	14	50	50	198	90.0	-208209.0	-2613.0	-10276.0
30	14	50	50	199	91.0	-199821.0	-2676.0	-10596.0
30	14	50	50	200	92.0	-188417.0	-2607.0	-10639.0
30	14	50	50	200	93.0	-177908.0	-2564.0	-10373.0
30	14	50	50	201	94.0	-173637.0	-2556.0	-10033.0
30	14	50	50	201	95.0	-177457.0	-2556.0	-9897.0
30	14	50	50	202	96.0	-185894.0	-2501.0	-9701.0
30	14	50	50	217	97.0	-195082.0	-2504.0	-10081.0
30	14	50	50	218	98.0	-203358.0	-2434.0	-10107.0
30	14	50	50	219	99.0	-208537.0	-2439.0	-9301.0
30	14	50	50	220	100.0	-209601.0	-2384.0	-9432.0
30	14	50	50	220	101.0	-208139.0	-2438.0	-9937.0
30	14	50	50	221	102.0	-206556.0	-2449.0	-10076.0
30	14	50	50	222	103.0	-205053.0	-2524.0	-10304.0
30	14	50	50	222	104.0	-202806.0	-2496.0	-10251.0
30	14	50	50	223	105.0	-199128.0	-2384.0	-10258.0
30	14	50	50	224	106.0	-194078.0	-2317.0	-9791.0
30	14	50	50	224	107.0	-187948.0	-2404.0	-9742.0
30	14	50	50	225	108.0	-181334.0	-2464.0	-9628.0
30	14	50	50	226	109.0	-175376.0	-2331.0	-9477.0
30	14	50	50	226	110.0	-170625.0	-2322.0	-9302.0
30	14	50	50	227	111.0	-167946.0	-2404.0	-9565.0
30	14	50	50	227	113.0	-170152.0	-2394.0	-9552.0
30	14	50	50	228	114.0	-174103.0	-2417.0	-9619.0
30	14	50	50	228	115.0	-179571.0	-2364.0	-9582.0
30	14	50	50	229	116.0	-185574.0	-2274.0	-9654.0
30	14	50	50	230	117.0	-191040.0	-2262.0	-9857.0
30	14	50	50	230	118.0	-194486.0	-2340.0	-9511.0
30	14	50	50	260	119.0	-195179.0	-2306.0	-9364.0
30	14	50	50	261	120.0	-194579.0	-2301.0	-9651.0
30	14	50	50	262	121.0	-193667.0	-2302.0	-10091.0
30	14	50	50	262	122.0	-193305.0	-2319.0	-10394.0
30	14	50	50	263	123.0	-193534.0	-2220.0	-10487.0
30	14	50	50	264	124.0	-194259.0	-2239.0	-10619.0
30	14	50	50	264	125.0	-195565.0	-2344.0	-10725.0
30	14	50	50	265	126.0	-197381.0	-2349.0	-10647.0
30	14	50	50	266	127.0	-199497.0	-2372.0	-10616.0
30	14	50	50	266	128.0	-201839.0	-2322.0	-10732.0
30	14	50	50	267	129.0	-204425.0	-2376.0	-10581.0
30	14	50	50	268	130.0	-206564.0	-2354.0	-10373.0
30	14	50	50	268	131.0	-208059.0	-2453.0	-10769.0
30	14	50	50	269	132.0	-208712.0	-2326.0	-11279.0
30	14	50	50	270	133.0	-208388.0	-2360.0	-10950.0
30	14	50	50	270	135.0	-206054.0	-2358.0	-10809.0
30	14	50	50	271	136.0	-204790.0	-2379.0	-10557.0
30	14	50	50	271	137.0	-204321.0	-2300.0	-10288.0
30	14	50	50	272	138.0	-204521.0	-2269.0	-10346.0
30	14	50	50	273	139.0	-205237.0	-2217.0	-10202.0
30	14	50	50	273	140.0	-206297.0	-2319.0	-9602.0
30	14	50	50	274	141.0	-207327.0	-2275.0	-9883.0
30	14	50	50	304	142.0	-208191.0	-2219.0	-10283.0
30	14	50	50	305	143.0	-208080.0	-2236.0	-9862.0
30	14	50	50	306	144.0	-207056.0	-2214.0	-9559.0
30	14	50	50	307	145.0	-205541.0	-2235.0	-9749.0
30	14	50	50	307	146.0	-204047.0	-2300.0	-9722.0
30	14	50	50	308	147.0	-202787.0	-2309.0	-10018.0
30	14	50	50	309	148.0	-201943.0	-2429.0	-9998.0
30	14	50	50	309	149.0	-201623.0	-2337.0	-9518.0
30	14	50	50	310	150.0	-200992.0	-2261.0	-9366.0
30	14	50	50	311	151.0	-199948.0	-2299.0	-9826.0
30	14	50	50	311	152.0	-198595.0	-2227.0	-10164.0
30	14	50	50	312	153.0	-196669.0	-2301.0	-10108.0
30	14	50	50	313	154.0	-194606.0	-2371.0	-9942.0
30	14	50	50	314	155.0	-192540.0	-2412.0	-10124.0
30	14	50	50	315	156.0	-190314.0	-2417.0	-10182.0
30	14	50	50	315	158.0	-188515.0	-2308.0	-9971.0
30	14	50	50	316	159.0	-189479.0	-2413.0	-9841.0
30	14	50	50	317	160.0	-191706.0	-2336.0	-9880.0
30	14	50	50	317	161.0	-194168.0	-2346.0	-9897.0
30	14	50	50	318	162.0	-196572.0	-2354.0	-9862.0
30	14	50	50	318	163.0	-198607.0	-2299.0	-10122.0
30	14	50	50	350	164.0	-200102.0	-2343.0	-10154.0
30	14	50	50	351	165.0	-201149.0	-2306.0	-10211.0
30	14	50	50	351	166.0	-201951.0	-2241.0	-10507.0
30	14	50	50	352	167.0	-202724.0	-2207.0	-10418.0
30	14	50	50	353	168.0	-203654.0	-2185.0	-10119.0
30	14	50	50	353	169.0	-204325.0	-2182.0	-10407.0
30	14	50	50	354	170.0	-204741.0	-2272.0	-10635.0
30	14	50	50	355	171.0	-204949.0	-2372.0	-10276.0
30	14	50	50	356	172.0	-204687.0	-2307.0	-10389.0
30	14	50	50	356	173.0	-204231.0	-2299.0	-10399.0
30	14	50	50	357	174.0	-203760.0	-2281.0	-9837.0
30	14	50	50	357	175.0	-202721.0	-2273.0	-9550.0
30	14	50	50	358	176.0	-201892.0	-2304.0	-9487.0
30	14	50	50	359	177.0	-201346.0	-2311.0	-9415.0
30	14	50	50	359	178.0	-201350.0	-2296.0	-8954.0
30	14	50	50	360	180.0	-202487.0	-2289.0	-8571.0
30	14	50	50	361	181.0	-203573.0	-2292.0	-8722.0
30	14	50	50	361	182.0	-204849.0	-2234.0	-9241.0
30	14	50	50	362	183.0	-206881.0	-2271.0	-9209.0
30	14	50	50	363	184.0	-209399.0	-2255.0	-8853.0
30	14	50	50	363	185.0	-212243.0	-2226.0	-8966.0
30	14	50	50	394	186.0	-214944.0	-2178.0	-9196.0
30	14	50	50	395	187.0	-216806.0	-2229.0	-9447.0
30	14	50	50	396	188.0	-217767.0	-2248.0	-9342.0
30	14	50	50	397	189.0	-217899.0	-2185.0	-8947.0
30	14	50	50	398	190.0	-217206.0	-2151.0	-9138.0
30	14	50	50	398	191.0	-215691.0	-2206.0	-9817.0
30	14	50	50	399	192.0	-213701.0	-2224.0	-10289.0
30	14	50	50	400	193.0	-211453.0	-2222.0	-10289.0
30	14	50	50	400	194.0	-208768.0	-2252.0	-10247.0
30	14	50	50	401	195.0	-206227.0	-2181.0	-10126.0
30	14	50	50	402	196.0	-203771.0	-2217.0	-10427.0
30	14	50	50	403	197.0	-201131.0	-2260.0	-11076.0
30	14	50	50	403	198.0	-198135.0	-2280.0	-10719.0
30	14	50	50	404	199.0	-194701.0	-2349.0	-10449.0
30	14	50	50	405	200.0	-190773.0	-2344.0	-10674.0
30	14	50	50	405	203.0	-180436.0	-2241.0	-10932.0
30	14	50	50	406	204.0	-177749.0	-2261.0	-11781.0
30	14	50	50	406	205.0	-176404.0	-2311.0	-11967.0
30	14	50	50	407	206.0	-176620.0	-2218.0	-11532.0
30	14	50	50	408	207.0	-178379.0	-2172.0	-11968.0
30	14	50	50	408	208.0	-181300.0	-2175.0	-11902.0
30	14	50	50	440	209.0	-184716.0	-2211.0	-11414.0
30	14	50	50	440	210.0	-188380.0	-2120.0	-11177.0
30	14	50	50	441	211.0	-192214.0	-2125.0	-10918.0
30	14	50	50	442	212.0	-195877.0	-2150.0	-10181.0
30	14	50	50	443	213.0	-199769.0	-2196.0	-9781.0
30	14	50	50	443	214.0	-203729.0	-2168.0	-10613.0
30	14	50	50	444	215.0	-208004.0	-2161.0	-11022.0
30	14	50	50	445	216.0	-212129.0	-2158.0	-10749.0
30	14	50	50	445	217.0	-215656.0	-2157.0	-10749.0
30	14	50	50	446	218.0	-218047.0	-2126.0	-10013.0
30	14	50	50	447	219.0	-218760.0	-2171.0	-9806.0
30	14	50	50	447	220.0	-217738.0	-2191.0	-10212.0
30	14	50	50	448	221.0	-215118.0	-2149.0	-10494.0
30	14	50	50	449	222.0	-210814.0	-2156.0	-10556.0
30	14	50	50	449	223.0	-205062.0	-2182.0	-9808.0
30	14	50	50	450	225.0	-193403.0	-2137.0	-9545.0
30	14	50	50	451	226.0	-188824.0	-2119.0	-9829.0
30	14	50	50	451	227.0	-185417.0	-2127.0	-9687.0
30	14	50	50	452	228.0	-183519.0	-2099.0	-9291.0
30	14	50	50	452	229.0	-183096.0	-2102.0	-9214.0
30	14	50	50	453	230.0	-183533.0	-2096.0	-9091.0
30	14	50	50	485	231.0	-184245.0	-2124.0	-9676.0
30	14	50	50	485	232.0	-185958.0	-2126.0	-9914.0
30	14	50	50	486	233.0	-188747.0	-2119.0	-9575.0
30	14	50	50	487	234.0	-191612.0	-2097.0	-9112.0
30	14	50	50	488	235.0	-193982.0	-2116.0	-9420.0
30	14	50	50	488	236.0	-196119.0	-2102.0	-9119.0
30	14	50	50	489	237.0	-197672.0	-2099.0	-8899.0
30	14	50	50	490	238.0	-197844.0	-2156.0	-9102.0
30	14	50	50	491	239.0	-197034.0	-2167.0	-9082.0
30	14	50	50	491	240.0	-195244.0	-2151.0	-8701.0
30	14	50	50	492	241.0	-192779.0	-2142.0	-9523.0
30	14	50	50	493	242.0	-190681.0	-2170.0	-9771.0
30	14	50	50	493	243.0	-188938.0	-2128.0	-8472.0
30	14	50	50	494	244.0	-186744.0	-2147.0	-8426.0
30	14	50	50	495	245.0	-185031.0	-2158.0	-8735.0
30	14	50	50	496	247.0	-185188.0	-2156.0	-8205.0
30	14	50	50	497	248.0	-186558.0	-2148.0	-7852.0
30	14	50	50	497	249.0	-188347.0	-2154.0	-7742.0
30	14	50	50	498	250.0	-190152.0	-2140.0	-8146.0
30	14	50	50	499	251.0	-191594.0	-2133.0	-8808.0
30	14	50	50	500	252.0	-192419.0	-2141.0	-8754.0
30	14	50	50	500	253.0	-192919.0	-2113.0	-8084.0
30	14	50	50	529	254.0	-193074.0	-2095.0	-8047.0
30	14	50	50	530	255.0	-193172.0	-2115.0	-8346.0
30	14	50	50	531	0.0	-193251.0	-2054.0	-8631.0
30	14	50	50	532	1.0	-192837.0	-2063.0	-9077.0
30	14	50	50	533	2.0	-192546.0	-2068.0	-8898.0
30	14	50	50	534	3.0	-192060.0	-2115.0	-9345.0
30	14	50	50	534	4.0	-191029.0	-2104.0	-10719.0
30	14	50	50	535	5.0	-189816.0	-2171.0	-12360.0
30	14	50	50	536	6.0	-188589.0	-2122.0	-14991.0
30	14	50	50	537	7.0	-187357.0	-2100.0	-18377.0
30	14	50	50	537	8.0	-185984.0	-2147.0	-22075.0
30	14	50	50	538	9.0	-184692.0	-2169.0	-25962.0
30	14	50	50	539	10.0	-183584.0	-2146.0	-29731.0
30	14	50	50	540	11.0	-182426.0	-2119.0	-33725.0
30	14	50	50	541	12.0	-181459.0	-2169.0	-36340.0
30	14	50	50	541	14.0	-180072.0	-2204.0	-39936.0
30	14	50	50	542	15.0	-180111.0	-2219.0	-38351.0
30	14	50	50	543	16.0	-181467.0	-2187.0	-35945.0
30	14	50	50	544	17.0	-184833.0	-2144.0	-32321.0
30	14	50	50	544	18.0	-190619.0	-2169.0	-24934.0
30	14	50	50	545	19.0	-197524.0	-2133.0	-13744.0
30	14	50	50	575	20.0	-204688.0	-2113.0	-5196.0
30	14	50	50	575	21.0	-211708.0	-2080.0	-769.0
30	14	50	50	576	22.0	-218424.0	-2038.0	2444.0
30	14	50	50	577	23.0	-224837.0	-2098.0	1828.0
30	14	50	50	578	24.0	-231398.0	-2148.0	874.0
30	14	50	50	579	25.0	-238132.0	-2159.0	290.0
30	14	50	50	580	26.0	-245302.0	-2106.0	-457.0
30	14	50	50	580	27.0	-252972.0	-2061.0	-436.0
30	14	50	50	581	28.0	-259441.0	-2122.0	-244.0
30	14	50	50	582	29.0	-259002.0	-2118.0	-1080.0
30	14	50	50	582	30.0	-247897.0	-2114.0	-2133.0
30	14	50	50	583	31.0	-231343.0	-2132.0	-2996.0
30	14	50	50	584	32.0	-215362.0	-2164.0	-3432.0
30	14	50	50	584	33.0	-204784.0	-2177.0	-4291.0
30	14	50	50	585	34.0	-200311.0	-2153.0	-5543.0
30	14	50	50	586	36.0	-200266.0	-2191.0	-8214.0
30	14	50	50	586	37.0	-201687.0	-2196.0	-9029.0
30	14	50	50	587	38.0	-203512.0	-2201.0	-9604.0
30	14	50	50	588	39.0	-205649.0	-2144.0	-10164.0
30	14	50	50	588	40.0	-207014.0	-2151.0	-10597.0
30	14	50	50	589	41.0	-207407.0	-2111.0	-10724.0
30	14	50	50	589	42.0	-207843.0	-2099.0	-10261.0
30	14	50	50	620	43.0	-206730.0	-2115.0	-10679.0
30	14	50	50	620	44.0	-202427.0	-2089.0	-10881.0
30	14	50	50	621	45.0	-195534.0	-2081.0	-11082.0
30	14	50	50	622	46.0	-188327.0	-2053.0	-11199.0
30	14	50	50	623	47.0	-183288.0	-2046.0	-11566.0
30	14	50	50	623	48.0	-180364.0	-2080.0	-11557.0
30	14	50	50	624	49.0	-178411.0	-2074.0	-11367.0
30	14	50	50	625	50.0	-176586.0	-2076.0	-11992.0
30	14	50	50	626	51.0	-174048.0	-2077.0	-12349.0
30	14	50	50	626	52.0	-170378.0	-2124.0	-12127.0
30	14	50	50	627	53.0	-165747.0	-2107.0	-11840.0
30	14	50	50	628	54.0	-161124.0	-2116.0	-11951.0
30	14	50	50	628	55.0	-158011.0	-2137.0	-12229.0
30	14	50	50	629	56.0	-156681.0	-2114.0	-12416.0
30	14	50	50	630	57.0	-156711.0	-2157.0	-12591.0
30	14	50	50	630	59.0	-158291.0	-2129.0	-12882.0
30	14	50	50	631	60.0	-160027.0	-2127.0	-12811.0
30	14	50	50	632	61.0	-163709.0	-2111.0	-13404.0
30	14	50	50	632	62.0	-169157.0	-2140.0	-13218.0
30	14	50	50	633	63.0	-176681.0	-2143.0	-13176.0
30	14	50	50	633	64.0	-186126.0	-2140.0	-12686.0
30	14	50	50	664	65.0	-196872.0	-2118.0	-12903.0
30	14	50	50	665	66.0	-207601.0	-2121.0	-13346.0
30	14	50	50	665	67.0	-217763.0	-2083.0	-13586.0
30	14	50	50	666	68.0	-226867.0	-2082.0	-13581.0
30	14	50	50	667	69.0	-233804.0	-2086.0	-13718.0
30	14	50	50	668	70.0	-238151.0	-2127.0	-14079.0
30	14	50	50	669	71.0	-239619.0	-2090.0	-14361.0
30	14	50	50	669	72.0	-237815.0	-2101.0	-14420.0
30	14	50	50	670	73.0	-233436.0	-2124.0	-14614.0
30	14	50	50	671	74.0	-227729.0	-2158.0	-14605.0
30	14	50	50	672	75.0	-221786.0	-2141.0	-15317.0
30	14	50	50	672	76.0	-216332.0	-2166.0	-15437.0
30	14	50	50	673	77.0	-212475.0	-2174.0	-14779.0
30	14	50	50	674	78.0	-210739.0	-2146.0	-15280.0
30	14	50	50	674	79.0	-210689.0	-2141.0	-15652.0
30	14	50	50	675	81.0	-216356.0	-2183.0	-15657.0
30	14	50	50	676	82.0	-221218.0	-2169.0	-15569.0
30	14	50	50	676	83.0	-225884.0	-2153.0	-15692.0
30	14	50	50	677	84.0	-229446.0	-2152.0	-16165.0
30	14	50	50	678	85.0	-231933.0	-2140.0	-17081.0
30	14	50	50	678	86.0	-233342.0	-2087.0	-17309.0
30	14	50	50	679	87.0	-233282.0	-2072.0	-16936.0
30	14	50	50	710	88.0	-231942.0	-2054.0	-17270.0
30	14	50	50	711	89.0	-229547.0	-2067.0	-17263.0
30	14	50	50	712	90.0	-225917.0	-2077.0	-17051.0
30	14	50	50	712	91.0	-221356.0	-2086.0	-17539.0
30	14	50	50	713	92.0	-215861.0	-2065.0	-17691.0
30	14	50	50	714	93.0	-209480.0	-2085.0	-17728.0
30	14	50	50	714	94.0	-203062.0	-2112.0	-18131.0
30	14	50	50	715	95.0	-196896.0	-2125.0	-18829.0
30	14	50	50	716	96.0	-191092.0	-2124.0	-19134.0
30	14	50	50	716	97.0	-186612.0	-2114.0	-19411.0
30	14	50	50	755	98.0	-183572.0	-2122.0	-19749.0
30	14	50	50	756	99.0	-181890.0	-2161.0	-19903.0
30	14	50	50	757	100.0	-181453.0	-2151.0	-20309.0
30	14	50	50	758	101.0	-182724.0	-2156.0	-20491.0
30	14	50	50	759	102.0	-185691.0	-2179.0	-20257.0
30	14	50	50	760	104.0	-192823.0	-2178.0	-19944.0
30	14	50	50	760	105.0	-195793.0	-2194.0	-20207.0
30	14	50	50	761	106.0	-197927.0	-2155.0	-20734.0
30	14	50	50	762	107.0	-199487.0	-2125.0	-21263.0
30	14	50	50	762	108.0	-200609.0	-2124.0	-21316.0
30	14	50	50	763	109.0	-202087.0	-2166.0	-21502.0
30	14	50	50	764	110.0	-203912.0	-2147.0	-22129.0
30	14	50	50	764	111.0	-205873.0	-2109.0	-22040.0
30	14	50	50	765	112.0	-207879.0	-2177.0	-22042.0
30	14	50	50	766	113.0	-208939.0	-2212.0	-22208.0
30	14	50	50	767	114.0	-208985.0	-2196.0	-22271.0
30	14	50	50	767	126.0	-199568.0	-2135.0	-21866.0
30	14	50	50	768	127.0	-199483.0	-2144.0	-21782.0
30	14	50	50	769	128.0	-199738.0	-2127.0	-21371.0
30	14	50	50	769	129.0	-199923.0	-2105.0	-21145.0
30	14	50	50	770	130.0	-200090.0	-2093.0	-21139.0
30	14	50	50	771	131.0	-198774.0	-2053.0	-20557.0
30	14	50	50	771	132.0	-197274.0	-2040.0	-19687.0
30	14	50	50	800	133.0	-195692.0	-2041.0	-19106.0
30	14	50	50	801	134.0	-193628.0	-2031.0	-19041.0
30	14	50	50	802	135.0	-192194.0	-1995.0	-19358.0
30	14	50	50	803	136.0	-191441.0	-1984.0	-18610.0
30	14	50	50	803	137.0	-191702.0	-2011.0	-17807.0
30	14	50	50	804	138.0	-192941.0	-2021.0	-17266.0
30	14	50	50	806	139.0	-195264.0	-2044.0	-16713.0
30	14	50	50	807	140.0	-197987.0	-2016.0	-16165.0
30	14	50	50	807	141.0	-200097.0	-2005.0	-15697.0
30	14	50	50	808	142.0	-201952.0	-2004.0	-15277.0
30	14	50	50	809	143.0	-203580.0	-2024.0	-15231.0
30	14	50	50	810	144.0	-204756.0	-2024.0	-15046.0
30	14	50	50	810	145.0	-205394.0	-1975.0	-14522.0
30	14	50	50	811	146.0	-206447.0	-1936.0	-14306.0
30	14	50	50	812	147.0	-208094.0	-1931.0	-14171.0
30	14	50	50	812	149.0	-212434.0	-1959.0	-13174.0
30	14	50	50	813	150.0	-215612.0	-1979.0	-13102.0
30	14	50	50	813	151.0	-219174.0	-1963.0	-12751.0
30	14	50	50	814	152.0	-222609.0	-1933.0	-11686.0
30	14	50	50	815	153.0	-225482.0	-1912.0	-11192.0
30	14	50	50	815	154.0	-227220.0	-1864.0	-11098.0
30	14	50	50	845	155.0	-227979.0	-1829.0	-10752.0
30	14	50	50	846	156.0	-227536.0	-1840.0	-11112.0
30	14	50	50	847	157.0	-226079.0	-1821.0	-11109.0
30	14	50	50	847	158.0	-224006.0	-1797.0	-10786.0
30	14	50	50	848	159.0	-222452.0	-1810.0	-10506.0
30	14	50	50	849	160.0	-221561.0	-1802.0	-10940.0
30	14	50	50	849	161.0	-221415.0	-1771.0	-10987.0
30	14	50	50	850	162.0	-221468.0	-1787.0	-10387.0
30	14	50	50	851	163.0	-221474.0	-1814.0	-10097.0
30	14	50	50	852	164.0	-221365.0	-1811.0	-9862.0
30	14	50	50	852	165.0	-220444.0	-1794.0	-10159.0
30	14	50	50	853	166.0	-218906.0	-1775.0	-10076.0
30	14	50	50	854	167.0	-216117.0	-1783.0	-10079.0
30	14	50	50	854	168.0	-210192.0	-1772.0	-9518.0
30	14	50	50	855	169.0	-200491.0	-1794.0	-8854.0
30	14	50	50	856	171.0	-182233.0	-1785.0	-8599.0
30	14	50	50	856	172.0	-178663.0	-1739.0	-8587.0
30	14	50	50	857	173.0	-180064.0	-1765.0	-8887.0
30	14	50	50	858	174.0	-183551.0	-1725.0	-8927.0
30	14	50	50	858	175.0	-187501.0	-1735.0	-9239.0
30	14	50	50	859	176.0	-188839.0	-1722.0	-9766.0
30	14	50	50	859	177.0	-185317.0	-1683.0	-9719.0
30	14	50	50	890	178.0	-179815.0	-1682.0	-9944.0
30	14	50	50	891	179.0	-175471.0	-1671.0	-10121.0
30	14	50	50	892	180.0	-173160.0	-1642.0	-10062.0
30	14	50	50	893	181.0	-172093.0	-1663.0	-9807.0
30	14	50	50	894	182.0	-171264.0	-1677.0	-9369.0
30	14	50	50	895	183.0	-170380.0	-1703.0	-9232.0
30	14	50	50	896	184.0	-168972.0	-1703.0	-9204.0
30	14	50	50	897	185.0	-167020.0	-1669.0	-9824.0
30	14	50	50	897	186.0	-165570.0	-1648.0	-10035.0
30	14	50	50	898	187.0	-164674.0	-1631.0	-10114.0
30	14	50	50	899	188.0	-164256.0	-1645.0	-10186.0
30	14	50	50	899	189.0	-164900.0	-1670.0	-9674.0
30	14	50	50	900	190.0	-166979.0	-1723.0	-9673.0
30	14	50	50	901	191.0	-169676.0	-1726.0	-10052.0
30	14	50	50	901	193.0	-175096.0	-1734.0	-9620.0
30	14	50	50	902	194.0	-177382.0	-1746.0	-9563.0
30	14	50	50	934	195.0	-178658.0	-1688.0	-10196.0
30	14	50	50	981	196.0	-178153.0	-1691.0	-10255.0
30	14	50	50	981	197.0	-176066.0	-1664.0	-10115.0
30	14	50	50	982	198.0	-172794.0	-1657.0	-10318.0
30	14	50	50	983	199.0	-169184.0	-1683.0	-10314.0
30	14	50	50	984	200.0	-165991.0	-1641.0	-10034.0
30	14	50	50	984	201.0	-164068.0	-1669.0	-10126.0
30	14	50	50	985	202.0	-164026.0	-1637.0	-9916.0
30	14	50	50	986	203.0	-166341.0	-1645.0	-9764.0
30	14	50	50	987	204.0	-170926.0	-1683.0	-10058.0
30	14	50	50	987	205.0	-177379.0	-1663.0	-10827.0
30	14	50	50	988	206.0	-185587.0	-1667.0	-11161.0
30	14	50	50	989	207.0	-195029.0	-1681.0	-10997.0
30	14	50	50	989	208.0	-205214.0	-1709.0	-10827.0
30	14	50	50	990	209.0	-214757.0	-1723.0	-10673.0
30	14	50	50	991	216.0	-235692.0	-1733.0	-11266.0
30	14	50	50	991	238.0	-207182.0	-1796.0	-10526.0
30	14	50	50	992	239.0	-206162.0	-1767.0	-10373.0
30	14	50	50	993	240.0	-204271.0	-1779.0	-10364.0
30	14	50	50	993	241.0	-201737.0	-1781.0	-10036.0
30	14	50	50	994	242.0	-198395.0	-1761.0	-9722.0
30	14	50	50	994	243.0	-194407.0	-1734.0	-9864.0
30	14	50	50	995	244.0	-190126.0	-1728.0	-10018.0
30	14	50	51	26	245.0	-185717.0	-1701.0	-10364.0
30	14	50	51	27	246.0	-181747.0	-1723.0	-10319.0
30	14	50	51	27	247.0	-178569.0	-1690.0	-10277.0
30	14	50	51	28	248.0	-175847.0	-1704.0	-10370.0
30	14	50	51	29	249.0	-173310.0	-1686.0	-9980.0
30	14	50	51	30	250.0	-171152.0	-1683.0	-9981.0
30	14	50	51	31	251.0	-170055.0	-1674.0	-10113.0
30	14	50	51	32	252.0	-169653.0	-1702.0	-9774.0
30	14	50	51	32	253.0	-170606.0	-1732.0	-9715.0
30	14	50	51	33	254.0	-173176.0	-1706.0	-10013.0
30	14	50	51	34	255.0	-176919.0	-1717.0	-10064.0
30	14	50	51	35	0.0	-181867.0	-1710.0	-9901.0
30	14	50	51	35	1.0	-187762.0	-1692.0	-10132.0
30	14	50	51	36	2.0	-194384.0	-1708.0	-10077.0
30	14	50	51	37	3.0	-201135.0	-1750.0	-9726.0
30	14	50	51	47	5.0	-214945.0	-1739.0	-9740.0
30	14	50	51	48	6.0	-222074.0	-1781.0	-9218.0
30	14	50	51	49	7.0	-228787.0	-1786.0	-9311.0
30	14	50	51	49	8.0	-234239.0	-1792.0	-9582.0
30	14	50	51	50	9.0	-238180.0	-1735.0	-9889.0
30	14	50	51	51	10.0	-240996.0	-1691.0	-10252.0
30	14	50	51	71	11.0	-242621.0	-1646.0	-10568.0
30	14	50	51	72	12.0	-242483.0	-1699.0	-10395.0
30	14	50	51	72	13.0	-240441.0	-1702.0	-9728.0
30	14	50	51	73	14.0	-236974.0	-1683.0	-9479.0
30	14	50	51	73	15.0	-232522.0	-1621.0	-9362.0
30	14	50	51	74	16.0	-227647.0	-1677.0	-9224.0
30	14	50	51	75	17.0	-223183.0	-1720.0	-9552.0
30	14	50	51	75	18.0	-219161.0	-1719.0	-9701.0
30	14	50	51	76	19.0	-215517.0	-1696.0	-10000.0
30	14	50	51	77	20.0	-212214.0	-1687.0	-10358.0
30	14	50	51	77	21.0	-209459.0	-1703.0	-10227.0
30	14	50	51	78	22.0	-207634.0	-1699.0	-10006.0
30	14	50	51	78	23.0	-206916.0	-1725.0	-9857.0
30	14	50	51	79	24.0	-207066.0	-1710.0	-9626.0
30	14	50	51	80	25.0	-208492.0	-1718.0	-9852.0
30	14	50	51	80	27.0	-214195.0	-1744.0	-9956.0
30	14	50	51	81	28.0	-217447.0	-1756.0	-10269.0
30	14	50	51	82	29.0	-220967.0	-1729.0	-10621.0
30	14	50	51	82	30.0	-224407.0	-1676.0	-10139.0
30	14	50	51	83	31.0	-227113.0	-1651.0	-9818.0
30	14	50	51	83	32.0	-229057.0	-1653.0	-9804.0
30	14	50	51	84	33.0	-229890.0	-1654.0	-9641.0
30	14	50	51	114	34.0	-229363.0	-1705.0	-9619.0
30	14	50	51	115	35.0	-227349.0	-1662.0	-9761.0
30	14	50	51	115	36.0	-223936.0	-1698.0	-9588.0
30	14	50	51	116	37.0	-219256.0	-1695.0	-9170.0
30	14	50	51	117	38.0	-213824.0	-1696.0	-9616.0
30	14	50	51	118	39.0	-208202.0	-1726.0	-10001.0
30	14	50	51	118	40.0	-202890.0	-1659.0	-10009.0
30	14	50	51	119	41.0	-198044.0	-1701.0	-10063.0
30	14	50	51	119	42.0	-193886.0	-1682.0	-10043.0
30	14	50	51	120	43.0	-190259.0	-1699.0	-9864.0
30	14	50	51	121	44.0	-186828.0	-1702.0	-9359.0
30	14	50	51	121	45.0	-183952.0	-1682.0	-9047.0
30	14	50	51	122	46.0	-181819.0	-1674.0	-9059.0
30	14	50	51	122	47.0	-181043.0	-1732.0	-9091.0
30	14	50	51	123	48.0	-181214.0	-1758.0	-10162.0
30	14	50	51	124	50.0	-184701.0	-1688.0	-10702.0
30	14	50	51	124	51.0	-187684.0	-1685.0	-10766.0
30	14	50	51	125	52.0	-190550.0	-1682.0	-10773.0
30	14	50	51	125	53.0	-192944.0	-1668.0	-10583.0
30	14	50	51	126	54.0	-194964.0	-1684.0	-10866.0
30	14	50	51	126	55.0	-196444.0	-1654.0	-10657.0
30	14	50	51	159	56.0	-197263.0	-1647.0	-10557.0
30	14	50	51	160	57.0	-197959.0	-1661.0	-10536.0
30	14	50	51	160	58.0	-198821.0	-1687.0	-10377.0
30	14	50	51	161	59.0	-199094.0	-1689.0	-10746.0
30	14	50	51	162	60.0	-198673.0	-1646.0	-11448.0
30	14	50	51	162	61.0	-197696.0	-1692.0	-11829.0
30	14	50	51	163	62.0	-196048.0	-1701.0	-12139.0
30	14	50	51	164	63.0	-193599.0	-1699.0	-12562.0
30	14	50	51	164	64.0	-190416.0	-1714.0	-12521.0
30	14	50	51	165	65.0	-186926.0	-1721.0	-11699.0
30	14	50	51	165	66.0	-183619.0	-1702.0	-11398.0
30	14	50	51	166	67.0	-181088.0	-1752.0	-11592.0
30	14	50	51	167	68.0	-180082.0	-1767.0	-11144.0
30	14	50	51	167	69.0	-180864.0	-1757.0	-11529.0
30	14	50	51	168	70.0	-182630.0	-1744.0	-11797.0
30	14	50	51	168	72.0	-186855.0	-1701.0	-11064.0
30	14	50	51	169	73.0	-188767.0	-1687.0	-11310.0
30	14	50	51	177	74.0	-190884.0	-1677.0	-11184.0
30	14	50	51	178	75.0	-193464.0	-1684.0	-10745.0
30	14	50	51	178	76.0	-196402.0	-1731.0	-10662.0
30	14	50	51	179	77.0	-199364.0	-1705.0	-10832.0
30	14	50	51	179	78.0	-202244.0	-1691.0	-10862.0
30	14	50	51	205	79.0	-204909.0	-1700.0	-11089.0
30	14	50	51	206	80.0	-207352.0	-1676.0	-10886.0
30	14	50	51	207	81.0	-209209.0	-1682.0	-10231.0
30	14	50	51	207	82.0	-210445.0	-1707.0	-10072.0
30	14	50	51	208	83.0	-211386.0	-1661.0	-10271.0
30	14	50	51	208	84.0	-212382.0	-1642.0	-10359.0
30	14	50	51	209	85.0	-213485.0	-1686.0	-10014.0
30	14	50	51	210	86.0	-214480.0	-1679.0	-9936.0
30	14	50	51	210	87.0	-215186.0	-1716.0	-10012.0
30	14	50	51	211	88.0	-215569.0	-1689.0	-10555.0
30	14	50	51	211	89.0	-215699.0	-1696.0	-10793.0
30	14	50	51	212	90.0	-215288.0	-1752.0	-10439.0
30	14	50	51	213	91.0	-214451.0	-1709.0	-10642.0
30	14	50	51	213	92.0	-212729.0	-1699.0	-10281.0
30	14	50	51	214	93.0	-210709.0	-1712.0	-9922.0
30	14	50	51	214	95.0	-205677.0	-1737.0	-9775.0
30	14	50	51	215	96.0	-202397.0	-1731.0	-9977.0
30	14	50	51	216	97.0	-199270.0	-1694.0	-9885.0
30	14	50	51	216	98.0	-196510.0	-1713.0	-10367.0
30	14	50	51	217	99.0	-194676.0	-1670.0	-10532.0
30	14	50	51	217	100.0	-193491.0	-1652.0	-10544.0
30	14	50	51	249	101.0	-192676.0	-1672.0	-10026.0
30	14	50	51	250	102.0	-192256.0	-1661.0	-9736.0
30	14	50	51	250	103.0	-191930.0	-1644.0	-9527.0
30	14	50	51	251	104.0	-191839.0	-1629.0	-9731.0
30	14	50	51	252	105.0	-192111.0	-1637.0	-9565.0
30	14	50	51	252	106.0	-193309.0	-1713.0	-9566.0
30	14	50	51	253	107.0	-195131.0	-1716.0	-9897.0
30	14	50	51	253	108.0	-196725.0	-1709.0	-9977.0
30	14	50	51	254	109.0	-198194.0	-1734.0	-9943.0
30	14	50	51	255	110.0	-199466.0	-1741.0	-10035.0
30	14	50	51	255	111.0	-200337.0	-1677.0	-10122.0
30	14	50	51	256	112.0	-200787.0	-1711.0	-9847.0
30	14	50	51	257	113.0	-200830.0	-1719.0	-9910.0
30	14	50	51	257	114.0	-200395.0	-1727.0	-10210.0
30	14	50	51	258	115.0	-200109.0	-1738.0	-10200.0
30	14	50	51	258	117.0	-200217.0	-1734.0	-12477.0
30	14	50	51	259	118.0	-199938.0	-1743.0	-14806.0
30	14	50	51	260	119.0	-199622.0	-1767.0	-18729.0
30	14	50	51	260	120.0	-198794.0	-1693.0	-23804.0
30	14	50	51	261	121.0	-197403.0	-1689.0	-29065.0
30	14	50	51	269	122.0	-195683.0	-1729.0	-34881.0
30	14	50	51	310	123.0	-193957.0	-1717.0	-40367.0
30	14	50	51	336	124.0	-192415.0	-1637.0	-44574.0
30	14	50	51	337	125.0	-191350.0	-1634.0	-48452.0
30	14	50	51	338	126.0	-190613.0	-1681.0	-51606.0
30	14	50	51	338	127.0	-190062.0	-1739.0	-51837.0
30	14	50	51	339	128.0	-189547.0	-1732.0	-48949.0
30	14	50	51	340	129.0	-189688.0	-1716.0	-44101.0
30	14	50	51	340	130.0	-191502.0	-1715.0	-35161.0
30	14	50	51	341	131.0	-195050.0	-1760.0	-20630.0
30	14	50	51	341	132.0	-199712.0	-1738.0	-7511.0
30	14	50	51	342	133.0	-205239.0	-1743.0	-2088.0
30	14	50	51	343	134.0	-212034.0	-1746.0	-57.0
30	14	50	51	343	135.0	-219791.0	-1747.0	-1047.0
30	14	50	51	344	136.0	-228336.0	-1738.0	-2442.0
30	14	50	51	344	137.0	-237628.0	-1752.0	-2581.0
30	14	50	51	345	147.0	-199305.0	-1835.0	-9869.0
30	14	50	51	345	154.0	-199707.0	-1781.0	-12712.0
30	14	50	51	346	155.0	-186877.0	-1787.0	-12402.0
30	14	50	51	347	156.0	-171405.0	-1823.0	-12339.0
30	14	50	51	347	157.0	-159352.0	-1890.0	-12627.0
30	14	50	51	348	158.0	-155327.0	-1871.0	-12986.0
30	14	50	51	348	159.0	-158518.0	-1785.0	-13212.0
30	14	50	51	349	160.0	-163917.0	-1794.0	-13591.0
30	14	50	51	349	161.0	-166935.0	-1801.0	-13475.0
30	14	50	51	350	162.0	-167269.0	-1792.0	-13265.0
30	14	50	51	359	163.0	-166888.0	-1752.0	-13205.0
30	14	50	51	359	164.0	-166957.0	-1741.0	-13817.0
30	14	50	51	360	165.0	-168086.0	-1789.0	-13679.0
30	14	50	51	360	166.0	-170282.0	-1780.0	-13866.0
30	14	50	51	361	167.0	-173022.0	-1781.0	-14502.0
30	14	50	51	362	168.0	-175340.0	-1799.0	-14915.0
30	14	50	51	362	169.0	-176631.0	-1826.0	-15259.0
30	14	50	51	363	170.0	-177819.0	-1800.0	-15316.0
30	14	50	51	363	171.0	-179323.0	-1807.0	-14685.0
30	14	50	51	382	172.0	-181880.0	-1774.0	-14382.0
30	14	50	51	383	173.0	-186291.0	-1757.0	-15167.0
30	14	50	51	383	174.0	-192307.0	-1696.0	-14744.0
30	14	50	51	384	175.0	-200113.0	-1729.0	-14143.0
30	14	50	51	385	176.0	-208915.0	-1787.0	-14411.0
30	14	50	51	385	177.0	-217591.0	-1808.0	-14917.0
30	14	50	51	386	178.0	-225446.0	-1766.0	-14929.0
30	14	50	51	387	179.0	-232376.0	-1734.0	-15449.0
30	14	50	51	387	180.0	-238328.0	-1729.0	-15677.0
30	14	50	51	388	181.0	-242336.0	-1807.0	-15533.0
30	14	50	51	388	182.0	-243348.0	-1766.0	-15499.0
30	14	50	51	389	183.0	-241283.0	-1750.0	-15756.0
30	14	50	51	389	184.0	-237007.0	-1755.0	-15963.0
30	14	50	51	390	185.0	-231688.0	-1766.0	-15742.0
30	14	50	51	405	186.0	-225531.0	-1782.0	-15701.0
30	14	50	51	405	187.0	-219455.0	-1764.0	-15799.0
30	14	50	51	406	188.0	-214184.0	-1762.0	-15962.0
30	14	50	51	406	189.0	-209866.0	-1784.0	-16502.0
30	14	50	51	407	190.0	-206836.0	-1791.0	-17136.0
30	14	50	51	407	191.0	-205755.0	-1802.0	-17089.0
30	14	50	51	408	192.0	-206166.0	-1792.0	-17018.0
30	14	50	51	409	193.0	-207998.0	-1779.0	-17109.0
30	14	50	51	428	194.0	-210731.0	-1756.0	-17481.0
30	14	50	51	428	195.0	-214120.0	-1767.0	-17389.0
30	14	50	51	429	196.0	-217963.0	-1795.0	-17602.0
30	14	50	51	430	197.0	-221702.0	-1809.0	-17834.0
30	14	50	51	430	198.0	-225118.0	-1760.0	-18422.0
30	14	50	51	431	199.0	-228105.0	-1768.0	-19024.0
30	14	50	51	432	200.0	-230622.0	-1752.0	-19400.0
30	14	50	51	432	201.0	-232267.0	-1764.0	-19336.0
30	14	50	51	433	202.0	-232693.0	-1752.0	-19124.0
30	14	50	51	433	203.0	-231637.0	-1728.0	-18929.0
30	14	50	51	434	204.0	-229449.0	-1790.0	-19340.0
30	14	50	51	434	205.0	-226622.0	-1754.0	-19229.0
30	14	50	51	435	206.0	-223475.0	-1777.0	-18793.0
30	14	50	51	436	207.0	-219746.0	-1787.0	-19108.0
30	14	50	51	436	208.0	-215363.0	-1819.0	-19448.0
30	14	50	51	450	209.0	-210766.0	-1823.0	-19731.0
30	14	50	51	451	210.0	-206033.0	-1790.0	-20281.0
30	14	50	51	451	211.0	-201107.0	-1816.0	-20526.0
30	14	50	51	452	212.0	-196396.0	-1808.0	-20433.0
30	14	50	51	452	213.0	-192026.0	-1803.0	-21028.0
30	14	50	51	453	214.0	-187997.0	-1783.0	-21625.0
30	14	50	51	454	215.0	-184452.0	-1798.0	-21574.0
30	14	50	51	473	216.0	-181544.0	-1771.0	-21395.0
30	14	50	51	473	217.0	-179446.0	-1799.0	-21622.0
30	14	50	51	474	218.0	-178411.0	-1794.0	-22476.0
30	14	50	51	475	219.0	-178512.0	-1782.0	-22751.0
30	14	50	51	475	220.0	-179992.0	-1789.0	-22538.0
30	14	50	51	476	221.0	-182634.0	-1771.0	-22316.0
30	14	50	51	477	222.0	-185804.0	-1789.0	-22890.0
30	14	50	51	477	223.0	-189585.0	-1781.0	-23187.0
30	14	50	51	478	224.0	-194074.0	-1856.0	-23126.0
30	14	50	51	478	225.0	-198612.0	-1821.0	-23295.0
30	14	50	51	479	226.0	-202994.0	-1752.0	-23826.0
30	14	50	51	480	227.0	-207080.0	-1784.0	-23673.0
30	14	50	51	480	228.0	-210368.0	-1814.0	-23940.0
30	14	50	51	481	229.0	-212446.0	-1797.0	-24067.0
30	14	50	51	481	230.0	-213318.0	-1767.0	-24106.0
30	14	50	51	496	231.0	-213233.0	-1761.0	-23986.0
30	14	50	51	497	232.0	-212137.0	-1767.0	-24109.0
30	14	50	51	497	233.0	-210199.0	-1756.0	-24055.0
30	14	50	51	498	234.0	-207581.0	-1772.0	-24194.0
30	14	50	51	499	235.0	-204626.0	-1802.0	-24381.0
30	14	50	51	499	236.0	-201466.0	-1833.0	-24147.0
30	14	50	51	500	237.0	-198009.0	-1795.0	-23412.0
30	14	50	51	500	238.0	-194300.0	-1785.0	-22909.0
30	14	50	51	520	239.0	-191125.0	-1788.0	-23061.0
30	14	50	51	521	240.0	-188562.0	-1782.0	-22882.0
30	14	50	51	522	241.0	-186774.0	-1776.0	-22718.0
30	14	50	51	522	242.0	-185676.0	-1754.0	-22626.0
30	14	50	51	523	243.0	-185209.0	-1802.0	-22378.0
30	14	50	51	523	244.0	-185662.0	-1801.0	-22242.0
30	14	50	51	524	245.0	-186602.0	-1765.0	-22236.0
30	14	50	51	525	246.0	-187950.0	-1772.0	-21394.0
30	14	50	51	525	247.0	-189756.0	-1706.0	-20732.0
30	14	50	51	526	248.0	-192531.0	-1684.0	-20934.0
30	14	50	51	526	249.0	-196276.0	-1717.0	-20841.0
30	14	50	51	527	250.0	-199484.0	-1730.0	-20382.0
30	14	50	51	527	251.0	-201804.0	-1707.0	-20024.0
30	14	50	51	528	252.0	-203372.0	-1708.0	-19328.0
30	14	50	51	529	253.0	-204727.0	-1692.0	-18946.0
30	14	50	51	544	254.0	-206691.0	-1706.0	-18564.0
30	14	50	51	544	255.0	-208582.0	-1743.0	-18144.0
30	14	50	51	545	0.0	-209486.0	-1683.0	-17854.0
30	14	50	51	545	1.0	-210199.0	-1664.0	-17567.0
30	14	50	51	546	2.0	-210715.0	-1679.0	-17286.0
30	14	50	51	547	3.0	-210505.0	-1637.0	-17321.0
30	14	50	51	547	4.0	-209821.0	-1606.0	-17134.0
30	14	50	51	567	5.0	-209711.0	-1599.0	-16440.0
30	14	50	51	567	6.0	-210474.0	-1592.0	-15821.0
30	14	50	51	568	7.0	-211792.0	-1592.0	-15703.0
30	14	50	51	568	8.0	-213368.0	-1571.0	-15203.0
30	14	50	51	569	9.0	-214987.0	-1597.0	-14814.0
30	14	50	51	570	10.0	-216741.0	-1605.0	-15122.0
30	14	50	51	570	11.0	-218145.0	-1587.0	-15311.0
30	14	50	51	571	12.0	-218690.0	-1572.0	-14779.0
30	14	50	51	571	13.0	-218672.0	-1555.0	-14354.0
30	14	50	51	572	14.0	-218600.0	-1514.0	-14317.0
30	14	50	51	590	15.0	-218741.0	-1503.0	-13796.0
30	14	50	51	591	16.0	-218669.0	-1534.0	-13041.0
30	14	50	51	592	17.0	-218634.0	-1549.0	-12605.0
30	14	50	51	592	18.0	-218699.0	-1541.0	-12379.0
30	14	50	51	593	19.0	-218355.0	-1504.0	-12354.0
30	14	50	51	593	20.0	-217532.0	-1517.0	-12476.0
30	14	50	51	594	21.0	-215865.0	-1505.0	-12209.0
30	14	50	51	595	22.0	-212891.0	-1551.0	-12097.0
30	14	50	51	595	23.0	-208263.0	-1516.0	-11915.0
30	14	50	51	596	24.0	-200532.0	-1488.0	-12237.0
30	14	50	51	596	25.0	-188966.0	-1509.0	-12411.0
30	14	50	51	597	26.0	-177536.0	-1477.0	-12592.0
30	14	50	51	597	27.0	-169104.0	-1493.0	-12621.0
30	14	50	51	598	28.0	-168561.0	-1454.0	-11789.0
30	14	50	51	599	29.0	-173899.0	-1459.0	-11577.0
30	14	50	51	599	30.0	-180306.0	-1437.0	-11881.0
30	14	50	51	600	31.0	-186462.0	-1396.0	-12552.0
30	14	50	51	600	32.0	-188682.0	-1392.0	-12552.0
30	14	50	51	601	33.0	-187062.0	-1432.0	-12507.0
30	14	50	51	613	34.0	-186157.0	-1422.0	-12116.0
30	14	50	51	613	35.0	-188929.0	-1389.0	-12081.0
30	14	50	51	614	36.0	-195828.0	-1382.0	-12369.0
30	14	50	51	614	37.0	-205694.0	-1376.0	-12489.0
30	14	50	51	615	38.0	-216544.0	-1398.0	-12733.0
30	14	50	51	616	39.0	-226294.0	-1409.0	-12837.0
30	14	50	51	616	40.0	-233801.0	-1418.0	-12915.0
30	14	50	51	617	41.0	-238022.0	-1412.0	-13152.0
30	14	50	51	617	42.0	-239028.0	-1397.0	-13451.0
30	14	50	51	637	43.0	-237174.0	-1394.0	-12779.0
30	14	50	51	638	44.0	-232796.0	-1370.0	-12306.0
30	14	50	51	660	45.0	-225444.0	-1365.0	-12679.0
30	14	50	51	661	46.0	-214894.0	-1393.0	-12516.0
30	14	50	51	661	47.0	-202406.0	-1399.0	-12682.0
30	14	50	51	662	48.0	-189968.0	-1397.0	-13147.0
30	14	50	51	663	49.0	-179004.0	-1433.0	-12932.0
30	14	50	51	663	50.0	-169291.0	-1459.0	-12902.0
30	14	50	51	664	51.0	-160414.0	-1453.0	-13219.0
30	14	50	51	664	52.0	-152222.0	-1431.0	-13577.0
30	14	50	51	665	53.0	-144796.0	-1455.0	-13198.0
30	14	50	51	666	54.0	-138739.0	-1394.0	-12610.0
30	14	50	51	666	55.0	-134666.0	-1460.0	-12664.0
30	14	50	51	667	56.0	-132765.0	-1458.0	-12491.0
30	14	50	51	667	57.0	-134010.0	-1487.0	-12697.0
30	14	50	51	668	58.0	-139074.0	-1437.0	-12921.0
30	14	50	51	669	59.0	-147507.0	-1431.0	-12266.0
30	14	50	51	669	60.0	-159139.0	-1454.0	-12337.0
30	14	50	51	670	61.0	-173359.0	-1412.0	-12659.0
30	14	50	51	671	62.0	-188022.0	-1409.0	-12907.0
30	14	50	51	671	63.0	-201874.0	-1399.0	-12861.0
30	14	50	51	672	64.0	-213809.0	-1369.0	-13040.0
30	14	50	51	672	65.0	-223232.0	-1389.0	-13414.0
30	14	50	51	673	66.0	-230456.0	-1406.0	-13305.0
30	14	50	51	674	67.0	-235732.0	-1448.0	-13256.0
30	14	50	51	674	68.0	-238984.0	-1416.0	-13304.0
30	14	50	51	675	69.0	-240752.0	-1414.0	-12971.0
30	14	50	51	676	70.0	-241301.0	-1417.0	-12591.0
30	14	50	51	676	71.0	-241072.0	-1414.0	-12867.0
30	14	50	51	677	72.0	-240570.0	-1431.0	-13414.0
30	14	50	51	684	73.0	-239858.0	-1388.0	-13639.0
30	14	50	51	685	74.0	-239227.0	-1383.0	-13613.0
30	14	50	51	686	75.0	-238751.0	-1391.0	-13711.0
30	14	50	51	686	76.0	-238173.0	-1441.0	-13647.0
30	14	50	51	687	77.0	-237372.0	-1451.0	-13190.0
30	14	50	51	688	78.0	-235847.0	-1469.0	-12590.0
30	14	50	51	688	79.0	-234026.0	-1511.0	-12597.0
30	14	50	51	707	80.0	-231570.0	-1489.0	-12659.0
30	14	50	51	708	81.0	-228632.0	-1429.0	-12767.0
30	14	50	51	709	82.0	-225021.0	-1458.0	-13481.0
30	14	50	51	709	83.0	-220802.0	-1461.0	-13766.0
30	14	50	51	710	84.0	-216469.0	-1459.0	-13166.0
30	14	50	51	710	85.0	-212466.0	-1469.0	-12835.0
30	14	50	51	711	86.0	-208754.0	-1501.0	-12962.0
30	14	50	51	731	87.0	-205551.0	-1512.0	-12906.0
30	14	50	51	731	88.0	-202842.0	-1459.0	-12427.0
30	14	50	51	732	89.0	-200079.0	-1453.0	-12360.0
30	14	50	51	732	90.0	-197522.0	-1494.0	-12345.0
30	14	50	51	733	91.0	-195419.0	-1494.0	-12159.0
30	14	50	51	734	92.0	-193679.0	-1487.0	-12664.0
30	14	50	51	734	93.0	-191750.0	-1451.0	-13147.0
30	14	50	51	735	94.0	-189639.0	-1459.0	-13192.0
30	14	50	51	735	95.0	-186844.0	-1473.0	-13585.0
30	14	50	51	736	96.0	-183386.0	-1449.0	-13732.0
30	14	50	51	736	97.0	-179505.0	-1421.0	-13248.0
30	14	50	51	737	98.0	-175553.0	-1482.0	-12861.0
30	14	50	51	738	99.0	-171311.0	-1512.0	-12409.0
30	14	50	51	738	100.0	-166992.0	-1506.0	-12409.0
30	14	50	51	739	101.0	-163726.0	-1531.0	-12576.0
30	14	50	51	753	102.0	-161427.0	-1533.0	-13027.0
30	14	50	51	754	103.0	-159951.0	-1474.0	-13097.0
30	14	50	51	755	104.0	-159156.0	-1479.0	-13127.0
30	14	50	51	755	105.0	-159027.0	-1501.0	-12974.0
30	14	50	51	756	106.0	-159718.0	-1441.0	-13394.0
30	14	50	51	757	107.0	-161019.0	-1501.0	-13497.0
30	14	50	51	757	108.0	-162909.0	-1529.0	-13112.0
30	14	50	51	758	109.0	-165561.0	-1604.0	-12586.0
30	14	50	51	759	110.0	-168902.0	-1592.0	-12794.0
30	14	50	51	759	111.0	-173004.0	-1527.0	-12716.0
30	14	50	51	760	112.0	-177945.0	-1487.0	-12363.0
30	14	50	51	761	113.0	-183454.0	-1498.0	-12595.0
30	14	50	51	761	114.0	-189349.0	-1511.0	-12842.0
30	14	50	51	762	115.0	-195320.0	-1563.0	-12844.0
30	14	50	51	762	116.0	-200719.0	-1562.0	-12755.0
30	14	50	51	776	117.0	-205595.0	-1611.0	-13101.0
30	14	50	51	777	118.0	-210207.0	-1561.0	-13045.0
30	14	50	51	778	119.0	-214894.0	-1556.0	-12730.0
30	14	50	51	778	120.0	-219965.0	-1570.0	-13132.0
30	14	50	51	779	121.0	-224630.0	-1573.0	-13079.0
30	14	50	51	780	122.0	-228697.0	-1557.0	-12777.0
30	14	50	51	780	123.0	-231992.0	-1531.0	-13006.0
30	14	50	51	781	124.0	-234197.0	-1506.0	-12575.0
30	14	50	51	801	125.0	-234894.0	-1505.0	-12239.0
30	14	50	51	802	126.0	-234119.0	-1523.0	-12204.0
30	14	50	51	803	127.0	-232580.0	-1516.0	-12368.0
30	14	50	51	803	128.0	-229914.0	-1506.0	-12665.0
30	14	50	51	804	129.0	-226554.0	-1537.0	-12474.0
30	14	50	51	805	130.0	-223249.0	-1563.0	-12514.0
30	14	50	51	806	131.0	-219417.0	-1598.0	-12582.0
30	14	50	51	806	132.0	-215333.0	-1546.0	-12797.0
30	14	50	51	807	133.0	-211243.0	-1533.0	-12632.0
30	14	50	51	808	134.0	-207435.0	-1548.0	-12452.0
30	14	50	51	808	135.0	-203398.0	-1566.0	-12431.0
30	14	50	51	809	136.0	-199605.0	-1524.0	-12101.0
30	14	50	51	810	137.0	-196687.0	-1536.0	-12610.0
30	14	50	51	810	138.0	-194964.0	-1568.0	-12742.0
30	14	50	51	811	139.0	-195109.0	-1595.0	-12570.0
30	14	50	51	812	140.0	-197012.0	-1539.0	-12807.0
30	14	50	51	823	141.0	-199534.0	-1526.0	-13185.0
30	14	50	51	824	142.0	-202738.0	-1551.0	-13569.0
30	14	50	51	825	143.0	-206383.0	-1514.0	-13454.0
30	14	50	51	825	144.0	-209924.0	-1522.0	-13145.0
30	14	50	51	826	145.0	-212824.0	-1508.0	-13000.0
30	14	50	51	826	146.0	-214934.0	-1498.0	-12974.0
30	14	50	51	846	147.0	-216571.0	-1495.0	-12800.0
30	14	50	51	847	148.0	-218777.0	-1519.0	-12549.0
30	14	50	51	848	149.0	-221542.0	-1522.0	-12502.0
30	14	50	51	849	150.0	-224592.0	-1539.0	-12634.0
30	14	50	51	849	151.0	-227278.0	-1597.0	-12908.0
30	14	50	51	850	152.0	-229283.0	-1605.0	-13193.0
30	14	50	51	851	153.0	-230771.0	-1611.0	-12968.0
30	14	50	51	851	154.0	-230896.0	-1592.0	-13057.0
30	14	50	51	852	155.0	-230107.0	-1519.0	-13382.0
30	14	50	51	853	156.0	-228543.0	-1545.0	-13205.0
30	14	50	51	853	157.0	-226484.0	-1518.0	-13197.0
30	14	50	51	854	158.0	-223974.0	-1534.0	-13189.0
30	14	50	51	854	159.0	-220879.0	-1644.0	-13320.0
30	14	50	51	855	160.0	-217860.0	-1629.0	-12454.0
30	14	50	51	856	161.0	-214966.0	-1582.0	-11764.0
30	14	50	51	869	162.0	-212315.0	-1567.0	-11937.0
30	14	50	51	870	163.0	-210660.0	-1519.0	-12447.0
30	14	50	51	870	164.0	-209596.0	-1578.0	-12777.0
30	14	50	51	871	165.0	-208827.0	-1519.0	-12880.0
30	14	50	51	872	166.0	-208591.0	-1574.0	-12756.0
30	14	50	51	872	167.0	-209082.0	-1594.0	-12877.0
30	14	50	51	873	168.0	-209557.0	-1597.0	-13239.0
30	14	50	51	873	169.0	-209222.0	-1607.0	-12967.0
30	14	50	51	893	170.0	-207945.0	-1614.0	-12487.0
30	14	50	51	894	171.0	-206149.0	-1602.0	-12517.0
30	14	50	51	895	172.0	-203612.0	-1582.0	-12734.0
30	14	50	51	895	173.0	-200290.0	-1577.0	-12794.0
30	14	50	51	896	174.0	-195900.0	-1608.0	-12961.0
30	14	50	51	897	175.0	-190661.0	-1602.0	-12889.0
30	14	50	51	897	176.0	-185302.0	-1612.0	-13022.0
30	14	50	51	898	177.0	-180287.0	-1585.0	-13198.0
30	14	50	51	899	178.0	-175880.0	-1578.0	-13158.0
30	14	50	51	899	179.0	-172464.0	-1622.0	-13061.0
30	14	50	51	900	180.0	-170154.0	-1656.0	-13418.0
30	14	50	51	900	181.0	-169408.0	-1638.0	-13662.0
30	14	50	51	901	182.0	-170262.0	-1629.0	-14026.0
30	14	50	51	902	183.0	-171934.0	-1580.0	-13996.0
30	14	50	51	902	184.0	-173613.0	-1626.0	-13232.0
30	14	50	51	925	185.0	-175117.0	-1658.0	-12887.0
30	14	50	51	926	186.0	-176171.0	-1663.0	-13074.0
30	14	50	51	926	187.0	-177304.0	-1608.0	-13086.0
30	14	50	51	927	188.0	-179009.0	-1621.0	-12647.0
30	14	50	51	928	189.0	-180948.0	-1669.0	-13015.0
30	14	50	51	929	190.0	-182238.0	-1689.0	-13688.0
30	14	50	51	929	191.0	-182925.0	-1721.0	-13400.0
30	14	50	51	930	192.0	-184171.0	-1696.0	-13672.0
30	14	50	51	931	193.0	-186402.0	-1654.0	-14059.0
30	14	50	51	932	194.0	-189126.0	-1712.0	-13965.0
30	14	50	51	932	195.0	-192238.0	-1725.0	-13553.0
30	14	50	51	933	196.0	-195364.0	-1746.0	-13541.0
30	14	50	51	934	197.0	-197518.0	-1712.0	-13424.0
30	14	50	51	935	198.0	-198471.0	-1716.0	-13189.0
30	14	50	51	935	199.0	-198503.0	-1692.0	-13947.0
30	14	50	51	936	200.0	-198566.0	-1706.0	-14349.0
30	14	50	51	937	201.0	-198821.0	-1683.0	-14574.0
30	14	50	51	937	202.0	-199537.0	-1687.0	-14650.0
30	14	50	51	938	203.0	-201308.0	-1713.0	-14308.0
30	14	50	51	939	204.0	-204239.0	-1660.0	-14389.0
30	14	50	51	939	205.0	-207155.0	-1690.0	-14838.0
30	14	50	51	954	206.0	-209566.0	-1684.0	-15153.0
30	14	50	51	955	207.0	-211676.0	-1683.0	-15475.0
30	14	50	51	956	208.0	-214061.0	-1668.0	-15301.0
30	14	50	51	957	209.0	-216624.0	-1688.0	-15551.0
30	14	50	51	957	210.0	-219093.0	-1714.0	-15252.0
30	14	50	51	958	211.0	-221684.0	-1687.0	-15070.0
30	14	50	51	959	212.0	-224389.0	-1727.0	-15017.0
30	14	50	51	960	213.0	-226296.0	-1714.0	-14979.0
30	14	50	51	960	214.0	-227143.0	-1723.0	-14869.0
30	14	50	51	961	215.0	-227521.0	-1759.0	-15056.0
30	14	50	51	971	216.0	-227650.0	-1801.0	-15162.0
30	14	50	51	972	217.0	-227399.0	-1687.0	-14926.0
30	14	50	51	972	218.0	-226788.0	-1716.0	-14909.0
30	14	50	51	973	219.0	-225763.0	-1752.0	-14496.0
30	14	50	51	974	220.0	-224269.0	-1721.0	-14589.0
30	14	50	51	974	221.0	-222794.0	-1753.0	-15086.0
30	14	50	51	994	222.0	-221364.0	-1788.0	-14971.0
30	14	50	51	994	223.0	-219441.0	-1788.0	-14801.0
30	14	50	51	995	224.0	-217601.0	-1786.0	-14714.0
30	14	50	51	996	225.0	-216345.0	-1774.0	-14254.0
30	14	50	51	996	226.0	-215302.0	-1784.0	-14130.0
30	14	50	51	997	227.0	-214317.0	-1768.0	-14492.0
30	14	50	51	998	228.0	-213186.0	-1849.0	-14404.0
30	14	50	51	998	229.0	-211428.0	-1850.0	-13501.0
30	14	50	52	15	230.0	-208775.0	-1866.0	-13547.0
30	14	50	52	16	231.0	-205436.0	-1885.0	-13599.0
30	14	50	52	17	232.0	-201915.0	-1849.0	-13319.0
30	14	50	52	18	233.0	-198180.0	-1814.0	-13370.0
30	14	50	52	18	234.0	-194986.0	-1867.0	-13554.0
30	14	50	52	19	235.0	-192251.0	-1896.0	-13435.0
30	14	50	52	20	236.0	-189469.0	-1846.0	-13764.0
30	14	50	52	20	237.0	-186072.0	-1810.0	-13677.0
30	14	50	52	21	238.0	-182581.0	-1867.0	-13140.0
30	14	50	52	21	239.0	-179329.0	-1913.0	-12916.0
30	14	50	52	22	240.0	-176321.0	-1926.0	-12964.0
30	14	50	52	23	241.0	-174782.0	-1957.0	-13145.0
30	14	50	52	23	242.0	-175999.0	-1994.0	-13478.0
30	14	50	52	24	243.0	-179219.0	-1966.0	-13724.0
30	14	50	52	25	244.0	-183224.0	-1944.0	-13831.0
30	14	50	52	44	245.0	-187294.0	-1913.0	-14035.0
30	14	50	52	45	246.0	-191815.0	-1928.0	-13951.0
30	14	50	52	45	247.0	-196175.0	-1936.0	-13982.0
30	14	50	52	46	248.0	-199940.0	-1962.0	-14151.0
30	14	50	52	47	249.0	-202811.0	-1987.0	-14181.0
30	14	50	52	48	250.0	-204965.0	-2031.0	-14085.0
30	14	50	52	48	251.0	-206429.0	-2066.0	-14241.0
30	14	50	52	49	252.0	-207484.0	-2004.0	-14611.0
30	14	50	52	49	253.0	-208163.0	-2007.0	-14403.0
30	14	50	52	50	254.0	-209271.0	-1986.0	-13734.0
30	14	50	52	51	255.0	-211167.0	-2008.0	-13949.0
30	14	50	52	51	0.0	-213601.0	-2044.0	-13914.0
30	14	50	52	52	1.0	-216327.0	-2071.0	-13789.0
30	14	50	52	52	2.0	-218998.0	-2049.0	-13666.0
30	14	50	52	53	3.0	-221340.0	-2051.0	-14212.0
30	14	50	52	53	4.0	-222577.0	-2079.0	-15251.0
30	14	50	52	54	5.0	-222642.0	-2055.0	-17707.0
30	14	50	52	65	6.0	-221991.0	-2090.0	-21610.0
30	14	50	52	67	7.0	-221162.0	-2011.0	-26147.0
30	14	50	52	68	8.0	-220661.0	-1968.0	-31711.0
30	14	50	52	69	9.0	-219727.0	-2047.0	-37126.0
30	14	50	52	88	10.0	-218075.0	-2126.0	-42822.0
30	14	50	52	89	11.0	-216420.0	-2046.0	-47437.0
30	14	50	52	89	12.0	-214351.0	-2072.0	-51695.0
30	14	50	52	90	13.0	-211572.0	-2071.0	-55969.0
30	14	50	52	91	14.0	-208060.0	-2161.0	-58538.0
30	14	50	52	91	15.0	-204616.0	-2249.0	-57696.0
30	14	50	52	92	16.0	-201557.0	-2147.0	-53317.0
30	14	50	52	92	17.0	-199909.0	-2168.0	-46087.0
30	14	50	52	93	18.0	-199369.0	-2138.0	-33079.0
30	14	50	52	93	19.0	-200226.0	-2220.0	-16400.0
30	14	50	52	94	20.0	-203291.0	-2182.0	-7789.0
30	14	50	52	95	21.0	-209011.0	-2109.0	-4601.0
30	14	50	52	95	22.0	-217341.0	-2130.0	-4500.0
30	14	50	52	96	23.0	-225954.0	-2167.0	-5783.0
30	14	50	52	97	24.0	-233290.0	-2156.0	-6926.0
30	14	50	52	97	25.0	-238684.0	-2206.0	-6841.0
30	14	50	52	109	26.0	-241064.0	-2166.0	-6597.0
30	14	50	52	110	27.0	-235956.0	-2159.0	-7276.0
30	14	50	52	111	28.0	-218752.0	-2159.0	-7979.0
30	14	50	52	111	29.0	-193414.0	-2139.0	-8517.0
30	14	50	52	112	30.0	-168104.0	-2127.0	-9467.0
30	14	50	52	112	31.0	-151313.0	-2180.0	-11042.0
30	14	50	52	113	32.0	-147381.0	-2224.0	-11623.0
30	14	50	52	114	33.0	-152618.0	-2222.0	-12309.0
30	14	50	52	133	34.0	-161088.0	-2266.0	-13014.0
30	14	50	52	134	35.0	-169583.0	-2233.0	-13621.0
30	14	50	52	135	36.0	-176564.0	-2250.0	-14632.0
30	14	50	52	135	37.0	-182554.0	-2242.0	-15277.0
30	14	50	52	136	38.0	-187437.0	-2250.0	-15236.0
30	14	50	52	136	39.0	-190431.0	-2271.0	-15240.0
30	14	50	52	137	40.0	-192132.0	-2301.0	-15394.0
30	14	50	52	138	41.0	-190351.0	-2213.0	-15519.0
