3	16	55	3	810	114.0	-200234.0	-5335.0	-18656.0
3	16	55	3	812	115.0	-200246.0	-5326.0	-6727.0
3	16	55	3	814	116.0	-200187.0	-5342.0	8063.0
3	16	55	3	816	117.0	-200196.0	-5354.0	14022.0
3	16	55	3	818	118.0	-200205.0	-5372.0	13123.0
3	16	55	3	820	119.0	-200246.0	-5367.0	11134.0
3	16	55	3	822	120.0	-200133.0	-5336.0	5513.0
3	16	55	3	824	121.0	-200211.0	-5363.0	-9662.0
3	16	55	3	825	122.0	-200282.0	-5372.0	-23045.0
3	16	55	3	826	123.0	-200347.0	-5376.0	-23513.0
3	16	55	3	827	124.0	-200294.0	-5364.0	-14402.0
3	16	55	3	837	125.0	-200388.0	-5374.0	-661.0
3	16	55	3	838	126.0	-200326.0	-5393.0	13964.0
3	16	55	3	838	127.0	-200193.0	-5400.0	19389.0
3	16	55	3	839	128.0	-200006.0	-5413.0	17562.0
3	16	55	3	840	129.0	-200082.0	-5439.0	13618.0
3	16	55	3	840	130.0	-200101.0	-5445.0	6909.0
3	16	55	3	841	131.0	-200000.0	-5424.0	-10197.0
3	16	55	3	841	132.0	-200092.0	-5436.0	-23375.0
3	16	55	3	864	133.0	-200270.0	-5459.0	-25581.0
3	16	55	3	864	134.0	-200198.0	-5431.0	-17424.0
3	16	55	3	865	135.0	-200126.0	-5435.0	-3560.0
3	16	55	3	866	136.0	-200166.0	-5457.0	11492.0
3	16	55	3	899	137.0	-200225.0	-5474.0	16401.0
3	16	55	3	943	138.0	-200210.0	-5468.0	15881.0
3	16	55	3	944	139.0	-200143.0	-5461.0	13680.0
3	16	55	3	945	140.0	-200280.0	-5461.0	6274.0
3	16	55	3	945	141.0	-200139.0	-5485.0	-10035.0
3	16	55	3	946	142.0	-200111.0	-5481.0	-22849.0
3	16	55	3	947	143.0	-200079.0	-5487.0	-24519.0
3	16	55	3	947	144.0	-200192.0	-5507.0	-15984.0
3	16	55	3	948	145.0	-200266.0	-5526.0	-2541.0
3	16	55	3	949	146.0	-200187.0	-5527.0	11905.0
3	16	55	3	949	147.0	-200262.0	-5535.0	15828.0
3	16	55	3	950	148.0	-200441.0	-5537.0	12911.0
3	16	55	3	950	149.0	-200474.0	-5541.0	9646.0
3	16	55	3	951	150.0	-200371.0	-5558.0	2114.0
3	16	55	3	952	151.0	-200377.0	-5551.0	-14487.0
3	16	55	3	952	162.0	-200251.0	-5626.0	-22809.0
3	16	55	3	953	185.0	-200259.0	-5857.0	8122.0
3	16	55	3	953	186.0	-200170.0	-5872.0	18694.0
3	16	55	3	954	187.0	-200152.0	-5872.0	19318.0
3	16	55	3	954	188.0	-200127.0	-5851.0	17433.0
3	16	55	3	955	189.0	-200256.0	-5857.0	11919.0
3	16	55	3	956	190.0	-200267.0	-5851.0	-769.0
3	16	55	3	988	191.0	-200232.0	-5834.0	-17662.0
3	16	55	4	13	192.0	-200319.0	-5829.0	-25143.0
3	16	55	4	13	193.0	-200310.0	-5847.0	-20189.0
3	16	55	4	14	194.0	-200353.0	-5867.0	-9087.0
3	16	55	4	15	195.0	-200274.0	-5867.0	6094.0
3	16	55	4	15	196.0	-200284.0	-5872.0	15180.0
3	16	55	4	16	197.0	-200216.0	-5903.0	15138.0
3	16	55	4	16	198.0	-200372.0	-5916.0	12306.0
3	16	55	4	17	199.0	-200299.0	-5917.0	7485.0
3	16	55	4	17	200.0	-200321.0	-5937.0	-6296.0
3	16	55	4	18	201.0	-200309.0	-5947.0	-22636.0
3	16	55	4	18	202.0	-200433.0	-5943.0	-28462.0
3	16	55	4	19	203.0	-200379.0	-5954.0	-23087.0
3	16	55	4	20	204.0	-200359.0	-5964.0	-11506.0
3	16	55	4	20	205.0	-200235.0	-5977.0	2331.0
3	16	55	4	21	207.0	-200176.0	-5987.0	11213.0
3	16	55	4	21	208.0	-200226.0	-5989.0	9413.0
3	16	55	4	22	209.0	-200335.0	-6002.0	9078.0
3	16	55	4	22	210.0	-200371.0	-6001.0	-1469.0
3	16	55	4	23	211.0	-200281.0	-5977.0	-16074.0
3	16	55	4	23	212.0	-200184.0	-5982.0	-22703.0
3	16	55	4	36	213.0	-200136.0	-5972.0	-19349.0
3	16	55	4	37	214.0	-200128.0	-5952.0	-9741.0
3	16	55	4	37	215.0	-200207.0	-5958.0	5369.0
3	16	55	4	38	216.0	-200070.0	-5971.0	15629.0
3	16	55	4	39	217.0	-200066.0	-5984.0	15917.0
3	16	55	4	39	218.0	-200121.0	-5989.0	13582.0
3	16	55	4	40	219.0	-200135.0	-5990.0	9047.0
3	16	55	4	40	220.0	-200028.0	-6017.0	-3222.0
3	16	55	4	41	221.0	-199984.0	-6029.0	-17377.0
3	16	55	4	41	222.0	-200041.0	-6043.0	-23164.0
3	16	55	4	42	223.0	-200213.0	-6066.0	-18935.0
3	16	55	4	43	224.0	-200247.0	-6076.0	-8292.0
3	16	55	4	43	225.0	-200220.0	-6086.0	5623.0
3	16	55	4	44	226.0	-200206.0	-6095.0	12845.0
3	16	55	4	44	227.0	-200256.0	-6114.0	13385.0
3	16	55	4	45	230.0	-200376.0	-6137.0	-4760.0
3	16	55	4	45	231.0	-200321.0	-6156.0	-20971.0
3	16	55	4	46	232.0	-200354.0	-6126.0	-26920.0
3	16	55	4	47	233.0	-200272.0	-6118.0	-21264.0
3	16	55	4	47	234.0	-200236.0	-6107.0	-9307.0
3	16	55	4	48	235.0	-200137.0	-6121.0	5101.0
3	16	55	4	78	236.0	-200109.0	-6122.0	11473.0
3	16	55	4	78	237.0	-200162.0	-6134.0	10975.0
3	16	55	4	79	238.0	-200143.0	-6134.0	8343.0
3	16	55	4	79	239.0	-200180.0	-6149.0	2318.0
3	16	55	4	80	240.0	-200089.0	-6174.0	-12214.0
3	16	55	4	81	241.0	-200116.0	-6193.0	-24901.0
3	16	55	4	81	242.0	-199957.0	-6191.0	-27904.0
3	16	55	4	82	243.0	-200054.0	-6206.0	-21711.0
3	16	55	4	82	244.0	-200139.0	-6221.0	-10667.0
3	16	55	4	83	245.0	-200107.0	-6251.0	3393.0
3	16	55	4	84	246.0	-200098.0	-6269.0	10814.0
3	16	55	4	84	247.0	-200059.0	-6286.0	10675.0
3	16	55	4	85	248.0	-200217.0	-6310.0	7890.0
3	16	55	4	86	249.0	-200181.0	-6320.0	991.0
3	16	55	4	124	250.0	-200250.0	-6341.0	-14292.0
3	16	55	4	125	252.0	-200292.0	-6375.0	-27729.0
3	16	55	4	125	253.0	-200196.0	-6391.0	-22219.0
3	16	55	4	126	254.0	-200201.0	-6379.0	-11538.0
3	16	55	4	127	255.0	-200300.0	-6388.0	3239.0
3	16	55	4	127	0.0	-200137.0	-6405.0	10052.0
3	16	55	4	128	1.0	-200179.0	-6410.0	10095.0
3	16	55	4	128	2.0	-200239.0	-6432.0	8166.0
3	16	55	4	129	3.0	-200249.0	-6442.0	1490.0
3	16	55	4	130	4.0	-199932.0	-6472.0	-15642.0
3	16	55	4	130	5.0	-199909.0	-6491.0	-28718.0
3	16	55	4	131	6.0	-200037.0	-6502.0	-30686.0
3	16	55	4	131	7.0	-200092.0	-6529.0	-22959.0
3	16	55	4	132	8.0	-200087.0	-6559.0	-9613.0
3	16	55	4	133	9.0	-199971.0	-6572.0	5733.0
3	16	55	4	133	18.0	-200111.0	-6736.0	-5387.0
3	16	55	4	134	19.0	-200101.0	-6762.0	10194.0
3	16	55	4	134	20.0	-200196.0	-6773.0	14937.0
3	16	55	4	135	21.0	-200282.0	-6778.0	14396.0
3	16	55	4	136	22.0	-200251.0	-6772.0	13993.0
3	16	55	4	136	23.0	-200271.0	-6777.0	7866.0
3	16	55	4	137	24.0	-200352.0	-6797.0	-7261.0
3	16	55	4	168	25.0	-200252.0	-6803.0	-18646.0
3	16	55	4	169	26.0	-200169.0	-6802.0	-20762.0
3	16	55	4	170	27.0	-200212.0	-6812.0	-13603.0
3	16	55	4	171	28.0	-200314.0	-6825.0	-1407.0
3	16	55	4	171	29.0	-200251.0	-6848.0	11770.0
3	16	55	4	172	30.0	-200136.0	-6851.0	14864.0
3	16	55	4	173	31.0	-200115.0	-6882.0	13108.0
3	16	55	4	173	32.0	-200049.0	-6912.0	8968.0
3	16	55	4	174	33.0	-200058.0	-6936.0	1434.0
3	16	55	4	174	34.0	-199959.0	-6960.0	-13439.0
3	16	55	4	175	35.0	-199961.0	-6964.0	-22655.0
3	16	55	4	176	36.0	-200071.0	-6969.0	-23507.0
3	16	55	4	176	37.0	-200114.0	-6984.0	-16071.0
3	16	55	4	177	38.0	-200014.0	-7002.0	-3764.0
3	16	55	4	177	39.0	-200090.0	-7014.0	9533.0
3	16	55	4	178	41.0	-200402.0	-7046.0	16106.0
3	16	55	4	179	42.0	-200390.0	-7054.0	15374.0
3	16	55	4	179	43.0	-200432.0	-7069.0	6833.0
3	16	55	4	180	44.0	-200437.0	-7074.0	-9747.0
3	16	55	4	180	45.0	-200352.0	-7059.0	-20652.0
3	16	55	4	181	46.0	-200298.0	-7050.0	-19733.0
3	16	55	4	213	47.0	-200245.0	-7051.0	-9756.0
3	16	55	4	214	48.0	-200286.0	-7049.0	3643.0
3	16	55	4	215	49.0	-200336.0	-7059.0	15413.0
3	16	55	4	215	50.0	-200363.0	-7069.0	18961.0
3	16	55	4	216	51.0	-200279.0	-7084.0	18711.0
3	16	55	4	217	52.0	-200367.0	-7086.0	16104.0
3	16	55	4	217	53.0	-200293.0	-7091.0	7183.0
3	16	55	4	218	54.0	-200261.0	-7103.0	-7409.0
3	16	55	4	218	55.0	-200351.0	-7104.0	-15589.0
3	16	55	4	219	56.0	-200302.0	-7096.0	-13467.0
3	16	55	4	220	57.0	-200306.0	-7099.0	-4072.0
3	16	55	4	220	58.0	-200489.0	-7086.0	8367.0
3	16	55	4	221	59.0	-200374.0	-7085.0	19593.0
3	16	55	4	221	60.0	-200412.0	-7085.0	22686.0
3	16	55	4	222	61.0	-200251.0	-7054.0	21169.0
3	16	55	4	223	63.0	-200295.0	-7010.0	5159.0
3	16	55	4	223	64.0	-200298.0	-6991.0	-12524.0
3	16	55	4	224	65.0	-200181.0	-6959.0	-21780.0
3	16	55	4	224	66.0	-200171.0	-6938.0	-20504.0
3	16	55	4	225	67.0	-200064.0	-6904.0	-11822.0
3	16	55	4	226	68.0	-200096.0	-6852.0	981.0
3	16	55	4	226	69.0	-200060.0	-6805.0	13643.0
3	16	55	4	258	70.0	-200021.0	-6782.0	17278.0
3	16	55	4	259	71.0	-200057.0	-6749.0	16906.0
3	16	55	4	259	72.0	-200081.0	-6694.0	13411.0
3	16	55	4	260	73.0	-200240.0	-6666.0	1150.0
3	16	55	4	261	74.0	-200282.0	-6635.0	-14754.0
3	16	55	4	261	75.0	-200427.0	-6598.0	-23109.0
3	16	55	4	262	76.0	-200363.0	-6560.0	-19340.0
3	16	55	4	262	77.0	-200511.0	-6518.0	-7444.0
3	16	55	4	263	78.0	-200488.0	-6462.0	6533.0
3	16	55	4	264	79.0	-200323.0	-6423.0	16576.0
3	16	55	4	264	80.0	-200446.0	-6369.0	16659.0
3	16	55	4	265	81.0	-200457.0	-6322.0	15398.0
3	16	55	4	266	82.0	-200464.0	-6252.0	12513.0
3	16	55	4	266	83.0	-200532.0	-6213.0	-602.0
3	16	55	4	267	84.0	-200532.0	-6173.0	-16645.0
3	16	55	4	267	86.0	-200371.0	-6038.0	-18069.0
3	16	55	4	268	87.0	-200216.0	-5980.0	-8687.0
3	16	55	4	269	88.0	-200079.0	-5906.0	2929.0
3	16	55	4	269	89.0	-200028.0	-5841.0	12191.0
3	16	55	4	270	90.0	-200062.0	-5778.0	14093.0
3	16	55	4	270	91.0	-200255.0	-5674.0	12243.0
3	16	55	4	304	92.0	-200229.0	-5597.0	9508.0
3	16	55	4	304	93.0	-200294.0	-5518.0	-3914.0
3	16	55	4	305	94.0	-200194.0	-5435.0	-19722.0
3	16	55	4	306	95.0	-200294.0	-5385.0	-24157.0
3	16	55	4	306	96.0	-200369.0	-5336.0	-17517.0
3	16	55	4	307	97.0	-200310.0	-5264.0	-5531.0
3	16	55	4	307	98.0	-200272.0	-5207.0	8130.0
3	16	55	4	308	99.0	-200217.0	-5154.0	15558.0
3	16	55	4	309	100.0	-200359.0	-5089.0	14426.0
3	16	55	4	309	101.0	-200466.0	-5012.0	10549.0
3	16	55	4	310	102.0	-200525.0	-4954.0	4723.0
3	16	55	4	311	103.0	-200404.0	-4911.0	-6796.0
3	16	55	4	312	104.0	-200261.0	-4842.0	-20277.0
3	16	55	4	313	105.0	-200280.0	-4772.0	-25512.0
3	16	55	4	314	106.0	-200362.0	-4724.0	-20887.0
3	16	55	4	314	108.0	-200214.0	-4599.0	1739.0
3	16	55	4	315	109.0	-200241.0	-4552.0	8991.0
3	16	55	4	315	110.0	-200325.0	-4497.0	11864.0
3	16	55	4	316	111.0	-200401.0	-4392.0	10624.0
3	16	55	4	317	112.0	-200472.0	-4343.0	5705.0
3	16	55	4	317	113.0	-200409.0	-4291.0	-6334.0
3	16	55	4	318	114.0	-200304.0	-4219.0	-20432.0
3	16	55	4	349	115.0	-200260.0	-4159.0	-24254.0
3	16	55	4	350	116.0	-200261.0	-4092.0	-18330.0
3	16	55	4	351	117.0	-200294.0	-4039.0	-7360.0
3	16	55	4	352	118.0	-200355.0	-4006.0	5771.0
3	16	55	4	352	119.0	-200304.0	-3979.0	12714.0
3	16	55	4	353	120.0	-200392.0	-3936.0	13963.0
3	16	55	4	354	121.0	-200357.0	-3888.0	13540.0
3	16	55	4	354	122.0	-200324.0	-3862.0	9422.0
3	16	55	4	355	123.0	-200270.0	-3841.0	-3187.0
3	16	55	4	355	124.0	-200274.0	-3798.0	-14581.0
3	16	55	4	356	125.0	-200332.0	-3766.0	-19013.0
3	16	55	4	357	126.0	-200376.0	-3728.0	-13014.0
3	16	55	4	357	127.0	-200291.0	-3694.0	599.0
3	16	55	4	358	128.0	-200262.0	-3667.0	16887.0
3	16	55	4	359	129.0	-200195.0	-3665.0	22958.0
3	16	55	4	359	131.0	-200264.0	-3581.0	22544.0
3	16	55	4	360	132.0	-200367.0	-3569.0	18031.0
3	16	55	4	360	133.0	-200321.0	-3527.0	3984.0
3	16	55	4	361	134.0	-200274.0	-3486.0	-9643.0
3	16	55	4	362	135.0	-200200.0	-3434.0	-11154.0
3	16	55	4	362	136.0	-200200.0	-3391.0	-4277.0
3	16	55	4	394	137.0	-200096.0	-3353.0	5963.0
3	16	55	4	395	138.0	-200078.0	-3326.0	19016.0
3	16	55	4	395	139.0	-200177.0	-3314.0	26071.0
3	16	55	4	396	140.0	-199968.0	-3292.0	25914.0
3	16	55	4	397	141.0	-199921.0	-3286.0	24595.0
3	16	55	4	397	142.0	-200016.0	-3267.0	20261.0
3	16	55	4	398	143.0	-199961.0	-3259.0	6766.0
3	16	55	4	399	144.0	-200075.0	-3236.0	-5193.0
3	16	55	4	399	145.0	-200176.0	-3230.0	-7511.0
3	16	55	4	400	146.0	-200321.0	-3208.0	-30.0
3	16	55	4	401	147.0	-200321.0	-3194.0	9651.0
3	16	55	4	401	148.0	-200318.0	-3179.0	21451.0
3	16	55	4	402	149.0	-200237.0	-3189.0	26883.0
3	16	55	4	402	150.0	-200206.0	-3182.0	25463.0
3	16	55	4	403	151.0	-200083.0	-3147.0	22059.0
3	16	55	4	404	153.0	-200179.0	-3154.0	-1287.0
3	16	55	4	404	154.0	-200382.0	-3132.0	-11857.0
3	16	55	4	405	155.0	-200226.0	-3122.0	-11870.0
3	16	55	4	413	156.0	-200232.0	-3091.0	-4644.0
3	16	55	4	414	157.0	-200254.0	-3070.0	5738.0
3	16	55	4	415	158.0	-200178.0	-3064.0	18168.0
3	16	55	4	415	159.0	-200201.0	-3036.0	23627.0
3	16	55	4	438	160.0	-200049.0	-3004.0	23786.0
3	16	55	4	439	161.0	-200042.0	-2997.0	21737.0
3	16	55	4	439	162.0	-200072.0	-2988.0	14491.0
3	16	55	4	440	163.0	-200126.0	-2991.0	971.0
3	16	55	4	441	164.0	-199965.0	-2995.0	-9993.0
3	16	55	4	441	165.0	-199937.0	-2985.0	-11983.0
3	16	55	4	442	166.0	-199930.0	-2984.0	-5777.0
3	16	55	4	443	167.0	-199964.0	-2987.0	6123.0
3	16	55	4	443	168.0	-199933.0	-2973.0	19084.0
3	16	55	4	444	169.0	-199932.0	-2964.0	23450.0
3	16	55	4	445	170.0	-200121.0	-2978.0	21699.0
3	16	55	4	445	171.0	-200297.0	-2988.0	18826.0
3	16	55	4	446	172.0	-200284.0	-2989.0	11730.0
3	16	55	4	447	173.0	-200221.0	-2977.0	-1664.0
3	16	55	4	447	174.0	-200258.0	-2986.0	-10974.0
3	16	55	4	448	176.0	-200291.0	-2996.0	-4957.0
3	16	55	4	449	177.0	-200163.0	-2972.0	7227.0
3	16	55	4	449	178.0	-200126.0	-2967.0	20774.0
3	16	55	4	450	179.0	-200288.0	-2954.0	25379.0
3	16	55	4	451	180.0	-200320.0	-2936.0	25708.0
3	16	55	4	451	181.0	-200326.0	-2937.0	22136.0
3	16	55	4	483	182.0	-200366.0	-2908.0	14236.0
3	16	55	4	484	183.0	-200514.0	-2896.0	-1308.0
3	16	55	4	484	184.0	-200424.0	-2890.0	-11159.0
3	16	55	4	485	185.0	-200282.0	-2902.0	-10317.0
3	16	55	4	486	186.0	-200297.0	-2906.0	-4246.0
3	16	55	4	486	187.0	-200387.0	-2896.0	5443.0
3	16	55	4	487	188.0	-200353.0	-2877.0	18138.0
3	16	55	4	488	189.0	-200422.0	-2881.0	22486.0
3	16	55	4	488	190.0	-200405.0	-2872.0	22931.0
3	16	55	4	489	191.0	-200557.0	-2873.0	21189.0
3	16	55	4	490	192.0	-200421.0	-2882.0	13689.0
3	16	55	4	490	193.0	-200452.0	-2858.0	-1316.0
3	16	55	4	491	194.0	-200379.0	-2852.0	-9666.0
3	16	55	4	492	195.0	-200427.0	-2861.0	-6146.0
3	16	55	4	492	196.0	-200379.0	-2856.0	2368.0
3	16	55	4	493	198.0	-200312.0	-2830.0	21977.0
3	16	55	4	493	199.0	-200278.0	-2819.0	25481.0
3	16	55	4	494	200.0	-200177.0	-2786.0	25009.0
3	16	55	4	495	201.0	-200165.0	-2764.0	22248.0
3	16	55	4	495	202.0	-200139.0	-2747.0	12789.0
3	16	55	4	496	203.0	-200224.0	-2712.0	-2195.0
3	16	55	4	529	204.0	-200234.0	-2697.0	-11643.0
3	16	55	4	529	205.0	-200394.0	-2668.0	-10125.0
3	16	55	4	530	206.0	-200343.0	-2636.0	-1444.0
3	16	55	4	531	207.0	-200339.0	-2622.0	10652.0
3	16	55	4	531	208.0	-200406.0	-2590.0	21536.0
3	16	55	4	532	209.0	-200309.0	-2568.0	24882.0
3	16	55	4	533	210.0	-200161.0	-2574.0	23386.0
3	16	55	4	535	211.0	-200121.0	-2554.0	20152.0
3	16	55	4	536	212.0	-200197.0	-2539.0	7824.0
3	16	55	4	537	213.0	-200213.0	-2523.0	-9129.0
3	16	55	4	538	214.0	-200262.0	-2499.0	-17319.0
3	16	55	4	538	215.0	-200205.0	-2476.0	-13927.0
3	16	55	4	539	216.0	-200217.0	-2451.0	-3922.0
3	16	55	4	540	217.0	-200207.0	-2423.0	10190.0
3	16	55	4	540	218.0	-200142.0	-2400.0	18754.0
3	16	55	4	541	221.0	-200044.0	-2324.0	16817.0
3	16	55	4	541	222.0	-199992.0	-2282.0	5514.0
3	16	55	4	542	223.0	-200016.0	-2239.0	-8138.0
3	16	55	4	543	224.0	-200082.0	-2199.0	-13419.0
3	16	55	4	543	225.0	-200300.0	-2166.0	-10677.0
3	16	55	4	544	226.0	-200216.0	-2112.0	-2407.0
3	16	55	4	574	227.0	-200088.0	-2058.0	9984.0
3	16	55	4	575	228.0	-200282.0	-2009.0	17853.0
3	16	55	4	576	229.0	-200314.0	-1986.0	17379.0
3	16	55	4	576	230.0	-200131.0	-1952.0	14652.0
3	16	55	4	577	231.0	-200143.0	-1937.0	10482.0
3	16	55	4	578	232.0	-200164.0	-1909.0	-802.0
3	16	55	4	578	233.0	-200064.0	-1881.0	-14515.0
3	16	55	4	579	234.0	-200042.0	-1842.0	-20187.0
3	16	55	4	580	235.0	-200069.0	-1806.0	-18292.0
3	16	55	4	580	236.0	-200141.0	-1767.0	-9391.0
3	16	55	4	581	237.0	-200076.0	-1722.0	4688.0
3	16	55	4	582	238.0	-200016.0	-1676.0	15554.0
3	16	55	4	582	239.0	-199946.0	-1661.0	17029.0
3	16	55	4	583	240.0	-199961.0	-1629.0	15677.0
3	16	55	4	583	241.0	-199896.0	-1603.0	11419.0
3	16	55	4	584	243.0	-200081.0	-1504.0	-13119.0
3	16	55	4	585	244.0	-200146.0	-1476.0	-18361.0
3	16	55	4	585	245.0	-200117.0	-1424.0	-14774.0
3	16	55	4	586	246.0	-200228.0	-1375.0	-4101.0
3	16	55	4	587	247.0	-200267.0	-1326.0	8713.0
3	16	55	4	587	248.0	-200357.0	-1251.0	15931.0
3	16	55	4	618	249.0	-200281.0	-1203.0	16848.0
3	16	55	4	619	250.0	-200182.0	-1164.0	16615.0
3	16	55	4	619	251.0	-200197.0	-1123.0	12686.0
3	16	55	4	620	252.0	-200246.0	-1091.0	-612.0
3	16	55	4	621	253.0	-200237.0	-1062.0	-13883.0
3	16	55	4	641	254.0	-200316.0	-1007.0	-17874.0
3	16	55	4	642	255.0	-200321.0	-982.0	-14011.0
3	16	55	4	643	0.0	-200350.0	-951.0	-4054.0
3	16	55	4	643	1.0	-200351.0	-907.0	7084.0
3	16	55	4	644	2.0	-200185.0	-879.0	12674.0
3	16	55	4	644	3.0	-200330.0	-860.0	12326.0
3	16	55	4	645	4.0	-200441.0	-831.0	10964.0
3	16	55	4	646	5.0	-200216.0	-778.0	6831.0
3	16	55	4	646	6.0	-200144.0	-746.0	-4156.0
3	16	55	4	647	7.0	-200252.0	-721.0	-15891.0
3	16	55	4	647	9.0	-200112.0	-651.0	-13484.0
3	16	55	4	648	10.0	-200119.0	-627.0	-4012.0
3	16	55	4	649	11.0	-199962.0	-575.0	10096.0
3	16	55	4	649	12.0	-200080.0	-516.0	17771.0
3	16	55	4	650	13.0	-200133.0	-452.0	17586.0
3	16	55	4	650	14.0	-200106.0	-436.0	16647.0
3	16	55	4	651	15.0	-200267.0	-396.0	12418.0
3	16	55	4	665	16.0	-200271.0	-346.0	-2277.0
3	16	55	4	666	17.0	-200037.0	-308.0	-14827.0
3	16	55	4	666	18.0	-200119.0	-270.0	-16402.0
3	16	55	4	667	19.0	-200195.0	-236.0	-11754.0
3	16	55	4	668	20.0	-200176.0	-228.0	-3261.0
3	16	55	4	668	21.0	-200233.0	-211.0	10006.0
3	16	55	4	669	22.0	-200212.0	-179.0	15354.0
3	16	55	4	670	23.0	-200241.0	-166.0	16324.0
3	16	55	4	670	24.0	-200268.0	-151.0	15802.0
3	16	55	4	671	25.0	-200207.0	-138.0	9402.0
3	16	55	4	672	26.0	-200326.0	-113.0	-3992.0
3	16	55	4	672	27.0	-200441.0	-87.0	-16016.0
3	16	55	4	673	28.0	-200387.0	-70.0	-19403.0
3	16	55	4	674	29.0	-200352.0	-72.0	-13691.0
3	16	55	4	674	30.0	-200334.0	-37.0	-4778.0
3	16	55	4	675	32.0	-200403.0	0.0	11760.0
3	16	55	4	676	33.0	-200333.0	12.0	10289.0
3	16	55	4	676	34.0	-200386.0	32.0	7953.0
3	16	55	4	677	35.0	-200382.0	61.0	3056.0
3	16	55	4	677	36.0	-200156.0	89.0	-9942.0
3	16	55	4	678	37.0	-200063.0	109.0	-21596.0
3	16	55	4	709	38.0	-200248.0	133.0	-23047.0
3	16	55	4	709	39.0	-200327.0	171.0	-15642.0
3	16	55	4	710	40.0	-200292.0	179.0	-3177.0
3	16	55	4	711	41.0	-200371.0	180.0	9779.0
3	16	55	4	712	42.0	-200433.0	186.0	13669.0
3	16	55	4	712	43.0	-200531.0	189.0	13611.0
3	16	55	4	713	44.0	-200419.0	199.0	12442.0
3	16	55	4	714	45.0	-200266.0	218.0	6418.0
3	16	55	4	714	46.0	-200271.0	211.0	-6859.0
3	16	55	4	715	47.0	-200264.0	207.0	-15482.0
3	16	55	4	715	48.0	-200102.0	209.0	-16386.0
3	16	55	4	716	49.0	-200254.0	203.0	-9081.0
3	16	55	4	717	50.0	-200518.0	208.0	1159.0
3	16	55	4	718	51.0	-200343.0	223.0	11808.0
3	16	55	4	718	52.0	-200086.0	214.0	16246.0
3	16	55	4	719	54.0	-199983.0	209.0	12816.0
3	16	55	4	720	55.0	-200012.0	204.0	4878.0
3	16	55	4	720	56.0	-200007.0	207.0	-10146.0
3	16	55	4	721	57.0	-200095.0	216.0	-19380.0
3	16	55	4	721	58.0	-200291.0	228.0	-20091.0
3	16	55	4	722	59.0	-200287.0	253.0	-14627.0
3	16	55	4	723	60.0	-200250.0	259.0	-5217.0
3	16	55	4	753	61.0	-200193.0	258.0	6361.0
3	16	55	4	754	62.0	-200162.0	259.0	8411.0
3	16	55	4	755	63.0	-200254.0	258.0	7751.0
3	16	55	4	755	64.0	-200199.0	253.0	6664.0
3	16	55	4	756	65.0	-200187.0	248.0	-83.0
3	16	55	4	757	66.0	-200341.0	244.0	-14132.0
3	16	55	4	757	67.0	-200429.0	229.0	-22179.0
3	16	55	4	758	68.0	-200371.0	232.0	-19636.0
3	16	55	4	759	69.0	-200444.0	218.0	-10723.0
3	16	55	4	759	70.0	-200454.0	206.0	1825.0
3	16	55	4	760	71.0	-200302.0	179.0	11196.0
3	16	55	4	761	72.0	-200234.0	168.0	12158.0
3	16	55	4	761	73.0	-200364.0	149.0	10256.0
3	16	55	4	762	74.0	-200478.0	124.0	8295.0
3	16	55	4	763	75.0	-200560.0	125.0	520.0
3	16	55	4	763	77.0	-200562.0	94.0	-21166.0
3	16	55	4	764	78.0	-200664.0	79.0	-20442.0
3	16	55	4	765	79.0	-200501.0	99.0	-13209.0
3	16	55	4	765	80.0	-200372.0	89.0	-2841.0
3	16	55	4	766	81.0	-200346.0	83.0	5988.0
3	16	55	4	767	82.0	-200238.0	82.0	9273.0
3	16	55	4	799	83.0	-200249.0	104.0	9908.0
3	16	55	4	799	84.0	-200114.0	106.0	8024.0
3	16	55	4	800	85.0	-200068.0	68.0	-576.0
3	16	55	4	801	86.0	-200242.0	49.0	-15044.0
3	16	55	4	801	87.0	-200237.0	57.0	-23143.0
3	16	55	4	802	88.0	-200162.0	14.0	-20201.0
3	16	55	4	802	89.0	-200036.0	-1.0	-11634.0
3	16	55	4	803	90.0	-199993.0	-13.0	-421.0
3	16	55	4	804	91.0	-199994.0	-41.0	8976.0
3	16	55	4	804	92.0	-199927.0	-59.0	9859.0
3	16	55	4	805	93.0	-200009.0	-88.0	7941.0
3	16	55	4	806	94.0	-200110.0	-89.0	4478.0
3	16	55	4	806	95.0	-200017.0	-101.0	-7119.0
3	16	55	4	807	96.0	-200107.0	-128.0	-22719.0
3	16	55	4	807	97.0	-200074.0	-133.0	-30439.0
3	16	55	4	808	99.0	-200094.0	-168.0	-18554.0
3	16	55	4	808	100.0	-200052.0	-179.0	-4928.0
3	16	55	4	809	101.0	-199997.0	-186.0	4843.0
3	16	55	4	810	102.0	-200127.0	-188.0	7603.0
3	16	55	4	810	103.0	-200144.0	-190.0	6814.0
3	16	55	4	811	104.0	-200301.0	-186.0	5363.0
3	16	55	4	811	105.0	-200109.0	-187.0	-2394.0
3	16	55	4	844	106.0	-199977.0	-184.0	-15527.0
3	16	55	4	845	107.0	-200116.0	-172.0	-22168.0
3	16	55	4	845	108.0	-200244.0	-188.0	-20033.0
3	16	55	4	846	109.0	-199977.0	-208.0	-10145.0
3	16	55	4	847	110.0	-199898.0	-232.0	3745.0
3	16	55	4	847	111.0	-199867.0	-242.0	12168.0
3	16	55	4	848	112.0	-200032.0	-260.0	13215.0
3	16	55	4	848	113.0	-200036.0	-267.0	10851.0
3	16	55	4	849	114.0	-199966.0	-296.0	6478.0
3	16	55	4	850	115.0	-200201.0	-306.0	-3977.0
3	16	55	4	850	116.0	-200312.0	-312.0	-18328.0
3	16	55	4	851	117.0	-200277.0	-327.0	-23802.0
3	16	55	4	851	118.0	-200092.0	-329.0	-18594.0
3	16	55	4	852	119.0	-199986.0	-366.0	-8331.0
3	16	55	4	853	120.0	-200119.0	-367.0	4787.0
3	16	55	4	853	122.0	-200044.0	-387.0	16891.0
3	16	55	4	854	123.0	-200108.0	-416.0	13490.0
3	16	55	4	854	124.0	-200224.0	-408.0	8408.0
3	16	55	4	855	125.0	-200177.0	-392.0	-1361.0
3	16	55	4	855	126.0	-200182.0	-396.0	-12991.0
3	16	55	4	856	127.0	-200199.0	-399.0	-17342.0
3	16	55	4	889	128.0	-200214.0	-399.0	-12727.0
3	16	55	4	889	129.0	-200319.0	-406.0	-4059.0
3	16	55	4	890	130.0	-200444.0	-428.0	7942.0
3	16	55	4	891	131.0	-200390.0	-454.0	15845.0
3	16	55	4	891	132.0	-200325.0	-467.0	16961.0
3	16	55	4	892	133.0	-200454.0	-473.0	15602.0
3	16	55	4	892	134.0	-200531.0	-474.0	12491.0
3	16	55	4	893	135.0	-200414.0	-500.0	1163.0
3	16	55	4	894	136.0	-200374.0	-515.0	-10114.0
3	16	55	4	894	137.0	-200236.0	-526.0	-14171.0
3	16	55	4	895	138.0	-200166.0	-549.0	-9712.0
3	16	55	4	895	139.0	-200221.0	-566.0	-352.0
3	16	55	4	896	140.0	-200151.0	-597.0	12514.0
3	16	55	4	897	141.0	-200175.0	-607.0	17498.0
3	16	55	4	897	142.0	-200241.0	-617.0	16570.0
3	16	55	4	898	144.0	-200392.0	-643.0	7017.0
3	16	55	4	899	145.0	-200364.0	-661.0	-4647.0
3	16	55	4	899	146.0	-200342.0	-656.0	-16044.0
3	16	55	4	900	147.0	-200309.0	-649.0	-19169.0
3	16	55	4	900	148.0	-200301.0	-654.0	-13888.0
3	16	55	4	901	149.0	-200312.0	-660.0	-5274.0
3	16	55	4	901	150.0	-200387.0	-652.0	5699.0
3	16	55	4	932	151.0	-200353.0	-662.0	10218.0
3	16	55	4	933	152.0	-200353.0	-657.0	10739.0
3	16	55	4	934	153.0	-200315.0	-671.0	9319.0
3	16	55	4	934	154.0	-200311.0	-698.0	4388.0
3	16	55	4	935	155.0	-200373.0	-726.0	-8959.0
3	16	55	4	935	156.0	-200185.0	-756.0	-19610.0
3	16	55	4	936	157.0	-200152.0	-772.0	-22443.0
3	16	55	4	937	158.0	-200215.0	-771.0	-16638.0
3	16	55	4	937	159.0	-200241.0	-806.0	-7382.0
3	16	55	4	938	160.0	-200224.0	-820.0	3834.0
3	16	55	4	939	161.0	-200122.0	-844.0	9518.0
3	16	55	4	939	162.0	-200176.0	-854.0	10794.0
3	16	55	4	940	163.0	-200260.0	-853.0	11084.0
3	16	55	4	940	164.0	-200310.0	-867.0	6332.0
3	16	55	4	941	165.0	-200069.0	-891.0	-7616.0
3	16	55	4	942	167.0	-200249.0	-906.0	-21987.0
3	16	55	4	942	168.0	-200356.0	-913.0	-15984.0
3	16	55	4	943	169.0	-200355.0	-928.0	-5762.0
3	16	55	4	943	170.0	-200307.0	-938.0	6398.0
3	16	55	4	944	171.0	-200286.0	-947.0	10856.0
3	16	55	4	945	172.0	-200276.0	-949.0	9975.0
3	16	55	4	979	173.0	-200394.0	-946.0	7319.0
3	16	55	4	980	174.0	-200472.0	-951.0	2656.0
3	16	55	4	980	175.0	-200421.0	-959.0	-9559.0
3	16	55	4	981	176.0	-200264.0	-974.0	-20158.0
3	16	55	4	982	177.0	-200205.0	-981.0	-22382.0
3	16	55	4	982	178.0	-200229.0	-1001.0	-16559.0
3	16	55	4	983	179.0	-200254.0	-1019.0	-7074.0
3	16	55	4	984	180.0	-200281.0	-1057.0	4587.0
3	16	55	4	984	181.0	-200216.0	-1074.0	8768.0
3	16	55	4	985	182.0	-200314.0	-1092.0	8538.0
3	16	55	4	985	183.0	-200182.0	-1094.0	6234.0
3	16	55	4	986	184.0	-200171.0	-1136.0	656.0
3	16	55	4	987	185.0	-200158.0	-1160.0	-12551.0
3	16	55	4	987	186.0	-200152.0	-1154.0	-23021.0
3	16	55	4	988	187.0	-200218.0	-1177.0	-24244.0
3	16	55	4	988	189.0	-200448.0	-1193.0	-3546.0
3	16	55	4	989	190.0	-200347.0	-1223.0	7296.0
3	16	55	4	990	191.0	-200232.0	-1217.0	11923.0
3	16	55	4	990	192.0	-200198.0	-1191.0	13367.0
3	16	55	4	991	193.0	-200252.0	-1170.0	11417.0
3	16	55	4	991	194.0	-200255.0	-1168.0	4932.0
3	16	55	5	23	195.0	-200148.0	-1152.0	-9602.0
3	16	55	5	24	196.0	-200092.0	-1158.0	-19946.0
3	16	55	5	25	197.0	-200213.0	-1139.0	-19735.0
3	16	55	5	25	198.0	-200224.0	-1152.0	-13031.0
3	16	55	5	26	199.0	-200341.0	-1134.0	-2855.0
3	16	55	5	26	200.0	-200189.0	-1123.0	8301.0
3	16	55	5	27	201.0	-200109.0	-1116.0	12388.0
3	16	55	5	28	202.0	-200220.0	-1111.0	13134.0
3	16	55	5	28	203.0	-200248.0	-1087.0	11962.0
3	16	55	5	29	204.0	-200101.0	-1059.0	5819.0
3	16	55	5	29	205.0	-200170.0	-1041.0	-7585.0
3	16	55	5	30	206.0	-200207.0	-1017.0	-16199.0
3	16	55	5	31	207.0	-200271.0	-979.0	-15551.0
3	16	55	5	31	208.0	-200236.0	-948.0	-7933.0
3	16	55	5	32	209.0	-200198.0	-899.0	1860.0
3	16	55	5	33	211.0	-199957.0	-826.0	14016.0
3	16	55	5	33	212.0	-199888.0	-781.0	13075.0
3	16	55	5	34	213.0	-200175.0	-728.0	10903.0
3	16	55	5	34	214.0	-200129.0	-642.0	3307.0
3	16	55	5	35	215.0	-200099.0	-581.0	-8909.0
3	16	55	5	36	216.0	-200062.0	-499.0	-15956.0
3	16	55	5	36	217.0	-200080.0	-422.0	-14987.0
3	16	55	5	68	218.0	-200014.0	-327.0	-8108.0
3	16	55	5	69	219.0	-200039.0	-237.0	2634.0
3	16	55	5	70	220.0	-200235.0	-151.0	14586.0
3	16	55	5	70	221.0	-200184.0	-109.0	18441.0
3	16	55	5	71	222.0	-200357.0	-48.0	17099.0
3	16	55	5	71	223.0	-200254.0	40.0	13264.0
3	16	55	5	72	224.0	-200457.0	115.0	5288.0
3	16	55	5	73	225.0	-200386.0	193.0	-8023.0
3	16	55	5	73	226.0	-200199.0	288.0	-15863.0
3	16	55	5	74	227.0	-200350.0	384.0	-15624.0
3	16	55	5	74	228.0	-200141.0	460.0	-9421.0
3	16	55	5	75	229.0	-200187.0	561.0	1606.0
3	16	55	5	76	230.0	-200332.0	653.0	11834.0
3	16	55	5	76	231.0	-200317.0	749.0	16139.0
3	16	55	5	77	232.0	-200356.0	853.0	15699.0
3	16	55	5	77	234.0	-200421.0	1058.0	3503.0
3	16	55	5	78	235.0	-200284.0	1156.0	-8778.0
3	16	55	5	79	236.0	-200229.0	1271.0	-14322.0
3	16	55	5	79	237.0	-200350.0	1393.0	-11518.0
3	16	55	5	80	238.0	-200229.0	1508.0	-1309.0
3	16	55	5	80	239.0	-200051.0	1629.0	11248.0
3	16	55	5	81	240.0	-200051.0	1751.0	20063.0
3	16	55	5	113	241.0	-199989.0	1865.0	22165.0
3	16	55	5	114	242.0	-200111.0	1994.0	21067.0
3	16	55	5	115	243.0	-200139.0	2095.0	16521.0
3	16	55	5	115	244.0	-200206.0	2181.0	4721.0
3	16	55	5	116	245.0	-200237.0	2293.0	-8990.0
3	16	55	5	116	246.0	-200222.0	2378.0	-14283.0
3	16	55	5	117	247.0	-200318.0	2486.0	-10750.0
3	16	55	5	118	248.0	-200053.0	2571.0	-3768.0
3	16	55	5	118	249.0	-200184.0	2686.0	7079.0
3	16	55	5	119	250.0	-200377.0	2780.0	13527.0
3	16	55	5	120	251.0	-200330.0	2886.0	13934.0
3	16	55	5	120	252.0	-200287.0	2995.0	13291.0
3	16	55	5	121	253.0	-200301.0	3082.0	11748.0
3	16	55	5	122	254.0	-200269.0	3176.0	2279.0
3	16	55	5	122	255.0	-200310.0	3264.0	-10175.0
3	16	55	5	123	0.0	-200421.0	3350.0	-14696.0
3	16	55	5	123	1.0	-200292.0	3457.0	-10577.0
3	16	55	5	124	2.0	-200454.0	3574.0	-1106.0
3	16	55	5	125	3.0	-200560.0	3678.0	12030.0
3	16	55	5	125	4.0	-200421.0	3773.0	20783.0
3	16	55	5	126	5.0	-200569.0	3859.0	21305.0
3	16	55	5	126	6.0	-200379.0	3966.0	17213.0
3	16	55	5	158	7.0	-200226.0	4059.0	11573.0
3	16	55	5	159	8.0	-200406.0	4143.0	-1437.0
3	16	55	5	160	9.0	-200228.0	4227.0	-15542.0
3	16	55	5	160	10.0	-200166.0	4304.0	-20876.0
3	16	55	5	161	11.0	-200343.0	4375.0	-16558.0
3	16	55	5	162	12.0	-200159.0	4451.0	-7618.0
3	16	55	5	162	13.0	-200214.0	4519.0	5061.0
3	16	55	5	163	14.0	-200322.0	4591.0	12753.0
3	16	55	5	163	15.0	-200149.0	4659.0	11138.0
3	16	55	5	164	16.0	-200210.0	4713.0	7523.0
3	16	55	5	165	17.0	-200225.0	4764.0	2501.0
3	16	55	5	165	18.0	-200198.0	4833.0	-8484.0
3	16	55	5	166	19.0	-200237.0	4897.0	-21707.0
3	16	55	5	166	20.0	-200166.0	4961.0	-27075.0
3	16	55	5	167	21.0	-200349.0	5007.0	-24191.0
3	16	55	5	168	23.0	-200220.0	5119.0	-4471.0
3	16	55	5	168	24.0	-200277.0	5173.0	1437.0
3	16	55	5	169	25.0	-200054.0	5253.0	1303.0
3	16	55	5	169	26.0	-200010.0	5320.0	177.0
3	16	55	5	170	27.0	-200086.0	5384.0	-3464.0
3	16	55	5	171	28.0	-199911.0	5431.0	-15800.0
3	16	55	5	203	29.0	-200106.0	5493.0	-28796.0
3	16	55	5	204	30.0	-200126.0	5571.0	-32627.0
3	16	55	5	204	31.0	-200088.0	5627.0	-28038.0
3	16	55	5	205	32.0	-200334.0	5664.0	-17851.0
3	16	55	5	206	33.0	-199941.0	5695.0	-5280.0
3	16	55	5	206	34.0	-199981.0	5738.0	876.0
3	16	55	5	207	35.0	-200213.0	5779.0	1619.0
3	16	55	5	208	36.0	-199934.0	5802.0	1349.0
3	16	55	5	208	37.0	-200291.0	5857.0	-3091.0
3	16	55	5	209	38.0	-200150.0	5883.0	-16061.0
3	16	55	5	209	39.0	-199931.0	5939.0	-24337.0
3	16	55	5	210	40.0	-200191.0	5950.0	-23538.0
3	16	55	5	211	41.0	-200092.0	5988.0	-16790.0
3	16	55	5	211	42.0	-200222.0	6016.0	-6934.0
3	16	55	5	212	43.0	-200291.0	6049.0	5094.0
3	16	55	5	212	45.0	-200331.0	6095.0	8237.0
3	16	55	5	213	46.0	-200386.0	6123.0	6909.0
3	16	55	5	214	47.0	-200272.0	6160.0	1496.0
3	16	55	5	214	48.0	-200359.0	6211.0	-11897.0
3	16	55	5	215	49.0	-200325.0	6263.0	-22291.0
3	16	55	5	215	50.0	-200457.0	6296.0	-24189.0
3	16	55	5	216	51.0	-200359.0	6324.0	-18081.0
3	16	55	5	248	52.0	-200437.0	6352.0	-7481.0
3	16	55	5	248	53.0	-200249.0	6379.0	5353.0
3	16	55	5	249	54.0	-200096.0	6392.0	9928.0
3	16	55	5	250	55.0	-200376.0	6411.0	8496.0
3	16	55	5	251	56.0	-200274.0	6428.0	6354.0
3	16	55	5	251	57.0	-200187.0	6474.0	2538.0
3	16	55	5	252	58.0	-200486.0	6496.0	-10116.0
3	16	55	5	253	59.0	-200168.0	6503.0	-20842.0
3	16	55	5	253	60.0	-200190.0	6503.0	-22596.0
3	16	55	5	254	61.0	-200500.0	6519.0	-16792.0
3	16	55	5	255	62.0	-200212.0	6519.0	-8759.0
3	16	55	5	255	63.0	-200182.0	6536.0	2030.0
3	16	55	5	256	64.0	-200587.0	6553.0	7578.0
3	16	55	5	257	65.0	-200157.0	6559.0	7823.0
3	16	55	5	257	66.0	-200324.0	6561.0	6523.0
3	16	55	5	258	68.0	-200150.0	6603.0	-12242.0
3	16	55	5	259	69.0	-200196.0	6622.0	-22192.0
3	16	55	5	259	70.0	-200189.0	6633.0	-24501.0
3	16	55	5	260	71.0	-200218.0	6666.0	-22063.0
3	16	55	5	260	72.0	-200147.0	6696.0	-14296.0
3	16	55	5	261	73.0	-200041.0	6709.0	-2479.0
3	16	55	5	294	74.0	-200301.0	6725.0	3261.0
3	16	55	5	295	75.0	-200104.0	6768.0	2186.0
3	16	55	5	296	76.0	-200162.0	6793.0	-362.0
3	16	55	5	296	77.0	-200090.0	6808.0	-6692.0
3	16	55	5	297	78.0	-200148.0	6805.0	-20352.0
3	16	55	5	298	79.0	-200187.0	6816.0	-28408.0
3	16	55	5	299	80.0	-200199.0	6844.0	-27627.0
3	16	55	5	299	81.0	-200115.0	6856.0	-20417.0
3	16	55	5	300	82.0	-200170.0	6876.0	-9149.0
3	16	55	5	301	83.0	-200198.0	6900.0	2262.0
3	16	55	5	302	84.0	-200185.0	6911.0	6128.0
3	16	55	5	302	85.0	-200219.0	6936.0	6563.0
3	16	55	5	303	86.0	-200075.0	6957.0	5366.0
3	16	55	5	303	87.0	-200047.0	6981.0	-2376.0
3	16	55	5	304	88.0	-199815.0	6984.0	-15817.0
3	16	55	5	305	90.0	-200140.0	7043.0	-23488.0
3	16	55	5	305	91.0	-200089.0	7083.0	-17232.0
3	16	55	5	306	92.0	-200016.0	7114.0	-5294.0
3	16	55	5	306	93.0	-200087.0	7150.0	7236.0
3	16	55	5	307	94.0	-200079.0	7193.0	11510.0
3	16	55	5	308	95.0	-200213.0	7216.0	11841.0
3	16	55	5	308	96.0	-200122.0	7249.0	10558.0
3	16	55	5	339	97.0	-200186.0	7278.0	2040.0
3	16	55	5	340	98.0	-200207.0	7319.0	-10456.0
3	16	55	5	340	99.0	-200152.0	7359.0	-16820.0
3	16	55	5	341	100.0	-200292.0	7375.0	-15226.0
3	16	55	5	342	101.0	-200300.0	7395.0	-8764.0
3	16	55	5	342	102.0	-200198.0	7436.0	1437.0
3	16	55	5	343	103.0	-200174.0	7463.0	12276.0
3	16	55	5	344	104.0	-200229.0	7476.0	15941.0
3	16	55	5	344	105.0	-200252.0	7495.0	16268.0
3	16	55	5	345	106.0	-200260.0	7519.0	15343.0
3	16	55	5	346	107.0	-200301.0	7539.0	7972.0
3	16	55	5	346	108.0	-200309.0	7566.0	-6404.0
3	16	55	5	347	109.0	-200304.0	7596.0	-15028.0
3	16	55	5	347	110.0	-200394.0	7619.0	-12672.0
3	16	55	5	348	111.0	-200526.0	7644.0	-4044.0
3	16	55	5	349	113.0	-200441.0	7718.0	16611.0
3	16	55	5	349	114.0	-200635.0	7748.0	18171.0
3	16	55	5	350	115.0	-200549.0	7780.0	16880.0
3	16	55	5	350	116.0	-200559.0	7819.0	15256.0
3	16	55	5	351	117.0	-200536.0	7854.0	8068.0
3	16	55	5	352	118.0	-200216.0	7893.0	-2732.0
3	16	55	5	383	119.0	-200189.0	7928.0	-6510.0
3	16	55	5	384	120.0	-200365.0	7963.0	-3791.0
3	16	55	5	385	121.0	-200297.0	7983.0	1896.0
3	16	55	5	385	122.0	-200105.0	8013.0	12735.0
3	16	55	5	386	123.0	-200095.0	8032.0	21688.0
3	16	55	5	387	124.0	-200265.0	8048.0	22448.0
3	16	55	5	387	125.0	-200217.0	8073.0	21881.0
3	16	55	5	388	126.0	-200035.0	8091.0	18109.0
3	16	55	5	389	127.0	-200321.0	8114.0	8315.0
3	16	55	5	389	128.0	-200409.0	8119.0	-5497.0
3	16	55	5	390	129.0	-200214.0	8142.0	-12877.0
3	16	55	5	390	130.0	-200310.0	8159.0	-13099.0
3	16	55	5	391	131.0	-200472.0	8150.0	-6261.0
3	16	55	5	392	132.0	-200291.0	8173.0	3922.0
3	16	55	5	392	133.0	-200148.0	8206.0	10623.0
3	16	55	5	393	135.0	-200372.0	8233.0	11505.0
3	16	55	5	394	136.0	-200192.0	8246.0	7758.0
3	16	55	5	394	137.0	-200074.0	8272.0	-2064.0
3	16	55	5	395	138.0	-200283.0	8298.0	-15621.0
3	16	55	5	395	139.0	-200152.0	8334.0	-22812.0
3	16	55	5	396	140.0	-200161.0	8368.0	-20401.0
3	16	55	5	397	141.0	-200383.0	8379.0	-12263.0
3	16	55	5	428	142.0	-200369.0	8398.0	434.0
3	16	55	5	429	143.0	-200184.0	8434.0	8801.0
3	16	55	5	430	144.0	-200259.0	8425.0	11392.0
3	16	55	5	430	145.0	-200288.0	8424.0	11499.0
3	16	55	5	431	146.0	-200079.0	8437.0	8991.0
3	16	55	5	432	147.0	-200012.0	8434.0	-403.0
3	16	55	5	432	148.0	-200291.0	8435.0	-13507.0
3	16	55	5	433	149.0	-200266.0	8448.0	-19359.0
3	16	55	5	434	150.0	-200182.0	8444.0	-16270.0
3	16	55	5	434	151.0	-200228.0	8430.0	-8453.0
3	16	55	5	435	152.0	-200257.0	8432.0	3239.0
3	16	55	5	435	153.0	-200254.0	8428.0	9756.0
3	16	55	5	436	154.0	-200238.0	8418.0	11107.0
3	16	55	5	437	155.0	-200284.0	8414.0	10101.0
3	16	55	5	437	156.0	-200239.0	8428.0	6068.0
3	16	55	5	438	158.0	-200092.0	8408.0	-13467.0
3	16	55	5	439	159.0	-200134.0	8407.0	-16142.0
3	16	55	5	440	160.0	-200010.0	8426.0	-9848.0
3	16	55	5	440	161.0	-200026.0	8436.0	199.0
3	16	55	5	441	162.0	-200181.0	8432.0	9873.0
3	16	55	5	442	163.0	-200070.0	8440.0	14790.0
3	16	55	5	473	164.0	-200099.0	8439.0	13938.0
3	16	55	5	474	165.0	-200182.0	8440.0	11063.0
3	16	55	5	475	166.0	-200112.0	8432.0	5266.0
3	16	55	5	475	167.0	-200091.0	8399.0	-6927.0
3	16	55	5	476	168.0	-200146.0	8384.0	-18784.0
3	16	55	5	477	169.0	-200320.0	8387.0	-22397.0
3	16	55	5	477	170.0	-200429.0	8368.0	-18633.0
3	16	55	5	478	171.0	-200333.0	8346.0	-10781.0
3	16	55	5	479	172.0	-200275.0	8326.0	697.0
3	16	55	5	479	173.0	-200262.0	8319.0	7113.0
3	16	55	5	480	174.0	-200153.0	8299.0	7723.0
3	16	55	5	481	175.0	-200204.0	8271.0	7582.0
3	16	55	5	481	176.0	-200112.0	8259.0	3523.0
3	16	55	5	482	177.0	-200163.0	8253.0	-9118.0
3	16	55	5	483	178.0	-200099.0	8233.0	-21516.0
3	16	55	5	483	180.0	-200340.0	8189.0	-20114.0
3	16	55	5	484	181.0	-200241.0	8153.0	-9131.0
3	16	55	5	485	182.0	-200211.0	8142.0	2438.0
3	16	55	5	485	183.0	-200189.0	8151.0	7936.0
3	16	55	5	486	184.0	-200082.0	8139.0	6920.0
3	16	55	5	486	185.0	-199961.0	8123.0	5117.0
3	16	55	5	518	186.0	-200132.0	8113.0	1377.0
3	16	55	5	519	187.0	-200119.0	8106.0	-11193.0
3	16	55	5	520	188.0	-200145.0	8098.0	-23292.0
3	16	55	5	521	189.0	-200063.0	8074.0	-27083.0
3	16	55	5	521	190.0	-200117.0	8043.0	-22587.0
3	16	55	5	522	191.0	-200192.0	8015.0	-13241.0
3	16	55	5	523	192.0	-200122.0	7995.0	-116.0
3	16	55	5	523	193.0	-200182.0	7984.0	7630.0
3	16	55	5	524	194.0	-200181.0	7956.0	8800.0
3	16	55	5	525	195.0	-200357.0	7933.0	7698.0
3	16	55	5	526	196.0	-200171.0	7904.0	2372.0
3	16	55	5	526	197.0	-200057.0	7868.0	-11171.0
3	16	55	5	527	198.0	-200080.0	7852.0	-22288.0
3	16	55	5	528	199.0	-199972.0	7824.0	-23604.0
3	16	55	5	528	200.0	-200107.0	7783.0	-16967.0
3	16	55	5	529	202.0	-200243.0	7743.0	4509.0
3	16	55	5	530	203.0	-200179.0	7691.0	8328.0
3	16	55	5	530	204.0	-200321.0	7679.0	8986.0
3	16	55	5	531	205.0	-200249.0	7676.0	7504.0
3	16	55	5	532	206.0	-200237.0	7660.0	2039.0
3	16	55	5	532	207.0	-200244.0	7638.0	-11655.0
3	16	55	5	533	208.0	-200311.0	7623.0	-21052.0
3	16	55	5	563	209.0	-200277.0	7623.0	-22856.0
3	16	55	5	563	210.0	-200429.0	7614.0	-17710.0
3	16	55	5	564	211.0	-200483.0	7588.0	-7292.0
3	16	55	5	565	212.0	-200236.0	7536.0	3526.0
3	16	55	5	566	213.0	-200247.0	7504.0	6910.0
3	16	55	5	566	214.0	-200344.0	7470.0	6519.0
3	16	55	5	567	215.0	-200404.0	7435.0	4744.0
3	16	55	5	568	216.0	-200278.0	7411.0	-1397.0
3	16	55	5	569	217.0	-200241.0	7373.0	-15359.0
3	16	55	5	569	218.0	-200177.0	7339.0	-26101.0
3	16	55	5	570	219.0	-200312.0	7316.0	-26636.0
3	16	55	5	571	220.0	-200354.0	7294.0	-18581.0
3	16	55	5	571	221.0	-200297.0	7244.0	-8329.0
3	16	55	5	572	222.0	-200253.0	7207.0	3435.0
3	16	55	5	573	223.0	-200239.0	7164.0	7838.0
3	16	55	5	573	225.0	-200324.0	7099.0	6303.0
3	16	55	5	574	226.0	-200354.0	7073.0	-1491.0
3	16	55	5	575	227.0	-200259.0	7072.0	-16769.0
3	16	55	5	575	228.0	-200325.0	7071.0	-25316.0
3	16	55	5	576	229.0	-200297.0	7031.0	-24646.0
3	16	55	5	577	230.0	-200239.0	7009.0	-16306.0
3	16	55	5	609	231.0	-200270.0	7005.0	-3584.0
3	16	55	5	609	232.0	-200301.0	7006.0	6585.0
3	16	55	5	610	233.0	-200070.0	6969.0	10060.0
3	16	55	5	611	234.0	-200079.0	6923.0	10968.0
3	16	55	5	612	235.0	-200155.0	6885.0	8787.0
3	16	55	5	612	236.0	-200094.0	6858.0	1641.0
3	16	55	5	613	237.0	-200081.0	6833.0	-10497.0
3	16	55	5	614	238.0	-200180.0	6788.0	-17781.0
3	16	55	5	615	239.0	-200201.0	6763.0	-17271.0
3	16	55	5	615	240.0	-200449.0	6748.0	-8856.0
3	16	55	5	616	241.0	-200499.0	6733.0	1578.0
3	16	55	5	617	242.0	-200326.0	6691.0	10545.0
3	16	55	5	617	243.0	-200346.0	6653.0	12643.0
3	16	55	5	618	244.0	-200320.0	6627.0	11074.0
3	16	55	5	619	245.0	-200281.0	6598.0	7504.0
3	16	55	5	619	247.0	-200013.0	6558.0	-13174.0
3	16	55	5	620	248.0	-200043.0	6524.0	-21071.0
3	16	55	5	621	249.0	-200135.0	6506.0	-21090.0
3	16	55	5	621	250.0	-200062.0	6496.0	-13664.0
3	16	55	5	622	251.0	-200087.0	6464.0	-1976.0
3	16	55	5	623	252.0	-200029.0	6456.0	7044.0
3	16	55	5	623	253.0	-200024.0	6434.0	9194.0
3	16	55	5	654	254.0	-200099.0	6432.0	8790.0
3	16	55	5	655	255.0	-200092.0	6420.0	6152.0
3	16	55	5	655	0.0	-200149.0	6387.0	-1821.0
3	16	55	5	656	1.0	-200177.0	6345.0	-14609.0
3	16	55	5	657	2.0	-200229.0	6328.0	-20721.0
3	16	55	5	658	3.0	-200244.0	6309.0	-17872.0
3	16	55	5	658	4.0	-200302.0	6285.0	-9826.0
3	16	55	5	659	5.0	-200130.0	6235.0	914.0
3	16	55	5	660	6.0	-200177.0	6212.0	10202.0
3	16	55	5	661	7.0	-200128.0	6187.0	10990.0
3	16	55	5	661	8.0	-200281.0	6153.0	8313.0
3	16	55	5	662	9.0	-200248.0	6123.0	4942.0
3	16	55	5	663	10.0	-200177.0	6101.0	-3472.0
3	16	55	5	663	11.0	-200244.0	6071.0	-16358.0
3	16	55	5	664	12.0	-200110.0	6051.0	-22126.0
3	16	55	5	665	14.0	-200216.0	5994.0	-11415.0
3	16	55	5	665	15.0	-200227.0	5971.0	684.0
3	16	55	5	666	16.0	-200142.0	5968.0	10221.0
3	16	55	5	667	17.0	-200143.0	5948.0	12308.0
3	16	55	5	667	18.0	-200187.0	5934.0	11631.0
3	16	55	5	668	19.0	-200266.0	5913.0	9529.0
3	16	55	5	698	20.0	-200234.0	5901.0	1203.0
3	16	55	5	699	21.0	-200222.0	5886.0	-10964.0
3	16	55	5	700	22.0	-200326.0	5854.0	-15494.0
3	16	55	5	701	23.0	-200307.0	5808.0	-12710.0
3	16	55	5	701	24.0	-200344.0	5781.0	-6646.0
3	16	55	5	702	25.0	-200280.0	5771.0	4742.0
3	16	55	5	703	26.0	-200244.0	5731.0	12643.0
3	16	55	5	704	27.0	-200096.0	5687.0	12570.0
3	16	55	5	704	28.0	-200244.0	5668.0	11634.0
3	16	55	5	705	29.0	-200206.0	5633.0	9776.0
3	16	55	5	706	30.0	-200141.0	5586.0	-1008.0
3	16	55	5	707	31.0	-200161.0	5553.0	-13514.0
3	16	55	5	707	32.0	-200157.0	5535.0	-19844.0
3	16	55	5	708	33.0	-200116.0	5487.0	-18483.0
3	16	55	5	709	34.0	-200088.0	5458.0	-10392.0
3	16	55	5	710	36.0	-200192.0	5401.0	8303.0
3	16	55	5	710	37.0	-200221.0	5363.0	8393.0
3	16	55	5	711	38.0	-200177.0	5356.0	5490.0
3	16	55	5	711	39.0	-200245.0	5344.0	1123.0
3	16	55	5	712	40.0	-200293.0	5313.0	-9394.0
3	16	55	5	713	41.0	-200369.0	5309.0	-22902.0
3	16	55	5	713	42.0	-200331.0	5275.0	-26844.0
3	16	55	5	744	43.0	-200302.0	5258.0	-20596.0
3	16	55	5	745	44.0	-200332.0	5233.0	-9399.0
3	16	55	5	746	45.0	-200267.0	5206.0	3726.0
3	16	55	5	747	46.0	-200311.0	5192.0	11958.0
3	16	55	5	747	47.0	-200326.0	5141.0	13559.0
3	16	55	5	748	48.0	-200164.0	5098.0	12038.0
3	16	55	5	749	49.0	-200267.0	5053.0	6208.0
3	16	55	5	750	50.0	-200302.0	5024.0	-6386.0
3	16	55	5	750	51.0	-200255.0	4994.0	-18630.0
3	16	55	5	751	52.0	-200361.0	4951.0	-23178.0
3	16	55	5	752	53.0	-200536.0	4915.0	-18149.0
3	16	55	5	753	54.0	-200507.0	4882.0	-7901.0
3	16	55	5	753	55.0	-200574.0	4838.0	5576.0
3	16	55	5	754	56.0	-200531.0	4814.0	14187.0
3	16	55	5	755	57.0	-200396.0	4771.0	14859.0
3	16	55	5	755	59.0	-200426.0	4701.0	6855.0
3	16	55	5	756	60.0	-200208.0	4675.0	-5678.0
3	16	55	5	757	61.0	-200162.0	4664.0	-16849.0
3	16	55	5	757	62.0	-200164.0	4652.0	-19124.0
3	16	55	5	758	63.0	-199954.0	4630.0	-12855.0
3	16	55	5	759	64.0	-200001.0	4620.0	-3797.0
3	16	55	5	789	65.0	-200095.0	4598.0	8380.0
3	16	55	5	790	66.0	-200039.0	4594.0	13999.0
3	16	55	5	791	67.0	-200212.0	4576.0	14257.0
3	16	55	5	792	68.0	-200381.0	4536.0	12948.0
3	16	55	5	792	69.0	-200322.0	4498.0	9203.0
3	16	55	5	793	70.0	-200250.0	4474.0	-1092.0
3	16	55	5	794	71.0	-200264.0	4460.0	-9026.0
3	16	55	5	795	72.0	-200186.0	4425.0	-11647.0
3	16	55	5	795	73.0	-200276.0	4410.0	-7465.0
3	16	55	5	796	74.0	-200274.0	4385.0	1843.0
3	16	55	5	797	75.0	-200179.0	4369.0	12895.0
3	16	55	5	798	76.0	-200251.0	4348.0	18323.0
3	16	55	5	798	77.0	-200200.0	4344.0	18639.0
3	16	55	5	799	78.0	-200190.0	4328.0	17971.0
3	16	55	5	800	79.0	-200310.0	4326.0	13007.0
3	16	55	5	800	81.0	-200157.0	4337.0	-9084.0
3	16	55	5	801	82.0	-200191.0	4328.0	-11280.0
3	16	55	5	802	83.0	-200225.0	4358.0	-5908.0
3	16	55	5	802	84.0	-200206.0	4378.0	4341.0
3	16	55	5	803	85.0	-200330.0	4412.0	16076.0
3	16	55	5	803	86.0	-200327.0	4441.0	19397.0
3	16	55	5	804	87.0	-200255.0	4478.0	18831.0
3	16	55	5	834	88.0	-200346.0	4514.0	17232.0
3	16	55	5	835	89.0	-200325.0	4559.0	9171.0
3	16	55	5	836	90.0	-200239.0	4592.0	-6218.0
3	16	55	5	836	91.0	-200189.0	4641.0	-16429.0
3	16	55	5	837	92.0	-200254.0	4676.0	-16399.0
3	16	55	5	838	93.0	-200282.0	4711.0	-9714.0
3	16	55	5	839	94.0	-200275.0	4744.0	1468.0
3	16	55	5	840	95.0	-200289.0	4778.0	14614.0
3	16	55	5	840	96.0	-200264.0	4830.0	20527.0
3	16	55	5	841	97.0	-200304.0	4877.0	20239.0
3	16	55	5	842	98.0	-200367.0	4938.0	16952.0
3	16	55	5	843	99.0	-200201.0	5018.0	9731.0
3	16	55	5	843	100.0	-200217.0	5062.0	-5242.0
3	16	55	5	844	101.0	-200120.0	5129.0	-14063.0
3	16	55	5	844	102.0	-200101.0	5219.0	-14002.0
3	16	55	5	845	104.0	-199914.0	5349.0	2403.0
3	16	55	5	846	105.0	-199911.0	5429.0	15832.0
3	16	55	5	846	106.0	-199984.0	5527.0	20256.0
3	16	55	5	847	107.0	-200061.0	5638.0	19625.0
3	16	55	5	847	108.0	-200049.0	5728.0	18836.0
3	16	55	5	848	109.0	-200146.0	5815.0	14170.0
3	16	55	5	878	110.0	-200163.0	5914.0	1423.0
3	16	55	5	879	111.0	-200134.0	6016.0	-8328.0
3	16	55	5	879	112.0	-200182.0	6105.0	-9111.0
3	16	55	5	880	113.0	-200122.0	6192.0	-3326.0
3	16	55	5	881	114.0	-200140.0	6278.0	6051.0
3	16	55	5	882	115.0	-200284.0	6374.0	15646.0
3	16	55	5	882	116.0	-200134.0	6440.0	20807.0
3	16	55	5	883	117.0	-200273.0	6521.0	22108.0
3	16	55	5	884	118.0	-200451.0	6613.0	19304.0
3	16	55	5	884	119.0	-200450.0	6689.0	11192.0
3	16	55	5	885	120.0	-200261.0	6785.0	-3027.0
3	16	55	5	886	121.0	-200245.0	6874.0	-11769.0
3	16	55	5	886	122.0	-200296.0	6956.0	-8532.0
3	16	55	5	887	123.0	-200343.0	7053.0	519.0
3	16	55	5	888	124.0	-200346.0	7131.0	13189.0
3	16	55	5	888	126.0	-200242.0	7301.0	25981.0
3	16	55	5	889	127.0	-200284.0	7394.0	24803.0
3	16	55	5	890	128.0	-200354.0	7490.0	23187.0
3	16	55	5	890	129.0	-200355.0	7584.0	15046.0
3	16	55	5	891	130.0	-200362.0	7668.0	2144.0
3	16	55	5	892	131.0	-200230.0	7766.0	-5067.0
3	16	55	5	892	132.0	-200150.0	7849.0	-4131.0
3	16	55	5	923	133.0	-200304.0	7939.0	3795.0
3	16	55	5	923	134.0	-200341.0	8023.0	15859.0
3	16	55	5	924	135.0	-200197.0	8101.0	25606.0
3	16	55	5	925	136.0	-200302.0	8163.0	26559.0
3	16	55	5	926	137.0	-200237.0	8236.0	25264.0
3	16	55	5	926	138.0	-200363.0	8306.0	23553.0
3	16	55	5	927	139.0	-200279.0	8369.0	14299.0
3	16	55	5	928	140.0	-200237.0	8409.0	648.0
3	16	55	5	929	141.0	-200196.0	8465.0	-6291.0
3	16	55	5	929	142.0	-200239.0	8543.0	-4065.0
3	16	55	5	930	143.0	-200262.0	8617.0	4697.0
3	16	55	5	931	144.0	-200337.0	8659.0	15473.0
3	16	55	5	931	145.0	-200246.0	8713.0	24171.0
3	16	55	5	932	146.0	-200281.0	8754.0	26061.0
3	16	55	5	933	147.0	-200322.0	8795.0	24844.0
3	16	55	5	933	149.0	-200182.0	8889.0	9866.0
3	16	55	5	934	150.0	-200241.0	8927.0	-5324.0
3	16	55	5	935	151.0	-200268.0	8994.0	-13780.0
3	16	55	5	935	152.0	-200144.0	9049.0	-11507.0
3	16	55	5	936	153.0	-200091.0	9105.0	-2092.0
3	16	55	5	937	154.0	-200191.0	9153.0	11971.0
3	16	55	5	968	155.0	-200153.0	9222.0	22474.0
3	16	55	5	969	156.0	-200084.0	9269.0	24247.0
3	16	55	5	970	157.0	-200330.0	9288.0	22535.0
3	16	55	5	970	158.0	-200414.0	9302.0	19244.0
3	16	55	5	971	159.0	-200105.0	9328.0	9181.0
3	16	55	5	972	160.0	-200075.0	9349.0	-3248.0
3	16	55	5	972	161.0	-200197.0	9372.0	-7946.0
3	16	55	5	973	162.0	-200079.0	9411.0	-5527.0
3	16	55	5	974	163.0	-200102.0	9449.0	2938.0
3	16	55	5	975	164.0	-200031.0	9474.0	14794.0
3	16	55	5	975	165.0	-200132.0	9469.0	22124.0
3	16	55	5	976	166.0	-200099.0	9488.0	21051.0
3	16	55	5	977	167.0	-200203.0	9519.0	19112.0
3	16	55	5	977	168.0	-200222.0	9515.0	15396.0
3	16	55	5	978	169.0	-200117.0	9532.0	3043.0
3	16	55	5	979	171.0	-200238.0	9553.0	-16124.0
3	16	55	5	979	172.0	-200211.0	9559.0	-13234.0
3	16	55	5	980	173.0	-200271.0	9603.0	-5296.0
3	16	55	5	980	174.0	-200227.0	9646.0	7396.0
3	16	55	5	981	175.0	-200260.0	9659.0	15008.0
3	16	55	5	982	176.0	-200179.0	9667.0	14730.0
3	16	55	6	13	177.0	-200246.0	9682.0	13296.0
3	16	55	6	14	178.0	-200234.0	9720.0	10036.0
3	16	55	6	15	179.0	-200096.0	9732.0	-64.0
3	16	55	6	15	180.0	-200124.0	9728.0	-12210.0
3	16	55	6	16	181.0	-200116.0	9746.0	-16251.0
3	16	55	6	17	182.0	-200128.0	9726.0	-10571.0
3	16	55	6	18	183.0	-200104.0	9740.0	-1050.0
3	16	55	6	18	184.0	-200124.0	9724.0	10443.0
3	16	55	6	19	185.0	-200211.0	9711.0	15698.0
3	16	55	6	20	186.0	-200139.0	9705.0	14153.0
3	16	55	6	20	187.0	-200126.0	9707.0	10801.0
3	16	55	6	21	188.0	-200092.0	9715.0	6053.0
3	16	55	6	22	189.0	-200176.0	9702.0	-5413.0
3	16	55	6	23	190.0	-200147.0	9686.0	-17586.0
3	16	55	6	23	191.0	-200289.0	9676.0	-21014.0
3	16	55	6	24	193.0	-200212.0	9664.0	-5576.0
3	16	55	6	24	194.0	-200235.0	9666.0	6061.0
3	16	55	6	25	195.0	-200302.0	9661.0	12138.0
3	16	55	6	26	196.0	-200274.0	9661.0	12788.0
3	16	55	6	26	197.0	-200201.0	9671.0	11114.0
3	16	55	6	27	198.0	-200212.0	9676.0	5812.0
3	16	55	6	27	199.0	-200336.0	9647.0	-6231.0
3	16	55	6	58	200.0	-200223.0	9653.0	-16454.0
3	16	55	6	59	201.0	-200306.0	9655.0	-18634.0
3	16	55	6	60	202.0	-200372.0	9654.0	-14022.0
3	16	55	6	61	203.0	-200186.0	9626.0	-6240.0
3	16	55	6	62	204.0	-200142.0	9602.0	5852.0
3	16	55	6	63	205.0	-200102.0	9573.0	12233.0
3	16	55	6	63	206.0	-200157.0	9568.0	11156.0
3	16	55	6	64	207.0	-200018.0	9554.0	9151.0
3	16	55	6	65	208.0	-200066.0	9531.0	5447.0
3	16	55	6	65	209.0	-200167.0	9512.0	-7622.0
3	16	55	6	66	210.0	-200161.0	9501.0	-19152.0
3	16	55	6	67	211.0	-200261.0	9479.0	-22663.0
3	16	55	6	67	212.0	-200340.0	9461.0	-16906.0
3	16	55	6	68	213.0	-200332.0	9444.0	-5820.0
3	16	55	6	69	214.0	-200232.0	9432.0	6393.0
3	16	55	6	69	216.0	-200428.0	9404.0	11491.0
3	16	55	6	70	217.0	-200356.0	9379.0	11196.0
3	16	55	6	70	218.0	-200418.0	9390.0	7140.0
3	16	55	6	71	219.0	-200582.0	9390.0	-6002.0
3	16	55	6	72	220.0	-200411.0	9398.0	-14691.0
3	16	55	6	72	221.0	-200424.0	9390.0	-15034.0
3	16	55	6	103	222.0	-200484.0	9377.0	-9906.0
3	16	55	6	103	223.0	-200354.0	9391.0	614.0
3	16	55	6	104	224.0	-200411.0	9375.0	11531.0
3	16	55	6	105	225.0	-200429.0	9350.0	12448.0
3	16	55	6	105	226.0	-200326.0	9330.0	10924.0
3	16	55	6	106	227.0	-200327.0	9322.0	9236.0
3	16	55	6	107	228.0	-200346.0	9307.0	2114.0
3	16	55	6	108	229.0	-200268.0	9289.0	-11618.0
3	16	55	6	109	230.0	-200174.0	9283.0	-21227.0
3	16	55	6	109	231.0	-200280.0	9277.0	-22472.0
3	16	55	6	110	232.0	-200252.0	9268.0	-15939.0
3	16	55	6	111	233.0	-200189.0	9274.0	-6939.0
3	16	55	6	112	234.0	-200177.0	9256.0	3203.0
3	16	55	6	112	235.0	-200049.0	9250.0	5681.0
3	16	55	6	113	236.0	-200105.0	9266.0	5188.0
3	16	55	6	114	238.0	-200311.0	9266.0	-3153.0
3	16	55	6	114	239.0	-200182.0	9274.0	-16644.0
3	16	55	6	115	240.0	-200136.0	9306.0	-26617.0
3	16	55	6	116	241.0	-200140.0	9321.0	-25904.0
3	16	55	6	116	242.0	-200110.0	9339.0	-18379.0
3	16	55	6	117	243.0	-200106.0	9361.0	-6897.0
3	16	55	6	117	244.0	-200038.0	9403.0	4222.0
3	16	55	6	149	245.0	-200058.0	9422.0	6924.0
3	16	55	6	150	246.0	-200203.0	9427.0	5532.0
3	16	55	6	150	247.0	-200264.0	9456.0	2403.0
3	16	55	6	151	248.0	-200111.0	9444.0	-5009.0
3	16	55	6	152	249.0	-199984.0	9438.0	-18392.0
3	16	55	6	153	250.0	-200097.0	9439.0	-28459.0
3	16	55	6	153	251.0	-200079.0	9438.0	-29394.0
3	16	55	6	154	252.0	-200095.0	9416.0	-22659.0
3	16	55	6	155	253.0	-200159.0	9417.0	-12604.0
3	16	55	6	155	254.0	-200165.0	9409.0	-1449.0
3	16	55	6	156	255.0	-199967.0	9382.0	888.0
3	16	55	6	157	0.0	-200197.0	9365.0	-2176.0
3	16	55	6	157	1.0	-200207.0	9343.0	-6072.0
3	16	55	6	158	2.0	-200034.0	9314.0	-13895.0
3	16	55	6	159	3.0	-200074.0	9286.0	-25136.0
3	16	55	6	159	5.0	-200106.0	9217.0	-31002.0
3	16	55	6	160	6.0	-200035.0	9172.0	-24136.0
3	16	55	6	160	7.0	-200076.0	9152.0	-13759.0
3	16	55	6	161	8.0	-199890.0	9128.0	-3896.0
3	16	55	6	162	9.0	-199850.0	9092.0	-1104.0
3	16	55	6	162	10.0	-200164.0	9053.0	-596.0
3	16	55	6	194	11.0	-200299.0	9016.0	-3255.0
3	16	55	6	194	12.0	-200011.0	8987.0	-12911.0
3	16	55	6	195	13.0	-199995.0	8939.0	-26584.0
3	16	55	6	196	14.0	-200135.0	8879.0	-32611.0
3	16	55	6	196	15.0	-200166.0	8826.0	-30811.0
3	16	55	6	197	16.0	-200161.0	8754.0	-21608.0
3	16	55	6	197	17.0	-200356.0	8696.0	-8970.0
3	16	55	6	198	18.0	-200319.0	8614.0	1947.0
3	16	55	6	199	19.0	-200303.0	8539.0	5350.0
3	16	55	6	199	20.0	-200332.0	8476.0	6067.0
3	16	55	6	200	21.0	-200372.0	8384.0	3691.0
3	16	55	6	200	22.0	-200284.0	8296.0	-3472.0
3	16	55	6	201	23.0	-200226.0	8220.0	-16092.0
3	16	55	6	202	24.0	-200414.0	8139.0	-23412.0
3	16	55	6	202	25.0	-200431.0	8059.0	-20522.0
3	16	55	6	203	27.0	-200397.0	7897.0	324.0
3	16	55	6	203	28.0	-200424.0	7801.0	8708.0
3	16	55	6	204	29.0	-200347.0	7716.0	10021.0
3	16	55	6	204	30.0	-200222.0	7641.0	9837.0
3	16	55	6	205	31.0	-200318.0	7584.0	7142.0
3	16	55	6	206	32.0	-200377.0	7481.0	-1307.0
3	16	55	6	206	33.0	-200169.0	7394.0	-12128.0
3	16	55	6	238	34.0	-200114.0	7331.0	-17592.0
3	16	55	6	239	35.0	-200128.0	7251.0	-15663.0
3	16	55	6	240	36.0	-200231.0	7158.0	-7646.0
3	16	55	6	241	37.0	-200211.0	7058.0	3047.0
3	16	55	6	241	38.0	-200261.0	6973.0	11556.0
3	16	55	6	242	39.0	-200236.0	6876.0	13514.0
3	16	55	6	242	40.0	-200400.0	6774.0	13814.0
3	16	55	6	243	41.0	-200464.0	6674.0	12903.0
3	16	55	6	244	42.0	-200476.0	6561.0	2766.0
3	16	55	6	244	43.0	-200457.0	6473.0	-10690.0
3	16	55	6	245	44.0	-200212.0	6364.0	-16246.0
3	16	55	6	245	45.0	-200382.0	6298.0	-11487.0
3	16	55	6	246	46.0	-200728.0	6188.0	-3224.0
3	16	55	6	247	47.0	-200516.0	6090.0	6981.0
3	16	55	6	247	48.0	-200347.0	5976.0	14874.0
3	16	55	6	248	50.0	-200202.0	5761.0	14568.0
3	16	55	6	248	51.0	-200058.0	5668.0	11236.0
3	16	55	6	249	52.0	-200004.0	5564.0	909.0
3	16	55	6	250	53.0	-200102.0	5496.0	-10772.0
3	16	55	6	250	54.0	-200210.0	5411.0	-15460.0
3	16	55	6	251	55.0	-200171.0	5306.0	-12071.0
3	16	55	6	284	56.0	-200012.0	5210.0	-3029.0
3	16	55	6	285	57.0	-200116.0	5116.0	9947.0
3	16	55	6	286	58.0	-200138.0	5026.0	18451.0
3	16	55	6	286	59.0	-200101.0	4924.0	20178.0
3	16	55	6	287	60.0	-200166.0	4806.0	19363.0
3	16	55	6	288	61.0	-200245.0	4686.0	16294.0
3	16	55	6	288	62.0	-200174.0	4586.0	7651.0
3	16	55	6	289	63.0	-200152.0	4476.0	-2279.0
3	16	55	6	290	64.0	-200266.0	4373.0	-7576.0
3	16	55	6	290	65.0	-200374.0	4259.0	-4461.0
3	16	55	6	291	66.0	-200334.0	4157.0	4076.0
3	16	55	6	291	67.0	-200252.0	4051.0	16020.0
3	16	55	6	292	68.0	-200212.0	3936.0	21691.0
3	16	55	6	293	69.0	-200217.0	3833.0	21503.0
3	16	55	6	293	70.0	-200272.0	3716.0	19941.0
3	16	55	6	294	72.0	-200162.0	3525.0	4256.0
3	16	55	6	294	73.0	-200197.0	3414.0	-8239.0
3	16	55	6	295	74.0	-200182.0	3312.0	-10611.0
3	16	55	6	296	75.0	-200148.0	3225.0	-5341.0
3	16	55	6	296	76.0	-200247.0	3134.0	1716.0
3	16	55	6	297	77.0	-200360.0	3054.0	12588.0
3	16	55	6	297	78.0	-200311.0	2955.0	18433.0
3	16	55	6	329	79.0	-200144.0	2856.0	17023.0
3	16	55	6	330	80.0	-200276.0	2764.0	14041.0
3	16	55	6	331	81.0	-200206.0	2666.0	9322.0
3	16	55	6	331	82.0	-200216.0	2541.0	-739.0
3	16	55	6	332	83.0	-200104.0	2441.0	-11081.0
3	16	55	6	332	84.0	-200089.0	2351.0	-14077.0
3	16	55	6	333	85.0	-200292.0	2252.0	-10163.0
3	16	55	6	334	86.0	-200439.0	2149.0	-938.0
3	16	55	6	334	87.0	-200179.0	2037.0	13213.0
3	16	55	6	335	88.0	-200147.0	1930.0	18889.0
3	16	55	6	336	89.0	-200200.0	1850.0	18461.0
3	16	55	6	336	90.0	-200083.0	1754.0	16820.0
3	16	55	6	337	91.0	-199929.0	1643.0	11798.0
3	16	55	6	337	92.0	-199944.0	1542.0	-1487.0
3	16	55	6	338	93.0	-199971.0	1459.0	-15685.0
3	16	55	6	339	95.0	-200057.0	1279.0	-16674.0
3	16	55	6	339	96.0	-200197.0	1182.0	-7531.0
3	16	55	6	340	97.0	-200284.0	1101.0	3683.0
3	16	55	6	340	98.0	-200332.0	1024.0	8646.0
3	16	55	6	341	99.0	-200351.0	969.0	9274.0
3	16	55	6	342	100.0	-200419.0	892.0	8058.0
3	16	55	6	372	101.0	-200397.0	806.0	2291.0
3	16	55	6	373	102.0	-200242.0	730.0	-11009.0
3	16	55	6	374	103.0	-200099.0	651.0	-21217.0
3	16	55	6	375	104.0	-200222.0	565.0	-22469.0
3	16	55	6	375	105.0	-200270.0	472.0	-14251.0
3	16	55	6	376	106.0	-200247.0	384.0	-3306.0
3	16	55	6	376	107.0	-200191.0	308.0	8688.0
3	16	55	6	377	108.0	-200160.0	227.0	15381.0
3	16	55	6	378	109.0	-200191.0	139.0	14889.0
3	16	55	6	378	110.0	-200212.0	68.0	12686.0
3	16	55	6	379	111.0	-200169.0	-30.0	8909.0
3	16	55	6	379	112.0	-200230.0	-114.0	-2149.0
3	16	55	6	380	113.0	-200276.0	-180.0	-10869.0
3	16	55	6	381	114.0	-200262.0	-270.0	-12069.0
3	16	55	6	381	115.0	-200288.0	-356.0	-6666.0
3	16	55	6	382	117.0	-200327.0	-516.0	13549.0
3	16	55	6	383	118.0	-200242.0	-597.0	19464.0
3	16	55	6	383	119.0	-200202.0	-647.0	19961.0
3	16	55	6	384	120.0	-200133.0	-712.0	19094.0
3	16	55	6	384	121.0	-200200.0	-779.0	13987.0
3	16	55	6	385	122.0	-200152.0	-839.0	3471.0
3	16	55	6	385	123.0	-200049.0	-904.0	-2877.0
3	16	55	6	418	124.0	-200026.0	-956.0	-2564.0
3	16	55	6	419	125.0	-200192.0	-1012.0	2838.0
3	16	55	6	420	126.0	-200171.0	-1096.0	12028.0
3	16	55	6	421	127.0	-200196.0	-1162.0	22451.0
3	16	55	6	421	128.0	-200219.0	-1237.0	25672.0
3	16	55	6	422	129.0	-200287.0	-1327.0	24636.0
3	16	55	6	423	130.0	-200186.0	-1376.0	23161.0
3	16	55	6	423	131.0	-200222.0	-1459.0	16736.0
3	16	55	6	424	132.0	-200192.0	-1541.0	3839.0
3	16	55	6	425	133.0	-200222.0	-1607.0	-2279.0
3	16	55	6	425	134.0	-200226.0	-1652.0	-356.0
3	16	55	6	426	135.0	-200215.0	-1720.0	5736.0
3	16	55	6	426	136.0	-200261.0	-1817.0	14808.0
3	16	55	6	427	137.0	-200370.0	-1874.0	24691.0
3	16	55	6	428	138.0	-200302.0	-1938.0	27348.0
3	16	55	6	428	140.0	-200211.0	-2100.0	21696.0
3	16	55	6	429	141.0	-200226.0	-2137.0	13764.0
3	16	55	6	430	142.0	-200167.0	-2179.0	-340.0
3	16	55	6	430	143.0	-200063.0	-2246.0	-9994.0
3	16	55	6	431	144.0	-200084.0	-2296.0	-9303.0
3	16	55	6	431	145.0	-200150.0	-2324.0	-3411.0
3	16	55	6	469	146.0	-200231.0	-2377.0	5565.0
3	16	55	6	470	147.0	-200167.0	-2434.0	16128.0
3	16	55	6	470	148.0	-200199.0	-2501.0	19948.0
3	16	55	6	471	149.0	-200361.0	-2581.0	19412.0
3	16	55	6	472	150.0	-200515.0	-2649.0	18089.0
3	16	55	6	472	151.0	-200386.0	-2726.0	11632.0
3	16	55	6	473	152.0	-200256.0	-2781.0	-644.0
3	16	55	6	473	153.0	-200252.0	-2835.0	-7035.0
3	16	55	6	474	154.0	-200363.0	-2891.0	-5959.0
3	16	55	6	475	155.0	-200380.0	-2948.0	375.0
3	16	55	6	475	156.0	-200441.0	-3014.0	12714.0
3	16	55	6	476	157.0	-200414.0	-3081.0	23416.0
3	16	55	6	476	158.0	-200414.0	-3134.0	24777.0
3	16	55	6	477	159.0	-200330.0	-3195.0	24696.0
3	16	55	6	478	160.0	-200432.0	-3257.0	24815.0
3	16	55	6	478	162.0	-200220.0	-3354.0	7178.0
3	16	55	6	479	163.0	-200042.0	-3412.0	1579.0
3	16	55	6	479	164.0	-199924.0	-3449.0	3928.0
3	16	55	6	480	165.0	-199976.0	-3506.0	10649.0
3	16	55	6	480	166.0	-199979.0	-3546.0	18535.0
3	16	55	6	481	167.0	-199972.0	-3574.0	25290.0
3	16	55	6	509	168.0	-200029.0	-3604.0	26194.0
3	16	55	6	510	169.0	-200190.0	-3639.0	24687.0
3	16	55	6	511	170.0	-200320.0	-3692.0	21353.0
3	16	55	6	511	171.0	-200217.0	-3758.0	12449.0
3	16	55	6	512	172.0	-200119.0	-3814.0	1524.0
3	16	55	6	513	173.0	-200129.0	-3862.0	-4202.0
3	16	55	6	513	174.0	-200154.0	-3903.0	-686.0
3	16	55	6	514	175.0	-200288.0	-3965.0	7115.0
3	16	55	6	515	176.0	-200068.0	-3992.0	14593.0
3	16	55	6	515	177.0	-199944.0	-4021.0	21358.0
3	16	55	6	516	178.0	-200077.0	-4083.0	22500.0
3	16	55	6	517	179.0	-200130.0	-4129.0	21493.0
3	16	55	6	517	180.0	-199880.0	-4183.0	19731.0
3	16	55	6	518	181.0	-199899.0	-4239.0	12338.0
3	16	55	6	519	182.0	-199879.0	-4265.0	1011.0
3	16	55	6	519	184.0	-199927.0	-4339.0	-861.0
3	16	55	6	520	185.0	-200137.0	-4383.0	4587.0
3	16	55	6	520	186.0	-200217.0	-4415.0	13980.0
3	16	55	6	521	187.0	-200264.0	-4427.0	22794.0
3	16	55	6	522	188.0	-200221.0	-4457.0	24754.0
3	16	55	6	522	189.0	-200467.0	-4495.0	23388.0
3	16	55	6	523	190.0	-200613.0	-4523.0	20232.0
3	16	55	6	560	191.0	-200555.0	-4567.0	11125.0
3	16	55	6	561	192.0	-200279.0	-4607.0	254.0
3	16	55	6	562	193.0	-200431.0	-4600.0	-4696.0
3	16	55	6	563	194.0	-200552.0	-4642.0	-2654.0
3	16	55	6	563	195.0	-200586.0	-4679.0	2930.0
3	16	55	6	564	196.0	-200758.0	-4711.0	12187.0
3	16	55	6	565	197.0	-200697.0	-4750.0	19829.0
3	16	55	6	565	198.0	-200645.0	-4803.0	20048.0
3	16	55	6	566	199.0	-200500.0	-4842.0	19617.0
3	16	55	6	566	200.0	-200681.0	-4859.0	18005.0
3	16	55	6	567	201.0	-200684.0	-4908.0	10857.0
3	16	55	6	567	202.0	-200673.0	-4947.0	4045.0
3	16	55	6	568	203.0	-200578.0	-4997.0	2715.0
3	16	55	6	569	204.0	-200496.0	-5019.0	6095.0
3	16	55	6	569	205.0	-200534.0	-5047.0	12493.0
3	16	55	6	570	207.0	-200503.0	-5109.0	27599.0
3	16	55	6	570	208.0	-200623.0	-5146.0	27223.0
3	16	55	6	571	209.0	-200420.0	-5154.0	25678.0
3	16	55	6	572	210.0	-200484.0	-5179.0	22036.0
3	16	55	6	572	211.0	-200466.0	-5199.0	13917.0
3	16	55	6	573	212.0	-200348.0	-5227.0	6412.0
3	16	55	6	598	213.0	-200357.0	-5251.0	5029.0
3	16	55	6	599	214.0	-200239.0	-5247.0	9170.0
3	16	55	6	600	215.0	-200084.0	-5267.0	13863.0
3	16	55	6	601	216.0	-200053.0	-5313.0	21706.0
3	16	55	6	601	217.0	-200119.0	-5352.0	26178.0
3	16	55	6	602	218.0	-200259.0	-5383.0	25186.0
3	16	55	6	603	219.0	-200249.0	-5417.0	24531.0
3	16	55	6	603	220.0	-200313.0	-5447.0	22571.0
3	16	55	6	604	221.0	-200273.0	-5484.0	14487.0
3	16	55	6	605	222.0	-200237.0	-5512.0	5749.0
3	16	55	6	606	223.0	-200222.0	-5533.0	1818.0
3	16	55	6	606	224.0	-200260.0	-5551.0	3660.0
3	16	55	6	607	225.0	-200229.0	-5589.0	11994.0
3	16	55	6	608	226.0	-200281.0	-5607.0	23025.0
3	16	55	6	608	227.0	-200342.0	-5643.0	29166.0
3	16	55	6	609	229.0	-200267.0	-5727.0	30106.0
3	16	55	6	610	230.0	-200222.0	-5754.0	28193.0
3	16	55	6	610	231.0	-200151.0	-5769.0	18950.0
3	16	55	6	611	232.0	-200247.0	-5793.0	11515.0
3	16	55	6	612	233.0	-200455.0	-5797.0	11195.0
3	16	55	6	612	234.0	-200361.0	-5804.0	16860.0
3	16	55	6	613	235.0	-200364.0	-5834.0	24694.0
3	16	55	6	643	236.0	-200484.0	-5852.0	32795.0
3	16	55	6	643	237.0	-200483.0	-5869.0	37241.0
3	16	55	6	644	238.0	-200319.0	-5884.0	38218.0
3	16	55	6	645	239.0	-200353.0	-5906.0	37383.0
3	16	55	6	646	240.0	-200387.0	-5940.0	35011.0
3	16	55	6	646	241.0	-200316.0	-5976.0	26716.0
3	16	55	6	647	242.0	-200297.0	-5993.0	19241.0
3	16	55	6	648	243.0	-200220.0	-6016.0	18928.0
3	16	55	6	648	244.0	-200300.0	-6032.0	24194.0
3	16	55	6	649	245.0	-200405.0	-6052.0	30514.0
3	16	55	6	649	246.0	-200457.0	-6055.0	38818.0
3	16	55	6	650	247.0	-200564.0	-6073.0	42631.0
3	16	55	6	651	248.0	-200597.0	-6087.0	43717.0
3	16	55	6	651	249.0	-200544.0	-6101.0	43186.0
3	16	55	6	652	250.0	-200524.0	-6110.0	39387.0
3	16	55	6	653	252.0	-200475.0	-6116.0	25816.0
3	16	55	6	654	253.0	-200565.0	-6107.0	25075.0
3	16	55	6	655	254.0	-200631.0	-6079.0	28487.0
3	16	55	6	655	255.0	-200404.0	-6077.0	34661.0
3	16	55	6	656	0.0	-200433.0	-6059.0	42783.0
3	16	55	6	657	1.0	-200669.0	-6019.0	46130.0
3	16	55	6	688	2.0	-200540.0	-6000.0	45572.0
3	16	55	6	689	3.0	-200307.0	-5966.0	43813.0
3	16	55	6	690	4.0	-200479.0	-5953.0	40021.0
3	16	55	6	690	5.0	-200336.0	-5936.0	30639.0
3	16	55	6	691	6.0	-200171.0	-5909.0	25634.0
3	16	55	6	692	7.0	-200326.0	-5876.0	25941.0
3	16	55	6	692	8.0	-200299.0	-5843.0	29923.0
3	16	55	6	693	9.0	-200061.0	-5804.0	36982.0
3	16	55	6	694	10.0	-200041.0	-5781.0	45418.0
3	16	55	6	694	11.0	-200128.0	-5753.0	48803.0
3	16	55	6	695	12.0	-200057.0	-5719.0	48953.0
3	16	55	6	696	13.0	-200057.0	-5669.0	47160.0
3	16	55	6	696	14.0	-200133.0	-5636.0	44016.0
3	16	55	6	697	15.0	-200169.0	-5596.0	37101.0
3	16	55	6	698	16.0	-200134.0	-5541.0	32241.0
3	16	55	6	698	18.0	-200237.0	-5428.0	37369.0
3	16	55	6	699	19.0	-200200.0	-5364.0	44730.0
3	16	55	6	700	20.0	-200206.0	-5309.0	51412.0
3	16	55	6	700	21.0	-200026.0	-5241.0	52244.0
3	16	55	6	701	22.0	-200066.0	-5176.0	52668.0
3	16	55	6	701	23.0	-200116.0	-5102.0	53151.0
3	16	55	6	702	24.0	-200109.0	-5014.0	50874.0
3	16	55	6	733	25.0	-200158.0	-4941.0	46764.0
3	16	55	6	734	26.0	-200111.0	-4859.0	44826.0
3	16	55	6	735	27.0	-200024.0	-4796.0	46416.0
3	16	55	6	735	28.0	-199977.0	-4724.0	49564.0
3	16	55	6	736	29.0	-200064.0	-4649.0	54873.0
3	16	55	6	737	30.0	-200069.0	-4589.0	60576.0
3	16	55	6	738	31.0	-199970.0	-4536.0	63248.0
3	16	55	6	738	32.0	-199914.0	-4442.0	64354.0
3	16	55	6	739	33.0	-200055.0	-4355.0	64299.0
3	16	55	6	740	34.0	-200106.0	-4296.0	63339.0
3	16	55	6	740	35.0	-199924.0	-4218.0	61419.0
3	16	55	6	741	36.0	-199894.0	-4137.0	61409.0
3	16	55	6	742	37.0	-200058.0	-4064.0	64903.0
3	16	55	6	742	38.0	-200097.0	-3994.0	68159.0
3	16	55	6	743	39.0	-199975.0	-3931.0	73584.0
3	16	55	6	744	41.0	-200050.0	-3766.0	80266.0
3	16	55	6	744	42.0	-199902.0	-3694.0	81768.0
3	16	55	6	745	43.0	-199842.0	-3584.0	82818.0
3	16	55	6	746	44.0	-199939.0	-3507.0	82087.0
3	16	55	6	746	45.0	-199859.0	-3424.0	80659.0
3	16	55	6	747	46.0	-199826.0	-3341.0	82799.0
3	16	55	6	778	47.0	-199903.0	-3252.0	87371.0
3	16	55	6	778	48.0	-199804.0	-3171.0	91484.0
3	16	55	6	779	49.0	-199634.0	-3109.0	97323.0
3	16	55	6	780	50.0	-199821.0	-3027.0	103012.0
3	16	55	6	781	51.0	-199981.0	-2959.0	105995.0
3	16	55	6	781	52.0	-199959.0	-2907.0	108961.0
3	16	55	6	782	53.0	-199991.0	-2857.0	111163.0
3	16	55	6	783	54.0	-199974.0	-2805.0	113248.0
3	16	55	6	783	55.0	-200047.0	-2731.0	114868.0
3	16	55	6	784	56.0	-199879.0	-2654.0	118706.0
3	16	55	6	785	57.0	-199889.0	-2597.0	122951.0
3	16	55	6	786	58.0	-199912.0	-2531.0	125407.0
3	16	55	6	787	59.0	-199954.0	-2465.0	126697.0
3	16	55	6	788	60.0	-199956.0	-2402.0	129692.0
3	16	55	6	789	61.0	-200066.0	-2356.0	132506.0
3	16	55	6	790	63.0	-200151.0	-2227.0	137269.0
3	16	55	6	790	64.0	-200032.0	-2161.0	139083.0
3	16	55	6	791	65.0	-200207.0	-2101.0	140969.0
3	16	55	6	792	66.0	-200224.0	-2021.0	142747.0
3	16	55	6	792	67.0	-200101.0	-1947.0	143564.0
3	16	55	6	793	68.0	-200159.0	-1867.0	144597.0
3	16	55	6	794	69.0	-200261.0	-1794.0	144561.0
3	16	55	6	823	70.0	-200206.0	-1727.0	143963.0
3	16	55	6	825	71.0	-200357.0	-1660.0	144268.0
3	16	55	6	825	72.0	-200566.0	-1591.0	143720.0
3	16	55	6	826	73.0	-200460.0	-1538.0	142406.0
3	16	55	6	827	74.0	-200375.0	-1498.0	141584.0
3	16	55	6	828	75.0	-200498.0	-1456.0	140231.0
3	16	55	6	828	76.0	-200519.0	-1387.0	138371.0
3	16	55	6	829	77.0	-200490.0	-1329.0	135489.0
3	16	55	6	830	78.0	-200614.0	-1277.0	134798.0
3	16	55	6	830	79.0	-200509.0	-1215.0	133827.0
3	16	55	6	831	80.0	-200454.0	-1173.0	130924.0
3	16	55	6	832	81.0	-200757.0	-1115.0	127474.0
3	16	55	6	832	82.0	-200745.0	-1047.0	123444.0
3	16	55	6	833	83.0	-200601.0	-1005.0	120418.0
3	16	55	6	834	84.0	-200655.0	-939.0	117759.0
3	16	55	6	834	86.0	-200622.0	-841.0	111298.0
3	16	55	6	835	87.0	-200526.0	-776.0	106651.0
3	16	55	6	836	88.0	-200590.0	-716.0	101068.0
3	16	55	6	836	89.0	-200584.0	-643.0	95853.0
3	16	55	6	837	90.0	-200468.0	-574.0	90166.0
3	16	55	6	838	91.0	-200614.0	-527.0	86298.0
3	16	55	6	870	92.0	-200754.0	-453.0	82608.0
3	16	55	6	871	93.0	-200631.0	-387.0	78701.0
3	16	55	6	872	94.0	-200370.0	-351.0	74801.0
3	16	55	6	873	95.0	-200557.0	-313.0	71149.0
3	16	55	6	873	96.0	-200544.0	-264.0	67246.0
3	16	55	6	874	97.0	-200319.0	-221.0	62372.0
3	16	55	6	875	98.0	-200452.0	-189.0	58704.0
3	16	55	6	877	99.0	-200756.0	-136.0	54054.0
3	16	55	6	877	100.0	-200482.0	-108.0	48713.0
3	16	55	6	878	101.0	-200283.0	-54.0	45084.0
3	16	55	6	879	102.0	-200332.0	-3.0	41181.0
3	16	55	6	879	103.0	-200352.0	32.0	37774.0
3	16	55	6	880	104.0	-200149.0	79.0	36136.0
3	16	55	6	881	105.0	-200284.0	127.0	34884.0
3	16	55	6	881	106.0	-200377.0	159.0	31473.0
3	16	55	6	882	108.0	-200298.0	244.0	23477.0
3	16	55	6	883	109.0	-200023.0	291.0	17980.0
3	16	55	6	883	110.0	-200014.0	352.0	12690.0
3	16	55	6	884	111.0	-200069.0	403.0	10829.0
3	16	55	6	884	112.0	-200087.0	451.0	10193.0
3	16	55	6	885	113.0	-200011.0	511.0	8263.0
3	16	55	6	886	114.0	-200028.0	574.0	7753.0
3	16	55	6	914	115.0	-199873.0	618.0	5702.0
3	16	55	6	915	116.0	-199921.0	674.0	1770.0
3	16	55	6	916	117.0	-199945.0	716.0	-3321.0
3	16	55	6	917	118.0	-200006.0	758.0	-7999.0
3	16	55	6	917	119.0	-199796.0	806.0	-13706.0
3	16	55	6	918	120.0	-199772.0	833.0	-17447.0
3	16	55	6	919	121.0	-199824.0	855.0	-19688.0
3	16	55	6	920	122.0	-200020.0	893.0	-22266.0
3	16	55	6	920	123.0	-199802.0	938.0	-24626.0
3	16	55	6	921	124.0	-199789.0	981.0	-24511.0
3	16	55	6	922	125.0	-200056.0	1012.0	-26161.0
3	16	55	6	923	126.0	-200222.0	1044.0	-30879.0
3	16	55	6	923	127.0	-200243.0	1082.0	-34462.0
3	16	55	6	924	128.0	-200373.0	1119.0	-37202.0
3	16	55	6	925	129.0	-200544.0	1153.0	-41827.0
3	16	55	6	925	131.0	-200478.0	1233.0	-46228.0
3	16	55	6	926	132.0	-200677.0	1287.0	-48896.0
3	16	55	6	926	133.0	-200654.0	1343.0	-50321.0
3	16	55	6	927	134.0	-200389.0	1376.0	-50645.0
3	16	55	6	928	135.0	-200713.0	1458.0	-52431.0
3	16	55	6	928	136.0	-200607.0	1519.0	-55672.0
3	16	55	6	958	137.0	-200474.0	1569.0	-59799.0
3	16	55	6	959	138.0	-200347.0	1604.0	-63772.0
3	16	55	6	960	139.0	-200364.0	1641.0	-67479.0
3	16	55	6	961	140.0	-200201.0	1683.0	-69386.0
3	16	55	6	962	141.0	-200034.0	1720.0	-69227.0
3	16	55	6	962	142.0	-200153.0	1754.0	-69479.0
3	16	55	6	963	143.0	-200014.0	1788.0	-69397.0
3	16	55	6	964	144.0	-199883.0	1836.0	-68917.0
3	16	55	6	965	145.0	-199882.0	1894.0	-69580.0
3	16	55	6	965	146.0	-199816.0	1944.0	-70554.0
3	16	55	6	966	147.0	-200037.0	1996.0	-74135.0
3	16	55	6	967	148.0	-200237.0	2045.0	-78197.0
3	16	55	6	967	149.0	-200148.0	2081.0	-80939.0
3	16	55	6	968	150.0	-200048.0	2108.0	-80917.0
3	16	55	6	969	151.0	-200227.0	2156.0	-81377.0
3	16	55	6	969	153.0	-199943.0	2261.0	-82242.0
3	16	55	6	970	154.0	-200045.0	2311.0	-79599.0
3	16	55	6	971	155.0	-200045.0	2366.0	-78944.0
3	16	55	6	971	156.0	-200117.0	2423.0	-79998.0
3	16	55	6	972	157.0	-200072.0	2500.0	-82401.0
3	16	55	6	973	158.0	-200110.0	2561.0	-85074.0
3	16	55	7	3	159.0	-199965.0	2629.0	-88610.0
3	16	55	7	4	160.0	-199847.0	2700.0	-90136.0
3	16	55	7	4	161.0	-199971.0	2762.0	-91477.0
3	16	55	7	5	162.0	-199997.0	2818.0	-93116.0
3	16	55	7	6	163.0	-200098.0	2857.0	-94094.0
3	16	55	7	7	164.0	-199994.0	2914.0	-93082.0
3	16	55	7	8	165.0	-199964.0	2965.0	-91494.0
3	16	55	7	8	166.0	-200028.0	3021.0	-90421.0
3	16	55	7	9	167.0	-199979.0	3076.0	-91741.0
3	16	55	7	10	168.0	-199994.0	3130.0	-92567.0
3	16	55	7	11	169.0	-200022.0	3182.0	-94711.0
3	16	55	7	11	170.0	-200054.0	3224.0	-95916.0
3	16	55	7	12	171.0	-200002.0	3296.0	-96412.0
3	16	55	7	13	172.0	-199951.0	3362.0	-96972.0
3	16	55	7	13	173.0	-199936.0	3421.0	-95976.0
3	16	55	7	14	175.0	-200078.0	3533.0	-92724.0
3	16	55	7	15	176.0	-200291.0	3561.0	-92384.0
3	16	55	7	16	177.0	-200101.0	3624.0	-91507.0
3	16	55	7	16	178.0	-199982.0	3698.0	-90857.0
3	16	55	7	17	179.0	-200076.0	3761.0	-90809.0
3	16	55	7	18	180.0	-200093.0	3845.0	-90522.0
3	16	55	7	18	181.0	-200212.0	3888.0	-90191.0
3	16	55	7	94	182.0	-200262.0	3936.0	-88043.0
3	16	55	7	95	183.0	-200011.0	4011.0	-85332.0
3	16	55	7	96	184.0	-200021.0	4056.0	-82578.0
3	16	55	7	96	185.0	-200082.0	4102.0	-81927.0
3	16	55	7	97	186.0	-200179.0	4142.0	-80771.0
3	16	55	7	97	187.0	-200251.0	4176.0	-80758.0
3	16	55	7	98	188.0	-200244.0	4222.0	-80551.0
3	16	55	7	139	189.0	-200134.0	4253.0	-78424.0
3	16	55	7	140	190.0	-200184.0	4306.0	-75917.0
3	16	55	7	141	191.0	-200271.0	4349.0	-75011.0
3	16	55	7	141	192.0	-200207.0	4366.0	-73617.0
3	16	55	7	142	193.0	-200096.0	4424.0	-71876.0
3	16	55	7	143	194.0	-199901.0	4449.0	-69551.0
3	16	55	7	144	195.0	-199826.0	4479.0	-70439.0
3	16	55	7	144	196.0	-200042.0	4528.0	-71180.0
3	16	55	7	145	220.0	-200167.0	4925.0	-120347.0
3	16	55	7	146	221.0	-200175.0	4908.0	-122681.0
3	16	55	7	146	222.0	-200112.0	4918.0	-125841.0
3	16	55	7	147	223.0	-200147.0	4956.0	-126311.0
3	16	55	7	148	224.0	-200261.0	4985.0	-126154.0
3	16	55	7	148	225.0	-200294.0	4986.0	-125824.0
3	16	55	7	149	226.0	-200543.0	4976.0	-126366.0
3	16	55	7	150	227.0	-200710.0	4974.0	-126215.0
3	16	55	7	150	243.0	-200854.0	4888.0	-91857.0
3	16	55	7	151	244.0	-200844.0	4881.0	-89751.0
3	16	55	7	152	245.0	-200721.0	4895.0	-88627.0
3	16	55	7	153	246.0	-200654.0	4876.0	-87257.0
3	16	55	7	153	247.0	-200519.0	4859.0	-87417.0
3	16	55	7	154	248.0	-200472.0	4862.0	-86454.0
3	16	55	7	154	249.0	-200486.0	4850.0	-85579.0
3	16	55	7	184	250.0	-200334.0	4847.0	-83211.0
3	16	55	7	185	251.0	-200172.0	4851.0	-80874.0
3	16	55	7	186	252.0	-200194.0	4838.0	-78919.0
3	16	55	7	187	253.0	-200329.0	4809.0	-76678.0
3	16	55	7	187	254.0	-200097.0	4780.0	-76214.0
3	16	55	7	188	255.0	-200147.0	4766.0	-74292.0
3	16	55	7	189	0.0	-200128.0	4742.0	-72734.0
3	16	55	7	190	1.0	-200324.0	4699.0	-71302.0
3	16	55	7	190	2.0	-200129.0	4663.0	-73222.0
3	16	55	7	191	3.0	-199966.0	4627.0	-74688.0
3	16	55	7	192	4.0	-200181.0	4588.0	-73088.0
3	16	55	7	193	5.0	-200243.0	4565.0	-72229.0
3	16	55	7	193	6.0	-200232.0	4522.0	-74499.0
3	16	55	7	194	7.0	-200299.0	4486.0	-75131.0
3	16	55	7	195	8.0	-200141.0	4439.0	-74241.0
3	16	55	7	195	9.0	-200132.0	4391.0	-75017.0
3	16	55	7	196	10.0	-199994.0	4338.0	-75997.0
3	16	55	7	197	11.0	-200231.0	4297.0	-75872.0
3	16	55	7	197	12.0	-200633.0	4296.0	-75762.0
3	16	55	7	198	13.0	-200536.0	4268.0	-75594.0
3	16	55	7	198	14.0	-200532.0	4219.0	-75492.0
3	16	55	7	199	15.0	-200182.0	4181.0	-75396.0
3	16	55	7	229	16.0	-200146.0	4163.0	-75050.0
3	16	55	7	230	17.0	-200011.0	4146.0	-72027.0
3	16	55	7	231	18.0	-199907.0	4081.0	-69289.0
3	16	55	7	231	19.0	-200058.0	4040.0	-65775.0
3	16	55	7	232	20.0	-200085.0	3987.0	-61852.0
3	16	55	7	233	21.0	-200296.0	3954.0	-59582.0
3	16	55	7	234	22.0	-200230.0	3904.0	-59361.0
3	16	55	7	234	23.0	-200331.0	3853.0	-58355.0
3	16	55	7	235	24.0	-200921.0	3813.0	-55894.0
3	16	55	7	236	25.0	-200806.0	3776.0	-53648.0
3	16	55	7	236	26.0	-200626.0	3714.0	-51458.0
3	16	55	7	237	27.0	-200631.0	3655.0	-48007.0
3	16	55	7	238	28.0	-200528.0	3609.0	-46561.0
3	16	55	7	238	29.0	-200642.0	3563.0	-43374.0
3	16	55	7	239	30.0	-200559.0	3521.0	-40488.0
3	16	55	7	240	32.0	-200313.0	3431.0	-41841.0
3	16	55	7	240	33.0	-200107.0	3401.0	-43979.0
3	16	55	7	241	34.0	-200014.0	3364.0	-43923.0
3	16	55	7	249	35.0	-199994.0	3331.0	-40846.0
3	16	55	7	250	36.0	-199864.0	3307.0	-38204.0
3	16	55	7	251	37.0	-200042.0	3282.0	-34062.0
3	16	55	7	274	38.0	-200081.0	3266.0	-29259.0
3	16	55	7	275	39.0	-200085.0	3241.0	-26443.0
3	16	55	7	275	40.0	-199886.0	3189.0	-24606.0
3	16	55	7	276	41.0	-199846.0	3141.0	-23367.0
3	16	55	7	277	42.0	-199889.0	3089.0	-20737.0
3	16	55	7	278	43.0	-199721.0	3041.0	-17854.0
3	16	55	7	279	44.0	-199673.0	3011.0	-16745.0
3	16	55	7	279	45.0	-199761.0	2967.0	-16122.0
3	16	55	7	280	46.0	-199989.0	2932.0	-14681.0
3	16	55	7	281	47.0	-200216.0	2885.0	-12816.0
3	16	55	7	282	48.0	-200282.0	2848.0	-12289.0
3	16	55	7	283	49.0	-200206.0	2816.0	-12471.0
3	16	55	7	283	50.0	-199667.0	2762.0	-12808.0
3	16	55	7	284	51.0	-199654.0	2714.0	-12466.0
3	16	55	7	285	52.0	-199704.0	2676.0	-12642.0
3	16	55	7	285	54.0	-200007.0	2577.0	-12426.0
3	16	55	7	286	55.0	-200624.0	2542.0	-11494.0
3	16	55	7	287	56.0	-200914.0	2529.0	-8547.0
3	16	55	7	287	57.0	-201014.0	2500.0	-6743.0
3	16	55	7	288	58.0	-200579.0	2459.0	-6575.0
3	16	55	7	289	59.0	-200124.0	2419.0	-6491.0
3	16	55	7	290	60.0	-199482.0	2393.0	-6965.0
3	16	55	7	319	61.0	-199050.0	2376.0	-8214.0
3	16	55	7	320	62.0	-199109.0	2332.0	-10609.0
3	16	55	7	321	63.0	-198976.0	2289.0	-11431.0
3	16	55	7	322	64.0	-199237.0	2235.0	-11117.0
3	16	55	7	323	65.0	-199365.0	2174.0	-11381.0
3	16	55	7	324	66.0	-199109.0	2141.0	-9729.0
3	16	55	7	324	67.0	-199679.0	2078.0	-7399.0
3	16	55	7	325	68.0	-199644.0	2030.0	-7507.0
3	16	55	7	326	69.0	-199061.0	1984.0	-7931.0
3	16	55	7	327	70.0	-198923.0	1944.0	-8154.0
3	16	55	7	327	71.0	-199131.0	1898.0	-7367.0
3	16	55	7	328	72.0	-199136.0	1839.0	-6890.0
3	16	55	7	329	73.0	-199574.0	1795.0	-4984.0
3	16	55	7	330	74.0	-199724.0	1751.0	-3067.0
3	16	55	7	330	75.0	-199901.0	1678.0	-966.0
3	16	55	7	331	77.0	-199467.0	1593.0	1610.0
3	16	55	7	332	78.0	-199371.0	1543.0	3320.0
3	16	55	7	333	79.0	-199647.0	1510.0	6634.0
3	16	55	7	333	80.0	-199504.0	1481.0	9358.0
3	16	55	7	334	81.0	-199559.0	1431.0	11139.0
3	16	55	7	335	82.0	-199777.0	1383.0	13584.0
3	16	55	7	364	83.0	-199947.0	1352.0	16623.0
3	16	55	7	364	84.0	-199771.0	1315.0	19871.0
3	16	55	7	365	85.0	-199593.0	1271.0	22612.0
3	16	55	7	366	86.0	-199347.0	1213.0	24523.0
3	16	55	7	367	87.0	-199107.0	1157.0	25807.0
3	16	55	7	368	88.0	-199354.0	1096.0	25170.0
3	16	55	7	368	89.0	-199686.0	1041.0	24138.0
3	16	55	7	369	90.0	-200294.0	981.0	23639.0
3	16	55	7	370	91.0	-199440.0	913.0	22774.0
3	16	55	7	371	92.0	-199052.0	867.0	22205.0
3	16	55	7	371	93.0	-199717.0	821.0	20861.0
3	16	55	7	372	94.0	-199730.0	789.0	20648.0
3	16	55	7	373	95.0	-200418.0	724.0	20344.0
3	16	55	7	374	96.0	-200917.0	687.0	19826.0
3	16	55	7	374	97.0	-200899.0	650.0	20440.0
3	16	55	7	375	99.0	-202054.0	586.0	20041.0
3	16	55	7	375	100.0	-202373.0	562.0	20253.0
3	16	55	7	376	101.0	-202534.0	565.0	20833.0
3	16	55	7	377	102.0	-201948.0	547.0	21981.0
3	16	55	7	377	103.0	-200978.0	581.0	20491.0
3	16	55	7	378	104.0	-200353.0	589.0	19086.0
3	16	55	7	409	105.0	-200255.0	609.0	17987.0
3	16	55	7	410	106.0	-199962.0	631.0	17561.0
3	16	55	7	411	107.0	-199362.0	665.0	17865.0
3	16	55	7	411	108.0	-200247.0	685.0	17976.0
3	16	55	7	412	109.0	-200570.0	693.0	16493.0
3	16	55	7	413	110.0	-201072.0	707.0	15374.0
3	16	55	7	414	111.0	-201021.0	751.0	15946.0
3	16	55	7	415	112.0	-200007.0	791.0	15836.0
3	16	55	7	416	113.0	-199619.0	825.0	15361.0
3	16	55	7	416	114.0	-199104.0	845.0	14426.0
3	16	55	7	417	115.0	-199166.0	890.0	14330.0
3	16	55	7	418	116.0	-200248.0	944.0	14540.0
3	16	55	7	418	117.0	-200713.0	997.0	13416.0
3	16	55	7	419	118.0	-201024.0	1048.0	13788.0
3	16	55	7	453	119.0	-201672.0	1109.0	14124.0
3	16	55	7	454	122.0	-202287.0	1290.0	15094.0
3	16	55	7	455	123.0	-202154.0	1387.0	13454.0
3	16	55	7	456	124.0	-201933.0	1481.0	13261.0
3	16	55	7	457	125.0	-201437.0	1562.0	14234.0
3	16	55	7	457	126.0	-201156.0	1658.0	13674.0
3	16	55	7	458	127.0	-201177.0	1756.0	11493.0
3	16	55	7	459	128.0	-201135.0	1847.0	9756.0
3	16	55	7	461	129.0	-200249.0	1948.0	8056.0
3	16	55	7	462	130.0	-199296.0	2048.0	5299.0
3	16	55	7	462	131.0	-198836.0	2151.0	2508.0
3	16	55	7	463	132.0	-198409.0	2259.0	-556.0
3	16	55	7	464	133.0	-198534.0	2376.0	-2838.0
3	16	55	7	465	134.0	-199630.0	2494.0	-4076.0
3	16	55	7	465	135.0	-200612.0	2613.0	-7129.0
3	16	55	7	466	144.0	-201479.0	3723.0	-17711.0
3	16	55	7	467	145.0	-200602.0	3853.0	-18314.0
3	16	55	7	467	146.0	-199452.0	3994.0	-17980.0
3	16	55	7	468	147.0	-198933.0	4122.0	-15272.0
3	16	55	7	468	148.0	-198649.0	4235.0	-14711.0
3	16	55	7	469	149.0	-198764.0	4349.0	-14716.0
3	16	55	7	500	150.0	-198662.0	4481.0	-14225.0
3	16	55	7	500	151.0	-198478.0	4590.0	-15312.0
3	16	55	7	501	152.0	-199997.0	4706.0	-16102.0
3	16	55	7	502	153.0	-200359.0	4801.0	-15517.0
3	16	55	7	503	154.0	-200532.0	4890.0	-15861.0
3	16	55	7	504	155.0	-200666.0	4981.0	-16499.0
3	16	55	7	504	156.0	-200488.0	5086.0	-16689.0
3	16	55	7	505	157.0	-200631.0	5173.0	-16537.0
3	16	55	7	506	158.0	-200697.0	5248.0	-15221.0
3	16	55	7	506	159.0	-200886.0	5339.0	-14769.0
3	16	55	7	507	160.0	-200919.0	5408.0	-15184.0
3	16	55	7	508	161.0	-200369.0	5461.0	-15735.0
3	16	55	7	509	162.0	-200211.0	5538.0	-17530.0
3	16	55	7	509	163.0	-200444.0	5596.0	-18391.0
3	16	55	7	510	164.0	-200466.0	5649.0	-17961.0
3	16	55	7	511	166.0	-199962.0	5754.0	-15735.0
3	16	55	7	511	167.0	-200009.0	5794.0	-14966.0
3	16	55	7	512	168.0	-200069.0	5832.0	-18094.0
3	16	55	7	513	169.0	-200218.0	5878.0	-20020.0
3	16	55	7	514	170.0	-200419.0	5919.0	-19454.0
3	16	55	7	514	171.0	-200404.0	5959.0	-20019.0
3	16	55	7	515	172.0	-200922.0	6004.0	-19721.0
3	16	55	7	544	173.0	-201074.0	6044.0	-19431.0
3	16	55	7	545	174.0	-200652.0	6083.0	-19417.0
3	16	55	7	545	175.0	-200509.0	6109.0	-18031.0
3	16	55	7	546	176.0	-200085.0	6123.0	-15423.0
3	16	55	7	547	177.0	-200089.0	6139.0	-13552.0
3	16	55	7	547	178.0	-200261.0	6164.0	-13459.0
3	16	55	7	548	179.0	-200529.0	6157.0	-14448.0
3	16	55	7	548	180.0	-200596.0	6144.0	-15509.0
3	16	55	7	549	181.0	-200512.0	6145.0	-17637.0
3	16	55	7	549	182.0	-200808.0	6142.0	-18219.0
3	16	55	7	550	183.0	-200827.0	6124.0	-18455.0
3	16	55	7	551	184.0	-200728.0	6126.0	-16734.0
3	16	55	7	551	185.0	-200449.0	6116.0	-13086.0
3	16	55	7	552	186.0	-200153.0	6088.0	-11632.0
3	16	55	7	552	187.0	-200197.0	6086.0	-12010.0
3	16	55	7	553	189.0	-200704.0	6002.0	-9541.0
3	16	55	7	554	190.0	-200489.0	5986.0	-8317.0
3	16	55	7	554	191.0	-200411.0	5966.0	-8330.0
3	16	55	7	555	192.0	-200319.0	5939.0	-8101.0
3	16	55	7	555	193.0	-200011.0	5924.0	-6574.0
3	16	55	7	556	194.0	-199918.0	5920.0	-4489.0
3	16	55	7	588	195.0	-200057.0	5892.0	-3343.0
3	16	55	7	589	196.0	-200001.0	5839.0	-2777.0
3	16	55	7	590	197.0	-199600.0	5799.0	-2199.0
3	16	55	7	590	198.0	-199791.0	5759.0	-1064.0
3	16	55	7	591	199.0	-200141.0	5716.0	-1886.0
3	16	55	7	591	200.0	-200198.0	5649.0	-2225.0
3	16	55	7	592	201.0	-200229.0	5606.0	-1906.0
3	16	55	7	593	202.0	-200141.0	5546.0	-1761.0
3	16	55	7	593	203.0	-199971.0	5493.0	-696.0
3	16	55	7	594	204.0	-200061.0	5449.0	-1024.0
3	16	55	7	594	205.0	-199986.0	5401.0	-2016.0
3	16	55	7	595	206.0	-200317.0	5348.0	-1733.0
3	16	55	7	595	207.0	-200684.0	5298.0	-2527.0
3	16	55	7	596	208.0	-200799.0	5253.0	-2250.0
3	16	55	7	597	209.0	-200612.0	5202.0	-1980.0
3	16	55	7	597	211.0	-199849.0	5097.0	-3277.0
3	16	55	7	598	212.0	-199616.0	5042.0	-3540.0
3	16	55	7	599	213.0	-199401.0	5016.0	-3423.0
3	16	55	7	599	214.0	-199471.0	4984.0	-3782.0
3	16	55	7	600	215.0	-199529.0	4964.0	-2764.0
3	16	55	7	600	216.0	-199676.0	4950.0	-2009.0
3	16	55	7	601	217.0	-199922.0	4927.0	-1206.0
3	16	55	7	632	218.0	-200152.0	4907.0	-248.0
3	16	55	7	633	219.0	-200161.0	4876.0	44.0
3	16	55	7	634	220.0	-200047.0	4838.0	298.0
3	16	55	7	634	221.0	-199893.0	4806.0	321.0
3	16	55	7	635	222.0	-199909.0	4778.0	1008.0
3	16	55	7	636	223.0	-199878.0	4751.0	781.0
3	16	55	7	636	224.0	-199805.0	4734.0	34.0
3	16	55	7	637	225.0	-199905.0	4707.0	338.0
3	16	55	7	637	226.0	-199878.0	4679.0	1435.0
3	16	55	7	638	227.0	-200093.0	4664.0	2370.0
3	16	55	7	639	228.0	-200164.0	4652.0	2636.0
3	16	55	7	639	229.0	-200094.0	4633.0	2009.0
3	16	55	7	640	230.0	-199914.0	4616.0	-261.0
3	16	55	7	640	231.0	-199910.0	4615.0	-684.0
3	16	55	7	641	232.0	-200159.0	4604.0	-236.0
3	16	55	7	642	234.0	-200296.0	4611.0	691.0
3	16	55	7	642	235.0	-200315.0	4613.0	-443.0
3	16	55	7	643	236.0	-200252.0	4606.0	-101.0
3	16	55	7	643	237.0	-200217.0	4633.0	299.0
3	16	55	7	644	238.0	-200129.0	4644.0	1490.0
3	16	55	7	652	239.0	-200051.0	4654.0	251.0
3	16	55	7	679	240.0	-200199.0	4665.0	-1857.0
3	16	55	7	680	241.0	-200166.0	4696.0	-2632.0
3	16	55	7	680	242.0	-200112.0	4714.0	-3230.0
3	16	55	7	681	243.0	-200275.0	4721.0	-2397.0
3	16	55	7	682	244.0	-200154.0	4714.0	-1514.0
3	16	55	7	682	245.0	-200117.0	4722.0	-629.0
3	16	55	7	683	246.0	-200169.0	4731.0	1032.0
3	16	55	7	684	247.0	-200291.0	4741.0	2815.0
3	16	55	7	684	248.0	-200391.0	4731.0	4257.0
3	16	55	7	685	249.0	-200314.0	4749.0	2569.0
3	16	55	7	685	250.0	-200286.0	4769.0	11.0
3	16	55	7	686	251.0	-200344.0	4761.0	-1412.0
3	16	55	7	687	252.0	-200371.0	4778.0	-2306.0
3	16	55	7	687	253.0	-200468.0	4791.0	-3268.0
3	16	55	7	688	254.0	-200611.0	4800.0	-4826.0
3	16	55	7	688	0.0	-200234.0	4818.0	-1812.0
3	16	55	7	689	1.0	-200192.0	4830.0	-1114.0
3	16	55	7	690	2.0	-200356.0	4856.0	-704.0
3	16	55	7	690	3.0	-200412.0	4879.0	-964.0
3	16	55	7	691	4.0	-200324.0	4903.0	-2134.0
3	16	55	7	691	5.0	-200254.0	4944.0	-2091.0
3	16	55	7	692	6.0	-200077.0	4980.0	-1515.0
3	16	55	7	724	7.0	-199841.0	4999.0	-1722.0
3	16	55	7	725	8.0	-199777.0	5006.0	-1522.0
3	16	55	7	725	9.0	-199501.0	5030.0	-269.0
3	16	55	7	726	10.0	-199690.0	5043.0	193.0
3	16	55	7	727	11.0	-200172.0	5047.0	-166.0
3	16	55	7	727	12.0	-200550.0	5052.0	-516.0
3	16	55	7	728	13.0	-200608.0	5051.0	-2621.0
3	16	55	7	729	14.0	-200691.0	5040.0	-3696.0
3	16	55	7	729	15.0	-200697.0	5053.0	-4187.0
3	16	55	7	730	16.0	-200620.0	5049.0	-4987.0
3	16	55	7	731	17.0	-200442.0	5053.0	-5447.0
3	16	55	7	731	18.0	-200474.0	5049.0	-4569.0
3	16	55	7	732	19.0	-200442.0	5064.0	-1692.0
3	16	55	7	733	20.0	-200254.0	5064.0	38.0
3	16	55	7	733	21.0	-200144.0	5047.0	-322.0
3	16	55	7	734	23.0	-200152.0	5023.0	-1037.0
3	16	55	7	734	24.0	-200216.0	5021.0	-2488.0
3	16	55	7	735	25.0	-200143.0	5025.0	-3526.0
3	16	55	7	735	26.0	-199999.0	5056.0	-3401.0
3	16	55	7	736	27.0	-200058.0	5056.0	-3553.0
3	16	55	7	737	28.0	-200029.0	5048.0	-4338.0
3	16	55	7	769	29.0	-199935.0	5063.0	-3667.0
3	16	55	7	769	30.0	-200090.0	5071.0	-3505.0
3	16	55	7	770	31.0	-200035.0	5064.0	-4526.0
3	16	55	7	771	32.0	-200099.0	5044.0	-3190.0
3	16	55	7	771	33.0	-200142.0	5045.0	-1637.0
3	16	55	7	772	34.0	-200209.0	5042.0	-2395.0
3	16	55	7	772	35.0	-200346.0	5033.0	-2530.0
3	16	55	7	773	36.0	-200269.0	5023.0	-915.0
3	16	55	7	774	37.0	-200323.0	5026.0	-628.0
3	16	55	7	774	38.0	-200413.0	5049.0	-656.0
3	16	55	7	775	39.0	-200227.0	5054.0	2558.0
3	16	55	7	775	40.0	-200327.0	5048.0	3966.0
3	16	55	7	776	41.0	-200491.0	5061.0	3743.0
3	16	55	7	777	42.0	-200462.0	5079.0	2789.0
3	16	55	7	777	43.0	-200335.0	5076.0	2479.0
3	16	55	7	778	45.0	-200373.0	5128.0	-14.0
3	16	55	7	778	46.0	-200320.0	5148.0	-636.0
3	16	55	7	779	47.0	-200282.0	5183.0	-1567.0
3	16	55	7	780	48.0	-200422.0	5220.0	-436.0
3	16	55	7	780	49.0	-200261.0	5263.0	957.0
3	16	55	7	781	50.0	-200314.0	5305.0	781.0
3	16	55	7	781	51.0	-200194.0	5344.0	471.0
3	16	55	7	814	52.0	-200132.0	5388.0	-1069.0
3	16	55	7	815	53.0	-200118.0	5421.0	-2721.0
3	16	55	7	815	54.0	-200079.0	5453.0	-3695.0
3	16	55	7	816	55.0	-200159.0	5485.0	-5387.0
3	16	55	7	817	56.0	-200044.0	5522.0	-6307.0
3	16	55	7	817	57.0	-200079.0	5561.0	-5156.0
3	16	55	7	818	58.0	-199977.0	5607.0	-4126.0
3	16	55	7	818	59.0	-199702.0	5644.0	-1926.0
3	16	55	7	819	60.0	-199831.0	5674.0	202.0
3	16	55	7	820	61.0	-200029.0	5690.0	-279.0
3	16	55	7	821	62.0	-200026.0	5734.0	-601.0
3	16	55	7	821	63.0	-200087.0	5783.0	-1472.0
3	16	55	7	822	64.0	-200179.0	5826.0	-3967.0
3	16	55	7	822	65.0	-200351.0	5838.0	-4863.0
3	16	55	7	823	66.0	-200264.0	5856.0	-4634.0
3	16	55	7	824	68.0	-200366.0	5956.0	-1809.0
3	16	55	7	824	69.0	-200379.0	6000.0	74.0
3	16	55	7	825	70.0	-200272.0	6056.0	1581.0
3	16	55	7	825	71.0	-200166.0	6099.0	1415.0
3	16	55	7	826	72.0	-200000.0	6140.0	749.0
3	16	55	7	827	73.0	-199986.0	6199.0	-816.0
3	16	55	7	859	74.0	-199975.0	6257.0	14.0
3	16	55	7	859	75.0	-199906.0	6314.0	1669.0
3	16	55	7	860	76.0	-199822.0	6353.0	2048.0
3	16	55	7	861	77.0	-199406.0	6379.0	2083.0
3	16	55	7	861	78.0	-198916.0	6418.0	3070.0
3	16	55	7	862	79.0	-199437.0	6452.0	3453.0
3	16	55	7	863	80.0	-199882.0	6494.0	3869.0
3	16	55	7	863	81.0	-200577.0	6514.0	4284.0
3	16	55	7	864	82.0	-200849.0	6546.0	1778.0
3	16	55	7	864	83.0	-200932.0	6571.0	-892.0
3	16	55	7	865	84.0	-200874.0	6615.0	-3162.0
3	16	55	7	866	85.0	-200789.0	6646.0	-4090.0
3	16	55	7	866	86.0	-200557.0	6668.0	-4437.0
3	16	55	7	867	87.0	-200169.0	6682.0	-4029.0
3	16	55	7	867	88.0	-199978.0	6720.0	-4055.0
3	16	55	7	868	90.0	-199502.0	6752.0	-2351.0
3	16	55	7	869	91.0	-199571.0	6770.0	-3211.0
3	16	55	7	869	92.0	-199664.0	6798.0	-4569.0
3	16	55	7	870	93.0	-199544.0	6841.0	-6843.0
3	16	55	7	870	94.0	-199384.0	6887.0	-7516.0
3	16	55	7	871	95.0	-199824.0	6916.0	-6212.0
3	16	55	7	904	96.0	-200282.0	6948.0	-4467.0
3	16	55	7	905	97.0	-200689.0	6968.0	-4643.0
3	16	55	7	906	98.0	-200849.0	7002.0	-4806.0
3	16	55	7	906	99.0	-200846.0	7008.0	-4826.0
3	16	55	7	907	100.0	-200579.0	7035.0	-4029.0
3	16	55	7	908	101.0	-200402.0	7049.0	-3473.0
3	16	55	7	908	102.0	-200098.0	7060.0	-4565.0
3	16	55	7	909	103.0	-199971.0	7051.0	-6270.0
3	16	55	7	910	104.0	-199972.0	7071.0	-7492.0
3	16	55	7	910	105.0	-200117.0	7105.0	-7028.0
3	16	55	7	911	106.0	-200181.0	7106.0	-6757.0
3	16	55	7	911	107.0	-200163.0	7127.0	-5229.0
3	16	55	7	912	108.0	-200094.0	7129.0	-5314.0
3	16	55	7	913	109.0	-199697.0	7147.0	-3856.0
3	16	55	7	913	110.0	-200024.0	7151.0	-1703.0
3	16	55	7	914	113.0	-200883.0	7199.0	-757.0
3	16	55	7	915	114.0	-201010.0	7221.0	-1049.0
3	16	55	7	915	115.0	-200970.0	7266.0	-2395.0
3	16	55	7	916	116.0	-200952.0	7291.0	-2568.0
3	16	55	7	916	117.0	-200382.0	7304.0	-1435.0
3	16	55	7	917	118.0	-200115.0	7320.0	-1756.0
3	16	55	7	948	119.0	-200482.0	7347.0	-1906.0
3	16	55	7	949	120.0	-200146.0	7354.0	146.0
3	16	55	7	950	121.0	-199618.0	7363.0	604.0
3	16	55	7	951	122.0	-199784.0	7384.0	-601.0
3	16	55	7	951	123.0	-199837.0	7388.0	-2052.0
3	16	55	7	952	124.0	-199746.0	7418.0	-2942.0
3	16	55	7	953	125.0	-199751.0	7418.0	-1794.0
3	16	55	7	953	126.0	-199987.0	7424.0	-1841.0
3	16	55	7	954	127.0	-200056.0	7430.0	-2641.0
3	16	55	7	955	128.0	-200062.0	7441.0	-2087.0
3	16	55	7	955	129.0	-200162.0	7439.0	-2488.0
3	16	55	7	956	130.0	-200306.0	7456.0	-2332.0
3	16	55	7	957	131.0	-200350.0	7458.0	-3220.0
3	16	55	7	957	132.0	-200569.0	7461.0	-4366.0
3	16	55	7	958	133.0	-200652.0	7452.0	-4693.0
3	16	55	7	958	135.0	-200306.0	7464.0	-7351.0
3	16	55	7	959	136.0	-200180.0	7472.0	-6223.0
3	16	55	7	960	137.0	-200444.0	7485.0	-4747.0
3	16	55	7	960	138.0	-200335.0	7500.0	-4372.0
3	16	55	7	961	139.0	-200211.0	7525.0	-5279.0
3	16	55	7	962	140.0	-200289.0	7534.0	-6017.0
3	16	55	7	962	141.0	-200375.0	7539.0	-6383.0
3	16	55	7	993	142.0	-200233.0	7561.0	-7613.0
3	16	55	8	40	143.0	-200132.0	7567.0	-8550.0
3	16	55	8	84	144.0	-200108.0	7573.0	-8125.0
3	16	55	8	85	145.0	-200004.0	7562.0	-8832.0
3	16	55	8	86	146.0	-200326.0	7556.0	-11076.0
3	16	55	8	86	147.0	-200445.0	7559.0	-14094.0
3	16	55	8	87	148.0	-200034.0	7546.0	-14689.0
3	16	55	8	88	149.0	-199654.0	7525.0	-14148.0
3	16	55	8	88	150.0	-199613.0	7536.0	-14681.0
3	16	55	8	89	151.0	-199762.0	7531.0	-14408.0
3	16	55	8	90	152.0	-199856.0	7515.0	-15222.0
3	16	55	8	90	153.0	-200004.0	7497.0	-15927.0
3	16	55	8	91	154.0	-199986.0	7497.0	-15728.0
3	16	55	8	91	155.0	-200236.0	7484.0	-16806.0
3	16	55	8	92	156.0	-200329.0	7458.0	-16233.0
3	16	55	8	93	157.0	-200342.0	7454.0	-13680.0
3	16	55	8	93	180.0	-200364.0	6795.0	-544.0
3	16	55	8	94	202.0	-200082.0	5957.0	-4954.0
3	16	55	8	95	203.0	-199777.0	5932.0	-5504.0
3	16	55	8	95	204.0	-199744.0	5911.0	-5176.0
3	16	55	8	96	205.0	-199747.0	5881.0	-4229.0
3	16	55	8	96	206.0	-199747.0	5848.0	-3397.0
3	16	55	8	97	207.0	-199741.0	5843.0	-1997.0
3	16	55	8	97	208.0	-199955.0	5816.0	-77.0
3	16	55	8	129	209.0	-199979.0	5774.0	466.0
3	16	55	8	130	210.0	-199997.0	5738.0	-1685.0
3	16	55	8	130	211.0	-199971.0	5716.0	-2706.0
3	16	55	8	131	212.0	-200157.0	5678.0	-2959.0
3	16	55	8	132	213.0	-200149.0	5633.0	-4169.0
3	16	55	8	132	214.0	-200315.0	5598.0	-4889.0
3	16	55	8	133	215.0	-200424.0	5559.0	-3774.0
3	16	55	8	134	216.0	-199896.0	5513.0	-3693.0
3	16	55	8	134	217.0	-199729.0	5496.0	-2748.0
3	16	55	8	135	218.0	-199775.0	5423.0	-427.0
3	16	55	8	135	219.0	-199862.0	5371.0	16.0
3	16	55	8	136	220.0	-200161.0	5341.0	-1258.0
3	16	55	8	137	221.0	-200108.0	5290.0	-1901.0
3	16	55	8	138	222.0	-200204.0	5257.0	-2971.0
3	16	55	8	138	223.0	-200240.0	5235.0	-2434.0
3	16	55	8	139	225.0	-200267.0	5133.0	-1273.0
3	16	55	8	139	226.0	-200455.0	5094.0	705.0
3	16	55	8	140	227.0	-200336.0	5092.0	3077.0
3	16	55	8	141	228.0	-200187.0	5073.0	3629.0
3	16	55	8	141	229.0	-200050.0	5056.0	3099.0
3	16	55	8	142	230.0	-199861.0	5053.0	2744.0
3	16	55	8	173	231.0	-200125.0	5049.0	2208.0
3	16	55	8	174	232.0	-199947.0	5052.0	62.0
3	16	55	8	175	233.0	-199986.0	5048.0	-1351.0
3	16	55	8	176	234.0	-199917.0	5026.0	-1091.0
3	16	55	8	176	235.0	-200297.0	5027.0	-537.0
3	16	55	8	177	236.0	-200473.0	5011.0	734.0
3	16	55	8	178	237.0	-200442.0	5024.0	3055.0
3	16	55	8	178	238.0	-200701.0	5033.0	4902.0
3	16	55	8	179	239.0	-200523.0	5041.0	3283.0
3	16	55	8	180	240.0	-200560.0	5058.0	3078.0
3	16	55	8	180	241.0	-200560.0	5101.0	2664.0
3	16	55	8	181	242.0	-200419.0	5138.0	964.0
3	16	55	8	182	243.0	-200253.0	5170.0	-591.0
3	16	55	8	183	244.0	-200214.0	5205.0	-28.0
3	16	55	8	184	245.0	-200375.0	5254.0	640.0
3	16	55	8	185	247.0	-200221.0	5371.0	1979.0
3	16	55	8	185	248.0	-200166.0	5434.0	3393.0
3	16	55	8	186	249.0	-200666.0	5524.0	3982.0
3	16	55	8	186	250.0	-200801.0	5614.0	2490.0
3	16	55	8	187	251.0	-200449.0	5711.0	594.0
3	16	55	8	188	252.0	-200318.0	5816.0	-791.0
3	16	55	8	188	253.0	-199899.0	5937.0	-742.0
3	16	55	8	218	254.0	-200142.0	6054.0	-432.0
3	16	55	8	219	255.0	-200226.0	6161.0	-909.0
3	16	55	8	220	0.0	-200541.0	6278.0	-1197.0
3	16	55	8	220	1.0	-200395.0	6397.0	1078.0
3	16	55	8	221	2.0	-200201.0	6512.0	3118.0
3	16	55	8	222	3.0	-200127.0	6634.0	1833.0
3	16	55	8	222	4.0	-200279.0	6778.0	1664.0
3	16	55	8	223	5.0	-200385.0	6907.0	2592.0
3	16	55	8	224	6.0	-200191.0	7043.0	309.0
3	16	55	8	224	7.0	-200094.0	7180.0	-1691.0
3	16	55	8	225	8.0	-200156.0	7313.0	-2209.0
3	16	55	8	226	9.0	-200070.0	7463.0	-2006.0
3	16	55	8	226	10.0	-200283.0	7608.0	-2998.0
3	16	55	8	227	11.0	-200152.0	7758.0	-2962.0
3	16	55	8	227	12.0	-200161.0	7896.0	-1201.0
3	16	55	8	228	14.0	-200162.0	8214.0	-2695.0
3	16	55	8	229	15.0	-200228.0	8378.0	-6358.0
3	16	55	8	229	16.0	-200340.0	8549.0	-10217.0
3	16	55	8	230	17.0	-200072.0	8718.0	-10837.0
3	16	55	8	231	18.0	-200031.0	8891.0	-10582.0
3	16	55	8	231	19.0	-200154.0	9056.0	-10606.0
3	16	55	8	263	20.0	-200152.0	9229.0	-8464.0
3	16	55	8	264	21.0	-200324.0	9398.0	-6146.0
3	16	55	8	264	22.0	-200072.0	9551.0	-4806.0
3	16	55	8	265	23.0	-199954.0	9696.0	-4656.0
3	16	55	8	266	24.0	-200179.0	9856.0	-5064.0
3	16	55	8	266	25.0	-200154.0	10011.0	-7092.0
3	16	55	8	267	26.0	-200297.0	10169.0	-9736.0
3	16	55	8	268	27.0	-200306.0	10314.0	-10143.0
3	16	55	8	268	28.0	-200178.0	10478.0	-11310.0
3	16	55	8	269	29.0	-200267.0	10634.0	-11216.0
3	16	55	8	270	30.0	-200206.0	10779.0	-8882.0
3	16	55	8	270	31.0	-200302.0	10930.0	-5986.0
3	16	55	8	271	32.0	-200229.0	11079.0	-4496.0
3	16	55	8	272	33.0	-200179.0	11229.0	-4450.0
3	16	55	8	272	34.0	-199909.0	11377.0	-5191.0
3	16	55	8	273	36.0	-200138.0	11646.0	-8806.0
3	16	55	8	274	37.0	-200101.0	11778.0	-11204.0
3	16	55	8	274	38.0	-200042.0	11939.0	-11853.0
3	16	55	8	275	39.0	-200062.0	12110.0	-10761.0
3	16	55	8	275	40.0	-199919.0	12267.0	-10821.0
3	16	55	8	276	41.0	-200087.0	12406.0	-9835.0
3	16	55	8	277	42.0	-200071.0	12541.0	-6582.0
3	16	55	8	308	43.0	-200104.0	12684.0	-6716.0
3	16	55	8	309	44.0	-200308.0	12818.0	-5879.0
3	16	55	8	310	45.0	-200149.0	12941.0	-4744.0
3	16	55	8	311	46.0	-200479.0	13089.0	-3074.0
3	16	55	8	312	47.0	-200577.0	13228.0	-2538.0
3	16	55	8	312	48.0	-200546.0	13351.0	-2662.0
3	16	55	8	313	49.0	-200520.0	13469.0	-3505.0
3	16	55	8	314	50.0	-200184.0	13583.0	-5203.0
3	16	55	8	314	51.0	-200326.0	13701.0	-4819.0
3	16	55	8	315	52.0	-200594.0	13811.0	-1823.0
3	16	55	8	316	53.0	-200006.0	13930.0	-1871.0
3	16	55	8	316	54.0	-199681.0	14048.0	-3055.0
3	16	55	8	317	55.0	-199487.0	14181.0	-5332.0
3	16	55	8	318	56.0	-199792.0	14318.0	-7812.0
3	16	55	8	318	57.0	-200059.0	14431.0	-8652.0
3	16	55	8	319	59.0	-200126.0	14687.0	-4155.0
3	16	55	8	320	60.0	-199872.0	14833.0	-1631.0
3	16	55	8	320	61.0	-199999.0	14981.0	453.0
3	16	55	8	321	62.0	-200424.0	15137.0	968.0
3	16	55	8	321	63.0	-200237.0	15285.0	1121.0
3	16	55	8	322	64.0	-200408.0	15447.0	-566.0
3	16	55	8	353	65.0	-200567.0	15591.0	-1674.0
3	16	55	8	354	66.0	-200342.0	15772.0	-2856.0
3	16	55	8	355	67.0	-200302.0	15903.0	-3641.0
3	16	55	8	356	68.0	-200420.0	16036.0	-4032.0
3	16	55	8	356	69.0	-200457.0	16193.0	-3620.0
3	16	55	8	357	70.0	-200074.0	16382.0	-2359.0
3	16	55	8	358	71.0	-200200.0	16542.0	-704.0
3	16	55	8	358	72.0	-200497.0	16688.0	768.0
3	16	55	8	359	73.0	-200316.0	16829.0	556.0
3	16	55	8	360	74.0	-200441.0	17003.0	-289.0
3	16	55	8	360	75.0	-200354.0	17186.0	-430.0
3	16	55	8	361	76.0	-200492.0	17353.0	-1757.0
3	16	55	8	362	77.0	-200365.0	17542.0	-3755.0
3	16	55	8	362	78.0	-200406.0	17702.0	-3873.0
3	16	55	8	363	79.0	-200407.0	17881.0	-2922.0
3	16	55	8	364	81.0	-200050.0	18213.0	-384.0
3	16	55	8	365	82.0	-200320.0	18381.0	-1121.0
3	16	55	8	365	83.0	-200253.0	18559.0	-2314.0
3	16	55	8	366	84.0	-200256.0	18741.0	-1714.0
3	16	55	8	367	85.0	-199911.0	18919.0	-2219.0
3	16	55	8	367	86.0	-200031.0	19086.0	-3077.0
3	16	55	8	415	87.0	-200219.0	19268.0	-1966.0
3	16	55	8	430	88.0	-200167.0	19443.0	-243.0
3	16	55	8	431	89.0	-200222.0	19595.0	1011.0
3	16	55	8	432	90.0	-200117.0	19721.0	3485.0
3	16	55	8	432	91.0	-200087.0	19889.0	4040.0
3	16	55	8	433	92.0	-200305.0	20017.0	3384.0
3	16	55	8	434	93.0	-200318.0	20165.0	3575.0
3	16	55	8	435	94.0	-200378.0	20313.0	3886.0
3	16	55	8	435	95.0	-200291.0	20460.0	4002.0
3	16	55	8	436	96.0	-200292.0	20580.0	4281.0
3	16	55	8	437	97.0	-200347.0	20716.0	4545.0
3	16	55	8	437	98.0	-200184.0	20866.0	5387.0
3	16	55	8	438	99.0	-200403.0	20976.0	5872.0
3	16	55	8	439	100.0	-200133.0	21095.0	6741.0
3	16	55	8	439	101.0	-199889.0	21218.0	7279.0
3	16	55	8	440	111.0	-200171.0	22735.0	15732.0
3	16	55	8	440	118.0	-200217.0	27253.0	9208.0
3	16	55	8	441	119.0	-200538.0	28006.0	9060.0
3	16	55	8	441	120.0	-201119.0	28733.0	7272.0
3	16	55	8	442	121.0	-201058.0	29429.0	8090.0
3	16	55	8	443	122.0	-200937.0	30096.0	9033.0
3	16	55	8	443	123.0	-200833.0	30764.0	8470.0
3	16	55	8	444	124.0	-200598.0	31441.0	6621.0
3	16	55	8	445	125.0	-200412.0	32096.0	6209.0
3	16	55	8	445	126.0	-200294.0	32725.0	6467.0
3	16	55	8	459	127.0	-199963.0	33343.0	7403.0
3	16	55	8	460	128.0	-199978.0	33964.0	8034.0
3	16	55	8	460	129.0	-199912.0	34573.0	8781.0
3	16	55	8	461	130.0	-199962.0	35166.0	12224.0
3	16	55	8	462	131.0	-200151.0	35746.0	13316.0
3	16	55	8	462	132.0	-200237.0	36313.0	11664.0
3	16	55	8	463	133.0	-200263.0	36854.0	8568.0
3	16	55	8	464	134.0	-200396.0	37404.0	4754.0
3	16	55	8	464	135.0	-200386.0	37932.0	3428.0
3	16	55	8	479	136.0	-200461.0	38451.0	3097.0
3	16	55	8	479	137.0	-200385.0	38958.0	4782.0
3	16	55	8	480	138.0	-200457.0	39455.0	6015.0
3	16	55	8	481	139.0	-200437.0	39922.0	6216.0
3	16	55	8	481	140.0	-200314.0	40369.0	7336.0
3	16	55	8	482	141.0	-200137.0	40813.0	9654.0
3	16	55	8	482	142.0	-200057.0	41266.0	11704.0
3	16	55	8	502	143.0	-199996.0	41708.0	11806.0
3	16	55	8	502	144.0	-199984.0	42147.0	9661.0
3	16	55	8	503	145.0	-200095.0	42546.0	7899.0
3	16	55	8	504	146.0	-200154.0	42921.0	8454.0
3	16	55	8	504	147.0	-200132.0	43311.0	9043.0
3	16	55	8	505	148.0	-200181.0	43681.0	7561.0
3	16	55	8	506	149.0	-200225.0	44051.0	7791.0
3	16	55	8	506	150.0	-200376.0	44408.0	9476.0
3	16	55	8	507	151.0	-200256.0	44761.0	9840.0
3	16	55	8	508	152.0	-200255.0	45112.0	8794.0
3	16	55	8	508	153.0	-200399.0	45424.0	7543.0
3	16	55	8	509	154.0	-200378.0	45734.0	5396.0
3	16	55	8	509	155.0	-200369.0	46051.0	3571.0
3	16	55	8	510	156.0	-200366.0	46374.0	2193.0
3	16	55	8	511	157.0	-200173.0	46686.0	2584.0
3	16	55	8	524	158.0	-200233.0	46982.0	3345.0
3	16	55	8	524	159.0	-199857.0	47266.0	2648.0
3	16	55	8	525	160.0	-200181.0	47543.0	3784.0
3	16	55	8	526	161.0	-200474.0	47813.0	5335.0
3	16	55	8	526	162.0	-200109.0	48061.0	4169.0
3	16	55	8	527	163.0	-200167.0	48327.0	1796.0
3	16	55	8	527	164.0	-200249.0	48570.0	427.0
3	16	55	8	528	165.0	-200070.0	48808.0	167.0
3	16	55	8	549	166.0	-200344.0	49042.0	-1404.0
3	16	55	8	550	167.0	-200390.0	49276.0	-2134.0
3	16	55	8	551	168.0	-200227.0	49486.0	-704.0
3	16	55	8	551	169.0	-200343.0	49673.0	821.0
3	16	55	8	552	170.0	-200419.0	49858.0	1458.0
3	16	55	8	553	171.0	-200172.0	50026.0	3467.0
3	16	55	8	553	172.0	-200224.0	50193.0	3733.0
3	16	55	8	554	173.0	-200391.0	50359.0	3459.0
3	16	55	8	555	174.0	-200521.0	50501.0	1966.0
3	16	55	8	555	175.0	-200330.0	50628.0	386.0
3	16	55	8	556	176.0	-200184.0	50763.0	1052.0
3	16	55	8	556	177.0	-200342.0	50847.0	2090.0
3	16	55	8	557	178.0	-200391.0	50924.0	3547.0
3	16	55	8	558	179.0	-200436.0	51000.0	4835.0
3	16	55	8	558	180.0	-200346.0	51047.0	4909.0
3	16	55	8	573	181.0	-200155.0	51083.0	3734.0
3	16	55	8	574	182.0	-200156.0	51108.0	3988.0
3	16	55	8	574	183.0	-200192.0	51108.0	3549.0
3	16	55	8	575	184.0	-200181.0	51084.0	2286.0
3	16	55	8	576	185.0	-200158.0	51036.0	220.0
3	16	55	8	576	186.0	-200136.0	50958.0	-1645.0
3	16	55	8	577	187.0	-200126.0	50873.0	-1149.0
3	16	55	8	578	188.0	-200124.0	50788.0	988.0
3	16	55	8	579	189.0	-200157.0	50648.0	1389.0
3	16	55	8	579	190.0	-200157.0	50489.0	1678.0
3	16	55	8	580	191.0	-200339.0	50324.0	1304.0
3	16	55	8	581	192.0	-200373.0	50126.0	-71.0
3	16	55	8	581	193.0	-200349.0	49908.0	-1089.0
3	16	55	8	582	194.0	-200238.0	49656.0	-1458.0
3	16	55	8	583	195.0	-200021.0	49409.0	-3696.0
3	16	55	8	595	196.0	-200232.0	49144.0	-4106.0
3	16	55	8	596	197.0	-200210.0	48856.0	-2189.0
3	16	55	8	597	198.0	-200092.0	48533.0	-2074.0
3	16	55	8	597	199.0	-199801.0	48192.0	-2459.0
3	16	55	8	598	200.0	-199829.0	47861.0	-383.0
3	16	55	8	599	201.0	-199725.0	47501.0	-749.0
3	16	55	8	618	202.0	-199292.0	47125.0	-1217.0
3	16	55	8	619	203.0	-200048.0	46719.0	-1316.0
3	16	55	8	620	204.0	-200589.0	46289.0	-2547.0
3	16	55	8	620	205.0	-200494.0	45833.0	-4962.0
3	16	55	8	621	206.0	-200242.0	45368.0	-4153.0
3	16	55	8	622	207.0	-200328.0	44881.0	-3873.0
3	16	55	8	622	208.0	-200267.0	44364.0	-3753.0
3	16	55	8	623	209.0	-200384.0	43804.0	-2301.0
3	16	55	8	624	210.0	-200684.0	43241.0	-249.0
3	16	55	8	624	211.0	-200553.0	42669.0	1489.0
3	16	55	8	625	212.0	-200357.0	42097.0	1242.0
3	16	55	8	626	213.0	-200346.0	41491.0	730.0
3	16	55	8	626	214.0	-200114.0	40851.0	-872.0
3	16	55	8	627	215.0	-200076.0	40239.0	-2561.0
3	16	55	8	628	216.0	-200255.0	39579.0	-565.0
3	16	55	8	641	217.0	-200247.0	38933.0	1006.0
3	16	55	8	641	218.0	-200338.0	38283.0	2990.0
3	16	55	8	642	219.0	-200295.0	37630.0	5078.0
3	16	55	8	643	220.0	-200301.0	36946.0	5977.0
3	16	55	8	643	221.0	-200219.0	36278.0	5090.0
3	16	55	8	644	222.0	-200471.0	35624.0	5345.0
3	16	55	8	645	223.0	-200347.0	34939.0	4385.0
3	16	55	8	645	224.0	-200100.0	34271.0	2594.0
3	16	55	8	665	225.0	-200296.0	33613.0	687.0
3	16	55	8	666	226.0	-200513.0	32942.0	-551.0
3	16	55	8	667	227.0	-200532.0	32273.0	1294.0
3	16	55	8	668	228.0	-200359.0	31614.0	2587.0
3	16	55	8	669	229.0	-200187.0	30943.0	2817.0
3	16	55	8	669	230.0	-200469.0	30274.0	3619.0
3	16	55	8	670	231.0	-200386.0	29605.0	4356.0
3	16	55	8	671	232.0	-200034.0	28941.0	4520.0
3	16	55	8	671	233.0	-200109.0	28318.0	4105.0
3	16	55	8	672	234.0	-200388.0	27683.0	2398.0
3	16	55	8	672	235.0	-200176.0	27034.0	658.0
3	16	55	8	673	236.0	-200081.0	26403.0	-333.0
3	16	55	8	674	237.0	-200377.0	25775.0	646.0
3	16	55	8	674	238.0	-200167.0	25156.0	460.0
3	16	55	8	675	239.0	-200209.0	24546.0	2156.0
3	16	55	8	688	240.0	-200275.0	23964.0	5080.0
3	16	55	8	689	241.0	-200387.0	23393.0	6699.0
3	16	55	8	690	242.0	-200457.0	22801.0	6730.0
3	16	55	8	690	243.0	-200312.0	22226.0	6578.0
3	16	55	8	691	244.0	-200394.0	21680.0	5703.0
3	16	55	8	691	245.0	-200497.0	21134.0	4346.0
3	16	55	8	692	246.0	-200446.0	20570.0	4899.0
3	16	55	8	693	247.0	-200249.0	20044.0	5471.0
3	16	55	8	714	248.0	-200197.0	19550.0	6148.0
3	16	55	8	714	249.0	-199901.0	19041.0	7342.0
3	16	55	8	715	250.0	-199338.0	18536.0	9708.0
3	16	55	8	716	251.0	-200706.0	18048.0	9827.0
3	16	55	8	716	252.0	-200684.0	17586.0	8696.0
3	16	55	8	717	253.0	-200499.0	17121.0	6533.0
3	16	55	8	718	254.0	-200032.0	16644.0	3911.0
3	16	55	8	718	255.0	-200187.0	16189.0	2546.0
3	16	55	8	719	0.0	-200059.0	15752.0	1865.0
3	16	55	8	719	1.0	-199857.0	15330.0	3173.0
3	16	55	8	720	2.0	-199919.0	14906.0	4664.0
3	16	55	8	721	3.0	-199817.0	14474.0	6358.0
3	16	55	8	721	4.0	-199567.0	14054.0	7376.0
3	16	55	8	722	5.0	-199769.0	13654.0	7601.0
3	16	55	8	722	6.0	-200857.0	13286.0	7086.0
3	16	55	8	736	7.0	-200517.0	12938.0	5951.0
3	16	55	8	737	8.0	-200494.0	12579.0	4446.0
3	16	55	8	738	9.0	-200439.0	12204.0	2950.0
3	16	55	8	738	10.0	-200551.0	11848.0	3099.0
3	16	55	8	739	11.0	-200403.0	11499.0	4528.0
3	16	55	8	739	12.0	-200245.0	11157.0	6168.0
3	16	55	8	740	13.0	-200247.0	10821.0	7831.0
3	16	55	8	765	14.0	-200435.0	10501.0	9798.0
3	16	55	8	766	15.0	-200520.0	10208.0	11644.0
3	16	55	8	766	16.0	-200360.0	9888.0	11899.0
3	16	55	8	775	17.0	-200326.0	9564.0	11294.0
3	16	55	8	776	18.0	-200002.0	9267.0	10419.0
3	16	55	8	776	19.0	-200599.0	8971.0	9885.0
3	16	55	8	777	20.0	-200206.0	8695.0	10453.0
3	16	55	8	778	21.0	-200138.0	8413.0	12256.0
3	16	55	8	778	22.0	-200084.0	8163.0	13069.0
3	16	55	8	779	23.0	-200197.0	7908.0	14283.0
3	16	55	8	779	24.0	-200224.0	7626.0	17203.0
3	16	55	8	780	25.0	-200325.0	7346.0	17788.0
3	16	55	8	781	26.0	-200319.0	7083.0	16471.0
3	16	55	8	781	27.0	-200231.0	6839.0	16393.0
3	16	55	8	782	28.0	-200242.0	6599.0	14971.0
3	16	55	8	782	29.0	-200135.0	6362.0	13386.0
3	16	55	8	783	30.0	-200314.0	6144.0	11823.0
3	16	55	8	783	31.0	-200299.0	5908.0	11875.0
3	16	55	8	784	32.0	-200323.0	5668.0	10904.0
3	16	55	8	785	33.0	-200250.0	5429.0	10849.0
3	16	55	8	785	34.0	-199842.0	5204.0	11175.0
3	16	55	8	786	35.0	-199854.0	4981.0	11655.0
3	16	55	8	786	36.0	-200152.0	4782.0	11879.0
3	16	55	8	787	37.0	-199794.0	4590.0	11354.0
3	16	55	8	795	38.0	-199802.0	4373.0	10206.0
3	16	55	8	795	39.0	-199829.0	4181.0	10703.0
3	16	55	8	796	40.0	-199756.0	3968.0	10256.0
3	16	55	8	796	41.0	-199804.0	3778.0	8613.0
3	16	55	8	797	42.0	-200072.0	3584.0	7983.0
3	16	55	8	797	43.0	-200184.0	3412.0	10532.0
3	16	55	8	819	44.0	-200245.0	3238.0	13303.0
3	16	55	8	819	45.0	-200281.0	3043.0	14279.0
3	16	55	8	820	46.0	-200418.0	2864.0	12667.0
3	16	55	8	821	47.0	-200249.0	2676.0	10959.0
3	16	55	8	821	48.0	-200193.0	2501.0	9322.0
3	16	55	8	822	49.0	-200401.0	2326.0	7281.0
3	16	55	8	822	50.0	-200326.0	2166.0	6002.0
3	16	55	8	823	51.0	-200343.0	2013.0	4750.0
3	16	55	8	823	52.0	-200301.0	1883.0	4325.0
3	16	55	8	824	53.0	-200331.0	1724.0	6073.0
3	16	55	8	824	54.0	-200364.0	1558.0	7431.0
3	16	55	8	825	55.0	-200476.0	1391.0	7774.0
3	16	55	8	826	56.0	-200464.0	1220.0	9286.0
3	16	55	8	826	57.0	-200331.0	1051.0	9718.0
3	16	55	8	827	58.0	-200216.0	896.0	7060.0
3	16	55	8	842	59.0	-200171.0	750.0	5524.0
3	16	55	8	843	60.0	-200162.0	633.0	5156.0
3	16	55	8	844	61.0	-200166.0	581.0	19015.0
3	16	55	8	844	62.0	-200276.0	487.0	96749.0
3	16	55	8	845	63.0	-200321.0	254.0	143558.0
3	16	55	8	845	64.0	-200481.0	75.0	152989.0
3	16	55	8	846	65.0	-200427.0	-74.0	151901.0
3	16	55	8	864	66.0	-200359.0	-212.0	147324.0
3	16	55	8	865	67.0	-200321.0	-342.0	143139.0
3	16	55	8	866	68.0	-200274.0	-467.0	136591.0
3	16	55	8	866	69.0	-200214.0	-597.0	129454.0
3	16	55	8	867	70.0	-200335.0	-729.0	124479.0
3	16	55	8	867	71.0	-200329.0	-863.0	120224.0
3	16	55	8	868	72.0	-200211.0	-993.0	114856.0
3	16	55	8	869	73.0	-200115.0	-1105.0	109466.0
3	16	55	8	869	74.0	-200101.0	-1219.0	103968.0
3	16	55	8	870	75.0	-199985.0	-1317.0	98599.0
3	16	55	8	870	76.0	-200061.0	-1435.0	95086.0
3	16	55	8	871	77.0	-199930.0	-1554.0	93498.0
3	16	55	8	872	78.0	-199889.0	-1676.0	91311.0
3	16	55	8	872	79.0	-199977.0	-1796.0	88164.0
3	16	55	8	873	80.0	-199921.0	-1916.0	83567.0
3	16	55	8	886	81.0	-200284.0	-2007.0	79739.0
3	16	55	8	887	82.0	-200155.0	-2092.0	77176.0
3	16	55	8	887	83.0	-199958.0	-2204.0	73871.0
3	16	55	8	888	84.0	-200305.0	-2340.0	69570.0
3	16	55	8	888	85.0	-200106.0	-2448.0	64751.0
3	16	55	8	889	86.0	-200222.0	-2562.0	60052.0
3	16	55	8	890	87.0	-200310.0	-2666.0	56616.0
3	16	55	8	890	88.0	-200159.0	-2759.0	54429.0
3	16	55	8	912	89.0	-200352.0	-2839.0	52946.0
3	16	55	8	912	90.0	-200172.0	-2943.0	50823.0
3	16	55	8	913	91.0	-200158.0	-3046.0	48546.0
3	16	55	8	914	92.0	-200337.0	-3137.0	46754.0
3	16	55	8	914	93.0	-200002.0	-3242.0	44301.0
3	16	55	8	915	94.0	-200433.0	-3344.0	42997.0
3	16	55	8	916	95.0	-200201.0	-3431.0	43286.0
3	16	55	8	916	96.0	-200020.0	-3511.0	41216.0
3	16	55	8	917	97.0	-200580.0	-3586.0	39549.0
3	16	55	8	918	98.0	-200017.0	-3681.0	38741.0
3	16	55	8	918	99.0	-199778.0	-3772.0	36809.0
3	16	55	8	919	100.0	-201083.0	-3850.0	34252.0
3	16	55	8	919	101.0	-200774.0	-3928.0	31383.0
3	16	55	8	920	102.0	-200979.0	-4017.0	28820.0
3	16	55	8	921	103.0	-200233.0	-4086.0	26885.0
3	16	55	8	943	104.0	-200297.0	-4159.0	24649.0
3	16	55	8	944	105.0	-200701.0	-4234.0	21890.0
3	16	55	8	945	106.0	-200104.0	-4320.0	19992.0
3	16	55	8	945	107.0	-200515.0	-4403.0	19903.0
3	16	55	8	946	108.0	-200439.0	-4487.0	19535.0
3	16	55	8	946	109.0	-200046.0	-4580.0	17029.0
3	16	55	8	947	110.0	-200445.0	-4661.0	14596.0
3	16	55	8	947	111.0	-199494.0	-4742.0	13659.0
3	16	55	8	948	112.0	-199894.0	-4807.0	12249.0
3	16	55	8	949	113.0	-200449.0	-4881.0	9822.0
3	16	55	8	949	114.0	-199968.0	-4982.0	8612.0
3	16	55	8	950	115.0	-200256.0	-5064.0	8138.0
3	16	55	8	950	116.0	-200525.0	-5152.0	8369.0
3	16	55	8	951	117.0	-200797.0	-5223.0	8641.0
3	16	55	8	951	118.0	-200759.0	-5319.0	7615.0
3	16	55	8	952	119.0	-200238.0	-5394.0	7644.0
3	16	55	8	953	120.0	-200032.0	-5446.0	7134.0
3	16	55	8	953	121.0	-200488.0	-5517.0	5320.0
3	16	55	8	954	122.0	-200156.0	-5621.0	3486.0
3	16	55	8	954	123.0	-200049.0	-5728.0	3933.0
3	16	55	8	955	124.0	-200387.0	-5817.0	3673.0
3	16	55	8	956	125.0	-200061.0	-5889.0	3043.0
3	16	55	8	967	126.0	-200009.0	-5972.0	2656.0
3	16	55	8	991	127.0	-200403.0	-6064.0	1597.0
3	16	55	8	992	128.0	-200244.0	-6145.0	1332.0
3	16	55	8	993	129.0	-200092.0	-6242.0	968.0
3	16	55	8	993	130.0	-200444.0	-6326.0	1327.0
3	16	55	8	994	131.0	-199987.0	-6432.0	2054.0
3	16	55	8	995	132.0	-200323.0	-6545.0	726.0
3	16	55	8	995	133.0	-200810.0	-6621.0	-1186.0
3	16	55	8	996	134.0	-200405.0	-6695.0	-3167.0
3	16	55	8	996	135.0	-200047.0	-6756.0	-3864.0
3	16	55	8	997	136.0	-200153.0	-6838.0	-1214.0
3	16	55	8	998	137.0	-200192.0	-6934.0	550.0
3	16	55	8	998	138.0	-200012.0	-7040.0	888.0
3	16	55	8	999	139.0	-200182.0	-7124.0	311.0
3	16	55	8	999	140.0	-200502.0	-7217.0	1667.0
3	16	55	9	0	141.0	-200245.0	-7322.0	2476.0
3	16	55	9	1	142.0	-200277.0	-7381.0	2700.0
3	16	55	9	1	143.0	-200557.0	-7471.0	2207.0
3	16	55	9	2	144.0	-200125.0	-7564.0	2075.0
3	16	55	9	2	145.0	-200062.0	-7662.0	2526.0
3	16	55	9	3	146.0	-200399.0	-7757.0	3086.0
3	16	55	9	4	147.0	-200161.0	-7851.0	4791.0
3	16	55	9	4	148.0	-200092.0	-7932.0	5828.0
3	16	55	9	14	149.0	-200288.0	-8006.0	5189.0
3	16	55	9	14	150.0	-200138.0	-8079.0	4723.0
3	16	55	9	15	151.0	-200186.0	-8149.0	5131.0
3	16	55	9	16	152.0	-200424.0	-8236.0	5713.0
3	16	55	9	16	153.0	-200251.0	-8322.0	3668.0
3	16	55	9	17	154.0	-200165.0	-8392.0	3276.0
3	16	55	9	17	155.0	-200477.0	-8463.0	4138.0
3	16	55	9	40	156.0	-200372.0	-8494.0	5095.0
3	16	55	9	40	157.0	-200202.0	-8555.0	5041.0
3	16	55	9	41	158.0	-200569.0	-8611.0	4514.0
3	16	55	9	42	159.0	-200425.0	-8671.0	3723.0
3	16	55	9	42	160.0	-200126.0	-8716.0	3660.0
3	16	55	9	43	161.0	-200672.0	-8769.0	2691.0
3	16	55	9	44	162.0	-200268.0	-8819.0	1264.0
3	16	55	9	44	163.0	-200109.0	-8856.0	611.0
3	16	55	9	45	164.0	-200449.0	-8882.0	-576.0
3	16	55	9	46	165.0	-200046.0	-8901.0	182.0
3	16	55	9	46	166.0	-200014.0	-8911.0	1713.0
3	16	55	9	47	167.0	-200421.0	-8935.0	1694.0
3	16	55	9	47	168.0	-199669.0	-8957.0	2481.0
3	16	55	9	48	169.0	-199864.0	-8971.0	1934.0
3	16	55	9	49	170.0	-200179.0	-8979.0	671.0
3	16	55	9	61	171.0	-200042.0	-8989.0	221.0
3	16	55	9	62	172.0	-200331.0	-8991.0	-1197.0
3	16	55	9	62	173.0	-200614.0	-8979.0	-1123.0
3	16	55	9	63	174.0	-200547.0	-8983.0	-1023.0
3	16	55	9	64	175.0	-200802.0	-8981.0	-2127.0
3	16	55	9	64	176.0	-200709.0	-8984.0	-3506.0
3	16	55	9	65	177.0	-200248.0	-8964.0	-2778.0
3	16	55	9	65	178.0	-200466.0	-8928.0	-1556.0
3	16	55	9	84	179.0	-200317.0	-8899.0	-1222.0
3	16	55	9	85	180.0	-200102.0	-8867.0	-1549.0
3	16	55	9	86	181.0	-200432.0	-8847.0	-2366.0
3	16	55	9	86	182.0	-200041.0	-8831.0	-2587.0
3	16	55	9	87	183.0	-199973.0	-8798.0	-2777.0
3	16	55	9	88	184.0	-200466.0	-8761.0	-3961.0
3	16	55	9	88	185.0	-200193.0	-8741.0	-4524.0
3	16	55	9	89	186.0	-200409.0	-8707.0	-3886.0
3	16	55	9	90	187.0	-200522.0	-8647.0	-2880.0
3	16	55	9	90	188.0	-200167.0	-8621.0	-1641.0
3	16	55	9	91	189.0	-200567.0	-8606.0	-1083.0
3	16	55	9	91	190.0	-200318.0	-8567.0	-158.0
3	16	55	9	92	191.0	-200211.0	-8522.0	1015.0
3	16	55	9	93	192.0	-200454.0	-8461.0	1105.0
3	16	55	9	93	193.0	-198674.0	-8411.0	-274.0
3	16	55	9	112	194.0	-199205.0	-8357.0	-615.0
3	16	55	9	113	195.0	-200775.0	-8306.0	-78.0
3	16	55	9	114	196.0	-201316.0	-8257.0	326.0
3	16	55	9	114	197.0	-201749.0	-8207.0	289.0
3	16	55	9	115	198.0	-200793.0	-8157.0	-427.0
3	16	55	9	116	199.0	-200564.0	-8118.0	-456.0
3	16	55	9	116	200.0	-200146.0	-8081.0	-2279.0
3	16	55	9	117	201.0	-199446.0	-8036.0	-2452.0
3	16	55	9	118	202.0	-199902.0	-7986.0	-1915.0
3	16	55	9	118	203.0	-199889.0	-7933.0	-3367.0
3	16	55	9	119	204.0	-200037.0	-7872.0	-4001.0
3	16	55	9	120	205.0	-200370.0	-7825.0	-1822.0
3	16	55	9	120	206.0	-200101.0	-7793.0	-644.0
3	16	55	9	121	207.0	-200268.0	-7756.0	201.0
3	16	55	9	122	208.0	-200377.0	-7695.0	1538.0
3	16	55	9	132	209.0	-200281.0	-7634.0	946.0
3	16	55	9	133	210.0	-200390.0	-7542.0	1448.0
3	16	55	9	134	211.0	-200247.0	-7501.0	1519.0
3	16	55	9	134	212.0	-200052.0	-7469.0	305.0
3	16	55	9	135	213.0	-200104.0	-7413.0	-1108.0
3	16	55	9	136	214.0	-200212.0	-7364.0	-1253.0
3	16	55	9	136	215.0	-200232.0	-7325.0	-994.0
3	16	55	9	160	216.0	-200172.0	-7254.0	-934.0
3	16	55	9	161	217.0	-200083.0	-7198.0	-8.0
3	16	55	9	161	218.0	-199856.0	-7156.0	1713.0
3	16	55	9	162	219.0	-199760.0	-7107.0	2942.0
3	16	55	9	163	220.0	-200256.0	-7068.0	4221.0
3	16	55	9	163	221.0	-200312.0	-7024.0	4721.0
3	16	55	9	164	222.0	-200664.0	-6969.0	4641.0
3	16	55	9	164	223.0	-200514.0	-6917.0	2530.0
3	16	55	9	165	224.0	-200557.0	-6874.0	1921.0
3	16	55	9	166	225.0	-200524.0	-6816.0	1828.0
3	16	55	9	166	226.0	-200447.0	-6774.0	808.0
3	16	55	9	167	227.0	-200376.0	-6742.0	420.0
3	16	55	9	167	228.0	-200209.0	-6712.0	444.0
3	16	55	9	168	229.0	-200140.0	-6686.0	115.0
3	16	55	9	169	230.0	-200060.0	-6656.0	1058.0
3	16	55	9	182	231.0	-199985.0	-6615.0	449.0
3	16	55	9	183	232.0	-199991.0	-6551.0	-1374.0
3	16	55	9	183	233.0	-200050.0	-6514.0	-2844.0
3	16	55	9	184	234.0	-200016.0	-6500.0	-2874.0
3	16	55	9	184	235.0	-200097.0	-6463.0	-2739.0
3	16	55	9	185	236.0	-200042.0	-6440.0	-2846.0
3	16	55	9	186	237.0	-200197.0	-6392.0	-766.0
3	16	55	9	186	238.0	-200228.0	-6361.0	1295.0
3	16	55	9	208	239.0	-200129.0	-6311.0	861.0
3	16	55	9	209	240.0	-200213.0	-6292.0	923.0
3	16	55	9	209	241.0	-200135.0	-6267.0	4.0
3	16	55	9	210	242.0	-200011.0	-6236.0	-828.0
3	16	55	9	211	243.0	-199964.0	-6207.0	-2030.0
3	16	55	9	211	244.0	-199908.0	-6198.0	-3515.0
3	16	55	9	228	245.0	-200097.0	-6186.0	-5218.0
3	16	55	9	228	246.0	-200174.0	-6159.0	-6309.0
3	16	55	9	229	247.0	-200041.0	-6131.0	-5923.0
3	16	55	9	230	248.0	-200164.0	-6115.0	-6553.0
3	16	55	9	230	249.0	-200092.0	-6101.0	-8002.0
3	16	55	9	231	250.0	-200172.0	-6091.0	-7383.0
3	16	55	9	232	251.0	-200322.0	-6082.0	-7809.0
3	16	55	9	232	252.0	-200132.0	-6057.0	-9178.0
3	16	55	9	233	253.0	-200227.0	-6032.0	-9442.0
3	16	55	9	233	254.0	-200282.0	-6004.0	-9401.0
3	16	55	9	234	255.0	-200037.0	-6003.0	-9606.0
3	16	55	9	235	0.0	-200407.0	-5991.0	-9217.0
3	16	55	9	235	1.0	-199933.0	-5981.0	-8351.0
3	16	55	9	236	2.0	-200320.0	-5975.0	-7742.0
3	16	55	9	237	3.0	-200044.0	-5972.0	-6379.0
3	16	55	9	237	4.0	-200347.0	-5956.0	-5471.0
3	16	55	9	238	5.0	-200371.0	-5924.0	-5614.0
3	16	55	9	238	6.0	-200177.0	-5908.0	-5851.0
3	16	55	9	239	7.0	-200340.0	-5881.0	-5441.0
3	16	55	9	240	8.0	-200238.0	-5869.0	-4281.0
3	16	55	9	240	9.0	-200527.0	-5857.0	-3234.0
3	16	55	9	241	10.0	-200231.0	-5837.0	-3916.0
3	16	55	9	253	11.0	-200451.0	-5837.0	-4208.0
3	16	55	9	254	12.0	-200184.0	-5829.0	-4461.0
3	16	55	9	254	13.0	-200286.0	-5812.0	-4687.0
3	16	55	9	255	14.0	-200313.0	-5813.0	-3872.0
3	16	55	9	256	15.0	-200122.0	-5810.0	-3603.0
3	16	55	9	256	16.0	-200500.0	-5809.0	-4470.0
3	16	55	9	257	17.0	-200163.0	-5822.0	-6041.0
3	16	55	9	258	18.0	-200201.0	-5825.0	-8205.0
3	16	55	9	258	19.0	-200257.0	-5824.0	-8506.0
3	16	55	9	259	20.0	-200042.0	-5820.0	-7351.0
3	16	55	9	274	21.0	-200305.0	-5791.0	-6272.0
3	16	55	9	274	22.0	-200182.0	-5789.0	-7434.0
3	16	55	9	275	23.0	-200219.0	-5793.0	-7174.0
3	16	55	9	275	24.0	-200230.0	-5799.0	-6791.0
3	16	55	9	276	25.0	-199861.0	-5798.0	-8272.0
3	16	55	9	277	26.0	-200103.0	-5815.0	-10107.0
3	16	55	9	297	27.0	-200036.0	-5821.0	-9494.0
3	16	55	9	298	28.0	-199841.0	-5822.0	-8251.0
3	16	55	9	299	29.0	-200112.0	-5825.0	-8259.0
3	16	55	9	299	30.0	-199821.0	-5816.0	-8522.0
3	16	55	9	300	31.0	-199907.0	-5809.0	-9561.0
3	16	55	9	300	32.0	-200075.0	-5828.0	-10913.0
3	16	55	9	301	33.0	-199767.0	-5833.0	-11165.0
3	16	55	9	302	34.0	-200047.0	-5836.0	-9345.0
3	16	55	9	302	35.0	-199867.0	-5844.0	-9102.0
3	16	55	9	303	36.0	-199824.0	-5841.0	-8792.0
3	16	55	9	303	37.0	-200167.0	-5845.0	-7902.0
3	16	55	9	304	38.0	-199909.0	-5852.0	-8651.0
3	16	55	9	320	39.0	-200064.0	-5857.0	-9777.0
3	16	55	9	321	40.0	-200428.0	-5873.0	-9694.0
3	16	55	9	321	41.0	-200127.0	-5863.0	-9724.0
3	16	55	9	322	42.0	-199912.0	-5884.0	-9466.0
3	16	55	9	322	43.0	-200048.0	-5879.0	-8680.0
3	16	55	9	323	44.0	-199984.0	-5882.0	-9721.0
3	16	55	9	323	45.0	-200286.0	-5917.0	-10100.0
3	16	55	9	324	46.0	-199765.0	-5935.0	-9320.0
3	16	55	9	325	47.0	-199848.0	-5934.0	-9297.0
3	16	55	9	325	48.0	-200159.0	-5943.0	-9738.0
3	16	55	9	326	49.0	-199892.0	-5955.0	-9749.0
3	16	55	9	326	50.0	-200131.0	-5964.0	-9001.0
3	16	55	9	327	51.0	-200135.0	-5970.0	-7554.0
3	16	55	9	328	52.0	-199922.0	-5953.0	-7496.0
3	16	55	9	328	53.0	-200557.0	-5964.0	-7819.0
3	16	55	9	329	54.0	-200057.0	-5987.0	-8067.0
3	16	55	9	329	55.0	-199966.0	-5989.0	-8449.0
3	16	55	9	343	56.0	-200059.0	-6013.0	-8056.0
3	16	55	9	343	57.0	-199695.0	-6012.0	-7402.0
3	16	55	9	344	58.0	-199840.0	-6024.0	-7502.0
3	16	55	9	345	59.0	-200212.0	-6028.0	-8701.0
3	16	55	9	345	60.0	-200158.0	-6042.0	-9786.0
3	16	55	9	346	61.0	-199999.0	-6068.0	-9240.0
3	16	55	9	347	62.0	-199888.0	-6098.0	-9936.0
3	16	55	9	347	63.0	-199869.0	-6108.0	-9696.0
3	16	55	9	348	64.0	-200247.0	-6114.0	-8996.0
3	16	55	9	348	65.0	-200301.0	-6106.0	-8966.0
3	16	55	9	365	66.0	-200285.0	-6098.0	-9493.0
3	16	55	9	365	67.0	-200687.0	-6110.0	-9341.0
3	16	55	9	366	68.0	-200626.0	-6132.0	-8996.0
3	16	55	9	367	69.0	-200596.0	-6151.0	-7108.0
3	16	55	9	367	70.0	-200482.0	-6142.0	-5644.0
3	16	55	9	368	71.0	-200247.0	-6154.0	-5597.0
3	16	55	9	389	72.0	-200361.0	-6172.0	-6046.0
3	16	55	9	390	73.0	-200483.0	-6163.0	-6317.0
3	16	55	9	390	74.0	-200110.0	-6164.0	-6966.0
3	16	55	9	391	75.0	-200239.0	-6166.0	-8185.0
3	16	55	9	392	76.0	-200294.0	-6169.0	-9997.0
3	16	55	9	392	77.0	-199970.0	-6168.0	-12756.0
3	16	55	9	393	78.0	-200249.0	-6176.0	-14324.0
3	16	55	9	393	79.0	-200086.0	-6189.0	-13285.0
3	16	55	9	394	80.0	-199807.0	-6177.0	-12249.0
3	16	55	9	395	81.0	-200234.0	-6169.0	-12571.0
3	16	55	9	395	82.0	-200126.0	-6163.0	-12092.0
3	16	55	9	396	83.0	-200089.0	-6174.0	-11577.0
3	16	55	9	396	84.0	-200421.0	-6178.0	-11067.0
3	16	55	9	397	85.0	-200348.0	-6191.0	-10727.0
3	16	55	9	397	86.0	-200418.0	-6198.0	-12124.0
3	16	55	9	412	87.0	-200501.0	-6191.0	-14391.0
3	16	55	9	412	88.0	-200472.0	-6177.0	-14784.0
3	16	55	9	413	89.0	-200394.0	-6171.0	-13909.0
3	16	55	9	414	90.0	-200587.0	-6150.0	-12679.0
3	16	55	9	414	91.0	-200290.0	-6159.0	-12366.0
3	16	55	9	415	92.0	-200352.0	-6170.0	-12894.0
3	16	55	9	415	93.0	-200687.0	-6172.0	-13117.0
3	16	55	9	416	94.0	-200344.0	-6179.0	-13314.0
3	16	55	9	434	95.0	-200400.0	-6172.0	-13254.0
3	16	55	9	435	96.0	-200290.0	-6153.0	-12740.0
3	16	55	9	436	97.0	-200107.0	-6148.0	-11820.0
3	16	55	9	436	98.0	-200394.0	-6148.0	-10334.0
3	16	55	9	437	99.0	-200319.0	-6151.0	-9304.0
3	16	55	9	438	100.0	-200194.0	-6150.0	-7925.0
3	16	55	9	438	101.0	-200556.0	-6149.0	-7163.0
3	16	55	9	439	102.0	-200327.0	-6129.0	-6170.0
3	16	55	9	439	103.0	-200142.0	-6123.0	-5777.0
3	16	55	9	440	104.0	-200399.0	-6108.0	-6188.0
3	16	55	9	440	105.0	-200015.0	-6120.0	-6402.0
3	16	55	9	441	106.0	-200052.0	-6139.0	-5917.0
3	16	55	9	458	107.0	-200146.0	-6114.0	-6132.0
3	16	55	9	459	108.0	-199871.0	-6109.0	-5114.0
3	16	55	9	460	109.0	-200141.0	-6113.0	-3259.0
3	16	55	9	460	110.0	-200223.0	-6084.0	-2184.0
3	16	55	9	461	111.0	-199949.0	-6074.0	-2088.0
3	16	55	9	462	112.0	-200284.0	-6070.0	-1042.0
3	16	55	9	462	113.0	-200341.0	-6093.0	253.0
3	16	55	9	463	114.0	-200188.0	-6099.0	-498.0
3	16	55	9	464	115.0	-200564.0	-6077.0	-1456.0
3	16	55	9	464	116.0	-200282.0	-6086.0	-2814.0
3	16	55	9	465	117.0	-200237.0	-6077.0	-2677.0
3	16	55	9	466	118.0	-200491.0	-6078.0	-997.0
3	16	55	9	466	119.0	-200142.0	-6074.0	1412.0
3	16	55	9	467	120.0	-200151.0	-6059.0	2126.0
3	16	55	9	467	121.0	-200408.0	-6060.0	2116.0
3	16	55	9	468	122.0	-200064.0	-6060.0	1868.0
3	16	55	9	469	123.0	-200241.0	-6063.0	1536.0
3	16	55	9	481	124.0	-200394.0	-6064.0	1168.0
3	16	55	9	481	125.0	-200022.0	-6059.0	1249.0
3	16	55	9	482	126.0	-200181.0	-6044.0	1573.0
3	16	55	9	483	127.0	-200321.0	-6049.0	1016.0
3	16	55	9	483	128.0	-200043.0	-6052.0	559.0
3	16	55	9	484	129.0	-200226.0	-6059.0	-298.0
3	16	55	9	484	130.0	-200201.0	-6046.0	-860.0
3	16	55	9	485	131.0	-199856.0	-6047.0	-770.0
3	16	55	9	486	132.0	-200124.0	-6041.0	-1533.0
3	16	55	9	505	133.0	-200246.0	-6024.0	-2818.0
3	16	55	9	505	134.0	-199841.0	-6017.0	-3249.0
3	16	55	9	506	135.0	-200063.0	-6019.0	-3041.0
3	16	55	9	507	136.0	-200201.0	-6032.0	-2162.0
3	16	55	9	507	137.0	-199951.0	-6046.0	-1431.0
3	16	55	9	508	138.0	-200199.0	-6057.0	1161.0
3	16	55	9	527	139.0	-200464.0	-6064.0	3180.0
3	16	55	9	528	140.0	-200091.0	-6039.0	1943.0
3	16	55	9	529	141.0	-200177.0	-6031.0	687.0
3	16	55	9	529	142.0	-200327.0	-6041.0	1068.0
3	16	55	9	530	143.0	-199988.0	-6051.0	566.0
3	16	55	9	531	144.0	-199948.0	-6042.0	1012.0
3	16	55	9	531	145.0	-200200.0	-6044.0	1166.0
3	16	55	9	532	146.0	-200112.0	-6051.0	1225.0
3	16	55	9	532	147.0	-199937.0	-6079.0	51.0
3	16	55	9	533	148.0	-200155.0	-6073.0	588.0
3	16	55	9	534	149.0	-200257.0	-6061.0	1856.0
3	16	55	9	534	150.0	-200242.0	-6076.0	3113.0
3	16	55	9	550	151.0	-200315.0	-6096.0	2661.0
3	16	55	9	551	152.0	-200441.0	-6122.0	3931.0
3	16	55	9	551	153.0	-200316.0	-6128.0	5194.0
3	16	55	9	552	154.0	-200705.0	-6126.0	7108.0
3	16	55	9	553	155.0	-200517.0	-6116.0	7448.0
3	16	55	9	553	156.0	-199964.0	-6116.0	5223.0
3	16	55	9	554	157.0	-199617.0	-6092.0	2485.0
3	16	55	9	554	158.0	-199708.0	-6087.0	244.0
3	16	55	9	555	159.0	-199908.0	-6102.0	-359.0
3	16	55	9	556	160.0	-199856.0	-6099.0	296.0
3	16	55	9	556	161.0	-199911.0	-6105.0	1546.0
3	16	55	9	557	162.0	-200351.0	-6099.0	1391.0
3	16	55	9	557	163.0	-200367.0	-6098.0	896.0
3	16	55	9	558	164.0	-200447.0	-6104.0	868.0
3	16	55	9	559	165.0	-200734.0	-6096.0	1270.0
3	16	55	9	559	166.0	-200721.0	-6112.0	1396.0
3	16	55	9	560	167.0	-200597.0	-6124.0	2953.0
3	16	55	9	560	168.0	-200526.0	-6131.0	3967.0
3	16	55	9	575	169.0	-200604.0	-6134.0	1398.0
3	16	55	9	576	170.0	-200380.0	-6136.0	-897.0
3	16	55	9	576	171.0	-200224.0	-6143.0	-886.0
3	16	55	9	577	172.0	-200426.0	-6149.0	-752.0
3	16	55	9	578	173.0	-200281.0	-6158.0	227.0
3	16	55	9	578	174.0	-200132.0	-6185.0	906.0
3	16	55	9	579	175.0	-200160.0	-6187.0	1614.0
3	16	55	9	579	176.0	-200119.0	-6208.0	3114.0
3	16	55	9	580	177.0	-200052.0	-6231.0	2043.0
3	16	55	9	598	178.0	-200054.0	-6210.0	216.0
3	16	55	9	599	179.0	-200267.0	-6210.0	-2197.0
3	16	55	9	600	180.0	-200166.0	-6234.0	-3424.0
3	16	55	9	600	181.0	-200177.0	-6236.0	-5025.0
3	16	55	9	601	182.0	-200532.0	-6251.0	-6184.0
3	16	55	9	602	183.0	-200409.0	-6297.0	-6038.0
3	16	55	9	602	184.0	-200271.0	-6304.0	-4917.0
3	16	55	9	603	185.0	-200649.0	-6285.0	-5417.0
3	16	55	9	603	186.0	-200548.0	-6300.0	-7209.0
3	16	55	9	604	187.0	-200575.0	-6324.0	-7710.0
3	16	55	9	605	188.0	-200592.0	-6343.0	-6407.0
3	16	55	9	605	189.0	-200146.0	-6357.0	-5927.0
3	16	55	9	606	190.0	-199974.0	-6376.0	-6039.0
3	16	55	9	606	191.0	-200200.0	-6400.0	-5918.0
3	16	55	9	624	192.0	-200222.0	-6396.0	-5564.0
3	16	55	9	625	193.0	-200164.0	-6400.0	-4727.0
3	16	55	9	625	194.0	-200301.0	-6408.0	-3086.0
3	16	55	9	626	195.0	-200346.0	-6417.0	-1018.0
3	16	55	9	626	196.0	-200177.0	-6449.0	-1187.0
3	16	55	9	627	197.0	-200322.0	-6476.0	-941.0
3	16	55	9	628	198.0	-200090.0	-6499.0	704.0
3	16	55	9	628	199.0	-200007.0	-6511.0	1714.0
3	16	55	9	629	200.0	-200277.0	-6508.0	-647.0
3	16	55	9	630	201.0	-200085.0	-6515.0	-2257.0
3	16	55	9	631	202.0	-200342.0	-6539.0	-2892.0
3	16	55	9	631	203.0	-200285.0	-6557.0	-1892.0
3	16	55	9	632	204.0	-200049.0	-6569.0	-1504.0
3	16	55	9	632	205.0	-200381.0	-6601.0	-976.0
3	16	55	9	633	206.0	-200200.0	-6639.0	418.0
3	16	55	9	660	207.0	-200246.0	-6644.0	-371.0
3	16	55	9	660	208.0	-200286.0	-6656.0	-1849.0
3	16	55	9	661	209.0	-200008.0	-6661.0	-1637.0
3	16	55	9	662	210.0	-200411.0	-6675.0	-587.0
3	16	55	9	663	211.0	-200289.0	-6719.0	-439.0
3	16	55	9	663	212.0	-200191.0	-6745.0	-412.0
3	16	55	9	664	213.0	-200217.0	-6744.0	-1250.0
3	16	55	9	665	214.0	-199977.0	-6769.0	-1084.0
