3	16	57	48	788	239.0	-200122.0	-12152.0	-127986.0
3	16	57	48	790	240.0	-200087.0	-12165.0	-129331.0
3	16	57	48	793	241.0	-200119.0	-11708.0	-132518.0
3	16	57	48	795	242.0	-200161.0	-11369.0	-139078.0
3	16	57	48	797	243.0	-200088.0	-11695.0	-145348.0
3	16	57	48	799	244.0	-200005.0	-12020.0	-144596.0
3	16	57	48	801	245.0	-199896.0	-12404.0	-137177.0
3	16	57	48	803	246.0	-199934.0	-13114.0	-125143.0
3	16	57	48	805	247.0	-199993.0	-13268.0	-116572.0
3	16	57	48	806	248.0	-200159.0	-12861.0	-113082.0
3	16	57	48	807	249.0	-200188.0	-12790.0	-112627.0
3	16	57	48	808	250.0	-200196.0	-12170.0	-113341.0
3	16	57	48	809	251.0	-200135.0	-11636.0	-115602.0
3	16	57	48	810	252.0	-200080.0	-12040.0	-116965.0
3	16	57	48	810	253.0	-200097.0	-12154.0	-117356.0
3	16	57	48	811	254.0	-200136.0	-11407.0	-117485.0
3	16	57	48	821	255.0	-200069.0	-12357.0	-114046.0
3	16	57	48	822	0.0	-200042.0	-12378.0	-108622.0
3	16	57	48	822	1.0	-199796.0	-12161.0	-104702.0
3	16	57	48	869	2.0	-199670.0	-12044.0	-100763.0
3	16	57	48	912	3.0	-199724.0	-11577.0	-97728.0
3	16	57	48	913	4.0	-199727.0	-11259.0	-95594.0
3	16	57	48	914	5.0	-199693.0	-11329.0	-95132.0
3	16	57	48	915	6.0	-199781.0	-11239.0	-95957.0
3	16	57	48	915	7.0	-199740.0	-10855.0	-97961.0
3	16	57	48	916	8.0	-199477.0	-11141.0	-96837.0
3	16	57	48	917	9.0	-199221.0	-12089.0	-93275.0
3	16	57	48	917	10.0	-198919.0	-12431.0	-90099.0
3	16	57	48	918	11.0	-198738.0	-11410.0	-87079.0
3	16	57	48	919	12.0	-198777.0	-11026.0	-83789.0
3	16	57	48	919	13.0	-198895.0	-10820.0	-81118.0
3	16	57	48	920	14.0	-198962.0	-10187.0	-77337.0
3	16	57	48	921	15.0	-199174.0	-10205.0	-71231.0
3	16	57	48	921	16.0	-199476.0	-9952.0	-69024.0
3	16	57	48	922	28.0	-199890.0	-12071.0	-41611.0
3	16	57	48	923	50.0	-200253.0	-14741.0	-20223.0
3	16	57	48	923	51.0	-200437.0	-13981.0	-18679.0
3	16	57	48	924	52.0	-200416.0	-12944.0	-17275.0
3	16	57	48	925	53.0	-200507.0	-12061.0	-15214.0
3	16	57	48	925	54.0	-200541.0	-11471.0	-13081.0
3	16	57	48	926	55.0	-200414.0	-11319.0	-11844.0
3	16	57	48	927	56.0	-200486.0	-10561.0	-10417.0
3	16	57	48	958	57.0	-200371.0	-10546.0	-9594.0
3	16	57	48	959	58.0	-200329.0	-11282.0	-8009.0
3	16	57	48	960	59.0	-200359.0	-12221.0	-6394.0
3	16	57	48	960	60.0	-200072.0	-10435.0	-4471.0
3	16	57	48	961	61.0	-200210.0	-9954.0	-2813.0
3	16	57	48	962	62.0	-200303.0	-9855.0	-1599.0
3	16	57	48	962	63.0	-200228.0	-9564.0	-1659.0
3	16	57	48	963	64.0	-200204.0	-9503.0	-3107.0
3	16	57	48	963	65.0	-200172.0	-9445.0	-1917.0
3	16	57	48	964	66.0	-200319.0	-9016.0	-251.0
3	16	57	48	965	67.0	-200359.0	-9444.0	773.0
3	16	57	48	965	68.0	-200449.0	-10376.0	1572.0
3	16	57	48	966	69.0	-200546.0	-11199.0	799.0
3	16	57	48	966	70.0	-200441.0	-11968.0	-637.0
3	16	57	48	967	71.0	-200845.0	-11099.0	-447.0
3	16	57	48	968	73.0	-200725.0	-9561.0	-738.0
3	16	57	48	968	74.0	-201014.0	-9214.0	74.0
3	16	57	48	969	75.0	-200829.0	-8994.0	1204.0
3	16	57	48	969	76.0	-200771.0	-8732.0	2243.0
3	16	57	48	970	77.0	-200964.0	-9822.0	2379.0
3	16	57	48	970	78.0	-200747.0	-11064.0	2241.0
3	16	57	49	2	79.0	-200806.0	-11736.0	2018.0
3	16	57	49	3	80.0	-200776.0	-11667.0	2366.0
3	16	57	49	4	81.0	-200694.0	-11242.0	4055.0
3	16	57	49	4	82.0	-200618.0	-10686.0	6548.0
3	16	57	49	5	83.0	-200369.0	-10543.0	8904.0
3	16	57	49	6	84.0	-200229.0	-9892.0	9916.0
3	16	57	49	6	85.0	-200052.0	-8780.0	10098.0
3	16	57	49	7	86.0	-199917.0	-7872.0	9888.0
3	16	57	49	7	87.0	-200096.0	-8631.0	10258.0
3	16	57	49	8	88.0	-199959.0	-9901.0	10490.0
3	16	57	49	9	89.0	-199220.0	-11097.0	11575.0
3	16	57	49	9	90.0	-198431.0	-11844.0	12158.0
3	16	57	49	10	91.0	-197709.0	-11571.0	11313.0
3	16	57	49	10	92.0	-197778.0	-10947.0	12074.0
3	16	57	49	11	93.0	-198408.0	-10903.0	13871.0
3	16	57	49	11	95.0	-199578.0	-9517.0	8651.0
3	16	57	49	12	96.0	-200082.0	-6766.0	5255.0
3	16	57	49	13	97.0	-200143.0	-6819.0	4368.0
3	16	57	49	13	98.0	-199964.0	-9384.0	5711.0
3	16	57	49	14	99.0	-199754.0	-10699.0	10074.0
3	16	57	49	14	100.0	-199314.0	-10859.0	13141.0
3	16	57	49	15	101.0	-198630.0	-10338.0	12781.0
3	16	57	49	48	102.0	-199372.0	-9926.0	11969.0
3	16	57	49	48	103.0	-200243.0	-10334.0	11025.0
3	16	57	49	49	104.0	-200542.0	-10319.0	9211.0
3	16	57	49	50	105.0	-200571.0	-9078.0	5606.0
3	16	57	49	50	106.0	-200644.0	-8088.0	2015.0
3	16	57	49	51	107.0	-200665.0	-7944.0	579.0
3	16	57	49	51	108.0	-200714.0	-9646.0	1688.0
3	16	57	49	52	109.0	-200916.0	-10979.0	3666.0
3	16	57	49	53	110.0	-200912.0	-10814.0	3548.0
3	16	57	49	53	111.0	-200963.0	-10127.0	2759.0
3	16	57	49	54	112.0	-201094.0	-10215.0	3097.0
3	16	57	49	54	113.0	-200984.0	-9648.0	3134.0
3	16	57	49	55	114.0	-201064.0	-9049.0	740.0
3	16	57	49	93	115.0	-201284.0	-9101.0	-2153.0
3	16	57	49	94	116.0	-201421.0	-9172.0	-4455.0
3	16	57	49	94	118.0	-201192.0	-11241.0	-4893.0
3	16	57	49	95	119.0	-201096.0	-12232.0	-2526.0
3	16	57	49	95	120.0	-201086.0	-11607.0	-205.0
3	16	57	49	96	121.0	-201007.0	-10229.0	1119.0
3	16	57	49	97	122.0	-200924.0	-8519.0	1875.0
3	16	57	49	97	123.0	-200845.0	-6932.0	314.0
3	16	57	49	98	124.0	-201124.0	-7171.0	-1769.0
3	16	57	49	99	125.0	-200930.0	-7544.0	-4204.0
3	16	57	49	99	126.0	-200695.0	-8063.0	-6028.0
3	16	57	49	100	127.0	-200557.0	-9112.0	-5362.0
3	16	57	49	100	128.0	-200355.0	-9409.0	-2801.0
3	16	57	49	102	129.0	-200480.0	-7197.0	364.0
3	16	57	49	102	130.0	-200705.0	-8156.0	3311.0
3	16	57	49	103	140.0	-200341.0	-8700.0	11338.0
3	16	57	49	104	141.0	-200208.0	-8896.0	12071.0
3	16	57	49	105	142.0	-200362.0	-10679.0	11035.0
3	16	57	49	106	143.0	-200539.0	-12094.0	9981.0
3	16	57	49	106	144.0	-200323.0	-10366.0	8558.0
3	16	57	49	107	145.0	-200099.0	-8877.0	5558.0
3	16	57	49	107	146.0	-199712.0	-8127.0	4015.0
3	16	57	49	137	147.0	-199932.0	-8546.0	3621.0
3	16	57	49	138	148.0	-200079.0	-9279.0	4063.0
3	16	57	49	139	149.0	-199761.0	-9702.0	4763.0
3	16	57	49	148	150.0	-199574.0	-9927.0	8497.0
3	16	57	49	149	151.0	-199919.0	-10077.0	10039.0
3	16	57	49	150	152.0	-200177.0	-11011.0	9689.0
3	16	57	49	150	153.0	-200148.0	-10985.0	9593.0
3	16	57	49	151	154.0	-200104.0	-10047.0	8093.0
3	16	57	49	151	155.0	-200147.0	-9197.0	7176.0
3	16	57	49	152	156.0	-199907.0	-10972.0	5251.0
3	16	57	49	153	157.0	-199870.0	-11779.0	5748.0
3	16	57	49	153	158.0	-200769.0	-12508.0	8572.0
3	16	57	49	154	159.0	-200938.0	-13058.0	11273.0
3	16	57	49	154	160.0	-200765.0	-12813.0	13238.0
3	16	57	49	155	161.0	-200726.0	-11860.0	12363.0
3	16	57	49	155	163.0	-200519.0	-7447.0	12499.0
3	16	57	49	156	164.0	-200594.0	-4105.0	12257.0
3	16	57	49	156	165.0	-200557.0	-4466.0	10504.0
3	16	57	49	157	166.0	-200580.0	-6054.0	9126.0
3	16	57	49	158	167.0	-200763.0	-7752.0	7565.0
3	16	57	49	183	168.0	-200994.0	-8442.0	7623.0
3	16	57	49	184	169.0	-201229.0	-7741.0	9584.0
3	16	57	49	185	170.0	-201731.0	-7548.0	10303.0
3	16	57	49	186	171.0	-201875.0	-7911.0	10001.0
3	16	57	49	186	172.0	-201906.0	-6597.0	9853.0
3	16	57	49	187	173.0	-201850.0	-5532.0	8754.0
3	16	57	49	188	174.0	-201941.0	-5082.0	8209.0
3	16	57	49	188	175.0	-201790.0	-3083.0	7213.0
3	16	57	49	189	176.0	-201347.0	-2256.0	5920.0
3	16	57	49	190	177.0	-201607.0	-4987.0	5929.0
3	16	57	49	190	178.0	-203823.0	-6338.0	7389.0
3	16	57	49	191	179.0	-204746.0	-6839.0	8451.0
3	16	57	49	192	180.0	-203729.0	-6442.0	10178.0
3	16	57	49	192	181.0	-202464.0	-4987.0	10833.0
3	16	57	49	193	182.0	-201544.0	-4449.0	10003.0
3	16	57	49	193	183.0	-201038.0	-4187.0	11039.0
3	16	57	49	194	185.0	-199944.0	-2717.0	10331.0
3	16	57	49	195	186.0	-199766.0	-2674.0	10932.0
3	16	57	49	195	187.0	-199546.0	-2837.0	12671.0
3	16	57	49	196	188.0	-199419.0	-3280.0	13374.0
3	16	57	49	196	189.0	-199313.0	-2922.0	13704.0
3	16	57	49	197	190.0	-199320.0	-2827.0	13597.0
3	16	57	49	198	191.0	-199437.0	-2117.0	12853.0
3	16	57	49	228	192.0	-199407.0	-1548.0	10776.0
3	16	57	49	228	193.0	-199612.0	-681.0	9722.0
3	16	57	49	229	194.0	-199757.0	-291.0	8186.0
3	16	57	49	230	195.0	-199984.0	-1439.0	6385.0
3	16	57	49	230	196.0	-200266.0	-1581.0	8384.0
3	16	57	49	231	197.0	-200449.0	-960.0	10338.0
3	16	57	49	232	198.0	-200622.0	-1284.0	10338.0
3	16	57	49	232	199.0	-200713.0	-1565.0	11546.0
3	16	57	49	233	200.0	-200792.0	-1375.0	13328.0
3	16	57	49	234	201.0	-200625.0	-1518.0	14191.0
3	16	57	49	235	202.0	-200393.0	-1497.0	12951.0
3	16	57	49	236	203.0	-200316.0	-1384.0	12198.0
3	16	57	49	236	204.0	-200136.0	-2325.0	12816.0
3	16	57	49	237	205.0	-200066.0	-2072.0	11281.0
3	16	57	49	238	206.0	-199929.0	-1966.0	9935.0
3	16	57	49	239	208.0	-199789.0	-1921.0	9224.0
3	16	57	49	239	209.0	-199655.0	-1769.0	11024.0
3	16	57	49	240	210.0	-199499.0	-1508.0	12152.0
3	16	57	49	240	211.0	-199354.0	-1618.0	11829.0
3	16	57	49	241	212.0	-199171.0	-2015.0	13475.0
3	16	57	49	241	213.0	-198877.0	-1791.0	13904.0
3	16	57	49	273	214.0	-198567.0	-1477.0	13578.0
3	16	57	49	274	215.0	-198148.0	-1882.0	11171.0
3	16	57	49	274	216.0	-197897.0	-1802.0	9324.0
3	16	57	49	275	217.0	-197729.0	-2144.0	10234.0
3	16	57	49	276	218.0	-197407.0	-2089.0	11039.0
3	16	57	49	277	219.0	-198074.0	-2134.0	11470.0
3	16	57	49	278	220.0	-198562.0	-2104.0	11549.0
3	16	57	49	278	221.0	-198600.0	-2066.0	11111.0
3	16	57	49	279	222.0	-198874.0	-2136.0	11295.0
3	16	57	49	280	223.0	-199026.0	-1969.0	12379.0
3	16	57	49	280	224.0	-199352.0	-2284.0	11937.0
3	16	57	49	281	225.0	-199578.0	-2496.0	10833.0
3	16	57	49	282	226.0	-199573.0	-2385.0	10330.0
3	16	57	49	282	227.0	-199635.0	-2694.0	9043.0
3	16	57	49	283	228.0	-199781.0	-2630.0	8434.0
3	16	57	49	285	230.0	-200084.0	-2196.0	9004.0
3	16	57	49	286	231.0	-200377.0	-2509.0	9208.0
3	16	57	49	302	232.0	-200440.0	-2317.0	9556.0
3	16	57	49	302	233.0	-200506.0	-2534.0	9727.0
3	16	57	49	303	234.0	-200855.0	-3015.0	9420.0
3	16	57	49	303	235.0	-200982.0	-2912.0	7626.0
3	16	57	49	324	236.0	-201101.0	-2784.0	7007.0
3	16	57	49	325	237.0	-201145.0	-3027.0	7528.0
3	16	57	49	326	238.0	-201146.0	-2966.0	9838.0
3	16	57	49	326	239.0	-201076.0	-3042.0	12724.0
3	16	57	49	327	240.0	-201039.0	-2957.0	13246.0
3	16	57	49	327	241.0	-201087.0	-2725.0	11839.0
3	16	57	49	328	242.0	-201216.0	-2724.0	12019.0
3	16	57	49	329	243.0	-201211.0	-2707.0	12278.0
3	16	57	49	329	244.0	-201334.0	-2631.0	11026.0
3	16	57	49	330	245.0	-201364.0	-2651.0	10869.0
3	16	57	49	330	246.0	-201348.0	-2759.0	10522.0
3	16	57	49	331	247.0	-201278.0	-2793.0	10153.0
3	16	57	49	331	248.0	-201181.0	-2693.0	9264.0
3	16	57	49	332	249.0	-200926.0	-3089.0	8242.0
3	16	57	49	333	250.0	-200777.0	-2899.0	8407.0
3	16	57	49	333	252.0	-200287.0	-2949.0	8023.0
3	16	57	49	334	253.0	-200262.0	-2883.0	6523.0
3	16	57	49	334	254.0	-200196.0	-2975.0	6174.0
3	16	57	49	335	255.0	-200011.0	-3092.0	7201.0
3	16	57	49	335	0.0	-200119.0	-3154.0	7644.0
3	16	57	49	336	1.0	-200023.0	-3096.0	8896.0
3	16	57	49	336	2.0	-200024.0	-3060.0	9628.0
3	16	57	49	362	3.0	-200010.0	-3025.0	8715.0
3	16	57	49	363	4.0	-199921.0	-3305.0	8497.0
3	16	57	49	364	5.0	-199964.0	-3321.0	6934.0
3	16	57	49	364	6.0	-199897.0	-2933.0	4574.0
3	16	57	49	365	7.0	-199801.0	-2963.0	3400.0
3	16	57	49	366	8.0	-199884.0	-3312.0	3046.0
3	16	57	49	366	9.0	-199976.0	-3196.0	2954.0
3	16	57	49	367	10.0	-200041.0	-3674.0	4866.0
3	16	57	49	368	11.0	-200117.0	-3583.0	5487.0
3	16	57	49	369	12.0	-200026.0	-3531.0	5193.0
3	16	57	49	369	13.0	-200122.0	-3633.0	5547.0
3	16	57	49	370	14.0	-200172.0	-3496.0	5813.0
3	16	57	49	370	15.0	-200194.0	-3856.0	5971.0
3	16	57	49	371	16.0	-200255.0	-3805.0	6428.0
3	16	57	49	372	17.0	-200314.0	-3647.0	5621.0
3	16	57	49	372	19.0	-200476.0	-3749.0	5663.0
3	16	57	49	373	20.0	-200344.0	-3745.0	7558.0
3	16	57	49	373	21.0	-200146.0	-3680.0	10097.0
3	16	57	49	374	22.0	-200114.0	-3757.0	11077.0
3	16	57	49	375	23.0	-199998.0	-3932.0	10262.0
3	16	57	49	375	24.0	-199991.0	-3976.0	9856.0
3	16	57	49	407	25.0	-200100.0	-3637.0	10085.0
3	16	57	49	408	26.0	-199906.0	-3549.0	9446.0
3	16	57	49	409	27.0	-199917.0	-3981.0	6971.0
3	16	57	49	409	28.0	-200007.0	-4122.0	5989.0
3	16	57	49	410	29.0	-200066.0	-3799.0	6542.0
3	16	57	49	411	30.0	-200227.0	-4086.0	5568.0
3	16	57	49	411	31.0	-200222.0	-4262.0	4663.0
3	16	57	49	412	32.0	-200137.0	-4235.0	5631.0
3	16	57	49	412	33.0	-200204.0	-4288.0	7420.0
3	16	57	49	413	34.0	-200088.0	-4351.0	7254.0
3	16	57	49	413	35.0	-199899.0	-4201.0	6498.0
3	16	57	49	414	36.0	-200140.0	-4403.0	5404.0
3	16	57	49	415	37.0	-200151.0	-4518.0	5742.0
3	16	57	49	415	38.0	-200044.0	-4557.0	6643.0
3	16	57	49	416	39.0	-200027.0	-4587.0	7880.0
3	16	57	49	416	41.0	-199828.0	-4616.0	8402.0
3	16	57	49	417	42.0	-199847.0	-4604.0	8213.0
3	16	57	49	418	43.0	-199853.0	-4751.0	8926.0
3	16	57	49	419	44.0	-199882.0	-4729.0	9116.0
3	16	57	49	419	45.0	-199823.0	-4622.0	8712.0
3	16	57	49	420	46.0	-199846.0	-4760.0	9809.0
3	16	57	49	421	47.0	-199782.0	-4607.0	9603.0
3	16	57	49	453	48.0	-199821.0	-4604.0	7751.0
3	16	57	49	454	49.0	-200054.0	-4701.0	6984.0
3	16	57	49	454	50.0	-200179.0	-4824.0	6453.0
3	16	57	49	455	51.0	-200192.0	-4896.0	6015.0
3	16	57	49	455	52.0	-200324.0	-5036.0	6113.0
3	16	57	49	456	53.0	-200411.0	-4690.0	6351.0
3	16	57	49	457	54.0	-200533.0	-4525.0	6368.0
3	16	57	49	457	55.0	-200534.0	-4706.0	7055.0
3	16	57	49	458	56.0	-200679.0	-4599.0	7463.0
3	16	57	49	458	57.0	-200875.0	-4509.0	7079.0
3	16	57	49	459	58.0	-200929.0	-4392.0	7964.0
3	16	57	49	460	59.0	-201051.0	-4502.0	8412.0
3	16	57	49	460	60.0	-201199.0	-4582.0	7575.0
3	16	57	49	461	61.0	-201187.0	-4414.0	7038.0
3	16	57	49	461	62.0	-201090.0	-4377.0	7954.0
3	16	57	49	462	64.0	-200336.0	-4223.0	10663.0
3	16	57	49	463	65.0	-199934.0	-4130.0	10339.0
3	16	57	49	463	66.0	-199991.0	-4066.0	10975.0
3	16	57	49	464	67.0	-200110.0	-3867.0	11914.0
3	16	57	49	464	68.0	-200176.0	-3846.0	12997.0
3	16	57	49	465	69.0	-200326.0	-3887.0	12412.0
3	16	57	49	498	70.0	-200174.0	-3828.0	11458.0
3	16	57	49	499	71.0	-200270.0	-3772.0	9898.0
3	16	57	49	499	72.0	-200312.0	-3636.0	8232.0
3	16	57	49	500	73.0	-200111.0	-3546.0	8078.0
3	16	57	49	501	74.0	-200352.0	-3466.0	9561.0
3	16	57	49	501	75.0	-200262.0	-3272.0	10046.0
3	16	57	49	502	76.0	-200217.0	-3241.0	10405.0
3	16	57	49	502	77.0	-200238.0	-3206.0	10842.0
3	16	57	49	503	78.0	-199855.0	-3287.0	12492.0
3	16	57	49	504	79.0	-199875.0	-3234.0	12892.0
3	16	57	49	504	80.0	-199894.0	-3113.0	12656.0
3	16	57	49	505	81.0	-199759.0	-3213.0	10532.0
3	16	57	49	505	82.0	-199793.0	-3199.0	8689.0
3	16	57	49	506	83.0	-199690.0	-3214.0	9010.0
3	16	57	49	543	84.0	-199658.0	-3032.0	9643.0
3	16	57	49	544	86.0	-199786.0	-2669.0	7701.0
3	16	57	49	544	87.0	-199904.0	-2312.0	7374.0
3	16	57	49	545	88.0	-199899.0	-2167.0	6370.0
3	16	57	49	546	89.0	-199834.0	-2504.0	6137.0
3	16	57	49	546	90.0	-199751.0	-2653.0	6092.0
3	16	57	49	547	91.0	-199731.0	-2556.0	5584.0
3	16	57	49	548	92.0	-199786.0	-2302.0	5712.0
3	16	57	49	548	93.0	-199737.0	-2259.0	5073.0
3	16	57	49	549	94.0	-199839.0	-2305.0	4264.0
3	16	57	49	550	95.0	-199749.0	-2174.0	3958.0
3	16	57	49	550	96.0	-199624.0	-2092.0	4317.0
3	16	57	49	551	97.0	-199862.0	-2164.0	4454.0
3	16	57	49	551	98.0	-199841.0	-2162.0	5190.0
3	16	57	49	552	99.0	-199806.0	-2292.0	4959.0
3	16	57	49	553	109.0	-199794.0	-1693.0	-5767.0
3	16	57	49	553	110.0	-199819.0	-1548.0	-6237.0
3	16	57	49	554	111.0	-199922.0	-1543.0	-7294.0
3	16	57	49	554	112.0	-200181.0	-1432.0	-7810.0
3	16	57	49	555	113.0	-200186.0	-1321.0	-7081.0
3	16	57	49	556	114.0	-200512.0	-1274.0	-7061.0
3	16	57	49	589	115.0	-200721.0	-1186.0	-8399.0
3	16	57	49	590	116.0	-200607.0	-1135.0	-7244.0
3	16	57	49	590	117.0	-200592.0	-1136.0	-5378.0
3	16	57	49	592	118.0	-200472.0	-1131.0	-4112.0
3	16	57	49	593	119.0	-200369.0	-1129.0	-3001.0
3	16	57	49	593	120.0	-200546.0	-1044.0	-2031.0
3	16	57	49	594	121.0	-200668.0	-1061.0	-1534.0
3	16	57	49	595	122.0	-200544.0	-977.0	-1874.0
3	16	57	49	596	123.0	-200465.0	-983.0	-1588.0
3	16	57	49	597	124.0	-200211.0	-797.0	-1367.0
3	16	57	49	598	125.0	-200401.0	-781.0	-2006.0
3	16	57	49	599	126.0	-200617.0	-740.0	-1578.0
3	16	57	49	599	127.0	-200622.0	-644.0	-1964.0
3	16	57	49	600	128.0	-200681.0	-647.0	-2503.0
3	16	57	49	600	129.0	-200709.0	-555.0	-3289.0
3	16	57	49	601	131.0	-200782.0	-456.0	-5120.0
3	16	57	49	602	132.0	-200864.0	-527.0	-3100.0
3	16	57	49	602	133.0	-200721.0	-334.0	-1018.0
3	16	57	49	603	134.0	-200587.0	-292.0	851.0
3	16	57	49	603	135.0	-200529.0	-86.0	2241.0
3	16	57	49	604	136.0	-200564.0	185.0	2271.0
3	16	57	49	605	137.0	-200142.0	101.0	4191.0
3	16	57	49	633	138.0	-199770.0	140.0	5722.0
3	16	57	49	634	139.0	-199794.0	210.0	6961.0
3	16	57	49	635	140.0	-199924.0	263.0	7208.0
3	16	57	49	635	141.0	-199954.0	506.0	8006.0
3	16	57	49	636	142.0	-200002.0	597.0	8701.0
3	16	57	49	637	143.0	-200010.0	649.0	8414.0
3	16	57	49	637	144.0	-199998.0	848.0	9261.0
3	16	57	49	638	145.0	-200282.0	983.0	9101.0
3	16	57	49	639	146.0	-200456.0	788.0	9674.0
3	16	57	49	639	147.0	-200397.0	1064.0	11980.0
3	16	57	49	640	148.0	-200446.0	1193.0	12593.0
3	16	57	49	640	149.0	-200562.0	1263.0	11668.0
3	16	57	49	641	150.0	-200398.0	1294.0	10970.0
3	16	57	49	642	151.0	-200333.0	1438.0	10355.0
3	16	57	49	642	152.0	-200482.0	1546.0	10338.0
3	16	57	49	643	154.0	-200454.0	2058.0	11891.0
3	16	57	49	644	155.0	-200547.0	2144.0	12573.0
3	16	57	49	644	156.0	-200600.0	2240.0	13531.0
3	16	57	49	645	157.0	-200542.0	2478.0	13393.0
3	16	57	49	645	158.0	-200637.0	2579.0	12688.0
3	16	57	49	646	159.0	-200603.0	2549.0	12659.0
3	16	57	49	677	160.0	-200356.0	2682.0	11788.0
3	16	57	49	678	161.0	-200373.0	3016.0	13931.0
3	16	57	49	679	162.0	-200484.0	3477.0	15356.0
3	16	57	49	679	163.0	-200349.0	3424.0	14379.0
3	16	57	49	680	164.0	-200136.0	3498.0	12759.0
3	16	57	49	681	165.0	-200054.0	3599.0	13630.0
3	16	57	49	681	166.0	-199813.0	3754.0	15423.0
3	16	57	49	682	167.0	-199717.0	4011.0	15663.0
3	16	57	49	683	168.0	-199836.0	4186.0	16264.0
3	16	57	49	683	169.0	-199772.0	4243.0	16231.0
3	16	57	49	684	170.0	-199646.0	4465.0	14865.0
3	16	57	49	685	171.0	-199661.0	4509.0	12572.0
3	16	57	49	685	172.0	-199867.0	4656.0	12991.0
3	16	57	49	686	173.0	-199917.0	4889.0	13959.0
3	16	57	49	686	174.0	-199201.0	5072.0	14549.0
3	16	57	49	687	176.0	-199725.0	5384.0	17744.0
3	16	57	49	688	177.0	-200160.0	5538.0	17761.0
3	16	57	49	688	178.0	-200454.0	5565.0	16573.0
3	16	57	49	689	179.0	-200661.0	5829.0	16030.0
3	16	57	49	689	180.0	-200660.0	6059.0	14726.0
3	16	57	49	690	181.0	-200678.0	6306.0	11716.0
3	16	57	49	691	182.0	-200782.0	6344.0	9741.0
3	16	57	49	723	183.0	-200825.0	6418.0	10833.0
3	16	57	49	724	184.0	-200720.0	6664.0	12730.0
3	16	57	49	724	185.0	-200549.0	6769.0	14453.0
3	16	57	49	725	186.0	-200394.0	7120.0	17099.0
3	16	57	49	725	187.0	-200604.0	7328.0	19493.0
3	16	57	49	726	188.0	-200692.0	7276.0	19744.0
3	16	57	49	727	189.0	-200922.0	7467.0	19255.0
3	16	57	49	768	190.0	-201079.0	7573.0	18656.0
3	16	57	49	769	191.0	-200950.0	7702.0	19116.0
3	16	57	49	770	192.0	-200799.0	8098.0	18611.0
3	16	57	49	770	193.0	-200711.0	8220.0	17027.0
3	16	57	49	771	194.0	-200457.0	8273.0	17906.0
3	16	57	49	772	195.0	-200324.0	8454.0	19156.0
3	16	57	49	772	196.0	-200536.0	8517.0	17226.0
3	16	57	49	773	197.0	-200738.0	8729.0	16976.0
3	16	57	49	774	199.0	-200791.0	8992.0	16851.0
3	16	57	49	774	200.0	-200751.0	9142.0	15600.0
3	16	57	49	775	201.0	-200522.0	9309.0	15440.0
3	16	57	49	776	202.0	-200324.0	9519.0	15923.0
3	16	57	49	776	203.0	-200233.0	9688.0	17594.0
3	16	57	49	777	204.0	-200076.0	9791.0	21333.0
3	16	57	49	778	205.0	-199805.0	10020.0	21226.0
3	16	57	49	778	206.0	-199649.0	10339.0	21460.0
3	16	57	49	779	221.0	-200649.0	11406.0	16521.0
3	16	57	49	779	222.0	-200352.0	11581.0	15484.0
3	16	57	49	780	223.0	-200381.0	11522.0	14339.0
3	16	57	49	781	224.0	-200656.0	11579.0	14412.0
3	16	57	49	781	225.0	-200549.0	11714.0	15736.0
3	16	57	49	782	226.0	-200411.0	11763.0	17311.0
3	16	57	49	782	227.0	-200339.0	11939.0	17398.0
3	16	57	49	814	228.0	-200307.0	12031.0	16278.0
3	16	57	49	815	229.0	-200431.0	11928.0	14819.0
3	16	57	49	815	230.0	-200539.0	11871.0	13561.0
3	16	57	49	816	231.0	-200552.0	11769.0	11729.0
3	16	57	49	817	232.0	-200559.0	11989.0	10658.0
3	16	57	49	817	233.0	-200298.0	12078.0	10928.0
3	16	57	49	818	234.0	-200366.0	12151.0	12228.0
3	16	57	49	819	235.0	-200867.0	12339.0	14383.0
3	16	57	49	819	236.0	-200916.0	12440.0	16413.0
3	16	57	49	820	237.0	-200894.0	12423.0	17788.0
3	16	57	49	821	238.0	-200659.0	12180.0	17178.0
3	16	57	49	821	239.0	-200574.0	11997.0	16319.0
3	16	57	49	822	240.0	-200476.0	12279.0	15586.0
3	16	57	49	823	241.0	-200500.0	12449.0	13832.0
3	16	57	49	823	242.0	-200453.0	12431.0	13038.0
3	16	57	49	824	243.0	-200084.0	12436.0	14054.0
3	16	57	49	825	244.0	-200431.0	12464.0	14353.0
3	16	57	49	825	245.0	-200579.0	12434.0	12374.0
3	16	57	49	826	246.0	-200624.0	12526.0	13632.0
3	16	57	49	826	247.0	-200495.0	12655.0	15758.0
3	16	57	49	827	248.0	-200335.0	12661.0	16783.0
3	16	57	49	827	249.0	-200170.0	12412.0	16966.0
3	16	57	49	858	250.0	-200069.0	12421.0	15666.0
3	16	57	49	859	251.0	-200190.0	12570.0	14264.0
3	16	57	49	860	252.0	-200284.0	12535.0	12687.0
3	16	57	49	860	253.0	-200110.0	12609.0	11400.0
3	16	57	49	861	254.0	-200109.0	12663.0	11744.0
3	16	57	49	862	255.0	-200003.0	12764.0	12626.0
3	16	57	49	863	0.0	-199944.0	12749.0	13738.0
3	16	57	49	863	1.0	-199997.0	12559.0	14988.0
3	16	57	49	864	2.0	-200139.0	12426.0	14967.0
3	16	57	49	864	3.0	-200233.0	12771.0	13424.0
3	16	57	49	865	4.0	-200241.0	12829.0	12744.0
3	16	57	49	866	5.0	-200262.0	12865.0	12539.0
3	16	57	49	866	6.0	-200302.0	12981.0	12846.0
3	16	57	49	867	7.0	-200095.0	12848.0	14041.0
3	16	57	49	868	8.0	-198776.0	12820.0	14996.0
3	16	57	49	868	10.0	-202067.0	12654.0	16996.0
3	16	57	49	869	11.0	-201877.0	12877.0	17080.0
3	16	57	49	870	12.0	-200681.0	12919.0	17151.0
3	16	57	49	870	13.0	-200298.0	12892.0	16083.0
3	16	57	49	871	14.0	-200354.0	12716.0	13453.0
3	16	57	49	871	15.0	-200451.0	12804.0	11222.0
3	16	57	49	902	16.0	-200657.0	12766.0	11169.0
3	16	57	49	903	17.0	-200706.0	12662.0	10782.0
3	16	57	49	904	18.0	-200110.0	12736.0	10938.0
3	16	57	49	905	19.0	-199839.0	12691.0	10404.0
3	16	57	49	905	20.0	-200979.0	12880.0	11218.0
3	16	57	49	906	21.0	-201554.0	12832.0	11942.0
3	16	57	49	907	22.0	-201039.0	12724.0	13025.0
3	16	57	49	908	23.0	-200564.0	12683.0	12633.0
3	16	57	49	908	24.0	-200331.0	12464.0	12791.0
3	16	57	49	909	25.0	-200082.0	12479.0	13050.0
3	16	57	49	910	26.0	-199629.0	12646.0	11889.0
3	16	57	49	910	27.0	-200322.0	12609.0	10766.0
3	16	57	49	911	28.0	-200789.0	12444.0	10535.0
3	16	57	49	912	29.0	-200577.0	12418.0	10013.0
3	16	57	49	912	30.0	-200201.0	12447.0	11211.0
3	16	57	49	913	32.0	-200069.0	12216.0	12189.0
3	16	57	49	914	33.0	-200118.0	12156.0	12555.0
3	16	57	49	914	34.0	-200179.0	12282.0	12465.0
3	16	57	49	915	35.0	-200074.0	12274.0	12834.0
3	16	57	49	915	36.0	-199806.0	12120.0	12524.0
3	16	57	49	916	37.0	-199154.0	12247.0	12324.0
3	16	57	49	917	38.0	-200399.0	12333.0	13723.0
3	16	57	49	949	39.0	-200673.0	12121.0	14530.0
3	16	57	49	950	40.0	-200219.0	11982.0	15174.0
3	16	57	49	951	41.0	-199887.0	11644.0	17076.0
3	16	57	49	951	42.0	-199829.0	11729.0	18656.0
3	16	57	49	952	43.0	-199842.0	11901.0	17773.0
3	16	57	49	953	44.0	-199932.0	11856.0	16678.0
3	16	57	49	953	45.0	-199981.0	11635.0	16628.0
3	16	57	49	954	46.0	-199997.0	11355.0	16606.0
3	16	57	49	955	47.0	-200088.0	11443.0	17481.0
3	16	57	49	955	48.0	-200166.0	11210.0	16876.0
3	16	57	49	956	49.0	-200122.0	10980.0	15173.0
3	16	57	49	957	50.0	-199699.0	11131.0	14825.0
3	16	57	49	957	51.0	-200543.0	10328.0	14566.0
3	16	57	49	958	52.0	-200886.0	9674.0	13147.0
3	16	57	49	959	53.0	-200569.0	8790.0	11149.0
3	16	57	49	959	55.0	-200104.0	8477.0	10419.0
3	16	57	49	960	56.0	-200224.0	8780.0	9668.0
3	16	57	49	960	57.0	-200279.0	8439.0	9250.0
3	16	57	49	961	58.0	-200157.0	8032.0	10752.0
3	16	57	49	962	59.0	-200186.0	8169.0	12075.0
3	16	57	49	962	60.0	-200229.0	6983.0	13436.0
3	16	57	49	993	61.0	-200119.0	6996.0	14492.0
3	16	57	49	994	62.0	-200074.0	7076.0	13220.0
3	16	57	49	994	63.0	-199673.0	6782.0	11460.0
3	16	57	49	995	64.0	-200194.0	7166.0	9892.0
3	16	57	49	996	65.0	-200459.0	7536.0	8227.0
3	16	57	49	996	66.0	-200577.0	7193.0	8137.0
3	16	57	49	997	67.0	-200580.0	6498.0	9243.0
3	16	57	49	998	68.0	-200471.0	6188.0	10918.0
3	16	57	49	999	69.0	-200451.0	6671.0	12580.0
3	16	57	49	999	70.0	-200525.0	6751.0	13598.0
3	16	57	50	0	71.0	-200407.0	6422.0	13408.0
3	16	57	50	1	72.0	-200405.0	6243.0	12351.0
3	16	57	50	1	73.0	-200391.0	6154.0	11999.0
3	16	57	50	2	74.0	-200349.0	5584.0	13860.0
3	16	57	50	3	75.0	-200333.0	4955.0	15868.0
3	16	57	50	3	77.0	-200765.0	5178.0	17431.0
3	16	57	50	4	78.0	-200910.0	4590.0	18136.0
3	16	57	50	4	79.0	-200836.0	4904.0	18003.0
3	16	57	50	5	80.0	-200732.0	5153.0	17182.0
3	16	57	50	6	81.0	-200717.0	5411.0	16916.0
3	16	57	50	6	82.0	-200740.0	4402.0	16183.0
3	16	57	50	7	83.0	-200783.0	3192.0	14529.0
3	16	57	50	37	84.0	-200736.0	2638.0	13782.0
3	16	57	50	38	85.0	-200801.0	2745.0	12611.0
3	16	57	50	39	86.0	-200812.0	2929.0	11681.0
3	16	57	50	40	87.0	-200763.0	3248.0	10990.0
3	16	57	50	41	88.0	-200659.0	3961.0	11036.0
3	16	57	50	41	89.0	-200656.0	3764.0	11918.0
3	16	57	50	42	90.0	-200621.0	2498.0	13312.0
3	16	57	50	43	91.0	-200887.0	1698.0	15951.0
3	16	57	50	43	92.0	-200952.0	1183.0	16034.0
3	16	57	50	44	93.0	-200886.0	1154.0	14710.0
3	16	57	50	45	94.0	-200860.0	1079.0	13769.0
3	16	57	50	46	95.0	-200725.0	-1904.0	14709.0
3	16	57	50	46	96.0	-200743.0	-1492.0	14630.0
3	16	57	50	47	97.0	-200757.0	2948.0	13481.0
3	16	57	50	48	98.0	-200582.0	3306.0	12729.0
3	16	57	50	48	100.0	-200446.0	966.0	15870.0
3	16	57	50	49	101.0	-200301.0	98.0	14077.0
3	16	57	50	50	102.0	-200381.0	-902.0	13283.0
3	16	57	50	50	103.0	-200561.0	-1834.0	14338.0
3	16	57	50	51	104.0	-200642.0	-3089.0	13381.0
3	16	57	50	51	105.0	-200802.0	-3222.0	13193.0
3	16	57	50	82	106.0	-200801.0	-2384.0	12661.0
3	16	57	50	83	107.0	-200885.0	-2625.0	12280.0
3	16	57	50	84	108.0	-200966.0	-3573.0	12762.0
3	16	57	50	85	109.0	-201115.0	-4539.0	14208.0
3	16	57	50	85	110.0	-201210.0	-5514.0	14888.0
3	16	57	50	86	111.0	-201157.0	-6963.0	15118.0
3	16	57	50	87	112.0	-201097.0	-9078.0	14286.0
3	16	57	50	88	113.0	-201124.0	-11244.0	11738.0
3	16	57	50	88	114.0	-201094.0	-12712.0	10986.0
3	16	57	50	89	115.0	-201162.0	-13259.0	11663.0
3	16	57	50	90	116.0	-201286.0	-14121.0	12283.0
3	16	57	50	90	117.0	-201548.0	-15341.0	13144.0
3	16	57	50	91	118.0	-201433.0	-13427.0	13571.0
3	16	57	50	92	119.0	-201017.0	-10750.0	12538.0
3	16	57	50	92	120.0	-200312.0	-10730.0	11199.0
3	16	57	50	93	122.0	-200118.0	-8307.0	9113.0
3	16	57	50	94	123.0	-200053.0	-7925.0	9154.0
3	16	57	50	94	124.0	-200163.0	-7546.0	6733.0
3	16	57	50	95	125.0	-200363.0	-7048.0	5791.0
3	16	57	50	96	126.0	-200571.0	-6708.0	8340.0
3	16	57	50	96	127.0	-200799.0	-4710.0	11949.0
3	16	57	50	97	128.0	-200583.0	-2476.0	13047.0
3	16	57	50	128	129.0	-200501.0	-2324.0	14643.0
3	16	57	50	129	130.0	-200671.0	-2448.0	16434.0
3	16	57	50	130	131.0	-200577.0	-2606.0	16937.0
3	16	57	50	130	132.0	-200546.0	-3353.0	14736.0
3	16	57	50	131	133.0	-200568.0	-3901.0	13866.0
3	16	57	50	132	134.0	-200557.0	-3399.0	12846.0
3	16	57	50	133	135.0	-200272.0	-2535.0	11697.0
3	16	57	50	133	136.0	-200124.0	-2162.0	10829.0
3	16	57	50	134	137.0	-199909.0	-2301.0	11085.0
3	16	57	50	135	138.0	-199744.0	-5771.0	13261.0
3	16	57	50	135	139.0	-199599.0	-6239.0	15386.0
3	16	57	50	136	140.0	-199611.0	-5631.0	15968.0
3	16	57	50	137	141.0	-199339.0	-6867.0	16407.0
3	16	57	50	137	142.0	-199079.0	-11385.0	16132.0
3	16	57	50	138	143.0	-198851.0	-14769.0	14094.0
3	16	57	50	139	145.0	-199089.0	-15276.0	11363.0
3	16	57	50	139	146.0	-199077.0	-14910.0	11631.0
3	16	57	50	173	147.0	-199143.0	-17287.0	11145.0
3	16	57	50	174	148.0	-199276.0	-18441.0	10521.0
3	16	57	50	175	149.0	-199166.0	-19672.0	9821.0
3	16	57	50	175	150.0	-199237.0	-23972.0	9464.0
3	16	57	50	176	151.0	-199236.0	-29062.0	7776.0
3	16	57	50	177	152.0	-199005.0	-34471.0	5476.0
3	16	57	50	178	153.0	-199011.0	-39344.0	3467.0
3	16	57	50	178	154.0	-199004.0	-42826.0	3114.0
3	16	57	50	179	155.0	-199007.0	-45682.0	4133.0
3	16	57	50	179	156.0	-198970.0	-47601.0	4426.0
3	16	57	50	180	157.0	-198925.0	-48073.0	4761.0
3	16	57	50	181	158.0	-199054.0	-45779.0	4753.0
3	16	57	50	181	159.0	-198986.0	-38208.0	4091.0
3	16	57	50	218	160.0	-198849.0	-34337.0	4378.0
3	16	57	50	219	161.0	-198834.0	-35086.0	4030.0
3	16	57	50	220	162.0	-198822.0	-38626.0	2990.0
3	16	57	50	221	167.0	-198505.0	-34592.0	3056.0
3	16	57	50	221	168.0	-198593.0	-34352.0	2858.0
3	16	57	50	222	169.0	-198576.0	-33776.0	3800.0
3	16	57	50	223	170.0	-198482.0	-34498.0	4256.0
3	16	57	50	224	171.0	-198474.0	-35910.0	2994.0
3	16	57	50	224	172.0	-198493.0	-37659.0	947.0
3	16	57	50	225	173.0	-198512.0	-39537.0	-292.0
3	16	57	50	226	174.0	-198469.0	-39903.0	-1971.0
3	16	57	50	227	175.0	-198509.0	-39792.0	-2736.0
3	16	57	50	227	176.0	-198579.0	-39141.0	-1014.0
3	16	57	50	228	177.0	-198541.0	-37856.0	-1221.0
3	16	57	50	229	178.0	-198671.0	-36766.0	48.0
3	16	57	50	229	190.0	-199524.0	-10021.0	4698.0
3	16	57	50	230	191.0	-199758.0	-9382.0	5739.0
3	16	57	50	231	192.0	-199730.0	-8419.0	5636.0
3	16	57	50	231	193.0	-199835.0	-8009.0	6306.0
3	16	57	50	232	194.0	-199844.0	-7382.0	7839.0
3	16	57	50	232	195.0	-199806.0	-6119.0	6998.0
3	16	57	50	263	196.0	-199991.0	-5972.0	7281.0
3	16	57	50	263	197.0	-199986.0	-6438.0	10359.0
3	16	57	50	264	198.0	-200017.0	-6709.0	12553.0
3	16	57	50	265	199.0	-200331.0	-6439.0	14878.0
3	16	57	50	266	200.0	-200408.0	-5882.0	15319.0
3	16	57	50	266	201.0	-200504.0	-6076.0	12765.0
3	16	57	50	267	202.0	-200732.0	-6366.0	11849.0
3	16	57	50	268	203.0	-200716.0	-5832.0	13203.0
3	16	57	50	269	204.0	-200641.0	-5731.0	13204.0
3	16	57	50	269	205.0	-200852.0	-5720.0	12684.0
3	16	57	50	270	206.0	-201058.0	-5872.0	12227.0
3	16	57	50	271	207.0	-201179.0	-6196.0	12772.0
3	16	57	50	271	208.0	-201339.0	-5556.0	14588.0
3	16	57	50	272	209.0	-201307.0	-5851.0	16731.0
3	16	57	50	273	210.0	-201227.0	-6689.0	16850.0
3	16	57	50	273	212.0	-201236.0	-5767.0	18763.0
3	16	57	50	274	213.0	-201058.0	-6674.0	19076.0
3	16	57	50	275	214.0	-200993.0	-7030.0	21062.0
3	16	57	50	275	215.0	-201102.0	-7033.0	23635.0
3	16	57	50	276	216.0	-200961.0	-7112.0	25444.0
3	16	57	50	308	217.0	-200809.0	-6936.0	27590.0
3	16	57	50	309	218.0	-200893.0	-7327.0	30067.0
3	16	57	50	310	219.0	-200809.0	-7092.0	30301.0
3	16	57	50	310	220.0	-200744.0	-7567.0	29792.0
3	16	57	50	311	221.0	-200788.0	-8051.0	30536.0
3	16	57	50	312	222.0	-200801.0	-7952.0	30952.0
3	16	57	50	312	223.0	-200624.0	-7134.0	31594.0
3	16	57	50	313	224.0	-200483.0	-8077.0	32943.0
3	16	57	50	314	225.0	-200407.0	-7556.0	33600.0
3	16	57	50	314	226.0	-200299.0	-7321.0	35918.0
3	16	57	50	315	227.0	-200157.0	-7456.0	38852.0
3	16	57	50	316	228.0	-200081.0	-7286.0	40676.0
3	16	57	50	317	229.0	-199831.0	-7569.0	43532.0
3	16	57	50	317	230.0	-199098.0	-9734.0	47932.0
3	16	57	50	318	231.0	-198492.0	-14167.0	54047.0
3	16	57	50	319	232.0	-198403.0	-16289.0	62392.0
3	16	57	50	319	235.0	-199554.0	-27152.0	77403.0
3	16	57	50	320	236.0	-199306.0	-22286.0	81498.0
3	16	57	50	321	237.0	-199842.0	-15736.0	87141.0
3	16	57	50	321	238.0	-200274.0	-12151.0	94438.0
3	16	57	50	322	239.0	-200546.0	-11034.0	101664.0
3	16	57	50	323	240.0	-200679.0	-8362.0	107853.0
3	16	57	50	353	241.0	-200587.0	-8482.0	114185.0
3	16	57	50	354	242.0	-200534.0	-9849.0	119631.0
3	16	57	50	355	243.0	-201032.0	-10470.0	126722.0
3	16	57	50	356	244.0	-201278.0	-10186.0	135994.0
3	16	57	50	356	245.0	-200922.0	-10062.0	143523.0
3	16	57	50	357	246.0	-200972.0	-9843.0	150524.0
3	16	57	50	358	247.0	-200959.0	-10375.0	156593.0
3	16	57	50	359	248.0	-200856.0	-9296.0	161504.0
3	16	57	50	359	249.0	-200824.0	-10254.0	166456.0
3	16	57	50	360	250.0	-200728.0	-12397.0	172873.0
3	16	57	50	361	251.0	-200618.0	-14416.0	178621.0
3	16	57	50	362	252.0	-200660.0	-15389.0	183341.0
3	16	57	50	362	253.0	-200579.0	-16129.0	187534.0
3	16	57	50	363	254.0	-200629.0	-15432.0	189795.0
3	16	57	50	364	255.0	-200637.0	-14631.0	190566.0
3	16	57	50	364	1.0	-200779.0	-18402.0	184968.0
3	16	57	50	365	2.0	-200711.0	-20218.0	176891.0
3	16	57	50	365	3.0	-200706.0	-19486.0	169833.0
3	16	57	50	366	4.0	-200592.0	-24135.0	165858.0
3	16	57	50	367	5.0	-200597.0	-31091.0	166013.0
3	16	57	50	367	6.0	-200716.0	-37147.0	168849.0
3	16	57	50	399	7.0	-200850.0	-42880.0	167699.0
3	16	57	50	399	8.0	-200857.0	-49982.0	161649.0
3	16	57	50	400	9.0	-201024.0	-56573.0	155981.0
3	16	57	50	401	10.0	-201101.0	-62026.0	146183.0
3	16	57	50	402	11.0	-201125.0	-67408.0	131552.0
3	16	57	50	444	12.0	-201134.0	-72613.0	112764.0
3	16	57	50	445	13.0	-201290.0	-77199.0	96888.0
3	16	57	50	446	14.0	-201179.0	-81837.0	90951.0
3	16	57	50	447	15.0	-201072.0	-87719.0	99155.0
3	16	57	50	447	16.0	-200949.0	-93082.0	110454.0
3	16	57	50	448	17.0	-200956.0	-96447.0	115597.0
3	16	57	50	449	18.0	-200954.0	-99681.0	110194.0
3	16	57	50	450	19.0	-201029.0	-101892.0	99419.0
3	16	57	50	450	20.0	-201284.0	-104122.0	81906.0
3	16	57	50	451	21.0	-201539.0	-102656.0	58369.0
3	16	57	50	452	23.0	-200321.0	-95560.0	6700.0
3	16	57	50	452	24.0	-200172.0	-97226.0	9291.0
3	16	57	50	453	25.0	-199909.0	-100693.0	34878.0
3	16	57	50	454	26.0	-199722.0	-101069.0	61694.0
3	16	57	50	454	27.0	-199686.0	-96874.0	75310.0
3	16	57	50	455	28.0	-199759.0	-95494.0	73759.0
3	16	57	50	456	46.0	-199952.0	-187547.0	36963.0
3	16	57	50	456	47.0	-199757.0	-192316.0	60051.0
3	16	57	50	457	48.0	-199674.0	-196610.0	61057.0
3	16	57	50	457	49.0	-199713.0	-199114.0	46646.0
3	16	57	50	458	50.0	-199789.0	-203216.0	17182.0
3	16	57	50	459	51.0	-199900.0	-207851.0	-26042.0
3	16	57	50	489	52.0	-200041.0	-212747.0	-81342.0
3	16	57	50	490	53.0	-199964.0	-217456.0	-102984.0
3	16	57	50	490	54.0	-199904.0	-222415.0	-72027.0
3	16	57	50	533	55.0	-199978.0	-227426.0	-7765.0
3	16	57	50	534	56.0	-200101.0	-232126.0	44499.0
3	16	57	50	535	57.0	-199779.0	-236950.0	68663.0
3	16	57	50	536	58.0	-199625.0	-241820.0	66054.0
3	16	57	50	537	59.0	-199782.0	-246452.0	46278.0
3	16	57	50	538	60.0	-200051.0	-251124.0	12141.0
3	16	57	50	539	61.0	-200198.0	-255936.0	-37097.0
3	16	57	50	539	62.0	-200305.0	-260759.0	-97178.0
3	16	57	50	540	63.0	-200472.0	-265197.0	-114506.0
3	16	57	50	541	64.0	-200363.0	-269163.0	-72854.0
3	16	57	50	541	65.0	-200327.0	-273571.0	1711.0
3	16	57	50	542	66.0	-200389.0	-277984.0	58767.0
3	16	57	50	543	68.0	-200333.0	-285567.0	80593.0
3	16	57	50	543	69.0	-200317.0	-289101.0	56891.0
3	16	57	50	544	70.0	-200399.0	-292277.0	19041.0
3	16	57	50	545	91.0	-200306.0	-300799.0	-59671.0
3	16	57	50	545	92.0	-200172.0	-269353.0	-126667.0
3	16	57	50	546	93.0	-200070.0	-248816.0	-132298.0
3	16	57	50	546	94.0	-200009.0	-236292.0	-66289.0
3	16	57	50	547	95.0	-200012.0	-219879.0	18990.0
3	16	57	50	548	96.0	-200040.0	-208374.0	74343.0
3	16	57	50	578	97.0	-200241.0	-202029.0	91852.0
3	16	57	50	578	98.0	-200258.0	-200430.0	82916.0
3	16	57	50	579	99.0	-200056.0	-196568.0	47749.0
3	16	57	50	580	100.0	-200156.0	-194619.0	-972.0
3	16	57	50	581	101.0	-200231.0	-199255.0	-76142.0
3	16	57	50	582	102.0	-200177.0	-206182.0	-142860.0
3	16	57	50	582	103.0	-200050.0	-212878.0	-143728.0
3	16	57	50	583	104.0	-200213.0	-218808.0	-70423.0
3	16	57	50	584	105.0	-200138.0	-224493.0	16879.0
3	16	57	50	584	106.0	-200158.0	-230344.0	73068.0
3	16	57	50	585	107.0	-200226.0	-236400.0	89208.0
3	16	57	50	586	108.0	-200372.0	-242787.0	78774.0
3	16	57	50	586	109.0	-200312.0	-248849.0	41966.0
3	16	57	50	587	110.0	-200301.0	-254809.0	-9437.0
3	16	57	50	588	111.0	-200464.0	-260613.0	-88542.0
3	16	57	50	589	113.0	-200276.0	-271197.0	-145815.0
3	16	57	50	589	114.0	-200346.0	-275545.0	-67035.0
3	16	57	50	590	115.0	-200452.0	-279854.0	21155.0
3	16	57	50	591	116.0	-200258.0	-284420.0	75461.0
3	16	57	50	591	117.0	-200309.0	-288431.0	88236.0
3	16	57	50	592	118.0	-200491.0	-293059.0	74566.0
3	16	57	50	592	119.0	-200273.0	-297737.0	35811.0
3	16	57	50	624	120.0	-200181.0	-303952.0	-16209.0
3	16	57	50	625	121.0	-200295.0	-310921.0	-98769.0
3	16	57	50	626	122.0	-200404.0	-315735.0	-158886.0
3	16	57	50	627	123.0	-200250.0	-319045.0	-143044.0
3	16	57	50	628	124.0	-200357.0	-322112.0	-57117.0
3	16	57	50	628	125.0	-200621.0	-325514.0	29474.0
3	16	57	50	629	126.0	-200522.0	-329482.0	78559.0
3	16	57	50	630	127.0	-200317.0	-333346.0	88316.0
3	16	57	50	630	128.0	-200338.0	-335791.0	71436.0
3	16	57	50	631	129.0	-199961.0	-338698.0	28311.0
3	16	57	50	632	130.0	-200446.0	-340829.0	-28644.0
3	16	57	50	633	131.0	-200684.0	-343745.0	-114837.0
3	16	57	50	633	132.0	-200709.0	-345442.0	-169346.0
3	16	57	50	634	133.0	-200469.0	-345997.0	-145999.0
3	16	57	50	634	134.0	-200314.0	-346926.0	-53173.0
3	16	57	50	635	136.0	-200349.0	-353460.0	82348.0
3	16	57	50	636	137.0	-200067.0	-355150.0	88548.0
3	16	57	50	636	138.0	-200298.0	-357397.0	70583.0
3	16	57	50	637	139.0	-200536.0	-362111.0	27933.0
3	16	57	50	638	140.0	-200426.0	-365349.0	-31116.0
3	16	57	50	638	141.0	-200251.0	-365466.0	-119469.0
3	16	57	50	669	142.0	-200269.0	-364699.0	-169822.0
3	16	57	50	669	143.0	-200237.0	-364648.0	-141515.0
3	16	57	50	670	144.0	-200155.0	-359372.0	-47851.0
3	16	57	50	671	145.0	-200130.0	-358727.0	36371.0
3	16	57	50	672	146.0	-200051.0	-361591.0	80827.0
3	16	57	50	672	147.0	-200079.0	-364458.0	83258.0
3	16	57	50	673	148.0	-199839.0	-366970.0	60869.0
3	16	57	50	674	149.0	-199717.0	-369624.0	15755.0
3	16	57	50	675	150.0	-199729.0	-370596.0	-48119.0
3	16	57	50	675	151.0	-199760.0	-372144.0	-138509.0
3	16	57	50	676	152.0	-199682.0	-374354.0	-182427.0
3	16	57	50	677	153.0	-199476.0	-375211.0	-143462.0
3	16	57	50	678	154.0	-199528.0	-377708.0	-44999.0
3	16	57	50	678	155.0	-199637.0	-380592.0	39064.0
3	16	57	50	679	156.0	-199682.0	-382183.0	81266.0
3	16	57	50	680	158.0	-199953.0	-380157.0	58180.0
3	16	57	50	681	159.0	-199867.0	-382330.0	13203.0
3	16	57	50	682	160.0	-199844.0	-379794.0	-52122.0
3	16	57	50	682	161.0	-199875.0	-378866.0	-143017.0
3	16	57	50	683	162.0	-199941.0	-380152.0	-181806.0
3	16	57	50	683	163.0	-199835.0	-381002.0	-134828.0
3	16	57	50	714	164.0	-199724.0	-381439.0	-33912.0
3	16	57	50	715	165.0	-199926.0	-382455.0	48069.0
3	16	57	50	715	166.0	-199807.0	-383371.0	86314.0
3	16	57	50	716	167.0	-199750.0	-381862.0	85328.0
3	16	57	50	717	168.0	-199815.0	-374561.0	58822.0
3	16	57	50	758	169.0	-199767.0	-364386.0	12344.0
3	16	57	50	770	170.0	-199696.0	-361197.0	-55417.0
3	16	57	50	771	171.0	-199661.0	-361721.0	-143921.0
3	16	57	50	772	172.0	-199763.0	-361429.0	-176015.0
3	16	57	50	773	173.0	-199732.0	-360808.0	-123039.0
3	16	57	50	773	174.0	-199851.0	-360367.0	-20877.0
3	16	57	50	774	175.0	-199953.0	-360344.0	57281.0
3	16	57	50	775	176.0	-200075.0	-360204.0	91479.0
3	16	57	50	775	177.0	-199960.0	-358287.0	89230.0
3	16	57	50	776	178.0	-199922.0	-352391.0	60356.0
3	16	57	50	776	180.0	-199494.0	-326996.0	-64519.0
3	16	57	50	777	181.0	-200053.0	-311339.0	-153547.0
3	16	57	50	777	182.0	-200008.0	-294762.0	-178167.0
3	16	57	50	778	183.0	-200036.0	-277238.0	-116132.0
3	16	57	50	779	184.0	-200101.0	-259911.0	-13039.0
3	16	57	50	779	185.0	-200246.0	-239506.0	63574.0
3	16	57	50	780	203.0	-200521.0	-32341.0	-96402.0
3	16	57	50	780	204.0	-200490.0	-30934.0	5057.0
3	16	57	50	781	205.0	-200462.0	-28561.0	75721.0
3	16	57	50	782	206.0	-200403.0	-23801.0	99894.0
3	16	57	50	782	207.0	-200344.0	-20743.0	91696.0
3	16	57	50	783	208.0	-200281.0	-21160.0	55263.0
3	16	57	50	783	209.0	-200208.0	-21491.0	1584.0
3	16	57	50	803	210.0	-200189.0	-22288.0	-82277.0
3	16	57	50	804	211.0	-200276.0	-24271.0	-160554.0
3	16	57	50	804	212.0	-200267.0	-25202.0	-164520.0
3	16	57	50	805	213.0	-200261.0	-24268.0	-82776.0
3	16	57	50	806	214.0	-200314.0	-23306.0	18849.0
3	16	57	50	807	215.0	-200340.0	-23108.0	85058.0
3	16	57	50	807	216.0	-200293.0	-22530.0	103964.0
3	16	57	50	808	217.0	-200285.0	-22826.0	93453.0
3	16	57	50	809	218.0	-200260.0	-22691.0	55871.0
3	16	57	50	810	219.0	-200316.0	-22174.0	904.0
3	16	57	50	811	220.0	-200186.0	-22204.0	-87923.0
3	16	57	50	811	221.0	-200191.0	-22272.0	-163497.0
3	16	57	50	812	222.0	-200289.0	-22246.0	-162162.0
3	16	57	50	813	223.0	-200236.0	-23348.0	-75984.0
3	16	57	50	814	224.0	-200082.0	-24860.0	25380.0
3	16	57	50	814	225.0	-200161.0	-25207.0	87934.0
3	16	57	50	815	226.0	-200108.0	-25498.0	105461.0
3	16	57	50	816	227.0	-200036.0	-25723.0	93053.0
3	16	57	50	816	228.0	-199896.0	-25462.0	50123.0
3	16	57	50	817	229.0	-200035.0	-24139.0	-9699.0
3	16	57	50	818	230.0	-200129.0	-23329.0	-101279.0
3	16	57	50	818	231.0	-200008.0	-23266.0	-171881.0
3	16	57	50	849	232.0	-199801.0	-22592.0	-160596.0
3	16	57	50	850	233.0	-199774.0	-22334.0	-66270.0
3	16	57	50	850	234.0	-199812.0	-22830.0	32331.0
3	16	57	50	851	235.0	-199652.0	-23006.0	90459.0
3	16	57	50	852	236.0	-199491.0	-23477.0	103701.0
3	16	57	50	852	237.0	-199509.0	-23724.0	90247.0
3	16	57	50	853	238.0	-199475.0	-24267.0	47411.0
3	16	57	50	854	239.0	-199601.0	-24587.0	-11089.0
3	16	57	50	855	240.0	-199625.0	-24317.0	-103121.0
3	16	57	50	855	241.0	-199614.0	-23597.0	-167785.0
3	16	57	50	856	242.0	-199515.0	-23086.0	-149469.0
3	16	57	50	857	243.0	-199444.0	-23386.0	-53062.0
3	16	57	50	857	244.0	-199532.0	-26957.0	41689.0
3	16	57	50	858	245.0	-199412.0	-27007.0	95737.0
3	16	57	50	859	246.0	-199502.0	-22754.0	105614.0
3	16	57	50	859	248.0	-199672.0	-25455.0	40482.0
3	16	57	50	860	249.0	-199785.0	-24572.0	-21442.0
3	16	57	50	861	250.0	-199777.0	-23787.0	-117338.0
3	16	57	50	861	251.0	-199808.0	-23340.0	-177054.0
3	16	57	50	862	252.0	-199864.0	-22685.0	-151042.0
3	16	57	50	862	253.0	-199942.0	-21995.0	-50758.0
3	16	57	50	893	254.0	-199855.0	-21396.0	42510.0
3	16	57	50	894	255.0	-199855.0	-21554.0	94439.0
3	16	57	50	895	0.0	-199980.0	-22114.0	102398.0
3	16	57	50	896	1.0	-200061.0	-23214.0	82314.0
3	16	57	50	897	2.0	-200044.0	-24483.0	37294.0
3	16	57	50	897	3.0	-200166.0	-25491.0	-24889.0
3	16	57	50	898	4.0	-200272.0	-26266.0	-118484.0
3	16	57	50	899	5.0	-200356.0	-26487.0	-170456.0
3	16	57	50	900	6.0	-200255.0	-25831.0	-136706.0
3	16	57	50	900	7.0	-200215.0	-25358.0	-35750.0
3	16	57	50	901	8.0	-200123.0	-25537.0	52831.0
3	16	57	50	902	9.0	-200049.0	-25561.0	98111.0
3	16	57	50	902	10.0	-200179.0	-25761.0	103081.0
3	16	57	50	903	11.0	-200221.0	-25276.0	80493.0
3	16	57	50	904	12.0	-200146.0	-24449.0	33847.0
3	16	57	50	904	14.0	-200236.0	-23930.0	-123488.0
3	16	57	50	905	15.0	-200201.0	-24002.0	-168279.0
3	16	57	50	906	16.0	-200251.0	-23187.0	-126742.0
3	16	57	50	907	17.0	-200202.0	-22637.0	-23163.0
3	16	57	50	907	18.0	-200182.0	-22918.0	64993.0
3	16	57	50	908	19.0	-200241.0	-22360.0	108488.0
3	16	57	50	909	20.0	-200332.0	-21837.0	109156.0
3	16	57	50	937	21.0	-200351.0	-21514.0	83743.0
3	16	57	50	938	22.0	-200224.0	-21198.0	34869.0
3	16	57	50	939	23.0	-200235.0	-20571.0	-34459.0
3	16	57	50	939	24.0	-200287.0	-19976.0	-129984.0
3	16	57	50	940	25.0	-200195.0	-19093.0	-169907.0
3	16	57	50	941	26.0	-200156.0	-18264.0	-121290.0
3	16	57	50	941	27.0	-200226.0	-17917.0	-15525.0
3	16	57	50	942	28.0	-200346.0	-18462.0	67725.0
3	16	57	50	943	29.0	-200287.0	-19249.0	106863.0
3	16	57	50	943	30.0	-200226.0	-19806.0	107377.0
3	16	57	50	944	31.0	-200249.0	-18962.0	79543.0
3	16	57	50	983	32.0	-200127.0	-17979.0	29423.0
3	16	57	50	984	33.0	-200022.0	-17642.0	-42279.0
3	16	57	50	985	34.0	-199976.0	-17301.0	-134102.0
3	16	57	50	985	35.0	-200061.0	-17465.0	-166149.0
3	16	57	50	986	37.0	-200211.0	-16622.0	-4150.0
3	16	57	50	988	38.0	-200163.0	-16212.0	78191.0
3	16	57	50	989	39.0	-200162.0	-16191.0	114546.0
3	16	57	50	990	40.0	-200247.0	-16596.0	114204.0
3	16	57	50	990	41.0	-200269.0	-17767.0	84766.0
3	16	57	50	991	42.0	-200246.0	-17152.0	31973.0
3	16	57	50	991	43.0	-200359.0	-15921.0	-45825.0
3	16	57	50	992	44.0	-200561.0	-14867.0	-136755.0
3	16	57	50	992	45.0	-200549.0	-14532.0	-162049.0
3	16	57	50	993	46.0	-200597.0	-14659.0	-97127.0
3	16	57	50	994	47.0	-200731.0	-14257.0	9661.0
3	16	57	50	994	59.0	-200593.0	-15679.0	119634.0
3	16	57	50	995	60.0	-200612.0	-15427.0	112514.0
3	16	57	50	995	61.0	-200762.0	-15407.0	76152.0
3	16	57	50	996	62.0	-200871.0	-17713.0	20997.0
3	16	57	50	997	63.0	-200869.0	-18959.0	-62757.0
3	16	57	50	997	64.0	-200842.0	-16791.0	-148191.0
3	16	57	50	998	65.0	-200817.0	-15835.0	-159342.0
3	16	57	51	29	66.0	-200761.0	-15134.0	-81889.0
3	16	57	51	29	67.0	-200790.0	-15346.0	22714.0
3	16	57	51	30	68.0	-200754.0	-16437.0	92469.0
3	16	57	51	30	69.0	-200779.0	-15772.0	115600.0
3	16	57	51	31	70.0	-200859.0	-15126.0	106807.0
3	16	57	51	32	71.0	-200862.0	-15609.0	67741.0
3	16	57	51	32	72.0	-200824.0	-16312.0	11563.0
3	16	57	51	33	73.0	-200771.0	-19764.0	-75564.0
3	16	57	51	34	74.0	-200797.0	-23492.0	-155819.0
3	16	57	51	34	75.0	-200739.0	-22038.0	-161404.0
3	16	57	51	35	76.0	-200721.0	-20886.0	-79919.0
3	16	57	51	35	77.0	-200784.0	-21994.0	22882.0
3	16	57	51	36	78.0	-200747.0	-22878.0	89296.0
3	16	57	51	36	79.0	-200571.0	-22965.0	108995.0
3	16	57	51	37	80.0	-200628.0	-22746.0	97719.0
3	16	57	51	38	82.0	-200678.0	-23123.0	1319.0
3	16	57	51	38	83.0	-200662.0	-23717.0	-86686.0
3	16	57	51	39	84.0	-200724.0	-24039.0	-160821.0
3	16	57	51	39	85.0	-200734.0	-23390.0	-155783.0
3	16	57	51	40	86.0	-200715.0	-23898.0	-66861.0
3	16	57	51	40	87.0	-200647.0	-24506.0	35789.0
3	16	57	51	73	88.0	-200642.0	-25092.0	99456.0
3	16	57	51	74	89.0	-200759.0	-25401.0	115758.0
3	16	57	51	75	90.0	-200801.0	-25344.0	102049.0
3	16	57	51	75	91.0	-200706.0	-26039.0	60506.0
3	16	57	51	76	92.0	-200785.0	-25464.0	3328.0
3	16	57	51	76	93.0	-200853.0	-23180.0	-88613.0
3	16	57	51	77	94.0	-200699.0	-24113.0	-158984.0
3	16	57	51	78	95.0	-200659.0	-26097.0	-147329.0
3	16	57	51	78	96.0	-200727.0	-24997.0	-52918.0
3	16	57	51	79	97.0	-200703.0	-23772.0	45709.0
3	16	57	51	79	98.0	-200671.0	-23091.0	103888.0
3	16	57	51	80	99.0	-200672.0	-22889.0	115081.0
3	16	57	51	81	100.0	-200847.0	-23285.0	99450.0
3	16	57	51	81	101.0	-200744.0	-23734.0	56879.0
3	16	57	51	82	102.0	-200792.0	-24626.0	-1631.0
3	16	57	51	82	104.0	-200871.0	-25121.0	-158934.0
3	16	57	51	83	105.0	-200787.0	-24859.0	-139756.0
3	16	57	51	84	106.0	-200714.0	-24051.0	-40561.0
3	16	57	51	84	107.0	-200710.0	-21642.0	56257.0
3	16	57	51	85	108.0	-200826.0	-20294.0	110290.0
3	16	57	51	85	109.0	-200765.0	-22329.0	116670.0
3	16	57	51	117	110.0	-200617.0	-23376.0	97591.0
3	16	57	51	118	111.0	-200594.0	-24291.0	51058.0
3	16	57	51	119	112.0	-200695.0	-25224.0	-12090.0
3	16	57	51	119	113.0	-200666.0	-25591.0	-108273.0
3	16	57	51	120	114.0	-200646.0	-25822.0	-167798.0
3	16	57	51	120	115.0	-200562.0	-25254.0	-141373.0
3	16	57	51	121	116.0	-200623.0	-24037.0	-39291.0
3	16	57	51	122	117.0	-200578.0	-23704.0	56036.0
3	16	57	51	122	118.0	-200438.0	-23724.0	106219.0
3	16	57	51	135	119.0	-200448.0	-23729.0	109118.0
3	16	57	51	136	120.0	-200422.0	-24168.0	86154.0
3	16	57	51	137	121.0	-200434.0	-24709.0	37853.0
3	16	57	51	138	122.0	-200504.0	-24939.0	-28696.0
3	16	57	51	139	123.0	-200587.0	-24905.0	-122980.0
3	16	57	51	139	124.0	-200577.0	-24554.0	-172352.0
3	16	57	51	140	127.0	-200534.0	-23866.0	57871.0
3	16	57	51	140	128.0	-200511.0	-23262.0	106496.0
3	16	57	51	141	129.0	-200547.0	-23041.0	111352.0
3	16	57	51	142	130.0	-200456.0	-23974.0	88488.0
3	16	57	51	142	131.0	-200521.0	-24794.0	39079.0
3	16	57	51	143	132.0	-200688.0	-24773.0	-28724.0
3	16	57	51	163	133.0	-200582.0	-25008.0	-124024.0
3	16	57	51	164	134.0	-200605.0	-24957.0	-171416.0
3	16	57	51	165	135.0	-200631.0	-24783.0	-130467.0
3	16	57	51	165	136.0	-200569.0	-24480.0	-25633.0
3	16	57	51	166	137.0	-200577.0	-24145.0	61176.0
3	16	57	51	167	138.0	-200403.0	-24347.0	102131.0
3	16	57	51	167	139.0	-200456.0	-24621.0	104889.0
3	16	57	51	168	140.0	-200459.0	-24709.0	82184.0
3	16	57	51	168	141.0	-200221.0	-22611.0	33003.0
3	16	57	51	169	142.0	-200150.0	-22932.0	-38082.0
3	16	57	51	170	143.0	-200198.0	-23847.0	-131347.0
3	16	57	51	208	144.0	-200073.0	-24006.0	-168970.0
3	16	57	51	209	145.0	-200111.0	-23876.0	-117802.0
3	16	57	51	210	146.0	-200026.0	-23732.0	-11452.0
3	16	57	51	210	147.0	-200024.0	-23934.0	71616.0
3	16	57	51	211	149.0	-199786.0	-25841.0	110179.0
3	16	57	51	212	150.0	-199857.0	-26873.0	81799.0
3	16	57	51	212	151.0	-199900.0	-27161.0	31021.0
3	16	57	51	213	152.0	-200001.0	-26644.0	-43036.0
3	16	57	51	214	153.0	-200099.0	-25662.0	-137581.0
3	16	57	51	214	154.0	-199962.0	-23369.0	-171051.0
3	16	57	51	215	155.0	-199999.0	-21416.0	-114820.0
3	16	57	51	215	156.0	-200106.0	-21186.0	-8112.0
3	16	57	51	216	157.0	-200104.0	-19919.0	69839.0
3	16	57	51	217	158.0	-200142.0	-18847.0	100715.0
3	16	57	51	217	159.0	-200102.0	-20934.0	96824.0
3	16	57	51	218	160.0	-200099.0	-22449.0	66393.0
3	16	57	51	219	172.0	-200089.0	-23377.0	-72275.0
3	16	57	51	219	173.0	-200044.0	-23457.0	-159499.0
3	16	57	51	220	174.0	-200086.0	-23477.0	-175768.0
3	16	57	51	220	175.0	-200142.0	-24452.0	-104235.0
3	16	57	51	221	176.0	-200143.0	-23593.0	2138.0
3	16	57	51	221	177.0	-200241.0	-22626.0	75567.0
3	16	57	51	253	178.0	-200267.0	-23115.0	101199.0
3	16	57	51	254	179.0	-200291.0	-24113.0	92817.0
3	16	57	51	255	180.0	-200279.0	-24809.0	56384.0
3	16	57	51	255	181.0	-200276.0	-24929.0	4340.0
3	16	57	51	256	182.0	-200310.0	-25544.0	-77308.0
3	16	57	51	257	183.0	-200437.0	-25179.0	-158756.0
3	16	57	51	257	184.0	-200451.0	-21652.0	-168247.0
3	16	57	51	258	185.0	-200403.0	-19549.0	-90707.0
3	16	57	51	259	186.0	-200462.0	-20721.0	13205.0
3	16	57	51	259	187.0	-200376.0	-21597.0	81901.0
3	16	57	51	260	188.0	-200281.0	-21736.0	102714.0
3	16	57	51	261	189.0	-200365.0	-21871.0	93771.0
3	16	57	51	261	190.0	-200429.0	-21822.0	56529.0
3	16	57	51	262	191.0	-200428.0	-21635.0	1788.0
3	16	57	51	262	192.0	-200383.0	-21963.0	-84454.0
3	16	57	51	263	194.0	-200317.0	-22455.0	-160968.0
3	16	57	51	264	195.0	-200327.0	-22277.0	-76617.0
3	16	57	51	264	196.0	-200353.0	-22371.0	26848.0
3	16	57	51	265	197.0	-200348.0	-22463.0	93140.0
3	16	57	51	265	198.0	-200371.0	-20908.0	112819.0
3	16	57	51	266	199.0	-200332.0	-19750.0	99676.0
3	16	57	51	298	200.0	-200349.0	-21418.0	57338.0
3	16	57	51	299	201.0	-200299.0	-22491.0	-511.0
3	16	57	51	300	202.0	-200187.0	-22702.0	-89016.0
3	16	57	51	300	203.0	-200204.0	-22258.0	-160452.0
3	16	57	51	301	204.0	-200246.0	-21151.0	-154000.0
3	16	57	51	302	205.0	-200314.0	-20013.0	-65888.0
3	16	57	51	302	206.0	-200384.0	-18811.0	33341.0
3	16	57	51	303	207.0	-200446.0	-18373.0	94701.0
3	16	57	51	303	208.0	-200404.0	-18394.0	109099.0
3	16	57	51	304	209.0	-200319.0	-18209.0	95713.0
3	16	57	51	305	210.0	-200324.0	-18550.0	53681.0
3	16	57	51	305	211.0	-200296.0	-18166.0	-3872.0
3	16	57	51	306	212.0	-200291.0	-18904.0	-93838.0
3	16	57	51	307	213.0	-200253.0	-20061.0	-162743.0
3	16	57	51	307	214.0	-200041.0	-20292.0	-151181.0
3	16	57	51	308	216.0	-200080.0	-20880.0	40093.0
3	16	57	51	309	217.0	-200040.0	-20934.0	97883.0
3	16	57	51	309	218.0	-199941.0	-21307.0	110031.0
3	16	57	51	310	219.0	-199963.0	-22883.0	93146.0
3	16	57	51	310	220.0	-199980.0	-22669.0	49170.0
3	16	57	51	311	221.0	-199968.0	-22221.0	-9760.0
3	16	57	51	311	222.0	-199889.0	-22084.0	-101533.0
3	16	57	51	343	223.0	-199866.0	-22140.0	-164218.0
3	16	57	51	344	224.0	-199895.0	-22309.0	-145432.0
3	16	57	51	345	225.0	-199828.0	-22769.0	-49981.0
3	16	57	51	346	226.0	-199698.0	-20767.0	43293.0
3	16	57	51	346	227.0	-199619.0	-18236.0	96599.0
3	16	57	51	347	228.0	-199806.0	-18594.0	105888.0
3	16	57	51	348	229.0	-199822.0	-17453.0	87417.0
3	16	57	51	348	230.0	-199767.0	-15653.0	42555.0
3	16	57	51	349	231.0	-199711.0	-15117.0	-18906.0
3	16	57	51	350	232.0	-199799.0	-15184.0	-113422.0
3	16	57	51	350	233.0	-199820.0	-14920.0	-169515.0
3	16	57	51	351	234.0	-199774.0	-14399.0	-140255.0
3	16	57	51	351	235.0	-199909.0	-14210.0	-41122.0
3	16	57	51	352	236.0	-199894.0	-14589.0	51078.0
3	16	57	51	353	237.0	-199813.0	-14800.0	101757.0
3	16	57	51	353	239.0	-199703.0	-14802.0	86623.0
3	16	57	51	354	240.0	-199772.0	-14677.0	39960.0
3	16	57	51	355	241.0	-199844.0	-14891.0	-22126.0
3	16	57	51	355	242.0	-199811.0	-15404.0	-115399.0
3	16	57	51	356	243.0	-199864.0	-15521.0	-166900.0
3	16	57	51	356	244.0	-199917.0	-15116.0	-131827.0
3	16	57	51	389	245.0	-199911.0	-16494.0	-31327.0
3	16	57	51	390	246.0	-199874.0	-15784.0	58024.0
3	16	57	51	390	247.0	-199796.0	-10471.0	104816.0
3	16	57	51	391	248.0	-199679.0	-10200.0	109269.0
3	16	57	51	392	249.0	-199664.0	-13842.0	86634.0
3	16	57	51	392	250.0	-199717.0	-17349.0	39691.0
3	16	57	51	393	251.0	-199773.0	-16511.0	-26657.0
3	16	57	51	394	252.0	-199888.0	-16411.0	-120478.0
3	16	57	51	394	253.0	-199870.0	-15728.0	-164018.0
3	16	57	51	395	254.0	-199737.0	-14985.0	-121167.0
3	16	57	51	396	255.0	-199778.0	-14701.0	-17242.0
3	16	57	51	396	0.0	-199857.0	-14507.0	68366.0
3	16	57	51	397	1.0	-199817.0	-14896.0	108312.0
3	16	57	51	398	2.0	-199672.0	-15284.0	109469.0
3	16	57	51	398	3.0	-199704.0	-15316.0	84238.0
3	16	57	51	399	5.0	-199597.0	-15607.0	-36931.0
3	16	57	51	399	6.0	-199507.0	-14494.0	-128532.0
3	16	57	51	400	7.0	-199609.0	-12779.0	-162886.0
3	16	57	51	400	8.0	-199561.0	-11724.0	-111037.0
3	16	57	51	434	9.0	-199414.0	-11771.0	-7016.0
3	16	57	51	435	10.0	-199452.0	-11961.0	76586.0
3	16	57	51	436	11.0	-199806.0	-12338.0	114958.0
3	16	57	51	436	12.0	-199889.0	-12274.0	114045.0
3	16	57	51	437	13.0	-199899.0	-12672.0	86613.0
3	16	57	51	438	14.0	-199941.0	-12894.0	36612.0
3	16	57	51	439	15.0	-200014.0	-12554.0	-36203.0
3	16	57	51	439	16.0	-199993.0	-12505.0	-127455.0
3	16	57	51	440	17.0	-200153.0	-12639.0	-156905.0
3	16	57	51	441	18.0	-200256.0	-12757.0	-98396.0
3	16	57	51	441	19.0	-200296.0	-12267.0	6451.0
3	16	57	51	442	20.0	-200307.0	-12677.0	86251.0
3	16	57	51	443	21.0	-200422.0	-12939.0	119296.0
3	16	57	51	444	22.0	-200389.0	-12787.0	113954.0
3	16	57	51	445	23.0	-200483.0	-12927.0	82258.0
3	16	57	51	445	24.0	-200598.0	-12942.0	31104.0
3	16	57	51	446	28.0	-200744.0	-12423.0	-91261.0
3	16	57	51	447	29.0	-200780.0	-11709.0	13698.0
3	16	57	51	447	30.0	-200792.0	-11074.0	90474.0
3	16	57	51	448	31.0	-200857.0	-12718.0	118327.0
3	16	57	51	448	32.0	-200856.0	-13573.0	111988.0
3	16	57	51	449	33.0	-200771.0	-13771.0	79765.0
3	16	57	51	479	34.0	-200764.0	-12727.0	28361.0
3	16	57	51	479	35.0	-200791.0	-13603.0	-51057.0
3	16	57	51	480	36.0	-200661.0	-15161.0	-136627.0
3	16	57	51	481	37.0	-200740.0	-13636.0	-152792.0
3	16	57	51	481	38.0	-200730.0	-12626.0	-80469.0
3	16	57	51	482	39.0	-200616.0	-12637.0	24319.0
3	16	57	51	483	40.0	-200540.0	-12696.0	95894.0
3	16	57	51	483	41.0	-200630.0	-13131.0	117945.0
3	16	57	51	484	42.0	-200553.0	-13244.0	108149.0
3	16	57	51	485	43.0	-200399.0	-12869.0	72176.0
3	16	57	51	485	44.0	-200492.0	-13241.0	19086.0
3	16	57	51	486	45.0	-200417.0	-13617.0	-63521.0
3	16	57	51	487	46.0	-200421.0	-13854.0	-147542.0
3	16	57	51	487	47.0	-200523.0	-13601.0	-158389.0
3	16	57	51	488	48.0	-200476.0	-13256.0	-79023.0
3	16	57	51	489	50.0	-200361.0	-13264.0	92129.0
3	16	57	51	489	51.0	-200453.0	-13609.0	112907.0
3	16	57	51	490	52.0	-200482.0	-14314.0	102984.0
3	16	57	51	490	53.0	-200464.0	-15391.0	63408.0
3	16	57	51	491	54.0	-200454.0	-15185.0	7590.0
3	16	57	51	491	55.0	-200525.0	-15272.0	-79472.0
3	16	57	51	492	56.0	-200419.0	-15079.0	-156842.0
3	16	57	51	530	57.0	-200343.0	-15197.0	-156148.0
3	16	57	51	531	58.0	-200383.0	-16102.0	-70312.0
3	16	57	51	531	59.0	-200327.0	-16511.0	32134.0
3	16	57	51	532	60.0	-200241.0	-15955.0	97034.0
3	16	57	51	533	61.0	-200272.0	-15618.0	115884.0
3	16	57	51	533	62.0	-200331.0	-15664.0	103771.0
3	16	57	51	534	63.0	-200284.0	-16334.0	64281.0
3	16	57	51	534	64.0	-200207.0	-18053.0	7632.0
3	16	57	51	535	65.0	-200248.0	-18536.0	-83344.0
3	16	57	51	536	66.0	-200233.0	-17354.0	-156066.0
3	16	57	51	536	67.0	-200076.0	-16859.0	-147887.0
3	16	57	51	537	68.0	-199957.0	-16064.0	-56940.0
3	16	57	51	537	69.0	-199924.0	-15826.0	42941.0
3	16	57	51	538	70.0	-199903.0	-15860.0	104204.0
3	16	57	51	538	71.0	-199886.0	-16034.0	119296.0
3	16	57	51	539	73.0	-199650.0	-16314.0	63879.0
3	16	57	51	540	74.0	-199566.0	-15911.0	4813.0
3	16	57	51	540	75.0	-199459.0	-15860.0	-87719.0
3	16	57	51	541	76.0	-199356.0	-16728.0	-154626.0
3	16	57	51	541	77.0	-199295.0	-16597.0	-140451.0
3	16	57	51	542	78.0	-199226.0	-15454.0	-46951.0
3	16	57	51	569	79.0	-199131.0	-14080.0	50069.0
3	16	57	51	569	80.0	-198961.0	-12989.0	106917.0
3	16	57	51	570	81.0	-198826.0	-12624.0	116144.0
3	16	57	51	571	82.0	-198836.0	-12206.0	98886.0
3	16	57	51	571	83.0	-198842.0	-11496.0	54051.0
3	16	57	51	572	84.0	-198817.0	-11479.0	-6426.0
3	16	57	51	573	85.0	-198735.0	-9338.0	-100724.0
3	16	57	51	573	86.0	-198672.0	-8402.0	-162317.0
3	16	57	51	574	87.0	-198636.0	-8846.0	-141039.0
3	16	57	51	575	88.0	-198665.0	-8482.0	-40818.0
3	16	57	51	575	89.0	-198589.0	-8638.0	56494.0
3	16	57	51	576	90.0	-198522.0	-8659.0	105699.0
3	16	57	51	576	91.0	-198589.0	-8067.0	110592.0
3	16	57	51	577	92.0	-198764.0	-9419.0	92360.0
3	16	57	51	578	93.0	-198896.0	-8670.0	47516.0
3	16	57	51	578	95.0	-199284.0	-8167.0	-110552.0
3	16	57	51	579	96.0	-199555.0	-7981.0	-165235.0
3	16	57	51	580	97.0	-199696.0	-8109.0	-135351.0
3	16	57	51	580	98.0	-199686.0	-8562.0	-33013.0
3	16	57	51	581	99.0	-199667.0	-8906.0	59006.0
3	16	57	51	581	100.0	-199716.0	-8907.0	105720.0
3	16	57	51	612	101.0	-199747.0	-8672.0	113126.0
3	16	57	51	612	102.0	-199691.0	-7421.0	93409.0
3	16	57	51	613	103.0	-199669.0	-7113.0	44989.0
3	16	57	51	614	104.0	-199747.0	-9831.0	-22970.0
3	16	57	51	615	105.0	-199803.0	-10076.0	-119039.0
3	16	57	51	615	106.0	-199884.0	-9406.0	-168418.0
3	16	57	51	616	107.0	-199823.0	-8832.0	-130334.0
3	16	57	51	617	108.0	-199789.0	-8853.0	-27259.0
3	16	57	51	618	109.0	-199743.0	-9227.0	60512.0
3	16	57	51	618	110.0	-199762.0	-9044.0	104030.0
3	16	57	51	619	111.0	-199731.0	-9837.0	108064.0
3	16	57	51	620	112.0	-199804.0	-10796.0	84144.0
3	16	57	51	621	113.0	-199964.0	-11314.0	36278.0
3	16	57	51	622	114.0	-199971.0	-12082.0	-31337.0
3	16	57	51	622	115.0	-199981.0	-12594.0	-126006.0
3	16	57	51	623	117.0	-200135.0	-11822.0	-124743.0
3	16	57	51	624	118.0	-200017.0	-11690.0	-20423.0
3	16	57	51	624	119.0	-199932.0	-11334.0	65741.0
3	16	57	51	625	120.0	-200014.0	-10499.0	106188.0
3	16	57	51	625	121.0	-200006.0	-9960.0	108125.0
3	16	57	51	626	122.0	-199824.0	-11201.0	83084.0
3	16	57	51	627	123.0	-199831.0	-13438.0	34685.0
3	16	57	51	657	124.0	-199988.0	-13707.0	-36210.0
3	16	57	51	658	125.0	-200081.0	-10289.0	-128976.0
3	16	57	51	659	126.0	-200109.0	-8824.0	-162409.0
3	16	57	51	660	127.0	-200136.0	-9644.0	-107819.0
3	16	57	51	661	128.0	-200076.0	-8875.0	-1111.0
3	16	57	51	661	129.0	-200031.0	-8318.0	81631.0
3	16	57	51	662	130.0	-200084.0	-7869.0	116821.0
3	16	57	51	663	131.0	-200106.0	-5538.0	115328.0
3	16	57	51	664	132.0	-200120.0	-7570.0	87218.0
3	16	57	51	664	133.0	-200117.0	-10813.0	36424.0
3	16	57	51	665	134.0	-200256.0	-14628.0	-37535.0
3	16	57	51	666	135.0	-200338.0	-17886.0	-129098.0
3	16	57	51	666	136.0	-200498.0	-14318.0	-159301.0
3	16	57	51	667	137.0	-200482.0	-11432.0	-99332.0
3	16	57	51	668	138.0	-200402.0	-10838.0	7208.0
3	16	57	51	668	140.0	-200254.0	-10241.0	120050.0
3	16	57	51	669	141.0	-200164.0	-10549.0	115034.0
3	16	57	51	669	142.0	-200242.0	-11246.0	83503.0
3	16	57	51	670	143.0	-200343.0	-11073.0	32410.0
3	16	57	51	671	144.0	-200372.0	-10893.0	-45812.0
3	16	57	51	671	145.0	-200311.0	-11792.0	-135442.0
3	16	57	51	702	146.0	-200281.0	-13492.0	-156666.0
3	16	57	51	703	147.0	-200209.0	-14414.0	-86852.0
3	16	57	51	704	148.0	-200177.0	-15874.0	21453.0
3	16	57	51	704	149.0	-200269.0	-17579.0	97051.0
3	16	57	51	705	150.0	-200337.0	-17062.0	125120.0
3	16	57	51	706	151.0	-200293.0	-14595.0	120604.0
3	16	57	51	707	152.0	-200286.0	-13138.0	88079.0
3	16	57	51	707	153.0	-200317.0	-13632.0	36553.0
3	16	57	51	708	154.0	-200400.0	-14409.0	-43242.0
3	16	57	51	709	155.0	-200513.0	-16371.0	-127253.0
3	16	57	51	709	156.0	-200476.0	-20785.0	-140575.0
3	16	57	51	710	157.0	-200548.0	-23799.0	-64337.0
3	16	57	51	710	158.0	-200571.0	-24731.0	39254.0
3	16	57	51	711	159.0	-200705.0	-26143.0	109009.0
3	16	57	51	712	160.0	-200772.0	-27972.0	130719.0
3	16	57	51	712	162.0	-200911.0	-29291.0	83382.0
3	16	57	51	713	163.0	-200938.0	-30176.0	29289.0
3	16	57	51	714	164.0	-200870.0	-29786.0	-54751.0
3	16	57	51	714	165.0	-200948.0	-27385.0	-136864.0
3	16	57	51	715	166.0	-200866.0	-24899.0	-142437.0
3	16	57	51	715	167.0	-200782.0	-23629.0	-61002.0
3	16	57	51	716	168.0	-200708.0	-24181.0	40974.0
3	16	57	51	747	169.0	-200804.0	-24318.0	106893.0
3	16	57	51	748	170.0	-200842.0	-21082.0	125864.0
3	16	57	51	749	171.0	-200902.0	-17647.0	116146.0
3	16	57	51	750	172.0	-201019.0	-16613.0	77763.0
3	16	57	51	750	173.0	-201090.0	-18014.0	20588.0
3	16	57	51	751	174.0	-201178.0	-19071.0	-68941.0
3	16	57	51	751	175.0	-201221.0	-19267.0	-147911.0
3	16	57	51	752	176.0	-201233.0	-19348.0	-146679.0
3	16	57	51	753	177.0	-201232.0	-18706.0	-60588.0
3	16	57	51	754	178.0	-201239.0	-17800.0	41651.0
3	16	57	51	754	179.0	-201269.0	-18374.0	106348.0
3	16	57	51	755	180.0	-201331.0	-20547.0	123880.0
3	16	57	51	756	181.0	-201346.0	-22344.0	110504.0
3	16	57	51	756	182.0	-201309.0	-23827.0	68981.0
3	16	57	51	757	183.0	-201368.0	-24088.0	12031.0
3	16	57	51	758	185.0	-201147.0	-21747.0	-150336.0
3	16	57	51	758	186.0	-201199.0	-19498.0	-141714.0
3	16	57	51	759	187.0	-201203.0	-17597.0	-50372.0
3	16	57	51	760	188.0	-201172.0	-16447.0	50332.0
3	16	57	51	760	189.0	-201204.0	-16864.0	112343.0
3	16	57	51	761	190.0	-201226.0	-17061.0	125699.0
3	16	57	51	792	191.0	-201294.0	-16881.0	110715.0
3	16	57	51	793	192.0	-201354.0	-18619.0	69671.0
3	16	57	51	794	193.0	-201446.0	-19969.0	12428.0
3	16	57	51	794	194.0	-201323.0	-23474.0	-78701.0
3	16	57	51	795	195.0	-201147.0	-27605.0	-145582.0
3	16	57	51	796	196.0	-200962.0	-31043.0	-130598.0
3	16	57	51	796	197.0	-200832.0	-34205.0	-35733.0
3	16	57	51	797	198.0	-200661.0	-36444.0	59592.0
3	16	57	51	798	199.0	-200752.0	-37792.0	113979.0
3	16	57	51	798	200.0	-200763.0	-40406.0	124179.0
3	16	57	51	799	201.0	-200636.0	-39857.0	106767.0
3	16	57	51	800	202.0	-200604.0	-39961.0	62497.0
3	16	57	51	800	203.0	-200564.0	-42202.0	2290.0
3	16	57	51	801	204.0	-200696.0	-43715.0	-90401.0
3	16	57	51	802	205.0	-200731.0	-47255.0	-150011.0
3	16	57	51	802	207.0	-200620.0	-54733.0	-28339.0
3	16	57	51	803	208.0	-200611.0	-56527.0	66064.0
3	16	57	51	804	209.0	-200612.0	-60762.0	116965.0
3	16	57	51	804	210.0	-200617.0	-62732.0	122119.0
3	16	57	51	805	211.0	-200719.0	-62441.0	100944.0
3	16	57	51	805	212.0	-200651.0	-63091.0	54578.0
3	16	57	51	806	213.0	-200719.0	-58766.0	-8414.0
3	16	57	51	883	214.0	-200670.0	-53811.0	-103431.0
3	16	57	51	884	215.0	-200514.0	-53747.0	-158437.0
3	16	57	51	884	216.0	-200457.0	-58363.0	-128604.0
3	16	57	51	885	217.0	-200439.0	-62545.0	-27327.0
3	16	57	51	886	218.0	-200348.0	-66372.0	65238.0
3	16	57	51	887	219.0	-200396.0	-66574.0	112697.0
3	16	57	51	887	220.0	-200381.0	-70117.0	118013.0
3	16	57	51	889	221.0	-200331.0	-76077.0	96833.0
3	16	57	51	890	222.0	-200322.0	-81736.0	50439.0
3	16	57	51	890	223.0	-200459.0	-87126.0	-14466.0
3	16	57	51	891	224.0	-200505.0	-90768.0	-109105.0
3	16	57	51	892	225.0	-200560.0	-92482.0	-156318.0
3	16	57	51	892	226.0	-200527.0	-94189.0	-116197.0
3	16	57	51	893	227.0	-200509.0	-97129.0	-10143.0
3	16	57	51	894	228.0	-200543.0	-99314.0	78244.0
3	16	57	51	894	252.0	-200467.0	-60736.0	21383.0
3	16	57	51	895	253.0	-200421.0	-59879.0	-53238.0
3	16	57	51	896	254.0	-200473.0	-65501.0	-143085.0
3	16	57	51	896	255.0	-200566.0	-70710.0	-170392.0
3	16	57	51	897	0.0	-200549.0	-74207.0	-107067.0
3	16	57	51	897	1.0	-200533.0	-77649.0	1897.0
3	16	57	51	898	2.0	-200651.0	-81029.0	78601.0
3	16	57	51	929	3.0	-200673.0	-84624.0	108079.0
3	16	57	51	929	4.0	-200547.0	-88642.0	104202.0
3	16	57	51	930	5.0	-200383.0	-90879.0	71817.0
3	16	57	51	931	6.0	-200324.0	-92779.0	18302.0
3	16	57	51	932	7.0	-200267.0	-95864.0	-63334.0
3	16	57	51	932	8.0	-200211.0	-99288.0	-153173.0
3	16	57	51	933	9.0	-200167.0	-92296.0	-172706.0
3	16	57	51	934	10.0	-200121.0	-68814.0	-102598.0
3	16	57	51	935	11.0	-200197.0	-36675.0	3083.0
3	16	57	51	935	12.0	-200191.0	-21602.0	76008.0
3	16	57	51	936	13.0	-200137.0	-23251.0	101710.0
3	16	57	51	937	14.0	-200092.0	-20443.0	95261.0
3	16	57	51	938	15.0	-200086.0	-18972.0	61215.0
3	16	57	51	938	16.0	-200087.0	-22846.0	7018.0
3	16	57	51	939	17.0	-200130.0	-28194.0	-76258.0
3	16	57	51	939	19.0	-200298.0	-31598.0	-172500.0
3	16	57	51	940	20.0	-200320.0	-33343.0	-96273.0
3	16	57	51	941	21.0	-200396.0	-37821.0	9993.0
3	16	57	51	941	22.0	-200433.0	-42669.0	80511.0
3	16	57	51	942	23.0	-200462.0	-46796.0	102389.0
3	16	57	51	942	24.0	-200497.0	-50349.0	93949.0
3	16	57	51	973	25.0	-200504.0	-56106.0	56891.0
3	16	57	51	974	26.0	-200566.0	-64976.0	1461.0
3	16	57	51	975	27.0	-200591.0	-71252.0	-85291.0
3	16	57	51	976	28.0	-200591.0	-77098.0	-164944.0
3	16	57	51	976	29.0	-200287.0	-82072.0	-168906.0
3	16	57	51	977	30.0	-200151.0	-86559.0	-87257.0
3	16	57	51	978	31.0	-200132.0	-92093.0	17310.0
3	16	57	51	979	32.0	-200107.0	-98021.0	85739.0
3	16	57	51	979	33.0	-200149.0	-103551.0	108110.0
3	16	57	51	980	34.0	-200150.0	-108004.0	99804.0
3	16	57	51	981	35.0	-200252.0	-112916.0	62072.0
3	16	57	51	981	36.0	-200302.0	-118044.0	5606.0
3	16	57	51	982	37.0	-200310.0	-123785.0	-83435.0
3	16	57	51	983	38.0	-200351.0	-129063.0	-158208.0
3	16	57	51	983	39.0	-200333.0	-133609.0	-155234.0
3	16	57	51	984	41.0	-200304.0	-137511.0	34781.0
3	16	57	51	985	42.0	-200223.0	-139726.0	96788.0
3	16	57	51	985	43.0	-200282.0	-140875.0	113899.0
3	16	57	51	986	44.0	-200275.0	-138649.0	101168.0
3	16	57	51	986	45.0	-200259.0	-137012.0	57910.0
3	16	57	51	987	46.0	-200314.0	-140584.0	-2419.0
3	16	57	51	988	47.0	-200292.0	-142252.0	-96099.0
3	16	57	52	18	48.0	-200244.0	-138177.0	-167659.0
3	16	57	52	19	49.0	-200248.0	-132621.0	-156913.0
3	16	57	52	19	50.0	-200298.0	-123839.0	-63527.0
3	16	57	52	20	51.0	-200356.0	-112829.0	37293.0
3	16	57	52	21	52.0	-200485.0	-95633.0	96478.0
3	16	57	52	22	53.0	-200532.0	-81920.0	108265.0
3	16	57	52	22	54.0	-200579.0	-68626.0	91313.0
3	16	57	52	23	55.0	-200549.0	-65466.0	46824.0
3	16	57	52	24	56.0	-200687.0	-71369.0	-12339.0
3	16	57	52	24	57.0	-200692.0	-77456.0	-105333.0
3	16	57	52	25	58.0	-200706.0	-82355.0	-169965.0
3	16	57	52	26	59.0	-200756.0	-86725.0	-149949.0
3	16	57	52	26	60.0	-200735.0	-91437.0	-52064.0
3	16	57	52	27	61.0	-200637.0	-98398.0	46751.0
3	16	57	52	28	62.0	-200557.0	-103748.0	102814.0
3	16	57	52	28	64.0	-200481.0	-107559.0	97781.0
3	16	57	52	29	65.0	-200347.0	-106604.0	52825.0
3	16	57	52	30	66.0	-200263.0	-105122.0	-8520.0
3	16	57	52	30	67.0	-200258.0	-109096.0	-104162.0
3	16	57	52	31	68.0	-200288.0	-112976.0	-164599.0
3	16	57	52	31	69.0	-200332.0	-115861.0	-138272.0
3	16	57	52	62	70.0	-200253.0	-119358.0	-37085.0
3	16	57	52	63	71.0	-200287.0	-122400.0	57228.0
3	16	57	52	64	72.0	-200314.0	-124040.0	107505.0
3	16	57	52	65	73.0	-200285.0	-123282.0	115429.0
3	16	57	52	66	74.0	-200172.0	-118734.0	95416.0
3	16	57	52	66	75.0	-200052.0	-112632.0	48096.0
3	16	57	52	67	76.0	-200002.0	-110081.0	-18402.0
3	16	57	52	68	77.0	-200076.0	-108192.0	-115130.0
3	16	57	52	68	78.0	-200032.0	-107429.0	-169169.0
3	16	57	52	69	79.0	-199965.0	-100467.0	-134953.0
3	16	57	52	70	80.0	-199988.0	-95782.0	-30114.0
3	16	57	52	70	81.0	-199924.0	-97282.0	62507.0
3	16	57	52	71	82.0	-199791.0	-103482.0	108313.0
3	16	57	52	72	83.0	-199829.0	-107527.0	112304.0
3	16	57	52	72	84.0	-199741.0	-109609.0	89369.0
3	16	57	52	73	86.0	-199766.0	-117754.0	-28036.0
3	16	57	52	73	87.0	-199705.0	-120630.0	-123656.0
3	16	57	52	74	88.0	-199606.0	-122431.0	-169830.0
3	16	57	52	75	89.0	-199701.0	-124493.0	-128114.0
3	16	57	52	75	90.0	-199617.0	-122386.0	-23324.0
3	16	57	52	76	91.0	-199524.0	-121155.0	64613.0
3	16	57	52	108	92.0	-199474.0	-124846.0	107386.0
3	16	57	52	109	93.0	-199546.0	-128510.0	109828.0
3	16	57	52	110	94.0	-199460.0	-132654.0	85082.0
3	16	57	52	110	95.0	-199339.0	-136706.0	36593.0
3	16	57	52	111	96.0	-199404.0	-139933.0	-32473.0
3	16	57	52	112	97.0	-199558.0	-142132.0	-126334.0
3	16	57	52	112	98.0	-199734.0	-144551.0	-165208.0
3	16	57	52	113	99.0	-199681.0	-142993.0	-115427.0
3	16	57	52	114	100.0	-199626.0	-135149.0	-9381.0
3	16	57	52	114	101.0	-199692.0	-132523.0	75039.0
3	16	57	52	115	102.0	-199819.0	-136730.0	112705.0
3	16	57	52	116	103.0	-199819.0	-137872.0	112349.0
3	16	57	52	116	104.0	-199816.0	-131841.0	85446.0
3	16	57	52	117	105.0	-199834.0	-119978.0	37293.0
3	16	57	52	118	106.0	-199933.0	-106039.0	-38465.0
3	16	57	52	118	108.0	-200177.0	-101758.0	-167935.0
3	16	57	52	119	109.0	-200177.0	-101352.0	-111107.0
3	16	57	52	119	110.0	-200080.0	-103649.0	-3667.0
3	16	57	52	120	111.0	-200053.0	-108519.0	79042.0
3	16	57	52	121	112.0	-200048.0	-112481.0	112982.0
3	16	57	52	121	113.0	-200109.0	-116396.0	110466.0
3	16	57	52	122	114.0	-199943.0	-121573.0	81068.0
3	16	57	52	154	115.0	-199867.0	-124176.0	29990.0
3	16	57	52	155	116.0	-199926.0	-124614.0	-47769.0
3	16	57	52	155	117.0	-200014.0	-125221.0	-138482.0
3	16	57	52	156	118.0	-200032.0	-124083.0	-163212.0
3	16	57	52	157	119.0	-200075.0	-121134.0	-98601.0
3	16	57	52	158	120.0	-200092.0	-120546.0	9409.0
3	16	57	52	159	121.0	-200021.0	-114864.0	89426.0
3	16	57	52	160	122.0	-200027.0	-105447.0	119941.0
3	16	57	52	160	123.0	-200029.0	-99448.0	113146.0
3	16	57	52	161	124.0	-200097.0	-96806.0	81033.0
3	16	57	52	162	125.0	-200132.0	-96998.0	29195.0
3	16	57	52	163	126.0	-200154.0	-92879.0	-52827.0
3	16	57	52	163	127.0	-200329.0	-94037.0	-142684.0
3	16	57	52	164	128.0	-200325.0	-92757.0	-162424.0
3	16	57	52	165	129.0	-200227.0	-88114.0	-89766.0
3	16	57	52	166	131.0	-200267.0	-85386.0	92788.0
3	16	57	52	166	132.0	-200268.0	-83679.0	116513.0
3	16	57	52	167	133.0	-200151.0	-86055.0	107221.0
3	16	57	52	167	134.0	-199953.0	-89661.0	71669.0
3	16	57	52	168	135.0	-199985.0	-95231.0	17634.0
3	16	57	52	198	136.0	-200093.0	-101212.0	-67112.0
3	16	57	52	199	137.0	-200096.0	-107106.0	-149469.0
3	16	57	52	200	138.0	-200079.0	-110681.0	-159001.0
3	16	57	52	201	139.0	-200114.0	-110431.0	-78904.0
3	16	57	52	202	140.0	-200244.0	-113839.0	29007.0
3	16	57	52	202	141.0	-200182.0	-118455.0	100304.0
3	16	57	52	203	142.0	-200142.0	-123387.0	120396.0
3	16	57	52	204	143.0	-200164.0	-127294.0	111040.0
3	16	57	52	205	144.0	-200105.0	-129670.0	73402.0
3	16	57	52	206	145.0	-200191.0	-132741.0	19526.0
3	16	57	52	206	146.0	-200297.0	-137117.0	-66483.0
3	16	57	52	207	147.0	-200318.0	-141426.0	-144374.0
3	16	57	52	208	148.0	-200319.0	-143446.0	-146627.0
3	16	57	52	208	149.0	-200357.0	-142544.0	-62946.0
3	16	57	52	209	150.0	-200361.0	-140661.0	42722.0
3	16	57	52	210	151.0	-200241.0	-135042.0	109818.0
3	16	57	52	210	154.0	-199967.0	-124466.0	68968.0
3	16	57	52	211	155.0	-200022.0	-121718.0	13181.0
3	16	57	52	212	156.0	-200009.0	-119328.0	-75751.0
3	16	57	52	212	157.0	-199950.0	-117649.0	-150126.0
3	16	57	52	213	158.0	-199918.0	-116213.0	-145216.0
3	16	57	52	213	159.0	-199877.0	-114311.0	-55881.0
3	16	57	52	243	160.0	-199911.0	-118170.0	46099.0
3	16	57	52	244	161.0	-200065.0	-122667.0	107313.0
3	16	57	52	245	162.0	-199933.0	-120001.0	120671.0
3	16	57	52	246	163.0	-199869.0	-105069.0	105623.0
3	16	57	52	247	164.0	-199936.0	-97967.0	64172.0
3	16	57	52	247	165.0	-199886.0	-101423.0	6408.0
3	16	57	52	248	166.0	-199973.0	-107509.0	-84190.0
3	16	57	52	249	167.0	-200083.0	-113126.0	-153076.0
3	16	57	52	249	168.0	-200018.0	-120433.0	-139928.0
3	16	57	52	250	169.0	-200063.0	-120936.0	-44284.0
3	16	57	52	251	170.0	-200177.0	-113045.0	55565.0
3	16	57	52	251	171.0	-200175.0	-109481.0	111721.0
3	16	57	52	252	172.0	-199996.0	-109230.0	121922.0
3	16	57	52	253	173.0	-200062.0	-103623.0	104732.0
3	16	57	52	254	174.0	-200052.0	-76534.0	59370.0
3	16	57	52	254	176.0	-200214.0	-50814.0	-94177.0
3	16	57	52	255	177.0	-200261.0	-48987.0	-157923.0
3	16	57	52	255	178.0	-200229.0	-46010.0	-138508.0
3	16	57	52	256	179.0	-200306.0	-45403.0	-40834.0
3	16	57	52	257	180.0	-200328.0	-49889.0	55619.0
3	16	57	52	257	181.0	-200259.0	-55704.0	108468.0
3	16	57	52	334	182.0	-200272.0	-55539.0	116939.0
3	16	57	52	335	183.0	-200197.0	-53288.0	97735.0
3	16	57	52	336	184.0	-200119.0	-56703.0	51719.0
3	16	57	52	336	185.0	-200161.0	-60604.0	-12257.0
3	16	57	52	337	186.0	-200349.0	-65370.0	-106838.0
3	16	57	52	338	187.0	-200369.0	-64454.0	-162394.0
3	16	57	52	339	188.0	-200414.0	-58932.0	-132875.0
3	16	57	52	339	189.0	-200435.0	-58419.0	-32809.0
3	16	57	52	340	190.0	-200464.0	-54897.0	59958.0
3	16	57	52	341	191.0	-200436.0	-45901.0	107408.0
3	16	57	52	341	192.0	-200347.0	-38966.0	112411.0
3	16	57	52	342	193.0	-200249.0	-36741.0	92178.0
3	16	57	52	343	194.0	-200300.0	-31656.0	44352.0
3	16	57	52	343	195.0	-200244.0	-24877.0	-22376.0
3	16	57	52	344	196.0	-200327.0	-20882.0	-118134.0
3	16	57	52	345	198.0	-200487.0	-21011.0	-133874.0
3	16	57	52	345	221.0	-200544.0	-85347.0	106864.0
3	16	57	52	346	222.0	-200628.0	-89011.0	106633.0
3	16	57	52	347	223.0	-200658.0	-92457.0	79463.0
3	16	57	52	347	224.0	-200675.0	-93249.0	27673.0
3	16	57	52	348	225.0	-200850.0	-85660.0	-47464.0
3	16	57	52	348	226.0	-200707.0	-74321.0	-139417.0
3	16	57	52	379	227.0	-200677.0	-58834.0	-169542.0
3	16	57	52	425	228.0	-200689.0	-41197.0	-111174.0
3	16	57	52	426	229.0	-200597.0	-44014.0	-5169.0
3	16	57	52	426	230.0	-200593.0	-51140.0	75564.0
3	16	57	52	427	231.0	-200519.0	-57334.0	108461.0
3	16	57	52	428	232.0	-200449.0	-63859.0	105999.0
3	16	57	52	429	233.0	-200521.0	-69321.0	75169.0
3	16	57	52	430	234.0	-200431.0	-73085.0	23603.0
3	16	57	52	430	235.0	-200332.0	-73755.0	-53844.0
3	16	57	52	431	236.0	-200334.0	-73551.0	-143187.0
3	16	57	52	432	237.0	-200169.0	-76630.0	-164523.0
3	16	57	52	441	238.0	-200259.0	-78747.0	-97782.0
3	16	57	52	442	239.0	-200196.0	-73509.0	7978.0
3	16	57	52	443	240.0	-200086.0	-63935.0	83633.0
3	16	57	52	443	241.0	-200141.0	-62312.0	111528.0
3	16	57	52	444	243.0	-200185.0	-65236.0	71644.0
3	16	57	52	444	10.0	-200570.0	-79711.0	-157134.0
3	16	57	52	445	11.0	-200530.0	-78434.0	-158477.0
3	16	57	52	445	12.0	-200447.0	-72728.0	-74250.0
3	16	57	52	446	13.0	-200496.0	-66787.0	28127.0
3	16	57	52	447	14.0	-200559.0	-64609.0	93520.0
3	16	57	52	447	15.0	-200687.0	-62629.0	110749.0
3	16	57	52	469	16.0	-200767.0	-58879.0	98022.0
3	16	57	52	470	17.0	-200648.0	-56201.0	58679.0
3	16	57	52	470	18.0	-200622.0	-60646.0	2966.0
3	16	57	52	471	19.0	-200629.0	-64134.0	-86619.0
3	16	57	52	559	20.0	-200675.0	-63492.0	-159361.0
3	16	57	52	560	21.0	-200632.0	-61229.0	-151701.0
3	16	57	52	560	22.0	-200596.0	-58394.0	-61756.0
3	16	57	52	561	23.0	-200618.0	-53269.0	38421.0
3	16	57	52	562	24.0	-200607.0	-52899.0	99911.0
3	16	57	52	562	25.0	-200712.0	-56984.0	113271.0
3	16	57	52	563	26.0	-200802.0	-61491.0	97834.0
3	16	57	52	563	27.0	-200710.0	-65004.0	54244.0
3	16	57	52	564	28.0	-200797.0	-67834.0	-6746.0
3	16	57	52	565	29.0	-200756.0	-71274.0	-100318.0
3	16	57	52	565	30.0	-200714.0	-74049.0	-168111.0
3	16	57	52	566	32.0	-200570.0	-73103.0	-59107.0
3	16	57	52	566	33.0	-200564.0	-68297.0	39970.0
3	16	57	52	567	34.0	-200589.0	-59316.0	97932.0
3	16	57	52	567	35.0	-200586.0	-53110.0	108769.0
3	16	57	52	568	55.0	-200262.0	-74165.0	109749.0
3	16	57	52	569	77.0	-199980.0	-110011.0	35106.0
3	16	57	52	569	78.0	-199931.0	-111563.0	-34621.0
3	16	57	52	570	79.0	-199846.0	-110652.0	-124614.0
3	16	57	52	570	80.0	-199821.0	-110266.0	-157549.0
3	16	57	52	571	81.0	-199717.0	-106168.0	-104501.0
3	16	57	52	572	82.0	-199721.0	-101182.0	2956.0
3	16	57	52	572	83.0	-199734.0	-99819.0	86464.0
3	16	57	52	604	84.0	-199925.0	-100713.0	122327.0
3	16	57	52	648	85.0	-199897.0	-102789.0	120193.0
3	16	57	52	648	86.0	-199863.0	-106104.0	91954.0
3	16	57	52	649	87.0	-199792.0	-106951.0	41229.0
3	16	57	52	650	88.0	-199716.0	-102977.0	-34755.0
3	16	57	52	650	89.0	-199731.0	-98896.0	-125647.0
3	16	57	52	651	90.0	-199677.0	-98596.0	-153831.0
3	16	57	52	651	91.0	-199730.0	-99511.0	-92887.0
3	16	57	52	652	92.0	-199636.0	-99622.0	14571.0
3	16	57	52	653	93.0	-199695.0	-99999.0	93985.0
3	16	57	52	653	94.0	-199714.0	-100504.0	125133.0
3	16	57	52	654	95.0	-199683.0	-102857.0	121047.0
3	16	57	52	654	96.0	-199718.0	-105211.0	88658.0
3	16	57	52	655	97.0	-199702.0	-106552.0	36212.0
3	16	57	52	656	98.0	-199800.0	-108111.0	-42482.0
3	16	57	52	656	99.0	-199856.0	-110401.0	-131389.0
3	16	57	52	657	122.0	-200066.0	-61256.0	32148.0
3	16	57	52	657	123.0	-200098.0	-60104.0	99114.0
3	16	57	52	658	124.0	-200181.0	-56084.0	119683.0
3	16	57	52	659	125.0	-200184.0	-51876.0	109099.0
3	16	57	52	659	126.0	-200156.0	-48614.0	68543.0
3	16	57	52	660	127.0	-200211.0	-47591.0	11834.0
3	16	57	52	693	128.0	-200307.0	-45097.0	-77530.0
3	16	57	52	694	129.0	-200316.0	-39371.0	-153611.0
3	16	57	52	695	130.0	-200282.0	-33442.0	-151782.0
3	16	57	52	695	131.0	-200295.0	-29844.0	-63887.0
3	16	57	52	696	132.0	-200393.0	-29263.0	41630.0
3	16	57	52	696	133.0	-200382.0	-29951.0	104544.0
3	16	57	52	697	134.0	-200569.0	-31144.0	117516.0
3	16	57	52	698	135.0	-200702.0	-32921.0	107678.0
3	16	57	52	698	136.0	-200650.0	-33448.0	68701.0
3	16	57	52	699	137.0	-200616.0	-31672.0	8643.0
3	16	57	52	700	138.0	-200624.0	-31524.0	-84639.0
3	16	57	52	700	139.0	-200554.0	-28976.0	-156531.0
3	16	57	52	701	140.0	-200546.0	-25484.0	-148414.0
3	16	57	52	701	141.0	-200492.0	-23153.0	-56036.0
3	16	57	52	702	142.0	-200456.0	-22710.0	44736.0
3	16	57	52	703	144.0	-200429.0	-15388.0	117451.0
3	16	57	52	703	145.0	-200391.0	-15343.0	102005.0
3	16	57	52	704	146.0	-200279.0	-18206.0	58761.0
3	16	57	52	704	147.0	-200363.0	-20871.0	-1022.0
3	16	57	52	705	148.0	-200380.0	-22051.0	-93449.0
3	16	57	52	705	149.0	-200462.0	-21986.0	-158558.0
3	16	57	52	706	150.0	-200441.0	-20296.0	-140856.0
3	16	57	52	738	151.0	-200414.0	-17548.0	-43452.0
3	16	57	52	738	152.0	-200519.0	-16399.0	54978.0
3	16	57	52	739	153.0	-200574.0	-16494.0	111429.0
3	16	57	52	740	154.0	-200464.0	-17442.0	120266.0
3	16	57	52	740	155.0	-200381.0	-17731.0	102839.0
3	16	57	52	741	156.0	-200450.0	-17207.0	57433.0
3	16	57	52	741	157.0	-200571.0	-17612.0	-4810.0
3	16	57	52	742	158.0	-200564.0	-17505.0	-99221.0
3	16	57	52	743	159.0	-200524.0	-17941.0	-158409.0
3	16	57	52	743	160.0	-200561.0	-18481.0	-133656.0
3	16	57	52	744	161.0	-200544.0	-19685.0	-34140.0
3	16	57	52	744	162.0	-200489.0	-20389.0	60366.0
3	16	57	52	745	163.0	-200522.0	-21584.0	111225.0
3	16	57	52	746	164.0	-200580.0	-22743.0	117493.0
3	16	57	52	746	165.0	-200575.0	-22456.0	96729.0
3	16	57	52	747	167.0	-200534.0	-22339.0	-13641.0
3	16	57	52	747	168.0	-200442.0	-22791.0	-109840.0
3	16	57	52	748	169.0	-200469.0	-22107.0	-164222.0
3	16	57	52	749	170.0	-200511.0	-19251.0	-131798.0
3	16	57	52	749	171.0	-200541.0	-16799.0	-29276.0
3	16	57	52	750	172.0	-200497.0	-17287.0	63377.0
3	16	57	52	783	173.0	-200484.0	-20307.0	110938.0
3	16	57	52	783	174.0	-200482.0	-24247.0	114937.0
3	16	57	52	784	175.0	-200282.0	-28273.0	92034.0
3	16	57	52	785	176.0	-200174.0	-30155.0	42389.0
3	16	57	52	785	177.0	-200119.0	-30908.0	-24897.0
3	16	57	52	786	178.0	-200069.0	-31501.0	-120169.0
3	16	57	52	787	179.0	-200004.0	-32480.0	-168119.0
3	16	57	52	787	180.0	-199932.0	-34937.0	-129229.0
3	16	57	52	788	181.0	-199884.0	-36172.0	-24588.0
3	16	57	52	788	182.0	-199857.0	-36508.0	64196.0
3	16	57	52	789	183.0	-199792.0	-36191.0	106269.0
3	16	57	52	790	184.0	-199748.0	-35623.0	108130.0
3	16	57	52	790	185.0	-199766.0	-36319.0	83719.0
3	16	57	52	791	186.0	-199684.0	-39002.0	34783.0
3	16	57	52	791	187.0	-199664.0	-41079.0	-35586.0
3	16	57	52	792	189.0	-199713.0	-39283.0	-168486.0
3	16	57	52	793	190.0	-199759.0	-37084.0	-119936.0
3	16	57	52	793	191.0	-199771.0	-36454.0	-13890.0
3	16	57	52	794	192.0	-199799.0	-36257.0	71236.0
3	16	57	52	794	193.0	-199776.0	-32912.0	110505.0
3	16	57	52	795	194.0	-199837.0	-30354.0	111573.0
3	16	57	52	796	195.0	-199982.0	-31092.0	83299.0
3	16	57	52	874	196.0	-200083.0	-30524.0	32269.0
3	16	57	52	875	197.0	-200219.0	-28857.0	-41683.0
3	16	57	52	875	198.0	-200307.0	-28398.0	-134657.0
3	16	57	52	876	199.0	-200263.0	-29479.0	-168712.0
3	16	57	52	877	200.0	-200333.0	-30625.0	-112740.0
3	16	57	52	877	201.0	-200519.0	-31507.0	-4858.0
3	16	57	52	878	202.0	-200401.0	-30611.0	77021.0
3	16	57	52	878	203.0	-200349.0	-28566.0	112546.0
3	16	57	52	879	204.0	-200394.0	-27205.0	109004.0
3	16	57	52	880	205.0	-200347.0	-25115.0	77766.0
3	16	57	52	880	206.0	-200417.0	-25075.0	26961.0
3	16	57	52	881	207.0	-200464.0	-25540.0	-49282.0
3	16	57	52	881	208.0	-200482.0	-25821.0	-142370.0
3	16	57	52	882	209.0	-200549.0	-25836.0	-170742.0
3	16	57	52	883	210.0	-200416.0	-26405.0	-108280.0
3	16	57	52	883	234.0	-200129.0	-7995.0	100026.0
3	16	57	52	884	235.0	-200180.0	-11394.0	63164.0
3	16	57	52	884	236.0	-200203.0	-13937.0	9079.0
3	16	57	52	885	237.0	-200290.0	-12636.0	-76947.0
3	16	57	52	886	238.0	-200167.0	-6682.0	-155959.0
3	16	57	52	886	239.0	-200134.0	-5104.0	-158395.0
3	16	57	52	887	240.0	-200194.0	-7329.0	-74850.0
3	16	57	52	919	241.0	-200104.0	-9703.0	28411.0
3	16	57	52	920	242.0	-200063.0	-5516.0	94694.0
3	16	57	52	921	243.0	-200041.0	-965.0	111168.0
3	16	57	52	922	244.0	-200065.0	-2803.0	98018.0
3	16	57	52	922	245.0	-200043.0	-2905.0	57739.0
3	16	57	52	923	246.0	-200054.0	-3440.0	2558.0
3	16	57	52	924	247.0	-200168.0	-6654.0	-87378.0
3	16	57	52	924	248.0	-200166.0	-6860.0	-165049.0
3	16	57	52	925	249.0	-200094.0	-4632.0	-161666.0
3	16	57	52	926	250.0	-199975.0	-6074.0	-72067.0
3	16	57	52	926	251.0	-199951.0	-3945.0	30810.0
3	16	57	52	927	252.0	-200140.0	-1127.0	92102.0
3	16	57	52	928	253.0	-200016.0	-4881.0	107770.0
3	16	57	52	928	254.0	-199956.0	-7102.0	95449.0
3	16	57	52	929	255.0	-199999.0	-8334.0	54323.0
3	16	57	52	929	1.0	-200006.0	-8075.0	-93353.0
3	16	57	52	930	2.0	-199916.0	-4861.0	-162641.0
3	16	57	52	931	3.0	-199858.0	-2094.0	-151086.0
3	16	57	52	931	4.0	-199892.0	-1939.0	-56973.0
3	16	57	52	932	5.0	-199991.0	-5818.0	42884.0
3	16	57	52	932	6.0	-200073.0	-9649.0	101664.0
3	16	57	52	963	7.0	-200009.0	-9324.0	114111.0
3	16	57	52	963	8.0	-200116.0	-7307.0	97954.0
3	16	57	52	964	9.0	-200141.0	-7434.0	54927.0
3	16	57	52	965	10.0	-199978.0	-10028.0	-4569.0
3	16	57	52	988	11.0	-200174.0	-14539.0	-99147.0
3	16	57	52	989	12.0	-200054.0	-17049.0	-164708.0
3	16	57	52	989	13.0	-200015.0	-16759.0	-146770.0
3	16	57	52	990	14.0	-200227.0	-14196.0	-50167.0
3	16	57	52	990	15.0	-200157.0	-13490.0	46380.0
3	16	57	52	991	16.0	-200131.0	-13247.0	99586.0
3	16	57	53	11	17.0	-200127.0	-9687.0	108475.0
3	16	57	53	53	18.0	-200065.0	-9493.0	90176.0
3	16	57	53	54	19.0	-199994.0	-9230.0	44942.0
3	16	57	53	55	20.0	-200016.0	-6932.0	-17814.0
3	16	57	53	56	23.0	-199942.0	-9868.0	-141703.0
3	16	57	53	56	24.0	-200041.0	-11225.0	-40384.0
3	16	57	53	57	25.0	-199994.0	-12857.0	54100.0
3	16	57	53	58	26.0	-199892.0	-13564.0	103014.0
3	16	57	53	59	27.0	-199961.0	-11704.0	107769.0
3	16	57	53	59	28.0	-199945.0	-9523.0	87750.0
3	16	57	53	60	29.0	-199727.0	-4902.0	40434.0
3	16	57	53	60	30.0	-199930.0	-4481.0	-26536.0
3	16	57	53	61	31.0	-199976.0	-5135.0	-121417.0
3	16	57	53	62	32.0	-199839.0	-6287.0	-171452.0
3	16	57	53	62	33.0	-199927.0	-8467.0	-135817.0
3	16	57	53	63	46.0	-200227.0	-12552.0	104633.0
3	16	57	53	63	68.0	-200429.0	-5707.0	76834.0
3	16	57	53	98	69.0	-200390.0	-5679.0	26854.0
3	16	57	53	99	70.0	-200434.0	-5214.0	-49422.0
3	16	57	53	100	71.0	-200411.0	-3547.0	-140147.0
3	16	57	53	100	72.0	-200432.0	-4387.0	-164695.0
3	16	57	53	101	73.0	-200437.0	-5562.0	-100229.0
3	16	57	53	102	74.0	-200249.0	-6757.0	6449.0
3	16	57	53	102	75.0	-200606.0	-7206.0	83394.0
3	16	57	53	103	76.0	-200674.0	-7001.0	112664.0
3	16	57	53	104	77.0	-200509.0	-5306.0	105611.0
3	16	57	53	104	78.0	-200556.0	-4011.0	71020.0
3	16	57	53	105	79.0	-200594.0	-3951.0	18395.0
3	16	57	53	105	80.0	-200557.0	-2149.0	-61703.0
3	16	57	53	106	81.0	-200444.0	-4766.0	-149367.0
3	16	57	53	107	82.0	-200368.0	-7551.0	-166607.0
3	16	57	53	107	83.0	-200372.0	-7531.0	-92775.0
3	16	57	53	108	84.0	-200384.0	-6764.0	15703.0
3	16	57	53	109	91.0	-200112.0	-8179.0	-149411.0
3	16	57	53	109	92.0	-200061.0	-8229.0	-158106.0
3	16	57	53	110	93.0	-199958.0	-9706.0	-77040.0
3	16	57	53	110	94.0	-199956.0	-7842.0	27454.0
3	16	57	53	111	95.0	-199983.0	-3184.0	94120.0
3	16	57	53	112	96.0	-200013.0	-5048.0	113664.0
3	16	57	53	144	97.0	-200061.0	-1628.0	103571.0
3	16	57	53	145	98.0	-200211.0	-2116.0	65175.0
3	16	57	53	145	99.0	-200240.0	-5857.0	11916.0
3	16	57	53	146	100.0	-200219.0	-7917.0	-74212.0
3	16	57	53	147	101.0	-200284.0	-7716.0	-153110.0
3	16	57	53	147	102.0	-200416.0	-7602.0	-155549.0
3	16	57	53	148	103.0	-200324.0	-8740.0	-69199.0
3	16	57	53	149	104.0	-200291.0	-8989.0	35279.0
3	16	57	53	149	105.0	-200377.0	-7015.0	101629.0
3	16	57	53	150	106.0	-200426.0	-6576.0	118989.0
3	16	57	53	151	107.0	-200457.0	-7477.0	106606.0
3	16	57	53	151	108.0	-200520.0	-8617.0	65787.0
3	16	57	53	152	109.0	-200458.0	-8736.0	8649.0
3	16	57	53	152	110.0	-200297.0	-9641.0	-81418.0
3	16	57	53	153	111.0	-200169.0	-6862.0	-154754.0
3	16	57	53	154	113.0	-200118.0	-5508.0	-57201.0
3	16	57	53	154	114.0	-200018.0	-6187.0	44265.0
3	16	57	53	155	115.0	-200261.0	-5945.0	106336.0
3	16	57	53	155	116.0	-200251.0	-8739.0	119686.0
3	16	57	53	156	117.0	-200104.0	-11409.0	106318.0
3	16	57	53	157	118.0	-200124.0	-12129.0	64651.0
3	16	57	53	187	119.0	-200164.0	-10679.0	5622.0
3	16	57	53	188	120.0	-200119.0	-9222.0	-88416.0
3	16	57	53	189	121.0	-200123.0	-6696.0	-157638.0
3	16	57	53	189	122.0	-200137.0	-5254.0	-143372.0
3	16	57	53	190	123.0	-200017.0	-6962.0	-46478.0
3	16	57	53	192	124.0	-200081.0	-6430.0	52216.0
3	16	57	53	192	125.0	-199992.0	-7051.0	109187.0
3	16	57	53	193	126.0	-199942.0	-6697.0	119224.0
3	16	57	53	194	127.0	-199970.0	-5026.0	102903.0
3	16	57	53	194	128.0	-200014.0	-5799.0	58724.0
3	16	57	53	195	129.0	-199854.0	-6742.0	-1368.0
3	16	57	53	196	130.0	-199767.0	-6665.0	-95417.0
3	16	57	53	196	131.0	-199777.0	-6563.0	-159819.0
3	16	57	53	197	132.0	-199631.0	-6776.0	-140362.0
3	16	57	53	198	133.0	-199669.0	-6959.0	-43053.0
3	16	57	53	198	135.0	-199804.0	-6634.0	109048.0
3	16	57	53	199	136.0	-199869.0	-6163.0	116805.0
3	16	57	53	199	137.0	-199863.0	-7049.0	99839.0
3	16	57	53	200	138.0	-199742.0	-8701.0	54351.0
3	16	57	53	201	139.0	-199763.0	-9390.0	-8340.0
3	16	57	53	201	140.0	-199910.0	-9906.0	-102352.0
3	16	57	53	202	141.0	-200054.0	-10008.0	-157063.0
3	16	57	53	233	142.0	-200100.0	-8901.0	-125262.0
3	16	57	53	234	143.0	-200056.0	-9026.0	-22364.0
3	16	57	53	235	144.0	-200052.0	-9906.0	70703.0
3	16	57	53	235	145.0	-200052.0	-10505.0	115954.0
3	16	57	53	236	146.0	-200080.0	-9327.0	118561.0
3	16	57	53	237	147.0	-200047.0	-7914.0	96993.0
3	16	57	53	237	148.0	-200009.0	-7461.0	47246.0
3	16	57	53	238	149.0	-199956.0	-7231.0	-19731.0
3	16	57	53	239	150.0	-199980.0	-8941.0	-116524.0
3	16	57	53	239	151.0	-199998.0	-8337.0	-166424.0
3	16	57	53	240	152.0	-199808.0	-8699.0	-128446.0
3	16	57	53	241	153.0	-199851.0	-8291.0	-24061.0
3	16	57	53	241	154.0	-200052.0	-8104.0	66154.0
3	16	57	53	242	155.0	-200002.0	-6227.0	111335.0
3	16	57	53	242	156.0	-199930.0	-6083.0	115168.0
3	16	57	53	243	158.0	-200172.0	-5211.0	44794.0
3	16	57	53	244	159.0	-200147.0	-5824.0	-24307.0
3	16	57	53	244	160.0	-200322.0	-6862.0	-122429.0
3	16	57	53	245	161.0	-200381.0	-8298.0	-167336.0
3	16	57	53	245	162.0	-200326.0	-6641.0	-121882.0
3	16	57	53	246	163.0	-200471.0	-6342.0	-17326.0
3	16	57	53	278	164.0	-200427.0	-9440.0	67759.0
3	16	57	53	324	165.0	-200447.0	-9608.0	108489.0
3	16	57	53	325	166.0	-200616.0	-7364.0	109785.0
3	16	57	53	325	167.0	-200565.0	-8184.0	82741.0
3	16	57	53	326	168.0	-200569.0	-9447.0	33451.0
3	16	57	53	327	169.0	-200594.0	-6924.0	-39004.0
3	16	57	53	327	170.0	-200644.0	-4959.0	-133579.0
3	16	57	53	328	171.0	-200724.0	-7157.0	-168064.0
3	16	57	53	328	172.0	-200792.0	-8310.0	-114950.0
3	16	57	53	329	173.0	-200787.0	-6541.0	-9004.0
3	16	57	53	330	174.0	-200754.0	-7167.0	74181.0
3	16	57	53	330	175.0	-200871.0	-6742.0	110369.0
3	16	57	53	331	176.0	-200746.0	-6859.0	107950.0
3	16	57	53	332	177.0	-200554.0	-8126.0	78703.0
3	16	57	53	332	178.0	-200717.0	-8230.0	27453.0
3	16	57	53	333	180.0	-200476.0	-8254.0	-144907.0
3	16	57	53	334	181.0	-200631.0	-8106.0	-175390.0
3	16	57	53	334	203.0	-200640.0	-4599.0	10045.0
3	16	57	53	335	204.0	-200784.0	-5379.0	82283.0
3	16	57	53	335	205.0	-200655.0	-5214.0	106464.0
3	16	57	53	336	206.0	-200582.0	-5602.0	98904.0
3	16	57	53	337	207.0	-200749.0	-5267.0	62823.0
3	16	57	53	337	208.0	-200699.0	-6161.0	8133.0
3	16	57	53	383	209.0	-200859.0	-6741.0	-77651.0
3	16	57	53	402	210.0	-200834.0	-7484.0	-157636.0
3	16	57	53	402	211.0	-200749.0	-8166.0	-160817.0
3	16	57	53	403	212.0	-200736.0	-5637.0	-77054.0
3	16	57	53	404	213.0	-200572.0	-5443.0	29306.0
3	16	57	53	405	214.0	-200643.0	-7279.0	97217.0
3	16	57	53	405	215.0	-200593.0	-6726.0	118599.0
3	16	57	53	406	216.0	-200480.0	-5758.0	108969.0
3	16	57	53	407	217.0	-200439.0	-4649.0	69230.0
3	16	57	53	407	218.0	-200309.0	-6356.0	13917.0
3	16	57	53	408	219.0	-200319.0	-5356.0	-74194.0
3	16	57	53	408	220.0	-200455.0	-4070.0	-152321.0
3	16	57	53	409	221.0	-200596.0	-6395.0	-153784.0
3	16	57	53	410	222.0	-200527.0	-5797.0	-68726.0
3	16	57	53	410	223.0	-200441.0	-5367.0	33569.0
3	16	57	53	411	233.0	-200635.0	-4409.0	40588.0
3	16	57	53	411	240.0	-200562.0	-5829.0	-163550.0
3	16	57	53	412	241.0	-200576.0	-6735.0	-146963.0
3	16	57	53	413	242.0	-200648.0	-5755.0	-49158.0
3	16	57	53	413	243.0	-200641.0	-5148.0	49380.0
3	16	57	53	414	244.0	-200538.0	-5234.0	104715.0
3	16	57	53	414	245.0	-200451.0	-5387.0	113429.0
3	16	57	53	415	246.0	-200546.0	-5929.0	94644.0
3	16	57	53	416	247.0	-200457.0	-5870.0	50148.0
3	16	57	53	444	248.0	-200374.0	-5464.0	-9334.0
3	16	57	53	445	249.0	-200514.0	-4279.0	-103373.0
3	16	57	53	445	250.0	-200488.0	-5270.0	-165448.0
3	16	57	53	446	251.0	-200251.0	-5461.0	-142682.0
3	16	57	53	447	252.0	-200304.0	-5053.0	-43277.0
3	16	57	53	447	253.0	-200283.0	-6107.0	53604.0
3	16	57	53	448	254.0	-200217.0	-5604.0	107446.0
3	16	57	53	449	255.0	-200189.0	-6868.0	115267.0
3	16	57	53	449	0.0	-200146.0	-6854.0	96799.0
3	16	57	53	450	1.0	-200044.0	-6593.0	50927.0
3	16	57	53	450	2.0	-200075.0	-6117.0	-13234.0
3	16	57	53	451	3.0	-200008.0	-6780.0	-109434.0
3	16	57	53	452	4.0	-199907.0	-6857.0	-163942.0
3	16	57	53	452	5.0	-199862.0	-5825.0	-131841.0
3	16	57	53	453	6.0	-199916.0	-6007.0	-25868.0
3	16	57	53	454	7.0	-199788.0	-6038.0	68436.0
3	16	57	53	454	8.0	-199730.0	-6917.0	117054.0
3	16	57	53	455	9.0	-199826.0	-6063.0	120888.0
3	16	57	53	455	10.0	-199824.0	-4089.0	97677.0
3	16	57	53	467	11.0	-199769.0	-5064.0	49083.0
3	16	57	53	468	12.0	-199804.0	-4704.0	-17620.0
3	16	57	53	469	13.0	-199834.0	-3376.0	-113466.0
3	16	57	53	469	14.0	-199716.0	-4667.0	-161082.0
3	16	57	53	491	15.0	-199721.0	-5245.0	-120741.0
3	16	57	53	492	16.0	-199809.0	-5069.0	-15019.0
3	16	57	53	492	17.0	-199890.0	-4001.0	73543.0
3	16	57	53	493	18.0	-200095.0	-2867.0	116162.0
3	16	57	53	493	19.0	-200024.0	-3435.0	115201.0
3	16	57	53	494	20.0	-199882.0	-4178.0	88504.0
3	16	57	53	495	21.0	-199836.0	-3799.0	38641.0
3	16	57	53	495	22.0	-199792.0	-3438.0	-32674.0
3	16	57	53	496	23.0	-199672.0	-5652.0	-126712.0
3	16	57	53	496	24.0	-199670.0	-6209.0	-166161.0
3	16	57	53	497	25.0	-199752.0	-6371.0	-116932.0
3	16	57	53	497	26.0	-199828.0	-5485.0	-9774.0
3	16	57	53	498	27.0	-199686.0	-4789.0	75748.0
3	16	57	53	499	28.0	-199692.0	-5809.0	114114.0
3	16	57	53	499	29.0	-199752.0	-4627.0	114373.0
3	16	57	53	500	30.0	-199636.0	-2949.0	87799.0
3	16	57	53	514	31.0	-199572.0	-4200.0	37917.0
3	16	57	53	515	32.0	-199765.0	-6339.0	-34696.0
3	16	57	53	516	33.0	-199855.0	-4014.0	-128032.0
3	16	57	53	516	34.0	-199826.0	-3514.0	-163132.0
3	16	57	53	517	35.0	-199873.0	-4704.0	-108674.0
3	16	57	53	518	36.0	-200067.0	-4498.0	-2118.0
3	16	57	53	519	37.0	-200069.0	-4265.0	77723.0
3	16	57	53	519	38.0	-200077.0	-6153.0	111548.0
3	16	57	53	520	39.0	-200182.0	-5440.0	109166.0
3	16	57	53	521	40.0	-200317.0	-4800.0	79831.0
3	16	57	53	521	41.0	-200516.0	-5282.0	29957.0
3	16	57	53	522	42.0	-200587.0	-6655.0	-46349.0
3	16	57	53	523	43.0	-200564.0	-6042.0	-138961.0
3	16	57	53	523	44.0	-200424.0	-4961.0	-165858.0
3	16	57	53	524	45.0	-200289.0	-4492.0	-101866.0
3	16	57	53	524	46.0	-200260.0	-4212.0	5216.0
3	16	57	53	537	47.0	-200252.0	-5528.0	83363.0
3	16	57	53	538	48.0	-200235.0	-5021.0	113739.0
3	16	57	53	539	49.0	-200187.0	-4608.0	109039.0
3	16	57	53	539	50.0	-200275.0	-5584.0	74771.0
3	16	57	53	540	51.0	-200369.0	-5061.0	20699.0
3	16	57	53	540	52.0	-200365.0	-4381.0	-59178.0
3	16	57	53	560	53.0	-200372.0	-4069.0	-147563.0
3	16	57	53	561	54.0	-200420.0	-3371.0	-166344.0
3	16	57	53	562	55.0	-200392.0	-3197.0	-95309.0
3	16	57	53	562	56.0	-200447.0	-3925.0	10425.0
3	16	57	53	563	57.0	-200519.0	-4632.0	83120.0
3	16	57	53	564	58.0	-200482.0	-4497.0	109363.0
3	16	57	53	564	59.0	-200445.0	-4343.0	102814.0
3	16	57	53	565	60.0	-200373.0	-3544.0	68563.0
3	16	57	53	566	61.0	-200341.0	-4716.0	15188.0
3	16	57	53	566	62.0	-200395.0	-5098.0	-69864.0
3	16	57	53	567	63.0	-200429.0	-5876.0	-156907.0
3	16	57	53	567	64.0	-200447.0	-5410.0	-170066.0
3	16	57	53	568	65.0	-200415.0	-5007.0	-92576.0
3	16	57	53	568	66.0	-200325.0	-5638.0	13503.0
3	16	57	53	569	67.0	-200332.0	-5657.0	83806.0
3	16	57	53	589	68.0	-200341.0	-4711.0	105684.0
3	16	57	53	589	69.0	-200288.0	-3847.0	97089.0
3	16	57	53	590	70.0	-200258.0	-4072.0	61010.0
3	16	57	53	591	71.0	-200247.0	-3835.0	7479.0
3	16	57	53	591	72.0	-200309.0	-5986.0	-79942.0
3	16	57	53	592	73.0	-200261.0	-5517.0	-160249.0
3	16	57	53	593	74.0	-200279.0	-4536.0	-164458.0
3	16	57	53	594	75.0	-200157.0	-3828.0	-80077.0
3	16	57	53	594	76.0	-200163.0	-4434.0	24921.0
3	16	57	53	595	77.0	-200239.0	-4987.0	92433.0
3	16	57	53	595	78.0	-200205.0	-4961.0	110643.0
3	16	57	53	596	79.0	-200226.0	-6707.0	99035.0
3	16	57	53	597	80.0	-200087.0	-7317.0	60321.0
3	16	57	53	597	81.0	-200032.0	-8141.0	4673.0
3	16	57	53	598	82.0	-200101.0	-6899.0	-85304.0
3	16	57	53	611	83.0	-200183.0	-5487.0	-161869.0
3	16	57	53	612	84.0	-200295.0	-6296.0	-157762.0
3	16	57	53	613	85.0	-200263.0	-6057.0	-67987.0
3	16	57	53	613	86.0	-200194.0	-4435.0	35999.0
3	16	57	53	614	87.0	-200261.0	-4151.0	100381.0
3	16	57	53	614	88.0	-200158.0	-3657.0	116206.0
3	16	57	53	615	89.0	-200122.0	-4194.0	101361.0
3	16	57	53	616	90.0	-200174.0	-7009.0	58735.0
3	16	57	53	636	91.0	-200161.0	-9882.0	1662.0
3	16	57	53	636	92.0	-200306.0	-8695.0	-90972.0
3	16	57	53	637	93.0	-200329.0	-7046.0	-162939.0
3	16	57	53	638	94.0	-200239.0	-6697.0	-151545.0
3	16	57	53	638	95.0	-200277.0	-5435.0	-56354.0
3	16	57	53	639	96.0	-200176.0	-5494.0	44539.0
3	16	57	53	640	97.0	-200021.0	-5721.0	102370.0
3	16	57	53	641	98.0	-200139.0	-6569.0	114356.0
3	16	57	53	641	99.0	-200276.0	-6755.0	99858.0
3	16	57	53	642	100.0	-200205.0	-7339.0	56084.0
3	16	57	53	642	101.0	-200331.0	-7163.0	-6348.0
3	16	57	53	643	102.0	-200478.0	-5103.0	-100111.0
3	16	57	53	643	103.0	-200466.0	-3816.0	-165029.0
3	16	57	53	644	104.0	-200437.0	-2819.0	-147209.0
3	16	57	53	645	105.0	-200432.0	-3989.0	-49717.0
3	16	57	53	658	106.0	-200473.0	-2950.0	47896.0
3	16	57	53	659	107.0	-200530.0	-3581.0	102232.0
3	16	57	53	659	108.0	-200533.0	-7694.0	111747.0
3	16	57	53	660	109.0	-200680.0	-7705.0	92825.0
3	16	57	53	660	110.0	-200472.0	-6214.0	47895.0
3	16	57	53	661	111.0	-200329.0	-6517.0	-12212.0
3	16	57	53	661	112.0	-200444.0	-5387.0	-106618.0
3	16	57	53	687	113.0	-200592.0	-4875.0	-164422.0
3	16	57	53	687	114.0	-200496.0	-5624.0	-137776.0
3	16	57	53	688	115.0	-200445.0	-4979.0	-35121.0
3	16	57	53	689	116.0	-200565.0	-4661.0	59806.0
3	16	57	53	689	117.0	-200449.0	-4681.0	110420.0
3	16	57	53	690	118.0	-200392.0	-5744.0	115157.0
3	16	57	53	690	119.0	-200455.0	-5243.0	95407.0
3	16	57	53	691	120.0	-200552.0	-5349.0	49418.0
3	16	57	53	691	121.0	-200344.0	-4741.0	-16441.0
3	16	57	53	692	122.0	-200307.0	-4619.0	-111163.0
3	16	57	53	693	123.0	-200268.0	-3249.0	-165206.0
3	16	57	53	693	124.0	-200307.0	-5002.0	-130758.0
3	16	57	53	694	125.0	-200358.0	-3826.0	-26641.0
3	16	57	53	694	126.0	-200322.0	-4196.0	64768.0
3	16	57	53	695	127.0	-200372.0	-5935.0	110431.0
3	16	57	53	710	128.0	-200369.0	-4951.0	115154.0
3	16	57	53	710	129.0	-200327.0	-5307.0	94091.0
3	16	57	53	711	130.0	-200413.0	-2937.0	46794.0
3	16	57	53	712	131.0	-200340.0	-2636.0	-21199.0
3	16	57	53	713	132.0	-200309.0	-3688.0	-116887.0
3	16	57	53	713	133.0	-200329.0	-3851.0	-162559.0
3	16	57	53	714	134.0	-200123.0	-4276.0	-119627.0
3	16	57	53	715	135.0	-200011.0	-4413.0	-14134.0
3	16	57	53	715	136.0	-200025.0	-4698.0	75084.0
3	16	57	53	716	137.0	-199976.0	-3466.0	117987.0
3	16	57	53	717	138.0	-199902.0	-2419.0	120193.0
3	16	57	53	717	139.0	-199914.0	-4742.0	95086.0
3	16	57	53	718	140.0	-200002.0	-5711.0	47440.0
3	16	57	53	718	141.0	-199979.0	-5384.0	-22885.0
3	16	57	53	719	142.0	-199981.0	-5166.0	-117392.0
3	16	57	53	737	143.0	-199919.0	-6719.0	-157407.0
3	16	57	53	737	144.0	-199991.0	-6121.0	-108816.0
3	16	57	53	738	145.0	-200035.0	-4797.0	-2117.0
3	16	57	53	739	146.0	-200061.0	-4668.0	81243.0
3	16	57	53	739	147.0	-200069.0	-3424.0	119291.0
3	16	57	53	740	148.0	-199949.0	-3764.0	119039.0
3	16	57	53	741	149.0	-199762.0	-3969.0	90748.0
3	16	57	53	741	150.0	-199796.0	-4332.0	41001.0
3	16	57	53	742	151.0	-199976.0	-3686.0	-33346.0
3	16	57	53	742	152.0	-199993.0	-4300.0	-127636.0
3	16	57	53	743	153.0	-200040.0	-5189.0	-160555.0
3	16	57	53	744	154.0	-200085.0	-5089.0	-103123.0
3	16	57	53	744	155.0	-200006.0	-3836.0	3863.0
3	16	57	53	745	156.0	-199952.0	-3999.0	85032.0
3	16	57	53	746	157.0	-199959.0	-4754.0	118708.0
3	16	57	53	759	158.0	-199989.0	-4865.0	116048.0
3	16	57	53	760	159.0	-200041.0	-4969.0	88124.0
3	16	57	53	760	160.0	-200121.0	-3696.0	38223.0
3	16	57	53	761	161.0	-200218.0	-4066.0	-43696.0
3	16	57	53	762	162.0	-200187.0	-4825.0	-138649.0
3	16	57	53	762	163.0	-200067.0	-4099.0	-163345.0
3	16	57	53	763	164.0	-200135.0	-4366.0	-97127.0
3	16	57	53	763	165.0	-200304.0	-4816.0	11544.0
3	16	57	53	784	166.0	-200233.0	-4259.0	89318.0
3	16	57	53	784	167.0	-200197.0	-5234.0	119884.0
3	16	57	53	785	168.0	-200315.0	-4487.0	116933.0
3	16	57	53	786	169.0	-200289.0	-4327.0	83525.0
3	16	57	53	786	170.0	-200311.0	-4755.0	32609.0
3	16	57	53	787	171.0	-200467.0	-4294.0	-47601.0
3	16	57	53	788	172.0	-200541.0	-4093.0	-135922.0
3	16	57	53	788	173.0	-200469.0	-5044.0	-153247.0
3	16	57	53	789	174.0	-200464.0	-5966.0	-80736.0
3	16	57	53	790	175.0	-200542.0	-6846.0	26185.0
3	16	57	53	790	176.0	-200411.0	-5284.0	99485.0
3	16	57	53	791	177.0	-200364.0	-4357.0	125471.0
3	16	57	53	792	178.0	-200489.0	-3289.0	118373.0
3	16	57	53	792	179.0	-200564.0	-5360.0	81343.0
3	16	57	53	793	180.0	-200526.0	-3428.0	27370.0
3	16	57	53	807	181.0	-200501.0	-3393.0	-55928.0
3	16	57	53	816	182.0	-200499.0	-4693.0	-138968.0
3	16	57	53	818	183.0	-200439.0	-4633.0	-150467.0
3	16	57	53	819	184.0	-200536.0	-3862.0	-72376.0
3	16	57	53	819	185.0	-200701.0	-7151.0	33179.0
3	16	57	53	820	186.0	-200821.0	-6944.0	102206.0
3	16	57	53	821	187.0	-200751.0	-6290.0	122973.0
3	16	57	53	821	188.0	-200707.0	-5527.0	114536.0
3	16	57	53	822	189.0	-200715.0	-5604.0	77179.0
3	16	57	53	822	190.0	-200664.0	-4879.0	21771.0
3	16	57	53	823	191.0	-200729.0	-4892.0	-65092.0
3	16	57	53	823	192.0	-200814.0	-4777.0	-142881.0
3	16	57	53	824	193.0	-200731.0	-4094.0	-143734.0
3	16	57	53	825	194.0	-200770.0	-3609.0	-59502.0
3	16	57	53	833	195.0	-200826.0	-5398.0	44039.0
3	16	57	53	834	196.0	-200916.0	-5103.0	109373.0
3	16	57	53	835	197.0	-200916.0	-5636.0	126091.0
3	16	57	53	835	198.0	-200847.0	-6214.0	115591.0
3	16	57	53	836	199.0	-200819.0	-6251.0	75724.0
3	16	57	53	836	200.0	-200741.0	-5423.0	17777.0
3	16	57	53	837	201.0	-200679.0	-3982.0	-74156.0
3	16	57	53	838	202.0	-200711.0	-5195.0	-149194.0
3	16	57	53	857	203.0	-200681.0	-5688.0	-143720.0
3	16	57	53	857	204.0	-200649.0	-5384.0	-52968.0
3	16	57	53	858	205.0	-200699.0	-4996.0	47926.0
3	16	57	53	859	206.0	-200769.0	-3692.0	107510.0
3	16	57	53	859	207.0	-200847.0	-4291.0	122336.0
3	16	57	53	860	208.0	-200814.0	-5406.0	107556.0
3	16	57	53	860	209.0	-200727.0	-5266.0	65083.0
3	16	57	53	885	210.0	-200619.0	-5741.0	6221.0
3	16	57	53	886	211.0	-200667.0	-6042.0	-86098.0
3	16	57	53	887	212.0	-200687.0	-5109.0	-155846.0
3	16	57	53	887	213.0	-200581.0	-5501.0	-143519.0
3	16	57	53	888	214.0	-200576.0	-4912.0	-47528.0
3	16	57	53	889	215.0	-200647.0	-4757.0	51371.0
3	16	57	53	889	216.0	-200567.0	-5839.0	108789.0
3	16	57	53	890	217.0	-200566.0	-5275.0	120225.0
3	16	57	53	890	218.0	-200586.0	-5760.0	103583.0
3	16	57	53	891	219.0	-200581.0	-6998.0	59611.0
3	16	57	53	891	220.0	-200617.0	-6251.0	582.0
3	16	57	53	892	221.0	-200624.0	-5454.0	-92246.0
3	16	57	53	893	222.0	-200377.0	-5944.0	-154856.0
3	16	57	53	893	223.0	-200350.0	-6261.0	-132206.0
3	16	57	53	894	224.0	-200446.0	-6091.0	-32715.0
3	16	57	53	894	225.0	-200416.0	-7215.0	63292.0
3	16	57	53	895	226.0	-200367.0	-6342.0	115644.0
3	16	57	53	896	227.0	-200376.0	-5504.0	123161.0
3	16	57	53	896	228.0	-200376.0	-4209.0	103549.0
3	16	57	53	897	229.0	-200252.0	-4638.0	57921.0
3	16	57	53	897	230.0	-200196.0	-5227.0	-5428.0
3	16	57	53	898	231.0	-200079.0	-5383.0	-102857.0
3	16	57	53	898	232.0	-200096.0	-5993.0	-160040.0
3	16	57	53	908	233.0	-200211.0	-5414.0	-130866.0
3	16	57	53	908	234.0	-200276.0	-4728.0	-30191.0
3	16	57	53	909	235.0	-200305.0	-4830.0	63587.0
3	16	57	53	909	236.0	-200390.0	-4781.0	114733.0
3	16	57	53	910	237.0	-200401.0	-4699.0	120193.0
3	16	57	53	933	238.0	-200448.0	-5314.0	97888.0
3	16	57	53	934	239.0	-200341.0	-4767.0	50390.0
3	16	57	53	934	240.0	-200398.0	-6116.0	-15939.0
3	16	57	53	935	241.0	-200416.0	-5391.0	-111225.0
3	16	57	53	935	242.0	-200417.0	-5368.0	-159370.0
3	16	57	53	936	243.0	-200486.0	-4395.0	-120938.0
3	16	57	53	937	244.0	-200406.0	-3497.0	-15327.0
3	16	57	53	937	245.0	-200245.0	-4018.0	73618.0
3	16	57	53	938	246.0	-200181.0	-5730.0	115368.0
3	16	57	53	938	247.0	-200249.0	-5816.0	116145.0
3	16	57	53	939	248.0	-200082.0	-6824.0	93337.0
3	16	57	53	940	249.0	-199976.0	-7013.0	45683.0
3	16	57	53	940	250.0	-200063.0	-6554.0	-23057.0
3	16	57	53	941	251.0	-200156.0	-5327.0	-118892.0
3	16	57	53	941	252.0	-199964.0	-5367.0	-162176.0
3	16	57	53	942	253.0	-199966.0	-5431.0	-115132.0
3	16	57	53	942	254.0	-200031.0	-5574.0	-7715.0
3	16	57	53	955	255.0	-200057.0	-5976.0	79442.0
3	16	57	53	956	0.0	-200144.0	-5448.0	117389.0
3	16	57	53	957	1.0	-200193.0	-5581.0	114961.0
3	16	57	53	957	2.0	-200156.0	-5604.0	88317.0
3	16	57	53	958	3.0	-200094.0	-5352.0	38864.0
3	16	57	53	958	4.0	-200097.0	-5849.0	-32235.0
3	16	57	53	959	5.0	-200077.0	-6724.0	-127782.0
3	16	57	53	960	6.0	-200104.0	-7339.0	-163632.0
3	16	57	53	984	7.0	-200002.0	-5632.0	-110369.0
3	16	57	53	985	8.0	-199995.0	-6108.0	-1674.0
3	16	57	53	986	9.0	-200031.0	-6701.0	84219.0
3	16	57	53	986	10.0	-200036.0	-7454.0	120838.0
3	16	57	53	987	11.0	-199990.0	-8001.0	117620.0
3	16	57	53	988	12.0	-199914.0	-7528.0	87175.0
3	16	57	53	988	13.0	-199869.0	-7110.0	35821.0
3	16	57	54	7	14.0	-199987.0	-7396.0	-39230.0
3	16	57	54	7	15.0	-200087.0	-6851.0	-131955.0
3	16	57	54	8	16.0	-199982.0	-6241.0	-161372.0
3	16	57	54	9	17.0	-199954.0	-6509.0	-101443.0
3	16	57	54	9	18.0	-200033.0	-7137.0	5140.0
3	16	57	54	10	19.0	-200003.0	-7170.0	85953.0
3	16	57	54	11	20.0	-199967.0	-5652.0	117814.0
3	16	57	54	11	21.0	-200062.0	-5875.0	112420.0
3	16	57	54	12	22.0	-200048.0	-5236.0	80199.0
3	16	57	54	13	23.0	-200007.0	-5237.0	27391.0
3	16	57	54	13	24.0	-200084.0	-5323.0	-54063.0
3	16	57	54	14	25.0	-200050.0	-6422.0	-145099.0
3	16	57	54	14	26.0	-200050.0	-6733.0	-167311.0
3	16	57	54	15	27.0	-200079.0	-6037.0	-99636.0
3	16	57	54	15	28.0	-200065.0	-4954.0	10011.0
3	16	57	54	16	29.0	-199997.0	-5685.0	87743.0
3	16	57	54	17	30.0	-200031.0	-5681.0	116167.0
3	16	57	54	17	31.0	-200134.0	-5279.0	111163.0
3	16	57	54	18	32.0	-200065.0	-6019.0	77879.0
3	16	57	54	18	33.0	-200029.0	-5847.0	25392.0
3	16	57	54	19	34.0	-199994.0	-6546.0	-55574.0
3	16	57	54	34	35.0	-200049.0	-5884.0	-142771.0
3	16	57	54	34	36.0	-200101.0	-5312.0	-158414.0
3	16	57	54	35	37.0	-200069.0	-5948.0	-84489.0
3	16	57	54	36	38.0	-200049.0	-5689.0	21779.0
3	16	57	54	36	39.0	-200204.0	-5321.0	93816.0
3	16	57	54	37	40.0	-200242.0	-6295.0	118018.0
3	16	57	54	37	41.0	-200126.0	-6226.0	109671.0
3	16	57	54	38	42.0	-200220.0	-5842.0	73396.0
3	16	57	54	38	43.0	-200324.0	-4810.0	19936.0
3	16	57	54	39	44.0	-200306.0	-5522.0	-64879.0
3	16	57	54	57	45.0	-200309.0	-5424.0	-148100.0
3	16	57	54	58	46.0	-200376.0	-5151.0	-157635.0
3	16	57	54	58	47.0	-200254.0	-5286.0	-77619.0
3	16	57	54	59	48.0	-200131.0	-4237.0	27466.0
3	16	57	54	60	49.0	-200153.0	-5014.0	97021.0
3	16	57	54	60	50.0	-200086.0	-5588.0	118403.0
3	16	57	54	61	51.0	-199893.0	-6004.0	107798.0
3	16	57	54	61	52.0	-199923.0	-4772.0	68471.0
3	16	57	54	62	53.0	-200110.0	-4576.0	12794.0
3	16	57	54	83	54.0	-200074.0	-4870.0	-75354.0
3	16	57	54	83	55.0	-200104.0	-4442.0	-152579.0
3	16	57	54	84	56.0	-200119.0	-3220.0	-153259.0
3	16	57	54	85	57.0	-200096.0	-3690.0	-66251.0
3	16	57	54	85	58.0	-200006.0	-4403.0	37959.0
3	16	57	54	86	59.0	-199896.0	-5125.0	102905.0
3	16	57	54	87	60.0	-200003.0	-6362.0	119264.0
3	16	57	54	88	61.0	-199950.0	-6287.0	106546.0
3	16	57	54	88	62.0	-199912.0	-5104.0	66834.0
3	16	57	54	89	63.0	-200009.0	-4772.0	9921.0
3	16	57	54	89	64.0	-200058.0	-5714.0	-80481.0
3	16	57	54	90	65.0	-200153.0	-4429.0	-152739.0
3	16	57	54	90	66.0	-200227.0	-4266.0	-145452.0
3	16	57	54	91	67.0	-200211.0	-5157.0	-52223.0
3	16	57	54	92	68.0	-200076.0	-4203.0	48754.0
3	16	57	54	92	69.0	-200106.0	-4956.0	107546.0
3	16	57	54	93	70.0	-200102.0	-4694.0	120754.0
3	16	57	54	93	71.0	-199998.0	-5001.0	105126.0
3	16	57	54	94	72.0	-199925.0	-5569.0	62608.0
3	16	57	54	106	73.0	-200053.0	-5254.0	3447.0
3	16	57	54	107	74.0	-200105.0	-4792.0	-90407.0
3	16	57	54	107	75.0	-200006.0	-4746.0	-158037.0
3	16	57	54	108	76.0	-200006.0	-5016.0	-142573.0
3	16	57	54	108	77.0	-200003.0	-4761.0	-46532.0
3	16	57	54	109	78.0	-200099.0	-5899.0	51781.0
3	16	57	54	109	79.0	-200127.0	-4932.0	108169.0
3	16	57	54	110	80.0	-200249.0	-4893.0	118609.0
3	16	57	54	111	81.0	-200218.0	-6883.0	102345.0
3	16	57	54	131	82.0	-200134.0	-6173.0	57490.0
3	16	57	54	132	83.0	-200137.0	-4537.0	-6070.0
3	16	57	54	133	84.0	-200130.0	-7021.0	-102855.0
3	16	57	54	133	85.0	-200161.0	-7006.0	-165168.0
3	16	57	54	134	86.0	-200110.0	-6122.0	-141381.0
3	16	57	54	135	87.0	-200039.0	-7394.0	-40469.0
3	16	57	54	135	88.0	-199970.0	-7639.0	56303.0
3	16	57	54	136	89.0	-199984.0	-7120.0	108258.0
3	16	57	54	136	90.0	-199952.0	-7723.0	116851.0
3	16	57	54	137	91.0	-200009.0	-7856.0	97831.0
3	16	57	54	137	92.0	-200114.0	-6957.0	51455.0
3	16	57	54	138	93.0	-200247.0	-5842.0	-13534.0
3	16	57	54	139	94.0	-200237.0	-6244.0	-111142.0
3	16	57	54	139	95.0	-200340.0	-6726.0	-166631.0
3	16	57	54	140	96.0	-200479.0	-6301.0	-133824.0
3	16	57	54	154	97.0	-200434.0	-5527.0	-28562.0
3	16	57	54	154	98.0	-200501.0	-5573.0	65972.0
3	16	57	54	155	99.0	-200651.0	-7116.0	114469.0
3	16	57	54	155	100.0	-200624.0	-6869.0	120403.0
3	16	57	54	156	101.0	-200584.0	-7394.0	98939.0
3	16	57	54	157	102.0	-200569.0	-7792.0	51592.0
3	16	57	54	157	103.0	-200453.0	-6022.0	-15056.0
3	16	57	54	185	104.0	-200432.0	-7012.0	-112069.0
3	16	57	54	185	105.0	-200571.0	-7710.0	-161644.0
3	16	57	54	186	106.0	-200407.0	-7857.0	-121989.0
3	16	57	54	186	107.0	-200218.0	-7427.0	-14128.0
3	16	57	54	187	108.0	-200159.0	-7190.0	75748.0
3	16	57	54	188	109.0	-200019.0	-8337.0	119093.0
3	16	57	54	188	110.0	-200052.0	-8084.0	121208.0
3	16	57	54	189	111.0	-200076.0	-6604.0	97126.0
3	16	57	54	189	112.0	-200093.0	-7796.0	47669.0
3	16	57	54	190	113.0	-200072.0	-7516.0	-22636.0
3	16	57	54	190	114.0	-200049.0	-7601.0	-119607.0
3	16	57	54	191	115.0	-200002.0	-8396.0	-160914.0
3	16	57	54	192	116.0	-199965.0	-8160.0	-112862.0
3	16	57	54	192	117.0	-199959.0	-7801.0	-6472.0
3	16	57	54	193	118.0	-199947.0	-7469.0	80101.0
3	16	57	54	193	119.0	-200027.0	-8712.0	119547.0
3	16	57	54	194	120.0	-199994.0	-9412.0	118356.0
3	16	57	54	195	121.0	-199884.0	-9909.0	88411.0
3	16	57	54	195	122.0	-199901.0	-9108.0	34335.0
3	16	57	54	196	123.0	-199866.0	-9309.0	-40914.0
3	16	57	54	196	124.0	-199972.0	-9197.0	-134926.0
3	16	57	54	197	125.0	-200063.0	-9801.0	-169215.0
3	16	57	54	198	126.0	-200044.0	-8766.0	-113674.0
3	16	57	54	209	127.0	-200032.0	-9542.0	-4619.0
3	16	57	54	210	128.0	-200113.0	-9817.0	78606.0
3	16	57	54	210	129.0	-200113.0	-9403.0	114317.0
3	16	57	54	211	130.0	-200079.0	-8924.0	111900.0
3	16	57	54	211	131.0	-199960.0	-10109.0	82031.0
3	16	57	54	212	132.0	-200002.0	-10153.0	31768.0
3	16	57	54	213	133.0	-200039.0	-11661.0	-45439.0
3	16	57	54	232	134.0	-199916.0	-12735.0	-138561.0
3	16	57	54	232	135.0	-199931.0	-11766.0	-164486.0
3	16	57	54	233	136.0	-199976.0	-11007.0	-100249.0
3	16	57	54	234	137.0	-199814.0	-10414.0	9589.0
3	16	57	54	234	138.0	-199879.0	-8841.0	88706.0
3	16	57	54	235	139.0	-199939.0	-9211.0	118272.0
3	16	57	54	235	140.0	-199962.0	-10178.0	114426.0
3	16	57	54	236	141.0	-199959.0	-10269.0	81994.0
3	16	57	54	254	142.0	-199950.0	-10376.0	28754.0
3	16	57	54	254	143.0	-199955.0	-9872.0	-52146.0
3	16	57	54	255	144.0	-200019.0	-8742.0	-142384.0
3	16	57	54	256	145.0	-200087.0	-10112.0	-161486.0
3	16	57	54	256	146.0	-200027.0	-9789.0	-89883.0
3	16	57	54	257	147.0	-199958.0	-9029.0	18910.0
3	16	57	54	258	148.0	-199987.0	-9851.0	95048.0
3	16	57	54	258	149.0	-199999.0	-11438.0	120534.0
3	16	57	54	259	150.0	-200037.0	-12111.0	114058.0
3	16	57	54	259	151.0	-200022.0	-10971.0	78521.0
3	16	57	54	260	152.0	-200092.0	-8958.0	23930.0
3	16	57	54	260	153.0	-200014.0	-10337.0	-61451.0
3	16	57	54	261	154.0	-199900.0	-11244.0	-150574.0
3	16	57	54	261	155.0	-199992.0	-10471.0	-164135.0
3	16	57	54	262	156.0	-199969.0	-9285.0	-85193.0
3	16	57	54	279	157.0	-199964.0	-8599.0	23717.0
3	16	57	54	280	158.0	-199952.0	-9016.0	98373.0
3	16	57	54	281	159.0	-199919.0	-8021.0	119601.0
3	16	57	54	281	160.0	-199964.0	-8061.0	109954.0
3	16	57	54	282	161.0	-199859.0	-7772.0	72084.0
3	16	57	54	282	162.0	-199951.0	-8323.0	16532.0
3	16	57	54	283	163.0	-199946.0	-8215.0	-72382.0
3	16	57	54	284	164.0	-199982.0	-7927.0	-157179.0
3	16	57	54	284	165.0	-199956.0	-8614.0	-163473.0
3	16	57	54	285	166.0	-199802.0	-7720.0	-77377.0
3	16	57	54	286	167.0	-199832.0	-8328.0	30012.0
3	16	57	54	286	168.0	-199817.0	-7504.0	98586.0
3	16	57	54	287	169.0	-199777.0	-6322.0	115158.0
3	16	57	54	287	170.0	-199781.0	-6629.0	101624.0
3	16	57	54	288	171.0	-199694.0	-7019.0	61780.0
3	16	57	54	302	172.0	-199636.0	-6517.0	6093.0
3	16	57	54	303	173.0	-199720.0	-7297.0	-84587.0
3	16	57	54	303	174.0	-199749.0	-7185.0	-161694.0
3	16	57	54	304	175.0	-199895.0	-7009.0	-159148.0
3	16	57	54	304	176.0	-199991.0	-7172.0	-66456.0
3	16	57	54	305	177.0	-200087.0	-6759.0	41431.0
3	16	57	54	306	178.0	-200167.0	-6131.0	106561.0
3	16	57	54	332	179.0	-200136.0	-4864.0	117503.0
3	16	57	54	332	180.0	-200077.0	-4751.0	102274.0
3	16	57	54	333	181.0	-200056.0	-4728.0	59338.0
3	16	57	54	333	182.0	-199911.0	-4436.0	836.0
3	16	57	54	334	183.0	-199899.0	-5919.0	-92266.0
3	16	57	54	335	184.0	-200016.0	-6980.0	-164535.0
3	16	57	54	335	185.0	-199976.0	-6016.0	-153497.0
3	16	57	54	336	186.0	-199952.0	-6971.0	-58129.0
3	16	57	54	336	187.0	-200017.0	-7046.0	43005.0
3	16	57	54	337	188.0	-200052.0	-4877.0	102461.0
3	16	57	54	337	189.0	-200071.0	-3467.0	117244.0
3	16	57	54	338	190.0	-199916.0	-4601.0	102657.0
3	16	57	54	339	191.0	-199916.0	-4769.0	59312.0
3	16	57	54	339	192.0	-199957.0	-5035.0	-1404.0
3	16	57	54	340	193.0	-199916.0	-3667.0	-96092.0
3	16	57	54	355	194.0	-200059.0	-4384.0	-164313.0
3	16	57	54	356	195.0	-200167.0	-4823.0	-147251.0
3	16	57	54	356	196.0	-200229.0	-3304.0	-48460.0
3	16	57	54	357	197.0	-200260.0	-3086.0	50975.0
3	16	57	54	358	198.0	-200235.0	-3348.0	108504.0
3	16	57	54	359	199.0	-200240.0	-3410.0	119784.0
3	16	57	54	359	200.0	-200274.0	-4449.0	101881.0
3	16	57	54	360	201.0	-200322.0	-3356.0	56310.0
3	16	57	54	360	202.0	-200242.0	-2265.0	-7461.0
3	16	57	54	361	203.0	-200217.0	-2382.0	-105941.0
3	16	57	54	362	204.0	-200234.0	-1524.0	-166657.0
3	16	57	54	362	205.0	-200180.0	-574.0	-138851.0
3	16	57	54	363	206.0	-200116.0	-1414.0	-36057.0
3	16	57	54	363	207.0	-200161.0	-2821.0	58491.0
3	16	57	54	364	208.0	-200290.0	-3413.0	108863.0
3	16	57	54	382	209.0	-200285.0	-3830.0	116978.0
3	16	57	54	382	210.0	-200256.0	-2529.0	96266.0
3	16	57	54	383	211.0	-200307.0	-2775.0	48289.0
3	16	57	54	383	212.0	-200350.0	-1754.0	-19322.0
3	16	57	54	384	213.0	-200287.0	-1668.0	-117951.0
3	16	57	54	385	214.0	-200196.0	-2590.0	-172590.0
3	16	57	54	385	215.0	-200122.0	-2159.0	-138039.0
3	16	57	54	404	216.0	-200021.0	-1039.0	-31789.0
3	16	57	54	405	217.0	-200131.0	-924.0	60755.0
3	16	57	54	406	218.0	-200240.0	-444.0	108128.0
3	16	57	54	406	219.0	-200236.0	313.0	111934.0
3	16	57	54	407	220.0	-200191.0	76.0	87608.0
3	16	57	54	408	221.0	-200137.0	-870.0	37591.0
3	16	57	54	408	222.0	-200133.0	-861.0	-32074.0
3	16	57	54	409	223.0	-200131.0	-380.0	-129531.0
3	16	57	54	410	224.0	-200165.0	-862.0	-176993.0
3	16	57	54	410	225.0	-200077.0	703.0	-135339.0
3	16	57	54	411	226.0	-199985.0	1761.0	-26654.0
3	16	57	54	411	227.0	-199932.0	1257.0	64466.0
3	16	57	54	412	228.0	-199937.0	798.0	108621.0
3	16	57	54	413	229.0	-200001.0	385.0	111450.0
3	16	57	54	413	230.0	-200032.0	1160.0	88001.0
3	16	57	54	414	231.0	-200078.0	1285.0	39473.0
3	16	57	54	414	232.0	-200147.0	1116.0	-32933.0
3	16	57	54	415	233.0	-200280.0	2298.0	-129541.0
3	16	57	54	429	234.0	-200310.0	3013.0	-169390.0
3	16	57	54	430	235.0	-200268.0	3208.0	-119559.0
3	16	57	54	431	236.0	-200306.0	2029.0	-11121.0
3	16	57	54	431	237.0	-200418.0	2523.0	74541.0
3	16	57	54	452	238.0	-200564.0	3052.0	111996.0
3	16	57	54	453	239.0	-200585.0	4167.0	111256.0
3	16	57	54	453	240.0	-200662.0	3404.0	82893.0
3	16	57	54	454	241.0	-200612.0	1898.0	30628.0
3	16	57	54	455	242.0	-200473.0	2304.0	-46123.0
3	16	57	54	455	243.0	-200503.0	3203.0	-141954.0
3	16	57	54	456	244.0	-200502.0	2475.0	-175032.0
3	16	57	54	456	245.0	-200394.0	2213.0	-116498.0
3	16	57	54	457	246.0	-200442.0	3428.0	-7628.0
3	16	57	54	458	247.0	-200414.0	3898.0	75653.0
3	16	57	54	458	248.0	-200371.0	2492.0	110506.0
3	16	57	54	459	249.0	-200310.0	2539.0	107004.0
3	16	57	54	459	250.0	-200284.0	2510.0	75364.0
3	16	57	54	460	251.0	-200236.0	2027.0	23171.0
3	16	57	54	461	252.0	-200325.0	3161.0	-56688.0
3	16	57	54	481	253.0	-200318.0	3249.0	-148614.0
3	16	57	54	481	254.0	-200267.0	3494.0	-172947.0
3	16	57	54	482	255.0	-200307.0	2405.0	-106447.0
3	16	57	54	483	0.0	-200320.0	1643.0	3462.0
3	16	57	54	483	1.0	-200378.0	4675.0	82646.0
3	16	57	54	484	2.0	-200440.0	3111.0	112211.0
3	16	57	54	485	3.0	-200429.0	2511.0	104733.0
3	16	57	54	486	4.0	-200498.0	4176.0	70382.0
3	16	57	54	486	5.0	-200377.0	3474.0	17758.0
3	16	57	54	487	6.0	-200369.0	3816.0	-64076.0
3	16	57	54	487	7.0	-200376.0	3816.0	-152414.0
3	16	57	54	488	8.0	-200377.0	3986.0	-169761.0
3	16	57	54	489	9.0	-200334.0	4267.0	-95041.0
3	16	57	54	489	10.0	-200331.0	3996.0	15763.0
3	16	57	54	490	11.0	-200341.0	3582.0	91670.0
3	16	57	54	490	12.0	-200305.0	3984.0	114695.0
3	16	57	54	491	13.0	-200357.0	5208.0	105576.0
3	16	57	54	492	14.0	-200314.0	5987.0	68378.0
3	16	57	54	492	15.0	-200271.0	4448.0	12214.0
3	16	57	54	493	16.0	-200305.0	4650.0	-74669.0
3	16	57	54	493	17.0	-200139.0	5298.0	-158162.0
3	16	57	54	494	18.0	-200116.0	6387.0	-166562.0
3	16	57	54	514	19.0	-200064.0	6094.0	-84331.0
3	16	57	54	514	20.0	-200026.0	4627.0	24243.0
3	16	57	54	515	21.0	-200177.0	4663.0	96319.0
3	16	57	54	516	22.0	-200321.0	5468.0	116539.0
3	16	57	54	516	23.0	-200379.0	5555.0	107229.0
3	16	57	54	517	24.0	-200524.0	5260.0	68279.0
3	16	57	54	517	25.0	-200549.0	4658.0	9805.0
3	16	57	54	518	26.0	-200554.0	5246.0	-79989.0
3	16	57	54	519	27.0	-200742.0	6121.0	-158974.0
3	16	57	54	537	28.0	-200791.0	6498.0	-162282.0
3	16	57	54	538	29.0	-200809.0	6299.0	-74175.0
3	16	57	54	538	30.0	-200899.0	6246.0	33899.0
3	16	57	54	539	31.0	-200833.0	5723.0	101930.0
3	16	57	54	539	32.0	-200799.0	5382.0	119257.0
3	16	57	54	540	33.0	-200796.0	5652.0	107959.0
3	16	57	54	541	34.0	-200672.0	5734.0	66935.0
3	16	57	54	559	35.0	-200680.0	6721.0	8774.0
3	16	57	54	560	36.0	-200707.0	6609.0	-83554.0
3	16	57	54	560	37.0	-200672.0	5906.0	-159357.0
3	16	57	54	561	38.0	-200694.0	5431.0	-152165.0
3	16	57	54	562	39.0	-200674.0	6439.0	-59004.0
3	16	57	54	562	40.0	-200632.0	5979.0	43336.0
3	16	57	54	563	41.0	-200627.0	4124.0	106206.0
3	16	57	54	563	42.0	-200559.0	5326.0	121394.0
3	16	57	54	564	43.0	-200573.0	5668.0	107301.0
3	16	57	54	565	44.0	-200601.0	6038.0	63970.0
3	16	57	54	565	45.0	-200402.0	6198.0	4972.0
3	16	57	54	566	46.0	-200445.0	5561.0	-88861.0
3	16	57	54	567	47.0	-200567.0	6255.0	-158671.0
3	16	57	54	567	48.0	-200622.0	6441.0	-144608.0
3	16	57	54	568	49.0	-200519.0	6456.0	-47362.0
3	16	57	54	568	50.0	-200450.0	6003.0	53473.0
3	16	57	54	569	51.0	-200519.0	6993.0	112025.0
3	16	57	54	570	52.0	-200675.0	7561.0	122904.0
3	16	57	54	570	53.0	-200627.0	6569.0	106134.0
3	16	57	54	571	54.0	-200513.0	6828.0	61701.0
3	16	57	54	571	55.0	-200504.0	4631.0	-622.0
3	16	57	54	582	56.0	-200562.0	5068.0	-97342.0
3	16	57	54	583	57.0	-200726.0	6121.0	-161247.0
3	16	57	54	583	58.0	-200786.0	7290.0	-137857.0
3	16	57	54	586	59.0	-200561.0	7124.0	-36891.0
3	16	57	54	587	60.0	-200444.0	5577.0	59988.0
3	16	57	54	587	61.0	-200482.0	7378.0	112738.0
3	16	57	54	588	62.0	-200347.0	9226.0	120676.0
3	16	57	54	589	63.0	-200226.0	7430.0	102021.0
3	16	57	54	589	64.0	-200192.0	5765.0	55978.0
3	16	57	54	590	65.0	-200147.0	7037.0	-7463.0
3	16	57	54	613	66.0	-200127.0	7280.0	-103541.0
3	16	57	54	613	67.0	-200167.0	6886.0	-160674.0
3	16	57	54	614	68.0	-200060.0	6218.0	-129494.0
3	16	57	54	615	69.0	-200005.0	7674.0	-26118.0
3	16	57	54	615	70.0	-200030.0	6671.0	67495.0
3	16	57	54	616	71.0	-199857.0	6604.0	116846.0
3	16	57	54	635	72.0	-199989.0	7630.0	123159.0
3	16	57	54	636	73.0	-199994.0	7721.0	102074.0
3	16	57	54	636	74.0	-199961.0	8729.0	54103.0
3	16	57	54	637	75.0	-200087.0	7055.0	-12822.0
3	16	57	54	638	76.0	-200166.0	6044.0	-110501.0
3	16	57	54	639	77.0	-200260.0	6664.0	-160990.0
3	16	57	54	639	78.0	-200272.0	6669.0	-123789.0
3	16	57	54	640	79.0	-200085.0	7495.0	-19514.0
3	16	57	54	640	80.0	-200084.0	7759.0	72804.0
3	16	57	54	641	81.0	-199967.0	6738.0	118906.0
3	16	57	54	642	82.0	-200072.0	6171.0	120916.0
3	16	57	54	642	83.0	-200047.0	8067.0	96699.0
3	16	57	54	643	84.0	-199978.0	6542.0	47119.0
3	16	57	54	643	85.0	-199966.0	4872.0	-23386.0
3	16	57	54	644	86.0	-199988.0	7418.0	-119841.0
3	16	57	54	644	87.0	-200002.0	7231.0	-164248.0
3	16	57	54	645	88.0	-200049.0	7721.0	-118932.0
3	16	57	54	646	89.0	-199923.0	7839.0	-13123.0
3	16	57	54	646	90.0	-199842.0	8349.0	73884.0
3	16	57	54	661	91.0	-199747.0	7202.0	115314.0
3	16	57	54	662	92.0	-199718.0	6629.0	117007.0
3	16	57	54	662	93.0	-199819.0	7867.0	89973.0
3	16	57	54	663	94.0	-199784.0	8253.0	39256.0
3	16	57	54	664	95.0	-199947.0	7393.0	-33090.0
3	16	57	54	664	96.0	-200028.0	6909.0	-129817.0
3	16	57	54	665	97.0	-199982.0	7726.0	-167838.0
3	16	57	54	666	98.0	-200046.0	7456.0	-114162.0
3	16	57	54	666	99.0	-199952.0	6594.0	-5067.0
3	16	57	54	667	100.0	-199931.0	6830.0	79963.0
3	16	57	54	667	101.0	-199939.0	6336.0	116663.0
3	16	57	54	668	102.0	-199873.0	7272.0	115104.0
3	16	57	54	668	103.0	-200037.0	8415.0	85058.0
3	16	57	54	669	104.0	-200052.0	8215.0	33220.0
3	16	57	54	684	105.0	-200161.0	6224.0	-43121.0
3	16	57	54	684	106.0	-200206.0	6450.0	-138842.0
3	16	57	54	685	107.0	-200089.0	7373.0	-170131.0
3	16	57	54	686	108.0	-200251.0	7691.0	-108941.0
3	16	57	54	712	109.0	-200242.0	8164.0	-91.0
3	16	57	54	713	110.0	-200226.0	7083.0	81894.0
3	16	57	54	714	111.0	-200231.0	6666.0	115044.0
3	16	57	54	714	112.0	-200329.0	6743.0	111589.0
3	16	57	54	715	113.0	-200443.0	6677.0	79873.0
3	16	57	54	716	114.0	-200282.0	5725.0	26385.0
3	16	57	54	716	115.0	-200340.0	7077.0	-54977.0
3	16	57	54	717	116.0	-200356.0	7902.0	-145762.0
3	16	57	54	717	117.0	-200481.0	6511.0	-168526.0
3	16	57	54	718	118.0	-200506.0	5768.0	-99861.0
3	16	57	54	719	119.0	-200406.0	7153.0	9864.0
3	16	57	54	719	120.0	-200591.0	6621.0	87261.0
3	16	57	54	720	121.0	-200447.0	5900.0	115175.0
3	16	57	54	720	122.0	-200507.0	7041.0	108158.0
3	16	57	54	721	123.0	-200442.0	7573.0	71573.0
3	16	57	54	721	124.0	-200342.0	7754.0	17613.0
3	16	57	54	722	125.0	-200497.0	7143.0	-64621.0
3	16	57	54	735	126.0	-200279.0	6453.0	-152401.0
3	16	57	54	736	127.0	-200236.0	6731.0	-167793.0
3	16	57	54	737	128.0	-200178.0	5988.0	-90881.0
3	16	57	54	737	129.0	-200186.0	6032.0	18180.0
3	16	57	54	738	130.0	-200265.0	6141.0	91880.0
3	16	57	54	739	131.0	-200170.0	7489.0	117024.0
3	16	57	54	739	132.0	-200149.0	6739.0	109101.0
3	16	57	54	740	133.0	-200137.0	8286.0	72106.0
3	16	57	54	741	134.0	-200191.0	8419.0	16650.0
3	16	57	54	741	135.0	-200271.0	6706.0	-70634.0
3	16	57	54	742	136.0	-200175.0	7494.0	-152754.0
3	16	57	54	743	137.0	-200170.0	6471.0	-159580.0
3	16	57	54	743	138.0	-200073.0	6469.0	-76009.0
3	16	57	54	744	139.0	-200176.0	7026.0	30758.0
3	16	57	54	744	140.0	-200140.0	6821.0	100888.0
3	16	57	54	745	141.0	-200203.0	7570.0	119808.0
3	16	57	54	745	142.0	-200265.0	6301.0	108463.0
3	16	57	54	761	143.0	-200371.0	6270.0	69311.0
3	16	57	54	761	144.0	-200351.0	7009.0	13005.0
3	16	57	54	762	145.0	-200275.0	6479.0	-76566.0
3	16	57	54	763	146.0	-200451.0	6023.0	-155829.0
3	16	57	54	764	147.0	-200275.0	5559.0	-155862.0
3	16	57	54	764	148.0	-200084.0	5863.0	-67334.0
3	16	57	54	765	149.0	-200163.0	6334.0	38103.0
3	16	57	54	766	150.0	-200319.0	6500.0	104293.0
3	16	57	54	767	151.0	-200247.0	6176.0	119994.0
3	16	57	54	767	152.0	-200304.0	5606.0	106485.0
3	16	57	54	768	153.0	-200352.0	6703.0	64496.0
3	16	57	54	768	154.0	-200279.0	8463.0	6958.0
3	16	57	54	769	155.0	-200437.0	6953.0	-85331.0
3	16	57	54	792	156.0	-200550.0	6488.0	-159576.0
3	16	57	54	793	157.0	-200352.0	6896.0	-151691.0
