31	17	13	20	606	97.0	-210437.0	-1142.0	-2314.0
31	17	13	20	609	98.0	-210247.0	-1122.0	-2587.0
31	17	13	20	611	99.0	-215365.0	-1131.0	-2522.0
31	17	13	20	613	100.0	-232570.0	-1141.0	-2283.0
31	17	13	20	616	101.0	-250566.0	-1140.0	-3319.0
31	17	13	20	618	102.0	-259901.0	-1119.0	-4704.0
31	17	13	20	620	103.0	-262523.0	-1145.0	-4842.0
31	17	13	20	622	104.0	-260939.0	-1182.0	-4693.0
31	17	13	20	624	105.0	-253141.0	-1219.0	-4582.0
31	17	13	20	625	106.0	-251704.0	-1237.0	-3917.0
31	17	13	20	626	107.0	-246112.0	-1264.0	-2924.0
31	17	13	20	626	108.0	-237350.0	-1244.0	-2449.0
31	17	13	20	627	109.0	-230807.0	-1210.0	-2427.0
31	17	13	20	628	110.0	-226386.0	-1194.0	-2435.0
31	17	13	20	629	111.0	-223115.0	-1182.0	-2357.0
31	17	13	20	638	112.0	-221032.0	-1190.0	-2793.0
31	17	13	20	639	113.0	-219692.0	-1207.0	-3114.0
31	17	13	20	639	114.0	-219034.0	-1213.0	-3391.0
31	17	13	20	640	115.0	-219780.0	-1209.0	-3869.0
31	17	13	20	641	116.0	-221550.0	-1227.0	-3151.0
31	17	13	20	641	117.0	-224317.0	-1227.0	-2458.0
31	17	13	20	642	118.0	-227724.0	-1200.0	-2603.0
31	17	13	20	642	119.0	-231619.0	-1187.0	-2071.0
31	17	13	20	671	120.0	-234604.0	-1208.0	-2225.0
31	17	13	20	715	121.0	-233381.0	-1185.0	-2354.0
31	17	13	20	716	122.0	-236243.0	-1193.0	-2192.0
31	17	13	20	716	123.0	-245456.0	-1218.0	-2312.0
31	17	13	20	717	124.0	-249254.0	-1204.0	-3116.0
31	17	13	20	718	125.0	-251821.0	-1209.0	-3179.0
31	17	13	20	718	126.0	-253524.0	-1239.0	-3131.0
31	17	13	20	719	127.0	-254897.0	-1259.0	-3264.0
31	17	13	20	720	128.0	-250670.0	-1257.0	-3271.0
31	17	13	20	720	129.0	-248742.0	-1262.0	-3282.0
31	17	13	20	721	130.0	-256528.0	-1270.0	-2964.0
31	17	13	20	721	131.0	-258109.0	-1282.0	-2983.0
31	17	13	20	722	132.0	-253228.0	-1284.0	-3547.0
31	17	13	20	723	133.0	-246670.0	-1309.0	-3800.0
31	17	13	20	724	134.0	-240334.0	-1294.0	-4192.0
31	17	13	20	724	135.0	-235257.0	-1287.0	-4316.0
31	17	13	20	725	157.0	-269912.0	-1090.0	-2066.0
31	17	13	20	725	158.0	-273961.0	-1081.0	-2061.0
31	17	13	20	726	159.0	-271280.0	-1079.0	-2648.0
31	17	13	20	726	160.0	-267727.0	-1067.0	-2717.0
31	17	13	20	727	161.0	-265159.0	-1048.0	-2636.0
31	17	13	20	728	162.0	-265376.0	-1015.0	-3283.0
31	17	13	20	760	163.0	-266458.0	-1005.0	-3534.0
31	17	13	20	761	164.0	-268064.0	-971.0	-3539.0
31	17	13	20	762	165.0	-269367.0	-969.0	-3583.0
31	17	13	20	763	166.0	-268657.0	-974.0	-3074.0
31	17	13	20	763	167.0	-267035.0	-971.0	-2290.0
31	17	13	20	764	168.0	-265727.0	-967.0	-1746.0
31	17	13	20	764	169.0	-264987.0	-939.0	-1648.0
31	17	13	20	765	170.0	-262929.0	-919.0	-1326.0
31	17	13	20	766	171.0	-257657.0	-912.0	-1512.0
31	17	13	20	766	172.0	-252071.0	-882.0	-1739.0
31	17	13	20	767	173.0	-248072.0	-864.0	-1832.0
31	17	13	20	767	174.0	-246150.0	-839.0	-1919.0
31	17	13	20	768	175.0	-244657.0	-832.0	-2405.0
31	17	13	20	769	176.0	-243635.0	-831.0	-2471.0
31	17	13	20	769	177.0	-242296.0	-821.0	-2219.0
31	17	13	20	770	179.0	-240974.0	-785.0	-1805.0
31	17	13	20	770	180.0	-241580.0	-779.0	-1226.0
31	17	13	20	771	181.0	-243222.0	-781.0	-1154.0
31	17	13	20	771	182.0	-245250.0	-794.0	-1675.0
31	17	13	20	772	183.0	-246692.0	-771.0	-2033.0
31	17	13	20	773	184.0	-247704.0	-756.0	-2095.0
31	17	13	20	805	185.0	-247981.0	-757.0	-2219.0
31	17	13	20	806	186.0	-247557.0	-747.0	-2332.0
31	17	13	20	807	187.0	-246269.0	-764.0	-2664.0
31	17	13	20	807	188.0	-244064.0	-766.0	-2554.0
31	17	13	20	808	189.0	-241239.0	-747.0	-2129.0
31	17	13	20	808	190.0	-237799.0	-737.0	-1561.0
31	17	13	20	809	191.0	-234189.0	-742.0	-1712.0
31	17	13	20	810	192.0	-230116.0	-744.0	-2130.0
31	17	13	20	810	193.0	-227920.0	-742.0	-2231.0
31	17	13	20	811	194.0	-225577.0	-750.0	-2551.0
31	17	13	20	811	195.0	-220271.0	-746.0	-3169.0
31	17	13	20	812	196.0	-212596.0	-766.0	-2911.0
31	17	13	20	813	197.0	-203471.0	-759.0	-2754.0
31	17	13	20	813	198.0	-194604.0	-745.0	-2771.0
31	17	13	20	814	199.0	-186584.0	-758.0	-2471.0
31	17	13	20	814	201.0	-173456.0	-759.0	-2123.0
31	17	13	20	815	202.0	-167585.0	-749.0	-1671.0
31	17	13	20	816	203.0	-161634.0	-750.0	-1380.0
31	17	13	20	816	204.0	-155242.0	-739.0	-1783.0
31	17	13	20	817	205.0	-148552.0	-706.0	-2343.0
31	17	13	20	817	206.0	-141789.0	-704.0	-1706.0
31	17	13	20	818	207.0	-135403.0	-712.0	-1746.0
31	17	13	20	850	208.0	-129978.0	-682.0	-1927.0
31	17	13	20	851	209.0	-125637.0	-671.0	-1517.0
31	17	13	20	851	210.0	-121801.0	-691.0	-1465.0
31	17	13	20	863	211.0	-118273.0	-689.0	-2484.0
31	17	13	20	864	212.0	-115173.0	-671.0	-2774.0
31	17	13	20	864	213.0	-112792.0	-676.0	-2675.0
31	17	13	20	865	214.0	-111411.0	-668.0	-2858.0
31	17	13	20	865	215.0	-111137.0	-663.0	-3339.0
31	17	13	20	866	216.0	-111887.0	-679.0	-2877.0
31	17	13	20	867	217.0	-113576.0	-681.0	-2929.0
31	17	13	20	867	218.0	-115993.0	-681.0	-2395.0
31	17	13	20	868	219.0	-119056.0	-691.0	-1741.0
31	17	13	20	868	220.0	-123692.0	-713.0	-2044.0
31	17	13	20	869	221.0	-129751.0	-705.0	-1908.0
31	17	13	20	869	222.0	-136286.0	-697.0	-1342.0
31	17	13	20	870	224.0	-147745.0	-704.0	-1385.0
31	17	13	20	870	225.0	-152600.0	-736.0	-1227.0
31	17	13	20	871	226.0	-157245.0	-724.0	-1085.0
31	17	13	20	871	227.0	-161657.0	-704.0	-1196.0
31	17	13	20	872	228.0	-165827.0	-682.0	-1170.0
31	17	13	20	873	229.0	-169577.0	-686.0	-1386.0
31	17	13	20	896	230.0	-172246.0	-672.0	-1300.0
31	17	13	20	897	231.0	-173707.0	-666.0	-1428.0
31	17	13	20	897	232.0	-174137.0	-659.0	-1489.0
31	17	13	20	898	233.0	-173790.0	-668.0	-2266.0
31	17	13	20	899	234.0	-173203.0	-672.0	-2726.0
31	17	13	20	940	235.0	-172395.0	-704.0	-2754.0
31	17	13	20	941	236.0	-170918.0	-722.0	-2651.0
31	17	13	20	941	237.0	-169059.0	-731.0	-2596.0
31	17	13	20	942	238.0	-166978.0	-737.0	-2066.0
31	17	13	20	943	239.0	-164719.0	-734.0	-1696.0
31	17	13	20	943	240.0	-162247.0	-718.0	-2115.0
31	17	13	20	944	241.0	-159087.0	-717.0	-2284.0
31	17	13	20	945	242.0	-155434.0	-722.0	-1694.0
31	17	13	20	945	243.0	-151458.0	-722.0	-1422.0
31	17	13	20	946	244.0	-147061.0	-724.0	-1189.0
31	17	13	20	947	246.0	-137880.0	-739.0	-1232.0
31	17	13	20	947	247.0	-133089.0	-747.0	-1232.0
31	17	13	20	948	248.0	-127931.0	-750.0	-1245.0
31	17	13	20	948	249.0	-122632.0	-762.0	-1515.0
31	17	13	20	949	250.0	-117183.0	-819.0	-1934.0
31	17	13	20	950	251.0	-111898.0	-857.0	-2003.0
31	17	13	20	951	13.0	-73852.0	-1249.0	-1341.0
31	17	13	20	952	14.0	-71104.0	-1279.0	-976.0
31	17	13	20	952	15.0	-68189.0	-1277.0	-1285.0
31	17	13	20	953	16.0	-64720.0	-1267.0	-1912.0
31	17	13	20	953	17.0	-61401.0	-1268.0	-1759.0
31	17	13	20	954	18.0	-57925.0	-1243.0	-1532.0
31	17	13	20	954	19.0	-53781.0	-1240.0	-1792.0
31	17	13	20	985	20.0	-48812.0	-1257.0	-2042.0
31	17	13	20	986	21.0	-43396.0	-1287.0	-1707.0
31	17	13	20	986	22.0	-37697.0	-1302.0	-1547.0
31	17	13	20	987	23.0	-30959.0	-1327.0	-1961.0
31	17	13	20	988	24.0	-22622.0	-1359.0	-2248.0
31	17	13	20	988	25.0	-19146.0	-1391.0	-2399.0
31	17	13	20	989	26.0	-21374.0	-1409.0	-1679.0
31	17	13	20	989	27.0	-14892.0	-1428.0	-1052.0
31	17	13	20	990	28.0	-9334.0	-1427.0	-1493.0
31	17	13	20	991	29.0	-6881.0	-1439.0	-1547.0
31	17	13	20	991	30.0	-8553.0	-1451.0	-1464.0
31	17	13	20	992	31.0	-11577.0	-1462.0	-1456.0
31	17	13	20	993	32.0	-14579.0	-1472.0	-1864.0
31	17	13	20	993	33.0	-16419.0	-1474.0	-1634.0
31	17	13	20	994	34.0	-19332.0	-1464.0	-1768.0
31	17	13	20	994	35.0	-24137.0	-1479.0	-1807.0
31	17	13	20	995	36.0	-30381.0	-1502.0	-1707.0
31	17	13	20	996	37.0	-37629.0	-1491.0	-1737.0
31	17	13	20	996	38.0	-45229.0	-1469.0	-2081.0
31	17	13	20	997	39.0	-52975.0	-1453.0	-1709.0
31	17	13	20	998	40.0	-61019.0	-1451.0	-1434.0
31	17	13	20	998	41.0	-69489.0	-1437.0	-1636.0
31	17	13	21	31	42.0	-77696.0	-1389.0	-2014.0
31	17	13	21	32	43.0	-84739.0	-1368.0	-2250.0
31	17	13	21	32	44.0	-89466.0	-1349.0	-2549.0
31	17	13	21	33	45.0	-94854.0	-1362.0	-3017.0
31	17	13	21	33	46.0	-100487.0	-1369.0	-3011.0
31	17	13	21	34	47.0	-107194.0	-1380.0	-3294.0
31	17	13	21	35	48.0	-114480.0	-1380.0	-3609.0
31	17	13	21	35	49.0	-121614.0	-1392.0	-2446.0
31	17	13	21	36	50.0	-128454.0	-1403.0	-1901.0
31	17	13	21	37	51.0	-133971.0	-1422.0	-2064.0
31	17	13	21	37	52.0	-137833.0	-1421.0	-2251.0
31	17	13	21	38	53.0	-141200.0	-1428.0	-2303.0
31	17	13	21	38	54.0	-143767.0	-1426.0	-2797.0
31	17	13	21	39	55.0	-145228.0	-1421.0	-2432.0
31	17	13	21	40	56.0	-145884.0	-1429.0	-1646.0
31	17	13	21	40	58.0	-145664.0	-1475.0	-1198.0
31	17	13	21	41	59.0	-144422.0	-1485.0	-1234.0
31	17	13	21	42	60.0	-141051.0	-1489.0	-1246.0
31	17	13	21	42	61.0	-136092.0	-1479.0	-1216.0
31	17	13	21	43	62.0	-140221.0	-1474.0	-1339.0
31	17	13	21	43	63.0	-137722.0	-1486.0	-1714.0
31	17	13	21	75	64.0	-131041.0	-1498.0	-2417.0
31	17	13	21	76	65.0	-124431.0	-1499.0	-2758.0
31	17	13	21	77	66.0	-120087.0	-1476.0	-2876.0
31	17	13	21	77	67.0	-117832.0	-1479.0	-2970.0
31	17	13	21	78	68.0	-115824.0	-1472.0	-2397.0
31	17	13	21	78	69.0	-113699.0	-1492.0	-1733.0
31	17	13	21	79	70.0	-111771.0	-1527.0	-808.0
31	17	13	21	80	71.0	-110846.0	-1544.0	-712.0
31	17	13	21	80	72.0	-111258.0	-1557.0	-1368.0
31	17	13	21	81	73.0	-112091.0	-1564.0	-1784.0
31	17	13	21	82	74.0	-112622.0	-1577.0	-2117.0
31	17	13	21	82	75.0	-112587.0	-1598.0	-1880.0
31	17	13	21	83	76.0	-112457.0	-1626.0	-2315.0
31	17	13	21	84	77.0	-112906.0	-1626.0	-2136.0
31	17	13	21	84	78.0	-113974.0	-1630.0	-1844.0
31	17	13	21	85	80.0	-116647.0	-1676.0	-486.0
31	17	13	21	85	81.0	-118079.0	-1692.0	-207.0
31	17	13	21	86	82.0	-119464.0	-1677.0	-567.0
31	17	13	21	87	83.0	-120619.0	-1692.0	-1042.0
31	17	13	21	87	84.0	-121704.0	-1679.0	-1501.0
31	17	13	21	88	85.0	-123314.0	-1673.0	-2164.0
31	17	13	21	88	86.0	-125521.0	-1671.0	-2484.0
31	17	13	21	121	87.0	-128457.0	-1668.0	-2773.0
31	17	13	21	122	88.0	-131460.0	-1627.0	-2796.0
31	17	13	21	122	89.0	-134606.0	-1632.0	-2314.0
31	17	13	21	123	90.0	-137681.0	-1659.0	-2101.0
31	17	13	21	124	91.0	-140414.0	-1686.0	-1491.0
31	17	13	21	124	92.0	-142407.0	-1682.0	-814.0
31	17	13	21	125	93.0	-143266.0	-1687.0	-541.0
31	17	13	21	126	94.0	-143121.0	-1712.0	-504.0
31	17	13	21	126	95.0	-141964.0	-1727.0	-723.0
31	17	13	21	127	96.0	-140102.0	-1754.0	-988.0
31	17	13	21	128	97.0	-137568.0	-1767.0	-1568.0
31	17	13	21	128	98.0	-134464.0	-1767.0	-2141.0
31	17	13	21	129	99.0	-131690.0	-1758.0	-2444.0
31	17	13	21	130	100.0	-129650.0	-1744.0	-2204.0
31	17	13	21	130	101.0	-128685.0	-1734.0	-1633.0
31	17	13	21	131	103.0	-129276.0	-1764.0	-1551.0
31	17	13	21	131	104.0	-130837.0	-1779.0	-1726.0
31	17	13	21	132	105.0	-134433.0	-1765.0	-1504.0
31	17	13	21	133	106.0	-139166.0	-1774.0	-1496.0
31	17	13	21	133	107.0	-143101.0	-1773.0	-1631.0
31	17	13	21	134	108.0	-145952.0	-1762.0	-2184.0
31	17	13	21	166	109.0	-147832.0	-1796.0	-2354.0
31	17	13	21	167	110.0	-148597.0	-1787.0	-2189.0
31	17	13	21	167	111.0	-148562.0	-1789.0	-2386.0
31	17	13	21	169	112.0	-147934.0	-1790.0	-2959.0
31	17	13	21	169	113.0	-146683.0	-1802.0	-3106.0
31	17	13	21	170	114.0	-144414.0	-1782.0	-3343.0
31	17	13	21	171	115.0	-141468.0	-1761.0	-3201.0
31	17	13	21	171	116.0	-138739.0	-1751.0	-2847.0
31	17	13	21	172	117.0	-136441.0	-1730.0	-2649.0
31	17	13	21	173	118.0	-134164.0	-1731.0	-3101.0
31	17	13	21	173	119.0	-131754.0	-1726.0	-3896.0
31	17	13	21	174	120.0	-129314.0	-1717.0	-4479.0
31	17	13	21	175	121.0	-127359.0	-1703.0	-5866.0
31	17	13	21	175	122.0	-126521.0	-1696.0	-7409.0
31	17	13	21	176	123.0	-127069.0	-1686.0	-7032.0
31	17	13	21	177	125.0	-132882.0	-1660.0	-4479.0
31	17	13	21	177	126.0	-137414.0	-1661.0	-2539.0
31	17	13	21	178	127.0	-142335.0	-1616.0	-1012.0
31	17	13	21	178	128.0	-147178.0	-1563.0	-261.0
31	17	13	21	179	129.0	-152416.0	-1535.0	1483.0
31	17	13	21	180	130.0	-157574.0	-1514.0	4019.0
31	17	13	21	180	131.0	-162371.0	-1476.0	6859.0
31	17	13	21	211	132.0	-166199.0	-1443.0	9944.0
31	17	13	21	211	133.0	-168399.0	-1440.0	11769.0
31	17	13	21	212	134.0	-168970.0	-1434.0	11758.0
31	17	13	21	302	135.0	-167728.0	-1438.0	11021.0
31	17	13	21	303	136.0	-165141.0	-1422.0	11607.0
31	17	13	21	304	137.0	-161617.0	-1431.0	9173.0
31	17	13	21	304	138.0	-158185.0	-1450.0	6676.0
31	17	13	21	305	139.0	-155339.0	-1454.0	8079.0
31	17	13	21	306	140.0	-153822.0	-1451.0	8379.0
31	17	13	21	306	141.0	-154684.0	-1462.0	10014.0
31	17	13	21	307	142.0	-159023.0	-1462.0	12610.0
31	17	13	21	308	143.0	-166696.0	-1463.0	13224.0
31	17	13	21	308	144.0	-176102.0	-1452.0	11920.0
31	17	13	21	309	145.0	-187349.0	-1454.0	10598.0
31	17	13	21	309	146.0	-200456.0	-1474.0	9461.0
31	17	13	21	310	148.0	-209156.0	-1444.0	6493.0
31	17	13	21	311	149.0	-189834.0	-1434.0	5235.0
31	17	13	21	311	150.0	-153422.0	-1427.0	3538.0
31	17	13	21	312	151.0	-117394.0	-1436.0	1421.0
31	17	13	21	313	193.0	-62157.0	-1441.0	-4300.0
31	17	13	21	314	194.0	-59475.0	-1431.0	-4350.0
31	17	13	21	315	195.0	-57904.0	-1399.0	-4364.0
31	17	13	21	316	196.0	-58022.0	-1394.0	-4849.0
31	17	13	21	316	197.0	-59497.0	-1388.0	-5175.0
31	17	13	21	317	198.0	-62357.0	-1362.0	-5209.0
31	17	13	21	347	199.0	-65869.0	-1367.0	-5086.0
31	17	13	21	348	200.0	-70297.0	-1339.0	-4880.0
31	17	13	21	349	201.0	-76467.0	-1349.0	-4701.0
31	17	13	21	349	202.0	-84288.0	-1369.0	-4621.0
31	17	13	21	350	203.0	-93394.0	-1366.0	-4517.0
31	17	13	21	350	204.0	-101362.0	-1354.0	-4544.0
31	17	13	21	351	205.0	-109804.0	-1342.0	-4426.0
31	17	13	21	352	206.0	-117511.0	-1330.0	-4089.0
31	17	13	21	353	207.0	-125118.0	-1302.0	-4699.0
31	17	13	21	353	208.0	-132764.0	-1329.0	-4939.0
31	17	13	21	354	209.0	-139852.0	-1369.0	-4236.0
31	17	13	21	355	210.0	-146499.0	-1357.0	-4040.0
31	17	13	21	355	211.0	-151530.0	-1317.0	-3969.0
31	17	13	21	356	212.0	-154626.0	-1306.0	-4022.0
31	17	13	21	356	213.0	-156497.0	-1334.0	-4311.0
31	17	13	21	357	215.0	-159202.0	-1321.0	-5033.0
31	17	13	21	358	216.0	-161047.0	-1317.0	-5040.0
31	17	13	21	358	217.0	-163114.0	-1282.0	-5496.0
31	17	13	21	359	218.0	-166142.0	-1291.0	-5918.0
31	17	13	21	359	219.0	-169388.0	-1292.0	-5896.0
31	17	13	21	360	220.0	-172036.0	-1285.0	-5197.0
31	17	13	21	391	221.0	-174760.0	-1289.0	-4828.0
31	17	13	21	392	222.0	-177712.0	-1276.0	-4517.0
31	17	13	21	393	223.0	-180064.0	-1291.0	-4071.0
31	17	13	21	394	224.0	-181709.0	-1314.0	-4666.0
31	17	13	21	394	225.0	-183307.0	-1334.0	-5216.0
31	17	13	21	395	226.0	-184051.0	-1342.0	-5033.0
31	17	13	21	396	227.0	-183794.0	-1339.0	-4942.0
31	17	13	21	396	228.0	-183676.0	-1352.0	-4943.0
31	17	13	21	397	229.0	-182807.0	-1365.0	-4332.0
31	17	13	21	398	230.0	-180554.0	-1378.0	-4327.0
31	17	13	21	398	231.0	-178006.0	-1389.0	-4551.0
31	17	13	21	399	232.0	-175708.0	-1417.0	-4403.0
31	17	13	21	400	233.0	-173296.0	-1424.0	-4136.0
31	17	13	21	400	234.0	-170592.0	-1445.0	-4182.0
31	17	13	21	401	235.0	-168269.0	-1459.0	-4638.0
31	17	13	21	402	237.0	-165451.0	-1509.0	-6074.0
31	17	13	21	402	238.0	-165447.0	-1529.0	-5646.0
31	17	13	21	403	239.0	-165907.0	-1534.0	-5253.0
31	17	13	21	403	240.0	-166646.0	-1532.0	-4386.0
31	17	13	21	404	241.0	-166607.0	-1526.0	-3449.0
31	17	13	21	405	242.0	-166582.0	-1526.0	-3448.0
31	17	13	21	405	243.0	-167199.0	-1532.0	-4014.0
31	17	13	21	436	244.0	-168642.0	-1527.0	-4803.0
31	17	13	21	436	245.0	-171054.0	-1534.0	-4632.0
31	17	13	21	437	246.0	-173476.0	-1544.0	-4484.0
31	17	13	21	438	247.0	-175502.0	-1530.0	-4795.0
31	17	13	21	438	248.0	-176738.0	-1560.0	-3971.0
31	17	13	21	439	249.0	-177425.0	-1579.0	-3281.0
31	17	13	21	440	250.0	-177759.0	-1592.0	-3161.0
31	17	13	21	440	251.0	-177161.0	-1613.0	-2869.0
31	17	13	21	441	252.0	-176679.0	-1615.0	-1847.0
31	17	13	21	442	253.0	-176164.0	-1624.0	-1784.0
31	17	13	21	442	254.0	-175769.0	-1639.0	-2551.0
31	17	13	21	443	255.0	-175427.0	-1662.0	-2291.0
31	17	13	21	444	0.0	-175156.0	-1694.0	-2196.0
31	17	13	21	444	1.0	-174418.0	-1723.0	-3370.0
31	17	13	21	445	2.0	-172963.0	-1739.0	-3752.0
31	17	13	21	445	4.0	-168901.0	-1811.0	-4532.0
31	17	13	21	446	5.0	-166282.0	-1819.0	-4139.0
31	17	13	21	447	6.0	-163207.0	-1802.0	-2576.0
31	17	13	21	447	7.0	-159897.0	-1811.0	-847.0
31	17	13	21	448	8.0	-156641.0	-1814.0	-441.0
31	17	13	21	448	9.0	-153337.0	-1841.0	-303.0
31	17	13	21	482	10.0	-150207.0	-1840.0	-291.0
31	17	13	21	483	11.0	-147500.0	-1846.0	-667.0
31	17	13	21	483	12.0	-145194.0	-1871.0	-684.0
31	17	13	21	484	13.0	-143367.0	-1871.0	-508.0
31	17	13	21	485	14.0	-141931.0	-1881.0	-690.0
31	17	13	21	485	15.0	-140459.0	-1898.0	-524.0
31	17	13	21	486	16.0	-139049.0	-1893.0	-591.0
31	17	13	21	487	17.0	-138073.0	-1909.0	-1283.0
31	17	13	21	488	18.0	-137835.0	-1920.0	-2676.0
31	17	13	21	488	19.0	-138384.0	-1934.0	-4164.0
31	17	13	21	489	20.0	-139412.0	-1941.0	-4595.0
31	17	13	21	490	21.0	-141646.0	-1926.0	-4093.0
31	17	13	21	490	22.0	-145147.0	-1934.0	-2954.0
31	17	13	21	491	23.0	-149590.0	-1938.0	-1876.0
31	17	13	21	492	24.0	-155309.0	-1937.0	-382.0
31	17	13	21	492	26.0	-168749.0	-1952.0	-1087.0
31	17	13	21	493	27.0	-175470.0	-1941.0	-1076.0
31	17	13	21	493	28.0	-182353.0	-1949.0	-837.0
31	17	13	21	494	29.0	-189244.0	-1928.0	-1037.0
31	17	13	21	495	30.0	-195793.0	-1926.0	-1183.0
31	17	13	21	495	31.0	-201454.0	-1916.0	-1249.0
31	17	13	21	496	32.0	-205889.0	-1922.0	-1618.0
31	17	13	21	525	33.0	-208652.0	-1925.0	-1799.0
31	17	13	21	526	34.0	-208344.0	-1901.0	-1562.0
31	17	13	21	527	35.0	-200988.0	-1887.0	-1509.0
31	17	13	21	527	36.0	-185086.0	-1915.0	-2050.0
31	17	13	21	528	37.0	-163596.0	-1897.0	-2634.0
31	17	13	21	529	38.0	-148051.0	-1885.0	-2734.0
31	17	13	21	530	39.0	-148441.0	-1876.0	-2612.0
31	17	13	21	530	40.0	-155051.0	-1872.0	-2809.0
31	17	13	21	531	41.0	-172654.0	-1861.0	-3059.0
31	17	13	21	532	42.0	-195300.0	-1876.0	-3121.0
31	17	13	21	532	43.0	-210449.0	-1893.0	-3611.0
31	17	13	21	533	44.0	-215814.0	-1894.0	-3681.0
31	17	13	21	534	45.0	-217703.0	-1883.0	-4031.0
31	17	13	21	534	46.0	-216072.0	-1897.0	-4166.0
31	17	13	21	535	47.0	-210119.0	-1911.0	-3818.0
31	17	13	21	536	49.0	-194538.0	-1917.0	-4165.0
31	17	13	21	536	50.0	-188849.0	-1920.0	-3742.0
31	17	13	21	537	51.0	-185467.0	-1903.0	-3598.0
31	17	13	21	538	52.0	-180911.0	-1890.0	-3141.0
31	17	13	21	538	53.0	-173602.0	-1878.0	-3299.0
31	17	13	21	539	54.0	-165211.0	-1855.0	-3809.0
31	17	13	21	570	55.0	-156231.0	-1832.0	-3666.0
31	17	13	21	571	56.0	-148252.0	-1817.0	-3032.0
31	17	13	21	615	57.0	-142060.0	-1791.0	-3286.0
31	17	13	21	616	58.0	-136737.0	-1787.0	-3639.0
31	17	13	21	617	59.0	-132220.0	-1816.0	-3433.0
31	17	13	21	618	60.0	-128834.0	-1840.0	-3586.0
31	17	13	21	618	61.0	-126228.0	-1848.0	-4197.0
31	17	13	21	619	62.0	-123752.0	-1868.0	-4472.0
31	17	13	21	620	63.0	-120971.0	-1883.0	-4161.0
31	17	13	21	621	64.0	-118604.0	-1895.0	-4087.0
31	17	13	21	622	65.0	-116544.0	-1894.0	-4804.0
31	17	13	21	623	66.0	-114920.0	-1912.0	-5532.0
31	17	13	21	624	67.0	-114649.0	-1934.0	-5413.0
31	17	13	21	624	68.0	-115237.0	-1956.0	-4504.0
31	17	13	21	625	69.0	-116242.0	-1957.0	-3091.0
31	17	13	21	626	71.0	-119374.0	-1969.0	-1417.0
31	17	13	21	626	72.0	-121122.0	-1983.0	-1294.0
31	17	13	21	627	94.0	-173362.0	-2008.0	-4401.0
31	17	13	21	628	95.0	-176344.0	-2003.0	-4112.0
31	17	13	21	628	96.0	-178306.0	-2007.0	-3771.0
31	17	13	21	629	97.0	-179790.0	-1983.0	-3676.0
31	17	13	21	629	98.0	-180833.0	-1977.0	-2583.0
31	17	13	21	630	99.0	-181660.0	-1959.0	-1861.0
31	17	13	21	661	100.0	-182659.0	-1957.0	-2166.0
31	17	13	21	662	101.0	-183775.0	-1941.0	-2376.0
31	17	13	21	663	102.0	-184786.0	-1949.0	-2207.0
31	17	13	21	664	103.0	-186732.0	-1951.0	-2515.0
31	17	13	21	664	104.0	-189517.0	-1947.0	-2467.0
31	17	13	21	665	105.0	-192252.0	-1966.0	-1907.0
31	17	13	21	666	106.0	-193941.0	-1989.0	-2361.0
31	17	13	21	667	107.0	-194838.0	-2000.0	-3452.0
31	17	13	21	667	108.0	-194661.0	-2017.0	-3719.0
31	17	13	21	668	109.0	-193294.0	-2061.0	-3536.0
31	17	13	21	669	110.0	-191620.0	-2067.0	-3467.0
31	17	13	21	669	111.0	-190167.0	-2091.0	-3477.0
31	17	13	21	670	112.0	-187946.0	-2116.0	-2342.0
31	17	13	21	671	113.0	-185072.0	-2141.0	-1690.0
31	17	13	21	671	114.0	-182939.0	-2148.0	-1538.0
31	17	13	21	672	116.0	-184286.0	-2206.0	-976.0
31	17	13	21	673	117.0	-180333.0	-2193.0	-1579.0
31	17	13	21	673	118.0	-177347.0	-2184.0	-1966.0
31	17	13	21	674	119.0	-176627.0	-2164.0	-2314.0
31	17	13	21	675	120.0	-176733.0	-2136.0	-2314.0
31	17	13	21	675	121.0	-175676.0	-2136.0	-2509.0
31	17	13	21	676	122.0	-173632.0	-2146.0	-2259.0
31	17	13	21	706	123.0	-171003.0	-2129.0	-2510.0
31	17	13	21	707	124.0	-168154.0	-2101.0	-2939.0
31	17	13	21	707	125.0	-165784.0	-2109.0	-3412.0
31	17	13	21	708	126.0	-164775.0	-2123.0	-4148.0
31	17	13	21	709	127.0	-164506.0	-2120.0	-3751.0
31	17	13	21	710	128.0	-164277.0	-2106.0	-3194.0
31	17	13	21	710	129.0	-163987.0	-2115.0	-3376.0
31	17	13	21	711	130.0	-163594.0	-2129.0	-2794.0
31	17	13	21	712	131.0	-163007.0	-2140.0	-2137.0
31	17	13	21	713	132.0	-162529.0	-2156.0	-2155.0
31	17	13	21	713	133.0	-162052.0	-2154.0	-2226.0
31	17	13	21	714	134.0	-161807.0	-2128.0	-2187.0
31	17	13	21	715	135.0	-161338.0	-2124.0	-2119.0
31	17	13	21	715	136.0	-160778.0	-2126.0	-2097.0
31	17	13	21	716	137.0	-160568.0	-2109.0	-2156.0
31	17	13	21	717	139.0	-162736.0	-2136.0	-2576.0
31	17	13	21	717	140.0	-164556.0	-2117.0	-2327.0
31	17	13	21	718	141.0	-166048.0	-2102.0	-2038.0
31	17	13	21	719	142.0	-167739.0	-2101.0	-1443.0
31	17	13	21	719	143.0	-169592.0	-2082.0	-1710.0
31	17	13	21	720	144.0	-170665.0	-2061.0	-1804.0
31	17	13	21	751	145.0	-171349.0	-2043.0	-2113.0
31	17	13	21	752	146.0	-172072.0	-2007.0	-2631.0
31	17	13	21	753	147.0	-172622.0	-1984.0	-2917.0
31	17	13	21	753	148.0	-172987.0	-1997.0	-4029.0
31	17	13	21	754	149.0	-173519.0	-2006.0	-5257.0
31	17	13	21	755	150.0	-174587.0	-2000.0	-5258.0
31	17	13	21	756	151.0	-176226.0	-1991.0	-4167.0
31	17	13	21	756	152.0	-177826.0	-2007.0	-2741.0
31	17	13	21	757	153.0	-179589.0	-2006.0	-892.0
31	17	13	21	758	154.0	-181957.0	-2014.0	494.0
31	17	13	21	758	155.0	-184751.0	-2032.0	-144.0
31	17	13	21	759	156.0	-187473.0	-2019.0	-607.0
31	17	13	21	760	157.0	-189932.0	-2003.0	-1241.0
31	17	13	21	761	158.0	-191449.0	-2003.0	-1966.0
31	17	13	21	761	159.0	-191465.0	-1988.0	-1859.0
31	17	13	21	762	161.0	-189652.0	-1964.0	-3233.0
31	17	13	21	762	162.0	-188927.0	-1947.0	-2719.0
31	17	13	21	763	163.0	-187887.0	-1911.0	-2239.0
31	17	13	21	764	164.0	-186734.0	-1861.0	-2911.0
31	17	13	21	764	165.0	-185436.0	-1823.0	-2828.0
31	17	13	21	765	166.0	-184227.0	-1787.0	-1950.0
31	17	13	21	795	167.0	-183534.0	-1748.0	-2099.0
31	17	13	21	796	168.0	-182993.0	-1706.0	-2443.0
31	17	13	21	797	169.0	-181812.0	-1679.0	-1978.0
31	17	13	21	798	170.0	-180394.0	-1683.0	-2357.0
31	17	13	21	799	171.0	-179378.0	-1706.0	-2678.0
31	17	13	21	800	172.0	-178608.0	-1707.0	-2293.0
31	17	13	21	800	173.0	-178055.0	-1707.0	-1801.0
31	17	13	21	801	174.0	-177464.0	-1696.0	-1464.0
31	17	13	21	802	175.0	-176590.0	-1721.0	-1320.0
31	17	13	21	802	176.0	-175234.0	-1722.0	-1477.0
31	17	13	21	803	177.0	-173862.0	-1691.0	-1530.0
31	17	13	21	804	178.0	-172113.0	-1702.0	-1821.0
31	17	13	21	805	179.0	-170330.0	-1692.0	-2021.0
31	17	13	21	805	180.0	-168794.0	-1681.0	-2321.0
31	17	13	21	806	181.0	-167211.0	-1676.0	-2353.0
31	17	13	21	807	184.0	-161986.0	-1649.0	-2831.0
31	17	13	21	807	185.0	-160043.0	-1639.0	-2416.0
31	17	13	21	808	186.0	-157856.0	-1602.0	-2522.0
31	17	13	21	809	187.0	-155556.0	-1584.0	-2726.0
31	17	13	21	809	188.0	-154001.0	-1562.0	-2832.0
31	17	13	21	810	189.0	-152627.0	-1544.0	-4171.0
31	17	13	21	840	190.0	-151437.0	-1539.0	-5262.0
31	17	13	21	841	191.0	-150486.0	-1527.0	-4731.0
31	17	13	21	842	192.0	-149935.0	-1534.0	-3543.0
31	17	13	21	843	193.0	-149262.0	-1542.0	-2120.0
31	17	13	21	844	194.0	-149104.0	-1557.0	-526.0
31	17	13	21	845	195.0	-149521.0	-1601.0	739.0
31	17	13	21	846	196.0	-149702.0	-1602.0	-354.0
31	17	13	21	847	197.0	-150091.0	-1592.0	-992.0
31	17	13	21	848	198.0	-150353.0	-1612.0	-1542.0
31	17	13	21	848	199.0	-150314.0	-1617.0	-1681.0
31	17	13	21	849	200.0	-150199.0	-1616.0	-2581.0
31	17	13	21	850	201.0	-150157.0	-1631.0	-2607.0
31	17	13	21	851	202.0	-149877.0	-1654.0	-1778.0
31	17	13	21	851	203.0	-150501.0	-1644.0	-2167.0
31	17	13	21	852	204.0	-151295.0	-1657.0	-2651.0
31	17	13	21	853	206.0	-152975.0	-1664.0	-3234.0
31	17	13	21	853	207.0	-155034.0	-1667.0	-3466.0
31	17	13	21	854	208.0	-158126.0	-1632.0	-3139.0
31	17	13	21	854	209.0	-161582.0	-1637.0	-2690.0
31	17	13	21	855	210.0	-164761.0	-1656.0	-3005.0
31	17	13	21	856	211.0	-167845.0	-1676.0	-2696.0
31	17	13	21	856	212.0	-171176.0	-1689.0	-2040.0
31	17	13	21	885	213.0	-174099.0	-1679.0	-1927.0
31	17	13	21	886	214.0	-176539.0	-1676.0	-1700.0
31	17	13	21	887	215.0	-178525.0	-1697.0	-1804.0
31	17	13	21	887	216.0	-179966.0	-1706.0	-2621.0
31	17	13	21	930	217.0	-181081.0	-1724.0	-3164.0
31	17	13	21	977	218.0	-181301.0	-1769.0	-2932.0
31	17	13	21	978	219.0	-182067.0	-1800.0	-2549.0
31	17	13	21	978	220.0	-183165.0	-1822.0	-2707.0
31	17	13	21	979	221.0	-183636.0	-1834.0	-2451.0
31	17	13	21	980	222.0	-183332.0	-1852.0	-2187.0
31	17	13	21	981	223.0	-182225.0	-1865.0	-1387.0
31	17	13	21	981	224.0	-180860.0	-1859.0	-1153.0
31	17	13	21	982	225.0	-178852.0	-1854.0	-1336.0
31	17	13	21	982	226.0	-175964.0	-1854.0	-2763.0
31	17	13	21	983	227.0	-172693.0	-1862.0	-3902.0
31	17	13	21	984	228.0	-169485.0	-1845.0	-4803.0
31	17	13	21	984	229.0	-166755.0	-1841.0	-5196.0
31	17	13	21	985	230.0	-164627.0	-1827.0	-4186.0
31	17	13	21	986	231.0	-163455.0	-1821.0	-1562.0
31	17	13	21	986	232.0	-162461.0	-1819.0	-933.0
31	17	13	21	987	17.0	-194808.0	-2316.0	-1853.0
31	17	13	21	987	18.0	-196449.0	-2334.0	-1912.0
31	17	13	21	988	19.0	-197597.0	-2337.0	-1480.0
31	17	13	21	989	20.0	-198256.0	-2338.0	-1414.0
31	17	13	22	20	21.0	-198947.0	-2327.0	-2175.0
31	17	13	22	21	22.0	-199730.0	-2307.0	-2641.0
31	17	13	22	22	23.0	-200197.0	-2294.0	-3131.0
31	17	13	22	23	24.0	-201013.0	-2294.0	-4107.0
31	17	13	22	23	25.0	-202107.0	-2259.0	-4202.0
31	17	13	22	24	26.0	-203178.0	-2254.0	-3382.0
31	17	13	22	25	27.0	-203864.0	-2264.0	-2606.0
31	17	13	22	25	28.0	-204186.0	-2276.0	-2172.0
31	17	13	22	26	29.0	-203924.0	-2290.0	-1831.0
31	17	13	22	27	30.0	-203299.0	-2276.0	-2622.0
31	17	13	22	27	31.0	-201916.0	-2271.0	-4599.0
31	17	13	22	28	32.0	-200466.0	-2279.0	-5710.0
31	17	13	22	29	33.0	-199112.0	-2309.0	-7146.0
31	17	13	22	29	34.0	-197954.0	-2301.0	-7764.0
31	17	13	22	30	35.0	-197319.0	-2290.0	-6107.0
31	17	13	22	31	36.0	-196141.0	-2300.0	-4091.0
31	17	13	22	31	40.0	-198436.0	-2347.0	-1147.0
31	17	13	22	32	41.0	-200344.0	-2381.0	-213.0
31	17	13	22	33	42.0	-201813.0	-2376.0	2133.0
31	17	13	22	33	43.0	-202762.0	-2366.0	3928.0
31	17	13	22	34	44.0	-203143.0	-2356.0	5315.0
31	17	13	22	35	45.0	-201707.0	-2364.0	6056.0
31	17	13	22	35	46.0	-199013.0	-2365.0	5674.0
31	17	13	22	65	47.0	-195737.0	-2369.0	5752.0
31	17	13	22	66	48.0	-191672.0	-2378.0	5153.0
31	17	13	22	67	49.0	-188384.0	-2384.0	3824.0
31	17	13	22	68	50.0	-185617.0	-2379.0	4991.0
31	17	13	22	69	51.0	-184771.0	-2399.0	6980.0
31	17	13	22	69	52.0	-186016.0	-2393.0	10140.0
31	17	13	22	70	53.0	-187887.0	-2402.0	13073.0
31	17	13	22	71	54.0	-191428.0	-2407.0	13530.0
31	17	13	22	71	55.0	-195556.0	-2425.0	13226.0
31	17	13	22	72	56.0	-201837.0	-2454.0	11708.0
31	17	13	22	73	57.0	-211174.0	-2465.0	10355.0
31	17	13	22	74	58.0	-221254.0	-2481.0	9433.0
31	17	13	22	74	59.0	-230099.0	-2492.0	8186.0
31	17	13	22	75	60.0	-237420.0	-2484.0	6423.0
31	17	13	22	76	61.0	-235508.0	-2491.0	4993.0
31	17	13	22	76	62.0	-218196.0	-2516.0	3886.0
31	17	13	22	77	63.0	-197721.0	-2511.0	2198.0
31	17	13	22	78	64.0	-175311.0	-2518.0	814.0
31	17	13	22	78	65.0	-148818.0	-2519.0	-86.0
31	17	13	22	79	66.0	-118188.0	-2528.0	-1404.0
31	17	13	22	80	67.0	-85472.0	-2516.0	-2635.0
31	17	13	22	80	68.0	-55609.0	-2479.0	-3307.0
31	17	13	22	112	69.0	-35661.0	-2438.0	-4095.0
31	17	13	22	113	70.0	-38546.0	-2397.0	-4636.0
31	17	13	22	113	71.0	-68660.0	-2389.0	-4421.0
31	17	13	22	114	72.0	-116291.0	-2376.0	-3550.0
31	17	13	22	115	73.0	-160558.0	-2366.0	-3077.0
31	17	13	22	116	74.0	-188586.0	-2356.0	-2595.0
31	17	13	22	116	75.0	-203096.0	-2369.0	-2467.0
31	17	13	22	117	76.0	-209276.0	-2361.0	-2138.0
31	17	13	22	118	77.0	-211657.0	-2334.0	-2331.0
31	17	13	22	118	78.0	-216353.0	-2327.0	-2956.0
31	17	13	22	119	79.0	-225953.0	-2316.0	-4425.0
31	17	13	22	120	80.0	-239576.0	-2311.0	-4939.0
31	17	13	22	120	81.0	-257114.0	-2314.0	-5236.0
31	17	13	22	121	82.0	-277597.0	-2322.0	-5384.0
31	17	13	22	122	83.0	-300657.0	-2296.0	-5391.0
31	17	13	22	122	85.0	-344769.0	-2293.0	-2970.0
31	17	13	22	123	86.0	-356942.0	-2283.0	-3963.0
31	17	13	22	124	87.0	-361413.0	-2256.0	-4247.0
31	17	13	22	124	88.0	-360639.0	-2205.0	-5191.0
31	17	13	22	125	89.0	-356567.0	-2171.0	-5800.0
31	17	13	22	125	90.0	-351273.0	-2162.0	-5322.0
31	17	13	22	156	91.0	-346061.0	-2134.0	-4305.0
31	17	13	22	157	92.0	-337842.0	-2117.0	-3442.0
31	17	13	22	158	93.0	-326804.0	-2092.0	-3252.0
31	17	13	22	158	94.0	-312677.0	-2076.0	-2852.0
31	17	13	22	159	95.0	-295934.0	-2064.0	-2424.0
31	17	13	22	159	96.0	-278573.0	-2057.0	-2974.0
31	17	13	22	160	97.0	-260908.0	-2046.0	-3354.0
31	17	13	22	161	98.0	-243624.0	-2042.0	-3619.0
31	17	13	22	161	99.0	-226480.0	-2028.0	-3799.0
31	17	13	22	162	100.0	-209859.0	-2038.0	-4197.0
31	17	13	22	162	101.0	-194561.0	-2007.0	-4395.0
31	17	13	22	163	102.0	-180911.0	-1991.0	-4394.0
31	17	13	22	163	103.0	-169083.0	-1991.0	-4985.0
31	17	13	22	164	104.0	-159845.0	-2002.0	-5251.0
31	17	13	22	165	105.0	-153417.0	-2044.0	-4821.0
31	17	13	22	165	107.0	-143666.0	-1999.0	-4776.0
31	17	13	22	166	108.0	-141016.0	-2001.0	-4490.0
31	17	13	22	166	109.0	-140327.0	-2006.0	-4355.0
31	17	13	22	167	110.0	-140136.0	-1991.0	-4937.0
31	17	13	22	168	111.0	-140677.0	-1971.0	-5321.0
31	17	13	22	168	112.0	-142281.0	-1947.0	-4552.0
31	17	13	22	169	113.0	-146174.0	-1928.0	-5091.0
31	17	13	22	292	114.0	-152497.0	-1908.0	-5567.0
31	17	13	22	292	115.0	-161074.0	-1899.0	-5663.0
31	17	13	22	293	116.0	-170508.0	-1908.0	-5563.0
31	17	13	22	294	117.0	-181242.0	-1901.0	-5559.0
31	17	13	22	294	118.0	-192685.0	-1914.0	-5313.0
31	17	13	22	295	119.0	-205971.0	-1911.0	-6339.0
31	17	13	22	296	120.0	-220327.0	-1921.0	-7034.0
31	17	13	22	296	121.0	-234176.0	-1938.0	-7074.0
31	17	13	22	297	122.0	-247406.0	-1971.0	-6211.0
31	17	13	22	297	123.0	-260177.0	-1991.0	-5242.0
31	17	13	22	298	124.0	-272994.0	-2004.0	-4393.0
31	17	13	22	298	125.0	-286181.0	-2021.0	-3236.0
31	17	13	22	299	126.0	-299029.0	-2034.0	-2861.0
31	17	13	22	300	127.0	-310527.0	-2044.0	-3287.0
31	17	13	22	300	128.0	-320852.0	-2078.0	-3792.0
31	17	13	22	301	130.0	-336554.0	-2106.0	-4636.0
31	17	13	22	301	175.0	-213116.0	-1836.0	-1879.0
31	17	13	22	302	176.0	-208120.0	-1855.0	-1114.0
31	17	13	22	302	177.0	-204314.0	-1848.0	-977.0
31	17	13	22	303	178.0	-201849.0	-1843.0	-911.0
31	17	13	22	304	179.0	-200466.0	-1837.0	-1084.0
31	17	13	22	304	180.0	-199119.0	-1831.0	-986.0
31	17	13	22	337	181.0	-198016.0	-1852.0	-839.0
31	17	13	22	338	182.0	-197121.0	-1862.0	-1089.0
31	17	13	22	338	183.0	-196886.0	-1866.0	-1081.0
31	17	13	22	340	184.0	-197431.0	-1890.0	-1243.0
31	17	13	22	340	185.0	-198944.0	-1884.0	-1321.0
31	17	13	22	341	186.0	-200336.0	-1889.0	-1123.0
31	17	13	22	341	187.0	-201889.0	-1907.0	-1047.0
31	17	13	22	342	188.0	-204074.0	-1922.0	-1441.0
31	17	13	22	343	189.0	-207266.0	-1937.0	-1563.0
31	17	13	22	343	190.0	-211411.0	-1936.0	-1429.0
31	17	13	22	344	191.0	-216566.0	-1922.0	-1481.0
31	17	13	22	344	192.0	-222549.0	-1954.0	-1949.0
31	17	13	22	345	193.0	-229272.0	-1969.0	-2232.0
31	17	13	22	346	194.0	-235684.0	-1967.0	-1999.0
31	17	13	22	346	195.0	-241061.0	-1989.0	-2113.0
31	17	13	22	347	197.0	-249732.0	-2003.0	-2479.0
31	17	13	22	347	198.0	-252407.0	-2036.0	-3111.0
31	17	13	22	348	199.0	-253395.0	-2038.0	-4131.0
31	17	13	22	348	200.0	-252659.0	-2042.0	-4633.0
31	17	13	22	380	201.0	-247366.0	-2029.0	-3982.0
31	17	13	22	381	202.0	-233927.0	-2043.0	-3167.0
31	17	13	22	382	203.0	-210247.0	-2028.0	-2479.0
31	17	13	22	382	204.0	-180115.0	-2007.0	-2205.0
31	17	13	22	383	205.0	-152181.0	-2003.0	-2376.0
31	17	13	22	384	206.0	-144337.0	-1988.0	-2600.0
31	17	13	22	384	207.0	-148819.0	-1993.0	-3066.0
31	17	13	22	385	208.0	-167398.0	-2012.0	-2681.0
31	17	13	22	385	209.0	-193925.0	-2016.0	-2356.0
31	17	13	22	386	210.0	-212677.0	-2035.0	-2561.0
31	17	13	22	387	211.0	-218244.0	-2052.0	-2785.0
31	17	13	22	387	212.0	-217876.0	-2059.0	-3106.0
31	17	13	22	388	213.0	-214781.0	-2065.0	-3519.0
31	17	13	22	388	214.0	-208384.0	-2097.0	-3253.0
31	17	13	22	389	215.0	-200149.0	-2084.0	-3458.0
31	17	13	22	390	216.0	-190678.0	-2104.0	-3641.0
31	17	13	22	390	220.0	-158490.0	-2180.0	-1141.0
31	17	13	22	391	221.0	-150991.0	-2189.0	-1316.0
31	17	13	22	391	222.0	-143099.0	-2206.0	-1922.0
31	17	13	22	392	223.0	-135031.0	-2210.0	-2524.0
31	17	13	22	392	224.0	-126308.0	-2211.0	-2877.0
31	17	13	22	393	225.0	-116414.0	-2182.0	-2594.0
31	17	13	22	425	226.0	-104391.0	-2169.0	-2618.0
31	17	13	22	426	227.0	-89653.0	-2169.0	-2761.0
31	17	13	22	428	228.0	-77125.0	-2197.0	-2625.0
31	17	13	22	428	229.0	-70783.0	-2214.0	-2572.0
31	17	13	22	429	230.0	-68158.0	-2242.0	-2836.0
31	17	13	22	430	231.0	-69088.0	-2286.0	-2743.0
31	17	13	22	430	232.0	-73704.0	-2310.0	-2669.0
31	17	13	22	431	233.0	-79838.0	-2319.0	-2734.0
31	17	13	22	431	234.0	-85114.0	-2318.0	-2960.0
31	17	13	22	432	235.0	-88953.0	-2340.0	-3879.0
31	17	13	22	433	236.0	-91682.0	-2356.0	-3919.0
31	17	13	22	433	237.0	-94311.0	-2352.0	-3817.0
31	17	13	22	434	238.0	-97434.0	-2384.0	-3419.0
31	17	13	22	434	239.0	-99869.0	-2391.0	-3069.0
31	17	13	22	435	240.0	-100823.0	-2409.0	-2347.0
31	17	13	22	436	242.0	-96956.0	-2376.0	-2676.0
31	17	13	22	436	243.0	-92836.0	-2382.0	-2712.0
31	17	13	22	437	244.0	-88633.0	-2360.0	-2606.0
31	17	13	22	437	245.0	-85189.0	-2352.0	-2937.0
31	17	13	22	438	246.0	-82326.0	-2341.0	-4218.0
31	17	13	22	438	247.0	-79545.0	-2344.0	-4546.0
31	17	13	22	470	248.0	-77329.0	-2323.0	-4738.0
31	17	13	22	471	249.0	-75951.0	-2307.0	-4772.0
31	17	13	22	472	250.0	-75390.0	-2322.0	-3220.0
31	17	13	22	472	251.0	-75639.0	-2319.0	-1771.0
31	17	13	22	473	252.0	-76332.0	-2319.0	-1213.0
31	17	13	22	473	253.0	-77596.0	-2330.0	-766.0
31	17	13	22	474	254.0	-79119.0	-2351.0	-269.0
31	17	13	22	475	255.0	-80946.0	-2366.0	-1225.0
31	17	13	22	475	0.0	-83096.0	-2376.0	-1946.0
31	17	13	22	476	1.0	-85522.0	-2382.0	-1049.0
31	17	13	22	476	2.0	-87857.0	-2397.0	-1856.0
31	17	13	22	477	3.0	-89709.0	-2401.0	-2720.0
31	17	13	22	478	4.0	-91432.0	-2412.0	-2376.0
31	17	13	22	478	5.0	-93512.0	-2415.0	-1843.0
31	17	13	22	479	6.0	-95801.0	-2390.0	-1458.0
31	17	13	22	480	8.0	-99169.0	-2411.0	431.0
31	17	13	22	480	9.0	-100287.0	-2389.0	-606.0
31	17	13	22	481	10.0	-100976.0	-2366.0	-799.0
31	17	13	22	481	11.0	-101957.0	-2354.0	-854.0
31	17	13	22	482	12.0	-102964.0	-2351.0	-1339.0
31	17	13	22	483	13.0	-104052.0	-2342.0	-1446.0
31	17	13	22	483	14.0	-105396.0	-2347.0	-1649.0
31	17	13	22	515	15.0	-107199.0	-2336.0	-2238.0
31	17	13	22	516	16.0	-109376.0	-2333.0	-2446.0
31	17	13	22	517	17.0	-112291.0	-2351.0	-2856.0
31	17	13	22	517	18.0	-115621.0	-2389.0	-2687.0
31	17	13	22	518	19.0	-119870.0	-2386.0	-2416.0
31	17	13	22	519	20.0	-124369.0	-2412.0	-2565.0
31	17	13	22	520	21.0	-129964.0	-2446.0	-2674.0
31	17	13	22	520	22.0	-135089.0	-2462.0	-2367.0
31	17	13	22	521	23.0	-139609.0	-2446.0	-1936.0
31	17	13	22	521	24.0	-142951.0	-2445.0	-2019.0
31	17	13	22	522	25.0	-145019.0	-2446.0	-2162.0
31	17	13	22	523	26.0	-145637.0	-2454.0	-1950.0
31	17	13	22	523	27.0	-145897.0	-2472.0	-1264.0
31	17	13	22	524	28.0	-144937.0	-2482.0	-1122.0
31	17	13	22	525	29.0	-142861.0	-2501.0	-1045.0
31	17	13	22	525	31.0	-134706.0	-2499.0	-1827.0
31	17	13	22	526	32.0	-129827.0	-2505.0	-3302.0
31	17	13	22	526	33.0	-125261.0	-2488.0	-4051.0
31	17	13	22	527	34.0	-121710.0	-2449.0	-4069.0
31	17	13	22	527	35.0	-119852.0	-2449.0	-3835.0
31	17	13	22	528	36.0	-119306.0	-2448.0	-3441.0
31	17	13	22	560	37.0	-119614.0	-2445.0	-2228.0
31	17	13	22	561	38.0	-120291.0	-2439.0	-1382.0
31	17	13	22	561	39.0	-121269.0	-2430.0	-621.0
31	17	13	22	562	40.0	-122682.0	-2452.0	239.0
31	17	13	22	563	41.0	-123999.0	-2472.0	903.0
31	17	13	22	563	42.0	-125081.0	-2477.0	918.0
31	17	13	22	564	43.0	-125159.0	-2472.0	304.0
31	17	13	22	565	44.0	-124753.0	-2504.0	-209.0
31	17	13	22	565	45.0	-123004.0	-2502.0	-777.0
31	17	13	22	566	46.0	-120662.0	-2525.0	-1231.0
31	17	13	22	606	47.0	-116996.0	-2542.0	-1007.0
31	17	13	22	606	48.0	-113495.0	-2541.0	-652.0
31	17	13	22	607	49.0	-108916.0	-2531.0	-740.0
31	17	13	22	608	50.0	-104121.0	-2517.0	-534.0
31	17	13	22	608	51.0	-98580.0	-2502.0	-278.0
31	17	13	22	609	53.0	-87159.0	-2499.0	-2148.0
31	17	13	22	610	54.0	-81416.0	-2534.0	-2844.0
31	17	13	22	610	55.0	-76587.0	-2499.0	-2677.0
31	17	13	22	611	56.0	-72821.0	-2477.0	-2107.0
31	17	13	22	612	57.0	-70179.0	-2477.0	-1426.0
31	17	13	22	612	58.0	-67466.0	-2483.0	-411.0
31	17	13	22	613	59.0	-66599.0	-2457.0	-402.0
31	17	13	22	614	60.0	-66972.0	-2457.0	-1771.0
31	17	13	22	614	61.0	-68337.0	-2459.0	-1591.0
31	17	13	22	615	62.0	-70069.0	-2440.0	-1801.0
31	17	13	22	616	76.0	-124232.0	-2357.0	-3043.0
31	17	13	22	616	77.0	-127397.0	-2322.0	-3012.0
31	17	13	22	617	78.0	-129927.0	-2313.0	-2673.0
31	17	13	22	617	79.0	-131765.0	-2301.0	-2490.0
31	17	13	22	618	80.0	-133484.0	-2285.0	-1786.0
31	17	13	22	618	81.0	-134603.0	-2286.0	-827.0
31	17	13	22	651	82.0	-135074.0	-2275.0	-963.0
31	17	13	22	652	83.0	-135962.0	-2239.0	-587.0
31	17	13	22	653	84.0	-136093.0	-2241.0	-305.0
31	17	13	22	653	85.0	-136417.0	-2229.0	-312.0
31	17	13	22	654	86.0	-136048.0	-2239.0	-870.0
31	17	13	22	655	87.0	-135399.0	-2238.0	-861.0
31	17	13	22	655	88.0	-134261.0	-2244.0	-1419.0
31	17	13	22	656	89.0	-133110.0	-2247.0	-2235.0
31	17	13	22	656	90.0	-131255.0	-2261.0	-2741.0
31	17	13	22	657	91.0	-129440.0	-2266.0	-3440.0
31	17	13	22	658	92.0	-127408.0	-2246.0	-4289.0
31	17	13	22	658	93.0	-125860.0	-2246.0	-3489.0
31	17	13	22	659	94.0	-124711.0	-2234.0	-2176.0
31	17	13	22	660	95.0	-123409.0	-2211.0	-917.0
31	17	13	22	660	96.0	-121766.0	-2190.0	-374.0
31	17	13	22	661	98.0	-117746.0	-2212.0	-284.0
31	17	13	22	661	99.0	-115840.0	-2191.0	-1286.0
31	17	13	22	662	100.0	-114202.0	-2177.0	-1444.0
31	17	13	22	663	101.0	-112543.0	-2184.0	-1973.0
31	17	13	22	663	102.0	-109819.0	-2205.0	-3207.0
31	17	13	22	664	103.0	-107665.0	-2194.0	-2967.0
31	17	13	22	664	104.0	-105787.0	-2212.0	-1984.0
31	17	13	22	695	105.0	-105077.0	-2226.0	-1158.0
31	17	13	22	696	106.0	-104757.0	-2231.0	-598.0
31	17	13	22	696	107.0	-105412.0	-2237.0	319.0
31	17	13	22	697	108.0	-106143.0	-2266.0	499.0
31	17	13	22	698	109.0	-107418.0	-2307.0	206.0
31	17	13	22	698	110.0	-108974.0	-2309.0	246.0
31	17	13	22	699	111.0	-110290.0	-2323.0	279.0
31	17	13	22	700	112.0	-111716.0	-2347.0	73.0
31	17	13	22	700	113.0	-113227.0	-2347.0	-329.0
31	17	13	22	701	114.0	-114749.0	-2359.0	-906.0
31	17	13	22	701	115.0	-115434.0	-2371.0	-1232.0
31	17	13	22	702	116.0	-116917.0	-2399.0	-1248.0
31	17	13	22	703	117.0	-118153.0	-2401.0	-1266.0
31	17	13	22	703	118.0	-119475.0	-2411.0	-1049.0
31	17	13	22	704	119.0	-120242.0	-2426.0	-890.0
31	17	13	22	704	121.0	-121639.0	-2437.0	-1904.0
31	17	13	22	705	122.0	-120956.0	-2452.0	-2012.0
31	17	13	22	706	123.0	-119551.0	-2434.0	-2053.0
31	17	13	22	706	124.0	-117656.0	-2416.0	-2697.0
31	17	13	22	707	125.0	-115324.0	-2424.0	-2577.0
31	17	13	22	707	126.0	-112875.0	-2405.0	-1757.0
31	17	13	22	741	127.0	-110947.0	-2394.0	-466.0
31	17	13	22	742	128.0	-109649.0	-2382.0	-44.0
31	17	13	22	743	129.0	-107744.0	-2357.0	740.0
31	17	13	22	743	130.0	-106901.0	-2361.0	930.0
31	17	13	22	744	131.0	-106051.0	-2370.0	-52.0
31	17	13	22	745	132.0	-105242.0	-2381.0	-1186.0
31	17	13	22	745	133.0	-104295.0	-2411.0	-1985.0
31	17	13	22	746	134.0	-104477.0	-2402.0	-1976.0
31	17	13	22	746	135.0	-104601.0	-2383.0	-1554.0
31	17	13	22	747	136.0	-104740.0	-2392.0	-759.0
31	17	13	22	748	137.0	-105647.0	-2411.0	155.0
31	17	13	22	748	138.0	-107072.0	-2439.0	536.0
31	17	13	22	749	139.0	-108671.0	-2456.0	501.0
31	17	13	22	750	140.0	-110552.0	-2473.0	173.0
31	17	13	22	750	141.0	-112750.0	-2462.0	-77.0
31	17	13	22	751	143.0	-114962.0	-2473.0	-1479.0
31	17	13	22	752	144.0	-116834.0	-2474.0	-1930.0
31	17	13	22	752	145.0	-119626.0	-2450.0	-1822.0
31	17	13	22	753	146.0	-122925.0	-2444.0	-1557.0
31	17	13	22	753	147.0	-125692.0	-2385.0	-464.0
31	17	13	22	754	148.0	-129443.0	-2349.0	219.0
31	17	13	22	787	149.0	-132182.0	-2346.0	-180.0
31	17	13	22	799	150.0	-134511.0	-2307.0	-156.0
31	17	13	22	800	151.0	-136907.0	-2328.0	186.0
31	17	13	22	800	152.0	-138935.0	-2344.0	8.0
31	17	13	22	801	153.0	-139700.0	-2356.0	-369.0
31	17	13	22	802	154.0	-140036.0	-2377.0	-1592.0
31	17	13	22	802	155.0	-140716.0	-2399.0	-3244.0
31	17	13	22	803	156.0	-141176.0	-2406.0	-4596.0
31	17	13	22	803	157.0	-141786.0	-2427.0	-5561.0
31	17	13	22	804	158.0	-142604.0	-2447.0	-6966.0
31	17	13	22	805	159.0	-143132.0	-2451.0	-8229.0
31	17	13	22	805	160.0	-143831.0	-2452.0	-8029.0
31	17	13	22	806	161.0	-145377.0	-2469.0	-5857.0
31	17	13	22	806	162.0	-147536.0	-2445.0	-4180.0
31	17	13	22	807	163.0	-149781.0	-2439.0	-2679.0
31	17	13	22	807	165.0	-157581.0	-2421.0	-165.0
31	17	13	22	808	166.0	-161808.0	-2448.0	554.0
31	17	13	22	809	167.0	-165254.0	-2439.0	3851.0
31	17	13	22	809	168.0	-167512.0	-2457.0	7774.0
31	17	13	22	810	169.0	-167373.0	-2434.0	10903.0
31	17	13	22	810	170.0	-165308.0	-2429.0	12068.0
31	17	13	22	811	171.0	-161498.0	-2417.0	12388.0
31	17	13	22	831	172.0	-155407.0	-2392.0	11632.0
31	17	13	22	832	173.0	-147754.0	-2384.0	10969.0
31	17	13	22	832	174.0	-139658.0	-2402.0	8274.0
31	17	13	22	833	175.0	-132037.0	-2404.0	6766.0
31	17	13	22	834	176.0	-125596.0	-2421.0	7736.0
31	17	13	22	834	177.0	-121746.0	-2442.0	9862.0
31	17	13	22	835	178.0	-120526.0	-2459.0	13386.0
31	17	13	22	836	179.0	-121574.0	-2492.0	15302.0
31	17	13	22	837	180.0	-124237.0	-2501.0	15401.0
31	17	13	22	837	181.0	-129246.0	-2512.0	14220.0
31	17	13	22	838	182.0	-137229.0	-2537.0	12437.0
31	17	13	22	839	183.0	-146667.0	-2547.0	11652.0
31	17	13	22	839	184.0	-154114.0	-2557.0	10199.0
31	17	13	22	840	185.0	-153545.0	-2567.0	8333.0
31	17	13	22	841	186.0	-135586.0	-2569.0	6784.0
31	17	13	22	841	188.0	-65264.0	-2618.0	4221.0
31	17	13	22	842	189.0	-28217.0	-2602.0	2773.0
31	17	13	22	843	190.0	-4627.0	-2577.0	796.0
31	17	13	22	843	191.0	-1321.0	-2546.0	-1357.0
31	17	13	22	844	192.0	-1274.0	-2514.0	-2151.0
31	17	13	22	845	193.0	-1269.0	-2491.0	-2025.0
31	17	13	22	875	194.0	-1316.0	-2451.0	-2155.0
31	17	13	22	876	195.0	-2794.0	-2425.0	-1647.0
31	17	13	22	877	196.0	-22088.0	-2404.0	-953.0
31	17	13	22	877	197.0	-58746.0	-2398.0	-1004.0
31	17	13	22	878	198.0	-85081.0	-2382.0	-1409.0
31	17	13	22	879	199.0	-98988.0	-2385.0	-1784.0
31	17	13	22	879	200.0	-109776.0	-2394.0	-1689.0
31	17	13	22	880	201.0	-119749.0	-2369.0	-2379.0
31	17	13	22	881	202.0	-127885.0	-2378.0	-2477.0
31	17	13	22	881	203.0	-134582.0	-2366.0	-2537.0
31	17	13	22	882	204.0	-138465.0	-2347.0	-2870.0
31	17	13	22	883	205.0	-138940.0	-2341.0	-3266.0
31	17	13	22	883	206.0	-138837.0	-2348.0	-3072.0
31	17	13	22	884	207.0	-142573.0	-2354.0	-2964.0
31	17	13	22	885	208.0	-152572.0	-2332.0	-3111.0
31	17	13	22	885	210.0	-184700.0	-2292.0	-2761.0
31	17	13	22	886	211.0	-195899.0	-2274.0	-2801.0
31	17	13	22	887	212.0	-199844.0	-2259.0	-3877.0
31	17	13	22	887	213.0	-196815.0	-2240.0	-4516.0
31	17	13	22	888	214.0	-190225.0	-2225.0	-5332.0
31	17	13	22	888	215.0	-183569.0	-2184.0	-6044.0
31	17	13	22	889	216.0	-177475.0	-2162.0	-5746.0
31	17	13	22	921	217.0	-170603.0	-2166.0	-5132.0
31	17	13	22	922	218.0	-162030.0	-2140.0	-3992.0
31	17	13	22	966	219.0	-151064.0	-2137.0	-2881.0
31	17	13	22	967	220.0	-138898.0	-2133.0	-2942.0
31	17	13	22	968	221.0	-126412.0	-2131.0	-3283.0
31	17	13	22	968	222.0	-114739.0	-2124.0	-3102.0
31	17	13	22	969	223.0	-104399.0	-2114.0	-3191.0
31	17	13	22	970	224.0	-95637.0	-2109.0	-3430.0
31	17	13	22	970	225.0	-87239.0	-2122.0	-3599.0
31	17	13	22	971	226.0	-78967.0	-2123.0	-3491.0
31	17	13	22	972	227.0	-71224.0	-2139.0	-3939.0
31	17	13	22	972	228.0	-64597.0	-2114.0	-4387.0
31	17	13	22	973	229.0	-59639.0	-2099.0	-4662.0
31	17	13	22	974	230.0	-55774.0	-2097.0	-5306.0
31	17	13	22	974	231.0	-52657.0	-2073.0	-5187.0
31	17	13	22	975	233.0	-48406.0	-2114.0	-5253.0
31	17	13	22	976	234.0	-47357.0	-2104.0	-4901.0
31	17	13	22	976	235.0	-47364.0	-2064.0	-4527.0
31	17	13	22	977	0.0	-157536.0	-1932.0	-4777.0
31	17	13	22	978	1.0	-160722.0	-1926.0	-5291.0
31	17	13	22	978	2.0	-163554.0	-1902.0	-5702.0
31	17	13	22	979	3.0	-166316.0	-1900.0	-6266.0
31	17	13	22	980	4.0	-169512.0	-1872.0	-6154.0
31	17	13	22	980	5.0	-172618.0	-1845.0	-6404.0
31	17	13	23	11	6.0	-175712.0	-1834.0	-5837.0
31	17	13	23	12	7.0	-178229.0	-1832.0	-5022.0
31	17	13	23	13	8.0	-179924.0	-1858.0	-5120.0
31	17	13	23	14	9.0	-181060.0	-1871.0	-5985.0
31	17	13	23	14	10.0	-181291.0	-1849.0	-5607.0
31	17	13	23	15	11.0	-181064.0	-1864.0	-4795.0
31	17	13	23	16	12.0	-181272.0	-1889.0	-4927.0
31	17	13	23	16	13.0	-182429.0	-1893.0	-5056.0
31	17	13	23	17	14.0	-184400.0	-1911.0	-5154.0
31	17	13	23	18	15.0	-186887.0	-1902.0	-5415.0
31	17	13	23	18	16.0	-190241.0	-1912.0	-5367.0
31	17	13	23	19	17.0	-194465.0	-1926.0	-5078.0
31	17	13	23	20	18.0	-198910.0	-1929.0	-4722.0
31	17	13	23	20	19.0	-202834.0	-1938.0	-4782.0
31	17	13	23	21	20.0	-206321.0	-1924.0	-4542.0
31	17	13	23	22	22.0	-213176.0	-1891.0	-4091.0
31	17	13	23	23	23.0	-216791.0	-1900.0	-3925.0
31	17	13	23	23	24.0	-220501.0	-1853.0	-3831.0
31	17	13	23	24	25.0	-224032.0	-1809.0	-3714.0
31	17	13	23	25	26.0	-227388.0	-1798.0	-4017.0
31	17	13	23	25	27.0	-230038.0	-1778.0	-4021.0
31	17	13	23	26	28.0	-232229.0	-1751.0	-3742.0
31	17	13	23	55	29.0	-233034.0	-1722.0	-3317.0
31	17	13	23	56	30.0	-232824.0	-1701.0	-2743.0
31	17	13	23	57	31.0	-231993.0	-1672.0	-3294.0
31	17	13	23	58	32.0	-230426.0	-1656.0	-3195.0
31	17	13	23	58	33.0	-227606.0	-1626.0	-2617.0
31	17	13	23	59	34.0	-223942.0	-1604.0	-2335.0
31	17	13	23	60	35.0	-219244.0	-1554.0	-3474.0
31	17	13	23	61	36.0	-213361.0	-1537.0	-3832.0
31	17	13	23	61	37.0	-207510.0	-1516.0	-4131.0
31	17	13	23	62	38.0	-201676.0	-1502.0	-4442.0
31	17	13	23	63	39.0	-195904.0	-1507.0	-4514.0
31	17	13	23	63	40.0	-189857.0	-1489.0	-3974.0
31	17	13	23	64	41.0	-183759.0	-1476.0	-3815.0
31	17	13	23	65	42.0	-177814.0	-1467.0	-3329.0
31	17	13	23	65	43.0	-171994.0	-1428.0	-2748.0
31	17	13	23	66	44.0	-166200.0	-1402.0	-1647.0
31	17	13	23	67	45.0	-160769.0	-1397.0	-382.0
31	17	13	23	67	46.0	-155525.0	-1384.0	849.0
31	17	13	23	68	47.0	-150649.0	-1340.0	1314.0
31	17	13	23	68	48.0	-146380.0	-1295.0	634.0
31	17	13	23	69	49.0	-143032.0	-1261.0	296.0
31	17	13	23	70	50.0	-140232.0	-1266.0	308.0
31	17	13	23	101	51.0	-137982.0	-1234.0	-9.0
31	17	13	23	102	52.0	-136737.0	-1203.0	-408.0
31	17	13	23	103	53.0	-136376.0	-1199.0	-439.0
31	17	13	23	103	54.0	-137146.0	-1197.0	-671.0
31	17	13	23	104	55.0	-138872.0	-1173.0	-1425.0
31	17	13	23	105	56.0	-141491.0	-1167.0	-1821.0
31	17	13	23	105	57.0	-145267.0	-1167.0	-2195.0
31	17	13	23	106	58.0	-149882.0	-1187.0	-1879.0
31	17	13	23	107	59.0	-155414.0	-1191.0	-1769.0
31	17	13	23	108	60.0	-161986.0	-1222.0	-1547.0
31	17	13	23	108	61.0	-170115.0	-1233.0	-788.0
31	17	13	23	109	62.0	-179545.0	-1217.0	-365.0
31	17	13	23	109	63.0	-189744.0	-1223.0	-512.0
31	17	13	23	110	64.0	-200797.0	-1221.0	-869.0
31	17	13	23	111	65.0	-212777.0	-1205.0	-1224.0
31	17	13	23	111	67.0	-237632.0	-1170.0	-2024.0
31	17	13	23	112	68.0	-249042.0	-1159.0	-2487.0
31	17	13	23	113	69.0	-258966.0	-1117.0	-2597.0
31	17	13	23	113	70.0	-267261.0	-1089.0	-2194.0
31	17	13	23	114	71.0	-273736.0	-1069.0	-2074.0
31	17	13	23	114	72.0	-278084.0	-1032.0	-2074.0
31	17	13	23	145	73.0	-279536.0	-1002.0	-2209.0
31	17	13	23	146	74.0	-277364.0	-994.0	-2313.0
31	17	13	23	146	75.0	-268851.0	-985.0	-2327.0
31	17	13	23	147	76.0	-248777.0	-987.0	-2010.0
31	17	13	23	148	77.0	-219304.0	-992.0	-2307.0
31	17	13	23	148	78.0	-190198.0	-974.0	-1559.0
31	17	13	23	149	79.0	-176498.0	-987.0	-1405.0
31	17	13	23	150	80.0	-173897.0	-969.0	-1986.0
31	17	13	23	151	81.0	-182741.0	-962.0	-2353.0
31	17	13	23	151	82.0	-202976.0	-949.0	-2110.0
31	17	13	23	152	83.0	-221824.0	-971.0	-2271.0
31	17	13	23	153	84.0	-226906.0	-971.0	-2492.0
31	17	13	23	153	85.0	-223873.0	-954.0	-2469.0
31	17	13	23	154	86.0	-219560.0	-941.0	-1796.0
31	17	13	23	155	87.0	-214728.0	-935.0	-2046.0
31	17	13	23	155	89.0	-201829.0	-931.0	-3834.0
31	17	13	23	156	90.0	-192292.0	-936.0	-3816.0
31	17	13	23	157	91.0	-181385.0	-904.0	-3458.0
31	17	13	23	157	92.0	-168466.0	-884.0	-2260.0
31	17	13	23	158	93.0	-154996.0	-867.0	-1216.0
31	17	13	23	158	94.0	-145101.0	-865.0	-1141.0
31	17	13	23	159	95.0	-137836.0	-861.0	-1324.0
31	17	13	23	191	96.0	-131023.0	-821.0	-1248.0
31	17	13	23	193	97.0	-125968.0	-822.0	-827.0
31	17	13	23	193	98.0	-123291.0	-844.0	-1317.0
31	17	13	23	194	99.0	-122566.0	-868.0	-2650.0
31	17	13	23	195	100.0	-122207.0	-872.0	-3064.0
31	17	13	23	195	101.0	-120853.0	-876.0	-3109.0
31	17	13	23	196	102.0	-118980.0	-866.0	-2776.0
31	17	13	23	197	103.0	-117952.0	-870.0	-2684.0
31	17	13	23	197	104.0	-118910.0	-877.0	-2607.0
31	17	13	23	198	105.0	-121629.0	-865.0	-2315.0
31	17	13	23	199	106.0	-125265.0	-867.0	-2058.0
31	17	13	23	200	107.0	-128816.0	-861.0	-1912.0
31	17	13	23	201	108.0	-131670.0	-861.0	-2014.0
31	17	13	23	201	109.0	-134039.0	-849.0	-2286.0
31	17	13	23	202	110.0	-135789.0	-852.0	-1881.0
31	17	13	23	202	112.0	-139079.0	-838.0	-2676.0
31	17	13	23	203	113.0	-140281.0	-821.0	-2756.0
31	17	13	23	203	114.0	-141411.0	-798.0	-3492.0
31	17	13	23	204	115.0	-142585.0	-786.0	-3636.0
31	17	13	23	205	116.0	-144050.0	-762.0	-2656.0
31	17	13	23	205	117.0	-145834.0	-774.0	-1729.0
31	17	13	23	236	118.0	-147782.0	-785.0	-1916.0
31	17	13	23	281	119.0	-149708.0	-771.0	-1202.0
31	17	13	23	282	120.0	-152033.0	-781.0	-680.0
31	17	13	23	283	121.0	-154336.0	-809.0	-1166.0
31	17	13	23	283	122.0	-156600.0	-832.0	-1752.0
31	17	13	23	284	123.0	-158797.0	-853.0	-1655.0
31	17	13	23	285	124.0	-160602.0	-858.0	-1609.0
31	17	13	23	285	125.0	-161934.0	-868.0	-2450.0
31	17	13	23	286	126.0	-163211.0	-876.0	-2744.0
31	17	13	23	287	127.0	-164857.0	-896.0	-3072.0
31	17	13	23	287	128.0	-166661.0	-912.0	-3422.0
31	17	13	23	326	129.0	-168572.0	-946.0	-2797.0
31	17	13	23	326	130.0	-170339.0	-982.0	-1635.0
31	17	13	23	327	131.0	-172343.0	-1014.0	-1582.0
31	17	13	23	328	132.0	-174111.0	-1021.0	-1509.0
31	17	13	23	329	134.0	-178447.0	-1081.0	-2512.0
31	17	13	23	329	156.0	-191079.0	-1572.0	-1901.0
31	17	13	23	330	157.0	-190444.0	-1572.0	-1875.0
31	17	13	23	331	158.0	-190154.0	-1578.0	-2065.0
31	17	13	23	331	159.0	-190145.0	-1561.0	-1638.0
31	17	13	23	332	160.0	-190458.0	-1534.0	-1749.0
31	17	13	23	333	161.0	-191537.0	-1502.0	-1271.0
31	17	13	23	333	162.0	-193054.0	-1480.0	-607.0
31	17	13	23	334	163.0	-194324.0	-1473.0	-553.0
31	17	13	23	335	164.0	-195511.0	-1499.0	-704.0
31	17	13	23	335	165.0	-196725.0	-1521.0	-1084.0
31	17	13	23	336	166.0	-197925.0	-1521.0	-1351.0
31	17	13	23	336	179.0	-177394.0	-1456.0	-2017.0
31	17	13	23	337	180.0	-175047.0	-1439.0	-2024.0
31	17	13	23	338	181.0	-172745.0	-1432.0	-1554.0
31	17	13	23	338	182.0	-170417.0	-1422.0	-1592.0
31	17	13	23	339	183.0	-168441.0	-1402.0	-1731.0
31	17	13	23	340	184.0	-166809.0	-1402.0	-1577.0
31	17	13	23	340	185.0	-165335.0	-1382.0	-1392.0
31	17	13	23	379	186.0	-163932.0	-1369.0	-1454.0
31	17	13	23	380	187.0	-162767.0	-1356.0	-759.0
31	17	13	23	380	188.0	-161776.0	-1351.0	-239.0
31	17	13	23	381	189.0	-160969.0	-1384.0	756.0
31	17	13	23	382	190.0	-160146.0	-1366.0	563.0
31	17	13	23	382	191.0	-159717.0	-1358.0	365.0
31	17	13	23	383	192.0	-159958.0	-1354.0	80.0
31	17	13	23	384	193.0	-160450.0	-1356.0	-270.0
31	17	13	23	384	194.0	-160704.0	-1341.0	-605.0
31	17	13	23	385	195.0	-160565.0	-1319.0	-1162.0
31	17	13	23	385	196.0	-160257.0	-1321.0	-1311.0
31	17	13	23	386	197.0	-159832.0	-1303.0	-1114.0
31	17	13	23	386	198.0	-159247.0	-1291.0	-1214.0
31	17	13	23	387	199.0	-158671.0	-1326.0	-878.0
31	17	13	23	388	200.0	-158136.0	-1324.0	-1009.0
31	17	13	23	388	201.0	-157764.0	-1331.0	-1357.0
31	17	13	23	389	202.0	-157275.0	-1337.0	-1560.0
31	17	13	23	390	203.0	-156837.0	-1337.0	-1878.0
31	17	13	23	390	204.0	-156899.0	-1324.0	-2488.0
31	17	13	23	391	205.0	-157513.0	-1322.0	-3007.0
31	17	13	23	391	206.0	-158353.0	-1326.0	-2862.0
31	17	13	23	392	207.0	-159815.0	-1316.0	-2120.0
31	17	13	23	416	208.0	-161899.0	-1307.0	-1847.0
31	17	13	23	417	209.0	-163791.0	-1326.0	-596.0
31	17	13	23	418	210.0	-165532.0	-1301.0	-406.0
31	17	13	23	418	211.0	-166954.0	-1301.0	-576.0
31	17	13	23	419	212.0	-168181.0	-1294.0	-269.0
31	17	13	23	420	213.0	-169105.0	-1281.0	-130.0
31	17	13	23	421	214.0	-169401.0	-1259.0	-872.0
31	17	13	23	421	215.0	-169280.0	-1253.0	-981.0
31	17	13	23	422	216.0	-168934.0	-1230.0	-857.0
31	17	13	23	422	217.0	-168845.0	-1206.0	-1237.0
31	17	13	23	423	218.0	-168942.0	-1184.0	-2064.0
31	17	13	23	424	219.0	-169017.0	-1175.0	-1804.0
31	17	13	23	424	220.0	-168759.0	-1153.0	-1452.0
31	17	13	23	425	221.0	-168111.0	-1172.0	-1920.0
31	17	13	23	426	222.0	-166859.0	-1184.0	-2129.0
31	17	13	23	426	224.0	-164357.0	-1172.0	-1259.0
31	17	13	23	427	225.0	-162781.0	-1174.0	-1171.0
31	17	13	23	427	226.0	-161128.0	-1166.0	-936.0
31	17	13	23	428	227.0	-159062.0	-1179.0	-443.0
31	17	13	23	429	228.0	-156575.0	-1176.0	-165.0
31	17	13	23	429	229.0	-153907.0	-1200.0	-362.0
31	17	13	23	461	230.0	-151275.0	-1191.0	-770.0
31	17	13	23	462	231.0	-148751.0	-1173.0	-1212.0
31	17	13	23	463	232.0	-146365.0	-1186.0	-1246.0
31	17	13	23	463	233.0	-144031.0	-1221.0	-1159.0
31	17	13	23	464	234.0	-141596.0	-1233.0	-697.0
31	17	13	23	465	235.0	-139065.0	-1247.0	107.0
31	17	13	23	466	236.0	-136545.0	-1250.0	-134.0
31	17	13	23	466	237.0	-133894.0	-1250.0	-908.0
31	17	13	23	467	238.0	-131358.0	-1242.0	-1027.0
31	17	13	23	468	239.0	-128977.0	-1247.0	-849.0
31	17	13	23	468	240.0	-126167.0	-1249.0	-1450.0
31	17	13	23	469	241.0	-122845.0	-1244.0	-1544.0
31	17	13	23	470	242.0	-119639.0	-1230.0	-1389.0
31	17	13	23	470	243.0	-116966.0	-1232.0	-1243.0
31	17	13	23	471	244.0	-114620.0	-1234.0	-1226.0
31	17	13	23	472	246.0	-110834.0	-1259.0	-1951.0
31	17	13	23	473	247.0	-109886.0	-1254.0	-2681.0
31	17	13	23	473	248.0	-109676.0	-1230.0	-2410.0
31	17	13	23	474	249.0	-110041.0	-1210.0	-1389.0
31	17	13	23	475	250.0	-111075.0	-1191.0	-1417.0
31	17	13	23	475	251.0	-112827.0	-1171.0	-836.0
31	17	13	23	476	252.0	-115195.0	-1152.0	31.0
31	17	13	23	507	253.0	-118070.0	-1114.0	-57.0
31	17	13	23	508	254.0	-121511.0	-1088.0	-532.0
31	17	13	23	509	255.0	-125914.0	-1065.0	-143.0
31	17	13	23	509	0.0	-130656.0	-1062.0	379.0
31	17	13	23	510	1.0	-134992.0	-1056.0	-395.0
31	17	13	23	511	2.0	-138934.0	-1034.0	-641.0
31	17	13	23	511	3.0	-142834.0	-1029.0	-685.0
31	17	13	23	512	4.0	-146085.0	-1018.0	-1326.0
31	17	13	23	513	5.0	-148309.0	-1005.0	-2204.0
31	17	13	23	514	6.0	-149660.0	-979.0	-2112.0
31	17	13	23	514	7.0	-150482.0	-957.0	-2166.0
31	17	13	23	515	8.0	-150777.0	-927.0	-2575.0
31	17	13	23	516	9.0	-150562.0	-927.0	-2781.0
31	17	13	23	516	10.0	-150114.0	-941.0	-1967.0
31	17	13	23	517	11.0	-149563.0	-922.0	-1137.0
31	17	13	23	518	13.0	-148551.0	-896.0	-927.0
31	17	13	23	518	14.0	-148759.0	-880.0	-1346.0
31	17	13	23	519	15.0	-149385.0	-864.0	-1459.0
31	17	13	23	519	16.0	-150274.0	-876.0	-1317.0
31	17	13	23	520	17.0	-151463.0	-868.0	-1054.0
31	17	13	23	521	18.0	-152847.0	-850.0	-1531.0
31	17	13	23	552	19.0	-154090.0	-846.0	-1067.0
31	17	13	23	553	20.0	-154913.0	-842.0	-331.0
31	17	13	23	554	21.0	-154571.0	-839.0	56.0
31	17	13	23	554	22.0	-153205.0	-849.0	-493.0
31	17	13	23	555	23.0	-151344.0	-881.0	-1026.0
31	17	13	23	556	24.0	-149232.0	-890.0	-1135.0
31	17	13	23	557	25.0	-146799.0	-910.0	-1538.0
31	17	13	23	557	26.0	-144143.0	-937.0	-1854.0
31	17	13	23	558	27.0	-141200.0	-939.0	-2221.0
31	17	13	23	559	28.0	-137994.0	-917.0	-1962.0
31	17	13	23	559	29.0	-134959.0	-948.0	-1870.0
31	17	13	23	560	30.0	-132174.0	-949.0	-1652.0
31	17	13	23	561	31.0	-129008.0	-949.0	-980.0
31	17	13	23	562	32.0	-125637.0	-981.0	-216.0
31	17	13	23	562	33.0	-122400.0	-993.0	-806.0
31	17	13	23	563	35.0	-117407.0	-1034.0	-1126.0
31	17	13	23	563	36.0	-115525.0	-1051.0	-893.0
31	17	13	23	564	37.0	-113712.0	-1044.0	-138.0
31	17	13	23	565	38.0	-112334.0	-1032.0	-626.0
31	17	13	23	565	39.0	-111529.0	-1009.0	-987.0
31	17	13	23	566	40.0	-111114.0	-1012.0	-1036.0
31	17	13	23	566	41.0	-111106.0	-1002.0	-1482.0
31	17	13	23	641	42.0	-111542.0	-1005.0	-1781.0
31	17	13	23	642	43.0	-112615.0	-1013.0	-1761.0
31	17	13	23	643	44.0	-114299.0	-1027.0	-1201.0
31	17	13	23	644	45.0	-116287.0	-1032.0	-1034.0
31	17	13	23	645	46.0	-118667.0	-1053.0	-609.0
31	17	13	23	645	47.0	-121181.0	-1056.0	-986.0
31	17	13	23	646	48.0	-123783.0	-1053.0	-1448.0
31	17	13	23	647	49.0	-126719.0	-1088.0	-1456.0
31	17	13	23	648	50.0	-129909.0	-1075.0	-1746.0
31	17	13	23	648	51.0	-132988.0	-1071.0	-2179.0
31	17	13	23	649	52.0	-135829.0	-1096.0	-1624.0
31	17	13	23	650	53.0	-138459.0	-1119.0	-1106.0
31	17	13	23	650	54.0	-141242.0	-1129.0	-1449.0
31	17	13	23	651	55.0	-143739.0	-1125.0	-1246.0
31	17	13	23	652	56.0	-145707.0	-1122.0	-277.0
31	17	13	23	653	58.0	-149699.0	-1147.0	-268.0
31	17	13	23	653	80.0	-146752.0	-1642.0	-1257.0
31	17	13	23	654	81.0	-148267.0	-1649.0	-1836.0
31	17	13	23	655	82.0	-150294.0	-1664.0	-2141.0
31	17	13	23	655	83.0	-153261.0	-1691.0	-1945.0
31	17	13	23	656	84.0	-157464.0	-1691.0	-1574.0
31	17	13	23	657	85.0	-162744.0	-1691.0	-1854.0
31	17	13	23	657	86.0	-168439.0	-1701.0	-1162.0
31	17	13	23	658	87.0	-173482.0	-1711.0	-69.0
31	17	13	23	686	88.0	-177309.0	-1719.0	357.0
31	17	13	23	687	89.0	-180051.0	-1734.0	-909.0
31	17	13	23	688	90.0	-181854.0	-1763.0	-1679.0
31	17	13	23	689	91.0	-182756.0	-1787.0	-1748.0
31	17	13	23	689	92.0	-183100.0	-1829.0	-1251.0
31	17	13	23	690	93.0	-183053.0	-1861.0	-1689.0
31	17	13	23	691	94.0	-182484.0	-1892.0	-2906.0
31	17	13	23	692	95.0	-181561.0	-1906.0	-4183.0
31	17	13	23	692	96.0	-180575.0	-1934.0	-6252.0
31	17	13	23	693	97.0	-179456.0	-1931.0	-8312.0
31	17	13	23	694	98.0	-178026.0	-1938.0	-9466.0
31	17	13	23	694	99.0	-176739.0	-1925.0	-9051.0
31	17	13	23	695	100.0	-176186.0	-1934.0	-6813.0
31	17	13	23	696	101.0	-176161.0	-1974.0	-4162.0
31	17	13	23	696	102.0	-176313.0	-2007.0	-1941.0
31	17	13	23	697	103.0	-177164.0	-1991.0	-281.0
31	17	13	23	698	104.0	-179199.0	-1976.0	1059.0
31	17	13	23	698	105.0	-182187.0	-1973.0	3324.0
31	17	13	23	699	106.0	-185749.0	-1954.0	6057.0
31	17	13	23	700	107.0	-189412.0	-1936.0	8396.0
31	17	13	23	700	108.0	-192092.0	-1942.0	10939.0
31	17	13	23	732	109.0	-193167.0	-1897.0	13718.0
31	17	13	23	733	110.0	-192147.0	-1881.0	14900.0
31	17	13	23	734	111.0	-188788.0	-1869.0	14621.0
31	17	13	23	735	112.0	-183106.0	-1861.0	14643.0
31	17	13	23	736	113.0	-175779.0	-1862.0	13989.0
31	17	13	23	736	114.0	-168185.0	-1822.0	11321.0
31	17	13	23	737	115.0	-161447.0	-1794.0	10909.0
31	17	13	23	738	116.0	-156896.0	-1800.0	11434.0
31	17	13	23	739	117.0	-155043.0	-1758.0	11888.0
31	17	13	23	739	118.0	-156804.0	-1722.0	14103.0
31	17	13	23	740	119.0	-162362.0	-1694.0	14284.0
31	17	13	23	741	120.0	-171427.0	-1650.0	13276.0
31	17	13	23	741	121.0	-183094.0	-1610.0	12171.0
31	17	13	23	742	122.0	-193861.0	-1600.0	11570.0
31	17	13	23	743	123.0	-196302.0	-1581.0	10064.0
31	17	13	23	743	125.0	-143752.0	-1517.0	7943.0
31	17	13	23	744	126.0	-105450.0	-1491.0	6383.0
31	17	13	23	744	127.0	-69185.0	-1449.0	4098.0
31	17	13	23	745	128.0	-37734.0	-1424.0	2109.0
31	17	13	23	746	129.0	-13932.0	-1396.0	258.0
31	17	13	23	746	130.0	-2893.0	-1379.0	-461.0
31	17	13	23	776	131.0	-1525.0	-1361.0	-879.0
31	17	13	23	777	132.0	-5634.0	-1364.0	-1259.0
31	17	13	23	820	133.0	-28734.0	-1352.0	-1533.0
31	17	13	23	821	134.0	-64339.0	-1367.0	-1986.0
31	17	13	23	822	135.0	-87864.0	-1341.0	-2465.0
31	17	13	23	823	136.0	-97599.0	-1341.0	-2199.0
31	17	13	23	823	137.0	-106385.0	-1336.0	-2176.0
31	17	13	23	824	138.0	-114055.0	-1324.0	-2734.0
31	17	13	23	825	139.0	-121782.0	-1314.0	-3744.0
31	17	13	23	826	140.0	-130380.0	-1285.0	-4179.0
31	17	13	23	826	141.0	-141291.0	-1244.0	-3997.0
31	17	13	23	827	142.0	-153849.0	-1237.0	-3509.0
31	17	13	23	828	143.0	-166572.0	-1226.0	-2973.0
31	17	13	23	828	144.0	-177427.0	-1227.0	-2299.0
31	17	13	23	829	145.0	-185514.0	-1208.0	-2342.0
31	17	13	23	830	147.0	-203769.0	-1181.0	-3780.0
31	17	13	23	830	148.0	-218078.0	-1191.0	-3551.0
31	17	13	23	831	170.0	-73670.0	-1288.0	-3950.0
31	17	13	23	832	171.0	-75586.0	-1295.0	-4627.0
31	17	13	23	833	172.0	-78003.0	-1291.0	-4386.0
31	17	13	23	834	173.0	-81097.0	-1304.0	-4081.0
31	17	13	23	835	174.0	-84142.0	-1309.0	-4626.0
31	17	13	23	835	175.0	-88063.0	-1342.0	-4994.0
31	17	13	23	866	176.0	-93357.0	-1356.0	-4561.0
31	17	13	23	866	177.0	-99584.0	-1384.0	-5051.0
31	17	13	23	867	178.0	-105810.0	-1409.0	-5244.0
31	17	13	23	868	179.0	-112689.0	-1432.0	-4684.0
31	17	13	23	869	180.0	-120677.0	-1449.0	-4209.0
31	17	13	23	869	181.0	-129541.0	-1469.0	-4541.0
31	17	13	23	870	182.0	-137587.0	-1497.0	-5024.0
31	17	13	23	871	183.0	-144997.0	-1515.0	-4937.0
31	17	13	23	872	184.0	-152349.0	-1536.0	-5353.0
31	17	13	23	872	185.0	-159403.0	-1538.0	-5042.0
31	17	13	23	873	186.0	-166283.0	-1539.0	-4631.0
31	17	13	23	874	187.0	-173078.0	-1530.0	-4489.0
31	17	13	23	874	188.0	-179584.0	-1517.0	-5074.0
31	17	13	23	875	189.0	-185447.0	-1524.0	-5917.0
31	17	13	23	876	190.0	-190428.0	-1499.0	-6051.0
31	17	13	23	876	192.0	-198193.0	-1502.0	-5132.0
31	17	13	23	877	193.0	-200974.0	-1511.0	-5386.0
31	17	13	23	878	194.0	-203717.0	-1507.0	-5199.0
31	17	13	23	878	195.0	-206274.0	-1486.0	-5258.0
31	17	13	23	879	196.0	-208097.0	-1473.0	-5652.0
31	17	13	23	880	197.0	-209113.0	-1464.0	-5759.0
31	17	13	23	880	198.0	-209376.0	-1464.0	-5320.0
31	17	13	23	911	199.0	-208826.0	-1437.0	-6003.0
31	17	13	23	912	200.0	-207511.0	-1406.0	-6966.0
31	17	13	23	913	201.0	-205459.0	-1391.0	-6582.0
31	17	13	23	913	202.0	-202857.0	-1392.0	-5542.0
31	17	13	23	914	203.0	-199096.0	-1394.0	-5517.0
31	17	13	23	915	204.0	-194729.0	-1385.0	-5295.0
31	17	13	23	915	205.0	-190764.0	-1372.0	-5019.0
31	17	13	23	916	206.0	-187842.0	-1367.0	-5126.0
31	17	13	23	917	207.0	-185599.0	-1380.0	-4719.0
31	17	13	23	917	208.0	-184350.0	-1382.0	-4834.0
31	17	13	23	918	209.0	-183787.0	-1382.0	-5522.0
31	17	13	23	919	210.0	-183093.0	-1398.0	-6292.0
31	17	13	23	955	211.0	-182334.0	-1393.0	-6042.0
31	17	13	23	956	212.0	-182031.0	-1404.0	-5817.0
31	17	13	23	957	213.0	-181968.0	-1430.0	-5879.0
31	17	13	23	958	215.0	-182328.0	-1466.0	-4767.0
31	17	13	23	958	216.0	-182324.0	-1460.0	-4768.0
31	17	13	23	959	217.0	-182514.0	-1451.0	-4697.0
31	17	13	23	960	218.0	-183286.0	-1453.0	-4355.0
31	17	13	23	961	219.0	-183484.0	-1422.0	-4531.0
31	17	13	23	961	220.0	-183511.0	-1411.0	-4776.0
31	17	13	23	962	221.0	-182831.0	-1417.0	-4772.0
31	17	13	23	963	222.0	-181925.0	-1416.0	-4807.0
31	17	13	23	963	223.0	-181329.0	-1419.0	-4747.0
31	17	13	23	964	224.0	-180604.0	-1415.0	-5002.0
31	17	13	23	965	225.0	-179885.0	-1394.0	-5197.0
31	17	13	23	965	226.0	-179185.0	-1360.0	-5257.0
31	17	13	23	966	227.0	-178234.0	-1370.0	-5220.0
31	17	13	23	967	238.0	-146921.0	-1401.0	-2686.0
31	17	13	23	967	239.0	-144176.0	-1401.0	-1437.0
31	17	13	23	968	240.0	-141456.0	-1376.0	-389.0
31	17	13	23	969	241.0	-138571.0	-1359.0	-216.0
31	17	13	23	969	242.0	-135967.0	-1355.0	-840.0
31	17	13	23	970	243.0	-133559.0	-1320.0	-582.0
31	17	13	24	1	244.0	-131859.0	-1316.0	-716.0
31	17	13	24	2	245.0	-131217.0	-1294.0	-1104.0
31	17	13	24	3	246.0	-131076.0	-1266.0	-838.0
31	17	13	24	4	247.0	-131217.0	-1266.0	-1095.0
31	17	13	24	4	248.0	-131302.0	-1276.0	-1562.0
31	17	13	24	5	249.0	-131221.0	-1251.0	-1587.0
31	17	13	24	6	250.0	-131591.0	-1217.0	-2439.0
31	17	13	24	7	251.0	-132737.0	-1236.0	-2679.0
31	17	13	24	7	252.0	-135107.0	-1243.0	-2627.0
31	17	13	24	8	253.0	-138388.0	-1234.0	-2297.0
31	17	13	24	9	254.0	-142414.0	-1212.0	-1822.0
31	17	13	24	9	255.0	-147631.0	-1197.0	-833.0
31	17	13	24	10	0.0	-153876.0	-1162.0	-564.0
31	17	13	24	11	1.0	-161162.0	-1137.0	-656.0
31	17	13	24	12	2.0	-169370.0	-1141.0	-306.0
31	17	13	24	12	4.0	-187600.0	-1130.0	-1179.0
31	17	13	24	13	5.0	-197384.0	-1131.0	-756.0
31	17	13	24	14	6.0	-207233.0	-1119.0	-966.0
31	17	13	24	14	7.0	-216665.0	-1089.0	-1312.0
31	17	13	24	15	8.0	-225244.0	-1052.0	-1489.0
31	17	13	24	16	9.0	-232465.0	-1032.0	-1414.0
31	17	13	24	16	10.0	-238463.0	-987.0	-1907.0
31	17	13	24	45	11.0	-243396.0	-967.0	-2703.0
31	17	13	24	46	12.0	-247277.0	-987.0	-2546.0
31	17	13	24	47	13.0	-249718.0	-992.0	-2169.0
31	17	13	24	47	14.0	-249869.0	-987.0	-1986.0
31	17	13	24	48	15.0	-246809.0	-988.0	-1810.0
31	17	13	24	48	16.0	-237928.0	-1002.0	-1226.0
31	17	13	24	49	17.0	-219852.0	-1007.0	-1730.0
31	17	13	24	49	18.0	-194526.0	-1027.0	-2476.0
31	17	13	24	50	19.0	-165356.0	-1062.0	-2101.0
31	17	13	24	51	20.0	-154046.0	-1052.0	-2116.0
31	17	13	24	51	21.0	-154314.0	-1072.0	-1959.0
31	17	13	24	52	22.0	-164564.0	-1076.0	-2140.0
31	17	13	24	52	23.0	-183709.0	-1057.0	-2557.0
31	17	13	24	53	24.0	-194948.0	-1061.0	-3264.0
31	17	13	24	53	25.0	-192207.0	-1086.0	-3726.0
31	17	13	24	54	26.0	-184327.0	-1075.0	-3658.0
31	17	13	24	54	27.0	-175191.0	-1078.0	-3087.0
31	17	13	24	55	28.0	-162861.0	-1051.0	-2393.0
31	17	13	24	56	29.0	-149287.0	-1032.0	-1379.0
31	17	13	24	56	30.0	-135529.0	-994.0	-1771.0
31	17	13	24	57	31.0	-125368.0	-979.0	-2992.0
31	17	13	24	57	32.0	-120624.0	-986.0	-2952.0
31	17	13	24	89	33.0	-117545.0	-960.0	-2701.0
31	17	13	24	90	34.0	-114474.0	-945.0	-2478.0
31	17	13	24	91	35.0	-112266.0	-961.0	-1489.0
31	17	13	24	91	36.0	-110859.0	-956.0	-922.0
31	17	13	24	92	37.0	-109961.0	-951.0	-1371.0
31	17	13	24	92	38.0	-109567.0	-934.0	-2132.0
31	17	13	24	93	39.0	-110431.0	-945.0	-2396.0
31	17	13	24	94	40.0	-113321.0	-944.0	-3042.0
31	17	13	24	94	41.0	-117778.0	-941.0	-3197.0
31	17	13	24	95	42.0	-123184.0	-957.0	-2856.0
31	17	13	24	95	43.0	-128059.0	-971.0	-3117.0
31	17	13	24	96	44.0	-131735.0	-987.0	-2916.0
31	17	13	24	96	45.0	-134264.0	-1004.0	-2701.0
31	17	13	24	97	46.0	-136290.0	-1025.0	-3059.0
31	17	13	24	98	47.0	-138016.0	-1057.0	-3204.0
31	17	13	24	98	49.0	-139943.0	-1038.0	-3091.0
31	17	13	24	99	50.0	-140192.0	-1019.0	-3105.0
31	17	13	24	107	51.0	-140216.0	-975.0	-2437.0
31	17	13	24	108	52.0	-140029.0	-971.0	-1916.0
31	17	13	24	108	53.0	-139455.0	-947.0	-2063.0
31	17	13	24	109	54.0	-138329.0	-902.0	-2521.0
31	17	13	24	135	55.0	-136877.0	-884.0	-2136.0
31	17	13	24	136	56.0	-135536.0	-847.0	-2040.0
31	17	13	24	137	57.0	-134358.0	-831.0	-2176.0
31	17	13	24	137	58.0	-133609.0	-834.0	-2426.0
31	17	13	24	138	59.0	-133425.0	-810.0	-2662.0
31	17	13	24	138	60.0	-133801.0	-773.0	-2999.0
31	17	13	24	139	61.0	-134456.0	-771.0	-2889.0
31	17	13	24	139	62.0	-135252.0	-765.0	-2751.0
31	17	13	24	140	63.0	-136381.0	-758.0	-2521.0
31	17	13	24	141	64.0	-138309.0	-762.0	-2456.0
31	17	13	24	141	65.0	-140618.0	-766.0	-2127.0
31	17	13	24	142	66.0	-143447.0	-777.0	-2457.0
31	17	13	24	142	67.0	-146796.0	-773.0	-2830.0
31	17	13	24	143	68.0	-150683.0	-763.0	-3106.0
31	17	13	24	144	69.0	-154634.0	-772.0	-3142.0
31	17	13	24	144	71.0	-162447.0	-766.0	-2231.0
31	17	13	24	145	72.0	-165935.0	-759.0	-2447.0
31	17	13	24	145	73.0	-169211.0	-739.0	-2863.0
31	17	13	24	146	74.0	-171896.0	-743.0	-3741.0
31	17	13	24	146	75.0	-174648.0	-759.0	-4547.0
31	17	13	24	147	76.0	-177997.0	-740.0	-4018.0
31	17	13	24	148	77.0	-180975.0	-742.0	-2915.0
31	17	13	24	181	78.0	-183353.0	-757.0	-2219.0
31	17	13	24	182	79.0	-185635.0	-744.0	-1586.0
31	17	13	24	183	80.0	-187937.0	-757.0	-2213.0
31	17	13	24	184	81.0	-190241.0	-769.0	-3519.0
31	17	13	24	184	82.0	-192476.0	-807.0	-3744.0
31	17	13	24	185	83.0	-194464.0	-822.0	-2589.0
31	17	13	24	185	84.0	-196371.0	-827.0	-2205.0
31	17	13	24	186	85.0	-198451.0	-844.0	-1990.0
31	17	13	24	187	86.0	-200951.0	-853.0	-876.0
31	17	13	24	187	87.0	-203423.0	-856.0	-535.0
31	17	13	24	188	88.0	-205012.0	-874.0	-882.0
31	17	13	24	188	89.0	-206146.0	-879.0	-1101.0
31	17	13	24	189	90.0	-207169.0	-867.0	-1212.0
31	17	13	24	189	91.0	-208397.0	-862.0	-1614.0
31	17	13	24	190	92.0	-209907.0	-877.0	-1643.0
31	17	13	24	191	94.0	-211674.0	-900.0	-1457.0
31	17	13	24	191	95.0	-211982.0	-895.0	-647.0
31	17	13	24	192	96.0	-212114.0	-869.0	-353.0
31	17	13	24	192	97.0	-211846.0	-876.0	-564.0
31	17	13	24	193	98.0	-211227.0	-855.0	-712.0
31	17	13	24	193	99.0	-210407.0	-850.0	-892.0
31	17	13	24	271	100.0	-209291.0	-838.0	-1081.0
31	17	13	24	272	101.0	-207717.0	-845.0	-1170.0
31	17	13	24	273	102.0	-205720.0	-867.0	-1548.0
31	17	13	24	273	103.0	-203314.0	-876.0	-2477.0
31	17	13	24	274	104.0	-200674.0	-896.0	-2901.0
31	17	13	24	275	105.0	-198157.0	-931.0	-2319.0
31	17	13	24	275	106.0	-196312.0	-939.0	-1947.0
31	17	13	24	276	107.0	-195009.0	-945.0	-1881.0
31	17	13	24	277	108.0	-193704.0	-970.0	-1589.0
31	17	13	24	277	109.0	-192342.0	-942.0	-1416.0
31	17	13	24	278	110.0	-190874.0	-958.0	-1759.0
31	17	13	24	278	111.0	-189125.0	-977.0	-1866.0
31	17	13	24	279	112.0	-186831.0	-987.0	-1334.0
31	17	13	24	280	113.0	-184295.0	-992.0	-1984.0
31	17	13	24	280	114.0	-181761.0	-1026.0	-2304.0
31	17	13	24	281	139.0	-184417.0	-1612.0	-500.0
31	17	13	24	282	140.0	-187833.0	-1615.0	-1087.0
31	17	13	24	282	141.0	-190564.0	-1635.0	-1227.0
31	17	13	24	283	142.0	-192117.0	-1644.0	-1373.0
31	17	13	24	283	143.0	-193066.0	-1638.0	-1876.0
31	17	13	24	284	144.0	-193257.0	-1642.0	-1672.0
31	17	13	24	315	145.0	-192739.0	-1616.0	-1350.0
31	17	13	24	338	146.0	-191716.0	-1622.0	-1123.0
31	17	13	24	339	147.0	-190589.0	-1630.0	-719.0
31	17	13	24	339	148.0	-189539.0	-1654.0	-431.0
31	17	13	24	340	149.0	-188115.0	-1641.0	-774.0
31	17	13	24	340	150.0	-186606.0	-1652.0	-753.0
31	17	13	24	341	151.0	-184692.0	-1663.0	-1154.0
31	17	13	24	342	152.0	-181856.0	-1678.0	-2051.0
31	17	13	24	342	153.0	-178985.0	-1687.0	-2559.0
31	17	13	24	343	154.0	-175982.0	-1713.0	-2085.0
31	17	13	24	343	155.0	-172643.0	-1739.0	-1813.0
31	17	13	24	344	156.0	-169213.0	-1757.0	-1448.0
31	17	13	24	344	157.0	-166146.0	-1765.0	-1175.0
31	17	13	24	345	158.0	-163891.0	-1803.0	-1183.0
31	17	13	24	345	159.0	-162073.0	-1816.0	-2040.0
31	17	13	24	346	161.0	-158743.0	-1829.0	-3244.0
31	17	13	24	347	162.0	-158030.0	-1837.0	-2887.0
31	17	13	24	347	163.0	-157756.0	-1852.0	-2123.0
31	17	13	24	348	164.0	-157348.0	-1847.0	-1177.0
31	17	13	24	348	165.0	-156908.0	-1848.0	-21.0
31	17	13	24	349	166.0	-156756.0	-1846.0	231.0
31	17	13	24	361	167.0	-156550.0	-1822.0	-374.0
31	17	13	24	362	168.0	-156465.0	-1806.0	-514.0
31	17	13	24	363	169.0	-156464.0	-1783.0	-885.0
31	17	13	24	363	170.0	-156466.0	-1797.0	-876.0
31	17	13	24	364	171.0	-156351.0	-1813.0	-1035.0
31	17	13	24	365	172.0	-155652.0	-1820.0	-1137.0
31	17	13	24	365	173.0	-154671.0	-1804.0	-1738.0
31	17	13	24	366	174.0	-153896.0	-1804.0	-1928.0
31	17	13	24	366	175.0	-153035.0	-1836.0	-1894.0
31	17	13	24	367	176.0	-152319.0	-1836.0	-1305.0
31	17	13	24	368	177.0	-151576.0	-1827.0	-1750.0
31	17	13	24	368	178.0	-150831.0	-1846.0	-1964.0
31	17	13	24	369	179.0	-150854.0	-1840.0	-2110.0
31	17	13	24	369	180.0	-151754.0	-1856.0	-1857.0
31	17	13	24	370	181.0	-152915.0	-1869.0	-1312.0
31	17	13	24	371	183.0	-154247.0	-1895.0	-216.0
31	17	13	24	371	184.0	-154882.0	-1927.0	-932.0
31	17	13	24	372	185.0	-155872.0	-1943.0	-1369.0
31	17	13	24	372	186.0	-156799.0	-1927.0	-1087.0
31	17	13	24	373	187.0	-157956.0	-1894.0	-1649.0
31	17	13	24	374	188.0	-159421.0	-1894.0	-1803.0
31	17	13	24	374	189.0	-160646.0	-1886.0	-1464.0
31	17	13	24	405	190.0	-161741.0	-1858.0	-841.0
31	17	13	24	406	191.0	-162955.0	-1834.0	-637.0
31	17	13	24	406	192.0	-164679.0	-1827.0	-554.0
31	17	13	24	407	193.0	-166559.0	-1832.0	-512.0
31	17	13	24	408	194.0	-168132.0	-1861.0	-676.0
31	17	13	24	408	195.0	-168762.0	-1873.0	-444.0
31	17	13	24	409	196.0	-168605.0	-1859.0	-502.0
31	17	13	24	409	197.0	-168111.0	-1844.0	-807.0
31	17	13	24	410	198.0	-167124.0	-1832.0	-891.0
31	17	13	24	411	199.0	-165763.0	-1804.0	-1044.0
31	17	13	24	411	200.0	-164309.0	-1786.0	-1752.0
31	17	13	24	412	201.0	-163182.0	-1806.0	-1831.0
31	17	13	24	413	202.0	-162407.0	-1796.0	-2259.0
31	17	13	24	413	203.0	-161721.0	-1783.0	-2900.0
31	17	13	24	414	204.0	-160933.0	-1781.0	-2668.0
31	17	13	24	415	206.0	-159458.0	-1757.0	-1749.0
31	17	13	24	416	207.0	-158961.0	-1773.0	-1604.0
31	17	13	24	416	208.0	-158446.0	-1755.0	-1200.0
31	17	13	24	417	209.0	-158417.0	-1741.0	-1249.0
31	17	13	24	418	210.0	-158779.0	-1727.0	-1372.0
31	17	13	24	418	211.0	-159056.0	-1719.0	-1604.0
31	17	13	24	419	212.0	-159067.0	-1693.0	-1184.0
31	17	13	24	451	213.0	-159136.0	-1659.0	-1310.0
31	17	13	24	451	214.0	-158997.0	-1626.0	-1147.0
31	17	13	24	452	215.0	-158456.0	-1618.0	-1333.0
31	17	13	24	453	216.0	-157772.0	-1623.0	-1947.0
31	17	13	24	453	217.0	-157001.0	-1617.0	-1817.0
31	17	13	24	454	218.0	-155701.0	-1619.0	-1069.0
31	17	13	24	455	219.0	-153864.0	-1613.0	-1198.0
31	17	13	24	455	220.0	-152208.0	-1631.0	-726.0
31	17	13	24	456	221.0	-150944.0	-1634.0	-221.0
31	17	13	24	456	222.0	-149689.0	-1631.0	-551.0
31	17	13	24	457	223.0	-148095.0	-1629.0	-1507.0
31	17	13	24	458	224.0	-146514.0	-1635.0	-813.0
31	17	13	24	458	225.0	-145406.0	-1657.0	-959.0
31	17	13	24	459	226.0	-145032.0	-1679.0	-1592.0
31	17	13	24	459	227.0	-145201.0	-1680.0	-1372.0
31	17	13	24	460	228.0	-145679.0	-1699.0	-1252.0
31	17	13	24	461	229.0	-146426.0	-1694.0	-1647.0
31	17	13	24	461	230.0	-147477.0	-1671.0	-1366.0
31	17	13	24	462	231.0	-148956.0	-1675.0	-739.0
31	17	13	24	462	232.0	-151227.0	-1686.0	-1051.0
31	17	13	24	463	233.0	-154526.0	-1679.0	-1879.0
31	17	13	24	464	234.0	-157841.0	-1678.0	-2368.0
31	17	13	24	495	235.0	-161179.0	-1666.0	-2573.0
31	17	13	24	496	236.0	-164646.0	-1665.0	-2244.0
31	17	13	24	497	237.0	-167970.0	-1631.0	-2213.0
31	17	13	24	497	238.0	-170593.0	-1619.0	-2012.0
31	17	13	24	498	239.0	-172749.0	-1632.0	-1477.0
31	17	13	24	498	240.0	-175160.0	-1637.0	-832.0
31	17	13	24	499	241.0	-177430.0	-1636.0	-1226.0
31	17	13	24	500	242.0	-179354.0	-1636.0	-1632.0
31	17	13	24	500	243.0	-181598.0	-1619.0	-1456.0
31	17	13	24	501	244.0	-184331.0	-1635.0	-1186.0
31	17	13	24	501	245.0	-187224.0	-1623.0	-1124.0
31	17	13	24	502	246.0	-189901.0	-1634.0	-947.0
31	17	13	24	503	247.0	-192121.0	-1651.0	-669.0
31	17	13	24	503	248.0	-193541.0	-1656.0	-961.0
31	17	13	24	504	249.0	-194218.0	-1661.0	-1432.0
31	17	13	24	505	251.0	-194377.0	-1641.0	-2709.0
31	17	13	24	505	252.0	-193632.0	-1642.0	-2862.0
31	17	13	24	506	253.0	-192529.0	-1641.0	-2717.0
31	17	13	24	506	254.0	-191714.0	-1654.0	-2066.0
31	17	13	24	507	255.0	-190781.0	-1651.0	-1696.0
31	17	13	24	507	0.0	-189310.0	-1641.0	-1147.0
31	17	13	24	540	1.0	-187536.0	-1625.0	-779.0
31	17	13	24	541	2.0	-185704.0	-1614.0	-1397.0
31	17	13	24	542	3.0	-183578.0	-1612.0	-1426.0
31	17	13	24	542	4.0	-181174.0	-1637.0	-1094.0
31	17	13	24	543	5.0	-178694.0	-1649.0	-221.0
31	17	13	24	544	6.0	-175951.0	-1652.0	-424.0
31	17	13	24	544	7.0	-171646.0	-1644.0	-650.0
31	17	13	24	545	8.0	-166571.0	-1662.0	-422.0
31	17	13	24	546	9.0	-161679.0	-1670.0	-755.0
31	17	13	24	546	10.0	-157180.0	-1670.0	-1225.0
31	17	13	24	547	11.0	-153376.0	-1654.0	-1175.0
31	17	13	24	547	12.0	-150420.0	-1648.0	-1177.0
31	17	13	24	548	13.0	-147951.0	-1639.0	-1397.0
31	17	13	24	549	14.0	-146761.0	-1639.0	-1494.0
31	17	13	24	549	15.0	-146549.0	-1616.0	-1796.0
31	17	13	24	550	17.0	-147914.0	-1628.0	-1907.0
31	17	13	24	551	18.0	-149421.0	-1631.0	-1195.0
31	17	13	24	551	19.0	-151915.0	-1640.0	-592.0
31	17	13	24	552	20.0	-154846.0	-1659.0	-1140.0
31	17	13	24	552	21.0	-157316.0	-1643.0	-1621.0
31	17	13	24	553	22.0	-159720.0	-1640.0	-1589.0
31	17	13	24	553	23.0	-162795.0	-1622.0	-1724.0
31	17	13	24	585	24.0	-166069.0	-1612.0	-1617.0
31	17	13	24	586	25.0	-169191.0	-1626.0	-1403.0
31	17	13	24	586	26.0	-172295.0	-1663.0	-851.0
31	17	13	24	587	27.0	-175332.0	-1661.0	-661.0
31	17	13	24	588	28.0	-178151.0	-1699.0	-769.0
31	17	13	24	588	29.0	-180554.0	-1726.0	-322.0
31	17	13	24	589	30.0	-182343.0	-1730.0	-552.0
31	17	13	24	590	31.0	-183231.0	-1769.0	-981.0
31	17	13	24	590	32.0	-183415.0	-1776.0	-1152.0
31	17	13	24	591	33.0	-183394.0	-1779.0	-1870.0
31	17	13	24	592	34.0	-182991.0	-1816.0	-2429.0
31	17	13	24	592	35.0	-182192.0	-1820.0	-2387.0
31	17	13	24	593	36.0	-181114.0	-1826.0	-1704.0
31	17	13	24	593	37.0	-179667.0	-1826.0	-1432.0
31	17	13	24	594	38.0	-177910.0	-1839.0	-450.0
31	17	13	24	595	40.0	-172966.0	-1855.0	-149.0
31	17	13	24	595	41.0	-169899.0	-1850.0	-356.0
31	17	13	24	596	42.0	-166498.0	-1839.0	-421.0
31	17	13	24	596	43.0	-162916.0	-1812.0	-704.0
31	17	13	24	597	44.0	-158975.0	-1777.0	-1396.0
31	17	13	24	598	45.0	-154650.0	-1767.0	-1184.0
31	17	13	24	631	46.0	-150229.0	-1729.0	-1495.0
31	17	13	24	632	47.0	-145751.0	-1721.0	-1814.0
31	17	13	24	633	48.0	-141244.0	-1736.0	-1664.0
31	17	13	24	633	49.0	-136995.0	-1734.0	-1244.0
31	17	13	24	634	50.0	-133355.0	-1755.0	-994.0
31	17	13	24	634	51.0	-130576.0	-1771.0	-929.0
31	17	13	24	635	52.0	-128729.0	-1761.0	-870.0
31	17	13	24	636	53.0	-128226.0	-1764.0	-907.0
31	17	13	24	636	54.0	-129206.0	-1768.0	-1058.0
31	17	13	24	637	55.0	-131108.0	-1794.0	-1402.0
31	17	13	24	638	56.0	-133557.0	-1816.0	-2008.0
31	17	13	24	638	57.0	-136665.0	-1840.0	-1313.0
31	17	13	24	639	58.0	-140666.0	-1862.0	-649.0
31	17	13	24	640	59.0	-145354.0	-1877.0	-1275.0
31	17	13	24	640	60.0	-150353.0	-1870.0	-1673.0
31	17	13	24	641	62.0	-160278.0	-1901.0	-410.0
31	17	13	24	641	63.0	-164491.0	-1907.0	-449.0
31	17	13	24	642	64.0	-168291.0	-1894.0	-376.0
31	17	13	24	643	65.0	-171313.0	-1881.0	-243.0
31	17	13	24	643	66.0	-174045.0	-1874.0	-717.0
31	17	13	24	644	67.0	-176631.0	-1865.0	-917.0
31	17	13	24	644	68.0	-178608.0	-1862.0	-579.0
31	17	13	24	676	69.0	-179891.0	-1851.0	-433.0
31	17	13	24	676	70.0	-180204.0	-1846.0	-383.0
31	17	13	24	677	71.0	-179916.0	-1881.0	225.0
31	17	13	24	678	72.0	-179168.0	-1899.0	73.0
31	17	13	24	678	73.0	-177790.0	-1930.0	-1713.0
31	17	13	24	679	74.0	-176144.0	-1959.0	-3004.0
31	17	13	24	680	75.0	-174526.0	-1962.0	-3574.0
31	17	13	24	680	76.0	-173086.0	-1973.0	-4716.0
31	17	13	24	681	77.0	-171871.0	-1987.0	-6132.0
31	17	13	24	682	78.0	-170657.0	-1983.0	-7740.0
31	17	13	24	682	79.0	-169991.0	-1979.0	-8565.0
31	17	13	24	683	80.0	-170127.0	-1961.0	-7285.0
31	17	13	24	684	81.0	-170861.0	-1981.0	-5300.0
31	17	13	24	684	82.0	-172435.0	-1986.0	-3409.0
31	17	13	24	685	83.0	-174947.0	-2005.0	-1375.0
31	17	13	24	686	85.0	-181691.0	-2024.0	1545.0
31	17	13	24	686	86.0	-185301.0	-2006.0	3532.0
31	17	13	24	687	87.0	-188460.0	-2006.0	6688.0
31	17	13	24	688	88.0	-190476.0	-2007.0	9579.0
31	17	13	24	688	89.0	-190450.0	-1968.0	12648.0
31	17	13	24	689	90.0	-187751.0	-1920.0	14181.0
31	17	13	24	721	91.0	-182340.0	-1886.0	14958.0
31	17	13	24	766	92.0	-174887.0	-1868.0	14957.0
31	17	13	24	811	93.0	-166440.0	-1832.0	14443.0
31	17	13	24	812	94.0	-157823.0	-1847.0	11449.0
31	17	13	24	813	95.0	-150360.0	-1835.0	10299.0
31	17	13	24	814	96.0	-145933.0	-1814.0	10961.0
31	17	13	24	814	97.0	-145111.0	-1806.0	12055.0
31	17	13	24	815	98.0	-148217.0	-1784.0	14010.0
31	17	13	24	816	99.0	-155112.0	-1772.0	14757.0
31	17	13	24	816	100.0	-165206.0	-1774.0	14334.0
31	17	13	24	817	101.0	-177769.0	-1767.0	13124.0
31	17	13	24	818	102.0	-189549.0	-1751.0	11955.0
31	17	13	24	818	103.0	-193493.0	-1718.0	11083.0
31	17	13	24	819	104.0	-177774.0	-1693.0	8988.0
31	17	13	24	820	105.0	-144540.0	-1684.0	6621.0
31	17	13	24	820	107.0	-75222.0	-1694.0	4166.0
31	17	13	24	821	130.0	-198972.0	-1499.0	-3554.0
31	17	13	24	821	152.0	-66561.0	-1519.0	-3179.0
31	17	13	24	822	153.0	-70131.0	-1496.0	-3704.0
31	17	13	24	823	154.0	-74742.0	-1454.0	-4395.0
31	17	13	24	823	155.0	-79874.0	-1421.0	-4869.0
31	17	13	24	824	156.0	-86248.0	-1396.0	-4980.0
31	17	13	24	825	157.0	-93191.0	-1407.0	-4404.0
31	17	13	24	855	158.0	-101342.0	-1410.0	-4893.0
31	17	13	24	856	159.0	-109884.0	-1384.0	-5070.0
31	17	13	24	858	160.0	-118164.0	-1381.0	-5223.0
31	17	13	24	858	161.0	-125556.0	-1375.0	-5160.0
31	17	13	24	859	162.0	-132192.0	-1353.0	-5210.0
31	17	13	24	860	163.0	-139137.0	-1386.0	-4549.0
31	17	13	24	860	164.0	-146297.0	-1400.0	-3961.0
31	17	13	24	861	165.0	-153154.0	-1399.0	-4560.0
31	17	13	24	862	166.0	-159055.0	-1385.0	-4959.0
31	17	13	24	862	167.0	-164899.0	-1402.0	-4547.0
31	17	13	24	863	168.0	-170414.0	-1391.0	-4672.0
31	17	13	24	864	169.0	-174979.0	-1402.0	-4877.0
31	17	13	24	865	170.0	-178316.0	-1412.0	-4785.0
31	17	13	24	865	171.0	-180695.0	-1412.0	-5104.0
31	17	13	24	866	172.0	-182642.0	-1380.0	-5472.0
31	17	13	24	866	174.0	-185416.0	-1357.0	-4997.0
31	17	13	24	867	175.0	-186259.0	-1354.0	-5222.0
31	17	13	24	868	176.0	-186441.0	-1364.0	-5389.0
31	17	13	24	868	177.0	-186550.0	-1346.0	-5316.0
31	17	13	24	869	178.0	-186684.0	-1311.0	-5949.0
31	17	13	24	869	179.0	-186169.0	-1279.0	-6221.0
31	17	13	24	870	180.0	-184972.0	-1284.0	-5463.0
31	17	13	24	902	181.0	-183249.0	-1287.0	-5147.0
31	17	13	24	902	182.0	-180891.0	-1258.0	-5030.0
31	17	13	24	903	183.0	-178454.0	-1269.0	-4843.0
31	17	13	24	904	184.0	-175853.0	-1281.0	-5016.0
31	17	13	24	905	185.0	-173389.0	-1284.0	-5177.0
31	17	13	24	905	186.0	-171189.0	-1282.0	-5732.0
31	17	13	24	906	187.0	-169626.0	-1291.0	-5824.0
31	17	13	24	907	188.0	-169077.0	-1314.0	-6272.0
31	17	13	24	908	189.0	-168686.0	-1309.0	-6165.0
31	17	13	24	908	190.0	-167953.0	-1316.0	-5332.0
31	17	13	24	909	191.0	-167332.0	-1334.0	-5139.0
31	17	13	24	909	192.0	-167520.0	-1318.0	-5571.0
31	17	13	24	946	193.0	-168711.0	-1323.0	-7334.0
31	17	13	24	946	194.0	-170911.0	-1327.0	-7692.0
31	17	13	24	947	195.0	-173751.0	-1332.0	-7587.0
31	17	13	24	948	197.0	-178227.0	-1359.0	-5211.0
31	17	13	24	949	198.0	-180112.0	-1356.0	-4239.0
31	17	13	24	949	199.0	-181917.0	-1343.0	-4471.0
31	17	13	24	950	200.0	-182714.0	-1342.0	-4098.0
31	17	13	24	951	201.0	-182929.0	-1336.0	-4654.0
31	17	13	24	951	202.0	-182214.0	-1349.0	-5629.0
31	17	13	24	952	203.0	-181695.0	-1391.0	-5353.0
31	17	13	24	953	204.0	-181864.0	-1402.0	-4970.0
31	17	13	24	953	205.0	-182169.0	-1419.0	-4843.0
31	17	13	24	954	206.0	-181951.0	-1461.0	-4009.0
31	17	13	24	955	207.0	-181318.0	-1461.0	-3057.0
31	17	13	24	955	208.0	-180276.0	-1443.0	-2652.0
31	17	13	24	956	219.0	-155186.0	-1477.0	-2406.0
31	17	13	24	957	220.0	-154789.0	-1486.0	-2637.0
31	17	13	24	957	221.0	-155101.0	-1504.0	-2439.0
31	17	13	24	958	222.0	-155641.0	-1494.0	-2416.0
31	17	13	24	958	223.0	-156408.0	-1487.0	-2517.0
31	17	13	24	959	224.0	-157330.0	-1477.0	-2182.0
31	17	13	24	960	225.0	-158491.0	-1456.0	-1947.0
31	17	13	24	990	226.0	-160180.0	-1433.0	-1521.0
31	17	13	24	991	227.0	-162427.0	-1454.0	-1368.0
31	17	13	24	992	228.0	-165393.0	-1449.0	-1030.0
31	17	13	24	992	229.0	-169061.0	-1452.0	-1209.0
31	17	13	24	993	230.0	-173712.0	-1452.0	-1106.0
31	17	13	24	994	231.0	-179181.0	-1447.0	-792.0
31	17	13	24	995	232.0	-184611.0	-1451.0	-1435.0
31	17	13	24	995	233.0	-190281.0	-1460.0	-2236.0
31	17	13	24	996	234.0	-196612.0	-1456.0	-2253.0
31	17	13	24	997	235.0	-203186.0	-1472.0	-2452.0
31	17	13	24	997	236.0	-210116.0	-1486.0	-1868.0
31	17	13	24	998	237.0	-217218.0	-1495.0	-1114.0
31	17	13	24	999	238.0	-224676.0	-1497.0	-526.0
31	17	13	24	999	239.0	-232463.0	-1497.0	-557.0
31	17	13	25	0	240.0	-240014.0	-1497.0	-561.0
31	17	13	25	1	242.0	-255011.0	-1526.0	-2320.0
31	17	13	25	1	243.0	-263110.0	-1517.0	-3563.0
31	17	13	25	2	244.0	-271391.0	-1526.0	-3772.0
31	17	13	25	3	245.0	-278841.0	-1528.0	-3980.0
31	17	13	25	3	246.0	-286196.0	-1521.0	-3373.0
31	17	13	25	4	247.0	-293096.0	-1499.0	-1889.0
31	17	13	25	36	248.0	-299003.0	-1475.0	-121.0
31	17	13	25	37	249.0	-303197.0	-1441.0	368.0
31	17	13	25	38	250.0	-304997.0	-1412.0	956.0
31	17	13	25	39	251.0	-304361.0	-1402.0	1120.0
31	17	13	25	39	252.0	-300464.0	-1416.0	505.0
31	17	13	25	40	253.0	-291020.0	-1429.0	-411.0
31	17	13	25	41	254.0	-271674.0	-1436.0	-646.0
31	17	13	25	41	255.0	-243014.0	-1445.0	-1024.0
31	17	13	25	42	0.0	-211520.0	-1449.0	-1555.0
31	17	13	25	43	1.0	-198006.0	-1479.0	-1454.0
31	17	13	25	43	2.0	-196718.0	-1508.0	-1622.0
31	17	13	25	44	3.0	-204694.0	-1509.0	-2049.0
31	17	13	25	45	4.0	-222225.0	-1499.0	-1838.0
31	17	13	25	45	5.0	-235689.0	-1500.0	-2067.0
31	17	13	25	46	6.0	-236066.0	-1483.0	-2056.0
31	17	13	25	47	8.0	-226087.0	-1470.0	-2130.0
31	17	13	25	47	9.0	-219435.0	-1479.0	-3044.0
31	17	13	25	48	10.0	-210320.0	-1504.0	-2987.0
31	17	13	25	49	11.0	-199631.0	-1525.0	-3122.0
31	17	13	25	49	12.0	-190137.0	-1517.0	-3082.0
31	17	13	25	50	13.0	-185469.0	-1516.0	-2690.0
31	17	13	25	50	14.0	-185671.0	-1512.0	-1996.0
31	17	13	25	82	15.0	-187474.0	-1500.0	-2192.0
31	17	13	25	83	16.0	-191372.0	-1489.0	-2091.0
31	17	13	25	84	17.0	-198470.0	-1511.0	-2056.0
31	17	13	25	84	18.0	-207377.0	-1529.0	-2305.0
31	17	13	25	85	19.0	-216178.0	-1523.0	-2649.0
31	17	13	25	86	20.0	-224284.0	-1539.0	-2098.0
31	17	13	25	87	21.0	-233710.0	-1554.0	-1891.0
31	17	13	25	87	22.0	-244427.0	-1560.0	-2090.0
31	17	13	25	88	23.0	-257586.0	-1575.0	-2415.0
31	17	13	25	89	24.0	-271580.0	-1600.0	-2242.0
31	17	13	25	89	25.0	-286335.0	-1605.0	-3117.0
31	17	13	25	90	26.0	-301577.0	-1632.0	-4087.0
31	17	13	25	91	27.0	-315541.0	-1667.0	-4491.0
31	17	13	25	92	28.0	-329702.0	-1675.0	-4488.0
31	17	13	25	93	29.0	-344932.0	-1678.0	-4182.0
31	17	13	25	93	31.0	-374081.0	-1719.0	-2464.0
31	17	13	25	94	32.0	-387090.0	-1751.0	-2016.0
31	17	13	25	95	33.0	-398091.0	-1774.0	-2093.0
31	17	13	25	95	34.0	-407006.0	-1774.0	-2301.0
31	17	13	25	96	35.0	-413483.0	-1753.0	-2774.0
31	17	13	25	97	36.0	-418061.0	-1735.0	-3236.0
31	17	13	25	140	37.0	-421066.0	-1719.0	-3148.0
31	17	13	25	166	38.0	-424081.0	-1734.0	-3409.0
31	17	13	25	168	39.0	-427146.0	-1756.0	-3540.0
31	17	13	25	168	40.0	-429251.0	-1769.0	-2857.0
31	17	13	25	169	41.0	-428962.0	-1786.0	-2393.0
31	17	13	25	170	42.0	-427371.0	-1796.0	-1219.0
31	17	13	25	171	43.0	-424432.0	-1825.0	-241.0
31	17	13	25	172	44.0	-419158.0	-1843.0	238.0
31	17	13	25	172	45.0	-411960.0	-1851.0	-398.0
31	17	13	25	173	46.0	-402871.0	-1844.0	-898.0
31	17	13	25	174	47.0	-392967.0	-1841.0	-1249.0
31	17	13	25	174	48.0	-381904.0	-1832.0	-1507.0
31	17	13	25	175	49.0	-369279.0	-1843.0	-1556.0
31	17	13	25	176	50.0	-355372.0	-1866.0	-1177.0
31	17	13	25	176	51.0	-340755.0	-1882.0	-1749.0
31	17	13	25	177	61.0	-212091.0	-1923.0	-2021.0
31	17	13	25	178	68.0	-176477.0	-1900.0	-1715.0
31	17	13	25	178	69.0	-175002.0	-1912.0	-2207.0
31	17	13	25	179	70.0	-174961.0	-1904.0	-2591.0
31	17	13	25	180	71.0	-175029.0	-1904.0	-2879.0
31	17	13	25	180	72.0	-175197.0	-1900.0	-3105.0
31	17	13	25	181	73.0	-176076.0	-1900.0	-3147.0
31	17	13	25	181	74.0	-177454.0	-1877.0	-2701.0
31	17	13	25	182	75.0	-178699.0	-1860.0	-2342.0
31	17	13	25	183	76.0	-179702.0	-1860.0	-1981.0
31	17	13	25	195	77.0	-180495.0	-1861.0	-1154.0
31	17	13	25	207	78.0	-180944.0	-1856.0	-655.0
31	17	13	25	210	79.0	-181098.0	-1875.0	-640.0
31	17	13	25	212	80.0	-180859.0	-1874.0	-597.0
31	17	13	25	213	81.0	-180498.0	-1890.0	-394.0
31	17	13	25	213	82.0	-179992.0	-1903.0	-717.0
31	17	13	25	214	83.0	-179476.0	-1911.0	-727.0
31	17	13	25	214	84.0	-178659.0	-1917.0	-549.0
31	17	13	25	215	85.0	-177756.0	-1904.0	-866.0
31	17	13	25	215	86.0	-176852.0	-1913.0	-1547.0
31	17	13	25	216	87.0	-175611.0	-1927.0	-1426.0
31	17	13	25	217	88.0	-173941.0	-1927.0	-877.0
31	17	13	25	217	89.0	-171662.0	-1956.0	-640.0
31	17	13	25	218	90.0	-168901.0	-1988.0	-202.0
31	17	13	25	218	91.0	-166117.0	-1999.0	-445.0
31	17	13	25	219	92.0	-163137.0	-1993.0	-1359.0
31	17	13	25	219	93.0	-160214.0	-1987.0	-2047.0
31	17	13	25	220	94.0	-157846.0	-2007.0	-2197.0
31	17	13	25	220	95.0	-156199.0	-2026.0	-3017.0
31	17	13	25	221	96.0	-154915.0	-2046.0	-2374.0
31	17	13	25	221	97.0	-153466.0	-2053.0	-1147.0
31	17	13	25	222	98.0	-151331.0	-2081.0	-314.0
31	17	13	25	223	99.0	-149369.0	-2106.0	99.0
31	17	13	25	232	100.0	-147456.0	-2097.0	1022.0
31	17	13	25	234	101.0	-144834.0	-2081.0	828.0
31	17	13	25	235	102.0	-142118.0	-2092.0	-248.0
31	17	13	25	236	103.0	-139304.0	-2106.0	-593.0
31	17	13	25	237	104.0	-136686.0	-2117.0	-947.0
31	17	13	25	237	105.0	-134089.0	-2132.0	-1152.0
31	17	13	25	238	106.0	-131304.0	-2150.0	-1081.0
31	17	13	25	252	107.0	-128942.0	-2166.0	-799.0
31	17	13	25	253	108.0	-127558.0	-2138.0	-858.0
31	17	13	25	254	109.0	-126964.0	-2109.0	-671.0
31	17	13	25	254	110.0	-126513.0	-2134.0	-739.0
31	17	13	25	255	111.0	-126175.0	-2151.0	-1638.0
31	17	13	25	255	112.0	-126042.0	-2167.0	-2012.0
31	17	13	25	256	113.0	-126490.0	-2178.0	-1631.0
31	17	13	25	257	114.0	-126726.0	-2201.0	-2314.0
31	17	13	25	277	115.0	-127211.0	-2213.0	-2141.0
31	17	13	25	278	116.0	-128352.0	-2183.0	-1632.0
31	17	13	25	278	117.0	-130036.0	-2179.0	-1313.0
31	17	13	25	279	118.0	-132058.0	-2196.0	-1276.0
31	17	13	25	279	119.0	-134657.0	-2183.0	-806.0
31	17	13	25	280	120.0	-137075.0	-2199.0	9.0
31	17	13	25	280	121.0	-138644.0	-2200.0	36.0
31	17	13	25	281	122.0	-140093.0	-2187.0	-74.0
31	17	13	25	282	123.0	-143018.0	-2172.0	60.0
31	17	13	25	282	124.0	-145518.0	-2170.0	-614.0
31	17	13	25	283	125.0	-147952.0	-2186.0	-1555.0
31	17	13	25	283	126.0	-149494.0	-2185.0	-1988.0
31	17	13	25	284	127.0	-150676.0	-2164.0	-2069.0
31	17	13	25	284	128.0	-152035.0	-2165.0	-1807.0
31	17	13	25	285	129.0	-153087.0	-2159.0	-608.0
31	17	13	25	298	130.0	-153068.0	-2133.0	465.0
31	17	13	25	299	131.0	-151919.0	-2101.0	909.0
31	17	13	25	300	132.0	-149766.0	-2093.0	436.0
31	17	13	25	300	133.0	-147469.0	-2076.0	-210.0
31	17	13	25	301	134.0	-145658.0	-2064.0	-292.0
31	17	13	25	302	135.0	-144284.0	-2064.0	-767.0
31	17	13	25	302	136.0	-142981.0	-2071.0	-1148.0
31	17	13	25	321	137.0	-141591.0	-2054.0	-931.0
31	17	13	25	321	138.0	-140137.0	-2031.0	-547.0
31	17	13	25	322	139.0	-138336.0	-2008.0	-418.0
31	17	13	25	323	140.0	-136581.0	-1989.0	-1248.0
31	17	13	25	323	141.0	-135114.0	-1991.0	-2355.0
31	17	13	25	324	142.0	-133642.0	-1989.0	-3169.0
31	17	13	25	324	143.0	-132136.0	-1974.0	-3077.0
31	17	13	25	325	144.0	-130266.0	-1964.0	-2111.0
31	17	13	25	326	145.0	-127956.0	-1928.0	-831.0
31	17	13	25	326	146.0	-125610.0	-1906.0	191.0
31	17	13	25	327	147.0	-123524.0	-1921.0	829.0
31	17	13	25	327	148.0	-121395.0	-1922.0	1080.0
31	17	13	25	328	149.0	-119303.0	-1897.0	-31.0
31	17	13	25	328	150.0	-117521.0	-1862.0	-853.0
31	17	13	25	329	151.0	-116202.0	-1834.0	-1367.0
31	17	13	25	343	152.0	-114607.0	-1833.0	-1493.0
31	17	13	25	344	153.0	-112295.0	-1851.0	-1851.0
31	17	13	25	344	154.0	-109791.0	-1828.0	-1736.0
31	17	13	25	345	155.0	-107845.0	-1797.0	-1107.0
31	17	13	25	346	156.0	-107098.0	-1782.0	-961.0
31	17	13	25	346	157.0	-107236.0	-1788.0	-1096.0
31	17	13	25	347	158.0	-107677.0	-1774.0	-870.0
31	17	13	25	347	159.0	-107860.0	-1762.0	-857.0
31	17	13	25	365	160.0	-108213.0	-1746.0	-689.0
31	17	13	25	365	161.0	-108780.0	-1719.0	-991.0
31	17	13	25	366	162.0	-108782.0	-1692.0	-1162.0
31	17	13	25	367	163.0	-108540.0	-1679.0	-1186.0
31	17	13	25	367	164.0	-108103.0	-1691.0	-891.0
31	17	13	25	368	165.0	-107369.0	-1708.0	-497.0
31	17	13	25	369	166.0	-106552.0	-1714.0	-124.0
31	17	13	25	369	167.0	-105469.0	-1693.0	198.0
31	17	13	25	370	168.0	-103620.0	-1663.0	276.0
31	17	13	25	370	169.0	-100796.0	-1672.0	-344.0
31	17	13	25	371	170.0	-97108.0	-1676.0	-1008.0
31	17	13	25	371	171.0	-93088.0	-1692.0	-1261.0
31	17	13	25	372	172.0	-89006.0	-1704.0	-1253.0
31	17	13	25	373	173.0	-84777.0	-1730.0	-1196.0
31	17	13	25	373	174.0	-80115.0	-1731.0	-1227.0
31	17	13	25	386	175.0	-75389.0	-1707.0	-1484.0
31	17	13	25	387	176.0	-70639.0	-1711.0	-1429.0
31	17	13	25	388	177.0	-66013.0	-1701.0	-1176.0
31	17	13	25	388	178.0	-61928.0	-1704.0	-1353.0
31	17	13	25	389	179.0	-58672.0	-1718.0	-1156.0
31	17	13	25	390	180.0	-56463.0	-1759.0	-1021.0
31	17	13	25	390	181.0	-55844.0	-1779.0	-846.0
31	17	13	25	409	182.0	-56616.0	-1756.0	-1350.0
31	17	13	25	410	183.0	-58470.0	-1747.0	-677.0
31	17	13	25	410	184.0	-61606.0	-1744.0	-54.0
31	17	13	25	411	185.0	-65596.0	-1748.0	52.0
31	17	13	25	412	186.0	-70207.0	-1801.0	171.0
31	17	13	25	412	187.0	-74574.0	-1824.0	-88.0
31	17	13	25	413	188.0	-78391.0	-1837.0	-1029.0
31	17	13	25	413	189.0	-81857.0	-1833.0	-1317.0
31	17	13	25	431	190.0	-85032.0	-1822.0	-900.0
31	17	13	25	432	191.0	-87944.0	-1819.0	-856.0
31	17	13	25	433	192.0	-90638.0	-1838.0	-1376.0
31	17	13	25	433	193.0	-93284.0	-1839.0	-803.0
31	17	13	25	434	194.0	-96034.0	-1842.0	-307.0
31	17	13	25	434	195.0	-98810.0	-1828.0	-1070.0
31	17	13	25	435	196.0	-101666.0	-1841.0	-1634.0
31	17	13	25	436	197.0	-104444.0	-1856.0	-1678.0
31	17	13	25	436	198.0	-106982.0	-1857.0	-1906.0
31	17	13	25	437	199.0	-109396.0	-1854.0	-1309.0
31	17	13	25	437	200.0	-112072.0	-1879.0	-824.0
31	17	13	25	438	201.0	-115139.0	-1904.0	-935.0
31	17	13	25	439	202.0	-117827.0	-1877.0	-609.0
31	17	13	25	439	203.0	-120319.0	-1896.0	-436.0
31	17	13	25	440	204.0	-122267.0	-1893.0	-656.0
31	17	13	25	440	205.0	-123089.0	-1856.0	-538.0
31	17	13	25	441	206.0	-123297.0	-1840.0	-305.0
31	17	13	25	442	207.0	-123019.0	-1841.0	-196.0
31	17	13	25	442	208.0	-122125.0	-1844.0	-1129.0
31	17	13	25	443	209.0	-120464.0	-1841.0	-1557.0
31	17	13	25	443	210.0	-118341.0	-1834.0	-1749.0
31	17	13	25	454	211.0	-115919.0	-1825.0	-1912.0
31	17	13	25	455	212.0	-113284.0	-1819.0	-1837.0
31	17	13	25	455	213.0	-110572.0	-1832.0	-1567.0
31	17	13	25	456	214.0	-108171.0	-1817.0	-1289.0
31	17	13	25	457	215.0	-106329.0	-1802.0	-1192.0
31	17	13	25	457	216.0	-104729.0	-1824.0	-1303.0
31	17	13	25	458	217.0	-103197.0	-1849.0	-1493.0
31	17	13	25	459	218.0	-101476.0	-1876.0	-1190.0
31	17	13	25	459	219.0	-99658.0	-1908.0	-628.0
31	17	13	25	475	220.0	-98322.0	-1912.0	-894.0
31	17	13	25	476	221.0	-97247.0	-1909.0	-899.0
31	17	13	25	476	222.0	-96357.0	-1914.0	-186.0
31	17	13	25	477	223.0	-95429.0	-1927.0	-124.0
31	17	13	25	478	224.0	-94036.0	-1930.0	-594.0
31	17	13	25	478	225.0	-92428.0	-1950.0	-423.0
31	17	13	25	479	226.0	-90926.0	-1964.0	-169.0
31	17	13	25	497	227.0	-89347.0	-1948.0	-505.0
31	17	13	25	498	228.0	-87887.0	-1945.0	-514.0
31	17	13	25	499	229.0	-87260.0	-1969.0	-34.0
31	17	13	25	499	230.0	-87599.0	-2002.0	-305.0
31	17	13	25	500	231.0	-88484.0	-2014.0	-786.0
31	17	13	25	501	232.0	-89541.0	-1992.0	-981.0
31	17	13	25	501	233.0	-90740.0	-2009.0	-1044.0
31	17	13	25	502	234.0	-92516.0	-2005.0	-2145.0
31	17	13	25	502	235.0	-94844.0	-1988.0	-2959.0
31	17	13	25	503	236.0	-97550.0	-1984.0	-2572.0
31	17	13	25	504	237.0	-100541.0	-1994.0	-1949.0
31	17	13	25	504	238.0	-103312.0	-2007.0	-1807.0
31	17	13	25	505	239.0	-106044.0	-2025.0	-1237.0
31	17	13	25	505	240.0	-109049.0	-2046.0	-1214.0
31	17	13	25	506	241.0	-112293.0	-2059.0	-1084.0
31	17	13	25	520	242.0	-115354.0	-2076.0	-580.0
31	17	13	25	520	243.0	-118475.0	-2087.0	126.0
31	17	13	25	521	244.0	-121355.0	-2075.0	-232.0
31	17	13	25	522	245.0	-123845.0	-2082.0	-179.0
31	17	13	25	543	246.0	-126222.0	-2087.0	-219.0
31	17	13	25	544	247.0	-128765.0	-2102.0	-957.0
31	17	13	25	544	248.0	-131371.0	-2107.0	-1670.0
31	17	13	25	545	249.0	-133606.0	-2122.0	-1472.0
31	17	13	25	545	250.0	-135760.0	-2099.0	-1209.0
31	17	13	25	546	251.0	-137392.0	-2086.0	-1009.0
31	17	13	25	547	252.0	-138617.0	-2081.0	-679.0
31	17	13	25	547	253.0	-139340.0	-2087.0	-647.0
31	17	13	25	548	254.0	-139019.0	-2077.0	-660.0
31	17	13	25	549	255.0	-138042.0	-2069.0	-563.0
31	17	13	25	549	0.0	-136909.0	-2066.0	-687.0
31	17	13	25	550	1.0	-135759.0	-2038.0	-656.0
31	17	13	25	551	2.0	-134142.0	-1996.0	-313.0
31	17	13	25	551	3.0	-132339.0	-1994.0	-247.0
31	17	13	25	552	4.0	-131366.0	-2014.0	-614.0
31	17	13	25	552	5.0	-131563.0	-2036.0	-708.0
31	17	13	25	553	6.0	-132858.0	-2041.0	-2072.0
31	17	13	25	553	7.0	-135076.0	-2063.0	-2700.0
31	17	13	25	554	8.0	-138232.0	-2046.0	-2219.0
31	17	13	25	555	9.0	-141645.0	-2034.0	-1714.0
31	17	13	25	567	10.0	-144501.0	-2042.0	-976.0
31	17	13	25	568	11.0	-146680.0	-2040.0	549.0
31	17	13	25	568	12.0	-148130.0	-2034.0	2194.0
31	17	13	25	569	13.0	-149232.0	-2046.0	1903.0
31	17	13	25	570	14.0	-149815.0	-2052.0	936.0
31	17	13	25	590	15.0	-149226.0	-2069.0	279.0
31	17	13	25	591	16.0	-147409.0	-2059.0	-212.0
31	17	13	25	592	17.0	-144939.0	-2022.0	-108.0
31	17	13	25	592	18.0	-142296.0	-2007.0	-571.0
31	17	13	25	593	19.0	-139119.0	-2016.0	-929.0
31	17	13	25	594	20.0	-135786.0	-2010.0	-692.0
31	17	13	25	594	21.0	-133190.0	-2002.0	-550.0
31	17	13	25	595	22.0	-131432.0	-1987.0	-855.0
31	17	13	25	595	23.0	-130196.0	-1977.0	-655.0
31	17	13	25	596	24.0	-129009.0	-1939.0	-527.0
31	17	13	25	596	25.0	-127982.0	-1917.0	-592.0
31	17	13	25	597	26.0	-127712.0	-1887.0	-725.0
31	17	13	25	598	27.0	-128424.0	-1881.0	-587.0
31	17	13	25	598	28.0	-129281.0	-1864.0	-1196.0
31	17	13	25	599	29.0	-130301.0	-1842.0	-1617.0
31	17	13	25	599	30.0	-131367.0	-1804.0	-1736.0
31	17	13	25	615	31.0	-132798.0	-1767.0	-1896.0
31	17	13	25	616	32.0	-134739.0	-1736.0	-2121.0
31	17	13	25	616	33.0	-136947.0	-1742.0	-2060.0
31	17	13	25	617	34.0	-139544.0	-1726.0	-1099.0
31	17	13	25	618	35.0	-142729.0	-1698.0	-659.0
31	17	13	25	618	36.0	-145816.0	-1685.0	-1238.0
31	17	13	25	619	37.0	-148154.0	-1673.0	-979.0
31	17	13	25	620	38.0	-150046.0	-1659.0	-444.0
31	17	13	25	620	39.0	-151663.0	-1614.0	-315.0
31	17	13	25	621	40.0	-152030.0	-1594.0	92.0
31	17	13	25	637	41.0	-150896.0	-1566.0	164.0
31	17	13	25	638	42.0	-148819.0	-1527.0	-2.0
31	17	13	25	639	43.0	-146201.0	-1542.0	-2.0
31	17	13	25	639	44.0	-143399.0	-1561.0	-997.0
31	17	13	25	640	45.0	-140141.0	-1523.0	-2181.0
31	17	13	25	641	46.0	-136779.0	-1492.0	-3360.0
31	17	13	25	641	47.0	-133455.0	-1484.0	-4648.0
31	17	13	25	642	48.0	-130672.0	-1490.0	-6880.0
31	17	13	25	642	49.0	-128252.0	-1482.0	-8102.0
31	17	13	25	643	50.0	-126442.0	-1472.0	-7333.0
31	17	13	25	643	51.0	-125425.0	-1482.0	-5272.0
31	17	13	25	662	52.0	-125983.0	-1489.0	-3507.0
31	17	13	25	663	53.0	-128154.0	-1482.0	-1731.0
31	17	13	25	663	54.0	-131881.0	-1466.0	-704.0
31	17	13	25	664	55.0	-137277.0	-1461.0	535.0
31	17	13	25	665	56.0	-143586.0	-1452.0	3499.0
31	17	13	25	665	57.0	-149350.0	-1484.0	6733.0
31	17	13	25	666	58.0	-153756.0	-1484.0	9035.0
31	17	13	25	667	59.0	-156534.0	-1486.0	11577.0
31	17	13	25	667	60.0	-157479.0	-1495.0	12629.0
31	17	13	25	668	61.0	-156755.0	-1507.0	12318.0
31	17	13	25	669	62.0	-154482.0	-1477.0	12619.0
31	17	13	25	669	63.0	-151467.0	-1487.0	14031.0
31	17	13	25	670	64.0	-148462.0	-1489.0	12496.0
31	17	13	25	670	65.0	-145966.0	-1481.0	10856.0
31	17	13	25	671	66.0	-143991.0	-1495.0	11372.0
31	17	13	25	671	67.0	-143086.0	-1488.0	12049.0
31	17	13	25	684	68.0	-144644.0	-1476.0	14146.0
31	17	13	25	685	69.0	-149659.0	-1457.0	15425.0
31	17	13	25	686	70.0	-157754.0	-1461.0	14358.0
31	17	13	25	687	71.0	-168840.0	-1454.0	12937.0
31	17	13	25	687	72.0	-181700.0	-1457.0	12249.0
31	17	13	25	688	73.0	-192594.0	-1471.0	10763.0
31	17	13	25	688	74.0	-192590.0	-1472.0	8244.0
31	17	13	25	689	75.0	-171403.0	-1491.0	6670.0
31	17	13	25	707	76.0	-137337.0	-1483.0	5320.0
31	17	13	25	708	77.0	-102984.0	-1479.0	3370.0
31	17	13	25	709	78.0	-70762.0	-1471.0	1836.0
31	17	13	25	709	79.0	-42742.0	-1492.0	1347.0
31	17	13	25	710	80.0	-18956.0	-1498.0	1024.0
31	17	13	25	711	81.0	-3929.0	-1502.0	474.0
31	17	13	25	711	82.0	-1422.0	-1520.0	576.0
31	17	13	25	712	83.0	-1873.0	-1530.0	518.0
31	17	13	25	713	84.0	-14109.0	-1536.0	2.0
31	17	13	25	713	85.0	-46556.0	-1548.0	-480.0
31	17	13	25	714	86.0	-72556.0	-1580.0	-869.0
31	17	13	25	715	87.0	-85757.0	-1600.0	-1592.0
31	17	13	25	715	88.0	-94382.0	-1612.0	-2027.0
31	17	13	25	716	89.0	-99416.0	-1624.0	-2055.0
31	17	13	25	716	90.0	-100854.0	-1652.0	-2289.0
31	17	13	25	730	91.0	-101549.0	-1651.0	-2541.0
31	17	13	25	730	92.0	-103824.0	-1677.0	-2712.0
31	17	13	25	731	93.0	-107709.0	-1684.0	-2563.0
31	17	13	25	732	94.0	-112131.0	-1695.0	-2778.0
31	17	13	25	732	95.0	-116627.0	-1687.0	-3011.0
31	17	13	25	733	96.0	-120123.0	-1677.0	-3062.0
31	17	13	25	734	97.0	-123365.0	-1664.0	-3207.0
31	17	13	25	753	98.0	-128442.0	-1656.0	-3057.0
31	17	13	25	753	99.0	-137570.0	-1633.0	-3319.0
31	17	13	25	754	100.0	-150281.0	-1625.0	-3513.0
31	17	13	25	755	101.0	-161862.0	-1619.0	-4224.0
31	17	13	25	756	102.0	-168275.0	-1636.0	-4705.0
31	17	13	25	756	103.0	-169037.0	-1651.0	-5052.0
31	17	13	25	757	104.0	-165237.0	-1632.0	-5421.0
31	17	13	25	758	105.0	-158695.0	-1627.0	-5161.0
31	17	13	25	758	106.0	-151932.0	-1611.0	-3823.0
31	17	13	25	759	107.0	-145305.0	-1562.0	-2787.0
31	17	13	25	760	108.0	-138349.0	-1546.0	-2228.0
31	17	13	25	760	109.0	-130515.0	-1564.0	-1981.0
31	17	13	25	761	110.0	-122499.0	-1570.0	-1419.0
31	17	13	25	761	111.0	-115711.0	-1568.0	-1639.0
31	17	13	25	762	112.0	-109904.0	-1567.0	-2177.0
31	17	13	25	762	113.0	-104670.0	-1561.0	-2575.0
31	17	13	25	777	114.0	-100196.0	-1533.0	-2730.0
31	17	13	25	778	115.0	-96132.0	-1505.0	-2852.0
31	17	13	25	779	116.0	-92732.0	-1517.0	-3183.0
31	17	13	25	779	117.0	-88944.0	-1518.0	-3361.0
31	17	13	25	780	118.0	-85251.0	-1532.0	-3951.0
31	17	13	25	781	119.0	-82931.0	-1522.0	-4164.0
31	17	13	25	781	120.0	-82070.0	-1507.0	-3774.0
31	17	13	25	800	121.0	-82080.0	-1493.0	-3726.0
31	17	13	25	801	122.0	-81437.0	-1471.0	-3727.0
31	17	13	25	802	123.0	-80511.0	-1467.0	-4366.0
31	17	13	25	802	124.0	-79733.0	-1465.0	-4754.0
31	17	13	25	803	125.0	-79052.0	-1469.0	-4937.0
31	17	13	25	804	126.0	-78799.0	-1471.0	-4934.0
31	17	13	25	805	127.0	-79059.0	-1495.0	-4512.0
31	17	13	25	805	128.0	-79519.0	-1461.0	-3909.0
31	17	13	25	806	129.0	-80612.0	-1446.0	-3315.0
31	17	13	25	806	130.0	-81842.0	-1447.0	-3059.0
31	17	13	25	807	131.0	-83006.0	-1458.0	-3391.0
31	17	13	25	808	132.0	-84429.0	-1454.0	-3911.0
31	17	13	25	808	133.0	-85334.0	-1464.0	-4219.0
31	17	13	25	809	134.0	-86264.0	-1464.0	-4204.0
31	17	13	25	810	135.0	-87810.0	-1466.0	-4076.0
31	17	13	25	822	136.0	-89764.0	-1474.0	-3732.0
31	17	13	25	823	137.0	-91386.0	-1442.0	-3837.0
31	17	13	25	824	138.0	-92514.0	-1419.0	-4341.0
31	17	13	25	825	139.0	-94138.0	-1419.0	-4509.0
31	17	13	25	825	140.0	-95586.0	-1414.0	-4834.0
31	17	13	25	826	141.0	-96752.0	-1416.0	-5625.0
31	17	13	25	827	142.0	-98143.0	-1416.0	-5805.0
31	17	13	25	846	143.0	-99602.0	-1397.0	-5957.0
31	17	13	25	847	144.0	-100376.0	-1377.0	-6094.0
31	17	13	25	848	145.0	-100992.0	-1344.0	-6091.0
31	17	13	25	849	146.0	-101448.0	-1341.0	-5252.0
31	17	13	25	849	147.0	-101753.0	-1343.0	-4866.0
31	17	13	25	850	148.0	-102343.0	-1341.0	-4733.0
31	17	13	25	850	149.0	-103327.0	-1332.0	-4028.0
31	17	13	25	851	150.0	-104333.0	-1314.0	-3426.0
31	17	13	25	852	151.0	-105060.0	-1274.0	-3447.0
31	17	13	25	852	152.0	-106274.0	-1256.0	-3445.0
31	17	13	25	853	153.0	-108047.0	-1266.0	-3728.0
31	17	13	25	853	154.0	-111242.0	-1272.0	-3987.0
31	17	13	25	854	155.0	-115144.0	-1270.0	-3850.0
31	17	13	25	869	156.0	-120277.0	-1279.0	-3862.0
31	17	13	25	869	157.0	-126747.0	-1287.0	-4570.0
31	17	13	25	870	158.0	-131606.0	-1287.0	-4389.0
31	17	13	25	871	159.0	-136272.0	-1264.0	-4577.0
31	17	13	25	871	160.0	-141782.0	-1286.0	-4902.0
31	17	13	25	872	161.0	-148196.0	-1327.0	-5234.0
31	17	13	25	873	162.0	-154828.0	-1354.0	-5454.0
31	17	13	25	873	163.0	-160484.0	-1352.0	-5346.0
31	17	13	25	874	164.0	-165582.0	-1378.0	-5642.0
31	17	13	25	875	165.0	-170136.0	-1406.0	-5183.0
31	17	13	25	875	166.0	-173741.0	-1401.0	-4755.0
31	17	13	25	876	167.0	-176997.0	-1371.0	-4996.0
31	17	13	25	877	168.0	-179927.0	-1364.0	-4601.0
31	17	13	25	877	169.0	-182407.0	-1360.0	-4390.0
31	17	13	25	878	170.0	-183724.0	-1359.0	-4471.0
31	17	13	25	878	171.0	-183754.0	-1351.0	-4123.0
31	17	13	25	879	172.0	-182705.0	-1339.0	-3514.0
31	17	13	25	893	173.0	-180939.0	-1336.0	-3947.0
31	17	13	25	894	174.0	-178829.0	-1337.0	-3698.0
31	17	13	25	894	175.0	-176499.0	-1329.0	-3736.0
31	17	13	25	895	176.0	-174072.0	-1325.0	-3854.0
31	17	13	25	896	177.0	-171788.0	-1305.0	-3831.0
31	17	13	25	896	178.0	-169377.0	-1307.0	-3736.0
31	17	13	25	897	179.0	-166776.0	-1322.0	-3742.0
31	17	13	25	897	180.0	-164377.0	-1307.0	-3952.0
31	17	13	25	916	181.0	-162471.0	-1283.0	-4036.0
31	17	13	25	917	182.0	-161024.0	-1244.0	-3696.0
31	17	13	25	917	183.0	-159939.0	-1247.0	-3315.0
31	17	13	25	918	184.0	-159450.0	-1261.0	-3128.0
31	17	13	25	919	185.0	-159836.0	-1262.0	-3507.0
31	17	13	25	919	186.0	-161194.0	-1259.0	-3001.0
31	17	13	25	920	187.0	-162986.0	-1260.0	-1422.0
31	17	13	25	921	188.0	-164559.0	-1234.0	-467.0
31	17	13	25	922	189.0	-165872.0	-1218.0	-64.0
31	17	13	25	922	190.0	-166931.0	-1198.0	39.0
31	17	13	25	923	191.0	-167191.0	-1206.0	-162.0
31	17	13	25	924	192.0	-167110.0	-1229.0	-1085.0
31	17	13	25	924	193.0	-167606.0	-1241.0	-1399.0
31	17	13	25	925	194.0	-168193.0	-1254.0	-847.0
31	17	13	25	926	195.0	-168459.0	-1256.0	-772.0
31	17	13	25	938	196.0	-168716.0	-1247.0	-422.0
31	17	13	25	938	197.0	-169399.0	-1200.0	-722.0
31	17	13	25	939	198.0	-170836.0	-1206.0	-1064.0
31	17	13	25	940	199.0	-172739.0	-1207.0	-998.0
31	17	13	25	940	200.0	-174757.0	-1199.0	-886.0
31	17	13	25	941	201.0	-176797.0	-1205.0	-632.0
31	17	13	25	942	202.0	-179317.0	-1219.0	-332.0
31	17	13	25	969	203.0	-182691.0	-1194.0	-282.0
31	17	13	25	970	204.0	-186476.0	-1166.0	477.0
31	17	13	25	970	205.0	-190164.0	-1162.0	861.0
31	17	13	25	971	206.0	-193532.0	-1146.0	1488.0
31	17	13	25	972	207.0	-196736.0	-1097.0	1303.0
31	17	13	25	972	208.0	-200087.0	-1085.0	438.0
31	17	13	25	973	209.0	-203440.0	-1054.0	29.0
31	17	13	25	973	210.0	-206929.0	-1067.0	-256.0
31	17	13	25	974	211.0	-210901.0	-1049.0	-785.0
31	17	13	25	974	212.0	-215253.0	-1034.0	-842.0
31	17	13	25	975	213.0	-219994.0	-1038.0	-870.0
31	17	13	25	975	214.0	-225346.0	-1054.0	-941.0
31	17	13	25	976	215.0	-230992.0	-1071.0	-819.0
31	17	13	25	977	216.0	-236793.0	-1090.0	-630.0
31	17	13	25	977	217.0	-242314.0	-1103.0	-721.0
31	17	13	25	978	218.0	-247026.0	-1092.0	-1632.0
31	17	13	25	978	219.0	-250994.0	-1079.0	-2827.0
31	17	13	25	979	220.0	-253736.0	-1066.0	-3971.0
31	17	13	25	980	221.0	-255151.0	-1065.0	-3902.0
31	17	13	25	981	222.0	-254279.0	-1064.0	-2835.0
31	17	13	25	981	223.0	-249214.0	-1063.0	-2310.0
31	17	13	25	982	224.0	-236854.0	-1072.0	-1560.0
31	17	13	25	996	225.0	-214171.0	-1086.0	-632.0
31	17	13	25	996	226.0	-185597.0	-1042.0	-339.0
31	17	13	25	997	227.0	-159410.0	-1045.0	-1768.0
31	17	13	25	998	228.0	-152101.0	-1067.0	-1932.0
31	17	13	25	998	229.0	-153532.0	-1066.0	-1392.0
31	17	13	25	999	230.0	-165935.0	-1063.0	-1483.0
31	17	13	25	999	231.0	-184122.0	-1049.0	-1859.0
31	17	13	26	0	232.0	-194247.0	-1069.0	-2312.0
31	17	13	26	12	233.0	-192174.0	-1040.0	-2448.0
31	17	13	26	13	234.0	-187817.0	-1023.0	-2813.0
31	17	13	26	14	235.0	-183049.0	-1011.0	-2282.0
31	17	13	26	14	236.0	-175937.0	-1010.0	-1831.0
31	17	13	26	15	237.0	-167012.0	-1027.0	-1626.0
31	17	13	26	15	238.0	-155261.0	-1021.0	-1295.0
31	17	13	26	16	239.0	-142369.0	-995.0	-1088.0
31	17	13	26	16	240.0	-131336.0	-990.0	-1268.0
31	17	13	26	36	241.0	-123467.0	-988.0	-2351.0
31	17	13	26	36	242.0	-118598.0	-970.0	-3054.0
31	17	13	26	37	243.0	-114710.0	-967.0	-3227.0
31	17	13	26	37	244.0	-112891.0	-967.0	-3621.0
31	17	13	26	38	245.0	-112972.0	-958.0	-3221.0
31	17	13	26	38	246.0	-114601.0	-975.0	-2149.0
31	17	13	26	39	247.0	-117369.0	-966.0	-2016.0
31	17	13	26	40	248.0	-120543.0	-975.0	-1317.0
31	17	13	26	40	249.0	-123518.0	-969.0	19.0
31	17	13	26	41	250.0	-127814.0	-949.0	-871.0
31	17	13	26	41	251.0	-133764.0	-950.0	-1359.0
31	17	13	26	42	252.0	-139522.0	-957.0	-1279.0
31	17	13	26	42	253.0	-143571.0	-961.0	-1467.0
31	17	13	26	43	254.0	-146624.0	-947.0	-1506.0
31	17	13	26	44	255.0	-149649.0	-947.0	-1575.0
31	17	13	26	58	0.0	-152242.0	-890.0	-1748.0
31	17	13	26	59	1.0	-154631.0	-865.0	-2005.0
31	17	13	26	59	2.0	-156506.0	-863.0	-2382.0
31	17	13	26	60	3.0	-157792.0	-858.0	-2692.0
31	17	13	26	61	4.0	-158848.0	-863.0	-3434.0
31	17	13	26	61	5.0	-159775.0	-890.0	-3230.0
31	17	13	26	62	6.0	-160570.0	-885.0	-3472.0
31	17	13	26	85	7.0	-160978.0	-862.0	-3589.0
31	17	13	26	86	8.0	-161527.0	-840.0	-3907.0
31	17	13	26	86	9.0	-162304.0	-844.0	-3146.0
31	17	13	26	87	10.0	-163057.0	-829.0	-2751.0
31	17	13	26	88	11.0	-163610.0	-808.0	-2009.0
31	17	13	26	88	12.0	-163991.0	-816.0	-622.0
31	17	13	26	89	13.0	-164471.0	-794.0	-831.0
31	17	13	26	89	14.0	-165014.0	-810.0	-756.0
31	17	13	26	107	15.0	-165191.0	-845.0	-1065.0
31	17	13	26	108	16.0	-165091.0	-855.0	-1401.0
31	17	13	26	108	17.0	-165072.0	-866.0	-1581.0
31	17	13	26	109	18.0	-165326.0	-874.0	-1359.0
31	17	13	26	109	19.0	-165836.0	-874.0	-1180.0
31	17	13	26	110	20.0	-166534.0	-897.0	-2520.0
31	17	13	26	110	21.0	-167588.0	-900.0	-3620.0
31	17	13	26	111	22.0	-169307.0	-893.0	-3799.0
31	17	13	26	112	23.0	-171320.0	-889.0	-3897.0
31	17	13	26	112	24.0	-173677.0	-878.0	-3211.0
31	17	13	26	113	25.0	-176385.0	-877.0	-1892.0
31	17	13	26	113	26.0	-179101.0	-882.0	-1062.0
31	17	13	26	114	27.0	-181687.0	-885.0	-531.0
31	17	13	26	114	28.0	-184162.0	-900.0	638.0
31	17	13	26	115	29.0	-186512.0	-909.0	1028.0
31	17	13	26	116	30.0	-188454.0	-885.0	642.0
31	17	13	26	116	31.0	-189716.0	-871.0	-273.0
31	17	13	26	117	32.0	-190443.0	-840.0	-1052.0
31	17	13	26	117	33.0	-190777.0	-804.0	-1602.0
31	17	13	26	118	34.0	-190824.0	-780.0	-1847.0
31	17	13	26	130	35.0	-190491.0	-782.0	-1644.0
31	17	13	26	131	36.0	-189776.0	-789.0	-1358.0
31	17	13	26	131	37.0	-188613.0	-783.0	-722.0
31	17	13	26	132	38.0	-186717.0	-772.0	-444.0
31	17	13	26	133	39.0	-184691.0	-789.0	-274.0
31	17	13	26	133	40.0	-182740.0	-787.0	-496.0
31	17	13	26	134	41.0	-181196.0	-782.0	-820.0
31	17	13	26	134	42.0	-179871.0	-779.0	-1352.0
31	17	13	26	135	43.0	-178958.0	-784.0	-1610.0
31	17	13	26	136	44.0	-178577.0	-755.0	-1697.0
31	17	13	26	152	45.0	-178743.0	-740.0	-1743.0
31	17	13	26	153	46.0	-179409.0	-717.0	-1844.0
31	17	13	26	153	47.0	-180067.0	-688.0	-1629.0
31	17	13	26	154	48.0	-180742.0	-700.0	-2604.0
31	17	13	26	155	49.0	-181445.0	-697.0	-2944.0
31	17	13	26	155	50.0	-182371.0	-684.0	-2678.0
31	17	13	26	156	51.0	-183189.0	-651.0	-2201.0
31	17	13	26	177	52.0	-183742.0	-644.0	-1627.0
31	17	13	26	178	53.0	-184338.0	-634.0	-744.0
31	17	13	26	179	54.0	-184640.0	-635.0	151.0
31	17	13	26	200	55.0	-184734.0	-640.0	664.0
31	17	13	26	201	56.0	-184582.0	-637.0	44.0
31	17	13	26	202	57.0	-183891.0	-629.0	-766.0
31	17	13	26	202	58.0	-182471.0	-632.0	-2467.0
31	17	13	26	203	59.0	-180911.0	-652.0	-3421.0
31	17	13	26	204	60.0	-179554.0	-632.0	-2976.0
31	17	13	26	204	61.0	-178356.0	-634.0	-2355.0
31	17	13	26	205	62.0	-177536.0	-636.0	-1291.0
31	17	13	26	205	63.0	-176484.0	-657.0	222.0
31	17	13	26	206	64.0	-175256.0	-647.0	766.0
31	17	13	26	206	65.0	-174466.0	-654.0	-496.0
31	17	13	26	207	66.0	-173756.0	-641.0	-1053.0
31	17	13	26	208	67.0	-172941.0	-640.0	-748.0
31	17	13	26	208	68.0	-171907.0	-638.0	-471.0
31	17	13	26	209	69.0	-170643.0	-637.0	-634.0
31	17	13	26	209	73.0	-161207.0	-664.0	-321.0
31	17	13	26	210	74.0	-158802.0	-668.0	-688.0
31	17	13	26	210	75.0	-156471.0	-685.0	-805.0
31	17	13	26	211	76.0	-154511.0	-666.0	-676.0
31	17	13	26	211	77.0	-152991.0	-663.0	-1013.0
31	17	13	26	212	78.0	-151705.0	-643.0	-820.0
31	17	13	26	213	79.0	-151204.0	-627.0	-666.0
31	17	13	26	213	80.0	-151557.0	-612.0	-1476.0
31	17	13	26	223	81.0	-152090.0	-626.0	-2189.0
31	17	13	26	224	82.0	-152612.0	-633.0	-2251.0
31	17	13	26	225	83.0	-153347.0	-657.0	-2329.0
31	17	13	26	225	84.0	-153877.0	-679.0	-2842.0
31	17	13	26	226	85.0	-154206.0	-712.0	-1917.0
31	17	13	26	226	86.0	-154479.0	-727.0	-447.0
31	17	13	26	227	87.0	-154524.0	-727.0	-533.0
31	17	13	26	228	88.0	-154207.0	-719.0	-496.0
31	17	13	26	228	89.0	-153991.0	-722.0	-134.0
31	17	13	26	246	90.0	-153757.0	-704.0	-575.0
31	17	13	26	247	91.0	-153433.0	-682.0	-549.0
31	17	13	26	248	92.0	-152875.0	-691.0	-367.0
31	17	13	26	248	93.0	-152174.0	-713.0	-216.0
31	17	13	26	249	94.0	-151721.0	-742.0	-277.0
31	17	13	26	250	95.0	-151308.0	-772.0	4.0
31	17	13	26	250	96.0	-150661.0	-794.0	36.0
31	17	13	26	251	97.0	-148869.0	-797.0	-516.0
31	17	13	26	252	98.0	-146220.0	-786.0	-1126.0
31	17	13	26	252	99.0	-143391.0	-791.0	-1398.0
31	17	13	26	253	100.0	-140713.0	-778.0	-1518.0
31	17	13	26	253	101.0	-138153.0	-766.0	-1577.0
31	17	13	26	254	102.0	-136056.0	-789.0	-1536.0
31	17	13	26	254	103.0	-134534.0	-794.0	-1665.0
31	17	13	26	269	104.0	-133232.0	-812.0	-1736.0
31	17	13	26	269	105.0	-132119.0	-821.0	-1682.0
31	17	13	26	270	106.0	-131582.0	-812.0	-1761.0
31	17	13	26	270	107.0	-131779.0	-818.0	-1276.0
31	17	13	26	271	108.0	-132392.0	-808.0	-1439.0
31	17	13	26	272	109.0	-133093.0	-811.0	-1660.0
31	17	13	26	272	110.0	-134253.0	-819.0	-1292.0
31	17	13	26	273	111.0	-136039.0	-803.0	-386.0
31	17	13	26	295	112.0	-138267.0	-785.0	16.0
31	17	13	26	296	113.0	-140946.0	-792.0	-418.0
31	17	13	26	296	114.0	-143911.0	-762.0	-256.0
31	17	13	26	314	115.0	-146885.0	-744.0	-444.0
31	17	13	26	315	116.0	-150097.0	-742.0	-1724.0
31	17	13	26	315	117.0	-153657.0	-751.0	-2090.0
31	17	13	26	316	118.0	-157381.0	-745.0	-2049.0
31	17	13	26	317	119.0	-161319.0	-718.0	-1853.0
31	17	13	26	317	120.0	-165272.0	-694.0	-1512.0
31	17	13	26	318	121.0	-169061.0	-697.0	-197.0
31	17	13	26	319	122.0	-172351.0	-707.0	212.0
31	17	13	26	319	123.0	-175275.0	-715.0	-351.0
31	17	13	26	320	124.0	-178117.0	-711.0	-334.0
31	17	13	26	321	125.0	-180557.0	-714.0	-92.0
31	17	13	26	321	126.0	-182560.0	-698.0	-344.0
31	17	13	26	322	127.0	-183872.0	-691.0	-235.0
31	17	13	26	322	128.0	-184329.0	-690.0	119.0
31	17	13	26	323	129.0	-184069.0	-693.0	-67.0
31	17	13	26	323	130.0	-183635.0	-657.0	-529.0
31	17	13	26	324	133.0	-182591.0	-714.0	-2751.0
31	17	13	26	325	134.0	-181179.0	-719.0	-2641.0
31	17	13	26	325	135.0	-179331.0	-725.0	-2027.0
31	17	13	26	326	136.0	-177079.0	-736.0	-810.0
31	17	13	26	326	137.0	-174406.0	-749.0	-142.0
31	17	13	26	327	138.0	-171631.0	-782.0	504.0
31	17	13	26	328	139.0	-168862.0	-791.0	306.0
31	17	13	26	328	140.0	-165849.0	-792.0	-529.0
31	17	13	26	340	141.0	-163052.0	-784.0	-1380.0
31	17	13	26	341	142.0	-160421.0	-751.0	-1886.0
31	17	13	26	342	143.0	-157987.0	-749.0	-2214.0
31	17	13	26	343	144.0	-156050.0	-764.0	-2416.0
31	17	13	26	343	145.0	-154635.0	-816.0	-1726.0
31	17	13	26	344	146.0	-153886.0	-857.0	-1009.0
31	17	13	26	344	147.0	-153881.0	-890.0	54.0
31	17	13	26	345	148.0	-154413.0	-893.0	-184.0
31	17	13	26	346	149.0	-155119.0	-899.0	-497.0
31	17	13	26	359	150.0	-156087.0	-901.0	-831.0
31	17	13	26	360	151.0	-157240.0	-882.0	-1022.0
31	17	13	26	361	152.0	-158102.0	-877.0	-831.0
31	17	13	26	361	153.0	-158679.0	-897.0	-797.0
31	17	13	26	362	154.0	-159310.0	-923.0	-989.0
31	17	13	26	362	155.0	-160426.0	-906.0	-1202.0
31	17	13	26	382	156.0	-161912.0	-867.0	-951.0
31	17	13	26	383	157.0	-164602.0	-813.0	-891.0
31	17	13	26	383	158.0	-168009.0	-797.0	-1226.0
31	17	13	26	384	159.0	-167116.0	-823.0	-1836.0
31	17	13	26	385	160.0	-165554.0	-801.0	-2078.0
31	17	13	26	385	161.0	-168631.0	-815.0	-1337.0
31	17	13	26	386	162.0	-171636.0	-804.0	-1446.0
31	17	13	26	387	163.0	-180639.0	-816.0	-1640.0
31	17	13	26	387	164.0	-172836.0	-846.0	-923.0
31	17	13	26	388	165.0	-161909.0	-825.0	623.0
31	17	13	26	417	166.0	-163376.0	-818.0	164.0
31	17	13	26	418	167.0	-166306.0	-814.0	9.0
31	17	13	26	419	168.0	-172037.0	-812.0	490.0
31	17	13	26	420	169.0	-172516.0	-814.0	351.0
31	17	13	26	420	170.0	-169711.0	-817.0	83.0
31	17	13	26	421	171.0	-164268.0	-832.0	-447.0
31	17	13	26	422	172.0	-159977.0	-841.0	-1092.0
31	17	13	26	422	173.0	-157524.0	-846.0	-2056.0
31	17	13	26	423	174.0	-156734.0	-869.0	-2364.0
31	17	13	26	424	175.0	-156279.0	-859.0	-1936.0
31	17	13	26	424	176.0	-155191.0	-871.0	-2130.0
31	17	13	26	425	177.0	-153986.0	-890.0	-2674.0
31	17	13	26	426	178.0	-153406.0	-874.0	-2216.0
31	17	13	26	427	179.0	-153012.0	-864.0	-1602.0
31	17	13	26	427	180.0	-153326.0	-849.0	-2298.0
31	17	13	26	428	185.0	-158066.0	-886.0	1258.0
31	17	13	26	428	186.0	-159521.0	-897.0	899.0
31	17	13	26	429	187.0	-161079.0	-880.0	324.0
31	17	13	26	430	188.0	-162129.0	-871.0	188.0
31	17	13	26	430	189.0	-162702.0	-854.0	-117.0
31	17	13	26	431	190.0	-162879.0	-836.0	-559.0
31	17	13	26	432	191.0	-163004.0	-846.0	-612.0
31	17	13	26	432	192.0	-162877.0	-830.0	-574.0
31	17	13	26	445	193.0	-163261.0	-862.0	-905.0
31	17	13	26	446	194.0	-163983.0	-865.0	-954.0
31	17	13	26	447	195.0	-164878.0	-875.0	-586.0
31	17	13	26	448	196.0	-165893.0	-873.0	-833.0
31	17	13	26	448	197.0	-166613.0	-887.0	-2285.0
31	17	13	26	449	198.0	-167171.0	-900.0	-2946.0
31	17	13	26	449	199.0	-167994.0	-882.0	-3316.0
31	17	13	26	450	200.0	-169077.0	-872.0	-2812.0
31	17	13	26	451	201.0	-170257.0	-889.0	-1724.0
31	17	13	26	463	202.0	-171745.0	-852.0	-47.0
31	17	13	26	463	203.0	-172895.0	-836.0	844.0
31	17	13	26	464	204.0	-173422.0	-842.0	451.0
31	17	13	26	465	205.0	-173497.0	-877.0	281.0
31	17	13	26	465	206.0	-173204.0	-912.0	198.0
31	17	13	26	466	207.0	-172672.0	-937.0	50.0
31	17	13	26	467	208.0	-171774.0	-951.0	-272.0
31	17	13	26	485	209.0	-170541.0	-951.0	-953.0
31	17	13	26	486	210.0	-169580.0	-942.0	-1220.0
31	17	13	26	487	211.0	-168801.0	-969.0	-1971.0
31	17	13	26	487	212.0	-168042.0	-1002.0	-3301.0
31	17	13	26	488	213.0	-167596.0	-997.0	-3444.0
31	17	13	26	489	214.0	-167172.0	-1022.0	-2734.0
31	17	13	26	489	215.0	-166881.0	-1044.0	-2009.0
31	17	13	26	490	216.0	-167386.0	-1036.0	-1449.0
31	17	13	26	491	217.0	-167609.0	-1016.0	-704.0
31	17	13	26	491	218.0	-167293.0	-1009.0	-396.0
31	17	13	26	492	219.0	-167041.0	-994.0	-939.0
31	17	13	26	493	220.0	-166680.0	-1004.0	-777.0
31	17	13	26	493	221.0	-166312.0	-994.0	-1128.0
31	17	13	26	494	222.0	-165972.0	-961.0	-1283.0
31	17	13	26	494	223.0	-166227.0	-951.0	-1332.0
31	17	13	26	509	224.0	-167157.0	-937.0	-199.0
31	17	13	26	510	225.0	-168007.0	-926.0	223.0
31	17	13	26	532	226.0	-168195.0	-929.0	153.0
31	17	13	26	533	227.0	-167997.0	-899.0	519.0
31	17	13	26	534	228.0	-167433.0	-896.0	166.0
31	17	13	26	534	229.0	-167272.0	-871.0	-378.0
31	17	13	26	535	230.0	-167365.0	-835.0	-778.0
31	17	13	26	536	231.0	-167642.0	-829.0	-1242.0
31	17	13	26	537	232.0	-168571.0	-806.0	-1652.0
31	17	13	26	537	233.0	-170514.0	-797.0	-1698.0
31	17	13	26	538	234.0	-172647.0	-812.0	-889.0
31	17	13	26	538	235.0	-174719.0	-832.0	-367.0
31	17	13	26	539	236.0	-176090.0	-827.0	-79.0
31	17	13	26	540	237.0	-177188.0	-820.0	-506.0
31	17	13	26	540	238.0	-178109.0	-819.0	-431.0
31	17	13	26	541	239.0	-179260.0	-780.0	-831.0
31	17	13	26	541	240.0	-180554.0	-749.0	-1013.0
31	17	13	26	542	241.0	-181566.0	-751.0	-805.0
31	17	13	26	542	242.0	-182282.0	-716.0	-379.0
31	17	13	26	543	243.0	-183348.0	-697.0	-366.0
31	17	13	26	543	244.0	-184219.0	-705.0	72.0
31	17	13	26	555	245.0	-184766.0	-724.0	-277.0
31	17	13	26	556	246.0	-185299.0	-709.0	-1429.0
31	17	13	26	556	247.0	-185823.0	-712.0	-2096.0
31	17	13	26	557	248.0	-185941.0	-748.0	-2004.0
31	17	13	26	558	249.0	-185477.0	-741.0	-1976.0
31	17	13	26	558	250.0	-184286.0	-751.0	-1689.0
31	17	13	26	559	251.0	-182597.0	-770.0	-663.0
31	17	13	26	559	252.0	-180354.0	-774.0	-292.0
31	17	13	26	560	253.0	-177606.0	-772.0	-1397.0
31	17	13	26	561	254.0	-174784.0	-783.0	-1762.0
31	17	13	26	578	255.0	-172054.0	-793.0	-1649.0
31	17	13	26	579	0.0	-169940.0	-790.0	-1489.0
31	17	13	26	579	1.0	-168605.0	-791.0	-1100.0
31	17	13	26	580	2.0	-167736.0	-801.0	-214.0
31	17	13	26	581	3.0	-167379.0	-781.0	225.0
31	17	13	26	581	4.0	-167267.0	-794.0	561.0
31	17	13	26	582	5.0	-167372.0	-812.0	720.0
31	17	13	26	583	6.0	-167747.0	-809.0	681.0
31	17	13	26	583	7.0	-168210.0	-792.0	421.0
31	17	13	26	584	8.0	-168589.0	-797.0	212.0
31	17	13	26	585	9.0	-169199.0	-812.0	-86.0
31	17	13	26	585	10.0	-169971.0	-805.0	-414.0
31	17	13	26	586	11.0	-170289.0	-806.0	-876.0
31	17	13	26	586	12.0	-169931.0	-784.0	-764.0
31	17	13	26	599	13.0	-169838.0	-785.0	-819.0
31	17	13	26	600	14.0	-170196.0	-767.0	-1076.0
31	17	13	26	601	15.0	-170504.0	-763.0	-1462.0
31	17	13	26	602	16.0	-170372.0	-757.0	-2418.0
31	17	13	26	602	17.0	-170519.0	-751.0	-3880.0
31	17	13	26	603	18.0	-170993.0	-761.0	-4786.0
31	17	13	26	604	19.0	-171429.0	-780.0	-6372.0
31	17	13	26	604	20.0	-172830.0	-795.0	-8111.0
31	17	13	26	623	21.0	-174841.0	-792.0	-8056.0
31	17	13	26	624	22.0	-177864.0	-791.0	-6049.0
31	17	13	26	625	23.0	-181789.0	-818.0	-4259.0
31	17	13	26	625	24.0	-186519.0	-846.0	-2142.0
31	17	13	26	626	25.0	-191830.0	-837.0	-614.0
31	17	13	26	627	26.0	-197229.0	-857.0	-534.0
31	17	13	26	627	27.0	-202599.0	-855.0	-120.0
31	17	13	26	628	28.0	-207547.0	-851.0	2474.0
31	17	13	26	629	29.0	-211850.0	-851.0	5839.0
31	17	13	26	629	30.0	-215465.0	-866.0	9068.0
31	17	13	26	630	31.0	-217735.0	-892.0	12189.0
31	17	13	26	630	32.0	-217772.0	-913.0	13562.0
31	17	13	26	631	33.0	-215744.0	-927.0	12499.0
31	17	13	26	632	34.0	-212116.0	-946.0	12326.0
31	17	13	26	632	35.0	-207324.0	-948.0	10640.0
31	17	13	26	645	36.0	-202431.0	-951.0	6813.0
31	17	13	26	646	37.0	-198190.0	-945.0	6886.0
31	17	13	26	647	38.0	-195050.0	-964.0	8173.0
31	17	13	26	647	39.0	-193741.0	-969.0	10336.0
31	17	13	26	648	40.0	-194764.0	-954.0	13182.0
31	17	13	26	649	41.0	-198200.0	-956.0	14470.0
31	17	13	26	649	42.0	-203752.0	-966.0	13721.0
31	17	13	26	668	43.0	-210721.0	-949.0	12121.0
31	17	13	26	669	44.0	-219272.0	-952.0	11149.0
31	17	13	26	670	45.0	-226187.0	-976.0	10126.0
31	17	13	26	670	46.0	-226178.0	-976.0	8885.0
31	17	13	26	671	47.0	-207753.0	-997.0	7899.0
31	17	13	26	672	48.0	-176712.0	-989.0	7398.0
31	17	13	26	672	49.0	-147869.0	-970.0	6100.0
31	17	13	26	673	50.0	-116867.0	-967.0	3384.0
31	17	13	26	674	51.0	-85390.0	-955.0	1243.0
31	17	13	26	674	52.0	-52449.0	-939.0	290.0
31	17	13	26	675	53.0	-19141.0	-979.0	-1051.0
31	17	13	26	676	54.0	-2550.0	-1001.0	-2446.0
31	17	13	26	676	55.0	-1355.0	-1009.0	-2496.0
31	17	13	26	677	56.0	-2236.0	-1026.0	-2472.0
31	17	13	26	677	57.0	-18382.0	-1049.0	-2363.0
31	17	13	26	691	58.0	-54533.0	-1056.0	-1985.0
31	17	13	26	692	59.0	-81914.0	-1065.0	-1577.0
31	17	13	26	693	60.0	-94819.0	-1066.0	-1482.0
31	17	13	26	693	61.0	-100459.0	-1092.0	-1962.0
31	17	13	26	694	62.0	-103202.0	-1113.0	-2397.0
31	17	13	26	695	63.0	-107348.0	-1130.0	-2733.0
31	17	13	26	695	64.0	-114961.0	-1140.0	-2604.0
31	17	13	26	714	65.0	-126220.0	-1136.0	-2451.0
