31	17	9	7	24	23.0	-140462.0	-2372.0	31487.0
31	17	9	7	26	24.0	-130918.0	-2330.0	31191.0
31	17	9	7	29	25.0	-123122.0	-2303.0	31551.0
31	17	9	7	31	26.0	-116867.0	-2288.0	31735.0
31	17	9	7	33	27.0	-112214.0	-2259.0	31302.0
31	17	9	7	35	28.0	-109202.0	-2230.0	30974.0
31	17	9	7	37	29.0	-107516.0	-2198.0	31002.0
31	17	9	7	39	30.0	-107518.0	-2168.0	30504.0
31	17	9	7	41	31.0	-108963.0	-2156.0	30189.0
31	17	9	7	42	32.0	-111262.0	-2124.0	29905.0
31	17	9	7	44	33.0	-114092.0	-2092.0	29959.0
31	17	9	7	46	34.0	-117443.0	-2079.0	29606.0
31	17	9	7	47	35.0	-121137.0	-2047.0	29269.0
31	17	9	7	48	36.0	-125083.0	-2025.0	29431.0
31	17	9	7	48	37.0	-129003.0	-2032.0	29563.0
31	17	9	7	58	38.0	-132300.0	-2017.0	29509.0
31	17	9	7	58	39.0	-135182.0	-2011.0	29888.0
31	17	9	7	59	40.0	-137576.0	-1998.0	29918.0
31	17	9	7	60	41.0	-139585.0	-1976.0	29479.0
31	17	9	7	60	42.0	-140646.0	-1958.0	29823.0
31	17	9	7	61	43.0	-140587.0	-1911.0	29698.0
31	17	9	7	61	44.0	-140091.0	-1884.0	29076.0
31	17	9	7	62	45.0	-139713.0	-1908.0	28694.0
31	17	9	7	98	46.0	-139287.0	-1924.0	29194.0
31	17	9	7	143	47.0	-138563.0	-1891.0	29160.0
31	17	9	7	144	48.0	-137574.0	-1886.0	28802.0
31	17	9	7	144	49.0	-136726.0	-1910.0	29205.0
31	17	9	7	145	50.0	-135919.0	-1911.0	29526.0
31	17	9	7	145	51.0	-135344.0	-1897.0	29429.0
31	17	9	7	146	52.0	-134966.0	-1890.0	29434.0
31	17	9	7	147	53.0	-135387.0	-1915.0	29768.0
31	17	9	7	159	54.0	-136441.0	-1899.0	29671.0
31	17	9	7	160	55.0	-137928.0	-1887.0	29627.0
31	17	9	7	160	56.0	-139681.0	-1884.0	30093.0
31	17	9	7	161	57.0	-141503.0	-1893.0	29990.0
31	17	9	7	161	58.0	-143522.0	-1901.0	29794.0
31	17	9	7	162	59.0	-145449.0	-1912.0	30378.0
31	17	9	7	188	60.0	-147231.0	-1926.0	30523.0
31	17	9	7	188	64.0	-153434.0	-1976.0	29887.0
31	17	9	7	189	86.0	-161554.0	-2114.0	29411.0
31	17	9	7	190	87.0	-158382.0	-2124.0	29515.0
31	17	9	7	190	88.0	-155936.0	-2126.0	29351.0
31	17	9	7	191	89.0	-154282.0	-2123.0	29403.0
31	17	9	7	191	90.0	-153233.0	-2140.0	29393.0
31	17	9	7	192	91.0	-152647.0	-2149.0	29630.0
31	17	9	7	192	92.0	-151252.0	-2158.0	29451.0
31	17	9	7	193	93.0	-150114.0	-2168.0	29391.0
31	17	9	7	194	94.0	-148497.0	-2182.0	29338.0
31	17	9	7	194	95.0	-146206.0	-2197.0	29631.0
31	17	9	7	195	96.0	-143252.0	-2217.0	30859.0
31	17	9	7	195	97.0	-139210.0	-2225.0	30841.0
31	17	9	7	196	98.0	-134716.0	-2239.0	30811.0
31	17	9	7	196	99.0	-130797.0	-2259.0	32746.0
31	17	9	7	197	109.0	-151483.0	-2532.0	20393.0
31	17	9	7	197	110.0	-157902.0	-2552.0	20055.0
31	17	9	7	233	111.0	-164259.0	-2552.0	19509.0
31	17	9	7	233	112.0	-170747.0	-2551.0	18211.0
31	17	9	7	234	113.0	-177012.0	-2561.0	16396.0
31	17	9	7	235	114.0	-182898.0	-2561.0	13983.0
31	17	9	7	235	115.0	-187831.0	-2564.0	13184.0
31	17	9	7	236	116.0	-192533.0	-2567.0	13784.0
31	17	9	7	236	117.0	-196964.0	-2589.0	12229.0
31	17	9	7	237	118.0	-200796.0	-2594.0	11684.0
31	17	9	7	238	119.0	-203844.0	-2634.0	14120.0
31	17	9	7	238	120.0	-204082.0	-2667.0	19459.0
31	17	9	7	239	121.0	-199760.0	-2686.0	24839.0
31	17	9	7	239	122.0	-190797.0	-2736.0	28289.0
31	17	9	7	240	123.0	-178344.0	-2759.0	30843.0
31	17	9	7	240	124.0	-164106.0	-2781.0	32895.0
31	17	9	7	241	125.0	-149514.0	-2814.0	33891.0
31	17	9	7	242	126.0	-135641.0	-2866.0	34423.0
31	17	9	7	242	131.0	-116679.0	-2931.0	33246.0
31	17	9	7	243	132.0	-119109.0	-2966.0	32747.0
31	17	9	7	243	133.0	-121712.0	-2962.0	32343.0
31	17	9	7	244	134.0	-124015.0	-2971.0	32468.0
31	17	9	7	245	135.0	-123083.0	-2957.0	32233.0
31	17	9	7	245	136.0	-117625.0	-2943.0	32017.0
31	17	9	7	246	137.0	-112179.0	-2928.0	32337.0
31	17	9	7	278	138.0	-108009.0	-2927.0	32321.0
31	17	9	7	279	139.0	-104124.0	-2929.0	31159.0
31	17	9	7	279	140.0	-102270.0	-2940.0	30386.0
31	17	9	7	280	141.0	-97955.0	-2949.0	29899.0
31	17	9	7	280	142.0	-93221.0	-2964.0	29408.0
31	17	9	7	281	143.0	-89559.0	-2991.0	28748.0
31	17	9	7	282	144.0	-87769.0	-3009.0	28403.0
31	17	9	7	282	145.0	-89872.0	-3029.0	28593.0
31	17	9	7	283	146.0	-99217.0	-3051.0	29114.0
31	17	9	7	283	147.0	-117469.0	-3057.0	29445.0
31	17	9	7	284	148.0	-143239.0	-3084.0	29326.0
31	17	9	7	285	149.0	-173977.0	-3096.0	28553.0
31	17	9	7	285	150.0	-205828.0	-3126.0	28229.0
31	17	9	7	286	151.0	-236961.0	-3145.0	28332.0
31	17	9	7	286	152.0	-263412.0	-3161.0	28080.0
31	17	9	7	287	153.0	-279205.0	-3189.0	28202.0
31	17	9	7	288	154.0	-280799.0	-3224.0	28054.0
31	17	9	7	288	155.0	-271472.0	-3246.0	27830.0
31	17	9	7	289	156.0	-255721.0	-3246.0	27412.0
31	17	9	7	289	157.0	-238204.0	-3243.0	27144.0
31	17	9	7	290	158.0	-222331.0	-3260.0	26657.0
31	17	9	7	290	159.0	-209282.0	-3257.0	26906.0
31	17	9	7	323	160.0	-198021.0	-3237.0	27698.0
31	17	9	7	324	161.0	-189781.0	-3267.0	27649.0
31	17	9	7	324	162.0	-185858.0	-3292.0	27668.0
31	17	9	7	325	163.0	-185367.0	-3316.0	27144.0
31	17	9	7	326	164.0	-188319.0	-3319.0	27331.0
31	17	9	7	326	165.0	-193946.0	-3326.0	27762.0
31	17	9	7	327	166.0	-200512.0	-3331.0	27693.0
31	17	9	7	327	167.0	-205205.0	-3308.0	27180.0
31	17	9	7	328	168.0	-205996.0	-3307.0	27047.0
31	17	9	7	329	169.0	-202316.0	-3309.0	27336.0
31	17	9	7	329	170.0	-195328.0	-3299.0	27041.0
31	17	9	7	330	171.0	-186426.0	-3280.0	27156.0
31	17	9	7	330	172.0	-177016.0	-3286.0	27317.0
31	17	9	7	331	173.0	-166805.0	-3277.0	27166.0
31	17	9	7	332	174.0	-155075.0	-3282.0	26863.0
31	17	9	7	332	176.0	-128052.0	-3282.0	26734.0
31	17	9	7	333	177.0	-115041.0	-3262.0	26701.0
31	17	9	7	341	178.0	-103391.0	-3257.0	26556.0
31	17	9	7	342	179.0	-93596.0	-3260.0	26709.0
31	17	9	7	342	180.0	-85472.0	-3255.0	26789.0
31	17	9	7	343	181.0	-79029.0	-3244.0	26776.0
31	17	9	7	367	182.0	-73437.0	-3219.0	26770.0
31	17	9	7	368	183.0	-68942.0	-3179.0	26571.0
31	17	9	7	368	184.0	-66067.0	-3170.0	26599.0
31	17	9	7	369	185.0	-64536.0	-3156.0	26573.0
31	17	9	7	369	186.0	-64474.0	-3142.0	26656.0
31	17	9	7	370	187.0	-66274.0	-3145.0	26621.0
31	17	9	7	388	188.0	-69677.0	-3145.0	26338.0
31	17	9	7	388	189.0	-73755.0	-3114.0	26209.0
31	17	9	7	389	190.0	-77599.0	-3113.0	26309.0
31	17	9	7	390	191.0	-81497.0	-3119.0	26206.0
31	17	9	7	390	192.0	-85911.0	-3122.0	26078.0
31	17	9	7	391	193.0	-90209.0	-3117.0	26354.0
31	17	9	7	391	194.0	-93354.0	-3119.0	27010.0
31	17	9	7	392	195.0	-95264.0	-3135.0	26864.0
31	17	9	7	392	196.0	-96344.0	-3132.0	26567.0
31	17	9	7	393	198.0	-98152.0	-3145.0	26709.0
31	17	9	7	393	199.0	-99234.0	-3132.0	26206.0
31	17	9	7	394	200.0	-100600.0	-3142.0	26299.0
31	17	9	7	395	201.0	-102275.0	-3127.0	26373.0
31	17	9	7	395	202.0	-104157.0	-3097.0	26500.0
31	17	9	7	396	203.0	-106401.0	-3070.0	26559.0
31	17	9	7	396	204.0	-109366.0	-3047.0	26992.0
31	17	9	7	413	205.0	-112621.0	-3026.0	26891.0
31	17	9	7	413	206.0	-116172.0	-3014.0	26932.0
31	17	9	7	414	207.0	-120044.0	-3015.0	27202.0
31	17	9	7	415	208.0	-124372.0	-3014.0	27221.0
31	17	9	7	415	209.0	-129267.0	-2986.0	27434.0
31	17	9	7	416	210.0	-134613.0	-2966.0	27259.0
31	17	9	7	416	211.0	-140410.0	-2944.0	27360.0
31	17	9	7	417	212.0	-146744.0	-2936.0	27451.0
31	17	9	7	418	213.0	-153006.0	-2926.0	27799.0
31	17	9	7	419	214.0	-158958.0	-2907.0	27930.0
31	17	9	7	420	215.0	-164389.0	-2919.0	27969.0
31	17	9	7	420	216.0	-169234.0	-2965.0	28362.0
31	17	9	7	421	217.0	-173911.0	-2987.0	28549.0
31	17	9	7	421	218.0	-177893.0	-2983.0	28764.0
31	17	9	7	422	219.0	-181585.0	-2996.0	28662.0
31	17	9	7	423	221.0	-188939.0	-2971.0	28265.0
31	17	9	7	423	222.0	-192317.0	-2967.0	28951.0
31	17	9	7	424	223.0	-195179.0	-2941.0	29767.0
31	17	9	7	424	224.0	-197191.0	-2913.0	29658.0
31	17	9	7	425	225.0	-198173.0	-2891.0	30408.0
31	17	9	7	425	226.0	-198192.0	-2863.0	30694.0
31	17	9	7	457	227.0	-197289.0	-2853.0	30699.0
31	17	9	7	471	228.0	-195926.0	-2835.0	30873.0
31	17	9	7	472	229.0	-194309.0	-2794.0	30914.0
31	17	9	7	472	230.0	-192038.0	-2797.0	30652.0
31	17	9	7	473	231.0	-189207.0	-2781.0	30797.0
31	17	9	7	473	232.0	-186334.0	-2779.0	31217.0
31	17	9	7	474	233.0	-183512.0	-2789.0	31338.0
31	17	9	7	474	234.0	-180393.0	-2785.0	31641.0
31	17	9	7	475	235.0	-176792.0	-2773.0	31950.0
31	17	9	7	476	236.0	-172944.0	-2754.0	31901.0
31	17	9	7	476	237.0	-169096.0	-2754.0	31515.0
31	17	9	7	477	238.0	-165356.0	-2724.0	31838.0
31	17	9	7	477	239.0	-161676.0	-2734.0	31846.0
31	17	9	7	478	240.0	-157966.0	-2722.0	31474.0
31	17	9	7	478	241.0	-154237.0	-2712.0	31691.0
31	17	9	7	479	243.0	-146431.0	-2651.0	30963.0
31	17	9	7	479	244.0	-142499.0	-2610.0	30765.0
31	17	9	7	480	245.0	-138511.0	-2579.0	30645.0
31	17	9	7	481	246.0	-134559.0	-2551.0	30323.0
31	17	9	7	481	247.0	-130612.0	-2500.0	29861.0
31	17	9	7	482	248.0	-126642.0	-2482.0	29613.0
31	17	9	7	482	249.0	-122689.0	-2459.0	29241.0
31	17	9	7	502	250.0	-118799.0	-2447.0	28738.0
31	17	9	7	503	251.0	-114961.0	-2436.0	28074.0
31	17	9	7	504	252.0	-111307.0	-2396.0	27846.0
31	17	9	7	504	253.0	-107995.0	-2367.0	27283.0
31	17	9	7	505	254.0	-105321.0	-2315.0	26622.0
31	17	9	7	506	255.0	-103277.0	-2267.0	26156.0
31	17	9	7	506	0.0	-101969.0	-2211.0	25397.0
31	17	9	7	507	1.0	-101190.0	-2177.0	25011.0
31	17	9	7	508	2.0	-100882.0	-2128.0	24219.0
31	17	9	7	521	3.0	-101136.0	-2089.0	23404.0
31	17	9	7	521	4.0	-102289.0	-2046.0	23421.0
31	17	9	7	522	5.0	-104187.0	-2004.0	22648.0
31	17	9	7	523	6.0	-106374.0	-1989.0	22057.0
31	17	9	7	523	7.0	-108701.0	-1962.0	21620.0
31	17	9	7	524	8.0	-110996.0	-1960.0	21075.0
31	17	9	7	524	10.0	-112864.0	-1924.0	20303.0
31	17	9	7	525	11.0	-113527.0	-1895.0	19983.0
31	17	9	7	525	12.0	-114455.0	-1824.0	19261.0
31	17	9	7	526	13.0	-115381.0	-1776.0	19114.0
31	17	9	7	526	14.0	-116993.0	-1741.0	18940.0
31	17	9	7	527	15.0	-120032.0	-1689.0	18476.0
31	17	9	7	527	16.0	-124520.0	-1641.0	18323.0
31	17	9	7	548	17.0	-130351.0	-1592.0	18788.0
31	17	9	7	549	18.0	-137115.0	-1532.0	18289.0
31	17	9	7	550	19.0	-143857.0	-1487.0	17756.0
31	17	9	7	550	20.0	-151220.0	-1462.0	17620.0
31	17	9	7	551	21.0	-158691.0	-1424.0	17589.0
31	17	9	7	552	22.0	-166502.0	-1388.0	17299.0
31	17	9	7	552	23.0	-175102.0	-1371.0	16918.0
31	17	9	7	553	24.0	-180472.0	-1331.0	16938.0
31	17	9	7	553	25.0	-184524.0	-1290.0	16909.0
31	17	9	7	554	26.0	-190222.0	-1263.0	16733.0
31	17	9	7	555	27.0	-190656.0	-1234.0	16561.0
31	17	9	7	555	28.0	-188014.0	-1181.0	16468.0
31	17	9	7	556	29.0	-190320.0	-1166.0	16479.0
31	17	9	7	556	30.0	-200870.0	-1148.0	16296.0
31	17	9	7	557	31.0	-207569.0	-1126.0	16120.0
31	17	9	7	558	32.0	-212937.0	-1106.0	16299.0
31	17	9	7	558	33.0	-215704.0	-1070.0	16096.0
31	17	9	7	559	34.0	-217004.0	-1042.0	14987.0
31	17	9	7	560	35.0	-216351.0	-1017.0	16060.0
31	17	9	7	561	36.0	-213449.0	-1007.0	16105.0
31	17	9	7	561	37.0	-208926.0	-996.0	15504.0
31	17	9	7	562	38.0	-202692.0	-991.0	15518.0
31	17	9	7	593	39.0	-194297.0	-986.0	15568.0
31	17	9	7	593	40.0	-184784.0	-973.0	15414.0
31	17	9	7	594	41.0	-175176.0	-974.0	15411.0
31	17	9	7	595	42.0	-166424.0	-979.0	15946.0
31	17	9	7	595	43.0	-159414.0	-988.0	15809.0
31	17	9	7	596	44.0	-154637.0	-1011.0	15389.0
31	17	9	7	597	45.0	-151933.0	-1003.0	15828.0
31	17	9	7	597	46.0	-150577.0	-1002.0	15624.0
31	17	9	7	598	47.0	-150128.0	-1020.0	15476.0
31	17	9	7	599	48.0	-150512.0	-1027.0	15486.0
31	17	9	7	599	49.0	-151526.0	-1042.0	15691.0
31	17	9	7	600	50.0	-153082.0	-1066.0	15173.0
31	17	9	7	601	51.0	-154553.0	-1074.0	15239.0
31	17	9	7	601	52.0	-155735.0	-1091.0	15627.0
31	17	9	7	602	53.0	-156326.0	-1086.0	15366.0
31	17	9	7	603	55.0	-156378.0	-1086.0	15608.0
31	17	9	7	603	56.0	-156263.0	-1067.0	15669.0
31	17	9	7	604	57.0	-155641.0	-1051.0	15756.0
31	17	9	7	604	58.0	-154216.0	-1046.0	15593.0
31	17	9	7	605	59.0	-152514.0	-1010.0	15743.0
31	17	9	7	606	60.0	-150627.0	-977.0	15914.0
31	17	9	7	637	61.0	-148666.0	-976.0	15919.0
31	17	9	7	638	62.0	-148760.0	-970.0	15774.0
31	17	9	7	638	63.0	-160619.0	-981.0	15537.0
31	17	9	7	639	64.0	-140464.0	-997.0	15472.0
31	17	9	7	640	65.0	-136482.0	-1013.0	15231.0
31	17	9	7	660	66.0	-140800.0	-1034.0	15266.0
31	17	9	7	668	67.0	-142966.0	-1054.0	15439.0
31	17	9	7	673	68.0	-147353.0	-1066.0	15271.0
31	17	9	7	673	69.0	-148466.0	-1057.0	15406.0
31	17	9	7	674	70.0	-151990.0	-1065.0	15483.0
31	17	9	7	675	71.0	-155102.0	-1066.0	15283.0
31	17	9	7	675	72.0	-160046.0	-1054.0	15145.0
31	17	9	7	676	73.0	-164169.0	-1042.0	15034.0
31	17	9	7	676	74.0	-167920.0	-1048.0	15089.0
31	17	9	7	677	75.0	-170243.0	-1042.0	14996.0
31	17	9	7	677	77.0	-172889.0	-1037.0	14818.0
31	17	9	7	678	78.0	-172650.0	-1007.0	14686.0
31	17	9	7	679	79.0	-172089.0	-997.0	14726.0
31	17	9	7	679	80.0	-171290.0	-995.0	15084.0
31	17	9	7	680	81.0	-170639.0	-967.0	15028.0
31	17	9	7	680	82.0	-170293.0	-934.0	15165.0
31	17	9	7	681	83.0	-169719.0	-926.0	15119.0
31	17	9	7	689	84.0	-169095.0	-901.0	15126.0
31	17	9	7	689	85.0	-168983.0	-878.0	14764.0
31	17	9	7	690	86.0	-169379.0	-874.0	14499.0
31	17	9	7	690	87.0	-169740.0	-861.0	14746.0
31	17	9	7	691	88.0	-170464.0	-859.0	14876.0
31	17	9	7	692	89.0	-171349.0	-871.0	15104.0
31	17	9	7	692	90.0	-172277.0	-876.0	15097.0
31	17	9	7	693	91.0	-173120.0	-885.0	15112.0
31	17	9	7	693	92.0	-173857.0	-887.0	15113.0
31	17	9	7	694	93.0	-174785.0	-926.0	14709.0
31	17	9	7	694	94.0	-175777.0	-952.0	15051.0
31	17	9	7	695	95.0	-177123.0	-972.0	15362.0
31	17	9	7	695	96.0	-178772.0	-985.0	14671.0
31	17	9	7	696	97.0	-180174.0	-1018.0	14225.0
31	17	9	7	696	98.0	-181650.0	-1037.0	14182.0
31	17	9	7	697	100.0	-184722.0	-1059.0	14449.0
31	17	9	7	698	101.0	-185835.0	-1076.0	14608.0
31	17	9	7	698	102.0	-186546.0	-1069.0	14811.0
31	17	9	7	699	103.0	-187330.0	-1053.0	14541.0
31	17	9	7	699	104.0	-187949.0	-1034.0	14623.0
31	17	9	7	700	105.0	-188411.0	-1051.0	14921.0
31	17	9	7	728	106.0	-188792.0	-1062.0	14691.0
31	17	9	7	729	107.0	-189266.0	-1083.0	14236.0
31	17	9	7	729	108.0	-189971.0	-1109.0	14484.0
31	17	9	7	730	109.0	-190536.0	-1133.0	14683.0
31	17	9	7	731	110.0	-190891.0	-1170.0	14343.0
31	17	9	7	731	111.0	-190914.0	-1206.0	14838.0
31	17	9	7	732	112.0	-190870.0	-1246.0	14981.0
31	17	9	7	732	113.0	-190639.0	-1277.0	14580.0
31	17	9	7	733	114.0	-190177.0	-1324.0	14575.0
31	17	9	7	733	115.0	-189859.0	-1367.0	14608.0
31	17	9	7	734	116.0	-189745.0	-1401.0	14366.0
31	17	9	7	735	117.0	-189910.0	-1439.0	14004.0
31	17	9	7	735	118.0	-190040.0	-1491.0	14234.0
31	17	9	7	736	119.0	-190166.0	-1531.0	14171.0
31	17	9	7	736	120.0	-190042.0	-1556.0	14055.0
31	17	9	7	737	122.0	-189464.0	-1638.0	14041.0
31	17	9	7	737	123.0	-189064.0	-1673.0	13871.0
31	17	9	7	738	124.0	-188496.0	-1690.0	13931.0
31	17	9	7	739	125.0	-187825.0	-1680.0	14038.0
31	17	9	7	739	126.0	-186990.0	-1667.0	13789.0
31	17	9	7	740	127.0	-185982.0	-1651.0	13800.0
31	17	9	7	773	128.0	-184463.0	-1646.0	13583.0
31	17	9	7	774	129.0	-182550.0	-1638.0	13511.0
31	17	9	7	774	130.0	-180290.0	-1633.0	13576.0
31	17	9	7	775	131.0	-177832.0	-1624.0	13458.0
31	17	9	7	776	132.0	-175106.0	-1644.0	13476.0
31	17	9	7	776	133.0	-172701.0	-1651.0	13593.0
31	17	9	7	777	134.0	-170456.0	-1618.0	13411.0
31	17	9	7	777	135.0	-168593.0	-1617.0	13258.0
31	17	9	7	778	136.0	-167166.0	-1647.0	13886.0
31	17	9	7	779	137.0	-166116.0	-1647.0	13664.0
31	17	9	7	779	138.0	-165542.0	-1642.0	13094.0
31	17	9	7	780	139.0	-165347.0	-1626.0	13355.0
31	17	9	7	780	140.0	-165357.0	-1638.0	13417.0
31	17	9	7	781	141.0	-165347.0	-1632.0	13253.0
31	17	9	7	818	142.0	-165304.0	-1634.0	13584.0
31	17	9	7	819	145.0	-164479.0	-1635.0	12549.0
31	17	9	7	819	146.0	-164618.0	-1679.0	13107.0
31	17	9	7	820	147.0	-165164.0	-1664.0	13590.0
31	17	9	7	820	148.0	-166032.0	-1652.0	13129.0
31	17	9	7	821	149.0	-167279.0	-1646.0	12809.0
31	17	9	7	822	150.0	-168974.0	-1656.0	12953.0
31	17	9	7	822	151.0	-171048.0	-1649.0	12998.0
31	17	9	7	823	152.0	-173516.0	-1639.0	12707.0
31	17	9	7	823	153.0	-175699.0	-1652.0	12713.0
31	17	9	7	824	154.0	-177776.0	-1652.0	12558.0
31	17	9	7	824	155.0	-179586.0	-1637.0	12285.0
31	17	9	7	825	156.0	-181143.0	-1640.0	12315.0
31	17	9	7	826	157.0	-182742.0	-1619.0	12188.0
31	17	9	7	826	158.0	-184012.0	-1621.0	11722.0
31	17	9	7	827	159.0	-185287.0	-1618.0	11738.0
31	17	9	7	827	167.0	-190907.0	-1600.0	11393.0
31	17	9	7	828	168.0	-191254.0	-1619.0	11618.0
31	17	9	7	828	169.0	-191188.0	-1589.0	11518.0
31	17	9	7	829	170.0	-190737.0	-1564.0	11258.0
31	17	9	7	829	171.0	-190056.0	-1542.0	11795.0
31	17	9	7	830	172.0	-189308.0	-1516.0	11661.0
31	17	9	7	831	173.0	-188576.0	-1507.0	11055.0
31	17	9	7	861	174.0	-187702.0	-1491.0	11021.0
31	17	9	7	862	175.0	-186754.0	-1467.0	11092.0
31	17	9	7	863	176.0	-185782.0	-1457.0	11319.0
31	17	9	7	863	177.0	-185111.0	-1449.0	11451.0
31	17	9	7	864	178.0	-184523.0	-1461.0	11441.0
31	17	9	7	864	179.0	-184219.0	-1478.0	11742.0
31	17	9	7	865	180.0	-183960.0	-1476.0	11943.0
31	17	9	7	866	181.0	-183620.0	-1450.0	12244.0
31	17	9	7	866	182.0	-183156.0	-1439.0	12430.0
31	17	9	7	867	183.0	-182739.0	-1429.0	12314.0
31	17	9	7	868	184.0	-182243.0	-1412.0	12448.0
31	17	9	7	868	185.0	-181735.0	-1427.0	12233.0
31	17	9	7	869	186.0	-180859.0	-1420.0	12312.0
31	17	9	7	870	187.0	-180016.0	-1411.0	12751.0
31	17	9	7	871	188.0	-179288.0	-1402.0	12672.0
31	17	9	7	871	189.0	-178548.0	-1396.0	12406.0
31	17	9	7	872	190.0	-178103.0	-1377.0	12461.0
31	17	9	7	872	191.0	-178019.0	-1361.0	12364.0
31	17	9	7	873	192.0	-178408.0	-1351.0	12044.0
31	17	9	7	873	193.0	-179214.0	-1334.0	11891.0
31	17	9	7	874	194.0	-180311.0	-1326.0	11824.0
31	17	9	7	875	195.0	-181705.0	-1330.0	11962.0
31	17	9	7	906	196.0	-182791.0	-1307.0	12048.0
31	17	9	7	907	197.0	-183547.0	-1278.0	12043.0
31	17	9	7	908	198.0	-184159.0	-1279.0	11883.0
31	17	9	7	908	199.0	-184638.0	-1272.0	11999.0
31	17	9	7	909	200.0	-185450.0	-1269.0	11826.0
31	17	9	7	910	201.0	-186547.0	-1266.0	12049.0
31	17	9	7	910	202.0	-187244.0	-1261.0	12058.0
31	17	9	7	911	203.0	-187481.0	-1244.0	12189.0
31	17	9	7	911	204.0	-187251.0	-1224.0	11958.0
31	17	9	7	912	205.0	-186787.0	-1223.0	11893.0
31	17	9	7	912	206.0	-185822.0	-1214.0	12058.0
31	17	9	7	913	207.0	-184339.0	-1214.0	11881.0
31	17	9	7	953	208.0	-182969.0	-1212.0	11856.0
31	17	9	7	953	209.0	-181261.0	-1209.0	12303.0
31	17	9	7	954	210.0	-179159.0	-1217.0	12308.0
31	17	9	7	954	212.0	-175139.0	-1227.0	12293.0
31	17	9	7	955	213.0	-173186.0	-1238.0	12196.0
31	17	9	7	956	214.0	-171619.0	-1247.0	11864.0
31	17	9	7	956	215.0	-170386.0	-1260.0	11910.0
31	17	9	7	957	216.0	-169219.0	-1267.0	12273.0
31	17	9	7	957	217.0	-167957.0	-1262.0	11577.0
31	17	9	7	958	218.0	-166799.0	-1278.0	11829.0
31	17	9	7	959	219.0	-165608.0	-1304.0	12219.0
31	17	9	7	959	220.0	-164212.0	-1331.0	11753.0
31	17	9	7	960	221.0	-162612.0	-1344.0	11831.0
31	17	9	7	960	222.0	-160976.0	-1366.0	12088.0
31	17	9	7	962	223.0	-159319.0	-1396.0	12956.0
31	17	9	7	962	224.0	-157879.0	-1409.0	14064.0
31	17	9	7	963	235.0	-141381.0	-1506.0	4229.0
31	17	9	7	964	236.0	-142770.0	-1503.0	1735.0
31	17	9	7	964	237.0	-145489.0	-1487.0	1546.0
31	17	9	7	965	238.0	-149405.0	-1508.0	1621.0
31	17	9	7	965	239.0	-154460.0	-1484.0	832.0
31	17	9	7	966	240.0	-160781.0	-1471.0	-898.0
31	17	9	7	997	241.0	-167595.0	-1499.0	-2945.0
31	17	9	7	998	242.0	-174239.0	-1505.0	-4970.0
31	17	9	7	999	243.0	-180707.0	-1512.0	-4762.0
31	17	9	7	999	244.0	-187179.0	-1517.0	-5112.0
31	17	9	8	0	245.0	-194032.0	-1526.0	-5487.0
31	17	9	8	0	246.0	-199886.0	-1537.0	-3631.0
31	17	9	8	1	247.0	-203167.0	-1542.0	1541.0
31	17	9	8	2	248.0	-201957.0	-1521.0	7170.0
31	17	9	8	2	249.0	-196651.0	-1522.0	10677.0
31	17	9	8	3	250.0	-188394.0	-1524.0	13067.0
31	17	9	8	4	251.0	-177881.0	-1508.0	15124.0
31	17	9	8	4	252.0	-166282.0	-1526.0	16428.0
31	17	9	8	5	253.0	-155501.0	-1550.0	16598.0
31	17	9	8	6	254.0	-147322.0	-1549.0	16836.0
31	17	9	8	6	255.0	-143106.0	-1547.0	17027.0
31	17	9	8	7	1.0	-146871.0	-1593.0	16611.0
31	17	9	8	7	2.0	-152570.0	-1592.0	16596.0
31	17	9	8	8	3.0	-158552.0	-1602.0	16272.0
31	17	9	8	9	4.0	-164372.0	-1621.0	16204.0
31	17	9	8	9	5.0	-169172.0	-1601.0	15790.0
31	17	9	8	10	6.0	-170501.0	-1576.0	15356.0
31	17	9	8	42	7.0	-164951.0	-1572.0	14689.0
31	17	9	8	43	8.0	-156747.0	-1565.0	14121.0
31	17	9	8	43	9.0	-151551.0	-1579.0	13640.0
31	17	9	8	44	10.0	-148130.0	-1599.0	13294.0
31	17	9	8	45	11.0	-148276.0	-1610.0	12676.0
31	17	9	8	45	12.0	-145754.0	-1630.0	12193.0
31	17	9	8	46	13.0	-143317.0	-1654.0	11670.0
31	17	9	8	47	14.0	-140926.0	-1683.0	11184.0
31	17	9	8	47	15.0	-138844.0	-1711.0	10930.0
31	17	9	8	48	16.0	-139457.0	-1745.0	11247.0
31	17	9	8	48	17.0	-144693.0	-1767.0	11533.0
31	17	9	8	49	18.0	-157222.0	-1812.0	11259.0
31	17	9	8	50	19.0	-176401.0	-1827.0	11259.0
31	17	9	8	50	20.0	-203537.0	-1829.0	11424.0
31	17	9	8	51	21.0	-234174.0	-1847.0	11358.0
31	17	9	8	52	23.0	-285092.0	-1879.0	11588.0
31	17	9	8	52	24.0	-295083.0	-1874.0	11081.0
31	17	9	8	53	25.0	-293403.0	-1858.0	11031.0
31	17	9	8	53	26.0	-283391.0	-1857.0	10768.0
31	17	9	8	54	27.0	-268322.0	-1851.0	9883.0
31	17	9	8	55	28.0	-250977.0	-1813.0	9840.0
31	17	9	8	55	29.0	-232629.0	-1822.0	10228.0
31	17	9	8	88	30.0	-215488.0	-1829.0	10229.0
31	17	9	8	89	31.0	-200817.0	-1811.0	10598.0
31	17	9	8	90	32.0	-191403.0	-1829.0	10729.0
31	17	9	8	90	33.0	-186786.0	-1877.0	10891.0
31	17	9	8	91	34.0	-185767.0	-1907.0	10829.0
31	17	9	8	91	35.0	-187314.0	-1939.0	10376.0
31	17	9	8	92	36.0	-191168.0	-1982.0	10261.0
31	17	9	8	92	37.0	-195586.0	-1999.0	10337.0
31	17	9	8	93	38.0	-198537.0	-2021.0	10366.0
31	17	9	8	94	39.0	-197827.0	-2048.0	10000.0
31	17	9	8	94	40.0	-193952.0	-2061.0	10068.0
31	17	9	8	95	41.0	-188142.0	-2091.0	10034.0
31	17	9	8	95	42.0	-181688.0	-2104.0	9714.0
31	17	9	8	96	43.0	-175025.0	-2126.0	9672.0
31	17	9	8	97	44.0	-167114.0	-2127.0	9693.0
31	17	9	8	97	46.0	-147777.0	-2163.0	10061.0
31	17	9	8	98	47.0	-137991.0	-2160.0	10081.0
31	17	9	8	98	48.0	-128916.0	-2127.0	10223.0
31	17	9	8	99	49.0	-120633.0	-2102.0	10141.0
31	17	9	8	100	50.0	-112834.0	-2077.0	9896.0
31	17	9	8	100	51.0	-105239.0	-2079.0	9841.0
31	17	9	8	133	52.0	-97829.0	-2072.0	9973.0
31	17	9	8	134	53.0	-91396.0	-2054.0	10099.0
31	17	9	8	135	54.0	-85636.0	-2046.0	10224.0
31	17	9	8	135	55.0	-80844.0	-2063.0	10263.0
31	17	9	8	136	56.0	-77964.0	-2070.0	10156.0
31	17	9	8	137	57.0	-76739.0	-2079.0	10163.0
31	17	9	8	137	58.0	-76474.0	-2083.0	10089.0
31	17	9	8	138	59.0	-77882.0	-2074.0	10125.0
31	17	9	8	138	60.0	-80646.0	-2082.0	10191.0
31	17	9	8	139	61.0	-83792.0	-2087.0	10340.0
31	17	9	8	139	62.0	-87371.0	-2097.0	9719.0
31	17	9	8	140	63.0	-91592.0	-2096.0	9500.0
31	17	9	8	141	64.0	-96203.0	-2111.0	9529.0
31	17	9	8	141	65.0	-100354.0	-2103.0	9741.0
31	17	9	8	142	66.0	-103086.0	-2093.0	9763.0
31	17	9	8	143	68.0	-104337.0	-2131.0	9672.0
31	17	9	8	143	69.0	-103367.0	-2147.0	10356.0
31	17	9	8	144	70.0	-101830.0	-2124.0	10304.0
31	17	9	8	144	71.0	-99696.0	-2142.0	10080.0
31	17	9	8	145	72.0	-97089.0	-2143.0	10548.0
31	17	9	8	145	73.0	-94329.0	-2139.0	10408.0
31	17	9	8	146	74.0	-91797.0	-2161.0	10398.0
31	17	9	8	177	75.0	-89657.0	-2163.0	10816.0
31	17	9	8	178	76.0	-88006.0	-2170.0	10821.0
31	17	9	8	179	77.0	-87019.0	-2165.0	10473.0
31	17	9	8	179	78.0	-86837.0	-2164.0	10411.0
31	17	9	8	180	79.0	-87476.0	-2188.0	10659.0
31	17	9	8	181	80.0	-88692.0	-2217.0	10861.0
31	17	9	8	182	81.0	-90901.0	-2224.0	11216.0
31	17	9	8	182	82.0	-93979.0	-2237.0	11556.0
31	17	9	8	183	83.0	-97607.0	-2261.0	11714.0
31	17	9	8	184	84.0	-101470.0	-2287.0	11505.0
31	17	9	8	184	85.0	-105847.0	-2317.0	11616.0
31	17	9	8	185	86.0	-110796.0	-2335.0	11882.0
31	17	9	8	185	87.0	-115706.0	-2340.0	11969.0
31	17	9	8	186	88.0	-120609.0	-2354.0	12458.0
31	17	9	8	199	89.0	-125548.0	-2376.0	13289.0
31	17	9	8	200	91.0	-134472.0	-2426.0	13786.0
31	17	9	8	201	92.0	-138276.0	-2434.0	13970.0
31	17	9	8	201	93.0	-141257.0	-2441.0	13609.0
31	17	9	8	202	94.0	-143718.0	-2425.0	14194.0
31	17	9	8	202	95.0	-145612.0	-2421.0	14545.0
31	17	9	8	203	96.0	-146847.0	-2412.0	14454.0
31	17	9	8	224	97.0	-147234.0	-2391.0	14565.0
31	17	9	8	225	98.0	-146752.0	-2372.0	15246.0
31	17	9	8	225	99.0	-145387.0	-2363.0	15306.0
31	17	9	8	226	100.0	-143414.0	-2348.0	15341.0
31	17	9	8	226	101.0	-141376.0	-2326.0	15553.0
31	17	9	8	227	102.0	-139343.0	-2341.0	15367.0
31	17	9	8	228	103.0	-137104.0	-2353.0	15249.0
31	17	9	8	228	104.0	-134442.0	-2349.0	15576.0
31	17	9	8	229	105.0	-131904.0	-2320.0	16435.0
31	17	9	8	230	106.0	-129795.0	-2310.0	15928.0
31	17	9	8	230	107.0	-128298.0	-2316.0	16228.0
31	17	9	8	231	108.0	-127339.0	-2335.0	16327.0
31	17	9	8	231	109.0	-126613.0	-2334.0	15664.0
31	17	9	8	232	110.0	-125762.0	-2316.0	15839.0
31	17	9	8	233	111.0	-125041.0	-2309.0	15895.0
31	17	9	8	233	113.0	-122636.0	-2296.0	15782.0
31	17	9	8	267	114.0	-121087.0	-2290.0	15924.0
31	17	9	8	268	115.0	-119685.0	-2257.0	15529.0
31	17	9	8	269	116.0	-118484.0	-2208.0	15173.0
31	17	9	8	269	117.0	-117291.0	-2179.0	15218.0
31	17	9	8	270	118.0	-115914.0	-2132.0	14638.0
31	17	9	8	270	119.0	-114486.0	-2106.0	14393.0
31	17	9	8	271	120.0	-113011.0	-2075.0	14295.0
31	17	9	8	272	121.0	-112117.0	-2057.0	14386.0
31	17	9	8	272	122.0	-111523.0	-2069.0	13761.0
31	17	9	8	273	123.0	-110704.0	-2069.0	13269.0
31	17	9	8	274	124.0	-109455.0	-2026.0	12693.0
31	17	9	8	275	125.0	-108536.0	-2013.0	11963.0
31	17	9	8	275	126.0	-109151.0	-1997.0	11793.0
31	17	9	8	276	127.0	-110626.0	-1986.0	11346.0
31	17	9	8	277	128.0	-111747.0	-1976.0	10414.0
31	17	9	8	277	129.0	-113271.0	-1938.0	9929.0
31	17	9	8	278	136.0	-150572.0	-1747.0	7730.0
31	17	9	8	279	137.0	-154719.0	-1709.0	7434.0
31	17	9	8	279	138.0	-157897.0	-1667.0	7192.0
31	17	9	8	280	139.0	-160284.0	-1611.0	7138.0
31	17	9	8	280	140.0	-162549.0	-1567.0	6691.0
31	17	9	8	281	141.0	-164614.0	-1525.0	6405.0
31	17	9	8	313	142.0	-166279.0	-1468.0	6289.0
31	17	9	8	313	143.0	-167702.0	-1421.0	5441.0
31	17	9	8	314	144.0	-168802.0	-1403.0	5078.0
31	17	9	8	315	145.0	-169589.0	-1362.0	5453.0
31	17	9	8	315	146.0	-170116.0	-1326.0	5651.0
31	17	9	8	316	147.0	-171135.0	-1305.0	5683.0
31	17	9	8	317	148.0	-173323.0	-1254.0	5653.0
31	17	9	8	317	149.0	-175116.0	-1226.0	5646.0
31	17	9	8	318	150.0	-176897.0	-1197.0	5338.0
31	17	9	8	319	151.0	-179163.0	-1156.0	5486.0
31	17	9	8	319	152.0	-177621.0	-1117.0	5711.0
31	17	9	8	320	153.0	-176668.0	-1076.0	5636.0
31	17	9	8	320	154.0	-177171.0	-1064.0	5469.0
31	17	9	8	321	155.0	-175146.0	-1044.0	5345.0
31	17	9	8	322	156.0	-170850.0	-1026.0	5521.0
31	17	9	8	322	158.0	-177643.0	-988.0	5114.0
31	17	9	8	323	159.0	-179754.0	-937.0	5134.0
31	17	9	8	324	160.0	-181870.0	-868.0	5020.0
31	17	9	8	324	161.0	-182541.0	-832.0	5103.0
31	17	9	8	325	162.0	-181745.0	-774.0	5048.0
31	17	9	8	325	163.0	-179673.0	-744.0	4771.0
31	17	9	8	358	164.0	-175552.0	-684.0	4873.0
31	17	9	8	359	165.0	-169480.0	-615.0	4699.0
31	17	9	8	360	166.0	-160581.0	-587.0	4812.0
31	17	9	8	361	167.0	-150929.0	-581.0	4988.0
31	17	9	8	361	168.0	-140015.0	-547.0	4659.0
31	17	9	8	362	169.0	-128259.0	-521.0	4588.0
31	17	9	8	363	170.0	-119046.0	-511.0	4258.0
31	17	9	8	363	171.0	-113465.0	-497.0	4226.0
31	17	9	8	364	172.0	-109647.0	-496.0	4005.0
31	17	9	8	365	173.0	-107648.0	-483.0	4436.0
31	17	9	8	365	174.0	-107476.0	-464.0	4836.0
31	17	9	8	366	175.0	-108197.0	-471.0	4576.0
31	17	9	8	367	176.0	-109577.0	-480.0	4221.0
31	17	9	8	368	177.0	-114546.0	-467.0	4334.0
31	17	9	8	368	178.0	-119375.0	-463.0	4354.0
31	17	9	8	369	181.0	-129522.0	-478.0	4474.0
31	17	9	8	370	182.0	-133486.0	-479.0	4184.0
31	17	9	8	370	183.0	-136166.0	-449.0	4396.0
31	17	9	8	371	184.0	-138392.0	-459.0	4187.0
31	17	9	8	371	185.0	-139701.0	-466.0	3826.0
31	17	9	8	372	186.0	-141552.0	-462.0	4228.0
31	17	9	8	403	187.0	-142857.0	-451.0	4602.0
31	17	9	8	403	188.0	-143531.0	-461.0	4394.0
31	17	9	8	404	189.0	-143582.0	-480.0	4662.0
31	17	9	8	405	190.0	-143931.0	-501.0	4713.0
31	17	9	8	406	191.0	-144615.0	-512.0	4356.0
31	17	9	8	406	192.0	-145488.0	-501.0	4027.0
31	17	9	8	407	193.0	-146727.0	-506.0	3999.0
31	17	9	8	408	194.0	-148090.0	-524.0	3724.0
31	17	9	8	408	195.0	-149234.0	-541.0	3468.0
31	17	9	8	409	196.0	-150773.0	-550.0	3576.0
31	17	9	8	410	197.0	-151487.0	-546.0	3942.0
31	17	9	8	411	198.0	-152644.0	-575.0	4333.0
31	17	9	8	411	199.0	-154936.0	-572.0	4316.0
31	17	9	8	412	200.0	-156703.0	-569.0	4476.0
31	17	9	8	413	201.0	-158768.0	-599.0	4376.0
31	17	9	8	413	203.0	-162507.0	-610.0	3876.0
31	17	9	8	414	204.0	-163074.0	-599.0	3617.0
31	17	9	8	415	205.0	-164533.0	-554.0	3616.0
31	17	9	8	415	206.0	-166417.0	-561.0	3533.0
31	17	9	8	416	207.0	-168083.0	-546.0	3569.0
31	17	9	8	416	208.0	-170046.0	-531.0	3513.0
31	17	9	8	448	209.0	-173253.0	-515.0	3214.0
31	17	9	8	449	210.0	-176387.0	-505.0	3593.0
31	17	9	8	450	211.0	-178727.0	-490.0	3246.0
31	17	9	8	451	212.0	-180566.0	-507.0	3551.0
31	17	9	8	451	213.0	-182409.0	-526.0	3409.0
31	17	9	8	452	214.0	-184347.0	-532.0	3452.0
31	17	9	8	453	215.0	-186268.0	-556.0	3464.0
31	17	9	8	453	216.0	-188066.0	-586.0	3018.0
31	17	9	8	454	217.0	-189763.0	-621.0	3010.0
31	17	9	8	455	218.0	-191642.0	-658.0	3061.0
31	17	9	8	456	219.0	-193117.0	-692.0	2998.0
31	17	9	8	456	220.0	-194654.0	-721.0	3195.0
31	17	9	8	457	221.0	-196062.0	-756.0	3188.0
31	17	9	8	458	222.0	-196569.0	-796.0	3163.0
31	17	9	8	458	223.0	-196594.0	-824.0	3262.0
31	17	9	8	459	225.0	-196182.0	-909.0	3058.0
31	17	9	8	460	226.0	-194815.0	-944.0	2906.0
31	17	9	8	460	227.0	-192696.0	-954.0	2812.0
31	17	9	8	461	228.0	-191182.0	-975.0	2656.0
31	17	9	8	462	229.0	-190155.0	-984.0	2989.0
31	17	9	8	462	230.0	-189953.0	-1012.0	2878.0
31	17	9	8	463	231.0	-190061.0	-1018.0	2285.0
31	17	9	8	493	232.0	-190022.0	-1037.0	2551.0
31	17	9	8	494	233.0	-189719.0	-1034.0	3339.0
31	17	9	8	495	234.0	-189532.0	-1044.0	3051.0
31	17	9	8	496	235.0	-189260.0	-1071.0	2732.0
31	17	9	8	496	236.0	-189069.0	-1079.0	2740.0
31	17	9	8	497	237.0	-188390.0	-1104.0	2511.0
31	17	9	8	498	238.0	-187355.0	-1114.0	2243.0
31	17	9	8	498	239.0	-184767.0	-1117.0	2521.0
31	17	9	8	499	240.0	-182675.0	-1123.0	2604.0
31	17	9	8	500	241.0	-180144.0	-1132.0	2234.0
31	17	9	8	500	242.0	-177911.0	-1131.0	2099.0
31	17	9	8	501	243.0	-176347.0	-1118.0	2622.0
31	17	9	8	502	244.0	-175574.0	-1126.0	2421.0
31	17	9	8	503	245.0	-174542.0	-1136.0	2534.0
31	17	9	8	503	246.0	-173147.0	-1135.0	2323.0
31	17	9	8	504	248.0	-170022.0	-1138.0	1594.0
31	17	9	8	504	249.0	-168665.0	-1146.0	1812.0
31	17	9	8	505	250.0	-167120.0	-1142.0	2023.0
31	17	9	8	506	251.0	-167132.0	-1127.0	2068.0
31	17	9	8	506	252.0	-167102.0	-1116.0	2165.0
31	17	9	8	507	253.0	-167087.0	-1091.0	2281.0
31	17	9	8	538	254.0	-168062.0	-1078.0	2129.0
31	17	9	8	539	255.0	-169844.0	-1059.0	1960.0
31	17	9	8	539	0.0	-171486.0	-1044.0	1771.0
31	17	9	8	540	1.0	-172316.0	-1046.0	1479.0
31	17	9	8	541	2.0	-173385.0	-1051.0	1476.0
31	17	9	8	542	3.0	-173668.0	-1055.0	1484.0
31	17	9	8	542	4.0	-173720.0	-1054.0	1154.0
31	17	9	8	543	5.0	-174211.0	-1042.0	1210.0
31	17	9	8	544	6.0	-175114.0	-1054.0	1118.0
31	17	9	8	544	7.0	-176605.0	-1054.0	1017.0
31	17	9	8	545	8.0	-177379.0	-1042.0	844.0
31	17	9	8	546	9.0	-177857.0	-1050.0	702.0
31	17	9	8	547	10.0	-178411.0	-1076.0	913.0
31	17	9	8	547	11.0	-177736.0	-1053.0	1222.0
31	17	9	8	548	12.0	-176487.0	-1043.0	1214.0
31	17	9	8	549	14.0	-177877.0	-1056.0	369.0
31	17	9	8	549	15.0	-179061.0	-1063.0	-104.0
31	17	9	8	550	16.0	-180990.0	-1044.0	-424.0
31	17	9	8	551	17.0	-182985.0	-1021.0	688.0
31	17	9	8	551	18.0	-185732.0	-998.0	633.0
31	17	9	8	552	19.0	-188703.0	-1003.0	528.0
31	17	9	8	552	20.0	-190715.0	-986.0	360.0
31	17	9	8	583	21.0	-192806.0	-987.0	171.0
31	17	9	8	584	22.0	-194754.0	-976.0	-12.0
31	17	9	8	585	23.0	-196213.0	-954.0	-481.0
31	17	9	8	586	24.0	-197594.0	-940.0	-795.0
31	17	9	8	587	25.0	-197495.0	-955.0	-347.0
31	17	9	8	587	26.0	-197411.0	-964.0	-713.0
31	17	9	8	588	27.0	-197503.0	-963.0	-920.0
31	17	9	8	589	28.0	-197779.0	-963.0	-930.0
31	17	9	8	589	29.0	-197724.0	-954.0	-702.0
31	17	9	8	590	30.0	-196576.0	-965.0	-575.0
31	17	9	8	591	31.0	-195370.0	-973.0	-611.0
31	17	9	8	591	32.0	-194357.0	-972.0	-804.0
31	17	9	8	592	33.0	-192721.0	-981.0	-906.0
31	17	9	8	593	34.0	-191426.0	-1012.0	-1011.0
31	17	9	8	593	35.0	-189444.0	-1016.0	-547.0
31	17	9	8	594	37.0	-184791.0	-1001.0	119.0
31	17	9	8	595	38.0	-182385.0	-1002.0	423.0
31	17	9	8	595	39.0	-180447.0	-1014.0	349.0
31	17	9	8	596	40.0	-178212.0	-1004.0	468.0
31	17	9	8	597	41.0	-176194.0	-1009.0	298.0
31	17	9	8	597	42.0	-174327.0	-1019.0	224.0
31	17	9	8	628	43.0	-172170.0	-1017.0	569.0
31	17	9	8	629	44.0	-171008.0	-1024.0	248.0
31	17	9	8	630	45.0	-169617.0	-1014.0	-31.0
31	17	9	8	674	46.0	-166447.0	-1011.0	0.0
31	17	9	8	674	47.0	-163560.0	-1017.0	16.0
31	17	9	8	675	48.0	-161950.0	-1036.0	-100.0
31	17	9	8	676	49.0	-161299.0	-1045.0	124.0
31	17	9	8	677	50.0	-161399.0	-1031.0	798.0
31	17	9	8	678	51.0	-161038.0	-1044.0	381.0
31	17	9	8	678	52.0	-162373.0	-1061.0	-90.0
31	17	9	8	679	53.0	-164752.0	-1064.0	127.0
31	17	9	8	680	54.0	-167670.0	-1070.0	-219.0
31	17	9	8	680	55.0	-171401.0	-1077.0	-161.0
31	17	9	8	681	56.0	-175217.0	-1082.0	131.0
31	17	9	8	682	57.0	-178862.0	-1091.0	190.0
31	17	9	8	682	59.0	-185608.0	-1132.0	-199.0
31	17	9	8	683	60.0	-188788.0	-1140.0	-228.0
31	17	9	8	684	61.0	-191631.0	-1126.0	-259.0
31	17	9	8	685	82.0	-177739.0	-1174.0	2054.0
31	17	9	8	685	83.0	-175086.0	-1185.0	1774.0
31	17	9	8	686	84.0	-172289.0	-1176.0	1023.0
31	17	9	8	687	85.0	-169434.0	-1167.0	305.0
31	17	9	8	687	86.0	-167176.0	-1173.0	-2636.0
31	17	9	8	688	87.0	-165276.0	-1177.0	-6634.0
31	17	9	8	719	88.0	-163942.0	-1159.0	-9934.0
31	17	9	8	720	89.0	-164320.0	-1176.0	-12571.0
31	17	9	8	721	90.0	-165519.0	-1201.0	-13597.0
31	17	9	8	722	91.0	-167181.0	-1236.0	-14844.0
31	17	9	8	722	92.0	-169497.0	-1244.0	-16594.0
31	17	9	8	723	93.0	-172099.0	-1247.0	-20671.0
31	17	9	8	724	94.0	-175335.0	-1252.0	-24380.0
31	17	9	8	725	95.0	-178249.0	-1261.0	-29109.0
31	17	9	8	725	96.0	-180777.0	-1295.0	-30424.0
31	17	9	8	726	97.0	-182484.0	-1318.0	-26827.0
31	17	9	8	727	98.0	-183067.0	-1322.0	-23140.0
31	17	9	8	727	99.0	-182681.0	-1356.0	-17867.0
31	17	9	8	728	100.0	-180147.0	-1377.0	-10402.0
31	17	9	8	729	101.0	-173920.0	-1394.0	-3449.0
31	17	9	8	729	102.0	-164517.0	-1400.0	964.0
31	17	9	8	730	104.0	-142478.0	-1437.0	3779.0
31	17	9	8	731	105.0	-132091.0	-1432.0	4990.0
31	17	9	8	731	106.0	-125419.0	-1418.0	4884.0
31	17	9	8	732	107.0	-123786.0	-1430.0	4721.0
31	17	9	8	732	108.0	-126695.0	-1441.0	4267.0
31	17	9	8	733	109.0	-133013.0	-1446.0	4540.0
31	17	9	8	734	110.0	-141326.0	-1432.0	3775.0
31	17	9	8	763	111.0	-150639.0	-1442.0	3004.0
31	17	9	8	764	112.0	-159657.0	-1431.0	2674.0
31	17	9	8	765	113.0	-167440.0	-1461.0	1894.0
31	17	9	8	766	114.0	-174544.0	-1472.0	1170.0
31	17	9	8	766	115.0	-178886.0	-1494.0	841.0
31	17	9	8	767	116.0	-179387.0	-1504.0	1029.0
31	17	9	8	768	117.0	-172134.0	-1511.0	344.0
31	17	9	8	769	118.0	-163609.0	-1532.0	-622.0
31	17	9	8	769	119.0	-157270.0	-1511.0	-699.0
31	17	9	8	770	120.0	-154282.0	-1504.0	-1247.0
31	17	9	8	771	121.0	-155674.0	-1494.0	-2266.0
31	17	9	8	772	122.0	-158874.0	-1489.0	-3078.0
31	17	9	8	772	123.0	-163956.0	-1507.0	-3689.0
31	17	9	8	773	124.0	-168582.0	-1511.0	-4262.0
31	17	9	8	774	125.0	-174289.0	-1511.0	-4434.0
31	17	9	8	774	127.0	-195607.0	-1554.0	-4638.0
31	17	9	8	775	128.0	-213884.0	-1571.0	-4729.0
31	17	9	8	775	129.0	-237638.0	-1548.0	-4687.0
31	17	9	8	776	130.0	-267921.0	-1524.0	-4779.0
31	17	9	8	777	131.0	-298384.0	-1517.0	-4996.0
31	17	9	8	777	132.0	-319328.0	-1519.0	-5447.0
31	17	9	8	807	133.0	-327938.0	-1525.0	-5564.0
31	17	9	8	808	134.0	-322553.0	-1513.0	-5706.0
31	17	9	8	808	135.0	-308852.0	-1524.0	-5751.0
31	17	9	8	809	136.0	-291182.0	-1545.0	-5971.0
31	17	9	8	810	137.0	-271977.0	-1560.0	-5830.0
31	17	9	8	811	138.0	-252339.0	-1567.0	-5894.0
31	17	9	8	811	139.0	-236069.0	-1584.0	-6629.0
31	17	9	8	812	140.0	-225356.0	-1587.0	-6670.0
31	17	9	8	813	141.0	-220455.0	-1588.0	-6254.0
31	17	9	8	814	142.0	-219831.0	-1603.0	-6331.0
31	17	9	8	814	143.0	-222132.0	-1616.0	-6489.0
31	17	9	8	815	144.0	-224512.0	-1605.0	-6517.0
31	17	9	8	816	145.0	-226129.0	-1614.0	-6633.0
31	17	9	8	816	146.0	-226684.0	-1637.0	-6930.0
31	17	9	8	817	147.0	-225896.0	-1645.0	-6780.0
31	17	9	8	818	149.0	-214965.0	-1692.0	-7321.0
31	17	9	8	818	150.0	-205616.0	-1694.0	-7379.0
31	17	9	8	819	151.0	-195106.0	-1690.0	-7217.0
31	17	9	8	820	152.0	-183994.0	-1661.0	-7496.0
31	17	9	8	820	153.0	-172162.0	-1623.0	-7596.0
31	17	9	8	821	154.0	-159211.0	-1591.0	-7596.0
31	17	9	8	852	155.0	-146054.0	-1552.0	-8048.0
31	17	9	8	853	156.0	-133183.0	-1546.0	-8164.0
31	17	9	8	854	157.0	-121796.0	-1539.0	-7940.0
31	17	9	8	855	158.0	-112567.0	-1539.0	-8128.0
31	17	9	8	855	159.0	-105174.0	-1541.0	-8256.0
31	17	9	8	856	160.0	-99244.0	-1542.0	-8199.0
31	17	9	8	857	161.0	-94056.0	-1546.0	-8873.0
31	17	9	8	857	162.0	-90362.0	-1547.0	-9402.0
31	17	9	8	858	163.0	-87576.0	-1553.0	-9296.0
31	17	9	8	859	164.0	-86124.0	-1557.0	-9541.0
31	17	9	8	860	165.0	-86467.0	-1562.0	-9562.0
31	17	9	8	860	166.0	-87881.0	-1569.0	-9741.0
31	17	9	8	861	167.0	-90056.0	-1573.0	-10186.0
31	17	9	8	862	168.0	-92916.0	-1576.0	-10419.0
31	17	9	8	862	169.0	-96716.0	-1589.0	-10339.0
31	17	9	8	863	172.0	-110866.0	-1607.0	-10818.0
31	17	9	8	864	173.0	-116409.0	-1581.0	-10731.0
31	17	9	8	864	174.0	-121909.0	-1568.0	-11090.0
31	17	9	8	865	175.0	-127202.0	-1527.0	-11170.0
31	17	9	8	865	176.0	-132076.0	-1494.0	-11192.0
31	17	9	8	866	177.0	-136162.0	-1471.0	-11261.0
31	17	9	8	897	178.0	-139320.0	-1451.0	-11620.0
31	17	9	8	898	179.0	-141539.0	-1432.0	-11584.0
31	17	9	8	899	180.0	-142934.0	-1424.0	-11400.0
31	17	9	8	900	181.0	-143536.0	-1461.0	-11576.0
31	17	9	8	901	182.0	-143461.0	-1468.0	-11379.0
31	17	9	8	902	183.0	-142532.0	-1470.0	-11628.0
31	17	9	8	902	184.0	-140766.0	-1469.0	-12262.0
31	17	9	8	903	185.0	-138714.0	-1493.0	-11883.0
31	17	9	8	904	186.0	-136923.0	-1503.0	-10684.0
31	17	9	8	905	187.0	-135623.0	-1541.0	-11319.0
31	17	9	8	905	188.0	-134740.0	-1561.0	-11283.0
31	17	9	8	906	189.0	-134594.0	-1589.0	-11134.0
31	17	9	8	907	190.0	-135231.0	-1601.0	-11213.0
31	17	9	8	907	191.0	-136794.0	-1597.0	-11342.0
31	17	9	8	908	192.0	-138775.0	-1570.0	-11562.0
31	17	9	8	909	194.0	-142989.0	-1542.0	-11294.0
31	17	9	8	909	195.0	-145135.0	-1529.0	-11195.0
31	17	9	8	910	196.0	-146691.0	-1520.0	-11107.0
31	17	9	8	911	197.0	-147537.0	-1499.0	-10712.0
31	17	9	8	911	198.0	-147742.0	-1470.0	-10436.0
31	17	9	8	912	199.0	-147452.0	-1431.0	-10825.0
31	17	9	8	943	200.0	-146781.0	-1406.0	-10247.0
31	17	9	8	944	201.0	-145606.0	-1369.0	-10096.0
31	17	9	8	945	202.0	-144359.0	-1341.0	-10311.0
31	17	9	8	946	203.0	-143041.0	-1319.0	-9991.0
31	17	9	8	946	204.0	-141734.0	-1312.0	-9749.0
31	17	9	8	947	205.0	-140667.0	-1296.0	-9882.0
31	17	9	8	948	206.0	-139899.0	-1288.0	-9576.0
31	17	9	8	948	207.0	-139169.0	-1291.0	-9305.0
31	17	9	8	949	208.0	-138225.0	-1301.0	-9724.0
31	17	9	8	950	209.0	-137458.0	-1334.0	-9758.0
31	17	9	8	950	210.0	-136738.0	-1336.0	-9558.0
31	17	9	8	951	211.0	-136216.0	-1334.0	-9577.0
31	17	9	8	952	212.0	-135807.0	-1346.0	-9396.0
31	17	9	8	952	213.0	-135525.0	-1347.0	-9051.0
31	17	9	8	953	214.0	-135250.0	-1355.0	-8717.0
31	17	9	8	953	216.0	-134818.0	-1359.0	-8633.0
31	17	9	8	989	217.0	-134814.0	-1346.0	-8499.0
31	17	9	8	989	218.0	-134999.0	-1343.0	-8844.0
31	17	9	9	11	219.0	-135561.0	-1311.0	-8910.0
31	17	9	9	12	220.0	-136454.0	-1262.0	-8619.0
31	17	9	9	12	221.0	-138000.0	-1232.0	-8789.0
31	17	9	9	13	222.0	-139477.0	-1229.0	-9068.0
31	17	9	9	14	223.0	-141146.0	-1215.0	-9132.0
31	17	9	9	14	224.0	-142599.0	-1202.0	-9157.0
31	17	9	9	15	225.0	-143756.0	-1176.0	-9202.0
31	17	9	9	15	226.0	-144449.0	-1154.0	-9016.0
31	17	9	9	16	227.0	-145000.0	-1131.0	-9264.0
31	17	9	9	17	228.0	-145734.0	-1096.0	-10128.0
31	17	9	9	17	229.0	-146806.0	-1070.0	-10854.0
31	17	9	9	18	230.0	-148743.0	-1056.0	-11024.0
31	17	9	9	18	231.0	-151169.0	-1036.0	-11057.0
31	17	9	9	19	232.0	-153805.0	-977.0	-11389.0
31	17	9	9	19	239.0	-163674.0	-772.0	-13164.0
31	17	9	9	20	240.0	-163528.0	-738.0	-13597.0
31	17	9	9	21	241.0	-162957.0	-697.0	-14146.0
31	17	9	9	21	242.0	-162316.0	-669.0	-14244.0
31	17	9	9	22	243.0	-161359.0	-645.0	-14471.0
31	17	9	9	22	244.0	-159757.0	-603.0	-14668.0
31	17	9	9	23	245.0	-157388.0	-580.0	-15177.0
31	17	9	9	34	246.0	-154616.0	-524.0	-15362.0
31	17	9	9	35	247.0	-151521.0	-485.0	-15141.0
31	17	9	9	36	248.0	-148085.0	-475.0	-15251.0
31	17	9	9	37	249.0	-143938.0	-452.0	-15459.0
31	17	9	9	37	250.0	-139175.0	-444.0	-16086.0
31	17	9	9	38	251.0	-133935.0	-426.0	-16488.0
31	17	9	9	39	252.0	-128429.0	-391.0	-15676.0
31	17	9	9	40	253.0	-123127.0	-371.0	-15750.0
31	17	9	9	40	254.0	-118291.0	-319.0	-16033.0
31	17	9	9	41	255.0	-113892.0	-287.0	-15823.0
31	17	9	9	42	0.0	-110543.0	-265.0	-15816.0
31	17	9	9	43	1.0	-107924.0	-236.0	-16197.0
31	17	9	9	43	2.0	-106377.0	-214.0	-16469.0
31	17	9	9	44	3.0	-105642.0	-205.0	-16794.0
31	17	9	9	44	4.0	-105372.0	-177.0	-17217.0
31	17	9	9	45	5.0	-105858.0	-152.0	-17496.0
31	17	9	9	46	6.0	-108121.0	-126.0	-17807.0
31	17	9	9	46	7.0	-108562.0	-84.0	-18271.0
31	17	9	9	47	8.0	-108801.0	-46.0	-18690.0
31	17	9	9	48	9.0	-111513.0	-27.0	-19191.0
31	17	9	9	78	10.0	-111886.0	-6.0	-19613.0
31	17	9	9	79	11.0	-113369.0	33.0	-19902.0
31	17	9	9	80	12.0	-119687.0	81.0	-19869.0
31	17	9	9	81	13.0	-128742.0	101.0	-20076.0
31	17	9	9	82	14.0	-136027.0	103.0	-20157.0
31	17	9	9	83	15.0	-139570.0	113.0	-20403.0
31	17	9	9	83	16.0	-141726.0	100.0	-20859.0
31	17	9	9	84	17.0	-145208.0	104.0	-20951.0
31	17	9	9	85	18.0	-148351.0	114.0	-21062.0
31	17	9	9	86	19.0	-150503.0	129.0	-21273.0
31	17	9	9	86	20.0	-151416.0	125.0	-21261.0
31	17	9	9	87	21.0	-148026.0	129.0	-21621.0
31	17	9	9	88	22.0	-143081.0	129.0	-22034.0
31	17	9	9	88	23.0	-138226.0	112.0	-21801.0
31	17	9	9	89	24.0	-134883.0	96.0	-21657.0
31	17	9	9	90	28.0	-143259.0	114.0	-22311.0
31	17	9	9	90	29.0	-148351.0	129.0	-22862.0
31	17	9	9	91	30.0	-153420.0	147.0	-22564.0
31	17	9	9	91	31.0	-158371.0	178.0	-22612.0
31	17	9	9	92	32.0	-162936.0	171.0	-22866.0
31	17	9	9	93	33.0	-165926.0	194.0	-22942.0
31	17	9	9	123	34.0	-167471.0	214.0	-23237.0
31	17	9	9	124	35.0	-167269.0	246.0	-23092.0
31	17	9	9	125	36.0	-165952.0	269.0	-22931.0
31	17	9	9	169	37.0	-164282.0	298.0	-23138.0
31	17	9	9	170	38.0	-161931.0	316.0	-23053.0
31	17	9	9	170	39.0	-159290.0	333.0	-23004.0
31	17	9	9	171	40.0	-157064.0	344.0	-23288.0
31	17	9	9	172	41.0	-154839.0	349.0	-23776.0
31	17	9	9	172	42.0	-152160.0	353.0	-23539.0
31	17	9	9	193	43.0	-149592.0	348.0	-23364.0
31	17	9	9	193	44.0	-147249.0	369.0	-23701.0
31	17	9	9	194	45.0	-144719.0	381.0	-23574.0
31	17	9	9	195	46.0	-142362.0	400.0	-23717.0
31	17	9	9	195	47.0	-140122.0	414.0	-24087.0
31	17	9	9	196	48.0	-138297.0	396.0	-23956.0
31	17	9	9	216	50.0	-135964.0	389.0	-24269.0
31	17	9	9	216	51.0	-135307.0	402.0	-24444.0
31	17	9	9	217	52.0	-135048.0	421.0	-23984.0
31	17	9	9	217	73.0	-180839.0	47.0	-23721.0
31	17	9	9	218	74.0	-185599.0	15.0	-24324.0
31	17	9	9	219	75.0	-190579.0	10.0	-24809.0
31	17	9	9	219	76.0	-195495.0	16.0	-25543.0
31	17	9	9	220	77.0	-200662.0	0.0	-25254.0
31	17	9	9	220	78.0	-205769.0	-3.0	-25556.0
31	17	9	9	221	79.0	-210444.0	-18.0	-25551.0
31	17	9	9	222	80.0	-214435.0	-41.0	-25084.0
31	17	9	9	222	81.0	-217896.0	-70.0	-25207.0
31	17	9	9	223	82.0	-220342.0	-82.0	-25133.0
31	17	9	9	223	83.0	-221870.0	-112.0	-25056.0
31	17	9	9	224	84.0	-222367.0	-157.0	-25539.0
31	17	9	9	224	85.0	-221890.0	-198.0	-25811.0
31	17	9	9	225	96.0	-188363.0	-539.0	-25277.0
31	17	9	9	225	97.0	-185739.0	-558.0	-25409.0
31	17	9	9	226	98.0	-183148.0	-562.0	-25568.0
31	17	9	9	227	99.0	-180649.0	-562.0	-25355.0
31	17	9	9	227	100.0	-178017.0	-568.0	-25472.0
31	17	9	9	228	101.0	-175337.0	-581.0	-25579.0
31	17	9	9	258	102.0	-172514.0	-576.0	-25651.0
31	17	9	9	259	103.0	-170267.0	-575.0	-25627.0
31	17	9	9	260	104.0	-168390.0	-578.0	-25541.0
31	17	9	9	260	105.0	-166983.0	-616.0	-25316.0
31	17	9	9	261	106.0	-165357.0	-651.0	-25448.0
31	17	9	9	261	107.0	-164183.0	-680.0	-25400.0
31	17	9	9	262	108.0	-163005.0	-695.0	-25465.0
31	17	9	9	263	109.0	-161435.0	-739.0	-25314.0
31	17	9	9	263	110.0	-159668.0	-781.0	-25172.0
31	17	9	9	264	111.0	-157664.0	-804.0	-25282.0
31	17	9	9	264	112.0	-155459.0	-846.0	-24901.0
31	17	9	9	265	113.0	-153221.0	-849.0	-25231.0
31	17	9	9	266	114.0	-151065.0	-859.0	-25367.0
31	17	9	9	266	115.0	-149234.0	-875.0	-25398.0
31	17	9	9	267	116.0	-147957.0	-890.0	-25705.0
31	17	9	9	267	118.0	-146667.0	-881.0	-25661.0
31	17	9	9	268	119.0	-146729.0	-874.0	-25439.0
31	17	9	9	268	120.0	-147709.0	-866.0	-25614.0
31	17	9	9	269	121.0	-149008.0	-859.0	-25578.0
31	17	9	9	270	122.0	-150216.0	-835.0	-25427.0
31	17	9	9	270	123.0	-151057.0	-807.0	-25907.0
31	17	9	9	303	124.0	-151611.0	-768.0	-25682.0
31	17	9	9	304	125.0	-152241.0	-733.0	-25256.0
31	17	9	9	304	126.0	-152744.0	-737.0	-25661.0
31	17	9	9	305	127.0	-152638.0	-752.0	-25604.0
31	17	9	9	306	128.0	-152366.0	-755.0	-25442.0
31	17	9	9	306	129.0	-152066.0	-757.0	-25567.0
31	17	9	9	307	130.0	-151816.0	-766.0	-25727.0
31	17	9	9	307	131.0	-151657.0	-777.0	-25911.0
31	17	9	9	308	132.0	-151479.0	-775.0	-25502.0
31	17	9	9	308	133.0	-151327.0	-751.0	-25847.0
31	17	9	9	309	134.0	-151218.0	-714.0	-26114.0
31	17	9	9	310	135.0	-151254.0	-712.0	-26118.0
31	17	9	9	310	136.0	-151556.0	-704.0	-26279.0
31	17	9	9	311	137.0	-152068.0	-704.0	-26026.0
31	17	9	9	311	138.0	-152639.0	-696.0	-25957.0
31	17	9	9	312	140.0	-154064.0	-672.0	-25582.0
31	17	9	9	313	141.0	-154874.0	-651.0	-25692.0
31	17	9	9	314	142.0	-155599.0	-615.0	-25795.0
31	17	9	9	314	143.0	-156232.0	-597.0	-25802.0
31	17	9	9	315	144.0	-157044.0	-566.0	-26108.0
31	17	9	9	315	145.0	-157899.0	-529.0	-26564.0
31	17	9	9	316	146.0	-158829.0	-500.0	-26170.0
31	17	9	9	348	147.0	-159937.0	-467.0	-26079.0
31	17	9	9	349	148.0	-161234.0	-430.0	-26579.0
31	17	9	9	393	149.0	-162803.0	-420.0	-26774.0
31	17	9	9	393	150.0	-164492.0	-424.0	-26671.0
31	17	9	9	394	151.0	-165871.0	-418.0	-26846.0
31	17	9	9	395	152.0	-166904.0	-421.0	-26994.0
31	17	9	9	395	153.0	-168260.0	-413.0	-27278.0
31	17	9	9	396	154.0	-169549.0	-394.0	-27567.0
31	17	9	9	396	155.0	-171080.0	-397.0	-26929.0
31	17	9	9	397	156.0	-173063.0	-421.0	-26902.0
31	17	9	9	398	157.0	-175299.0	-409.0	-26457.0
31	17	9	9	398	158.0	-177511.0	-427.0	-26504.0
31	17	9	9	400	159.0	-179452.0	-437.0	-26423.0
31	17	9	9	401	160.0	-180989.0	-430.0	-26363.0
31	17	9	9	409	161.0	-181841.0	-444.0	-26669.0
31	17	9	9	410	163.0	-181852.0	-496.0	-26849.0
31	17	9	9	411	164.0	-181066.0	-526.0	-27107.0
31	17	9	9	411	165.0	-180161.0	-534.0	-27167.0
31	17	9	9	412	185.0	-164992.0	-901.0	-25701.0
31	17	9	9	412	186.0	-165067.0	-910.0	-26166.0
31	17	9	9	413	187.0	-165396.0	-911.0	-25672.0
31	17	9	9	414	188.0	-165709.0	-914.0	-25555.0
31	17	9	9	414	189.0	-166025.0	-922.0	-25536.0
31	17	9	9	415	190.0	-166131.0	-951.0	-25426.0
31	17	9	9	415	191.0	-166200.0	-946.0	-25434.0
31	17	9	9	438	192.0	-166023.0	-942.0	-25627.0
31	17	9	9	439	193.0	-165184.0	-946.0	-25665.0
31	17	9	9	439	194.0	-164164.0	-946.0	-25648.0
31	17	9	9	440	195.0	-163203.0	-959.0	-25876.0
31	17	9	9	440	196.0	-162187.0	-990.0	-26184.0
31	17	9	9	441	197.0	-161290.0	-1021.0	-26224.0
31	17	9	9	442	198.0	-160691.0	-1052.0	-26446.0
31	17	9	9	442	199.0	-160295.0	-1077.0	-26236.0
31	17	9	9	443	200.0	-159894.0	-1128.0	-26318.0
31	17	9	9	444	201.0	-159835.0	-1164.0	-26424.0
31	17	9	9	444	202.0	-159822.0	-1179.0	-26094.0
31	17	9	9	445	203.0	-160021.0	-1187.0	-25669.0
31	17	9	9	445	204.0	-160492.0	-1234.0	-26399.0
31	17	9	9	446	205.0	-161381.0	-1277.0	-26884.0
31	17	9	9	447	206.0	-162290.0	-1289.0	-26691.0
31	17	9	9	447	208.0	-163801.0	-1316.0	-26381.0
31	17	9	9	448	209.0	-164106.0	-1307.0	-26139.0
31	17	9	9	449	210.0	-163579.0	-1284.0	-25815.0
31	17	9	9	449	211.0	-162391.0	-1268.0	-26048.0
31	17	9	9	450	212.0	-160832.0	-1244.0	-26009.0
31	17	9	9	450	213.0	-158767.0	-1232.0	-25202.0
31	17	9	9	483	214.0	-156729.0	-1226.0	-24168.0
31	17	9	9	483	215.0	-154764.0	-1209.0	-23391.0
31	17	9	9	484	216.0	-153073.0	-1223.0	-23074.0
31	17	9	9	485	217.0	-151939.0	-1262.0	-23293.0
31	17	9	9	485	218.0	-151091.0	-1271.0	-23393.0
31	17	9	9	486	219.0	-150465.0	-1313.0	-23165.0
31	17	9	9	487	220.0	-149904.0	-1324.0	-23279.0
31	17	9	9	487	221.0	-149641.0	-1312.0	-24094.0
31	17	9	9	488	222.0	-150140.0	-1319.0	-25062.0
31	17	9	9	488	223.0	-151559.0	-1331.0	-26839.0
31	17	9	9	489	224.0	-153977.0	-1346.0	-29394.0
31	17	9	9	490	225.0	-157331.0	-1354.0	-32565.0
31	17	9	9	491	226.0	-161814.0	-1362.0	-35033.0
31	17	9	9	492	227.0	-167359.0	-1375.0	-36263.0
31	17	9	9	493	228.0	-173734.0	-1400.0	-36991.0
31	17	9	9	494	230.0	-188776.0	-1392.0	-39899.0
31	17	9	9	494	231.0	-196973.0	-1386.0	-43081.0
31	17	9	9	495	232.0	-205091.0	-1396.0	-48072.0
31	17	9	9	495	233.0	-212640.0	-1395.0	-52046.0
31	17	9	9	496	234.0	-219746.0	-1383.0	-50150.0
31	17	9	9	496	235.0	-226507.0	-1406.0	-46521.0
31	17	9	9	528	236.0	-231996.0	-1411.0	-43772.0
31	17	9	9	528	237.0	-233844.0	-1412.0	-38219.0
31	17	9	9	529	238.0	-230052.0	-1423.0	-30987.0
31	17	9	9	530	239.0	-220732.0	-1437.0	-24329.0
31	17	9	9	530	240.0	-207506.0	-1445.0	-20241.0
31	17	9	9	531	241.0	-192638.0	-1454.0	-18986.0
31	17	9	9	531	242.0	-178416.0	-1474.0	-18795.0
31	17	9	9	532	243.0	-166999.0	-1486.0	-19152.0
31	17	9	9	533	244.0	-160042.0	-1501.0	-19816.0
31	17	9	9	573	245.0	-158841.0	-1511.0	-20591.0
31	17	9	9	574	246.0	-163269.0	-1497.0	-20026.0
31	17	9	9	575	247.0	-171041.0	-1499.0	-20932.0
31	17	9	9	576	248.0	-179169.0	-1519.0	-21524.0
31	17	9	9	576	249.0	-186402.0	-1537.0	-22184.0
31	17	9	9	577	250.0	-191542.0	-1559.0	-22219.0
31	17	9	9	577	252.0	-191504.0	-1538.0	-23311.0
31	17	9	9	578	253.0	-180873.0	-1547.0	-23980.0
31	17	9	9	579	254.0	-168494.0	-1544.0	-24202.0
31	17	9	9	618	255.0	-156911.0	-1547.0	-24762.0
31	17	9	9	619	0.0	-148646.0	-1559.0	-25175.0
31	17	9	9	619	1.0	-141955.0	-1546.0	-25660.0
31	17	9	9	620	2.0	-136165.0	-1568.0	-26084.0
31	17	9	9	621	3.0	-132946.0	-1597.0	-26714.0
31	17	9	9	621	4.0	-134700.0	-1624.0	-27453.0
31	17	9	9	622	5.0	-144127.0	-1654.0	-28030.0
31	17	9	9	623	19.0	-220382.0	-1773.0	-29275.0
31	17	9	9	623	20.0	-202003.0	-1771.0	-29229.0
31	17	9	9	624	21.0	-187610.0	-1747.0	-29574.0
31	17	9	9	624	22.0	-179328.0	-1717.0	-29618.0
31	17	9	9	625	23.0	-177049.0	-1679.0	-29174.0
31	17	9	9	626	24.0	-180351.0	-1684.0	-29373.0
31	17	9	9	626	25.0	-186565.0	-1685.0	-29733.0
31	17	9	9	627	26.0	-192348.0	-1683.0	-29445.0
31	17	9	9	627	27.0	-196333.0	-1694.0	-29597.0
31	17	9	9	628	42.0	-94275.0	-1789.0	-29566.0
31	17	9	9	629	43.0	-88314.0	-1794.0	-29589.0
31	17	9	9	629	44.0	-83241.0	-1802.0	-29702.0
31	17	9	9	630	45.0	-79566.0	-1793.0	-29267.0
31	17	9	9	630	46.0	-77254.0	-1784.0	-29688.0
31	17	9	9	631	47.0	-76651.0	-1796.0	-30266.0
31	17	9	9	663	48.0	-78227.0	-1793.0	-30632.0
31	17	9	9	663	49.0	-81816.0	-1781.0	-30516.0
31	17	9	9	664	50.0	-86468.0	-1765.0	-30398.0
31	17	9	9	665	51.0	-91021.0	-1761.0	-30332.0
31	17	9	9	666	52.0	-95281.0	-1781.0	-30011.0
31	17	9	9	666	53.0	-99609.0	-1787.0	-30322.0
31	17	9	9	667	54.0	-103319.0	-1790.0	-30283.0
31	17	9	9	667	55.0	-106489.0	-1791.0	-30469.0
31	17	9	9	668	56.0	-108903.0	-1793.0	-30864.0
31	17	9	9	669	57.0	-110264.0	-1789.0	-30756.0
31	17	9	9	669	58.0	-110925.0	-1767.0	-30803.0
31	17	9	9	670	59.0	-111499.0	-1772.0	-31669.0
31	17	9	9	671	60.0	-111751.0	-1796.0	-31759.0
31	17	9	9	672	61.0	-112088.0	-1829.0	-31202.0
31	17	9	9	673	62.0	-112525.0	-1834.0	-31320.0
31	17	9	9	674	64.0	-113537.0	-1863.0	-31384.0
31	17	9	9	674	65.0	-114557.0	-1889.0	-30328.0
31	17	9	9	675	66.0	-115736.0	-1887.0	-30606.0
31	17	9	9	676	67.0	-117669.0	-1875.0	-30725.0
31	17	9	9	676	68.0	-119807.0	-1873.0	-30902.0
31	17	9	9	677	69.0	-122139.0	-1865.0	-30987.0
31	17	9	9	708	70.0	-125099.0	-1879.0	-31020.0
31	17	9	9	709	71.0	-129216.0	-1886.0	-30432.0
31	17	9	9	709	72.0	-134608.0	-1890.0	-30572.0
31	17	9	9	710	73.0	-140695.0	-1901.0	-30659.0
31	17	9	9	711	74.0	-147548.0	-1922.0	-30934.0
31	17	9	9	711	75.0	-154676.0	-1946.0	-30781.0
31	17	9	9	712	76.0	-161556.0	-1967.0	-30896.0
31	17	9	9	712	77.0	-168269.0	-1972.0	-30941.0
31	17	9	9	713	78.0	-174266.0	-1984.0	-30918.0
31	17	9	9	752	79.0	-178883.0	-2007.0	-30856.0
31	17	9	9	754	80.0	-181715.0	-2022.0	-30734.0
31	17	9	9	754	81.0	-183339.0	-2027.0	-30571.0
31	17	9	9	755	82.0	-183894.0	-2032.0	-30187.0
31	17	9	9	756	83.0	-183494.0	-2011.0	-29922.0
31	17	9	9	756	84.0	-182190.0	-1992.0	-29962.0
31	17	9	9	757	86.0	-176955.0	-1986.0	-29458.0
31	17	9	9	757	87.0	-173636.0	-1985.0	-29304.0
31	17	9	9	758	88.0	-170384.0	-1957.0	-29130.0
31	17	9	9	759	89.0	-167182.0	-1927.0	-28607.0
31	17	9	9	759	90.0	-163966.0	-1886.0	-28616.0
31	17	9	9	760	91.0	-161210.0	-1892.0	-28780.0
31	17	9	9	761	92.0	-158818.0	-1895.0	-28361.0
31	17	9	9	761	93.0	-156684.0	-1884.0	-28311.0
31	17	9	9	762	94.0	-154901.0	-1881.0	-28688.0
31	17	9	9	762	95.0	-152991.0	-1861.0	-28333.0
31	17	9	9	763	109.0	-120720.0	-1589.0	-28263.0
31	17	9	9	764	110.0	-119400.0	-1556.0	-28459.0
31	17	9	9	764	111.0	-117887.0	-1514.0	-28361.0
31	17	9	9	765	112.0	-116251.0	-1484.0	-28737.0
31	17	9	9	765	113.0	-114819.0	-1459.0	-28927.0
31	17	9	9	798	114.0	-113551.0	-1429.0	-28971.0
31	17	9	9	799	115.0	-112275.0	-1380.0	-29552.0
31	17	9	9	801	116.0	-111049.0	-1347.0	-30164.0
31	17	9	9	801	117.0	-110293.0	-1322.0	-30554.0
31	17	9	9	802	118.0	-110193.0	-1295.0	-30921.0
31	17	9	9	803	119.0	-110632.0	-1267.0	-30967.0
31	17	9	9	803	120.0	-111771.0	-1266.0	-31056.0
31	17	9	9	804	121.0	-113837.0	-1239.0	-31269.0
31	17	9	9	805	122.0	-116821.0	-1231.0	-31745.0
31	17	9	9	805	123.0	-120674.0	-1216.0	-32016.0
31	17	9	9	806	124.0	-125202.0	-1186.0	-31709.0
31	17	9	9	807	125.0	-129858.0	-1161.0	-32086.0
31	17	9	9	807	126.0	-134392.0	-1124.0	-32892.0
31	17	9	9	808	127.0	-138834.0	-1110.0	-32724.0
31	17	9	9	809	128.0	-142884.0	-1062.0	-32753.0
31	17	9	9	809	131.0	-149289.0	-935.0	-32462.0
31	17	9	9	810	132.0	-150337.0	-921.0	-32222.0
31	17	9	9	810	133.0	-150917.0	-876.0	-32546.0
31	17	9	9	811	134.0	-150852.0	-839.0	-32791.0
31	17	9	9	812	135.0	-150148.0	-813.0	-32966.0
31	17	9	9	812	136.0	-148991.0	-756.0	-33154.0
31	17	9	9	813	137.0	-147686.0	-694.0	-33138.0
31	17	9	9	842	138.0	-146711.0	-629.0	-33261.0
31	17	9	9	843	139.0	-145842.0	-584.0	-33331.0
31	17	9	9	888	140.0	-145031.0	-569.0	-33186.0
31	17	9	9	889	141.0	-144714.0	-569.0	-33499.0
31	17	9	9	890	142.0	-144654.0	-566.0	-33578.0
31	17	9	9	890	143.0	-144917.0	-577.0	-33671.0
31	17	9	9	891	144.0	-145521.0	-567.0	-33746.0
31	17	9	9	892	145.0	-145652.0	-545.0	-33956.0
31	17	9	9	892	146.0	-143517.0	-513.0	-34106.0
31	17	9	9	893	147.0	-137682.0	-487.0	-34654.0
31	17	9	9	894	148.0	-135054.0	-473.0	-34621.0
31	17	9	9	894	149.0	-128110.0	-459.0	-34371.0
31	17	9	9	895	150.0	-123854.0	-464.0	-33433.0
31	17	9	9	895	151.0	-127039.0	-489.0	-33624.0
31	17	9	9	896	152.0	-134701.0	-476.0	-33542.0
31	17	9	9	897	154.0	-145314.0	-447.0	-33881.0
31	17	9	9	897	155.0	-145420.0	-435.0	-33630.0
31	17	9	9	898	156.0	-148134.0	-431.0	-33688.0
31	17	9	9	899	176.0	-137147.0	-164.0	-33590.0
31	17	9	9	899	177.0	-138719.0	-133.0	-33697.0
31	17	9	9	900	178.0	-140094.0	-114.0	-33620.0
31	17	9	9	901	179.0	-140829.0	-102.0	-33811.0
31	17	9	9	901	180.0	-140846.0	-61.0	-33697.0
31	17	9	9	902	181.0	-140182.0	-40.0	-33791.0
31	17	9	9	902	182.0	-139114.0	-9.0	-33648.0
31	17	9	9	933	183.0	-137836.0	41.0	-33406.0
31	17	9	9	934	184.0	-136260.0	56.0	-33499.0
31	17	9	9	935	185.0	-134519.0	75.0	-33957.0
31	17	9	9	935	186.0	-132604.0	89.0	-33859.0
31	17	9	9	936	187.0	-130499.0	67.0	-33758.0
31	17	9	9	937	188.0	-128402.0	57.0	-33709.0
31	17	9	9	937	189.0	-126861.0	64.0	-33117.0
31	17	9	9	938	190.0	-125571.0	64.0	-32492.0
31	17	9	9	939	191.0	-124813.0	68.0	-32372.0
31	17	9	9	939	192.0	-124647.0	66.0	-32631.0
31	17	9	9	940	193.0	-125246.0	69.0	-32505.0
31	17	9	9	941	194.0	-126551.0	77.0	-32682.0
31	17	9	9	941	195.0	-128401.0	68.0	-32885.0
31	17	9	9	942	196.0	-130370.0	69.0	-32826.0
31	17	9	9	943	197.0	-132556.0	71.0	-32552.0
31	17	9	9	943	199.0	-138301.0	41.0	-32918.0
31	17	9	9	944	200.0	-141652.0	55.0	-32899.0
31	17	9	9	944	201.0	-144753.0	94.0	-32970.0
31	17	9	9	945	202.0	-147809.0	101.0	-32876.0
31	17	9	9	946	203.0	-151043.0	119.0	-32237.0
31	17	9	9	946	204.0	-154453.0	135.0	-32005.0
31	17	9	9	978	205.0	-157733.0	157.0	-32147.0
31	17	9	9	978	206.0	-160716.0	178.0	-32287.0
31	17	9	9	979	207.0	-163381.0	152.0	-32003.0
31	17	9	9	980	208.0	-166002.0	128.0	-31985.0
31	17	9	9	980	209.0	-168577.0	127.0	-32142.0
31	17	9	9	981	210.0	-171187.0	123.0	-32230.0
31	17	9	9	982	211.0	-173594.0	97.0	-31966.0
31	17	9	9	983	212.0	-176269.0	111.0	-32008.0
31	17	9	9	984	213.0	-179497.0	99.0	-32186.0
31	17	9	9	985	214.0	-183189.0	74.0	-32336.0
31	17	9	9	985	215.0	-186229.0	79.0	-32016.0
31	17	9	9	986	216.0	-188689.0	76.0	-32001.0
31	17	9	9	987	217.0	-190807.0	56.0	-32197.0
31	17	9	9	987	218.0	-192991.0	53.0	-32387.0
31	17	9	9	988	219.0	-194573.0	53.0	-32287.0
31	17	9	9	989	221.0	-195285.0	-15.0	-31952.0
31	17	9	9	989	222.0	-194964.0	-17.0	-31546.0
31	17	9	9	990	223.0	-194597.0	-49.0	-31947.0
31	17	9	9	991	224.0	-194059.0	-73.0	-32349.0
31	17	9	9	991	225.0	-193149.0	-73.0	-32000.0
31	17	9	9	992	226.0	-192198.0	-86.0	-31901.0
31	17	9	10	22	227.0	-191326.0	-103.0	-31798.0
31	17	9	10	23	228.0	-190951.0	-81.0	-31255.0
31	17	9	10	23	229.0	-191074.0	-84.0	-31180.0
31	17	9	10	24	230.0	-191138.0	-111.0	-31526.0
31	17	9	10	25	231.0	-191108.0	-117.0	-31413.0
31	17	9	10	26	232.0	-190718.0	-111.0	-31390.0
31	17	9	10	26	233.0	-189697.0	-110.0	-31384.0
31	17	9	10	27	234.0	-188313.0	-124.0	-31296.0
31	17	9	10	27	235.0	-186932.0	-160.0	-31179.0
31	17	9	10	115	236.0	-185704.0	-155.0	-31487.0
31	17	9	10	116	237.0	-184492.0	-161.0	-31981.0
31	17	9	10	117	238.0	-183617.0	-152.0	-32124.0
31	17	9	10	118	239.0	-182312.0	-142.0	-31562.0
31	17	9	10	118	240.0	-180864.0	-143.0	-31187.0
31	17	9	10	119	241.0	-179481.0	-159.0	-30999.0
31	17	9	10	120	243.0	-176884.0	-161.0	-30851.0
31	17	9	10	121	244.0	-175444.0	-166.0	-31256.0
31	17	9	10	121	245.0	-174087.0	-177.0	-31377.0
31	17	9	10	122	246.0	-173061.0	-172.0	-31064.0
31	17	9	10	123	247.0	-172202.0	-156.0	-31362.0
31	17	9	10	123	248.0	-171119.0	-152.0	-31647.0
31	17	9	10	124	249.0	-169834.0	-172.0	-31516.0
31	17	9	10	124	250.0	-168205.0	-161.0	-30977.0
31	17	9	10	125	251.0	-166439.0	-163.0	-30706.0
31	17	9	10	126	252.0	-164339.0	-141.0	-30681.0
31	17	9	10	126	33.0	-181678.0	-24.0	-30185.0
31	17	9	10	127	34.0	-180549.0	-10.0	-30242.0
31	17	9	10	127	35.0	-179216.0	5.0	-30306.0
31	17	9	10	128	36.0	-178241.0	5.0	-30010.0
31	17	9	10	129	37.0	-177639.0	1.0	-29987.0
31	17	9	10	129	38.0	-177487.0	9.0	-29846.0
31	17	9	10	159	39.0	-177659.0	4.0	-29534.0
31	17	9	10	160	40.0	-177754.0	4.0	-29851.0
31	17	9	10	161	41.0	-177895.0	-1.0	-29997.0
31	17	9	10	162	42.0	-178145.0	-25.0	-30024.0
31	17	9	10	163	43.0	-178519.0	-32.0	-29912.0
31	17	9	10	164	44.0	-179221.0	-36.0	-29658.0
31	17	9	10	164	45.0	-179967.0	-62.0	-29429.0
31	17	9	10	165	46.0	-180667.0	-52.0	-29602.0
31	17	9	10	166	47.0	-181622.0	-52.0	-29688.0
31	17	9	10	166	48.0	-182514.0	-68.0	-29631.0
31	17	9	10	167	49.0	-183212.0	-67.0	-29632.0
31	17	9	10	168	50.0	-183654.0	-102.0	-29375.0
31	17	9	10	168	51.0	-183921.0	-112.0	-29249.0
31	17	9	10	169	52.0	-183648.0	-111.0	-29526.0
31	17	9	10	170	53.0	-182961.0	-134.0	-29402.0
31	17	9	10	170	55.0	-180739.0	-142.0	-29295.0
31	17	9	10	171	56.0	-179118.0	-137.0	-28829.0
31	17	9	10	171	57.0	-177779.0	-136.0	-29124.0
31	17	9	10	172	58.0	-176432.0	-136.0	-30274.0
31	17	9	10	173	59.0	-174451.0	-117.0	-29609.0
31	17	9	10	173	60.0	-172024.0	-92.0	-29339.0
31	17	9	10	203	61.0	-169789.0	-65.0	-29844.0
31	17	9	10	204	62.0	-167409.0	-36.0	-30423.0
31	17	9	10	204	63.0	-164843.0	-39.0	-30157.0
31	17	9	10	205	64.0	-162797.0	-32.0	-30306.0
31	17	9	10	206	65.0	-160952.0	-41.0	-30357.0
31	17	9	10	207	66.0	-159018.0	-53.0	-30142.0
31	17	9	10	207	67.0	-157036.0	-57.0	-30007.0
31	17	9	10	208	68.0	-155164.0	-53.0	-30164.0
31	17	9	10	209	69.0	-153102.0	-27.0	-29941.0
31	17	9	10	210	70.0	-151019.0	-59.0	-29456.0
31	17	9	10	210	71.0	-148837.0	-84.0	-29441.0
31	17	9	10	211	72.0	-146801.0	-86.0	-29451.0
31	17	9	10	212	73.0	-144717.0	-101.0	-29194.0
31	17	9	10	212	74.0	-142882.0	-112.0	-29245.0
31	17	9	10	213	75.0	-141951.0	-117.0	-29496.0
31	17	9	10	214	77.0	-142451.0	-169.0	-29969.0
31	17	9	10	214	78.0	-143834.0	-196.0	-30123.0
31	17	9	10	215	79.0	-145213.0	-204.0	-29717.0
31	17	9	10	215	80.0	-146566.0	-189.0	-29737.0
31	17	9	10	216	81.0	-148362.0	-182.0	-29749.0
31	17	9	10	217	82.0	-150394.0	-163.0	-29622.0
31	17	9	10	217	83.0	-152134.0	-149.0	-29474.0
31	17	9	10	247	84.0	-153664.0	-162.0	-29482.0
31	17	9	10	248	85.0	-155014.0	-168.0	-29219.0
31	17	9	10	249	86.0	-156130.0	-196.0	-29202.0
31	17	9	10	250	87.0	-156962.0	-199.0	-29172.0
31	17	9	10	250	88.0	-157639.0	-241.0	-28922.0
31	17	9	10	251	89.0	-158050.0	-287.0	-28839.0
31	17	9	10	252	90.0	-158494.0	-315.0	-28757.0
31	17	9	10	252	91.0	-159501.0	-346.0	-28317.0
31	17	9	10	253	92.0	-160607.0	-378.0	-27861.0
31	17	9	10	254	93.0	-161434.0	-419.0	-27755.0
31	17	9	10	255	94.0	-162098.0	-479.0	-27522.0
31	17	9	10	255	95.0	-163006.0	-515.0	-27740.0
31	17	9	10	256	96.0	-163897.0	-529.0	-27759.0
31	17	9	10	257	97.0	-164794.0	-571.0	-27652.0
31	17	9	10	257	98.0	-165651.0	-592.0	-27648.0
31	17	9	10	258	100.0	-167624.0	-607.0	-27899.0
31	17	9	10	259	101.0	-168832.0	-637.0	-27386.0
31	17	9	10	259	102.0	-170012.0	-646.0	-27474.0
31	17	9	10	260	103.0	-170964.0	-657.0	-27898.0
31	17	9	10	260	104.0	-171870.0	-651.0	-27947.0
31	17	9	10	261	105.0	-172637.0	-650.0	-26687.0
31	17	9	10	293	106.0	-173271.0	-665.0	-26891.0
31	17	9	10	318	107.0	-173384.0	-644.0	-27106.0
31	17	9	10	319	108.0	-173155.0	-662.0	-27036.0
31	17	9	10	319	109.0	-172987.0	-669.0	-27066.0
31	17	9	10	320	110.0	-173097.0	-676.0	-27231.0
31	17	9	10	321	111.0	-172991.0	-679.0	-27457.0
31	17	9	10	321	112.0	-172859.0	-688.0	-27456.0
31	17	9	10	322	113.0	-172752.0	-691.0	-27422.0
31	17	9	10	322	114.0	-172716.0	-705.0	-27531.0
31	17	9	10	323	115.0	-172934.0	-724.0	-27579.0
31	17	9	10	324	116.0	-173176.0	-732.0	-27554.0
31	17	9	10	324	117.0	-173642.0	-739.0	-27249.0
31	17	9	10	325	118.0	-174041.0	-737.0	-27571.0
31	17	9	10	325	119.0	-174159.0	-742.0	-27341.0
31	17	9	10	326	120.0	-174057.0	-738.0	-27238.0
31	17	9	10	327	122.0	-173942.0	-746.0	-26914.0
31	17	9	10	327	123.0	-173192.0	-751.0	-26707.0
31	17	9	10	328	124.0	-171966.0	-718.0	-26967.0
31	17	9	10	328	125.0	-170665.0	-707.0	-26969.0
31	17	9	10	329	126.0	-169067.0	-710.0	-26422.0
31	17	9	10	330	127.0	-167371.0	-677.0	-26157.0
31	17	9	10	330	128.0	-165743.0	-675.0	-25556.0
31	17	9	10	340	129.0	-164339.0	-648.0	-24002.0
31	17	9	10	341	130.0	-162862.0	-647.0	-23361.0
31	17	9	10	342	131.0	-161277.0	-651.0	-23556.0
31	17	9	10	343	132.0	-159946.0	-657.0	-23949.0
31	17	9	10	343	133.0	-158786.0	-668.0	-23901.0
31	17	9	10	344	134.0	-157954.0	-681.0	-23929.0
31	17	9	10	345	135.0	-157507.0	-701.0	-23886.0
31	17	9	10	345	136.0	-157416.0	-707.0	-24531.0
31	17	9	10	346	137.0	-157468.0	-729.0	-25201.0
31	17	9	10	347	138.0	-157807.0	-750.0	-27090.0
31	17	9	10	348	139.0	-158887.0	-745.0	-30247.0
31	17	9	10	348	140.0	-160706.0	-765.0	-33442.0
31	17	9	10	349	141.0	-163291.0	-786.0	-35534.0
31	17	9	10	350	142.0	-167279.0	-818.0	-35571.0
31	17	9	10	350	143.0	-172444.0	-821.0	-35310.0
31	17	9	10	351	145.0	-185561.0	-873.0	-38677.0
31	17	9	10	351	146.0	-192789.0	-888.0	-42592.0
31	17	9	10	352	147.0	-199994.0	-877.0	-48254.0
31	17	9	10	353	148.0	-207287.0	-869.0	-49637.0
31	17	9	10	353	149.0	-214584.0	-871.0	-46986.0
31	17	9	10	354	150.0	-221074.0	-871.0	-44972.0
31	17	9	10	383	151.0	-225001.0	-868.0	-41944.0
31	17	9	10	384	152.0	-224589.0	-842.0	-36255.0
31	17	9	10	385	153.0	-219062.0	-851.0	-28462.0
31	17	9	10	386	154.0	-209403.0	-868.0	-22214.0
31	17	9	10	387	155.0	-197507.0	-887.0	-19070.0
31	17	9	10	387	156.0	-184972.0	-899.0	-18466.0
31	17	9	10	388	157.0	-174117.0	-897.0	-17826.0
31	17	9	10	389	158.0	-167114.0	-915.0	-17776.0
31	17	9	10	390	159.0	-165102.0	-935.0	-18554.0
31	17	9	10	390	160.0	-168126.0	-962.0	-18622.0
31	17	9	10	391	161.0	-175399.0	-986.0	-18690.0
31	17	9	10	392	162.0	-184487.0	-995.0	-19504.0
31	17	9	10	392	163.0	-193651.0	-1015.0	-20392.0
31	17	9	10	393	164.0	-201431.0	-1047.0	-20684.0
31	17	9	10	394	165.0	-205923.0	-1064.0	-20927.0
31	17	9	10	395	167.0	-197657.0	-1098.0	-21616.0
31	17	9	10	395	168.0	-187168.0	-1104.0	-21945.0
31	17	9	10	396	169.0	-177283.0	-1109.0	-22954.0
31	17	9	10	396	170.0	-169899.0	-1125.0	-22703.0
31	17	9	10	397	171.0	-163364.0	-1129.0	-22152.0
31	17	9	10	398	172.0	-157095.0	-1136.0	-23497.0
31	17	9	10	398	173.0	-153072.0	-1162.0	-24169.0
31	17	9	10	428	174.0	-152244.0	-1168.0	-24352.0
31	17	9	10	429	175.0	-157579.0	-1182.0	-24845.0
31	17	9	10	430	176.0	-168600.0	-1224.0	-25299.0
31	17	9	10	430	177.0	-185114.0	-1251.0	-25344.0
31	17	9	10	431	178.0	-207859.0	-1292.0	-25304.0
31	17	9	10	432	179.0	-236816.0	-1322.0	-25360.0
31	17	9	10	433	180.0	-268664.0	-1349.0	-25457.0
31	17	9	10	433	181.0	-297747.0	-1359.0	-25526.0
31	17	9	10	434	182.0	-318783.0	-1382.0	-25586.0
31	17	9	10	435	183.0	-329036.0	-1399.0	-25213.0
31	17	9	10	435	184.0	-329782.0	-1426.0	-25154.0
31	17	9	10	436	185.0	-320470.0	-1452.0	-25111.0
31	17	9	10	437	186.0	-299379.0	-1469.0	-24877.0
31	17	9	10	438	187.0	-269802.0	-1469.0	-25098.0
31	17	9	10	439	188.0	-238342.0	-1480.0	-25289.0
31	17	9	10	439	190.0	-188434.0	-1514.0	-25254.0
31	17	9	10	440	191.0	-175892.0	-1512.0	-25226.0
31	17	9	10	441	192.0	-170652.0	-1501.0	-24735.0
31	17	9	10	443	193.0	-170601.0	-1496.0	-24592.0
31	17	9	10	443	194.0	-174949.0	-1500.0	-24812.0
31	17	9	10	444	195.0	-180964.0	-1481.0	-24658.0
31	17	9	10	473	196.0	-185882.0	-1466.0	-24429.0
31	17	9	10	474	197.0	-188069.0	-1452.0	-24572.0
31	17	9	10	475	198.0	-187886.0	-1422.0	-24659.0
31	17	9	10	475	199.0	-185989.0	-1418.0	-24357.0
31	17	9	10	476	200.0	-182843.0	-1451.0	-24317.0
31	17	9	10	477	201.0	-177720.0	-1461.0	-24179.0
31	17	9	10	477	202.0	-170891.0	-1464.0	-23876.0
31	17	9	10	478	203.0	-162966.0	-1505.0	-23914.0
31	17	9	10	478	204.0	-154914.0	-1506.0	-23936.0
31	17	9	10	479	205.0	-146274.0	-1529.0	-23919.0
31	17	9	10	480	206.0	-136984.0	-1536.0	-23536.0
31	17	9	10	480	207.0	-126784.0	-1531.0	-23701.0
31	17	9	10	481	208.0	-116069.0	-1559.0	-23916.0
31	17	9	10	481	209.0	-105639.0	-1566.0	-24119.0
31	17	9	10	482	210.0	-95033.0	-1586.0	-24219.0
31	17	9	10	482	212.0	-78904.0	-1632.0	-24324.0
31	17	9	10	483	213.0	-72994.0	-1664.0	-24557.0
31	17	9	10	484	214.0	-68542.0	-1687.0	-24226.0
31	17	9	10	484	215.0	-65837.0	-1692.0	-24102.0
31	17	9	10	485	216.0	-63952.0	-1719.0	-23926.0
31	17	9	10	485	217.0	-63294.0	-1747.0	-23735.0
31	17	9	10	518	218.0	-64583.0	-1746.0	-23869.0
31	17	9	10	519	219.0	-67858.0	-1758.0	-24518.0
31	17	9	10	520	220.0	-72990.0	-1797.0	-24346.0
31	17	9	10	520	221.0	-78921.0	-1844.0	-24080.0
31	17	9	10	521	222.0	-84998.0	-1892.0	-24127.0
31	17	9	10	521	223.0	-90613.0	-1934.0	-24142.0
31	17	9	10	522	224.0	-95237.0	-1971.0	-23392.0
31	17	9	10	523	225.0	-99222.0	-2006.0	-23279.0
31	17	9	10	523	226.0	-102887.0	-2032.0	-23057.0
31	17	9	10	524	227.0	-105648.0	-2071.0	-22779.0
31	17	9	10	525	228.0	-107394.0	-2086.0	-23106.0
31	17	9	10	526	229.0	-108563.0	-2107.0	-23414.0
31	17	9	10	526	230.0	-109142.0	-2161.0	-23320.0
31	17	9	10	527	231.0	-109358.0	-2189.0	-23214.0
31	17	9	10	527	232.0	-109427.0	-2243.0	-23370.0
31	17	9	10	609	235.0	-109680.0	-2357.0	-22993.0
31	17	9	10	609	236.0	-110857.0	-2376.0	-23229.0
31	17	9	10	610	237.0	-112590.0	-2381.0	-23172.0
31	17	9	10	611	238.0	-114981.0	-2371.0	-23044.0
31	17	9	10	611	239.0	-118432.0	-2370.0	-22674.0
31	17	9	10	612	240.0	-122123.0	-2383.0	-22208.0
31	17	9	10	612	241.0	-125671.0	-2376.0	-22082.0
31	17	9	10	613	242.0	-129164.0	-2392.0	-21972.0
31	17	9	10	614	243.0	-131872.0	-2405.0	-22204.0
31	17	9	10	614	244.0	-134889.0	-2444.0	-22035.0
31	17	9	10	615	245.0	-137813.0	-2439.0	-21719.0
31	17	9	10	615	246.0	-140297.0	-2444.0	-21897.0
31	17	9	10	616	247.0	-143062.0	-2465.0	-22083.0
31	17	9	10	616	248.0	-145449.0	-2449.0	-21951.0
31	17	9	10	617	249.0	-147292.0	-2447.0	-21736.0
31	17	9	10	618	250.0	-149964.0	-2457.0	-21659.0
31	17	9	10	618	24.0	-144781.0	-2426.0	-16855.0
31	17	9	10	619	25.0	-146892.0	-2411.0	-17076.0
31	17	9	10	619	26.0	-148446.0	-2387.0	-17332.0
31	17	9	10	620	27.0	-148998.0	-2347.0	-17282.0
31	17	9	10	621	28.0	-149414.0	-2307.0	-17727.0
31	17	9	10	621	29.0	-149649.0	-2292.0	-18401.0
31	17	9	10	653	30.0	-149636.0	-2267.0	-18279.0
31	17	9	10	654	31.0	-149741.0	-2221.0	-17814.0
31	17	9	10	655	32.0	-149627.0	-2213.0	-18132.0
31	17	9	10	655	33.0	-149872.0	-2218.0	-18187.0
31	17	9	10	656	34.0	-150546.0	-2207.0	-18062.0
31	17	9	10	657	35.0	-150423.0	-2204.0	-18442.0
31	17	9	10	657	36.0	-149674.0	-2204.0	-19076.0
31	17	9	10	658	37.0	-149164.0	-2176.0	-18968.0
31	17	9	10	658	38.0	-148682.0	-2174.0	-18860.0
31	17	9	10	659	39.0	-147467.0	-2142.0	-19021.0
31	17	9	10	659	40.0	-145964.0	-2106.0	-18897.0
31	17	9	10	660	41.0	-144861.0	-2076.0	-18842.0
31	17	9	10	661	42.0	-144270.0	-2074.0	-19007.0
31	17	9	10	661	43.0	-143791.0	-2044.0	-19276.0
31	17	9	10	662	44.0	-143020.0	-2021.0	-19657.0
31	17	9	10	662	46.0	-142111.0	-1962.0	-19945.0
31	17	9	10	663	47.0	-142232.0	-1932.0	-19890.0
31	17	9	10	664	48.0	-142239.0	-1861.0	-19660.0
31	17	9	10	664	49.0	-142524.0	-1791.0	-19566.0
31	17	9	10	665	50.0	-142264.0	-1737.0	-19532.0
31	17	9	10	665	51.0	-142044.0	-1682.0	-19186.0
31	17	9	10	698	52.0	-141566.0	-1650.0	-19311.0
31	17	9	10	699	53.0	-141137.0	-1603.0	-19516.0
31	17	9	10	699	54.0	-141159.0	-1571.0	-19182.0
31	17	9	10	700	55.0	-141702.0	-1534.0	-19555.0
31	17	9	10	700	56.0	-142912.0	-1509.0	-19508.0
31	17	9	10	701	57.0	-144277.0	-1466.0	-19574.0
31	17	9	10	702	58.0	-146492.0	-1452.0	-19352.0
31	17	9	10	702	59.0	-150209.0	-1442.0	-19091.0
31	17	9	10	703	60.0	-152978.0	-1396.0	-19364.0
31	17	9	10	703	61.0	-155548.0	-1404.0	-19487.0
31	17	9	10	704	62.0	-153291.0	-1376.0	-19222.0
31	17	9	10	705	63.0	-152977.0	-1373.0	-19277.0
31	17	9	10	705	64.0	-150706.0	-1366.0	-19696.0
31	17	9	10	706	65.0	-148916.0	-1342.0	-19290.0
31	17	9	10	706	66.0	-157099.0	-1324.0	-19112.0
31	17	9	10	707	68.0	-185606.0	-1298.0	-18809.0
31	17	9	10	708	69.0	-194040.0	-1251.0	-18543.0
31	17	9	10	708	70.0	-193835.0	-1220.0	-18939.0
31	17	9	10	716	71.0	-195187.0	-1183.0	-19327.0
31	17	9	10	717	72.0	-199310.0	-1137.0	-18156.0
31	17	9	10	718	73.0	-201269.0	-1098.0	-17857.0
31	17	9	10	718	74.0	-200821.0	-1039.0	-18389.0
31	17	9	10	743	75.0	-197033.0	-996.0	-18321.0
31	17	9	10	764	76.0	-189114.0	-934.0	-18160.0
31	17	9	10	764	77.0	-180611.0	-889.0	-18725.0
31	17	9	10	765	78.0	-173723.0	-892.0	-18462.0
31	17	9	10	766	79.0	-168314.0	-888.0	-18190.0
31	17	9	10	766	80.0	-164799.0	-873.0	-18497.0
31	17	9	10	767	81.0	-161734.0	-864.0	-18853.0
31	17	9	10	767	82.0	-159229.0	-850.0	-18407.0
31	17	9	10	768	83.0	-157881.0	-833.0	-17869.0
31	17	9	10	768	84.0	-157034.0	-833.0	-17612.0
31	17	9	10	769	85.0	-156016.0	-837.0	-17637.0
31	17	9	10	770	86.0	-155007.0	-857.0	-18052.0
31	17	9	10	770	87.0	-153571.0	-868.0	-17829.0
31	17	9	10	771	88.0	-152772.0	-826.0	-17724.0
31	17	9	10	771	89.0	-153454.0	-827.0	-17642.0
31	17	9	10	772	91.0	-156152.0	-847.0	-17675.0
31	17	9	10	772	92.0	-158123.0	-862.0	-17844.0
31	17	9	10	773	93.0	-159649.0	-847.0	-17537.0
31	17	9	10	773	94.0	-161006.0	-847.0	-17434.0
31	17	9	10	774	95.0	-161741.0	-846.0	-17526.0
31	17	9	10	774	96.0	-162364.0	-841.0	-17385.0
31	17	9	10	787	97.0	-162421.0	-799.0	-17318.0
31	17	9	10	788	98.0	-161434.0	-803.0	-17184.0
31	17	9	10	789	99.0	-159546.0	-803.0	-16814.0
31	17	9	10	833	100.0	-157689.0	-825.0	-16421.0
31	17	9	10	834	101.0	-155253.0	-834.0	-16774.0
31	17	9	10	835	102.0	-151827.0	-859.0	-16909.0
31	17	9	10	835	103.0	-148621.0	-885.0	-16906.0
31	17	9	10	836	104.0	-146143.0	-890.0	-16510.0
31	17	9	10	837	105.0	-144813.0	-877.0	-16791.0
31	17	9	10	837	106.0	-143868.0	-899.0	-16761.0
31	17	9	10	838	107.0	-144329.0	-920.0	-16232.0
31	17	9	10	838	108.0	-145408.0	-924.0	-16265.0
31	17	9	10	839	109.0	-147331.0	-959.0	-16293.0
31	17	9	10	839	110.0	-150339.0	-986.0	-16143.0
31	17	9	10	840	111.0	-154434.0	-1006.0	-16112.0
31	17	9	10	841	113.0	-165111.0	-1022.0	-16532.0
31	17	9	10	841	114.0	-170030.0	-1040.0	-16478.0
31	17	9	10	842	115.0	-175421.0	-1051.0	-16503.0
31	17	9	10	843	116.0	-180706.0	-1058.0	-16029.0
31	17	9	10	843	136.0	-201285.0	-1338.0	-14239.0
31	17	9	10	844	137.0	-199678.0	-1345.0	-14386.0
31	17	9	10	844	138.0	-198939.0	-1311.0	-14017.0
31	17	9	10	845	139.0	-198177.0	-1303.0	-14018.0
31	17	9	10	846	140.0	-197591.0	-1267.0	-14682.0
31	17	9	10	847	141.0	-197407.0	-1218.0	-14353.0
31	17	9	10	879	142.0	-197316.0	-1192.0	-14212.0
31	17	9	10	879	143.0	-197836.0	-1156.0	-14368.0
31	17	9	10	880	144.0	-198839.0	-1121.0	-14216.0
31	17	9	10	881	145.0	-200197.0	-1108.0	-13442.0
31	17	9	10	881	146.0	-199886.0	-1076.0	-13285.0
31	17	9	10	882	147.0	-202502.0	-1077.0	-13602.0
31	17	9	10	882	148.0	-203707.0	-1090.0	-13492.0
31	17	9	10	883	149.0	-204889.0	-1105.0	-13698.0
31	17	9	10	884	150.0	-205772.0	-1117.0	-13776.0
31	17	9	10	884	151.0	-206252.0	-1125.0	-13960.0
31	17	9	10	885	152.0	-205968.0	-1156.0	-14236.0
31	17	9	10	886	153.0	-205369.0	-1170.0	-13557.0
31	17	9	10	886	154.0	-203977.0	-1174.0	-12657.0
31	17	9	10	887	155.0	-202714.0	-1157.0	-13530.0
31	17	9	10	887	156.0	-201682.0	-1164.0	-13608.0
31	17	9	10	888	158.0	-198971.0	-1164.0	-13457.0
31	17	9	10	888	159.0	-197360.0	-1162.0	-13536.0
31	17	9	10	889	160.0	-197363.0	-1167.0	-13302.0
31	17	9	10	890	161.0	-196590.0	-1141.0	-13266.0
31	17	9	10	890	162.0	-196484.0	-1121.0	-13238.0
31	17	9	10	891	163.0	-195375.0	-1100.0	-13063.0
31	17	9	10	891	164.0	-194964.0	-1071.0	-13010.0
31	17	9	10	923	165.0	-193972.0	-1031.0	-13290.0
31	17	9	10	924	166.0	-192547.0	-992.0	-13214.0
31	17	9	10	924	167.0	-190933.0	-992.0	-12899.0
31	17	9	10	925	168.0	-189425.0	-1002.0	-12901.0
31	17	9	10	926	169.0	-188262.0	-987.0	-12841.0
31	17	9	10	926	170.0	-187527.0	-954.0	-12700.0
31	17	9	10	927	171.0	-187036.0	-941.0	-12723.0
31	17	9	10	927	172.0	-186391.0	-934.0	-12697.0
31	17	9	10	928	173.0	-186296.0	-919.0	-12839.0
31	17	9	10	928	174.0	-186357.0	-914.0	-12576.0
31	17	9	10	929	175.0	-186793.0	-903.0	-12467.0
31	17	9	10	930	176.0	-187205.0	-891.0	-12835.0
31	17	9	10	930	177.0	-187731.0	-868.0	-12651.0
31	17	9	10	931	178.0	-188136.0	-834.0	-12496.0
31	17	9	10	931	179.0	-188674.0	-834.0	-12764.0
31	17	9	10	932	181.0	-188906.0	-827.0	-12752.0
31	17	9	10	933	182.0	-189312.0	-814.0	-12850.0
31	17	9	10	933	183.0	-189757.0	-801.0	-12972.0
31	17	9	10	934	184.0	-190339.0	-788.0	-12822.0
31	17	9	10	934	185.0	-190827.0	-799.0	-12698.0
31	17	9	10	935	186.0	-191265.0	-774.0	-12641.0
31	17	9	10	968	187.0	-191584.0	-749.0	-12559.0
31	17	9	10	969	188.0	-191171.0	-727.0	-12279.0
31	17	9	10	970	189.0	-190482.0	-736.0	-12486.0
31	17	9	10	970	190.0	-189681.0	-743.0	-12808.0
31	17	9	10	971	191.0	-188965.0	-721.0	-12935.0
31	17	9	10	972	192.0	-188478.0	-724.0	-13117.0
31	17	9	10	972	193.0	-188524.0	-760.0	-13242.0
31	17	9	10	973	194.0	-189141.0	-777.0	-13257.0
31	17	9	10	974	195.0	-190215.0	-757.0	-12702.0
31	17	9	10	974	196.0	-191309.0	-779.0	-12404.0
31	17	9	10	975	197.0	-192647.0	-774.0	-12442.0
31	17	9	10	975	198.0	-194387.0	-768.0	-12364.0
31	17	9	10	976	199.0	-196471.0	-761.0	-12339.0
31	17	9	10	977	200.0	-198106.0	-758.0	-12774.0
31	17	9	10	977	201.0	-199739.0	-767.0	-12393.0
31	17	9	10	978	203.0	-203265.0	-749.0	-12750.0
31	17	9	10	978	204.0	-204888.0	-735.0	-12561.0
31	17	9	10	979	205.0	-206422.0	-711.0	-12389.0
31	17	9	10	980	206.0	-207416.0	-679.0	-12476.0
31	17	9	10	980	207.0	-207986.0	-670.0	-12367.0
31	17	9	10	981	208.0	-208576.0	-638.0	-12363.0
31	17	9	10	981	209.0	-208578.0	-627.0	-12461.0
31	17	9	11	13	210.0	-207914.0	-612.0	-12615.0
31	17	9	11	14	211.0	-207174.0	-608.0	-12473.0
31	17	9	11	14	212.0	-206667.0	-624.0	-12284.0
31	17	9	11	15	213.0	-206390.0	-619.0	-12460.0
31	17	9	11	16	214.0	-206194.0	-632.0	-12394.0
31	17	9	11	16	215.0	-205718.0	-649.0	-12288.0
31	17	9	11	17	216.0	-205090.0	-642.0	-12204.0
31	17	9	11	18	217.0	-204312.0	-632.0	-11932.0
31	17	9	11	18	218.0	-203711.0	-646.0	-11731.0
31	17	9	11	19	219.0	-203035.0	-651.0	-11811.0
31	17	9	11	19	220.0	-202052.0	-679.0	-11968.0
31	17	9	11	20	221.0	-200848.0	-703.0	-12221.0
31	17	9	11	21	222.0	-199433.0	-701.0	-12196.0
31	17	9	11	21	223.0	-198130.0	-714.0	-11946.0
31	17	9	11	22	224.0	-197221.0	-723.0	-12342.0
31	17	9	11	23	226.0	-196546.0	-742.0	-11803.0
31	17	9	11	23	227.0	-196336.0	-734.0	-12440.0
31	17	9	11	24	228.0	-195827.0	-719.0	-12925.0
31	17	9	11	24	229.0	-195288.0	-705.0	-11864.0
31	17	9	11	25	230.0	-194712.0	-704.0	-11984.0
31	17	9	11	26	231.0	-193876.0	-711.0	-12396.0
31	17	9	11	58	232.0	-192549.0	-707.0	-12398.0
31	17	9	11	59	233.0	-190876.0	-717.0	-11901.0
31	17	9	11	60	234.0	-189262.0	-722.0	-11781.0
31	17	9	11	60	235.0	-187471.0	-756.0	-12027.0
31	17	9	11	61	236.0	-185888.0	-780.0	-11736.0
31	17	9	11	62	237.0	-184710.0	-807.0	-11352.0
31	17	9	11	62	238.0	-183406.0	-834.0	-11667.0
31	17	9	11	63	239.0	-182137.0	-866.0	-11722.0
31	17	9	11	64	240.0	-181176.0	-877.0	-11961.0
31	17	9	11	64	241.0	-180782.0	-884.0	-12473.0
31	17	9	11	65	242.0	-180942.0	-905.0	-12499.0
31	17	9	11	66	243.0	-181601.0	-919.0	-12711.0
31	17	9	11	66	244.0	-182431.0	-908.0	-12932.0
31	17	9	11	67	245.0	-183341.0	-901.0	-12834.0
31	17	9	11	67	246.0	-184275.0	-915.0	-12637.0
31	17	9	11	68	248.0	-185986.0	-921.0	-12777.0
31	17	9	11	69	249.0	-186457.0	-912.0	-12801.0
31	17	9	11	70	250.0	-186786.0	-898.0	-12466.0
31	17	9	11	70	251.0	-186861.0	-899.0	-11986.0
31	17	9	11	71	252.0	-186981.0	-914.0	-11839.0
31	17	9	11	72	253.0	-187050.0	-921.0	-12232.0
31	17	9	11	103	254.0	-187161.0	-907.0	-12195.0
31	17	9	11	104	255.0	-187538.0	-891.0	-12394.0
31	17	9	11	104	0.0	-187956.0	-910.0	-12667.0
31	17	9	11	105	1.0	-188282.0	-939.0	-12399.0
31	17	9	11	106	2.0	-188941.0	-968.0	-12091.0
31	17	9	11	106	3.0	-189751.0	-998.0	-12302.0
31	17	9	11	107	4.0	-190643.0	-1015.0	-12456.0
31	17	9	11	108	5.0	-191547.0	-1016.0	-11849.0
31	17	9	11	108	6.0	-192421.0	-1032.0	-12167.0
31	17	9	11	109	7.0	-192979.0	-1041.0	-12394.0
31	17	9	11	110	8.0	-193389.0	-1067.0	-11720.0
31	17	9	11	111	9.0	-193481.0	-1074.0	-11371.0
31	17	9	11	111	10.0	-193056.0	-1085.0	-11267.0
31	17	9	11	112	11.0	-192721.0	-1114.0	-10851.0
31	17	9	11	112	12.0	-192666.0	-1148.0	-10750.0
31	17	9	11	113	14.0	-193441.0	-1190.0	-10970.0
31	17	9	11	114	15.0	-193812.0	-1194.0	-10624.0
31	17	9	11	114	16.0	-194245.0	-1189.0	-10687.0
31	17	9	11	115	17.0	-194781.0	-1177.0	-11312.0
31	17	9	11	116	18.0	-195218.0	-1162.0	-10363.0
31	17	9	11	116	19.0	-195927.0	-1153.0	-9616.0
31	17	9	11	117	20.0	-196684.0	-1149.0	-9769.0
31	17	9	11	148	21.0	-197341.0	-1156.0	-9704.0
31	17	9	11	161	22.0	-197647.0	-1154.0	-9771.0
31	17	9	11	162	23.0	-197936.0	-1129.0	-9819.0
31	17	9	11	162	24.0	-198111.0	-1116.0	-9696.0
31	17	9	11	163	25.0	-198287.0	-1132.0	-9702.0
31	17	9	11	163	26.0	-198574.0	-1125.0	-10422.0
31	17	9	11	164	27.0	-199158.0	-1121.0	-10628.0
31	17	9	11	164	28.0	-199431.0	-1111.0	-10383.0
31	17	9	11	165	29.0	-199247.0	-1127.0	-10190.0
31	17	9	11	166	30.0	-198392.0	-1127.0	-10061.0
31	17	9	11	166	31.0	-197361.0	-1131.0	-9994.0
31	17	9	11	167	32.0	-196085.0	-1135.0	-9886.0
31	17	9	11	167	33.0	-194413.0	-1127.0	-9708.0
31	17	9	11	168	34.0	-191626.0	-1129.0	-9679.0
31	17	9	11	168	35.0	-188260.0	-1127.0	-9841.0
31	17	9	11	169	37.0	-181292.0	-1144.0	-9761.0
31	17	9	11	169	38.0	-177969.0	-1144.0	-9651.0
31	17	9	11	170	39.0	-174991.0	-1141.0	-9561.0
31	17	9	11	171	40.0	-172194.0	-1124.0	-9094.0
31	17	9	11	171	41.0	-169926.0	-1115.0	-9097.0
31	17	9	11	172	42.0	-167862.0	-1113.0	-9336.0
31	17	9	11	193	43.0	-166692.0	-1110.0	-9121.0
31	17	9	11	194	44.0	-165989.0	-1110.0	-9021.0
31	17	9	11	195	45.0	-165771.0	-1132.0	-9050.0
31	17	9	11	196	46.0	-166017.0	-1144.0	-8881.0
31	17	9	11	196	47.0	-166682.0	-1166.0	-8838.0
31	17	9	11	197	48.0	-167343.0	-1185.0	-9364.0
31	17	9	11	198	49.0	-167892.0	-1207.0	-9281.0
31	17	9	11	199	50.0	-167792.0	-1251.0	-9177.0
31	17	9	11	199	51.0	-168040.0	-1242.0	-8864.0
31	17	9	11	200	52.0	-168479.0	-1224.0	-8748.0
31	17	9	11	201	53.0	-168426.0	-1250.0	-8119.0
31	17	9	11	202	54.0	-168399.0	-1286.0	-6595.0
31	17	9	11	202	55.0	-168142.0	-1306.0	-5294.0
31	17	9	11	203	56.0	-167454.0	-1334.0	-5146.0
31	17	9	11	204	57.0	-167117.0	-1337.0	-5079.0
31	17	9	11	204	59.0	-168379.0	-1347.0	-5616.0
31	17	9	11	205	60.0	-169132.0	-1345.0	-5679.0
31	17	9	11	206	61.0	-170163.0	-1344.0	-5827.0
31	17	9	11	206	62.0	-171515.0	-1352.0	-6882.0
31	17	9	11	207	63.0	-173346.0	-1346.0	-8336.0
31	17	9	11	285	64.0	-175477.0	-1330.0	-11171.0
31	17	9	11	285	65.0	-177816.0	-1326.0	-14703.0
31	17	9	11	286	66.0	-179708.0	-1331.0	-18128.0
31	17	9	11	287	67.0	-182126.0	-1327.0	-20165.0
31	17	9	11	288	68.0	-185409.0	-1334.0	-20776.0
31	17	9	11	288	69.0	-188877.0	-1354.0	-21982.0
31	17	9	11	289	70.0	-192225.0	-1387.0	-24123.0
31	17	9	11	290	71.0	-194729.0	-1411.0	-28400.0
31	17	9	11	290	72.0	-196959.0	-1443.0	-32612.0
31	17	9	11	291	73.0	-198744.0	-1460.0	-36192.0
31	17	9	11	292	74.0	-199637.0	-1466.0	-35521.0
31	17	9	11	292	75.0	-199592.0	-1486.0	-31477.0
31	17	9	11	293	76.0	-198330.0	-1512.0	-27034.0
31	17	9	11	294	77.0	-194487.0	-1522.0	-20926.0
31	17	9	11	294	78.0	-187276.0	-1534.0	-12467.0
31	17	9	11	295	82.0	-145173.0	-1538.0	1897.0
31	17	9	11	295	105.0	-185981.0	-1651.0	-1744.0
31	17	9	11	296	106.0	-225724.0	-1650.0	-1766.0
31	17	9	11	297	107.0	-261619.0	-1626.0	-1852.0
31	17	9	11	297	108.0	-290662.0	-1619.0	-1474.0
31	17	9	11	298	109.0	-313384.0	-1577.0	-1036.0
31	17	9	11	298	110.0	-326961.0	-1551.0	-849.0
31	17	9	11	328	111.0	-325454.0	-1552.0	-811.0
31	17	9	11	329	112.0	-308822.0	-1549.0	-792.0
31	17	9	11	330	113.0	-282410.0	-1571.0	-688.0
31	17	9	11	331	114.0	-252872.0	-1587.0	-463.0
31	17	9	11	331	115.0	-227589.0	-1596.0	-566.0
31	17	9	11	332	116.0	-209573.0	-1620.0	-417.0
31	17	9	11	333	117.0	-197700.0	-1636.0	-298.0
31	17	9	11	333	118.0	-190496.0	-1647.0	-458.0
31	17	9	11	334	119.0	-188038.0	-1674.0	-489.0
31	17	9	11	335	120.0	-189614.0	-1711.0	-391.0
31	17	9	11	335	121.0	-193096.0	-1739.0	-178.0
31	17	9	11	336	122.0	-195344.0	-1756.0	161.0
31	17	9	11	337	123.0	-194360.0	-1754.0	304.0
31	17	9	11	337	124.0	-189506.0	-1754.0	123.0
31	17	9	11	338	125.0	-180996.0	-1766.0	11.0
31	17	9	11	339	127.0	-156132.0	-1788.0	244.0
31	17	9	11	339	128.0	-139729.0	-1801.0	205.0
31	17	9	11	340	129.0	-122447.0	-1802.0	211.0
31	17	9	11	340	130.0	-105452.0	-1820.0	241.0
31	17	9	11	341	131.0	-91047.0	-1818.0	656.0
31	17	9	11	342	132.0	-79070.0	-1830.0	931.0
31	17	9	11	373	133.0	-68489.0	-1837.0	956.0
31	17	9	11	374	134.0	-59141.0	-1837.0	572.0
31	17	9	11	374	135.0	-51179.0	-1853.0	551.0
31	17	9	11	375	136.0	-44651.0	-1879.0	1307.0
31	17	9	11	376	137.0	-40431.0	-1911.0	682.0
31	17	9	11	376	138.0	-38026.0	-1953.0	1309.0
31	17	9	11	377	139.0	-37647.0	-1982.0	1327.0
31	17	9	11	378	140.0	-39676.0	-2024.0	1097.0
31	17	9	11	379	141.0	-42772.0	-2037.0	1454.0
31	17	9	11	379	142.0	-46882.0	-2056.0	1669.0
31	17	9	11	380	143.0	-52139.0	-2080.0	1451.0
31	17	9	11	381	144.0	-57041.0	-2107.0	1692.0
31	17	9	11	381	145.0	-61839.0	-2129.0	2134.0
31	17	9	11	382	146.0	-67734.0	-2151.0	2231.0
31	17	9	11	383	147.0	-75124.0	-2161.0	2273.0
31	17	9	11	383	149.0	-89080.0	-2213.0	2550.0
31	17	9	11	384	150.0	-94022.0	-2250.0	2338.0
31	17	9	11	385	151.0	-98091.0	-2256.0	2714.0
31	17	9	11	385	152.0	-100517.0	-2229.0	2914.0
31	17	9	11	386	153.0	-101677.0	-2245.0	2579.0
31	17	9	11	386	154.0	-101408.0	-2256.0	2658.0
31	17	9	11	387	155.0	-99656.0	-2270.0	2528.0
31	17	9	11	418	156.0	-96671.0	-2253.0	2869.0
31	17	9	11	419	157.0	-92752.0	-2249.0	2997.0
31	17	9	11	420	158.0	-88308.0	-2263.0	3261.0
31	17	9	11	420	159.0	-83698.0	-2288.0	3136.0
31	17	9	11	421	160.0	-78826.0	-2321.0	3162.0
31	17	9	11	422	161.0	-74052.0	-2349.0	3291.0
31	17	9	11	422	162.0	-70099.0	-2367.0	3091.0
31	17	9	11	423	163.0	-67271.0	-2371.0	3235.0
31	17	9	11	424	164.0	-65540.0	-2417.0	3520.0
31	17	9	11	424	165.0	-65004.0	-2449.0	3338.0
31	17	9	11	425	166.0	-65984.0	-2455.0	3906.0
31	17	9	11	426	167.0	-67876.0	-2467.0	3979.0
31	17	9	11	426	168.0	-70452.0	-2492.0	4063.0
31	17	9	11	427	169.0	-73752.0	-2529.0	3932.0
31	17	9	11	428	170.0	-77311.0	-2573.0	4230.0
31	17	9	11	428	172.0	-84017.0	-2601.0	4284.0
31	17	9	11	429	173.0	-86996.0	-2602.0	4838.0
31	17	9	11	430	174.0	-89904.0	-2595.0	4770.0
31	17	9	11	430	175.0	-92115.0	-2575.0	4766.0
31	17	9	11	431	176.0	-94109.0	-2560.0	5239.0
31	17	9	11	431	177.0	-95607.0	-2552.0	5647.0
31	17	9	11	463	178.0	-97046.0	-2545.0	5587.0
31	17	9	11	464	179.0	-98299.0	-2512.0	5774.0
31	17	9	11	464	180.0	-99472.0	-2497.0	6455.0
31	17	9	11	465	181.0	-100507.0	-2518.0	6431.0
31	17	9	11	466	182.0	-101901.0	-2522.0	6587.0
31	17	9	11	466	183.0	-103060.0	-2526.0	6936.0
31	17	9	11	467	184.0	-104821.0	-2501.0	7188.0
31	17	9	11	468	185.0	-106777.0	-2489.0	7171.0
31	17	9	11	469	186.0	-108773.0	-2492.0	7164.0
31	17	9	11	470	187.0	-110749.0	-2503.0	7301.0
31	17	9	11	470	188.0	-112801.0	-2509.0	7631.0
31	17	9	11	471	189.0	-114362.0	-2529.0	7728.0
31	17	9	11	472	190.0	-116201.0	-2510.0	8141.0
31	17	9	11	472	191.0	-118277.0	-2499.0	8424.0
31	17	9	11	473	192.0	-120542.0	-2483.0	8090.0
31	17	9	11	474	194.0	-127383.0	-2475.0	8038.0
31	17	9	11	474	195.0	-130909.0	-2483.0	8616.0
31	17	9	11	475	196.0	-134362.0	-2447.0	8623.0
31	17	9	11	475	197.0	-137206.0	-2431.0	8536.0
31	17	9	11	476	198.0	-139159.0	-2420.0	9040.0
31	17	9	11	476	199.0	-140419.0	-2387.0	8788.0
31	17	9	11	477	200.0	-141328.0	-2352.0	9263.0
31	17	9	11	507	201.0	-141681.0	-2312.0	9431.0
31	17	9	11	553	202.0	-141322.0	-2261.0	9089.0
31	17	9	11	554	203.0	-140464.0	-2239.0	9016.0
31	17	9	11	555	204.0	-139466.0	-2213.0	9113.0
31	17	9	11	555	205.0	-138262.0	-2180.0	9418.0
31	17	9	11	556	206.0	-136342.0	-2154.0	8938.0
31	17	9	11	557	207.0	-134152.0	-2118.0	8515.0
31	17	9	11	557	208.0	-131778.0	-2057.0	8869.0
31	17	9	11	558	209.0	-129157.0	-2042.0	8583.0
31	17	9	11	559	210.0	-126292.0	-2019.0	8602.0
31	17	9	11	559	211.0	-123410.0	-1977.0	8573.0
31	17	9	11	560	212.0	-120235.0	-1957.0	8378.0
31	17	9	11	560	213.0	-117032.0	-1921.0	7779.0
31	17	9	11	561	214.0	-113849.0	-1884.0	7547.0
31	17	9	11	562	215.0	-110986.0	-1870.0	7162.0
31	17	9	11	562	217.0	-108966.0	-1779.0	6267.0
31	17	9	11	563	218.0	-108908.0	-1747.0	6238.0
31	17	9	11	564	239.0	-125802.0	-851.0	3986.0
31	17	9	11	564	240.0	-126963.0	-817.0	3871.0
31	17	9	11	565	241.0	-128188.0	-759.0	3649.0
31	17	9	11	566	242.0	-130252.0	-706.0	3829.0
31	17	9	11	566	243.0	-131717.0	-653.0	3928.0
31	17	9	11	567	244.0	-132661.0	-615.0	3534.0
31	17	9	11	568	245.0	-137076.0	-571.0	3453.0
31	17	9	11	613	246.0	-134851.0	-504.0	3511.0
31	17	9	11	628	247.0	-132895.0	-445.0	3544.0
31	17	9	11	629	248.0	-134759.0	-420.0	3339.0
31	17	9	11	630	249.0	-141470.0	-389.0	3147.0
31	17	9	11	631	250.0	-147268.0	-341.0	3114.0
31	17	9	11	632	251.0	-149617.0	-297.0	3168.0
31	17	9	11	633	252.0	-150027.0	-276.0	3245.0
31	17	9	11	633	253.0	-149840.0	-244.0	3084.0
31	17	9	11	634	254.0	-147926.0	-190.0	3175.0
31	17	9	11	635	255.0	-144290.0	-163.0	3303.0
31	17	9	11	636	0.0	-139871.0	-161.0	3052.0
31	17	9	11	636	1.0	-133108.0	-135.0	3132.0
31	17	9	11	637	2.0	-124785.0	-117.0	2875.0
31	17	9	11	638	3.0	-117281.0	-102.0	2890.0
31	17	9	11	638	4.0	-111529.0	-82.0	2853.0
31	17	9	11	639	13.0	-110829.0	24.0	2383.0
31	17	9	11	639	21.0	-110902.0	61.0	2319.0
31	17	9	11	640	22.0	-112831.0	63.0	2409.0
31	17	9	11	641	23.0	-114845.0	123.0	2351.0
31	17	9	11	642	24.0	-117426.0	158.0	2156.0
31	17	9	11	642	25.0	-120567.0	176.0	2279.0
31	17	9	11	643	26.0	-124217.0	187.0	2185.0
31	17	9	11	644	27.0	-127855.0	192.0	2106.0
31	17	9	11	645	28.0	-130534.0	182.0	1937.0
31	17	9	11	657	29.0	-132324.0	191.0	1774.0
31	17	9	11	658	30.0	-133721.0	194.0	1643.0
31	17	9	11	659	31.0	-134899.0	188.0	1727.0
31	17	9	11	660	32.0	-136026.0	183.0	1764.0
31	17	9	11	661	33.0	-137119.0	173.0	1983.0
31	17	9	11	661	34.0	-138230.0	159.0	2046.0
31	17	9	11	662	35.0	-139492.0	169.0	1776.0
31	17	9	11	663	36.0	-140875.0	166.0	1969.0
31	17	9	11	663	37.0	-142894.0	176.0	1991.0
31	17	9	11	675	38.0	-145407.0	174.0	1863.0
31	17	9	11	676	39.0	-148229.0	201.0	1569.0
31	17	9	11	677	40.0	-151454.0	210.0	1434.0
31	17	9	11	678	41.0	-155166.0	204.0	1319.0
31	17	9	11	678	42.0	-159947.0	196.0	1144.0
31	17	9	11	679	43.0	-165381.0	195.0	1294.0
31	17	9	11	680	44.0	-170580.0	209.0	1976.0
31	17	9	11	700	45.0	-175632.0	238.0	1682.0
31	17	9	11	701	46.0	-180541.0	256.0	1618.0
31	17	9	11	701	47.0	-185227.0	264.0	2153.0
31	17	9	11	702	48.0	-189371.0	273.0	2077.0
31	17	9	11	702	49.0	-193016.0	285.0	1609.0
31	17	9	11	703	50.0	-196603.0	278.0	1702.0
31	17	9	11	704	51.0	-199783.0	264.0	1815.0
31	17	9	11	704	52.0	-202113.0	281.0	1623.0
31	17	9	11	705	53.0	-203687.0	311.0	1937.0
31	17	9	11	706	54.0	-204311.0	326.0	1988.0
31	17	9	11	706	55.0	-203599.0	339.0	1616.0
31	17	9	11	716	56.0	-201602.0	353.0	1473.0
31	17	9	11	716	57.0	-198891.0	363.0	1878.0
31	17	9	11	717	58.0	-195374.0	348.0	2052.0
31	17	9	11	718	59.0	-191312.0	334.0	1978.0
31	17	9	11	718	60.0	-186818.0	334.0	2003.0
31	17	9	11	719	61.0	-182162.0	338.0	2073.0
31	17	9	11	720	62.0	-177522.0	340.0	2101.0
31	17	9	11	720	63.0	-172262.0	314.0	1743.0
31	17	9	11	721	64.0	-166914.0	277.0	1652.0
31	17	9	11	721	65.0	-161559.0	250.0	1615.0
31	17	9	11	722	66.0	-156540.0	233.0	1501.0
31	17	9	11	732	67.0	-151939.0	206.0	1294.0
31	17	9	11	733	68.0	-147695.0	198.0	1473.0
31	17	9	11	733	69.0	-144129.0	181.0	1511.0
31	17	9	11	734	70.0	-141204.0	156.0	1552.0
31	17	9	11	735	71.0	-138688.0	108.0	1706.0
31	17	9	11	735	72.0	-136524.0	64.0	1817.0
31	17	9	11	736	73.0	-134399.0	46.0	1348.0
31	17	9	11	736	74.0	-131862.0	24.0	1325.0
31	17	9	11	763	75.0	-129238.0	7.0	1509.0
31	17	9	11	764	76.0	-127437.0	-11.0	1691.0
31	17	9	11	764	77.0	-126306.0	-27.0	1556.0
31	17	9	11	765	78.0	-125524.0	-66.0	1579.0
31	17	9	11	766	79.0	-124746.0	-102.0	1450.0
31	17	9	11	766	80.0	-123871.0	-120.0	713.0
31	17	9	11	767	81.0	-123231.0	-131.0	608.0
31	17	9	11	767	82.0	-122922.0	-148.0	1117.0
31	17	9	11	768	83.0	-123026.0	-156.0	906.0
31	17	9	11	769	84.0	-122477.0	-165.0	1084.0
31	17	9	11	769	85.0	-121550.0	-200.0	1395.0
31	17	9	11	770	86.0	-120649.0	-203.0	1302.0
31	17	9	11	770	87.0	-120054.0	-209.0	1244.0
31	17	9	11	771	88.0	-119419.0	-224.0	1231.0
31	17	9	11	772	89.0	-119053.0	-230.0	1083.0
31	17	9	11	772	90.0	-119235.0	-197.0	762.0
31	17	9	11	773	91.0	-120132.0	-206.0	908.0
31	17	9	11	773	92.0	-121124.0	-208.0	1029.0
31	17	9	11	781	93.0	-122644.0	-224.0	1043.0
31	17	9	11	781	94.0	-124668.0	-202.0	970.0
31	17	9	11	782	95.0	-126906.0	-212.0	467.0
31	17	9	11	803	96.0	-129028.0	-244.0	471.0
31	17	9	11	804	97.0	-130817.0	-241.0	646.0
31	17	9	11	804	98.0	-132246.0	-216.0	904.0
31	17	9	11	805	99.0	-133197.0	-222.0	734.0
31	17	9	11	806	100.0	-133922.0	-222.0	833.0
31	17	9	11	806	101.0	-133747.0	-247.0	857.0
31	17	9	11	807	102.0	-133061.0	-282.0	863.0
31	17	9	11	807	103.0	-131848.0	-279.0	961.0
31	17	9	11	808	104.0	-130508.0	-279.0	681.0
31	17	9	11	809	105.0	-129390.0	-269.0	502.0
31	17	9	11	809	106.0	-128340.0	-282.0	473.0
31	17	9	11	810	107.0	-127650.0	-300.0	567.0
31	17	9	11	810	108.0	-127167.0	-326.0	458.0
31	17	9	11	811	109.0	-127162.0	-346.0	120.0
31	17	9	11	811	110.0	-127581.0	-354.0	569.0
31	17	9	11	812	111.0	-128481.0	-374.0	704.0
31	17	9	11	838	112.0	-130074.0	-379.0	803.0
31	17	9	11	838	113.0	-132271.0	-391.0	1118.0
31	17	9	11	839	114.0	-134859.0	-381.0	1246.0
31	17	9	11	840	115.0	-137385.0	-392.0	848.0
31	17	9	11	840	116.0	-139791.0	-389.0	1173.0
31	17	9	11	841	117.0	-142154.0	-399.0	973.0
31	17	9	11	842	118.0	-144307.0	-421.0	457.0
31	17	9	11	842	119.0	-146620.0	-432.0	338.0
31	17	9	11	843	120.0	-149344.0	-437.0	537.0
31	17	9	11	843	121.0	-152008.0	-434.0	877.0
31	17	9	11	844	122.0	-154784.0	-435.0	1188.0
31	17	9	11	845	123.0	-157954.0	-444.0	1584.0
31	17	9	11	845	124.0	-161314.0	-426.0	1333.0
31	17	9	11	846	125.0	-164624.0	-426.0	1304.0
31	17	9	11	846	126.0	-167098.0	-437.0	1516.0
31	17	9	11	847	127.0	-168924.0	-440.0	1414.0
31	17	9	11	855	128.0	-171034.0	-427.0	952.0
31	17	9	11	856	129.0	-173088.0	-426.0	727.0
31	17	9	11	857	130.0	-175585.0	-412.0	601.0
31	17	9	11	857	131.0	-177362.0	-419.0	899.0
31	17	9	11	858	132.0	-178457.0	-436.0	1195.0
31	17	9	11	858	133.0	-179987.0	-426.0	1384.0
31	17	9	11	880	134.0	-180911.0	-447.0	1394.0
31	17	9	11	880	135.0	-181654.0	-481.0	1666.0
31	17	9	11	881	136.0	-182688.0	-476.0	1853.0
31	17	9	11	881	137.0	-183516.0	-511.0	1739.0
31	17	9	11	882	138.0	-184414.0	-536.0	2094.0
31	17	9	11	883	139.0	-185671.0	-560.0	2187.0
31	17	9	11	883	140.0	-186257.0	-593.0	2279.0
31	17	9	11	884	141.0	-185729.0	-624.0	2706.0
31	17	9	11	884	142.0	-185469.0	-635.0	3089.0
31	17	9	11	885	143.0	-184937.0	-676.0	2929.0
31	17	9	11	885	144.0	-184148.0	-701.0	2644.0
31	17	9	11	886	145.0	-182911.0	-729.0	2464.0
31	17	9	11	887	146.0	-179123.0	-752.0	2426.0
31	17	9	11	887	147.0	-175068.0	-782.0	2334.0
31	17	9	11	888	148.0	-172234.0	-811.0	2504.0
31	17	9	11	902	149.0	-168957.0	-839.0	3093.0
31	17	9	11	903	150.0	-165009.0	-832.0	3219.0
31	17	9	11	903	151.0	-161566.0	-842.0	3367.0
31	17	9	11	904	152.0	-158462.0	-851.0	3688.0
31	17	9	11	904	153.0	-155780.0	-874.0	3808.0
31	17	9	11	905	154.0	-152371.0	-907.0	3730.0
31	17	9	11	906	155.0	-148641.0	-902.0	3543.0
31	17	9	11	906	156.0	-146777.0	-907.0	3236.0
31	17	9	11	924	157.0	-144764.0	-902.0	3125.0
31	17	9	11	925	158.0	-142822.0	-904.0	3173.0
31	17	9	11	925	159.0	-141585.0	-907.0	3201.0
31	17	9	11	926	160.0	-142031.0	-932.0	3107.0
31	17	9	11	927	161.0	-143224.0	-942.0	3678.0
31	17	9	11	927	162.0	-145212.0	-971.0	3343.0
31	17	9	11	928	163.0	-148211.0	-1011.0	3399.0
31	17	9	11	928	164.0	-151802.0	-1032.0	3675.0
31	17	9	11	929	165.0	-154867.0	-1039.0	3552.0
31	17	9	11	930	166.0	-157762.0	-1057.0	3442.0
31	17	9	11	930	167.0	-161131.0	-1103.0	3188.0
31	17	9	11	931	168.0	-164104.0	-1142.0	3100.0
31	17	9	11	931	169.0	-167674.0	-1154.0	2999.0
31	17	9	11	932	170.0	-172560.0	-1196.0	3086.0
31	17	9	11	932	171.0	-179097.0	-1222.0	3223.0
31	17	9	11	946	172.0	-184507.0	-1217.0	3223.0
31	17	9	11	947	173.0	-188819.0	-1182.0	3397.0
31	17	9	11	948	174.0	-192230.0	-1205.0	3435.0
31	17	9	11	948	175.0	-195652.0	-1217.0	3388.0
31	17	9	11	949	176.0	-197709.0	-1199.0	3386.0
31	17	9	11	950	177.0	-200574.0	-1214.0	3600.0
31	17	9	11	950	178.0	-203159.0	-1223.0	3428.0
31	17	9	11	951	179.0	-204229.0	-1211.0	3275.0
31	17	9	11	969	180.0	-204542.0	-1181.0	3443.0
31	17	9	11	970	181.0	-204376.0	-1164.0	3178.0
31	17	9	11	971	182.0	-203052.0	-1151.0	3176.0
31	17	9	11	971	183.0	-200750.0	-1152.0	3492.0
31	17	9	11	972	184.0	-198270.0	-1166.0	3408.0
31	17	9	11	973	185.0	-195506.0	-1146.0	3313.0
31	17	9	11	973	186.0	-193489.0	-1151.0	3424.0
31	17	9	11	974	187.0	-192207.0	-1161.0	3248.0
31	17	9	11	974	188.0	-191369.0	-1159.0	3000.0
31	17	9	11	975	189.0	-189452.0	-1151.0	3023.0
31	17	9	11	976	190.0	-186797.0	-1156.0	3203.0
31	17	9	11	976	191.0	-184516.0	-1182.0	3353.0
31	17	9	11	977	192.0	-182719.0	-1192.0	3424.0
31	17	9	11	977	193.0	-181206.0	-1206.0	3657.0
31	17	9	11	978	194.0	-180181.0	-1209.0	3393.0
31	17	9	12	3	195.0	-178982.0	-1191.0	3044.0
31	17	9	12	3	196.0	-178979.0	-1189.0	3039.0
31	17	9	12	4	197.0	-178794.0	-1204.0	2731.0
31	17	9	12	5	198.0	-177762.0	-1235.0	2584.0
31	17	9	12	5	199.0	-176509.0	-1257.0	2429.0
31	17	9	12	6	200.0	-175342.0	-1266.0	1966.0
31	17	9	12	7	201.0	-174547.0	-1265.0	2046.0
31	17	9	12	7	202.0	-174677.0	-1271.0	2092.0
31	17	9	12	8	203.0	-173905.0	-1282.0	2160.0
31	17	9	12	9	204.0	-172532.0	-1293.0	2186.0
31	17	9	12	9	205.0	-171676.0	-1286.0	2350.0
31	17	9	12	10	206.0	-171863.0	-1306.0	1934.0
31	17	9	12	10	207.0	-172196.0	-1326.0	2019.0
31	17	9	12	11	208.0	-171672.0	-1358.0	2124.0
31	17	9	12	12	209.0	-171402.0	-1375.0	1839.0
31	17	9	12	12	210.0	-170936.0	-1411.0	1700.0
31	17	9	12	13	211.0	-171756.0	-1417.0	2354.0
31	17	9	12	14	212.0	-173257.0	-1431.0	2848.0
31	17	9	12	22	213.0	-175681.0	-1404.0	2556.0
31	17	9	12	23	214.0	-179069.0	-1396.0	2544.0
31	17	9	12	46	215.0	-182914.0	-1402.0	2608.0
31	17	9	12	47	216.0	-186651.0	-1420.0	2074.0
31	17	9	12	47	217.0	-189485.0	-1422.0	1964.0
31	17	9	12	48	218.0	-191846.0	-1451.0	1982.0
31	17	9	12	48	219.0	-193571.0	-1461.0	1638.0
31	17	9	12	49	220.0	-195367.0	-1457.0	1698.0
31	17	9	12	50	221.0	-197532.0	-1445.0	1748.0
31	17	9	12	50	222.0	-199706.0	-1463.0	2034.0
31	17	9	12	51	223.0	-201166.0	-1487.0	2073.0
31	17	9	12	51	224.0	-201902.0	-1484.0	2411.0
31	17	9	12	52	225.0	-203331.0	-1489.0	2636.0
31	17	9	12	52	226.0	-204243.0	-1493.0	2869.0
31	17	9	12	68	227.0	-203632.0	-1491.0	3164.0
31	17	9	12	68	228.0	-202861.0	-1495.0	2876.0
31	17	9	12	69	229.0	-203557.0	-1502.0	2918.0
31	17	9	12	70	230.0	-204207.0	-1512.0	3076.0
31	17	9	12	70	231.0	-205010.0	-1507.0	3174.0
31	17	9	12	71	232.0	-206485.0	-1504.0	3389.0
31	17	9	12	71	233.0	-205861.0	-1516.0	3639.0
31	17	9	12	72	234.0	-204244.0	-1527.0	3351.0
31	17	9	12	73	235.0	-202063.0	-1520.0	3133.0
31	17	9	12	73	236.0	-201199.0	-1529.0	3235.0
31	17	9	12	74	237.0	-200941.0	-1529.0	2996.0
31	17	9	12	74	238.0	-201338.0	-1537.0	2773.0
31	17	9	12	75	239.0	-201035.0	-1510.0	2782.0
31	17	9	12	75	240.0	-200733.0	-1479.0	3083.0
31	17	9	12	76	241.0	-199469.0	-1449.0	2887.0
31	17	9	12	92	242.0	-198797.0	-1437.0	3046.0
31	17	9	12	93	243.0	-198191.0	-1432.0	3580.0
31	17	9	12	94	244.0	-197577.0	-1437.0	3192.0
31	17	9	12	95	245.0	-197952.0	-1443.0	2787.0
31	17	9	12	95	246.0	-198077.0	-1449.0	3029.0
31	17	9	12	96	247.0	-197553.0	-1464.0	2933.0
31	17	9	12	97	248.0	-196886.0	-1447.0	2856.0
31	17	9	12	97	249.0	-195847.0	-1427.0	2973.0
31	17	9	12	98	250.0	-194357.0	-1437.0	2689.0
31	17	9	12	99	251.0	-192844.0	-1441.0	2208.0
31	17	9	12	99	252.0	-191856.0	-1423.0	2386.0
31	17	9	12	100	253.0	-191916.0	-1419.0	2821.0
31	17	9	12	101	254.0	-191660.0	-1398.0	2937.0
31	17	9	12	101	255.0	-190967.0	-1366.0	3053.0
31	17	9	12	102	0.0	-191021.0	-1364.0	3305.0
31	17	9	12	115	1.0	-192142.0	-1372.0	3014.0
31	17	9	12	116	2.0	-193544.0	-1357.0	2700.0
31	17	9	12	116	3.0	-195397.0	-1355.0	2753.0
31	17	9	12	117	4.0	-196155.0	-1352.0	2473.0
31	17	9	12	140	5.0	-196700.0	-1359.0	2516.0
31	17	9	12	141	6.0	-196995.0	-1390.0	2675.0
31	17	9	12	142	7.0	-197523.0	-1476.0	2481.0
31	17	9	12	142	8.0	-197952.0	-1479.0	2394.0
31	17	9	12	143	9.0	-197680.0	-1467.0	2602.0
31	17	9	12	143	10.0	-195674.0	-1462.0	2508.0
31	17	9	12	144	11.0	-193970.0	-1480.0	2825.0
31	17	9	12	145	12.0	-192931.0	-1491.0	3975.0
31	17	9	12	145	13.0	-191621.0	-1492.0	5089.0
31	17	9	12	146	14.0	-191074.0	-1482.0	4914.0
31	17	9	12	146	15.0	-190649.0	-1495.0	5186.0
31	17	9	12	147	16.0	-191046.0	-1507.0	5133.0
31	17	9	12	147	17.0	-191603.0	-1536.0	4918.0
31	17	9	12	148	18.0	-192412.0	-1567.0	4876.0
31	17	9	12	148	19.0	-193613.0	-1583.0	4188.0
31	17	9	12	149	20.0	-195777.0	-1610.0	2728.0
31	17	9	12	163	21.0	-198010.0	-1617.0	1237.0
31	17	9	12	164	22.0	-201188.0	-1609.0	-1338.0
31	17	9	12	164	23.0	-204464.0	-1600.0	-5192.0
31	17	9	12	165	24.0	-208745.0	-1626.0	-8230.0
31	17	9	12	165	25.0	-213232.0	-1636.0	-10016.0
31	17	9	12	166	26.0	-218291.0	-1652.0	-10829.0
31	17	9	12	167	27.0	-223204.0	-1674.0	-12158.0
31	17	9	12	167	28.0	-227886.0	-1677.0	-14123.0
31	17	9	12	168	29.0	-231363.0	-1672.0	-18646.0
31	17	9	12	169	30.0	-234972.0	-1666.0	-23568.0
31	17	9	12	169	31.0	-237879.0	-1658.0	-28887.0
31	17	9	12	170	32.0	-239723.0	-1676.0	-29157.0
31	17	9	12	170	33.0	-240647.0	-1693.0	-25414.0
31	17	9	12	171	34.0	-239814.0	-1709.0	-20730.0
31	17	9	12	171	35.0	-235496.0	-1721.0	-14195.0
31	17	9	12	187	36.0	-228695.0	-1717.0	-5558.0
31	17	9	12	187	37.0	-219580.0	-1695.0	2179.0
31	17	9	12	188	38.0	-210473.0	-1695.0	6384.0
31	17	9	12	188	39.0	-202023.0	-1692.0	8421.0
31	17	9	12	189	40.0	-194919.0	-1691.0	9220.0
31	17	9	12	189	41.0	-190019.0	-1704.0	9386.0
31	17	9	12	190	42.0	-188956.0	-1709.0	8964.0
31	17	9	12	210	43.0	-191556.0	-1686.0	8773.0
31	17	9	12	211	44.0	-196204.0	-1677.0	8468.0
31	17	9	12	211	45.0	-202874.0	-1702.0	7827.0
31	17	9	12	212	46.0	-210199.0	-1706.0	7799.0
31	17	9	12	212	47.0	-217194.0	-1728.0	7840.0
31	17	9	12	213	48.0	-222736.0	-1764.0	7481.0
31	17	9	12	214	49.0	-224614.0	-1768.0	6943.0
31	17	9	12	214	50.0	-218414.0	-1768.0	6603.0
31	17	9	12	215	51.0	-202487.0	-1779.0	6070.0
31	17	9	12	215	52.0	-187924.0	-1769.0	5748.0
31	17	9	12	216	53.0	-174730.0	-1776.0	5481.0
31	17	9	12	216	54.0	-166984.0	-1789.0	5202.0
31	17	9	12	217	55.0	-160930.0	-1776.0	4428.0
31	17	9	12	218	56.0	-157585.0	-1772.0	3974.0
31	17	9	12	233	57.0	-153450.0	-1799.0	3528.0
31	17	9	12	233	58.0	-152237.0	-1812.0	2694.0
31	17	9	12	234	59.0	-157611.0	-1824.0	2190.0
31	17	9	12	235	60.0	-169646.0	-1837.0	2156.0
31	17	9	12	235	61.0	-188449.0	-1844.0	1700.0
31	17	9	12	236	62.0	-216127.0	-1841.0	1244.0
31	17	9	12	236	63.0	-251268.0	-1846.0	1376.0
31	17	9	12	237	64.0	-288353.0	-1875.0	1362.0
31	17	9	12	237	65.0	-320239.0	-1886.0	1228.0
31	17	9	12	238	66.0	-338558.0	-1886.0	1220.0
31	17	9	12	256	67.0	-337459.0	-1889.0	1171.0
31	17	9	12	257	68.0	-328536.0	-1904.0	1033.0
31	17	9	12	258	69.0	-315169.0	-1945.0	858.0
31	17	9	12	258	70.0	-295732.0	-1961.0	778.0
31	17	9	12	259	71.0	-269623.0	-1976.0	647.0
31	17	9	12	259	72.0	-244762.0	-1988.0	689.0
31	17	9	12	260	73.0	-226767.0	-2012.0	-4.0
31	17	9	12	261	74.0	-216516.0	-2022.0	28.0
31	17	9	12	261	75.0	-212099.0	-2041.0	183.0
31	17	9	12	262	76.0	-210586.0	-2052.0	134.0
31	17	9	12	262	77.0	-210516.0	-2067.0	103.0
31	17	9	12	263	78.0	-213168.0	-2086.0	56.0
31	17	9	12	263	79.0	-217176.0	-2096.0	-85.0
31	17	9	12	264	80.0	-218874.0	-2097.0	-221.0
31	17	9	12	278	81.0	-216172.0	-2091.0	-454.0
31	17	9	12	279	82.0	-208995.0	-2065.0	-549.0
31	17	9	12	280	83.0	-198382.0	-2038.0	-664.0
31	17	9	12	280	84.0	-185853.0	-2020.0	-479.0
31	17	9	12	281	85.0	-172964.0	-2014.0	34.0
31	17	9	12	281	86.0	-159574.0	-2007.0	439.0
31	17	9	12	282	87.0	-145001.0	-1991.0	588.0
31	17	9	12	302	88.0	-129757.0	-1991.0	926.0
31	17	9	12	303	89.0	-115121.0	-1975.0	841.0
31	17	9	12	303	90.0	-103057.0	-1973.0	490.0
31	17	9	12	304	91.0	-94751.0	-1985.0	598.0
31	17	9	12	304	92.0	-88775.0	-2001.0	657.0
31	17	9	12	305	93.0	-84481.0	-2019.0	-131.0
31	17	9	12	306	94.0	-80525.0	-2016.0	-161.0
31	17	9	12	306	95.0	-77149.0	-2021.0	79.0
31	17	9	12	324	96.0	-75042.0	-1998.0	-190.0
31	17	9	12	325	97.0	-74450.0	-1954.0	69.0
31	17	9	12	326	98.0	-75066.0	-1933.0	57.0
31	17	9	12	326	99.0	-76459.0	-1924.0	-301.0
31	17	9	12	327	100.0	-78634.0	-1926.0	-306.0
31	17	9	12	328	101.0	-82391.0	-1909.0	-498.0
31	17	9	12	328	102.0	-88124.0	-1923.0	-452.0
31	17	9	12	329	103.0	-95211.0	-1919.0	-575.0
31	17	9	12	329	104.0	-102285.0	-1936.0	-666.0
31	17	9	12	330	105.0	-108916.0	-1946.0	-446.0
31	17	9	12	330	106.0	-115017.0	-1944.0	-370.0
31	17	9	12	331	107.0	-120294.0	-1930.0	-586.0
31	17	9	12	332	108.0	-125273.0	-1944.0	-1060.0
31	17	9	12	332	109.0	-129721.0	-1962.0	-710.0
31	17	9	12	333	110.0	-133076.0	-1958.0	-863.0
31	17	9	12	333	111.0	-135386.0	-1955.0	-1107.0
31	17	9	12	334	112.0	-136974.0	-1929.0	-1270.0
31	17	9	12	335	113.0	-137713.0	-1926.0	-1151.0
31	17	9	12	335	114.0	-137819.0	-1936.0	-1136.0
31	17	9	12	336	115.0	-137491.0	-1934.0	-1149.0
31	17	9	12	336	116.0	-137217.0	-1948.0	-831.0
31	17	9	12	348	117.0	-137241.0	-1980.0	-546.0
31	17	9	12	349	118.0	-137587.0	-2001.0	-804.0
31	17	9	12	349	119.0	-138388.0	-2006.0	-792.0
31	17	9	12	350	120.0	-139484.0	-2054.0	-641.0
31	17	9	12	351	121.0	-141306.0	-2118.0	-702.0
31	17	9	12	351	122.0	-143780.0	-2149.0	-641.0
31	17	9	12	352	123.0	-146155.0	-2197.0	-587.0
31	17	9	12	352	124.0	-148292.0	-2238.0	-472.0
31	17	9	12	353	125.0	-150398.0	-2280.0	-424.0
31	17	9	12	373	126.0	-152250.0	-2297.0	81.0
31	17	9	12	373	127.0	-153526.0	-2281.0	91.0
31	17	9	12	374	128.0	-154485.0	-2257.0	-13.0
31	17	9	12	375	129.0	-155116.0	-2291.0	385.0
31	17	9	12	375	130.0	-155682.0	-2327.0	262.0
31	17	9	12	376	131.0	-155843.0	-2350.0	149.0
31	17	9	12	376	132.0	-155312.0	-2356.0	367.0
31	17	9	12	377	133.0	-154605.0	-2326.0	478.0
31	17	9	12	378	134.0	-153403.0	-2291.0	592.0
31	17	9	12	378	135.0	-151979.0	-2319.0	841.0
31	17	9	12	394	136.0	-150194.0	-2334.0	1277.0
31	17	9	12	395	137.0	-148362.0	-2366.0	1606.0
31	17	9	12	396	138.0	-146634.0	-2371.0	1261.0
31	17	9	12	397	139.0	-145150.0	-2375.0	1351.0
31	17	9	12	397	140.0	-143838.0	-2400.0	1480.0
31	17	9	12	398	141.0	-142778.0	-2400.0	1608.0
31	17	9	12	398	142.0	-142126.0	-2420.0	1822.0
31	17	9	12	399	143.0	-141508.0	-2446.0	1819.0
31	17	9	12	399	144.0	-140792.0	-2442.0	2484.0
31	17	9	12	400	145.0	-140219.0	-2447.0	2913.0
31	17	9	12	401	146.0	-139940.0	-2458.0	2928.0
31	17	9	12	401	147.0	-139403.0	-2469.0	3264.0
31	17	9	12	418	148.0	-138561.0	-2467.0	3761.0
31	17	9	12	418	149.0	-137691.0	-2466.0	3636.0
31	17	9	12	419	150.0	-136652.0	-2479.0	3587.0
31	17	9	12	419	151.0	-135733.0	-2477.0	4086.0
31	17	9	12	420	152.0	-134799.0	-2477.0	4369.0
31	17	9	12	421	153.0	-134098.0	-2494.0	4153.0
31	17	9	12	421	154.0	-133467.0	-2480.0	4458.0
31	17	9	12	422	155.0	-132412.0	-2455.0	4684.0
31	17	9	12	423	156.0	-131101.0	-2416.0	4999.0
31	17	9	12	423	157.0	-129675.0	-2367.0	5364.0
31	17	9	12	424	158.0	-128154.0	-2336.0	5272.0
31	17	9	12	424	159.0	-126749.0	-2326.0	5068.0
31	17	9	12	425	160.0	-125106.0	-2290.0	5326.0
31	17	9	12	426	161.0	-123508.0	-2252.0	5676.0
31	17	9	12	426	162.0	-122171.0	-2227.0	5639.0
31	17	9	12	440	163.0	-121260.0	-2182.0	5766.0
31	17	9	12	440	164.0	-120819.0	-2131.0	5711.0
31	17	9	12	441	165.0	-120783.0	-2101.0	5764.0
31	17	9	12	442	166.0	-121057.0	-2057.0	5686.0
31	17	9	12	442	167.0	-121670.0	-2049.0	5508.0
31	17	9	12	443	168.0	-122851.0	-2000.0	5393.0
31	17	9	12	443	169.0	-124568.0	-1986.0	5358.0
31	17	9	12	444	170.0	-126599.0	-1958.0	5601.0
31	17	9	12	463	171.0	-128856.0	-1909.0	5544.0
31	17	9	12	464	172.0	-131352.0	-1864.0	5521.0
31	17	9	12	464	173.0	-134114.0	-1837.0	5409.0
31	17	9	12	465	174.0	-136579.0	-1801.0	5198.0
31	17	9	12	465	175.0	-139132.0	-1776.0	5584.0
31	17	9	12	466	176.0	-142034.0	-1735.0	5716.0
31	17	9	12	467	177.0	-145246.0	-1706.0	5605.0
31	17	9	12	486	178.0	-148189.0	-1651.0	5519.0
31	17	9	12	486	179.0	-151414.0	-1604.0	5527.0
31	17	9	12	487	180.0	-155002.0	-1550.0	5071.0
31	17	9	12	487	181.0	-158480.0	-1514.0	4706.0
31	17	9	12	488	182.0	-161867.0	-1492.0	4878.0
31	17	9	12	489	183.0	-165154.0	-1471.0	5301.0
31	17	9	12	489	184.0	-168034.0	-1432.0	5456.0
31	17	9	12	490	185.0	-170576.0	-1407.0	5469.0
31	17	9	12	490	186.0	-172708.0	-1359.0	6002.0
31	17	9	12	491	187.0	-174009.0	-1346.0	6141.0
31	17	9	12	491	188.0	-174831.0	-1317.0	5691.0
31	17	9	12	492	189.0	-175268.0	-1297.0	6133.0
31	17	9	12	493	190.0	-175287.0	-1261.0	5789.0
31	17	9	12	493	191.0	-175013.0	-1234.0	5829.0
31	17	9	12	494	192.0	-174590.0	-1219.0	6466.0
31	17	9	12	514	193.0	-174204.0	-1179.0	6863.0
31	17	9	12	515	194.0	-173702.0	-1124.0	6665.0
31	17	9	12	515	195.0	-173012.0	-1092.0	6266.0
31	17	9	12	516	196.0	-172711.0	-1060.0	6471.0
31	17	9	12	516	197.0	-172581.0	-1017.0	6642.0
31	17	9	12	517	198.0	-172296.0	-984.0	7203.0
31	17	9	12	517	199.0	-171827.0	-953.0	7460.0
31	17	9	12	518	200.0	-171489.0	-917.0	7562.0
31	17	9	12	518	201.0	-171021.0	-909.0	7636.0
31	17	9	12	519	202.0	-169866.0	-869.0	7177.0
31	17	9	12	519	203.0	-164467.0	-837.0	7389.0
31	17	9	12	520	204.0	-155474.0	-832.0	7694.0
31	17	9	12	520	205.0	-151307.0	-844.0	8235.0
31	17	9	12	521	206.0	-148419.0	-809.0	8317.0
31	17	9	12	522	207.0	-147333.0	-778.0	8567.0
31	17	9	12	543	208.0	-151544.0	-755.0	8361.0
31	17	9	12	544	209.0	-159678.0	-726.0	8436.0
31	17	9	12	544	210.0	-168936.0	-698.0	8620.0
31	17	9	12	545	211.0	-172714.0	-701.0	8621.0
31	17	9	12	546	212.0	-173211.0	-702.0	8571.0
31	17	9	12	546	213.0	-173396.0	-696.0	8953.0
31	17	9	12	547	214.0	-172994.0	-694.0	9540.0
31	17	9	12	548	215.0	-171515.0	-677.0	9503.0
31	17	9	12	548	216.0	-166616.0	-687.0	9461.0
31	17	9	12	549	217.0	-158229.0	-697.0	9876.0
31	17	9	12	550	218.0	-147856.0	-724.0	10164.0
31	17	9	12	550	219.0	-139187.0	-736.0	9547.0
31	17	9	12	551	220.0	-133611.0	-742.0	6921.0
31	17	9	12	552	221.0	-131280.0	-756.0	4271.0
31	17	9	12	552	222.0	-131947.0	-767.0	2296.0
31	17	9	12	553	223.0	-134666.0	-736.0	1481.0
31	17	9	12	554	224.0	-138759.0	-717.0	1594.0
31	17	9	12	554	225.0	-143059.0	-711.0	1857.0
31	17	9	12	555	226.0	-146975.0	-705.0	1938.0
31	17	9	12	567	227.0	-150340.0	-680.0	1829.0
31	17	9	12	568	228.0	-152923.0	-642.0	2051.0
31	17	9	12	589	229.0	-154538.0	-661.0	2383.0
31	17	9	12	590	230.0	-154519.0	-657.0	2696.0
31	17	9	12	591	231.0	-153399.0	-651.0	3183.0
31	17	9	12	591	232.0	-150975.0	-650.0	3512.0
31	17	9	12	592	233.0	-149112.0	-650.0	4025.0
31	17	9	12	592	234.0	-147264.0	-667.0	4496.0
31	17	9	12	593	235.0	-146249.0	-686.0	4789.0
31	17	9	12	593	236.0	-146781.0	-696.0	5414.0
31	17	9	12	594	237.0	-148562.0	-721.0	5392.0
31	17	9	12	595	238.0	-150776.0	-732.0	5600.0
31	17	9	12	595	239.0	-153646.0	-724.0	5943.0
31	17	9	12	596	240.0	-156769.0	-706.0	5834.0
31	17	9	12	596	241.0	-159640.0	-731.0	6049.0
31	17	9	12	597	242.0	-162207.0	-757.0	6548.0
31	17	9	12	597	243.0	-164247.0	-788.0	7079.0
31	17	9	12	598	244.0	-165832.0	-813.0	7271.0
31	17	9	12	612	245.0	-166674.0	-806.0	7711.0
31	17	9	12	613	246.0	-167156.0	-801.0	8268.0
31	17	9	12	614	247.0	-167779.0	-824.0	8270.0
31	17	9	12	614	248.0	-168492.0	-856.0	8308.0
31	17	9	12	615	249.0	-169281.0	-867.0	8658.0
31	17	9	12	615	250.0	-170239.0	-882.0	8671.0
31	17	9	12	616	251.0	-171294.0	-908.0	9193.0
31	17	9	12	617	252.0	-172794.0	-909.0	9585.0
31	17	9	12	617	253.0	-174529.0	-904.0	9634.0
31	17	9	12	618	254.0	-176114.0	-903.0	9777.0
31	17	9	12	619	255.0	-177859.0	-901.0	10346.0
31	17	9	12	619	0.0	-180086.0	-908.0	10817.0
31	17	9	12	620	1.0	-182806.0	-914.0	10782.0
31	17	9	12	620	2.0	-185645.0	-911.0	10409.0
31	17	9	12	621	3.0	-188537.0	-914.0	10706.0
31	17	9	12	621	4.0	-191362.0	-912.0	11244.0
31	17	9	12	638	5.0	-193966.0	-887.0	11538.0
31	17	9	12	638	6.0	-196167.0	-880.0	12209.0
31	17	9	12	639	7.0	-198061.0	-881.0	12703.0
31	17	9	12	640	8.0	-199551.0	-892.0	12973.0
31	17	9	12	640	9.0	-200764.0	-912.0	12880.0
31	17	9	12	641	10.0	-202062.0	-937.0	12853.0
31	17	9	12	641	11.0	-203487.0	-945.0	13486.0
31	17	9	12	660	12.0	-204927.0	-952.0	13281.0
31	17	9	12	661	13.0	-205996.0	-962.0	13484.0
31	17	9	12	662	14.0	-207057.0	-954.0	13683.0
31	17	9	12	662	15.0	-207904.0	-972.0	13774.0
31	17	9	12	663	16.0	-208510.0	-992.0	13536.0
31	17	9	12	664	17.0	-209057.0	-993.0	13985.0
31	17	9	12	664	18.0	-208940.0	-990.0	14816.0
31	17	9	12	665	19.0	-208425.0	-985.0	15043.0
31	17	9	12	665	20.0	-207873.0	-983.0	15453.0
31	17	9	12	666	21.0	-206762.0	-988.0	16071.0
31	17	9	12	667	22.0	-204857.0	-1023.0	16392.0
31	17	9	12	667	23.0	-202084.0	-1041.0	16021.0
31	17	9	12	668	24.0	-198968.0	-1064.0	16269.0
31	17	9	12	668	25.0	-196095.0	-1086.0	16651.0
31	17	9	12	683	26.0	-193712.0	-1119.0	16716.0
31	17	9	12	684	27.0	-192041.0	-1124.0	17139.0
31	17	9	12	684	28.0	-190817.0	-1126.0	17246.0
31	17	9	12	685	29.0	-190508.0	-1135.0	17082.0
31	17	9	12	686	30.0	-190778.0	-1171.0	17029.0
31	17	9	12	686	31.0	-191784.0	-1192.0	17669.0
31	17	9	12	687	32.0	-192973.0	-1219.0	18026.0
31	17	9	12	687	33.0	-193969.0	-1237.0	18132.0
31	17	9	12	688	34.0	-195309.0	-1236.0	18612.0
31	17	9	12	706	35.0	-196763.0	-1252.0	18885.0
31	17	9	12	707	36.0	-198222.0	-1237.0	19068.0
31	17	9	12	708	37.0	-199524.0	-1236.0	19153.0
31	17	9	12	708	38.0	-201050.0	-1244.0	19259.0
31	17	9	12	709	39.0	-202691.0	-1270.0	19738.0
31	17	9	12	709	40.0	-204092.0	-1284.0	19919.0
31	17	9	12	710	41.0	-205667.0	-1265.0	19979.0
31	17	9	12	711	42.0	-207318.0	-1239.0	20419.0
31	17	9	12	711	43.0	-208730.0	-1239.0	20596.0
31	17	9	12	712	44.0	-210408.0	-1258.0	20532.0
31	17	9	12	712	45.0	-212146.0	-1279.0	20515.0
31	17	9	12	713	46.0	-213456.0	-1306.0	20647.0
31	17	9	12	713	47.0	-214359.0	-1326.0	21039.0
31	17	9	12	714	48.0	-214491.0	-1332.0	21209.0
31	17	9	12	729	49.0	-214204.0	-1347.0	21596.0
31	17	9	12	730	50.0	-213737.0	-1324.0	21685.0
31	17	9	12	731	51.0	-213051.0	-1332.0	21587.0
31	17	9	12	731	52.0	-212130.0	-1352.0	22154.0
31	17	9	12	732	53.0	-211008.0	-1382.0	22348.0
31	17	9	12	733	54.0	-209826.0	-1388.0	22181.0
31	17	9	12	733	55.0	-208482.0	-1386.0	22559.0
31	17	9	12	734	56.0	-206721.0	-1364.0	23127.0
31	17	9	12	754	57.0	-204601.0	-1357.0	22919.0
31	17	9	12	754	58.0	-202261.0	-1313.0	22884.0
31	17	9	12	755	59.0	-199287.0	-1312.0	23588.0
31	17	9	12	755	60.0	-195896.0	-1314.0	24029.0
31	17	9	12	756	61.0	-192405.0	-1321.0	24166.0
31	17	9	12	757	62.0	-188736.0	-1326.0	24588.0
31	17	9	12	757	63.0	-184609.0	-1328.0	25195.0
31	17	9	12	758	64.0	-180162.0	-1317.0	25333.0
31	17	9	12	758	65.0	-176062.0	-1305.0	25429.0
31	17	9	12	759	66.0	-172148.0	-1316.0	25415.0
31	17	9	12	759	67.0	-168547.0	-1307.0	25518.0
31	17	9	12	760	68.0	-165318.0	-1302.0	25810.0
31	17	9	12	761	69.0	-162661.0	-1317.0	26438.0
31	17	9	12	761	70.0	-160413.0	-1330.0	26703.0
31	17	9	12	762	71.0	-158974.0	-1347.0	26549.0
31	17	9	12	776	72.0	-158034.0	-1347.0	26596.0
31	17	9	12	776	73.0	-157781.0	-1334.0	26567.0
31	17	9	12	777	74.0	-158136.0	-1321.0	26683.0
31	17	9	12	778	75.0	-159131.0	-1327.0	26853.0
31	17	9	12	778	76.0	-161187.0	-1333.0	27261.0
31	17	9	12	779	77.0	-164029.0	-1331.0	27709.0
31	17	9	12	779	78.0	-167254.0	-1340.0	28138.0
31	17	9	12	799	79.0	-170504.0	-1341.0	28531.0
31	17	9	12	799	80.0	-173725.0	-1315.0	28832.0
31	17	9	12	800	81.0	-176544.0	-1293.0	29189.0
31	17	9	12	801	82.0	-179106.0	-1297.0	29237.0
31	17	9	12	801	83.0	-181585.0	-1297.0	29473.0
31	17	9	12	802	84.0	-183987.0	-1318.0	29751.0
31	17	9	12	802	85.0	-186673.0	-1313.0	29901.0
31	17	9	12	803	86.0	-189747.0	-1341.0	29988.0
31	17	9	12	803	87.0	-192961.0	-1366.0	30484.0
31	17	9	12	804	88.0	-196252.0	-1336.0	30866.0
31	17	9	12	805	89.0	-199614.0	-1326.0	31112.0
31	17	9	12	805	90.0	-202842.0	-1359.0	31568.0
31	17	9	12	806	91.0	-205749.0	-1373.0	32263.0
31	17	9	12	806	92.0	-207976.0	-1395.0	32081.0
31	17	9	12	807	93.0	-209886.0	-1397.0	32168.0
31	17	9	12	821	94.0	-211579.0	-1395.0	32926.0
31	17	9	12	822	95.0	-212889.0	-1397.0	33232.0
31	17	9	12	822	96.0	-213614.0	-1411.0	33404.0
31	17	9	12	823	97.0	-213769.0	-1425.0	33993.0
31	17	9	12	824	98.0	-213301.0	-1434.0	34601.0
31	17	9	12	824	99.0	-212429.0	-1476.0	34853.0
31	17	9	12	825	100.0	-211228.0	-1501.0	35676.0
31	17	9	12	825	101.0	-209961.0	-1510.0	36544.0
31	17	9	12	826	102.0	-208793.0	-1495.0	37224.0
31	17	9	12	827	103.0	-207921.0	-1513.0	38096.0
31	17	9	12	827	104.0	-207119.0	-1540.0	38581.0
31	17	9	12	828	105.0	-206478.0	-1587.0	39257.0
31	17	9	12	829	106.0	-206000.0	-1641.0	39781.0
31	17	9	12	829	107.0	-205164.0	-1646.0	40166.0
31	17	9	12	830	108.0	-203629.0	-1621.0	40936.0
31	17	9	12	844	109.0	-201842.0	-1614.0	41861.0
31	17	9	12	844	110.0	-199842.0	-1612.0	42963.0
31	17	9	12	845	111.0	-197682.0	-1594.0	43700.0
31	17	9	12	846	112.0	-195846.0	-1608.0	44424.0
31	17	9	12	846	113.0	-194300.0	-1649.0	45274.0
31	17	9	12	847	114.0	-193140.0	-1644.0	45271.0
31	17	9	12	848	115.0	-192374.0	-1640.0	45662.0
31	17	9	12	848	116.0	-192014.0	-1649.0	46290.0
31	17	9	12	868	117.0	-191935.0	-1637.0	46674.0
31	17	9	12	869	118.0	-191981.0	-1628.0	47112.0
31	17	9	12	870	119.0	-192076.0	-1625.0	47350.0
31	17	9	12	870	120.0	-192100.0	-1616.0	48108.0
31	17	9	12	871	121.0	-192279.0	-1631.0	48894.0
31	17	9	12	871	122.0	-192316.0	-1638.0	49881.0
31	17	9	12	872	123.0	-192531.0	-1641.0	50724.0
31	17	9	12	873	124.0	-192192.0	-1650.0	50611.0
31	17	9	12	873	125.0	-191402.0	-1666.0	50903.0
31	17	9	12	874	126.0	-190017.0	-1642.0	51496.0
31	17	9	12	875	127.0	-188351.0	-1637.0	52073.0
31	17	9	12	876	128.0	-186373.0	-1660.0	52601.0
31	17	9	12	877	129.0	-184206.0	-1682.0	53761.0
31	17	9	12	877	130.0	-182182.0	-1683.0	53887.0
31	17	9	12	878	131.0	-180037.0	-1691.0	54081.0
31	17	9	12	890	132.0	-178007.0	-1679.0	54694.0
31	17	9	12	891	133.0	-176089.0	-1663.0	55067.0
31	17	9	12	892	134.0	-174044.0	-1707.0	55078.0
31	17	9	12	893	135.0	-171758.0	-1757.0	55558.0
31	17	9	12	893	136.0	-169654.0	-1794.0	55926.0
31	17	9	12	894	137.0	-167674.0	-1792.0	55949.0
31	17	9	12	895	138.0	-165824.0	-1795.0	56554.0
31	17	9	12	914	139.0	-164197.0	-1812.0	57003.0
31	17	9	12	915	140.0	-163131.0	-1789.0	57313.0
31	17	9	12	916	141.0	-162391.0	-1799.0	57499.0
31	17	9	12	917	142.0	-161949.0	-1811.0	57678.0
31	17	9	12	917	143.0	-162016.0	-1814.0	57898.0
31	17	9	12	918	144.0	-162399.0	-1812.0	57951.0
31	17	9	12	919	145.0	-163014.0	-1809.0	58120.0
31	17	9	12	919	146.0	-163595.0	-1825.0	58459.0
31	17	9	12	920	147.0	-164165.0	-1795.0	58843.0
31	17	9	12	921	148.0	-164983.0	-1765.0	59198.0
31	17	9	12	921	149.0	-165635.0	-1761.0	59392.0
31	17	9	12	922	150.0	-166917.0	-1762.0	59885.0
31	17	9	12	922	151.0	-168449.0	-1744.0	60039.0
31	17	9	12	923	152.0	-170132.0	-1761.0	60316.0
31	17	9	12	923	153.0	-171744.0	-1754.0	60604.0
31	17	9	12	937	154.0	-173146.0	-1747.0	60670.0
31	17	9	12	938	155.0	-174209.0	-1769.0	60654.0
31	17	9	12	938	156.0	-175344.0	-1760.0	60681.0
31	17	9	12	939	157.0	-176353.0	-1751.0	61179.0
31	17	9	12	940	158.0	-177282.0	-1765.0	61558.0
31	17	9	12	940	159.0	-178364.0	-1777.0	61886.0
31	17	9	12	941	160.0	-179901.0	-1781.0	62277.0
31	17	9	12	941	161.0	-181662.0	-1778.0	62403.0
31	17	9	12	960	162.0	-183161.0	-1756.0	62098.0
31	17	9	12	960	163.0	-184651.0	-1740.0	61998.0
31	17	9	12	961	164.0	-185881.0	-1720.0	62309.0
31	17	9	12	962	165.0	-187090.0	-1717.0	62545.0
31	17	9	12	962	166.0	-188459.0	-1730.0	63103.0
31	17	9	12	963	167.0	-189487.0	-1752.0	63636.0
31	17	9	12	963	168.0	-190727.0	-1777.0	63782.0
31	17	9	12	964	169.0	-191947.0	-1783.0	64234.0
31	17	9	12	965	170.0	-193186.0	-1779.0	64534.0
31	17	9	12	965	171.0	-194209.0	-1844.0	64719.0
31	17	9	12	966	172.0	-194515.0	-1937.0	64637.0
31	17	9	12	967	173.0	-193563.0	-1927.0	64399.0
31	17	9	12	967	174.0	-192060.0	-1923.0	64575.0
31	17	9	12	968	175.0	-189616.0	-1924.0	65104.0
31	17	9	12	968	176.0	-186368.0	-1914.0	65409.0
31	17	9	12	982	177.0	-182351.0	-1871.0	65737.0
31	17	9	12	983	178.0	-177742.0	-1867.0	65934.0
31	17	9	12	983	179.0	-173672.0	-1870.0	66044.0
31	17	9	12	984	180.0	-169777.0	-1894.0	65836.0
31	17	9	12	985	181.0	-166257.0	-1904.0	65745.0
31	17	9	12	985	182.0	-162714.0	-1922.0	66364.0
31	17	9	13	4	183.0	-159129.0	-1924.0	66476.0
31	17	9	13	5	184.0	-155877.0	-1927.0	66567.0
31	17	9	13	6	185.0	-152938.0	-1897.0	67114.0
31	17	9	13	6	186.0	-150412.0	-1899.0	67741.0
31	17	9	13	7	187.0	-148105.0	-1921.0	67937.0
31	17	9	13	8	188.0	-146271.0	-1941.0	68395.0
31	17	9	13	8	189.0	-145099.0	-1946.0	68931.0
31	17	9	13	9	190.0	-144322.0	-1936.0	68956.0
31	17	9	13	9	191.0	-143866.0	-1932.0	69509.0
31	17	9	13	10	192.0	-144429.0	-1893.0	69949.0
31	17	9	13	11	193.0	-145796.0	-1856.0	69718.0
31	17	9	13	11	194.0	-148017.0	-1850.0	69631.0
31	17	9	13	12	195.0	-150945.0	-1851.0	70239.0
31	17	9	13	12	196.0	-154485.0	-1833.0	70224.0
31	17	9	13	13	197.0	-158097.0	-1816.0	70279.0
31	17	9	13	14	198.0	-161521.0	-1803.0	70934.0
31	17	9	13	27	199.0	-164862.0	-1757.0	71499.0
31	17	9	13	28	200.0	-168111.0	-1708.0	71162.0
31	17	9	13	28	201.0	-170952.0	-1656.0	71208.0
31	17	9	13	29	202.0	-173191.0	-1647.0	71661.0
31	17	9	13	30	203.0	-174919.0	-1626.0	71898.0
31	17	9	13	30	204.0	-176496.0	-1601.0	71901.0
31	17	9	13	31	205.0	-177847.0	-1597.0	72206.0
31	17	9	13	31	206.0	-179257.0	-1591.0	72023.0
31	17	9	13	50	207.0	-180663.0	-1539.0	72018.0
31	17	9	13	50	208.0	-181526.0	-1487.0	72300.0
31	17	9	13	51	209.0	-182103.0	-1476.0	72559.0
31	17	9	13	52	210.0	-182735.0	-1451.0	72550.0
31	17	9	13	52	211.0	-182839.0	-1427.0	72875.0
31	17	9	13	53	212.0	-182561.0	-1418.0	72946.0
31	17	9	13	54	213.0	-181644.0	-1404.0	73176.0
31	17	9	13	54	214.0	-180669.0	-1384.0	73214.0
31	17	9	13	55	215.0	-179426.0	-1386.0	72803.0
31	17	9	13	56	216.0	-177999.0	-1387.0	73073.0
31	17	9	13	56	217.0	-176462.0	-1377.0	73896.0
31	17	9	13	57	218.0	-175070.0	-1391.0	73941.0
31	17	9	13	58	219.0	-173679.0	-1390.0	73898.0
31	17	9	13	58	220.0	-172320.0	-1379.0	74596.0
31	17	9	13	59	221.0	-170840.0	-1385.0	74450.0
31	17	9	13	72	222.0	-169012.0	-1362.0	74247.0
31	17	9	13	73	223.0	-166852.0	-1326.0	74564.0
31	17	9	13	74	224.0	-164682.0	-1337.0	74616.0
31	17	9	13	74	225.0	-162895.0	-1364.0	74187.0
31	17	9	13	75	226.0	-161116.0	-1362.0	74618.0
31	17	9	13	76	227.0	-159354.0	-1372.0	75771.0
31	17	9	13	76	228.0	-157521.0	-1371.0	77088.0
31	17	9	13	97	229.0	-155597.0	-1391.0	78499.0
31	17	9	13	98	230.0	-153718.0	-1390.0	79162.0
31	17	9	13	98	231.0	-151601.0	-1397.0	79237.0
31	17	9	13	99	232.0	-149270.0	-1417.0	79011.0
31	17	9	13	100	233.0	-146921.0	-1430.0	78758.0
31	17	9	13	101	234.0	-144602.0	-1439.0	78498.0
31	17	9	13	101	235.0	-142604.0	-1441.0	77788.0
31	17	9	13	102	236.0	-141054.0	-1449.0	77083.0
31	17	9	13	103	237.0	-140266.0	-1435.0	76451.0
31	17	9	13	103	238.0	-140292.0	-1461.0	74767.0
31	17	9	13	104	239.0	-141337.0	-1471.0	71851.0
31	17	9	13	104	240.0	-143669.0	-1501.0	68751.0
31	17	9	13	105	241.0	-147447.0	-1532.0	67005.0
31	17	9	13	106	242.0	-153071.0	-1539.0	65926.0
31	17	9	13	106	243.0	-160014.0	-1567.0	64121.0
31	17	9	13	107	244.0	-167937.0	-1573.0	62243.0
31	17	9	13	108	245.0	-176761.0	-1567.0	58519.0
31	17	9	13	119	246.0	-185683.0	-1566.0	53481.0
31	17	9	13	120	247.0	-194097.0	-1565.0	47864.0
31	17	9	13	121	248.0	-201672.0	-1571.0	47852.0
31	17	9	13	122	249.0	-208083.0	-1576.0	51938.0
31	17	9	13	122	250.0	-212330.0	-1592.0	55638.0
31	17	9	13	142	251.0	-213299.0	-1614.0	61748.0
31	17	9	13	143	252.0	-210049.0	-1591.0	70858.0
31	17	9	13	143	253.0	-203214.0	-1625.0	79032.0
31	17	9	13	144	254.0	-194050.0	-1661.0	83922.0
31	17	9	13	145	255.0	-184645.0	-1677.0	86149.0
31	17	9	13	145	0.0	-176709.0	-1711.0	86651.0
31	17	9	13	146	1.0	-172146.0	-1736.0	86436.0
31	17	9	13	146	2.0	-172319.0	-1764.0	86466.0
31	17	9	13	147	3.0	-178043.0	-1767.0	86390.0
